0 0
0.05 0.00029
0.1 0.00209
0.15 0.00336
0.2 0.00571
0.25 0.00743
0.3 0.01004
0.35 0.01301
0.4 0.01407
0.45 0.01389
0.5 0.01391
0.55 0.01446
0.6 0.01404
0.65 0.01321
0.7 0.01216
0.75 0.01185
0.8 0.01112
0.85 0.0112
0.9 0.01124
0.95 0.01093
1 0.01132
1.05 0.01159
1.1 0.01218
1.15 0.01189
1.2 0.01175
1.25 0.01256
1.3 0.01206
1.35 0.01137
1.4 0.0106
1.45 0.01119
1.5 0.01153
1.55 0.01269
1.6 0.01292
1.65 0.01212
1.7 0.01057
1.75 0.00896
1.8 0.0089
1.85 0.00977
1.9 0.00921
1.95 0.00838
2 0.00759
2.05 0.00786
2.1 0.00856
2.15 0.00805
2.2 0.00869
2.25 0.00784
2.3 0.00607
2.35 0.00556
2.4 0.0046
2.45 0.00333
2.5 0.00217
2.55 0.00094
2.6 0.00119
2.65 0.00239
2.7 0.00436
2.75 0.00687
2.8 0.00899
2.85 0.0091
2.9 0.00852
2.95 0.00695
3 0.00545
3.05 0.00496
3.1 0.00521
3.15 0.00521
3.2 0.0061
3.25 0.00617
3.3 0.00667
3.35 0.00798
3.4 0.00784
3.45 0.00649
3.5 0.00518
3.55 0.00378
3.6 0.00314
3.65 0.00217
3.7 0.00201
3.75 0.00145
3.8 0.00098
3.85 0.00136
3.9 0.00188
3.95 0.00339
4 0.00552
4.05 0.00755
4.1 0.00864
4.15 0.00942
4.2 0.00944
4.25 0.00829
4.3 0.00751
4.35 0.00697
4.4 0.00707
4.45 0.00686
4.5 0.00643
4.55 0.00691
4.6 0.00676
4.65 0.00537
4.7 0.00335
4.75 0.00314
4.8 0.00302
4.85 0.00327
4.9 0.00229
4.95 0.00268
5 0.00403
5.05 0.00385
5.1 0.0028
5.15 0.00229
5.2 0.00223
5.25 0.00272
5.3 0.0036
5.35 0.00346
5.4 0.00418
5.45 0.00464
5.5 0.00517
5.55 0.00452
5.6 0.00451
5.65 0.00525
5.7 0.00652
5.75 0.00807
5.8 0.00958
5.85 0.01052
5.9 0.01145
5.95 0.01071
6 0.00829
6.05 0.00621
6.1 0.00503
6.15 0.00298
6.2 0.00259
6.25 0.00297
6.3 0.0032
6.35 0.00335
6.4 0.00347
6.45 0.00294
6.5 0.00355
6.55 0.00336
6.6 0.00194
6.65 0.00085
6.7 -0.00021
6.75 -0.00184
6.8 -0.00197
6.85 -0.00196
6.9 -0.00232
6.95 -0.00257
7 -0.00132
7.05 -0.00143
7.1 -0.00193
7.15 -0.0018
7.2 -0.00175
7.25 -0.0021
7.3 -0.00272
7.35 -0.00197
7.4 -0.0016
7.45 -0.0022
7.5 -0.00118
7.55 -0.00091
7.6 0.00023
7.65 0.00127
7.7 0.00186
7.75 0.00137
7.8 0.00076
7.85 0.00114
7.9 0.0011
7.95 0.00156
8 0.00161
8.05 0.0017
8.1 0.0016
8.15 0.00097
8.2 -0.0002
8.25 -0.00171
8.3 -0.00251
8.35 -0.00298
8.4 -0.00308
8.45 -0.00236
8.5 -0.00255
8.55 -0.00282
8.6 -0.00262
8.65 -0.00311
8.7 -0.0029
8.75 -0.00249
8.8 -0.00115
8.85 -0.00023
8.9 0.00049
8.95 -0.00011
9 -0.00035
9.05 -0.00071
9.1 -0.00054
9.15 -0.00002
9.2 0.00004
9.25 0.00094
9.3 0.00154
9.35 0.00202
9.4 0.00259
9.45 0.00281
9.5 0.00317
9.55 0.00245
9.6 0.00137
9.65 -0.00027
9.7 -0.00216
9.75 -0.00209
9.8 -0.00267
9.85 -0.00301
9.9 -0.00215
9.95 -0.00185
10 -0.00103
10.05 0.00044
10.1 0.00258
10.15 0.00264
10.2 0.00276
10.25 0.00282
10.3 0.00367
10.35 0.00492
10.4 0.00623
10.45 0.00543
10.5 0.00555
10.55 0.00449
10.6 0.00333
10.65 0.00148
10.7 0.00009
10.75 -0.00187
10.8 -0.00289
10.85 -0.00393
10.9 -0.00458
10.95 -0.00367
11 -0.00265
11.05 -0.00153
11.1 -0.0017
11.15 -0.00211
11.2 -0.00115
11.25 -0.00089
11.3 -0.00073
11.35 -0.00038
11.4 0.00083
11.45 0.00204
11.5 0.00184
11.55 0.00249
11.6 0.00282
11.65 0.00293
11.7 0.00208
11.75 0.00233
11.8 0.00251
11.85 0.00198
11.9 0.00189
11.95 0.00177
12 0.00051
12.05 0.00032
12.1 -0.00005
12.15 -0.00037
12.2 -0.00123
12.25 -0.00161
12.3 -0.00271
12.35 -0.00237
12.4 -0.00286
12.45 -0.00258
12.5 -0.00139
12.55 0.00001
12.6 0.00061
12.65 -0.00013
12.7 0.00021
12.75 -0.00016
12.8 -0.0015
12.85 -0.00116
12.9 -0.00096
12.95 -0.0007
13 -0.00135
13.05 -0.00247
13.1 -0.00323
13.15 -0.00335
13.2 -0.00309
13.25 -0.00354
13.3 -0.00275
13.35 -0.00273
13.4 -0.00255
13.45 -0.00138
13.5 -0.00159
13.55 -0.00152
13.6 -0.00043
13.65 0.00074
13.7 0.00149
13.75 0.00297
13.8 0.00488
13.85 0.00522
13.9 0.00464
13.95 0.00357
14 0.003
14.05 0.00298
14.1 0.00379
14.15 0.00406
14.2 0.00473
14.25 0.00386
14.3 0.00207
14.35 0.00129
14.4 0.00179
14.45 0.00267
14.5 0.00412
14.55 0.0046
14.6 0.00546
14.65 0.00588
14.7 0.00618
14.75 0.00616
14.8 0.00673
14.85 0.00559
14.9 0.00369
14.95 0.00187
15 -0.00008
15.05 -0.00232
15.1 -0.00284
15.15 -0.00241
15.2 -0.00263
15.25 -0.00235
15.3 -0.00105
15.35 0.00052
15.4 0.00155
15.45 0.00281
15.5 0.0024
15.55 0.00165
15.6 0.0015
15.65 0.00062
15.7 0.00093
15.75 0.00189
15.8 0.00194
15.85 0.00266
15.9 0.00225
15.95 0.00239
16 0.00131
16.05 -0.00062
16.1 -0.00102
16.15 -0.00013
16.2 0.00095
16.25 0.00257
16.3 0.00218
16.35 0.0027
16.4 0.00227
16.45 0.00129
16.5 0.00118
16.55 0.00048
16.6 0.00098
16.65 0.001
16.7 0.00137
16.75 0.00135
16.8 0.00027
16.85 0.00006
16.9 0.00062
16.95 0.00017
17 0.00019
17.05 0.00044
17.1 -0.00014
17.15 -0.00134
17.2 -0.00237
17.25 -0.003
17.3 -0.00322
17.35 -0.00427
17.4 -0.00537
17.45 -0.00471
17.5 -0.00335
17.55 -0.00123
17.6 0.00106
17.65 0.00149
17.7 0.0025
17.75 0.00241
17.8 0.00259
17.85 0.00237
17.9 0.00107
17.95 0.00089
18 0.00118
18.05 0.00179
18.1 0.00283
18.15 0.00199
18.2 0.00106
18.25 -0.0007
18.3 -0.00185
18.35 -0.00155
18.4 -0.00102
18.45 0.00024
18.5 0.00165
18.55 0.0033
18.6 0.00307
18.65 0.0034
18.7 0.0036
18.75 0.00279
18.8 0.00302
18.85 0.00178
18.9 0.00106
18.95 0.00027
19 -0.00066
19.05 -0.00225
19.1 -0.0041
19.15 -0.00468
19.2 -0.00485
19.25 -0.00379
19.3 -0.00326
19.35 -0.00318
19.4 -0.00407
19.45 -0.00439
19.5 -0.00345
19.55 -0.00339
19.6 -0.00207
19.65 -0.00181
19.7 -0.00054
19.75 -0.0006
19.8 0.00003
19.85 0.00012
19.9 0.0005
19.95 0.00013
20 0.00091
20.05 0.00057
20.1 0.00069
20.15 0.00138
20.2 0.00197
20.25 0.00113
20.3 0.0012
20.35 0.00216
20.4 0.00167
20.45 0.00006
20.5 -0.00169
20.55 -0.00181
20.6 -0.00186
20.65 -0.00101
20.7 -0.00146
20.75 -0.00111
20.8 -0.00076
20.85 0.0001
20.9 0.00053
20.95 0.00156
21 0.00231
21.05 0.00305
21.1 0.0021
21.15 0.00029
21.2 -0.00065
21.25 -0.00072
21.3 -0.00184
21.35 -0.00213
21.4 -0.00136
21.45 0.00023
21.5 0.00084
21.55 0.00014
21.6 -0.00135
21.65 -0.00309
21.7 -0.00294
21.75 -0.00185
21.8 -0.00114
21.85 -0.00054
21.9 -0.00032
21.95 0.00056
22 -0.00003
22.05 -0.00158
22.1 -0.00321
22.15 -0.00363
22.2 -0.00295
22.25 -0.00216
22.3 -0.00227
22.35 -0.0022
22.4 -0.0021
22.45 -0.00171
22.5 -0.00109
22.55 -0.00104
22.6 -0.00136
22.65 -0.00259
22.7 -0.00269
22.75 -0.00314
22.8 -0.00362
22.85 -0.00331
22.9 -0.00254
22.95 -0.00184
23 -0.00236
23.05 -0.00265
23.1 -0.00265
23.15 -0.00219
23.2 -0.00223
23.25 -0.0016
23.3 -0.00174
23.35 -0.00235
23.4 -0.00192
23.45 -0.00154
23.5 -0.00157
23.55 -0.00143
23.6 -0.00017
23.65 0.00127
23.7 0.00307
23.75 0.00506
23.8 0.00661
23.85 0.00656
23.9 0.00598
23.95 0.00532
24 0.00435
24.05 0.00249
24.1 0.00016
24.15 -0.00183
24.2 -0.00203
24.25 -0.00238
24.3 -0.00179
24.35 -0.00179
24.4 -0.00149
24.45 -0.00099
24.5 -0.00089
24.55 0.00004
24.6 0.00001
24.65 0.00095
24.7 0.00258
24.75 0.00352
24.8 0.00297
24.85 0.00309
24.9 0.00394
24.95 0.00459
25 0.00462
25.05 0.00451
25.1 0.00431
25.15 0.00434
25.2 0.00469
25.25 0.00543
25.3 0.00588
25.35 0.00603
25.4 0.00616
25.45 0.00582
25.5 0.00517
25.55 0.00447
25.6 0.00308
25.65 0.00158
25.7 0.0012
25.75 0.00118
25.8 0.00117
25.85 -0.00021
25.9 -0.00063
25.95 -0.00108
26 -0.0017
26.05 -0.00097
26.1 -0.00064
26.15 -0.00094
26.2 -0.00161
26.25 -0.00202
26.3 -0.00212
26.35 -0.0027
26.4 -0.00231
26.45 -0.00288
26.5 -0.00278
26.55 -0.0028
26.6 -0.00219
26.65 -0.00235
26.7 -0.00293
26.75 -0.00241
26.8 -0.00198
26.85 -0.00264
26.9 -0.00236
26.95 -0.00238
27 -0.0019
27.05 -0.00097
27.1 0.00002
27.15 0.00075
27.2 -0.00003
27.25 0.00024
27.3 0.00121
27.35 0.00049
27.4 0.00086
27.45 0.00013
27.5 0.0003
27.55 0.00052
27.6 0.001
27.65 0.00136
27.7 0.00021
27.75 -0.00032
27.8 -0.00084
27.85 -0.00228
27.9 -0.00325
27.95 -0.00324
28 -0.0037
28.05 -0.00306
28.1 -0.00159
28.15 -0.00034
28.2 0.00052
28.25 -0.00015
28.3 -0.00058
28.35 0.00012
28.4 0.00132
28.45 0.00286
28.5 0.0023
28.55 0.00125
28.6 -0.00015
28.65 -0.00221
28.7 -0.00427
28.75 -0.00494
28.8 -0.00662
28.85 -0.00903
28.9 -0.01127
28.95 -0.01218
29 -0.01318
29.05 -0.0144
29.1 -0.01668
29.15 -0.01947
29.2 -0.02238
29.25 -0.0255
29.3 -0.0284
29.35 -0.03228
29.4 -0.03817
29.45 -0.04531
29.5 -0.05264
29.55 -0.06151
29.6 -0.07178
29.65 -0.08152
29.7 -0.09137
29.75 -0.10225
29.8 -0.11627
29.85 -0.13183
29.9 -0.15035
29.95 -0.17128
30 -0.19375
30.05 -0.21643
30.1 -0.24011
30.15 -0.26586
30.2 -0.29436
30.25 -0.32476
30.3 -0.35451
30.35 -0.38549
30.4 -0.41673
30.45 -0.44869
30.5 -0.48087
30.55 -0.51223
30.6 -0.54312
30.65 -0.57335
30.7 -0.60152
30.75 -0.62775
30.8 -0.65098
30.85 -0.67198
30.9 -0.69
30.95 -0.70378
31 -0.71272
31.05 -0.71682
31.1 -0.71544
31.15 -0.70924
31.2 -0.69855
31.25 -0.68345
31.3 -0.66382
31.35 -0.64029
31.4 -0.6133
31.45 -0.5831
31.5 -0.54968
31.55 -0.51268
31.6 -0.47156
31.65 -0.42676
31.7 -0.38086
31.75 -0.33363
31.8 -0.2841
31.85 -0.23386
31.9 -0.18434
31.95 -0.13413
32 -0.08321
32.05 -0.03455
32.1 0.01389
32.15 0.06081
32.2 0.10524
32.25 0.14695
32.3 0.18729
32.35 0.22457
32.4 0.25905
32.45 0.29194
32.5 0.32199
32.55 0.35016
32.6 0.37582
32.65 0.40047
32.7 0.4222
32.75 0.44095
32.8 0.45744
32.85 0.47316
32.9 0.48817
32.95 0.50188
33 0.51548
33.05 0.52697
33.1 0.5381
33.15 0.54794
33.2 0.55486
33.25 0.55979
33.3 0.56467
33.35 0.56877
33.4 0.57202
33.45 0.57339
33.5 0.57344
33.55 0.5742
33.6 0.57442
33.65 0.5723
33.7 0.56866
33.75 0.56525
33.8 0.5607
33.85 0.55484
33.9 0.54912
33.95 0.54344
34 0.536
34.05 0.52698
34.1 0.51851
34.15 0.50831
34.2 0.49778
34.25 0.48796
34.3 0.47797
34.35 0.46668
34.4 0.45466
34.45 0.44239
34.5 0.43012
34.55 0.41764
34.6 0.4054
34.65 0.39357
34.7 0.38024
34.75 0.36585
34.8 0.35297
34.85 0.34047
34.9 0.3267
34.95 0.3129
35 0.29937
35.05 0.28578
35.1 0.27341
35.15 0.26197
35.2 0.25039
35.25 0.23917
35.3 0.22734
35.35 0.21711
35.4 0.20583
35.45 0.19614
35.5 0.18549
35.55 0.17454
35.6 0.16413
35.65 0.15351
35.7 0.14283
35.75 0.13311
35.8 0.1248
35.85 0.11763
35.9 0.10945
35.95 0.10225
36 0.09555
36.05 0.0895
36.1 0.08187
36.15 0.07375
36.2 0.06546
36.25 0.05795
36.3 0.04992
36.35 0.04342
36.4 0.0365
36.45 0.03092
36.5 0.0254
36.55 0.01903
36.6 0.01342
36.65 0.00872
36.7 0.00313
36.75 -0.0016
36.8 -0.00744
36.85 -0.0121
36.9 -0.01682
36.95 -0.02243
37 -0.02747
37.05 -0.03121
37.1 -0.03516
37.15 -0.03936
37.2 -0.04354
37.25 -0.04775
37.3 -0.05147
37.35 -0.05488
37.4 -0.05896
37.45 -0.06143
37.5 -0.06425
37.55 -0.06751
37.6 -0.07114
37.65 -0.07377
37.7 -0.07581
37.75 -0.07634
37.8 -0.07611
37.85 -0.07591
37.9 -0.07541
37.95 -0.07691
38 -0.07874
38.05 -0.0795
38.1 -0.08093
38.15 -0.08328
38.2 -0.0863
38.25 -0.08939
38.3 -0.09244
38.35 -0.09513
38.4 -0.0974
38.45 -0.09712
38.5 -0.09653
38.55 -0.09535
38.6 -0.09289
38.65 -0.09111
38.7 -0.0905
38.75 -0.09009
38.8 -0.08844
38.85 -0.08812
38.9 -0.08712
38.95 -0.0872
39 -0.08686
39.05 -0.08608
39.1 -0.08448
39.15 -0.08256
39.2 -0.08113
39.25 -0.07975
39.3 -0.07884
39.35 -0.07809
39.4 -0.07708
39.45 -0.07551
39.5 -0.0736
39.55 -0.07202
39.6 -0.07226
39.65 -0.07318
39.7 -0.07447
39.75 -0.07468
39.8 -0.07341
39.85 -0.07107
39.9 -0.06869
39.95 -0.06682
40 -0.06645
40.05 -0.06554
40.1 -0.06554
40.15 -0.06579
40.2 -0.06576
40.25 -0.06526
40.3 -0.06433
40.35 -0.06409
40.4 -0.06273
40.45 -0.06248
40.5 -0.06126
40.55 -0.05916
40.6 -0.05721
40.65 -0.05595
40.7 -0.05488
40.75 -0.05437
40.8 -0.05415
40.85 -0.054
40.9 -0.05291
40.95 -0.05283
41 -0.0523
41.05 -0.05106
41.1 -0.04896
41.15 -0.04834
41.2 -0.04789
41.25 -0.04838
41.3 -0.04728
41.35 -0.04612
41.4 -0.04609
41.45 -0.04661
41.5 -0.04668
41.55 -0.04522
41.6 -0.04442
41.65 -0.0424
41.7 -0.04034
41.75 -0.03807
41.8 -0.03739
41.85 -0.03611
41.9 -0.03474
41.95 -0.03488
42 -0.03411
42.05 -0.03369
42.1 -0.03424
42.15 -0.03509
42.2 -0.0354
42.25 -0.03621
42.3 -0.03743
42.35 -0.03863
42.4 -0.03904
42.45 -0.03837
42.5 -0.03774
42.55 -0.03648
42.6 -0.03543
42.65 -0.03528
42.7 -0.03346
42.75 -0.03272
42.8 -0.03102
42.85 -0.03074
42.9 -0.02919
42.95 -0.02901
43 -0.02782
43.05 -0.02738
43.1 -0.02612
43.15 -0.02615
43.2 -0.02568
43.25 -0.02443
43.3 -0.02246
43.35 -0.02081
43.4 -0.02006
43.45 -0.02034
43.5 -0.02073
43.55 -0.02186
43.6 -0.02359
43.65 -0.02536
43.7 -0.02546
43.75 -0.02531
43.8 -0.02375
43.85 -0.02351
43.9 -0.02193
43.95 -0.02135
44 -0.02117
44.05 -0.01991
44.1 -0.01913
44.15 -0.01809
44.2 -0.01778
44.25 -0.01694
44.3 -0.01567
44.35 -0.01428
44.4 -0.01312
44.45 -0.01182
44.5 -0.01122
44.55 -0.01053
44.6 -0.01008
44.65 -0.01094
44.7 -0.01163
44.75 -0.01175
44.8 -0.01297
44.85 -0.01507
44.9 -0.01581
44.95 -0.01615
45 -0.01681
45.05 -0.01763
45.1 -0.01833
45.15 -0.01823
45.2 -0.01756
45.25 -0.01687
45.3 -0.01556
45.35 -0.01464
45.4 -0.01457
45.45 -0.01496
45.5 -0.0154
45.55 -0.01495
45.6 -0.015
45.65 -0.01501
45.7 -0.0153
45.75 -0.01441
45.8 -0.01386
45.85 -0.01423
45.9 -0.01401
45.95 -0.0127
46 -0.01079
46.05 -0.01055
46.1 -0.00989
46.15 -0.00976
46.2 -0.00998
46.25 -0.00891
46.3 -0.00813
46.35 -0.0084
46.4 -0.009
46.45 -0.01029
46.5 -0.01157
46.55 -0.01237
46.6 -0.01147
46.65 -0.0108
46.7 -0.00991
46.75 -0.00816
46.8 -0.00602
46.85 -0.00451
46.9 -0.00434
46.95 -0.00511
47 -0.00674
47.05 -0.00724
47.1 -0.00711
47.15 -0.00628
47.2 -0.00481
47.25 -0.00342
47.3 -0.00222
47.35 -0.00103
47.4 -0.00119
47.45 -0.00185
47.5 -0.00293
47.55 -0.00437
47.6 -0.00486
47.65 -0.00451
47.7 -0.00446
47.75 -0.00539
47.8 -0.00534
47.85 -0.00579
47.9 -0.00724
47.95 -0.00714
48 -0.00707
48.05 -0.00771
48.1 -0.00692
48.15 -0.00671
48.2 -0.00695
48.25 -0.00746
48.3 -0.0068
48.35 -0.00666
48.4 -0.00662
48.45 -0.00725
48.5 -0.00816
48.55 -0.00916
48.6 -0.00952
48.65 -0.00951
48.7 -0.0098
48.75 -0.00921
48.8 -0.00804
48.85 -0.00707
48.9 -0.00623
48.95 -0.00575
49 -0.00504
49.05 -0.00537
49.1 -0.0055
49.15 -0.00629
49.2 -0.00544
49.25 -0.00395
49.3 -0.0019
49.35 -0.00177
49.4 -0.00112
49.45 -0.00147
49.5 -0.00131
49.55 -0.00072
49.6 0.0001
49.65 0.00045
49.7 0.00105
49.75 0.0001
49.8 -0.0005
49.85 -0.00201
49.9 -0.00375
49.95 -0.00434
50 -0.00447
50.05 -0.0052
50.1 -0.00437
50.15 -0.00411
50.2 -0.00425
50.25 -0.00484
50.3 -0.00413
50.35 -0.00334
50.4 -0.00376
50.45 -0.00279
50.5 -0.003
50.55 -0.00402
50.6 -0.00551
50.65 -0.00622
50.7 -0.00724
50.75 -0.00765
50.8 -0.00638
50.85 -0.0047
50.9 -0.00388
50.95 -0.00429
51 -0.00452
51.05 -0.00542
51.1 -0.00521
51.15 -0.00452
51.2 -0.00472
51.25 -0.00351
51.3 -0.0025
51.35 -0.00257
51.4 -0.00301
51.45 -0.00377
51.5 -0.00464
51.55 -0.00464
51.6 -0.00491
51.65 -0.0043
51.7 -0.00283
51.75 -0.00153
51.8 -0.00151
51.85 -0.00067
51.9 -0.00051
51.95 -0.00015
52 -0.00024
52.05 0.00036
52.1 0.00101
52.15 0.00097
52.2 -0.00015
52.25 -0.00174
52.3 -0.00338
52.35 -0.0038
52.4 -0.00491
52.45 -0.00572
52.5 -0.0049
52.55 -0.00479
52.6 -0.00526
52.65 -0.00519
52.7 -0.00462
52.75 -0.00381
52.8 -0.00257
52.85 -0.00097
52.9 -0.0001
52.95 -0.00063
53 -0.00099
53.05 -0.00114
53.1 -0.00221
53.15 -0.00355
53.2 -0.00395
53.25 -0.00421
53.3 -0.00441
53.35 -0.00422
53.4 -0.00418
53.45 -0.00415
53.5 -0.00365
53.55 -0.00334
53.6 -0.00209
53.65 -0.00192
53.7 -0.00149
53.75 -0.00169
53.8 -0.00077
53.85 0.00093
53.9 0.00278
53.95 0.0034
54 0.00394
54.05 0.00456
54.1 0.00426
54.15 0.00452
54.2 0.00486
54.25 0.00361
54.3 0.0035
54.35 0.00205
54.4 0.00012
54.45 -0.0008
54.5 -0.00241
54.55 -0.00247
54.6 -0.00322
54.65 -0.00448
54.7 -0.00482
54.75 -0.00563
54.8 -0.00565
54.85 -0.00573
54.9 -0.0042
54.95 -0.00203
55 -0.00157
55.05 -0.00133
55.1 -0.00217
55.15 -0.00226
55.2 -0.00249
55.25 -0.00296
55.3 -0.00331
55.35 -0.00325
55.4 -0.00382
55.45 -0.00436
55.5 -0.00453
55.55 -0.00377
55.6 -0.00179
55.65 -0.00115
55.7 0.00022
55.75 0.00045
55.8 -0.00046
55.85 -0.00021
55.9 -0.00052
55.95 0.00051
56 0.00226
56.05 0.00273
56.1 0.00299
56.15 0.00393
56.2 0.0033
56.25 0.0021
56.3 0.00228
56.35 0.00186
56.4 0.00079
56.45 -0.00078
56.5 -0.00246
56.55 -0.00423
56.6 -0.00553
56.65 -0.0059
56.7 -0.00651
56.75 -0.00711
56.8 -0.00685
56.85 -0.00519
56.9 -0.00391
56.95 -0.00351
57 -0.00225
57.05 -0.00057
57.1 0.00059
57.15 0.00187
57.2 0.00252
57.25 0.00208
57.3 0.00203
57.35 0.00282
57.4 0.00265
57.45 0.00182
57.5 0.00187
57.55 0.00074
57.6 0.00098
57.65 0.00135
57.7 0.00269
57.75 0.00239
57.8 0.00273
57.85 0.00381
57.9 0.0048
57.95 0.00551
58 0.00504
58.05 0.00472
58.1 0.00423
58.15 0.00322
58.2 0.00127
58.25 -0.00044
58.3 -0.001
58.35 -0.00077
58.4 0.00003
58.45 0.00135
58.5 0.00281
58.55 0.00246
58.6 0.00153
58.65 -0.00013
58.7 -0.00101
58.75 -0.00115
58.8 -0.00226
58.85 -0.00339
58.9 -0.00263
58.95 -0.00078
59 -0.00027
59.05 -0.00004
59.1 0.00067
59.15 0.00058
59.2 0.00148
59.25 0.00301
59.3 0.00482
59.35 0.00608
59.4 0.00687
59.45 0.00778
59.5 0.00776
59.55 0.00743
59.6 0.00655
59.65 0.00469
59.7 0.00256
59.75 0.00018
59.8 -0.00239
59.85 -0.00283
59.9 -0.00399
59.95 -0.00517
60 -0.00476
60.05 -0.00481
60.1 -0.00351
60.15 -0.00169
60.2 0.00025
60.25 0.00059
60.3 0.00083
60.35 0.00055
60.4 -0.00037
60.45 -0.00075
60.5 -0.00152
60.55 -0.00246
60.6 -0.00388
60.65 -0.00454
60.7 -0.00371
60.75 -0.00383
60.8 -0.00428
60.85 -0.00354
60.9 -0.00265
60.95 -0.00207
61 -0.00132
61.05 -0.00027
61.1 0.00038
61.15 0.00123
61.2 0.00187
61.25 0.00241
61.3 0.00352
61.35 0.00372
61.4 0.00331
61.45 0.00265
61.5 0.0028
61.55 0.00194
61.6 0.00105
61.65 -0.00011
61.7 -0.00067
61.75 0.00003
61.8 0.00122
61.85 0.00129
61.9 0.00169
61.95 0.00125
62 0.00144
62.05 0.00255
62.1 0.00207
62.15 0.00181
62.2 0.00091
62.25 -0.00067
62.3 -0.00232
62.35 -0.00382
62.4 -0.00457
62.45 -0.00491
62.5 -0.00496
62.55 -0.00415
62.6 -0.00343
62.65 -0.0029
62.7 -0.00164
62.75 -0.0003
62.8 0.00042
62.85 0.00076
62.9 0.00024
62.95 -0.00078
63 -0.00124
63.05 -0.00148
63.1 -0.00115
63.15 -0.00022
63.2 -0.00034
63.25 -0.00121
63.3 -0.00255
63.35 -0.00385
63.4 -0.00522
63.45 -0.00455
63.5 -0.00274
63.55 -0.00168
63.6 -0.00132
63.65 -0.00127
63.7 -0.0018
63.75 -0.00131
63.8 -0.00019
63.85 0.00113
63.9 0.00305
63.95 0.00348
64 0.00353
64.05 0.00235
64.1 0.00071
64.15 -0.00142
64.2 -0.00329
64.25 -0.00504
64.3 -0.0055
64.35 -0.00529
64.4 -0.00483
64.45 -0.00452
64.5 -0.00403
64.55 -0.00356
64.6 -0.00231
64.65 -0.00085
64.7 0.00013
64.75 0.00052
64.8 0.00155
64.85 0.00179
64.9 0.00117
64.95 0.00052
65 0.00058
65.05 0.00118
65.1 0.00272
65.15 0.0034
65.2 0.00331
65.25 0.00385
65.3 0.00281
65.35 0.00153
65.4 0.00001
65.45 -0.00095
65.5 -0.00043
65.55 -0.00093
65.6 -0.00196
65.65 -0.00258
65.7 -0.00336
65.75 -0.00415
65.8 -0.00452
65.85 -0.0048
65.9 -0.00371
65.95 -0.00357
66 -0.00401
66.05 -0.00405
66.1 -0.00294
66.15 -0.00289
66.2 -0.00252
66.25 -0.0019
66.3 -0.00101
66.35 -0.00107
66.4 -0.00052
66.45 0.0008
66.5 0.00107
66.55 0.00043
66.6 -0.00054
66.65 -0.0018
66.7 -0.00236
66.75 -0.0016
66.8 -0.00034
66.85 -0.00038
66.9 0.00073
66.95 0.0023
67 0.00422
67.05 0.00559
67.1 0.00662
67.15 0.00568
67.2 0.00375
67.25 0.003
67.3 0.00196
67.35 0.00189
67.4 0.00284
67.45 0.00319
67.5 0.00393
67.55 0.0043
67.6 0.00311
67.65 0.00251
67.7 0.00113
67.75 0.0001
67.8 -0.00091
67.85 -0.00165
67.9 -0.00122
67.95 -0.00092
68 -0.00122
68.05 -0.00181
68.1 -0.00125
68.15 -0.00173
68.2 -0.00145
68.25 -0.00165
68.3 -0.00167
68.35 -0.00246
68.4 -0.00208
68.45 -0.00124
68.5 -0.00055
68.55 -0.00012
68.6 0.00001
68.65 0.00021
68.7 0.00101
68.75 0.00174
68.8 0.00198
68.85 0.00168
68.9 0.00042
68.95 0.00037
69 0.001
69.05 0.00093
69.1 0.00087
69.15 0.00115
69.2 0.00218
69.25 0.00284
69.3 0.004
69.35 0.00547
69.4 0.0069
69.45 0.00791
69.5 0.00822
69.55 0.00773
69.6 0.00628
69.65 0.00416
69.7 0.00245
69.75 0.00056
69.8 -0.00179
69.85 -0.00399
69.9 -0.00438
69.95 -0.00315
70 -0.0025
70.05 -0.0009
70.1 -0.00077
70.15 -0.00076
70.2 0.0004
70.25 0.00218
70.3 0.00234
70.35 0.00164
70.4 0.00019
70.45 0.00029
70.5 -0.00076
70.55 -0.00024
70.6 0.00091
70.65 0.00223
70.7 0.00288
70.75 0.00266
70.8 0.00327
70.85 0.00404
70.9 0.00382
70.95 0.0033
71 0.00189
71.05 0.00172
71.1 0.00034
71.15 -0.00064
71.2 -0.00025
71.25 -0.00087
71.3 -0.00041
71.35 0.00054
71.4 0.00123
71.45 0.00216
71.5 0.0026
71.55 0.00149
71.6 0.00113
71.65 0.00192
71.7 0.00274
71.75 0.00252
71.8 0.0025
71.85 0.00322
71.9 0.00435
71.95 0.00511
72 0.00584
72.05 0.00579
72.1 0.00534
72.15 0.00531
72.2 0.00406
72.25 0.0033
72.3 0.0013
72.35 0.00084
72.4 0.00044
72.45 0.00061
72.5 -0.00059
72.55 -0.00218
72.6 -0.00412
72.65 -0.00526
72.7 -0.00628
72.75 -0.00594
72.8 -0.00623
72.85 -0.00675
72.9 -0.00613
72.95 -0.00458
73 -0.00431
73.05 -0.00456
73.1 -0.00407
73.15 -0.00275
73.2 -0.0008
73.25 -0.00062
73.3 -0.00135
73.35 -0.00076
73.4 -0.00044
73.45 0.0002
73.5 0.00061
73.55 -0.00029
73.6 0.00013
73.65 0.00087
73.7 0.00149
73.75 0.00136
73.8 0.0018
73.85 0.00161
73.9 0.00057
73.95 -0.00103
74 -0.0028
74.05 -0.00384
74.1 -0.00448
74.15 -0.00558
74.2 -0.00659
74.25 -0.00626
74.3 -0.00477
74.35 -0.00397
74.4 -0.00358
74.45 -0.00337
74.5 -0.00258
74.55 -0.00178
74.6 -0.00129
74.65 -0.00023
74.7 0.00124
74.75 0.00317
74.8 0.00309
74.85 0.00329
74.9 0.00215
74.95 0.00018
75 -0.00083
75.05 -0.00129
75.1 -0.00131
75.15 -0.00088
75.2 0.00054
75.25 0.00173
75.3 0.00324
75.35 0.0042
75.4 0.00495
75.45 0.0054
75.5 0.00552
75.55 0.00506
75.6 0.00407
75.65 0.00348
75.7 0.00376
75.75 0.00299
75.8 0.00295
75.85 0.00314
75.9 0.00227
75.95 0.00147
76 0.00064
76.05 -0.00087
76.1 -0.00087
76.15 -0.00033
76.2 0.00016
76.25 0.00131
76.3 0.00261
76.35 0.00237
76.4 0.00148
76.45 -0.00039
76.5 -0.00053
76.55 0.00049
76.6 0.00056
76.65 0.00112
76.7 0.00205
76.75 0.00286
76.8 0.002
76.85 0.00225
76.9 0.00164
76.95 0.0021
77 0.00271
77.05 0.00201
77.1 0.00076
77.15 -0.00122
77.2 -0.00266
77.25 -0.00374
77.3 -0.0049
77.35 -0.00584
77.4 -0.0064
77.45 -0.00738
77.5 -0.00838
77.55 -0.00892
77.6 -0.00953
77.65 -0.00801
77.7 -0.00713
77.75 -0.00635
77.8 -0.00522
77.85 -0.00346
77.9 -0.0015
77.95 -0.00034
78 0.00103
78.05 0.0012
78.1 0.00163
78.15 0.00209
78.2 0.00254
78.25 0.0032
78.3 0.00323
78.35 0.00357
78.4 0.00424
78.45 0.00357
78.5 0.00282
78.55 0.00136
78.6 0.00144
78.65 0.00188
78.7 0.00157
78.75 0.0011
78.8 0.00081
78.85 -0.00007
78.9 -0.00088
78.95 -0.001
79 -0.00077
79.05 -0.00119
79.1 -0.00145
79.15 -0.00264
79.2 -0.00221
79.25 -0.00196
79.3 -0.00255
79.35 -0.00295
79.4 -0.0023
79.45 -0.00166
79.5 -0.00053
79.55 0.00051
79.6 0.00161
79.65 0.00156
79.7 0.00169
79.75 0.00185
79.8 0.00238
79.85 0.00228
79.9 0.002
79.95 0.00186
80 0.00148
80.05 0.00083
80.1 0.00125
80.15 0.00046
80.2 0.00079
80.25 0.00007
80.3 0.00004
80.35 0.00089
80.4 0.00065
80.45 0.00088
80.5 -0.00019
80.55 -0.00035
80.6 0.00039
80.65 0.00019
80.7 0.00028
80.75 0.00013
80.8 -0.00021
80.85 -0.0012
80.9 -0.00142
80.95 -0.00218
81 -0.00183
81.05 -0.00117
81.1 -0.00167
81.15 -0.00193
81.2 -0.00267
81.25 -0.00178
81.3 -0.00193
81.35 -0.00134
81.4 -0.0015
81.45 -0.00063
81.5 0.00028
81.55 0.00058
81.6 0.00171
81.65 0.00307
81.7 0.00422
81.75 0.00411
81.8 0.00357
81.85 0.00212
81.9 0.00084
81.95 0.00042
82 0.00119
82.05 0.00261
82.1 0.004
82.15 0.00518
82.2 0.00588
82.25 0.00555
82.3 0.00497
82.35 0.00303
82.4 0.00209
82.45 0.00157
82.5 0.00193
82.55 0.00225
82.6 0.00323
82.65 0.00336
82.7 0.00213
82.75 0.0008
82.8 0.00026
82.85 -0.00063
82.9 -0.00017
82.95 0.00082
83 0.00181
83.05 0.00197
83.1 0.00093
83.15 -0.0009
83.2 -0.00166
83.25 -0.00273
83.3 -0.00328
83.35 -0.00414
83.4 -0.00389
83.45 -0.00297
83.5 -0.00199
83.55 -0.00239
83.6 -0.00367
83.65 -0.00441
83.7 -0.00565
83.75 -0.00629
83.8 -0.00658
83.85 -0.00703
83.9 -0.0064
83.95 -0.00604
84 -0.00633
84.05 -0.00579
84.1 -0.00586
84.15 -0.00436
84.2 -0.00271
84.25 -0.00239
84.3 -0.00127
84.35 0.00042
84.4 0.00082
84.45 0.00188
84.5 0.00163
84.55 0.00157
84.6 0.00253
84.65 0.0031
84.7 0.00228
84.75 0.0025
84.8 0.00215
84.85 0.00266
84.9 0.00287
84.95 0.00228
85 0.00173
85.05 0.00101
85.1 -0.00005
85.15 -0.00034
85.2 -0.00014
85.25 -0.00035
85.3 0.00034
85.35 0.00167
85.4 0.00182
85.45 0.00249
85.5 0.00249
85.55 0.00271
85.6 0.00338
85.65 0.00253
85.7 0.00065
85.75 -0.00051
85.8 -0.00108
85.85 -0.00128
85.9 -0.00142
85.95 -0.00228
86 -0.00278
86.05 -0.00297
86.1 -0.00354
86.15 -0.00284
86.2 -0.00134
86.25 0.00007
86.3 -0.00018
86.35 -0.00062
86.4 -0.00202
86.45 -0.00286
86.5 -0.00422
86.55 -0.00421
86.6 -0.00425
86.65 -0.00462
86.7 -0.00343
86.75 -0.00269
86.8 -0.00225
86.85 -0.00122
86.9 -0.00149
86.95 -0.0016
87 -0.00055
87.05 0.0003
87.1 0.00126
87.15 0.00193
87.2 0.00244
87.25 0.0032
87.3 0.00289
87.35 0.00182
87.4 0.00074
87.45 -0.00108
87.5 -0.00193
87.55 -0.00159
87.6 -0.00157
87.65 -0.0013
87.7 -0.00158
87.75 -0.0005
87.8 0.00105
87.85 0.00153
87.9 0.00156
87.95 0.00121
88 0.00006
88.05 -0.00041
88.1 -0.00163
88.15 -0.0011
88.2 -0.0003
88.25 0.00014
88.3 0.00136
88.35 0.00128
88.4 0.00188
88.45 0.00191
88.5 0.00074
88.55 0.001
88.6 0.00155
88.65 0.00229
88.7 0.0036
88.75 0.00406
88.8 0.0049
88.85 0.00426
88.9 0.00283
88.95 0.00164
89 0.00077
89.05 0.00038
89.1 -0.00098
89.15 -0.00286
89.2 -0.003
89.25 -0.00175
89.3 -0.00028
89.35 0.00117
89.4 0.00238
89.45 0.00296
89.5 0.00405
89.55 0.00447
89.6 0.00449
89.65 0.00347
89.7 0.00147
89.75 -0.00098
89.8 -0.00272
89.85 -0.0045
89.9 -0.00601
89.95 -0.00718
90 -0.00802
90.05 -0.00794
90.1 -0.0082
90.15 -0.00791
90.2 -0.00732
90.25 -0.00644
90.3 -0.0042
90.35 -0.00255
90.4 -0.0014
90.45 -0.00032
90.5 0.00156
90.55 0.00218
90.6 0.00192
90.65 0.00047
90.7 -0.00034
90.75 -0
90.8 0.00122
90.85 0.00304
90.9 0.00345
90.95 0.00241
91 0.00099
91.05 0.00049
91.1 -0.00001
91.15 0.00038
91.2 -0.00035
91.25 -0.00031
91.3 -0.00056
91.35 -0.0004
91.4 0.00005
91.45 -0.00022
91.5 -0.00008
91.55 -0.00003
91.6 -0.00112
91.65 -0.0007
91.7 -0.00007
91.75 0.00045
91.8 0.00091
91.85 0.00079
91.9 0.00115
91.95 0.00032
92 0.00006
92.05 0.0007
92.1 0.00149
92.15 0.00282
92.2 0.00279
92.25 0.00312
92.3 0.00255
92.35 0.00215
92.4 0.00224
92.45 0.00217
92.5 0.0023
92.55 0.00205
92.6 0.00237
92.65 0.00165
92.7 0.00138
92.75 0.00065
92.8 0.00026
92.85 -0.00029
92.9 -0.00122
92.95 -0.00172
93 -0.0019
93.05 -0.00138
93.1 0.00019
93.15 0.00036
93.2 0.00108
93.25 0.00147
93.3 0.00068
93.35 0.00055
93.4 0.00027
93.45 0.00035
93.5 -0.00007
93.55 -0.00115
93.6 -0.00263
93.65 -0.00306
93.7 -0.00196
93.75 -0.00219
93.8 -0.00167
93.85 -0.00114
93.9 0.00009
93.95 0.00166
94 0.00187
94.05 0.00236
94.1 0.00184
94.15 0.0009
94.2 -0.00036
94.25 -0.00022
94.3 0.00063
94.35 0.00145
94.4 0.00124
94.45 0.00132
94.5 0.00232
94.55 0.00313
94.6 0.0035
94.65 0.0026
94.7 0.00237
94.75 0.00089
94.8 -0.00062
94.85 -0.00053
94.9 0.0006
94.95 0.00194
95 0.00352
95.05 0.00384
95.1 0.00393
95.15 0.00319
95.2 0.00338
95.25 0.00408
95.3 0.00494
95.35 0.00452
95.4 0.00448
95.45 0.00468
95.5 0.00424
95.55 0.00347
95.6 0.00352
95.65 0.00353
95.7 0.00309
95.75 0.00299
95.8 0.00141
95.85 -0.00057
95.9 -0.00136
95.95 -0.00294
96 -0.00413
96.05 -0.00411
96.1 -0.00459
96.15 -0.00565
96.2 -0.00674
96.25 -0.00749
96.3 -0.00683
96.35 -0.0069
96.4 -0.0053
96.45 -0.00465
96.5 -0.00352
96.55 -0.00171
96.6 0.00012
96.65 0.00007
96.7 0.0003
96.75 -0.00059
96.8 -0.00129
96.85 -0.00148
96.9 -0.00135
96.95 -0.00049
97 -0.00039
97.05 -0.0001
97.1 -0.00023
97.15 0.00059
97.2 0.00153
97.25 0.00172
97.3 0.00243
97.35 0.00254
97.4 0.00284
97.45 0.00174
97.5 0.00177
97.55 0.0006
97.6 0.0007
97.65 -0.00004
97.7 -0.00024
97.75 0.00059
97.8 0.00026
97.85 -0.00059
97.9 -0.00165
97.95 -0.00221
98 -0.00255
98.05 -0.0034
98.1 -0.00401
98.15 -0.0044
98.2 -0.00475
98.25 -0.00517
98.3 -0.005
98.35 -0.00547
98.4 -0.00649
98.45 -0.00655
98.5 -0.00716
98.55 -0.00786
98.6 -0.00831
98.65 -0.00737
98.7 -0.00609
98.75 -0.00441
98.8 -0.00308
98.85 -0.00262
98.9 -0.00141
98.95 -0.00155
99 -0.00139
99.05 -0.00076
99.1 -0.00116
99.15 -0.00108
99.2 -0.00037
99.25 0.00019
99.3 0.00171
99.35 0.00239
99.4 0.00162
99.45 0.00122
99.5 0.00068
99.55 0.00131
99.6 0.00155
99.65 0.00193
99.7 0.00206
99.75 0.00157
99.8 0.00039
99.85 -0.00145
99.9 -0.00215
99.95 -0.00219
