0 0
0.05 0.00037
0.1 0.0009
0.15 0.00127
0.2 0.00143
0.25 0.0021
0.3 0.00367
0.35 0.0058
0.4 0.00682
0.45 0.00842
0.5 0.00884
0.55 0.00975
0.6 0.00975
0.65 0.00986
0.7 0.01063
0.75 0.01086
0.8 0.0114
0.85 0.01103
0.9 0.01097
0.95 0.01146
1 0.01144
1.05 0.01107
1.1 0.01034
1.15 0.00998
1.2 0.01006
1.25 0.00904
1.3 0.00907
1.35 0.00871
1.4 0.00775
1.45 0.00627
1.5 0.00477
1.55 0.00349
1.6 0.00301
1.65 0.00338
1.7 0.00395
1.75 0.00463
1.8 0.0048
1.85 0.00552
1.9 0.00674
1.95 0.00762
2 0.00725
2.05 0.00649
2.1 0.0065
2.15 0.00631
2.2 0.0064
2.25 0.00559
2.3 0.00476
2.35 0.00355
2.4 0.00376
2.45 0.00457
2.5 0.0059
2.55 0.00741
2.6 0.00738
2.65 0.00645
2.7 0.00596
2.75 0.00572
2.8 0.00525
2.85 0.00444
2.9 0.00347
2.95 0.00307
3 0.00241
3.05 0.00262
3.1 0.00348
3.15 0.00428
3.2 0.00423
3.25 0.00366
3.3 0.00331
3.35 0.00262
3.4 0.0024
3.45 0.00191
3.5 0.0011
3.55 0.00011
3.6 -0.00069
3.65 -0.00016
3.7 0.00005
3.75 0.00122
3.8 0.00136
3.85 0.00215
3.9 0.0036
3.95 0.00523
4 0.0058
4.05 0.00644
4.1 0.0066
4.15 0.00645
4.2 0.00581
4.25 0.0044
4.3 0.00297
4.35 0.00282
4.4 0.0021
4.45 0.00142
4.5 0.00147
4.55 0.00084
4.6 0.00122
4.65 0.00167
4.7 0.00282
4.75 0.0037
4.8 0.00436
4.85 0.00421
4.9 0.0032
4.95 0.00307
5 0.00235
5.05 0.00171
5.1 0.00065
5.15 -0.00003
5.2 0.00012
5.25 0.00024
5.3 -0.00012
5.35 -0.00068
5.4 -0.00013
5.45 0.00039
5.5 0.0017
5.55 0.00312
5.6 0.00469
5.65 0.00531
5.7 0.00485
5.75 0.00358
5.8 0.00188
5.85 0.00144
5.9 0.00134
5.95 0.00185
6 0.00249
6.05 0.00304
6.1 0.00293
6.15 0.00198
6.2 0.00106
6.25 -0.0002
6.3 -0.0004
6.35 -0.00032
6.4 0.00034
6.45 0.0003
6.5 0.00043
6.55 -0.00013
6.6 -0.00081
6.65 -0.00065
6.7 -0.00037
6.75 0.00054
6.8 0.0008
6.85 0.00174
6.9 0.00179
6.95 0.00215
7 0.00192
7.05 0.00136
7.1 0.00179
7.15 0.00184
7.2 0.00237
7.25 0.00306
7.3 0.00332
7.35 0.00276
7.4 0.00202
7.45 0.00151
7.5 0.00057
7.55 0.00062
7.6 0.00124
7.65 0.00196
7.7 0.00157
7.75 0.0008
7.8 -0.00035
7.85 -0.00177
7.9 -0.00293
7.95 -0.004
8 -0.00472
8.05 -0.00498
8.1 -0.00488
8.15 -0.00428
8.2 -0.00292
8.25 -0.00088
8.3 0.00006
8.35 0.00126
8.4 0.00284
8.45 0.00426
8.5 0.00481
8.55 0.00461
8.6 0.0037
8.65 0.00373
8.7 0.0028
8.75 0.00193
8.8 0.00083
8.85 0.00053
8.9 -0.00009
8.95 -0.00003
9 -0.00013
9.05 -0.00003
9.1 -0.00004
9.15 0.00075
9.2 0.00172
9.25 0.00275
9.3 0.00318
9.35 0.00398
9.4 0.00381
9.45 0.00356
9.5 0.00317
9.55 0.00252
9.6 0.00182
9.65 0.00193
9.7 0.00107
9.75 0.00059
9.8 0.00084
9.85 0.00034
9.9 -0.00001
9.95 -0.00056
10 -0.00099
10.05 -0.00059
10.1 -0.0008
10.15 -0.00107
10.2 -0.00071
10.25 -0.00105
10.3 -0.00148
10.35 -0.00156
10.4 -0.0012
10.45 -0.00122
10.5 -0.00028
10.55 -0.00037
10.6 0.00046
10.65 0.00116
10.7 0.00198
10.75 0.00161
10.8 0.00203
10.85 0.00195
10.9 0.00246
10.95 0.00312
11 0.00256
11.05 0.0015
11.1 0.00155
11.15 0.00234
11.2 0.00207
11.25 0.00227
11.3 0.00207
11.35 0.00137
11.4 0.0009
11.45 0.00045
11.5 0.00087
11.55 0.00092
11.6 0.00129
11.65 0.00093
11.7 0.00146
11.75 0.00166
11.8 0.00248
11.85 0.00248
11.9 0.00286
11.95 0.00363
12 0.00424
12.05 0.00357
12.1 0.00369
12.15 0.00369
12.2 0.00362
12.25 0.00267
12.3 0.00247
12.35 0.00223
12.4 0.00225
12.45 0.00139
12.5 0.00035
12.55 -0.00015
12.6 -0.0003
12.65 -0.00013
12.7 -0.00051
12.75 -0.00047
12.8 -0.00109
12.85 -0.00061
12.9 -0.00069
12.95 -0.00092
13 -0.00182
13.05 -0.00164
13.1 -0.0018
13.15 -0.00239
13.2 -0.00274
13.25 -0.00311
13.3 -0.00369
13.35 -0.00365
13.4 -0.00313
13.45 -0.00319
13.5 -0.00212
13.55 -0.00073
13.6 0.00083
13.65 0.00161
13.7 0.00198
13.75 0.00253
13.8 0.00318
13.85 0.0034
13.9 0.003
13.95 0.0027
14 0.00266
14.05 0.00324
14.1 0.00269
14.15 0.00198
14.2 0.00058
14.25 -0.0005
14.3 -0.00131
14.35 -0.00108
14.4 -0.00164
14.45 -0.00152
14.5 -0.00213
14.55 -0.00158
14.6 -0.00177
14.65 -0.00157
14.7 -0.00121
14.75 -0.00102
14.8 -0.00045
14.85 -0.00045
14.9 -0.00098
14.95 -0.00187
15 -0.00229
15.05 -0.00196
15.1 -0.00242
15.15 -0.00277
15.2 -0.00298
15.25 -0.00361
15.3 -0.00302
15.35 -0.0022
15.4 -0.00195
15.45 -0.00233
15.5 -0.00263
15.55 -0.00204
15.6 -0.0023
15.65 -0.00192
15.7 -0.0013
15.75 -0.00027
15.8 0.00079
15.85 0.00072
15.9 0.0014
15.95 0.001
16 0.0011
16.05 0.00097
16.1 0.00135
16.15 0.00209
16.2 0.00233
16.25 0.00147
16.3 0.00101
16.35 0.00063
16.4 0.00111
16.45 0.00082
16.5 0.00072
16.55 0.00054
16.6 0.00053
16.65 0.00021
16.7 -0.00021
16.75 -0.00031
16.8 -0.00016
16.85 0.00039
16.9 0.00077
16.95 0.0008
17 0.00114
17.05 0.00147
17.1 0.00185
17.15 0.00126
17.2 0.00131
17.25 0.00065
17.3 -0.00037
17.35 -0.0011
17.4 -0.00115
17.45 -0.00164
17.5 -0.00216
17.55 -0.00215
17.6 -0.0018
17.65 -0.0013
17.7 -0.00067
17.75 0.00009
17.8 0.00112
17.85 0.00192
17.9 0.00248
17.95 0.00238
18 0.00216
18.05 0.00137
18.1 0.00009
18.15 -0.00038
18.2 -0.00134
18.25 -0.00204
18.3 -0.00259
18.35 -0.0032
18.4 -0.00258
18.45 -0.00152
18.5 -0.00067
18.55 -0.00063
18.6 -0.00098
18.65 -0.00146
18.7 -0.00212
18.75 -0.00312
18.8 -0.00359
18.85 -0.00339
18.9 -0.00356
18.95 -0.00401
19 -0.0036
19.05 -0.00341
19.1 -0.00358
19.15 -0.00334
19.2 -0.00329
19.25 -0.00227
19.3 -0.00053
19.35 0.0014
19.4 0.00311
19.45 0.00422
19.5 0.00415
19.55 0.00412
19.6 0.00399
19.65 0.00296
19.7 0.00283
19.75 0.00247
19.8 0.00278
19.85 0.0025
19.9 0.00229
19.95 0.00238
20 0.00146
20.05 0.001
20.1 0.00147
20.15 0.00127
20.2 0.00183
20.25 0.00192
20.3 0.00154
20.35 0.00064
20.4 -0.00033
20.45 -0.00078
20.5 -0.00064
20.55 -0.0003
20.6 0.00075
20.65 0.00086
20.7 0.00119
20.75 0.00057
20.8 0.00023
20.85 0.0005
20.9 0.00099
20.95 0.00111
21 0.00131
21.05 0.0011
21.1 0.00087
21.15 0.0013
21.2 0.00193
21.25 0.0014
21.3 0.00063
21.35 -0.00013
21.4 -0.00094
21.45 -0.00118
21.5 -0.00158
21.55 -0.00123
21.6 -0.00095
21.65 -0.00093
21.7 -0.00111
21.75 -0.0009
21.8 -0.0001
21.85 0.00103
21.9 0.0021
21.95 0.0031
22 0.00333
22.05 0.00297
22.1 0.00191
22.15 0.00062
22.2 0.0001
22.25 0.00015
22.3 -0.00003
22.35 0.00058
22.4 0.0014
22.45 0.0012
22.5 0.00141
22.55 0.00055
22.6 -0.00065
22.65 -0.00184
22.7 -0.00234
22.75 -0.0028
22.8 -0.00352
22.85 -0.00353
22.9 -0.00336
22.95 -0.00347
23 -0.00288
23.05 -0.00192
23.1 -0.00141
23.15 -0.00051
23.2 0.00026
23.25 0.00096
23.3 0.00051
23.35 0.00089
23.4 0.00081
23.45 0.00046
23.5 0.0004
23.55 0.00082
23.6 0.00181
23.65 0.00258
23.7 0.00251
23.75 0.00186
23.8 0.00127
23.85 0.00028
23.9 -0.00007
23.95 -0.00064
24 -0.00169
24.05 -0.0028
24.1 -0.00287
24.15 -0.00307
24.2 -0.0032
24.25 -0.0025
24.3 -0.00243
24.35 -0.00147
24.4 -0.00097
24.45 -0.00137
24.5 -0.00165
24.55 -0.00085
24.6 -0.001
24.65 -0.00089
24.7 -0.00024
24.75 0.00068
24.8 0.0011
24.85 0.00121
24.9 0.00092
24.95 -0.0001
25 -0.00098
25.05 -0.00166
25.1 -0.00155
25.15 -0.00076
25.2 -0.00073
25.25 -0.00078
25.3 -0.00123
25.35 -0.00083
25.4 -0.00115
25.45 -0.00099
25.5 -0.00136
25.55 -0.00165
25.6 -0.00251
25.65 -0.00271
25.7 -0.00305
25.75 -0.00229
25.8 -0.00096
25.85 -0.00059
25.9 -0.00021
25.95 -0.00071
26 -0.00094
26.05 -0.0006
26.1 0.00007
26.15 0.00052
26.2 0.00002
26.25 -0.0005
26.3 -0.00055
26.35 -0.00024
26.4 -0.00051
26.45 0.00015
26.5 0.00084
26.55 0.00044
26.6 0.00005
26.65 -0.00099
26.7 -0.00214
26.75 -0.00193
26.8 -0.00169
26.85 -0.00063
26.9 -0.00051
26.95 -0.00115
27 -0.00124
27.05 -0.00189
27.1 -0.00132
27.15 -0.00125
27.2 -0.00068
27.25 -0.00083
27.3 -0.00055
27.35 0.00056
27.4 0.00186
27.45 0.00254
27.5 0.00323
27.55 0.00325
27.6 0.00299
27.65 0.00185
27.7 0.00135
27.75 0.00176
27.8 0.00245
27.85 0.00246
27.9 0.00266
27.95 0.00238
28 0.00235
28.05 0.00207
28.1 0.00205
28.15 0.00263
28.2 0.00245
28.25 0.00173
28.3 0.0019
28.35 0.00255
28.4 0.00319
28.45 0.00306
28.5 0.00302
28.55 0.00233
28.6 0.0017
28.65 0.00197
28.7 0.00163
28.75 0.00158
28.8 0.00219
28.85 0.00211
28.9 0.00148
28.95 0.00129
29 0.00021
29.05 0.00026
29.1 0.00106
29.15 0.00146
29.2 0.00103
29.25 0.00037
29.3 -0.00022
29.35 -0.00126
29.4 -0.001
29.45 -0.00155
29.5 -0.00233
29.55 -0.00233
29.6 -0.00252
29.65 -0.00194
29.7 -0.00171
29.75 -0.00182
29.8 -0.00162
29.85 -0.00134
29.9 -0.00124
29.95 -0.00099
30 -0.00109
30.05 -0.00152
30.1 -0.00174
30.15 -0.00124
30.2 -0.00083
30.25 -0.00089
30.3 -0.00088
30.35 -0.00057
30.4 -0.00001
30.45 0.00007
30.5 0.00015
30.55 -0.00032
30.6 -0.00127
30.65 -0.00115
30.7 -0.0013
30.75 -0.0018
30.8 -0.0014
30.85 -0.00167
30.9 -0.00111
30.95 -0.00106
31 -0.00058
31.05 0.00005
31.1 0.0008
31.15 0.00043
31.2 0.00075
31.25 0.00005
31.3 -0.00059
31.35 -0.00113
31.4 -0.00096
31.45 -0.00115
31.5 -0.00188
31.55 -0.00187
31.6 -0.00198
31.65 -0.00189
31.7 -0.00159
31.75 -0.00099
31.8 -0.00128
31.85 -0.00194
31.9 -0.00162
31.95 -0.00119
32 -0.00072
32.05 -0.001
32.1 -0.00125
32.15 -0.00084
32.2 -0.00074
32.25 0.00008
32.3 0.00067
32.35 0.0008
32.4 0.00045
32.45 0.00048
32.5 0.00128
32.55 0.00229
32.6 0.00199
32.65 0.00202
32.7 0.00172
32.75 0.00147
32.8 0.00053
32.85 0.00061
32.9 0.00107
32.95 0.00096
33 0.0005
33.05 -0.00055
33.1 -0.00105
33.15 -0.00113
33.2 -0.00145
33.25 -0.00164
33.3 -0.0015
33.35 -0.00101
33.4 -0.0006
33.45 -0.00035
33.5 -0.00068
33.55 -0.00152
33.6 -0.00108
33.65 0.00009
33.7 0.00051
33.75 0.00018
33.8 -0.00011
33.85 0.00022
33.9 0.00028
33.95 -0.00033
34 -0.00004
34.05 0.00048
34.1 0.00094
34.15 0.00061
34.2 0.00072
34.25 -0.00002
34.3 -0.00009
34.35 -0.00011
34.4 -0.0005
34.45 -0.00079
34.5 -0.0002
34.55 0.00072
34.6 0.00099
34.65 0.00166
34.7 0.00141
34.75 0.0015
34.8 0.00095
34.85 0.00009
34.9 0.00023
34.95 0.00077
35 0.00093
35.05 0.00055
35.1 0.00022
35.15 -0.00033
35.2 -0.00082
35.25 -0.00157
35.3 -0.00254
35.35 -0.00303
35.4 -0.003
35.45 -0.00319
35.5 -0.00371
35.55 -0.00452
35.6 -0.0046
35.65 -0.00425
35.7 -0.0044
35.75 -0.00444
35.8 -0.00323
35.85 -0.00148
35.9 0.00028
35.95 0.00221
36 0.00373
36.05 0.00491
36.1 0.00514
36.15 0.00504
36.2 0.00409
36.25 0.00275
36.3 0.00092
36.35 -0.00004
36.4 -0.00081
36.45 -0.00111
36.5 -0.00177
36.55 -0.00161
36.6 -0.00205
36.65 -0.00193
36.7 -0.00155
36.75 -0.00072
36.8 -0.00004
36.85 -0.00026
36.9 -0.00051
36.95 -0.0003
37 0.0002
37.05 0.0011
37.1 0.00207
37.15 0.00287
37.2 0.00369
37.25 0.00321
37.3 0.00237
37.35 0.00133
37.4 0.00108
37.45 0.00063
37.5 0.00074
37.55 0.00094
37.6 0.00073
37.65 -0.00016
37.7 -0.00001
37.75 0.00078
37.8 0.00123
37.85 0.00146
37.9 0.00131
37.95 0.00072
38 -0.00029
38.05 -0.00103
38.1 -0.00093
38.15 -0.00015
38.2 -0.00012
38.25 0.00011
38.3 0.00009
38.35 -0.00074
38.4 -0.00165
38.45 -0.00278
38.5 -0.00258
38.55 -0.00273
38.6 -0.00287
38.65 -0.00241
38.7 -0.0017
38.75 -0.00089
38.8 -0.00002
38.85 0.001
38.9 0.00143
38.95 0.00208
39 0.0019
39.05 0.001
39.1 0.00068
39.15 0.00105
39.2 0.00107
39.25 0.00048
39.3 -0.00038
39.35 -0.0012
39.4 -0.00198
39.45 -0.00243
39.5 -0.00309
39.55 -0.00379
39.6 -0.00458
39.65 -0.00488
39.7 -0.00521
39.75 -0.00548
39.8 -0.0058
39.85 -0.00517
39.9 -0.00447
39.95 -0.00368
40 -0.00306
40.05 -0.00281
40.1 -0.00256
40.15 -0.00293
40.2 -0.00324
40.25 -0.00267
40.3 -0.00122
40.35 -0.00066
40.4 0.00053
40.45 0.00198
40.5 0.00337
40.55 0.00407
40.6 0.00359
40.65 0.00261
40.7 0.00176
40.75 0.00076
40.8 0.00028
40.85 0.00047
40.9 0.00114
40.95 0.00176
41 0.00218
41.05 0.00216
41.1 0.00229
41.15 0.00196
41.2 0.00146
41.25 0.0016
41.3 0.00192
41.35 0.00231
41.4 0.00304
41.45 0.00257
41.5 0.00281
41.55 0.00222
41.6 0.00242
41.65 0.00296
41.7 0.00319
41.75 0.00293
41.8 0.00276
41.85 0.00307
41.9 0.00337
41.95 0.00406
42 0.0041
42.05 0.0044
42.1 0.0042
42.15 0.0035
42.2 0.00349
42.25 0.00297
42.3 0.00317
42.35 0.00238
42.4 0.00157
42.45 0.00105
42.5 0.00026
42.55 -0.00059
42.6 -0.00193
42.65 -0.00318
42.7 -0.00322
42.75 -0.00366
42.8 -0.0037
42.85 -0.00309
42.9 -0.00276
42.95 -0.0015
43 0.0002
43.05 0.00171
43.1 0.00223
43.15 0.00217
43.2 0.00226
43.25 0.00224
43.3 0.00207
43.35 0.00237
43.4 0.00215
43.45 0.00235
43.5 0.00146
43.55 0.0005
43.6 -0.00017
43.65 -0.00075
43.7 -0.00055
43.75 -0.00006
43.8 -0.00049
43.85 -0.00107
43.9 -0.00093
43.95 -0.00105
44 -0.00062
44.05 -0.0009
44.1 -0.00104
44.15 -0.00025
44.2 0.00101
44.25 0.00159
44.3 0.00141
44.35 0.00098
44.4 0.00121
44.45 0.00108
44.5 0.00046
44.55 -0.00046
44.6 -0.00024
44.65 -0.0002
44.7 0.00064
44.75 0.00151
44.8 0.00222
44.85 0.00241
44.9 0.00161
44.95 0.00048
45 0.00015
45.05 0.00017
45.1 -0.00022
45.15 -0.00073
45.2 -0.00027
45.25 -0.00067
45.3 -0.00172
45.35 -0.00203
45.4 -0.00273
45.45 -0.00306
45.5 -0.00282
45.55 -0.00233
45.6 -0.00165
45.65 -0.00113
45.7 -0.00077
45.75 -0.00122
45.8 -0.00134
45.85 -0.00086
45.9 -0.00112
45.95 -0.00202
46 -0.00269
46.05 -0.00224
46.1 -0.00112
46.15 0.00052
46.2 0.00182
46.25 0.00293
46.3 0.00361
46.35 0.00327
46.4 0.00234
46.45 0.00163
46.5 0.00134
46.55 0.00041
46.6 -0.00065
46.65 -0.0015
46.7 -0.00244
46.75 -0.00272
46.8 -0.00303
46.85 -0.00373
46.9 -0.0035
46.95 -0.00241
47 -0.00135
47.05 0.00003
47.1 0.00118
47.15 0.0019
47.2 0.00157
47.25 0.00073
47.3 0.00095
47.35 0.00016
47.4 -0.00068
47.45 -0.00037
47.5 0.00006
47.55 0.00024
47.6 0.00007
47.65 0.00074
47.7 0.00026
47.75 0.00048
47.8 0.00031
47.85 0.00093
47.9 0.00042
47.95 -0.00074
48 -0.00192
48.05 -0.00271
48.1 -0.00335
48.15 -0.00329
48.2 -0.00282
48.25 -0.00206
48.3 -0.00176
48.35 -0.00125
48.4 -0.00078
48.45 -0.00116
48.5 -0.00087
48.55 -0.00032
48.6 0.00069
48.65 0.00103
48.7 0.00115
48.75 0.00165
48.8 0.00131
48.85 0.0016
48.9 0.00097
48.95 0.00032
49 0.00046
49.05 0.00042
49.1 -0.00017
49.15 -0.00002
49.2 0.00008
49.25 -0.00046
49.3 -0.00117
49.35 -0.00117
49.4 -0.00158
49.45 -0.00159
49.5 -0.00102
49.55 0.00011
49.6 0.00043
49.65 -0
49.7 0.00014
49.75 -0.00061
49.8 -0.00161
49.85 -0.00286
49.9 -0.00341
49.95 -0.00338
50 -0.00321
50.05 -0.00246
50.1 -0.00215
50.15 -0.00101
50.2 -0.00062
50.25 -0.00112
50.3 -0.0009
50.35 -0.00085
50.4 -0.00065
50.45 -0.00039
50.5 -0.00088
50.55 -0.00087
50.6 -0.00038
50.65 -0.0008
50.7 -0.00044
50.75 0.00051
50.8 0.0013
50.85 0.00141
50.9 0.00206
50.95 0.00307
51 0.00304
51.05 0.00292
51.1 0.00254
51.15 0.00221
51.2 0.00233
51.25 0.00262
51.3 0.00226
51.35 0.00121
51.4 0.0006
51.45 0
51.5 -0.00086
51.55 -0.00077
51.6 -0.00139
51.65 -0.00246
51.7 -0.00368
51.75 -0.0035
51.8 -0.00316
51.85 -0.00226
51.9 -0.00094
51.95 -0.00062
52 -0.001
52.05 -0.00099
52.1 -0.00079
52.15 -0.00046
52.2 0.00036
52.25 0.00153
52.3 0.00222
52.35 0.00293
52.4 0.00355
52.45 0.00284
52.5 0.00241
52.55 0.00149
52.6 0.00055
52.65 0.00007
52.7 -0.00102
52.75 -0.00158
52.8 -0.00148
52.85 -0.00163
52.9 -0.00183
52.95 -0.00149
53 -0.00097
53.05 -0.00084
53.1 -0.00091
53.15 -0.0012
53.2 -0.00111
53.25 -0.00153
53.3 -0.00225
53.35 -0.00237
53.4 -0.0026
53.45 -0.00287
53.5 -0.00215
53.55 -0.00068
53.6 0.00047
53.65 0.00175
53.7 0.00317
53.75 0.00407
53.8 0.00473
53.85 0.0053
53.9 0.00487
53.95 0.00392
54 0.00313
54.05 0.00282
54.1 0.00158
54.15 -0.0001
54.2 -0.00121
54.25 -0.00185
54.3 -0.00221
54.35 -0.0031
54.4 -0.00324
54.45 -0.00243
54.5 -0.00179
54.55 -0.00061
54.6 -0.00044
54.65 -0.00096
54.7 -0.00054
54.75 -0.00032
54.8 -0.00065
54.85 -0.00096
54.9 -0.00089
54.95 -0.00159
55 -0.0019
55.05 -0.00224
55.1 -0.00306
55.15 -0.00325
55.2 -0.00363
55.25 -0.00304
55.3 -0.00321
55.35 -0.0037
55.4 -0.00358
55.45 -0.00293
55.5 -0.00147
55.55 -0.00058
55.6 -0.00057
55.65 -0.00005
55.7 0.00067
55.75 0.00063
55.8 0.0001
55.85 -0.00083
55.9 -0.00154
55.95 -0.00216
56 -0.00257
56.05 -0.00279
56.1 -0.00246
56.15 -0.00221
56.2 -0.00167
56.25 -0.00055
56.3 0.00009
56.35 -0.00018
56.4 -0.0005
56.45 -0.00059
56.5 -0.00025
56.55 -0.00034
56.6 0.0005
56.65 0.00174
56.7 0.00308
56.75 0.00297
56.8 0.00314
56.85 0.00272
56.9 0.0029
56.95 0.00285
57 0.00298
57.05 0.00208
57.1 0.00149
57.15 0.00127
57.2 0.00104
57.25 0.00099
57.3 0.00054
57.35 0.00053
57.4 0.00061
57.45 0.00057
57.5 0.00048
57.55 -0.00026
57.6 -0.00042
57.65 -0.00015
57.7 0.00039
57.75 0.00037
57.8 0.00019
57.85 0.00018
57.9 -0.00092
57.95 -0.00115
58 -0.00197
58.05 -0.00366
58.1 -0.00604
58.15 -0.00722
58.2 -0.00914
58.25 -0.01152
58.3 -0.01415
58.35 -0.01665
58.4 -0.0198
58.45 -0.02316
58.5 -0.02735
58.55 -0.03122
58.6 -0.03568
58.65 -0.04067
58.7 -0.04707
58.75 -0.05426
58.8 -0.06274
58.85 -0.07144
58.9 -0.08156
58.95 -0.09225
59 -0.10492
59.05 -0.11813
59.1 -0.13229
59.15 -0.14816
59.2 -0.16627
59.25 -0.18565
59.3 -0.20596
59.35 -0.22799
59.4 -0.2508
59.45 -0.27396
59.5 -0.29735
59.55 -0.3223
59.6 -0.34832
59.65 -0.37404
59.7 -0.39947
59.75 -0.42479
59.8 -0.44846
59.85 -0.47094
59.9 -0.49189
59.95 -0.50965
60 -0.5246
60.05 -0.53751
60.1 -0.5463
60.15 -0.55189
60.2 -0.55332
60.25 -0.55121
60.3 -0.54456
60.35 -0.53367
60.4 -0.51986
60.45 -0.50211
60.5 -0.47935
60.55 -0.45368
60.6 -0.42365
60.65 -0.39103
60.7 -0.35627
60.75 -0.31868
60.8 -0.27943
60.85 -0.23876
60.9 -0.19637
60.95 -0.15302
61 -0.10999
61.05 -0.06707
61.1 -0.02573
61.15 0.01382
61.2 0.0514
61.25 0.08848
61.3 0.12351
61.35 0.15668
61.4 0.18659
61.45 0.21372
61.5 0.23769
61.55 0.2601
61.6 0.28071
61.65 0.298
61.7 0.3127
61.75 0.32482
61.8 0.33475
61.85 0.34429
61.9 0.35352
61.95 0.36094
62 0.36749
62.05 0.37335
62.1 0.37857
62.15 0.38206
62.2 0.38551
62.25 0.38907
62.3 0.39141
62.35 0.39293
62.4 0.39371
62.45 0.39564
62.5 0.3972
62.55 0.39816
62.6 0.39981
62.65 0.40117
62.7 0.40253
62.75 0.40247
62.8 0.40186
62.85 0.40054
62.9 0.39964
62.95 0.39837
63 0.39676
63.05 0.39366
63.1 0.38962
63.15 0.38556
63.2 0.37973
63.25 0.37329
63.3 0.36637
63.35 0.35989
63.4 0.35206
63.45 0.34474
63.5 0.33704
63.55 0.32897
63.6 0.32039
63.65 0.31118
63.7 0.30203
63.75 0.29274
63.8 0.28246
63.85 0.27177
63.9 0.26159
63.95 0.2525
64 0.24366
64.05 0.23513
64.1 0.22658
64.15 0.2183
64.2 0.20919
64.25 0.20055
64.3 0.19194
64.35 0.1828
64.4 0.17415
64.45 0.16466
64.5 0.15558
64.55 0.14661
64.6 0.13749
64.65 0.12802
64.7 0.11878
64.75 0.10933
64.8 0.10125
64.85 0.09388
64.9 0.08609
64.95 0.07809
65 0.07151
65.05 0.06458
65.1 0.05744
65.15 0.05164
65.2 0.04584
65.25 0.0404
65.3 0.0345
65.35 0.02949
65.4 0.02453
65.45 0.0199
65.5 0.01587
65.55 0.0111
65.6 0.00616
65.65 0.0017
65.7 -0.00367
65.75 -0.00788
65.8 -0.01184
65.85 -0.01542
65.9 -0.01851
65.95 -0.02251
66 -0.02707
66.05 -0.03145
66.1 -0.03525
66.15 -0.0387
66.2 -0.04128
66.25 -0.04444
66.3 -0.04721
66.35 -0.04989
66.4 -0.0525
66.45 -0.05435
66.5 -0.05499
66.55 -0.05606
66.6 -0.05782
66.65 -0.05931
66.7 -0.06059
66.75 -0.06234
66.8 -0.06268
66.85 -0.06212
66.9 -0.06218
66.95 -0.062
67 -0.06216
67.05 -0.06174
67.1 -0.06223
67.15 -0.0628
67.2 -0.06268
67.25 -0.06292
67.3 -0.06244
67.35 -0.06261
67.4 -0.06249
67.45 -0.06247
67.5 -0.06285
67.55 -0.06334
67.6 -0.06325
67.65 -0.063
67.7 -0.06226
67.75 -0.06251
67.8 -0.06317
67.85 -0.06366
67.9 -0.06415
67.95 -0.06437
68 -0.06433
68.05 -0.06442
68.1 -0.06445
68.15 -0.06416
68.2 -0.064
68.25 -0.06335
68.3 -0.06224
68.35 -0.06052
68.4 -0.0598
68.45 -0.05869
68.5 -0.05713
68.55 -0.05508
68.6 -0.05305
68.65 -0.05187
68.7 -0.05064
68.75 -0.0496
68.8 -0.04925
68.85 -0.04841
68.9 -0.04717
68.95 -0.04597
69 -0.0445
69.05 -0.04329
69.1 -0.04244
69.15 -0.04237
69.2 -0.04315
69.25 -0.04319
69.3 -0.04369
69.35 -0.04408
69.4 -0.04399
69.45 -0.04364
69.5 -0.04392
69.55 -0.04323
69.6 -0.04205
69.65 -0.04087
69.7 -0.03967
69.75 -0.03817
69.8 -0.03752
69.85 -0.03648
69.9 -0.03596
69.95 -0.0353
70 -0.03482
70.05 -0.0349
70.1 -0.03447
70.15 -0.0348
70.2 -0.03525
70.25 -0.03614
70.3 -0.03591
70.35 -0.03569
70.4 -0.03537
70.45 -0.03457
70.5 -0.03422
70.55 -0.03346
70.6 -0.03261
70.65 -0.03188
70.7 -0.03171
70.75 -0.03142
70.8 -0.03152
70.85 -0.03141
70.9 -0.03163
70.95 -0.0317
71 -0.03124
71.05 -0.03106
71.1 -0.02978
71.15 -0.02821
71.2 -0.02754
71.25 -0.02678
71.3 -0.02598
71.35 -0.02522
71.4 -0.02397
71.45 -0.0228
71.5 -0.02119
71.55 -0.02081
71.6 -0.01982
71.65 -0.01918
71.7 -0.0194
71.75 -0.02043
71.8 -0.02102
71.85 -0.02104
71.9 -0.02024
71.95 -0.01968
72 -0.01978
72.05 -0.01956
72.1 -0.01994
72.15 -0.01997
72.2 -0.02005
72.25 -0.01999
72.3 -0.01998
72.35 -0.01924
72.4 -0.01877
72.45 -0.01787
72.5 -0.01693
72.55 -0.01598
72.6 -0.01463
72.65 -0.01453
72.7 -0.0137
72.75 -0.01412
72.8 -0.01486
72.85 -0.01547
72.9 -0.01645
72.95 -0.01694
73 -0.01773
73.05 -0.01736
73.1 -0.01733
73.15 -0.01771
73.2 -0.01785
73.25 -0.0181
73.3 -0.01758
73.35 -0.01659
73.4 -0.01639
73.45 -0.01634
73.5 -0.01608
73.55 -0.01622
73.6 -0.01616
73.65 -0.01591
73.7 -0.01456
73.75 -0.01411
73.8 -0.01381
73.85 -0.01408
73.9 -0.01399
73.95 -0.01368
74 -0.01388
74.05 -0.01441
74.1 -0.01407
74.15 -0.01337
74.2 -0.01279
74.25 -0.01145
74.3 -0.00948
74.35 -0.00789
74.4 -0.00612
74.45 -0.00439
74.5 -0.00381
74.55 -0.0036
74.6 -0.003
74.65 -0.00263
74.7 -0.00348
74.75 -0.00357
74.8 -0.0031
74.85 -0.00313
74.9 -0.00309
74.95 -0.00275
75 -0.00221
75.05 -0.00187
75.1 -0.00244
75.15 -0.00292
75.2 -0.00371
75.25 -0.00496
75.3 -0.00506
75.35 -0.00535
75.4 -0.00573
75.45 -0.00679
75.5 -0.00682
75.55 -0.00613
75.6 -0.00625
75.65 -0.00631
75.7 -0.00639
75.75 -0.00725
75.8 -0.00728
75.85 -0.00669
75.9 -0.00645
75.95 -0.00554
76 -0.00436
76.05 -0.00371
76.1 -0.00295
76.15 -0.00197
76.2 -0.00229
76.25 -0.00226
76.3 -0.00319
76.35 -0.00467
76.4 -0.00546
76.45 -0.0054
76.5 -0.00575
76.55 -0.0059
76.6 -0.0055
76.65 -0.00544
76.7 -0.00544
76.75 -0.00498
76.8 -0.00424
76.85 -0.0037
76.9 -0.0035
76.95 -0.00265
77 -0.00198
77.05 -0.0021
77.1 -0.00258
77.15 -0.00221
77.2 -0.00255
77.25 -0.00365
77.3 -0.00431
77.35 -0.00397
77.4 -0.00434
77.45 -0.00393
77.5 -0.00417
77.55 -0.00363
77.6 -0.00257
77.65 -0.00118
77.7 -0.00036
77.75 -0.00018
77.8 0.00032
77.85 0.00033
77.9 -0.00003
77.95 -0.00009
78 -0.00107
78.05 -0.00269
78.1 -0.00357
78.15 -0.00482
78.2 -0.00568
78.25 -0.00595
78.3 -0.00528
78.35 -0.00472
78.4 -0.00461
78.45 -0.00509
78.5 -0.00456
78.55 -0.00467
78.6 -0.00459
78.65 -0.00523
78.7 -0.00622
78.75 -0.006
78.8 -0.00503
78.85 -0.00364
78.9 -0.00213
78.95 -0.00125
79 -0.00126
79.05 -0.00135
79.1 -0.00218
79.15 -0.0024
79.2 -0.00185
79.25 -0.00083
79.3 -0.00115
79.35 -0.00191
79.4 -0.00316
79.45 -0.00351
79.5 -0.00402
79.55 -0.00452
79.6 -0.00511
79.65 -0.00551
79.7 -0.00549
79.75 -0.00534
79.8 -0.00497
79.85 -0.00401
79.9 -0.0034
79.95 -0.00232
80 -0.00109
80.05 0.00003
80.1 0.00047
80.15 0.00064
80.2 0.0002
80.25 0.00046
80.3 0.00089
80.35 0.00049
80.4 0.0002
80.45 -0.00026
80.5 -0.00053
80.55 -0.00134
80.6 -0.0025
80.65 -0.00259
80.7 -0.00253
80.75 -0.00313
80.8 -0.00391
80.85 -0.00379
80.9 -0.00428
80.95 -0.00437
81 -0.00442
81.05 -0.00342
81.1 -0.00313
81.15 -0.00253
81.2 -0.00135
81.25 -0.00021
81.3 0.00108
81.35 0.00091
81.4 0.00117
81.45 0.00057
81.5 -0.00005
81.55 -0.00035
81.6 -0.00094
81.65 -0.0016
81.7 -0.0013
81.75 -0.00105
81.8 -0.001
81.85 -0.00159
81.9 -0.00111
81.95 -0.00133
82 -0.00126
82.05 -0.0004
82.1 0.00034
82.15 0.00002
82.2 0.00016
82.25 -0.00058
82.3 -0.00159
82.35 -0.00243
82.4 -0.00225
82.45 -0.0022
82.5 -0.00235
82.55 -0.00263
82.6 -0.00264
82.65 -0.0028
82.7 -0.00346
82.75 -0.00321
82.8 -0.00293
82.85 -0.00188
82.9 -0.00169
82.95 -0.00206
83 -0.00267
83.05 -0.00263
83.1 -0.00283
83.15 -0.00336
83.2 -0.00295
83.25 -0.00307
83.3 -0.00296
83.35 -0.00255
83.4 -0.00276
83.45 -0.00234
83.5 -0.00183
83.55 -0.00103
83.6 0.00018
83.65 0.00142
83.7 0.00224
83.75 0.0023
83.8 0.00148
83.85 0.0002
83.9 0.00009
83.95 0.00003
84 -0.00085
84.05 -0.00188
84.1 -0.00286
84.15 -0.00341
84.2 -0.00343
84.25 -0.00335
84.3 -0.00331
84.35 -0.00219
84.4 -0.00133
84.45 -0.00072
84.5 0.00027
84.55 0.00124
84.6 0.00179
84.65 0.00147
84.7 0.00063
84.75 0.00078
84.8 0.00026
84.85 -0.00088
84.9 -0.00174
84.95 -0.00204
85 -0.00123
85.05 -0.00132
85.1 -0.00064
85.15 0.0005
85.2 0.00203
85.25 0.00214
85.3 0.00191
85.35 0.00204
85.4 0.0028
85.45 0.00335
85.5 0.00349
85.55 0.00343
85.6 0.00295
85.65 0.00288
85.7 0.00223
85.75 0.00078
85.8 -0.00089
85.85 -0.00191
85.9 -0.00192
85.95 -0.00137
86 -0.00118
86.05 -0.00139
86.1 -0.00095
86.15 -0.00027
86.2 0.00094
86.25 0.0014
86.3 0.00131
86.35 0.00142
86.4 0.00123
86.45 0.0007
86.5 0.00093
86.55 0.00095
86.6 0.00075
86.65 -0.00024
86.7 -0.00092
86.75 -0.00177
86.8 -0.00261
86.85 -0.00213
86.9 -0.00194
86.95 -0.00106
87 0.00027
87.05 0.00053
87.1 0.00002
87.15 -0.00072
87.2 -0.00169
87.25 -0.00192
87.3 -0.00121
87.35 -0.00096
87.4 -0.00099
87.45 -0.00153
87.5 -0.00129
87.55 -0.00103
87.6 -0.00026
87.65 0.00106
87.7 0.00234
87.75 0.00337
87.8 0.00389
87.85 0.00337
87.9 0.00262
87.95 0.00196
88 0.00064
88.05 0.00013
88.1 0.00006
88.15 -0.00029
88.2 0.00006
88.25 0.00073
88.3 0.00113
88.35 0.00068
88.4 0.0008
88.45 0.00124
88.5 0.00195
88.55 0.0016
88.6 0.00066
88.65 -0.00023
88.7 -0.00072
88.75 -0.00058
88.8 0.00018
88.85 0.00064
88.9 0.00023
88.95 0.00066
89 0.00132
89.05 0.00208
89.1 0.00206
89.15 0.00248
89.2 0.00304
89.25 0.0025
89.3 0.00148
89.35 -0.00016
89.4 -0.00184
89.45 -0.00355
89.5 -0.00373
89.55 -0.00349
89.6 -0.00242
89.65 -0.0016
89.7 -0.00139
89.75 -0.00158
89.8 -0.00218
89.85 -0.00279
89.9 -0.00231
89.95 -0.00118
90 -0.00088
90.05 -0.00073
90.1 -0.00134
90.15 -0.00174
90.2 -0.00204
90.25 -0.00131
90.3 -0.00133
90.35 -0.0005
90.4 0.00082
90.45 0.00117
90.5 0.00195
90.55 0.00248
90.6 0.00271
90.65 0.00314
90.7 0.00371
90.75 0.00316
90.8 0.003
90.85 0.00203
90.9 0.00195
90.95 0.00124
91 0.00149
91.05 0.00084
91.1 -0.00016
91.15 -0.00076
91.2 -0.00062
91.25 0.00008
91.3 0.001
91.35 0.00218
91.4 0.00328
91.45 0.00423
91.5 0.00386
91.55 0.00311
91.6 0.00192
91.65 0.00079
91.7 -0.00028
91.75 -0.00067
91.8 -0.0016
91.85 -0.00226
91.9 -0.00206
91.95 -0.00145
92 -0.00163
92.05 -0.00086
92.1 -0.00062
92.15 -0.00063
92.2 0.00011
92.25 0.00092
92.3 0.00184
92.35 0.00294
92.4 0.00384
92.45 0.00436
92.5 0.00419
92.55 0.00288
92.6 0.00183
92.65 0.00147
92.7 0.00132
92.75 0.00175
92.8 0.00105
92.85 0.00102
92.9 0.00024
92.95 -0.00074
93 -0.00078
93.05 -0.00151
93.1 -0.00237
93.15 -0.0021
93.2 -0.00119
93.25 -0.00051
93.3 -0.00062
93.35 -0.00001
93.4 0.00059
93.45 0.00053
93.5 -0.00044
93.55 -0.0008
93.6 -0.00129
93.65 -0.00196
93.7 -0.00218
93.75 -0.00171
93.8 -0.00056
93.85 0.00054
93.9 0.00185
93.95 0.00162
94 0.00114
94.05 0.00055
94.1 0.00019
94.15 0.00008
94.2 0.00028
94.25 0.00057
94.3 -0.00016
94.35 -0.0014
94.4 -0.00159
94.45 -0.00233
94.5 -0.00341
94.55 -0.00425
94.6 -0.00511
94.65 -0.00456
94.7 -0.00318
94.75 -0.00263
94.8 -0.0023
94.85 -0.00191
94.9 -0.00225
94.95 -0.00246
95 -0.00248
95.05 -0.00207
95.1 -0.00143
95.15 -0.0003
95.2 0.00092
95.25 0.00225
95.3 0.0027
95.35 0.00246
95.4 0.00208
95.45 0.00131
95.5 0.00038
95.55 0.00003
95.6 -0.00036
95.65 -0.00007
95.7 0.00085
95.75 0.00136
95.8 0.00174
95.85 0.00142
95.9 0.00149
95.95 0.00193
96 0.00226
96.05 0.0016
96.1 0.00144
96.15 0.0007
96.2 -0.00068
96.25 -0.00075
96.3 -0.00024
96.35 0.00013
96.4 -0.00044
96.45 -0.00143
96.5 -0.0028
96.55 -0.00393
96.6 -0.00479
96.65 -0.00501
96.7 -0.00492
96.75 -0.00529
96.8 -0.00555
96.85 -0.00526
96.9 -0.00442
96.95 -0.00369
97 -0.00301
97.05 -0.00259
97.1 -0.00265
97.15 -0.00314
97.2 -0.00402
97.25 -0.00457
97.3 -0.00515
97.35 -0.00471
97.4 -0.00339
97.45 -0.00189
97.5 -0.00094
97.55 -0.00078
97.6 -0.0004
97.65 0.0004
97.7 0.00125
97.75 0.001
97.8 0.00046
97.85 -0.00045
97.9 -0.00075
97.95 -0.00013
98 0.00094
98.05 0.00118
98.1 0.00062
98.15 0.00088
98.2 0.00163
98.25 0.00278
98.3 0.00413
98.35 0.00533
98.4 0.00569
98.45 0.00596
98.5 0.00543
98.55 0.00408
98.6 0.00234
98.65 0.00066
98.7 -0.00053
98.75 -0.0005
98.8 -0.00107
98.85 -0.00114
98.9 -0.00087
98.95 0.00015
99 0.00084
99.05 0.00191
99.1 0.00171
99.15 0.00096
99.2 0.00011
99.25 0.00025
99.3 0.00039
99.35 -0.00028
99.4 -0.00132
99.45 -0.00175
99.5 -0.00208
99.55 -0.00293
99.6 -0.00331
99.65 -0.00281
99.7 -0.00263
99.75 -0.00267
99.8 -0.00305
99.85 -0.00322
99.9 -0.00341
99.95 -0.00266
