0 0
0.05 0.00134
0.1 0.0039
0.15 0.00579
0.2 0.00698
0.25 0.00737
0.3 0.00736
0.35 0.00762
0.4 0.00824
0.45 0.00896
0.5 0.00872
0.55 0.00948
0.6 0.01022
0.65 0.01185
0.7 0.01275
0.75 0.01261
0.8 0.01286
0.85 0.01241
0.9 0.01257
0.95 0.0117
1 0.01109
1.05 0.01056
1.1 0.00989
1.15 0.01011
1.2 0.00934
1.25 0.00893
1.3 0.00926
1.35 0.01062
1.4 0.01234
1.45 0.01278
1.5 0.01175
1.55 0.01152
1.6 0.0105
1.65 0.00918
1.7 0.00748
1.75 0.00736
1.8 0.00641
1.85 0.00602
1.9 0.00623
1.95 0.00646
2 0.00683
2.05 0.00658
2.1 0.00662
2.15 0.00609
2.2 0.00487
2.25 0.00359
2.3 0.00367
2.35 0.00466
2.4 0.00604
2.45 0.00687
2.5 0.0072
2.55 0.00826
2.6 0.00863
2.65 0.00915
2.7 0.00856
2.75 0.00828
2.8 0.007
2.85 0.00681
2.9 0.00741
2.95 0.00782
3 0.00896
3.05 0.01048
3.1 0.01181
3.15 0.01268
3.2 0.01201
3.25 0.01135
3.3 0.01118
3.35 0.01152
3.4 0.01193
3.45 0.01249
3.5 0.01138
3.55 0.00956
3.6 0.00811
3.65 0.00584
3.7 0.00474
3.75 0.0038
3.8 0.00231
3.85 0.00138
3.9 0.0001
3.95 0.00031
4 0.00062
4.05 0.00148
4.1 0.00162
4.15 0.00138
4.2 0.00179
4.25 0.00301
4.3 0.00308
4.35 0.00424
4.4 0.00411
4.45 0.00287
4.5 0.0027
4.55 0.00361
4.6 0.00522
4.65 0.00508
4.7 0.00551
4.75 0.00566
4.8 0.00535
4.85 0.00509
4.9 0.00442
4.95 0.00306
5 0.00116
5.05 -0.00068
5.1 -0.00155
5.15 -0.00172
5.2 -0.00254
5.25 -0.00197
5.3 -0.0005
5.35 0.00013
5.4 0.00121
5.45 0.00206
5.5 0.00252
5.55 0.00205
5.6 0.00145
5.65 0.00168
5.7 0.00255
5.75 0.003
5.8 0.00433
5.85 0.00606
5.9 0.00602
5.95 0.00529
6 0.00401
6.05 0.0031
6.1 0.00267
6.15 0.00183
6.2 0.00055
6.25 -0.00107
6.3 -0.00116
6.35 0.00006
6.4 0.00144
6.45 0.00228
6.5 0.00314
6.55 0.00286
6.6 0.00367
6.65 0.00417
6.7 0.0038
6.75 0.0032
6.8 0.00311
6.85 0.00189
6.9 0.00033
6.95 -0.00098
7 -0.00091
7.05 -0.00153
7.1 -0.00129
7.15 -0.00169
7.2 -0.00109
7.25 -0.00097
7.3 -0.00018
7.35 0.00123
7.4 0.00309
7.45 0.00396
7.5 0.00323
7.55 0.00329
7.6 0.00386
7.65 0.00391
7.7 0.00286
7.75 0.00107
7.8 -0.00079
7.85 -0.00252
7.9 -0.00249
7.95 -0.00172
8 -0.00149
8.05 -0.00102
8.1 -0.00108
8.15 -0.00056
8.2 0.00022
8.25 -0.00003
8.3 -0.00056
8.35 -0.00095
8.4 -0.00043
8.45 0
8.5 0.00144
8.55 0.00233
8.6 0.00192
8.65 0.00175
8.7 0.00251
8.75 0.00345
8.8 0.00413
8.85 0.00519
8.9 0.00531
8.95 0.00583
9 0.0058
9.05 0.00633
9.1 0.0071
9.15 0.00728
9.2 0.00634
9.25 0.00574
9.3 0.00382
9.35 0.00162
9.4 0.00022
9.45 -0.00103
9.5 -0.00279
9.55 -0.00464
9.6 -0.00636
9.65 -0.00769
9.7 -0.00816
9.75 -0.00756
9.8 -0.0075
9.85 -0.00768
9.9 -0.00787
9.95 -0.0081
10 -0.00647
10.05 -0.00457
10.1 -0.00314
10.15 -0.0018
10.2 -0.0014
10.25 -0.00051
10.3 0.00103
10.35 0.00283
10.4 0.0039
10.45 0.00517
10.5 0.00634
10.55 0.00764
10.6 0.0073
10.65 0.0071
10.7 0.00579
10.75 0.00482
10.8 0.00284
10.85 0.00111
10.9 0.00039
10.95 -0.00068
11 -0.00124
11.05 -0.00047
11.1 -0.00017
11.15 0.00094
11.2 0.00131
11.25 0.00122
11.3 0.00092
11.35 0.00143
11.4 0.00254
11.45 0.00363
11.5 0.0034
11.55 0.00337
11.6 0.0042
11.65 0.00477
11.7 0.0053
11.75 0.00609
11.8 0.00687
11.85 0.00748
11.9 0.0074
11.95 0.00737
12 0.00753
12.05 0.00719
12.1 0.00633
12.15 0.00561
12.2 0.00364
12.25 0.00308
12.3 0.00172
12.35 0.00021
12.4 -0.00114
12.45 -0.00271
12.5 -0.00459
12.55 -0.00461
12.6 -0.00354
12.65 -0.00285
12.7 -0.00252
12.75 -0.00167
12.8 -0.00078
12.85 -0.00114
12.9 -0.00077
12.95 -0.00146
13 -0.00267
13.05 -0.00325
13.1 -0.00314
13.15 -0.00372
13.2 -0.0042
13.25 -0.00331
13.3 -0.00339
13.35 -0.00422
13.4 -0.00389
13.45 -0.00394
13.5 -0.00411
13.55 -0.00455
13.6 -0.00448
13.65 -0.00497
13.7 -0.00584
13.75 -0.00621
13.8 -0.007
13.85 -0.00722
13.9 -0.00617
13.95 -0.00428
14 -0.00202
14.05 -0.00052
14.1 0.00096
14.15 0.00275
14.2 0.00303
14.25 0.0025
14.3 0.00166
14.35 0.00056
14.4 0.00022
14.45 0.00081
14.5 0.00123
14.55 0.00232
14.6 0.00208
14.65 0.00094
14.7 0.00056
14.75 -0.00026
14.8 0.00036
14.85 0.00171
14.9 0.0035
14.95 0.00482
15 0.00438
15.05 0.00442
15.1 0.00444
15.15 0.00307
15.2 0.00143
15.25 0.00068
15.3 0.00031
15.35 0.00026
15.4 0.00061
15.45 -0.00016
15.5 -0.00118
15.55 -0.00229
15.6 -0.00238
15.65 -0.00328
15.7 -0.00395
15.75 -0.00303
15.8 -0.00207
15.85 -0.00159
15.9 -0.00149
15.95 -0.00208
16 -0.00335
16.05 -0.00388
16.1 -0.00494
16.15 -0.00408
16.2 -0.0041
16.25 -0.0042
16.3 -0.00385
16.35 -0.00316
16.4 -0.00161
16.45 -0.00039
16.5 0.00015
16.55 0.00084
16.6 0.00021
16.65 0.00019
16.7 -0.0006
16.75 0.00001
16.8 0.00002
16.85 -0.00092
16.9 -0.00128
16.95 -0.00159
17 -0.00212
17.05 -0.00322
17.1 -0.00468
17.15 -0.00505
17.2 -0.00581
17.25 -0.00492
17.3 -0.00416
17.35 -0.00424
17.4 -0.003
17.45 -0.0024
17.5 -0.00244
17.55 -0.00189
17.6 -0.00109
17.65 -0.00005
17.7 0.00181
17.75 0.0038
17.8 0.00413
17.85 0.00397
17.9 0.00444
17.95 0.00435
18 0.00307
18.05 0.00207
18.1 0.00038
18.15 -0.00076
18.2 -0.00095
18.25 -0.00091
18.3 -0.00031
18.35 0.00072
18.4 0.00033
18.45 0.00018
18.5 0.00118
18.55 0.00125
18.6 0.00158
18.65 0.00112
18.7 0.00087
18.75 -0.00026
18.8 -0.00071
18.85 -0.00152
18.9 -0.00103
18.95 0.00056
19 0.00081
19.05 0.00003
19.1 0.00008
19.15 0.00127
19.2 0.00194
19.25 0.0027
19.3 0.00285
19.35 0.00332
19.4 0.00404
19.45 0.00479
19.5 0.00438
19.55 0.0046
19.6 0.00499
19.65 0.0058
19.7 0.00515
19.75 0.00499
19.8 0.00542
19.85 0.00607
19.9 0.00644
19.95 0.00563
20 0.00523
20.05 0.00462
20.1 0.00397
20.15 0.00381
20.2 0.00402
20.25 0.00341
20.3 0.00251
20.35 0.00252
20.4 0.00123
20.45 0.00088
20.5 0.00076
20.55 -0.00023
20.6 -0.0006
20.65 -0.00099
20.7 -0.00144
20.75 -0.00066
20.8 -0.00086
20.85 -0.00017
20.9 0.00029
20.95 0.00042
21 -0.00019
21.05 -0.00062
21.1 -0.00119
21.15 -0.00071
21.2 0.00053
21.25 0.00149
21.3 0.0027
21.35 0.00384
21.4 0.00347
21.45 0.00344
21.5 0.00244
21.55 0.00149
21.6 0.0007
21.65 0.00004
21.7 -0.00036
21.75 -0.00128
21.8 -0.00176
21.85 -0.00135
21.9 -0.00149
21.95 -0.00243
22 -0.00236
22.05 -0.00177
22.1 -0.00111
22.15 -0.00065
22.2 -0.00098
22.25 -0.00084
22.3 -0.00151
22.35 -0.00244
22.4 -0.00186
22.45 -0.00114
22.5 0.00024
22.55 0.00214
22.6 0.00248
22.65 0.00242
22.7 0.00232
22.75 0.00247
22.8 0.00263
22.85 0.0031
22.9 0.00258
22.95 0.00224
23 0.002
23.05 0.00145
23.1 0.00031
23.15 -0.00009
23.2 0.00043
23.25 0.00085
23.3 0.00044
23.35 0.00031
23.4 -0.00032
23.45 -0.00005
23.5 -0.00092
23.55 -0.00149
23.6 -0.00199
23.65 -0.0017
23.7 -0.00122
23.75 0.00009
23.8 0.00042
23.85 -0.00005
23.9 -0.00083
23.95 -0.00097
24 -0.00137
24.05 -0.00197
24.1 -0.00124
24.15 0.0002
24.2 0.00056
24.25 -0.00042
24.3 -0.00013
24.35 -0.00075
24.4 -0.00096
24.45 -0.00212
24.5 -0.00372
24.55 -0.00452
24.6 -0.0052
24.65 -0.00496
24.7 -0.00439
24.75 -0.00447
24.8 -0.00436
24.85 -0.00438
24.9 -0.00423
24.95 -0.003
25 -0.00208
25.05 -0.00032
25.1 0.00056
25.15 0.00076
25.2 0.00037
25.25 -0.00091
25.3 -0.00244
25.35 -0.00265
25.4 -0.00226
25.45 -0.00132
25.5 -0.00172
25.55 -0.0026
25.6 -0.00346
25.65 -0.00451
25.7 -0.0043
25.75 -0.00411
25.8 -0.00324
25.85 -0.00187
25.9 -0.00168
25.95 -0.00053
26 0.00051
26.05 0.00111
26.1 0.00178
26.15 0.00258
26.2 0.00381
26.25 0.00503
26.3 0.00524
26.35 0.00589
26.4 0.00487
26.45 0.0044
26.5 0.00331
26.55 0.00179
26.6 0.00083
26.65 0.00041
26.7 -0.00012
26.75 -0.00006
26.8 -0.00027
26.85 0.0006
26.9 0.00124
26.95 0.00135
27 0.00148
27.05 0.00136
27.1 0.00148
27.15 0.00106
27.2 0.00157
27.25 0.00084
27.3 0.00075
27.35 0.00168
27.4 0.00151
27.45 0.00029
27.5 0.00054
27.55 -0.00004
27.6 0.00012
27.65 -0.00028
27.7 -0.00137
27.75 -0.00256
27.8 -0.00274
27.85 -0.00178
27.9 -0.00181
27.95 -0.00096
28 0.00068
28.05 0.00168
28.1 0.00213
28.15 0.00158
28.2 0.00034
28.25 -0.00135
28.3 -0.00175
28.35 -0.00205
28.4 -0.00308
28.45 -0.00266
28.5 -0.0023
28.55 -0.00145
28.6 -0.00048
28.65 -0.00088
28.7 -0.0004
28.75 -0.00088
28.8 -0.00169
28.85 -0.00192
28.9 -0.0026
28.95 -0.00301
29 -0.0022
29.05 -0.00091
29.1 -0.00103
29.15 -0.00174
29.2 -0.00222
29.25 -0.00261
29.3 -0.00315
29.35 -0.00402
29.4 -0.00465
29.45 -0.00368
29.5 -0.00353
29.55 -0.00232
29.6 -0.00162
29.65 -0.00074
29.7 0.00003
29.75 -0.00007
29.8 0.00016
29.85 0.00096
29.9 0.00216
29.95 0.00219
30 0.00286
30.05 0.00388
30.1 0.00376
30.15 0.00403
30.2 0.00302
30.25 0.00235
30.3 0.00103
30.35 0.00062
30.4 0.00077
30.45 0.0015
30.5 0.00208
30.55 0.00291
30.6 0.00417
30.65 0.00473
30.7 0.00449
30.75 0.00449
30.8 0.00485
30.85 0.00408
30.9 0.00377
30.95 0.00354
31 0.00289
31.05 0.00188
31.1 0.00152
31.15 0.00146
31.2 0.00233
31.25 0.00334
31.3 0.00296
31.35 0.00131
31.4 -0.0005
31.45 -0.00206
31.5 -0.00358
31.55 -0.00481
31.6 -0.00506
31.65 -0.00591
31.7 -0.00628
31.75 -0.00507
31.8 -0.00477
31.85 -0.00379
31.9 -0.00401
31.95 -0.00342
32 -0.00182
32.05 0.00035
32.1 0.0012
32.15 0.00182
32.2 0.00119
32.25 0.00036
32.3 0.0006
32.35 0.00024
32.4 0.00044
32.45 0.00017
32.5 0.00046
32.55 -0.00001
32.6 -0.00106
32.65 -0.00199
32.7 -0.00339
32.75 -0.00423
32.8 -0.00451
32.85 -0.00518
32.9 -0.00484
32.95 -0.00514
33 -0.00415
33.05 -0.00286
33.1 -0.00189
33.15 -0.00144
33.2 -0.00078
33.25 -0.00041
33.3 0.00078
33.35 0.00085
33.4 0.0014
33.45 0.001
33.5 0.00059
33.55 0.0003
33.6 0.00118
33.65 0.00067
33.7 0.00014
33.75 0.0004
33.8 0.00041
33.85 0.00033
33.9 -0.00043
33.95 -0.00103
34 -0.00202
34.05 -0.00269
34.1 -0.00274
34.15 -0.00349
34.2 -0.0047
34.25 -0.00544
34.3 -0.0056
34.35 -0.00453
34.4 -0.00429
34.45 -0.0037
34.5 -0.00383
34.55 -0.00369
34.6 -0.00391
34.65 -0.00343
34.7 -0.00381
34.75 -0.00415
34.8 -0.00416
34.85 -0.00445
34.9 -0.00437
34.95 -0.00379
35 -0.0027
35.05 -0.00139
35.1 -0.00009
35.15 0.00021
35.2 0.00089
35.25 0.00149
35.3 0.00136
35.35 0.00024
35.4 -0.00035
35.45 -0.00134
35.5 -0.0009
35.55 0.00034
35.6 0.00018
35.65 -0.00063
35.7 -0.00014
35.75 0.00056
35.8 0.00198
35.85 0.00372
35.9 0.00437
35.95 0.00431
36 0.00505
36.05 0.00406
36.1 0.00373
36.15 0.00307
36.2 0.00172
36.25 0.00031
36.3 -0.00022
36.35 -0.00042
36.4 -0.00064
36.45 -0.00032
36.5 -0.00023
36.55 0.00081
36.6 0.00171
36.65 0.0021
36.7 0.00196
36.75 0.00139
36.8 0.0005
36.85 0.00077
36.9 0.00118
36.95 0.00147
37 0.00076
37.05 0.00017
37.1 0.00081
37.15 0.00165
37.2 0.00134
37.25 0.00063
37.3 0.00088
37.35 0.00117
37.4 0.00142
37.45 0.00252
37.5 0.00364
37.55 0.00358
37.6 0.0043
37.65 0.00528
37.7 0.00576
37.75 0.00465
37.8 0.00399
37.85 0.00302
37.9 0.00243
37.95 0.00085
38 -0.00111
38.05 -0.00299
38.1 -0.00439
38.15 -0.00382
38.2 -0.00272
38.25 -0.00288
38.3 -0.0019
38.35 -0.0021
38.4 -0.00238
38.45 -0.00289
38.5 -0.00311
38.55 -0.0028
38.6 -0.00339
38.65 -0.00433
38.7 -0.00343
38.75 -0.00346
38.8 -0.00389
38.85 -0.0032
38.9 -0.00236
38.95 -0.00265
39 -0.00351
39.05 -0.00261
39.1 -0.00204
39.15 -0.00116
39.2 -0.00043
39.25 -0.00048
39.3 -0.00117
39.35 -0.0012
39.4 -0.00156
39.45 -0.00059
39.5 0.00072
39.55 0.00151
39.6 0.00145
39.65 0.00208
39.7 0.0023
39.75 0.00317
39.8 0.00309
39.85 0.00261
39.9 0.00307
39.95 0.00359
40 0.00438
40.05 0.0035
40.1 0.00361
40.15 0.00413
40.2 0.00506
40.25 0.00425
40.3 0.00382
40.35 0.00373
40.4 0.00314
40.45 0.00143
40.5 -0.00081
40.55 -0.00147
40.6 -0.00097
40.65 -0.0001
40.7 -0.00007
40.75 0.00104
40.8 0.00101
40.85 0.00126
40.9 0.00153
40.95 0.0026
41 0.00336
41.05 0.0026
41.1 0.00119
41.15 -0.00002
41.2 -0.00059
41.25 -0.00102
41.3 -0.0007
41.35 -0.0013
41.4 -0.0009
41.45 -0.00018
41.5 0.00113
41.55 0.00148
41.6 0.00146
41.65 0.00222
41.7 0.00278
41.75 0.00305
41.8 0.00346
41.85 0.00409
41.9 0.00365
41.95 0.00411
42 0.00313
42.05 0.00311
42.1 0.0019
42.15 0.00031
42.2 -0.00057
42.25 -0.00009
42.3 -0.00068
42.35 -0.00106
42.4 -0.00035
42.45 -0.00026
42.5 0.0008
42.55 0.00227
42.6 0.00327
42.65 0.00327
42.7 0.0035
42.75 0.00232
42.8 0.00128
42.85 -0.00051
42.9 -0.00062
42.95 0.00036
43 -0.00003
43.05 -0.00047
43.1 -0.00028
43.15 0.00047
43.2 0.00073
43.25 0.00098
43.3 -0.0001
43.35 -0.00111
43.4 -0.00224
43.45 -0.00326
43.5 -0.00361
43.55 -0.00429
43.6 -0.00358
43.65 -0.0029
43.7 -0.00191
43.75 -0.00024
43.8 0.00123
43.85 0.00257
43.9 0.00425
43.95 0.00483
44 0.00556
44.05 0.00513
44.1 0.00326
44.15 0.00116
44.2 -0.00052
44.25 -0.00237
44.3 -0.00369
44.35 -0.00495
44.4 -0.0062
44.45 -0.00672
44.5 -0.00544
44.55 -0.00316
44.6 -0.001
44.65 0.00035
44.7 0.00064
44.75 0.00149
44.8 0.00144
44.85 0.0019
44.9 0.001
44.95 0.00116
45 0.002
45.05 0.00338
45.1 0.00449
45.15 0.00372
45.2 0.00247
45.25 0.00111
45.3 -0.00056
45.35 -0.00277
45.4 -0.00319
45.45 -0.00296
45.5 -0.0034
45.55 -0.00417
45.6 -0.0047
45.65 -0.00365
45.7 -0.00227
45.75 -0.00186
45.8 -0.00079
45.85 -0.00059
45.9 0.00042
45.95 0.00026
46 0.00091
46.05 0.00173
46.1 0.00255
46.15 0.00323
46.2 0.00221
46.25 0.00192
46.3 0.00228
46.35 0.00229
46.4 0.00315
46.45 0.00271
46.5 0.00163
46.55 0.0016
46.6 0.00152
46.65 0.00013
46.7 -0.00141
46.75 -0.00259
46.8 -0.0041
46.85 -0.00371
46.9 -0.00277
46.95 -0.00206
47 -0.00054
47.05 0.00002
47.1 -0.00005
47.15 0.00084
47.2 0.00089
47.25 0.0012
47.3 0.00158
47.35 0.00119
47.4 -0.00036
47.45 -0.0005
47.5 0.00042
47.55 0.00049
47.6 0.0007
47.65 0.00158
47.7 0.00209
47.75 0.00271
47.8 0.00289
47.85 0.00318
47.9 0.00392
47.95 0.00501
48 0.00457
48.05 0.00278
48.1 0.00214
48.15 0.00194
48.2 0.00082
48.25 0.0007
48.3 0.00126
48.35 0.00079
48.4 0.00131
48.45 0.00126
48.5 0.00081
48.55 0.00132
48.6 0.00242
48.65 0.00293
48.7 0.00201
48.75 0.00091
48.8 0.00003
48.85 -0.00165
48.9 -0.00371
48.95 -0.00577
49 -0.00681
49.05 -0.0065
49.1 -0.0062
49.15 -0.00535
49.2 -0.00363
49.25 -0.00189
49.3 -0.00163
49.35 -0.00229
49.4 -0.00154
49.45 -0.00063
49.5 -0.00056
49.55 -0.0011
49.6 -0.00199
49.65 -0.00235
49.7 -0.00299
49.75 -0.0025
49.8 -0.00301
49.85 -0.00402
49.9 -0.00347
49.95 -0.00183
50 -0.00121
50.05 -0.001
50.1 -0.00109
50.15 -0.00139
50.2 -0.00129
50.25 -0.00184
50.3 -0.00185
50.35 -0.0026
50.4 -0.00272
50.45 -0.0036
50.5 -0.00342
50.55 -0.00295
50.6 -0.0034
50.65 -0.00342
50.7 -0.00329
50.75 -0.00297
50.8 -0.00227
50.85 -0.0017
50.9 -0.00036
50.95 0.00083
51 0.00236
51.05 0.0033
51.1 0.00339
51.15 0.00342
51.2 0.00333
51.25 0.00405
51.3 0.00473
51.35 0.00489
51.4 0.0052
51.45 0.00497
51.5 0.00378
51.55 0.00352
51.6 0.00364
51.65 0.00289
51.7 0.00279
51.75 0.00222
51.8 0.00207
51.85 0.00185
51.9 0.00119
51.95 0.00026
52 0.00006
52.05 -0.00021
52.1 -0.00063
52.15 -0.00096
52.2 -0.00097
52.25 -0.00089
52.3 0.00006
52.35 -0.00049
52.4 -0.00032
52.45 0.00059
52.5 0.00144
52.55 0.0025
52.6 0.0019
52.65 0.00023
52.7 -0.00028
52.75 0.00017
52.8 -0.0002
52.85 -0.00007
52.9 -0.00001
52.95 -0.0003
53 -0.00125
53.05 -0.00239
53.1 -0.00267
53.15 -0.0018
53.2 -0.0013
53.25 -0.00032
53.3 0.00106
53.35 0.00217
53.4 0.00184
53.45 0.00039
53.5 -0.00032
53.55 -0.0016
53.6 -0.00271
53.65 -0.00251
53.7 -0.00227
53.75 -0.00246
53.8 -0.00301
53.85 -0.00263
53.9 -0.00168
53.95 -0.00154
54 -0.00118
54.05 0.00019
54.1 0.00178
54.15 0.00332
54.2 0.00286
54.25 0.00223
54.3 0.00257
54.35 0.00161
54.4 -0.00013
54.45 -0.00116
54.5 -0.00122
54.55 -0.00211
54.6 -0.00229
54.65 -0.00238
54.7 -0.00252
54.75 -0.00226
54.8 -0.00164
54.85 -0.0013
54.9 -0.00057
54.95 -0.00019
55 0.00106
55.05 0.00062
55.1 0.00072
55.15 0.00095
55.2 0.00013
55.25 -0.00099
55.3 -0.00134
55.35 -0.0007
55.4 0.00019
55.45 0.00113
55.5 0.00168
55.55 0.00258
55.6 0.00338
55.65 0.00377
55.7 0.00468
55.75 0.00545
55.8 0.00562
55.85 0.00563
55.9 0.00477
55.95 0.00395
56 0.00276
56.05 0.00185
56.1 0.00028
56.15 -0.00089
56.2 -0.00148
56.25 -0.00285
56.3 -0.00421
56.35 -0.00506
56.4 -0.00489
56.45 -0.00402
56.5 -0.00257
56.55 -0.00125
56.6 -0.00014
56.65 0.0013
56.7 0.00227
56.75 0.00268
56.8 0.00206
56.85 0.0022
56.9 0.00102
56.95 0.00076
57 -0.00022
57.05 -0.0016
57.1 -0.00153
57.15 -0.0006
57.2 -0.00107
57.25 -0.00054
57.3 0.00016
57.35 0.00012
57.4 -0.00096
57.45 -0.00155
57.5 -0.0011
57.55 -0.00182
57.6 -0.00146
57.65 -0.00051
57.7 0.00058
57.75 0.00026
57.8 -0.00026
57.85 0.00003
57.9 -0.00031
57.95 -0.00139
58 -0.00231
58.05 -0.00373
58.1 -0.00481
58.15 -0.00464
58.2 -0.00383
58.25 -0.00336
58.3 -0.00387
58.35 -0.00485
58.4 -0.00428
58.45 -0.00442
58.5 -0.00377
58.55 -0.00207
58.6 0.00018
58.65 0.00219
58.7 0.00259
58.75 0.0017
58.8 0.00013
58.85 -0.00197
58.9 -0.00214
58.95 -0.0025
59 -0.00301
59.05 -0.00222
59.1 -0.00259
59.15 -0.00161
59.2 -0.00076
59.25 -0.00038
59.3 0.00004
59.35 0.00025
59.4 0.00004
59.45 0.00002
59.5 0.00051
59.55 0.00142
59.6 0.00104
59.65 0.00096
59.7 -0.0002
59.75 -0.00101
59.8 -0.00114
59.85 -0.0015
59.9 -0.00154
59.95 -0.00257
60 -0.002
60.05 -0.00078
60.1 0.00086
60.15 0.0008
60.2 0.00144
60.25 0.00228
60.3 0.0029
60.35 0.00236
60.4 0.00228
60.45 0.00215
60.5 0.00159
60.55 0.00205
60.6 0.0014
60.65 0.00181
60.7 0.00131
60.75 0.00042
60.8 -0.00012
60.85 -0.00125
60.9 -0.00259
60.95 -0.00361
61 -0.00308
61.05 -0.00171
61.1 -0.00172
61.15 -0.00178
61.2 -0.00269
61.25 -0.00292
61.3 -0.0032
61.35 -0.00353
61.4 -0.00448
61.45 -0.00479
61.5 -0.00364
61.55 -0.00187
61.6 -0.00127
61.65 -0.00001
61.7 0.00004
61.75 0.0006
61.8 0.00037
61.85 -0.0002
61.9 -0.00087
61.95 -0.00129
62 -0.00127
62.05 -0.00113
62.1 -0.00013
62.15 0.00144
62.2 0.00216
62.25 0.00266
62.3 0.00272
62.35 0.00272
62.4 0.00203
62.45 0.0003
62.5 0.00024
62.55 -0.00037
62.6 -0.00137
62.65 -0.00153
62.7 -0.00212
62.75 -0.00238
62.8 -0.00262
62.85 -0.00292
62.9 -0.00314
62.95 -0.0032
63 -0.00232
63.05 -0.00186
63.1 -0.00033
63.15 0.00059
63.2 0.00079
63.25 0.00116
63.3 0.00116
63.35 0.00159
63.4 0.00148
63.45 0.00238
63.5 0.00176
63.55 0.00149
63.6 0.00146
63.65 0.00237
63.7 0.00271
63.75 0.00177
63.8 0.00111
63.85 0.0002
63.9 0.00015
63.95 0.00089
64 0.00166
64.05 0.00298
64.1 0.00429
64.15 0.00468
64.2 0.00342
64.25 0.00218
64.3 0.00139
64.35 0.00023
64.4 -0.00128
64.45 -0.00162
64.5 -0.0013
64.55 -0.0005
64.6 0.00053
64.65 0
64.7 -0.00073
64.75 -0.00227
64.8 -0.00274
64.85 -0.00263
64.9 -0.00316
64.95 -0.00367
65 -0.00371
65.05 -0.00403
65.1 -0.00352
65.15 -0.00404
65.2 -0.0049
65.25 -0.00609
65.3 -0.00583
65.35 -0.00589
65.4 -0.00654
65.45 -0.00747
65.5 -0.0071
65.55 -0.00676
65.6 -0.00702
65.65 -0.00713
65.7 -0.00721
65.75 -0.00766
65.8 -0.00707
65.85 -0.00608
65.9 -0.00508
65.95 -0.00334
66 -0.00215
66.05 -0.00137
66.1 -0.00176
66.15 -0.00175
66.2 -0.00127
66.25 -0.00118
66.3 -0.0004
66.35 0.00102
66.4 0.00232
66.45 0.00395
66.5 0.00367
66.55 0.00235
66.6 0.00178
66.65 0.0014
66.7 0.0008
66.75 0.00136
66.8 0.00134
66.85 0.00194
66.9 0.00279
66.95 0.00384
67 0.00482
67.05 0.00459
67.1 0.00316
67.15 0.0025
67.2 0.0021
67.25 0.0022
67.3 0.00153
67.35 -0.00008
67.4 0.00003
67.45 -0.00025
67.5 -0.00085
67.55 -0.00117
67.6 -0.00061
67.65 -0.00035
67.7 -0.00093
67.75 -0.00053
67.8 0.00091
67.85 0.00277
67.9 0.00333
67.95 0.00425
68 0.00386
68.05 0.00324
68.1 0.00316
68.15 0.00361
68.2 0.00398
68.25 0.00335
68.3 0.00319
68.35 0.00213
68.4 0.00096
68.45 0.00046
68.5 -0.00076
68.55 -0.00089
68.6 -0
68.65 0.00145
68.7 0.00203
68.75 0.00274
68.8 0.00199
68.85 0.00124
68.9 0.00012
68.95 -0.00118
69 -0.0014
69.05 -0.0009
69.1 -0.00116
69.15 -0.00054
69.2 0.00035
69.25 0.00071
69.3 0.00053
69.35 0.00034
69.4 0.00084
69.45 0.00104
69.5 0.00092
69.55 -0.00022
69.6 -0.00057
69.65 -0.00132
69.7 -0.00233
69.75 -0.002
69.8 -0.00247
69.85 -0.00262
69.9 -0.0028
69.95 -0.0034
70 -0.00439
70.05 -0.00363
70.1 -0.00242
70.15 -0.00129
70.2 0.00014
70.25 0.00129
70.3 0.00238
70.35 0.00353
70.4 0.00431
70.45 0.00484
70.5 0.00483
70.55 0.00351
70.6 0.00231
70.65 0.00158
70.7 0.00114
70.75 0.00087
70.8 0.00073
70.85 0.00102
70.9 0.00193
70.95 0.00222
71 0.00279
71.05 0.00357
71.1 0.00378
71.15 0.00342
71.2 0.00274
71.25 0.00261
71.3 0.00281
71.35 0.00229
71.4 0.00281
71.45 0.00234
71.5 0.0019
71.55 0.00185
71.6 0.00176
71.65 0.00183
71.7 0.00177
71.75 0.00036
71.8 -0.00235
71.85 -0.00579
71.9 -0.00892
71.95 -0.01109
72 -0.01189
72.05 -0.01224
72.1 -0.01434
72.15 -0.01664
72.2 -0.02038
72.25 -0.02474
72.3 -0.02902
72.35 -0.03355
72.4 -0.0381
72.45 -0.04339
72.5 -0.04972
72.55 -0.05675
72.6 -0.06589
72.65 -0.07651
72.7 -0.08939
72.75 -0.10282
72.8 -0.11758
72.85 -0.13386
72.9 -0.15207
72.95 -0.17342
73 -0.19752
73.05 -0.22204
73.1 -0.24874
73.15 -0.27626
73.2 -0.30447
73.25 -0.33553
73.3 -0.36797
73.35 -0.40164
73.4 -0.43607
73.45 -0.46925
73.5 -0.502
73.55 -0.5333
73.6 -0.56396
73.65 -0.59431
73.7 -0.62365
73.75 -0.64974
73.8 -0.6717
73.85 -0.69115
73.9 -0.70585
73.95 -0.71563
74 -0.72202
74.05 -0.72335
74.1 -0.71991
74.15 -0.71014
74.2 -0.69423
74.25 -0.67431
74.3 -0.65054
74.35 -0.62114
74.4 -0.58672
74.45 -0.54832
74.5 -0.50674
74.55 -0.46117
74.6 -0.4139
74.65 -0.36356
74.7 -0.31189
74.75 -0.25906
74.8 -0.20656
74.85 -0.15355
74.9 -0.10237
74.95 -0.05111
75 -0.00182
75.05 0.04547
75.1 0.08943
75.15 0.1309
75.2 0.1701
75.25 0.20797
75.3 0.24184
75.35 0.27375
75.4 0.30233
75.45 0.32835
75.5 0.35345
75.55 0.37631
75.6 0.39778
75.65 0.41612
75.7 0.43271
75.75 0.44774
75.8 0.46216
75.85 0.47371
75.9 0.48444
75.95 0.49515
76 0.50407
76.05 0.51224
76.1 0.52025
76.15 0.52724
76.2 0.53421
76.25 0.53927
76.3 0.54345
76.35 0.54641
76.4 0.5498
76.45 0.55294
76.5 0.55596
76.55 0.55637
76.6 0.55582
76.65 0.55497
76.7 0.55358
76.75 0.55117
76.8 0.54681
76.85 0.54243
76.9 0.53776
76.95 0.53226
77 0.52455
77.05 0.51682
77.1 0.50775
77.15 0.49684
77.2 0.48452
77.25 0.47314
77.3 0.46185
77.35 0.4494
77.4 0.437
77.45 0.42421
77.5 0.41246
77.55 0.39984
77.6 0.38636
77.65 0.37362
77.7 0.36103
77.75 0.34906
77.8 0.33643
77.85 0.32343
77.9 0.31059
77.95 0.29864
78 0.28652
78.05 0.27356
78.1 0.26024
78.15 0.24658
78.2 0.23408
78.25 0.22199
78.3 0.21025
78.35 0.19786
78.4 0.18698
78.45 0.17718
78.5 0.16774
78.55 0.15762
78.6 0.14857
78.65 0.13812
78.7 0.12719
78.75 0.1159
78.8 0.10567
78.85 0.09658
78.9 0.08686
78.95 0.07724
79 0.0687
79.05 0.06065
79.1 0.05332
79.15 0.046
79.2 0.03884
79.25 0.03263
79.3 0.02571
79.35 0.01909
79.4 0.01386
79.45 0.0081
79.5 0.00262
79.55 -0.00384
79.6 -0.01078
79.65 -0.01754
79.7 -0.02331
79.75 -0.02875
79.8 -0.03254
79.85 -0.03635
79.9 -0.04101
79.95 -0.04575
80 -0.05018
80.05 -0.05359
80.1 -0.05557
80.15 -0.05744
80.2 -0.05908
80.25 -0.06074
80.3 -0.06267
80.35 -0.06389
80.4 -0.06641
80.45 -0.06924
80.5 -0.07155
80.55 -0.07387
80.6 -0.07562
80.65 -0.07809
80.7 -0.07903
80.75 -0.0798
80.8 -0.08119
80.85 -0.08326
80.9 -0.08466
80.95 -0.08473
81 -0.08431
81.05 -0.08518
81.1 -0.08588
81.15 -0.08618
81.2 -0.08726
81.25 -0.08804
81.3 -0.08855
81.35 -0.08825
81.4 -0.08739
81.45 -0.08759
81.5 -0.08676
81.55 -0.08583
81.6 -0.084
81.65 -0.0818
81.7 -0.08011
81.75 -0.08003
81.8 -0.07895
81.85 -0.07759
81.9 -0.076
81.95 -0.07484
82 -0.07474
82.05 -0.07537
82.1 -0.07546
82.15 -0.07552
82.2 -0.07612
82.25 -0.07531
82.3 -0.07368
82.35 -0.07356
82.4 -0.07317
82.45 -0.07297
82.5 -0.07253
82.55 -0.07119
82.6 -0.07101
82.65 -0.07046
82.7 -0.07083
82.75 -0.07007
82.8 -0.06813
82.85 -0.06708
82.9 -0.06638
82.95 -0.06562
83 -0.06421
83.05 -0.0621
83.1 -0.06055
83.15 -0.05994
83.2 -0.05864
83.25 -0.05854
83.3 -0.05764
83.35 -0.0559
83.4 -0.05517
83.45 -0.05422
83.5 -0.05396
83.55 -0.05261
83.6 -0.05173
83.65 -0.05115
83.7 -0.04983
83.75 -0.04907
83.8 -0.04805
83.85 -0.04695
83.9 -0.04726
83.95 -0.04781
84 -0.04826
84.05 -0.0472
84.1 -0.04698
84.15 -0.04595
84.2 -0.04397
84.25 -0.04278
84.3 -0.04121
84.35 -0.04018
84.4 -0.03924
84.45 -0.03872
84.5 -0.03884
84.55 -0.03843
84.6 -0.03712
84.65 -0.03736
84.7 -0.03758
84.75 -0.03862
84.8 -0.03935
84.85 -0.03887
84.9 -0.03791
84.95 -0.03733
85 -0.03712
85.05 -0.03614
85.1 -0.03567
85.15 -0.0354
85.2 -0.03523
85.25 -0.03487
85.3 -0.03409
85.35 -0.03284
85.4 -0.03106
85.45 -0.02925
85.5 -0.02817
85.55 -0.02788
85.6 -0.02776
85.65 -0.0276
85.7 -0.02809
85.75 -0.02841
85.8 -0.02833
85.85 -0.02794
85.9 -0.0265
85.95 -0.02512
86 -0.02435
86.05 -0.02445
86.1 -0.02519
86.15 -0.02648
86.2 -0.02644
86.25 -0.02572
86.3 -0.02501
86.35 -0.02499
86.4 -0.02584
86.45 -0.02667
86.5 -0.02723
86.55 -0.02736
86.6 -0.02669
86.65 -0.02662
86.7 -0.02527
86.75 -0.02383
86.8 -0.0221
86.85 -0.02124
86.9 -0.02127
86.95 -0.01998
87 -0.01802
87.05 -0.0177
87.1 -0.01774
87.15 -0.01691
87.2 -0.01628
87.25 -0.0166
87.3 -0.016
87.35 -0.01459
87.4 -0.01469
87.45 -0.01467
87.5 -0.01516
87.55 -0.01535
87.6 -0.01493
87.65 -0.01493
87.7 -0.01492
87.75 -0.01541
87.8 -0.01666
87.85 -0.01752
87.9 -0.01672
87.95 -0.01633
88 -0.0154
88.05 -0.0154
88.1 -0.01433
88.15 -0.01413
88.2 -0.01286
88.25 -0.01104
88.3 -0.00904
88.35 -0.00802
88.4 -0.00818
88.45 -0.00909
88.5 -0.00877
88.55 -0.00971
88.6 -0.01079
88.65 -0.01187
88.7 -0.01177
88.75 -0.01063
88.8 -0.01035
88.85 -0.00965
88.9 -0.00834
88.95 -0.0066
89 -0.00643
89.05 -0.0055
89.1 -0.00603
89.15 -0.0057
89.2 -0.00688
89.25 -0.00883
89.3 -0.0106
89.35 -0.0116
89.4 -0.01105
89.45 -0.00964
89.5 -0.00759
89.55 -0.00613
89.6 -0.00467
89.65 -0.0039
89.7 -0.00373
89.75 -0.00441
89.8 -0.00552
89.85 -0.00625
89.9 -0.00584
89.95 -0.00683
90 -0.00652
90.05 -0.00667
90.1 -0.00724
90.15 -0.00836
90.2 -0.00802
90.25 -0.00844
90.3 -0.00862
90.35 -0.00794
90.4 -0.00825
90.45 -0.00913
90.5 -0.01008
90.55 -0.01115
90.6 -0.01216
90.65 -0.0132
90.7 -0.01244
90.75 -0.0123
90.8 -0.0119
90.85 -0.0108
90.9 -0.01006
90.95 -0.00941
91 -0.00923
91.05 -0.00931
91.1 -0.00975
91.15 -0.01
91.2 -0.00984
91.25 -0.00831
91.3 -0.00775
91.35 -0.00749
91.4 -0.00627
91.45 -0.0042
91.5 -0.00399
91.55 -0.00378
91.6 -0.00387
91.65 -0.00356
91.7 -0.0027
91.75 -0.0032
91.8 -0.00466
91.85 -0.00438
91.9 -0.00515
91.95 -0.00466
92 -0.00363
92.05 -0.00315
92.1 -0.00356
92.15 -0.00277
92.2 -0.0019
92.25 -0.00079
92.3 0.00038
92.35 0.00039
92.4 0.00108
92.45 0.00155
92.5 0.00122
92.55 0.00161
92.6 0.00206
92.65 0.00263
92.7 0.00193
92.75 0.0008
92.8 -0.00031
92.85 -0.00137
92.9 -0.00154
92.95 -0.002
93 -0.00136
93.05 -0.00214
93.1 -0.00306
93.15 -0.0026
93.2 -0.00272
93.25 -0.00229
93.3 -0.00196
93.35 -0.00093
93.4 -0.00085
93.45 -0.00089
93.5 -0.00137
93.55 -0.00277
93.6 -0.00411
93.65 -0.00499
93.7 -0.0054
93.75 -0.00555
93.8 -0.00501
93.85 -0.00399
93.9 -0.00287
93.95 -0.00264
94 -0.00223
94.05 -0.00256
94.1 -0.00378
94.15 -0.00409
94.2 -0.00501
94.25 -0.00452
94.3 -0.00457
94.35 -0.00471
94.4 -0.0046
94.45 -0.00361
94.5 -0.00197
94.55 0.00001
94.6 0.00028
94.65 0.00026
94.7 -0.00003
94.75 -0.00127
94.8 -0.00099
94.85 -0.00194
94.9 -0.00263
94.95 -0.00391
95 -0.00451
95.05 -0.0052
95.1 -0.00558
95.15 -0.0057
95.2 -0.00554
95.25 -0.00535
95.3 -0.0053
95.35 -0.00452
95.4 -0.00359
95.45 -0.00233
95.5 -0.00047
95.55 -0.00009
95.6 -0.00029
95.65 -0.00031
95.7 -0.00065
95.75 -0.00128
95.8 -0.0015
95.85 -0.00203
95.9 -0.00184
95.95 -0.00136
96 -0.00107
96.05 -0.00194
96.1 -0.00317
96.15 -0.00449
96.2 -0.00486
96.25 -0.00368
96.3 -0.00379
96.35 -0.00471
96.4 -0.00428
96.45 -0.00305
96.5 -0.00168
96.55 -0.00088
96.6 -0.00001
96.65 0.00052
96.7 0.00167
96.75 0.00277
96.8 0.00216
96.85 0.00074
96.9 0.00009
96.95 -0.00136
97 -0.00198
97.05 -0.00224
97.1 -0.00201
97.15 -0.00135
97.2 -0.00132
97.25 -0.0005
97.3 -0.00043
97.35 -0.00007
97.4 0.00002
97.45 0.00029
97.5 -0.00021
97.55 0.00019
97.6 -0.0006
97.65 -0.00096
97.7 -0.00115
97.75 -0.00098
97.8 -0.00142
97.85 -0.00214
97.9 -0.00282
97.95 -0.00235
98 -0.00231
98.05 -0.00193
98.1 -0.00179
98.15 -0.00158
98.2 -0.00224
98.25 -0.00311
98.3 -0.00269
98.35 -0.0013
98.4 0.00036
98.45 0.00053
98.5 0.00135
98.55 0.00084
98.6 0.00054
98.65 0.00053
98.7 -0.00015
98.75 -0.00086
98.8 -0.00133
98.85 -0.00228
98.9 -0.00198
98.95 -0.00215
99 -0.00216
99.05 -0.00284
99.1 -0.00331
99.15 -0.00323
99.2 -0.00223
99.25 -0.0008
99.3 -0.00061
99.35 -0.00146
99.4 -0.00259
99.45 -0.00224
99.5 -0.00076
99.55 0.00073
99.6 0.00144
99.65 0.00071
99.7 0.00111
99.75 0.00097
99.8 0.00108
99.85 0.00166
99.9 0.00202
99.95 0.00312
