0 0
0.05 0.00024
0.1 0.00082
0.15 0.00178
0.2 0.00283
0.25 0.00342
0.3 0.00388
0.35 0.0042
0.4 0.00452
0.45 0.00499
0.5 0.00516
0.55 0.00543
0.6 0.00574
0.65 0.00599
0.7 0.00615
0.75 0.00599
0.8 0.00576
0.85 0.00543
0.9 0.00476
0.95 0.00425
1 0.00416
1.05 0.00409
1.1 0.00365
1.15 0.003
1.2 0.00273
1.25 0.0024
1.3 0.00202
1.35 0.0015
1.4 0.00152
1.45 0.00152
1.5 0.00136
1.55 0.00147
1.6 0.00165
1.65 0.0022
1.7 0.00262
1.75 0.00276
1.8 0.0026
1.85 0.0024
1.9 0.00256
1.95 0.00261
2 0.00282
2.05 0.00256
2.1 0.00239
2.15 0.00212
2.2 0.00164
2.25 0.00151
2.3 0.0016
2.35 0.00167
2.4 0.0015
2.45 0.00152
2.5 0.00192
2.55 0.00187
2.6 0.00187
2.65 0.00167
2.7 0.0017
2.75 0.00165
2.8 0.00161
2.85 0.00157
2.9 0.00136
2.95 0.00127
3 0.00111
3.05 0.00081
3.1 0.00056
3.15 0.00014
3.2 -0.00014
3.25 -0.0003
3.3 -0.00044
3.35 -0.00051
3.4 -0.00021
3.45 0.00035
3.5 0.00098
3.55 0.00138
3.6 0.00169
3.65 0.00191
3.7 0.00178
3.75 0.00151
3.8 0.00132
3.85 0.00126
3.9 0.00157
3.95 0.00189
4 0.0023
4.05 0.00254
4.1 0.00241
4.15 0.0022
4.2 0.00184
4.25 0.00127
4.3 0.00074
4.35 0.00063
4.4 0.00046
4.45 0.0003
4.5 0.00063
4.55 0.00081
4.6 0.00081
4.65 0.00062
4.7 0.00067
4.75 0.00073
4.8 0.00079
4.85 0.0011
4.9 0.00119
4.95 0.00096
5 0.00096
5.05 0.00106
5.1 0.00113
5.15 0.00141
5.2 0.00131
5.25 0.0011
5.3 0.00062
5.35 0.00067
5.4 0.00098
5.45 0.00125
5.5 0.00164
5.55 0.00207
5.6 0.0024
5.65 0.00269
5.7 0.00249
5.75 0.00227
5.8 0.00197
5.85 0.00178
5.9 0.00128
5.95 0.00112
6 0.00115
6.05 0.00143
6.1 0.00154
6.15 0.00144
6.2 0.00163
6.25 0.00203
6.3 0.00244
6.35 0.00289
6.4 0.00301
6.45 0.00285
6.5 0.00269
6.55 0.00273
6.6 0.00292
6.65 0.00251
6.7 0.00178
6.75 0.00126
6.8 0.00106
6.85 0.00122
6.9 0.00124
6.95 0.00099
7 0.00088
7.05 0.00069
7.1 0.00075
7.15 0.00093
7.2 0.00108
7.25 0.00078
7.3 0.00087
7.35 0.00088
7.4 0.00111
7.45 0.00144
7.5 0.00154
7.55 0.00179
7.6 0.00153
7.65 0.00129
7.7 0.00097
7.75 0.00063
7.8 0.00037
7.85 0.00027
7.9 0.00019
7.95 -0.00022
8 -0.00074
8.05 -0.00074
8.1 -0.00055
8.15 -0.00007
8.2 -0.00011
8.25 0.00008
8.3 -0.00017
8.35 -0.00068
8.4 -0.00121
8.45 -0.00141
8.5 -0.00165
8.55 -0.00173
8.6 -0.00143
8.65 -0.00095
8.7 -0.00048
8.75 -0.00005
8.8 0.00045
8.85 0.0008
8.9 0.00126
8.95 0.00155
9 0.00154
9.05 0.00143
9.1 0.00133
9.15 0.00147
9.2 0.00108
9.25 0.0007
9.3 0.00071
9.35 0.00044
9.4 0.00029
9.45 -0.00001
9.5 -0.00027
9.55 -0.00034
9.6 -0.00071
9.65 -0.00124
9.7 -0.00168
9.75 -0.00167
9.8 -0.00156
9.85 -0.00128
9.9 -0.00102
9.95 -0.0004
10 -0.00012
10.05 -0.00004
10.1 0
10.15 0.0002
10.2 0.00002
10.25 -0.00014
10.3 -0.00045
10.35 -0.00067
10.4 -0.001
10.45 -0.00143
10.5 -0.00187
10.55 -0.00205
10.6 -0.00209
10.65 -0.00207
10.7 -0.00202
10.75 -0.0017
10.8 -0.00133
10.85 -0.00074
10.9 -0.0005
10.95 -0.00045
11 -0.00039
11.05 -0.00018
11.1 0.00001
11.15 -0.00008
11.2 -0.00013
11.25 -0.00046
11.3 -0.0003
11.35 -0.00031
11.4 -0.00024
11.45 -0.00014
11.5 -0.00026
11.55 -0.00037
11.6 -0.00068
11.65 -0.00114
11.7 -0.00115
11.75 -0.00086
11.8 -0.00042
11.85 0.00028
11.9 0.00051
11.95 0.00077
12 0.001
12.05 0.00096
12.1 0.00124
12.15 0.00103
12.2 0.0008
12.25 0.00067
12.3 0.00033
12.35 -0.00013
12.4 -0.00002
12.45 0.00035
12.5 0.00091
12.55 0.00152
12.6 0.00198
12.65 0.00194
12.7 0.00202
12.75 0.00159
12.8 0.00142
12.85 0.00105
12.9 0.00065
12.95 0.00001
13 -0.00038
13.05 -0.00025
13.1 0.00022
13.15 0.00075
13.2 0.00074
13.25 0.00043
13.3 -0.00002
13.35 -0.00028
13.4 -0.00075
13.45 -0.00073
13.5 -0.00065
13.55 -0.00051
13.6 -0.00061
13.65 -0.00039
13.7 -0.00015
13.75 -0.00021
13.8 0.00015
13.85 0.00014
13.9 0.00002
13.95 -0.00034
14 -0.00065
14.05 -0.0005
14.1 -0.00054
14.15 -0.00071
14.2 -0.00082
14.25 -0.00101
14.3 -0.00091
14.35 -0.00096
14.4 -0.00111
14.45 -0.00099
14.5 -0.00116
14.55 -0.00083
14.6 -0.00054
14.65 -0.00048
14.7 -0.00003
14.75 0.00031
14.8 0.00065
14.85 0.00097
14.9 0.00131
14.95 0.00135
15 0.00131
15.05 0.00102
15.1 0.00054
15.15 0.00052
15.2 0.00028
15.25 0.00027
15.3 0.00031
15.35 0.00038
15.4 0.0001
15.45 -0.00002
15.5 0.00013
15.55 -0.00008
15.6 0.00013
15.65 0.0001
15.7 0.00018
15.75 -0.00007
15.8 -0.00001
15.85 0.00039
15.9 0.00031
15.95 0.00058
16 0.00095
16.05 0.00082
16.1 0.00089
16.15 0.00064
16.2 0.00023
16.25 -0.00018
16.3 -0.0002
16.35 -0.00016
16.4 -0.00012
16.45 0.00024
16.5 0.00045
16.55 0.00059
16.6 0.00054
16.65 0.00041
16.7 0.00035
16.75 -0.00003
16.8 -0.00029
16.85 -0.00076
16.9 -0.00133
16.95 -0.00161
17 -0.00182
17.05 -0.00205
17.1 -0.00208
17.15 -0.00178
17.2 -0.00149
17.25 -0.00137
17.3 -0.00122
17.35 -0.00072
17.4 -0.00061
17.45 -0.00026
17.5 0.00012
17.55 0.00011
17.6 -0.0002
17.65 -0.00028
17.7 -0.00032
17.75 -0.00002
17.8 0.0002
17.85 0.00048
17.9 0.00041
17.95 0.00011
18 0.00024
18.05 0.00044
18.1 0.00062
18.15 0.0006
18.2 0.00056
18.25 0.00062
18.3 0.00065
18.35 0.00047
18.4 0.00047
18.45 0.00022
18.5 0.00042
18.55 0.00076
18.6 0.0008
18.65 0.00109
18.7 0.00099
18.75 0.00074
18.8 0.00029
18.85 -0.00006
18.9 -0.0004
18.95 -0.00023
19 -0.00033
19.05 -0.00025
19.1 -0.00012
19.15 -0.00003
19.2 -0.0002
19.25 -0.00057
19.3 -0.00046
19.35 -0.00066
19.4 -0.00069
19.45 -0.00048
19.5 -0.00007
19.55 0.00031
19.6 0.00035
19.65 0.00034
19.7 0.00048
19.75 0.00056
19.8 0.0009
19.85 0.00142
19.9 0.00145
19.95 0.00164
20 0.00197
20.05 0.00207
20.1 0.00199
20.15 0.00152
20.2 0.00116
20.25 0.00064
20.3 0.00045
20.35 0.00051
20.4 0.00054
20.45 0.00024
20.5 -0.0002
20.55 -0.0002
20.6 -0.00048
20.65 -0.00056
20.7 -0.00045
20.75 -0.00051
20.8 -0.00016
20.85 0.00039
20.9 0.00088
20.95 0.00082
21 0.00082
21.05 0.00049
21.1 -0.00001
21.15 -0.00065
21.2 -0.00109
21.25 -0.00128
21.3 -0.00144
21.35 -0.00117
21.4 -0.00105
21.45 -0.00125
21.5 -0.00095
21.55 -0.00065
21.6 -0.00059
21.65 -0.00049
21.7 -0.00062
21.75 -0.00082
21.8 -0.00124
21.85 -0.00172
21.9 -0.00172
21.95 -0.00145
22 -0.00149
22.05 -0.00152
22.1 -0.00157
22.15 -0.00156
22.2 -0.00128
22.25 -0.00062
22.3 -0.00045
22.35 -0.0005
22.4 -0.00078
22.45 -0.001
22.5 -0.00109
22.55 -0.00131
22.6 -0.0014
22.65 -0.00118
22.7 -0.00115
22.75 -0.00091
22.8 -0.00045
22.85 -0.00026
22.9 -0.00021
22.95 0.00021
23 0.00056
23.05 0.00099
23.1 0.00086
23.15 0.00091
23.2 0.00115
23.25 0.00129
23.3 0.00109
23.35 0.00088
23.4 0.00097
23.45 0.00072
23.5 0.00084
23.55 0.00123
23.6 0.00154
23.65 0.00145
23.7 0.00117
23.75 0.00119
23.8 0.00122
23.85 0.00095
23.9 0.001
23.95 0.00089
24 0.00044
24.05 -0.00007
24.1 -0.00066
24.15 -0.00081
24.2 -0.00079
24.25 -0.001
24.3 -0.00109
24.35 -0.00071
24.4 -0.00047
24.45 -0.00006
24.5 0.00008
24.55 0.00012
24.6 -0.00006
24.65 -0.00029
24.7 -0.00035
24.75 -0.0004
24.8 -0.00036
24.85 0.00003
24.9 0.00035
24.95 0.0002
25 0.00029
25.05 0.00057
25.1 0.00075
25.15 0.00093
25.2 0.0007
25.25 0.00038
25.3 0.00008
25.35 -0.00012
25.4 -0.00029
25.45 -0.00022
25.5 -0.00033
25.55 -0.00004
25.6 -0.00005
25.65 -0.0001
25.7 -0.00028
25.75 -0.00059
25.8 -0.00043
25.85 -0.00036
25.9 -0.00052
25.95 -0.00027
26 -0.00024
26.05 -0.00055
26.1 -0.0007
26.15 -0.00104
26.2 -0.00127
26.25 -0.00101
26.3 -0.00056
26.35 -0.00046
26.4 -0.00021
26.45 -0.00032
26.5 -0.00008
26.55 0.00033
26.6 0.00051
26.65 0.00073
26.7 0.00078
26.75 0.00075
26.8 0.00044
26.85 0.00058
26.9 0.00063
26.95 0.00062
27 0.00093
27.05 0.00135
27.1 0.00146
27.15 0.00133
27.2 0.00085
27.25 0.00075
27.3 0.00041
27.35 0.00024
27.4 0.00023
27.45 0.00011
27.5 -0.00014
27.55 -0.00033
27.6 -0.00076
27.65 -0.00104
27.7 -0.00133
27.75 -0.00128
27.8 -0.00126
27.85 -0.00147
27.9 -0.00123
27.95 -0.00112
28 -0.00084
28.05 -0.00036
28.1 0.00006
28.15 -0.00001
28.2 -0.00021
28.25 -0.00004
28.3 0.00031
28.35 0.00077
28.4 0.00096
28.45 0.00134
28.5 0.0017
28.55 0.00216
28.6 0.00196
28.65 0.00195
28.7 0.0017
28.75 0.00157
28.8 0.00156
28.85 0.00124
28.9 0.00126
28.95 0.00117
29 0.00107
29.05 0.00071
29.1 0.0005
29.15 0.0005
29.2 0.0007
29.25 0.00102
29.3 0.00135
29.35 0.00152
29.4 0.00157
29.45 0.00143
29.5 0.00102
29.55 0.00057
29.6 0.00028
29.65 -0.0001
29.7 -0.00019
29.75 -0.00017
29.8 -0.0005
29.85 -0.00091
29.9 -0.0013
29.95 -0.00149
30 -0.00139
30.05 -0.00099
30.1 -0.00035
30.15 -0.00024
30.2 -0.00011
30.25 0.00024
30.3 0.00048
30.35 0.00052
30.4 0.00028
30.45 0.00024
30.5 0.00025
30.55 0.00025
30.6 0.00001
30.65 -0
30.7 -0
30.75 0.00024
30.8 0.00032
30.85 0.00065
30.9 0.00066
30.95 0.00039
31 0.00029
31.05 0.00021
31.1 0.00043
31.15 0.00023
31.2 -0.00005
31.25 -0.00005
31.3 -0.00014
31.35 -0.00019
31.4 -0.00025
31.45 -0.00063
31.5 -0.00056
31.55 -0.00054
31.6 -0.00049
31.65 -0.00018
31.7 0.00004
31.75 0.00035
31.8 0.00021
31.85 -0.00004
31.9 0.00006
31.95 0.0003
32 0.00053
32.05 0.00031
32.1 0.00007
32.15 -0.00005
32.2 -0.00027
32.25 -0.00062
32.3 -0.00067
32.35 -0.00095
32.4 -0.00093
32.45 -0.00121
32.5 -0.00095
32.55 -0.00044
32.6 -0.00022
32.65 -0.00008
32.7 0.00035
32.75 0.00034
32.8 0.00032
32.85 -0.00006
32.9 -0.00068
32.95 -0.00114
33 -0.00135
33.05 -0.00105
33.1 -0.00065
33.15 -0.00022
33.2 0.00011
33.25 0.00057
33.3 0.00052
33.35 0.00064
33.4 0.00035
33.45 0.00045
33.5 0.0007
33.55 0.00089
33.6 0.00096
33.65 0.00068
33.7 0.00057
33.75 0.00078
33.8 0.00093
33.85 0.00071
33.9 0.00024
33.95 -0.00027
34 -0.00026
34.05 -0.00048
34.1 -0.0007
34.15 -0.0006
34.2 -0.00065
34.25 -0.0006
34.3 -0.00052
34.35 -0.00045
34.4 -0.0006
34.45 -0.00068
34.5 -0.00073
34.55 -0.00087
34.6 -0.0008
34.65 -0.00043
34.7 -0.00032
34.75 -0.00036
34.8 -0.0003
34.85 -0.00019
34.9 -0.00034
34.95 -0.00015
35 0.00018
35.05 0.00009
35.1 -0.00026
35.15 -0.00068
35.2 -0.00083
35.25 -0.00103
35.3 -0.00103
35.35 -0.00128
35.4 -0.00114
35.45 -0.00117
35.5 -0.00104
35.55 -0.00081
35.6 -0.00079
35.65 -0.00037
35.7 -0.00016
35.75 0.00006
35.8 -0.00016
35.85 -0.00004
35.9 0.00022
35.95 0.00061
36 0.00066
36.05 0.00042
36.1 0.00033
36.15 0.00011
36.2 -0.0001
36.25 -0.0002
36.3 0.00002
36.35 0.00024
36.4 0.00002
36.45 -0.0004
36.5 -0.00066
36.55 -0.00092
36.6 -0.00084
36.65 -0.00056
36.7 -0.00043
36.75 -0.00053
36.8 -0.00088
36.85 -0.00069
36.9 -0.00075
36.95 -0.00037
37 -0.0001
37.05 0.00012
37.1 0.00053
37.15 0.00059
37.2 0.00035
37.25 0.00015
37.3 -0.0003
37.35 -0.00034
37.4 -0.0003
37.45 -0.00017
37.5 -0.00016
37.55 -0.00018
37.6 0.00001
37.65 0.00024
37.7 0.00021
37.75 0.00016
37.8 0.00011
37.85 0.00039
37.9 0.00036
37.95 0.00063
38 0.00098
38.05 0.00131
38.1 0.00147
38.15 0.00141
38.2 0.0012
38.25 0.00123
38.3 0.00077
38.35 0.00017
38.4 -0.00038
38.45 -0.00083
38.5 -0.00139
38.55 -0.00152
38.6 -0.00167
38.65 -0.00153
38.7 -0.00095
38.75 -0.00067
38.8 -0.00051
38.85 -0.00006
38.9 0.00047
38.95 0.00094
39 0.00083
39.05 0.00098
39.1 0.00079
39.15 0.00028
39.2 0.00006
39.25 -0.0004
39.3 -0.00038
39.35 -0.00022
39.4 -0.00012
39.45 -0.00019
39.5 -0.00024
39.55 -0.00051
39.6 -0.00084
39.65 -0.00064
39.7 -0.0002
39.75 0.00042
39.8 0.00059
39.85 0.00039
39.9 0.00037
39.95 0.00006
40 0.00005
40.05 -0.00022
40.1 -0.00021
40.15 -0.00045
40.2 -0.00036
40.25 -0.00026
40.3 0.00012
40.35 0
40.4 -0.00028
40.45 -0.00073
40.5 -0.00066
40.55 -0.00055
40.6 -0.00069
40.65 -0.00091
40.7 -0.00127
40.75 -0.00156
40.8 -0.00148
40.85 -0.00113
40.9 -0.00115
40.95 -0.00109
41 -0.00096
41.05 -0.00101
41.1 -0.00108
41.15 -0.00125
41.2 -0.0014
41.25 -0.00127
41.3 -0.00112
41.35 -0.00079
41.4 -0.00047
41.45 -0.00045
41.5 -0.00029
41.55 -0.00012
41.6 0.0002
41.65 0.00049
41.7 0.00082
41.75 0.00069
41.8 0.0003
41.85 0.00011
41.9 0.00037
41.95 0.00072
42 0.00092
42.05 0.00087
42.1 0.0005
42.15 0.00028
42.2 0.00035
42.25 0.00062
42.3 0.00098
42.35 0.00137
42.4 0.00169
42.45 0.00198
42.5 0.00235
42.55 0.0022
42.6 0.00202
42.65 0.00192
42.7 0.00161
42.75 0.0014
42.8 0.00096
42.85 0.00064
42.9 0.00035
42.95 0.00007
43 -0.00039
43.05 -0.00035
43.1 -0.00039
43.15 -0.00059
43.2 -0.00031
43.25 0.00018
43.3 0.0006
43.35 0.00082
43.4 0.00123
43.45 0.00135
43.5 0.00133
43.55 0.00154
43.6 0.00179
43.65 0.0019
43.7 0.00198
43.75 0.00209
43.8 0.00185
43.85 0.00162
43.9 0.00144
43.95 0.00123
44 0.00128
44.05 0.00091
44.1 0.00037
44.15 0.00013
44.2 0.00021
44.25 0.00018
44.3 -0.00018
44.35 -0.00058
44.4 -0.00095
44.45 -0.00127
44.5 -0.0011
44.55 -0.0009
44.6 -0.00041
44.65 -0.00044
44.7 -0.00016
44.75 0.00034
44.8 0.00032
44.85 0.0003
44.9 0.00032
44.95 0.00059
45 0.00095
45.05 0.00099
45.1 0.00095
45.15 0.00116
45.2 0.00136
45.25 0.0011
45.3 0.00103
45.35 0.00071
45.4 0.0006
45.45 0.00016
45.5 -0.0005
45.55 -0.00104
45.6 -0.00108
45.65 -0.00087
45.7 -0.00047
45.75 -0.00024
45.8 -0.00035
45.85 -0.00016
45.9 -0.00027
45.95 -0.00018
46 -0.00016
46.05 -0.00052
46.1 -0.00112
46.15 -0.00139
46.2 -0.00145
46.25 -0.00153
46.3 -0.00169
46.35 -0.00176
46.4 -0.0022
46.45 -0.0028
46.5 -0.00346
46.55 -0.00442
46.6 -0.00578
46.65 -0.00719
46.7 -0.00848
46.75 -0.00973
46.8 -0.01132
46.85 -0.0132
46.9 -0.01553
46.95 -0.01838
47 -0.02177
47.05 -0.02504
47.1 -0.02888
47.15 -0.03327
47.2 -0.03763
47.25 -0.04216
47.3 -0.04737
47.35 -0.05279
47.4 -0.05856
47.45 -0.06479
47.5 -0.07154
47.55 -0.07882
47.6 -0.08686
47.65 -0.09557
47.7 -0.1048
47.75 -0.1141
47.8 -0.12414
47.85 -0.13441
47.9 -0.14473
47.95 -0.15464
48 -0.16463
48.05 -0.17437
48.1 -0.18371
48.15 -0.1923
48.2 -0.20036
48.25 -0.20786
48.3 -0.21436
48.35 -0.21994
48.4 -0.22437
48.45 -0.22731
48.5 -0.22853
48.55 -0.22838
48.6 -0.22663
48.65 -0.22316
48.7 -0.21839
48.75 -0.21199
48.8 -0.20404
48.85 -0.19461
48.9 -0.18408
48.95 -0.17264
49 -0.1604
49.05 -0.1468
49.1 -0.13222
49.15 -0.11673
49.2 -0.10073
49.25 -0.08376
49.3 -0.06622
49.35 -0.04843
49.4 -0.03015
49.45 -0.01179
49.5 0.00601
49.55 0.02347
49.6 0.04051
49.65 0.05721
49.7 0.07347
49.75 0.08922
49.8 0.10444
49.85 0.11878
49.9 0.13224
49.95 0.14525
50 0.15766
50.05 0.1691
50.1 0.17952
50.15 0.18915
50.2 0.19763
50.25 0.20516
50.3 0.21185
50.35 0.21784
50.4 0.22282
50.45 0.2269
50.5 0.23005
50.55 0.23236
50.6 0.23411
50.65 0.23468
50.7 0.23422
50.75 0.23321
50.8 0.23123
50.85 0.22861
50.9 0.22541
50.95 0.22161
51 0.21755
51.05 0.21335
51.1 0.20851
51.15 0.20332
51.2 0.19726
51.25 0.19097
51.3 0.18437
51.35 0.17715
51.4 0.16969
51.45 0.1622
51.5 0.15444
51.55 0.14682
51.6 0.13958
51.65 0.1325
51.7 0.12587
51.75 0.11909
51.8 0.11272
51.85 0.10633
51.9 0.09998
51.95 0.09414
52 0.08852
52.05 0.0831
52.1 0.07791
52.15 0.07266
52.2 0.06731
52.25 0.06251
52.3 0.05789
52.35 0.05381
52.4 0.0498
52.45 0.04586
52.5 0.04216
52.55 0.03901
52.6 0.03573
52.65 0.03254
52.7 0.02954
52.75 0.02651
52.8 0.02393
52.85 0.02116
52.9 0.01858
52.95 0.01638
53 0.0142
53.05 0.01191
53.1 0.00994
53.15 0.00779
53.2 0.00591
53.25 0.00446
53.3 0.00339
53.35 0.00237
53.4 0.00081
53.45 -0.00055
53.5 -0.00218
53.55 -0.00376
53.6 -0.00519
53.65 -0.0066
53.7 -0.00821
53.75 -0.00984
53.8 -0.01112
53.85 -0.01241
53.9 -0.01331
53.95 -0.0142
54 -0.01479
54.05 -0.01536
54.1 -0.01607
54.15 -0.01644
54.2 -0.01664
54.25 -0.01686
54.3 -0.01703
54.35 -0.01761
54.4 -0.0185
54.45 -0.01963
54.5 -0.0207
54.55 -0.02184
54.6 -0.02248
54.65 -0.02265
54.7 -0.02289
54.75 -0.02334
54.8 -0.02367
54.85 -0.02402
54.9 -0.02414
54.95 -0.02401
55 -0.02364
55.05 -0.02376
55.1 -0.02366
55.15 -0.02368
55.2 -0.02391
55.25 -0.02435
55.3 -0.02455
55.35 -0.02433
55.4 -0.02425
55.45 -0.02389
55.5 -0.02398
55.55 -0.02384
55.6 -0.02387
55.65 -0.02358
55.7 -0.02366
55.75 -0.02362
55.8 -0.02339
55.85 -0.02295
55.9 -0.0225
55.95 -0.02241
56 -0.02246
56.05 -0.02285
56.1 -0.02282
56.15 -0.02274
56.2 -0.0227
56.25 -0.02283
56.3 -0.0225
56.35 -0.02222
56.4 -0.0222
56.45 -0.02215
56.5 -0.02192
56.55 -0.0214
56.6 -0.02133
56.65 -0.02082
56.7 -0.02064
56.75 -0.02028
56.8 -0.01985
56.85 -0.01985
56.9 -0.01974
56.95 -0.01928
57 -0.01924
57.05 -0.01927
57.1 -0.01903
57.15 -0.01841
57.2 -0.01819
57.25 -0.01822
57.3 -0.0182
57.35 -0.01809
57.4 -0.01801
57.45 -0.01793
57.5 -0.01776
57.55 -0.01782
57.6 -0.01761
57.65 -0.01707
57.7 -0.01689
57.75 -0.01631
57.8 -0.01604
57.85 -0.01549
57.9 -0.01477
57.95 -0.01457
58 -0.01455
58.05 -0.01442
58.1 -0.01385
58.15 -0.01371
58.2 -0.01342
58.25 -0.01301
58.3 -0.01288
58.35 -0.01245
58.4 -0.01224
58.45 -0.01236
58.5 -0.01226
58.55 -0.01225
58.6 -0.01196
58.65 -0.01158
58.7 -0.01135
58.75 -0.01118
58.8 -0.01129
58.85 -0.0111
58.9 -0.01076
58.95 -0.01072
59 -0.0108
59.05 -0.01069
59.1 -0.01044
59.15 -0.00987
59.2 -0.00968
59.25 -0.00958
59.3 -0.00957
59.35 -0.0092
59.4 -0.00904
59.45 -0.00895
59.5 -0.00849
59.55 -0.00838
59.6 -0.00856
59.65 -0.00828
59.7 -0.00778
59.75 -0.00721
59.8 -0.0067
59.85 -0.00668
59.9 -0.00658
59.95 -0.00693
60 -0.00718
60.05 -0.00758
60.1 -0.00763
60.15 -0.0075
60.2 -0.00703
60.25 -0.00667
60.3 -0.00637
60.35 -0.00651
60.4 -0.00647
60.45 -0.0066
60.5 -0.00692
60.55 -0.00673
60.6 -0.00632
60.65 -0.00585
60.7 -0.00583
60.75 -0.00561
60.8 -0.00569
60.85 -0.00549
60.9 -0.00546
60.95 -0.0051
61 -0.00469
61.05 -0.00452
61.1 -0.0043
61.15 -0.00458
61.2 -0.00452
61.25 -0.00429
61.3 -0.004
61.35 -0.00383
61.4 -0.00387
61.45 -0.00364
61.5 -0.0037
61.55 -0.00355
61.6 -0.00369
61.65 -0.00415
61.7 -0.0043
61.75 -0.00443
61.8 -0.00434
61.85 -0.00404
61.9 -0.00419
61.95 -0.00417
62 -0.00395
62.05 -0.00346
62.1 -0.0034
62.15 -0.00309
62.2 -0.00326
62.25 -0.00319
62.3 -0.00322
62.35 -0.00313
62.4 -0.00341
62.45 -0.00365
62.5 -0.00414
62.55 -0.00441
62.6 -0.00478
62.65 -0.00476
62.7 -0.00462
62.75 -0.00464
62.8 -0.00469
62.85 -0.00432
62.9 -0.00382
62.95 -0.00325
63 -0.00316
63.05 -0.00317
63.1 -0.00338
63.15 -0.00338
63.2 -0.00298
63.25 -0.00299
63.3 -0.0027
63.35 -0.00216
63.4 -0.00166
63.45 -0.00145
63.5 -0.00177
63.55 -0.00224
63.6 -0.0029
63.65 -0.00331
63.7 -0.00328
63.75 -0.00291
63.8 -0.00252
63.85 -0.00191
63.9 -0.00129
63.95 -0.00082
64 -0.00053
64.05 -0.00068
64.1 -0.00127
64.15 -0.00187
64.2 -0.00257
64.25 -0.00266
64.3 -0.00266
64.35 -0.00279
64.4 -0.00306
64.45 -0.00333
64.5 -0.00343
64.55 -0.00342
64.6 -0.00307
64.65 -0.00286
64.7 -0.00286
64.75 -0.00243
64.8 -0.00246
64.85 -0.00235
64.9 -0.00224
64.95 -0.00205
65 -0.00198
65.05 -0.00201
65.1 -0.00184
65.15 -0.00199
65.2 -0.002
65.25 -0.00187
65.3 -0.00162
65.35 -0.0017
65.4 -0.00169
65.45 -0.00168
65.5 -0.00163
65.55 -0.00178
65.6 -0.00176
65.65 -0.00192
65.7 -0.00211
65.75 -0.00202
65.8 -0.00195
65.85 -0.00208
65.9 -0.00175
65.95 -0.0018
66 -0.00198
66.05 -0.00182
66.1 -0.00137
66.15 -0.001
66.2 -0.00068
66.25 -0.00018
66.3 -0.00022
66.35 -0.00046
66.4 -0.00068
66.45 -0.0005
66.5 -0.00062
66.55 -0.00045
66.6 -0.00007
66.65 -0.00008
66.7 -0.0005
66.75 -0.00066
66.8 -0.00102
66.85 -0.00155
66.9 -0.00165
66.95 -0.00132
67 -0.00115
67.05 -0.00121
67.1 -0.00086
67.15 -0.00028
67.2 0.00024
67.25 0.00074
67.3 0.00069
67.35 0.0002
67.4 -0.00006
67.45 -0.00035
67.5 -0.00085
67.55 -0.00123
67.6 -0.00135
67.65 -0.00166
67.7 -0.00156
67.75 -0.00166
67.8 -0.00161
67.85 -0.00147
67.9 -0.00124
67.95 -0.00126
68 -0.00102
68.05 -0.00118
68.1 -0.00104
68.15 -0.00074
68.2 -0.00069
68.25 -0.00068
68.3 -0.00072
68.35 -0.00103
68.4 -0.0015
68.45 -0.0017
68.5 -0.00178
68.55 -0.00157
68.6 -0.00107
68.65 -0.00078
68.7 -0.00084
68.75 -0.0011
68.8 -0.00124
68.85 -0.00089
68.9 -0.00072
68.95 -0.0005
69 -0.00028
69.05 0.00003
69.1 -0.00007
69.15 -0.00046
69.2 -0.00079
69.25 -0.00072
69.3 -0.00042
69.35 -0.00048
69.4 -0.00043
69.45 -0.00072
69.5 -0.00078
69.55 -0.00092
69.6 -0.00082
69.65 -0.00091
69.7 -0.00095
69.75 -0.00073
69.8 -0.00029
69.85 -0.00026
69.9 -0.00057
69.95 -0.00088
70 -0.00107
70.05 -0.00102
70.1 -0.00123
70.15 -0.00094
70.2 -0.00087
70.25 -0.00088
70.3 -0.00055
70.35 -0.00014
70.4 0.00042
70.45 0.00105
70.5 0.00124
70.55 0.00123
70.6 0.00109
70.65 0.00086
70.7 0.00071
70.75 0.00078
70.8 0.00082
70.85 0.00089
70.9 0.00085
70.95 0.00095
71 0.00118
71.05 0.00125
71.1 0.0015
71.15 0.00123
71.2 0.00088
71.25 0.00052
71.3 0.00009
71.35 0.00006
71.4 0.00006
71.45 -0.00013
71.5 -0.00039
71.55 -0.00058
71.6 -0.00073
71.65 -0.00043
71.7 0.00011
71.75 0.00012
71.8 0.00007
71.85 0.00021
71.9 0.00034
71.95 0.00006
72 -0.00035
72.05 -0.0005
72.1 -0.00089
72.15 -0.00077
72.2 -0.00031
72.25 -0
72.3 0.0004
72.35 0.00029
72.4 -0.00001
72.45 -0.00035
72.5 -0.00084
72.55 -0.0013
72.6 -0.00163
72.65 -0.00205
72.7 -0.00238
72.75 -0.00248
72.8 -0.00259
72.85 -0.0021
72.9 -0.00164
72.95 -0.00133
73 -0.00121
73.05 -0.00076
73.1 -0.00047
73.15 -0.00028
73.2 -0.00003
73.25 0.00003
73.3 -0.00008
73.35 0.00006
73.4 -0.00009
73.45 -0.00039
73.5 -0.00043
73.55 -0.00006
73.6 0
73.65 0.00006
73.7 0.00036
73.75 0.00082
73.8 0.00141
73.85 0.00163
73.9 0.00193
73.95 0.00181
74 0.0018
74.05 0.00147
74.1 0.00145
74.15 0.00128
74.2 0.00097
74.25 0.00066
74.3 0.00062
74.35 0.00056
74.4 0.00061
74.45 0.0007
74.5 0.00066
74.55 0.00075
74.6 0.00052
74.65 0.00004
74.7 -0.00041
74.75 -0.00059
74.8 -0.00075
74.85 -0.00103
74.9 -0.00109
74.95 -0.00122
75 -0.00147
75.05 -0.00146
75.1 -0.00103
75.15 -0.00069
75.2 -0.00065
75.25 -0.00021
75.3 0.00008
75.35 0.0005
75.4 0.00108
75.45 0.00106
75.5 0.00097
75.55 0.00068
75.6 0.0005
75.65 0.00062
75.7 0.00063
75.75 0.00039
75.8 -0.00004
75.85 0.00002
75.9 -0.00001
75.95 -0.00004
76 -0.0002
76.05 -0.00033
76.1 -0.00062
76.15 -0.00071
76.2 -0.00097
76.25 -0.0013
76.3 -0.00104
76.35 -0.00045
76.4 -0.00001
76.45 0.00021
76.5 0.00003
76.55 -0.00027
76.6 -0.00081
76.65 -0.0013
76.7 -0.00118
76.75 -0.00094
76.8 -0.00046
76.85 0.00015
76.9 0.00064
76.95 0.00098
77 0.00103
77.05 0.00068
77.1 0.00041
77.15 -0.00013
77.2 -0.0008
77.25 -0.00082
77.3 -0.00066
77.35 -0.00042
77.4 -0.00019
77.45 0.00001
77.5 0.00018
77.55 0.00037
77.6 0.00019
77.65 0.00038
77.7 0.00067
77.75 0.00097
77.8 0.00084
77.85 0.00098
77.9 0.00118
77.95 0.00106
78 0.00093
78.05 0.00077
78.1 0.00088
78.15 0.00102
78.2 0.00071
78.25 0.00076
78.3 0.00049
78.35 0.00032
78.4 0.00028
78.45 0.00011
78.5 0.00003
78.55 0.00028
78.6 0.00027
78.65 -0.00005
78.7 -0.00058
78.75 -0.00092
78.8 -0.00113
78.85 -0.00148
78.9 -0.00186
78.95 -0.00209
79 -0.00182
79.05 -0.00128
79.1 -0.00088
79.15 -0.00022
79.2 0.00017
79.25 0.00035
79.3 0.00078
79.35 0.00102
79.4 0.00086
79.45 0.00036
79.5 0.00036
79.55 -0.00004
79.6 -0.00017
79.65 -0.00021
79.7 0.00001
79.75 -0.00013
79.8 -0.00009
79.85 -0.00002
79.9 -0.00004
79.95 -0.00035
80 -0.00037
80.05 -0.00007
80.1 0.00038
80.15 0.00082
80.2 0.00112
80.25 0.00142
80.3 0.00184
80.35 0.00204
80.4 0.00209
80.45 0.00216
80.5 0.00175
80.55 0.0015
80.6 0.00126
80.65 0.00126
80.7 0.00081
80.75 0.0006
80.8 0.00034
80.85 -0.00015
80.9 -0.0004
80.95 -0.0003
81 -0.00022
81.05 -0.00013
81.1 -0.00045
81.15 -0.00056
81.2 -0.00064
81.25 -0.00031
81.3 0.00008
81.35 -0.00002
81.4 -0.00029
81.45 -0.00044
81.5 -0.00052
81.55 -0.00078
81.6 -0.00126
81.65 -0.00126
81.7 -0.00098
81.75 -0.00103
81.8 -0.0013
81.85 -0.00135
81.9 -0.00147
81.95 -0.00151
82 -0.00152
82.05 -0.00131
82.1 -0.0011
82.15 -0.00122
82.2 -0.00124
82.25 -0.0008
82.3 -0.0003
82.35 -0.00025
82.4 -0.00051
82.45 -0.00057
82.5 -0.00064
82.55 -0.00072
82.6 -0.00056
82.65 -0.00062
82.7 -0.00068
82.75 -0.0003
82.8 0.00005
82.85 0.00005
82.9 -0.00009
82.95 0.00006
83 0.00003
83.05 0.00022
83.1 0.00028
83.15 0.00041
83.2 0.00019
83.25 0.00001
83.3 -0.00012
83.35 -0.00044
83.4 -0.00043
83.45 -0.00004
83.5 0.00038
83.55 0.00086
83.6 0.00108
83.65 0.00104
83.7 0.00093
83.75 0.00068
83.8 0.0006
83.85 0.00061
83.9 0.00046
83.95 0.00013
84 -0.00014
84.05 -0.00044
84.1 -0.00029
84.15 -0.00017
84.2 0
84.25 0.00006
84.3 -0.00011
84.35 -0.00007
84.4 0.0002
84.45 0.00047
84.5 0.00067
84.55 0.00062
84.6 0.00035
84.65 -0.00019
84.7 -0.00054
84.75 -0.00054
84.8 -0.00019
84.85 0.00013
84.9 0.00052
84.95 0.00068
85 0.00099
85.05 0.00083
85.1 0.00061
85.15 0.00024
85.2 0.00008
85.25 0.00028
85.3 0.00062
85.35 0.0008
85.4 0.00091
85.45 0.0011
85.5 0.00128
85.55 0.00117
85.6 0.00065
85.65 0.00052
85.7 0.00068
85.75 0.00041
85.8 0.00041
85.85 0.00036
85.9 0.00055
85.95 0.00056
86 0.00026
86.05 -0.00025
86.1 -0.00065
86.15 -0.00086
86.2 -0.00099
86.25 -0.00131
86.3 -0.00123
86.35 -0.00077
86.4 -0.00029
86.45 0.00034
86.5 0.00105
86.55 0.00133
86.6 0.00158
86.65 0.00161
86.7 0.00157
86.75 0.00139
86.8 0.0009
86.85 0.00016
86.9 -0.00002
86.95 0.00011
87 0.00001
87.05 -0.00005
87.1 -0.0003
87.15 -0.00043
87.2 -0.00052
87.25 -0.00091
87.3 -0.00089
87.35 -0.00074
87.4 -0.00084
87.45 -0.00066
87.5 -0.00024
87.55 0.00036
87.6 0.00074
87.65 0.00062
87.7 0.00036
87.75 0.00021
87.8 0.00023
87.85 0.00023
87.9 0.00052
87.95 0.00035
88 0.00018
88.05 0.00025
88.1 -0.00007
88.15 -0.00052
88.2 -0.00108
88.25 -0.00113
88.3 -0.00113
88.35 -0.00127
88.4 -0.00142
88.45 -0.00145
88.5 -0.00161
88.55 -0.0018
88.6 -0.00158
88.65 -0.00117
88.7 -0.00079
88.75 -0.00077
88.8 -0.00064
88.85 -0.00082
88.9 -0.00091
88.95 -0.00081
89 -0.00054
89.05 -0.00044
89.1 -0.00057
89.15 -0.00098
89.2 -0.00112
89.25 -0.00094
89.3 -0.00061
89.35 -0.00004
89.4 0.00001
89.45 0.0002
89.5 0.00012
89.55 0.00042
89.6 0.00062
89.65 0.00066
89.7 0.00032
89.75 0.00017
89.8 -0.00016
89.85 -0.0005
89.9 -0.00054
89.95 -0.00044
90 -0.00049
90.05 -0.00055
90.1 -0.00035
90.15 -0.00025
90.2 -0.00042
90.25 -0.00071
90.3 -0.0012
90.35 -0.00107
90.4 -0.00098
90.45 -0.00065
90.5 -0.00059
90.55 -0.00063
90.6 -0.00051
90.65 -0.00005
90.7 0.00027
90.75 0.00063
90.8 0.00057
90.85 0.00064
90.9 0.00096
90.95 0.0014
91 0.0015
91.05 0.0017
91.1 0.00179
91.15 0.00176
91.2 0.00149
91.25 0.00104
91.3 0.00081
91.35 0.00064
91.4 0.0001
91.45 -0.0005
91.5 -0.00055
91.55 -0.00062
91.6 -0.0007
91.65 -0.00099
91.7 -0.00105
91.75 -0.00079
91.8 -0.00073
91.85 -0.00036
91.9 -0.00004
91.95 0.00019
92 0.00045
92.05 0.00021
92.1 -0.00019
92.15 -0.0004
92.2 -0.00035
92.25 -0.00062
92.3 -0.00107
92.35 -0.00146
92.4 -0.00165
92.45 -0.00162
92.5 -0.00174
92.55 -0.00182
92.6 -0.00141
92.65 -0.00103
92.7 -0.00079
92.75 -0.00074
92.8 -0.00064
92.85 -0.00057
92.9 -0.00063
92.95 -0.00067
93 -0.00036
93.05 -0.00019
93.1 0.00007
93.15 0.0006
93.2 0.00085
93.25 0.00115
93.3 0.00132
93.35 0.00096
93.4 0.00061
93.45 0.00043
93.5 -0.00008
93.55 -0.00033
93.6 -0.00032
93.65 -0.00041
93.7 -0.0003
93.75 0.00013
93.8 0.00075
93.85 0.00082
93.9 0.0007
93.95 0.00044
94 0.00031
94.05 -0.00009
94.1 0.00002
94.15 0.00004
94.2 -0.00009
94.25 -0.00048
94.3 -0.00049
94.35 -0.00032
94.4 -0.00053
94.45 -0.00061
94.5 -0.00034
94.55 0.00007
94.6 0.0006
94.65 0.00101
94.7 0.00091
94.75 0.00105
94.8 0.00078
94.85 0.00067
94.9 0.00091
94.95 0.00073
95 0.00052
95.05 0.00035
95.1 -0.00009
95.15 -0.00026
95.2 0.00001
95.25 -0.00013
95.3 -0.00054
95.35 -0.00096
95.4 -0.00117
95.45 -0.00131
95.5 -0.00119
95.55 -0.00094
95.6 -0.00096
95.65 -0.00097
95.7 -0.00075
95.75 -0.00075
95.8 -0.00064
95.85 -0.00085
95.9 -0.00125
95.95 -0.00149
96 -0.00181
96.05 -0.00157
96.1 -0.0012
96.15 -0.00069
96.2 -0.00047
96.25 -0.0002
96.3 0.00023
96.35 0.00039
96.4 0.0004
96.45 0.00041
96.5 0.00029
96.55 -0.00006
96.6 0.00007
96.65 0.0002
96.7 0.00019
96.75 0
96.8 0.00008
96.85 0.00002
96.9 0.00015
96.95 0.00059
97 0.00071
97.05 0.00067
97.1 0.00024
97.15 0.00018
97.2 0.00022
97.25 0.0003
97.3 0.00035
97.35 0.00072
97.4 0.00112
97.45 0.00152
97.5 0.00182
97.55 0.00157
97.6 0.00147
97.65 0.00146
97.7 0.00133
97.75 0.00136
97.8 0.00101
97.85 0.00054
97.9 0.00029
97.95 0.00009
98 0.00029
98.05 0.00016
98.1 0.00041
98.15 0.00033
98.2 0.00052
98.25 0.00041
98.3 -0.00007
98.35 -0.00072
98.4 -0.00134
98.45 -0.0015
98.5 -0.00153
98.55 -0.00143
98.6 -0.0015
98.65 -0.00132
98.7 -0.00122
98.75 -0.00119
98.8 -0.00075
98.85 -0.00065
98.9 -0.00085
98.95 -0.00079
99 -0.00066
99.05 -0.00062
99.1 -0.00085
99.15 -0.00122
99.2 -0.00102
99.25 -0.00051
99.3 -0.00036
99.35 0.00002
99.4 0.00035
99.45 0.00081
99.5 0.00095
99.55 0.00074
99.6 0.00043
99.65 0.00022
99.7 0.0003
99.75 0.00063
99.8 0.00067
99.85 0.00092
99.9 0.00119
99.95 0.00115
