0 0
0.05 0.00079
0.1 0.00222
0.15 0.00472
0.2 0.00609
0.25 0.00802
0.3 0.00905
0.35 0.01095
0.4 0.01181
0.45 0.01286
0.5 0.01258
0.55 0.01127
0.6 0.00966
0.65 0.00811
0.7 0.00732
0.75 0.0067
0.8 0.00564
0.85 0.00627
0.9 0.00643
0.95 0.00592
1 0.00549
1.05 0.00556
1.1 0.00624
1.15 0.00683
1.2 0.00671
1.25 0.00744
1.3 0.0089
1.35 0.00898
1.4 0.00915
1.45 0.01032
1.5 0.01173
1.55 0.01311
1.6 0.0145
1.65 0.01596
1.7 0.01671
1.75 0.01693
1.8 0.01613
1.85 0.01503
1.9 0.01385
1.95 0.01358
2 0.01247
2.05 0.01115
2.1 0.01026
2.15 0.01031
2.2 0.01045
2.25 0.0096
2.3 0.00912
2.35 0.00797
2.4 0.00788
2.45 0.00827
2.5 0.00851
2.55 0.00948
2.6 0.01008
2.65 0.01096
2.7 0.01027
2.75 0.00973
2.8 0.0083
2.85 0.0067
2.9 0.00477
2.95 0.00463
3 0.00441
3.05 0.0033
3.1 0.00287
3.15 0.00284
3.2 0.00321
3.25 0.00287
3.3 0.0018
3.35 0.00154
3.4 0.0028
3.45 0.00282
3.5 0.00193
3.55 0.0027
3.6 0.0043
3.65 0.00605
3.7 0.00791
3.75 0.0087
3.8 0.00825
3.85 0.00762
3.9 0.00626
3.95 0.00475
4 0.00308
4.05 0.00145
4.1 -0.00042
4.15 -0.00191
4.2 -0.00171
4.25 -0.0007
4.3 0.00043
4.35 0.00156
4.4 0.00307
4.45 0.00367
4.5 0.00506
4.55 0.00643
4.6 0.00699
4.65 0.00716
4.7 0.00628
4.75 0.00555
4.8 0.00596
4.85 0.00578
4.9 0.00514
4.95 0.00501
5 0.00428
5.05 0.00305
5.1 0.00156
5.15 0.00003
5.2 0.0002
5.25 0.00156
5.3 0.0018
5.35 0.0029
5.4 0.00363
5.45 0.00349
5.5 0.00417
5.55 0.00517
5.6 0.00575
5.65 0.00552
5.7 0.00478
5.75 0.00376
5.8 0.00195
5.85 -0.0003
5.9 -0.00197
5.95 -0.00163
6 -0.00029
6.05 0.00023
6.1 0.00188
6.15 0.00265
6.2 0.00314
6.25 0.00374
6.3 0.00328
6.35 0.00293
6.4 0.00312
6.45 0.00313
6.5 0.0025
6.55 0.00104
6.6 0.00021
6.65 0.00029
6.7 0.00159
6.75 0.00169
6.8 0.00159
6.85 0.00201
6.9 0.00326
6.95 0.00301
7 0.00356
7.05 0.00388
7.1 0.00416
7.15 0.00457
7.2 0.00524
7.25 0.00557
7.3 0.00442
7.35 0.00314
7.4 0.00111
7.45 -0.00055
7.5 -0.00227
7.55 -0.00284
7.6 -0.00339
7.65 -0.00232
7.7 -0.00202
7.75 -0.0017
7.8 -0.00215
7.85 -0.00222
7.9 -0.00104
7.95 0.00035
8 0.00247
8.05 0.00443
8.1 0.00437
8.15 0.0037
8.2 0.00312
8.25 0.00227
8.3 0.0006
8.35 -0.00053
8.4 -0.00038
8.45 0.00096
8.5 0.00113
8.55 0.00055
8.6 0.00135
8.65 0.00171
8.7 0.00265
8.75 0.00313
8.8 0.00392
8.85 0.00368
8.9 0.00424
8.95 0.00401
9 0.00277
9.05 0.00099
9.1 0.00037
9.15 -0
9.2 -0.00132
9.25 -0.00261
9.3 -0.00295
9.35 -0.00349
9.4 -0.00318
9.45 -0.00202
9.5 -0.00175
9.55 -0.0022
9.6 -0.00231
9.65 -0.00241
9.7 -0.00203
9.75 -0.00056
9.8 0.00141
9.85 0.00227
9.9 0.00166
9.95 0.00073
10 -0.00016
10.05 -0.00135
10.1 -0.0018
10.15 -0.00153
10.2 -0.00033
10.25 0.00116
10.3 0.00178
10.35 0.00175
10.4 0.00114
10.45 0.00059
10.5 0.0001
10.55 -0.00096
10.6 -0.00222
10.65 -0.00189
10.7 -0.00117
10.75 -0.00126
10.8 -0.0005
10.85 -0.00057
10.9 -0.00004
10.95 0.00068
11 0.00191
11.05 0.00234
11.1 0.00198
11.15 0.0018
11.2 0.00189
11.25 0.00114
11.3 0.0006
11.35 -0.0002
11.4 -0.00141
11.45 -0.00157
11.5 -0.00199
11.55 -0.00163
11.6 -0.00085
11.65 0.00065
11.7 0.00272
11.75 0.00282
11.8 0.00311
11.85 0.0041
11.9 0.0056
11.95 0.00549
12 0.00559
12.05 0.00573
12.1 0.00598
12.15 0.00505
12.2 0.00353
12.25 0.00131
12.3 -0.00009
12.35 -0.00123
12.4 -0.00105
12.45 -0.00101
12.5 -0.00133
12.55 -0.00154
12.6 -0.00151
12.65 -0.00116
12.7 -0.00042
12.75 -0.00062
12.8 -0.00061
12.85 0.00046
12.9 0.00155
12.95 0.00238
13 0.00239
13.05 0.00112
13.1 0.00032
13.15 -0.00018
13.2 0.00045
13.25 0.00141
13.3 0.00131
13.35 0.00004
13.4 -0.00111
13.45 -0.00286
13.5 -0.00464
13.55 -0.00508
13.6 -0.00429
13.65 -0.0028
13.7 -0.00102
13.75 -0.00066
13.8 -0.00136
13.85 -0.0009
13.9 0.00044
13.95 0.00208
14 0.00203
14.05 0.00193
14.1 0.00126
14.15 0.00169
14.2 0.00191
14.25 0.00269
14.3 0.00319
14.35 0.00429
14.4 0.00487
14.45 0.00553
14.5 0.00442
14.55 0.0034
14.6 0.0032
14.65 0.00345
14.7 0.00269
14.75 0.00127
14.8 0.00078
14.85 0.00121
14.9 0.00104
14.95 0.00051
15 0.00124
15.05 0.00074
15.1 0.00049
15.15 -0.00022
15.2 -0.00089
15.25 -0.00091
15.3 -0.0015
15.35 -0.00138
15.4 -0.00215
15.45 -0.00274
15.5 -0.00298
15.55 -0.00285
15.6 -0.0029
15.65 -0.00371
15.7 -0.0033
15.75 -0.00288
15.8 -0.00351
15.85 -0.00285
15.9 -0.00238
15.95 -0.00086
16 0.00087
16.05 0.00236
16.1 0.00266
16.15 0.00217
16.2 0.00104
16.25 -0.00013
16.3 -0.00023
16.35 -0.00066
16.4 -0.00188
16.45 -0.00361
16.5 -0.00463
16.55 -0.005
16.6 -0.00403
16.65 -0.004
16.7 -0.00474
16.75 -0.00516
16.8 -0.0059
16.85 -0.00541
16.9 -0.00413
16.95 -0.00203
17 -0.00051
17.05 -0.00025
17.1 -0.00022
17.15 0.00081
17.2 0.00243
17.25 0.00341
17.3 0.00377
17.35 0.00437
17.4 0.00512
17.45 0.00554
17.5 0.00554
17.55 0.00412
17.6 0.00398
17.65 0.00374
17.7 0.00296
17.75 0.00145
17.8 0.00115
17.85 0.00115
17.9 0.00018
17.95 0
18 -0.0005
18.05 -0.00076
18.1 -0.00095
18.15 -0.00025
18.2 -0.00023
18.25 -0.00107
18.3 -0.00226
18.35 -0.0029
18.4 -0.00298
18.45 -0.0031
18.5 -0.00393
18.55 -0.00333
18.6 -0.00194
18.65 -0.00017
18.7 0.00094
18.75 0.00189
18.8 0.00228
18.85 0.00304
18.9 0.00322
18.95 0.0021
19 0.00063
19.05 -0.00092
19.1 -0.00173
19.15 -0.00315
19.2 -0.00375
19.25 -0.00478
19.3 -0.00463
19.35 -0.0033
19.4 -0.00311
19.45 -0.00173
19.5 -0.00015
19.55 0.00094
19.6 0.00251
19.65 0.00236
19.7 0.00319
19.75 0.00284
19.8 0.00208
19.85 0.00058
19.9 -0.00021
19.95 -0.00037
20 0.00073
20.05 0.00186
20.1 0.00299
20.15 0.00437
20.2 0.0044
20.25 0.00456
20.3 0.00447
20.35 0.00377
20.4 0.00188
20.45 0.00055
20.5 0.00067
20.55 0.00092
20.6 0
20.65 -0.00112
20.7 -0.00259
20.75 -0.00338
20.8 -0.00427
20.85 -0.00462
20.9 -0.00335
20.95 -0.00232
21 -0.00181
21.05 -0.00048
21.1 0.00063
21.15 0.00238
21.2 0.00396
21.25 0.00368
21.3 0.00255
21.35 0.0019
21.4 0.00044
21.45 0.00045
21.5 0.00042
21.55 0.00099
21.6 0.00206
21.65 0.00306
21.7 0.00238
21.75 0.00102
21.8 -0.00065
21.85 -0.00131
21.9 -0.00178
21.95 -0.00303
22 -0.00406
22.05 -0.00535
22.1 -0.00586
22.15 -0.00581
22.2 -0.00477
22.25 -0.0027
22.3 -0.00201
22.35 -0.00163
22.4 -0.0014
22.45 -0.00078
22.5 -0.00078
22.55 -0.00042
22.6 0.00096
22.65 0.00249
22.7 0.0037
22.75 0.00516
22.8 0.00586
22.85 0.00695
22.9 0.00612
22.95 0.00556
23 0.0051
23.05 0.00538
23.1 0.00424
23.15 0.00409
23.2 0.00304
23.25 0.00138
23.3 0.00069
23.35 -0.00021
23.4 -0.00074
23.45 -0.00071
23.5 -0.0004
23.55 0.00081
23.6 0.00101
23.65 0.00142
23.7 0.00086
23.75 0.00044
23.8 0.00064
23.85 0.00017
23.9 0.00093
23.95 0.00219
24 0.00251
24.05 0.00311
24.1 0.00208
24.15 0.00159
24.2 0.0012
24.25 0.0003
24.3 -0.00038
24.35 0.00013
24.4 0.00076
24.45 -0.00012
24.5 -0.00158
24.55 -0.00249
24.6 -0.00364
24.65 -0.00522
24.7 -0.00472
24.75 -0.00416
24.8 -0.00414
24.85 -0.00339
24.9 -0.00205
24.95 -0.00124
25 0.00022
25.05 0.00045
25.1 0.00115
25.15 0.00182
25.2 0.00125
25.25 0.00095
25.3 0.00156
25.35 0.00272
25.4 0.00326
25.45 0.00383
25.5 0.00483
25.55 0.00402
25.6 0.00416
25.65 0.00431
25.7 0.0041
25.75 0.00338
25.8 0.00254
25.85 0.00261
25.9 0.00332
25.95 0.00331
26 0.00321
26.05 0.00186
26.1 0.00137
26.15 0.00012
26.2 -0.00119
26.25 -0.00194
26.3 -0.00215
26.35 -0.00165
26.4 -0.00049
26.45 0.00084
26.5 0.00165
26.55 0.00109
26.6 0.00089
26.65 0.00116
26.7 0.00021
26.75 -0
26.8 -0.0012
26.85 -0.00138
26.9 -0.0018
26.95 -0.00242
27 -0.00307
27.05 -0.00278
27.1 -0.00293
27.15 -0.0035
27.2 -0.00403
27.25 -0.00324
27.3 -0.00174
27.35 0.00023
27.4 0.002
27.45 0.00224
27.5 0.00195
27.55 0.00141
27.6 0.00189
27.65 0.00122
27.7 0.00146
27.75 0.00137
27.8 0.00163
27.85 0.00214
27.9 0.002
27.95 0.00246
28 0.00316
28.05 0.00358
28.1 0.00263
28.15 0.00138
28.2 0.00014
28.25 -0.0015
28.3 -0.00339
28.35 -0.00358
28.4 -0.00274
28.45 -0.00178
28.5 -0.00018
28.55 0.00174
28.6 0.00264
28.65 0.00345
28.7 0.0047
28.75 0.00441
28.8 0.00341
28.85 0.00251
28.9 0.00147
28.95 0.0005
29 0.00083
29.05 0.00034
29.1 -0.00054
29.15 -0.00005
29.2 0.00124
29.25 0.00186
29.3 0.00196
29.35 0.00243
29.4 0.00341
29.45 0.0034
29.5 0.00196
29.55 0.00119
29.6 -0.00039
29.65 -0.00095
29.7 -0.00048
29.75 0.00031
29.8 0.00087
29.85 0.00196
29.9 0.00268
29.95 0.00226
30 0.00087
30.05 -0.00082
30.1 -0.0017
30.15 -0.00259
30.2 -0.00253
30.25 -0.00238
30.3 -0.00252
30.35 -0.00282
30.4 -0.00233
30.45 -0.00268
30.5 -0.00241
30.55 -0.00302
30.6 -0.00296
30.65 -0.00177
30.7 -0.00109
30.75 -0.00105
30.8 -0.00194
30.85 -0.0025
30.9 -0.00175
30.95 -0.00231
31 -0.00254
31.05 -0.00224
31.1 -0.00161
31.15 -0.00164
31.2 -0.00232
31.25 -0.00182
31.3 -0.00215
31.35 -0.00145
31.4 -0.00112
31.45 -0.00205
31.5 -0.0037
31.55 -0.00475
31.6 -0.00464
31.65 -0.00415
31.7 -0.00459
31.75 -0.00572
31.8 -0.00665
31.85 -0.00653
31.9 -0.00647
31.95 -0.00689
32 -0.0058
32.05 -0.0058
32.1 -0.00623
32.15 -0.0067
32.2 -0.00598
32.25 -0.00441
32.3 -0.00406
32.35 -0.00414
32.4 -0.0044
32.45 -0.00424
32.5 -0.00268
32.55 -0.00156
32.6 -0.00115
32.65 -0.00184
32.7 -0.00197
32.75 -0.00214
32.8 -0.00089
32.85 -0.00021
32.9 0.0008
32.95 0.00065
33 -0.00049
33.05 -0.001
33.1 -0.00104
33.15 -0.00075
33.2 0.00066
33.25 0.00258
33.3 0.00265
33.35 0.00248
33.4 0.00157
33.45 0.00184
33.5 0.00145
33.55 0.00049
33.6 -0.0003
33.65 0.00021
33.7 0.00003
33.75 -0.00117
33.8 -0.00222
33.85 -0.00371
33.9 -0.0036
33.95 -0.00388
34 -0.00385
34.05 -0.00438
34.1 -0.00462
34.15 -0.00372
34.2 -0.00373
34.25 -0.00233
34.3 -0.00179
34.35 -0.00218
34.4 -0.00196
34.45 -0.00077
34.5 0.00037
34.55 0.00164
34.6 0.00333
34.65 0.00389
34.7 0.00388
34.75 0.00322
34.8 0.00337
34.85 0.00241
34.9 0.00067
34.95 -0.00036
35 -0.00094
35.05 -0.00019
35.1 0.00012
35.15 0.00059
35.2 0.0016
35.25 0.00256
35.3 0.00323
35.35 0.00274
35.4 0.00324
35.45 0.00246
35.5 0.00121
35.55 0.00055
35.6 0.00088
35.65 0.00151
35.7 0.00222
35.75 0.00285
35.8 0.00295
35.85 0.00206
35.9 0.00144
35.95 0.00022
36 0.0005
36.05 0.00081
36.1 0.00003
36.15 0.00006
36.2 0.00002
36.25 0.00102
36.3 0.00166
36.35 0.00237
36.4 0.00343
36.45 0.00321
36.5 0.0023
36.55 0.00248
36.6 0.00286
36.65 0.00351
36.7 0.00387
36.75 0.00369
36.8 0.00283
36.85 0.00149
36.9 0.00076
36.95 0.00099
37 0.0011
37.05 0.00196
37.1 0.00207
37.15 0.0015
37.2 0.00197
37.25 0.00317
37.3 0.00311
37.35 0.00236
37.4 0.00252
37.45 0.0032
37.5 0.00221
37.55 0.00084
37.6 0.00079
37.65 0.00131
37.7 0.00126
37.75 0.00124
37.8 0.00023
37.85 -0.00043
37.9 -0.00047
37.95 0.00025
38 0.00004
38.05 -0.00126
38.1 -0.00202
38.15 -0.00177
38.2 -0.00225
38.25 -0.00173
38.3 -0.00202
38.35 -0.00175
38.4 -0.00064
38.45 0.00009
38.5 0.00038
38.55 -0.00025
38.6 -0.0014
38.65 -0.00175
38.7 -0.00166
38.75 -0.00211
38.8 -0.00344
38.85 -0.00295
38.9 -0.00219
38.95 -0.00154
39 -0.00217
39.05 -0.00252
39.1 -0.00208
39.15 -0.00193
39.2 -0.00192
39.25 -0.00078
39.3 0.00057
39.35 0.00038
39.4 -0.00011
39.45 -0.00004
39.5 -0.00063
39.55 -0.00001
39.6 -0.0008
39.65 -0.00105
39.7 -0.0001
39.75 -0.00031
39.8 0.00042
39.85 0.00014
39.9 0.00082
39.95 0.00133
40 0.00225
40.05 0.00371
40.1 0.00433
40.15 0.00416
40.2 0.00445
40.25 0.0031
40.3 0.00222
40.35 0.0017
40.4 0.00168
40.45 0.00084
40.5 0.0006
40.55 0.00032
40.6 -0.00023
40.65 -0.00142
40.7 -0.00109
40.75 -0.00034
40.8 -0.001
40.85 -0.00027
40.9 0.00063
40.95 0.00192
41 0.00154
41.05 0.00173
41.1 0.00222
41.15 0.00168
41.2 0.00001
41.25 -0.00204
41.3 -0.00347
41.35 -0.00359
41.4 -0.00332
41.45 -0.00387
41.5 -0.00405
41.55 -0.00319
41.6 -0.00324
41.65 -0.00395
41.7 -0.00425
41.75 -0.00335
41.8 -0.00291
41.85 -0.00257
41.9 -0.00316
41.95 -0.00242
42 -0.0025
42.05 -0.00276
42.1 -0.00179
42.15 -0.00075
42.2 -0.00086
42.25 -0.00074
42.3 -0.00039
42.35 0.00065
42.4 0.00175
42.45 0.00216
42.5 0.00284
42.55 0.00217
42.6 0.00123
42.65 -0.00048
42.7 -0.00267
42.75 -0.00363
42.8 -0.00317
42.85 -0.00164
42.9 -0.00034
42.95 0.0015
43 0.00211
43.05 0.00278
43.1 0.00299
43.15 0.00319
43.2 0.00374
43.25 0.00405
43.3 0.00343
43.35 0.00164
43.4 0.00086
43.45 0.00025
43.5 0.00084
43.55 0.00124
43.6 0.00033
43.65 -0.00033
43.7 -0.0019
43.75 -0.00183
43.8 -0.00219
43.85 -0.00251
43.9 -0.00248
43.95 -0.00145
44 0.00008
44.05 0.00026
44.1 -0.00032
44.15 -0.0004
44.2 -0.00076
44.25 -0.00028
44.3 -0.00063
44.35 0.00003
44.4 0.00013
44.45 0.00112
44.5 0.00251
44.55 0.00219
44.6 0.00136
44.65 0.00154
44.7 0.00159
44.75 0.00072
44.8 -0.00026
44.85 -0.00168
44.9 -0.00337
44.95 -0.00375
45 -0.00308
45.05 -0.00152
45.1 -0.00032
45.15 0.00079
45.2 0.00032
45.25 0.00026
45.3 0.00002
45.35 0.00087
45.4 0.00211
45.45 0.00331
45.5 0.00305
45.55 0.00158
45.6 0.00023
45.65 -0.00008
45.7 -0.00098
45.75 -0.00072
45.8 -0.00071
45.85 -0.00053
45.9 -0.00033
45.95 0.00088
46 0.00046
46.05 -0.001
46.1 -0.00267
46.15 -0.00456
46.2 -0.00489
46.25 -0.00411
46.3 -0.0039
46.35 -0.00375
46.4 -0.00253
46.45 -0.00245
46.5 -0.00226
46.55 -0.00253
46.6 -0.00186
46.65 -0.00155
46.7 -0.00107
46.75 -0.00181
46.8 -0.00205
46.85 -0.00223
46.9 -0.00145
46.95 -0.00187
47 -0.00161
47.05 -0.00146
47.1 -0.00086
47.15 0.00005
47.2 0.00066
47.25 -0.00015
47.3 -0.00168
47.35 -0.0025
47.4 -0.0027
47.45 -0.00348
47.5 -0.003
47.55 -0.00143
47.6 0.00082
47.65 0.00123
47.7 0.0024
47.75 0.00181
47.8 0.00227
47.85 0.0032
47.9 0.00248
47.95 0.00185
48 0.00239
48.05 0.00335
48.1 0.00383
48.15 0.00291
48.2 0.00223
48.25 0.0007
48.3 -0.00042
48.35 -0.00196
48.4 -0.00249
48.45 -0.00178
48.5 -0.00091
48.55 0.00017
48.6 -0.00018
48.65 -0.00064
48.7 -0.00048
48.75 -0.00143
48.8 -0.00251
48.85 -0.00266
48.9 -0.00178
48.95 -0.00169
49 -0.0004
49.05 -0.00041
49.1 -0.00048
49.15 -0.00113
49.2 -0.00091
49.25 0.0003
49.3 0.00163
49.35 0.00201
49.4 0.00096
49.45 -0.00055
49.5 -0.00051
49.55 0.00054
49.6 0.00085
49.65 -0.00011
49.7 -0.00108
49.75 -0.00064
49.8 0.00047
49.85 0.00025
49.9 -0.0009
49.95 -0.0023
50 -0.00363
50.05 -0.00308
50.1 -0.00267
50.15 -0.00301
50.2 -0.00386
50.25 -0.00337
50.3 -0.00346
50.35 -0.0028
50.4 -0.00201
50.45 -0.0015
50.5 -0.00164
50.55 -0.00134
50.6 -0.00171
50.65 -0.00181
50.7 -0.00062
50.75 0.00009
50.8 0.00168
50.85 0.00301
50.9 0.00456
50.95 0.00441
51 0.00409
51.05 0.00418
51.1 0.00372
51.15 0.00402
51.2 0.00356
51.25 0.00244
51.3 0.00267
51.35 0.00181
51.4 0.00138
51.45 0.00032
51.5 -0.00045
51.55 -0.0017
51.6 -0.00223
51.65 -0.00205
51.7 -0.00084
51.75 -0.00043
51.8 0.00062
51.85 0.00019
51.9 0.00102
51.95 0.00058
52 0.00035
52.05 -0.00027
52.1 -0.00032
52.15 -0.00094
52.2 -0.00233
52.25 -0.00274
52.3 -0.00377
52.35 -0.0048
52.4 -0.00471
52.45 -0.00455
52.5 -0.00472
52.55 -0.00426
52.6 -0.0036
52.65 -0.00297
52.7 -0.00332
52.75 -0.00249
52.8 -0.00111
52.85 -0.00117
52.9 -0.00065
52.95 -0.00129
53 -0.00237
53.05 -0.00183
53.1 -0.00219
53.15 -0.00218
53.2 -0.00116
53.25 0.00066
53.3 0.00204
53.35 0.00171
53.4 0.00235
53.45 0.00171
53.5 0.00147
53.55 0.00145
53.6 0.00024
53.65 -0.00152
53.7 -0.00254
53.75 -0.00315
53.8 -0.00414
53.85 -0.00489
53.9 -0.0044
53.95 -0.00444
54 -0.0047
54.05 -0.00395
54.1 -0.00357
54.15 -0.00272
54.2 -0.00205
54.25 -0.00073
54.3 0.00076
54.35 0.00226
54.4 0.00198
54.45 0.00238
54.5 0.00238
54.55 0.00226
54.6 0.00281
54.65 0.00379
54.7 0.00327
54.75 0.00334
54.8 0.00244
54.85 0.00174
54.9 0.00125
54.95 0.00047
55 -0.00011
55.05 -0.00116
55.1 -0.00156
55.15 -0.00268
55.2 -0.00387
55.25 -0.00326
55.3 -0.00208
55.35 -0.00083
55.4 -0.00004
55.45 0.00006
55.5 0.00119
55.55 0.00187
55.6 0.00164
55.65 0.00063
55.7 0.00073
55.75 0.00018
55.8 -0.00122
55.85 -0.00249
55.9 -0.00281
55.95 -0.00183
56 -0.00079
56.05 -0.00038
56.1 -0.00018
56.15 0.00037
56.2 0.00084
56.25 0.00041
56.3 -0.00097
56.35 -0.00147
56.4 -0.00071
56.45 -0.00063
56.5 -0.00106
56.55 -0.00203
56.6 -0.00317
56.65 -0.00358
56.7 -0.00306
56.75 -0.00234
56.8 -0.00126
56.85 0.00006
56.9 0.00159
56.95 0.00293
57 0.00345
57.05 0.00451
57.1 0.00407
57.15 0.00342
57.2 0.00239
57.25 0.00128
57.3 0.0001
57.35 -0.0003
57.4 0.00029
57.45 0.00162
57.5 0.00157
57.55 0.00199
57.6 0.00238
57.65 0.00249
57.7 0.00213
57.75 0.00128
57.8 -0
57.85 -0.00069
57.9 -0.00111
57.95 -0.00224
58 -0.00217
58.05 -0.00211
58.1 -0.00271
58.15 -0.00346
58.2 -0.00325
58.25 -0.00297
58.3 -0.00157
58.35 -0.00002
58.4 0.00164
58.45 0.00365
58.5 0.00495
58.55 0.00628
58.6 0.00768
58.65 0.00703
58.7 0.00629
58.75 0.00476
58.8 0.00449
58.85 0.00415
58.9 0.00458
58.95 0.00484
59 0.00382
59.05 0.0036
59.1 0.00308
59.15 0.0016
59.2 0.00098
59.25 -0.00061
59.3 -0.00204
59.35 -0.00216
59.4 -0.00195
59.45 -0.00071
59.5 0.0001
59.55 -0.00034
59.6 0.00016
59.65 0.00048
59.7 0.0016
59.75 0.00168
59.8 0.00272
59.85 0.00408
59.9 0.00364
59.95 0.00346
60 0.00196
60.05 0.001
60.1 -0.00074
60.15 -0.00203
60.2 -0.00199
60.25 -0.00237
60.3 -0.0033
60.35 -0.0043
60.4 -0.0057
60.45 -0.00584
60.5 -0.00512
60.55 -0.00371
60.6 -0.00278
60.65 -0.00221
60.7 -0.00097
60.75 0.00038
60.8 0.00054
60.85 0.00094
60.9 0.00096
60.95 0.00002
61 -0.00144
61.05 -0.00314
61.1 -0.00332
61.15 -0.00375
61.2 -0.00382
61.25 -0.00448
61.3 -0.00461
61.35 -0.0044
61.4 -0.00342
61.45 -0.00132
61.5 -0.00023
61.55 -0.00037
61.6 0.00058
61.65 0.00132
61.7 0.00134
61.75 0.00051
61.8 -0.00025
61.85 -0.00142
61.9 -0.00276
61.95 -0.00423
62 -0.00535
62.05 -0.00474
62.1 -0.00357
62.15 -0.00185
62.2 -0.00091
62.25 -0.00062
62.3 -0.00071
62.35 -0.0003
62.4 -0.00003
62.45 0.0003
62.5 0.00045
62.55 0.00016
62.6 0.00031
62.65 -0.00041
62.7 -0.00127
62.75 -0.00131
62.8 -0.00175
62.85 -0.00247
62.9 -0.00224
62.95 -0.00123
63 -0.00005
63.05 0.00127
63.1 0.00139
63.15 0.0012
63.2 0.00174
63.25 0.00301
63.3 0.00464
63.35 0.00568
63.4 0.00612
63.45 0.00494
63.5 0.0048
63.55 0.00487
63.6 0.00334
63.65 0.00184
63.7 0.00143
63.75 0.0005
63.8 -0.00167
63.85 -0.00447
63.9 -0.00738
63.95 -0.00973
64 -0.01189
64.05 -0.01293
64.1 -0.01347
64.15 -0.0141
64.2 -0.01646
64.25 -0.02088
64.3 -0.02671
64.35 -0.03324
64.4 -0.03948
64.45 -0.04648
64.5 -0.05333
64.55 -0.0623
64.6 -0.07227
64.65 -0.08455
64.7 -0.09779
64.75 -0.11285
64.8 -0.12985
64.85 -0.14915
64.9 -0.16905
64.95 -0.1912
65 -0.21382
65.05 -0.2391
65.1 -0.26703
65.15 -0.29706
65.2 -0.32722
65.25 -0.35867
65.3 -0.39122
65.35 -0.42572
65.4 -0.46145
65.45 -0.49721
65.5 -0.53276
65.55 -0.56661
65.6 -0.59813
65.65 -0.62916
65.7 -0.65853
65.75 -0.68367
65.8 -0.70649
65.85 -0.72615
65.9 -0.74072
65.95 -0.75044
66 -0.75448
66.05 -0.75454
66.1 -0.74937
66.15 -0.74011
66.2 -0.72442
66.25 -0.70217
66.3 -0.67465
66.35 -0.64117
66.4 -0.60301
66.45 -0.56146
66.5 -0.51666
66.55 -0.46809
66.6 -0.41529
66.65 -0.36069
66.7 -0.30535
66.75 -0.24748
66.8 -0.18875
66.85 -0.12999
66.9 -0.07157
66.95 -0.01492
67 0.04003
67.05 0.09171
67.1 0.14041
67.15 0.18534
67.2 0.22831
67.25 0.26733
67.3 0.30433
67.35 0.33896
67.4 0.36967
67.45 0.39621
67.5 0.41921
67.55 0.43905
67.6 0.4566
67.65 0.47138
67.7 0.48446
67.75 0.49612
67.8 0.50569
67.85 0.51394
67.9 0.52093
67.95 0.52641
68 0.53145
68.05 0.53499
68.1 0.53701
68.15 0.53776
68.2 0.53948
68.25 0.5413
68.3 0.54232
68.35 0.5425
68.4 0.54232
68.45 0.54147
68.5 0.54082
68.55 0.53857
68.6 0.53617
68.65 0.5336
68.7 0.53078
68.75 0.5275
68.8 0.52261
68.85 0.51721
68.9 0.51038
68.95 0.50159
69 0.49367
69.05 0.48499
69.1 0.47636
69.15 0.46704
69.2 0.45666
69.25 0.44621
69.3 0.43525
69.35 0.42464
69.4 0.413
69.45 0.40163
69.5 0.3906
69.55 0.37926
69.6 0.36831
69.65 0.3578
69.7 0.34696
69.75 0.33642
69.8 0.32614
69.85 0.31533
69.9 0.3038
69.95 0.29159
70 0.27887
70.05 0.26628
70.1 0.25501
70.15 0.24321
70.2 0.23183
70.25 0.22208
70.3 0.21248
70.35 0.2037
70.4 0.19355
70.45 0.18257
70.5 0.17303
70.55 0.16314
70.6 0.15341
70.65 0.14423
70.7 0.13618
70.75 0.12831
70.8 0.12123
70.85 0.11448
70.9 0.10841
70.95 0.10066
71 0.09352
71.05 0.08643
71.1 0.07956
71.15 0.07148
71.2 0.06401
71.25 0.05595
71.3 0.04857
71.35 0.04169
71.4 0.0354
71.45 0.02821
71.5 0.0218
71.55 0.01671
71.6 0.01162
71.65 0.0066
71.7 0.00109
71.75 -0.00326
71.8 -0.00769
71.85 -0.01203
71.9 -0.01731
71.95 -0.02243
72 -0.02825
72.05 -0.03309
72.1 -0.03713
72.15 -0.04104
72.2 -0.04389
72.25 -0.04757
72.3 -0.05033
72.35 -0.05218
72.4 -0.05353
72.45 -0.05477
72.5 -0.05753
72.55 -0.06053
72.6 -0.06323
72.65 -0.06629
72.7 -0.06925
72.75 -0.07106
72.8 -0.0731
72.85 -0.07634
72.9 -0.07909
72.95 -0.08114
73 -0.08203
73.05 -0.08237
73.1 -0.0822
73.15 -0.0829
73.2 -0.08457
73.25 -0.08586
73.3 -0.08803
73.35 -0.08859
73.4 -0.08847
73.45 -0.08782
73.5 -0.08842
73.55 -0.08868
73.6 -0.08816
73.65 -0.08762
73.7 -0.08692
73.75 -0.08695
73.8 -0.08741
73.85 -0.08859
73.9 -0.08954
73.95 -0.08994
74 -0.0892
74.05 -0.08925
74.1 -0.08778
74.15 -0.08567
74.2 -0.08496
74.25 -0.08507
74.3 -0.08349
74.35 -0.08093
74.4 -0.07846
74.45 -0.07649
74.5 -0.07559
74.55 -0.07577
74.6 -0.07537
74.65 -0.07457
74.7 -0.07458
74.75 -0.07349
74.8 -0.07218
74.85 -0.07173
74.9 -0.07177
74.95 -0.07166
75 -0.07025
75.05 -0.06855
75.1 -0.06816
75.15 -0.06654
75.2 -0.06518
75.25 -0.06428
75.3 -0.06346
75.35 -0.06189
75.4 -0.06053
75.45 -0.05896
75.5 -0.05778
75.55 -0.05639
75.6 -0.05498
75.65 -0.05511
75.7 -0.05512
75.75 -0.05519
75.8 -0.0543
75.85 -0.05439
75.9 -0.05404
75.95 -0.05437
76 -0.05462
76.05 -0.05336
76.1 -0.05211
76.15 -0.05135
76.2 -0.05066
76.25 -0.04867
76.3 -0.04638
76.35 -0.04569
76.4 -0.0454
76.45 -0.04454
76.5 -0.04277
76.55 -0.04132
76.6 -0.03944
76.65 -0.03897
76.7 -0.03956
76.75 -0.04052
76.8 -0.04161
76.85 -0.04165
76.9 -0.04155
76.95 -0.0412
77 -0.04041
77.05 -0.03967
77.1 -0.03772
77.15 -0.03563
77.2 -0.03297
77.25 -0.0301
77.3 -0.02891
77.35 -0.02888
77.4 -0.02863
77.45 -0.02932
77.5 -0.02989
77.55 -0.03076
77.6 -0.03097
77.65 -0.03087
77.7 -0.03021
77.75 -0.02864
77.8 -0.02715
77.85 -0.02603
77.9 -0.02573
77.95 -0.02447
78 -0.02462
78.05 -0.02529
78.1 -0.02629
78.15 -0.02722
78.2 -0.02715
78.25 -0.02604
78.3 -0.02573
78.35 -0.02583
78.4 -0.02549
78.45 -0.02608
78.5 -0.02506
78.55 -0.02351
78.6 -0.0235
78.65 -0.02242
78.7 -0.02203
78.75 -0.02138
78.8 -0.02018
78.85 -0.01954
78.9 -0.0185
78.95 -0.01747
79 -0.01658
79.05 -0.01649
79.1 -0.01613
79.15 -0.01703
79.2 -0.01686
79.25 -0.01766
79.3 -0.01724
79.35 -0.01593
79.4 -0.01542
79.45 -0.01589
79.5 -0.01628
79.55 -0.01652
79.6 -0.01647
79.65 -0.01684
79.7 -0.01734
79.75 -0.01678
79.8 -0.01643
79.85 -0.01608
79.9 -0.01548
79.95 -0.01503
80 -0.01361
80.05 -0.0126
80.1 -0.01313
80.15 -0.01304
80.2 -0.01316
80.25 -0.01297
80.3 -0.01203
80.35 -0.01114
80.4 -0.01116
80.45 -0.01106
80.5 -0.01198
80.55 -0.01256
80.6 -0.01247
80.65 -0.01252
80.7 -0.01161
80.75 -0.0103
80.8 -0.00914
80.85 -0.0097
80.9 -0.01117
80.95 -0.01095
81 -0.01091
81.05 -0.01098
81.1 -0.01052
81.15 -0.00916
81.2 -0.00888
81.25 -0.00785
81.3 -0.00672
81.35 -0.00613
81.4 -0.00502
81.45 -0.0043
81.5 -0.00444
81.55 -0.0052
81.6 -0.00534
81.65 -0.0055
81.7 -0.00514
81.75 -0.00501
81.8 -0.00562
81.85 -0.00657
81.9 -0.00631
81.95 -0.00714
82 -0.00692
82.05 -0.00754
82.1 -0.00814
82.15 -0.00745
82.2 -0.00632
82.25 -0.00463
82.3 -0.0031
82.35 -0.00196
82.4 -0.00239
82.45 -0.00389
82.5 -0.00438
82.55 -0.00528
82.6 -0.00581
82.65 -0.00528
82.7 -0.00466
82.75 -0.00402
82.8 -0.00286
82.85 -0.00219
82.9 -0.00279
82.95 -0.00294
83 -0.0036
83.05 -0.00527
83.1 -0.00746
83.15 -0.00842
83.2 -0.00946
83.25 -0.00906
83.3 -0.00865
83.35 -0.00924
83.4 -0.00852
83.45 -0.00898
83.5 -0.01012
83.55 -0.00984
83.6 -0.00926
83.65 -0.00853
83.7 -0.0067
83.75 -0.00522
83.8 -0.00384
83.85 -0.00303
83.9 -0.00322
83.95 -0.00281
84 -0.003
84.05 -0.00297
84.1 -0.00255
84.15 -0.0028
84.2 -0.00249
84.25 -0.00182
84.3 -0.00072
84.35 -0.0013
84.4 -0.00232
84.45 -0.00226
84.5 -0.0026
84.55 -0.0023
84.6 -0.00243
84.65 -0.00313
84.7 -0.004
84.75 -0.0049
84.8 -0.00633
84.85 -0.00804
84.9 -0.00829
84.95 -0.00777
85 -0.00711
85.05 -0.00627
85.1 -0.00523
85.15 -0.00556
85.2 -0.00533
85.25 -0.0055
85.3 -0.00506
85.35 -0.00507
85.4 -0.00386
85.45 -0.00252
85.5 -0.00113
85.55 -0.00098
85.6 -0.0014
85.65 -0.00073
85.7 -0.00054
85.75 -0.0003
85.8 -0.00068
85.85 -0.00176
85.9 -0.00342
85.95 -0.00454
86 -0.00477
86.05 -0.00408
86.1 -0.00433
86.15 -0.00551
86.2 -0.00656
86.25 -0.00615
86.3 -0.00654
86.35 -0.0069
86.4 -0.00586
86.45 -0.00541
86.5 -0.00401
86.55 -0.00401
86.6 -0.00452
86.65 -0.00473
86.7 -0.00383
86.75 -0.0021
86.8 -0.00035
86.85 0.0006
86.9 0.0018
86.95 0.00309
87 0.00289
87.05 0.00153
87.1 0.00103
87.15 0.00135
87.2 0.00087
87.25 0.0014
87.3 0.00152
87.35 0.00015
87.4 0.00003
87.45 -0.00009
87.5 -0.00014
87.55 -0.0002
87.6 -0.00154
87.65 -0.00306
87.7 -0.00315
87.75 -0.00269
87.8 -0.00314
87.85 -0.00408
87.9 -0.00374
87.95 -0.00281
88 -0.00283
88.05 -0.00371
88.1 -0.00527
88.15 -0.00616
88.2 -0.00612
88.25 -0.00658
88.3 -0.00561
88.35 -0.00545
88.4 -0.00592
88.45 -0.00514
88.5 -0.0047
88.55 -0.00417
88.6 -0.00434
88.65 -0.00307
88.7 -0.00262
88.75 -0.00295
88.8 -0.00291
88.85 -0.00214
88.9 -0.00054
88.95 -0.00003
89 -0.00088
89.05 -0.00193
89.1 -0.00328
89.15 -0.0046
89.2 -0.00547
89.25 -0.00628
89.3 -0.00743
89.35 -0.00771
89.4 -0.00796
89.45 -0.00744
89.5 -0.00767
89.55 -0.00758
89.6 -0.00699
89.65 -0.00626
89.7 -0.00546
89.75 -0.00363
89.8 -0.00198
89.85 -0.00016
89.9 0.00183
89.95 0.00207
90 0.00235
90.05 0.00275
90.1 0.00317
90.15 0.00369
90.2 0.00438
90.25 0.00381
90.3 0.00246
90.35 0.00246
90.4 0.00215
90.45 0.00281
90.5 0.00281
90.55 0.00294
90.6 0.00283
90.65 0.00256
90.7 0.00296
90.75 0.00203
90.8 0.00103
90.85 0.00014
90.9 -0.00089
90.95 -0.0012
91 -0.00186
91.05 -0.00268
91.1 -0.00379
91.15 -0.00475
91.2 -0.00469
91.25 -0.00489
91.3 -0.00495
91.35 -0.00475
91.4 -0.00536
91.45 -0.00565
91.5 -0.00636
91.55 -0.00609
91.6 -0.00439
91.65 -0.00292
91.7 -0.00147
91.75 0.00008
91.8 0.00012
91.85 -0.00091
91.9 -0.00121
91.95 -0.00194
92 -0.00243
92.05 -0.003
92.1 -0.00249
92.15 -0.003
92.2 -0.00201
92.25 -0.00058
92.3 0.00049
92.35 0.00004
92.4 -0.00096
92.45 -0.00237
92.5 -0.00271
92.55 -0.00333
92.6 -0.00399
92.65 -0.00467
92.7 -0.00452
92.75 -0.00326
92.8 -0.00216
92.85 -0.00021
92.9 0.00222
92.95 0.00271
93 0.00378
93.05 0.00314
93.1 0.00196
93.15 0.00079
93.2 -0.00066
93.25 -0.00244
93.3 -0.0022
93.35 -0.00185
93.4 -0.00045
93.45 0.00009
93.5 0.00085
93.55 0.00036
93.6 -0.00066
93.65 -0.00168
93.7 -0.0027
93.75 -0.0024
93.8 -0.00078
93.85 0.00072
93.9 0.0027
93.95 0.00275
94 0.00213
94.05 0.00049
94.1 -0.00071
94.15 -0.00083
94.2 -0.00097
94.25 -0.00066
94.3 0.00066
94.35 0.00233
94.4 0.00422
94.45 0.00506
94.5 0.00525
94.55 0.00415
94.6 0.00325
94.65 0.00266
94.7 0.00146
94.75 0.00024
94.8 -0.00093
94.85 -0.00212
94.9 -0.00241
94.95 -0.002
95 -0.00259
95.05 -0.00257
95.1 -0.00307
95.15 -0.00368
95.2 -0.00446
95.25 -0.00494
95.3 -0.00435
95.35 -0.00299
95.4 -0.00129
95.45 -0.00057
95.5 0.001
95.55 0.00175
95.6 0.00102
95.65 0.00131
95.7 0.00137
95.75 0.00157
95.8 0.00133
95.85 0.00167
95.9 0.00199
95.95 0.00317
96 0.00394
96.05 0.00343
96.1 0.00348
96.15 0.00387
96.2 0.00304
96.25 0.0017
96.3 0.00129
96.35 0.00141
96.4 0.00117
96.45 0.00203
96.5 0.00279
96.55 0.00272
96.6 0.0025
96.65 0.0011
96.7 -0.00049
96.75 -0.00165
96.8 -0.00208
96.85 -0.00133
96.9 -0.00112
96.95 -0.00108
97 -0.00101
97.05 -0.00084
97.1 0.00038
97.15 0.00029
97.2 -0.00048
97.25 -0.00029
97.3 0.00031
97.35 0.00105
97.4 0.00213
97.45 0.00293
97.5 0.00353
97.55 0.00362
97.6 0.00416
97.65 0.00434
97.7 0.00485
97.75 0.00559
97.8 0.00586
97.85 0.00597
97.9 0.00575
97.95 0.00492
98 0.00367
98.05 0.00223
98.1 0.00016
98.15 -0.00162
98.2 -0.00318
98.25 -0.00505
98.3 -0.00659
98.35 -0.00775
98.4 -0.00713
98.45 -0.00731
98.5 -0.00724
98.55 -0.00683
98.6 -0.00623
98.65 -0.00476
98.7 -0.00284
98.75 -0.00175
98.8 -0.00057
98.85 -0.00019
98.9 -0.00034
98.95 0.00065
99 0.00195
99.05 0.00148
99.1 0.00145
99.15 0.00027
99.2 0.00006
99.25 -0.00008
99.3 -0.00129
99.35 -0.00265
99.4 -0.0032
99.45 -0.00331
99.5 -0.00413
99.55 -0.00527
99.6 -0.00656
99.65 -0.00719
99.7 -0.00687
99.75 -0.00632
99.8 -0.00433
99.85 -0.00255
99.9 -0.00066
99.95 -0.00018
