0 0
0.05 0.00042
0.1 0.00108
0.15 0.00171
0.2 0.00227
0.25 0.00307
0.3 0.00368
0.35 0.00448
0.4 0.00522
0.45 0.00566
0.5 0.00608
0.55 0.00647
0.6 0.0064
0.65 0.00586
0.7 0.00533
0.75 0.0046
0.8 0.00383
0.85 0.00368
0.9 0.00362
0.95 0.00369
1 0.0038
1.05 0.00361
1.1 0.00313
1.15 0.00282
1.2 0.00237
1.25 0.00211
1.3 0.00234
1.35 0.00289
1.4 0.00336
1.45 0.00363
1.5 0.00416
1.55 0.00456
1.6 0.00451
1.65 0.00452
1.7 0.00457
1.75 0.00478
1.8 0.00484
1.85 0.00509
1.9 0.00483
1.95 0.00426
2 0.00341
2.05 0.00294
2.1 0.00244
2.15 0.00229
2.2 0.00259
2.25 0.00276
2.3 0.00319
2.35 0.00375
2.4 0.00407
2.45 0.00429
2.5 0.00416
2.55 0.00405
2.6 0.00353
2.65 0.00314
2.7 0.00276
2.75 0.00217
2.8 0.00188
2.85 0.00182
2.9 0.0021
2.95 0.00231
3 0.00259
3.05 0.00278
3.1 0.00312
3.15 0.00284
3.2 0.00283
3.25 0.00301
3.3 0.00273
3.35 0.00219
3.4 0.0016
3.45 0.00081
3.5 -0.00006
3.55 -0.00074
3.6 -0.00141
3.65 -0.00152
3.7 -0.00107
3.75 -0.00096
3.8 -0.00096
3.85 -0.00064
3.9 -0.00052
3.95 -0.00058
4 -0.0004
4.05 0.00005
4.1 0.00031
4.15 0.00042
4.2 0.00085
4.25 0.00152
4.3 0.00207
4.35 0.00219
4.4 0.0023
4.45 0.00243
4.5 0.00268
4.55 0.00275
4.6 0.00291
4.65 0.00308
4.7 0.00305
4.75 0.00269
4.8 0.00249
4.85 0.00245
4.9 0.00201
4.95 0.002
5 0.00184
5.05 0.00198
5.1 0.00224
5.15 0.00253
5.2 0.00249
5.25 0.00233
5.3 0.00172
5.35 0.00088
5.4 0.00037
5.45 -0.0002
5.5 -0.0008
5.55 -0.00096
5.6 -0.00124
5.65 -0.00118
5.7 -0.00117
5.75 -0.0014
5.8 -0.00158
5.85 -0.00161
5.9 -0.00167
5.95 -0.0019
6 -0.00197
6.05 -0.0018
6.1 -0.00146
6.15 -0.00116
6.2 -0.00115
6.25 -0.00113
6.3 -0.00084
6.35 -0.00078
6.4 -0.00021
6.45 0.0006
6.5 0.00125
6.55 0.00143
6.6 0.00136
6.65 0.0014
6.7 0.0016
6.75 0.00195
6.8 0.00191
6.85 0.00144
6.9 0.00092
6.95 0.00064
7 0.00043
7.05 0.00005
7.1 0.00012
7.15 0.00058
7.2 0.00098
7.25 0.00105
7.3 0.00109
7.35 0.0011
7.4 0.00129
7.45 0.001
7.5 0.00088
7.55 0.00049
7.6 0.00023
7.65 0.00018
7.7 -0.00022
7.75 -0.00057
7.8 -0.00071
7.85 -0.00042
7.9 -0.00055
7.95 -0.00092
8 -0.00067
8.05 -0.00006
8.1 0.00016
8.15 0.00062
8.2 0.00077
8.25 0.00098
8.3 0.00136
8.35 0.00176
8.4 0.00198
8.45 0.00221
8.5 0.00206
8.55 0.00197
8.6 0.00166
8.65 0.00109
8.7 0.00042
8.75 0.00002
8.8 -0.0004
8.85 -0.00022
8.9 0.00023
8.95 0.00012
9 0.00044
9.05 0.00049
9.1 0.00033
9.15 0.00026
9.2 0.0005
9.25 0.00052
9.3 0.00061
9.35 0.00068
9.4 0.00082
9.45 0.00107
9.5 0.00076
9.55 0.00068
9.6 0.00022
9.65 -0.00045
9.7 -0.00059
9.75 -0.0004
9.8 -0
9.85 0.00025
9.9 0.00036
9.95 0.00068
10 0.00121
10.05 0.0011
10.1 0.00119
10.15 0.00103
10.2 0.00116
10.25 0.00081
10.3 0.00032
10.35 -0.00035
10.4 -0.00059
10.45 -0.00097
10.5 -0.00143
10.55 -0.00125
10.6 -0.00139
10.65 -0.00096
10.7 -0.00083
10.75 -0.00027
10.8 0.00017
10.85 0.00031
10.9 0.00011
10.95 0.00024
11 0.00019
11.05 0.00043
11.1 0.00043
11.15 0.0004
11.2 0.00024
11.25 0.00048
11.3 0.00086
11.35 0.0013
11.4 0.00135
11.45 0.00151
11.5 0.00172
11.55 0.00179
11.6 0.002
11.65 0.00186
11.7 0.00151
11.75 0.00137
11.8 0.00125
11.85 0.00108
11.9 0.00074
11.95 0.00035
12 0.00042
12.05 0.00021
12.1 0.00043
12.15 0.00061
12.2 0.001
12.25 0.00143
12.3 0.00143
12.35 0.00109
12.4 0.00107
12.45 0.00064
12.5 0.00042
12.55 0.00045
12.6 0.00011
12.65 -0.00041
12.7 -0.00038
12.75 -0.00018
12.8 0.00034
12.85 0.00095
12.9 0.00138
12.95 0.00192
13 0.00193
13.05 0.00185
13.1 0.00189
13.15 0.00177
13.2 0.00131
13.25 0.00084
13.3 0.00076
13.35 0.00064
13.4 0.0005
13.45 0.00021
13.5 0.00024
13.55 0.00008
13.6 0.00012
13.65 -0.00017
13.7 0.00001
13.75 0.00042
13.8 0.00023
13.85 0.00032
13.9 0.00059
13.95 0.00055
14 0.00026
14.05 -0.00008
14.1 -0.00065
14.15 -0.00111
14.2 -0.00156
14.25 -0.00188
14.3 -0.00212
14.35 -0.0024
14.4 -0.00277
14.45 -0.00314
14.5 -0.00322
14.55 -0.00302
14.6 -0.00265
14.65 -0.00186
14.7 -0.00143
14.75 -0.0013
14.8 -0.00099
14.85 -0.00092
14.9 -0.00058
14.95 -0.00045
15 -0.00032
15.05 -0.00024
15.1 -0.00057
15.15 -0.00092
15.2 -0.00087
15.25 -0.00079
15.3 -0.00048
15.35 -0.00059
15.4 -0.00101
15.45 -0.00095
15.5 -0.00047
15.55 -0.00038
15.6 -0.00016
15.65 -0.0003
15.7 -0.0003
15.75 -0.00011
15.8 0.00033
15.85 0.00083
15.9 0.00069
15.95 0.00027
16 0.00003
16.05 -0.00046
16.1 -0.00084
16.15 -0.00112
16.2 -0.00151
16.25 -0.00191
16.3 -0.00185
16.35 -0.00204
16.4 -0.0019
16.45 -0.00169
16.5 -0.00114
16.55 -0.00051
16.6 -0.0004
16.65 0.00001
16.7 -0.00001
16.75 -0.00028
16.8 -0.00043
16.85 -0.00066
16.9 -0.00067
16.95 -0.00034
17 0.00029
17.05 0.00033
17.1 0.0005
17.15 0.00041
17.2 0.00056
17.25 0.00037
17.3 0.00025
17.35 0.00037
17.4 0.00036
17.45 0.00045
17.5 0.00038
17.55 0.00029
17.6 0.00054
17.65 0.00088
17.7 0.00115
17.75 0.00098
17.8 0.00117
17.85 0.00107
17.9 0.00087
17.95 0.00034
18 -0.00011
18.05 -0.0001
18.1 -0.00044
18.15 -0.0009
18.2 -0.00115
18.25 -0.00092
18.3 -0.00046
18.35 0.00001
18.4 -0.00003
18.45 0.00029
18.5 0.00018
18.55 0.00042
18.6 0.00055
18.65 0.00097
18.7 0.00096
18.75 0.00118
18.8 0.00093
18.85 0.00101
18.9 0.0009
18.95 0.00111
19 0.0009
19.05 0.0006
19.1 0.00027
19.15 0.00029
19.2 0.00012
19.25 -0.00015
19.3 -0.00044
19.35 -0.00086
19.4 -0.00146
19.45 -0.00186
19.5 -0.00223
19.55 -0.00219
19.6 -0.00183
19.65 -0.00127
19.7 -0.00117
19.75 -0.001
19.8 -0.00052
19.85 0.00004
19.9 0.00043
19.95 0.00106
20 0.00143
20.05 0.00164
20.1 0.00166
20.15 0.00161
20.2 0.00176
20.25 0.00185
20.3 0.00161
20.35 0.00107
20.4 0.00096
20.45 0.00063
20.5 0.00034
20.55 -0.00016
20.6 -0.00048
20.65 -0.00088
20.7 -0.00132
20.75 -0.00153
20.8 -0.00133
20.85 -0.00097
20.9 -0.00093
20.95 -0.00088
21 -0.00114
21.05 -0.00144
21.1 -0.00114
21.15 -0.00125
21.2 -0.00081
21.25 -0.00056
21.3 -0.00053
21.35 -0.00044
21.4 0.00006
21.45 0.00041
21.5 0.00086
21.55 0.00082
21.6 0.00061
21.65 0.00027
21.7 0.00013
21.75 0.00019
21.8 -0.00001
21.85 -0.0002
21.9 -0.00012
21.95 -0.0004
22 -0.00078
22.05 -0.00116
22.1 -0.00098
22.15 -0.00039
22.2 0.00001
22.25 0.00023
22.3 0.00014
22.35 -0.00024
22.4 -0.00013
22.45 0.00032
22.5 0.0005
22.55 0.0006
22.6 0.00078
22.65 0.00052
22.7 0.00042
22.75 -0.00007
22.8 -0.00026
22.85 -0.00069
22.9 -0.00054
22.95 -0.00023
23 0.00038
23.05 0.00109
23.1 0.00181
23.15 0.0022
23.2 0.00246
23.25 0.00204
23.3 0.00153
23.35 0.00122
23.4 0.00061
23.45 0.00032
23.5 0.00002
23.55 0.00003
23.6 0.00006
23.65 0.00046
23.7 0.00032
23.75 -0.00014
23.8 -0.00016
23.85 -0.0005
23.9 -0.00082
23.95 -0.00063
24 -0.00041
24.05 -0.00036
24.1 -0.00068
24.15 -0.00109
24.2 -0.0012
24.25 -0.00149
24.3 -0.0017
24.35 -0.00202
24.4 -0.00179
24.45 -0.00166
24.5 -0.00122
24.55 -0.0009
24.6 -0.00088
24.65 -0.00055
24.7 -0.00022
24.75 0.00013
24.8 0.00006
24.85 -0.0002
24.9 0.00005
24.95 -0.00013
25 -0.00013
25.05 0.00031
25.1 0.00064
25.15 0.00112
25.2 0.00154
25.25 0.00201
25.3 0.00193
25.35 0.00137
25.4 0.00071
25.45 0.00054
25.5 0.00031
25.55 -0.00022
25.6 -0.00082
25.65 -0.00127
25.7 -0.00174
25.75 -0.00199
25.8 -0.0017
25.85 -0.00133
25.9 -0.00121
25.95 -0.00128
26 -0.00152
26.05 -0.00126
26.1 -0.00104
26.15 -0.0011
26.2 -0.0009
26.25 -0.00072
26.3 -0.00067
26.35 -0.00032
26.4 0.00034
26.45 0.00079
26.5 0.00086
26.55 0.00055
26.6 0.00005
26.65 -0.00016
26.7 -0.00045
26.75 -0.00026
26.8 0.00009
26.85 0.00036
26.9 0.0003
26.95 0.00008
27 -0.00003
27.05 -0.00022
27.1 0.00002
27.15 -0.00007
27.2 -0.00006
27.25 0.00011
27.3 0.00025
27.35 0.00042
27.4 0.00079
27.45 0.0009
27.5 0.00109
27.55 0.00118
27.6 0.00152
27.65 0.00181
27.7 0.00206
27.75 0.00179
27.8 0.00157
27.85 0.00149
27.9 0.00135
27.95 0.00143
28 0.00124
28.05 0.00117
28.1 0.0012
28.15 0.00125
28.2 0.00081
28.25 0.0006
28.3 0.00061
28.35 0.00057
28.4 0.00082
28.45 0.00119
28.5 0.00144
28.55 0.00118
28.6 0.0009
28.65 0.0004
28.7 -0.00022
28.75 -0.00079
28.8 -0.00132
28.85 -0.00173
28.9 -0.00171
28.95 -0.00171
29 -0.0018
29.05 -0.002
29.1 -0.00189
29.15 -0.00197
29.2 -0.00176
29.25 -0.00186
29.3 -0.00163
29.35 -0.00139
29.4 -0.00131
29.45 -0.00089
29.5 -0.00052
29.55 -0.00031
29.6 -0.00005
29.65 0.0003
29.7 0.00041
29.75 0.0003
29.8 -0.00018
29.85 -0.00032
29.9 -0.00021
29.95 -0.00002
30 0.00029
30.05 0.00065
30.1 0.00059
30.15 0.00059
30.2 0.00067
30.25 0.0005
30.3 0.00018
30.35 -0.00043
30.4 -0.00084
30.45 -0.00064
30.5 -0.00019
30.55 0.00045
30.6 0.0012
30.65 0.00169
30.7 0.00197
30.75 0.00219
30.8 0.00197
30.85 0.00198
30.9 0.00142
30.95 0.00096
31 0.00076
31.05 0.00072
31.1 0.00086
31.15 0.00095
31.2 0.00077
31.25 0.0005
31.3 0.00066
31.35 0.00098
31.4 0.00143
31.45 0.00192
31.5 0.00186
31.55 0.00143
31.6 0.00077
31.65 0.00046
31.7 -0.0001
31.75 -0.00026
31.8 -0.00023
31.85 -0.00054
31.9 -0.00041
31.95 -0.00008
32 0.00037
32.05 0.00056
32.1 0.00049
32.15 0.0004
32.2 0.00066
32.25 0.00063
32.3 0.0005
32.35 0.00074
32.4 0.00077
32.45 0.00033
32.5 0.0002
32.55 -0.00024
32.6 -0.00057
32.65 -0.00073
32.7 -0.00054
32.75 -0.00071
32.8 -0.00076
32.85 -0.00036
32.9 0.00012
32.95 0.00075
33 0.00078
33.05 0.00068
33.1 0.00052
33.15 0.00069
33.2 0.0005
33.25 0.00002
33.3 -0.00049
33.35 -0.00045
33.4 -0.0005
33.45 -0.00076
33.5 -0.00078
33.55 -0.00067
33.6 -0.00068
33.65 -0.00046
33.7 -0.00027
33.75 -0.00022
33.8 0.00007
33.85 0.00057
33.9 0.00083
33.95 0.00128
34 0.00156
34.05 0.00149
34.1 0.0013
34.15 0.00104
34.2 0.0009
34.25 0.00085
34.3 0.0009
34.35 0.0008
34.4 0.00028
34.45 -0.00038
34.5 -0.00043
34.55 -0.00017
34.6 0.00016
34.65 0.00006
34.7 -0.00041
34.75 -0.00088
34.8 -0.00106
34.85 -0.00134
34.9 -0.00185
34.95 -0.00174
35 -0.00121
35.05 -0.0007
35.1 -0.00031
35.15 0.00021
35.2 0.00033
35.25 0.00049
35.3 0.00039
35.35 0.00031
35.4 0.00035
35.45 0.00058
35.5 0.00057
35.55 0.00067
35.6 0.00034
35.65 0.00038
35.7 0.00015
35.75 -0.00012
35.8 -0.00046
35.85 -0.00068
35.9 -0.00072
35.95 -0.00074
36 -0.00085
36.05 -0.00113
36.1 -0.00159
36.15 -0.00146
36.2 -0.00091
36.25 -0.00079
36.3 -0.00098
36.35 -0.00081
36.4 -0.00056
36.45 -0.00023
36.5 0
36.55 -0.00015
36.6 -0.00053
36.65 -0.00078
36.7 -0.00069
36.75 -0.00067
36.8 -0.00067
36.85 -0.00037
36.9 -0.00014
36.95 -0.00014
37 -0.00018
37.05 -0.00029
37.1 -0.00041
37.15 -0.0005
37.2 -0.00087
37.25 -0.00085
37.3 -0.00104
37.35 -0.00133
37.4 -0.00113
37.45 -0.00072
37.5 -0.00028
37.55 0.00035
37.6 0.00055
37.65 0.00052
37.7 0.00069
37.75 0.00073
37.8 0.00055
37.85 0.00018
37.9 -0.00003
37.95 0.00007
38 0.00036
38.05 0.0005
38.1 0.00063
38.15 0.00099
38.2 0.00095
38.25 0.00111
38.3 0.00111
38.35 0.00063
38.4 0.00051
38.45 0.00036
38.5 -0.00001
38.55 -0.00026
38.6 -0.00044
38.65 -0.00094
38.7 -0.0013
38.75 -0.00161
38.8 -0.00197
38.85 -0.0019
38.9 -0.00132
38.95 -0.00117
39 -0.00083
39.05 -0.00078
39.1 -0.00109
39.15 -0.00106
39.2 -0.00093
39.25 -0.0005
39.3 -0.0006
39.35 -0.00087
39.4 -0.00091
39.45 -0.00046
39.5 -0.0002
39.55 0.00032
39.6 0.00099
39.65 0.00165
39.7 0.00176
39.75 0.00202
39.8 0.00228
39.85 0.0019
39.9 0.00148
39.95 0.00072
40 0.00013
40.05 -0.00065
40.1 -0.00119
40.15 -0.0013
40.2 -0.00089
40.25 -0.00048
40.3 -0.00009
40.35 -0.00009
40.4 0.0002
40.45 0.00053
40.5 0.00055
40.55 0.00082
40.6 0.0011
40.65 0.00106
40.7 0.0009
40.75 0.00105
40.8 0.00125
40.85 0.00113
40.9 0.00054
40.95 -0.00015
41 -0.00097
41.05 -0.0013
41.1 -0.00144
41.15 -0.00134
41.2 -0.00133
41.25 -0.00115
41.3 -0.00133
41.35 -0.00125
41.4 -0.00091
41.45 -0.00097
41.5 -0.00121
41.55 -0.00159
41.6 -0.00171
41.65 -0.00167
41.7 -0.00126
41.75 -0.00077
41.8 -0.00056
41.85 -0.00047
41.9 -0.00043
41.95 -0.00057
42 -0.00053
42.05 -0.00009
42.1 0.00026
42.15 0.00054
42.2 0.00035
42.25 0.00019
42.3 0.00019
42.35 0.00024
42.4 0.00029
42.45 0.00043
42.5 0.00015
42.55 0.00023
42.6 0.00007
42.65 0.00009
42.7 -0.00011
42.75 0.00006
42.8 -0.00007
42.85 -0.00025
42.9 0.00006
42.95 0.00042
43 0.00089
43.05 0.00072
43.1 0.00068
43.15 0.00043
43.2 0.00015
43.25 -0.0002
43.3 -0.00064
43.35 -0.00104
43.4 -0.00087
43.45 -0.00039
43.5 -0.00015
43.55 0.00036
43.6 0.00082
43.65 0.00127
43.7 0.00152
43.75 0.00175
43.8 0.00151
43.85 0.00156
43.9 0.00131
43.95 0.00072
44 0.00004
44.05 -0.00017
44.1 -0.00046
44.15 -0.0004
44.2 -0.00007
44.25 -0.00019
44.3 -0.0005
44.35 -0.00081
44.4 -0.00082
44.45 -0.00052
44.5 -0.00017
44.55 0.00035
44.6 0.0006
44.65 0.00056
44.7 0.00055
44.75 0.00064
44.8 0.00075
44.85 0.00083
44.9 0.00094
44.95 0.00092
45 0.00043
45.05 -0.00033
45.1 -0.00091
45.15 -0.00088
45.2 -0.00045
45.25 -0.00039
45.3 -0.00062
45.35 -0.0006
45.4 -0.00092
45.45 -0.00095
45.5 -0.0012
45.55 -0.00124
45.6 -0.00154
45.65 -0.00128
45.7 -0.0011
45.75 -0.00069
45.8 -0.00039
45.85 0.00002
45.9 -0.00006
45.95 0.00005
46 0.00008
46.05 -0.00011
46.1 -0.00008
46.15 0.00004
46.2 -0.00002
46.25 0.00015
46.3 0.00022
46.35 0.0005
46.4 0.00058
46.45 0.00041
46.5 0.00008
46.55 -0.00009
46.6 -0.00038
46.65 -0.00032
46.7 -0.00028
46.75 0.00015
46.8 0.0008
46.85 0.00113
46.9 0.00109
46.95 0.00132
47 0.00149
47.05 0.00106
47.1 0.00054
47.15 0.00023
47.2 0.00017
47.25 -0.00019
47.3 -0.00069
47.35 -0.00096
47.4 -0.0011
47.45 -0.00079
47.5 -0.00036
47.55 -0.0004
47.6 -0.00043
47.65 -0.00069
47.7 -0.00049
47.75 -0.00019
47.8 0.0003
47.85 0.00084
47.9 0.00079
47.95 0.00073
48 0.00089
48.05 0.00114
48.1 0.0015
48.15 0.00171
48.2 0.00179
48.25 0.00191
48.3 0.00174
48.35 0.00116
48.4 0.00062
48.45 -0.0001
48.5 -0.00093
48.55 -0.00144
48.6 -0.00198
48.65 -0.00185
48.7 -0.0013
48.75 -0.001
48.8 -0.00114
48.85 -0.0009
48.9 -0.00109
48.95 -0.00091
49 -0.00107
49.05 -0.00148
49.1 -0.00139
49.15 -0.00155
49.2 -0.00114
49.25 -0.00075
49.3 -0.00025
49.35 -0.00006
49.4 -0.00004
49.45 -0
49.5 -0.0001
49.55 -0.00033
49.6 -0.00081
49.65 -0.00084
49.7 -0.00077
49.75 -0.00062
49.8 -0.00031
49.85 -0.0001
49.9 0.00042
49.95 0.00045
50 0.00068
50.05 0.00108
50.1 0.00116
50.15 0.00096
50.2 0.00053
50.25 0.00057
50.3 0.00019
50.35 0.00019
50.4 0.00034
50.45 0.00078
50.5 0.00103
50.55 0.00142
50.6 0.00163
50.65 0.00141
50.7 0.00082
50.75 0.00044
50.8 0.00028
50.85 0.00035
50.9 0.00059
50.95 0.00037
51 0.00051
51.05 0.00031
51.1 -0.00019
51.15 -0.00072
51.2 -0.00137
51.25 -0.00193
51.3 -0.00208
51.35 -0.00182
51.4 -0.00173
51.45 -0.00189
51.5 -0.00157
51.55 -0.00144
51.6 -0.00158
51.65 -0.00179
51.7 -0.00181
51.75 -0.0018
51.8 -0.00192
51.85 -0.00223
51.9 -0.00203
51.95 -0.00203
52 -0.00154
52.05 -0.00069
52.1 0.00019
52.15 0.00065
52.2 0.00082
52.25 0.00054
52.3 0.00002
52.35 -0.00054
52.4 -0.00089
52.45 -0.00099
52.5 -0.00088
52.55 -0.00035
52.6 -0.00032
52.65 -0.00001
52.7 0.00021
52.75 0.00007
52.8 -0.00016
52.85 0.00001
52.9 0.00012
52.95 0.00032
53 0.00062
53.05 0.00056
53.1 0.00069
53.15 0.001
53.2 0.00088
53.25 0.00104
53.3 0.00141
53.35 0.00153
53.4 0.00171
53.45 0.00136
53.5 0.00099
53.55 0.00072
53.6 0.00027
53.65 -0.00002
53.7 -0.00021
53.75 -0.00013
53.8 -0.00038
53.85 -0.00027
53.9 -0.00031
53.95 -0.00004
54 0.0003
54.05 0.00025
54.1 0.00039
54.15 0.00019
54.2 -0.00023
54.25 -0.00077
54.3 -0.00102
54.35 -0.00144
54.4 -0.00124
54.45 -0.00086
54.5 -0.00042
54.55 -0.00029
54.6 -0.0002
54.65 0.00011
54.7 0.00042
54.75 0.00095
54.8 0.00158
54.85 0.0022
54.9 0.00273
54.95 0.00313
55 0.00308
55.05 0.00267
55.1 0.00216
55.15 0.00143
55.2 0.00107
55.25 0.00096
55.3 0.00059
55.35 0.00047
55.4 0.0003
55.45 0.00014
55.5 0.00004
55.55 -0.0001
55.6 0.0002
55.65 0.00013
55.7 -0.00017
55.75 -0.00071
55.8 -0.00085
55.85 -0.00073
55.9 -0.00053
55.95 -0.00033
56 0.00014
56.05 0.00055
56.1 0.00088
56.15 0.00118
56.2 0.00147
56.25 0.00163
56.3 0.00142
56.35 0.00117
56.4 0.00067
56.45 0.00045
56.5 0.00041
56.55 0.00045
56.6 0.00017
56.65 -0.00017
56.7 -0.00066
56.75 -0.00074
56.8 -0.00038
56.85 0.00019
56.9 0.00075
56.95 0.00121
57 0.00096
57.05 0.00105
57.1 0.00118
57.15 0.00086
57.2 0.00062
57.25 0.00076
57.3 0.00039
57.35 0.00019
57.4 0.00038
57.45 0.00043
57.5 0.00055
57.55 0.00093
57.6 0.00132
57.65 0.00108
57.7 0.00079
57.75 0.00058
57.8 0.00027
57.85 -0.00031
57.9 -0.00094
57.95 -0.00156
58 -0.00206
58.05 -0.00235
58.1 -0.00264
58.15 -0.00253
58.2 -0.00202
58.25 -0.00146
58.3 -0.00089
58.35 -0.00071
58.4 -0.00048
58.45 -0.00009
58.5 0.00029
58.55 0.00046
58.6 0.00024
58.65 -0.00008
58.7 -0.0001
58.75 -0.00006
58.8 -0.00002
58.85 0.00017
58.9 0.00064
58.95 0.00084
59 0.00122
59.05 0.0012
59.1 0.00102
59.15 0.00061
59.2 0.00024
59.25 0
59.3 -0.00027
59.35 -0.00013
59.4 -0.00015
59.45 -0.00038
59.5 -0.00064
59.55 -0.00111
59.6 -0.00151
59.65 -0.00178
59.7 -0.00217
59.75 -0.00222
59.8 -0.00202
59.85 -0.00178
59.9 -0.00146
59.95 -0.00118
60 -0.00088
60.05 -0.00042
60.1 0.00005
60.15 0.00057
60.2 0.00105
60.25 0.00112
60.3 0.00128
60.35 0.00105
60.4 0.00045
60.45 0.00035
60.5 0.00042
60.55 0.00005
60.6 -0.00018
60.65 -0.00067
60.7 -0.0007
60.75 -0.00058
60.8 -0.00086
60.85 -0.00068
60.9 -0.00049
60.95 -0.00008
61 0.00049
61.05 0.00099
61.1 0.00152
61.15 0.00146
61.2 0.00126
61.25 0.00099
61.3 0.00098
61.35 0.00061
61.4 0.00058
61.45 0.00008
61.5 -0.00051
61.55 -0.00077
61.6 -0.00113
61.65 -0.00161
61.7 -0.00194
61.75 -0.00173
61.8 -0.00156
61.85 -0.00126
61.9 -0.00105
61.95 -0.00082
62 -0.00035
62.05 0.00011
62.1 0.00009
62.15 -0.0002
62.2 -0.00002
62.25 -0.00001
62.3 0.00007
62.35 0.00024
62.4 0.00029
62.45 0.00036
62.5 0.00027
62.55 0.00013
62.6 -0.00001
62.65 0.00013
62.7 0.00008
62.75 0.0001
62.8 -0.00029
62.85 -0.0002
62.9 -0.00018
62.95 -0.00034
63 -0.00062
63.05 -0.00077
63.1 -0.00122
63.15 -0.0012
63.2 -0.00101
63.25 -0.00093
63.3 -0.00081
63.35 -0.0006
63.4 -0.00046
63.45 -0.0006
63.5 -0.00044
63.55 -0.00015
63.6 0.00036
63.65 0.00071
63.7 0.00125
63.75 0.00161
63.8 0.00151
63.85 0.00146
63.9 0.00145
63.95 0.00169
64 0.00202
64.05 0.00189
64.1 0.002
64.15 0.00201
64.2 0.00192
64.25 0.00153
64.3 0.00137
64.35 0.0009
64.4 0.00056
64.45 0.00032
64.5 0.00037
64.55 0.00072
64.6 0.00121
64.65 0.00159
64.7 0.00127
64.75 0.00131
64.8 0.00121
64.85 0.00136
64.9 0.00149
64.95 0.00125
65 0.00065
65.05 0.00022
65.1 0.00014
65.15 -0.00021
65.2 -0.00039
65.25 -0.00042
65.3 -0.00039
65.35 -0.00054
65.4 -0.00061
65.45 -0.00084
65.5 -0.00131
65.55 -0.00156
65.6 -0.00152
65.65 -0.00109
65.7 -0.0008
65.75 -0.00044
65.8 -0.00034
65.85 -0.0002
65.9 -0.00017
65.95 0.0002
66 0.00058
66.05 0.00107
66.1 0.00088
66.15 0.00052
66.2 -0.00016
66.25 -0.00088
66.3 -0.00102
66.35 -0.00097
66.4 -0.00052
66.45 -0.00041
66.5 -0.00056
66.55 -0.00051
66.6 -0.00019
66.65 0.00012
66.7 0.00013
66.75 -0.0001
66.8 0.00001
66.85 0.00012
66.9 -0.00025
66.95 -0.00077
67 -0.00085
67.05 -0.00067
67.1 -0.00058
67.15 -0.0005
67.2 -0.00082
67.25 -0.00137
67.3 -0.00179
67.35 -0.00205
67.4 -0.00225
67.45 -0.00192
67.5 -0.00169
67.55 -0.00137
67.6 -0.00134
67.65 -0.00113
67.7 -0.00112
67.75 -0.00124
67.8 -0.00115
67.85 -0.001
67.9 -0.00063
67.95 -0.00019
68 0.00035
68.05 0.00092
68.1 0.00125
68.15 0.00149
68.2 0.00171
68.25 0.00146
68.3 0.00115
68.35 0.00094
68.4 0.00087
68.45 0.00069
68.5 0.00046
68.55 0.0006
68.6 0.00057
68.65 0.00063
68.7 0.00095
68.75 0.00129
68.8 0.00175
68.85 0.00156
68.9 0.00096
68.95 0.0001
69 -0.00019
69.05 -0.00062
69.1 -0.00065
69.15 -0.00084
69.2 -0.00099
69.25 -0.00069
69.3 -0.00049
69.35 -0.00042
69.4 -0.00046
69.45 -0.00054
69.5 -0.00024
69.55 0.0002
69.6 0.00066
69.65 0.00102
69.7 0.00097
69.75 0.0006
69.8 0.00031
69.85 -0.0001
69.9 -0.00072
69.95 -0.00118
70 -0.00125
70.05 -0.00176
70.1 -0.0022
70.15 -0.00252
70.2 -0.0034
70.25 -0.00421
70.3 -0.00543
70.35 -0.00627
70.4 -0.00739
70.45 -0.00883
70.5 -0.01065
70.55 -0.01244
70.6 -0.01422
70.65 -0.01669
70.7 -0.01982
70.75 -0.02316
70.8 -0.02663
70.85 -0.03019
70.9 -0.03393
70.95 -0.03813
71 -0.04323
71.05 -0.04891
71.1 -0.05562
71.15 -0.06265
71.2 -0.07037
71.25 -0.0792
71.3 -0.08884
71.35 -0.0986
71.4 -0.1093
71.45 -0.12009
71.5 -0.13094
71.55 -0.14207
71.6 -0.15355
71.65 -0.16488
71.7 -0.17595
71.75 -0.18728
71.8 -0.19841
71.85 -0.20922
71.9 -0.21938
71.95 -0.22789
72 -0.23485
72.05 -0.2404
72.1 -0.24501
72.15 -0.24792
72.2 -0.24919
72.25 -0.24888
72.3 -0.24696
72.35 -0.2434
72.4 -0.23772
72.45 -0.23009
72.5 -0.2209
72.55 -0.21034
72.6 -0.19831
72.65 -0.18487
72.7 -0.17059
72.75 -0.15493
72.8 -0.13843
72.85 -0.12141
72.9 -0.10453
72.95 -0.08782
73 -0.07129
73.05 -0.05475
73.1 -0.03925
73.15 -0.0246
73.2 -0.01052
73.25 0.00263
73.3 0.01509
73.35 0.02608
73.4 0.0363
73.45 0.04516
73.5 0.05302
73.55 0.06007
73.6 0.06661
73.65 0.07284
73.7 0.07912
73.75 0.08496
73.8 0.0903
73.85 0.09592
73.9 0.10163
73.95 0.10737
74 0.11277
74.05 0.11857
74.1 0.12428
74.15 0.13016
74.2 0.13648
74.25 0.14284
74.3 0.1496
74.35 0.15672
74.4 0.16385
74.45 0.17094
74.5 0.17789
74.55 0.1851
74.6 0.19173
74.65 0.19807
74.7 0.20411
74.75 0.20957
74.8 0.21402
74.85 0.21755
74.9 0.22025
74.95 0.22243
75 0.22402
75.05 0.22497
75.1 0.2251
75.15 0.2243
75.2 0.22278
75.25 0.22079
75.3 0.21809
75.35 0.21492
75.4 0.2108
75.45 0.20589
75.5 0.20084
75.55 0.19557
75.6 0.19004
75.65 0.18376
75.7 0.17732
75.75 0.17114
75.8 0.16466
75.85 0.15774
75.9 0.15082
75.95 0.14372
76 0.1367
76.05 0.13052
76.1 0.12424
76.15 0.11799
76.2 0.11192
76.25 0.10648
76.3 0.10137
76.35 0.09622
76.4 0.09155
76.45 0.08716
76.5 0.08264
76.55 0.07832
76.6 0.07418
76.65 0.06984
76.7 0.06539
76.75 0.06082
76.8 0.05622
76.85 0.05201
76.9 0.04779
76.95 0.04358
77 0.03963
77.05 0.03552
77.1 0.03152
77.15 0.02777
77.2 0.02428
77.25 0.02095
77.3 0.01792
77.35 0.01536
77.4 0.013
77.45 0.01123
77.5 0.00907
77.55 0.00666
77.6 0.00479
77.65 0.00326
77.7 0.00189
77.75 0.00071
77.8 -0.00046
77.85 -0.00184
77.9 -0.00324
77.95 -0.00497
78 -0.00653
78.05 -0.00825
78.1 -0.00961
78.15 -0.01129
78.2 -0.01328
78.25 -0.01473
78.3 -0.01646
78.35 -0.01754
78.4 -0.01821
78.45 -0.0186
78.5 -0.01942
78.55 -0.02046
78.6 -0.0214
78.65 -0.02217
78.7 -0.02265
78.75 -0.02285
78.8 -0.02346
78.85 -0.02399
78.9 -0.02466
78.95 -0.02565
79 -0.02653
79.05 -0.02732
79.1 -0.02774
79.15 -0.02784
79.2 -0.0283
79.25 -0.02836
79.3 -0.02846
79.35 -0.02842
79.4 -0.02862
79.45 -0.02888
79.5 -0.02946
79.55 -0.02949
79.6 -0.02955
79.65 -0.02936
79.7 -0.0294
79.75 -0.02965
79.8 -0.03018
79.85 -0.03019
79.9 -0.02985
79.95 -0.02956
80 -0.02951
80.05 -0.02923
80.1 -0.02942
80.15 -0.02946
80.2 -0.02919
80.25 -0.02881
80.3 -0.02861
80.35 -0.02855
80.4 -0.02843
80.45 -0.02794
80.5 -0.02768
80.55 -0.02783
80.6 -0.02804
80.65 -0.02796
80.7 -0.02754
80.75 -0.02738
80.8 -0.02677
80.85 -0.02613
80.9 -0.02527
80.95 -0.02452
81 -0.02388
81.05 -0.02354
81.1 -0.02321
81.15 -0.0231
81.2 -0.02273
81.25 -0.02269
81.3 -0.02281
81.35 -0.02255
81.4 -0.02226
81.45 -0.02245
81.5 -0.0228
81.55 -0.02262
81.6 -0.02237
81.65 -0.02193
81.7 -0.02136
81.75 -0.0211
81.8 -0.02123
81.85 -0.02134
81.9 -0.02105
81.95 -0.02056
82 -0.01997
82.05 -0.01932
82.1 -0.01911
82.15 -0.0189
82.2 -0.01833
82.25 -0.01829
82.3 -0.01801
82.35 -0.01778
82.4 -0.01733
82.45 -0.01737
82.5 -0.01695
82.55 -0.01689
82.6 -0.01689
82.65 -0.0171
82.7 -0.01682
82.75 -0.01664
82.8 -0.01613
82.85 -0.01575
82.9 -0.01511
82.95 -0.01482
83 -0.01492
83.05 -0.01515
83.1 -0.01528
83.15 -0.01512
83.2 -0.01509
83.25 -0.01469
83.3 -0.01441
83.35 -0.01391
83.4 -0.01368
83.45 -0.01309
83.5 -0.01261
83.55 -0.0119
83.6 -0.01183
83.65 -0.01149
83.7 -0.01103
83.75 -0.01076
83.8 -0.011
83.85 -0.01087
83.9 -0.01078
83.95 -0.01075
84 -0.01061
84.05 -0.01042
84.1 -0.01015
84.15 -0.01033
84.2 -0.01067
84.25 -0.01046
84.3 -0.01039
84.35 -0.01031
84.4 -0.00994
84.45 -0.00951
84.5 -0.00882
84.55 -0.00839
84.6 -0.00794
84.65 -0.00771
84.7 -0.00765
84.75 -0.00751
84.8 -0.00757
84.85 -0.00769
84.9 -0.00801
84.95 -0.00791
85 -0.00817
85.05 -0.00852
85.1 -0.00857
85.15 -0.00857
85.2 -0.00824
85.25 -0.00786
85.3 -0.00765
85.35 -0.00738
85.4 -0.00686
85.45 -0.00649
85.5 -0.00627
85.55 -0.00613
85.6 -0.00614
85.65 -0.00596
85.7 -0.00573
85.75 -0.00525
85.8 -0.00474
85.85 -0.00441
85.9 -0.00464
85.95 -0.00486
86 -0.00506
86.05 -0.00496
86.1 -0.00472
86.15 -0.00502
86.2 -0.00523
86.25 -0.00504
86.3 -0.00493
86.35 -0.00494
86.4 -0.00503
86.45 -0.00496
86.5 -0.00523
86.55 -0.00548
86.6 -0.00599
86.65 -0.00634
86.7 -0.00616
86.75 -0.00609
86.8 -0.00609
86.85 -0.0057
86.9 -0.00568
86.95 -0.00535
87 -0.00486
87.05 -0.00469
87.1 -0.00444
87.15 -0.00434
87.2 -0.00393
87.25 -0.00404
87.3 -0.00397
87.35 -0.00407
87.4 -0.00401
87.45 -0.0038
87.5 -0.00368
87.55 -0.00386
87.6 -0.00397
87.65 -0.00377
87.7 -0.00384
87.75 -0.00413
87.8 -0.0045
87.85 -0.00502
87.9 -0.00531
87.95 -0.00526
88 -0.00498
88.05 -0.00474
88.1 -0.0046
88.15 -0.00451
88.2 -0.00435
88.25 -0.00401
88.3 -0.0038
88.35 -0.00329
88.4 -0.00252
88.45 -0.00171
88.5 -0.00165
88.55 -0.00172
88.6 -0.00176
88.65 -0.0015
88.7 -0.00129
88.75 -0.00114
88.8 -0.00119
88.85 -0.00143
88.9 -0.00195
88.95 -0.00216
89 -0.0027
89.05 -0.0029
89.1 -0.00263
89.15 -0.00219
89.2 -0.00203
89.25 -0.0016
89.3 -0.00162
89.35 -0.00165
89.4 -0.00206
89.45 -0.00216
89.5 -0.00213
89.55 -0.00203
89.6 -0.00204
89.65 -0.00194
89.7 -0.00228
89.75 -0.00207
89.8 -0.00211
89.85 -0.0018
89.9 -0.0016
89.95 -0.00178
90 -0.00172
90.05 -0.00184
90.1 -0.00198
90.15 -0.00169
90.2 -0.00151
90.25 -0.00118
90.3 -0.00072
90.35 -0.00022
90.4 -0.0002
90.45 -0.00005
90.5 -0.00017
90.55 -0.00033
90.6 -0.00018
90.65 -0.00051
90.7 -0.00055
90.75 -0.00036
90.8 -0.00044
90.85 -0.00077
90.9 -0.00096
90.95 -0.00122
91 -0.00114
91.05 -0.00112
91.1 -0.00082
91.15 -0.00078
91.2 -0.00072
91.25 -0.00113
91.3 -0.00106
91.35 -0.00115
91.4 -0.00119
91.45 -0.00096
91.5 -0.0006
91.55 -0.00081
91.6 -0.00097
91.65 -0.00148
91.7 -0.00209
91.75 -0.00215
91.8 -0.00239
91.85 -0.00266
91.9 -0.0024
91.95 -0.00194
92 -0.00128
92.05 -0.00077
92.1 -0.00017
92.15 -0.00025
92.2 -0.0007
92.25 -0.00064
92.3 -0.00026
92.35 0.00005
92.4 0.00003
92.45 0.00025
92.5 0.00021
92.55 0.0001
92.6 0.00023
92.65 0.0006
92.7 0.00061
92.75 0.00021
92.8 -0.00042
92.85 -0.00112
92.9 -0.00168
92.95 -0.00184
93 -0.00191
93.05 -0.00149
93.1 -0.00133
93.15 -0.00131
93.2 -0.00134
93.25 -0.00114
93.3 -0.00114
93.35 -0.00151
93.4 -0.00155
93.45 -0.00118
93.5 -0.00067
93.55 -0.00013
93.6 0.00031
93.65 0.0003
93.7 0.00029
93.75 -0
93.8 -0.00026
93.85 -0.00046
93.9 -0.00055
93.95 -0.00032
94 -0.00038
94.05 -0.00067
94.1 -0.00049
94.15 -0.00001
94.2 0.00025
94.25 0.00023
94.3 0.00013
94.35 0.00006
94.4 -0.00001
94.45 0.00004
94.5 -0.00037
94.55 -0.00029
94.6 -0.00017
94.65 -0.00021
94.7 -0.00058
94.75 -0.00099
94.8 -0.00119
94.85 -0.00119
94.9 -0.00124
94.95 -0.00097
95 -0.00072
95.05 -0.00026
95.1 0.0001
95.15 0.00052
95.2 0.00042
95.25 -0.00006
95.3 -0.00079
95.35 -0.00115
95.4 -0.00139
95.45 -0.00171
95.5 -0.00194
95.55 -0.00166
95.6 -0.00171
95.65 -0.00131
95.7 -0.00093
95.75 -0.00062
95.8 -0.00012
95.85 0.00016
95.9 0.00058
95.95 0.00114
96 0.00126
96.05 0.00079
96.1 0.00064
96.15 0.00033
96.2 0.00006
96.25 -0.00044
96.3 -0.00093
96.35 -0.00155
96.4 -0.00176
96.45 -0.00143
96.5 -0.0013
96.55 -0.00149
96.6 -0.00182
96.65 -0.00211
96.7 -0.00199
96.75 -0.00205
96.8 -0.00167
96.85 -0.00103
96.9 -0.00096
96.95 -0.00089
97 -0.00086
97.05 -0.00076
97.1 -0.00099
97.15 -0.00082
97.2 -0.00057
97.25 -0.00015
97.3 0.00002
97.35 0.00042
97.4 0.00059
97.45 0.001
97.5 0.00125
97.55 0.001
97.6 0.00048
97.65 0.00042
97.7 0.00004
97.75 -0.00048
97.8 -0.00115
97.85 -0.00139
97.9 -0.00131
97.95 -0.00078
98 -0.00048
98.05 -0.00006
98.1 0.00049
98.15 0.00041
98.2 0.00057
98.25 0.00021
98.3 0.00016
98.35 0.00034
98.4 0.00058
98.45 0.00085
98.5 0.00059
98.55 0.00074
98.6 0.0009
98.65 0.00051
98.7 -0.00009
98.75 -0.00064
98.8 -0.00071
98.85 -0.00096
98.9 -0.00115
98.95 -0.00105
99 -0.00076
99.05 -0.00048
99.1 -0.00002
99.15 -0.00002
99.2 -0.00004
99.25 -0.00046
99.3 -0.00108
99.35 -0.00134
99.4 -0.00113
99.45 -0.00104
99.5 -0.00097
99.55 -0.00093
99.6 -0.00064
99.65 -0.00035
99.7 -0.00007
99.75 0.00047
99.8 0.00059
99.85 0.00094
99.9 0.00144
99.95 0.00197
