0 0
0.05 0.00062
0.1 0.00102
0.15 0.00172
0.2 0.00249
0.25 0.0031
0.3 0.00343
0.35 0.00349
0.4 0.00365
0.45 0.00391
0.5 0.00482
0.55 0.00519
0.6 0.00582
0.65 0.00597
0.7 0.00581
0.75 0.00579
0.8 0.00548
0.85 0.00532
0.9 0.00476
0.95 0.00475
1 0.00524
1.05 0.00594
1.1 0.00693
1.15 0.00761
1.2 0.00748
1.25 0.00781
1.3 0.00794
1.35 0.0083
1.4 0.00837
1.45 0.00852
1.5 0.00834
1.55 0.00784
1.6 0.00675
1.65 0.0054
1.7 0.00484
1.75 0.00439
1.8 0.00358
1.85 0.00267
1.9 0.0019
1.95 0.00144
2 0.00196
2.05 0.00235
2.1 0.00322
2.15 0.0041
2.2 0.00458
2.25 0.00508
2.3 0.00491
2.35 0.00467
2.4 0.00442
2.45 0.00383
2.5 0.00378
2.55 0.00317
2.6 0.00229
2.65 0.00196
2.7 0.00162
2.75 0.00118
2.8 0.00105
2.85 0.00121
2.9 0.00127
2.95 0.0016
3 0.00194
3.05 0.00256
3.1 0.00335
3.15 0.00336
3.2 0.0031
3.25 0.00312
3.3 0.00371
3.35 0.00387
3.4 0.00428
3.45 0.00394
3.5 0.00383
3.55 0.00397
3.6 0.00419
3.65 0.00397
3.7 0.00404
3.75 0.00338
3.8 0.00258
3.85 0.00217
3.9 0.00209
3.95 0.00217
4 0.00242
4.05 0.00244
4.1 0.0026
4.15 0.00309
4.2 0.00381
4.25 0.00361
4.3 0.00339
4.35 0.00333
4.4 0.00277
4.45 0.00246
4.5 0.00184
4.55 0.00191
4.6 0.00181
4.65 0.00197
4.7 0.00185
4.75 0.00156
4.8 0.00152
4.85 0.00101
4.9 0.0003
4.95 -0.00042
5 -0.00094
5.05 -0.00148
5.1 -0.00198
5.15 -0.00195
5.2 -0.00175
5.25 -0.00144
5.3 -0.00082
5.35 -0.00076
5.4 -0.00097
5.45 -0.00039
5.5 0.00051
5.55 0.00071
5.6 0.00105
5.65 0.00101
5.7 0.00155
5.75 0.00135
5.8 0.00165
5.85 0.00171
5.9 0.00227
5.95 0.0022
6 0.00166
6.05 0.00133
6.1 0.00113
6.15 0.00114
6.2 0.00104
6.25 0.00085
6.3 0.00124
6.35 0.00203
6.4 0.00261
6.45 0.00245
6.5 0.00262
6.55 0.00295
6.6 0.0034
6.65 0.00335
6.7 0.00304
6.75 0.003
6.8 0.00336
6.85 0.00318
6.9 0.00278
6.95 0.00251
7 0.00231
7.05 0.00264
7.1 0.0025
7.15 0.00169
7.2 0.00087
7.25 -0.00009
7.3 -0.00009
7.35 0.00035
7.4 0.00061
7.45 0.00125
7.5 0.00177
7.55 0.0025
7.6 0.00301
7.65 0.00265
7.7 0.00192
7.75 0.00177
7.8 0.00114
7.85 0.00045
7.9 -0.00015
7.95 0.00003
8 0.00058
8.05 0.00103
8.1 0.0012
8.15 0.00075
8.2 0.00015
8.25 -0.00045
8.3 -0.00055
8.35 -0
8.4 -0.00017
8.45 -0.00024
8.5 -0.00021
8.55 0.00011
8.6 0.00037
8.65 0.00096
8.7 0.00138
8.75 0.00114
8.8 0.00094
8.85 0.0007
8.9 0.00057
8.95 0.00023
9 -0.00028
9.05 -0.00019
9.1 -0.00009
9.15 -0.00042
9.2 -0.00105
9.25 -0.0013
9.3 -0.00149
9.35 -0.0019
9.4 -0.00228
9.45 -0.00174
9.5 -0.00117
9.55 -0.00014
9.6 0.00021
9.65 0.00025
9.7 0.00022
9.75 -0.00016
9.8 -0.00063
9.85 -0.00122
9.9 -0.00087
9.95 -0.0001
10 0.00005
10.05 0.00037
10.1 0.00075
10.15 0.00154
10.2 0.00149
10.25 0.00079
10.3 0.00056
10.35 0.00013
10.4 0.00005
10.45 -0.00025
10.5 -0.00011
10.55 -0.00007
10.6 -0.00048
10.65 -0.00082
10.7 -0.00122
10.75 -0.00083
10.8 -0.00075
10.85 -0.00056
10.9 -0.00046
10.95 -0.00063
11 -0.00038
11.05 -0.00061
11.1 -0.00013
11.15 -0.0001
11.2 -0.00015
11.25 0.00042
11.3 0.00071
11.35 0.00124
11.4 0.00164
11.45 0.00205
11.5 0.0017
11.55 0.00164
11.6 0.00103
11.65 0.00082
11.7 0.00007
11.75 -0.00032
11.8 -0.00108
11.85 -0.00159
11.9 -0.00187
11.95 -0.0018
12 -0.00117
12.05 -0.00046
12.1 0.00029
12.15 0.00129
12.2 0.00195
12.25 0.00166
12.3 0.00182
12.35 0.00206
12.4 0.00225
12.45 0.00272
12.5 0.00241
12.55 0.00242
12.6 0.00167
12.65 0.00095
12.7 -0.00008
12.75 -0.00064
12.8 -0.00075
12.85 -0.00065
12.9 0.00001
12.95 -0.00007
13 0.00037
13.05 0.00006
13.1 -0.00028
13.15 -0.00042
13.2 -0.00069
13.25 -0.00052
13.3 -0.00006
13.35 -0.00029
13.4 0.00007
13.45 0.00036
13.5 0.00061
13.55 0.00042
13.6 0.0002
13.65 0.0006
13.7 0.00138
13.75 0.00207
13.8 0.00187
13.85 0.00101
13.9 0
13.95 -0.00066
14 -0.00109
14.05 -0.00157
14.1 -0.00149
14.15 -0.00183
14.2 -0.00131
14.25 -0.00119
14.3 -0.00066
14.35 -0.00008
14.4 0.00065
14.45 0.00134
14.5 0.00129
14.55 0.00107
14.6 0.0008
14.65 0.00081
14.7 0.00019
14.75 0.00004
14.8 0.00031
14.85 0.00037
14.9 0.00037
14.95 0.00073
15 0.00049
15.05 -0.00004
15.1 -0.00037
15.15 -0.00044
15.2 -0.00039
15.25 -0.00031
15.3 0.00031
15.35 0.00088
15.4 0.00111
15.45 0.00078
15.5 0.0007
15.55 0.00097
15.6 0.00052
15.65 0.0004
15.7 0.00052
15.75 0.00046
15.8 0.00009
15.85 0.00025
15.9 -0.00024
15.95 -0.00039
16 -0.00055
16.05 -0.00038
16.1 -0.00069
16.15 -0.00044
16.2 -0.00021
16.25 -0.00027
16.3 -0.00012
16.35 0.00055
16.4 0.00067
16.45 0.00079
16.5 0.00055
16.55 0.00043
16.6 0.00073
16.65 0.00032
16.7 0.00059
16.75 0.00024
16.8 0.00046
16.85 0.00053
16.9 0.00058
16.95 0.00113
17 0.00152
17.05 0.00104
17.1 0.00084
17.15 0.0007
17.2 0.00085
17.25 0.00063
17.3 0.00089
17.35 0.00153
17.4 0.00225
17.45 0.00275
17.5 0.00304
17.55 0.0034
17.6 0.00328
17.65 0.00236
17.7 0.00197
17.75 0.00127
17.8 0.00083
17.85 -0.00008
17.9 -0.00022
17.95 -0.00042
18 -0.00066
18.05 -0.00029
18.1 0.0003
18.15 0.00007
18.2 0.0004
18.25 0.00055
18.3 0.00001
18.35 0.00005
18.4 -0.00046
18.45 -0.00024
18.5 -0.0005
18.55 -0.00032
18.6 0.00017
18.65 0.00088
18.7 0.00149
18.75 0.00166
18.8 0.00183
18.85 0.0018
18.9 0.00211
18.95 0.00228
19 0.00174
19.05 0.00077
19.1 0.00046
19.15 -0.00022
19.2 -0.00011
19.25 -0.00027
19.3 -0.0008
19.35 -0.00107
19.4 -0.00154
19.45 -0.00152
19.5 -0.00134
19.55 -0.0006
19.6 -0.00036
19.65 -0.00051
19.7 -0.00043
19.75 -0.00085
19.8 -0.00072
19.85 -0.00101
19.9 -0.00094
19.95 -0.0011
20 -0.00077
20.05 -0.00056
20.1 0.00012
20.15 0.00017
20.2 0.00049
20.25 0.00085
20.3 0.00055
20.35 -0.00003
20.4 -0.00101
20.45 -0.00113
20.5 -0.00132
20.55 -0.00187
20.6 -0.00186
20.65 -0.00221
20.7 -0.00265
20.75 -0.00234
20.8 -0.0025
20.85 -0.0028
20.9 -0.00293
20.95 -0.00334
21 -0.00312
21.05 -0.00253
21.1 -0.00164
21.15 -0.00044
21.2 0.00036
21.25 0.00107
21.3 0.00088
21.35 0.0001
21.4 0.00011
21.45 -0.00028
21.5 -0.00004
21.55 -0.00037
21.6 -0.00038
21.65 -0.00032
21.7 -0.00069
21.75 -0.00138
21.8 -0.00195
21.85 -0.00207
21.9 -0.00143
21.95 -0.00059
22 -0.0002
22.05 0.00035
22.1 0.00101
22.15 0.00108
22.2 0.00139
22.25 0.00129
22.3 0.00122
22.35 0.001
22.4 0.00029
22.45 -0.00025
22.5 -0.00074
22.55 -0.0015
22.6 -0.002
22.65 -0.00209
22.7 -0.00213
22.75 -0.00153
22.8 -0.00055
22.85 -0.00015
22.9 0.00042
22.95 0.00121
23 0.00203
23.05 0.00295
23.1 0.00269
23.15 0.00216
23.2 0.00194
23.25 0.00165
23.3 0.00177
23.35 0.00177
23.4 0.00213
23.45 0.00268
23.5 0.00324
23.55 0.00339
23.6 0.00308
23.65 0.00287
23.7 0.00255
23.75 0.00261
23.8 0.00189
23.85 0.00153
23.9 0.00075
23.95 0.00017
24 -0.00038
24.05 -0.00038
24.1 -0.00097
24.15 -0.00146
24.2 -0.0021
24.25 -0.00211
24.3 -0.00156
24.35 -0.00079
24.4 -0.00076
24.45 -0.00035
24.5 -0.00053
24.55 -0.00054
24.6 -0.00063
24.65 -0.0009
24.7 -0.0014
24.75 -0.00206
24.8 -0.00271
24.85 -0.00251
24.9 -0.00262
24.95 -0.0024
25 -0.00244
25.05 -0.00184
25.1 -0.00092
25.15 -0.00004
25.2 0.00011
25.25 -0.00028
25.3 -0.00047
25.35 -0.0002
25.4 -0.00032
25.45 0.0002
25.5 0.00043
25.55 0.00074
25.6 0.00126
25.65 0.00151
25.7 0.00175
25.75 0.00206
25.8 0.0026
25.85 0.00243
25.9 0.00178
25.95 0.00107
26 -0.00003
26.05 -0.00026
26.1 -0.00021
26.15 -0.00001
26.2 -0.00018
26.25 -0.00039
26.3 -0.00072
26.35 -0.00039
26.4 -0.00061
26.45 -0.00088
26.5 -0.00051
26.55 0.00018
26.6 0.00078
26.65 0.00113
26.7 0.00121
26.75 0.00117
26.8 0.00127
26.85 0.00116
26.9 0.00147
26.95 0.00129
27 0.00079
27.05 0.0001
27.1 -0.00024
27.15 0.00003
27.2 0.00056
27.25 0.00078
27.3 0.00036
27.35 -0.00044
27.4 -0.00072
27.45 -0.00121
27.5 -0.00171
27.55 -0.00146
27.6 -0.0009
27.65 -0.00063
27.7 -0.00044
27.75 -0.00013
27.8 0.00009
27.85 0.0003
27.9 -0.00021
27.95 -0.00019
28 -0.00003
28.05 0.00062
28.1 0.00118
28.15 0.00162
28.2 0.002
28.25 0.00155
28.3 0.00067
28.35 -0.00038
28.4 -0.00048
28.45 -0.00034
28.5 0.00006
28.55 0.0003
28.6 0.00069
28.65 0.00092
28.7 0.00091
28.75 0.00037
28.8 0.00025
28.85 -0.00015
28.9 -0.00044
28.95 -0.0006
29 -0.00065
29.05 -0.00027
29.1 -0.00055
29.15 -0.00057
29.2 -0.00061
29.25 -0.00033
29.3 -0.00035
29.35 -0.00017
29.4 0.00033
29.45 0.00092
29.5 0.00159
29.55 0.0018
29.6 0.00167
29.65 0.00142
29.7 0.0007
29.75 0.00036
29.8 -0.00038
29.85 -0.00069
29.9 -0.00053
29.95 -0.00001
30 0.00005
30.05 -0.00046
30.1 -0.00104
30.15 -0.00166
30.2 -0.00212
30.25 -0.00182
30.3 -0.00195
30.35 -0.0025
30.4 -0.00296
30.45 -0.00245
30.5 -0.00166
30.55 -0.00054
30.6 -0.00018
30.65 -0.00011
30.7 0.00016
30.75 0.0002
30.8 0.00061
30.85 0.00024
30.9 0.00021
30.95 -0.00037
31 -0.00074
31.05 -0.00067
31.1 -0.00113
31.15 -0.00104
31.2 -0.00136
31.25 -0.00103
31.3 -0.00112
31.35 -0.0006
31.4 -0.00062
31.45 -0.00048
31.5 -0.00028
31.55 0.00019
31.6 0.00034
31.65 -0.0002
31.7 -0.00018
31.75 -0.00025
31.8 0.00017
31.85 0.0009
31.9 0.00105
31.95 0.00155
32 0.00132
32.05 0.00132
32.1 0.00082
32.15 0.00057
32.2 0.00048
32.25 -0.0002
32.3 -0.00099
32.35 -0.00103
32.4 -0.00077
32.45 -0.00003
32.5 0.00006
32.55 0.00017
32.6 0.00076
32.65 0.00048
32.7 -0.00013
32.75 -0.00072
32.8 -0.00111
32.85 -0.00137
32.9 -0.00087
32.95 -0.00081
33 -0.00131
33.05 -0.00194
33.1 -0.00238
33.15 -0.00305
33.2 -0.00318
33.25 -0.0032
33.3 -0.00276
33.35 -0.00183
33.4 -0.00145
33.45 -0.00061
33.5 0.00024
33.55 0.00076
33.6 0.00088
33.65 0.00125
33.7 0.00117
33.75 0.00089
33.8 0.0012
33.85 0.00072
33.9 0.00083
33.95 0.0012
34 0.00142
34.05 0.00102
34.1 0.00032
34.15 -0.00017
34.2 -0.0003
34.25 -0.00002
34.3 -0.00012
34.35 -0.0001
34.4 -0.00067
34.45 -0.00071
34.5 -0.00063
34.55 -0.00008
34.6 -0.00028
34.65 -0.00077
34.7 -0.00105
34.75 -0.00075
34.8 0.00006
34.85 0.00069
34.9 0.00103
34.95 0.00058
35 0.00043
35.05 0.00049
35.1 0.00077
35.15 0.00138
35.2 0.00124
35.25 0.00149
35.3 0.00196
35.35 0.00223
35.4 0.0024
35.45 0.00173
35.5 0.00156
35.55 0.00131
35.6 0.00059
35.65 0.00041
35.7 0.00057
35.75 0.00035
35.8 0.00049
35.85 0.00017
35.9 -0.00061
35.95 -0.00083
36 -0.0013
36.05 -0.0019
36.1 -0.00216
36.15 -0.00243
36.2 -0.00202
36.25 -0.00203
36.3 -0.00236
36.35 -0.00284
36.4 -0.00268
36.45 -0.00285
36.5 -0.0023
36.55 -0.00201
36.6 -0.00138
36.65 -0.00138
36.7 -0.00141
36.75 -0.00082
36.8 -0.00011
36.85 0.00039
36.9 0.00036
36.95 0.00072
37 0.0014
37.05 0.00224
37.1 0.00266
37.15 0.00271
37.2 0.00218
37.25 0.00157
37.3 0.00142
37.35 0.00102
37.4 0.00094
37.45 0.00102
37.5 0.00105
37.55 0.00085
37.6 0.00022
37.65 -0.0003
37.7 -0.0002
37.75 -0.00054
37.8 -0.00116
37.85 -0.00146
37.9 -0.00168
37.95 -0.00207
38 -0.00237
38.05 -0.00256
38.1 -0.00208
38.15 -0.00185
38.2 -0.00122
38.25 -0.00066
38.3 -0.00039
38.35 0.00004
38.4 0.0007
38.45 0.00047
38.5 0.0008
38.55 0.00076
38.6 0.00042
38.65 0.00038
38.7 -0.00027
38.75 -0.00113
38.8 -0.00159
38.85 -0.00236
38.9 -0.00271
38.95 -0.00215
39 -0.00174
39.05 -0.0008
39.1 0.00037
39.15 0.0009
39.2 0.00093
39.25 0.001
39.3 0.00086
39.35 0.00123
39.4 0.00088
39.45 0.00025
39.5 -0.00056
39.55 -0.00074
39.6 -0.00104
39.65 -0.00077
39.7 -0.00091
39.75 -0.00079
39.8 -0.00102
39.85 -0.00165
39.9 -0.0016
39.95 -0.00161
40 -0.00092
40.05 -0.00076
40.1 -0.00048
40.15 -0.00055
40.2 -0.00031
40.25 -0.00024
40.3 0.00025
40.35 0.00113
40.4 0.00134
40.45 0.00102
40.5 0.00086
40.55 0.00092
40.6 0.00145
40.65 0.00174
40.7 0.00163
40.75 0.001
40.8 0.00104
40.85 0.00156
40.9 0.00121
40.95 0.00057
41 0.00054
41.05 0.00049
41.1 0.00076
41.15 0.00047
41.2 0.00002
41.25 0.00015
41.3 0.00027
41.35 0.00045
41.4 0.00077
41.45 0.00139
41.5 0.00146
41.55 0.00121
41.6 0.00085
41.65 -0.00006
41.7 -0.00025
41.75 -0.00018
41.8 -0.00022
41.85 0.00027
41.9 0.00105
41.95 0.00091
42 0.00088
42.05 0.00028
42.1 -0.00072
42.15 -0.00094
42.2 -0.00052
42.25 0.00003
42.3 0.00051
42.35 0.00085
42.4 0.00047
42.45 0.00065
42.5 0.00075
42.55 0.00102
42.6 0.00088
42.65 0.00126
42.7 0.00114
42.75 0.00148
42.8 0.00108
42.85 0.00117
42.9 0.00055
42.95 0.00031
43 -0.0004
43.05 -0.00069
43.1 -0.00046
43.15 -0.00036
43.2 0.00026
43.25 0.00086
43.3 0.0015
43.35 0.00132
43.4 0.00139
43.45 0.00118
43.5 0.00037
43.55 -0.00008
43.6 -0.00027
43.65 0.00003
43.7 -0.00005
43.75 -0.00057
43.8 -0.00121
43.85 -0.00199
43.9 -0.00248
43.95 -0.00313
44 -0.00319
44.05 -0.00257
44.1 -0.00195
44.15 -0.00158
44.2 -0.00156
44.25 -0.00106
44.3 -0.0004
44.35 0.00004
44.4 0.00002
44.45 0.00048
44.5 0.00118
44.55 0.00166
44.6 0.00222
44.65 0.00186
44.7 0.00188
44.75 0.00184
44.8 0.0016
44.85 0.00178
44.9 0.00187
44.95 0.00172
45 0.0014
45.05 0.00079
45.1 0.00074
45.15 0.00081
45.2 0.00121
45.25 0.00185
45.3 0.00195
45.35 0.00128
45.4 0.00105
45.45 0.00059
45.5 -0.00025
45.55 -0.0011
45.6 -0.00142
45.65 -0.00104
45.7 -0.00065
45.75 -0.00045
45.8 -0.0005
45.85 -0.00067
45.9 -0.00049
45.95 -0.00085
46 -0.00108
46.05 -0.00163
46.1 -0.00174
46.15 -0.00206
46.2 -0.00215
46.25 -0.00205
46.3 -0.00181
46.35 -0.00167
46.4 -0.00089
46.45 -0.00054
46.5 -0.00052
46.55 -0.00041
46.6 -0.00004
46.65 -0.00004
46.7 -0.00035
46.75 -0.0004
46.8 -0.00033
46.85 -0.00051
46.9 -0.00096
46.95 -0.00086
47 -0.00107
47.05 -0.00151
47.1 -0.00205
47.15 -0.00284
47.2 -0.00341
47.25 -0.00361
47.3 -0.00298
47.35 -0.00232
47.4 -0.00214
47.45 -0.00233
47.5 -0.00231
47.55 -0.00246
47.6 -0.00292
47.65 -0.00246
47.7 -0.00234
47.75 -0.00243
47.8 -0.00199
47.85 -0.00128
47.9 -0.00127
47.95 -0.00114
48 -0.00038
48.05 -0.00009
48.1 0.00043
48.15 0.00097
48.2 0.00118
48.25 0.00086
48.3 0.00087
48.35 0.00026
48.4 -0.00041
48.45 -0.0013
48.5 -0.00187
48.55 -0.00161
48.6 -0.00094
48.65 -0.00048
48.7 -0.00064
48.75 -0.00059
48.8 -0.00087
48.85 -0.00075
48.9 -0.00034
48.95 0.00054
49 0.00098
49.05 0.0009
49.1 0.00101
49.15 0.0014
49.2 0.00137
49.25 0.00075
49.3 0.00036
49.35 -0
49.4 -0.00061
49.45 -0.00118
49.5 -0.00143
49.55 -0.00134
49.6 -0.00079
49.65 -0.00093
49.7 -0.00132
49.75 -0.00093
49.8 -0.00072
49.85 -0.00107
49.9 -0.00164
49.95 -0.00139
50 -0.00132
50.05 -0.00141
50.1 -0.00116
50.15 -0.00139
50.2 -0.00123
50.25 -0.00047
50.3 0.00058
50.35 0.00068
50.4 0.00021
50.45 -0.00027
50.5 -0.00051
50.55 -0.00084
50.6 -0.00098
50.65 -0.00092
50.7 -0.00122
50.75 -0.00133
50.8 -0.00168
50.85 -0.00207
50.9 -0.00211
50.95 -0.00226
51 -0.00255
51.05 -0.00272
51.1 -0.00272
51.15 -0.00261
51.2 -0.00223
51.25 -0.00166
51.3 -0.00101
51.35 0.00006
51.4 0.00036
51.45 0.00046
51.5 0.00074
51.55 0.00133
51.6 0.00158
51.65 0.00113
51.7 0.00023
51.75 -0.00062
51.8 -0.00134
51.85 -0.00142
51.9 -0.00134
51.95 -0.00054
52 0.00057
52.05 0.00141
52.1 0.00143
52.15 0.00112
52.2 0.00066
52.25 0.0003
52.3 -0.00036
52.35 -0.00025
52.4 -0.00019
52.45 -0.00011
52.5 0.00005
52.55 -0.00025
52.6 -0.00013
52.65 -0.00048
52.7 -0.00059
52.75 -0.0003
52.8 0.00028
52.85 0.00085
52.9 0.00121
52.95 0.00158
53 0.00175
53.05 0.00133
53.1 0.0002
53.15 -0.00054
53.2 -0.00146
53.25 -0.00233
53.3 -0.00346
53.35 -0.00476
53.4 -0.00684
53.45 -0.00925
53.5 -0.01138
53.55 -0.01395
53.6 -0.01692
53.65 -0.01972
53.7 -0.02357
53.75 -0.02763
53.8 -0.03269
53.85 -0.03864
53.9 -0.0451
53.95 -0.05193
54 -0.05984
54.05 -0.06814
54.1 -0.07723
54.15 -0.08672
54.2 -0.0973
54.25 -0.10857
54.3 -0.12063
54.35 -0.13313
54.4 -0.14652
54.45 -0.16075
54.5 -0.17627
54.55 -0.19199
54.6 -0.20839
54.65 -0.22504
54.7 -0.24131
54.75 -0.25771
54.8 -0.27443
54.85 -0.28992
54.9 -0.30482
54.95 -0.31854
55 -0.33176
55.05 -0.34387
55.1 -0.3545
55.15 -0.36352
55.2 -0.37029
55.25 -0.37512
55.3 -0.37673
55.35 -0.37611
55.4 -0.37278
55.45 -0.36675
55.5 -0.35833
55.55 -0.34775
55.6 -0.33446
55.65 -0.31826
55.7 -0.30024
55.75 -0.27966
55.8 -0.25677
55.85 -0.23277
55.9 -0.20703
55.95 -0.17954
56 -0.15121
56.05 -0.12273
56.1 -0.09415
56.15 -0.06543
56.2 -0.03648
56.25 -0.00827
56.3 0.01924
56.35 0.04682
56.4 0.07347
56.45 0.0993
56.5 0.12415
56.55 0.14767
56.6 0.1691
56.65 0.18972
56.7 0.20849
56.75 0.22628
56.8 0.24226
56.85 0.25732
56.9 0.27137
56.95 0.28362
57 0.29466
57.05 0.30417
57.1 0.31201
57.15 0.3193
57.2 0.32524
57.25 0.33019
57.3 0.33404
57.35 0.33701
57.4 0.33971
57.45 0.34166
57.5 0.34301
57.55 0.34322
57.6 0.34217
57.65 0.34042
57.7 0.33786
57.75 0.33505
57.8 0.33151
57.85 0.32751
57.9 0.32289
57.95 0.31723
58 0.3109
58.05 0.30404
58.1 0.29668
58.15 0.28897
58.2 0.28037
58.25 0.27108
58.3 0.26125
58.35 0.25168
58.4 0.24216
58.45 0.23271
58.5 0.22295
58.55 0.21321
58.6 0.20321
58.65 0.19262
58.7 0.18244
58.75 0.1721
58.8 0.16177
58.85 0.15274
58.9 0.14455
58.95 0.13648
59 0.12903
59.05 0.12143
59.1 0.11445
59.15 0.10786
59.2 0.10074
59.25 0.09416
59.3 0.08792
59.35 0.08159
59.4 0.07519
59.45 0.06892
59.5 0.06363
59.55 0.0584
59.6 0.05412
59.65 0.05029
59.7 0.04665
59.75 0.04348
59.8 0.04052
59.85 0.03736
59.9 0.03455
59.95 0.03181
60 0.02936
60.05 0.02615
60.1 0.02296
60.15 0.01939
60.2 0.01645
60.25 0.01347
60.3 0.01023
60.35 0.00745
60.4 0.00496
60.45 0.00287
60.5 0.00112
60.55 -0.00006
60.6 -0.00161
60.65 -0.00283
60.7 -0.00473
60.75 -0.00715
60.8 -0.00979
60.85 -0.01217
60.9 -0.01463
60.95 -0.01675
61 -0.01842
61.05 -0.0202
61.1 -0.02103
61.15 -0.02181
61.2 -0.02254
61.25 -0.0228
61.3 -0.02346
61.35 -0.02417
61.4 -0.02542
61.45 -0.02614
61.5 -0.02655
61.55 -0.02779
61.6 -0.02859
61.65 -0.02954
61.7 -0.03016
61.75 -0.03105
61.8 -0.03177
61.85 -0.03315
61.9 -0.03485
61.95 -0.03577
62 -0.03644
62.05 -0.03739
62.1 -0.03855
62.15 -0.03901
62.2 -0.03956
62.25 -0.04023
62.3 -0.0409
62.35 -0.04114
62.4 -0.04167
62.45 -0.0422
62.5 -0.04277
62.55 -0.04269
62.6 -0.04236
62.65 -0.04233
62.7 -0.04144
62.75 -0.04044
62.8 -0.04014
62.85 -0.04028
62.9 -0.04047
62.95 -0.04069
63 -0.04088
63.05 -0.04014
63.1 -0.03961
63.15 -0.0391
63.2 -0.03884
63.25 -0.03843
63.3 -0.03744
63.35 -0.03623
63.4 -0.03521
63.45 -0.03508
63.5 -0.03514
63.55 -0.03503
63.6 -0.03481
63.65 -0.03471
63.7 -0.03498
63.75 -0.0346
63.8 -0.03446
63.85 -0.03362
63.9 -0.03296
63.95 -0.03265
64 -0.0321
64.05 -0.03106
64.1 -0.03016
64.15 -0.02898
64.2 -0.02878
64.25 -0.02903
64.3 -0.02877
64.35 -0.02838
64.4 -0.02789
64.45 -0.02786
64.5 -0.02774
64.55 -0.02697
64.6 -0.02668
64.65 -0.02609
64.7 -0.02538
64.75 -0.02527
64.8 -0.02473
64.85 -0.02452
64.9 -0.02381
64.95 -0.02342
65 -0.02292
65.05 -0.02299
65.1 -0.02247
65.15 -0.02219
65.2 -0.02223
65.25 -0.0219
65.3 -0.02195
65.35 -0.02206
65.4 -0.02213
65.45 -0.02177
65.5 -0.02181
65.55 -0.02115
65.6 -0.02094
65.65 -0.02107
65.7 -0.02064
65.75 -0.02036
65.8 -0.01964
65.85 -0.01934
65.9 -0.01879
65.95 -0.01834
66 -0.01848
66.05 -0.0187
66.1 -0.0185
66.15 -0.01781
66.2 -0.01719
66.25 -0.0161
66.3 -0.01527
66.35 -0.01473
66.4 -0.01463
66.45 -0.01459
66.5 -0.01449
66.55 -0.01391
66.6 -0.0134
66.65 -0.01334
66.7 -0.01349
66.75 -0.0132
66.8 -0.01349
66.85 -0.01411
66.9 -0.01448
66.95 -0.01403
67 -0.01316
67.05 -0.01267
67.1 -0.01245
67.15 -0.01214
67.2 -0.01133
67.25 -0.01088
67.3 -0.01099
67.35 -0.01137
67.4 -0.01158
67.45 -0.01148
67.5 -0.01076
67.55 -0.0101
67.6 -0.00918
67.65 -0.00835
67.7 -0.00822
67.75 -0.00792
67.8 -0.0083
67.85 -0.00856
67.9 -0.00862
67.95 -0.00837
68 -0.00864
68.05 -0.00869
68.1 -0.00853
68.15 -0.00828
68.2 -0.00818
68.25 -0.00825
68.3 -0.00823
68.35 -0.00868
68.4 -0.00914
68.45 -0.00939
68.5 -0.00966
68.55 -0.00966
68.6 -0.00967
68.65 -0.00945
68.7 -0.00876
68.75 -0.00814
68.8 -0.00732
68.85 -0.00706
68.9 -0.00715
68.95 -0.00764
69 -0.00811
69.05 -0.00797
69.1 -0.00731
69.15 -0.00642
69.2 -0.00633
69.25 -0.00603
69.3 -0.00608
69.35 -0.00649
69.4 -0.00691
69.45 -0.0067
69.5 -0.00631
69.55 -0.00545
69.6 -0.00433
69.65 -0.00314
69.7 -0.00275
69.75 -0.00268
69.8 -0.00255
69.85 -0.00238
69.9 -0.0027
69.95 -0.00291
70 -0.00349
70.05 -0.00388
70.1 -0.00475
70.15 -0.00485
70.2 -0.00444
70.25 -0.00371
70.3 -0.00276
70.35 -0.00259
70.4 -0.00251
70.45 -0.00285
70.5 -0.0029
70.55 -0.00254
70.6 -0.00242
70.65 -0.00206
70.7 -0.00238
70.75 -0.00287
70.8 -0.00276
70.85 -0.00306
70.9 -0.0037
70.95 -0.00472
71 -0.00499
71.05 -0.00516
71.1 -0.00486
71.15 -0.005
71.2 -0.00505
71.25 -0.00507
71.3 -0.00441
71.35 -0.00397
71.4 -0.00357
71.45 -0.00337
71.5 -0.00272
71.55 -0.00229
71.6 -0.00213
71.65 -0.00187
71.7 -0.00198
71.75 -0.00231
71.8 -0.00311
71.85 -0.00378
71.9 -0.004
71.95 -0.00373
72 -0.0032
72.05 -0.00248
72.1 -0.00198
72.15 -0.00187
72.2 -0.00182
72.25 -0.00194
72.3 -0.0017
72.35 -0.00216
72.4 -0.00256
72.45 -0.00259
72.5 -0.00236
72.55 -0.00189
72.6 -0.00167
72.65 -0.00203
72.7 -0.00178
72.75 -0.0015
72.8 -0.00158
72.85 -0.00199
72.9 -0.00202
72.95 -0.0016
73 -0.00171
73.05 -0.00203
73.1 -0.00175
73.15 -0.00214
73.2 -0.00294
73.25 -0.00346
73.3 -0.00333
73.35 -0.00298
73.4 -0.00295
73.45 -0.00238
73.5 -0.00209
73.55 -0.00227
73.6 -0.0019
73.65 -0.00147
73.7 -0.00079
73.75 0.00004
73.8 0.00081
73.85 0.00095
73.9 0.00029
73.95 -0.0001
74 -0.00097
74.05 -0.00185
74.1 -0.00207
74.15 -0.00192
74.2 -0.00158
74.25 -0.00152
74.3 -0.00203
74.35 -0.00278
74.4 -0.00341
74.45 -0.00411
74.5 -0.0045
74.55 -0.00432
74.6 -0.00443
74.65 -0.00375
74.7 -0.00334
74.75 -0.00238
74.8 -0.00173
74.85 -0.00077
74.9 -0.00061
74.95 0
75 0.00013
75.05 -0.00035
75.1 -0.00031
75.15 -0.00033
75.2 -0.00008
75.25 0.00054
75.3 0.00073
75.35 0.0004
75.4 0.00012
75.45 0.00032
75.5 0.00025
75.55 0.00003
75.6 -0.00051
75.65 -0.0007
75.7 -0.0007
75.75 -0.00055
75.8 -0.001
75.85 -0.00156
75.9 -0.00181
75.95 -0.00138
76 -0.00069
76.05 -0.00083
76.1 -0.0014
76.15 -0.00225
76.2 -0.00269
76.25 -0.00254
76.3 -0.00183
76.35 -0.00146
76.4 -0.00132
76.45 -0.00128
76.5 -0.00128
76.55 -0.00121
76.6 -0.00116
76.65 -0.00079
76.7 -0.0006
76.75 -0.00015
76.8 0.00055
76.85 0.00126
76.9 0.00126
76.95 0.00066
77 -0.00037
77.05 -0.00133
77.1 -0.00164
77.15 -0.00211
77.2 -0.00198
77.25 -0.00161
77.3 -0.00167
77.35 -0.00212
77.4 -0.00255
77.45 -0.00221
77.5 -0.00224
77.55 -0.00266
77.6 -0.00229
77.65 -0.00143
77.7 -0.00038
77.75 0.00002
77.8 -0.00029
77.85 -0.00003
77.9 0.00059
77.95 0.00128
78 0.00095
78.05 0.00112
78.1 0.00138
78.15 0.00093
78.2 0.00013
78.25 -0.0004
78.3 -0.00104
78.35 -0.0017
78.4 -0.00204
78.45 -0.00237
78.5 -0.00268
78.55 -0.00294
78.6 -0.00239
78.65 -0.00238
78.7 -0.00277
78.75 -0.00324
78.8 -0.00304
78.85 -0.00256
78.9 -0.00173
78.95 -0.00124
79 -0.0008
79.05 -0.00029
79.1 -0.00046
79.15 -0.00031
79.2 -0.0004
79.25 -0.001
79.3 -0.00108
79.35 -0.00063
79.4 -0.00051
79.45 -0.00002
79.5 0.0007
79.55 0.0009
79.6 0.00072
79.65 0.00003
79.7 -0.00041
79.75 -0.00116
79.8 -0.00131
79.85 -0.00154
79.9 -0.00176
79.95 -0.00233
80 -0.00215
80.05 -0.00163
80.1 -0.00107
80.15 -0.00052
80.2 -0.00069
80.25 -0.0006
80.3 -0.00052
80.35 -0.00034
80.4 -0.00018
80.45 -0.00064
80.5 -0.00036
80.55 -0.00043
80.6 -0.00007
80.65 -0.00022
80.7 -0.00085
80.75 -0.00082
80.8 -0.00025
80.85 -0.00033
80.9 -0.00038
80.95 -0.00022
81 -0.00022
81.05 -0.00039
81.1 -0.00036
81.15 -0.00081
81.2 -0.0016
81.25 -0.00207
81.3 -0.00258
81.35 -0.0028
81.4 -0.00251
81.45 -0.0022
81.5 -0.00135
81.55 -0.00031
81.6 0.00052
81.65 0.00054
81.7 0.00069
81.75 0.00083
81.8 0.00028
81.85 0.00001
81.9 0.00028
81.95 -0.00005
82 -0.00053
82.05 -0.00092
82.1 -0.00099
82.15 -0.00053
82.2 0.00021
82.25 0.00027
82.3 -0.00011
82.35 -0.00069
82.4 -0.00117
82.45 -0.00159
82.5 -0.00116
82.55 -0.00045
82.6 -0.00043
82.65 0.00017
82.7 0.00088
82.75 0.00183
82.8 0.00196
82.85 0.0023
82.9 0.00266
82.95 0.00218
83 0.00211
83.05 0.0016
83.1 0.00085
83.15 -0.00016
83.2 -0.00025
83.25 -0.00077
83.3 -0.00048
83.35 -0.00072
83.4 -0.00031
83.45 0.00046
83.5 0.00098
83.55 0.00064
83.6 0.00005
83.65 -0.00076
83.7 -0.00126
83.75 -0.00171
83.8 -0.00161
83.85 -0.0012
83.9 -0.00086
83.95 -0.00055
84 -0.00002
84.05 0.00048
84.1 0.00122
84.15 0.00114
84.2 0.00059
84.25 0.00007
84.3 -0.00035
84.35 -0.00027
84.4 0.00021
84.45 0.00022
84.5 -0.0002
84.55 0.00003
84.6 -0
84.65 -0.00043
84.7 -0.00062
84.75 -0.00085
84.8 -0.00137
84.85 -0.00118
84.9 -0.00047
84.95 -0.00003
85 -0.00021
85.05 -0.0008
85.1 -0.0006
85.15 0.00005
85.2 0.00076
85.25 0.00078
85.3 0.00101
85.35 0.00099
85.4 0.00098
85.45 0.00102
85.5 0.00064
85.55 0.0009
85.6 0.00061
85.65 0.00058
85.7 0.00047
85.75 0.00076
85.8 0.0013
85.85 0.00146
85.9 0.00175
85.95 0.00161
86 0.00181
86.05 0.00197
86.1 0.00133
86.15 0.00052
86.2 0.00038
86.25 0.00028
86.3 -0.00032
86.35 -0.00054
86.4 -0.00009
86.45 -0.0001
86.5 0.00017
86.55 0.00013
86.6 -0.00002
86.65 -0.00022
86.7 -0.00018
86.75 -0.0002
86.8 -0.00052
86.85 -0.00092
86.9 -0.00062
86.95 0.00019
87 0.00083
87.05 0.00105
87.1 0.00162
87.15 0.00195
87.2 0.00216
87.25 0.00191
87.3 0.00114
87.35 0.00014
87.4 -0.0003
87.45 -0.00006
87.5 -0.00003
87.55 -0.0005
87.6 -0.0011
87.65 -0.00187
87.7 -0.00199
87.75 -0.00215
87.8 -0.00224
87.85 -0.00257
87.9 -0.0025
87.95 -0.00247
88 -0.00238
88.05 -0.00201
88.1 -0.00218
88.15 -0.00199
88.2 -0.00162
88.25 -0.00083
88.3 -0.00021
88.35 0.00051
88.4 0.00101
88.45 0.00072
88.5 0.00105
88.55 0.00134
88.6 0.00117
88.65 0.0005
88.7 -0.00035
88.75 -0.00055
88.8 -0.00107
88.85 -0.0017
88.9 -0.00202
88.95 -0.00191
89 -0.00162
89.05 -0.00183
89.1 -0.00159
89.15 -0.00098
89.2 -0.00034
89.25 -0.00005
89.3 0.00038
89.35 0.00053
89.4 0.00102
89.45 0.00156
89.5 0.00125
89.55 0.00075
89.6 -0.00017
89.65 -0.0011
89.7 -0.00203
89.75 -0.00221
89.8 -0.00172
89.85 -0.00099
89.9 -0.00034
89.95 0.00002
90 0.00035
90.05 0.00092
90.1 0.00153
90.15 0.00222
90.2 0.00275
90.25 0.00283
90.3 0.00223
90.35 0.00188
90.4 0.00206
90.45 0.00204
90.5 0.00163
90.55 0.00085
90.6 0.00068
90.65 0.00093
90.7 0.00065
90.75 0.0002
90.8 0.00015
90.85 0.00017
90.9 0.00053
90.95 0.00096
91 0.00121
91.05 0.00072
91.1 0.00032
91.15 -0.00028
91.2 -0.00078
91.25 -0.00113
91.3 -0.00174
91.35 -0.00159
91.4 -0.00081
91.45 -0.00081
91.5 -0.0013
91.55 -0.0016
91.6 -0.00124
91.65 -0.00133
91.7 -0.00114
91.75 -0.00124
91.8 -0.0012
91.85 -0.00102
91.9 -0.00032
91.95 0.00015
92 0.00049
92.05 0.00057
92.1 0.00054
92.15 -0.00008
92.2 -0.00088
92.25 -0.00167
92.3 -0.00168
92.35 -0.00167
92.4 -0.00134
92.45 -0.00156
92.5 -0.00158
92.55 -0.00186
92.6 -0.00222
92.65 -0.00211
92.7 -0.00198
92.75 -0.00228
92.8 -0.00171
92.85 -0.00167
92.9 -0.00112
92.95 -0.00111
93 -0.00116
93.05 -0.00059
93.1 -0.00064
93.15 -0.00021
93.2 0.00068
93.25 0.00099
93.3 0.00097
93.35 0.00035
93.4 0.00015
93.45 -0.00015
93.5 -0.00012
93.55 -0.00018
93.6 -0.00059
93.65 -0.00108
93.7 -0.00167
93.75 -0.00205
93.8 -0.00152
93.85 -0.00094
93.9 -0.00031
93.95 0.00023
94 0.00073
94.05 0.0013
94.1 0.00112
94.15 0.00099
94.2 0.00103
94.25 0.00087
94.3 0.00093
94.35 0.00118
94.4 0.00163
94.45 0.00214
94.5 0.00183
94.55 0.00094
94.6 0.00013
94.65 -0.00084
94.7 -0.00146
94.75 -0.00113
94.8 -0.00069
94.85 -0.00072
94.9 -0.0009
94.95 -0.00036
95 0.00044
95.05 0.00137
95.1 0.00144
95.15 0.00088
95.2 -0.00005
95.25 -0.00118
95.3 -0.00225
95.35 -0.00291
95.4 -0.00271
95.45 -0.00227
95.5 -0.00182
95.55 -0.00157
95.6 -0.00072
95.65 -0.00017
95.7 -0.0003
95.75 0.0002
95.8 0.00078
95.85 0.00084
95.9 0.00137
95.95 0.0017
96 0.00157
96.05 0.0017
96.1 0.00179
96.15 0.00128
96.2 0.00035
96.25 -0.00069
96.3 -0.00146
96.35 -0.00129
96.4 -0.00141
96.45 -0.00172
96.5 -0.00145
96.55 -0.00152
96.6 -0.00099
96.65 -0.00076
96.7 -0.00035
96.75 -0.00017
96.8 -0.00058
96.85 -0.00048
96.9 -0.00008
96.95 0.00038
97 0.00041
97.05 0.0002
97.1 -0.00003
97.15 0.00026
97.2 0.0001
97.25 0.00014
97.3 0.00017
97.35 0.0001
97.4 -0.00015
97.45 0.00018
97.5 0.00086
97.55 0.00099
97.6 0.00064
97.65 0.00085
97.7 0.00085
97.75 0.00026
97.8 -0.00047
97.85 -0.00117
97.9 -0.00096
97.95 -0.00024
98 0.0006
98.05 0.00149
98.1 0.00203
98.15 0.0023
98.2 0.00206
98.25 0.00183
98.3 0.00204
98.35 0.00177
98.4 0.00175
98.45 0.00216
98.5 0.00231
98.55 0.00271
98.6 0.00327
98.65 0.00314
98.7 0.00304
98.75 0.0026
98.8 0.00225
98.85 0.00159
98.9 0.00128
98.95 0.00137
99 0.00163
99.05 0.00191
99.1 0.00239
99.15 0.00264
99.2 0.00275
99.25 0.00309
99.3 0.00268
99.35 0.00234
99.4 0.00153
99.45 0.00142
99.5 0.00134
99.55 0.00089
99.6 -0.00006
99.65 -0.00127
99.7 -0.00237
99.75 -0.00316
99.8 -0.0033
99.85 -0.00265
99.9 -0.00205
99.95 -0.00203
