0 0
0.05 0.00107
0.1 0.0029
0.15 0.00484
0.2 0.00585
0.25 0.00603
0.3 0.006
0.35 0.00607
0.4 0.00577
0.45 0.00524
0.5 0.0058
0.55 0.00628
0.6 0.00761
0.65 0.008
0.7 0.00783
0.75 0.00824
0.8 0.00877
0.85 0.00874
0.9 0.00871
0.95 0.00801
1 0.00848
1.05 0.00865
1.1 0.00935
1.15 0.01038
1.2 0.0103
1.25 0.00973
1.3 0.00918
1.35 0.00922
1.4 0.00957
1.45 0.00931
1.5 0.00932
1.55 0.00978
1.6 0.01063
1.65 0.01126
1.7 0.01065
1.75 0.00911
1.8 0.00731
1.85 0.00549
1.9 0.00434
1.95 0.00309
2 0.00248
2.05 0.00318
2.1 0.00365
2.15 0.00479
2.2 0.00482
2.25 0.0044
2.3 0.00366
2.35 0.00252
2.4 0.00198
2.45 0.00197
2.5 0.00246
2.55 0.00302
2.6 0.00367
2.65 0.00349
2.7 0.00356
2.75 0.00403
2.8 0.0039
2.85 0.00337
2.9 0.00303
2.95 0.00223
3 0.00151
3.05 0.00214
3.1 0.00275
3.15 0.00368
3.2 0.00363
3.25 0.00345
3.3 0.00336
3.35 0.00382
3.4 0.0034
3.45 0.00395
3.5 0.0051
3.55 0.00494
3.6 0.00551
3.65 0.00612
3.7 0.00719
3.75 0.00776
3.8 0.00796
3.85 0.00803
3.9 0.0073
3.95 0.00666
4 0.00563
4.05 0.00511
4.1 0.00537
4.15 0.00491
4.2 0.00514
4.25 0.00503
4.3 0.00516
4.35 0.00551
4.4 0.00578
4.45 0.00594
4.5 0.00518
4.55 0.00385
4.6 0.00214
4.65 0.00147
4.7 0.00163
4.75 0.00259
4.8 0.00261
4.85 0.00256
4.9 0.00318
4.95 0.00395
5 0.0043
5.05 0.00497
5.1 0.00574
5.15 0.0053
5.2 0.00477
5.25 0.00343
5.3 0.0031
5.35 0.00291
5.4 0.00195
5.45 0.00123
5.5 0.00122
5.55 0.0021
5.6 0.00182
5.65 0.0008
5.7 -0.00055
5.75 -0.00181
5.8 -0.00161
5.85 -0.0016
5.9 -0.00158
5.95 -0.00147
6 -0.00188
6.05 -0.00189
6.1 -0.0009
6.15 0.00062
6.2 0.00205
6.25 0.00288
6.3 0.00263
6.35 0.00285
6.4 0.00236
6.45 0.00266
6.5 0.00222
6.55 0.00133
6.6 0.00063
6.65 0.00017
6.7 0.00059
6.75 0.00056
6.8 0.00143
6.85 0.00111
6.9 0.00138
6.95 0.00093
7 0.00132
7.05 0.00112
7.1 0.00168
7.15 0.00285
7.2 0.0028
7.25 0.00315
7.3 0.00324
7.35 0.00257
7.4 0.00239
7.45 0.00275
7.5 0.00351
7.55 0.00376
7.6 0.00357
7.65 0.00334
7.7 0.00286
7.75 0.00286
7.8 0.00315
7.85 0.00273
7.9 0.00306
7.95 0.00323
8 0.00366
8.05 0.00427
8.1 0.00368
8.15 0.00321
8.2 0.00275
8.25 0.00255
8.3 0.00138
8.35 0.00002
8.4 -0.00161
8.45 -0.00213
8.5 -0.00306
8.55 -0.00292
8.6 -0.00253
8.65 -0.00183
8.7 -0.00087
8.75 -0.00097
8.8 -0.0007
8.85 -0.00041
8.9 0.00019
8.95 0.00068
9 0.00118
9.05 0.00127
9.1 0.00164
9.15 0.00178
9.2 0.00134
9.25 0.00086
9.3 -0.00005
9.35 -0.00098
9.4 -0.00074
9.45 -0.00129
9.5 -0.00238
9.55 -0.00306
9.6 -0.00373
9.65 -0.00467
9.7 -0.00555
9.75 -0.00644
9.8 -0.00695
9.85 -0.00713
9.9 -0.00596
9.95 -0.00538
10 -0.00476
10.05 -0.00348
10.1 -0.00246
10.15 -0.00211
10.2 -0.00185
10.25 -0.00164
10.3 -0.00078
10.35 -0.00075
10.4 0.0001
10.45 0.00066
10.5 0.00063
10.55 0.00029
10.6 0.0005
10.65 0.00134
10.7 0.00107
10.75 0.00105
10.8 0.0018
10.85 0.00142
10.9 0.00074
10.95 0.00079
11 0.00015
11.05 -0
11.1 0.00058
11.15 0.00168
11.2 0.00187
11.25 0.00186
11.3 0.0011
11.35 0.00132
11.4 0.00104
11.45 0.00114
11.5 0.0015
11.55 0.00141
11.6 0.00066
11.65 0.00015
11.7 -0.00009
11.75 0.00031
11.8 0.00039
11.85 -0.00015
11.9 -0.00035
11.95 0.00014
12 -0.00011
12.05 -0.0003
12.1 -0.00005
12.15 0.00088
12.2 0.00113
12.25 0.00158
12.3 0.00222
12.35 0.0032
12.4 0.00305
12.45 0.00349
12.5 0.00421
12.55 0.00419
12.6 0.00313
12.65 0.00284
12.7 0.00258
12.75 0.00238
12.8 0.00271
12.85 0.00226
12.9 0.00107
12.95 0.00034
13 0.00012
13.05 -0.00066
13.1 -0.00149
13.15 -0.00166
13.2 -0.00142
13.25 -0.00042
13.3 -0.00051
13.35 -0.00064
13.4 -0.0011
13.45 -0.00176
13.5 -0.00181
13.55 -0.00156
13.6 -0.00092
13.65 0.00011
13.7 0.00004
13.75 -0.0002
13.8 -0.001
13.85 -0.0022
13.9 -0.00244
13.95 -0.00266
14 -0.00337
14.05 -0.00358
14.1 -0.00413
14.15 -0.00391
14.2 -0.00415
14.25 -0.00424
14.3 -0.0047
14.35 -0.00477
14.4 -0.004
14.45 -0.00248
14.5 -0.00179
14.55 -0.0008
14.6 0.00006
14.65 0.00153
14.7 0.00272
14.75 0.00416
14.8 0.00453
14.85 0.00445
14.9 0.00328
14.95 0.00169
15 0.00102
15.05 0.00102
15.1 0.00107
15.15 0.00076
15.2 0.00138
15.25 0.00208
15.3 0.00219
15.35 0.00188
15.4 0.00098
15.45 -0.00006
15.5 -0.0013
15.55 -0.00234
15.6 -0.00231
15.65 -0.0021
15.7 -0.00193
15.75 -0.00186
15.8 -0.00109
15.85 0.00003
15.9 0.00158
15.95 0.00309
16 0.00461
16.05 0.00475
16.1 0.00466
16.15 0.00381
16.2 0.00292
16.25 0.00288
16.3 0.00248
16.35 0.00188
16.4 0.00217
16.45 0.002
16.5 0.00128
16.55 0.00053
16.6 -0.0003
16.65 -0.00161
16.7 -0.00195
16.75 -0.00236
16.8 -0.00291
16.85 -0.00273
16.9 -0.00225
16.95 -0.00146
17 -0.00101
17.05 -0.00067
17.1 -0.00007
17.15 0.00081
17.2 0.00095
17.25 0.00025
17.3 -0.00051
17.35 -0.00148
17.4 -0.00168
17.45 -0.00177
17.5 -0.00144
17.55 -0.0005
17.6 0.00017
17.65 0.00119
17.7 0.00178
17.75 0.00215
17.8 0.0016
17.85 0.00075
17.9 0.0006
17.95 0.00073
18 -0.00003
18.05 0.00025
18.1 -0.0003
18.15 -0.00068
18.2 -0.00006
18.25 -0.0004
18.3 -0.00062
18.35 0.00012
18.4 -0.0001
18.45 -0.00076
18.5 -0.00149
18.55 -0.00107
18.6 -0.00124
18.65 -0.00108
18.7 -0.00007
18.75 0.00138
18.8 0.00257
18.85 0.00352
18.9 0.00377
18.95 0.00282
19 0.00151
19.05 0.00124
19.1 0.00119
19.15 0.00176
19.2 0.00173
19.25 0.00083
19.3 -0.00029
19.35 -0.00074
19.4 -0.0003
19.45 -0
19.5 -0.00006
19.55 -0.00084
19.6 -0.00146
19.65 -0.00222
19.7 -0.00237
19.75 -0.00301
19.8 -0.00358
19.85 -0.00359
19.9 -0.00302
19.95 -0.00235
20 -0.00117
20.05 0.00052
20.1 0.00179
20.15 0.0027
20.2 0.00283
20.25 0.00244
20.3 0.00132
20.35 0.00061
20.4 -0.00054
20.45 -0.0012
20.5 -0.00188
20.55 -0.00186
20.6 -0.00085
20.65 0.0005
20.7 0.00206
20.75 0.00272
20.8 0.00242
20.85 0.00281
20.9 0.00321
20.95 0.00356
21 0.00269
21.05 0.00112
21.1 -0.00053
21.15 -0.00237
21.2 -0.00348
21.25 -0.00434
21.3 -0.00432
21.35 -0.0042
21.4 -0.00326
21.45 -0.00187
21.5 -0.00139
21.55 -0.00131
21.6 -0.00151
21.65 -0.00233
21.7 -0.00288
21.75 -0.00327
21.8 -0.00355
21.85 -0.0027
21.9 -0.00248
21.95 -0.00142
22 -0.00027
22.05 0.001
22.1 0.00263
22.15 0.00273
22.2 0.00215
22.25 0.00209
22.3 0.00126
22.35 0.00091
22.4 0.00038
22.45 0.00066
22.5 0.00047
22.55 -0.00021
22.6 0.00007
22.65 0.00003
22.7 0.00005
22.75 -0.00029
22.8 0.00018
22.85 0.00128
22.9 0.00185
22.95 0.00281
23 0.00357
23.05 0.00348
23.1 0.004
23.15 0.00426
23.2 0.00439
23.25 0.0036
23.3 0.00208
23.35 0.00179
23.4 0.00121
23.45 0.00039
23.5 0.00035
23.55 0.00093
23.6 0.00196
23.65 0.00324
23.7 0.004
23.75 0.00389
23.8 0.00335
23.85 0.00311
23.9 0.00194
23.95 0.00064
24 0.00019
24.05 0.00044
24.1 0.00064
24.15 0.00095
24.2 0.00105
24.25 0.00038
24.3 -0.00026
24.35 -0.00017
24.4 0.00021
24.45 0.00086
24.5 0.00133
24.55 0.0012
24.6 0.00109
24.65 0.00054
24.7 -0.00026
24.75 0.00005
24.8 -0.00033
24.85 -0.00134
24.9 -0.00112
24.95 -0.00023
25 0.00039
25.05 0.00083
25.1 0.00072
25.15 0.00051
25.2 0.00006
25.25 -0.00004
25.3 0.00001
25.35 0.0004
25.4 0.00065
25.45 0.00143
25.5 0.00204
25.55 0.00149
25.6 0.00113
25.65 0.00145
25.7 0.00171
25.75 0.00129
25.8 0.00048
25.85 -0.00098
25.9 -0.00222
25.95 -0.00254
26 -0.00274
26.05 -0.00315
26.1 -0.0029
26.15 -0.0021
26.2 -0.0015
26.25 -0.00121
26.3 -0.0003
26.35 -0.00041
26.4 -0.00129
26.45 -0.00132
26.5 -0.00141
26.55 -0.00139
26.6 -0.00148
26.65 -0.00091
26.7 0.00036
26.75 0.00083
26.8 0.00061
26.85 0.00096
26.9 0.00038
26.95 0.00036
27 0.00093
27.05 0.00178
27.1 0.00267
27.15 0.00346
27.2 0.00391
27.25 0.00414
27.3 0.00402
27.35 0.00325
27.4 0.00201
27.45 0.00036
27.5 -0.00027
27.55 -0.00063
27.6 -0.00118
27.65 -0.00233
27.7 -0.00243
27.75 -0.00186
27.8 -0.00162
27.85 -0.00056
27.9 0.0008
27.95 0.00199
28 0.00278
28.05 0.00272
28.1 0.0021
28.15 0.00168
28.2 0.00063
28.25 -0.00005
28.3 -0.00081
28.35 -0.00118
28.4 -0.00101
28.45 -0.00067
28.5 -0.00087
28.55 -0.00039
28.6 0.00061
28.65 0.00072
28.7 0.00121
28.75 0.00097
28.8 0.00053
28.85 -0.00015
28.9 -0.00127
28.95 -0.00271
29 -0.0043
29.05 -0.0052
29.1 -0.00479
29.15 -0.0036
29.2 -0.0028
29.25 -0.00284
29.3 -0.00349
29.35 -0.00334
29.4 -0.00266
29.45 -0.00225
29.5 -0.00144
29.55 -0.00102
29.6 -0.00112
29.65 -0.00139
29.7 -0.00176
29.75 -0.00104
29.8 -0.00089
29.85 -0.00059
29.9 -0.0011
29.95 -0.0006
30 0.00059
30.05 0.00209
30.1 0.00222
30.15 0.00157
30.2 0.00138
30.25 0.00036
30.3 0.00042
30.35 -0.00026
30.4 -0.00145
30.45 -0.00188
30.5 -0.00168
30.55 -0.00086
30.6 -0.00001
30.65 0.00073
30.7 0.00045
30.75 0.00056
30.8 -0.00021
30.85 -0.00138
30.9 -0.00243
30.95 -0.00252
31 -0.00296
31.05 -0.00287
31.1 -0.00319
31.15 -0.00352
31.2 -0.00322
31.25 -0.00294
31.3 -0.00279
31.35 -0.00182
31.4 -0.00039
31.45 0.00097
31.5 0.00255
31.55 0.00285
31.6 0.002
31.65 0.00173
31.7 0.00075
31.75 0.00032
31.8 -0.00042
31.85 -0.00086
31.9 -0.00172
31.95 -0.00276
32 -0.00244
32.05 -0.00224
32.1 -0.00197
32.15 -0.00187
32.2 -0.00225
32.25 -0.0028
32.3 -0.00275
32.35 -0.00165
32.4 -0.00074
32.45 -0.00045
32.5 -0.00089
32.55 -0.00032
32.6 0.00085
32.65 0.00069
32.7 0.00114
32.75 0.00187
32.8 0.00137
32.85 0.00076
32.9 0.00029
32.95 -0.00069
33 -0.00064
33.05 -0.00129
33.1 -0.00225
33.15 -0.00203
33.2 -0.00188
33.25 -0.00224
33.3 -0.00208
33.35 -0.00256
33.4 -0.00321
33.45 -0.00295
33.5 -0.00314
33.55 -0.00313
33.6 -0.00361
33.65 -0.0043
33.7 -0.00349
33.75 -0.00276
33.8 -0.00149
33.85 0.00002
33.9 0.00082
33.95 0.00112
34 0.00068
34.05 -0.00018
34.1 -0.00113
34.15 -0.00096
34.2 0.00003
34.25 0.00106
34.3 0.00246
34.35 0.00234
34.4 0.00218
34.45 0.00222
34.5 0.00139
34.55 0.00054
34.6 0.00067
34.65 0.00052
34.7 0.0004
34.75 0.00078
34.8 0.00044
34.85 -0.00039
34.9 -0.00016
34.95 0.00048
35 0.00138
35.05 0.00174
35.1 0.00237
35.15 0.00243
35.2 0.00163
35.25 0.00153
35.3 0.00174
35.35 0.00191
35.4 0.00119
35.45 0.00051
35.5 0.0008
35.55 0.00021
35.6 -0.00075
35.65 -0.00058
35.7 0.00017
35.75 0.00125
35.8 0.00166
35.85 0.00195
35.9 0.00127
35.95 0.00066
36 0.00022
36.05 -0.00007
36.1 -0.00097
36.15 -0.00157
36.2 -0.00092
36.25 -0.00003
36.3 0.00071
36.35 0.00109
36.4 0.00114
36.45 0.00097
36.5 0.0005
36.55 0.00003
36.6 -0.00061
36.65 -0.00017
36.7 0.00026
36.75 0.00048
36.8 0.00078
36.85 0.00047
36.9 -0.00032
36.95 -0.00095
37 -0.00088
37.05 -0.00035
37.1 -0.00026
37.15 -0.00041
37.2 -0.00037
37.25 0.00006
37.3 0.00033
37.35 0.00028
37.4 0.0008
37.45 0.00049
37.5 0.00033
37.55 -0.00033
37.6 -0.00104
37.65 -0.0006
37.7 -0.00016
37.75 -0.00052
37.8 -0.00133
37.85 -0.00172
37.9 -0.00181
37.95 -0.00157
38 -0.00094
38.05 -0.00054
38.1 0.00015
38.15 -0.00024
38.2 -0.00087
38.25 -0.00129
38.3 -0.00168
38.35 -0.00171
38.4 -0.00223
38.45 -0.00273
38.5 -0.00364
38.55 -0.00358
38.6 -0.00267
38.65 -0.00166
38.7 -0.00005
38.75 0.00137
38.8 0.00191
38.85 0.00224
38.9 0.00168
38.95 0.00167
39 0.00071
39.05 -0.00023
39.1 -0.0006
39.15 -0.00134
39.2 -0.00176
39.25 -0.00131
39.3 -0.00073
39.35 -0.00085
39.4 -0.00163
39.45 -0.00196
39.5 -0.00271
39.55 -0.00338
39.6 -0.00295
39.65 -0.00209
39.7 -0.00061
39.75 -0.00018
39.8 -0.00022
39.85 -0.00055
39.9 -0.00058
39.95 0.00022
40 0.00163
40.05 0.00236
40.1 0.00267
40.15 0.00189
40.2 0.00136
40.25 0.00157
40.3 0.00122
40.35 0.00172
40.4 0.00275
40.45 0.00255
40.5 0.00193
40.55 0.00221
40.6 0.0021
40.65 0.00175
40.7 0.00107
40.75 0.00093
40.8 0.00102
40.85 0.00161
40.9 0.00158
40.95 0.00122
41 0.00084
41.05 0.00026
41.1 -0.00018
41.15 -0.00111
41.2 -0.00077
41.25 -0.00094
41.3 -0.0005
41.35 -0.00018
41.4 -0.00074
41.45 -0.00026
41.5 -0.00026
41.55 -0.00001
41.6 -0.00022
41.65 0.00042
41.7 0.00035
41.75 0.001
41.8 0.002
41.85 0.00223
41.9 0.00138
41.95 0.00139
42 0.00043
42.05 0.00062
42.1 0.00102
42.15 0.00184
42.2 0.00262
42.25 0.00331
42.3 0.00321
42.35 0.00264
42.4 0.00195
42.45 0.00115
42.5 0.00028
42.55 -0.00084
42.6 -0.00131
42.65 -0.00201
42.7 -0.00173
42.75 -0.0014
42.8 -0.00176
42.85 -0.00136
42.9 -0.00146
42.95 -0.00108
43 -0.00078
43.05 0.00008
43.1 -0
43.15 0.00045
43.2 0.00115
43.25 0.00164
43.3 0.00122
43.35 0.00073
43.4 0.00057
43.45 0.00008
43.5 -0.00011
43.55 0.00044
43.6 0.00006
43.65 -0.00105
43.7 -0.00099
43.75 -0.0007
43.8 0.00001
43.85 0.00126
43.9 0.00156
43.95 0.00246
44 0.00196
44.05 0.00068
44.1 -0.00071
44.15 -0.00176
44.2 -0.00192
44.25 -0.0015
44.3 -0.00138
44.35 -0.00084
44.4 -0.00057
44.45 -0.00049
44.5 0.0002
44.55 0.00021
44.6 -0.00014
44.65 -0
44.7 0.00049
44.75 0.00042
44.8 0.00011
44.85 -0.00007
44.9 0.00011
44.95 0.00096
45 0.00179
45.05 0.0026
45.1 0.00284
45.15 0.00194
45.2 0.00062
45.25 -0.00077
45.3 -0.00168
45.35 -0.00265
45.4 -0.003
45.45 -0.00362
45.5 -0.00304
45.55 -0.00156
45.6 -0.00134
45.65 -0.0007
45.7 -0.00064
45.75 0.00022
45.8 -0.00008
45.85 -0.00106
45.9 -0.00165
45.95 -0.00171
46 -0.00227
46.05 -0.00289
46.1 -0.00347
46.15 -0.00438
46.2 -0.00427
46.25 -0.00311
46.3 -0.00134
46.35 0.00038
46.4 0.00215
46.45 0.00315
46.5 0.00289
46.55 0.00244
46.6 0.00238
46.65 0.00201
46.7 0.00146
46.75 0.00063
46.8 0.0006
46.85 0.00071
46.9 0.00009
46.95 -0.00023
47 -0.00024
47.05 0.00014
47.1 0.00108
47.15 0.00238
47.2 0.00386
47.25 0.0051
47.3 0.00604
47.35 0.00595
47.4 0.00612
47.45 0.00556
47.5 0.00445
47.55 0.00342
47.6 0.00264
47.65 0.00215
47.7 0.00101
47.75 0.00002
47.8 -0.00121
47.85 -0.00225
47.9 -0.00354
47.95 -0.00383
48 -0.00335
48.05 -0.00355
48.1 -0.00327
48.15 -0.00265
48.2 -0.00168
48.25 -0.00062
48.3 -0.00038
48.35 0.00056
48.4 0.00025
48.45 -0.00033
48.5 -0.00086
48.55 -0.00119
48.6 -0.00107
48.65 -0.00016
48.7 0.00114
48.75 0.00166
48.8 0.00231
48.85 0.00336
48.9 0.00363
48.95 0.00301
49 0.0021
49.05 0.0018
49.1 0.00172
49.15 0.00156
49.2 0.00173
49.25 0.00157
49.3 0.0013
49.35 0.00104
49.4 0.00008
49.45 -0.00109
49.5 -0.00171
49.55 -0.00148
49.6 -0.00198
49.65 -0.00227
49.7 -0.00195
49.75 -0.00133
49.8 -0.00143
49.85 -0.00227
49.9 -0.00284
49.95 -0.00298
50 -0.00344
50.05 -0.00403
50.1 -0.00452
50.15 -0.00497
50.2 -0.00501
50.25 -0.0047
50.3 -0.00395
50.35 -0.0025
50.4 -0.00172
50.45 -0.00105
50.5 -0.00064
50.55 -0.0001
50.6 0.00025
50.65 0.00077
50.7 0.0011
50.75 0.0013
50.8 0.00123
50.85 0.00148
50.9 0.00211
50.95 0.00309
51 0.00418
51.05 0.00459
51.1 0.00465
51.15 0.00355
51.2 0.00229
51.25 0.00063
51.3 0.00037
51.35 0.00085
51.4 0.00089
51.45 0.00048
51.5 0.00016
51.55 0.00001
51.6 -0.00078
51.65 -0.00143
51.7 -0.0023
51.75 -0.00354
51.8 -0.0037
51.85 -0.00415
51.9 -0.00492
51.95 -0.00544
52 -0.00518
52.05 -0.00439
52.1 -0.00291
52.15 -0.00204
52.2 -0.00112
52.25 -0.00061
52.3 0.00027
52.35 0.00011
52.4 -0.00015
52.45 -0.00076
52.5 -0.00033
52.55 -0.00085
52.6 -0.0005
52.65 -0.00037
52.7 -0.00038
52.75 -0.00077
52.8 -0.00046
52.85 -0.0004
52.9 -0.00074
52.95 -0.00144
53 -0.00089
53.05 0.00025
53.1 0.00052
53.15 -0.00008
53.2 0
53.25 -0
53.3 -0.00003
53.35 -0.00077
53.4 -0.0007
53.45 -0.00104
53.5 -0.00118
53.55 -0.00149
53.6 -0.00071
53.65 0.00011
53.7 0.00046
53.75 0.00154
53.8 0.00174
53.85 0.0017
53.9 0.00145
53.95 0.00072
54 -0.00016
54.05 0.00014
54.1 0.00067
54.15 0.00106
54.2 0.00211
54.25 0.00312
54.3 0.00315
54.35 0.0025
54.4 0.00135
54.45 0.00003
54.5 -0.00122
54.55 -0.00139
54.6 -0.00123
54.65 -0.00114
54.7 -0.00111
54.75 -0.00028
54.8 0.00037
54.85 0.0005
54.9 0.00093
54.95 0.00142
55 0.00229
55.05 0.00295
55.1 0.00274
55.15 0.00232
55.2 0.00219
55.25 0.00197
55.3 0.00239
55.35 0.00265
55.4 0.00311
55.45 0.00277
55.5 0.00225
55.55 0.00182
55.6 0.00214
55.65 0.00127
55.7 0.00019
55.75 -0.00084
55.8 -0.00151
55.85 -0.00218
55.9 -0.00305
55.95 -0.00368
56 -0.00462
56.05 -0.00554
56.1 -0.00605
56.15 -0.00672
56.2 -0.00862
56.25 -0.01095
56.3 -0.01335
56.35 -0.01561
56.4 -0.01777
56.45 -0.02119
56.5 -0.0246
56.55 -0.02832
56.6 -0.03305
56.65 -0.03792
56.7 -0.04452
56.75 -0.05088
56.8 -0.05829
56.85 -0.06669
56.9 -0.07576
56.95 -0.0871
57 -0.0993
57.05 -0.11399
57.1 -0.12946
57.15 -0.1461
57.2 -0.16508
57.25 -0.18502
57.3 -0.20583
57.35 -0.22784
57.4 -0.25166
57.45 -0.27687
57.5 -0.30339
57.55 -0.33132
57.6 -0.35981
57.65 -0.3882
57.7 -0.41545
57.75 -0.44239
57.8 -0.46807
57.85 -0.49153
57.9 -0.51319
57.95 -0.53373
58 -0.55254
58.05 -0.56874
58.1 -0.5803
58.15 -0.58775
58.2 -0.592
58.25 -0.5912
58.3 -0.58532
58.35 -0.57605
58.4 -0.56132
58.45 -0.54198
58.5 -0.51876
58.55 -0.49089
58.6 -0.45959
58.65 -0.42385
58.7 -0.38503
58.75 -0.34275
58.8 -0.299
58.85 -0.25289
58.9 -0.20557
58.95 -0.15632
59 -0.10722
59.05 -0.05889
59.1 -0.01105
59.15 0.03601
59.2 0.08162
59.25 0.12577
59.3 0.16813
59.35 0.20872
59.4 0.24583
59.45 0.28097
59.5 0.31328
59.55 0.34226
59.6 0.36847
59.65 0.39173
59.7 0.41217
59.75 0.42851
59.8 0.44304
59.85 0.45534
59.9 0.46537
59.95 0.4734
60 0.47872
60.05 0.4817
60.1 0.48393
60.15 0.4849
60.2 0.48461
60.25 0.48278
60.3 0.47951
60.35 0.47582
60.4 0.47203
60.45 0.46751
60.5 0.4618
60.55 0.45554
60.6 0.44876
60.65 0.441
60.7 0.43319
60.75 0.42435
60.8 0.41495
60.85 0.40623
60.9 0.39669
60.95 0.38752
61 0.3768
61.05 0.3652
61.1 0.35334
61.15 0.3413
61.2 0.32915
61.25 0.31677
61.3 0.30489
61.35 0.29412
61.4 0.28313
61.45 0.27309
61.5 0.26244
61.55 0.2517
61.6 0.24238
61.65 0.23311
61.7 0.22412
61.75 0.21502
61.8 0.20632
61.85 0.19808
61.9 0.19054
61.95 0.18186
62 0.17276
62.05 0.16347
62.1 0.155
62.15 0.14745
62.2 0.14078
62.25 0.13336
62.3 0.12721
62.35 0.121
62.4 0.11482
62.45 0.10835
62.5 0.10157
62.55 0.09504
62.6 0.0893
62.65 0.08343
62.7 0.07762
62.75 0.0724
62.8 0.06673
62.85 0.06109
62.9 0.05559
62.95 0.05094
63 0.04608
63.05 0.04188
63.1 0.03809
63.15 0.03431
63.2 0.03162
63.25 0.02833
63.3 0.02558
63.35 0.02305
63.4 0.02012
63.45 0.01761
63.5 0.01448
63.55 0.01119
63.6 0.00832
63.65 0.0058
63.7 0.00304
63.75 -0.00031
63.8 -0.00357
63.85 -0.00628
63.9 -0.01017
63.95 -0.01353
64 -0.01741
64.05 -0.02146
64.1 -0.02487
64.15 -0.02792
64.2 -0.0303
64.25 -0.03312
64.3 -0.03484
64.35 -0.03751
64.4 -0.03991
64.45 -0.04229
64.5 -0.04398
64.55 -0.04549
64.6 -0.04639
64.65 -0.04721
64.7 -0.04885
64.75 -0.04982
64.8 -0.05156
64.85 -0.05219
64.9 -0.05272
64.95 -0.0538
65 -0.05533
65.05 -0.0567
65.1 -0.0573
65.15 -0.05715
65.2 -0.0566
65.25 -0.05583
65.3 -0.05507
65.35 -0.05425
65.4 -0.05412
65.45 -0.05417
65.5 -0.05497
65.55 -0.05633
65.6 -0.05833
65.65 -0.05906
65.7 -0.05972
65.75 -0.06013
65.8 -0.05991
65.85 -0.05935
65.9 -0.05877
65.95 -0.05799
66 -0.05807
66.05 -0.05752
66.1 -0.05734
66.15 -0.05638
66.2 -0.05525
66.25 -0.05515
66.3 -0.0543
66.35 -0.05356
66.4 -0.05264
66.45 -0.05242
66.5 -0.05174
66.55 -0.05174
66.6 -0.05176
66.65 -0.05174
66.7 -0.05062
66.75 -0.05043
66.8 -0.05021
66.85 -0.04969
66.9 -0.04969
66.95 -0.04916
67 -0.04916
67.05 -0.04885
67.1 -0.04835
67.15 -0.04771
67.2 -0.04633
67.25 -0.04487
67.3 -0.04322
67.35 -0.04264
67.4 -0.04263
67.45 -0.04186
67.5 -0.04163
67.55 -0.04179
67.6 -0.04121
67.65 -0.04031
67.7 -0.03888
67.75 -0.03839
67.8 -0.03866
67.85 -0.0388
67.9 -0.0378
67.95 -0.0363
68 -0.03441
68.05 -0.03301
68.1 -0.03196
68.15 -0.03064
68.2 -0.02928
68.25 -0.02881
68.3 -0.02897
68.35 -0.03002
68.4 -0.03018
68.45 -0.03037
68.5 -0.03041
68.55 -0.03013
68.6 -0.03031
68.65 -0.03054
68.7 -0.03048
68.75 -0.0308
68.8 -0.03039
68.85 -0.03024
68.9 -0.02955
68.95 -0.02819
69 -0.02734
69.05 -0.02576
69.1 -0.02433
69.15 -0.0226
69.2 -0.02212
69.25 -0.02152
69.3 -0.02161
69.35 -0.02174
69.4 -0.0216
69.45 -0.02063
69.5 -0.02056
69.55 -0.01977
69.6 -0.01933
69.65 -0.01875
69.7 -0.018
69.75 -0.01788
69.8 -0.01732
69.85 -0.01655
69.9 -0.016
69.95 -0.01615
70 -0.01661
70.05 -0.01697
70.1 -0.01746
70.15 -0.01831
70.2 -0.01816
70.25 -0.01854
70.3 -0.01889
70.35 -0.01858
70.4 -0.01798
70.45 -0.01735
70.5 -0.01645
70.55 -0.01595
70.6 -0.01485
70.65 -0.01333
70.7 -0.01236
70.75 -0.01127
70.8 -0.01034
70.85 -0.01089
70.9 -0.01237
70.95 -0.01337
71 -0.01463
71.05 -0.01497
71.1 -0.01454
71.15 -0.01349
71.2 -0.01195
71.25 -0.01166
71.3 -0.01194
71.35 -0.01211
71.4 -0.01251
71.45 -0.01239
71.5 -0.01147
71.55 -0.01116
71.6 -0.0102
71.65 -0.01033
71.7 -0.01131
71.75 -0.01188
71.8 -0.01269
71.85 -0.01311
71.9 -0.01377
71.95 -0.0143
72 -0.01368
72.05 -0.01289
72.1 -0.01286
72.15 -0.01341
72.2 -0.01422
72.25 -0.01491
72.3 -0.01459
72.35 -0.01327
72.4 -0.0118
72.45 -0.00988
72.5 -0.00785
72.55 -0.00713
72.6 -0.00682
72.65 -0.0071
72.7 -0.0074
72.75 -0.00728
72.8 -0.0069
72.85 -0.00755
72.9 -0.0085
72.95 -0.0097
73 -0.00941
73.05 -0.00891
73.1 -0.00785
73.15 -0.0066
73.2 -0.00611
73.25 -0.00661
73.3 -0.00621
73.35 -0.00547
73.4 -0.00534
73.45 -0.00496
73.5 -0.00542
73.55 -0.00526
73.6 -0.0059
73.65 -0.00546
73.7 -0.00477
73.75 -0.0041
73.8 -0.00335
73.85 -0.00374
73.9 -0.00409
73.95 -0.00358
74 -0.00389
74.05 -0.00345
74.1 -0.00274
74.15 -0.00208
74.2 -0.00277
74.25 -0.00259
74.3 -0.00234
74.35 -0.00273
74.4 -0.00337
74.45 -0.00348
74.5 -0.00428
74.55 -0.00526
74.6 -0.00582
74.65 -0.00618
74.7 -0.00693
74.75 -0.00659
74.8 -0.00544
74.85 -0.00441
74.9 -0.00458
74.95 -0.00518
75 -0.00513
75.05 -0.00489
75.1 -0.00454
75.15 -0.00433
75.2 -0.00493
75.25 -0.00499
75.3 -0.00457
75.35 -0.00407
75.4 -0.00418
75.45 -0.00477
75.5 -0.00538
75.55 -0.00561
75.6 -0.00555
75.65 -0.00508
75.7 -0.00443
75.75 -0.00422
75.8 -0.0032
75.85 -0.00315
75.9 -0.00244
75.95 -0.00171
76 -0.0022
76.05 -0.00203
76.1 -0.00281
76.15 -0.0036
76.2 -0.00396
76.25 -0.00381
76.3 -0.00442
76.35 -0.00415
76.4 -0.00418
76.45 -0.00371
76.5 -0.00351
76.55 -0.00413
76.6 -0.00464
76.65 -0.00549
76.7 -0.00614
76.75 -0.00617
76.8 -0.00558
76.85 -0.00463
76.9 -0.00453
76.95 -0.00435
77 -0.00327
77.05 -0.00167
77.1 -0.00145
77.15 -0.00095
77.2 -0.00146
77.25 -0.00252
77.3 -0.00259
77.35 -0.00243
77.4 -0.00303
77.45 -0.00389
77.5 -0.00398
77.55 -0.00467
77.6 -0.00457
77.65 -0.00383
77.7 -0.00288
77.75 -0.0018
77.8 -0.00135
77.85 -0.0019
77.9 -0.00259
77.95 -0.00314
78 -0.00265
78.05 -0.00298
78.1 -0.003
78.15 -0.00246
78.2 -0.00138
78.25 -0.00132
78.3 -0.00056
78.35 -0.00089
78.4 -0.00077
78.45 -0.00111
78.5 -0.00103
78.55 -0.00028
78.6 -0.00033
78.65 -0.00117
78.7 -0.00126
78.75 -0.00163
78.8 -0.00185
78.85 -0.00127
78.9 -0.00153
78.95 -0.00163
79 -0.00231
79.05 -0.00287
79.1 -0.00281
79.15 -0.00288
79.2 -0.00221
79.25 -0.00189
79.3 -0.00093
79.35 -0.00101
79.4 -0.00183
79.45 -0.00272
79.5 -0.003
79.55 -0.0026
79.6 -0.00282
79.65 -0.00211
79.7 -0.00164
79.75 -0.00102
79.8 -0.00119
79.85 -0.0018
79.9 -0.00289
79.95 -0.00379
80 -0.00363
80.05 -0.00311
80.1 -0.00254
80.15 -0.00186
80.2 -0.0019
80.25 -0.00225
80.3 -0.00264
80.35 -0.00227
80.4 -0.00253
80.45 -0.00296
80.5 -0.00223
80.55 -0.0013
80.6 -0.00053
80.65 0.00005
80.7 0.0002
80.75 0.00002
80.8 0.00066
80.85 0.00073
80.9 0.00161
80.95 0.00286
81 0.00269
81.05 0.00245
81.1 0.00191
81.15 0.00153
81.2 0.00165
81.25 0.00176
81.3 0.00215
81.35 0.00241
81.4 0.00295
81.45 0.00252
81.5 0.00275
81.55 0.00319
81.6 0.00285
81.65 0.00274
81.7 0.00326
81.75 0.00415
81.8 0.00419
81.85 0.00383
81.9 0.00241
81.95 0.00045
82 -0.00174
82.05 -0.00285
82.1 -0.00254
82.15 -0.00214
82.2 -0.00221
82.25 -0.00218
82.3 -0.00207
82.35 -0.00198
82.4 -0.00246
82.45 -0.00186
82.5 -0.00171
82.55 -0.00181
82.6 -0.00117
82.65 -0.00021
82.7 -0.00041
82.75 -0.00038
82.8 -0.00041
82.85 -0.00112
82.9 -0.00207
82.95 -0.003
83 -0.0031
83.05 -0.00365
83.1 -0.00429
83.15 -0.00406
83.2 -0.00416
83.25 -0.00422
83.3 -0.00475
83.35 -0.00539
83.4 -0.0048
83.45 -0.00326
83.5 -0.00247
83.55 -0.00107
83.6 -0.00074
83.65 -0.00078
83.7 -0.00076
83.75 -0.00113
83.8 -0.0009
83.85 0.00003
83.9 -0.00015
83.95 -0.00099
84 -0.00193
84.05 -0.00148
84.1 -0.00041
84.15 0.0005
84.2 0.00113
84.25 0.0012
84.3 0.00162
84.35 0.00256
84.4 0.00304
84.45 0.00372
84.5 0.00466
84.55 0.00549
84.6 0.00493
84.65 0.00479
84.7 0.00485
84.75 0.00513
84.8 0.00564
84.85 0.00463
84.9 0.00339
84.95 0.0025
85 0.00175
85.05 0.00057
85.1 0.00056
85.15 0.00082
85.2 0.00113
85.25 0.00108
85.3 0.00054
85.35 -0.00014
85.4 -0.00102
85.45 -0.00162
85.5 -0.0021
85.55 -0.00284
85.6 -0.0024
85.65 -0.00241
85.7 -0.00195
85.75 -0.00087
85.8 -0.00033
85.85 0.00047
85.9 0.0005
85.95 -0.00004
86 -0.00115
86.05 -0.0016
86.1 -0.00098
86.15 -0.00081
86.2 -0.0004
86.25 0.00011
86.3 0.00064
86.35 0.00147
86.4 0.00117
86.45 0.00087
86.5 0.00078
86.55 -0.00001
86.6 -0.00109
86.65 -0.00118
86.7 -0.00148
86.75 -0.00197
86.8 -0.00146
86.85 -0.00175
86.9 -0.00171
86.95 -0.00215
87 -0.00163
87.05 -0.00176
87.1 -0.00101
87.15 -0.001
87.2 -0.00102
87.25 -0.00046
87.3 0.00071
87.35 0.00126
87.4 0.00077
87.45 0.00004
87.5 -0.0004
87.55 -0.00053
87.6 -0.00106
87.65 -0.00183
87.7 -0.00173
87.75 -0.00117
87.8 -0.00055
87.85 -0.00013
87.9 0.00053
87.95 0.00119
88 0.0007
88.05 0.00035
88.1 0.0006
88.15 0.00159
88.2 0.00238
88.25 0.00226
88.3 0.00221
88.35 0.00186
88.4 0.00066
88.45 0.00044
88.5 -0
88.55 0.00054
88.6 0.00125
88.65 0.0024
88.7 0.00253
88.75 0.00312
88.8 0.00266
88.85 0.00275
88.9 0.00297
88.95 0.00255
89 0.00179
89.05 0.00178
89.1 0.00191
89.15 0.00094
89.2 0.00077
89.25 0.00074
89.3 0.00145
89.35 0.00123
89.4 0.00162
89.45 0.00204
89.5 0.00156
89.55 0.00193
89.6 0.00173
89.65 0.001
89.7 0.00098
89.75 0.00136
89.8 0.00153
89.85 0.0018
89.9 0.0012
89.95 -0.00012
90 -0.00104
90.05 -0.00175
90.1 -0.00155
90.15 -0.00082
90.2 -0.00006
90.25 0.0006
90.3 0.00163
90.35 0.00292
90.4 0.00387
90.45 0.0047
90.5 0.00519
90.55 0.00504
90.6 0.00526
90.65 0.00446
90.7 0.00328
90.75 0.00153
90.8 -0.00043
90.85 -0.00212
90.9 -0.00389
90.95 -0.00453
91 -0.00436
91.05 -0.00434
91.1 -0.00422
91.15 -0.00338
91.2 -0.00221
91.25 -0.00198
91.3 -0.00088
91.35 0.00047
91.4 0.00134
91.45 0.00197
91.5 0.00136
91.55 0.00058
91.6 -0.00059
91.65 -0.00112
91.7 -0.00169
91.75 -0.0023
91.8 -0.00315
91.85 -0.00293
91.9 -0.00242
91.95 -0.00237
92 -0.00273
92.05 -0.0026
92.1 -0.00255
92.15 -0.0015
92.2 -0.00023
92.25 0.00056
92.3 0.00043
92.35 0.00095
92.4 0.00032
92.45 0.00026
92.5 0.00103
92.55 0.00189
92.6 0.00185
92.65 0.00192
92.7 0.00101
92.75 0.00041
92.8 -0
92.85 -0.00026
92.9 -0.00054
92.95 -0.00132
93 -0.00196
93.05 -0.00304
93.1 -0.00397
93.15 -0.00443
93.2 -0.00462
93.25 -0.00411
93.3 -0.00411
93.35 -0.00308
93.4 -0.00274
93.45 -0.00237
93.5 -0.00206
93.55 -0.00116
93.6 -0.00046
93.65 0.00058
93.7 0.00054
93.75 -0.00014
93.8 -0.00085
93.85 -0.00119
93.9 -0.00162
93.95 -0.00127
94 -0.00165
94.05 -0.00199
94.1 -0.00184
94.15 -0.00196
94.2 -0.00183
94.25 -0.00129
94.3 -0.00002
94.35 0.00149
94.4 0.00157
94.45 0.00231
94.5 0.00238
94.55 0.0019
94.6 0.00175
94.65 0.00163
94.7 0.00221
94.75 0.00274
94.8 0.00286
94.85 0.00245
94.9 0.00277
94.95 0.00212
95 0.0023
95.05 0.00195
95.1 0.0007
95.15 0.00038
95.2 0.00012
95.25 0.0007
95.3 0.00034
95.35 0.00041
95.4 -0
95.45 -0.00095
95.5 -0.00116
95.55 -0.00177
95.6 -0.00214
95.65 -0.00223
95.7 -0.00142
95.75 -0.00068
95.8 -0.00097
95.85 -0.00062
95.9 -0.00015
95.95 0.00099
96 0.00074
96.05 0.00054
96.1 -0.00036
96.15 -0.00174
96.2 -0.00265
96.25 -0.00358
96.3 -0.00415
96.35 -0.00439
96.4 -0.00414
96.45 -0.00427
96.5 -0.00456
96.55 -0.00438
96.6 -0.00466
96.65 -0.00524
96.7 -0.00452
96.75 -0.00448
96.8 -0.00391
96.85 -0.00382
96.9 -0.00426
96.95 -0.0041
97 -0.00366
97.05 -0.0037
97.1 -0.00401
97.15 -0.00463
97.2 -0.00475
97.25 -0.00393
97.3 -0.00269
97.35 -0.00202
97.4 -0.00189
97.45 -0.00141
97.5 -0.001
97.55 -0.00024
97.6 0.00115
97.65 0.00193
97.7 0.00245
97.75 0.00292
97.8 0.00279
97.85 0.0032
97.9 0.0029
97.95 0.00227
98 0.00112
98.05 0.00075
98.1 -0.00031
98.15 -0.00171
98.2 -0.00194
98.25 -0.00123
98.3 -0.00138
98.35 -0.00184
98.4 -0.00241
98.45 -0.00255
98.5 -0.00161
98.55 -0.0002
98.6 0.00001
98.65 0.00057
98.7 0.00152
98.75 0.00219
98.8 0.00259
98.85 0.00282
98.9 0.00274
98.95 0.00261
99 0.00293
99.05 0.00308
99.1 0.00377
99.15 0.00417
99.2 0.0038
99.25 0.00257
99.3 0.00246
99.35 0.00304
99.4 0.00383
99.45 0.0045
99.5 0.00458
99.55 0.00481
99.6 0.00482
99.65 0.00443
99.7 0.00313
99.75 0.00255
99.8 0.00223
99.85 0.0016
99.9 0.00062
99.95 0.00066
