0 0
0.05 0.00099
0.1 0.00374
0.15 0.00586
0.2 0.00728
0.25 0.01001
0.3 0.01123
0.35 0.01272
0.4 0.01443
0.45 0.0163
0.5 0.01668
0.55 0.01742
0.6 0.01674
0.65 0.01695
0.7 0.01641
0.75 0.01532
0.8 0.014
0.85 0.01421
0.9 0.01529
0.95 0.01625
1 0.01751
1.05 0.01741
1.1 0.01815
1.15 0.01777
1.2 0.0161
1.25 0.01462
1.3 0.01218
1.35 0.01103
1.4 0.00896
1.45 0.00692
1.5 0.0056
1.55 0.00559
1.6 0.00569
1.65 0.00643
1.7 0.0074
1.75 0.00792
1.8 0.00769
1.85 0.00896
1.9 0.01043
1.95 0.01002
2 0.01047
2.05 0.00998
2.1 0.01086
2.15 0.01188
2.2 0.01209
2.25 0.0116
2.3 0.01025
2.35 0.01057
2.4 0.01035
2.45 0.00936
2.5 0.01007
2.55 0.00933
2.6 0.0093
2.65 0.00805
2.7 0.00826
2.75 0.0089
2.8 0.00966
2.85 0.00992
2.9 0.01085
2.95 0.01143
3 0.01028
3.05 0.00863
3.1 0.00718
3.15 0.00504
3.2 0.00287
3.25 0.00174
3.3 0.0009
3.35 0.00049
3.4 0.0013
3.45 0.00356
3.5 0.00507
3.55 0.00565
3.6 0.00686
3.65 0.00703
3.7 0.00726
3.75 0.0081
3.8 0.00914
3.85 0.01054
3.9 0.01105
3.95 0.01134
4 0.0122
4.05 0.01346
4.1 0.01458
4.15 0.01539
4.2 0.01474
4.25 0.01203
4.3 0.00891
4.35 0.00579
4.4 0.00318
4.45 0.00223
4.5 0.00218
4.55 0.00095
4.6 0.00085
4.65 0.00159
4.7 0.00127
4.75 0.00133
4.8 0.00163
4.85 0.00143
4.9 0.00197
4.95 0.00376
5 0.00354
5.05 0.0023
5.1 0.00161
5.15 0.00271
5.2 0.00255
5.25 0.00301
5.3 0.00405
5.35 0.00429
5.4 0.00432
5.45 0.00553
5.5 0.00528
5.55 0.00595
5.6 0.00603
5.65 0.00694
5.7 0.00669
5.75 0.0073
5.8 0.00754
5.85 0.00663
5.9 0.00437
5.95 0.00245
6 -0.00004
6.05 -0.00173
6.1 -0.00123
6.15 -0.00039
6.2 0.00084
6.25 0.00147
6.3 0.00141
6.35 0.00185
6.4 0.00092
6.45 0.00015
6.5 -0.00101
6.55 -0.00269
6.6 -0.00279
6.65 -0.00263
6.7 -0.00089
6.75 -0.0009
6.8 -0.00078
6.85 -0.00005
6.9 -0.00027
6.95 0.0006
7 0.00011
7.05 0.00091
7.1 0.00147
7.15 0.0028
7.2 0.00364
7.25 0.00357
7.3 0.00201
7.35 0.00109
7.4 0.00101
7.45 -0.00015
7.5 -0.00047
7.55 0.00011
7.6 0.00059
7.65 0.00021
7.7 0.00136
7.75 0.00282
7.8 0.0032
7.85 0.00309
7.9 0.00181
7.95 0.00173
8 0.00119
8.05 -0.00011
8.1 -0.00007
8.15 0.00098
8.2 0.00188
8.25 0.0012
8.3 0.00058
8.35 0.00046
8.4 0.00014
8.45 -0.00038
8.5 0.00033
8.55 0.00043
8.6 -0.00014
8.65 -0.00011
8.7 -0.00104
8.75 -0.00142
8.8 -0.00173
8.85 -0.00158
8.9 -0.00238
8.95 -0.00253
9 -0.00134
9.05 -0.00139
9.1 -0.00005
9.15 -0.00025
9.2 0.00102
9.25 0.0015
9.3 0.00138
9.35 0.00165
9.4 0.0031
9.45 0.00483
9.5 0.0053
9.55 0.00455
9.6 0.0038
9.65 0.00205
9.7 0.00209
9.75 0.0022
9.8 0.00229
9.85 0.00249
9.9 0.00158
9.95 0.00142
10 0.00152
10.05 0.00087
10.1 -0.00078
10.15 -0.00036
10.2 -0.00048
10.25 0.00075
10.3 0.00111
10.35 0.00175
10.4 0.00234
10.45 0.00261
10.5 0.00277
10.55 0.00404
10.6 0.0042
10.65 0.0047
10.7 0.00375
10.75 0.0021
10.8 0.0009
10.85 0.0003
10.9 -0.00068
10.95 -0.00245
11 -0.00223
11.05 -0.00285
11.1 -0.0016
11.15 -0.0011
11.2 -0.00112
11.25 -0.00076
11.3 0.00073
11.35 0.00151
11.4 0.00152
11.45 0.00167
11.5 0.00067
11.55 -0.00046
11.6 -0.00186
11.65 -0.00117
11.7 -0.00052
11.75 0.00084
11.8 0.00036
11.85 -0.00132
11.9 -0.00137
11.95 -0.00205
12 -0.00244
12.05 -0.00334
12.1 -0.00357
12.15 -0.00358
12.2 -0.00447
12.25 -0.00593
12.3 -0.00572
12.35 -0.00562
12.4 -0.00517
12.45 -0.00436
12.5 -0.00335
12.55 -0.00368
12.6 -0.00236
12.65 -0.00034
12.7 0.00067
12.75 0.0002
12.8 -0.00038
12.85 -0.00157
12.9 -0.00233
12.95 -0.00124
13 0.00038
13.05 0.00162
13.1 0.00212
13.15 0.00341
13.2 0.00289
13.25 0.00157
13.3 0.00141
13.35 0.00057
13.4 -0.00042
13.45 -0.00022
13.5 0.00065
13.55 0.00256
13.6 0.00446
13.65 0.0058
13.7 0.00728
13.75 0.00635
13.8 0.00642
13.85 0.00564
13.9 0.00554
13.95 0.0061
14 0.00691
14.05 0.00673
14.1 0.00713
14.15 0.00575
14.2 0.0048
14.25 0.00515
14.3 0.00474
14.35 0.0046
14.4 0.00363
14.45 0.00358
14.5 0.00187
14.55 0.00146
14.6 0.00169
14.65 0.00304
14.7 0.00463
14.75 0.00497
14.8 0.00545
14.85 0.0066
14.9 0.00622
14.95 0.00426
15 0.00264
15.05 0.00015
15.1 -0.00156
15.15 -0.00309
15.2 -0.00478
15.25 -0.00476
15.3 -0.00508
15.35 -0.0059
15.4 -0.0072
15.45 -0.00822
15.5 -0.00922
15.55 -0.0102
15.6 -0.01024
15.65 -0.01031
15.7 -0.01085
15.75 -0.0102
15.8 -0.00886
15.85 -0.00697
15.9 -0.00448
15.95 -0.00148
16 0.00174
16.05 0.00231
16.1 0.00308
16.15 0.00248
16.2 0.00117
16.25 0.00101
16.3 -0.00005
16.35 0.00015
16.4 -0.00068
16.45 -0.0016
16.5 -0.0028
16.55 -0.0044
16.6 -0.0041
16.65 -0.00271
16.7 -0.00198
16.75 -0.00119
16.8 -0.00158
16.85 -0.00303
16.9 -0.00461
16.95 -0.00618
17 -0.00739
17.05 -0.00881
17.1 -0.00907
17.15 -0.00912
17.2 -0.00761
17.25 -0.00709
17.3 -0.00637
17.35 -0.00403
17.4 -0.00168
17.45 0.00057
17.5 0.00271
17.55 0.00446
17.6 0.00548
17.65 0.00505
17.7 0.00442
17.75 0.00264
17.8 0.00268
17.85 0.00302
17.9 0.00427
17.95 0.00478
18 0.00424
18.05 0.00463
18.1 0.00412
18.15 0.00381
18.2 0.00431
18.25 0.0036
18.3 0.0026
18.35 0.00324
18.4 0.0039
18.45 0.00399
18.5 0.00296
18.55 0.00148
18.6 0.00147
18.65 0.00105
18.7 0.00217
18.75 0.00166
18.8 0.00135
18.85 0.00109
18.9 0.00037
18.95 -0.00138
19 -0.00337
19.05 -0.00342
19.1 -0.00337
19.15 -0.00294
19.2 -0.00144
19.25 -0.00009
19.3 0.0011
19.35 0.00321
19.4 0.00409
19.45 0.00378
19.5 0.00191
19.55 -0.00068
19.6 -0.00277
19.65 -0.0028
19.7 -0.00287
19.75 -0.00262
19.8 -0.00191
19.85 -0.00061
19.9 0.00114
19.95 0.0034
20 0.00367
20.05 0.00302
20.1 0.00105
20.15 -0.00116
20.2 -0.00347
20.25 -0.004
20.3 -0.00533
20.35 -0.00613
20.4 -0.00643
20.45 -0.00598
20.5 -0.00468
20.55 -0.00456
20.6 -0.00338
20.65 -0.00352
20.7 -0.00382
20.75 -0.00388
20.8 -0.00279
20.85 -0.00089
20.9 0.0011
20.95 0.003
21 0.00373
21.05 0.00332
21.1 0.00265
21.15 0.00234
21.2 0.00243
21.25 0.0026
21.3 0.00385
21.35 0.00456
21.4 0.00529
21.45 0.00617
21.5 0.00579
21.55 0.00419
21.6 0.00283
21.65 0.00083
21.7 0.00077
21.75 -0.00005
21.8 0.00031
21.85 0.00144
21.9 0.00269
21.95 0.00261
22 0.00234
22.05 0.00244
22.1 0.00179
22.15 0.00175
22.2 0.00148
22.25 0.00225
22.3 0.00212
22.35 0.00141
22.4 0.00086
22.45 0.00042
22.5 -0.00017
22.55 -0.00002
22.6 -0.00016
22.65 -0.00059
22.7 -0.00203
22.75 -0.00247
22.8 -0.00219
22.85 -0.00126
22.9 0.00035
22.95 0.00211
23 0.00359
23.05 0.00533
23.1 0.00482
23.15 0.00383
23.2 0.0019
23.25 -0.00052
23.3 -0.00284
23.35 -0.0043
23.4 -0.0051
23.45 -0.00393
23.5 -0.00145
23.55 0.00034
23.6 0.0028
23.65 0.00318
23.7 0.00267
23.75 0.00319
23.8 0.00401
23.85 0.00412
23.9 0.00381
23.95 0.00244
24 0.00109
24.05 0.00005
24.1 0.00069
24.15 0.00008
24.2 0.00021
24.25 -0.00018
24.3 0.00094
24.35 0.00031
24.4 -0.00104
24.45 -0.00302
24.5 -0.00386
24.55 -0.0052
24.6 -0.00507
24.65 -0.00489
24.7 -0.0045
24.75 -0.004
24.8 -0.00465
24.85 -0.0039
24.9 -0.00324
24.95 -0.00305
25 -0.00165
25.05 0.00082
25.1 0.00138
25.15 0.00237
25.2 0.0017
25.25 0.00068
25.3 -0.00132
25.35 -0.00222
25.4 -0.00183
25.45 -0.00175
25.5 -0.00247
25.55 -0.00216
25.6 -0.00292
25.65 -0.00287
25.7 -0.00272
25.75 -0.00341
25.8 -0.00443
25.85 -0.00422
25.9 -0.00284
25.95 -0.00114
26 0.00114
26.05 0.00354
26.1 0.00447
26.15 0.00482
26.2 0.00445
26.25 0.0043
26.3 0.00354
26.35 0.00394
26.4 0.00287
26.45 0.00165
26.5 -0.00012
26.55 -0.00151
26.6 -0.00088
26.65 -0.00169
26.7 -0.00338
26.75 -0.00439
26.8 -0.00603
26.85 -0.00754
26.9 -0.00779
26.95 -0.00845
27 -0.00735
27.05 -0.00694
27.1 -0.00687
27.15 -0.00611
27.2 -0.00386
27.25 -0.00181
27.3 0.00083
27.35 0.00379
27.4 0.00661
27.45 0.00823
27.5 0.00815
27.55 0.0075
27.6 0.00541
27.65 0.00393
27.7 0.00178
27.75 -0.00076
27.8 -0.00296
27.85 -0.00412
27.9 -0.00348
27.95 -0.00407
28 -0.00368
28.05 -0.00246
28.1 -0.00042
28.15 0.0011
28.2 0.00251
28.25 0.00463
28.3 0.00478
28.35 0.00324
28.4 0.00211
28.45 0.00028
28.5 -0.00138
28.55 -0.00118
28.6 -0.00213
28.65 -0.00242
28.7 -0.00121
28.75 -0.00167
28.8 -0.00122
28.85 -0.00134
28.9 -0.00029
28.95 0.00099
29 0.00218
29.05 0.00342
29.1 0.00423
29.15 0.00495
29.2 0.00554
29.25 0.0065
29.3 0.00767
29.35 0.0081
29.4 0.00817
29.45 0.00843
29.5 0.00814
29.55 0.00825
29.6 0.00671
29.65 0.00552
29.7 0.00524
29.75 0.00549
29.8 0.00655
29.85 0.00688
29.9 0.00677
29.95 0.00662
30 0.00539
30.05 0.00449
30.1 0.0032
30.15 0.00306
30.2 0.00121
30.25 0.00014
30.3 -0.00074
30.35 -0.00061
30.4 -0.00019
30.45 -0.00082
30.5 -0.0022
30.55 -0.00315
30.6 -0.00313
30.65 -0.00348
30.7 -0.0023
30.75 -0.00122
30.8 -0.00053
30.85 -0.00152
30.9 -0.00333
30.95 -0.00549
31 -0.00526
31.05 -0.00443
31.1 -0.00456
31.15 -0.00415
31.2 -0.00333
31.25 -0.0031
31.3 -0.00136
31.35 -0.00007
31.4 0.00141
31.45 0.00286
31.5 0.00315
31.55 0.00337
31.6 0.00272
31.65 0.00069
31.7 -0.00092
31.75 -0.00173
31.8 -0.0029
31.85 -0.00342
31.9 -0.00332
31.95 -0.00246
32 -0.00167
32.05 -0.00235
32.1 -0.00386
32.15 -0.00584
32.2 -0.00547
32.25 -0.00504
32.3 -0.00451
32.35 -0.00507
32.4 -0.0046
32.45 -0.00488
32.5 -0.00392
32.55 -0.00182
32.6 0.00099
32.65 0.00142
32.7 0.0004
32.75 -0.00137
32.8 -0.00234
32.85 -0.00261
32.9 -0.0036
32.95 -0.00388
33 -0.00484
33.05 -0.00406
33.1 -0.00236
33.15 -0.00196
33.2 -0.00198
33.25 -0.00196
33.3 -0.00303
33.35 -0.00261
33.4 -0.00275
33.45 -0.00377
33.5 -0.00482
33.55 -0.00563
33.6 -0.00651
33.65 -0.00576
33.7 -0.00531
33.75 -0.0034
33.8 -0.00237
33.85 -0.00057
33.9 0.00128
33.95 0.00111
34 0.00114
34.05 0.00101
34.1 0.0009
34.15 -0.00047
34.2 -0.00108
34.25 -0.00008
34.3 0.00029
34.35 -0.00051
34.4 -0.00073
34.45 -0.00148
34.5 -0.0029
34.55 -0.00337
34.6 -0.00293
34.65 -0.00199
34.7 -0.00073
34.75 -0.00107
34.8 -0.00026
34.85 0.00081
34.9 0.00226
34.95 0.00284
35 0.00227
35.05 0.00309
35.1 0.00455
35.15 0.00386
35.2 0.00204
35.25 0.00128
35.3 0.00137
35.35 0.00043
35.4 -0.00048
35.45 -0.00131
35.5 -0.00133
35.55 -0.00179
35.6 -0.00168
35.65 -0.00124
35.7 -0.00022
35.75 0.00014
35.8 0.00095
35.85 0.00092
35.9 0.00033
35.95 0.0012
36 0.00207
36.05 0.00197
36.1 0.0025
36.15 0.00197
36.2 0.00156
36.25 -0.00001
36.3 -0.0002
36.35 0.00006
36.4 -0.00085
36.45 -0.00214
36.5 -0.0018
36.55 -0.00119
36.6 0.00054
36.65 0.00272
36.7 0.00499
36.75 0.00537
36.8 0.0051
36.85 0.00334
36.9 0.0008
36.95 -0.00164
37 -0.00423
37.05 -0.00468
37.1 -0.0041
37.15 -0.00334
37.2 -0.00204
37.25 -0.00105
37.3 -0.00097
37.35 -0.00073
37.4 -0.00101
37.45 -0.00104
37.5 -0.00139
37.55 -0.00273
37.6 -0.00337
37.65 -0.00266
37.7 -0.00205
37.75 -0.00248
37.8 -0.00388
37.85 -0.00379
37.9 -0.0023
37.95 -0.00046
38 0.00189
38.05 0.00414
38.1 0.00514
38.15 0.00648
38.2 0.00575
38.25 0.00418
38.3 0.00402
38.35 0.00234
38.4 0.00056
38.45 0.00025
38.5 -0.00122
38.55 -0.00286
38.6 -0.00248
38.65 -0.00266
38.7 -0.00318
38.75 -0.00277
38.8 -0.00214
38.85 -0.00139
38.9 -0.00123
38.95 -0.00011
39 -0.0003
39.05 -0.00127
39.1 -0.00193
39.15 -0.00143
39.2 -0.00094
39.25 0.00096
39.3 0.00278
39.35 0.00443
39.4 0.00428
39.45 0.00255
39.5 0.0014
39.55 0.0008
39.6 0.00069
39.65 0.00183
39.7 0.00176
39.75 0.00049
39.8 -0.00147
39.85 -0.00144
39.9 0.00013
39.95 0.00131
40 0.00316
40.05 0.00312
40.1 0.00264
40.15 0.00352
40.2 0.00307
40.25 0.00333
40.3 0.00328
40.35 0.00289
40.4 0.00294
40.45 0.00311
40.5 0.00279
40.55 0.00206
40.6 0.00276
40.65 0.00378
40.7 0.004
40.75 0.00494
40.8 0.00609
40.85 0.00592
40.9 0.00405
40.95 0.00194
41 0.00155
41.05 0.00049
41.1 0.00003
41.15 0.00081
41.2 0.00125
41.25 0.00219
41.3 0.00121
41.35 0.00184
41.4 0.0017
41.45 0.0002
41.5 -0.00055
41.55 -0.00117
41.6 -0.00122
41.65 -0.00191
41.7 -0.00165
41.75 -0.00186
41.8 -0.00058
41.85 -0.0003
41.9 -0.0013
41.95 -0.00242
42 -0.0041
42.05 -0.00409
42.1 -0.00286
42.15 -0.00085
42.2 0.00151
42.25 0.00226
42.3 0.00122
42.35 -0.00047
42.4 -0.00091
42.45 -0.00247
42.5 -0.00422
42.55 -0.00507
42.6 -0.00659
42.65 -0.00739
42.7 -0.00691
42.75 -0.00622
42.8 -0.00449
42.85 -0.00335
42.9 -0.00202
42.95 -0.00148
43 0.00008
43.05 0.00213
43.1 0.00454
43.15 0.0063
43.2 0.00717
43.25 0.00667
43.3 0.00686
43.35 0.0058
43.4 0.00398
43.45 0.00261
43.5 0.00128
43.55 -0.00062
43.6 -0.00058
43.65 0.00031
43.7 -0.00059
43.75 -0.00023
43.8 -0.00135
43.85 -0.00334
43.9 -0.00453
43.95 -0.00533
44 -0.00424
44.05 -0.0046
44.1 -0.00506
44.15 -0.00541
44.2 -0.0042
44.25 -0.00398
44.3 -0.00279
44.35 -0.00165
44.4 -0.00006
44.45 0.00216
44.5 0.00237
44.55 0.00179
44.6 -0.00009
44.65 -0.00077
44.7 -0.00066
44.75 -0.00035
44.8 -0.00084
44.85 -0.00095
44.9 -0.00126
44.95 -0.00047
45 0.00099
45.05 0.00234
45.1 0.00187
45.15 0.00021
45.2 -0.00089
45.25 -0.00163
45.3 -0.00159
45.35 -0.00019
45.4 0.00101
45.45 0.00266
45.5 0.0044
45.55 0.00641
45.6 0.00758
45.65 0.00776
45.7 0.00826
45.75 0.00837
45.8 0.00891
45.85 0.00705
45.9 0.00575
45.95 0.00366
46 0.00267
46.05 0.00164
46.1 0.00083
46.15 -0.00089
46.2 -0.00221
46.25 -0.00166
46.3 -0.00091
46.35 0.00036
46.4 0.00086
46.45 0.00192
46.5 0.00209
46.55 0.00243
46.6 0.00098
46.65 -0.00011
46.7 -0.00066
46.75 -0.001
46.8 -0.00122
46.85 -0.00107
46.9 -0.0009
46.95 -0.00191
47 -0.00148
47.05 -0.00085
47.1 0.00038
47.15 -0.0001
47.2 0.0001
47.25 0.00037
47.3 0.0004
47.35 0.00059
47.4 0.00195
47.45 0.0019
47.5 0.00052
47.55 -0.00111
47.6 -0.00115
47.65 -0.00029
47.7 -0.0009
47.75 -0.00045
47.8 0.00013
47.85 -0.00001
47.9 -0.00141
47.95 -0.00321
48 -0.00466
48.05 -0.00627
48.1 -0.00702
48.15 -0.00645
48.2 -0.00514
48.25 -0.00298
48.3 -0.00256
48.35 -0.00247
48.4 -0.00181
48.45 -0.00057
48.5 -0.00101
48.55 0.00018
48.6 0.00113
48.65 0.00254
48.7 0.00207
48.75 0.00208
48.8 0.00217
48.85 0.00271
48.9 0.00408
48.95 0.00368
49 0.00194
49.05 0.00072
49.1 -0.00118
49.15 -0.00194
49.2 -0.00091
49.25 0.00013
49.3 0.00131
49.35 0.00117
49.4 -0.00014
49.45 0.0003
49.5 0.0019
49.55 0.00203
49.6 0.00123
49.65 0.00196
49.7 0.00347
49.75 0.00267
49.8 0.0027
49.85 0.00115
49.9 0.00103
49.95 0.00199
50 0.00181
50.05 0.00236
50.1 0.0031
50.15 0.00372
50.2 0.00458
50.25 0.00481
50.3 0.00483
50.35 0.00491
50.4 0.00386
50.45 0.00217
50.5 0.00148
50.55 0.00109
50.6 -0.00001
50.65 -0.00018
50.7 -0.00131
50.75 -0.00288
50.8 -0.00384
50.85 -0.00326
50.9 -0.00217
50.95 -0.00089
51 0.00035
51.05 0.00202
51.1 0.00343
51.15 0.00376
51.2 0.00212
51.25 0.00219
51.3 0.00207
51.35 0.00273
51.4 0.00352
51.45 0.0022
51.5 0.00094
51.55 -0.00107
51.6 -0.00231
51.65 -0.004
51.7 -0.00348
51.75 -0.00266
51.8 -0.00163
51.85 -0.00072
51.9 0.00019
51.95 0.00177
52 0.00373
52.05 0.00446
52.1 0.00465
52.15 0.00381
52.2 0.00161
52.25 0.00034
52.3 0.00051
52.35 0.00106
52.4 0.00096
52.45 0.00009
52.5 -0.00036
52.55 -0.0017
52.6 -0.00176
52.65 -0.00064
52.7 0.0009
52.75 0.00033
52.8 -0.00136
52.85 -0.00125
52.9 -0.00226
52.95 -0.00307
53 -0.00317
53.05 -0.00427
53.1 -0.00458
53.15 -0.00504
53.2 -0.00555
53.25 -0.00466
53.3 -0.0044
53.35 -0.00278
53.4 -0.00167
53.45 0.00011
53.5 0.00039
53.55 0.00079
53.6 0.0021
53.65 0.00158
53.7 0.0008
53.75 0.00098
53.8 0.00131
53.85 0.00161
53.9 0.00204
53.95 0.00322
54 0.00459
54.05 0.00519
54.1 0.00548
54.15 0.00497
54.2 0.00428
54.25 0.00417
54.3 0.00268
54.35 0.00253
54.4 0.00245
54.45 0.00309
54.5 0.00294
54.55 0.00371
54.6 0.00411
54.65 0.00407
54.7 0.00432
54.75 0.00467
54.8 0.00328
54.85 0.00329
54.9 0.00278
54.95 0.00277
55 0.00202
55.05 0.00016
55.1 -0.00218
55.15 -0.00244
55.2 -0.00324
55.25 -0.0038
55.3 -0.00394
55.35 -0.00258
55.4 -0.00052
55.45 0.00072
55.5 0.00259
55.55 0.00196
55.6 0.00157
55.65 0.0003
55.7 0.00059
55.75 -0.00064
55.8 -0.00089
55.85 -0.00167
55.9 -0.00267
55.95 -0.00413
56 -0.00581
56.05 -0.00595
56.1 -0.00461
56.15 -0.00435
56.2 -0.00458
56.25 -0.00503
56.3 -0.00377
56.35 -0.00147
56.4 0.00039
56.45 0.00246
56.5 0.00303
56.55 0.00193
56.6 0.00176
56.65 0.00255
56.7 0.0034
56.75 0.00212
56.8 -0.00005
56.85 -0.0025
56.9 -0.00284
56.95 -0.00288
57 -0.00396
57.05 -0.00558
57.1 -0.0069
57.15 -0.00778
57.2 -0.00653
57.25 -0.00632
57.3 -0.00581
57.35 -0.00448
57.4 -0.00225
57.45 0.0006
57.5 0.00145
57.55 0.00111
57.6 0.00196
57.65 0.00308
57.7 0.00335
57.75 0.00214
57.8 0.00027
57.85 -0.00111
57.9 -0.00211
57.95 -0.0016
58 -0.00053
58.05 0.00053
58.1 0.00103
58.15 0.0019
58.2 0.00176
58.25 0.00173
58.3 0.00045
58.35 0.00025
58.4 0.00041
58.45 0.00112
58.5 0.00259
58.55 0.00218
58.6 0.00131
58.65 -0.00008
58.7 -0.00218
58.75 -0.004
58.8 -0.00366
58.85 -0.00449
58.9 -0.00435
58.95 -0.00331
59 -0.00375
59.05 -0.00324
59.1 -0.00176
59.15 -0.00211
59.2 -0.00301
59.25 -0.00227
59.3 -0.00267
59.35 -0.00211
59.4 -0.00126
59.45 -0.00005
59.5 -0.00077
59.55 -0.00139
59.6 -0.00095
59.65 -0.00002
59.7 -0.00004
59.75 -0.00039
59.8 -0.00164
59.85 -0.0011
59.9 0.00019
59.95 0.00147
60 0.0034
60.05 0.00315
60.1 0.00191
60.15 0.00213
60.2 0.00326
60.25 0.00235
60.3 0.00087
60.35 0.00009
60.4 -0.0003
60.45 -0.00022
60.5 0.0011
60.55 0.0006
60.6 0.00006
60.65 0.00084
60.7 0.00139
60.75 0.00108
60.8 -0.00029
60.85 -0.00139
60.9 -0.00265
60.95 -0.00422
61 -0.00363
61.05 -0.00283
61.1 -0.00235
61.15 -0.00214
61.2 -0.00316
61.25 -0.00437
61.3 -0.00498
61.35 -0.00579
61.4 -0.007
61.45 -0.00683
61.5 -0.00663
61.55 -0.00742
61.6 -0.00696
61.65 -0.00682
61.7 -0.00509
61.75 -0.00418
61.8 -0.00437
61.85 -0.00458
61.9 -0.00429
61.95 -0.00336
62 -0.00188
62.05 -0.00083
62.1 -0.00118
62.15 -0.00165
62.2 -0.00136
62.25 0.00012
62.3 0.00079
62.35 0.00223
62.4 0.00313
62.45 0.00458
62.5 0.00509
62.55 0.00446
62.6 0.00397
62.65 0.00465
62.7 0.00333
62.75 0.00214
62.8 0.0016
62.85 0.00205
62.9 0.00168
62.95 0.00145
63 0.0015
63.05 0.00093
63.1 -0.00013
63.15 0.00057
63.2 -0.00028
63.25 -0.00072
63.3 -0.00033
63.35 0.00092
63.4 0.00271
63.45 0.00299
63.5 0.002
63.55 0.00005
63.6 -0.00103
63.65 -0.00156
63.7 -0.00047
63.75 -0.00079
63.8 -0.00067
63.85 -0.0014
63.9 -0.00157
63.95 -0.00022
64 -0.00026
64.05 -0.00021
64.1 -0.00009
64.15 -0.00088
64.2 -0.00254
64.25 -0.00445
64.3 -0.00444
64.35 -0.00425
64.4 -0.00435
64.45 -0.00344
64.5 -0.00402
64.55 -0.00298
64.6 -0.00209
64.65 -0.00059
64.7 0.00054
64.75 0.00177
64.8 0.00239
64.85 0.0037
64.9 0.00305
64.95 0.00348
65 0.00395
65.05 0.00471
65.1 0.00458
65.15 0.00299
65.2 0.00118
65.25 0.00077
65.3 -0.00043
65.35 -0.00095
65.4 -0.00136
65.45 -0.00138
65.5 -0.00138
65.55 -0.00257
65.6 -0.004
65.65 -0.00503
65.7 -0.00458
65.75 -0.00497
65.8 -0.00512
65.85 -0.00413
65.9 -0.0037
65.95 -0.00198
66 0.00021
66.05 0.00258
66.1 0.00287
66.15 0.00139
66.2 -0.00084
66.25 -0.00318
66.3 -0.0036
66.35 -0.00295
66.4 -0.00115
66.45 -0.00007
66.5 0.00105
66.55 0.00227
66.6 0.0021
66.65 0.00064
66.7 -0.00056
66.75 -0.0021
66.8 -0.00158
66.85 -0.00219
66.9 -0.00109
66.95 -0.00096
67 -0.00172
67.05 -0.00105
67.1 0.00015
67.15 0.0022
67.2 0.00407
67.25 0.00426
67.3 0.00386
67.35 0.0038
67.4 0.00376
67.45 0.00245
67.5 0.0013
67.55 -0.00094
67.6 -0.0024
67.65 -0.00309
67.7 -0.0031
67.75 -0.00273
67.8 -0.00165
67.85 0.00023
67.9 0.00046
67.95 0.00016
68 -0.00031
68.05 -0.00124
68.1 -0.00152
68.15 -0.0015
68.2 -0.0003
68.25 0.00156
68.3 0.0037
68.35 0.00584
68.4 0.00657
68.45 0.00609
68.5 0.00597
68.55 0.00475
68.6 0.00385
68.65 0.00277
68.7 0.00209
68.75 0.00223
68.8 0.00094
68.85 0.00026
68.9 0.00041
68.95 -0.0005
69 -0.00052
69.05 -0.00137
69.1 -0.00103
69.15 -0.0007
69.2 0.00017
69.25 -0.00066
69.3 -0.00089
69.35 -0.00055
69.4 -0.00069
69.45 -0.00098
69.5 -0.00139
69.55 -0.00292
69.6 -0.00274
69.65 -0.00226
69.7 -0.00063
69.75 0.00025
69.8 0.00214
69.85 0.00312
69.9 0.00476
69.95 0.00471
70 0.00314
70.05 0.00279
70.1 0.00301
70.15 0.00312
70.2 0.00372
70.25 0.00445
70.3 0.00449
70.35 0.0051
70.4 0.00525
70.45 0.0054
70.5 0.00505
70.55 0.00381
70.6 0.00299
70.65 0.00316
70.7 0.00372
70.75 0.00268
70.8 0.00134
70.85 0.00118
70.9 -0.00031
70.95 -0.00277
71 -0.00407
71.05 -0.00454
71.1 -0.00332
71.15 -0.00155
71.2 -0.00035
71.25 0.00146
71.3 0.0017
71.35 0.00229
71.4 0.00307
71.45 0.0029
71.5 0.00169
71.55 -0.00067
71.6 -0.00305
71.65 -0.00333
71.7 -0.00416
71.75 -0.00417
71.8 -0.00384
71.85 -0.00209
71.9 -0.00227
71.95 -0.00361
72 -0.00483
72.05 -0.00662
72.1 -0.00626
72.15 -0.00666
72.2 -0.00561
72.25 -0.00462
72.3 -0.00308
72.35 -0.00306
72.4 -0.00228
72.45 -0.00124
72.5 -0.00088
72.55 0.00058
72.6 0.00131
72.65 0.00209
72.7 0.0022
72.75 0.0016
72.8 0.0007
72.85 0.00096
72.9 0.00148
72.95 0.00139
73 0.00001
73.05 0.00013
73.1 -0.00119
73.15 -0.00179
73.2 -0.00097
73.25 0.00037
73.3 0.00017
73.35 0.00128
73.4 0.00054
73.45 -0.00112
73.5 -0.00123
73.55 -0.00273
73.6 -0.00373
73.65 -0.00543
73.7 -0.00729
73.75 -0.01007
73.8 -0.01208
73.85 -0.01477
73.9 -0.01702
73.95 -0.01771
74 -0.01721
74.05 -0.01882
74.1 -0.02037
74.15 -0.02141
74.2 -0.024
74.25 -0.02769
74.3 -0.03243
74.35 -0.03979
74.4 -0.0486
74.45 -0.05725
74.5 -0.0662
74.55 -0.07535
74.6 -0.08548
74.65 -0.09943
74.7 -0.11395
74.75 -0.13101
74.8 -0.15098
74.85 -0.17172
74.9 -0.19516
74.95 -0.22002
75 -0.2481
75.05 -0.27807
75.1 -0.31009
75.15 -0.34358
75.2 -0.37991
75.25 -0.41678
75.3 -0.45354
75.35 -0.49208
75.4 -0.53037
75.45 -0.56795
75.5 -0.60655
75.55 -0.64568
75.6 -0.68414
75.65 -0.72067
75.7 -0.75394
75.75 -0.78414
75.8 -0.81047
75.85 -0.83379
75.9 -0.85123
75.95 -0.86491
76 -0.87406
76.05 -0.8768
76.1 -0.87534
76.15 -0.86814
76.2 -0.8544
76.25 -0.83541
76.3 -0.8094
76.35 -0.7787
76.4 -0.74121
76.45 -0.7002
76.5 -0.65382
76.55 -0.60258
76.6 -0.5478
76.65 -0.48926
76.7 -0.43038
76.75 -0.36944
76.8 -0.30658
76.85 -0.24272
76.9 -0.17872
76.95 -0.1157
77 -0.05393
77.05 0.00578
77.1 0.06315
77.15 0.11885
77.2 0.17164
77.25 0.22178
77.3 0.26904
77.35 0.31547
77.4 0.36019
77.45 0.40107
77.5 0.43924
77.55 0.47436
77.6 0.50663
77.65 0.53699
77.7 0.56644
77.75 0.59312
77.8 0.61775
77.85 0.64152
77.9 0.66168
77.95 0.68071
78 0.69606
78.05 0.7087
78.1 0.71883
78.15 0.72964
78.2 0.73808
78.25 0.74599
78.3 0.75186
78.35 0.75619
78.4 0.75995
78.45 0.76281
78.5 0.76213
78.55 0.75891
78.6 0.75402
78.65 0.74772
78.7 0.73969
78.75 0.73184
78.8 0.72382
78.85 0.71415
78.9 0.70295
78.95 0.68947
79 0.67487
79.05 0.6598
79.1 0.64349
79.15 0.62659
79.2 0.6099
79.25 0.59346
79.3 0.57654
79.35 0.55735
79.4 0.53791
79.45 0.51811
79.5 0.49879
79.55 0.48009
79.6 0.46055
79.65 0.4401
79.7 0.42151
79.75 0.40383
79.8 0.38536
79.85 0.36876
79.9 0.35078
79.95 0.33464
80 0.31955
80.05 0.30419
80.1 0.28772
80.15 0.27282
80.2 0.2569
80.25 0.24053
80.3 0.22525
80.35 0.21136
80.4 0.19813
80.45 0.18473
80.5 0.17264
80.55 0.16103
80.6 0.14975
80.65 0.1382
80.7 0.12767
80.75 0.11665
80.8 0.10563
80.85 0.09562
80.9 0.08417
80.95 0.07378
81 0.06352
81.05 0.05442
81.1 0.04485
81.15 0.03525
81.2 0.02703
81.25 0.02016
81.3 0.01287
81.35 0.0053
81.4 -0.00082
81.45 -0.00766
81.5 -0.01479
81.55 -0.02056
81.6 -0.02764
81.65 -0.03469
81.7 -0.04194
81.75 -0.04818
81.8 -0.05217
81.85 -0.0563
81.9 -0.05898
81.95 -0.06272
82 -0.06736
82.05 -0.07248
82.1 -0.07704
82.15 -0.081
82.2 -0.08457
82.25 -0.08831
82.3 -0.0914
82.35 -0.0932
82.4 -0.09474
82.45 -0.09468
82.5 -0.09505
82.55 -0.09537
82.6 -0.09642
82.65 -0.09645
82.7 -0.09732
82.75 -0.09852
82.8 -0.1003
82.85 -0.10291
82.9 -0.1051
82.95 -0.10787
83 -0.11064
83.05 -0.11102
83.1 -0.11091
83.15 -0.11136
83.2 -0.1123
83.25 -0.11321
83.3 -0.11194
83.35 -0.10949
83.4 -0.10866
83.45 -0.10789
83.5 -0.10833
83.55 -0.10839
83.6 -0.10863
83.65 -0.10933
83.7 -0.10943
83.75 -0.10852
83.8 -0.10572
83.85 -0.10357
83.9 -0.10077
83.95 -0.09979
84 -0.09937
84.05 -0.09824
84.1 -0.09837
84.15 -0.09754
84.2 -0.09565
84.25 -0.09361
84.3 -0.09052
84.35 -0.08706
84.4 -0.08391
84.45 -0.08167
84.5 -0.08107
84.55 -0.07939
84.6 -0.07799
84.65 -0.07597
84.7 -0.07367
84.75 -0.07216
84.8 -0.07223
84.85 -0.07324
84.9 -0.07531
84.95 -0.07746
85 -0.07839
85.05 -0.07905
85.1 -0.07996
85.15 -0.07951
85.2 -0.07835
85.25 -0.0775
85.3 -0.07629
85.35 -0.07327
85.4 -0.0713
85.45 -0.07056
85.5 -0.06994
85.55 -0.06934
85.6 -0.06702
85.65 -0.06396
85.7 -0.06199
85.75 -0.0612
85.8 -0.06042
85.85 -0.06044
85.9 -0.05872
85.95 -0.05732
86 -0.05561
86.05 -0.05308
86.1 -0.05071
86.15 -0.04965
86.2 -0.05003
86.25 -0.0516
86.3 -0.05341
86.35 -0.05357
86.4 -0.05332
86.45 -0.05354
86.5 -0.05272
86.55 -0.05079
86.6 -0.04839
86.65 -0.04726
86.7 -0.04721
86.75 -0.04613
86.8 -0.04521
86.85 -0.04446
86.9 -0.04311
86.95 -0.04226
87 -0.0421
87.05 -0.04044
87.1 -0.04046
87.15 -0.03938
87.2 -0.03745
87.25 -0.03723
87.3 -0.03555
87.35 -0.0333
87.4 -0.03248
87.45 -0.03101
87.5 -0.03098
87.55 -0.03026
87.6 -0.02953
87.65 -0.03054
87.7 -0.03241
87.75 -0.03348
87.8 -0.03259
87.85 -0.03311
87.9 -0.03185
87.95 -0.03079
88 -0.03043
88.05 -0.02906
88.1 -0.02879
88.15 -0.02932
88.2 -0.02859
88.25 -0.02729
88.3 -0.02652
88.35 -0.02542
88.4 -0.02483
88.45 -0.02519
88.5 -0.02586
88.55 -0.02728
88.6 -0.02903
88.65 -0.03068
88.7 -0.02989
88.75 -0.02792
88.8 -0.02635
88.85 -0.02546
88.9 -0.02445
88.95 -0.02281
89 -0.0221
89.05 -0.02096
89.1 -0.02098
89.15 -0.02004
89.2 -0.01848
89.25 -0.0176
89.3 -0.01793
89.35 -0.01908
89.4 -0.0192
89.45 -0.02039
89.5 -0.02098
89.55 -0.02231
89.6 -0.02211
89.65 -0.02218
89.7 -0.02256
89.75 -0.02146
89.8 -0.02001
89.85 -0.01919
89.9 -0.01709
89.95 -0.01561
90 -0.01401
90.05 -0.01162
90.1 -0.01028
90.15 -0.0084
90.2 -0.00658
90.25 -0.0054
90.3 -0.00667
90.35 -0.00834
90.4 -0.00862
90.45 -0.00993
90.5 -0.01133
90.55 -0.01112
90.6 -0.01136
90.65 -0.01276
90.7 -0.01303
90.75 -0.0127
90.8 -0.01319
90.85 -0.0123
90.9 -0.01294
90.95 -0.01398
91 -0.01438
91.05 -0.01307
91.1 -0.01154
91.15 -0.01147
91.2 -0.01049
91.25 -0.01032
91.3 -0.01012
91.35 -0.01037
91.4 -0.0092
91.45 -0.00821
91.5 -0.00681
91.55 -0.00535
91.6 -0.005
91.65 -0.00381
91.7 -0.00375
91.75 -0.00354
91.8 -0.00287
91.85 -0.00177
91.9 -0.00293
91.95 -0.00519
92 -0.00718
92.05 -0.00731
92.1 -0.00712
92.15 -0.00815
92.2 -0.00873
92.25 -0.00856
92.3 -0.00837
92.35 -0.0096
92.4 -0.00905
92.45 -0.00988
92.5 -0.01066
92.55 -0.0114
92.6 -0.01274
92.65 -0.01324
92.7 -0.01264
92.75 -0.01278
92.8 -0.0111
92.85 -0.01086
92.9 -0.01002
92.95 -0.00871
93 -0.008
93.05 -0.00703
93.1 -0.00619
93.15 -0.00482
93.2 -0.00427
93.25 -0.00271
93.3 -0.00174
93.35 -0.00205
93.4 -0.00165
93.45 -0.00075
93.5 -0.00188
93.55 -0.00353
93.6 -0.00553
93.65 -0.00603
93.7 -0.0072
93.75 -0.00808
93.8 -0.00774
93.85 -0.00832
93.9 -0.00746
93.95 -0.00695
94 -0.00521
94.05 -0.00267
94.1 -0.00104
94.15 -0.00141
94.2 -0.00192
94.25 -0.00239
94.3 -0.00188
94.35 -0.00176
94.4 -0.00171
94.45 -0.00306
94.5 -0.00273
94.55 -0.00257
94.6 -0.00155
94.65 -0.00107
94.7 0.00032
94.75 0.00016
94.8 0.00059
94.85 -0.00081
94.9 -0.00207
94.95 -0.00276
95 -0.00257
95.05 -0.00297
95.1 -0.00376
95.15 -0.0056
95.2 -0.0068
95.25 -0.00799
95.3 -0.00946
95.35 -0.01118
95.4 -0.01108
95.45 -0.01035
95.5 -0.01068
95.55 -0.00902
95.6 -0.00685
95.65 -0.00566
95.7 -0.00569
95.75 -0.00533
95.8 -0.00449
95.85 -0.003
95.9 -0.00104
95.95 0.00123
96 0.00198
96.05 0.00143
96.1 -0.0001
96.15 -0.0008
96.2 0.00004
96.25 -0.00003
96.3 0.00055
96.35 0.00172
96.4 0.00095
96.45 0.00034
96.5 -0.00077
96.55 -0.00151
96.6 -0.00118
96.65 -0.00151
96.7 -0.00066
96.75 -0.00072
96.8 -0.00025
96.85 0.00022
96.9 0.00017
96.95 -0.00115
97 -0.0022
97.05 -0.00246
97.1 -0.00196
97.15 -0.00262
97.2 -0.00214
97.25 -0.00071
97.3 0.0012
97.35 0.00203
97.4 0.00264
97.45 0.00231
97.5 0.00054
97.55 -0.00093
97.6 -0.00124
97.65 -0.0009
97.7 -0.00108
97.75 -0.00131
97.8 -0.00215
97.85 -0.00346
97.9 -0.00503
97.95 -0.0052
98 -0.00569
98.05 -0.00607
98.1 -0.00661
98.15 -0.0076
98.2 -0.00809
98.25 -0.00921
98.3 -0.00865
98.35 -0.0073
98.4 -0.00614
98.45 -0.0058
98.5 -0.00398
98.55 -0.00182
98.6 -0.00055
98.65 0.00155
98.7 0.00188
98.75 0.00162
98.8 0.00164
98.85 0.00218
98.9 0.00314
98.95 0.00334
99 0.00399
99.05 0.00282
99.1 0.00054
99.15 -0.00186
99.2 -0.00312
99.25 -0.00512
99.3 -0.00597
99.35 -0.00645
99.4 -0.00551
99.45 -0.0042
99.5 -0.0021
99.55 -0.0018
99.6 -0.0015
99.65 -0.00149
99.7 -0.00117
99.75 -0.00221
99.8 -0.00259
99.85 -0.00217
99.9 -0.00143
99.95 0.0005
