0 0
0.05 0.00003
0.1 0.00006
0.15 0.00009
0.2 0.0001
0.25 0.00013
0.3 0.00018
0.35 0.00025
0.4 0.00032
0.45 0.00038
0.5 0.0004
0.55 0.00041
0.6 0.00041
0.65 0.0004
0.7 0.00038
0.75 0.00035
0.8 0.0003
0.85 0.00026
0.9 0.00022
0.95 0.00019
1 0.0002
1.05 0.00018
1.1 0.00019
1.15 0.0002
1.2 0.00021
1.25 0.0002
1.3 0.00018
1.35 0.0002
1.4 0.00024
1.45 0.00026
1.5 0.00029
1.55 0.00033
1.6 0.00032
1.65 0.00031
1.7 0.0003
1.75 0.00027
1.8 0.00024
1.85 0.00022
1.9 0.00023
1.95 0.00023
2 0.00021
2.05 0.0002
2.1 0.00021
2.15 0.0002
2.2 0.00021
2.25 0.00024
2.3 0.00024
2.35 0.00027
2.4 0.00028
2.45 0.00025
2.5 0.00022
2.55 0.00022
2.6 0.0002
2.65 0.00016
2.7 0.00012
2.75 0.0001
2.8 0.00007
2.85 0.00005
2.9 0.00004
2.95 0.00003
3 0.00003
3.05 0.00006
3.1 0.00006
3.15 0.00005
3.2 0.00006
3.25 0.00008
3.3 0.00007
3.35 0.00008
3.4 0.00009
3.45 0.0001
3.5 0.00013
3.55 0.00016
3.6 0.00015
3.65 0.00015
3.7 0.00016
3.75 0.00019
3.8 0.00022
3.85 0.00023
3.9 0.00025
3.95 0.00025
4 0.00024
4.05 0.00021
4.1 0.00019
4.15 0.00016
4.2 0.00012
4.25 0.00008
4.3 0.00006
4.35 0.00005
4.4 0.00007
4.45 0.0001
4.5 0.00009
4.55 0.00008
4.6 0.00009
4.65 0.00012
4.7 0.00015
4.75 0.00014
4.8 0.00012
4.85 0.00013
4.9 0.0001
4.95 0.0001
5 0.00007
5.05 0.00006
5.1 0.00005
5.15 0.00005
5.2 0.00002
5.25 -0
5.3 0.00001
5.35 0.00002
5.4 0.00001
5.45 0
5.5 0.00002
5.55 0.00003
5.6 0.00001
5.65 -0.00001
5.7 -0.00003
5.75 -0.00006
5.8 -0.00006
5.85 -0.00002
5.9 0.00003
5.95 0.00005
6 0.00006
6.05 0.00007
6.1 0.00009
6.15 0.0001
6.2 0.00011
6.25 0.00011
6.3 0.0001
6.35 0.0001
6.4 0.00008
6.45 0.00007
6.5 0.00005
6.55 0.00003
6.6 0
6.65 -0.00002
6.7 -0.00001
6.75 0.00001
6.8 0.00001
6.85 0.00004
6.9 0.00007
6.95 0.00008
7 0.00007
7.05 0.00008
7.1 0.00008
7.15 0.00009
7.2 0.00009
7.25 0.00008
7.3 0.00008
7.35 0.0001
7.4 0.00013
7.45 0.00013
7.5 0.00013
7.55 0.00011
7.6 0.00008
7.65 0.00005
7.7 0.00005
7.75 0.00007
7.8 0.00007
7.85 0.00008
7.9 0.00007
7.95 0.00007
8 0.00007
8.05 0.00005
8.1 0.00006
8.15 0.00003
8.2 0.00004
8.25 0.00001
8.3 -0.00001
8.35 -0.00002
8.4 -0.00003
8.45 -0.00003
8.5 -0.00003
8.55 -0.00001
8.6 0.00003
8.65 0.00007
8.7 0.00009
8.75 0.00009
8.8 0.00006
8.85 0.00002
8.9 0.00002
8.95 0.00003
9 0.00006
9.05 0.00008
9.1 0.00009
9.15 0.00008
9.2 0.00005
9.25 0.00003
9.3 0.00002
9.35 0.00001
9.4 -0.00002
9.45 -0.00004
9.5 -0.00005
9.55 -0.00006
9.6 -0.00003
9.65 -0.00001
9.7 -0.00002
9.75 -0.00004
9.8 -0.00007
9.85 -0.00007
9.9 -0.00007
9.95 -0.00008
10 -0.00009
10.05 -0.00011
10.1 -0.00008
10.15 -0.00005
10.2 -0.00003
10.25 0.00001
10.3 0.00004
10.35 0.00008
10.4 0.00012
10.45 0.00014
10.5 0.00014
10.55 0.00016
10.6 0.00016
10.65 0.00015
10.7 0.00014
10.75 0.00013
10.8 0.00011
10.85 0.00007
10.9 0.00005
10.95 0.00006
11 0.00006
11.05 0.00007
11.1 0.0001
11.15 0.0001
11.2 0.00011
11.25 0.00008
11.3 0.00007
11.35 0.00006
11.4 0.00003
11.45 -0.00003
11.5 -0.00004
11.55 -0.00003
11.6 -0.00004
11.65 -0.00003
11.7 -0.00002
11.75 -0.00001
11.8 0.00001
11.85 0.00003
11.9 0.00002
11.95 0.00001
12 0.00002
12.05 0.00002
12.1 0.00004
12.15 0.00004
12.2 0.00005
12.25 0.00003
12.3 0.00004
12.35 0.00005
12.4 0.00006
12.45 0.00006
12.5 0.00004
12.55 0
12.6 -0.00004
12.65 -0.00007
12.7 -0.00006
12.75 -0.00004
12.8 -0.00001
12.85 -0
12.9 -0.00001
12.95 -0
13 0.00001
13.05 0.00002
13.1 0.00003
13.15 0.00002
13.2 0.00001
13.25 0.00003
13.3 0.00003
13.35 0.00005
13.4 0.00004
13.45 0.00001
13.5 0
13.55 -0.00001
13.6 -0.00005
13.65 -0.00005
13.7 -0.00004
13.75 -0.00004
13.8 -0.00005
13.85 -0.00008
13.9 -0.00009
13.95 -0.0001
14 -0.00008
14.05 -0.00006
14.1 -0.00001
14.15 0.00001
14.2 0.00001
14.25 0.00002
14.3 0.00002
14.35 0
14.4 -0.00003
14.45 -0.00004
14.5 -0.00003
14.55 -0.00005
14.6 -0.00005
14.65 -0.00006
14.7 -0.00008
14.75 -0.0001
14.8 -0.00011
14.85 -0.00011
14.9 -0.00011
14.95 -0.00012
15 -0.00012
15.05 -0.00013
15.1 -0.00011
15.15 -0.0001
15.2 -0.00006
15.25 -0.00005
15.3 -0.00007
15.35 -0.00009
15.4 -0.0001
15.45 -0.00011
15.5 -0.00013
15.55 -0.00015
15.6 -0.00014
15.65 -0.00011
15.7 -0.00009
15.75 -0.00005
15.8 -0.00006
15.85 -0.00005
15.9 -0.00001
15.95 -0
16 0.00003
16.05 0.00006
16.1 0.00008
16.15 0.00009
16.2 0.00009
16.25 0.00009
16.3 0.00007
16.35 0.00005
16.4 0.00005
16.45 0.00007
16.5 0.0001
16.55 0.00013
16.6 0.00017
16.65 0.00019
16.7 0.00018
16.75 0.00017
16.8 0.00018
16.85 0.00017
16.9 0.00014
16.95 0.00011
17 0.00011
17.05 0.00012
17.1 0.00009
17.15 0.00005
17.2 0
17.25 -0.00001
17.3 -0.00003
17.35 -0.00002
17.4 -0.00001
17.45 0.00001
17.5 0.00002
17.55 0.00003
17.6 -0.00001
17.65 -0.00004
17.7 -0.00005
17.75 -0.00008
17.8 -0.00011
17.85 -0.00013
17.9 -0.00011
17.95 -0.0001
18 -0.00007
18.05 -0.00005
18.1 -0.00004
18.15 -0.00001
18.2 0.00001
18.25 0.00003
18.3 0.00002
18.35 -0.00001
18.4 -0.00001
18.45 -0.00004
18.5 -0.00004
18.55 -0.00006
18.6 -0.00008
18.65 -0.0001
18.7 -0.00009
18.75 -0.00006
18.8 -0.00002
18.85 0.00001
18.9 0
18.95 0.00002
19 0.00005
19.05 0.00006
19.1 0.00006
19.15 0.00003
19.2 0.00001
19.25 -0.00003
19.3 -0.00003
19.35 -0
19.4 0.00003
19.45 0.00006
19.5 0.00006
19.55 0.00006
19.6 0.00003
19.65 0.00002
19.7 0.00004
19.75 0.00008
19.8 0.00006
19.85 0.00003
19.9 0.00002
19.95 -0
20 0.00001
20.05 -0.00001
20.1 -0.00005
20.15 -0.00005
20.2 -0.00007
20.25 -0.00004
20.3 -0.00003
20.35 -0.00005
20.4 -0.00006
20.45 -0.00005
20.5 -0.00006
20.55 -0.00006
20.6 -0.00006
20.65 -0.00008
20.7 -0.00009
20.75 -0.00006
20.8 -0.00006
20.85 -0.00003
20.9 -0.00002
20.95 -0.00003
21 -0.00002
21.05 0.00001
21.1 0.00005
21.15 0.00005
21.2 0.00006
21.25 0.00006
21.3 0.00006
21.35 0.00003
21.4 -0.00002
21.45 -0.00003
21.5 -0.00003
21.55 -0.00006
21.6 -0.00006
21.65 -0.00003
21.7 -0.00003
21.75 0
21.8 0.00001
21.85 0
21.9 0.00002
21.95 0.00003
22 0.00001
22.05 -0.00001
22.1 -0.00002
22.15 -0.00004
22.2 -0.00004
22.25 -0.00001
22.3 0.00001
22.35 0.00004
22.4 0.00006
22.45 0.00007
22.5 0.00008
22.55 0.00006
22.6 0.00003
22.65 0.00001
22.7 -0.00001
22.75 -0.00003
22.8 -0.00006
22.85 -0.00007
22.9 -0.00005
22.95 -0.00002
23 -0
23.05 -0.00001
23.1 0.00001
23.15 0.00003
23.2 0.00005
23.25 0.00007
23.3 0.00006
23.35 0.00008
23.4 0.00009
23.45 0.00008
23.5 0.00008
23.55 0.00005
23.6 0.00002
23.65 0.00001
23.7 -0
23.75 -0.00001
23.8 -0.00001
23.85 -0
23.9 0.00002
23.95 0.00003
24 0.00004
24.05 0.00007
24.1 0.00007
24.15 0.00006
24.2 0.00005
24.25 0.00004
24.3 0.00004
24.35 0.00004
24.4 0.00006
24.45 0.00008
24.5 0.00006
24.55 0.00003
24.6 -0
24.65 -0.00002
24.7 -0.00002
24.75 -0.00003
24.8 -0.00006
24.85 -0.00006
24.9 -0.00007
24.95 -0.00007
25 -0.00008
25.05 -0.00008
25.1 -0.00007
25.15 -0.00005
25.2 -0.00005
25.25 -0.00004
25.3 -0.00003
25.35 -0.00002
25.4 -0.00003
25.45 -0.00004
25.5 -0.00005
25.55 -0.00008
25.6 -0.00011
25.65 -0.00012
25.7 -0.00012
25.75 -0.00012
25.8 -0.00013
25.85 -0.00013
25.9 -0.00012
25.95 -0.00011
26 -0.00008
26.05 -0.00003
26.1 -0.00003
26.15 -0.00004
26.2 -0.00005
26.25 -0.00008
26.3 -0.00007
26.35 -0.00005
26.4 -0.00005
26.45 -0.00007
26.5 -0.00006
26.55 -0.00007
26.6 -0.00005
26.65 -0.00001
26.7 0.00004
26.75 0.00009
26.8 0.00011
26.85 0.0001
26.9 0.00007
26.95 0.00006
27 0.00007
27.05 0.00009
27.1 0.00012
27.15 0.00011
27.2 0.00011
27.25 0.00009
27.3 0.00008
27.35 0.00008
27.4 0.00006
27.45 0.00006
27.5 0.00003
27.55 0.00001
27.6 -0
27.65 -0
27.7 -0.00001
27.75 -0.00003
27.8 -0.00006
27.85 -0.00005
27.9 -0.00005
27.95 -0.00003
28 -0
28.05 -0.00001
28.1 0
28.15 0.00003
28.2 0.00004
28.25 0.00004
28.3 0.00002
28.35 -0.00002
28.4 -0.00002
28.45 -0.00001
28.5 -0
28.55 -0.00001
28.6 -0.00001
28.65 0.00001
28.7 0.00002
28.75 0.00002
28.8 0.00005
28.85 0.00006
28.9 0.00003
28.95 0
29 0.00001
29.05 0.00003
29.1 0.00006
29.15 0.00008
29.2 0.00008
29.25 0.00006
29.3 0.00007
29.35 0.00009
29.4 0.00009
29.45 0.00009
29.5 0.00006
29.55 0.00003
29.6 0.00003
29.65 0.00001
29.7 0.00002
29.75 -0.00001
29.8 -0.00001
29.85 0.00001
29.9 0
29.95 0
30 -0.00002
30.05 -0.00004
30.1 -0.00006
30.15 -0.00006
30.2 -0.00006
30.25 -0.00005
30.3 -0.00007
30.35 -0.00008
30.4 -0.00011
30.45 -0.00009
30.5 -0.00009
30.55 -0.0001
30.6 -0.00008
30.65 -0.00008
30.7 -0.00007
30.75 -0.00006
30.8 -0.00006
30.85 -0.00005
30.9 -0.00002
30.95 0.00001
31 0.00004
31.05 0.00004
31.1 0.00003
31.15 0.00005
31.2 0.00006
31.25 0.00003
31.3 0.00002
31.35 0.00002
31.4 -0
31.45 0.00001
31.5 0.00002
31.55 0.00005
31.6 0.00004
31.65 0.00003
31.7 0
31.75 -0.00003
31.8 -0.00007
31.85 -0.00012
31.9 -0.00014
31.95 -0.00017
32 -0.00017
32.05 -0.00013
32.1 -0.00011
32.15 -0.00009
32.2 -0.0001
32.25 -0.00009
32.3 -0.00009
32.35 -0.0001
32.4 -0.00011
32.45 -0.00013
32.5 -0.00014
32.55 -0.00011
32.6 -0.00007
32.65 -0.00003
32.7 0.00001
32.75 0.00005
32.8 0.00009
32.85 0.00012
32.9 0.00015
32.95 0.00017
33 0.00017
33.05 0.00016
33.1 0.00016
33.15 0.00014
33.2 0.00013
33.25 0.00012
33.3 0.00008
33.35 0.00004
33.4 -0.00001
33.45 -0.00003
33.5 -0.00002
33.55 -0.00003
33.6 -0.00004
33.65 -0.00006
33.7 -0.00008
33.75 -0.00011
33.8 -0.0001
33.85 -0.00011
33.9 -0.0001
33.95 -0.00007
34 -0.00007
34.05 -0.00006
34.1 -0.00004
34.15 -0.00002
34.2 -0.00003
34.25 -0.00004
34.3 -0.00004
34.35 -0.00003
34.4 -0.00002
34.45 -0.00001
34.5 -0.00001
34.55 -0.00003
34.6 -0.00007
34.65 -0.00011
34.7 -0.00014
34.75 -0.00017
34.8 -0.00019
34.85 -0.00021
34.9 -0.00026
34.95 -0.00033
35 -0.0004
35.05 -0.00051
35.1 -0.00061
35.15 -0.00075
35.2 -0.00093
35.25 -0.00115
35.3 -0.00143
35.35 -0.00174
35.4 -0.00206
35.45 -0.00239
35.5 -0.00275
35.55 -0.00317
35.6 -0.00361
35.65 -0.00413
35.7 -0.00469
35.75 -0.00529
35.8 -0.00596
35.85 -0.00664
35.9 -0.0074
35.95 -0.00815
36 -0.0089
36.05 -0.00965
36.1 -0.0104
36.15 -0.01113
36.2 -0.01182
36.25 -0.01246
36.3 -0.01299
36.35 -0.01338
36.4 -0.01362
36.45 -0.01371
36.5 -0.01365
36.55 -0.01337
36.6 -0.01289
36.65 -0.01216
36.7 -0.01118
36.75 -0.0099
36.8 -0.00835
36.85 -0.00655
36.9 -0.00448
36.95 -0.00216
37 0.00037
37.05 0.0031
37.1 0.00597
37.15 0.00894
37.2 0.01197
37.25 0.01499
37.3 0.018
37.35 0.02094
37.4 0.0237
37.45 0.02628
37.5 0.02855
37.55 0.03052
37.6 0.03214
37.65 0.03332
37.7 0.03406
37.75 0.03436
37.8 0.0342
37.85 0.03358
37.9 0.03245
37.95 0.03086
38 0.02886
38.05 0.0265
38.1 0.02382
38.15 0.02084
38.2 0.01765
38.25 0.01434
38.3 0.01091
38.35 0.00747
38.4 0.00407
38.45 0.00075
38.5 -0.00246
38.55 -0.0055
38.6 -0.00827
38.65 -0.0108
38.7 -0.01304
38.75 -0.01497
38.8 -0.01653
38.85 -0.01775
38.9 -0.01864
38.95 -0.01923
39 -0.01953
39.05 -0.01955
39.1 -0.01928
39.15 -0.0188
39.2 -0.01809
39.25 -0.01719
39.3 -0.01615
39.35 -0.01502
39.4 -0.01379
39.45 -0.01252
39.5 -0.01123
39.55 -0.00991
39.6 -0.00859
39.65 -0.00733
39.7 -0.00614
39.75 -0.005
39.8 -0.00391
39.85 -0.00292
39.9 -0.00198
39.95 -0.00113
40 -0.00036
40.05 0.00031
40.1 0.00088
40.15 0.00135
40.2 0.00177
40.25 0.00211
40.3 0.00243
40.35 0.00268
40.4 0.00289
40.45 0.00306
40.5 0.00316
40.55 0.0032
40.6 0.00322
40.65 0.00323
40.7 0.00319
40.75 0.00311
40.8 0.00302
40.85 0.00291
40.9 0.00278
40.95 0.00262
41 0.00247
41.05 0.0023
41.1 0.00213
41.15 0.00194
41.2 0.00175
41.25 0.00158
41.3 0.00142
41.35 0.00126
41.4 0.00107
41.45 0.00086
41.5 0.00067
41.55 0.00048
41.6 0.0003
41.65 0.0001
41.7 -0.00007
41.75 -0.00026
41.8 -0.00045
41.85 -0.00064
41.9 -0.0008
41.95 -0.00094
42 -0.00108
42.05 -0.00122
42.1 -0.00136
42.15 -0.00148
42.2 -0.00156
42.25 -0.00162
42.3 -0.00165
42.35 -0.00167
42.4 -0.00173
42.45 -0.00177
42.5 -0.00183
42.55 -0.00186
42.6 -0.00186
42.65 -0.00188
42.7 -0.00188
42.75 -0.00188
42.8 -0.0019
42.85 -0.0019
42.9 -0.00191
42.95 -0.00192
43 -0.00192
43.05 -0.00189
43.1 -0.00186
43.15 -0.0018
43.2 -0.00172
43.25 -0.00161
43.3 -0.00149
43.35 -0.0014
43.4 -0.0013
43.45 -0.0012
43.5 -0.00114
43.55 -0.00108
43.6 -0.00099
43.65 -0.0009
43.7 -0.00083
43.75 -0.00077
43.8 -0.00071
43.85 -0.00064
43.9 -0.00055
43.95 -0.00049
44 -0.00046
44.05 -0.00041
44.1 -0.00038
44.15 -0.00036
44.2 -0.00033
44.25 -0.00032
44.3 -0.00027
44.35 -0.00025
44.4 -0.00025
44.45 -0.00022
44.5 -0.00016
44.55 -0.00012
44.6 -0.00006
44.65 -0.00001
44.7 0.00005
44.75 0.00011
44.8 0.00018
44.85 0.0002
44.9 0.00024
44.95 0.00022
45 0.00021
45.05 0.00021
45.1 0.0002
45.15 0.00017
45.2 0.00016
45.25 0.00014
45.3 0.0001
45.35 0.00007
45.4 0.00009
45.45 0.00013
45.5 0.00014
45.55 0.00017
45.6 0.0002
45.65 0.0002
45.7 0.00019
45.75 0.00021
45.8 0.00023
45.85 0.00023
45.9 0.00025
45.95 0.00024
46 0.00024
46.05 0.00025
46.1 0.00027
46.15 0.0003
46.2 0.00032
46.25 0.00034
46.3 0.00032
46.35 0.00028
46.4 0.00026
46.45 0.00025
46.5 0.00025
46.55 0.00023
46.6 0.00022
46.65 0.00024
46.7 0.00025
46.75 0.00026
46.8 0.00025
46.85 0.00026
46.9 0.00024
46.95 0.00021
47 0.0002
47.05 0.00018
47.1 0.00015
47.15 0.00012
47.2 0.00007
47.25 0.00005
47.3 0.00003
47.35 0.00002
47.4 0.00003
47.45 0.00005
47.5 0.00005
47.55 0.00006
47.6 0.00008
47.65 0.00009
47.7 0.00008
47.75 0.0001
47.8 0.0001
47.85 0.00012
47.9 0.0001
47.95 0.00011
48 0.00013
48.05 0.00014
48.1 0.00012
48.15 0.00011
48.2 0.00011
48.25 0.00009
48.3 0.00009
48.35 0.00007
48.4 0.00009
48.45 0.00009
48.5 0.00007
48.55 0.00009
48.6 0.00009
48.65 0.0001
48.7 0.00008
48.75 0.00006
48.8 0.00004
48.85 0.00003
48.9 0.00002
48.95 -0
49 -0.00001
49.05 0.00001
49.1 0.00005
49.15 0.00008
49.2 0.00012
49.25 0.00015
49.3 0.00015
49.35 0.00014
49.4 0.00013
49.45 0.00011
49.5 0.00011
49.55 0.00011
49.6 0.00013
49.65 0.00013
49.7 0.00012
49.75 0.00013
49.8 0.00011
49.85 0.0001
49.9 0.00009
49.95 0.00008
50 0.00009
50.05 0.00012
50.1 0.00016
50.15 0.00017
50.2 0.00019
50.25 0.00018
50.3 0.00014
50.35 0.00012
50.4 0.0001
50.45 0.00009
50.5 0.00009
50.55 0.00007
50.6 0.00004
50.65 0.00004
50.7 0.00003
50.75 0.00005
50.8 0.00006
50.85 0.00007
50.9 0.00009
50.95 0.00008
51 0.00009
51.05 0.00008
51.1 0.00006
51.15 0.00004
51.2 -0
51.25 -0.00001
51.3 -0.00002
51.35 -0.00004
51.4 -0.00007
51.45 -0.00008
51.5 -0.0001
51.55 -0.00009
51.6 -0.00007
51.65 -0.00004
51.7 -0.00002
51.75 0.00001
51.8 0.00004
51.85 0.00003
51.9 0
51.95 -0.00002
52 -0.00005
52.05 -0.00009
52.1 -0.00012
52.15 -0.00014
52.2 -0.00013
52.25 -0.00013
52.3 -0.00012
52.35 -0.0001
52.4 -0.00007
52.45 -0.00003
52.5 0.00001
52.55 0.00006
52.6 0.00011
52.65 0.00013
52.7 0.00012
52.75 0.00012
52.8 0.00013
52.85 0.00012
52.9 0.00009
52.95 0.00004
53 -0
53.05 -0.00004
53.1 -0.00005
53.15 -0.00002
53.2 -0.00002
53.25 -0.00004
53.3 -0.00002
53.35 -0.00001
53.4 -0.00002
53.45 -0.00003
53.5 -0.00002
53.55 0.00001
53.6 0.00002
53.65 0.00005
53.7 0.0001
53.75 0.00013
53.8 0.00016
53.85 0.00014
53.9 0.00013
53.95 0.00012
54 0.00009
54.05 0.00007
54.1 0.00005
54.15 0.00005
54.2 0.00006
54.25 0.00008
54.3 0.0001
54.35 0.00008
54.4 0.00006
54.45 0.00002
54.5 0
54.55 -0.00003
54.6 -0.00003
54.65 -0.00002
54.7 -0.00003
54.75 -0.00005
54.8 -0.00007
54.85 -0.0001
54.9 -0.00012
54.95 -0.00014
55 -0.00014
55.05 -0.00013
55.1 -0.00011
55.15 -0.00007
55.2 -0.00005
55.25 -0.00005
55.3 -0.00004
55.35 -0.00003
55.4 -0.00001
55.45 -0.00001
55.5 -0.00001
55.55 -0.00001
55.6 0.00001
55.65 0.00001
55.7 0.00001
55.75 0
55.8 -0.00001
55.85 -0.00003
55.9 -0.00003
55.95 -0.00002
56 -0.00004
56.05 -0.00007
56.1 -0.0001
56.15 -0.00009
56.2 -0.00009
56.25 -0.00006
56.3 -0.00006
56.35 -0.00003
56.4 0
56.45 0.00002
56.5 0.00004
56.55 0.00007
56.6 0.00008
56.65 0.00006
56.7 0.00006
56.75 0.00002
56.8 -0.00001
56.85 -0.00004
56.9 -0.00005
56.95 -0.00004
57 -0.00004
57.05 -0.00004
57.1 -0.00004
57.15 -0.00006
57.2 -0.00005
57.25 -0.00003
57.3 0
57.35 0.00002
57.4 0.00005
57.45 0.00009
57.5 0.00012
57.55 0.00014
57.6 0.00012
57.65 0.00012
57.7 0.00012
57.75 0.00011
57.8 0.00006
57.85 0.00006
57.9 0.00007
57.95 0.00009
58 0.00011
58.05 0.0001
58.1 0.00006
58.15 0.00004
58.2 0.00004
58.25 0.00003
58.3 0.00005
58.35 0.00004
58.4 0.00005
58.45 0.00004
58.5 0.00005
58.55 0.00003
58.6 0.00002
58.65 0.00004
58.7 0.00003
58.75 0.00002
58.8 0.00002
58.85 0.00001
58.9 0.00002
58.95 -0.00001
59 0
59.05 -0.00002
59.1 -0.00002
59.15 -0.00001
59.2 0.00001
59.25 0.00001
59.3 -0.00001
59.35 0.00001
59.4 -0.00001
59.45 -0.00002
59.5 -0.00002
59.55 -0.00005
59.6 -0.00004
59.65 -0.00005
59.7 -0.00004
59.75 -0.00006
59.8 -0.00009
59.85 -0.0001
59.9 -0.00009
59.95 -0.00006
60 -0.00002
60.05 0.00001
60.1 0.00001
60.15 0
60.2 -0.00002
60.25 -0.00004
60.3 -0.00007
60.35 -0.00008
60.4 -0.00006
60.45 -0.00006
60.5 -0.00006
60.55 -0.00007
60.6 -0.00006
60.65 -0.00002
60.7 0.00003
60.75 0.00007
60.8 0.00008
60.85 0.00008
60.9 0.00006
60.95 0.00001
61 -0.00005
61.05 -0.00006
61.1 -0.00008
61.15 -0.00009
61.2 -0.0001
61.25 -0.00012
61.3 -0.00012
61.35 -0.00012
61.4 -0.0001
61.45 -0.00009
61.5 -0.00005
61.55 -0.00001
61.6 0.00004
61.65 0.00007
61.7 0.00005
61.75 0.00004
61.8 0.00003
61.85 0.00003
61.9 0.00003
61.95 0.00006
62 0.00008
62.05 0.00008
62.1 0.00007
62.15 0.00006
62.2 0.00004
62.25 0.00004
62.3 0.00002
62.35 -0.00003
62.4 -0.00006
62.45 -0.00005
62.5 -0.00002
62.55 0.00001
62.6 0.00004
62.65 0.00008
62.7 0.00009
62.75 0.00008
62.8 0.00005
62.85 0.00005
62.9 0.00005
62.95 0.00005
63 0.00003
63.05 -0.00001
63.1 -0.00006
63.15 -0.00011
63.2 -0.00011
63.25 -0.00008
63.3 -0.00008
63.35 -0.00009
63.4 -0.00012
63.45 -0.00014
63.5 -0.00014
63.55 -0.00011
63.6 -0.0001
63.65 -0.00009
63.7 -0.00007
63.75 -0.00003
63.8 -0
63.85 0.00002
63.9 0.00001
63.95 -0.00001
64 -0.00001
64.05 0
64.1 0.00002
64.15 0.00003
64.2 0.00003
64.25 0.00002
64.3 -0.00001
64.35 -0.00001
64.4 -0.00002
64.45 -0.00001
64.5 -0.00002
64.55 -0.00003
64.6 -0.00002
64.65 -0.00004
64.7 -0.00005
64.75 -0.00006
64.8 -0.00008
64.85 -0.00011
64.9 -0.00014
64.95 -0.00014
65 -0.00014
65.05 -0.00011
65.1 -0.00009
65.15 -0.00009
65.2 -0.00008
65.25 -0.00007
65.3 -0.00007
65.35 -0.00005
65.4 -0.00003
65.45 -0.00001
65.5 0.00001
65.55 0.00004
65.6 0.00006
65.65 0.00009
65.7 0.00012
65.75 0.00012
65.8 0.00012
65.85 0.00012
65.9 0.0001
65.95 0.00007
66 0.00005
66.05 0.00006
66.1 0.00006
66.15 0.00005
66.2 0.00005
66.25 0.00002
66.3 0.00003
66.35 0.00002
66.4 -0.00001
66.45 -0.00004
66.5 -0.00006
66.55 -0.00008
66.6 -0.00006
66.65 -0.00007
66.7 -0.00007
66.75 -0.00008
66.8 -0.00006
66.85 -0.00003
66.9 -0.00001
66.95 -0
67 0.00003
67.05 0.00006
67.1 0.00007
67.15 0.00005
67.2 0.00005
67.25 0.00005
67.3 0.00002
67.35 -0
67.4 -0.00003
67.45 -0.00006
67.5 -0.0001
67.55 -0.00014
67.6 -0.00017
67.65 -0.00019
67.7 -0.00015
67.75 -0.0001
67.8 -0.00008
67.85 -0.00003
67.9 0.00001
67.95 0.00005
68 0.00008
68.05 0.00011
68.1 0.00012
68.15 0.00013
68.2 0.00012
68.25 0.00012
68.3 0.00012
68.35 0.00014
68.4 0.00013
68.45 0.00012
68.5 0.0001
68.55 0.00007
68.6 0.00004
68.65 -0
68.7 -0.00001
68.75 -0
68.8 -0.00002
68.85 -0.00004
68.9 -0.00005
68.95 -0.00004
69 -0.00004
69.05 -0.00002
69.1 0.00002
69.15 0.00003
69.2 0.00002
69.25 0.00001
69.3 -0.00001
69.35 -0.00002
69.4 0
69.45 0.00003
69.5 0.00004
69.55 0.00002
69.6 -0.00001
69.65 -0.00002
69.7 -0.00001
69.75 0.00001
69.8 0.00005
69.85 0.00006
69.9 0.00004
69.95 -0
70 -0.00002
70.05 -0.00004
70.1 -0.00006
70.15 -0.00005
70.2 -0.00003
70.25 -0.00005
70.3 -0.00004
70.35 -0.00006
70.4 -0.00004
70.45 -0.00003
70.5 -0.00001
70.55 0
70.6 0.00004
70.65 0.00003
70.7 0.00003
70.75 0.00004
70.8 0.00002
70.85 0.00003
70.9 0.00006
70.95 0.00008
71 0.0001
71.05 0.00011
71.1 0.00014
71.15 0.00013
71.2 0.0001
71.25 0.00007
71.3 0.00007
71.35 0.00009
71.4 0.00011
71.45 0.00014
71.5 0.00013
71.55 0.00011
71.6 0.0001
71.65 0.00011
71.7 0.00012
71.75 0.00014
71.8 0.00016
71.85 0.00014
71.9 0.00013
71.95 0.00011
72 0.00007
72.05 0.00002
72.1 -0.00001
72.15 -0.00001
72.2 -0.00001
72.25 -0.00003
72.3 -0.00006
72.35 -0.00008
72.4 -0.00011
72.45 -0.00012
72.5 -0.00015
72.55 -0.00017
72.6 -0.00018
72.65 -0.00015
72.7 -0.00011
72.75 -0.0001
72.8 -0.00006
72.85 -0.00005
72.9 -0.00004
72.95 -0.00005
73 -0.00007
73.05 -0.00006
73.1 -0.00007
73.15 -0.00006
73.2 -0.00003
73.25 -0.00001
73.3 0.00002
73.35 0.00007
73.4 0.00011
73.45 0.00014
73.5 0.00016
73.55 0.00018
73.6 0.0002
73.65 0.00017
73.7 0.00011
73.75 0.00008
73.8 0.00003
73.85 -0.00003
73.9 -0.00007
73.95 -0.0001
74 -0.00012
74.05 -0.00014
74.1 -0.00016
74.15 -0.00015
74.2 -0.00012
74.25 -0.00008
74.3 -0.00007
74.35 -0.00007
74.4 -0.00004
74.45 -0.00004
74.5 -0.00006
74.55 -0.00005
74.6 -0.00003
74.65 -0.00004
74.7 -0.00005
74.75 -0.00007
74.8 -0.00008
74.85 -0.00009
74.9 -0.00006
74.95 -0.00006
75 -0.00007
75.05 -0.00006
75.1 -0.00008
75.15 -0.00007
75.2 -0.00003
75.25 0.00002
75.3 0.00003
75.35 0.00005
75.4 0.00008
75.45 0.00011
75.5 0.00014
75.55 0.00017
75.6 0.00018
75.65 0.0002
75.7 0.00018
75.75 0.00017
75.8 0.00017
75.85 0.00015
75.9 0.00011
75.95 0.00006
76 -0.00001
76.05 -0.00003
76.1 -0.00005
76.15 -0.00005
76.2 -0.00007
76.25 -0.0001
76.3 -0.0001
76.35 -0.00007
76.4 -0.00006
76.45 -0.00007
76.5 -0.00008
76.55 -0.00007
76.6 -0.00003
76.65 -0.00004
76.7 -0.00002
76.75 -0
76.8 -0
76.85 -0
76.9 -0.00001
76.95 0
77 -0
77.05 0
77.1 0.00001
77.15 -0.00001
77.2 -0.00002
77.25 -0.00002
77.3 -0.00001
77.35 0.00001
77.4 0.00004
77.45 0.00007
77.5 0.00007
77.55 0.00003
77.6 0.00003
77.65 0.00001
77.7 -0.00001
77.75 -0.00001
77.8 -0.00003
77.85 -0.00005
77.9 -0.00009
77.95 -0.00013
78 -0.00015
78.05 -0.00017
78.1 -0.00014
78.15 -0.00009
78.2 -0.00003
78.25 -0.00001
78.3 -0.00001
78.35 0.00002
78.4 0.00003
78.45 0.00005
78.5 0.00008
78.55 0.00011
78.6 0.00014
78.65 0.00016
78.7 0.00016
78.75 0.00016
78.8 0.00013
78.85 0.0001
78.9 0.00009
78.95 0.00004
79 0.00001
79.05 -0.00002
79.1 -0.00005
79.15 -0.00008
79.2 -0.00011
79.25 -0.00015
79.3 -0.00015
79.35 -0.00017
79.4 -0.00017
79.45 -0.00013
79.5 -0.0001
79.55 -0.00008
79.6 -0.00008
79.65 -0.00006
79.7 -0.00005
79.75 -0.00002
79.8 0.00001
79.85 0.00002
79.9 0.00006
79.95 0.00005
80 0.00005
80.05 0.00005
80.1 0.00007
80.15 0.00006
80.2 0.00007
80.25 0.00008
80.3 0.00005
80.35 0.00003
80.4 -0.00001
80.45 -0.00003
80.5 -0.00006
80.55 -0.00009
80.6 -0.00012
80.65 -0.00014
80.7 -0.00015
80.75 -0.00014
80.8 -0.00013
80.85 -0.0001
80.9 -0.00007
80.95 -0.00006
81 -0.00003
81.05 -0.00002
81.1 0.00001
81.15 0.00002
81.2 0.00005
81.25 0.00009
81.3 0.0001
81.35 0.00008
81.4 0.00004
81.45 -0
81.5 -0.00002
81.55 -0.00005
81.6 -0.00008
81.65 -0.00008
81.7 -0.00006
81.75 -0.00007
81.8 -0.00009
81.85 -0.00011
81.9 -0.00011
81.95 -0.00011
82 -0.00008
82.05 -0.00006
82.1 -0.00004
82.15 -0.00002
82.2 0.00001
82.25 0.00003
82.3 0.00004
82.35 0.00005
82.4 0.00007
82.45 0.00009
82.5 0.00011
82.55 0.00012
82.6 0.0001
82.65 0.00007
82.7 0.00006
82.75 0.00005
82.8 0.00005
82.85 0.00007
82.9 0.00009
82.95 0.00007
83 0.00006
83.05 0.00007
83.1 0.0001
83.15 0.00013
83.2 0.00013
83.25 0.00011
83.3 0.00009
83.35 0.00007
83.4 0.00007
83.45 0.00005
83.5 0.00006
83.55 0.00006
83.6 0.00003
83.65 -0.00001
83.7 -0.00004
83.75 -0.00003
83.8 -0.00002
83.85 -0
83.9 0.00002
83.95 0.00003
84 0.00003
84.05 0.00002
84.1 0.00003
84.15 0
84.2 -0.00003
84.25 -0.00002
84.3 -0.00004
84.35 -0.00008
84.4 -0.00008
84.45 -0.00008
84.5 -0.00006
84.55 -0.00005
84.6 -0.00003
84.65 0.00001
84.7 0.00005
84.75 0.00005
84.8 0.00002
84.85 -0.00001
84.9 -0.00003
84.95 -0.00002
85 -0
85.05 0.00001
85.1 0.00004
85.15 0.00005
85.2 0.00004
85.25 0.00004
85.3 0.00004
85.35 0.00002
85.4 0.00002
85.45 0.00003
85.5 0.00002
85.55 0.00002
85.6 0.00004
85.65 0.00005
85.7 0.00003
85.75 0.00001
85.8 -0.00001
85.85 -0.00003
85.9 -0.00006
85.95 -0.00005
86 -0.00007
86.05 -0.00009
86.1 -0.00007
86.15 -0.00008
86.2 -0.00007
86.25 -0.00008
86.3 -0.00007
86.35 -0.00003
86.4 -0.00002
86.45 -0.00002
86.5 -0.00001
86.55 0
86.6 0.00001
86.65 0.00003
86.7 0.00006
86.75 0.00006
86.8 0.00006
86.85 0.00008
86.9 0.00008
86.95 0.00005
87 0.00006
87.05 0.00007
87.1 0.00009
87.15 0.0001
87.2 0.00011
87.25 0.00008
87.3 0.00006
87.35 0.00003
87.4 -0.00002
87.45 -0.00007
87.5 -0.00008
87.55 -0.00007
87.6 -0.00007
87.65 -0.00008
87.7 -0.00008
87.75 -0.00007
87.8 -0.00006
87.85 -0.00005
87.9 -0.00006
87.95 -0.00009
88 -0.00008
88.05 -0.00008
88.1 -0.00009
88.15 -0.00008
88.2 -0.00007
88.25 -0.00006
88.3 -0.00006
88.35 -0.00004
88.4 -0
88.45 0.00004
88.5 0.00006
88.55 0.00006
88.6 0.00005
88.65 0.00003
88.7 -0.00001
88.75 -0.00006
88.8 -0.00009
88.85 -0.00013
88.9 -0.00013
88.95 -0.00013
89 -0.00014
89.05 -0.00012
89.1 -0.00012
89.15 -0.00009
89.2 -0.00008
89.25 -0.00008
89.3 -0.00007
89.35 -0.00008
89.4 -0.00008
89.45 -0.00006
89.5 -0.00003
89.55 0
89.6 0.00004
89.65 0.00005
89.7 0.00005
89.75 0.00008
89.8 0.00009
89.85 0.0001
89.9 0.0001
89.95 0.00011
90 0.00013
90.05 0.00012
90.1 0.0001
90.15 0.00007
90.2 0.00004
90.25 0.00004
90.3 0.00005
90.35 0.00003
90.4 0.00003
90.45 0
90.5 -0.00001
90.55 -0.00003
90.6 -0.00004
90.65 -0.00005
90.7 -0.00005
90.75 -0.00007
90.8 -0.0001
90.85 -0.00013
90.9 -0.00013
90.95 -0.00014
91 -0.00015
91.05 -0.00018
91.1 -0.00015
91.15 -0.0001
91.2 -0.00008
91.25 -0.00003
91.3 -0.00001
91.35 0.00001
91.4 0.00001
91.45 0.00001
91.5 0.00004
91.55 0.00004
91.6 0.00005
91.65 0.00003
91.7 0.00002
91.75 -0.00001
91.8 -0.00005
91.85 -0.00008
91.9 -0.00007
91.95 -0.00003
92 -0.00002
92.05 -0.00003
92.1 -0.00001
92.15 0
92.2 0.00002
92.25 0.00002
92.3 0.00002
92.35 0.00003
92.4 0.00003
92.45 0.00002
92.5 0.00004
92.55 0.00002
92.6 0
92.65 -0
92.7 -0.00002
92.75 -0.00006
92.8 -0.00007
92.85 -0.00008
92.9 -0.0001
92.95 -0.0001
93 -0.00006
93.05 -0.00003
93.1 0
93.15 0.00002
93.2 0.00005
93.25 0.00006
93.3 0.0001
93.35 0.00012
93.4 0.00015
93.45 0.00016
93.5 0.00018
93.55 0.00019
93.6 0.00018
93.65 0.00016
93.7 0.00016
93.75 0.00018
93.8 0.00015
93.85 0.00009
93.9 0.00004
93.95 -0.00001
94 -0.00007
94.05 -0.00012
94.1 -0.00015
94.15 -0.00015
94.2 -0.00011
94.25 -0.00011
94.3 -0.00011
94.35 -0.00008
94.4 -0.00004
94.45 -0.00001
94.5 0.00002
94.55 0.00005
94.6 0.0001
94.65 0.00011
94.7 0.0001
94.75 0.00011
94.8 0.00012
94.85 0.00013
94.9 0.00012
94.95 0.00008
95 0.00003
95.05 -0.00001
95.1 -0.00002
95.15 -0.00001
95.2 -0.00002
95.25 -0.00001
95.3 0.00001
95.35 -0
95.4 -0.00002
95.45 -0.00006
95.5 -0.0001
95.55 -0.0001
95.6 -0.00008
95.65 -0.00007
95.7 -0.00005
95.75 -0.00003
95.8 0
95.85 0.00004
95.9 0.00008
95.95 0.00011
96 0.00015
96.05 0.00015
96.1 0.00015
96.15 0.00016
96.2 0.00013
96.25 0.00009
96.3 0.00006
96.35 0.00003
96.4 -0
96.45 -0.00004
96.5 -0.00007
96.55 -0.00009
96.6 -0.00009
96.65 -0.0001
96.7 -0.00009
96.75 -0.00006
96.8 -0.00004
96.85 -0.00004
96.9 -0.00006
96.95 -0.00004
97 -0.00003
97.05 -0.00002
97.1 -0.00003
97.15 -0.00002
97.2 -0.00004
97.25 -0.00005
97.3 -0.00007
97.35 -0.00009
97.4 -0.00009
97.45 -0.0001
97.5 -0.00008
97.55 -0.00004
97.6 -0.00002
97.65 -0.00003
97.7 -0.00002
97.75 -0.00001
97.8 -0.00003
97.85 -0.00002
97.9 -0.00002
97.95 0
98 0.00004
98.05 0.00005
98.1 0.00003
98.15 0
98.2 0.00001
98.25 0.00001
98.3 0.00001
98.35 0.00002
98.4 0.00001
98.45 -0.00002
98.5 -0.00003
98.55 -0.00006
98.6 -0.00009
98.65 -0.00011
98.7 -0.0001
98.75 -0.00007
98.8 -0.00003
98.85 -0
98.9 0
98.95 0.00002
99 0.00001
99.05 0
99.1 -0
99.15 -0.00002
99.2 -0.00002
99.25 -0.00002
99.3 -0
99.35 0.00001
99.4 0.00003
99.45 0.00002
99.5 0.00003
99.55 0.00001
99.6 -0.00002
99.65 -0.00005
99.7 -0.00006
99.75 -0.00004
99.8 -0.00001
99.85 -0.00001
99.9 -0
99.95 0.00002
