0 0
0.05 0.004
0.1 0.00733
0.15 0.01596
0.2 0.02192
0.25 0.032
0.3 0.04287
0.35 0.05151
0.4 0.05564
0.45 0.05729
0.5 0.05629
0.55 0.05478
0.6 0.05446
0.65 0.05695
0.7 0.05582
0.75 0.05324
0.8 0.04712
0.85 0.03927
0.9 0.03699
0.95 0.0318
1 0.02762
1.05 0.02677
1.1 0.03036
1.15 0.03423
1.2 0.03673
1.25 0.03999
1.3 0.04653
1.35 0.05087
1.4 0.04851
1.45 0.04662
1.5 0.04721
1.55 0.04237
1.6 0.03547
1.65 0.0334
1.7 0.03417
1.75 0.03261
1.8 0.02931
1.85 0.02365
1.9 0.02193
1.95 0.02401
2 0.02672
2.05 0.02967
2.1 0.02812
2.15 0.02969
2.2 0.03208
2.25 0.03514
2.3 0.03424
2.35 0.02996
2.4 0.02428
2.45 0.01718
2.5 0.01377
2.55 0.01285
2.6 0.01248
2.65 0.01169
2.7 0.00896
2.75 0.00669
2.8 0.00924
2.85 0.01027
2.9 0.01271
2.95 0.01307
3 0.01383
3.05 0.01586
3.1 0.01998
3.15 0.02171
3.2 0.02658
3.25 0.02819
3.3 0.02926
3.35 0.02829
3.4 0.0301
3.45 0.0297
3.5 0.03233
3.55 0.0341
3.6 0.03442
3.65 0.0379
3.7 0.03594
3.75 0.03016
3.8 0.02795
3.85 0.02458
3.9 0.02213
3.95 0.01981
4 0.01554
4.05 0.01569
4.1 0.01684
4.15 0.01557
4.2 0.01328
4.25 0.00645
4.3 0.00309
4.35 0.0005
4.4 -0.0038
4.45 -0.00775
4.5 -0.01496
4.55 -0.02628
4.6 -0.03549
4.65 -0.04915
4.7 -0.06249
4.75 -0.08343
4.8 -0.10352
4.85 -0.12427
4.9 -0.15031
4.95 -0.18705
5 -0.22503
5.05 -0.27436
5.1 -0.32734
5.15 -0.38765
5.2 -0.453
5.25 -0.52368
5.3 -0.59574
5.35 -0.67625
5.4 -0.76166
5.45 -0.85118
5.5 -0.94286
5.55 -1.03825
5.6 -1.13423
5.65 -1.22906
5.7 -1.33008
5.75 -1.43105
5.8 -1.52805
5.85 -1.62697
5.9 -1.71654
5.95 -1.80594
6 -1.88885
6.05 -1.96512
6.1 -2.0348
6.15 -2.10758
6.2 -2.17352
6.25 -2.23647
6.3 -2.29719
6.35 -2.34777
6.4 -2.39669
6.45 -2.44112
6.5 -2.47849
6.55 -2.50394
6.6 -2.51405
6.65 -2.51853
6.7 -2.51047
6.75 -2.48732
6.8 -2.44923
6.85 -2.39684
6.9 -2.33215
6.95 -2.24523
7 -2.14448
7.05 -2.029
7.1 -1.8969
7.15 -1.75441
7.2 -1.59719
7.25 -1.42522
7.3 -1.24553
7.35 -1.05746
7.4 -0.86057
7.45 -0.65333
7.5 -0.44081
7.55 -0.22489
7.6 -0.01517
7.65 0.19192
7.7 0.39122
7.75 0.57893
7.8 0.76117
7.85 0.92844
7.9 1.08653
7.95 1.23722
8 1.3727
8.05 1.49862
8.1 1.61402
8.15 1.71658
8.2 1.8072
8.25 1.88948
8.3 1.95838
8.35 2.01717
8.4 2.07124
8.45 2.11997
8.5 2.15848
8.55 2.18645
8.6 2.20753
8.65 2.22524
8.7 2.23739
8.75 2.23903
8.8 2.23395
8.85 2.22486
8.9 2.21467
8.95 2.20593
9 2.19817
9.05 2.18726
9.1 2.178
9.15 2.16155
9.2 2.1415
9.25 2.11677
9.3 2.09161
9.35 2.0688
9.4 2.04487
9.45 2.02355
9.5 2.00421
9.55 1.98699
9.6 1.966
9.65 1.94413
9.7 1.9187
9.75 1.88967
9.8 1.8543
9.85 1.81838
9.9 1.78309
9.95 1.75056
10 1.7135
10.05 1.67277
10.1 1.63222
10.15 1.59502
10.2 1.5528
10.25 1.51178
10.3 1.47324
10.35 1.4271
10.4 1.38519
10.45 1.34228
10.5 1.29508
10.55 1.24827
10.6 1.20143
10.65 1.15711
10.7 1.10856
10.75 1.05727
10.8 1.00404
10.85 0.95748
10.9 0.91274
10.95 0.86775
11 0.82559
11.05 0.77822
11.1 0.72705
11.15 0.67589
11.2 0.63014
11.25 0.5846
11.3 0.544
11.35 0.50103
11.4 0.46024
11.45 0.42411
11.5 0.3852
11.55 0.34961
11.6 0.30891
11.65 0.26848
11.7 0.2312
11.75 0.19758
11.8 0.16025
11.85 0.12492
11.9 0.09396
11.95 0.06557
12 0.03555
12.05 0.00746
12.1 -0.01637
12.15 -0.03928
12.2 -0.05961
12.25 -0.08339
12.3 -0.10849
12.35 -0.1321
12.4 -0.15523
12.45 -0.17431
12.5 -0.1902
12.55 -0.20622
12.6 -0.22391
12.65 -0.24339
12.7 -0.25906
12.75 -0.27135
12.8 -0.28182
12.85 -0.28858
12.9 -0.29358
12.95 -0.30091
13 -0.30991
13.05 -0.31828
13.1 -0.32701
13.15 -0.33642
13.2 -0.34546
13.25 -0.35208
13.3 -0.35731
13.35 -0.35828
13.4 -0.35697
13.45 -0.35427
13.5 -0.35627
13.55 -0.36241
13.6 -0.36553
13.65 -0.37216
13.7 -0.37312
13.75 -0.37483
13.8 -0.37165
13.85 -0.36583
13.9 -0.36182
13.95 -0.357
14 -0.35469
14.05 -0.35261
14.1 -0.35403
14.15 -0.3515
14.2 -0.34838
14.25 -0.35146
14.3 -0.3522
14.35 -0.35285
14.4 -0.3536
14.45 -0.35464
14.5 -0.35369
14.55 -0.3549
14.6 -0.35578
14.65 -0.35057
14.7 -0.34051
14.75 -0.33316
14.8 -0.32716
14.85 -0.32444
14.9 -0.31835
14.95 -0.31138
15 -0.30661
15.05 -0.3049
15.1 -0.29808
15.15 -0.29434
15.2 -0.28892
15.25 -0.28374
15.3 -0.27645
15.35 -0.27433
15.4 -0.26927
15.45 -0.26346
15.5 -0.25911
15.55 -0.25528
15.6 -0.25004
15.65 -0.24578
15.7 -0.23909
15.75 -0.23535
15.8 -0.23453
15.85 -0.23685
15.9 -0.23546
15.95 -0.23174
16 -0.22723
16.05 -0.22466
16.1 -0.21888
16.15 -0.21033
16.2 -0.20268
16.25 -0.19918
16.3 -0.1995
16.35 -0.196
16.4 -0.19788
16.45 -0.20059
16.5 -0.19687
16.55 -0.19633
16.6 -0.19061
16.65 -0.18412
16.7 -0.17981
16.75 -0.17936
16.8 -0.18252
16.85 -0.18361
16.9 -0.17912
16.95 -0.1762
17 -0.17156
17.05 -0.16489
17.1 -0.15831
17.15 -0.15387
17.2 -0.15182
17.25 -0.15462
17.3 -0.15148
17.35 -0.14552
17.4 -0.14299
17.45 -0.14123
17.5 -0.14286
17.55 -0.14778
17.6 -0.14762
17.65 -0.14825
17.7 -0.14407
17.75 -0.14239
17.8 -0.13921
17.85 -0.13239
17.9 -0.12609
17.95 -0.12484
18 -0.12277
18.05 -0.12261
18.1 -0.12356
18.15 -0.12062
18.2 -0.11881
18.25 -0.11365
18.3 -0.11208
18.35 -0.10729
18.4 -0.10195
18.45 -0.0976
18.5 -0.09528
18.55 -0.09331
18.6 -0.09418
18.65 -0.096
18.7 -0.09329
18.75 -0.09036
18.8 -0.09057
18.85 -0.08782
18.9 -0.08435
18.95 -0.0852
19 -0.08359
19.05 -0.08632
19.1 -0.08655
19.15 -0.0878
19.2 -0.08405
19.25 -0.08357
19.3 -0.08642
19.35 -0.08402
19.4 -0.08585
19.45 -0.08953
19.5 -0.08932
19.55 -0.08474
19.6 -0.07968
19.65 -0.07301
19.7 -0.06653
19.75 -0.06658
19.8 -0.06891
19.85 -0.06976
19.9 -0.06836
19.95 -0.06756
20 -0.07051
20.05 -0.0687
20.1 -0.07143
20.15 -0.06855
20.2 -0.06257
20.25 -0.06152
20.3 -0.06326
20.35 -0.05954
20.4 -0.06081
20.45 -0.0572
20.5 -0.05922
20.55 -0.05981
20.6 -0.06377
20.65 -0.06752
20.7 -0.07279
20.75 -0.07709
20.8 -0.07652
20.85 -0.07661
20.9 -0.07063
20.95 -0.06316
21 -0.05613
21.05 -0.05295
21.1 -0.04667
21.15 -0.04195
21.2 -0.04298
21.25 -0.04629
21.3 -0.0468
21.35 -0.04322
21.4 -0.04268
21.45 -0.03823
21.5 -0.03551
21.55 -0.03502
21.6 -0.03898
21.65 -0.04199
21.7 -0.04238
21.75 -0.03764
21.8 -0.03744
21.85 -0.03892
21.9 -0.04238
21.95 -0.04297
22 -0.03847
22.05 -0.03686
22.1 -0.03296
22.15 -0.03249
22.2 -0.03322
22.25 -0.03318
22.3 -0.03117
22.35 -0.02531
22.4 -0.02062
22.45 -0.01946
22.5 -0.01661
22.55 -0.01167
22.6 -0.00991
22.65 -0.0131
22.7 -0.01304
22.75 -0.01434
22.8 -0.01738
22.85 -0.0236
22.9 -0.02555
22.95 -0.0232
23 -0.02598
23.05 -0.02369
23.1 -0.02049
23.15 -0.02243
23.2 -0.02818
23.25 -0.03098
23.3 -0.03079
23.35 -0.03239
23.4 -0.03506
23.45 -0.0356
23.5 -0.03385
23.55 -0.03554
23.6 -0.03537
23.65 -0.03311
23.7 -0.03214
23.75 -0.02795
23.8 -0.02167
23.85 -0.01872
23.9 -0.01438
23.95 -0.00907
24 -0.00821
24.05 -0.00605
24.1 -0.00589
24.15 -0.00813
24.2 -0.01119
24.25 -0.01283
24.3 -0.01583
24.35 -0.01781
24.4 -0.02203
24.45 -0.02176
24.5 -0.02317
24.55 -0.02768
24.6 -0.0333
24.65 -0.03366
24.7 -0.03144
24.75 -0.02803
24.8 -0.02603
24.85 -0.02805
24.9 -0.02548
24.95 -0.02391
25 -0.02608
25.05 -0.02565
25.1 -0.02605
25.15 -0.02856
25.2 -0.03262
25.25 -0.0359
25.3 -0.03739
25.35 -0.04024
25.4 -0.04383
25.45 -0.04055
25.5 -0.03133
25.55 -0.02494
25.6 -0.02218
25.65 -0.02114
25.7 -0.01545
25.75 -0.01575
25.8 -0.01533
25.85 -0.01197
25.9 -0.00727
25.95 -0.00594
26 -0.00947
26.05 -0.01032
26.1 -0.01247
26.15 -0.01149
26.2 -0.00664
26.25 -0.00255
26.3 -0.00485
26.35 -0.0049
26.4 -0.00113
26.45 -0.00085
26.5 -0.00457
26.55 -0.00273
26.6 -0.00057
26.65 0.00413
26.7 0.00389
26.75 0.00126
26.8 -0.00543
26.85 -0.00792
26.9 -0.00806
26.95 -0.00572
27 -0.00846
27.05 -0.01176
27.1 -0.01398
27.15 -0.01048
27.2 -0.00833
27.25 -0.00696
27.3 -0.00688
27.35 -0.00492
27.4 -0.0074
27.45 -0.00467
27.5 0.00041
27.55 0.00722
27.6 0.01054
27.65 0.00976
27.7 0.00572
27.75 0.00076
27.8 -0.00257
27.85 -0.00867
27.9 -0.00926
27.95 -0.01324
28 -0.01078
28.05 -0.00679
28.1 -0.00295
28.15 -0.0013
28.2 -0.00329
28.25 -0.00472
28.3 -0.00247
28.35 -0.00302
28.4 -0.00424
28.45 -0.00849
28.5 -0.00993
28.55 -0.01092
28.6 -0.01248
28.65 -0.01575
28.7 -0.01426
28.75 -0.01588
28.8 -0.01859
28.85 -0.02074
28.9 -0.02047
28.95 -0.01839
29 -0.01345
29.05 -0.00575
29.1 0.00341
29.15 0.00853
29.2 0.01046
29.25 0.0149
29.3 0.01187
29.35 0.00897
29.4 0.00379
29.45 -0.0012
29.5 -0.00124
29.55 -0.00316
29.6 -0.00646
29.65 -0.00421
29.7 0.00052
29.75 0.00146
29.8 0.0045
29.85 0.00149
29.9 0.00029
29.95 -0.00406
30 -0.01089
30.05 -0.018
30.1 -0.02032
30.15 -0.02328
30.2 -0.02613
30.25 -0.0225
30.3 -0.01664
30.35 -0.0144
30.4 -0.01231
30.45 -0.0108
30.5 -0.00885
30.55 -0.00371
30.6 -0.00298
30.65 -0.00114
30.7 0.00222
30.75 0.00035
30.8 0.00015
30.85 -0.00085
30.9 0.00275
30.95 0.00901
31 0.01211
31.05 0.01373
31.1 0.01631
31.15 0.0211
31.2 0.02219
31.25 0.02392
31.3 0.02623
31.35 0.02654
31.4 0.01989
31.45 0.01244
31.5 0.00194
31.55 -0.00157
31.6 -0.00372
31.65 -0.00238
31.7 0.00087
31.75 -0.00043
31.8 -0.00333
31.85 -0.00288
31.9 -0.00265
31.95 -0.00504
32 -0.00251
32.05 -0.00234
32.1 0.00096
32.15 -0.00119
32.2 0.00066
32.25 0.00098
32.3 -0.00265
32.35 -0.00763
32.4 -0.01187
32.45 -0.01785
32.5 -0.02291
32.55 -0.02067
32.6 -0.02124
32.65 -0.02388
32.7 -0.02304
32.75 -0.02144
32.8 -0.01622
32.85 -0.01297
32.9 -0.01012
32.95 -0.00586
33 -0.00702
33.05 -0.01119
33.1 -0.01277
33.15 -0.01297
33.2 -0.00973
33.25 -0.01105
33.3 -0.01526
33.35 -0.01292
33.4 -0.01009
33.45 -0.01119
33.5 -0.01486
33.55 -0.0188
33.6 -0.02078
33.65 -0.02204
33.7 -0.0253
33.75 -0.02713
33.8 -0.02592
33.85 -0.02529
33.9 -0.01985
33.95 -0.01865
34 -0.01385
34.05 -0.00687
34.1 -0.00127
34.15 0.00561
34.2 0.01273
34.25 0.0126
34.3 0.01455
34.35 0.01306
34.4 0.01214
34.45 0.01404
34.5 0.01532
34.55 0.01851
34.6 0.02228
34.65 0.02242
34.7 0.02498
34.75 0.02735
34.8 0.02709
34.85 0.02183
34.9 0.01492
34.95 0.0071
35 -0.00281
35.05 -0.01119
35.1 -0.011
35.15 -0.01176
35.2 -0.01535
35.25 -0.01296
35.3 -0.00966
35.35 -0.00613
35.4 0.00103
35.45 0.00949
35.5 0.01072
35.55 0.00846
35.6 0.0097
35.65 0.01404
35.7 0.01938
35.75 0.01841
35.8 0.01906
35.85 0.01739
35.9 0.01606
35.95 0.01725
36 0.02013
36.05 0.02016
36.1 0.01419
36.15 0.01374
36.2 0.01482
36.25 0.01477
36.3 0.01005
36.35 0.00201
36.4 -0.00209
36.45 -0.00292
36.5 -0.00762
36.55 -0.01317
36.6 -0.01472
36.65 -0.01802
36.7 -0.01424
36.75 -0.00746
36.8 -0.00309
36.85 -0.00243
36.9 -0.00198
36.95 -0.0061
37 -0.00762
37.05 -0.00895
37.1 -0.00832
37.15 -0.01167
37.2 -0.01407
37.25 -0.01726
37.3 -0.01405
37.35 -0.00783
37.4 0.00002
37.45 0.00821
37.5 0.01534
37.55 0.01532
37.6 0.0138
37.65 0.00827
37.7 0.00291
37.75 0.00117
37.8 -0.00088
37.85 0.00084
37.9 0.00409
37.95 0.00536
38 0.00862
38.05 0.00813
38.1 0.0116
38.15 0.01106
38.2 0.00781
38.25 0.00931
38.3 0.01013
38.35 0.00526
38.4 -0.00015
38.45 -0.00216
38.5 -0.00096
38.55 0.00198
38.6 0.00181
38.65 0.00051
38.7 -0.00472
38.75 -0.0104
38.8 -0.01532
38.85 -0.01513
38.9 -0.00946
38.95 -0.00947
39 -0.00934
39.05 -0.01291
39.1 -0.0112
39.15 -0.00932
39.2 -0.00672
39.25 -0.00745
39.3 -0.01049
39.35 -0.01489
39.4 -0.01756
39.45 -0.01848
39.5 -0.01913
39.55 -0.01398
39.6 -0.01103
39.65 -0.00971
39.7 -0.01092
39.75 -0.014
39.8 -0.01794
39.85 -0.0215
39.9 -0.01707
39.95 -0.01689
40 -0.01217
40.05 -0.00474
40.1 -0.00269
40.15 -0.00389
40.2 -0.00325
40.25 0.00116
40.3 0.00491
40.35 0.01072
40.4 0.0184
40.45 0.02217
40.5 0.01865
40.55 0.01437
40.6 0.008
40.65 0.00294
40.7 0.00113
40.75 -0.00111
40.8 -0.00033
40.85 0.0044
40.9 0.0059
40.95 0.01017
41 0.01455
41.05 0.01511
41.1 0.01612
41.15 0.01356
41.2 0.0116
41.25 0.00626
41.3 -0.00068
41.35 -0.00879
41.4 -0.01482
41.45 -0.01506
41.5 -0.01536
41.55 -0.01302
41.6 -0.0137
41.65 -0.0084
41.7 -0.00652
41.75 -0.00316
41.8 -0.00477
41.85 -0.00565
41.9 -0.00607
41.95 -0.01019
42 -0.01009
42.05 -0.01001
42.1 -0.00961
42.15 -0.00638
42.2 -0.0015
42.25 -0.00194
42.3 -0.00269
42.35 -0.00312
42.4 0.0004
42.45 -0.0014
42.5 -0.00592
42.55 -0.01003
42.6 -0.01056
42.65 -0.00811
42.7 -0.00485
42.75 -0.00047
42.8 -0.00136
42.85 -0.00497
42.9 -0.00583
42.95 -0.00852
43 -0.00944
43.05 -0.00945
43.1 -0.00422
43.15 0.00149
43.2 0.00176
43.25 0.00549
43.3 0.01136
43.35 0.01247
43.4 0.01527
43.45 0.01403
43.5 0.01008
43.55 0.00664
43.6 0.00609
43.65 0.00497
43.7 0.0085
43.75 0.01377
43.8 0.01481
43.85 0.01502
43.9 0.01271
43.95 0.01356
44 0.01545
44.05 0.01314
44.1 0.01078
44.15 0.01033
44.2 0.01077
44.25 0.0113
44.3 0.00976
44.35 0.00368
44.4 0.00005
44.45 -0.00166
44.5 0.00043
44.55 0.0039
44.6 0.00386
44.65 0.00607
44.7 0.0035
44.75 -0.00121
44.8 -0.00591
44.85 -0.01103
44.9 -0.01214
44.95 -0.00751
45 -0.00139
45.05 -0.00188
45.1 -0.00194
45.15 -0.00412
45.2 -0.00452
45.25 -0.00159
45.3 -0.00009
45.35 0.00167
45.4 0.00315
45.45 0.00376
45.5 0.00191
45.55 0.00233
45.6 0.00299
45.65 0.00234
45.7 -0.00271
45.75 -0.00668
45.8 -0.00922
45.85 -0.00978
45.9 -0.01039
45.95 -0.01414
46 -0.01542
46.05 -0.01871
46.1 -0.02245
46.15 -0.02392
46.2 -0.02416
46.25 -0.01891
46.3 -0.0181
46.35 -0.01684
46.4 -0.01743
46.45 -0.0177
46.5 -0.01537
46.55 -0.01012
46.6 -0.00712
46.65 -0.008
46.7 -0.00969
46.75 -0.00506
46.8 0.00173
46.85 0.00591
46.9 0.00463
46.95 0.00605
47 0.00456
47.05 0.00823
47.1 0.00572
47.15 0.00766
47.2 0.01025
47.25 0.01341
47.3 0.01654
47.35 0.01596
47.4 0.01368
47.45 0.01235
47.5 0.01468
47.55 0.01214
47.6 0.0112
47.65 0.00663
47.7 0.00611
47.75 0.00377
47.8 -0.00132
47.85 -0.00368
47.9 -0.0017
47.95 -0.00334
48 -0.003
48.05 0.00148
48.1 0.00423
48.15 0.00449
48.2 0.00202
48.25 -0.0013
48.3 -0.00624
48.35 -0.00732
48.4 -0.00701
48.45 -0.00544
48.5 -0.00296
48.55 -0.00113
48.6 0.0017
48.65 0.00499
48.7 0.00356
48.75 0.00034
48.8 0.00231
48.85 0.00107
48.9 -0.00348
48.95 -0.00548
49 -0.00497
49.05 -0.00723
49.1 -0.01051
49.15 -0.01484
49.2 -0.01896
49.25 -0.0159
49.3 -0.0109
49.35 -0.00318
49.4 0.002
49.45 0.00213
49.5 -0.00156
49.55 -0.00134
49.6 0.00051
49.65 0.00004
49.7 -0.00398
49.75 -0.00915
49.8 -0.00916
49.85 -0.00778
49.9 -0.00486
49.95 -0.00216
50 0.0012
50.05 0.00608
50.1 0.00591
50.15 0.00314
50.2 -0.00247
50.25 -0.00542
50.3 -0.0098
50.35 -0.00953
50.4 -0.00539
50.45 -0.00126
50.5 0.00592
50.55 0.0093
50.6 0.01012
50.65 0.01378
50.7 0.01065
50.75 0.00699
50.8 0.00572
50.85 0.00219
50.9 0.00372
50.95 0.00161
51 -0.00363
51.05 -0.00343
51.1 -0.00311
51.15 -0.00131
51.2 0.00003
51.25 0.00291
51.3 0.00512
51.35 0.00186
51.4 0.00447
51.45 0.00854
51.5 0.00868
51.55 0.00771
51.6 0.01034
51.65 0.0157
51.7 0.02216
51.75 0.02115
51.8 0.01677
51.85 0.01211
51.9 0.0092
51.95 0.00972
52 0.007
52.05 0.00924
52.1 0.01118
52.15 0.01065
52.2 0.00862
52.25 0.00836
52.3 0.01024
52.35 0.00603
52.4 0.00276
52.45 0.00494
52.5 0.00138
52.55 -0.00311
52.6 -0.00764
52.65 -0.00741
52.7 -0.0055
52.75 -0.00177
52.8 0.00252
52.85 0.00858
52.9 0.01131
52.95 0.01506
53 0.01812
53.05 0.01807
53.1 0.01944
53.15 0.01678
53.2 0.01753
53.25 0.01361
53.3 0.01104
53.35 0.00983
53.4 0.01093
53.45 0.01272
53.5 0.01512
53.55 0.01721
53.6 0.01556
53.65 0.0131
53.7 0.00963
53.75 0.00343
53.8 0.00233
53.85 0.00019
53.9 -0.00494
53.95 -0.0046
54 -0.00195
54.05 0.00125
54.1 -0.00096
54.15 -0.00424
54.2 -0.00768
54.25 -0.01069
54.3 -0.0131
54.35 -0.01082
54.4 -0.00666
54.45 -0.00747
54.5 -0.00492
54.55 0.00108
54.6 0.00044
54.65 0.00379
54.7 0.00833
54.75 0.01281
54.8 0.0137
54.85 0.01606
54.9 0.01412
54.95 0.01178
55 0.01201
55.05 0.00619
55.1 0.00055
55.15 -0.00799
55.2 -0.01207
55.25 -0.0133
55.3 -0.01484
55.35 -0.01396
55.4 -0.01582
55.45 -0.0199
55.5 -0.02372
55.55 -0.02029
55.6 -0.01218
55.65 -0.00896
55.7 -0.00826
55.75 -0.01079
55.8 -0.01126
55.85 -0.00916
55.9 -0.01087
55.95 -0.014
56 -0.01363
56.05 -0.01618
56.1 -0.01914
56.15 -0.02285
56.2 -0.0209
56.25 -0.01985
56.3 -0.02157
56.35 -0.02301
56.4 -0.01896
56.45 -0.0186
56.5 -0.01528
56.55 -0.00852
56.6 0.00083
56.65 0.00357
56.7 0.00629
56.75 0.00391
56.8 -0.00105
56.85 -0.00275
56.9 -0.00022
56.95 -0.00087
57 -0.00139
57.05 -0.00308
57.1 -0.00136
57.15 0.00342
57.2 0.00518
57.25 0.00978
57.3 0.01325
57.35 0.01799
57.4 0.02317
57.45 0.02063
57.5 0.01633
57.55 0.01272
57.6 0.0056
57.65 0.00103
57.7 -0.00012
57.75 -0.00097
57.8 -0.00095
57.85 -0.00236
57.9 0.00112
57.95 -0.00004
58 0.00338
58.05 0.00539
58.1 0.00401
58.15 0.00205
58.2 0.0011
58.25 0.00313
58.3 0.00385
58.35 0.00661
58.4 0.00726
58.45 0.00458
58.5 0.00091
58.55 -0.00511
58.6 -0.00426
58.65 0.00116
58.7 0.0005
58.75 0.00369
58.8 0.00307
58.85 0.00623
58.9 0.01198
58.95 0.01204
59 0.01512
59.05 0.01398
59.1 0.01642
59.15 0.01368
59.2 0.01147
59.25 0.01077
59.3 0.00752
59.35 0.00834
59.4 0.01066
59.45 0.01489
59.5 0.01421
59.55 0.01041
59.6 0.00455
59.65 -0.00286
59.7 -0.00927
59.75 -0.01292
59.8 -0.01768
59.85 -0.01603
59.9 -0.01648
59.95 -0.01999
60 -0.02377
60.05 -0.02639
60.1 -0.02726
60.15 -0.02451
60.2 -0.01661
60.25 -0.01435
60.3 -0.0123
60.35 -0.00589
60.4 0.00052
60.45 0.00634
60.5 0.00721
60.55 0.00691
60.6 0.00982
60.65 0.01263
60.7 0.01717
60.75 0.01843
60.8 0.02195
60.85 0.01951
60.9 0.01446
60.95 0.0106
61 0.00595
61.05 0.0017
61.1 -0.00364
61.15 -0.00456
61.2 -0.00063
61.25 0.00314
61.3 0.00442
61.35 0.00531
61.4 0.00203
61.45 -0.00127
61.5 -0.00573
61.55 -0.00411
61.6 -0.00512
61.65 -0.00597
61.7 -0.0069
61.75 -0.00504
61.8 -0.00428
61.85 -0.00103
61.9 0.00253
61.95 0.00846
62 0.01151
62.05 0.0154
62.1 0.0122
62.15 0.00542
62.2 0.004
62.25 0.00278
62.3 0.00566
62.35 0.00619
62.4 0.0024
62.45 -0.0027
62.5 -0.00667
62.55 -0.00561
62.6 -0.00147
62.65 0.00194
62.7 0.00374
62.75 0.00672
62.8 0.00996
62.85 0.01157
62.9 0.01405
62.95 0.01503
63 0.01712
63.05 0.01822
63.1 0.01331
63.15 0.00598
63.2 -0.00109
63.25 -0.0102
63.3 -0.01186
63.35 -0.01321
63.4 -0.00996
63.45 -0.01117
63.5 -0.00676
63.55 -0.00402
63.6 -0.00335
63.65 -0.00624
63.7 -0.0099
63.75 -0.01053
63.8 -0.00966
63.85 -0.00532
63.9 -0.00536
63.95 -0.00347
64 -0.00638
64.05 -0.00382
64.1 -0.00266
64.15 -0.00391
64.2 -0.00137
64.25 0.0001
64.3 0.00389
64.35 0.00989
64.4 0.01154
64.45 0.00896
64.5 0.00691
64.55 0.00298
64.6 -0.00024
64.65 -0.00277
64.7 -0.00262
64.75 -0.00295
64.8 -0.00542
64.85 -0.00358
64.9 -0.00527
64.95 -0.00735
65 -0.01107
65.05 -0.01462
65.1 -0.01928
65.15 -0.01988
65.2 -0.02079
65.25 -0.01584
65.3 -0.01403
65.35 -0.0126
65.4 -0.01523
65.45 -0.01645
65.5 -0.02032
65.55 -0.0198
65.6 -0.01341
65.65 -0.00451
65.7 -0.00279
65.75 0.00299
65.8 0.00835
65.85 0.01428
65.9 0.01919
65.95 0.02397
66 0.02934
66.05 0.03119
66.1 0.02939
66.15 0.02922
66.2 0.03026
66.25 0.03093
66.3 0.03254
66.35 0.02797
66.4 0.01832
66.45 0.01079
66.5 0.00234
66.55 -0.00804
66.6 -0.01759
66.65 -0.0187
66.7 -0.01681
66.75 -0.01909
66.8 -0.02213
66.85 -0.02191
66.9 -0.01734
66.95 -0.01636
67 -0.01263
67.05 -0.00585
67.1 -0.00299
67.15 0.00273
67.2 0.01021
67.25 0.01088
67.3 0.01306
67.35 0.00996
67.4 0.00582
67.45 0.00281
67.5 0.00077
67.55 0.00042
67.6 -0.00351
67.65 -0.00649
67.7 -0.0059
67.75 -0.00197
67.8 -0.00272
67.85 -0.00215
67.9 -0.00207
67.95 0.00145
68 -0.00128
68.05 -0.0068
68.1 -0.01299
68.15 -0.01501
68.2 -0.01358
68.25 -0.00823
68.3 -0.00366
68.35 -0.00226
68.4 0.00314
68.45 0.00444
68.5 0.00059
68.55 -0.00419
68.6 -0.00277
68.65 -0.00366
68.7 -0.00171
68.75 0.00404
68.8 0.00799
68.85 0.00803
68.9 0.00851
68.95 0.01238
69 0.01416
69.05 0.01284
69.1 0.00988
69.15 0.00266
69.2 -0.00193
69.25 -0.00255
69.3 -0.00625
69.35 -0.01104
69.4 -0.01412
69.45 -0.01086
69.5 -0.00604
69.55 0.00175
69.6 0.01067
69.65 0.01537
69.7 0.01435
69.75 0.01434
69.8 0.01587
69.85 0.01906
69.9 0.0165
69.95 0.01534
70 0.0144
70.05 0.01122
70.1 0.01134
70.15 0.01148
70.2 0.00944
70.25 0.00967
70.3 0.00915
70.35 0.00408
70.4 0.00422
70.45 0.00641
70.5 0.00419
70.55 0.00322
70.6 -0.00171
70.65 -0.00799
70.7 -0.01593
70.75 -0.01862
70.8 -0.01615
70.85 -0.0135
70.9 -0.01127
70.95 -0.00676
71 -0.00578
71.05 -0.0068
71.1 -0.01033
71.15 -0.00942
71.2 -0.01228
71.25 -0.01001
71.3 -0.0125
71.35 -0.00891
71.4 -0.00457
71.45 -0.00438
71.5 -0.00626
71.55 -0.00392
71.6 -0.0007
71.65 -0.00139
71.7 -0.00593
71.75 -0.00627
71.8 -0.00199
71.85 0.00137
71.9 0.00192
71.95 0.00206
72 0.0053
72.05 0.0079
72.1 0.01215
72.15 0.01491
72.2 0.01672
72.25 0.01157
72.3 0.00498
72.35 -0.00088
72.4 -0.0046
72.45 -0.0065
72.5 -0.01094
72.55 -0.00934
72.6 -0.01108
72.65 -0.01475
72.7 -0.01253
72.75 -0.01439
72.8 -0.0143
72.85 -0.01313
72.9 -0.00798
72.95 -0.00006
73 0.00618
73.05 0.00764
73.1 0.00501
73.15 0.00563
73.2 0.00767
73.25 0.00423
73.3 0.00222
73.35 0.00306
73.4 0.00514
73.45 0.00233
73.5 -0.00077
73.55 -0.00031
73.6 -0.00026
73.65 -0.00357
73.7 -0.00393
73.75 -0.00444
73.8 -0.00382
73.85 -0.00204
73.9 -0.00492
73.95 -0.00918
74 -0.01191
74.05 -0.01073
74.1 -0.00512
74.15 -0.00286
74.2 -0.00588
74.25 -0.00444
74.3 -0.0046
74.35 -0.00784
74.4 -0.00711
74.45 -0.00492
74.5 -0.00193
74.55 -0.00078
74.6 -0.00427
74.65 -0.0085
74.7 -0.00773
74.75 -0.00542
74.8 -0.00202
74.85 0.00329
74.9 0.00156
74.95 -0.00212
75 -0.0044
75.05 -0.00404
75.1 0.00013
75.15 0.00293
75.2 0.00773
75.25 0.00811
75.3 0.00938
75.35 0.00714
75.4 0.00059
75.45 -0.00383
75.5 -0.00407
75.55 -0.00774
75.6 -0.01264
75.65 -0.01528
75.7 -0.01632
75.75 -0.01756
75.8 -0.01846
75.85 -0.01637
75.9 -0.01381
75.95 -0.01404
76 -0.01105
76.05 -0.00404
76.1 0.00111
76.15 0.00668
76.2 0.01223
76.25 0.01032
76.3 0.00416
76.35 0.00303
76.4 0.00241
76.45 -0.00248
76.5 -0.00739
76.55 -0.00765
76.6 -0.00945
76.65 -0.00621
76.7 -0.00144
76.75 0.00042
76.8 -0.00271
76.85 -0.00151
76.9 0.00039
76.95 -0.00226
77 -0.00469
77.05 -0.00568
77.1 -0.00587
77.15 -0.0074
77.2 -0.00389
77.25 -0.00354
77.3 -0.00687
77.35 -0.00417
77.4 -0.00381
77.45 -0.00672
77.5 -0.00451
77.55 -0.0005
77.6 0.00307
77.65 0.00709
77.7 0.00808
77.75 0.0098
77.8 0.00917
77.85 0.00472
77.9 -0.00099
77.95 -0.00673
78 -0.01274
78.05 -0.01796
78.1 -0.01652
78.15 -0.01043
78.2 -0.01014
78.25 -0.00537
78.3 -0.00293
78.35 0.00348
78.4 0.00528
78.45 0.00165
78.5 -0.0007
78.55 -0.00609
78.6 -0.00442
78.65 -0.00251
78.7 -0.00564
78.75 -0.00447
78.8 -0.00282
78.85 0.00153
78.9 0.00862
78.95 0.00784
79 0.00491
79.05 0.00514
79.1 0.00361
79.15 0.00286
79.2 0.00351
79.25 0.00796
79.3 0.00616
79.35 0.00173
79.4 -0.00222
79.45 -0.00339
79.5 -0.00638
79.55 -0.0104
79.6 -0.00913
79.65 -0.00761
79.7 -0.0039
79.75 0.00079
79.8 0.00742
79.85 0.01056
79.9 0.00717
79.95 0.00616
80 0.0055
80.05 0.00541
80.1 0.00899
80.15 0.00654
80.2 0.00762
80.25 0.01032
80.3 0.01131
80.35 0.0065
80.4 0.00635
80.45 0.0019
80.5 0.00102
80.55 0.00097
80.6 0.00108
80.65 0.00303
80.7 0.00698
80.75 0.00959
80.8 0.00773
80.85 0.00156
80.9 -0.00563
80.95 -0.00751
81 -0.00664
81.05 -0.00952
81.1 -0.01354
81.15 -0.01229
81.2 -0.00604
81.25 -0.00382
81.3 -0.00563
81.35 -0.00183
81.4 0.00063
81.45 0.00117
81.5 0.00566
81.55 0.0119
81.6 0.01258
81.65 0.0135
81.7 0.01102
81.75 0.00875
81.8 0.01061
81.85 0.0121
81.9 0.0078
81.95 0.00824
82 0.00515
82.05 0.00505
82.1 0.00537
82.15 0.00381
82.2 -0.0015
82.25 -0.00049
82.3 -0.00242
82.35 -0.00523
82.4 -0.00904
82.45 -0.01263
82.5 -0.00963
82.55 -0.00488
82.6 -0.00291
82.65 -0.00455
82.7 -0.00678
82.75 -0.00733
82.8 -0.00484
82.85 -0.00384
82.9 -0.00595
82.95 -0.00996
83 -0.01245
83.05 -0.01362
83.1 -0.0144
83.15 -0.01525
83.2 -0.01686
83.25 -0.01782
83.3 -0.01865
83.35 -0.01763
83.4 -0.01469
83.45 -0.00971
83.5 -0.00249
83.55 -0.00124
83.6 -0.00265
83.65 0.00085
83.7 0.00639
83.75 0.00561
83.8 0.00094
83.85 -0.00046
83.9 0.00235
83.95 0.00235
84 0.00512
84.05 0.00341
84.1 0.00326
84.15 0.00004
84.2 0.00112
84.25 -0.00054
84.3 -0.00507
84.35 -0.00967
84.4 -0.0154
84.45 -0.01761
84.5 -0.01327
84.55 -0.01104
84.6 -0.01157
84.65 -0.01502
84.7 -0.01939
84.75 -0.01714
84.8 -0.01851
84.85 -0.0206
84.9 -0.0163
84.95 -0.00791
85 -0.00627
85.05 -0.00898
85.1 -0.01373
85.15 -0.01681
85.2 -0.0132
85.25 -0.01342
85.3 -0.01302
85.35 -0.00706
85.4 -0.00541
85.45 -0.00208
85.5 0.00496
85.55 0.01385
85.6 0.02299
85.65 0.02524
85.7 0.02561
85.75 0.02575
85.8 0.02799
85.85 0.02474
85.9 0.02021
85.95 0.01224
86 0.00737
86.05 0.00311
86.1 0.0018
86.15 -0.00032
86.2 -0.00438
86.25 -0.00473
86.3 -0.00085
86.35 -0.00183
86.4 -0.00456
86.45 -0.00981
86.5 -0.01481
86.55 -0.01777
86.6 -0.01978
86.65 -0.01785
86.7 -0.01209
86.75 -0.00935
86.8 -0.00283
86.85 -0.00151
86.9 0.00118
86.95 0.00529
87 0.00445
87.05 0.00288
87.1 0.00058
87.15 0.00044
87.2 0.00433
87.25 0.00323
87.3 0.00063
87.35 0.00029
87.4 0.00087
87.45 0.00373
87.5 0.00437
87.55 0.00012
87.6 -0.00314
87.65 -0.00816
87.7 -0.01284
87.75 -0.01303
87.8 -0.01469
87.85 -0.01588
87.9 -0.01289
87.95 -0.01277
88 -0.01155
88.05 -0.01017
88.1 -0.01267
88.15 -0.0115
88.2 -0.00857
88.25 -0.00602
88.3 -0.00499
88.35 -0.00386
88.4 -0.00616
88.45 -0.01028
88.5 -0.00946
88.55 -0.00484
88.6 -0.00526
88.65 -0.00903
88.7 -0.00898
88.75 -0.00552
88.8 -0.00406
88.85 -0.00087
88.9 -0.00125
88.95 -0.00014
89 -0.00006
89.05 0.00173
89.1 -0.00132
89.15 -0.00537
89.2 -0.00843
89.25 -0.00707
89.3 -0.00944
89.35 -0.00782
89.4 -0.00321
89.45 -0.00332
89.5 -0.00164
89.55 -0.00118
89.6 -0.00333
89.65 -0.00343
89.7 -0.00599
89.75 -0.01088
89.8 -0.01374
89.85 -0.01747
89.9 -0.01739
89.95 -0.01454
90 -0.01198
90.05 -0.00801
90.1 -0.00197
90.15 0.0031
90.2 0.00432
90.25 0.00696
90.3 0.00751
90.35 0.00866
90.4 0.01376
90.45 0.01517
90.5 0.0179
90.55 0.015
90.6 0.01589
90.65 0.01534
90.7 0.01373
90.75 0.00875
90.8 0.00412
90.85 0.00416
90.9 0.00745
90.95 0.00615
91 0.0025
91.05 -0.00169
91.1 -0.00527
91.15 -0.00618
91.2 -0.00204
91.25 -0.00164
91.3 -0.00133
91.35 -0
91.4 -0.00183
91.45 -0.00382
91.5 -0.00313
91.55 0.0015
91.6 0.00688
91.65 0.01233
91.7 0.01489
91.75 0.0201
91.8 0.02632
91.85 0.02454
91.9 0.02351
91.95 0.02533
92 0.02595
92.05 0.02448
92.1 0.01889
92.15 0.01474
92.2 0.01204
92.25 0.00979
92.3 0.00541
92.35 0.00294
92.4 -0.00088
92.45 0.00123
92.5 -0.00049
92.55 -0.0048
92.6 -0.00623
92.65 -0.00619
92.7 -0.00294
92.75 -0.00082
92.8 0.00419
92.85 0.00701
92.9 0.01068
92.95 0.01283
93 0.01285
93.05 0.0122
93.1 0.00753
93.15 0.00796
93.2 0.00736
93.25 0.00689
93.3 0.00378
93.35 0.00309
93.4 0.00656
93.45 0.00771
93.5 0.0035
93.55 -0.00241
93.6 -0.00942
93.65 -0.01205
93.7 -0.00955
93.75 -0.007
93.8 -0.00238
93.85 0.00519
93.9 0.00504
93.95 0.00815
94 0.01015
94.05 0.01192
94.1 0.01397
94.15 0.01588
94.2 0.01198
94.25 0.00719
94.3 0.00081
94.35 -0.00418
94.4 -0.00588
94.45 -0.01088
94.5 -0.01544
94.55 -0.01668
94.6 -0.01314
94.65 -0.0103
94.7 -0.01067
94.75 -0.00881
94.8 -0.00345
94.85 -0.00251
94.9 -0.00529
94.95 -0.00325
95 -0.00174
95.05 -0.00069
95.1 -0.00281
95.15 -0.00369
95.2 -0.00205
95.25 -0.00358
95.3 -0.00587
95.35 -0.00297
95.4 0.00259
95.45 0.00316
95.5 0.00026
95.55 0.0011
95.6 0.00375
95.65 0.00209
95.7 -0.00251
95.75 -0.00413
95.8 -0.00354
95.85 0.00003
95.9 -0.00219
95.95 -0.00629
96 -0.01236
96.05 -0.01712
96.1 -0.02288
96.15 -0.02728
96.2 -0.02971
96.25 -0.03071
96.3 -0.02562
96.35 -0.02093
96.4 -0.01217
96.45 -0.00312
96.5 -0.00064
96.55 0.00451
96.6 0.00811
96.65 0.01291
96.7 0.01593
96.75 0.01779
96.8 0.01946
96.85 0.02201
96.9 0.0233
96.95 0.01775
97 0.01642
97.05 0.01424
97.1 0.00866
97.15 0.00032
97.2 -0.00469
97.25 -0.01139
97.3 -0.01877
97.35 -0.02301
97.4 -0.02259
97.45 -0.02098
97.5 -0.01751
97.55 -0.01614
97.6 -0.01238
97.65 -0.01178
97.7 -0.00646
97.75 0.00036
97.8 0.00939
97.85 0.01817
97.9 0.02628
97.95 0.03114
98 0.0303
98.05 0.02326
98.1 0.02105
98.15 0.01921
98.2 0.0143
98.25 0.00995
98.3 0.00956
98.35 0.00681
98.4 0.00309
98.45 -0.00185
98.5 -0.00309
98.55 -0.0062
98.6 -0.0086
98.65 -0.00501
98.7 -0.00008
98.75 0.00495
98.8 0.01007
98.85 0.01364
98.9 0.01291
98.95 0.01073
99 0.00444
99.05 0.00005
99.1 -0.0038
99.15 -0.00983
99.2 -0.00893
99.25 -0.00326
99.3 0.00004
99.35 0.00389
99.4 0.00254
99.45 0.00082
99.5 -0.00473
99.55 -0.00616
99.6 -0.0111
99.65 -0.01751
99.7 -0.01564
99.75 -0.01037
99.8 -0.00469
99.85 0.00298
99.9 0.00799
99.95 0.01276
