0 0
0.05 0.00425
0.1 0.00846
0.15 0.01939
0.2 0.02738
0.25 0.03565
0.3 0.04276
0.35 0.04604
0.4 0.04474
0.45 0.04587
0.5 0.04793
0.55 0.04743
0.6 0.04291
0.65 0.04474
0.7 0.04782
0.75 0.04626
0.8 0.0494
0.85 0.05031
0.9 0.0469
0.95 0.04338
1 0.04062
1.05 0.03583
1.1 0.03663
1.15 0.03643
1.2 0.0407
1.25 0.04092
1.3 0.04307
1.35 0.04743
1.4 0.05139
1.45 0.04848
1.5 0.0483
1.55 0.05013
1.6 0.05087
1.65 0.05166
1.7 0.04741
1.75 0.04587
1.8 0.0394
1.85 0.03692
1.9 0.03722
1.95 0.03592
2 0.03239
2.05 0.02701
2.1 0.0273
2.15 0.02441
2.2 0.02383
2.25 0.02625
2.3 0.02844
2.35 0.02658
2.4 0.02121
2.45 0.02237
2.5 0.02603
2.55 0.03173
2.6 0.0336
2.65 0.03273
2.7 0.03538
2.75 0.03709
2.8 0.04161
2.85 0.043
2.9 0.04612
2.95 0.04333
3 0.03882
3.05 0.03181
3.1 0.02858
3.15 0.02426
3.2 0.01896
3.25 0.01715
3.3 0.01753
3.35 0.01771
3.4 0.01543
3.45 0.01674
3.5 0.01996
3.55 0.01757
3.6 0.01188
3.65 0.00897
3.7 0.0034
3.75 0.00467
3.8 0.00838
3.85 0.01306
3.9 0.0157
3.95 0.01551
4 0.01507
4.05 0.01052
4.1 0.00498
4.15 0.00452
4.2 -0.00011
4.25 -0.00565
4.3 -0.01089
4.35 -0.01248
4.4 -0.0101
4.45 -0.01053
4.5 -0.0142
4.55 -0.01891
4.6 -0.03023
4.65 -0.04164
4.7 -0.05522
4.75 -0.07674
4.8 -0.10301
4.85 -0.1352
4.9 -0.16851
4.95 -0.20709
5 -0.24491
5.05 -0.28728
5.1 -0.3315
5.15 -0.38309
5.2 -0.44708
5.25 -0.51539
5.3 -0.59427
5.35 -0.67986
5.4 -0.76959
5.45 -0.86092
5.5 -0.9509
5.55 -1.04323
5.6 -1.13707
5.65 -1.23628
5.7 -1.33336
5.75 -1.43392
5.8 -1.53545
5.85 -1.63652
5.9 -1.73189
5.95 -1.82076
6 -1.90197
6.05 -1.97586
6.1 -2.04417
6.15 -2.11329
6.2 -2.1755
6.25 -2.23463
6.3 -2.29245
6.35 -2.34953
6.4 -2.39969
6.45 -2.44579
6.5 -2.47947
6.55 -2.50618
6.6 -2.52371
6.65 -2.52666
6.7 -2.51418
6.75 -2.49173
6.8 -2.4514
6.85 -2.39702
6.9 -2.32519
6.95 -2.23969
7 -2.13606
7.05 -2.02255
7.1 -1.88986
7.15 -1.74099
7.2 -1.58162
7.25 -1.4056
7.3 -1.22372
7.35 -1.03592
7.4 -0.84326
7.45 -0.64692
7.5 -0.4427
7.55 -0.23431
7.6 -0.02716
7.65 0.17546
7.7 0.37326
7.75 0.56588
7.8 0.74732
7.85 0.91862
7.9 1.08324
7.95 1.2384
8 1.3808
8.05 1.51139
8.1 1.62907
8.15 1.73029
8.2 1.81761
8.25 1.894
8.3 1.96319
8.35 2.02109
8.4 2.07073
8.45 2.11677
8.5 2.1517
8.55 2.18039
8.6 2.19982
8.65 2.21835
8.7 2.23019
8.75 2.23699
8.8 2.24195
8.85 2.24213
8.9 2.23309
8.95 2.22404
9 2.20889
9.05 2.1911
9.1 2.1701
9.15 2.14948
9.2 2.13019
9.25 2.10975
9.3 2.08863
9.35 2.06813
9.4 2.04577
9.45 2.02046
9.5 1.99708
9.55 1.97081
9.6 1.94714
9.65 1.92104
9.7 1.89852
9.75 1.87213
9.8 1.83922
9.85 1.81048
9.9 1.77771
9.95 1.7452
10 1.714
10.05 1.67842
10.1 1.64011
10.15 1.59996
10.2 1.56164
10.25 1.52494
10.3 1.48375
10.35 1.43597
10.4 1.38922
10.45 1.3447
10.5 1.29385
10.55 1.24458
10.6 1.19366
10.65 1.14844
10.7 1.09981
10.75 1.05093
10.8 1.00135
10.85 0.95742
10.9 0.91291
10.95 0.86787
11 0.81799
11.05 0.77393
11.1 0.73095
11.15 0.69028
11.2 0.65219
11.25 0.61005
11.3 0.56514
11.35 0.51559
11.4 0.46862
11.45 0.42823
11.5 0.39052
11.55 0.35035
11.6 0.31009
11.65 0.2758
11.7 0.2405
11.75 0.20498
11.8 0.16627
11.85 0.12964
11.9 0.09961
11.95 0.06927
12 0.04157
12.05 0.01509
12.1 -0.01222
12.15 -0.04287
12.2 -0.07491
12.25 -0.10468
12.3 -0.13392
12.35 -0.15532
12.4 -0.17477
12.45 -0.19126
12.5 -0.20582
12.55 -0.22161
12.6 -0.23747
12.65 -0.25451
12.7 -0.27023
12.75 -0.28749
12.8 -0.30271
12.85 -0.31203
12.9 -0.32058
12.95 -0.33016
13 -0.33324
13.05 -0.34074
13.1 -0.34817
13.15 -0.35683
13.2 -0.35803
13.25 -0.3556
13.3 -0.35765
13.35 -0.35862
13.4 -0.36311
13.45 -0.365
13.5 -0.36669
13.55 -0.37051
13.6 -0.37179
13.65 -0.3766
13.7 -0.37619
13.75 -0.37477
13.8 -0.37182
13.85 -0.36824
13.9 -0.36192
13.95 -0.35973
14 -0.35601
14.05 -0.35451
14.1 -0.35312
14.15 -0.34909
14.2 -0.34204
14.25 -0.33943
14.3 -0.3391
14.35 -0.33468
14.4 -0.33637
14.45 -0.33866
14.5 -0.33503
14.55 -0.32997
14.6 -0.32575
14.65 -0.32036
14.7 -0.31894
14.75 -0.31893
14.8 -0.32032
14.85 -0.31618
14.9 -0.31479
14.95 -0.31608
15 -0.31292
15.05 -0.31319
15.1 -0.30929
15.15 -0.30672
15.2 -0.30011
15.25 -0.29595
15.3 -0.29021
15.35 -0.28761
15.4 -0.28393
15.45 -0.28083
15.5 -0.2756
15.55 -0.27003
15.6 -0.26043
15.65 -0.25479
15.7 -0.24601
15.75 -0.23545
15.8 -0.23047
15.85 -0.22962
15.9 -0.22669
15.95 -0.22831
16 -0.23271
16.05 -0.23659
16.1 -0.23335
16.15 -0.23201
16.2 -0.22863
16.25 -0.22354
16.3 -0.21593
16.35 -0.21142
16.4 -0.20514
16.45 -0.19509
16.5 -0.18929
16.55 -0.18758
16.6 -0.18914
16.65 -0.19264
16.7 -0.19352
16.75 -0.19389
16.8 -0.1895
16.85 -0.18172
16.9 -0.17853
16.95 -0.17203
17 -0.17088
17.05 -0.1669
17.1 -0.16055
17.15 -0.15227
17.2 -0.14768
17.25 -0.13999
17.3 -0.1392
17.35 -0.14023
17.4 -0.14092
17.45 -0.14481
17.5 -0.1426
17.55 -0.14118
17.6 -0.13966
17.65 -0.14177
17.7 -0.14409
17.75 -0.14155
17.8 -0.13786
17.85 -0.13201
17.9 -0.12575
17.95 -0.1196
18 -0.11223
18.05 -0.1037
18.1 -0.09912
18.15 -0.09372
18.2 -0.09251
18.25 -0.09729
18.3 -0.10402
18.35 -0.11141
18.4 -0.11133
18.45 -0.11335
18.5 -0.11038
18.55 -0.10883
18.6 -0.10323
18.65 -0.09434
18.7 -0.0868
18.75 -0.08678
18.8 -0.08516
18.85 -0.08722
18.9 -0.08842
18.95 -0.09133
19 -0.09055
19.05 -0.09352
19.1 -0.09694
19.15 -0.09966
19.2 -0.10362
19.25 -0.10412
19.3 -0.10339
19.35 -0.09756
19.4 -0.09315
19.45 -0.08671
19.5 -0.08566
19.55 -0.08568
19.6 -0.08831
19.65 -0.09004
19.7 -0.08489
19.75 -0.08211
19.8 -0.0826
19.85 -0.08411
19.9 -0.08267
19.95 -0.08224
20 -0.07869
20.05 -0.07218
20.1 -0.06254
20.15 -0.05701
20.2 -0.05576
20.25 -0.05645
20.3 -0.06088
20.35 -0.05952
20.4 -0.05569
20.45 -0.04988
20.5 -0.04829
20.55 -0.04822
20.6 -0.04902
20.65 -0.05134
20.7 -0.05655
20.75 -0.05808
20.8 -0.06226
20.85 -0.06178
20.9 -0.06373
20.95 -0.06263
21 -0.06466
21.05 -0.06126
21.1 -0.05709
21.15 -0.05095
21.2 -0.0474
21.25 -0.04137
21.3 -0.03366
21.35 -0.02541
21.4 -0.0196
21.45 -0.02102
21.5 -0.02663
21.55 -0.02815
21.6 -0.02529
21.65 -0.02324
21.7 -0.01862
21.75 -0.01636
21.8 -0.01951
21.85 -0.01963
21.9 -0.02448
21.95 -0.02458
22 -0.02873
22.05 -0.0276
22.1 -0.03021
22.15 -0.02931
22.2 -0.03208
22.25 -0.03408
22.3 -0.03103
22.35 -0.02887
22.4 -0.02924
22.45 -0.02784
22.5 -0.02397
22.55 -0.01931
22.6 -0.01574
22.65 -0.01098
22.7 -0.01217
22.75 -0.01567
22.8 -0.01966
22.85 -0.02048
22.9 -0.01812
22.95 -0.01578
23 -0.01095
23.05 -0.00848
23.1 -0.0058
23.15 -0.00829
23.2 -0.00978
23.25 -0.01563
23.3 -0.01582
23.35 -0.01975
23.4 -0.0193
23.45 -0.02226
23.5 -0.02676
23.55 -0.0253
23.6 -0.01966
23.65 -0.01238
23.7 -0.01233
23.75 -0.01426
23.8 -0.01206
23.85 -0.01068
23.9 -0.00803
23.95 -0.00707
24 -0.01044
24.05 -0.0109
24.1 -0.01103
24.15 -0.01582
24.2 -0.02005
24.25 -0.02191
24.3 -0.02249
24.35 -0.02122
24.4 -0.02448
24.45 -0.02452
24.5 -0.02003
24.55 -0.01792
24.6 -0.01244
24.65 -0.01305
24.7 -0.01273
24.75 -0.01108
24.8 -0.01278
24.85 -0.0175
24.9 -0.02025
24.95 -0.01925
25 -0.02049
25.05 -0.02245
25.1 -0.02371
25.15 -0.02782
25.2 -0.02495
25.25 -0.01899
25.3 -0.01438
25.35 -0.01348
25.4 -0.01263
25.45 -0.01605
25.5 -0.01839
25.55 -0.01705
25.6 -0.01929
25.65 -0.02222
25.7 -0.0231
25.75 -0.02463
25.8 -0.02216
25.85 -0.01838
25.9 -0.01207
25.95 -0.0047
26 0.00222
26.05 0.00565
26.1 0.00905
26.15 0.01021
26.2 0.01228
26.25 0.01233
26.3 0.00662
26.35 -0.00283
26.4 -0.00866
26.45 -0.01375
26.5 -0.01556
26.55 -0.01813
26.6 -0.01528
26.65 -0.01415
26.7 -0.01439
26.75 -0.01159
26.8 -0.00984
26.85 -0.01276
26.9 -0.01451
26.95 -0.0196
27 -0.02568
27.05 -0.02362
27.1 -0.02269
27.15 -0.02341
27.2 -0.02047
27.25 -0.01914
27.3 -0.0194
27.35 -0.0226
27.4 -0.02063
27.45 -0.01919
27.5 -0.01569
27.55 -0.01179
27.6 -0.00609
27.65 0.00013
27.7 0.00032
27.75 -0.00314
27.8 -0.00794
27.85 -0.01461
27.9 -0.01984
27.95 -0.01955
28 -0.01895
28.05 -0.01488
28.1 -0.00705
28.15 -0.00326
28.2 0.00329
28.25 0.01055
28.3 0.01294
28.35 0.01212
28.4 0.0068
28.45 -0.00151
28.5 -0.0083
28.55 -0.01573
28.6 -0.0232
28.65 -0.0262
28.7 -0.02762
28.75 -0.02386
28.8 -0.02345
28.85 -0.02453
28.9 -0.02661
28.95 -0.02376
29 -0.0243
29.05 -0.02086
29.1 -0.01647
29.15 -0.01679
29.2 -0.01246
29.25 -0.01321
29.3 -0.01219
29.35 -0.00652
29.4 -0.00008
29.45 0.00069
29.5 0.00223
29.55 0.00294
29.6 0.00143
29.65 -0.00022
29.7 -0.00188
29.75 -0.00205
29.8 -0.00167
29.85 -0.00285
29.9 -0.00699
29.95 -0.00671
30 -0.00576
30.05 -0.00319
30.1 -0.00145
30.15 0.00389
30.2 0.00653
30.25 0.01067
30.3 0.01032
30.35 0.01383
30.4 0.01386
30.45 0.01314
30.5 0.00752
30.55 0.00333
30.6 -0.00029
30.65 -0.00708
30.7 -0.01318
30.75 -0.01966
30.8 -0.01924
30.85 -0.01653
30.9 -0.01634
30.95 -0.0117
31 -0.00583
31.05 -0.00558
31.1 -0.00471
31.15 -0.00316
31.2 0.00225
31.25 0.0073
31.3 0.01297
31.35 0.01615
31.4 0.01549
31.45 0.01568
31.5 0.01811
31.55 0.0139
31.6 0.00724
31.65 0.00036
31.7 -0.00383
31.75 -0.00421
31.8 -0.00025
31.85 -0.00183
31.9 -0.0064
31.95 -0.00971
32 -0.01021
32.05 -0.01047
32.1 -0.00509
32.15 0.00188
32.2 0.00537
32.25 0.00922
32.3 0.01369
32.35 0.01191
32.4 0.00749
32.45 0.00583
32.5 0.00134
32.55 0.00064
32.6 -0.00264
32.65 -0.0032
32.7 -0.00144
32.75 0.00276
32.8 0.00415
32.85 0.00313
32.9 0.00628
32.95 0.01042
33 0.01236
33.05 0.01381
33.1 0.01718
33.15 0.01419
33.2 0.0149
33.25 0.01551
33.3 0.01351
33.35 0.01489
33.4 0.01666
33.45 0.01732
33.5 0.01891
33.55 0.02245
33.6 0.02319
33.65 0.02449
33.7 0.02402
33.75 0.0172
33.8 0.01123
33.85 0.00821
33.9 0.0028
33.95 -0.00083
34 -0.00573
34.05 -0.00812
34.1 -0.01392
34.15 -0.01775
34.2 -0.02021
34.25 -0.0248
34.3 -0.02651
34.35 -0.02264
34.4 -0.01478
34.45 -0.01099
34.5 -0.00532
34.55 0.00228
34.6 0.00809
34.65 0.01136
34.7 0.00943
34.75 0.00983
34.8 0.00576
34.85 0.00435
34.9 0.00091
34.95 0.00175
35 0.00273
35.05 0.00473
35.1 0.00393
35.15 0.0064
35.2 0.00647
35.25 0.00296
35.3 -0.00329
35.35 -0.00962
35.4 -0.00853
35.45 -0.00932
35.5 -0.01141
35.55 -0.00747
35.6 -0.00401
35.65 -0.00616
35.7 -0.01053
35.75 -0.01189
35.8 -0.00823
35.85 -0.0019
35.9 -0.00118
35.95 -0.00442
36 -0.00354
36.05 -0.00536
36.1 -0.01044
36.15 -0.01539
36.2 -0.02071
36.25 -0.02621
36.3 -0.03079
36.35 -0.03053
36.4 -0.0255
36.45 -0.01973
36.5 -0.00984
36.55 -0.00337
36.6 0.00211
36.65 0.0013
36.7 0.00387
36.75 0.00499
36.8 0.00975
36.85 0.01354
36.9 0.01403
36.95 0.01234
37 0.01303
37.05 0.0091
37.1 0.00449
37.15 0.00178
37.2 0.00392
37.25 0.00164
37.3 -0.00399
37.35 -0.00648
37.4 -0.00477
37.45 -0.00057
37.5 -0.00002
37.55 0.00344
37.6 0.00623
37.65 0.01138
37.7 0.01748
37.75 0.02013
37.8 0.02269
37.85 0.02583
37.9 0.02206
37.95 0.01809
38 0.00949
38.05 -0.00163
38.1 -0.00921
38.15 -0.01589
38.2 -0.01523
38.25 -0.01829
38.3 -0.023
38.35 -0.02466
38.4 -0.02287
38.45 -0.01718
38.5 -0.01265
38.55 -0.00565
38.6 0.00203
38.65 0.00952
38.7 0.0178
38.75 0.02051
38.8 0.0229
38.85 0.02105
38.9 0.0172
38.95 0.01704
39 0.01449
39.05 0.0156
39.1 0.01335
39.15 0.01208
39.2 0.01035
39.25 0.0062
39.3 -0.00136
39.35 -0.01057
39.4 -0.01444
39.45 -0.01607
39.5 -0.01716
39.55 -0.01581
39.6 -0.00988
39.65 -0.00904
39.7 -0.007
39.75 -0.00142
39.8 -0.00123
39.85 0.00146
39.9 -0.00047
39.95 -0.00267
40 -0.00626
40.05 -0.00794
40.1 -0.0048
40.15 -0.0003
40.2 -0.00001
40.25 -0.00298
40.3 -0.00768
40.35 -0.01084
40.4 -0.00795
40.45 -0.00468
40.5 -0.0029
40.55 -0.00394
40.6 -0.00254
40.65 0.00278
40.7 0.0047
40.75 0.00827
40.8 0.00659
40.85 0.00085
40.9 0.00013
40.95 0.0011
41 -0.0026
41.05 -0.00391
41.1 -0.00739
41.15 -0.00704
41.2 -0.00579
41.25 -0.00814
41.3 -0.00969
41.35 -0.00787
41.4 -0.00648
41.45 -0.00975
41.5 -0.01012
41.55 -0.00904
41.6 -0.00458
41.65 -0.00277
41.7 0.00308
41.75 0.00338
41.8 0.00235
41.85 0.00033
41.9 -0.00211
41.95 -0.00396
42 -0.00056
42.05 0.00495
42.1 0.00971
42.15 0.01277
42.2 0.01599
42.25 0.01322
42.3 0.00958
42.35 0.00588
42.4 0.00113
42.45 -0.00112
42.5 0.00095
42.55 0.00297
42.6 -0.00051
42.65 -0.00226
42.7 -0.00479
42.75 -0.00296
42.8 0.00203
42.85 0.00462
42.9 0.00384
42.95 0.00117
43 0.00031
43.05 -0.00098
43.1 -0.0017
43.15 -0.00052
43.2 0.00155
43.25 0.00499
43.3 0.00805
43.35 0.00529
43.4 0.00425
43.45 0.00639
43.5 0.00574
43.55 0.00405
43.6 0.00055
43.65 0.00219
43.7 0.00711
43.75 0.01216
43.8 0.01507
43.85 0.0178
43.9 0.0173
43.95 0.01333
44 0.0071
44.05 0.00628
44.1 0.00768
44.15 0.01208
44.2 0.01611
44.25 0.01238
44.3 0.01058
44.35 0.00909
44.4 0.00994
44.45 0.00717
44.5 0.00425
44.55 0.00496
44.6 0.00325
44.65 -0.0023
44.7 -0.01061
44.75 -0.01649
44.8 -0.02101
44.85 -0.0188
44.9 -0.01218
44.95 -0.00427
45 0.00105
45.05 0.00607
45.1 0.0092
45.15 0.00561
45.2 -0.00207
45.25 -0.00796
45.3 -0.01138
45.35 -0.01584
45.4 -0.02086
45.45 -0.01944
45.5 -0.01802
45.55 -0.0162
45.6 -0.01718
45.65 -0.02056
45.7 -0.02404
45.75 -0.01987
45.8 -0.0146
45.85 -0.0065
45.9 -0.0034
45.95 -0.00037
46 -0.00045
46.05 0.00307
46.1 0.00072
46.15 -0.00214
46.2 -0.00748
46.25 -0.01079
46.3 -0.00774
46.35 -0.0045
46.4 -0.00039
46.45 0.00245
46.5 0.00456
46.55 0.00748
46.6 0.00731
46.65 0.00492
46.7 0.00514
46.75 0.00341
46.8 0.00292
46.85 0.0057
46.9 0.0061
46.95 0.00636
47 0.00617
47.05 0.00973
47.1 0.01226
47.15 0.01356
47.2 0.01498
47.25 0.015
47.3 0.01726
47.35 0.01278
47.4 0.01305
47.45 0.01366
47.5 0.00826
47.55 0.00648
47.6 0.00819
47.65 0.01112
47.7 0.01484
47.75 0.01317
47.8 0.01373
47.85 0.00788
47.9 -0.00114
47.95 -0.00977
48 -0.01664
48.05 -0.02267
48.1 -0.02141
48.15 -0.01515
48.2 -0.00745
48.25 -0.00584
48.3 -0.00468
48.35 -0.00732
48.4 -0.01153
48.45 -0.01367
48.5 -0.01491
48.55 -0.01551
48.6 -0.01398
48.65 -0.01215
48.7 -0.01118
48.75 -0.01267
48.8 -0.01624
48.85 -0.01889
48.9 -0.01861
48.95 -0.01827
49 -0.01397
49.05 -0.00691
49.1 0.00114
49.15 0.00278
49.2 0.0042
49.25 0.00712
49.3 0.01183
49.35 0.01008
49.4 0.00522
49.45 -0.00285
49.5 -0.00471
49.55 -0.00794
49.6 -0.00656
49.65 -0.0033
49.7 0.00312
49.75 0.00823
49.8 0.01455
49.85 0.01908
49.9 0.02067
49.95 0.02285
50 0.02456
50.05 0.02481
50.1 0.02444
50.15 0.01986
50.2 0.01639
50.25 0.01599
50.3 0.0163
50.35 0.01211
50.4 0.00547
50.45 0.00203
50.5 -0.00304
50.55 -0.00462
50.6 -0.0101
50.65 -0.01316
50.7 -0.01307
50.75 -0.0114
50.8 -0.00913
50.85 -0.01085
50.9 -0.0079
50.95 -0.00196
51 0.00573
51.05 0.01083
51.1 0.01195
51.15 0.0147
51.2 0.01793
51.25 0.02011
51.3 0.02346
51.35 0.02272
51.4 0.0183
51.45 0.01107
51.5 0.00907
51.55 0.00524
51.6 0.00545
51.65 0.00087
51.7 -0.00566
51.75 -0.00925
51.8 -0.01082
51.85 -0.01211
51.9 -0.01089
51.95 -0.00541
52 0.00205
52.05 0.00749
52.1 0.01089
52.15 0.01021
52.2 0.00889
52.25 0.00611
52.3 0.00453
52.35 -0.00035
52.4 -0.00203
52.45 -0.00385
52.5 -0.00941
52.55 -0.01542
52.6 -0.01788
52.65 -0.01398
52.7 -0.00649
52.75 -0.00626
52.8 -0.01048
52.85 -0.0102
52.9 -0.00729
52.95 -0.0012
53 0.00402
53.05 0.01097
53.1 0.01418
53.15 0.01695
53.2 0.01716
53.25 0.01098
53.3 0.00948
53.35 0.00628
53.4 0.0069
53.45 0.00266
53.5 -0.00207
53.55 -0.00838
53.6 -0.00806
53.65 -0.00706
53.7 -0.01045
53.75 -0.01264
53.8 -0.01579
53.85 -0.01858
53.9 -0.02078
53.95 -0.02119
54 -0.01647
54.05 -0.01231
54.1 -0.01156
54.15 -0.00803
54.2 -0.00849
54.25 -0.00429
54.3 0.00192
54.35 0.00115
54.4 -0.00138
54.45 -0.00385
54.5 -0.00171
54.55 0.00078
54.6 0.00085
54.65 -0.00291
54.7 -0.0023
54.75 -0.00405
54.8 -0.00784
54.85 -0.00812
54.9 -0.00487
54.95 0.00089
55 0.00526
55.05 0.0102
55.1 0.01582
55.15 0.01669
55.2 0.01669
55.25 0.01816
55.3 0.01478
55.35 0.01076
55.4 0.0048
55.45 -0.00259
55.5 -0.01192
55.55 -0.01977
55.6 -0.02066
55.65 -0.02211
55.7 -0.02484
55.75 -0.02579
55.8 -0.02285
55.85 -0.01718
55.9 -0.00902
55.95 -0.00044
56 0.00548
56.05 0.01053
56.1 0.01401
56.15 0.0115
56.2 0.00873
56.25 0.01014
56.3 0.00586
56.35 0.00424
56.4 0.00054
56.45 -0.00584
56.5 -0.00866
56.55 -0.00953
56.6 -0.00785
56.65 -0.00526
56.7 -0.00787
56.75 -0.00894
56.8 -0.0118
56.85 -0.01699
56.9 -0.01567
56.95 -0.00951
57 -0.00322
57.05 -0.00259
57.1 -0.00327
57.15 -0.00495
57.2 -0.00175
57.25 -0.00219
57.3 -0.00709
57.35 -0.0144
57.4 -0.02117
57.45 -0.02835
57.5 -0.03076
57.55 -0.02695
57.6 -0.02449
57.65 -0.01799
57.7 -0.01331
57.75 -0.00944
57.8 -0.01022
57.85 -0.0137
57.9 -0.01575
57.95 -0.01255
58 -0.00797
58.05 -0.00854
58.1 -0.00404
58.15 -0.00519
58.2 -0.00833
58.25 -0.00876
58.3 -0.01014
58.35 -0.0076
58.4 -0.0078
58.45 -0.00987
58.5 -0.00856
58.55 -0.0062
58.6 -0.00579
58.65 -0.00746
58.7 -0.00828
58.75 -0.01213
58.8 -0.01059
58.85 -0.01068
58.9 -0.01143
58.95 -0.00686
59 -0.0033
59.05 -0.00379
59.1 -0.00024
59.15 0.00388
59.2 0.00751
59.25 0.01386
59.3 0.01489
59.35 0.01675
59.4 0.01579
59.45 0.0106
59.5 0.00612
59.55 0.00138
59.6 -0.00091
59.65 -0.00398
59.7 -0.00181
59.75 0.00418
59.8 0.00799
59.85 0.01002
59.9 0.00943
59.95 0.00973
60 0.00585
60.05 0.00145
60.1 0.00029
60.15 -0.00195
60.2 -0.00126
60.25 0.00211
60.3 0.00581
60.35 0.00467
60.4 0.00276
60.45 -0.00106
60.5 0.00038
60.55 0.00106
60.6 -0.00069
60.65 0.00057
60.7 0.00253
60.75 0.00761
60.8 0.01361
60.85 0.01841
60.9 0.01589
60.95 0.00845
61 0.00717
61.05 0.00591
61.1 0.00176
61.15 0.00112
61.2 0.00311
61.25 0.00099
61.3 0.00117
61.35 -0.00027
61.4 -0.00554
61.45 -0.0107
61.5 -0.01119
61.55 -0.01113
61.6 -0.01163
61.65 -0.01269
61.7 -0.01052
61.75 -0.01145
61.8 -0.00989
61.85 -0.00424
61.9 -0.00017
61.95 -0.0021
62 -0.0072
62.05 -0.01175
62.1 -0.01514
62.15 -0.01274
62.2 -0.00567
62.25 -0.00124
62.3 -0.00092
62.35 0.00401
62.4 0.0099
62.45 0.01105
62.5 0.0091
62.55 0.00698
62.6 0.00204
62.65 -0.00031
62.7 0.00196
62.75 0.00579
62.8 0.01096
62.85 0.01065
62.9 0.01013
62.95 0.01194
63 0.01364
63.05 0.01814
63.1 0.01758
63.15 0.01788
63.2 0.01454
63.25 0.01487
63.3 0.00983
63.35 0.00653
63.4 0.00422
63.45 -0.00215
63.5 -0.00258
63.55 -0.0063
63.6 -0.01033
63.65 -0.01549
63.7 -0.01875
63.75 -0.02296
63.8 -0.02541
63.85 -0.02133
63.9 -0.01928
63.95 -0.01789
64 -0.01372
64.05 -0.01172
64.1 -0.0078
64.15 -0.00168
64.2 0.00466
64.25 0.01241
64.3 0.01564
64.35 0.02
64.4 0.02409
64.45 0.02212
64.5 0.0147
64.55 0.00834
64.6 -0.0004
64.65 -0.0018
64.7 0.00074
64.75 0.0003
64.8 0.00388
64.85 0.00172
64.9 0.0025
64.95 0.00603
65 0.00775
65.05 0.0126
65.1 0.01201
65.15 0.01092
65.2 0.00536
65.25 0.00357
65.3 0.00537
65.35 0.00653
65.4 0.01051
65.45 0.00821
65.5 0.00447
65.55 -0.00274
65.6 -0.01113
65.65 -0.01407
65.7 -0.01363
65.75 -0.00925
65.8 -0.00979
65.85 -0.00505
65.9 0.001
65.95 0.00051
66 -0.00385
66.05 -0.00608
66.1 -0.00889
66.15 -0.00824
66.2 -0.00433
66.25 -0.00366
66.3 -0.0065
66.35 -0.01083
66.4 -0.01391
66.45 -0.01469
66.5 -0.01448
66.55 -0.01695
66.6 -0.02007
66.65 -0.02256
66.7 -0.02122
66.75 -0.02134
66.8 -0.01966
66.85 -0.01993
66.9 -0.01561
66.95 -0.01289
67 -0.01256
67.05 -0.00725
67.1 -0.00744
67.15 -0.0069
67.2 -0.00711
67.25 -0.00309
67.3 -0.00173
67.35 -0.00166
67.4 0.00294
67.45 0.00867
67.5 0.01613
67.55 0.02253
67.6 0.02415
67.65 0.02275
67.7 0.02421
67.75 0.02345
67.8 0.02516
67.85 0.0215
67.9 0.01705
67.95 0.00889
68 0.0062
68.05 0.00401
68.1 -0.00063
68.15 -0.00036
68.2 -0.00295
68.25 -0.00566
68.3 -0.01055
68.35 -0.01243
68.4 -0.01555
68.45 -0.01496
68.5 -0.01278
68.55 -0.01342
68.6 -0.01234
68.65 -0.00756
68.7 0.00053
68.75 0.00412
68.8 0.00277
68.85 -0.00063
68.9 -0.00169
68.95 -0.00295
69 -0.00319
69.05 -0.00481
69.1 -0.00211
69.15 0.00008
69.2 0.00114
69.25 0.00636
69.3 0.0125
69.35 0.01967
69.4 0.02469
69.45 0.02563
69.5 0.02619
69.55 0.02848
69.6 0.03072
69.65 0.03384
69.7 0.02896
69.75 0.02684
69.8 0.02573
69.85 0.02355
69.9 0.02027
69.95 0.01633
70 0.01286
70.05 0.00471
70.1 -0.00029
70.15 -0.00392
70.2 -0.00549
70.25 -0.00219
70.3 -0.00046
70.35 0.00296
70.4 0.00129
70.45 0.0028
70.5 0.00365
70.55 0.00343
70.6 0.00277
70.65 0.00131
70.7 0.00087
70.75 0.00472
70.8 0.00367
70.85 0.00681
70.9 0.00739
70.95 0.0088
71 0.01034
71.05 0.01418
71.1 0.01373
71.15 0.01508
71.2 0.01498
71.25 0.01552
71.3 0.01226
71.35 0.00571
71.4 0.001
71.45 -0.00688
71.5 -0.01354
71.55 -0.01518
71.6 -0.0197
71.65 -0.02285
71.7 -0.02635
71.75 -0.02408
71.8 -0.02531
71.85 -0.02541
71.9 -0.02634
71.95 -0.02927
72 -0.03127
72.05 -0.03304
72.1 -0.03593
72.15 -0.03652
72.2 -0.03233
72.25 -0.02297
72.3 -0.01802
72.35 -0.01611
72.4 -0.00905
72.45 -0.00653
72.5 -0.00791
72.55 -0.01089
72.6 -0.00813
72.65 -0.00527
72.7 -0.00078
72.75 -0.00194
72.8 -0.00127
72.85 -0.00354
72.9 -0.00583
72.95 -0.00974
73 -0.01088
73.05 -0.00877
73.1 -0.00542
73.15 -0.00022
73.2 0.00184
73.25 0.00559
73.3 0.00727
73.35 0.0048
73.4 0.00252
73.45 0.00238
73.5 -0.00105
73.55 -0.0074
73.6 -0.00866
73.65 -0.00737
73.7 -0.0053
73.75 -0.00154
73.8 0.00095
73.85 0.00716
73.9 0.00729
73.95 0.00574
74 0.00434
74.05 0.00704
74.1 0.01167
74.15 0.01486
74.2 0.01509
74.25 0.01269
74.3 0.0123
74.35 0.01003
74.4 0.01115
74.45 0.01475
74.5 0.01665
74.55 0.01433
74.6 0.01309
74.65 0.00679
74.7 0.0054
74.75 -0.00009
74.8 -0.00389
74.85 -0.00494
74.9 -0.00227
74.95 -0.00381
75 -0.00534
75.05 -0.00555
75.1 -0.00242
75.15 -0.00129
75.2 0.00265
75.25 0.0063
75.3 0.00769
75.35 0.00896
75.4 0.00541
75.45 0.00242
75.5 0.00108
75.55 -0.0022
75.6 -0.00703
75.65 -0.00851
75.7 -0.01032
75.75 -0.00999
75.8 -0.01167
75.85 -0.01539
75.9 -0.01523
75.95 -0.01033
76 -0.00475
76.05 0.00333
76.1 0.01201
76.15 0.01797
76.2 0.0172
76.25 0.01656
76.3 0.01208
76.35 0.00912
76.4 0.00661
76.45 0.00731
76.5 0.00639
76.55 0.00726
76.6 0.01087
76.65 0.0085
76.7 0.0084
76.75 0.00969
76.8 0.01131
76.85 0.01223
76.9 0.00952
76.95 0.00839
77 0.00825
77.05 0.00473
77.1 0.00263
77.15 0.00251
77.2 0.00586
77.25 0.00298
77.3 0.00461
77.35 0.00604
77.4 0.0106
77.45 0.01485
77.5 0.01314
77.55 0.01135
77.6 0.00742
77.65 0.00834
77.7 0.01106
77.75 0.00926
77.8 0.00769
77.85 0.00343
77.9 0.00195
77.95 -0.00199
78 -0.0091
78.05 -0.01351
78.1 -0.01975
78.15 -0.01971
78.2 -0.02283
78.25 -0.01892
78.3 -0.01751
78.35 -0.01919
78.4 -0.02181
78.45 -0.02041
78.5 -0.01971
78.55 -0.01605
78.6 -0.01211
78.65 -0.00735
78.7 -0.00305
78.75 -0.00163
78.8 0.00167
78.85 0.00254
78.9 0.00072
78.95 -0.0026
79 -0.0037
79.05 -0.00442
79.1 -0.00019
79.15 0.0039
79.2 0.00811
79.25 0.01371
79.3 0.01825
79.35 0.01498
79.4 0.01314
79.45 0.01457
79.5 0.01147
79.55 0.00401
79.6 -0.00229
79.65 -0.00399
79.7 -0.00867
79.75 -0.01021
79.8 -0.00824
79.85 -0.00386
79.9 -0.00266
79.95 -0.0006
80 -0.00064
80.05 0.00308
80.1 0.00596
80.15 0.00809
80.2 0.00649
80.25 0.00517
80.3 0.00172
80.35 0.00254
80.4 -0.00085
80.45 0.00023
80.5 0.00475
80.55 0.00502
80.6 0.00486
80.65 0.00547
80.7 0.00967
80.75 0.01423
80.8 0.01301
80.85 0.01276
80.9 0.00968
80.95 0.00584
81 0.00644
81.05 0.00566
81.1 -0.0003
81.15 -0.00003
81.2 0.00118
81.25 -0.0028
81.3 -0.00998
81.35 -0.01266
81.4 -0.01603
81.45 -0.02066
81.5 -0.01835
81.55 -0.01372
81.6 -0.01444
81.65 -0.00967
81.7 -0.0108
81.75 -0.00941
81.8 -0.00906
81.85 -0.01075
81.9 -0.00984
81.95 -0.01268
82 -0.01655
82.05 -0.01915
82.1 -0.02072
82.15 -0.01599
82.2 -0.01008
82.25 -0.00605
82.3 -0.00306
82.35 0.00223
82.4 0.00894
82.45 0.01188
82.5 0.01199
82.55 0.00859
82.6 0.00987
82.65 0.00757
82.7 0.00319
82.75 0.00331
82.8 0.00268
82.85 -0.00028
82.9 0.00003
82.95 0.00237
83 0.00001
83.05 -0.00265
83.1 -0.00522
83.15 -0.01113
83.2 -0.01542
83.25 -0.0176
83.3 -0.01742
83.35 -0.01438
83.4 -0.01021
83.45 -0.00361
83.5 -0.00273
83.55 -0.00189
83.6 -0.00233
83.65 -0.00271
83.7 0.0015
83.75 0.00744
83.8 0.00887
83.85 0.008
83.9 0.00344
83.95 -0.00007
84 0.00172
84.05 0.00356
84.1 0.00855
84.15 0.01163
84.2 0.01275
84.25 0.00888
84.3 0.00233
84.35 -0.00237
84.4 -0.00661
84.45 -0.00846
84.5 -0.00758
84.55 -0.00799
84.6 -0.01076
84.65 -0.01456
84.7 -0.01794
84.75 -0.02243
84.8 -0.02618
84.85 -0.03077
84.9 -0.03504
84.95 -0.03201
85 -0.02781
85.05 -0.01854
85.1 -0.01288
85.15 -0.00964
85.2 -0.00735
85.25 -0.00216
85.3 0.00393
85.35 0.01203
85.4 0.01582
85.45 0.01502
85.5 0.01147
85.55 0.00845
85.6 0.00461
85.65 0.00299
85.7 -0.00073
85.75 -0.00672
85.8 -0.01
85.85 -0.01021
85.9 -0.00614
85.95 -0.00716
86 -0.01011
86.05 -0.01502
86.1 -0.0165
86.15 -0.01987
86.2 -0.02287
86.25 -0.0198
86.3 -0.01914
86.35 -0.02046
86.4 -0.02194
86.45 -0.01934
86.5 -0.01814
86.55 -0.01692
86.6 -0.01238
86.65 -0.00902
86.7 -0.00488
86.75 -0.00393
86.8 -0.00476
86.85 -0.00506
86.9 -0.00054
86.95 0.0038
87 0.0043
87.05 0.00304
87.1 0.00345
87.15 0.00091
87.2 0.00275
87.25 0.00623
87.3 0.00735
87.35 0.008
87.4 0.00492
87.45 0.00146
87.5 -0.00485
87.55 -0.00492
87.6 -0.00087
87.65 -0.0009
87.7 0.0029
87.75 0.00652
87.8 0.00613
87.85 0.01016
87.9 0.0168
87.95 0.02246
88 0.02384
88.05 0.02643
88.1 0.0257
88.15 0.02738
88.2 0.02743
88.25 0.02423
88.3 0.01878
88.35 0.01666
88.4 0.01465
88.45 0.01294
88.5 0.01277
88.55 0.00741
88.6 0.00696
88.65 0.00668
88.7 0.0101
88.75 0.01373
88.8 0.01936
88.85 0.0167
88.9 0.01139
88.95 0.00659
89 0.00681
89.05 0.01005
89.1 0.01103
89.15 0.00735
89.2 0.00362
89.25 0.00337
89.3 0.00318
89.35 0.00515
89.4 0.00889
89.45 0.01464
89.5 0.01737
89.55 0.01833
89.6 0.01375
89.65 0.01036
89.7 0.00598
89.75 0.00611
89.8 0.00949
89.85 0.01338
89.9 0.01015
89.95 0.00295
90 -0.00414
90.05 -0.00661
90.1 -0.00536
90.15 -0.00748
90.2 -0.00814
90.25 -0.00787
90.3 -0.00811
90.35 -0.00911
90.4 -0.00698
90.45 -0.00363
90.5 -0.00363
90.55 -0.00484
90.6 -0.00941
90.65 -0.00981
90.7 -0.01324
90.75 -0.01511
90.8 -0.01769
90.85 -0.01371
90.9 -0.00959
90.95 -0.0039
91 0.00308
91.05 0.00986
91.1 0.00978
91.15 0.00765
91.2 0.00848
91.25 0.00364
91.3 0.00034
91.35 0.00149
91.4 0.00178
91.45 0.00503
91.5 0.01055
91.55 0.01088
91.6 0.01005
91.65 0.01091
91.7 0.01033
91.75 0.00834
91.8 0.00754
91.85 0.00282
91.9 0.00151
91.95 -0.003
92 -0.01013
92.05 -0.01235
92.1 -0.01107
92.15 -0.00665
92.2 -0.00041
92.25 0.00047
92.3 0.00444
92.35 0.0085
92.4 0.00916
92.45 0.01191
92.5 0.00898
92.55 0.00906
92.6 0.00531
92.65 0.00505
92.7 0.00442
92.75 0.00728
92.8 0.00897
92.85 0.01138
92.9 0.00819
92.95 0.00743
93 0.00844
93.05 0.01161
93.1 0.01487
93.15 0.01928
93.2 0.02095
93.25 0.02068
93.3 0.02051
93.35 0.01436
93.4 0.00836
93.45 0.00651
93.5 0.00746
93.55 0.00759
93.6 0.0086
93.65 0.0077
93.7 0.00397
93.75 -0.00367
93.8 -0.00619
93.85 -0.00946
93.9 -0.01046
93.95 -0.01216
94 -0.01177
94.05 -0.00859
94.1 -0.00202
94.15 -0.00269
94.2 -0.00689
94.25 -0.01027
94.3 -0.01412
94.35 -0.02008
94.4 -0.02158
94.45 -0.02229
94.5 -0.02312
94.55 -0.01964
94.6 -0.0207
94.65 -0.02062
94.7 -0.01588
94.75 -0.01546
94.8 -0.01363
94.85 -0.00903
94.9 -0.00339
94.95 0.00048
95 0.00497
95.05 0.00279
95.1 0.00323
95.15 -0.00076
95.2 -0.00082
95.25 -0.00489
95.3 -0.00381
95.35 -0.00201
95.4 -0.00252
95.45 -0.00444
95.5 -0.00886
95.55 -0.00874
95.6 -0.01206
95.65 -0.01317
95.7 -0.00912
95.75 -0.00759
95.8 -0.00627
95.85 -0.00835
95.9 -0.01269
95.95 -0.01215
96 -0.01555
96.05 -0.01213
96.1 -0.01008
96.15 -0.00427
96.2 -0.00194
96.25 0.0005
96.3 -0.00019
96.35 0.00375
96.4 0.00695
96.45 0.00894
96.5 0.00797
96.55 0.00311
96.6 0.00343
96.65 0.00492
96.7 0.00621
96.75 0.01043
96.8 0.01394
96.85 0.01428
96.9 0.01274
96.95 0.01136
97 0.01063
97.05 0.01014
97.1 0.01051
97.15 0.01217
97.2 0.01457
97.25 0.011
97.3 0.00924
97.35 0.01131
97.4 0.01116
97.45 0.01369
97.5 0.01566
97.55 0.01795
97.6 0.02033
97.65 0.01668
97.7 0.0135
97.75 0.01032
97.8 0.004
97.85 0.00064
97.9 -0.00187
97.95 -0.00277
98 -0.00698
98.05 -0.01256
98.1 -0.01592
98.15 -0.02096
98.2 -0.02606
98.25 -0.02941
98.3 -0.03355
98.35 -0.03583
98.4 -0.0375
98.45 -0.03179
98.5 -0.02626
98.55 -0.01921
98.6 -0.0117
98.65 -0.01053
98.7 -0.00662
98.75 0.00081
98.8 0.00975
98.85 0.01521
98.9 0.01259
98.95 0.01385
99 0.01333
99.05 0.01245
99.1 0.01171
99.15 0.00858
99.2 0.00443
99.25 -0.00063
99.3 -0.0001
99.35 -0.00152
99.4 -0.00616
99.45 -0.00528
99.5 -0.00698
99.55 -0.01217
99.6 -0.01301
99.65 -0.01512
99.7 -0.01382
99.75 -0.0101
99.8 -0.0109
99.85 -0.01531
99.9 -0.01328
99.95 -0.01084
