0 0
0.05 0.00474
0.1 0.01052
0.15 0.01561
0.2 0.02371
0.25 0.03329
0.3 0.04331
0.35 0.04976
0.4 0.05241
0.45 0.05502
0.5 0.05829
0.55 0.05894
0.6 0.05453
0.65 0.05369
0.7 0.04947
0.75 0.04627
0.8 0.046
0.85 0.04583
0.9 0.04406
0.95 0.04214
1 0.03871
1.05 0.03786
1.1 0.04005
1.15 0.04346
1.2 0.04865
1.25 0.05157
1.3 0.04789
1.35 0.04039
1.4 0.03749
1.45 0.0326
1.5 0.02707
1.55 0.02014
1.6 0.01816
1.65 0.02117
1.7 0.02183
1.75 0.02072
1.8 0.01698
1.85 0.01598
1.9 0.01984
1.95 0.02017
2 0.02381
2.05 0.0267
2.1 0.02482
2.15 0.02281
2.2 0.02261
2.25 0.02473
2.3 0.02386
2.35 0.02574
2.4 0.02516
2.45 0.02107
2.5 0.01609
2.55 0.01144
2.6 0.01135
2.65 0.01609
2.7 0.02062
2.75 0.02294
2.8 0.02172
2.85 0.02425
2.9 0.02788
2.95 0.02919
3 0.02789
3.05 0.02469
3.1 0.02107
3.15 0.01478
3.2 0.011
3.25 0.01084
3.3 0.01064
3.35 0.01099
3.4 0.01107
3.45 0.01333
3.5 0.01568
3.55 0.01941
3.6 0.02421
3.65 0.02945
3.7 0.02931
3.75 0.03182
3.8 0.03256
3.85 0.03286
3.9 0.0333
3.95 0.03506
4 0.03634
4.05 0.03646
4.1 0.03827
4.15 0.03853
4.2 0.03435
4.25 0.0299
4.3 0.02224
4.35 0.0184
4.4 0.0192
4.45 0.02034
4.5 0.021
4.55 0.01893
4.6 0.01294
4.65 0.00823
4.7 0.00162
4.75 0.00129
4.8 0.00324
4.85 0.0062
4.9 0.00642
4.95 0.00282
5 -0.00029
5.05 -0.00556
5.1 -0.00708
5.15 -0.00651
5.2 -0.00671
5.25 -0.00291
5.3 -0.00009
5.35 -0.00146
5.4 -0.00368
5.45 -0.00542
5.5 -0.00646
5.55 -0.00515
5.6 -0.00344
5.65 0.00228
5.7 0.0065
5.75 0.00558
5.8 0.00911
5.85 0.01099
5.9 0.00909
5.95 0.0086
6 0.01198
6.05 0.01512
6.1 0.01925
6.15 0.01994
6.2 0.02306
6.25 0.02237
6.3 0.0191
6.35 0.01912
6.4 0.01764
6.45 0.01923
6.5 0.01652
6.55 0.01555
6.6 0.01686
6.65 0.01836
6.7 0.01489
6.75 0.01305
6.8 0.01472
6.85 0.01603
6.9 0.01847
6.95 0.02223
7 0.02681
7.05 0.02951
7.1 0.0284
7.15 0.02273
7.2 0.02103
7.25 0.01884
7.3 0.01461
7.35 0.01291
7.4 0.01301
7.45 0.00836
7.5 0.00678
7.55 0.00171
7.6 -0.00026
7.65 -0.00195
7.7 -0.00537
7.75 -0.0111
7.8 -0.01516
7.85 -0.01509
7.9 -0.01725
7.95 -0.01581
8 -0.01586
8.05 -0.01241
8.1 -0.00545
8.15 -0.00262
8.2 -0.00078
8.25 -0.00324
8.3 -0.00811
8.35 -0.01165
8.4 -0.01064
8.45 -0.00957
8.5 -0.00445
8.55 0.00312
8.6 0.00463
8.65 0.00765
8.7 0.00676
8.75 0.00751
8.8 0.00446
8.85 0.00278
8.9 -0.00205
8.95 -0.00831
9 -0.01008
9.05 -0.00988
9.1 -0.01056
9.15 -0.01169
9.2 -0.00919
9.25 -0.01043
9.3 -0.00858
9.35 -0.0032
9.4 0.0028
9.45 0.00522
9.5 0.00317
9.55 0.00118
9.6 0.00102
9.65 0.00023
9.7 0.00271
9.75 0.00175
9.8 0.00077
9.85 0.00125
9.9 0.0055
9.95 0.00495
10 0.00368
10.05 0.00308
10.1 0.00209
10.15 0.00285
10.2 0.00578
10.25 0.00556
10.3 0.00555
10.35 0.0082
10.4 0.0106
10.45 0.01529
10.5 0.01969
10.55 0.02132
10.6 0.02289
10.65 0.0222
10.7 0.02218
10.75 0.01911
10.8 0.01304
10.85 0.0103
10.9 0.00512
10.95 0.00055
11 -0.00538
11.05 -0.01251
11.1 -0.01769
11.15 -0.02234
11.2 -0.02213
11.25 -0.0208
11.3 -0.01656
11.35 -0.01204
11.4 -0.00957
11.45 -0.00639
11.5 -0.00594
11.55 -0.00519
11.6 -0.00592
11.65 -0.00855
11.7 -0.01209
11.75 -0.01213
11.8 -0.0102
11.85 -0.01155
11.9 -0.00863
11.95 -0.00491
12 0.00084
12.05 0.00691
12.1 0.00858
12.15 0.00883
12.2 0.00812
12.25 0.00617
12.3 0.00735
12.35 0.0081
12.4 0.01048
12.45 0.01201
12.5 0.01456
12.55 0.01611
12.6 0.01517
12.65 0.01017
12.7 0.00438
12.75 -0.00255
12.8 -0.0035
12.85 -0.00675
12.9 -0.00932
12.95 -0.01131
13 -0.01088
13.05 -0.00931
13.1 -0.01077
13.15 -0.00973
13.2 -0.00737
13.25 -0.00138
13.3 0.00108
13.35 0.0025
13.4 0.00512
13.45 0.00596
13.5 0.00218
13.55 -0.00047
13.6 -0.00224
13.65 -0.00049
13.7 -0
13.75 0.00331
13.8 0.0062
13.85 0.00376
13.9 0.00146
13.95 0.00249
14 -0.00034
14.05 -0.0038
14.1 -0.00223
14.15 -0.00282
14.2 0.00026
14.25 0.00273
14.3 0.00009
14.35 0.00026
14.4 -0.00267
14.45 -0.00585
14.5 -0.00874
14.55 -0.00916
14.6 -0.00676
14.65 -0.00091
14.7 0.00272
14.75 0.00546
14.8 0.00938
14.85 0.00959
14.9 0.01213
14.95 0.00967
15 0.00405
15.05 0.00383
15.1 -0.00009
15.15 0.00041
15.2 -0.00318
15.25 -0.00714
15.3 -0.00559
15.35 -0.00651
15.4 -0.00758
15.45 -0.00424
15.5 -0.00483
15.55 -0.0059
15.6 -0.00905
15.65 -0.01273
15.7 -0.01668
15.75 -0.01931
15.8 -0.01873
15.85 -0.01747
15.9 -0.01244
15.95 -0.00936
16 -0.00949
16.05 -0.01162
16.1 -0.01057
16.15 -0.01013
16.2 -0.0093
16.25 -0.00499
16.3 0.00011
16.35 0.00365
16.4 0.00411
16.45 0.00272
16.5 0.00194
16.55 -0.00123
16.6 -0.00521
16.65 -0.00927
16.7 -0.01012
16.75 -0.00742
16.8 -0.00778
16.85 -0.01021
16.9 -0.00814
16.95 -0.00903
17 -0.00584
17.05 -0.00442
17.1 -0.00301
17.15 -0.0001
17.2 0.00569
17.25 0.00638
17.3 0.00874
17.35 0.00711
17.4 0.00829
17.45 0.00585
17.5 0.00659
17.55 0.00842
17.6 0.01185
17.65 0.01267
17.7 0.0096
17.75 0.00537
17.8 -0.00084
17.85 -0.00384
17.9 -0.00427
17.95 -0.00538
18 -0.00869
18.05 -0.0097
18.1 -0.01123
18.15 -0.00931
18.2 -0.0064
18.25 -0.00658
18.3 -0.00445
18.35 -0.00191
18.4 -0.00098
18.45 -0.00291
18.5 -0.00726
18.55 -0.00973
18.6 -0.01134
18.65 -0.00888
18.7 -0.00328
18.75 0.00309
18.8 0.00358
18.85 0.00497
18.9 0.004
18.95 0.00036
19 -0.00261
19.05 -0.00215
19.1 -0.00421
19.15 -0.0053
19.2 -0.00385
19.25 -0.00498
19.3 -0.00272
19.35 -0.00219
19.4 -0.00113
19.45 -0.0036
19.5 -0.0022
19.55 -0.00114
19.6 -0.00188
19.65 -0.00052
19.7 -0.00322
19.75 -0.00554
19.8 -0.00845
19.85 -0.01017
19.9 -0.01342
19.95 -0.01589
20 -0.01903
20.05 -0.0157
20.1 -0.01035
20.15 -0.00525
20.2 0.00098
20.25 0.0081
20.3 0.01092
20.35 0.01277
20.4 0.00999
20.45 0.00486
20.5 -0.00016
20.55 -0.00007
20.6 0.00028
20.65 0.00036
20.7 0.00431
20.75 0.00878
20.8 0.00752
20.85 0.00324
20.9 -0.00113
20.95 -0.00393
21 -0.00886
21.05 -0.01469
21.1 -0.01909
21.15 -0.01611
21.2 -0.01519
21.25 -0.01148
21.3 -0.00496
21.35 -0.00154
21.4 0.00058
21.45 0.0062
21.5 0.00996
21.55 0.01408
21.6 0.01774
21.65 0.01613
21.7 0.0115
21.75 0.01139
21.8 0.00719
21.85 0.00153
21.9 -0.00028
21.95 -0.0004
22 0.00371
22.05 0.00876
22.1 0.01181
22.15 0.01147
22.2 0.00894
22.25 0.00542
22.3 0.00104
22.35 -0.00201
22.4 -0.00583
22.45 -0.00522
22.5 -0.00716
22.55 -0.00374
22.6 -0.00108
22.65 0.00291
22.7 0.00165
22.75 0.00395
22.8 0.00178
22.85 0.00403
22.9 0.00796
22.95 0.01398
23 0.01977
23.05 0.02093
23.1 0.01969
23.15 0.01845
23.2 0.01398
23.25 0.00835
23.3 0.0065
23.35 0.00773
23.4 0.00578
23.45 0.00467
23.5 0.00123
23.55 0.00253
23.6 0.00029
23.65 -0.0018
23.7 -0.00401
23.75 -0.00281
23.8 -0.00124
23.85 0.00149
23.9 0.00153
23.95 -0.00059
24 -0.00227
24.05 -0.00081
24.1 0.00136
24.15 0.0064
24.2 0.00532
24.25 0.00707
24.3 0.00868
24.35 0.01046
24.4 0.00761
24.45 0.00796
24.5 0.01075
24.55 0.01348
24.6 0.01717
24.65 0.01778
24.7 0.01849
24.75 0.02019
24.8 0.02085
24.85 0.01825
24.9 0.01514
24.95 0.01203
25 0.00805
25.05 0.00656
25.1 0.001
25.15 -0.00259
25.2 -0.00101
25.25 -0.00067
25.3 -0.00311
25.35 -0.00597
25.4 -0.00673
25.45 -0.00295
25.5 0.00322
25.55 0.00464
25.6 0.00298
25.65 -0.00149
25.7 -0.00462
25.75 -0.0036
25.8 -0.00188
25.85 -0.0011
25.9 -0.00453
25.95 -0.00831
26 -0.01036
26.05 -0.01027
26.1 -0.01184
26.15 -0.01024
26.2 -0.01208
26.25 -0.01472
26.3 -0.01145
26.35 -0.01164
26.4 -0.01148
26.45 -0.01376
26.5 -0.01739
26.55 -0.01922
26.6 -0.02137
26.65 -0.01805
26.7 -0.01599
26.75 -0.01347
26.8 -0.00868
26.85 -0.00475
26.9 -0.00227
26.95 -0.00154
27 -0.00163
27.05 0.00072
27.1 0.00325
27.15 0.00661
27.2 0.0046
27.25 -0.00064
27.3 -0.00625
27.35 -0.01026
27.4 -0.01484
27.45 -0.01619
27.5 -0.0178
27.55 -0.0144
27.6 -0.01024
27.65 -0.01072
27.7 -0.01187
27.75 -0.01553
27.8 -0.01572
27.85 -0.02063
27.9 -0.02359
27.95 -0.03213
28 -0.04354
28.05 -0.05663
28.1 -0.07144
28.15 -0.08488
28.2 -0.10035
28.25 -0.11509
28.3 -0.13302
28.35 -0.15036
28.4 -0.17197
28.45 -0.20139
28.5 -0.2331
28.55 -0.26928
28.6 -0.31292
28.65 -0.36345
28.7 -0.42027
28.75 -0.48185
28.8 -0.54232
28.85 -0.60432
28.9 -0.6747
28.95 -0.74823
29 -0.82725
29.05 -0.91155
29.1 -1.00189
29.15 -1.09546
29.2 -1.19466
29.25 -1.29586
29.3 -1.39693
29.35 -1.50179
29.4 -1.60867
29.45 -1.71271
29.5 -1.81221
29.55 -1.9025
29.6 -1.98837
29.65 -2.06289
29.7 -2.12696
29.75 -2.18339
29.8 -2.23332
29.85 -2.27312
29.9 -2.29781
29.95 -2.31164
30 -2.3154
30.05 -2.30783
30.1 -2.28447
30.15 -2.24658
30.2 -2.19278
30.25 -2.12238
30.3 -2.03942
30.35 -1.94762
30.4 -1.84423
30.45 -1.73241
30.5 -1.61452
30.55 -1.48914
30.6 -1.353
30.65 -1.20944
30.7 -1.05796
30.75 -0.90686
30.8 -0.75493
30.85 -0.597
30.9 -0.43684
30.95 -0.27336
31 -0.11087
31.05 0.05097
31.1 0.2087
31.15 0.35966
31.2 0.50032
31.25 0.63338
31.3 0.7578
31.35 0.88192
31.4 0.99625
31.45 1.10227
31.5 1.20142
31.55 1.29515
31.6 1.3853
31.65 1.47065
31.7 1.54525
31.75 1.60771
31.8 1.66675
31.85 1.71647
31.9 1.75814
31.95 1.79171
32 1.81994
32.05 1.84161
32.1 1.86188
32.15 1.87739
32.2 1.88765
32.25 1.89574
32.3 1.90118
32.35 1.90256
32.4 1.90117
32.45 1.8988
32.5 1.89704
32.55 1.89527
32.6 1.89102
32.65 1.88672
32.7 1.87651
32.75 1.86426
32.8 1.84601
32.85 1.82634
32.9 1.80602
32.95 1.78775
33 1.77169
33.05 1.75306
33.1 1.73441
33.15 1.71191
33.2 1.68578
33.25 1.65774
33.3 1.63043
33.35 1.60468
33.4 1.57359
33.45 1.54401
33.5 1.51134
33.55 1.47344
33.6 1.436
33.65 1.39532
33.7 1.35708
33.75 1.31586
33.8 1.27455
33.85 1.23364
33.9 1.19409
33.95 1.14955
34 1.102
34.05 1.05474
34.1 1.00595
34.15 0.96189
34.2 0.91667
34.25 0.86943
34.3 0.82315
34.35 0.77734
34.4 0.73141
34.45 0.68625
34.5 0.64261
34.55 0.59959
34.6 0.56124
34.65 0.52027
34.7 0.47788
34.75 0.44196
34.8 0.40463
34.85 0.37232
34.9 0.34015
34.95 0.3051
35 0.27418
35.05 0.24615
35.1 0.22094
35.15 0.1948
35.2 0.17008
35.25 0.14292
35.3 0.117
35.35 0.08698
35.4 0.06009
35.45 0.03618
35.5 0.00883
35.55 -0.01995
35.6 -0.0498
35.65 -0.07231
35.7 -0.09046
35.75 -0.10906
35.8 -0.12623
35.85 -0.14055
35.9 -0.15477
35.95 -0.17046
36 -0.18649
36.05 -0.19783
36.1 -0.2064
36.15 -0.21594
36.2 -0.23002
36.25 -0.24701
36.3 -0.25867
36.35 -0.26499
36.4 -0.27088
36.45 -0.27942
36.5 -0.28481
36.55 -0.28842
36.6 -0.29269
36.65 -0.29561
36.7 -0.30007
36.75 -0.30257
36.8 -0.30368
36.85 -0.30965
36.9 -0.31425
36.95 -0.31708
37 -0.31788
37.05 -0.31564
37.1 -0.31821
37.15 -0.32
37.2 -0.32551
37.25 -0.33049
37.3 -0.32954
37.35 -0.33119
37.4 -0.3297
37.45 -0.32767
37.5 -0.32569
37.55 -0.32463
37.6 -0.32155
37.65 -0.32132
37.7 -0.31916
37.75 -0.31638
37.8 -0.30987
37.85 -0.30077
37.9 -0.29748
37.95 -0.29128
38 -0.28388
38.05 -0.28037
38.1 -0.27728
38.15 -0.27477
38.2 -0.27466
38.25 -0.2707
38.3 -0.26806
38.35 -0.26749
38.4 -0.26938
38.45 -0.26866
38.5 -0.26367
38.55 -0.25972
38.6 -0.25867
38.65 -0.25778
38.7 -0.25434
38.75 -0.24907
38.8 -0.24449
38.85 -0.24392
38.9 -0.23891
38.95 -0.23317
39 -0.22545
39.05 -0.21863
39.1 -0.21303
39.15 -0.2059
39.2 -0.20356
39.25 -0.20384
39.3 -0.20676
39.35 -0.20664
39.4 -0.20201
39.45 -0.1999
39.5 -0.19645
39.55 -0.19003
39.6 -0.18664
39.65 -0.18373
39.7 -0.17936
39.75 -0.17605
39.8 -0.17598
39.85 -0.17614
39.9 -0.17843
39.95 -0.18051
40 -0.1821
40.05 -0.18056
40.1 -0.17541
40.15 -0.16704
40.2 -0.15877
40.25 -0.15347
40.3 -0.15032
40.35 -0.14451
40.4 -0.14142
40.45 -0.13826
40.5 -0.13671
40.55 -0.13601
40.6 -0.13432
40.65 -0.13228
40.7 -0.13054
40.75 -0.12737
40.8 -0.12684
40.85 -0.12679
40.9 -0.12643
40.95 -0.12445
41 -0.12052
41.05 -0.11653
41.1 -0.11224
41.15 -0.10882
41.2 -0.10897
41.25 -0.11266
41.3 -0.1115
41.35 -0.10947
41.4 -0.10508
41.45 -0.10598
41.5 -0.10299
41.55 -0.09743
41.6 -0.09117
41.65 -0.08894
41.7 -0.08975
41.75 -0.0931
41.8 -0.0994
41.85 -0.10002
41.9 -0.09995
41.95 -0.10322
42 -0.10042
42.05 -0.09414
42.1 -0.0893
42.15 -0.08524
42.2 -0.08572
42.25 -0.08255
42.3 -0.07995
42.35 -0.08008
42.4 -0.07944
42.45 -0.08226
42.5 -0.0833
42.55 -0.08661
42.6 -0.08416
42.65 -0.08099
42.7 -0.07632
42.75 -0.07557
42.8 -0.07757
42.85 -0.08047
42.9 -0.07768
42.95 -0.07879
43 -0.08167
43.05 -0.08429
43.1 -0.08749
43.15 -0.09011
43.2 -0.09259
43.25 -0.09198
43.3 -0.08508
43.35 -0.07626
43.4 -0.07152
43.45 -0.06462
43.5 -0.05906
43.55 -0.05477
43.6 -0.05253
43.65 -0.05039
43.7 -0.05188
43.75 -0.05532
43.8 -0.06021
43.85 -0.06407
43.9 -0.06488
43.95 -0.06296
44 -0.05673
44.05 -0.0495
44.1 -0.04339
44.15 -0.04053
44.2 -0.0356
44.25 -0.03067
44.3 -0.0248
44.35 -0.02314
44.4 -0.02546
44.45 -0.03052
44.5 -0.03397
44.55 -0.03765
44.6 -0.03708
44.65 -0.03574
44.7 -0.03815
44.75 -0.03757
44.8 -0.03474
44.85 -0.03103
44.9 -0.02623
44.95 -0.02094
45 -0.01733
45.05 -0.01418
45.1 -0.01693
45.15 -0.01672
45.2 -0.02008
45.25 -0.02062
45.3 -0.02106
45.35 -0.02233
45.4 -0.02184
45.45 -0.02537
45.5 -0.02433
45.55 -0.02384
45.6 -0.02452
45.65 -0.02626
45.7 -0.02498
45.75 -0.02705
45.8 -0.0283
45.85 -0.02532
45.9 -0.02497
45.95 -0.02659
46 -0.02805
46.05 -0.02612
46.1 -0.02805
46.15 -0.02968
46.2 -0.03011
46.25 -0.03116
46.3 -0.0314
46.35 -0.03164
46.4 -0.03289
46.45 -0.03164
46.5 -0.02983
46.55 -0.0262
46.6 -0.02609
46.65 -0.02821
46.7 -0.0313
46.75 -0.0333
46.8 -0.03266
46.85 -0.02989
46.9 -0.03037
46.95 -0.03126
47 -0.03107
47.05 -0.03181
47.1 -0.03038
47.15 -0.03121
47.2 -0.03012
47.25 -0.02899
47.3 -0.02986
47.35 -0.03312
47.4 -0.03244
47.45 -0.02769
47.5 -0.02078
47.55 -0.01469
47.6 -0.01378
47.65 -0.01663
47.7 -0.01635
47.75 -0.01203
47.8 -0.01199
47.85 -0.01489
47.9 -0.01476
47.95 -0.01305
48 -0.01565
48.05 -0.0155
48.1 -0.01221
48.15 -0.00975
48.2 -0.00515
48.25 -0.00012
48.3 -0.00124
48.35 -0.00442
48.4 -0.00338
48.45 0.00006
48.5 -0.00019
48.55 -0.00381
48.6 -0.00516
48.65 -0.00434
48.7 -0.00231
48.75 -0.00405
48.8 -0.00555
48.85 -0.007
48.9 -0.01163
48.95 -0.01162
49 -0.00801
49.05 -0.00707
49.1 -0.00427
49.15 -0.00688
49.2 -0.00909
49.25 -0.00811
49.3 -0.00659
49.35 -0.00303
49.4 -0.00305
49.45 0.00013
49.5 0.00176
49.55 -0.00119
49.6 -0.00159
49.65 0.00012
49.7 -0.00285
49.75 -0.00217
49.8 0.00149
49.85 0.00591
49.9 0.00572
49.95 0.0061
50 0.00818
50.05 0.01157
50.1 0.01106
50.15 0.00723
50.2 0.00298
50.25 -0.00294
50.3 -0.00756
50.35 -0.0128
50.4 -0.01852
50.45 -0.0228
50.5 -0.02623
50.55 -0.02822
50.6 -0.03183
50.65 -0.0351
50.7 -0.03393
50.75 -0.02731
50.8 -0.02512
50.85 -0.02456
50.9 -0.02055
50.95 -0.01826
51 -0.01373
51.05 -0.0072
51.1 -0.00294
51.15 0.00304
51.2 0.00914
51.25 0.00784
51.3 0.00507
51.35 0.0024
51.4 -0.00128
51.45 -0.00056
51.5 -0.00393
51.55 -0.00771
51.6 -0.01083
51.65 -0.01407
51.7 -0.01722
51.75 -0.01912
51.8 -0.01677
51.85 -0.01702
51.9 -0.01663
51.95 -0.01482
52 -0.01036
52.05 -0.00509
52.1 0.00053
52.15 -0.00031
52.2 0.00101
52.25 -0.00004
52.3 0.00076
52.35 0.00062
52.4 0.00043
52.45 -0.00411
52.5 -0.00591
52.55 -0.00544
52.6 -0.009
52.65 -0.01483
52.7 -0.0169
52.75 -0.01552
52.8 -0.01035
52.85 -0.00419
52.9 -0.00057
52.95 -0.00182
53 -0.00208
53.05 -0.00313
53.1 -0.00085
53.15 -0.00101
53.2 -0.00451
53.25 -0.00452
53.3 -0.00798
53.35 -0.0132
53.4 -0.01479
53.45 -0.01365
53.5 -0.01194
53.55 -0.00819
53.6 -0.00581
53.65 -0.00776
53.7 -0.0112
53.75 -0.01037
53.8 -0.01228
53.85 -0.01246
53.9 -0.00956
53.95 -0.00577
54 -0.00081
54.05 -0.00044
54.1 -0.00124
54.15 -0.00442
54.2 -0.007
54.25 -0.00504
54.3 -0.0046
54.35 -0.00542
54.4 -0.006
54.45 -0.00731
54.5 -0.00856
54.55 -0.00832
54.6 -0.00931
54.65 -0.0121
54.7 -0.01577
54.75 -0.01316
54.8 -0.01395
54.85 -0.01137
54.9 -0.00668
54.95 -0.00557
55 -0.003
55.05 -0.00248
55.1 -0.00391
55.15 -0.0074
55.2 -0.01096
55.25 -0.01198
55.3 -0.01455
55.35 -0.01175
55.4 -0.00769
55.45 -0.00797
55.5 -0.01104
55.55 -0.01018
55.6 -0.00477
55.65 0.00177
55.7 0.00318
55.75 0.00775
55.8 0.0138
55.85 0.01322
55.9 0.009
55.95 0.00484
56 -0.00068
56.05 -0.0031
56.1 -0.00122
56.15 -0.00063
56.2 -0.00065
56.25 -0.00208
56.3 -0.00319
56.35 -0.00001
56.4 0.00268
56.45 0.00542
56.5 0.00542
56.55 0.00639
56.6 0.01031
56.65 0.01262
56.7 0.0159
56.75 0.0197
56.8 0.01863
56.85 0.01626
56.9 0.01138
56.95 0.00972
57 0.01151
57.05 0.01118
57.1 0.00753
57.15 0.00147
57.2 -0.00398
57.25 -0.00784
57.3 -0.00792
57.35 -0.00581
57.4 -0.00582
57.45 -0.00238
57.5 0.00024
57.55 0.0028
57.6 0.00207
57.65 0.00471
57.7 0.00748
57.75 0.00789
57.8 0.00535
57.85 0.0032
57.9 0.00354
57.95 0.00226
58 0.00004
58.05 0.00069
58.1 0.00337
58.15 0.00391
58.2 0.0018
58.25 0.00367
58.3 0.00269
58.35 -0.00227
58.4 -0.00619
58.45 -0.01119
58.5 -0.01693
58.55 -0.0185
58.6 -0.01498
58.65 -0.01377
58.7 -0.01427
58.75 -0.01678
58.8 -0.01563
58.85 -0.0168
58.9 -0.01772
58.95 -0.01365
59 -0.00828
59.05 -0.00441
59.1 -0.00387
59.15 -0.00183
59.2 0.00226
59.25 0.00498
59.3 0.00419
59.35 0.00411
59.4 0.00049
59.45 -0.00464
59.5 -0.01088
59.55 -0.01194
59.6 -0.00792
59.65 -0.00633
59.7 -0.00192
59.75 0.00167
59.8 0.00631
59.85 0.01099
59.9 0.01414
59.95 0.01716
60 0.01797
60.05 0.01339
60.1 0.00818
60.15 0.00367
60.2 -0.00252
60.25 -0.00351
60.3 -0.00397
60.35 -0.00605
60.4 -0.00601
60.45 -0.00659
60.5 -0.00527
60.55 -0.00055
60.6 0.0043
60.65 0.00421
60.7 0.00636
60.75 0.0038
60.8 0.00533
60.85 0.00736
60.9 0.00766
60.95 0.00504
61 0.00485
61.05 0.0007
61.1 -0.00504
61.15 -0.00973
61.2 -0.01343
61.25 -0.01464
61.3 -0.01487
61.35 -0.01756
61.4 -0.0176
61.45 -0.01818
61.5 -0.01508
61.55 -0.01295
61.6 -0.01353
61.65 -0.01104
61.7 -0.00777
61.75 -0.00558
61.8 -0.00641
61.85 -0.0025
61.9 -0.00041
61.95 0.00196
62 0.00518
62.05 0.0107
62.1 0.01273
62.15 0.01004
62.2 0.00936
62.25 0.01194
62.3 0.01157
62.35 0.01135
62.4 0.01077
62.45 0.01222
62.5 0.00902
62.55 0.00597
62.6 0.00661
62.65 0.00541
62.7 0.00466
62.75 0.00527
62.8 0.00728
62.85 0.00729
62.9 0.00872
62.95 0.00568
63 0.00087
63.05 -0.00272
63.1 -0.0081
63.15 -0.00917
63.2 -0.00733
63.25 -0.00685
63.3 -0.00348
63.35 -0.0004
63.4 -0.00017
63.45 0.00379
63.5 0.0095
63.55 0.01463
63.6 0.01336
63.65 0.0083
63.7 0.00646
63.75 0.00117
63.8 0.00006
63.85 -0.00101
63.9 -0.00076
63.95 0.00125
64 0.00577
64.05 0.0044
64.1 -0.0004
64.15 -0.00079
64.2 0.00162
64.25 0.00401
64.3 0.00263
64.35 0.00205
64.4 -0.00168
64.45 -0.00391
64.5 -0.00386
64.55 -0.00299
64.6 -0.00539
64.65 -0.00326
64.7 0.00188
64.75 0.00682
64.8 0.00655
64.85 0.00231
64.9 0.00081
64.95 -0.00238
65 -0.00751
65.05 -0.00863
65.1 -0.00754
65.15 -0.0068
65.2 -0.0089
65.25 -0.0072
65.3 -0.00788
65.35 -0.00973
65.4 -0.01354
65.45 -0.01249
65.5 -0.00744
65.55 -0.00472
65.6 -0.0052
65.65 -0.00294
65.7 -0.00503
65.75 -0.00756
65.8 -0.00807
65.85 -0.00991
65.9 -0.00944
65.95 -0.00466
66 -0.00461
66.05 -0.00229
66.1 0.00239
66.15 0.00821
66.2 0.01339
66.25 0.01346
66.3 0.01436
66.35 0.01499
66.4 0.01462
66.45 0.01061
66.5 0.00865
66.55 0.00652
66.6 0.0085
66.65 0.00825
66.7 0.00981
66.75 0.0131
66.8 0.01376
66.85 0.01278
66.9 0.01258
66.95 0.01456
67 0.0183
67.05 0.02281
67.1 0.02093
67.15 0.02089
67.2 0.01549
67.25 0.01277
67.3 0.00903
67.35 0.00381
67.4 0.00269
67.45 0.00437
67.5 0.00793
67.55 0.00781
67.6 0.00962
67.65 0.01195
67.7 0.01502
67.75 0.01592
67.8 0.0187
67.85 0.01457
67.9 0.01156
67.95 0.00904
68 0.00943
68.05 0.01037
68.1 0.0113
68.15 0.01436
68.2 0.01114
68.25 0.00424
68.3 0.00244
68.35 -0.00157
68.4 -0.00521
68.45 -0.01125
68.5 -0.01088
68.55 -0.01287
68.6 -0.017
68.65 -0.01848
68.7 -0.02162
68.75 -0.02247
68.8 -0.02376
68.85 -0.02352
68.9 -0.02131
68.95 -0.02075
69 -0.01569
69.05 -0.01032
69.1 -0.00322
69.15 -0.00006
69.2 -0.00105
69.25 0.00003
69.3 0.00304
69.35 0.00162
69.4 -0.00172
69.45 -0.00735
69.5 -0.0101
69.55 -0.01056
69.6 -0.00863
69.65 -0.00713
69.7 -0.00297
69.75 -0.00359
69.8 -0.00569
69.85 -0.00385
69.9 -0.00331
69.95 -0.00392
70 -0.00572
70.05 -0.0037
70.1 -0.00494
70.15 -0.00678
70.2 -0.00493
70.25 -0.00621
70.3 -0.00504
70.35 -0.00411
70.4 -0.00499
70.45 -0.00884
70.5 -0.0142
70.55 -0.01935
70.6 -0.02498
70.65 -0.03045
70.7 -0.03298
70.75 -0.0313
70.8 -0.03
70.85 -0.02538
70.9 -0.01778
70.95 -0.00807
71 -0.00411
71.05 0.00179
71.1 0.00224
71.15 0.00317
71.2 0.00722
71.25 0.0115
71.3 0.01274
71.35 0.00869
71.4 0.00722
71.45 0.00882
71.5 0.0087
71.55 0.00858
71.6 0.00672
71.65 0.00302
71.7 0.00176
71.75 0.00121
71.8 0.00418
71.85 0.00947
71.9 0.00907
71.95 0.00692
72 0.00626
72.05 0.00706
72.1 0.00689
72.15 0.00738
72.2 0.0071
72.25 0.00388
72.3 0.00049
72.35 -0.00071
72.4 -0.00401
72.45 -0.00389
72.5 -0.0054
72.55 -0.0077
72.6 -0.01088
72.65 -0.01478
72.7 -0.01939
72.75 -0.01717
72.8 -0.01538
72.85 -0.01592
72.9 -0.01702
72.95 -0.01634
73 -0.01595
73.05 -0.01689
73.1 -0.01764
73.15 -0.01927
73.2 -0.01702
73.25 -0.01702
73.3 -0.01801
73.35 -0.01601
73.4 -0.01229
73.45 -0.00744
73.5 -0.00302
73.55 0.00038
73.6 0.00065
73.65 -0.00129
73.7 -0.00361
73.75 -0.00822
73.8 -0.01336
73.85 -0.01218
73.9 -0.00835
73.95 -0.00484
74 0.00163
74.05 0.00666
74.1 0.01177
74.15 0.01232
74.2 0.00867
74.25 0.00964
74.3 0.00689
74.35 0.00882
74.4 0.01201
74.45 0.01439
74.5 0.01207
74.55 0.00962
74.6 0.0086
74.65 0.01097
74.7 0.0129
74.75 0.01211
74.8 0.01114
74.85 0.01257
74.9 0.00929
74.95 0.00355
75 -0.00115
75.05 -0.00717
75.1 -0.01021
75.15 -0.00981
75.2 -0.00854
75.25 -0.0094
75.3 -0.00507
75.35 -0.00014
75.4 0.0013
75.45 0.00587
75.5 0.00694
75.55 0.00382
75.6 0.00405
75.65 0.00554
75.7 0.00981
75.75 0.00858
75.8 0.00862
75.85 0.01009
75.9 0.01097
75.95 0.01462
76 0.01179
76.05 0.01248
76.1 0.01475
76.15 0.01316
76.2 0.00756
76.25 0.00033
76.3 -0.0052
76.35 -0.00677
76.4 -0.00415
76.45 -0.0021
76.5 -0.00366
76.55 -0.00173
76.6 0.0034
76.65 0.00389
76.7 0.00265
76.75 0.00062
76.8 0.00275
76.85 0.0056
76.9 0.00657
76.95 0.00973
77 0.00758
77.05 0.00761
77.1 0.01006
77.15 0.01465
77.2 0.01825
77.25 0.01677
77.3 0.01657
77.35 0.01422
77.4 0.0135
77.45 0.01476
77.5 0.01439
77.55 0.0103
77.6 0.00676
77.65 0.00119
77.7 0.00085
77.75 0.00252
77.8 -0.00023
77.85 -0.006
77.9 -0.00953
77.95 -0.01344
78 -0.01832
78.05 -0.02279
78.1 -0.0272
78.15 -0.03022
78.2 -0.03028
78.25 -0.02464
78.3 -0.02272
78.35 -0.01787
78.4 -0.01337
78.45 -0.00573
78.5 0.00153
78.55 0.00639
78.6 0.00619
78.65 0.00469
78.7 0.00313
78.75 0.00376
78.8 0.00663
78.85 0.00483
78.9 0.00705
78.95 0.0063
79 0.00775
79.05 0.0058
79.1 0.00233
79.15 -0.00179
79.2 -0.00075
79.25 -0.00001
79.3 -0.00263
79.35 -0.00795
79.4 -0.00704
79.45 -0.00651
79.5 -0.00806
79.55 -0.00925
79.6 -0.01314
79.65 -0.01369
79.7 -0.01653
79.75 -0.01816
79.8 -0.01664
79.85 -0.01377
79.9 -0.01348
79.95 -0.01297
80 -0.01142
80.05 -0.01237
80.1 -0.00868
80.15 -0.00551
80.2 -0.00004
80.25 0.00225
80.3 0.00108
80.35 0.00378
80.4 0.00792
80.45 0.00797
80.5 0.00953
80.55 0.0128
80.6 0.00994
80.65 0.00492
80.7 0.00521
80.75 0.00115
80.8 -0.0025
80.85 -0.00431
80.9 -0.00261
80.95 0.00259
81 0.00632
81.05 0.01022
81.1 0.01216
81.15 0.01577
81.2 0.01483
81.25 0.01077
81.3 0.00839
81.35 0.00249
81.4 0.0016
81.45 0.00006
81.5 -0.00418
81.55 -0.00342
81.6 -0.0008
81.65 0.00236
81.7 0.00113
81.75 0.0032
81.8 0.00696
81.85 0.0074
81.9 0.00539
81.95 0.0069
82 0.00335
82.05 -0.00303
82.1 -0.00415
82.15 -0.0011
82.2 0.00124
82.25 0.00519
82.3 0.0066
82.35 0.00317
82.4 -0.00281
82.45 -0.00884
82.5 -0.00901
82.55 -0.00749
82.6 -0.00564
82.65 -0.00325
82.7 0.00181
82.75 0.00083
82.8 0.00156
82.85 -0.00087
82.9 -0.00085
82.95 -0.00358
83 -0.00152
83.05 -0.00073
83.1 0.00087
83.15 -0.00137
83.2 -0.00091
83.25 0.0024
83.3 0.00228
83.35 0.00428
83.4 0.00743
83.45 0.00901
83.5 0.01026
83.55 0.01097
83.6 0.0103
83.65 0.00646
83.7 0.00438
83.75 -0.00106
83.8 -0.00661
83.85 -0.01097
83.9 -0.01449
83.95 -0.01859
84 -0.01982
84.05 -0.0155
84.1 -0.00962
84.15 -0.00772
84.2 -0.00528
84.25 -0.00337
84.3 -0.0047
84.35 -0.00298
84.4 -0.00427
84.45 -0.00285
84.5 -0.00519
84.55 -0.00847
84.6 -0.01294
84.65 -0.01523
84.7 -0.01394
84.75 -0.01569
84.8 -0.01638
84.85 -0.01632
84.9 -0.016
84.95 -0.01625
85 -0.01603
85.05 -0.01172
85.1 -0.01144
85.15 -0.00968
85.2 -0.0079
85.25 -0.00348
85.3 0.00139
85.35 0.00612
85.4 0.00684
85.45 0.00847
85.5 0.00878
85.55 0.0085
85.6 0.00724
85.65 0.00955
85.7 0.01115
85.75 0.01309
85.8 0.01028
85.85 0.01062
85.9 0.01076
85.95 0.01403
86 0.01626
86.05 0.01288
86.1 0.01153
86.15 0.00815
86.2 0.00673
86.25 0.00371
86.3 -0.00076
86.35 -0.00142
86.4 0.00039
86.45 -0.00015
86.5 0.00051
86.55 -0.00041
86.6 -0.00133
86.65 -0.00178
86.7 -0.00387
86.75 -0.00703
86.8 -0.00527
86.85 -0.00364
86.9 -0.00213
86.95 0.00129
87 0.00085
87.05 0.00129
87.1 0.00264
87.15 0.00334
87.2 0.00379
87.25 0.00596
87.3 0.0107
87.35 0.01611
87.4 0.0154
87.45 0.01193
87.5 0.00954
87.55 0.00347
87.6 -0.00151
87.65 -0.00079
87.7 -0.00313
87.75 -0.00767
87.8 -0.00894
87.85 -0.00811
87.9 -0.00581
87.95 -0.00122
88 -0.00027
88.05 -0.00077
88.1 -0.00003
88.15 0.00108
88.2 0.0034
88.25 0.00112
88.3 0.00311
88.35 0.00528
88.4 0.00594
88.45 0.00275
88.5 -0.00004
88.55 -0.00271
88.6 -0.00518
88.65 -0.00494
88.7 -0.00639
88.75 -0.00722
88.8 -0.00353
88.85 -0.00315
88.9 -0.00221
88.95 -0.00448
89 -0.00632
89.05 -0.01069
89.1 -0.01433
89.15 -0.01924
89.2 -0.02063
89.25 -0.02215
89.3 -0.01828
89.35 -0.01587
89.4 -0.01245
89.45 -0.00974
89.5 -0.0093
89.55 -0.00675
89.6 -0.00211
89.65 0.00069
89.7 0.00372
89.75 0.00711
89.8 0.0069
89.85 0.00597
89.9 0.00155
89.95 -0.0036
90 -0.00503
90.05 -0.00657
90.1 -0.00363
90.15 0.00057
90.2 0.00307
90.25 0.0079
90.3 0.0111
90.35 0.01467
90.4 0.01466
90.45 0.01253
90.5 0.00731
90.55 0.00446
90.6 0.00333
90.65 0.00439
90.7 0.00317
90.75 0.00082
90.8 0.00079
90.85 0.00229
90.9 0.00173
90.95 -0.00131
91 -0.0005
91.05 -0.00158
91.1 0.00064
91.15 0.00072
91.2 0.001
91.25 -0.00139
91.3 -0.00403
91.35 -0.0056
91.4 -0.00499
91.45 -0.00577
91.5 -0.0067
91.55 -0.00527
91.6 -0.00632
91.65 -0.00353
91.7 0.00187
91.75 0.00429
91.8 0.0028
91.85 0.00033
91.9 -0.00402
91.95 -0.00628
92 -0.01046
92.05 -0.00843
92.1 -0.00258
92.15 -0.00082
92.2 -0.00165
92.25 -0.002
92.3 -0.00413
92.35 -0.00686
92.4 -0.00966
92.45 -0.01144
92.5 -0.01522
92.55 -0.01618
92.6 -0.01124
92.65 -0.00576
92.7 -0.00523
92.75 -0.00335
92.8 -0.00049
92.85 -0.00202
92.9 -0.00105
92.95 0.00288
93 0.00225
93.05 0.00282
93.1 0.00162
93.15 0.00193
93.2 0.00282
93.25 0.00359
93.3 0.00601
93.35 0.00941
93.4 0.00936
93.45 0.01181
93.5 0.011
93.55 0.01146
93.6 0.01198
93.65 0.01509
93.7 0.01436
93.75 0.01662
93.8 0.01434
93.85 0.01542
93.9 0.01772
93.95 0.01393
94 0.0106
94.05 0.01152
94.1 0.01361
94.15 0.01415
94.2 0.01361
94.25 0.01079
94.3 0.00606
94.35 0.0001
94.4 -0.00456
94.45 -0.00736
94.5 -0.01137
94.55 -0.01218
94.6 -0.01471
94.65 -0.01365
94.7 -0.008
94.75 -0.00035
94.8 0.00181
94.85 0.00693
94.9 0.00559
94.95 0.00755
95 0.00562
95.05 0.00574
95.1 0.00276
95.15 0.00138
95.2 -0.0006
95.25 -0.00256
95.3 -0.00645
95.35 -0.00972
95.4 -0.01386
95.45 -0.01925
95.5 -0.01711
95.55 -0.01117
95.6 -0.00952
95.65 -0.00957
95.7 -0.00863
95.75 -0.00676
95.8 -0.00309
95.85 -0.00117
95.9 -0.00133
95.95 -0.00297
96 -0.0036
96.05 -0.0043
96.1 -0.00796
96.15 -0.00823
96.2 -0.01111
96.25 -0.01486
96.3 -0.01515
96.35 -0.01278
96.4 -0.01274
96.45 -0.01213
96.5 -0.00888
96.55 -0.00675
96.6 -0.00768
96.65 -0.00662
96.7 -0.00308
96.75 -0.00031
96.8 0.00196
96.85 0.00384
96.9 0.00336
96.95 0.00176
97 0.0023
97.05 0.00178
97.1 0.00011
97.15 0.00072
97.2 0.00451
97.25 0.005
97.3 0.00729
97.35 0.00654
97.4 0.0082
97.45 0.00617
97.5 0.00197
97.55 -0.0028
97.6 -0.00383
97.65 -0.00049
97.7 -0.00039
97.75 -0.00195
97.8 -0.00499
97.85 -0.00793
97.9 -0.00589
97.95 -0.00773
98 -0.01133
98.05 -0.01228
98.1 -0.00863
98.15 -0.00478
98.2 -0.00439
98.25 -0.00372
98.3 -0.00457
98.35 -0.00563
98.4 -0.0072
98.45 -0.0106
98.5 -0.01027
98.55 -0.01115
98.6 -0.01379
98.65 -0.01218
98.7 -0.00866
98.75 -0.00581
98.8 0.00064
98.85 0.00277
98.9 0.00148
98.95 0.0034
99 0.00436
99.05 0.0054
99.1 0.00202
99.15 0.00141
99.2 0.00162
99.25 0.00045
99.3 -0.00395
99.35 -0.00926
99.4 -0.00767
99.45 -0.00231
99.5 -0.00196
99.55 0.00191
99.6 0.00379
99.65 0.00782
99.7 0.00773
99.75 0.00429
99.8 0.00014
99.85 -0.00158
99.9 0.00034
99.95 0.00004
