0 0
0.05 0.00723
0.1 0.01235
0.15 0.01589
0.2 0.01831
0.25 0.02037
0.3 0.02597
0.35 0.03556
0.4 0.04183
0.45 0.04991
0.5 0.05781
0.55 0.06499
0.6 0.06796
0.65 0.07047
0.7 0.07446
0.75 0.07385
0.8 0.07537
0.85 0.07773
0.9 0.07906
0.95 0.07915
1 0.07866
1.05 0.07169
1.1 0.06472
1.15 0.06049
1.2 0.0567
1.25 0.05161
1.3 0.04775
1.35 0.04464
1.4 0.03755
1.45 0.03639
1.5 0.03251
1.55 0.03135
1.6 0.03157
1.65 0.03165
1.7 0.03234
1.75 0.03042
1.8 0.0329
1.85 0.03607
1.9 0.03817
1.95 0.04162
2 0.04674
2.05 0.05166
2.1 0.05213
2.15 0.04943
2.2 0.04274
2.25 0.03242
2.3 0.02125
2.35 0.01218
2.4 0.00442
2.45 -0.00257
2.5 -0.00812
2.55 -0.01284
2.6 -0.01175
2.65 -0.00709
2.7 -0.00096
2.75 0.00694
2.8 0.01022
2.85 0.01301
2.9 0.0123
2.95 0.01732
3 0.02124
3.05 0.02539
3.1 0.02751
3.15 0.024
3.2 0.02286
3.25 0.02302
3.3 0.01948
3.35 0.01776
3.4 0.01431
3.45 0.0171
3.5 0.01769
3.55 0.02233
3.6 0.02142
3.65 0.0178
3.7 0.01134
3.75 0.00353
3.8 0.00419
3.85 0.00663
3.9 0.00695
3.95 0.0045
4 0.00515
4.05 0.00673
4.1 0.00589
4.15 0.00577
4.2 0.00176
4.25 0.00343
4.3 0.00574
4.35 0.00653
4.4 0.00429
4.45 0.00237
4.5 -0.00531
4.55 -0.0185
4.6 -0.03417
4.65 -0.05183
4.7 -0.07047
4.75 -0.08762
4.8 -0.10849
4.85 -0.13664
4.9 -0.17145
4.95 -0.20523
5 -0.24119
5.05 -0.28611
5.1 -0.33845
5.15 -0.39644
5.2 -0.46064
5.25 -0.53082
5.3 -0.60443
5.35 -0.68144
5.4 -0.76169
5.45 -0.84713
5.5 -0.93566
5.55 -1.02646
5.6 -1.12413
5.65 -1.22533
5.7 -1.32325
5.75 -1.42456
5.8 -1.52578
5.85 -1.62371
5.9 -1.71831
5.95 -1.81162
6 -1.89715
6.05 -1.97915
6.1 -2.05397
6.15 -2.12099
6.2 -2.18124
6.25 -2.23736
6.3 -2.291
6.35 -2.34215
6.4 -2.38971
6.45 -2.43575
6.5 -2.47379
6.55 -2.50269
6.6 -2.52326
6.65 -2.53065
6.7 -2.5222
6.75 -2.49703
6.8 -2.45344
6.85 -2.39983
6.9 -2.33494
6.95 -2.25139
7 -2.15125
7.05 -2.03829
7.1 -1.90515
7.15 -1.75441
7.2 -1.59164
7.25 -1.42016
7.3 -1.24141
7.35 -1.04953
7.4 -0.85414
7.45 -0.65298
7.5 -0.44707
7.55 -0.24142
7.6 -0.03694
7.65 0.16499
7.7 0.36284
7.75 0.55212
7.8 0.73698
7.85 0.9104
7.9 1.07367
7.95 1.23025
8 1.37805
8.05 1.50898
8.1 1.62396
8.15 1.7274
8.2 1.81868
8.25 1.89576
8.3 1.96189
8.35 2.02315
8.4 2.07183
8.45 2.11291
8.5 2.14407
8.55 2.17343
8.6 2.20079
8.65 2.22292
8.7 2.24082
8.75 2.24677
8.8 2.24664
8.85 2.24576
8.9 2.23939
8.95 2.22709
9 2.2155
9.05 2.20442
9.1 2.19402
9.15 2.17589
9.2 2.15646
9.25 2.13293
9.3 2.11166
9.35 2.09096
9.4 2.06994
9.45 2.05025
9.5 2.02529
9.55 1.9994
9.6 1.97144
9.65 1.94403
9.7 1.91654
9.75 1.88525
9.8 1.85372
9.85 1.81556
9.9 1.77442
9.95 1.73504
10 1.69653
10.05 1.65961
10.1 1.62006
10.15 1.58006
10.2 1.54148
10.25 1.49892
10.3 1.45697
10.35 1.4183
10.4 1.376
10.45 1.33651
10.5 1.29394
10.55 1.25309
10.6 1.20994
10.65 1.16232
10.7 1.11101
10.75 1.0632
10.8 1.01587
10.85 0.96363
10.9 0.90896
10.95 0.85412
11 0.80184
11.05 0.75056
11.1 0.70433
11.15 0.66511
11.2 0.6241
11.25 0.58526
11.3 0.54362
11.35 0.49963
11.4 0.462
11.45 0.42089
11.5 0.38215
11.55 0.34347
11.6 0.30268
11.65 0.26375
11.7 0.22544
11.75 0.19271
11.8 0.16537
11.85 0.13886
11.9 0.11034
11.95 0.07965
12 0.04505
12.05 0.01405
12.1 -0.01843
12.15 -0.04824
12.2 -0.07923
12.25 -0.10849
12.3 -0.12917
12.35 -0.14339
12.4 -0.1545
12.45 -0.16936
12.5 -0.18343
12.55 -0.19864
12.6 -0.21764
12.65 -0.23936
12.7 -0.25351
12.75 -0.27032
12.8 -0.28068
12.85 -0.29324
12.9 -0.30677
12.95 -0.3136
13 -0.32313
13.05 -0.32848
13.1 -0.33824
13.15 -0.34535
13.2 -0.35333
13.25 -0.35746
13.3 -0.35991
13.35 -0.36444
13.4 -0.36835
13.45 -0.37178
13.5 -0.3695
13.55 -0.36438
13.6 -0.36206
13.65 -0.35749
13.7 -0.35407
13.75 -0.3496
13.8 -0.34931
13.85 -0.35085
13.9 -0.35465
13.95 -0.36224
14 -0.36299
14.05 -0.36571
14.1 -0.36868
14.15 -0.3731
14.2 -0.37043
14.25 -0.36421
14.3 -0.35496
14.35 -0.35043
14.4 -0.3425
14.45 -0.3407
14.5 -0.33489
14.55 -0.33014
14.6 -0.32586
14.65 -0.32592
14.7 -0.32431
14.75 -0.32164
14.8 -0.3199
14.85 -0.32065
14.9 -0.32376
14.95 -0.32283
15 -0.32055
15.05 -0.31723
15.1 -0.30842
15.15 -0.29653
15.2 -0.29027
15.25 -0.2876
15.3 -0.28066
15.35 -0.27894
15.4 -0.2717
15.45 -0.27024
15.5 -0.26597
15.55 -0.26384
15.6 -0.25828
15.65 -0.25444
15.7 -0.25476
15.75 -0.25683
15.8 -0.25535
15.85 -0.25027
15.9 -0.24257
15.95 -0.23708
16 -0.23246
16.05 -0.22592
16.1 -0.22421
16.15 -0.22541
16.2 -0.2277
16.25 -0.22314
16.3 -0.21597
16.35 -0.21153
16.4 -0.21026
16.45 -0.2076
16.5 -0.20694
16.55 -0.20339
16.6 -0.20282
16.65 -0.20116
16.7 -0.19767
16.75 -0.19608
16.8 -0.19439
16.85 -0.18774
16.9 -0.18121
16.95 -0.173
17 -0.16814
17.05 -0.16014
17.1 -0.15467
17.15 -0.1486
17.2 -0.14215
17.25 -0.13386
17.3 -0.1268
17.35 -0.12518
17.4 -0.12646
17.45 -0.12684
17.5 -0.12581
17.55 -0.12874
17.6 -0.13174
17.65 -0.13138
17.7 -0.13409
17.75 -0.13743
17.8 -0.13649
17.85 -0.13535
17.9 -0.13539
17.95 -0.13614
18 -0.13252
18.05 -0.13134
18.1 -0.12934
18.15 -0.1307
18.2 -0.1291
18.25 -0.12712
18.3 -0.12365
18.35 -0.11511
18.4 -0.11062
18.45 -0.10295
18.5 -0.09695
18.55 -0.09633
18.6 -0.09843
18.65 -0.09722
18.7 -0.09565
18.75 -0.09452
18.8 -0.08864
18.85 -0.08291
18.9 -0.08305
18.95 -0.08081
19 -0.07673
19.05 -0.07199
19.1 -0.07401
19.15 -0.07204
19.2 -0.07521
19.25 -0.08128
19.3 -0.08879
19.35 -0.09587
19.4 -0.09665
19.45 -0.09387
19.5 -0.09216
19.55 -0.0869
19.6 -0.08527
19.65 -0.08589
19.7 -0.08192
19.75 -0.0782
19.8 -0.07747
19.85 -0.07257
19.9 -0.06464
19.95 -0.05982
20 -0.05643
20.05 -0.0507
20.1 -0.04534
20.15 -0.04479
20.2 -0.04899
20.25 -0.04805
20.3 -0.04733
20.35 -0.05016
20.4 -0.0565
20.45 -0.05802
20.5 -0.05624
20.55 -0.05504
20.6 -0.05299
20.65 -0.05468
20.7 -0.05961
20.75 -0.06547
20.8 -0.06809
20.85 -0.06835
20.9 -0.06774
20.95 -0.06735
21 -0.06124
21.05 -0.05182
21.1 -0.04112
21.15 -0.03067
21.2 -0.02788
21.25 -0.03047
21.3 -0.03354
21.35 -0.03325
21.4 -0.03484
21.45 -0.03308
21.5 -0.03294
21.55 -0.03016
21.6 -0.02715
21.65 -0.02563
21.7 -0.0209
21.75 -0.0181
21.8 -0.01839
21.85 -0.02033
21.9 -0.0227
21.95 -0.02879
22 -0.0317
22.05 -0.02958
22.1 -0.02653
22.15 -0.02706
22.2 -0.02386
22.25 -0.02246
22.3 -0.02358
22.35 -0.02283
22.4 -0.02046
22.45 -0.01813
22.5 -0.01862
22.55 -0.01561
22.6 -0.0144
22.65 -0.01612
22.7 -0.01796
22.75 -0.02378
22.8 -0.0319
22.85 -0.03469
22.9 -0.03174
22.95 -0.02796
23 -0.02801
23.05 -0.02696
23.1 -0.02537
23.15 -0.02535
23.2 -0.02329
23.25 -0.01758
23.3 -0.01565
23.35 -0.01273
23.4 -0.01396
23.45 -0.01675
23.5 -0.02129
23.55 -0.02209
23.6 -0.01843
23.65 -0.01746
23.7 -0.01972
23.75 -0.02421
23.8 -0.0313
23.85 -0.0345
23.9 -0.03329
23.95 -0.03096
24 -0.02733
24.05 -0.02304
24.1 -0.01767
24.15 -0.01362
24.2 -0.01048
24.25 -0.01223
24.3 -0.01687
24.35 -0.01809
24.4 -0.02166
24.45 -0.02445
24.5 -0.02435
24.55 -0.02421
24.6 -0.01896
24.65 -0.0164
24.7 -0.01063
24.75 -0.00906
24.8 -0.00806
24.85 -0.00945
24.9 -0.01309
24.95 -0.01207
25 -0.01259
25.05 -0.01608
25.1 -0.01463
25.15 -0.0141
25.2 -0.01059
25.25 -0.01221
25.3 -0.01282
25.35 -0.01179
25.4 -0.00788
25.45 -0.00777
25.5 -0.00679
25.55 -0.0045
25.6 -0.00803
25.65 -0.01239
25.7 -0.01872
25.75 -0.02168
25.8 -0.02334
25.85 -0.02417
25.9 -0.02661
25.95 -0.02297
26 -0.02357
26.05 -0.01828
26.1 -0.01864
26.15 -0.0211
26.2 -0.02433
26.25 -0.02585
26.3 -0.0251
26.35 -0.01896
26.4 -0.01036
26.45 -0.00676
26.5 -0.00346
26.55 0.00186
26.6 0.00409
26.65 0.00036
26.7 -0.0003
26.75 0.00222
26.8 0.00308
26.85 -0.0012
26.9 -0.00725
26.95 -0.01185
27 -0.01646
27.05 -0.01651
27.1 -0.01482
27.15 -0.01129
27.2 -0.00513
27.25 -0.00565
27.3 -0.00857
27.35 -0.01251
27.4 -0.01377
27.45 -0.01821
27.5 -0.02341
27.55 -0.02967
27.6 -0.03077
27.65 -0.0321
27.7 -0.02857
27.75 -0.01968
27.8 -0.01268
27.85 -0.01059
27.9 -0.00772
27.95 -0.00725
28 -0.00852
28.05 -0.00449
28.1 0.00064
28.15 0.00072
28.2 -0.00015
28.25 -0.00131
28.3 -0.00502
28.35 -0.00481
28.4 -0.0056
28.45 -0.00626
28.5 -0.00762
28.55 -0.00921
28.6 -0.01307
28.65 -0.01258
28.7 -0.01266
28.75 -0.01468
28.8 -0.01364
28.85 -0.01537
28.9 -0.01863
28.95 -0.02101
29 -0.01752
29.05 -0.00941
29.1 0.00105
29.15 0.00938
29.2 0.01345
29.25 0.01497
29.3 0.01426
29.35 0.01377
29.4 0.01125
29.45 0.0124
29.5 0.01281
29.55 0.01414
29.6 0.012
29.65 0.0077
29.7 0.00074
29.75 -0.00387
29.8 -0.00843
29.85 -0.00638
29.9 -0.00781
29.95 -0.00429
30 -0.00477
30.05 -0.00849
30.1 -0.00884
30.15 -0.00564
30.2 0.00035
30.25 0.00078
30.3 0.00164
30.35 0.00378
30.4 0.00198
30.45 0.00203
30.5 0.00376
30.55 0.00041
30.6 -0.00007
30.65 0.00171
30.7 0.00283
30.75 0.00586
30.8 0.00274
30.85 -0.00101
30.9 -0.00402
30.95 -0.00777
31 -0.00971
31.05 -0.01014
31.1 -0.01108
31.15 -0.01541
31.2 -0.01888
31.25 -0.02129
31.3 -0.02148
31.35 -0.02411
31.4 -0.0276
31.45 -0.02826
31.5 -0.02726
31.55 -0.02262
31.6 -0.01904
31.65 -0.01665
31.7 -0.01819
31.75 -0.0144
31.8 -0.01143
31.85 -0.00962
31.9 -0.00582
31.95 -0.00699
32 -0.00954
32.05 -0.0099
32.1 -0.00978
32.15 -0.00917
32.2 -0.00568
32.25 -0.00718
32.3 -0.00285
32.35 -0.00257
32.4 -0.00456
32.45 -0.00601
32.5 -0.00268
32.55 0.00146
32.6 0.00771
32.65 0.01078
32.7 0.01311
32.75 0.01306
32.8 0.01648
32.85 0.02051
32.9 0.01839
32.95 0.01906
33 0.02236
33.05 0.01926
33.1 0.0166
33.15 0.01147
33.2 0.00829
33.25 0.00899
33.3 0.01205
33.35 0.00935
33.4 0.01062
33.45 0.01305
33.5 0.01693
33.55 0.01488
33.6 0.01072
33.65 0.00933
33.7 0.00544
33.75 0.0055
33.8 0.00565
33.85 0.00715
33.9 0.0112
33.95 0.01668
34 0.02089
34.05 0.01947
34.1 0.01963
34.15 0.01642
34.2 0.01486
34.25 0.00804
34.3 0.00466
34.35 0.00093
34.4 -0.00082
34.45 -0.00267
34.5 0.00017
34.55 0.00213
34.6 0.00579
34.65 0.00839
34.7 0.00453
34.75 0.00339
34.8 0.00506
34.85 0.00194
34.9 0.00086
34.95 0.00215
35 0.00022
35.05 0.00117
35.1 0.0023
35.15 0.00127
35.2 0.00476
35.25 0.00182
35.3 -0.004
35.35 -0.00817
35.4 -0.00585
35.45 -0.00747
35.5 -0.00838
35.55 -0.00604
35.6 -0.00249
35.65 -0.00207
35.7 -0.00452
35.75 -0.00761
35.8 -0.01148
35.85 -0.01747
35.9 -0.01957
35.95 -0.02275
36 -0.0248
36.05 -0.02233
36.1 -0.01724
36.15 -0.01669
36.2 -0.01186
36.25 -0.00905
36.3 -0.00868
36.35 -0.00457
36.4 -0.0046
36.45 -0.00213
36.5 -0.0009
36.55 0.0009
36.6 0.0022
36.65 0.00666
36.7 0.00504
36.75 0.00383
36.8 0.0013
36.85 0.0004
36.9 -0.00307
36.95 -0.00231
37 -0.00453
37.05 -0.00549
37.1 -0.0034
37.15 0.00017
37.2 -0.00054
37.25 0.00188
37.3 0.00122
37.35 0.00388
37.4 0.00814
37.45 0.0093
37.5 0.01269
37.55 0.01513
37.6 0.01581
37.65 0.01488
37.7 0.01409
37.75 0.01606
37.8 0.01687
37.85 0.02019
37.9 0.01882
37.95 0.01704
38 0.01405
38.05 0.00796
38.1 0.00728
38.15 0.00692
38.2 0.00795
38.25 0.0058
38.3 0.0006
38.35 -0.00021
38.4 -0.00202
38.45 -0.00583
38.5 -0.00547
38.55 -0.00546
38.6 -0.00649
38.65 -0.00603
38.7 -0.00647
38.75 -0.01112
38.8 -0.01472
38.85 -0.01785
38.9 -0.0141
38.95 -0.01076
39 -0.00947
39.05 -0.00979
39.1 -0.00758
39.15 -0.00154
39.2 0.00663
39.25 0.01421
39.3 0.01886
39.35 0.01992
39.4 0.01611
39.45 0.01134
39.5 0.00997
39.55 0.0084
39.6 0.00916
39.65 0.00394
39.7 0.00109
39.75 -0.00074
39.8 0.001
39.85 -0.0008
39.9 -0.00267
39.95 -0.00431
40 -0.00604
40.05 -0.00625
40.1 -0.00817
40.15 -0.01275
40.2 -0.01383
40.25 -0.0114
40.3 -0.00796
40.35 -0.00773
40.4 -0.0057
40.45 -0.00671
40.5 -0.00326
40.55 -0.00088
40.6 0.00428
40.65 0.00603
40.7 0.01096
40.75 0.0134
40.8 0.01304
40.85 0.01294
40.9 0.01551
40.95 0.01809
41 0.02002
41.05 0.02105
41.1 0.01977
41.15 0.01886
41.2 0.01457
41.25 0.01252
41.3 0.00675
41.35 0.00651
41.4 0.0014
41.45 -0.00615
41.5 -0.01012
41.55 -0.00815
41.6 -0.00487
41.65 -0.00092
41.7 0.00074
41.75 0.00305
41.8 0.00766
41.85 0.00547
41.9 0.00147
41.95 0.0018
42 -0.00044
42.05 0.00024
42.1 -0.00157
42.15 -0.00453
42.2 -0.00418
42.25 -0.00549
42.3 -0.00387
42.35 -0.00577
42.4 -0.00834
42.45 -0.01334
42.5 -0.01175
42.55 -0.01321
42.6 -0.00947
42.65 -0.00512
42.7 -0.00457
42.75 -0.00332
42.8 -0.00305
42.85 -0.00062
42.9 -0.00155
42.95 -0.00257
43 -0.00425
43.05 -0.00474
43.1 -0.00111
43.15 -0.00105
43.2 -0.00235
43.25 0.00077
43.3 0.006
43.35 0.00483
43.4 0.00404
43.45 0.00691
43.5 0.00703
43.55 0.00885
43.6 0.00436
43.65 -0.00352
43.7 -0.00898
43.75 -0.01213
43.8 -0.01539
43.85 -0.0152
43.9 -0.01702
43.95 -0.01381
44 -0.01402
44.05 -0.00926
44.1 -0.00667
44.15 -0.00323
44.2 -0.00339
44.25 -0.00688
44.3 -0.00584
44.35 -0.0051
44.4 -0.00685
44.45 -0.0055
44.5 -0.00535
44.55 -0.00946
44.6 -0.01297
44.65 -0.01023
44.7 -0.00923
44.75 -0.00626
44.8 -0.002
44.85 0.00431
44.9 0.01102
44.95 0.01705
45 0.02137
45.05 0.02368
45.1 0.02432
45.15 0.02057
45.2 0.01167
45.25 0.00344
45.3 -0.0055
45.35 -0.00996
45.4 -0.01122
45.45 -0.01041
45.5 -0.01288
45.55 -0.00978
45.6 -0.00957
45.65 -0.01172
45.7 -0.0098
45.75 -0.01068
45.8 -0.00606
45.85 -0.00599
45.9 -0.00751
45.95 -0.00363
46 0.00269
46.05 0.00902
46.1 0.0088
46.15 0.00983
46.2 0.01344
46.25 0.01769
46.3 0.01742
46.35 0.01439
46.4 0.01035
46.45 0.00919
46.5 0.00422
46.55 0.00412
46.6 0.00064
46.65 -0.00193
46.7 -0.00475
46.75 -0.00873
46.8 -0.01298
46.85 -0.01066
46.9 -0.00747
46.95 -0.00246
47 -0.00336
47.05 -0.00255
47.1 0.00062
47.15 0.00437
47.2 0.00968
47.25 0.00884
47.3 0.0106
47.35 0.00928
47.4 0.00985
47.45 0.01098
47.5 0.01173
47.55 0.01357
47.6 0.01571
47.65 0.01766
47.7 0.01787
47.75 0.01893
47.8 0.01352
47.85 0.00548
47.9 -0.00087
47.95 -0.00325
48 -0.00552
48.05 -0.00246
48.1 -0.00042
48.15 -0.00077
48.2 -0.00054
48.25 0.00204
48.3 0.00599
48.35 0.00746
48.4 0.01162
48.45 0.01568
48.5 0.01617
48.55 0.01126
48.6 0.00375
48.65 0.00127
48.7 0.0022
48.75 -0.00018
48.8 -0.00135
48.85 -0.00209
48.9 -0.0013
48.95 -0.00418
49 -0.0084
49.05 -0.01143
49.1 -0.01384
49.15 -0.01178
49.2 -0.0115
49.25 -0.01054
49.3 -0.01394
49.35 -0.01302
49.4 -0.00762
49.45 -0.00774
49.5 -0.00573
49.55 -0.00373
49.6 -0.00018
49.65 0.00528
49.7 0.00417
49.75 0.00373
49.8 0.00372
49.85 0.00363
49.9 0.00175
49.95 0.00017
50 -0.00329
50.05 -0.00298
50.1 -0.00642
50.15 -0.00712
50.2 -0.00446
50.25 -0.00139
50.3 0.00006
50.35 -0.00265
50.4 -0.00283
50.45 0.00055
50.5 0.00313
50.55 0.0027
50.6 -0.00185
50.65 -0.00182
50.7 0.0007
50.75 0.00077
50.8 0.00194
50.85 -0.00249
50.9 -0.00222
50.95 0.00045
51 0.00565
51.05 0.00916
51.1 0.01077
51.15 0.01401
51.2 0.01616
51.25 0.01931
51.3 0.01519
51.35 0.00797
51.4 0.00351
51.45 -0.00389
51.5 -0.00973
51.55 -0.01413
51.6 -0.01782
51.65 -0.01481
51.7 -0.01383
51.75 -0.01516
51.8 -0.01488
51.85 -0.01839
51.9 -0.01498
51.95 -0.0083
52 -0.00788
52.05 -0.00925
52.1 -0.00766
52.15 -0.00576
52.2 -0.00768
52.25 -0.00837
52.3 -0.01313
52.35 -0.01227
52.4 -0.01546
52.45 -0.01266
52.5 -0.00692
52.55 -0.00213
52.6 0.00044
52.65 -0.00128
52.7 -0.00658
52.75 -0.00894
52.8 -0.01238
52.85 -0.01153
52.9 -0.00725
52.95 -0.00076
53 0.00415
53.05 0.01098
53.1 0.00947
53.15 0.01131
53.2 0.01059
53.25 0.00747
53.3 0.00858
53.35 0.00364
53.4 -0.00232
53.45 -0.00562
53.5 -0.00814
53.55 -0.0108
53.6 -0.0143
53.65 -0.01751
53.7 -0.01821
53.75 -0.02027
53.8 -0.01647
53.85 -0.00969
53.9 -0.00365
53.95 -0.0017
54 0.00079
54.05 -0.00101
54.1 -0.00202
54.15 -0.0055
54.2 -0.00822
54.25 -0.0095
54.3 -0.01362
54.35 -0.01424
54.4 -0.01093
54.45 -0.0118
54.5 -0.01485
54.55 -0.01271
54.6 -0.01485
54.65 -0.01716
54.7 -0.01933
54.75 -0.0233
54.8 -0.02312
54.85 -0.02016
54.9 -0.02055
54.95 -0.01446
55 -0.01223
55.05 -0.01256
55.1 -0.01007
55.15 -0.00827
55.2 -0.00441
55.25 -0.00511
55.3 -0.00344
55.35 -0.00553
55.4 -0.00904
55.45 -0.00809
55.5 -0.00581
55.55 -0.00184
55.6 0.00523
55.65 0.00758
55.7 0.01217
55.75 0.01172
55.8 0.01128
55.85 0.01306
55.9 0.01735
55.95 0.01742
56 0.01181
56.05 0.00564
56.1 0.00278
56.15 -0.00215
56.2 -0.00673
56.25 -0.01312
56.3 -0.01418
56.35 -0.01295
56.4 -0.01371
56.45 -0.01465
56.5 -0.01531
56.55 -0.01131
56.6 -0.00409
56.65 0.00387
56.7 0.00865
56.75 0.00753
56.8 0.00562
56.85 -0.00035
56.9 -0.00629
56.95 -0.00553
57 -0.00681
57.05 -0.00405
57.1 -0.00551
57.15 -0.0089
57.2 -0.00643
57.25 -0.00637
57.3 -0.00715
57.35 -0.00805
57.4 -0.00843
57.45 -0.01011
57.5 -0.01145
57.55 -0.01342
57.6 -0.01624
57.65 -0.01586
57.7 -0.01202
57.75 -0.00524
57.8 -0.00032
57.85 -0.0009
57.9 0.0017
57.95 -0.00094
58 -0.0054
58.05 -0.00927
58.1 -0.01055
58.15 -0.00671
58.2 -0.00094
58.25 0.00234
58.3 0.00186
58.35 0.00379
58.4 0.0065
58.45 0.00447
58.5 -0.00072
58.55 -0.00588
58.6 -0.00596
58.65 -0.00366
58.7 0.00259
58.75 0.00622
58.8 0.00863
58.85 0.00866
58.9 0.01179
58.95 0.00862
59 0.00314
59.05 -0.00069
59.1 -0.00392
59.15 -0.00475
59.2 -0.00631
59.25 -0.01065
59.3 -0.01419
59.35 -0.01625
59.4 -0.01262
59.45 -0.00724
59.5 0.00163
59.55 0.01061
59.6 0.01965
59.65 0.02153
59.7 0.01842
59.75 0.01576
59.8 0.01427
59.85 0.01062
59.9 0.00569
59.95 0.00055
60 -0.00694
60.05 -0.01386
60.1 -0.01806
60.15 -0.01909
60.2 -0.01848
60.25 -0.01606
60.3 -0.01694
60.35 -0.01303
60.4 -0.00529
60.45 0.00161
60.5 0.00698
60.55 0.00801
60.6 0.01288
60.65 0.0157
60.7 0.0199
60.75 0.02195
60.8 0.0183
60.85 0.01621
60.9 0.01151
60.95 0.00641
61 -0.00027
61.05 -0.00743
61.1 -0.00748
61.15 -0.00375
61.2 -0.00408
61.25 -0.00387
61.3 -0.00735
61.35 -0.00452
61.4 -0.0005
61.45 0.00395
61.5 0.0054
61.55 0.00563
61.6 0.00805
61.65 0.01251
61.7 0.01504
61.75 0.01606
61.8 0.01716
61.85 0.01224
61.9 0.006
61.95 0.00566
62 0.0023
62.05 -0.00353
62.1 -0.00927
62.15 -0.01572
62.2 -0.01759
62.25 -0.0197
62.3 -0.02333
62.35 -0.01953
62.4 -0.01199
62.45 -0.00384
62.5 0.00596
62.55 0.01568
62.6 0.02497
62.65 0.02503
62.7 0.024
62.75 0.02362
62.8 0.02026
62.85 0.01487
62.9 0.00568
62.95 -0.00004
63 -0.00324
63.05 -0.00646
63.1 -0.00837
63.15 -0.01142
63.2 -0.01353
63.25 -0.01648
63.3 -0.01669
63.35 -0.01856
63.4 -0.01763
63.45 -0.01641
63.5 -0.01567
63.55 -0.0144
63.6 -0.01654
63.65 -0.01345
63.7 -0.01193
63.75 -0.00669
63.8 0.00121
63.85 0.00339
63.9 0.00348
63.95 0.00043
64 -0.00237
64.05 -0.00735
64.1 -0.00659
64.15 -0.00617
64.2 -0.00863
64.25 -0.01317
64.3 -0.01582
64.35 -0.01776
64.4 -0.01292
64.45 -0.01108
64.5 -0.00526
64.55 -0.00154
64.6 0.00375
64.65 0.00975
64.7 0.01238
64.75 0.01241
64.8 0.00964
64.85 0.00433
64.9 0.00418
64.95 0.00007
65 0.00193
65.05 0.00466
65.1 0.00422
65.15 0.0008
65.2 -0.00471
65.25 -0.00679
65.3 -0.01057
65.35 -0.00899
65.4 -0.00942
65.45 -0.00614
65.5 -0.00291
65.55 0.00136
65.6 0.0065
65.65 0.00891
65.7 0.01064
65.75 0.01091
65.8 0.01236
65.85 0.01496
65.9 0.01648
65.95 0.01438
66 0.01146
66.05 0.00856
66.1 0.00269
66.15 -0.00169
66.2 -0.00505
66.25 -0.00703
66.3 -0.00537
66.35 0.00076
66.4 0.00937
66.45 0.01648
66.5 0.02048
66.55 0.02492
66.6 0.02229
66.65 0.01737
66.7 0.01639
66.75 0.01171
66.8 0.00431
66.85 -0.0015
66.9 -0.00601
66.95 -0.00962
67 -0.01218
67.05 -0.00915
67.1 -0.00203
67.15 0.00499
67.2 0.01143
67.25 0.01711
67.3 0.01704
67.35 0.01389
67.4 0.00656
67.45 -0.00291
67.5 -0.00503
67.55 -0.01028
67.6 -0.00904
67.65 -0.01101
67.7 -0.01573
67.75 -0.01341
67.8 -0.00676
67.85 -0.0042
67.9 -0.00329
67.95 0.00118
68 0.00316
68.05 -0.00025
68.1 0.00221
68.15 0.00617
68.2 0.00666
68.25 0.00443
68.3 0.00242
68.35 0.0035
68.4 0.00651
68.45 0.01182
68.5 0.01633
68.55 0.01347
68.6 0.0084
68.65 0.0014
68.7 -0.0046
68.75 -0.00404
68.8 0.00107
68.85 0.00291
68.9 0.00771
68.95 0.00709
69 0.00224
69.05 -0.00158
69.1 -0.0033
69.15 0.00046
69.2 0.00552
69.25 0.00399
69.3 0.00619
69.35 0.0069
69.4 0.00587
69.45 0.00348
69.5 -0.00166
69.55 -0.00062
69.6 -0.00193
69.65 -0.00142
69.7 0.00166
69.75 0.00567
69.8 0.01061
69.85 0.01454
69.9 0.02009
69.95 0.02248
70 0.01964
70.05 0.0122
70.1 0.00877
70.15 0.01004
70.2 0.01146
70.25 0.0097
70.3 0.00677
70.35 0.00561
70.4 0.00755
70.45 0.00963
70.5 0.00794
70.55 0.00253
70.6 0.00258
70.65 0.00631
70.7 0.00538
70.75 0.00654
70.8 0.01016
70.85 0.00965
70.9 0.00974
70.95 0.00433
71 0.00332
71.05 -0.0002
71.1 -0.00668
71.15 -0.01347
71.2 -0.0205
71.25 -0.02346
71.3 -0.02379
71.35 -0.01809
71.4 -0.0175
71.45 -0.01546
71.5 -0.0159
71.55 -0.01629
71.6 -0.01318
71.65 -0.01257
71.7 -0.01345
71.75 -0.01119
71.8 -0.01104
71.85 -0.00636
71.9 -0.00595
71.95 -0.00885
72 -0.01277
72.05 -0.01129
72.1 -0.0068
72.15 -0.00721
72.2 -0.00487
72.25 0.00093
72.3 0.00698
72.35 0.00742
72.4 0.00769
72.45 0.01076
72.5 0.01445
72.55 0.01219
72.6 0.01283
72.65 0.01606
72.7 0.01365
72.75 0.00802
72.8 0.00041
72.85 -0.00244
72.9 0.00023
72.95 0.00051
73 -0.00343
73.05 -0.00928
73.1 -0.01371
73.15 -0.01369
73.2 -0.01416
73.25 -0.01448
73.3 -0.01303
73.35 -0.00659
73.4 0.00113
73.45 0.00154
73.5 -0.0016
73.55 -0.00553
73.6 -0.00516
73.65 -0.0007
73.7 0.00473
73.75 0.0035
73.8 0.00409
73.85 0.00205
73.9 -0.00011
73.95 0.00138
74 -0.00077
74.05 -0.00347
74.1 -0.00781
74.15 -0.00888
74.2 -0.0085
74.25 -0.00753
74.3 -0.00719
74.35 -0.0022
74.4 0.00287
74.45 0.00822
74.5 0.01073
74.55 0.01269
74.6 0.01182
74.65 0.01367
74.7 0.0169
74.75 0.02193
74.8 0.02022
74.85 0.01767
74.9 0.0122
74.95 0.00401
75 0.00168
75.05 0.00185
75.1 -0.00275
75.15 -0.0069
75.2 -0.01119
75.25 -0.01699
75.3 -0.02305
75.35 -0.02414
75.4 -0.02298
75.45 -0.0248
75.5 -0.02584
75.55 -0.02436
75.6 -0.01722
75.65 -0.01423
75.7 -0.00979
75.75 -0.00785
75.8 -0.00407
75.85 0.00289
75.9 0.01069
75.95 0.0174
76 0.0217
76.05 0.02591
76.1 0.02762
76.15 0.02428
76.2 0.02243
76.25 0.01943
76.3 0.01445
76.35 0.01294
76.4 0.01342
76.45 0.01393
76.5 0.01023
76.55 0.00507
76.6 -0.00108
76.65 -0.00815
76.7 -0.01214
76.75 -0.01514
76.8 -0.01532
76.85 -0.01504
76.9 -0.011
76.95 -0.00538
77 0.00148
77.05 0.00943
77.1 0.01726
77.15 0.01984
77.2 0.02279
77.25 0.01801
77.3 0.01175
77.35 0.00404
77.4 -0.00484
77.45 -0.01359
77.5 -0.01914
77.55 -0.02055
77.6 -0.02084
77.65 -0.01692
77.7 -0.00964
77.75 0.00013
77.8 0.00586
77.85 0.00756
77.9 0.00351
77.95 0.00033
78 -0.00029
78.05 -0.00052
78.1 0.0007
78.15 0.00046
78.2 -0.00089
78.25 -0.00186
78.3 -0.00378
78.35 -0.00088
78.4 -0.00373
78.45 -0.00703
78.5 -0.01215
78.55 -0.01134
78.6 -0.01268
78.65 -0.01286
78.7 -0.01476
78.75 -0.01786
78.8 -0.0149
78.85 -0.01339
78.9 -0.00957
78.95 -0.00344
79 -0.00073
79.05 -0.00232
79.1 -0.00692
79.15 -0.01122
79.2 -0.01097
79.25 -0.00812
79.3 -0.00914
79.35 -0.01035
79.4 -0.0073
79.45 -0.0009
79.5 -0.00035
79.55 0.00235
79.6 0.0011
79.65 -0.00403
79.7 -0.005
79.75 -0.00163
79.8 -0.00044
79.85 0.00117
79.9 0.00534
79.95 0.00749
80 0.00507
80.05 -0.00114
80.1 -0.00201
80.15 0.0013
80.2 -0.00022
80.25 -0.0045
80.3 -0.00535
80.35 -0.00801
80.4 -0.00832
80.45 -0.00952
80.5 -0.01021
80.55 -0.00914
80.6 -0.00828
80.65 -0.00526
80.7 -0.0033
80.75 -0.00039
80.8 -0.00127
80.85 -0.00268
80.9 -0.00286
80.95 -0.00088
81 0.00298
81.05 0.00715
81.1 0.01077
81.15 0.01613
81.2 0.02026
81.25 0.02263
81.3 0.02673
81.35 0.031
81.4 0.03169
81.45 0.02696
81.5 0.01926
81.55 0.01341
81.6 0.01059
81.65 0.00759
81.7 0.00557
81.75 -0.00028
81.8 -0.00636
81.85 -0.00712
81.9 -0.00535
81.95 -0.00352
82 -0.00044
82.05 0.00535
82.1 0.01129
82.15 0.01667
82.2 0.01564
82.25 0.00894
82.3 0.00386
82.35 -0.0033
82.4 -0.00586
82.45 -0.00556
82.5 -0.0024
82.55 -0.00319
82.6 0.00038
82.65 0.00128
82.7 0.00283
82.75 0.00017
82.8 0.00224
82.85 0.00048
82.9 0.00034
82.95 -0.00437
83 -0.00866
83.05 -0.00971
83.1 -0.00749
83.15 -0.00589
83.2 -0.00206
83.25 -0.00137
83.3 0.00219
83.35 0.0038
83.4 0.00172
83.45 -0.00022
83.5 -0.00275
83.55 -0.00332
83.6 -0.00571
83.65 -0.00816
83.7 -0.01015
83.75 -0.00788
83.8 -0.00507
83.85 0.00042
83.9 0.00273
83.95 0.00172
84 -0.0011
84.05 -0.00633
84.1 -0.01045
84.15 -0.01349
84.2 -0.01141
84.25 -0.01322
84.3 -0.01631
84.35 -0.0125
84.4 -0.00921
84.45 -0.00271
84.5 0.00133
84.55 0.00463
84.6 0.00282
84.65 0.0051
84.7 0.00634
84.75 0.00209
84.8 -0.00502
84.85 -0.01174
84.9 -0.01224
84.95 -0.01516
85 -0.01803
85.05 -0.02045
85.1 -0.02231
85.15 -0.02199
85.2 -0.0171
85.25 -0.01148
85.3 -0.00545
85.35 -0.00457
85.4 -0.00494
85.45 -0.00182
85.5 0.00453
85.55 0.00404
85.6 0.00029
85.65 0.00221
85.7 0.00061
85.75 0.0005
85.8 -0.00207
85.85 0.00071
85.9 -0.00123
85.95 -0.00595
86 -0.00498
86.05 -0.00407
86.1 -0.00361
86.15 0.00114
86.2 0.00562
86.25 0.0045
86.3 0.00011
86.35 -0.00016
86.4 0.00212
86.45 0.00332
86.5 0.00504
86.55 0.0032
86.6 0.00075
86.65 0.00053
86.7 0.00191
86.75 -0.00021
86.8 0.00091
86.85 -0.00001
86.9 -0.00384
86.95 -0.00952
87 -0.00914
87.05 -0.0066
87.1 -0.00196
87.15 0.0024
87.2 0.00916
87.25 0.01003
87.3 0.01044
87.35 0.00567
87.4 0.00642
87.45 0.00246
87.5 0.00165
87.55 0.00022
87.6 -0.00105
87.65 0.00092
87.7 0.0001
87.75 -0.00105
87.8 -0.00163
87.85 -0.00315
87.9 -0.00834
87.95 -0.0129
88 -0.01536
88.05 -0.01284
88.1 -0.00579
88.15 0.00131
88.2 0.00775
88.25 0.01399
88.3 0.02049
88.35 0.02384
88.4 0.02227
88.45 0.02388
88.5 0.02555
88.55 0.02699
88.6 0.02325
88.65 0.01763
88.7 0.01146
88.75 0.00559
88.8 0.00007
88.85 -0.00618
88.9 -0.01252
88.95 -0.01246
89 -0.00857
89.05 -0.00555
89.1 -0.00026
89.15 0.00152
89.2 0.00681
89.25 0.00965
89.3 0.01058
89.35 0.00552
89.4 0.0048
89.45 0.00084
89.5 -0.00255
89.55 -0.0017
89.6 -0.00475
89.65 -0.0082
89.7 -0.00766
89.75 -0.01115
89.8 -0.01679
89.85 -0.01952
89.9 -0.02333
89.95 -0.02735
90 -0.02895
90.05 -0.02998
90.1 -0.0282
90.15 -0.02091
90.2 -0.019
90.25 -0.02048
90.3 -0.01647
90.35 -0.01513
90.4 -0.00852
90.45 -0.00522
90.5 -0.00063
90.55 0.00197
90.6 0.00658
90.65 0.01004
90.7 0.00821
90.75 0.00528
90.8 -0.00107
90.85 -0.0076
90.9 -0.0101
90.95 -0.00763
91 -0.00563
91.05 -0.00598
91.1 -0.00508
91.15 -0.0073
91.2 -0.00465
91.25 0.00195
91.3 0.00268
91.35 -0.00117
91.4 -0.00159
91.45 0.00121
91.5 -0.00058
91.55 0.00293
91.6 0.00706
91.65 0.00956
91.7 0.01408
91.75 0.01406
91.8 0.01176
91.85 0.00564
91.9 -0.00097
91.95 -0.00285
92 -0.007
92.05 -0.00733
92.1 -0.01016
92.15 -0.01339
92.2 -0.01332
92.25 -0.01037
92.3 -0.00639
92.35 -0.00037
92.4 -0.0005
92.45 -0.00106
92.5 -0.00234
92.55 -0.00491
92.6 -0.00996
92.65 -0.0145
92.7 -0.01366
92.75 -0.01102
92.8 -0.0104
92.85 -0.01312
92.9 -0.0107
92.95 -0.00916
93 -0.00674
93.05 -0.00256
93.1 0.00076
93.15 0.00393
93.2 0.00707
93.25 0.01328
93.3 0.016
93.35 0.01583
93.4 0.01307
93.45 0.01472
93.5 0.01832
93.55 0.01768
93.6 0.01584
93.65 0.01441
93.7 0.01633
93.75 0.01612
93.8 0.01133
93.85 0.00996
93.9 0.00731
93.95 0.0084
94 0.00643
94.05 0.00331
94.1 0.00379
94.15 -0.00027
94.2 -0.00038
94.25 0.0039
94.3 0.00405
94.35 0.00378
94.4 0.0036
94.45 0.00721
94.5 0.00854
94.55 0.01271
94.6 0.01368
94.65 0.00985
94.7 0.004
94.75 -0.00217
94.8 -0.00586
94.85 -0.00763
94.9 -0.005
94.95 -0.0062
95 -0.0037
95.05 0.0005
95.1 0.00225
95.15 0.00759
95.2 0.00874
95.25 0.01232
95.3 0.01785
95.35 0.01896
95.4 0.02034
95.45 0.02209
95.5 0.02359
95.55 0.02638
95.6 0.02376
95.65 0.01973
95.7 0.01819
95.75 0.01819
95.8 0.01951
95.85 0.02143
95.9 0.02501
95.95 0.02756
96 0.02726
96.05 0.02224
96.1 0.0175
96.15 0.014
96.2 0.01217
96.25 0.00519
96.3 -0.00469
96.35 -0.01435
96.4 -0.0157
96.45 -0.01863
96.5 -0.02055
96.55 -0.01625
96.6 -0.00825
96.65 -0.00464
96.7 -0.00449
96.75 -0.00435
96.8 -0.00388
96.85 -0.00304
96.9 -0.00666
96.95 -0.00748
97 -0.00962
97.05 -0.00755
97.1 -0.00618
97.15 -0.00838
97.2 -0.00964
97.25 -0.00869
97.3 -0.00645
97.35 -0.00369
97.4 0.00096
97.45 0.0031
97.5 0.00523
97.55 0.009
97.6 0.01039
97.65 0.00722
97.7 0.00344
97.75 0.00035
97.8 -0.00578
97.85 -0.01348
97.9 -0.01762
97.95 -0.021
98 -0.01805
98.05 -0.01145
98.1 -0.00237
98.15 0.00005
98.2 0.00579
98.25 0.00882
98.3 0.00974
98.35 0.00523
98.4 0.00251
98.45 0.0028
98.5 0.0023
98.55 0.00423
98.6 0.00547
98.65 0.00769
98.7 0.00622
98.75 0.00131
98.8 -0.00684
98.85 -0.01456
98.9 -0.0223
98.95 -0.02888
99 -0.02936
99.05 -0.02666
99.1 -0.02694
99.15 -0.02482
99.2 -0.02424
99.25 -0.01819
99.3 -0.01551
99.35 -0.01068
99.4 -0.00537
99.45 0.00295
99.5 0.00555
99.55 0.00377
99.6 -0.0003
99.65 -0.00653
99.7 -0.01398
99.75 -0.01798
99.8 -0.0163
99.85 -0.01149
99.9 -0.00615
99.95 0.00126
