0 0
0.05 0.00423
0.1 0.00777
0.15 0.01169
0.2 0.0192
0.25 0.02241
0.3 0.02692
0.35 0.02908
0.4 0.03532
0.45 0.04089
0.5 0.04115
0.55 0.03953
0.6 0.04018
0.65 0.04351
0.7 0.04782
0.75 0.05397
0.8 0.05872
0.85 0.05975
0.9 0.05836
0.95 0.05601
1 0.05643
1.05 0.05171
1.1 0.04478
1.15 0.03579
1.2 0.03388
1.25 0.03499
1.3 0.03485
1.35 0.03507
1.4 0.0334
1.45 0.03346
1.5 0.03094
1.55 0.02706
1.6 0.02735
1.65 0.0289
1.7 0.02976
1.75 0.02675
1.8 0.02707
1.85 0.02696
1.9 0.02639
1.95 0.02228
2 0.02173
2.05 0.01905
2.1 0.02091
2.15 0.02283
2.2 0.02588
2.25 0.02598
2.3 0.02396
2.35 0.02272
2.4 0.02244
2.45 0.02502
2.5 0.02816
2.55 0.03386
2.6 0.03957
2.65 0.04002
2.7 0.0357
2.75 0.02902
2.8 0.02789
2.85 0.02332
2.9 0.02265
2.95 0.01848
3 0.01221
3.05 0.01215
3.1 0.01565
3.15 0.01861
3.2 0.01754
3.25 0.02002
3.3 0.0188
3.35 0.02195
3.4 0.02339
3.45 0.02715
3.5 0.02733
3.55 0.02818
3.6 0.02728
3.65 0.02758
3.7 0.02376
3.75 0.01724
3.8 0.00966
3.85 0.00784
3.9 0.00933
3.95 0.01154
4 0.01327
4.05 0.01106
4.1 0.01322
4.15 0.01106
4.2 0.01186
4.25 0.0139
4.3 0.01212
4.35 0.01327
4.4 0.01535
4.45 0.01242
4.5 0.00616
4.55 0.00545
4.6 0.00802
4.65 0.00631
4.7 0.00834
4.75 0.00687
4.8 0.00111
4.85 -0.00024
4.9 -0.00037
4.95 -0.00419
5 -0.00719
5.05 -0.01306
5.1 -0.01769
5.15 -0.02204
5.2 -0.02973
5.25 -0.04058
5.3 -0.04862
5.35 -0.05356
5.4 -0.06102
5.45 -0.06983
5.5 -0.07389
5.55 -0.07723
5.6 -0.07925
5.65 -0.07951
5.7 -0.08109
5.75 -0.08286
5.8 -0.08294
5.85 -0.08337
5.9 -0.08228
5.95 -0.08132
6 -0.07535
6.05 -0.06549
6.1 -0.0521
6.15 -0.03796
6.2 -0.02004
6.25 -0.00633
6.3 0.01054
6.35 0.02502
6.4 0.04453
6.45 0.06667
6.5 0.08776
6.55 0.10918
6.6 0.12332
6.65 0.13372
6.7 0.14143
6.75 0.14367
6.8 0.14824
6.85 0.14675
6.9 0.14889
6.95 0.1465
7 0.14056
7.05 0.13467
7.1 0.12876
7.15 0.11701
7.2 0.10156
7.25 0.08948
7.3 0.07859
7.35 0.06344
7.4 0.05021
7.45 0.03876
7.5 0.0272
7.55 0.01696
7.6 0.0036
7.65 -0.00828
7.7 -0.0187
7.75 -0.02605
7.8 -0.03359
7.85 -0.03858
7.9 -0.04201
7.95 -0.04291
8 -0.04123
8.05 -0.03719
8.1 -0.03497
8.15 -0.0298
8.2 -0.0236
8.25 -0.01565
8.3 -0.01223
8.35 -0.01015
8.4 -0.01026
8.45 -0.01223
8.5 -0.00809
8.55 -0.00072
8.6 0.00514
8.65 0.00788
8.7 0.00903
8.75 0.01012
8.8 0.01577
8.85 0.02026
8.9 0.02583
8.95 0.03152
9 0.036
9.05 0.04202
9.1 0.04517
9.15 0.04957
9.2 0.05065
9.25 0.04705
9.3 0.04228
9.35 0.03902
9.4 0.03483
9.45 0.02748
9.5 0.01938
9.55 0.01673
9.6 0.01284
9.65 0.00817
9.7 0.009
9.75 0.00952
9.8 0.01195
9.85 0.01124
9.9 0.0066
9.95 0.00098
10 -0.0022
10.05 -0.00679
10.1 -0.00767
10.15 -0.01035
10.2 -0.00715
10.25 -0.00139
10.3 0.00095
10.35 0.00484
10.4 0.00361
10.45 -0.00076
10.5 -0.00336
10.55 -0.00872
10.6 -0.0084
10.65 -0.00874
10.7 -0.00798
10.75 -0.00351
10.8 -0.00343
10.85 -0.00703
10.9 -0.0051
10.95 -0.00331
11 -0.00122
11.05 0.00053
11.1 0.00467
11.15 0.00506
11.2 0.00712
11.25 0.00581
11.3 0.00292
11.35 -0.00301
11.4 -0.01058
11.45 -0.01381
11.5 -0.01901
11.55 -0.02377
11.6 -0.02757
11.65 -0.02723
11.7 -0.02346
11.75 -0.0186
11.8 -0.01062
11.85 -0.00312
11.9 0.00195
11.95 0.00763
12 0.0083
12.05 0.00953
12.1 0.00942
12.15 0.00782
12.2 0.00923
12.25 0.01235
12.3 0.00965
12.35 0.00547
12.4 0.0002
12.45 -0.00101
12.5 -0.00526
12.55 -0.00466
12.6 -0.00099
12.65 0.00086
12.7 0.00069
12.75 0.00353
12.8 0.00406
12.85 0.00387
12.9 0.00258
12.95 0.00155
13 0.00226
13.05 0.00423
13.1 0.00508
13.15 0.00569
13.2 0.00475
13.25 0.00317
13.3 0.00407
13.35 0.00675
13.4 0.01121
13.45 0.01146
13.5 0.00679
13.55 0.00181
13.6 -0.003
13.65 -0.0052
13.7 -0.00398
13.75 -0.00623
13.8 -0.01037
13.85 -0.01525
13.9 -0.02095
13.95 -0.01934
14 -0.02064
14.05 -0.01983
14.1 -0.02126
14.15 -0.02472
14.2 -0.02739
14.25 -0.02543
14.3 -0.02403
14.35 -0.0254
14.4 -0.02261
14.45 -0.01777
14.5 -0.016
14.55 -0.01021
14.6 -0.00657
14.65 -0.00426
14.7 -0.00318
14.75 -0.0002
14.8 0.00301
14.85 0.00223
14.9 -0.00113
14.95 -0.00383
15 -0.00785
15.05 -0.00956
15.1 -0.00751
15.15 -0.0048
15.2 -0.00339
15.25 0.00156
15.3 0.00361
15.35 0.00332
15.4 0.00024
15.45 -0.00012
15.5 -0.00436
15.55 -0.00957
15.6 -0.01367
15.65 -0.0154
15.7 -0.01323
15.75 -0.00895
15.8 -0.00448
15.85 -0.00213
15.9 -0.00032
15.95 0.00086
16 0.001
16.05 -0.00187
16.1 -0.00049
16.15 0.00024
16.2 -0.00213
16.25 -0.00275
16.3 0.00087
16.35 0.00035
16.4 0.00356
16.45 0.00399
16.5 0.00213
16.55 -0.00218
16.6 -0.00824
16.65 -0.01131
16.7 -0.00859
16.75 -0.00505
16.8 -0.00324
16.85 -0.00095
16.9 0.00227
16.95 0.00788
17 0.00756
17.05 0.00717
17.1 0.00681
17.15 0.00626
17.2 0.00309
17.25 -0.00093
17.3 -0.0014
17.35 -0.00362
17.4 -0.00526
17.45 -0.00305
17.5 -0.00136
17.55 0.00309
17.6 0.00299
17.65 0.00348
17.7 0.00262
17.75 0.00573
17.8 0.00781
17.85 0.00728
17.9 0.00307
17.95 -0.00324
18 -0.00778
18.05 -0.00974
18.1 -0.00624
18.15 -0.00201
18.2 -0.00145
18.25 -0.00012
18.3 -0.001
18.35 -0.00393
18.4 -0.00411
18.45 -0.00504
18.5 -0.00396
18.55 -0.00324
18.6 -0.00397
18.65 -0.00692
18.7 -0.00985
18.75 -0.01383
18.8 -0.01433
18.85 -0.01258
18.9 -0.01057
18.95 -0.00854
19 -0.00357
19.05 0.00076
19.1 0.00627
19.15 0.01079
19.2 0.0107
19.25 0.01112
19.3 0.01218
19.35 0.00926
19.4 0.0036
19.45 0.00159
19.5 0.00311
19.55 0.00113
19.6 -0.00347
19.65 -0.00548
19.7 -0.00321
19.75 -0.00175
19.8 0.00017
19.85 0.00524
19.9 0.00562
19.95 0.00678
20 0.00715
20.05 0.00643
20.1 0.00692
20.15 0.00335
20.2 0.0007
20.25 -0.0018
20.3 -0.00083
20.35 0.00133
20.4 -0.00006
20.45 0.00076
20.5 0.00421
20.55 0.00468
20.6 0.00596
20.65 0.00946
20.7 0.00736
20.75 0.00843
20.8 0.01117
20.85 0.00807
20.9 0.00588
20.95 0.00499
21 0.00549
21.05 0.00208
21.1 0.003
21.15 0.00179
21.2 0.00381
21.25 0.00684
21.3 0.01055
21.35 0.01317
21.4 0.01653
21.45 0.0179
21.5 0.01472
21.55 0.00902
21.6 0.00831
21.65 0.00424
21.7 -0.0018
21.75 -0.00814
21.8 -0.01
21.85 -0.01449
21.9 -0.01318
21.95 -0.01472
22 -0.01672
22.05 -0.01581
22.1 -0.01282
22.15 -0.00935
22.2 -0.00778
22.25 -0.00775
22.3 -0.00399
22.35 0.00239
22.4 0.00654
22.45 0.01113
22.5 0.01371
22.55 0.01518
22.6 0.01439
22.65 0.01174
22.7 0.00979
22.75 0.01123
22.8 0.01226
22.85 0.01254
22.9 0.01326
22.95 0.01273
23 0.00739
23.05 0.00412
23.1 0.00312
23.15 0.00109
23.2 0.0018
23.25 0.00428
23.3 0.00905
23.35 0.01406
23.4 0.01978
23.45 0.01812
23.5 0.01257
23.55 0.00634
23.6 0.00143
23.65 -0.00429
23.7 -0.00585
23.75 -0.0054
23.8 -0.00741
23.85 -0.00699
23.9 -0.00753
23.95 -0.00403
24 0.00156
24.05 0.00091
24.1 -0.00024
24.15 -0.00093
24.2 0.00212
24.25 0.00054
24.3 -0.00449
24.35 -0.00923
24.4 -0.00821
24.45 -0.0065
24.5 -0.00334
24.55 -0.00481
24.6 -0.00602
24.65 -0.00385
24.7 0.00077
24.75 0.00539
24.8 0.01011
24.85 0.01459
24.9 0.01574
24.95 0.01764
25 0.02093
25.05 0.02483
25.1 0.028
25.15 0.02647
25.2 0.01993
25.25 0.01732
25.3 0.00979
25.35 0.0077
25.4 0.00153
25.45 -0.00564
25.5 -0.0089
25.55 -0.00915
25.6 -0.00951
25.65 -0.00945
25.7 -0.00944
25.75 -0.01107
25.8 -0.01245
25.85 -0.00888
25.9 -0.00583
25.95 -0.00623
26 -0.00625
26.05 -0.00733
26.1 -0.00874
26.15 -0.00752
26.2 -0.00426
26.25 -0.00256
26.3 -0.00542
26.35 -0.00383
26.4 -0.00285
26.45 -0.00368
26.5 -0.00348
26.55 -0.00232
26.6 0.00126
26.65 0.00176
26.7 0.00436
26.75 0.00659
26.8 0.00571
26.85 0.00244
26.9 -0.00304
26.95 -0.00784
27 -0.00776
27.05 -0.00455
27.1 -0.0002
27.15 0.00326
27.2 0.00703
27.25 0.01065
27.3 0.0091
27.35 0.00275
27.4 -0.00407
27.45 -0.00964
27.5 -0.01531
27.55 -0.01531
27.6 -0.01584
27.65 -0.02024
27.7 -0.02529
27.75 -0.0294
27.8 -0.03304
27.85 -0.03937
27.9 -0.04163
27.95 -0.04394
28 -0.0471
28.05 -0.05201
28.1 -0.0643
28.15 -0.07586
28.2 -0.09048
28.25 -0.1094
28.3 -0.1304
28.35 -0.15751
28.4 -0.1873
28.45 -0.21825
28.5 -0.25221
28.55 -0.29249
28.6 -0.33745
28.65 -0.39283
28.7 -0.45162
28.75 -0.51655
28.8 -0.59058
28.85 -0.66743
28.9 -0.74671
28.95 -0.83186
29 -0.92321
29.05 -1.01442
29.1 -1.11199
29.15 -1.21152
29.2 -1.31221
29.25 -1.41646
29.3 -1.52298
29.35 -1.62651
29.4 -1.72412
29.45 -1.81709
29.5 -1.90344
29.55 -1.98128
29.6 -2.05045
29.65 -2.11265
29.7 -2.16843
29.75 -2.21909
29.8 -2.25888
29.85 -2.29046
29.9 -2.30575
29.95 -2.30864
30 -2.30074
30.05 -2.28158
30.1 -2.24652
30.15 -2.19455
30.2 -2.12841
30.25 -2.04669
30.3 -1.95149
30.35 -1.84803
30.4 -1.73438
30.45 -1.61477
30.5 -1.48773
30.55 -1.3544
30.6 -1.21093
30.65 -1.06398
30.7 -0.91797
30.75 -0.76638
30.8 -0.61575
30.85 -0.46091
30.9 -0.30323
30.95 -0.14598
31 0.00686
31.05 0.15251
31.1 0.29524
31.15 0.43401
31.2 0.56607
31.25 0.6934
31.3 0.81811
31.35 0.93789
31.4 1.05267
31.45 1.1617
31.5 1.26023
31.55 1.35075
31.6 1.43083
31.65 1.50504
31.7 1.56941
31.75 1.62876
31.8 1.68387
31.85 1.72969
31.9 1.76856
31.95 1.8024
32 1.82861
32.05 1.8542
32.1 1.87278
32.15 1.88744
32.2 1.90186
32.25 1.91003
32.3 1.91181
32.35 1.91134
32.4 1.91291
32.45 1.91127
32.5 1.90723
32.55 1.8996
32.6 1.89209
32.65 1.88455
32.7 1.87116
32.75 1.85302
32.8 1.83964
32.85 1.82567
32.9 1.80583
32.95 1.7837
33 1.7608
33.05 1.73852
33.1 1.7127
33.15 1.68706
33.2 1.65976
33.25 1.63234
33.3 1.60619
33.35 1.57686
33.4 1.54198
33.45 1.50851
33.5 1.47308
33.55 1.43404
33.6 1.3944
33.65 1.35588
33.7 1.31695
33.75 1.27745
33.8 1.23506
33.85 1.18972
33.9 1.1453
33.95 1.10391
34 1.06391
34.05 1.01891
34.1 0.97225
34.15 0.9234
34.2 0.87202
34.25 0.82175
34.3 0.77223
34.35 0.72939
34.4 0.69145
34.45 0.65669
34.5 0.62367
34.55 0.58577
34.6 0.54746
34.65 0.51027
34.7 0.4705
34.75 0.43083
34.8 0.38946
34.85 0.34628
34.9 0.31039
34.95 0.27292
35 0.23897
35.05 0.21032
35.1 0.18499
35.15 0.15583
35.2 0.12352
35.25 0.08946
35.3 0.06248
35.35 0.03989
35.4 0.01945
35.45 -0.00113
35.5 -0.02183
35.55 -0.04419
35.6 -0.06813
35.65 -0.09348
35.7 -0.11481
35.75 -0.13612
35.8 -0.15302
35.85 -0.16499
35.9 -0.17292
35.95 -0.18357
36 -0.19289
36.05 -0.20499
36.1 -0.21757
36.15 -0.22745
36.2 -0.24016
36.25 -0.24817
36.3 -0.25909
36.35 -0.27151
36.4 -0.27797
36.45 -0.2847
36.5 -0.2926
36.55 -0.30036
36.6 -0.30456
36.65 -0.31122
36.7 -0.31263
36.75 -0.31381
36.8 -0.31906
36.85 -0.3222
36.9 -0.32266
36.95 -0.32495
37 -0.327
37.05 -0.32528
37.1 -0.32676
37.15 -0.3306
37.2 -0.33176
37.25 -0.33378
37.3 -0.33052
37.35 -0.32821
37.4 -0.32777
37.45 -0.32453
37.5 -0.32152
37.55 -0.3146
37.6 -0.3071
37.65 -0.30288
37.7 -0.296
37.75 -0.29132
37.8 -0.29091
37.85 -0.28979
37.9 -0.28568
37.95 -0.282
38 -0.28266
38.05 -0.28311
38.1 -0.27975
38.15 -0.27988
38.2 -0.27989
38.25 -0.28062
38.3 -0.27959
38.35 -0.27998
38.4 -0.27575
38.45 -0.27261
38.5 -0.27089
38.55 -0.26563
38.6 -0.26317
38.65 -0.25902
38.7 -0.25719
38.75 -0.25344
38.8 -0.24651
38.85 -0.23713
38.9 -0.23278
38.95 -0.22489
39 -0.21529
39.05 -0.20876
39.1 -0.20554
39.15 -0.2004
39.2 -0.19877
39.25 -0.19434
39.3 -0.19044
39.35 -0.18949
39.4 -0.18496
39.45 -0.18333
39.5 -0.18213
39.55 -0.18058
39.6 -0.1824
39.65 -0.17944
39.7 -0.1803
39.75 -0.17946
39.8 -0.17482
39.85 -0.17371
39.9 -0.17418
39.95 -0.17593
40 -0.17783
40.05 -0.17774
40.1 -0.17184
40.15 -0.16705
40.2 -0.16206
40.25 -0.15592
40.3 -0.15308
40.35 -0.14849
40.4 -0.14146
40.45 -0.13479
40.5 -0.12951
40.55 -0.12842
40.6 -0.12447
40.65 -0.1206
40.7 -0.11654
40.75 -0.11546
40.8 -0.11573
40.85 -0.11729
40.9 -0.11869
40.95 -0.12288
41 -0.12717
41.05 -0.13143
41.1 -0.13379
41.15 -0.13669
41.2 -0.13399
41.25 -0.12674
41.3 -0.12415
41.35 -0.12173
41.4 -0.11525
41.45 -0.1099
41.5 -0.10439
41.55 -0.10397
41.6 -0.10525
41.65 -0.10291
41.7 -0.09716
41.75 -0.08923
41.8 -0.08755
41.85 -0.08362
41.9 -0.08263
41.95 -0.08006
42 -0.07923
42.05 -0.0778
42.1 -0.07983
42.15 -0.08394
42.2 -0.08244
42.25 -0.07886
42.3 -0.07422
42.35 -0.07076
42.4 -0.0706
42.45 -0.07404
42.5 -0.07896
42.55 -0.07977
42.6 -0.07843
42.65 -0.08086
42.7 -0.08247
42.75 -0.08479
42.8 -0.08792
42.85 -0.08587
42.9 -0.0811
42.95 -0.07277
43 -0.06444
43.05 -0.06003
43.1 -0.05958
43.15 -0.0596
43.2 -0.06107
43.25 -0.0634
43.3 -0.06296
43.35 -0.06029
43.4 -0.06152
43.45 -0.06294
43.5 -0.06266
43.55 -0.06403
43.6 -0.06095
43.65 -0.05811
43.7 -0.0594
43.75 -0.05822
43.8 -0.05802
43.85 -0.05583
43.9 -0.05331
43.95 -0.04954
44 -0.05061
44.05 -0.05323
44.1 -0.05139
44.15 -0.04658
44.2 -0.04353
44.25 -0.04029
44.3 -0.04166
44.35 -0.04639
44.4 -0.0477
44.45 -0.04525
44.5 -0.0402
44.55 -0.0366
44.6 -0.03042
44.65 -0.02569
44.7 -0.02578
44.75 -0.02437
44.8 -0.02403
44.85 -0.02116
44.9 -0.01683
44.95 -0.01794
45 -0.01597
45.05 -0.0148
45.1 -0.01556
45.15 -0.01676
45.2 -0.02126
45.25 -0.02751
45.3 -0.03445
45.35 -0.03871
45.4 -0.03718
45.45 -0.03589
45.5 -0.03538
45.55 -0.03622
45.6 -0.03531
45.65 -0.0372
45.7 -0.03979
45.75 -0.0436
45.8 -0.04455
45.85 -0.04165
45.9 -0.03804
45.95 -0.03821
46 -0.03661
46.05 -0.03059
46.1 -0.02289
46.15 -0.01763
46.2 -0.01071
46.25 -0.00799
46.3 -0.00731
46.35 -0.00687
46.4 -0.006
46.45 -0.00551
46.5 -0.00748
46.55 -0.00626
46.6 -0.01048
46.65 -0.01571
46.7 -0.02157
46.75 -0.02504
46.8 -0.02845
46.85 -0.03242
46.9 -0.03799
46.95 -0.03937
47 -0.03623
47.05 -0.03024
47.1 -0.02572
47.15 -0.02144
47.2 -0.01803
47.25 -0.01626
47.3 -0.01786
47.35 -0.01954
47.4 -0.02089
47.45 -0.02297
47.5 -0.02215
47.55 -0.01852
47.6 -0.01549
47.65 -0.01042
47.7 -0.01054
47.75 -0.01051
47.8 -0.01306
47.85 -0.015
47.9 -0.01529
47.95 -0.01223
48 -0.00752
48.05 -0.00286
48.1 -0.00019
48.15 -0.00017
48.2 -0.00427
48.25 -0.00677
48.3 -0.00515
48.35 -0.0027
48.4 0.0007
48.45 -0.00206
48.5 -0.00858
48.55 -0.01702
48.6 -0.02176
48.65 -0.02197
48.7 -0.02344
48.75 -0.02138
48.8 -0.01551
48.85 -0.01061
48.9 -0.01137
48.95 -0.01081
49 -0.01389
49.05 -0.01865
49.1 -0.01883
49.15 -0.01906
49.2 -0.01882
49.25 -0.01404
49.3 -0.01375
49.35 -0.0095
49.4 -0.00818
49.45 -0.00886
49.5 -0.01341
49.55 -0.01616
49.6 -0.01542
49.65 -0.01472
49.7 -0.01617
49.75 -0.01726
49.8 -0.01492
49.85 -0.01653
49.9 -0.01927
49.95 -0.01901
50 -0.01487
50.05 -0.01352
50.1 -0.01581
50.15 -0.01362
50.2 -0.01208
50.25 -0.01055
50.3 -0.00794
50.35 -0.00442
50.4 0.00064
50.45 0.00109
50.5 0.00273
50.55 0.00297
50.6 0.00045
50.65 0.00016
50.7 -0.00285
50.75 -0.00287
50.8 -0.00323
50.85 -0.00676
50.9 -0.00965
50.95 -0.01269
51 -0.01226
51.05 -0.0127
51.1 -0.00952
51.15 -0.01101
51.2 -0.00786
51.25 -0.00464
51.3 -0.00127
51.35 -0.00082
51.4 -0.00064
51.45 0.00071
51.5 -0.00065
51.55 -0.00024
51.6 0.00043
51.65 0.00023
51.7 -0.00142
51.75 -0.0005
51.8 -0.0002
51.85 -0.00295
51.9 -0.00678
51.95 -0.01191
52 -0.01298
52.05 -0.01285
52.1 -0.00946
52.15 -0.00527
52.2 -0.00106
52.25 0.00033
52.3 0.00232
52.35 0.00603
52.4 0.00829
52.45 0.00712
52.5 0.00529
52.55 0.00551
52.6 0.00318
52.65 -0.00198
52.7 -0.00354
52.75 -0.00572
52.8 -0.00286
52.85 0.00217
52.9 0.00693
52.95 0.00684
53 0.00623
53.05 0.00804
53.1 0.01207
53.15 0.01516
53.2 0.01428
53.25 0.01442
53.3 0.01226
53.35 0.0077
53.4 0.00658
53.45 0.00742
53.5 0.00871
53.55 0.01005
53.6 0.00674
53.65 0.00676
53.7 0.00845
53.75 0.00671
53.8 0.00157
53.85 -0.00254
53.9 -0.00743
53.95 -0.0122
54 -0.01847
54.05 -0.02017
54.1 -0.0164
54.15 -0.011
54.2 -0.00659
54.25 -0.0062
54.3 -0.00318
54.35 -0.00278
54.4 -0.00003
54.45 -0.00232
54.5 -0.00216
54.55 -0.00095
54.6 -0.00107
54.65 -0.00376
54.7 -0.0064
54.75 -0.0051
54.8 -0.0014
54.85 -0.00029
54.9 0.00103
54.95 -0.0026
55 -0.00608
55.05 -0.00717
55.1 -0.00717
55.15 -0.00678
55.2 -0.00811
55.25 -0.01243
55.3 -0.01832
55.35 -0.02142
55.4 -0.02559
55.45 -0.02904
55.5 -0.03223
55.55 -0.03581
55.6 -0.03669
55.65 -0.03311
55.7 -0.02427
55.75 -0.01292
55.8 -0.0021
55.85 0.00793
55.9 0.01119
55.95 0.01626
56 0.01694
56.05 0.01545
56.1 0.01297
56.15 0.01396
56.2 0.01162
56.25 0.01164
56.3 0.00759
56.35 0.00736
56.4 0.00729
56.45 0.006
56.5 0.00308
56.55 -0.00142
56.6 -0.00305
56.65 -0.00356
56.7 -0.0075
56.75 -0.00661
56.8 -0.00421
56.85 0.00135
56.9 0.00158
56.95 -0.00255
57 -0.00867
57.05 -0.01505
57.1 -0.02079
57.15 -0.02341
57.2 -0.02552
57.25 -0.02353
57.3 -0.01628
57.35 -0.0105
57.4 -0.00446
57.45 -0.00083
57.5 0.00117
57.55 0.00525
57.6 0.00767
57.65 0.01159
57.7 0.01009
57.75 0.0104
57.8 0.00636
57.85 0.00488
57.9 0.00549
57.95 0.00226
58 0.00211
58.05 -0.00059
58.1 -0.00431
58.15 -0.00446
58.2 -0.00769
58.25 -0.01258
58.3 -0.01451
58.35 -0.01716
58.4 -0.02053
58.45 -0.02053
58.5 -0.01831
58.55 -0.01871
58.6 -0.02065
58.65 -0.01873
58.7 -0.01839
58.75 -0.01491
58.8 -0.01379
58.85 -0.01039
58.9 -0.00605
58.95 -0.00406
59 0.00111
59.05 0.00468
59.1 0.00682
59.15 0.00876
59.2 0.00872
59.25 0.00931
59.3 0.01102
59.35 0.01369
59.4 0.01214
59.45 0.01082
59.5 0.00765
59.55 0.00273
59.6 -0.00442
59.65 -0.00921
59.7 -0.01544
59.75 -0.0147
59.8 -0.01497
59.85 -0.01628
59.9 -0.01305
59.95 -0.01105
60 -0.00999
60.05 -0.01142
60.1 -0.00918
60.15 -0.01033
60.2 -0.01011
60.25 -0.01224
60.3 -0.0155
60.35 -0.01826
60.4 -0.02209
60.45 -0.02413
60.5 -0.0196
60.55 -0.01831
60.6 -0.01666
60.65 -0.01128
60.7 -0.0043
60.75 0.00439
60.8 0.01121
60.85 0.01815
60.9 0.01966
60.95 0.02216
61 0.02106
61.05 0.02087
61.1 0.01881
61.15 0.01448
61.2 0.01422
61.25 0.01584
61.3 0.01875
61.35 0.01518
61.4 0.01274
61.45 0.01178
61.5 0.01417
61.55 0.01109
61.6 0.00487
61.65 0.00026
61.7 -0.00013
61.75 -0.00077
61.8 -0.00122
61.85 -0.00302
61.9 -0.00384
61.95 -0.00397
62 -0.00274
62.05 0.00215
62.1 0.00675
62.15 0.01183
62.2 0.01265
62.25 0.01514
62.3 0.01495
62.35 0.01377
62.4 0.00914
62.45 0.00204
62.5 0.00125
62.55 -0.00293
62.6 -0.00539
62.65 -0.00763
62.7 -0.00944
62.75 -0.0103
62.8 -0.01173
62.85 -0.01377
62.9 -0.01038
62.95 -0.00468
63 -0.00152
63.05 0.00235
63.1 0.00261
63.15 0.00434
63.2 0.00427
63.25 0.00773
63.3 0.00842
63.35 0.00934
63.4 0.0127
63.45 0.01435
63.5 0.01309
63.55 0.00803
63.6 0.00116
63.65 -0.003
63.7 -0.00678
63.75 -0.00888
63.8 -0.00573
63.85 -0.00458
63.9 -0.00667
63.95 -0.0067
64 -0.00995
64.05 -0.00777
64.1 -0.00404
64.15 -0.00163
64.2 -0.00136
64.25 0.00237
64.3 0.00385
64.35 0.00324
64.4 0.00663
64.45 0.00784
64.5 0.00666
64.55 0.0046
64.6 0.00445
64.65 0.00413
64.7 0.00207
64.75 -0.00195
64.8 -0.00673
64.85 -0.01248
64.9 -0.01216
64.95 -0.0135
65 -0.01503
65.05 -0.01273
65.1 -0.01238
65.15 -0.01443
65.2 -0.01494
65.25 -0.01031
65.3 -0.00482
65.35 -0.00457
65.4 -0.00663
65.45 -0.00828
65.5 -0.00717
65.55 -0.00676
65.6 -0.00399
65.65 -0.00352
65.7 0.00013
65.75 0.00388
65.8 0.00872
65.85 0.01437
65.9 0.01766
65.95 0.01617
66 0.01779
66.05 0.01957
66.1 0.02278
66.15 0.02064
66.2 0.02096
66.25 0.01972
66.3 0.01928
66.35 0.01549
66.4 0.00845
66.45 -0.0004
66.5 -0.00532
66.55 -0.01169
66.6 -0.01308
66.65 -0.01328
66.7 -0.0135
66.75 -0.01364
66.8 -0.01199
66.85 -0.01236
66.9 -0.01339
66.95 -0.01302
67 -0.01143
67.05 -0.0117
67.1 -0.01255
67.15 -0.01597
67.2 -0.01715
67.25 -0.01507
67.3 -0.01443
67.35 -0.00934
67.4 -0.009
67.45 -0.00577
67.5 -0.00241
67.55 0.00408
67.6 0.00716
67.65 0.00892
67.7 0.00571
67.75 0.0027
67.8 -0
67.85 -0.00073
67.9 0.00093
67.95 -0.00186
68 -0.00427
68.05 -0.00355
68.1 -0.00113
68.15 -0.0005
68.2 0.00155
68.25 0.00556
68.3 0.00656
68.35 0.00808
68.4 0.01047
68.45 0.01311
68.5 0.01542
68.55 0.01624
68.6 0.01648
68.65 0.01266
68.7 0.01258
68.75 0.01288
68.8 0.01538
68.85 0.01647
68.9 0.01533
68.95 0.0122
69 0.0067
69.05 0.00015
69.1 -0.00143
69.15 -0.0013
69.2 -0.00337
69.25 -0.00818
69.3 -0.01083
69.35 -0.01209
69.4 -0.01309
69.45 -0.01274
69.5 -0.01517
69.55 -0.01521
69.6 -0.01497
69.65 -0.01127
69.7 -0.00557
69.75 -0.00409
69.8 -0.00237
69.85 -0.00322
69.9 -0.0003
69.95 0.00125
70 0.00092
70.05 0.00274
70.1 0.00264
70.15 -0.00075
70.2 -0.00261
70.25 -0.00166
70.3 0.00105
70.35 0.00582
70.4 0.00605
70.45 0.00664
70.5 0.00437
70.55 0.00352
70.6 -0.00067
70.65 -0.0025
70.7 0.00062
70.75 0.00637
70.8 0.01316
70.85 0.01786
70.9 0.02298
70.95 0.02712
71 0.0308
71.05 0.03233
71.1 0.02875
71.15 0.02724
71.2 0.02762
71.25 0.02345
71.3 0.01658
71.35 0.01253
71.4 0.0094
71.45 0.00566
71.5 0.00462
71.55 0.00181
71.6 -0.0014
71.65 -0.00693
71.7 -0.01075
71.75 -0.01329
71.8 -0.01358
71.85 -0.00939
71.9 -0.00945
71.95 -0.01193
72 -0.0087
72.05 -0.0091
72.1 -0.00974
72.15 -0.01069
72.2 -0.0103
72.25 -0.00822
72.3 -0.00544
72.35 -0.00367
72.4 -0.00256
72.45 -0.00391
72.5 -0.00383
72.55 -0.00474
72.6 -0.00411
72.65 -0.00264
72.7 -0.00284
72.75 -0.00267
72.8 -0.00303
72.85 -0.00561
72.9 -0.00676
72.95 -0.00461
73 -0.00528
73.05 -0.0024
73.1 -0.00279
73.15 -0.00303
73.2 -0.00649
73.25 -0.01056
73.3 -0.00856
73.35 -0.00278
73.4 0.00018
73.45 -0.00124
73.5 -0.00092
73.55 0.00172
73.6 0.0065
73.65 0.01267
73.7 0.0166
73.75 0.01796
73.8 0.01586
73.85 0.01277
73.9 0.00554
73.95 0.00043
74 -0.00279
74.05 -0.00398
74.1 -0.00213
74.15 -0.00317
74.2 -0.0076
74.25 -0.01044
74.3 -0.01449
74.35 -0.01616
74.4 -0.01628
74.45 -0.01545
74.5 -0.01198
74.55 -0.01082
74.6 -0.01037
74.65 -0.01062
74.7 -0.01041
74.75 -0.00903
74.8 -0.00571
74.85 -0.00427
74.9 -0.0037
74.95 -0.00369
75 -0.00566
75.05 -0.00458
75.1 -0.00321
75.15 -0.00505
75.2 -0.00771
75.25 -0.00732
75.3 -0.01049
75.35 -0.01124
75.4 -0.01245
75.45 -0.01032
75.5 -0.00873
75.55 -0.00492
75.6 0.00203
75.65 0.00666
75.7 0.00714
75.75 0.00916
75.8 0.01075
75.85 0.00775
75.9 0.0055
75.95 0.0022
76 -0.00021
76.05 -0.00535
76.1 -0.00758
76.15 -0.01171
76.2 -0.0153
76.25 -0.0142
76.3 -0.01352
76.35 -0.01096
76.4 -0.00636
76.45 -0.00568
76.5 -0.00621
76.55 -0.00405
76.6 -0.00367
76.65 -0.0027
76.7 -0.00444
76.75 -0.00312
76.8 0.00198
76.85 0.00539
76.9 0.00481
76.95 0.0055
77 0.00585
77.05 0.00231
77.1 -0.00056
77.15 -0.0001
77.2 0.00226
77.25 0.00712
77.3 0.00797
77.35 0.00566
77.4 0.00739
77.45 0.01093
77.5 0.01339
77.55 0.01022
77.6 0.00471
77.65 0.00096
77.7 -0.00134
77.75 -0.00341
77.8 -0.00564
77.85 -0.00863
77.9 -0.00882
77.95 -0.00806
78 -0.00948
78.05 -0.01144
78.1 -0.01443
78.15 -0.01381
78.2 -0.0094
78.25 -0.00161
78.3 0.00742
78.35 0.00899
78.4 0.01112
78.45 0.0116
78.5 0.01088
78.55 0.01338
78.6 0.01088
78.65 0.00445
78.7 0.00144
78.75 -0.00435
78.8 -0.00696
78.85 -0.01192
78.9 -0.0147
78.95 -0.01277
79 -0.00659
79.05 -0.00372
79.1 -0.00373
79.15 -0.00459
79.2 -0.00612
79.25 -0.00579
79.3 -0.0082
79.35 -0.00528
79.4 -0.00249
79.45 0.00009
79.5 -0.00214
79.55 -0.00402
79.6 -0.0071
79.65 -0.00846
79.7 -0.00688
79.75 -0.00564
79.8 -0.00192
79.85 0.00436
79.9 0.00825
79.95 0.00899
80 0.00787
80.05 0.00739
80.1 0.00736
80.15 0.00464
80.2 0.00622
80.25 0.0081
80.3 0.01003
80.35 0.00724
80.4 0.00513
80.45 0.00072
80.5 -0.00476
80.55 -0.01179
80.6 -0.01262
80.65 -0.01063
80.7 -0.0083
80.75 -0.00987
80.8 -0.0072
80.85 -0.00754
80.9 -0.00613
80.95 -0.00363
81 -0.00046
81.05 0.00239
81.1 0.00733
81.15 0.01025
81.2 0.0076
81.25 0.0087
81.3 0.00692
81.35 0.00772
81.4 0.00615
81.45 0.00418
81.5 0.00562
81.55 0.00801
81.6 0.01073
81.65 0.01073
81.7 0.00608
81.75 0.00061
81.8 -0.00186
81.85 -0.00645
81.9 -0.01266
81.95 -0.01189
82 -0.01237
82.05 -0.01064
82.1 -0.01124
82.15 -0.01237
82.2 -0.01137
82.25 -0.01032
82.3 -0.01233
82.35 -0.00976
82.4 -0.01085
82.45 -0.01062
82.5 -0.00626
82.55 -0.0032
82.6 -0.00465
82.65 -0.00735
82.7 -0.00432
82.75 -0.00353
82.8 -0.00651
82.85 -0.00801
82.9 -0.0072
82.95 -0.00957
83 -0.01195
83.05 -0.00828
83.1 -0.00781
83.15 -0.00651
83.2 -0.00642
83.25 -0.00233
83.3 0.00152
83.35 0.00263
83.4 -0.00025
83.45 0.00111
83.5 0.00525
83.55 0.00902
83.6 0.01399
83.65 0.01742
83.7 0.01796
83.75 0.01888
83.8 0.01802
83.85 0.01979
83.9 0.01563
83.95 0.0103
84 0.00457
84.05 0.00099
84.1 -0.0008
84.15 -0.00011
84.2 0.00198
84.25 0.00278
84.3 0.00262
84.35 0.00238
84.4 0.00606
84.45 0.00905
84.5 0.0116
84.55 0.0132
84.6 0.01635
84.65 0.02007
84.7 0.02059
84.75 0.02197
84.8 0.02239
84.85 0.02081
84.9 0.01432
84.95 0.01296
85 0.01372
85.05 0.01269
85.1 0.0106
85.15 0.00762
85.2 0.00811
85.25 0.01139
85.3 0.01619
85.35 0.01557
85.4 0.01246
85.45 0.01026
85.5 0.00957
85.55 0.00546
85.6 0.00374
85.65 0.00436
85.7 0.00282
85.75 -0.00075
85.8 -0.00454
85.85 -0.00504
85.9 -0.00838
85.95 -0.00638
86 -0.00145
86.05 0.00159
86.1 0.00634
86.15 0.01019
86.2 0.01484
86.25 0.01955
86.3 0.02425
86.35 0.0254
86.4 0.02586
86.45 0.02326
86.5 0.01706
86.55 0.00829
86.6 -0.00071
86.65 -0.00547
86.7 -0.01132
86.75 -0.01346
86.8 -0.0145
86.85 -0.01575
86.9 -0.01541
86.95 -0.01142
87 -0.01128
87.05 -0.01368
87.1 -0.01707
87.15 -0.01642
87.2 -0.01743
87.25 -0.02048
87.3 -0.01904
87.35 -0.0189
87.4 -0.01361
87.45 -0.00923
87.5 -0.00895
87.55 -0.01042
87.6 -0.00832
87.65 -0.00258
87.7 0.00249
87.75 0.00354
87.8 0.00602
87.85 0.00469
87.9 -0.0002
87.95 -0.00483
88 -0.00636
88.05 -0.0088
88.1 -0.01183
88.15 -0.01568
88.2 -0.02039
88.25 -0.02264
88.3 -0.02229
88.35 -0.02191
88.4 -0.01685
88.45 -0.01314
88.5 -0.0078
88.55 -0.0058
88.6 -0.00081
88.65 0.00553
88.7 0.00692
88.75 0.00699
88.8 0.00968
88.85 0.01293
88.9 0.01657
88.95 0.02131
89 0.02224
89.05 0.0181
89.1 0.01462
89.15 0.01292
89.2 0.01176
89.25 0.00764
89.3 0.00786
89.35 0.00507
89.4 0.0001
89.45 -0.00308
89.5 -0.0064
89.55 -0.00485
89.6 -0.00512
89.65 -0.0042
89.7 0.00043
89.75 0.00331
89.8 0.00318
89.85 0.00173
89.9 0.00199
89.95 0.0039
90 0.00284
90.05 0.0044
90.1 0.00379
90.15 0.004
90.2 0.00681
90.25 0.01104
90.3 0.01449
90.35 0.01392
90.4 0.01272
90.45 0.00963
90.5 0.0064
90.55 -0.00044
90.6 -0.00375
90.65 -0.00206
90.7 0.00061
90.75 0.00553
90.8 0.00377
90.85 0.00226
90.9 -0.00141
90.95 -0.00083
91 0.00206
91.05 0.00246
91.1 -0.00161
91.15 -0.00179
91.2 -0.00587
91.25 -0.00992
91.3 -0.0092
91.35 -0.00823
91.4 -0.00768
91.45 -0.00408
91.5 -0.00391
91.55 -0.00326
91.6 -0.00086
91.65 0.0023
91.7 0.00783
91.75 0.01292
91.8 0.01104
91.85 0.01107
91.9 0.01391
91.95 0.01612
92 0.01591
92.05 0.01774
92.1 0.01852
92.15 0.01809
92.2 0.01522
92.25 0.01182
92.3 0.0043
92.35 -0.00522
92.4 -0.01156
92.45 -0.01757
92.5 -0.01802
92.55 -0.01678
92.6 -0.01502
92.65 -0.01699
92.7 -0.01773
92.75 -0.01942
92.8 -0.01807
92.85 -0.01423
92.9 -0.00837
92.95 -0.00633
93 -0.00579
93.05 -0.00571
93.1 -0.00253
93.15 0.00078
93.2 0.00144
93.25 -0.00098
93.3 -0.00142
93.35 -0.00208
93.4 -0.00246
93.45 -0.0062
93.5 -0.00809
93.55 -0.0125
93.6 -0.01414
93.65 -0.01638
93.7 -0.01904
93.75 -0.02033
93.8 -0.02172
93.85 -0.02228
93.9 -0.01713
93.95 -0.01187
94 -0.00701
94.05 -0.0005
94.1 -0.00021
94.15 0.00159
94.2 0.00024
94.25 -0.00397
94.3 -0.0101
94.35 -0.0094
94.4 -0.01022
94.45 -0.0117
94.5 -0.0103
94.55 -0.00474
94.6 -0.00031
94.65 0.00216
94.7 0.00471
94.75 0.00868
94.8 0.01357
94.85 0.01358
94.9 0.00897
94.95 0.00777
95 0.00742
95.05 0.00763
95.1 0.00297
95.15 -0.00071
95.2 -0.00445
95.25 -0.00421
95.3 -0.0042
95.35 -0.00789
95.4 -0.00676
95.45 -0.0045
95.5 -0.00183
95.55 0.00166
95.6 0.0071
95.65 0.01343
95.7 0.01447
95.75 0.01772
95.8 0.02141
95.85 0.02537
95.9 0.02362
95.95 0.02432
96 0.02033
96.05 0.01397
96.1 0.00833
96.15 0.00379
96.2 -0.00157
96.25 -0.00656
96.3 -0.00979
96.35 -0.01276
96.4 -0.01511
96.45 -0.01193
96.5 -0.00584
96.55 -0.00324
96.6 -0.00524
96.65 -0.00582
96.7 -0.00586
96.75 -0.00318
96.8 0.0023
96.85 0.00444
96.9 0.00602
96.95 0.00758
97 0.00534
97.05 0.00296
97.1 0.00342
97.15 0.00145
97.2 -0.00006
97.25 -0.00202
97.3 -0.00199
97.35 -0.00014
97.4 -0.00318
97.45 -0.00182
97.5 -0.00342
97.55 -0.00101
97.6 -0.00102
97.65 0.00218
97.7 0.00285
97.75 -0.00076
97.8 -0.00559
97.85 -0.0099
97.9 -0.01097
97.95 -0.00871
98 -0.00976
98.05 -0.00845
98.1 -0.00888
98.15 -0.00543
98.2 -0.00621
98.25 -0.00932
98.3 -0.00673
98.35 -0.00128
98.4 0.00364
98.45 0.00855
98.5 0.01487
98.55 0.01434
98.6 0.01453
98.65 0.00967
98.7 0.00411
98.75 0.00031
98.8 -0.00308
98.85 -0.00278
98.9 -0.00422
98.95 -0.00318
99 -0.00091
99.05 -0.0034
99.1 -0.00211
99.15 0.00181
99.2 0.00071
99.25 0.00103
99.3 0.00167
99.35 -0.00022
99.4 -0.00289
99.45 -0.00449
99.5 -0.00268
99.55 -0.00224
99.6 -0.00456
99.65 -0.00292
99.7 -0.00033
99.75 -0.00206
99.8 -0.00326
99.85 -0.00664
99.9 -0.00466
99.95 -0.00681
