0 0
0.05 0.00468
0.1 0.01594
0.15 0.02357
0.2 0.0341
0.25 0.03893
0.3 0.04193
0.35 0.04798
0.4 0.05054
0.45 0.05186
0.5 0.051
0.55 0.05195
0.6 0.05546
0.65 0.06081
0.7 0.0618
0.75 0.06442
0.8 0.06869
0.85 0.06662
0.9 0.06182
0.95 0.0583
1 0.05494
1.05 0.05195
1.1 0.04459
1.15 0.04106
1.2 0.03539
1.25 0.029
1.3 0.02512
1.35 0.02103
1.4 0.01795
1.45 0.01824
1.5 0.02006
1.55 0.02296
1.6 0.02697
1.65 0.03088
1.7 0.03681
1.75 0.04038
1.8 0.04199
1.85 0.03957
1.9 0.03311
1.95 0.02537
2 0.01718
2.05 0.01349
2.1 0.01225
2.15 0.00944
2.2 0.00509
2.25 0.00175
2.3 -0.00103
2.35 0.0003
2.4 -0.0002
2.45 0.00273
2.5 0.008
2.55 0.00954
2.6 0.01443
2.65 0.02249
2.7 0.02382
2.75 0.02076
2.8 0.02408
2.85 0.02461
2.9 0.02313
2.95 0.02417
3 0.02455
3.05 0.02744
3.1 0.03172
3.15 0.03755
3.2 0.04022
3.25 0.03806
3.3 0.03375
3.35 0.03005
3.4 0.0297
3.45 0.02628
3.5 0.02371
3.55 0.02404
3.6 0.02526
3.65 0.02357
3.7 0.02088
3.75 0.02274
3.8 0.02247
3.85 0.0222
3.9 0.02366
3.95 0.02347
4 0.02675
4.05 0.02456
4.1 0.01765
4.15 0.00952
4.2 0.00591
4.25 0.00787
4.3 0.0118
4.35 0.017
4.4 0.0179
4.45 0.01697
4.5 0.01242
4.55 0.00489
4.6 -0.00343
4.65 -0.02181
4.7 -0.04139
4.75 -0.06635
4.8 -0.09471
4.85 -0.12459
4.9 -0.1544
4.95 -0.18826
5 -0.22799
5.05 -0.27292
5.1 -0.31992
5.15 -0.37445
5.2 -0.44029
5.25 -0.50739
5.3 -0.58181
5.35 -0.66301
5.4 -0.7521
5.45 -0.84116
5.5 -0.93205
5.55 -1.02118
5.6 -1.11641
5.65 -1.21309
5.7 -1.30908
5.75 -1.398
5.8 -1.48791
5.85 -1.57197
5.9 -1.65432
5.95 -1.72753
6 -1.79413
6.05 -1.86161
6.1 -1.9262
6.15 -1.98669
6.2 -2.04394
6.25 -2.09176
6.3 -2.13969
6.35 -2.18342
6.4 -2.21875
6.45 -2.24904
6.5 -2.26825
6.55 -2.2793
6.6 -2.27977
6.65 -2.27477
6.7 -2.25959
6.75 -2.23147
6.8 -2.18794
6.85 -2.13172
6.9 -2.06376
6.95 -1.97952
7 -1.87909
7.05 -1.76252
7.1 -1.63903
7.15 -1.50572
7.2 -1.35632
7.25 -1.20098
7.3 -1.04027
7.35 -0.87339
7.4 -0.69314
7.45 -0.50463
7.5 -0.31921
7.55 -0.13177
7.6 0.05443
7.65 0.2356
7.7 0.41571
7.75 0.59436
7.8 0.76795
7.85 0.93065
7.9 1.08559
7.95 1.22848
8 1.36009
8.05 1.47707
8.1 1.58277
8.15 1.67393
8.2 1.7567
8.25 1.82693
8.3 1.88687
8.35 1.94019
8.4 1.98897
8.45 2.03406
8.5 2.06594
8.55 2.08973
8.6 2.11276
8.65 2.13131
8.7 2.13868
8.75 2.14399
8.8 2.14163
8.85 2.13188
8.9 2.12384
8.95 2.11185
9 2.09397
9.05 2.07538
9.1 2.05579
9.15 2.03026
9.2 2.00398
9.25 1.98025
9.3 1.95161
9.35 1.92145
9.4 1.89716
9.45 1.87187
9.5 1.84237
9.55 1.81589
9.6 1.78606
9.65 1.7575
9.7 1.72873
9.75 1.69518
9.8 1.65876
9.85 1.62441
9.9 1.58913
9.95 1.54928
10 1.51239
10.05 1.47566
10.1 1.43742
10.15 1.39932
10.2 1.36441
10.25 1.326
10.3 1.28824
10.35 1.24885
10.4 1.20693
10.45 1.16324
10.5 1.11691
10.55 1.06604
10.6 1.02164
10.65 0.97609
10.7 0.92959
10.75 0.88821
10.8 0.84164
10.85 0.79841
10.9 0.75258
10.95 0.70908
11 0.67126
11.05 0.63069
11.1 0.59204
11.15 0.55122
11.2 0.51328
11.25 0.4738
11.3 0.43374
11.35 0.39911
11.4 0.36189
11.45 0.3225
11.5 0.2811
11.55 0.24142
11.6 0.20324
11.65 0.17185
11.7 0.14238
11.75 0.11344
11.8 0.08327
11.85 0.05406
11.9 0.03054
11.95 0.01017
12 -0.01342
12.05 -0.03362
12.1 -0.05799
12.15 -0.08355
12.2 -0.10651
12.25 -0.12479
12.3 -0.14046
12.35 -0.15517
12.4 -0.17149
12.45 -0.18501
12.5 -0.20011
12.55 -0.21888
12.6 -0.23575
12.65 -0.2499
12.7 -0.2639
12.75 -0.27695
12.8 -0.29197
12.85 -0.30685
12.9 -0.31453
12.95 -0.31808
13 -0.31849
13.05 -0.3204
13.1 -0.32512
13.15 -0.32646
13.2 -0.32393
13.25 -0.32474
13.3 -0.33082
13.35 -0.33935
13.4 -0.34399
13.45 -0.34249
13.5 -0.34254
13.55 -0.34678
13.6 -0.34615
13.65 -0.34208
13.7 -0.33643
13.75 -0.3334
13.8 -0.33172
13.85 -0.3353
13.9 -0.33631
13.95 -0.33808
14 -0.3365
14.05 -0.33127
14.1 -0.3286
14.15 -0.32398
14.2 -0.3175
14.25 -0.3151
14.3 -0.3112
14.35 -0.31227
14.4 -0.31282
14.45 -0.311
14.5 -0.30941
14.55 -0.30709
14.6 -0.30496
14.65 -0.30264
14.7 -0.29971
14.75 -0.29325
14.8 -0.28916
14.85 -0.28636
14.9 -0.28515
14.95 -0.28452
15 -0.28408
15.05 -0.27735
15.1 -0.27258
15.15 -0.26668
15.2 -0.26409
15.25 -0.26144
15.3 -0.25362
15.35 -0.24433
15.4 -0.23902
15.45 -0.23478
15.5 -0.23156
15.55 -0.22596
15.6 -0.22447
15.65 -0.22619
15.7 -0.22283
15.75 -0.22029
15.8 -0.21564
15.85 -0.21041
15.9 -0.20228
15.95 -0.19418
16 -0.18451
16.05 -0.17702
16.1 -0.16979
16.15 -0.16935
16.2 -0.17126
16.25 -0.1758
16.3 -0.17696
16.35 -0.17784
16.4 -0.17695
16.45 -0.18006
16.5 -0.17825
16.55 -0.1791
16.6 -0.17465
16.65 -0.16818
16.7 -0.16662
16.75 -0.16551
16.8 -0.1624
16.85 -0.16029
16.9 -0.15642
16.95 -0.15384
17 -0.15563
17.05 -0.15589
17.1 -0.15203
17.15 -0.14356
17.2 -0.1371
17.25 -0.13278
17.3 -0.13208
17.35 -0.13025
17.4 -0.12786
17.45 -0.12258
17.5 -0.11621
17.55 -0.11069
17.6 -0.10622
17.65 -0.10823
17.7 -0.11412
17.75 -0.11543
17.8 -0.12018
17.85 -0.12278
17.9 -0.12094
17.95 -0.12177
18 -0.1234
18.05 -0.12145
18.1 -0.12107
18.15 -0.12082
18.2 -0.11784
18.25 -0.11744
18.3 -0.1152
18.35 -0.11283
18.4 -0.11158
18.45 -0.11239
18.5 -0.11253
18.55 -0.11464
18.6 -0.11389
18.65 -0.11486
18.7 -0.11049
18.75 -0.10238
18.8 -0.09848
18.85 -0.09739
18.9 -0.09825
18.95 -0.09884
19 -0.09342
19.05 -0.0854
19.1 -0.07786
19.15 -0.07505
19.2 -0.06969
19.25 -0.06747
19.3 -0.06408
19.35 -0.06438
19.4 -0.06368
19.45 -0.05944
19.5 -0.05703
19.55 -0.05394
19.6 -0.05036
19.65 -0.0512
19.7 -0.05597
19.75 -0.05549
19.8 -0.05692
19.85 -0.0564
19.9 -0.05927
19.95 -0.05906
20 -0.05796
20.05 -0.05805
20.1 -0.06104
20.15 -0.06409
20.2 -0.06047
20.25 -0.0616
20.3 -0.05999
20.35 -0.06034
20.4 -0.05855
20.45 -0.06015
20.5 -0.06024
20.55 -0.06058
20.6 -0.06097
20.65 -0.05871
20.7 -0.05161
20.75 -0.04851
20.8 -0.04184
20.85 -0.03688
20.9 -0.03693
20.95 -0.03566
21 -0.03607
21.05 -0.03432
21.1 -0.03044
21.15 -0.02982
21.2 -0.02947
21.25 -0.02687
21.3 -0.02319
21.35 -0.0188
21.4 -0.01312
21.45 -0.01365
21.5 -0.01534
21.55 -0.01465
21.6 -0.01162
21.65 -0.0094
21.7 -0.00634
21.75 -0.01027
21.8 -0.01289
21.85 -0.01466
21.9 -0.01662
21.95 -0.02029
22 -0.01878
22.05 -0.01804
22.1 -0.02055
22.15 -0.02246
22.2 -0.02831
22.25 -0.03383
22.3 -0.0373
22.35 -0.03834
22.4 -0.04089
22.45 -0.04336
22.5 -0.04635
22.55 -0.0496
22.6 -0.04623
22.65 -0.045
22.7 -0.04665
22.75 -0.04855
22.8 -0.04976
22.85 -0.04833
22.9 -0.04268
22.95 -0.03877
23 -0.03034
23.05 -0.02498
23.1 -0.02393
23.15 -0.01984
23.2 -0.02156
23.25 -0.02415
23.3 -0.02874
23.35 -0.02798
23.4 -0.02323
23.45 -0.02252
23.5 -0.02158
23.55 -0.02276
23.6 -0.02704
23.65 -0.03037
23.7 -0.0291
23.75 -0.0238
23.8 -0.01547
23.85 -0.01078
23.9 -0.00649
23.95 -0.00062
24 -0.00102
24.05 0.00159
24.1 0.00175
24.15 0.00239
24.2 0.00202
24.25 0.00231
24.3 0.00198
24.35 0.0036
24.4 -0.00058
24.45 -0.00637
24.5 -0.01304
24.55 -0.0144
24.6 -0.01614
24.65 -0.01844
24.7 -0.02261
24.75 -0.02256
24.8 -0.0195
24.85 -0.01552
24.9 -0.01317
24.95 -0.00686
25 -0.00227
25.05 -0.00144
25.1 -0.00202
25.15 -0.00567
25.2 -0.00461
25.25 -0.00385
25.3 0.00052
25.35 0.00302
25.4 0.0072
25.45 0.01031
25.5 0.01515
25.55 0.01858
25.6 0.01871
25.65 0.01305
25.7 0.00888
25.75 0.00448
25.8 -0.00083
25.85 -0.00293
25.9 -0.00264
25.95 -0.00592
26 -0.00807
26.05 -0.00673
26.1 -0.00299
26.15 0.00102
26.2 0.00538
26.25 0.00635
26.3 0.00622
26.35 0.00917
26.4 0.01261
26.45 0.01576
26.5 0.01189
26.55 0.00408
26.6 0.00031
26.65 -0.00637
26.7 -0.01456
26.75 -0.0206
26.8 -0.02228
26.85 -0.02152
26.9 -0.0165
26.95 -0.01538
27 -0.01177
27.05 -0.01014
27.1 -0.01266
27.15 -0.01769
27.2 -0.02097
27.25 -0.01923
27.3 -0.01632
27.35 -0.01609
27.4 -0.01836
27.45 -0.01838
27.5 -0.01332
27.55 -0.00703
27.6 -0.00402
27.65 -0.00246
27.7 0.00053
27.75 -0.00163
27.8 -0.00105
27.85 -0.00467
27.9 -0.00502
27.95 -0.00969
28 -0.00952
28.05 -0.00616
28.1 -0.00059
28.15 0.00594
28.2 0.00499
28.25 0.0064
28.3 0.00454
28.35 -0.0003
28.4 -0.00281
28.45 -0.00719
28.5 -0.0124
28.55 -0.0193
28.6 -0.02867
28.65 -0.03625
28.7 -0.04347
28.75 -0.05151
28.8 -0.05816
28.85 -0.06213
28.9 -0.06489
28.95 -0.0726
29 -0.08117
29.05 -0.0888
29.1 -0.10284
29.15 -0.11269
29.2 -0.11984
29.25 -0.12722
29.3 -0.13381
29.35 -0.14922
29.4 -0.16563
29.45 -0.17911
29.5 -0.19493
29.55 -0.20587
29.6 -0.21397
29.65 -0.22345
29.7 -0.23461
29.75 -0.24516
29.8 -0.25863
29.85 -0.26522
29.9 -0.2655
29.95 -0.26505
30 -0.2648
30.05 -0.26647
30.1 -0.26732
30.15 -0.25866
30.2 -0.25078
30.25 -0.23745
30.3 -0.22473
30.35 -0.2138
30.4 -0.20037
30.45 -0.18282
30.5 -0.1656
30.55 -0.14161
30.6 -0.11414
30.65 -0.09257
30.7 -0.068
30.75 -0.04669
30.8 -0.02918
30.85 -0.01034
30.9 0.00668
30.95 0.0163
31 0.02441
31.05 0.03614
31.1 0.04599
31.15 0.04885
31.2 0.05604
31.25 0.06494
31.3 0.07315
31.35 0.08178
31.4 0.08601
31.45 0.0916
31.5 0.0925
31.55 0.09352
31.6 0.09183
31.65 0.09426
31.7 0.0922
31.75 0.08911
31.8 0.09099
31.85 0.09334
31.9 0.09167
31.95 0.09506
32 0.09544
32.05 0.09616
32.1 0.09544
32.15 0.09893
32.2 0.10778
32.25 0.11362
32.3 0.12164
32.35 0.13319
32.4 0.14412
32.45 0.15191
32.5 0.15681
32.55 0.1569
32.6 0.16234
32.65 0.17146
32.7 0.17683
32.75 0.18082
32.8 0.185
32.85 0.19136
32.9 0.19129
32.95 0.18878
33 0.18972
33.05 0.19175
33.1 0.19751
33.15 0.19947
33.2 0.20397
33.25 0.20456
33.3 0.1987
33.35 0.19268
33.4 0.18465
33.45 0.17787
33.5 0.17631
33.55 0.17892
33.6 0.1746
33.65 0.16761
33.7 0.16038
33.75 0.15232
33.8 0.14633
33.85 0.13791
33.9 0.12828
33.95 0.12644
34 0.12173
34.05 0.12026
34.1 0.11874
34.15 0.1177
34.2 0.11934
34.25 0.11854
34.3 0.11863
34.35 0.11798
34.4 0.11568
34.45 0.11016
34.5 0.10536
34.55 0.10124
34.6 0.09279
34.65 0.08298
34.7 0.07695
34.75 0.06709
34.8 0.0578
34.85 0.05242
34.9 0.0457
34.95 0.03836
35 0.02984
35.05 0.02216
35.1 0.02146
35.15 0.02501
35.2 0.02858
35.25 0.0333
35.3 0.03709
35.35 0.04136
35.4 0.04004
35.45 0.03682
35.5 0.03345
35.55 0.02791
35.6 0.01826
35.65 0.01375
35.7 0.00493
35.75 -0.00541
35.8 -0.00848
35.85 -0.0087
35.9 -0.00867
35.95 -0.00671
36 -0.0031
36.05 -0.00607
36.1 -0.00993
36.15 -0.01243
36.2 -0.01347
36.25 -0.01373
36.3 -0.01529
36.35 -0.01959
36.4 -0.01947
36.45 -0.02473
36.5 -0.02603
36.55 -0.02941
36.6 -0.03376
36.65 -0.03657
36.7 -0.03412
36.75 -0.03007
36.8 -0.02862
36.85 -0.03158
36.9 -0.03752
36.95 -0.04238
37 -0.04342
37.05 -0.04754
37.1 -0.05355
37.15 -0.05285
37.2 -0.05387
37.25 -0.04977
37.3 -0.05026
37.35 -0.0481
37.4 -0.04867
37.45 -0.04624
37.5 -0.04302
37.55 -0.03678
37.6 -0.02798
37.65 -0.02432
37.7 -0.0261
37.75 -0.02646
37.8 -0.02823
37.85 -0.02987
37.9 -0.034
37.95 -0.0321
38 -0.03279
38.05 -0.0361
38.1 -0.04206
38.15 -0.04136
38.2 -0.041
38.25 -0.03614
38.3 -0.03573
38.35 -0.0395
38.4 -0.03738
38.45 -0.03635
38.5 -0.03211
38.55 -0.02975
38.6 -0.02997
38.65 -0.02869
38.7 -0.02586
38.75 -0.01986
38.8 -0.01321
38.85 -0.00837
38.9 -0.01036
38.95 -0.01314
39 -0.01992
39.05 -0.02593
39.1 -0.03258
39.15 -0.03212
39.2 -0.03119
39.25 -0.03273
39.3 -0.02839
39.35 -0.02093
39.4 -0.01467
39.45 -0.0135
39.5 -0.0132
39.55 -0.01821
39.6 -0.01961
39.65 -0.02009
39.7 -0.0222
39.75 -0.01987
39.8 -0.01469
39.85 -0.01053
39.9 -0.00805
39.95 -0.01083
40 -0.01564
40.05 -0.02086
40.1 -0.02544
40.15 -0.02978
40.2 -0.03086
40.25 -0.03054
40.3 -0.03059
40.35 -0.03081
40.4 -0.02838
40.45 -0.02987
40.5 -0.0267
40.55 -0.01983
40.6 -0.01903
40.65 -0.01454
40.7 -0.01103
40.75 -0.00914
40.8 -0.00582
40.85 0.00004
40.9 0.00269
40.95 0.00745
41 0.00626
41.05 0.00256
41.1 -0.00084
41.15 -0.00021
41.2 -0.00101
41.25 -0.00639
41.3 -0.01128
41.35 -0.01415
41.4 -0.01976
41.45 -0.02107
41.5 -0.02128
41.55 -0.01756
41.6 -0.0139
41.65 -0.00738
41.7 -0.00278
41.75 0.00002
41.8 0.0051
41.85 0.00868
41.9 0.00602
41.95 0.00299
42 -0.00333
42.05 -0.0087
42.1 -0.01034
42.15 -0.01109
42.2 -0.01543
42.25 -0.0202
42.3 -0.02063
42.35 -0.02262
42.4 -0.02736
42.45 -0.02617
42.5 -0.02261
42.55 -0.02225
42.6 -0.02041
42.65 -0.02061
42.7 -0.01841
42.75 -0.01325
42.8 -0.00565
42.85 -0.00427
42.9 -0.00309
42.95 -0.00057
43 -0.00221
43.05 -0.00491
43.1 -0.00773
43.15 -0.01179
43.2 -0.01344
43.25 -0.01877
43.3 -0.02001
43.35 -0.01629
43.4 -0.0166
43.45 -0.02022
43.5 -0.02243
43.55 -0.02177
43.6 -0.01869
43.65 -0.01431
43.7 -0.01517
43.75 -0.01872
43.8 -0.02086
43.85 -0.0196
43.9 -0.01453
43.95 -0.00655
44 -0.00092
44.05 0.00277
44.1 0.00092
44.15 -0.00355
44.2 -0.00584
44.25 -0.01086
44.3 -0.0093
44.35 -0.00514
44.4 -0.00385
44.45 -0.00037
44.5 0.00292
44.55 0.00274
44.6 -0.00174
44.65 -0.00598
44.7 -0.01294
44.75 -0.01553
44.8 -0.01849
44.85 -0.02091
44.9 -0.01945
44.95 -0.01763
45 -0.0175
45.05 -0.01819
45.1 -0.019
45.15 -0.02118
45.2 -0.01971
45.25 -0.01453
45.3 -0.01155
45.35 -0.00917
45.4 -0.0051
45.45 0.00181
45.5 0.00296
45.55 0.00489
45.6 0.0034
45.65 -0.00263
45.7 -0.00232
45.75 -0.00518
45.8 -0.00592
45.85 -0.00511
45.9 -0.00248
45.95 -0.00202
46 -0.00176
46.05 -0.00468
46.1 -0.00614
46.15 -0.00346
46.2 0.00062
46.25 0.00503
46.3 0.00802
46.35 0.00448
46.4 0.00034
46.45 -0.00059
46.5 -0.00321
46.55 -0.00709
46.6 -0.00821
46.65 -0.00797
46.7 -0.00861
46.75 -0.00732
46.8 -0.00193
46.85 -0.00023
46.9 0.00276
46.95 0.00034
47 -0.00027
47.05 -0.00126
47.1 0.00201
47.15 0.00221
47.2 0.002
47.25 -0.00087
47.3 -0.00405
47.35 -0.00698
47.4 -0.00852
47.45 -0.0044
47.5 -0.0058
47.55 -0.00889
47.6 -0.01436
47.65 -0.01847
47.7 -0.01785
47.75 -0.01644
47.8 -0.01491
47.85 -0.01517
47.9 -0.01462
47.95 -0.01328
48 -0.01077
48.05 -0.00415
48.1 0.00463
48.15 0.00611
48.2 0.00432
48.25 -0.00163
48.3 -0.00594
48.35 -0.01022
48.4 -0.00875
48.45 -0.00884
48.5 -0.00449
48.55 -0.00261
48.6 -0.00438
48.65 -0.00111
48.7 -0.00061
48.75 -0.0026
48.8 0.00088
48.85 0.00127
48.9 0.00575
48.95 0.00448
49 0.00008
49.05 -0.00367
49.1 -0.00958
49.15 -0.01429
49.2 -0.01564
49.25 -0.01914
49.3 -0.02145
49.35 -0.02494
49.4 -0.02108
49.45 -0.01979
49.5 -0.01347
49.55 -0.00925
49.6 -0.00834
49.65 -0.01088
49.7 -0.00981
49.75 -0.01049
49.8 -0.01171
49.85 -0.00739
49.9 -0.00298
49.95 -0.00244
50 -0.0006
50.05 -0.00222
50.1 0.00096
50.15 0.00395
50.2 0.0073
50.25 0.01193
50.3 0.01127
50.35 0.00687
50.4 0.00024
50.45 -0.00731
50.5 -0.00706
50.55 -0.00413
50.6 -0.00532
50.65 -0.00638
50.7 -0.01025
50.75 -0.00687
50.8 -0.00546
50.85 -0.00554
50.9 -0.00723
50.95 -0.00445
51 0.00186
51.05 0.01076
51.1 0.01325
51.15 0.01789
51.2 0.01655
51.25 0.01814
51.3 0.02233
51.35 0.02791
51.4 0.03352
51.45 0.03535
51.5 0.03752
51.55 0.04053
51.6 0.03508
51.65 0.02741
51.7 0.02316
51.75 0.02181
51.8 0.02293
51.85 0.0233
51.9 0.02255
51.95 0.01915
52 0.0156
52.05 0.01245
52.1 0.01177
52.15 0.0146
52.2 0.01478
52.25 0.01597
52.3 0.01917
52.35 0.02111
52.4 0.01579
52.45 0.00996
52.5 0.00525
52.55 0.00272
52.6 0.00384
52.65 0.00528
52.7 0.00104
52.75 0.00229
52.8 -0.00205
52.85 -0.0025
52.9 -0.00546
52.95 -0.00447
53 -0.00583
53.05 -0.01032
53.1 -0.01118
53.15 -0.01544
53.2 -0.01501
53.25 -0.01284
53.3 -0.00788
53.35 -0.00442
53.4 -0.00208
53.45 -0.00439
53.5 -0.00222
53.55 -0.00119
53.6 0.00257
53.65 0
53.7 -0.00626
53.75 -0.00697
53.8 -0.0099
53.85 -0.00933
53.9 -0.0123
53.95 -0.01294
54 -0.01672
54.05 -0.0134
54.1 -0.01488
54.15 -0.01655
54.2 -0.01276
54.25 -0.00676
54.3 0.0005
54.35 0.00234
54.4 0.00213
54.45 0.00363
54.5 -0.00039
54.55 -0.00361
54.6 -0.00157
54.65 0.00182
54.7 0.00452
54.75 0.008
54.8 0.01297
54.85 0.01137
54.9 0.00828
54.95 0.00533
55 0.00206
55.05 -0.00016
55.1 -0.00054
55.15 -0.00052
55.2 0.0007
55.25 0.00483
55.3 0.00656
55.35 0.01149
55.4 0.01189
55.45 0.01446
55.5 0.01292
55.55 0.01
55.6 0.00636
55.65 0.00586
55.7 0.0029
55.75 0.00054
55.8 -0.00548
55.85 -0.00958
55.9 -0.00919
55.95 -0.00948
56 -0.00777
56.05 -0.00613
56.1 -0.00156
56.15 0.00087
56.2 -0.00178
56.25 -0.00799
56.3 -0.01025
56.35 -0.01296
56.4 -0.01765
56.45 -0.02138
56.5 -0.02653
56.55 -0.02935
56.6 -0.02508
56.65 -0.01982
56.7 -0.0164
56.75 -0.01256
56.8 -0.00651
56.85 -0.00172
56.9 0.00059
56.95 0.00008
57 0.00312
57.05 0.00233
57.1 -0.00168
57.15 -0.00598
57.2 -0.00424
57.25 0.00162
57.3 0.00855
57.35 0.0103
57.4 0.01363
57.45 0.01885
57.5 0.02337
57.55 0.02767
57.6 0.03061
57.65 0.02906
57.7 0.023
57.75 0.02161
57.8 0.02293
57.85 0.02592
57.9 0.0277
57.95 0.02605
58 0.0259
58.05 0.02237
58.1 0.02073
58.15 0.01324
58.2 0.00783
58.25 0.0032
58.3 -0.00508
58.35 -0.01238
58.4 -0.01273
58.45 -0.01229
58.5 -0.01333
58.55 -0.00964
58.6 -0.00653
58.65 -0.00295
58.7 -0.00293
58.75 -0.0023
58.8 -0.00357
58.85 -0.00367
58.9 -0.00406
58.95 -0.00191
59 0.00279
59.05 0.00062
59.1 0.00327
59.15 0.00489
59.2 0.00556
59.25 0.00818
59.3 0.0116
59.35 0.01379
59.4 0.01069
59.45 0.0064
59.5 -0.00108
59.55 -0.00256
59.6 -0.0018
59.65 0.00214
59.7 0.00501
59.75 0.0061
59.8 0.00963
59.85 0.00621
59.9 -0.00076
59.95 -0.00101
60 -0.00428
60.05 -0.00354
60.1 -0.00241
60.15 0.00214
60.2 0.00083
60.25 -0.00436
60.3 -0.0089
60.35 -0.01554
60.4 -0.0224
60.45 -0.02784
60.5 -0.02576
60.55 -0.01842
60.6 -0.01722
60.65 -0.01942
60.7 -0.01513
60.75 -0.00762
60.8 0.00075
60.85 0.00419
60.9 0.009
60.95 0.01412
61 0.01793
61.05 0.02017
61.1 0.0181
61.15 0.01227
61.2 0.00455
61.25 -0.00035
61.3 -0.00578
61.35 -0.01368
61.4 -0.01689
61.45 -0.01986
61.5 -0.01849
61.55 -0.01231
61.6 -0.00769
61.65 -0.00254
61.7 0.00385
61.75 0.00663
61.8 0.00984
61.85 0.01379
61.9 0.01083
61.95 0.01069
62 0.00628
62.05 -0.00166
62.1 -0.00483
62.15 -0.01108
62.2 -0.01552
62.25 -0.0133
62.3 -0.00717
62.35 -0.00536
62.4 -0.00486
62.45 -0.00885
62.5 -0.0154
62.55 -0.02172
62.6 -0.02111
62.65 -0.01753
62.7 -0.01518
62.75 -0.00819
62.8 -0.00219
62.85 -0.00093
62.9 -0.00238
62.95 0.00087
63 0.0044
63.05 0.0016
63.1 -0.00458
63.15 -0.00907
63.2 -0.0123
63.25 -0.01359
63.3 -0.01768
63.35 -0.02083
63.4 -0.01984
63.45 -0.02148
63.5 -0.02356
63.55 -0.02293
63.6 -0.01651
63.65 -0.00694
63.7 0.00103
63.75 0.00806
63.8 0.00819
63.85 0.0096
63.9 0.01
63.95 0.00821
64 0.00787
64.05 0.01151
64.1 0.01079
64.15 0.00659
64.2 0.00248
64.25 0.00338
64.3 -0
64.35 -0.00367
64.4 -0.00646
64.45 -0.00794
64.5 -0.01014
64.55 -0.00631
64.6 -0.00364
64.65 -0.00496
64.7 -0.0087
64.75 -0.00641
64.8 -0.00077
64.85 0.00489
64.9 0.00532
64.95 0.0075
65 0.00391
65.05 0.00394
65.1 0.00184
65.15 0.00351
65.2 0.00666
65.25 0.00391
65.3 0.00407
65.35 0.00759
65.4 0.01241
65.45 0.01751
65.5 0.0176
65.55 0.01476
65.6 0.01491
65.65 0.00984
65.7 0.00271
65.75 -0.00225
65.8 -0.00475
65.85 -0.00171
65.9 0.00187
65.95 0.00205
66 0.00119
66.05 0.00403
66.1 0.00533
66.15 0.00325
66.2 -0.00294
66.25 -0.00683
66.3 -0.00718
66.35 -0.00564
66.4 -0.00772
66.45 -0.00757
66.5 -0.00923
66.55 -0.00538
66.6 -0.00411
66.65 -0.00172
66.7 -0.00078
66.75 -0.00075
66.8 -0.00135
66.85 -0.00216
66.9 -0.00489
66.95 -0.00487
67 -0.00042
67.05 0.00241
67.1 0.00186
67.15 0.00283
67.2 0.00326
67.25 -0.00111
67.3 -0.00577
67.35 -0.00598
67.4 -0.00675
67.45 -0.00885
67.5 -0.007
67.55 -0.00923
67.6 -0.0061
67.65 -0.00551
67.7 -0.00315
67.75 -0.00597
67.8 -0.0053
67.85 -0.00185
67.9 -0.00112
67.95 -0.00407
68 -0.00628
68.05 -0.00581
68.1 -0.00869
68.15 -0.00692
68.2 -0.00445
68.25 -0.00269
68.3 -0.00516
68.35 -0.00379
68.4 -0.00656
68.45 -0.01122
68.5 -0.01406
68.55 -0.01648
68.6 -0.01629
68.65 -0.01676
68.7 -0.01475
68.75 -0.01274
68.8 -0.01445
68.85 -0.01307
68.9 -0.00673
68.95 -0.00338
69 -0.00538
69.05 -0.002
69.1 -0.00159
69.15 0.00073
69.2 -0.00171
69.25 -0.00392
69.3 -0.00217
69.35 -0.0024
69.4 -0.00583
69.45 -0.00383
69.5 -0.00576
69.55 -0.00868
69.6 -0.00961
69.65 -0.00873
69.7 -0.01186
69.75 -0.01652
69.8 -0.02175
69.85 -0.02063
69.9 -0.01773
69.95 -0.01507
70 -0.01508
70.05 -0.01655
70.1 -0.01455
70.15 -0.0079
70.2 -0.00631
70.25 -0.00018
70.3 0.00641
70.35 0.00627
70.4 0.00736
70.45 0.0053
70.5 0.00119
70.55 -0.00534
70.6 -0.00496
70.65 0.00023
70.7 0.00079
70.75 0.00512
70.8 0.00998
70.85 0.01303
70.9 0.01698
70.95 0.01495
71 0.00857
71.05 0.00204
71.1 -0.00604
71.15 -0.01153
71.2 -0.01816
71.25 -0.02179
71.3 -0.02556
71.35 -0.02298
71.4 -0.0205
71.45 -0.018
71.5 -0.01734
71.55 -0.01454
71.6 -0.00787
71.65 -0.00463
71.7 0.00213
71.75 0.01055
71.8 0.01301
71.85 0.0155
71.9 0.01979
71.95 0.01668
72 0.01281
72.05 0.01131
72.1 0.00573
72.15 0.0065
72.2 0.00601
72.25 0.00711
72.3 0.00865
72.35 0.0076
72.4 0.00526
72.45 0.00776
72.5 0.01076
72.55 0.01301
72.6 0.00978
72.65 0.01069
72.7 0.00862
72.75 0.01026
72.8 0.00975
72.85 0.01256
72.9 0.01246
72.95 0.01327
73 0.01088
73.05 0.01123
73.1 0.01146
73.15 0.01405
73.2 0.01609
73.25 0.01542
73.3 0.01407
73.35 0.00801
73.4 0.00413
73.45 -0.00038
73.5 -0.00491
73.55 -0.00323
73.6 0.00072
73.65 0.00031
73.7 0.00435
73.75 0.01001
73.8 0.01399
73.85 0.01495
73.9 0.01337
73.95 0.01453
74 0.01094
74.05 0.01119
74.1 0.01255
74.15 0.01341
74.2 0.00818
74.25 0.00836
74.3 0.00328
74.35 0.00205
74.4 0.0036
74.45 0.0031
74.5 0.00418
74.55 0.00318
74.6 0.00351
74.65 0.00106
74.7 -0.00374
74.75 -0.00798
74.8 -0.01286
74.85 -0.01129
74.9 -0.0056
74.95 -0.0009
75 -0.00236
75.05 -0.00663
75.1 -0.0102
75.15 -0.01633
75.2 -0.02188
75.25 -0.02154
75.3 -0.01963
75.35 -0.01622
75.4 -0.01394
75.45 -0.00998
75.5 -0.00654
75.55 -0.00597
75.6 -0.00314
75.65 -0.00214
75.7 -0.00529
75.75 -0.00582
75.8 -0.00291
75.85 -0.00129
75.9 -0.00282
75.95 -0.00175
76 -0.00246
76.05 -0.00381
76.1 -0.00802
76.15 -0.01325
76.2 -0.01393
76.25 -0.01328
76.3 -0.00981
76.35 -0.00411
76.4 -0.00157
76.45 -0.00021
76.5 0.00387
76.55 0.00711
76.6 0.00758
76.65 0.00821
76.7 0.0073
76.75 0.00521
76.8 0.00725
76.85 0.00755
76.9 0.00596
76.95 0.00636
77 0.00597
77.05 0.00696
77.1 0.00266
77.15 -0.004
77.2 -0.00837
77.25 -0.01456
77.3 -0.01793
77.35 -0.01823
77.4 -0.01561
77.45 -0.01373
77.5 -0.01562
77.55 -0.01889
77.6 -0.01714
77.65 -0.01109
77.7 -0.00612
77.75 -0.00271
77.8 0.00398
77.85 0.00615
77.9 0.00832
77.95 0.00472
78 0.00138
78.05 0.00176
78.1 0.00439
78.15 0.00825
78.2 0.01378
78.25 0.01624
78.3 0.01459
78.35 0.00963
78.4 0.00314
78.45 -0.0006
78.5 -0.00143
78.55 0.00021
78.6 0.00082
78.65 0.00222
78.7 0.00093
78.75 0.00303
78.8 0.00694
78.85 0.00538
78.9 0.00125
78.95 -0.00385
79 -0.00797
79.05 -0.00834
79.1 -0.00312
79.15 0.00323
79.2 0.01128
79.25 0.01752
79.3 0.01995
79.35 0.0201
79.4 0.02084
79.45 0.02254
79.5 0.02582
79.55 0.02984
79.6 0.03384
79.65 0.0307
79.7 0.02671
79.75 0.01925
79.8 0.0113
79.85 0.00395
79.9 0.0006
79.95 -0.0021
80 -0.00082
80.05 -0.00233
80.1 -0.00605
80.15 -0.01213
80.2 -0.01867
80.25 -0.01956
80.3 -0.02168
80.35 -0.02437
80.4 -0.02582
80.45 -0.02165
80.5 -0.01482
80.55 -0.0048
80.6 -0.00222
80.65 -0.0041
80.7 -0.00897
80.75 -0.01224
80.8 -0.01473
80.85 -0.01641
80.9 -0.01681
80.95 -0.01835
81 -0.01915
81.05 -0.01552
81.1 -0.01475
81.15 -0.01385
81.2 -0.01297
81.25 -0.00835
81.3 -0.00444
81.35 0.00161
81.4 0.00389
81.45 0.0016
81.5 -0.00263
81.55 -0.00435
81.6 -0.00489
81.65 -0.00788
81.7 -0.00907
81.75 -0.00638
81.8 -0.00064
81.85 0.00291
81.9 0.00885
81.95 0.01582
82 0.01607
82.05 0.01964
82.1 0.02458
82.15 0.02332
82.2 0.02441
82.25 0.02437
82.3 0.01868
82.35 0.01431
82.4 0.01321
82.45 0.0124
82.5 0.01344
82.55 0.00873
82.6 0.00683
82.65 0.00904
82.7 0.01082
82.75 0.01022
82.8 0.00693
82.85 0.00308
82.9 -0.0023
82.95 -0.00649
83 -0.00737
83.05 -0.00472
83.1 -0.00613
83.15 -0.005
83.2 -0.00001
83.25 0.00391
83.3 0.00514
83.35 0.00094
83.4 0.00011
83.45 0.00173
83.5 0.00466
83.55 0.00624
83.6 0.00957
83.65 0.01414
83.7 0.01907
83.75 0.02224
83.8 0.02014
83.85 0.0195
83.9 0.01782
83.95 0.01115
84 0.00452
84.05 0.00329
84.1 0.0046
84.15 0.00662
84.2 0.00616
84.25 0.00137
84.3 0.00117
84.35 0.00364
84.4 0.00483
84.45 0.00137
84.5 -0.00343
84.55 -0.00565
84.6 -0.01063
84.65 -0.01012
84.7 -0.01333
84.75 -0.01258
84.8 -0.0076
84.85 -0.0029
84.9 0.00176
84.95 0.00236
85 -0.00138
85.05 -0.00652
85.1 -0.01218
85.15 -0.01456
85.2 -0.01066
85.25 -0.01019
85.3 -0.00534
85.35 -0.00104
85.4 -0.00155
85.45 -0.00248
85.5 -0.00355
85.55 -0.00668
85.6 -0.00412
85.65 -0.00146
85.7 -0.00248
85.75 -0.00327
85.8 -0.00031
85.85 -0.003
85.9 -0.00515
85.95 -0.00249
86 0.00349
86.05 0.00424
86.1 0.00642
86.15 0.00838
86.2 0.00862
86.25 0.00662
86.3 0.00208
86.35 -0.00272
86.4 -0.00374
86.45 -0.00024
86.5 -0.00095
86.55 -0.00172
86.6 -0.00194
86.65 -0.00622
86.7 -0.00871
86.75 -0.00673
86.8 -0.00198
86.85 0.00242
86.9 0.00134
86.95 -0.00154
87 -0.00136
87.05 0.00232
87.1 0.00402
87.15 0.00542
87.2 0.0043
87.25 0.00542
87.3 0.00568
87.35 0.00279
87.4 0.00229
87.45 0.00398
87.5 0.00016
87.55 -0.00266
87.6 -0.00703
87.65 -0.00601
87.7 -0.00798
87.75 -0.00744
87.8 -0.00375
87.85 0.00204
87.9 0.00481
87.95 0.00407
88 0.00569
88.05 0.00254
88.1 0.00306
88.15 0.00224
88.2 0.00288
88.25 0.00617
88.3 0.01208
88.35 0.01179
88.4 0.01057
88.45 0.00631
88.5 0.00389
88.55 0.00606
88.6 0.00357
88.65 -0.00329
88.7 -0.00715
88.75 -0.00471
88.8 -0.00225
88.85 0.00338
88.9 0.00343
88.95 0.00293
89 0.00145
89.05 -0.00233
89.1 -0.00429
89.15 -0.00866
89.2 -0.00772
89.25 -0.00712
89.3 -0.00385
89.35 0.00228
89.4 0.00844
89.45 0.01571
89.5 0.01523
89.55 0.00885
89.6 0.00429
89.65 -0.00137
89.7 -0.00729
89.75 -0.00934
89.8 -0.00886
89.85 -0.00497
89.9 -0.00442
89.95 -0.0048
90 -0.00216
90.05 -0.00186
90.1 -0.00239
90.15 -0.0005
90.2 0.0043
90.25 0.00893
90.3 0.01037
90.35 0.01162
90.4 0.0096
90.45 0.00669
90.5 0.002
90.55 0.00108
90.6 -0.00034
90.65 -0.00555
90.7 -0.00653
90.75 -0.00399
90.8 -0.00167
90.85 -0.00423
90.9 -0.00399
90.95 -0.00146
91 0.00087
91.05 0.00367
91.1 0.00603
91.15 0.00579
91.2 0.00636
91.25 0.00769
91.3 0.00721
91.35 0.00416
91.4 0.00247
91.45 -0.00141
91.5 -0.00705
91.55 -0.01321
91.6 -0.02084
91.65 -0.02208
91.7 -0.02052
91.75 -0.01358
91.8 -0.00477
91.85 0.00525
91.9 0.01316
91.95 0.01872
92 0.02282
92.05 0.02424
92.1 0.02186
92.15 0.0151
92.2 0.00586
92.25 0.00006
92.3 -0.00083
92.35 -0.00257
92.4 0.00012
92.45 -0.00115
92.5 0.00079
92.55 -0.00136
92.6 0.00009
92.65 0.00235
92.7 0.00603
92.75 0.01145
92.8 0.01166
92.85 0.01488
92.9 0.01891
92.95 0.01892
93 0.01704
93.05 0.01042
93.1 0.00176
93.15 -0.00248
93.2 -0.00702
93.25 -0.00692
93.3 -0.00867
93.35 -0.00693
93.4 -0.0089
93.45 -0.01132
93.5 -0.01691
93.55 -0.01668
93.6 -0.01544
93.65 -0.01314
93.7 -0.00961
93.75 -0.00896
93.8 -0.00991
93.85 -0.01272
93.9 -0.0118
93.95 -0.00642
94 -0.00693
94.05 -0.00504
94.1 -0.00238
94.15 -0.00257
94.2 -0.00021
94.25 0.00549
94.3 0.01128
94.35 0.01801
94.4 0.02399
94.45 0.02313
94.5 0.0194
94.55 0.0148
94.6 0.00779
94.65 -0.00148
94.7 -0.01232
94.75 -0.022
94.8 -0.02972
94.85 -0.03365
94.9 -0.03285
94.95 -0.02712
95 -0.01819
95.05 -0.00964
95.1 -0.00573
95.15 -0.00631
95.2 -0.01104
95.25 -0.01712
95.3 -0.02372
95.35 -0.02812
95.4 -0.02493
95.45 -0.01714
95.5 -0.01557
95.55 -0.01079
95.6 -0.00383
95.65 0.00508
95.7 0.00921
95.75 0.01214
95.8 0.01649
95.85 0.02021
95.9 0.01815
95.95 0.01373
96 0.01378
96.05 0.01458
96.1 0.01039
96.15 0.01042
96.2 0.01183
96.25 0.01344
96.3 0.01388
96.35 0.01363
96.4 0.01602
96.45 0.01442
96.5 0.00741
96.55 0.00009
96.6 -0.00769
96.65 -0.01379
96.7 -0.01497
96.75 -0.01326
96.8 -0.00765
96.85 -0.00135
96.9 -0.00013
96.95 -0.00201
97 0.00027
97.05 -0.00236
97.1 -0.00274
97.15 -0.00696
97.2 -0.01251
97.25 -0.01602
97.3 -0.01743
97.35 -0.0151
97.4 -0.01247
97.45 -0.00964
97.5 -0.00945
97.55 -0.01164
97.6 -0.01438
97.65 -0.01551
97.7 -0.01239
97.75 -0.01135
97.8 -0.00666
97.85 -0.00073
97.9 -0.0005
97.95 -0.00229
98 0.00051
98.05 0.00568
98.1 0.01078
98.15 0.01212
98.2 0.01571
98.25 0.01235
98.3 0.00912
98.35 0.00562
98.4 0.00702
98.45 0.00583
98.5 -0.00005
98.55 -0.00115
98.6 -0.00234
98.65 -0.00164
98.7 0.00063
98.75 0.00318
98.8 0.00487
98.85 0.00344
98.9 -0.00151
98.95 -0.00776
99 -0.00751
99.05 -0.0071
99.1 -0.00682
99.15 -0.00182
99.2 -0.00068
99.25 -0.00135
99.3 -0.00642
99.35 -0.00876
99.4 -0.00765
99.45 -0.01061
99.5 -0.01186
99.55 -0.00837
99.6 -0.00492
99.65 -0.0003
99.7 0.00572
99.75 0.01102
99.8 0.01647
99.85 0.02186
99.9 0.02058
99.95 0.01743
