0 0
0.05 0.00599
0.1 0.01066
0.15 0.01429
0.2 0.01927
0.25 0.02233
0.3 0.02518
0.35 0.02616
0.4 0.02979
0.45 0.03403
0.5 0.0381
0.55 0.0422
0.6 0.04884
0.65 0.0516
0.7 0.05269
0.75 0.04886
0.8 0.04596
0.85 0.04046
0.9 0.0375
0.95 0.04042
1 0.04614
1.05 0.05019
1.1 0.05516
1.15 0.0613
1.2 0.06291
1.25 0.05765
1.3 0.04911
1.35 0.04219
1.4 0.03495
1.45 0.02805
1.5 0.02015
1.55 0.02098
1.6 0.02206
1.65 0.02727
1.7 0.03079
1.75 0.03022
1.8 0.0317
1.85 0.03588
1.9 0.03536
1.95 0.03593
2 0.03162
2.05 0.03214
2.1 0.03149
2.15 0.03143
2.2 0.03569
2.25 0.03421
2.3 0.03147
2.35 0.03268
2.4 0.03248
2.45 0.02768
2.5 0.02666
2.55 0.02321
2.6 0.0187
2.65 0.02136
2.7 0.02196
2.75 0.01903
2.8 0.01549
2.85 0.01015
2.9 0.00758
2.95 0.0106
3 0.01561
3.05 0.01831
3.1 0.02027
3.15 0.02388
3.2 0.03023
3.25 0.03788
3.3 0.03937
3.35 0.03626
3.4 0.03584
3.45 0.03126
3.5 0.03103
3.55 0.02715
3.6 0.02038
3.65 0.01597
3.7 0.01509
3.75 0.01615
3.8 0.02078
3.85 0.01907
3.9 0.02146
3.95 0.01888
4 0.02154
4.05 0.0231
4.1 0.02004
4.15 0.01971
4.2 0.01414
4.25 0.00565
4.3 -0.00241
4.35 -0.00861
4.4 -0.00936
4.45 -0.00725
4.5 -0.01191
4.55 -0.01586
4.6 -0.01985
4.65 -0.03096
4.7 -0.04552
4.75 -0.06596
4.8 -0.09108
4.85 -0.11732
4.9 -0.1519
4.95 -0.19121
5 -0.23506
5.05 -0.28197
5.1 -0.33121
5.15 -0.38201
5.2 -0.44376
5.25 -0.514
5.3 -0.589
5.35 -0.66635
5.4 -0.75041
5.45 -0.83896
5.5 -0.93284
5.55 -1.02937
5.6 -1.12577
5.65 -1.22652
5.7 -1.32337
5.75 -1.41498
5.8 -1.50659
5.85 -1.59479
5.9 -1.67844
5.95 -1.7625
6 -1.84193
6.05 -1.91407
6.1 -1.98675
6.15 -2.05806
6.2 -2.11935
6.25 -2.17708
6.3 -2.22692
6.35 -2.267
6.4 -2.30335
6.45 -2.33584
6.5 -2.36342
6.55 -2.38395
6.6 -2.39248
6.65 -2.38709
6.7 -2.36509
6.75 -2.3318
6.8 -2.28536
6.85 -2.22761
6.9 -2.1493
6.95 -2.05933
7 -1.95064
7.05 -1.8281
7.1 -1.69513
7.15 -1.5487
7.2 -1.38751
7.25 -1.21767
7.3 -1.03146
7.35 -0.84233
7.4 -0.64542
7.45 -0.44724
7.5 -0.24655
7.55 -0.04375
7.6 0.15741
7.65 0.35219
7.7 0.54299
7.75 0.7232
7.8 0.89718
7.85 1.06204
7.9 1.21551
7.95 1.35004
8 1.47088
8.05 1.58061
8.1 1.67668
8.15 1.76042
8.2 1.83461
8.25 1.90173
8.3 1.95674
8.35 2.00005
8.4 2.03409
8.45 2.06533
8.5 2.09317
8.55 2.11519
8.6 2.12655
8.65 2.13484
8.7 2.13572
8.75 2.12898
8.8 2.11369
8.85 2.09959
8.9 2.083
8.95 2.06373
9 2.0439
9.05 2.02693
9.1 2.00493
9.15 1.98621
9.2 1.9649
9.25 1.93959
9.3 1.91411
9.35 1.88884
9.4 1.85893
9.45 1.83387
9.5 1.81078
9.55 1.78219
9.6 1.75312
9.65 1.72897
9.7 1.7042
9.75 1.67906
9.8 1.65367
9.85 1.6234
9.9 1.58934
9.95 1.55426
10 1.52338
10.05 1.48742
10.1 1.45329
10.15 1.41664
10.2 1.38467
10.25 1.35418
10.3 1.3194
10.35 1.28633
10.4 1.24669
10.45 1.20163
10.5 1.15923
10.55 1.11738
10.6 1.07362
10.65 1.031
10.7 0.98808
10.75 0.946
10.8 0.90388
10.85 0.85739
10.9 0.81072
10.95 0.76656
11 0.72353
11.05 0.68243
11.1 0.63794
11.15 0.59298
11.2 0.54602
11.25 0.50044
11.3 0.46112
11.35 0.4284
11.4 0.39192
11.45 0.36013
11.5 0.32471
11.55 0.28693
11.6 0.25435
11.65 0.21871
11.7 0.18327
11.75 0.15422
11.8 0.12203
11.85 0.08879
11.9 0.06312
11.95 0.03802
12 0.00994
12.05 -0.01583
12.1 -0.04346
12.15 -0.07164
12.2 -0.09318
12.25 -0.11693
12.3 -0.13284
12.35 -0.15218
12.4 -0.1725
12.45 -0.19161
12.5 -0.20936
12.55 -0.22129
12.6 -0.2295
12.65 -0.23387
12.7 -0.24317
12.75 -0.25573
12.8 -0.26866
12.85 -0.28416
12.9 -0.29679
12.95 -0.31006
13 -0.32239
13.05 -0.32612
13.1 -0.32643
13.15 -0.328
13.2 -0.32612
13.25 -0.32704
13.3 -0.32609
13.35 -0.32902
13.4 -0.33577
13.45 -0.34507
13.5 -0.35218
13.55 -0.35773
13.6 -0.35596
13.65 -0.35507
13.7 -0.35264
13.75 -0.3518
13.8 -0.35
13.85 -0.34414
13.9 -0.34399
13.95 -0.34175
14 -0.34183
14.05 -0.33986
14.1 -0.33462
14.15 -0.33317
14.2 -0.32739
14.25 -0.32255
14.3 -0.31904
14.35 -0.31753
14.4 -0.31355
14.45 -0.31368
14.5 -0.31632
14.55 -0.31224
14.6 -0.30554
14.65 -0.30062
14.7 -0.29391
14.75 -0.28685
14.8 -0.2783
14.85 -0.27446
14.9 -0.27581
14.95 -0.27423
15 -0.27293
15.05 -0.2699
15.1 -0.27107
15.15 -0.27407
15.2 -0.27488
15.25 -0.27088
15.3 -0.26451
15.35 -0.26141
15.4 -0.25788
15.45 -0.25493
15.5 -0.24693
15.55 -0.24073
15.6 -0.23172
15.65 -0.2254
15.7 -0.21946
15.75 -0.21383
15.8 -0.21185
15.85 -0.20664
15.9 -0.20484
15.95 -0.20629
16 -0.21041
16.05 -0.20843
16.1 -0.20702
16.15 -0.20432
16.2 -0.19686
16.25 -0.18801
16.3 -0.17816
16.35 -0.17143
16.4 -0.16913
16.45 -0.16492
16.5 -0.16354
16.55 -0.16411
16.6 -0.16159
16.65 -0.1648
16.7 -0.16317
16.75 -0.16371
16.8 -0.16583
16.85 -0.16822
16.9 -0.16878
16.95 -0.16612
17 -0.16634
17.05 -0.16404
17.1 -0.16147
17.15 -0.15352
17.2 -0.1486
17.25 -0.1489
17.3 -0.14652
17.35 -0.14474
17.4 -0.14447
17.45 -0.14739
17.5 -0.14443
17.55 -0.14467
17.6 -0.14074
17.65 -0.13627
17.7 -0.12993
17.75 -0.1268
17.8 -0.1258
17.85 -0.12487
17.9 -0.12538
17.95 -0.1213
18 -0.11726
18.05 -0.1158
18.1 -0.1097
18.15 -0.10898
18.2 -0.10749
18.25 -0.10307
18.3 -0.10026
18.35 -0.09447
18.4 -0.09451
18.45 -0.09388
18.5 -0.09637
18.55 -0.09501
18.6 -0.09478
18.65 -0.09271
18.7 -0.09113
18.75 -0.09002
18.8 -0.08406
18.85 -0.07656
18.9 -0.07457
18.95 -0.07232
19 -0.07306
19.05 -0.07011
19.1 -0.06403
19.15 -0.05709
19.2 -0.05757
19.25 -0.05923
19.3 -0.05945
19.35 -0.05946
19.4 -0.05684
19.45 -0.05272
19.5 -0.05196
19.55 -0.05262
19.6 -0.05107
19.65 -0.05
19.7 -0.04934
19.75 -0.05443
19.8 -0.06039
19.85 -0.06826
19.9 -0.07481
19.95 -0.07736
20 -0.07578
20.05 -0.07355
20.1 -0.06766
20.15 -0.06017
20.2 -0.05336
20.25 -0.04659
20.3 -0.0415
20.35 -0.03485
20.4 -0.03548
20.45 -0.03419
20.5 -0.03188
20.55 -0.02736
20.6 -0.02734
20.65 -0.02621
20.7 -0.02957
20.75 -0.03089
20.8 -0.03214
20.85 -0.03646
20.9 -0.0415
20.95 -0.04171
21 -0.04129
21.05 -0.04516
21.1 -0.04453
21.15 -0.04086
21.2 -0.04027
21.25 -0.04402
21.3 -0.04622
21.35 -0.05044
21.4 -0.05492
21.45 -0.05582
21.5 -0.05399
21.55 -0.04764
21.6 -0.04594
21.65 -0.04706
21.7 -0.04893
21.75 -0.04561
21.8 -0.0467
21.85 -0.04406
21.9 -0.04459
21.95 -0.04574
22 -0.04738
22.05 -0.04258
22.1 -0.03835
22.15 -0.03763
22.2 -0.03597
22.25 -0.03751
22.3 -0.04198
22.35 -0.04183
22.4 -0.04212
22.45 -0.03809
22.5 -0.03373
22.55 -0.03265
22.6 -0.03267
22.65 -0.03555
22.7 -0.03256
22.75 -0.03149
22.8 -0.02979
22.85 -0.02826
22.9 -0.02348
22.95 -0.02212
23 -0.01675
23.05 -0.01088
23.1 -0.00578
23.15 -0.00743
23.2 -0.00745
23.25 -0.00469
23.3 -0.00663
23.35 -0.00994
23.4 -0.01752
23.45 -0.02302
23.5 -0.02331
23.55 -0.02186
23.6 -0.02123
23.65 -0.02529
23.7 -0.02957
23.75 -0.03386
23.8 -0.03357
23.85 -0.03397
23.9 -0.03152
23.95 -0.03306
24 -0.03295
24.05 -0.03422
24.1 -0.03733
24.15 -0.04005
24.2 -0.03699
24.25 -0.03373
24.3 -0.03359
24.35 -0.03332
24.4 -0.03213
24.45 -0.03032
24.5 -0.02319
24.55 -0.02211
24.6 -0.0231
24.65 -0.0199
24.7 -0.01658
24.75 -0.01369
24.8 -0.01202
24.85 -0.01274
24.9 -0.00943
24.95 -0.00959
25 -0.00724
25.05 -0.00265
25.1 -0.00167
25.15 0.00014
25.2 0.00449
25.25 0.00798
25.3 0.01255
25.35 0.01243
25.4 0.01164
25.45 0.01237
25.5 0.01028
25.55 0.00962
25.6 0.00981
25.65 0.008
25.7 0.00372
25.75 -0.0046
25.8 -0.01414
25.85 -0.01986
25.9 -0.0208
25.95 -0.01805
26 -0.01301
26.05 -0.01057
26.1 -0.00454
26.15 -0.00262
26.2 -0.00361
26.25 -0.00143
26.3 -0.00278
26.35 -0.00106
26.4 -0.00172
26.45 -0.00009
26.5 -0.00138
26.55 0.0001
26.6 0.0033
26.65 0.0006
26.7 -0.00544
26.75 -0.01362
26.8 -0.02174
26.85 -0.02285
26.9 -0.019
26.95 -0.01169
27 -0.00653
27.05 -0.00758
27.1 -0.01027
27.15 -0.01552
27.2 -0.02116
27.25 -0.02111
27.3 -0.01553
27.35 -0.01048
27.4 -0.00877
27.45 -0.00699
27.5 -0.01002
27.55 -0.01549
27.6 -0.01576
27.65 -0.01837
27.7 -0.01475
27.75 -0.00739
27.8 -0.00406
27.85 -0.00033
27.9 0.00226
27.95 0.00166
28 0.0051
28.05 0.00642
28.1 0.00924
28.15 0.00932
28.2 0.01031
28.25 0.00459
28.3 0.0032
28.35 0.00445
28.4 0.00717
28.45 0.00292
28.5 0.00065
28.55 0.00059
28.6 -0.00251
28.65 -0.00488
28.7 -0.0113
28.75 -0.01693
28.8 -0.02668
28.85 -0.03288
28.9 -0.03983
28.95 -0.04564
29 -0.04996
29.05 -0.05304
29.1 -0.06031
29.15 -0.06599
29.2 -0.06994
29.25 -0.07422
29.3 -0.08027
29.35 -0.085
29.4 -0.09304
29.45 -0.09803
29.5 -0.10115
29.55 -0.10615
29.6 -0.1111
29.65 -0.12037
29.7 -0.12669
29.75 -0.13528
29.8 -0.1465
29.85 -0.15531
29.9 -0.16879
29.95 -0.17815
30 -0.18356
30.05 -0.18737
30.1 -0.19087
30.15 -0.19067
30.2 -0.19616
30.25 -0.19683
30.3 -0.19923
30.35 -0.20498
30.4 -0.21072
30.45 -0.20882
30.5 -0.20706
30.55 -0.20397
30.6 -0.19539
30.65 -0.18377
30.7 -0.17637
30.75 -0.16605
30.8 -0.15113
30.85 -0.14005
30.9 -0.12681
30.95 -0.11055
31 -0.09783
31.05 -0.08121
31.1 -0.06575
31.15 -0.0488
31.2 -0.0314
31.25 -0.0158
31.3 -0.00312
31.35 0.0078
31.4 0.01676
31.45 0.02465
31.5 0.03466
31.55 0.04415
31.6 0.05723
31.65 0.06924
31.7 0.08301
31.75 0.09795
31.8 0.11529
31.85 0.12751
31.9 0.142
31.95 0.15112
32 0.15746
32.05 0.15959
32.1 0.16188
32.15 0.1666
32.2 0.17463
32.25 0.184
32.3 0.19239
32.35 0.19365
32.4 0.19723
32.45 0.19745
32.5 0.19613
32.55 0.19766
32.6 0.20317
32.65 0.20345
32.7 0.20345
32.75 0.2045
32.8 0.20497
32.85 0.20471
32.9 0.19864
32.95 0.19072
33 0.18717
33.05 0.18379
33.1 0.1783
33.15 0.17566
33.2 0.17008
33.25 0.16059
33.3 0.15443
33.35 0.14912
33.4 0.14713
33.45 0.14673
33.5 0.1486
33.55 0.14662
33.6 0.13918
33.65 0.12761
33.7 0.12195
33.75 0.11904
33.8 0.11907
33.85 0.11754
33.9 0.11466
33.95 0.11398
34 0.10549
34.05 0.10072
34.1 0.09409
34.15 0.09029
34.2 0.08513
34.25 0.0814
34.3 0.0747
34.35 0.071
34.4 0.06779
34.45 0.0617
34.5 0.05525
34.55 0.05251
34.6 0.04624
34.65 0.04252
34.7 0.03614
34.75 0.0276
34.8 0.01992
34.85 0.01032
34.9 0.00671
34.95 0.00684
35 0.00262
35.05 0.00375
35.1 0.00609
35.15 0.00483
35.2 0.00741
35.25 0.00391
35.3 0.0043
35.35 0.0017
35.4 -0.0046
35.45 -0.00516
35.5 -0.00963
35.55 -0.01447
35.6 -0.01475
35.65 -0.01067
35.7 -0.0051
35.75 -0.00547
35.8 -0.00601
35.85 -0.00796
35.9 -0.00598
35.95 -0.00383
36 -0.00399
36.05 -0.0013
36.1 0.00105
36.15 -0.00223
36.2 -0.00467
36.25 -0.00873
36.3 -0.01145
36.35 -0.01027
36.4 -0.00858
36.45 -0.00762
36.5 -0.00513
36.55 -0.00144
36.6 -0.00232
36.65 -0.00276
36.7 -0.0066
36.75 -0.00946
36.8 -0.01135
36.85 -0.01759
36.9 -0.02585
36.95 -0.02736
37 -0.027
37.05 -0.02625
37.1 -0.0251
37.15 -0.02706
37.2 -0.02614
37.25 -0.02934
37.3 -0.03465
37.35 -0.04024
37.4 -0.04446
37.45 -0.048
37.5 -0.05121
37.55 -0.05098
37.6 -0.04997
37.65 -0.05158
37.7 -0.05428
37.75 -0.05515
37.8 -0.05593
37.85 -0.052
37.9 -0.04522
37.95 -0.04298
38 -0.04318
38.05 -0.04556
38.1 -0.04742
38.15 -0.04684
38.2 -0.04354
38.25 -0.03674
38.3 -0.02683
38.35 -0.02442
38.4 -0.02401
38.45 -0.02101
38.5 -0.01877
38.55 -0.01822
38.6 -0.01999
38.65 -0.02364
38.7 -0.02443
38.75 -0.02176
38.8 -0.02295
38.85 -0.02017
38.9 -0.0222
38.95 -0.02484
39 -0.02514
39.05 -0.0251
39.1 -0.02115
39.15 -0.02094
39.2 -0.01838
39.25 -0.01987
39.3 -0.02232
39.35 -0.02354
39.4 -0.02386
39.45 -0.02745
39.5 -0.03272
39.55 -0.03626
39.6 -0.03407
39.65 -0.02789
39.7 -0.02257
39.75 -0.01764
39.8 -0.01792
39.85 -0.01565
39.9 -0.01846
39.95 -0.02278
40 -0.02197
40.05 -0.0235
40.1 -0.02697
40.15 -0.02888
40.2 -0.03117
40.25 -0.03445
40.3 -0.03639
40.35 -0.03983
40.4 -0.03691
40.45 -0.03711
40.5 -0.03778
40.55 -0.03648
40.6 -0.03539
40.65 -0.03549
40.7 -0.03769
40.75 -0.03614
40.8 -0.03735
40.85 -0.03791
40.9 -0.03422
40.95 -0.03053
41 -0.02911
41.05 -0.02366
41.1 -0.01926
41.15 -0.0141
41.2 -0.00976
41.25 -0.00301
41.3 0.00209
41.35 0.00347
41.4 0.00805
41.45 0.00813
41.5 0.00764
41.55 0.00629
41.6 0.00069
41.65 -0.00617
41.7 -0.0113
41.75 -0.01019
41.8 -0.01239
41.85 -0.01161
41.9 -0.01318
41.95 -0.01062
42 -0.00398
42.05 -0.00228
42.1 -0.00144
42.15 0.00048
42.2 0.00555
42.25 0.004
42.3 0.00671
42.35 0.01026
42.4 0.01275
42.45 0.01698
42.5 0.01447
42.55 0.00793
42.6 0.00034
42.65 -0.00429
42.7 -0.0042
42.75 -0.00695
42.8 -0.00867
42.85 -0.00521
42.9 -0.0012
42.95 0.00221
43 0.00449
43.05 0.00508
43.1 0.00809
43.15 0.00552
43.2 0.00532
43.25 0.00476
43.3 0.00668
43.35 0.00772
43.4 0.00839
43.45 0.00744
43.5 0.01031
43.55 0.0155
43.6 0.01945
43.65 0.0183
43.7 0.02018
43.75 0.02361
43.8 0.02004
43.85 0.01949
43.9 0.01629
43.95 0.0132
44 0.01323
44.05 0.01355
44.1 0.00762
44.15 -0.00083
44.2 -0.00968
44.25 -0.01365
44.3 -0.02025
44.35 -0.02194
44.4 -0.02035
44.45 -0.021
44.5 -0.01908
44.55 -0.01805
44.6 -0.01328
44.65 -0.00922
44.7 -0.003
44.75 0.00024
44.8 -0.00094
44.85 -0.00636
44.9 -0.01362
44.95 -0.01885
45 -0.02411
45.05 -0.02959
45.1 -0.03233
45.15 -0.03215
45.2 -0.03345
45.25 -0.02787
45.3 -0.02048
45.35 -0.00966
45.4 -0.0049
45.45 -0.00274
45.5 -0.00105
45.55 0.0042
45.6 0.01023
45.65 0.01254
45.7 0.01268
45.75 0.00916
45.8 0.0064
45.85 0.00686
45.9 0.01096
45.95 0.00977
46 0.01102
46.05 0.01482
46.1 0.01363
46.15 0.00829
46.2 0.00325
46.25 -0.00006
46.3 -0.0041
46.35 -0.00542
46.4 -0.00529
46.45 -0.00482
46.5 -0.00657
46.55 -0.01061
46.6 -0.01443
46.65 -0.01469
46.7 -0.0156
46.75 -0.0127
46.8 -0.01108
46.85 -0.00905
46.9 -0.00672
46.95 -0.00808
47 -0.01246
47.05 -0.01802
47.1 -0.01866
47.15 -0.01789
47.2 -0.01283
47.25 -0.01291
47.3 -0.01231
47.35 -0.01328
47.4 -0.01153
47.45 -0.00717
47.5 -0.00023
47.55 0.00358
47.6 0.00808
47.65 0.01216
47.7 0.01239
47.75 0.01541
47.8 0.01515
47.85 0.00962
47.9 0.00645
47.95 0.00482
48 0.00443
48.05 0.00145
48.1 -0.00059
48.15 -0.00625
48.2 -0.00562
48.25 -0.00199
48.3 0.00157
48.35 0.00434
48.4 0.00403
48.45 0.00332
48.5 0.00707
48.55 0.00506
48.6 0.00402
48.65 -0.00113
48.7 -0.00083
48.75 0.00348
48.8 0.00182
48.85 0.00061
48.9 0.00363
48.95 0.0055
49 0.00693
49.05 0.0097
49.1 0.01514
49.15 0.02156
49.2 0.02429
49.25 0.02403
49.3 0.0205
49.35 0.02024
49.4 0.01378
49.45 0.00488
49.5 -0.00018
49.55 -0.00606
49.6 -0.00553
49.65 -0.00448
49.7 -0.00143
49.75 0.0002
49.8 0.00493
49.85 0.00506
49.9 0.00449
49.95 -0.00003
50 0.00086
50.05 0.00337
50.1 0.00392
50.15 0.00209
50.2 0.00455
50.25 0.00238
50.3 -0.00037
50.35 -0.00556
50.4 -0.00886
50.45 -0.01325
50.5 -0.01688
50.55 -0.02172
50.6 -0.02189
50.65 -0.01803
50.7 -0.01691
50.75 -0.01264
50.8 -0.0091
50.85 -0.0056
50.9 0.00113
50.95 0.00128
51 0.00453
51.05 0.00608
51.1 0.00985
51.15 0.01362
51.2 0.01492
51.25 0.01604
51.3 0.01845
51.35 0.01368
51.4 0.00712
51.45 -0.00151
51.5 -0.00572
51.55 -0.00459
51.6 -0.0005
51.65 -0.00182
51.7 -0.00435
51.75 -0.00993
51.8 -0.01387
51.85 -0.01908
51.9 -0.02174
51.95 -0.01776
52 -0.01092
52.05 -0.00753
52.1 -0.00711
52.15 -0.00458
52.2 -0.00142
52.25 -0.00232
52.3 -0.00194
52.35 -0.00356
52.4 -0.00217
52.45 0.00242
52.5 0.0027
52.55 0.00228
52.6 -0.00236
52.65 -0.00953
52.7 -0.00951
52.75 -0.01011
52.8 -0.00958
52.85 -0.0044
52.9 0.00286
52.95 0.01167
53 0.02007
53.05 0.02481
53.1 0.02468
53.15 0.02299
53.2 0.02355
53.25 0.02297
53.3 0.01628
53.35 0.00925
53.4 0.00088
53.45 -0.0058
53.5 -0.01384
53.55 -0.01931
53.6 -0.02555
53.65 -0.02659
53.7 -0.02575
53.75 -0.02537
53.8 -0.0203
53.85 -0.01379
53.9 -0.01181
53.95 -0.01105
54 -0.00794
54.05 -0.00538
54.1 -0.00029
54.15 -0.00139
54.2 -0.00644
54.25 -0.00912
54.3 -0.01408
54.35 -0.01868
54.4 -0.02364
54.45 -0.029
54.5 -0.0276
54.55 -0.02287
54.6 -0.01942
54.65 -0.01672
54.7 -0.01548
54.75 -0.01423
54.8 -0.00834
54.85 -0.00491
54.9 -0.00203
54.95 0.0013
55 0.00642
55.05 0.01163
55.1 0.01697
55.15 0.01865
55.2 0.02264
55.25 0.02258
55.3 0.02399
55.35 0.02521
55.4 0.02635
55.45 0.0253
55.5 0.01846
55.55 0.01455
55.6 0.00927
55.65 0.00682
55.7 0.00506
55.75 0.00507
55.8 0.00144
55.85 -0.00121
55.9 -0.00479
55.95 -0.00597
56 -0.00279
56.05 0.00193
56.1 0.0081
56.15 0.01153
56.2 0.00901
56.25 0.00547
56.3 0.00413
56.35 0.0031
56.4 0.00365
56.45 0.00114
56.5 0.00045
56.55 -0.0046
56.6 -0.00861
56.65 -0.00885
56.7 -0.00504
56.75 0.00071
56.8 -0.00057
56.85 0.00231
56.9 0.0009
56.95 0.00325
57 0.0072
57.05 0.01104
57.1 0.01633
57.15 0.01687
57.2 0.01981
57.25 0.02043
57.3 0.02248
57.35 0.02106
57.4 0.01373
57.45 0.00888
57.5 0.00316
57.55 -0.00352
57.6 -0.01067
57.65 -0.01174
57.7 -0.0126
57.75 -0.00812
57.8 -0.00122
57.85 0.00583
57.9 0.01199
57.95 0.01793
58 0.01898
58.05 0.01552
58.1 0.0097
58.15 0.00598
58.2 0.00231
58.25 -0.002
58.3 -0.00884
58.35 -0.00973
58.4 -0.0107
58.45 -0.0102
58.5 -0.00825
58.55 -0.00667
58.6 -0.00608
58.65 -0.00128
58.7 0.00039
58.75 0.00404
58.8 0.001
58.85 0.00251
58.9 0.00229
58.95 -0.00219
59 -0.00398
59.05 -0.0088
59.1 -0.01486
59.15 -0.02105
59.2 -0.02803
59.25 -0.02681
59.3 -0.02406
59.35 -0.01681
59.4 -0.01133
59.45 -0.0063
59.5 0.00096
59.55 0.00929
59.6 0.01052
59.65 0.01457
59.7 0.01552
59.75 0.01316
59.8 0.01394
59.85 0.014
59.9 0.01697
59.95 0.01986
60 0.02077
60.05 0.02353
60.1 0.02435
60.15 0.01779
60.2 0.00796
60.25 -0.00255
60.3 -0.01414
60.35 -0.01871
60.4 -0.02186
60.45 -0.02541
60.5 -0.02468
60.55 -0.01915
60.6 -0.00974
60.65 -0.00512
60.7 -0.00176
60.75 -0.00073
60.8 0.00314
60.85 0.00146
60.9 0.00304
60.95 -0.00085
61 -0.00632
61.05 -0.00937
61.1 -0.00708
61.15 -0.00823
61.2 -0.00654
61.25 -0.00927
61.3 -0.0094
61.35 -0.00948
61.4 -0.01272
61.45 -0.01512
61.5 -0.01176
61.55 -0.00807
61.6 -0.00249
61.65 0.00295
61.7 0.0046
61.75 0.00952
61.8 0.0092
61.85 0.00424
61.9 -0.00106
61.95 -0.00268
62 -0.00221
62.05 0.00124
62.1 0.00575
62.15 0.00708
62.2 0.0028
62.25 0.0026
62.3 -0.00141
62.35 -0.00556
62.4 -0.01205
62.45 -0.01347
62.5 -0.01386
62.55 -0.01673
62.6 -0.01562
62.65 -0.01329
62.7 -0.00735
62.75 -0.00316
62.8 -0.00009
62.85 0.00102
62.9 -0.00128
62.95 -0.0065
63 -0.00917
63.05 -0.01281
63.1 -0.01174
63.15 -0.01111
63.2 -0.00736
63.25 -0.00227
63.3 0.00388
63.35 0.00434
63.4 0.00469
63.45 0.0023
63.5 -0.00153
63.55 -0.00381
63.6 -0.00896
63.65 -0.00743
63.7 -0.00753
63.75 -0.01003
63.8 -0.0095
63.85 -0.00693
63.9 -0.00483
63.95 -0.00752
64 -0.01142
64.05 -0.01103
64.1 -0.00617
64.15 -0.00273
64.2 0.00054
64.25 0.00063
64.3 -0.00238
64.35 -0.00107
64.4 -0.00331
64.45 -0.00701
64.5 -0.00667
64.55 -0.00732
64.6 -0.00897
64.65 -0.01184
64.7 -0.01149
64.75 -0.00726
64.8 -0.00761
64.85 -0.00431
64.9 0.00063
64.95 0.00615
65 0.00926
65.05 0.0067
65.1 0.00653
65.15 0.00448
65.2 -0.00018
65.25 0.00066
65.3 -0.00056
65.35 0.00174
65.4 0.00728
65.45 0.01225
65.5 0.01449
65.55 0.01831
65.6 0.02302
65.65 0.02141
65.7 0.01762
65.75 0.01773
65.8 0.01966
65.85 0.02181
65.9 0.02229
65.95 0.01802
66 0.01582
66.05 0.01187
66.1 0.01034
66.15 0.00516
66.2 -0.00128
66.25 -0.01009
66.3 -0.01162
66.35 -0.0158
66.4 -0.01748
66.45 -0.02011
66.5 -0.01912
66.55 -0.01551
66.6 -0.01573
66.65 -0.01699
66.7 -0.01881
66.75 -0.01883
66.8 -0.02112
66.85 -0.02015
66.9 -0.02089
66.95 -0.02427
67 -0.01977
67.05 -0.01535
67.1 -0.01483
67.15 -0.01212
67.2 -0.0061
67.25 0.00078
67.3 0.00586
67.35 0.01133
67.4 0.01033
67.45 0.00954
67.5 0.0126
67.55 0.0102
67.6 0.01056
67.65 0.00809
67.7 0.00405
67.75 0.00518
67.8 0.00121
67.85 -0.00449
67.9 -0.00813
67.95 -0.00838
68 -0.00934
68.05 -0.00639
68.1 -0.00263
68.15 -0.00079
68.2 0.00472
68.25 0.0071
68.3 0.00764
68.35 0.00307
68.4 -0.0046
68.45 -0.00825
68.5 -0.00759
68.55 -0.00722
68.6 -0.00637
68.65 -0.00982
68.7 -0.01439
68.75 -0.01727
68.8 -0.01386
68.85 -0.00719
68.9 -0.00558
68.95 -0.00691
69 -0.00972
69.05 -0.00686
69.1 -0.0033
69.15 0.00201
69.2 0.00339
69.25 0.00595
69.3 0.00795
69.35 0.01307
69.4 0.01771
69.45 0.0219
69.5 0.02202
69.55 0.02475
69.6 0.02595
69.65 0.02207
69.7 0.01594
69.75 0.01501
69.8 0.01262
69.85 0.00627
69.9 -0.00202
69.95 -0.00919
70 -0.01031
70.05 -0.00704
70.1 -0.00482
70.15 -0.00724
70.2 -0.00363
70.25 -0.00459
70.3 -0.00436
70.35 -0.00692
70.4 -0.00602
70.45 -0.00128
70.5 -0.00234
70.55 -0.00078
70.6 -0.00217
70.65 -0.00463
70.7 -0.00466
70.75 -0.00043
70.8 0.0067
70.85 0.01399
70.9 0.01925
70.95 0.02106
71 0.01989
71.05 0.01536
71.1 0.01287
71.15 0.01089
71.2 0.00556
71.25 0.00148
71.3 -0.00516
71.35 -0.00483
71.4 -0.00556
71.45 -0.00253
71.5 0.00254
71.55 0.00806
71.6 0.01453
71.65 0.01616
71.7 0.01981
71.75 0.02184
71.8 0.0174
71.85 0.01669
71.9 0.01701
71.95 0.01661
72 0.01396
72.05 0.00924
72.1 0.00789
72.15 0.00327
72.2 0.00079
72.25 -0.00177
72.3 0.00022
72.35 0.00434
72.4 0.00962
72.45 0.00798
72.5 0.00982
72.55 0.01283
72.6 0.01061
72.65 0.00852
72.7 0.00255
72.75 -0.00343
72.8 -0.00568
72.85 -0.00659
72.9 -0.00818
72.95 -0.01213
73 -0.01281
73.05 -0.01201
73.1 -0.00679
73.15 -0.00689
73.2 -0.00544
73.25 -0.00506
73.3 -0.00292
73.35 -0.00073
73.4 -0.00248
73.45 -0.00478
73.5 -0.00737
73.55 -0.0066
73.6 -0.0045
73.65 0.00151
73.7 0.00882
73.75 0.01511
73.8 0.0173
73.85 0.02117
73.9 0.0235
73.95 0.02396
74 0.01805
74.05 0.01109
74.1 0.00062
74.15 -0.00593
74.2 -0.01125
74.25 -0.01593
74.3 -0.01527
74.35 -0.00956
74.4 -0.00425
74.45 -0.00125
74.5 0.00156
74.55 -0.0003
74.6 -0.00402
74.65 -0.00856
74.7 -0.01075
74.75 -0.00976
74.8 -0.0088
74.85 -0.00614
74.9 -0.00783
74.95 -0.0063
75 -0.00861
75.05 -0.00943
75.1 -0.01369
75.15 -0.0187
75.2 -0.01884
75.25 -0.01575
75.3 -0.00868
75.35 -0.00598
75.4 -0.00526
75.45 -0.00058
75.5 0.00079
75.55 0.00246
75.6 0.00744
75.65 0.00739
75.7 0.0095
75.75 0.00915
75.8 0.01146
75.85 0.01221
75.9 0.01136
75.95 0.01365
76 0.00984
76.05 0.00697
76.1 0.00768
76.15 0.00584
76.2 0.0063
76.25 0.01005
76.3 0.01469
76.35 0.01978
76.4 0.02429
76.45 0.02818
76.5 0.03058
76.55 0.03219
76.6 0.0291
76.65 0.02348
76.7 0.01916
76.75 0.01545
76.8 0.00705
76.85 -0.00269
76.9 -0.0113
76.95 -0.0154
77 -0.02146
77.05 -0.02615
77.1 -0.03094
77.15 -0.03632
77.2 -0.03995
77.25 -0.04298
77.3 -0.04399
77.35 -0.04531
77.4 -0.04644
77.45 -0.04275
77.5 -0.03627
77.55 -0.03046
77.6 -0.02221
77.65 -0.01066
77.7 -0.00408
77.75 -0.00359
77.8 -0.00283
77.85 0.00003
77.9 0.0057
77.95 0.00795
78 0.01308
78.05 0.01634
78.1 0.02115
78.15 0.02662
78.2 0.02752
78.25 0.02852
78.3 0.0298
78.35 0.02856
78.4 0.02262
78.45 0.01288
78.5 0.00766
78.55 0.00717
78.6 0.00856
78.65 0.00968
78.7 0.01066
78.75 0.00653
78.8 0.00366
78.85 0.00172
78.9 -0.00164
78.95 -0.00686
79 -0.00801
79.05 -0.00411
79.1 0.00256
79.15 0.00589
79.2 0.00493
79.25 0.00224
79.3 -0.00045
79.35 -0.00632
79.4 -0.00839
79.45 -0.0121
79.5 -0.01628
79.55 -0.01487
79.6 -0.01715
79.65 -0.01794
79.7 -0.01975
79.75 -0.0213
79.8 -0.0223
79.85 -0.0194
79.9 -0.01749
79.95 -0.01922
80 -0.01798
80.05 -0.0149
80.1 -0.00755
80.15 -0.00415
80.2 -0.00116
80.25 -0.00099
80.3 -0.00339
80.35 -0.00627
80.4 -0.00639
80.45 -0.00965
80.5 -0.01017
80.55 -0.0052
80.6 0.0027
80.65 0.0115
80.7 0.01491
80.75 0.02011
80.8 0.01769
80.85 0.0182
80.9 0.01243
80.95 0.00583
81 -0.00337
81.05 -0.01181
81.1 -0.02027
81.15 -0.02405
81.2 -0.02179
81.25 -0.02244
81.3 -0.01896
81.35 -0.0181
81.4 -0.01771
81.45 -0.01667
81.5 -0.0166
81.55 -0.01116
81.6 -0.00484
81.65 0.00202
81.7 0.00361
81.75 0.00386
81.8 0.00738
81.85 0.00991
81.9 0.01193
81.95 0.01434
82 0.01763
82.05 0.01469
82.1 0.01338
82.15 0.01319
82.2 0.00817
82.25 0.00864
82.3 0.00354
82.35 0.00429
82.4 0
82.45 -0.00255
82.5 -0.00268
82.55 -0.00066
82.6 0.00043
82.65 0.00212
82.7 0.0049
82.75 0.00787
82.8 0.01297
82.85 0.01104
82.9 0.00568
82.95 -0.00012
83 -0.00629
83.05 -0.00691
83.1 -0.01086
83.15 -0.01451
83.2 -0.01316
83.25 -0.01104
83.3 -0.00796
83.35 -0.00126
83.4 0.0039
83.45 0.00455
83.5 0.00012
83.55 -0
83.6 0.00178
83.65 -0.00207
83.7 -0.00568
83.75 -0.00675
83.8 -0.011
83.85 -0.01174
83.9 -0.01433
83.95 -0.01037
84 -0.00569
84.05 -0.00215
84.1 -0.0005
84.15 0.00097
84.2 0.00079
84.25 0.00138
84.3 -0.00256
84.35 -0.00151
84.4 -0.00293
84.45 -0.0032
84.5 -0.00291
84.55 -0.00477
84.6 -0.00366
84.65 -0.00117
84.7 0.00469
84.75 0.0047
84.8 0.00361
84.85 0.00607
84.9 0.00453
84.95 0.00124
85 -0.0053
85.05 -0.00992
85.1 -0.01406
85.15 -0.0163
85.2 -0.01526
85.25 -0.01241
85.3 -0.00992
85.35 -0.01176
85.4 -0.012
85.45 -0.01011
85.5 -0.0088
85.55 -0.01005
85.6 -0.01106
85.65 -0.01431
85.7 -0.0113
85.75 -0.00557
85.8 -0.0021
85.85 0.00386
85.9 0.00737
85.95 0.00754
86 0.01017
86.05 0.00881
86.1 0.00875
86.15 0.0061
86.2 0.00532
86.25 0.00407
86.3 0.00382
86.35 0.00143
86.4 0.00141
86.45 -0.00244
86.5 -0.00107
86.55 0.00372
86.6 0.00601
86.65 0.00604
86.7 0.00411
86.75 -0.00152
86.8 -0.0062
86.85 -0.00448
86.9 -0.00418
86.95 0.00055
87 0.00686
87.05 0.0072
87.1 0.00934
87.15 0.00572
87.2 0.00126
87.25 -0.00083
87.3 -0.00421
87.35 -0.00258
87.4 -0.00102
87.45 0.00045
87.5 0.00585
87.55 0.00525
87.6 0.00202
87.65 0.0041
87.7 0.00391
87.75 0.00191
87.8 -0.00219
87.85 -0.00607
87.9 -0.01252
87.95 -0.01561
88 -0.01983
88.05 -0.02074
88.1 -0.01704
88.15 -0.014
88.2 -0.00983
88.25 -0.00889
88.3 -0.01201
88.35 -0.01465
88.4 -0.01643
88.45 -0.01946
88.5 -0.01805
88.55 -0.01707
88.6 -0.01939
88.65 -0.01754
88.7 -0.01642
88.75 -0.01838
88.8 -0.02228
88.85 -0.02255
88.9 -0.0176
88.95 -0.01217
89 -0.00921
89.05 -0.00272
89.1 0.00127
89.15 -0.00012
89.2 -0.00065
89.25 0.00339
89.3 0.00816
89.35 0.00862
89.4 0.01207
89.45 0.01201
89.5 0.01425
89.55 0.01895
89.6 0.02094
89.65 0.01851
89.7 0.01689
89.75 0.0129
89.8 0.01164
89.85 0.01442
89.9 0.01908
89.95 0.02107
90 0.02364
90.05 0.02389
90.1 0.02617
90.15 0.02323
90.2 0.0225
90.25 0.01874
90.3 0.01881
90.35 0.01909
90.4 0.01858
90.45 0.01328
90.5 0.00908
90.55 0.00279
90.6 -0.00274
90.65 -0.00651
90.7 -0.01108
90.75 -0.01707
90.8 -0.01701
90.85 -0.01349
90.9 -0.01108
90.95 -0.00992
91 -0.00688
91.05 -0.00208
91.1 0.00064
91.15 0.00586
91.2 0.00868
91.25 0.00974
91.3 0.00526
91.35 0.00377
91.4 0.00346
91.45 0.00397
91.5 0.00605
91.55 0.00208
91.6 -0.00101
91.65 -0.00503
91.7 -0.0029
91.75 0.00318
91.8 0.00373
91.85 0.0044
91.9 0.00331
91.95 0.00658
92 0.00472
92.05 0.00161
92.1 -0.00313
92.15 -0.00846
92.2 -0.01315
92.25 -0.0133
92.3 -0.01541
92.35 -0.01114
92.4 -0.00572
92.45 -0.00296
92.5 0.00002
92.55 -0.00102
92.6 0.00154
92.65 -0.00167
92.7 -0.00809
92.75 -0.01095
92.8 -0.01199
92.85 -0.0095
92.9 -0.01185
92.95 -0.013
93 -0.017
93.05 -0.02187
93.1 -0.02175
93.15 -0.01605
93.2 -0.01368
93.25 -0.00817
93.3 -0.00769
93.35 -0.00824
93.4 -0.01075
93.45 -0.01551
93.5 -0.01632
93.55 -0.01363
93.6 -0.01255
93.65 -0.01121
93.7 -0.00877
93.75 -0.00383
93.8 -0.00017
93.85 0.00094
93.9 0.00225
93.95 -0.00084
94 -0.0002
94.05 0.00118
94.1 0.00672
94.15 0.00968
94.2 0.01283
94.25 0.01392
94.3 0.01001
94.35 0.00562
94.4 -0.00206
94.45 -0.00745
94.5 -0.00825
94.55 -0.00891
94.6 -0.00934
94.65 -0.00853
94.7 -0.01117
94.75 -0.01627
94.8 -0.02031
94.85 -0.01726
94.9 -0.01046
94.95 -0.00718
95 -0.00364
95.05 -0.00153
95.1 -0.0038
95.15 -0.0057
95.2 -0.01015
95.25 -0.01197
95.3 -0.01188
95.35 -0.0098
95.4 -0.00667
95.45 -0.00382
95.5 -0.00209
95.55 -0.00053
95.6 0.00452
95.65 0.00542
95.7 0.00949
95.75 0.01119
95.8 0.01296
95.85 0.01678
95.9 0.02258
95.95 0.02244
96 0.01763
96.05 0.01658
96.1 0.01586
96.15 0.01045
96.2 0.00748
96.25 0.00715
96.3 0.00786
96.35 0.00633
96.4 0.00323
96.45 0.00463
96.5 0.00783
96.55 0.01308
96.6 0.01501
96.65 0.01205
96.7 0.01295
96.75 0.01146
96.8 0.00559
96.85 0.00439
96.9 -0.0003
96.95 -0.0046
97 -0.00423
97.05 -0.00177
97.1 -0.00204
97.15 -0.003
97.2 -0.0027
97.25 -0.00276
97.3 0.00114
97.35 0.00219
97.4 0.00273
97.45 0.00247
97.5 0.00634
97.55 0.00808
97.6 0.00738
97.65 0.00475
97.7 0.00623
97.75 0.00655
97.8 0.0042
97.85 -0.0018
97.9 -0.00581
97.95 -0.01118
98 -0.01528
98.05 -0.02121
98.1 -0.02142
98.15 -0.01923
98.2 -0.01762
98.25 -0.01321
98.3 -0.00821
98.35 -0.00838
98.4 -0.00491
98.45 0.00037
98.5 0.00354
98.55 0.00174
98.6 0.00428
98.65 0.00446
98.7 0.00831
98.75 0.01167
98.8 0.01607
98.85 0.01573
98.9 0.01498
98.95 0.01026
99 0.00347
99.05 -0.00562
99.1 -0.01463
99.15 -0.02013
99.2 -0.02314
99.25 -0.02311
99.3 -0.0187
99.35 -0.01823
99.4 -0.02053
99.45 -0.02063
99.5 -0.01873
99.55 -0.01913
99.6 -0.02123
99.65 -0.02362
99.7 -0.01892
99.75 -0.01743
99.8 -0.01727
99.85 -0.01453
99.9 -0.01093
99.95 -0.00897
