0 0
0.05 0.00808
0.1 0.01549
0.15 0.0228
0.2 0.03143
0.25 0.0362
0.3 0.04066
0.35 0.04773
0.4 0.05481
0.45 0.05898
0.5 0.06406
0.55 0.06767
0.6 0.06688
0.65 0.06602
0.7 0.06452
0.75 0.06389
0.8 0.06358
0.85 0.06008
0.9 0.05372
0.95 0.04786
1 0.03912
1.05 0.0359
1.1 0.03136
1.15 0.02975
1.2 0.02754
1.25 0.03024
1.3 0.03607
1.35 0.04354
1.4 0.04973
1.45 0.05598
1.5 0.05805
1.55 0.05836
1.6 0.05196
1.65 0.04379
1.7 0.04111
1.75 0.03627
1.8 0.03429
1.85 0.03262
1.9 0.03328
1.95 0.02964
2 0.02678
2.05 0.02717
2.1 0.02795
2.15 0.02464
2.2 0.02261
2.25 0.02384
2.3 0.02837
2.35 0.02955
2.4 0.02825
2.45 0.02935
2.5 0.03061
2.55 0.02824
2.6 0.02455
2.65 0.02556
2.7 0.02597
2.75 0.02469
2.8 0.02538
2.85 0.02705
2.9 0.02313
2.95 0.02383
3 0.02152
3.05 0.02369
3.1 0.02738
3.15 0.02773
3.2 0.02833
3.25 0.02849
3.3 0.03134
3.35 0.03239
3.4 0.03428
3.45 0.03594
3.5 0.03134
3.55 0.0249
3.6 0.01731
3.65 0.00953
3.7 0.00582
3.75 0.00557
3.8 0.00917
3.85 0.01283
3.9 0.01846
3.95 0.01733
4 0.01351
4.05 0.01272
4.1 0.00796
4.15 0.00595
4.2 0.0022
4.25 -0.00144
4.3 -0.00032
4.35 -0.00113
4.4 -0.00221
4.45 0.00035
4.5 0.00043
4.55 0.00144
4.6 -0.00181
4.65 -0.00223
4.7 0.0001
4.75 0.00515
4.8 0.00673
4.85 0.00885
4.9 0.0054
4.95 0.00431
5 -0.00247
5.05 -0.00922
5.1 -0.01588
5.15 -0.0226
5.2 -0.03182
5.25 -0.03746
5.3 -0.04473
5.35 -0.05287
5.4 -0.06357
5.45 -0.06764
5.5 -0.06783
5.55 -0.07347
5.6 -0.07614
5.65 -0.08118
5.7 -0.08951
5.75 -0.09965
5.8 -0.11092
5.85 -0.11603
5.9 -0.11706
5.95 -0.11686
6 -0.11527
6.05 -0.1135
6.1 -0.11424
6.15 -0.11743
6.2 -0.11475
6.25 -0.10729
6.3 -0.09675
6.35 -0.08627
6.4 -0.07329
6.45 -0.06203
6.5 -0.04922
6.55 -0.03243
6.6 -0.01911
6.65 -0.00543
6.7 0.00658
6.75 0.0232
6.8 0.04607
6.85 0.0644
6.9 0.08311
6.95 0.10412
7 0.12648
7.05 0.1454
7.1 0.16374
7.15 0.17646
7.2 0.18704
7.25 0.19396
7.3 0.20201
7.35 0.20648
7.4 0.2093
7.45 0.20739
7.5 0.20591
7.55 0.2048
7.6 0.19848
7.65 0.19274
7.7 0.17871
7.75 0.15936
7.8 0.14316
7.85 0.12921
7.9 0.1122
7.95 0.09753
8 0.07872
8.05 0.06352
8.1 0.04769
8.15 0.03007
8.2 0.01631
8.25 0.00293
8.3 -0.00824
8.35 -0.01578
8.4 -0.02028
8.45 -0.02763
8.5 -0.03451
8.55 -0.03539
8.6 -0.03742
8.65 -0.03763
8.7 -0.03985
8.75 -0.04311
8.8 -0.04851
8.85 -0.05311
8.9 -0.05204
8.95 -0.04572
9 -0.03772
9.05 -0.03223
9.1 -0.02677
9.15 -0.0236
9.2 -0.02467
9.25 -0.02632
9.3 -0.02756
9.35 -0.02323
9.4 -0.01661
9.45 -0.00885
9.5 -0.00387
9.55 -0.00081
9.6 -0.00057
9.65 -0.00276
9.7 -0.00231
9.75 0.00096
9.8 0.00288
9.85 0.00673
9.9 0.00567
9.95 0.00231
10 -0.00217
10.05 -0.00479
10.1 -0.0057
10.15 -0.00697
10.2 -0.00614
10.25 -0.0051
10.3 -0.00452
10.35 0.00025
10.4 0.00199
10.45 0.00392
10.5 0.00954
10.55 0.00954
10.6 0.01063
10.65 0.00982
10.7 0.01185
10.75 0.01183
10.8 0.009
10.85 0.00767
10.9 0.00825
10.95 0.00787
11 0.00454
11.05 0.00082
11.1 0.00018
11.15 -0.00245
11.2 -0.00748
11.25 -0.00646
11.3 -0.0041
11.35 -0.00429
11.4 -0.00247
11.45 -0.00065
11.5 -0.00065
11.55 -0.00508
11.6 -0.0081
11.65 -0.01375
11.7 -0.01489
11.75 -0.01413
11.8 -0.01593
11.85 -0.01213
11.9 -0.01232
11.95 -0.00846
12 -0.00747
12.05 -0.00534
12.1 -0.00619
12.15 -0.00749
12.2 -0.01135
12.25 -0.01355
12.3 -0.01798
12.35 -0.01693
12.4 -0.01454
12.45 -0.009
12.5 -0.00423
12.55 0.00154
12.6 0.00773
12.65 0.01097
12.7 0.00992
12.75 0.01012
12.8 0.0077
12.85 0.00686
12.9 0.00357
12.95 0.00335
13 0.00061
13.05 -0.00413
13.1 -0.01002
13.15 -0.01317
13.2 -0.01807
13.25 -0.01635
13.3 -0.01214
13.35 -0.01161
13.4 -0.00834
13.45 -0.0055
13.5 -0.00281
13.55 -0.00382
13.6 -0.00062
13.65 0.0045
13.7 0.00714
13.75 0.01079
13.8 0.01409
13.85 0.01847
13.9 0.01831
13.95 0.01562
14 0.0096
14.05 0.00374
14.1 0.00139
14.15 -0.0007
14.2 -0.00434
14.25 -0.00642
14.3 -0.00575
14.35 -0.00335
14.4 -0.00171
14.45 -0.00075
14.5 0.00013
14.55 0.00041
14.6 -0.00335
14.65 -0.00884
14.7 -0.01286
14.75 -0.01522
14.8 -0.01653
14.85 -0.0201
14.9 -0.01889
14.95 -0.01636
15 -0.01071
15.05 -0.00701
15.1 -0.00697
15.15 -0.00475
15.2 -0.00635
15.25 -0.0073
15.3 -0.00788
15.35 -0.00384
15.4 0.00003
15.45 0.00276
15.5 0.0063
15.55 0.00506
15.6 0.00483
15.65 0.00038
15.7 -0.00307
15.75 -0.0041
15.8 -0.00187
15.85 -0.00196
15.9 -0.0059
15.95 -0.00765
16 -0.00764
16.05 -0.00864
16.1 -0.00714
16.15 -0.00817
16.2 -0.00674
16.25 -0.00723
16.3 -0.00836
16.35 -0.00517
16.4 0.00008
16.45 0.00665
16.5 0.00802
16.55 0.01031
16.6 0.01337
16.65 0.01693
16.7 0.018
16.75 0.0129
16.8 0.00692
16.85 0.0044
16.9 -0.00133
16.95 -0.00603
17 -0.01099
17.05 -0.01429
17.1 -0.01444
17.15 -0.00995
17.2 -0.00604
17.25 0.00045
17.3 0.00068
17.35 0.00419
17.4 0.00902
17.45 0.0071
17.5 0.00146
17.55 -0.00496
17.6 -0.01167
17.65 -0.01231
17.7 -0.01396
17.75 -0.01434
17.8 -0.01053
17.85 -0.00873
17.9 -0.00492
17.95 -0.00056
18 0.0034
18.05 0.00208
18.1 -0.00039
18.15 -0.00072
18.2 -0.0001
18.25 0.00157
18.3 0.00364
18.35 0.00489
18.4 0.00703
18.45 0.01036
18.5 0.01335
18.55 0.01353
18.6 0.01458
18.65 0.01146
18.7 0.00914
18.75 0.005
18.8 -0.00091
18.85 -0.00741
18.9 -0.009
18.95 -0.0086
19 -0.00634
19.05 -0.00629
19.1 -0.00859
19.15 -0.01031
19.2 -0.01355
19.25 -0.01285
19.3 -0.00821
19.35 -0.00103
19.4 0.00334
19.45 0.00719
19.5 0.00718
19.55 0.00861
19.6 0.00731
19.65 0.006
19.7 0.00087
19.75 -0.0017
19.8 -0.00397
19.85 -0.00462
19.9 -0.00866
19.95 -0.00906
20 -0.01126
20.05 -0.01377
20.1 -0.0157
20.15 -0.01726
20.2 -0.014
20.25 -0.00836
20.3 -0.00117
20.35 0.00543
20.4 0.00875
20.45 0.00599
20.5 0.00462
20.55 0.00483
20.6 0.00744
20.65 0.00588
20.7 0.00235
20.75 -0.00295
20.8 -0.00597
20.85 -0.00383
20.9 -0.00489
20.95 -0.00865
21 -0.00818
21.05 -0.00789
21.1 -0.00783
21.15 -0.00342
21.2 -0.00214
21.25 -0.00241
21.3 -0.00582
21.35 -0.00785
21.4 -0.00669
21.45 -0.00575
21.5 -0.00519
21.55 -0.0024
21.6 0.00132
21.65 0.00069
21.7 0.00306
21.75 0.00116
21.8 -0.00302
21.85 -0.00416
21.9 -0.0056
21.95 -0.01005
22 -0.01474
22.05 -0.01959
22.1 -0.0179
22.15 -0.01444
22.2 -0.00691
22.25 -0.00467
22.3 0.0003
22.35 0.00282
22.4 0.00199
22.45 0.00143
22.5 0.00235
22.55 0.00598
22.6 0.00913
22.65 0.01217
22.7 0.01121
22.75 0.00616
22.8 0.00294
22.85 0.00273
22.9 0.00327
22.95 0.00471
23 0.0045
23.05 -0.00003
23.1 -0.0021
23.15 -0.00529
23.2 -0.01047
23.25 -0.01408
23.3 -0.01117
23.35 -0.00834
23.4 -0.00529
23.45 0.00085
23.5 0.0052
23.55 0.00986
23.6 0.01128
23.65 0.00939
23.7 0.00708
23.75 0.00866
23.8 0.00869
23.85 0.00391
23.9 0.00198
23.95 0.00447
24 0.00602
24.05 0.00472
24.1 0.00103
24.15 -0.00549
24.2 -0.00904
24.25 -0.01239
24.3 -0.01747
24.35 -0.02251
24.4 -0.01997
24.45 -0.01893
24.5 -0.01665
24.55 -0.01199
24.6 -0.00878
24.65 -0.00496
24.7 -0.00372
24.75 -0.00164
24.8 0.00139
24.85 -0.00048
24.9 -0.00396
24.95 -0.00745
25 -0.00959
25.05 -0.00832
25.1 -0.00932
25.15 -0.00918
25.2 -0.00976
25.25 -0.01232
25.3 -0.01018
25.35 -0.00771
25.4 -0.00417
25.45 0.00233
25.5 0.00367
25.55 0.0064
25.6 0.00875
25.65 0.0074
25.7 0.00752
25.75 0.00472
25.8 -0.00084
25.85 -0.0059
25.9 -0.00996
25.95 -0.0094
26 -0.00876
26.05 -0.01077
26.1 -0.00896
26.15 -0.00441
26.2 -0.00265
26.25 -0.00162
26.3 0.00117
26.35 0.00589
26.4 0.01108
26.45 0.0137
26.5 0.01798
26.55 0.01943
26.6 0.01551
26.65 0.00946
26.7 0.00474
26.75 0.00155
26.8 0.00332
26.85 0.00241
26.9 0.00471
26.95 0.00685
27 0.00449
27.05 0.00528
27.1 0.00615
27.15 0.00346
27.2 -0.00146
27.25 -0.00305
27.3 -0.00269
27.35 0.00035
27.4 0.00204
27.45 0.00078
27.5 -0.0047
27.55 -0.01163
27.6 -0.01655
27.65 -0.02322
27.7 -0.03168
27.75 -0.03568
27.8 -0.04005
27.85 -0.0415
27.9 -0.04091
27.95 -0.04226
28 -0.04485
28.05 -0.05595
28.1 -0.0745
28.15 -0.09343
28.2 -0.11206
28.25 -0.13234
28.3 -0.15707
28.35 -0.18555
28.4 -0.21737
28.45 -0.25272
28.5 -0.29501
28.55 -0.34141
28.6 -0.39405
28.65 -0.45343
28.7 -0.52038
28.75 -0.58714
28.8 -0.65935
28.85 -0.73952
28.9 -0.82179
28.95 -0.90566
29 -0.99796
29.05 -1.09078
29.1 -1.18804
29.15 -1.29117
29.2 -1.39512
29.25 -1.49642
29.3 -1.59301
29.35 -1.69181
29.4 -1.78331
29.45 -1.868
29.5 -1.94621
29.55 -2.02445
29.6 -2.09805
29.65 -2.16028
29.7 -2.21329
29.75 -2.25159
29.8 -2.27895
29.85 -2.2961
29.9 -2.29826
29.95 -2.28992
30 -2.26979
30.05 -2.23747
30.1 -2.19084
30.15 -2.12774
30.2 -2.04862
30.25 -1.96086
30.3 -1.863
30.35 -1.75116
30.4 -1.62795
30.45 -1.50139
30.5 -1.36753
30.55 -1.22601
30.6 -1.07879
30.65 -0.92865
30.7 -0.77963
30.75 -0.6244
30.8 -0.46664
30.85 -0.30912
30.9 -0.15353
30.95 0.00229
31 0.15462
31.05 0.30276
31.1 0.44351
31.15 0.57824
31.2 0.71056
31.25 0.83127
31.3 0.94509
31.35 1.05313
31.4 1.15678
31.45 1.25246
31.5 1.33894
31.55 1.41693
31.6 1.48683
31.65 1.552
31.7 1.60936
31.75 1.65766
31.8 1.70392
31.85 1.74092
31.9 1.77028
31.95 1.79604
32 1.81506
32.05 1.83166
32.1 1.84905
32.15 1.86655
32.2 1.87911
32.25 1.88492
32.3 1.88983
32.35 1.8888
32.4 1.88361
32.45 1.88273
32.5 1.87855
32.55 1.87346
32.6 1.86505
32.65 1.85591
32.7 1.84228
32.75 1.83075
32.8 1.82151
32.85 1.80955
32.9 1.79382
32.95 1.77181
33 1.74848
33.05 1.72758
33.1 1.70501
33.15 1.67741
33.2 1.64709
33.25 1.61541
33.3 1.58423
33.35 1.5489
33.4 1.51506
33.45 1.48078
33.5 1.44911
33.55 1.415
33.6 1.3805
33.65 1.34704
33.7 1.3108
33.75 1.27027
33.8 1.22819
33.85 1.18746
33.9 1.14494
33.95 1.10044
34 1.056
34.05 1.01214
34.1 0.96858
34.15 0.92471
34.2 0.88198
34.25 0.83511
34.3 0.78924
34.35 0.74112
34.4 0.69301
34.45 0.64481
34.5 0.60038
34.55 0.55955
34.6 0.52207
34.65 0.48152
34.7 0.44188
34.75 0.40289
34.8 0.36204
34.85 0.3268
34.9 0.29428
34.95 0.26135
35 0.22883
35.05 0.19576
35.1 0.16545
35.15 0.13838
35.2 0.10694
35.25 0.07666
35.3 0.04655
35.35 0.02234
35.4 -0.0016
35.45 -0.02509
35.5 -0.04865
35.55 -0.07434
35.6 -0.09977
35.65 -0.11771
35.7 -0.13674
35.75 -0.15761
35.8 -0.17108
35.85 -0.18159
35.9 -0.1929
35.95 -0.20253
36 -0.21081
36.05 -0.21819
36.1 -0.22863
36.15 -0.23699
36.2 -0.24595
36.25 -0.2594
36.3 -0.27286
36.35 -0.28418
36.4 -0.29471
36.45 -0.29907
36.5 -0.30721
36.55 -0.31695
36.6 -0.32093
36.65 -0.32363
36.7 -0.32813
36.75 -0.32987
36.8 -0.33029
36.85 -0.33131
36.9 -0.32851
36.95 -0.32806
37 -0.33159
37.05 -0.33472
37.1 -0.33197
37.15 -0.32977
37.2 -0.3304
37.25 -0.33335
37.3 -0.33299
37.35 -0.33482
37.4 -0.33325
37.45 -0.32739
37.5 -0.31937
37.55 -0.3138
37.6 -0.30785
37.65 -0.30473
37.7 -0.30221
37.75 -0.29848
37.8 -0.298
37.85 -0.29776
37.9 -0.29462
37.95 -0.29026
38 -0.28756
38.05 -0.28574
38.1 -0.28104
38.15 -0.27487
38.2 -0.27252
38.25 -0.27129
38.3 -0.27232
38.35 -0.27099
38.4 -0.26685
38.45 -0.26207
38.5 -0.25939
38.55 -0.25549
38.6 -0.25442
38.65 -0.25516
38.7 -0.25524
38.75 -0.25121
38.8 -0.24608
38.85 -0.2394
38.9 -0.23171
38.95 -0.22165
39 -0.21151
39.05 -0.20243
39.1 -0.1957
39.15 -0.19074
39.2 -0.18922
39.25 -0.19043
39.3 -0.19154
39.35 -0.19206
39.4 -0.19246
39.45 -0.19067
39.5 -0.18766
39.55 -0.18905
39.6 -0.18588
39.65 -0.18611
39.7 -0.18391
39.75 -0.18
39.8 -0.18059
39.85 -0.17938
39.9 -0.17335
39.95 -0.16627
40 -0.15798
40.05 -0.15153
40.1 -0.15098
40.15 -0.15335
40.2 -0.15305
40.25 -0.15346
40.3 -0.15322
40.35 -0.15455
40.4 -0.1561
40.45 -0.15788
40.5 -0.16065
40.55 -0.15993
40.6 -0.1597
40.65 -0.15559
40.7 -0.15471
40.75 -0.14985
40.8 -0.14697
40.85 -0.14668
40.9 -0.14252
40.95 -0.13799
41 -0.12906
41.05 -0.1222
41.1 -0.11645
41.15 -0.10967
41.2 -0.10847
41.25 -0.10368
41.3 -0.10397
41.35 -0.10728
41.4 -0.11217
41.45 -0.1163
41.5 -0.119
41.55 -0.11488
41.6 -0.11374
41.65 -0.11252
41.7 -0.11038
41.75 -0.10426
41.8 -0.09746
41.85 -0.09017
41.9 -0.0824
41.95 -0.07403
42 -0.06914
42.05 -0.06713
42.1 -0.06839
42.15 -0.06755
42.2 -0.06421
42.25 -0.06391
42.3 -0.06653
42.35 -0.06821
42.4 -0.07027
42.45 -0.07156
42.5 -0.07352
42.55 -0.07534
42.6 -0.07383
42.65 -0.07043
42.7 -0.0686
42.75 -0.06937
42.8 -0.06847
42.85 -0.06898
42.9 -0.07045
42.95 -0.06966
43 -0.07166
43.05 -0.06953
43.1 -0.06497
43.15 -0.05923
43.2 -0.05511
43.25 -0.04992
43.3 -0.04678
43.35 -0.04222
43.4 -0.04144
43.45 -0.03929
43.5 -0.04079
43.55 -0.041
43.6 -0.03963
43.65 -0.03859
43.7 -0.04175
43.75 -0.04516
43.8 -0.04462
43.85 -0.0437
43.9 -0.04498
43.95 -0.04575
44 -0.04697
44.05 -0.05188
44.1 -0.05199
44.15 -0.04896
44.2 -0.0474
44.25 -0.0496
44.3 -0.04809
44.35 -0.0453
44.4 -0.04631
44.45 -0.04861
44.5 -0.04604
44.55 -0.04741
44.6 -0.04709
44.65 -0.04946
44.7 -0.04795
44.75 -0.04343
44.8 -0.03647
44.85 -0.03128
44.9 -0.0303
44.95 -0.0309
45 -0.0281
45.05 -0.02428
45.1 -0.01934
45.15 -0.01496
45.2 -0.01686
45.25 -0.0175
45.3 -0.01611
45.35 -0.01896
45.4 -0.01962
45.45 -0.01977
45.5 -0.01984
45.55 -0.01769
45.6 -0.01724
45.65 -0.01746
45.7 -0.01958
45.75 -0.02124
45.8 -0.0215
45.85 -0.02616
45.9 -0.02882
45.95 -0.03133
46 -0.03507
46.05 -0.03903
46.1 -0.03684
46.15 -0.0322
46.2 -0.03256
46.25 -0.03364
46.3 -0.03771
46.35 -0.04234
46.4 -0.04524
46.45 -0.04198
46.5 -0.03497
46.55 -0.02635
46.6 -0.01966
46.65 -0.01528
46.7 -0.01372
46.75 -0.01334
46.8 -0.01186
46.85 -0.01277
46.9 -0.01091
46.95 -0.01318
47 -0.01523
47.05 -0.02093
47.1 -0.02095
47.15 -0.02449
47.2 -0.02603
47.25 -0.02757
47.3 -0.03069
47.35 -0.0333
47.4 -0.03546
47.45 -0.03233
47.5 -0.02773
47.55 -0.02569
47.6 -0.02217
47.65 -0.01729
47.7 -0.01607
47.75 -0.01763
47.8 -0.0143
47.85 -0.00846
47.9 -0.00785
47.95 -0.00494
48 -0.00654
48.05 -0.00835
48.1 -0.01106
48.15 -0.01595
48.2 -0.0204
48.25 -0.01952
48.3 -0.01867
48.35 -0.01915
48.4 -0.01594
48.45 -0.01159
48.5 -0.00688
48.55 -0.0032
48.6 -0.00376
48.65 -0.00095
48.7 -0.00381
48.75 -0.00224
48.8 -0.00328
48.85 -0.00312
48.9 -0.00433
48.95 -0.00348
49 -0.00026
49.05 -0.0001
49.1 -0.00118
49.15 -0.00489
49.2 -0.00404
49.25 -0.00195
49.3 0.00198
49.35 0.0044
49.4 0.00427
49.45 0.00694
49.5 0.00371
49.55 -0.00097
49.6 -0.00408
49.65 -0.00736
49.7 -0.01013
49.75 -0.01287
49.8 -0.01737
49.85 -0.02208
49.9 -0.02211
49.95 -0.02438
50 -0.02183
50.05 -0.01669
50.1 -0.01456
50.15 -0.01165
50.2 -0.00571
50.25 -0.00311
50.3 0.00196
50.35 0.0051
50.4 0.00911
50.45 0.01141
50.5 0.01445
50.55 0.01598
50.6 0.01538
50.65 0.01108
50.7 0.00944
50.75 0.00445
50.8 0.00297
50.85 0.0015
50.9 -0.00391
50.95 -0.00975
51 -0.01528
51.05 -0.01831
51.1 -0.02013
51.15 -0.02373
51.2 -0.02228
51.25 -0.02197
51.3 -0.02053
51.35 -0.01796
51.4 -0.01623
51.45 -0.01599
51.5 -0.01524
51.55 -0.01268
51.6 -0.0113
51.65 -0.00803
51.7 -0.00977
51.75 -0.00946
51.8 -0.01145
51.85 -0.00843
51.9 -0.00957
51.95 -0.00822
52 -0.00981
52.05 -0.00691
52.1 -0.00266
52.15 0.00116
52.2 0.00006
52.25 -0.00171
52.3 -0.0061
52.35 -0.01046
52.4 -0.01298
52.45 -0.01038
52.5 -0.01228
52.55 -0.01221
52.6 -0.01228
52.65 -0.01304
52.7 -0.01097
52.75 -0.00943
52.8 -0.01215
52.85 -0.01246
52.9 -0.01407
52.95 -0.01833
53 -0.01778
53.05 -0.01735
53.1 -0.01756
53.15 -0.01672
53.2 -0.01616
53.25 -0.01291
53.3 -0.00751
53.35 -0.00411
53.4 -0.00594
53.45 -0.00705
53.5 -0.00384
53.55 -0.00521
53.6 -0.00316
53.65 0.00032
53.7 0.00059
53.75 -0.00007
53.8 -0.00348
53.85 -0.00437
53.9 -0.00322
53.95 -0.00571
54 -0.0073
54.05 -0.00892
54.1 -0.01026
54.15 -0.00833
54.2 -0.00613
54.25 -0.00745
54.3 -0.00729
54.35 -0.00925
54.4 -0.01123
54.45 -0.01277
54.5 -0.01007
54.55 -0.01013
54.6 -0.00883
54.65 -0.00914
54.7 -0.01191
54.75 -0.01141
54.8 -0.01197
54.85 -0.00918
54.9 -0.00505
54.95 -0.00333
55 -0.00475
55.05 -0.00578
55.1 -0.00429
55.15 -0.00153
55.2 0.00083
55.25 -0.00025
55.3 -0.0018
55.35 -0.00429
55.4 -0.00267
55.45 -0.00091
55.5 -0.0013
55.55 -0.00253
55.6 -0.00397
55.65 -0.00216
55.7 0.0013
55.75 0.00346
55.8 0.0086
55.85 0.01138
55.9 0.01597
55.95 0.01688
56 0.01298
56.05 0.00615
56.1 -0.00097
56.15 -0.00152
56.2 0.00025
56.25 -0.00084
56.3 -0.00237
56.35 -0.00464
56.4 -0.00422
56.45 -0.00716
56.5 -0.0109
56.55 -0.0122
56.6 -0.00995
56.65 -0.01167
56.7 -0.01068
56.75 -0.01036
56.8 -0.01156
56.85 -0.00944
56.9 -0.00525
56.95 0.00161
57 0.00525
57.05 0.0103
57.1 0.01103
57.15 0.01404
57.2 0.01518
57.25 0.01275
57.3 0.00925
57.35 0.00363
57.4 0.00175
57.45 0.00225
57.5 -0.00082
57.55 0.00055
57.6 0.00147
57.65 0.00567
57.7 0.01089
57.75 0.01613
57.8 0.01834
57.85 0.0186
57.9 0.01946
57.95 0.01449
58 0.00878
58.05 0.00392
58.1 0.00172
58.15 0.00231
58.2 0.00503
58.25 0.00311
58.3 -0.0014
58.35 -0.00335
58.4 -0.00134
58.45 0.00381
58.5 0.01027
58.55 0.01228
58.6 0.01422
58.65 0.01622
58.7 0.01611
58.75 0.01656
58.8 0.01816
58.85 0.01525
58.9 0.01055
58.95 0.00229
59 0.00004
59.05 -0.00431
59.1 -0.00828
59.15 -0.01126
59.2 -0.01587
59.25 -0.02149
59.3 -0.02417
59.35 -0.02306
59.4 -0.01847
59.45 -0.01274
59.5 -0.00633
59.55 -0.00094
59.6 0.00588
59.65 0.0055
59.7 0.00786
59.75 0.00769
59.8 0.00637
59.85 0.00732
59.9 0.00714
59.95 0.00796
60 0.0052
60.05 0.00507
60.1 0.00041
60.15 -0.00574
60.2 -0.00578
60.25 -0.00519
60.3 -0.00219
60.35 -0.00047
60.4 -0.00278
60.45 -0.00204
60.5 -0.00005
60.55 0.00213
60.6 0.00175
60.65 0.0025
60.7 0.00055
60.75 -0.00124
60.8 -0.00639
60.85 -0.01171
60.9 -0.0109
60.95 -0.01192
61 -0.01411
61.05 -0.0142
61.1 -0.01291
61.15 -0.01467
61.2 -0.01316
61.25 -0.01416
61.3 -0.01709
61.35 -0.01871
61.4 -0.01487
61.45 -0.00875
61.5 -0.004
61.55 0.003
61.6 0.00441
61.65 0.0042
61.7 0.00057
61.75 0.00105
61.8 0.00231
61.85 0.00399
61.9 0.00446
61.95 0.0076
62 0.00796
62.05 0.00423
62.1 -0.00224
62.15 -0.00245
62.2 -0.00369
62.25 -0.00495
62.3 -0.00795
62.35 -0.01072
62.4 -0.01344
62.45 -0.01124
62.5 -0.01233
62.55 -0.00919
62.6 -0.00755
62.65 -0.00944
62.7 -0.00877
62.75 -0.0038
62.8 0.00125
62.85 0.0063
62.9 0.00506
62.95 0.00571
63 0.00284
63.05 0.00079
63.1 0.00126
63.15 -0.00057
63.2 0.00121
63.25 -0.00041
63.3 -0.00157
63.35 0.00046
63.4 -0.00139
63.45 -0.0006
63.5 -0.00088
63.55 0.00222
63.6 0.00636
63.65 0.00963
63.7 0.01034
63.75 0.00658
63.8 -0.00047
63.85 -0.00319
63.9 -0.00121
63.95 -0.00339
64 -0.00764
64.05 -0.0134
64.1 -0.02001
64.15 -0.02475
64.2 -0.02771
64.25 -0.03072
64.3 -0.03393
64.35 -0.03043
64.4 -0.02902
64.45 -0.0244
64.5 -0.0198
64.55 -0.01676
64.6 -0.01179
64.65 -0.01141
64.7 -0.00891
64.75 -0.01
64.8 -0.00821
64.85 -0.00909
64.9 -0.00714
64.95 -0.00768
65 -0.00282
65.05 -0.00162
65.1 0.0037
65.15 0.00794
65.2 0.00935
65.25 0.01301
65.3 0.01222
65.35 0.01347
65.4 0.01251
65.45 0.01191
65.5 0.01158
65.55 0.00819
65.6 0.00928
65.65 0.00623
65.7 0.00713
65.75 0.00637
65.8 0.0071
65.85 0.00492
65.9 0.00017
65.95 0.00112
66 0.00308
66.05 0.00319
66.1 0.00444
66.15 0.00545
66.2 0.0041
66.25 0.00352
66.3 0.00137
66.35 -0.00187
66.4 -0.00195
66.45 -0.00469
66.5 -0.00948
66.55 -0.00756
66.6 -0.00211
66.65 0.00473
66.7 0.00978
66.75 0.01481
66.8 0.01632
66.85 0.01907
66.9 0.01895
66.95 0.02031
67 0.01729
67.05 0.01698
67.1 0.01895
67.15 0.01605
67.2 0.01064
67.25 0.00262
67.3 -0.00546
67.35 -0.0114
67.4 -0.01275
67.45 -0.01322
67.5 -0.01083
67.55 -0.00825
67.6 -0.0039
67.65 -0.0039
67.7 -0.00267
67.75 0.00136
67.8 0.00481
67.85 0.00308
67.9 -0.00047
67.95 -0.00083
68 -0.00152
68.05 -0.0048
68.1 -0.00585
68.15 -0.00358
68.2 -0.00072
68.25 0.00403
68.3 0.00471
68.35 0.00498
68.4 0.00749
68.45 0.0102
68.5 0.01052
68.55 0.01397
68.6 0.01743
68.65 0.01671
68.7 0.01611
68.75 0.01479
68.8 0.01575
68.85 0.0159
68.9 0.01831
68.95 0.01684
69 0.01101
69.05 0.00457
69.1 -0.00309
69.15 -0.0065
69.2 -0.01041
69.25 -0.00861
69.3 -0.00376
69.35 0.00219
69.4 0.00448
69.45 0.00223
69.5 -0.00104
69.55 -0.00196
69.6 -0.0021
69.65 -0.0006
69.7 0.00099
69.75 0.00034
69.8 -0.00142
69.85 -0.0004
69.9 -0.00102
69.95 0.00227
70 0.00667
70.05 0.00854
70.1 0.00823
70.15 0.01045
70.2 0.01476
70.25 0.01446
70.3 0.01042
70.35 0.01082
70.4 0.01134
70.45 0.00938
70.5 0.00729
70.55 0.00182
70.6 -0.00107
70.65 -0.00641
70.7 -0.00547
70.75 -0.00776
70.8 -0.00477
70.85 -0.00564
70.9 -0.00847
70.95 -0.01391
71 -0.01906
71.05 -0.01711
71.1 -0.01668
71.15 -0.01463
71.2 -0.01523
71.25 -0.01242
71.3 -0.01183
71.35 -0.01046
71.4 -0.01062
71.45 -0.01225
71.5 -0.00825
71.55 -0.00454
71.6 0.00202
71.65 0.00402
71.7 0.00699
71.75 0.0079
71.8 0.00917
71.85 0.00811
71.9 0.00799
71.95 0.00994
72 0.00684
72.05 0.00125
72.1 -0.0049
72.15 -0.00825
72.2 -0.00657
72.25 -0.00352
72.3 0.00004
72.35 0.0062
72.4 0.00789
72.45 0.00565
72.5 -0.00014
72.55 -0.00151
72.6 -0.00145
72.65 0.00246
72.7 0.00086
72.75 -0.00178
72.8 -0.007
72.85 -0.00843
72.9 -0.00577
72.95 -0.00244
73 -0.00139
73.05 -0.00135
73.1 -0.00397
73.15 -0.00519
73.2 -0.00704
73.25 -0.00735
73.3 -0.01076
73.35 -0.01306
73.4 -0.01446
73.45 -0.01544
73.5 -0.0113
73.55 -0.00536
73.6 -0.00277
73.65 0.00041
73.7 0.00241
73.75 0.00326
73.8 0.00716
73.85 0.01204
73.9 0.01409
73.95 0.01527
74 0.01773
74.05 0.01752
74.1 0.01656
74.15 0.01535
74.2 0.01184
74.25 0.00614
74.3 0.00498
74.35 0.00317
74.4 0.00261
74.45 0.00195
74.5 0.0026
74.55 0.00632
74.6 0.00695
74.65 0.00382
74.7 0.00195
74.75 -0.00133
74.8 0.00017
74.85 0.00268
74.9 0.00636
74.95 0.0114
75 0.00994
75.05 0.00817
75.1 0.00348
75.15 0.0026
75.2 0.00114
75.25 -0.00072
75.3 -0.00309
75.35 -0.00129
75.4 0.00289
75.45 0.00869
75.5 0.01488
75.55 0.01374
75.6 0.01364
75.65 0.01317
75.7 0.01427
75.75 0.01204
75.8 0.01065
75.85 0.00751
75.9 0.00131
75.95 -0.0018
76 -0.00464
76.05 -0.00604
76.1 -0.00421
76.15 -0.00549
76.2 -0.00816
76.25 -0.0055
76.3 -0.00514
76.35 -0.00449
76.4 -0.00381
76.45 -0.00747
76.5 -0.01226
76.55 -0.01071
76.6 -0.0104
76.65 -0.01185
76.7 -0.01117
76.75 -0.01082
76.8 -0.0128
76.85 -0.00953
76.9 -0.00329
76.95 -0.00158
77 0.0023
77.05 0.00473
77.1 0.00205
77.15 -0.00051
77.2 0.00016
77.25 0.0043
77.3 0.0029
77.35 0.00522
77.4 0.00415
77.45 0.00571
77.5 0.00756
77.55 0.01031
77.6 0.01137
77.65 0.00722
77.7 0.004
77.75 0.00431
77.8 0.00486
77.85 0.00535
77.9 0.00246
77.95 -0.00161
78 -0.00485
78.05 -0.0065
78.1 -0.00357
78.15 -0.00316
78.2 -0.00122
78.25 -0.00014
78.3 -0.00165
78.35 0.00129
78.4 0.0012
78.45 -0.00306
78.5 -0.00828
78.55 -0.00764
78.6 -0.00999
78.65 -0.00948
78.7 -0.00908
78.75 -0.00635
78.8 -0.00695
78.85 -0.00894
78.9 -0.0096
78.95 -0.00981
79 -0.01184
79.05 -0.01595
79.1 -0.01623
79.15 -0.01252
79.2 -0.00539
79.25 -0.00155
79.3 0.00242
79.35 0.00168
79.4 0.00136
79.45 0.0019
79.5 0.00597
79.55 0.00616
79.6 0.00884
79.65 0.01084
79.7 0.01477
79.75 0.01389
79.8 0.00995
79.85 0.00343
79.9 -0.00237
79.95 -0.00497
80 -0.00974
80.05 -0.01152
80.1 -0.0139
80.15 -0.01528
80.2 -0.01404
80.25 -0.01635
80.3 -0.01249
80.35 -0.00617
80.4 -0.00376
80.45 -0.00132
80.5 -0.00283
80.55 -0.00715
80.6 -0.01306
80.65 -0.01815
80.7 -0.01656
80.75 -0.0171
80.8 -0.01912
80.85 -0.02206
80.9 -0.02272
80.95 -0.02009
81 -0.01518
81.05 -0.01126
81.1 -0.01128
81.15 -0.00903
81.2 -0.00773
81.25 -0.00608
81.3 -0.00473
81.35 -0.00496
81.4 -0.00429
81.45 0.00001
81.5 0.00375
81.55 0.00184
81.6 -0.00157
81.65 -0.00496
81.7 -0.00584
81.75 -0.00949
81.8 -0.01063
81.85 -0.01064
81.9 -0.0111
81.95 -0.00735
82 -0.00316
82.05 0.00111
82.1 0.00778
82.15 0.01276
82.2 0.01557
82.25 0.01245
82.3 0.00896
82.35 0.00408
82.4 0.00406
82.45 0.00552
82.5 0.00343
82.55 0.00541
82.6 0.00615
82.65 0.00572
82.7 0.00411
82.75 0.00469
82.8 0.00412
82.85 0.00715
82.9 0.00482
82.95 0.00089
83 -0.00077
83.05 -0.00544
83.1 -0.00389
83.15 -0.00199
83.2 -0.00046
83.25 -0.00273
83.3 -0.00264
83.35 -0.0009
83.4 -0.00196
83.45 -0.00649
83.5 -0.01141
83.55 -0.01403
83.6 -0.0149
83.65 -0.01686
83.7 -0.01725
83.75 -0.01776
83.8 -0.01839
83.85 -0.01291
83.9 -0.00865
83.95 -0.00547
84 -0.00123
84.05 -0.0004
84.1 0.00386
84.15 0.00757
84.2 0.01211
84.25 0.01379
84.3 0.01379
84.35 0.01099
84.4 0.00863
84.45 0.00692
84.5 0.00655
84.55 0.00587
84.6 0.00474
84.65 0.00005
84.7 -0.00163
84.75 -0.00634
84.8 -0.00808
84.85 -0.01063
84.9 -0.00906
84.95 -0.01101
85 -0.01115
85.05 -0.00821
85.1 -0.00731
85.15 -0.00388
85.2 -0.0047
85.25 -0.00318
85.3 0.00206
85.35 0.00365
85.4 0.00449
85.45 0.00559
85.5 0.00245
85.55 0.0046
85.6 0.00878
85.65 0.0102
85.7 0.01108
85.75 0.0122
85.8 0.01398
85.85 0.01322
85.9 0.01558
85.95 0.01878
86 0.01785
86.05 0.01987
86.1 0.02141
86.15 0.02139
86.2 0.02056
86.25 0.0193
86.3 0.01362
86.35 0.00508
86.4 0.00253
86.45 -0.00235
86.5 -0.00808
86.55 -0.00898
86.6 -0.00516
86.65 -0.00542
86.7 -0.00726
86.75 -0.00887
86.8 -0.00612
86.85 -0.00463
86.9 -0.00716
86.95 -0.00913
87 -0.00836
87.05 -0.0111
87.1 -0.01503
87.15 -0.01661
87.2 -0.01714
87.25 -0.01276
87.3 -0.0062
87.35 -0.00042
87.4 0.00376
87.45 0.00408
87.5 0.00032
87.55 -0.00285
87.6 -0.00741
87.65 -0.00836
87.7 -0.01227
87.75 -0.01765
87.8 -0.01532
87.85 -0.00869
87.9 -0.00147
87.95 0.00082
88 -0.00045
88.05 -0.00257
88.1 -0.00414
88.15 -0.00535
88.2 -0.00418
88.25 -0.00118
88.3 0.00446
88.35 0.00892
88.4 0.00924
88.45 0.00957
88.5 0.00701
88.55 0.00138
88.6 -0.00051
88.65 -0.00491
88.7 -0.00989
88.75 -0.01466
88.8 -0.01466
88.85 -0.01132
88.9 -0.00418
88.95 0.00192
89 0.00253
89.05 0.00046
89.1 -0.00041
89.15 -0.0034
89.2 -0.00356
89.25 -0.00383
89.3 -0.00717
89.35 -0.01104
89.4 -0.01647
89.45 -0.02094
89.5 -0.02228
89.55 -0.02426
89.6 -0.02216
89.65 -0.01949
89.7 -0.012
89.75 -0.0029
89.8 0.00041
89.85 0.00471
89.9 0.00978
89.95 0.00853
90 0.00421
90.05 0.0041
90.1 0.00572
90.15 0.00494
90.2 0.00726
90.25 0.00634
90.3 0.00844
90.35 0.0072
90.4 0.00921
90.45 0.00805
90.5 0.00502
90.55 0.00052
90.6 -0.00335
90.65 -0.00829
90.7 -0.00762
90.75 -0.003
90.8 0.00269
90.85 0.00896
90.9 0.01206
90.95 0.01604
91 0.02089
91.05 0.01974
91.1 0.01722
91.15 0.01839
91.2 0.01359
91.25 0.01048
91.3 0.01138
91.35 0.01428
91.4 0.01459
91.45 0.012
91.5 0.01198
91.55 0.00701
91.6 0.00139
91.65 0.00052
91.7 0.00195
91.75 0.00198
91.8 0.00264
91.85 -0.0012
91.9 -0.00396
91.95 -0.00624
92 -0.01111
92.05 -0.01693
92.1 -0.02044
92.15 -0.02012
92.2 -0.02124
92.25 -0.02221
92.3 -0.02124
92.35 -0.02214
92.4 -0.01678
92.45 -0.01336
92.5 -0.01375
92.55 -0.01291
92.6 -0.011
92.65 -0.00834
92.7 -0.00329
92.75 -0.00127
92.8 0.00003
92.85 0.00068
92.9 0.00019
92.95 -0.00373
93 -0.00361
93.05 -0.00104
93.1 0.00016
93.15 -0.00187
93.2 -0.00346
93.25 -0.0039
93.3 -0.00088
93.35 -0.00021
93.4 0.00423
93.45 0.00776
93.5 0.01139
93.55 0.01304
93.6 0.01671
93.65 0.01541
93.7 0.01693
93.75 0.01397
93.8 0.00894
93.85 0.00121
93.9 -0.00351
93.95 -0.00401
94 -0.00235
94.05 0.00256
94.1 0.00475
94.15 0.0034
94.2 0.0056
94.25 0.00898
94.3 0.01028
94.35 0.01169
94.4 0.0147
94.45 0.01551
94.5 0.01418
94.55 0.01399
94.6 0.01527
94.65 0.01069
94.7 0.00834
94.75 0.0027
94.8 -0.0041
94.85 -0.00429
94.9 -0.00266
94.95 0.0014
95 0.00712
95.05 0.01221
95.1 0.0178
95.15 0.01614
95.2 0.01708
95.25 0.0193
95.3 0.02125
95.35 0.0184
95.4 0.01687
95.45 0.01374
95.5 0.01232
95.55 0.00796
95.6 0.0002
95.65 -0.00858
95.7 -0.01153
95.75 -0.01005
95.8 -0.00745
95.85 -0.00182
95.9 0.00035
95.95 -0.00148
96 -0.00414
96.05 -0.00394
96.1 -0.00704
96.15 -0.00784
96.2 -0.01134
96.25 -0.0115
96.3 -0.00709
96.35 -0.00471
96.4 -0.00457
96.45 -0.00709
96.5 -0.0065
96.55 -0.00556
96.6 -0.00714
96.65 -0.0042
96.7 -0.0048
96.75 -0.00882
96.8 -0.01429
96.85 -0.01996
96.9 -0.02574
96.95 -0.02349
97 -0.02024
97.05 -0.01776
97.1 -0.0147
97.15 -0.01222
97.2 -0.00799
97.25 -0.00349
97.3 0.0032
97.35 0.0033
97.4 0.00017
97.45 -0.00431
97.5 -0.00303
97.55 -0.00082
97.6 0.00467
97.65 0.00921
97.7 0.01529
97.75 0.01496
97.8 0.01604
97.85 0.01784
97.9 0.01764
97.95 0.01274
98 0.00934
98.05 0.00655
98.1 0.00592
98.15 0.00414
98.2 0.00096
98.25 -0.00063
98.3 -0.00561
98.35 -0.0051
98.4 -0.00392
98.45 -0.00103
98.5 0.00144
98.55 0.00355
98.6 0.00816
98.65 0.00778
98.7 0.0047
98.75 0.00639
98.8 0.00523
98.85 0.00258
98.9 0.00135
98.95 -0.00361
99 -0.00859
99.05 -0.00727
99.1 -0.00393
99.15 -0.0011
99.2 0.00431
99.25 0.00597
99.3 0.00548
99.35 0.005
99.4 0.00354
99.45 0.00171
99.5 0.00148
99.55 0.00353
99.6 0.00316
99.65 0.00634
99.7 0.0094
99.75 0.00856
99.8 0.00843
99.85 0.01046
99.9 0.00837
99.95 0.00232
