0 0
0.05 0.00007
0.1 0.00074
0.15 0.0027
0.2 0.00445
0.25 0.00533
0.3 0.00705
0.35 0.00857
0.4 0.00946
0.45 0.00942
0.5 0.01031
0.55 0.01021
0.6 0.00974
0.65 0.00988
0.7 0.0091
0.75 0.00779
0.8 0.00795
0.85 0.00802
0.9 0.00871
0.95 0.0099
1 0.00974
1.05 0.00948
1.1 0.00885
1.15 0.00812
1.2 0.00737
1.25 0.00643
1.3 0.00656
1.35 0.00753
1.4 0.0073
1.45 0.00704
1.5 0.0066
1.55 0.00675
1.6 0.00769
1.65 0.00909
1.7 0.00929
1.75 0.00923
1.8 0.00968
1.85 0.00895
1.9 0.00802
1.95 0.00807
2 0.00878
2.05 0.00905
2.1 0.00873
2.15 0.00812
2.2 0.00806
2.25 0.00794
2.3 0.00843
2.35 0.00848
2.4 0.00746
2.45 0.00642
2.5 0.00531
2.55 0.00513
2.6 0.00485
2.65 0.00485
2.7 0.00511
2.75 0.0046
2.8 0.00428
2.85 0.00452
2.9 0.00458
2.95 0.00512
3 0.00465
3.05 0.00491
3.1 0.00554
3.15 0.00581
3.2 0.00622
3.25 0.00655
3.3 0.00725
3.35 0.00676
3.4 0.00669
3.45 0.00657
3.5 0.00674
3.55 0.00691
3.6 0.0062
3.65 0.0058
3.7 0.00484
3.75 0.0044
3.8 0.00409
3.85 0.00434
3.9 0.00443
3.95 0.00371
4 0.00305
4.05 0.003
4.1 0.00344
4.15 0.00324
4.2 0.00344
4.25 0.00425
4.3 0.00372
4.35 0.00396
4.4 0.00378
4.45 0.00357
4.5 0.00322
4.55 0.00215
4.6 0.00211
4.65 0.00266
4.7 0.00359
4.75 0.00365
4.8 0.00407
4.85 0.0049
4.9 0.00447
4.95 0.00475
5 0.00486
5.05 0.00485
5.1 0.0051
5.15 0.00548
5.2 0.00461
5.25 0.00321
5.3 0.00202
5.35 0.00191
5.4 0.00193
5.45 0.00213
5.5 0.0014
5.55 0.00051
5.6 0.00016
5.65 0.00035
5.7 0.00075
5.75 0.00022
5.8 -0.00076
5.85 -0.00075
5.9 -0.00137
5.95 -0.00086
6 -0.00126
6.05 -0.00213
6.1 -0.00286
6.15 -0.00309
6.2 -0.00323
6.25 -0.00368
6.3 -0.00386
6.35 -0.00322
6.4 -0.00268
6.45 -0.00259
6.5 -0.00246
6.55 -0.00148
6.6 -0.00133
6.65 -0.0003
6.7 -0.00026
6.75 -0.00028
6.8 -0.00012
6.85 -0.00074
6.9 -0.0011
6.95 -0.00187
7 -0.00129
7.05 -0.00041
7.1 -0.00029
7.15 0.00065
7.2 0.00057
7.25 -0.00001
7.3 0.00059
7.35 0.00166
7.4 0.00191
7.45 0.00141
7.5 0.0005
7.55 0.00049
7.6 0.0008
7.65 0.00019
7.7 0.00031
7.75 0.00129
7.8 0.00136
7.85 0.00076
7.9 0.00095
7.95 0.00075
8 0.00045
8.05 0.00098
8.1 0.00171
8.15 0.00143
8.2 0.00175
8.25 0.00121
8.3 0.00038
8.35 -0.00048
8.4 -0.00175
8.45 -0.00214
8.5 -0.00173
8.55 -0.00174
8.6 -0.00206
8.65 -0.00278
8.7 -0.00277
8.75 -0.00247
8.8 -0.00141
8.85 -0.00137
8.9 -0.00197
8.95 -0.0018
9 -0.00085
9.05 -0.00026
9.1 0.00084
9.15 0.00144
9.2 0.00118
9.25 0.00037
9.3 -0.00058
9.35 -0.00058
9.4 -0.00082
9.45 -0.00127
9.5 -0.00184
9.55 -0.00121
9.6 -0.00029
9.65 0.00083
9.7 0.00176
9.75 0.00239
9.8 0.00184
9.85 0.00212
9.9 0.00171
9.95 0.0014
10 0.00098
10.05 0.00002
10.1 -0.00047
10.15 -0.00021
10.2 -0.00064
10.25 -0.00139
10.3 -0.00203
10.35 -0.0017
10.4 -0.00066
10.45 0.0007
10.5 0.00145
10.55 0.00152
10.6 0.00211
10.65 0.00294
10.7 0.0038
10.75 0.00364
10.8 0.00299
10.85 0.00318
10.9 0.00349
10.95 0.00413
11 0.00449
11.05 0.00427
11.1 0.00368
11.15 0.00234
11.2 0.00074
11.25 0.00037
11.3 0.00076
11.35 0.00103
11.4 0.00198
11.45 0.00205
11.5 0.00231
11.55 0.00183
11.6 0.00202
11.65 0.00112
11.7 0.00062
11.75 0.0011
11.8 0.00166
11.85 0.00117
11.9 0.00126
11.95 0.00055
12 -0.00073
12.05 -0.00116
12.1 -0.00046
12.15 -0.00029
12.2 -0.00013
12.25 0.0006
12.3 0.00167
12.35 0.00253
12.4 0.00313
12.45 0.00253
12.5 0.00202
12.55 0.00162
12.6 0.00082
12.65 0.00105
12.7 0.00055
12.75 -0.00065
12.8 -0.00162
12.85 -0.00225
12.9 -0.00327
12.95 -0.00355
13 -0.00397
13.05 -0.00401
13.1 -0.003
13.15 -0.00144
13.2 -0.00053
13.25 0.001
13.3 0.00173
13.35 0.00263
13.4 0.00283
13.45 0.00334
13.5 0.00359
13.55 0.00402
13.6 0.00392
13.65 0.00331
13.7 0.00305
13.75 0.00189
13.8 0.00076
13.85 -0.00035
13.9 -0.0009
13.95 -0.00037
14 -0.00052
14.05 -0.00007
14.1 0.00106
14.15 0.00164
14.2 0.0026
14.25 0.00359
14.3 0.00355
14.35 0.00332
14.4 0.00211
14.45 0.00062
14.5 -0.00112
14.55 -0.00141
14.6 -0.00203
14.65 -0.00229
14.7 -0.00241
14.75 -0.00235
14.8 -0.00266
14.85 -0.00178
14.9 -0.00093
14.95 0.00047
15 0.00147
15.05 0.00188
15.1 0.00144
15.15 0.00162
15.2 0.00172
15.25 0.00216
15.3 0.00308
15.35 0.00269
15.4 0.00208
15.45 0.00062
15.5 -0.00025
15.55 -0.0015
15.6 -0.00153
15.65 -0.00146
15.7 -0.00154
15.75 -0.00138
15.8 -0.00167
15.85 -0.00126
15.9 -0.00168
15.95 -0.0018
16 -0.00165
16.05 -0.00088
16.1 -0.001
16.15 -0.00059
16.2 -0.00041
16.25 0.00024
16.3 0.00102
16.35 0.00109
16.4 0.00139
16.45 0.00136
16.5 0.00125
16.55 0.00192
16.6 0.00169
16.65 0.00136
16.7 0.0017
16.75 0.00212
16.8 0.00285
16.85 0.00314
16.9 0.0037
16.95 0.0039
17 0.00422
17.05 0.00383
17.1 0.0034
17.15 0.00213
17.2 0.0016
17.25 0.00164
17.3 0.00122
17.35 0.00124
17.4 0.00024
17.45 -0.00117
17.5 -0.00124
17.55 -0.00179
17.6 -0.00186
17.65 -0.00126
17.7 -0.00086
17.75 -0.00135
17.8 -0.00186
17.85 -0.00257
17.9 -0.00305
17.95 -0.00265
18 -0.00235
18.05 -0.00116
18.1 -0.00081
18.15 -0.0014
18.2 -0.00097
18.25 -0.00016
18.3 -0.00016
18.35 0.00031
18.4 0.00116
18.45 0.00214
18.5 0.00181
18.55 0.00123
18.6 0.00066
18.65 0.00058
18.7 0.0006
18.75 0.00062
18.8 0.00137
18.85 0.00227
18.9 0.00243
18.95 0.00188
19 0.00208
19.05 0.00178
19.1 0.00133
19.15 0.00051
19.2 -0.0007
19.25 -0.00184
19.3 -0.0031
19.35 -0.00375
19.4 -0.00315
19.45 -0.00174
19.5 0.00009
19.55 0.00117
19.6 0.00156
19.65 0.00103
19.7 0.00069
19.75 0.00028
19.8 -0.00087
19.85 -0.00175
19.9 -0.00214
19.95 -0.00214
20 -0.00277
20.05 -0.00291
20.1 -0.00239
20.15 -0.00111
20.2 -0.00071
20.25 -0.00078
20.3 0.00003
20.35 -0.00001
20.4 -0.0003
20.45 -0.00067
20.5 -0.00075
20.55 -0
20.6 0.00004
20.65 0.00059
20.7 0.00078
20.75 0.00146
20.8 0.00091
20.85 0.00067
20.9 -0.00013
20.95 -0.00034
21 -0.001
21.05 -0.00161
21.1 -0.00104
21.15 -0.00032
21.2 0.00063
21.25 0.00131
21.3 0.00173
21.35 0.00262
21.4 0.00263
21.45 0.00311
21.5 0.00351
21.55 0.00341
21.6 0.00313
21.65 0.00307
21.7 0.00292
21.75 0.00293
21.8 0.00199
21.85 0.00041
21.9 -0.00096
21.95 -0.00248
22 -0.00248
22.05 -0.00158
22.1 -0.00088
22.15 0.0002
22.2 0.00009
22.25 -0.00064
22.3 -0.00129
22.35 -0.0013
22.4 -0.0006
22.45 -0.00022
22.5 0.00043
22.55 0.00085
22.6 0.00065
22.65 -0.00027
22.7 -0.00159
22.75 -0.00184
22.8 -0.00191
22.85 -0.00226
22.9 -0.00302
22.95 -0.00275
23 -0.00234
23.05 -0.00132
23.1 -0.00094
23.15 -0.00008
23.2 0.00038
23.25 0.00022
23.3 0.00044
23.35 0.00107
23.4 0.00212
23.45 0.00229
23.5 0.00193
23.55 0.00217
23.6 0.0017
23.65 0.00094
23.7 0.00096
23.75 0.00057
23.8 0.00033
23.85 0.00077
23.9 0.00033
23.95 0.00053
24 0.00053
24.05 -0.0004
24.1 -0.00178
24.15 -0.00283
24.2 -0.00322
24.25 -0.00292
24.3 -0.00222
24.35 -0.00183
24.4 -0.00144
24.45 -0.00187
24.5 -0.00142
24.55 -0.00127
24.6 -0.00132
24.65 -0.00147
24.7 -0.00106
24.75 -0.00013
24.8 0.00109
24.85 0.00197
24.9 0.00287
24.95 0.00359
25 0.00432
25.05 0.0051
25.1 0.00561
25.15 0.00464
25.2 0.00268
25.25 0.00076
25.3 -0.00055
25.35 -0.00219
25.4 -0.00301
25.45 -0.00345
25.5 -0.00277
25.55 -0.00243
25.6 -0.00242
25.65 -0.00208
25.7 -0.00132
25.75 -0.00147
25.8 -0.00086
25.85 0.0004
25.9 0.00107
25.95 0.00094
26 -0.00006
26.05 -0.00038
26.1 -0.00105
26.15 -0.00064
26.2 0.0002
26.25 0.00058
26.3 0.00148
26.35 0.00144
26.4 0.0021
26.45 0.00147
26.5 0.00096
26.55 0.00051
26.6 0.00042
26.65 -0.00014
26.7 0.00009
26.75 -0.00072
26.8 -0.00039
26.85 -0.00027
26.9 0.0001
26.95 0.00002
27 -0.00011
27.05 0.00055
27.1 0.00049
27.15 0.00041
27.2 -0.00035
27.25 -0.00126
27.3 -0.00195
27.35 -0.00238
27.4 -0.00263
27.45 -0.00306
27.5 -0.00284
27.55 -0.00202
27.6 -0.00202
27.65 -0.0016
27.7 -0.00189
27.75 -0.00159
27.8 -0.00125
27.85 -0.0004
27.9 -0.00059
27.95 0.00004
28 0.00039
28.05 0.00137
28.1 0.00183
28.15 0.00113
28.2 0.0014
28.25 0.0009
28.3 0.00129
28.35 0.00182
28.4 0.0018
28.45 0.00162
28.5 0.00167
28.55 0.00075
28.6 -0.00006
28.65 -0.00151
28.7 -0.00176
28.75 -0.0026
28.8 -0.00343
28.85 -0.00459
28.9 -0.00486
28.95 -0.00474
29 -0.00404
29.05 -0.00365
29.1 -0.00396
29.15 -0.00379
29.2 -0.00344
29.25 -0.00269
29.3 -0.00246
29.35 -0.00297
29.4 -0.0029
29.45 -0.00231
29.5 -0.0013
29.55 -0.00009
29.6 0.00015
29.65 0.00062
29.7 0.00137
29.75 0.00213
29.8 0.00288
29.85 0.0033
29.9 0.00321
29.95 0.00271
30 0.00173
30.05 0.00155
30.1 0.00107
30.15 0.00027
30.2 -0.00032
30.25 -0.00018
30.3 0.00016
30.35 0.00057
30.4 0.00064
30.45 0.00117
30.5 0.00156
30.55 0.0025
30.6 0.00241
30.65 0.00265
30.7 0.00256
30.75 0.00171
30.8 0.0009
30.85 -0.00052
30.9 -0.00213
30.95 -0.00217
31 -0.00214
31.05 -0.00235
31.1 -0.00306
31.15 -0.00251
31.2 -0.00128
31.25 -0.00108
31.3 -0.00056
31.35 -0.00075
31.4 -0.00155
31.45 -0.00203
31.5 -0.00171
31.55 -0.00134
31.6 -0.00019
31.65 0.0011
31.7 0.00184
31.75 0.00221
31.8 0.00186
31.85 0.00137
31.9 0.00063
31.95 0.00052
32 0.00079
32.05 0.0007
32.1 -0.00007
32.15 -0.00137
32.2 -0.00174
32.25 -0.00252
32.3 -0.00213
32.35 -0.00142
32.4 -0.00081
32.45 0.00028
32.5 0.00045
32.55 -0.00003
32.6 -0.00084
32.65 -0.00206
32.7 -0.00277
32.75 -0.00333
32.8 -0.00341
32.85 -0.00383
32.9 -0.0036
32.95 -0.00309
33 -0.00292
33.05 -0.00317
33.1 -0.00251
33.15 -0.00115
33.2 -0.0004
33.25 -0.00023
33.3 0.00031
33.35 0.00022
33.4 0.00099
33.45 0.00178
33.5 0.0016
33.55 0.00189
33.6 0.00117
33.65 0.00116
33.7 0.00139
33.75 0.00159
33.8 0.00235
33.85 0.00198
33.9 0.00218
33.95 0.00198
34 0.00218
34.05 0.00252
34.1 0.00256
34.15 0.00291
34.2 0.00211
34.25 0.00186
34.3 0.00092
34.35 -0.00044
34.4 -0.00137
34.45 -0.00149
34.5 -0.00181
34.55 -0.00185
34.6 -0.00257
34.65 -0.00355
34.7 -0.00387
34.75 -0.00355
34.8 -0.00226
34.85 -0.00169
34.9 -0.00148
34.95 -0.00146
35 -0.00183
35.05 -0.00161
35.1 -0.00112
35.15 -0.00099
35.2 -0.0012
35.25 -0.00132
35.3 -0.00149
35.35 -0.00162
35.4 -0.00215
35.45 -0.0025
35.5 -0.00321
35.55 -0.00401
35.6 -0.00387
35.65 -0.00391
35.7 -0.00292
35.75 -0.00152
35.8 0.0004
35.85 0.00229
35.9 0.00354
35.95 0.0048
36 0.00486
36.05 0.00502
36.1 0.00446
36.15 0.00335
36.2 0.00177
36.25 0.00037
36.3 0.00001
36.35 -0.00078
36.4 -0.00175
36.45 -0.00169
36.5 -0.00107
36.55 -0.0011
36.6 -0.00089
36.65 0.00016
36.7 0.00136
36.75 0.00232
36.8 0.00251
36.85 0.00228
36.9 0.00129
36.95 0.00034
37 -0.00098
37.05 -0.00161
37.1 -0.00103
37.15 -0.00047
37.2 -0.00072
37.25 -0.00085
37.3 -0.00166
37.35 -0.00228
37.4 -0.00199
37.45 -0.00159
37.5 -0.00116
37.55 -0.00043
37.6 0.00026
37.65 -0.00019
37.7 0.00011
37.75 -0.00042
37.8 -0.0013
37.85 -0.00104
37.9 -0.00054
37.95 -0.00086
38 -0.00122
38.05 -0.00171
38.1 -0.00107
38.15 -0.00024
38.2 -0.00036
38.25 -0.00102
38.3 -0.00112
38.35 -0.00074
38.4 0.00044
38.45 0.00206
38.5 0.00365
38.55 0.00518
38.6 0.00556
38.65 0.00473
38.7 0.00319
38.75 0.00225
38.8 0.00228
38.85 0.00295
38.9 0.00387
38.95 0.00488
39 0.00457
39.05 0.00358
39.1 0.0026
39.15 0.0016
39.2 0.00005
39.25 -0.00023
39.3 -0.00088
39.35 -0.00131
39.4 -0.0016
39.45 -0.00137
39.5 -0.0014
39.55 -0.00111
39.6 -0.00109
39.65 -0.00039
39.7 -0.00039
39.75 -0.0001
39.8 -0.00042
39.85 -0.00119
39.9 -0.00098
39.95 -0.00026
40 -0.00025
40.05 -0.00051
40.1 -0.00084
40.15 -0.0004
40.2 -0.00058
40.25 -0.00098
40.3 -0.00102
40.35 -0.00016
40.4 0.00004
40.45 0.00043
40.5 0.00117
40.55 0.00073
40.6 0.00052
40.65 0.00037
40.7 0.00077
40.75 0.00124
40.8 0.00225
40.85 0.0024
40.9 0.00291
40.95 0.00306
41 0.00282
41.05 0.00219
41.1 0.00129
41.15 0.00095
41.2 -0.00018
41.25 -0.00167
41.3 -0.00282
41.35 -0.00302
41.4 -0.00248
41.45 -0.00211
41.5 -0.00158
41.55 -0.00126
41.6 -0.00063
41.65 -0.00002
41.7 0.00075
41.75 0.00201
41.8 0.00217
41.85 0.0014
41.9 0.00129
41.95 0.0005
42 -0.00008
42.05 -0.00094
42.1 -0.00223
42.15 -0.00256
42.2 -0.00281
42.25 -0.0021
42.3 -0.00144
42.35 -0.00087
42.4 -0.00013
42.45 -0.00048
42.5 -0.00149
42.55 -0.00171
42.6 -0.00195
42.65 -0.0027
42.7 -0.00228
42.75 -0.00213
42.8 -0.00184
42.85 -0.00077
42.9 0.00002
42.95 0.00099
43 0.00123
43.05 0.00158
43.1 0.00237
43.15 0.00258
43.2 0.00254
43.25 0.00161
43.3 0.00116
43.35 0.00128
43.4 0.00169
43.45 0.00252
43.5 0.00256
43.55 0.00162
43.6 0.00018
43.65 -0.00034
43.7 -0.00146
43.75 -0.00168
43.8 -0.00213
43.85 -0.00158
43.9 -0.00066
43.95 0.00056
44 0.00146
44.05 0.00199
44.1 0.00297
44.15 0.00272
44.2 0.00267
44.25 0.002
44.3 0.00097
44.35 0.00082
44.4 0.00133
44.45 0.00231
44.5 0.00232
44.55 0.00235
44.6 0.00297
44.65 0.00312
44.7 0.0034
44.75 0.00239
44.8 0.00089
44.85 0.00055
44.9 0.00085
44.95 0.001
45 0.00025
45.05 -0.00119
45.1 -0.0019
45.15 -0.00193
45.2 -0.00213
45.25 -0.00234
45.3 -0.00265
45.35 -0.00215
45.4 -0.00203
45.45 -0.00256
45.5 -0.0033
45.55 -0.00335
45.6 -0.00339
45.65 -0.00335
45.7 -0.00278
45.75 -0.00224
45.8 -0.00171
45.85 -0.00156
45.9 -0.00198
45.95 -0.00133
46 -0.00116
46.05 -0.00042
46.1 -0.00077
46.15 -0.0016
46.2 -0.00122
46.25 -0.00175
46.3 -0.00223
46.35 -0.00211
46.4 -0.00104
46.45 -0.00018
46.5 0.00031
46.55 0.00014
46.6 -0.00031
46.65 -0.0004
46.7 -0.00019
46.75 -0.00005
46.8 -0.00001
46.85 0.00023
46.9 0.00105
46.95 0.00116
47 0.00115
47.05 0.00047
47.1 0.00066
47.15 0.001
47.2 0.00034
47.25 -0.00035
47.3 -0.00138
47.35 -0.00183
47.4 -0.00183
47.45 -0.00107
47.5 -0.00115
47.55 -0.00125
47.6 -0.0004
47.65 0.00079
47.7 0.00071
47.75 0.00102
47.8 0.00172
47.85 0.00178
47.9 0.00109
47.95 0.00049
48 -0.00041
48.05 -0.00174
48.1 -0.00159
48.15 -0.0016
48.2 -0.00222
48.25 -0.00167
48.3 -0.00103
48.35 -0.00101
48.4 -0.00039
48.45 -0.00003
48.5 0.00102
48.55 0.00197
48.6 0.00223
48.65 0.00227
48.7 0.00192
48.75 0.00179
48.8 0.00065
48.85 -0.00053
48.9 -0.00053
48.95 -0.00079
49 -0.00179
49.05 -0.00221
49.1 -0.00188
49.15 -0.00136
49.2 -0.00058
49.25 -0.00071
49.3 0.00011
49.35 0.00095
49.4 0.00213
49.45 0.00227
49.5 0.00143
49.55 0.00146
49.6 0.00134
49.65 0.00058
49.7 -0.0003
49.75 -0.00116
49.8 -0.00105
49.85 -0.00053
49.9 -0.00088
49.95 -0.00077
50 -0.00047
50.05 -0.00101
50.1 -0.00069
50.15 0.00035
50.2 0.0003
50.25 0.001
50.3 0.00053
50.35 -0.00043
50.4 -0.00096
50.45 -0.00077
50.5 -0.00043
50.55 0.00017
50.6 0.00123
50.65 0.00144
50.7 0.00124
50.75 0.00139
50.8 0.00154
50.85 0.00164
50.9 0.00075
50.95 0.00091
51 0.00133
51.05 0.00071
51.1 0.0011
51.15 0.00096
51.2 0.00157
51.25 0.00093
51.3 -0.00028
51.35 -0.00068
51.4 -0.00145
51.45 -0.00128
51.5 -0.00197
51.55 -0.0019
51.6 -0.00166
51.65 -0.00127
51.7 -0.00009
51.75 0.00042
51.8 0.00089
51.85 0.00108
51.9 0.00092
51.95 0.00014
52 -0.00091
52.05 -0.00157
52.1 -0.00276
52.15 -0.00333
52.2 -0.00325
52.25 -0.00307
52.3 -0.00206
52.35 -0.00075
52.4 -0.00072
52.45 -0.00051
52.5 -0.00112
52.55 -0.001
52.6 -0.00173
52.65 -0.00202
52.7 -0.00268
52.75 -0.00318
52.8 -0.00355
52.85 -0.00328
52.9 -0.00305
52.95 -0.0032
53 -0.00271
53.05 -0.00275
53.1 -0.0027
53.15 -0.00171
53.2 -0.00151
53.25 -0.00189
53.3 -0.00189
53.35 -0.00135
53.4 -0.00158
53.45 -0.00069
53.5 -0.00053
53.55 0.00017
53.6 -0.00005
53.65 -0.00025
53.7 -0.00069
53.75 -0.00025
53.8 0.00052
53.85 0.00057
53.9 0.00125
53.95 0.00154
54 0.00194
54.05 0.00193
54.1 0.00156
54.15 0.00043
54.2 -0.00008
54.25 -0.00038
54.3 -0.00057
54.35 -0.00025
54.4 0.00045
54.45 0.00018
54.5 -0.00043
54.55 -0.00107
54.6 -0.00136
54.65 -0.00074
54.7 0.00033
54.75 0.00167
54.8 0.00284
54.85 0.00297
54.9 0.00341
54.95 0.00295
55 0.00292
55.05 0.0022
55.1 0.00125
55.15 -0.00012
55.2 -0.00091
55.25 -0.00099
55.3 -0.00116
55.35 -0.00052
55.4 0.00074
55.45 0.00207
55.5 0.00351
55.55 0.00383
55.6 0.00315
55.65 0.00244
55.7 0.00103
55.75 0.00036
55.8 -0.0008
55.85 -0.00201
55.9 -0.00289
55.95 -0.00346
56 -0.00418
56.05 -0.00353
56.1 -0.00348
56.15 -0.00244
56.2 -0.00094
56.25 0.00052
56.3 0.00198
56.35 0.00245
56.4 0.00236
56.45 0.00211
56.5 0.00159
56.55 0.00121
56.6 0.00147
56.65 0.00223
56.7 0.00174
56.75 0.00118
56.8 0.00135
56.85 0.00077
56.9 0.00071
56.95 0.00039
57 0.00025
57.05 -0.00061
57.1 -0.00114
57.15 -0.00141
57.2 -0.00115
57.25 -0.00116
57.3 -0.00088
57.35 -0.00089
57.4 -0.00149
57.45 -0.00173
57.5 -0.00183
57.55 -0.00103
57.6 -0.00036
57.65 -0.00032
57.7 -0.0013
57.75 -0.00235
57.8 -0.0036
57.85 -0.00385
57.9 -0.00406
57.95 -0.00508
58 -0.00639
58.05 -0.00838
58.1 -0.01079
58.15 -0.01339
58.2 -0.0151
58.25 -0.01675
58.3 -0.01802
58.35 -0.01938
58.4 -0.02136
58.45 -0.02355
58.5 -0.02751
58.55 -0.03324
58.6 -0.03929
58.65 -0.047
58.7 -0.05575
58.75 -0.06555
58.8 -0.07529
58.85 -0.08661
58.9 -0.09876
58.95 -0.11278
59 -0.12794
59.05 -0.14402
59.1 -0.16218
59.15 -0.18069
59.2 -0.20099
59.25 -0.22292
59.3 -0.24641
59.35 -0.27052
59.4 -0.29556
59.45 -0.32052
59.5 -0.34484
59.55 -0.36914
59.6 -0.39402
59.65 -0.4178
59.7 -0.44174
59.75 -0.46503
59.8 -0.48714
59.85 -0.50734
59.9 -0.52486
59.95 -0.5401
60 -0.55132
60.05 -0.55982
60.1 -0.56482
60.15 -0.56567
60.2 -0.56299
60.25 -0.55655
60.3 -0.54549
60.35 -0.52989
60.4 -0.51008
60.45 -0.48703
60.5 -0.46092
60.55 -0.43119
60.6 -0.3985
60.65 -0.36344
60.7 -0.32702
60.75 -0.28831
60.8 -0.2487
60.85 -0.20698
60.9 -0.16472
60.95 -0.1226
61 -0.08094
61.05 -0.03883
61.1 0.0033
61.15 0.04452
61.2 0.08483
61.25 0.12319
61.3 0.16002
61.35 0.19336
61.4 0.22398
61.45 0.25307
61.5 0.28012
61.55 0.30491
61.6 0.32698
61.65 0.3476
61.7 0.36544
61.75 0.38056
61.8 0.39411
61.85 0.40571
61.9 0.41607
61.95 0.42496
62 0.43228
62.05 0.43795
62.1 0.44236
62.15 0.4456
62.2 0.44753
62.25 0.44939
62.3 0.44993
62.35 0.44945
62.4 0.44792
62.45 0.44544
62.5 0.44133
62.55 0.43612
62.6 0.43024
62.65 0.42424
62.7 0.41745
62.75 0.41027
62.8 0.40354
62.85 0.39684
62.9 0.38859
62.95 0.3803
63 0.37105
63.05 0.36226
63.1 0.35409
63.15 0.34553
63.2 0.33565
63.25 0.32501
63.3 0.31405
63.35 0.30363
63.4 0.29314
63.45 0.28335
63.5 0.27493
63.55 0.2674
63.6 0.26007
63.65 0.25323
63.7 0.24581
63.75 0.23888
63.8 0.23213
63.85 0.22573
63.9 0.21878
63.95 0.21169
64 0.20488
64.05 0.19723
64.1 0.18912
64.15 0.18129
64.2 0.1732
64.25 0.16598
64.3 0.16001
64.35 0.15493
64.4 0.14911
64.45 0.14309
64.5 0.1367
64.55 0.13033
64.6 0.12457
64.65 0.11985
64.7 0.11512
64.75 0.10968
64.8 0.10485
64.85 0.09956
64.9 0.09376
64.95 0.08814
65 0.08276
65.05 0.07671
65.1 0.07203
65.15 0.06699
65.2 0.0621
65.25 0.0571
65.3 0.0528
65.35 0.04795
65.4 0.04266
65.45 0.0378
65.5 0.03238
65.55 0.02819
65.6 0.02366
65.65 0.01907
65.7 0.0155
65.75 0.01246
65.8 0.00856
65.85 0.00527
65.9 0.00081
65.95 -0.00379
66 -0.00875
66.05 -0.01344
66.1 -0.0175
66.15 -0.0208
66.2 -0.02307
66.25 -0.02602
66.3 -0.02813
66.35 -0.02981
66.4 -0.0311
66.45 -0.03237
66.5 -0.03492
66.55 -0.03768
66.6 -0.04116
66.65 -0.04491
66.7 -0.04802
66.75 -0.05102
66.8 -0.05397
66.85 -0.0553
66.9 -0.05707
66.95 -0.05902
67 -0.05946
67.05 -0.06033
67.1 -0.06122
67.15 -0.06132
67.2 -0.062
67.25 -0.06333
67.3 -0.06335
67.35 -0.06287
67.4 -0.06339
67.45 -0.06342
67.5 -0.06322
67.55 -0.06391
67.6 -0.06499
67.65 -0.06489
67.7 -0.06449
67.75 -0.0646
67.8 -0.06464
67.85 -0.06462
67.9 -0.06372
67.95 -0.06316
68 -0.06192
68.05 -0.06066
68.1 -0.05949
68.15 -0.05968
68.2 -0.06029
68.25 -0.06055
68.3 -0.06086
68.35 -0.06054
68.4 -0.05947
68.45 -0.05933
68.5 -0.05907
68.55 -0.05813
68.6 -0.05677
68.65 -0.05605
68.7 -0.05574
68.75 -0.05468
68.8 -0.05403
68.85 -0.05335
68.9 -0.05256
68.95 -0.05268
69 -0.05184
69.05 -0.05024
69.1 -0.04908
69.15 -0.04811
69.2 -0.04802
69.25 -0.04729
69.3 -0.04661
69.35 -0.04688
69.4 -0.04752
69.45 -0.04811
69.5 -0.04815
69.55 -0.04773
69.6 -0.04719
69.65 -0.04708
69.7 -0.04584
69.75 -0.0451
69.8 -0.04452
69.85 -0.04401
69.9 -0.04328
69.95 -0.04296
70 -0.04293
70.05 -0.04306
70.1 -0.04237
70.15 -0.04094
70.2 -0.03996
70.25 -0.03835
70.3 -0.03673
70.35 -0.03621
70.4 -0.03471
70.45 -0.03407
70.5 -0.03346
70.55 -0.03372
70.6 -0.03328
70.65 -0.03275
70.7 -0.0313
70.75 -0.03028
70.8 -0.02901
70.85 -0.02866
70.9 -0.02796
70.95 -0.02798
71 -0.02877
71.05 -0.02855
71.1 -0.02744
71.15 -0.02603
71.2 -0.02568
71.25 -0.02575
71.3 -0.02526
71.35 -0.0244
71.4 -0.02329
71.45 -0.02338
71.5 -0.02261
71.55 -0.02232
71.6 -0.02222
71.65 -0.02187
71.7 -0.02163
71.75 -0.02064
71.8 -0.01948
71.85 -0.01857
71.9 -0.01747
71.95 -0.017
72 -0.01758
72.05 -0.01743
72.1 -0.01828
72.15 -0.01964
72.2 -0.02003
72.25 -0.0202
72.3 -0.02097
72.35 -0.02078
72.4 -0.02005
72.45 -0.01925
72.5 -0.01876
72.55 -0.01906
72.6 -0.01906
72.65 -0.0193
72.7 -0.01864
72.75 -0.01732
72.8 -0.01594
72.85 -0.01566
72.9 -0.01486
72.95 -0.01475
73 -0.01468
73.05 -0.01493
73.1 -0.01462
73.15 -0.01479
73.2 -0.01465
73.25 -0.01487
73.3 -0.01501
73.35 -0.01448
73.4 -0.0133
73.45 -0.01337
73.5 -0.01402
73.55 -0.01504
73.6 -0.01615
73.65 -0.01683
73.7 -0.01693
73.75 -0.01615
73.8 -0.0152
73.85 -0.01512
73.9 -0.01468
73.95 -0.01369
74 -0.01231
74.05 -0.01172
74.1 -0.01141
74.15 -0.01119
74.2 -0.01134
74.25 -0.01214
74.3 -0.01166
74.35 -0.01037
74.4 -0.00888
74.45 -0.00766
74.5 -0.00719
74.55 -0.00633
74.6 -0.00668
74.65 -0.00708
74.7 -0.00763
74.75 -0.00883
74.8 -0.00879
74.85 -0.00882
74.9 -0.00934
74.95 -0.00965
75 -0.01033
75.05 -0.00981
75.1 -0.00967
75.15 -0.00892
75.2 -0.00865
75.25 -0.00915
75.3 -0.00931
75.35 -0.00892
75.4 -0.00785
75.45 -0.0074
75.5 -0.00697
75.55 -0.00656
75.6 -0.00559
75.65 -0.00438
75.7 -0.00315
75.75 -0.00312
75.8 -0.0041
75.85 -0.00449
75.9 -0.00454
75.95 -0.00527
76 -0.00612
76.05 -0.00588
76.1 -0.00626
76.15 -0.00723
76.2 -0.00692
76.25 -0.00611
76.3 -0.00587
76.35 -0.00485
76.4 -0.00477
76.45 -0.00442
76.5 -0.00408
76.55 -0.00385
76.6 -0.00291
76.65 -0.0018
76.7 -0.00166
76.75 -0.00186
76.8 -0.00306
76.85 -0.00456
76.9 -0.0062
76.95 -0.00738
77 -0.00816
77.05 -0.00846
77.1 -0.00863
77.15 -0.00812
77.2 -0.00771
77.25 -0.00751
77.3 -0.00705
77.35 -0.00559
77.4 -0.00521
77.45 -0.004
77.5 -0.00302
77.55 -0.00318
77.6 -0.0037
77.65 -0.00454
77.7 -0.00503
77.75 -0.00492
77.8 -0.00381
77.85 -0.00293
77.9 -0.00153
77.95 -0.00017
78 0.00036
78.05 -0.00024
78.1 -0.00107
78.15 -0.00207
78.2 -0.00243
78.25 -0.00267
78.3 -0.00319
78.35 -0.00389
78.4 -0.00498
78.45 -0.00466
78.5 -0.00357
78.55 -0.00245
78.6 -0.0009
78.65 -0.00062
78.7 -0.00132
78.75 -0.0013
78.8 -0.00137
78.85 -0.00143
78.9 -0.00234
78.95 -0.00332
79 -0.0041
79.05 -0.00403
79.1 -0.00448
79.15 -0.00504
79.2 -0.00516
79.25 -0.00531
79.3 -0.00577
79.35 -0.00603
79.4 -0.00615
79.45 -0.00514
79.5 -0.00377
79.55 -0.00326
79.6 -0.00324
79.65 -0.00374
79.7 -0.00462
79.75 -0.00527
79.8 -0.00581
79.85 -0.00617
79.9 -0.00535
79.95 -0.00454
80 -0.00315
80.05 -0.00293
80.1 -0.0018
80.15 -0.00182
80.2 -0.00237
80.25 -0.00286
80.3 -0.00311
80.35 -0.00381
80.4 -0.004
80.45 -0.00422
80.5 -0.00365
80.55 -0.00285
80.6 -0.00219
80.65 -0.00116
80.7 0.00002
80.75 0.00016
80.8 0.00109
80.85 0.00132
80.9 0.00081
80.95 -0.0002
81 -0.00103
81.05 -0.00174
81.1 -0.00204
81.15 -0.00217
81.2 -0.00286
81.25 -0.00352
81.3 -0.00392
81.35 -0.0044
81.4 -0.00378
81.45 -0.00289
81.5 -0.00149
81.55 -0.00077
81.6 -0.00037
81.65 -0.00028
81.7 0.00059
81.75 0.00078
81.8 0.00122
81.85 0.00226
81.9 0.00307
81.95 0.00311
82 0.00252
82.05 0.00158
82.1 0.00038
82.15 -0.00097
82.2 -0.00165
82.25 -0.00224
82.3 -0.00293
82.35 -0.00296
82.4 -0.0019
82.45 -0.00101
82.5 -0.00021
82.55 0.0001
82.6 -0.00049
82.65 0.00008
82.7 0.00129
82.75 0.00183
82.8 0.00115
82.85 0.00057
82.9 0.00024
82.95 -0.00064
83 -0.00141
83.05 -0.00201
83.1 -0.00263
83.15 -0.00215
83.2 -0.00188
83.25 -0.00215
83.3 -0.00228
83.35 -0.00197
83.4 -0.00167
83.45 -0.00174
83.5 -0.00124
83.55 -0.00019
83.6 -0.00012
83.65 -0.00029
83.7 0.00047
83.75 0.0012
83.8 0.00165
83.85 0.00138
83.9 0.00037
83.95 0.00023
84 0.00077
84.05 0.00066
84.1 0.00126
84.15 0.00156
84.2 0.00155
84.25 0.00185
84.3 0.00266
84.35 0.00223
84.4 0.00225
84.45 0.00224
84.5 0.00186
84.55 0.0023
84.6 0.00216
84.65 0.0016
84.7 0.0011
84.75 0.00124
84.8 0.00067
84.85 -0.00029
84.9 -0.001
84.95 -0.00094
85 -0.00045
85.05 -0.00062
85.1 -0.00001
85.15 -0.00046
85.2 0.0001
85.25 0
85.3 -0.00047
85.35 0.00016
85.4 0.00071
85.45 0.00013
85.5 -0.00012
85.55 -0.00062
85.6 -0.00037
85.65 -0.00001
85.7 0.00083
85.75 0.0017
85.8 0.00184
85.85 0.00231
85.9 0.00309
85.95 0.00335
86 0.00372
86.05 0.0045
86.1 0.00379
86.15 0.00214
86.2 0.0002
86.25 -0.0017
86.3 -0.00255
86.35 -0.0037
86.4 -0.00418
86.45 -0.0047
86.5 -0.00483
86.55 -0.00473
86.6 -0.00454
86.65 -0.00492
86.7 -0.00505
86.75 -0.00445
86.8 -0.00403
86.85 -0.00399
86.9 -0.00412
86.95 -0.00466
87 -0.00391
87.05 -0.00332
87.1 -0.00239
87.15 -0.00077
87.2 -0.00022
87.25 0.00093
87.3 0.0017
87.35 0.00203
87.4 0.0025
87.45 0.00288
87.5 0.00373
87.55 0.00357
87.6 0.00355
87.65 0.00338
87.7 0.00288
87.75 0.00298
87.8 0.00345
87.85 0.00318
87.9 0.0023
87.95 0.00078
88 -0.0008
88.05 -0.00107
88.1 -0.00185
88.15 -0.0028
88.2 -0.00257
88.25 -0.0025
88.3 -0.00238
88.35 -0.00234
88.4 -0.00237
88.45 -0.00265
88.5 -0.0028
88.55 -0.00224
88.6 -0.00177
88.65 -0.00044
88.7 -0.00011
88.75 0.00078
88.8 0.00146
88.85 0.00212
88.9 0.00201
88.95 0.00122
89 0.0005
89.05 0.00068
89.1 0.00158
89.15 0.00233
89.2 0.00185
89.25 0.00205
89.3 0.00222
89.35 0.00232
89.4 0.00232
89.45 0.00253
89.5 0.00198
89.55 0.00201
89.6 0.00108
89.65 0.00047
89.7 -0.00071
89.75 -0.00203
89.8 -0.00232
89.85 -0.00306
89.9 -0.00329
89.95 -0.00234
90 -0.00199
90.05 -0.00192
90.1 -0.00243
90.15 -0.00325
90.2 -0.00337
90.25 -0.00312
90.3 -0.00242
90.35 -0.00248
90.4 -0.00158
90.45 -0.00048
90.5 0.0003
90.55 0.00081
90.6 0.00077
90.65 0.00092
90.7 0.00144
90.75 0.00215
90.8 0.00203
90.85 0.002
90.9 0.00227
90.95 0.00169
91 0.00148
91.05 0.00043
91.1 -0.00101
91.15 -0.00136
91.2 -0.00154
91.25 -0.00094
91.3 -0.00099
91.35 -0.00069
91.4 -0.00088
91.45 -0.00138
91.5 -0.0009
91.55 -0.00013
91.6 0.00068
91.65 0.00057
91.7 0.00093
91.75 0.00062
91.8 -0.00028
91.85 -0.00043
91.9 0.0002
91.95 -0.00009
92 0.00006
92.05 0.00015
92.1 0.00099
92.15 0.00162
92.2 0.00199
92.25 0.00124
92.3 0.00147
92.35 0.001
92.4 0.00099
92.45 0.00076
92.5 0.0013
92.55 0.00084
92.6 -0.00013
92.65 -0.0003
92.7 -0.00092
92.75 -0.00172
92.8 -0.00248
92.85 -0.00233
92.9 -0.0021
92.95 -0.0026
93 -0.00302
93.05 -0.00375
93.1 -0.00461
93.15 -0.00393
93.2 -0.00291
93.25 -0.00162
93.3 -0.00054
93.35 0.00024
93.4 0.00052
93.45 -0.00014
93.5 -0.00124
93.55 -0.00106
93.6 -0.00031
93.65 0.00079
93.7 0.00085
93.75 0.00117
93.8 0.00053
93.85 -0.00055
93.9 -0.00096
93.95 -0.00102
94 -0.0013
94.05 -0.00107
94.1 -0.00065
94.15 -0.00062
94.2 -0.00132
94.25 -0.00219
94.3 -0.00225
94.35 -0.00135
94.4 -0.00096
94.45 0.00004
94.5 0.0001
94.55 -0.00057
94.6 -0.0007
94.65 -0.0005
94.7 -0.00053
94.75 -0.00126
94.8 -0.00144
94.85 -0.00122
94.9 -0.00133
94.95 -0.00176
95 -0.00108
95.05 -0.00094
95.1 -0.00129
95.15 -0.00201
95.2 -0.00263
95.25 -0.00233
95.3 -0.0024
95.35 -0.00145
95.4 -0.00088
95.45 0.00009
95.5 0.0008
95.55 0.00155
95.6 0.00123
95.65 0.00134
95.7 0.00216
95.75 0.00224
95.8 0.00278
95.85 0.00353
95.9 0.00308
95.95 0.00283
96 0.00281
96.05 0.00335
96.1 0.00269
96.15 0.00189
96.2 0.00216
96.25 0.00153
96.3 0.00076
96.35 0.00004
96.4 -0.00012
96.45 -0.00096
96.5 -0.00138
96.55 -0.00206
96.6 -0.00154
96.65 -0.00096
96.7 -0.0008
96.75 -0.00078
96.8 -0.00064
96.85 -0.0003
96.9 0.00012
96.95 0.00039
97 0.0008
97.05 0.0019
97.1 0.00243
97.15 0.0028
97.2 0.00234
97.25 0.00173
97.3 0.0018
97.35 0.00195
97.4 0.00185
97.45 0.00092
97.5 0.00109
97.55 0.00131
97.6 0.00154
97.65 0.00162
97.7 0.00106
97.75 -0.00011
97.8 -0.00125
97.85 -0.00219
97.9 -0.00323
97.95 -0.00295
98 -0.00276
98.05 -0.00155
98.1 -0.00145
98.15 -0.00211
98.2 -0.0022
98.25 -0.00174
98.3 -0.00083
98.35 -0.00075
98.4 -0.00044
98.45 -0.00019
98.5 -0.00002
98.55 0.00093
98.6 0.00221
98.65 0.00304
98.7 0.00408
98.75 0.00448
98.8 0.00387
98.85 0.00368
98.9 0.00351
98.95 0.00295
99 0.00207
99.05 0.00213
99.1 0.0025
99.15 0.00251
99.2 0.00216
99.25 0.00123
99.3 0.00068
99.35 0.00077
99.4 0.00142
99.45 0.00124
99.5 0.00098
99.55 0.00069
99.6 -0.00001
99.65 -0.00101
99.7 -0.00161
99.75 -0.00245
99.8 -0.00222
99.85 -0.00203
99.9 -0.0012
99.95 -0.00052
