0 0
0.05 0.00021
0.1 0.00036
0.15 0.0005
0.2 0.00066
0.25 0.00073
0.3 0.00084
0.35 0.00096
0.4 0.00118
0.45 0.00161
0.5 0.00182
0.55 0.00204
0.6 0.00201
0.65 0.00188
0.7 0.00191
0.75 0.00189
0.8 0.00207
0.85 0.0022
0.9 0.00236
0.95 0.00233
1 0.00229
1.05 0.00244
1.1 0.00251
1.15 0.00269
1.2 0.0027
1.25 0.00248
1.3 0.00214
1.35 0.00179
1.4 0.00174
1.45 0.00175
1.5 0.0019
1.55 0.00207
1.6 0.00228
1.65 0.00225
1.7 0.00215
1.75 0.00226
1.8 0.00208
1.85 0.00206
1.9 0.00192
1.95 0.00164
2 0.00134
2.05 0.0013
2.1 0.00122
2.15 0.00126
2.2 0.0012
2.25 0.00127
2.3 0.00141
2.35 0.00144
2.4 0.00146
2.45 0.0014
2.5 0.0015
2.55 0.00171
2.6 0.00174
2.65 0.00188
2.7 0.00173
2.75 0.00149
2.8 0.00139
2.85 0.00133
2.9 0.00109
2.95 0.00081
3 0.00067
3.05 0.00078
3.1 0.00085
3.15 0.00073
3.2 0.00077
3.25 0.00095
3.3 0.00092
3.35 0.00111
3.4 0.00142
3.45 0.00147
3.5 0.00159
3.55 0.00144
3.6 0.0015
3.65 0.00157
3.7 0.00161
3.75 0.00136
3.8 0.00114
3.85 0.00093
3.9 0.00102
3.95 0.00115
4 0.0012
4.05 0.00131
4.1 0.00154
4.15 0.0018
4.2 0.00199
4.25 0.00199
4.3 0.00167
4.35 0.00119
4.4 0.00075
4.45 0.00053
4.5 0.00048
4.55 0.00031
4.6 0.00032
4.65 0.00022
4.7 0.00007
4.75 -0.00001
4.8 0.00014
4.85 0.00022
4.9 0.00026
4.95 0.00012
5 -0.00009
5.05 -0.00022
5.1 -0.00037
5.15 -0.00029
5.2 -0.00002
5.25 0.00038
5.3 0.00073
5.35 0.00092
5.4 0.00092
5.45 0.00103
5.5 0.00102
5.55 0.00104
5.6 0.00121
5.65 0.00141
5.7 0.00167
5.75 0.00167
5.8 0.0016
5.85 0.00168
5.9 0.00141
5.95 0.00129
6 0.00099
6.05 0.00076
6.1 0.00037
6.15 0.00024
6.2 0.00008
6.25 0.00005
6.3 0.00008
6.35 0.00014
6.4 0.00008
6.45 -0.00013
6.5 -0.00002
6.55 -0.00008
6.6 0.00003
6.65 0.00031
6.7 0.00031
6.75 0.00012
6.8 -0.00008
6.85 0.00002
6.9 -0.00004
6.95 -0.00017
7 -0.0001
7.05 -0.00023
7.1 -0.00013
7.15 0.00005
7.2 0.00009
7.25 -0.00004
7.3 -0.00005
7.35 0.00013
7.4 0.00011
7.45 0.00014
7.5 0.00039
7.55 0.00033
7.6 0.00022
7.65 0.00006
7.7 -0.00004
7.75 0.0001
7.8 0.00026
7.85 0.00036
7.9 0.00053
7.95 0.00041
8 0.00024
8.05 -0.00005
8.1 -0.00018
8.15 -0.00017
8.2 0.00006
8.25 0.00003
8.3 -0.00018
8.35 -0.00007
8.4 0.00004
8.45 0.00025
8.5 0.0006
8.55 0.001
8.6 0.00104
8.65 0.00107
8.7 0.00112
8.75 0.0009
8.8 0.00091
8.85 0.00089
8.9 0.0008
8.95 0.00077
9 0.00064
9.05 0.00063
9.1 0.00041
9.15 0.00045
9.2 0.00064
9.25 0.0008
9.3 0.00071
9.35 0.00041
9.4 0.00008
9.45 -0.00025
9.5 -0.00055
9.55 -0.00069
9.6 -0.00079
9.65 -0.00063
9.7 -0.00048
9.75 -0.00055
9.8 -0.00051
9.85 -0.00041
9.9 -0.00046
9.95 -0.00047
10 -0.0003
10.05 -0.00021
10.1 -0.00012
10.15 -0.00001
10.2 0.00026
10.25 0.00021
10.3 0.00004
10.35 -0.00002
10.4 -0.00019
10.45 -0.00041
10.5 -0.00062
10.55 -0.00082
10.6 -0.0007
10.65 -0.00035
10.7 0.00004
10.75 0.00038
10.8 0.00043
10.85 0.00062
10.9 0.00071
10.95 0.00058
11 0.00032
11.05 0.00034
11.1 0.00018
11.15 0.00016
11.2 0.00021
11.25 0.0003
11.3 0.00033
11.35 0.00013
11.4 -0.0001
11.45 -0.00015
11.5 -0.00003
11.55 -0.00007
11.6 -0.00013
11.65 -0.00003
11.7 0.00002
11.75 0.00008
11.8 0.00033
11.85 0.00058
11.9 0.00079
11.95 0.00071
12 0.0005
12.05 0.00026
12.1 -0.00006
12.15 -0.00032
12.2 -0.00036
12.25 -0.00049
12.3 -0.00065
12.35 -0.00078
12.4 -0.00059
12.45 -0.00054
12.5 -0.00066
12.55 -0.0008
12.6 -0.00095
12.65 -0.00079
12.7 -0.00051
12.75 -0.00042
12.8 -0.00013
12.85 -0.00002
12.9 0.00013
12.95 0.0004
13 0.00052
13.05 0.00069
13.1 0.00094
13.15 0.00107
13.2 0.0012
13.25 0.00125
13.3 0.00123
13.35 0.00113
13.4 0.00075
13.45 0.00038
13.5 0.00015
13.55 -0.00005
13.6 -0.00009
13.65 0.0001
13.7 0.0003
13.75 0.00037
13.8 0.0002
13.85 -0.00001
13.9 -0.00008
13.95 -0.00016
14 -0.00018
14.05 -0.00018
14.1 -0.00038
14.15 -0.00042
14.2 -0.00048
14.25 -0.00053
14.3 -0.00053
14.35 -0.00064
14.4 -0.00064
14.45 -0.0007
14.5 -0.00088
14.55 -0.00096
14.6 -0.00079
14.65 -0.00042
14.7 -0.00006
14.75 0.00024
14.8 0.00056
14.85 0.00062
14.9 0.00045
14.95 0.00051
15 0.00053
15.05 0.00038
15.1 0.0003
15.15 0.00033
15.2 0.00024
15.25 0.0001
15.3 0.00002
15.35 -0.00005
15.4 -0.00017
15.45 -0.00041
15.5 -0.00044
15.55 -0.00025
15.6 -0.00009
15.65 -0.00004
15.7 -0.00001
15.75 0.00002
15.8 0.00025
15.85 0.00051
15.9 0.00054
15.95 0.00044
16 0.00029
16.05 0.00027
16.1 0.00044
16.15 0.00035
16.2 0.00046
16.25 0.0006
16.3 0.00068
16.35 0.00069
16.4 0.00054
16.45 0.0004
16.5 0.00037
16.55 0.00027
16.6 0.00012
16.65 -0.00017
16.7 -0.00031
16.75 -0.00042
16.8 -0.00052
16.85 -0.00032
16.9 -0.00011
16.95 -0.0001
17 -0.00019
17.05 -0.00008
17.1 0.00022
17.15 0.00056
17.2 0.00089
17.25 0.00091
17.3 0.001
17.35 0.00099
17.4 0.00094
17.45 0.00067
17.5 0.00059
17.55 0.00048
17.6 0.00057
17.65 0.00052
17.7 0.00025
17.75 -0.00013
17.8 -0.00047
17.85 -0.00056
17.9 -0.00052
17.95 -0.00057
18 -0.00046
18.05 -0.00051
18.1 -0.00052
18.15 -0.00049
18.2 -0.00047
18.25 -0.00055
18.3 -0.00051
18.35 -0.0006
18.4 -0.00061
18.45 -0.00046
18.5 -0.00052
18.55 -0.00032
18.6 -0.00005
18.65 0.00001
18.7 -0.00013
18.75 -0.0004
18.8 -0.00052
18.85 -0.00077
18.9 -0.00082
18.95 -0.00077
19 -0.00066
19.05 -0.00054
19.1 -0.00055
19.15 -0.00072
19.2 -0.00077
19.25 -0.00055
19.3 -0.00042
19.35 -0.00051
19.4 -0.00062
19.45 -0.00064
19.5 -0.00041
19.55 -0.00033
19.6 -0.00017
19.65 -0.00002
19.7 0.00017
19.75 0.00036
19.8 0.00052
19.85 0.00051
19.9 0.00039
19.95 0.00029
20 0.00021
20.05 -0.00004
20.1 -0.00033
20.15 -0.00053
20.2 -0.00065
20.25 -0.00073
20.3 -0.00071
20.35 -0.00079
20.4 -0.00097
20.45 -0.00105
20.5 -0.00105
20.55 -0.00077
20.6 -0.00067
20.65 -0.00035
20.7 0.00008
20.75 0.00031
20.8 0.00046
20.85 0.00043
20.9 0.00029
20.95 0.0004
21 0.00051
21.05 0.0006
21.1 0.00046
21.15 0.00048
21.2 0.00055
21.25 0.00047
21.3 0.00019
21.35 0.00014
21.4 -0
21.45 -0.00014
21.5 -0.00022
21.55 -0.00041
21.6 -0.00054
21.65 -0.00036
21.7 -0.00038
21.75 -0.00038
21.8 -0.0003
21.85 -0.00002
21.9 -0.00003
21.95 -0.00006
22 -0.00003
22.05 -0.00019
22.1 -0.00039
22.15 -0.0003
22.2 -0.0004
22.25 -0.00047
22.3 -0.00067
22.35 -0.00064
22.4 -0.00047
22.45 -0.00028
22.5 -0.00005
22.55 0.00023
22.6 0.00034
22.65 0.00036
22.7 0.00053
22.75 0.00049
22.8 0.00033
22.85 0.00017
22.9 0.00026
22.95 0.00027
23 0.00011
23.05 -0.00017
23.1 -0.0003
23.15 -0.00028
23.2 -0.0001
23.25 -0
23.3 0.00012
23.35 0.00036
23.4 0.00066
23.45 0.00102
23.5 0.00117
23.55 0.001
23.6 0.00102
23.65 0.00117
23.7 0.00099
23.75 0.00068
23.8 0.00064
23.85 0.00061
23.9 0.00062
23.95 0.0006
24 0.00056
24.05 0.00033
24.1 0.0001
24.15 -0.0002
24.2 -0.00052
24.25 -0.0008
24.3 -0.00083
24.35 -0.00072
24.4 -0.00071
24.45 -0.00058
24.5 -0.00059
24.55 -0.00041
24.6 -0.00015
24.65 -0.00014
24.7 -0.0003
24.75 -0.00036
24.8 -0.00029
24.85 -0.0004
24.9 -0.0004
24.95 -0.0002
25 -0.00008
25.05 -0.00003
25.1 0.00001
25.15 0.00002
25.2 -0.0001
25.25 -0.00005
25.3 0
25.35 -0.00008
25.4 -0.00027
25.45 -0.00057
25.5 -0.00069
25.55 -0.00091
25.6 -0.00115
25.65 -0.00109
25.7 -0.00102
25.75 -0.00104
25.8 -0.00111
25.85 -0.00096
25.9 -0.00076
25.95 -0.0005
26 -0.00038
26.05 -0.00045
26.1 -0.00027
26.15 -0.00006
26.2 0.00024
26.25 0.00021
26.3 0.00035
26.35 0.00027
26.4 0.00002
26.45 -0.00026
26.5 -0.00022
26.55 -0.00011
26.6 0.00016
26.65 0.00028
26.7 0.00039
26.75 0.00025
26.8 0.00005
26.85 -0.00026
26.9 -0.00061
26.95 -0.00074
27 -0.00093
27.05 -0.00107
27.1 -0.00127
27.15 -0.00147
27.2 -0.00165
27.25 -0.0014
27.3 -0.00128
27.35 -0.00125
27.4 -0.00101
27.45 -0.00071
27.5 -0.00037
27.55 -0.00003
27.6 0.00033
27.65 0.00076
27.7 0.00104
27.75 0.00121
27.8 0.00141
27.85 0.00127
27.9 0.00102
27.95 0.00076
28 0.00051
28.05 0.00032
28.1 0.00012
28.15 0.0001
28.2 0.00002
28.25 -0.00015
28.3 -0.00015
28.35 0.00005
28.4 0.00037
28.45 0.00038
28.5 0.00056
28.55 0.00045
28.6 0.00017
28.65 0.00002
28.7 -0.00018
28.75 -0.00015
28.8 0.00002
28.85 -0.00001
28.9 -0.00016
28.95 -0.00012
29 -0.00003
29.05 0.0001
29.1 0.00014
29.15 -0.00001
29.2 0.00005
29.25 0.00017
29.3 0.00033
29.35 0.00055
29.4 0.00064
29.45 0.00075
29.5 0.00082
29.55 0.00073
29.6 0.00071
29.65 0.0008
29.7 0.00086
29.75 0.00074
29.8 0.00064
29.85 0.0004
29.9 0.00023
29.95 -0.0001
30 -0.00013
30.05 -0.00021
30.1 -0.00002
30.15 -0.00004
30.2 0.00001
30.25 0.00026
30.3 0.0004
30.35 0.00059
30.4 0.00054
30.45 0.0004
30.5 0.00048
30.55 0.0003
30.6 0.00022
30.65 0.00021
30.7 0.00028
30.75 0.00015
30.8 0.00019
30.85 0.00001
30.9 -0.00028
30.95 -0.00047
31 -0.00074
31.05 -0.00076
31.1 -0.00075
31.15 -0.00047
31.2 -0.00037
31.25 -0.0001
31.3 -0.0001
31.35 0.00003
31.4 0.0002
31.45 0.00028
31.5 0.00038
31.55 0.00028
31.6 0.00013
31.65 -0.00003
31.7 -0.00019
31.75 -0.00015
31.8 -0.00004
31.85 -0.00013
31.9 -0.00037
31.95 -0.00039
32 -0.00014
32.05 0.00009
32.1 0.00037
32.15 0.00055
32.2 0.00082
32.25 0.00071
32.3 0.00052
32.35 0.00039
32.4 0.00026
32.45 0.00009
32.5 0.00019
32.55 0.00044
32.6 0.00076
32.65 0.00072
32.7 0.00061
32.75 0.00051
32.8 0.00044
32.85 0.00042
32.9 0.00028
32.95 0.00016
33 0.00027
33.05 0.00035
33.1 0.00041
33.15 0.00062
33.2 0.00083
33.25 0.00072
33.3 0.00057
33.35 0.00048
33.4 0.00018
33.45 0.00009
33.5 0.00018
33.55 0.00039
33.6 0.00038
33.65 0.0003
33.7 0.00021
33.75 0.00016
33.8 0.00002
33.85 -0.0001
33.9 -0.00005
33.95 0.00012
34 0.0001
34.05 0.00002
34.1 -0.00019
34.15 -0.00036
34.2 -0.00049
34.25 -0.00066
34.3 -0.00056
34.35 -0.00062
34.4 -0.00059
34.45 -0.00032
34.5 -0.00035
34.55 -0.00055
34.6 -0.00059
34.65 -0.00058
34.7 -0.00075
34.75 -0.00067
34.8 -0.0005
34.85 -0.00042
34.9 -0.00042
34.95 -0.00041
35 -0.00028
35.05 -0.00026
35.1 -0.00045
35.15 -0.00047
35.2 -0.00062
35.25 -0.00063
35.3 -0.00055
35.35 -0.00059
35.4 -0.00041
35.45 -0.00014
35.5 -0.00012
35.55 -0.00012
35.6 -0.00033
35.65 -0.00055
35.7 -0.00071
35.75 -0.00067
35.8 -0.00069
35.85 -0.00046
35.9 -0.00044
35.95 -0.00059
36 -0.00059
36.05 -0.00037
36.1 -0.00026
36.15 -0.0002
36.2 -0.00019
36.25 -0.00019
36.3 -0.00015
36.35 -0.00002
36.4 0.00015
36.45 0.00022
36.5 0.00045
36.55 0.00069
36.6 0.00071
36.65 0.00077
36.7 0.00091
36.75 0.00082
36.8 0.00084
36.85 0.00058
36.9 0.00032
36.95 0.00034
37 0.00055
37.05 0.00084
37.1 0.00094
37.15 0.00097
37.2 0.00091
37.25 0.00064
37.3 0.00052
37.35 0.00047
37.4 0.00044
37.45 0.00047
37.5 0.00065
37.55 0.0009
37.6 0.00097
37.65 0.00111
37.7 0.00101
37.75 0.00093
37.8 0.00096
37.85 0.00074
37.9 0.0005
37.95 0.00041
38 0.00022
38.05 -0.00015
38.1 -0.00051
38.15 -0.00059
38.2 -0.00081
38.25 -0.00087
38.3 -0.00067
38.35 -0.00028
38.4 0.00019
38.45 0.00037
38.5 0.00023
38.55 0.0001
38.6 0.00001
38.65 0.00015
38.7 0.00005
38.75 -0.0002
38.8 -0.00019
38.85 -0.00024
38.9 -0.00042
38.95 -0.00038
39 -0.00022
39.05 0.00011
39.1 0.00047
39.15 0.00083
39.2 0.00089
39.25 0.00081
39.3 0.00066
39.35 0.00066
39.4 0.00057
39.45 0.00061
39.5 0.00077
39.55 0.00082
39.6 0.00076
39.65 0.00067
39.7 0.00035
39.75 0.00006
39.8 0.00004
39.85 -0.00005
39.9 -0.00004
39.95 -0.00004
40 0.00015
40.05 0.00003
40.1 0.00004
40.15 -0.00001
40.2 -0.00024
40.25 -0.0006
40.3 -0.00071
40.35 -0.00072
40.4 -0.00068
40.45 -0.00045
40.5 -0.00016
40.55 -0.00018
40.6 -0.00025
40.65 -0.00017
40.7 -0.00011
40.75 -0.00029
40.8 -0.00048
40.85 -0.00061
40.9 -0.00046
40.95 -0.00015
41 -0.00007
41.05 -0.00011
41.1 -0.00015
41.15 -0.00001
41.2 0.00006
41.25 0.00013
41.3 0.00006
41.35 0.0002
41.4 0.00037
41.45 0.00039
41.5 0.00053
41.55 0.00042
41.6 0.00047
41.65 0.00047
41.7 0.00044
41.75 0.00041
41.8 0.0005
41.85 0.00057
41.9 0.00072
41.95 0.00065
42 0.00035
42.05 0.00007
42.1 -0.00034
42.15 -0.00057
42.2 -0.00082
42.25 -0.00077
42.3 -0.00071
42.35 -0.00043
42.4 -0.00022
42.45 -0.00026
42.5 -0.00025
42.55 -0.00039
42.6 -0.0005
42.65 -0.00051
42.7 -0.00058
42.75 -0.00055
42.8 -0.00064
42.85 -0.00069
42.9 -0.00061
42.95 -0.00054
43 -0.00059
43.05 -0.00069
43.1 -0.00055
43.15 -0.00057
43.2 -0.0006
43.25 -0.00079
43.3 -0.00063
43.35 -0.00036
43.4 -0.00021
43.45 0.0001
43.5 0.00034
43.55 0.00058
43.6 0.00089
43.65 0.00119
43.7 0.00144
43.75 0.00133
43.8 0.00114
43.85 0.0009
43.9 0.00063
43.95 0.00053
44 0.00034
44.05 0.00017
44.1 -0.00005
44.15 -0.00004
44.2 0.00001
44.25 0.0002
44.3 0.00016
44.35 0.00001
44.4 -0.00018
44.45 -0.00045
44.5 -0.0008
44.55 -0.00087
44.6 -0.00099
44.65 -0.00115
44.7 -0.0013
44.75 -0.00145
44.8 -0.00123
44.85 -0.00091
44.9 -0.00076
44.95 -0.00043
45 -0.00009
45.05 0.00033
45.1 0.0007
45.15 0.00094
45.2 0.00106
45.25 0.00124
45.3 0.00137
45.35 0.00115
45.4 0.00076
45.45 0.00061
45.5 0.00044
45.55 0.00029
45.6 0.00009
45.65 -0.00023
45.7 -0.00058
45.75 -0.00097
45.8 -0.00137
45.85 -0.00154
45.9 -0.00172
45.95 -0.00179
46 -0.00171
46.05 -0.00135
46.1 -0.00116
46.15 -0.00092
46.2 -0.00073
46.25 -0.00067
46.3 -0.00046
46.35 -0.00045
46.4 -0.00039
46.45 -0.00037
46.5 -0.00036
46.55 -0.00028
46.6 0.00001
46.65 0.00004
46.7 0.00025
46.75 0.00033
46.8 0.0004
46.85 0.0005
46.9 0.00031
46.95 0.00009
47 0.00014
47.05 0.00017
47.1 0.00016
47.15 0.00001
47.2 -0.00015
47.25 -0.00021
47.3 -0.00007
47.35 0.00005
47.4 -0.00009
47.45 -0
47.5 0.00015
47.55 0.00036
47.6 0.00056
47.65 0.00046
47.7 0.00016
47.75 -0.00025
47.8 -0.00058
47.85 -0.00092
47.9 -0.00095
47.95 -0.00092
48 -0.001
48.05 -0.00104
48.1 -0.00108
48.15 -0.00088
48.2 -0.00051
48.25 -0.00018
48.3 0.00027
48.35 0.00059
48.4 0.00071
48.45 0.0009
48.5 0.00108
48.55 0.0013
48.6 0.00149
48.65 0.00169
48.7 0.00151
48.75 0.00134
48.8 0.00093
48.85 0.00055
48.9 0.00014
48.95 -0.00015
49 -0.00014
49.05 -0.00006
49.1 0.00016
49.15 0.00031
49.2 0.00019
49.25 0.00002
49.3 -0.00016
49.35 -0.00036
49.4 -0.00028
49.45 -0.00007
49.5 -0.00005
49.55 0.00017
49.6 0.00045
49.65 0.00079
49.7 0.00108
49.75 0.00134
49.8 0.00145
49.85 0.00118
49.9 0.00103
49.95 0.00081
50 0.00043
50.05 -0.00002
50.1 -0.00047
50.15 -0.00086
50.2 -0.00126
50.25 -0.00133
50.3 -0.00116
50.35 -0.00089
50.4 -0.00067
50.45 -0.00064
50.5 -0.00049
50.55 -0.00028
50.6 -0.00035
50.65 -0.00054
50.7 -0.00043
50.75 -0.00037
50.8 -0.00017
50.85 -0.00012
50.9 -0.00009
50.95 -0.00018
51 -0.0002
51.05 -0.00002
51.1 0.00024
51.15 0.00059
51.2 0.00067
51.25 0.00068
51.3 0.00072
51.35 0.00078
51.4 0.00066
51.45 0.00043
51.5 0.00025
51.55 0.00017
51.6 0.00013
51.65 0.00019
51.7 0.00032
51.75 0.00028
51.8 0.00021
51.85 0.0002
51.9 0.00032
51.95 0.00043
52 0.00051
52.05 0.00022
52.1 0.00001
52.15 -0.00015
52.2 -0.00029
52.25 -0.00066
52.3 -0.00084
52.35 -0.00112
52.4 -0.0017
52.45 -0.00207
52.5 -0.00274
52.55 -0.00324
52.6 -0.00398
52.65 -0.00464
52.7 -0.00545
52.75 -0.00634
52.8 -0.00724
52.85 -0.00845
52.9 -0.00995
52.95 -0.01175
53 -0.01346
53.05 -0.01522
53.1 -0.01739
53.15 -0.0198
53.2 -0.02251
53.25 -0.02567
53.3 -0.0293
53.35 -0.0333
53.4 -0.03732
53.45 -0.04157
53.5 -0.04592
53.55 -0.05068
53.6 -0.05554
53.65 -0.0607
53.7 -0.066
53.75 -0.07118
53.8 -0.07641
53.85 -0.08181
53.9 -0.08726
53.95 -0.09256
54 -0.09743
54.05 -0.10197
54.1 -0.1062
54.15 -0.11015
54.2 -0.11389
54.25 -0.11736
54.3 -0.12019
54.35 -0.12262
54.4 -0.12432
54.45 -0.12532
54.5 -0.1257
54.55 -0.12512
54.6 -0.12391
54.65 -0.12212
54.7 -0.1196
54.75 -0.11623
54.8 -0.11225
54.85 -0.10775
54.9 -0.10272
54.95 -0.09716
55 -0.09115
55.05 -0.08457
55.1 -0.07775
55.15 -0.07061
55.2 -0.0634
55.25 -0.0558
55.3 -0.04801
55.35 -0.04017
55.4 -0.03223
55.45 -0.02402
55.5 -0.01553
55.55 -0.00686
55.6 0.0019
55.65 0.01048
55.7 0.01917
55.75 0.02768
55.8 0.03614
55.85 0.04458
55.9 0.05293
55.95 0.06117
56 0.06929
56.05 0.0772
56.1 0.08511
56.15 0.0927
56.2 0.09996
56.25 0.10678
56.3 0.11326
56.35 0.11929
56.4 0.12476
56.45 0.12957
56.5 0.1339
56.55 0.13756
56.6 0.14063
56.65 0.14317
56.7 0.14486
56.75 0.14594
56.8 0.14623
56.85 0.14618
56.9 0.14534
56.95 0.14403
57 0.142
57.05 0.13944
57.1 0.13613
57.15 0.13238
57.2 0.12807
57.25 0.12342
57.3 0.11871
57.35 0.11396
57.4 0.10883
57.45 0.10372
57.5 0.09844
57.55 0.09309
57.6 0.08768
57.65 0.08234
57.7 0.07709
57.75 0.07187
57.8 0.06648
57.85 0.06118
57.9 0.05614
57.95 0.05156
58 0.04701
58.05 0.0426
58.1 0.03837
58.15 0.03459
58.2 0.03105
58.25 0.02804
58.3 0.02524
58.35 0.02244
58.4 0.01998
58.45 0.01801
58.5 0.01607
58.55 0.01418
58.6 0.01246
58.65 0.01106
58.7 0.00988
58.75 0.00889
58.8 0.00821
58.85 0.00739
58.9 0.00648
58.95 0.0058
59 0.00543
59.05 0.00533
59.1 0.00512
59.15 0.00493
59.2 0.00472
59.25 0.00432
59.3 0.00405
59.35 0.00385
59.4 0.00366
59.45 0.00368
59.5 0.00365
59.55 0.00381
59.6 0.0038
59.65 0.00397
59.7 0.00407
59.75 0.00416
59.8 0.00426
59.85 0.00409
59.9 0.00396
59.95 0.00371
60 0.00364
60.05 0.00359
60.1 0.00358
60.15 0.00338
60.2 0.00298
60.25 0.00247
60.3 0.00215
60.35 0.00204
60.4 0.00186
60.45 0.00176
60.5 0.00147
60.55 0.00107
60.6 0.00068
60.65 0.00023
60.7 -0.00019
60.75 -0.00074
60.8 -0.0014
60.85 -0.00196
60.9 -0.00225
60.95 -0.00254
61 -0.00277
61.05 -0.003
61.1 -0.00344
61.15 -0.00399
61.2 -0.00428
61.25 -0.00469
61.3 -0.00506
61.35 -0.00559
61.4 -0.00627
61.45 -0.00688
61.5 -0.00736
61.55 -0.00783
61.6 -0.00804
61.65 -0.00805
61.7 -0.00823
61.75 -0.00865
61.8 -0.00898
61.85 -0.00929
61.9 -0.00961
61.95 -0.00982
62 -0.01018
62.05 -0.0103
62.1 -0.01033
62.15 -0.01031
62.2 -0.01021
62.25 -0.01048
62.3 -0.01095
62.35 -0.01115
62.4 -0.01116
62.45 -0.01106
62.5 -0.01122
62.55 -0.01133
62.6 -0.01141
62.65 -0.01167
62.7 -0.01207
62.75 -0.01242
62.8 -0.01284
62.85 -0.01302
62.9 -0.01302
62.95 -0.01315
63 -0.01299
63.05 -0.01264
63.1 -0.0123
63.15 -0.01191
63.2 -0.01176
63.25 -0.01178
63.3 -0.01189
63.35 -0.01214
63.4 -0.01231
63.45 -0.0124
63.5 -0.01231
63.55 -0.01225
63.6 -0.01218
63.65 -0.01183
63.7 -0.01136
63.75 -0.01107
63.8 -0.01064
63.85 -0.01049
63.9 -0.0106
63.95 -0.01056
64 -0.01038
64.05 -0.01043
64.1 -0.01032
64.15 -0.01039
64.2 -0.0103
64.25 -0.01039
64.3 -0.01051
64.35 -0.01045
64.4 -0.01039
64.45 -0.0102
64.5 -0.01002
64.55 -0.0097
64.6 -0.00947
64.65 -0.00946
64.7 -0.00923
64.75 -0.00891
64.8 -0.00853
64.85 -0.00825
64.9 -0.0081
64.95 -0.00817
65 -0.00834
65.05 -0.00833
65.1 -0.00822
65.15 -0.00807
65.2 -0.00774
65.25 -0.00761
65.3 -0.00757
65.35 -0.00727
65.4 -0.00691
65.45 -0.00645
65.5 -0.00637
65.55 -0.0065
65.6 -0.00667
65.65 -0.00663
65.7 -0.00665
65.75 -0.00661
65.8 -0.00651
65.85 -0.00625
65.9 -0.006
65.95 -0.00603
66 -0.0061
66.05 -0.00626
66.1 -0.00618
66.15 -0.00602
66.2 -0.00578
66.25 -0.00559
66.3 -0.00535
66.35 -0.00505
66.4 -0.00488
66.45 -0.00478
66.5 -0.00474
66.55 -0.00479
66.6 -0.00503
66.65 -0.00526
66.7 -0.00527
66.75 -0.00536
66.8 -0.00517
66.85 -0.00513
66.9 -0.00481
66.95 -0.00474
67 -0.00444
67.05 -0.00421
67.1 -0.00382
67.15 -0.00374
67.2 -0.00349
67.25 -0.00325
67.3 -0.00305
67.35 -0.00306
67.4 -0.00324
67.45 -0.00346
67.5 -0.00363
67.55 -0.00353
67.6 -0.00346
67.65 -0.00352
67.7 -0.00342
67.75 -0.00314
67.8 -0.00297
67.85 -0.00285
67.9 -0.00302
67.95 -0.00319
68 -0.00339
68.05 -0.00347
68.1 -0.00353
68.15 -0.00331
68.2 -0.00305
68.25 -0.00291
68.3 -0.00302
68.35 -0.00315
68.4 -0.00327
68.45 -0.00333
68.5 -0.00346
68.55 -0.00346
68.6 -0.00339
68.65 -0.00333
68.7 -0.0034
68.75 -0.00325
68.8 -0.00291
68.85 -0.00245
68.9 -0.00207
68.95 -0.00198
69 -0.00187
69.05 -0.00188
69.1 -0.00168
69.15 -0.00177
69.2 -0.00185
69.25 -0.00208
69.3 -0.00216
69.35 -0.00236
69.4 -0.0023
69.45 -0.00215
69.5 -0.00214
69.55 -0.00215
69.6 -0.00208
69.65 -0.00184
69.7 -0.00169
69.75 -0.00162
69.8 -0.00175
69.85 -0.00163
69.9 -0.00169
69.95 -0.0017
70 -0.00187
70.05 -0.00192
70.1 -0.00188
70.15 -0.00193
70.2 -0.00205
70.25 -0.00222
70.3 -0.00218
70.35 -0.00219
70.4 -0.00232
70.45 -0.00236
70.5 -0.00211
70.55 -0.00188
70.6 -0.00154
70.65 -0.00123
70.7 -0.00118
70.75 -0.00102
70.8 -0.00078
70.85 -0.00046
70.9 -0.00041
70.95 -0.00061
71 -0.00066
71.05 -0.00052
71.1 -0.00065
71.15 -0.00083
71.2 -0.00113
71.25 -0.00124
71.3 -0.00136
71.35 -0.00144
71.4 -0.00165
71.45 -0.00171
71.5 -0.00171
71.55 -0.00178
71.6 -0.00196
71.65 -0.00206
71.7 -0.0018
71.75 -0.00142
71.8 -0.00119
71.85 -0.00108
71.9 -0.0011
71.95 -0.00118
72 -0.00141
72.05 -0.00164
72.1 -0.00177
72.15 -0.00161
72.2 -0.00148
72.25 -0.00118
72.3 -0.00099
72.35 -0.00063
72.4 -0.00044
72.45 -0.00027
72.5 -0.00011
72.55 -0.00009
72.6 0.00003
72.65 -0.00002
72.7 -0.00029
72.75 -0.00028
72.8 -0.00018
72.85 -0.00034
72.9 -0.00033
72.95 -0.00015
73 -0.00016
73.05 -0
73.1 0.00026
73.15 0.00032
73.2 0.00026
73.25 -0.00004
73.3 -0.00007
73.35 -0.0002
73.4 -0.00036
73.45 -0.00052
73.5 -0.00068
73.55 -0.00069
73.6 -0.00069
73.65 -0.00061
73.7 -0.00037
73.75 -0.00024
73.8 -0.00036
73.85 -0.00063
73.9 -0.00086
73.95 -0.00093
74 -0.00071
74.05 -0.00038
74.1 -0.00027
74.15 -0.00007
74.2 -0.00002
74.25 0.0001
74.3 -0.00008
74.35 -0.0002
74.4 -0.00029
74.45 -0.00033
74.5 -0.00016
74.55 -0.00004
74.6 0.00021
74.65 0.00029
74.7 0.00035
74.75 0.00049
74.8 0.00061
74.85 0.00057
74.9 0.00062
74.95 0.00055
75 0.00025
75.05 -0.00021
75.1 -0.00058
75.15 -0.0006
75.2 -0.00067
75.25 -0.00055
75.3 -0.00061
75.35 -0.00063
75.4 -0.00042
75.45 -0.00018
75.5 -0.00007
75.55 -0.00012
75.6 -0.00037
75.65 -0.0005
75.7 -0.00056
75.75 -0.0008
75.8 -0.00088
75.85 -0.00084
75.9 -0.00074
75.95 -0.00069
76 -0.00062
76.05 -0.00041
76.1 -0.0001
76.15 -0.00004
76.2 0.00015
76.25 0.0004
76.3 0.00065
76.35 0.00061
76.4 0.00054
76.45 0.00037
76.5 0.00008
76.55 -0.00026
76.6 -0.00026
76.65 -0.00046
76.7 -0.0004
76.75 -0.00025
76.8 0.00005
76.85 0.00025
76.9 0.00035
76.95 0.00017
77 -0.00014
77.05 -0.00056
77.1 -0.00091
77.15 -0.00127
77.2 -0.00121
77.25 -0.00122
77.3 -0.00099
77.35 -0.00063
77.4 -0.00018
77.45 0.00012
77.5 0.00011
77.55 0.00007
77.6 0.00002
77.65 -0.00013
77.7 -0.00041
77.75 -0.00037
77.8 -0.00032
77.85 -0.00028
77.9 -0.00028
77.95 -0.00024
78 -0.00013
78.05 -0.00018
78.1 -0.00034
78.15 -0.00065
78.2 -0.00065
78.25 -0.00041
78.3 -0.00011
78.35 0.00014
78.4 0.00038
78.45 0.00034
78.5 0.00027
78.55 0.00032
78.6 0.00038
78.65 0.00039
78.7 0.00022
78.75 0.00016
78.8 -0.00011
78.85 -0.00009
78.9 0.00002
78.95 -0.00004
79 0.00007
79.05 0.00007
79.1 0.00006
79.15 -0.00004
79.2 -0.00016
79.25 -0.00022
79.3 -0.00012
79.35 0.00007
79.4 0.00037
79.45 0.00044
79.5 0.00034
79.55 0.00004
79.6 -0.00005
79.65 -0.00015
79.7 -0.00034
79.75 -0.00057
79.8 -0.00065
79.85 -0.00077
79.9 -0.00086
79.95 -0.00093
80 -0.00081
80.05 -0.00053
80.1 -0.00042
80.15 -0.00035
80.2 -0.00017
80.25 -0.00012
80.3 -0.00007
80.35 0.00008
80.4 0.00011
80.45 0.00012
80.5 -0.00003
80.55 -0.00029
80.6 -0.0006
80.65 -0.00079
80.7 -0.00066
80.75 -0.0006
80.8 -0.00067
80.85 -0.00061
80.9 -0.00043
80.95 -0.00027
81 -0.00031
81.05 -0.00021
81.1 0.00006
81.15 0.00001
81.2 0.00008
81.25 0.00025
81.3 0.00024
81.35 0.00032
81.4 0.00029
81.45 0.00024
81.5 0.00032
81.55 0.00049
81.6 0.00062
81.65 0.00043
81.7 0.00033
81.75 0.00002
81.8 0.00002
81.85 -0.0002
81.9 -0.00028
81.95 -0.00022
82 -0.00016
82.05 -0.00011
82.1 -0.00012
82.15 0.00005
82.2 0.00012
82.25 0.00027
82.3 0.00043
82.35 0.0007
82.4 0.00058
82.45 0.00052
82.5 0.0006
82.55 0.00077
82.6 0.0008
82.65 0.00055
82.7 0.00021
82.75 -0.00015
82.8 -0.00059
82.85 -0.00063
82.9 -0.00043
82.95 -0.00007
83 -0.00007
83.05 -0.00012
83.1 -0
83.15 -0.00016
83.2 -0.0003
83.25 -0.00038
83.3 -0.00062
83.35 -0.0006
83.4 -0.00063
83.45 -0.00077
83.5 -0.00086
83.55 -0.00097
83.6 -0.00092
83.65 -0.00098
83.7 -0.00093
83.75 -0.00075
83.8 -0.00059
83.85 -0.00055
83.9 -0.00029
83.95 0.00001
84 0.00026
84.05 0.00049
84.1 0.00048
84.15 0.00047
84.2 0.00053
84.25 0.00074
84.3 0.00085
84.35 0.00076
84.4 0.00063
84.45 0.00029
84.5 -0.00018
84.55 -0.00033
84.6 -0.00045
84.65 -0.00066
84.7 -0.00069
84.75 -0.00067
84.8 -0.00073
84.85 -0.00054
84.9 -0.00022
84.95 0.00018
85 0.00047
85.05 0.00074
85.1 0.0007
85.15 0.00073
85.2 0.0007
85.25 0.00078
85.3 0.00094
85.35 0.00087
85.4 0.00056
85.45 0.00024
85.5 0.00008
85.55 0.00012
85.6 -0.00006
85.65 -0.00039
85.7 -0.00058
85.75 -0.00069
85.8 -0.00061
85.85 -0.00055
85.9 -0.00048
85.95 -0.00039
86 -0.00048
86.05 -0.00042
86.1 -0.00047
86.15 -0.00057
86.2 -0.00059
86.25 -0.00036
86.3 0.00001
86.35 0.00029
86.4 0.00047
86.45 0.00059
86.5 0.00082
86.55 0.00073
86.6 0.00047
86.65 0.00039
86.7 0.00031
86.75 0.00032
86.8 0.00042
86.85 0.00051
86.9 0.00051
86.95 0.00039
87 0.00044
87.05 0.00034
87.1 0.00045
87.15 0.00059
87.2 0.00054
87.25 0.00035
87.3 0.00016
87.35 0.00003
87.4 0.00013
87.45 0.00016
87.5 0.00023
87.55 0.00036
87.6 0.00037
87.65 0.00022
87.7 0.00003
87.75 -0.00033
87.8 -0.00059
87.85 -0.00092
87.9 -0.00096
87.95 -0.00075
88 -0.00068
88.05 -0.00053
88.1 -0.00032
88.15 -0.00009
88.2 0.0002
88.25 0.00039
88.3 0.00052
88.35 0.00034
88.4 -0.00001
88.45 -0.00043
88.5 -0.00069
88.55 -0.00092
88.6 -0.00084
88.65 -0.00062
88.7 -0.00064
88.75 -0.00082
88.8 -0.00073
88.85 -0.00071
88.9 -0.00068
88.95 -0.0008
89 -0.00104
89.05 -0.00096
89.1 -0.00081
89.15 -0.00048
89.2 -0.00009
89.25 0.00039
89.3 0.00066
89.35 0.00062
89.4 0.00064
89.45 0.00068
89.5 0.00067
89.55 0.00056
89.6 0.00045
89.65 0.00051
89.7 0.00062
89.75 0.00064
89.8 0.00075
89.85 0.00084
89.9 0.0009
89.95 0.00072
90 0.00045
90.05 0.00009
90.1 -0.00035
90.15 -0.00041
90.2 -0.00051
90.25 -0.00059
90.3 -0.00075
90.35 -0.00068
90.4 -0.00073
90.45 -0.00092
90.5 -0.00077
90.55 -0.00043
90.6 -0.00028
90.65 -0.00034
90.7 -0.00019
90.75 0.00011
90.8 0.00018
90.85 0.00012
90.9 0.00001
90.95 0.00003
91 -0.00015
91.05 -0.00028
91.1 -0.00022
91.15 -0.00008
91.2 0.00009
91.25 0.00028
91.3 0.00051
91.35 0.00074
91.4 0.00084
91.45 0.0009
91.5 0.00092
91.55 0.00077
91.6 0.00044
91.65 -0
91.7 -0.00014
91.75 -0.00015
91.8 -0.00027
91.85 -0.00015
91.9 0.00001
91.95 0.0002
92 0.00041
92.05 0.00047
92.1 0.00059
92.15 0.00079
92.2 0.0007
92.25 0.00035
92.3 0.00001
92.35 -0.0003
92.4 -0.00064
92.45 -0.00101
92.5 -0.00121
92.55 -0.0012
92.6 -0.00126
92.65 -0.00142
92.7 -0.00142
92.75 -0.00114
92.8 -0.00077
92.85 -0.00039
92.9 -0.00003
92.95 0.00026
93 0.00061
93.05 0.00077
93.1 0.00074
93.15 0.0006
93.2 0.00044
93.25 0.0001
93.3 0.00007
93.35 -0.00018
93.4 -0.00029
93.45 -0.00039
93.5 -0.00046
93.55 -0.00055
93.6 -0.00051
93.65 -0.0006
93.7 -0.00081
93.75 -0.00102
93.8 -0.00118
93.85 -0.001
93.9 -0.001
93.95 -0.00094
94 -0.00072
94.05 -0.00058
94.1 -0.00045
94.15 -0.00021
94.2 -0.00005
94.25 0.00023
94.3 0.00022
94.35 0.00032
94.4 0.00035
94.45 0.00039
94.5 0.00046
94.55 0.00024
94.6 0.00005
94.65 -0.00013
94.7 -0.00024
94.75 -0.00051
94.8 -0.00078
94.85 -0.00067
94.9 -0.00034
94.95 0.0001
95 0.00025
95.05 0.00038
95.1 0.00065
95.15 0.0007
95.2 0.0006
95.25 0.00027
95.3 0.00009
95.35 0.00004
95.4 0.00011
95.45 0.0002
95.5 0.00027
95.55 0.00011
95.6 -0.00008
95.65 -0.00023
95.7 -0.00033
95.75 -0.00034
95.8 -0.0005
95.85 -0.00053
95.9 -0.00072
95.95 -0.00071
96 -0.00052
96.05 -0.00025
96.1 -0.00025
96.15 -0.00002
96.2 0.00006
96.25 0.00012
96.3 0.0001
96.35 -0
96.4 -0.00021
96.45 -0.00018
96.5 -0.00013
96.55 0
96.6 0.00019
96.65 0.00042
96.7 0.00032
96.75 0.00012
96.8 0.00012
96.85 0.00025
96.9 0.00014
96.95 0.0002
97 0.00023
97.05 0.0002
97.1 0.00034
97.15 0.00058
97.2 0.0005
97.25 0.00062
97.3 0.00058
97.35 0.00046
97.4 0.00053
97.45 0.00068
97.5 0.00069
97.55 0.00084
97.6 0.00107
97.65 0.00102
97.7 0.00069
97.75 0.00024
97.8 -0.00027
97.85 -0.00064
97.9 -0.00081
97.95 -0.00067
98 -0.00034
98.05 -0.00013
98.1 0.00009
98.15 0.00013
98.2 0.0002
98.25 0.00032
98.3 0.00043
98.35 0.00042
98.4 0.00041
98.45 0.00042
98.5 0.00037
98.55 0.00014
98.6 0.00012
98.65 0.0001
98.7 0.00017
98.75 0.00006
98.8 -0.00024
98.85 -0.00045
98.9 -0.00054
98.95 -0.00042
99 -0.00018
99.05 -0.00004
99.1 0.00012
99.15 0.00019
99.2 0.00028
99.25 0.00022
99.3 0.00029
99.35 0.00027
99.4 0.00033
99.45 0.00015
99.5 0.00012
99.55 0.00008
99.6 0.00013
99.65 0.00033
99.7 0.00028
99.75 0.00034
99.8 0.00055
99.85 0.00079
99.9 0.00084
99.95 0.00064
