0 0
0.05 0.00031
0.1 0.00087
0.15 0.00144
0.2 0.00174
0.25 0.00216
0.3 0.00264
0.35 0.00274
0.4 0.00294
0.45 0.00286
0.5 0.00292
0.55 0.00313
0.6 0.00328
0.65 0.00315
0.7 0.00278
0.75 0.00257
0.8 0.00235
0.85 0.00226
0.9 0.00233
0.95 0.00225
1 0.00226
1.05 0.00233
1.1 0.0022
1.15 0.00216
1.2 0.00212
1.25 0.00209
1.3 0.00219
1.35 0.00217
1.4 0.00216
1.45 0.00227
1.5 0.00224
1.55 0.00228
1.6 0.00233
1.65 0.00211
1.7 0.00182
1.75 0.00162
1.8 0.00129
1.85 0.00107
1.9 0.00078
1.95 0.00047
2 0.00046
2.05 0.00066
2.1 0.00092
2.15 0.00106
2.2 0.00132
2.25 0.00164
2.3 0.00163
2.35 0.00165
2.4 0.00156
2.45 0.0017
2.5 0.0017
2.55 0.00153
2.6 0.00135
2.65 0.00107
2.7 0.00093
2.75 0.00099
2.8 0.00116
2.85 0.00136
2.9 0.00153
2.95 0.00168
3 0.00183
3.05 0.00191
3.1 0.00175
3.15 0.00173
3.2 0.00183
3.25 0.00194
3.3 0.00203
3.35 0.00203
3.4 0.00195
3.45 0.00196
3.5 0.00202
3.55 0.00214
3.6 0.00197
3.65 0.00153
3.7 0.00101
3.75 0.0008
3.8 0.00069
3.85 0.00044
3.9 0.00045
3.95 0.00041
4 0.00023
4.05 0.00033
4.1 0.00033
4.15 0.00021
4.2 -0.00006
4.25 -0.00034
4.3 -0.00063
4.35 -0.00055
4.4 -0.00026
4.45 0
4.5 0.00003
4.55 -0.00003
4.6 -0.00022
4.65 -0.00038
4.7 -0.0004
4.75 -0.00012
4.8 -0.00003
4.85 -0.0001
4.9 -0.00025
4.95 -0.00024
5 -0.00024
5.05 -0.00005
5.1 0.00012
5.15 0.00034
5.2 0.00066
5.25 0.00095
5.3 0.00114
5.35 0.00144
5.4 0.00141
5.45 0.00128
5.5 0.00108
5.55 0.00098
5.6 0.00094
5.65 0.0007
5.7 0.00045
5.75 0.0002
5.8 0.0001
5.85 -0.0001
5.9 -0.00033
5.95 -0.00034
6 -0.00008
6.05 0.00029
6.1 0.00076
6.15 0.00106
6.2 0.00114
6.25 0.00128
6.3 0.00149
6.35 0.00158
6.4 0.00139
6.45 0.00106
6.5 0.00058
6.55 0.00015
6.6 0.00004
6.65 -0.00021
6.7 -0.0002
6.75 -0.00034
6.8 -0.00035
6.85 -0.00013
6.9 -0.00004
6.95 0.00017
7 0.00026
7.05 0.00017
7.1 0.00033
7.15 0.00034
7.2 0.00017
7.25 -0.00011
7.3 -0.00013
7.35 -0.0001
7.4 -0.00012
7.45 -0.0001
7.5 -0.00023
7.55 -0.00029
7.6 -0.00006
7.65 0.00006
7.7 0.00036
7.75 0.00057
7.8 0.00088
7.85 0.00105
7.9 0.0009
7.95 0.00092
8 0.00102
8.05 0.0009
8.1 0.00075
8.15 0.00061
8.2 0.00065
8.25 0.00086
8.3 0.00114
8.35 0.00115
8.4 0.00129
8.45 0.00149
8.5 0.00129
8.55 0.00103
8.6 0.00061
8.65 0.00017
8.7 0.00008
8.75 0.00021
8.8 0.00037
8.85 0.0004
8.9 0.00019
8.95 -0.00005
9 -0.00041
9.05 -0.00049
9.1 -0.00066
9.15 -0.00055
9.2 -0.00029
9.25 -0.00027
9.3 -0.00019
9.35 -0.00002
9.4 0.00026
9.45 0.00045
9.5 0.00064
9.55 0.00055
9.6 0.0004
9.65 0.00006
9.7 -0.00001
9.75 -0.00024
9.8 -0.00018
9.85 -0.00014
9.9 -0.00031
9.95 -0.0004
10 -0.00027
10.05 -0.00032
10.1 -0.00021
10.15 -0.00034
10.2 -0.0005
10.25 -0.00054
10.3 -0.00071
10.35 -0.00096
10.4 -0.00121
10.45 -0.00115
10.5 -0.00117
10.55 -0.0013
10.6 -0.00118
10.65 -0.00087
10.7 -0.00079
10.75 -0.00067
10.8 -0.00037
10.85 -0.0001
10.9 0.00025
10.95 0.00054
11 0.00058
11.05 0.00058
11.1 0.00067
11.15 0.0008
11.2 0.00091
11.25 0.00113
11.3 0.001
11.35 0.00074
11.4 0.00032
11.45 0.00006
11.5 -0.00008
11.55 -0.00007
11.6 0.00005
11.65 -0.00009
11.7 0.00001
11.75 0.00025
11.8 0.00059
11.85 0.0009
11.9 0.00115
11.95 0.00118
12 0.00112
12.05 0.00108
12.1 0.00092
12.15 0.00057
12.2 0.00028
12.25 0.0002
12.3 0.00024
12.35 0.00014
12.4 0.00022
12.45 0.00006
12.5 0.00003
12.55 -0.00014
12.6 -0.00039
12.65 -0.00048
12.7 -0.00054
12.75 -0.00041
12.8 -0.0005
12.85 -0.00063
12.9 -0.00073
12.95 -0.00082
13 -0.00069
13.05 -0.00065
13.1 -0.00066
13.15 -0.00066
13.2 -0.00047
13.25 -0.00018
13.3 -0.00012
13.35 0.0001
13.4 0.00031
13.45 0.00062
13.5 0.00091
13.55 0.00109
13.6 0.00099
13.65 0.00069
13.7 0.00056
13.75 0.00033
13.8 0.00032
13.85 0.00047
13.9 0.00053
13.95 0.00064
14 0.00087
14.05 0.00084
14.1 0.00055
14.15 0.00045
14.2 0.00031
14.25 0.0003
14.3 0.00007
14.35 -0.00011
14.4 -0.00008
14.45 0.00017
14.5 0.00025
14.55 0.00015
14.6 0.00011
14.65 0.00018
14.7 0.00019
14.75 0.00028
14.8 0.00026
14.85 0.00003
14.9 -0.00003
14.95 -0.00022
15 -0.00055
15.05 -0.00051
15.1 -0.00048
15.15 -0.00026
15.2 -0.00004
15.25 0.00017
15.3 0.0005
15.35 0.00085
15.4 0.0008
15.45 0.00082
15.5 0.00089
15.55 0.00099
15.6 0.00084
15.65 0.00051
15.7 0.00041
15.75 0.00033
15.8 0.00005
15.85 -0.00025
15.9 -0.00045
15.95 -0.00066
16 -0.00056
16.05 -0.00055
16.1 -0.00038
16.15 -0.00005
16.2 0.00007
16.25 0.00006
16.3 -0.00012
16.35 -0.00025
16.4 -0.00011
16.45 0.00014
16.5 0.00014
16.55 0.00032
16.6 0.00037
16.65 0.00015
16.7 -0.00009
16.75 -0.00011
16.8 -0.00013
16.85 -0.00017
16.9 -0.00033
16.95 -0.00022
17 -0.00007
17.05 -0.00002
17.1 -0.00005
17.15 -0.00024
17.2 -0.00019
17.25 0.00003
17.3 0.00017
17.35 0.00007
17.4 0.00004
17.45 -0.00012
17.5 -0.00003
17.55 -0.00016
17.6 -0.00012
17.65 -0.00005
17.7 -0.00021
17.75 -0.0002
17.8 -0.00038
17.85 -0.00055
17.9 -0.00052
17.95 -0.00034
18 -0.00031
18.05 -0.00015
18.1 -0.00013
18.15 0.00006
18.2 0.00015
18.25 -0.00002
18.3 -0.0003
18.35 -0.0006
18.4 -0.00075
18.45 -0.00092
18.5 -0.00082
18.55 -0.00067
18.6 -0.00054
18.65 -0.00044
18.7 -0.00039
18.75 -0.00013
18.8 -0.00006
18.85 -0.00007
18.9 -0.00007
18.95 0.00012
19 0.00039
19.05 0.00069
19.1 0.00095
19.15 0.00113
19.2 0.00102
19.25 0.00082
19.3 0.00041
19.35 0.00018
19.4 0.00021
19.45 0.0002
19.5 -0.00006
19.55 -0.00018
19.6 -0.00009
19.65 -0.00018
19.7 -0.00009
19.75 -0.00021
19.8 -0.0001
19.85 0.00011
19.9 0.00003
19.95 -0.00011
20 -0.00008
20.05 -0.0001
20.1 -0.00007
20.15 -0.00002
20.2 0.00015
20.25 0.00025
20.3 0.00045
20.35 0.00068
20.4 0.00055
20.45 0.00042
20.5 0.0002
20.55 0.00014
20.6 0.00024
20.65 0.00023
20.7 0.0002
20.75 0.00005
20.8 -0.00014
20.85 -0.00043
20.9 -0.00049
20.95 -0.00054
21 -0.0004
21.05 -0.00026
21.1 0.00004
21.15 0.00006
21.2 0.00017
21.25 0.00016
21.3 0.00001
21.35 -0.00021
21.4 -0.0003
21.45 -0.00037
21.5 -0.00062
21.55 -0.00065
21.6 -0.00067
21.65 -0.00047
21.7 -0.00053
21.75 -0.00034
21.8 -0.00001
21.85 -0.00003
21.9 -0.00003
21.95 0.00015
22 0.00013
22.05 0.00004
22.1 0
22.15 -0.00002
22.2 -0.00021
22.25 -0.00051
22.3 -0.0008
22.35 -0.00089
22.4 -0.00086
22.45 -0.00093
22.5 -0.00108
22.55 -0.00105
22.6 -0.00102
22.65 -0.00113
22.7 -0.00112
22.75 -0.00092
22.8 -0.00082
22.85 -0.00084
22.9 -0.00081
22.95 -0.00092
23 -0.00106
23.05 -0.00088
23.1 -0.00072
23.15 -0.00062
23.2 -0.00027
23.25 -0.00003
23.3 0.00024
23.35 0.00033
23.4 0.00034
23.45 0.00049
23.5 0.00065
23.55 0.00049
23.6 0.00019
23.65 -0.00019
23.7 -0.00045
23.75 -0.00061
23.8 -0.00082
23.85 -0.00107
23.9 -0.00105
23.95 -0.00082
24 -0.00038
24.05 -0.00011
24.1 0.00007
24.15 0.00032
24.2 0.00035
24.25 0.00057
24.3 0.00078
24.35 0.00085
24.4 0.00077
24.45 0.00058
24.5 0.00052
24.55 0.0006
24.6 0.0004
24.65 0.00044
24.7 0.00065
24.75 0.00089
24.8 0.00115
24.85 0.0011
24.9 0.00095
24.95 0.00071
25 0.00048
25.05 0.00043
25.1 0.00043
25.15 0.00041
25.2 0.00048
25.25 0.00033
25.3 0.00005
25.35 0.00006
25.4 0.00026
25.45 0.0003
25.5 0.00015
25.55 -0.00002
25.6 -0.00028
25.65 -0.00034
25.7 -0.00019
25.75 -0.00013
25.8 0.00005
25.85 0.00036
25.9 0.00037
25.95 0.00052
26 0.00038
26.05 0.00036
26.1 0.00016
26.15 0.00001
26.2 -0.00029
26.25 -0.00063
26.3 -0.00093
26.35 -0.0012
26.4 -0.00138
26.45 -0.00139
26.5 -0.00143
26.55 -0.00142
26.6 -0.00118
26.65 -0.00082
26.7 -0.00073
26.75 -0.00075
26.8 -0.00082
26.85 -0.00096
26.9 -0.00106
26.95 -0.00097
27 -0.00084
27.05 -0.00079
27.1 -0.0005
27.15 -0.00031
27.2 0.00003
27.25 0.00046
27.3 0.00083
27.35 0.00091
27.4 0.00103
27.45 0.00111
27.5 0.00111
27.55 0.00089
27.6 0.00051
27.65 0.00026
27.7 -0.00013
27.75 -0.00028
27.8 -0.00021
27.85 -0.00025
27.9 -0.00034
27.95 -0.00047
28 -0.00041
28.05 -0.00039
28.1 -0.00041
28.15 -0.00053
28.2 -0.00075
28.25 -0.00085
28.3 -0.00079
28.35 -0.00089
28.4 -0.0007
28.45 -0.0006
28.5 -0.00055
28.55 -0.00035
28.6 -0.00028
28.65 -0.00025
28.7 -0.00021
28.75 -0.00004
28.8 -0.00001
28.85 -0.0001
28.9 0.00005
28.95 -0.00004
29 -0.00013
29.05 -0.00009
29.1 -0.00009
29.15 -0.00026
29.2 -0.00017
29.25 -0.00006
29.3 0.00011
29.35 0.00002
29.4 0.00002
29.45 0.00019
29.5 0.0003
29.55 0.00022
29.6 -0.00003
29.65 -0.00005
29.7 -0.00008
29.75 0.00012
29.8 0.00039
29.85 0.00051
29.9 0.00039
29.95 0.00015
30 0.00018
30.05 0.00037
30.1 0.0005
30.15 0.00051
30.2 0.00043
30.25 0.00057
30.3 0.0007
30.35 0.00055
30.4 0.00028
30.45 0.00025
30.5 0.00036
30.55 0.00026
30.6 0.00015
30.65 0.00011
30.7 0.00003
30.75 0.00009
30.8 0.00013
30.85 0.00036
30.9 0.00043
30.95 0.00027
31 0.00015
31.05 -0.00005
31.1 -0.00025
31.15 -0.00036
31.2 -0.00055
31.25 -0.00077
31.3 -0.00065
31.35 -0.00037
31.4 0.00002
31.45 0.00018
31.5 0.00045
31.55 0.00081
31.6 0.00084
31.65 0.00075
31.7 0.00062
31.75 0.00058
31.8 0.00065
31.85 0.00057
31.9 0.00059
31.95 0.00051
32 0.00062
32.05 0.00061
32.1 0.00073
32.15 0.00087
32.2 0.00068
32.25 0.00033
32.3 0.00011
32.35 -0.00022
32.4 -0.00035
32.45 -0.00048
32.5 -0.00038
32.55 -0.00007
32.6 0.00026
32.65 0.00039
32.7 0.00035
32.75 0.00037
32.8 0.00029
32.85 0.00039
32.9 0.00031
32.95 0.00012
33 -0.0002
33.05 -0.00022
33.1 -0.00005
33.15 -0.00003
33.2 -0.00008
33.25 0.00011
33.3 0.00033
33.35 0.00034
33.4 0.0004
33.45 0.00043
33.5 0.00034
33.55 0.00032
33.6 0.00008
33.65 -0.00008
33.7 -0.0002
33.75 -0.0003
33.8 -0.00039
33.85 -0.00064
33.9 -0.00089
33.95 -0.00104
34 -0.00094
34.05 -0.00067
34.1 -0.00048
34.15 -0.00024
34.2 -0.00009
34.25 -0.00001
34.3 -0.00017
34.35 -0.00047
34.4 -0.00083
34.45 -0.00087
34.5 -0.00094
34.55 -0.00085
34.6 -0.00082
34.65 -0.00091
34.7 -0.0008
34.75 -0.00072
34.8 -0.00078
34.85 -0.00074
34.9 -0.00072
34.95 -0.00071
35 -0.0007
35.05 -0.00062
35.1 -0.00056
35.15 -0.00029
35.2 -0.00011
35.25 0.00019
35.3 0.00035
35.35 0.00024
35.4 0.00028
35.45 0.00021
35.5 0.00005
35.55 -0.00002
35.6 -0.0001
35.65 -0.00019
35.7 -0.00031
35.75 -0.00043
35.8 -0.00063
35.85 -0.00077
35.9 -0.00095
35.95 -0.00084
36 -0.00048
36.05 -0.00006
36.1 0.00023
36.15 0.0005
36.2 0.00049
36.25 0.00057
36.3 0.00062
36.35 0.00046
36.4 0.0004
36.45 0.00037
36.5 0.00049
36.55 0.0004
36.6 0.00051
36.65 0.00034
36.7 0.00028
36.75 0.00041
36.8 0.00061
36.85 0.00078
36.9 0.00092
36.95 0.001
37 0.00105
37.05 0.0008
37.1 0.00074
37.15 0.00082
37.2 0.00059
37.25 0.00059
37.3 0.00034
37.35 0.00037
37.4 0.00058
37.45 0.00065
37.5 0.00078
37.55 0.00069
37.6 0.00072
37.65 0.00049
37.7 0.00034
37.75 0.00036
37.8 0.00012
37.85 0.00017
37.9 0.00013
37.95 -0.00005
38 -0.00003
38.05 0.00002
38.1 -0.00003
38.15 -0.00025
38.2 -0.00021
38.25 -0.00016
38.3 0.00008
38.35 0.0002
38.4 0.00015
38.45 0.00005
38.5 0.00001
38.55 -0.00007
38.6 -0.00004
38.65 0.00012
38.7 0.00017
38.75 0.00026
38.8 0.00045
38.85 0.00071
38.9 0.00069
38.95 0.00063
39 0.00049
39.05 0.00016
39.1 -0.00003
39.15 -0.00014
39.2 -0.00033
39.25 -0.00052
39.3 -0.00051
39.35 -0.00025
39.4 -0.00016
39.45 -0.00024
39.5 -0.00028
39.55 -0.00039
39.6 -0.00031
39.65 -0.00009
39.7 0.00026
39.75 0.00037
39.8 0.00029
39.85 0.00022
39.9 0.0001
39.95 -0.00012
40 -0.00038
40.05 -0.00055
40.1 -0.00066
40.15 -0.00049
40.2 -0.00013
40.25 0.0003
40.3 0.00058
40.35 0.0009
40.4 0.00094
40.45 0.00092
40.5 0.00097
40.55 0.00101
40.6 0.00088
40.65 0.00065
40.7 0.00023
40.75 -0.00018
40.8 -0.0006
40.85 -0.00061
40.9 -0.00063
40.95 -0.00066
41 -0.00063
41.05 -0.00069
41.1 -0.00086
41.15 -0.00082
41.2 -0.00067
41.25 -0.00039
41.3 -0.00023
41.35 -0.00026
41.4 -0.00017
41.45 0.00003
41.5 0.00036
41.55 0.0004
41.6 0.00037
41.65 0.0003
41.7 0.00029
41.75 0.00012
41.8 -0.00003
41.85 0.00003
41.9 0.00006
41.95 -0.00003
42 0.00012
42.05 0.00025
42.1 0.00048
42.15 0.00067
42.2 0.0006
42.25 0.00038
42.3 0.00006
42.35 -0.00013
42.4 -0.00013
42.45 -0.00013
42.5 -0.00002
42.55 -0.00017
42.6 -0.00038
42.65 -0.0003
42.7 -0.0002
42.75 -0.00016
42.8 0.00005
42.85 0.00018
42.9 0.00002
42.95 -0.0003
43 -0.00029
43.05 -0.0002
43.1 -0.00027
43.15 -0.00021
43.2 -0.00014
43.25 0.00003
43.3 0.00032
43.35 0.00064
43.4 0.00056
43.45 0.00045
43.5 0.00041
43.55 0.00038
43.6 0.00051
43.65 0.00053
43.7 0.00064
43.75 0.00065
43.8 0.0004
43.85 0.00001
43.9 -0.00015
43.95 -0.00018
44 -0.0002
44.05 -0.00004
44.1 0.00011
44.15 0.00035
44.2 0.00061
44.25 0.00071
44.3 0.00068
44.35 0.00038
44.4 -0
44.45 -0.00008
44.5 -0.00007
44.55 -0.00011
44.6 -0.00008
44.65 -0.00026
44.7 -0.00037
44.75 -0.00029
44.8 -0.00019
44.85 -0.00003
44.9 0.00016
44.95 0.00043
45 0.00038
45.05 0.00013
45.1 0.00001
45.15 -0.00002
45.2 0.00015
45.25 0.00034
45.3 0.00039
45.35 0.00022
45.4 0.00023
45.45 0.0004
45.5 0.00064
45.55 0.00053
45.6 0.00025
45.65 -0.00009
45.7 -0.00033
45.75 -0.0003
45.8 -0.00015
45.85 0.0001
45.9 0.00006
45.95 -0.00011
46 -0.00025
46.05 -0.00047
46.1 -0.00063
46.15 -0.00055
46.2 -0.00061
46.25 -0.00041
46.3 -0.00046
46.35 -0.00067
46.4 -0.00062
46.45 -0.00036
46.5 -0.00003
46.55 0.00011
46.6 0.0002
46.65 0.0002
46.7 0.00004
46.75 -0.00017
46.8 -0.00031
46.85 -0.00055
46.9 -0.00071
46.95 -0.00066
47 -0.00078
47.05 -0.00067
47.1 -0.00066
47.15 -0.0005
47.2 -0.0003
47.25 -0.00034
47.3 -0.00025
47.35 -0.00016
47.4 0.00012
47.45 0.00019
47.5 0.00013
47.55 -0.00002
47.6 -0.00023
47.65 -0.00019
47.7 0.00003
47.75 0.00003
47.8 -0.00013
47.85 -0.00018
47.9 -0.00004
47.95 0.00001
48 -0.00019
48.05 -0.00043
48.1 -0.00057
48.15 -0.00056
48.2 -0.00052
48.25 -0.0003
48.3 -0.00007
48.35 0.00006
48.4 0.00006
48.45 0.00024
48.5 0.00025
48.55 0.00028
48.6 0.00031
48.65 0.00019
48.7 0.00028
48.75 0.00045
48.8 0.00048
48.85 0.00039
48.9 0.00024
48.95 0.00018
49 0.00005
49.05 -0.00007
49.1 -0.00021
49.15 -0.00043
49.2 -0.00061
49.25 -0.00062
49.3 -0.00052
49.35 -0.00054
49.4 -0.0005
49.45 -0.00051
49.5 -0.00068
49.55 -0.00078
49.6 -0.00067
49.65 -0.00034
49.7 -0.00012
49.75 0.00005
49.8 0.00022
49.85 0.0005
49.9 0.00066
49.95 0.00084
50 0.00063
50.05 0.00044
50.1 0.00015
50.15 -0.00016
50.2 -0.00039
50.25 -0.00074
50.3 -0.00091
50.35 -0.00133
50.4 -0.00166
50.45 -0.00222
50.5 -0.0026
50.55 -0.00332
50.6 -0.00387
50.65 -0.00463
50.7 -0.00563
50.75 -0.00676
50.8 -0.00803
50.85 -0.00916
50.9 -0.01051
50.95 -0.01211
51 -0.0139
51.05 -0.01583
51.1 -0.01815
51.15 -0.02063
51.2 -0.02362
51.25 -0.02658
51.3 -0.02977
51.35 -0.03338
51.4 -0.03737
51.45 -0.04153
51.5 -0.04578
51.55 -0.0501
51.6 -0.05468
51.65 -0.05946
51.7 -0.06436
51.75 -0.06899
51.8 -0.07347
51.85 -0.07784
51.9 -0.08232
51.95 -0.08639
52 -0.09009
52.05 -0.09368
52.1 -0.09701
52.15 -0.10003
52.2 -0.10231
52.25 -0.10432
52.3 -0.10584
52.35 -0.10662
52.4 -0.10695
52.45 -0.1066
52.5 -0.10537
52.55 -0.10353
52.6 -0.10111
52.65 -0.09839
52.7 -0.09517
52.75 -0.09182
52.8 -0.08842
52.85 -0.0846
52.9 -0.08064
52.95 -0.07656
53 -0.07241
53.05 -0.06819
53.1 -0.06426
53.15 -0.06051
53.2 -0.05695
53.25 -0.05332
53.3 -0.04985
53.35 -0.04639
53.4 -0.04312
53.45 -0.03967
53.5 -0.03606
53.55 -0.03256
53.6 -0.02884
53.65 -0.02487
53.7 -0.02068
53.75 -0.01616
53.8 -0.01147
53.85 -0.0061
53.9 -0.00041
53.95 0.00586
54 0.01242
54.05 0.01927
54.1 0.0265
54.15 0.03375
54.2 0.04102
54.25 0.04832
54.3 0.05579
54.35 0.06331
54.4 0.07097
54.45 0.07827
54.5 0.08544
54.55 0.09212
54.6 0.09849
54.65 0.10447
54.7 0.10978
54.75 0.11453
54.8 0.11874
54.85 0.12244
54.9 0.12547
54.95 0.12762
55 0.12902
55.05 0.13
55.1 0.13071
55.15 0.13104
55.2 0.13083
55.25 0.13
55.3 0.12857
55.35 0.1268
55.4 0.12461
55.45 0.12208
55.5 0.11955
55.55 0.11676
55.6 0.11397
55.65 0.11083
55.7 0.10744
55.75 0.10409
55.8 0.1008
55.85 0.09779
55.9 0.09487
55.95 0.09193
56 0.08913
56.05 0.08616
56.1 0.08302
56.15 0.0798
56.2 0.07685
56.25 0.07393
56.3 0.07109
56.35 0.0681
56.4 0.06537
56.45 0.06267
56.5 0.06012
56.55 0.05748
56.6 0.05473
56.65 0.05195
56.7 0.0494
56.75 0.04693
56.8 0.04432
56.85 0.04169
56.9 0.03899
56.95 0.03661
57 0.03436
57.05 0.03207
57.1 0.02991
57.15 0.02753
57.2 0.02528
57.25 0.02286
57.3 0.02036
57.35 0.01792
57.4 0.01563
57.45 0.01362
57.5 0.01179
57.55 0.01032
57.6 0.0088
57.65 0.00751
57.7 0.00634
57.75 0.0051
57.8 0.0039
57.85 0.00258
57.9 0.00108
57.95 -0.00052
58 -0.00172
58.05 -0.00267
58.1 -0.00386
58.15 -0.00481
58.2 -0.0058
58.25 -0.00684
58.3 -0.00759
58.35 -0.00843
58.4 -0.00925
58.45 -0.01011
58.5 -0.0109
58.55 -0.01174
58.6 -0.01255
58.65 -0.01311
58.7 -0.01357
58.75 -0.01369
58.8 -0.01369
58.85 -0.01369
58.9 -0.01368
58.95 -0.01385
59 -0.01399
59.05 -0.0143
59.1 -0.01443
59.15 -0.01469
59.2 -0.01494
59.25 -0.01495
59.3 -0.01514
59.35 -0.0153
59.4 -0.0153
59.45 -0.01533
59.5 -0.01554
59.55 -0.01573
59.6 -0.01598
59.65 -0.01606
59.7 -0.01626
59.75 -0.01619
59.8 -0.01624
59.85 -0.01615
59.9 -0.01599
59.95 -0.01582
60 -0.01574
60.05 -0.01552
60.1 -0.01524
60.15 -0.01518
60.2 -0.01523
60.25 -0.01513
60.3 -0.01499
60.35 -0.0148
60.4 -0.01458
60.45 -0.01436
60.5 -0.01421
60.55 -0.01404
60.6 -0.01395
60.65 -0.01384
60.7 -0.01404
60.75 -0.01418
60.8 -0.0144
60.85 -0.0146
60.9 -0.01482
60.95 -0.01482
61 -0.01472
61.05 -0.01451
61.1 -0.01412
61.15 -0.01369
61.2 -0.01345
61.25 -0.01343
61.3 -0.01329
61.35 -0.01326
61.4 -0.01318
61.45 -0.0129
61.5 -0.01277
61.55 -0.01247
61.6 -0.01206
61.65 -0.01197
61.7 -0.0119
61.75 -0.012
61.8 -0.01214
61.85 -0.01213
61.9 -0.012
61.95 -0.01184
62 -0.0118
62.05 -0.0118
62.1 -0.01171
62.15 -0.0117
62.2 -0.01162
62.25 -0.01142
62.3 -0.01093
62.35 -0.01054
62.4 -0.01026
62.45 -0.01006
62.5 -0.00978
62.55 -0.00947
62.6 -0.00939
62.65 -0.00925
62.7 -0.00915
62.75 -0.00911
62.8 -0.00884
62.85 -0.00863
62.9 -0.00833
62.95 -0.00792
63 -0.00752
63.05 -0.00741
63.1 -0.00723
63.15 -0.00727
63.2 -0.00709
63.25 -0.00691
63.3 -0.00662
63.35 -0.00629
63.4 -0.00616
63.45 -0.00608
63.5 -0.00619
63.55 -0.00648
63.6 -0.00651
63.65 -0.00634
63.7 -0.00632
63.75 -0.00609
63.8 -0.00608
63.85 -0.00622
63.9 -0.0063
63.95 -0.00635
64 -0.00653
64.05 -0.00638
64.1 -0.00623
64.15 -0.00623
64.2 -0.0062
64.25 -0.00591
64.3 -0.00552
64.35 -0.00516
64.4 -0.00498
64.45 -0.00478
64.5 -0.00489
64.55 -0.00476
64.6 -0.00464
64.65 -0.00458
64.7 -0.00447
64.75 -0.00443
64.8 -0.00424
64.85 -0.00418
64.9 -0.00429
64.95 -0.00445
65 -0.00452
65.05 -0.00461
65.1 -0.0047
65.15 -0.00485
65.2 -0.0049
65.25 -0.0047
65.3 -0.00466
65.35 -0.00442
65.4 -0.00419
65.45 -0.00407
65.5 -0.00401
65.55 -0.00413
65.6 -0.00395
65.65 -0.00396
65.7 -0.00376
65.75 -0.00357
65.8 -0.00344
65.85 -0.00325
65.9 -0.00312
65.95 -0.00281
66 -0.00258
66.05 -0.00228
66.1 -0.00213
66.15 -0.00189
66.2 -0.00185
66.25 -0.002
66.3 -0.00227
66.35 -0.0027
66.4 -0.00302
66.45 -0.00341
66.5 -0.00351
66.55 -0.00352
66.6 -0.00335
66.65 -0.00302
66.7 -0.00297
66.75 -0.00285
66.8 -0.00282
66.85 -0.00281
66.9 -0.0028
66.95 -0.00277
67 -0.00254
67.05 -0.00238
67.1 -0.00236
67.15 -0.00251
67.2 -0.00276
67.25 -0.00291
67.3 -0.00304
67.35 -0.00321
67.4 -0.00319
67.45 -0.0031
67.5 -0.00314
67.55 -0.00289
67.6 -0.00259
67.65 -0.00221
67.7 -0.00209
67.75 -0.00207
67.8 -0.00224
67.85 -0.00224
67.9 -0.00239
67.95 -0.00227
68 -0.00213
68.05 -0.00209
68.1 -0.00183
68.15 -0.00143
68.2 -0.00109
68.25 -0.00107
68.3 -0.00101
68.35 -0.00082
68.4 -0.00077
68.45 -0.00068
68.5 -0.00054
68.55 -0.00068
68.6 -0.00082
68.65 -0.0011
68.7 -0.0014
68.75 -0.00165
68.8 -0.00182
68.85 -0.00209
68.9 -0.00203
68.95 -0.0021
69 -0.00198
69.05 -0.00161
69.1 -0.00146
69.15 -0.00142
69.2 -0.0012
69.25 -0.00085
69.3 -0.00043
69.35 -0.00011
69.4 -0.00016
69.45 -0.00026
69.5 -0.00055
69.55 -0.00072
69.6 -0.00088
69.65 -0.00083
69.7 -0.00094
69.75 -0.00098
69.8 -0.0009
69.85 -0.00102
69.9 -0.00114
69.95 -0.00137
70 -0.00168
70.05 -0.00161
70.1 -0.00141
70.15 -0.00106
70.2 -0.00101
70.25 -0.00089
70.3 -0.00064
70.35 -0.00043
70.4 -0.00039
70.45 -0.00034
70.5 -0.00017
70.55 -0.00007
70.6 0.0001
70.65 0.00007
70.7 0.00005
70.75 -0.00024
70.8 -0.00035
70.85 -0.00048
70.9 -0.00077
70.95 -0.00101
71 -0.00136
71.05 -0.00151
71.1 -0.00136
71.15 -0.00119
71.2 -0.00122
71.25 -0.00114
71.3 -0.00082
71.35 -0.00053
71.4 -0.0003
71.45 -0.00027
71.5 -0.00048
71.55 -0.00063
71.6 -0.00068
71.65 -0.00055
71.7 -0.00063
71.75 -0.00046
71.8 -0.00028
71.85 -0.00017
71.9 -0.00014
71.95 -0.00036
72 -0.00041
72.05 -0.00057
72.1 -0.0008
72.15 -0.00097
72.2 -0.00125
72.25 -0.00133
72.3 -0.00151
72.35 -0.00137
72.4 -0.00127
72.45 -0.00115
72.5 -0.00086
72.55 -0.00048
72.6 -0.00037
72.65 -0.00018
72.7 0.00011
72.75 0.00006
72.8 -0.0001
72.85 -0.00037
72.9 -0.00075
72.95 -0.00094
73 -0.00114
73.05 -0.00136
73.1 -0.00127
73.15 -0.00108
73.2 -0.00094
73.25 -0.00075
73.3 -0.00041
73.35 -0.00007
73.4 -0.00006
73.45 0
73.5 0.00023
73.55 0.00013
73.6 0.00023
73.65 0.00015
73.7 0.00007
73.75 0.00012
73.8 -0.00006
73.85 -0.00039
73.9 -0.00057
73.95 -0.00064
74 -0.00077
74.05 -0.00095
74.1 -0.00095
74.15 -0.00081
74.2 -0.00088
74.25 -0.00076
74.3 -0.00079
74.35 -0.00058
74.4 -0.00034
74.45 -0.00011
74.5 0.00022
74.55 0.00029
74.6 0.00052
74.65 0.00045
74.7 0.00021
74.75 0.00019
74.8 0.00034
74.85 0.00054
74.9 0.00042
74.95 0.00032
75 0.00003
75.05 -0.00016
75.1 -0.00041
75.15 -0.00047
75.2 -0.00066
75.25 -0.00054
75.3 -0.00047
75.35 -0.00054
75.4 -0.00068
75.45 -0.00087
75.5 -0.00104
75.55 -0.00097
75.6 -0.00076
75.65 -0.00073
75.7 -0.00045
75.75 -0.00004
75.8 0.00041
75.85 0.00045
75.9 0.00036
75.95 0.00019
76 0.00015
76.05 0.00014
76.1 -0.00008
76.15 -0.00025
76.2 -0.0005
76.25 -0.00083
76.3 -0.00116
76.35 -0.00147
76.4 -0.00148
76.45 -0.00154
76.5 -0.00144
76.55 -0.00141
76.6 -0.00133
76.65 -0.0011
76.7 -0.00086
76.75 -0.00042
76.8 -0.0003
76.85 -0.00038
76.9 -0.00026
76.95 -0.00007
77 -0.00008
77.05 -0.00024
77.1 -0.00046
77.15 -0.00067
77.2 -0.00082
77.25 -0.0009
77.3 -0.00072
77.35 -0.00066
77.4 -0.0004
77.45 -0.0002
77.5 0.00008
77.55 0.00043
77.6 0.00079
77.65 0.00092
77.7 0.00099
77.75 0.00107
77.8 0.00104
77.85 0.00076
77.9 0.00057
77.95 0.00026
78 -0.00003
78.05 -0.00033
78.1 -0.00036
78.15 -0.00048
78.2 -0.00056
78.25 -0.00067
78.3 -0.00063
78.35 -0.00056
78.4 -0.00029
78.45 0.00001
78.5 0.00031
78.55 0.00057
78.6 0.00072
78.65 0.00085
78.7 0.00077
78.75 0.0007
78.8 0.00056
78.85 0.00044
78.9 0.00054
78.95 0.00061
79 0.00063
79.05 0.00061
79.1 0.00035
79.15 0.00035
79.2 0.00022
79.25 0.0002
79.3 0.00039
79.35 0.0007
79.4 0.00064
79.45 0.00071
79.5 0.00073
79.55 0.00068
79.6 0.00079
79.65 0.00074
79.7 0.00055
79.75 0.00057
79.8 0.00058
79.85 0.0005
79.9 0.0003
79.95 0.00016
80 -0.00004
80.05 -0.00021
80.1 -0.0004
80.15 -0.00059
80.2 -0.00077
80.25 -0.00064
80.3 -0.00028
80.35 -0.00003
80.4 -0
80.45 0.00001
80.5 0.00015
80.55 0.00014
80.6 0.00025
80.65 0.00047
80.7 0.00055
80.75 0.00076
80.8 0.00072
80.85 0.00043
80.9 0.00011
80.95 -0.00023
81 -0.00035
81.05 -0.00057
81.1 -0.00065
81.15 -0.00079
81.2 -0.0007
81.25 -0.00042
81.3 -0.00004
81.35 0.00013
81.4 0.00001
81.45 -0.00021
81.5 -0.00041
81.55 -0.00067
81.6 -0.00063
81.65 -0.00045
81.7 -0.00015
81.75 -0.00001
81.8 -0.00003
81.85 -0.00011
81.9 -0.00008
81.95 -0.00011
82 0.00008
82.05 0.00032
82.1 0.0005
82.15 0.00041
82.2 0.00023
82.25 -0.00002
82.3 -0.00028
82.35 -0.00028
82.4 -0.00022
82.45 -0.00026
82.5 -0.00041
82.55 -0.00049
82.6 -0.0003
82.65 0.00007
82.7 0.00012
82.75 0.00024
82.8 0.00033
82.85 0.00052
82.9 0.00042
82.95 0.00027
83 0.00029
83.05 0.00006
83.1 -0.0001
83.15 -0.00019
83.2 -0.00015
83.25 -0.00006
83.3 -0.00004
83.35 -0.00011
83.4 -0
83.45 0.00029
83.5 0.00041
83.55 0.00025
83.6 0.00002
83.65 0.00001
83.7 -0.00002
83.75 -0.00003
83.8 0.00017
83.85 0.00033
83.9 0.00033
83.95 0.00017
84 0.00002
84.05 -0.00013
84.1 -0
84.15 0.00025
84.2 0.00034
84.25 0.00027
84.3 0.00012
84.35 0.00013
84.4 0.00004
84.45 -0.00005
84.5 -0.00012
84.55 -0.00017
84.6 -0.00024
84.65 -0.00022
84.7 -0.00015
84.75 0.00002
84.8 0.00006
84.85 0.00007
84.9 0.00006
84.95 0.00019
85 0.00026
85.05 0.00018
85.1 0.00008
85.15 0.00002
85.2 -0.00022
85.25 -0.00022
85.3 -0.00004
85.35 0.00014
85.4 0.00031
85.45 0.00033
85.5 0.00021
85.55 0.00013
85.6 -0.00007
85.65 -0.00034
85.7 -0.00068
85.75 -0.00084
85.8 -0.00076
85.85 -0.00069
85.9 -0.0006
85.95 -0.00054
86 -0.00023
86.05 0.00016
86.1 0.00036
86.15 0.00035
86.2 0.00034
86.25 0.00047
86.3 0.00047
86.35 0.00063
86.4 0.00087
86.45 0.00088
86.5 0.00096
86.55 0.00074
86.6 0.00032
86.65 -0.00003
86.7 -0.0004
86.75 -0.00049
86.8 -0.00066
86.85 -0.0007
86.9 -0.00056
86.95 -0.00032
87 -0.00037
87.05 -0.00052
87.1 -0.00059
87.15 -0.00039
87.2 -0.00041
87.25 -0.00058
87.3 -0.00072
87.35 -0.00067
87.4 -0.00045
87.45 -0.00048
87.5 -0.00065
87.55 -0.00073
87.6 -0.00076
87.65 -0.00066
87.7 -0.00046
87.75 -0.00015
87.8 -0.00015
87.85 -0.00032
87.9 -0.00052
87.95 -0.00039
88 -0.00029
88.05 -0.00039
88.1 -0.0002
88.15 0.00015
88.2 0.00042
88.25 0.0007
88.3 0.00061
88.35 0.00052
88.4 0.00058
88.45 0.00069
88.5 0.00059
88.55 0.00061
88.6 0.00059
88.65 0.00056
88.7 0.00045
88.75 0.00047
88.8 0.00025
88.85 -0.00006
88.9 -0.00046
88.95 -0.00081
89 -0.00112
89.05 -0.00128
89.1 -0.00144
89.15 -0.00123
89.2 -0.00119
89.25 -0.00115
89.3 -0.00124
89.35 -0.0011
89.4 -0.0011
89.45 -0.00104
89.5 -0.00109
89.55 -0.00111
89.6 -0.00101
89.65 -0.00102
89.7 -0.001
89.75 -0.00082
89.8 -0.00057
89.85 -0.0005
89.9 -0.00057
89.95 -0.00041
90 -0.00005
90.05 0.00015
90.1 0.00049
90.15 0.00072
90.2 0.001
90.25 0.00101
90.3 0.001
90.35 0.00108
90.4 0.00099
90.45 0.00074
90.5 0.00035
90.55 0.00005
90.6 -0.00012
90.65 -0.00019
90.7 -0.00017
90.75 -0.00024
90.8 -0.00005
90.85 0.00019
90.9 0.00017
90.95 0.00016
91 0.00023
91.05 0.00033
91.1 0.00054
91.15 0.0006
91.2 0.00043
91.25 0.00024
91.3 -0.00005
91.35 -0.00019
91.4 -0.00042
91.45 -0.00073
91.5 -0.0008
91.55 -0.00096
91.6 -0.0008
91.65 -0.00064
91.7 -0.00043
91.75 -0.00015
91.8 0.00004
91.85 0.00016
91.9 0.00016
91.95 0.00017
92 0.0002
92.05 0.00026
92.1 0.00009
92.15 0.00012
92.2 -0.00008
92.25 -0.00023
92.3 -0.00008
92.35 -0.00013
92.4 -0.00026
92.45 -0.00032
92.5 -0.00024
92.55 0.00003
92.6 0.00021
92.65 0.00019
92.7 -0.00002
92.75 -0.00033
92.8 -0.00032
92.85 -0.0003
92.9 -0.00034
92.95 -0.00036
93 -0.00045
93.05 -0.00042
93.1 -0.00017
93.15 -0.00007
93.2 -0.00009
93.25 0.00009
93.3 0.00029
93.35 0.00062
93.4 0.00075
93.45 0.00073
93.5 0.00083
93.55 0.00092
93.6 0.00101
93.65 0.00109
93.7 0.00124
93.75 0.00127
93.8 0.00137
93.85 0.00121
93.9 0.00107
93.95 0.0011
94 0.00101
94.05 0.00064
94.1 0.00051
94.15 0.00031
94.2 0.00017
94.25 0.00001
94.3 -0.00016
94.35 -0.00045
94.4 -0.00071
94.45 -0.00067
94.5 -0.00052
94.55 -0.00041
94.6 -0.00049
94.65 -0.00031
94.7 -0.00032
94.75 -0.00018
94.8 -0.0001
94.85 0.00008
94.9 0.00026
94.95 0.00016
95 0.00009
95.05 -0.00011
95.1 -0.00004
95.15 0.00021
95.2 0.00029
95.25 0.0001
95.3 0.0002
95.35 0.00037
95.4 0.00039
95.45 0.00022
95.5 0.00021
95.55 0.00017
95.6 0.0002
95.65 0
95.7 0.00001
95.75 -0.00001
95.8 0.00014
95.85 0.00032
95.9 0.00057
95.95 0.00048
96 0.00034
96.05 0.0003
96.1 0.00023
96.15 0.00001
96.2 -0.0001
96.25 0
96.3 0.00005
96.35 0.00005
96.4 0.00005
96.45 0.00018
96.5 0.00003
96.55 -0.00008
96.6 -0.00002
96.65 0.00022
96.7 0.00027
96.75 0.00022
96.8 0.00014
96.85 0.00009
96.9 0.00022
96.95 0.00021
97 0.0004
97.05 0.00035
97.1 0.00051
97.15 0.00062
97.2 0.0005
97.25 0.0002
97.3 0.0001
97.35 0.0001
97.4 0.00004
97.45 0.00016
97.5 0.00015
97.55 0.00028
97.6 0.00056
97.65 0.00071
97.7 0.00052
97.75 0.00017
97.8 -0.00025
97.85 -0.00069
97.9 -0.00083
97.95 -0.00095
98 -0.00092
98.05 -0.00104
98.1 -0.00085
98.15 -0.00056
98.2 -0.00019
98.25 -0.00002
98.3 0.00027
98.35 0.00029
98.4 0.00012
98.45 -0.00016
98.5 -0.00017
98.55 -0.0001
98.6 0.00005
98.65 0.00013
98.7 -0.00005
98.75 -0.00005
98.8 -0.00013
98.85 -0.00026
98.9 -0.00053
98.95 -0.00051
99 -0.00047
99.05 -0.00043
99.1 -0.00023
99.15 0.0001
99.2 0.00011
99.25 0.00029
99.3 0.00045
99.35 0.00028
99.4 0.00016
99.45 0.00001
99.5 0.00011
99.55 0.00004
99.6 -0.00019
99.65 -0.00025
99.7 -0.00008
99.75 0.00007
99.8 0.00027
99.85 0.00056
99.9 0.00079
99.95 0.00103
