0 0
0.05 0.00018
0.1 0.00046
0.15 0.00076
0.2 0.00089
0.25 0.00096
0.3 0.00093
0.35 0.00086
0.4 0.00078
0.45 0.00078
0.5 0.00084
0.55 0.00085
0.6 0.00079
0.65 0.00072
0.7 0.00067
0.75 0.0007
0.8 0.00066
0.85 0.00062
0.9 0.00071
0.95 0.00085
1 0.00095
1.05 0.00107
1.1 0.00121
1.15 0.00122
1.2 0.00126
1.25 0.00119
1.3 0.00104
1.35 0.00101
1.4 0.00101
1.45 0.00094
1.5 0.00097
1.55 0.00104
1.6 0.00112
1.65 0.0012
1.7 0.00121
1.75 0.00109
1.8 0.00101
1.85 0.001
1.9 0.0009
1.95 0.00082
2 0.00067
2.05 0.0006
2.1 0.00058
2.15 0.00054
2.2 0.0006
2.25 0.00058
2.3 0.00047
2.35 0.00037
2.4 0.00036
2.45 0.00044
2.5 0.00048
2.55 0.00041
2.6 0.00036
2.65 0.00034
2.7 0.0004
2.75 0.00051
2.8 0.00055
2.85 0.00061
2.9 0.00072
2.95 0.00071
3 0.0006
3.05 0.0005
3.1 0.0004
3.15 0.00033
3.2 0.00038
3.25 0.00041
3.3 0.00037
3.35 0.00032
3.4 0.00035
3.45 0.0004
3.5 0.00038
3.55 0.00039
3.6 0.00047
3.65 0.00059
3.7 0.00074
3.75 0.00087
3.8 0.00097
3.85 0.00089
3.9 0.00086
3.95 0.00077
4 0.0006
4.05 0.00043
4.1 0.00022
4.15 0.00003
4.2 -0.00009
4.25 -0.00014
4.3 -0.00014
4.35 -0.0001
4.4 -0.0001
4.45 -0.00004
4.5 0
4.55 -0.00003
4.6 0
4.65 -0.00003
4.7 -0.00008
4.75 -0
4.8 0.00003
4.85 0.00004
4.9 0.00007
4.95 0.00016
5 0.00014
5.05 0.00022
5.1 0.00022
5.15 0.00018
5.2 0.00019
5.25 0.00013
5.3 0.0001
5.35 0.00011
5.4 0.00018
5.45 0.00025
5.5 0.00019
5.55 0.0001
5.6 0.00014
5.65 0.00011
5.7 0.00017
5.75 0.00029
5.8 0.00029
5.85 0.00027
5.9 0.00018
5.95 0.00008
6 0.00008
6.05 0.00007
6.1 0.00002
6.15 0.0001
6.2 0.00021
6.25 0.00029
6.3 0.00027
6.35 0.00033
6.4 0.00042
6.45 0.0004
6.5 0.00037
6.55 0.00027
6.6 0.00019
6.65 0.00015
6.7 0.00015
6.75 0.00025
6.8 0.00035
6.85 0.00038
6.9 0.00031
6.95 0.00028
7 0.00015
7.05 0.00011
7.1 -0.00001
7.15 -0.00001
7.2 0.00001
7.25 0.00001
7.3 -0.00006
7.35 -0.00009
7.4 -0.00005
7.45 0.00003
7.5 0.00012
7.55 0.00021
7.6 0.0003
7.65 0.00028
7.7 0.00016
7.75 0.00017
7.8 0.00009
7.85 -0.00004
7.9 -0.00007
7.95 0.00003
8 0.00005
8.05 0.00003
8.1 0.00006
8.15 0.00013
8.2 0.00009
8.25 0.00007
8.3 -0.00001
8.35 -0.00007
8.4 -0.00011
8.45 -0.00018
8.5 -0.0002
8.55 -0.00023
8.6 -0.00021
8.65 -0.00012
8.7 0.00003
8.75 0.00013
8.8 0.00015
8.85 0.00016
8.9 0.00019
8.95 0.00024
9 0.00025
9.05 0.0003
9.1 0.00027
9.15 0.00019
9.2 0.00015
9.25 0.00014
9.3 0.00006
9.35 -0.00007
9.4 -0.00006
9.45 -0.00011
9.5 -0.00014
9.55 -0.00007
9.6 0.00005
9.65 0.0001
9.7 0.00012
9.75 0.00013
9.8 0.00006
9.85 -0.00001
9.9 -0.00012
9.95 -0.00008
10 0.00001
10.05 0.00013
10.1 0.00023
10.15 0.00024
10.2 0.00015
10.25 -0.00001
10.3 -0.00018
10.35 -0.00034
10.4 -0.00047
10.45 -0.00046
10.5 -0.00045
10.55 -0.00044
10.6 -0.00031
10.65 -0.00023
10.7 -0.0001
10.75 -0.00003
10.8 -0.00006
10.85 0
10.9 0.00004
10.95 0.00009
11 0.00011
11.05 0.00008
11.1 0
11.15 0.00006
11.2 0.00002
11.25 0.00007
11.3 0.00014
11.35 0.00028
11.4 0.00044
11.45 0.00056
11.5 0.00052
11.55 0.00048
11.6 0.00051
11.65 0.00041
11.7 0.00037
11.75 0.0003
11.8 0.00018
11.85 0.00007
11.9 0.00006
11.95 0.00013
12 0.00026
12.05 0.00033
12.1 0.00041
12.15 0.00053
12.2 0.00048
12.25 0.00038
12.3 0.00034
12.35 0.00024
12.4 0.00024
12.45 0.00025
12.5 0.00019
12.55 0.00005
12.6 -0.00013
12.65 -0.00022
12.7 -0.00028
12.75 -0.00024
12.8 -0.00013
12.85 -0.00003
12.9 0.00012
12.95 0.00017
13 0.00009
13.05 0.00011
13.1 0.00018
13.15 0.00016
13.2 0.00017
13.25 0.00023
13.3 0.00034
13.35 0.00038
13.4 0.00035
13.45 0.00029
13.5 0.00014
13.55 0.00001
13.6 -0.00012
13.65 -0.00027
13.7 -0.00027
13.75 -0.00024
13.8 -0.0002
13.85 -0.00021
13.9 -0.00023
13.95 -0.00021
14 -0.0001
14.05 -0.00008
14.1 -0.00002
14.15 -0.00007
14.2 -0.00016
14.25 -0.00025
14.3 -0.00032
14.35 -0.00038
14.4 -0.00037
14.45 -0.00027
14.5 -0.00027
14.55 -0.00024
14.6 -0.00012
14.65 0.00004
14.7 0.00019
14.75 0.00022
14.8 0.00017
14.85 0.0002
14.9 0.00012
14.95 -0
15 -0.00002
15.05 -0.0001
15.1 -0.00011
15.15 -0.00003
15.2 0.00009
15.25 0.00019
15.3 0.00018
15.35 0.00012
15.4 0.00009
15.45 0.0001
15.5 0.00015
15.55 0.00013
15.6 0.00005
15.65 0
15.7 -0.00001
15.75 -0.00005
15.8 -0.00006
15.85 0.00001
15.9 0.00005
15.95 0.00011
16 0.00008
16.05 0.00009
16.1 -0.00001
16.15 -0.00014
16.2 -0.00015
16.25 -0.00011
16.3 -0.00012
16.35 -0.0001
16.4 -0.00016
16.45 -0.00017
16.5 -0.00013
16.55 -0.00005
16.6 0.00006
16.65 0.00011
16.7 0.00013
16.75 0.00015
16.8 0.00019
16.85 0.00013
16.9 -0.00001
16.95 -0.00006
17 -0.00002
17.05 -0
17.1 -0.00007
17.15 -0.00014
17.2 -0.00017
17.25 -0.00012
17.3 -0.00002
17.35 0.00002
17.4 0.00011
17.45 0.00011
17.5 0.00001
17.55 -0.00007
17.6 -0.00015
17.65 -0.00027
17.7 -0.0003
17.75 -0.00027
17.8 -0.0002
17.85 -0.00008
17.9 0.00008
17.95 0.0002
18 0.00029
18.05 0.00034
18.1 0.00028
18.15 0.00014
18.2 -0.00002
18.25 -0.00016
18.3 -0.00021
18.35 -0.00016
18.4 -0.00014
18.45 -0.00015
18.5 -0.00015
18.55 -0.00023
18.6 -0.00026
18.65 -0.00027
18.7 -0.00022
18.75 -0.00011
18.8 -0.00003
18.85 -0.00002
18.9 0.00004
18.95 0.00006
19 0.00008
19.05 0.00018
19.1 0.00023
19.15 0.00018
19.2 0.0002
19.25 0.00014
19.3 0.00015
19.35 0.00021
19.4 0.00024
19.45 0.0003
19.5 0.0003
19.55 0.00031
19.6 0.00033
19.65 0.00029
19.7 0.0003
19.75 0.00021
19.8 0.00012
19.85 0.00007
19.9 -0.00005
19.95 -0.00012
20 -0.00007
20.05 0.00001
20.1 0.00006
20.15 -0
20.2 0.00003
20.25 0.00009
20.3 0.0001
20.35 0.00005
20.4 0.00007
20.45 0.00003
20.5 -0.00003
20.55 -0.00001
20.6 -0.00008
20.65 -0.00004
20.7 -0.00003
20.75 -0.00003
20.8 -0.00008
20.85 -0.00019
20.9 -0.00024
20.95 -0.00031
21 -0.00038
21.05 -0.00039
21.1 -0.0004
21.15 -0.0004
21.2 -0.00043
21.25 -0.0004
21.3 -0.00044
21.35 -0.00039
21.4 -0.00038
21.45 -0.00036
21.5 -0.00028
21.55 -0.00012
21.6 0.00003
21.65 0.00014
21.7 0.00016
21.75 0.00025
21.8 0.00023
21.85 0.00011
21.9 0.00001
21.95 -0.00009
22 -0.00013
22.05 -0.00018
22.1 -0.00025
22.15 -0.00025
22.2 -0.00017
22.25 -0.00011
22.3 -0.00015
22.35 -0.00017
22.4 -0.00012
22.45 -0.00003
22.5 0.00007
22.55 0.0002
22.6 0.00033
22.65 0.00046
22.7 0.00043
22.75 0.00046
22.8 0.00046
22.85 0.0005
22.9 0.00051
22.95 0.00048
23 0.00037
23.05 0.00027
23.1 0.00011
23.15 0.00005
23.2 -0.00002
23.25 -0.00002
23.3 -0.00012
23.35 -0.00021
23.4 -0.00023
23.45 -0.00018
23.5 -0.00004
23.55 -0.00002
23.6 -0.00001
23.65 0.00006
23.7 0.00012
23.75 0.00006
23.8 -0.00003
23.85 -0.00013
23.9 -0.0001
23.95 -0.00003
24 0
24.05 0.00008
24.1 0.00019
24.15 0.00018
24.2 0.00023
24.25 0.00015
24.3 0.00014
24.35 0.00011
24.4 0.00014
24.45 0.00017
24.5 0.00027
24.55 0.00033
24.6 0.00026
24.65 0.00013
24.7 0.00005
24.75 -0.0001
24.8 -0.00012
24.85 -0.00014
24.9 -0.00007
24.95 -0
25 -0.00005
25.05 -0.00012
25.1 -0.00009
25.15 -0.00014
25.2 -0.00007
25.25 0.00004
25.3 0.00008
25.35 0.00005
25.4 -0.00004
25.45 -0.00016
25.5 -0.00025
25.55 -0.00028
25.6 -0.00027
25.65 -0.0002
25.7 -0.00019
25.75 -0.00009
25.8 -0.00011
25.85 -0.00009
25.9 -0
25.95 0.00009
26 0.00022
26.05 0.00027
26.1 0.0002
26.15 0.0001
26.2 0.00009
26.25 0.0001
26.3 0.00012
26.35 0.00008
26.4 0.00002
26.45 -0.00012
26.5 -0.00026
26.55 -0.00025
26.6 -0.0003
26.65 -0.00029
26.7 -0.00025
26.75 -0.00023
26.8 -0.00011
26.85 -0.00012
26.9 -0.00009
26.95 -0
27 -0.00003
27.05 -0.00005
27.1 0.00002
27.15 0
27.2 -0.00007
27.25 -0.00006
27.3 0.00003
27.35 0.00003
27.4 0.00011
27.45 0.00018
27.5 0.0002
27.55 0.00028
27.6 0.00021
27.65 0.00013
27.7 0.00007
27.75 0.00006
27.8 0.00001
27.85 -0.00004
27.9 -0.00012
27.95 -0.00018
28 -0.00028
28.05 -0.00034
28.1 -0.00036
28.15 -0.00026
28.2 -0.0002
28.25 -0.00012
28.3 -0.00014
28.35 -0.00021
28.4 -0.00029
28.45 -0.00026
28.5 -0.00018
28.55 -0.00004
28.6 0.00009
28.65 0.00025
28.7 0.00035
28.75 0.0003
28.8 0.0002
28.85 0.00006
28.9 0.00005
28.95 0.00008
29 0.0001
29.05 0.00008
29.1 0.00001
29.15 0.00004
29.2 0.00006
29.25 0.00012
29.3 0.00007
29.35 -0.00006
29.4 -0.00006
29.45 -0.00011
29.5 -0.00014
29.55 -0.0001
29.6 -0.00005
29.65 0.00007
29.7 0.00005
29.75 0.00007
29.8 0.00005
29.85 0.00001
29.9 0
29.95 0.00007
30 0.00019
30.05 0.0003
30.1 0.00025
30.15 0.0002
30.2 0.00008
30.25 -0.00009
30.3 -0.00028
30.35 -0.00042
30.4 -0.00046
30.45 -0.00051
30.5 -0.00054
30.55 -0.0005
30.6 -0.00046
30.65 -0.00035
30.7 -0.00027
30.75 -0.00029
30.8 -0.00034
30.85 -0.00035
30.9 -0.00024
30.95 -0.00018
31 -0.00006
31.05 -0.00003
31.1 -0.00004
31.15 -0.0001
31.2 -0.00006
31.25 -0.00004
31.3 -0.0001
31.35 -0.00015
31.4 -0.00008
31.45 0.00001
31.5 0.00001
31.55 -0.00008
31.6 -0.00021
31.65 -0.00033
31.7 -0.0003
31.75 -0.00027
31.8 -0.00019
31.85 -0.00013
31.9 -0.00015
31.95 -0.0001
32 -0.0001
32.05 -0.00003
32.1 0.00005
32.15 0.00005
32.2 0.00012
32.25 0.00011
32.3 0.00001
32.35 -0.00012
32.4 -0.00013
32.45 -0.00012
32.5 -0.00019
32.55 -0.00011
32.6 -0.00013
32.65 -0.00013
32.7 -0.00017
32.75 -0.0002
32.8 -0.00014
32.85 -0.00018
32.9 -0.0001
32.95 0.00002
33 0
33.05 0.00002
33.1 0.00007
33.15 0.00008
33.2 0.00001
33.25 0.00005
33.3 -0.00002
33.35 -0.00014
33.4 -0.00016
33.45 -0.00017
33.5 -0.00019
33.55 -0.00026
33.6 -0.00027
33.65 -0.00017
33.7 -0.0001
33.75 -0.00013
33.8 -0.00004
33.85 -0.00005
33.9 -0.00002
33.95 -0.00009
34 -0.00004
34.05 0.00007
34.1 0.00007
34.15 -0.00001
34.2 -0.00009
34.25 -0.0002
34.3 -0.00025
34.35 -0.00029
34.4 -0.00037
34.45 -0.00029
34.5 -0.00026
34.55 -0.00023
34.6 -0.00009
34.65 -0.00001
34.7 0.00011
34.75 0.00023
34.8 0.00029
34.85 0.00033
34.9 0.00026
34.95 0.00021
35 0.00025
35.05 0.00035
35.1 0.00035
35.15 0.00026
35.2 0.0001
35.25 0.00007
35.3 -0
35.35 -0.00005
35.4 -0.00006
35.45 0
35.5 -0.00002
35.55 -0.00007
35.6 -0.00014
35.65 -0.0002
35.7 -0.00016
35.75 -0.00012
35.8 -0.00011
35.85 -0.00002
35.9 0.00014
35.95 0.00021
36 0.00023
36.05 0.00033
36.1 0.00041
36.15 0.00039
36.2 0.0003
36.25 0.00013
36.3 0.00004
36.35 0.00004
36.4 0.00007
36.45 0.00007
36.5 0.00009
36.55 0.00008
36.6 0.00003
36.65 -0.00013
36.7 -0.00028
36.75 -0.00039
36.8 -0.00041
36.85 -0.0004
36.9 -0.0004
36.95 -0.00059
37 -0.00089
37.05 -0.00116
37.1 -0.00147
37.15 -0.00187
37.2 -0.00232
37.25 -0.00274
37.3 -0.00325
37.35 -0.00371
37.4 -0.00424
37.45 -0.00476
37.5 -0.00545
37.55 -0.00622
37.6 -0.00714
37.65 -0.00807
37.7 -0.00908
37.75 -0.01012
37.8 -0.01133
37.85 -0.01265
37.9 -0.01413
37.95 -0.0156
38 -0.01711
38.05 -0.01864
38.1 -0.02019
38.15 -0.02179
38.2 -0.02344
38.25 -0.0251
38.3 -0.02692
38.35 -0.02867
38.4 -0.03028
38.45 -0.03174
38.5 -0.03314
38.55 -0.03448
38.6 -0.03562
38.65 -0.03663
38.7 -0.03746
38.75 -0.038
38.8 -0.03838
38.85 -0.03846
38.9 -0.03832
38.95 -0.03782
39 -0.03721
39.05 -0.03632
39.1 -0.03519
39.15 -0.03395
39.2 -0.03261
39.25 -0.03122
39.3 -0.02972
39.35 -0.02833
39.4 -0.02692
39.45 -0.02549
39.5 -0.02415
39.55 -0.02295
39.6 -0.0219
39.65 -0.02103
39.7 -0.02027
39.75 -0.01977
39.8 -0.01932
39.85 -0.01903
39.9 -0.01884
39.95 -0.01872
40 -0.01873
40.05 -0.01875
40.1 -0.01869
40.15 -0.01865
40.2 -0.01853
40.25 -0.01818
40.3 -0.01771
40.35 -0.01708
40.4 -0.01613
40.45 -0.01486
40.5 -0.01336
40.55 -0.0117
40.6 -0.00982
40.65 -0.00764
40.7 -0.00517
40.75 -0.00257
40.8 0.00014
40.85 0.00305
40.9 0.00609
40.95 0.00925
41 0.01241
41.05 0.01557
41.1 0.01863
41.15 0.02178
41.2 0.02476
41.25 0.02769
41.3 0.03036
41.35 0.03296
41.4 0.03533
41.45 0.03747
41.5 0.03939
41.55 0.04101
41.6 0.04247
41.65 0.04356
41.7 0.04448
41.75 0.04512
41.8 0.04564
41.85 0.04586
41.9 0.04589
41.95 0.04591
42 0.04583
42.05 0.04562
42.1 0.0453
42.15 0.04495
42.2 0.04437
42.25 0.04375
42.3 0.0431
42.35 0.04239
42.4 0.04173
42.45 0.04112
42.5 0.04051
42.55 0.03978
42.6 0.03911
42.65 0.03843
42.7 0.03767
42.75 0.03683
42.8 0.0361
42.85 0.03535
42.9 0.03454
42.95 0.03375
43 0.03307
43.05 0.03239
43.1 0.03178
43.15 0.03107
43.2 0.03035
43.25 0.02959
43.3 0.02882
43.35 0.02802
43.4 0.02732
43.45 0.02666
43.5 0.02604
43.55 0.02528
43.6 0.0244
43.65 0.02363
43.7 0.0229
43.75 0.02214
43.8 0.02125
43.85 0.02043
43.9 0.01964
43.95 0.01884
44 0.01794
44.05 0.01714
44.1 0.01634
44.15 0.01556
44.2 0.01474
44.25 0.01394
44.3 0.01308
44.35 0.01217
44.4 0.0113
44.45 0.0105
44.5 0.00972
44.55 0.0089
44.6 0.00809
44.65 0.00736
44.7 0.00668
44.75 0.00608
44.8 0.00544
44.85 0.00481
44.9 0.00414
44.95 0.00364
45 0.00313
45.05 0.00256
45.1 0.00201
45.15 0.00143
45.2 0.00089
45.25 0.00036
45.3 -0.00018
45.35 -0.00069
45.4 -0.00116
45.45 -0.00153
45.5 -0.00184
45.55 -0.00216
45.6 -0.0025
45.65 -0.00285
45.7 -0.00304
45.75 -0.00318
45.8 -0.00332
45.85 -0.00359
45.9 -0.00389
45.95 -0.00416
46 -0.00447
46.05 -0.00482
46.1 -0.00503
46.15 -0.00514
46.2 -0.00534
46.25 -0.00558
46.3 -0.00575
46.35 -0.00592
46.4 -0.00603
46.45 -0.00621
46.5 -0.00643
46.55 -0.00658
46.6 -0.00661
46.65 -0.0067
46.7 -0.00684
46.75 -0.00698
46.8 -0.00712
46.85 -0.00715
46.9 -0.00719
46.95 -0.0072
47 -0.00723
47.05 -0.0072
47.1 -0.0071
47.15 -0.00704
47.2 -0.00706
47.25 -0.00705
47.3 -0.00711
47.35 -0.00708
47.4 -0.00707
47.45 -0.00706
47.5 -0.00704
47.55 -0.00701
47.6 -0.007
47.65 -0.00709
47.7 -0.0071
47.75 -0.00712
47.8 -0.0072
47.85 -0.00729
47.9 -0.00734
47.95 -0.00724
48 -0.00713
48.05 -0.00707
48.1 -0.00698
48.15 -0.00689
48.2 -0.00679
48.25 -0.00673
48.3 -0.00671
48.35 -0.00659
48.4 -0.00641
48.45 -0.00617
48.5 -0.00593
48.55 -0.00572
48.6 -0.0055
48.65 -0.00534
48.7 -0.00524
48.75 -0.00519
48.8 -0.00519
48.85 -0.00527
48.9 -0.00525
48.95 -0.00521
49 -0.00516
49.05 -0.0051
49.1 -0.00502
49.15 -0.00498
49.2 -0.0049
49.25 -0.00482
49.3 -0.00474
49.35 -0.00463
49.4 -0.00449
49.45 -0.00448
49.5 -0.00452
49.55 -0.00454
49.6 -0.00447
49.65 -0.00443
49.7 -0.00429
49.75 -0.00423
49.8 -0.00416
49.85 -0.00416
49.9 -0.00422
49.95 -0.0042
50 -0.00415
50.05 -0.00416
50.1 -0.00418
50.15 -0.00408
50.2 -0.00393
50.25 -0.00383
50.3 -0.00374
50.35 -0.00365
50.4 -0.00354
50.45 -0.00354
50.5 -0.00351
50.55 -0.00342
50.6 -0.00325
50.65 -0.00318
50.7 -0.00322
50.75 -0.00327
50.8 -0.00321
50.85 -0.00324
50.9 -0.00332
50.95 -0.00325
51 -0.00317
51.05 -0.00309
51.1 -0.00308
51.15 -0.00309
51.2 -0.00312
51.25 -0.00319
51.3 -0.00318
51.35 -0.00318
51.4 -0.00318
51.45 -0.00305
51.5 -0.00288
51.55 -0.00279
51.6 -0.00277
51.65 -0.00269
51.7 -0.00261
51.75 -0.0026
51.8 -0.0025
51.85 -0.0024
51.9 -0.00223
51.95 -0.00219
52 -0.00211
52.05 -0.00201
52.1 -0.00197
52.15 -0.002
52.2 -0.00194
52.25 -0.00182
52.3 -0.00168
52.35 -0.00152
52.4 -0.00139
52.45 -0.00126
52.5 -0.00128
52.55 -0.00133
52.6 -0.00148
52.65 -0.00151
52.7 -0.00154
52.75 -0.00148
52.8 -0.00135
52.85 -0.00134
52.9 -0.00129
52.95 -0.00126
53 -0.0012
53.05 -0.00111
53.1 -0.00115
53.15 -0.00122
53.2 -0.00124
53.25 -0.00129
53.3 -0.00142
53.35 -0.00145
53.4 -0.00151
53.45 -0.00162
53.5 -0.00175
53.55 -0.00185
53.6 -0.00178
53.65 -0.00161
53.7 -0.00144
53.75 -0.00128
53.8 -0.00126
53.85 -0.00125
53.9 -0.0012
53.95 -0.0012
54 -0.00114
54.05 -0.00114
54.1 -0.00112
54.15 -0.00104
54.2 -0.00099
54.25 -0.00097
54.3 -0.00104
54.35 -0.00105
54.4 -0.00098
54.45 -0.001
54.5 -0.00103
54.55 -0.00109
54.6 -0.00119
54.65 -0.00119
54.7 -0.00124
54.75 -0.00117
54.8 -0.00101
54.85 -0.00085
54.9 -0.00077
54.95 -0.00065
55 -0.00057
55.05 -0.00055
55.1 -0.00057
55.15 -0.00065
55.2 -0.0007
55.25 -0.00076
55.3 -0.00076
55.35 -0.00067
55.4 -0.00055
55.45 -0.00048
55.5 -0.00052
55.55 -0.00056
55.6 -0.00066
55.65 -0.00076
55.7 -0.00087
55.75 -0.00098
55.8 -0.001
55.85 -0.00101
55.9 -0.001
55.95 -0.00089
56 -0.00074
56.05 -0.00062
56.1 -0.00049
56.15 -0.00038
56.2 -0.00038
56.25 -0.00032
56.3 -0.00031
56.35 -0.0003
56.4 -0.00036
56.45 -0.00038
56.5 -0.00044
56.55 -0.00047
56.6 -0.00047
56.65 -0.00047
56.7 -0.00052
56.75 -0.00046
56.8 -0.00049
56.85 -0.00059
56.9 -0.0006
56.95 -0.00059
57 -0.00056
57.05 -0.00054
57.1 -0.00052
57.15 -0.00049
57.2 -0.00042
57.25 -0.00046
57.3 -0.00049
57.35 -0.00052
57.4 -0.00055
57.45 -0.00055
57.5 -0.00049
57.55 -0.00034
57.6 -0.00021
57.65 -0.00005
57.7 0.00001
57.75 -0.00006
57.8 -0.00011
57.85 -0.0002
57.9 -0.00018
57.95 -0.00012
58 -0.00003
58.05 0.00003
58.1 -0.00003
58.15 -0.00004
58.2 -0.00009
58.25 -0.00008
58.3 -0.00007
58.35 -0.00016
58.4 -0.00029
58.45 -0.00029
58.5 -0.00025
58.55 -0.00021
58.6 -0.00013
58.65 -0.00007
58.7 -0.00006
58.75 0
58.8 -0.00007
58.85 -0.00016
58.9 -0.00028
58.95 -0.00028
59 -0.00022
59.05 -0.00014
59.1 -0.0002
59.15 -0.00032
59.2 -0.00039
59.25 -0.00038
59.3 -0.00044
59.35 -0.00051
59.4 -0.00056
59.45 -0.00051
59.5 -0.00042
59.55 -0.00026
59.6 -0.00008
59.65 0.00001
59.7 0.00008
59.75 0.00012
59.8 0.00012
59.85 0.0001
59.9 0.00009
59.95 0.00007
60 -0.00004
60.05 -0.00006
60.1 -0.00012
60.15 -0.0001
60.2 -0.00006
60.25 -0.00015
60.3 -0.00016
60.35 -0.00014
60.4 -0.00009
60.45 -0.00014
60.5 -0.0001
60.55 -0.00016
60.6 -0.00024
60.65 -0.00023
60.7 -0.00014
60.75 -0.00012
60.8 -0.00009
60.85 -0.00013
60.9 -0.00024
60.95 -0.00034
61 -0.00047
61.05 -0.0006
61.1 -0.00065
61.15 -0.00071
61.2 -0.00068
61.25 -0.0006
61.3 -0.0005
61.35 -0.00039
61.4 -0.00022
61.45 -0.00018
61.5 -0.00006
61.55 0.00002
61.6 0.00004
61.65 0.0001
61.7 0.00009
61.75 0.00011
61.8 0.00013
61.85 0.00007
61.9 0.0001
61.95 0.00004
62 -0.00002
62.05 -0.00014
62.1 -0.00016
62.15 -0.00017
62.2 -0.00027
62.25 -0.00035
62.3 -0.00029
62.35 -0.00018
62.4 -0.00019
62.45 -0.00013
62.5 -0.00002
62.55 -0.00003
62.6 0
62.65 -0
62.7 0.00002
62.75 0.00012
62.8 0.00013
62.85 0.00015
62.9 0.00021
62.95 0.00015
63 0.00016
63.05 0.00007
63.1 -0.00004
63.15 -0.00008
63.2 -0.00015
63.25 -0.00023
63.3 -0.00024
63.35 -0.0002
63.4 -0.00011
63.45 -0.00006
63.5 0.00002
63.55 -0.00003
63.6 -0.00007
63.65 -0.00017
63.7 -0.00022
63.75 -0.00019
63.8 -0.00019
63.85 -0.00017
63.9 -0.00019
63.95 -0.00011
64 -0.00011
64.05 -0.00004
64.1 0.00007
64.15 0.00019
64.2 0.0002
64.25 0.0001
64.3 0.00003
64.35 0.00006
64.4 -0.00001
64.45 -0.00016
64.5 -0.00031
64.55 -0.00035
64.6 -0.00036
64.65 -0.00039
64.7 -0.00032
64.75 -0.00021
64.8 -0.00023
64.85 -0.00027
64.9 -0.00034
64.95 -0.0003
65 -0.00033
65.05 -0.00027
65.1 -0.0002
65.15 -0.00019
65.2 -0.00009
65.25 0.00002
65.3 0.00004
65.35 0.00002
65.4 -0.00006
65.45 -0.00004
65.5 0.00005
65.55 0.00001
65.6 -0.00002
65.65 0.00005
65.7 0.00003
65.75 0.00001
65.8 -0.00006
65.85 -0.00014
65.9 -0.00008
65.95 -0.00001
66 0.00008
66.05 0.00016
66.1 0.00023
66.15 0.00023
66.2 0.00024
66.25 0.0003
66.3 0.00029
66.35 0.00018
66.4 0.00003
66.45 -0.00002
66.5 0.00001
66.55 -0.00004
66.6 -0.00015
66.65 -0.0003
66.7 -0.00034
66.75 -0.00036
66.8 -0.00034
66.85 -0.00026
66.9 -0.00022
66.95 -0.00025
67 -0.00024
67.05 -0.00016
67.1 -0.00018
67.15 -0.00016
67.2 -0.00015
67.25 -0.00007
67.3 -0.00009
67.35 -0.00012
67.4 -0.00006
67.45 -0.00009
67.5 -0.00003
67.55 0.00006
67.6 0.00013
67.65 0.0001
67.7 0.00015
67.75 0.00022
67.8 0.00015
67.85 0.00002
67.9 -0.00012
67.95 -0.00027
68 -0.00029
68.05 -0.00032
68.1 -0.00025
68.15 -0.00023
68.2 -0.00026
68.25 -0.00028
68.3 -0.00021
68.35 -0.00014
68.4 -0
68.45 0.0001
68.5 0.00022
68.55 0.00026
68.6 0.00029
68.65 0.00035
68.7 0.00036
68.75 0.00038
68.8 0.00043
68.85 0.00049
68.9 0.00048
68.95 0.00035
69 0.00015
69.05 -0.00008
69.1 -0.00019
69.15 -0.00023
69.2 -0.0002
69.25 -0.00012
69.3 -0.00001
69.35 -0.00001
69.4 -0.00001
69.45 0.00005
69.5 0.00014
69.55 0.0001
69.6 0.00008
69.65 -0
69.7 -0.00004
69.75 0.00002
69.8 -0.00003
69.85 -0.00005
69.9 0.00001
69.95 -0.00003
70 -0.00005
70.05 -0.00012
70.1 -0.00024
70.15 -0.00039
70.2 -0.00054
70.25 -0.00061
70.3 -0.00055
70.35 -0.00052
70.4 -0.00037
70.45 -0.00032
70.5 -0.00031
70.55 -0.00019
70.6 -0.00013
70.65 -0.00011
70.7 -0.00013
70.75 -0.00011
70.8 0
70.85 0.0001
70.9 0.0002
70.95 0.00026
71 0.00034
71.05 0.00028
71.1 0.00027
71.15 0.0003
71.2 0.00034
71.25 0.00034
71.3 0.00027
71.35 0.00011
71.4 -0.0001
71.45 -0.00026
71.5 -0.00034
71.55 -0.00034
71.6 -0.00034
71.65 -0.00025
71.7 -0.00015
71.75 -0.00016
71.8 -0.0001
71.85 0.00004
71.9 0.0002
71.95 0.00031
72 0.00033
72.05 0.00024
72.1 0.00019
72.15 0.00007
72.2 0.00007
72.25 0.0001
72.3 0.00018
72.35 0.00025
72.4 0.00024
72.45 0.00025
72.5 0.00014
72.55 -0.00002
72.6 -0.00018
72.65 -0.00027
72.7 -0.00025
72.75 -0.00027
72.8 -0.00031
72.85 -0.00028
72.9 -0.00016
72.95 -0.00002
73 0.00002
73.05 0.00008
73.1 0.00016
73.15 0.00026
73.2 0.00026
73.25 0.00028
73.3 0.00018
73.35 0.00004
73.4 -0.00006
73.45 -0.00011
73.5 -0.00009
73.55 -0.00009
73.6 -0.00017
73.65 -0.00016
73.7 -0.00009
73.75 -0.00009
73.8 -0.0001
73.85 -0.00004
73.9 0.00001
73.95 0.00009
74 0.00021
74.05 0.00024
74.1 0.00016
74.15 0.00007
74.2 0.00009
74.25 0.00015
74.3 0.00019
74.35 0.00024
74.4 0.00022
74.45 0.00024
74.5 0.00015
74.55 0.0001
74.6 0.00001
74.65 -0.00008
74.7 -0.0002
74.75 -0.00022
74.8 -0.00013
74.85 0.00002
74.9 0.00014
74.95 0.00011
75 0.00013
75.05 0.00009
75.1 0.00009
75.15 -0.00001
75.2 -0.00003
75.25 -0
75.3 -0.00008
75.35 -0.0002
75.4 -0.00031
75.45 -0.00038
75.5 -0.0004
75.55 -0.00047
75.6 -0.00042
75.65 -0.00028
75.7 -0.00017
75.75 -0.00013
75.8 -0.00008
75.85 -0.00012
75.9 -0.00023
75.95 -0.00035
76 -0.00037
76.05 -0.00036
76.1 -0.00039
76.15 -0.00043
76.2 -0.0005
76.25 -0.00053
76.3 -0.0005
76.35 -0.00044
76.4 -0.00026
76.45 -0.00006
76.5 0.00014
76.55 0.00017
76.6 0.00026
76.65 0.0003
76.7 0.00033
76.75 0.0003
76.8 0.00023
76.85 0.00012
76.9 -0.00004
76.95 -0.00009
77 -0.0002
77.05 -0.0003
77.1 -0.0004
77.15 -0.00036
77.2 -0.00023
77.25 -0.00015
77.3 -0.00016
77.35 -0.00024
77.4 -0.00018
77.45 -0.00005
77.5 0.00002
77.55 0.00001
77.6 -0.00001
77.65 0.00004
77.7 -0.00002
77.75 -0.0001
77.8 -0.00005
77.85 -0.00002
77.9 0.00007
77.95 0.00005
78 -0.00002
78.05 -0.00002
78.1 0.00003
78.15 0.00003
78.2 0.0001
78.25 0.00013
78.3 0.00017
78.35 0.00009
78.4 -0.00002
78.45 -0.00008
78.5 -0.00005
78.55 0.00004
78.6 0.00006
78.65 0.00002
78.7 0.00009
78.75 0.00007
78.8 -0.00004
78.85 -0.00002
78.9 0.00005
78.95 0.00008
79 0.00003
79.05 0
79.1 0.00001
79.15 0.00003
79.2 0.00007
79.25 0.00019
79.3 0.00032
79.35 0.0003
79.4 0.0002
79.45 0.00022
79.5 0.00022
79.55 0.00017
79.6 0.00005
79.65 -0.00011
79.7 -0.00016
79.75 -0.00011
79.8 -0.00014
79.85 -0.00016
79.9 -0.00014
79.95 -0.00006
80 -0.00003
80.05 -0.00008
80.1 -0.00014
80.15 -0.00009
80.2 -0.00005
80.25 -0.00003
80.3 0.00005
80.35 0.0001
80.4 0.0001
80.45 0.00001
80.5 -0.00001
80.55 -0.00002
80.6 0.00003
80.65 0.00009
80.7 0.00018
80.75 0.00021
80.8 0.00021
80.85 0.00012
80.9 0.00013
80.95 0.00012
81 0.00001
81.05 -0.00005
81.1 -0.00002
81.15 -0.00004
81.2 0.00002
81.25 -0.00001
81.3 -0.00002
81.35 -0.00011
81.4 -0.00017
81.45 -0.00012
81.5 -0.00002
81.55 -0.00004
81.6 -0.00001
81.65 -0.00004
81.7 0.00003
81.75 0.00001
81.8 -0.00002
81.85 -0.00006
81.9 -0.00005
81.95 -0.00002
82 -0.00009
82.05 -0.00019
82.1 -0.00017
82.15 -0.00013
82.2 -0.00009
82.25 -0.0001
82.3 -0.00016
82.35 -0.00023
82.4 -0.00032
82.45 -0.0003
82.5 -0.00034
82.55 -0.00041
82.6 -0.00045
82.65 -0.00047
82.7 -0.00048
82.75 -0.00041
82.8 -0.00027
82.85 -0.00008
82.9 0.00009
82.95 0.00018
83 0.00023
83.05 0.00024
83.1 0.00019
83.15 0.00023
83.2 0.00033
83.25 0.00032
83.3 0.00025
83.35 0.00014
83.4 0.00013
83.45 0.00011
83.5 0.00003
83.55 -0
83.6 -0.00011
83.65 -0.00015
83.7 -0.00015
83.75 -0.0001
83.8 0.00002
83.85 0.00004
83.9 0.00002
83.95 0.00005
84 0.00016
84.05 0.00028
84.1 0.00026
84.15 0.00016
84.2 0.00001
84.25 -0.00003
84.3 -0.00012
84.35 -0.00012
84.4 -0.00008
84.45 -0.00004
84.5 0.00002
84.55 0.00006
84.6 0.00009
84.65 0.00006
84.7 0.00007
84.75 0
84.8 0.00005
84.85 0.00008
84.9 0.00009
84.95 0.00004
85 0.00007
85.05 -0.00001
85.1 -0.00001
85.15 0.00006
85.2 0.00004
85.25 0.00007
85.3 0.00011
85.35 0.00004
85.4 -0
85.45 0.00006
85.5 0.00008
85.55 0.00015
85.6 0.00019
85.65 0.00013
85.7 0.00012
85.75 0.0001
85.8 0
85.85 -0.00011
85.9 -0.00008
85.95 -0.00007
86 -0.00008
86.05 -0.00008
86.1 -0.00006
86.15 -0.00011
86.2 -0.0001
86.25 -0.0001
86.3 -0.00017
86.35 -0.00023
86.4 -0.00028
86.45 -0.00032
86.5 -0.00026
86.55 -0.00024
86.6 -0.00013
86.65 -0.00009
86.7 -0.0001
86.75 -0.00001
86.8 0.00012
86.85 0.00017
86.9 0.00021
86.95 0.00032
87 0.00041
87.05 0.00038
87.1 0.00036
87.15 0.00042
87.2 0.00037
87.25 0.0004
87.3 0.00033
87.35 0.00025
87.4 0.00008
87.45 -0.00011
87.5 -0.00024
87.55 -0.00026
87.6 -0.00031
87.65 -0.00042
87.7 -0.00052
87.75 -0.00047
87.8 -0.00041
87.85 -0.00039
87.9 -0.00039
87.95 -0.0004
88 -0.00028
88.05 -0.00015
88.1 -0.00003
88.15 0.00013
88.2 0.00021
88.25 0.00028
88.3 0.00036
88.35 0.00036
88.4 0.00029
88.45 0.00018
88.5 0.00018
88.55 0.00011
88.6 0
88.65 -0.00016
88.7 -0.0002
88.75 -0.00016
88.8 -0.00012
88.85 -0.0001
88.9 -0.00012
88.95 -0.00012
89 -0.00018
89.05 -0.00011
89.1 0.00001
89.15 -0.00001
89.2 0.00002
89.25 0.00012
89.3 0.00016
89.35 0.00021
89.4 0.00017
89.45 0.00018
89.5 0.00014
89.55 0.00018
89.6 0.0002
89.65 0.00014
89.7 0.00003
89.75 0.00003
89.8 0.0001
89.85 0.00011
89.9 0.00008
89.95 -0.00001
90 -0.00007
90.05 -0.00014
90.1 -0.0001
90.15 -0.00002
90.2 0.00004
90.25 0.00011
90.3 0.00007
90.35 0.00012
90.4 0.00021
90.45 0.0003
90.5 0.00024
90.55 0.00019
90.6 0.00017
90.65 0.00009
90.7 -0.00002
90.75 -0.00003
90.8 0.00001
90.85 0.00011
90.9 0.00012
90.95 0.00005
91 -0.00004
91.05 -0.00012
91.1 -0.0002
91.15 -0.00032
91.2 -0.00035
91.25 -0.00033
91.3 -0.00019
91.35 -0.00001
91.4 0.0001
91.45 0.00009
91.5 0.00003
91.55 0.00001
91.6 0
91.65 -0.00005
91.7 -0.00007
91.75 -0
91.8 -0.00003
91.85 -0.00002
91.9 0.00007
91.95 0.00003
92 -0.00008
92.05 -0.00019
92.1 -0.00018
92.15 -0.00015
92.2 -0.00014
92.25 -0.0001
92.3 -0.0001
92.35 -0.00014
92.4 -0.00009
92.45 0.00004
92.5 0.00009
92.55 0.00007
92.6 0.00015
92.65 0.00023
92.7 0.00021
92.75 0.00019
92.8 0.00008
92.85 -0.00004
92.9 -0.00007
92.95 0.00002
93 0.00011
93.05 0.00012
93.1 0.00017
93.15 0.00024
93.2 0.00035
93.25 0.00037
93.3 0.00043
93.35 0.00047
93.4 0.00042
93.45 0.0004
93.5 0.00038
93.55 0.00026
93.6 0.00017
93.65 0.00003
93.7 -0.00005
93.75 -0.00003
93.8 -0.00008
93.85 -0.00002
93.9 -0.00008
93.95 -0.00002
94 -0.00004
94.05 -0.00014
94.1 -0.00026
94.15 -0.00036
94.2 -0.00047
94.25 -0.00043
94.3 -0.00041
94.35 -0.00027
94.4 -0.00022
94.45 -0.00009
94.5 0.00002
94.55 0.00017
94.6 0.00027
94.65 0.00027
94.7 0.00027
94.75 0.00023
94.8 0.00011
94.85 -0.00002
94.9 -0.00012
94.95 -0.00016
95 -0.00015
95.05 -0.00013
95.1 -0.00004
95.15 -0.00002
95.2 -0.00001
95.25 -0.00003
95.3 0.00004
95.35 -0
95.4 -0.00007
95.45 -0.00017
95.5 -0.00025
95.55 -0.00022
95.6 -0.00022
95.65 -0.00014
95.7 -0.00002
95.75 0.00001
95.8 0.00001
95.85 0.00006
95.9 0.00008
95.95 0.00007
96 0.00009
96.05 0.00017
96.1 0.00018
96.15 0.00025
96.2 0.00021
96.25 0.00008
96.3 -0.00002
96.35 -0.00005
96.4 -0.00009
96.45 -0.00019
96.5 -0.00022
96.55 -0.0003
96.6 -0.00027
96.65 -0.00032
96.7 -0.00026
96.75 -0.00022
96.8 -0.00016
96.85 -0.00017
96.9 -0.00015
96.95 -0.00013
97 -0.0001
97.05 -0.00013
97.1 -0.00007
97.15 0.00004
97.2 0.00014
97.25 0.0002
97.3 0.00015
97.35 0.00017
97.4 0.00024
97.45 0.00032
97.5 0.00027
97.55 0.00024
97.6 0.00025
97.65 0.0002
97.7 0.00012
97.75 0
97.8 -0.00005
97.85 -0.00001
97.9 -0.00001
97.95 0.00002
98 0.00012
98.05 0.00018
98.1 0.00012
98.15 0.00014
98.2 0.00019
98.25 0.00013
98.3 0.00016
98.35 0.00025
98.4 0.00027
98.45 0.00031
98.5 0.00022
98.55 0.00013
98.6 0.00008
98.65 0.00008
98.7 0.00002
98.75 -0.00012
98.8 -0.00015
98.85 -0.00022
98.9 -0.00031
98.95 -0.00045
99 -0.00052
99.05 -0.00062
99.1 -0.00056
99.15 -0.00048
99.2 -0.00032
99.25 -0.00012
99.3 -0.00007
99.35 -0.00008
99.4 -0.00012
99.45 -0.0002
99.5 -0.00031
99.55 -0.00029
99.6 -0.00024
99.65 -0.00016
99.7 -0.00006
99.75 0
99.8 0.00011
99.85 0.00026
99.9 0.00029
99.95 0.00023
