0 0
0.05 0.00012
0.1 0.0011
0.15 0.00206
0.2 0.00267
0.25 0.00339
0.3 0.00444
0.35 0.00502
0.4 0.0058
0.45 0.00593
0.5 0.0055
0.55 0.00475
0.6 0.00399
0.65 0.00358
0.7 0.00344
0.75 0.00321
0.8 0.00329
0.85 0.00349
0.9 0.00379
0.95 0.00394
1 0.00443
1.05 0.00439
1.1 0.00392
1.15 0.00325
1.2 0.00283
1.25 0.00276
1.3 0.00281
1.35 0.00301
1.4 0.00338
1.45 0.00379
1.5 0.00409
1.55 0.00478
1.6 0.00555
1.65 0.00582
1.7 0.00557
1.75 0.00515
1.8 0.00492
1.85 0.00474
1.9 0.00427
1.95 0.00389
2 0.00337
2.05 0.00297
2.1 0.00274
2.15 0.00302
2.2 0.00365
2.25 0.00385
2.3 0.0035
2.35 0.00364
2.4 0.00418
2.45 0.00412
2.5 0.00372
2.55 0.00301
2.6 0.00286
2.65 0.00301
2.7 0.00357
2.75 0.0041
2.8 0.00425
2.85 0.00473
2.9 0.00494
2.95 0.00446
3 0.0039
3.05 0.00356
3.1 0.00376
3.15 0.00414
3.2 0.00441
3.25 0.00428
3.3 0.00408
3.35 0.00364
3.4 0.00371
3.45 0.00324
3.5 0.00288
3.55 0.00218
3.6 0.00163
3.65 0.00119
3.7 0.00138
3.75 0.00123
3.8 0.00146
3.85 0.00209
3.9 0.00275
3.95 0.00333
4 0.00399
4.05 0.00448
4.1 0.00445
4.15 0.00401
4.2 0.00366
4.25 0.00341
4.3 0.00353
4.35 0.00315
4.4 0.00245
4.45 0.00239
4.5 0.00267
4.55 0.00301
4.6 0.00334
4.65 0.00306
4.7 0.00316
4.75 0.00332
4.8 0.00348
4.85 0.00377
4.9 0.00351
4.95 0.00327
5 0.00327
5.05 0.00308
5.1 0.00245
5.15 0.00216
5.2 0.00212
5.25 0.00204
5.3 0.00224
5.35 0.00262
5.4 0.00306
5.45 0.00359
5.5 0.00317
5.55 0.00219
5.6 0.00165
5.65 0.00104
5.7 0.00095
5.75 0.00075
5.8 0.0004
5.85 0.00013
5.9 0.00016
5.95 0.00047
6 0.00046
6.05 0.00036
6.1 0.00004
6.15 -0.00064
6.2 -0.0012
6.25 -0.00152
6.3 -0.0011
6.35 -0.00079
6.4 -0.00042
6.45 -0.00028
6.5 -0.00053
6.55 -0.00018
6.6 -0.00034
6.65 0.00007
6.7 -0.00007
6.75 -0.00016
6.8 -0.00002
6.85 -0.00025
6.9 0.00002
6.95 -0.00009
7 0.00031
7.05 0.0006
7.1 0.00029
7.15 0.00023
7.2 -0.00009
7.25 -0.0005
7.3 -0.00076
7.35 -0.00062
7.4 -0.00061
7.45 -0.00011
7.5 -0.00025
7.55 -0.00023
7.6 -0.00002
7.65 -0.00003
7.7 -0.00048
7.75 -0.00085
7.8 -0.00066
7.85 -0.00009
7.9 -0.00011
7.95 0.00021
8 0.00078
8.05 0.00095
8.1 0.00073
8.15 0.00093
8.2 0.0006
8.25 0.00018
8.3 -0.00005
8.35 -0.00065
8.4 -0.00072
8.45 -0.00115
8.5 -0.00132
8.55 -0.00114
8.6 -0.00099
8.65 -0.00067
8.7 -0.00031
8.75 0.00022
8.8 0.00093
8.85 0.00117
8.9 0.00077
8.95 0.00084
9 0.00119
9.05 0.00113
9.1 0.00079
9.15 0.00063
9.2 0.00034
9.25 -0.0001
9.3 -0.00067
9.35 -0.00135
9.4 -0.00178
9.45 -0.00199
9.5 -0.00162
9.55 -0.00132
9.6 -0.00119
9.65 -0.00095
9.7 -0.00085
9.75 -0.00033
9.8 0.00045
9.85 0.00065
9.9 0.00065
9.95 0.0006
10 0.00071
10.05 0.00124
10.1 0.00101
10.15 0.00056
10.2 -0.00003
10.25 -0.00068
10.3 -0.00066
10.35 -0.00049
10.4 -0.00041
10.45 -0.00041
10.5 -0.00083
10.55 -0.00137
10.6 -0.00202
10.65 -0.00257
10.7 -0.00299
10.75 -0.00258
10.8 -0.00245
10.85 -0.00234
10.9 -0.00222
10.95 -0.00233
11 -0.00222
11.05 -0.00234
11.1 -0.00186
11.15 -0.0011
11.2 -0.00014
11.25 0.00087
11.3 0.00138
11.35 0.00139
11.4 0.0017
11.45 0.00167
11.5 0.00151
11.55 0.00168
11.6 0.00137
11.65 0.00067
11.7 -0.00004
11.75 -0.00002
11.8 0.00004
11.85 -0.00039
11.9 -0.00039
11.95 -0.00032
12 -0.00014
12.05 -0.00046
12.1 -0.00028
12.15 -0.00035
12.2 0.00013
12.25 0.00018
12.3 0.00045
12.35 0.00089
12.4 0.00157
12.45 0.00235
12.5 0.00226
12.55 0.00221
12.6 0.0019
12.65 0.00154
12.7 0.0014
12.75 0.00159
12.8 0.00204
12.85 0.00241
12.9 0.00292
12.95 0.00312
13 0.00273
13.05 0.0018
13.1 0.00153
13.15 0.00092
13.2 0.00006
13.25 -0.00055
13.3 -0.001
13.35 -0.00169
13.4 -0.00167
13.45 -0.00173
13.5 -0.00114
13.55 -0.00086
13.6 -0.00107
13.65 -0.00108
13.7 -0.00081
13.75 -0.00078
13.8 -0.00104
13.85 -0.00109
13.9 -0.00113
13.95 -0.00103
14 -0.00068
14.05 -0.00022
14.1 0.00048
14.15 0.00139
14.2 0.00159
14.25 0.00115
14.3 0.00031
14.35 -0.00027
14.4 -0.00076
14.45 -0.00148
14.5 -0.00176
14.55 -0.00191
14.6 -0.00174
14.65 -0.00107
14.7 -0.00044
14.75 0.00028
14.8 0.00119
14.85 0.00138
14.9 0.00132
14.95 0.00106
15 0.00072
15.05 0.00091
15.1 0.00078
15.15 0.00096
15.2 0.00126
15.25 0.00118
15.3 0.00138
15.35 0.00182
15.4 0.00153
15.45 0.00156
15.5 0.00174
15.55 0.00148
15.6 0.00102
15.65 0.00043
15.7 0.00017
15.75 0.00006
15.8 0.0001
15.85 -0.00037
15.9 -0.00047
15.95 -0.00006
16 0.00051
16.05 0.0009
16.1 0.00095
16.15 0.00096
16.2 0.00093
16.25 0.00037
16.3 -0.00005
16.35 -0.00022
16.4 -0.00032
16.45 -0.00028
16.5 -0.00012
16.55 -0.00014
16.6 0.00017
16.65 0.00076
16.7 0.00155
16.75 0.00203
16.8 0.00202
16.85 0.0017
16.9 0.00161
16.95 0.00185
17 0.00168
17.05 0.00136
17.1 0.00072
17.15 -0.00013
17.2 -0.00093
17.25 -0.00099
17.3 -0.00133
17.35 -0.00189
17.4 -0.00259
17.45 -0.00317
17.5 -0.00343
17.55 -0.00296
17.6 -0.00257
17.65 -0.00202
17.7 -0.00162
17.75 -0.00164
17.8 -0.00108
17.85 -0.00082
17.9 -0.00044
17.95 -0.00047
18 -0.00015
18.05 0.00014
18.1 0.00006
18.15 -0.00005
18.2 0.00021
18.25 0.00058
18.3 0.00033
18.35 -0.00011
18.4 -0.0008
18.45 -0.00075
18.5 -0.00027
18.55 0.0004
18.6 0.00086
18.65 0.00146
18.7 0.00199
18.75 0.0022
18.8 0.00237
18.85 0.00269
18.9 0.00235
18.95 0.00169
19 0.00082
19.05 -0.0001
19.1 -0.00075
19.15 -0.00093
19.2 -0.0009
19.25 -0.00044
19.3 -0.00028
19.35 0.00021
19.4 0.00098
19.45 0.00164
19.5 0.00197
19.55 0.00204
19.6 0.00173
19.65 0.0012
19.7 0.00092
19.75 0.0007
19.8 0.00035
19.85 -0.00005
19.9 0.0001
19.95 -0.00003
20 -0.00009
20.05 -0.00012
20.1 -0.00048
20.15 -0.0003
20.2 0.00032
20.25 0.00033
20.3 0.00034
20.35 0.00062
20.4 0.00102
20.45 0.00104
20.5 0.00092
20.55 0.00061
20.6 0.00077
20.65 0.00054
20.7 0.00074
20.75 0.00096
20.8 0.00075
20.85 0.00062
20.9 0.00031
20.95 0.00008
21 0.0003
21.05 0.00047
21.1 0.00003
21.15 -0.00043
21.2 -0.0007
21.25 -0.00091
21.3 -0.00096
21.35 -0.00114
21.4 -0.00162
21.45 -0.00182
21.5 -0.0015
21.55 -0.00144
21.6 -0.00162
21.65 -0.00174
21.7 -0.00168
21.75 -0.00169
21.8 -0.00113
21.85 -0.00082
21.9 -0.00096
21.95 -0.00128
22 -0.00151
22.05 -0.00145
22.1 -0.00149
22.15 -0.00132
22.2 -0.00155
22.25 -0.00159
22.3 -0.00114
22.35 -0.00115
22.4 -0.00118
22.45 -0.00154
22.5 -0.00157
22.55 -0.00166
22.6 -0.00143
22.65 -0.00164
22.7 -0.00179
22.75 -0.00161
22.8 -0.00156
22.85 -0.00099
22.9 -0.00062
22.95 0.00008
23 0.0008
23.05 0.0013
23.1 0.00197
23.15 0.00175
23.2 0.0017
23.25 0.00178
23.3 0.00206
23.35 0.00234
23.4 0.00189
23.45 0.00098
23.5 0.0001
23.55 -0.00016
23.6 -0.00032
23.65 -0.00003
23.7 0.00052
23.75 0.00109
23.8 0.00144
23.85 0.0012
23.9 0.00122
23.95 0.00124
24 0.00068
24.05 0.00069
24.1 0.00025
24.15 0.00034
24.2 0.00083
24.25 0.00126
24.3 0.00148
24.35 0.00116
24.4 0.0005
24.45 0.0001
24.5 -0.00028
24.55 -0.00032
24.6 -0.00057
24.65 -0.00046
24.7 -0.00039
24.75 -0.00072
24.8 -0.00054
24.85 -0.00015
24.9 0.00044
24.95 0.0003
25 -0.00031
25.05 -0.0009
25.1 -0.00169
25.15 -0.00246
25.2 -0.0024
25.25 -0.00198
25.3 -0.00156
25.35 -0.00101
25.4 -0.00086
25.45 -0.0003
25.5 0.00022
25.55 0.001
25.6 0.00094
25.65 0.00088
25.7 0.00064
25.75 0.00009
25.8 -0.00007
25.85 -0.00042
25.9 -0.00091
25.95 -0.00164
26 -0.00217
26.05 -0.00271
26.1 -0.00301
26.15 -0.00268
26.2 -0.00211
26.25 -0.00164
26.3 -0.00164
26.35 -0.00193
26.4 -0.00214
26.45 -0.00218
26.5 -0.00188
26.55 -0.00197
26.6 -0.00191
26.65 -0.00127
26.7 -0.00037
26.75 0.00023
26.8 0.0009
26.85 0.00171
26.9 0.00209
26.95 0.00263
27 0.00242
27.05 0.00164
27.1 0.00128
27.15 0.00144
27.2 0.00131
27.25 0.00131
27.3 0.00105
27.35 0.00069
27.4 0.00019
27.45 -0.00063
27.5 -0.00153
27.55 -0.00226
27.6 -0.00294
27.65 -0.003
27.7 -0.00242
27.75 -0.00149
27.8 -0.00087
27.85 -0.00029
27.9 0.00013
27.95 0.0007
28 0.00059
28.05 0.00083
28.1 0.00044
28.15 0.00063
28.2 0.0012
28.25 0.0018
28.3 0.00171
28.35 0.00114
28.4 0.00031
28.45 -0.00019
28.5 -0.00014
28.55 0.00034
28.6 0.00103
28.65 0.00143
28.7 0.00116
28.75 0.00111
28.8 0.00066
28.85 0.00004
28.9 -0.00044
28.95 -0.0009
29 -0.00108
29.05 -0.00151
29.1 -0.0018
29.15 -0.00176
29.2 -0.00133
29.25 -0.00043
29.3 -0.00022
29.35 -0.00006
29.4 -0.00032
29.45 -0.00083
29.5 -0.00088
29.55 -0.0008
29.6 -0.00019
29.65 0.00058
29.7 0.00125
29.75 0.00189
29.8 0.00258
29.85 0.00295
29.9 0.0025
29.95 0.00171
30 0.00122
30.05 0.0006
30.1 0.00015
30.15 -0.00043
30.2 -0.00062
30.25 -0.00038
30.3 0.00026
30.35 0.00098
30.4 0.00166
30.45 0.00198
30.5 0.0018
30.55 0.00115
30.6 0.00087
30.65 0.00079
30.7 0.0002
30.75 -0.0003
30.8 -0.00084
30.85 -0.00119
30.9 -0.0014
30.95 -0.0015
31 -0.00148
31.05 -0.00155
31.1 -0.00129
31.15 -0.00065
31.2 -0.0004
31.25 -0.00002
31.3 0.00071
31.35 0.00069
31.4 0.00077
31.45 0.00102
31.5 0.00088
31.55 0.00036
31.6 0.00017
31.65 0.00042
31.7 0.00071
31.75 0.00118
31.8 0.00154
31.85 0.00212
31.9 0.00244
31.95 0.00231
32 0.00184
32.05 0.00157
32.1 0.00098
32.15 0.00089
32.2 0.00113
32.25 0.00125
32.3 0.00121
32.35 0.00101
32.4 0.00093
32.45 0.00126
32.5 0.00119
32.55 0.00078
32.6 -0.00007
32.65 -0.00036
32.7 -0.00075
32.75 -0.00145
32.8 -0.00137
32.85 -0.00078
32.9 -0.00041
32.95 0.00009
33 0.00052
33.05 0.00059
33.1 0.00061
33.15 0.00039
33.2 0.00041
33.25 0.00015
33.3 0.00001
33.35 -0.00011
33.4 -0.00069
33.45 -0.00104
33.5 -0.00112
33.55 -0.00091
33.6 -0.00024
33.65 -0.0001
33.7 -0.00004
33.75 -0.00047
33.8 -0.00098
33.85 -0.0017
33.9 -0.00215
33.95 -0.00257
34 -0.00283
34.05 -0.00262
34.1 -0.0018
34.15 -0.00127
34.2 -0.00051
34.25 0.00012
34.3 0.00066
34.35 0.0009
34.4 0.00102
34.45 0.00147
34.5 0.00131
34.55 0.00112
34.6 0.001
34.65 0.00031
34.7 0.00029
34.75 0.00069
34.8 0.00114
34.85 0.00109
34.9 0.00066
34.95 -0.00017
35 -0.00059
35.05 -0.00069
35.1 -0.0006
35.15 -0.00048
35.2 -0.00066
35.25 -0.00035
35.3 -0.00061
35.35 -0.00088
35.4 -0.0014
35.45 -0.00137
35.5 -0.00112
35.55 -0.00106
35.6 -0.00066
35.65 -0.00039
35.7 -0.0004
35.75 -0.00083
35.8 -0.00063
35.85 -0.00028
35.9 -0.00037
35.95 -0.00024
36 -0.00055
36.05 -0.00092
36.1 -0.00156
36.15 -0.00216
36.2 -0.00193
36.25 -0.00205
36.3 -0.0018
36.35 -0.00189
36.4 -0.00187
36.45 -0.00188
36.5 -0.00159
36.55 -0.00152
36.6 -0.00153
36.65 -0.00117
36.7 -0.00088
36.75 -0.00057
36.8 -0.00017
36.85 0.00039
36.9 0.00053
36.95 0.00077
37 0.00093
37.05 0.00026
37.1 -0.0001
37.15 -0.00085
37.2 -0.00164
37.25 -0.00314
37.3 -0.00491
37.35 -0.00613
37.4 -0.00784
37.45 -0.00983
37.5 -0.01153
37.55 -0.01373
37.6 -0.01587
37.65 -0.01834
37.7 -0.02142
37.75 -0.02475
37.8 -0.02854
37.85 -0.03214
37.9 -0.03672
37.95 -0.04206
38 -0.04762
38.05 -0.05363
38.1 -0.06038
38.15 -0.06712
38.2 -0.07457
38.25 -0.08303
38.3 -0.09172
38.35 -0.10143
38.4 -0.11122
38.45 -0.12176
38.5 -0.13293
38.55 -0.14442
38.6 -0.15634
38.65 -0.16774
38.7 -0.17923
38.75 -0.19105
38.8 -0.20212
38.85 -0.21321
38.9 -0.22389
38.95 -0.23373
39 -0.24286
39.05 -0.25074
39.1 -0.25812
39.15 -0.26379
39.2 -0.26867
39.25 -0.2719
39.3 -0.27342
39.35 -0.27358
39.4 -0.27247
39.45 -0.2698
39.5 -0.26566
39.55 -0.26061
39.6 -0.25473
39.65 -0.24789
39.7 -0.23951
39.75 -0.22994
39.8 -0.21866
39.85 -0.20665
39.9 -0.1931
39.95 -0.1783
40 -0.16329
40.05 -0.14759
40.1 -0.13168
40.15 -0.11483
40.2 -0.09754
40.25 -0.0798
40.3 -0.06239
40.35 -0.04448
40.4 -0.02651
40.45 -0.00861
40.5 0.00873
40.55 0.02564
40.6 0.04255
40.65 0.05884
40.7 0.075
40.75 0.09143
40.8 0.10721
40.85 0.12243
40.9 0.13707
40.95 0.15183
41 0.16602
41.05 0.18013
41.1 0.19384
41.15 0.20725
41.2 0.21939
41.25 0.23102
41.3 0.24184
41.35 0.25198
41.4 0.26123
41.45 0.2695
41.5 0.27589
41.55 0.28103
41.6 0.28517
41.65 0.28832
41.7 0.29022
41.75 0.29148
41.8 0.29224
41.85 0.29152
41.9 0.28971
41.95 0.28756
42 0.28481
42.05 0.28123
42.1 0.27719
42.15 0.27289
42.2 0.26838
42.25 0.26338
42.3 0.25761
42.35 0.25114
42.4 0.24436
42.45 0.23742
42.5 0.23015
42.55 0.22212
42.6 0.21355
42.65 0.20487
42.7 0.19639
42.75 0.18827
42.8 0.18
42.85 0.17146
42.9 0.1632
42.95 0.15534
43 0.14734
43.05 0.13975
43.1 0.13273
43.15 0.1256
43.2 0.11822
43.25 0.1112
43.3 0.10416
43.35 0.0971
43.4 0.09081
43.45 0.08518
43.5 0.07949
43.55 0.07366
43.6 0.06813
43.65 0.06258
43.7 0.05792
43.75 0.054
43.8 0.0498
43.85 0.04621
43.9 0.04213
43.95 0.03835
44 0.03505
44.05 0.03134
44.1 0.02792
44.15 0.0251
44.2 0.02191
44.25 0.01927
44.3 0.0166
44.35 0.01371
44.4 0.01063
44.45 0.00819
44.5 0.00604
44.55 0.00373
44.6 0.0017
44.65 -0.00025
44.7 -0.00209
44.75 -0.00327
44.8 -0.0046
44.85 -0.00588
44.9 -0.00675
44.95 -0.00738
45 -0.00871
45.05 -0.01024
45.1 -0.01209
45.15 -0.0138
45.2 -0.01477
45.25 -0.01563
45.3 -0.017
45.35 -0.01798
45.4 -0.01858
45.45 -0.01938
45.5 -0.02036
45.55 -0.0212
45.6 -0.02178
45.65 -0.0227
45.7 -0.02308
45.75 -0.02401
45.8 -0.02433
45.85 -0.02495
45.9 -0.02523
45.95 -0.02569
46 -0.02587
46.05 -0.02639
46.1 -0.02736
46.15 -0.02793
46.2 -0.02825
46.25 -0.02823
46.3 -0.02876
46.35 -0.02918
46.4 -0.02939
46.45 -0.02971
46.5 -0.03021
46.55 -0.03062
46.6 -0.03054
46.65 -0.03014
46.7 -0.02995
46.75 -0.02977
46.8 -0.03015
46.85 -0.03075
46.9 -0.03077
46.95 -0.03133
47 -0.03162
47.05 -0.03175
47.1 -0.03167
47.15 -0.03137
47.2 -0.03111
47.25 -0.03093
47.3 -0.03092
47.35 -0.03083
47.4 -0.03112
47.45 -0.03123
47.5 -0.03115
47.55 -0.03114
47.6 -0.03066
47.65 -0.03081
47.7 -0.03124
47.75 -0.03141
47.8 -0.03089
47.85 -0.03053
47.9 -0.02978
47.95 -0.02939
48 -0.02942
48.05 -0.02957
48.1 -0.02956
48.15 -0.02902
48.2 -0.02807
48.25 -0.02736
48.3 -0.02675
48.35 -0.02656
48.4 -0.02641
48.45 -0.02673
48.5 -0.02677
48.55 -0.02693
48.6 -0.02715
48.65 -0.02703
48.7 -0.02708
48.75 -0.02731
48.8 -0.02754
48.85 -0.02705
48.9 -0.0267
48.95 -0.0262
49 -0.02584
49.05 -0.02502
49.1 -0.02391
49.15 -0.02343
49.2 -0.02254
49.25 -0.02218
49.3 -0.0215
49.35 -0.02139
49.4 -0.02127
49.45 -0.02052
49.5 -0.01943
49.55 -0.01847
49.6 -0.01807
49.65 -0.01778
49.7 -0.01743
49.75 -0.01761
49.8 -0.01765
49.85 -0.01809
49.9 -0.01794
49.95 -0.01807
50 -0.01769
50.05 -0.01699
50.1 -0.01633
50.15 -0.0155
50.2 -0.01474
50.25 -0.01434
50.3 -0.01415
50.35 -0.01387
50.4 -0.01345
50.45 -0.01332
50.5 -0.01366
50.55 -0.01361
50.6 -0.01409
50.65 -0.01473
50.7 -0.01519
50.75 -0.01544
50.8 -0.01492
50.85 -0.01461
50.9 -0.01386
50.95 -0.01364
51 -0.01356
51.05 -0.01308
51.1 -0.01229
51.15 -0.01199
51.2 -0.01187
51.25 -0.01145
51.3 -0.01077
51.35 -0.00996
51.4 -0.00936
51.45 -0.00939
51.5 -0.00983
51.55 -0.01024
51.6 -0.01096
51.65 -0.01129
51.7 -0.01087
51.75 -0.01019
51.8 -0.01009
51.85 -0.00976
51.9 -0.00912
51.95 -0.00916
52 -0.00923
52.05 -0.00935
52.1 -0.00959
52.15 -0.00948
52.2 -0.00965
52.25 -0.00971
52.3 -0.00958
52.35 -0.00937
52.4 -0.00946
52.45 -0.00899
52.5 -0.00871
52.55 -0.00794
52.6 -0.00783
52.65 -0.00784
52.7 -0.00797
52.75 -0.00799
52.8 -0.00743
52.85 -0.00747
52.9 -0.0079
52.95 -0.00783
53 -0.00774
53.05 -0.00797
53.1 -0.00782
53.15 -0.00783
53.2 -0.008
53.25 -0.00755
53.3 -0.00688
53.35 -0.00674
53.4 -0.00666
53.45 -0.00616
53.5 -0.00584
53.55 -0.00537
53.6 -0.00543
53.65 -0.00527
53.7 -0.0052
53.75 -0.00486
53.8 -0.00422
53.85 -0.00417
53.9 -0.00425
53.95 -0.00465
54 -0.00537
54.05 -0.00581
54.1 -0.00622
54.15 -0.0059
54.2 -0.00505
54.25 -0.00434
54.3 -0.00386
54.35 -0.00387
54.4 -0.00356
54.45 -0.00305
54.5 -0.00256
54.55 -0.00275
54.6 -0.00344
54.65 -0.0041
54.7 -0.00443
54.75 -0.00449
54.8 -0.00471
54.85 -0.0048
54.9 -0.00459
54.95 -0.00485
55 -0.00515
55.05 -0.00469
55.1 -0.00463
55.15 -0.00434
55.2 -0.00372
55.25 -0.00353
55.3 -0.00312
55.35 -0.00325
55.4 -0.00329
55.45 -0.00332
55.5 -0.00319
55.55 -0.00344
55.6 -0.0038
55.65 -0.00387
55.7 -0.00343
55.75 -0.00256
55.8 -0.00188
55.85 -0.00145
55.9 -0.00096
55.95 -0.00052
56 -0.00088
56.05 -0.00147
56.1 -0.00212
56.15 -0.00262
56.2 -0.00284
56.25 -0.00317
56.3 -0.00307
56.35 -0.0027
56.4 -0.00284
56.45 -0.00299
56.5 -0.00341
56.55 -0.00363
56.6 -0.00324
56.65 -0.00295
56.7 -0.00307
56.75 -0.00257
56.8 -0.00257
56.85 -0.00235
56.9 -0.00248
56.95 -0.00249
57 -0.00287
57.05 -0.00297
57.1 -0.00327
57.15 -0.00358
57.2 -0.00318
57.25 -0.0023
57.3 -0.00205
57.35 -0.00219
57.4 -0.00257
57.45 -0.00252
57.5 -0.0025
57.55 -0.00214
57.6 -0.00193
57.65 -0.0019
57.7 -0.00148
57.75 -0.00133
57.8 -0.0012
57.85 -0.00097
57.9 -0.00106
57.95 -0.00124
58 -0.0012
58.05 -0.00081
58.1 -0.0001
58.15 0.00035
58.2 0.00022
58.25 0.00003
58.3 0.00021
58.35 0.00031
58.4 -0.00008
58.45 -0.00078
58.5 -0.00133
58.55 -0.00129
58.6 -0.00149
58.65 -0.00165
58.7 -0.00135
58.75 -0.00126
58.8 -0.00109
58.85 -0.00057
58.9 -0.00058
58.95 -0.00076
59 -0.00123
59.05 -0.00157
59.1 -0.00184
59.15 -0.00236
59.2 -0.00299
59.25 -0.00296
59.3 -0.00243
59.35 -0.002
59.4 -0.00198
59.45 -0.00213
59.5 -0.00224
59.55 -0.00173
59.6 -0.00151
59.65 -0.00161
59.7 -0.00106
59.75 -0.00027
59.8 0.00072
59.85 0.00138
59.9 0.0014
59.95 0.00118
60 0.00046
60.05 0.00013
60.1 0.00029
60.15 -0.00008
60.2 -0.00022
60.25 -0.00078
60.3 -0.00088
60.35 -0.00136
60.4 -0.00184
60.45 -0.00202
60.5 -0.00203
60.55 -0.00212
60.6 -0.00193
60.65 -0.00128
60.7 -0.00114
60.75 -0.00146
60.8 -0.00166
60.85 -0.00159
60.9 -0.00115
60.95 -0.00037
61 -0.00001
61.05 0.00072
61.1 0.0009
61.15 0.00135
61.2 0.00172
61.25 0.00222
61.3 0.0021
61.35 0.0015
61.4 0.00114
61.45 0.0011
61.5 0.0005
61.55 0.00003
61.6 -0.00058
61.65 -0.00053
61.7 -0.00078
61.75 -0.00057
61.8 0.00004
61.85 0.00091
61.9 0.00167
61.95 0.00225
62 0.00254
62.05 0.00288
62.1 0.00295
62.15 0.0032
62.2 0.0026
62.25 0.00222
62.3 0.0021
62.35 0.00204
62.4 0.00137
62.45 0.00095
62.5 0.0002
62.55 0.00005
62.6 0.00007
62.65 -0.00003
62.7 0.00036
62.75 0.00083
62.8 0.00115
62.85 0.00112
62.9 0.00136
62.95 0.00088
63 -0.00001
63.05 -0.00109
63.1 -0.00181
63.15 -0.00194
63.2 -0.00219
63.25 -0.00232
63.3 -0.00225
63.35 -0.00164
63.4 -0.00074
63.45 -0.00021
63.5 -0.00035
63.55 -0.00077
63.6 -0.00065
63.65 -0.00101
63.7 -0.0016
63.75 -0.00235
63.8 -0.00304
63.85 -0.0031
63.9 -0.00318
63.95 -0.00258
64 -0.00188
64.05 -0.00102
64.1 -0.00022
64.15 0.00034
64.2 0.00081
64.25 0.00146
64.3 0.00181
64.35 0.0023
64.4 0.00207
64.45 0.00168
64.5 0.00102
64.55 0.00047
64.6 0.00008
64.65 -0.00035
64.7 -0.00087
64.75 -0.00114
64.8 -0.0009
64.85 -0.00021
64.9 0.00034
64.95 0.00071
65 0.00135
65.05 0.00136
65.1 0.00136
65.15 0.00161
65.2 0.00122
65.25 0.00057
65.3 0.00023
65.35 0.00006
65.4 -0.00033
65.45 -0.00058
65.5 -0.00059
65.55 -0.0004
65.6 -0
65.65 0.0001
65.7 0.0003
65.75 0.00074
65.8 0.0007
65.85 0.00078
65.9 0.00036
65.95 0.00033
66 -0.00006
66.05 -0.0007
66.1 -0.00158
66.15 -0.00168
66.2 -0.00186
66.25 -0.00152
66.3 -0.00098
66.35 -0.00097
66.4 -0.00131
66.45 -0.00194
66.5 -0.00183
66.55 -0.00165
66.6 -0.00132
66.65 -0.00102
66.7 -0.00087
66.75 -0.00104
66.8 -0.00069
66.85 -0.00041
66.9 -0.00039
66.95 -0.00066
67 -0.00065
67.05 -0.00078
67.1 -0.00088
67.15 -0.00052
67.2 -0.00016
67.25 0.00004
67.3 0.00053
67.35 0.00064
67.4 0.00092
67.45 0.00132
67.5 0.00188
67.55 0.0021
67.6 0.00159
67.65 0.00082
67.7 0.00057
67.75 0.00082
67.8 0.00041
67.85 0.00051
67.9 0.00042
67.95 0.00027
68 -0.00029
68.05 -0.00048
68.1 -0.00053
68.15 -0.00079
68.2 -0.00084
68.25 -0.00125
68.3 -0.00134
68.35 -0.00159
68.4 -0.00203
68.45 -0.00202
68.5 -0.00181
68.55 -0.00169
68.6 -0.00158
68.65 -0.00168
68.7 -0.0017
68.75 -0.00176
68.8 -0.00164
68.85 -0.00122
68.9 -0.00107
68.95 -0.00117
69 -0.00095
69.05 -0.00077
69.1 -0.00034
69.15 0.00015
69.2 0.00043
69.25 0.0005
69.3 0.00101
69.35 0.00132
69.4 0.00168
69.45 0.0014
69.5 0.00095
69.55 0.00039
69.6 -0.00006
69.65 0.00006
69.7 0.00014
69.75 -0.00007
69.8 0.00006
69.85 0.00022
69.9 0.00071
69.95 0.00086
70 0.00125
70.05 0.00095
70.1 0.00069
70.15 0.00059
70.2 0.00016
70.25 -0.00009
70.3 -0.00007
70.35 0.00016
70.4 0.00046
70.45 0.00093
70.5 0.00111
70.55 0.00126
70.6 0.0009
70.65 0.00054
70.7 0.00024
70.75 -0.00034
70.8 -0.00035
70.85 -0.00057
70.9 -0.00058
70.95 -0.00018
71 0.00052
71.05 0.00126
71.1 0.00156
71.15 0.00159
71.2 0.0014
71.25 0.00107
71.3 0.00116
71.35 0.00102
71.4 0.0013
71.45 0.0014
71.5 0.00153
71.55 0.00196
71.6 0.00169
71.65 0.00116
71.7 0.00114
71.75 0.00142
71.8 0.00178
71.85 0.0018
71.9 0.0018
71.95 0.00158
72 0.00137
72.05 0.00088
72.1 0.00092
72.15 0.00078
72.2 0.00055
72.25 -0.00002
72.3 -0.00091
72.35 -0.00141
72.4 -0.00163
72.45 -0.00122
72.5 -0.00078
72.55 -0.00039
72.6 0.00007
72.65 0.00027
72.7 0.00012
72.75 -0.00009
72.8 -0.00038
72.85 -0.00015
72.9 -0.00022
72.95 -0.00013
73 -0.0005
73.05 -0.00033
73.1 -0.00027
73.15 0.00024
73.2 0.00097
73.25 0.00134
73.3 0.00174
73.35 0.00132
73.4 0.00069
73.45 0.0004
73.5 0.00015
73.55 0.00026
73.6 -0.0001
73.65 -0.00071
73.7 -0.00154
73.75 -0.00158
73.8 -0.00122
73.85 -0.001
73.9 -0.00091
73.95 -0.00082
74 -0.00056
74.05 -0.00035
74.1 -0.00007
74.15 0.00057
74.2 0.0011
74.25 0.00147
74.3 0.00193
74.35 0.00164
74.4 0.00165
74.45 0.00155
74.5 0.00094
74.55 0.00001
74.6 -0.00049
74.65 -0.00084
74.7 -0.001
74.75 -0.00135
74.8 -0.00145
74.85 -0.0016
74.9 -0.00143
74.95 -0.00143
75 -0.00091
75.05 -0.00066
75.1 -0.00047
75.15 -0.00049
75.2 -0.00054
75.25 -0.00087
75.3 -0.00096
75.35 -0.0007
75.4 -0.00078
75.45 -0.00041
75.5 -0.00058
75.55 -0.00054
75.6 -0.00089
75.65 -0.00113
75.7 -0.00125
75.75 -0.00135
75.8 -0.00116
75.85 -0.00135
75.9 -0.00185
75.95 -0.00156
76 -0.00101
76.05 -0.00022
76.1 -0.00015
76.15 0.00036
76.2 0.0003
76.25 -0.0002
76.3 -0.00084
76.35 -0.00093
76.4 -0.00134
76.45 -0.00113
76.5 -0.00057
76.55 0.00026
76.6 0.00122
76.65 0.0016
76.7 0.00214
76.75 0.00249
76.8 0.00252
76.85 0.00208
76.9 0.00145
76.95 0.0011
77 0.0004
77.05 -0.00007
77.1 -0.00026
77.15 -0.00048
77.2 -0.00059
77.25 -0.00106
77.3 -0.00162
77.35 -0.00162
77.4 -0.00133
77.45 -0.00125
77.5 -0.00104
77.55 -0.00114
77.6 -0.00158
77.65 -0.00173
77.7 -0.00214
77.75 -0.00222
77.8 -0.00218
77.85 -0.00187
77.9 -0.00128
77.95 -0.0008
78 -0.00054
78.05 -0.00073
78.1 -0.00104
78.15 -0.00076
78.2 -0.00082
78.25 -0.0005
78.3 -0.00055
78.35 -0.00063
78.4 -0.00042
78.45 -0.00066
78.5 -0.00084
78.55 -0.00056
78.6 -0.00016
78.65 0.00011
78.7 0.00033
78.75 0.00034
78.8 0.00071
78.85 0.00133
78.9 0.00156
78.95 0.00163
79 0.00151
79.05 0.00142
79.1 0.00092
79.15 0.00053
79.2 -0.0001
79.25 -0.00018
79.3 -0.00048
79.35 -0.00094
79.4 -0.00131
79.45 -0.00147
79.5 -0.0018
79.55 -0.00227
79.6 -0.0028
79.65 -0.00293
79.7 -0.00303
79.75 -0.00265
79.8 -0.00169
79.85 -0.00081
79.9 0.00032
79.95 0.00064
80 0.00094
80.05 0.00148
80.1 0.00211
80.15 0.00238
80.2 0.00232
80.25 0.00172
80.3 0.00111
80.35 0.00092
80.4 0.00047
80.45 0.00023
80.5 -0.00038
80.55 -0.00123
80.6 -0.00208
80.65 -0.00225
80.7 -0.00241
80.75 -0.00211
80.8 -0.00172
80.85 -0.00172
80.9 -0.00163
80.95 -0.00176
81 -0.00155
81.05 -0.00156
81.1 -0.00118
81.15 -0.00033
81.2 0.00055
81.25 0.00123
81.3 0.00174
81.35 0.0015
81.4 0.00118
81.45 0.0012
81.5 0.00154
81.55 0.00126
81.6 0.00084
81.65 0.00085
81.7 0.00117
81.75 0.00146
81.8 0.00184
81.85 0.00163
81.9 0.00109
81.95 0.00032
82 -0.00017
82.05 -0.00064
82.1 -0.00078
82.15 -0.00083
82.2 -0.00068
82.25 -0.00098
82.3 -0.0015
82.35 -0.00135
82.4 -0.00151
82.45 -0.00144
82.5 -0.00118
82.55 -0.00044
82.6 -0.00022
82.65 -0.00003
82.7 -0.00033
82.75 -0.0001
82.8 0.00039
82.85 0.00083
82.9 0.00094
82.95 0.00056
83 0.00072
83.05 0.00071
83.1 0.00045
83.15 0.00067
83.2 0.00096
83.25 0.00066
83.3 0.00057
83.35 0.00076
83.4 0.00116
83.45 0.00139
83.5 0.00096
83.55 0.00057
83.6 0.00063
83.65 0.00081
83.7 0.00097
83.75 0.00149
83.8 0.00156
83.85 0.00192
83.9 0.00178
83.95 0.00166
84 0.0017
84.05 0.0012
84.1 0.00091
84.15 0.00069
84.2 0.00026
84.25 -0.00021
84.3 -0.00065
84.35 -0.00114
84.4 -0.00093
84.45 -0.0011
84.5 -0.00074
84.55 -0.00052
84.6 -0.00002
84.65 -0
84.7 -0.00025
84.75 -0.00073
84.8 -0.00056
84.85 -0.00015
84.9 -0.00026
84.95 -0.00005
85 -0.00031
85.05 -0.00007
85.1 0.00036
85.15 0.00034
85.2 0.00069
85.25 0.00095
85.3 0.00126
85.35 0.00118
85.4 0.00079
85.45 0.00045
85.5 0.00022
85.55 0.00033
85.6 0.00003
85.65 0.0003
85.7 0.00063
85.75 0.00075
85.8 0.00073
85.85 0.00043
85.9 0.00053
85.95 0.00039
86 0.00017
86.05 -0.00049
86.1 -0.00127
86.15 -0.00144
86.2 -0.00151
86.25 -0.00173
86.3 -0.00131
86.35 -0.0005
86.4 0.00014
86.45 0.0006
86.5 0.001
86.55 0.00128
86.6 0.00125
86.65 0.00126
86.7 0.00109
86.75 0.00054
86.8 0.00026
86.85 -0.00002
86.9 -0.00047
86.95 -0.00109
87 -0.0016
87.05 -0.00133
87.1 -0.00121
87.15 -0.00152
87.2 -0.00159
87.25 -0.00123
87.3 -0.00112
87.35 -0.00118
87.4 -0.00139
87.45 -0.00155
87.5 -0.00144
87.55 -0.00153
87.6 -0.00154
87.65 -0.00168
87.7 -0.00143
87.75 -0.00106
87.8 -0.00103
87.85 -0.00054
87.9 -0.0006
87.95 -0.00099
88 -0.00094
88.05 -0.00115
88.1 -0.00084
88.15 -0.00035
88.2 0.00021
88.25 0.00063
88.3 0.00074
88.35 0.00103
88.4 0.00085
88.45 0.00069
88.5 0.00098
88.55 0.00077
88.6 0.00063
88.65 0.00048
88.7 0.00027
88.75 -0.00034
88.8 -0.00101
88.85 -0.00124
88.9 -0.00086
88.95 -0.00066
89 -0.00057
89.05 -0.00013
89.1 0.00003
89.15 -0.00025
89.2 -0.00046
89.25 -0.00015
89.3 -0.00015
89.35 -0.00019
89.4 -0.00042
89.45 -0.00085
89.5 -0.00065
89.55 0.00002
89.6 -0.00003
89.65 -0.00024
89.7 -0.00005
89.75 0.0005
89.8 0.00085
89.85 0.0015
89.9 0.00224
89.95 0.00243
90 0.00211
90.05 0.00198
90.1 0.00126
90.15 0.00034
90.2 -0.00067
90.25 -0.00098
90.3 -0.00064
90.35 -0.00005
90.4 0.00059
90.45 0.00135
90.5 0.00217
90.55 0.00285
90.6 0.00279
90.65 0.00234
90.7 0.00141
90.75 0.00027
90.8 -0.00076
90.85 -0.00133
90.9 -0.00189
90.95 -0.00165
91 -0.00174
91.05 -0.00206
91.1 -0.00257
91.15 -0.00286
91.2 -0.00251
91.25 -0.00189
91.3 -0.00119
91.35 -0.00082
91.4 -0.00057
91.45 -0.00007
91.5 0.0001
91.55 0.00029
91.6 0.00008
91.65 0.00013
91.7 0.00012
91.75 0.00014
91.8 0.00021
91.85 0.0001
91.9 -0.00012
91.95 -0.00054
92 -0.00091
92.05 -0.00076
92.1 -0.00039
92.15 0.00011
92.2 0.00058
92.25 0.00081
92.3 0.00045
92.35 0.00059
92.4 0.00101
92.45 0.00141
92.5 0.00147
92.55 0.00135
92.6 0.00127
92.65 0.00115
92.7 0.00137
92.75 0.00146
92.8 0.00143
92.85 0.00149
92.9 0.00113
92.95 0.00036
93 0.00021
93.05 -0.00005
93.1 0.00007
93.15 -0.00002
93.2 -0.0006
93.25 -0.00076
93.3 -0.00089
93.35 -0.00067
93.4 -0.00043
93.45 0.00013
93.5 0.00014
93.55 0.00035
93.6 0.00091
93.65 0.00121
93.7 0.00154
93.75 0.00159
93.8 0.00133
93.85 0.00083
93.9 0.00088
93.95 0.00045
94 -0.00037
94.05 -0.00049
94.1 -0.00047
94.15 -0.00012
94.2 -0.00032
94.25 -0.00088
94.3 -0.00144
94.35 -0.00211
94.4 -0.00258
94.45 -0.0025
94.5 -0.00272
94.55 -0.00273
94.6 -0.0029
94.65 -0.00228
94.7 -0.00137
94.75 -0.00103
94.8 -0.00106
94.85 -0.00123
94.9 -0.00158
94.95 -0.00164
95 -0.0014
95.05 -0.00094
95.1 -0.00072
95.15 -0.00042
95.2 -0.00024
95.25 -0.00029
95.3 -0.00028
95.35 0.00005
95.4 0.0005
95.45 0.00064
95.5 0.00079
95.55 0.00092
95.6 0.00092
95.65 0.00078
95.7 0.00061
95.75 0.0003
95.8 -0.00039
95.85 -0.00101
95.9 -0.00088
95.95 -0.00117
96 -0.00088
96.05 -0.00097
96.1 -0.00106
96.15 -0.00148
96.2 -0.00146
96.25 -0.00157
96.3 -0.00106
96.35 -0.00036
96.4 0.00049
96.45 0.00143
96.5 0.00236
96.55 0.00289
96.6 0.00278
96.65 0.00271
96.7 0.00236
96.75 0.00154
96.8 0.00066
96.85 -0.00023
96.9 -0.00121
96.95 -0.00197
97 -0.00203
97.05 -0.00155
97.1 -0.00124
97.15 -0.00063
97.2 -0.00056
97.25 0
97.3 0.00053
97.35 0.00049
97.4 0.00055
97.45 0.00028
97.5 0.0006
97.55 0.00049
97.6 0.0004
97.65 0.00046
97.7 0.00081
97.75 0.00121
97.8 0.00148
97.85 0.00197
97.9 0.00204
97.95 0.00192
98 0.00152
98.05 0.00072
98.1 -0.00005
98.15 -0.00034
98.2 -0.00059
98.25 -0.00058
98.3 -0.00058
98.35 -0.0009
98.4 -0.00058
98.45 -0.00023
98.5 -0.00019
98.55 -0.00067
98.6 -0.00045
98.65 0.00013
98.7 0.00052
98.75 0.00027
98.8 0.00044
98.85 0.00092
98.9 0.00102
98.95 0.00122
99 0.00153
99.05 0.00132
99.1 0.00152
99.15 0.00133
99.2 0.00146
99.25 0.0013
99.3 0.00073
99.35 -0.00004
99.4 -0.00036
99.45 -0.00097
99.5 -0.00125
99.55 -0.00096
99.6 -0.00049
99.65 -0.00044
99.7 -0.00016
99.75 -0.00007
99.8 0.00029
99.85 0.00008
99.9 0.00024
99.95 -0.0002
