0 0
0.05 0.0003
0.1 0.00078
0.15 0.00192
0.2 0.00346
0.25 0.00538
0.3 0.00784
0.35 0.01053
0.4 0.01177
0.45 0.01331
0.5 0.01323
0.55 0.01266
0.6 0.01153
0.65 0.011
0.7 0.0111
0.75 0.01091
0.8 0.01108
0.85 0.01107
0.9 0.01137
0.95 0.01086
1 0.00946
1.05 0.00804
1.1 0.00759
1.15 0.00697
1.2 0.00667
1.25 0.00712
1.3 0.00796
1.35 0.00854
1.4 0.00921
1.45 0.00896
1.5 0.00795
1.55 0.00807
1.6 0.00877
1.65 0.00912
1.7 0.00972
1.75 0.01046
1.8 0.01135
1.85 0.01092
1.9 0.01058
1.95 0.01001
2 0.00951
2.05 0.00807
2.1 0.0073
2.15 0.00682
2.2 0.00568
2.25 0.00417
2.3 0.00255
2.35 0.00138
2.4 0.00145
2.45 0.00227
2.5 0.0027
2.55 0.00262
2.6 0.00303
2.65 0.00257
2.7 0.00192
2.75 0.00115
2.8 0.00092
2.85 0.00052
2.9 -0.00027
2.95 -0.00037
3 -0.00055
3.05 -0.00003
3.1 0.00143
3.15 0.0021
3.2 0.00259
3.25 0.0032
3.3 0.00335
3.35 0.00402
3.4 0.00383
3.45 0.00411
3.5 0.00405
3.55 0.00434
3.6 0.00424
3.65 0.00342
3.7 0.00358
3.75 0.00322
3.8 0.00355
3.85 0.00449
3.9 0.00535
3.95 0.00563
4 0.00479
4.05 0.00394
4.1 0.00248
4.15 0.00135
4.2 0.00061
4.25 0.00042
4.3 0.00072
4.35 0.0008
4.4 0.00071
4.45 0.00151
4.5 0.00223
4.55 0.00234
4.6 0.00273
4.65 0.0038
4.7 0.00469
4.75 0.00426
4.8 0.00355
4.85 0.00247
4.9 0.00274
4.95 0.00333
5 0.00385
5.05 0.0033
5.1 0.00359
5.15 0.00376
5.2 0.00465
5.25 0.00547
5.3 0.00516
5.35 0.00527
5.4 0.00527
5.45 0.00585
5.5 0.00509
5.55 0.00376
5.6 0.00243
5.65 0.00232
5.7 0.00243
5.75 0.00222
5.8 0.00226
5.85 0.00223
5.9 0.003
5.95 0.004
6 0.00375
6.05 0.00359
6.1 0.00367
6.15 0.00352
6.2 0.00388
6.25 0.00381
6.3 0.00311
6.35 0.00336
6.4 0.00291
6.45 0.00206
6.5 0.00113
6.55 0.00091
6.6 0.0015
6.65 0.00256
6.7 0.00397
6.75 0.00399
6.8 0.00362
6.85 0.00324
6.9 0.00362
6.95 0.00286
7 0.00181
7.05 0.00076
7.1 0.00024
7.15 0.00048
7.2 -0.00012
7.25 -0.00119
7.3 -0.00197
7.35 -0.00196
7.4 -0.00123
7.45 -0.00136
7.5 -0.00183
7.55 -0.00133
7.6 -0.00134
7.65 -0.00033
7.7 0.00067
7.75 0.00103
7.8 0.00081
7.85 0.00154
7.9 0.00185
7.95 0.00221
8 0.00291
8.05 0.00293
8.1 0.00236
8.15 0.00229
8.2 0.00185
8.25 0.00106
8.3 -0.00023
8.35 -0.00034
8.4 -0.00054
8.45 0.00019
8.5 0.00006
8.55 -0.00082
8.6 -0.00179
8.65 -0.00256
8.7 -0.00339
8.75 -0.00439
8.8 -0.00417
8.85 -0.0028
8.9 -0.00083
8.95 0.00031
9 0.00122
9.05 0.00147
9.1 0.00163
9.15 0.001
9.2 -0.00008
9.25 -0.0002
9.3 -0.00081
9.35 -0.00178
9.4 -0.0016
9.45 -0.00102
9.5 -0.00135
9.55 -0.0006
9.6 -0.0003
9.65 0.00003
9.7 -0.00034
9.75 0.00002
9.8 0.0011
9.85 0.0024
9.9 0.00297
9.95 0.00342
10 0.00268
10.05 0.00168
10.1 0.00036
10.15 0.00035
10.2 0.00121
10.25 0.00227
10.3 0.00217
10.35 0.00107
10.4 -0.00041
10.45 -0.0012
10.5 -0.00082
10.55 -0.00134
10.6 -0.00169
10.65 -0.00116
10.7 -0.00104
10.75 -0.00053
10.8 0.00074
10.85 0.00235
10.9 0.00388
10.95 0.00528
11 0.00527
11.05 0.00548
11.1 0.00511
11.15 0.00415
11.2 0.00237
11.25 0.00089
11.3 -0.00035
11.35 -0.00059
11.4 -0.00147
11.45 -0.00263
11.5 -0.00332
11.55 -0.00425
11.6 -0.00522
11.65 -0.00513
11.7 -0.00477
11.75 -0.00357
11.8 -0.00295
11.85 -0.00135
11.9 -0.0001
11.95 0.00002
12 -0.00056
12.05 -0.00074
12.1 -0.00126
12.15 -0.00212
12.2 -0.00173
12.25 -0.00123
12.3 -0.00012
12.35 0.00076
12.4 0.0021
12.45 0.00306
12.5 0.0035
12.55 0.00397
12.6 0.00389
12.65 0.00348
12.7 0.00318
12.75 0.00323
12.8 0.00284
12.85 0.0028
12.9 0.00324
12.95 0.00245
13 0.00103
13.05 0.00073
13.1 -0.00014
13.15 -0.00145
13.2 -0.00179
13.25 -0.00264
13.3 -0.00304
13.35 -0.0022
13.4 -0.00071
13.45 -0.00033
13.5 -0.00027
13.55 -0.00034
13.6 0.00055
13.65 0.00081
13.7 0.0002
13.75 -0.00082
13.8 -0.0006
13.85 -0.00099
13.9 -0.00051
13.95 0.00067
14 0.0008
14.05 0.00075
14.1 0.00118
14.15 0.00198
14.2 0.00212
14.25 0.00186
14.3 0.00225
14.35 0.00215
14.4 0.00253
14.45 0.00323
14.5 0.00332
14.55 0.00372
14.6 0.00414
14.65 0.00354
14.7 0.00283
14.75 0.00192
14.8 0.00069
14.85 0.00049
14.9 -0.00024
14.95 -0.00148
15 -0.00231
15.05 -0.00231
15.1 -0.00225
15.15 -0.00244
15.2 -0.00272
15.25 -0.00309
15.3 -0.00379
15.35 -0.00335
15.4 -0.00224
15.45 -0.00155
15.5 -0.00049
15.55 0.00066
15.6 0.00204
15.65 0.0021
15.7 0.00287
15.75 0.00233
15.8 0.00245
15.85 0.00185
15.9 0.00121
15.95 0.00147
16 0.00158
16.05 0.00193
16.1 0.00196
16.15 0.00117
16.2 0.00145
16.25 0.00133
16.3 0.00199
16.35 0.00299
16.4 0.00389
16.45 0.00443
16.5 0.00442
16.55 0.00352
16.6 0.00227
16.65 0.00149
16.7 0.00028
16.75 -0.00135
16.8 -0.00211
16.85 -0.00311
16.9 -0.00366
16.95 -0.00378
17 -0.00346
17.05 -0.00276
17.1 -0.00193
17.15 -0.00072
17.2 0.00015
17.25 0.00039
17.3 0.00038
17.35 0.00088
17.4 0.00182
17.45 0.00189
17.5 0.00235
17.55 0.00314
17.6 0.00351
17.65 0.00426
17.7 0.00512
17.75 0.00587
17.8 0.00653
17.85 0.00584
17.9 0.00446
17.95 0.00333
18 0.00162
18.05 0.00113
18.1 0.00141
18.15 0.00117
18.2 0.00015
18.25 -0.00121
18.3 -0.0012
18.35 -0.0017
18.4 -0.00257
18.45 -0.0021
18.5 -0.00161
18.55 -0.00056
18.6 0.00056
18.65 0.0019
18.7 0.00317
18.75 0.00332
18.8 0.00307
18.85 0.00298
18.9 0.00281
18.95 0.00321
19 0.00234
19.05 0.00215
19.1 0.00213
19.15 0.00185
19.2 0.0012
19.25 0.00015
19.3 -0.00068
19.35 -0.00197
19.4 -0.00337
19.45 -0.00405
19.5 -0.00364
19.55 -0.00357
19.6 -0.00244
19.65 -0.00145
19.7 -0.00058
19.75 0.00065
19.8 0.00133
19.85 0.00145
19.9 0.00095
19.95 0.00069
20 0.00111
20.05 0.00041
20.1 -0.00101
20.15 -0.00263
20.2 -0.0039
20.25 -0.0052
20.3 -0.00506
20.35 -0.00476
20.4 -0.00349
20.45 -0.00296
20.5 -0.0033
20.55 -0.00391
20.6 -0.00412
20.65 -0.00392
20.7 -0.00261
20.75 -0.00168
20.8 -0.00145
20.85 -0.00204
20.9 -0.00311
20.95 -0.0031
21 -0.00301
21.05 -0.00187
21.1 -0.00078
21.15 -0.00092
21.2 -0.00125
21.25 -0.00049
21.3 0.00052
21.35 0.00125
21.4 0.0017
21.45 0.00234
21.5 0.00295
21.55 0.00238
21.6 0.00219
21.65 0.00133
21.7 0.00077
21.75 0.00092
21.8 0.00103
21.85 0.00049
21.9 -0.00078
21.95 -0.00066
22 -0.00036
22.05 0.00017
22.1 0.00121
22.15 0.00155
22.2 0.00114
22.25 0.00003
22.3 -0.00154
22.35 -0.00303
22.4 -0.00416
22.45 -0.00484
22.5 -0.00494
22.55 -0.00492
22.6 -0.00503
22.65 -0.00524
22.7 -0.00515
22.75 -0.00446
22.8 -0.00412
22.85 -0.00416
22.9 -0.0046
22.95 -0.00393
23 -0.00345
23.05 -0.00194
23.1 -0.00054
23.15 0.00015
23.2 0.00147
23.25 0.00165
23.3 0.00146
23.35 0.00166
23.4 0.00252
23.45 0.00248
23.5 0.00313
23.55 0.00398
23.6 0.00432
23.65 0.00454
23.7 0.00435
23.75 0.00432
23.8 0.0037
23.85 0.00307
23.9 0.00204
23.95 0.00075
24 -0.00011
24.05 0.00011
24.1 0.00023
24.15 -0.00046
24.2 -0.00008
24.25 0.00099
24.3 0.00231
24.35 0.00252
24.4 0.00283
24.45 0.00229
24.5 0.00155
24.55 0.00153
24.6 0.00195
24.65 0.00274
24.7 0.00291
24.75 0.00315
24.8 0.00255
24.85 0.00206
24.9 0.00203
24.95 0.00129
25 0.00051
25.05 -0.00097
25.1 -0.00257
25.15 -0.00396
25.2 -0.0047
25.25 -0.00466
25.3 -0.00437
25.35 -0.00405
25.4 -0.00319
25.45 -0.00313
25.5 -0.00362
25.55 -0.00441
25.6 -0.00484
25.65 -0.00436
25.7 -0.00288
25.75 -0.00185
25.8 -0.00178
25.85 -0.001
25.9 -0.00008
25.95 0.00091
26 0.00235
26.05 0.00244
26.1 0.00317
26.15 0.00353
26.2 0.00254
26.25 0.00145
26.3 -0.00002
26.35 -0.00025
26.4 -0.00066
26.45 -0.00033
26.5 0.00072
26.55 0.00126
26.6 0.00139
26.65 0.00069
26.7 -0.00035
26.75 -0.00184
26.8 -0.00305
26.85 -0.00292
26.9 -0.00292
26.95 -0.00193
27 -0.00055
27.05 0.00114
27.1 0.00226
27.15 0.00341
27.2 0.003
27.25 0.00216
27.3 0.00085
27.35 -0.00047
27.4 -0.00052
27.45 0.00003
27.5 0.00083
27.55 0.00091
27.6 0.00145
27.65 0.00177
27.7 0.00187
27.75 0.00172
27.8 0.00081
27.85 -0.00035
27.9 -0.00065
27.95 -0.00149
28 -0.00183
28.05 -0.00238
28.1 -0.00324
28.15 -0.00346
28.2 -0.0039
28.25 -0.00328
28.3 -0.00235
28.35 -0.0021
28.4 -0.00122
28.45 -0.00028
28.5 0.00058
28.55 0.00165
28.6 0.00148
28.65 0.0015
28.7 0.0007
28.75 0.00029
28.8 0.00014
28.85 -0.00101
28.9 -0.00152
28.95 -0.00286
29 -0.0049
29.05 -0.00651
29.1 -0.00737
29.15 -0.0082
29.2 -0.00979
29.25 -0.0124
29.3 -0.0143
29.35 -0.0166
29.4 -0.01951
29.45 -0.02252
29.5 -0.02661
29.55 -0.03188
29.6 -0.03856
29.65 -0.04482
29.7 -0.05144
29.75 -0.05864
29.8 -0.06679
29.85 -0.07722
29.9 -0.08952
29.95 -0.10303
30 -0.11775
30.05 -0.13335
30.1 -0.14952
30.15 -0.16763
30.2 -0.18633
30.25 -0.20633
30.3 -0.22842
30.35 -0.25205
30.4 -0.27611
30.45 -0.30099
30.5 -0.32536
30.55 -0.35022
30.6 -0.37404
30.65 -0.39733
30.7 -0.41963
30.75 -0.44146
30.8 -0.46125
30.85 -0.47903
30.9 -0.49479
30.95 -0.50782
31 -0.51979
31.05 -0.52933
31.1 -0.53554
31.15 -0.53788
31.2 -0.5361
31.25 -0.53183
31.3 -0.52418
31.35 -0.51395
31.4 -0.50017
31.45 -0.48278
31.5 -0.46252
31.55 -0.43856
31.6 -0.41269
31.65 -0.38523
31.7 -0.35622
31.75 -0.32543
31.8 -0.29238
31.85 -0.25789
31.9 -0.22376
31.95 -0.18873
32 -0.1535
32.05 -0.11808
32.1 -0.08432
32.15 -0.05145
32.2 -0.02014
32.25 0.01115
32.3 0.0419
32.35 0.07194
32.4 0.10016
32.45 0.12803
32.5 0.15488
32.55 0.1808
32.6 0.20595
32.65 0.23085
32.7 0.25401
32.75 0.27681
32.8 0.29914
32.85 0.32048
32.9 0.34012
32.95 0.35897
33 0.37668
33.05 0.39249
33.1 0.40807
33.15 0.42226
33.2 0.43516
33.25 0.44667
33.3 0.4572
33.35 0.46556
33.4 0.47378
33.45 0.48077
33.5 0.48658
33.55 0.49061
33.6 0.49392
33.65 0.4954
33.7 0.49506
33.75 0.4933
33.8 0.48987
33.85 0.48506
33.9 0.47992
33.95 0.47376
34 0.46739
34.05 0.45923
34.1 0.45106
34.15 0.44237
34.2 0.43244
34.25 0.42238
34.3 0.41251
34.35 0.40123
34.4 0.38972
34.45 0.37838
34.5 0.36646
34.55 0.35483
34.6 0.34327
34.65 0.33023
34.7 0.31649
34.75 0.304
34.8 0.29178
34.85 0.27896
34.9 0.26611
34.95 0.25434
35 0.24217
35.05 0.23022
35.1 0.21983
35.15 0.21
35.2 0.19969
35.25 0.18991
35.3 0.18138
35.35 0.17206
35.4 0.16344
35.45 0.15475
35.5 0.14594
35.55 0.13831
35.6 0.13006
35.65 0.12173
35.7 0.113
35.75 0.10535
35.8 0.09731
35.85 0.08957
35.9 0.08246
35.95 0.07492
36 0.068
36.05 0.06247
36.1 0.05622
36.15 0.04973
36.2 0.04432
36.25 0.03847
36.3 0.03365
36.35 0.02943
36.4 0.02524
36.45 0.02008
36.5 0.01433
36.55 0.00844
36.6 0.00307
36.65 -0.00109
36.7 -0.00509
36.75 -0.00835
36.8 -0.01173
36.85 -0.01473
36.9 -0.01843
36.95 -0.02161
37 -0.02573
37.05 -0.03027
37.1 -0.03505
37.15 -0.03806
37.2 -0.03996
37.25 -0.042
37.3 -0.0434
37.35 -0.04606
37.4 -0.04857
37.45 -0.05009
37.5 -0.05096
37.55 -0.0526
37.6 -0.05414
37.65 -0.05643
37.7 -0.0578
37.75 -0.05908
37.8 -0.05973
37.85 -0.06017
37.9 -0.06195
37.95 -0.0645
38 -0.06739
38.05 -0.0687
38.1 -0.07053
38.15 -0.0715
38.2 -0.07256
38.25 -0.07394
38.3 -0.07443
38.35 -0.07381
38.4 -0.07282
38.45 -0.07259
38.5 -0.07258
38.55 -0.07204
38.6 -0.07178
38.65 -0.07165
38.7 -0.07049
38.75 -0.06916
38.8 -0.06821
38.85 -0.06814
38.9 -0.06801
38.95 -0.0672
39 -0.06577
39.05 -0.0641
39.1 -0.06298
39.15 -0.06271
39.2 -0.06315
39.25 -0.06249
39.3 -0.06164
39.35 -0.06182
39.4 -0.0612
39.45 -0.05997
39.5 -0.05838
39.55 -0.05726
39.6 -0.05705
39.65 -0.05656
39.7 -0.05709
39.75 -0.05654
39.8 -0.05651
39.85 -0.05708
39.9 -0.05704
39.95 -0.05618
40 -0.05579
40.05 -0.055
40.1 -0.05414
40.15 -0.05331
40.2 -0.05212
40.25 -0.0517
40.3 -0.05056
40.35 -0.05017
40.4 -0.04956
40.45 -0.04928
40.5 -0.04831
40.55 -0.04796
40.6 -0.04668
40.65 -0.04601
40.7 -0.04451
40.75 -0.04251
40.8 -0.04156
40.85 -0.04072
40.9 -0.03993
40.95 -0.039
41 -0.03787
41.05 -0.03696
41.1 -0.03549
41.15 -0.034
41.2 -0.03294
41.25 -0.03191
41.3 -0.03074
41.35 -0.0295
41.4 -0.029
41.45 -0.02922
41.5 -0.03009
41.55 -0.03016
41.6 -0.03062
41.65 -0.03113
41.7 -0.03087
41.75 -0.03017
41.8 -0.02944
41.85 -0.02973
41.9 -0.02978
41.95 -0.03038
42 -0.03099
42.05 -0.03196
42.1 -0.03203
42.15 -0.03117
42.2 -0.03046
42.25 -0.0301
42.3 -0.03026
42.35 -0.03036
42.4 -0.02904
42.45 -0.02712
42.5 -0.0254
42.55 -0.02371
42.6 -0.02285
42.65 -0.02193
42.7 -0.02175
42.75 -0.02195
42.8 -0.02278
42.85 -0.02271
42.9 -0.02179
42.95 -0.02102
43 -0.02131
43.05 -0.02214
43.1 -0.02168
43.15 -0.02119
43.2 -0.02064
43.25 -0.02076
43.3 -0.02074
43.35 -0.01985
43.4 -0.01829
43.45 -0.01749
43.5 -0.01705
43.55 -0.01625
43.6 -0.01655
43.65 -0.01758
43.7 -0.01854
43.75 -0.01827
43.8 -0.0182
43.85 -0.01848
43.9 -0.01927
43.95 -0.01933
44 -0.01879
44.05 -0.01814
44.1 -0.01704
44.15 -0.016
44.2 -0.01523
44.25 -0.01473
44.3 -0.0147
44.35 -0.01394
44.4 -0.0134
44.45 -0.01327
44.5 -0.01258
44.55 -0.01189
44.6 -0.01074
44.65 -0.00962
44.7 -0.00879
44.75 -0.00843
44.8 -0.00849
44.85 -0.00868
44.9 -0.00897
44.95 -0.00937
45 -0.01024
45.05 -0.01043
45.1 -0.01115
45.15 -0.01068
45.2 -0.01108
45.25 -0.01151
45.3 -0.01094
45.35 -0.01038
45.4 -0.01068
45.45 -0.01162
45.5 -0.0118
45.55 -0.01213
45.6 -0.01138
45.65 -0.01122
45.7 -0.01011
45.75 -0.01
45.8 -0.00938
45.85 -0.00908
45.9 -0.00816
45.95 -0.00681
46 -0.00622
46.05 -0.00544
46.1 -0.00497
46.15 -0.0054
46.2 -0.0065
46.25 -0.00783
46.3 -0.00841
46.35 -0.00907
46.4 -0.00853
46.45 -0.0086
46.5 -0.00805
46.55 -0.00729
46.6 -0.00629
46.65 -0.00568
46.7 -0.00474
46.75 -0.00384
46.8 -0.00274
46.85 -0.00182
46.9 -0.00098
46.95 -0.0004
47 -0.00118
47.05 -0.00211
47.1 -0.00284
47.15 -0.00293
47.2 -0.00293
47.25 -0.00278
47.3 -0.00387
47.35 -0.00487
47.4 -0.0065
47.45 -0.00808
47.5 -0.00961
47.55 -0.00939
47.6 -0.00919
47.65 -0.00884
47.7 -0.00831
47.75 -0.00829
47.8 -0.00757
47.85 -0.00603
47.9 -0.00533
47.95 -0.00441
48 -0.0038
48.05 -0.00335
48.1 -0.00393
48.15 -0.00425
48.2 -0.00499
48.25 -0.00513
48.3 -0.00587
48.35 -0.00564
48.4 -0.00589
48.45 -0.00512
48.5 -0.00476
48.55 -0.00461
48.6 -0.0045
48.65 -0.00432
48.7 -0.00441
48.75 -0.00437
48.8 -0.00446
48.85 -0.00385
48.9 -0.00365
48.95 -0.00434
49 -0.00456
49.05 -0.00385
49.1 -0.00271
49.15 -0.00251
49.2 -0.00158
49.25 -0.00097
49.3 0.00009
49.35 0.00119
49.4 0.00199
49.45 0.00212
49.5 0.00091
49.55 -0.0011
49.6 -0.00189
49.65 -0.0033
49.7 -0.00385
49.75 -0.00422
49.8 -0.00395
49.85 -0.00456
49.9 -0.00481
49.95 -0.00518
50 -0.00474
50.05 -0.0039
50.1 -0.00367
50.15 -0.0028
50.2 -0.00204
50.25 -0.00097
50.3 -0.00099
50.35 -0.00174
50.4 -0.0018
50.45 -0.00225
50.5 -0.00167
50.55 -0.00111
50.6 -0.00004
50.65 0.00003
50.7 0.00038
50.75 -0.00015
50.8 -0.00036
50.85 -0.00077
50.9 -0.00175
50.95 -0.00284
51 -0.00275
51.05 -0.0029
51.1 -0.00221
51.15 -0.0009
51.2 0.00068
51.25 0.00123
51.3 0.00063
51.35 -0.00051
51.4 -0.00204
51.45 -0.00226
51.5 -0.0031
51.55 -0.00311
51.6 -0.00295
51.65 -0.00357
51.7 -0.00295
51.75 -0.00254
51.8 -0.0021
51.85 -0.00116
51.9 -0.00035
51.95 0.00075
52 0.00164
52.05 0.001
52.1 0.00113
52.15 0.00024
52.2 -0.00008
52.25 -0.00019
52.3 -0.00028
52.35 -0.00086
52.4 -0.00151
52.45 -0.00175
52.5 -0.00173
52.55 -0.00233
52.6 -0.00326
52.65 -0.00371
52.7 -0.00347
52.75 -0.00357
52.8 -0.00275
52.85 -0.00257
52.9 -0.00163
52.95 -0.00048
53 0.00031
53.05 0.00125
53.1 0.00143
53.15 0.00099
53.2 0.00003
53.25 -0.00004
53.3 0.00029
53.35 0.00052
53.4 0.00024
53.45 0.00021
53.5 -0.00027
53.55 -0.00085
53.6 -0.00059
53.65 0.00034
53.7 0.00112
53.75 0.00173
53.8 0.00233
53.85 0.00221
53.9 0.00179
53.95 0.00136
54 0.00123
54.05 0.00103
54.1 0.00153
54.15 0.00202
54.2 0.00273
54.25 0.00236
54.3 0.00132
54.35 0.00027
54.4 -0.00047
54.45 -0.00151
54.5 -0.00301
54.55 -0.00456
54.6 -0.00579
54.65 -0.00612
54.7 -0.00626
54.75 -0.00614
54.8 -0.00491
54.85 -0.00448
54.9 -0.00419
54.95 -0.00337
55 -0.00277
55.05 -0.00224
55.1 -0.00141
55.15 -0.00013
55.2 0.00115
55.25 0.00095
55.3 0.00049
55.35 0.00006
55.4 -0.00022
55.45 0.00016
55.5 -0.00055
55.55 -0.00186
55.6 -0.00323
55.65 -0.00387
55.7 -0.00422
55.75 -0.00442
55.8 -0.00352
55.85 -0.00325
55.9 -0.00199
55.95 -0.00146
56 -0.00024
56.05 0.00123
56.1 0.00141
56.15 0.00067
56.2 -0.00019
56.25 -0.00082
56.3 -0.0008
56.35 -0.0014
56.4 -0.0009
56.45 -0.00048
56.5 -0.00009
56.55 0.00069
56.6 0.00129
56.65 0.00125
56.7 0.00082
56.75 -0.00032
56.8 -0.00028
56.85 -0.00008
56.9 -0.00008
56.95 -0.00073
57 -0.00037
57.05 0.00045
57.1 -0.00006
57.15 0.00039
57.2 0.00108
57.25 0.00129
57.3 0.00169
57.35 0.00179
57.4 0.00078
57.45 -0.00018
57.5 -0.00046
57.55 -0.00015
57.6 -0.00011
57.65 -0.00075
57.7 -0.00092
57.75 -0.00157
57.8 -0.00181
57.85 -0.00264
57.9 -0.00235
57.95 -0.00154
58 -0.00145
58.05 -0.00225
58.1 -0.00262
58.15 -0.00353
58.2 -0.00441
58.25 -0.00422
58.3 -0.00401
58.35 -0.00351
58.4 -0.00286
58.45 -0.00207
58.5 -0.00183
58.55 -0.00076
58.6 0.00079
58.65 0.00104
58.7 0.00136
58.75 0.00117
58.8 0.00168
58.85 0.00182
58.9 0.00137
58.95 0.00049
59 0.00048
59.05 0.00105
59.1 0.00164
59.15 0.00229
59.2 0.00238
59.25 0.00135
59.3 0.00138
59.35 0.00151
59.4 0.00126
59.45 0.0014
59.5 0.00111
59.55 0.00074
59.6 0.00057
59.65 0.00069
59.7 0.00085
59.75 0.001
59.8 0.00047
59.85 0.00063
59.9 0.00151
59.95 0.00132
60 0.00173
60.05 0.00221
60.1 0.00216
60.15 0.00223
60.2 0.0013
60.25 0.00109
60.3 0.00033
60.35 -0.00097
60.4 -0.00213
60.45 -0.00285
60.5 -0.00285
60.55 -0.00264
60.6 -0.00223
60.65 -0.0022
60.7 -0.00127
60.75 -0.0012
60.8 -0.00144
60.85 -0.0018
60.9 -0.00164
60.95 -0.00121
61 -0.00154
61.05 -0.00107
61.1 -0.00093
61.15 -0.00139
61.2 -0.00151
61.25 -0.00195
61.3 -0.00231
61.35 -0.00157
61.4 -0.00153
61.45 -0.0007
61.5 0.00001
61.55 -0.00006
61.6 0.0006
61.65 0.00016
61.7 -0.00091
61.75 -0.00136
61.8 -0.00129
61.85 -0.00063
61.9 0.00038
61.95 0.00161
62 0.00213
62.05 0.00252
62.1 0.0032
62.15 0.00258
62.2 0.00174
62.25 0.00036
62.3 -0.00016
62.35 -0.00016
62.4 -0.00032
62.45 -0.00124
62.5 -0.00254
62.55 -0.00371
62.6 -0.00379
62.65 -0.00279
62.7 -0.00147
62.75 -0.00112
62.8 -0.00142
62.85 -0.00196
62.9 -0.00296
62.95 -0.00397
63 -0.00363
63.05 -0.0026
63.1 -0.00108
63.15 -0.00082
63.2 -0.00003
63.25 0.00095
63.3 0.00123
63.35 0.00171
63.4 0.00153
63.45 0.00211
63.5 0.00148
63.55 0.00096
63.6 -0.00021
63.65 -0.00183
63.7 -0.00204
63.75 -0.00198
63.8 -0.0011
63.85 -0.00013
63.9 0.00049
63.95 0.00015
64 0.00011
64.05 0.00011
64.1 0.00035
64.15 0.00085
64.2 0.00039
64.25 -0.00013
64.3 0.00021
64.35 -0.00023
64.4 -0.00081
64.45 -0.00053
64.5 -0.00004
64.55 0.00045
64.6 0.00025
64.65 0.00084
64.7 0.00057
64.75 0.00076
64.8 0.00018
64.85 -0.00104
64.9 -0.00201
64.95 -0.00335
65 -0.00439
65.05 -0.00528
65.1 -0.00513
65.15 -0.00399
65.2 -0.00374
65.25 -0.0034
65.3 -0.00369
65.35 -0.00366
65.4 -0.00296
65.45 -0.00197
65.5 -0.00061
65.55 0.0004
65.6 0.00144
65.65 0.00143
65.7 0.00108
65.75 0.0004
65.8 0.00069
65.85 0.00039
65.9 -0.00011
65.95 -0.00058
66 -0.00152
66.05 -0.00162
66.1 -0.0021
66.15 -0.00162
66.2 -0.00178
66.25 -0.00218
66.3 -0.00242
66.35 -0.00261
66.4 -0.00314
66.45 -0.0031
66.5 -0.00348
66.55 -0.00327
66.6 -0.00356
66.65 -0.00291
66.7 -0.00179
66.75 -0.00124
66.8 -0.00096
66.85 -0.00117
66.9 -0.00165
66.95 -0.0025
67 -0.00257
67.05 -0.00163
67.1 -0.00062
67.15 -0.00012
67.2 0.00046
67.25 0.00075
67.3 0.00086
67.35 0.00139
67.4 0.0025
67.45 0.00226
67.5 0.00145
67.55 0.00059
67.6 0.00009
67.65 -0.00058
67.7 -0.00134
67.75 -0.00132
67.8 -0.00087
67.85 -0.00009
67.9 0.00055
67.95 0.00008
68 0.00071
68.05 0.00147
68.1 0.00103
68.15 0.0016
68.2 0.00179
68.25 0.00121
68.3 0.00096
68.35 0.00025
68.4 -0.00014
68.45 -0.00115
68.5 -0.00128
68.55 -0.00193
68.6 -0.00178
68.65 -0.00183
68.7 -0.0008
68.75 0.00059
68.8 0.00078
68.85 0.00139
68.9 0.00147
68.95 0.0019
69 0.00209
69.05 0.0018
69.1 0.00116
69.15 0.00031
69.2 -0.00036
69.25 -0.00115
69.3 -0.00096
69.35 -0.00015
69.4 0.00118
69.45 0.00251
69.5 0.00278
69.55 0.00332
69.6 0.00395
69.65 0.00431
69.7 0.00405
69.75 0.00302
69.8 0.00222
69.85 0.00225
69.9 0.0025
69.95 0.00177
70 0.0003
70.05 -0.00155
70.1 -0.00207
70.15 -0.00221
70.2 -0.00156
70.25 -0.00151
70.3 -0.00101
70.35 -0.00015
70.4 0.00062
70.45 0.00048
70.5 0.00118
70.55 0.00243
70.6 0.00305
70.65 0.00245
70.7 0.00252
70.75 0.00214
70.8 0.00215
70.85 0.0014
70.9 0.00006
70.95 -0.00126
71 -0.00215
71.05 -0.00257
71.1 -0.00332
71.15 -0.00412
71.2 -0.00418
71.25 -0.00449
71.3 -0.00468
71.35 -0.00457
71.4 -0.00472
71.45 -0.00422
71.5 -0.00431
71.55 -0.00418
71.6 -0.00404
71.65 -0.00285
71.7 -0.00214
71.75 -0.0023
71.8 -0.00248
71.85 -0.0019
71.9 -0.00144
71.95 -0.00136
72 -0.00113
72.05 -0.00034
72.1 0.00105
72.15 0.00269
72.2 0.00278
72.25 0.0028
72.3 0.0023
72.35 0.00266
72.4 0.00342
72.45 0.00365
72.5 0.00272
72.55 0.00157
72.6 0.0002
72.65 -0.0012
72.7 -0.00245
72.75 -0.00324
72.8 -0.00372
72.85 -0.00296
72.9 -0.00215
72.95 -0.00189
73 -0.00113
73.05 -0.0003
73.1 0.00009
73.15 -0.00036
73.2 -0.00014
73.25 0.00059
73.3 0.00129
73.35 0.00195
73.4 0.00153
73.45 0.00117
73.5 0.00007
73.55 -0.001
73.6 -0.0022
73.65 -0.00243
73.7 -0.00205
73.75 -0.0015
73.8 -0.00138
73.85 -0.00144
73.9 -0.00126
73.95 -0.00028
74 0.00033
74.05 0.00103
74.1 0.00184
74.15 0.00267
74.2 0.00299
74.25 0.00263
74.3 0.00177
74.35 0.00089
74.4 0.00093
74.45 0.00175
74.5 0.00145
74.55 0.00081
74.6 0.00076
74.65 0.00081
74.7 0.00018
74.75 -0.00083
74.8 -0.00071
74.85 0.00018
74.9 0.00111
74.95 0.00122
75 0.00162
75.05 0.0021
75.1 0.00149
75.15 0.00118
75.2 0.00183
75.25 0.00143
75.3 0.00187
75.35 0.00191
75.4 0.00139
75.45 0.00096
75.5 -0.00021
75.55 -0.00102
75.6 -0.00202
75.65 -0.00225
75.7 -0.00302
75.75 -0.00382
75.8 -0.00392
75.85 -0.0034
75.9 -0.00262
75.95 -0.00113
76 -0.00072
76.05 -0.00011
76.1 0.0009
76.15 0.00209
76.2 0.00265
76.25 0.00238
76.3 0.00197
76.35 0.00193
76.4 0.00104
76.45 0.00069
76.5 0.00036
76.55 0.00085
76.6 0.00183
76.65 0.00189
76.7 0.00196
76.75 0.00253
76.8 0.00183
76.85 0.00211
76.9 0.00195
76.95 0.00119
77 0.00062
77.05 0.00002
77.1 0.00018
77.15 -0.00015
77.2 -0.0011
77.25 -0.00141
77.3 -0.00072
77.35 0.00028
77.4 0.00137
77.45 0.00168
77.5 0.00212
77.55 0.00263
77.6 0.00303
77.65 0.00289
77.7 0.00339
77.75 0.00369
77.8 0.00437
77.85 0.00518
77.9 0.00479
77.95 0.00438
78 0.00373
78.05 0.00384
78.1 0.00365
78.15 0.00366
78.2 0.00295
78.25 0.00205
78.3 0.00073
78.35 -0.0004
78.4 -0.00166
78.45 -0.00295
78.5 -0.0029
78.55 -0.00346
78.6 -0.00412
78.65 -0.0047
78.7 -0.00397
78.75 -0.00309
78.8 -0.00318
78.85 -0.00224
78.9 -0.00157
78.95 -0.00183
79 -0.00268
79.05 -0.00367
79.1 -0.00314
79.15 -0.00307
79.2 -0.00277
79.25 -0.00275
79.3 -0.00247
79.35 -0.0021
79.4 -0.00091
79.45 0.00006
79.5 0.00135
79.55 0.00236
79.6 0.00343
79.65 0.00458
79.7 0.00437
79.75 0.00302
79.8 0.0018
79.85 0.0006
79.9 -0.00032
79.95 -0.00115
80 -0.00142
80.05 -0.00091
80.1 -0.00134
80.15 -0.00142
80.2 -0.00171
80.25 -0.00218
80.3 -0.00169
80.35 -0.0009
80.4 -0.00081
80.45 -0.00111
80.5 -0.00127
80.55 -0.00186
80.6 -0.0023
80.65 -0.00252
80.7 -0.00254
80.75 -0.00292
80.8 -0.00222
80.85 -0.00226
80.9 -0.00215
80.95 -0.0022
81 -0.00213
81.05 -0.00153
81.1 -0.00059
81.15 -0.00044
81.2 0.00039
81.25 0.0008
81.3 0.00059
81.35 0.00025
81.4 0.00091
81.45 0.00071
81.5 -0.00001
81.55 -0.00099
81.6 -0.00192
81.65 -0.00302
81.7 -0.00332
81.75 -0.00276
81.8 -0.00235
81.85 -0.00104
81.9 0.00032
81.95 0.00177
82 0.0024
82.05 0.00201
82.1 0.00119
82.15 0.00004
82.2 -0.00042
82.25 -0.00136
82.3 -0.00258
82.35 -0.00239
82.4 -0.00131
82.45 -0.00027
82.5 0.00013
82.55 -0.00023
82.6 -0.00054
82.65 -0.00128
82.7 -0.0019
82.75 -0.00129
82.8 0.00007
82.85 0.00094
82.9 0.00192
82.95 0.00189
83 0.00102
83.05 -0.00005
83.1 -0.0005
83.15 -0.00098
83.2 -0.00053
83.25 0.00058
83.3 0.00049
83.35 0.00054
83.4 0.00138
83.45 0.002
83.5 0.00316
83.55 0.00455
83.6 0.00558
83.65 0.0059
83.7 0.00596
83.75 0.00604
83.8 0.00606
83.85 0.00522
83.9 0.00364
83.95 0.00222
84 0.0012
84.05 -0.00016
84.1 -0.00188
84.15 -0.002
84.2 -0.00174
84.25 -0.00165
84.3 -0.0014
84.35 -0.00149
84.4 -0.0008
84.45 -0.00059
84.5 -0.00061
84.55 -0.00011
84.6 -0.00019
84.65 -0.00019
84.7 -0.001
84.75 -0.00204
84.8 -0.00337
84.85 -0.00436
84.9 -0.0041
84.95 -0.00384
85 -0.00423
85.05 -0.00482
85.1 -0.00516
85.15 -0.00524
85.2 -0.00455
85.25 -0.00284
85.3 -0.00176
85.35 -0.00137
85.4 -0.00172
85.45 -0.0016
85.5 -0.00212
85.55 -0.00264
85.6 -0.00179
85.65 -0.00152
85.7 -0.00204
85.75 -0.00135
85.8 -0.00033
85.85 0.00097
85.9 0.0009
85.95 0.0008
86 0.0013
86.05 0.00103
86.1 0.00096
86.15 0.00139
86.2 0.0013
86.25 0.00106
86.3 0.00097
86.35 0.00017
86.4 -0.00014
86.45 -0.00054
86.5 -0.00128
86.55 -0.00107
86.6 -0.00016
86.65 -0.00027
86.7 -0.00028
86.75 -0.00017
86.8 -0.00087
86.85 -0.00121
86.9 -0.00188
86.95 -0.00223
87 -0.00151
87.05 -0.00146
87.1 -0.00206
87.15 -0.00142
87.2 -0.00163
87.25 -0.00108
87.3 -0.00053
87.35 0.00067
87.4 0.00213
87.45 0.00292
87.5 0.00409
87.55 0.00441
87.6 0.00494
87.65 0.00579
87.7 0.00577
87.75 0.00473
87.8 0.00375
87.85 0.00328
87.9 0.00219
87.95 0.00072
88 -0.00061
88.05 -0.00117
88.1 -0.00064
88.15 0.00031
88.2 0.00011
88.25 -0.00084
88.3 -0.002
88.35 -0.00225
88.4 -0.00197
88.45 -0.00191
88.5 -0.00233
88.55 -0.00267
88.6 -0.00303
88.65 -0.00259
88.7 -0.00208
88.75 -0.00198
88.8 -0.00089
88.85 0.0008
88.9 0.00128
88.95 0.00082
89 -0.00003
89.05 -0.00135
89.1 -0.00263
89.15 -0.00358
89.2 -0.00405
89.25 -0.00419
89.3 -0.00414
89.35 -0.00426
89.4 -0.00468
89.45 -0.0038
89.5 -0.0037
89.55 -0.00317
89.6 -0.00238
89.65 -0.0023
89.7 -0.00269
89.75 -0.00333
89.8 -0.00273
89.85 -0.00111
89.9 -0.00069
89.95 -0.00095
90 -0.00009
90.05 0.00062
90.1 0.00092
90.15 0.00153
90.2 0.00156
90.25 0.00245
90.3 0.0026
90.35 0.00272
90.4 0.00232
90.45 0.0019
90.5 0.0023
90.55 0.00174
90.6 0.00193
90.65 0.00259
90.7 0.00227
90.75 0.00285
90.8 0.00384
90.85 0.00369
90.9 0.00329
90.95 0.00289
91 0.00324
91.05 0.00289
91.1 0.00167
91.15 0.00097
91.2 0.0011
91.25 0.00054
91.3 0.00047
91.35 0.00079
91.4 0.00097
91.45 0.0006
91.5 -0.00028
91.55 -0.00007
91.6 0.00078
91.65 0.00196
91.7 0.00231
91.75 0.00312
91.8 0.00307
91.85 0.00216
91.9 0.00187
91.95 0.00124
92 0.00067
92.05 -0.00009
92.1 0.00013
92.15 -0.00061
92.2 -0.00012
92.25 0.00001
92.3 0.00068
92.35 0.00049
92.4 0.00005
92.45 -0.00106
92.5 -0.00131
92.55 -0.00225
92.6 -0.00227
92.65 -0.00228
92.7 -0.00194
92.75 -0.0024
92.8 -0.0022
92.85 -0.00216
92.9 -0.0026
92.95 -0.00226
93 -0.0022
93.05 -0.00199
93.1 -0.00147
93.15 -0.00007
93.2 0.00038
93.25 -0.00008
93.3 -0.00048
93.35 -0.00139
93.4 -0.00185
93.45 -0.0011
93.5 -0.00133
93.55 -0.0007
93.6 0.00049
93.65 0.00159
93.7 0.00301
93.75 0.00459
93.8 0.00512
93.85 0.0042
93.9 0.0041
93.95 0.00333
94 0.0034
94.05 0.00392
94.1 0.00445
94.15 0.00388
94.2 0.00389
94.25 0.00309
94.3 0.00269
94.35 0.00185
94.4 0.00142
94.45 0.0008
94.5 0.00046
94.55 0.00014
94.6 -0.0003
94.65 0.00015
94.7 -0.00019
94.75 -0.00072
94.8 -0.00046
94.85 -0.00058
94.9 -0.00053
94.95 -0.00026
95 0.00026
95.05 0.00051
95.1 0.00124
95.15 0.00137
95.2 0.00218
95.25 0.00277
95.3 0.00232
95.35 0.0026
95.4 0.00179
95.45 0.00171
95.5 0.0013
95.55 0.00156
95.6 0.00113
95.65 0.0007
95.7 0.00078
95.75 0.00101
95.8 0.00068
95.85 -0.00046
95.9 -0.0017
95.95 -0.00261
96 -0.0039
96.05 -0.00383
96.1 -0.00291
96.15 -0.00134
96.2 -0.00075
96.25 0.00052
96.3 0.0019
96.35 0.00276
96.4 0.00304
96.45 0.00359
96.5 0.00357
96.55 0.00351
96.6 0.00351
96.65 0.00385
96.7 0.00383
96.75 0.00349
96.8 0.00222
96.85 0.0004
96.9 -0.00035
96.95 -0.00099
97 -0.0022
97.05 -0.00228
97.1 -0.0026
97.15 -0.00296
97.2 -0.0026
97.25 -0.00247
97.3 -0.00217
97.35 -0.00096
97.4 0.00063
97.45 0.00158
97.5 0.0021
97.55 0.00227
97.6 0.00138
97.65 0.00064
97.7 0.00073
97.75 0.00004
97.8 -0.0013
97.85 -0.00283
97.9 -0.00318
97.95 -0.00308
98 -0.00225
98.05 -0.0007
98.1 0.00093
98.15 0.00131
98.2 0.00125
98.25 0.00119
98.3 0.00022
98.35 -0.0002
98.4 0.00013
98.45 0.00113
98.5 0.00072
98.55 -0.00055
98.6 -0.00115
98.65 -0.00192
98.7 -0.00242
98.75 -0.00223
98.8 -0.00149
98.85 -0.00074
98.9 0.00042
98.95 0.00109
99 0.00189
99.05 0.0024
99.1 0.00188
99.15 0.00169
99.2 0.00092
99.25 0.00019
99.3 -0.00007
99.35 -0.00078
99.4 -0.00106
99.45 -0.00087
99.5 -0.00152
99.55 -0.00171
99.6 -0.00181
99.65 -0.00217
99.7 -0.00179
99.75 -0.00216
99.8 -0.00224
99.85 -0.00203
99.9 -0.00178
99.95 -0.00102
