0 0
0.05 0.00025
0.1 0.00044
0.15 0.00058
0.2 0.00063
0.25 0.00074
0.3 0.00103
0.35 0.00123
0.4 0.00146
0.45 0.00168
0.5 0.00184
0.55 0.00184
0.6 0.00179
0.65 0.00186
0.7 0.00203
0.75 0.00224
0.8 0.00241
0.85 0.00259
0.9 0.00269
0.95 0.00262
1 0.00247
1.05 0.00228
1.1 0.00218
1.15 0.00207
1.2 0.00202
1.25 0.00206
1.3 0.00194
1.35 0.00195
1.4 0.00198
1.45 0.00199
1.5 0.00198
1.55 0.00201
1.6 0.00189
1.65 0.00172
1.7 0.00167
1.75 0.00171
1.8 0.00153
1.85 0.00135
1.9 0.00132
1.95 0.00118
2 0.00109
2.05 0.00099
2.1 0.00088
2.15 0.00067
2.2 0.00043
2.25 0.00028
2.3 0.0001
2.35 -0.00007
2.4 -0.00013
2.45 0
2.5 0.00007
2.55 0.0002
2.6 0.00019
2.65 0.00014
2.7 0.00018
2.75 0.00037
2.8 0.00064
2.85 0.0007
2.9 0.00086
2.95 0.00099
3 0.00107
3.05 0.00094
3.1 0.00095
3.15 0.00096
3.2 0.00105
3.25 0.00118
3.3 0.00111
3.35 0.00088
3.4 0.00064
3.45 0.00062
3.5 0.00065
3.55 0.00067
3.6 0.00065
3.65 0.00071
3.7 0.00085
3.75 0.00094
3.8 0.00097
3.85 0.00109
3.9 0.00118
3.95 0.00107
4 0.00102
4.05 0.00105
4.1 0.00116
4.15 0.0013
4.2 0.00126
4.25 0.00124
4.3 0.00119
4.35 0.00123
4.4 0.00122
4.45 0.00109
4.5 0.00086
4.55 0.0008
4.6 0.00059
4.65 0.00035
4.7 0.0003
4.75 0.00017
4.8 -0.00006
4.85 -0.00007
4.9 -0.00003
4.95 -0.00014
5 -0.00031
5.05 -0.00033
5.1 -0.00016
5.15 -0.00018
5.2 -0.00022
5.25 -0.00016
5.3 -0.0001
5.35 -0
5.4 0.00008
5.45 0.00001
5.5 0.00014
5.55 0.0002
5.6 0.00011
5.65 0.00009
5.7 0.00016
5.75 0.00014
5.8 0.00013
5.85 0.00019
5.9 0.00013
5.95 0.0001
6 0.00011
6.05 0.00003
6.1 -0.00008
6.15 -0.00016
6.2 -0.00024
6.25 -0.00026
6.3 -0.00033
6.35 -0.00036
6.4 -0.00043
6.45 -0.00053
6.5 -0.00055
6.55 -0.00052
6.6 -0.00044
6.65 -0.00046
6.7 -0.00041
6.75 -0.00044
6.8 -0.00039
6.85 -0.00022
6.9 -0.00001
6.95 0.00023
7 0.00025
7.05 0.00015
7.1 0.00006
7.15 -0
7.2 -0.00012
7.25 -0.00008
7.3 0.00007
7.35 0.00018
7.4 0.00013
7.45 0.00006
7.5 0.00008
7.55 0.00021
7.6 0.00039
7.65 0.00049
7.7 0.00042
7.75 0.0004
7.8 0.00024
7.85 0.00017
7.9 0.0002
7.95 0.00012
8 0.00022
8.05 0.00028
8.1 0.00016
8.15 0.00006
8.2 0.00001
8.25 -0.00015
8.3 -0.00024
8.35 -0.00033
8.4 -0.00032
8.45 -0.00023
8.5 -0.00012
8.55 -0
8.6 -0.00002
8.65 -0.00002
8.7 0.00004
8.75 0.00003
8.8 0.00011
8.85 0.00027
8.9 0.00031
8.95 0.00046
9 0.00059
9.05 0.00055
9.1 0.00055
9.15 0.0006
9.2 0.00069
9.25 0.00076
9.3 0.00083
9.35 0.00091
9.4 0.00105
9.45 0.0012
9.5 0.00118
9.55 0.00113
9.6 0.0011
9.65 0.00109
9.7 0.00095
9.75 0.00081
9.8 0.00075
9.85 0.00074
9.9 0.00073
9.95 0.00058
10 0.00057
10.05 0.00053
10.1 0.00053
10.15 0.00037
10.2 0.00034
10.25 0.0003
10.3 0.0001
10.35 0.00001
10.4 -0.00007
10.45 -0.00026
10.5 -0.00048
10.55 -0.00051
10.6 -0.00053
10.65 -0.00041
10.7 -0.00037
10.75 -0.00027
10.8 -0.00005
10.85 0.00011
10.9 0.00015
10.95 0.00016
11 0.00026
11.05 0.00017
11.1 0.00001
11.15 -0.00022
11.2 -0.00049
11.25 -0.00069
11.3 -0.00063
11.35 -0.00042
11.4 -0.00017
11.45 -0.00013
11.5 0.00006
11.55 0.00025
11.6 0.00048
11.65 0.00046
11.7 0.00048
11.75 0.00056
11.8 0.00056
11.85 0.00053
11.9 0.00043
11.95 0.00027
12 0.0001
12.05 -0.00005
12.1 -0.00001
12.15 -0.00006
12.2 -0.00009
12.25 -0.00021
12.3 -0.00034
12.35 -0.00033
12.4 -0.00029
12.45 -0.00027
12.5 -0.00029
12.55 -0.00029
12.6 -0.00021
12.65 -0
12.7 0.00014
12.75 0.00029
12.8 0.00028
12.85 0.00024
12.9 0.00007
12.95 -0.00016
13 -0.00026
13.05 -0.00018
13.1 -0.00004
13.15 0.00005
13.2 0.00023
13.25 0.0004
13.3 0.00042
13.35 0.00046
13.4 0.00036
13.45 0.0002
13.5 0.00007
13.55 0.0001
13.6 -0.00005
13.65 -0.00014
13.7 -0.00025
13.75 -0.00029
13.8 -0.00038
13.85 -0.00047
13.9 -0.00064
13.95 -0.00072
14 -0.00076
14.05 -0.00082
14.1 -0.00088
14.15 -0.001
14.2 -0.00091
14.25 -0.00072
14.3 -0.00058
14.35 -0.00052
14.4 -0.00059
14.45 -0.00071
14.5 -0.00083
14.55 -0.00093
14.6 -0.00105
14.65 -0.0009
14.7 -0.00075
14.75 -0.0006
14.8 -0.00047
14.85 -0.00025
14.9 -0.00016
14.95 -0.00011
15 0.00005
15.05 0.00003
15.1 -0.00002
15.15 -0.00017
15.2 -0.0003
15.25 -0.00026
15.3 -0.00019
15.35 -0.00007
15.4 0.00017
15.45 0.00019
15.5 0.00015
15.55 0.00015
15.6 0.00024
15.65 0.00042
15.7 0.0004
15.75 0.00031
15.8 0.00011
15.85 0.00004
15.9 -0.00003
15.95 -0.00005
16 -0.00012
16.05 -0.00012
16.1 -0.00014
16.15 -0.00027
16.2 -0.00025
16.25 -0.00013
16.3 -0.00018
16.35 -0.00005
16.4 -0.00005
16.45 -0.00008
16.5 -0.00021
16.55 -0.00039
16.6 -0.00036
16.65 -0.00043
16.7 -0.00037
16.75 -0.00031
16.8 -0.00027
16.85 -0.00008
16.9 -0.00009
16.95 0.00001
17 0.00009
17.05 0.00013
17.1 0.00015
17.15 0.00008
17.2 0.0001
17.25 0.0002
17.3 0.00023
17.35 0.00016
17.4 0.00002
17.45 0.00008
17.5 0.00021
17.55 0.00022
17.6 0.00037
17.65 0.00045
17.7 0.00045
17.75 0.00049
17.8 0.00048
17.85 0.00052
17.9 0.00043
17.95 0.00039
18 0.00034
18.05 0.00043
18.1 0.00052
18.15 0.0004
18.2 0.00032
18.25 0.00034
18.3 0.00033
18.35 0.00026
18.4 0.00032
18.45 0.00034
18.5 0.00035
18.55 0.00038
18.6 0.00038
18.65 0.00042
18.7 0.00052
18.75 0.00067
18.8 0.00073
18.85 0.00077
18.9 0.0006
18.95 0.00041
19 0.00033
19.05 0.00012
19.1 -0.00004
19.15 -0.00012
19.2 -0.00008
19.25 0
19.3 -0.00007
19.35 -0.00013
19.4 -0.00016
19.45 -0.00027
19.5 -0.00021
19.55 -0.00017
19.6 -0.00027
19.65 -0.00017
19.7 -0.00011
19.75 -0.00017
19.8 -0.00004
19.85 -0.00008
19.9 -0.00002
19.95 0.00001
20 -0.00001
20.05 -0.0001
20.1 -0.00011
20.15 -0.00016
20.2 -0.00009
20.25 -0.00015
20.3 -0.00016
20.35 -0.0002
20.4 -0.00017
20.45 -0.00028
20.5 -0.00031
20.55 -0.00043
20.6 -0.00062
20.65 -0.00058
20.7 -0.00047
20.75 -0.00035
20.8 -0.00032
20.85 -0.00018
20.9 -0.00021
20.95 -0.00021
21 -0.00019
21.05 -0.00023
21.1 -0.0002
21.15 -0.00011
21.2 -0.00004
21.25 0.00006
21.3 -0.00001
21.35 0
21.4 -0.00008
21.45 -0.00026
21.5 -0.00028
21.55 -0.00013
21.6 -0.00016
21.65 -0.00008
21.7 0.00003
21.75 0.00012
21.8 0.00025
21.85 0.00045
21.9 0.00048
21.95 0.00038
22 0.00023
22.05 0.00019
22.1 0.00013
22.15 0.00024
22.2 0.00017
22.25 0.00015
22.3 0.0001
22.35 0.00016
22.4 0.00006
22.45 -0.00011
22.5 -0.00034
22.55 -0.00043
22.6 -0.00059
22.65 -0.00063
22.7 -0.00061
22.75 -0.0006
22.8 -0.00044
22.85 -0.00037
22.9 -0.0003
22.95 -0.00027
23 -0.00017
23.05 -0.00018
23.1 -0.00025
23.15 -0.00033
23.2 -0.00037
23.25 -0.00038
23.3 -0.00049
23.35 -0.00037
23.4 -0.00022
23.45 0.00002
23.5 0.00022
23.55 0.00022
23.6 0.00012
23.65 0
23.7 -0.00013
23.75 -0.00008
23.8 0.00001
23.85 0.0001
23.9 0.0003
23.95 0.00046
24 0.00062
24.05 0.0008
24.1 0.00083
24.15 0.00069
24.2 0.00063
24.25 0.0007
24.3 0.00072
24.35 0.00083
24.4 0.00084
24.45 0.00072
24.5 0.00046
24.55 0.00036
24.6 0.00027
24.65 0.00007
24.7 -0.00011
24.75 -0.00022
24.8 -0.00013
24.85 -0.00002
24.9 -0.00005
24.95 0.00003
25 -0.00006
25.05 -0.00011
25.1 -0.00023
25.15 -0.00041
25.2 -0.00039
25.25 -0.00025
25.3 -0.00014
25.35 -0.00009
25.4 0.00002
25.45 0.00011
25.5 0.00021
25.55 0.00032
25.6 0.00029
25.65 0.00016
25.7 0.00006
25.75 0.00008
25.8 0.00002
25.85 -0.00001
25.9 -0.00008
25.95 -0.00008
26 -0.00004
26.05 -0.00005
26.1 -0.00012
26.15 -0.00022
26.2 -0.00017
26.25 -0.00012
26.3 -0.00021
26.35 -0.0001
26.4 -0.00007
26.45 -0.00012
26.5 -0.00015
26.55 -0
26.6 0.00021
26.65 0.00046
26.7 0.00064
26.75 0.00082
26.8 0.00073
26.85 0.00047
26.9 0.0002
26.95 0.00002
27 -0.00023
27.05 -0.00027
27.1 -0.00024
27.15 -0.00014
27.2 -0.00018
27.25 -0.00034
27.3 -0.00033
27.35 -0.00043
27.4 -0.00054
27.45 -0.00046
27.5 -0.00044
27.55 -0.00026
27.6 0.00002
27.65 0.00029
27.7 0.00033
27.75 0.00047
27.8 0.0006
27.85 0.0007
27.9 0.00079
27.95 0.00075
28 0.00078
28.05 0.00073
28.1 0.00052
28.15 0.00018
28.2 -0.00006
28.25 -0.00031
28.3 -0.00041
28.35 -0.00057
28.4 -0.00063
28.45 -0.00074
28.5 -0.00083
28.55 -0.00073
28.6 -0.00061
28.65 -0.00053
28.7 -0.00048
28.75 -0.0003
28.8 -0.00004
28.85 0.00019
28.9 0.00042
28.95 0.00045
29 0.00035
29.05 0.00013
29.1 -0.00008
29.15 -0.00022
29.2 -0.00018
29.25 -0.00024
29.3 -0.00038
29.35 -0.00035
29.4 -0.00035
29.45 -0.00035
29.5 -0.0004
29.55 -0.00045
29.6 -0.00033
29.65 -0.00026
29.7 -0.0001
29.75 0.00003
29.8 0.00018
29.85 0.00042
29.9 0.00053
29.95 0.00066
30 0.00067
30.05 0.0005
30.1 0.00037
30.15 0.00019
30.2 -0
30.25 -0.00024
30.3 -0.00028
30.35 -0.00015
30.4 -0.00001
30.45 -0.00005
30.5 0.00005
30.55 0.00013
30.6 0.00023
30.65 0.00023
30.7 0.00037
30.75 0.00047
30.8 0.00039
30.85 0.00024
30.9 0.0002
30.95 0
31 -0.00001
31.05 -0.00014
31.1 -0.00026
31.15 -0.00018
31.2 -0.00008
31.25 -0.00001
31.3 0.00008
31.35 0.00026
31.4 0.00021
31.45 0.00017
31.5 0.00002
31.55 -0.00008
31.6 -0.00014
31.65 -0.0002
31.7 -0.00036
31.75 -0.00048
31.8 -0.00049
31.85 -0.00061
31.9 -0.00059
31.95 -0.00066
32 -0.00059
32.05 -0.00063
32.1 -0.00064
32.15 -0.00074
32.2 -0.00086
32.25 -0.00093
32.3 -0.00081
32.35 -0.00063
32.4 -0.00057
32.45 -0.00062
32.5 -0.00057
32.55 -0.00044
32.6 -0.00034
32.65 -0.00016
32.7 -0.00014
32.75 -0.00002
32.8 0.00014
32.85 0.00012
32.9 0.00012
32.95 0.00005
33 0.00009
33.05 0.00013
33.1 0.00023
33.15 0.00042
33.2 0.00048
33.25 0.00044
33.3 0.00038
33.35 0.00043
33.4 0.00032
33.45 0.00019
33.5 0.00016
33.55 0.00018
33.6 0.00026
33.65 0.00043
33.7 0.00057
33.75 0.00063
33.8 0.00064
33.85 0.00052
33.9 0.00033
33.95 0.00008
34 -0.00023
34.05 -0.00047
34.1 -0.00065
34.15 -0.00072
34.2 -0.00067
34.25 -0.00044
34.3 -0.00023
34.35 0.00003
34.4 0.00008
34.45 0.00027
34.5 0.00041
34.55 0.00044
34.6 0.00048
34.65 0.00055
34.7 0.00048
34.75 0.00037
34.8 0.00042
34.85 0.0004
34.9 0.00032
34.95 0.00034
35 0.00045
35.05 0.00052
35.1 0.00056
35.15 0.00048
35.2 0.0003
35.25 0.0001
35.3 0.00003
35.35 0.00012
35.4 0.00014
35.45 0.00003
35.5 0.00004
35.55 0.00007
35.6 0.00009
35.65 0.0002
35.7 0.00023
35.75 0.00029
35.8 0.00034
35.85 0.00022
35.9 0.00008
35.95 -0.00002
36 -0.00004
36.05 -0.00013
36.1 -0.00029
36.15 -0.0004
36.2 -0.00057
36.25 -0.0007
36.3 -0.00084
36.35 -0.00079
36.4 -0.00081
36.45 -0.00069
36.5 -0.00068
36.55 -0.00049
36.6 -0.00027
36.65 -0.00021
36.7 -0.00027
36.75 -0.00032
36.8 -0.00021
36.85 -0.00026
36.9 -0.00016
36.95 0.00008
37 0.00014
37.05 0.00026
37.1 0.00024
37.15 0.00007
37.2 0.00008
37.25 -0
37.3 -0.00001
37.35 -0.00009
37.4 -0.00012
37.45 -0.0002
37.5 -0.00032
37.55 -0.00039
37.6 -0.00038
37.65 -0.00025
37.7 -0.00016
37.75 -0.0002
37.8 -0.00015
37.85 -0.00003
37.9 -0.00002
37.95 -0.00002
38 0.00014
38.05 0.00029
38.1 0.00029
38.15 0.00033
38.2 0.00018
38.25 0.0001
38.3 0.00017
38.35 0.0002
38.4 0.00017
38.45 0.00025
38.5 0.00038
38.55 0.00043
38.6 0.00033
38.65 0.00038
38.7 0.00027
38.75 0.00021
38.8 0.00023
38.85 0.00028
38.9 0.00023
38.95 0.00028
39 0.00044
39.05 0.00047
39.1 0.00053
39.15 0.00066
39.2 0.00073
39.25 0.00067
39.3 0.00044
39.35 0.00019
39.4 0.00014
39.45 0.00001
39.5 0.00003
39.55 0.00005
39.6 0.00015
39.65 0.00033
39.7 0.00032
39.75 0.00026
39.8 0.00013
39.85 -0.00007
39.9 -0.00027
39.95 -0.00039
40 -0.00034
40.05 -0.00027
40.1 -0.00019
40.15 0.00002
40.2 0.00006
40.25 0.00021
40.3 0.00034
40.35 0.00038
40.4 0.00046
40.45 0.00056
40.5 0.0007
40.55 0.00074
40.6 0.0007
40.65 0.00048
40.7 0.00037
40.75 0.00023
40.8 0.00004
40.85 -0.00001
40.9 -0.00002
40.95 -0.00003
41 0.00001
41.05 0.00011
41.1 0.00014
41.15 -0.00001
41.2 -0.00001
41.25 -0.00006
41.3 -0.00025
41.35 -0.0005
41.4 -0.00068
41.45 -0.00082
41.5 -0.00099
41.55 -0.00102
41.6 -0.00099
41.65 -0.00097
41.7 -0.00094
41.75 -0.00083
41.8 -0.0008
41.85 -0.00072
41.9 -0.00052
41.95 -0.00041
42 -0.0004
42.05 -0.00051
42.1 -0.00057
42.15 -0.00057
42.2 -0.00061
42.25 -0.00066
42.3 -0.00066
42.35 -0.00074
42.4 -0.00085
42.45 -0.00094
42.5 -0.00106
42.55 -0.00096
42.6 -0.00096
42.65 -0.00084
42.7 -0.00087
42.75 -0.00099
42.8 -0.0009
42.85 -0.00072
42.9 -0.00068
42.95 -0.00076
43 -0.00079
43.05 -0.00089
43.1 -0.00114
43.15 -0.00154
43.2 -0.00188
43.25 -0.00243
43.3 -0.00312
43.35 -0.00372
43.4 -0.00444
43.45 -0.00527
43.5 -0.00616
43.55 -0.0072
43.6 -0.00819
43.65 -0.00926
43.7 -0.01027
43.75 -0.0116
43.8 -0.01307
43.85 -0.01482
43.9 -0.01649
43.95 -0.0182
44 -0.02017
44.05 -0.02242
44.1 -0.02481
44.15 -0.02739
44.2 -0.02987
44.25 -0.03226
44.3 -0.03472
44.35 -0.03716
44.4 -0.0396
44.45 -0.04189
44.5 -0.04427
44.55 -0.04654
44.6 -0.04868
44.65 -0.05071
44.7 -0.05237
44.75 -0.05366
44.8 -0.05485
44.85 -0.0557
44.9 -0.05634
44.95 -0.0566
45 -0.05651
45.05 -0.05614
45.1 -0.05557
45.15 -0.05476
45.2 -0.05394
45.25 -0.05308
45.3 -0.05196
45.35 -0.05074
45.4 -0.04948
45.45 -0.04841
45.5 -0.04739
45.55 -0.04668
45.6 -0.04621
45.65 -0.04593
45.7 -0.04578
45.75 -0.04547
45.8 -0.04514
45.85 -0.04502
45.9 -0.0451
45.95 -0.04513
46 -0.04506
46.05 -0.04476
46.1 -0.0444
46.15 -0.0439
46.2 -0.04316
46.25 -0.04213
46.3 -0.04098
46.35 -0.0394
46.4 -0.03737
46.45 -0.03487
46.5 -0.03197
46.55 -0.02873
46.6 -0.02508
46.65 -0.02088
46.7 -0.01629
46.75 -0.01121
46.8 -0.00595
46.85 -0.00039
46.9 0.00521
46.95 0.01089
47 0.01674
47.05 0.02248
47.1 0.02827
47.15 0.03379
47.2 0.03903
47.25 0.04418
47.3 0.04902
47.35 0.05352
47.4 0.05776
47.45 0.06168
47.5 0.06511
47.55 0.06806
47.6 0.07043
47.65 0.0725
47.7 0.07422
47.75 0.07566
47.8 0.07682
47.85 0.07756
47.9 0.07805
47.95 0.07806
48 0.07793
48.05 0.07766
48.1 0.07722
48.15 0.07661
48.2 0.07579
48.25 0.07491
48.3 0.07399
48.35 0.07287
48.4 0.0716
48.45 0.07015
48.5 0.0686
48.55 0.06722
48.6 0.0659
48.65 0.06469
48.7 0.06331
48.75 0.06194
48.8 0.06053
48.85 0.05911
48.9 0.05793
48.95 0.0569
49 0.05581
49.05 0.0546
49.1 0.05335
49.15 0.0521
49.2 0.05091
49.25 0.04974
49.3 0.04863
49.35 0.04762
49.4 0.04649
49.45 0.0455
49.5 0.04448
49.55 0.04335
49.6 0.04233
49.65 0.04127
49.7 0.04
49.75 0.03863
49.8 0.03713
49.85 0.03583
49.9 0.03465
49.95 0.03332
50 0.03206
50.05 0.03076
50.1 0.02924
50.15 0.02762
50.2 0.0261
50.25 0.02451
50.3 0.02315
50.35 0.02188
50.4 0.02048
50.45 0.01927
50.5 0.01807
50.55 0.01674
50.6 0.01535
50.65 0.01395
50.7 0.01264
50.75 0.01142
50.8 0.01019
50.85 0.00908
50.9 0.00798
50.95 0.00676
51 0.00566
51.05 0.00447
51.1 0.00333
51.15 0.00238
51.2 0.00154
51.25 0.00052
51.3 -0.00035
51.35 -0.00113
51.4 -0.0021
51.45 -0.00311
51.5 -0.00404
51.55 -0.005
51.6 -0.0059
51.65 -0.00678
51.7 -0.00752
51.75 -0.00806
51.8 -0.00839
51.85 -0.00868
51.9 -0.00912
51.95 -0.00959
52 -0.00989
52.05 -0.01033
52.1 -0.0108
52.15 -0.01123
52.2 -0.01162
52.25 -0.01184
52.3 -0.01214
52.35 -0.01228
52.4 -0.01237
52.45 -0.0125
52.5 -0.01257
52.55 -0.01275
52.6 -0.01295
52.65 -0.0131
52.7 -0.0131
52.75 -0.01306
52.8 -0.01312
52.85 -0.01303
52.9 -0.01291
52.95 -0.01282
53 -0.01292
53.05 -0.01296
53.1 -0.01293
53.15 -0.01284
53.2 -0.01275
53.25 -0.01281
53.3 -0.01273
53.35 -0.01278
53.4 -0.01279
53.45 -0.01266
53.5 -0.01263
53.55 -0.01267
53.6 -0.01254
53.65 -0.01239
53.7 -0.01217
53.75 -0.01198
53.8 -0.01191
53.85 -0.01168
53.9 -0.01146
53.95 -0.01114
54 -0.01082
54.05 -0.01061
54.1 -0.01042
54.15 -0.01035
54.2 -0.01019
54.25 -0.01015
54.3 -0.01005
54.35 -0.01004
54.4 -0.00997
54.45 -0.00991
54.5 -0.00969
54.55 -0.00959
54.6 -0.00955
54.65 -0.0096
54.7 -0.00951
54.75 -0.0094
54.8 -0.00912
54.85 -0.00879
54.9 -0.00852
54.95 -0.00835
55 -0.00834
55.05 -0.00834
55.1 -0.00842
55.15 -0.00834
55.2 -0.00805
55.25 -0.00783
55.3 -0.00757
55.35 -0.00733
55.4 -0.00719
55.45 -0.00708
55.5 -0.00698
55.55 -0.00703
55.6 -0.00698
55.65 -0.00685
55.7 -0.00665
55.75 -0.00658
55.8 -0.0065
55.85 -0.00633
55.9 -0.00619
55.95 -0.00614
56 -0.00623
56.05 -0.00612
56.1 -0.00601
56.15 -0.00597
56.2 -0.00598
56.25 -0.00594
56.3 -0.006
56.35 -0.0059
56.4 -0.00585
56.45 -0.0058
56.5 -0.00579
56.55 -0.00559
56.6 -0.00525
56.65 -0.00511
56.7 -0.00495
56.75 -0.00474
56.8 -0.00469
56.85 -0.00448
56.9 -0.00443
56.95 -0.00448
57 -0.00435
57.05 -0.00414
57.1 -0.00384
57.15 -0.00365
57.2 -0.00355
57.25 -0.00363
57.3 -0.00373
57.35 -0.00386
57.4 -0.00406
57.45 -0.00403
57.5 -0.00397
57.55 -0.00385
57.6 -0.00383
57.65 -0.00374
57.7 -0.00375
57.75 -0.00379
57.8 -0.00381
57.85 -0.00377
57.9 -0.00373
57.95 -0.00371
58 -0.00352
58.05 -0.00349
58.1 -0.00331
58.15 -0.00307
58.2 -0.00295
58.25 -0.00276
58.3 -0.00259
58.35 -0.00242
58.4 -0.00244
58.45 -0.00237
58.5 -0.0022
58.55 -0.00214
58.6 -0.00222
58.65 -0.00233
58.7 -0.00227
58.75 -0.00213
58.8 -0.00199
58.85 -0.00196
58.9 -0.00194
58.95 -0.00205
59 -0.00222
59.05 -0.00225
59.1 -0.00225
59.15 -0.00229
59.2 -0.00241
59.25 -0.00242
59.3 -0.00253
59.35 -0.00265
59.4 -0.00252
59.45 -0.00231
59.5 -0.00199
59.55 -0.00165
59.6 -0.00149
59.65 -0.00145
59.7 -0.00161
59.75 -0.00163
59.8 -0.00156
59.85 -0.0015
59.9 -0.00137
59.95 -0.00119
60 -0.0012
60.05 -0.00122
60.1 -0.00128
60.15 -0.0015
60.2 -0.00155
60.25 -0.00145
60.3 -0.00148
60.35 -0.0016
60.4 -0.00157
60.45 -0.00167
60.5 -0.00186
60.55 -0.00183
60.6 -0.00172
60.65 -0.00176
60.7 -0.00176
60.75 -0.00169
60.8 -0.00158
60.85 -0.00153
60.9 -0.00136
60.95 -0.00127
61 -0.00125
61.05 -0.00119
61.1 -0.00103
61.15 -0.00093
61.2 -0.00088
61.25 -0.001
61.3 -0.00114
61.35 -0.00127
61.4 -0.00123
61.45 -0.00125
61.5 -0.00133
61.55 -0.00128
61.6 -0.0012
61.65 -0.00116
61.7 -0.00115
61.75 -0.0012
61.8 -0.00136
61.85 -0.0013
61.9 -0.0012
61.95 -0.00099
62 -0.00081
62.05 -0.00068
62.1 -0.00067
62.15 -0.00069
62.2 -0.00075
62.25 -0.00083
62.3 -0.00082
62.35 -0.00085
62.4 -0.0008
62.45 -0.00065
62.5 -0.00065
62.55 -0.00064
62.6 -0.00061
62.65 -0.00061
62.7 -0.00066
62.75 -0.00058
62.8 -0.00065
62.85 -0.00074
62.9 -0.00065
62.95 -0.00047
63 -0.0003
63.05 -0.00019
63.1 -0.00004
63.15 0.00012
63.2 0.0003
63.25 0.0003
63.3 0.00008
63.35 -0.00004
63.4 -0.00022
63.45 -0.00035
63.5 -0.00049
63.55 -0.00068
63.6 -0.00095
63.65 -0.00122
63.7 -0.00126
63.75 -0.00127
63.8 -0.00116
63.85 -0.00117
63.9 -0.00105
63.95 -0.00087
64 -0.00062
64.05 -0.0006
64.1 -0.00058
64.15 -0.00044
64.2 -0.00022
64.25 -0.00021
64.3 -0.00035
64.35 -0.00036
64.4 -0.00051
64.45 -0.00073
64.5 -0.00072
64.55 -0.00068
64.6 -0.00063
64.65 -0.00061
64.7 -0.00058
64.75 -0.00051
64.8 -0.00034
64.85 -0.00021
64.9 -0.0002
64.95 -0.00027
65 -0.00027
65.05 -0.0003
65.1 -0.00045
65.15 -0.00048
65.2 -0.00055
65.25 -0.00073
65.3 -0.00079
65.35 -0.00084
65.4 -0.00085
65.45 -0.00068
65.5 -0.00058
65.55 -0.00036
65.6 -0.00021
65.65 -0.00019
65.7 -0.0002
65.75 -0.0001
65.8 0.00009
65.85 0.00023
65.9 0.00031
65.95 0.00045
66 0.00052
66.05 0.00065
66.1 0.00078
66.15 0.00087
66.2 0.00067
66.25 0.00047
66.3 0.00034
66.35 0.00016
66.4 -0.00012
66.45 -0.00031
66.5 -0.00054
66.55 -0.00078
66.6 -0.00081
66.65 -0.00071
66.7 -0.00072
66.75 -0.00056
66.8 -0.00036
66.85 -0.00031
66.9 -0.0004
66.95 -0.00059
67 -0.00075
67.05 -0.0008
67.1 -0.0007
67.15 -0.00058
67.2 -0.00037
67.25 -0.0003
67.3 -0.0002
67.35 -0.00005
67.4 0.00009
67.45 0.0001
67.5 0.00011
67.55 0.00011
67.6 0.00009
67.65 -0.00003
67.7 -0.00018
67.75 -0.00017
67.8 -0.00002
67.85 0.00018
67.9 0.0003
67.95 0.00021
68 0.00004
68.05 -0.00024
68.1 -0.00034
68.15 -0.0005
68.2 -0.00061
68.25 -0.00059
68.3 -0.00056
68.35 -0.00048
68.4 -0.00044
68.45 -0.00027
68.5 -0.00009
68.55 0.00005
68.6 0.00014
68.65 0.00014
68.7 0.00003
68.75 0.00002
68.8 0.00014
68.85 0.00008
68.9 0.00005
68.95 0.00015
69 0.00008
69.05 0.00017
69.1 0.00024
69.15 0.00013
69.2 -0.00007
69.25 -0.00013
69.3 -0.0003
69.35 -0.00036
69.4 -0.00046
69.45 -0.00052
69.5 -0.00039
69.55 -0.00021
69.6 -0.0002
69.65 -0.00014
69.7 0.00004
69.75 0.00026
69.8 0.00022
69.85 0.00017
69.9 0.00009
69.95 -0.00011
70 -0.00021
70.05 -0.00016
70.1 -0.00026
70.15 -0.00023
70.2 -0.00005
70.25 -0.00003
70.3 -0.00007
70.35 0.00002
70.4 -0.00007
70.45 -0.00009
70.5 -0.0001
70.55 0.00001
70.6 -0.00003
70.65 -0.00018
70.7 -0.00018
70.75 -0.00002
70.8 0.00002
70.85 0.0001
70.9 0.00017
70.95 0.00026
71 0.00019
71.05 0.00014
71.1 0.00007
71.15 -0.00008
71.2 -0.00007
71.25 -0.00017
71.3 -0.00035
71.35 -0.00061
71.4 -0.00068
71.45 -0.00061
71.5 -0.00039
71.55 -0.0002
71.6 -0.00023
71.65 -0.00029
71.7 -0.00025
71.75 -0.00032
71.8 -0.00024
71.85 -0.0003
71.9 -0.00025
71.95 -0.00017
72 -0.00018
72.05 -0.0001
72.1 -0.00008
72.15 0.00003
72.2 -0.00001
72.25 -0.00017
72.3 -0.00034
72.35 -0.00057
72.4 -0.00078
72.45 -0.00079
72.5 -0.00084
72.55 -0.00067
72.6 -0.00042
72.65 -0.00024
72.7 -0.00009
72.75 0.00013
72.8 0.00019
72.85 0.00032
72.9 0.00026
72.95 0.00028
73 0.00011
73.05 -0.0001
73.1 -0.00038
73.15 -0.00059
73.2 -0.00065
73.25 -0.00059
73.3 -0.00057
73.35 -0.00058
73.4 -0.00049
73.45 -0.00048
73.5 -0.0004
73.55 -0.00029
73.6 -0.00033
73.65 -0.00027
73.7 -0.00013
73.75 0
73.8 0.00006
73.85 0.00019
73.9 0.00018
73.95 0.00024
74 0.00013
74.05 0.00003
74.1 0.00012
74.15 0.00017
74.2 0.00013
74.25 -0.00002
74.3 0.00005
74.35 0.0001
74.4 0.00023
74.45 0.0004
74.5 0.00055
74.55 0.00053
74.6 0.00049
74.65 0.00055
74.7 0.00047
74.75 0.00029
74.8 0.00012
74.85 -0.00007
74.9 -0.00008
74.95 0.00005
75 0.0001
75.05 0.00022
75.1 0.0004
75.15 0.00038
75.2 0.00041
75.25 0.00044
75.3 0.00038
75.35 0.00032
75.4 0.00027
75.45 0.00007
75.5 0.00003
75.55 0.00014
75.6 0.00019
75.65 0.0002
75.7 0.00015
75.75 0.00009
75.8 0.00014
75.85 0.00006
75.9 -0.00006
75.95 -0.00025
76 -0.00023
76.05 -0.00031
76.1 -0.0002
76.15 -0.00021
76.2 -0.00016
76.25 -0.00002
76.3 -0.00003
76.35 -0.00003
76.4 0.00009
76.45 0.00011
76.5 -0.00001
76.55 -0.00007
76.6 0.00001
76.65 0.00006
76.7 0.00001
76.75 -0.00014
76.8 -0.00026
76.85 -0.00033
76.9 -0.00024
76.95 -0.00004
77 0.00007
77.05 0.00028
77.1 0.00045
77.15 0.00036
77.2 0.00042
77.25 0.00055
77.3 0.00053
77.35 0.00039
77.4 0.00032
77.45 0.00023
77.5 0.00027
77.55 0.00013
77.6 -0.00005
77.65 -0.00021
77.7 -0.00022
77.75 -0.00017
77.8 -0.00005
77.85 0.00015
77.9 0.00034
77.95 0.00038
78 0.00044
78.05 0.00041
78.1 0.00026
78.15 0.00026
78.2 0.00022
78.25 0.00015
78.3 0.00022
78.35 0.00009
78.4 0.00008
78.45 -0.00007
78.5 -0.0002
78.55 -0.00038
78.6 -0.00033
78.65 -0.0002
78.7 -0.00028
78.75 -0.00029
78.8 -0.00026
78.85 -0.00037
78.9 -0.00026
78.95 -0.00022
79 -0.00021
79.05 -0.00033
79.1 -0.00029
79.15 -0.00011
79.2 0.00004
79.25 0.00022
79.3 0.00031
79.35 0.00029
79.4 0.00015
79.45 0.00007
79.5 0.00001
79.55 -0.00012
79.6 -0.00011
79.65 -0.00008
79.7 -0.00017
79.75 -0.00031
79.8 -0.00025
79.85 -0.00033
79.9 -0.00049
79.95 -0.00041
80 -0.00023
80.05 -0.0002
80.1 -0.00028
80.15 -0.00043
80.2 -0.00058
80.25 -0.0006
80.3 -0.00066
80.35 -0.00068
80.4 -0.00057
80.45 -0.00045
80.5 -0.00023
80.55 0
80.6 0.00014
80.65 0.00033
80.7 0.00038
80.75 0.00053
80.8 0.00062
80.85 0.00053
80.9 0.00045
80.95 0.00021
81 0.00015
81.05 0.00002
81.1 -0.00003
81.15 -0.00007
81.2 -0.00014
81.25 -0.00019
81.3 -0.00024
81.35 -0.0004
81.4 -0.00041
81.45 -0.00051
81.5 -0.00066
81.55 -0.00075
81.6 -0.00085
81.65 -0.00083
81.7 -0.00081
81.75 -0.00069
81.8 -0.00066
81.85 -0.0007
81.9 -0.00067
81.95 -0.00049
82 -0.0003
82.05 -0.00005
82.1 0.00023
82.15 0.00048
82.2 0.00073
82.25 0.0009
82.3 0.00101
82.35 0.0009
82.4 0.00069
82.45 0.00038
82.5 0.00018
82.55 -0.00009
82.6 -0.00032
82.65 -0.00052
82.7 -0.00063
82.75 -0.00075
82.8 -0.0007
82.85 -0.00072
82.9 -0.00061
82.95 -0.00058
83 -0.00064
83.05 -0.00055
83.1 -0.00045
83.15 -0.00047
83.2 -0.00035
83.25 -0.00036
83.3 -0.00043
83.35 -0.00028
83.4 -0.00027
83.45 -0.00018
83.5 -0.00013
83.55 0
83.6 0.00023
83.65 0.0005
83.7 0.00074
83.75 0.00077
83.8 0.00072
83.85 0.00068
83.9 0.00065
83.95 0.00062
84 0.00069
84.05 0.00058
84.1 0.00047
84.15 0.00033
84.2 0.00014
84.25 0.0001
84.3 0.00017
84.35 0.00009
84.4 0.00013
84.45 0.00013
84.5 0.00003
84.55 0.0001
84.6 0.00003
84.65 0.00011
84.7 0.00025
84.75 0.00017
84.8 -0.00001
84.85 0.00001
84.9 0.00004
84.95 0.00008
85 -0.00004
85.05 0.00003
85.1 0.00006
85.15 0.0002
85.2 0.00031
85.25 0.00026
85.3 0.00013
85.35 0.00017
85.4 0.00026
85.45 0.0003
85.5 0.00038
85.55 0.00047
85.6 0.00045
85.65 0.00026
85.7 0.00006
85.75 -0.00003
85.8 -0.00022
85.85 -0.00032
85.9 -0.00031
85.95 -0.00033
86 -0.00033
86.05 -0.00034
86.1 -0.00025
86.15 -0.00015
86.2 -0.00006
86.25 -0.00015
86.3 -0.00031
86.35 -0.00047
86.4 -0.00044
86.45 -0.00039
86.5 -0.00033
86.55 -0.00029
86.6 -0.00025
86.65 -0.00024
86.7 -0.00023
86.75 -0.00029
86.8 -0.00043
86.85 -0.00053
86.9 -0.00063
86.95 -0.00058
87 -0.00061
87.05 -0.00054
87.1 -0.00037
87.15 -0.00026
87.2 -0.00013
87.25 -0.00017
87.3 -0.00012
87.35 -0.00006
87.4 0.00005
87.45 0.00026
87.5 0.0004
87.55 0.00036
87.6 0.00028
87.65 0.00008
87.7 -0.00009
87.75 -0.00034
87.8 -0.00041
87.85 -0.00056
87.9 -0.00045
87.95 -0.00036
88 -0.00025
88.05 -0.00022
88.1 -0.00004
88.15 0.00007
88.2 0.00003
88.25 0.00012
88.3 0.00015
88.35 0.00012
88.4 0.00013
88.45 -0.00001
88.5 -0.00009
88.55 0.00002
88.6 0.00024
88.65 0.00048
88.7 0.00049
88.75 0.00049
88.8 0.00029
88.85 0.00021
88.9 0.00027
88.95 0.00034
89 0.00037
89.05 0.00035
89.1 0.00027
89.15 0.00031
89.2 0.00036
89.25 0.0004
89.3 0.00032
89.35 0.00033
89.4 0.00044
89.45 0.00043
89.5 0.00046
89.55 0.00045
89.6 0.00041
89.65 0.00039
89.7 0.00026
89.75 0.00016
89.8 0.00012
89.85 0.00012
89.9 0.00014
89.95 0.00028
90 0.00044
90.05 0.00046
90.1 0.00036
90.15 0.00016
90.2 -0.00006
90.25 -0.00034
90.3 -0.00062
90.35 -0.00067
90.4 -0.00053
90.45 -0.00031
90.5 -0.00021
90.55 -0.00019
90.6 -0.0003
90.65 -0.00042
90.7 -0.00059
90.75 -0.00063
90.8 -0.00051
90.85 -0.00042
90.9 -0.00018
90.95 -0.0001
91 0.00004
91.05 0.0001
91.1 0.00001
91.15 -0.00003
91.2 -0.0002
91.25 -0.00019
91.3 -0.00025
91.35 -0.00034
91.4 -0.00041
91.45 -0.0003
91.5 -0.00012
91.55 0.00003
91.6 0.00022
91.65 0.00045
91.7 0.00058
91.75 0.0007
91.8 0.00062
91.85 0.00054
91.9 0.00044
91.95 0.00032
92 0.00008
92.05 -0.00005
92.1 -0.00002
92.15 -0.00004
92.2 -0.00011
92.25 -0.00001
92.3 0.00002
92.35 0.00015
92.4 0.00017
92.45 0.00021
92.5 0.00014
92.55 -0.00003
92.6 -0.00026
92.65 -0.00043
92.7 -0.00043
92.75 -0.00036
92.8 -0.00038
92.85 -0.00038
92.9 -0.00023
92.95 -0.00011
93 0.00013
93.05 0.00029
93.1 0.00045
93.15 0.00043
93.2 0.00024
93.25 0.00014
93.3 0.00001
93.35 -0.00017
93.4 -0.00025
93.45 -0.00021
93.5 -0.00026
93.55 -0.00014
93.6 0.00008
93.65 0.0001
93.7 0.00015
93.75 0.00009
93.8 0.00011
93.85 0.0002
93.9 0.00018
93.95 0.00005
94 -0
94.05 -0.00018
94.1 -0.00034
94.15 -0.00052
94.2 -0.00075
94.25 -0.00069
94.3 -0.00066
94.35 -0.00057
94.4 -0.00056
94.45 -0.00044
94.5 -0.00027
94.55 -0.00012
94.6 -0
94.65 0.00022
94.7 0.00031
94.75 0.0002
94.8 0.00021
94.85 0.00024
94.9 0.00029
94.95 0.0002
95 0.0002
95.05 0.00015
95.1 -0.00003
95.15 -0.00026
95.2 -0.00037
95.25 -0.00053
95.3 -0.00066
95.35 -0.00085
95.4 -0.00098
95.45 -0.00113
95.5 -0.00124
95.55 -0.00121
95.6 -0.00103
95.65 -0.00068
95.7 -0.00053
95.75 -0.00052
95.8 -0.00044
95.85 -0.00032
95.9 -0.00012
95.95 -0.00003
96 -0.00003
96.05 0.00006
96.1 0.00026
96.15 0.00035
96.2 0.00035
96.25 0.00043
96.3 0.0004
96.35 0.00026
96.4 0.00031
96.45 0.00024
96.5 0.00012
96.55 0.00003
96.6 -0.00008
96.65 -0.00005
96.7 -0.00009
96.75 -0.00026
96.8 -0.00048
96.85 -0.00049
96.9 -0.00041
96.95 -0.00028
97 -0.00012
97.05 -0.00001
97.1 0.00004
97.15 0.00016
97.2 0.00023
97.25 0.00027
97.3 0.00031
97.35 0.00037
97.4 0.00027
97.45 0.0003
97.5 0.0004
97.55 0.00058
97.6 0.00074
97.65 0.00066
97.7 0.00072
97.75 0.00062
97.8 0.00041
97.85 0.00019
97.9 0.00002
97.95 -0.00021
98 -0.00029
98.05 -0.00029
98.1 -0.0004
98.15 -0.00042
98.2 -0.00027
98.25 -0.0002
98.3 -0.00002
98.35 0.00025
98.4 0.00039
98.45 0.00059
98.5 0.00082
98.55 0.00103
98.6 0.001
98.65 0.00083
98.7 0.00077
98.75 0.00073
98.8 0.0007
98.85 0.00054
98.9 0.00031
98.95 0.0002
99 0.00011
99.05 0
99.1 -0.00006
99.15 -0.00003
99.2 -0.00006
99.25 0
99.3 -0.00003
99.35 -0.00013
99.4 -0.00033
99.45 -0.00032
99.5 -0.00026
99.55 -0.00011
99.6 0
99.65 0.00022
99.7 0.00029
99.75 0.00038
99.8 0.00028
99.85 0.00014
99.9 0.00015
99.95 0.00021
