0 0
0.05 0.00061
0.1 0.00103
0.15 0.00201
0.2 0.00327
0.25 0.00395
0.3 0.00469
0.35 0.00485
0.4 0.00519
0.45 0.00502
0.5 0.00524
0.55 0.00553
0.6 0.00585
0.65 0.00627
0.7 0.00662
0.75 0.00681
0.8 0.00684
0.85 0.00678
0.9 0.00691
0.95 0.00678
1 0.00647
1.05 0.00619
1.1 0.00616
1.15 0.00623
1.2 0.00627
1.25 0.00599
1.3 0.00585
1.35 0.00554
1.4 0.00498
1.45 0.00409
1.5 0.00318
1.55 0.00241
1.6 0.00233
1.65 0.00246
1.7 0.00289
1.75 0.00311
1.8 0.00294
1.85 0.00238
1.9 0.00217
1.95 0.00182
2 0.00195
2.05 0.00165
2.1 0.00166
2.15 0.00184
2.2 0.00178
2.25 0.00145
2.3 0.00121
2.35 0.00101
2.4 0.00089
2.45 0.0009
2.5 0.00102
2.55 0.00146
2.6 0.00158
2.65 0.00129
2.7 0.00146
2.75 0.0014
2.8 0.00157
2.85 0.00179
2.9 0.00208
2.95 0.00198
3 0.00149
3.05 0.00084
3.1 0.00078
3.15 0.00092
3.2 0.00105
3.25 0.00094
3.3 0.00133
3.35 0.00154
3.4 0.00157
3.45 0.00161
3.5 0.00149
3.55 0.00115
3.6 0.00087
3.65 0.00104
3.7 0.00133
3.75 0.00187
3.8 0.00201
3.85 0.00237
3.9 0.00243
3.95 0.00203
4 0.00151
4.05 0.00086
4.1 0.00035
4.15 0.00014
4.2 0.00031
4.25 0.00076
4.3 0.00146
4.35 0.00156
4.4 0.00158
4.45 0.00151
4.5 0.00145
4.55 0.00184
4.6 0.0021
4.65 0.00224
4.7 0.00242
4.75 0.00256
4.8 0.00215
4.85 0.002
4.9 0.00201
4.95 0.00192
5 0.00188
5.05 0.00207
5.1 0.00184
5.15 0.00136
5.2 0.00135
5.25 0.00115
5.3 0.00068
5.35 0.00054
5.4 0.00008
5.45 0.00005
5.5 -0.00015
5.55 -0.00013
5.6 -0.00024
5.65 -0.00013
5.7 0.00035
5.75 0.0003
5.8 0.00032
5.85 0.00009
5.9 0.00041
5.95 0.00048
6 0.00016
6.05 -0.00011
6.1 -0.00003
6.15 0.00043
6.2 0.00085
6.25 0.00136
6.3 0.00147
6.35 0.00169
6.4 0.00178
6.45 0.00172
6.5 0.00166
6.55 0.00112
6.6 0.00066
6.65 0.00023
6.7 0.00009
6.75 -0.00023
6.8 -0.00075
6.85 -0.00136
6.9 -0.00162
6.95 -0.00188
7 -0.00211
7.05 -0.00157
7.1 -0.00073
7.15 0.00005
7.2 0.00034
7.25 0.00065
7.3 0.00076
7.35 0.00072
7.4 0.00097
7.45 0.0009
7.5 0.00044
7.55 -0.00008
7.6 -0.00007
7.65 -0.00034
7.7 -0.00045
7.75 -0.00009
7.8 0.00064
7.85 0.0015
7.9 0.00238
7.95 0.00256
8 0.00221
8.05 0.00209
8.1 0.00173
8.15 0.0014
8.2 0.00148
8.25 0.00114
8.3 0.00086
8.35 0.00081
8.4 0.00051
8.45 0.00061
8.5 0.00051
8.55 0.00013
8.6 -0.00032
8.65 -0.00058
8.7 -0.00064
8.75 -0.00062
8.8 -0.00027
8.85 0.0003
8.9 0.00098
8.95 0.00118
9 0.00117
9.05 0.00088
9.1 0.00103
9.15 0.00103
9.2 0.00109
9.25 0.0008
9.3 0.00069
9.35 0.00059
9.4 0.00071
9.45 0.001
9.5 0.0008
9.55 0.00072
9.6 0.00058
9.65 0.00086
9.7 0.00116
9.75 0.00094
9.8 0.00084
9.85 0.00041
9.9 0
9.95 -0.00034
10 -0.00017
10.05 0.00041
10.1 0.00053
10.15 0.00018
10.2 0.00037
10.25 0.00061
10.3 0.00063
10.35 0.00051
10.4 -0
10.45 -0.00052
10.5 -0.00106
10.55 -0.00109
10.6 -0.00058
10.65 0.00024
10.7 0.00091
10.75 0.00167
10.8 0.00162
10.85 0.00155
10.9 0.00152
10.95 0.00132
11 0.00071
11.05 0.00012
11.1 0.00013
11.15 0.0004
11.2 0.00017
11.25 -0.00015
11.3 -0.00059
11.35 -0.00043
11.4 -0.00053
11.45 -0.00086
11.5 -0.00095
11.55 -0.00074
11.6 -0.00054
11.65 -0.0002
11.7 0.00046
11.75 0.00064
11.8 0.00042
11.85 0.00021
11.9 0.00021
11.95 0.00052
12 0.00102
12.05 0.00153
12.1 0.00199
12.15 0.00198
12.2 0.0019
12.25 0.00197
12.3 0.00191
12.35 0.00132
12.4 0.00099
12.45 0.00089
12.5 0.00112
12.55 0.00108
12.6 0.00119
12.65 0.00083
12.7 0.00074
12.75 0.00088
12.8 0.00064
12.85 0.0003
12.9 -0.00016
12.95 -0.00012
13 0.00026
13.05 0.00021
13.1 0.00037
13.15 0.00054
13.2 0.0006
13.25 0.00046
13.3 0.00042
13.35 0.0005
13.4 0.00052
13.45 0.00062
13.5 0.00094
13.55 0.00108
13.6 0.00071
13.65 0.00021
13.7 -0.00049
13.75 -0.00108
13.8 -0.00128
13.85 -0.00129
13.9 -0.00152
13.95 -0.00184
14 -0.00147
14.05 -0.00103
14.1 -0.00087
14.15 -0.00078
14.2 -0.00038
14.25 -0.00003
14.3 -0.00012
14.35 -0.00029
14.4 -0.00077
14.45 -0.00108
14.5 -0.00128
14.55 -0.00135
14.6 -0.00114
14.65 -0.00092
14.7 -0.00053
14.75 0.00014
14.8 0.00081
14.85 0.00141
14.9 0.00184
14.95 0.00192
15 0.00222
15.05 0.00195
15.1 0.00151
15.15 0.0014
15.2 0.00113
15.25 0.00074
15.3 0.00064
15.35 0.0005
15.4 0.00041
15.45 0.00055
15.5 0.00062
15.55 0.00058
15.6 0.00014
15.65 -0.00027
15.7 -0.00033
15.75 -0.00077
15.8 -0.00125
15.85 -0.00144
15.9 -0.00185
15.95 -0.00225
16 -0.00242
16.05 -0.00252
16.1 -0.0028
16.15 -0.00303
16.2 -0.00252
16.25 -0.00241
16.3 -0.0024
16.35 -0.00229
16.4 -0.00234
16.45 -0.00185
16.5 -0.00136
16.55 -0.00049
16.6 -0.0002
16.65 0.00045
16.7 0.00072
16.75 0.00087
16.8 0.00122
16.85 0.0011
16.9 0.00101
16.95 0.00108
17 0.00111
17.05 0.00108
17.1 0.00079
17.15 0.00085
17.2 0.00049
17.25 0.00063
17.3 0.00071
17.35 0.00033
17.4 -0.00032
17.45 -0.00107
17.5 -0.00168
17.55 -0.00232
17.6 -0.00217
17.65 -0.00212
17.7 -0.00225
17.75 -0.00184
17.8 -0.00127
17.85 -0.00046
17.9 -0.00006
17.95 0.00022
18 -0.00001
18.05 -0.00041
18.1 -0.00034
18.15 -0.00042
18.2 -0.00005
18.25 0.00052
18.3 0.0009
18.35 0.00122
18.4 0.00125
18.45 0.00151
18.5 0.00127
18.55 0.00098
18.6 0.00099
18.65 0.00126
18.7 0.00167
18.75 0.0015
18.8 0.00127
18.85 0.0014
18.9 0.00134
18.95 0.00127
19 0.00147
19.05 0.00169
19.1 0.00203
19.15 0.00214
19.2 0.0017
19.25 0.00117
19.3 0.00052
19.35 0.00005
19.4 -0.00055
19.45 -0.00076
19.5 -0.00049
19.55 -0.00035
19.6 0
19.65 0.00021
19.7 0.00049
19.75 0.00059
19.8 0.00073
19.85 0.0011
19.9 0.00153
19.95 0.00189
20 0.00228
20.05 0.00219
20.1 0.00202
20.15 0.00168
20.2 0.00111
20.25 0.00028
20.3 -0.00056
20.35 -0.00083
20.4 -0.00076
20.45 -0.00034
20.5 -0.00029
20.55 0.00011
20.6 0.00021
20.65 0.00053
20.7 0.00082
20.75 0.00129
20.8 0.00116
20.85 0.00065
20.9 0.00005
20.95 0.00006
21 0.00043
21.05 0.0003
21.1 0.00001
21.15 0.00022
21.2 0.00061
21.25 0.0008
21.3 0.0011
21.35 0.00112
21.4 0.00078
21.45 0.00069
21.5 0.00068
21.55 0.00051
21.6 -0.00007
21.65 -0.00029
21.7 -0.00057
21.75 -0.00104
21.8 -0.00088
21.85 -0.00035
21.9 0.00011
21.95 0.00019
22 0.00007
22.05 0.00017
22.1 0.00015
22.15 -0.00021
22.2 -0.00089
22.25 -0.00168
22.3 -0.00183
22.35 -0.00146
22.4 -0.00126
22.45 -0.00147
22.5 -0.00159
22.55 -0.00131
22.6 -0.00148
22.65 -0.00171
22.7 -0.00171
22.75 -0.00197
22.8 -0.00209
22.85 -0.00235
22.9 -0.00218
22.95 -0.00222
23 -0.00193
23.05 -0.00151
23.1 -0.00079
23.15 -0.00008
23.2 0.00001
23.25 -0.00012
23.3 -0.00011
23.35 0.00008
23.4 0.00061
23.45 0.00061
23.5 0.00093
23.55 0.00116
23.6 0.00085
23.65 0.00061
23.7 0.0004
23.75 0.00044
23.8 0.00032
23.85 -0.00006
23.9 -0.00035
23.95 -0.00082
24 -0.00125
24.05 -0.00141
24.1 -0.00144
24.15 -0.00111
24.2 -0.00046
24.25 -0.0004
24.3 -0.00069
24.35 -0.00102
24.4 -0.00157
24.45 -0.00185
24.5 -0.00203
24.55 -0.00197
24.6 -0.00163
24.65 -0.00105
24.7 -0.0004
24.75 -0.00007
24.8 -0.00025
24.85 -0.00021
24.9 -0.00021
24.95 0.00008
25 -0.00006
25.05 -0.00021
25.1 -0.0001
25.15 -0.0004
25.2 -0.00072
25.25 -0.00102
25.3 -0.00089
25.35 -0.00075
25.4 -0.00066
25.45 -0.0005
25.5 -0.00031
25.55 0.00022
25.6 0.00013
25.65 0.00009
25.7 0.00024
25.75 0.00037
25.8 0.00082
25.85 0.00094
25.9 0.00131
25.95 0.00167
26 0.00133
26.05 0.00116
26.1 0.00069
26.15 0.00022
26.2 0.00006
26.25 -0.00013
26.3 -0.00047
26.35 -0.00046
26.4 -0.00007
26.45 -0.00013
26.5 0.00019
26.55 0.00025
26.6 0.00049
26.65 0.00022
26.7 0.00045
26.75 0.00086
26.8 0.00119
26.85 0.00113
26.9 0.00082
26.95 0.00054
27 0.00071
27.05 0.00115
27.1 0.00139
27.15 0.00159
27.2 0.0017
27.25 0.00184
27.3 0.00157
27.35 0.00159
27.4 0.00147
27.45 0.00112
27.5 0.00107
27.55 0.00084
27.6 0.00057
27.65 0.00061
27.7 0.00043
27.75 0.00063
27.8 0.00043
27.85 0.0003
27.9 0.00035
27.95 0.0002
28 0.00013
28.05 -0.00015
28.1 -0.00018
28.15 -0.00007
28.2 0.00019
28.25 0.00049
28.3 0.00037
28.35 -0.00014
28.4 -0.00083
28.45 -0.00119
28.5 -0.00132
28.55 -0.00102
28.6 -0.0006
28.65 -0.00019
28.7 0.0004
28.75 0.00052
28.8 0.00016
28.85 -0.00005
28.9 0.00008
28.95 0.00012
29 0.00038
29.05 0.00039
29.1 0.00049
29.15 0.00016
29.2 0.00034
29.25 0.0006
29.3 0.00099
29.35 0.00152
29.4 0.00142
29.45 0.00109
29.5 0.00078
29.55 0.00073
29.6 0.00051
29.65 -0.00013
29.7 -0.00057
29.75 -0.00059
29.8 -0.00033
29.85 -0.00004
29.9 -0.00021
29.95 -0.00037
30 -0.00083
30.05 -0.00126
30.1 -0.00167
30.15 -0.00219
30.2 -0.00261
30.25 -0.00229
30.3 -0.00152
30.35 -0.00118
30.4 -0.00049
30.45 0.00034
30.5 0.00054
30.55 0.00093
30.6 0.00123
30.65 0.00118
30.7 0.00097
30.75 0.00081
30.8 0.00056
30.85 0.00031
30.9 -0.00006
30.95 0.00009
31 0.00032
31.05 0.0003
31.1 0.00005
31.15 -0.00042
31.2 -0.00058
31.25 -0.00076
31.3 -0.0009
31.35 -0.00135
31.4 -0.00111
31.45 -0.00075
31.5 -0.00056
31.55 -0.00018
31.6 0.00043
31.65 0.00057
31.7 0.00099
31.75 0.0008
31.8 0.00049
31.85 0.0002
31.9 -0.00027
31.95 -0.00079
32 -0.00074
32.05 -0.00048
32.1 -0.00019
32.15 0.0001
32.2 0.00055
32.25 0.00118
32.3 0.00175
32.35 0.00234
32.4 0.00207
32.45 0.00204
32.5 0.00218
32.55 0.00234
32.6 0.00261
32.65 0.00255
32.7 0.00266
32.75 0.00268
32.8 0.0024
32.85 0.00194
32.9 0.00158
32.95 0.00153
33 0.00132
33.05 0.00061
33.1 0.00046
33.15 -0.00007
33.2 -0.00039
33.25 -0.00047
33.3 -0.00074
33.35 -0.00099
33.4 -0.00081
33.45 -0.00076
33.5 -0.00038
33.55 -0.00049
33.6 -0.00091
33.65 -0.00143
33.7 -0.00209
33.75 -0.00201
33.8 -0.00205
33.85 -0.00202
33.9 -0.00228
33.95 -0.00264
34 -0.00256
34.05 -0.00244
34.1 -0.0022
34.15 -0.00188
34.2 -0.00146
34.25 -0.00153
34.3 -0.00142
34.35 -0.00158
34.4 -0.00194
34.45 -0.0021
34.5 -0.00199
34.55 -0.00208
34.6 -0.00172
34.65 -0.00101
34.7 -0.00073
34.75 -0.00011
34.8 0.00029
34.85 0.00067
34.9 0.00109
34.95 0.00124
35 0.00083
35.05 0.00025
35.1 -0.0004
35.15 -0.00057
35.2 -0.00096
35.25 -0.00092
35.3 -0.00066
35.35 -0.00077
35.4 -0.00045
35.45 -0.00033
35.5 -0.00013
35.55 0.00038
35.6 0.00061
35.65 0.00032
35.7 0.00043
35.75 0.00013
35.8 -0.00044
35.85 -0.00082
35.9 -0.00067
35.95 -0.00095
36 -0.00064
36.05 -0.00004
36.1 0.00048
36.15 0.00034
36.2 0.00039
36.25 0.00058
36.3 0.00082
36.35 0.00121
36.4 0.00171
36.45 0.00156
36.5 0.00094
36.55 0.00031
36.6 -0.00042
36.65 -0.00094
36.7 -0.00094
36.75 -0.00097
36.8 -0.00074
36.85 -0.00098
36.9 -0.00073
36.95 -0.00019
37 0.00005
37.05 -0.00014
37.1 -0.00002
37.15 -0.00031
37.2 -0.00044
37.25 -0.00088
37.3 -0.00092
37.35 -0.0012
37.4 -0.00135
37.45 -0.00133
37.5 -0.00115
37.55 -0.00126
37.6 -0.00101
37.65 -0.0005
37.7 -0.00031
37.75 -0.00058
37.8 -0.00105
37.85 -0.0015
37.9 -0.00128
37.95 -0.00065
38 -0.00045
38.05 -0.00022
38.1 0.00035
38.15 0.00072
38.2 0.00094
38.25 0.00113
38.3 0.00111
38.35 0.00081
38.4 0.00024
38.45 -0.00056
38.5 -0.00135
38.55 -0.002
38.6 -0.00223
38.65 -0.00177
38.7 -0.00097
38.75 -0.0002
38.8 0.0001
38.85 -0.00012
38.9 -0.00057
38.95 -0.00039
39 -0.00049
39.05 -0.00052
39.1 -0.00052
39.15 -0.0005
39.2 -0.00011
39.25 0.00053
39.3 0.00072
39.35 0.0009
39.4 0.0011
39.45 0.00091
39.5 0.00079
39.55 0.00035
39.6 0.00018
39.65 -0.00014
39.7 0.0001
39.75 0.0001
39.8 -0.00013
39.85 -0.00064
39.9 -0.00068
39.95 -0.00084
40 -0.00076
40.05 -0.00065
40.1 -0.00083
40.15 -0.00162
40.2 -0.00251
40.25 -0.00299
40.3 -0.00383
40.35 -0.00466
40.4 -0.00584
40.45 -0.00745
40.5 -0.00943
40.55 -0.01103
40.6 -0.01255
40.65 -0.01442
40.7 -0.01697
40.75 -0.01968
40.8 -0.02243
40.85 -0.02578
40.9 -0.02934
40.95 -0.03361
41 -0.03812
41.05 -0.04376
41.1 -0.04975
41.15 -0.05664
41.2 -0.06431
41.25 -0.07219
41.3 -0.08089
41.35 -0.09054
41.4 -0.10094
41.45 -0.11169
41.5 -0.12298
41.55 -0.13411
41.6 -0.14498
41.65 -0.15575
41.7 -0.16727
41.75 -0.1784
41.8 -0.18984
41.85 -0.20095
41.9 -0.21205
41.95 -0.22225
42 -0.23175
42.05 -0.23998
42.1 -0.24713
42.15 -0.25311
42.2 -0.25768
42.25 -0.26102
42.3 -0.26277
42.35 -0.26293
42.4 -0.26135
42.45 -0.25771
42.5 -0.25226
42.55 -0.24524
42.6 -0.23668
42.65 -0.2268
42.7 -0.2152
42.75 -0.20214
42.8 -0.18829
42.85 -0.17303
42.9 -0.157
42.95 -0.14027
43 -0.12342
43.05 -0.10622
43.1 -0.0887
43.15 -0.07158
43.2 -0.05442
43.25 -0.03777
43.3 -0.0207
43.35 -0.00431
43.4 0.0115
43.45 0.02695
43.5 0.04213
43.55 0.05685
43.6 0.07079
43.65 0.08443
43.7 0.09773
43.75 0.11107
43.8 0.1237
43.85 0.13578
43.9 0.14716
43.95 0.15793
44 0.16871
44.05 0.17954
44.1 0.19007
44.15 0.20024
44.2 0.20973
44.25 0.2189
44.3 0.22731
44.35 0.23508
44.4 0.24221
44.45 0.24864
44.5 0.25362
44.55 0.25791
44.6 0.26088
44.65 0.26263
44.7 0.26356
44.75 0.26343
44.8 0.26254
44.85 0.2608
44.9 0.25826
44.95 0.255
45 0.2511
45.05 0.24684
45.1 0.24177
45.15 0.23633
45.2 0.23032
45.25 0.22385
45.3 0.21646
45.35 0.2087
45.4 0.20046
45.45 0.19174
45.5 0.18324
45.55 0.17468
45.6 0.16615
45.65 0.15805
45.7 0.15039
45.75 0.14276
45.8 0.13576
45.85 0.12876
45.9 0.12229
45.95 0.11587
46 0.10938
46.05 0.10345
46.1 0.09758
46.15 0.09176
46.2 0.08624
46.25 0.08115
46.3 0.07678
46.35 0.0726
46.4 0.06872
46.45 0.06545
46.5 0.06232
46.55 0.05883
46.6 0.05518
46.65 0.05178
46.7 0.0483
46.75 0.0454
46.8 0.04217
46.85 0.03946
46.9 0.03664
46.95 0.03364
47 0.03068
47.05 0.02762
47.1 0.0251
47.15 0.02283
47.2 0.02031
47.25 0.01765
47.3 0.01477
47.35 0.01179
47.4 0.00944
47.45 0.00747
47.5 0.00593
47.55 0.00426
47.6 0.00257
47.65 0.00062
47.7 -0.00142
47.75 -0.00386
47.8 -0.00586
47.85 -0.00818
47.9 -0.01061
47.95 -0.01277
48 -0.01441
48.05 -0.01628
48.1 -0.01795
48.15 -0.01935
48.2 -0.02076
48.25 -0.02171
48.3 -0.02274
48.35 -0.02398
48.4 -0.025
48.45 -0.0256
48.5 -0.02636
48.55 -0.02664
48.6 -0.02696
48.65 -0.02747
48.7 -0.02783
48.75 -0.02853
48.8 -0.02894
48.85 -0.02949
48.9 -0.03036
48.95 -0.03135
49 -0.03162
49.05 -0.03213
49.1 -0.03227
49.15 -0.03249
49.2 -0.03272
49.25 -0.03285
49.3 -0.03243
49.35 -0.03252
49.4 -0.03216
49.45 -0.03221
49.5 -0.03198
49.55 -0.0315
49.6 -0.03143
49.65 -0.03091
49.7 -0.03045
49.75 -0.03016
49.8 -0.02965
49.85 -0.02921
49.9 -0.02864
49.95 -0.02873
50 -0.02843
50.05 -0.02837
50.1 -0.02836
50.15 -0.02827
50.2 -0.02805
50.25 -0.02782
50.3 -0.02742
50.35 -0.0271
50.4 -0.02713
50.45 -0.0275
50.5 -0.02751
50.55 -0.0273
50.6 -0.02677
50.65 -0.02669
50.7 -0.02629
50.75 -0.02602
50.8 -0.02613
50.85 -0.02587
50.9 -0.02574
50.95 -0.02562
51 -0.02515
51.05 -0.02459
51.1 -0.02396
51.15 -0.02317
51.2 -0.02227
51.25 -0.02135
51.3 -0.02079
51.35 -0.02045
51.4 -0.02026
51.45 -0.01979
51.5 -0.01988
51.55 -0.01985
51.6 -0.02013
51.65 -0.02008
51.7 -0.02027
51.75 -0.01982
51.8 -0.01937
51.85 -0.01856
51.9 -0.01771
51.95 -0.01676
52 -0.01592
52.05 -0.01556
52.1 -0.0154
52.15 -0.01548
52.2 -0.01558
52.25 -0.01555
52.3 -0.01533
52.35 -0.01546
52.4 -0.01527
52.45 -0.01539
52.5 -0.01521
52.55 -0.01466
52.6 -0.01399
52.65 -0.01339
52.7 -0.01344
52.75 -0.01343
52.8 -0.01335
52.85 -0.0132
52.9 -0.01345
52.95 -0.01369
53 -0.01394
53.05 -0.01431
53.1 -0.014
53.15 -0.01381
53.2 -0.01345
53.25 -0.013
53.3 -0.01275
53.35 -0.01289
53.4 -0.01263
53.45 -0.01239
53.5 -0.01173
53.55 -0.0109
53.6 -0.00995
53.65 -0.00902
53.7 -0.00826
53.75 -0.00822
53.8 -0.00819
53.85 -0.00798
53.9 -0.00769
53.95 -0.00794
54 -0.00848
54.05 -0.00914
54.1 -0.00947
54.15 -0.00975
54.2 -0.00997
54.25 -0.0104
54.3 -0.01085
54.35 -0.01138
54.4 -0.01158
54.45 -0.01158
54.5 -0.01115
54.55 -0.01061
54.6 -0.0097
54.65 -0.00936
54.7 -0.00913
54.75 -0.00846
54.8 -0.00784
54.85 -0.00753
54.9 -0.0073
54.95 -0.00702
55 -0.00655
55.05 -0.00618
55.1 -0.00626
55.15 -0.00629
55.2 -0.00638
55.25 -0.00629
55.3 -0.006
55.35 -0.00554
55.4 -0.00568
55.45 -0.00613
55.5 -0.00672
55.55 -0.00731
55.6 -0.0077
55.65 -0.0079
55.7 -0.00768
55.75 -0.00695
55.8 -0.0061
55.85 -0.00527
55.9 -0.00449
55.95 -0.00425
56 -0.00393
56.05 -0.00371
56.1 -0.00351
56.15 -0.00358
56.2 -0.00416
56.25 -0.00471
56.3 -0.00544
56.35 -0.00573
56.4 -0.00566
56.45 -0.0057
56.5 -0.00519
56.55 -0.00458
56.6 -0.00458
56.65 -0.00469
56.7 -0.00479
56.75 -0.00437
56.8 -0.00449
56.85 -0.00489
56.9 -0.0052
56.95 -0.00491
57 -0.00465
57.05 -0.00407
57.1 -0.00363
57.15 -0.00296
57.2 -0.00289
57.25 -0.00268
57.3 -0.00238
57.35 -0.00199
57.4 -0.00195
57.45 -0.00166
57.5 -0.00143
57.55 -0.00112
57.6 -0.00111
57.65 -0.00145
57.7 -0.0018
57.75 -0.00243
57.8 -0.00256
57.85 -0.00277
57.9 -0.00299
57.95 -0.00341
58 -0.00346
58.05 -0.00307
58.1 -0.00242
58.15 -0.00223
58.2 -0.00224
58.25 -0.00238
58.3 -0.00216
58.35 -0.0025
58.4 -0.00267
58.45 -0.00264
58.5 -0.00304
58.55 -0.00314
58.6 -0.00323
58.65 -0.00285
58.7 -0.00302
58.75 -0.00285
58.8 -0.00282
58.85 -0.00291
58.9 -0.00318
58.95 -0.00353
59 -0.00328
59.05 -0.00334
59.1 -0.00346
59.15 -0.00369
59.2 -0.00328
59.25 -0.00267
59.3 -0.00226
59.35 -0.00162
59.4 -0.0012
59.45 -0.00076
59.5 -0.00091
59.55 -0.00152
59.6 -0.00199
59.65 -0.00227
59.7 -0.00233
59.75 -0.00218
59.8 -0.0017
59.85 -0.00126
59.9 -0.00088
59.95 -0.00033
60 0.00027
60.05 0.0004
60.1 0.00043
60.15 0.00064
60.2 0.00025
60.25 -0.00006
60.3 -0.00012
60.35 -0.00069
60.4 -0.00129
60.45 -0.00193
60.5 -0.00223
60.55 -0.00218
60.6 -0.00217
60.65 -0.00187
60.7 -0.00147
60.75 -0.00097
60.8 -0.00035
60.85 0.00024
60.9 0.00044
60.95 0.0003
61 0.00014
61.05 -0.00044
61.1 -0.00051
61.15 -0.00063
61.2 -0.00047
61.25 -0.00077
61.3 -0.00106
61.35 -0.00101
61.4 -0.00066
61.45 -0.00089
61.5 -0.00116
61.55 -0.00176
61.6 -0.00218
61.65 -0.00203
61.7 -0.0017
61.75 -0.00131
61.8 -0.00066
61.85 -0.00049
61.9 -0.0007
61.95 -0.00097
62 -0.00148
62.05 -0.00184
62.1 -0.00168
62.15 -0.0011
62.2 -0.0009
62.25 -0.0012
62.3 -0.00147
62.35 -0.00162
62.4 -0.00176
62.45 -0.00171
62.5 -0.00123
62.55 -0.00129
62.6 -0.0009
62.65 -0.00068
62.7 -0.00076
62.75 -0.00061
62.8 -0.0009
62.85 -0.00137
62.9 -0.00193
62.95 -0.00213
63 -0.00176
63.05 -0.00162
63.1 -0.00148
63.15 -0.00122
63.2 -0.00103
63.25 -0.00118
63.3 -0.00104
63.35 -0.00096
63.4 -0.0006
63.45 -0.00065
63.5 -0.00086
63.55 -0.00075
63.6 -0.00091
63.65 -0.00076
63.7 -0.00061
63.75 -0.00035
63.8 0.00003
63.85 0.00062
63.9 0.00112
63.95 0.00092
64 0.00035
64.05 0.00027
64.1 0.00035
64.15 0.00016
64.2 -0.00026
64.25 -0.0005
64.3 -0.00069
64.35 -0.001
64.4 -0.00118
64.45 -0.00104
64.5 -0.00119
64.55 -0.00148
64.6 -0.00143
64.65 -0.00137
64.7 -0.00148
64.75 -0.00175
64.8 -0.00179
64.85 -0.00176
64.9 -0.00201
64.95 -0.00221
65 -0.00175
65.05 -0.00132
65.1 -0.00133
65.15 -0.00164
65.2 -0.00133
65.25 -0.00142
65.3 -0.00166
65.35 -0.00161
65.4 -0.0017
65.45 -0.00127
65.5 -0.00134
65.55 -0.00167
65.6 -0.00214
65.65 -0.00209
65.7 -0.00177
65.75 -0.00108
65.8 -0.00021
65.85 0.00042
65.9 0.00084
65.95 0.00084
66 0.00109
66.05 0.0012
66.1 0.00086
66.15 0.00023
66.2 -0.00054
66.25 -0.00057
66.3 -0.00046
66.35 -0.00014
66.4 -0.00034
66.45 -0.0006
66.5 -0.00047
66.55 -0.0001
66.6 -0.00016
66.65 -0.0001
66.7 0.00032
66.75 0.00083
66.8 0.0011
66.85 0.00138
66.9 0.00116
66.95 0.00133
67 0.00118
67.05 0.00056
67.1 -0
67.15 -0.00017
67.2 0.00001
67.25 0.0004
67.3 0.0009
67.35 0.00113
67.4 0.00085
67.45 0.00096
67.5 0.0008
67.55 0.00096
67.6 0.0007
67.65 0.00002
67.7 -0.00077
67.75 -0.00093
67.8 -0.00137
67.85 -0.00115
67.9 -0.0007
67.95 -0.00024
68 -0.00038
68.05 -0.00071
68.1 -0.00053
68.15 -0.00047
68.2 -0.00024
68.25 -0.00005
68.3 -0.0003
68.35 -0.00066
68.4 -0.00103
68.45 -0.00141
68.5 -0.00114
68.55 -0.00108
68.6 -0.00137
68.65 -0.0017
68.7 -0.00169
68.75 -0.00159
68.8 -0.00173
68.85 -0.00198
68.9 -0.00173
68.95 -0.00184
69 -0.00158
69.05 -0.00118
69.1 -0.00081
69.15 -0.0001
69.2 0.00018
69.25 0.00036
69.3 0.0002
69.35 0.00008
69.4 0.00032
69.45 0.00052
69.5 0.00049
69.55 0.00044
69.6 0.00038
69.65 0.00064
69.7 0.00106
69.75 0.00088
69.8 0.00045
69.85 -0.00027
69.9 -0.00064
69.95 -0.00083
70 -0.00126
70.05 -0.00158
70.1 -0.00127
70.15 -0.00134
70.2 -0.00098
70.25 -0.00098
70.3 -0.00089
70.35 -0.00092
70.4 -0.00071
70.45 -0.00041
70.5 -0.00035
70.55 -0.00028
70.6 0.00023
70.65 0.00051
70.7 0.0004
70.75 0.00051
70.8 0.0009
70.85 0.0007
70.9 0.00063
70.95 0.00019
71 -0.00018
71.05 -0.00007
71.1 0.00017
71.15 0.00009
71.2 0.00013
71.25 0.00009
71.3 -0.00022
71.35 -0.00072
71.4 -0.0011
71.45 -0.00143
71.5 -0.00166
71.55 -0.00122
71.6 -0.00046
71.65 0.00045
71.7 0.00078
71.75 0.00059
71.8 0.00043
71.85 0.00043
71.9 0.00083
71.95 0.00126
72 0.00177
72.05 0.00233
72.1 0.00282
72.15 0.00306
72.2 0.00304
72.25 0.00313
72.3 0.00314
72.35 0.00251
72.4 0.00157
72.45 0.0004
72.5 -0.00022
72.55 -0.00063
72.6 -0.00103
72.65 -0.00108
72.7 -0.00124
72.75 -0.0011
72.8 -0.00091
72.85 -0.00086
72.9 -0.00081
72.95 -0.00095
73 -0.00072
73.05 -0.00063
73.1 -0.00046
73.15 -0.0004
73.2 -0.00071
73.25 -0.00054
73.3 -0.00035
73.35 0.00003
73.4 0.00059
73.45 0.00075
73.5 0.00055
73.55 0.00068
73.6 0.00081
73.65 0.00063
73.7 0.00027
73.75 0.00031
73.8 0.00062
73.85 0.00113
73.9 0.00146
73.95 0.00192
74 0.0024
74.05 0.00225
74.1 0.00176
74.15 0.00112
74.2 0.00048
74.25 0.00027
74.3 0.00031
74.35 -0.00005
74.4 0.0001
74.45 0.00059
74.5 0.00092
74.55 0.00135
74.6 0.00149
74.65 0.00179
74.7 0.00168
74.75 0.00145
74.8 0.00082
74.85 0.00021
74.9 0.00008
74.95 0.00022
75 0.00063
75.05 0.00082
75.1 0.00039
75.15 0.00002
75.2 -0.00059
75.25 -0.00113
75.3 -0.00148
75.35 -0.00158
75.4 -0.0012
75.45 -0.00127
75.5 -0.00103
75.55 -0.00058
75.6 -0.00001
75.65 0.00025
75.7 0.00034
75.75 0.00019
75.8 -0.0001
75.85 -0.00009
75.9 0.00014
75.95 0.00016
76 0.00033
76.05 0.00005
76.1 -0.00037
76.15 -0.0003
76.2 -0.00031
76.25 -0.00021
76.3 -0.00011
76.35 -0.00008
76.4 -0.00016
76.45 -0.00046
76.5 -0.00022
76.55 -0.00043
76.6 -0.00081
76.65 -0.00131
76.7 -0.00156
76.75 -0.00131
76.8 -0.00129
76.85 -0.00125
76.9 -0.00129
76.95 -0.00161
77 -0.00164
77.05 -0.00193
77.1 -0.00164
77.15 -0.00129
77.2 -0.00126
77.25 -0.00106
77.3 -0.00092
77.35 -0.00045
77.4 0.00024
77.45 0.00034
77.5 0.00034
77.55 0.00069
77.6 0.00101
77.65 0.00148
77.7 0.00163
77.75 0.00136
77.8 0.00074
77.85 0.00032
77.9 0.00028
77.95 0.00009
78 0.00024
78.05 0.00052
78.1 0.00105
78.15 0.00162
78.2 0.00167
78.25 0.00138
78.3 0.00069
78.35 0.00016
78.4 -0.00061
78.45 -0.00125
78.5 -0.0015
78.55 -0.00138
78.6 -0.00158
78.65 -0.00178
78.7 -0.00184
78.75 -0.00143
78.8 -0.00121
78.85 -0.00136
78.9 -0.00137
78.95 -0.00113
79 -0.00055
79.05 0.00018
79.1 0.00093
79.15 0.00112
79.2 0.00137
79.25 0.0018
79.3 0.00213
79.35 0.00196
79.4 0.00194
79.45 0.00154
79.5 0.00072
79.55 0.00041
79.6 0.00028
79.65 0.00004
79.7 0.00022
79.75 0
79.8 0.00016
79.85 0.00049
79.9 0.00077
79.95 0.00048
80 0.00028
80.05 0.00015
80.1 0.00036
80.15 0.00046
80.2 0.00052
80.25 0.00083
80.3 0.00089
80.35 0.00055
80.4 0.00012
80.45 -0.00035
80.5 -0.00047
80.55 -0.00022
80.6 0.00007
80.65 0.00007
80.7 0.00024
80.75 0.0004
80.8 0.00044
80.85 0.0006
80.9 0.00033
80.95 0.00043
81 0.00061
81.05 0.00058
81.1 0.00086
81.15 0.00067
81.2 0.00068
81.25 0.00042
81.3 0.00056
81.35 0.00041
81.4 0.00022
81.45 0.00046
81.5 0.0009
81.55 0.00144
81.6 0.00175
81.65 0.00212
81.7 0.00242
81.75 0.00231
81.8 0.00156
81.85 0.00118
81.9 0.00108
81.95 0.00109
82 0.00102
82.05 0.00085
82.1 0.00051
82.15 0.00005
82.2 0.00011
82.25 0.00038
82.3 0.00063
82.35 0.00108
82.4 0.00124
82.45 0.00095
82.5 0.00094
82.55 0.00051
82.6 0.00022
82.65 0.00005
82.7 0.00029
82.75 0.0005
82.8 0.00021
82.85 -0.00004
82.9 -0.0003
82.95 -0.0009
83 -0.00151
83.05 -0.00157
83.1 -0.00181
83.15 -0.00188
83.2 -0.00188
83.25 -0.00186
83.3 -0.00214
83.35 -0.00237
83.4 -0.00249
83.45 -0.00261
83.5 -0.00222
83.55 -0.00217
83.6 -0.0024
83.65 -0.00283
83.7 -0.00247
83.75 -0.00234
83.8 -0.00178
83.85 -0.00135
83.9 -0.00105
83.95 -0.00106
84 -0.00097
84.05 -0.00053
84.1 0.00005
84.15 0.00026
84.2 0.0004
84.25 0.0003
84.3 0.00011
84.35 0.00022
84.4 0.00028
84.45 0.00065
84.5 0.00107
84.55 0.00124
84.6 0.00096
84.65 0.00052
84.7 -0.00008
84.75 -0.00079
84.8 -0.00102
84.85 -0.00083
84.9 -0.00062
84.95 -0.00057
85 -0.00093
85.05 -0.00122
85.1 -0.00104
85.15 -0.0009
85.2 -0.0008
85.25 -0.00107
85.3 -0.00135
85.35 -0.00144
85.4 -0.00105
85.45 -0.00047
85.5 -0.00024
85.55 -0.00014
85.6 -0.00022
85.65 -0.00023
85.7 -0.00008
85.75 0.00023
85.8 0.00075
85.85 0.00089
85.9 0.00102
85.95 0.00077
86 0.00044
86.05 0.00043
86.1 0.00065
86.15 0.00095
86.2 0.00089
86.25 0.00046
86.3 0.00005
86.35 -0.00046
86.4 -0.00061
86.45 -0.00065
86.5 -0.00088
86.55 -0.0013
86.6 -0.00149
86.65 -0.00184
86.7 -0.00222
86.75 -0.00187
86.8 -0.0011
86.85 -0.00084
86.9 -0.00034
86.95 -0.00013
87 0.00012
87.05 0.00024
87.1 -0.00001
87.15 0.00017
87.2 0.00008
87.25 -0.00036
87.3 -0.00099
87.35 -0.00161
87.4 -0.00166
87.45 -0.00185
87.5 -0.00144
87.55 -0.00079
87.6 -0.00075
87.65 -0.00067
87.7 -0.00096
87.75 -0.00122
87.8 -0.00129
87.85 -0.00123
87.9 -0.00132
87.95 -0.00126
88 -0.00152
88.05 -0.00153
88.1 -0.00117
88.15 -0.00115
88.2 -0.0013
88.25 -0.00129
88.3 -0.00105
88.35 -0.00086
88.4 -0.00029
88.45 -0.00026
88.5 -0.00028
88.55 -0.0005
88.6 -0.00067
88.65 -0.00075
88.7 -0.0009
88.75 -0.00077
88.8 -0.00019
88.85 0.00057
88.9 0.00061
88.95 0.00058
89 0.0003
89.05 0.00042
89.1 0.00015
89.15 0.00013
89.2 -0.00028
89.25 -0.00056
89.3 -0.00034
89.35 -0.00045
89.4 -0.00015
89.45 0.00051
89.5 0.00129
89.55 0.00166
89.6 0.00144
89.65 0.00125
89.7 0.00122
89.75 0.00093
89.8 0.0009
89.85 0.00119
89.9 0.00148
89.95 0.00193
90 0.00246
90.05 0.0027
90.1 0.00232
90.15 0.00177
90.2 0.00093
90.25 0.00056
90.3 0.00057
90.35 0.00085
90.4 0.00134
90.45 0.00183
90.5 0.00209
90.55 0.00208
90.6 0.00185
90.65 0.0012
90.7 0.00096
90.75 0.00098
90.8 0.00058
90.85 0.00003
90.9 -0.00063
90.95 -0.00078
91 -0.00078
91.05 -0.00089
91.1 -0.00093
91.15 -0.00103
91.2 -0.00098
91.25 -0.00059
91.3 -0.00009
91.35 0.00007
91.4 -0
91.45 0.00035
91.5 0.00059
91.55 0.00054
91.6 0.00027
91.65 -0.00002
91.7 -0.00017
91.75 -0.00009
91.8 0.00018
91.85 0.0004
91.9 0.00033
91.95 0.00018
92 0.00045
92.05 0.00043
92.1 0.00003
92.15 -0.0006
92.2 -0.00086
92.25 -0.00092
92.3 -0.00055
92.35 0.00004
92.4 -0.00002
92.45 -0.00026
92.5 -0.00002
92.55 0.0003
92.6 0.00041
92.65 0.0006
92.7 0.00075
92.75 0.00046
92.8 0.00054
92.85 0.00065
92.9 0.00055
92.95 0.00043
93 0.00015
93.05 -0.00034
93.1 -0.00038
93.15 -0.00053
93.2 -0.00075
93.25 -0.00048
93.3 0.00011
93.35 0.00066
93.4 0.00106
93.45 0.00113
93.5 0.00096
93.55 0.00055
93.6 0.00012
93.65 0.00006
93.7 0.0004
93.75 0.00045
93.8 0.00004
93.85 -0.00047
93.9 -0.00049
93.95 -0.00084
94 -0.00106
94.05 -0.00131
94.1 -0.00144
94.15 -0.00177
94.2 -0.00213
94.25 -0.00195
94.3 -0.00178
94.35 -0.00116
94.4 -0.00062
94.45 -0.00032
94.5 0.00007
94.55 0.00034
94.6 0.0003
94.65 0.00008
94.7 0.00017
94.75 0.00001
94.8 -0.0002
94.85 -0.00001
94.9 -0.00028
94.95 -0.00002
95 -0.00016
95.05 -0.00024
95.1 0.00014
95.15 0.00044
95.2 0.00077
95.25 0.00062
95.3 0.00035
95.35 0.00012
95.4 -0.00046
95.45 -0.00083
95.5 -0.00078
95.55 -0.00062
95.6 -0.00017
95.65 -0.00004
95.7 -0.0001
95.75 -0.00002
95.8 0.0002
95.85 0.00044
95.9 0.00088
95.95 0.0009
96 0.00074
96.05 0.00094
96.1 0.00092
96.15 0.00118
96.2 0.00081
96.25 0.0007
96.3 0.0003
96.35 0.0003
96.4 0.0006
96.45 0.00089
96.5 0.00139
96.55 0.0014
96.6 0.00157
96.65 0.00171
96.7 0.00156
96.75 0.0017
96.8 0.00165
96.85 0.00104
96.9 0.00093
96.95 0.00056
97 0.00005
97.05 -0.00002
97.1 -0.00005
97.15 0.00009
97.2 0.00053
97.25 0.00111
97.3 0.00128
97.35 0.00137
97.4 0.00143
97.45 0.00116
97.5 0.00041
97.55 -0.00031
97.6 -0.0005
97.65 -0.00025
97.7 -0.0002
97.75 -0.00047
97.8 -0.00104
97.85 -0.00172
97.9 -0.00184
97.95 -0.00193
98 -0.00177
98.05 -0.00154
98.1 -0.00154
98.15 -0.0011
98.2 -0.00071
98.25 -0.00056
98.3 -0.00066
98.35 -0.00053
98.4 -0.00035
98.45 -0.00022
98.5 0.00013
98.55 0.00035
98.6 0.00021
98.65 0.00009
98.7 -0.00027
98.75 -0.00088
98.8 -0.00105
98.85 -0.00086
98.9 -0.001
98.95 -0.00092
99 -0.00082
99.05 -0.00088
99.1 -0.00066
99.15 -0.00049
99.2 -0.0001
99.25 0.00041
99.3 0.00108
99.35 0.00172
99.4 0.00176
99.45 0.00136
99.5 0.00055
99.55 -0.00039
99.6 -0.00125
99.65 -0.00206
99.7 -0.00263
99.75 -0.00309
99.8 -0.0028
99.85 -0.00237
99.9 -0.00163
99.95 -0.00096
