0 0
0.05 0.00002
0.1 0.00025
0.15 0.00048
0.2 0.00124
0.25 0.0018
0.3 0.00219
0.35 0.00272
0.4 0.00309
0.45 0.00323
0.5 0.00305
0.55 0.0027
0.6 0.00289
0.65 0.00283
0.7 0.00297
0.75 0.00299
0.8 0.00315
0.85 0.00304
0.9 0.00274
0.95 0.00282
1 0.00287
1.05 0.00317
1.1 0.00352
1.15 0.00369
1.2 0.00367
1.25 0.00328
1.3 0.00334
1.35 0.00352
1.4 0.00334
1.45 0.00319
1.5 0.00318
1.55 0.00301
1.6 0.003
1.65 0.00303
1.7 0.00298
1.75 0.00293
1.8 0.00255
1.85 0.00236
1.9 0.00194
1.95 0.00189
2 0.0016
2.05 0.00121
2.1 0.00111
2.15 0.00088
2.2 0.00106
2.25 0.00135
2.3 0.00169
2.35 0.00208
2.4 0.00238
2.45 0.00228
2.5 0.00197
2.55 0.00164
2.6 0.00131
2.65 0.00093
2.7 0.00052
2.75 0.00033
2.8 0.00069
2.85 0.00108
2.9 0.00169
2.95 0.00206
3 0.00209
3.05 0.00222
3.1 0.00221
3.15 0.00189
3.2 0.00199
3.25 0.00175
3.3 0.00179
3.35 0.00199
3.4 0.00202
3.45 0.00216
3.5 0.00237
3.55 0.00254
3.6 0.00227
3.65 0.00182
3.7 0.00148
3.75 0.00139
3.8 0.00104
3.85 0.00068
3.9 0.00047
3.95 0.00032
4 0.00049
4.05 0.00075
4.1 0.0012
4.15 0.00183
4.2 0.00253
4.25 0.00303
4.3 0.00301
4.35 0.00297
4.4 0.00289
4.45 0.00298
4.5 0.00306
4.55 0.00284
4.6 0.00282
4.65 0.00249
4.7 0.00211
4.75 0.00188
4.8 0.00157
4.85 0.00164
4.9 0.00165
4.95 0.00161
5 0.00167
5.05 0.00133
5.1 0.00111
5.15 0.00107
5.2 0.00094
5.25 0.00078
5.3 0.00055
5.35 0.00013
5.4 -0.0001
5.45 0.00001
5.5 0.0002
5.55 0.00019
5.6 0.00033
5.65 0.00045
5.7 0.0007
5.75 0.00094
5.8 0.00088
5.85 0.00099
5.9 0.00119
5.95 0.00106
6 0.0007
6.05 0.0005
6.1 0.00046
6.15 0.00036
6.2 0.00014
6.25 -0.00013
6.3 -0.00056
6.35 -0.00061
6.4 -0.0002
6.45 0.00034
6.5 0.00048
6.55 0.00063
6.6 0.00057
6.65 0.00077
6.7 0.00118
6.75 0.00151
6.8 0.00143
6.85 0.00164
6.9 0.00144
6.95 0.00146
7 0.00138
7.05 0.00146
7.1 0.00116
7.15 0.00104
7.2 0.001
7.25 0.00071
7.3 0.00044
7.35 -0.00006
7.4 -0.00064
7.45 -0.00111
7.5 -0.00095
7.55 -0.00089
7.6 -0.00069
7.65 -0.00072
7.7 -0.00049
7.75 -0.00009
7.8 0.00017
7.85 0.00007
7.9 0.00003
7.95 -0.00011
8 0.00015
8.05 0.00033
8.1 0.00063
8.15 0.00106
8.2 0.00134
8.25 0.00137
8.3 0.0012
8.35 0.00137
8.4 0.00121
8.45 0.0012
8.5 0.00124
8.55 0.00093
8.6 0.00079
8.65 0.00071
8.7 0.00033
8.75 0.00021
8.8 0.0001
8.85 -0.00003
8.9 0.00004
8.95 0.00026
9 0.0003
9.05 0.00003
9.1 -0.00006
9.15 -0.0004
9.2 -0.00028
9.25 0.00011
9.3 0.00028
9.35 0.00014
9.4 0.00017
9.45 -0.00003
9.5 -0.00027
9.55 -0.00028
9.6 -0.00021
9.65 0.00002
9.7 0.00039
9.75 0.00032
9.8 0.00005
9.85 0.00019
9.9 0.00026
9.95 0.00031
10 0.00048
10.05 0.00089
10.1 0.00131
10.15 0.00162
10.2 0.00156
10.25 0.00162
10.3 0.0017
10.35 0.00142
10.4 0.00119
10.45 0.00089
10.5 0.00086
10.55 0.00048
10.6 -0.00003
10.65 -0.00057
10.7 -0.00107
10.75 -0.00151
10.8 -0.00148
10.85 -0.00116
10.9 -0.0011
10.95 -0.00063
11 -0.00037
11.05 -0.00026
11.1 0.00007
11.15 0.00005
11.2 0.00005
11.25 0.00017
11.3 0.0001
11.35 -0.00025
11.4 -0.00021
11.45 -0.00039
11.5 -0.00035
11.55 -0.00001
11.6 0.00004
11.65 0.00007
11.7 0.00016
11.75 0.00031
11.8 0.00039
11.85 0.00065
11.9 0.00101
11.95 0.00139
12 0.00135
12.05 0.00109
12.1 0.00073
12.15 0.00045
12.2 0.00024
12.25 0.00037
12.3 0.00047
12.35 0.00071
12.4 0.00098
12.45 0.00085
12.5 0.00056
12.55 0.00001
12.6 -0.00004
12.65 0.00002
12.7 -0.00013
12.75 -0.00019
12.8 -0.00032
12.85 -0.00011
12.9 0.00035
12.95 0.0009
13 0.00136
13.05 0.00161
13.1 0.00171
13.15 0.00147
13.2 0.00086
13.25 0.00062
13.3 0.00026
13.35 0.00004
13.4 -0.00035
13.45 -0.00085
13.5 -0.00078
13.55 -0.00063
13.6 -0.00056
13.65 -0.00046
13.7 -0.00016
13.75 -0.00027
13.8 -0.00048
13.85 -0.00093
13.9 -0.00093
13.95 -0.00073
14 -0.00044
14.05 0.00008
14.1 0.00048
14.15 0.00055
14.2 0.00049
14.25 0.00027
14.3 0.00008
14.35 -0.0001
14.4 0.00013
14.45 0.00037
14.5 0.0007
14.55 0.00059
14.6 0.00037
14.65 0.00046
14.7 0.00036
14.75 0.00053
14.8 0.00063
14.85 0.00084
14.9 0.00097
14.95 0.0008
15 0.00058
15.05 0.00062
15.1 0.00045
15.15 0.00002
15.2 -0.00061
15.25 -0.00081
15.3 -0.00055
15.35 -0.00054
15.4 -0.00053
15.45 -0.00057
15.5 -0.0009
15.55 -0.00094
15.6 -0.00104
15.65 -0.00117
15.7 -0.00134
15.75 -0.00101
15.8 -0.00066
15.85 -0.00059
15.9 -0.00034
15.95 -0.00041
16 -0.00019
16.05 -0.00015
16.1 0.0001
16.15 0.0005
16.2 0.00102
16.25 0.00113
16.3 0.00089
16.35 0.00057
16.4 0.00007
16.45 -0.00045
16.5 -0.00076
16.55 -0.00102
16.6 -0.00111
16.65 -0.00078
16.7 -0.00035
16.75 -0.00037
16.8 -0.0002
16.85 0.00014
16.9 0.00028
16.95 0.00056
17 0.00088
17.05 0.00096
17.1 0.0006
17.15 0.00019
17.2 0.00025
17.25 0.00017
17.3 0.0004
17.35 0.00084
17.4 0.00078
17.45 0.00053
17.5 0.00001
17.55 -0.00032
17.6 -0.00022
17.65 -0.00048
17.7 -0.00095
17.75 -0.00101
17.8 -0.00068
17.85 -0.00027
17.9 0
17.95 0.00039
18 0.00028
18.05 0.00049
18.1 0.00066
18.15 0.00041
18.2 0.00002
18.25 -0.00053
18.3 -0.00056
18.35 -0.00046
18.4 -0.00035
18.45 -0.00034
18.5 -0.00015
18.55 -0.00007
18.6 -0.00024
18.65 -0.00035
18.7 -0.00037
18.75 -0.00003
18.8 0.00004
18.85 0.00028
18.9 0.00044
18.95 0.00041
19 0.00019
19.05 -0.00001
19.1 -0.00035
19.15 -0.00067
19.2 -0.00093
19.25 -0.00099
19.3 -0.00076
19.35 -0.00043
19.4 -0.00048
19.45 -0.00039
19.5 -0.0006
19.55 -0.00068
19.6 -0.0005
19.65 -0.00061
19.7 -0.00037
19.75 0.00001
19.8 0.00035
19.85 0.00036
19.9 0.00061
19.95 0.00074
20 0.00041
20.05 -0.00012
20.1 -0.00016
20.15 0.00005
20.2 0.00048
20.25 0.00077
20.3 0.00071
20.35 0.00083
20.4 0.00097
20.45 0.00107
20.5 0.00116
20.55 0.00097
20.6 0.00082
20.65 0.00055
20.7 0.00045
20.75 0.00049
20.8 0.00076
20.85 0.001
20.9 0.00094
20.95 0.00048
21 -0.00008
21.05 -0.00037
21.1 -0.00073
21.15 -0.00084
21.2 -0.00091
21.25 -0.00078
21.3 -0.00073
21.35 -0.00083
21.4 -0.0011
21.45 -0.00129
21.5 -0.00108
21.55 -0.00118
21.6 -0.00114
21.65 -0.0009
21.7 -0.00095
21.75 -0.00067
21.8 -0.0002
21.85 0.0001
21.9 0.00031
21.95 0.00031
22 0.00059
22.05 0.00066
22.1 0.00078
22.15 0.00047
22.2 0.00052
22.25 0.00024
22.3 -0.00011
22.35 -0.00003
22.4 -0.00015
22.45 -0.00009
22.5 -0.00004
22.55 -0.00036
22.6 -0.0002
22.65 0.00011
22.7 0.00059
22.75 0.00074
22.8 0.00084
22.85 0.00057
22.9 0.00018
22.95 -0.00022
23 -0.00074
23.05 -0.00128
23.1 -0.00119
23.15 -0.00112
23.2 -0.00075
23.25 -0.00013
23.3 0.0001
23.35 0.00008
23.4 0.00021
23.45 0.00041
23.5 0.00041
23.55 0.00005
23.6 -0.00035
23.65 -0.00049
23.7 -0.00027
23.75 -0.00021
23.8 0.00007
23.85 0.0002
23.9 0.00026
23.95 0.0002
24 0.00027
24.05 0.00047
24.1 0.00071
24.15 0.00071
24.2 0.00033
24.25 0.00031
24.3 0.00005
24.35 -0.00026
24.4 -0.00054
24.45 -0.00059
24.5 -0.00068
24.55 -0.001
24.6 -0.00143
24.65 -0.00169
24.7 -0.0015
24.75 -0.00131
24.8 -0.00078
24.85 -0.00061
24.9 -0.00033
24.95 -0.00028
25 -0.00049
25.05 -0.00076
25.1 -0.00116
25.15 -0.00141
25.2 -0.00178
25.25 -0.00196
25.3 -0.0016
25.35 -0.00148
25.4 -0.00095
25.45 -0.00033
25.5 0.00007
25.55 0.00056
25.6 0.00053
25.65 0.00031
25.7 0.00002
25.75 -0.00027
25.8 -0.00052
25.85 -0.00094
25.9 -0.00087
25.95 -0.00054
26 -0.0003
26.05 -0.00039
26.1 -0.00048
26.15 -0.00025
26.2 -0.00002
26.25 -0.00003
26.3 0.00013
26.35 0.00015
26.4 -0.00013
26.45 -0.0003
26.5 -0.00013
26.55 0.00023
26.6 0.00027
26.65 0.00009
26.7 0.0002
26.75 0.00049
26.8 0.00078
26.85 0.00059
26.9 0.00054
26.95 0.0002
27 0.00029
27.05 0.00068
27.1 0.00065
27.15 0.0008
27.2 0.00058
27.25 0.00051
27.3 0.00012
27.35 -0.00009
27.4 -0.00007
27.45 -0.00005
27.5 -0.00014
27.55 0.00012
27.6 0.00047
27.65 0.0009
27.7 0.0009
27.75 0.00106
27.8 0.00128
27.85 0.00105
27.9 0.00084
27.95 0.0004
28 -0.00023
28.05 -0.00036
28.1 -0.00027
28.15 -0.00015
28.2 -0.00026
28.25 -0.00013
28.3 -0.00027
28.35 -0.00028
28.4 0.00001
28.45 0.00038
28.5 0.00086
28.55 0.00077
28.6 0.00058
28.65 0.00009
28.7 -0.00012
28.75 -0.0002
28.8 -0.0001
28.85 -0.00024
28.9 -0.00005
28.95 0.00031
29 0.00062
29.05 0.00107
29.1 0.00093
29.15 0.00077
29.2 0.00043
29.25 0.00005
29.3 -0.0002
29.35 -0.00016
29.4 -0.00039
29.45 -0.00068
29.5 -0.00064
29.55 -0.00053
29.6 -0.00019
29.65 -0.00013
29.7 0.00026
29.75 0.0006
29.8 0.00085
29.85 0.00086
29.9 0.00103
29.95 0.00134
30 0.00166
30.05 0.00176
30.1 0.0019
30.15 0.00152
30.2 0.00094
30.25 0.00025
30.3 -0
30.35 0.00009
30.4 0.00021
30.45 0.00029
30.5 0.00061
30.55 0.00073
30.6 0.00086
30.65 0.00091
30.7 0.00084
30.75 0.00062
30.8 0.0006
30.85 0.00022
30.9 -0.00004
30.95 -0.00001
31 -0.00032
31.05 -0.00071
31.1 -0.00091
31.15 -0.00067
31.2 -0.00054
31.25 -0.00027
31.3 0.00017
31.35 0.00031
31.4 0.00011
31.45 -0.00009
31.5 -0.00002
31.55 -0.00005
31.6 0.00018
31.65 0.00003
31.7 -0.00017
31.75 -0.00047
31.8 -0.00095
31.85 -0.00152
31.9 -0.00208
31.95 -0.00229
32 -0.00224
32.05 -0.00194
32.1 -0.00128
32.15 -0.00086
32.2 -0.00055
32.25 -0.00064
32.3 -0.00075
32.35 -0.00107
32.4 -0.00121
32.45 -0.0015
32.5 -0.00174
32.55 -0.0015
32.6 -0.00124
32.65 -0.00124
32.7 -0.00123
32.75 -0.00135
32.8 -0.00105
32.85 -0.001
32.9 -0.00061
32.95 -0.00047
33 -0.00031
33.05 -0.00001
33.1 0.00018
33.15 0.00059
33.2 0.00082
33.25 0.00096
33.3 0.00118
33.35 0.00122
33.4 0.00095
33.45 0.00066
33.5 0.00047
33.55 0.0002
33.6 -0.00023
33.65 -0.00017
33.7 -0.0001
33.75 -0.00035
33.8 -0.00053
33.85 -0.00039
33.9 -0.00056
33.95 -0.00071
34 -0.001
34.05 -0.00131
34.1 -0.00135
34.15 -0.00091
34.2 -0.00035
34.25 -0.00003
34.3 0.00031
34.35 0.00058
34.4 0.00069
34.45 0.00039
34.5 0.00049
34.55 0.00033
34.6 0.00044
34.65 0.00055
34.7 0.00054
34.75 0.00022
34.8 -0.00013
34.85 -0.00019
34.9 0.00003
34.95 0.00012
35 0.00025
35.05 0.00056
35.1 0.00077
35.15 0.00089
35.2 0.00095
35.25 0.00125
35.3 0.001
35.35 0.0006
35.4 0.00033
35.45 0.00043
35.5 0.00022
35.55 0.00023
35.6 -0.00011
35.65 -0.00002
35.7 -0.00027
35.75 -0.00065
35.8 -0.00052
35.85 -0.00031
35.9 0.00017
35.95 0.00051
36 0.00075
36.05 0.00081
36.1 0.00111
36.15 0.0011
36.2 0.0013
36.25 0.00109
36.3 0.00055
36.35 -0.00013
36.4 -0.00054
36.45 -0.0009
36.5 -0.00081
36.55 -0.00036
36.6 -0.00032
36.65 -0.00005
36.7 -0.00017
36.75 -0.00031
36.8 -0.0005
36.85 -0.00029
36.9 0.00001
36.95 0.00007
37 0.00029
37.05 0.00054
37.1 0.00079
37.15 0.00072
37.2 0.00027
37.25 0.00002
37.3 -0.00002
37.35 -0.0003
37.4 -0.00072
37.45 -0.00072
37.5 -0.00036
37.55 0.00023
37.6 0.0004
37.65 0.00059
37.7 0.00053
37.75 0.00033
37.8 -0.00001
37.85 -0.00003
37.9 0.00005
37.95 0.00007
38 0.00012
38.05 0.00038
38.1 0.00031
38.15 0.00054
38.2 0.00094
38.25 0.00137
38.3 0.00159
38.35 0.00147
38.4 0.00143
38.45 0.0013
38.5 0.00134
38.55 0.00111
38.6 0.00118
38.65 0.00141
38.7 0.00165
38.75 0.00165
38.8 0.00154
38.85 0.00117
38.9 0.00113
38.95 0.00121
39 0.00138
39.05 0.00149
39.1 0.00173
39.15 0.00146
39.2 0.00098
39.25 0.0005
39.3 0.0003
39.35 0.00036
39.4 0.00038
39.45 0.00049
39.5 0.00067
39.55 0.00058
39.6 0.00009
39.65 -0.00037
39.7 -0.00096
39.75 -0.00116
39.8 -0.00113
39.85 -0.00108
39.9 -0.00108
39.95 -0.00082
40 -0.00044
40.05 -0.00017
40.1 -0.00015
40.15 -0.00045
40.2 -0.00044
40.25 -0.00064
40.3 -0.00046
40.35 -0.00061
40.4 -0.00068
40.45 -0.00056
40.5 -0.00065
40.55 -0.00058
40.6 -0.0004
40.65 -0.00024
40.7 0.00019
40.75 0.00073
40.8 0.00114
40.85 0.00151
40.9 0.00172
40.95 0.00172
41 0.00156
41.05 0.00116
41.1 0.00097
41.15 0.00104
41.2 0.00097
41.25 0.00081
41.3 0.00054
41.35 0.00015
41.4 -0.00049
41.45 -0.00104
41.5 -0.00119
41.55 -0.00108
41.6 -0.00073
41.65 -0.00025
41.7 -0.00011
41.75 0.00006
41.8 0.00005
41.85 -0.00005
41.9 -0.00017
41.95 0.00002
42 0.00019
42.05 0.00034
42.1 0.00021
42.15 -0.00012
42.2 -0.00036
42.25 -0.00022
42.3 -0.00031
42.35 -0.00057
42.4 -0.00092
42.45 -0.00101
42.5 -0.00108
42.55 -0.00082
42.6 -0.00037
42.65 0.00017
42.7 0.00051
42.75 0.00043
42.8 0.00029
42.85 -0.00014
42.9 -0.00076
42.95 -0.00148
43 -0.00188
43.05 -0.00175
43.1 -0.00154
43.15 -0.00119
43.2 -0.00119
43.25 -0.00121
43.3 -0.00128
43.35 -0.00163
43.4 -0.0018
43.45 -0.0016
43.5 -0.00131
43.55 -0.00131
43.6 -0.00129
43.65 -0.00162
43.7 -0.00232
43.75 -0.003
43.8 -0.00349
43.85 -0.00439
43.9 -0.00498
43.95 -0.00585
44 -0.00712
44.05 -0.00855
44.1 -0.00967
44.15 -0.01106
44.2 -0.01274
44.25 -0.01453
44.3 -0.01638
44.35 -0.0185
44.4 -0.02105
44.45 -0.02387
44.5 -0.02732
44.55 -0.03098
44.6 -0.0351
44.65 -0.03964
44.7 -0.04465
44.75 -0.05021
44.8 -0.05569
44.85 -0.06175
44.9 -0.06776
44.95 -0.07388
45 -0.08067
45.05 -0.08779
45.1 -0.09494
45.15 -0.10178
45.2 -0.10852
45.25 -0.11564
45.3 -0.1229
45.35 -0.1297
45.4 -0.13621
45.45 -0.14193
45.5 -0.14686
45.55 -0.1511
45.6 -0.15462
45.65 -0.15775
45.7 -0.16023
45.75 -0.16212
45.8 -0.16317
45.85 -0.16304
45.9 -0.16184
45.95 -0.15974
46 -0.15709
46.05 -0.15371
46.1 -0.14952
46.15 -0.14435
46.2 -0.13864
46.25 -0.13222
46.3 -0.12555
46.35 -0.11834
46.4 -0.11107
46.45 -0.10332
46.5 -0.09528
46.55 -0.08758
46.6 -0.08041
46.65 -0.07346
46.7 -0.0669
46.75 -0.0611
46.8 -0.05547
46.85 -0.04997
46.9 -0.045
46.95 -0.03999
47 -0.03547
47.05 -0.03127
47.1 -0.02693
47.15 -0.02262
47.2 -0.01814
47.25 -0.01358
47.3 -0.0088
47.35 -0.00366
47.4 0.00212
47.45 0.00822
47.5 0.01479
47.55 0.02197
47.6 0.02943
47.65 0.03736
47.7 0.04579
47.75 0.05476
47.8 0.0643
47.85 0.07417
47.9 0.08424
47.95 0.09427
48 0.10417
48.05 0.11345
48.1 0.12209
48.15 0.13007
48.2 0.13745
48.25 0.14489
48.3 0.15179
48.35 0.15848
48.4 0.1646
48.45 0.17006
48.5 0.17436
48.55 0.17775
48.6 0.18033
48.65 0.18233
48.7 0.18414
48.75 0.18492
48.8 0.18551
48.85 0.18519
48.9 0.18425
48.95 0.18307
49 0.18129
49.05 0.17908
49.1 0.1761
49.15 0.1728
49.2 0.16918
49.25 0.16532
49.3 0.16149
49.35 0.1578
49.4 0.15368
49.45 0.14963
49.5 0.14558
49.55 0.14161
49.6 0.13704
49.65 0.13243
49.7 0.12808
49.75 0.12361
49.8 0.11929
49.85 0.11514
49.9 0.11082
49.95 0.10639
50 0.10227
50.05 0.09853
50.1 0.09493
50.15 0.0914
50.2 0.08755
50.25 0.08366
50.3 0.07957
50.35 0.07577
50.4 0.07241
50.45 0.06878
50.5 0.06546
50.55 0.06245
50.6 0.05934
50.65 0.05615
50.7 0.05301
50.75 0.05007
50.8 0.04715
50.85 0.04454
50.9 0.0418
50.95 0.03929
51 0.03664
51.05 0.0341
51.1 0.03165
51.15 0.02939
51.2 0.02717
51.25 0.02468
51.3 0.02203
51.35 0.01922
51.4 0.01652
51.45 0.01389
51.5 0.01128
51.55 0.00887
51.6 0.00659
51.65 0.00468
51.7 0.00251
51.75 0.00076
51.8 -0.00109
51.85 -0.00299
51.9 -0.00457
51.95 -0.00637
52 -0.00779
52.05 -0.00886
52.1 -0.01014
52.15 -0.01152
52.2 -0.01316
52.25 -0.01455
52.3 -0.01579
52.35 -0.01687
52.4 -0.01809
52.45 -0.01946
52.5 -0.02077
52.55 -0.02211
52.6 -0.02344
52.65 -0.02455
52.7 -0.02524
52.75 -0.02554
52.8 -0.02573
52.85 -0.0258
52.9 -0.02624
52.95 -0.02668
53 -0.02729
53.05 -0.02764
53.1 -0.02771
53.15 -0.02765
53.2 -0.02749
53.25 -0.02706
53.3 -0.02652
53.35 -0.026
53.4 -0.0258
53.45 -0.02613
53.5 -0.02668
53.55 -0.02713
53.6 -0.02755
53.65 -0.02806
53.7 -0.02822
53.75 -0.02856
53.8 -0.0283
53.85 -0.02788
53.9 -0.0272
53.95 -0.0267
54 -0.02608
54.05 -0.02585
54.1 -0.02563
54.15 -0.02518
54.2 -0.02498
54.25 -0.02461
54.3 -0.02467
54.35 -0.02441
54.4 -0.0241
54.45 -0.0238
54.5 -0.02353
54.55 -0.02313
54.6 -0.02287
54.65 -0.0229
54.7 -0.0228
54.75 -0.02274
54.8 -0.02266
54.85 -0.02244
54.9 -0.02206
54.95 -0.02184
55 -0.02149
55.05 -0.02121
55.1 -0.02068
55.15 -0.02048
55.2 -0.02053
55.25 -0.0203
55.3 -0.01989
55.35 -0.0198
55.4 -0.01971
55.45 -0.01942
55.5 -0.01947
55.55 -0.0193
55.6 -0.01924
55.65 -0.01894
55.7 -0.01874
55.75 -0.01842
55.8 -0.01793
55.85 -0.01776
55.9 -0.01737
55.95 -0.0169
56 -0.01618
56.05 -0.01562
56.1 -0.01526
56.15 -0.01528
56.2 -0.01535
56.25 -0.01524
56.3 -0.01514
56.35 -0.01486
56.4 -0.01433
56.45 -0.01416
56.5 -0.01397
56.55 -0.01375
56.6 -0.01357
56.65 -0.01304
56.7 -0.01293
56.75 -0.01281
56.8 -0.01301
56.85 -0.01307
56.9 -0.01288
56.95 -0.01259
57 -0.01245
57.05 -0.01243
57.1 -0.01249
57.15 -0.01257
57.2 -0.0126
57.25 -0.01251
57.3 -0.01244
57.35 -0.01232
57.4 -0.01207
57.45 -0.0118
57.5 -0.01167
57.55 -0.01124
57.6 -0.01069
57.65 -0.00993
57.7 -0.00923
57.75 -0.00886
57.8 -0.00846
57.85 -0.00852
57.9 -0.00821
57.95 -0.0079
58 -0.00799
58.05 -0.00797
58.1 -0.00803
58.15 -0.00839
58.2 -0.00878
58.25 -0.00888
58.3 -0.00849
58.35 -0.00792
58.4 -0.00731
58.45 -0.00665
58.5 -0.00658
58.55 -0.00683
58.6 -0.00713
58.65 -0.00743
58.7 -0.00765
58.75 -0.00792
58.8 -0.00812
58.85 -0.0082
58.9 -0.00832
58.95 -0.00788
59 -0.00751
59.05 -0.00733
59.1 -0.00683
59.15 -0.00647
59.2 -0.00613
59.25 -0.00614
59.3 -0.00586
59.35 -0.00531
59.4 -0.00504
59.45 -0.00491
59.5 -0.00509
59.55 -0.00544
59.6 -0.00572
59.65 -0.00606
59.7 -0.00592
59.75 -0.00546
59.8 -0.005
59.85 -0.00499
59.9 -0.00487
59.95 -0.00489
60 -0.00468
60.05 -0.00455
60.1 -0.00455
60.15 -0.00479
60.2 -0.00453
60.25 -0.00404
60.3 -0.00395
60.35 -0.00369
60.4 -0.00341
60.45 -0.00353
60.5 -0.00368
60.55 -0.00377
60.6 -0.00386
60.65 -0.00401
60.7 -0.00438
60.75 -0.0042
60.8 -0.00394
60.85 -0.00362
60.9 -0.00351
60.95 -0.00307
61 -0.00311
61.05 -0.00282
61.1 -0.00269
61.15 -0.00288
61.2 -0.00317
61.25 -0.00316
61.3 -0.00326
61.35 -0.0032
61.4 -0.00314
61.45 -0.0033
61.5 -0.00313
61.55 -0.00275
61.6 -0.00268
61.65 -0.00267
61.7 -0.00285
61.75 -0.00279
61.8 -0.00286
61.85 -0.00275
61.9 -0.00231
61.95 -0.0017
62 -0.0013
62.05 -0.00107
62.1 -0.00111
62.15 -0.00116
62.2 -0.00101
62.25 -0.00114
62.3 -0.00131
62.35 -0.00139
62.4 -0.00154
62.45 -0.00138
62.5 -0.00103
62.55 -0.00091
62.6 -0.00061
62.65 -0.00042
62.7 -0.00016
62.75 -0.00012
62.8 -0.00055
62.85 -0.00106
62.9 -0.00119
62.95 -0.00165
63 -0.00215
63.05 -0.00226
63.1 -0.0022
63.15 -0.00188
63.2 -0.00176
63.25 -0.00175
63.3 -0.00196
63.35 -0.0024
63.4 -0.00279
63.45 -0.00327
63.5 -0.00374
63.55 -0.00352
63.6 -0.00325
63.65 -0.00291
63.7 -0.0024
63.75 -0.00219
63.8 -0.00212
63.85 -0.00212
63.9 -0.00208
63.95 -0.00228
64 -0.00232
64.05 -0.00239
64.1 -0.00216
64.15 -0.0018
64.2 -0.00117
64.25 -0.00049
64.3 -0.00016
64.35 0
64.4 0.00025
64.45 0.00061
64.5 0.00081
64.55 0.00073
64.6 0.00047
64.65 0.00002
64.7 -0.00036
64.75 -0.0008
64.8 -0.0013
64.85 -0.00148
64.9 -0.00152
64.95 -0.00132
65 -0.00092
65.05 -0.00085
65.1 -0.00079
65.15 -0.00068
65.2 -0.00043
65.25 -0.00035
65.3 -0.00039
65.35 -0.00056
65.4 -0.00042
65.45 -0.0005
65.5 -0.00048
65.55 -0.00042
65.6 -0.00012
65.65 -0.00032
65.7 -0.00035
65.75 -0.00066
65.8 -0.00107
65.85 -0.00134
65.9 -0.0012
65.95 -0.00114
66 -0.00076
66.05 -0.00062
66.1 -0.00038
66.15 -0.00053
66.2 -0.00095
66.25 -0.0015
66.3 -0.00196
66.35 -0.00218
66.4 -0.00187
66.45 -0.00179
66.5 -0.00171
66.55 -0.00132
66.6 -0.00097
66.65 -0.00101
66.7 -0.00115
66.75 -0.0011
66.8 -0.00095
66.85 -0.0007
66.9 -0.00063
66.95 -0.00072
67 -0.00057
67.05 -0.00075
67.1 -0.00072
67.15 -0.0009
67.2 -0.00096
67.25 -0.00066
67.3 -0.00044
67.35 0.00003
67.4 0.00057
67.45 0.00063
67.5 0.00042
67.55 0.00028
67.6 0.00041
67.65 0.00054
67.7 0.00026
67.75 -0.00029
67.8 -0.00086
67.85 -0.00099
67.9 -0.00076
67.95 -0.00055
68 -0.00026
68.05 -0.00008
68.1 -0.00018
68.15 -0.00022
68.2 -0.00027
68.25 -0.00052
68.3 -0.00066
68.35 -0.00075
68.4 -0.0009
68.45 -0.00063
68.5 -0.00037
68.55 -0.00003
68.6 -0.00006
68.65 0.00023
68.7 0.00043
68.75 0.00031
68.8 0.00034
68.85 0.00063
68.9 0.00075
68.95 0.00086
69 0.00081
69.05 0.00036
69.1 -0.00028
69.15 -0.00038
69.2 -0.00062
69.25 -0.00076
69.3 -0.001
69.35 -0.0008
69.4 -0.00038
69.45 -0.00032
69.5 -0.00059
69.55 -0.00084
69.6 -0.00061
69.65 -0.00059
69.7 -0.00061
69.75 -0.00042
69.8 -0.0005
69.85 -0.00038
69.9 -0.00001
69.95 -0.00005
70 0.00018
70.05 0.00049
70.1 0.00036
70.15 0.00032
70.2 -0.00008
70.25 -0.00025
70.3 -0.00011
70.35 -0.00036
70.4 -0.00065
70.45 -0.00091
70.5 -0.00129
70.55 -0.00117
70.6 -0.00067
70.65 -0.00009
70.7 -0.00006
70.75 -0.00004
70.8 0.00018
70.85 0
70.9 -0.00021
70.95 -0.0005
71 -0.00076
71.05 -0.00065
71.1 -0.00068
71.15 -0.00034
71.2 -0.00039
71.25 -0.00023
71.3 -0.00039
71.35 -0.00049
71.4 -0.0003
71.45 -0.00001
71.5 0.00047
71.55 0.00072
71.6 0.00068
71.65 0.00066
71.7 0.00041
71.75 0.00039
71.8 0.00047
71.85 0.00016
71.9 -0.00012
71.95 -0.00062
72 -0.00065
72.05 -0.00063
72.1 -0.00086
72.15 -0.00082
72.2 -0.00064
72.25 -0.00017
72.3 0.00042
72.35 0.00046
72.4 0.00036
72.45 0.00058
72.5 0.0008
72.55 0.00053
72.6 0.00024
72.65 -0.00002
72.7 0.00013
72.75 0.00053
72.8 0.00057
72.85 0.00053
72.9 0.00046
72.95 0.00044
73 0.00011
73.05 -0.00016
73.1 -0.00043
73.15 -0.00049
73.2 -0.0002
73.25 0.00012
73.3 0.00045
73.35 0.00028
73.4 -0.00013
73.45 -0.00017
73.5 0.00013
73.55 0.00054
73.6 0.00101
73.65 0.00137
73.7 0.00151
73.75 0.0017
73.8 0.00171
73.85 0.00176
73.9 0.00192
73.95 0.00171
74 0.00126
74.05 0.00092
74.1 0.00028
74.15 -0.00045
74.2 -0.0012
74.25 -0.00185
74.3 -0.00239
74.35 -0.00231
74.4 -0.0022
74.45 -0.00187
74.5 -0.00173
74.55 -0.00184
74.6 -0.00211
74.65 -0.00219
74.7 -0.00236
74.75 -0.00233
74.8 -0.00186
74.85 -0.00129
74.9 -0.00058
74.95 0.00006
75 0.00074
75.05 0.0013
75.1 0.00172
75.15 0.0015
75.2 0.00156
75.25 0.00169
75.3 0.00191
75.35 0.00199
75.4 0.00164
75.45 0.00135
75.5 0.00136
75.55 0.00103
75.6 0.00068
75.65 0.00037
75.7 0.0002
75.75 0.00007
75.8 -0
75.85 -0.00013
75.9 -0.00001
75.95 0.00013
76 0.00012
76.05 -0.00017
76.1 -0.00024
76.15 -0.00006
76.2 -0.00011
76.25 0.0001
76.3 -0.00008
76.35 -0.00004
76.4 -0.00007
76.45 -0.00031
76.5 -0.00079
76.55 -0.00135
76.6 -0.00191
76.65 -0.00198
76.7 -0.00203
76.75 -0.00203
76.8 -0.00213
76.85 -0.00236
76.9 -0.00256
76.95 -0.00239
77 -0.00228
77.05 -0.00188
77.1 -0.00163
77.15 -0.00137
77.2 -0.00096
77.25 -0.00074
77.3 -0.00079
77.35 -0.00072
77.4 -0.00073
77.45 -0.0006
77.5 -0.00042
77.55 -0.00022
77.6 -0.00035
77.65 -0.00055
77.7 -0.00065
77.75 -0.0004
77.8 -0.00013
77.85 0.00021
77.9 0.00074
77.95 0.00096
78 0.00086
78.05 0.00088
78.1 0.00076
78.15 0.00043
78.2 0.00031
78.25 0.00014
78.3 -0
78.35 -0.00013
78.4 -0.00016
78.45 -0.00041
78.5 -0.00073
78.55 -0.00063
78.6 -0.00051
78.65 -0.00029
78.7 -0.00012
78.75 -0.00011
78.8 -0.00036
78.85 -0.00043
78.9 -0.00067
78.95 -0.00103
79 -0.00112
79.05 -0.00106
79.1 -0.00124
79.15 -0.00126
79.2 -0.001
79.25 -0.00068
79.3 -0.00007
79.35 0.0003
79.4 0.00066
79.45 0.00064
79.5 0.00041
79.55 0.00033
79.6 0.0001
79.65 0.00006
79.7 0.00027
79.75 0.00014
79.8 0.00038
79.85 0.00083
79.9 0.00072
79.95 0.00056
80 0.0005
80.05 0.00018
80.1 0.00031
80.15 0.00016
80.2 0.00025
80.25 -0.00003
80.3 -0.00001
80.35 0.00021
80.4 0.00001
80.45 -0.00026
80.5 -0.00029
80.55 -0.00023
80.6 0.0001
80.65 0.00027
80.7 0.00013
80.75 -0.00028
80.8 -0.00022
80.85 0.0001
80.9 0.00016
80.95 0.00019
81 0.00043
81.05 0.00049
81.1 0.00029
81.15 0.00044
81.2 0.00016
81.25 0.00022
81.3 -0.00001
81.35 -0.00044
81.4 -0.0006
81.45 -0.00074
81.5 -0.00103
81.55 -0.00082
81.6 -0.0003
81.65 0.00026
81.7 0.00043
81.75 0.00025
81.8 0.00035
81.85 0.00021
81.9 -0.00012
81.95 -0.00013
82 0.00009
82.05 0.00055
82.1 0.0011
82.15 0.00153
82.2 0.00142
82.25 0.00107
82.3 0.0006
82.35 0.00018
82.4 -0.0001
82.45 -0.00023
82.5 -0.00034
82.55 -0.00021
82.6 -0.00003
82.65 0.00013
82.7 -0.00002
82.75 0.00006
82.8 0.00014
82.85 -0.00008
82.9 -0.00019
82.95 -0.00049
83 -0.00084
83.05 -0.00116
83.1 -0.00153
83.15 -0.00175
83.2 -0.00207
83.25 -0.00205
83.3 -0.00162
83.35 -0.00115
83.4 -0.00058
83.45 -0.00011
83.5 0.00017
83.55 0.00043
83.6 0.00041
83.65 0.00072
83.7 0.00086
83.75 0.00057
83.8 0.00045
83.85 0.00059
83.9 0.0007
83.95 0.00042
84 0.00017
84.05 -0.00016
84.1 -0.00036
84.15 -0.00058
84.2 -0.00045
84.25 -0.00005
84.3 0.00021
84.35 0.00063
84.4 0.00056
84.45 0.0003
84.5 -0.00003
84.55 -0.00047
84.6 -0.00093
84.65 -0.00085
84.7 -0.00048
84.75 -0.00035
84.8 -0.00015
84.85 0.0003
84.9 0.00043
84.95 0.00015
85 0.00004
85.05 0.00005
85.1 0.00027
85.15 0.00013
85.2 -0.00027
85.25 -0.00081
85.3 -0.00098
85.35 -0.00073
85.4 -0.00043
85.45 0.00001
85.5 0
85.55 0.00033
85.6 0.00033
85.65 0.00041
85.7 0.00049
85.75 0.00045
85.8 0.00056
85.85 0.00059
85.9 0.00044
85.95 0.00055
86 0.00031
86.05 0.00048
86.1 0.00073
86.15 0.00095
86.2 0.00109
86.25 0.00122
86.3 0.00141
86.35 0.00134
86.4 0.0009
86.45 0.00069
86.5 0.00053
86.55 0.0007
86.6 0.00057
86.65 0.00067
86.7 0.00048
86.75 0.00023
86.8 0
86.85 0.0001
86.9 0.00037
86.95 0.00055
87 0.00074
87.05 0.00063
87.1 0.00032
87.15 0.0004
87.2 0.00035
87.25 0.0002
87.3 0.00007
87.35 -0.00005
87.4 -0.00008
87.45 0.00002
87.5 -0.00005
87.55 -0.00017
87.6 0.00009
87.65 0.00028
87.7 0.00041
87.75 0.00035
87.8 0.00048
87.85 0.00043
87.9 0.00065
87.95 0.00059
88 0.00031
88.05 0.00033
88.1 -0.00001
88.15 -0.00023
88.2 -0.00038
88.25 -0.00049
88.3 -0.00029
88.35 -0.00035
88.4 -0.00044
88.45 -0.00065
88.5 -0.00059
88.55 -0.00081
88.6 -0.00116
88.65 -0.0015
88.7 -0.00154
88.75 -0.00158
88.8 -0.00146
88.85 -0.00117
88.9 -0.00114
88.95 -0.00116
89 -0.00122
89.05 -0.00128
89.1 -0.00102
89.15 -0.00057
89.2 -0.00035
89.25 -0.00033
89.3 -0.00061
89.35 -0.00061
89.4 -0.0005
89.45 -0.00058
89.5 -0.0007
89.55 -0.00038
89.6 0.00017
89.65 0.00039
89.7 0.00079
89.75 0.00092
89.8 0.00079
89.85 0.00066
89.9 0.00061
89.95 0.00068
90 0.00086
90.05 0.00086
90.1 0.00046
90.15 0.00012
90.2 -0.00007
90.25 0.00001
90.3 0.00033
90.35 0.00059
90.4 0.00037
90.45 0.00022
90.5 0.00008
90.55 0.00017
90.6 0.00014
90.65 0.00024
90.7 0.00046
90.75 0.00069
90.8 0.00045
90.85 0.00014
90.9 0.00023
90.95 0.00028
91 0.00004
91.05 0.00001
91.1 -0.00006
91.15 0.0002
91.2 0.00059
91.25 0.00067
91.3 0.00066
91.35 0.00092
91.4 0.00106
91.45 0.00089
91.5 0.00052
91.55 0.00056
91.6 0.00072
91.65 0.00073
91.7 0.00033
91.75 -0.00028
91.8 -0.00048
91.85 -0.00024
91.9 -0.00033
91.95 -0.00072
92 -0.00086
92.05 -0.00055
92.1 -0.00019
92.15 -0
92.2 -0.00005
92.25 -0.00011
92.3 0.00011
92.35 0.00035
92.4 0.00039
92.45 0.00004
92.5 -0.00021
92.55 -0.00037
92.6 -0.00064
92.65 -0.00111
92.7 -0.00135
92.75 -0.00147
92.8 -0.00164
92.85 -0.00138
92.9 -0.00132
92.95 -0.00097
93 -0.00038
93.05 0.00022
93.1 0.00044
93.15 0.00042
93.2 0.0006
93.25 0.00035
93.3 -0.00015
93.35 -0.00045
93.4 -0.00082
93.45 -0.00091
93.5 -0.00098
93.55 -0.00106
93.6 -0.00076
93.65 -0.00027
93.7 0.00015
93.75 0.0005
93.8 0.00083
93.85 0.0012
93.9 0.00162
93.95 0.00208
94 0.00215
94.05 0.00181
94.1 0.00133
94.15 0.00068
94.2 -0.00002
94.25 -0.00041
94.3 -0.00037
94.35 -0.00004
94.4 -0.00013
94.45 -0.00043
94.5 -0.00067
94.55 -0.00106
94.6 -0.00112
94.65 -0.00088
94.7 -0.00043
94.75 -0.00019
94.8 -0.00005
94.85 0.00002
94.9 -0.00001
94.95 -0
95 0.00019
95.05 0.00022
95.1 0.00053
95.15 0.00034
95.2 -0.00009
95.25 -0.0006
95.3 -0.001
95.35 -0.00097
95.4 -0.00086
95.45 -0.00102
95.5 -0.00072
95.55 -0.00054
95.6 -0.00033
95.65 0.00003
95.7 0.00016
95.75 0.00038
95.8 0.00057
95.85 0.0009
95.9 0.00095
95.95 0.00112
96 0.00146
96.05 0.00182
96.1 0.00209
96.15 0.00229
96.2 0.00207
96.25 0.00193
96.3 0.00188
96.35 0.00193
96.4 0.00192
96.45 0.00206
96.5 0.00183
96.55 0.00129
96.6 0.00066
96.65 0.00014
96.7 -0.00047
96.75 -0.0007
96.8 -0.00095
96.85 -0.00091
96.9 -0.00116
96.95 -0.00096
97 -0.00077
97.05 -0.00078
97.1 -0.00063
97.15 -0.00051
97.2 -0.00046
97.25 -0.00029
97.3 -0.00044
97.35 -0.0004
97.4 -0.00054
97.45 -0.00074
97.5 -0.00053
97.55 -0.00022
97.6 -0.00018
97.65 -0.00029
97.7 -0.00003
97.75 0.00026
97.8 0.00013
97.85 -0.00006
97.9 -0.00036
97.95 -0.00071
98 -0.00094
98.05 -0.00121
98.1 -0.00133
98.15 -0.00145
98.2 -0.00135
98.25 -0.00089
98.3 -0.00037
98.35 0.00005
98.4 0.00032
98.45 0.00012
98.5 -0.00017
98.55 -0.00046
98.6 -0.00035
98.65 -0.00046
98.7 -0.00023
98.75 0.00021
98.8 0.00022
98.85 0.00051
98.9 0.0009
98.95 0.00081
99 0.00089
99.05 0.00099
99.1 0.0007
99.15 0.00023
99.2 -0.00023
99.25 -0.00045
99.3 -0.00089
99.35 -0.00093
99.4 -0.00059
99.45 -0.00001
99.5 0.00018
99.55 0.00054
99.6 0.00049
99.65 0.00011
99.7 -0.00031
99.75 -0.00075
99.8 -0.00105
99.85 -0.00088
99.9 -0.00096
99.95 -0.00086
