0 0
0.05 0.00025
0.1 0.0008
0.15 0.00153
0.2 0.00214
0.25 0.00269
0.3 0.00307
0.35 0.00376
0.4 0.004
0.45 0.00421
0.5 0.00444
0.55 0.00487
0.6 0.00528
0.65 0.00544
0.7 0.00543
0.75 0.00507
0.8 0.00448
0.85 0.00389
0.9 0.00315
0.95 0.00306
1 0.00301
1.05 0.003
1.1 0.00337
1.15 0.00388
1.2 0.00433
1.25 0.00443
1.3 0.00419
1.35 0.00427
1.4 0.00436
1.45 0.00422
1.5 0.00385
1.55 0.00341
1.6 0.00316
1.65 0.00285
1.7 0.00246
1.75 0.00246
1.8 0.0025
1.85 0.00287
1.9 0.00324
1.95 0.0034
2 0.00333
2.05 0.00297
2.1 0.00259
2.15 0.00209
2.2 0.0021
2.25 0.00213
2.3 0.00199
2.35 0.00177
2.4 0.00191
2.45 0.00221
2.5 0.00219
2.55 0.00221
2.6 0.00186
2.65 0.00142
2.7 0.00127
2.75 0.00107
2.8 0.00106
2.85 0.00085
2.9 0.00088
2.95 0.00101
3 0.00122
3.05 0.00143
3.1 0.00148
3.15 0.0012
3.2 0.00142
3.25 0.00193
3.3 0.00255
3.35 0.00295
3.4 0.00291
3.45 0.00271
3.5 0.00214
3.55 0.00165
3.6 0.00166
3.65 0.00185
3.7 0.00213
3.75 0.00257
3.8 0.00273
3.85 0.00278
3.9 0.00238
3.95 0.00235
4 0.00225
4.05 0.00205
4.1 0.00211
4.15 0.00238
4.2 0.00232
4.25 0.00226
4.3 0.00197
4.35 0.00182
4.4 0.00137
4.45 0.00127
4.5 0.00134
4.55 0.00146
4.6 0.0012
4.65 0.00072
4.7 0.00017
4.75 0.00013
4.8 0.00048
4.85 0.00087
4.9 0.00139
4.95 0.00182
5 0.00216
5.05 0.002
5.1 0.00162
5.15 0.00163
5.2 0.00173
5.25 0.00192
5.3 0.00218
5.35 0.00199
5.4 0.0019
5.45 0.00173
5.5 0.00169
5.55 0.00182
5.6 0.00175
5.65 0.00182
5.7 0.00191
5.75 0.00148
5.8 0.00125
5.85 0.00132
5.9 0.00107
5.95 0.0008
6 0.00058
6.05 0.00059
6.1 0.00056
6.15 0.00084
6.2 0.00103
6.25 0.00138
6.3 0.00168
6.35 0.00198
6.4 0.00194
6.45 0.00161
6.5 0.00103
6.55 0.00038
6.6 0.00009
6.65 -0.00008
6.7 0.00016
6.75 0.00043
6.8 0.00053
6.85 0.0005
6.9 0.00026
6.95 -0.00012
7 -0.00027
7.05 -0.00007
7.1 -0.00017
7.15 0.00005
7.2 0.00008
7.25 0.0003
7.3 0.00063
7.35 0.00066
7.4 0.00097
7.45 0.00131
7.5 0.00125
7.55 0.00082
7.6 0.00075
7.65 0.0007
7.7 0.00032
7.75 -0.00009
7.8 -0.00021
7.85 0.00003
7.9 0.00013
7.95 -0.00008
8 -0.00039
8.05 -0.00079
8.1 -0.00103
8.15 -0.00135
8.2 -0.00142
8.25 -0.0014
8.3 -0.0013
8.35 -0.00137
8.4 -0.00104
8.45 -0.00105
8.5 -0.00108
8.55 -0.00071
8.6 -0.00017
8.65 -0.00012
8.7 0.00007
8.75 -0.00011
8.8 -0.00045
8.85 -0.00065
8.9 -0.00104
8.95 -0.00109
9 -0.00095
9.05 -0.00061
9.1 -0.0005
9.15 -0.00023
9.2 -0.00025
9.25 -0.00022
9.3 -0.00015
9.35 -0.00028
9.4 -0.00004
9.45 0.00015
9.5 0.00061
9.55 0.00103
9.6 0.00148
9.65 0.00196
9.7 0.00208
9.75 0.0021
9.8 0.00201
9.85 0.00203
9.9 0.00212
9.95 0.00182
10 0.00114
10.05 0.00043
10.1 -0.00035
10.15 -0.00059
10.2 -0.00038
10.25 0.00013
10.3 0.00052
10.35 0.00059
10.4 0.0004
10.45 0.00009
10.5 -0.0002
10.55 -0.00062
10.6 -0.00093
10.65 -0.00075
10.7 -0.00076
10.75 -0.00072
10.8 -0.00099
10.85 -0.00095
10.9 -0.00107
10.95 -0.00142
11 -0.00156
11.05 -0.00171
11.1 -0.00171
11.15 -0.00161
11.2 -0.00129
11.25 -0.00131
11.3 -0.00117
11.35 -0.00072
11.4 -0.00001
11.45 0.00066
11.5 0.00124
11.55 0.00147
11.6 0.00182
11.65 0.00204
11.7 0.00221
11.75 0.00249
11.8 0.00274
11.85 0.0026
11.9 0.00265
11.95 0.0027
12 0.00268
12.05 0.00248
12.1 0.00235
12.15 0.00234
12.2 0.00238
12.25 0.00204
12.3 0.0013
12.35 0.00034
12.4 -0.00004
12.45 -0.00003
12.5 -0.00026
12.55 -0.0004
12.6 -0.00058
12.65 -0.00065
12.7 -0.00045
12.75 -0.00042
12.8 -0.00048
12.85 -0.00022
12.9 -0.00006
12.95 0.00016
13 0.00017
13.05 0.00021
13.1 0.00041
13.15 0.00039
13.2 0.0001
13.25 -0.00007
13.3 -0.00035
13.35 -0.00064
13.4 -0.00069
13.45 -0.00065
13.5 -0.00048
13.55 -0.00057
13.6 -0.0008
13.65 -0.00062
13.7 -0.00016
13.75 -0.00012
13.8 0.0002
13.85 0.00069
13.9 0.00078
13.95 0.00066
14 0.0006
14.05 0.00054
14.1 0.0004
14.15 -0.00004
14.2 -0.00001
14.25 0.00028
14.3 0.00056
14.35 0.00053
14.4 0.00021
14.45 -0.00033
14.5 -0.00053
14.55 -0.00075
14.6 -0.00103
14.65 -0.00136
14.7 -0.00122
14.75 -0.00075
14.8 -0.00055
14.85 -0.00069
14.9 -0.00081
14.95 -0.0011
15 -0.00131
15.05 -0.00129
15.1 -0.00106
15.15 -0.00086
15.2 -0.00062
15.25 -0.00067
15.3 -0.00055
15.35 -0.00043
15.4 -0.00032
15.45 -0.00041
15.5 -0.00046
15.55 -0.00037
15.6 -0.00059
15.65 -0.001
15.7 -0.00143
15.75 -0.00146
15.8 -0.00161
15.85 -0.00169
15.9 -0.00186
15.95 -0.00158
16 -0.00152
16.05 -0.00103
16.1 -0.00078
16.15 -0.00052
16.2 -0.00047
16.25 -0.00013
16.3 0.00043
16.35 0.00047
16.4 0.00062
16.45 0.00069
16.5 0.00072
16.55 0.0009
16.6 0.00089
16.65 0.00101
16.7 0.00114
16.75 0.00129
16.8 0.00092
16.85 0.00083
16.9 0.0004
16.95 0.00028
17 0.00026
17.05 0.00011
17.1 -0.00027
17.15 -0.00041
17.2 -0.00075
17.25 -0.00063
17.3 -0.00035
17.35 -0.0004
17.4 -0.00029
17.45 -0.00006
17.5 0.00038
17.55 0.00091
17.6 0.00086
17.65 0.00051
17.7 0.00057
17.75 0.00036
17.8 0.00049
17.85 0.00021
17.9 -0.00021
17.95 -0.00042
18 -0.00044
18.05 -0.0001
18.1 0.00008
18.15 0.00051
18.2 0.00105
18.25 0.00148
18.3 0.00185
18.35 0.002
18.4 0.00203
18.45 0.00217
18.5 0.00231
18.55 0.00208
18.6 0.00186
18.65 0.00149
18.7 0.00124
18.75 0.00128
18.8 0.00125
18.85 0.00117
18.9 0.00103
18.95 0.00055
19 0.00036
19.05 0.00041
19.1 0.00057
19.15 0.00063
19.2 0.00057
19.25 0.0001
19.3 -0.0002
19.35 -0.00022
19.4 -0.00033
19.45 -0.00025
19.5 -0.00053
19.55 -0.00096
19.6 -0.00107
19.65 -0.0009
19.7 -0.00057
19.75 -0.00027
19.8 -0.00003
19.85 0.00029
19.9 0.00063
19.95 0.00071
20 0.00031
20.05 -0.00027
20.1 -0.00066
20.15 -0.00058
20.2 -0.00083
20.25 -0.00083
20.3 -0.00096
20.35 -0.00117
20.4 -0.00144
20.45 -0.00142
20.5 -0.00117
20.55 -0.00077
20.6 -0.00015
20.65 0.00024
20.7 0.00036
20.75 0.00027
20.8 0.00047
20.85 0.00048
20.9 0.00041
20.95 0.00056
21 0.00087
21.05 0.00101
21.1 0.00123
21.15 0.00148
21.2 0.00113
21.25 0.00063
21.3 0.00045
21.35 0.00049
21.4 0.00041
21.45 0.00044
21.5 0.00007
21.55 -0.00046
21.6 -0.00047
21.65 -0.00056
21.7 -0.00088
21.75 -0.00124
21.8 -0.00115
21.85 -0.0012
21.9 -0.00096
21.95 -0.00071
22 -0.0003
22.05 0.00004
22.1 0.00056
22.15 0.00103
22.2 0.00108
22.25 0.00125
22.3 0.00087
22.35 0.00028
22.4 -0.00033
22.45 -0.00062
22.5 -0.00066
22.55 -0.0009
22.6 -0.00067
22.65 -0.00029
22.7 -0.00019
22.75 0.0001
22.8 0.00042
22.85 0.00058
22.9 0.00091
22.95 0.00088
23 0.00068
23.05 0.00073
23.1 0.00069
23.15 0.00024
23.2 0.00005
23.25 -0.00042
23.3 -0.00072
23.35 -0.00116
23.4 -0.00113
23.45 -0.0009
23.5 -0.00092
23.55 -0.00101
23.6 -0.00107
23.65 -0.0009
23.7 -0.00045
23.75 -0.00026
23.8 -0.00019
23.85 0.00019
23.9 0.00062
23.95 0.00061
24 0.0007
24.05 0.00091
24.1 0.00087
24.15 0.0005
24.2 0.00054
24.25 0.00018
24.3 0.00022
24.35 0.00046
24.4 0.00038
24.45 0.00011
24.5 0.00001
24.55 0.00009
24.6 -0.00003
24.65 -0.00029
24.7 -0.00063
24.75 -0.00106
24.8 -0.00134
24.85 -0.00145
24.9 -0.00168
24.95 -0.00209
25 -0.00192
25.05 -0.0018
25.1 -0.00165
25.15 -0.00176
25.2 -0.00158
25.25 -0.00147
25.3 -0.00105
25.35 -0.00099
25.4 -0.00082
25.45 -0.00051
25.5 -0.00044
25.55 -0.00039
25.6 -0.00014
25.65 -0.00014
25.7 -0.00044
25.75 -0.00038
25.8 -0.00041
25.85 -0.00031
25.9 0.00001
25.95 0.00055
26 0.00073
26.05 0.00069
26.1 0.00068
26.15 0.00075
26.2 0.00042
26.25 -0.00004
26.3 -0.0003
26.35 -0.00047
26.4 -0.00049
26.45 -0.00051
26.5 -0.00026
26.55 -0.00029
26.6 -0.00032
26.65 -0.00062
26.7 -0.00056
26.75 -0.00018
26.8 0.00033
26.85 0.00042
26.9 0.00008
26.95 -0.00014
27 0.00002
27.05 0.00034
27.1 0.00076
27.15 0.00063
27.2 0.00031
27.25 0.00009
27.3 -0.00024
27.35 -0.00014
27.4 -0.00002
27.45 0.00016
27.5 0.00024
27.55 0.00003
27.6 -0.0005
27.65 -0.0009
27.7 -0.00133
27.75 -0.00154
27.8 -0.00165
27.85 -0.00138
27.9 -0.0013
27.95 -0.0009
28 -0.00083
28.05 -0.00105
28.1 -0.00125
28.15 -0.00149
28.2 -0.00163
28.25 -0.00146
28.3 -0.00123
28.35 -0.00066
28.4 -0.00057
28.45 -0.00048
28.5 -0.00055
28.55 -0.00032
28.6 -0.00035
28.65 -0.00044
28.7 -0.00018
28.75 -0.00017
28.8 -0.00041
28.85 -0.00024
28.9 -0.0004
28.95 -0.00033
29 -0.00025
29.05 -0.00048
29.1 -0.00066
29.15 -0.00048
29.2 -0.00011
29.25 0.00001
29.3 0.00025
29.35 0.00045
29.4 0.00019
29.45 -0.00032
29.5 -0.00082
29.55 -0.00098
29.6 -0.00103
29.65 -0.0013
29.7 -0.00159
29.75 -0.00174
29.8 -0.00153
29.85 -0.00116
29.9 -0.00054
29.95 0.00025
30 0.00083
30.05 0.00082
30.1 0.00091
30.15 0.00085
30.2 0.00087
30.25 0.00061
30.3 0.0006
30.35 0.00051
30.4 0.00005
30.45 -0.0004
30.5 -0.00044
30.55 -0.0006
30.6 -0.00088
30.65 -0.00107
30.7 -0.00146
30.75 -0.00142
30.8 -0.00119
30.85 -0.0007
30.9 -0.00063
30.95 -0.00081
31 -0.00098
31.05 -0.0012
31.1 -0.00137
31.15 -0.00154
31.2 -0.00137
31.25 -0.00149
31.3 -0.0016
31.35 -0.00164
31.4 -0.00155
31.45 -0.00159
31.5 -0.0012
31.55 -0.00079
31.6 -0.00023
31.65 0.00022
31.7 0.00065
31.75 0.0011
31.8 0.00165
31.85 0.00225
31.9 0.00246
31.95 0.00231
32 0.00188
32.05 0.0012
32.1 0.0007
32.15 0.00056
32.2 0.00059
32.25 0.00074
32.3 0.00048
32.35 0.00058
32.4 0.00044
32.45 0.00024
32.5 -0.00024
32.55 -0.00036
32.6 -0.00013
32.65 -0.00025
32.7 -0.0005
32.75 -0.00081
32.8 -0.00093
32.85 -0.00122
32.9 -0.00104
32.95 -0.00057
33 -0.00015
33.05 0.00025
33.1 0.00018
33.15 -0.00008
33.2 -0.00002
33.25 -0.00028
33.3 -0.00061
33.35 -0.00042
33.4 -0.00018
33.45 -0.00023
33.5 -0.00047
33.55 -0.00035
33.6 -0.00031
33.65 -0.00004
33.7 0.00014
33.75 0.00043
33.8 0.00048
33.85 0.00058
33.9 0.0003
33.95 0.00015
34 0.00023
34.05 0.00062
34.1 0.00075
34.15 0.00063
34.2 0.00056
34.25 0.00077
34.3 0.00121
34.35 0.00126
34.4 0.00151
34.45 0.00181
34.5 0.00194
34.55 0.00174
34.6 0.00132
34.65 0.00126
34.7 0.00133
34.75 0.00157
34.8 0.0018
34.85 0.00172
34.9 0.00141
34.95 0.0008
35 0.0004
35.05 0.00002
35.1 -0.00058
35.15 -0.00105
35.2 -0.00148
35.25 -0.00137
35.3 -0.00137
35.35 -0.00157
35.4 -0.00191
35.45 -0.00212
35.5 -0.00176
35.55 -0.00105
35.6 -0.00066
35.65 -0.00004
35.7 0.00068
35.75 0.00124
35.8 0.0017
35.85 0.00154
35.9 0.00123
35.95 0.00124
36 0.00113
36.05 0.00098
36.1 0.00077
36.15 0.00031
36.2 0.0001
36.25 -0.00005
36.3 -0.00025
36.35 -0
36.4 0.00031
36.45 0.00053
36.5 0.00032
36.55 0.00024
36.6 0.00001
36.65 -0.00047
36.7 -0.00066
36.75 -0.00082
36.8 -0.00052
36.85 -0.00053
36.9 -0.00059
36.95 -0.00072
37 -0.00045
37.05 -0.00005
37.1 -0.00009
37.15 -0.00044
37.2 -0.00082
37.25 -0.00072
37.3 -0.00093
37.35 -0.00069
37.4 -0.00027
37.45 0.00021
37.5 0.0007
37.55 0.00119
37.6 0.00144
37.65 0.00127
37.7 0.00119
37.75 0.0013
37.8 0.00101
37.85 0.00104
37.9 0.00122
37.95 0.00148
38 0.00144
38.05 0.00129
38.1 0.00088
38.15 0.00084
38.2 0.00067
38.25 0.00031
38.3 -0.0002
38.35 -0.00049
38.4 -0.00093
38.45 -0.00106
38.5 -0.00138
38.55 -0.00169
38.6 -0.00182
38.65 -0.00212
38.7 -0.00202
38.75 -0.00151
38.8 -0.00097
38.85 -0.00078
38.9 -0.00088
38.95 -0.0012
39 -0.00125
39.05 -0.00152
39.1 -0.00177
39.15 -0.00206
39.2 -0.00172
39.25 -0.00124
39.3 -0.00074
39.35 -0.00015
39.4 -0.00002
39.45 0.00038
39.5 0.00084
39.55 0.00102
39.6 0.0008
39.65 0.0009
39.7 0.00111
39.75 0.00109
39.8 0.00092
39.85 0.00101
39.9 0.00084
39.95 0.00044
40 0.00025
40.05 0.00009
40.1 0.00003
40.15 -0.00025
40.2 -0.00062
40.25 -0.0009
40.3 -0.00067
40.35 -0.00038
40.4 -0.00022
40.45 -0.00011
40.5 0.00006
40.55 -0.00011
40.6 -0.00002
40.65 0.00026
40.7 0.00052
40.75 0.0005
40.8 0.00078
40.85 0.00057
40.9 0.00009
40.95 0.0001
41 0.00012
41.05 -0.00018
41.1 -0.00036
41.15 -0.00036
41.2 -0.00047
41.25 -0.00049
41.3 -0.00048
41.35 -0.00052
41.4 -0.00078
41.45 -0.00065
41.5 -0.00015
41.55 -0.00009
41.6 -0
41.65 0.00036
41.7 0.00032
41.75 0.00034
41.8 0.00054
41.85 0.00037
41.9 0.00002
41.95 -0.00014
42 -0.00012
42.05 -0.00009
42.1 -0.00033
42.15 -0.00025
42.2 0.00007
42.25 0.00042
42.3 0.00064
42.35 0.00098
42.4 0.00096
42.45 0.00069
42.5 0.00051
42.55 0.00005
42.6 -0.0006
42.65 -0.00099
42.7 -0.00143
42.75 -0.00194
42.8 -0.00223
42.85 -0.00217
42.9 -0.00203
42.95 -0.00159
43 -0.00116
43.05 -0.00057
43.1 -0
43.15 0.00062
43.2 0.00107
43.25 0.0015
43.3 0.00131
43.35 0.00118
43.4 0.00072
43.45 0.00047
43.5 0.00035
43.55 0.00037
43.6 0.00007
43.65 -0.00035
43.7 -0.00031
43.75 -0.00047
43.8 -0.00043
43.85 -0.00041
43.9 -0.0002
43.95 0.00015
44 0.00042
44.05 0.0003
44.1 0.00007
44.15 -0.00043
44.2 -0.0009
44.25 -0.00084
44.3 -0.00063
44.35 -0.00011
44.4 0.00047
44.45 0.00081
44.5 0.00069
44.55 0.00049
44.6 -0.00004
44.65 -0.00073
44.7 -0.00093
44.75 -0.00084
44.8 -0.0007
44.85 -0.0004
44.9 0.00007
44.95 0.00013
45 0.00005
45.05 -0.0002
45.1 -0.00037
45.15 -0.00012
45.2 -0.00017
45.25 0.00011
45.3 0.00004
45.35 0.00007
45.4 -0.00024
45.45 -0.0007
45.5 -0.00108
45.55 -0.00113
45.6 -0.00072
45.65 -0.00061
45.7 -0.00024
45.75 -0.00015
45.8 -0.00023
45.85 0.00004
45.9 0.00012
45.95 0.00032
46 0.00018
46.05 0.00036
46.1 0.00014
46.15 -0.00013
46.2 -0.00026
46.25 -0.00037
46.3 -0.00067
46.35 -0.00082
46.4 -0.0006
46.45 -0.00075
46.5 -0.00109
46.55 -0.00152
46.6 -0.00186
46.65 -0.00163
46.7 -0.00115
46.75 -0.00075
46.8 -0.00013
46.85 0.00004
46.9 0.00015
46.95 0.00023
47 -0.00006
47.05 -0.00056
47.1 -0.00116
47.15 -0.00123
47.2 -0.00085
47.25 -0.00048
47.3 -0.00019
47.35 0.00028
47.4 0.00066
47.45 0.00101
47.5 0.00108
47.55 0.0014
47.6 0.00119
47.65 0.00097
47.7 0.00101
47.75 0.00108
47.8 0.00087
47.85 0.001
47.9 0.00082
47.95 0.00043
48 0.00022
48.05 0.0001
48.1 -0.00042
48.15 -0.00092
48.2 -0.00147
48.25 -0.00189
48.3 -0.00208
48.35 -0.00235
48.4 -0.00312
48.45 -0.00404
48.5 -0.00493
48.55 -0.00574
48.6 -0.00645
48.65 -0.0073
48.7 -0.00819
48.75 -0.0095
48.8 -0.0112
48.85 -0.01307
48.9 -0.01523
48.95 -0.01804
49 -0.0209
49.05 -0.02426
49.1 -0.02802
49.15 -0.0321
49.2 -0.03672
49.25 -0.04211
49.3 -0.04813
49.35 -0.05459
49.4 -0.06101
49.45 -0.06773
49.5 -0.07455
49.55 -0.08149
49.6 -0.08846
49.65 -0.09542
49.7 -0.10303
49.75 -0.11052
49.8 -0.11842
49.85 -0.126
49.9 -0.1334
49.95 -0.14085
50 -0.14805
50.05 -0.15442
50.1 -0.1601
50.15 -0.16542
50.2 -0.17011
50.25 -0.1743
50.3 -0.17718
50.35 -0.17946
50.4 -0.18072
50.45 -0.18099
50.5 -0.18029
50.55 -0.17932
50.6 -0.1776
50.65 -0.17557
50.7 -0.17281
50.75 -0.16979
50.8 -0.16572
50.85 -0.16098
50.9 -0.15596
50.95 -0.15044
51 -0.14483
51.05 -0.13864
51.1 -0.13216
51.15 -0.12508
51.2 -0.11722
51.25 -0.1085
51.3 -0.09939
51.35 -0.08994
51.4 -0.07966
51.45 -0.06882
51.5 -0.05784
51.55 -0.04668
51.6 -0.03447
51.65 -0.02198
51.7 -0.00892
51.75 0.00475
51.8 0.01848
51.85 0.03302
51.9 0.0476
51.95 0.06266
52 0.07726
52.05 0.09155
52.1 0.10565
52.15 0.11974
52.2 0.13335
52.25 0.14662
52.3 0.15919
52.35 0.17098
52.4 0.1815
52.45 0.19092
52.5 0.19987
52.55 0.20755
52.6 0.21441
52.65 0.2201
52.7 0.22461
52.75 0.22792
52.8 0.23069
52.85 0.23263
52.9 0.23338
52.95 0.23278
53 0.23128
53.05 0.22936
53.1 0.22646
53.15 0.22282
53.2 0.21867
53.25 0.21369
53.3 0.20864
53.35 0.20318
53.4 0.19753
53.45 0.19172
53.5 0.18539
53.55 0.17884
53.6 0.17196
53.65 0.16526
53.7 0.15814
53.75 0.1509
53.8 0.14384
53.85 0.13716
53.9 0.13082
53.95 0.12466
54 0.11858
54.05 0.11232
54.1 0.10611
54.15 0.09975
54.2 0.09371
54.25 0.08785
54.3 0.08237
54.35 0.07668
54.4 0.07165
54.45 0.06653
54.5 0.06175
54.55 0.05693
54.6 0.05247
54.65 0.04843
54.7 0.04491
54.75 0.04124
54.8 0.0378
54.85 0.03451
54.9 0.03148
54.95 0.02825
55 0.02542
55.05 0.02273
55.1 0.0199
55.15 0.01713
55.2 0.01411
55.25 0.0115
55.3 0.0094
55.35 0.00751
55.4 0.00558
55.45 0.00366
55.5 0.00162
55.55 0.00008
55.6 -0.00125
55.65 -0.0024
55.7 -0.00355
55.75 -0.00472
55.8 -0.00628
55.85 -0.008
55.9 -0.00964
55.95 -0.01115
56 -0.01206
56.05 -0.01272
56.1 -0.0134
56.15 -0.01394
56.2 -0.01438
56.25 -0.01518
56.3 -0.01581
56.35 -0.01637
56.4 -0.01689
56.45 -0.01709
56.5 -0.01759
56.55 -0.01833
56.6 -0.01913
56.65 -0.01972
56.7 -0.02022
56.75 -0.02087
56.8 -0.02137
56.85 -0.02164
56.9 -0.02164
56.95 -0.02141
57 -0.02102
57.05 -0.02119
57.1 -0.02128
57.15 -0.02118
57.2 -0.02117
57.25 -0.02132
57.3 -0.02157
57.35 -0.0216
57.4 -0.02181
57.45 -0.02241
57.5 -0.02315
57.55 -0.02337
57.6 -0.02386
57.65 -0.02384
57.7 -0.02367
57.75 -0.0238
57.8 -0.02384
57.85 -0.02379
57.9 -0.02372
57.95 -0.02393
58 -0.02409
58.05 -0.02436
58.1 -0.02441
58.15 -0.02413
58.2 -0.02394
58.25 -0.02362
58.3 -0.02328
58.35 -0.02332
58.4 -0.02317
58.45 -0.02309
58.5 -0.02283
58.55 -0.0223
58.6 -0.02193
58.65 -0.02186
58.7 -0.02157
58.75 -0.02135
58.8 -0.02078
58.85 -0.02059
58.9 -0.02075
58.95 -0.02078
59 -0.02084
59.05 -0.02084
59.1 -0.02081
59.15 -0.02076
59.2 -0.02059
59.25 -0.02057
59.3 -0.02064
59.35 -0.02045
59.4 -0.02014
59.45 -0.01997
59.5 -0.01979
59.55 -0.01928
59.6 -0.0188
59.65 -0.01794
59.7 -0.01697
59.75 -0.01597
59.8 -0.01539
59.85 -0.0153
59.9 -0.01532
59.95 -0.01516
60 -0.01488
60.05 -0.01494
60.1 -0.01528
60.15 -0.01505
60.2 -0.01518
60.25 -0.01541
60.3 -0.01549
60.35 -0.01507
60.4 -0.01473
60.45 -0.01419
60.5 -0.01356
60.55 -0.01308
60.6 -0.01274
60.65 -0.01263
60.7 -0.01216
60.75 -0.01209
60.8 -0.01171
60.85 -0.01152
60.9 -0.01143
60.95 -0.011
61 -0.01095
61.05 -0.01076
61.1 -0.01094
61.15 -0.01099
61.2 -0.01096
61.25 -0.01067
61.3 -0.01055
61.35 -0.01061
61.4 -0.01032
61.45 -0.01011
61.5 -0.00985
61.55 -0.00966
61.6 -0.00931
61.65 -0.00928
61.7 -0.0095
61.75 -0.00993
61.8 -0.01017
61.85 -0.00996
61.9 -0.0096
61.95 -0.00914
62 -0.00888
62.05 -0.00887
62.1 -0.00894
62.15 -0.00878
62.2 -0.0085
62.25 -0.00834
62.3 -0.00834
62.35 -0.00818
62.4 -0.00794
62.45 -0.00805
62.5 -0.00794
62.55 -0.00768
62.6 -0.00759
62.65 -0.00744
62.7 -0.00736
62.75 -0.00751
62.8 -0.00746
62.85 -0.00737
62.9 -0.00715
62.95 -0.00674
63 -0.00632
63.05 -0.00623
63.1 -0.00641
63.15 -0.00618
63.2 -0.00592
63.25 -0.00553
63.3 -0.00499
63.35 -0.00483
63.4 -0.00498
63.45 -0.00478
63.5 -0.00442
63.55 -0.00433
63.6 -0.00447
63.65 -0.0044
63.7 -0.0044
63.75 -0.00462
63.8 -0.00492
63.85 -0.00505
63.9 -0.00483
63.95 -0.0043
64 -0.00368
64.05 -0.00324
64.1 -0.00294
64.15 -0.00302
64.2 -0.00281
64.25 -0.00286
64.3 -0.00261
64.35 -0.00283
64.4 -0.00326
64.45 -0.00347
64.5 -0.00351
64.55 -0.00389
64.6 -0.00386
64.65 -0.00372
64.7 -0.00376
64.75 -0.00361
64.8 -0.0035
64.85 -0.00317
64.9 -0.00308
64.95 -0.0031
65 -0.00322
65.05 -0.00304
65.1 -0.00269
65.15 -0.00283
65.2 -0.00318
65.25 -0.00325
65.3 -0.0031
65.35 -0.00281
65.4 -0.00266
65.45 -0.00277
65.5 -0.00268
65.55 -0.00273
65.6 -0.00245
65.65 -0.00232
65.7 -0.0021
65.75 -0.0018
65.8 -0.00165
65.85 -0.00176
65.9 -0.00153
65.95 -0.00158
66 -0.00191
66.05 -0.002
66.1 -0.00235
66.15 -0.00279
66.2 -0.00271
66.25 -0.00249
66.3 -0.0024
66.35 -0.00254
66.4 -0.0026
66.45 -0.00277
66.5 -0.00263
66.55 -0.00274
66.6 -0.00293
66.65 -0.00277
66.7 -0.00229
66.75 -0.00184
66.8 -0.00177
66.85 -0.00176
66.9 -0.0018
66.95 -0.00194
67 -0.00231
67.05 -0.00235
67.1 -0.00196
67.15 -0.00184
67.2 -0.00147
67.25 -0.00098
67.3 -0.00061
67.35 -0.00043
67.4 -0.00041
67.45 -0.00013
67.5 -0.00041
67.55 -0.00059
67.6 -0.00089
67.65 -0.00134
67.7 -0.00129
67.75 -0.00147
67.8 -0.00137
67.85 -0.00127
67.9 -0.00088
67.95 -0.00068
68 -0.00027
68.05 -0.00003
68.1 -0.00029
68.15 -0.00059
68.2 -0.00094
68.25 -0.00094
68.3 -0.00116
68.35 -0.00107
68.4 -0.00094
68.45 -0.00108
68.5 -0.001
68.55 -0.00131
68.6 -0.00129
68.65 -0.0012
68.7 -0.00148
68.75 -0.00136
68.8 -0.00105
68.85 -0.0012
68.9 -0.00147
68.95 -0.00189
69 -0.00211
69.05 -0.00202
69.1 -0.0018
69.15 -0.00169
69.2 -0.00164
69.25 -0.00186
69.3 -0.00158
69.35 -0.00147
69.4 -0.00164
69.45 -0.00183
69.5 -0.00177
69.55 -0.00185
69.6 -0.00196
69.65 -0.00177
69.7 -0.00157
69.75 -0.00125
69.8 -0.00076
69.85 -0.0002
69.9 0.00005
69.95 0.0004
70 0.00019
70.05 0.00005
70.1 -0.00003
70.15 -0.00021
70.2 -0.00063
70.25 -0.00066
70.3 -0.00098
70.35 -0.0015
70.4 -0.00167
70.45 -0.00202
70.5 -0.00223
70.55 -0.00242
70.6 -0.00207
70.65 -0.00168
70.7 -0.00157
70.75 -0.00173
70.8 -0.00161
70.85 -0.00111
70.9 -0.0007
70.95 -0.00011
71 0.00013
71.05 -0.00009
71.1 -0.00045
71.15 -0.00067
71.2 -0.00077
71.25 -0.00099
71.3 -0.00095
71.35 -0.00087
71.4 -0.00062
71.45 -0.00017
71.5 -0.00001
71.55 0.00035
71.6 0.00073
71.65 0.00077
71.7 0.00037
71.75 0.00002
71.8 0.00005
71.85 0.00022
71.9 0.0004
71.95 0.00017
72 -0.00012
72.05 -0.00058
72.1 -0.00067
72.15 -0.00107
72.2 -0.00133
72.25 -0.00109
72.3 -0.00075
72.35 -0.00072
72.4 -0.00091
72.45 -0.00082
72.5 -0.00071
72.55 -0.00069
72.6 -0.0006
72.65 -0.00027
72.7 -0.00034
72.75 -0.00064
72.8 -0.0011
72.85 -0.00126
72.9 -0.00119
72.95 -0.00111
73 -0.00125
73.05 -0.0013
73.1 -0.0013
73.15 -0.00113
73.2 -0.00084
73.25 -0.00025
73.3 0.00026
73.35 0.0008
73.4 0.00118
73.45 0.00124
73.5 0.00135
73.55 0.00146
73.6 0.00154
73.65 0.00124
73.7 0.00098
73.75 0.00068
73.8 0.0007
73.85 0.00037
73.9 -0.0001
73.95 -0.00046
74 -0.00034
74.05 -0.00031
74.1 -0.0005
74.15 -0.00039
74.2 -0.00028
74.25 -0.00008
74.3 0.00013
74.35 -0.00014
74.4 -0.00065
74.45 -0.00126
74.5 -0.00152
74.55 -0.00189
74.6 -0.00163
74.65 -0.00114
74.7 -0.00054
74.75 0.00001
74.8 0.00056
74.85 0.00109
74.9 0.0013
74.95 0.00114
75 0.00108
75.05 0.0007
75.1 0.00063
75.15 0.00067
75.2 0.00077
75.25 0.00078
75.3 0.00104
75.35 0.00079
75.4 0.00065
75.45 0.00023
75.5 -0.00028
75.55 -0.00032
75.6 -0.00024
75.65 -0.00035
75.7 -0.00006
75.75 0.00035
75.8 0.0006
75.85 0.00076
75.9 0.00111
75.95 0.00142
76 0.00143
76.05 0.00107
76.1 0.0005
76.15 -0.00003
76.2 -0.00044
76.25 -0.00081
76.3 -0.0013
76.35 -0.00182
76.4 -0.00167
76.45 -0.00181
76.5 -0.00154
76.55 -0.00158
76.6 -0.0018
76.65 -0.00164
76.7 -0.00155
76.75 -0.00133
76.8 -0.00087
76.85 -0.00026
76.9 0.00034
76.95 0.00034
77 0.00053
77.05 0.00033
77.1 0.00013
77.15 0.00022
77.2 0.00006
77.25 0.00029
77.3 0.00062
77.35 0.00059
77.4 0.00074
77.45 0.00061
77.5 0.00027
77.55 0.0003
77.6 0.00062
77.65 0.00074
77.7 0.00045
77.75 0.00012
77.8 -0.00024
77.85 -0.00034
77.9 -0.00059
77.95 -0.00099
78 -0.00152
78.05 -0.00192
78.1 -0.00187
78.15 -0.00192
78.2 -0.00146
78.25 -0.00075
78.3 -0.00038
78.35 0.00016
78.4 0.00019
78.45 0.00025
78.5 0.00045
78.55 0.00023
78.6 0.00037
78.65 0.00042
78.7 0.00055
78.75 0.00056
78.8 0.00033
78.85 0.00002
78.9 -0.00047
78.95 -0.00094
79 -0.00109
79.05 -0.00089
79.1 -0.00055
79.15 -0.00021
79.2 0.0002
79.25 0.00019
79.3 0.00016
79.35 0.0004
79.4 0.00019
79.45 -0.00006
79.5 -0.00024
79.55 0
79.6 0.0001
79.65 -0.00015
79.7 -0.0004
79.75 -0.00067
79.8 -0.00099
79.85 -0.00118
79.9 -0.00128
79.95 -0.00138
80 -0.0011
80.05 -0.00093
80.1 -0.00052
80.15 -0.00033
80.2 0.00018
80.25 0.00073
80.3 0.00091
80.35 0.00073
80.4 0.00087
80.45 0.00123
80.5 0.00102
80.55 0.00064
80.6 0.00025
80.65 -0.00011
80.7 -0.00041
80.75 -0.00048
80.8 -0.00046
80.85 -0.00043
80.9 -0.00066
80.95 -0.00068
81 -0.00059
81.05 -0.00054
81.1 -0.0002
81.15 0.00002
81.2 0.00005
81.25 -0.00001
81.3 0.00022
81.35 0.00015
81.4 -0.00001
81.45 -0.00047
81.5 -0.00037
81.55 -0.00034
81.6 -0.00059
81.65 -0.00049
81.7 -0.00031
81.75 0.00005
81.8 0.00019
81.85 0.00039
81.9 0.0005
81.95 0.00077
82 0.00116
82.05 0.00139
82.1 0.0016
82.15 0.00135
82.2 0.00096
82.25 0.00094
82.3 0.00114
82.35 0.00119
82.4 0.00083
82.45 0.0008
82.5 0.00073
82.55 0.00063
82.6 0.00058
82.65 0.00064
82.7 0.00086
82.75 0.00067
82.8 0.00069
82.85 0.00097
82.9 0.00094
82.95 0.00085
83 0.00067
83.05 0.00065
83.1 0.00061
83.15 0.00027
83.2 0.00035
83.25 0.00031
83.3 0.00018
83.35 -0.0001
83.4 -0.00014
83.45 -0.00001
83.5 -0.0002
83.55 -0.00044
83.6 -0.00029
83.65 -0.00041
83.7 -0.00077
83.75 -0.00113
83.8 -0.00154
83.85 -0.00178
83.9 -0.0019
83.95 -0.00218
84 -0.00191
84.05 -0.00133
84.1 -0.00082
84.15 -0.00043
84.2 -0.00028
84.25 0.00012
84.3 0.00006
84.35 -0.00007
84.4 -0.00045
84.45 -0.00061
84.5 -0.0009
84.55 -0.00098
84.6 -0.00083
84.65 -0.00044
84.7 -0.0001
84.75 0.00005
84.8 0.00027
84.85 0.00014
84.9 -0.00012
84.95 -0.00002
85 0.00031
85.05 0.00035
85.1 0.00049
85.15 0.00063
85.2 0.00101
85.25 0.00127
85.3 0.00131
85.35 0.00092
85.4 0.00084
85.45 0.00059
85.5 0.00063
85.55 0.00083
85.6 0.00104
85.65 0.00124
85.7 0.00153
85.75 0.00126
85.8 0.00064
85.85 0.00007
85.9 -0.00024
85.95 -0.00013
86 -0.00004
86.05 -0.00028
86.1 -0.00051
86.15 -0.00074
86.2 -0.00063
86.25 -0.00084
86.3 -0.0012
86.35 -0.00122
86.4 -0.00142
86.45 -0.00144
86.5 -0.00161
86.55 -0.00192
86.6 -0.00191
86.65 -0.00142
86.7 -0.0009
86.75 -0.00032
86.8 0.00024
86.85 0.00053
86.9 0.00042
86.95 -0.00005
87 -0.00063
87.05 -0.00115
87.1 -0.00109
87.15 -0.0011
87.2 -0.00122
87.25 -0.00099
87.3 -0.00097
87.35 -0.00085
87.4 -0.00085
87.45 -0.00076
87.5 -0.00086
87.55 -0.00076
87.6 -0.00071
87.65 -0.0009
87.7 -0.00084
87.75 -0.0008
87.8 -0.00034
87.85 0.00002
87.9 0.0001
87.95 0.00001
88 0
88.05 0.00007
88.1 0.00019
88.15 0.00048
88.2 0.00093
88.25 0.00108
88.3 0.00117
88.35 0.00089
88.4 0.00089
88.45 0.00116
88.5 0.00115
88.55 0.00093
88.6 0.00087
88.65 0.0007
88.7 0.00034
88.75 -0.00022
88.8 -0.00027
88.85 -0.00016
88.9 -0.00026
88.95 -0.00044
89 -0.00087
89.05 -0.00112
89.1 -0.0009
89.15 -0.00065
89.2 -0.00012
89.25 0.00008
89.3 -0.00014
89.35 0.00006
89.4 -0.00013
89.45 -0.00038
89.5 -0.00049
89.55 -0.0004
89.6 -0.00013
89.65 -0.00028
89.7 -0.00023
89.75 -0.00038
89.8 -0.00051
89.85 -0.00039
89.9 -0.00021
89.95 -0.00005
90 0.00033
90.05 0.00068
90.1 0.00065
90.15 0.00064
90.2 0.00044
90.25 0.00042
90.3 0.00072
90.35 0.00116
90.4 0.00169
90.45 0.00157
90.5 0.00124
90.55 0.00098
90.6 0.00052
90.65 0.00021
90.7 0.00035
90.75 0.00008
90.8 -0.00036
90.85 -0.00047
90.9 -0.00043
90.95 -0.00069
91 -0.00062
91.05 -0.00048
91.1 -0.00045
91.15 -0.00022
91.2 -0.00036
91.25 -0.00058
91.3 -0.00038
91.35 0.00007
91.4 0
91.45 0.00009
91.5 0.0001
91.55 -0
91.6 -0.00005
91.65 0.00004
91.7 0.00008
91.75 0.00042
91.8 0.00043
91.85 0.00011
91.9 0.00008
91.95 -0.0003
92 -0.00072
92.05 -0.00089
92.1 -0.00125
92.15 -0.00173
92.2 -0.0017
92.25 -0.00139
92.3 -0.00136
92.35 -0.00126
92.4 -0.00131
92.45 -0.00101
92.5 -0.00063
92.55 -0.00006
92.6 0.00011
92.65 -0.00006
92.7 -0.00031
92.75 -0.00074
92.8 -0.00117
92.85 -0.00165
92.9 -0.00164
92.95 -0.00153
93 -0.00119
93.05 -0.00079
93.1 -0.00034
93.15 -0.00012
93.2 0.00021
93.25 0.00049
93.3 0.00079
93.35 0.00072
93.4 0.00033
93.45 0.0003
93.5 0.00021
93.55 0.00007
93.6 -0.00035
93.65 -0.00042
93.7 -0.00059
93.75 -0.00099
93.8 -0.00134
93.85 -0.0014
93.9 -0.00129
93.95 -0.00102
94 -0.00078
94.05 -0.00029
94.1 0.00014
94.15 0.00061
94.2 0.00052
94.25 0.00071
94.3 0.00108
94.35 0.0013
94.4 0.00141
94.45 0.00115
94.5 0.00121
94.55 0.00083
94.6 0.00077
94.65 0.00033
94.7 -0.0002
94.75 -0.00045
94.8 -0.00068
94.85 -0.00065
94.9 -0.00043
94.95 -0.00017
95 0.00016
95.05 0.00027
95.1 0.00051
95.15 0.00067
95.2 0.00094
95.25 0.0011
95.3 0.0009
95.35 0.00096
95.4 0.0009
95.45 0.00109
95.5 0.00133
95.55 0.00101
95.6 0.00082
95.65 0.0009
95.7 0.00123
95.75 0.00107
95.8 0.00065
95.85 0.00043
95.9 0.00018
95.95 -0.00034
96 -0.00044
96.05 -0.00044
96.1 -0.00033
96.15 -0.0002
96.2 -0.00014
96.25 -0.00041
96.3 -0.00028
96.35 -0.00033
96.4 -0.00008
96.45 0.00043
96.5 0.00038
96.55 0.00012
96.6 -0.00024
96.65 -0.00068
96.7 -0.00083
96.75 -0.00095
96.8 -0.00081
96.85 -0.00088
96.9 -0.00114
96.95 -0.00122
97 -0.00091
97.05 -0.00041
97.1 0.00002
97.15 -0.00003
97.2 -0.00014
97.25 -0.00037
97.3 -0.00025
97.35 -0.00022
97.4 -0.00015
97.45 -0.00014
97.5 -0.00024
97.55 -0.00024
97.6 -0.00023
97.65 -0.0003
97.7 -0.00052
97.75 -0.00047
97.8 -0.00066
97.85 -0.00048
97.9 -0.00003
97.95 0.00033
98 0.00066
98.05 0.00057
98.1 0.00026
98.15 0.00005
98.2 -0.00033
98.25 -0.00062
98.3 -0.00109
98.35 -0.00131
98.4 -0.00145
98.45 -0.00133
98.5 -0.00096
98.55 -0.00085
98.6 -0.0008
98.65 -0.00088
98.7 -0.00119
98.75 -0.0013
98.8 -0.001
98.85 -0.0009
98.9 -0.00045
98.95 0.00025
99 0.00055
99.05 0.0008
99.1 0.00074
99.15 0.00067
99.2 0.00026
99.25 0.00018
99.3 0.00042
99.35 0.00048
99.4 0.00057
99.45 0.00088
99.5 0.00095
99.55 0.00113
99.6 0.00089
99.65 0.0004
99.7 0.00005
99.75 0.00016
99.8 -0.00001
99.85 -0.00003
99.9 -0.00038
99.95 -0.00062
