0 0
0.05 0.00705
0.1 0.01823
0.15 0.02858
0.2 0.04024
0.25 0.04762
0.3 0.05485
0.35 0.06004
0.4 0.06687
0.45 0.06766
0.5 0.07075
0.55 0.06639
0.6 0.06532
0.65 0.06677
0.7 0.06735
0.75 0.06662
0.8 0.06466
0.85 0.05912
0.9 0.05545
0.95 0.04733
1 0.04564
1.05 0.04609
1.1 0.04252
1.15 0.04235
1.2 0.0411
1.25 0.03935
1.3 0.04173
1.35 0.03891
1.4 0.0372
1.45 0.03739
1.5 0.04077
1.55 0.04239
1.6 0.04419
1.65 0.04109
1.7 0.03753
1.75 0.03138
1.8 0.0282
1.85 0.02242
1.9 0.01846
1.95 0.01552
2 0.018
2.05 0.01749
2.1 0.02075
2.15 0.02686
2.2 0.03055
2.25 0.03199
2.3 0.03256
2.35 0.02873
2.4 0.02245
2.45 0.01943
2.5 0.01457
2.55 0.01625
2.6 0.01578
2.65 0.01893
2.7 0.02506
2.75 0.03196
2.8 0.03222
2.85 0.0318
2.9 0.02706
2.95 0.02375
3 0.0259
3.05 0.0224
3.1 0.0244
3.15 0.02791
3.2 0.02987
3.25 0.03454
3.3 0.04007
3.35 0.0407
3.4 0.03978
3.45 0.03303
3.5 0.02818
3.55 0.02746
3.6 0.02649
3.65 0.02094
3.7 0.01424
3.75 0.01095
3.8 0.00959
3.85 0.01331
3.9 0.01634
3.95 0.02017
4 0.01801
4.05 0.01517
4.1 0.00891
4.15 0.0023
4.2 -0.00002
4.25 -0.0014
4.3 -0.00598
4.35 -0.00845
4.4 -0.00784
4.45 -0.00559
4.5 -0.00544
4.55 -0.01042
4.6 -0.01862
4.65 -0.02345
4.7 -0.03444
4.75 -0.04735
4.8 -0.06172
4.85 -0.07489
4.9 -0.08777
4.95 -0.10187
5 -0.12062
5.05 -0.14901
5.1 -0.17752
5.15 -0.20525
5.2 -0.23954
5.25 -0.27593
5.3 -0.31611
5.35 -0.35264
5.4 -0.38482
5.45 -0.41958
5.5 -0.44727
5.55 -0.47218
5.6 -0.49307
5.65 -0.50563
5.7 -0.51359
5.75 -0.51554
5.8 -0.51445
5.85 -0.50507
5.9 -0.48478
5.95 -0.45401
6 -0.41659
6.05 -0.37565
6.1 -0.32752
6.15 -0.27998
6.2 -0.23097
6.25 -0.17817
6.3 -0.12761
6.35 -0.08158
6.4 -0.03206
6.45 0.01429
6.5 0.05333
6.55 0.09312
6.6 0.13027
6.65 0.1613
6.7 0.18794
6.75 0.21079
6.8 0.23195
6.85 0.25247
6.9 0.27115
6.95 0.28177
7 0.29024
7.05 0.3007
7.1 0.31057
7.15 0.32311
7.2 0.33834
7.25 0.35297
7.3 0.36655
7.35 0.37998
7.4 0.38938
7.45 0.39771
7.5 0.40337
7.55 0.40575
7.6 0.40669
7.65 0.41229
7.7 0.42005
7.75 0.42015
7.8 0.41542
7.85 0.40981
7.9 0.3994
7.95 0.39021
8 0.38422
8.05 0.37964
8.1 0.36734
8.15 0.35347
8.2 0.3339
8.25 0.31417
8.3 0.29894
8.35 0.28241
8.4 0.2618
8.45 0.24339
8.5 0.22523
8.55 0.20684
8.6 0.18846
8.65 0.16705
8.7 0.14653
8.75 0.12561
8.8 0.10806
8.85 0.09222
8.9 0.08082
8.95 0.07323
9 0.06659
9.05 0.05906
9.1 0.05199
9.15 0.04359
9.2 0.03463
9.25 0.02825
9.3 0.02589
9.35 0.01857
9.4 0.01612
9.45 0.01053
9.5 0.00384
9.55 -0.00184
9.6 -0.00577
9.65 -0.01142
9.7 -0.01067
9.75 -0.01471
9.8 -0.01376
9.85 -0.01767
9.9 -0.02293
9.95 -0.02698
10 -0.03291
10.05 -0.03384
10.1 -0.03002
10.15 -0.02374
10.2 -0.02289
10.25 -0.02106
10.3 -0.0232
10.35 -0.02055
10.4 -0.01954
10.45 -0.02009
10.5 -0.0177
10.55 -0.01474
10.6 -0.01282
10.65 -0.00851
10.7 -0.00982
10.75 -0.0091
10.8 -0.01373
10.85 -0.01878
10.9 -0.02137
10.95 -0.02317
11 -0.02015
11.05 -0.02072
11.1 -0.01893
11.15 -0.02117
11.2 -0.02358
11.25 -0.02895
11.3 -0.03134
11.35 -0.03128
11.4 -0.03108
11.45 -0.034
11.5 -0.03156
11.55 -0.02542
11.6 -0.01881
11.65 -0.01923
11.7 -0.02128
11.75 -0.01902
11.8 -0.02083
11.85 -0.02613
11.9 -0.03148
11.95 -0.03185
12 -0.0353
12.05 -0.04022
12.1 -0.03979
12.15 -0.04138
12.2 -0.04079
12.25 -0.03465
12.3 -0.02992
12.35 -0.03029
12.4 -0.02795
12.45 -0.02788
12.5 -0.03063
12.55 -0.03219
12.6 -0.02977
12.65 -0.02561
12.7 -0.02407
12.75 -0.02518
12.8 -0.02563
12.85 -0.02381
12.9 -0.01975
12.95 -0.0134
13 -0.0126
13.05 -0.01047
13.1 -0.01315
13.15 -0.0139
13.2 -0.01765
13.25 -0.02382
13.3 -0.02445
13.35 -0.02117
13.4 -0.02249
13.45 -0.02527
13.5 -0.02428
13.55 -0.02283
13.6 -0.02439
13.65 -0.02908
13.7 -0.02913
13.75 -0.02879
13.8 -0.0292
13.85 -0.0324
13.9 -0.03516
13.95 -0.0364
14 -0.03792
14.05 -0.04065
14.1 -0.03773
14.15 -0.03481
14.2 -0.0271
14.25 -0.02277
14.3 -0.02274
14.35 -0.02677
14.4 -0.02932
14.45 -0.02767
14.5 -0.02418
14.55 -0.02497
14.6 -0.02378
14.65 -0.02508
14.7 -0.02453
14.75 -0.02031
14.8 -0.0154
14.85 -0.00808
14.9 0.00054
14.95 0.00347
15 0.00358
15.05 -0.00176
15.1 -0.00336
15.15 -0.00488
15.2 -0.00322
15.25 -0.00169
15.3 0.00228
15.35 0.00718
15.4 0.00983
15.45 0.00825
15.5 0.00122
15.55 -0.00144
15.6 -0.00385
15.65 -0.00646
15.7 -0.00529
15.75 -0.00391
15.8 -0.00122
15.85 -0.00015
15.9 0.00386
15.95 0.00801
16 0.00671
16.05 0.00122
16.1 -0.00326
16.15 -0.00306
16.2 -0.00723
16.25 -0.01488
16.3 -0.02174
16.35 -0.02156
16.4 -0.01821
16.45 -0.01705
16.5 -0.01467
16.55 -0.01425
16.6 -0.0183
16.65 -0.02308
16.7 -0.0294
16.75 -0.03261
16.8 -0.03692
16.85 -0.03586
16.9 -0.03158
16.95 -0.03075
17 -0.02537
17.05 -0.01739
17.1 -0.01512
17.15 -0.00976
17.2 -0.01017
17.25 -0.01334
17.3 -0.01844
17.35 -0.01703
17.4 -0.01636
17.45 -0.01625
17.5 -0.01183
17.55 -0.00831
17.6 -0.00519
17.65 -0.00788
17.7 -0.00799
17.75 -0.00748
17.8 -0.00402
17.85 -0.00024
17.9 0.00235
17.95 0.0028
18 0.00643
18.05 0.01203
18.1 0.00994
18.15 0.00282
18.2 0.0011
18.25 -0.00508
18.3 -0.00765
18.35 -0.01132
18.4 -0.01679
18.45 -0.01803
18.5 -0.01914
18.55 -0.0153
18.6 -0.00768
18.65 -0.00297
18.7 0.00134
18.75 0.00394
18.8 0.00129
18.85 0.00021
18.9 -0.00302
18.95 -0.00294
19 -0.00479
19.05 -0.00534
19.1 -0.0057
19.15 -0.00714
19.2 -0.00433
19.25 0.00014
19.3 0.0021
19.35 0.00328
19.4 0.00118
19.45 0.0022
19.5 0.00664
19.55 0.00651
19.6 0.00154
19.65 -0.00468
19.7 -0.0043
19.75 -0.00753
19.8 -0.00956
19.85 -0.00623
19.9 -0.00435
19.95 -0.00576
20 -0.01035
20.05 -0.0173
20.1 -0.02022
20.15 -0.02237
20.2 -0.02196
20.25 -0.01681
20.3 -0.01278
20.35 -0.00895
20.4 -0.00262
20.45 0.00155
20.5 0.00814
20.55 0.01377
20.6 0.01218
20.65 0.01259
20.7 0.01429
20.75 0.01495
20.8 0.01736
20.85 0.01932
20.9 0.01496
20.95 0.01309
21 0.00603
21.05 0.00207
21.1 0.00161
21.15 0.00092
21.2 -0.00193
21.25 -0.00433
21.3 -0.00915
21.35 -0.01479
21.4 -0.01598
21.45 -0.0152
21.5 -0.01695
21.55 -0.01562
21.6 -0.01465
21.65 -0.01151
21.7 -0.01271
21.75 -0.00853
21.8 -0.00648
21.85 -0.00339
21.9 -0.00568
21.95 -0.00584
22 -0.00131
22.05 0.00209
22.1 0.00588
22.15 0.00406
22.2 -0.00114
22.25 -0.00741
22.3 -0.01424
22.35 -0.01908
22.4 -0.01868
22.45 -0.01484
22.5 -0.01144
22.55 -0.01221
22.6 -0.01247
22.65 -0.01591
22.7 -0.01347
22.75 -0.01129
22.8 -0.01215
22.85 -0.01122
22.9 -0.00592
22.95 -0.00206
23 -0.00038
23.05 0.0008
23.1 0.00576
23.15 0.00826
23.2 0.01188
23.25 0.01682
23.3 0.01967
23.35 0.01794
23.4 0.01332
23.45 0.01292
23.5 0.00777
23.55 0.00103
23.6 -0.00587
23.65 -0.00796
23.7 -0.01106
23.75 -0.01286
23.8 -0.01011
23.85 -0.01107
23.9 -0.01196
23.95 -0.01391
24 -0.01389
24.05 -0.00939
24.1 -0.00777
24.15 -0.00534
24.2 -0.00335
24.25 -0.00255
24.3 0.00007
24.35 0.00575
24.4 0.0132
24.45 0.01764
24.5 0.0168
24.55 0.01721
24.6 0.01533
24.65 0.00927
24.7 0.00489
24.75 0.0047
24.8 0.004
24.85 0.00124
24.9 -0.00094
24.95 -0.00126
25 -0.0028
25.05 -0.00087
25.1 -0.00215
25.15 -0.00348
25.2 -0.00318
25.25 -0.00333
25.3 -0.00742
25.35 -0.00654
25.4 -0.0097
25.45 -0.01328
25.5 -0.01542
25.55 -0.01964
25.6 -0.02366
25.65 -0.02801
25.7 -0.02978
25.75 -0.02426
25.8 -0.02162
25.85 -0.02047
25.9 -0.01617
25.95 -0.0082
26 -0.00291
26.05 0.00458
26.1 0.01316
26.15 0.01881
26.2 0.01961
26.25 0.02265
26.3 0.02679
26.35 0.0305
26.4 0.03126
26.45 0.02572
26.5 0.0198
26.55 0.01829
26.6 0.01959
26.65 0.02013
26.7 0.02103
26.75 0.01731
26.8 0.01291
26.85 0.00869
26.9 0.00258
26.95 -0.00401
27 -0.0064
27.05 -0.0053
27.1 -0.00151
27.15 0.00377
27.2 0.00576
27.25 0.00227
27.3 -0.00257
27.35 -0.01034
27.4 -0.01403
27.45 -0.01748
27.5 -0.0195
27.55 -0.02532
27.6 -0.03094
27.65 -0.03807
27.7 -0.04061
27.75 -0.04293
27.8 -0.04491
27.85 -0.04926
27.9 -0.06194
27.95 -0.07423
28 -0.08722
28.05 -0.10146
28.1 -0.12339
28.15 -0.1519
28.2 -0.18244
28.25 -0.2204
28.3 -0.25677
28.35 -0.29521
28.4 -0.34376
28.45 -0.39516
28.5 -0.45035
28.55 -0.51432
28.6 -0.58025
28.65 -0.64609
28.7 -0.72209
28.75 -0.79769
28.8 -0.88102
28.85 -0.96627
28.9 -1.05453
28.95 -1.15078
29 -1.24862
29.05 -1.34678
29.1 -1.44459
29.15 -1.54303
29.2 -1.64119
29.25 -1.73502
29.3 -1.82769
29.35 -1.91023
29.4 -1.98884
29.45 -2.06008
29.5 -2.12392
29.55 -2.17788
29.6 -2.22193
29.65 -2.25768
29.7 -2.28438
29.75 -2.29896
29.8 -2.29576
29.85 -2.27833
29.9 -2.25001
29.95 -2.21196
30 -2.16222
30.05 -2.09584
30.1 -2.01407
30.15 -1.91873
30.2 -1.81218
30.25 -1.69474
30.3 -1.57375
30.35 -1.44411
30.4 -1.31223
30.45 -1.17849
30.5 -1.03775
30.55 -0.8935
30.6 -0.74018
30.65 -0.58551
30.7 -0.42634
30.75 -0.26757
30.8 -0.10577
30.85 0.04875
30.9 0.19864
30.95 0.345
31 0.48639
31.05 0.62776
31.1 0.76106
31.15 0.89051
31.2 1.01034
31.25 1.12395
31.3 1.23316
31.35 1.33395
31.4 1.4279
31.45 1.50684
31.5 1.5775
31.55 1.63753
31.6 1.69181
31.65 1.73957
31.7 1.78011
31.75 1.81639
31.8 1.85012
31.85 1.88035
31.9 1.90307
31.95 1.9169
32 1.92648
32.05 1.93187
32.1 1.93246
32.15 1.93181
32.2 1.92962
32.25 1.92768
32.3 1.92018
32.35 1.90956
32.4 1.90219
32.45 1.89198
32.5 1.87926
32.55 1.86348
32.6 1.84557
32.65 1.82648
32.7 1.80455
32.75 1.785
32.8 1.76674
32.85 1.74667
32.9 1.72282
32.95 1.70207
33 1.67944
33.05 1.65892
33.1 1.63835
33.15 1.61531
33.2 1.5845
33.25 1.54918
33.3 1.51332
33.35 1.47586
33.4 1.4315
33.45 1.3877
33.5 1.33942
33.55 1.29347
33.6 1.2472
33.65 1.20454
33.7 1.16518
33.75 1.12707
33.8 1.08462
33.85 1.03955
33.9 0.99171
33.95 0.94431
34 0.89388
34.05 0.84193
34.1 0.79127
34.15 0.7394
34.2 0.69281
34.25 0.65138
34.3 0.60764
34.35 0.56712
34.4 0.53192
34.45 0.49472
34.5 0.45661
34.55 0.41839
34.6 0.38022
34.65 0.34313
34.7 0.30568
34.75 0.27031
34.8 0.23558
34.85 0.20382
34.9 0.17194
34.95 0.1471
35 0.12183
35.05 0.09574
35.1 0.06959
35.15 0.04533
35.2 0.02519
35.25 0.00095
35.3 -0.01875
35.35 -0.04135
35.4 -0.06079
35.45 -0.0802
35.5 -0.09902
35.55 -0.11596
35.6 -0.13591
35.65 -0.15419
35.7 -0.17474
35.75 -0.19151
35.8 -0.20406
35.85 -0.21712
35.9 -0.22719
35.95 -0.23815
36 -0.24338
36.05 -0.2501
36.1 -0.26095
36.15 -0.27291
36.2 -0.28162
36.25 -0.28737
36.3 -0.29396
36.35 -0.30134
36.4 -0.30925
36.45 -0.31388
36.5 -0.31547
36.55 -0.31928
36.6 -0.32012
36.65 -0.322
36.7 -0.32256
36.75 -0.3209
36.8 -0.31952
36.85 -0.32058
36.9 -0.32082
36.95 -0.31724
37 -0.31791
37.05 -0.32025
37.1 -0.32545
37.15 -0.32409
37.2 -0.32651
37.25 -0.32241
37.3 -0.3142
37.35 -0.30402
37.4 -0.29868
37.45 -0.29544
37.5 -0.29154
37.55 -0.29376
37.6 -0.29826
37.65 -0.30255
37.7 -0.30472
37.75 -0.30032
37.8 -0.29694
37.85 -0.29062
37.9 -0.28667
37.95 -0.2807
38 -0.27166
38.05 -0.26886
38.1 -0.26947
38.15 -0.27128
38.2 -0.27393
38.25 -0.27473
38.3 -0.27127
38.35 -0.26542
38.4 -0.25894
38.45 -0.24961
38.5 -0.24643
38.55 -0.24371
38.6 -0.24036
38.65 -0.23723
38.7 -0.22998
38.75 -0.22361
38.8 -0.21694
38.85 -0.20969
38.9 -0.20805
38.95 -0.20788
39 -0.20496
39.05 -0.20249
39.1 -0.19661
39.15 -0.188
39.2 -0.18482
39.25 -0.18108
39.3 -0.18183
39.35 -0.18504
39.4 -0.18247
39.45 -0.17691
39.5 -0.1728
39.55 -0.17082
39.6 -0.16758
39.65 -0.16237
39.7 -0.16242
39.75 -0.16321
39.8 -0.16185
39.85 -0.16399
39.9 -0.1651
39.95 -0.16647
40 -0.16734
40.05 -0.16505
40.1 -0.16426
40.15 -0.16146
40.2 -0.15927
40.25 -0.15368
40.3 -0.14702
40.35 -0.13752
40.4 -0.13493
40.45 -0.1339
40.5 -0.13464
40.55 -0.13642
40.6 -0.14035
40.65 -0.13841
40.7 -0.13813
40.75 -0.13664
40.8 -0.1377
40.85 -0.13833
40.9 -0.14063
40.95 -0.13825
41 -0.13556
41.05 -0.1271
41.1 -0.12152
41.15 -0.11678
41.2 -0.11296
41.25 -0.10959
41.3 -0.10953
41.35 -0.1123
41.4 -0.10855
41.45 -0.10473
41.5 -0.0968
41.55 -0.09032
41.6 -0.08344
41.65 -0.07648
41.7 -0.07093
41.75 -0.07071
41.8 -0.0757
41.85 -0.0826
41.9 -0.08756
41.95 -0.0885
42 -0.08953
42.05 -0.09127
42.1 -0.09036
42.15 -0.08401
42.2 -0.07973
42.25 -0.07678
42.3 -0.0703
42.35 -0.06204
42.4 -0.0592
42.45 -0.06248
42.5 -0.06929
42.55 -0.07289
42.6 -0.07034
42.65 -0.06723
42.7 -0.06335
42.75 -0.06337
42.8 -0.06156
42.85 -0.05673
42.9 -0.05621
42.95 -0.05756
43 -0.0538
43.05 -0.05146
43.1 -0.05354
43.15 -0.05612
43.2 -0.05399
43.25 -0.05222
43.3 -0.04764
43.35 -0.04179
43.4 -0.03731
43.45 -0.03352
43.5 -0.03016
43.55 -0.02643
43.6 -0.02699
43.65 -0.02853
43.7 -0.0302
43.75 -0.03696
43.8 -0.04263
43.85 -0.04731
43.9 -0.05083
43.95 -0.057
44 -0.05783
44.05 -0.05666
44.1 -0.0565
44.15 -0.05394
44.2 -0.05528
44.25 -0.05402
44.3 -0.04809
44.35 -0.04562
44.4 -0.04362
44.45 -0.04159
44.5 -0.03913
44.55 -0.0391
44.6 -0.03771
44.65 -0.03844
44.7 -0.04268
44.75 -0.042
44.8 -0.0396
44.85 -0.0373
44.9 -0.03575
44.95 -0.03484
45 -0.03688
45.05 -0.04016
45.1 -0.04437
45.15 -0.04308
45.2 -0.04327
45.25 -0.04521
45.3 -0.04424
45.35 -0.03876
45.4 -0.03568
45.45 -0.03483
45.5 -0.03657
45.55 -0.03217
45.6 -0.02694
45.65 -0.02416
45.7 -0.0245
45.75 -0.02884
45.8 -0.0296
45.85 -0.0253
45.9 -0.02141
45.95 -0.01845
46 -0.01518
46.05 -0.00922
46.1 -0.00856
46.15 -0.01111
46.2 -0.01064
46.25 -0.01245
46.3 -0.01252
46.35 -0.01167
46.4 -0.00803
46.45 -0.00231
46.5 -0.00454
46.55 -0.00721
46.6 -0.00642
46.65 -0.007
46.7 -0.00853
46.75 -0.00898
46.8 -0.01327
46.85 -0.01339
46.9 -0.0119
46.95 -0.00871
47 -0.01022
47.05 -0.01509
47.1 -0.02147
47.15 -0.02852
47.2 -0.02958
47.25 -0.02867
47.3 -0.02587
47.35 -0.0231
47.4 -0.02017
47.45 -0.02144
47.5 -0.02154
47.55 -0.01893
47.6 -0.01823
47.65 -0.01402
47.7 -0.01294
47.75 -0.01334
47.8 -0.01065
47.85 -0.0126
47.9 -0.00956
47.95 -0.01004
48 -0.0069
48.05 -0.00236
48.1 0.00284
48.15 0.00701
48.2 0.00488
48.25 0.00128
48.3 -0.00057
48.35 -0.00249
48.4 -0.00463
48.45 -0.0037
48.5 0.00054
48.55 -0.00049
48.6 -0.00253
48.65 -0.00274
48.7 -0.00328
48.75 -0.00022
48.8 0.00181
48.85 -0.00073
48.9 -0.00725
48.95 -0.01566
49 -0.01889
49.05 -0.02149
49.1 -0.02399
49.15 -0.02084
49.2 -0.01712
49.25 -0.00978
49.3 -0.00867
49.35 -0.00939
49.4 -0.01226
49.45 -0.01181
49.5 -0.00737
49.55 -0.00675
49.6 -0.0058
49.65 -0.0089
49.7 -0.01398
49.75 -0.01835
49.8 -0.02122
49.85 -0.01823
49.9 -0.01172
49.95 -0.00486
50 -0.00279
50.05 -0.00143
50.1 -0.00565
50.15 -0.00407
50.2 -0.00151
50.25 0.00213
50.3 0.00251
50.35 0.00533
50.4 0.00379
50.45 0.00571
50.5 0.00944
50.55 0.0115
50.6 0.01319
50.65 0.0139
50.7 0.00814
50.75 0.00344
50.8 -0.0007
50.85 -0.00275
50.9 -0.00132
50.95 0.00045
51 -0.00004
51.05 -0.00541
51.1 -0.01165
51.15 -0.01947
51.2 -0.02275
51.25 -0.02147
51.3 -0.02036
51.35 -0.02113
51.4 -0.02284
51.45 -0.02378
51.5 -0.01972
51.55 -0.01609
51.6 -0.01088
51.65 -0.00599
51.7 -0.00496
51.75 -0.00675
51.8 -0.00599
51.85 -0.00236
51.9 0.00241
51.95 0.00052
52 -0.00201
52.05 -0.00053
52.1 -0.00334
52.15 -0.00921
52.2 -0.00933
52.25 -0.0095
52.3 -0.01342
52.35 -0.0141
52.4 -0.01536
52.45 -0.01721
52.5 -0.01798
52.55 -0.01455
52.6 -0.0155
52.65 -0.01167
52.7 -0.00606
52.75 -0.00651
52.8 -0.0096
52.85 -0.01314
52.9 -0.0105
52.95 -0.0054
53 0.00243
53.05 0.00401
53.1 0.00116
53.15 -0.0019
53.2 -0.00749
53.25 -0.01437
53.3 -0.0169
53.35 -0.01961
53.4 -0.01878
53.45 -0.02137
53.5 -0.02287
53.55 -0.02282
53.6 -0.02346
53.65 -0.02281
53.7 -0.01885
53.75 -0.01468
53.8 -0.00681
53.85 -0.00569
53.9 -0.00691
53.95 -0.01105
54 -0.01603
54.05 -0.01859
54.1 -0.01891
54.15 -0.01398
54.2 -0.01218
54.25 -0.00836
54.3 -0.00185
54.35 0.00334
54.4 0.00725
54.45 0.00728
54.5 0.01024
54.55 0.01412
54.6 0.01403
54.65 0.0137
54.7 0.00999
54.75 0.00952
54.8 0.01187
54.85 0.01593
54.9 0.01953
54.95 0.02148
55 0.02188
55.05 0.01683
55.1 0.01221
55.15 0.00527
55.2 -0.00241
55.25 -0.00367
55.3 -0.00069
55.35 0.00384
55.4 0.00874
55.45 0.01415
55.5 0.01519
55.55 0.01342
55.6 0.00999
55.65 0.00805
55.7 0.00741
55.75 0.00551
55.8 0.00199
55.85 -0.00434
55.9 -0.01063
55.95 -0.01062
56 -0.00883
56.05 -0.00536
56.1 -0.00536
56.15 -0.00621
56.2 -0.00762
56.25 -0.0053
56.3 -0.00433
56.35 0.00008
56.4 -0.00166
56.45 -0.00124
56.5 -0.0009
56.55 0.00289
56.6 0.00522
56.65 0.00383
56.7 0.00431
56.75 0.00263
56.8 -0.0003
56.85 -0.00032
56.9 -0.00228
56.95 -0.00548
57 -0.0052
57.05 -0.00531
57.1 -0.00183
57.15 0.00182
57.2 -0.00057
57.25 -0.00568
57.3 -0.00992
57.35 -0.01182
57.4 -0.01064
57.45 -0.01191
57.5 -0.01027
57.55 -0.01178
57.6 -0.01299
57.65 -0.01277
57.7 -0.01336
57.75 -0.01208
57.8 -0.00856
57.85 -0.00741
57.9 -0.0098
57.95 -0.0115
58 -0.00966
58.05 -0.00553
58.1 -0.00033
58.15 0.00751
58.2 0.00741
58.25 0.00434
58.3 -0.0002
58.35 -0.00275
58.4 -0.00319
58.45 -0.00148
58.5 0.001
58.55 0.0055
58.6 0.0082
58.65 0.00639
58.7 0.00462
58.75 0.00421
58.8 0.00476
58.85 0.00132
58.9 -0.00263
58.95 -0.00937
59 -0.01729
59.05 -0.01969
59.1 -0.01817
59.15 -0.01821
59.2 -0.01824
59.25 -0.01536
59.3 -0.01375
59.35 -0.00808
59.4 0.00037
59.45 0.00561
59.5 0.00696
59.55 0.00458
59.6 -0.00056
59.65 -0.00537
59.7 -0.00456
59.75 -0.00481
59.8 -0.00296
59.85 0.00007
59.9 0.00467
59.95 0.00431
60 0.00448
60.05 0.00424
60.1 -0.00011
60.15 -0.00661
60.2 -0.01077
60.25 -0.011
60.3 -0.00771
60.35 -0.00812
60.4 -0.01204
60.45 -0.00906
60.5 -0.00301
60.55 -0.00114
60.6 0.00019
60.65 -0.00165
60.7 -0.00389
60.75 -0.00739
60.8 -0.00757
60.85 -0.00887
60.9 -0.01077
60.95 -0.01361
61 -0.01399
61.05 -0.01358
61.1 -0.01087
61.15 -0.00759
61.2 -0.00373
61.25 -0.00483
61.3 -0.00373
61.35 -0.00584
61.4 -0.00493
61.45 0.00086
61.5 0.00763
61.55 0.01432
61.6 0.01645
61.65 0.01736
61.7 0.01861
61.75 0.02215
61.8 0.02178
61.85 0.02433
61.9 0.02138
61.95 0.02115
62 0.0225
62.05 0.01754
62.1 0.00922
62.15 0.00525
62.2 0.00442
62.25 0.00447
62.3 0.00726
62.35 0.00841
62.4 0.01019
62.45 0.00728
62.5 0.00107
62.55 0.00101
62.6 0.00008
62.65 -0.0049
62.7 -0.0036
62.75 -0.00499
62.8 -0.00159
62.85 0.00281
62.9 0.00933
62.95 0.01269
63 0.01341
63.05 0.01692
63.1 0.01871
63.15 0.01989
63.2 0.02207
63.25 0.01836
63.3 0.01321
63.35 0.00793
63.4 0.0069
63.45 0.00715
63.5 0.00258
63.55 -0.00402
63.6 -0.00578
63.65 -0.00811
63.7 -0.00874
63.75 -0.0103
63.8 -0.01242
63.85 -0.01252
63.9 -0.01063
63.95 -0.00457
64 0.00338
64.05 0.00626
64.1 0.01186
64.15 0.01333
64.2 0.01412
64.25 0.01202
64.3 0.00549
64.35 -0.0021
64.4 -0.01089
64.45 -0.01712
64.5 -0.02297
64.55 -0.02435
64.6 -0.01972
64.65 -0.01744
64.7 -0.01639
64.75 -0.01264
64.8 -0.01351
64.85 -0.01207
64.9 -0.00906
64.95 -0.00604
65 -0.00459
65.05 -0.00295
65.1 -0.00407
65.15 -0.00715
65.2 -0.00879
65.25 -0.00581
65.3 0.00089
65.35 0.0051
65.4 0.0057
65.45 0.00939
65.5 0.00871
65.55 0.00705
65.6 0.00851
65.65 0.00441
65.7 -0.00195
65.75 -0.00646
65.8 -0.00937
65.85 -0.01265
65.9 -0.01809
65.95 -0.02175
66 -0.01823
66.05 -0.01664
66.1 -0.01466
66.15 -0.01565
66.2 -0.01629
66.25 -0.01614
66.3 -0.01741
66.35 -0.01769
66.4 -0.01392
66.45 -0.00666
66.5 0.00264
66.55 0.01009
66.6 0.01825
66.65 0.02507
66.7 0.02621
66.75 0.02537
66.8 0.02157
66.85 0.01908
66.9 0.01514
66.95 0.01585
67 0.01355
67.05 0.00987
67.1 0.00606
67.15 0.00357
67.2 0.00021
67.25 0.00245
67.3 0.00341
67.35 0.00183
67.4 -0.0021
67.45 -0.00822
67.5 -0.00753
67.55 -0.00744
67.6 -0.00636
67.65 -0.00304
67.7 -0.00047
67.75 0.00509
67.8 0.00654
67.85 0.01028
67.9 0.01033
67.95 0.00791
68 0.00644
68.05 0.00483
68.1 0.00124
68.15 -0.00557
68.2 -0.01363
68.25 -0.0146
68.3 -0.01575
68.35 -0.01358
68.4 -0.01391
68.45 -0.00858
68.5 -0.00456
68.55 -0.0016
68.6 0.00078
68.65 -0.00098
68.7 -0.00548
68.75 -0.00739
68.8 -0.0102
68.85 -0.00915
68.9 -0.00371
68.95 0.00312
69 0.00532
69.05 0.01021
69.1 0.00848
69.15 0.00724
69.2 0.00473
69.25 0.00462
69.3 0.00502
69.35 0.00243
69.4 -0.00171
69.45 -0.00332
69.5 -0.00387
69.55 -0.00096
69.6 -0.00291
69.65 -0.00453
69.7 -0.00215
69.75 -0.00141
69.8 -0.00133
69.85 -0.00108
69.9 0.00193
69.95 0.00748
70 0.00626
70.05 0.00434
70.1 -0.00158
70.15 -0.0016
70.2 -0.00544
70.25 -0.00313
70.3 -0.00522
70.35 -0.0048
70.4 -0.00727
70.45 -0.01032
70.5 -0.00927
70.55 -0.00489
70.6 -0.00344
70.65 0.00116
70.7 0.00012
70.75 0.00125
70.8 0.00617
70.85 0.01098
70.9 0.01332
70.95 0.01224
71 0.00995
71.05 0.00775
71.1 0.0028
71.15 0.00047
71.2 -0.0047
71.25 -0.00717
71.3 -0.01246
71.35 -0.01734
71.4 -0.0149
71.45 -0.01238
71.5 -0.01135
71.55 -0.00807
71.6 -0.00391
71.65 0.00203
71.7 0.00841
71.75 0.01137
71.8 0.01432
71.85 0.01468
71.9 0.01451
71.95 0.01272
72 0.0097
72.05 0.00407
72.1 -0.00414
72.15 -0.0078
72.2 -0.00925
72.25 -0.00848
72.3 -0.00665
72.35 -0.00677
72.4 -0.00347
72.45 -0.00281
72.5 -0.00404
72.55 -0.00314
72.6 -0.00335
72.65 -0.00303
72.7 0.00104
72.75 -0.00001
72.8 0.00014
72.85 -0.00342
72.9 -0.00294
72.95 0.00021
73 0.00213
73.05 0.00047
73.1 -0.00252
73.15 -0.00122
73.2 0.00227
73.25 0.00813
73.3 0.01272
73.35 0.01432
73.4 0.0171
73.45 0.01833
73.5 0.01653
73.55 0.01598
73.6 0.01406
73.65 0.01281
73.7 0.01401
73.75 0.01003
73.8 0.00767
73.85 0.00334
73.9 0.00373
73.95 0.00377
74 0.00265
74.05 -0.00049
74.1 -0.00081
74.15 0.00167
74.2 0.00098
74.25 0.00137
74.3 0.00485
74.35 0.00797
74.4 0.00829
74.45 0.00797
74.5 0.01078
74.55 0.01398
74.6 0.01434
74.65 0.01338
74.7 0.0111
74.75 0.0071
74.8 -0.00034
74.85 -0.00431
74.9 -0.00353
74.95 -0.00672
75 -0.00938
75.05 -0.01037
75.1 -0.00645
75.15 -0.00508
75.2 -0.00425
75.25 -0.00005
75.3 -0.00087
75.35 0.00082
75.4 0.0027
75.45 0.00411
75.5 0.00118
75.55 -0.00133
75.6 -0.00043
75.65 0.00117
75.7 -0.00015
75.75 -0.00386
75.8 -0.00318
75.85 -0.00428
75.9 -0.00075
75.95 -0.00108
76 -0.00038
76.05 0.0009
76.1 -0.00172
76.15 -0.00754
76.2 -0.01222
76.25 -0.01584
76.3 -0.01574
76.35 -0.01612
76.4 -0.01122
76.45 -0.00951
76.5 -0.00759
76.55 -0.00704
76.6 -0.00597
76.65 -0.00467
76.7 -0.0004
76.75 0.00276
76.8 0.00847
76.85 0.01565
76.9 0.01625
76.95 0.01068
77 0.00249
77.05 -0.00697
77.1 -0.01262
77.15 -0.01364
77.2 -0.00991
77.25 -0.00658
77.3 -0.00373
77.35 -0.0003
77.4 -0.00136
77.45 -0.00361
77.5 -0.00491
77.55 -0.008
77.6 -0.0068
77.65 -0.00431
77.7 0.0006
77.75 0.00455
77.8 0.00596
77.85 0.00652
77.9 0.00597
77.95 0.00068
78 0.00077
78.05 -0.00079
78.1 -0.00107
78.15 -0.00045
78.2 -0.00451
78.25 -0.00788
78.3 -0.00796
78.35 -0.00813
78.4 -0.00361
78.45 0.0008
78.5 0.00224
78.55 0.00732
78.6 0.01128
78.65 0.01543
78.7 0.01818
78.75 0.01385
78.8 0.01028
78.85 0.00672
78.9 0.00213
78.95 -0.00281
79 -0.00855
79.05 -0.01305
79.1 -0.01134
79.15 -0.00914
79.2 -0.00484
79.25 -0.00585
79.3 -0.00754
79.35 -0.00465
79.4 -0.00693
79.45 -0.0103
79.5 -0.00955
79.55 -0.0096
79.6 -0.00451
79.65 -0.00285
79.7 0.001
79.75 0.00652
79.8 0.00751
79.85 0.01054
79.9 0.01403
79.95 0.01571
80 0.01366
80.05 0.01118
80.1 0.01024
80.15 0.00699
80.2 0.00513
80.25 -0.00028
80.3 -0.00106
80.35 -0.00039
80.4 0.00189
80.45 0.00625
80.5 0.00917
80.55 0.01396
80.6 0.01271
80.65 0.00916
80.7 0.00263
80.75 -0.00627
80.8 -0.01138
80.85 -0.01576
80.9 -0.01675
80.95 -0.01858
81 -0.01658
81.05 -0.01598
81.1 -0.01295
81.15 -0.00936
81.2 -0.00624
81.25 -0.0024
81.3 -0.00423
81.35 -0.00145
81.4 0.00071
81.45 0.00112
81.5 0.00301
81.55 0.00128
81.6 -0.00204
81.65 -0.00386
81.7 -0.00667
81.75 -0.00965
81.8 -0.00678
81.85 -0.00227
81.9 0.00014
81.95 0.00001
82 0.00109
82.05 0.00363
82.1 0.00322
82.15 0.00044
82.2 -0.00278
82.25 -0.00111
82.3 0.00104
82.35 -0.00194
82.4 -0.00407
82.45 -0.00287
82.5 -0.00022
82.55 0.00375
82.6 0.00973
82.65 0.01677
82.7 0.02111
82.75 0.0186
82.8 0.01176
82.85 0.00579
82.9 0.00483
82.95 0.00089
83 -0.0055
83.05 -0.01013
83.1 -0.01243
83.15 -0.01483
83.2 -0.01814
83.25 -0.01753
83.3 -0.01448
83.35 -0.013
83.4 -0.01052
83.45 -0.01075
83.5 -0.00733
83.55 -0.00898
83.6 -0.00888
83.65 -0.00616
83.7 -0.00236
83.75 0.00289
83.8 0.00181
83.85 0.00413
83.9 0.00304
83.95 0.00011
84 -0.00003
84.05 -0.00319
84.1 -0.00852
84.15 -0.01353
84.2 -0.0121
84.25 -0.00682
84.3 -0.00592
84.35 -0.00129
84.4 0.00507
84.45 0.01109
84.5 0.01385
84.55 0.01201
84.6 0.00637
84.65 -0.00055
84.7 -0.00464
84.75 -0.01089
84.8 -0.01307
84.85 -0.01085
84.9 -0.01138
84.95 -0.01162
85 -0.00905
85.05 -0.00801
85.1 -0.00802
85.15 -0.00633
85.2 -0.00421
85.25 -0.00378
85.3 -0.00323
85.35 -0.00094
85.4 0.00473
85.45 0.00563
85.5 0.00911
85.55 0.01458
85.6 0.01947
85.65 0.01778
85.7 0.01774
85.75 0.0158
85.8 0.01355
85.85 0.00873
85.9 0.00829
85.95 0.00743
86 0.00976
86.05 0.01186
86.1 0.01259
86.15 0.00837
86.2 0.00437
86.25 0.00355
86.3 0.00205
86.35 0.00264
86.4 0.00346
86.45 0.00753
86.5 0.00696
86.55 0.00279
86.6 0.00082
86.65 -0.00386
86.7 -0.00603
86.75 -0.0028
86.8 0.00122
86.85 0.00374
86.9 0.00887
86.95 0.01506
87 0.01837
87.05 0.01804
87.1 0.0179
87.15 0.01151
87.2 0.00805
87.25 0.00042
87.3 -0.00321
87.35 -0.00408
87.4 -0.00014
87.45 0.00142
87.5 -0.00188
87.55 -0.00684
87.6 -0.01372
87.65 -0.01881
87.7 -0.01874
87.75 -0.01831
87.8 -0.01431
87.85 -0.0116
87.9 -0.01041
87.95 -0.00946
88 -0.01005
88.05 -0.00762
88.1 -0.00894
88.15 -0.00497
88.2 -0.00075
88.25 0.00551
88.3 0.00445
88.35 0.00138
88.4 -0.00147
88.45 -0.00552
88.5 -0.00766
88.55 -0.00484
88.6 -0.00568
88.65 -0.00577
88.7 -0.00657
88.75 -0.00272
88.8 0.00397
88.85 0.01038
88.9 0.01387
88.95 0.01365
89 0.00811
89.05 0.00349
89.1 -0.001
89.15 -0.00392
89.2 -0.00153
89.25 -0.00158
89.3 -0.0055
89.35 -0.01093
89.4 -0.01808
89.45 -0.01712
89.5 -0.01636
89.55 -0.013
89.6 -0.00785
89.65 0.00042
89.7 0.006
89.75 0.00647
89.8 0.00458
89.85 0.00272
89.9 0.00177
89.95 0.00169
90 -0.00277
90.05 -0.00412
90.1 -0.00801
90.15 -0.00566
90.2 -0.00346
90.25 0.00238
90.3 0.00952
90.35 0.01266
90.4 0.00918
90.45 0.00698
90.5 0.00897
90.55 0.0083
90.6 0.00315
90.65 -0.00326
90.7 -0.00646
90.75 -0.00748
90.8 -0.01112
90.85 -0.01362
90.9 -0.01835
90.95 -0.02212
91 -0.0183
91.05 -0.0117
91.1 -0.00873
91.15 -0.00623
91.2 -0.00183
91.25 0.00309
91.3 0.00321
91.35 -0.00011
91.4 0.00084
91.45 0.00552
91.5 0.01228
91.55 0.0153
91.6 0.01768
91.65 0.01473
91.7 0.01338
91.75 0.0108
91.8 0.00743
91.85 0.00517
91.9 -0.0006
91.95 -0.00269
92 -0.00781
92.05 -0.01368
92.1 -0.01669
92.15 -0.02185
92.2 -0.02756
92.25 -0.0297
92.3 -0.0254
92.35 -0.02018
92.4 -0.01438
92.45 -0.01277
92.5 -0.01176
92.55 -0.01408
92.6 -0.01616
92.65 -0.01512
92.7 -0.01317
92.75 -0.01169
92.8 -0.00937
92.85 -0.00867
92.9 -0.00566
92.95 -0.00249
93 0.00237
93.05 0.0051
93.1 0.00814
93.15 0.00768
93.2 0.00667
93.25 0.00292
93.3 0.00221
93.35 0.005
93.4 0.00245
93.45 0.00113
93.5 -0.00358
93.55 -0.00594
93.6 -0.00382
93.65 -0.00098
93.7 -0.00145
93.75 -0.00078
93.8 0.00342
93.85 0.00436
93.9 0.00138
93.95 -0.00299
94 -0.0047
94.05 -0.00717
94.1 -0.00773
94.15 -0.01086
94.2 -0.01221
94.25 -0.00736
94.3 -0.00468
94.35 -0.00433
94.4 0.00029
94.45 0.00745
94.5 0.01245
94.55 0.01052
94.6 0.00462
94.65 -0.00168
94.7 -0.00276
94.75 -0.00484
94.8 -0.00357
94.85 -0.001
94.9 -0.00227
94.95 -0.00419
95 -0.0016
95.05 0.0044
95.1 0.00554
95.15 0.00322
95.2 0.00415
95.25 0.00553
95.3 0.00762
95.35 0.00636
95.4 0.00159
95.45 -0.00318
95.5 -0.00301
95.55 -0.00701
95.6 -0.00901
95.65 -0.01385
95.7 -0.01834
95.75 -0.02147
95.8 -0.02326
95.85 -0.02093
95.9 -0.01649
95.95 -0.01002
96 -0.00573
96.05 -0.00416
96.1 0.00173
96.15 0.00384
96.2 0.00255
96.25 -0.00266
96.3 -0.00605
96.35 -0.00927
96.4 -0.00834
96.45 -0.01087
96.5 -0.00766
96.55 -0.00621
96.6 -0.00438
96.65 -0.0039
96.7 -0.00503
96.75 -0.00789
96.8 -0.0077
96.85 -0.00591
96.9 -0.0036
96.95 -0.00542
97 -0.00523
97.05 -0.00131
97.1 0.00262
97.15 0.00093
97.2 -0.0031
97.25 -0.00471
97.3 -0.00817
97.35 -0.01293
97.4 -0.01306
97.45 -0.01167
97.5 -0.00506
97.55 -0.00141
97.6 -0.0028
97.65 -0.00361
97.7 -0.00044
97.75 0.00577
97.8 0.01168
97.85 0.01528
97.9 0.0144
97.95 0.01172
98 0.00901
98.05 0.00969
98.1 0.01329
98.15 0.01535
98.2 0.01264
98.25 0.01221
98.3 0.0115
98.35 0.00803
98.4 0.00874
98.45 0.00677
98.5 0.00181
98.55 -0.0057
98.6 -0.00928
98.65 -0.00889
98.7 -0.00524
98.75 -0.00151
98.8 -0.00054
98.85 -0.00395
98.9 -0.00759
98.95 -0.0109
99 -0.01477
99.05 -0.01722
99.1 -0.01874
99.15 -0.01635
99.2 -0.01017
99.25 -0.0091
99.3 -0.01084
99.35 -0.0147
99.4 -0.01276
99.45 -0.00972
99.5 -0.0095
99.55 -0.00424
99.6 0.00328
99.65 0.00957
99.7 0.00907
99.75 0.00599
99.8 -0.0002
99.85 -0.00276
99.9 -0.00238
99.95 0.00165
