0 0
0.05 0.00184
0.1 0.00418
0.15 0.01189
0.2 0.02317
0.25 0.03155
0.3 0.03813
0.35 0.04146
0.4 0.04455
0.45 0.04471
0.5 0.04162
0.55 0.04133
0.6 0.04439
0.65 0.04773
0.7 0.04602
0.75 0.04422
0.8 0.04599
0.85 0.05008
0.9 0.04999
0.95 0.0515
1 0.05341
1.05 0.0556
1.1 0.05401
1.15 0.05101
1.2 0.04965
1.25 0.05008
1.3 0.0469
1.35 0.04577
1.4 0.04172
1.45 0.04058
1.5 0.04018
1.55 0.03598
1.6 0.03311
1.65 0.02936
1.7 0.02853
1.75 0.02551
1.8 0.02215
1.85 0.01765
1.9 0.01234
1.95 0.01351
2 0.0165
2.05 0.01585
2.1 0.01569
2.15 0.01442
2.2 0.01581
2.25 0.0195
2.3 0.0214
2.35 0.02555
2.4 0.03034
2.45 0.02951
2.5 0.03035
2.55 0.03228
2.6 0.02927
2.65 0.02635
2.7 0.02705
2.75 0.02452
2.8 0.02396
2.85 0.02482
2.9 0.02785
2.95 0.02925
3 0.03195
3.05 0.03401
3.1 0.0338
3.15 0.03328
3.2 0.03083
3.25 0.02613
3.3 0.02395
3.35 0.02225
3.4 0.02216
3.45 0.01764
3.5 0.0132
3.55 0.01036
3.6 0.01142
3.65 0.00857
3.7 0.00694
3.75 0.00822
3.8 0.007
3.85 0.00516
3.9 0.00599
3.95 0.00737
4 0.00518
4.05 0.00407
4.1 0.00028
4.15 0.00143
4.2 0.00458
4.25 0.00861
4.3 0.01009
4.35 0.00785
4.4 0.00435
4.45 0.00171
4.5 -0.0016
4.55 -0.00206
4.6 0.00146
4.65 0.00073
4.7 0.0026
4.75 0.00644
4.8 0.01259
4.85 0.01732
4.9 0.02193
4.95 0.02472
5 0.02304
5.05 0.02083
5.1 0.02077
5.15 0.0184
5.2 0.01279
5.25 0.00898
5.3 0.00927
5.35 0.00984
5.4 0.00982
5.45 0.00698
5.5 0.00488
5.55 0.00126
5.6 -0.0003
5.65 -0.00229
5.7 -0.00376
5.75 -0.00558
5.8 -0.00327
5.85 -0.00473
5.9 -0.00639
5.95 -0.00696
6 -0.00413
6.05 -0.00091
6.1 0.00286
6.15 0.00892
6.2 0.01165
6.25 0.01367
6.3 0.01569
6.35 0.01429
6.4 0.0133
6.45 0.01509
6.5 0.01282
6.55 0.00835
6.6 0.00447
6.65 0.00326
6.7 0.00527
6.75 0.00405
6.8 0.00637
6.85 0.00646
6.9 0.00475
6.95 0.00456
7 0.00518
7.05 0.00386
7.1 0.0001
7.15 0.00041
7.2 0.00094
7.25 0.00484
7.3 0.00531
7.35 0.00812
7.4 0.0106
7.45 0.01088
7.5 0.01006
7.55 0.00693
7.6 0.00235
7.65 0.00065
7.7 -0.00067
7.75 0.00243
7.8 0.00621
7.85 0.00755
7.9 0.00511
7.95 -0.00021
8 -0.00514
8.05 -0.00441
8.1 -0.00113
8.15 0.00378
8.2 0.0097
8.25 0.01589
8.3 0.01785
8.35 0.01839
8.4 0.01422
8.45 0.01354
8.5 0.0149
8.55 0.01621
8.6 0.01386
8.65 0.01062
8.7 0.0042
8.75 -0.00213
8.8 -0.00768
8.85 -0.01278
8.9 -0.01251
8.95 -0.01357
9 -0.01253
9.05 -0.01404
9.1 -0.01706
9.15 -0.01895
9.2 -0.01742
9.25 -0.01454
9.3 -0.01199
9.35 -0.00989
9.4 -0.00572
9.45 -0.0009
9.5 0.00421
9.55 0.00434
9.6 0.00764
9.65 0.01112
9.7 0.01528
9.75 0.01903
9.8 0.02307
9.85 0.02223
9.9 0.01661
9.95 0.0131
10 0.00828
10.05 0.00758
10.1 0.0103
10.15 0.0094
10.2 0.00953
10.25 0.00546
10.3 -0.00116
10.35 -0.00518
10.4 -0.00853
10.45 -0.00889
10.5 -0.0114
10.55 -0.01471
10.6 -0.01652
10.65 -0.01993
10.7 -0.02064
10.75 -0.01865
10.8 -0.01189
10.85 -0.00343
10.9 0.00182
10.95 0.00556
11 0.00522
11.05 0.00684
11.1 0.00581
11.15 0.00696
11.2 0.0056
11.25 0.0053
11.3 0.00325
11.35 0.00553
11.4 0.00411
11.45 0.00579
11.5 0.00608
11.55 0.0034
11.6 -0.00133
11.65 -0.00702
11.7 -0.01227
11.75 -0.01684
11.8 -0.01464
11.85 -0.0102
11.9 -0.00359
11.95 0.00303
12 0.00885
12.05 0.01016
12.1 0.00803
12.15 0.00653
12.2 0.00649
12.25 0.00421
12.3 -0.00029
12.35 -0.00033
12.4 0.00102
12.45 0.00308
12.5 0.00788
12.55 0.01379
12.6 0.01773
12.65 0.02095
12.7 0.02359
12.75 0.02014
12.8 0.01672
12.85 0.01147
12.9 0.00926
12.95 0.00656
13 0.00729
13.05 0.00661
13.1 0.00708
13.15 0.00762
13.2 0.00643
13.25 0.00508
13.3 0.00266
13.35 -0.00261
13.4 -0.00762
13.45 -0.01056
13.5 -0.01363
13.55 -0.0159
13.6 -0.01561
13.65 -0.01485
13.7 -0.01019
13.75 -0.00851
13.8 -0.00503
13.85 -0.00555
13.9 -0.00298
13.95 -0.0005
14 -0.00068
14.05 0.00034
14.1 -0.00254
14.15 -0.00714
14.2 -0.00832
14.25 -0.00588
14.3 -0.00662
14.35 -0.00708
14.4 -0.00356
14.45 -0.00137
14.5 0.00281
14.55 0.00742
14.6 0.00841
14.65 0.00758
14.7 0.00504
14.75 0.00622
14.8 0.00744
14.85 0.00793
14.9 0.00597
14.95 0.00435
15 0.00369
15.05 0.00326
15.1 0.0048
15.15 0.00872
15.2 0.01308
15.25 0.01754
15.3 0.01759
15.35 0.01337
15.4 0.00807
15.45 0.00445
15.5 -0.00191
15.55 -0.00946
15.6 -0.01069
15.65 -0.01001
15.7 -0.01197
15.75 -0.01261
15.8 -0.01052
15.85 -0.00959
15.9 -0.00763
15.95 -0.00512
16 -0.00102
16.05 0.00248
16.1 0.00292
16.15 0.00078
16.2 -0.0035
16.25 -0.00256
16.3 -0.0043
16.35 -0.00836
16.4 -0.0078
16.45 -0.00472
16.5 -0.00399
16.55 0.00032
16.6 0.00492
16.65 0.00724
16.7 0.00831
16.75 0.00822
16.8 0.00828
16.85 0.00643
16.9 0.00191
16.95 0.00234
17 -0.00117
17.05 -0.00396
17.1 -0.0045
17.15 -0.00329
17.2 -0.00276
17.25 -0.0035
17.3 -0.0035
17.35 -0.001
17.4 -0.00242
17.45 -0.00152
17.5 -0.00434
17.55 -0.00264
17.6 -0.00084
17.65 -0.00311
17.7 -0.00163
17.75 -0.00041
17.8 -0.0002
17.85 0.00032
17.9 0.00342
17.95 0.0024
18 0.00126
18.05 0.00175
18.1 -0.00017
18.15 -0.00198
18.2 -0.00353
18.25 -0.0061
18.3 -0.00723
18.35 -0.00628
18.4 -0.00774
18.45 -0.00426
18.5 -0.00092
18.55 0.00282
18.6 0.00698
18.65 0.01273
18.7 0.01785
18.75 0.02167
18.8 0.02077
18.85 0.01656
18.9 0.01051
18.95 0.0072
19 0.00487
19.05 0.0003
19.1 -0.00552
19.15 -0.0072
19.2 -0.00667
19.25 -0.00922
19.3 -0.01339
19.35 -0.01532
19.4 -0.01299
19.45 -0.01003
19.5 -0.00868
19.55 -0.00622
19.6 -0.00198
19.65 0.00259
19.7 0.00683
19.75 0.01059
19.8 0.01325
19.85 0.01612
19.9 0.01705
19.95 0.01243
20 0.00986
20.05 0.00671
20.1 0.00265
20.15 0.00155
20.2 0.00002
20.25 -0.00016
20.3 -0.00095
20.35 -0.00248
20.4 -0.00547
20.45 -0.01061
20.5 -0.01352
20.55 -0.01542
20.6 -0.01637
20.65 -0.01341
20.7 -0.00848
20.75 -0.0084
20.8 -0.0075
20.85 -0.00583
20.9 -0.00444
20.95 -0.00447
21 -0.00234
21.05 -0.00324
21.1 -0.00356
21.15 -0.00112
21.2 -0.00091
21.25 0.00126
21.3 0.003
21.35 0.00704
21.4 0.00904
21.45 0.01192
21.5 0.0135
21.55 0.01317
21.6 0.00923
21.65 0.00799
21.7 0.00927
21.75 0.00573
21.8 0.00592
21.85 0.00297
21.9 -0.00228
21.95 -0.00725
22 -0.01064
22.05 -0.01187
22.1 -0.00997
22.15 -0.00729
22.2 -0.00434
22.25 -0.00549
22.3 -0.00314
22.35 -0.00213
22.4 -0.00284
22.45 -0.00071
22.5 0.00438
22.55 0.00998
22.6 0.00968
22.65 0.00944
22.7 0.00848
22.75 0.00823
22.8 0.00768
22.85 0.00658
22.9 0.00548
22.95 0.00758
23 0.01149
23.05 0.01363
23.1 0.0161
23.15 0.01784
23.2 0.01534
23.25 0.00973
23.3 0.00826
23.35 0.00718
23.4 0.00428
23.45 0.0042
23.5 0.00134
23.55 -0.00068
23.6 0.00112
23.65 -0.00157
23.7 -0.00345
23.75 -0.00703
23.8 -0.00779
23.85 -0.00965
23.9 -0.01156
23.95 -0.01306
24 -0.014
24.05 -0.01421
24.1 -0.01285
24.15 -0.01257
24.2 -0.01412
24.25 -0.01393
24.3 -0.00949
24.35 -0.0044
24.4 -0.00402
24.45 -0.00387
24.5 -0.00526
24.55 -0.0056
24.6 -0.00875
24.65 -0.01046
24.7 -0.01131
24.75 -0.01416
24.8 -0.01261
24.85 -0.01224
24.9 -0.01156
24.95 -0.01222
25 -0.01137
25.05 -0.01282
25.1 -0.01111
25.15 -0.01264
25.2 -0.01284
25.25 -0.00951
25.3 -0.00686
25.35 -0.00576
25.4 -0.00713
25.45 -0.00719
25.5 -0.00742
25.55 -0.00617
25.6 -0.00537
25.65 -0.00321
25.7 -0.00454
25.75 -0.00324
25.8 -0.00194
25.85 0.0005
25.9 0.00123
25.95 0.0012
26 0.00348
26.05 0.00827
26.1 0.01099
26.15 0.01061
26.2 0.00917
26.25 0.00425
26.3 0.00054
26.35 -0.00147
26.4 -0.00401
26.45 -0.00656
26.5 -0.00948
26.55 -0.01087
26.6 -0.0084
26.65 -0.00776
26.7 -0.00829
26.75 -0.00869
26.8 -0.00465
26.85 -0.00072
26.9 0.00206
26.95 0.00402
27 0.00765
27.05 0.01157
27.1 0.0165
27.15 0.02006
27.2 0.02053
27.25 0.02202
27.3 0.02142
27.35 0.02033
27.4 0.01856
27.45 0.01881
27.5 0.01538
27.55 0.01273
27.6 0.00886
27.65 0.00574
27.7 0.00421
27.75 0.00174
27.8 0.00249
27.85 0.00045
27.9 0.00157
27.95 -0.0016
28 -0.00258
28.05 -0.00781
28.1 -0.01013
28.15 -0.01157
28.2 -0.01213
28.25 -0.01362
28.3 -0.01597
28.35 -0.0253
28.4 -0.03242
28.45 -0.04032
28.5 -0.04931
28.55 -0.0626
28.6 -0.08354
28.65 -0.10781
28.7 -0.13381
28.75 -0.1628
28.8 -0.19328
28.85 -0.2268
28.9 -0.26463
28.95 -0.30298
29 -0.34961
29.05 -0.40342
29.1 -0.45925
29.15 -0.52325
29.2 -0.59607
29.25 -0.67384
29.3 -0.75796
29.35 -0.84403
29.4 -0.93697
29.45 -1.03694
29.5 -1.1414
29.55 -1.24717
29.6 -1.35125
29.65 -1.45797
29.7 -1.5669
29.75 -1.67813
29.8 -1.78946
29.85 -1.89815
29.9 -2.00131
29.95 -2.09207
30 -2.17632
30.05 -2.24823
30.1 -2.30915
30.15 -2.35487
30.2 -2.38322
30.25 -2.40089
30.3 -2.40034
30.35 -2.38837
30.4 -2.36165
30.45 -2.31549
30.5 -2.25444
30.55 -2.17408
30.6 -2.07997
30.65 -1.97255
30.7 -1.85007
30.75 -1.7163
30.8 -1.56986
30.85 -1.41539
30.9 -1.25611
30.95 -1.09079
31 -0.91875
31.05 -0.74118
31.1 -0.56318
31.15 -0.38647
31.2 -0.21663
31.25 -0.04711
31.3 0.11882
31.35 0.27738
31.4 0.42964
31.45 0.57345
31.5 0.70884
31.55 0.83024
31.6 0.9407
31.65 1.0407
31.7 1.13697
31.75 1.22457
31.8 1.30718
31.85 1.37942
31.9 1.44807
31.95 1.50589
32 1.55902
32.05 1.60349
32.1 1.64673
32.15 1.68321
32.2 1.71514
32.25 1.74126
32.3 1.76762
32.35 1.79036
32.4 1.80582
32.45 1.81625
32.5 1.82815
32.55 1.83732
32.6 1.84147
32.65 1.84104
32.7 1.84028
32.75 1.83637
32.8 1.83326
32.85 1.83123
32.9 1.82337
32.95 1.81568
33 1.80756
33.05 1.7985
33.1 1.78528
33.15 1.76779
33.2 1.75155
33.25 1.73418
33.3 1.71278
33.35 1.6912
33.4 1.6649
33.45 1.6311
33.5 1.59529
33.55 1.56056
33.6 1.52502
33.65 1.49099
33.7 1.45111
33.75 1.41241
33.8 1.37321
33.85 1.3306
33.9 1.28745
33.95 1.24205
34 1.19544
34.05 1.14693
34.1 1.10113
34.15 1.05727
34.2 1.01643
34.25 0.97413
34.3 0.93342
34.35 0.88955
34.4 0.84642
34.45 0.80482
34.5 0.76384
34.55 0.72456
34.6 0.68652
34.65 0.65099
34.7 0.61014
34.75 0.57089
34.8 0.53086
34.85 0.49458
34.9 0.45925
34.95 0.42586
35 0.39026
35.05 0.35538
35.1 0.32032
35.15 0.28766
35.2 0.25388
35.25 0.22482
35.3 0.19541
35.35 0.16835
35.4 0.13961
35.45 0.10883
35.5 0.08294
35.55 0.0576
35.6 0.03296
35.65 0.00847
35.7 -0.01627
35.75 -0.03944
35.8 -0.06336
35.85 -0.08525
35.9 -0.10134
35.95 -0.11739
36 -0.1312
36.05 -0.14461
36.1 -0.15713
36.15 -0.17072
36.2 -0.18524
36.25 -0.19451
36.3 -0.20159
36.35 -0.20983
36.4 -0.21858
36.45 -0.22812
36.5 -0.23513
36.55 -0.24461
36.6 -0.25686
36.65 -0.26739
36.7 -0.27391
36.75 -0.27794
36.8 -0.28166
36.85 -0.28656
36.9 -0.28991
36.95 -0.28926
37 -0.28707
37.05 -0.28941
37.1 -0.29454
37.15 -0.29644
37.2 -0.29552
37.25 -0.2967
37.3 -0.29891
37.35 -0.29887
37.4 -0.29584
37.45 -0.29639
37.5 -0.29861
37.55 -0.30019
37.6 -0.30207
37.65 -0.30636
37.7 -0.30699
37.75 -0.30624
37.8 -0.30729
37.85 -0.30857
37.9 -0.30402
37.95 -0.30174
38 -0.30142
38.05 -0.30002
38.1 -0.29465
38.15 -0.28826
38.2 -0.28544
38.25 -0.28523
38.3 -0.28223
38.35 -0.27741
38.4 -0.27429
38.45 -0.27162
38.5 -0.26708
38.55 -0.26519
38.6 -0.26284
38.65 -0.25722
38.7 -0.25128
38.75 -0.24887
38.8 -0.24559
38.85 -0.24287
38.9 -0.23853
38.95 -0.2312
39 -0.22636
39.05 -0.21885
39.1 -0.21373
39.15 -0.20798
39.2 -0.20334
39.25 -0.19827
39.3 -0.19347
39.35 -0.18739
39.4 -0.18337
39.45 -0.18342
39.5 -0.1802
39.55 -0.17581
39.6 -0.17452
39.65 -0.17177
39.7 -0.17169
39.75 -0.17027
39.8 -0.17012
39.85 -0.16922
39.9 -0.16566
39.95 -0.16276
40 -0.16263
40.05 -0.16392
40.1 -0.16315
40.15 -0.15993
40.2 -0.1598
40.25 -0.16059
40.3 -0.15612
40.35 -0.15397
40.4 -0.14918
40.45 -0.14163
40.5 -0.13709
40.55 -0.13518
40.6 -0.13408
40.65 -0.12963
40.7 -0.12841
40.75 -0.12715
40.8 -0.12281
40.85 -0.11906
40.9 -0.11944
40.95 -0.11757
41 -0.11337
41.05 -0.10692
41.1 -0.10065
41.15 -0.0986
41.2 -0.09435
41.25 -0.08989
41.3 -0.08494
41.35 -0.08174
41.4 -0.0805
41.45 -0.08325
41.5 -0.08431
41.55 -0.08913
41.6 -0.09047
41.65 -0.09102
41.7 -0.09119
41.75 -0.09004
41.8 -0.08682
41.85 -0.08263
41.9 -0.08424
41.95 -0.08508
42 -0.08809
42.05 -0.08917
42.1 -0.08881
42.15 -0.09017
42.2 -0.09308
42.25 -0.09618
42.3 -0.09755
42.35 -0.09554
42.4 -0.09224
42.45 -0.09175
42.5 -0.08942
42.55 -0.08493
42.6 -0.08406
42.65 -0.08405
42.7 -0.08492
42.75 -0.08734
42.8 -0.09068
42.85 -0.09092
42.9 -0.08615
42.95 -0.08457
43 -0.08494
43.05 -0.08439
43.1 -0.08317
43.15 -0.07903
43.2 -0.0735
43.25 -0.07166
43.3 -0.06592
43.35 -0.06449
43.4 -0.06325
43.45 -0.05887
43.5 -0.05236
43.55 -0.04791
43.6 -0.04311
43.65 -0.0385
43.7 -0.03312
43.75 -0.02807
43.8 -0.02343
43.85 -0.02
43.9 -0.02143
43.95 -0.02188
44 -0.02767
44.05 -0.0335
44.1 -0.03688
44.15 -0.04104
44.2 -0.04677
44.25 -0.05329
44.3 -0.054
44.35 -0.05638
44.4 -0.05334
44.45 -0.05307
44.5 -0.04849
44.55 -0.04676
44.6 -0.04138
44.65 -0.03789
44.7 -0.03921
44.75 -0.03991
44.8 -0.04118
44.85 -0.04042
44.9 -0.04147
44.95 -0.04247
45 -0.04047
45.05 -0.04063
45.1 -0.04346
45.15 -0.04116
45.2 -0.03877
45.25 -0.03766
45.3 -0.03772
45.35 -0.03404
45.4 -0.03361
45.45 -0.03136
45.5 -0.03129
45.55 -0.02959
45.6 -0.02475
45.65 -0.0222
45.7 -0.01888
45.75 -0.01353
45.8 -0.01052
45.85 -0.01162
45.9 -0.01011
45.95 -0.0111
46 -0.01065
46.05 -0.01473
46.1 -0.0149
46.15 -0.01897
46.2 -0.01888
46.25 -0.02167
46.3 -0.02271
46.35 -0.02219
46.4 -0.01835
46.45 -0.01862
46.5 -0.0186
46.55 -0.02047
46.6 -0.02253
46.65 -0.02287
46.7 -0.02005
46.75 -0.01798
46.8 -0.01422
46.85 -0.00963
46.9 -0.00908
46.95 -0.00786
47 -0.0105
47.05 -0.01471
47.1 -0.01782
47.15 -0.02232
47.2 -0.02169
47.25 -0.02447
47.3 -0.02401
47.35 -0.02387
47.4 -0.02073
47.45 -0.02171
47.5 -0.02022
47.55 -0.01656
47.6 -0.01498
47.65 -0.01742
47.7 -0.01922
47.75 -0.01935
47.8 -0.01575
47.85 -0.01661
47.9 -0.01424
47.95 -0.00911
48 -0.00723
48.05 -0.00805
48.1 -0.00671
48.15 -0.00649
48.2 -0.01021
48.25 -0.01277
48.3 -0.01076
48.35 -0.00649
48.4 -0.00433
48.45 -0.00684
48.5 -0.00604
48.55 -0.00763
48.6 -0.00749
48.65 -0.00809
48.7 -0.00898
48.75 -0.01181
48.8 -0.01406
48.85 -0.01691
48.9 -0.01541
48.95 -0.01201
49 -0.01253
49.05 -0.01011
49.1 -0.00523
49.15 -0.00275
49.2 -0.00105
49.25 -0.00018
49.3 -0.00196
49.35 -0.00533
49.4 -0.01017
49.45 -0.01312
49.5 -0.01493
49.55 -0.01833
49.6 -0.01679
49.65 -0.01688
49.7 -0.01735
49.75 -0.01499
49.8 -0.01312
49.85 -0.01022
49.9 -0.00948
49.95 -0.01078
50 -0.01211
50.05 -0.00971
50.1 -0.00901
50.15 -0.00575
50.2 -0.00453
50.25 -0.00757
50.3 -0.00793
50.35 -0.00848
50.4 -0.00945
50.45 -0.01205
50.5 -0.01415
50.55 -0.01308
50.6 -0.01417
50.65 -0.01651
50.7 -0.0138
50.75 -0.01165
50.8 -0.0135
50.85 -0.01478
50.9 -0.01756
50.95 -0.01624
51 -0.01317
51.05 -0.01081
51.1 -0.00972
51.15 -0.01103
51.2 -0.01264
51.25 -0.01409
51.3 -0.01051
51.35 -0.00929
51.4 -0.00817
51.45 -0.00454
51.5 0.0006
51.55 0.00487
51.6 0.00314
51.65 0.00001
51.7 -0.00118
51.75 -0.00416
51.8 -0.00875
51.85 -0.00806
51.9 -0.00777
51.95 -0.00945
52 -0.00948
52.05 -0.00779
52.1 -0.00493
52.15 -0.00517
52.2 -0.00259
52.25 -0.00339
52.3 -0.00224
52.35 -0.00042
52.4 0.00271
52.45 0.00174
52.5 -0.00168
52.55 -0.00466
52.6 -0.00836
52.65 -0.00971
52.7 -0.01226
52.75 -0.01582
52.8 -0.02001
52.85 -0.02311
52.9 -0.01949
52.95 -0.01719
53 -0.01518
53.05 -0.01226
53.1 -0.01096
53.15 -0.00682
53.2 -0.00166
53.25 0.0045
53.3 0.00879
53.35 0.00809
53.4 0.00779
53.45 0.00375
53.5 0.0033
53.55 0.0061
53.6 0.00656
53.65 0.00564
53.7 0.00313
53.75 0.00248
53.8 -0.00182
53.85 -0.00123
53.9 -0.00135
53.95 0.001
54 0.00512
54.05 0.00666
54.1 0.00641
54.15 0.00519
54.2 0.00737
54.25 0.00851
54.3 0.01218
54.35 0.00979
54.4 0.009
54.45 0.01083
54.5 0.01221
54.55 0.01487
54.6 0.01595
54.65 0.01489
54.7 0.01027
54.75 0.00626
54.8 0.00615
54.85 0.00289
54.9 0.0034
54.95 0.00658
55 0.00691
55.05 0.00586
55.1 0.00351
55.15 0.00398
55.2 0.00119
55.25 0.00036
55.3 0.00282
55.35 0.00489
55.4 0.00221
55.45 -0.00046
55.5 -0.00531
55.55 -0.01137
55.6 -0.01591
55.65 -0.01533
55.7 -0.01068
55.75 -0.00857
55.8 -0.00552
55.85 -0.00041
55.9 0.00143
55.95 -0.001
56 -0.00216
56.05 -0.00153
56.1 0.00164
56.15 0.0009
56.2 0.00011
56.25 0.0009
56.3 -0.00114
56.35 -0.00046
56.4 0.00001
56.45 0.00217
56.5 0.0063
56.55 0.00821
56.6 0.01219
56.65 0.01091
56.7 0.00889
56.75 0.00641
56.8 0.00235
56.85 0.00007
56.9 -0.00078
56.95 -0.00242
57 -0.00627
57.05 -0.00767
57.1 -0.0078
57.15 -0.00741
57.2 -0.00327
57.25 -0.00041
57.3 0.00069
57.35 -0.00205
57.4 -0.00246
57.45 -0.00252
57.5 -0.00295
57.55 -0.00655
57.6 -0.00698
57.65 -0.00821
57.7 -0.01228
57.75 -0.01345
57.8 -0.01361
57.85 -0.01272
57.9 -0.00901
57.95 -0.00845
58 -0.00621
58.05 -0.00677
58.1 -0.00338
58.15 -0.00224
58.2 -0.00263
58.25 -0.00587
58.3 -0.00848
58.35 -0.01308
58.4 -0.01278
58.45 -0.0133
58.5 -0.01378
58.55 -0.01013
58.6 -0.00349
58.65 0.00132
58.7 0.00404
58.75 0.00898
58.8 0.00988
58.85 0.0059
58.9 0.00026
58.95 -0.00447
59 -0.0038
59.05 -0.00582
59.1 -0.00462
59.15 -0.00658
59.2 -0.00985
59.25 -0.00943
59.3 -0.01162
59.35 -0.0126
59.4 -0.01378
59.45 -0.01541
59.5 -0.01221
59.55 -0.0112
59.6 -0.01313
59.65 -0.01492
59.7 -0.01363
59.75 -0.01472
59.8 -0.01458
59.85 -0.01301
59.9 -0.01365
59.95 -0.01258
60 -0.01208
60.05 -0.00821
60.1 -0.00266
60.15 -0.00213
60.2 0.00114
60.25 0.00057
60.3 -0.00328
60.35 -0.00665
60.4 -0.00707
60.45 -0.00326
60.5 0.00282
60.55 0.00434
60.6 0.00308
60.65 0.00152
60.7 0.00192
60.75 0.00237
60.8 0.00174
60.85 0.00212
60.9 0.00008
60.95 0.00162
61 0.00499
61.05 0.00668
61.1 0.01083
61.15 0.01002
61.2 0.00942
61.25 0.01054
61.3 0.01297
61.35 0.01033
61.4 0.00574
61.45 -0.00002
61.5 -0.00642
61.55 -0.01051
61.6 -0.0157
61.65 -0.01544
61.7 -0.01462
61.75 -0.01472
61.8 -0.01103
61.85 -0.00534
61.9 -0.00209
61.95 0.00158
62 0.00299
62.05 0.0028
62.1 0.00247
62.15 0.002
62.2 0.00331
62.25 0.00519
62.3 0.00586
62.35 0.00302
62.4 0.00391
62.45 0.0044
62.5 0.00206
62.55 0.00315
62.6 0.00531
62.65 0.00651
62.7 0.00615
62.75 0.0087
62.8 0.01097
62.85 0.00975
62.9 0.0072
62.95 0.00385
63 0.00388
63.05 0.00333
63.1 0.00414
63.15 0.00362
63.2 -0.0005
63.25 -0.00054
63.3 0.00018
63.35 0.00387
63.4 0.00382
63.45 0.00422
63.5 0.00601
63.55 0.00414
63.6 0.00516
63.65 0.00376
63.7 -0.00036
63.75 -0.00382
63.8 -0.00331
63.85 -0.00093
63.9 0.00187
63.95 0.00364
64 0.00236
64.05 -0.00106
64.1 -0.00342
64.15 -0.00363
64.2 -0.00231
64.25 -0.0049
64.3 -0.00941
64.35 -0.01114
64.4 -0.01312
64.45 -0.01673
64.5 -0.0183
64.55 -0.01602
64.6 -0.00983
64.65 -0.00159
64.7 0.00681
64.75 0.01184
64.8 0.01746
64.85 0.02038
64.9 0.01934
64.95 0.01884
65 0.01621
65.05 0.01316
65.1 0.01053
65.15 0.01005
65.2 0.00519
65.25 -0.00023
65.3 -0.00389
65.35 -0.00772
65.4 -0.01192
65.45 -0.01642
65.5 -0.0183
65.55 -0.01437
65.6 -0.01245
65.65 -0.00671
65.7 -0.00437
65.75 -0.00431
65.8 -0.0029
65.85 0.00134
65.9 0.00025
65.95 -0.00052
66 -0.00167
66.05 -0.00126
66.1 0.00186
66.15 0.00206
66.2 0.00212
66.25 -0.0009
66.3 -0.00097
66.35 -0.00139
66.4 -0.00019
66.45 0.00335
66.5 0.00863
66.55 0.01194
66.6 0.01422
66.65 0.01784
66.7 0.02108
66.75 0.02086
66.8 0.0207
66.85 0.01787
66.9 0.01578
66.95 0.01364
67 0.00737
67.05 0.00101
67.1 -0.00361
67.15 -0.00856
67.2 -0.01096
67.25 -0.01079
67.3 -0.0067
67.35 -0.00419
67.4 -0.00188
67.45 0.00019
67.5 0.00246
67.55 0.00344
67.6 0.00032
67.65 -0.00338
67.7 -0.00837
67.75 -0.00738
67.8 -0.00534
67.85 -0.00519
67.9 -0.00509
67.95 -0.00101
68 0.00185
68.05 0.00641
68.1 0.0051
68.15 0.00191
68.2 -0.00033
68.25 -0.00067
68.3 0.00213
68.35 0.00309
68.4 0.00019
68.45 -0.00156
68.5 -0.00176
68.55 -0.00364
68.6 -0.00386
68.65 -0.00541
68.7 -0.00434
68.75 -0.00214
68.8 0.00258
68.85 0.00441
68.9 0.00665
68.95 0.00845
69 0.00646
69.05 0.00321
69.1 0.00451
69.15 0.00511
69.2 0.00172
69.25 0.00206
69.3 -0.00162
69.35 -0.00349
69.4 -0.00301
69.45 -0.00624
69.5 -0.00994
69.55 -0.01478
69.6 -0.01617
69.65 -0.01822
69.7 -0.01526
69.75 -0.01568
69.8 -0.01724
69.85 -0.01563
69.9 -0.01414
69.95 -0.01555
70 -0.01144
70.05 -0.00571
70.1 -0.00079
70.15 0.00011
70.2 -0.00227
70.25 -0.00234
70.3 0.00159
70.35 0.00725
70.4 0.01228
70.45 0.01212
70.5 0.01128
70.55 0.00967
70.6 0.00515
70.65 0.00563
70.7 0.00379
70.75 -0.0003
70.8 -0.00317
70.85 -0.00205
70.9 -0.00467
70.95 -0.00392
71 0.00003
71.05 0.00152
71.1 0.00586
71.15 0.00925
71.2 0.00756
71.25 0.00377
71.3 0.0039
71.35 0.00528
71.4 0.00377
71.45 0.00327
71.5 0.00108
71.55 -0.00159
71.6 -0.00583
71.65 -0.01083
71.7 -0.01574
71.75 -0.02119
71.8 -0.02204
71.85 -0.02056
71.9 -0.02043
71.95 -0.01913
72 -0.0139
72.05 -0.01175
72.1 -0.01125
72.15 -0.0116
72.2 -0.01229
72.25 -0.00803
72.3 -0.00313
72.35 0.00318
72.4 0.01001
72.45 0.01552
72.5 0.01979
72.55 0.02236
72.6 0.02494
72.65 0.02696
72.7 0.026
72.75 0.02017
72.8 0.01527
72.85 0.01297
72.9 0.00969
72.95 0.00945
73 0.01079
73.05 0.00956
73.1 0.008
73.15 0.00642
73.2 0.00226
73.25 -0.00089
73.3 -0.0058
73.35 -0.01082
73.4 -0.01368
73.45 -0.01107
73.5 -0.01204
73.55 -0.01279
73.6 -0.01571
73.65 -0.01607
73.7 -0.01165
73.75 -0.00498
73.8 -0.00124
73.85 -0.00078
73.9 -0.00073
73.95 0.00296
74 0.00483
74.05 0.00648
74.1 0.00785
74.15 0.00762
74.2 0.00647
74.25 0.00285
74.3 0.0032
74.35 0.00492
74.4 0.00639
74.45 0.00434
74.5 0.00456
74.55 0.00199
74.6 0.00028
74.65 0.00071
74.7 0.00082
74.75 -0.00273
74.8 -0.00165
74.85 0.00112
74.9 -0.001
74.95 -0.00407
75 -0.00454
75.05 -0.00404
75.1 -0.00433
75.15 -0.00115
75.2 0.00349
75.25 0.00546
75.3 0.00772
75.35 0.0113
75.4 0.01546
75.45 0.01992
75.5 0.01888
75.55 0.01701
75.6 0.01623
75.65 0.01751
75.7 0.0193
75.75 0.01572
75.8 0.00904
75.85 0.00675
75.9 0.00146
75.95 -0.00062
76 -0.00293
76.05 -0.0079
76.1 -0.01087
76.15 -0.01271
76.2 -0.0156
76.25 -0.01616
76.3 -0.01795
76.35 -0.01861
76.4 -0.01987
76.45 -0.01884
76.5 -0.0161
76.55 -0.01398
76.6 -0.00845
76.65 -0.00487
76.7 -0.00538
76.75 -0.00405
76.8 -0.0033
76.85 -0.0038
76.9 -0.00434
76.95 -0.00202
77 -0.00338
77.05 -0.0006
77.1 0.00134
77.15 0.0044
77.2 0.00241
77.25 0.00249
77.3 0.00391
77.35 0.00743
77.4 0.00685
77.45 0.00512
77.5 0.00625
77.55 0.00275
77.6 -0.00215
77.65 -0.00827
77.7 -0.00879
77.75 -0.01144
77.8 -0.01314
77.85 -0.00964
77.9 -0.00962
77.95 -0.00551
78 -0.00148
78.05 0.00161
78.1 0.00495
78.15 0.00373
78.2 0.00211
78.25 -0.00189
78.3 -0.00264
78.35 -0.00406
78.4 -0.00165
78.45 0.00061
78.5 -0.00147
78.55 -0.0001
78.6 0.00084
78.65 0.00431
78.7 0.00698
78.75 0.00592
78.8 0.00673
78.85 0.00828
78.9 0.01183
78.95 0.01286
79 0.01375
79.05 0.00949
79.1 0.00787
79.15 0.00833
79.2 0.0051
79.25 0.00148
79.3 0.00108
79.35 0.0041
79.4 0.00649
79.45 0.0043
79.5 -0.00109
79.55 -0.00773
79.6 -0.0095
79.65 -0.0077
79.7 -0.00675
79.75 -0.00604
79.8 -0.00634
79.85 -0.00857
79.9 -0.01126
79.95 -0.01057
80 -0.00923
80.05 -0.01125
80.1 -0.00912
80.15 -0.00626
80.2 -0.00499
80.25 -0.00579
80.3 -0.00541
80.35 -0.00186
80.4 0.00005
80.45 -0.00113
80.5 -0.00212
80.55 -0.00072
80.6 0.00382
80.65 0.00905
80.7 0.01275
80.75 0.01743
80.8 0.01844
80.85 0.01826
80.9 0.01776
80.95 0.01452
81 0.01077
81.05 0.00867
81.1 0.00603
81.15 0.00427
81.2 0.00242
81.25 0.00222
81.3 -0.0001
81.35 -0.00437
81.4 -0.00889
81.45 -0.01061
81.5 -0.01428
81.55 -0.01383
81.6 -0.01144
81.65 -0.01168
81.7 -0.01339
81.75 -0.01505
81.8 -0.01428
81.85 -0.01074
81.9 -0.00757
81.95 -0.00865
82 -0.00856
82.05 -0.00728
82.1 -0.00688
82.15 -0.00478
82.2 -0.00504
82.25 -0.00813
82.3 -0.01116
82.35 -0.00871
82.4 -0.00577
82.45 -0.0006
82.5 0.00492
82.55 0.01049
82.6 0.01631
82.65 0.01622
82.7 0.01513
82.75 0.01115
82.8 0.00874
82.85 0.00629
82.9 0.00748
82.95 0.00528
83 0.00632
83.05 0.00817
83.1 0.00621
83.15 0.00142
83.2 -0.00125
83.25 -0.00416
83.3 -0.00652
83.35 -0.00395
83.4 0.00041
83.45 0.00092
83.5 -0.00048
83.55 -0.0021
83.6 -0.00139
83.65 0.00025
83.7 -0.00155
83.75 -0.00282
83.8 -0.00207
83.85 -0.00307
83.9 -0.00689
83.95 -0.00607
84 -0.00177
84.05 0.0006
84.1 0.00425
84.15 0.00545
84.2 0.00468
84.25 0.00092
84.3 -0.00192
84.35 -0.00188
84.4 0.00189
84.45 0.00075
84.5 -0.00317
84.55 -0.00434
84.6 -0.00552
84.65 -0.00542
84.7 -0.00263
84.75 0.00237
84.8 0.00716
84.85 0.00819
84.9 0.01132
84.95 0.01059
85 0.01201
85.05 0.01025
85.1 0.00583
85.15 0.0057
85.2 0.00545
85.25 0.00758
85.3 0.00512
85.35 -0.00043
85.4 -0.00532
85.45 -0.00788
85.5 -0.01009
85.55 -0.00916
85.6 -0.00693
85.65 -0.00134
85.7 0.00241
85.75 0.00474
85.8 0.00497
85.85 0.00562
85.9 0.00655
85.95 0.00873
86 0.00714
86.05 0.00799
86.1 0.00693
86.15 0.00652
86.2 0.00492
86.25 0.00554
86.3 0.00153
86.35 -0.0013
86.4 -0.00538
86.45 -0.01116
86.5 -0.01237
86.55 -0.01498
86.6 -0.01765
86.65 -0.01617
86.7 -0.01758
86.75 -0.01881
86.8 -0.0213
86.85 -0.01779
86.9 -0.01685
86.95 -0.01409
87 -0.00837
87.05 -0.00036
87.1 0.0066
87.15 0.00708
87.2 0.00726
87.25 0.01025
87.3 0.01483
87.35 0.01782
87.4 0.01532
87.45 0.01027
87.5 0.00705
87.55 0.0049
87.6 0.00278
87.65 -0.00267
87.7 -0.0027
87.75 -0.00127
87.8 0.00127
87.85 0.0041
87.9 0.00731
87.95 0.01083
88 0.01055
88.05 0.01011
88.1 0.01191
88.15 0.01543
88.2 0.01927
88.25 0.02234
88.3 0.02178
88.35 0.02247
88.4 0.02331
88.45 0.0223
88.5 0.02065
88.55 0.01812
88.6 0.01718
88.65 0.01384
88.7 0.01133
88.75 0.0101
88.8 0.00989
88.85 0.0062
88.9 0.0036
88.95 -0.00243
89 -0.00595
89.05 -0.00577
89.1 -0.00322
89.15 -0.00389
89.2 -0.00192
89.25 0.00199
89.3 0.00577
89.35 0.00486
89.4 0.00689
89.45 0.00948
89.5 0.00721
89.55 0.00564
89.6 0.00463
89.65 0.00364
89.7 0.00346
89.75 0.00613
89.8 0.00819
89.85 0.00458
89.9 0.00144
89.95 -0.0017
90 -0.00592
90.05 -0.00666
90.1 -0.00466
90.15 -0.00108
90.2 -0.00251
90.25 -0.00431
90.3 -0.0074
90.35 -0.01288
90.4 -0.0126
90.45 -0.00903
90.5 -0.00377
90.55 -0.00105
90.6 0.00045
90.65 -0.00187
90.7 -0.00095
90.75 0.00183
90.8 0.00202
90.85 0.00397
90.9 0.0062
90.95 0.00504
91 0.00564
91.05 0.00278
91.1 0.0038
91.15 0.00365
91.2 0.00078
91.25 -0.00158
91.3 -0.00394
91.35 -0.00361
91.4 -0.00488
91.45 -0.00299
91.5 -0.00222
91.55 0.00156
91.6 -0.00009
91.65 0.00101
91.7 -0.00265
91.75 -0.00902
91.8 -0.01417
91.85 -0.01629
91.9 -0.01608
91.95 -0.0122
92 -0.01048
92.05 -0.00811
92.1 -0.01009
92.15 -0.0091
92.2 -0.00883
92.25 -0.01082
92.3 -0.0084
92.35 -0.00595
92.4 -0.0067
92.45 -0.00336
92.5 -0.00004
92.55 0.00427
92.6 0.00328
92.65 0.00351
92.7 0.00188
92.75 0.00041
92.8 -0.00397
92.85 -0.00527
92.9 -0.00787
92.95 -0.01148
93 -0.01499
93.05 -0.01802
93.1 -0.01586
93.15 -0.01695
93.2 -0.02018
93.25 -0.02187
93.3 -0.0215
93.35 -0.02186
93.4 -0.02255
93.45 -0.0179
93.5 -0.01075
93.55 -0.00493
93.6 0.00133
93.65 0.00794
93.7 0.00794
93.75 0.00413
93.8 0.00182
93.85 -0.00366
93.9 -0.00734
93.95 -0.00546
94 -0.00198
94.05 0.001
94.1 0.00328
94.15 0.00578
94.2 0.00703
94.25 0.00773
94.3 0.00965
94.35 0.01
94.4 0.01109
94.45 0.0085
94.5 0.00558
94.55 0.00283
94.6 -0.00038
94.65 -0.00041
94.7 0.0018
94.75 0.00217
94.8 -0.0014
94.85 -0.0026
94.9 -0.00387
94.95 -0.00114
95 -0.0001
95.05 0.00181
95.1 0.00064
95.15 -0.0009
95.2 -0.00497
95.25 -0.00613
95.3 -0.00956
95.35 -0.00868
95.4 -0.0055
95.45 -0.00028
95.5 -0.00019
95.55 0.00138
95.6 0.0037
95.65 0.00454
95.7 0.00335
95.75 0.00039
95.8 -0.00275
95.85 -0.00516
95.9 -0.00666
95.95 -0.00642
96 -0.00735
96.05 -0.01007
96.1 -0.0108
96.15 -0.01066
96.2 -0.01227
96.25 -0.01304
96.3 -0.01226
96.35 -0.01064
96.4 -0.00937
96.45 -0.01061
96.5 -0.01315
96.55 -0.01539
96.6 -0.01894
96.65 -0.0205
96.7 -0.01991
96.75 -0.01423
96.8 -0.00933
96.85 -0.00679
96.9 -0.00169
96.95 0.00032
97 0.00455
97.05 0.00712
97.1 0.0112
97.15 0.01167
97.2 0.01187
97.25 0.0124
97.3 0.01202
97.35 0.00954
97.4 0.00683
97.45 0.00267
97.5 0.00083
97.55 0.00184
97.6 0.0034
97.65 0.00175
97.7 -0.00035
97.75 -0.00228
97.8 -0.00588
97.85 -0.00813
97.9 -0.011
97.95 -0.00899
98 -0.00866
98.05 -0.00767
98.1 -0.00635
98.15 -0.00751
98.2 -0.00891
98.25 -0.0071
98.3 -0.00699
98.35 -0.00851
98.4 -0.00804
98.45 -0.00513
98.5 -0.00297
98.55 -0.00308
98.6 0.00004
98.65 0.00296
98.7 0.0062
98.75 0.00761
98.8 0.00491
98.85 0.00254
98.9 0.00084
98.95 -0.00382
99 -0.0054
99.05 -0.00369
99.1 -0.0026
99.15 0.0019
99.2 0.00713
99.25 0.00855
99.3 0.00937
99.35 0.01014
99.4 0.00886
99.45 0.0087
99.5 0.00459
99.55 0.0043
99.6 0.00285
99.65 0.00076
99.7 0.00037
99.75 -0.00203
99.8 -0.00329
99.85 -0.00196
99.9 -0.00089
99.95 -0.00273
