0 0
0.05 0.00337
0.1 0.00934
0.15 0.01234
0.2 0.01566
0.25 0.01887
0.3 0.01991
0.35 0.01923
0.4 0.01731
0.45 0.01571
0.5 0.01577
0.55 0.01635
0.6 0.0194
0.65 0.02298
0.7 0.02531
0.75 0.02647
0.8 0.02907
0.85 0.03151
0.9 0.0342
0.95 0.03334
1 0.02965
1.05 0.02772
1.1 0.0239
1.15 0.02311
1.2 0.023
1.25 0.02491
1.3 0.02541
1.35 0.02689
1.4 0.02692
1.45 0.02522
1.5 0.02462
1.55 0.02302
1.6 0.0201
1.65 0.01811
1.7 0.0181
1.75 0.01789
1.8 0.01954
1.85 0.02049
1.9 0.02133
1.95 0.01973
2 0.01643
2.05 0.01613
2.1 0.01644
2.15 0.01418
2.2 0.01246
2.25 0.01322
2.3 0.01283
2.35 0.01357
2.4 0.01206
2.45 0.00954
2.5 0.00925
2.55 0.01065
2.6 0.01301
2.65 0.0148
2.7 0.01477
2.75 0.0164
2.8 0.01891
2.85 0.01782
2.9 0.0185
2.95 0.0199
3 0.02156
3.05 0.0224
3.1 0.0221
3.15 0.02123
3.2 0.01748
3.25 0.01616
3.3 0.01634
3.35 0.01513
3.4 0.01181
3.45 0.0077
3.5 0.00579
3.55 0.00665
3.6 0.00566
3.65 0.00495
3.7 0.00373
3.75 0.00316
3.8 0.00212
3.85 0.00068
3.9 0.0018
3.95 0.00478
4 0.00772
4.05 0.00924
4.1 0.00986
4.15 0.01
4.2 0.0105
4.25 0.01182
4.3 0.01284
4.35 0.01355
4.4 0.01249
4.45 0.01112
4.5 0.00841
4.55 0.00738
4.6 0.00629
4.65 0.00582
4.7 0.00536
4.75 0.00436
4.8 0.00514
4.85 0.0055
4.9 0.00379
4.95 0.00167
5 0.00232
5.05 0.00139
5.1 -0.00016
5.15 -0.00064
5.2 -0.00008
5.25 0.00067
5.3 0.00091
5.35 0.001
5.4 0.00051
5.45 -0.00134
5.5 0.00009
5.55 0.00057
5.6 -0.00013
5.65 -0.00128
5.7 -0.00199
5.75 -0.00098
5.8 0.00004
5.85 0.00279
5.9 0.00426
5.95 0.00468
6 0.00505
6.05 0.00677
6.1 0.007
6.15 0.0076
6.2 0.00765
6.25 0.00698
6.3 0.00602
6.35 0.00498
6.4 0.00574
6.45 0.00587
6.5 0.00436
6.55 0.00353
6.6 0.0051
6.65 0.00726
6.7 0.00618
6.75 0.00582
6.8 0.00665
6.85 0.0055
6.9 0.00464
6.95 0.00236
7 -0.00004
7.05 -0.00147
7.1 -0.00264
7.15 -0.0046
7.2 -0.00315
7.25 0.00036
7.3 0.00073
7.35 0.00023
7.4 -0.00209
7.45 -0.00298
7.5 -0.00137
7.55 0.00129
7.6 0.00324
7.65 0.00367
7.7 0.00595
7.75 0.00893
7.8 0.0123
7.85 0.01234
7.9 0.01222
7.95 0.01212
8 0.01015
8.05 0.01
8.1 0.00725
8.15 0.00593
8.2 0.00364
8.25 0.00029
8.3 -0.0021
8.35 -0.0019
8.4 0.00021
8.45 0.00041
8.5 0.00202
8.55 0.00511
8.6 0.00781
8.65 0.00989
8.7 0.01197
8.75 0.01219
8.8 0.01065
8.85 0.00958
8.9 0.00744
8.95 0.00659
9 0.00381
9.05 -0.00041
9.1 -0.00511
9.15 -0.00652
9.2 -0.00488
9.25 -0.00344
9.3 -0.00269
9.35 -0.00222
9.4 -0.00379
9.45 -0.00305
9.5 -0.00137
9.55 0.00038
9.6 0.00317
9.65 0.00361
9.7 0.00363
9.75 0.00549
9.8 0.0084
9.85 0.00835
9.9 0.009
9.95 0.00691
10 0.00678
10.05 0.00501
10.1 0.00502
10.15 0.00507
10.2 0.00377
10.25 0.00128
10.3 -0.00253
10.35 -0.00332
10.4 -0.00475
10.45 -0.00556
10.5 -0.00372
10.55 -0.00308
10.6 -0.00293
10.65 -0.00122
10.7 0.0006
10.75 0.0024
10.8 0.00443
10.85 0.00428
10.9 0.00403
10.95 0.00216
11 -0.00081
11.05 -0.00404
11.1 -0.00429
11.15 -0.00369
11.2 -0.00522
11.25 -0.00658
11.3 -0.00863
11.35 -0.01013
11.4 -0.00906
11.45 -0.00802
11.5 -0.00764
11.55 -0.00509
11.6 -0.00502
11.65 -0.00418
11.7 -0.00537
11.75 -0.00789
11.8 -0.01025
11.85 -0.01057
11.9 -0.01001
11.95 -0.00784
12 -0.0051
12.05 -0.0016
12.1 0.00187
12.15 0.00481
12.2 0.00813
12.25 0.00901
12.3 0.0084
12.35 0.00873
12.4 0.00741
12.45 0.00498
12.5 0.00407
12.55 0.00252
12.6 0.00338
12.65 0.00286
12.7 0.00232
12.75 0.00402
12.8 0.00253
12.85 0.00008
12.9 -0.00083
12.95 -0.00143
13 -0.00353
13.05 -0.00397
13.1 -0.00373
13.15 -0.00224
13.2 -0.00167
13.25 0.001
13.3 0.00076
13.35 -0.00084
13.4 -0.00048
13.45 0.00088
13.5 0.00169
13.55 0.00186
13.6 0.00169
13.65 0.00036
13.7 0.00103
13.75 0.00178
13.8 0.00073
13.85 -0.00073
13.9 -0.00188
13.95 -0.00453
14 -0.00584
14.05 -0.0072
14.1 -0.00634
14.15 -0.00344
14.2 -0.0006
14.25 0.00317
14.3 0.00409
14.35 0.00518
14.4 0.00547
14.45 0.00633
14.5 0.00543
14.55 0.00464
14.6 0.00602
14.65 0.00539
14.7 0.00636
14.75 0.00424
14.8 0.00221
14.85 0.00254
14.9 0.00399
14.95 0.00507
15 0.0068
15.05 0.00851
15.1 0.00664
15.15 0.00463
15.2 0.0044
15.25 0.00418
15.3 0.004
15.35 0.00134
15.4 0.00051
15.45 0.00163
15.5 0.00053
15.55 0.00113
15.6 -0.00035
15.65 0.00089
15.7 0.00108
15.75 0.00124
15.8 0.00228
15.85 0.00357
15.9 0.00446
15.95 0.00616
16 0.0059
16.05 0.00292
16.1 0.00107
16.15 -0.00037
16.2 0.00057
16.25 -0.00034
16.3 0.00031
16.35 -0.00025
16.4 -0.00068
16.45 0.00075
16.5 0.00003
16.55 -0.00025
16.6 -0.00037
16.65 -0.00065
16.7 0.00114
16.75 0.00185
16.8 0.00123
16.85 0.00158
16.9 0.00327
16.95 0.00374
17 0.00262
17.05 0.00081
17.1 -0.00219
17.15 -0.00502
17.2 -0.0053
17.25 -0.00672
17.3 -0.00885
17.35 -0.00799
17.4 -0.00554
17.45 -0.00201
17.5 0.00094
17.55 0.00037
17.6 0.00016
17.65 -0.00125
17.7 -0.00332
17.75 -0.00626
17.8 -0.00559
17.85 -0.00295
17.9 -0.00208
17.95 -0.00256
18 -0.00098
18.05 -0.00155
18.1 -0.00174
18.15 -0.00003
18.2 -0.00096
18.25 -0.00144
18.3 -0.00275
18.35 -0.00467
18.4 -0.00457
18.45 -0.00471
18.5 -0.00305
18.55 -0.00259
18.6 -0.00066
18.65 0.00274
18.7 0.00436
18.75 0.00629
18.8 0.00724
18.85 0.00815
18.9 0.00954
18.95 0.00932
19 0.00842
19.05 0.00763
19.1 0.00555
19.15 0.00198
19.2 -0.00008
19.25 -0.00001
19.3 -0.00054
19.35 -0.00241
19.4 -0.00492
19.45 -0.00846
19.5 -0.01224
19.55 -0.0135
19.6 -0.01367
19.65 -0.01271
19.7 -0.01279
19.75 -0.00969
19.8 -0.00778
19.85 -0.0049
19.9 -0.00432
19.95 -0.004
20 -0.00217
20.05 0.00029
20.1 0.00163
20.15 0.00402
20.2 0.00515
20.25 0.00419
20.3 0.00123
20.35 -0.00055
20.4 -0.00156
20.45 -0.00264
20.5 -0.00477
20.55 -0.00442
20.6 -0.00519
20.65 -0.00612
20.7 -0.00678
20.75 -0.00743
20.8 -0.00536
20.85 -0.00268
20.9 -0.00242
20.95 -0.00002
21 0.00112
21.05 -0.00024
21.1 -0.00188
21.15 -0.00332
21.2 -0.00469
21.25 -0.00517
21.3 -0.00276
21.35 0.00115
21.4 0.00506
21.45 0.0078
21.5 0.00844
21.55 0.00906
21.6 0.00873
21.65 0.00733
21.7 0.00365
21.75 -0.00046
21.8 -0.00097
21.85 0.00098
21.9 0.00304
21.95 0.00435
22 0.00663
22.05 0.00697
22.1 0.00729
22.15 0.00849
22.2 0.00729
22.25 0.00527
22.3 0.00291
22.35 0.00085
22.4 -0.00031
22.45 0.00068
22.5 -0.00074
22.55 -0.001
22.6 -0.00331
22.65 -0.00475
22.7 -0.00535
22.75 -0.00356
22.8 -0.00276
22.85 -0.00066
22.9 0.00226
22.95 0.00281
23 0.001
23.05 -0.00121
23.1 -0.00395
23.15 -0.00696
23.2 -0.00875
23.25 -0.00903
23.3 -0.01017
23.35 -0.01037
23.4 -0.00777
23.45 -0.00666
23.5 -0.0042
23.55 -0.00058
23.6 0.00391
23.65 0.00665
23.7 0.00923
23.75 0.00955
23.8 0.00694
23.85 0.00665
23.9 0.00386
23.95 0.00036
24 -0.00217
24.05 -0.00413
24.1 -0.00499
24.15 -0.00496
24.2 -0.00572
24.25 -0.0046
24.3 -0.00311
24.35 -0.00368
24.4 -0.00566
24.45 -0.00441
24.5 -0.00338
24.55 -0.00358
24.6 -0.0012
24.65 -0.0005
24.7 0.00211
24.75 0.00544
24.8 0.00591
24.85 0.00542
24.9 0.00447
24.95 0.00338
25 0.00427
25.05 0.00643
25.1 0.00763
25.15 0.00975
25.2 0.01213
25.25 0.01251
25.3 0.01201
25.35 0.00881
25.4 0.00451
25.45 0.00093
25.5 0.00002
25.55 -0.00146
25.6 -0.00287
25.65 -0.00502
25.7 -0.00613
25.75 -0.00863
25.8 -0.00976
25.85 -0.01169
25.9 -0.0136
25.95 -0.01187
26 -0.01059
26.05 -0.01096
26.1 -0.01188
26.15 -0.01286
26.2 -0.01232
26.25 -0.01268
26.3 -0.01141
26.35 -0.00748
26.4 -0.00285
26.45 -0.00112
26.5 0.00041
26.55 0.00187
26.6 0.00219
26.65 0.00043
26.7 0.00151
26.75 0.00172
26.8 -0.00016
26.85 -0.00271
26.9 -0.00271
26.95 -0.00274
27 -0.002
27.05 -0.00139
27.1 -0.00004
27.15 -0.00066
27.2 0.00026
27.25 0.0017
27.3 0.00165
27.35 -0.00072
27.4 -0.00002
27.45 0.00233
27.5 0.00317
27.55 0.00285
27.6 0.00134
27.65 -0.00146
27.7 -0.00296
27.75 -0.00333
27.8 -0.00184
27.85 -0.0001
27.9 0.00248
27.95 0.00353
28 0.00266
28.05 0.00212
28.1 0.0036
28.15 0.00446
28.2 0.00649
28.25 0.00542
28.3 0.00567
28.35 0.00671
28.4 0.00514
28.45 0.00355
28.5 0.00038
28.55 -0.00459
28.6 -0.00997
28.65 -0.01644
28.7 -0.02413
28.75 -0.03115
28.8 -0.03869
28.85 -0.04674
28.9 -0.05476
28.95 -0.06137
29 -0.06705
29.05 -0.07629
29.1 -0.08644
29.15 -0.09912
29.2 -0.11486
29.25 -0.13306
29.3 -0.1527
29.35 -0.17502
29.4 -0.20088
29.45 -0.22741
29.5 -0.25581
29.55 -0.28834
29.6 -0.32802
29.65 -0.37259
29.7 -0.42115
29.75 -0.47146
29.8 -0.52406
29.85 -0.58043
29.9 -0.64092
29.95 -0.70486
30 -0.76992
30.05 -0.83872
30.1 -0.91032
30.15 -0.97968
30.2 -1.04923
30.25 -1.1181
30.3 -1.18519
30.35 -1.24685
30.4 -1.30468
30.45 -1.35642
30.5 -1.40153
30.55 -1.44077
30.6 -1.47342
30.65 -1.49312
30.7 -1.50253
30.75 -1.50242
30.8 -1.49197
30.85 -1.46805
30.9 -1.43055
30.95 -1.3834
31 -1.32598
31.05 -1.25808
31.1 -1.17807
31.15 -1.09009
31.2 -0.99509
31.25 -0.8925
31.3 -0.78381
31.35 -0.67238
31.4 -0.5601
31.45 -0.4432
31.5 -0.32664
31.55 -0.20977
31.6 -0.09749
31.65 0.01199
31.7 0.11835
31.75 0.21709
31.8 0.31241
31.85 0.40126
31.9 0.48264
31.95 0.55593
32 0.62084
32.05 0.67861
32.1 0.73228
32.15 0.77933
32.2 0.81914
32.25 0.8534
32.3 0.88588
32.35 0.91348
32.4 0.93766
32.45 0.95786
32.5 0.97534
32.55 0.9929
32.6 1.00922
32.65 1.02088
32.7 1.02999
32.75 1.04095
32.8 1.04866
32.85 1.05747
32.9 1.06365
32.95 1.07046
33 1.07756
33.05 1.083
33.1 1.08514
33.15 1.08828
33.2 1.08713
33.25 1.08353
33.3 1.0801
33.35 1.07613
33.4 1.06976
33.45 1.06326
33.5 1.05533
33.55 1.0454
33.6 1.03523
33.65 1.02543
33.7 1.0143
33.75 0.99898
33.8 0.98145
33.85 0.96427
33.9 0.94523
33.95 0.92478
34 0.90581
34.05 0.88519
34.1 0.86348
34.15 0.84072
34.2 0.81861
34.25 0.7964
34.3 0.77219
34.35 0.74922
34.4 0.72554
34.45 0.69952
34.5 0.67216
34.55 0.64438
34.6 0.61752
34.65 0.59031
34.7 0.56178
34.75 0.53448
34.8 0.50734
34.85 0.48074
34.9 0.45542
34.95 0.43241
35 0.41087
35.05 0.39134
35.1 0.37183
35.15 0.35095
35.2 0.32888
35.25 0.30758
35.3 0.28798
35.35 0.26684
35.4 0.24494
35.45 0.22591
35.5 0.20649
35.55 0.18662
35.6 0.166
35.65 0.14737
35.7 0.12876
35.75 0.11221
35.8 0.09822
35.85 0.08528
35.9 0.07006
35.95 0.05494
36 0.03901
36.05 0.02525
36.1 0.01215
36.15 -0.00034
36.2 -0.01045
36.25 -0.02265
36.3 -0.03257
36.35 -0.04413
36.4 -0.05688
36.45 -0.06656
36.5 -0.07421
36.55 -0.08316
36.6 -0.09156
36.65 -0.09752
36.7 -0.10576
36.75 -0.11204
36.8 -0.11991
36.85 -0.12576
36.9 -0.13034
36.95 -0.13529
37 -0.14108
37.05 -0.146
37.1 -0.15089
37.15 -0.15389
37.2 -0.15751
37.25 -0.16165
37.3 -0.1665
37.35 -0.17188
37.4 -0.17777
37.45 -0.18078
37.5 -0.18351
37.55 -0.18676
37.6 -0.18769
37.65 -0.18916
37.7 -0.18844
37.75 -0.18824
37.8 -0.18772
37.85 -0.18706
37.9 -0.18701
37.95 -0.1884
38 -0.18918
38.05 -0.18732
38.1 -0.18573
38.15 -0.18202
38.2 -0.17676
38.25 -0.17094
38.3 -0.16506
38.35 -0.16354
38.4 -0.16281
38.45 -0.16169
38.5 -0.16
38.55 -0.16029
38.6 -0.15904
38.65 -0.15785
38.7 -0.15487
38.75 -0.15282
38.8 -0.151
38.85 -0.14837
38.9 -0.14726
38.95 -0.14818
39 -0.14649
39.05 -0.14738
39.1 -0.14838
39.15 -0.14929
39.2 -0.14744
39.25 -0.14377
39.3 -0.1428
39.35 -0.14311
39.4 -0.14225
39.45 -0.1419
39.5 -0.13934
39.55 -0.13483
39.6 -0.12999
39.65 -0.12517
39.7 -0.12057
39.75 -0.11617
39.8 -0.11259
39.85 -0.10859
39.9 -0.10635
39.95 -0.1061
40 -0.10748
40.05 -0.10787
40.1 -0.11001
40.15 -0.1102
40.2 -0.11179
40.25 -0.11092
40.3 -0.10796
40.35 -0.10502
40.4 -0.10411
40.45 -0.10158
40.5 -0.09731
40.55 -0.09496
40.6 -0.09141
40.65 -0.08763
40.7 -0.08488
40.75 -0.08117
40.8 -0.07905
40.85 -0.07648
40.9 -0.07368
40.95 -0.07178
41 -0.07086
41.05 -0.07137
41.1 -0.0721
41.15 -0.07131
41.2 -0.06914
41.25 -0.06905
41.3 -0.06807
41.35 -0.06919
41.4 -0.07242
41.45 -0.07458
41.5 -0.07373
41.55 -0.07089
41.6 -0.06918
41.65 -0.06884
41.7 -0.0684
41.75 -0.06869
41.8 -0.06871
41.85 -0.07003
41.9 -0.06859
41.95 -0.068
42 -0.06827
42.05 -0.06848
42.1 -0.06702
42.15 -0.06358
42.2 -0.06164
42.25 -0.05909
42.3 -0.0564
42.35 -0.05373
42.4 -0.05302
42.45 -0.05431
42.5 -0.05351
42.55 -0.05082
42.6 -0.04933
42.65 -0.05014
42.7 -0.05149
42.75 -0.05353
42.8 -0.05311
42.85 -0.05136
42.9 -0.04915
42.95 -0.04515
43 -0.04374
43.05 -0.0425
43.1 -0.0405
43.15 -0.03848
43.2 -0.03635
43.25 -0.03744
43.3 -0.03748
43.35 -0.0387
43.4 -0.03778
43.45 -0.03781
43.5 -0.03731
43.55 -0.03765
43.6 -0.03831
43.65 -0.03741
43.7 -0.0377
43.75 -0.03919
43.8 -0.03974
43.85 -0.04169
43.9 -0.04432
43.95 -0.04723
44 -0.0457
44.05 -0.04361
44.1 -0.03919
44.15 -0.03646
44.2 -0.03407
44.25 -0.034
44.3 -0.03169
44.35 -0.03188
44.4 -0.03145
44.45 -0.03117
44.5 -0.03202
44.55 -0.03196
44.6 -0.03159
44.65 -0.03264
44.7 -0.03228
44.75 -0.03348
44.8 -0.03413
44.85 -0.03308
44.9 -0.03346
44.95 -0.03433
45 -0.03231
45.05 -0.0318
45.1 -0.03224
45.15 -0.03144
45.2 -0.028
45.25 -0.02646
45.3 -0.02317
45.35 -0.01994
45.4 -0.01981
45.45 -0.02068
45.5 -0.02131
45.55 -0.02091
45.6 -0.01912
45.65 -0.01676
45.7 -0.0132
45.75 -0.01025
45.8 -0.00971
45.85 -0.01143
45.9 -0.01389
45.95 -0.01385
46 -0.01221
46.05 -0.01267
46.1 -0.01267
46.15 -0.01224
46.2 -0.01422
46.25 -0.01413
46.3 -0.0137
46.35 -0.0134
46.4 -0.01265
46.45 -0.01151
46.5 -0.01103
46.55 -0.0107
46.6 -0.01175
46.65 -0.01176
46.7 -0.01386
46.75 -0.01701
46.8 -0.01754
46.85 -0.0156
46.9 -0.0132
46.95 -0.01282
47 -0.01034
47.05 -0.01009
47.1 -0.01175
47.15 -0.01436
47.2 -0.017
47.25 -0.01902
47.3 -0.02182
47.35 -0.02316
47.4 -0.02296
47.45 -0.02203
47.5 -0.01829
47.55 -0.01378
47.6 -0.00916
47.65 -0.00527
47.7 -0.00294
47.75 -0.00287
47.8 -0.00456
47.85 -0.00619
47.9 -0.00601
47.95 -0.00576
48 -0.00401
48.05 -0.00426
48.1 -0.00341
48.15 -0.00228
48.2 -0.00229
48.25 -0.00486
48.3 -0.00875
48.35 -0.01151
48.4 -0.01346
48.45 -0.01397
48.5 -0.01516
48.55 -0.01541
48.6 -0.01302
48.65 -0.01235
48.7 -0.01053
48.75 -0.00763
48.8 -0.00513
48.85 -0.00308
48.9 -0.00346
48.95 -0.00497
49 -0.00634
49.05 -0.00535
49.1 -0.00652
49.15 -0.00905
49.2 -0.01047
49.25 -0.01183
49.3 -0.01091
49.35 -0.0088
49.4 -0.00538
49.45 -0.00435
49.5 -0.00441
49.55 -0.00436
49.6 -0.00507
49.65 -0.00418
49.7 -0.00174
49.75 -0.00071
49.8 -0.00219
49.85 -0.00468
49.9 -0.00672
49.95 -0.00647
50 -0.00648
50.05 -0.00435
50.1 -0.00408
50.15 -0.00364
50.2 -0.00313
50.25 -0.00162
50.3 0.00115
50.35 0.00419
50.4 0.00619
50.45 0.0065
50.5 0.00377
50.55 0.00163
50.6 -0.00213
50.65 -0.00526
50.7 -0.00571
50.75 -0.00568
50.8 -0.00667
50.85 -0.00638
50.9 -0.00731
50.95 -0.00617
51 -0.00402
51.05 -0.0024
51.1 -0.00377
51.15 -0.00305
51.2 -0.0031
51.25 -0.00136
51.3 -0.00251
51.35 -0.00449
51.4 -0.00387
51.45 -0.00314
51.5 -0.00121
51.55 -0.00036
51.6 -0.00227
51.65 -0.00192
51.7 -0.00031
51.75 -0.00083
51.8 -0.00134
51.85 -0.00276
51.9 -0.00569
51.95 -0.0067
52 -0.00761
52.05 -0.00639
52.1 -0.00531
52.15 -0.00462
52.2 -0.00187
52.25 0.00005
52.3 0.00128
52.35 0.0002
52.4 0.00061
52.45 -0.00154
52.5 -0.00077
52.55 0.00013
52.6 0.00166
52.65 0.0036
52.7 0.00643
52.75 0.00812
52.8 0.00679
52.85 0.00288
52.9 -0.00215
52.95 -0.00421
53 -0.00744
53.05 -0.00816
53.1 -0.00707
53.15 -0.0041
53.2 -0.00115
53.25 -0.0003
53.3 0.00047
53.35 0.00232
53.4 0.00134
53.45 -0.0005
53.5 -0.00373
53.55 -0.00579
53.6 -0.00838
53.65 -0.00904
53.7 -0.00732
53.75 -0.00712
53.8 -0.00646
53.85 -0.00613
53.9 -0.00356
53.95 -0.00347
54 -0.00299
54.05 -0.00406
54.1 -0.00286
54.15 -0.00282
54.2 -0.00256
54.25 -0.00177
54.3 -0.00331
54.35 -0.00433
54.4 -0.00578
54.45 -0.00517
54.5 -0.00555
54.55 -0.00571
54.6 -0.00633
54.65 -0.00679
54.7 -0.00662
54.75 -0.00573
54.8 -0.00456
54.85 -0.00227
54.9 -0.00275
54.95 -0.0045
55 -0.00383
55.05 -0.00349
55.1 -0.00264
55.15 -0.00286
55.2 -0.00381
55.25 -0.00572
55.3 -0.00802
55.35 -0.00918
55.4 -0.00884
55.45 -0.00672
55.5 -0.00371
55.55 0.00066
55.6 0.00341
55.65 0.00389
55.7 0.00575
55.75 0.00514
55.8 0.00376
55.85 0.00191
55.9 0.002
55.95 0.00052
56 0.00065
56.05 0.00259
56.1 0.0031
56.15 0.00271
56.2 0.00012
56.25 -0.00041
56.3 -0.00273
56.35 -0.00436
56.4 -0.00569
56.45 -0.00395
56.5 -0.00125
56.55 0.0012
56.6 0.00291
56.65 0.00303
56.7 0.0032
56.75 0.00128
56.8 -0.00035
56.85 -0.00159
56.9 -0.00059
56.95 0.00026
57 -0.00082
57.05 -0.00278
57.1 -0.0056
57.15 -0.0092
57.2 -0.01297
57.25 -0.01521
57.3 -0.01594
57.35 -0.01662
57.4 -0.01636
57.45 -0.01404
57.5 -0.01232
57.55 -0.01019
57.6 -0.00819
57.65 -0.00631
57.7 -0.00312
57.75 0.00003
57.8 0.00324
57.85 0.00675
57.9 0.01028
57.95 0.0107
58 0.00962
58.05 0.00906
58.1 0.00578
58.15 0.00492
58.2 0.00427
58.25 0.00211
58.3 0.0017
58.35 0.00358
58.4 0.00539
58.45 0.00832
58.5 0.00989
58.55 0.01106
58.6 0.01133
58.65 0.00919
58.7 0.00505
58.75 -0.00016
58.8 -0.00543
58.85 -0.00883
58.9 -0.00878
58.95 -0.00996
59 -0.00975
59.05 -0.00897
59.1 -0.00717
59.15 -0.00748
59.2 -0.00751
59.25 -0.00547
59.3 -0.00195
59.35 0.00033
59.4 0.00237
59.45 0.0029
59.5 0.00088
59.55 0.0015
59.6 -0.00037
59.65 0.00057
59.7 0.00023
59.75 -0.00037
59.8 -0.00187
59.85 -0.00048
59.9 0.00184
59.95 0.00128
60 0.00119
60.05 0.00154
60.1 0.00034
60.15 0.00073
60.2 0.00221
60.25 0.00251
60.3 0.00145
60.35 -0.00028
60.4 0.00006
60.45 0.0016
60.5 0.00309
60.55 0.00561
60.6 0.00802
60.65 0.0072
60.7 0.00517
60.75 0.00381
60.8 0.00355
60.85 0.00329
60.9 0.00439
60.95 0.0025
61 0.0015
61.05 0.00109
61.1 0.00065
61.15 0.0018
61.2 0.00457
61.25 0.0055
61.3 0.00637
61.35 0.00641
61.4 0.00597
61.45 0.00523
61.5 0.00314
61.55 -0.00046
61.6 -0.00287
61.65 -0.00296
61.7 -0.00399
61.75 -0.00459
61.8 -0.00399
61.85 -0.00434
61.9 -0.00649
61.95 -0.00673
62 -0.0082
62.05 -0.00735
62.1 -0.006
62.15 -0.00419
62.2 -0.00279
62.25 0.0002
62.3 0.00139
62.35 0.00294
62.4 0.00369
62.45 0.0024
62.5 0.00217
62.55 0.00119
62.6 -0.00003
62.65 -0.00004
62.7 0.00177
62.75 0.0045
62.8 0.00628
62.85 0.00467
62.9 0.00481
62.95 0.00558
63 0.0047
63.05 0.00343
63.1 0.00145
63.15 0.00151
63.2 0.00054
63.25 -0.00214
63.3 -0.00397
63.35 -0.00643
63.4 -0.00942
63.45 -0.01256
63.5 -0.01369
63.55 -0.01555
63.6 -0.01507
63.65 -0.01191
63.7 -0.00833
63.75 -0.00497
63.8 -0.00159
63.85 0.00122
63.9 0.00495
63.95 0.00561
64 0.00432
64.05 0.00194
64.1 -0.00047
64.15 -0.00167
64.2 -0.00445
64.25 -0.00741
64.3 -0.00923
64.35 -0.00969
64.4 -0.00978
64.45 -0.00725
64.5 -0.00374
64.55 0.00103
64.6 0.00242
64.65 0.00296
64.7 0.00118
64.75 -0.00126
64.8 -0.00301
64.85 -0.00242
64.9 -0.00134
64.95 -0.00056
65 0.00179
65.05 0.00435
65.1 0.00418
65.15 0.0018
65.2 0.00163
65.25 0.00153
65.3 0.00083
65.35 -0.00089
65.4 -0.00217
65.45 -0.00279
65.5 -0.00435
65.55 -0.00452
65.6 -0.00615
65.65 -0.00632
65.7 -0.00719
65.75 -0.00901
65.8 -0.00975
65.85 -0.00883
65.9 -0.00717
65.95 -0.00407
66 -0.00056
66.05 0.00136
66.1 0.00203
66.15 0.00279
66.2 0.002
66.25 0.00332
66.3 0.00584
66.35 0.00597
66.4 0.00608
66.45 0.00359
66.5 0.00235
66.55 0.00103
66.6 -0.00171
66.65 -0.00306
66.7 -0.00225
66.75 -0.00284
66.8 -0.00173
66.85 0.00045
66.9 0.00044
66.95 0.00179
67 0.00225
67.05 0.00231
67.1 0.0007
67.15 0.00085
67.2 0.00252
67.25 0.00558
67.3 0.00864
67.35 0.00962
67.4 0.00862
67.45 0.00832
67.5 0.00559
67.55 0.00315
67.6 0.00061
67.65 -0.00006
67.7 0.00018
67.75 0.00243
67.8 0.00469
67.85 0.00641
67.9 0.00567
67.95 0.0049
68 0.00447
68.05 0.00495
68.1 0.00681
68.15 0.00747
68.2 0.00714
68.25 0.00578
68.3 0.00249
68.35 0.00093
68.4 -0.00051
68.45 -0.00251
68.5 -0.00163
68.55 -0.00109
68.6 0.00081
68.65 0.0021
68.7 0.00183
68.75 -0.00047
68.8 -0.00002
68.85 -0.00189
68.9 -0.00109
68.95 -0.00193
69 -0.0022
69.05 -0.00223
69.1 -0.00348
69.15 -0.00527
69.2 -0.00769
69.25 -0.00943
69.3 -0.00812
69.35 -0.00785
69.4 -0.00886
69.45 -0.011
69.5 -0.01216
69.55 -0.01054
69.6 -0.00735
69.65 -0.00517
69.7 -0.00534
69.75 -0.00453
69.8 -0.00369
69.85 -0.00072
69.9 -0.00005
69.95 -0.00137
70 -0.00006
70.05 0.00107
70.1 0.0039
70.15 0.0069
70.2 0.00796
70.25 0.00791
70.3 0.00921
70.35 0.00995
70.4 0.0098
70.45 0.00745
70.5 0.00522
70.55 0.00126
70.6 -0.00222
70.65 -0.00312
70.7 -0.00309
70.75 -0.00404
70.8 -0.00615
70.85 -0.00486
70.9 -0.00513
70.95 -0.00618
71 -0.00418
71.05 -0.00421
71.1 -0.00285
71.15 -0.00038
71.2 0.00291
71.25 0.00453
71.3 0.00463
71.35 0.00355
71.4 0.00049
71.45 -0.00084
71.5 -0.0032
71.55 -0.0062
71.6 -0.00725
71.65 -0.00682
71.7 -0.00748
71.75 -0.00841
71.8 -0.00641
71.85 -0.00363
71.9 0.00066
71.95 0.00445
72 0.00555
72.05 0.00358
72.1 0.00133
72.15 -0.0015
72.2 -0.00101
72.25 0.00083
72.3 0.00185
72.35 0.00066
72.4 -0.00236
72.45 -0.00271
72.5 -0.00352
72.55 -0.00308
72.6 -0.00459
72.65 -0.00488
72.7 -0.00519
72.75 -0.00474
72.8 -0.00524
72.85 -0.00496
72.9 -0.00508
72.95 -0.00493
73 -0.00624
73.05 -0.00423
73.1 -0.0024
73.15 -0.00189
73.2 -0.00201
73.25 -0.00143
73.3 -0.00138
73.35 0.0007
73.4 0.00214
73.45 0.00305
73.5 0.00195
73.55 0.00163
73.6 0.00296
73.65 0.00534
73.7 0.00805
73.75 0.00765
73.8 0.0084
73.85 0.00859
73.9 0.00618
73.95 0.00521
74 0.00424
74.05 0.00435
74.1 0.00492
74.15 0.00551
74.2 0.00465
74.25 0.0057
74.3 0.00598
74.35 0.00573
74.4 0.00355
74.45 0.00163
74.5 0.00107
74.55 0.00229
74.6 0.00485
74.65 0.00506
74.7 0.00488
74.75 0.00392
74.8 0.00361
74.85 0.00469
74.9 0.0032
74.95 0.00339
75 0.0051
75.05 0.00563
75.1 0.00427
75.15 0.00265
75.2 -0.00065
75.25 -0.00165
75.3 -0.00068
75.35 0
75.4 0.00033
75.45 0.00138
75.5 0.00052
75.55 0.00138
75.6 0.00162
75.65 0.00002
75.7 -0.00059
75.75 -0.00116
75.8 -0.00077
75.85 -0.00198
75.9 -0.00221
75.95 -0.00244
76 -0.00196
76.05 -0.00001
76.1 -0.00047
76.15 -0.00121
76.2 -0.00288
76.25 -0.00404
76.3 -0.00564
76.35 -0.0047
76.4 -0.00508
76.45 -0.00587
76.5 -0.00633
76.55 -0.00731
76.6 -0.00817
76.65 -0.00953
76.7 -0.00915
76.75 -0.00732
76.8 -0.00698
76.85 -0.00715
76.9 -0.0049
76.95 -0.00453
77 -0.00577
77.05 -0.00767
77.1 -0.01019
77.15 -0.01168
77.2 -0.01129
77.25 -0.00861
77.3 -0.00445
77.35 -0.00142
77.4 0.00035
77.45 0.00257
77.5 0.00332
77.55 0.00204
77.6 0.00337
77.65 0.00513
77.7 0.00463
77.75 0.00371
77.8 0.00435
77.85 0.00261
77.9 -0.0005
77.95 -0.00357
78 -0.00599
78.05 -0.00582
78.1 -0.00298
78.15 -0.00231
78.2 -0.00054
78.25 0.00299
78.3 0.00287
78.35 0.00265
78.4 0.00167
78.45 -0.00062
78.5 -0.00115
78.55 -0.00032
78.6 -0.00177
78.65 -0.00115
78.7 -0.00093
78.75 -0.0012
78.8 -0.00341
78.85 -0.00284
78.9 -0.00234
78.95 -0.0025
79 -0.00239
79.05 -0.00412
79.1 -0.00509
79.15 -0.00488
79.2 -0.00487
79.25 -0.00401
79.3 -0.00405
79.35 -0.00162
79.4 -0.00124
79.45 0.00131
79.5 0.00322
79.55 0.00422
79.6 0.00326
79.65 0.00405
79.7 0.00486
79.75 0.00414
79.8 0.00438
79.85 0.00413
79.9 0.00487
79.95 0.00521
80 0.00445
80.05 0.00408
80.1 0.00502
80.15 0.00358
80.2 0.0047
80.25 0.00545
80.3 0.00341
80.35 0.00023
80.4 -0.00057
80.45 -0.00162
80.5 -0.00138
80.55 -0.00118
80.6 -0.00108
80.65 -0.00091
80.7 0.00058
80.75 0.00043
80.8 0.00165
80.85 0.00179
80.9 0.00343
80.95 0.00576
81 0.00869
81.05 0.00967
81.1 0.00843
81.15 0.00888
81.2 0.00988
81.25 0.01192
81.3 0.01392
81.35 0.01176
81.4 0.00745
81.45 0.00435
81.5 0.00359
81.55 0.00465
81.6 0.00594
81.65 0.00527
81.7 0.00552
81.75 0.00582
81.8 0.0075
81.85 0.00864
81.9 0.00704
81.95 0.00525
82 0.0047
82.05 0.00576
82.1 0.00474
82.15 0.00523
82.2 0.00373
82.25 0.00171
82.3 0.00187
82.35 0.00387
82.4 0.00246
82.45 0.00014
82.5 -0.00199
82.55 -0.00335
82.6 -0.00396
82.65 -0.00363
82.7 -0.00494
82.75 -0.00432
82.8 -0.00252
82.85 -0.00042
82.9 0.00291
82.95 0.00618
83 0.00602
83.05 0.00506
83.1 0.00497
83.15 0.00441
83.2 0.00541
83.25 0.00541
83.3 0.00266
83.35 0.0027
83.4 0.0033
83.45 0.00526
83.5 0.0062
83.55 0.00435
83.6 0.00273
83.65 0.00157
83.7 -0.00104
83.75 -0.00063
83.8 0
83.85 -0.00123
83.9 -0.00071
83.95 -0
84 -0.00046
84.05 -0.00258
84.1 -0.00219
84.15 -0.00179
84.2 -0.00154
84.25 -0.00322
84.3 -0.00209
84.35 -0.00023
84.4 0.00058
84.45 -0.00133
84.5 -0.00093
84.55 0.0014
84.6 0.00049
84.65 -0.00081
84.7 0.00036
84.75 0.00062
84.8 0.00198
84.85 0.00125
84.9 0.00135
84.95 0.0018
85 0.00182
85.05 0.00259
85.1 0.00271
85.15 0.00403
85.2 0.00212
85.25 0.00212
85.3 -0.00022
85.35 0.00022
85.4 -0.00023
85.45 -0.00187
85.5 -0.00238
85.55 -0.00401
85.6 -0.00382
85.65 -0.00319
85.7 -0.00457
85.75 -0.00373
85.8 -0.00261
85.85 -0.00108
85.9 -0.00191
85.95 -0.00386
86 -0.00439
86.05 -0.00503
86.1 -0.00385
86.15 -0.00435
86.2 -0.00569
86.25 -0.00436
86.3 -0.0042
86.35 -0.00243
86.4 -0.00096
86.45 0.00208
86.5 0.00156
86.55 0.00195
86.6 -0.00043
86.65 -0.0005
86.7 -0.00206
86.75 -0.00411
86.8 -0.00455
86.85 -0.00543
86.9 -0.0053
86.95 -0.00633
87 -0.0066
87.05 -0.00673
87.1 -0.00799
87.15 -0.00842
87.2 -0.00925
87.25 -0.01047
87.3 -0.00877
87.35 -0.00545
87.4 -0.00364
87.45 -0.00127
87.5 0.00055
87.55 -0.00046
87.6 0.00102
87.65 0.00228
87.7 0.00421
87.75 0.00658
87.8 0.00735
87.85 0.00597
87.9 0.00247
87.95 0.00126
88 0.00043
88.05 -0.00027
88.1 -0.0004
88.15 0.00015
88.2 -0.00056
88.25 -0.00005
88.3 -0.00046
88.35 -0.00156
88.4 -0.00156
88.45 -0.00343
88.5 -0.00468
88.55 -0.00339
88.6 -0.0023
88.65 -0.00288
88.7 -0.00177
88.75 -0.00225
88.8 -0.00195
88.85 0.00012
88.9 0.00227
88.95 0.00156
89 0.00261
89.05 0.0014
89.1 -0.00168
89.15 -0.00389
89.2 -0.0067
89.25 -0.00982
89.3 -0.01012
89.35 -0.01034
89.4 -0.00783
89.45 -0.00345
89.5 0.00003
89.55 0.00311
89.6 0.00508
89.65 0.00747
89.7 0.00734
89.75 0.00662
89.8 0.00573
89.85 0.00253
89.9 -0.00119
89.95 -0.00267
90 -0.00289
90.05 -0.00156
90.1 -0.00262
90.15 -0.00441
90.2 -0.00547
90.25 -0.00789
90.3 -0.00722
90.35 -0.00613
90.4 -0.00639
90.45 -0.00488
90.5 -0.00302
90.55 -0.00378
90.6 -0.00177
90.65 -0.00013
90.7 0.00162
90.75 0.00163
90.8 0.00335
90.85 0.00406
90.9 0.00286
90.95 0.00214
91 0.00078
91.05 -0.00226
91.1 -0.00529
91.15 -0.00574
91.2 -0.00529
91.25 -0.00307
91.3 0.00079
91.35 0.00238
91.4 0.00319
91.45 0.00278
91.5 0.00179
91.55 0.00264
91.6 0.00248
91.65 0.00309
91.7 0.00248
91.75 0.00146
91.8 0.00129
91.85 0.00251
91.9 0.00471
91.95 0.00604
92 0.00435
92.05 0.00465
92.1 0.00304
92.15 0.00377
92.2 0.0032
92.25 0.00244
92.3 0.0021
92.35 0.00102
92.4 0.00093
92.45 -0.00018
92.5 -0.00144
92.55 -0.0045
92.6 -0.00395
92.65 -0.00197
92.7 -0.00219
92.75 -0.00206
92.8 -0.00347
92.85 -0.00432
92.9 -0.00618
92.95 -0.00539
93 -0.00457
93.05 -0.00524
93.1 -0.00478
93.15 -0.0026
93.2 -0.0029
93.25 -0.00439
93.3 -0.00432
93.35 -0.00485
93.4 -0.00685
93.45 -0.00615
93.5 -0.00585
93.55 -0.00619
93.6 -0.00607
93.65 -0.0045
93.7 -0.00524
93.75 -0.00546
93.8 -0.00636
93.85 -0.00791
93.9 -0.01002
93.95 -0.01107
94 -0.01263
94.05 -0.01442
94.1 -0.01535
94.15 -0.01439
94.2 -0.01392
94.25 -0.01195
94.3 -0.00767
94.35 -0.00495
94.4 -0.00136
94.45 0.00285
94.5 0.00683
94.55 0.00798
94.6 0.00828
94.65 0.00604
94.7 0.002
94.75 0.00121
94.8 0.00033
94.85 -0.00164
94.9 -0.00436
94.95 -0.00779
95 -0.00821
95.05 -0.00751
95.1 -0.00538
95.15 -0.00253
95.2 -0.00107
95.25 -0.00062
95.3 -0.0016
95.35 -0.00052
95.4 -0.00175
95.45 -0.00338
95.5 -0.00294
95.55 -0.00277
95.6 -0.00421
95.65 -0.00455
95.7 -0.00334
95.75 0.00015
95.8 0.00283
95.85 0.00328
95.9 0.00486
95.95 0.00368
96 0.00475
96.05 0.00451
96.1 0.00546
96.15 0.00668
96.2 0.00822
96.25 0.00809
96.3 0.00584
96.35 0.00474
96.4 0.00267
96.45 0.00026
96.5 -0.00266
96.55 -0.00216
96.6 -0.00168
96.65 -0.00263
96.7 -0.00357
96.75 -0.00571
96.8 -0.00722
96.85 -0.00821
96.9 -0.00994
96.95 -0.00858
97 -0.00654
97.05 -0.00675
97.1 -0.00458
97.15 -0.002
97.2 0.00208
97.25 0.0028
97.3 0.00365
97.35 0.00488
97.4 0.0052
97.45 0.00358
97.5 0.00376
97.55 0.00158
97.6 0.00086
97.65 0.00149
97.7 0.00051
97.75 -0.0013
97.8 -0.00359
97.85 -0.00379
97.9 -0.00505
97.95 -0.0057
98 -0.00526
98.05 -0.00283
98.1 -0.00172
98.15 0.00159
98.2 0.00591
98.25 0.00652
98.3 0.00557
98.35 0.00638
98.4 0.00805
98.45 0.00922
98.5 0.01
98.55 0.01155
98.6 0.01039
98.65 0.00982
98.7 0.00822
98.75 0.00618
98.8 0.0022
98.85 0.00096
98.9 -0.00057
98.95 -0.00276
99 -0.00437
99.05 -0.00531
99.1 -0.00525
99.15 -0.00464
99.2 -0.00479
99.25 -0.00261
99.3 -0.00284
99.35 -0.00144
99.4 -0.00034
99.45 0.00266
99.5 0.00222
99.55 0.00265
99.6 0.00174
99.65 0.00003
99.7 -0.00257
99.75 -0.00589
99.8 -0.00554
99.85 -0.00376
99.9 -0.00147
99.95 -0.0009
