0 0
0.05 0.00563
0.1 0.01072
0.15 0.01381
0.2 0.01765
0.25 0.02615
0.3 0.03054
0.35 0.03618
0.4 0.03728
0.45 0.04055
0.5 0.04043
0.55 0.03678
0.6 0.03547
0.65 0.03312
0.7 0.03753
0.75 0.0406
0.8 0.04532
0.85 0.04973
0.9 0.0483
0.95 0.05181
1 0.05534
1.05 0.0542
1.1 0.05202
1.15 0.05265
1.2 0.04874
1.25 0.04688
1.3 0.04617
1.35 0.0484
1.4 0.05364
1.45 0.05914
1.5 0.06135
1.55 0.06307
1.6 0.06121
1.65 0.06147
1.7 0.05517
1.75 0.04944
1.8 0.04093
1.85 0.03819
1.9 0.03696
1.95 0.03688
2 0.04112
2.05 0.0441
2.1 0.0493
2.15 0.05388
2.2 0.05022
2.25 0.05047
2.3 0.05156
2.35 0.04813
2.4 0.04686
2.45 0.04412
2.5 0.03677
2.55 0.02639
2.6 0.0243
2.65 0.0233
2.7 0.0184
2.75 0.01457
2.8 0.01419
2.85 0.01354
2.9 0.01653
2.95 0.02117
3 0.02274
3.05 0.01927
3.1 0.01838
3.15 0.02131
3.2 0.01998
3.25 0.01616
3.3 0.01697
3.35 0.01822
3.4 0.01724
3.45 0.01553
3.5 0.01802
3.55 0.01797
3.6 0.01645
3.65 0.01509
3.7 0.01467
3.75 0.01896
3.8 0.02572
3.85 0.02461
3.9 0.01952
3.95 0.01469
4 0.01135
4.05 0.00449
4.1 -0.00413
4.15 -0.00618
4.2 -0.00432
4.25 -0.00483
4.3 -0.00225
4.35 -0.00067
4.4 0.00027
4.45 -0.00355
4.5 -0.01314
4.55 -0.02436
4.6 -0.03949
4.65 -0.0555
4.7 -0.06578
4.75 -0.0747
4.8 -0.08863
4.85 -0.10614
4.9 -0.12739
4.95 -0.15274
5 -0.18528
5.05 -0.22511
5.1 -0.26396
5.15 -0.30438
5.2 -0.34901
5.25 -0.39816
5.3 -0.44559
5.35 -0.49794
5.4 -0.54873
5.45 -0.59606
5.5 -0.6478
5.55 -0.69396
5.6 -0.73639
5.65 -0.77939
5.7 -0.81769
5.75 -0.84339
5.8 -0.85755
5.85 -0.86447
5.9 -0.86759
5.95 -0.86201
6 -0.84399
6.05 -0.8163
6.1 -0.78677
6.15 -0.75278
6.2 -0.713
6.25 -0.66964
6.3 -0.61888
6.35 -0.56553
6.4 -0.51086
6.45 -0.45026
6.5 -0.38364
6.55 -0.31907
6.6 -0.25391
6.65 -0.19327
6.7 -0.13715
6.75 -0.08388
6.8 -0.02562
6.85 0.03228
6.9 0.09266
6.95 0.15488
7 0.2113
7.05 0.26013
7.1 0.30608
7.15 0.35513
7.2 0.39932
7.25 0.44011
7.3 0.47512
7.35 0.50767
7.4 0.53769
7.45 0.57114
7.5 0.60194
7.55 0.62617
7.6 0.64722
7.65 0.67052
7.7 0.68817
7.75 0.69739
7.8 0.70206
7.85 0.69998
7.9 0.70018
7.95 0.69664
8 0.68914
8.05 0.67855
8.1 0.66425
8.15 0.65265
8.2 0.64239
8.25 0.63308
8.3 0.62284
8.35 0.60786
8.4 0.59602
8.45 0.5803
8.5 0.5649
8.55 0.55103
8.6 0.5374
8.65 0.52125
8.7 0.5044
8.75 0.48899
8.8 0.47503
8.85 0.45468
8.9 0.43687
8.95 0.41421
9 0.38818
9.05 0.36698
9.1 0.35096
9.15 0.33732
9.2 0.3274
9.25 0.3137
9.3 0.29804
9.35 0.27906
9.4 0.26771
9.45 0.25725
9.5 0.25085
9.55 0.24387
9.6 0.23431
9.65 0.22874
9.7 0.22155
9.75 0.21042
9.8 0.20473
9.85 0.1984
9.9 0.19015
9.95 0.17742
10 0.16451
10.05 0.15782
10.1 0.14925
10.15 0.14582
10.2 0.14539
10.25 0.13835
10.3 0.12692
10.35 0.11581
10.4 0.10826
10.45 0.10481
10.5 0.09987
10.55 0.09559
10.6 0.09139
10.65 0.08411
10.7 0.07515
10.75 0.06192
10.8 0.0509
10.85 0.04071
10.9 0.03567
10.95 0.02653
11 0.02223
11.05 0.01283
11.1 0.00459
11.15 -0.00064
11.2 -0.00572
11.25 -0.00986
11.3 -0.01204
11.35 -0.01864
11.4 -0.01992
11.45 -0.01906
11.5 -0.01788
11.55 -0.02156
11.6 -0.02959
11.65 -0.03326
11.7 -0.0341
11.75 -0.03395
11.8 -0.03889
11.85 -0.04852
11.9 -0.05277
11.95 -0.05688
12 -0.05811
12.05 -0.06525
12.1 -0.07432
12.15 -0.07953
12.2 -0.08774
12.25 -0.09044
12.3 -0.09316
12.35 -0.0911
12.4 -0.08791
12.45 -0.08136
12.5 -0.07315
12.55 -0.06676
12.6 -0.06153
12.65 -0.05796
12.7 -0.06063
12.75 -0.06657
12.8 -0.07284
12.85 -0.07659
12.9 -0.07868
12.95 -0.07589
13 -0.07598
13.05 -0.07287
13.1 -0.07179
13.15 -0.06816
13.2 -0.06283
13.25 -0.06111
13.3 -0.0593
13.35 -0.05756
13.4 -0.06113
13.45 -0.0634
13.5 -0.06693
13.55 -0.07174
13.6 -0.07349
13.65 -0.07759
13.7 -0.07682
13.75 -0.07239
13.8 -0.06648
13.85 -0.06407
13.9 -0.06773
13.95 -0.07454
14 -0.0746
14.05 -0.07526
14.1 -0.07707
14.15 -0.07849
14.2 -0.07482
14.25 -0.0701
14.3 -0.06846
14.35 -0.06354
14.4 -0.05585
14.45 -0.05284
14.5 -0.05511
14.55 -0.05756
14.6 -0.06352
14.65 -0.06372
14.7 -0.06678
14.75 -0.06646
14.8 -0.06212
14.85 -0.05848
14.9 -0.05478
14.95 -0.05134
15 -0.04814
15.05 -0.04361
15.1 -0.04278
15.15 -0.04054
15.2 -0.039
15.25 -0.03417
15.3 -0.02883
15.35 -0.03058
15.4 -0.03578
15.45 -0.0397
15.5 -0.04225
15.55 -0.04081
15.6 -0.03752
15.65 -0.03818
15.7 -0.03598
15.75 -0.03556
15.8 -0.03339
15.85 -0.03482
15.9 -0.037
15.95 -0.03583
16 -0.03215
16.05 -0.03171
16.1 -0.02994
16.15 -0.02702
16.2 -0.02927
16.25 -0.03495
16.3 -0.03684
16.35 -0.03388
16.4 -0.02902
16.45 -0.02517
16.5 -0.02773
16.55 -0.02693
16.6 -0.02399
16.65 -0.02762
16.7 -0.03454
16.75 -0.03567
16.8 -0.03839
16.85 -0.04379
16.9 -0.04254
16.95 -0.03971
17 -0.03957
17.05 -0.03872
17.1 -0.03646
17.15 -0.03395
17.2 -0.02848
17.25 -0.02199
17.3 -0.01749
17.35 -0.01457
17.4 -0.01624
17.45 -0.01531
17.5 -0.01471
17.55 -0.01285
17.6 -0.01327
17.65 -0.01438
17.7 -0.01333
17.75 -0.01507
17.8 -0.0167
17.85 -0.01405
17.9 -0.00987
17.95 -0.00954
18 -0.013
18.05 -0.01779
18.1 -0.01842
18.15 -0.02295
18.2 -0.02351
18.25 -0.02765
18.3 -0.02785
18.35 -0.02715
18.4 -0.02784
18.45 -0.02623
18.5 -0.02049
18.55 -0.01732
18.6 -0.02002
18.65 -0.02516
18.7 -0.02844
18.75 -0.02546
18.8 -0.02646
18.85 -0.0255
18.9 -0.02385
18.95 -0.02655
19 -0.02357
19.05 -0.02056
19.1 -0.01408
19.15 -0.01249
19.2 -0.016
19.25 -0.01445
19.3 -0.0148
19.35 -0.01657
19.4 -0.02135
19.45 -0.02009
19.5 -0.01818
19.55 -0.01521
19.6 -0.01167
19.65 -0.01209
19.7 -0.01597
19.75 -0.01848
19.8 -0.02226
19.85 -0.02777
19.9 -0.02852
19.95 -0.02351
20 -0.0229
20.05 -0.02352
20.1 -0.01907
20.15 -0.01189
20.2 -0.00389
20.25 -0.00409
20.3 -0.0072
20.35 -0.00562
20.4 -0.00355
20.45 -0.00224
20.5 0.00065
20.55 0.00077
20.6 -0.00204
20.65 -0.00307
20.7 -0.00153
20.75 -0.00079
20.8 -0.00298
20.85 -0.00831
20.9 -0.01416
20.95 -0.01522
21 -0.01212
21.05 -0.00643
21.1 -0.00741
21.15 -0.00645
21.2 -0.00796
21.25 -0.00515
21.3 -0.00086
21.35 0.00189
21.4 0.0048
21.45 0.00645
21.5 0.00384
21.55 0.00339
21.6 0.00426
21.65 0.00505
21.7 -0.00045
21.75 -0.00956
21.8 -0.01375
21.85 -0.02094
21.9 -0.02411
21.95 -0.02907
22 -0.03167
22.05 -0.03362
22.1 -0.03732
22.15 -0.03634
22.2 -0.03772
22.25 -0.03274
22.3 -0.03188
22.35 -0.02674
22.4 -0.01861
22.45 -0.01667
22.5 -0.01774
22.55 -0.0159
22.6 -0.01034
22.65 -0.00698
22.7 -0.00091
22.75 -0.00101
22.8 -0.00234
22.85 -0.00277
22.9 -0.00695
22.95 -0.01092
23 -0.01558
23.05 -0.01889
23.1 -0.01671
23.15 -0.01856
23.2 -0.02013
23.25 -0.017
23.3 -0.01107
23.35 -0.00656
23.4 -0.00089
23.45 -0.00102
23.5 -0.00491
23.55 -0.00317
23.6 -0.00421
23.65 -0.00602
23.7 -0.01
23.75 -0.00785
23.8 -0.00667
23.85 -0.00352
23.9 0.00002
23.95 -0.00131
24 -0.00524
24.05 -0.00964
24.1 -0.01429
24.15 -0.01374
24.2 -0.01106
24.25 -0.01197
24.3 -0.01138
24.35 -0.00633
24.4 0.00175
24.45 0.00401
24.5 0.00158
24.55 0.0015
24.6 -0.00073
24.65 0.00159
24.7 0.00565
24.75 0.00497
24.8 0.00527
24.85 0.00526
24.9 0.00236
24.95 -0.00436
25 -0.00606
25.05 -0.00474
25.1 0.00039
25.15 0.00033
25.2 0.00177
25.25 0.0012
25.3 -0.00007
25.35 0.00118
25.4 -0.00063
25.45 -0.00591
25.5 -0.00691
25.55 -0.00421
25.6 -0.00675
25.65 -0.00776
25.7 -0.00429
25.75 -0.00529
25.8 -0.00369
25.85 -0.00376
25.9 -0.00041
25.95 -0.00015
26 0.00333
26.05 0.0018
26.1 0.00011
26.15 0.00083
26.2 0.00227
26.25 0.00477
26.3 0.00418
26.35 0.00116
26.4 0.00241
26.45 0.00064
26.5 -0.00366
26.55 -0.00771
26.6 -0.00728
26.65 -0.00492
26.7 -0.00302
26.75 -0.00481
26.8 -0.00137
26.85 0.00251
26.9 0.00355
26.95 0.00806
27 0.012
27.05 0.01421
27.1 0.0125
27.15 0.00975
27.2 0.00724
27.25 0.00674
27.3 0.0066
27.35 0.00216
27.4 -0.00323
27.45 -0.0112
27.5 -0.02161
27.55 -0.03382
27.6 -0.0384
27.65 -0.0433
27.7 -0.04513
27.75 -0.04441
27.8 -0.04704
27.85 -0.05433
27.9 -0.06106
27.95 -0.0748
28 -0.09002
28.05 -0.10645
28.1 -0.12419
28.15 -0.15054
28.2 -0.17592
28.25 -0.21029
28.3 -0.24815
28.35 -0.28609
28.4 -0.33022
28.45 -0.37564
28.5 -0.42627
28.55 -0.48519
28.6 -0.54485
28.65 -0.60614
28.7 -0.67672
28.75 -0.74869
28.8 -0.82722
28.85 -0.9049
28.9 -0.98419
28.95 -1.07073
29 -1.16261
29.05 -1.25174
29.1 -1.34409
29.15 -1.43264
29.2 -1.51869
29.25 -1.5991
29.3 -1.6792
29.35 -1.75884
29.4 -1.83502
29.45 -1.902
29.5 -1.96007
29.55 -2.00251
29.6 -2.03657
29.65 -2.0625
29.7 -2.07579
29.75 -2.07545
29.8 -2.06965
29.85 -2.05599
29.9 -2.03218
29.95 -1.99403
30 -1.93736
30.05 -1.86803
30.1 -1.78705
30.15 -1.69662
30.2 -1.59732
30.25 -1.49464
30.3 -1.38114
30.35 -1.26379
30.4 -1.13717
30.45 -1.00562
30.5 -0.87193
30.55 -0.73489
30.6 -0.59387
30.65 -0.45007
30.7 -0.3016
30.75 -0.15641
30.8 -0.01398
30.85 0.13053
30.9 0.2706
30.95 0.40447
31 0.5355
31.05 0.65953
31.1 0.78173
31.15 0.89951
31.2 1.01013
31.25 1.10804
31.3 1.19796
31.35 1.2793
31.4 1.35191
31.45 1.4185
31.5 1.47815
31.55 1.52628
31.6 1.56574
31.65 1.60203
31.7 1.6312
31.75 1.65782
31.8 1.67693
31.85 1.68747
31.9 1.69583
31.95 1.69744
32 1.69896
32.05 1.69915
32.1 1.69924
32.15 1.69854
32.2 1.69683
32.25 1.69611
32.3 1.69028
32.35 1.68057
32.4 1.6755
32.45 1.66606
32.5 1.65268
32.55 1.63687
32.6 1.62055
32.65 1.60918
32.7 1.59552
32.75 1.58554
32.8 1.56768
32.85 1.54659
32.9 1.5298
32.95 1.50972
33 1.48386
33.05 1.45642
33.1 1.42634
33.15 1.39522
33.2 1.3637
33.25 1.33049
33.3 1.29602
33.35 1.26464
33.4 1.2349
33.45 1.20793
33.5 1.17681
33.55 1.14432
33.6 1.11163
33.65 1.07629
33.7 1.04061
33.75 1.00096
33.8 0.96378
33.85 0.92652
33.9 0.8889
33.95 0.85341
34 0.81123
34.05 0.77177
34.1 0.73042
34.15 0.68788
34.2 0.64661
34.25 0.6104
34.3 0.57522
34.35 0.54359
34.4 0.51179
34.45 0.47797
34.5 0.44229
34.55 0.4044
34.6 0.37104
34.65 0.33294
34.7 0.29385
34.75 0.26111
34.8 0.23259
34.85 0.20769
34.9 0.18496
34.95 0.16514
35 0.14318
35.05 0.1211
35.1 0.09939
35.15 0.0714
35.2 0.0485
35.25 0.02202
35.3 -0.00049
35.35 -0.02092
35.4 -0.03727
35.45 -0.05053
35.5 -0.06682
35.55 -0.08565
35.6 -0.1015
35.65 -0.11779
35.7 -0.13079
35.75 -0.14842
35.8 -0.16557
35.85 -0.17743
35.9 -0.18691
35.95 -0.19994
36 -0.21146
36.05 -0.21801
36.1 -0.22174
36.15 -0.22556
36.2 -0.2296
36.25 -0.23415
36.3 -0.24111
36.35 -0.25374
36.4 -0.26838
36.45 -0.28095
36.5 -0.28881
36.55 -0.2931
36.6 -0.2925
36.65 -0.2923
36.7 -0.29024
36.75 -0.29027
36.8 -0.28754
36.85 -0.29123
36.9 -0.29812
36.95 -0.29892
37 -0.29462
37.05 -0.29045
37.1 -0.28793
37.15 -0.28555
37.2 -0.28658
37.25 -0.2857
37.3 -0.29002
37.35 -0.28962
37.4 -0.29148
37.45 -0.29218
37.5 -0.29013
37.55 -0.28979
37.6 -0.2917
37.65 -0.29139
37.7 -0.28964
37.75 -0.2823
37.8 -0.27729
37.85 -0.27711
37.9 -0.27648
37.95 -0.27433
38 -0.26706
38.05 -0.2653
38.1 -0.2629
38.15 -0.25917
38.2 -0.25515
38.25 -0.25179
38.3 -0.2441
38.35 -0.23354
38.4 -0.22797
38.45 -0.22206
38.5 -0.21529
38.55 -0.21267
38.6 -0.21024
38.65 -0.20406
38.7 -0.20267
38.75 -0.20524
38.8 -0.20936
38.85 -0.21142
38.9 -0.20673
38.95 -0.2061
39 -0.20816
39.05 -0.21009
39.1 -0.20802
39.15 -0.19952
39.2 -0.18979
39.25 -0.17788
39.3 -0.16531
39.35 -0.15845
39.4 -0.15437
39.45 -0.14861
39.5 -0.14361
39.55 -0.13995
39.6 -0.13824
39.65 -0.13475
39.7 -0.13842
39.75 -0.13784
39.8 -0.13387
39.85 -0.1321
39.9 -0.13079
39.95 -0.13181
40 -0.13748
40.05 -0.13974
40.1 -0.14235
40.15 -0.13902
40.2 -0.13363
40.25 -0.12851
40.3 -0.12296
40.35 -0.12283
40.4 -0.12628
40.45 -0.12519
40.5 -0.12183
40.55 -0.11497
40.6 -0.11484
40.65 -0.11733
40.7 -0.12246
40.75 -0.12778
40.8 -0.1281
40.85 -0.12945
40.9 -0.12501
40.95 -0.11915
41 -0.11166
41.05 -0.10815
41.1 -0.1005
41.15 -0.09936
41.2 -0.09934
41.25 -0.10164
41.3 -0.10113
41.35 -0.10229
41.4 -0.09776
41.45 -0.09657
41.5 -0.09287
41.55 -0.09175
41.6 -0.08918
41.65 -0.08404
41.7 -0.07738
41.75 -0.07294
41.8 -0.0714
41.85 -0.07399
41.9 -0.0804
41.95 -0.086
42 -0.09067
42.05 -0.09185
42.1 -0.09413
42.15 -0.08926
42.2 -0.08833
42.25 -0.08596
42.3 -0.08017
42.35 -0.07714
42.4 -0.0757
42.45 -0.07756
42.5 -0.07358
42.55 -0.07475
42.6 -0.07071
42.65 -0.06468
42.7 -0.05955
42.75 -0.05156
42.8 -0.04701
42.85 -0.04268
42.9 -0.04079
42.95 -0.04154
43 -0.04438
43.05 -0.04265
43.1 -0.03983
43.15 -0.04301
43.2 -0.04953
43.25 -0.05652
43.3 -0.06215
43.35 -0.06826
43.4 -0.07362
43.45 -0.07774
43.5 -0.07936
43.55 -0.07344
43.6 -0.06374
43.65 -0.05941
43.7 -0.0579
43.75 -0.05953
43.8 -0.05517
43.85 -0.0486
43.9 -0.0421
43.95 -0.03832
44 -0.03161
44.05 -0.032
44.1 -0.03365
44.15 -0.03183
44.2 -0.03517
44.25 -0.03367
44.3 -0.03608
44.35 -0.03392
44.4 -0.0349
44.45 -0.03495
44.5 -0.03946
44.55 -0.04573
44.6 -0.04999
44.65 -0.04964
44.7 -0.05239
44.75 -0.04989
44.8 -0.04935
44.85 -0.05168
44.9 -0.0504
44.95 -0.0462
45 -0.04481
45.05 -0.04583
45.1 -0.04223
45.15 -0.04067
45.2 -0.03996
45.25 -0.04049
45.3 -0.03845
45.35 -0.03237
45.4 -0.02751
45.45 -0.02452
45.5 -0.02207
45.55 -0.02066
45.6 -0.02249
45.65 -0.0217
45.7 -0.02179
45.75 -0.01866
45.8 -0.01218
45.85 -0.01049
45.9 -0.00724
45.95 -0.00166
46 0.00452
46.05 0.00232
46.1 0.00031
46.15 -0.00307
46.2 -0.00889
46.25 -0.01289
46.3 -0.01593
46.35 -0.01587
46.4 -0.01255
46.45 -0.01555
46.5 -0.02039
46.55 -0.02595
46.6 -0.0332
46.65 -0.03836
46.7 -0.04178
46.75 -0.04193
46.8 -0.04032
46.85 -0.03851
46.9 -0.03522
46.95 -0.02943
47 -0.02057
47.05 -0.00985
47.1 -0.00109
47.15 0.00511
47.2 0.00664
47.25 0.00791
47.3 0.00795
47.35 0.00792
47.4 0.00411
47.45 0.00018
47.5 -0.00232
47.55 -0.0094
47.6 -0.01401
47.65 -0.01926
47.7 -0.02159
47.75 -0.02471
47.8 -0.02192
47.85 -0.01476
47.9 -0.01105
47.95 -0.01326
48 -0.01128
48.05 -0.00584
48.1 0.00029
48.15 -0.00019
48.2 -0.00009
48.25 -0.00548
48.3 -0.00632
48.35 -0.01063
48.4 -0.00928
48.45 -0.00793
48.5 -0.00449
48.55 -0.0035
48.6 0.00014
48.65 0.00038
48.7 -0.00344
48.75 -0.00792
48.8 -0.00878
48.85 -0.01242
48.9 -0.01036
48.95 -0.01345
49 -0.01674
49.05 -0.01797
49.1 -0.01845
49.15 -0.01979
49.2 -0.01637
49.25 -0.01701
49.3 -0.01832
49.35 -0.01472
49.4 -0.01571
49.45 -0.01518
49.5 -0.01331
49.55 -0.01159
49.6 -0.00888
49.65 -0.00687
49.7 -0.0047
49.75 -0.0025
49.8 0.00083
49.85 -0.00089
49.9 -0.00079
49.95 0.00221
50 -0.00027
50.05 0.00019
50.1 -0.00291
50.15 -0.00861
50.2 -0.01467
50.25 -0.01338
50.3 -0.01207
50.35 -0.0075
50.4 -0.00151
50.45 0.00619
50.5 0.0141
50.55 0.01767
50.6 0.01403
50.65 0.00719
50.7 0.00644
50.75 0.00027
50.8 0.00041
50.85 0.00068
50.9 0.00313
50.95 0.00752
51 0.00857
51.05 0.00837
51.1 0.00794
51.15 0.00696
51.2 0.007
51.25 0.00441
51.3 0.00599
51.35 0.00435
51.4 0.00137
51.45 0.00152
51.5 -0.0018
51.55 -0.00678
51.6 -0.00593
51.65 -0.01
51.7 -0.00801
51.75 -0.00903
51.8 -0.01347
51.85 -0.01648
51.9 -0.01724
51.95 -0.01398
52 -0.01093
52.05 -0.01082
52.1 -0.00597
52.15 -0.00536
52.2 -0.00571
52.25 -0.00715
52.3 -0.01236
52.35 -0.01307
52.4 -0.00992
52.45 -0.00991
52.5 -0.01118
52.55 -0.00982
52.6 -0.01015
52.65 -0.00892
52.7 -0.00688
52.75 -0.00117
52.8 0.00551
52.85 0.00742
52.9 0.00883
52.95 0.01027
53 0.01339
53.05 0.01088
53.1 0.01068
53.15 0.00492
53.2 -0.00273
53.25 -0.01094
53.3 -0.01458
53.35 -0.01257
53.4 -0.00935
53.45 -0.01128
53.5 -0.01542
53.55 -0.01603
53.6 -0.01943
53.65 -0.01775
53.7 -0.01125
53.75 -0.00826
53.8 -0.00598
53.85 -0.00405
53.9 0.00169
53.95 0.00185
54 0.00524
54.05 0.00996
54.1 0.00836
54.15 0.00551
54.2 -0.00002
54.25 -0.00311
54.3 -0.00267
54.35 0.00108
54.4 0.00737
54.45 0.0074
54.5 0.01053
54.55 0.01401
54.6 0.01597
54.65 0.01097
54.7 0.00959
54.75 0.0081
54.8 0.01045
54.85 0.01212
54.9 0.00768
54.95 0.00203
55 0.00232
55.05 -0.0002
55.1 -0.0069
55.15 -0.01421
55.2 -0.02092
55.25 -0.02233
55.3 -0.02468
55.35 -0.02131
55.4 -0.01792
55.45 -0.01322
55.5 -0.00796
55.55 -0.00508
55.6 -0.00203
55.65 0.00117
55.7 -0.00067
55.75 -0.00415
55.8 -0.0107
55.85 -0.01215
55.9 -0.00837
55.95 -0.00656
56 -0.00197
56.05 -0.00217
56.1 -0.0052
56.15 -0.00967
56.2 -0.00901
56.25 -0.00482
56.3 -0.00367
56.35 -0.00434
56.4 -0.00429
56.45 -0.00174
56.5 0.00397
56.55 0.01147
56.6 0.01253
56.65 0.01235
56.7 0.00659
56.75 0.00493
56.8 0.00631
56.85 0.00292
56.9 0.00036
56.95 0.00293
57 0.00433
57.05 0.00249
57.1 -0.00029
57.15 0.00223
57.2 0.00355
57.25 0.00104
57.3 0.00162
57.35 0.00521
57.4 0.00426
57.45 -0.00108
57.5 -0.00591
57.55 -0.00444
57.6 -0.00398
57.65 -0.00522
57.7 -0.00504
57.75 -0.00385
57.8 -0.00171
57.85 0.00222
57.9 0.00375
57.95 0.00006
58 -0.00577
58.05 -0.00623
58.1 -0.01039
58.15 -0.01385
58.2 -0.01967
58.25 -0.025
58.3 -0.02443
58.35 -0.0216
58.4 -0.01507
58.45 -0.0139
58.5 -0.01076
58.55 -0.00903
58.6 -0.00262
58.65 0.00529
58.7 0.0068
58.75 0.00707
58.8 0.0108
58.85 0.01112
58.9 0.00797
58.95 0.00985
59 0.01046
59.05 0.00624
59.1 0.00745
59.15 0.00584
59.2 0.0025
59.25 0.00126
59.3 -0.00395
59.35 -0.00466
59.4 -0.00557
59.45 -0.0054
59.5 -0.00503
59.55 -0.002
59.6 -0.00062
59.65 -0.00439
59.7 -0.00768
59.75 -0.00985
59.8 -0.01504
59.85 -0.01457
59.9 -0.00957
59.95 -0.0038
60 -0.00398
60.05 0.0004
60.1 0.00641
60.15 0.01275
60.2 0.01886
60.25 0.02064
60.3 0.01889
60.35 0.01576
60.4 0.01586
60.45 0.01535
60.5 0.00887
60.55 0.00333
60.6 -0.00237
60.65 -0.004
60.7 -0.00442
60.75 -0.00297
60.8 -0.00426
60.85 -0.00385
60.9 -0.00192
60.95 0.00289
61 0.00577
61.05 0.00775
61.1 0.0036
61.15 -0.00255
61.2 -0.00384
61.25 -0.008
61.3 -0.00585
61.35 -0.00652
61.4 -0.00244
61.45 0.00218
61.5 0.00637
61.55 0.00698
61.6 0.00883
61.65 0.0049
61.7 0.00495
61.75 0.00035
61.8 -0.00344
61.85 -0.00768
61.9 -0.01096
61.95 -0.01399
62 -0.01917
62.05 -0.02304
62.1 -0.02531
62.15 -0.02571
62.2 -0.02742
62.25 -0.02926
62.3 -0.02894
62.35 -0.02295
62.4 -0.01982
62.45 -0.01919
62.5 -0.02171
62.55 -0.0252
62.6 -0.02277
62.65 -0.01803
62.7 -0.01564
62.75 -0.01276
62.8 -0.01346
62.85 -0.01052
62.9 -0.00915
62.95 -0.0055
63 -0.0014
63.05 0.00549
63.1 0.0125
63.15 0.01708
63.2 0.02229
63.25 0.02809
63.3 0.03257
63.35 0.02836
63.4 0.02258
63.45 0.01408
63.5 0.00925
63.55 0.0073
63.6 0.00405
63.65 0.00336
63.7 0.00146
63.75 0.00229
63.8 0.00201
63.85 0.00439
63.9 0.00275
63.95 -0.00178
64 -0.00437
64.05 -0.00435
64.1 -0.00826
64.15 -0.01309
64.2 -0.0113
64.25 -0.01121
64.3 -0.00761
64.35 -0.00782
64.4 -0.00377
64.45 -0.00158
64.5 -0.00428
64.55 -0.00515
64.6 -0.00606
64.65 -0.00262
64.7 0.00422
64.75 0.00904
64.8 0.00816
64.85 0.00245
64.9 0.00298
64.95 -0.00058
65 0.00143
65.05 0.00388
65.1 0.00161
65.15 0.00451
65.2 0.00485
65.25 0.00746
65.3 0.00665
65.35 0.00809
65.4 0.00993
65.45 0.00865
65.5 0.00355
65.55 -0.00438
65.6 -0.01171
65.65 -0.01968
65.7 -0.02738
65.75 -0.02891
65.8 -0.02645
65.85 -0.02577
65.9 -0.02411
65.95 -0.02367
66 -0.02295
66.05 -0.01863
66.1 -0.014
66.15 -0.00582
66.2 0.00368
66.25 0.0135
66.3 0.01968
66.35 0.01834
66.4 0.02086
66.45 0.02176
66.5 0.02496
66.55 0.02888
66.6 0.02583
66.65 0.02244
66.7 0.01885
66.75 0.01108
66.8 0.0039
66.85 0.00072
66.9 0.00111
66.95 -0.00131
67 -0.00291
67.05 -0.00763
67.1 -0.01354
67.15 -0.01825
67.2 -0.01606
67.25 -0.0111
67.3 -0.00353
67.35 0.00454
67.4 0.0087
67.45 0.01491
67.5 0.01613
67.55 0.01566
67.6 0.01811
67.65 0.01853
67.7 0.01272
67.75 0.00968
67.8 0.00832
67.85 0.00936
67.9 0.01234
67.95 0.01083
68 0.01171
68.05 0.01574
68.1 0.02123
68.15 0.01865
68.2 0.01907
68.25 0.01376
68.3 0.00847
68.35 0.00488
68.4 -0.00066
68.45 -0.00046
68.5 -0.00003
68.55 -0.00062
68.6 -0.00336
68.65 -0.00101
68.7 0.00114
68.75 0.00061
68.8 -0.00075
68.85 -0.0053
68.9 -0.00821
68.95 -0.00794
69 -0.00991
69.05 -0.00622
69.1 -0.00179
69.15 0.00156
69.2 0.00041
69.25 0.00227
69.3 -0.00043
69.35 -0.00265
69.4 -0.00322
69.45 -0.00464
69.5 -0.00259
69.55 -0.00098
69.6 0.00046
69.65 -0.00356
69.7 -0.00405
69.75 -0.00493
69.8 -0.00397
69.85 -0.00169
69.9 -0.00413
69.95 -0.00204
70 -0.00538
70.05 -0.00862
70.1 -0.00921
70.15 -0.00657
70.2 -0.00028
70.25 0.00625
70.3 0.00661
70.35 0.01053
70.4 0.01039
70.45 0.01245
70.5 0.01426
70.55 0.0124
70.6 0.01134
70.65 0.0124
70.7 0.01628
70.75 0.01584
70.8 0.01456
70.85 0.01098
70.9 0.0043
70.95 -0.00005
71 -0.00638
71.05 -0.00744
71.1 -0.00363
71.15 0.00262
71.2 0.00698
71.25 0.00986
71.3 0.0136
71.35 0.01339
71.4 0.01346
71.45 0.01017
71.5 0.00962
71.55 0.01097
71.6 0.00975
71.65 0.00412
71.7 -0.00412
71.75 -0.01154
71.8 -0.01141
71.85 -0.01345
71.9 -0.01034
71.95 -0.01227
72 -0.01687
72.05 -0.01482
72.1 -0.01589
72.15 -0.01906
72.2 -0.02425
72.25 -0.02668
72.3 -0.02962
72.35 -0.02847
72.4 -0.02316
72.45 -0.01426
72.5 -0.01166
72.55 -0.01058
72.6 -0.01294
72.65 -0.01288
72.7 -0.00793
72.75 -0.00492
72.8 -0.0008
72.85 0.00514
72.9 0.00902
72.95 0.01135
73 0.01333
73.05 0.01184
73.1 0.00898
73.15 0.00612
73.2 0.00614
73.25 0.00895
73.3 0.01443
73.35 0.01942
73.4 0.02117
73.45 0.01932
73.5 0.01593
73.55 0.01393
73.6 0.01381
73.65 0.01173
73.7 0.0106
73.75 0.01277
73.8 0.01236
73.85 0.00736
73.9 0.00487
73.95 0.00679
74 0.0037
74.05 0.00249
74.1 0.00079
74.15 0.00256
74.2 0.00114
74.25 -0.00275
74.3 -0.00607
74.35 -0.00443
74.4 -0.00513
74.45 -0.00975
74.5 -0.01125
74.55 -0.0096
74.6 -0.01066
74.65 -0.01437
74.7 -0.01894
74.75 -0.02305
74.8 -0.01948
74.85 -0.01821
74.9 -0.01449
74.95 -0.01552
75 -0.01701
75.05 -0.01951
75.1 -0.01558
75.15 -0.01075
75.2 -0.01023
75.25 -0.0106
75.3 -0.00932
75.35 -0.00672
75.4 -0.00803
75.45 -0.00921
75.5 -0.0136
75.55 -0.01992
75.6 -0.0212
75.65 -0.01895
75.7 -0.01136
75.75 -0.0052
75.8 0.0036
75.85 0.00557
75.9 0.0068
75.95 0.01023
76 0.0089
76.05 0.00498
76.1 -0.00058
76.15 -0.00148
76.2 0.00277
76.25 0.00234
76.3 0.0036
76.35 0.00863
76.4 0.00706
76.45 0.00737
76.5 0.01067
76.55 0.01654
76.6 0.02237
76.65 0.02553
76.7 0.02502
76.75 0.02521
76.8 0.02477
76.85 0.02169
76.9 0.01926
76.95 0.01891
77 0.02064
77.05 0.01686
77.1 0.01107
77.15 0.01025
77.2 0.008
77.25 0.00974
77.3 0.01249
77.35 0.01218
77.4 0.00582
77.45 0.00011
77.5 -0.00759
77.55 -0.00929
77.6 -0.0127
77.65 -0.01065
77.7 -0.00754
77.75 -0.0069
77.8 -0.00381
77.85 -0.00098
77.9 -0.00192
77.95 -0.00048
78 0.00213
78.05 0.00238
78.1 0.00658
78.15 0.01093
78.2 0.00844
78.25 0.00626
78.3 0.00448
78.35 -0.0004
78.4 -0.00815
78.45 -0.01025
78.5 -0.01536
78.55 -0.02235
78.6 -0.02877
78.65 -0.03317
78.7 -0.03664
78.75 -0.03334
78.8 -0.0274
78.85 -0.02228
78.9 -0.01731
78.95 -0.01354
79 -0.00871
79.05 -0.00732
79.1 -0.00566
79.15 -0.00135
79.2 -0.00091
79.25 0.00114
79.3 0.00417
79.35 0.00344
79.4 0.00705
79.45 0.00838
79.5 0.00708
79.55 0.00486
79.6 -0.00113
79.65 -0.00426
79.7 -0.00807
79.75 -0.0104
79.8 -0.01495
79.85 -0.0176
79.9 -0.02039
79.95 -0.01598
80 -0.00919
80.05 -0.00794
80.1 -0.00656
80.15 -0.00366
80.2 0.00089
80.25 -0.00033
80.3 0.00262
80.35 0.00763
80.4 0.00851
80.45 0.0083
80.5 0.00365
80.55 0.00345
80.6 0.00208
80.65 0.00086
80.7 0.00149
80.75 0.00637
80.8 0.01083
80.85 0.01701
80.9 0.0214
80.95 0.02297
81 0.02102
81.05 0.02155
81.1 0.02028
81.15 0.02149
81.2 0.02453
81.25 0.0278
81.3 0.03012
81.35 0.02666
81.4 0.02649
81.45 0.02401
81.5 0.02248
81.55 0.02248
81.6 0.01756
81.65 0.01536
81.7 0.01563
81.75 0.01705
81.8 0.01735
81.85 0.0161
81.9 0.01748
81.95 0.01533
82 0.01279
82.05 0.00777
82.1 0.00209
82.15 -0.00506
82.2 -0.01333
82.25 -0.01996
82.3 -0.02676
82.35 -0.02725
82.4 -0.02189
82.45 -0.01337
82.5 -0.00673
82.55 -0.00199
82.6 -0.00251
82.65 0.00112
82.7 0.00116
82.75 -0.00124
82.8 -0.00624
82.85 -0.01115
82.9 -0.01623
82.95 -0.02148
83 -0.02315
83.05 -0.02253
83.1 -0.02103
83.15 -0.01739
83.2 -0.01215
83.25 -0.0045
83.3 0.00472
83.35 0.01375
83.4 0.01497
83.45 0.0154
83.5 0.01428
83.55 0.01222
83.6 0.00814
83.65 0.00123
83.7 -0.00406
83.75 -0.00727
83.8 -0.00917
83.85 -0.01152
83.9 -0.01058
83.95 -0.00678
84 -0.00872
84.05 -0.01056
84.1 -0.0142
84.15 -0.01857
84.2 -0.01669
84.25 -0.01787
84.3 -0.01655
84.35 -0.0146
84.4 -0.01563
84.45 -0.0194
84.5 -0.02397
84.55 -0.02557
84.6 -0.02747
84.65 -0.02308
84.7 -0.01567
84.75 -0.01296
84.8 -0.00654
84.85 -0.00395
84.9 -0.00261
84.95 -0.00016
85 -0.00264
85.05 -0.00673
85.1 -0.00809
85.15 -0.00968
85.2 -0.00736
85.25 -0.00079
85.3 0.00458
85.35 0.00608
85.4 0.00731
85.45 0.01138
85.5 0.00946
85.55 0.01032
85.6 0.01442
85.65 0.019
85.7 0.01595
85.75 0.01524
85.8 0.00932
85.85 0.00815
85.9 0.00237
85.95 0.00265
86 0.00526
86.05 0.00926
86.1 0.00817
86.15 0.0075
86.2 0.00533
86.25 0.00648
86.3 0.00867
86.35 0.00745
86.4 0.00669
86.45 0.00506
86.5 -0.00031
86.55 -0.00526
86.6 -0.00868
86.65 -0.01089
86.7 -0.00872
86.75 -0.00732
86.8 -0.0058
86.85 -0.00627
86.9 -0.00759
86.95 -0.0081
87 -0.00505
87.05 -0.00224
87.1 -0.005
87.15 -0.01066
87.2 -0.0101
87.25 -0.0097
87.3 -0.01186
87.35 -0.00933
87.4 -0.01126
87.45 -0.01269
87.5 -0.01645
87.55 -0.01508
87.6 -0.01214
87.65 -0.0114
87.7 -0.01169
87.75 -0.00904
87.8 -0.01053
87.85 -0.00879
87.9 -0.00836
87.95 -0.00733
88 -0.00512
88.05 -0.00642
88.1 -0.00701
88.15 -0.00679
88.2 -0.00894
88.25 -0.01259
88.3 -0.01626
88.35 -0.01709
88.4 -0.01386
88.45 -0.01081
88.5 -0.00599
88.55 0.00115
88.6 0.00137
88.65 0.00478
88.7 0.00295
88.75 0.00085
88.8 -0.00074
88.85 -0.00143
88.9 -0.0046
88.95 -0.00939
89 -0.00939
89.05 -0.00543
89.1 0.00015
89.15 0.00779
89.2 0.01663
89.25 0.02469
89.3 0.02405
89.35 0.02411
89.4 0.02145
89.45 0.01349
89.5 0.00875
89.55 0.00137
89.6 0.00002
89.65 -0.00056
89.7 -0.00227
89.75 -0.00428
89.8 -0.00503
89.85 -0.00383
89.9 -0.00006
89.95 -0.00035
90 0.00265
90.05 0.0069
90.1 0.01149
90.15 0.01335
90.2 0.0089
90.25 0.00349
90.3 0.00167
90.35 0.00081
90.4 -0.00418
90.45 -0.00874
90.5 -0.00904
90.55 -0.01008
90.6 -0.00705
90.65 -0.00447
90.7 -0.00659
90.75 -0.00367
90.8 0.00292
90.85 0.00987
90.9 0.01199
90.95 0.01136
91 0.01354
91.05 0.01321
91.1 0.01364
91.15 0.01266
91.2 0.01525
91.25 0.01423
91.3 0.00828
91.35 0.00123
91.4 -0.00053
91.45 -0.00227
91.5 -0.00617
91.55 -0.00824
91.6 -0.00546
91.65 -0.00544
91.7 -0.00397
91.75 0.00072
91.8 -0.00102
91.85 0.00114
91.9 0.00187
91.95 0.00201
92 0.0008
92.05 0.00357
92.1 0.0095
92.15 0.01054
92.2 0.00878
92.25 0.00815
92.3 0.00721
92.35 0.00485
92.4 -0.00181
92.45 -0.00867
92.5 -0.01341
92.55 -0.01178
92.6 -0.01026
92.65 -0.00868
92.7 -0.00294
92.75 -0.00376
92.8 -0.00174
92.85 0.00184
92.9 0.00471
92.95 0.00548
93 0.00743
93.05 0.01089
93.1 0.00938
93.15 0.01121
93.2 0.01583
93.25 0.01848
93.3 0.01656
93.35 0.01418
93.4 0.01296
93.45 0.0078
93.5 0.00156
93.55 -0.00473
93.6 -0.01181
93.65 -0.01779
93.7 -0.01726
93.75 -0.01787
93.8 -0.01751
93.85 -0.02009
93.9 -0.01567
93.95 -0.01224
94 -0.0128
94.05 -0.00992
94.1 -0.00423
94.15 -0.0027
94.2 -0.00373
94.25 -0.00175
94.3 0.00279
94.35 0.00448
94.4 0.00307
94.45 0.00426
94.5 0.00006
94.55 -0.00709
94.6 -0.01149
94.65 -0.01814
94.7 -0.01619
94.75 -0.01638
94.8 -0.01874
94.85 -0.0219
94.9 -0.0251
94.95 -0.02103
95 -0.01926
95.05 -0.01513
95.1 -0.00993
95.15 -0.01011
95.2 -0.01043
95.25 -0.00596
95.3 -0.00123
95.35 0.00485
95.4 0.00463
95.45 0.00312
95.5 0.00243
95.55 0.00328
95.6 0.00066
95.65 -0.00334
95.7 -0.00625
95.75 -0.00475
95.8 -0.00568
95.85 -0.00737
95.9 -0.00585
95.95 -0.00511
96 -0.00849
96.05 -0.00839
96.1 -0.00809
96.15 -0.00715
96.2 -0.00638
96.25 -0.00967
96.3 -0.00856
96.35 -0.00711
96.4 -0.00961
96.45 -0.01235
96.5 -0.01322
96.55 -0.01405
96.6 -0.01031
96.65 -0.00961
96.7 -0.00416
96.75 -0.00439
96.8 -0.00612
96.85 -0.00802
96.9 -0.00489
96.95 -0.00448
97 -0.00318
97.05 -0.00391
97.1 0.00073
97.15 0.00612
97.2 0.0107
97.25 0.01611
97.3 0.01645
97.35 0.01757
97.4 0.01387
97.45 0.00945
97.5 0.0082
97.55 0.00766
97.6 0.00438
97.65 -0.00226
97.7 -0.00323
97.75 -0.0014
97.8 -0.00435
97.85 -0.00427
97.9 -0.00278
97.95 -0.0052
98 -0.00521
98.05 -0.0088
98.1 -0.01436
98.15 -0.01757
98.2 -0.02111
98.25 -0.01883
98.3 -0.01771
98.35 -0.0162
98.4 -0.01554
98.45 -0.01642
98.5 -0.0145
98.55 -0.01243
98.6 -0.00877
98.65 -0.00886
98.7 -0.011
98.75 -0.01222
98.8 -0.01314
98.85 -0.01635
98.9 -0.01751
98.95 -0.01942
99 -0.01416
99.05 -0.01237
99.1 -0.01002
99.15 -0.00785
99.2 -0.00375
99.25 0.00024
99.3 0.00146
99.35 0.00098
99.4 0.00335
99.45 0.00587
99.5 0.01136
99.55 0.01214
99.6 0.00845
99.65 0.00286
99.7 0.00089
99.75 0.0004
99.8 0.00089
99.85 0.00322
99.9 0.00497
99.95 0.00744
