0 0
0.05 0.00015
0.1 0.00958
0.15 0.01812
0.2 0.02846
0.25 0.03266
0.3 0.04042
0.35 0.04453
0.4 0.04504
0.45 0.04809
0.5 0.05002
0.55 0.04893
0.6 0.05061
0.65 0.05408
0.7 0.05382
0.75 0.0512
0.8 0.05287
0.85 0.05744
0.9 0.05618
0.95 0.05914
1 0.05512
1.05 0.05521
1.1 0.05125
1.15 0.04452
1.2 0.04005
1.25 0.03453
1.3 0.03353
1.35 0.02888
1.4 0.02305
1.45 0.01756
1.5 0.01789
1.55 0.02037
1.6 0.02361
1.65 0.02685
1.7 0.03009
1.75 0.03249
1.8 0.03745
1.85 0.03667
1.9 0.03966
1.95 0.04507
2 0.0479
2.05 0.05286
2.1 0.05336
2.15 0.05178
2.2 0.05234
2.25 0.04763
2.3 0.03942
2.35 0.03539
2.4 0.0318
2.45 0.02528
2.5 0.02322
2.55 0.02001
2.6 0.01391
2.65 0.00818
2.7 0.00366
2.75 -0.00017
2.8 0.00104
2.85 0.00795
2.9 0.01493
2.95 0.02212
3 0.03132
3.05 0.0345
3.1 0.03882
3.15 0.038
3.2 0.0356
3.25 0.03401
3.3 0.03457
3.35 0.03431
3.4 0.03531
3.45 0.03005
3.5 0.02792
3.55 0.02497
3.6 0.01849
3.65 0.01507
3.7 0.01684
3.75 0.01705
3.8 0.01664
3.85 0.01293
3.9 0.00914
3.95 0.00795
4 0.00388
4.05 -0.0006
4.1 -0.00186
4.15 0.0011
4.2 -0.0001
4.25 0.00315
4.3 0.00175
4.35 0.00373
4.4 0.00608
4.45 0.00839
4.5 0.00364
4.55 -0.00372
4.6 -0.01265
4.65 -0.02324
4.7 -0.0374
4.75 -0.05227
4.8 -0.07714
4.85 -0.1062
4.9 -0.14036
4.95 -0.1813
5 -0.22642
5.05 -0.27779
5.1 -0.32929
5.15 -0.38147
5.2 -0.43439
5.25 -0.49308
5.3 -0.55564
5.35 -0.62402
5.4 -0.70253
5.45 -0.78174
5.5 -0.8609
5.55 -0.94256
5.6 -1.02262
5.65 -1.10272
5.7 -1.17952
5.75 -1.25982
5.8 -1.33965
5.85 -1.41401
5.9 -1.48526
5.95 -1.5442
6 -1.59705
6.05 -1.64278
6.1 -1.68009
6.15 -1.70994
6.2 -1.73694
6.25 -1.76059
6.3 -1.77925
6.35 -1.78614
6.4 -1.78292
6.45 -1.77025
6.5 -1.74741
6.55 -1.71727
6.6 -1.68303
6.65 -1.64234
6.7 -1.59734
6.75 -1.54409
6.8 -1.48298
6.85 -1.41365
6.9 -1.33182
6.95 -1.23375
7 -1.12276
7.05 -1.00435
7.1 -0.87945
7.15 -0.7469
7.2 -0.60616
7.25 -0.46254
7.3 -0.3201
7.35 -0.17494
7.4 -0.02838
7.45 0.11308
7.5 0.25551
7.55 0.39806
7.6 0.53278
7.65 0.66542
7.7 0.78658
7.75 0.90028
7.8 1.00569
7.85 1.10352
7.9 1.19794
7.95 1.28041
8 1.35816
8.05 1.42227
8.1 1.47743
8.15 1.52442
8.2 1.56619
8.25 1.59847
8.3 1.62187
8.35 1.63993
8.4 1.65267
8.45 1.65674
8.5 1.6606
8.55 1.66237
8.6 1.65764
8.65 1.65539
8.7 1.64482
8.75 1.63506
8.8 1.62392
8.85 1.60472
8.9 1.58277
8.95 1.56399
9 1.54654
9.05 1.52582
9.1 1.50252
9.15 1.47533
9.2 1.44661
9.25 1.41634
9.3 1.38658
9.35 1.35757
9.4 1.33114
9.45 1.30626
9.5 1.27486
9.55 1.24259
9.6 1.21465
9.65 1.19028
9.7 1.16
9.75 1.12904
9.8 1.09865
9.85 1.06724
9.9 1.0393
9.95 1.00615
10 0.9742
10.05 0.94292
10.1 0.91226
10.15 0.88536
10.2 0.85597
10.25 0.82884
10.3 0.79521
10.35 0.76153
10.4 0.72776
10.45 0.69277
10.5 0.65492
10.55 0.61745
10.6 0.58221
10.65 0.55249
10.7 0.52167
10.75 0.4967
10.8 0.46991
10.85 0.43842
10.9 0.40733
10.95 0.37777
11 0.35232
11.05 0.3286
11.1 0.30697
11.15 0.28398
11.2 0.26024
11.25 0.23663
11.3 0.20926
11.35 0.17919
11.4 0.14914
11.45 0.12623
11.5 0.10517
11.55 0.08822
11.6 0.06459
11.65 0.04205
11.7 0.02336
11.75 0.00804
11.8 -0.01165
11.85 -0.03558
11.9 -0.05355
11.95 -0.06882
12 -0.08592
12.05 -0.09767
12.1 -0.11223
12.15 -0.12937
12.2 -0.14775
12.25 -0.16645
12.3 -0.18264
12.35 -0.19563
12.4 -0.20674
12.45 -0.21759
12.5 -0.23003
12.55 -0.24267
12.6 -0.25072
12.65 -0.25133
12.7 -0.25487
12.75 -0.25982
12.8 -0.26286
12.85 -0.26889
12.9 -0.27291
12.95 -0.27529
13 -0.28047
13.05 -0.28413
13.1 -0.28248
13.15 -0.28151
13.2 -0.27895
13.25 -0.27361
13.3 -0.27068
13.35 -0.26907
13.4 -0.26609
13.45 -0.26493
13.5 -0.26645
13.55 -0.26916
13.6 -0.27081
13.65 -0.26742
13.7 -0.26299
13.75 -0.26056
13.8 -0.25845
13.85 -0.25225
13.9 -0.24718
13.95 -0.24282
14 -0.24252
14.05 -0.23669
14.1 -0.23626
14.15 -0.23406
14.2 -0.23596
14.25 -0.23629
14.3 -0.23089
14.35 -0.22551
14.4 -0.21582
14.45 -0.20447
14.5 -0.19842
14.55 -0.19696
14.6 -0.19746
14.65 -0.19356
14.7 -0.19157
14.75 -0.19254
14.8 -0.19175
14.85 -0.18933
14.9 -0.19043
14.95 -0.19065
15 -0.18496
15.05 -0.1843
15.1 -0.17915
15.15 -0.17167
15.2 -0.1668
15.25 -0.16399
15.3 -0.16457
15.35 -0.16658
15.4 -0.16909
15.45 -0.1649
15.5 -0.15841
15.55 -0.14872
15.6 -0.14471
15.65 -0.14296
15.7 -0.14599
15.75 -0.14253
15.8 -0.14319
15.85 -0.14376
15.9 -0.14414
15.95 -0.14728
16 -0.14589
16.05 -0.14671
16.1 -0.14661
16.15 -0.14599
16.2 -0.14224
16.25 -0.13693
16.3 -0.13082
16.35 -0.12073
16.4 -0.11095
16.45 -0.10815
16.5 -0.1073
16.55 -0.10177
16.6 -0.09498
16.65 -0.09108
16.7 -0.08476
16.75 -0.08088
16.8 -0.07577
16.85 -0.07849
16.9 -0.07787
16.95 -0.07954
17 -0.08294
17.05 -0.08103
17.1 -0.08482
17.15 -0.08599
17.2 -0.08284
17.25 -0.08426
17.3 -0.08065
17.35 -0.07553
17.4 -0.07369
17.45 -0.07497
17.5 -0.0727
17.55 -0.07005
17.6 -0.06752
17.65 -0.06529
17.7 -0.06622
17.75 -0.07133
17.8 -0.07168
17.85 -0.07024
17.9 -0.06737
17.95 -0.06554
18 -0.0659
18.05 -0.06528
18.1 -0.06469
18.15 -0.06481
18.2 -0.06055
18.25 -0.05812
18.3 -0.05438
18.35 -0.0543
18.4 -0.05246
18.45 -0.05355
18.5 -0.05724
18.55 -0.0599
18.6 -0.06405
18.65 -0.06573
18.7 -0.06554
18.75 -0.0691
18.8 -0.06601
18.85 -0.06178
18.9 -0.05567
18.95 -0.05461
19 -0.05292
19.05 -0.04951
19.1 -0.04454
19.15 -0.03941
19.2 -0.03698
19.25 -0.03616
19.3 -0.03844
19.35 -0.04391
19.4 -0.04426
19.45 -0.04572
19.5 -0.05009
19.55 -0.04904
19.6 -0.04454
19.65 -0.03937
19.7 -0.03802
19.75 -0.04088
19.8 -0.03892
19.85 -0.03442
19.9 -0.03163
19.95 -0.03315
20 -0.03231
20.05 -0.0316
20.1 -0.0303
20.15 -0.03245
20.2 -0.0309
20.25 -0.02649
20.3 -0.02455
20.35 -0.02701
20.4 -0.02868
20.45 -0.03306
20.5 -0.03294
20.55 -0.03032
20.6 -0.02511
20.65 -0.02357
20.7 -0.02486
20.75 -0.02781
20.8 -0.0263
20.85 -0.02659
20.9 -0.0265
20.95 -0.02626
21 -0.02572
21.05 -0.02132
21.1 -0.02175
21.15 -0.02197
21.2 -0.0234
21.25 -0.02581
21.3 -0.02289
21.35 -0.02558
21.4 -0.02935
21.45 -0.03541
21.5 -0.03566
21.55 -0.03139
21.6 -0.03241
21.65 -0.03647
21.7 -0.03933
21.75 -0.03722
21.8 -0.03296
21.85 -0.03119
21.9 -0.0324
21.95 -0.03396
22 -0.02931
22.05 -0.02889
22.1 -0.02432
22.15 -0.02103
22.2 -0.0235
22.25 -0.02346
22.3 -0.02516
22.35 -0.02183
22.4 -0.01503
22.45 -0.00861
22.5 -0.00361
22.55 0.00049
22.6 0.00257
22.65 0.00359
22.7 0.00049
22.75 0.00103
22.8 -0.00352
22.85 -0.01019
22.9 -0.01081
22.95 -0.01537
23 -0.02048
23.05 -0.02305
23.1 -0.02089
23.15 -0.01844
23.2 -0.02038
23.25 -0.0171
23.3 -0.01052
23.35 -0.00377
23.4 0.00352
23.45 0.00373
23.5 0.00024
23.55 -0.00796
23.6 -0.00952
23.65 -0.00946
23.7 -0.01057
23.75 -0.01566
23.8 -0.01491
23.85 -0.01829
23.9 -0.02392
23.95 -0.03
24 -0.03092
24.05 -0.03459
24.1 -0.03609
24.15 -0.03595
24.2 -0.03803
24.25 -0.03686
24.3 -0.03568
24.35 -0.02887
24.4 -0.02607
24.45 -0.02547
24.5 -0.02316
24.55 -0.02194
24.6 -0.02408
24.65 -0.0232
24.7 -0.02178
24.75 -0.01774
24.8 -0.01362
24.85 -0.00634
24.9 0.00234
24.95 0.00638
25 0.01143
25.05 0.01658
25.1 0.01718
25.15 0.01288
25.2 0.00943
25.25 0.01029
25.3 0.00463
25.35 0.00465
25.4 0.00138
25.45 -0.00103
25.5 -0.00465
25.55 -0.01118
25.6 -0.01558
25.65 -0.01943
25.7 -0.01712
25.75 -0.0108
25.8 -0.00525
25.85 0.0007
25.9 0.00082
25.95 0.00228
26 -0.00069
26.05 -0.00243
26.1 -0.00669
26.15 -0.00936
26.2 -0.00715
26.25 -0.00834
26.3 -0.00575
26.35 -0.00407
26.4 -0.00176
26.45 0.0012
26.5 0.00294
26.55 0.00659
26.6 0.01005
26.65 0.00845
26.7 0.00995
26.75 0.00748
26.8 0.00582
26.85 0.0081
26.9 0.0122
26.95 0.01542
27 0.01926
27.05 0.01572
27.1 0.00868
27.15 0.00221
27.2 -0.00581
27.25 -0.01411
27.3 -0.02047
27.35 -0.02129
27.4 -0.01632
27.45 -0.01612
27.5 -0.01915
27.55 -0.02169
27.6 -0.02593
27.65 -0.02504
27.7 -0.02253
27.75 -0.0165
27.8 -0.01674
27.85 -0.01472
27.9 -0.01066
27.95 -0.0135
28 -0.01511
28.05 -0.02111
28.1 -0.0313
28.15 -0.03779
28.2 -0.04372
28.25 -0.05379
28.3 -0.06006
28.35 -0.06956
28.4 -0.07807
28.45 -0.08327
28.5 -0.09388
28.55 -0.10812
28.6 -0.12218
28.65 -0.13642
28.7 -0.15391
28.75 -0.17581
28.8 -0.19989
28.85 -0.22352
28.9 -0.24842
28.95 -0.27925
29 -0.31365
29.05 -0.34748
29.1 -0.38463
29.15 -0.42092
29.2 -0.46038
29.25 -0.50548
29.3 -0.55018
29.35 -0.59339
29.4 -0.63487
29.45 -0.68119
29.5 -0.72385
29.55 -0.7637
29.6 -0.79782
29.65 -0.83375
29.7 -0.86414
29.75 -0.8964
29.8 -0.92802
29.85 -0.95781
29.9 -0.97508
29.95 -0.9905
30 -0.9988
30.05 -1.00089
30.1 -0.99168
30.15 -0.97475
30.2 -0.95595
30.25 -0.93065
30.3 -0.89959
30.35 -0.85802
30.4 -0.80892
30.45 -0.75382
30.5 -0.69663
30.55 -0.63552
30.6 -0.56555
30.65 -0.49473
30.7 -0.42027
30.75 -0.34782
30.8 -0.27513
30.85 -0.20053
30.9 -0.13405
30.95 -0.07049
31 -0.00707
31.05 0.05254
31.1 0.11502
31.15 0.17592
31.2 0.23251
31.25 0.28737
31.3 0.33566
31.35 0.37335
31.4 0.40548
31.45 0.43831
31.5 0.46515
31.55 0.48675
31.6 0.5094
31.65 0.52974
31.7 0.5533
31.75 0.57732
31.8 0.59399
31.85 0.60985
31.9 0.62717
31.95 0.63806
32 0.65253
32.05 0.65993
32.1 0.6706
32.15 0.68283
32.2 0.68908
32.25 0.69479
32.3 0.70347
32.35 0.71318
32.4 0.72397
32.45 0.72869
32.5 0.73394
32.55 0.74093
32.6 0.74386
32.65 0.74572
32.7 0.75015
32.75 0.75551
32.8 0.75709
32.85 0.75362
32.9 0.74989
32.95 0.74423
33 0.74032
33.05 0.73474
33.1 0.72956
33.15 0.72531
33.2 0.71643
33.25 0.70735
33.3 0.69349
33.35 0.68131
33.4 0.67143
33.45 0.66011
33.5 0.644
33.55 0.62998
33.6 0.61386
33.65 0.59595
33.7 0.5759
33.75 0.55397
33.8 0.53037
33.85 0.51327
33.9 0.49645
33.95 0.4789
34 0.4578
34.05 0.43797
34.1 0.41534
34.15 0.39334
34.2 0.3758
34.25 0.36017
34.3 0.34471
34.35 0.32855
34.4 0.30894
34.45 0.2873
34.5 0.26863
34.55 0.24674
34.6 0.23172
34.65 0.21549
34.7 0.19782
34.75 0.1793
34.8 0.16661
34.85 0.15807
34.9 0.14932
34.95 0.13488
35 0.11816
35.05 0.10797
35.1 0.0975
35.15 0.0907
35.2 0.08528
35.25 0.07693
35.3 0.06394
35.35 0.05098
35.4 0.03938
35.45 0.02907
35.5 0.01613
35.55 0.00202
35.6 -0.00969
35.65 -0.02205
35.7 -0.02694
35.75 -0.02956
35.8 -0.03345
35.85 -0.03381
35.9 -0.03213
35.95 -0.03847
36 -0.04787
36.05 -0.05194
36.1 -0.05618
36.15 -0.06282
36.2 -0.07095
36.25 -0.08097
36.3 -0.09224
36.35 -0.10513
36.4 -0.11315
36.45 -0.12073
36.5 -0.12204
36.55 -0.12127
36.6 -0.11682
36.65 -0.11034
36.7 -0.10954
36.75 -0.10781
36.8 -0.10465
36.85 -0.1084
36.9 -0.11056
36.95 -0.11787
37 -0.12599
37.05 -0.12706
37.1 -0.13131
37.15 -0.13091
37.2 -0.12846
37.25 -0.1227
37.3 -0.12118
37.35 -0.11917
37.4 -0.11795
37.45 -0.12233
37.5 -0.12551
37.55 -0.13159
37.6 -0.13858
37.65 -0.14284
37.7 -0.14808
37.75 -0.14579
37.8 -0.14631
37.85 -0.14597
37.9 -0.14177
37.95 -0.13879
38 -0.13027
38.05 -0.121
38.1 -0.11024
38.15 -0.10416
38.2 -0.09924
38.25 -0.09979
38.3 -0.10451
38.35 -0.10312
38.4 -0.10239
38.45 -0.10142
38.5 -0.09696
38.55 -0.09356
38.6 -0.08957
38.65 -0.08479
38.7 -0.08411
38.75 -0.08834
38.8 -0.0894
38.85 -0.09472
38.9 -0.10035
38.95 -0.1027
39 -0.10257
39.05 -0.09961
39.1 -0.10141
39.15 -0.10563
39.2 -0.10802
39.25 -0.10612
39.3 -0.10529
39.35 -0.10528
39.4 -0.10244
39.45 -0.10152
39.5 -0.09472
39.55 -0.08486
39.6 -0.08141
39.65 -0.08166
39.7 -0.08122
39.75 -0.0837
39.8 -0.08473
39.85 -0.08828
39.9 -0.09283
39.95 -0.09136
40 -0.08842
40.05 -0.08843
40.1 -0.08255
40.15 -0.07234
40.2 -0.06702
40.25 -0.06595
40.3 -0.06538
40.35 -0.06784
40.4 -0.06805
40.45 -0.07108
40.5 -0.07019
40.55 -0.06449
40.6 -0.06198
40.65 -0.06213
40.7 -0.05791
40.75 -0.05796
40.8 -0.06102
40.85 -0.05916
40.9 -0.05679
40.95 -0.05242
41 -0.04527
41.05 -0.03741
41.1 -0.03605
41.15 -0.03451
41.2 -0.03284
41.25 -0.03339
41.3 -0.03824
41.35 -0.04355
41.4 -0.04959
41.45 -0.05155
41.5 -0.05296
41.55 -0.05535
41.6 -0.05562
41.65 -0.05257
41.7 -0.05115
41.75 -0.04509
41.8 -0.04498
41.85 -0.03961
41.9 -0.04036
41.95 -0.03676
42 -0.03647
42.05 -0.03883
42.1 -0.03673
42.15 -0.0362
42.2 -0.03837
42.25 -0.03848
42.3 -0.04024
42.35 -0.04118
42.4 -0.03803
42.45 -0.03738
42.5 -0.03608
42.55 -0.03633
42.6 -0.03313
42.65 -0.03374
42.7 -0.02943
42.75 -0.02309
42.8 -0.01688
42.85 -0.01051
42.9 -0.00318
42.95 -0.00185
43 -0.00668
43.05 -0.00962
43.1 -0.01087
43.15 -0.01048
43.2 -0.00955
43.25 -0.008
43.3 -0.00673
43.35 -0.01133
43.4 -0.01724
43.45 -0.02525
43.5 -0.03393
43.55 -0.03641
43.6 -0.03663
43.65 -0.0316
43.7 -0.02879
43.75 -0.02847
43.8 -0.03069
43.85 -0.03069
43.9 -0.0335
43.95 -0.03512
44 -0.03722
44.05 -0.03222
44.1 -0.0244
44.15 -0.01866
44.2 -0.01918
44.25 -0.02006
44.3 -0.01983
44.35 -0.02173
44.4 -0.0191
44.45 -0.01905
44.5 -0.02215
44.55 -0.02517
44.6 -0.02428
44.65 -0.02292
44.7 -0.02211
44.75 -0.01914
44.8 -0.01758
44.85 -0.01689
44.9 -0.01631
44.95 -0.01579
45 -0.01553
45.05 -0.01321
45.1 -0.00746
45.15 -0.00179
45.2 0.00425
45.25 0.01055
45.3 0.01003
45.35 0.00333
45.4 -0.00377
45.45 -0.0093
45.5 -0.00857
45.55 -0.00682
45.6 -0.00165
45.65 0.0001
45.7 -0.00383
45.75 -0.00993
45.8 -0.01429
45.85 -0.01998
45.9 -0.02691
45.95 -0.02547
46 -0.02065
46.05 -0.01378
46.1 -0.01173
46.15 -0.01303
46.2 -0.01399
46.25 -0.01851
46.3 -0.02265
46.35 -0.02029
46.4 -0.01302
46.45 -0.00683
46.5 -0.0006
46.55 0.00603
46.6 0.00757
46.65 0.00725
46.7 0.00626
46.75 0.00385
46.8 0.00094
46.85 -0.00514
46.9 -0.00486
46.95 -0.0004
47 -0.00124
47.05 0.00023
47.1 -0.00206
47.15 0.00072
47.2 0.00391
47.25 0.0007
47.3 -0.00086
47.35 -0.0012
47.4 -0.00152
47.45 -0.0042
47.5 -0.00942
47.55 -0.00974
47.6 -0.0134
47.65 -0.01842
47.7 -0.02156
47.75 -0.0243
47.8 -0.02445
47.85 -0.02457
47.9 -0.02582
47.95 -0.02645
48 -0.02936
48.05 -0.0256
48.1 -0.0187
48.15 -0.01363
48.2 -0.00713
48.25 -0.00137
48.3 0.00073
48.35 0.00213
48.4 -0.00009
48.45 -0.00419
48.5 -0.00789
48.55 -0.00925
48.6 -0.01418
48.65 -0.01919
48.7 -0.01975
48.75 -0.01874
48.8 -0.01865
48.85 -0.02125
48.9 -0.02242
48.95 -0.02558
49 -0.02187
49.05 -0.01873
49.1 -0.01544
49.15 -0.00957
49.2 -0.00192
49.25 0.00765
49.3 0.01365
49.35 0.02034
49.4 0.02502
49.45 0.02213
49.5 0.01762
49.55 0.01674
49.6 0.01739
49.65 0.01845
49.7 0.01413
49.75 0.00594
49.8 -0.00103
49.85 -0.00493
49.9 -0.01096
49.95 -0.01589
50 -0.01405
50.05 -0.01511
50.1 -0.01648
50.15 -0.01574
50.2 -0.01332
50.25 -0.00615
50.3 0.00295
50.35 0.00437
50.4 0.00529
50.45 0.00355
50.5 -0.00105
50.55 -0.007
50.6 -0.01022
50.65 -0.01302
50.7 -0.01723
50.75 -0.01452
50.8 -0.01536
50.85 -0.01026
50.9 -0.00386
50.95 0.00002
51 0.0068
51.05 0.01268
51.1 0.01776
51.15 0.01878
51.2 0.02075
51.25 0.01891
51.3 0.02034
51.35 0.0177
51.4 0.01735
51.45 0.01328
51.5 0.01412
51.55 0.01653
51.6 0.01773
51.65 0.02105
51.7 0.02285
51.75 0.02274
51.8 0.02447
51.85 0.02221
51.9 0.02289
51.95 0.0186
52 0.01624
52.05 0.01222
52.1 0.01042
52.15 0.00414
52.2 0.00068
52.25 -0.0059
52.3 -0.00961
52.35 -0.01285
52.4 -0.01449
52.45 -0.01627
52.5 -0.01319
52.55 -0.01172
52.6 -0.01015
52.65 -0.01037
52.7 -0.01205
52.75 -0.01423
52.8 -0.01054
52.85 -0.0098
52.9 -0.01068
52.95 -0.01444
53 -0.01218
53.05 -0.00775
53.1 -0.00788
53.15 -0.00437
53.2 -0.00013
53.25 0.00693
53.3 0.01391
53.35 0.01426
53.4 0.01393
53.45 0.01266
53.5 0.01284
53.55 0.00719
53.6 -0.00114
53.65 -0.00838
53.7 -0.00974
53.75 -0.01039
53.8 -0.00861
53.85 -0.00355
53.9 -0.00098
53.95 0.00133
54 -0.00042
54.05 0.00004
54.1 0.00063
54.15 0.00428
54.2 0.01057
54.25 0.01062
54.3 0.00623
54.35 0.00593
54.4 0.00456
54.45 0.00231
54.5 -0.00305
54.55 -0.00754
54.6 -0.0117
54.65 -0.01167
54.7 -0.01366
54.75 -0.01466
54.8 -0.01451
54.85 -0.0156
54.9 -0.01845
54.95 -0.01709
55 -0.01961
55.05 -0.02107
55.1 -0.02428
55.15 -0.02659
55.2 -0.02546
55.25 -0.0194
55.3 -0.01419
55.35 -0.00634
55.4 -0.00248
55.45 -0.00068
55.5 -0.00313
55.55 0.00008
55.6 0.0055
55.65 0.01211
55.7 0.01605
55.75 0.0169
55.8 0.01399
55.85 0.01135
55.9 0.01077
55.95 0.00671
56 0.00358
56.05 0.00169
56.1 -0.00277
56.15 -0.00767
56.2 -0.01022
56.25 -0.01007
56.3 -0.01092
56.35 -0.01106
56.4 -0.00824
56.45 -0.00951
56.5 -0.00725
56.55 -0.00549
56.6 -0.0077
56.65 -0.0044
56.7 -0.00476
56.75 -0.00927
56.8 -0.00807
56.85 -0.00442
56.9 0.00216
56.95 0.00515
57 0.00334
57.05 0.00296
57.1 -0.00176
57.15 -0.00382
57.2 -0.00753
57.25 -0.01068
57.3 -0.01625
57.35 -0.01412
57.4 -0.00807
57.45 -0.00626
57.5 -0.00135
57.55 0.00254
57.6 0.00731
57.65 0.01147
57.7 0.01031
57.75 0.00538
57.8 0.00227
57.85 0.00249
57.9 -0.00039
57.95 0.00018
58 0.00516
58.05 0.01196
58.1 0.01638
58.15 0.02023
58.2 0.01823
58.25 0.01997
58.3 0.02162
58.35 0.01901
58.4 0.01874
58.45 0.0194
58.5 0.01441
58.55 0.01141
58.6 0.0056
58.65 -0.00026
58.7 -0.00301
58.75 -0.00721
58.8 -0.01096
58.85 -0.01213
58.9 -0.01558
58.95 -0.01569
59 -0.01713
59.05 -0.0122
59.1 -0.00841
59.15 -0.00678
59.2 -0.00667
59.25 -0.00184
59.3 0.0013
59.35 0.00118
59.4 0.00265
59.45 0.00643
59.5 0.00943
59.55 0.01433
59.6 0.01561
59.65 0.01436
59.7 0.01683
59.75 0.01485
59.8 0.00977
59.85 0.00734
59.9 0.00965
59.95 0.00752
60 0.00993
60.05 0.00786
60.1 0.00246
60.15 0.00176
60.2 -0.00349
60.25 -0.00623
60.3 -0.01093
60.35 -0.01041
60.4 -0.00476
60.45 0.00162
60.5 0.00238
60.55 0.00395
60.6 0.007
60.65 0.01206
60.7 0.01507
60.75 0.0107
60.8 0.0028
60.85 -0.0007
60.9 -0.00091
60.95 0.00003
61 0.00341
61.05 0.00643
61.1 0.00355
61.15 -0.00174
61.2 -0.00198
61.25 0.00225
61.3 0.00736
61.35 0.00943
61.4 0.00547
61.45 0.00392
61.5 0.00102
61.55 0.00331
61.6 0.00198
61.65 0.00154
61.7 0.00085
61.75 -0.00425
61.8 -0.00401
61.85 -0.00265
61.9 -0.00431
61.95 -0.00343
62 -0.00579
62.05 -0.01088
62.1 -0.0107
62.15 -0.01463
62.2 -0.01385
62.25 -0.01674
62.3 -0.01942
62.35 -0.01797
62.4 -0.01282
62.45 -0.00598
62.5 0.00194
62.55 0.00853
62.6 0.01073
62.65 0.0068
62.7 0.00483
62.75 0.00471
62.8 0.00603
62.85 0.00298
62.9 0.00173
62.95 0.00204
63 -0.0018
63.05 -0.00586
63.1 -0.01176
63.15 -0.01486
63.2 -0.01933
63.25 -0.02137
63.3 -0.01963
63.35 -0.02106
63.4 -0.02444
63.45 -0.02056
63.5 -0.0188
63.55 -0.01372
63.6 -0.01284
63.65 -0.00985
63.7 -0.00997
63.75 -0.01278
63.8 -0.01316
63.85 -0.01476
63.9 -0.0101
63.95 -0.00636
64 -0.00678
64.05 -0.01068
64.1 -0.01354
64.15 -0.00986
64.2 -0.00775
64.25 -0.00895
64.3 -0.01223
64.35 -0.01146
64.4 -0.00602
64.45 0.00055
64.5 0.00577
64.55 0.01088
64.6 0.01215
64.65 0.01014
64.7 0.00645
64.75 -0.00026
64.8 -0.0015
64.85 -0.00092
64.9 -0.00511
64.95 -0.01041
65 -0.00932
65.05 -0.00602
65.1 -0.00704
65.15 -0.00984
65.2 -0.013
65.25 -0.01789
65.3 -0.02337
65.35 -0.02698
65.4 -0.02968
65.45 -0.03011
65.5 -0.0312
65.55 -0.02662
65.6 -0.02243
65.65 -0.01999
65.7 -0.01305
65.75 -0.00977
65.8 -0.0043
65.85 0.00278
65.9 0.00853
65.95 0.01091
66 0.00998
66.05 0.01139
66.1 0.01528
66.15 0.02089
66.2 0.02228
66.25 0.01928
66.3 0.01205
66.35 0.00675
66.4 0.00695
66.45 0.00927
66.5 0.00569
66.55 0.00045
66.6 -0.00464
66.65 -0.01158
66.7 -0.01631
66.75 -0.01333
66.8 -0.00901
66.85 -0.00716
66.9 -0.00603
66.95 -0.0006
67 0.00042
67.05 0.00274
67.1 0.00044
67.15 0.00052
67.2 0.00177
67.25 -0.00198
67.3 -0.00152
67.35 -0.00026
67.4 0.00429
67.45 0.00508
67.5 0.00936
67.55 0.01523
67.6 0.02071
67.65 0.02535
67.7 0.02257
67.75 0.02335
67.8 0.02567
67.85 0.02958
67.9 0.03435
67.95 0.0306
68 0.02277
68.05 0.01965
68.1 0.0169
68.15 0.01019
68.2 0.00402
68.25 -0.00082
68.3 -0.00524
68.35 -0.01025
68.4 -0.01247
68.45 -0.01217
68.5 -0.00902
68.55 -0.00597
68.6 -0.00346
68.65 -0.00184
68.7 -0.00337
68.75 -0.00832
68.8 -0.01305
68.85 -0.01747
68.9 -0.02059
68.95 -0.02391
69 -0.02327
69.05 -0.0223
69.1 -0.0182
69.15 -0.01686
69.2 -0.01371
69.25 -0.00819
69.3 -0.00591
69.35 -0.00632
69.4 -0.00983
69.45 -0.01026
69.5 -0.00525
69.55 -0.00322
69.6 -0.00001
69.65 0.00126
69.7 0.00374
69.75 0.00544
69.8 0.00825
69.85 0.0068
69.9 0.00105
69.95 -0.00468
70 -0.00866
70.05 -0.00865
70.1 -0.00769
70.15 -0.00641
70.2 -0.00223
70.25 -0.00266
70.3 -0.00601
70.35 -0.00525
70.4 -0.00204
70.45 0.00138
70.5 0.00727
70.55 0.01293
70.6 0.01144
70.65 0.00816
70.7 0.00443
70.75 0.00452
70.8 0.00516
70.85 0.00642
70.9 0.01
70.95 0.01225
71 0.0166
71.05 0.01411
71.1 0.01605
71.15 0.01585
71.2 0.01689
71.25 0.01317
71.3 0.00594
71.35 0.00104
71.4 0.00206
71.45 0.00113
71.5 -0.00049
71.55 -0.00234
71.6 0.00036
71.65 0.00069
71.7 0.00494
71.75 0.00406
71.8 0.00692
71.85 0.00362
71.9 -0.00002
71.95 -0.002
72 -0.00587
72.05 -0.00899
72.1 -0.01122
72.15 -0.00784
72.2 -0.00715
72.25 -0.00417
72.3 0.00199
72.35 0.0027
72.4 0.00044
72.45 0.00083
72.5 0.00474
72.55 0.01069
72.6 0.01792
72.65 0.01764
72.7 0.01704
72.75 0.01737
72.8 0.0119
72.85 0.00399
72.9 0.00181
72.95 0.00431
73 0.00966
73.05 0.01389
73.1 0.01792
73.15 0.01765
73.2 0.01296
73.25 0.006
73.3 0.00338
73.35 0.00203
73.4 0.00362
73.45 0.00018
73.5 -0.00449
73.55 -0.01048
73.6 -0.01794
73.65 -0.0214
73.7 -0.02535
73.75 -0.03043
73.8 -0.03087
73.85 -0.02649
73.9 -0.02534
73.95 -0.01821
74 -0.01261
74.05 -0.00481
74.1 0.00431
74.15 0.00906
74.2 0.01597
74.25 0.0156
74.3 0.01166
74.35 0.00567
74.4 0.006
74.45 0.00882
74.5 0.00776
74.55 0.00815
74.6 0.01174
74.65 0.01
74.7 0.00327
74.75 0.00191
74.8 0.00319
74.85 0.00436
74.9 0.00518
74.95 0.00942
75 0.01059
75.05 0.00958
75.1 0.01259
75.15 0.01723
75.2 0.01385
75.25 0.01363
75.3 0.01463
75.35 0.01083
75.4 0.00537
75.45 0.00079
75.5 -0.00082
75.55 0.00091
75.6 0.00519
75.65 0.00392
75.7 0.00149
75.75 0.00316
75.8 0.00349
75.85 0.002
75.9 0.00453
75.95 0.00751
76 0.01184
76.05 0.01213
76.1 0.01453
76.15 0.01338
76.2 0.01502
76.25 0.01486
76.3 0.01771
76.35 0.01458
76.4 0.00654
76.45 0.00335
76.5 -0.00299
76.55 -0.00548
76.6 -0.01109
76.65 -0.01682
76.7 -0.01538
76.75 -0.01023
76.8 -0.01073
76.85 -0.00715
76.9 -0.00454
76.95 -0.00274
77 -0.0036
77.05 0.00004
77.1 0.00109
77.15 -0.00276
77.2 -0.00675
77.25 -0.00538
77.3 -0.00807
77.35 -0.01275
77.4 -0.01402
77.45 -0.01206
77.5 -0.01232
77.55 -0.01498
77.6 -0.01824
77.65 -0.01708
77.7 -0.01946
77.75 -0.02188
77.8 -0.02269
77.85 -0.02582
77.9 -0.02588
77.95 -0.02331
78 -0.01784
78.05 -0.01031
78.1 -0.00763
78.15 -0.00443
78.2 0.00076
78.25 0.00759
78.3 0.00934
78.35 0.00619
78.4 0.00104
78.45 -0.00429
78.5 -0.00496
78.55 -0.00383
78.6 0.00066
78.65 0.00542
78.7 0.00857
78.75 0.00797
78.8 0.00866
78.85 0.00823
78.9 0.00518
78.95 -0.00115
79 -0.00705
79.05 -0.01315
79.1 -0.0134
79.15 -0.0097
79.2 -0.00733
79.25 -0.0012
79.3 0.0007
79.35 -0.00059
79.4 -0.00213
79.45 -0.00205
79.5 -0.00503
79.55 -0.00952
79.6 -0.0072
79.65 -0.00391
79.7 -0.0027
79.75 -0.00323
79.8 -0.00533
79.85 -0.00658
79.9 -0.00253
79.95 0.00142
80 0.00685
80.05 0.00792
80.1 0.00992
80.15 0.00944
80.2 0.0081
80.25 0.006
80.3 0.0044
80.35 0.00076
80.4 -0.00034
80.45 -0.00546
80.5 -0.01111
80.55 -0.01298
80.6 -0.01082
80.65 -0.01075
80.7 -0.01264
80.75 -0.01436
80.8 -0.01582
80.85 -0.01947
80.9 -0.01947
80.95 -0.0182
81 -0.01435
81.05 -0.01379
81.1 -0.00876
81.15 -0.00103
81.2 0.00084
81.25 0.00466
81.3 0.00537
81.35 0.00192
81.4 0.00295
81.45 0.00143
81.5 0.00048
81.55 0.00231
81.6 0.00658
81.65 0.01141
81.7 0.01355
81.75 0.00958
81.8 0.00754
81.85 0.01026
81.9 0.01317
81.95 0.00972
82 0.00318
82.05 0.00181
82.1 -0.00361
82.15 -0.00308
82.2 0.00165
82.25 0.00835
82.3 0.0105
82.35 0.01048
82.4 0.00926
82.45 0.01219
82.5 0.01709
82.55 0.02082
82.6 0.02521
82.65 0.0236
82.7 0.0167
82.75 0.01454
82.8 0.01332
82.85 0.00743
82.9 0.00093
82.95 -0.00226
83 -0.00289
83.05 0.00022
83.1 0.00354
83.15 0.00608
83.2 0.00821
83.25 0.01145
83.3 0.01073
83.35 0.0071
83.4 0.00771
83.45 0.00735
83.5 0.00847
83.55 0.00845
83.6 0.00971
83.65 0.00681
83.7 0.00788
83.75 0.00445
83.8 0.00273
83.85 -0.00186
83.9 -0.00946
83.95 -0.0138
84 -0.01784
84.05 -0.01917
84.1 -0.01931
84.15 -0.01747
84.2 -0.01157
84.25 -0.00326
84.3 0.00638
84.35 0.01536
84.4 0.02416
84.45 0.02781
84.5 0.02851
84.55 0.02388
84.6 0.01677
84.65 0.00646
84.7 0.00267
84.75 -0.00212
84.8 -0.00182
84.85 -0.00094
84.9 -0.0045
84.95 -0.00268
85 -0.00365
85.05 -0.00829
85.1 -0.00764
85.15 -0.0117
85.2 -0.01358
85.25 -0.01023
85.3 -0.01045
85.35 -0.01086
85.4 -0.01104
85.45 -0.01413
85.5 -0.01766
85.55 -0.01835
85.6 -0.01578
85.65 -0.0086
85.7 -0.00638
85.75 -0.0069
85.8 -0.0114
85.85 -0.01286
85.9 -0.01753
85.95 -0.02137
86 -0.02544
86.05 -0.02353
86.1 -0.01733
86.15 -0.0117
86.2 -0.0063
86.25 -0.0022
86.3 -0.00288
86.35 -0.00168
86.4 0.00103
86.45 0.00279
86.5 -0.00064
86.55 -0.00171
86.6 0.00085
86.65 -0.00001
86.7 -0.00017
86.75 -0.00382
86.8 -0.00272
86.85 -0.00625
86.9 -0.01126
86.95 -0.01448
87 -0.01696
87.05 -0.01626
87.1 -0.0124
87.15 -0.00893
87.2 -0.00231
87.25 0.00516
87.3 0.01295
87.35 0.01496
87.4 0.01835
87.45 0.02013
87.5 0.02111
87.55 0.0222
87.6 0.0187
87.65 0.01173
87.7 0.00921
87.75 0.01007
87.8 0.00944
87.85 0.00534
87.9 -0.00207
87.95 -0.00343
88 -0.00775
88.05 -0.01164
88.1 -0.01018
88.15 -0.00566
88.2 -0.00394
88.25 -0.00658
88.3 -0.0076
88.35 -0.01159
88.4 -0.01086
88.45 -0.01365
88.5 -0.01299
88.55 -0.01557
88.6 -0.01972
88.65 -0.01896
88.7 -0.01611
88.75 -0.01099
88.8 -0.00769
88.85 -0.00438
88.9 -0.0052
88.95 -0.00079
89 0.0005
89.05 0.00526
89.1 0.00966
89.15 0.00764
89.2 0.00498
89.25 0.00001
89.3 -0.00571
89.35 -0.00993
89.4 -0.01261
89.45 -0.01364
89.5 -0.01526
89.55 -0.01244
89.6 -0.00706
89.65 0.00004
89.7 0.00672
89.75 0.00648
89.8 0.00684
89.85 0.00556
89.9 0.00737
89.95 0.00338
90 0.00012
90.05 -0.00164
90.1 -0.00487
90.15 -0.00978
90.2 -0.01253
90.25 -0.0157
90.3 -0.01749
90.35 -0.01591
90.4 -0.01423
90.45 -0.00759
90.5 0.00013
90.55 0.00278
90.6 0.00531
90.65 0.00725
90.7 0.01269
90.75 0.01202
90.8 0.0136
90.85 0.01576
90.9 0.01282
90.95 0.00802
91 0.00727
91.05 0.00166
91.1 -0.00659
91.15 -0.01421
91.2 -0.0157
91.25 -0.01448
91.3 -0.01538
91.35 -0.0133
91.4 -0.00961
91.45 -0.00958
91.5 -0.01121
91.55 -0.0098
91.6 -0.0036
91.65 -0.00268
91.7 -0.00047
91.75 0.00472
91.8 0.01243
91.85 0.0168
91.9 0.0158
91.95 0.01662
92 0.0136
92.05 0.01003
92.1 0.00828
92.15 0.01111
92.2 0.01619
92.25 0.01434
92.3 0.01358
92.35 0.01027
92.4 0.00317
92.45 0.00246
92.5 -0.001
92.55 -0.00586
92.6 -0.00498
92.65 -0.00372
92.7 0.00181
92.75 0.00481
92.8 0.00897
92.85 0.00698
92.9 0.00578
92.95 0.00007
93 -0.00595
93.05 -0.01142
93.1 -0.0096
93.15 -0.01024
93.2 -0.01287
93.25 -0.01626
93.3 -0.01228
93.35 -0.01196
93.4 -0.00836
93.45 -0.00567
93.5 -0.00427
93.55 -0.00708
93.6 -0.01029
93.65 -0.00807
93.7 -0.01019
93.75 -0.01315
93.8 -0.00914
93.85 -0.00294
93.9 -0.00074
93.95 0.00385
94 0.01044
94.05 0.01079
94.1 0.00981
94.15 0.01223
94.2 0.01351
94.25 0.00977
94.3 0.00534
94.35 0.00106
94.4 0.00166
94.45 -0.00268
94.5 -0.00847
94.55 -0.01373
94.6 -0.0204
94.65 -0.02262
94.7 -0.02146
94.75 -0.01638
94.8 -0.0154
94.85 -0.01561
94.9 -0.01872
94.95 -0.01547
95 -0.00974
95.05 -0.00354
95.1 0.00521
95.15 0.00742
95.2 0.01162
95.25 0.01171
95.3 0.01115
95.35 0.01405
95.4 0.01186
95.45 0.00683
95.5 0.00215
95.55 0.00075
95.6 0.00456
95.65 0.00524
95.7 0.00176
95.75 -0.00321
95.8 -0.00172
95.85 -0.00167
95.9 -0.00308
95.95 -0.00608
96 -0.00638
96.05 -0.00372
96.1 -0.00296
96.15 0.00172
96.2 0.00183
96.25 0.00415
96.3 0.00122
96.35 -0.00245
96.4 -0.0062
96.45 -0.00415
96.5 0.00101
96.55 0.00335
96.6 0.00799
96.65 0.00679
96.7 0.00747
96.75 0.00578
96.8 0.00573
96.85 0.00472
96.9 0.00422
96.95 0.00594
97 0.00625
97.05 0.00204
97.1 -0.00221
97.15 -0.00279
97.2 0.0018
97.25 0.00256
97.3 -0.00067
97.35 -0.00437
97.4 -0.00548
97.45 -0.00668
97.5 -0.00726
97.55 -0.00988
97.6 -0.01145
97.65 -0.01433
97.7 -0.01681
97.75 -0.0143
97.8 -0.01466
97.85 -0.01503
97.9 -0.01486
97.95 -0.01093
98 -0.00536
98.05 0.0027
98.1 0.00724
98.15 0.01
98.2 0.00714
98.25 0.00923
98.3 0.01001
98.35 0.00797
98.4 0.00444
98.45 0.00456
98.5 0.00713
98.55 0.0061
98.6 0.0027
98.65 -0.0002
98.7 -0.00352
98.75 -0.00223
98.8 -0.00562
98.85 -0.00643
98.9 -0.01013
98.95 -0.01521
99 -0.01768
99.05 -0.0197
99.1 -0.01702
99.15 -0.00989
99.2 -0.00377
99.25 0.00495
99.3 0.01021
99.35 0.01352
99.4 0.01849
99.45 0.02496
99.5 0.02281
99.55 0.02135
99.6 0.01869
99.65 0.01707
99.7 0.01095
99.75 0.006
99.8 0.00564
99.85 0.0041
99.9 0.00477
99.95 0.00583
