0 0
0.05 0.00654
0.1 0.01474
0.15 0.02419
0.2 0.03576
0.25 0.04654
0.3 0.05718
0.35 0.06508
0.4 0.06831
0.45 0.06601
0.5 0.06229
0.55 0.05824
0.6 0.05541
0.65 0.05196
0.7 0.04963
0.75 0.0473
0.8 0.0429
0.85 0.03784
0.9 0.03269
0.95 0.03196
1 0.03082
1.05 0.02976
1.1 0.02964
1.15 0.02888
1.2 0.02756
1.25 0.02412
1.3 0.02223
1.35 0.02277
1.4 0.02703
1.45 0.03216
1.5 0.036
1.55 0.03812
1.6 0.03742
1.65 0.03634
1.7 0.03113
1.75 0.02721
1.8 0.02115
1.85 0.01751
1.9 0.01529
1.95 0.01503
2 0.01855
2.05 0.0204
2.1 0.02253
2.15 0.02522
2.2 0.02553
2.25 0.02346
2.3 0.02296
2.35 0.02013
2.4 0.01931
2.45 0.01892
2.5 0.019
2.55 0.01976
2.6 0.0193
2.65 0.02106
2.7 0.02572
2.75 0.03039
2.8 0.03258
2.85 0.02919
2.9 0.02703
2.95 0.02299
3 0.02189
3.05 0.02211
3.1 0.01972
3.15 0.02144
3.2 0.0199
3.25 0.01787
3.3 0.01433
3.35 0.01017
3.4 0.01072
3.45 0.00973
3.5 0.00992
3.55 0.01189
3.6 0.0171
3.65 0.02429
3.7 0.03078
3.75 0.03457
3.8 0.03641
3.85 0.03567
3.9 0.03169
3.95 0.02573
4 0.02207
4.05 0.01681
4.1 0.01275
4.15 0.01413
4.2 0.01439
4.25 0.01388
4.3 0.01401
4.35 0.0175
4.4 0.02137
4.45 0.0264
4.5 0.02764
4.55 0.02733
4.6 0.02239
4.65 0.01531
4.7 0.00877
4.75 0.00675
4.8 0.00214
4.85 0.00081
4.9 0.00095
4.95 0.00105
5 -0.00033
5.05 0.0027
5.1 0.00315
5.15 0.00707
5.2 0.00827
5.25 0.0113
5.3 0.01146
5.35 0.01017
5.4 0.01027
5.45 0.00843
5.5 0.00523
5.55 0.00318
5.6 -0.00207
5.65 -0.0034
5.7 -0.00613
5.75 -0.01051
5.8 -0.01138
5.85 -0.01351
5.9 -0.01798
5.95 -0.01798
6 -0.02081
6.05 -0.01996
6.1 -0.01682
6.15 -0.01194
6.2 -0.00586
6.25 -0.00157
6.3 0.0016
6.35 -0.00088
6.4 -0.00733
6.45 -0.01112
6.5 -0.01253
6.55 -0.01225
6.6 -0.01358
6.65 -0.01267
6.7 -0.01441
6.75 -0.01712
6.8 -0.01922
6.85 -0.02173
6.9 -0.02045
6.95 -0.01413
7 -0.00907
7.05 -0.00356
7.1 0.00269
7.15 0.00459
7.2 0.00492
7.25 0.00855
7.3 0.0093
7.35 0.01188
7.4 0.01498
7.45 0.01847
7.5 0.01876
7.55 0.01999
7.6 0.02138
7.65 0.02023
7.7 0.02151
7.75 0.01977
7.8 0.02143
7.85 0.01972
7.9 0.0173
7.95 0.01968
8 0.01806
8.05 0.01528
8.1 0.01208
8.15 0.0074
8.2 0.00875
8.25 0.0088
8.3 0.0112
8.35 0.01702
8.4 0.02402
8.45 0.02511
8.5 0.02569
8.55 0.02462
8.6 0.02572
8.65 0.02456
8.7 0.02323
8.75 0.02246
8.8 0.01856
8.85 0.01833
8.9 0.01553
8.95 0.00987
9 0.00239
9.05 -0.00138
9.1 -0.00097
9.15 0.00404
9.2 0.00417
9.25 0.00707
9.3 0.00966
9.35 0.01151
9.4 0.01321
9.45 0.01781
9.5 0.01738
9.55 0.01886
9.6 0.01618
9.65 0.01729
9.7 0.0182
9.75 0.02104
9.8 0.02546
9.85 0.02966
9.9 0.02748
9.95 0.02069
10 0.01825
10.05 0.0176
10.1 0.01797
10.15 0.01944
10.2 0.01944
10.25 0.01542
10.3 0.01117
10.35 0.0111
10.4 0.00726
10.45 0.00722
10.5 0.00523
10.55 0.00679
10.6 0.00907
10.65 0.01367
10.7 0.01201
10.75 0.01116
10.8 0.01312
10.85 0.01027
10.9 0.00504
10.95 0.00089
11 -0.00037
11.05 0.00082
11.1 0.00076
11.15 -0.00184
11.2 -0.00273
11.25 -0.00374
11.3 -0.00241
11.35 -0.00533
11.4 -0.00554
11.45 -0.0092
11.5 -0.01304
11.55 -0.01584
11.6 -0.01277
11.65 -0.01329
11.7 -0.01387
11.75 -0.01646
11.8 -0.01811
11.85 -0.01737
11.9 -0.01749
11.95 -0.01394
12 -0.0081
12.05 -0.00186
12.1 0.00017
12.15 -0.00013
12.2 0.00184
12.25 0.0002
12.3 0.00017
12.35 0.00074
12.4 0.00445
12.45 0.00673
12.5 0.00701
12.55 0.00856
12.6 0.006
12.65 0.00511
12.7 0.00719
12.75 0.01026
12.8 0.01456
12.85 0.01516
12.9 0.01306
12.95 0.00757
13 -0.00058
13.05 -0.00704
13.1 -0.01135
13.15 -0.01701
13.2 -0.01545
13.25 -0.01046
13.3 -0.004
13.35 -0.00291
13.4 -0.00014
13.45 0.00023
13.5 0.00135
13.55 0.0017
13.6 0.0001
13.65 -0.00504
13.7 -0.00579
13.75 -0.00299
13.8 0.00041
13.85 0.00323
13.9 0.00354
13.95 0.00467
14 0.00638
14.05 0.00568
14.1 0.00426
14.15 0.00672
14.2 0.00452
14.25 0.00126
14.3 -0.00384
14.35 -0.00355
14.4 -0.00322
14.45 -0.0018
14.5 0.00151
14.55 0.0071
14.6 0.01206
14.65 0.01191
14.7 0.00902
14.75 0.00338
14.8 -0.00275
14.85 -0.00478
14.9 -0.00994
14.95 -0.00906
15 -0.00581
15.05 -0.00224
15.1 -0.00375
15.15 -0.00316
15.2 -0.00518
15.25 -0.00589
15.3 -0.00337
15.35 -0.00106
15.4 -0.00222
15.45 -0.00116
15.5 -0.00342
15.55 -0.00788
15.6 -0.00667
15.65 -0.0065
15.7 -0.00931
15.75 -0.01302
15.8 -0.01371
15.85 -0.01679
15.9 -0.01434
15.95 -0.01252
16 -0.00767
16.05 -0.00011
16.1 0.00152
16.15 0.00232
16.2 -0.00015
16.25 -0.00234
16.3 0.00009
16.35 0.00349
16.4 0.00585
16.45 0.00719
16.5 0.00619
16.55 0.00508
16.6 0.00306
16.65 0.00341
16.7 0.00689
16.75 0.01192
16.8 0.01355
16.85 0.01056
16.9 0.00772
16.95 0.00628
17 0.00413
17.05 -0.00178
17.1 -0.0049
17.15 -0.00905
17.2 -0.01392
17.25 -0.0154
17.3 -0.01492
17.35 -0.01144
17.4 -0.00903
17.45 -0.0105
17.5 -0.01118
17.55 -0.00908
17.6 -0.00377
17.65 -0.0012
17.7 0.0019
17.75 0.00033
17.8 0.0004
17.85 0.0019
17.9 0.00091
17.95 -0.00099
18 -0.00207
18.05 -0.00111
18.1 -0.00208
18.15 -0.00621
18.2 -0.01074
18.25 -0.01643
18.3 -0.02211
18.35 -0.02413
18.4 -0.02356
18.45 -0.02348
18.5 -0.02421
18.55 -0.02427
18.6 -0.02245
18.65 -0.02122
18.7 -0.02237
18.75 -0.022
18.8 -0.02118
18.85 -0.02177
18.9 -0.02186
18.95 -0.01833
19 -0.01343
19.05 -0.011
19.1 -0.00701
19.15 -0.00532
19.2 -0.00066
19.25 -0.0008
19.3 0.00256
19.35 0.00138
19.4 0.00476
19.45 0.00924
19.5 0.01275
19.55 0.01526
19.6 0.0184
19.65 0.0202
19.7 0.02134
19.75 0.02333
19.8 0.02031
19.85 0.01572
19.9 0.013
19.95 0.00656
20 0.00092
20.05 -0.00247
20.1 -0.00298
20.15 -0.00031
20.2 0.00422
20.25 0.00457
20.3 0.00675
20.35 0.00715
20.4 0.0036
20.45 0.00115
20.5 -0.00272
20.55 -0.0018
20.6 0.00051
20.65 0.00582
20.7 0.01218
20.75 0.01143
20.8 0.01249
20.85 0.00971
20.9 0.00364
20.95 -0.00146
21 -0.00428
21.05 -0.00465
21.1 -0.00296
21.15 -0.00442
21.2 -0.00821
21.25 -0.00745
21.3 -0.00583
21.35 -0.00517
21.4 -0.00111
21.45 0.0007
21.5 0.00046
21.55 -0.00234
21.6 -0.00495
21.65 -0.00634
21.7 -0.00939
21.75 -0.01387
21.8 -0.0148
21.85 -0.01555
21.9 -0.01318
21.95 -0.01392
22 -0.01652
22.05 -0.01978
22.1 -0.02318
22.15 -0.01978
22.2 -0.01521
22.25 -0.01283
22.3 -0.00967
22.35 -0.00884
22.4 -0.01027
22.45 -0.00951
22.5 -0.00551
22.55 -0.0015
22.6 0.00382
22.65 0.00861
22.7 0.01184
22.75 0.01437
22.8 0.01771
22.85 0.01995
22.9 0.01822
22.95 0.01625
23 0.01628
23.05 0.015
23.1 0.01629
23.15 0.01699
23.2 0.01814
23.25 0.01753
23.3 0.01786
23.35 0.01998
23.4 0.01859
23.45 0.01815
23.5 0.01851
23.55 0.01802
23.6 0.0154
23.65 0.01507
23.7 0.01102
23.75 0.01081
23.8 0.00917
23.85 0.00325
23.9 -0.00337
23.95 -0.00721
24 -0.00734
24.05 -0.006
24.1 -0.00617
24.15 -0.00898
24.2 -0.01253
24.25 -0.01229
24.3 -0.01298
24.35 -0.01375
24.4 -0.01267
24.45 -0.01437
24.5 -0.01224
24.55 -0.01201
24.6 -0.00756
24.65 -0.00306
24.7 0.00137
24.75 0.00101
24.8 0.00281
24.85 0.00537
24.9 0.00865
24.95 0.00748
25 0.00952
25.05 0.0125
25.1 0.01223
25.15 0.00758
25.2 0.00505
25.25 -0.00001
25.3 -0.00604
25.35 -0.00757
25.4 -0.01133
25.45 -0.01022
25.5 -0.0058
25.55 -0.00355
25.6 0.00013
25.65 0.00481
25.7 0.00561
25.75 0.00743
25.8 0.00554
25.85 0.0049
25.9 0.00197
25.95 0.00044
26 -0.00198
26.05 -0.0006
26.1 0.0038
26.15 0.00289
26.2 0.00293
26.25 0.00413
26.3 0.00678
26.35 0.00508
26.4 0.00667
26.45 0.00868
26.5 0.01232
26.55 0.0155
26.6 0.018
26.65 0.01736
26.7 0.0135
26.75 0.00892
26.8 0.00708
26.85 0.00232
26.9 -0.00323
26.95 -0.00808
27 -0.01239
27.05 -0.01243
27.1 -0.00891
27.15 -0.00619
27.2 -0.00463
27.25 0.0006
27.3 0.00512
27.35 0.00516
27.4 0.0047
27.45 0.00618
27.5 0.00391
27.55 0.00312
27.6 0.00038
27.65 -0.00201
27.7 -0.00364
27.75 -0.00603
27.8 -0.0075
27.85 -0.00826
27.9 -0.01629
27.95 -0.02632
28 -0.0373
28.05 -0.04573
28.1 -0.06035
28.15 -0.07226
28.2 -0.0829
28.25 -0.09392
28.3 -0.11221
28.35 -0.13127
28.4 -0.15584
28.45 -0.18762
28.5 -0.22226
28.55 -0.26161
28.6 -0.30442
28.65 -0.35358
28.7 -0.41109
28.75 -0.46985
28.8 -0.5347
28.85 -0.60438
28.9 -0.68094
28.95 -0.76008
29 -0.84009
29.05 -0.92498
29.1 -1.01344
29.15 -1.107
29.2 -1.20581
29.25 -1.30272
29.3 -1.39938
29.35 -1.49957
29.4 -1.60151
29.45 -1.70026
29.5 -1.7951
29.55 -1.88287
29.6 -1.96883
29.65 -2.04674
29.7 -2.11474
29.75 -2.1723
29.8 -2.22171
29.85 -2.26335
29.9 -2.29744
29.95 -2.31902
30 -2.32826
30.05 -2.31901
30.1 -2.29647
30.15 -2.25642
30.2 -2.20255
30.25 -2.13706
30.3 -2.05741
30.35 -1.96831
30.4 -1.86669
30.45 -1.75437
30.5 -1.63336
30.55 -1.50062
30.6 -1.36241
30.65 -1.2193
30.7 -1.07047
30.75 -0.91532
30.8 -0.75578
30.85 -0.59512
30.9 -0.43676
30.95 -0.27805
31 -0.12267
31.05 0.02986
31.1 0.18039
31.15 0.32386
31.2 0.46585
31.25 0.60205
31.3 0.7301
31.35 0.85597
31.4 0.97724
31.45 1.08726
31.5 1.19218
31.55 1.28642
31.6 1.36892
31.65 1.44829
31.7 1.52142
31.75 1.5879
31.8 1.6453
31.85 1.69875
31.9 1.7469
31.95 1.78716
32 1.82124
32.05 1.8465
32.1 1.86908
32.15 1.88971
32.2 1.90801
32.25 1.9184
32.3 1.92326
32.35 1.92782
32.4 1.92821
32.45 1.92238
32.5 1.91735
32.55 1.9069
32.6 1.89641
32.65 1.88207
32.7 1.86496
32.75 1.85013
32.8 1.83347
32.85 1.81439
32.9 1.79528
32.95 1.77402
33 1.75127
33.05 1.7327
33.1 1.71071
33.15 1.68665
33.2 1.66572
33.25 1.64555
33.3 1.62517
33.35 1.60302
33.4 1.57997
33.45 1.55205
33.5 1.52173
33.55 1.48607
33.6 1.44487
33.65 1.40498
33.7 1.36421
33.75 1.3197
33.8 1.27621
33.85 1.23056
33.9 1.18405
33.95 1.13658
34 1.09246
34.05 1.05131
34.1 1.00822
34.15 0.96762
34.2 0.92839
34.25 0.88503
34.3 0.8438
34.35 0.79671
34.4 0.74711
34.45 0.69757
34.5 0.64771
34.55 0.60353
34.6 0.55933
34.65 0.51468
34.7 0.47461
34.75 0.43421
34.8 0.3988
34.85 0.36326
34.9 0.32617
34.95 0.29511
35 0.26436
35.05 0.23611
35.1 0.20563
35.15 0.17643
35.2 0.14638
35.25 0.11551
35.3 0.08458
35.35 0.0589
35.4 0.03102
35.45 0.00317
35.5 -0.02547
35.55 -0.0485
35.6 -0.06956
35.65 -0.08457
35.7 -0.10198
35.75 -0.12075
35.8 -0.13732
35.85 -0.15139
35.9 -0.16817
35.95 -0.18366
36 -0.19759
36.05 -0.21301
36.1 -0.22364
36.15 -0.23398
36.2 -0.2428
36.25 -0.24794
36.3 -0.2525
36.35 -0.25951
36.4 -0.26719
36.45 -0.27328
36.5 -0.27879
36.55 -0.28288
36.6 -0.28969
36.65 -0.29551
36.7 -0.29766
36.75 -0.29943
36.8 -0.30038
36.85 -0.30348
36.9 -0.30929
36.95 -0.31751
37 -0.32731
37.05 -0.33418
37.1 -0.33722
37.15 -0.34144
37.2 -0.33994
37.25 -0.3375
37.3 -0.33366
37.35 -0.3323
37.4 -0.32883
37.45 -0.3223
37.5 -0.31943
37.55 -0.31394
37.6 -0.31365
37.65 -0.3127
37.7 -0.31444
37.75 -0.31647
37.8 -0.31466
37.85 -0.31448
37.9 -0.31042
37.95 -0.30587
38 -0.30157
38.05 -0.29958
38.1 -0.2994
38.15 -0.29377
38.2 -0.29075
38.25 -0.28395
38.3 -0.28034
38.35 -0.27404
38.4 -0.26756
38.45 -0.2625
38.5 -0.25769
38.55 -0.25024
38.6 -0.24266
38.65 -0.23989
38.7 -0.23404
38.75 -0.22617
38.8 -0.21994
38.85 -0.21789
38.9 -0.21585
38.95 -0.21583
39 -0.21221
39.05 -0.20682
39.1 -0.20355
39.15 -0.20527
39.2 -0.20893
39.25 -0.21406
39.3 -0.21827
39.35 -0.22131
39.4 -0.22207
39.45 -0.2232
39.5 -0.21879
39.55 -0.21384
39.6 -0.20884
39.65 -0.20191
39.7 -0.19701
39.75 -0.19053
39.8 -0.18096
39.85 -0.17131
39.9 -0.16559
39.95 -0.1593
40 -0.15669
40.05 -0.15804
40.1 -0.16079
40.15 -0.15818
40.2 -0.15693
40.25 -0.15367
40.3 -0.15132
40.35 -0.14517
40.4 -0.14068
40.45 -0.13478
40.5 -0.13134
40.55 -0.13059
40.6 -0.13008
40.65 -0.12684
40.7 -0.12697
40.75 -0.12737
40.8 -0.12991
40.85 -0.13116
40.9 -0.13371
40.95 -0.13229
41 -0.13047
41.05 -0.12571
41.1 -0.11917
41.15 -0.1151
41.2 -0.11263
41.25 -0.10824
41.3 -0.10128
41.35 -0.09856
41.4 -0.10054
41.45 -0.10416
41.5 -0.10241
41.55 -0.10179
41.6 -0.0992
41.65 -0.09548
41.7 -0.09159
41.75 -0.08698
41.8 -0.088
41.85 -0.09045
41.9 -0.08949
41.95 -0.08568
42 -0.08144
42.05 -0.08214
42.1 -0.08295
42.15 -0.08582
42.2 -0.08946
42.25 -0.09448
42.3 -0.09433
42.35 -0.09275
42.4 -0.09378
42.45 -0.09157
42.5 -0.08717
42.55 -0.07975
42.6 -0.07723
42.65 -0.0759
42.7 -0.07236
42.75 -0.07209
42.8 -0.06923
42.85 -0.07048
42.9 -0.07334
42.95 -0.07518
43 -0.07314
43.05 -0.06769
43.1 -0.06581
43.15 -0.067
43.2 -0.06689
43.25 -0.06933
43.3 -0.07173
43.35 -0.07447
43.4 -0.07664
43.45 -0.07691
43.5 -0.07318
43.55 -0.07153
43.6 -0.06641
43.65 -0.0647
43.7 -0.06227
43.75 -0.06302
43.8 -0.06316
43.85 -0.05857
43.9 -0.05327
43.95 -0.04849
44 -0.04423
44.05 -0.04035
44.1 -0.03939
44.15 -0.03716
44.2 -0.0382
44.25 -0.04063
44.3 -0.04382
44.35 -0.04325
44.4 -0.0425
44.45 -0.04175
44.5 -0.04068
44.55 -0.03922
44.6 -0.0413
44.65 -0.0449
44.7 -0.04247
44.75 -0.03912
44.8 -0.03391
44.85 -0.02788
44.9 -0.02177
44.95 -0.01908
45 -0.01964
45.05 -0.02272
45.1 -0.02587
45.15 -0.02695
45.2 -0.02702
45.25 -0.02778
45.3 -0.02919
45.35 -0.0276
45.4 -0.02693
45.45 -0.02988
45.5 -0.03375
45.55 -0.03361
45.6 -0.03295
45.65 -0.03399
45.7 -0.03152
45.75 -0.02678
45.8 -0.02035
45.85 -0.01461
45.9 -0.01508
45.95 -0.01494
46 -0.01481
46.05 -0.01287
46.1 -0.01046
46.15 -0.01268
46.2 -0.01446
46.25 -0.0143
46.3 -0.01372
46.35 -0.0161
46.4 -0.02091
46.45 -0.02105
46.5 -0.01837
46.55 -0.01839
46.6 -0.0203
46.65 -0.02251
46.7 -0.02343
46.75 -0.02539
46.8 -0.02703
46.85 -0.03125
46.9 -0.02984
46.95 -0.03038
47 -0.02993
47.05 -0.03078
47.1 -0.03288
47.15 -0.03596
47.2 -0.03967
47.25 -0.04031
47.3 -0.03777
47.35 -0.03696
47.4 -0.03321
47.45 -0.02769
47.5 -0.02304
47.55 -0.01924
47.6 -0.01697
47.65 -0.01723
47.7 -0.0207
47.75 -0.01848
47.8 -0.01351
47.85 -0.01403
47.9 -0.01295
47.95 -0.00896
48 -0.00651
48.05 -0.00716
48.1 -0.00746
48.15 -0.00573
48.2 -0.00154
48.25 0.00148
48.3 -0
48.35 -0.00295
48.4 -0.00551
48.45 -0.00883
48.5 -0.01135
48.55 -0.01561
48.6 -0.02154
48.65 -0.02435
48.7 -0.02513
48.75 -0.02699
48.8 -0.02337
48.85 -0.01845
48.9 -0.01187
48.95 -0.00827
49 -0.00639
49.05 -0.00329
49.1 -0.00489
49.15 -0.00341
49.2 -0.00579
49.25 -0.00454
49.3 -0.00336
49.35 0.00013
49.4 0.00438
49.45 0.00395
49.5 0.00575
49.55 0.00239
49.6 0.00194
49.65 -0.00166
49.7 -0.00519
49.75 -0.0085
49.8 -0.00721
49.85 -0.00859
49.9 -0.00935
49.95 -0.00694
50 -0.00431
50.05 -0.00148
50.1 0.00228
50.15 0.00169
50.2 -0.00184
50.25 -0.00345
50.3 -0.00347
50.35 -0.00371
50.4 -0.00098
50.45 -0.00068
50.5 -0.00294
50.55 -0.00191
50.6 -0.00498
50.65 -0.00613
50.7 -0.00408
50.75 -0.00677
50.8 -0.00734
50.85 -0.00537
50.9 -0.00333
50.95 -0.0036
51 -0.00286
51.05 -0.00503
51.1 -0.00574
51.15 -0.00815
51.2 -0.00933
51.25 -0.01219
51.3 -0.01041
51.35 -0.00667
51.4 -0.0027
51.45 -0.00065
51.5 -0.00337
51.55 -0.00877
51.6 -0.01256
51.65 -0.01237
51.7 -0.01384
51.75 -0.01412
51.8 -0.01594
51.85 -0.01814
51.9 -0.02051
51.95 -0.01779
52 -0.01465
52.05 -0.01468
52.1 -0.01151
52.15 -0.00796
52.2 -0.00118
52.25 0.00343
52.3 0.004
52.35 0.00444
52.4 0.0052
52.45 0.00333
52.5 0.00166
52.55 0.00067
52.6 -0.00127
52.65 -0.00516
52.7 -0.00785
52.75 -0.00981
52.8 -0.01015
52.85 -0.00709
52.9 -0.00569
52.95 -0.00603
53 -0.00306
53.05 -0.00478
53.1 -0.00242
53.15 -0.00019
53.2 0.00469
53.25 0.00746
53.3 0.00843
53.35 0.00823
53.4 0.00815
53.45 0.00535
53.5 0.00149
53.55 -0.00409
53.6 -0.00814
53.65 -0.00937
53.7 -0.0064
53.75 -0.00146
53.8 -0.0014
53.85 -0.00345
53.9 -0.00086
53.95 0.00178
54 0.00659
54.05 0.00762
54.1 0.00505
54.15 0.00113
54.2 0.00014
54.25 0.00308
54.3 0.00693
54.35 0.0115
54.4 0.01208
54.45 0.00967
54.5 0.00717
54.55 0.00177
54.6 -0.00047
54.65 -0.00301
54.7 -0.00328
54.75 -0.00464
54.8 -0.00223
54.85 -0.00174
54.9 0.00177
54.95 0.00523
55 0.00878
55.05 0.0117
55.1 0.01374
55.15 0.01039
55.2 0.00351
55.25 -0.00467
55.3 -0.00862
55.35 -0.0111
55.4 -0.01585
55.45 -0.01511
55.5 -0.01444
55.55 -0.01091
55.6 -0.01158
55.65 -0.01325
55.7 -0.0104
55.75 -0.00604
55.8 0.00088
55.85 0.00333
55.9 0.00312
55.95 0.00133
56 -0.00027
56.05 -0.00044
56.1 -0.00068
56.15 -0.00215
56.2 0.0007
56.25 0.00161
56.3 0.00502
56.35 0.00283
56.4 0.00181
56.45 -0.00063
56.5 -0.00233
56.55 -0.00074
56.6 -0.00212
56.65 -0.00169
56.7 0.00126
56.75 0.0054
56.8 0.00995
56.85 0.00861
56.9 0.00806
56.95 0.00997
57 0.00929
57.05 0.00563
57.1 0.00546
57.15 0.00812
57.2 0.00532
57.25 0.00415
57.3 0.00536
57.35 0.00672
57.4 0.00491
57.45 0.00235
57.5 0.00266
57.55 0.00102
57.6 0.0036
57.65 0.00682
57.7 0.01169
57.75 0.01384
57.8 0.01744
57.85 0.01737
57.9 0.01699
57.95 0.01667
58 0.01545
58.05 0.01435
58.1 0.01286
58.15 0.01284
58.2 0.0135
58.25 0.01261
58.3 0.01093
58.35 0.01069
58.4 0.00738
58.45 0.00215
58.5 -0.00182
58.55 -0.00632
58.6 -0.00749
58.65 -0.00684
58.7 -0.00452
58.75 -0.0008
58.8 0.00217
58.85 0.00566
58.9 0.00804
58.95 0.01153
59 0.00875
59.05 0.00183
59.1 -0.00619
59.15 -0.01026
59.2 -0.01198
59.25 -0.01413
59.3 -0.01191
59.35 -0.01004
59.4 -0.00599
59.45 -0.00482
59.5 -0.00327
59.55 -0.00037
59.6 -0.00043
59.65 0.0023
59.7 0.00501
59.75 0.00784
59.8 0.00867
59.85 0.00863
59.9 0.00759
59.95 0.00226
60 -0.00019
60.05 -0.00244
60.1 -0.00534
60.15 -0.00448
60.2 -0.00692
60.25 -0.0081
60.3 -0.01233
60.35 -0.01672
60.4 -0.01919
60.45 -0.01673
60.5 -0.01281
60.55 -0.00619
60.6 0.00137
60.65 0.00431
60.7 0.00757
60.75 0.00594
60.8 0.00397
60.85 -0.00106
60.9 -0.00273
60.95 -0.00671
61 -0.01282
61.05 -0.01205
61.1 -0.00852
61.15 -0.00229
61.2 -0.00239
61.25 -0.00127
61.3 -0.00181
61.35 -0.00415
61.4 -0.00812
61.45 -0.00957
61.5 -0.01156
61.55 -0.01024
61.6 -0.00654
61.65 -0.00496
61.7 -0.002
61.75 -0.00172
61.8 0.00039
61.85 0.00081
61.9 -0.00212
61.95 -0.00013
62 0.00165
62.05 0.00486
62.1 0.0068
62.15 0.01018
62.2 0.01013
62.25 0.0089
62.3 0.00454
62.35 -0.00207
62.4 -0.00911
62.45 -0.01351
62.5 -0.01844
62.55 -0.01716
62.6 -0.01659
62.65 -0.01888
62.7 -0.02017
62.75 -0.01644
62.8 -0.00887
62.85 -0.00587
62.9 -0.0026
62.95 -0.00429
63 -0.00289
63.05 0.00158
63.1 0.00423
63.15 0.00637
63.2 0.00905
63.25 0.01294
63.3 0.01548
63.35 0.01171
63.4 0.01146
63.45 0.00954
63.5 0.00944
63.55 0.01156
63.6 0.01342
63.65 0.01172
63.7 0.00797
63.75 0.00554
63.8 0.00209
63.85 -0.00321
63.9 -0.00464
63.95 -0.0083
64 -0.0089
64.05 -0.01146
64.1 -0.0131
64.15 -0.0097
64.2 -0.00591
64.25 -0.00191
64.3 0.00406
64.35 0.0078
64.4 0.00592
64.45 0.00723
64.5 0.00659
64.55 0.00519
64.6 0.00316
64.65 0.00374
64.7 0.00159
64.75 -0.00264
64.8 -0.00503
64.85 -0.00866
64.9 -0.01402
64.95 -0.01378
65 -0.00898
65.05 -0.00374
65.1 -0.00224
65.15 0.00236
65.2 0.00717
65.25 0.0129
65.3 0.01385
65.35 0.01084
65.4 0.00813
65.45 0.00492
65.5 0.00417
65.55 -0.00013
65.6 -0.00152
65.65 -0.00395
65.7 -0.00418
65.75 -0.00662
65.8 -0.00823
65.85 -0.0051
65.9 -0.00126
65.95 0.00012
66 -0.00088
66.05 -0.00464
66.1 -0.00705
66.15 -0.00429
66.2 -0.00178
66.25 0.00118
66.3 0.00563
66.35 0.01029
66.4 0.01131
66.45 0.01433
66.5 0.01269
66.55 0.01135
66.6 0.00664
66.65 0.00134
66.7 -0.00562
66.75 -0.00653
66.8 -0.00602
66.85 -0.00443
66.9 -0.00048
66.95 0.0031
67 0.00189
67.05 0.00375
67.1 0.00629
67.15 0.009
67.2 0.01146
67.25 0.01496
67.3 0.01888
67.35 0.01653
67.4 0.01224
67.45 0.00586
67.5 0.00021
67.55 -0.00641
67.6 -0.00763
67.65 -0.00936
67.7 -0.01193
67.75 -0.01625
67.8 -0.02041
67.85 -0.02464
67.9 -0.02338
67.95 -0.02351
68 -0.02108
68.05 -0.01826
68.1 -0.01243
68.15 -0.00538
68.2 0.00255
68.25 0.00507
68.3 0.00721
68.35 0.00408
68.4 0.00021
68.45 -0.00285
68.5 -0.00327
68.55 -0.00212
68.6 0.00147
68.65 -0.00039
68.7 -0.00463
68.75 -0.00436
68.8 -0.00518
68.85 -0.00254
68.9 0.00051
68.95 -0.00121
69 0.00055
69.05 0.00289
69.1 0.00602
69.15 0.0083
69.2 0.00749
69.25 0.00571
69.3 0.00269
69.35 -0.00365
69.4 -0.00724
69.45 -0.0071
69.5 -0.00452
69.55 0.00114
69.6 0.00433
69.65 0.00678
69.7 0.01061
69.75 0.00965
69.8 0.00408
69.85 0.00161
69.9 -0.00329
69.95 -0.00947
70 -0.01405
70.05 -0.01599
70.1 -0.01994
70.15 -0.01761
70.2 -0.01732
70.25 -0.0128
70.3 -0.00539
70.35 -0.00013
70.4 0.00696
70.45 0.00998
70.5 0.01148
70.55 0.01235
70.6 0.01059
70.65 0.00809
70.7 0.00228
70.75 0.00162
70.8 -0.00185
70.85 -0.0056
70.9 -0.00467
70.95 -0.00404
71 0.00011
71.05 0.00214
71.1 0.00215
71.15 0.00508
71.2 0.00832
71.25 0.01043
71.3 0.00772
71.35 0.00274
71.4 -0.00029
71.45 -0.00037
71.5 0.00289
71.55 0.00608
71.6 0.00572
71.65 0.00217
71.7 0.0007
71.75 -0.00076
71.8 0.00092
71.85 0.00448
71.9 0.00947
71.95 0.01435
72 0.01757
72.05 0.01798
72.1 0.01561
72.15 0.01231
72.2 0.00915
72.25 0.00782
72.3 0.00338
72.35 0.00105
72.4 -0.00242
72.45 -0.00325
72.5 -0.00483
72.55 -0.00331
72.6 0.00121
72.65 0.00703
72.7 0.01096
72.75 0.01474
72.8 0.01884
72.85 0.01667
72.9 0.01502
72.95 0.00827
73 0.00489
73.05 -0.00179
73.1 -0.00964
73.15 -0.01296
73.2 -0.01472
73.25 -0.01419
73.3 -0.01411
73.35 -0.01382
73.4 -0.01256
73.45 -0.00803
73.5 -0.00229
73.55 0.00182
73.6 0.0034
73.65 0.00567
73.7 0.00468
73.75 0.00201
73.8 0.00279
73.85 -0.00022
73.9 -0.00258
73.95 -0.00121
74 -0.00255
74.05 -0.00523
74.1 -0.00421
74.15 -0.0065
74.2 -0.00628
74.25 -0.00645
74.3 -0.00247
74.35 -0.0024
74.4 -0.00521
74.45 -0.00391
74.5 -0.00008
74.55 0.00087
74.6 -0.00254
74.65 -0.00144
74.7 -0.00486
74.75 -0.00352
74.8 -0.00404
74.85 -0.0052
74.9 -0.00464
74.95 -0.00125
75 0.00428
75.05 0.00942
75.1 0.00771
75.15 0.00441
75.2 0.00048
75.25 -0.0048
75.3 -0.00998
75.35 -0.01534
75.4 -0.01803
75.45 -0.01812
75.5 -0.01748
75.55 -0.01478
75.6 -0.01443
75.65 -0.01643
75.7 -0.01334
75.75 -0.00654
75.8 -0.00232
75.85 0.00261
75.9 0.00456
75.95 0.00836
76 0.00826
76.05 0.01095
76.1 0.0096
76.15 0.00645
76.2 0.00496
76.25 0.005
76.3 0.00466
76.35 0.00368
76.4 0.00186
76.45 0.00077
76.5 -0.00033
76.55 0.00248
76.6 0.00753
76.65 0.01302
76.7 0.01351
76.75 0.0155
76.8 0.01509
76.85 0.0163
76.9 0.01777
76.95 0.01841
77 0.01317
77.05 0.01149
77.1 0.00548
77.15 0.00043
77.2 -0.00318
77.25 -0.00189
77.3 -0.0014
77.35 -0.00487
77.4 -0.00647
77.45 -0.00717
77.5 -0.00374
77.55 0.00183
77.6 0.00122
77.65 -0.00314
77.7 -0.00952
77.75 -0.01335
77.8 -0.01765
77.85 -0.02118
77.9 -0.02481
77.95 -0.02405
78 -0.023
78.05 -0.01855
78.1 -0.01318
78.15 -0.00917
78.2 -0.00859
78.25 -0.00432
78.3 0.00189
78.35 0.00693
78.4 0.0106
78.45 0.00915
78.5 0.00319
78.55 -0.0044
78.6 -0.01071
78.65 -0.01464
78.7 -0.01276
78.75 -0.01205
78.8 -0.0115
78.85 -0.01046
78.9 -0.0085
78.95 -0.0081
79 -0.0064
79.05 -0.00456
79.1 -0.00346
79.15 0.00078
79.2 0.00421
79.25 0.00595
79.3 0.00853
79.35 0.00611
79.4 0.00419
79.45 0.00508
79.5 0.00506
79.55 0.00551
79.6 0.00305
79.65 0.00332
79.7 -0.00056
79.75 -0.00452
79.8 -0.00563
79.85 -0.00948
79.9 -0.00778
79.95 -0.0042
80 -0.0011
80.05 0.00165
80.1 0.00436
80.15 0.00938
80.2 0.01108
80.25 0.00793
80.3 0.00269
80.35 0.00144
80.4 0.00426
80.45 0.00182
80.5 -0.00291
80.55 -0.00822
80.6 -0.01031
80.65 -0.00902
80.7 -0.00876
80.75 -0.00937
80.8 -0.0103
80.85 -0.00953
80.9 -0.00525
80.95 0.00146
81 0.00276
81.05 -0.00053
81.1 -0.00538
81.15 -0.01071
81.2 -0.01584
81.25 -0.02021
81.3 -0.02234
81.35 -0.02068
81.4 -0.01542
81.45 -0.01132
81.5 -0.00553
81.55 0.00042
81.6 0.00255
81.65 0.00724
81.7 0.01226
81.75 0.01601
81.8 0.02085
81.85 0.02087
81.9 0.01597
81.95 0.01072
82 0.00539
82.05 -0.00114
82.1 -0.00456
82.15 -0.00855
82.2 -0.00871
82.25 -0.01181
82.3 -0.01687
82.35 -0.02041
82.4 -0.01791
82.45 -0.01655
82.5 -0.01692
82.55 -0.01908
82.6 -0.01939
82.65 -0.01987
82.7 -0.01732
82.75 -0.01253
82.8 -0.01084
82.85 -0.00938
82.9 -0.01111
82.95 -0.00856
83 -0.00352
83.05 0.00099
83.1 0.00037
83.15 -0.00234
83.2 -0.00113
83.25 -0.00089
83.3 -0.00036
83.35 0.00217
83.4 0.00616
83.45 0.01124
83.5 0.01374
83.55 0.01221
83.6 0.00791
83.65 0.002
83.7 -0.0045
83.75 -0.00569
83.8 -0.0084
83.85 -0.00786
83.9 -0.01051
83.95 -0.01128
84 -0.0121
84.05 -0.01374
84.1 -0.01041
84.15 -0.0044
84.2 -0.00168
84.25 -0.00248
84.3 -0.00182
84.35 -0.00105
84.4 -0.00274
84.45 -0.00084
84.5 -0.00035
84.55 0.00396
84.6 0.01021
84.65 0.0138
84.7 0.0161
84.75 0.01444
84.8 0.01627
84.85 0.01383
84.9 0.01232
84.95 0.01048
85 0.00805
85.05 0.00937
85.1 0.01157
85.15 0.0152
85.2 0.01456
85.25 0.01605
85.3 0.01801
85.35 0.01515
85.4 0.01049
85.45 0.00749
85.5 0.00163
85.55 -0.00317
85.6 -0.00362
85.65 -0.00234
85.7 -0.0023
85.75 -0.00286
85.8 -0.00495
85.85 -0.00637
85.9 -0.00769
85.95 -0.00992
86 -0.01116
86.05 -0.01306
86.1 -0.00973
86.15 -0.00592
86.2 -0.00366
86.25 -0.00047
86.3 0.00489
86.35 0.00686
86.4 0.00893
86.45 0.00844
86.5 0.00544
86.55 0.00106
86.6 -0.00055
86.65 0.00082
86.7 0.00474
86.75 0.00756
86.8 0.01003
86.85 0.01361
86.9 0.01177
86.95 0.01239
87 0.01492
87.05 0.014
87.1 0.01445
87.15 0.01502
87.2 0.01188
87.25 0.00563
87.3 -0.00238
87.35 -0.00961
87.4 -0.01319
87.45 -0.01805
87.5 -0.01719
87.55 -0.01286
87.6 -0.00535
87.65 0.00189
87.7 0.00419
87.75 0.00579
87.8 0.0045
87.85 0.00195
87.9 -0.00012
87.95 -0.00231
88 -0.00665
88.05 -0.00725
88.1 -0.01058
88.15 -0.01296
88.2 -0.01566
88.25 -0.01741
88.3 -0.01325
88.35 -0.00896
88.4 -0.00374
88.45 0.00105
88.5 0.00673
88.55 0.00609
88.6 0.00827
88.65 0.01249
88.7 0.01691
88.75 0.01464
88.8 0.01105
88.85 0.01022
88.9 0.00785
88.95 0.00935
89 0.00934
89.05 0.00722
89.1 0.00219
89.15 -0.00382
89.2 -0.00626
89.25 -0.00681
89.3 -0.00489
89.35 -0.006
89.4 -0.00416
89.45 -0.00406
89.5 -0.00104
89.55 0.00463
89.6 0.00875
89.65 0.00763
89.7 0.00311
89.75 0.0025
89.8 -0.00233
89.85 -0.00899
89.9 -0.0106
89.95 -0.00924
90 -0.00638
90.05 -0.00497
90.1 -0.00707
90.15 -0.00787
90.2 -0.01077
90.25 -0.01447
90.3 -0.01486
90.35 -0.01035
90.4 -0.01006
90.45 -0.00748
90.5 -0.00761
90.55 -0.00618
90.6 -0.00654
90.65 -0.00448
90.7 -0.00465
90.75 -0.0015
90.8 -0.00323
90.85 -0.00606
90.9 -0.00501
90.95 -0.00292
91 0.00023
91.05 0.0048
91.1 0.00762
91.15 0.00497
91.2 0.00232
91.25 -0.00195
91.3 -0.00231
91.35 0.00128
91.4 0.00079
91.45 -0.00226
91.5 -0.00418
91.55 -0.00586
91.6 -0.00816
91.65 -0.00718
91.7 -0.0069
91.75 -0.00554
91.8 -0.00347
91.85 -0.00523
91.9 -0.00495
91.95 -0.00063
92 0.00395
92.05 0.00724
92.1 0.0081
92.15 0.01025
92.2 0.01314
92.25 0.01281
92.3 0.01045
92.35 0.0057
92.4 0.00445
92.45 0.00064
92.5 -0.0037
92.55 -0.00463
92.6 -0.00706
92.65 -0.00861
92.7 -0.0094
92.75 -0.00798
92.8 -0.0038
92.85 0.00155
92.9 0.00811
92.95 0.01022
93 0.01386
93.05 0.01219
93.1 0.00692
93.15 0.00491
93.2 0.00578
93.25 0.0076
93.3 0.0086
93.35 0.00796
93.4 0.00802
93.45 0.00919
93.5 0.01054
93.55 0.00797
93.6 0.0024
93.65 -0.00132
93.7 -0.00129
93.75 -0.00235
93.8 -0.00004
93.85 0.00063
93.9 0.00105
93.95 -0.00009
94 -0.00235
94.05 -0.00521
94.1 -0.00982
94.15 -0.01083
94.2 -0.00753
94.25 -0.00374
94.3 -0.00265
94.35 -0.00482
94.4 -0.00496
94.45 -0.00646
94.5 -0.00724
94.55 -0.01022
94.6 -0.01508
94.65 -0.0181
94.7 -0.01733
94.75 -0.0123
94.8 -0.00989
94.85 -0.0079
94.9 -0.00865
94.95 -0.0064
95 -0.00211
95.05 -0.00134
95.1 -0.00441
95.15 -0.00983
95.2 -0.01279
95.25 -0.01374
95.3 -0.01634
95.35 -0.01723
95.4 -0.01494
95.45 -0.01461
95.5 -0.01052
95.55 -0.00973
95.6 -0.00755
95.65 -0.00826
95.7 -0.00962
95.75 -0.01006
95.8 -0.00683
95.85 -0.00437
95.9 -0.00084
95.95 0.00047
96 0.00319
96.05 0.00663
96.1 0.00519
96.15 0.00402
96.2 0.00089
96.25 0.00263
96.3 0.00603
96.35 0.0093
96.4 0.01304
96.45 0.01343
96.5 0.01548
96.55 0.01408
96.6 0.01105
96.65 0.01134
96.7 0.01241
96.75 0.01544
96.8 0.01686
96.85 0.01405
96.9 0.0101
96.95 0.00386
97 -0.00152
97.05 -0.00281
97.1 -0.00334
97.15 -0.00422
97.2 -0.00767
97.25 -0.00647
97.3 -0.00229
97.35 -0.00334
97.4 -0.00665
97.45 -0.01094
97.5 -0.01034
97.55 -0.01089
97.6 -0.0139
97.65 -0.01554
97.7 -0.01792
97.75 -0.01893
97.8 -0.0205
97.85 -0.02277
97.9 -0.01987
97.95 -0.01581
98 -0.0128
98.05 -0.01147
98.1 -0.01135
98.15 -0.0123
98.2 -0.00917
98.25 -0.00405
98.3 -0.00155
98.35 0.00284
98.4 0.00639
98.45 0.00817
98.5 0.00982
98.55 0.00947
98.6 0.00556
98.65 0.00486
98.7 0.0052
98.75 0.00474
98.8 0.00305
98.85 0.00458
98.9 0.0058
98.95 0.00358
99 0.00507
99.05 0.00603
99.1 0.00295
99.15 0.00358
99.2 0.00559
99.25 0.007
99.3 0.01131
99.35 0.01222
99.4 0.00977
99.45 0.00721
99.5 0.00565
99.55 0.00543
99.6 0.00792
99.65 0.0075
99.7 0.00306
99.75 -0.00307
99.8 -0.00331
99.85 -0.00351
99.9 0.00036
99.95 0.00191
