0 0
0.05 0.00887
0.1 0.02072
0.15 0.03198
0.2 0.04087
0.25 0.04853
0.3 0.05409
0.35 0.05366
0.4 0.05774
0.45 0.05915
0.5 0.06064
0.55 0.05955
0.6 0.05976
0.65 0.05805
0.7 0.05842
0.75 0.05591
0.8 0.05349
0.85 0.05326
0.9 0.04788
0.95 0.04092
1 0.03961
1.05 0.03681
1.1 0.035
1.15 0.03356
1.2 0.03147
1.25 0.03068
1.3 0.03341
1.35 0.03943
1.4 0.04505
1.45 0.04883
1.5 0.04732
1.55 0.04638
1.6 0.0492
1.65 0.05284
1.7 0.05068
1.75 0.05012
1.8 0.04946
1.85 0.04662
1.9 0.04539
1.95 0.04025
2 0.03958
2.05 0.03464
2.1 0.03042
2.15 0.02804
2.2 0.0241
2.25 0.0257
2.3 0.02893
2.35 0.02917
2.4 0.02985
2.45 0.02791
2.5 0.02696
2.55 0.03065
2.6 0.02844
2.65 0.02951
2.7 0.03132
2.75 0.03576
2.8 0.03501
2.85 0.03289
2.9 0.02935
2.95 0.02343
3 0.02091
3.05 0.01963
3.1 0.02064
3.15 0.01848
3.2 0.01309
3.25 0.01019
3.3 0.00669
3.35 0.0025
3.4 0.00566
3.45 0.00576
3.5 0.0023
3.55 0.00589
3.6 0.00597
3.65 0.00385
3.7 0.0017
3.75 0.00365
3.8 0.00994
3.85 0.01554
3.9 0.02053
3.95 0.02513
4 0.03049
4.05 0.0333
4.1 0.03391
4.15 0.03547
4.2 0.0356
4.25 0.02907
4.3 0.02432
4.35 0.01905
4.4 0.0112
4.45 0.0034
4.5 -0.00508
4.55 -0.01972
4.6 -0.03242
4.65 -0.04405
4.7 -0.06146
4.75 -0.08002
4.8 -0.09966
4.85 -0.12816
4.9 -0.15685
4.95 -0.18614
5 -0.22517
5.05 -0.27342
5.1 -0.32479
5.15 -0.37768
5.2 -0.43518
5.25 -0.49699
5.3 -0.56188
5.35 -0.63604
5.4 -0.71747
5.45 -0.80267
5.5 -0.88992
5.55 -0.97783
5.6 -1.06608
5.65 -1.14673
5.7 -1.22727
5.75 -1.30199
5.8 -1.37458
5.85 -1.44402
5.9 -1.505
5.95 -1.56736
6 -1.62182
6.05 -1.66852
6.1 -1.71285
6.15 -1.74814
6.2 -1.77865
6.25 -1.80242
6.3 -1.8249
6.35 -1.84263
6.4 -1.85437
6.45 -1.85881
6.5 -1.85356
6.55 -1.84444
6.6 -1.82602
6.65 -1.80094
6.7 -1.76615
6.75 -1.71946
6.8 -1.6621
6.85 -1.59626
6.9 -1.52167
6.95 -1.43422
7 -1.33752
7.05 -1.22502
7.1 -1.10204
7.15 -0.96744
7.2 -0.82789
7.25 -0.6793
7.3 -0.52988
7.35 -0.3811
7.4 -0.22871
7.45 -0.07969
7.5 0.07079
7.55 0.22175
7.6 0.36747
7.65 0.50569
7.7 0.64328
7.75 0.77238
7.8 0.89517
7.85 1.00782
7.9 1.11505
7.95 1.21626
8 1.30394
8.05 1.38294
8.1 1.45793
8.15 1.52434
8.2 1.58341
8.25 1.63138
8.3 1.67364
8.35 1.71097
8.4 1.7439
8.45 1.76533
8.5 1.78343
8.55 1.79788
8.6 1.80539
8.65 1.80281
8.7 1.79384
8.75 1.78568
8.8 1.77037
8.85 1.74983
8.9 1.72759
8.95 1.70367
9 1.67937
9.05 1.65384
9.1 1.62853
9.15 1.60917
9.2 1.58596
9.25 1.56555
9.3 1.54094
9.35 1.51586
9.4 1.4906
9.45 1.46398
9.5 1.43302
9.55 1.40596
9.6 1.37736
9.65 1.34739
9.7 1.31835
9.75 1.28867
9.8 1.25502
9.85 1.22174
9.9 1.18478
9.95 1.15158
10 1.12199
10.05 1.093
10.1 1.06254
10.15 1.03045
10.2 1.0019
10.25 0.97255
10.3 0.94064
10.35 0.90571
10.4 0.87198
10.45 0.84165
10.5 0.80476
10.55 0.76734
10.6 0.73173
10.65 0.69894
10.7 0.66587
10.75 0.62972
10.8 0.59788
10.85 0.56476
10.9 0.53215
10.95 0.49912
11 0.46516
11.05 0.43179
11.1 0.39464
11.15 0.35716
11.2 0.32373
11.25 0.29129
11.3 0.25875
11.35 0.22338
11.4 0.19193
11.45 0.16046
11.5 0.13373
11.55 0.11145
11.6 0.09294
11.65 0.07646
11.7 0.05373
11.75 0.02757
11.8 -0.0024
11.85 -0.02583
11.9 -0.04956
11.95 -0.06776
12 -0.08889
12.05 -0.10818
12.1 -0.12375
12.15 -0.14252
12.2 -0.16011
12.25 -0.17148
12.3 -0.1856
12.35 -0.19672
12.4 -0.20593
12.45 -0.21592
12.5 -0.22239
12.55 -0.23412
12.6 -0.24501
12.65 -0.25756
12.7 -0.26563
12.75 -0.27551
12.8 -0.28346
12.85 -0.29298
12.9 -0.2944
12.95 -0.29257
13 -0.28688
13.05 -0.28164
13.1 -0.28058
13.15 -0.2829
13.2 -0.28368
13.25 -0.2829
13.3 -0.27886
13.35 -0.27433
13.4 -0.26883
13.45 -0.26693
13.5 -0.26418
13.55 -0.26341
13.6 -0.26364
13.65 -0.26374
13.7 -0.26084
13.75 -0.26176
13.8 -0.26506
13.85 -0.26711
13.9 -0.26708
13.95 -0.26634
14 -0.26455
14.05 -0.26295
14.1 -0.26465
14.15 -0.26154
14.2 -0.25936
14.25 -0.25427
14.3 -0.24777
14.35 -0.24355
14.4 -0.24173
14.45 -0.24197
14.5 -0.23646
14.55 -0.23017
14.6 -0.2216
14.65 -0.21198
14.7 -0.20232
14.75 -0.19599
14.8 -0.19325
14.85 -0.19554
14.9 -0.19367
14.95 -0.19311
15 -0.19426
15.05 -0.19973
15.1 -0.20343
15.15 -0.20014
15.2 -0.19475
15.25 -0.18917
15.3 -0.18335
15.35 -0.18252
15.4 -0.18006
15.45 -0.17421
15.5 -0.16593
15.55 -0.16004
15.6 -0.15704
15.65 -0.1529
15.7 -0.14922
15.75 -0.14736
15.8 -0.14619
15.85 -0.14465
15.9 -0.14072
15.95 -0.14216
16 -0.14542
16.05 -0.14996
16.1 -0.15376
16.15 -0.1567
16.2 -0.15402
16.25 -0.15526
16.3 -0.1578
16.35 -0.15719
16.4 -0.15606
16.45 -0.15476
16.5 -0.15544
16.55 -0.14862
16.6 -0.14613
16.65 -0.13855
16.7 -0.13486
16.75 -0.13021
16.8 -0.12337
16.85 -0.11435
16.9 -0.11075
16.95 -0.11221
17 -0.10817
17.05 -0.1029
17.1 -0.1006
17.15 -0.10388
17.2 -0.10764
17.25 -0.11181
17.3 -0.11207
17.35 -0.10998
17.4 -0.11015
17.45 -0.10788
17.5 -0.10935
17.55 -0.11
17.6 -0.10971
17.65 -0.10613
17.7 -0.09761
17.75 -0.08783
17.8 -0.0801
17.85 -0.07462
17.9 -0.07394
17.95 -0.07721
18 -0.08011
18.05 -0.08176
18.1 -0.08013
18.15 -0.07438
18.2 -0.06623
18.25 -0.06224
18.3 -0.05916
18.35 -0.0567
18.4 -0.05901
18.45 -0.06156
18.5 -0.06024
18.55 -0.06225
18.6 -0.0622
18.65 -0.06095
18.7 -0.06428
18.75 -0.07088
18.8 -0.07516
18.85 -0.07731
18.9 -0.07434
18.95 -0.07573
19 -0.07859
19.05 -0.07731
19.1 -0.07715
19.15 -0.07091
19.2 -0.06175
19.25 -0.05871
19.3 -0.05663
19.35 -0.0575
19.4 -0.06142
19.45 -0.06357
19.5 -0.06352
19.55 -0.0626
19.6 -0.06484
19.65 -0.06595
19.7 -0.06048
19.75 -0.05612
19.8 -0.04996
19.85 -0.04156
19.9 -0.03344
19.95 -0.02543
20 -0.02168
20.05 -0.01676
20.1 -0.01182
20.15 -0.01494
20.2 -0.01572
20.25 -0.01914
20.3 -0.02728
20.35 -0.03267
20.4 -0.03297
20.45 -0.02888
20.5 -0.02517
20.55 -0.02592
20.6 -0.02635
20.65 -0.02317
20.7 -0.02327
20.75 -0.02008
20.8 -0.01827
20.85 -0.01642
20.9 -0.01505
20.95 -0.01618
21 -0.01918
21.05 -0.02671
21.1 -0.02977
21.15 -0.0326
21.2 -0.03307
21.25 -0.03251
21.3 -0.03536
21.35 -0.03767
21.4 -0.03438
21.45 -0.03507
21.5 -0.03313
21.55 -0.02804
21.6 -0.02255
21.65 -0.01917
21.7 -0.02192
21.75 -0.0285
21.8 -0.03265
21.85 -0.03121
21.9 -0.03138
21.95 -0.03192
22 -0.02738
22.05 -0.02055
22.1 -0.01688
22.15 -0.01563
22.2 -0.01895
22.25 -0.01718
22.3 -0.01839
22.35 -0.01825
22.4 -0.01403
22.45 -0.01021
22.5 -0.00565
22.55 -0.0086
22.6 -0.01602
22.65 -0.01897
22.7 -0.02409
22.75 -0.02433
22.8 -0.02164
22.85 -0.01636
22.9 -0.0121
22.95 -0.01105
23 -0.01003
23.05 -0.01261
23.1 -0.01929
23.15 -0.02623
23.2 -0.02804
23.25 -0.02798
23.3 -0.02244
23.35 -0.01653
23.4 -0.00933
23.45 -0.00933
23.5 -0.00855
23.55 -0.01196
23.6 -0.01037
23.65 -0.01294
23.7 -0.01571
23.75 -0.01654
23.8 -0.01445
23.85 -0.01254
23.9 -0.01624
23.95 -0.02207
24 -0.02195
24.05 -0.02136
24.1 -0.02003
24.15 -0.01844
24.2 -0.01721
24.25 -0.01621
24.3 -0.0146
24.35 -0.01077
24.4 -0.00675
24.45 -0.00633
24.5 -0.00388
24.55 -0.00183
24.6 -0.00472
24.65 -0.0083
24.7 -0.00635
24.75 -0.00555
24.8 -0.01016
24.85 -0.00988
24.9 -0.01292
24.95 -0.01735
25 -0.02237
25.05 -0.02572
25.1 -0.02254
25.15 -0.01534
25.2 -0.01326
25.25 -0.00829
25.3 -0.00494
25.35 -0.00405
25.4 -0.00381
25.45 -0.00041
25.5 -0.00174
25.55 -0.00654
25.6 -0.01219
25.65 -0.0113
25.7 -0.01233
25.75 -0.01113
25.8 -0.00725
25.85 -0.00296
25.9 -0.00003
25.95 -0.00074
26 0.0024
26.05 0.00781
26.1 0.00747
26.15 0.00338
26.2 -0.00184
26.25 -0.00834
26.3 -0.01224
26.35 -0.01066
26.4 -0.00805
26.45 -0.00257
26.5 0.0037
26.55 0.00831
26.6 0.0097
26.65 0.00461
26.7 -0.00086
26.75 -0.00921
26.8 -0.01506
26.85 -0.02126
26.9 -0.02431
26.95 -0.02893
27 -0.03446
27.05 -0.03105
27.1 -0.02993
27.15 -0.03052
27.2 -0.02813
27.25 -0.02133
27.3 -0.01792
27.35 -0.01516
27.4 -0.01691
27.45 -0.01763
27.5 -0.01936
27.55 -0.02181
27.6 -0.02347
27.65 -0.02281
27.7 -0.02225
27.75 -0.01888
27.8 -0.01454
27.85 -0.01418
27.9 -0.01247
27.95 -0.01059
28 -0.00854
28.05 -0.00659
28.1 -0.00827
28.15 -0.01623
28.2 -0.02245
28.25 -0.0251
28.3 -0.0287
28.35 -0.03166
28.4 -0.04018
28.45 -0.04701
28.5 -0.05682
28.55 -0.07098
28.6 -0.08633
28.65 -0.09946
28.7 -0.11494
28.75 -0.1342
28.8 -0.15294
28.85 -0.17437
28.9 -0.20437
28.95 -0.2343
29 -0.26182
29.05 -0.28989
29.1 -0.3259
29.15 -0.36622
29.2 -0.40899
29.25 -0.4479
29.3 -0.48852
29.35 -0.52349
29.4 -0.56176
29.45 -0.59689
29.5 -0.63167
29.55 -0.66672
29.6 -0.69843
29.65 -0.72614
29.7 -0.75343
29.75 -0.77666
29.8 -0.7977
29.85 -0.8082
29.9 -0.81345
29.95 -0.81556
30 -0.81354
30.05 -0.8065
30.1 -0.79341
30.15 -0.77517
30.2 -0.75033
30.25 -0.71929
30.3 -0.68331
30.35 -0.6445
30.4 -0.5982
30.45 -0.54739
30.5 -0.4888
30.55 -0.43051
30.6 -0.37638
30.65 -0.3203
30.7 -0.26099
30.75 -0.19855
30.8 -0.14102
30.85 -0.08181
30.9 -0.03148
30.95 0.01668
31 0.06304
31.05 0.10971
31.1 0.14723
31.15 0.17911
31.2 0.20879
31.25 0.24103
31.3 0.27126
31.35 0.30039
31.4 0.32182
31.45 0.33977
31.5 0.35363
31.55 0.3718
31.6 0.38778
31.65 0.40355
31.7 0.41337
31.75 0.42129
31.8 0.43393
31.85 0.44939
31.9 0.4601
31.95 0.46874
32 0.47624
32.05 0.48402
32.1 0.49444
32.15 0.50463
32.2 0.51898
32.25 0.52696
32.3 0.5397
32.35 0.54828
32.4 0.557
32.45 0.56769
32.5 0.57362
32.55 0.57511
32.6 0.57663
32.65 0.57876
32.7 0.57749
32.75 0.58021
32.8 0.58536
32.85 0.58377
32.9 0.57825
32.95 0.57157
33 0.57006
33.05 0.5679
33.1 0.56582
33.15 0.55766
33.2 0.54564
33.25 0.53686
33.3 0.52809
33.35 0.51802
33.4 0.50693
33.45 0.49781
33.5 0.48691
33.55 0.47605
33.6 0.46796
33.65 0.46098
33.7 0.45074
33.75 0.44287
33.8 0.43489
33.85 0.42336
33.9 0.41139
33.95 0.39842
34 0.38809
34.05 0.37143
34.1 0.35322
34.15 0.3412
34.2 0.32807
34.25 0.31126
34.3 0.29423
34.35 0.282
34.4 0.27286
34.45 0.2663
34.5 0.26098
34.55 0.25366
34.6 0.2454
34.65 0.23816
34.7 0.23002
34.75 0.21877
34.8 0.2005
34.85 0.17889
34.9 0.15778
34.95 0.1393
35 0.12208
35.05 0.10433
35.1 0.08706
35.15 0.07798
35.2 0.07095
35.25 0.06156
35.3 0.05258
35.35 0.04937
35.4 0.04949
35.45 0.05106
35.5 0.05166
35.55 0.05083
35.6 0.04946
35.65 0.03886
35.7 0.02918
35.75 0.01549
35.8 0.00432
35.85 -0.00801
35.9 -0.02204
35.95 -0.03746
36 -0.04649
36.05 -0.05551
36.1 -0.06039
36.15 -0.06502
36.2 -0.07004
36.25 -0.0754
36.3 -0.07538
36.35 -0.07924
36.4 -0.08051
36.45 -0.08579
36.5 -0.09189
36.55 -0.09715
36.6 -0.10181
36.65 -0.10068
36.7 -0.10077
36.75 -0.10556
36.8 -0.10879
36.85 -0.11056
36.9 -0.10783
36.95 -0.10348
37 -0.10118
37.05 -0.0973
37.1 -0.0988
37.15 -0.0996
37.2 -0.10107
37.25 -0.1072
37.3 -0.11373
37.35 -0.11622
37.4 -0.1207
37.45 -0.12101
37.5 -0.12313
37.55 -0.11878
37.6 -0.11054
37.65 -0.10319
37.7 -0.09894
37.75 -0.10064
37.8 -0.10153
37.85 -0.10612
37.9 -0.1112
37.95 -0.1109
38 -0.10659
38.05 -0.10457
38.1 -0.09841
38.15 -0.09175
38.2 -0.08636
38.25 -0.08383
38.3 -0.0874
38.35 -0.09313
38.4 -0.09777
38.45 -0.09716
38.5 -0.09675
38.55 -0.0912
38.6 -0.08522
38.65 -0.07937
38.7 -0.07443
38.75 -0.06978
38.8 -0.06365
38.85 -0.06038
38.9 -0.05823
38.95 -0.06276
39 -0.06403
39.05 -0.06433
39.1 -0.06374
39.15 -0.06322
39.2 -0.05917
39.25 -0.06227
39.3 -0.064
39.35 -0.06315
39.4 -0.06773
39.45 -0.06947
39.5 -0.07468
39.55 -0.07862
39.6 -0.08456
39.65 -0.09044
39.7 -0.0919
39.75 -0.08752
39.8 -0.08055
39.85 -0.0701
39.9 -0.06177
39.95 -0.05358
40 -0.04932
40.05 -0.0503
40.1 -0.04864
40.15 -0.05093
40.2 -0.05469
40.25 -0.05858
40.3 -0.05853
40.35 -0.06224
40.4 -0.06397
40.45 -0.06273
40.5 -0.05772
40.55 -0.05027
40.6 -0.04761
40.65 -0.04451
40.7 -0.0416
40.75 -0.03739
40.8 -0.03582
40.85 -0.03149
40.9 -0.03222
40.95 -0.03628
41 -0.03721
41.05 -0.03845
41.1 -0.0436
41.15 -0.04226
41.2 -0.04377
41.25 -0.04153
41.3 -0.03601
41.35 -0.03315
41.4 -0.03264
41.45 -0.03396
41.5 -0.03419
41.55 -0.03361
41.6 -0.03391
41.65 -0.03586
41.7 -0.03417
41.75 -0.03381
41.8 -0.03148
41.85 -0.02934
41.9 -0.02544
41.95 -0.02095
42 -0.02374
42.05 -0.02844
42.1 -0.02719
42.15 -0.02457
42.2 -0.01924
42.25 -0.02037
42.3 -0.01842
42.35 -0.01712
42.4 -0.01329
42.45 -0.00778
42.5 -0.00438
42.55 -0.00346
42.6 -0.00895
42.65 -0.01011
42.7 -0.01147
42.75 -0.01092
42.8 -0.01175
42.85 -0.01238
42.9 -0.01585
42.95 -0.01608
43 -0.02145
43.05 -0.02258
43.1 -0.02239
43.15 -0.02529
43.2 -0.02811
43.25 -0.0287
43.3 -0.02852
43.35 -0.02654
43.4 -0.02508
43.45 -0.02558
43.5 -0.02468
43.55 -0.02371
43.6 -0.02053
43.65 -0.0214
43.7 -0.0268
43.75 -0.02909
43.8 -0.03292
43.85 -0.03039
43.9 -0.02923
43.95 -0.02461
44 -0.02318
44.05 -0.02345
44.1 -0.02456
44.15 -0.02027
44.2 -0.01599
44.25 -0.01301
44.3 -0.01146
44.35 -0.00795
44.4 -0.00939
44.45 -0.01102
44.5 -0.01158
44.55 -0.01006
44.6 -0.00563
44.65 -0.00775
44.7 -0.00535
44.75 -0.00113
44.8 -0.00088
44.85 -0.00431
44.9 -0.00515
44.95 -0.00242
45 -0.0038
45.05 -0.00811
45.1 -0.01267
45.15 -0.01768
45.2 -0.01673
45.25 -0.01741
45.3 -0.01712
45.35 -0.01287
45.4 -0.01349
45.45 -0.01525
45.5 -0.0195
45.55 -0.02414
45.6 -0.02956
45.65 -0.02971
45.7 -0.02518
45.75 -0.01746
45.8 -0.01597
45.85 -0.01324
45.9 -0.01544
45.95 -0.01709
46 -0.02233
46.05 -0.02776
46.1 -0.03077
46.15 -0.02828
46.2 -0.02956
46.25 -0.02752
46.3 -0.02624
46.35 -0.02314
46.4 -0.01829
46.45 -0.01051
46.5 -0.00395
46.55 -0.00013
46.6 0.00163
46.65 0.00618
46.7 0.00766
46.75 0.01091
46.8 0.01126
46.85 0.00995
46.9 0.00946
46.95 0.00607
47 0.0014
47.05 -0.00032
47.1 0.00129
47.15 -0.00036
47.2 -0.00167
47.25 -0.00457
47.3 -0.00991
47.35 -0.01629
47.4 -0.02196
47.45 -0.02834
47.5 -0.03318
47.55 -0.03428
47.6 -0.03023
47.65 -0.0229
47.7 -0.021
47.75 -0.02087
47.8 -0.01548
47.85 -0.01109
47.9 -0.00424
47.95 -0.00214
48 -0.00433
48.05 -0.00729
48.1 -0.0066
48.15 -0.00882
48.2 -0.01435
48.25 -0.01726
48.3 -0.01985
48.35 -0.0205
48.4 -0.01919
48.45 -0.01677
48.5 -0.01392
48.55 -0.01362
48.6 -0.01678
48.65 -0.0134
48.7 -0.01209
48.75 -0.0141
48.8 -0.01852
48.85 -0.01984
48.9 -0.02028
48.95 -0.01524
49 -0.00996
49.05 -0.00881
49.1 -0.01132
49.15 -0.01262
49.2 -0.01573
49.25 -0.01632
49.3 -0.01845
49.35 -0.01681
49.4 -0.01854
49.45 -0.0151
49.5 -0.01084
49.55 -0.00777
49.6 -0.00187
49.65 0.00142
49.7 -0.00027
49.75 -0.00324
49.8 -0.00682
49.85 -0.00495
49.9 -0.00487
49.95 -0.00462
50 -0.00317
50.05 -0.00114
50.1 -0.00243
50.15 0.00091
50.2 -0.00023
50.25 0.00037
50.3 0.00056
50.35 0.00088
50.4 0.00506
50.45 0.0032
50.5 0.00081
50.55 0.00322
50.6 0.00752
50.65 0.00676
50.7 0.00652
50.75 0.01011
50.8 0.01366
50.85 0.0138
50.9 0.00896
50.95 0.0035
51 -0.00389
51.05 -0.01125
51.1 -0.01317
51.15 -0.00939
51.2 -0.00299
51.25 0.00095
51.3 0.00547
51.35 0.00586
51.4 0.00547
51.45 0.00119
51.5 -0.00183
51.55 -0.00198
51.6 -0.00356
51.65 -0.00229
51.7 -0.00333
51.75 -0.00177
51.8 -0.00209
51.85 -0.00486
51.9 -0.00539
51.95 -0.00442
52 -0.00253
52.05 -0.00295
52.1 -0.00747
52.15 -0.01177
52.2 -0.011
52.25 -0.00823
52.3 -0.00561
52.35 -0.00302
52.4 -0.00329
52.45 -0.00143
52.5 0.00378
52.55 0.00507
52.6 0.00855
52.65 0.0121
52.7 0.01388
52.75 0.01787
52.8 0.01792
52.85 0.01724
52.9 0.01357
52.95 0.00761
53 -0.00013
53.05 -0.00693
53.1 -0.00869
53.15 -0.0084
53.2 -0.00759
53.25 -0.0048
53.3 -0.00607
53.35 -0.00514
53.4 -0.00529
53.45 -0.00538
53.5 -0.00393
53.55 -0.00489
53.6 -0.00542
53.65 -0.00837
53.7 -0.01127
53.75 -0.01578
53.8 -0.01663
53.85 -0.01821
53.9 -0.01534
53.95 -0.01141
54 -0.00987
54.05 -0.01114
54.1 -0.01098
54.15 -0.0097
54.2 -0.00453
54.25 -0.00506
54.3 -0.00336
54.35 -0.00318
54.4 -0.00465
54.45 -0.00423
54.5 -0.00649
54.55 -0.01051
54.6 -0.00836
54.65 -0.00151
54.7 0.00701
54.75 0.00728
54.8 0.00341
54.85 -0.00385
54.9 -0.00557
54.95 -0.00992
55 -0.01014
55.05 -0.01218
55.1 -0.00872
55.15 -0.00768
55.2 -0.00285
55.25 0.00116
55.3 0.00038
55.35 0.00202
55.4 -0.001
55.45 0.00054
55.5 0.00322
55.55 0.00512
55.6 0.00971
55.65 0.01562
55.7 0.02218
55.75 0.02048
55.8 0.01384
55.85 0.00989
55.9 0.01021
55.95 0.00787
56 0.00507
56.05 0.00625
56.1 0.00568
56.15 0.00633
56.2 0.00522
56.25 0.00783
56.3 0.01279
56.35 0.01868
56.4 0.02406
56.45 0.02291
56.5 0.02222
56.55 0.02297
56.6 0.01743
56.65 0.00955
56.7 0.0079
56.75 0.00412
56.8 -0.00131
56.85 -0.00099
56.9 0.0032
56.95 0.0083
57 0.00953
57.05 0.0115
57.1 0.0155
57.15 0.01571
57.2 0.01653
57.25 0.01158
57.3 0.0036
57.35 0.00216
57.4 0.00468
57.45 0.00512
57.5 0.00051
57.55 0.001
57.6 0.003
57.65 0.00512
57.7 0.00442
57.75 -0.0013
57.8 -0.00294
57.85 -0.00142
57.9 0.00336
57.95 0.00649
58 0.00965
58.05 0.01132
58.1 0.01088
58.15 0.00781
58.2 0.00104
58.25 -0.0033
58.3 -0.00247
58.35 -0.00319
58.4 -0.00149
58.45 -0.00372
58.5 -0.00165
58.55 -0.00314
58.6 -0.00027
58.65 -0.00161
58.7 -0.00356
58.75 -0.0041
58.8 -0.00481
58.85 -0.00621
58.9 -0.00511
58.95 -0.00003
59 -0.00001
59.05 0.00175
59.1 0.00488
59.15 0.00424
59.2 0.00062
59.25 -0.00097
59.3 -0.00387
59.35 -0.00782
59.4 -0.00633
59.45 -0.00411
59.5 -0.00662
59.55 -0.00418
59.6 -0.00677
59.65 -0.00632
59.7 -0.00234
59.75 -0.00255
59.8 -0.0066
59.85 -0.00489
59.9 -0.00316
59.95 -0.00064
60 0.00463
60.05 0.01073
60.1 0.00982
60.15 0.00932
60.2 0.00713
60.25 0.00251
60.3 -0.00126
60.35 -0.00255
60.4 -0.00712
60.45 -0.01247
60.5 -0.01871
60.55 -0.01895
60.6 -0.02247
60.65 -0.02702
60.7 -0.02919
60.75 -0.03269
60.8 -0.03257
60.85 -0.02996
60.9 -0.0262
60.95 -0.01918
61 -0.01322
61.05 -0.00392
61.1 0.00039
61.15 -0.00126
61.2 -0.00108
61.25 0.00085
61.3 0.00511
61.35 0.00309
61.4 0.00552
61.45 0.00635
61.5 0.00475
61.55 0.00025
61.6 -0.00102
61.65 -0.00215
61.7 -0.00384
61.75 -0.00324
61.8 -0.00357
61.85 -0.00176
61.9 -0.00163
61.95 0.00072
62 -0.00236
62.05 -0.00459
62.1 -0.0097
62.15 -0.01393
62.2 -0.0115
62.25 -0.00547
62.3 -0.0038
62.35 -0.00234
62.4 -0.00533
62.45 -0.01024
62.5 -0.01699
62.55 -0.01746
62.6 -0.01292
62.65 -0.00717
62.7 -0.0039
62.75 -0.00409
62.8 -0.00789
62.85 -0.00967
62.9 -0.01049
62.95 -0.01169
63 -0.00876
63.05 -0.00435
63.1 -0.00552
63.15 -0.00897
63.2 -0.00978
63.25 -0.00467
63.3 0.00166
63.35 0.00267
63.4 0.00596
63.45 0.00624
63.5 0.00202
63.55 0.00381
63.6 0.00785
63.65 0.00952
63.7 0.00585
63.75 0.00299
63.8 0.00104
63.85 0.00253
63.9 0.002
63.95 0.00462
64 0.00665
64.05 0.00959
64.1 0.01279
64.15 0.01275
64.2 0.0092
64.25 0.00845
64.3 0.00626
64.35 0.00793
64.4 0.00911
64.45 0.008
64.5 0.00309
64.55 0.00221
64.6 -0.00114
64.65 -0.00226
64.7 -0.00748
64.75 -0.01188
64.8 -0.01663
64.85 -0.01395
64.9 -0.00783
64.95 0.00101
65 0.00952
65.05 0.01549
65.1 0.01414
65.15 0.00955
65.2 0.00854
65.25 0.00418
65.3 -0.00023
65.35 0.00141
65.4 0.00641
65.45 0.01032
65.5 0.00833
65.55 0.00914
65.6 0.0103
65.65 0.00862
65.7 0.00708
65.75 0.00972
65.8 0.00927
65.85 0.00752
65.9 0.00265
65.95 -0.00508
66 -0.00604
66.05 -0.00301
66.1 -0.0034
66.15 -0.00035
66.2 0.00237
66.25 0.00242
66.3 0.00347
66.35 0.00528
66.4 0.00191
66.45 -0.00133
66.5 0.0007
66.55 0.00094
66.6 -0.00215
66.65 -0.00514
66.7 -0.00344
66.75 -0.00641
66.8 -0.00945
66.85 -0.00967
66.9 -0.01306
66.95 -0.01483
67 -0.01875
67.05 -0.01945
67.1 -0.01999
67.15 -0.02051
67.2 -0.01986
67.25 -0.01637
67.3 -0.01211
67.35 -0.01017
67.4 -0.01019
67.45 -0.00623
67.5 -0.00477
67.55 0.00025
67.6 0.00196
67.65 0.00375
67.7 0.00722
67.75 0.00859
67.8 0.00914
67.85 0.01202
67.9 0.01735
67.95 0.01762
68 0.01715
68.05 0.01421
68.1 0.0133
68.15 0.01355
68.2 0.01169
68.25 0.01176
68.3 0.00692
68.35 0.00746
68.4 0.01046
68.45 0.01114
68.5 0.01107
68.55 0.01316
68.6 0.01392
68.65 0.00954
68.7 0.00513
68.75 0.00408
68.8 -0.00182
68.85 -0.00194
68.9 -0.00432
68.95 -0.00563
69 -0.00933
69.05 -0.01311
69.1 -0.0178
69.15 -0.01848
69.2 -0.01866
69.25 -0.01433
69.3 -0.01198
69.35 -0.01332
69.4 -0.00997
69.45 -0.00545
69.5 -0.00139
69.55 0.00312
69.6 0.00208
69.65 0.00029
69.7 -0.00521
69.75 -0.01202
69.8 -0.01487
69.85 -0.01479
69.9 -0.01262
69.95 -0.00675
70 0.00033
70.05 0.00175
70.1 -0.00188
70.15 -0.00714
70.2 -0.01089
70.25 -0.01428
70.3 -0.01809
70.35 -0.01485
70.4 -0.01176
70.45 -0.01174
70.5 -0.00744
70.55 -0.00065
70.6 0.00715
70.65 0.01159
70.7 0.01024
70.75 0.00896
70.8 0.00493
70.85 0.00585
70.9 0.00582
70.95 0.00948
71 0.01137
71.05 0.01078
71.1 0.01221
71.15 0.01637
71.2 0.01919
71.25 0.01942
71.3 0.02187
71.35 0.02126
71.4 0.01448
71.45 0.01259
71.5 0.00703
71.55 0.00615
71.6 0.00851
71.65 0.01325
71.7 0.01448
71.75 0.01121
71.8 0.00756
71.85 0.00817
71.9 0.00611
71.95 -0.00035
72 -0.0007
72.05 0.00304
72.1 0.0003
72.15 -0.00587
72.2 -0.01255
72.25 -0.01529
72.3 -0.01599
72.35 -0.01531
72.4 -0.01097
72.45 -0.01136
72.5 -0.01435
72.55 -0.01558
72.6 -0.01773
72.65 -0.02218
72.7 -0.0277
72.75 -0.02757
72.8 -0.02491
72.85 -0.02339
72.9 -0.016
72.95 -0.01277
73 -0.00702
73.05 -0.00037
73.1 0.0072
73.15 0.0082
73.2 0.0105
73.25 0.00935
73.3 0.00947
73.35 0.01191
73.4 0.01422
73.45 0.01885
73.5 0.02198
73.55 0.02622
73.6 0.02995
73.65 0.03181
73.7 0.03384
73.75 0.03366
73.8 0.03338
73.85 0.02953
73.9 0.02881
73.95 0.02477
74 0.02331
74.05 0.02085
74.1 0.01588
74.15 0.00793
74.2 0.00341
74.25 0.0009
74.3 -0.00087
74.35 -0.00119
74.4 -0.00363
74.45 -0.00866
74.5 -0.00801
74.55 -0.0103
74.6 -0.00942
74.65 -0.01188
74.7 -0.01361
74.75 -0.01562
74.8 -0.01435
74.85 -0.01022
74.9 -0.00445
74.95 -0.0034
75 -0.00615
75.05 -0.00374
75.1 -0.00312
75.15 0.00004
75.2 0.00425
75.25 0.00283
75.3 -0.00129
75.35 -0.00137
75.4 -0.00384
75.45 -0.00528
75.5 -0.01035
75.55 -0.01637
75.6 -0.01875
75.65 -0.01509
75.7 -0.01197
75.75 -0.00766
75.8 -0.00347
75.85 -0.00174
75.9 -0.00269
75.95 -0.00548
76 -0.01061
76.05 -0.0158
76.1 -0.02003
76.15 -0.02358
76.2 -0.02608
76.25 -0.02678
76.3 -0.02881
76.35 -0.02489
76.4 -0.01845
76.45 -0.01079
76.5 -0.00232
76.55 0.00441
76.6 0.00842
76.65 0.0082
76.7 0.00757
76.75 0.00921
76.8 0.00531
76.85 -0.00109
76.9 -0.00252
76.95 -0.00735
77 -0.01273
77.05 -0.01397
77.1 -0.01672
77.15 -0.01602
77.2 -0.01105
77.25 -0.00784
77.3 -0.00843
77.35 -0.00504
77.4 0.00092
77.45 0.00808
77.5 0.00826
77.55 0.01066
77.6 0.00788
77.65 0.00974
77.7 0.01273
77.75 0.0146
77.8 0.01391
77.85 0.01279
77.9 0.01112
77.95 0.00999
78 0.01206
78.05 0.01366
78.1 0.01285
78.15 0.00832
78.2 0.00751
78.25 0.00543
78.3 0.00579
78.35 0.00207
78.4 -0.00453
78.45 -0.00869
78.5 -0.01465
78.55 -0.01456
78.6 -0.01015
78.65 -0.01041
78.7 -0.01037
78.75 -0.01285
78.8 -0.01132
78.85 -0.0137
78.9 -0.00971
78.95 -0.00797
79 -0.00524
79.05 -0.00498
79.1 -0.00845
79.15 -0.01375
79.2 -0.01806
79.25 -0.02052
79.3 -0.02208
79.35 -0.01827
79.4 -0.01215
79.45 -0.00828
79.5 -0.00084
79.55 0.00192
79.6 0.00727
79.65 0.01079
79.7 0.01117
79.75 0.00732
79.8 0.00277
79.85 0.00154
79.9 0.00055
79.95 0.00015
80 0.00059
80.05 0.00123
80.1 0.00036
80.15 -0.00039
80.2 0.00328
80.25 0.00303
80.3 0.00206
80.35 -0.00224
80.4 -0.0072
80.45 -0.00924
80.5 -0.01205
80.55 -0.01255
80.6 -0.01584
80.65 -0.01666
80.7 -0.01812
80.75 -0.018
80.8 -0.01891
80.85 -0.01871
80.9 -0.01515
80.95 -0.00952
81 -0.00289
81.05 -0.00138
81.1 0.00248
81.15 0.00205
81.2 0.00383
81.25 0.00667
81.3 0.00876
81.35 0.00615
81.4 0.00772
81.45 0.01095
81.5 0.00893
81.55 0.00669
81.6 0.00214
81.65 -0.00323
81.7 -0.0041
81.75 -0.00467
81.8 -0.00397
81.85 0.00138
81.9 0.00283
81.95 0.00605
82 0.01152
82.05 0.01524
82.1 0.02074
82.15 0.02049
82.2 0.01618
82.25 0.01346
82.3 0.01065
82.35 0.01095
82.4 0.01146
82.45 0.01099
82.5 0.00862
82.55 0.00953
82.6 0.01061
82.65 0.00665
82.7 0.00089
82.75 0.00159
82.8 0.00489
82.85 0.00535
82.9 0.00801
82.95 0.01237
83 0.01108
83.05 0.00725
83.1 0.00551
83.15 0.00121
83.2 -0.00154
83.25 -0.00496
83.3 -0.00625
83.35 -0.00343
83.4 -0.00129
83.45 0.00152
83.5 -0.00114
83.55 -0.00508
83.6 -0.00776
83.65 -0.00843
83.7 -0.0128
83.75 -0.01574
83.8 -0.02077
83.85 -0.0206
83.9 -0.0163
83.95 -0.01417
84 -0.00997
84.05 -0.00522
84.1 -0.00012
84.15 -0.00135
84.2 -0.00405
84.25 -0.0022
84.3 -0.00243
84.35 -0.00444
84.4 -0.00587
84.45 -0.00797
84.5 -0.00629
84.55 -0.00889
84.6 -0.00797
84.65 -0.00629
84.7 -0.00695
84.75 -0.00348
84.8 0.00365
84.85 0.01135
84.9 0.01374
84.95 0.01734
85 0.02175
85.05 0.02147
85.1 0.01771
85.15 0.01106
85.2 0.00767
85.25 0.00053
85.3 -0.00142
85.35 0.00176
85.4 0.00449
85.45 0.0071
85.5 0.00688
85.55 0.00781
85.6 0.0098
85.65 0.00699
85.7 0.00834
85.75 0.00481
85.8 -0.00162
85.85 -0.00853
85.9 -0.01544
85.95 -0.01668
86 -0.02049
86.05 -0.01709
86.1 -0.00971
86.15 -0.00464
86.2 -0.00213
86.25 0.00157
86.3 0.00404
86.35 0.00419
86.4 0.00278
86.45 0.00621
86.5 0.00693
86.55 0.00237
86.6 0.00057
86.65 -0.00343
86.7 -0.00113
86.75 -0.00357
86.8 -0.00261
86.85 -0.00458
86.9 -0.00239
86.95 -0.00245
87 0.00146
87.05 0.00311
87.1 0.00604
87.15 0.00701
87.2 0.00583
87.25 0.00404
87.3 -0.00157
87.35 -0.00819
87.4 -0.00982
87.45 -0.01264
87.5 -0.01512
87.55 -0.01905
87.6 -0.0227
87.65 -0.02628
87.7 -0.02957
87.75 -0.03004
87.8 -0.03097
87.85 -0.03194
87.9 -0.02763
87.95 -0.02201
88 -0.01719
88.05 -0.00869
88.1 -0.00385
88.15 -0.00296
88.2 0.00149
88.25 0.00917
88.3 0.0136
88.35 0.01262
88.4 0.0105
88.45 0.01266
88.5 0.01715
88.55 0.02264
88.6 0.0249
88.65 0.02687
88.7 0.02382
88.75 0.02423
88.8 0.02404
88.85 0.02052
88.9 0.01753
88.95 0.01564
89 0.01203
89.05 0.00873
89.1 0.00675
89.15 0.00052
89.2 -0.00192
89.25 -0.00591
89.3 -0.01059
89.35 -0.01487
89.4 -0.01999
89.45 -0.02588
89.5 -0.03016
89.55 -0.03168
89.6 -0.02924
89.65 -0.02896
89.7 -0.02857
89.75 -0.02834
89.8 -0.02248
89.85 -0.01952
89.9 -0.01979
89.95 -0.01571
90 -0.00734
90.05 -0.00163
90.1 0.00047
90.15 0.00277
90.2 0.00803
90.25 0.01001
90.3 0.01122
90.35 0.01333
90.4 0.01441
90.45 0.01069
90.5 0.00767
90.55 0.00211
90.6 -0.00506
90.65 -0.00775
90.7 -0.01302
90.75 -0.01551
90.8 -0.01449
90.85 -0.0077
90.9 -0.00056
90.95 0.00439
91 0.00661
91.05 0.00377
91.1 0.00062
91.15 -0.00279
91.2 -0.00661
91.25 -0.00467
91.3 -0.00218
91.35 -0.00215
91.4 0.00022
91.45 0.00659
91.5 0.00854
91.55 0.00676
91.6 0.0084
91.65 0.00475
91.7 -0.00118
91.75 -0.00838
91.8 -0.01348
91.85 -0.01452
91.9 -0.01152
91.95 -0.01077
92 -0.00685
92.05 -0.00267
92.1 0.00136
92.15 0.00024
92.2 0.00068
92.25 -0.00336
92.3 -0.00954
92.35 -0.01021
92.4 -0.01235
92.45 -0.01426
92.5 -0.01767
92.55 -0.01608
92.6 -0.01683
92.65 -0.01335
92.7 -0.00945
92.75 -0.00403
92.8 -0.003
92.85 -0.00523
92.9 -0.0018
92.95 -0.00056
93 -0.00253
93.05 -0.00054
93.1 -0.00236
93.15 0.0016
93.2 0.00062
93.25 -0.00182
93.3 -0.00411
93.35 -0.00046
93.4 0.00646
93.45 0.01365
93.5 0.01443
93.55 0.01772
93.6 0.01891
93.65 0.01751
93.7 0.01203
93.75 0.0111
93.8 0.01232
93.85 0.01627
93.9 0.01323
93.95 0.01422
94 0.01275
94.05 0.01228
94.1 0.00865
94.15 0.01018
94.2 0.01044
94.25 0.00976
94.3 0.00688
94.35 0.00855
94.4 0.01185
94.45 0.01048
94.5 0.00775
94.55 0.00805
94.6 0.0074
94.65 0.00874
94.7 0.01115
94.75 0.00777
94.8 0.00661
94.85 0.00157
94.9 -0.00076
94.95 -0.00363
95 -0.00759
95.05 -0.00727
95.1 -0.00739
95.15 -0.00232
95.2 -0.00223
95.25 0.00057
95.3 0.00322
95.35 0.00071
95.4 -0.0024
95.45 -0.00206
95.5 0.00237
95.55 0.00151
95.6 0.00546
95.65 0.00442
95.7 0.00688
95.75 0.00886
95.8 0.00825
95.85 0.00698
95.9 0.00255
95.95 0.00037
96 -0.00119
96.05 -0.00297
96.1 -0.0004
96.15 0.0005
96.2 0.00396
96.25 0.00897
96.3 0.00787
96.35 0.00575
96.4 -0.00001
96.45 -0.00265
96.5 -0.00419
96.55 -0.00588
96.6 -0.00807
96.65 -0.00973
96.7 -0.01263
96.75 -0.01518
96.8 -0.018
96.85 -0.02026
96.9 -0.01741
96.95 -0.01588
97 -0.01083
97.05 -0.00715
97.1 -0.00559
97.15 -0.00495
97.2 0.00067
97.25 0.00731
97.3 0.01202
97.35 0.01871
97.4 0.02576
97.45 0.02638
97.5 0.02146
97.55 0.01533
97.6 0.0089
97.65 0.00095
97.7 -0.00083
97.75 -0.00013
97.8 0.0023
97.85 0.00707
97.9 0.00991
97.95 0.00732
98 0.00397
98.05 0.00367
98.1 -0.00036
98.15 -0.00073
98.2 -0.00353
98.25 -0.00273
98.3 -0.00519
98.35 -0.00391
98.4 -0.00223
98.45 -0.00523
98.5 -0.01085
98.55 -0.01141
98.6 -0.01172
98.65 -0.01051
98.7 -0.00728
98.75 -0.00393
98.8 -0.00543
98.85 -0.00328
98.9 0.00302
98.95 0.00865
99 0.01338
99.05 0.0121
99.1 0.01459
99.15 0.01327
99.2 0.0143
99.25 0.00951
99.3 0.00393
99.35 -0.00403
99.4 -0.0054
99.45 -0.00176
99.5 -0.00014
99.55 -0.00308
99.6 -0.00629
99.65 -0.00955
99.7 -0.0075
99.75 -0.00797
99.8 -0.00852
99.85 -0.01018
99.9 -0.01363
99.95 -0.01715
