0 0
0.05 0.00724
0.1 0.01937
0.15 0.03282
0.2 0.04703
0.25 0.05298
0.3 0.06143
0.35 0.07065
0.4 0.07467
0.45 0.07062
0.5 0.06476
0.55 0.06097
0.6 0.05566
0.65 0.05006
0.7 0.04515
0.75 0.04209
0.8 0.04397
0.85 0.04126
0.9 0.03648
0.95 0.03235
1 0.02742
1.05 0.02284
1.1 0.02151
1.15 0.02144
1.2 0.02289
1.25 0.02784
1.3 0.03013
1.35 0.03467
1.4 0.03945
1.45 0.04051
1.5 0.03941
1.55 0.04268
1.6 0.04473
1.65 0.04698
1.7 0.05098
1.75 0.05459
1.8 0.05912
1.85 0.06019
1.9 0.05758
1.95 0.0549
2 0.05557
2.05 0.0563
2.1 0.05124
2.15 0.04814
2.2 0.04073
2.25 0.03174
2.3 0.02879
2.35 0.02875
2.4 0.02657
2.45 0.02676
2.5 0.02737
2.55 0.02598
2.6 0.02662
2.65 0.02974
2.7 0.02802
2.75 0.03
2.8 0.02961
2.85 0.02466
2.9 0.02328
2.95 0.01814
3 0.01364
3.05 0.01158
3.1 0.01243
3.15 0.01439
3.2 0.01828
3.25 0.0166
3.3 0.01333
3.35 0.01487
3.4 0.01858
3.45 0.02182
3.5 0.02176
3.55 0.01828
3.6 0.01264
3.65 0.00893
3.7 0.00539
3.75 0.0056
3.8 0.01081
3.85 0.01403
3.9 0.01413
3.95 0.01161
4 0.01143
4.05 0.01213
4.1 0.01337
4.15 0.01639
4.2 0.02157
4.25 0.0264
4.3 0.02244
4.35 0.01956
4.4 0.01214
4.45 0.00622
4.5 -0.00124
4.55 -0.01482
4.6 -0.02937
4.65 -0.04544
4.7 -0.06217
4.75 -0.07821
4.8 -0.09662
4.85 -0.11801
4.9 -0.1485
4.95 -0.17784
5 -0.20926
5.05 -0.24382
5.1 -0.28768
5.15 -0.34027
5.2 -0.39594
5.25 -0.45439
5.3 -0.51985
5.35 -0.58733
5.4 -0.65858
5.45 -0.72874
5.5 -0.80031
5.55 -0.86881
5.6 -0.94351
5.65 -1.01257
5.7 -1.07721
5.75 -1.13688
5.8 -1.19034
5.85 -1.23781
5.9 -1.27979
5.95 -1.31803
6 -1.35288
6.05 -1.38286
6.1 -1.40581
6.15 -1.42154
6.2 -1.42885
6.25 -1.42962
6.3 -1.42432
6.35 -1.40598
6.4 -1.37778
6.45 -1.34204
6.5 -1.30303
6.55 -1.26086
6.6 -1.21771
6.65 -1.16549
6.7 -1.10783
6.75 -1.04271
6.8 -0.973
6.85 -0.90369
6.9 -0.83004
6.95 -0.75226
7 -0.66858
7.05 -0.57095
7.1 -0.46675
7.15 -0.35719
7.2 -0.24832
7.25 -0.13309
7.3 -0.01286
7.35 0.10068
7.4 0.21135
7.45 0.32051
7.5 0.42878
7.55 0.52822
7.6 0.62674
7.65 0.71903
7.7 0.80737
7.75 0.88591
7.8 0.9621
7.85 1.03385
7.9 1.09581
7.95 1.1455
8 1.18628
8.05 1.22019
8.1 1.2495
8.15 1.26974
8.2 1.28259
8.25 1.29631
8.3 1.30811
8.35 1.31664
8.4 1.31727
8.45 1.31779
8.5 1.31206
8.55 1.30808
8.6 1.29818
8.65 1.28374
8.7 1.26694
8.75 1.24469
8.8 1.22143
8.85 1.19841
8.9 1.17051
8.95 1.14601
9 1.1255
9.05 1.10586
9.1 1.08777
9.15 1.06545
9.2 1.04285
9.25 1.02197
9.3 0.99522
9.35 0.97119
9.4 0.94882
9.45 0.92594
9.5 0.90093
9.55 0.86951
9.6 0.83601
9.65 0.80605
9.7 0.78219
9.75 0.75533
9.8 0.73345
9.85 0.70791
9.9 0.68318
9.95 0.66222
10 0.64411
10.05 0.62348
10.1 0.60048
10.15 0.57531
10.2 0.55802
10.25 0.53677
10.3 0.51699
10.35 0.49543
10.4 0.47466
10.45 0.45196
10.5 0.43468
10.55 0.41787
10.6 0.40086
10.65 0.38738
10.7 0.37437
10.75 0.36204
10.8 0.34738
10.85 0.32943
10.9 0.30654
10.95 0.28184
11 0.25879
11.05 0.23615
11.1 0.21144
11.15 0.19057
11.2 0.17098
11.25 0.15629
11.3 0.14398
11.35 0.13049
11.4 0.1154
11.45 0.09727
11.5 0.08099
11.55 0.06333
11.6 0.04036
11.65 0.01706
11.7 -0.00614
11.75 -0.02445
11.8 -0.03818
11.85 -0.04956
11.9 -0.06354
11.95 -0.07317
12 -0.08642
12.05 -0.09797
12.1 -0.10366
12.15 -0.11345
12.2 -0.12401
12.25 -0.13027
12.3 -0.13991
12.35 -0.14772
12.4 -0.15506
12.45 -0.16075
12.5 -0.16432
12.55 -0.16851
12.6 -0.16755
12.65 -0.16652
12.7 -0.16955
12.75 -0.17196
12.8 -0.17348
12.85 -0.17374
12.9 -0.17287
12.95 -0.17043
13 -0.17353
13.05 -0.17485
13.1 -0.17455
13.15 -0.1767
13.2 -0.18371
13.25 -0.18773
13.3 -0.19301
13.35 -0.19895
13.4 -0.20171
13.45 -0.20083
13.5 -0.20311
13.55 -0.2026
13.6 -0.20243
13.65 -0.20084
13.7 -0.2023
13.75 -0.20269
13.8 -0.20228
13.85 -0.19724
13.9 -0.19136
13.95 -0.18997
14 -0.19038
14.05 -0.18791
14.1 -0.18829
14.15 -0.18637
14.2 -0.18759
14.25 -0.18465
14.3 -0.18395
14.35 -0.17926
14.4 -0.17162
14.45 -0.16305
14.5 -0.15684
14.55 -0.1531
14.6 -0.15299
14.65 -0.15627
14.7 -0.15486
14.75 -0.15193
14.8 -0.15029
14.85 -0.15008
14.9 -0.15121
14.95 -0.14589
15 -0.14186
15.05 -0.13984
15.1 -0.13698
15.15 -0.13003
15.2 -0.12643
15.25 -0.1189
15.3 -0.11315
15.35 -0.1121
15.4 -0.11024
15.45 -0.11013
15.5 -0.11226
15.55 -0.11497
15.6 -0.11797
15.65 -0.11421
15.7 -0.10665
15.75 -0.10364
15.8 -0.0972
15.85 -0.09075
15.9 -0.08477
15.95 -0.08055
16 -0.07952
16.05 -0.0768
16.1 -0.07948
16.15 -0.0781
16.2 -0.07658
16.25 -0.07754
16.3 -0.076
16.35 -0.07234
16.4 -0.07428
16.45 -0.07202
16.5 -0.07412
16.55 -0.07689
16.6 -0.07508
16.65 -0.07228
16.7 -0.07557
16.75 -0.08028
16.8 -0.08684
16.85 -0.09389
16.9 -0.10092
16.95 -0.10027
17 -0.09412
17.05 -0.0898
17.1 -0.08938
17.15 -0.08628
17.2 -0.08654
17.25 -0.08759
17.3 -0.09026
17.35 -0.09122
17.4 -0.08849
17.45 -0.08256
17.5 -0.07616
17.55 -0.06855
17.6 -0.06582
17.65 -0.06033
17.7 -0.05236
17.75 -0.05103
17.8 -0.05228
17.85 -0.05507
17.9 -0.05535
17.95 -0.0593
18 -0.05672
18.05 -0.05626
18.1 -0.05826
18.15 -0.05441
18.2 -0.04723
18.25 -0.04011
18.3 -0.03531
18.35 -0.03495
18.4 -0.03662
18.45 -0.0387
18.5 -0.04223
18.55 -0.04702
18.6 -0.04703
18.65 -0.04952
18.7 -0.04931
18.75 -0.04877
18.8 -0.04431
18.85 -0.04099
18.9 -0.03477
18.95 -0.02673
19 -0.02175
19.05 -0.02102
19.1 -0.02471
19.15 -0.02839
19.2 -0.02833
19.25 -0.0265
19.3 -0.0291
19.35 -0.03148
19.4 -0.03646
19.45 -0.03485
19.5 -0.03241
19.55 -0.02917
19.6 -0.02649
19.65 -0.02218
19.7 -0.0238
19.75 -0.02299
19.8 -0.02311
19.85 -0.02256
19.9 -0.02739
19.95 -0.03017
20 -0.0272
20.05 -0.02498
20.1 -0.02143
20.15 -0.01804
20.2 -0.01244
20.25 -0.00912
20.3 -0.00852
20.35 -0.01092
20.4 -0.01056
20.45 -0.01168
20.5 -0.01281
20.55 -0.01898
20.6 -0.01938
20.65 -0.01959
20.7 -0.01872
20.75 -0.01443
20.8 -0.0105
20.85 -0.00972
20.9 -0.00597
20.95 -0.00363
21 -0.00623
21.05 -0.01099
21.1 -0.01741
21.15 -0.02053
21.2 -0.02429
21.25 -0.02821
21.3 -0.0334
21.35 -0.03378
21.4 -0.03737
21.45 -0.0429
21.5 -0.04102
21.55 -0.04291
21.6 -0.04338
21.65 -0.04151
21.7 -0.04187
21.75 -0.04432
21.8 -0.04125
21.85 -0.03543
21.9 -0.03486
21.95 -0.02919
22 -0.02169
22.05 -0.01741
22.1 -0.01438
22.15 -0.01372
22.2 -0.01011
22.25 -0.00845
22.3 -0.00567
22.35 -0.00774
22.4 -0.0055
22.45 -0.0034
22.5 -0.00562
22.55 -0.01085
22.6 -0.0179
22.65 -0.01879
22.7 -0.02323
22.75 -0.02992
22.8 -0.02979
22.85 -0.02649
22.9 -0.0218
22.95 -0.02152
23 -0.01766
23.05 -0.01551
23.1 -0.01532
23.15 -0.01734
23.2 -0.01814
23.25 -0.02184
23.3 -0.02416
23.35 -0.02637
23.4 -0.02558
23.45 -0.02284
23.5 -0.01709
23.55 -0.00853
23.6 -0.00306
23.65 -0.00342
23.7 -0.00871
23.75 -0.01624
23.8 -0.01807
23.85 -0.01621
23.9 -0.01349
23.95 -0.01023
24 -0.00719
24.05 -0.00409
24.1 -0.00535
24.15 -0.00181
24.2 0.0017
24.25 0.00585
24.3 0.00324
24.35 0.00262
24.4 -0.00142
24.45 -0.00362
24.5 -0.00639
24.55 -0.00477
24.6 -0.00446
24.65 -0.00339
24.7 -0.00292
24.75 -0.00164
24.8 0.00197
24.85 0.00652
24.9 0.01141
24.95 0.01487
25 0.01381
25.05 0.01
25.1 0.00169
25.15 -0.0054
25.2 -0.00785
25.25 -0.01404
25.3 -0.01921
25.35 -0.02354
25.4 -0.02441
25.45 -0.02327
25.5 -0.01981
25.55 -0.01968
25.6 -0.01728
25.65 -0.01919
25.7 -0.02104
25.75 -0.0196
25.8 -0.01953
25.85 -0.01561
25.9 -0.01082
25.95 -0.00296
26 0.00549
26.05 0.01287
26.1 0.0146
26.15 0.0158
26.2 0.01089
26.25 0.00727
26.3 0.008
26.35 0.01136
26.4 0.01536
26.45 0.01613
26.5 0.0151
26.55 0.01436
26.6 0.00998
26.65 0.00219
26.7 -0.00161
26.75 -0.0008
26.8 -0.00197
26.85 -0.00456
26.9 -0.00344
26.95 -0.00474
27 -0.00733
27.05 -0.01276
27.1 -0.01354
27.15 -0.01538
27.2 -0.01274
27.25 -0.01504
27.3 -0.01834
27.35 -0.0186
27.4 -0.02107
27.45 -0.02153
27.5 -0.02293
27.55 -0.02202
27.6 -0.02484
27.65 -0.02593
27.7 -0.02697
27.75 -0.02408
27.8 -0.02413
27.85 -0.02551
27.9 -0.03
27.95 -0.03122
28 -0.0357
28.05 -0.03756
28.1 -0.0474
28.15 -0.05726
28.2 -0.06612
28.25 -0.07871
28.3 -0.09695
28.35 -0.11176
28.4 -0.12634
28.45 -0.14389
28.5 -0.1658
28.55 -0.18967
28.6 -0.21333
28.65 -0.24424
28.7 -0.28038
28.75 -0.32118
28.8 -0.36083
28.85 -0.40441
28.9 -0.45599
28.95 -0.50716
29 -0.5652
29.05 -0.62096
29.1 -0.67466
29.15 -0.72792
29.2 -0.78961
29.25 -0.85625
29.3 -0.91933
29.35 -0.98455
29.4 -1.05082
29.45 -1.11595
29.5 -1.1733
29.55 -1.22456
29.6 -1.26712
29.65 -1.30005
29.7 -1.33184
29.75 -1.36203
29.8 -1.38069
29.85 -1.38923
29.9 -1.38741
29.95 -1.38314
30 -1.36965
30.05 -1.3463
30.1 -1.31355
30.15 -1.27142
30.2 -1.22421
30.25 -1.16557
30.3 -1.09884
30.35 -1.02812
30.4 -0.95592
30.45 -0.88191
30.5 -0.80413
30.55 -0.72159
30.6 -0.63576
30.65 -0.54031
30.7 -0.44307
30.75 -0.34388
30.8 -0.24601
30.85 -0.14411
30.9 -0.04351
30.95 0.05562
31 0.1496
31.05 0.24379
31.1 0.33585
31.15 0.42268
31.2 0.49946
31.25 0.56732
31.3 0.62825
31.35 0.67955
31.4 0.72543
31.45 0.77142
31.5 0.81648
31.55 0.85253
31.6 0.88516
31.65 0.91448
31.7 0.93823
31.75 0.96002
31.8 0.98276
31.85 1.00164
31.9 1.01636
31.95 1.03597
32 1.05693
32.05 1.06975
32.1 1.07809
32.15 1.0831
32.2 1.08936
32.25 1.09257
32.3 1.0967
32.35 1.09628
32.4 1.09755
32.45 1.09483
32.5 1.0922
32.55 1.08913
32.6 1.08635
32.65 1.0882
32.7 1.09156
32.75 1.08848
32.8 1.08592
32.85 1.08277
32.9 1.07042
32.95 1.05195
33 1.03628
33.05 1.02187
33.1 1.00171
33.15 0.98138
33.2 0.96424
33.25 0.94065
33.3 0.91978
33.35 0.89882
33.4 0.87611
33.45 0.85492
33.5 0.82681
33.55 0.8019
33.6 0.77563
33.65 0.74865
33.7 0.71768
33.75 0.68915
33.8 0.6644
33.85 0.63976
33.9 0.61243
33.95 0.58804
34 0.56433
34.05 0.54274
34.1 0.51787
34.15 0.49293
34.2 0.47023
34.25 0.44618
34.3 0.41902
34.35 0.39203
34.4 0.36752
34.45 0.34166
34.5 0.31201
34.55 0.2872
34.6 0.26718
34.65 0.25122
34.7 0.23508
34.75 0.21613
34.8 0.19834
34.85 0.17627
34.9 0.15178
34.95 0.13373
35 0.11785
35.05 0.10133
35.1 0.08208
35.15 0.06192
35.2 0.04823
35.25 0.03145
35.3 0.01155
35.35 -0.00421
35.4 -0.01564
35.45 -0.03
35.5 -0.04581
35.55 -0.05912
35.6 -0.06662
35.65 -0.07313
35.7 -0.08391
35.75 -0.09484
35.8 -0.10226
35.85 -0.10728
35.9 -0.10901
35.95 -0.10842
36 -0.1088
36.05 -0.11668
36.1 -0.12368
36.15 -0.12947
36.2 -0.13533
36.25 -0.14624
36.3 -0.15349
36.35 -0.16332
36.4 -0.17293
36.45 -0.17749
36.5 -0.17675
36.55 -0.1797
36.6 -0.18546
36.65 -0.18867
36.7 -0.19097
36.75 -0.18936
36.8 -0.18613
36.85 -0.18072
36.9 -0.17904
36.95 -0.17507
37 -0.17668
37.05 -0.17824
37.1 -0.18179
37.15 -0.18769
37.2 -0.18764
37.25 -0.18761
37.3 -0.18356
37.35 -0.18024
37.4 -0.17597
37.45 -0.17838
37.5 -0.18191
37.55 -0.1883
37.6 -0.19524
37.65 -0.19483
37.7 -0.19702
37.75 -0.19371
37.8 -0.18596
37.85 -0.18378
37.9 -0.17744
37.95 -0.17668
38 -0.1748
38.05 -0.17127
38.1 -0.16448
38.15 -0.15677
38.2 -0.15621
38.25 -0.15347
38.3 -0.15509
38.35 -0.15338
38.4 -0.15629
38.45 -0.15496
38.5 -0.15379
38.55 -0.15274
38.6 -0.14901
38.65 -0.14958
38.7 -0.15196
38.75 -0.15572
38.8 -0.16017
38.85 -0.16274
38.9 -0.1622
38.95 -0.16013
39 -0.15295
39.05 -0.14226
39.1 -0.13147
39.15 -0.12294
39.2 -0.11817
39.25 -0.11535
39.3 -0.11423
39.35 -0.10845
39.4 -0.10347
39.45 -0.09745
39.5 -0.08934
39.55 -0.08439
39.6 -0.08333
39.65 -0.08078
39.7 -0.08111
39.75 -0.08125
39.8 -0.07955
39.85 -0.07568
39.9 -0.07207
39.95 -0.06876
40 -0.07083
40.05 -0.07034
40.1 -0.07065
40.15 -0.07622
40.2 -0.08223
40.25 -0.08317
40.3 -0.08409
40.35 -0.08526
40.4 -0.08556
40.45 -0.08971
40.5 -0.08922
40.55 -0.08524
40.6 -0.08379
40.65 -0.08595
40.7 -0.08792
40.75 -0.08922
40.8 -0.0914
40.85 -0.09296
40.9 -0.09273
40.95 -0.08887
41 -0.08121
41.05 -0.07432
41.1 -0.06535
41.15 -0.05664
41.2 -0.04937
41.25 -0.04282
41.3 -0.03874
41.35 -0.04254
41.4 -0.04737
41.45 -0.05187
41.5 -0.05084
41.55 -0.04716
41.6 -0.04393
41.65 -0.04686
41.7 -0.05109
41.75 -0.05155
41.8 -0.05006
41.85 -0.05311
41.9 -0.05784
41.95 -0.06004
42 -0.05878
42.05 -0.05676
42.1 -0.05892
42.15 -0.05939
42.2 -0.05869
42.25 -0.05431
42.3 -0.04778
42.35 -0.04105
42.4 -0.03751
42.45 -0.03397
42.5 -0.03047
42.55 -0.02644
42.6 -0.02886
42.65 -0.02991
42.7 -0.03533
42.75 -0.03941
42.8 -0.04174
42.85 -0.04214
42.9 -0.04131
42.95 -0.03812
43 -0.03145
43.05 -0.02629
43.1 -0.02274
43.15 -0.02101
43.2 -0.02028
43.25 -0.02282
43.3 -0.02762
43.35 -0.02821
43.4 -0.02783
43.45 -0.02851
43.5 -0.02903
43.55 -0.02914
43.6 -0.03125
43.65 -0.03167
43.7 -0.02999
43.75 -0.03084
43.8 -0.03151
43.85 -0.03205
43.9 -0.03516
43.95 -0.03824
44 -0.03565
44.05 -0.03156
44.1 -0.02808
44.15 -0.02869
44.2 -0.026
44.25 -0.0266
44.3 -0.02278
44.35 -0.01809
44.4 -0.01963
44.45 -0.02235
44.5 -0.02492
44.55 -0.03076
44.6 -0.03433
44.65 -0.0386
44.7 -0.04447
44.75 -0.0418
44.8 -0.04183
44.85 -0.04049
44.9 -0.04046
44.95 -0.04115
45 -0.04174
45.05 -0.04262
45.1 -0.03858
45.15 -0.03106
45.2 -0.02984
45.25 -0.02856
45.3 -0.02406
45.35 -0.01794
45.4 -0.01402
45.45 -0.01613
45.5 -0.01757
45.55 -0.01584
45.6 -0.01228
45.65 -0.00768
45.7 -0.0054
45.75 -0.00634
45.8 -0.00308
45.85 -0.0012
45.9 0.00252
45.95 0.0081
46 0.00568
46.05 0.00006
46.1 -0.00257
46.15 -0.00567
46.2 -0.00484
46.25 -0.00527
46.3 -0.00239
46.35 0.00264
46.4 0.00207
46.45 0.00002
46.5 -0.0059
46.55 -0.00628
46.6 -0.00639
46.65 -0.00852
46.7 -0.01341
46.75 -0.01919
46.8 -0.02678
46.85 -0.03466
46.9 -0.04187
46.95 -0.04182
47 -0.0356
47.05 -0.02699
47.1 -0.02057
47.15 -0.01672
47.2 -0.01661
47.25 -0.01639
47.3 -0.01194
47.35 -0.01224
47.4 -0.0143
47.45 -0.01807
47.5 -0.02387
47.55 -0.02419
47.6 -0.01954
47.65 -0.01747
47.7 -0.01281
47.75 -0.01362
47.8 -0.01543
47.85 -0.01742
47.9 -0.01468
47.95 -0.01342
48 -0.00886
48.05 -0.00389
48.1 -0.00266
48.15 -0.00502
48.2 -0.00435
48.25 -0.00678
48.3 -0.01105
48.35 -0.01024
48.4 -0.01076
48.45 -0.00683
48.5 -0.00796
48.55 -0.01179
48.6 -0.01178
48.65 -0.00858
48.7 -0.00499
48.75 -0.0041
48.8 -0.00608
48.85 -0.00873
48.9 -0.00584
48.95 -0.00566
49 -0.00795
49.05 -0.00727
49.1 -0.01028
49.15 -0.01545
49.2 -0.01973
49.25 -0.01785
49.3 -0.01642
49.35 -0.019
49.4 -0.01556
49.45 -0.00824
49.5 -0.00027
49.55 0.00868
49.6 0.01095
49.65 0.01139
49.7 0.00645
49.75 0.00387
49.8 -0.00123
49.85 -0.00897
49.9 -0.00907
49.95 -0.00411
50 0.00237
50.05 0.00858
50.1 0.01173
50.15 0.01057
50.2 0.00625
50.25 0.00147
50.3 -0.00182
50.35 -0.00125
50.4 0.00148
50.45 0.00059
50.5 0.00222
50.55 0.00356
50.6 0.00605
50.65 0.00718
50.7 0.0046
50.75 0.00174
50.8 -0.00106
50.85 0.00091
50.9 0.00596
50.95 0.00612
51 0.00169
51.05 0.00294
51.1 0.00034
51.15 0.00185
51.2 0.00699
51.25 0.00574
51.3 0.00377
51.35 -0.0019
51.4 -0.00366
51.45 -0.00642
51.5 -0.00489
51.55 -0.00473
51.6 -0.00107
51.65 0.00516
51.7 0.00967
51.75 0.00701
51.8 0.00031
51.85 -0.00902
51.9 -0.01817
51.95 -0.02386
52 -0.02185
52.05 -0.01599
52.1 -0.00795
52.15 -0.00256
52.2 0.00318
52.25 0.00345
52.3 0.00378
52.35 -0.00103
52.4 -0.00059
52.45 -0.00394
52.5 -0.00639
52.55 -0.00753
52.6 -0.00907
52.65 -0.01259
52.7 -0.01032
52.75 -0.01091
52.8 -0.00845
52.85 -0.00485
52.9 -0.00411
52.95 -0.00782
53 -0.00744
53.05 -0.00566
53.1 -0.0041
53.15 -0.00074
53.2 -0.00316
53.25 -0.00362
53.3 -0.00504
53.35 -0.00591
53.4 -0.00955
53.45 -0.01308
53.5 -0.01231
53.55 -0.01468
53.6 -0.01397
53.65 -0.01691
53.7 -0.01562
53.75 -0.01569
53.8 -0.01595
53.85 -0.01456
53.9 -0.01104
53.95 -0.01064
54 -0.01409
54.05 -0.01323
54.1 -0.01448
54.15 -0.01443
54.2 -0.01033
54.25 -0.00306
54.3 0.00236
54.35 0.00233
54.4 0.00115
54.45 0.00071
54.5 0.00083
54.55 -0.00366
54.6 -0.00133
54.65 -0.00015
54.7 -0.00262
54.75 -0.00767
54.8 -0.01306
54.85 -0.01537
54.9 -0.01808
54.95 -0.01563
55 -0.01515
55.05 -0.01496
55.1 -0.01008
55.15 -0.00867
55.2 -0.00724
55.25 -0.00721
55.3 -0.00417
55.35 -0.00617
55.4 -0.00296
55.45 -0.00202
55.5 -0.00291
55.55 -0.00123
55.6 0.00215
55.65 0.00516
55.7 0.00485
55.75 0.00214
55.8 -0.00195
55.85 -0.00833
55.9 -0.01256
55.95 -0.01303
56 -0.00991
56.05 -0.00207
56.1 0.00459
56.15 0.00873
56.2 0.00993
56.25 0.01159
56.3 0.01447
56.35 0.01226
56.4 0.01211
56.45 0.01392
56.5 0.01624
56.55 0.01424
56.6 0.01328
56.65 0.009
56.7 0.00633
56.75 0.00473
56.8 0.00581
56.85 0.00847
56.9 0.00941
56.95 0.00568
57 0.00365
57.05 0.00046
57.1 0.00024
57.15 -0.00341
57.2 -0.00798
57.25 -0.01284
57.3 -0.0119
57.35 -0.01222
57.4 -0.0097
57.45 -0.00805
57.5 -0.00218
57.55 -0.00124
57.6 0.00371
57.65 0.00222
57.7 0.00113
57.75 0.00472
57.8 0.00288
57.85 0.00477
57.9 0.01043
57.95 0.01179
58 0.00743
58.05 0.00217
58.1 -0.00585
58.15 -0.00687
58.2 -0.01064
58.25 -0.00821
58.3 -0.00152
58.35 -0.0013
58.4 0.00256
58.45 0.00467
58.5 0.01043
58.55 0.01698
58.6 0.01646
58.65 0.01185
58.7 0.00936
58.75 0.01169
58.8 0.0109
58.85 0.00604
58.9 0.00619
58.95 0.00228
59 0.00084
59.05 0.00352
59.1 0.00235
59.15 -0.00039
59.2 -0.00011
59.25 -0.00094
59.3 -0.00194
59.35 -0.00676
59.4 -0.00539
59.45 -0.00784
59.5 -0.01337
59.55 -0.01905
59.6 -0.02169
59.65 -0.01841
59.7 -0.01327
59.75 -0.00758
59.8 0.00108
59.85 0.00415
59.9 0.00944
59.95 0.01185
60 0.01563
60.05 0.01638
60.1 0.01501
60.15 0.01325
60.2 0.01477
60.25 0.01896
60.3 0.01736
60.35 0.01563
60.4 0.01637
60.45 0.01141
60.5 0.00546
60.55 0.00379
60.6 -0.00133
60.65 -0.00612
60.7 -0.01133
60.75 -0.01258
60.8 -0.01358
60.85 -0.00849
60.9 -0.00432
60.95 -0.00334
61 0.00128
61.05 0.00022
61.1 0.00136
61.15 0.00655
61.2 0.01355
61.25 0.02011
61.3 0.02485
61.35 0.02661
61.4 0.02618
61.45 0.02174
61.5 0.02133
61.55 0.01853
61.6 0.01153
61.65 0.00523
61.7 -0.00323
61.75 -0.0105
61.8 -0.01106
61.85 -0.00881
61.9 -0.00672
61.95 -0.00614
62 -0.0014
62.05 -0.00091
62.1 -0.00431
62.15 -0.00996
62.2 -0.01214
62.25 -0.01333
62.3 -0.0147
62.35 -0.01396
62.4 -0.01374
62.45 -0.01315
62.5 -0.01616
62.55 -0.01413
62.6 -0.01417
62.65 -0.01583
62.7 -0.0192
62.75 -0.02377
62.8 -0.02153
62.85 -0.01899
62.9 -0.01755
62.95 -0.01081
63 -0.00932
63.05 -0.00338
63.1 0.00462
63.15 0.01137
63.2 0.01809
63.25 0.01732
63.3 0.01524
63.35 0.01629
63.4 0.01452
63.45 0.01002
63.5 0.00859
63.55 0.00836
63.6 0.00645
63.65 0.00768
63.7 0.00936
63.75 0.01121
63.8 0.009
63.85 0.01026
63.9 0.00887
63.95 0.00502
64 0.00626
64.05 0.01052
64.1 0.0102
64.15 0.00654
64.2 0.00218
64.25 -0.00475
64.3 -0.01169
64.35 -0.01395
64.4 -0.01071
64.45 -0.00974
64.5 -0.00535
64.55 -0.00406
64.6 -0.00545
64.65 -0.00577
64.7 -0.00156
64.75 0.00242
64.8 0.00855
64.85 0.01359
64.9 0.01759
64.95 0.01477
65 0.01449
65.05 0.01325
65.1 0.01128
65.15 0.00592
65.2 0.00258
65.25 0.00231
65.3 0.00456
65.35 0.00621
65.4 0.00821
65.45 0.0113
65.5 0.01353
65.55 0.01645
65.6 0.01327
65.65 0.00816
65.7 0.00567
65.75 0.00163
65.8 -0.00372
65.85 -0.00791
65.9 -0.00846
65.95 -0.00975
66 -0.01151
66.05 -0.01301
66.1 -0.01673
66.15 -0.01905
66.2 -0.01851
66.25 -0.02037
66.3 -0.01966
66.35 -0.01303
66.4 -0.00548
66.45 -0.00002
66.5 0.00124
66.55 0.00512
66.6 0.00652
66.65 0.00859
66.7 0.0087
66.75 0.00767
66.8 0.00954
66.85 0.0122
66.9 0.01118
66.95 0.01272
67 0.01284
67.05 0.01138
67.1 0.00841
67.15 0.00472
67.2 -0.00304
67.25 -0.00844
67.3 -0.00701
67.35 -0.00896
67.4 -0.01309
67.45 -0.01167
67.5 -0.01207
67.55 -0.01542
67.6 -0.01289
67.65 -0.01193
67.7 -0.01073
67.75 -0.0063
67.8 0.00058
67.85 0.00709
67.9 0.01117
67.95 0.01705
68 0.01549
68.05 0.00924
68.1 0.00766
68.15 0.00295
68.2 0.00317
68.25 0.00706
68.3 0.0043
68.35 0.00651
68.4 0.0045
68.45 0.00447
68.5 0.00711
68.55 0.01053
68.6 0.01353
68.65 0.01195
68.7 0.00851
68.75 0.00288
68.8 0.00322
68.85 0.00518
68.9 0.00833
68.95 0.00607
69 0.00203
69.05 -0.00331
69.1 -0.00991
69.15 -0.01084
69.2 -0.00793
69.25 -0.00566
69.3 0.00001
69.35 0.00102
69.4 0.00542
69.45 0.0111
69.5 0.01263
69.55 0.01111
69.6 0.00526
69.65 -0.00174
69.7 -0.00651
69.75 -0.00576
69.8 -0.006
69.85 -0.00789
69.9 -0.00833
69.95 -0.0063
70 -0.00711
70.05 -0.00287
70.1 -0.00003
70.15 0.00371
70.2 0.00554
70.25 0.00897
70.3 0.01205
70.35 0.01003
70.4 0.00932
70.45 0.00372
70.5 -0.00084
70.55 -0.00847
70.6 -0.01525
70.65 -0.01992
70.7 -0.02021
70.75 -0.01681
70.8 -0.0115
70.85 -0.01137
70.9 -0.00651
70.95 -0.00015
71 0.00176
71.05 0.00135
71.1 0.0008
71.15 -0.00179
71.2 -0.0023
71.25 -0.00165
71.3 -0.00575
71.35 -0.00417
71.4 -0.00037
71.45 0.0042
71.5 0.00655
71.55 0.00296
71.6 -0.00262
71.65 -0.00724
71.7 -0.00983
71.75 -0.01416
71.8 -0.01767
71.85 -0.01963
71.9 -0.02334
71.95 -0.02691
72 -0.02343
72.05 -0.01621
72.1 -0.01459
72.15 -0.01627
72.2 -0.02073
72.25 -0.02379
72.3 -0.0278
72.35 -0.02366
72.4 -0.02246
72.45 -0.01971
72.5 -0.01958
72.55 -0.01731
72.6 -0.0134
72.65 -0.01057
72.7 -0.01134
72.75 -0.00909
72.8 -0.00375
72.85 -0.00072
72.9 0.00443
72.95 0.00807
73 0.00724
73.05 0.00744
73.1 0.00428
73.15 0.00559
73.2 0.0052
73.25 0.00143
73.3 -0.00317
73.35 -0.00359
73.4 -0.00492
73.45 -0.00355
73.5 -0.00601
73.55 -0.00936
73.6 -0.00951
73.65 -0.01096
73.7 -0.00981
73.75 -0.00504
73.8 0.001
73.85 0.00688
73.9 0.00643
73.95 0.0101
74 0.01285
74.05 0.00953
74.1 0.00753
74.15 0.00451
74.2 0.00583
74.25 0.00971
74.3 0.00982
74.35 0.00848
74.4 0.01142
74.45 0.01077
74.5 0.00928
74.55 0.00713
74.6 0.00635
74.65 0.0024
74.7 -0.0004
74.75 0.0006
74.8 0.00521
74.85 0.00464
74.9 0.00307
74.95 0.00527
75 0.00777
75.05 0.01002
75.1 0.01433
75.15 0.01534
75.2 0.01643
75.25 0.01122
75.3 0.00857
75.35 0.00717
75.4 0.00777
75.45 0.01189
75.5 0.00929
75.55 0.00799
75.6 0.01079
75.65 0.01511
75.7 0.02022
75.75 0.01843
75.8 0.01376
75.85 0.01293
75.9 0.0091
75.95 0.00779
76 0.00714
76.05 0.00843
76.1 0.00556
76.15 -0.00148
76.2 -0.01024
76.25 -0.01456
76.3 -0.0129
76.35 -0.00827
76.4 -0.00534
76.45 -0.0028
76.5 -0.00013
76.55 0.00144
76.6 0.00268
76.65 0.00559
76.7 0.00219
76.75 0.00139
76.8 -0.00005
76.85 -0.00446
76.9 -0.01007
76.95 -0.00933
77 -0.01003
77.05 -0.00769
77.1 -0.00355
77.15 -0.00063
77.2 0.00401
77.25 0.00179
77.3 -0.00388
77.35 -0.01044
77.4 -0.01686
77.45 -0.01846
77.5 -0.01554
77.55 -0.013
77.6 -0.00698
77.65 -0.00422
77.7 -0.00529
77.75 -0.00811
77.8 -0.00861
77.85 -0.00513
77.9 0.00045
77.95 -0.00033
78 -0.00103
78.05 -0.00243
78.1 -0
78.15 -0.0026
78.2 -0.00825
78.25 -0.01126
78.3 -0.01121
78.35 -0.00747
78.4 -0.00328
78.45 -0.00504
78.5 -0.00654
78.55 -0.00858
78.6 -0.00999
78.65 -0.00934
78.7 -0.01108
78.75 -0.01398
78.8 -0.0162
78.85 -0.01256
78.9 -0.01175
78.95 -0.01007
79 -0.00349
79.05 0.00046
79.1 0.00619
79.15 0.01405
79.2 0.02202
79.25 0.02549
79.3 0.0216
79.35 0.0164
79.4 0.0076
79.45 0.00016
79.5 -0.00592
79.55 -0.01385
79.6 -0.01631
79.65 -0.01324
79.7 -0.00717
79.75 -0.00147
79.8 0.00437
79.85 0.01068
79.9 0.01576
79.95 0.02195
80 0.02549
80.05 0.02729
80.1 0.02387
80.15 0.01907
80.2 0.00969
80.25 -0.00104
80.3 -0.01206
80.35 -0.02249
80.4 -0.02934
80.45 -0.02758
80.5 -0.02304
80.55 -0.02212
80.6 -0.01655
80.65 -0.01621
80.7 -0.01071
80.75 -0.00884
80.8 -0.0114
80.85 -0.01037
80.9 -0.01196
80.95 -0.01271
81 -0.01099
81.05 -0.00861
81.1 -0.003
81.15 0.00266
81.2 0.00522
81.25 0.00477
81.3 0.00692
81.35 0.00741
81.4 0.00894
81.45 0.00738
81.5 0.00989
81.55 0.00906
81.6 0.00351
81.65 0.00066
81.7 0.00217
81.75 0.00177
81.8 -0.00209
81.85 -0.00804
81.9 -0.00673
81.95 -0.00915
82 -0.0117
82.05 -0.01343
82.1 -0.01635
82.15 -0.01442
82.2 -0.01449
82.25 -0.01713
82.3 -0.0217
82.35 -0.01938
82.4 -0.01705
82.45 -0.01659
82.5 -0.01624
82.55 -0.0177
82.6 -0.01294
82.65 -0.00897
82.7 -0.00965
82.75 -0.01168
82.8 -0.00765
82.85 -0.00818
82.9 -0.00801
82.95 -0.00458
83 -0.00641
83.05 -0.00883
83.1 -0.01096
83.15 -0.00669
83.2 -0.00661
83.25 -0.00737
83.3 -0.00947
83.35 -0.00572
83.4 0.00103
83.45 0.00226
83.5 0.00006
83.55 -0.00251
83.6 -0.00459
83.65 -0.00302
83.7 0.00295
83.75 0.00693
83.8 0.01312
83.85 0.01291
83.9 0.01019
83.95 0.01043
84 0.01202
84.05 0.009
84.1 0.0074
84.15 0.00285
84.2 -0.00406
84.25 -0.01007
84.3 -0.0127
84.35 -0.01045
84.4 -0.01045
84.45 -0.00465
84.5 -0.00328
84.55 -0.00128
84.6 -0.00275
84.65 -0.00607
84.7 -0.00713
84.75 -0.00322
84.8 -0.00479
84.85 -0.00357
84.9 -0.00251
84.95 0.00161
85 0.00719
85.05 0.00776
85.1 0.00843
85.15 0.00472
85.2 0.00394
85.25 0.006
85.3 0.00265
85.35 -0.00142
85.4 -0.00773
85.45 -0.01036
85.5 -0.00877
85.55 -0.00212
85.6 0.00325
85.65 0.00852
85.7 0.01266
85.75 0.01491
85.8 0.01564
85.85 0.01364
85.9 0.01629
85.95 0.01725
86 0.01741
86.05 0.01662
86.1 0.01537
86.15 0.00956
86.2 0.0091
86.25 0.00689
86.3 0.00125
86.35 -0.00183
86.4 -0.00085
86.45 -0.00468
86.5 -0.00256
86.55 -0.0027
86.6 -0.00202
86.65 0.00144
86.7 0.007
86.75 0.01296
86.8 0.01548
86.85 0.01579
86.9 0.01579
86.95 0.01632
87 0.01761
87.05 0.01981
87.1 0.01579
87.15 0.01243
87.2 0.00834
87.25 0.00321
87.3 0.00299
87.35 -0.00088
87.4 -0.00474
87.45 -0.01091
87.5 -0.01397
87.55 -0.01823
87.6 -0.02261
87.65 -0.02672
87.7 -0.02239
87.75 -0.02099
87.8 -0.02044
87.85 -0.01433
87.9 -0.01168
87.95 -0.0095
88 -0.00263
88.05 0.00659
88.1 0.01492
88.15 0.02367
88.2 0.02951
88.25 0.02661
88.3 0.02718
88.35 0.02878
88.4 0.02777
88.45 0.02837
88.5 0.0251
88.55 0.01754
88.6 0.01161
88.65 0.00358
88.7 -0.00261
88.75 -0.00299
88.8 -0.00275
88.85 0.00149
88.9 0.00355
88.95 0.00896
89 0.01336
89.05 0.01565
89.1 0.01188
89.15 0.00446
89.2 0.00331
89.25 0.00393
89.3 0.00673
89.35 0.01143
89.4 0.01692
89.45 0.02265
89.5 0.02444
89.55 0.02738
89.6 0.02452
89.65 0.01688
89.7 0.01413
89.75 0.01285
89.8 0.00582
89.85 -0.00026
89.9 -0.00136
89.95 0.0016
90 0.00377
90.05 0.00057
90.1 -0.00607
90.15 -0.01234
90.2 -0.01522
90.25 -0.017
90.3 -0.01929
90.35 -0.02315
90.4 -0.02391
90.45 -0.02424
90.5 -0.01912
90.55 -0.0107
90.6 -0.00408
90.65 0.00475
90.7 0.0094
90.75 0.01376
90.8 0.01792
90.85 0.01616
90.9 0.01255
90.95 0.01137
91 0.01005
91.05 0.01139
91.1 0.00847
91.15 0.0058
91.2 0.00311
91.25 -0.00178
91.3 -0.00325
91.35 -0.00866
91.4 -0.01218
91.45 -0.01604
91.5 -0.02049
91.55 -0.02412
91.6 -0.02878
91.65 -0.02581
91.7 -0.02345
91.75 -0.02081
91.8 -0.01784
91.85 -0.01074
91.9 -0.00472
91.95 -0.00427
92 -0.00229
92.05 -0.00564
92.1 -0.00827
92.15 -0.00926
92.2 -0.00651
92.25 -0.00297
92.3 -0.00256
92.35 -0.0039
92.4 0.00017
92.45 -0.00133
92.5 0.00004
92.55 0.00346
92.6 0.00111
92.65 -0.00237
92.7 -0.00408
92.75 -0.0086
92.8 -0.00897
92.85 -0.00938
92.9 -0.00837
92.95 -0.00558
93 -0.0063
93.05 -0.00266
93.1 0.00337
93.15 0.00758
93.2 0.00633
93.25 0.00258
93.3 0.00369
93.35 0.00541
93.4 0.00224
93.45 0.00397
93.5 0.00659
93.55 0.00567
93.6 0.00888
93.65 0.01446
93.7 0.01342
93.75 0.00969
93.8 0.00376
93.85 0.00322
93.9 -0.00074
93.95 -0.0067
94 -0.00791
94.05 -0.01185
94.1 -0.01788
94.15 -0.0158
94.2 -0.01689
94.25 -0.01268
94.3 -0.01167
94.35 -0.00841
94.4 -0.003
94.45 0.00416
94.5 0.00689
94.55 0.00557
94.6 0.00181
94.65 0.00212
94.7 -0.00017
94.75 0.00139
94.8 -0.00186
94.85 -0.00605
94.9 -0.00593
94.95 -0.00391
95 0.00232
95.05 0.00291
95.1 0.00399
95.15 0.00839
95.2 0.00683
95.25 0.00078
95.3 -0.00604
95.35 -0.01324
95.4 -0.01835
95.45 -0.01705
95.5 -0.01351
95.55 -0.01128
95.6 -0.01283
95.65 -0.01535
95.7 -0.01288
95.75 -0.01343
95.8 -0.00975
95.85 -0.00785
95.9 -0.0053
95.95 -0.006
96 -0.00955
96.05 -0.00887
96.1 -0.0104
96.15 -0.01042
96.2 -0.00799
96.25 -0.00791
96.3 -0.00298
96.35 0.00059
96.4 0.00354
96.45 0.00377
96.5 0.00755
96.55 0.00776
96.6 0.006
96.65 0.0061
96.7 0.00484
96.75 0.00575
96.8 0.00978
96.85 0.01006
96.9 0.01385
96.95 0.01887
97 0.02363
97.05 0.02433
97.1 0.02314
97.15 0.02269
97.2 0.01744
97.25 0.00927
97.3 0.00768
97.35 0.0095
97.4 0.00523
97.45 -0.00073
97.5 -0.005
97.55 -0.00503
97.6 -0.00506
97.65 -0.00016
97.7 0.00304
97.75 0.00377
97.8 0.00682
97.85 0.01197
97.9 0.01487
97.95 0.01131
98 0.00967
98.05 0.00827
98.1 0.00337
98.15 -0.00323
98.2 -0.00953
98.25 -0.01078
98.3 -0.01468
98.35 -0.01657
98.4 -0.01478
98.45 -0.00813
98.5 0.0005
98.55 0.00401
98.6 0.00796
98.65 0.00621
98.7 0.00486
98.75 0.00439
98.8 0.00394
98.85 0.00319
98.9 0.00235
98.95 0.00286
99 0.00176
99.05 -0.00189
99.1 -0.00159
99.15 0.00241
99.2 0.00273
99.25 -0.00155
99.3 -0.00613
99.35 -0.00552
99.4 -0.00795
99.45 -0.00533
99.5 -0.0052
99.55 -0.00313
99.6 0.00151
99.65 0.00301
99.7 0.0015
99.75 -0.00103
99.8 -0.00653
99.85 -0.01137
99.9 -0.01259
99.95 -0.01584
