0 0
0.05 0.00582
0.1 0.01243
0.15 0.01952
0.2 0.02477
0.25 0.03386
0.3 0.03814
0.35 0.0377
0.4 0.04369
0.45 0.0482
0.5 0.05085
0.55 0.05182
0.6 0.05115
0.65 0.05107
0.7 0.05134
0.75 0.05451
0.8 0.05154
0.85 0.04784
0.9 0.04854
0.95 0.04679
1 0.05044
1.05 0.05069
1.1 0.04796
1.15 0.04467
1.2 0.04638
1.25 0.04951
1.3 0.05533
1.35 0.0601
1.4 0.06583
1.45 0.06933
1.5 0.06514
1.55 0.05741
1.6 0.04966
1.65 0.04547
1.7 0.04596
1.75 0.04915
1.8 0.04513
1.85 0.03795
1.9 0.0348
1.95 0.03136
2 0.03353
2.05 0.03865
2.1 0.04598
2.15 0.05078
2.2 0.052
2.25 0.05479
2.3 0.05565
2.35 0.04932
2.4 0.04796
2.45 0.04125
2.5 0.04012
2.55 0.03473
2.6 0.03075
2.65 0.02785
2.7 0.02452
2.75 0.01787
2.8 0.01169
2.85 0.01092
2.9 0.01166
2.95 0.00847
3 0.0033
3.05 -0.00322
3.1 -0.01009
3.15 -0.0136
3.2 -0.01019
3.25 -0.00482
3.3 0.00053
3.35 0.00237
3.4 0.00355
3.45 0.00606
3.5 0.01321
3.55 0.01885
3.6 0.02594
3.65 0.03026
3.7 0.03497
3.75 0.03872
3.8 0.04052
3.85 0.0411
3.9 0.04264
3.95 0.04505
4 0.03939
4.05 0.02986
4.1 0.02372
4.15 0.0144
4.2 0.01209
4.25 0.00822
4.3 0.00487
4.35 -0.0006
4.4 -0.0058
4.45 -0.01254
4.5 -0.02314
4.55 -0.02907
4.6 -0.03489
4.65 -0.0439
4.7 -0.05875
4.75 -0.07074
4.8 -0.08459
4.85 -0.10309
4.9 -0.12684
4.95 -0.15288
5 -0.18554
5.05 -0.22631
5.1 -0.26636
5.15 -0.31006
5.2 -0.35759
5.25 -0.40467
5.3 -0.45665
5.35 -0.51362
5.4 -0.57361
5.45 -0.63226
5.5 -0.69201
5.55 -0.7434
5.6 -0.7868
5.65 -0.82713
5.7 -0.85901
5.75 -0.88412
5.8 -0.90392
5.85 -0.92091
5.9 -0.9261
5.95 -0.92128
6 -0.91521
6.05 -0.89913
6.1 -0.87546
6.15 -0.84539
6.2 -0.80967
6.25 -0.76321
6.3 -0.7161
6.35 -0.6598
6.4 -0.59924
6.45 -0.53734
6.5 -0.47594
6.55 -0.41533
6.6 -0.35317
6.65 -0.28635
6.7 -0.22493
6.75 -0.16452
6.8 -0.10191
6.85 -0.04208
6.9 0.01968
6.95 0.08278
7 0.14855
7.05 0.21467
7.1 0.28222
7.15 0.34088
7.2 0.39491
7.25 0.44787
7.3 0.49777
7.35 0.54935
7.4 0.5949
7.45 0.64067
7.5 0.68659
7.55 0.72975
7.6 0.76293
7.65 0.79166
7.7 0.81916
7.75 0.83515
7.8 0.8502
7.85 0.85834
7.9 0.86394
7.95 0.86878
8 0.86374
8.05 0.85261
8.1 0.83754
8.15 0.82555
8.2 0.80626
8.25 0.78316
8.3 0.75752
8.35 0.73508
8.4 0.7107
8.45 0.68959
8.5 0.67262
8.55 0.65491
8.6 0.63532
8.65 0.61216
8.7 0.58439
8.75 0.55704
8.8 0.53096
8.85 0.50045
8.9 0.47407
8.95 0.44729
9 0.41784
9.05 0.39119
9.1 0.36472
9.15 0.34493
9.2 0.33042
9.25 0.31565
9.3 0.29807
9.35 0.28254
9.4 0.26426
9.45 0.24564
9.5 0.2252
9.55 0.21243
9.6 0.2013
9.65 0.19082
9.7 0.17818
9.75 0.16721
9.8 0.16144
9.85 0.15717
9.9 0.15441
9.95 0.14625
10 0.13802
10.05 0.12812
10.1 0.12222
10.15 0.11626
10.2 0.1133
10.25 0.10701
10.3 0.09869
10.35 0.09169
10.4 0.08351
10.45 0.08049
10.5 0.07584
10.55 0.07083
10.6 0.06544
10.65 0.06358
10.7 0.05743
10.75 0.05547
10.8 0.04813
10.85 0.04335
10.9 0.04252
10.95 0.0391
11 0.03313
11.05 0.02441
11.1 0.01709
11.15 0.00482
11.2 -0.00126
11.25 -0.01103
11.3 -0.02109
11.35 -0.02561
11.4 -0.03486
11.45 -0.0465
11.5 -0.05271
11.55 -0.06181
11.6 -0.06747
11.65 -0.07308
11.7 -0.08043
11.75 -0.08459
11.8 -0.08332
11.85 -0.0825
11.9 -0.08012
11.95 -0.07981
12 -0.08473
12.05 -0.08663
12.1 -0.08658
12.15 -0.08487
12.2 -0.08136
12.25 -0.08184
12.3 -0.08373
12.35 -0.09034
12.4 -0.09092
12.45 -0.09575
12.5 -0.09492
12.55 -0.09765
12.6 -0.10128
12.65 -0.1058
12.7 -0.10443
12.75 -0.09828
12.8 -0.08987
12.85 -0.08323
12.9 -0.07738
12.95 -0.07921
13 -0.0858
13.05 -0.09029
13.1 -0.09595
13.15 -0.10136
13.2 -0.1015
13.25 -0.0997
13.3 -0.09567
13.35 -0.09286
13.4 -0.09484
13.45 -0.09831
13.5 -0.0982
13.55 -0.09734
13.6 -0.09224
13.65 -0.09142
13.7 -0.08525
13.75 -0.07581
13.8 -0.06799
13.85 -0.06253
13.9 -0.06034
13.95 -0.061
14 -0.06331
14.05 -0.06975
14.1 -0.07302
14.15 -0.07279
14.2 -0.07511
14.25 -0.07168
14.3 -0.07207
14.35 -0.06705
14.4 -0.05921
14.45 -0.05416
14.5 -0.05553
14.55 -0.06094
14.6 -0.06628
14.65 -0.06402
14.7 -0.06415
14.75 -0.06401
14.8 -0.06009
14.85 -0.05648
14.9 -0.05155
14.95 -0.05258
15 -0.05688
15.05 -0.06109
15.1 -0.06308
15.15 -0.06193
15.2 -0.06442
15.25 -0.06278
15.3 -0.05784
15.35 -0.04986
15.4 -0.04454
15.45 -0.04352
15.5 -0.03994
15.55 -0.03937
15.6 -0.04225
15.65 -0.03891
15.7 -0.037
15.75 -0.0316
15.8 -0.02856
15.85 -0.0228
15.9 -0.02046
15.95 -0.01941
16 -0.0152
16.05 -0.01395
16.1 -0.01081
16.15 -0.01397
16.2 -0.01827
16.25 -0.02384
16.3 -0.02902
16.35 -0.03211
16.4 -0.0363
16.45 -0.03829
16.5 -0.03556
16.55 -0.03624
16.6 -0.04049
16.65 -0.0423
16.7 -0.04649
16.75 -0.05151
16.8 -0.05053
16.85 -0.04361
16.9 -0.03973
16.95 -0.0316
17 -0.02984
17.05 -0.02505
17.1 -0.02116
17.15 -0.0167
17.2 -0.01636
17.25 -0.02091
17.3 -0.02472
17.35 -0.02223
17.4 -0.01903
17.45 -0.0151
17.5 -0.01576
17.55 -0.02063
17.6 -0.02622
17.65 -0.02823
17.7 -0.02472
17.75 -0.02349
17.8 -0.02425
17.85 -0.0244
17.9 -0.02539
17.95 -0.02798
18 -0.03138
18.05 -0.03362
18.1 -0.03397
18.15 -0.03659
18.2 -0.03789
18.25 -0.03653
18.3 -0.03187
18.35 -0.02749
18.4 -0.02766
18.45 -0.02393
18.5 -0.01821
18.55 -0.01532
18.6 -0.01018
18.65 -0.00675
18.7 -0.0046
18.75 -0.00265
18.8 -0.00223
18.85 -0.00653
18.9 -0.01099
18.95 -0.00983
19 -0.00624
19.05 -0.00751
19.1 -0.01162
19.15 -0.01486
19.2 -0.01251
19.25 -0.01277
19.3 -0.01382
19.35 -0.01477
19.4 -0.01749
19.45 -0.01593
19.5 -0.01275
19.55 -0.01299
19.6 -0.01332
19.65 -0.01378
19.7 -0.01426
19.75 -0.01848
19.8 -0.02112
19.85 -0.0191
19.9 -0.01461
19.95 -0.00829
20 -0.00536
20.05 -0.0043
20.1 -0.00219
20.15 0.00207
20.2 0.0054
20.25 0.00201
20.3 -0.00174
20.35 -0.0047
20.4 -0.00234
20.45 -0.00046
20.5 0.00364
20.55 0.0033
20.6 -0.00185
20.65 -0.00679
20.7 -0.00687
20.75 -0.00287
20.8 -0.00383
20.85 -0.00157
20.9 0.0002
20.95 0.00461
21 0.00453
21.05 0.0045
21.1 0.00778
21.15 0.00743
21.2 0.0093
21.25 0.01375
21.3 0.01142
21.35 0.00846
21.4 0.00496
21.45 -0.00035
21.5 -0.00348
21.55 -0.00511
21.6 -0.0081
21.65 -0.01117
21.7 -0.00909
21.75 -0.0116
21.8 -0.0176
21.85 -0.01639
21.9 -0.01279
21.95 -0.00776
22 -0.00473
22.05 -0.00368
22.1 -0.00144
22.15 0.00228
22.2 -0.00009
22.25 0.00251
22.3 0.00633
22.35 0.00286
22.4 0.00323
22.45 0.00084
22.5 -0.00454
22.55 -0.00489
22.6 -0.00508
22.65 -0.00665
22.7 -0.01116
22.75 -0.01248
22.8 -0.01617
22.85 -0.01574
22.9 -0.01208
22.95 -0.01042
23 -0.00716
23.05 -0.00892
23.1 -0.00573
23.15 -0.0047
23.2 -0.00463
23.25 -0.00887
23.3 -0.0106
23.35 -0.01254
23.4 -0.01171
23.45 -0.0136
23.5 -0.01177
23.55 -0.01034
23.6 -0.00695
23.65 -0.00677
23.7 -0.00407
23.75 -0.00625
23.8 -0.00632
23.85 -0.00934
23.9 -0.00738
23.95 -0.0078
24 -0.00647
24.05 -0.00691
24.1 -0.00303
24.15 -0.00426
24.2 -0.00599
24.25 -0.00601
24.3 -0.00893
24.35 -0.01099
24.4 -0.0083
24.45 -0.00609
24.5 -0.00249
24.55 -0.00088
24.6 -0.00043
24.65 -0.00016
24.7 0.00439
24.75 0.00662
24.8 0.01113
24.85 0.0089
24.9 0.00678
24.95 0.00258
25 0.00204
25.05 0.00596
25.1 0.01006
25.15 0.01074
25.2 0.01221
25.25 0.01522
25.3 0.01224
25.35 0.00473
25.4 -0.00005
25.45 -0.00186
25.5 -0.00124
25.55 0.00249
25.6 0.00321
25.65 0.00433
25.7 0.0049
25.75 0.0082
25.8 0.01093
25.85 0.00971
25.9 0.01053
25.95 0.00861
26 0.00447
26.05 0.00226
26.1 -0.00083
26.15 -0.00652
26.2 -0.01478
26.25 -0.02391
26.3 -0.0298
26.35 -0.02955
26.4 -0.02768
26.45 -0.02361
26.5 -0.01622
26.55 -0.00621
26.6 -0.00019
26.65 0.00531
26.7 0.00802
26.75 0.00624
26.8 0.00795
26.85 0.01022
26.9 0.01239
26.95 0.00799
27 0.00142
27.05 -0.0071
27.1 -0.01288
27.15 -0.01276
27.2 -0.00918
27.25 -0.0108
27.3 -0.01519
27.35 -0.02056
27.4 -0.02457
27.45 -0.02339
27.5 -0.02137
27.55 -0.02535
27.6 -0.0306
27.65 -0.03117
27.7 -0.0352
27.75 -0.03821
27.8 -0.046
27.85 -0.05902
27.9 -0.06953
27.95 -0.08055
28 -0.09157
28.05 -0.10273
28.1 -0.11808
28.15 -0.14114
28.2 -0.16945
28.25 -0.20242
28.3 -0.23267
28.35 -0.26245
28.4 -0.29563
28.45 -0.33865
28.5 -0.38748
28.55 -0.43922
28.6 -0.4944
28.65 -0.553
28.7 -0.62126
28.75 -0.69603
28.8 -0.77383
28.85 -0.85659
28.9 -0.9398
28.95 -1.02604
29 -1.11396
29.05 -1.1993
29.1 -1.28138
29.15 -1.36736
29.2 -1.44928
29.25 -1.53014
29.3 -1.61013
29.35 -1.68763
29.4 -1.75618
29.45 -1.81979
29.5 -1.87946
29.55 -1.92711
29.6 -1.96701
29.65 -2.00371
29.7 -2.02588
29.75 -2.04172
29.8 -2.04923
29.85 -2.04421
29.9 -2.02036
29.95 -1.98465
30 -1.93805
30.05 -1.88197
30.1 -1.81648
30.15 -1.74092
30.2 -1.6559
30.25 -1.55674
30.3 -1.4526
30.35 -1.33928
30.4 -1.22243
30.45 -1.09406
30.5 -0.96217
30.55 -0.82288
30.6 -0.67982
30.65 -0.53132
30.7 -0.38323
30.75 -0.23852
30.8 -0.09216
30.85 0.04414
30.9 0.17963
30.95 0.30931
31 0.43299
31.05 0.55398
31.1 0.67245
31.15 0.78113
31.2 0.87937
31.25 0.97441
31.3 1.06341
31.35 1.14463
31.4 1.22217
31.45 1.29775
31.5 1.36365
31.55 1.42185
31.6 1.47412
31.65 1.52464
31.7 1.57207
31.75 1.6068
31.8 1.6341
31.85 1.65695
31.9 1.6806
31.95 1.70178
32 1.71466
32.05 1.7199
32.1 1.72023
32.15 1.72157
32.2 1.71911
32.25 1.7158
32.3 1.7085
32.35 1.70152
32.4 1.69279
32.45 1.68898
32.5 1.68739
32.55 1.68651
32.6 1.67844
32.65 1.66775
32.7 1.6551
32.75 1.6427
32.8 1.6215
32.85 1.59702
32.9 1.57363
32.95 1.553
33 1.52421
33.05 1.49115
33.1 1.46315
33.15 1.43549
33.2 1.40844
33.25 1.37555
33.3 1.33772
33.35 1.29556
33.4 1.25244
33.45 1.20939
33.5 1.17157
33.55 1.13546
33.6 1.09434
33.65 1.05508
33.7 1.01939
33.75 0.98408
33.8 0.9446
33.85 0.90386
33.9 0.86087
33.95 0.82276
34 0.78713
34.05 0.74904
34.1 0.70929
34.15 0.67561
34.2 0.64096
34.25 0.60715
34.3 0.57234
34.35 0.53479
34.4 0.49481
34.45 0.45683
34.5 0.41937
34.55 0.3863
34.6 0.35588
34.65 0.33042
34.7 0.29936
34.75 0.26519
34.8 0.2382
34.85 0.20858
34.9 0.18083
34.95 0.15041
35 0.11819
35.05 0.08934
35.1 0.06402
35.15 0.03803
35.2 0.01231
35.25 -0.00822
35.3 -0.02114
35.35 -0.03023
35.4 -0.04514
35.45 -0.05909
35.5 -0.07415
35.55 -0.08756
35.6 -0.10516
35.65 -0.12023
35.7 -0.13535
35.75 -0.1528
35.8 -0.16844
35.85 -0.17859
35.9 -0.18862
35.95 -0.19381
36 -0.20202
36.05 -0.20734
36.1 -0.21463
36.15 -0.22181
36.2 -0.22659
36.25 -0.23352
36.3 -0.23653
36.35 -0.24474
36.4 -0.25456
36.45 -0.26438
36.5 -0.2736
36.55 -0.27746
36.6 -0.28283
36.65 -0.29068
36.7 -0.29908
36.75 -0.29986
36.8 -0.29429
36.85 -0.29405
36.9 -0.29617
36.95 -0.30108
37 -0.30655
37.05 -0.30925
37.1 -0.31232
37.15 -0.31206
37.2 -0.31119
37.25 -0.30437
37.3 -0.3019
37.35 -0.30237
37.4 -0.30097
37.45 -0.30059
37.5 -0.29643
37.55 -0.29049
37.6 -0.28664
37.65 -0.28099
37.7 -0.27472
37.75 -0.26456
37.8 -0.25524
37.85 -0.25175
37.9 -0.24611
37.95 -0.24442
38 -0.24577
38.05 -0.24101
38.1 -0.23863
38.15 -0.23993
38.2 -0.24036
38.25 -0.23562
38.3 -0.23478
38.35 -0.23465
38.4 -0.23499
38.45 -0.23726
38.5 -0.23774
38.55 -0.23718
38.6 -0.23227
38.65 -0.22605
38.7 -0.21445
38.75 -0.20581
38.8 -0.20075
38.85 -0.19347
38.9 -0.18314
38.95 -0.18058
39 -0.1809
39.05 -0.17985
39.1 -0.17811
39.15 -0.17442
39.2 -0.17578
39.25 -0.17723
39.3 -0.17307
39.35 -0.17282
39.4 -0.17233
39.45 -0.17249
39.5 -0.16572
39.55 -0.1607
39.6 -0.15482
39.65 -0.14791
39.7 -0.13851
39.75 -0.13099
39.8 -0.1229
39.85 -0.11437
39.9 -0.1099
39.95 -0.11212
40 -0.11851
40.05 -0.12245
40.1 -0.12926
40.15 -0.13277
40.2 -0.1326
40.25 -0.13342
40.3 -0.13181
40.35 -0.12749
40.4 -0.12813
40.45 -0.12945
40.5 -0.13251
40.55 -0.13359
40.6 -0.13516
40.65 -0.13165
40.7 -0.12812
40.75 -0.12803
40.8 -0.12422
40.85 -0.11653
40.9 -0.11212
40.95 -0.10458
41 -0.09589
41.05 -0.08936
41.1 -0.08904
41.15 -0.08439
41.2 -0.08262
41.25 -0.08258
41.3 -0.07903
41.35 -0.07879
41.4 -0.07746
41.45 -0.07374
41.5 -0.07029
41.55 -0.06918
41.6 -0.06871
41.65 -0.07157
41.7 -0.07445
41.75 -0.07881
41.8 -0.07782
41.85 -0.07756
41.9 -0.07724
41.95 -0.07724
42 -0.07293
42.05 -0.06613
42.1 -0.06057
42.15 -0.05927
42.2 -0.05661
42.25 -0.05791
42.3 -0.05493
42.35 -0.05023
42.4 -0.05115
42.45 -0.05014
42.5 -0.05337
42.55 -0.05362
42.6 -0.0561
42.65 -0.06215
42.7 -0.06643
42.75 -0.07242
42.8 -0.07817
42.85 -0.08228
42.9 -0.07787
42.95 -0.07636
43 -0.07082
43.05 -0.06095
43.1 -0.05281
43.15 -0.04878
43.2 -0.04994
43.25 -0.05107
43.3 -0.05448
43.35 -0.05597
43.4 -0.05987
43.45 -0.05639
43.5 -0.04977
43.55 -0.04108
43.6 -0.03559
43.65 -0.03163
43.7 -0.02871
43.75 -0.02596
43.8 -0.02756
43.85 -0.03098
43.9 -0.03843
43.95 -0.04264
44 -0.04151
44.05 -0.03607
44.1 -0.03693
44.15 -0.0397
44.2 -0.03638
44.25 -0.03132
44.3 -0.02878
44.35 -0.02354
44.4 -0.02469
44.45 -0.02857
44.5 -0.03245
44.55 -0.03559
44.6 -0.0382
44.65 -0.04342
44.7 -0.04578
44.75 -0.04643
44.8 -0.04591
44.85 -0.04702
44.9 -0.04136
44.95 -0.03623
45 -0.03422
45.05 -0.02783
45.1 -0.02429
45.15 -0.02307
45.2 -0.02584
45.25 -0.0235
45.3 -0.02049
45.35 -0.0173
45.4 -0.01681
45.45 -0.01929
45.5 -0.02455
45.55 -0.02653
45.6 -0.02573
45.65 -0.02305
45.7 -0.01814
45.75 -0.01382
45.8 -0.0162
45.85 -0.01444
45.9 -0.01465
45.95 -0.01229
46 -0.00737
46.05 -0.00081
46.1 0.00613
46.15 0.00539
46.2 -0.00079
46.25 -0.00858
46.3 -0.012
46.35 -0.01508
46.4 -0.01333
46.45 -0.0153
46.5 -0.01616
46.55 -0.01686
46.6 -0.01898
46.65 -0.01639
46.7 -0.01444
46.75 -0.00942
46.8 -0.01147
46.85 -0.01649
46.9 -0.01503
46.95 -0.01182
47 -0.00614
47.05 -0.00389
47.1 -0.00349
47.15 -0.00048
47.2 0.00481
47.25 0.00512
47.3 0.00622
47.35 0.00379
47.4 -0.00055
47.45 -0.00232
47.5 -0.00149
47.55 -0.00032
47.6 -0.00055
47.65 -0.00283
47.7 -0.0022
47.75 -0.00017
47.8 -0.00249
47.85 -0.0019
47.9 -0.00157
47.95 0.00168
48 0.00152
48.05 -0.00395
48.1 -0.01235
48.15 -0.01981
48.2 -0.02461
48.25 -0.02436
48.3 -0.02388
48.35 -0.02461
48.4 -0.02898
48.45 -0.03457
48.5 -0.03497
48.55 -0.03721
48.6 -0.0328
48.65 -0.02629
48.7 -0.02523
48.75 -0.01967
48.8 -0.01249
48.85 -0.00924
48.9 -0.00567
48.95 -0.00273
49 -0.00014
49.05 0.00229
49.1 0.00347
49.15 0.00718
49.2 0.00982
49.25 0.00723
49.3 0.00272
49.35 0.0014
49.4 0.00107
49.45 0.00448
49.5 0.00921
49.55 0.00836
49.6 0.00636
49.65 0.00595
49.7 0.0081
49.75 0.01143
49.8 0.013
49.85 0.00806
49.9 0.00765
49.95 0.00715
50 0.0053
50.05 0.00327
50.1 -0.00378
50.15 -0.00443
50.2 -0.00152
50.25 0.00088
50.3 0.00577
50.35 0.00704
50.4 0.00677
50.45 0.00106
50.5 0.0004
50.55 -0.00463
50.6 -0.01157
50.65 -0.01517
50.7 -0.02107
50.75 -0.027
50.8 -0.03134
50.85 -0.03593
50.9 -0.03972
50.95 -0.04404
51 -0.043
51.05 -0.03543
51.1 -0.03295
51.15 -0.03355
51.2 -0.0291
51.25 -0.02708
51.3 -0.02468
51.35 -0.02087
51.4 -0.01718
51.45 -0.01429
51.5 -0.01412
51.55 -0.01042
51.6 -0.00551
51.65 0.0005
51.7 0.00553
51.75 0.00776
51.8 0.01062
51.85 0.01057
51.9 0.00688
51.95 0.00657
52 0.00168
52.05 -0.00186
52.1 -0.00634
52.15 -0.01054
52.2 -0.01224
52.25 -0.01683
52.3 -0.01512
52.35 -0.01059
52.4 -0.00807
52.45 -0.00554
52.5 -0.00219
52.55 -0.00283
52.6 -0.00803
52.65 -0.01349
52.7 -0.01765
52.75 -0.01841
52.8 -0.01854
52.85 -0.01511
52.9 -0.01235
52.95 -0.00556
53 -0.00379
53.05 -0.0072
53.1 -0.01355
53.15 -0.01847
53.2 -0.01552
53.25 -0.01242
53.3 -0.0128
53.35 -0.01006
53.4 -0.01054
53.45 -0.00772
53.5 -0.00308
53.55 0.00047
53.6 -0.00202
53.65 -0.00228
53.7 -0.00085
53.75 0.00142
53.8 -0.00064
53.85 -0.00053
53.9 -0.00395
53.95 -0.01065
54 -0.01764
54.05 -0.01886
54.1 -0.0181
54.15 -0.01751
54.2 -0.02032
54.25 -0.02052
54.3 -0.01742
54.35 -0.01261
54.4 -0.01184
54.45 -0.00722
54.5 -0.00403
54.55 -0.00056
54.6 0.00517
54.65 0.00878
54.7 0.01338
54.75 0.01551
54.8 0.01584
54.85 0.0154
54.9 0.01372
54.95 0.01476
55 0.00978
55.05 0.00997
55.1 0.00579
55.15 -0.00054
55.2 -0.00013
55.25 -0.00087
55.3 -0.00573
55.35 -0.00404
55.4 -0.00638
55.45 -0.00921
55.5 -0.00665
55.55 -0.00876
55.6 -0.00474
55.65 -0.00166
55.7 0.00097
55.75 0.00437
55.8 0.00626
55.85 0.01161
55.9 0.01857
55.95 0.02247
56 0.02133
56.05 0.02249
56.1 0.01986
56.15 0.01638
56.2 0.01616
56.25 0.01378
56.3 0.01155
56.35 0.0129
56.4 0.01064
56.45 0.01053
56.5 0.00906
56.55 0.00943
56.6 0.00896
56.65 0.0084
56.7 0.00756
56.75 0.00829
56.8 0.0078
56.85 0.01014
56.9 0.00567
56.95 0.00265
57 -0.00074
57.05 -0.00524
57.1 -0.00331
57.15 0.0013
57.2 0.0033
57.25 0.00279
57.3 -0.00221
57.35 -0.00167
57.4 -0.00449
57.45 -0.00167
57.5 0.00103
57.55 0.00434
57.6 0.00357
57.65 0.00709
57.7 0.00817
57.75 0.00605
57.8 0.00748
57.85 0.00498
57.9 0.00311
57.95 0.00291
58 0.00024
58.05 0.00167
58.1 0.00294
58.15 0.00544
58.2 0.0101
58.25 0.00843
58.3 0.00199
58.35 -0.00038
58.4 -0.0058
58.45 -0.00848
58.5 -0.01305
58.55 -0.01764
58.6 -0.02146
58.65 -0.02629
58.7 -0.02411
58.75 -0.02237
58.8 -0.01668
58.85 -0.01086
58.9 -0.01126
58.95 -0.01118
59 -0.00775
59.05 -0.00125
59.1 0.00218
59.15 0.00433
59.2 0.00911
59.25 0.01345
59.3 0.01679
59.35 0.0145
59.4 0.01345
59.45 0.00962
59.5 0.0053
59.55 0.003
59.6 0.00407
59.65 -0.00075
59.7 0.00023
59.75 0.00162
59.8 -0.00085
59.85 0.00211
59.9 0.00516
59.95 0.00485
60 0.0033
60.05 -0.00249
60.1 -0.0107
60.15 -0.01493
60.2 -0.01242
60.25 -0.00694
60.3 0.00136
60.35 0.00147
60.4 -0.00255
60.45 -0.00552
60.5 -0.00576
60.55 -0.00809
60.6 -0.00995
60.65 -0.0149
60.7 -0.01803
60.75 -0.01499
60.8 -0.01082
60.85 -0.00606
60.9 0.00136
60.95 0.00806
61 0.01216
61.05 0.01438
61.1 0.0147
61.15 0.0113
61.2 0.0056
61.25 -0.00257
61.3 -0.0078
61.35 -0.00752
61.4 -0.00824
61.45 -0.00805
61.5 -0.00759
61.55 -0.00445
61.6 -0.00121
61.65 0.00444
61.7 0.00333
61.75 0.00024
61.8 -0.00359
61.85 -0.00482
61.9 -0.01025
61.95 -0.01321
62 -0.01351
62.05 -0.01477
62.1 -0.01416
62.15 -0.01293
62.2 -0.01175
62.25 -0.01165
62.3 -0.01251
62.35 -0.00938
62.4 -0.00803
62.45 -0.00603
62.5 -0.00198
62.55 -0.00364
62.6 -0.00203
62.65 0.00248
62.7 0.00619
62.75 0.00525
62.8 0.0088
62.85 0.01319
62.9 0.01583
62.95 0.01222
63 0.00967
63.05 0.00908
63.1 0.00377
63.15 0.00355
63.2 0.00024
63.25 -0.00074
63.3 -0.00623
63.35 -0.00844
63.4 -0.01032
63.45 -0.01099
63.5 -0.00659
63.55 -0.00188
63.6 -0.00357
63.65 -0.00923
63.7 -0.01178
63.75 -0.00968
63.8 -0.00959
63.85 -0.00908
63.9 -0.0038
63.95 0.00238
64 0.0014
64.05 -0.00024
64.1 -0.00218
64.15 -0.00463
64.2 -0.0088
64.25 -0.01459
64.3 -0.01654
64.35 -0.01458
64.4 -0.01177
64.45 -0.00925
64.5 -0.00406
64.55 -0.0041
64.6 -0.00003
64.65 0.00525
64.7 0.00521
64.75 0.00258
64.8 -0.0027
64.85 -0.00718
64.9 -0.01038
64.95 -0.00945
65 -0.00897
65.05 -0.00958
65.1 -0.00857
65.15 -0.0037
65.2 0.00247
65.25 0.00858
65.3 0.00972
65.35 0.01144
65.4 0.01408
65.45 0.01182
65.5 0.00677
65.55 0.00265
65.6 -0.00445
65.65 -0.01088
65.7 -0.01868
65.75 -0.02068
65.8 -0.0187
65.85 -0.01855
65.9 -0.01658
65.95 -0.01426
66 -0.01582
66.05 -0.01532
66.1 -0.01178
66.15 -0.00766
66.2 -0.00028
66.25 0.00176
66.3 0.00416
66.35 0.00375
66.4 0.00688
66.45 0.0051
66.5 0.00347
66.55 0.00261
66.6 0.00331
66.65 0.00085
66.7 -0.00287
66.75 -0.00646
66.8 -0.00595
66.85 -0.00195
66.9 0.00347
66.95 0.00301
67 0.00155
67.05 -0.00397
67.1 -0.00355
67.15 -0.00437
67.2 -0.00595
67.25 -0.00643
67.3 -0.0018
67.35 0.00199
67.4 0.00825
67.45 0.015
67.5 0.01647
67.55 0.02022
67.6 0.02498
67.65 0.02975
67.7 0.02879
67.75 0.02509
67.8 0.01638
67.85 0.01333
67.9 0.00886
67.95 0.00622
68 0.00799
68.05 0.00419
68.1 -0.00173
68.15 -0.0095
68.2 -0.01611
68.25 -0.01499
68.3 -0.00876
68.35 0.00041
68.4 0.00605
68.45 0.01257
68.5 0.01284
68.55 0.01096
68.6 0.00641
68.65 0.00653
68.7 0.00144
68.75 0.00073
68.8 -0.00225
68.85 -0.00584
68.9 -0.00757
68.95 -0.00625
69 -0.0072
69.05 -0.00668
69.1 -0.00114
69.15 0.00214
69.2 0.00604
69.25 0.00367
69.3 0.00389
69.35 0.00282
69.4 0.0047
69.45 0.00721
69.5 0.00416
69.55 0.003
69.6 0.00344
69.65 0.00048
69.7 -0.00146
69.75 -0.00417
69.8 -0.00613
69.85 -0.00526
69.9 -0.00695
69.95 -0.00934
70 -0.01339
70.05 -0.01649
70.1 -0.01948
70.15 -0.02069
70.2 -0.01611
70.25 -0.01302
70.3 -0.00964
70.35 -0.00777
70.4 -0.00959
70.45 -0.00919
70.5 -0.01266
70.55 -0.00895
70.6 -0.00643
70.65 -0.00631
70.7 -0.00433
70.75 -0.00643
70.8 -0.00786
70.85 -0.0042
70.9 -0.00198
70.95 0.00275
71 0.00331
71.05 -0.0011
71.1 -0.00105
71.15 0.00114
71.2 0.00003
71.25 -0.00439
71.3 -0.01097
71.35 -0.01509
71.4 -0.01275
71.45 -0.01255
71.5 -0.00654
71.55 0.00047
71.6 0.00945
71.65 0.01102
71.7 0.00892
71.75 0.01015
71.8 0.00955
71.85 0.00447
71.9 0.00557
71.95 0.00562
72 0.00751
72.05 0.00969
72.1 0.01368
72.15 0.01462
72.2 0.01296
72.25 0.01472
72.3 0.01491
72.35 0.01126
72.4 0.01074
72.45 0.00515
72.5 0.00393
72.55 0.00227
72.6 -0.0035
72.65 -0.00259
72.7 -0.00134
72.75 -0.00414
72.8 -0.00235
72.85 -0.00264
72.9 0.00062
72.95 0.00394
73 0.00278
73.05 -0.00186
73.1 0.00005
73.15 -0.00318
73.2 -0.00668
73.25 -0.0076
73.3 -0.00295
73.35 0.00421
73.4 0.00563
73.45 0.00196
73.5 -0.00205
73.55 -0.00056
73.6 -0.00175
73.65 0.00056
73.7 0.00582
73.75 0.0043
73.8 0.00552
73.85 0.00287
73.9 0.00085
73.95 0.00303
74 -0.00039
74.05 -0.00219
74.1 0.00129
74.15 0.00768
74.2 0.00912
74.25 0.00744
74.3 0.01015
74.35 0.01172
74.4 0.00839
74.45 0.00468
74.5 0.00055
74.55 -0.00261
74.6 -0.00807
74.65 -0.01422
74.7 -0.01246
74.75 -0.01518
74.8 -0.01807
74.85 -0.01787
74.9 -0.01677
74.95 -0.0163
75 -0.01591
75.05 -0.01093
75.1 -0.00375
75.15 -0.00237
75.2 -0.00193
75.25 -0.00063
75.3 -0.00095
75.35 -0.00568
75.4 -0.00971
75.45 -0.01613
75.5 -0.0192
75.55 -0.01548
75.6 -0.00878
75.65 -0.00355
75.7 0.00126
75.75 0.0024
75.8 -0.0004
75.85 -0.00418
75.9 -0.00779
75.95 -0.00575
76 -0.00669
76.05 -0.00259
76.1 0.00496
76.15 0.00473
76.2 0.00396
76.25 0.00117
76.3 0.00225
76.35 0.00312
76.4 0.00661
76.45 0.00358
76.5 -0.00241
76.55 -0.00783
76.6 -0.00758
76.65 -0.00797
76.7 -0.00485
76.75 -0.00234
76.8 0.0017
76.85 0.00554
76.9 0.00881
76.95 0.00744
77 0.00868
77.05 0.00977
77.1 0.00795
77.15 0.00885
77.2 0.00691
77.25 0.00354
77.3 0.00153
77.35 0.00063
77.4 -0.00372
77.45 -0.0019
77.5 -0.00172
77.55 0.00081
77.6 -0.00068
77.65 0.00127
77.7 0.00107
77.75 -0.00116
77.8 -0.0025
77.85 -0.00296
77.9 0.00104
77.95 0.00621
78 0.01357
78.05 0.01742
78.1 0.01475
78.15 0.01624
78.2 0.01505
78.25 0.01195
78.3 0.00454
78.35 0.00164
78.4 -0.00392
78.45 -0.00554
78.5 -0.00723
78.55 -0.00448
78.6 -0.00076
78.65 0.00002
78.7 -0.00396
78.75 -0.00843
78.8 -0.00815
78.85 -0.0037
78.9 0.00166
78.95 0.00829
79 0.00765
79.05 0.00542
79.1 0.00092
79.15 -0.00591
79.2 -0.00668
79.25 -0.01087
79.3 -0.01352
79.35 -0.0144
79.4 -0.01191
79.45 -0.01136
79.5 -0.01342
79.55 -0.01147
79.6 -0.0082
79.65 -0.00611
79.7 -0.00778
79.75 -0.01244
79.8 -0.0133
79.85 -0.01623
79.9 -0.01616
79.95 -0.01178
80 -0.01261
80.05 -0.00971
80.1 -0.00935
80.15 -0.00867
80.2 -0.00396
80.25 0.0005
80.3 -0.00102
80.35 -0.00001
80.4 -0.00363
80.45 -0.00924
80.5 -0.01031
80.55 -0.00752
80.6 -0.00657
80.65 -0.00158
80.7 0.00198
80.75 0.00418
80.8 0.00867
80.85 0.01264
80.9 0.01228
80.95 0.01108
81 0.01038
81.05 0.0137
81.1 0.01598
81.15 0.01909
81.2 0.02295
81.25 0.02618
81.3 0.0215
81.35 0.01934
81.4 0.01976
81.45 0.01356
81.5 0.01296
81.55 0.01535
81.6 0.01174
81.65 0.00995
81.7 0.00559
81.75 -0.00198
81.8 -0.00366
81.85 -0.00054
81.9 0.00318
81.95 0.00142
82 0.00163
82.05 0.00491
82.1 0.0081
82.15 0.01049
82.2 0.0145
82.25 0.01367
82.3 0.01409
82.35 0.01427
82.4 0.01437
82.45 0.01364
82.5 0.01405
82.55 0.01614
82.6 0.01952
82.65 0.02053
82.7 0.02375
82.75 0.02788
82.8 0.02893
82.85 0.03092
82.9 0.02536
82.95 0.02316
83 0.02245
83.05 0.02243
83.1 0.02337
83.15 0.02462
83.2 0.01811
83.25 0.01556
83.3 0.01661
83.35 0.01684
83.4 0.01578
83.45 0.01172
83.5 0.00533
83.55 -0.00325
83.6 -0.00521
83.65 -0.0027
83.7 0.00196
83.75 0.00426
83.8 -0.00002
83.85 0.00034
83.9 -0.00453
83.95 -0.0083
84 -0.01172
84.05 -0.01721
84.1 -0.01872
84.15 -0.01698
84.2 -0.01118
84.25 -0.003
84.3 0.00559
84.35 0.01339
84.4 0.01587
84.45 0.01265
84.5 0.00885
84.55 0.00273
84.6 -0.0022
84.65 -0.00128
84.7 0.00251
84.75 0.00344
84.8 0.00551
84.85 0.00457
84.9 0.00372
84.95 0.00637
85 0.00884
85.05 0.00649
85.1 -0.00058
85.15 -0.0041
85.2 -0.00883
85.25 -0.01316
85.3 -0.01983
85.35 -0.02633
85.4 -0.03109
85.45 -0.03454
85.5 -0.03842
85.55 -0.04066
85.6 -0.04218
85.65 -0.03755
85.7 -0.02881
85.75 -0.02444
85.8 -0.02266
85.85 -0.01687
85.9 -0.00953
85.95 -0.00562
86 -0.00354
86.05 0.00064
86.1 0.00518
86.15 0.00505
86.2 0.00518
86.25 0.00226
86.3 -0.00052
86.35 -0.00256
86.4 -0.00279
86.45 0.00144
86.5 0.0024
86.55 -0.00111
86.6 -0.00369
86.65 -0.00057
86.7 0.00176
86.75 0.00708
86.8 0.00641
86.85 0.00065
86.9 0.00116
86.95 -0.00237
87 -0.00632
87.05 -0.00892
87.1 -0.01378
87.15 -0.01127
87.2 -0.00853
87.25 -0.00379
87.3 -0.00367
87.35 0.00101
87.4 0.00374
87.45 0.0054
87.5 0.00764
87.55 0.00592
87.6 0.00642
87.65 0.01006
87.7 0.01264
87.75 0.01608
87.8 0.01559
87.85 0.01374
87.9 0.00947
87.95 0.0073
88 0.00299
88.05 0.00147
88.1 -0.00125
88.15 -0.00528
88.2 -0.00765
88.25 -0.01116
88.3 -0.01513
88.35 -0.02138
88.4 -0.02117
88.45 -0.02024
88.5 -0.0151
88.55 -0.0108
88.6 -0.00772
88.65 -0.00396
88.7 -0.00147
88.75 -0.00362
88.8 -0.00788
88.85 -0.01046
88.9 -0.00679
88.95 -0.00746
89 -0.00505
89.05 -0.00064
89.1 0.00411
89.15 0.00428
89.2 0.0081
89.25 0.0083
89.3 0.00776
89.35 0.00712
89.4 0.00674
89.45 0.00829
89.5 0.01168
89.55 0.01645
89.6 0.01562
89.65 0.01575
89.7 0.01318
89.75 0.01267
89.8 0.01082
89.85 0.00766
89.9 0.00343
89.95 -0.00181
90 -0.00735
90.05 -0.00843
90.1 -0.01297
90.15 -0.01527
90.2 -0.01954
90.25 -0.01979
90.3 -0.02035
90.35 -0.01985
90.4 -0.02298
90.45 -0.02244
90.5 -0.02214
90.55 -0.02288
90.6 -0.02073
90.65 -0.01803
90.7 -0.01714
90.75 -0.01821
90.8 -0.01327
90.85 -0.01366
90.9 -0.01316
90.95 -0.01579
91 -0.01585
91.05 -0.01331
91.1 -0.01456
91.15 -0.0106
91.2 -0.00815
91.25 -0.00786
91.3 -0.01032
91.35 -0.00766
91.4 -0.00823
91.45 -0.01107
91.5 -0.00708
91.55 -0.00431
91.6 -0.00372
91.65 -0.00679
91.7 -0.00944
91.75 -0.00999
91.8 -0.00779
91.85 -0.00177
91.9 0.00035
91.95 -0.00075
92 -0.00358
92.05 -0.00137
92.1 -0.00352
92.15 -0.00444
92.2 -0.00922
92.25 -0.01373
92.3 -0.0112
92.35 -0.00816
92.4 -0.00095
92.45 0.00845
92.5 0.01869
92.55 0.02578
92.6 0.0301
92.65 0.03352
92.7 0.03238
92.75 0.03198
92.8 0.03156
92.85 0.03205
92.9 0.03151
92.95 0.03034
93 0.02938
93.05 0.02486
93.1 0.01868
93.15 0.01234
93.2 0.0079
93.25 0.00183
93.3 0.00065
93.35 -0.00031
93.4 -0.00038
93.45 0.00299
93.5 0.00891
93.55 0.01371
93.6 0.01187
93.65 0.01352
93.7 0.01787
93.75 0.01969
93.8 0.01577
93.85 0.0149
93.9 0.01093
93.95 0.00318
94 0.00153
94.05 0.00032
94.1 0.00385
94.15 0.00343
94.2 0.0011
94.25 -0.00531
94.3 -0.01016
94.35 -0.01184
94.4 -0.00924
94.45 -0.00517
94.5 -0.00587
94.55 -0.00478
94.6 -0.00687
94.65 -0.00952
94.7 -0.00909
94.75 -0.00437
94.8 0.00152
94.85 0.00282
94.9 0.00394
94.95 0.00243
95 0.00327
95.05 0.00166
95.1 -0.00441
95.15 -0.00611
95.2 -0.0071
95.25 -0.0083
95.3 -0.00577
95.35 -0.00544
95.4 -0.00336
95.45 0.00226
95.5 0.00495
95.55 0.00164
95.6 0.00294
95.65 0.0064
95.7 0.01037
95.75 0.01129
95.8 0.01186
95.85 0.00676
95.9 0.00414
95.95 -0.00299
96 -0.00507
96.05 -0.0044
96.1 -0.00248
96.15 -0.00091
96.2 -0.00273
96.25 -0.00734
96.3 -0.00913
96.35 -0.00622
96.4 -0.00042
96.45 0.00522
96.5 0.00835
96.55 0.01063
96.6 0.00594
96.65 -0.00124
96.7 -0.00944
96.75 -0.01333
96.8 -0.01265
96.85 -0.01291
96.9 -0.017
96.95 -0.01513
97 -0.00995
97.05 -0.00903
97.1 -0.01138
97.15 -0.01554
97.2 -0.02158
97.25 -0.02513
97.3 -0.02541
97.35 -0.0202
97.4 -0.01461
97.45 -0.01379
97.5 -0.01472
97.55 -0.01656
97.6 -0.02006
97.65 -0.02357
97.7 -0.0238
97.75 -0.02154
97.8 -0.02111
97.85 -0.02064
97.9 -0.0171
97.95 -0.01399
98 -0.01147
98.05 -0.00569
98.1 -0.00363
98.15 0.00095
98.2 -0.00091
98.25 -0.00464
98.3 -0.00439
98.35 -0.00501
98.4 -0.00749
98.45 -0.00558
98.5 -0.00254
98.55 0.00203
98.6 0.00303
98.65 0.00322
98.7 0.00492
98.75 0.00245
98.8 0.00071
98.85 0.00449
98.9 0.00959
98.95 0.01586
99 0.02067
99.05 0.02017
99.1 0.01518
99.15 0.01351
99.2 0.0124
99.25 0.00921
99.3 0.00769
99.35 0.01032
99.4 0.0102
99.45 0.01134
99.5 0.01058
99.55 0.01355
99.6 0.01173
99.65 0.00547
99.7 -0.00007
99.75 -0.00666
99.8 -0.01219
99.85 -0.01301
99.9 -0.01667
99.95 -0.02078
