0 0
0.05 0.008
0.1 0.01866
0.15 0.02887
0.2 0.03621
0.25 0.04646
0.3 0.05811
0.35 0.06565
0.4 0.06678
0.45 0.06588
0.5 0.0636
0.55 0.06532
0.6 0.06427
0.65 0.05855
0.7 0.05677
0.75 0.05304
0.8 0.04829
0.85 0.04569
0.9 0.04348
0.95 0.04563
1 0.04391
1.05 0.04622
1.1 0.04576
1.15 0.04784
1.2 0.05172
1.25 0.05445
1.3 0.05884
1.35 0.06039
1.4 0.06259
1.45 0.06251
1.5 0.06013
1.55 0.05253
1.6 0.0426
1.65 0.03133
1.7 0.02711
1.75 0.02218
1.8 0.02353
1.85 0.02544
1.9 0.03048
1.95 0.03335
2 0.03875
2.05 0.0453
2.1 0.05009
2.15 0.04858
2.2 0.04762
2.25 0.04808
2.3 0.04987
2.35 0.04769
2.4 0.04642
2.45 0.04139
2.5 0.03926
2.55 0.03191
2.6 0.02907
2.65 0.02609
2.7 0.02725
2.75 0.0279
2.8 0.03004
2.85 0.02988
2.9 0.02719
2.95 0.02737
3 0.02256
3.05 0.01915
3.1 0.01574
3.15 0.01595
3.2 0.01508
3.25 0.01774
3.3 0.01912
3.35 0.01611
3.4 0.01411
3.45 0.0132
3.5 0.01242
3.55 0.00928
3.6 0.00698
3.65 0.00947
3.7 0.01206
3.75 0.00931
3.8 0.00407
3.85 0.00567
3.9 0.0051
3.95 0.00458
4 0.0032
4.05 0.00334
4.1 0.00177
4.15 -0.00154
4.2 -0.00752
4.25 -0.00668
4.3 -0.00878
4.35 -0.01012
4.4 -0.01284
4.45 -0.01229
4.5 -0.01525
4.55 -0.01972
4.6 -0.02774
4.65 -0.03905
4.7 -0.05825
4.75 -0.07807
4.8 -0.10272
4.85 -0.13102
4.9 -0.15884
4.95 -0.19315
5 -0.23213
5.05 -0.28006
5.1 -0.33392
5.15 -0.39315
5.2 -0.45421
5.25 -0.52545
5.3 -0.60353
5.35 -0.68658
5.4 -0.77254
5.45 -0.86191
5.5 -0.95603
5.55 -1.05209
5.6 -1.14427
5.65 -1.23932
5.7 -1.33094
5.75 -1.42463
5.8 -1.52023
5.85 -1.61652
5.9 -1.71352
5.95 -1.80822
6 -1.8921
6.05 -1.97376
6.1 -2.05021
6.15 -2.12321
6.2 -2.18919
6.25 -2.25227
6.3 -2.31372
6.35 -2.36664
6.4 -2.41556
6.45 -2.45879
6.5 -2.49054
6.55 -2.51046
6.6 -2.5193
6.65 -2.51523
6.7 -2.50194
6.75 -2.47365
6.8 -2.43603
6.85 -2.38744
6.9 -2.32693
6.95 -2.24375
7 -2.14271
7.05 -2.02904
7.1 -1.89934
7.15 -1.75254
7.2 -1.5929
7.25 -1.42384
7.3 -1.24023
7.35 -1.04986
7.4 -0.85513
7.45 -0.64944
7.5 -0.44101
7.55 -0.23225
7.6 -0.02724
7.65 0.17673
7.7 0.37542
7.75 0.56563
7.8 0.74719
7.85 0.92393
7.9 1.08946
7.95 1.23759
8 1.37552
8.05 1.50001
8.1 1.61335
8.15 1.71584
8.2 1.80402
8.25 1.88125
8.3 1.95213
8.35 2.01852
8.4 2.07281
8.45 2.11918
8.5 2.15313
8.55 2.17843
8.6 2.20189
8.65 2.2231
8.7 2.23849
8.75 2.24199
8.8 2.24169
8.85 2.23346
8.9 2.22177
8.95 2.21279
9 2.20195
9.05 2.18678
9.1 2.17217
9.15 2.16005
9.2 2.14335
9.25 2.12644
9.3 2.10781
9.35 2.08997
9.4 2.06762
9.45 2.04176
9.5 2.01574
9.55 1.98536
9.6 1.9589
9.65 1.93052
9.7 1.89811
9.75 1.86353
9.8 1.8303
9.85 1.79983
9.9 1.76956
9.95 1.7332
10 1.69878
10.05 1.66409
10.1 1.62458
10.15 1.58072
10.2 1.53678
10.25 1.49848
10.3 1.46011
10.35 1.42144
10.4 1.37796
10.45 1.33442
10.5 1.28771
10.55 1.23783
10.6 1.18953
10.65 1.13933
10.7 1.09239
10.75 1.04859
10.8 1.0014
10.85 0.95089
10.9 0.89978
10.95 0.85488
11 0.81408
11.05 0.77186
11.1 0.72627
11.15 0.67742
11.2 0.62878
11.25 0.58172
11.3 0.53762
11.35 0.49161
11.4 0.45234
11.45 0.4165
11.5 0.38268
11.55 0.34558
11.6 0.31004
11.65 0.27063
11.7 0.23709
11.75 0.20716
11.8 0.178
11.85 0.14575
11.9 0.1178
11.95 0.09054
12 0.05796
12.05 0.02762
12.1 -0.00591
12.15 -0.03296
12.2 -0.06018
12.25 -0.08596
12.3 -0.10888
12.35 -0.12629
12.4 -0.14497
12.45 -0.16675
12.5 -0.18702
12.55 -0.20422
12.6 -0.22393
12.65 -0.241
12.7 -0.25379
12.75 -0.26589
12.8 -0.27712
12.85 -0.28457
12.9 -0.29599
12.95 -0.31003
13 -0.31792
13.05 -0.32973
13.1 -0.33804
13.15 -0.3415
13.2 -0.34203
13.25 -0.34166
13.3 -0.33911
13.35 -0.34454
13.4 -0.34948
13.45 -0.35096
13.5 -0.35513
13.55 -0.36129
13.6 -0.36661
13.65 -0.36842
13.7 -0.36617
13.75 -0.36757
13.8 -0.36701
13.85 -0.36992
13.9 -0.37179
13.95 -0.37
14 -0.37027
14.05 -0.3663
14.1 -0.36056
14.15 -0.35888
14.2 -0.35652
14.25 -0.35494
14.3 -0.35644
14.35 -0.35271
14.4 -0.35082
14.45 -0.34732
14.5 -0.33987
14.55 -0.33619
14.6 -0.33301
14.65 -0.32925
14.7 -0.32457
14.75 -0.32136
14.8 -0.31974
14.85 -0.31546
14.9 -0.31551
14.95 -0.3129
15 -0.30886
15.05 -0.30569
15.1 -0.30201
15.15 -0.29498
15.2 -0.28473
15.25 -0.28045
15.3 -0.2785
15.35 -0.27295
15.4 -0.26711
15.45 -0.26133
15.5 -0.25851
15.55 -0.25354
15.6 -0.25161
15.65 -0.25278
15.7 -0.24861
15.75 -0.24298
15.8 -0.24278
15.85 -0.24382
15.9 -0.24485
15.95 -0.24152
16 -0.23705
16.05 -0.22928
16.1 -0.22347
16.15 -0.21927
16.2 -0.22007
16.25 -0.21767
16.3 -0.2161
16.35 -0.20904
16.4 -0.20734
16.45 -0.20108
16.5 -0.19749
16.55 -0.19757
16.6 -0.19552
16.65 -0.19051
16.7 -0.18772
16.75 -0.1837
16.8 -0.1846
16.85 -0.18215
16.9 -0.18371
16.95 -0.18632
17 -0.18357
17.05 -0.17612
17.1 -0.17095
17.15 -0.16523
17.2 -0.15928
17.25 -0.15643
17.3 -0.1582
17.35 -0.15347
17.4 -0.15122
17.45 -0.14681
17.5 -0.14203
17.55 -0.13743
17.6 -0.13529
17.65 -0.13139
17.7 -0.12477
17.75 -0.11979
17.8 -0.11323
17.85 -0.11448
17.9 -0.11961
17.95 -0.12279
18 -0.12019
18.05 -0.12106
18.1 -0.11684
18.15 -0.11079
18.2 -0.1107
18.25 -0.10896
18.3 -0.10686
18.35 -0.10436
18.4 -0.10125
18.45 -0.09587
18.5 -0.09334
18.55 -0.09301
18.6 -0.09681
18.65 -0.09914
18.7 -0.104
18.75 -0.11073
18.8 -0.1127
18.85 -0.11402
18.9 -0.11012
18.95 -0.10849
19 -0.10771
19.05 -0.10401
19.1 -0.10122
19.15 -0.09701
19.2 -0.09029
19.25 -0.08598
19.3 -0.08484
19.35 -0.08154
19.4 -0.07696
19.45 -0.07447
19.5 -0.07628
19.55 -0.07526
19.6 -0.07583
19.65 -0.07542
19.7 -0.07859
19.75 -0.07685
19.8 -0.07916
19.85 -0.07967
19.9 -0.07726
19.95 -0.07455
20 -0.06876
20.05 -0.06237
20.1 -0.05753
20.15 -0.05786
20.2 -0.06108
20.25 -0.05842
20.3 -0.05872
20.35 -0.05979
20.4 -0.05688
20.45 -0.05118
20.5 -0.05142
20.55 -0.05444
20.6 -0.0575
20.65 -0.05967
20.7 -0.05565
20.75 -0.048
20.8 -0.04403
20.85 -0.04603
20.9 -0.04885
20.95 -0.05241
21 -0.05783
21.05 -0.05935
21.1 -0.05678
21.15 -0.05012
21.2 -0.04625
21.25 -0.04436
21.3 -0.03913
21.35 -0.03983
21.4 -0.03884
21.45 -0.04065
21.5 -0.04168
21.55 -0.0383
21.6 -0.03577
21.65 -0.0371
21.7 -0.03691
21.75 -0.03912
21.8 -0.04252
21.85 -0.04047
21.9 -0.03951
21.95 -0.04171
22 -0.04355
22.05 -0.0439
22.1 -0.04173
22.15 -0.04183
22.2 -0.03671
22.25 -0.03179
22.3 -0.0252
22.35 -0.02402
22.4 -0.02475
22.45 -0.02796
22.5 -0.02881
22.55 -0.0283
22.6 -0.02965
22.65 -0.02587
22.7 -0.02073
22.75 -0.01827
22.8 -0.02166
22.85 -0.0244
22.9 -0.02937
22.95 -0.02786
23 -0.0242
23.05 -0.02582
23.1 -0.03103
23.15 -0.03807
23.2 -0.0402
23.25 -0.04125
23.3 -0.04113
23.35 -0.03597
23.4 -0.02995
23.45 -0.02347
23.5 -0.02285
23.55 -0.01961
23.6 -0.0131
23.65 -0.00947
23.7 -0.00336
23.75 -0.00436
23.8 -0.00717
23.85 -0.014
23.9 -0.02272
23.95 -0.02389
24 -0.02266
24.05 -0.02061
24.1 -0.01497
24.15 -0.00729
24.2 -0.00029
24.25 0.0003
24.3 -0.0015
24.35 0.00066
24.4 0.00407
24.45 0.00493
24.5 0.0044
24.55 0.00431
24.6 -0.00064
24.65 -0.00289
24.7 -0.00439
24.75 -0.00751
24.8 -0.01022
24.85 -0.01131
24.9 -0.00967
24.95 -0.01045
25 -0.00695
25.05 -0.00442
25.1 -0.00632
25.15 -0.00521
25.2 -0.00136
25.25 0.00373
25.3 0.00838
25.35 0.00725
25.4 0.00834
25.45 0.01083
25.5 0.01169
25.55 0.00991
25.6 0.00619
25.65 0.00311
25.7 -0.00023
25.75 -0.00574
25.8 -0.01301
25.85 -0.01641
25.9 -0.01442
25.95 -0.01516
26 -0.01482
26.05 -0.01232
26.1 -0.0072
26.15 -0.0052
26.2 -0.00589
26.25 -0.007
26.3 -0.00497
26.35 -0.00118
26.4 -0.00075
26.45 -0.00487
26.5 -0.0101
26.55 -0.01433
26.6 -0.01635
26.65 -0.01525
26.7 -0.01285
26.75 -0.01289
26.8 -0.00884
26.85 -0.01031
26.9 -0.01176
26.95 -0.01293
27 -0.01798
27.05 -0.02263
27.1 -0.02846
27.15 -0.02907
27.2 -0.03204
27.25 -0.02851
27.3 -0.02545
27.35 -0.01828
27.4 -0.01536
27.45 -0.01764
27.5 -0.02106
27.55 -0.0243
27.6 -0.02552
27.65 -0.02053
27.7 -0.01189
27.75 -0.00896
27.8 -0.00592
27.85 -0.00676
27.9 -0.00577
27.95 -0.00955
28 -0.01025
28.05 -0.00857
28.1 -0.01114
28.15 -0.01111
28.2 -0.01235
28.25 -0.01299
28.3 -0.0166
28.35 -0.01922
28.4 -0.02161
28.45 -0.01829
28.5 -0.01415
28.55 -0.01102
28.6 -0.01139
28.65 -0.0076
28.7 -0.00247
28.75 0.00054
28.8 0.00424
28.85 0.00441
28.9 0.00823
28.95 0.01225
29 0.01317
29.05 0.01203
29.1 0.01429
29.15 0.01085
29.2 0.00368
29.25 -0.00158
29.3 -0.00895
29.35 -0.01428
29.4 -0.01268
29.45 -0.00981
29.5 -0.00781
29.55 -0.00454
29.6 -0.00434
29.65 -0.00355
29.7 -0.00637
29.75 -0.0124
29.8 -0.01362
29.85 -0.0169
29.9 -0.02222
29.95 -0.02011
30 -0.01933
30.05 -0.01483
30.1 -0.01276
30.15 -0.01519
30.2 -0.01573
30.25 -0.01123
30.3 -0.01176
30.35 -0.01207
30.4 -0.01574
30.45 -0.01276
30.5 -0.00814
30.55 -0.00377
30.6 0.00057
30.65 -0.00093
30.7 -0.00031
30.75 0.00444
30.8 0.00865
30.85 0.00633
30.9 0.00586
30.95 0.00471
31 0.0064
31.05 0.00253
31.1 0.00288
31.15 0.00362
31.2 0.00801
31.25 0.01347
31.3 0.01786
31.35 0.01553
31.4 0.00813
31.45 -0.00212
31.5 -0.01064
31.55 -0.01968
31.6 -0.02008
31.65 -0.01701
31.7 -0.01556
31.75 -0.01695
31.8 -0.01337
31.85 -0.01095
31.9 -0.00964
31.95 -0.00535
32 -0.00491
32.05 -0.00375
32.1 -0.005
32.15 -0.00552
32.2 -0.00345
32.25 0.00254
32.3 0.00466
32.35 0.00417
32.4 -0.00088
32.45 -0.0008
32.5 -0.00429
32.55 -0.00408
32.6 -0.00212
32.65 -0.00469
32.7 -0.00874
32.75 -0.00968
32.8 -0.01382
32.85 -0.01975
32.9 -0.02555
32.95 -0.03004
33 -0.02632
33.05 -0.02409
33.1 -0.02067
33.15 -0.02033
33.2 -0.01549
33.25 -0.01007
33.3 -0.00591
33.35 -0.00091
33.4 0.00033
33.45 0.00277
33.5 0.00629
33.55 0.00851
33.6 0.00525
33.65 -0.00107
33.7 -0.00095
33.75 0.00278
33.8 0.00953
33.85 0.01365
33.9 0.01925
33.95 0.02026
34 0.01762
34.05 0.01128
34.1 0.01036
34.15 0.00877
34.2 0.01149
34.25 0.01522
34.3 0.02017
34.35 0.02506
34.4 0.02964
34.45 0.02936
34.5 0.02515
34.55 0.0202
34.6 0.0125
34.65 0.00648
34.7 0.00612
34.75 0.00534
34.8 0.00267
34.85 0.00174
34.9 0.00113
34.95 -0.00363
35 -0.00683
35.05 -0.00496
35.1 -0.00688
35.15 -0.00335
35.2 0.00156
35.25 0.0064
35.3 0.01322
35.35 0.01559
35.4 0.01526
35.45 0.01028
35.5 0.00755
35.55 0.00924
35.6 0.01203
35.65 0.01553
35.7 0.01263
35.75 0.00896
35.8 0.0049
35.85 -0.00178
35.9 -0.00565
35.95 -0.00809
36 -0.00774
36.05 -0.00617
36.1 -0.00305
36.15 -0.00345
36.2 -0.00105
36.25 0.00029
36.3 0.00356
36.35 0.00531
36.4 0.00255
36.45 -0.00017
36.5 -0.00507
36.55 -0.01044
36.6 -0.01113
36.65 -0.01337
36.7 -0.01083
36.75 -0.01229
36.8 -0.01385
36.85 -0.01102
36.9 -0.00649
36.95 -0.00285
37 0.00029
37.05 0.00226
37.1 0.0065
37.15 0.00584
37.2 0.00847
37.25 0.00859
37.3 0.01083
37.35 0.0104
37.4 0.00795
37.45 0.00343
37.5 -0.00045
37.55 -0.00602
37.6 -0.01375
37.65 -0.01925
37.7 -0.017
37.75 -0.01542
37.8 -0.01764
37.85 -0.014
37.9 -0.01275
37.95 -0.01257
38 -0.00859
38.05 -0.0031
38.1 -0.00179
38.15 -0.00526
38.2 -0.00316
38.25 -0.00611
38.3 -0.01023
38.35 -0.00793
38.4 -0.00216
38.45 0.00152
38.5 0.00217
38.55 0.005
38.6 0.00184
38.65 -0.0021
38.7 -0.00105
38.75 -0.0027
38.8 -0.00349
38.85 -0.00582
38.9 -0.00948
38.95 -0.0146
39 -0.01586
39.05 -0.01334
39.1 -0.01124
39.15 -0.00929
39.2 -0.00934
39.25 -0.01157
39.3 -0.01534
39.35 -0.01338
39.4 -0.01341
39.45 -0.01214
39.5 -0.01137
39.55 -0.01051
39.6 -0.00745
39.65 -0.00851
39.7 -0.01095
39.75 -0.01068
39.8 -0.0058
39.85 -0.00536
39.9 -0.00616
39.95 -0.00812
40 -0.00806
40.05 -0.00323
40.1 -0.00087
40.15 0.00348
40.2 0.00949
40.25 0.01578
40.3 0.01656
40.35 0.01218
40.4 0.00859
40.45 0.00951
40.5 0.00977
40.55 0.00744
40.6 0.00176
40.65 -0.00444
40.7 -0.00386
40.75 -0.00021
40.8 0.0049
40.85 0.00529
40.9 0.00409
40.95 0.00683
41 0.00702
41.05 0.00794
41.1 0.00937
41.15 0.00696
41.2 0.0008
41.25 0.00081
41.3 0.00529
41.35 0.00446
41.4 -0.00109
41.45 -0.00143
41.5 -0.0015
41.55 -0.00197
41.6 -0.00398
41.65 -0.00362
41.7 -0.00582
41.75 -0.00894
41.8 -0.01453
41.85 -0.02062
41.9 -0.02354
41.95 -0.02767
42 -0.02707
42.05 -0.02168
42.1 -0.01539
42.15 -0.01233
42.2 -0.00865
42.25 -0.00795
42.3 -0.0092
42.35 -0.01092
42.4 -0.01022
42.45 -0.01214
42.5 -0.01423
42.55 -0.01773
42.6 -0.02062
42.65 -0.01747
42.7 -0.01473
42.75 -0.00758
42.8 0.00071
42.85 0.01039
42.9 0.01979
42.95 0.02096
43 0.02465
43.05 0.02618
43.1 0.0238
43.15 0.02201
43.2 0.0178
43.25 0.01088
43.3 0.00948
43.35 0.00717
43.4 0.00874
43.45 0.00502
43.5 -0.00202
43.55 -0.0022
43.6 -0.00383
43.65 -0.00711
43.7 -0.01008
43.75 -0.01324
43.8 -0.01338
43.85 -0.01329
43.9 -0.00782
43.95 -0.00514
44 -0.00646
44.05 -0.0087
44.1 -0.01251
44.15 -0.00937
44.2 -0.00642
44.25 -0.00276
44.3 0.00313
44.35 0.00734
44.4 0.01219
44.45 0.01563
44.5 0.02115
44.55 0.02095
44.6 0.01467
44.65 0.0095
44.7 0.00824
44.75 0.00534
44.8 0.00354
44.85 0.00635
44.9 0.00573
44.95 0.00454
45 0.0002
45.05 -0.00504
45.1 -0.00939
45.15 -0.01484
45.2 -0.01799
45.25 -0.01807
45.3 -0.01474
45.35 -0.00964
45.4 -0.00576
45.45 -0.00318
45.5 0.00307
45.55 0.00914
45.6 0.01272
45.65 0.01262
45.7 0.01501
45.75 0.01359
45.8 0.01099
45.85 0.01182
45.9 0.01536
45.95 0.01586
46 0.01891
46.05 0.01495
46.1 0.01032
46.15 0.00426
46.2 -0.00391
46.25 -0.00902
46.3 -0.01088
46.35 -0.00858
46.4 -0.00979
46.45 -0.01123
46.5 -0.0134
46.55 -0.01422
46.6 -0.01761
46.65 -0.01948
46.7 -0.0219
46.75 -0.02362
46.8 -0.02469
46.85 -0.02256
46.9 -0.01633
46.95 -0.0067
47 -0.00198
47.05 -0.00014
47.1 -0.0007
47.15 -0.0049
47.2 -0.00246
47.25 -0.00457
47.3 -0.00291
47.35 0.00039
47.4 0.00345
47.45 0.00098
47.5 -0.00456
47.55 -0.00532
47.6 -0.00589
47.65 -0.00185
47.7 -0.00054
47.75 -0.00029
47.8 0.00022
47.85 -0.00157
47.9 0.00111
47.95 -0.00066
48 0.00098
48.05 -0.00137
48.1 -0.00404
48.15 -0.00672
48.2 -0.00547
48.25 -0.00346
48.3 -0.00137
48.35 0.00214
48.4 0.00833
48.45 0.00958
48.5 0.00822
48.55 0.00253
48.6 0.00215
48.65 0.00186
48.7 0.00173
48.75 -0.00265
48.8 -0.00819
48.85 -0.01418
48.9 -0.01416
48.95 -0.01647
49 -0.01336
49.05 -0.00642
49.1 -0.00409
49.15 -0.00444
49.2 0.00061
49.25 0.00773
49.3 0.01467
49.35 0.02009
49.4 0.02535
49.45 0.02345
49.5 0.01804
49.55 0.01262
49.6 0.01007
49.65 0.00337
49.7 -0.00111
49.75 -0.00502
49.8 -0.00391
49.85 -0.00304
49.9 -0.0049
49.95 -0.00283
50 0.00211
50.05 0.00688
50.1 0.00554
50.15 -0.00003
50.2 -0.00414
50.25 -0.00674
50.3 -0.01074
50.35 -0.01259
50.4 -0.01503
50.45 -0.01459
50.5 -0.00927
50.55 -0.0015
50.6 0.00438
50.65 0.00688
50.7 0.00559
50.75 0.00539
50.8 0.00754
50.85 0.00613
50.9 0.00143
50.95 -0.00498
51 -0.00449
51.05 -0.00494
51.1 -0.0025
51.15 -0.00302
51.2 -0.0048
51.25 -0.00374
51.3 -0.00509
51.35 -0.00471
51.4 -0.00434
51.45 0.0001
51.5 0.006
51.55 0.01192
51.6 0.01451
51.65 0.01183
51.7 0.0131
51.75 0.00906
51.8 0.0036
51.85 0.00172
51.9 0.00233
51.95 0.00007
52 0.00318
52.05 0.00115
52.1 0.00413
52.15 0.01002
52.2 0.0119
52.25 0.01532
52.3 0.01719
52.35 0.01805
52.4 0.01326
52.45 0.00905
52.5 0.00352
52.55 -0.00485
52.6 -0.01278
52.65 -0.01731
52.7 -0.02005
52.75 -0.02376
52.8 -0.0212
52.85 -0.01637
52.9 -0.00836
52.95 -0.00118
53 0.00153
53.05 0.00334
53.1 0.00025
53.15 -0.00012
53.2 0.00048
53.25 0.00259
53.3 0.00724
53.35 0.00973
53.4 0.01155
53.45 0.01398
53.5 0.013
53.55 0.01191
53.6 0.00657
53.65 0.00709
53.7 0.00661
53.75 0.00412
53.8 0.00384
53.85 0.00165
53.9 -0.00357
53.95 -0.00329
54 -0.00116
54.05 0.00087
54.1 0.00375
54.15 0.00954
54.2 0.00983
54.25 0.01345
54.3 0.0164
54.35 0.01758
54.4 0.01502
54.45 0.01558
54.5 0.01156
54.55 0.0125
54.6 0.01626
54.65 0.02109
54.7 0.01872
54.75 0.01566
54.8 0.00971
54.85 0.00676
54.9 0.00448
54.95 -0.00058
55 0.00011
55.05 0.00012
55.1 0.00001
55.15 0.00094
55.2 0.0045
55.25 0.00155
55.3 0.00257
55.35 0.00411
55.4 0.0069
55.45 0.00579
55.5 -0.00033
55.55 -0.0045
55.6 -0.01018
55.65 -0.01692
55.7 -0.02229
55.75 -0.02119
55.8 -0.0166
55.85 -0.01211
55.9 -0.00511
55.95 -0.00141
56 0.00515
56.05 0.00682
56.1 0.00344
56.15 -0.00295
56.2 -0.00399
56.25 -0.00018
56.3 0.00155
56.35 0.00649
56.4 0.01123
56.45 0.01734
56.5 0.02148
56.55 0.01902
56.6 0.01483
56.65 0.01344
56.7 0.00919
56.75 0.00384
56.8 0.00387
56.85 0.00508
56.9 0.00854
56.95 0.00797
57 0.00312
57.05 -0.00031
57.1 -0.00389
57.15 -0.00656
57.2 -0.00671
57.25 -0.01124
57.3 -0.01244
57.35 -0.00923
57.4 -0.00631
57.45 -0.00874
57.5 -0.00889
57.55 -0.00545
57.6 -0.00306
57.65 -0.00016
57.7 0.00504
57.75 0.00308
57.8 0.00235
57.85 -0.00173
57.9 -0.00287
57.95 -0.00116
58 -0.0045
58.05 -0.00456
58.1 -0.00714
58.15 -0.00703
58.2 -0.00631
58.25 -0.00688
58.3 -0.00951
58.35 -0.01285
58.4 -0.01351
58.45 -0.00994
58.5 -0.00847
58.55 -0.00635
58.6 -0.00076
58.65 0.00076
58.7 0.004
58.75 0.00778
58.8 0.01115
58.85 0.00967
58.9 0.00867
58.95 0.00607
59 0.00682
59.05 0.01025
59.1 0.01376
59.15 0.01391
59.2 0.01699
59.25 0.01883
59.3 0.01725
59.35 0.01241
59.4 0.01097
59.45 0.00936
59.5 0.0107
59.55 0.00606
59.6 -0.00131
59.65 -0.0095
59.7 -0.01815
59.75 -0.0271
59.8 -0.03411
59.85 -0.03387
59.9 -0.03263
59.95 -0.03303
60 -0.02749
60.05 -0.02485
60.1 -0.02529
60.15 -0.01903
60.2 -0.01107
60.25 -0.00337
60.3 0.00578
60.35 0.00669
60.4 0.00673
60.45 0.00979
60.5 0.00657
60.55 0.00378
60.6 0.00523
60.65 0.00254
60.7 0.00446
60.75 0.00873
60.8 0.01277
60.85 0.01352
60.9 0.01442
60.95 0.01776
61 0.02266
61.05 0.0261
61.1 0.02193
61.15 0.01548
61.2 0.01395
61.25 0.00787
61.3 0.00696
61.35 0.00279
61.4 0.00089
61.45 0.00134
61.5 0.00116
61.55 -0.0029
61.6 -0.00617
61.65 -0.00805
61.7 -0.01355
61.75 -0.0192
61.8 -0.01901
61.85 -0.0188
61.9 -0.02171
61.95 -0.02128
62 -0.02109
62.05 -0.01903
62.1 -0.01418
62.15 -0.00557
62.2 0.00333
62.25 0.00507
62.3 0.00386
62.35 0.00014
62.4 -0.0008
62.45 0.00284
62.5 0.00702
62.55 0.01283
62.6 0.01358
62.65 0.00969
62.7 0.00984
62.75 0.00476
62.8 0.00066
62.85 0.00219
62.9 0.00326
62.95 0.00375
63 0.00271
63.05 0.00611
63.1 0.01073
63.15 0.01689
63.2 0.01758
63.25 0.01925
63.3 0.02063
63.35 0.02147
63.4 0.02216
63.45 0.01913
63.5 0.01889
63.55 0.01449
63.6 0.00636
63.65 0.00197
63.7 0.0005
63.75 0.00145
63.8 0.00379
63.85 0.00625
63.9 0.01103
63.95 0.01027
64 0.0102
64.05 0.00537
64.1 0.00292
64.15 0.00077
64.2 0.00028
64.25 -0.00034
64.3 -0.0007
64.35 -0.00232
64.4 0.00014
64.45 0.00475
64.5 0.01012
64.55 0.01074
64.6 0.01013
64.65 0.0114
64.7 0.01213
64.75 0.0132
64.8 0.00807
64.85 0.00717
64.9 0.00264
64.95 -0.00214
65 -0.00253
65.05 -0.00476
65.1 -0.00427
65.15 -0.00893
65.2 -0.01196
65.25 -0.0116
65.3 -0.00853
65.35 -0.00893
65.4 -0.0137
65.45 -0.01281
65.5 -0.01517
65.55 -0.01923
65.6 -0.02072
65.65 -0.01801
65.7 -0.01131
65.75 -0.00832
65.8 -0.00536
65.85 -0.00151
65.9 -0.00258
65.95 -0.00639
66 -0.01011
66.05 -0.01498
66.1 -0.0128
66.15 -0.01235
66.2 -0.00839
66.25 -0.00701
66.3 -0.0073
66.35 -0.00971
66.4 -0.00636
66.45 0.00018
66.5 0.00438
66.55 0.00702
66.6 0.00471
66.65 0.00602
66.7 0.00935
66.75 0.00847
66.8 0.0106
66.85 0.01345
66.9 0.01082
66.95 0.0046
67 0.00246
67.05 -0.0006
67.1 0.00135
67.15 0.00168
67.2 0.0016
67.25 -0.00358
67.3 -0.00316
67.35 -0.00586
67.4 -0.00449
67.45 -0.00137
67.5 -0.00381
67.55 -0.0092
67.6 -0.01251
67.65 -0.01826
67.7 -0.01999
67.75 -0.01723
67.8 -0.01095
67.85 -0.00463
67.9 0.00186
67.95 0.00559
68 0.01102
68.05 0.01531
68.1 0.01509
68.15 0.00874
68.2 0.00782
68.25 0.00395
68.3 0.00437
68.35 0.00091
68.4 -0.00545
68.45 -0.01056
68.5 -0.01106
68.55 -0.01018
68.6 -0.01346
68.65 -0.01233
68.7 -0.0119
68.75 -0.01323
68.8 -0.01569
68.85 -0.01184
68.9 -0.00596
68.95 -0
69 0.00698
69.05 0.00671
69.1 0.00727
69.15 0.00399
69.2 0.00294
69.25 0.00119
69.3 0.00068
69.35 -0.00169
69.4 -0.00193
69.45 0.00012
69.5 0.00305
69.55 0.00638
69.6 0.00359
69.65 0.00274
69.7 -0.00163
69.75 -0.00289
69.8 -0.00169
69.85 -0.00338
69.9 -0.00893
69.95 -0.01472
70 -0.01553
70.05 -0.01445
70.1 -0.0084
70.15 -0.00742
70.2 -0.00694
70.25 -0.0067
70.3 -0.00791
70.35 -0.00824
70.4 -0.0075
70.45 -0.00579
70.5 -0.00379
70.55 -0.00112
70.6 0.00451
70.65 0.00412
70.7 0.0025
70.75 0.00278
70.8 0.00118
70.85 -0.00117
70.9 -0.0066
70.95 -0.00718
71 -0.01008
71.05 -0.00716
71.1 -0.00241
71.15 -0.00308
71.2 -0.00771
71.25 -0.01059
71.3 -0.00728
71.35 -0.00846
71.4 -0.00524
71.45 -0.00431
71.5 -0.00189
71.55 0.0033
71.6 0.00376
71.65 -0.00064
71.7 -0.00167
71.75 -0.00116
71.8 0.0021
71.85 0.00246
71.9 0.00682
71.95 0.01138
72 0.01431
72.05 0.01686
72.1 0.01566
72.15 0.01592
72.2 0.01009
72.25 0.00111
72.3 -0.00116
72.35 -0
72.4 -0.00014
72.45 -0.00263
72.5 -0.00628
72.55 -0.01051
72.6 -0.0129
72.65 -0.01545
72.7 -0.0179
72.75 -0.02009
72.8 -0.02205
72.85 -0.01935
72.9 -0.01661
72.95 -0.01214
73 -0.00945
73.05 -0.01067
73.1 -0.01224
73.15 -0.01412
73.2 -0.01652
73.25 -0.02031
73.3 -0.01901
73.35 -0.01538
73.4 -0.01016
73.45 -0.00627
73.5 -0.00155
73.55 -0.00142
73.6 0.00198
73.65 0.00472
73.7 0.00198
73.75 -0.0038
73.8 -0.0082
73.85 -0.00817
73.9 -0.00737
73.95 -0.00974
74 -0.0132
74.05 -0.01336
74.1 -0.01624
74.15 -0.01521
74.2 -0.01126
74.25 -0.00475
74.3 0.00193
74.35 0.00963
74.4 0.01519
74.45 0.01452
74.5 0.01649
74.55 0.01569
74.6 0.01785
74.65 0.02106
74.7 0.02229
74.75 0.02475
74.8 0.02643
74.85 0.02944
74.9 0.03226
74.95 0.03254
75 0.02545
75.05 0.02263
75.1 0.01992
75.15 0.0159
75.2 0.00728
75.25 -0.00123
75.3 -0.0114
75.35 -0.01331
75.4 -0.01723
75.45 -0.02202
75.5 -0.01922
75.55 -0.01146
75.6 -0.0077
75.65 -0.00123
75.7 0.00331
75.75 0.00218
75.8 0.00366
75.85 -0.00003
75.9 -0.00633
75.95 -0.01299
76 -0.01803
76.05 -0.01915
76.1 -0.01628
76.15 -0.00861
76.2 -0.0075
76.25 -0.00575
76.3 -0.00295
76.35 -0.00005
76.4 0.0052
76.45 0.00595
76.5 0.0039
76.55 0.00037
76.6 -0.00175
76.65 -0.00583
76.7 -0.01124
76.75 -0.0136
76.8 -0.01003
76.85 -0.0048
76.9 -0.00394
76.95 -0.00106
77 -0.00281
77.05 -0.00127
77.1 -0.00092
77.15 -0.00207
77.2 -0.00622
77.25 -0.00414
77.3 -0.00713
77.35 -0.01199
77.4 -0.01005
77.45 -0.00361
77.5 0.00411
77.55 0.0067
77.6 0.01089
77.65 0.01289
77.7 0.01144
77.75 0.01239
77.8 0.0137
77.85 0.01779
77.9 0.02043
77.95 0.01835
78 0.01893
78.05 0.01326
78.1 0.01173
78.15 0.01315
78.2 0.01512
78.25 0.01489
78.3 0.00932
78.35 0.0002
78.4 -0.01013
78.45 -0.01267
78.5 -0.01313
78.55 -0.01022
78.6 -0.01097
78.65 -0.0105
78.7 -0.00777
78.75 -0.0049
78.8 -0.00491
78.85 -0.00741
78.9 -0.00497
78.95 -0.00358
79 -0.00031
79.05 -0.00279
79.1 -0.00047
79.15 -0.00006
79.2 0.00067
79.25 -0.00315
79.3 -0.00282
79.35 -0.00259
79.4 -0.00597
79.45 -0.01125
79.5 -0.01
79.55 -0.01087
79.6 -0.01306
79.65 -0.01299
79.7 -0.01635
79.75 -0.02096
79.8 -0.01898
79.85 -0.01532
79.9 -0.01255
79.95 -0.01196
80 -0.01087
80.05 -0.00612
80.1 -0.00347
80.15 -0.00421
80.2 -0.00577
80.25 -0.00475
80.3 -0.00248
80.35 0.00225
80.4 0.00478
80.45 0.00526
80.5 0.00374
80.55 0.00456
80.6 0.00315
80.65 0.00182
80.7 0.00408
80.75 0.00339
80.8 0.00018
80.85 -0.00042
80.9 -0.00343
80.95 -0.0039
81 -0.00211
81.05 0.00208
81.1 0.00522
81.15 0.00291
81.2 -0.00276
81.25 -0.00348
81.3 -0.0013
81.35 -0.00408
81.4 -0.00774
81.45 -0.0078
81.5 -0.00954
81.55 -0.00998
81.6 -0.01161
81.65 -0.00925
81.7 -0.00716
81.75 -0.00509
81.8 -0.00131
81.85 -0.00275
81.9 0.00064
81.95 0.00256
82 0.00316
82.05 0.00468
82.1 0.00776
82.15 0.01271
82.2 0.01753
82.25 0.01486
82.3 0.01218
82.35 0.00684
82.4 0.00561
82.45 0.00442
82.5 -0.00022
82.55 -0.00184
82.6 -0.00432
82.65 -0.00417
82.7 -0.00557
82.75 -0.00275
82.8 0.00277
82.85 0.00988
82.9 0.01647
82.95 0.01955
83 0.02358
83.05 0.02531
83.1 0.02783
83.15 0.02368
83.2 0.02211
83.25 0.01927
83.3 0.01834
83.35 0.01997
83.4 0.01591
83.45 0.0148
83.5 0.00864
83.55 0.00679
83.6 0.0039
83.65 0.00041
83.7 -0.00059
83.75 -0.00406
83.8 -0.00217
83.85 0.00031
83.9 0.00472
83.95 0.00947
84 0.01228
84.05 0.00821
84.1 0.00149
84.15 -0.00704
84.2 -0.00809
84.25 -0.0116
84.3 -0.011
84.35 -0.01099
84.4 -0.01103
84.45 -0.01357
84.5 -0.01624
84.55 -0.01592
84.6 -0.01463
84.65 -0.01256
84.7 -0.0117
84.75 -0.00866
84.8 -0.00324
84.85 0.00464
84.9 0.00533
84.95 0.00415
85 0.00354
85.05 -0.00178
85.1 -0.00448
85.15 -0.00902
85.2 -0.01129
85.25 -0.01578
85.3 -0.014
85.35 -0.01248
85.4 -0.01284
85.45 -0.01072
85.5 -0.00581
85.55 -0.00268
85.6 0.00153
85.65 0.00437
85.7 0.00165
85.75 -0.00461
85.8 -0.01062
85.85 -0.0165
85.9 -0.02016
85.95 -0.01656
86 -0.00879
86.05 -0.00034
86.1 0.00329
86.15 0.00262
86.2 -0.00182
86.25 -0.00661
86.3 -0.00499
86.35 -0.00447
86.4 -0.00016
86.45 0.00014
86.5 -0.0008
86.55 -0.00098
86.6 -0.00351
86.65 -0.00321
86.7 -0.0035
86.75 0.00055
86.8 0.00428
86.85 0.00833
86.9 0.01322
86.95 0.01082
87 0.00453
87.05 -0.00424
87.1 -0.0073
87.15 -0.00462
87.2 -0.00181
87.25 -0.001
87.3 0.00208
87.35 0.00636
87.4 0.01068
87.45 0.01292
87.5 0.01422
87.55 0.00941
87.6 0.00578
87.65 0.00325
87.7 -0.00277
87.75 -0.00804
87.8 -0.00688
87.85 -0.00471
87.9 -0.00607
87.95 -0.00542
88 -0.00799
88.05 -0.01043
88.1 -0.00941
88.15 -0.01215
88.2 -0.01356
88.25 -0.017
88.3 -0.01492
88.35 -0.01551
88.4 -0.01448
88.45 -0.00972
88.5 -0.00792
88.55 -0.00169
88.6 -0.00126
88.65 -0.00477
88.7 -0.00281
88.75 -0.00568
88.8 -0.0043
88.85 -0.00729
88.9 -0.00424
88.95 0.00084
89 0.0087
89.05 0.01704
89.1 0.01822
89.15 0.01698
89.2 0.01791
89.25 0.02158
89.3 0.01792
89.35 0.01078
89.4 0.00552
89.45 0.00002
89.5 0.00075
89.55 -0.00239
89.6 -0.0043
89.65 -0.00859
89.7 -0.01323
89.75 -0.01729
89.8 -0.01928
89.85 -0.01968
89.9 -0.02169
89.95 -0.0227
90 -0.01711
90.05 -0.01151
90.1 -0.01053
90.15 -0.00823
90.2 -0.00137
90.25 0.00042
90.3 -0.00082
90.35 -0.00003
90.4 -0.00147
90.45 -0.00043
90.5 0.00198
90.55 0.00759
90.6 0.0079
90.65 0.00356
90.7 0.00292
90.75 0.00487
90.8 0.01041
90.85 0.01377
90.9 0.01574
90.95 0.01672
91 0.01151
91.05 0.00939
91.1 0.00293
91.15 0.00165
91.2 0.00067
91.25 -0.00153
91.3 -0.00175
91.35 0.00226
91.4 0.00438
91.45 0.00352
91.5 -0.00024
91.55 -0.00494
91.6 -0.00769
91.65 -0.01043
91.7 -0.0111
91.75 -0.00955
91.8 -0.00789
91.85 -0.01044
91.9 -0.01208
91.95 -0.015
92 -0.01385
92.05 -0.00761
92.1 -0.00483
92.15 0.00147
92.2 0.00913
92.25 0.00964
92.3 0.01019
92.35 0.0133
92.4 0.01718
92.45 0.01811
92.5 0.01825
92.55 0.01391
92.6 0.01212
92.65 0.00868
92.7 0.00627
92.75 0.00584
92.8 0.00291
92.85 0.00507
92.9 0.00635
92.95 0.00527
93 0.00327
93.05 -0.00251
93.1 -0.00455
93.15 -0.00711
93.2 -0.01254
93.25 -0.01712
93.3 -0.01979
93.35 -0.01765
93.4 -0.01517
93.45 -0.00982
93.5 -0.00962
93.55 -0.0045
93.6 0.0031
93.65 0.01167
93.7 0.01834
93.75 0.02553
93.8 0.02339
93.85 0.01805
93.9 0.01734
93.95 0.01852
94 0.01467
94.05 0.00717
94.1 0.00234
94.15 0.00237
94.2 -0.00248
94.25 -0.00127
94.3 -0.0043
94.35 -0.00279
94.4 0.00066
94.45 0.00688
94.5 0.01028
94.55 0.01324
94.6 0.01029
94.65 0.01045
94.7 0.01268
94.75 0.00874
94.8 0.00148
94.85 -0.00506
94.9 -0.00591
94.95 -0.00982
95 -0.01172
95.05 -0.00997
95.1 -0.00866
95.15 -0.01136
95.2 -0.01595
95.25 -0.01905
95.3 -0.01606
95.35 -0.01
95.4 -0.0089
95.45 -0.00432
95.5 -0.00389
95.55 0.00119
95.6 0.0064
95.65 0.00863
95.7 0.01192
95.75 0.0124
95.8 0.00982
95.85 0.00866
95.9 0.00912
95.95 0.005
96 -0.00067
96.05 -0.00891
96.1 -0.00928
96.15 -0.0087
96.2 -0.0078
96.25 -0.00915
96.3 -0.00828
96.35 -0.00507
96.4 0.00148
96.45 0.00408
96.5 0.00296
96.55 -0.00032
96.6 -0.00233
96.65 -0.00579
96.7 -0.01116
96.75 -0.01449
96.8 -0.01467
96.85 -0.01691
96.9 -0.01928
96.95 -0.01621
97 -0.01748
97.05 -0.01983
97.1 -0.01956
97.15 -0.01942
97.2 -0.01466
97.25 -0.01412
97.3 -0.00847
97.35 -0.00864
97.4 -0.00756
97.45 -0.00629
97.5 -0.00504
97.55 -0.00273
97.6 0.00373
97.65 0.00967
97.7 0.01273
97.75 0.01519
97.8 0.01658
97.85 0.0118
97.9 0.00928
97.95 0.00605
98 0.00171
98.05 -0.00012
98.1 -0.0033
98.15 -0.00704
98.2 -0.00619
98.25 -0.00297
98.3 0.00375
98.35 0.00339
98.4 0.00185
98.45 -0.00221
98.5 -0.00004
98.55 0.00168
98.6 0.00146
98.65 -0.00173
98.7 -0.00197
98.75 -0.00623
98.8 -0.00708
98.85 -0.0105
98.9 -0.00941
98.95 -0.006
99 -0.00243
99.05 -0.00407
99.1 -0.00024
99.15 0.00317
99.2 0.00445
99.25 0.00918
99.3 0.01209
99.35 0.01078
99.4 0.00514
99.45 -0.00156
99.5 -0.00189
99.55 -0.00485
99.6 -0.00194
99.65 -0.00111
99.7 -0.00267
99.75 -0.0067
99.8 -0.01261
99.85 -0.01084
99.9 -0.00783
99.95 -0.00469
