0 0
0.05 0.00012
0.1 0.00072
0.15 0.00216
0.2 0.00327
0.25 0.00443
0.3 0.00571
0.35 0.00653
0.4 0.00693
0.45 0.00772
0.5 0.0087
0.55 0.0092
0.6 0.00924
0.65 0.00903
0.7 0.00839
0.75 0.00767
0.8 0.00649
0.85 0.00611
0.9 0.00624
0.95 0.00574
1 0.00596
1.05 0.00625
1.1 0.00598
1.15 0.00574
1.2 0.00588
1.25 0.00581
1.3 0.00629
1.35 0.00701
1.4 0.00775
1.45 0.00754
1.5 0.00655
1.55 0.00602
1.6 0.00513
1.65 0.00419
1.7 0.00338
1.75 0.0025
1.8 0.00264
1.85 0.00308
1.9 0.00317
1.95 0.00296
2 0.00343
2.05 0.0035
2.1 0.00317
2.15 0.00269
2.2 0.0027
2.25 0.00264
2.3 0.00319
2.35 0.00351
2.4 0.00376
2.45 0.00353
2.5 0.00346
2.55 0.00287
2.6 0.00244
2.65 0.00181
2.7 0.00182
2.75 0.00209
2.8 0.00203
2.85 0.00186
2.9 0.00158
2.95 0.00178
3 0.00187
3.05 0.00255
3.1 0.00268
3.15 0.00331
3.2 0.00419
3.25 0.00484
3.3 0.00515
3.35 0.00477
3.4 0.00477
3.45 0.00511
3.5 0.00461
3.55 0.00431
3.6 0.00415
3.65 0.00437
3.7 0.00441
3.75 0.00384
3.8 0.00391
3.85 0.00365
3.9 0.00309
3.95 0.00304
4 0.00276
4.05 0.00276
4.1 0.00214
4.15 0.00174
4.2 0.00093
4.25 0.00107
4.3 0.00168
4.35 0.00167
4.4 0.00152
4.45 0.00134
4.5 0.00178
4.55 0.00196
4.6 0.00162
4.65 0.00193
4.7 0.00231
4.75 0.0026
4.8 0.00221
4.85 0.00171
4.9 0.0016
4.95 0.00182
5 0.00177
5.05 0.00199
5.1 0.00224
5.15 0.0021
5.2 0.00163
5.25 0.00117
5.3 0.00113
5.35 0.0011
5.4 0.00061
5.45 0.00069
5.5 0.00044
5.55 0.00029
5.6 0.00091
5.65 0.00082
5.7 0.00045
5.75 0.00041
5.8 0.00025
5.85 0.00013
5.9 0.00001
5.95 0.00039
6 0.00043
6.05 0.00094
6.1 0.00081
6.15 0.00093
6.2 0.00122
6.25 0.00103
6.3 0.0004
6.35 0.00025
6.4 0.00066
6.45 0.00058
6.5 0.00107
6.55 0.00196
6.6 0.00228
6.65 0.00206
6.7 0.0013
6.75 0.00091
6.8 0.00013
6.85 -0.00066
6.9 -0.00061
6.95 -0.00065
7 -0.00096
7.05 -0.0013
7.1 -0.00126
7.15 -0.00143
7.2 -0.00146
7.25 -0.00111
7.3 -0.00046
7.35 -0.00015
7.4 -0.00029
7.45 -0.00042
7.5 -0.00086
7.55 -0.0007
7.6 -0.00088
7.65 -0.00027
7.7 0.00065
7.75 0.00155
7.8 0.00152
7.85 0.00198
7.9 0.00259
7.95 0.00232
8 0.00248
8.05 0.00304
8.1 0.00323
8.15 0.00377
8.2 0.00333
8.25 0.00321
8.3 0.00269
8.35 0.00174
8.4 0.00086
8.45 -0
8.5 -0.00047
8.55 -0.00095
8.6 -0.00087
8.65 -0.00117
8.7 -0.00109
8.75 -0.00036
8.8 0.00021
8.85 0.00082
8.9 0.00152
8.95 0.00212
9 0.00206
9.05 0.00154
9.1 0.00125
9.15 0.0015
9.2 0.00115
9.25 0.00114
9.3 0.00071
9.35 0.00086
9.4 0.00056
9.45 -0.00009
9.5 -0.00015
9.55 0.00035
9.6 0.0008
9.65 0.0011
9.7 0.00116
9.75 0.00151
9.8 0.00172
9.85 0.00168
9.9 0.00126
9.95 0.00091
10 0.00102
10.05 0.00162
10.1 0.00205
10.15 0.00266
10.2 0.00282
10.25 0.00302
10.3 0.00311
10.35 0.00258
10.4 0.00169
10.45 0.00097
10.5 0.0007
10.55 0.00001
10.6 -0.00058
10.65 -0.00131
10.7 -0.00228
10.75 -0.00296
10.8 -0.00294
10.85 -0.00282
10.9 -0.00302
10.95 -0.00323
11 -0.00363
11.05 -0.00298
11.1 -0.00213
11.15 -0.00182
11.2 -0.0011
11.25 -0.00062
11.3 -0.00069
11.35 -0.00095
11.4 -0.00128
11.45 -0.00074
11.5 -0.00041
11.55 -0.00048
11.6 -0.0008
11.65 -0.00068
11.7 -0.00059
11.75 -0.00019
11.8 -0.00002
11.85 -0.00008
11.9 0.00054
11.95 0.00046
12 0.00008
12.05 -0.00017
12.1 -0.0006
12.15 -0.00107
12.2 -0.00137
12.25 -0.00098
12.3 -0.00085
12.35 -0.0006
12.4 -0.00047
12.45 -0.00033
12.5 0.00021
12.55 0.00078
12.6 0.00165
12.65 0.00259
12.7 0.00289
12.75 0.00295
12.8 0.00333
12.85 0.00323
12.9 0.00321
12.95 0.00283
13 0.00281
13.05 0.00314
13.1 0.00314
13.15 0.00347
13.2 0.00337
13.25 0.00252
13.3 0.00128
13.35 0.00005
13.4 -0.00075
13.45 -0.00087
13.5 -0.00059
13.55 -0.00089
13.6 -0.00112
13.65 -0.00128
13.7 -0.00162
13.75 -0.00138
13.8 -0.0008
13.85 0.00011
13.9 0.00083
13.95 0.00152
14 0.00151
14.05 0.0019
14.1 0.00171
14.15 0.00119
14.2 0.00075
14.25 0.00015
14.3 -0.00081
14.35 -0.00077
14.4 -0.00073
14.45 -0.00034
14.5 -0.0002
14.55 -0.00064
14.6 -0.00121
14.65 -0.00188
14.7 -0.0018
14.75 -0.00211
14.8 -0.00168
14.85 -0.00166
14.9 -0.00161
14.95 -0.00151
15 -0.00127
15.05 -0.0005
15.1 -0.00011
15.15 -0.00005
15.2 -0.00011
15.25 -0.00053
15.3 -0.00042
15.35 -0.00024
15.4 -0.00051
15.45 -0.00107
15.5 -0.00078
15.55 -0.00037
15.6 0.00051
15.65 0.00096
15.7 0.001
15.75 0.00104
15.8 0.00125
15.85 0.00113
15.9 0.00094
15.95 0.0006
16 0.00053
16.05 0.00001
16.1 0.00022
16.15 0.00058
16.2 0.00128
16.25 0.00136
16.3 0.00187
16.35 0.00168
16.4 0.00133
16.45 0.00058
16.5 0.00015
16.55 -0.00031
16.6 -0.00063
16.65 -0.00139
16.7 -0.00198
16.75 -0.00228
16.8 -0.0025
16.85 -0.00239
16.9 -0.00229
16.95 -0.00227
17 -0.00192
17.05 -0.0011
17.1 0.00012
17.15 0.00123
17.2 0.00169
17.25 0.00161
17.3 0.00112
17.35 0.00076
17.4 -0.00011
17.45 -0.00107
17.5 -0.00129
17.55 -0.00184
17.6 -0.00238
17.65 -0.00261
17.7 -0.00229
17.75 -0.00208
17.8 -0.0016
17.85 -0.00081
17.9 0.00039
17.95 0.00098
18 0.0017
18.05 0.00245
18.1 0.00282
18.15 0.00337
18.2 0.00329
18.25 0.00299
18.3 0.00274
18.35 0.00297
18.4 0.0033
18.45 0.00294
18.5 0.00241
18.55 0.00135
18.6 0.00053
18.65 -0.0005
18.7 -0.00131
18.75 -0.00185
18.8 -0.00184
18.85 -0.00202
18.9 -0.00203
18.95 -0.0021
19 -0.0014
19.05 -0.00036
19.1 0.00034
19.15 0.00016
19.2 0.0005
19.25 0.00029
19.3 0.00031
19.35 -0.00025
19.4 -0.00116
19.45 -0.00112
19.5 -0.00071
19.55 -0.00085
19.6 -0.00125
19.65 -0.00188
19.7 -0.00221
19.75 -0.00267
19.8 -0.0025
19.85 -0.00175
19.9 -0.00132
19.95 -0.0006
20 -0.00004
20.05 0.00045
20.1 0.00038
20.15 0.00012
20.2 -0.00061
20.25 -0.00049
20.3 0.00021
20.35 0.00012
20.4 -0.00051
20.45 -0.00079
20.5 -0.00052
20.55 0.00021
20.6 0.00112
20.65 0.00169
20.7 0.00238
20.75 0.00268
20.8 0.00253
20.85 0.00269
20.9 0.00297
20.95 0.00286
21 0.00311
21.05 0.00284
21.1 0.00191
21.15 0.00058
21.2 -0.00031
21.25 -0.00049
21.3 -0.00114
21.35 -0.00151
21.4 -0.00174
21.45 -0.00143
21.5 -0.00116
21.55 -0.00043
21.6 -0.00017
21.65 0.00021
21.7 0.0003
21.75 -0.00028
21.8 -0.00104
21.85 -0.00117
21.9 -0.00097
21.95 -0.00034
22 0.0001
22.05 0.00049
22.1 0.00092
22.15 0.00061
22.2 0.00086
22.25 0.0013
22.3 0.00099
22.35 0.00036
22.4 0.00005
22.45 0.00038
22.5 0.00097
22.55 0.00127
22.6 0.00138
22.65 0.00163
22.7 0.00113
22.75 0.0007
22.8 0.00088
22.85 0.00119
22.9 0.0007
22.95 0.0002
23 0.00037
23.05 0.00074
23.1 0.00146
23.15 0.00165
23.2 0.00137
23.25 0.00118
23.3 0.00123
23.35 0.00058
23.4 -0.00022
23.45 -0.00119
23.5 -0.00217
23.55 -0.00257
23.6 -0.00307
23.65 -0.0032
23.7 -0.00275
23.75 -0.00178
23.8 -0.00124
23.85 -0.00036
23.9 -0.00021
23.95 -0.00059
24 -0.00029
24.05 -0.00031
24.1 0.0002
24.15 0.00056
24.2 0.0013
24.25 0.00158
24.3 0.00181
24.35 0.00181
24.4 0.0018
24.45 0.00223
24.5 0.00288
24.55 0.00296
24.6 0.00307
24.65 0.00318
24.7 0.00265
24.75 0.00166
24.8 0.00135
24.85 0.00091
24.9 0.00034
24.95 -0.00054
25 -0.0012
25.05 -0.00188
25.1 -0.00258
25.15 -0.00282
25.2 -0.00309
25.25 -0.00256
25.3 -0.00199
25.35 -0.0012
25.4 -0.0012
25.45 -0.0016
25.5 -0.00134
25.55 -0.00163
25.6 -0.00115
25.65 -0.00107
25.7 -0.00055
25.75 0.00008
25.8 0.00006
25.85 0.00052
25.9 0.00035
25.95 -0.00024
26 -0.00032
26.05 -0.00035
26.1 -0.00008
26.15 -0.00037
26.2 -0.00014
26.25 -0.00043
26.3 -0.00053
26.35 -0.0002
26.4 0.00056
26.45 0.00107
26.5 0.00141
26.55 0.00147
26.6 0.00198
26.65 0.00197
26.7 0.00225
26.75 0.00203
26.8 0.00113
26.85 0.00033
26.9 0.00006
26.95 -0
27 -0.0004
27.05 -0.00067
27.1 -0.00058
27.15 -0.00061
27.2 -0.00061
27.25 -0.0009
27.3 -0.0012
27.35 -0.00138
27.4 -0.00196
27.45 -0.0017
27.5 -0.0012
27.55 -0.00042
27.6 0.00019
27.65 0.00093
27.7 0.00101
27.75 0.00092
27.8 0.001
27.85 0.0014
27.9 0.00092
27.95 0.00093
28 0.00074
28.05 0.00038
28.1 0.00061
28.15 0.00025
28.2 -0.00044
28.25 -0.0012
28.3 -0.00173
28.35 -0.00253
28.4 -0.00276
28.45 -0.00224
28.5 -0.00194
28.55 -0.00127
28.6 -0.00068
28.65 -0.0005
28.7 0.00027
28.75 0.00128
28.8 0.00201
28.85 0.002
28.9 0.00242
28.95 0.00222
29 0.00203
29.05 0.00141
29.1 0.00148
29.15 0.00086
29.2 -0.00005
29.25 -0.00108
29.3 -0.00165
29.35 -0.0018
29.4 -0.00202
29.45 -0.00144
29.5 -0.00094
29.55 -0.00056
29.6 -0.00068
29.65 -0.00128
29.7 -0.00196
29.75 -0.00223
29.8 -0.00165
29.85 -0.00176
29.9 -0.00115
29.95 -0.00103
30 -0.00057
30.05 0.00033
30.1 0.00058
30.15 0.00018
30.2 -0.00041
30.25 -0.00075
30.3 -0.00045
30.35 -0.00081
30.4 -0.00125
30.45 -0.00176
30.5 -0.00171
30.55 -0.00211
30.6 -0.00196
30.65 -0.00136
30.7 -0.00102
30.75 -0.00046
30.8 0.00045
30.85 0.00127
30.9 0.00184
30.95 0.00207
31 0.00249
31.05 0.00223
31.1 0.00166
31.15 0.00108
31.2 0.00115
31.25 0.00139
31.3 0.00105
31.35 0.00108
31.4 0.00097
31.45 0.00023
31.5 0.00005
31.55 0.00046
31.6 0.00093
31.65 0.00086
31.7 0.00031
31.75 0.0001
31.8 0.00021
31.85 0.0006
31.9 0.00115
31.95 0.00194
32 0.00231
32.05 0.00277
32.1 0.00336
32.15 0.00396
32.2 0.0042
32.25 0.00363
32.3 0.00259
32.35 0.0019
32.4 0.00136
32.45 0.00059
32.5 -0.00032
32.55 -0.00097
32.6 -0.00082
32.65 -0.00098
32.7 -0.00132
32.75 -0.00139
32.8 -0.00119
32.85 -0.00056
32.9 -0.00026
32.95 -0.00053
33 -0.00102
33.05 -0.00132
33.1 -0.00122
33.15 -0.00123
33.2 -0.00121
33.25 -0.00119
33.3 -0.00117
33.35 -0.00132
33.4 -0.0016
33.45 -0.00186
33.5 -0.00212
33.55 -0.00189
33.6 -0.00219
33.65 -0.00225
33.7 -0.00225
33.75 -0.00228
33.8 -0.00184
33.85 -0.00085
33.9 -0.00053
33.95 0.00021
34 0.0008
34.05 0.00165
34.1 0.0019
34.15 0.00135
34.2 0.00131
34.25 0.00127
34.3 0.00067
34.35 0.00034
34.4 0.00068
34.45 0.00121
34.5 0.00195
34.55 0.00267
34.6 0.00226
34.65 0.00168
34.7 0.00134
34.75 0.00042
34.8 0.00004
34.85 -0.00016
34.9 -0.00009
34.95 0.00044
35 0.00038
35.05 0.00046
35.1 -0.00017
35.15 -0.00021
35.2 0.00006
35.25 0.00012
35.3 -0.00026
35.35 -0.00054
35.4 -0.00016
35.45 -0.00016
35.5 -0.00038
35.55 -0.00019
35.6 -0.00004
35.65 -0.00039
35.7 -0.00091
35.75 -0.00169
35.8 -0.00221
35.85 -0.00294
35.9 -0.00363
35.95 -0.00387
36 -0.00409
36.05 -0.00359
36.1 -0.00272
36.15 -0.00174
36.2 -0.00079
36.25 -0.00066
36.3 -0.00019
36.35 -0.00049
36.4 -0.00004
36.45 0.00063
36.5 0.00039
36.55 0.00007
36.6 -0.00074
36.65 -0.00123
36.7 -0.00114
36.75 -0.00097
36.8 -0.00057
36.85 -0.00025
36.9 -0.00059
36.95 -0.00062
37 0.00002
37.05 0.00077
37.1 0.00146
37.15 0.00142
37.2 0.00151
37.25 0.00096
37.3 0.00052
37.35 -0.00003
37.4 -0.0003
37.45 -0.00016
37.5 0.00033
37.55 0.00002
37.6 -0.00069
37.65 -0.00081
37.7 -0.00125
37.75 -0.00131
37.8 -0.00139
37.85 -0.00154
37.9 -0.00176
37.95 -0.00165
38 -0.00088
38.05 -0.00039
38.1 -0.0005
38.15 -0.00074
38.2 -0.00047
38.25 -0.00046
38.3 -0.00099
38.35 -0.00163
38.4 -0.00214
38.45 -0.00213
38.5 -0.00228
38.55 -0.00254
38.6 -0.00188
38.65 -0.00084
38.7 -0.00043
38.75 0.00037
38.8 0.00054
38.85 0.00026
38.9 0.00012
38.95 0.00016
39 0.00063
39.05 0.00117
39.1 0.00101
39.15 0.00063
39.2 0.00024
39.25 -0.00062
39.3 -0.00067
39.35 -0.00031
39.4 -0.00042
39.45 -0.00043
39.5 -0.00076
39.55 -0.00135
39.6 -0.00215
39.65 -0.00183
39.7 -0.00183
39.75 -0.00137
39.8 -0.00136
39.85 -0.00062
39.9 0.0004
39.95 0.00165
40 0.00252
40.05 0.0033
40.1 0.00292
40.15 0.00259
40.2 0.00214
40.25 0.00192
40.3 0.00162
40.35 0.0015
40.4 0.00116
40.45 0.00136
40.5 0.00117
40.55 0.0007
40.6 0.00039
40.65 0
40.7 0.00028
40.75 0.00064
40.8 0.00046
40.85 0.00074
40.9 0.00071
40.95 0.00084
41 0.00092
41.05 0.0008
41.1 0.00084
41.15 0.00042
41.2 -0.00002
41.25 -0.00015
41.3 -0.0006
41.35 -0.00022
41.4 -0.00027
41.45 -0.00058
41.5 -0.00054
41.55 -0.00014
41.6 0.00001
41.65 0.00034
41.7 0.00022
41.75 0.00055
41.8 0.00114
41.85 0.00148
41.9 0.00129
41.95 0.00085
42 0.00096
42.05 0.00125
42.1 0.00114
42.15 0.00147
42.2 0.00138
42.25 0.0016
42.3 0.00115
42.35 0.00041
42.4 0.00037
42.45 -0.00014
42.5 -0.00001
42.55 0.00021
42.6 0.00018
42.65 0.00027
42.7 -0.00027
42.75 -0.00019
42.8 0.00013
42.85 0.00062
42.9 0.00078
42.95 0.00021
43 0.00009
43.05 -0.00066
43.1 -0.00162
43.15 -0.00289
43.2 -0.00423
43.25 -0.00532
43.3 -0.00653
43.35 -0.00751
43.4 -0.00816
43.45 -0.00878
43.5 -0.00944
43.55 -0.01072
43.6 -0.01256
43.65 -0.01493
43.7 -0.01791
43.75 -0.02112
43.8 -0.02538
43.85 -0.03031
43.9 -0.03649
43.95 -0.04282
44 -0.05054
44.05 -0.05852
44.1 -0.06754
44.15 -0.07728
44.2 -0.08796
44.25 -0.09876
44.3 -0.11075
44.35 -0.12376
44.4 -0.13787
44.45 -0.15257
44.5 -0.16729
44.55 -0.18266
44.6 -0.19901
44.65 -0.21584
44.7 -0.23341
44.75 -0.25098
44.8 -0.26775
44.85 -0.28433
44.9 -0.30079
44.95 -0.31604
45 -0.33047
45.05 -0.34412
45.1 -0.3565
45.15 -0.36706
45.2 -0.376
45.25 -0.3822
45.3 -0.386
45.35 -0.38764
45.4 -0.38659
45.45 -0.38224
45.5 -0.37514
45.55 -0.36582
45.6 -0.35332
45.65 -0.33826
45.7 -0.32144
45.75 -0.3026
45.8 -0.28114
45.85 -0.25859
45.9 -0.23411
45.95 -0.20825
46 -0.18208
46.05 -0.15508
46.1 -0.12836
46.15 -0.10171
46.2 -0.0752
46.25 -0.0489
46.3 -0.02302
46.35 0.00141
46.4 0.02461
46.45 0.04622
46.5 0.06727
46.55 0.08724
46.6 0.10493
46.65 0.12188
46.7 0.13722
46.75 0.1508
46.8 0.16374
46.85 0.17537
46.9 0.18621
46.95 0.19636
47 0.20581
47.05 0.21509
47.1 0.22359
47.15 0.23175
47.2 0.23948
47.25 0.24703
47.3 0.25449
47.35 0.26227
47.4 0.26958
47.45 0.27698
47.5 0.2836
47.55 0.28937
47.6 0.29544
47.65 0.30113
47.7 0.30644
47.75 0.3112
47.8 0.3156
47.85 0.31916
47.9 0.32276
47.95 0.32544
48 0.32771
48.05 0.32849
48.1 0.32913
48.15 0.32884
48.2 0.32734
48.25 0.32521
48.3 0.32213
48.35 0.31865
48.4 0.31448
48.45 0.30924
48.5 0.30386
48.55 0.29813
48.6 0.2923
48.65 0.28572
48.7 0.27815
48.75 0.26999
48.8 0.26128
48.85 0.25232
48.9 0.24403
48.95 0.23557
49 0.22697
49.05 0.21856
49.1 0.20978
49.15 0.20075
49.2 0.19141
49.25 0.18266
49.3 0.17446
49.35 0.16586
49.4 0.15692
49.45 0.14779
49.5 0.13879
49.55 0.13067
49.6 0.12258
49.65 0.11419
49.7 0.10585
49.75 0.09768
49.8 0.08973
49.85 0.08269
49.9 0.0766
49.95 0.07104
50 0.06519
50.05 0.05939
50.1 0.05327
50.15 0.04739
50.2 0.04198
50.25 0.03728
50.3 0.03214
50.35 0.02701
50.4 0.02259
50.45 0.01863
50.5 0.01429
50.55 0.00981
50.6 0.00583
50.65 0.00186
50.7 -0.00207
50.75 -0.00528
50.8 -0.00912
50.85 -0.01263
50.9 -0.01562
50.95 -0.01798
51 -0.0203
51.05 -0.02301
51.1 -0.02505
51.15 -0.02693
51.2 -0.02898
51.25 -0.03144
51.3 -0.03384
51.35 -0.03635
51.4 -0.03785
51.45 -0.03923
51.5 -0.04045
51.55 -0.04148
51.6 -0.04231
51.65 -0.04263
51.7 -0.04372
51.75 -0.04424
51.8 -0.04551
51.85 -0.04635
51.9 -0.04733
51.95 -0.04763
52 -0.04846
52.05 -0.04955
52.1 -0.05023
52.15 -0.05125
52.2 -0.0513
52.25 -0.05097
52.3 -0.05121
52.35 -0.05159
52.4 -0.05149
52.45 -0.05142
52.5 -0.05152
52.55 -0.05154
52.6 -0.05152
52.65 -0.05169
52.7 -0.05112
52.75 -0.05112
52.8 -0.05042
52.85 -0.05008
52.9 -0.04917
52.95 -0.04802
53 -0.04713
53.05 -0.04641
53.1 -0.04635
53.15 -0.04645
53.2 -0.04689
53.25 -0.04646
53.3 -0.04655
53.35 -0.04597
53.4 -0.04529
53.45 -0.0444
53.5 -0.04366
53.55 -0.04363
53.6 -0.04281
53.65 -0.04226
53.7 -0.04196
53.75 -0.04117
53.8 -0.04036
53.85 -0.03918
53.9 -0.03828
53.95 -0.03706
54 -0.03647
54.05 -0.0361
54.1 -0.03557
54.15 -0.03465
54.2 -0.03441
54.25 -0.03369
54.3 -0.03303
54.35 -0.03277
54.4 -0.03208
54.45 -0.0313
54.5 -0.0314
54.55 -0.03195
54.6 -0.03207
54.65 -0.0325
54.7 -0.03281
54.75 -0.03274
54.8 -0.0329
54.85 -0.03243
54.9 -0.03132
54.95 -0.03043
55 -0.02937
55.05 -0.02861
55.1 -0.02752
55.15 -0.02713
55.2 -0.02615
55.25 -0.02551
55.3 -0.02501
55.35 -0.02506
55.4 -0.02528
55.45 -0.02587
55.5 -0.02658
55.55 -0.02655
55.6 -0.02635
55.65 -0.02623
55.7 -0.02571
55.75 -0.02452
55.8 -0.02376
55.85 -0.02253
55.9 -0.02108
55.95 -0.02065
56 -0.02091
56.05 -0.02042
56.1 -0.02017
56.15 -0.01929
56.2 -0.01853
56.25 -0.01815
56.3 -0.01819
56.35 -0.01871
56.4 -0.01834
56.45 -0.01838
56.5 -0.01844
56.55 -0.01774
56.6 -0.01758
56.65 -0.01735
56.7 -0.01714
56.75 -0.01646
56.8 -0.01596
56.85 -0.01595
56.9 -0.01624
56.95 -0.01598
57 -0.01519
57.05 -0.01437
57.1 -0.01343
57.15 -0.01225
57.2 -0.0118
57.25 -0.01113
57.3 -0.01123
57.35 -0.01196
57.4 -0.01294
57.45 -0.01321
57.5 -0.01383
57.55 -0.01353
57.6 -0.01286
57.65 -0.01258
57.7 -0.01172
57.75 -0.0116
57.8 -0.01111
57.85 -0.01115
57.9 -0.01065
57.95 -0.0109
58 -0.01137
58.05 -0.01111
58.1 -0.01027
58.15 -0.00918
58.2 -0.00866
58.25 -0.00824
58.3 -0.00819
58.35 -0.00836
58.4 -0.00837
58.45 -0.00848
58.5 -0.00825
58.55 -0.00865
58.6 -0.00837
58.65 -0.00802
58.7 -0.0075
58.75 -0.0074
58.8 -0.00768
58.85 -0.00762
58.9 -0.00722
58.95 -0.00742
59 -0.00746
59.05 -0.00814
59.1 -0.00885
59.15 -0.0094
59.2 -0.00911
59.25 -0.00913
59.3 -0.00951
59.35 -0.00975
59.4 -0.00969
59.45 -0.00995
59.5 -0.00941
59.55 -0.00845
59.6 -0.00743
59.65 -0.007
59.7 -0.00679
59.75 -0.00683
59.8 -0.00641
59.85 -0.00572
59.9 -0.00564
59.95 -0.00538
60 -0.00567
60.05 -0.00527
60.1 -0.00504
60.15 -0.00553
60.2 -0.00593
60.25 -0.00559
60.3 -0.0051
60.35 -0.00528
60.4 -0.00513
60.45 -0.00549
60.5 -0.00555
60.55 -0.00496
60.6 -0.00451
60.65 -0.00394
60.7 -0.00315
60.75 -0.00269
60.8 -0.00298
60.85 -0.00307
60.9 -0.00346
60.95 -0.00389
61 -0.00359
61.05 -0.00287
61.1 -0.00245
61.15 -0.00196
61.2 -0.00245
61.25 -0.00345
61.3 -0.00424
61.35 -0.00494
61.4 -0.0056
61.45 -0.00562
61.5 -0.00586
61.55 -0.00637
61.6 -0.00602
61.65 -0.00507
61.7 -0.00465
61.75 -0.00389
61.8 -0.00332
61.85 -0.00238
61.9 -0.00162
61.95 -0.00114
62 -0.00104
62.05 -0.00118
62.1 -0.00174
62.15 -0.00251
62.2 -0.00337
62.25 -0.00366
62.3 -0.00414
62.35 -0.00469
62.4 -0.00546
62.45 -0.00517
62.5 -0.00434
62.55 -0.00409
62.6 -0.00378
62.65 -0.00382
62.7 -0.00438
62.75 -0.00444
62.8 -0.00456
62.85 -0.00436
62.9 -0.00437
62.95 -0.00459
63 -0.00482
63.05 -0.00479
63.1 -0.00452
63.15 -0.0039
63.2 -0.00278
63.25 -0.00225
63.3 -0.002
63.35 -0.00229
63.4 -0.0029
63.45 -0.00356
63.5 -0.00359
63.55 -0.00393
63.6 -0.00394
63.65 -0.00427
63.7 -0.0048
63.75 -0.00455
63.8 -0.00368
63.85 -0.00278
63.9 -0.00194
63.95 -0.00116
64 -0.00097
64.05 -0.00108
64.1 -0.00131
64.15 -0.00109
64.2 -0.00046
64.25 0.00003
64.3 -0
64.35 -0.0006
64.4 -0.00135
64.45 -0.00223
64.5 -0.00225
64.55 -0.00233
64.6 -0.00175
64.65 -0.0012
64.7 -0.00121
64.75 -0.00146
64.8 -0.00199
64.85 -0.0026
64.9 -0.00302
64.95 -0.00269
65 -0.00173
65.05 -0.00057
65.1 0.00028
65.15 0.00079
65.2 0.00045
65.25 -0.00017
65.3 -0.00044
65.35 -0.00061
65.4 -0.00104
65.45 -0.0008
65.5 -0.00084
65.55 -0.00081
65.6 -0.00047
65.65 -0.00083
65.7 -0.001
65.75 -0.00124
65.8 -0.00128
65.85 -0.00083
65.9 -0.00001
65.95 -0.00016
66 -0.00061
66.05 -0.00029
66.1 0.00012
66.15 0.00082
66.2 0.00093
66.25 0.00057
66.3 0.00024
66.35 -0.00008
66.4 -0.00043
66.45 -0.0008
66.5 -0.00085
66.55 -0.00121
66.6 -0.00127
66.65 -0.00187
66.7 -0.00251
66.75 -0.00272
66.8 -0.00224
66.85 -0.00134
66.9 -0.00071
66.95 -0.00065
67 -0.00002
67.05 0.00009
67.1 0.00013
67.15 0.00057
67.2 0.0011
67.25 0.00153
67.3 0.00167
67.35 0.00194
67.4 0.00251
67.45 0.00208
67.5 0.00196
67.55 0.00165
67.6 0.00185
67.65 0.00142
67.7 0.00114
67.75 0.00022
67.8 -0.00072
67.85 -0.00108
67.9 -0.00134
67.95 -0.00161
68 -0.00173
68.05 -0.00202
68.1 -0.00258
68.15 -0.00279
68.2 -0.00325
68.25 -0.00308
68.3 -0.00235
68.35 -0.00137
68.4 -0.00017
68.45 0.00108
68.5 0.00163
68.55 0.00138
68.6 0.00105
68.65 0.00027
68.7 -0.00052
68.75 -0.00158
68.8 -0.00222
68.85 -0.0026
68.9 -0.00329
68.95 -0.0032
69 -0.00317
69.05 -0.00239
69.1 -0.00231
69.15 -0.00244
69.2 -0.00291
69.25 -0.00331
69.3 -0.00372
69.35 -0.00419
69.4 -0.00465
69.45 -0.0041
69.5 -0.00311
69.55 -0.00243
69.6 -0.00222
69.65 -0.00152
69.7 -0.00098
69.75 -0.00069
69.8 -0.00053
69.85 -0.00024
69.9 0.00015
69.95 0.00076
70 0.00063
70.05 0.00056
70.1 0.00034
70.15 0.00075
70.2 0.0013
70.25 0.00167
70.3 0.00176
70.35 0.00148
70.4 0.00093
70.45 0.00103
70.5 0.00056
70.55 0.00079
70.6 0.0014
70.65 0.00173
70.7 0.00174
70.75 0.00172
70.8 0.00093
70.85 -0.00007
70.9 -0.00041
70.95 -0.00046
71 -0.00012
71.05 0.00006
71.1 0.00056
71.15 0.00132
71.2 0.00162
71.25 0.00116
71.3 0.00135
71.35 0.00089
71.4 0.00095
71.45 0.00119
71.5 0.00183
71.55 0.00204
71.6 0.00233
71.65 0.00176
71.7 0.00135
71.75 0.00054
71.8 0.00056
71.85 0.00014
71.9 0.00039
71.95 0.00053
72 0.00017
72.05 -0.00027
72.1 -0.00112
72.15 -0.00098
72.2 -0.00042
72.25 -0.00054
72.3 -0.00018
72.35 -0.00036
72.4 -0.00036
72.45 -0.0001
72.5 0.00017
72.55 0.00058
72.6 0.00066
72.65 0.00024
72.7 -0.00051
72.75 -0.0012
72.8 -0.00196
72.85 -0.00176
72.9 -0.0015
72.95 -0.00097
73 -0.00042
73.05 -0.00002
73.1 -0.00028
73.15 -0.00048
73.2 -0.00065
73.25 -0.00056
73.3 -0.00016
73.35 0.00002
73.4 0.00014
73.45 0.00063
73.5 0.0014
73.55 0.00215
73.6 0.00258
73.65 0.00271
73.7 0.00242
73.75 0.00245
73.8 0.0026
73.85 0.00223
73.9 0.00126
73.95 0.00049
74 -0.0005
74.05 -0.00141
74.1 -0.00181
74.15 -0.00153
74.2 -0.00088
74.25 -0.00097
74.3 -0.00044
74.35 0.00027
74.4 0.00106
74.45 0.00151
74.5 0.00194
74.55 0.00164
74.6 0.00182
74.65 0.0011
74.7 0.00111
74.75 0.00079
74.8 -0.00012
74.85 -0.00055
74.9 -0.00061
74.95 -0.00051
75 -0.0007
75.05 -0.00054
75.1 -0.00105
75.15 -0.00073
75.2 -0.00112
75.25 -0.00125
75.3 -0.00151
75.35 -0.00204
75.4 -0.00164
75.45 -0.00137
75.5 -0.00073
75.55 0.00016
75.6 0.00072
75.65 0.00048
75.7 0.00013
75.75 -0.00025
75.8 -0.0007
75.85 -0.00124
75.9 -0.0011
75.95 -0.00091
76 -0.00086
76.05 -0.00026
76.1 0.00038
76.15 0.00077
76.2 0.00044
76.25 -0.00001
76.3 -0.00033
76.35 -0.00074
76.4 -0.00141
76.45 -0.00125
76.5 -0.00164
76.55 -0.00202
76.6 -0.00246
76.65 -0.00234
76.7 -0.00181
76.75 -0.00098
76.8 -0.00052
76.85 -0.00055
76.9 -0.00071
76.95 -0.00096
77 -0.00077
77.05 -0.00081
77.1 -0.00135
77.15 -0.00123
77.2 -0.00065
77.25 0.00038
77.3 0.00037
77.35 -0.00009
77.4 -0.00083
77.45 -0.00181
77.5 -0.00274
77.55 -0.00302
77.6 -0.00239
77.65 -0.00124
77.7 -0.00041
77.75 0.00008
77.8 -0.00018
77.85 0.00004
77.9 0.00062
77.95 0.00038
78 0.00053
78.05 0.00073
78.1 0.0008
78.15 0.00101
78.2 0.00167
78.25 0.00236
78.3 0.00221
78.35 0.00216
78.4 0.00176
78.45 0.00124
78.5 0.00033
78.55 -0.00038
78.6 -0.00057
78.65 -0.00014
78.7 -0.00012
78.75 -0.00035
78.8 -0.00011
78.85 -0.00058
78.9 -0.00107
78.95 -0.0014
79 -0.00154
79.05 -0.00108
79.1 -0.0013
79.15 -0.00172
79.2 -0.00131
79.25 -0.00139
79.3 -0.00164
79.35 -0.00159
79.4 -0.00082
79.45 -0.00044
79.5 -0.00048
79.55 -0.00031
79.6 -0.00074
79.65 -0.00038
79.7 0.00049
79.75 0.00089
79.8 0.00052
79.85 0.0002
79.9 -0.00052
79.95 -0.00069
80 -0.00109
80.05 -0.00173
80.1 -0.00175
80.15 -0.00144
80.2 -0.00156
80.25 -0.00113
80.3 -0.00024
80.35 0.0007
80.4 0.00095
80.45 0.00109
80.5 0.00064
80.55 0.00065
80.6 0.00039
80.65 0.00073
80.7 0.00061
80.75 0.00038
80.8 -0.00027
80.85 -0.00056
80.9 -0.00077
80.95 -0.00021
81 -0.00003
81.05 -0.00002
81.1 0.00026
81.15 -0.00004
81.2 -0.00035
81.25 -0.00034
81.3 -0.00065
81.35 -0.00023
81.4 0.00063
81.45 0.00167
81.5 0.00276
81.55 0.00321
81.6 0.00316
81.65 0.00337
81.7 0.00325
81.75 0.00297
81.8 0.00255
81.85 0.00161
81.9 0.0008
81.95 0.00061
82 0.00085
82.05 0.00107
82.1 0.00088
82.15 0.00118
82.2 0.00106
82.25 0.00144
82.3 0.00212
82.35 0.00268
82.4 0.00286
82.45 0.00313
82.5 0.00282
82.55 0.0029
82.6 0.00205
82.65 0.00068
82.7 -0.00048
82.75 -0.00178
82.8 -0.00197
82.85 -0.00148
82.9 -0.00102
82.95 -0.00128
83 -0.00104
83.05 -0.00126
83.1 -0.00133
83.15 -0.0007
83.2 -0.00053
83.25 -0.00004
83.3 0.00045
83.35 0.00069
83.4 0.00041
83.45 0.00067
83.5 0.00086
83.55 0.00096
83.6 0.00029
83.65 -0.00018
83.7 -0.00075
83.75 -0.00071
83.8 -0.00125
83.85 -0.00091
83.9 -0.0004
83.95 -0.0002
84 0.00048
84.05 0.00092
84.1 0.00154
84.15 0.00195
84.2 0.00236
84.25 0.00271
84.3 0.00285
84.35 0.00238
84.4 0.00242
84.45 0.00239
84.5 0.00163
84.55 0.00084
84.6 0.00074
84.65 0.00014
84.7 -0.00032
84.75 -0.00024
84.8 0.00009
84.85 -0.0002
84.9 -0.00102
84.95 -0.00094
85 -0.00042
85.05 -0.00061
85.1 -0.00124
85.15 -0.00204
85.2 -0.00279
85.25 -0.00319
85.3 -0.00309
85.35 -0.00337
85.4 -0.00271
85.45 -0.00187
85.5 -0.00076
85.55 -0.00036
85.6 -0.00055
85.65 -0.00014
85.7 -0.00008
85.75 0.00003
85.8 -0.0005
85.85 -0.00043
85.9 -0.00072
85.95 -0.00139
86 -0.00112
86.05 -0.00151
86.1 -0.00115
86.15 -0.00027
86.2 -0.00016
86.25 0.00039
86.3 0.00078
86.35 0.00085
86.4 0.00107
86.45 0.00158
86.5 0.00123
86.55 0.00085
86.6 0.00032
86.65 -0.00003
86.7 -0.00076
86.75 -0.0014
86.8 -0.00185
86.85 -0.00186
86.9 -0.00116
86.95 -0.00062
87 -0.0001
87.05 0.00056
87.1 0.00057
87.15 0.00065
87.2 0.00114
87.25 0.00131
87.3 0.00071
87.35 0.00075
87.4 0.00092
87.45 0.00044
87.5 0.00022
87.55 0.0001
87.6 0.00013
87.65 0.00038
87.7 0.00058
87.75 0.00099
87.8 0.00147
87.85 0.00134
87.9 0.00126
87.95 0.00045
88 -0.00031
88.05 -0.00129
88.1 -0.00164
88.15 -0.00144
88.2 -0.00109
88.25 -0.00059
88.3 -0.00001
88.35 0.00045
88.4 0.00103
88.45 0.00156
88.5 0.00157
88.55 0.00106
88.6 0.00011
88.65 -0.00021
88.7 -0.00009
88.75 -0.00056
88.8 -0.00144
88.85 -0.00197
88.9 -0.00224
88.95 -0.00268
89 -0.00291
89.05 -0.00231
89.1 -0.00165
89.15 -0.00163
89.2 -0.00195
89.25 -0.00218
89.3 -0.00256
89.35 -0.0022
89.4 -0.00208
89.45 -0.00169
89.5 -0.00187
89.55 -0.00229
89.6 -0.00188
89.65 -0.00129
89.7 -0.00126
89.75 -0.00061
89.8 -0.00027
89.85 0.00036
89.9 0.00083
89.95 0.00085
90 0.00119
90.05 0.00104
90.1 0.00098
90.15 0.00078
90.2 0.00044
90.25 0.00065
90.3 0.00117
90.35 0.00122
90.4 0.00122
90.45 0.0016
90.5 0.00125
90.55 0.00053
90.6 0.00061
90.65 0.00074
90.7 0.0006
90.75 0.00029
90.8 0.00061
90.85 0.00061
90.9 0.00001
90.95 -0.00033
91 0.00008
91.05 -0.00017
91.1 -0.00013
91.15 -0.0004
91.2 -0.00071
91.25 -0.00124
91.3 -0.00115
91.35 -0.00153
91.4 -0.00185
91.45 -0.00203
91.5 -0.00236
91.55 -0.00267
91.6 -0.00283
91.65 -0.00269
91.7 -0.00198
91.75 -0.00183
91.8 -0.00138
91.85 -0.00126
91.9 -0.00111
91.95 -0.00073
92 -0.00053
92.05 -0.00041
92.1 -0.00002
92.15 0.00008
92.2 -0.00022
92.25 -0.00013
92.3 -0.00011
92.35 -0.00021
92.4 -0.00022
92.45 -0.00011
92.5 -0.00006
92.55 -0.0006
92.6 -0.00134
92.65 -0.00136
92.7 -0.00117
92.75 -0.0006
92.8 0.00041
92.85 0.0011
92.9 0.00124
92.95 0.00088
93 0.00033
93.05 0.00033
93.1 -0.00029
93.15 -0.00101
93.2 -0.00172
93.25 -0.0022
93.3 -0.00219
93.35 -0.00198
93.4 -0.00105
93.45 -0.00035
93.5 0.00059
93.55 0.00079
93.6 0.00035
93.65 -0.00041
93.7 -0.00134
93.75 -0.00117
93.8 -0.00077
93.85 -0.00096
93.9 -0.00117
93.95 -0.00079
94 -0.00053
94.05 -0.00013
94.1 0.00058
94.15 0.00055
94.2 -0.00003
94.25 -0.00056
94.3 -0.00099
94.35 -0.00056
94.4 -0.00044
94.45 -0.00091
94.5 -0.00051
94.55 -0.00065
94.6 -0.0002
94.65 -0.00043
94.7 0.00008
94.75 -0.00012
94.8 0.00028
94.85 0.00098
94.9 0.00076
94.95 0.00115
95 0.00096
95.05 0.00045
95.1 -0.00004
95.15 -0.00081
95.2 -0.00088
95.25 -0.00089
95.3 -0.00022
95.35 -0.00035
95.4 0.00017
95.45 0.00051
95.5 0.0012
95.55 0.00162
95.6 0.00217
95.65 0.00209
95.7 0.00219
95.75 0.00154
95.8 0.00143
95.85 0.00171
95.9 0.00199
95.95 0.00222
96 0.00184
96.05 0.00102
96.1 0.00025
96.15 0.00026
96.2 -0.00004
96.25 -0.00066
96.3 -0.0012
96.35 -0.00205
96.4 -0.00242
96.45 -0.00228
96.5 -0.0024
96.55 -0.00264
96.6 -0.00198
96.65 -0.00179
96.7 -0.00142
96.75 -0.00134
96.8 -0.00102
96.85 -0.00028
96.9 0.00027
96.95 0.00123
97 0.00138
97.05 0.00137
97.1 0.00132
97.15 0.00139
97.2 0.00179
97.25 0.00165
97.3 0.00204
97.35 0.0016
97.4 0.00168
97.45 0.00108
97.5 0.00101
97.55 0.0012
97.6 0.00131
97.65 0.00172
97.7 0.00129
97.75 0.00074
97.8 0.00031
97.85 -0.0002
97.9 -0.00026
97.95 0.00033
98 0.00005
98.05 0.00022
98.1 0.00067
98.15 0.00099
98.2 0.00081
98.25 0.00039
98.3 0.00007
98.35 0.00014
98.4 -0.00012
98.45 -0.00066
98.5 -0.00084
98.55 -0.00123
98.6 -0.00111
98.65 -0.00128
98.7 -0.00182
98.75 -0.00211
98.8 -0.00183
98.85 -0.00212
98.9 -0.0018
98.95 -0.00137
99 -0.00145
99.05 -0.00156
99.1 -0.00119
99.15 -0.00136
99.2 -0.00136
99.25 -0.00119
99.3 -0.00145
99.35 -0.00094
99.4 -0.00062
99.45 0.00002
99.5 0.00013
99.55 0.00014
99.6 0.00056
99.65 0.00112
99.7 0.00112
99.75 0.00138
99.8 0.00082
99.85 0.00026
99.9 -0.00029
99.95 -0.0009
