0 0
0.05 0.00008
0.1 0.00023
0.15 0.00047
0.2 0.00058
0.25 0.00063
0.3 0.00078
0.35 0.00089
0.4 0.0009
0.45 0.00089
0.5 0.00084
0.55 0.00092
0.6 0.001
0.65 0.0011
0.7 0.00124
0.75 0.00129
0.8 0.0014
0.85 0.00139
0.9 0.00138
0.95 0.00125
1 0.00106
1.05 0.00101
1.1 0.00107
1.15 0.00104
1.2 0.00106
1.25 0.00105
1.3 0.00106
1.35 0.00097
1.4 0.001
1.45 0.00091
1.5 0.00087
1.55 0.00074
1.6 0.00058
1.65 0.00056
1.7 0.00052
1.75 0.00047
1.8 0.00056
1.85 0.0007
1.9 0.00079
1.95 0.00078
2 0.00084
2.05 0.00088
2.1 0.00088
2.15 0.00083
2.2 0.00073
2.25 0.00067
2.3 0.00059
2.35 0.0005
2.4 0.00054
2.45 0.00058
2.5 0.00055
2.55 0.00062
2.6 0.00063
2.65 0.00059
2.7 0.0005
2.75 0.00044
2.8 0.00043
2.85 0.00037
2.9 0.00027
2.95 0.00028
3 0.00037
3.05 0.00041
3.1 0.00044
3.15 0.00046
3.2 0.00041
3.25 0.00032
3.3 0.00035
3.35 0.00032
3.4 0.00029
3.45 0.00026
3.5 0.00032
3.55 0.00042
3.6 0.00045
3.65 0.00054
3.7 0.00066
3.75 0.00066
3.8 0.0007
3.85 0.00072
3.9 0.00077
3.95 0.00085
4 0.00087
4.05 0.00082
4.1 0.00074
4.15 0.00059
4.2 0.00055
4.25 0.00055
4.3 0.00057
4.35 0.00046
4.4 0.00043
4.45 0.0004
4.5 0.00034
4.55 0.00026
4.6 0.00023
4.65 0.00013
4.7 0.00008
4.75 0.00007
4.8 -0.00001
4.85 -0.00003
4.9 -0.00005
4.95 0.00004
5 0.00011
5.05 0.00013
5.1 0.00019
5.15 0.00029
5.2 0.00029
5.25 0.00022
5.3 0.00008
5.35 0.00002
5.4 -0.00006
5.45 -0.00004
5.5 -0.00001
5.55 -0
5.6 0.00012
5.65 0.00013
5.7 0.00021
5.75 0.00033
5.8 0.00038
5.85 0.00049
5.9 0.00045
5.95 0.00037
6 0.00023
6.05 0.00017
6.1 0.00006
6.15 0
6.2 0.00005
6.25 0.00008
6.3 0.00008
6.35 0.00009
6.4 0.00008
6.45 0.00011
6.5 0.00016
6.55 0.00028
6.6 0.00036
6.65 0.00048
6.7 0.00053
6.75 0.00044
6.8 0.00042
6.85 0.00047
6.9 0.00056
6.95 0.00068
7 0.00078
7.05 0.00077
7.1 0.0007
7.15 0.00061
7.2 0.00054
7.25 0.0005
7.3 0.0004
7.35 0.00037
7.4 0.00032
7.45 0.00026
7.5 0.00013
7.55 0.00002
7.6 0.00001
7.65 0.00001
7.7 -0.00005
7.75 -0.00015
7.8 -0.00023
7.85 -0.00026
7.9 -0.00021
7.95 -0.00018
8 -0.00006
8.05 0.00006
8.1 0.00013
8.15 0.00026
8.2 0.00028
8.25 0.00033
8.3 0.00032
8.35 0.00018
8.4 0.00008
8.45 -0.00001
8.5 -0.00002
8.55 -0.00009
8.6 -0.00017
8.65 -0.00019
8.7 -0.00022
8.75 -0.00015
8.8 -0.00002
8.85 0.00011
8.9 0.0002
8.95 0.00033
9 0.00038
9.05 0.00035
9.1 0.00039
9.15 0.00041
9.2 0.00047
9.25 0.00043
9.3 0.00039
9.35 0.00024
9.4 0.0002
9.45 0.00012
9.5 0.00008
9.55 0.00005
9.6 0.00002
9.65 0.00009
9.7 0.00007
9.75 0.00003
9.8 0.00001
9.85 -0
9.9 0.00008
9.95 0.00008
10 0.00015
10.05 0.00011
10.1 0.00004
10.15 0.00003
10.2 0
10.25 0.00008
10.3 0.00003
10.35 -0.00009
10.4 -0.00017
10.45 -0.00019
10.5 -0.00022
10.55 -0.00025
10.6 -0.00034
10.65 -0.00029
10.7 -0.00029
10.75 -0.00027
10.8 -0.00018
10.85 -0.00007
10.9 -0.00001
10.95 0.00002
11 0.00008
11.05 0.00015
11.1 0.00019
11.15 0.0001
11.2 -0.00002
11.25 -0.00017
11.3 -0.00017
11.35 -0.00015
11.4 -0.00016
11.45 -0.00017
11.5 -0.0001
11.55 0.00001
11.6 -0.00001
11.65 0.00007
11.7 0.00003
11.75 0.00003
11.8 0.00011
11.85 0.00008
11.9 0.00007
11.95 0.00009
12 0.00001
12.05 -0.00005
12.1 -0.00005
12.15 -0.00006
12.2 -0.00014
12.25 -0.00019
12.3 -0.00023
12.35 -0.00022
12.4 -0.00027
12.45 -0.00025
12.5 -0.00023
12.55 -0.0003
12.6 -0.0004
12.65 -0.00035
12.7 -0.00025
12.75 -0.00023
12.8 -0.00013
12.85 -0.00002
12.9 -0.00002
12.95 0.00002
13 0.00007
13.05 0.00016
13.1 0.00012
13.15 0.00018
13.2 0.0003
13.25 0.00038
13.3 0.00045
13.35 0.00051
13.4 0.00042
13.45 0.00027
13.5 0.00016
13.55 0.00015
13.6 0.00005
13.65 0.00008
13.7 0.0001
13.75 0.00014
13.8 0.00011
13.85 0
13.9 -0.00003
13.95 -0.0001
14 -0.00024
14.05 -0.00034
14.1 -0.00043
14.15 -0.0005
14.2 -0.00042
14.25 -0.00031
14.3 -0.00013
14.35 -0.00008
14.4 -0.00003
14.45 0.00003
14.5 0.00005
14.55 0.00015
14.6 0.00014
14.65 0.00008
14.7 0.00011
14.75 0.00003
14.8 -0.00009
14.85 -0.00016
14.9 -0.00016
14.95 -0.00024
15 -0.00035
15.05 -0.00047
15.1 -0.0005
15.15 -0.00054
15.2 -0.00045
15.25 -0.00025
15.3 -0.00005
15.35 0.00006
15.4 0.00016
15.45 0.00028
15.5 0.00028
15.55 0.00034
15.6 0.00027
15.65 0.00031
15.7 0.00032
15.75 0.00022
15.8 0.00014
15.85 0.00013
15.9 0.00016
15.95 0.00017
16 0.00014
16.05 0.00019
16.1 0.00012
16.15 -0.00002
16.2 -0.00017
16.25 -0.00024
16.3 -0.00019
16.35 -0.00018
16.4 -0.00007
16.45 0.00008
16.5 0.00027
16.55 0.00031
16.6 0.00039
16.65 0.00034
16.7 0.00032
16.75 0.00037
16.8 0.00037
16.85 0.00039
16.9 0.00042
16.95 0.0003
17 0.00025
17.05 0.00019
17.1 0.00016
17.15 0.0002
17.2 0.00022
17.25 0.00017
17.3 0.00017
17.35 0.00007
17.4 0.00005
17.45 0.00001
17.5 -0.00006
17.55 -0.00003
17.6 0.00004
17.65 0.00009
17.7 0.00017
17.75 0.00014
17.8 0.00011
17.85 0.00002
17.9 -0.00001
17.95 -0.0001
18 -0.0002
18.05 -0.00032
18.1 -0.00034
18.15 -0.00033
18.2 -0.00039
18.25 -0.00037
18.3 -0.00039
18.35 -0.00033
18.4 -0.00023
18.45 -0.0001
18.5 -0.00002
18.55 0.00014
18.6 0.00026
18.65 0.00033
18.7 0.00031
18.75 0.00032
18.8 0.00033
18.85 0.00028
18.9 0.00025
18.95 0.00019
19 0.0001
19.05 -0.00002
19.1 -0.00001
19.15 -0.00004
19.2 -0.00009
19.25 -0.0002
19.3 -0.00035
19.35 -0.00041
19.4 -0.00034
19.45 -0.00021
19.5 -0.00002
19.55 0.00007
19.6 0.00014
19.65 0.00013
19.7 0.00007
19.75 -0.00005
19.8 -0.00009
19.85 -0.00007
19.9 -0.0001
19.95 -0.00006
20 -0.00013
20.05 -0.00009
20.1 -0.00013
20.15 -0.00016
20.2 -0.00013
20.25 -0.00003
20.3 0.0001
20.35 0.00018
20.4 0.00011
20.45 0.00015
20.5 0.00019
20.55 0.0003
20.6 0.0004
20.65 0.00034
20.7 0.0002
20.75 0.0001
20.8 -0.00003
20.85 -0.00008
20.9 -0.0002
20.95 -0.00019
21 -0.00016
21.05 -0.00015
21.1 -0.00009
21.15 0.00002
21.2 0.00005
21.25 0.00008
21.3 0.00004
21.35 -0.00007
21.4 -0.00021
21.45 -0.00021
21.5 -0.00025
21.55 -0.00032
21.6 -0.00027
21.65 -0.00016
21.7 0.00001
21.75 0.00011
21.8 0.00016
21.85 0.0002
21.9 0.00023
21.95 0.00017
22 0.00015
22.05 0.0002
22.1 0.00013
22.15 0.00015
22.2 0.00011
22.25 0.00013
22.3 0.00006
22.35 -0.00007
22.4 -0.00005
22.45 -0.00013
22.5 -0.00008
22.55 0.00004
22.6 0.00004
22.65 -0.00006
22.7 -0.00008
22.75 -0.00008
22.8 -0.00018
22.85 -0.00031
22.9 -0.00027
22.95 -0.00018
23 -0.00015
23.05 -0.00019
23.1 -0.00027
23.15 -0.00036
23.2 -0.00033
23.25 -0.00023
23.3 -0.00013
23.35 -0.00001
23.4 0.00014
23.45 0.00024
23.5 0.0003
23.55 0.00038
23.6 0.00033
23.65 0.00031
23.7 0.00029
23.75 0.00026
23.8 0.00013
23.85 0.00001
23.9 -0.00011
23.95 -0.00013
24 -0.00005
24.05 -0.00001
24.1 -0.00005
24.15 -0.00012
24.2 -0.00015
24.25 -0.00025
24.3 -0.00028
24.35 -0.00027
24.4 -0.00029
24.45 -0.00029
24.5 -0.00018
24.55 -0.0001
24.6 0.00003
24.65 0.00018
24.7 0.0002
24.75 0.0002
24.8 0.00016
24.85 0.00014
24.9 0.00016
24.95 0.00022
25 0.0002
25.05 0.0002
25.1 0.00025
25.15 0.00022
25.2 0.0001
25.25 0.00003
25.3 0.00006
25.35 0.00002
25.4 0.00007
25.45 -0.00001
25.5 -0.00003
25.55 -0.00002
25.6 0.00005
25.65 0.00018
25.7 0.00031
25.75 0.00045
25.8 0.00047
25.85 0.00042
25.9 0.00028
25.95 0.0001
26 0.00002
26.05 -0.00002
26.1 -0.00004
26.15 0.00001
26.2 -0.00004
26.25 -0.00003
26.3 -0.00012
26.35 -0.00011
26.4 -0.00008
26.45 -0.00004
26.5 0
26.55 0.00003
26.6 0.00007
26.65 0.00014
26.7 0.00017
26.75 0.00024
26.8 0.00021
26.85 0.00019
26.9 0.00013
26.95 0.00008
27 0.00011
27.05 0.00002
27.1 -0.00003
27.15 -0.00004
27.2 -0.00013
27.25 -0.00011
27.3 -0.00018
27.35 -0.0003
27.4 -0.0003
27.45 -0.00037
27.5 -0.0003
27.55 -0.00024
27.6 -0.0002
27.65 -0.00011
27.7 -0.00014
27.75 -0.00021
27.8 -0.0002
27.85 -0.0001
27.9 -0.00003
27.95 0.0001
28 0.00009
28.05 0.00007
28.1 0.00012
28.15 0.00005
28.2 0.00006
28.25 0.0001
28.3 0.00014
28.35 0.00025
28.4 0.00037
28.45 0.00033
28.5 0.00029
28.55 0.00031
28.6 0.00025
28.65 0.00022
28.7 0.00018
28.75 0.00005
28.8 -0.00002
28.85 -0.00006
28.9 -0.00008
28.95 -0.00014
29 -0.00014
29.05 -0.00008
29.1 0.00004
29.15 0.00002
29.2 0.00006
29.25 0.00002
29.3 -0.00005
29.35 -0.00014
29.4 -0.00016
29.45 -0.00017
29.5 -0.0002
29.55 -0.00023
29.6 -0.0003
29.65 -0.00025
29.7 -0.00019
29.75 -0.00005
29.8 0.00008
29.85 0.00015
29.9 0.00014
29.95 0.00011
30 0.0001
30.05 0.00005
30.1 0
30.15 -0.00005
30.2 -0.00016
30.25 -0.00015
30.3 -0.00009
30.35 -0.00012
30.4 -0.00018
30.45 -0.00026
30.5 -0.00031
30.55 -0.00023
30.6 -0.00016
30.65 -0.00008
30.7 -0.00003
30.75 0.00008
30.8 0.00023
30.85 0.00021
30.9 0.0001
30.95 0.0001
31 0.00001
31.05 -0.00009
31.1 -0.00014
31.15 -0.00026
31.2 -0.00038
31.25 -0.00041
31.3 -0.00035
31.35 -0.00031
31.4 -0.00026
31.45 -0.00013
31.5 -0.00008
31.55 -0.00003
31.6 0.00009
31.65 0.00012
31.7 0.00022
31.75 0.00028
31.8 0.00024
31.85 0.00009
31.9 -0.00008
31.95 -0.00014
32 -0.00014
32.05 -0.00011
32.1 -0.00006
32.15 -0.00013
32.2 -0.00026
32.25 -0.00026
32.3 -0.00017
32.35 -0.00007
32.4 -0.00003
32.45 0.00007
32.5 0.00018
32.55 0.00032
32.6 0.00043
32.65 0.00051
32.7 0.00044
32.75 0.00031
32.8 0.00011
32.85 -0.0001
32.9 -0.00021
32.95 -0.00017
33 -0.00005
33.05 -0.00005
33.1 0.00004
33.15 0.00004
33.2 0.00007
33.25 0.00002
33.3 0.00005
33.35 -0.00003
33.4 -0.00008
33.45 -0.00019
33.5 -0.00023
33.55 -0.00017
33.6 -0.00022
33.65 -0.00019
33.7 -0.0001
33.75 -0.00002
33.8 -0.00003
33.85 -0.00011
33.9 -0.00014
33.95 -0.00023
34 -0.00034
34.05 -0.00034
34.1 -0.00037
34.15 -0.00037
34.2 -0.00036
34.25 -0.0004
34.3 -0.00032
34.35 -0.00028
34.4 -0.00022
34.45 -0.00024
34.5 -0.0002
34.55 -0.00013
34.6 -0.00016
34.65 -0.00007
34.7 0.00001
34.75 0.00012
34.8 0.00026
34.85 0.00036
34.9 0.00036
34.95 0.00029
35 0.00023
35.05 0.00007
35.1 -0.0001
35.15 -0.00021
35.2 -0.00031
35.25 -0.00041
35.3 -0.00052
35.35 -0.00061
35.4 -0.00065
35.45 -0.00071
35.5 -0.00086
35.55 -0.00093
35.6 -0.00101
35.65 -0.00108
35.7 -0.0012
35.75 -0.00147
35.8 -0.00175
35.85 -0.00203
35.9 -0.0025
35.95 -0.00301
36 -0.00359
36.05 -0.0043
36.1 -0.00501
36.15 -0.00584
36.2 -0.00671
36.25 -0.00759
36.3 -0.00857
36.35 -0.00961
36.4 -0.01087
36.45 -0.0122
36.5 -0.01362
36.55 -0.01513
36.6 -0.01675
36.65 -0.0185
36.7 -0.02025
36.75 -0.02205
36.8 -0.02399
36.85 -0.02586
36.9 -0.02782
36.95 -0.02975
37 -0.03164
37.05 -0.03356
37.1 -0.03538
37.15 -0.03711
37.2 -0.03884
37.25 -0.04038
37.3 -0.04175
37.35 -0.04285
37.4 -0.0438
37.45 -0.04448
37.5 -0.04488
37.55 -0.04505
37.6 -0.04504
37.65 -0.04485
37.7 -0.04441
37.75 -0.04364
37.8 -0.0427
37.85 -0.04143
37.9 -0.04003
37.95 -0.0383
38 -0.03644
38.05 -0.03442
38.1 -0.03234
38.15 -0.03017
38.2 -0.02801
38.25 -0.02582
38.3 -0.02367
38.35 -0.02144
38.4 -0.01936
38.45 -0.01727
38.5 -0.01525
38.55 -0.01335
38.6 -0.01158
38.65 -0.01001
38.7 -0.00864
38.75 -0.00747
38.8 -0.00656
38.85 -0.00585
38.9 -0.00527
38.95 -0.00471
39 -0.00419
39.05 -0.00377
39.1 -0.00333
39.15 -0.00287
39.2 -0.00239
39.25 -0.00177
39.3 -0.00114
39.35 -0.00042
39.4 0.00054
39.45 0.00164
39.5 0.0028
39.55 0.00417
39.6 0.00577
39.65 0.00749
39.7 0.00934
39.75 0.01118
39.8 0.01306
39.85 0.01497
39.9 0.01685
39.95 0.01886
40 0.02079
40.05 0.02272
40.1 0.02463
40.15 0.02643
40.2 0.02827
40.25 0.03
40.3 0.03174
40.35 0.03337
40.4 0.03491
40.45 0.03628
40.5 0.03754
40.55 0.03868
40.6 0.03979
40.65 0.04085
40.7 0.04171
40.75 0.04245
40.8 0.04305
40.85 0.04361
40.9 0.04406
40.95 0.04441
41 0.04475
41.05 0.04488
41.1 0.04491
41.15 0.04491
41.2 0.04488
41.25 0.04482
41.3 0.04454
41.35 0.0442
41.4 0.04388
41.45 0.04346
41.5 0.04298
41.55 0.04245
41.6 0.04183
41.65 0.04118
41.7 0.04042
41.75 0.03968
41.8 0.03896
41.85 0.03811
41.9 0.03718
41.95 0.03617
42 0.0352
42.05 0.03418
42.1 0.03328
42.15 0.03228
42.2 0.03132
42.25 0.03047
42.3 0.02965
42.35 0.02874
42.4 0.02787
42.45 0.02689
42.5 0.02593
42.55 0.02492
42.6 0.02397
42.65 0.02295
42.7 0.02188
42.75 0.02075
42.8 0.01973
42.85 0.01869
42.9 0.01764
42.95 0.01673
43 0.01579
43.05 0.01493
43.1 0.01419
43.15 0.01341
43.2 0.01267
43.25 0.01184
43.3 0.01104
43.35 0.01033
43.4 0.00967
43.45 0.00894
43.5 0.00822
43.55 0.00747
43.6 0.00667
43.65 0.00598
43.7 0.00532
43.75 0.0048
43.8 0.00435
43.85 0.00383
43.9 0.00325
43.95 0.00276
44 0.00222
44.05 0.00175
44.1 0.00135
44.15 0.001
44.2 0.00063
44.25 0.00014
44.3 -0.00025
44.35 -0.00068
44.4 -0.00115
44.45 -0.00168
44.5 -0.0021
44.55 -0.00248
44.6 -0.00289
44.65 -0.00332
44.7 -0.0036
44.75 -0.00378
44.8 -0.00398
44.85 -0.00431
44.9 -0.00465
44.95 -0.00495
45 -0.0053
45.05 -0.00559
45.1 -0.00593
45.15 -0.00613
45.2 -0.0063
45.25 -0.00638
45.3 -0.00652
45.35 -0.00659
45.4 -0.00663
45.45 -0.0067
45.5 -0.00674
45.55 -0.00674
45.6 -0.00692
45.65 -0.00717
45.7 -0.0073
45.75 -0.00734
45.8 -0.00748
45.85 -0.00761
45.9 -0.00781
45.95 -0.00799
46 -0.00816
46.05 -0.00829
46.1 -0.00828
46.15 -0.00834
46.2 -0.00843
46.25 -0.00841
46.3 -0.00839
46.35 -0.0084
46.4 -0.00845
46.45 -0.00835
46.5 -0.00819
46.55 -0.00804
46.6 -0.00792
46.65 -0.00774
46.7 -0.00755
46.75 -0.00752
46.8 -0.00746
46.85 -0.00746
46.9 -0.00741
46.95 -0.00727
47 -0.00711
47.05 -0.00704
47.1 -0.00693
47.15 -0.00681
47.2 -0.00668
47.25 -0.00655
47.3 -0.0065
47.35 -0.00658
47.4 -0.00657
47.45 -0.00663
47.5 -0.00658
47.55 -0.00654
47.6 -0.00651
47.65 -0.00643
47.7 -0.00633
47.75 -0.00616
47.8 -0.00601
47.85 -0.00594
47.9 -0.00588
47.95 -0.00575
48 -0.00561
48.05 -0.00546
48.1 -0.00539
48.15 -0.00526
48.2 -0.00515
48.25 -0.00507
48.3 -0.00511
48.35 -0.00515
48.4 -0.0052
48.45 -0.00518
48.5 -0.00526
48.55 -0.00531
48.6 -0.00535
48.65 -0.00542
48.7 -0.00536
48.75 -0.00527
48.8 -0.00507
48.85 -0.005
48.9 -0.00496
48.95 -0.00483
49 -0.00467
49.05 -0.00448
49.1 -0.00429
49.15 -0.00414
49.2 -0.00412
49.25 -0.00408
49.3 -0.00409
49.35 -0.00417
49.4 -0.00427
49.45 -0.00429
49.5 -0.00428
49.55 -0.00413
49.6 -0.00402
49.65 -0.004
49.7 -0.00398
49.75 -0.00397
49.8 -0.00392
49.85 -0.00387
49.9 -0.00378
49.95 -0.00368
50 -0.00367
50.05 -0.00363
50.1 -0.00365
50.15 -0.00356
50.2 -0.00354
50.25 -0.00342
50.3 -0.0032
50.35 -0.00301
50.4 -0.00292
50.45 -0.00278
50.5 -0.00263
50.55 -0.00262
50.6 -0.00255
50.65 -0.00253
50.7 -0.00242
50.75 -0.00241
50.8 -0.00235
50.85 -0.0023
50.9 -0.00231
50.95 -0.00237
51 -0.00247
51.05 -0.00256
51.1 -0.00257
51.15 -0.00251
51.2 -0.00234
51.25 -0.00217
51.3 -0.00199
51.35 -0.00182
51.4 -0.00165
51.45 -0.00149
51.5 -0.00149
51.55 -0.00145
51.6 -0.00139
51.65 -0.00132
51.7 -0.00126
51.75 -0.00125
51.8 -0.00133
51.85 -0.00134
51.9 -0.00137
51.95 -0.00133
52 -0.00129
52.05 -0.00121
52.1 -0.00125
52.15 -0.00123
52.2 -0.00115
52.25 -0.00121
52.3 -0.00138
52.35 -0.00148
52.4 -0.00159
52.45 -0.00173
52.5 -0.00181
52.55 -0.00176
52.6 -0.00176
52.65 -0.0018
52.7 -0.00173
52.75 -0.00168
52.8 -0.00152
52.85 -0.00139
52.9 -0.00126
52.95 -0.00127
53 -0.00136
53.05 -0.00144
53.1 -0.0015
53.15 -0.00154
53.2 -0.00162
53.25 -0.00163
53.3 -0.00166
53.35 -0.00159
53.4 -0.00152
53.45 -0.0015
53.5 -0.00139
53.55 -0.0013
53.6 -0.0013
53.65 -0.00135
53.7 -0.00135
53.75 -0.00127
53.8 -0.00124
53.85 -0.00113
53.9 -0.00102
53.95 -0.00086
54 -0.00076
54.05 -0.00061
54.1 -0.00044
54.15 -0.00046
54.2 -0.00057
54.25 -0.0006
54.3 -0.00062
54.35 -0.00055
54.4 -0.00045
54.45 -0.00036
54.5 -0.00025
54.55 -0.00032
54.6 -0.00045
54.65 -0.00046
54.7 -0.00052
54.75 -0.0006
54.8 -0.00074
54.85 -0.0009
54.9 -0.00101
54.95 -0.00097
55 -0.00087
55.05 -0.00083
55.1 -0.0008
55.15 -0.00087
55.2 -0.00097
55.25 -0.00108
55.3 -0.00121
55.35 -0.00116
55.4 -0.00105
55.45 -0.00092
55.5 -0.0008
55.55 -0.00077
55.6 -0.00073
55.65 -0.00074
55.7 -0.00079
55.75 -0.00073
55.8 -0.00066
55.85 -0.0007
55.9 -0.00074
55.95 -0.00068
56 -0.00073
56.05 -0.00064
56.1 -0.00066
56.15 -0.00063
56.2 -0.00064
56.25 -0.00062
56.3 -0.0006
56.35 -0.00058
56.4 -0.00047
56.45 -0.00045
56.5 -0.00034
56.55 -0.00026
56.6 -0.00023
56.65 -0.00029
56.7 -0.00041
56.75 -0.00048
56.8 -0.00054
56.85 -0.00057
56.9 -0.00049
56.95 -0.00034
57 -0.00015
57.05 -0.00006
57.1 -0.00004
57.15 -0.00008
57.2 -0.0001
57.25 -0.00022
57.3 -0.00032
57.35 -0.00036
57.4 -0.00043
57.45 -0.00049
57.5 -0.0005
57.55 -0.00046
57.6 -0.00051
57.65 -0.00044
57.7 -0.00045
57.75 -0.00047
57.8 -0.00051
57.85 -0.00053
57.9 -0.00045
57.95 -0.00042
58 -0.00045
58.05 -0.00041
58.1 -0.00042
58.15 -0.00033
58.2 -0.00019
58.25 -0.00013
58.3 -0.00008
58.35 0.00005
58.4 0.00014
58.45 0.00013
58.5 0.00003
58.55 0.00002
58.6 0
58.65 -0.00002
58.7 -0.0001
58.75 -0.00007
58.8 -0.00005
58.85 -0.00013
58.9 -0.00009
58.95 0
59 -0.00002
59.05 -0.00008
59.1 -0.00017
59.15 -0.00014
59.2 -0.00023
59.25 -0.00022
59.3 -0.00025
59.35 -0.00018
59.4 -0.00021
59.45 -0.00018
59.5 -0.00007
59.55 -0.00003
59.6 -0.00007
59.65 -0.00004
59.7 0.00003
59.75 0.00007
59.8 0.00008
59.85 0.00013
59.9 0.00006
59.95 0.00007
60 0.00004
60.05 0.00003
60.1 -0.00009
60.15 -0.00018
60.2 -0.00026
60.25 -0.00028
60.3 -0.00022
60.35 -0.00024
60.4 -0.00022
60.45 -0.00015
60.5 -0.00016
60.55 -0.00018
60.6 -0.00023
60.65 -0.00024
60.7 -0.00025
60.75 -0.00019
60.8 -0.00017
60.85 -0.00018
60.9 -0.00027
60.95 -0.00024
61 -0.00019
61.05 -0.00021
61.1 -0.00025
61.15 -0.00023
61.2 -0.00029
61.25 -0.00024
61.3 -0.0003
61.35 -0.00042
61.4 -0.00055
61.45 -0.00067
61.5 -0.00061
61.55 -0.00057
61.6 -0.00042
61.65 -0.00027
61.7 -0.0001
61.75 -0
61.8 -0.00003
61.85 0
61.9 -0.00005
61.95 -0.00016
62 -0.0002
62.05 -0.00031
62.1 -0.00032
62.15 -0.00033
62.2 -0.00022
62.25 -0.00011
62.3 -0.00007
62.35 -0.00008
62.4 -0.00006
62.45 -0.00006
62.5 -0.00009
62.55 -0.00003
62.6 0.00005
62.65 0.00007
62.7 0.00001
62.75 -0.00001
62.8 -0.00005
62.85 -0.00001
62.9 0.00002
62.95 0.00001
63 -0.00009
63.05 -0.00021
63.1 -0.00035
63.15 -0.00044
63.2 -0.00047
63.25 -0.00053
63.3 -0.00045
63.35 -0.0004
63.4 -0.00027
63.45 -0.00017
63.5 -0
63.55 0.00014
63.6 0.00019
63.65 0.00011
63.7 -0
63.75 -0.00002
63.8 -0.00009
63.85 -0.0001
63.9 0
63.95 0.00011
64 0.00022
64.05 0.00022
64.1 0.00027
64.15 0.00033
64.2 0.00042
64.25 0.00053
64.3 0.00059
64.35 0.00048
64.4 0.00034
64.45 0.00022
64.5 0.00007
64.55 0.00004
64.6 -0.00006
64.65 -0.00003
64.7 0.00007
64.75 0.00013
64.8 0.00025
64.85 0.00027
64.9 0.00019
64.95 0.00005
65 0.00006
65.05 0.00012
65.1 0.00019
65.15 0.00013
65.2 0.00015
65.25 0.0002
65.3 0.00026
65.35 0.00023
65.4 0.00025
65.45 0.00024
65.5 0.0003
65.55 0.00027
65.6 0.00014
65.65 0.00002
65.7 0.00001
65.75 -0.00005
65.8 -0.00001
65.85 0.00008
65.9 0.0001
65.95 0
66 -0.00015
66.05 -0.00016
66.1 -0.00016
66.15 -0.00009
66.2 -0.00009
66.25 -0.00015
66.3 -0.00013
66.35 -0.00012
66.4 -0.00019
66.45 -0.00018
66.5 -0.00027
66.55 -0.00035
66.6 -0.00032
66.65 -0.00032
66.7 -0.00026
66.75 -0.00028
66.8 -0.00034
66.85 -0.00026
66.9 -0.00013
66.95 -0.00001
67 0.00014
67.05 0.00019
67.1 0.00014
67.15 0.00005
67.2 0.00006
67.25 -0.00004
67.3 -0.00012
67.35 -0.00007
67.4 -0.00008
67.45 -0.00005
67.5 0
67.55 0.00007
67.6 0.00015
67.65 0.00024
67.7 0.00029
67.75 0.00029
67.8 0.00032
67.85 0.00028
67.9 0.00033
67.95 0.00029
68 0.00019
68.05 0.00006
68.1 0.00002
68.15 0.00005
68.2 0.00001
68.25 -0.00011
68.3 -0.00019
68.35 -0.0002
68.4 -0.0001
68.45 -0.00005
68.5 0.00005
68.55 0.00018
68.6 0.00032
68.65 0.00039
68.7 0.0004
68.75 0.00039
68.8 0.0003
68.85 0.00026
68.9 0.00012
68.95 0.0001
69 0.00011
69.05 0.0001
69.1 0.00007
69.15 0.00007
69.2 0.00009
69.25 0.00002
69.3 -0.00007
69.35 -0.00022
69.4 -0.0003
69.45 -0.00026
69.5 -0.00017
69.55 -0.0001
69.6 -0.00003
69.65 -0.00007
69.7 -0.00019
69.75 -0.00031
69.8 -0.00036
69.85 -0.00039
69.9 -0.00041
69.95 -0.00049
70 -0.0005
70.05 -0.00038
70.1 -0.00026
70.15 -0.00026
70.2 -0.00032
70.25 -0.00035
70.3 -0.00032
70.35 -0.00019
70.4 -0.00013
70.45 -0.00005
70.5 0.00004
70.55 0.0001
70.6 0.0002
70.65 0.00018
70.7 0.00005
70.75 -0
70.8 -0.00011
70.85 -0.0001
70.9 -0.00017
70.95 -0.0002
71 -0.00015
71.05 -0.00011
71.1 0.00001
71.15 0.00018
71.2 0.00025
71.25 0.00028
71.3 0.00026
71.35 0.00031
71.4 0.00023
71.45 0.00019
71.5 0.00022
71.55 0.00026
71.6 0.00016
71.65 0.00016
71.7 0.00004
71.75 -0.00012
71.8 -0.00024
71.85 -0.0003
71.9 -0.00036
71.95 -0.0003
72 -0.00024
72.05 -0.00009
72.1 -0.00009
72.15 -0.00002
72.2 0.00006
72.25 0.00013
72.3 0.00017
72.35 0.00009
72.4 0.00005
72.45 0.00001
72.5 0.00005
72.55 -0.00002
72.6 -0.00012
72.65 -0.00008
72.7 -0.00001
72.75 0.00012
72.8 0.00018
72.85 0.00028
72.9 0.00036
72.95 0.00034
73 0.00031
73.05 0.00023
73.1 0.00025
73.15 0.00033
73.2 0.00031
73.25 0.00018
73.3 0.00001
73.35 -0.00014
73.4 -0.00024
73.45 -0.00031
73.5 -0.00025
73.55 -0.00011
73.6 -0.00003
73.65 -0.00005
73.7 -0.00003
73.75 -0.00012
73.8 -0.00013
73.85 -0.00014
73.9 -0.00008
73.95 -0.00005
74 -0.00007
74.05 -0.00003
74.1 0.00006
74.15 0.00001
74.2 0.00002
74.25 -0.00004
74.3 -0.00018
74.35 -0.00034
74.4 -0.00051
74.45 -0.00063
74.5 -0.00059
74.55 -0.0005
74.6 -0.00034
74.65 -0.00032
74.7 -0.00028
74.75 -0.00021
74.8 -0.00017
74.85 -0.00008
74.9 -0.00005
74.95 -0.00007
75 -0.00005
75.05 -0.00008
75.1 -0.00018
75.15 -0.00031
75.2 -0.00033
75.25 -0.00022
75.3 -0.00018
75.35 -0.00021
75.4 -0.00025
75.45 -0.00016
75.5 -0.00002
75.55 0.00006
75.6 0.00018
75.65 0.00014
75.7 0.00019
75.75 0.0002
75.8 0.0001
75.85 -0.00003
75.9 -0.00015
75.95 -0.00029
76 -0.00034
76.05 -0.00031
76.1 -0.00022
76.15 -0.00023
76.2 -0.00017
76.25 -0.00017
76.3 -0.0001
76.35 -0.00014
76.4 -0.00018
76.45 -0.00017
76.5 -0.00009
76.55 0.00001
76.6 0.00001
76.65 -0.00003
76.7 -0
76.75 0.00004
76.8 -0.00002
76.85 -0.00006
76.9 -0.00015
76.95 -0.00028
77 -0.00028
77.05 -0.0003
77.1 -0.00035
77.15 -0.00039
77.2 -0.00043
77.25 -0.00041
77.3 -0.00046
77.35 -0.00049
77.4 -0.00053
77.45 -0.00042
77.5 -0.00024
77.55 -0.00012
77.6 0.00003
77.65 0.00006
77.7 0.00012
77.75 0.00013
77.8 0.00012
77.85 0.00016
77.9 0.00021
77.95 0.00031
78 0.00026
78.05 0.00026
78.1 0.00015
78.15 0.00017
78.2 0.00024
78.25 0.00026
78.3 0.00019
78.35 0.00005
78.4 0.00004
78.45 0.00008
78.5 0.00012
78.55 0.00022
78.6 0.00025
78.65 0.00026
78.7 0.00025
78.75 0.00032
78.8 0.00027
78.85 0.00018
78.9 0.00013
78.95 0.00013
79 0.00016
79.05 0.00013
79.1 0.00019
79.15 0.00028
79.2 0.00041
79.25 0.00039
79.3 0.00038
79.35 0.00034
79.4 0.00018
79.45 0.00008
79.5 -0.00002
79.55 -0.00016
79.6 -0.00027
79.65 -0.0004
79.7 -0.00052
79.75 -0.00062
79.8 -0.00068
79.85 -0.00076
79.9 -0.00066
79.95 -0.0006
80 -0.00045
80.05 -0.00033
80.1 -0.00027
80.15 -0.00027
80.2 -0.0002
80.25 -0.00003
80.3 0.00005
80.35 0.00004
80.4 0.00003
80.45 -0.00003
80.5 0.00002
80.55 -0.00002
80.6 -0.00011
80.65 -0.0002
80.7 -0.00026
80.75 -0.00034
80.8 -0.00025
80.85 -0.00019
80.9 -0.00015
80.95 -0.00013
81 -0.00014
81.05 -0.00006
81.1 -0.00002
81.15 -0.00003
81.2 0.00003
81.25 0.00005
81.3 -0
81.35 -0.00004
81.4 0.00002
81.45 -0.00002
81.5 -0.00001
81.55 -0.00008
81.6 -0.00009
81.65 -0
81.7 0.00001
81.75 0.00004
81.8 0.00001
81.85 -0.00006
81.9 -0.00017
81.95 -0.00027
82 -0.00024
82.05 -0.00023
82.1 -0.00011
82.15 -0.00004
82.2 0.00002
82.25 0.00008
82.3 0.00015
82.35 0.00021
82.4 0.00027
82.45 0.00032
82.5 0.00042
82.55 0.00044
82.6 0.00042
82.65 0.00041
82.7 0.00041
82.75 0.00036
82.8 0.00022
82.85 0.00015
82.9 0.00002
82.95 -0.00011
83 -0.0001
83.05 -0.00013
83.1 -0.00019
83.15 -0.00024
83.2 -0.00026
83.25 -0.00026
83.3 -0.00029
83.35 -0.00029
83.4 -0.00035
83.45 -0.00026
83.5 -0.00019
83.55 -0.00015
83.6 -0.00011
83.65 -0.00006
83.7 0.00003
83.75 0.00012
83.8 0.00021
83.85 0.0003
83.9 0.00036
83.95 0.00047
84 0.00045
84.05 0.00046
84.1 0.00041
84.15 0.00035
84.2 0.00021
84.25 0.00001
84.3 -0.00012
84.35 -0.00014
84.4 -0.00009
84.45 0.00002
84.5 0.00017
84.55 0.00023
84.6 0.00025
84.65 0.00015
84.7 0.00015
84.75 0.00007
84.8 -0.00003
84.85 -0.00009
84.9 -0.00006
84.95 -0.00006
85 0.00003
85.05 0.00001
85.1 0.00001
85.15 0.00007
85.2 0.00007
85.25 0.00015
85.3 0.0002
85.35 0.00016
85.4 0.00006
85.45 -0.00003
85.5 -0.00014
85.55 -0.00028
85.6 -0.00027
85.65 -0.00019
85.7 -0.00007
85.75 -0.00001
85.8 -0.00004
85.85 -0.00014
85.9 -0.00022
85.95 -0.00025
86 -0.00033
86.05 -0.00029
86.1 -0.00025
86.15 -0.00028
86.2 -0.00035
86.25 -0.00045
86.3 -0.00051
86.35 -0.0006
86.4 -0.00063
86.45 -0.00068
86.5 -0.0006
86.55 -0.0004
86.6 -0.00017
86.65 0
86.7 0.00009
86.75 0.00006
86.8 0.00002
86.85 -0.00002
86.9 -0.00008
86.95 -0.00011
87 -0.00004
87.05 -0.00001
87.1 0.00007
87.15 0.0001
87.2 0.00009
87.25 0.00018
87.3 0.00024
87.35 0.0003
87.4 0.00035
87.45 0.00035
87.5 0.00028
87.55 0.00027
87.6 0.00015
87.65 0.00003
87.7 0.00003
87.75 0.00007
87.8 0.00019
87.85 0.00021
87.9 0.00014
87.95 0.00013
88 0.00014
88.05 0.00016
88.1 0.0002
88.15 0.00026
88.2 0.00023
88.25 0.00026
88.3 0.00016
88.35 0.00011
88.4 0.00015
88.45 0.00021
88.5 0.00033
88.55 0.00038
88.6 0.00039
88.65 0.00027
88.7 0.00027
88.75 0.00018
88.8 0.00013
88.85 0.00014
88.9 0.0002
88.95 0.00013
89 0.00001
89.05 0
89.1 -0.00001
89.15 0.00001
89.2 0.00004
89.25 0.00015
89.3 0.00019
89.35 0.00027
89.4 0.00021
89.45 0.00013
89.5 0.00005
89.55 0.00005
89.6 -0.00003
89.65 -0.00005
89.7 -0.00009
89.75 -0.00007
89.8 -0.00007
89.85 -0.00006
89.9 0
89.95 -0.00005
90 -0.00005
90.05 0.00002
90.1 -0
90.15 -0.00003
90.2 -0.00005
90.25 -0.00007
90.3 0.00001
90.35 0.00003
90.4 -0.00002
90.45 -0
90.5 -0.00001
90.55 0.00003
90.6 -0.00005
90.65 -0.00009
90.7 -0.00012
90.75 -0.00013
90.8 -0.00012
90.85 -0.00019
90.9 -0.00021
90.95 -0.00013
91 -0.00014
91.05 -0.00011
91.1 -0.00004
91.15 0.00004
91.2 0.00002
91.25 0.00009
91.3 0.00015
91.35 0.00007
91.4 0.00007
91.45 0.00006
91.5 0.00014
91.55 0.00022
91.6 0.00031
91.65 0.00028
91.7 0.00023
91.75 0.00023
91.8 0.00021
91.85 0.00016
91.9 0.00011
91.95 0.00006
92 0.00004
92.05 -0.00007
92.1 -0.00014
92.15 -0.00025
92.2 -0.00035
92.25 -0.00037
92.3 -0.00026
92.35 -0.00017
92.4 -0.00011
92.45 -0.0001
92.5 -0.00015
92.55 -0.0001
92.6 -0.00016
92.65 -0.00026
92.7 -0.00027
92.75 -0.00036
92.8 -0.0004
92.85 -0.00044
92.9 -0.0004
92.95 -0.0004
93 -0.00029
93.05 -0.00015
93.1 -0.00012
93.15 -0.0001
93.2 -0.0001
93.25 -0.00014
93.3 -0.00011
93.35 -0.00017
93.4 -0.00016
93.45 -0.00004
93.5 -0.00005
93.55 -0
93.6 0.00008
93.65 0.00018
93.7 0.00033
93.75 0.00049
93.8 0.00046
93.85 0.00038
93.9 0.00026
93.95 0.00021
94 0.0001
94.05 0.00003
94.1 -0.00009
94.15 -0.00011
94.2 -0.00013
94.25 -0.00016
94.3 -0.00025
94.35 -0.00038
94.4 -0.00045
94.45 -0.00046
94.5 -0.00049
94.55 -0.00037
94.6 -0.00023
94.65 -0.00004
94.7 0.00017
94.75 0.00023
94.8 0.00024
94.85 0.00017
94.9 0.00017
94.95 0.00016
95 0.00009
95.05 0.00001
95.1 0.00005
95.15 0.00011
95.2 0.00017
95.25 0.00023
95.3 0.0002
95.35 0.00026
95.4 0.00035
95.45 0.00033
95.5 0.00027
95.55 0.00012
95.6 0.00011
95.65 0.00008
95.7 -0
95.75 -0.00009
95.8 -0.00011
95.85 -0.00017
95.9 -0.00019
95.95 -0.00011
96 0.00004
96.05 0.0002
96.1 0.00023
96.15 0.00033
96.2 0.00034
96.25 0.00038
96.3 0.00034
96.35 0.00037
96.4 0.00032
96.45 0.00021
96.5 0.00014
96.55 0.00008
96.6 0.00008
96.65 0.00009
96.7 -0.00002
96.75 -0.00009
96.8 -0.00011
96.85 -0.00012
96.9 -0.0001
96.95 0.00001
97 0.00013
97.05 0.00019
97.1 0.00015
97.15 0.0001
97.2 0.00005
97.25 0.00005
97.3 -0.00005
97.35 -0.00013
97.4 -0.00022
97.45 -0.00036
97.5 -0.00042
97.55 -0.00039
97.6 -0.00037
97.65 -0.00037
97.7 -0.00026
97.75 -0.00012
97.8 -0.00001
97.85 0.0001
97.9 0.00013
97.95 0.00014
98 0.00011
98.05 0.00013
98.1 0.00006
98.15 0.00007
98.2 0.00007
98.25 0.00012
98.3 0.00015
98.35 0.00022
98.4 0.0003
98.45 0.00042
98.5 0.00042
98.55 0.00048
98.6 0.0004
98.65 0.00029
98.7 0.00011
98.75 0.00007
98.8 0.00013
98.85 0.00019
98.9 0.00023
98.95 0.00018
99 0.0001
99.05 0.00009
99.1 -0
99.15 -0.00002
99.2 -0.00003
99.25 -0.00009
99.3 -0.00012
99.35 -0.00018
99.4 -0.00022
99.45 -0.00014
99.5 -0.00004
99.55 -0.00001
99.6 0.00007
99.65 0.00013
99.7 0.00005
99.75 -0.0001
99.8 -0.00027
99.85 -0.00029
99.9 -0.00033
99.95 -0.00027
