0 0
0.05 0.0015
0.1 0.00348
0.15 0.00598
0.2 0.00859
0.25 0.0096
0.3 0.01031
0.35 0.00993
0.4 0.0092
0.45 0.00914
0.5 0.0091
0.55 0.00984
0.6 0.01068
0.65 0.01055
0.7 0.00985
0.75 0.00966
0.8 0.01004
0.85 0.01071
0.9 0.01083
0.95 0.01025
1 0.00984
1.05 0.00984
1.1 0.00955
1.15 0.00993
1.2 0.0103
1.25 0.00948
1.3 0.00838
1.35 0.0068
1.4 0.00647
1.45 0.00577
1.5 0.00457
1.55 0.00361
1.6 0.00384
1.65 0.00353
1.7 0.00352
1.75 0.00379
1.8 0.00378
1.85 0.00445
1.9 0.00441
1.95 0.00466
2 0.00466
2.05 0.00538
2.1 0.00646
2.15 0.00658
2.2 0.00722
2.25 0.00816
2.3 0.00837
2.35 0.00753
2.4 0.00636
2.45 0.00628
2.5 0.00565
2.55 0.00555
2.6 0.00559
2.65 0.00574
2.7 0.00631
2.75 0.00648
2.8 0.00646
2.85 0.00636
2.9 0.00605
2.95 0.00582
3 0.00509
3.05 0.00484
3.1 0.00518
3.15 0.0057
3.2 0.00559
3.25 0.00532
3.3 0.00507
3.35 0.00463
3.4 0.00456
3.45 0.0047
3.5 0.00448
3.55 0.00371
3.6 0.00296
3.65 0.00219
3.7 0.00093
3.75 0.00083
3.8 0.00015
3.85 0.00049
3.9 0.00039
3.95 -0.0003
4 -0.00015
4.05 0.00012
4.1 0.0009
4.15 0.00231
4.2 0.00324
4.25 0.0042
4.3 0.00406
4.35 0.00431
4.4 0.00384
4.45 0.00276
4.5 0.00228
4.55 0.00172
4.6 0.00137
4.65 0.00054
4.7 -0.00056
4.75 -0.00137
4.8 -0.00154
4.85 -0.00095
4.9 -0.00093
4.95 -0.0006
5 -0.00049
5.05 -0.00096
5.1 -0.00107
5.15 -0.00065
5.2 0.00041
5.25 0.00159
5.3 0.00212
5.35 0.00286
5.4 0.00393
5.45 0.00508
5.5 0.00479
5.55 0.00429
5.6 0.00346
5.65 0.00324
5.7 0.0024
5.75 0.00176
5.8 0.00158
5.85 0.00114
5.9 0.00018
5.95 -0.00078
6 -0.00043
6.05 0.00021
6.1 0.0013
6.15 0.00233
6.2 0.00286
6.25 0.00387
6.3 0.00481
6.35 0.00476
6.4 0.00498
6.45 0.00446
6.5 0.00318
6.55 0.00194
6.6 0.00123
6.65 0.00107
6.7 0.00127
6.75 0.00121
6.8 0.00092
6.85 0.00014
6.9 0.00028
6.95 0.00107
7 0.00121
7.05 0.00051
7.1 0.00083
7.15 0.00028
7.2 0.00078
7.25 0.00102
7.3 0.00047
7.35 0.00002
7.4 -0.00043
7.45 -0.00057
7.5 -0.00021
7.55 0.00011
7.6 -0.00001
7.65 0.00071
7.7 0.00124
7.75 0.00163
7.8 0.00162
7.85 0.00146
7.9 0.0005
7.95 0.00046
8 0.00021
8.05 0.00069
8.1 0.0017
8.15 0.00289
8.2 0.00275
8.25 0.00318
8.3 0.00262
8.35 0.00268
8.4 0.00242
8.45 0.00194
8.5 0.00109
8.55 -0.0003
8.6 -0.00041
8.65 -0.00108
8.7 -0.00197
8.75 -0.00162
8.8 -0.0013
8.85 -0.00136
8.9 -0.00181
8.95 -0.0022
9 -0.00265
9.05 -0.00302
9.1 -0.00286
9.15 -0.00274
9.2 -0.00259
9.25 -0.00258
9.3 -0.0022
9.35 -0.00117
9.4 -0.00068
9.45 -0.00027
9.5 0.00055
9.55 0.0005
9.6 0.00064
9.65 0.00004
9.7 0.00028
9.75 -0.0002
9.8 -0.00115
9.85 -0.00139
9.9 -0.00159
9.95 -0.00193
10 -0.00208
10.05 -0.00165
10.1 -0.00125
10.15 -0.00017
10.2 0.0008
10.25 0.00162
10.3 0.00166
10.35 0.00216
10.4 0.00258
10.45 0.00271
10.5 0.00298
10.55 0.00368
10.6 0.00399
10.65 0.0044
10.7 0.00513
10.75 0.0047
10.8 0.00453
10.85 0.00457
10.9 0.00348
10.95 0.00202
11 0.00156
11.05 0.00112
11.1 0.00013
11.15 -0.00099
11.2 -0.00201
11.25 -0.00234
11.3 -0.00307
11.35 -0.00346
11.4 -0.00305
11.45 -0.00233
11.5 -0.00177
11.55 -0.00154
11.6 -0.00098
11.65 -0.00115
11.7 -0.00162
11.75 -0.00157
11.8 -0.00115
11.85 -0.00144
11.9 -0.00126
11.95 -0.00146
12 -0.00205
12.05 -0.00187
12.1 -0.00103
12.15 -0.00036
12.2 0.00097
12.25 0.00212
12.3 0.00323
12.35 0.0037
12.4 0.00313
12.45 0.00311
12.5 0.0034
12.55 0.00271
12.6 0.00186
12.65 0.00059
12.7 0.00035
12.75 0.00051
12.8 0.0006
12.85 0.00014
12.9 -0.00011
12.95 -0.00036
13 -0.00067
13.05 -0.001
13.1 -0.00165
13.15 -0.00112
13.2 -0.00125
13.25 -0.00185
13.3 -0.00281
13.35 -0.00351
13.4 -0.00391
13.45 -0.00396
13.5 -0.00296
13.55 -0.00283
13.6 -0.00167
13.65 -0.00095
13.7 -0.00038
13.75 -0.00047
13.8 -0.00043
13.85 -0.0007
13.9 -0.0011
13.95 -0.00056
14 -0.00032
14.05 0.00007
14.1 0.00115
14.15 0.00108
14.2 0.0018
14.25 0.00217
14.3 0.00294
14.35 0.00264
14.4 0.00207
14.45 0.00151
14.5 0.00148
14.55 0.00099
14.6 0.00018
14.65 0.00029
14.7 0.00085
14.75 0.00077
14.8 -0
14.85 -0.00049
14.9 -0.00075
14.95 -0.00016
15 -0.00046
15.05 -0.00042
15.1 0.00033
15.15 0.00035
15.2 0.00094
15.25 0.00081
15.3 0.00027
15.35 0.00024
15.4 0.00041
15.45 0.00123
15.5 0.00123
15.55 0.00179
15.6 0.00282
15.65 0.00265
15.7 0.00241
15.75 0.00137
15.8 0.00022
15.85 -0.00078
15.9 -0.00097
15.95 -0.00126
16 -0.00152
16.05 -0.00181
16.1 -0.00118
16.15 -0.00051
16.2 0.00081
16.25 0.00195
16.3 0.00261
16.35 0.00301
16.4 0.00376
16.45 0.00316
16.5 0.00245
16.55 0.00168
16.6 0.00075
16.65 0.00059
16.7 0.00064
16.75 -0.00011
16.8 -0.00115
16.85 -0.00179
16.9 -0.00157
16.95 -0.00157
17 -0.00096
17.05 -0.0011
17.1 -0.00128
17.15 -0.001
17.2 -0.00031
17.25 0.00009
17.3 0.00076
17.35 0.00097
17.4 0.00178
17.45 0.00242
17.5 0.00344
17.55 0.00462
17.6 0.00498
17.65 0.00424
17.7 0.00293
17.75 0.00156
17.8 -0.00011
17.85 -0.00095
17.9 -0.00085
17.95 -0.0011
18 -0.00083
18.05 -0.0008
18.1 0.00006
18.15 0.00014
18.2 -0.00049
18.25 -0.00107
18.3 -0.00101
18.35 -0.00138
18.4 -0.00117
18.45 -0.00105
18.5 -0.00167
18.55 -0.00252
18.6 -0.0033
18.65 -0.00396
18.7 -0.00468
18.75 -0.0051
18.8 -0.00499
18.85 -0.00521
18.9 -0.00543
18.95 -0.00482
19 -0.00319
19.05 -0.00169
19.1 -0.00027
19.15 0.00096
19.2 0.00141
19.25 0.00088
19.3 0.00072
19.35 0.00056
19.4 0.00123
19.45 0.00078
19.5 0.00046
19.55 -0.00037
19.6 -0.0011
19.65 -0.0006
19.7 -0.00085
19.75 -0.00056
19.8 -0.00021
19.85 0.00007
19.9 0.00103
19.95 0.00139
20 0.00149
20.05 0.00152
20.1 0.00121
20.15 0.00066
20.2 0.00069
20.25 0.00129
20.3 0.00127
20.35 0.00178
20.4 0.00136
20.45 0.00099
20.5 0.00044
20.55 0.00088
20.6 0.00143
20.65 0.00165
20.7 0.00102
20.75 0.00114
20.8 0.0011
20.85 0.00041
20.9 0.00009
20.95 -0.00075
21 -0.00104
21.05 -0.0006
21.1 -0.00069
21.15 -0.00067
21.2 -0.00067
21.25 -0.00058
21.3 -0.00114
21.35 -0.00204
21.4 -0.00183
21.45 -0.00111
21.5 -0.00115
21.55 -0.00181
21.6 -0.00183
21.65 -0.00215
21.7 -0.00281
21.75 -0.00222
21.8 -0.00086
21.85 -0.00001
21.9 0.00057
21.95 0.00064
22 0.00033
22.05 -0.00016
22.1 -0.00021
22.15 -0.00009
22.2 -0.00015
22.25 -0.00066
22.3 -0.00081
22.35 -0.00073
22.4 -0.00097
22.45 -0.00092
22.5 -0.00121
22.55 -0.00079
22.6 -0.00062
22.65 0.00009
22.7 0.00061
22.75 0.00105
22.8 0.0011
22.85 0.00068
22.9 0.00095
22.95 0.00145
23 0.00147
23.05 0.00081
23.1 -0.00021
23.15 -0.00079
23.2 -0.00044
23.25 -0.00034
23.3 -0.00054
23.35 0.00004
23.4 0.00096
23.45 0.00203
23.5 0.00229
23.55 0.00174
23.6 0.00152
23.65 0.00101
23.7 0.00006
23.75 -0.00074
23.8 -0.00181
23.85 -0.00208
23.9 -0.0014
23.95 -0.00048
24 0.00037
24.05 0.00043
24.1 0.00089
24.15 0.00033
24.2 -0.00058
24.25 -0.00052
24.3 -0.00033
24.35 0.00021
24.4 0.00041
24.45 -0.00017
24.5 -0.00035
24.55 -0.00082
24.6 -0.00176
24.65 -0.0025
24.7 -0.00293
24.75 -0.0034
24.8 -0.00269
24.85 -0.00259
24.9 -0.00195
24.95 -0.00212
25 -0.00249
25.05 -0.00238
25.1 -0.00267
25.15 -0.00243
25.2 -0.00141
25.25 0.0002
25.3 0.00085
25.35 0.00078
25.4 0.00086
25.45 0.00136
25.5 0.00175
25.55 0.00167
25.6 0.00113
25.65 0.00032
25.7 0.00065
25.75 0.00031
25.8 0.00038
25.85 0.00054
25.9 0.0007
25.95 0.00043
26 -0.00029
26.05 -0.00088
26.1 -0.00053
26.15 -0.00036
26.2 -0.00099
26.25 -0.00052
26.3 -0.0007
26.35 -0.00113
26.4 -0.00157
26.45 -0.00177
26.5 -0.00097
26.55 0.00005
26.6 0.00149
26.65 0.00299
26.7 0.00433
26.75 0.0054
26.8 0.00607
26.85 0.00674
26.9 0.00728
26.95 0.00783
27 0.00758
27.05 0.00684
27.1 0.0064
27.15 0.00572
27.2 0.00414
27.25 0.00242
27.3 0.00084
27.35 -0.00029
27.4 -0.00038
27.45 -0.00076
27.5 -0.0014
27.55 -0.00166
27.6 -0.00185
27.65 -0.00199
27.7 -0.00175
27.75 -0.00091
27.8 -0.00038
27.85 0.00004
27.9 0.00069
27.95 0.00037
28 0.00014
28.05 -0.00028
28.1 -0.00108
28.15 -0.0016
28.2 -0.00259
28.25 -0.00298
28.3 -0.00337
28.35 -0.00292
28.4 -0.00232
28.45 -0.00229
28.5 -0.00185
28.55 -0.00211
28.6 -0.00252
28.65 -0.00312
28.7 -0.00357
28.75 -0.0042
28.8 -0.00346
28.85 -0.0028
28.9 -0.00158
28.95 -0.00078
29 -0.00084
29.05 -0.0012
29.1 -0.00089
29.15 0.00015
29.2 0.00011
29.25 0.00076
29.3 0.00142
29.35 0.00132
29.4 0.00179
29.45 0.00172
29.5 0.00137
29.55 0.00155
29.6 0.001
29.65 0.00044
29.7 0.00042
29.75 0.00082
29.8 0.00184
29.85 0.00183
29.9 0.00135
29.95 0.00139
30 0.00147
30.05 0.00069
30.1 0.00022
30.15 -0.00041
30.2 -0.00129
30.25 -0.00101
30.3 -0.00101
30.35 -0.00046
30.4 -0.00024
30.45 -0.00085
30.5 -0.00108
30.55 -0.00166
30.6 -0.00131
30.65 -0.00057
30.7 -0.00004
30.75 0.00044
30.8 0.00046
30.85 0.00079
30.9 0.00089
30.95 0.00119
31 0.00098
31.05 0.00084
31.1 0.00083
31.15 0.00007
31.2 -0.00026
31.25 -0.00102
31.3 -0.00216
31.35 -0.0027
31.4 -0.00249
31.45 -0.00167
31.5 -0.00062
31.55 0.00063
31.6 0.00082
31.65 0.00139
31.7 0.00183
31.75 0.00235
31.8 0.00193
31.85 0.00208
31.9 0.00195
31.95 0.00188
32 0.00246
32.05 0.00183
32.1 0.00083
32.15 0.00022
32.2 -0.00063
32.25 -0.00189
32.3 -0.0024
32.35 -0.00193
32.4 -0.00178
32.45 -0.00234
32.5 -0.0018
32.55 -0.00159
32.6 -0.00198
32.65 -0.0017
32.7 -0.00093
32.75 -0.00117
32.8 -0.00096
32.85 -0.00149
32.9 -0.00233
32.95 -0.00314
33 -0.00393
33.05 -0.00386
33.1 -0.00421
33.15 -0.00354
33.2 -0.00277
33.25 -0.00266
33.3 -0.00275
33.35 -0.00329
33.4 -0.0033
33.45 -0.00257
33.5 -0.0022
33.55 -0.00106
33.6 0.00001
33.65 0.00066
33.7 0.00046
33.75 -0.00037
33.8 -0.00068
33.85 -0.00133
33.9 -0.00205
33.95 -0.00213
34 -0.00182
34.05 -0.00128
34.1 -0.00053
34.15 -0.00033
34.2 0.0002
34.25 0.00073
34.3 0.00041
34.35 0.00057
34.4 0.00113
34.45 0.00161
34.5 0.0023
34.55 0.00315
34.6 0.00418
34.65 0.0053
34.7 0.00589
34.75 0.00526
34.8 0.00419
34.85 0.00256
34.9 0.00068
34.95 0.00028
35 0.00016
35.05 0.00043
35.1 -0.00023
35.15 -0.00041
35.2 -0.00077
35.25 -0.00155
35.3 -0.00248
35.35 -0.00349
35.4 -0.00435
35.45 -0.0037
35.5 -0.00284
35.55 -0.00276
35.6 -0.0028
35.65 -0.00299
35.7 -0.00304
35.75 -0.00255
35.8 -0.00146
35.85 0.00016
35.9 0.00133
35.95 0.00185
36 0.00161
36.05 0.00166
36.1 0.00174
36.15 0.00202
36.2 0.00184
36.25 0.00196
36.3 0.00157
36.35 0.00162
36.4 0.00125
36.45 0.00113
36.5 0.00044
36.55 -0.00045
36.6 -0.0008
36.65 -0.00084
36.7 -0.0012
36.75 -0.00192
36.8 -0.00298
36.85 -0.00315
36.9 -0.00342
36.95 -0.00299
37 -0.00255
37.05 -0.00161
37.1 -0.00034
37.15 0.00073
37.2 0.00115
37.25 0.00182
37.3 0.00235
37.35 0.00337
37.4 0.00443
37.45 0.00539
37.5 0.00527
37.55 0.00524
37.6 0.00506
37.65 0.00404
37.7 0.00345
37.75 0.00305
37.8 0.00244
37.85 0.00187
37.9 0.00147
37.95 0.00159
38 0.0023
38.05 0.00239
38.1 0.00143
38.15 0.00018
38.2 -0.00055
38.25 -0.00065
38.3 -0.00011
38.35 0.00105
38.4 0.00214
38.45 0.00287
38.5 0.00374
38.55 0.00325
38.6 0.00197
38.65 0.00109
38.7 0.00004
38.75 -0.00088
38.8 -0.00069
38.85 0.00022
38.9 0.00108
38.95 0.00076
39 0.00067
39.05 -0.00001
39.1 -0.00085
39.15 -0.00147
39.2 -0.00104
39.25 -0.00002
39.3 0.0004
39.35 0.00067
39.4 0.001
39.45 0.0003
39.5 -0.00101
39.55 -0.00177
39.6 -0.00165
39.65 -0.00225
39.7 -0.00256
39.75 -0.00265
39.8 -0.00234
39.85 -0.00232
39.9 -0.00256
39.95 -0.00285
40 -0.00317
40.05 -0.0034
40.1 -0.00361
40.15 -0.00405
40.2 -0.00321
40.25 -0.00238
40.3 -0.00218
40.35 -0.00244
40.4 -0.00284
40.45 -0.00227
40.5 -0.00116
40.55 -0.00051
40.6 0.00068
40.65 0.00077
40.7 0.00157
40.75 0.00224
40.8 0.00196
40.85 0.00182
40.9 0.0009
40.95 0.00092
41 0.00043
41.05 -0.00008
41.1 -0.001
41.15 -0.00159
41.2 -0.00166
41.25 -0.00129
41.3 -0.00142
41.35 -0.00186
41.4 -0.00206
41.45 -0.00204
41.5 -0.00126
41.55 -0.00002
41.6 0.00057
41.65 0.00028
41.7 -0.00054
41.75 -0.0013
41.8 -0.00145
41.85 -0.00136
41.9 -0.00162
41.95 -0.00124
42 -0.00121
42.05 -0.00144
42.1 -0.0013
42.15 -0.00074
42.2 -0.00106
42.25 -0.00133
42.3 -0.00117
42.35 -0.00076
42.4 0.00037
42.45 0.00088
42.5 0.00127
42.55 0.00202
42.6 0.00257
42.65 0.002
42.7 0.00204
42.75 0.00182
42.8 0.00089
42.85 -0.00007
42.9 -0.00129
42.95 -0.00116
43 -0.00148
43.05 -0.00073
43.1 0.00026
43.15 0.00026
43.2 -0.00049
43.25 -0.00059
43.3 -0.00125
43.35 -0.00162
43.4 -0.00172
43.45 -0.00078
43.5 0.0002
43.55 0.00053
43.6 0.00066
43.65 0.00113
43.7 0.00148
43.75 0.00098
43.8 0.00122
43.85 0.00089
43.9 0.00054
43.95 0.00002
44 -0.00107
44.05 -0.00206
44.1 -0.00212
44.15 -0.00222
44.2 -0.00271
44.25 -0.00236
44.3 -0.00256
44.35 -0.00205
44.4 -0.00101
44.45 -0.00069
44.5 -0.00065
44.55 -0.00026
44.6 -0.00031
44.65 -0.00105
44.7 -0.00097
44.75 -0.00028
44.8 0.00048
44.85 0.00047
44.9 0.0006
44.95 0.00068
45 0.00023
45.05 -0.00032
45.1 -0.00024
45.15 -0.00053
45.2 -0.0003
45.25 -0.00015
45.3 -0.00013
45.35 0.00059
45.4 0.00148
45.45 0.00127
45.5 0.00082
45.55 0.00068
45.6 0.00123
45.65 0.00095
45.7 0.00129
45.75 0.00159
45.8 0.00224
45.85 0.00288
45.9 0.00376
45.95 0.00366
46 0.00265
46.05 0.00194
46.1 0.00212
46.15 0.00261
46.2 0.00327
46.25 0.00311
46.3 0.00275
46.35 0.00193
46.4 0.00082
46.45 0.00056
46.5 0.00025
46.55 0.00019
46.6 -0.00035
46.65 -0.00009
46.7 0.00068
46.75 0.00192
46.8 0.00238
46.85 0.00255
46.9 0.00305
46.95 0.00266
47 0.00176
47.05 0.00023
47.1 -0.00056
47.15 -0.00103
47.2 -0.00202
47.25 -0.00177
47.3 -0.0021
47.35 -0.00171
47.4 -0.00056
47.45 0.00013
47.5 0.00024
47.55 0.00004
47.6 0.0001
47.65 -0
47.7 0.00044
47.75 0.00007
47.8 -0.0008
47.85 -0.00145
47.9 -0.00253
47.95 -0.00236
48 -0.00245
48.05 -0.00248
48.1 -0.00281
48.15 -0.00296
48.2 -0.00271
48.25 -0.00155
48.3 -0.00012
48.35 0.0006
48.4 0.00077
48.45 0.00124
48.5 0.00116
48.55 0.00096
48.6 0.00037
48.65 0.00073
48.7 0.00043
48.75 0.00025
48.8 -0.00043
48.85 -0.00046
48.9 -0.00049
48.95 0.0002
49 0.0001
49.05 -0.00055
49.1 -0.00021
49.15 -0.00008
49.2 0.0006
49.25 0.00153
49.3 0.00195
49.35 0.00145
49.4 0.00077
49.45 -0.00005
49.5 -0.00068
49.55 -0.00082
49.6 -0.00083
49.65 -0.00072
49.7 -0.00097
49.75 -0.00081
49.8 0.00009
49.85 0.0007
49.9 0.00109
49.95 0.00207
50 0.00325
50.05 0.00303
50.1 0.00253
50.15 0.00173
50.2 0.00107
50.25 0.00093
50.3 0.00134
50.35 0.00209
50.4 0.00264
50.45 0.00288
50.5 0.00251
50.55 0.00144
50.6 0.00032
50.65 0.00027
50.7 0.00019
50.75 -0.00035
50.8 0.00009
50.85 -0
50.9 0.00018
50.95 -0.00016
51 -0.00022
51.05 -0.00062
51.1 -0.00031
51.15 -0.00092
51.2 -0.00172
51.25 -0.00174
51.3 -0.00112
51.35 0.00014
51.4 0.00017
51.45 0.00022
51.5 -0.00008
51.55 -0.00104
51.6 -0.0013
51.65 -0.00059
51.7 -0.00082
51.75 -0.00042
51.8 -0.00088
51.85 -0.00102
51.9 -0.00045
51.95 0.0007
52 0.00136
52.05 0.00144
52.1 0.00085
52.15 -0.00021
52.2 -0.00114
52.25 -0.00226
52.3 -0.00212
52.35 -0.00253
52.4 -0.00178
52.45 -0.00116
52.5 -0.00032
52.55 -0.00046
52.6 -0.00099
52.65 -0.00045
52.7 0.00011
52.75 0.00013
52.8 0.00028
52.85 0.0011
52.9 0.00136
52.95 0.00222
53 0.00213
53.05 0.00267
53.1 0.0029
53.15 0.0023
53.2 0.00231
53.25 0.00217
53.3 0.00191
53.35 0.00191
53.4 0.00144
53.45 0.0015
53.5 0.00186
53.55 0.00148
53.6 0.00065
53.65 0.00061
53.7 0.00103
53.75 0.00159
53.8 0.00192
53.85 0.00225
53.9 0.00175
53.95 0.00143
54 0.00031
54.05 -0.00104
54.1 -0.00191
54.15 -0.00177
54.2 -0.00212
54.25 -0.00188
54.3 -0.00099
54.35 0.00027
54.4 0.00077
54.45 0.00072
54.5 0.00019
54.55 -0.00006
54.6 -0.00083
54.65 -0.00053
54.7 -0.0004
54.75 0.00031
54.8 0.00098
54.85 0.00072
54.9 0.00111
54.95 0.00057
55 -0.00046
55.05 -0.00045
55.1 -0.00011
55.15 -0.00044
55.2 -0.00096
55.25 -0.00204
55.3 -0.00314
55.35 -0.00435
55.4 -0.00534
55.45 -0.00631
55.5 -0.00698
55.55 -0.00695
55.6 -0.00702
55.65 -0.00692
55.7 -0.00668
55.75 -0.00645
55.8 -0.00492
55.85 -0.00427
55.9 -0.00406
55.95 -0.00278
56 -0.00121
56.05 -0.00057
56.1 0.00006
56.15 0.00046
56.2 -0.00008
56.25 -0.00086
56.3 -0.00053
56.35 0.00015
56.4 0.0003
56.45 -0.00003
56.5 0.00042
56.55 0.00068
56.6 0.00025
56.65 0.00008
56.7 -0.0002
56.75 -0.00005
56.8 0.00021
56.85 0.00088
56.9 0.00102
56.95 0.00091
57 0.00103
57.05 0.0003
57.1 0.00027
57.15 -0
57.2 0.0002
57.25 0.00006
57.3 -0.00039
57.35 -0.00117
57.4 -0.00132
57.45 -0.00097
57.5 -0.00088
57.55 -0.00095
57.6 -0.0004
57.65 -0.00044
57.7 -0.00096
57.75 -0.00186
57.8 -0.00176
57.85 -0.0014
57.9 -0.00017
57.95 0.00036
58 0.00065
58.05 0.00042
58.1 0.00031
58.15 0.00022
58.2 0.00009
58.25 -0.00049
58.3 -0.00008
58.35 -0.00006
58.4 -0.00067
58.45 -0.0005
58.5 0.00021
58.55 -0.00013
58.6 -0.00105
58.65 -0.00183
58.7 -0.00261
58.75 -0.00256
58.8 -0.00282
58.85 -0.00282
58.9 -0.00326
58.95 -0.00328
59 -0.0025
59.05 -0.00175
59.1 -0.00184
59.15 -0.00113
59.2 -0.00077
59.25 0.00041
59.3 0.00082
59.35 0.00112
59.4 0.00182
59.45 0.00141
59.5 0.00086
59.55 -0.00012
59.6 -0.0013
59.65 -0.00247
59.7 -0.00278
59.75 -0.00228
59.8 -0.00174
59.85 -0.00088
59.9 0.00008
59.95 0.00087
60 0.00087
60.05 0.00085
60.1 0.00158
60.15 0.00199
60.2 0.00138
60.25 0.00125
60.3 0.0004
60.35 0.00049
60.4 0.0012
60.45 0.00198
60.5 0.00225
60.55 0.00301
60.6 0.00315
60.65 0.00362
60.7 0.00417
60.75 0.00399
60.8 0.00307
60.85 0.00271
60.9 0.00278
60.95 0.00344
61 0.00394
61.05 0.00441
61.1 0.0036
61.15 0.00318
61.2 0.00264
61.25 0.00245
61.3 0.00281
61.35 0.00205
61.4 0.00084
61.45 -0.00026
61.5 -0.00144
61.55 -0.00217
61.6 -0.002
61.65 -0.00154
61.7 -0.00074
61.75 -0.00099
61.8 -0.00129
61.85 -0.00207
61.9 -0.00218
61.95 -0.00238
62 -0.00157
62.05 -0.00021
62.1 0.0005
62.15 0.00077
62.2 0.00093
62.25 0.0006
62.3 -0.0003
62.35 -0.00015
62.4 0.00041
62.45 0.00053
62.5 0.00075
62.55 0.00051
62.6 -0.00003
62.65 -0.00007
62.7 -0.00004
62.75 -0.0002
62.8 -0.00063
62.85 -0.00065
62.9 -0.00129
62.95 -0.0012
63 -0.00133
63.05 -0.002
63.1 -0.00178
63.15 -0.00067
63.2 0.00064
63.25 0.00182
63.3 0.00289
63.35 0.00292
63.4 0.00281
63.45 0.00238
63.5 0.00209
63.55 0.0017
63.6 0.0005
63.65 -0.00019
63.7 -0.00049
63.75 -0.00044
63.8 -0.001
63.85 -0.00179
63.9 -0.00279
63.95 -0.00359
64 -0.00407
64.05 -0.00396
64.1 -0.00412
64.15 -0.00354
64.2 -0.00364
64.25 -0.00286
64.3 -0.00131
64.35 0.00004
64.4 0.00031
64.45 0.00006
64.5 -0.00031
64.55 -0.00091
64.6 -0.00161
64.65 -0.00133
64.7 -0.00045
64.75 0.00063
64.8 0.00086
64.85 0.00026
64.9 0.0001
64.95 0.00085
65 0.00197
65.05 0.00334
65.1 0.00317
65.15 0.00242
65.2 0.00161
65.25 0.0014
65.3 0.00155
65.35 0.00146
65.4 0.00135
65.45 0.00038
65.5 0.00052
65.55 0.00007
65.6 -0.0004
65.65 -0.00096
65.7 -0.00148
65.75 -0.00098
65.8 -0.00049
65.85 -0.00019
65.9 0.00052
65.95 0.00066
66 0.00045
66.05 -0.00037
66.1 -0.00015
66.15 -0.00073
66.2 -0.00081
66.25 -0.00096
66.3 -0.00039
66.35 0.00032
66.4 0.00125
66.45 0.00209
66.5 0.00181
66.55 0.002
66.6 0.00214
66.65 0.00262
66.7 0.00245
66.75 0.00219
66.8 0.00173
66.85 0.00053
66.9 -0.0002
66.95 -0.00062
67 -0.00024
67.05 0.00013
67.1 0
67.15 0.00061
67.2 0.00075
67.25 0.00136
67.3 0.00193
67.35 0.00221
67.4 0.00218
67.45 0.00152
67.5 0.00076
67.55 0.00077
67.6 0.00142
67.65 0.00144
67.7 0.00089
67.75 0.00097
67.8 0.00125
67.85 0.00083
67.9 0.00041
67.95 0.00073
68 0.00101
68.05 0.00166
68.1 0.00145
68.15 0.00186
68.2 0.00152
68.25 0.00147
68.3 0.00195
68.35 0.00127
68.4 0
68.45 -0.00059
68.5 -0.00062
68.55 -0.00007
68.6 0.00076
68.65 0.0013
68.7 0.00204
68.75 0.00265
68.8 0.00299
68.85 0.00272
68.9 0.00253
68.95 0.00223
69 0.00196
69.05 0.00144
69.1 0.00038
69.15 -0.00029
69.2 -0.00026
69.25 -0.00006
69.3 0.0005
69.35 0.00112
69.4 0.00157
69.45 0.00208
69.5 0.00266
69.55 0.00233
69.6 0.00179
69.65 0.00132
69.7 0.00017
69.75 -0.00072
69.8 -0.00125
69.85 -0.00091
69.9 -0.0006
69.95 -0.00049
70 0.00001
70.05 0.0009
70.1 0.00082
70.15 0.00131
70.2 0.00168
70.25 0.00174
70.3 0.00153
70.35 0.00178
70.4 0.00159
70.45 0.00121
70.5 0.00047
70.55 -0.0008
70.6 -0.00082
70.65 -0.00048
70.7 0.00035
70.75 0.00091
70.8 0.00057
70.85 -0.00045
70.9 -0.00195
70.95 -0.00345
71 -0.00481
71.05 -0.0048
71.1 -0.00514
71.15 -0.00453
71.2 -0.00337
71.25 -0.0024
71.3 -0.00215
71.35 -0.00119
71.4 -0.00109
71.45 -0.00075
71.5 -0.00037
71.55 0.00041
71.6 0.00093
71.65 0.00165
71.7 0.00263
71.75 0.00369
71.8 0.00401
71.85 0.00425
71.9 0.00398
71.95 0.00386
72 0.00344
72.05 0.00274
72.1 0.00142
72.15 0.00057
72.2 0.00037
72.25 -0.00064
72.3 -0.00185
72.35 -0.00215
72.4 -0.00226
72.45 -0.00193
72.5 -0.00177
72.55 -0.00175
72.6 -0.00193
72.65 -0.00215
72.7 -0.00228
72.75 -0.00239
72.8 -0.00225
72.85 -0.00257
72.9 -0.00208
72.95 -0.00123
73 -0.00129
73.05 -0.00109
73.1 -0.00037
73.15 -0.00067
73.2 -0.00101
73.25 -0.00174
73.3 -0.00223
73.35 -0.00275
73.4 -0.0023
73.45 -0.00131
73.5 0.00001
73.55 0.00073
73.6 0.00156
73.65 0.0015
73.7 0.00096
73.75 -0.0001
73.8 -0.00015
73.85 0.00011
73.9 -0.00028
73.95 -0.00016
74 -0.00067
74.05 -0.00062
74.1 -0.00125
74.15 -0.00213
74.2 -0.00335
74.25 -0.00399
74.3 -0.00331
74.35 -0.00334
74.4 -0.00276
74.45 -0.00278
74.5 -0.00183
74.55 -0.00116
74.6 -0.00143
74.65 -0.00129
74.7 -0.00173
74.75 -0.00138
74.8 -0.00052
74.85 0.00012
74.9 0.00131
74.95 0.00168
75 0.00143
75.05 0.00034
75.1 -0.00088
75.15 -0.00226
75.2 -0.00369
75.25 -0.00463
75.3 -0.00441
75.35 -0.0033
75.4 -0.0029
75.45 -0.00191
75.5 -0.00058
75.55 0.00064
75.6 0.00059
75.65 0.00081
75.7 0.00068
75.75 0.00063
75.8 0.00115
75.85 0.00099
75.9 0.00027
75.95 0.0006
76 0.00096
76.05 0.00152
76.1 0.0011
76.15 0.001
76.2 0.00158
76.25 0.00221
76.3 0.00309
76.35 0.00346
76.4 0.00382
76.45 0.00421
76.5 0.00483
76.55 0.00465
76.6 0.0042
76.65 0.00305
76.7 0.00204
76.75 0.00041
76.8 -0.00083
76.85 -0.00113
76.9 -0.00184
76.95 -0.00142
77 -0.00106
77.05 -0.00014
77.1 0.00096
77.15 0.00211
77.2 0.00288
77.25 0.00268
77.3 0.00266
77.35 0.00297
77.4 0.00235
77.45 0.00233
77.5 0.00197
77.55 0.00093
77.6 0.00073
77.65 0.0011
77.7 0.00131
77.75 0.0011
77.8 0.00002
77.85 -0.00119
77.9 -0.00297
77.95 -0.00531
78 -0.0069
78.05 -0.00779
78.1 -0.00922
78.15 -0.01143
78.2 -0.01304
78.25 -0.01405
78.3 -0.01566
78.35 -0.01729
78.4 -0.01989
78.45 -0.02396
78.5 -0.02865
78.55 -0.03388
78.6 -0.03951
78.65 -0.04564
78.7 -0.05328
78.75 -0.06214
78.8 -0.07279
78.85 -0.08419
78.9 -0.09757
78.95 -0.11189
79 -0.12667
79.05 -0.14243
79.1 -0.16055
79.15 -0.18029
79.2 -0.20102
79.25 -0.22276
79.3 -0.24538
79.35 -0.2684
79.4 -0.2917
79.45 -0.31602
79.5 -0.3406
79.55 -0.36493
79.6 -0.38875
79.65 -0.41278
79.7 -0.43631
79.75 -0.45839
79.8 -0.47796
79.85 -0.49502
79.9 -0.51057
79.95 -0.52417
80 -0.5346
80.05 -0.5421
80.1 -0.54525
80.15 -0.54422
80.2 -0.53904
80.25 -0.53012
80.3 -0.51729
80.35 -0.5
80.4 -0.47875
80.45 -0.45385
80.5 -0.42431
80.55 -0.39249
80.6 -0.35813
80.65 -0.32074
80.7 -0.28071
80.75 -0.23985
80.8 -0.19776
80.85 -0.15472
80.9 -0.11262
80.95 -0.07055
81 -0.02949
81.05 0.01056
81.1 0.04955
81.15 0.08696
81.2 0.12108
81.25 0.15222
81.3 0.18218
81.35 0.21
81.4 0.236
81.45 0.25892
81.5 0.27943
81.55 0.29738
81.6 0.31289
81.65 0.3274
81.7 0.34071
81.75 0.35303
81.8 0.36336
81.85 0.3728
81.9 0.38081
81.95 0.38809
82 0.39359
82.05 0.39728
82.1 0.40055
82.15 0.40357
82.2 0.40654
82.25 0.40836
82.3 0.4096
82.35 0.41073
82.4 0.41108
82.45 0.41009
82.5 0.4097
82.55 0.40814
82.6 0.40562
82.65 0.40328
82.7 0.40092
82.75 0.39775
82.8 0.39411
82.85 0.3897
82.9 0.38528
82.95 0.38022
83 0.37507
83.05 0.36901
83.1 0.36251
83.15 0.35496
83.2 0.34638
83.25 0.33685
83.3 0.32698
83.35 0.31706
83.4 0.30819
83.45 0.29996
83.5 0.29078
83.55 0.28076
83.6 0.27021
83.65 0.25995
83.7 0.25027
83.75 0.24151
83.8 0.23341
83.85 0.22426
83.9 0.21575
83.95 0.20639
84 0.19655
84.05 0.18766
84.1 0.17983
84.15 0.17235
84.2 0.16501
84.25 0.15716
84.3 0.14859
84.35 0.1398
84.4 0.13208
84.45 0.12508
84.5 0.11873
84.55 0.11192
84.6 0.10493
84.65 0.09884
84.7 0.09329
84.75 0.08811
84.8 0.08172
84.85 0.07524
84.9 0.06903
84.95 0.0632
85 0.05763
85.05 0.05204
85.1 0.046
85.15 0.03988
85.2 0.03495
85.25 0.02987
85.3 0.02566
85.35 0.02209
85.4 0.01897
85.45 0.01479
85.5 0.01061
85.55 0.00559
85.6 0.00012
85.65 -0.00437
85.7 -0.00893
85.75 -0.01347
85.8 -0.01765
85.85 -0.02133
85.9 -0.02381
85.95 -0.02566
86 -0.02846
86.05 -0.03091
86.1 -0.03394
86.15 -0.03741
86.2 -0.04117
86.25 -0.0444
86.3 -0.04757
86.35 -0.05061
86.4 -0.05308
86.45 -0.05456
86.5 -0.05514
86.55 -0.0564
86.6 -0.05737
86.65 -0.05878
86.7 -0.05952
86.75 -0.06014
86.8 -0.0608
86.85 -0.06212
86.9 -0.06271
86.95 -0.06301
87 -0.06342
87.05 -0.06321
87.1 -0.06355
87.15 -0.06319
87.2 -0.06356
87.25 -0.06337
87.3 -0.06323
87.35 -0.06292
87.4 -0.06293
87.45 -0.06361
87.5 -0.06403
87.55 -0.06363
87.6 -0.06357
87.65 -0.06423
87.7 -0.06492
87.75 -0.0656
87.8 -0.06485
87.85 -0.0643
87.9 -0.06437
87.95 -0.0635
88 -0.06297
88.05 -0.06277
88.1 -0.06282
88.15 -0.06216
88.2 -0.0616
88.25 -0.06024
88.3 -0.05827
88.35 -0.05687
88.4 -0.05571
88.45 -0.05501
88.5 -0.05339
88.55 -0.05263
88.6 -0.05148
88.65 -0.04986
88.7 -0.04874
88.75 -0.04831
88.8 -0.04853
88.85 -0.04849
88.9 -0.04864
88.95 -0.04916
89 -0.0493
89.05 -0.04825
89.1 -0.04664
89.15 -0.04447
89.2 -0.04278
89.25 -0.04183
89.3 -0.04049
89.35 -0.03909
89.4 -0.03825
89.45 -0.03781
89.5 -0.03793
89.55 -0.03855
89.6 -0.03889
89.65 -0.03817
89.7 -0.03675
89.75 -0.03568
89.8 -0.03543
89.85 -0.035
89.9 -0.03402
89.95 -0.0326
90 -0.03209
90.05 -0.03212
90.1 -0.03247
90.15 -0.03309
90.2 -0.03397
90.25 -0.03363
90.3 -0.03334
90.35 -0.03205
90.4 -0.03024
90.45 -0.02858
90.5 -0.02775
90.55 -0.02759
90.6 -0.02768
90.65 -0.02717
90.7 -0.02667
90.75 -0.02706
90.8 -0.02795
90.85 -0.02829
90.9 -0.02896
90.95 -0.02912
91 -0.02918
91.05 -0.02831
91.1 -0.02644
91.15 -0.02416
91.2 -0.02242
91.25 -0.0218
91.3 -0.02155
91.35 -0.02075
91.4 -0.021
91.45 -0.02118
91.5 -0.02114
91.55 -0.02114
91.6 -0.02082
91.65 -0.02083
91.7 -0.02009
91.75 -0.01999
91.8 -0.02038
91.85 -0.02112
91.9 -0.0211
91.95 -0.02064
92 -0.02019
92.05 -0.02031
92.1 -0.02047
92.15 -0.02086
92.2 -0.02008
92.25 -0.01984
92.3 -0.01938
92.35 -0.01872
92.4 -0.01724
92.45 -0.01577
92.5 -0.01456
92.55 -0.01405
92.6 -0.0144
92.65 -0.01388
92.7 -0.01379
92.75 -0.01444
92.8 -0.01401
92.85 -0.01279
92.9 -0.01125
92.95 -0.01037
93 -0.00944
93.05 -0.00858
93.1 -0.00869
93.15 -0.00817
93.2 -0.0079
93.25 -0.00881
93.3 -0.00981
93.35 -0.01125
93.4 -0.01226
93.45 -0.01329
93.5 -0.01355
93.55 -0.01304
93.6 -0.01278
93.65 -0.01284
93.7 -0.01257
93.75 -0.01263
93.8 -0.01174
93.85 -0.0116
93.9 -0.01128
93.95 -0.01129
94 -0.01072
94.05 -0.00997
94.1 -0.0096
94.15 -0.00961
94.2 -0.00951
94.25 -0.00867
94.3 -0.0075
94.35 -0.00625
94.4 -0.00589
94.45 -0.00583
94.5 -0.00661
94.55 -0.00671
94.6 -0.00641
94.65 -0.00694
94.7 -0.00667
94.75 -0.00644
94.8 -0.00706
94.85 -0.00742
94.9 -0.00769
94.95 -0.0081
95 -0.00813
95.05 -0.00719
95.1 -0.00639
95.15 -0.00626
95.2 -0.00557
95.25 -0.00532
95.3 -0.00477
95.35 -0.00512
95.4 -0.00488
95.45 -0.00403
95.5 -0.00326
95.55 -0.00256
95.6 -0.00153
95.65 -0.00052
95.7 -0.00038
95.75 -0.00049
95.8 -0.0004
95.85 -0.00032
95.9 -0.00012
95.95 -0.00071
96 -0.00181
96.05 -0.00236
96.1 -0.00241
96.15 -0.00294
96.2 -0.00311
96.25 -0.00327
96.3 -0.00278
96.35 -0.00326
96.4 -0.00338
96.45 -0.00427
96.5 -0.00488
96.55 -0.00512
96.6 -0.00462
96.65 -0.00506
96.7 -0.00562
96.75 -0.00567
96.8 -0.00555
96.85 -0.00565
96.9 -0.00507
96.95 -0.00407
97 -0.00405
97.05 -0.00479
97.1 -0.00453
97.15 -0.00471
97.2 -0.00442
97.25 -0.00381
97.3 -0.00301
97.35 -0.00265
97.4 -0.00248
97.45 -0.00207
97.5 -0.00216
97.55 -0.00267
97.6 -0.00296
97.65 -0.00291
97.7 -0.0028
97.75 -0.00329
97.8 -0.00319
97.85 -0.00238
97.9 -0.00211
97.95 -0.00258
98 -0.00348
98.05 -0.00358
98.1 -0.00422
98.15 -0.00407
98.2 -0.00399
98.25 -0.00414
98.3 -0.00333
98.35 -0.00208
98.4 -0.00197
98.45 -0.00219
98.5 -0.0025
98.55 -0.00284
98.6 -0.00245
98.65 -0.00212
98.7 -0.00122
98.75 -0.00062
98.8 -0.00059
98.85 -0.0003
98.9 0.00019
98.95 -0.00036
99 -0.001
99.05 -0.00141
99.1 -0.00144
99.15 -0.00137
99.2 -0.00123
99.25 -0.00145
99.3 -0.00207
99.35 -0.0017
99.4 -0.00082
99.45 0.00003
99.5 -0.00021
99.55 -0.00048
99.6 -0.00016
99.65 0.0002
99.7 -0.00001
99.75 0.00042
99.8 -0.00034
99.85 -0.00141
99.9 -0.00267
99.95 -0.00302
