0 0
0.05 0.00176
0.1 0.00311
0.15 0.00414
0.2 0.00552
0.25 0.00631
0.3 0.00671
0.35 0.00762
0.4 0.0093
0.45 0.01128
0.5 0.01224
0.55 0.01346
0.6 0.01424
0.65 0.01548
0.7 0.01695
0.75 0.01768
0.8 0.01805
0.85 0.01741
0.9 0.01576
0.95 0.01517
1 0.01471
1.05 0.01436
1.1 0.01329
1.15 0.01193
1.2 0.01173
1.25 0.01183
1.3 0.01177
1.35 0.012
1.4 0.01216
1.45 0.01251
1.5 0.01318
1.55 0.01229
1.6 0.01145
1.65 0.0116
1.7 0.01094
1.75 0.00933
1.8 0.00834
1.85 0.0068
1.9 0.00533
1.95 0.00386
2 0.00417
2.05 0.00459
2.1 0.00599
2.15 0.00724
2.2 0.00839
2.25 0.00959
2.3 0.01054
2.35 0.01074
2.4 0.01067
2.45 0.01034
2.5 0.00946
2.55 0.00756
2.6 0.00626
2.65 0.00593
2.7 0.00479
2.75 0.00495
2.8 0.00502
2.85 0.00424
2.9 0.00284
2.95 0.00228
3 0.00286
3.05 0.00344
3.1 0.00433
3.15 0.00475
3.2 0.00532
3.25 0.00486
3.3 0.00526
3.35 0.00459
3.4 0.00407
3.45 0.00426
3.5 0.00473
3.55 0.00508
3.6 0.00458
3.65 0.00357
3.7 0.00313
3.75 0.00286
3.8 0.00259
3.85 0.00344
3.9 0.00361
3.95 0.00337
4 0.00251
4.05 0.00106
4.1 -0.0003
4.15 -0.00119
4.2 -0.00048
4.25 0.00021
4.3 0.00154
4.35 0.00235
4.4 0.00396
4.45 0.006
4.5 0.0061
4.55 0.00595
4.6 0.00613
4.65 0.0049
4.7 0.00338
4.75 0.0031
4.8 0.00255
4.85 0.00317
4.9 0.00451
4.95 0.00431
5 0.00501
5.05 0.00451
5.1 0.00369
5.15 0.00277
5.2 0.00178
5.25 0.00077
5.3 0.00021
5.35 0.00063
5.4 0.002
5.45 0.00212
5.5 0.00151
5.55 0.00207
5.6 0.00142
5.65 0.00097
5.7 0.00004
5.75 -0.00045
5.8 0.00037
5.85 0.00108
5.9 0.00242
5.95 0.00367
6 0.00484
6.05 0.00464
6.1 0.00488
6.15 0.0056
6.2 0.00487
6.25 0.00429
6.3 0.00432
6.35 0.00502
6.4 0.00511
6.45 0.00479
6.5 0.00462
6.55 0.00482
6.6 0.00416
6.65 0.00379
6.7 0.00227
6.75 0.00161
6.8 0.00039
6.85 -0.0003
6.9 -0.00158
6.95 -0.00325
7 -0.00386
7.05 -0.00374
7.1 -0.00324
7.15 -0.00274
7.2 -0.00149
7.25 0.00005
7.3 0.00194
7.35 0.00347
7.4 0.00343
7.45 0.00226
7.5 0.00194
7.55 0.00139
7.6 0.00046
7.65 -0.00048
7.7 0.00004
7.75 0.00113
7.8 0.00097
7.85 0.00156
7.9 0.0017
7.95 0.00178
8 0.00103
8.05 0.00028
8.1 -0.00068
8.15 -0.0011
8.2 -0.00032
8.25 -0.0002
8.3 -0.00077
8.35 -0.0016
8.4 -0.00249
8.45 -0.00381
8.5 -0.00439
8.55 -0.00393
8.6 -0.00424
8.65 -0.00354
8.7 -0.00352
8.75 -0.0034
8.8 -0.00345
8.85 -0.00271
8.9 -0.00226
8.95 -0.00229
9 -0.00139
9.05 -0.00153
9.1 -0.0019
9.15 -0.00094
9.2 -0.001
9.25 -0.00094
9.3 0.00023
9.35 0.00207
9.4 0.00302
9.45 0.00335
9.5 0.00339
9.55 0.00216
9.6 0.00189
9.65 0.00214
9.7 0.00175
9.75 0.00112
9.8 0.00014
9.85 -0.00067
9.9 -0.00162
9.95 -0.00303
10 -0.00336
10.05 -0.00262
10.1 -0.0009
10.15 0.00046
10.2 0.00139
10.25 0.00129
10.3 0.00138
10.35 0.00119
10.4 0.00076
10.45 0.0003
10.5 -0.00026
10.55 0.00032
10.6 0.00027
10.65 -0.00038
10.7 -0.00048
10.75 0.00046
10.8 0.00113
10.85 0.00054
10.9 0.00083
10.95 0.0007
11 0.00072
11.05 0.00033
11.1 -0.00034
11.15 0.00008
11.2 -0.00051
11.25 -0.00137
11.3 -0.00167
11.35 -0.00267
11.4 -0.00215
11.45 -0.00105
11.5 -0.00103
11.55 -0.00125
11.6 -0.00048
11.65 0.00118
11.7 0.00125
11.75 0.00062
11.8 -0.00024
11.85 -0.00117
11.9 -0.00195
11.95 -0.00223
12 -0.00159
12.05 -0.00121
12.1 -0.00135
12.15 -0.00053
12.2 -0.00088
12.25 -0.00029
12.3 -0.0002
12.35 -0.00011
12.4 -0.00099
12.45 -0.00224
12.5 -0.00165
12.55 -0.00086
12.6 -0.00047
12.65 0.00068
12.7 0.00226
12.75 0.00287
12.8 0.00408
12.85 0.00533
12.9 0.00537
12.95 0.00537
13 0.00403
13.05 0.00258
13.1 0.00246
13.15 0.00248
13.2 0.0021
13.25 0.00085
13.3 0.00037
13.35 0.00083
13.4 0.00026
13.45 0.00085
13.5 0.00098
13.55 0.0008
13.6 -0.00028
13.65 -0.00087
13.7 -0.00042
13.75 0.00041
13.8 0.00095
13.85 0.00072
13.9 0.00131
13.95 0.00075
14 0.00023
14.05 0.00038
14.1 -0.00038
14.15 -0.00146
14.2 -0.00268
14.25 -0.00292
14.3 -0.00302
14.35 -0.00182
14.4 0.00007
14.45 0.00132
14.5 0.00147
14.55 0.00108
14.6 0.00027
14.65 -0.00054
14.7 -0.00199
14.75 -0.00354
14.8 -0.00478
14.85 -0.00451
14.9 -0.00445
14.95 -0.00448
15 -0.00351
15.05 -0.00356
15.1 -0.00398
15.15 -0.00412
15.2 -0.00411
15.25 -0.00367
15.3 -0.00279
15.35 -0.00286
15.4 -0.00276
15.45 -0.00232
15.5 -0.00065
15.55 0.00089
15.6 0.00296
15.65 0.00456
15.7 0.00593
15.75 0.00606
15.8 0.00592
15.85 0.0048
15.9 0.00361
15.95 0.0019
16 0.00045
16.05 -0.00125
16.1 -0.00143
16.15 -0.00233
16.2 -0.00346
16.25 -0.0045
16.3 -0.00542
16.35 -0.00584
16.4 -0.00552
16.45 -0.00538
16.5 -0.00419
16.55 -0.00365
16.6 -0.00278
16.65 -0.001
16.7 -0.00013
16.75 -0.00046
16.8 -0.00042
16.85 -0.00018
16.9 -0.00058
16.95 -0.00005
17 0.00008
17.05 0.00106
17.1 0.00246
17.15 0.00322
17.2 0.00425
17.25 0.00477
17.3 0.00401
17.35 0.00368
17.4 0.00427
17.45 0.00403
17.5 0.00403
17.55 0.00379
17.6 0.00366
17.65 0.00415
17.7 0.00476
17.75 0.00395
17.8 0.00344
17.85 0.00395
17.9 0.00297
17.95 0.00307
18 0.00346
18.05 0.00405
18.1 0.00362
18.15 0.00366
18.2 0.00343
18.25 0.00404
18.3 0.00355
18.35 0.00319
18.4 0.0027
18.45 0.0013
18.5 -0.00052
18.55 -0.0005
18.6 -0.00031
18.65 0.00079
18.7 0.00224
18.75 0.00206
18.8 0.00212
18.85 0.00237
18.9 0.0015
18.95 0.00084
19 0.00144
19.05 0.00093
19.1 0.00143
19.15 0.00058
19.2 0.00007
19.25 0.00003
19.3 -0.00082
19.35 -0.00167
19.4 -0.00204
19.45 -0.00261
19.5 -0.0017
19.55 -0.00018
19.6 -0.00005
19.65 0.00061
19.7 0.00068
19.75 0.00029
19.8 0.00005
19.85 0.0005
19.9 0.00112
19.95 0.00102
20 -0.00014
20.05 -0.00141
20.1 -0.00162
20.15 -0.00209
20.2 -0.00125
20.25 -0.00145
20.3 -0.00184
20.35 -0.00135
20.4 -0.00034
20.45 0.00101
20.5 0.00165
20.55 0.00138
20.6 0.00129
20.65 0.00204
20.7 0.0015
20.75 0.00116
20.8 0.0003
20.85 0.00061
20.9 -0.0003
20.95 0.00023
21 0.00146
21.05 0.00294
21.1 0.00261
21.15 0.0028
21.2 0.00161
21.25 0.00074
21.3 -0.00022
21.35 -0.00085
21.4 -0.00067
21.45 -0.00105
21.5 -0.00177
21.55 -0.00294
21.6 -0.00373
21.65 -0.00316
21.7 -0.00293
21.75 -0.00186
21.8 -0.00138
21.85 0.00012
21.9 0.00173
21.95 0.00289
22 0.00251
22.05 0.00256
22.1 0.00229
22.15 0.00301
22.2 0.0041
22.25 0.0051
22.3 0.00625
22.35 0.00727
22.4 0.00655
22.45 0.00578
22.5 0.00451
22.55 0.00361
22.6 0.00222
22.65 0.00018
22.7 -0.00202
22.75 -0.00308
22.8 -0.00276
22.85 -0.00188
22.9 -0.00014
22.95 0.00055
23 0.00073
23.05 -0.00006
23.1 -0.00008
23.15 0.00001
23.2 0.00035
23.25 0.00003
23.3 0.00029
23.35 -0.00058
23.4 -0.002
23.45 -0.00356
23.5 -0.00505
23.55 -0.00481
23.6 -0.00359
23.65 -0.00323
23.7 -0.00264
23.75 -0.00211
23.8 -0.00103
23.85 -0.00127
23.9 -0.00167
23.95 -0.00198
24 -0.00261
24.05 -0.00259
24.1 -0.00323
24.15 -0.00356
24.2 -0.00331
24.25 -0.0038
24.3 -0.00373
24.35 -0.0036
24.4 -0.00394
24.45 -0.00478
24.5 -0.00514
24.55 -0.00596
24.6 -0.00516
24.65 -0.00367
24.7 -0.00275
24.75 -0.0028
24.8 -0.00151
24.85 -0.00076
24.9 0.00089
24.95 0.00228
25 0.00381
25.05 0.00401
25.1 0.00402
25.15 0.00312
25.2 0.0032
25.25 0.0023
25.3 0.00175
25.35 0.00065
25.4 -0.0007
25.45 -0.00197
25.5 -0.00235
25.55 -0.00147
25.6 -0.00095
25.65 0.00039
25.7 0.00082
25.75 0.00085
25.8 0.00099
25.85 0.00125
25.9 0.00172
25.95 0.00192
26 0.00273
26.05 0.00388
26.1 0.00339
26.15 0.00282
26.2 0.00235
26.25 0.00265
26.3 0.00179
26.35 0.00066
26.4 -0.00034
26.45 -0.00108
26.5 -0.00208
26.55 -0.00272
26.6 -0.00282
26.65 -0.00286
26.7 -0.00163
26.75 -0.00012
26.8 0.00002
26.85 -0.0004
26.9 -0.00024
26.95 0.00071
27 0.00093
27.05 0.00014
27.1 -0.00067
27.15 -0.00095
27.2 -0.00109
27.25 -0.0006
27.3 0.00081
27.35 0.00159
27.4 0.00234
27.45 0.00342
27.5 0.00295
27.55 0.00343
27.6 0.00436
27.65 0.00443
27.7 0.00421
27.75 0.00397
27.8 0.00398
27.85 0.00291
27.9 0.00296
27.95 0.00344
28 0.00313
28.05 0.0031
28.1 0.00372
28.15 0.00419
28.2 0.00445
28.25 0.00406
28.3 0.00351
28.35 0.00355
28.4 0.00269
28.45 0.00164
28.5 0.00015
28.55 0.0002
28.6 0.00006
28.65 -0.00113
28.7 -0.00261
28.75 -0.00367
28.8 -0.00307
28.85 -0.003
28.9 -0.00224
28.95 -0.00239
29 -0.00191
29.05 -0.00103
29.1 0
29.15 -0.00041
29.2 -0.00172
29.25 -0.00334
29.3 -0.00361
29.35 -0.00397
29.4 -0.00473
29.45 -0.00478
29.5 -0.00447
29.55 -0.0047
29.6 -0.00475
29.65 -0.00543
29.7 -0.00549
29.75 -0.00613
29.8 -0.00507
29.85 -0.00489
29.9 -0.00382
29.95 -0.00302
30 -0.00215
30.05 -0.00065
30.1 -0.00021
30.15 0.00083
30.2 0.00125
30.25 0.00149
30.3 0.00065
30.35 0.00034
30.4 0.00016
30.45 -0.00062
30.5 -0.00204
30.55 -0.00184
30.6 -0.00239
30.65 -0.00339
30.7 -0.00433
30.75 -0.00524
30.8 -0.00463
30.85 -0.00486
30.9 -0.00563
30.95 -0.00631
31 -0.00546
31.05 -0.00368
31.1 -0.00226
31.15 -0.00047
31.2 0.0014
31.25 0.00288
31.3 0.00398
31.35 0.00524
31.4 0.00659
31.45 0.00729
31.5 0.00673
31.55 0.00563
31.6 0.00399
31.65 0.0022
31.7 0.00144
31.75 0.00089
31.8 -0.00031
31.85 -0.00137
31.9 -0.00144
31.95 -0.001
32 -0.00111
32.05 -0.00013
32.1 0.00026
32.15 0.0006
32.2 0.00059
32.25 0.00089
32.3 0.00201
32.35 0.00163
32.4 0.00032
32.45 0.0003
32.5 -0.00016
32.55 -0.00097
32.6 -0.00125
32.65 -0.00047
32.7 -0.00042
32.75 0.00022
32.8 0.00169
32.85 0.00234
32.9 0.00325
32.95 0.00431
33 0.00394
33.05 0.00359
33.1 0.00327
33.15 0.00303
33.2 0.00341
33.25 0.00316
33.3 0.0031
33.35 0.00276
33.4 0.00242
33.45 0.00131
33.5 -0.00022
33.55 -0.00207
33.6 -0.00265
33.65 -0.00268
33.7 -0.00155
33.75 0.00029
33.8 0.00198
33.85 0.00329
33.9 0.00443
33.95 0.00379
34 0.00266
34.05 0.00272
34.1 0.0025
34.15 0.0011
34.2 -0.00048
34.25 -0.00097
34.3 -0.00068
34.35 -0.00097
34.4 -0.00049
34.45 -0.00087
34.5 -0.00013
34.55 0.0012
34.6 0.00195
34.65 0.00307
34.7 0.00307
34.75 0.003
34.8 0.00366
34.85 0.00378
34.9 0.00409
34.95 0.00312
35 0.00258
35.05 0.00214
35.1 0.00225
35.15 0.00097
35.2 0.00024
35.25 0.00041
35.3 0.00014
35.35 -0.00088
35.4 -0.00053
35.45 -0.00067
35.5 -0.00097
35.55 -0.00056
35.6 0.00014
35.65 0.00077
35.7 0.00012
35.75 0.00028
35.8 0.00046
35.85 -0.00037
35.9 -0.00144
35.95 -0.00168
36 -0.00282
36.05 -0.00366
36.1 -0.00465
36.15 -0.0059
36.2 -0.00623
36.25 -0.00507
36.3 -0.00439
36.35 -0.00471
36.4 -0.00361
36.45 -0.00255
36.5 -0.00279
36.55 -0.0022
36.6 -0.0007
36.65 0.00118
36.7 0.00235
36.75 0.00289
36.8 0.00262
36.85 0.00192
36.9 0.00025
36.95 -0.00122
37 -0.0019
37.05 -0.00111
37.1 0.00021
37.15 0.00197
37.2 0.00181
37.25 0.00183
37.3 0.00068
37.35 -0.00114
37.4 -0.0031
37.45 -0.00476
37.5 -0.00442
37.55 -0.00365
37.6 -0.00301
37.65 -0.00142
37.7 -0.00017
37.75 -0.00013
37.8 -0.00055
37.85 -0.00089
37.9 -0.00071
37.95 0.00047
38 0.0012
38.05 0.00078
38.1 0.00133
38.15 0.00152
38.2 0.00209
38.25 0.00291
38.3 0.00232
38.35 0.00193
38.4 0.00113
38.45 -0.00013
38.5 -0.00188
38.55 -0.00289
38.6 -0.00362
38.65 -0.00293
38.7 -0.0031
38.75 -0.00282
38.8 -0.00147
38.85 -0.00117
38.9 -0.00195
38.95 -0.00266
39 -0.00313
39.05 -0.0032
39.1 -0.00329
39.15 -0.00337
39.2 -0.00235
39.25 -0.00164
39.3 -0.0002
39.35 0.00178
39.4 0.00317
39.45 0.0027
39.5 0.00124
39.55 0.00114
39.6 0.00168
39.65 0.00141
39.7 0.00116
39.75 -0.00014
39.8 -0.00094
39.85 -0.00083
39.9 -0.00168
39.95 -0.00286
40 -0.00258
40.05 -0.00202
40.1 -0.00208
40.15 -0.00296
40.2 -0.00246
40.25 -0.00262
40.3 -0.00296
40.35 -0.0034
40.4 -0.00287
40.45 -0.00134
40.5 0.00008
40.55 0.00055
40.6 0.00087
40.65 0.00026
40.7 -0.00099
40.75 -0.0011
40.8 -0.00109
40.85 -0.00097
40.9 0.00023
40.95 0.00115
41 0.00086
41.05 0.00025
41.1 -0.00005
41.15 0
41.2 -0.00007
41.25 0.00064
41.3 0.00061
41.35 -0.00035
41.4 -0.00111
41.45 -0.00045
41.5 -0.00073
41.55 -0.00124
41.6 -0.00035
41.65 0.00104
41.7 0.002
41.75 0.00316
41.8 0.00349
41.85 0.00436
41.9 0.00494
41.95 0.0059
42 0.00707
42.05 0.00654
42.1 0.0051
42.15 0.00471
42.2 0.00471
42.25 0.00421
42.3 0.00258
42.35 0.0022
42.4 0.00195
42.45 0.0013
42.5 -0.00012
42.55 -0.00026
42.6 0.00047
42.65 0.0002
42.7 -0.00089
42.75 -0.00211
42.8 -0.00173
42.85 -0.00127
42.9 -0.00108
42.95 -0.00134
43 -0.00235
43.05 -0.0029
43.1 -0.0037
43.15 -0.00286
43.2 -0.00119
43.25 0.00084
43.3 0.00212
43.35 0.0023
43.4 0.00172
43.45 0.00153
43.5 0.00096
43.55 0.00074
43.6 0.00094
43.65 0.00145
43.7 0.00222
43.75 0.00169
43.8 0.00179
43.85 0.00176
43.9 0.00196
43.95 0.00184
44 0.00139
44.05 0.0018
44.1 0.00254
44.15 0.00276
44.2 0.00183
44.25 0.00117
44.3 -0.00034
44.35 -0.00206
44.4 -0.00271
44.45 -0.00332
44.5 -0.00384
44.55 -0.00392
44.6 -0.00468
44.65 -0.00487
44.7 -0.00393
44.75 -0.00256
44.8 -0.00165
44.85 -0.00083
44.9 -0.00045
44.95 -0.00111
45 -0.00253
45.05 -0.00216
45.1 -0.00076
45.15 0.00017
45.2 0.00099
45.25 0.00121
45.3 0.002
45.35 0.00217
45.4 0.0019
45.45 0.00119
45.5 0.00032
45.55 -0.00111
45.6 -0.00253
45.65 -0.0031
45.7 -0.00274
45.75 -0.00132
45.8 -0.00046
45.85 0.00051
45.9 0.00067
45.95 0.00051
46 0
46.05 -0.00016
46.1 -0.00027
46.15 0.00061
46.2 0.00131
46.25 0.00261
46.3 0.0037
46.35 0.00442
46.4 0.00481
46.45 0.00432
46.5 0.00415
46.55 0.00376
46.6 0.00237
46.65 0.00128
46.7 0.00044
46.75 -0.00021
46.8 -0.00009
46.85 -0.00038
46.9 -0.00115
46.95 -0.00257
47 -0.0031
47.05 -0.00251
47.1 -0.00212
47.15 -0.00259
47.2 -0.00214
47.25 -0.00066
47.3 0.00092
47.35 0.00237
47.4 0.00376
47.45 0.0049
47.5 0.00602
47.55 0.00689
47.6 0.00723
47.65 0.00776
47.7 0.00706
47.75 0.0051
47.8 0.00412
47.85 0.00309
47.9 0.00129
47.95 0.00097
48 -0.00038
48.05 -0.00112
48.1 -0.00203
48.15 -0.00173
48.2 -0.0023
48.25 -0.00361
48.3 -0.00357
48.35 -0.00292
48.4 -0.00288
48.45 -0.00326
48.5 -0.00337
48.55 -0.00388
48.6 -0.00331
48.65 -0.00266
48.7 -0.00291
48.75 -0.00323
48.8 -0.00257
48.85 -0.00215
48.9 -0.00105
48.95 -0.00083
49 -0.00086
49.05 -0.0002
49.1 0.00116
49.15 0.00137
49.2 0.00156
49.25 0.00104
49.3 0.00111
49.35 0.00121
49.4 0.00044
49.45 -0.00003
49.5 -0.00064
49.55 -0.00143
49.6 -0.00132
49.65 -0.00111
49.7 -0.00187
49.75 -0.00284
49.8 -0.0033
49.85 -0.00252
49.9 -0.00109
49.95 -0.00049
50 -0.00024
50.05 0.00079
50.1 0.00182
50.15 0.00244
50.2 0.00178
50.25 0.00066
50.3 0.00075
50.35 0.00061
50.4 -0.00043
50.45 -0.0004
50.5 -0.00126
50.55 -0.00215
50.6 -0.00343
50.65 -0.00438
50.7 -0.0044
50.75 -0.00544
50.8 -0.00539
50.85 -0.00487
50.9 -0.00559
50.95 -0.00741
51 -0.0086
51.05 -0.0101
51.1 -0.01112
51.15 -0.0125
51.2 -0.0139
51.25 -0.01768
51.3 -0.02169
51.35 -0.02705
51.4 -0.03372
51.45 -0.0402
51.5 -0.04713
51.55 -0.05422
51.6 -0.06359
51.65 -0.07492
51.7 -0.08603
51.75 -0.09948
51.8 -0.11405
51.85 -0.13108
51.9 -0.15037
51.95 -0.17085
52 -0.19225
52.05 -0.2143
52.1 -0.23817
52.15 -0.26359
52.2 -0.29181
52.25 -0.32121
52.3 -0.35228
52.35 -0.3831
52.4 -0.41549
52.45 -0.44788
52.5 -0.48153
52.55 -0.51535
52.6 -0.54814
52.65 -0.57913
52.7 -0.60842
52.75 -0.63521
52.8 -0.65887
52.85 -0.68039
52.9 -0.69711
52.95 -0.70932
53 -0.71794
53.05 -0.72206
53.1 -0.722
53.15 -0.71631
53.2 -0.70529
53.25 -0.68767
53.3 -0.66448
53.35 -0.63655
53.4 -0.6036
53.45 -0.56568
53.5 -0.52382
53.55 -0.47709
53.6 -0.42735
53.65 -0.37569
53.7 -0.32202
53.75 -0.26652
53.8 -0.21123
53.85 -0.15558
53.9 -0.10025
53.95 -0.04511
54 0.00832
54.05 0.05962
54.1 0.10732
54.15 0.15228
54.2 0.19487
54.25 0.23408
54.3 0.26942
54.35 0.30244
54.4 0.33258
54.45 0.35795
54.5 0.37993
54.55 0.39944
54.6 0.417
54.65 0.4326
54.7 0.44436
54.75 0.45328
54.8 0.46067
54.85 0.46782
54.9 0.47301
54.95 0.47771
55 0.48225
55.05 0.48708
55.1 0.49205
55.15 0.49569
55.2 0.49778
55.25 0.49968
55.3 0.50138
55.35 0.50307
55.4 0.50578
55.45 0.50898
55.5 0.51083
55.55 0.51316
55.6 0.51542
55.65 0.51638
55.7 0.5174
55.75 0.51765
55.8 0.51617
55.85 0.51395
55.9 0.51032
55.95 0.50535
56 0.50029
56.05 0.49354
56.1 0.48585
56.15 0.47789
56.2 0.46972
56.25 0.46111
56.3 0.45254
56.35 0.44356
56.4 0.43394
56.45 0.42413
56.5 0.41439
56.55 0.40299
56.6 0.39183
56.65 0.38009
56.7 0.3678
56.75 0.35541
56.8 0.34352
56.85 0.33145
56.9 0.31965
56.95 0.30746
57 0.2954
57.05 0.28183
57.1 0.26902
57.15 0.2566
57.2 0.24457
57.25 0.23154
57.3 0.21939
57.35 0.20695
57.4 0.19518
57.45 0.18345
57.5 0.17214
57.55 0.16199
57.6 0.1522
57.65 0.1429
57.7 0.13302
57.75 0.12405
57.8 0.11532
57.85 0.10515
57.9 0.09568
57.95 0.08558
58 0.07564
58.05 0.06527
58.1 0.05529
58.15 0.04743
58.2 0.0396
58.25 0.03185
58.3 0.02534
58.35 0.01952
58.4 0.01354
58.45 0.00675
58.5 0.00001
58.55 -0.00593
58.6 -0.0108
58.65 -0.0162
58.7 -0.02013
58.75 -0.02409
58.8 -0.0271
58.85 -0.02989
58.9 -0.03226
58.95 -0.03595
59 -0.03949
59.05 -0.04441
59.1 -0.04882
59.15 -0.05275
59.2 -0.05713
59.25 -0.06125
59.3 -0.06478
59.35 -0.06845
59.4 -0.07185
59.45 -0.07394
59.5 -0.07665
59.55 -0.079
59.6 -0.07977
59.65 -0.08004
59.7 -0.08117
59.75 -0.08186
59.8 -0.08298
59.85 -0.08314
59.9 -0.0828
59.95 -0.08236
60 -0.08234
60.05 -0.08237
60.1 -0.08227
60.15 -0.08151
60.2 -0.08205
60.25 -0.08322
60.3 -0.08454
60.35 -0.08627
60.4 -0.08764
60.45 -0.08907
60.5 -0.0886
60.55 -0.087
60.6 -0.08671
60.65 -0.08524
60.7 -0.08347
60.75 -0.08273
60.8 -0.08206
60.85 -0.08207
60.9 -0.08197
60.95 -0.08232
61 -0.08281
61.05 -0.08245
61.1 -0.08123
61.15 -0.08024
61.2 -0.07895
61.25 -0.0776
61.3 -0.07602
61.35 -0.0754
61.4 -0.07486
61.45 -0.0744
61.5 -0.07462
61.55 -0.07314
61.6 -0.07201
61.65 -0.07106
61.7 -0.06887
61.75 -0.06722
61.8 -0.06643
61.85 -0.06506
61.9 -0.06337
61.95 -0.06217
62 -0.06095
62.05 -0.0595
62.1 -0.05809
62.15 -0.05634
62.2 -0.05592
62.25 -0.05618
62.3 -0.05708
62.35 -0.05652
62.4 -0.05524
62.45 -0.05491
62.5 -0.0548
62.55 -0.05363
62.6 -0.05297
62.65 -0.05165
62.7 -0.05155
62.75 -0.05053
62.8 -0.04955
62.85 -0.0494
62.9 -0.04952
62.95 -0.04975
63 -0.04928
63.05 -0.04936
63.1 -0.04867
63.15 -0.04663
63.2 -0.04393
63.25 -0.04091
63.3 -0.03998
63.35 -0.03891
63.4 -0.03736
63.45 -0.03751
63.5 -0.03659
63.55 -0.03518
63.6 -0.03545
63.65 -0.03633
63.7 -0.03768
63.75 -0.03876
63.8 -0.03928
63.85 -0.03995
63.9 -0.04059
63.95 -0.04052
64 -0.04008
64.05 -0.03882
64.1 -0.03747
64.15 -0.03635
64.2 -0.03576
64.25 -0.03561
64.3 -0.03545
64.35 -0.03502
64.4 -0.03522
64.45 -0.03401
64.5 -0.03209
64.55 -0.03126
64.6 -0.03031
64.65 -0.02944
64.7 -0.02813
64.75 -0.02608
64.8 -0.02462
64.85 -0.02261
64.9 -0.02054
64.95 -0.0186
65 -0.0176
65.05 -0.01846
65.1 -0.01963
65.15 -0.02135
65.2 -0.02311
65.25 -0.02378
65.3 -0.02503
65.35 -0.02602
65.4 -0.02649
65.45 -0.02676
65.5 -0.02723
65.55 -0.02679
65.6 -0.02603
65.65 -0.02532
65.7 -0.02323
65.75 -0.02099
65.8 -0.01876
65.85 -0.01821
65.9 -0.01786
65.95 -0.0177
66 -0.0167
66.05 -0.01646
66.1 -0.01706
66.15 -0.01745
66.2 -0.0168
66.25 -0.01722
66.3 -0.0172
66.35 -0.01724
66.4 -0.0165
66.45 -0.01673
66.5 -0.01556
66.55 -0.01376
66.6 -0.01155
66.65 -0.01022
66.7 -0.01013
66.75 -0.01131
66.8 -0.01239
66.85 -0.01372
66.9 -0.01362
66.95 -0.01411
67 -0.01488
67.05 -0.01468
67.1 -0.01491
67.15 -0.0156
67.2 -0.01665
67.25 -0.01702
67.3 -0.0164
67.35 -0.01488
67.4 -0.0142
67.45 -0.01349
67.5 -0.0123
67.55 -0.01144
67.6 -0.01118
67.65 -0.01099
67.7 -0.01087
67.75 -0.01003
67.8 -0.01027
67.85 -0.01042
67.9 -0.01045
67.95 -0.01093
68 -0.01109
68.05 -0.00995
68.1 -0.00898
68.15 -0.00731
68.2 -0.00536
68.25 -0.00505
68.3 -0.00402
68.35 -0.0026
68.4 -0.00131
68.45 -0.0016
68.5 -0.00284
68.55 -0.00491
68.6 -0.0074
68.65 -0.00996
68.7 -0.01111
68.75 -0.01075
68.8 -0.01008
68.85 -0.00894
68.9 -0.00898
68.95 -0.00866
69 -0.00864
69.05 -0.00829
69.1 -0.00729
69.15 -0.00759
69.2 -0.00854
69.25 -0.00878
69.3 -0.00845
69.35 -0.00696
69.4 -0.00559
69.45 -0.00439
69.5 -0.00471
69.55 -0.00433
69.6 -0.00409
69.65 -0.00308
69.7 -0.00317
69.75 -0.0037
69.8 -0.00311
69.85 -0.00338
69.9 -0.0029
69.95 -0.00322
70 -0.00326
70.05 -0.00389
70.1 -0.00492
70.15 -0.00578
70.2 -0.00626
70.25 -0.0058
70.3 -0.00639
70.35 -0.00576
70.4 -0.00448
70.45 -0.00441
70.5 -0.0036
70.55 -0.00299
70.6 -0.00211
70.65 -0.00222
70.7 -0.002
70.75 -0.00101
70.8 -0.00008
70.85 -0.00012
70.9 -0.00016
70.95 0.00061
71 0.00121
71.05 0.00055
71.1 0.0004
71.15 -0.00031
71.2 -0.00015
71.25 -0.00088
71.3 -0.002
71.35 -0.00231
71.4 -0.00262
71.45 -0.00327
71.5 -0.00345
71.55 -0.00457
71.6 -0.00542
71.65 -0.00539
71.7 -0.00557
71.75 -0.00529
71.8 -0.00519
71.85 -0.00415
71.9 -0.00407
71.95 -0.00499
72 -0.0058
72.05 -0.00575
72.1 -0.00599
72.15 -0.00568
72.2 -0.00477
72.25 -0.00465
72.3 -0.00363
72.35 -0.00267
72.4 -0.00269
72.45 -0.00162
72.5 0.00003
72.55 0.00196
72.6 0.00209
72.65 0.0018
72.7 0.00215
72.75 0.00286
72.8 0.00206
72.85 0.00116
72.9 0.00053
72.95 -0.00043
73 -0.00224
73.05 -0.00353
73.1 -0.00514
73.15 -0.00689
73.2 -0.00708
73.25 -0.00733
73.3 -0.00739
73.35 -0.00634
73.4 -0.00605
73.45 -0.00525
73.5 -0.00542
73.55 -0.00626
73.6 -0.00582
73.65 -0.00617
73.7 -0.0067
73.75 -0.00625
73.8 -0.00472
73.85 -0.00254
73.9 -0.00181
73.95 -0.00126
74 -0.00074
74.05 -0.00076
74.1 -0.00157
74.15 -0.00203
74.2 -0.00114
74.25 -0.00154
74.3 -0.00212
74.35 -0.00174
74.4 -0.00067
74.45 -0.00088
74.5 -0.00178
74.55 -0.00206
74.6 -0.00168
74.65 -0.00214
74.7 -0.00134
74.75 -0.00165
74.8 -0.00159
74.85 -0.00224
74.9 -0.00195
74.95 -0.00143
75 -0.00005
75.05 0.0014
75.1 0.00239
75.15 0.00182
75.2 0.00166
75.25 0.00114
75.3 0.00162
75.35 0.00122
75.4 0.00093
75.45 -0.00007
75.5 -0.00062
75.55 -0.00137
75.6 -0.00246
75.65 -0.00251
75.7 -0.00196
75.75 -0.0026
75.8 -0.00305
75.85 -0.00332
75.9 -0.00424
75.95 -0.00512
76 -0.0047
76.05 -0.00446
76.1 -0.00331
76.15 -0.00153
76.2 -0.00113
76.25 -0.00093
76.3 0
76.35 0.00044
76.4 0.00135
76.45 0.00106
76.5 0.00008
76.55 -0.00093
76.6 -0.00194
76.65 -0.00152
76.7 -0.0006
76.75 0.00038
76.8 0.00155
76.85 0.00205
76.9 0.003
76.95 0.00402
77 0.00349
77.05 0.00354
77.1 0.00396
77.15 0.00458
77.2 0.00354
77.25 0.00255
77.3 0.00115
77.35 0.00062
77.4 0.00123
77.45 0.00048
77.5 0.0003
77.55 0.00014
77.6 0.00047
77.65 0.00033
77.7 -0.00054
77.75 -0.00062
77.8 -0.00105
77.85 -0.00219
77.9 -0.00203
77.95 -0.0018
78 -0.00198
78.05 -0.00279
78.1 -0.00386
78.15 -0.00451
78.2 -0.00352
78.25 -0.00153
78.3 -0.0003
78.35 0.0008
78.4 0.00171
78.45 0.00203
78.5 0.00266
78.55 0.00242
78.6 0.00237
78.65 0.00201
78.7 0.00146
78.75 0.00074
78.8 -0.00052
78.85 -0.00162
78.9 -0.0032
78.95 -0.00365
79 -0.00429
79.05 -0.00401
79.1 -0.00424
79.15 -0.00324
79.2 -0.00312
79.25 -0.00211
79.3 -0.00023
79.35 0.00025
79.4 -0.00028
79.45 -0.00126
79.5 -0.00074
79.55 -0.00145
79.6 -0.00274
79.65 -0.00309
79.7 -0.00376
79.75 -0.00302
79.8 -0.00313
79.85 -0.00346
79.9 -0.00399
79.95 -0.00392
80 -0.00269
80.05 -0.0024
80.1 -0.00129
80.15 -0.0006
80.2 0.00066
80.25 0.00208
80.3 0.00384
80.35 0.00491
80.4 0.00553
80.45 0.00554
80.5 0.00488
80.55 0.00468
80.6 0.00349
80.65 0.00254
80.7 0.00063
80.75 -0.00123
80.8 -0.00206
80.85 -0.0033
80.9 -0.00412
80.95 -0.00478
81 -0.00446
81.05 -0.00292
81.1 -0.00249
81.15 -0.00297
81.2 -0.00258
81.25 -0.00126
81.3 0.00069
81.35 0.00211
81.4 0.00287
81.45 0.00269
81.5 0.00293
81.55 0.0018
81.6 0.00043
81.65 -0.00145
81.7 -0.00247
81.75 -0.00275
81.8 -0.00349
81.85 -0.00469
81.9 -0.00531
81.95 -0.00624
82 -0.00617
82.05 -0.00585
82.1 -0.00455
82.15 -0.00283
82.2 -0.00128
82.25 -0.00023
82.3 0.00018
82.35 0.0006
82.4 0.00138
82.45 0.00211
82.5 0.00263
82.55 0.00386
82.6 0.0034
82.65 0.0032
82.7 0.00207
82.75 0.00183
82.8 0.00062
82.85 -0.00101
82.9 -0.00101
82.95 -0.00173
83 -0.0026
83.05 -0.00295
83.1 -0.00198
83.15 -0.00033
83.2 0.00039
83.25 0.00169
83.3 0.00174
83.35 0.00159
83.4 0.00075
83.45 0.00012
83.5 0.00073
83.55 0.00102
83.6 0.00065
83.65 -0.00023
83.7 -0.00018
83.75 -0.00045
83.8 0.00018
83.85 0.00053
83.9 0.00122
83.95 0.00082
84 0.00013
84.05 0.00024
84.1 -0.00051
84.15 -0.00154
84.2 -0.00167
84.25 -0.00243
84.3 -0.00335
84.35 -0.00259
84.4 -0.00232
84.45 -0.00117
84.5 -0.00137
84.55 -0.002
84.6 -0.00218
84.65 -0.00218
84.7 -0.00131
84.75 0.00036
84.8 0.00252
84.85 0.00361
84.9 0.00401
84.95 0.00472
85 0.00492
85.05 0.00464
85.1 0.00337
85.15 0.00172
85.2 -0.00021
85.25 -0.00149
85.3 -0.00185
85.35 -0.00087
85.4 0.00026
85.45 0.00057
85.5 0.00121
85.55 0.00143
85.6 0.00199
85.65 0.00148
85.7 0.00162
85.75 0.00094
85.8 -0.0003
85.85 -0.00197
85.9 -0.00309
85.95 -0.00437
86 -0.004
86.05 -0.00315
86.1 -0.00185
86.15 -0.00092
86.2 0.00035
86.25 0.00024
86.3 -0.00036
86.35 -0.00084
86.4 -0.00056
86.45 -0.00011
86.5 -0.00045
86.55 -0.0009
86.6 -0.00116
86.65 -0.00078
86.7 0.00064
86.75 0.00222
86.8 0.00253
86.85 0.00327
86.9 0.00444
86.95 0.00488
87 0.00562
87.05 0.00626
87.1 0.00528
87.15 0.00508
87.2 0.00465
87.25 0.00437
87.3 0.00288
87.35 0.00088
87.4 -0.00119
87.45 -0.00328
87.5 -0.00406
87.55 -0.00381
87.6 -0.00407
87.65 -0.00497
87.7 -0.00558
87.75 -0.00593
87.8 -0.00668
87.85 -0.00644
87.9 -0.00562
87.95 -0.0045
88 -0.00303
88.05 -0.00192
88.1 -0.0013
88.15 0.00011
88.2 0.0002
88.25 -0.00011
88.3 -0.00065
88.35 -0.00029
88.4 -0.00013
88.45 -0.00101
88.5 -0.00187
88.55 -0.00306
88.6 -0.00428
88.65 -0.00461
88.7 -0.00519
88.75 -0.0059
88.8 -0.00593
88.85 -0.00445
88.9 -0.00375
88.95 -0.00199
89 -0.00153
89.05 -0.00085
89.1 0.00033
89.15 0.00137
89.2 0.0012
89.25 0.00175
89.3 0.00171
89.35 0.00271
89.4 0.00323
89.45 0.00381
89.5 0.00343
89.55 0.00243
89.6 0.00104
89.65 0.00121
89.7 0.00161
89.75 0.00274
89.8 0.00231
89.85 0.00292
89.9 0.00365
89.95 0.00453
90 0.00511
90.05 0.00511
90.1 0.00515
90.15 0.00544
90.2 0.00486
90.25 0.005
90.3 0.00361
90.35 0.00223
90.4 0.00046
90.45 -0.00048
90.5 -0.00076
90.55 -0.00131
90.6 -0.00046
90.65 0.0011
90.7 0.00289
90.75 0.00473
90.8 0.00474
90.85 0.00409
90.9 0.00344
90.95 0.00191
91 0.00061
91.05 -0.00012
91.1 -0.00056
91.15 -0.00123
91.2 -0.001
91.25 -0.00025
91.3 0.00091
91.35 0.00117
91.4 0.00189
91.45 0.0019
91.5 0.00188
91.55 0.00088
91.6 0.00037
91.65 0.00013
91.7 0.00053
91.75 0.00104
91.8 0.00031
91.85 -0.00033
91.9 -0.00005
91.95 -0.00018
92 -0.0009
92.05 -0.00055
92.1 0.00002
92.15 -0.00023
92.2 -0.00135
92.25 -0.00222
92.3 -0.00355
92.35 -0.00306
92.4 -0.00284
92.45 -0.00239
92.5 -0.0015
92.55 -0.00127
92.6 -0.00183
92.65 -0.00225
92.7 -0.00274
92.75 -0.00247
92.8 -0.00175
92.85 -0.00031
92.9 0.00099
92.95 0.00124
93 0.00195
93.05 0.0029
93.1 0.00217
93.15 0.0008
93.2 -0.00036
93.25 -0.00068
93.3 -0.00079
93.35 0.0002
93.4 0.00038
93.45 -0.00046
93.5 -0.00104
93.55 -0.00047
93.6 -0.00076
93.65 -0.00003
93.7 0.00069
93.75 0.00101
93.8 0.00012
93.85 -0.00045
93.9 -0.00179
93.95 -0.00256
94 -0.00187
94.05 -0.00165
94.1 -0.00043
94.15 0.00131
94.2 0.00221
94.25 0.00281
94.3 0.00251
94.35 0.00301
94.4 0.00313
94.45 0.00265
94.5 0.00117
94.55 0.0001
94.6 -0.00052
94.65 -0.00146
94.7 -0.00158
94.75 -0.00187
94.8 -0.00131
94.85 -0.00185
94.9 -0.00278
94.95 -0.00242
95 -0.00232
95.05 -0.00304
95.1 -0.00422
95.15 -0.00513
95.2 -0.00459
95.25 -0.00301
95.3 -0.00118
95.35 -0.00035
95.4 -0.00075
95.45 -0.00113
95.5 -0.00134
95.55 -0.00232
95.6 -0.00168
95.65 -0.00151
95.7 -0.00158
95.75 -0.00154
95.8 -0.00183
95.85 -0.00249
95.9 -0.00232
95.95 -0.00268
96 -0.00211
96.05 -0.00131
96.1 -0.00101
96.15 -0.00024
96.2 -0.00077
96.25 -0.00161
96.3 -0.00232
96.35 -0.00308
96.4 -0.0036
96.45 -0.00365
96.5 -0.00372
96.55 -0.00241
96.6 -0.00209
96.65 -0.00095
96.7 -0.00033
96.75 0.00057
96.8 0.00013
96.85 -0.00099
96.9 -0.0025
96.95 -0.00252
97 -0.00201
97.05 -0.00038
97.1 0.00018
97.15 -0.00032
97.2 -0.00108
97.25 -0.00244
97.3 -0.00262
97.35 -0.00176
97.4 -0.00112
97.45 -0.00082
97.5 -0.00096
97.55 -0.00163
97.6 -0.00258
97.65 -0.00386
97.7 -0.00374
97.75 -0.00354
97.8 -0.0034
97.85 -0.00258
97.9 -0.00082
97.95 0.00149
98 0.00216
98.05 0.00217
98.1 0.00177
98.15 0.00157
98.2 0.00179
98.25 0.00136
98.3 0.00171
98.35 0.00279
98.4 0.00308
98.45 0.00254
98.5 0.00218
98.55 0.00088
98.6 0.00095
98.65 0.00095
98.7 0.00008
98.75 -0.00024
98.8 -0.00028
98.85 0.00002
98.9 -0.00006
98.95 0.00088
99 0.00202
99.05 0.00235
99.1 0.00175
99.15 0.00103
99.2 -0.0002
99.25 -0.00116
99.3 -0.00191
99.35 -0.00191
99.4 -0.00133
99.45 -0.00179
99.5 -0.00138
99.55 -0.0004
99.6 0.00039
99.65 -0.00001
99.7 -0.00116
99.75 -0.0011
99.8 -0.00046
99.85 -0.00049
99.9 -0.00111
99.95 -0.00202
