0 0
0.05 0.0003
0.1 0.00071
0.15 0.00106
0.2 0.0012
0.25 0.00121
0.3 0.00158
0.35 0.00198
0.4 0.00209
0.45 0.00249
0.5 0.00321
0.55 0.00412
0.6 0.00441
0.65 0.00429
0.7 0.00387
0.75 0.00335
0.8 0.0029
0.85 0.00292
0.9 0.00285
0.95 0.00316
1 0.00375
1.05 0.00437
1.1 0.00516
1.15 0.00544
1.2 0.00523
1.25 0.00519
1.3 0.00472
1.35 0.00432
1.4 0.00437
1.45 0.00477
1.5 0.00496
1.55 0.00476
1.6 0.00431
1.65 0.0037
1.7 0.00355
1.75 0.00375
1.8 0.00364
1.85 0.00391
1.9 0.00361
1.95 0.00357
2 0.00357
2.05 0.00347
2.1 0.00323
2.15 0.00271
2.2 0.00197
2.25 0.00136
2.3 0.00129
2.35 0.00126
2.4 0.00101
2.45 0.00133
2.5 0.00205
2.55 0.00243
2.6 0.00251
2.65 0.00261
2.7 0.00314
2.75 0.00386
2.8 0.0042
2.85 0.0043
2.9 0.00415
2.95 0.00424
3 0.00443
3.05 0.00406
3.1 0.00329
3.15 0.00232
3.2 0.00138
3.25 0.001
3.3 0.00118
3.35 0.00147
3.4 0.00177
3.45 0.00219
3.5 0.00258
3.55 0.00323
3.6 0.00355
3.65 0.00341
3.7 0.00361
3.75 0.00329
3.8 0.00339
3.85 0.00374
3.9 0.00351
3.95 0.00343
4 0.00306
4.05 0.00258
4.1 0.00179
4.15 0.00089
4.2 0.00024
4.25 0.00017
4.3 -0.00006
4.35 -0.00004
4.4 0.00036
4.45 0.00032
4.5 0.00029
4.55 0.00061
4.6 0.00089
4.65 0.0008
4.7 0.0008
4.75 0.0007
4.8 0.00114
4.85 0.00154
4.9 0.00158
4.95 0.00115
5 0.00057
5.05 0.00044
5.1 0.00069
5.15 0.00104
5.2 0.00094
5.25 0.00073
5.3 0.00086
5.35 0.00139
5.4 0.0013
5.45 0.0008
5.5 0.00059
5.55 0.00067
5.6 0.00054
5.65 0.00067
5.7 0.00114
5.75 0.00184
5.8 0.00183
5.85 0.00204
5.9 0.0017
5.95 0.00105
6 0.00079
6.05 0.00051
6.1 0.00057
6.15 0.00087
6.2 0.00066
6.25 0.00064
6.3 0.00101
6.35 0.00079
6.4 0.00037
6.45 0.00058
6.5 0.00116
6.55 0.00119
6.6 0.00127
6.65 0.00144
6.7 0.00185
6.75 0.00232
6.8 0.00206
6.85 0.00143
6.9 0.00068
6.95 0.00019
7 -0.00024
7.05 -0.0005
7.1 -0.00013
7.15 0.00051
7.2 0.00106
7.25 0.0017
7.3 0.00161
7.35 0.00191
7.4 0.00217
7.45 0.00259
7.5 0.00257
7.55 0.00249
7.6 0.00271
7.65 0.00294
7.7 0.00317
7.75 0.00279
7.8 0.00255
7.85 0.00197
7.9 0.00122
7.95 0.00111
8 0.00092
8.05 0.00056
8.1 0.0001
8.15 -0.00053
8.2 -0.00099
8.25 -0.00085
8.3 -0.00094
8.35 -0.00093
8.4 -0.00061
8.45 -0.00061
8.5 -0.00055
8.55 -0.00039
8.6 -0.00066
8.65 -0.00066
8.7 -0.00095
8.75 -0.00072
8.8 -0.00041
8.85 0.00017
8.9 0.00054
8.95 0.0008
9 0.00115
9.05 0.00132
9.1 0.001
9.15 0.00041
9.2 0.00026
9.25 0.00053
9.3 0.0007
9.35 0.0009
9.4 0.00131
9.45 0.00159
9.5 0.00181
9.55 0.00144
9.6 0.00143
9.65 0.00136
9.7 0.00124
9.75 0.00134
9.8 0.00119
9.85 0.00121
9.9 0.00135
9.95 0.00155
10 0.00125
10.05 0.00076
10.1 0.00072
10.15 0.00106
10.2 0.00079
10.25 0.00054
10.3 -0.00009
10.35 -0.00038
10.4 -0.00009
10.45 0.00043
10.5 0.00085
10.55 0.00113
10.6 0.00098
10.65 0.00096
10.7 0.00076
10.75 0.00046
10.8 0.00025
10.85 0.00021
10.9 -0.00019
10.95 -0.00031
11 -0.00005
11.05 -0.00032
11.1 -0.00017
11.15 -0.00008
11.2 0.00013
11.25 0.00068
11.3 0.00137
11.35 0.00202
11.4 0.0026
11.45 0.00249
11.5 0.00225
11.55 0.00203
11.6 0.00167
11.65 0.00129
11.7 0.00071
11.75 0.00041
11.8 0.0003
11.85 -0.00016
11.9 -0.00052
11.95 -0.00063
12 -0.0009
12.05 -0.00066
12.1 -0.00093
12.15 -0.00125
12.2 -0.00157
12.25 -0.0021
12.3 -0.00264
12.35 -0.00294
12.4 -0.00283
12.45 -0.00236
12.5 -0.00176
12.55 -0.0013
12.6 -0.00086
12.65 -0.0006
12.7 -0.00028
12.75 -0.00033
12.8 -0.00028
12.85 -0.0001
12.9 0.00014
12.95 0.00067
13 0.00119
13.05 0.00108
13.1 0.00067
13.15 0.00069
13.2 0.00027
13.25 -0.0004
13.3 -0.00107
13.35 -0.00159
13.4 -0.00187
13.45 -0.00205
13.5 -0.00183
13.55 -0.00118
13.6 -0.00107
13.65 -0.00071
13.7 -0.00024
13.75 0.00031
13.8 0.0009
13.85 0.00135
13.9 0.00121
13.95 0.00091
14 0.00094
14.05 0.00085
14.1 0.00057
14.15 0.00012
14.2 0.00011
14.25 0.00045
14.3 0.00019
14.35 0.00036
14.4 0.00021
14.45 0.00015
14.5 -0.00035
14.55 -0.0002
14.6 0.00015
14.65 0.00059
14.7 0.00086
14.75 0.00132
14.8 0.0011
14.85 0.00043
14.9 0.00031
14.95 0.0006
15 0.00071
15.05 0.00086
15.1 0.00078
15.15 0.00069
15.2 0.00057
15.25 0.00088
15.3 0.00098
15.35 0.00077
15.4 0.00063
15.45 0.00056
15.5 0.00068
15.55 0.00062
15.6 0.00059
15.65 0.00064
15.7 0.00062
15.75 0.00064
15.8 0.00055
15.85 0.00026
15.9 -0.00008
15.95 0.00012
16 -0.00012
16.05 0
16.1 -0.00013
16.15 -0.0005
16.2 -0.0009
16.25 -0.00077
16.3 -0.00054
16.35 -0.00044
16.4 -0.00026
16.45 -0.00032
16.5 -0.00018
16.55 -0.0003
16.6 -0.00076
16.65 -0.00082
16.7 -0.00086
16.75 -0.00094
16.8 -0.00085
16.85 -0.00061
16.9 -0.00081
16.95 -0.00069
17 -0.00046
17.05 -0.00059
17.1 -0.00098
17.15 -0.00099
17.2 -0.00053
17.25 0.00013
17.3 0.00057
17.35 0.0004
17.4 0.00007
17.45 -0.00048
17.5 -0.00061
17.55 -0.00025
17.6 -0.00013
17.65 -0.00014
17.7 -0.00021
17.75 0.00001
17.8 -0.00001
17.85 0.00028
17.9 0.00081
17.95 0.00147
18 0.00219
18.05 0.00214
18.1 0.00214
18.15 0.00211
18.2 0.00158
18.25 0.00108
18.3 0.00092
18.35 0.00104
18.4 0.0012
18.45 0.00117
18.5 0.00091
18.55 0.00088
18.6 0.00084
18.65 0.00106
18.7 0.00086
18.75 0.00097
18.8 0.0005
18.85 0.0002
18.9 -0.00044
18.95 -0.00126
19 -0.00177
19.05 -0.00204
19.1 -0.00202
19.15 -0.00162
19.2 -0.0016
19.25 -0.00152
19.3 -0.00174
19.35 -0.00188
19.4 -0.0019
19.45 -0.00211
19.5 -0.00251
19.55 -0.00245
19.6 -0.00227
19.65 -0.00183
19.7 -0.00107
19.75 -0.00011
19.8 0.00041
19.85 0.00054
19.9 0.00096
19.95 0.00097
20 0.00102
20.05 0.00068
20.1 0.00034
20.15 -0.00022
20.2 -0.0004
20.25 -0.00049
20.3 -0.00083
20.35 -0.00064
20.4 -0.00013
20.45 0.0001
20.5 0.00027
20.55 -0.00007
20.6 0.00011
20.65 0.00011
20.7 0.00028
20.75 0.00079
20.8 0.00061
20.85 0.00077
20.9 0.0004
20.95 -0.00009
21 -0.00053
21.05 -0.0005
21.1 -0.00079
21.15 -0.00093
21.2 -0.00081
21.25 -0.00065
21.3 -0.00036
21.35 0.00017
21.4 0.00048
21.45 0.00073
21.5 0.00067
21.55 0.00042
21.6 0.00031
21.65 0.00003
21.7 -0.00045
21.75 -0.00063
21.8 -0.00066
21.85 -0.00084
21.9 -0.00046
21.95 -0.00026
22 -0.0004
22.05 -0.00051
22.1 -0.00092
22.15 -0.00066
22.2 -0.00028
22.25 0.00025
22.3 0.00061
22.35 0.00074
22.4 0.00118
22.45 0.00091
22.5 0.00093
22.55 0.00073
22.6 0.0006
22.65 0.00061
22.7 0.00024
22.75 0.0001
22.8 -0.00023
22.85 -0.00069
22.9 -0.00055
22.95 -0.0005
23 -0.00042
23.05 -0.00054
23.1 -0.00073
23.15 -0.0008
23.2 -0.00066
23.25 -0.00031
23.3 0.00018
23.35 0.00011
23.4 0.00025
23.45 0.00028
23.5 0.00067
23.55 0.0004
23.6 0.00033
23.65 -0.00012
23.7 -0.00048
23.75 -0.00029
23.8 -0.00021
23.85 -0.0006
23.9 -0.00092
23.95 -0.0007
24 -0.00085
24.05 -0.00068
24.1 -0.00071
24.15 -0.00026
24.2 -0.00017
24.25 -0.00035
24.3 -0
24.35 -0.00017
24.4 -0.00017
24.45 -0.0004
24.5 -0.0006
24.55 -0.0003
24.6 0.00014
24.65 0.00006
24.7 -0.00035
24.75 -0.00079
24.8 -0.00116
24.85 -0.00146
24.9 -0.00191
24.95 -0.00196
25 -0.00224
25.05 -0.00245
25.1 -0.00282
25.15 -0.00304
25.2 -0.00301
25.25 -0.00237
25.3 -0.00207
25.35 -0.00129
25.4 -0.00095
25.45 -0.00024
25.5 -0.00008
25.55 -0.00011
25.6 -0.00041
25.65 -0.00048
25.7 -0.0008
25.75 -0.00129
25.8 -0.00156
25.85 -0.00178
25.9 -0.00137
25.95 -0.00103
26 -0.00031
26.05 0.00043
26.1 0.00087
26.15 0.00131
26.2 0.00158
26.25 0.00167
26.3 0.00124
26.35 0.00063
26.4 0.00026
26.45 0.00029
26.5 0.00003
26.55 0.00011
26.6 0.00018
26.65 0.00035
26.7 0.00087
26.75 0.00097
26.8 0.00101
26.85 0.00124
26.9 0.0011
26.95 0.00067
27 0.00059
27.05 0.00052
27.1 0.00022
27.15 0.00042
27.2 0.00072
27.25 0.00077
27.3 0.00098
27.35 0.00134
27.4 0.00121
27.45 0.00095
27.5 0.00058
27.55 -0.00006
27.6 -0.00039
27.65 -0.00069
27.7 -0.00085
27.75 -0.00062
27.8 -0.00023
27.85 0.00011
27.9 0.00018
27.95 0.0001
28 0.00023
28.05 0.00056
28.1 0.00085
28.15 0.00061
28.2 0.00019
28.25 0.00022
28.3 0.0006
28.35 0.00098
28.4 0.00097
28.45 0.00096
28.5 0.00047
28.55 0.00014
28.6 0.00008
28.65 -0.00022
28.7 0.00004
28.75 -0.00016
28.8 -0.00048
28.85 -0.001
28.9 -0.00149
28.95 -0.00188
29 -0.00165
29.05 -0.00174
29.1 -0.00121
29.15 -0.00059
29.2 -0.00004
29.25 0.00006
29.3 0.00056
29.35 0.00114
29.4 0.00163
29.45 0.0015
29.5 0.00135
29.55 0.00073
29.6 -0.00013
29.65 -0.00076
29.7 -0.00117
29.75 -0.00143
29.8 -0.00111
29.85 -0.0005
29.9 0.00021
29.95 0.00047
30 0.00023
30.05 0.00015
30.1 0.00045
30.15 0.00097
30.2 0.001
30.25 0.00136
30.3 0.00165
30.35 0.0019
30.4 0.00148
30.45 0.00116
30.5 0.00121
30.55 0.00086
30.6 0.00036
30.65 0.00019
30.7 0.00031
30.75 0.00042
30.8 0.0006
30.85 0.00047
30.9 0.00041
30.95 0.00046
31 0.0007
31.05 0.00075
31.1 0.00026
31.15 0
31.2 -0.00031
31.25 -0.00033
31.3 -0.00036
31.35 -0.00069
31.4 -0.00129
31.45 -0.00192
31.5 -0.00232
31.55 -0.00243
31.6 -0.00187
31.65 -0.00122
31.7 -0.00056
31.75 -0.00011
31.8 0.00056
31.85 0.0007
31.9 0.00081
31.95 0.00105
32 0.00093
32.05 0.00035
32.1 -0.00002
32.15 -0.00024
32.2 -0.00042
32.25 -0.00089
32.3 -0.00098
32.35 -0.00069
32.4 -0.00002
32.45 0
32.5 0.00016
32.55 0.00025
32.6 0.00029
32.65 0.0006
32.7 0.00101
32.75 0.00146
32.8 0.00182
32.85 0.002
32.9 0.00196
32.95 0.0017
33 0.00095
33.05 0.00053
33.1 -0.00022
33.15 -0.00058
33.2 -0.00085
33.25 -0.00118
33.3 -0.00147
33.35 -0.00142
33.4 -0.00098
33.45 -0.00072
33.5 -0.00038
33.55 -0.00052
33.6 -0.00029
33.65 -0.00014
33.7 0.00014
33.75 0.00042
33.8 0.00066
33.85 0.00034
33.9 -0.00024
33.95 -0.00091
34 -0.00112
34.05 -0.00144
34.1 -0.00148
34.15 -0.00181
34.2 -0.00206
34.25 -0.00195
34.3 -0.00167
34.35 -0.00169
34.4 -0.00125
34.45 -0.00109
34.5 -0.00057
34.55 -0.0005
34.6 -0.00076
34.65 -0.00093
34.7 -0.0008
34.75 -0.001
34.8 -0.00137
34.85 -0.00185
34.9 -0.00201
34.95 -0.00194
35 -0.00147
35.05 -0.0012
35.1 -0.00068
35.15 -0.0003
35.2 0.00015
35.25 0.0005
35.3 0.0005
35.35 0.00015
35.4 -0.00027
35.45 -0.00054
35.5 -0.00079
35.55 -0.00073
35.6 -0.00076
35.65 -0.00046
35.7 0.00024
35.75 0.00041
35.8 0.00075
35.85 0.00082
35.9 0.00041
35.95 0.00015
36 -0.00027
36.05 -0.00009
36.1 0.00019
36.15 0.00008
36.2 0.00005
36.25 0.0002
36.3 0.00059
36.35 0.00119
36.4 0.00132
36.45 0.00141
36.5 0.00145
36.55 0.00129
36.6 0.00078
36.65 0.00014
36.7 -0.00059
36.75 -0.00055
36.8 -0.00067
36.85 -0.00078
36.9 -0.00093
36.95 -0.0006
37 -0.00018
37.05 -0.00012
37.1 -0.00026
37.15 0.00012
37.2 0.00074
37.25 0.00102
37.3 0.00132
37.35 0.00147
37.4 0.00147
37.45 0.00138
37.5 0.00113
37.55 0.00069
37.6 0.00067
37.65 0.00035
37.7 0.00004
37.75 -0.00059
37.8 -0.00117
37.85 -0.00108
37.9 -0.00069
37.95 -0.0006
38 -0.0008
38.05 -0.00121
38.1 -0.00162
38.15 -0.0021
38.2 -0.00228
38.25 -0.00194
38.3 -0.00185
38.35 -0.00163
38.4 -0.00131
38.45 -0.00053
38.5 -0.00024
38.55 -0.00045
38.6 -0.0007
38.65 -0.00034
38.7 -0.00028
38.75 -0.00011
38.8 0.00021
38.85 0.0001
38.9 -0.00004
38.95 0.00027
39 0.00004
39.05 0.00028
39.1 0.00034
39.15 0.00017
39.2 -0.00018
39.25 -0.00033
39.3 -0.00029
39.35 -0
39.4 0.00028
39.45 0.00079
39.5 0.00114
39.55 0.00151
39.6 0.00155
39.65 0.00181
39.7 0.00175
39.75 0.00162
39.8 0.00159
39.85 0.00148
39.9 0.00091
39.95 0.00044
40 0.00002
40.05 0.00005
40.1 0.00032
40.15 0.00065
40.2 0.00049
40.25 0.0003
40.3 0.00035
40.35 0.00044
40.4 0.00065
40.45 0.00105
40.5 0.00146
40.55 0.00196
40.6 0.00251
40.65 0.00293
40.7 0.00326
40.75 0.00306
40.8 0.00247
40.85 0.00177
40.9 0.00136
40.95 0.0013
41 0.00102
41.05 0.00105
41.1 0.00093
41.15 0.00069
41.2 0.00035
41.25 0.0002
41.3 0.00015
41.35 0.0002
41.4 0.00017
41.45 0.00005
41.5 -0.00024
41.55 -0.00085
41.6 -0.00103
41.65 -0.00121
41.7 -0.00155
41.75 -0.00159
41.8 -0.00157
41.85 -0.00143
41.9 -0.00158
41.95 -0.00172
42 -0.002
42.05 -0.00181
42.1 -0.00113
42.15 -0.00087
42.2 -0.00065
42.25 -0.00059
42.3 -0.00043
42.35 -0.00066
42.4 -0.0004
42.45 0.0001
42.5 0.00033
42.55 0.00089
42.6 0.00085
42.65 0.0005
42.7 0.00025
42.75 0.00011
42.8 -0.00023
42.85 -0.00067
42.9 -0.00077
42.95 -0.00066
43 -0.00013
43.05 0.00043
43.1 0.00101
43.15 0.00121
43.2 0.00079
43.25 0.00024
43.3 -0.00016
43.35 -0.00004
43.4 -0.00006
43.45 -0.00007
43.5 -0.00027
43.55 -0.00008
43.6 -0.00011
43.65 -0.00025
43.7 -0.00052
43.75 -0.00046
43.8 -0.00056
43.85 -0.00041
43.9 -0.00034
43.95 -0.00014
44 -0.00003
44.05 0.00045
44.1 0.0003
44.15 -0.00022
44.2 -0.00028
44.25 -0.00058
44.3 -0.0008
44.35 -0.0005
44.4 -0.0005
44.45 -0.00032
44.5 0.00023
44.55 0.00027
44.6 -0.00005
44.65 -0.00065
44.7 -0.00069
44.75 -0.00084
44.8 -0.00127
44.85 -0.00136
44.9 -0.00093
44.95 -0.00042
45 0.00011
45.05 0.00029
45.1 0.00067
45.15 0.00116
45.2 0.0016
45.25 0.0016
45.3 0.00192
45.35 0.00158
45.4 0.00104
45.45 0.00103
45.5 0.00097
45.55 0.00122
45.6 0.00161
45.65 0.00203
45.7 0.00187
45.75 0.0016
45.8 0.00092
45.85 0.00079
45.9 0.00068
45.95 0.00046
46 0.00035
46.05 -0.00011
46.1 -0.00069
46.15 -0.00113
46.2 -0.00119
46.25 -0.00092
46.3 -0.00043
46.35 0.00009
46.4 -0
46.45 -0.00028
46.5 -0.00083
46.55 -0.00144
46.6 -0.00173
46.65 -0.00186
46.7 -0.0015
46.75 -0.00091
46.8 -0.00065
46.85 -0.00072
46.9 -0.00072
46.95 -0.00063
47 -0.00019
47.05 -0.00014
47.1 0.00023
47.15 0.00014
47.2 -0.00002
47.25 0.00019
47.3 0.00072
47.35 0.0006
47.4 0.00018
47.45 0.00018
47.5 0.0002
47.55 0.00038
47.6 0.0003
47.65 0.00035
47.7 0.00068
47.75 0.00065
47.8 0.0005
47.85 0.00043
47.9 0.00029
47.95 -0.00011
48 -0.00028
48.05 -0.00081
48.1 -0.00099
48.15 -0.00102
48.2 -0.00105
48.25 -0.001
48.3 -0.00045
48.35 -0.00031
48.4 0.00021
48.45 0.00032
48.5 0.00057
48.55 0.00097
48.6 0.00119
48.65 0.00133
48.7 0.00089
48.75 0.00049
48.8 0.00009
48.85 -0.00002
48.9 0.0001
48.95 0.00003
49 -0.00014
49.05 0.00015
49.1 0.00049
49.15 0.00038
49.2 0.00026
49.25 0.00028
49.3 0.00028
49.35 0.00028
49.4 0.00058
49.45 0.00069
49.5 0.00053
49.55 0.00077
49.6 0.00089
49.65 0.00055
49.7 0.00069
49.75 0.00105
49.8 0.00093
49.85 0.001
49.9 0.00112
49.95 0.00117
50 0.00102
50.05 0.00068
50.1 0.00069
50.15 0.00073
50.2 0.00067
50.25 0.00091
50.3 0.00092
50.35 0.00106
50.4 0.00118
50.45 0.00094
50.5 0.00111
50.55 0.00093
50.6 0.00027
50.65 0.00021
50.7 0.0005
50.75 0.00048
50.8 0.00051
50.85 0.00084
50.9 0.00126
50.95 0.00108
51 0.00056
51.05 0.00035
51.1 0.00008
51.15 -0.0002
51.2 -0.0004
51.25 -0.0002
51.3 -0.00004
51.35 0.00001
51.4 -0.00019
51.45 -0.00046
51.5 -0.00047
51.55 -0.00021
51.6 -0.00007
51.65 0.00031
51.7 0.00007
51.75 0.00028
51.8 0.00049
51.85 0.00025
51.9 -0.00001
51.95 -0.00059
52 -0.00091
52.05 -0.0009
52.1 -0.0005
52.15 -0.00059
52.2 -0.00096
52.25 -0.00143
52.3 -0.00134
52.35 -0.00145
52.4 -0.0015
52.45 -0.00102
52.5 -0.0008
52.55 -0.00029
52.6 -0.00036
52.65 -0.00061
52.7 -0.00108
52.75 -0.0015
52.8 -0.00211
52.85 -0.00277
52.9 -0.0034
52.95 -0.00378
53 -0.00364
53.05 -0.00367
53.1 -0.00329
53.15 -0.0027
53.2 -0.00254
53.25 -0.00259
53.3 -0.00219
53.35 -0.0013
53.4 -0.00029
53.45 0.00075
53.5 0.00176
53.55 0.00262
53.6 0.00327
53.65 0.00305
53.7 0.00243
53.75 0.0016
53.8 0.00093
53.85 0.00066
53.9 0.00016
53.95 -0.0006
54 -0.00088
54.05 -0.00126
54.1 -0.00096
54.15 -0.00086
54.2 -0.00079
54.25 -0.00087
54.3 -0.00096
54.35 -0.00113
54.4 -0.00115
54.45 -0.00101
54.5 -0.00051
54.55 -0.0004
54.6 -0.0001
54.65 0.00052
54.7 0.00056
54.75 0.00075
54.8 0.00104
54.85 0.00147
54.9 0.00204
54.95 0.00188
55 0.0015
55.05 0.00068
55.1 -0.00012
55.15 -0.00034
55.2 -0.00056
55.25 -0.00091
55.3 -0.00087
55.35 -0.00055
55.4 0.00006
55.45 0.00021
55.5 0.0002
55.55 0.00003
55.6 -0.00012
55.65 0.00009
55.7 0.00001
55.75 0.00032
55.8 0.0005
55.85 0.00029
55.9 -0.00029
55.95 -0.00052
56 -0.00083
56.05 -0.00081
56.1 -0.00099
56.15 -0.00064
56.2 -0.00028
56.25 -0.00043
56.3 -0.00077
56.35 -0.00062
56.4 -0.00089
56.45 -0.00125
56.5 -0.00175
56.55 -0.00222
56.6 -0.00228
56.65 -0.00208
56.7 -0.00215
56.75 -0.00193
56.8 -0.00162
56.85 -0.00165
56.9 -0.00177
56.95 -0.00213
57 -0.0019
57.05 -0.00161
57.1 -0.0013
57.15 -0.00124
57.2 -0.00094
57.25 -0.00038
57.3 0.00008
57.35 0.00048
57.4 0.00057
57.45 0.00066
57.5 0.0009
57.55 0.0011
57.6 0.00139
57.65 0.0011
57.7 0.00043
57.75 -0.0002
57.8 -0.00032
57.85 -0.00052
57.9 -0.00073
57.95 -0.00115
58 -0.00097
58.05 -0.00052
58.1 -0.00015
58.15 -0.00033
58.2 -0.00004
58.25 -0
58.3 0.00034
58.35 0.00025
58.4 -0.00021
58.45 -0.00025
58.5 -0.00004
58.55 0.00007
58.6 0.00043
58.65 0.00062
58.7 0.00027
58.75 0.00023
58.8 0.0002
58.85 0.00048
58.9 0.00061
58.95 0.00024
59 -0.0003
59.05 -0.00051
59.1 -0.00046
59.15 -0.0006
59.2 -0.00018
59.25 0.00013
59.3 0.00016
59.35 -0.00008
59.4 -0.00004
59.45 -0.00003
59.5 0.00012
59.55 0.00014
59.6 -0.00008
59.65 -0.00014
59.7 -0.00054
59.75 -0.00097
59.8 -0.0014
59.85 -0.00126
59.9 -0.00129
59.95 -0.00139
60 -0.00139
60.05 -0.00124
60.1 -0.00131
60.15 -0.00111
60.2 -0.0012
60.25 -0.00071
60.3 -0.00008
60.35 0.00052
60.4 0.001
60.45 0.00092
60.5 0.00106
60.55 0.00069
60.6 0.00039
60.65 0.00041
60.7 0.00053
60.75 0.00066
60.8 0.00056
60.85 0.00046
60.9 0.00055
60.95 0.0004
61 0.00022
61.05 0.00051
61.1 0.00076
61.15 0.00114
61.2 0.00152
61.25 0.00144
61.3 0.00101
61.35 0.00044
61.4 -0.00025
61.45 -0.00062
61.5 -0.00122
61.55 -0.00194
61.6 -0.00177
61.65 -0.00165
61.7 -0.00122
61.75 -0.00074
61.8 -0.0003
61.85 0.00014
61.9 0.00002
61.95 0.0002
62 0.0001
62.05 0.00038
62.1 0.00038
62.15 0.00013
62.2 0.00039
62.25 0.00049
62.3 0.00086
62.35 0.0013
62.4 0.00153
62.45 0.00137
62.5 0.00108
62.55 0.00104
62.6 0.00108
62.65 0.00058
62.7 0.00013
62.75 -0.00058
62.8 -0.00113
62.85 -0.00149
62.9 -0.0014
62.95 -0.00112
63 -0.00053
63.05 -0.00011
63.1 -0.00016
63.15 0.00009
63.2 0.00045
63.25 0.00062
63.3 0.0003
63.35 0.00018
63.4 -0.00026
63.45 -0.00081
63.5 -0.00083
63.55 -0.00073
63.6 -0.00047
63.65 -0.00053
63.7 -0.00062
63.75 -0.00027
63.8 0.0004
63.85 0.00067
63.9 0.00064
63.95 0.00091
64 0.00058
64.05 0.00014
64.1 -0.00041
64.15 -0.00055
64.2 -0.00038
64.25 -0.00049
64.3 -0.00059
64.35 -0.00066
64.4 -0.00071
64.45 -0.00041
64.5 -0.00001
64.55 0.00015
64.6 0.00062
64.65 0.00118
64.7 0.00175
64.75 0.00204
64.8 0.00165
64.85 0.00103
64.9 0.00047
64.95 0.00028
65 0.0004
65.05 0.00012
65.1 -0.00012
65.15 -0.00058
65.2 -0.00069
65.25 -0.00067
65.3 -0.00097
65.35 -0.00142
65.4 -0.00115
65.45 -0.00074
65.5 -0.00012
65.55 0.00008
65.6 0.00003
65.65 -0.00011
65.7 0.00008
65.75 0.00018
65.8 -0.00013
65.85 -0.00073
65.9 -0.00073
65.95 -0.00102
66 -0.0014
66.05 -0.00136
66.1 -0.00112
66.15 -0.00125
66.2 -0.001
66.25 -0.00039
66.3 0.00003
66.35 0.00006
66.4 -0.00031
66.45 -0.00069
66.5 -0.00121
66.55 -0.00177
66.6 -0.00178
66.65 -0.00172
66.7 -0.00144
66.75 -0.00073
66.8 0.00017
66.85 0.00108
66.9 0.0014
66.95 0.00136
67 0.00134
67.05 0.00137
67.1 0.00091
67.15 0.00033
67.2 0.00021
67.25 0.00041
67.3 0.00038
67.35 0.00047
67.4 0.00092
67.45 0.00141
67.5 0.00198
67.55 0.00192
67.6 0.00136
67.65 0.00101
67.7 0.00082
67.75 0.00074
67.8 0.00096
67.85 0.00095
67.9 0.00051
67.95 0.00001
68 -0.00011
68.05 0.00028
68.1 0.00014
68.15 -0.00015
68.2 -0.00064
68.25 -0.00084
68.3 -0.00111
68.35 -0.00114
68.4 -0.00083
68.45 -0.00048
68.5 -0.00018
68.55 0.00028
68.6 0.00061
68.65 0.0009
68.7 0.0008
68.75 0.00098
68.8 0.00128
68.85 0.00105
68.9 0.00073
68.95 0.00058
69 0.00021
69.05 0.00029
69.1 0.00064
69.15 0.00092
69.2 0.00133
69.25 0.00171
69.3 0.00177
69.35 0.00174
69.4 0.00185
69.45 0.00132
69.5 0.00098
69.55 0.00099
69.6 0.00111
69.65 0.0015
69.7 0.00144
69.75 0.00144
69.8 0.00123
69.85 0.00127
69.9 0.00081
69.95 0.00007
70 -0.00005
70.05 -0.00031
70.1 -0.00062
70.15 -0.00076
70.2 -0.00118
70.25 -0.00181
70.3 -0.00198
70.35 -0.00175
70.4 -0.00125
70.45 -0.00073
70.5 0.00004
70.55 0.00014
70.6 0.00039
70.65 0.00008
70.7 0.00002
70.75 0.00025
70.8 0.00021
70.85 0.0002
70.9 -0.00019
70.95 -0.0001
71 0.00033
71.05 0.00099
71.1 0.00094
71.15 0.00106
71.2 0.00075
71.25 0.00012
71.3 -0.00047
71.35 -0.00068
71.4 -0.00085
71.45 -0.00134
71.5 -0.00172
71.55 -0.00162
71.6 -0.00186
71.65 -0.00206
71.7 -0.0019
71.75 -0.00153
71.8 -0.00123
71.85 -0.00091
71.9 -0.00089
71.95 -0.00073
72 -0.00053
72.05 -0.00061
72.1 -0.0008
72.15 -0.00128
72.2 -0.00202
72.25 -0.00315
72.3 -0.00418
72.35 -0.00574
72.4 -0.00682
72.45 -0.00806
72.5 -0.00907
72.55 -0.01074
72.6 -0.01257
72.65 -0.01519
72.7 -0.01835
72.75 -0.02214
72.8 -0.0257
72.85 -0.02962
72.9 -0.03419
72.95 -0.03942
73 -0.04503
73.05 -0.05094
73.1 -0.0581
73.15 -0.06612
73.2 -0.07453
73.25 -0.08357
73.3 -0.09306
73.35 -0.10332
73.4 -0.1147
73.45 -0.12671
73.5 -0.13872
73.55 -0.15139
73.6 -0.16447
73.65 -0.17815
73.7 -0.19157
73.75 -0.20473
73.8 -0.21774
73.85 -0.23025
73.9 -0.24209
73.95 -0.25294
74 -0.26287
74.05 -0.27153
74.1 -0.27857
74.15 -0.28369
74.2 -0.28722
74.25 -0.28908
74.3 -0.28895
74.35 -0.2864
74.4 -0.28154
74.45 -0.27471
74.5 -0.26574
74.55 -0.25506
74.6 -0.24214
74.65 -0.22733
74.7 -0.21052
74.75 -0.19276
74.8 -0.17389
74.85 -0.15383
74.9 -0.13356
74.95 -0.11287
75 -0.09242
75.05 -0.07239
75.1 -0.05263
75.15 -0.03333
75.2 -0.01457
75.25 0.00307
75.3 0.02019
75.35 0.03597
75.4 0.05087
75.45 0.06433
75.5 0.07585
75.55 0.08574
75.6 0.09463
75.65 0.10288
75.7 0.10984
75.75 0.11566
75.8 0.12128
75.85 0.12664
75.9 0.13164
75.95 0.13565
76 0.13953
76.05 0.1433
76.1 0.14662
76.15 0.14992
76.2 0.15368
76.25 0.15791
76.3 0.16232
76.35 0.16702
76.4 0.17244
76.45 0.17816
76.5 0.18367
76.55 0.18901
76.6 0.19455
76.65 0.2003
76.7 0.20631
76.75 0.21163
76.8 0.21694
76.85 0.22153
76.9 0.22539
76.95 0.2292
77 0.2322
77.05 0.23477
77.1 0.23626
77.15 0.23715
77.2 0.2373
77.25 0.23686
77.3 0.23593
77.35 0.23459
77.4 0.23233
77.45 0.22944
77.5 0.22597
77.55 0.22156
77.6 0.21616
77.65 0.21085
77.7 0.20509
77.75 0.19895
77.8 0.19255
77.85 0.18599
77.9 0.17935
77.95 0.17255
78 0.16515
78.05 0.15822
78.1 0.15139
78.15 0.14452
78.2 0.13784
78.25 0.13081
78.3 0.1236
78.35 0.11709
78.4 0.11111
78.45 0.10485
78.5 0.09869
78.55 0.09302
78.6 0.08751
78.65 0.08236
78.7 0.07752
78.75 0.07312
78.8 0.06864
78.85 0.06391
78.9 0.05937
78.95 0.05488
79 0.05016
79.05 0.04571
79.1 0.04188
79.15 0.03809
79.2 0.03437
79.25 0.0308
79.3 0.02721
79.35 0.02413
79.4 0.02113
79.45 0.01793
79.5 0.01526
79.55 0.01252
79.6 0.01027
79.65 0.00777
79.7 0.00572
79.75 0.00386
79.8 0.00189
79.85 0.00032
79.9 -0.00107
79.95 -0.00227
80 -0.00376
80.05 -0.00581
80.1 -0.00766
80.15 -0.00951
80.2 -0.01121
80.25 -0.01259
80.3 -0.01385
80.35 -0.01508
80.4 -0.01647
80.45 -0.01845
80.5 -0.0202
80.55 -0.02226
80.6 -0.02366
80.65 -0.02508
80.7 -0.02659
80.75 -0.02795
80.8 -0.02949
80.85 -0.03063
80.9 -0.03143
80.95 -0.03214
81 -0.03295
81.05 -0.03376
81.1 -0.0343
81.15 -0.03445
81.2 -0.03502
81.25 -0.03531
81.3 -0.0357
81.35 -0.03594
81.4 -0.03649
81.45 -0.03641
81.5 -0.03601
81.55 -0.03599
81.6 -0.03609
81.65 -0.03653
81.7 -0.03683
81.75 -0.03684
81.8 -0.03712
81.85 -0.03685
81.9 -0.03666
81.95 -0.03605
82 -0.03537
82.05 -0.03451
82.1 -0.03436
82.15 -0.03393
82.2 -0.03341
82.25 -0.03301
82.3 -0.03286
82.35 -0.03261
82.4 -0.03259
82.45 -0.03252
82.5 -0.03214
82.55 -0.03218
82.6 -0.03213
82.65 -0.03181
82.7 -0.03139
82.75 -0.0313
82.8 -0.03097
82.85 -0.03055
82.9 -0.03037
82.95 -0.03049
83 -0.03043
83.05 -0.03046
83.1 -0.03041
83.15 -0.03014
83.2 -0.02995
83.25 -0.02968
83.3 -0.02891
83.35 -0.02845
83.4 -0.02832
83.45 -0.02836
83.5 -0.02762
83.55 -0.02729
83.6 -0.0271
83.65 -0.02703
83.7 -0.02637
83.75 -0.02551
83.8 -0.02478
83.85 -0.02387
83.9 -0.02319
83.95 -0.02226
84 -0.02184
84.05 -0.02106
84.1 -0.0204
84.15 -0.01959
84.2 -0.01893
84.25 -0.01824
84.3 -0.01817
84.35 -0.01811
84.4 -0.01841
84.45 -0.01862
84.5 -0.01875
84.55 -0.01857
84.6 -0.01852
84.65 -0.01874
84.7 -0.01838
84.75 -0.01821
84.8 -0.01788
84.85 -0.01735
84.9 -0.01676
84.95 -0.01591
85 -0.01544
85.05 -0.01526
85.1 -0.0151
85.15 -0.01512
85.2 -0.01471
85.25 -0.01461
85.3 -0.01471
85.35 -0.01502
85.4 -0.01537
85.45 -0.01529
85.5 -0.01534
85.55 -0.01473
85.6 -0.01385
85.65 -0.01315
85.7 -0.01255
85.75 -0.01246
85.8 -0.01197
85.85 -0.01192
85.9 -0.01146
85.95 -0.01121
86 -0.01131
86.05 -0.01176
86.1 -0.01172
86.15 -0.01205
86.2 -0.01256
86.25 -0.01248
86.3 -0.01204
86.35 -0.012
86.4 -0.01192
86.45 -0.01144
86.5 -0.01093
86.55 -0.01034
86.6 -0.01015
86.65 -0.01036
86.7 -0.01081
86.75 -0.01121
86.8 -0.01095
86.85 -0.01023
86.9 -0.00924
86.95 -0.00848
87 -0.00839
87.05 -0.0087
87.1 -0.00858
87.15 -0.00834
87.2 -0.00779
87.25 -0.00781
87.3 -0.00809
87.35 -0.00823
87.4 -0.00787
87.45 -0.00781
87.5 -0.00782
87.55 -0.00793
87.6 -0.0081
87.65 -0.00808
87.7 -0.0076
87.75 -0.00753
87.8 -0.00709
87.85 -0.00706
87.9 -0.0073
87.95 -0.00743
88 -0.00694
88.05 -0.00675
88.1 -0.00685
88.15 -0.00702
88.2 -0.00682
88.25 -0.00618
88.3 -0.00601
88.35 -0.00576
88.4 -0.00589
88.45 -0.00589
88.5 -0.00547
88.55 -0.00513
88.6 -0.00454
88.65 -0.00397
88.7 -0.00409
88.75 -0.00418
88.8 -0.00439
88.85 -0.00437
88.9 -0.00425
88.95 -0.00381
89 -0.00322
89.05 -0.00335
89.1 -0.00382
89.15 -0.00424
89.2 -0.00413
89.25 -0.00439
89.3 -0.00414
89.35 -0.00426
89.4 -0.00465
89.45 -0.00514
89.5 -0.00494
89.55 -0.00461
89.6 -0.00426
89.65 -0.00437
89.7 -0.00403
89.75 -0.00334
89.8 -0.00306
89.85 -0.00262
89.9 -0.00236
89.95 -0.00265
90 -0.00283
90.05 -0.00319
90.1 -0.00305
90.15 -0.00273
90.2 -0.00232
90.25 -0.00218
90.3 -0.00245
90.35 -0.00221
90.4 -0.00166
90.45 -0.00101
90.5 -0.00038
90.55 0.00022
90.6 0.00069
90.65 0.00048
90.7 0.00008
90.75 -0.00037
90.8 -0.00094
90.85 -0.00131
90.9 -0.00177
90.95 -0.00203
91 -0.00257
91.05 -0.00265
91.1 -0.00247
91.15 -0.00237
91.2 -0.00242
91.25 -0.00213
91.3 -0.00204
91.35 -0.00181
91.4 -0.00192
91.45 -0.00239
91.5 -0.00266
91.55 -0.00245
91.6 -0.00209
91.65 -0.00163
91.7 -0.00147
91.75 -0.00117
91.8 -0.00149
91.85 -0.00155
91.9 -0.00197
91.95 -0.00254
92 -0.00313
92.05 -0.00308
92.1 -0.00282
92.15 -0.00256
92.2 -0.00242
92.25 -0.0022
92.3 -0.00211
92.35 -0.00173
92.4 -0.00119
92.45 -0.00075
92.5 -0.0003
92.55 0.00001
92.6 0.00027
92.65 -0.00012
92.7 -0.00013
92.75 -0.00026
92.8 -0.00021
92.85 0.00004
92.9 -0.00004
92.95 -0.00061
93 -0.00147
93.05 -0.00174
93.1 -0.0022
93.15 -0.00256
93.2 -0.00253
93.25 -0.00264
93.3 -0.00223
93.35 -0.00224
93.4 -0.00191
93.45 -0.00184
93.5 -0.00172
93.55 -0.00133
93.6 -0.00117
93.65 -0.00119
93.7 -0.0014
93.75 -0.00159
93.8 -0.00127
93.85 -0.00142
93.9 -0.00159
93.95 -0.00174
94 -0.0021
94.05 -0.00247
94.1 -0.00246
94.15 -0.00208
94.2 -0.00177
94.25 -0.00148
94.3 -0.0008
94.35 0.00004
94.4 0.00091
94.45 0.00166
94.5 0.00236
94.55 0.00291
94.6 0.00286
94.65 0.00266
94.7 0.00228
94.75 0.00167
94.8 0.00123
94.85 0.001
94.9 0.00091
94.95 0.00049
95 0.00027
95.05 -0.00001
95.1 -0.00019
95.15 -0.00064
95.2 -0.00078
95.25 -0.00054
95.3 -0.00037
95.35 -0.00003
95.4 -0.00002
95.45 -0.00031
95.5 -0.00088
95.55 -0.00083
95.6 -0.00067
95.65 -0.00099
95.7 -0.001
95.75 -0.00075
95.8 -0.00106
95.85 -0.00116
95.9 -0.00121
95.95 -0.0011
96 -0.00108
96.05 -0.00108
96.1 -0.00139
96.15 -0.00113
96.2 -0.00086
96.25 -0.00067
96.3 -0.00083
96.35 -0.00089
96.4 -0.00114
96.45 -0.00099
96.5 -0.00054
96.55 -0.00022
96.6 0.00023
96.65 0.00076
96.7 0.00101
96.75 0.00087
96.8 0.00096
96.85 0.00068
96.9 0.00018
96.95 -0.00052
97 -0.00072
97.05 -0.00057
97.1 -0.00013
97.15 -0.00024
97.2 -0.00012
97.25 -0.00018
97.3 -0.00009
97.35 0.00023
97.4 0.00051
97.45 0.00088
97.5 0.00119
97.55 0.00126
97.6 0.00105
97.65 0.00076
97.7 0.00084
97.75 0.00109
97.8 0.0012
97.85 0.00069
97.9 0.0005
97.95 0.00065
98 0.00069
98.05 0.00024
98.1 0.0003
98.15 0.00039
98.2 0.00074
98.25 0.0007
98.3 0.00016
98.35 -0.00044
98.4 -0.00111
98.45 -0.00113
98.5 -0.00147
98.55 -0.00187
98.6 -0.00196
98.65 -0.0023
98.7 -0.00227
98.75 -0.00242
98.8 -0.00213
98.85 -0.00157
98.9 -0.0009
98.95 -0.00004
99 0.00032
99.05 0.00053
99.1 0.00013
99.15 -0.00055
99.2 -0.00094
99.25 -0.00072
99.3 -0.00098
99.35 -0.00123
99.4 -0.00176
99.45 -0.00183
99.5 -0.00202
99.55 -0.00178
99.6 -0.00196
99.65 -0.00168
99.7 -0.00178
99.75 -0.00147
99.8 -0.0016
99.85 -0.00163
99.9 -0.00177
99.95 -0.00212
