0 0
0.05 0.00017
0.1 0.00072
0.15 0.00142
0.2 0.00195
0.25 0.0025
0.3 0.00272
0.35 0.00297
0.4 0.00291
0.45 0.00298
0.5 0.00308
0.55 0.00308
0.6 0.00299
0.65 0.00308
0.7 0.0029
0.75 0.00293
0.8 0.00279
0.85 0.00269
0.9 0.00266
0.95 0.00274
1 0.00282
1.05 0.00286
1.1 0.00267
1.15 0.0025
1.2 0.00216
1.25 0.00205
1.3 0.00208
1.35 0.00225
1.4 0.00246
1.45 0.00236
1.5 0.00226
1.55 0.00207
1.6 0.00174
1.65 0.00135
1.7 0.0011
1.75 0.00082
1.8 0.0009
1.85 0.00116
1.9 0.00133
1.95 0.00154
2 0.00168
2.05 0.00172
2.1 0.0016
2.15 0.00149
2.2 0.00146
2.25 0.00128
2.3 0.00135
2.35 0.00132
2.4 0.00114
2.45 0.00096
2.5 0.00075
2.55 0.00045
2.6 0.00036
2.65 0.00044
2.7 0.00064
2.75 0.00076
2.8 0.00077
2.85 0.00097
2.9 0.00102
2.95 0.00095
3 0.00109
3.05 0.00121
3.1 0.00138
3.15 0.00164
3.2 0.00163
3.25 0.00155
3.3 0.00152
3.35 0.00123
3.4 0.00083
3.45 0.00059
3.5 0.00058
3.55 0.00074
3.6 0.00076
3.65 0.00096
3.7 0.00113
3.75 0.00138
3.8 0.00154
3.85 0.00165
3.9 0.00166
3.95 0.00151
4 0.0013
4.05 0.00116
4.1 0.00109
4.15 0.00104
4.2 0.00078
4.25 0.00083
4.3 0.00102
4.35 0.00095
4.4 0.00079
4.45 0.00062
4.5 0.00052
4.55 0.0003
4.6 0.00041
4.65 0.00055
4.7 0.00064
4.75 0.0007
4.8 0.00051
4.85 0.00037
4.9 0.0001
4.95 0.00006
5 0.00002
5.05 -0.00007
5.1 0.00013
5.15 0.00022
5.2 0.00017
5.25 0.0003
5.3 0.00061
5.35 0.0007
5.4 0.00082
5.45 0.00102
5.5 0.00113
5.55 0.00115
5.6 0.00093
5.65 0.00086
5.7 0.00081
5.75 0.00081
5.8 0.00077
5.85 0.00088
5.9 0.00104
5.95 0.00092
6 0.00088
6.05 0.00072
6.1 0.00036
6.15 -0.00008
6.2 -0.00054
6.25 -0.00058
6.3 -0.00032
6.35 -0.00018
6.4 -0.00003
6.45 0.00017
6.5 0.0003
6.55 0.00053
6.6 0.00078
6.65 0.00112
6.7 0.0013
6.75 0.00129
6.8 0.00097
6.85 0.00089
6.9 0.00095
6.95 0.00099
7 0.00087
7.05 0.00072
7.1 0.0006
7.15 0.00065
7.2 0.0005
7.25 0.00024
7.3 -0.00009
7.35 -0.00007
7.4 -0.00008
7.45 -0.00022
7.5 -0.0001
7.55 -0.00018
7.6 -0.00041
7.65 -0.00043
7.7 -0.0003
7.75 -0
7.8 0.0003
7.85 0.00064
7.9 0.00099
7.95 0.00122
8 0.00139
8.05 0.00152
8.1 0.00142
8.15 0.00146
8.2 0.00122
8.25 0.00099
8.3 0.0006
8.35 0.00047
8.4 0.00013
8.45 0.00005
8.5 0.0002
8.55 0.00036
8.6 0.00034
8.65 0.00016
8.7 -0.00016
8.75 -0.00017
8.8 -0.00008
8.85 0.00002
8.9 0.00025
8.95 0.00047
9 0.00049
9.05 0.00047
9.1 0.00051
9.15 0.00045
9.2 0.00015
9.25 -0.00014
9.3 -0.00048
9.35 -0.00079
9.4 -0.00114
9.45 -0.00132
9.5 -0.0014
9.55 -0.00152
9.6 -0.00164
9.65 -0.00141
9.7 -0.00114
9.75 -0.00106
9.8 -0.00072
9.85 -0.00031
9.9 -0.00008
9.95 0.00023
10 0.00028
10.05 0.0001
10.1 0.00006
10.15 -0.00018
10.2 -0.00034
10.25 -0.00024
10.3 -0.00031
10.35 -0.00045
10.4 -0.00027
10.45 0.00002
10.5 0.00025
10.55 0.00058
10.6 0.00058
10.65 0.00073
10.7 0.00063
10.75 0.00051
10.8 0.00024
10.85 0.00006
10.9 0.00008
10.95 -0.00014
11 -0.00024
11.05 -0.00018
11.1 -0.00014
11.15 -0.00006
11.2 0.00015
11.25 0.00035
11.3 0.00057
11.35 0.00068
11.4 0.00087
11.45 0.00087
11.5 0.00061
11.55 0.00061
11.6 0.00054
11.65 0.0003
11.7 0.00013
11.75 -0.00006
11.8 -0.00014
11.85 0.00001
11.9 0.00008
11.95 0.00015
12 0.00017
12.05 0.00038
12.1 0.00033
12.15 0.0004
12.2 0.00037
12.25 0.00017
12.3 0.00014
12.35 0.00002
12.4 0.00005
12.45 0.00007
12.5 0.00028
12.55 0.00027
12.6 0.00022
12.65 -0.00001
12.7 -0.00002
12.75 -0.00024
12.8 -0.00034
12.85 -0.00033
12.9 -0.00013
12.95 -0.00015
13 -0.00029
13.05 -0.00036
13.1 -0.00059
13.15 -0.00064
13.2 -0.0004
13.25 -0.00027
13.3 -0.00026
13.35 -0.00011
13.4 -0.00003
13.45 -0.0002
13.5 -0.0004
13.55 -0.00034
13.6 -0.00037
13.65 -0.00024
13.7 0.00003
13.75 0.00033
13.8 0.00036
13.85 0.00029
13.9 0.00041
13.95 0.00057
14 0.00084
14.05 0.00077
14.1 0.00068
14.15 0.00041
14.2 0.00021
14.25 0.00012
14.3 -0
14.35 -0.00024
14.4 -0.00046
14.45 -0.0006
14.5 -0.00082
14.55 -0.00071
14.6 -0.00037
14.65 -0.00025
14.7 0.00007
14.75 0.0003
14.8 0.00029
14.85 0.00018
14.9 0.00016
14.95 0.00022
15 0.00042
15.05 0.00029
15.1 0.00016
15.15 0.00001
15.2 -0.00011
15.25 -0.00039
15.3 -0.00055
15.35 -0.0007
15.4 -0.00094
15.45 -0.00098
15.5 -0.00107
15.55 -0.00116
15.6 -0.00127
15.65 -0.00105
15.7 -0.00085
15.75 -0.00058
15.8 -0.0005
15.85 -0.0005
15.9 -0.0004
15.95 -0.0004
16 -0.00025
16.05 -0.00002
16.1 0.00007
16.15 -0.00006
16.2 -0.00009
16.25 -0.00012
16.3 -0.00021
16.35 -0.00016
16.4 -0.00004
16.45 -0.00015
16.5 0.00002
16.55 0.00027
16.6 0.00061
16.65 0.00066
16.7 0.00066
16.75 0.00077
16.8 0.00057
16.85 0.00051
16.9 0.00029
16.95 0.00003
17 -0.00026
17.05 -0.00032
17.1 -0.00014
17.15 0.00009
17.2 0.0003
17.25 0.00047
17.3 0.00068
17.35 0.00079
17.4 0.00077
17.45 0.00092
17.5 0.00113
17.55 0.00123
17.6 0.00119
17.65 0.00084
17.7 0.00042
17.75 0.00023
17.8 0.00024
17.85 0.00039
17.9 0.00048
17.95 0.00029
18 0.00004
18.05 -0.00026
18.1 -0.00045
18.15 -0.00075
18.2 -0.00107
18.25 -0.00121
18.3 -0.00122
18.35 -0.00102
18.4 -0.00101
18.45 -0.00086
18.5 -0.00074
18.55 -0.00062
18.6 -0.00029
18.65 -0.00025
18.7 -0.00006
18.75 0.00024
18.8 0.00035
18.85 0.00041
18.9 0.00061
18.95 0.00089
19 0.00088
19.05 0.00092
19.1 0.00108
19.15 0.00131
19.2 0.00112
19.25 0.00104
19.3 0.00109
19.35 0.00097
19.4 0.0009
19.45 0.00084
19.5 0.0007
19.55 0.00041
19.6 0.00038
19.65 0.00044
19.7 0.00039
19.75 0.00027
19.8 0.00014
19.85 -0.00009
19.9 -0.00003
19.95 0.00018
20 0.00041
20.05 0.00033
20.1 0.0004
20.15 0.0003
20.2 0.00024
20.25 0.00011
20.3 -0.00005
20.35 -0.00019
20.4 -0.0004
20.45 -0.00066
20.5 -0.00098
20.55 -0.00098
20.6 -0.0007
20.65 -0.00043
20.7 -0.00044
20.75 -0.00056
20.8 -0.00066
20.85 -0.00082
20.9 -0.00083
20.95 -0.00068
21 -0.00075
21.05 -0.00063
21.1 -0.00029
21.15 0.00013
21.2 0.00021
21.25 0.00026
21.3 0.00045
21.35 0.00047
21.4 0.00054
21.45 0.00042
21.5 0.0005
21.55 0.00056
21.6 0.00048
21.65 0.00031
21.7 -0.00006
21.75 -0.0005
21.8 -0.00091
21.85 -0.00132
21.9 -0.00136
21.95 -0.00148
22 -0.00147
22.05 -0.00115
22.1 -0.00072
22.15 -0.00032
22.2 -0.00018
22.25 -0.00006
22.3 0.00007
22.35 0.0001
22.4 0.0001
22.45 0.00005
22.5 0.00007
22.55 -0.00013
22.6 -0.00011
22.65 0.00004
22.7 0.00029
22.75 0.00046
22.8 0.00034
22.85 0.00014
22.9 0.00002
22.95 -0.00027
23 -0.00027
23.05 -0.00013
23.1 -0.00003
23.15 -0.00006
23.2 0
23.25 0.00005
23.3 0.00017
23.35 0.00042
23.4 0.00072
23.45 0.00085
23.5 0.00096
23.55 0.00072
23.6 0.00028
23.65 0.00001
23.7 -0.0003
23.75 -0.00026
23.8 -0.0001
23.85 0.00022
23.9 0.00026
23.95 0.00006
24 -0.00001
24.05 0.00012
24.1 0.00036
24.15 0.0004
24.2 0.00033
24.25 0.00015
24.3 -0.00007
24.35 -0.00011
24.4 0.00006
24.45 -0.00001
24.5 -0.00006
24.55 -0.0002
24.6 -0.00041
24.65 -0.00071
24.7 -0.00092
24.75 -0.00103
24.8 -0.00111
24.85 -0.00114
24.9 -0.00123
24.95 -0.00111
25 -0.00102
25.05 -0.00099
25.1 -0.00111
25.15 -0.00102
25.2 -0.00074
25.25 -0.00061
25.3 -0.00069
25.35 -0.00085
25.4 -0.00105
25.45 -0.00127
25.5 -0.00127
25.55 -0.00109
25.6 -0.00106
25.65 -0.00093
25.7 -0.00092
25.75 -0.00091
25.8 -0.00098
25.85 -0.00115
25.9 -0.001
25.95 -0.00057
26 -0.00037
26.05 -0.00006
26.1 -0.00006
26.15 -0.00016
26.2 -0.0003
26.25 -0.00017
26.3 0.00009
26.35 0.0003
26.4 0.00058
26.45 0.00054
26.5 0.00068
26.55 0.00064
26.6 0.00065
26.65 0.00058
26.7 0.00072
26.75 0.00081
26.8 0.0008
26.85 0.00077
26.9 0.00051
26.95 0.00028
27 0.0002
27.05 0.00029
27.1 0.00053
27.15 0.00052
27.2 0.00072
27.25 0.00095
27.3 0.00119
27.35 0.00143
27.4 0.00132
27.45 0.00114
27.5 0.00089
27.55 0.00043
27.6 0.00016
27.65 -0.00002
27.7 0.00002
27.75 0.00022
27.8 0.0005
27.85 0.00069
27.9 0.00073
27.95 0.00089
28 0.00094
28.05 0.00088
28.1 0.00069
28.15 0.00041
28.2 0.00036
28.25 0.00021
28.3 -0.00006
28.35 -0.00021
28.4 -0.0005
28.45 -0.00043
28.5 -0.00016
28.55 -0.00001
28.6 0.00025
28.65 0.00047
28.7 0.00065
28.75 0.00078
28.8 0.00088
28.85 0.00066
28.9 0.00038
28.95 0.00026
29 0.00029
29.05 0.00044
29.1 0.00027
29.15 0.00026
29.2 0.00003
29.25 -0.0003
29.3 -0.0007
29.35 -0.00097
29.4 -0.00109
29.45 -0.00117
29.5 -0.00102
29.55 -0.00075
29.6 -0.00063
29.65 -0.00028
29.7 -0.00006
29.75 0.00011
29.8 0.00036
29.85 0.00063
29.9 0.0008
29.95 0.00071
30 0.00056
30.05 0.00036
30.1 0.00001
30.15 -0.00014
30.2 -0.00005
30.25 -0.00005
30.3 -0.00014
30.35 -0.00012
30.4 -0.0003
30.45 -0.00027
30.5 -0.00011
30.55 -0.00008
30.6 -0.00015
30.65 -0.00032
30.7 -0.00053
30.75 -0.00072
30.8 -0.001
30.85 -0.00127
30.9 -0.00141
30.95 -0.00126
31 -0.00125
31.05 -0.00132
31.1 -0.00138
31.15 -0.00145
31.2 -0.0015
31.25 -0.00133
31.3 -0.00112
31.35 -0.00096
31.4 -0.00098
31.45 -0.00108
31.5 -0.00081
31.55 -0.00056
31.6 -0.00041
31.65 -0.00043
31.7 -0.00023
31.75 -0.00014
31.8 -0.00016
31.85 0.00007
31.9 0.00019
31.95 0.00017
32 0.00007
32.05 -0.00008
32.1 -0.00036
32.15 -0.00028
32.2 -0.00032
32.25 -0.00032
32.3 -0.00038
32.35 -0.00054
32.4 -0.00045
32.45 -0.00038
32.5 -0.0005
32.55 -0.00034
32.6 -0.00001
32.65 0.00042
32.7 0.00058
32.75 0.00079
32.8 0.00082
32.85 0.00087
32.9 0.00068
32.95 0.00058
33 0.00066
33.05 0.00069
33.1 0.00052
33.15 0.00054
33.2 0.00047
33.25 0.00018
33.3 -0.00019
33.35 -0.00043
33.4 -0.00071
33.45 -0.0006
33.5 -0.00068
33.55 -0.00048
33.6 -0.00018
33.65 0.00023
33.7 0.00037
33.75 0.00033
33.8 0.00027
33.85 0.00024
33.9 0.00041
33.95 0.00063
34 0.00063
34.05 0.00075
34.1 0.00097
34.15 0.00117
34.2 0.00127
34.25 0.00123
34.3 0.00103
34.35 0.00081
34.4 0.0005
34.45 0.0003
34.5 0.00001
34.55 -0.00017
34.6 -0.00041
34.65 -0.00072
34.7 -0.00102
34.75 -0.00134
34.8 -0.00142
34.85 -0.00122
34.9 -0.00088
34.95 -0.00077
35 -0.00077
35.05 -0.00084
35.1 -0.00084
35.15 -0.00061
35.2 -0.00051
35.25 -0.00017
35.3 0.0002
35.35 0.00054
35.4 0.00051
35.45 0.0006
35.5 0.0005
35.55 0.00058
35.6 0.0005
35.65 0.00039
35.7 0.00009
35.75 0.00007
35.8 0.00022
35.85 0.00018
35.9 0.00034
35.95 0.00027
36 0.00028
36.05 0.00026
36.1 0.0004
36.15 0.00035
36.2 0.00044
36.25 0.00053
36.3 0.00071
36.35 0.00056
36.4 0.00045
36.45 0.00041
36.5 0.00052
36.55 0.00045
36.6 0.00043
36.65 0.00026
36.7 0.00022
36.75 -0.00004
36.8 -0.00025
36.85 -0.00041
36.9 -0.00038
36.95 -0.00022
37 -0.00028
37.05 -0.00036
37.1 -0.00058
37.15 -0.00063
37.2 -0.00058
37.25 -0.00054
37.3 -0.0004
37.35 -0.00047
37.4 -0.00037
37.45 -0.00006
37.5 -0.00003
37.55 0.00022
37.6 0.00035
37.65 0.00053
37.7 0.00077
37.75 0.00103
37.8 0.00124
37.85 0.00142
37.9 0.00153
37.95 0.00139
38 0.00104
38.05 0.00066
38.1 0.00046
38.15 0.0003
38.2 0.00024
38.25 0.00029
38.3 0.00013
38.35 -0.00011
38.4 -0.00034
38.45 -0.00063
38.5 -0.00091
38.55 -0.00094
38.6 -0.00087
38.65 -0.00082
38.7 -0.00051
38.75 -0.00021
38.8 -0.00016
38.85 0.00008
38.9 0.00031
38.95 0.00029
39 0.00033
39.05 0.00032
39.1 0.00026
39.15 0
39.2 -0.00027
39.25 -0.00025
39.3 -0.00024
39.35 -0.00004
39.4 0.00005
39.45 0.0003
39.5 0.0003
39.55 0.0001
39.6 0.00019
39.65 0.00005
39.7 0.00003
39.75 0.0002
39.8 0.00032
39.85 0.00043
39.9 0.00049
39.95 0.00062
40 0.00075
40.05 0.00081
40.1 0.00064
40.15 0.00038
40.2 0.00036
40.25 0.00034
40.3 0.00031
40.35 0.00014
40.4 0.00004
40.45 0.00005
40.5 -0.00006
40.55 0.00005
40.6 -0.00013
40.65 -0.00026
40.7 -0.0002
40.75 -0.00035
40.8 -0.00027
40.85 -0.00031
40.9 -0.00054
40.95 -0.0007
41 -0.0006
41.05 -0.00061
41.1 -0.00068
41.15 -0.00078
41.2 -0.00059
41.25 -0.0006
41.3 -0.00073
41.35 -0.00066
41.4 -0.00073
41.45 -0.00068
41.5 -0.00049
41.55 -0.00018
41.6 0.00023
41.65 0.00034
41.7 0.00054
41.75 0.00055
41.8 0.00053
41.85 0.0004
41.9 0.00036
41.95 0.0003
42 0.00017
42.05 -0.00013
42.1 -0.00024
42.15 -0.00037
42.2 -0.00029
42.25 -0.0002
42.3 -0.00009
42.35 0.00011
42.4 0.00043
42.45 0.00079
42.5 0.0009
42.55 0.00087
42.6 0.00078
42.65 0.00063
42.7 0.00061
42.75 0.00075
42.8 0.0009
42.85 0.00077
42.9 0.00048
42.95 0.00029
43 -0.00013
43.05 -0.0003
43.1 -0.00055
43.15 -0.00088
43.2 -0.00124
43.25 -0.00146
43.3 -0.00184
43.35 -0.00208
43.4 -0.00219
43.45 -0.00233
43.5 -0.00269
43.55 -0.00293
43.6 -0.00328
43.65 -0.00394
43.7 -0.00488
43.75 -0.00584
43.8 -0.0071
43.85 -0.0082
43.9 -0.0095
43.95 -0.01079
44 -0.01242
44.05 -0.01416
44.1 -0.01641
44.15 -0.01897
44.2 -0.0217
44.25 -0.02482
44.3 -0.02803
44.35 -0.03174
44.4 -0.03576
44.45 -0.03997
44.5 -0.04443
44.55 -0.04941
44.6 -0.05453
44.65 -0.05995
44.7 -0.06567
44.75 -0.07155
44.8 -0.07769
44.85 -0.08376
44.9 -0.08963
44.95 -0.09572
45 -0.10157
45.05 -0.10736
45.1 -0.11295
45.15 -0.11829
45.2 -0.12307
45.25 -0.1271
45.3 -0.13054
45.35 -0.1335
45.4 -0.13585
45.45 -0.13712
45.5 -0.13746
45.55 -0.13701
45.6 -0.13578
45.65 -0.13347
45.7 -0.13038
45.75 -0.12636
45.8 -0.12129
45.85 -0.11545
45.9 -0.10877
45.95 -0.10148
46 -0.09384
46.05 -0.08594
46.1 -0.0778
46.15 -0.0692
46.2 -0.0605
46.25 -0.05178
46.3 -0.04282
46.35 -0.03368
46.4 -0.02473
46.45 -0.01589
46.5 -0.00733
46.55 0.00108
46.6 0.00924
46.65 0.01705
46.7 0.02443
46.75 0.03115
46.8 0.03767
46.85 0.04387
46.9 0.04977
46.95 0.05537
47 0.06066
47.05 0.06592
47.1 0.07106
47.15 0.07606
47.2 0.08109
47.25 0.08597
47.3 0.09058
47.35 0.09528
47.4 0.09981
47.45 0.10446
47.5 0.10877
47.55 0.11301
47.6 0.11713
47.65 0.12119
47.7 0.12477
47.75 0.12789
47.8 0.1309
47.85 0.13345
47.9 0.13578
47.95 0.13745
48 0.13858
48.05 0.13961
48.1 0.14034
48.15 0.14069
48.2 0.14059
48.25 0.13983
48.3 0.13849
48.35 0.13685
48.4 0.1347
48.45 0.13234
48.5 0.12954
48.55 0.12684
48.6 0.12404
48.65 0.12073
48.7 0.11712
48.75 0.11348
48.8 0.10979
48.85 0.1061
48.9 0.10226
48.95 0.09804
49 0.09389
49.05 0.08951
49.1 0.08501
49.15 0.08051
49.2 0.07606
49.25 0.0717
49.3 0.06752
49.35 0.06359
49.4 0.05972
49.45 0.05601
49.5 0.05245
49.55 0.04863
49.6 0.04484
49.65 0.04116
49.7 0.0374
49.75 0.03361
49.8 0.02985
49.85 0.02651
49.9 0.02328
49.95 0.02039
50 0.01772
50.05 0.01517
50.1 0.01261
50.15 0.01004
50.2 0.0073
50.25 0.00451
50.3 0.00198
50.35 -0.00042
50.4 -0.00249
50.45 -0.00434
50.5 -0.00621
50.55 -0.00793
50.6 -0.00938
50.65 -0.01102
50.7 -0.01264
50.75 -0.01385
50.8 -0.01518
50.85 -0.01639
50.9 -0.01762
50.95 -0.01845
51 -0.01923
51.05 -0.01997
51.1 -0.02038
51.15 -0.02058
51.2 -0.02063
51.25 -0.02077
51.3 -0.02093
51.35 -0.02099
51.4 -0.02134
51.45 -0.02182
51.5 -0.02216
51.55 -0.0222
51.6 -0.0223
51.65 -0.02219
51.7 -0.02226
51.75 -0.02225
51.8 -0.02203
51.85 -0.02189
51.9 -0.02165
51.95 -0.02162
52 -0.02134
52.05 -0.02109
52.1 -0.02084
52.15 -0.02076
52.2 -0.02059
52.25 -0.02022
52.3 -0.02008
52.35 -0.01992
52.4 -0.01951
52.45 -0.01897
52.5 -0.01836
52.55 -0.01798
52.6 -0.01744
52.65 -0.01701
52.7 -0.01666
52.75 -0.01622
52.8 -0.01572
52.85 -0.01524
52.9 -0.01518
52.95 -0.01514
53 -0.01495
53.05 -0.01502
53.1 -0.01527
53.15 -0.01545
53.2 -0.01528
53.25 -0.01501
53.3 -0.01463
53.35 -0.01416
53.4 -0.01395
53.45 -0.0137
53.5 -0.0133
53.55 -0.01284
53.6 -0.01254
53.65 -0.01248
53.7 -0.01235
53.75 -0.01228
53.8 -0.01242
53.85 -0.01251
53.9 -0.01247
53.95 -0.01253
54 -0.01238
54.05 -0.01223
54.1 -0.01203
54.15 -0.01173
54.2 -0.0114
54.25 -0.01126
54.3 -0.01121
54.35 -0.01123
54.4 -0.01136
54.45 -0.01152
54.5 -0.01158
54.55 -0.01139
54.6 -0.01129
54.65 -0.01094
54.7 -0.01045
54.75 -0.00983
54.8 -0.00956
54.85 -0.00916
54.9 -0.00875
54.95 -0.0084
55 -0.0084
55.05 -0.00861
55.1 -0.00888
55.15 -0.00887
55.2 -0.00867
55.25 -0.00863
55.3 -0.00869
55.35 -0.00877
55.4 -0.00882
55.45 -0.00886
55.5 -0.00862
55.55 -0.00854
55.6 -0.00822
55.65 -0.00782
55.7 -0.00758
55.75 -0.00759
55.8 -0.00732
55.85 -0.00731
55.9 -0.00729
55.95 -0.00698
56 -0.00666
56.05 -0.00639
56.1 -0.00604
56.15 -0.00594
56.2 -0.00586
56.25 -0.006
56.3 -0.00601
56.35 -0.00589
56.4 -0.00598
56.45 -0.00608
56.5 -0.00602
56.55 -0.00571
56.6 -0.00538
56.65 -0.00512
56.7 -0.00505
56.75 -0.00483
56.8 -0.0048
56.85 -0.00495
56.9 -0.00485
56.95 -0.00461
57 -0.00466
57.05 -0.0047
57.1 -0.00475
57.15 -0.0046
57.2 -0.00461
57.25 -0.00452
57.3 -0.0045
57.35 -0.00455
57.4 -0.00457
57.45 -0.00452
57.5 -0.00454
57.55 -0.00454
57.6 -0.00459
57.65 -0.00457
57.7 -0.00437
57.75 -0.00421
57.8 -0.00422
57.85 -0.00419
57.9 -0.00416
57.95 -0.00426
58 -0.00446
58.05 -0.00469
58.1 -0.00455
58.15 -0.00434
58.2 -0.00432
58.25 -0.00411
58.3 -0.00372
58.35 -0.00351
58.4 -0.00325
58.45 -0.00317
58.5 -0.00298
58.55 -0.00262
58.6 -0.00222
58.65 -0.00207
58.7 -0.00181
58.75 -0.0016
58.8 -0.00135
58.85 -0.0015
58.9 -0.00151
58.95 -0.00138
59 -0.00128
59.05 -0.00114
59.1 -0.00114
59.15 -0.00144
59.2 -0.00155
59.25 -0.00176
59.3 -0.00178
59.35 -0.00196
59.4 -0.00214
59.45 -0.00208
59.5 -0.002
59.55 -0.002
59.6 -0.00182
59.65 -0.00172
59.7 -0.00166
59.75 -0.00185
59.8 -0.00216
59.85 -0.00245
59.9 -0.0027
59.95 -0.00279
60 -0.00256
60.05 -0.00248
60.1 -0.00228
60.15 -0.00204
60.2 -0.00202
60.25 -0.00206
60.3 -0.00228
60.35 -0.00246
60.4 -0.00258
60.45 -0.00247
60.5 -0.00244
60.55 -0.00256
60.6 -0.00242
60.65 -0.00214
60.7 -0.00175
60.75 -0.00145
60.8 -0.00112
60.85 -0.00084
60.9 -0.00063
60.95 -0.00036
61 -0.00042
61.05 -0.00045
61.1 -0.00039
61.15 -0.00064
61.2 -0.00088
61.25 -0.00107
61.3 -0.0012
61.35 -0.00149
61.4 -0.00165
61.45 -0.00163
61.5 -0.00143
61.55 -0.00135
61.6 -0.00128
61.65 -0.00112
61.7 -0.00089
61.75 -0.00063
61.8 -0.00029
61.85 -0.0001
61.9 0.00013
61.95 0.0001
62 0.00015
62.05 -0.00001
62.1 -0.00017
62.15 -0.00028
62.2 -0.00046
62.25 -0.00057
62.3 -0.00066
62.35 -0.00062
62.4 -0.00065
62.45 -0.00091
62.5 -0.00104
62.55 -0.00128
62.6 -0.00161
62.65 -0.00176
62.7 -0.00195
62.75 -0.00182
62.8 -0.00168
62.85 -0.0017
62.9 -0.00181
62.95 -0.00164
63 -0.00132
63.05 -0.0011
63.1 -0.00101
63.15 -0.001
63.2 -0.00117
63.25 -0.00116
63.3 -0.00103
63.35 -0.001
63.4 -0.00113
63.45 -0.00112
63.5 -0.00113
63.55 -0.00087
63.6 -0.00059
63.65 -0.0006
63.7 -0.00069
63.75 -0.00094
63.8 -0.00124
63.85 -0.00133
63.9 -0.00154
63.95 -0.00153
64 -0.00132
64.05 -0.00132
64.1 -0.00127
64.15 -0.00138
64.2 -0.00159
64.25 -0.0015
64.3 -0.0014
64.35 -0.00135
64.4 -0.00136
64.45 -0.00118
64.5 -0.0009
64.55 -0.00078
64.6 -0.00061
64.65 -0.00042
64.7 -0.00018
64.75 -0.00014
64.8 0.00008
64.85 0.00012
64.9 -0.00007
64.95 -0.00032
65 -0.00059
65.05 -0.00078
65.1 -0.00073
65.15 -0.00086
65.2 -0.00096
65.25 -0.00075
65.3 -0.00064
65.35 -0.00049
65.4 -0.00053
65.45 -0.00042
65.5 -0.00016
65.55 -0.00001
65.6 -0.00007
65.65 -0.00032
65.7 -0.00056
65.75 -0.00069
65.8 -0.00082
65.85 -0.00096
65.9 -0.00121
65.95 -0.00142
66 -0.00147
66.05 -0.00147
66.1 -0.00152
66.15 -0.00152
66.2 -0.00123
66.25 -0.00078
66.3 -0.00055
66.35 -0.0005
66.4 -0.00024
66.45 -0.00017
66.5 0.0001
66.55 0.00032
66.6 0.00039
66.65 0.00038
66.7 0.00016
66.75 -0.0002
66.8 -0.00048
66.85 -0.00077
66.9 -0.00112
66.95 -0.00142
67 -0.00142
67.05 -0.00124
67.1 -0.00096
67.15 -0.00075
67.2 -0.00033
67.25 0.00005
67.3 0.00028
67.35 0.00057
67.4 0.00066
67.45 0.00044
67.5 0.00035
67.55 0.00013
67.6 -0.00023
67.65 -0.00025
67.7 -0.00019
67.75 -0.00035
67.8 -0.00027
67.85 -0.00012
67.9 -0.00005
67.95 -0.00006
68 -0.00002
68.05 0.00004
68.1 -0.00002
68.15 0.00003
68.2 0.00014
68.25 0.00024
68.3 0.00045
68.35 0.00066
68.4 0.00074
68.45 0.00079
68.5 0.00083
68.55 0.00078
68.6 0.00061
68.65 0.00028
68.7 0.00008
68.75 -0.00021
68.8 -0.00032
68.85 -0.00026
68.9 -0.00008
68.95 -0.00018
69 -0.00025
69.05 -0.00037
69.1 -0.00064
69.15 -0.00083
69.2 -0.00089
69.25 -0.00091
69.3 -0.00069
69.35 -0.00032
69.4 -0.00014
69.45 0.00002
69.5 0.00024
69.55 0.00054
69.6 0.00085
69.65 0.00108
69.7 0.00125
69.75 0.00132
69.8 0.0011
69.85 0.00074
69.9 0.00052
69.95 0.00033
70 0.00017
70.05 0.00025
70.1 0.00025
70.15 0.00022
70.2 0.00005
70.25 -0.00007
70.3 0.00003
70.35 -0.00012
70.4 -0.00026
70.45 -0.00026
70.5 -0.00047
70.55 -0.00062
70.6 -0.00046
70.65 -0.0005
70.7 -0.00057
70.75 -0.00041
70.8 -0.00036
70.85 -0.00038
70.9 -0.00042
70.95 -0.0002
71 -0.00023
71.05 -0.00045
71.1 -0.00057
71.15 -0.00081
71.2 -0.00068
71.25 -0.0007
71.3 -0.00073
71.35 -0.00085
71.4 -0.0009
71.45 -0.0007
71.5 -0.00056
71.55 -0.00024
71.6 0.00017
71.65 0.00047
71.7 0.00047
71.75 0.00061
71.8 0.00075
71.85 0.00083
71.9 0.00101
71.95 0.001
72 0.0009
72.05 0.00086
72.1 0.00093
72.15 0.00078
72.2 0.00059
72.25 0.00057
72.3 0.0007
72.35 0.00051
72.4 0.00012
72.45 -0.00007
72.5 -0.00038
72.55 -0.00077
72.6 -0.00096
72.65 -0.00113
72.7 -0.00123
72.75 -0.00121
72.8 -0.0012
72.85 -0.00113
72.9 -0.00118
72.95 -0.00104
73 -0.00085
73.05 -0.00053
73.1 -0.00033
73.15 0.00005
73.2 0.00049
73.25 0.00061
73.3 0.00061
73.35 0.00072
73.4 0.00084
73.45 0.00086
73.5 0.00058
73.55 0.00039
73.6 0.00003
73.65 -0.00005
73.7 0.00003
73.75 0.00013
73.8 0.00028
73.85 0.00049
73.9 0.00059
73.95 0.00082
74 0.001
74.05 0.00112
74.1 0.00132
74.15 0.00123
74.2 0.00097
74.25 0.00062
74.3 0.00013
74.35 -0.00006
74.4 0.00002
74.45 0.00005
74.5 0.00002
74.55 -0.00006
74.6 -0.00026
74.65 -0.00059
74.7 -0.00089
74.75 -0.00093
74.8 -0.00082
74.85 -0.00074
74.9 -0.00073
74.95 -0.00074
75 -0.00069
75.05 -0.00071
75.1 -0.00083
75.15 -0.00092
75.2 -0.0008
75.25 -0.00068
75.3 -0.00063
75.35 -0.00034
75.4 -0.00035
75.45 -0.0002
75.5 0.00012
75.55 0.00033
75.6 0.00059
75.65 0.00064
75.7 0.00063
75.75 0.00058
75.8 0.00072
75.85 0.00084
75.9 0.00094
75.95 0.00104
76 0.00079
76.05 0.00051
76.1 0.00029
76.15 -0.00009
76.2 -0.00027
76.25 -0.00022
76.3 -0.00038
76.35 -0.00038
76.4 -0.00049
76.45 -0.00067
76.5 -0.00058
76.55 -0.00061
76.6 -0.00075
76.65 -0.00059
76.7 -0.00061
76.75 -0.00073
76.8 -0.00082
76.85 -0.00063
76.9 -0.00041
76.95 -0.00029
77 0.00001
77.05 0.0004
77.1 0.00082
77.15 0.00116
77.2 0.0011
77.25 0.00105
77.3 0.00099
77.35 0.00103
77.4 0.00075
77.45 0.00071
77.5 0.0006
77.55 0.0007
77.6 0.00081
77.65 0.00059
77.7 0.00044
77.75 0.00036
77.8 0.00027
77.85 0.00026
77.9 0.00014
77.95 0.00022
78 0.00032
78.05 0.00048
78.1 0.00034
78.15 0.00004
78.2 -0.00007
78.25 -0.00001
78.3 -0.0002
78.35 -0.00043
78.4 -0.00043
78.45 -0.00037
78.5 -0.00044
78.55 -0.00062
78.6 -0.00052
78.65 -0.00026
78.7 -0.00009
78.75 0.00005
78.8 0.00029
78.85 0.00049
78.9 0.00058
78.95 0.0004
79 0.00035
79.05 0.00025
79.1 0.0002
79.15 0.0002
79.2 0.00003
79.25 -0.00026
79.3 -0.00041
79.35 -0.00059
79.4 -0.00048
79.45 -0.00039
79.5 -0.00035
79.55 -0.00042
79.6 -0.00035
79.65 -0.00028
79.7 -0.00027
79.75 -0.00004
79.8 0.00015
79.85 0.00012
79.9 0.00016
79.95 0.0001
80 -0.00011
80.05 -0.00003
80.1 -0.00017
80.15 -0.00038
80.2 -0.0005
80.25 -0.00075
80.3 -0.001
80.35 -0.00129
80.4 -0.0013
80.45 -0.00134
80.5 -0.00125
80.55 -0.00132
80.6 -0.00146
80.65 -0.00137
80.7 -0.00104
80.75 -0.00062
80.8 -0.0005
80.85 -0.00026
80.9 -0.00019
80.95 -0.00004
81 0.00009
81.05 0.00006
81.1 0.00015
81.15 0.00024
81.2 0.00043
81.25 0.00061
81.3 0.00075
81.35 0.00069
81.4 0.0004
81.45 -0.00002
81.5 -0.00024
81.55 -0.00058
81.6 -0.00074
81.65 -0.00087
81.7 -0.00071
81.75 -0.0007
81.8 -0.00049
81.85 -0.0004
81.9 -0.00019
81.95 -0.00014
82 -0.00002
82.05 -0.00002
82.1 0.00018
82.15 0.00022
82.2 0.00026
82.25 0.00034
82.3 0.00037
82.35 0.00038
82.4 0.00041
82.45 0.00051
82.5 0.0006
82.55 0.00067
82.6 0.0005
82.65 0.00039
82.7 0.00009
82.75 0.00001
82.8 0.00004
82.85 -0.00004
82.9 -0.00019
82.95 -0.00028
83 -0.00015
83.05 0.00011
83.1 0.0001
83.15 -0.00012
83.2 -0.00043
83.25 -0.0004
83.3 -0.00042
83.35 -0.00048
83.4 -0.00028
83.45 0.00003
83.5 0.00015
83.55 0.00037
83.6 0.00031
83.65 0.00039
83.7 0.00043
83.75 0.00037
83.8 0.00017
83.85 0.00012
83.9 0.00015
83.95 -0.00006
84 -0.00029
84.05 -0.00041
84.1 -0.00029
84.15 -0.00011
84.2 -0.00001
84.25 0.00019
84.3 0.00051
84.35 0.00054
84.4 0.00071
84.45 0.00064
84.5 0.00073
84.55 0.00069
84.6 0.00055
84.65 0.00032
84.7 0.00024
84.75 0.00016
84.8 0.00014
84.85 0.00022
84.9 0.00014
84.95 -0.00004
85 -0
85.05 -0.00016
85.1 -0.00033
85.15 -0.0006
85.2 -0.00087
85.25 -0.00076
85.3 -0.00074
85.35 -0.00058
85.4 -0.0003
85.45 -0.0003
85.5 -0.00006
85.55 0.0002
85.6 0.00051
85.65 0.00057
85.7 0.00059
85.75 0.00042
85.8 0.0004
85.85 0.00016
85.9 0.00011
85.95 0.00009
86 0.00015
86.05 0.00032
86.1 0.00055
86.15 0.00053
86.2 0.00024
86.25 0.00001
86.3 -0.00009
86.35 -0.00026
86.4 -0.00041
86.45 -0.00033
86.5 -0.00028
86.55 -0.00029
86.6 -0.00024
86.65 -0.00021
86.7 0.00004
86.75 0.00015
86.8 0.00039
86.85 0.00044
86.9 0.00057
86.95 0.00037
87 0.00036
87.05 0.00027
87.1 0.00028
87.15 0.00014
87.2 0.0001
87.25 -0.00002
87.3 0
87.35 0.00018
87.4 0.00032
87.45 0.00017
87.5 0.0001
87.55 0.00003
87.6 -0.00017
87.65 -0.00043
87.7 -0.00067
87.75 -0.00071
87.8 -0.00065
87.85 -0.00045
87.9 -0.00017
87.95 0.00011
88 0.00033
88.05 0.00042
88.1 0.0006
88.15 0.0008
88.2 0.00083
88.25 0.00076
88.3 0.00084
88.35 0.00093
88.4 0.00082
88.45 0.00068
88.5 0.00069
88.55 0.00058
88.6 0.00061
88.65 0.00034
88.7 0.00019
88.75 -0.00016
88.8 -0.00048
88.85 -0.00064
88.9 -0.00082
88.95 -0.00069
89 -0.00044
89.05 -0.00026
89.1 -0.00013
89.15 -0.00023
89.2 -0.00027
89.25 -0.0003
89.3 -0.00045
89.35 -0.00038
89.4 -0.00054
89.45 -0.00078
89.5 -0.00076
89.55 -0.00048
89.6 -0.00035
89.65 -0.00033
89.7 -0.00038
89.75 -0.00034
89.8 -0.00015
89.85 -0.00026
89.9 -0.00034
89.95 -0.00042
90 -0.00054
90.05 -0.00078
90.1 -0.0009
90.15 -0.00113
90.2 -0.00111
90.25 -0.00095
90.3 -0.00082
90.35 -0.00065
90.4 -0.00056
90.45 -0.00063
90.5 -0.00062
90.55 -0.00034
90.6 -0.00011
90.65 -0.0001
90.7 -0.0002
90.75 -0.00036
90.8 -0.00063
90.85 -0.0007
90.9 -0.00081
90.95 -0.0008
91 -0.0006
91.05 -0.0002
91.1 0.00002
91.15 0.00028
91.2 0.00022
91.25 0.00035
91.3 0.00025
91.35 -0.00001
91.4 -0.00008
91.45 -0.00029
91.5 -0.00053
91.55 -0.00085
91.6 -0.0008
91.65 -0.00062
91.7 -0.00051
91.75 -0.00045
91.8 -0.0005
91.85 -0.00066
91.9 -0.00058
91.95 -0.0004
92 -0.00022
92.05 0.00014
92.1 0.00028
92.15 0.00024
92.2 0.00003
92.25 -0.0002
92.3 -0.00013
92.35 -0.00024
92.4 -0.00029
92.45 -0.00009
92.5 0.00024
92.55 0.00042
92.6 0.00059
92.65 0.00045
92.7 0.00016
92.75 -0.00015
92.8 -0.00042
92.85 -0.00072
92.9 -0.00095
92.95 -0.00098
93 -0.00107
93.05 -0.00091
93.1 -0.00054
93.15 -0.00038
93.2 -0.00018
93.25 -0.00023
93.3 -0.00037
93.35 -0.00033
93.4 -0.0004
93.45 -0.00019
93.5 0.00004
93.55 0.00011
93.6 0.00031
93.65 0.00053
93.7 0.00083
93.75 0.00102
93.8 0.001
93.85 0.00103
93.9 0.00076
93.95 0.00046
94 0.00032
94.05 0.00036
94.1 0.00016
94.15 0.0002
94.2 0.00034
94.25 0.0002
94.3 -0.00011
94.35 -0.0003
94.4 -0.00028
94.45 -0.00024
94.5 -0.00025
94.55 -0.00038
94.6 -0.0005
94.65 -0.00036
94.7 -0.00001
94.75 0.00032
94.8 0.00057
94.85 0.00055
94.9 0.00038
94.95 0.00043
95 0.00047
95.05 0.0004
95.1 0.00048
95.15 0.00038
95.2 0.00022
95.25 0.00007
95.3 0.00009
95.35 -0.00002
95.4 0.00002
95.45 -0.00009
95.5 0.00003
95.55 -0.00006
95.6 -0.00016
95.65 -0.00018
95.7 -0.00012
95.75 -0.00015
95.8 0.00001
95.85 0.00026
95.9 0.00058
95.95 0.0009
96 0.00125
96.05 0.00123
96.1 0.00114
96.15 0.00079
96.2 0.00043
96.25 0.0003
96.3 0.0002
96.35 0.0001
96.4 -0.0001
96.45 -0.00003
96.5 0.00022
96.55 0.00025
96.6 0.00032
96.65 0.00023
96.7 0.00012
96.75 -0.00002
96.8 -0.00002
96.85 -0.00002
96.9 -0.00002
96.95 -0.00008
97 -0.00007
97.05 0.00001
97.1 -0.00015
97.15 -0.00017
97.2 -0.00009
97.25 -0.00011
97.3 -0.00013
97.35 0.00002
97.4 0.00022
97.45 0.00028
97.5 0.00034
97.55 0.00045
97.6 0.00054
97.65 0.00053
97.7 0.0003
97.75 0.00026
97.8 0.00042
97.85 0.00066
97.9 0.00067
97.95 0.00065
98 0.00064
98.05 0.00055
98.1 0.00046
98.15 0.00055
98.2 0.00034
98.25 0.00036
98.3 0.00018
98.35 0.00019
98.4 0.00029
98.45 0.00032
98.5 0.00037
98.55 0.00028
98.6 0.00029
98.65 0.00043
98.7 0.00039
98.75 0.00042
98.8 0.00059
98.85 0.0008
98.9 0.00096
98.95 0.00085
99 0.00067
99.05 0.00063
99.1 0.00062
99.15 0.00055
99.2 0.00039
99.25 0.00019
99.3 -0.00003
99.35 -0.0004
99.4 -0.00052
99.45 -0.00066
99.5 -0.0007
99.55 -0.00064
99.6 -0.00035
99.65 -0.00003
99.7 0.00025
99.75 0.00061
99.8 0.00068
99.85 0.00052
99.9 0.00033
99.95 0.00031
