0 0
0.05 0.00112
0.1 0.00282
0.15 0.00466
0.2 0.00627
0.25 0.00794
0.3 0.00843
0.35 0.00863
0.4 0.00894
0.45 0.0093
0.5 0.00918
0.55 0.0086
0.6 0.00844
0.65 0.0085
0.7 0.00834
0.75 0.00837
0.8 0.00817
0.85 0.00837
0.9 0.00804
0.95 0.00701
1 0.00585
1.05 0.00512
1.1 0.00524
1.15 0.00515
1.2 0.0045
1.25 0.00422
1.3 0.00362
1.35 0.00366
1.4 0.00323
1.45 0.00249
1.5 0.00256
1.55 0.0026
1.6 0.00259
1.65 0.00288
1.7 0.00351
1.75 0.00414
1.8 0.00502
1.85 0.00493
1.9 0.0042
1.95 0.00311
2 0.00191
2.05 0.00189
2.1 0.0021
2.15 0.00177
2.2 0.00126
2.25 0.00063
2.3 0.00102
2.35 0.00202
2.4 0.00224
2.45 0.00255
2.5 0.00269
2.55 0.00233
2.6 0.00236
2.65 0.00245
2.7 0.00257
2.75 0.00245
2.8 0.00215
2.85 0.00249
2.9 0.00312
2.95 0.0031
3 0.00252
3.05 0.00245
3.1 0.00217
3.15 0.00262
3.2 0.00301
3.25 0.00356
3.3 0.0034
3.35 0.00274
3.4 0.00184
3.45 0.00143
3.5 0.00134
3.55 0.00119
3.6 0.00093
3.65 0.00077
3.7 0.00087
3.75 0.00057
3.8 0.00069
3.85 0.00123
3.9 0.00207
3.95 0.00269
4 0.00301
4.05 0.00302
4.1 0.00277
4.15 0.00249
4.2 0.00172
4.25 0.00162
4.3 0.00204
4.35 0.00207
4.4 0.00167
4.45 0.0012
4.5 0.00046
4.55 0.00061
4.6 0.00064
4.65 0.00021
4.7 -0.0004
4.75 0.00002
4.8 0.0006
4.85 0.00075
4.9 0.00148
4.95 0.00254
5 0.00297
5.05 0.00355
5.1 0.00387
5.15 0.00363
5.2 0.00298
5.25 0.00252
5.3 0.00184
5.35 0.00083
5.4 0.00065
5.45 0.0006
5.5 0.00106
5.55 0.00158
5.6 0.00182
5.65 0.00144
5.7 0.00153
5.75 0.00145
5.8 0.00158
5.85 0.0022
5.9 0.00211
5.95 0.00215
6 0.00174
6.05 0.00189
6.1 0.00226
6.15 0.00241
6.2 0.00257
6.25 0.00254
6.3 0.0022
6.35 0.00186
6.4 0.00171
6.45 0.00216
6.5 0.0023
6.55 0.00255
6.6 0.003
6.65 0.00266
6.7 0.00192
6.75 0.00136
6.8 0.00091
6.85 0.00057
6.9 0.0003
6.95 0.0007
7 0.00101
7.05 0.00107
7.1 0.00136
7.15 0.0019
7.2 0.00207
7.25 0.00181
7.3 0.00155
7.35 0.00115
7.4 0.00129
7.45 0.00107
7.5 0.0006
7.55 0.00045
7.6 0.00073
7.65 0.00111
7.7 0.00138
7.75 0.0016
7.8 0.00131
7.85 0.00083
7.9 0.0007
7.95 0.00035
8 0.00047
8.05 0.00045
8.1 0.00087
8.15 0.0014
8.2 0.00192
8.25 0.00204
8.3 0.00228
8.35 0.00219
8.4 0.00165
8.45 0.00069
8.5 -0.00005
8.55 -0.00096
8.6 -0.00159
8.65 -0.00128
8.7 -0.0013
8.75 -0.00135
8.8 -0.00154
8.85 -0.00124
8.9 -0.00061
8.95 0.00023
9 0.00083
9.05 0.00157
9.1 0.00211
9.15 0.00213
9.2 0.00193
9.25 0.00121
9.3 0.00128
9.35 0.00101
9.4 0.00043
9.45 0.00054
9.5 0.00104
9.55 0.00093
9.6 0.00083
9.65 0.00112
9.7 0.0007
9.75 0.00079
9.8 0.00135
9.85 0.00221
9.9 0.00233
9.95 0.00219
10 0.00156
10.05 0.00084
10.1 0.00045
10.15 0.00056
10.2 0.00061
10.25 0.0011
10.3 0.00077
10.35 0.00071
10.4 0.00066
10.45 0.00024
10.5 0.00023
10.55 -0.00002
10.6 -0.00011
10.65 0.00024
10.7 0.00012
10.75 -0.00007
10.8 -0.00046
10.85 -0.0008
10.9 -0.00053
10.95 -0.00012
11 0.00068
11.05 0.00114
11.1 0.00139
11.15 0.00188
11.2 0.00238
11.25 0.00226
11.3 0.00254
11.35 0.00191
11.4 0.00146
11.45 0.00097
11.5 0.00112
11.55 0.00102
11.6 0.001
11.65 0.00053
11.7 0.00017
11.75 -0.00006
11.8 0.00023
11.85 0.00062
11.9 0.00072
11.95 0.00039
12 0.00055
12.05 0.00048
12.1 0.00019
12.15 -0.00052
12.2 -0.00061
12.25 -0.00091
12.3 -0.0009
12.35 -0.00025
12.4 0.00051
12.45 0.00069
12.5 0.00095
12.55 0.00076
12.6 0.00072
12.65 0.00014
12.7 -0.00075
12.75 -0.00156
12.8 -0.00186
12.85 -0.00154
12.9 -0.0009
12.95 -0.00037
13 -0.00027
13.05 0.00028
13.1 0.00101
13.15 0.00104
13.2 0.00123
13.25 0.00077
13.3 0.00093
13.35 0.0004
13.4 -0.00029
13.45 -0.00021
13.5 -0.00006
13.55 -0.00003
13.6 0.00038
13.65 0.00023
13.7 -0.00016
13.75 -0.00033
13.8 -0.00101
13.85 -0.00093
13.9 -0.00091
13.95 -0.00123
14 -0.00091
14.05 -0.00085
14.1 -0.0005
14.15 -0.00034
14.2 -0.0004
14.25 -0.00033
14.3 -0.00081
14.35 -0.00136
14.4 -0.00127
14.45 -0.00114
14.5 -0.00074
14.55 -0.00071
14.6 -0.00013
14.65 0.0003
14.7 0.00003
14.75 0.00018
14.8 0.0001
14.85 0.00011
14.9 0.00017
14.95 -0.00003
15 0.00036
15.05 0.00011
15.1 0.0001
15.15 0.00058
15.2 0.00101
15.25 0.00159
15.3 0.00149
15.35 0.00105
15.4 0.00068
15.45 0.00092
15.5 0.00047
15.55 0.00015
15.6 -0.00067
15.65 -0.00085
15.7 -0.00045
15.75 -0.00067
15.8 -0.0013
15.85 -0.00199
15.9 -0.00237
15.95 -0.00239
16 -0.00254
16.05 -0.00279
16.1 -0.00235
16.15 -0.00129
16.2 -0.00031
16.25 0.00015
16.3 -0.0001
16.35 -0.00063
16.4 -0.00044
16.45 -0.00087
16.5 -0.00115
16.55 -0.00169
16.6 -0.00196
16.65 -0.00148
16.7 -0.00078
16.75 0.00024
16.8 0.00108
16.85 0.001
16.9 0.00076
16.95 0.00013
17 -0.00037
17.05 -0.00122
17.1 -0.00149
17.15 -0.00108
17.2 -0.00025
17.25 0.00001
17.3 -0.00022
17.35 -0.00019
17.4 -0.00064
17.45 -0.00126
17.5 -0.00148
17.55 -0.00126
17.6 -0.00154
17.65 -0.0016
17.7 -0.0019
17.75 -0.00198
17.8 -0.00227
17.85 -0.0017
17.9 -0.00167
17.95 -0.00176
18 -0.00204
18.05 -0.00252
18.1 -0.0031
18.15 -0.00353
18.2 -0.00332
18.25 -0.00334
18.3 -0.00317
18.35 -0.00309
18.4 -0.00287
18.45 -0.00231
18.5 -0.00185
18.55 -0.00118
18.6 -0.00034
18.65 0.00003
18.7 -0.00023
18.75 -0.00049
18.8 -0.00109
18.85 -0.00109
18.9 -0.00131
18.95 -0.00151
19 -0.00101
19.05 -0.00032
19.1 -0.00033
19.15 -0.00008
19.2 -0.0002
19.25 -0.00028
19.3 -0.00048
19.35 -0.00091
19.4 -0.00047
19.45 -0.00064
19.5 -0.00112
19.55 -0.00172
19.6 -0.00229
19.65 -0.00197
19.7 -0.00132
19.75 -0.00057
19.8 0.00052
19.85 0.00126
19.9 0.00123
19.95 0.00175
20 0.00222
20.05 0.00283
20.1 0.00364
20.15 0.00408
20.2 0.00382
20.25 0.00337
20.3 0.00284
20.35 0.00262
20.4 0.00285
20.45 0.00222
20.5 0.00111
20.55 0.00021
20.6 -0.00015
20.65 0.00027
20.7 0.00003
20.75 -0.00052
20.8 -0.00102
20.85 -0.00161
20.9 -0.0015
20.95 -0.00088
21 -0.00051
21.05 0.00006
21.1 0.00073
21.15 0.00061
21.2 0.0004
21.25 0.0003
21.3 0.00022
21.35 0.00006
21.4 0.00033
21.45 0.00051
21.5 0.00037
21.55 -0.00022
21.6 -0.00092
21.65 -0.00088
21.7 -0.00046
21.75 -0.00036
21.8 -0.00049
21.85 -0.00107
21.9 -0.00172
21.95 -0.00245
22 -0.00304
22.05 -0.00287
22.1 -0.00266
22.15 -0.00252
22.2 -0.00164
22.25 -0.00041
22.3 0.00075
22.35 0.00186
22.4 0.00273
22.45 0.00299
22.5 0.00242
22.55 0.00227
22.6 0.00185
22.65 0.00121
22.7 0.00094
22.75 0.00129
22.8 0.00196
22.85 0.00209
22.9 0.00216
22.95 0.00173
23 0.00158
23.05 0.00096
23.1 0.00026
23.15 -0.00003
23.2 -0.00076
23.25 -0.00137
23.3 -0.00198
23.35 -0.00258
23.4 -0.00247
23.45 -0.00235
23.5 -0.00249
23.55 -0.00256
23.6 -0.00292
23.65 -0.00336
23.7 -0.00312
23.75 -0.0032
23.8 -0.00277
23.85 -0.00242
23.9 -0.00134
23.95 -0.00092
24 -0.00013
24.05 0.00009
24.1 0.00069
24.15 0.00155
24.2 0.00221
24.25 0.00218
24.3 0.0016
24.35 0.00116
24.4 0.00077
24.45 0.00085
24.5 0.00141
24.55 0.00191
24.6 0.00156
24.65 0.00129
24.7 0.00142
24.75 0.00154
24.8 0.00185
24.85 0.00182
24.9 0.00215
24.95 0.00227
25 0.00192
25.05 0.00158
25.1 0.00125
25.15 0.001
25.2 0.00037
25.25 -0.00038
25.3 -0.00022
25.35 -0.00059
25.4 -0.00029
25.45 -0.00024
25.5 -0.00025
25.55 0.00025
25.6 0.00071
25.65 0.00047
25.7 -0.00006
25.75 -0.00049
25.8 -0.00078
25.85 -0.00098
25.9 -0.00066
25.95 0.00015
26 0.00081
26.05 0.00145
26.1 0.00152
26.15 0.00145
26.2 0.00117
26.25 0.00059
26.3 0.00015
26.35 0.00039
26.4 0.00061
26.45 0.00034
26.5 -0.00019
26.55 -0.00079
26.6 -0.00107
26.65 -0.00163
26.7 -0.00138
26.75 -0.00148
26.8 -0.00117
26.85 -0.0004
26.9 0.00027
26.95 0.00023
27 0.00065
27.05 0.00065
27.1 0.00083
27.15 0.00117
27.2 0.00137
27.25 0.00125
27.3 0.00099
27.35 0.00057
27.4 0.00076
27.45 0.00097
27.5 0.00114
27.55 0.00061
27.6 0.00057
27.65 0.00034
27.7 0.00073
27.75 0.00054
27.8 -0.00008
27.85 -0.00085
27.9 -0.00098
27.95 -0.00065
28 -0.00019
28.05 0.00025
28.1 0.00084
28.15 0.00107
28.2 0.00064
28.25 -0.00002
28.3 -0.00098
28.35 -0.00134
28.4 -0.00157
28.45 -0.0012
28.5 -0.0012
28.55 -0.00121
28.6 -0.00161
28.65 -0.00208
28.7 -0.00177
28.75 -0.00188
28.8 -0.00171
28.85 -0.00114
28.9 -0.00031
28.95 -0.00027
29 -0.00036
29.05 -0.00073
29.1 -0.00108
29.15 -0.00146
29.2 -0.00119
29.25 -0.00041
29.3 -0.00002
29.35 0.00069
29.4 0.00067
29.45 0.00081
29.5 0.00147
29.55 0.00225
29.6 0.00318
29.65 0.00384
29.7 0.00435
29.75 0.00465
29.8 0.00436
29.85 0.00441
29.9 0.00451
29.95 0.00361
30 0.0024
30.05 0.00113
30.1 -0.00013
30.15 -0.0013
30.2 -0.00184
30.25 -0.00213
30.3 -0.00254
30.35 -0.00275
30.4 -0.00283
30.45 -0.00319
30.5 -0.00278
30.55 -0.00182
30.6 -0.00126
30.65 -0.00126
30.7 -0.00171
30.75 -0.00224
30.8 -0.00276
30.85 -0.00251
30.9 -0.00151
30.95 -0.00092
31 0.00003
31.05 0.00079
31.1 0.00177
31.15 0.00228
31.2 0.00213
31.25 0.00163
31.3 0.00081
31.35 0.00068
31.4 0.00058
31.45 -0.00006
31.5 -0.00046
31.55 -0.00094
31.6 -0.00162
31.65 -0.00168
31.7 -0.00179
31.75 -0.00174
31.8 -0.00109
31.85 -0.00043
31.9 -0.00031
31.95 -0.00066
32 -0.00127
32.05 -0.00163
32.1 -0.00166
32.15 -0.00171
32.2 -0.00208
32.25 -0.0025
32.3 -0.00217
32.35 -0.00217
32.4 -0.00203
32.45 -0.0023
32.5 -0.00191
32.55 -0.00147
32.6 -0.00066
32.65 -0.0004
32.7 -0.00052
32.75 -0.00074
32.8 -0.0002
32.85 -0.00023
32.9 -0.00065
32.95 -0.00036
33 -0.00057
33.05 -0.00061
33.1 -0.00026
33.15 -0.00001
33.2 0.0006
33.25 0.00142
33.3 0.00169
33.35 0.00218
33.4 0.00244
33.45 0.00294
33.5 0.00342
33.55 0.00387
33.6 0.0034
33.65 0.00294
33.7 0.0021
33.75 0.00107
33.8 0.0002
33.85 -0.00038
33.9 -0.00028
33.95 -0.00041
34 -0.00012
34.05 0.0006
34.1 0.00072
34.15 0.0011
34.2 0.00136
34.25 0.00153
34.3 0.00102
34.35 0.0007
34.4 0.00105
34.45 0.00112
34.5 0.00122
34.55 0.00107
34.6 0.00146
34.65 0.00201
34.7 0.00253
34.75 0.0024
34.8 0.00205
34.85 0.00108
34.9 0.00021
34.95 0.00011
35 0.00032
35.05 0.0001
35.1 0.00038
35.15 0.00085
35.2 0.00163
35.25 0.00181
35.3 0.00157
35.35 0.00097
35.4 0.00036
35.45 -0.00047
35.5 -0.00057
35.55 -0.0004
35.6 0.00024
35.65 0.00103
35.7 0.00143
35.75 0.00119
35.8 0.00057
35.85 0.00063
35.9 0.00106
35.95 0.00152
36 0.00137
36.05 0.00142
36.1 0.00074
36.15 0.00053
36.2 0.00031
36.25 0.00024
36.3 -0.00025
36.35 0
36.4 0.00036
36.45 0.00052
36.5 0.00112
36.55 0.00139
36.6 0.00111
36.65 0.00034
36.7 0.00023
36.75 -0.0004
36.8 -0.00037
36.85 -0.00018
36.9 -0.00004
36.95 0.00046
37 0.00125
37.05 0.00152
37.1 0.00142
37.15 0.00138
37.2 0.00098
37.25 0.00057
37.3 -0.00028
37.35 -0.00112
37.4 -0.00117
37.45 -0.00076
37.5 -0.00097
37.55 -0.00133
37.6 -0.00137
37.65 -0.00136
37.7 -0.00098
37.75 -0.00105
37.8 -0.00091
37.85 -0.00055
37.9 0.00012
37.95 0.00024
38 0.00053
38.05 0.00051
38.1 0.00094
38.15 0.00131
38.2 0.00132
38.25 0.00116
38.3 0.0015
38.35 0.00113
38.4 0.00027
38.45 -0.0005
38.5 -0.00143
38.55 -0.00237
38.6 -0.00327
38.65 -0.00341
38.7 -0.00264
38.75 -0.00173
38.8 -0.00116
38.85 -0.00119
38.9 -0.00156
38.95 -0.0018
39 -0.00213
39.05 -0.00204
39.1 -0.00229
39.15 -0.00235
39.2 -0.00159
39.25 -0.00085
39.3 -0.00066
39.35 -0.00019
39.4 0.00048
39.45 0.00069
39.5 0.00106
39.55 0.00156
39.6 0.00137
39.65 0.0013
39.7 0.00164
39.75 0.0016
39.8 0.00201
39.85 0.0026
39.9 0.00246
39.95 0.00183
40 0.00182
40.05 0.002
40.1 0.00227
40.15 0.00183
40.2 0.00157
40.25 0.00184
40.3 0.00226
40.35 0.00194
40.4 0.00128
40.45 0.00056
40.5 0.00054
40.55 0.00048
40.6 -0.00015
40.65 -0.00065
40.7 -0.00155
40.75 -0.00181
40.8 -0.00238
40.85 -0.00233
40.9 -0.00247
40.95 -0.00186
41 -0.00133
41.05 -0.00109
41.1 -0.00115
41.15 -0.00104
41.2 -0.00094
41.25 -0.00117
41.3 -0.001
41.35 -0.00141
41.4 -0.00202
41.45 -0.00277
41.5 -0.00345
41.55 -0.00375
41.6 -0.00324
41.65 -0.00297
41.7 -0.00272
41.75 -0.00226
41.8 -0.00198
41.85 -0.00212
41.9 -0.00214
41.95 -0.00162
42 -0.00089
42.05 -0.00093
42.1 -0.00078
42.15 -0.00009
42.2 0.00096
42.25 0.00107
42.3 0.00139
42.35 0.00105
42.4 0.00102
42.45 0.00148
42.5 0.00163
42.55 0.00112
42.6 0.00101
42.65 0.00046
42.7 -0.00001
42.75 0.0001
42.8 -0.0003
42.85 -0.00024
42.9 -0.0003
42.95 -0.00033
43 -0.0008
43.05 -0.00139
43.1 -0.00199
43.15 -0.00226
43.2 -0.00241
43.25 -0.00203
43.3 -0.00218
43.35 -0.00247
43.4 -0.00202
43.45 -0.00096
43.5 0.00004
43.55 0.00081
43.6 0.00068
43.65 0.00013
43.7 0.00022
43.75 -0.00002
43.8 -0.00025
43.85 -0.00048
43.9 -0.00052
43.95 -0.00074
44 -0.00134
44.05 -0.00124
44.1 -0.00133
44.15 -0.00102
44.2 -0.00027
44.25 0.00055
44.3 0.00145
44.35 0.00149
44.4 0.00161
44.45 0.00113
44.5 0.0003
44.55 -0.0005
44.6 -0.00077
44.65 -0.00108
44.7 -0.00166
44.75 -0.00177
44.8 -0.00211
44.85 -0.00253
44.9 -0.00227
44.95 -0.00226
45 -0.00207
45.05 -0.00179
45.1 -0.0017
45.15 -0.00192
45.2 -0.00158
45.25 -0.00116
45.3 -0.00062
45.35 0.00042
45.4 0.00164
45.45 0.00257
45.5 0.00276
45.55 0.00215
45.6 0.00173
45.65 0.00128
45.7 0.00102
45.75 0.00133
45.8 0.00172
45.85 0.00155
45.9 0.00106
45.95 0.00079
46 0.00078
46.05 0.00095
46.1 0.00133
46.15 0.00117
46.2 0.0005
46.25 -0.00039
46.3 -0.00052
46.35 -0.00023
46.4 0
46.45 0.00039
46.5 0.00097
46.55 0.00118
46.6 0.00152
46.65 0.00145
46.7 0.00108
46.75 0.00134
46.8 0.00194
46.85 0.00195
46.9 0.00129
46.95 0.0013
47 0.00173
47.05 0.00218
47.1 0.00258
47.15 0.00317
47.2 0.0036
47.25 0.00296
47.3 0.00205
47.35 0.00166
47.4 0.00069
47.45 -0.00032
47.5 -0.00121
47.55 -0.00177
47.6 -0.00157
47.65 -0.00157
47.7 -0.002
47.75 -0.00182
47.8 -0.00179
47.85 -0.0017
47.9 -0.00212
47.95 -0.00227
48 -0.00245
48.05 -0.00331
48.1 -0.00382
48.15 -0.00426
48.2 -0.00515
48.25 -0.00633
48.3 -0.0075
48.35 -0.00934
48.4 -0.01157
48.45 -0.01362
48.5 -0.01597
48.55 -0.0194
48.6 -0.02363
48.65 -0.02784
48.7 -0.03273
48.75 -0.03775
48.8 -0.04341
48.85 -0.0497
48.9 -0.0565
48.95 -0.0648
49 -0.07342
49.05 -0.08249
49.1 -0.09331
49.15 -0.10455
49.2 -0.11664
49.25 -0.13031
49.3 -0.14522
49.35 -0.16043
49.4 -0.17582
49.45 -0.19162
49.5 -0.20758
49.55 -0.22446
49.6 -0.24098
49.65 -0.25675
49.7 -0.27194
49.75 -0.28743
49.8 -0.30169
49.85 -0.31478
49.9 -0.326
49.95 -0.33525
50 -0.34288
50.05 -0.34828
50.1 -0.35137
50.15 -0.35214
50.2 -0.35039
50.25 -0.34675
50.3 -0.34054
50.35 -0.33137
50.4 -0.32028
50.45 -0.30664
50.5 -0.29095
50.55 -0.27307
50.6 -0.25357
50.65 -0.23356
50.7 -0.21206
50.75 -0.19026
50.8 -0.16839
50.85 -0.14689
50.9 -0.12523
50.95 -0.10448
51 -0.08483
51.05 -0.06526
51.1 -0.04675
51.15 -0.02921
51.2 -0.01261
51.25 0.00225
51.3 0.01604
51.35 0.02887
51.4 0.0406
51.45 0.05068
51.5 0.05961
51.55 0.06774
51.6 0.07492
51.65 0.08261
51.7 0.09023
51.75 0.09857
51.8 0.1067
51.85 0.11543
51.9 0.12418
51.95 0.13315
52 0.14282
52.05 0.15314
52.1 0.16442
52.15 0.17588
52.2 0.18788
52.25 0.20029
52.3 0.2126
52.35 0.22492
52.4 0.23688
52.45 0.24846
52.5 0.25952
52.55 0.27025
52.6 0.2808
52.65 0.29124
52.7 0.30019
52.75 0.30778
52.8 0.31441
52.85 0.31997
52.9 0.32508
52.95 0.32881
53 0.33129
53.05 0.33206
53.1 0.33121
53.15 0.32965
53.2 0.32666
53.25 0.32332
53.3 0.31867
53.35 0.31381
53.4 0.30861
53.45 0.30304
53.5 0.29603
53.55 0.28895
53.6 0.28179
53.65 0.27347
53.7 0.26438
53.75 0.25551
53.8 0.24641
53.85 0.23677
53.9 0.2272
53.95 0.21758
54 0.20812
54.05 0.19875
54.1 0.18985
54.15 0.18107
54.2 0.17304
54.25 0.16546
54.3 0.15818
54.35 0.15124
54.4 0.14394
54.45 0.13678
54.5 0.12896
54.55 0.12113
54.6 0.11334
54.65 0.10635
54.7 0.09922
54.75 0.0931
54.8 0.08702
54.85 0.0812
54.9 0.07575
54.95 0.07026
55 0.0655
55.05 0.06126
55.1 0.05732
55.15 0.05277
55.2 0.04765
55.25 0.04251
55.3 0.03774
55.35 0.03304
55.4 0.02884
55.45 0.02518
55.5 0.02203
55.55 0.01854
55.6 0.01505
55.65 0.01128
55.7 0.00737
55.75 0.00417
55.8 0.00091
55.85 -0.00205
55.9 -0.00472
55.95 -0.00769
56 -0.01001
56.05 -0.01249
56.1 -0.01519
56.15 -0.01759
56.2 -0.02031
56.25 -0.02213
56.3 -0.02445
56.35 -0.02706
56.4 -0.02907
56.45 -0.03042
56.5 -0.03157
56.55 -0.03319
56.6 -0.03467
56.65 -0.03601
56.7 -0.03677
56.75 -0.03809
56.8 -0.03892
56.85 -0.03936
56.9 -0.03944
56.95 -0.04039
57 -0.04193
57.05 -0.04321
57.1 -0.04466
57.15 -0.04565
57.2 -0.04684
57.25 -0.04783
57.3 -0.04792
57.35 -0.04795
57.4 -0.0478
57.45 -0.04781
57.5 -0.0474
57.55 -0.04711
57.6 -0.04741
57.65 -0.04707
57.7 -0.04657
57.75 -0.04683
57.8 -0.04656
57.85 -0.04651
57.9 -0.0467
57.95 -0.04699
58 -0.04706
58.05 -0.04638
58.1 -0.04618
58.15 -0.04536
58.2 -0.04464
58.25 -0.04369
58.3 -0.04308
58.35 -0.043
58.4 -0.04257
58.45 -0.04272
58.5 -0.04292
58.55 -0.04338
58.6 -0.04293
58.65 -0.04267
58.7 -0.0427
58.75 -0.04209
58.8 -0.04128
58.85 -0.04109
58.9 -0.04032
58.95 -0.04001
59 -0.03917
59.05 -0.03861
59.1 -0.03777
59.15 -0.03748
59.2 -0.03675
59.25 -0.03593
59.3 -0.0357
59.35 -0.03566
59.4 -0.03598
59.45 -0.03584
59.5 -0.03594
59.55 -0.03533
59.6 -0.03462
59.65 -0.03343
59.7 -0.03232
59.75 -0.03102
59.8 -0.03008
59.85 -0.02974
59.9 -0.02984
59.95 -0.02994
60 -0.02988
60.05 -0.03015
60.1 -0.02959
60.15 -0.0289
60.2 -0.0284
60.25 -0.02763
60.3 -0.02739
60.35 -0.02661
60.4 -0.02537
60.45 -0.02393
60.5 -0.02253
60.55 -0.02211
60.6 -0.02211
60.65 -0.02239
60.7 -0.02244
60.75 -0.02287
60.8 -0.02249
60.85 -0.02241
60.9 -0.02212
60.95 -0.0222
61 -0.02227
61.05 -0.0219
61.1 -0.02201
61.15 -0.02202
61.2 -0.02168
61.25 -0.02115
61.3 -0.02033
61.35 -0.01955
61.4 -0.01942
61.45 -0.0193
61.5 -0.01867
61.55 -0.01856
61.6 -0.01888
61.65 -0.01937
61.7 -0.01977
61.75 -0.01961
61.8 -0.0193
61.85 -0.01881
61.9 -0.01829
61.95 -0.01746
62 -0.01648
62.05 -0.01549
62.1 -0.01446
62.15 -0.01375
62.2 -0.01297
62.25 -0.01281
62.3 -0.01324
62.35 -0.01367
62.4 -0.01412
62.45 -0.01408
62.5 -0.01348
62.55 -0.01267
62.6 -0.01187
62.65 -0.01101
62.7 -0.01044
62.75 -0.01039
62.8 -0.01028
62.85 -0.01008
62.9 -0.01014
62.95 -0.01073
63 -0.01159
63.05 -0.01223
63.1 -0.01242
63.15 -0.01267
63.2 -0.01321
63.25 -0.01296
63.3 -0.0126
63.35 -0.01177
63.4 -0.01125
63.45 -0.01041
63.5 -0.00959
63.55 -0.00853
63.6 -0.00746
63.65 -0.00652
63.7 -0.00607
63.75 -0.00567
63.8 -0.00533
63.85 -0.00551
63.9 -0.00605
63.95 -0.00615
64 -0.00613
64.05 -0.00575
64.1 -0.00556
64.15 -0.00593
64.2 -0.00614
64.25 -0.00603
64.3 -0.00594
64.35 -0.00558
64.4 -0.00545
64.45 -0.0053
64.5 -0.00548
64.55 -0.00556
64.6 -0.00585
64.65 -0.0061
64.7 -0.00673
64.75 -0.00766
64.8 -0.00763
64.85 -0.00767
64.9 -0.00813
64.95 -0.00887
65 -0.00905
65.05 -0.00858
65.1 -0.00845
65.15 -0.00769
65.2 -0.00743
65.25 -0.00768
65.3 -0.0074
65.35 -0.00646
65.4 -0.00521
65.45 -0.00482
65.5 -0.00497
65.55 -0.00502
65.6 -0.00553
65.65 -0.00543
65.7 -0.00568
65.75 -0.00612
65.8 -0.00657
65.85 -0.00716
65.9 -0.00691
65.95 -0.00693
66 -0.00612
66.05 -0.00545
66.1 -0.00446
66.15 -0.00393
66.2 -0.00365
66.25 -0.00318
66.3 -0.00235
66.35 -0.00236
66.4 -0.00289
66.45 -0.00274
66.5 -0.00306
66.55 -0.00385
66.6 -0.00375
66.65 -0.00337
66.7 -0.00281
66.75 -0.00265
66.8 -0.00314
66.85 -0.00368
66.9 -0.00447
66.95 -0.0043
67 -0.00456
67.05 -0.00416
67.1 -0.0035
67.15 -0.00362
67.2 -0.00355
67.25 -0.00385
67.3 -0.00395
67.35 -0.00426
67.4 -0.00493
67.45 -0.00551
67.5 -0.00519
67.55 -0.00474
67.6 -0.00447
67.65 -0.00419
67.7 -0.00432
67.75 -0.00441
67.8 -0.00475
67.85 -0.00487
67.9 -0.00531
67.95 -0.00501
68 -0.0048
68.05 -0.00443
68.1 -0.00421
68.15 -0.00333
68.2 -0.00241
68.25 -0.00178
68.3 -0.00131
68.35 -0.00125
68.4 -0.00151
68.45 -0.00181
68.5 -0.00228
68.55 -0.00229
68.6 -0.00224
68.65 -0.00258
68.7 -0.00322
68.75 -0.00321
68.8 -0.0029
68.85 -0.00206
68.9 -0.00198
68.95 -0.00173
69 -0.00096
69.05 -0.00006
69.1 0.00082
69.15 0.00149
69.2 0.00185
69.25 0.00168
69.3 0.00136
69.35 0.0008
69.4 0.00054
69.45 0.00009
69.5 -0.00057
69.55 -0.00126
69.6 -0.00188
69.65 -0.0025
69.7 -0.00259
69.75 -0.00279
69.8 -0.00255
69.85 -0.00182
69.9 -0.00174
69.95 -0.00122
70 -0.00076
70.05 -0.00046
70.1 0.00025
70.15 0.00114
70.2 0.00157
70.25 0.00217
70.3 0.00175
70.35 0.00094
70.4 0.00053
70.45 0.00072
70.5 0.00068
70.55 0.00049
70.6 0.00008
70.65 -0.00078
70.7 -0.0017
70.75 -0.00179
70.8 -0.00221
70.85 -0.00292
70.9 -0.00281
70.95 -0.00253
71 -0.00242
71.05 -0.00277
71.1 -0.00283
71.15 -0.00238
71.2 -0.00165
71.25 -0.00088
71.3 -0.00029
71.35 0.00062
71.4 0.00052
71.45 0.00074
71.5 0.00021
71.55 -0.00001
71.6 0.00024
71.65 0.00043
71.7 0.0001
71.75 -0.00016
71.8 0.00001
71.85 0.00042
71.9 0.00107
71.95 0.00078
72 0.00011
72.05 -0.00014
72.1 -0.00077
72.15 -0.00061
72.2 -0.00084
72.25 -0.00054
72.3 -0
72.35 -0.00012
72.4 0.00023
72.45 0.00064
72.5 0.00076
72.55 0.00104
72.6 0.00081
72.65 0.0007
72.7 0.00098
72.75 0.00107
72.8 0.00151
72.85 0.00123
72.9 0.00105
72.95 0.00022
73 -0.00071
73.05 -0.00163
73.1 -0.00213
73.15 -0.00226
73.2 -0.00248
73.25 -0.00273
73.3 -0.00316
73.35 -0.00363
73.4 -0.00409
73.45 -0.00458
73.5 -0.00466
73.55 -0.00463
73.6 -0.00458
73.65 -0.00431
73.7 -0.00322
73.75 -0.00199
73.8 -0.00114
73.85 -0.00026
73.9 -0.00015
73.95 -0.0004
74 -0.00047
74.05 -0.00092
74.1 -0.00122
74.15 -0.0012
74.2 -0.00169
74.25 -0.00174
74.3 -0.00187
74.35 -0.00209
74.4 -0.00146
74.45 -0.00104
74.5 -0.001
74.55 -0.00054
74.6 0.0002
74.65 0.00068
74.7 0.00057
74.75 0.00023
74.8 0.00036
74.85 0.00058
74.9 0.00062
74.95 0.00025
75 -0.00056
75.05 -0.00065
75.1 -0.0003
75.15 0.00038
75.2 0.00044
75.25 0.00001
75.3 -0.00001
75.35 0.00043
75.4 0.0011
75.45 0.00174
75.5 0.00245
75.55 0.00258
75.6 0.00259
75.65 0.00243
75.7 0.00157
75.75 0.00063
75.8 0.00052
75.85 0.00069
75.9 0.00077
75.95 0.00048
76 0.00022
76.05 0.00022
76.1 -0.00011
76.15 -0.00061
76.2 -0.0013
76.25 -0.00218
76.3 -0.0025
76.35 -0.0024
76.4 -0.00159
76.45 -0.00064
76.5 -0.00058
76.55 -0.00081
76.6 -0.00117
76.65 -0.00132
76.7 -0.00113
76.75 -0.00042
76.8 -0.00014
76.85 0.00052
76.9 0.00049
76.95 0.00083
77 0.00139
77.05 0.00211
77.1 0.00278
77.15 0.00303
77.2 0.00316
77.25 0.00264
77.3 0.00185
77.35 0.00088
77.4 -0.0004
77.45 -0.00082
77.5 -0.00156
77.55 -0.00144
77.6 -0.00084
77.65 -0.00026
77.7 -0.00028
77.75 0.00021
77.8 0.00055
77.85 0.0003
77.9 -0.00031
77.95 -0.00086
78 -0.00066
78.05 0.00003
78.1 0.00053
78.15 0.00028
78.2 0.0006
78.25 0.00046
78.3 -0.00002
78.35 -0.00045
78.4 -0.00095
78.45 -0.00083
78.5 -0.00126
78.55 -0.0012
78.6 -0.00162
78.65 -0.00191
78.7 -0.00161
78.75 -0.00074
78.8 -0.00049
78.85 -0.00088
78.9 -0.00124
78.95 -0.00134
79 -0.0019
79.05 -0.00238
79.1 -0.00209
79.15 -0.00184
79.2 -0.00129
79.25 -0.00105
79.3 -0.00101
79.35 -0.00105
79.4 -0.00076
79.45 -0.00092
79.5 -0.00107
79.55 -0.00109
79.6 -0.00089
79.65 -0.00031
79.7 0.00066
79.75 0.00181
79.8 0.00237
79.85 0.00248
79.9 0.00286
79.95 0.00338
80 0.00344
80.05 0.00358
80.1 0.00358
80.15 0.00358
80.2 0.003
80.25 0.00223
80.3 0.00208
80.35 0.00169
80.4 0.00103
80.45 0.00013
80.5 -0.00104
80.55 -0.00152
80.6 -0.00187
80.65 -0.00216
80.7 -0.00243
80.75 -0.0021
80.8 -0.00171
80.85 -0.00162
80.9 -0.00159
80.95 -0.00114
81 -0.0013
81.05 -0.00113
81.1 -0.00105
81.15 -0.00105
81.2 -0.00119
81.25 -0.00073
81.3 -0.00051
81.35 -0.00085
81.4 -0.00135
81.45 -0.00207
81.5 -0.00183
81.55 -0.00103
81.6 -0.00059
81.65 -0.00034
81.7 -0.0004
81.75 -0.00068
81.8 -0.00044
81.85 -0.00063
81.9 -0.00073
81.95 -0.00031
82 0.00043
82.05 0.00114
82.1 0.00091
82.15 0.00115
82.2 0.00106
82.25 0.00076
82.3 0.00103
82.35 0.00077
82.4 0.00078
82.45 0.00131
82.5 0.0011
82.55 0.00145
82.6 0.00097
82.65 0.0003
82.7 -0.00042
82.75 -0.00107
82.8 -0.00145
82.85 -0.00177
82.9 -0.0024
82.95 -0.003
83 -0.00271
83.05 -0.00189
83.1 -0.00135
83.15 -0.00039
83.2 0.00058
83.25 0.00153
83.3 0.00175
83.35 0.00175
83.4 0.00185
83.45 0.0014
83.5 0.00065
83.55 0.00047
83.6 -0.00028
83.65 -0.00067
83.7 -0.00037
83.75 -0.00046
83.8 -0.00074
83.85 -0.00114
83.9 -0.00098
83.95 -0.001
84 -0.00076
84.05 -0.00035
84.1 0.00005
84.15 0.00025
84.2 0.00061
84.25 0.00074
84.3 0.00069
84.35 0.00054
84.4 0.0004
84.45 -0.00026
84.5 -0.00028
84.55 -0.00018
84.6 -0.00001
84.65 -0.0001
84.7 -0.00026
84.75 -0.00053
84.8 -0.00009
84.85 -0.00025
84.9 -0.00093
84.95 -0.00074
85 -0.0002
85.05 0.00034
85.1 0.00101
85.15 0.00137
85.2 0.00168
85.25 0.0014
85.3 0.00147
85.35 0.00129
85.4 0.00154
85.45 0.00139
85.5 0.00087
85.55 0.00016
85.6 -0.00065
85.65 -0.00162
85.7 -0.00258
85.75 -0.00245
85.8 -0.00217
85.85 -0.00172
85.9 -0.00152
85.95 -0.00114
86 -0.00108
86.05 -0.00058
86.1 -0.00014
86.15 0.00016
86.2 -0.00018
86.25 -0.00049
86.3 -0.0003
86.35 -0.00045
86.4 -0.00033
86.45 -0.00065
86.5 -0.00078
86.55 -0.00025
86.6 0.00003
86.65 -0.00023
86.7 0.00021
86.75 -0.00003
86.8 -0.00025
86.85 0.00011
86.9 0.00075
86.95 0.00105
87 0.00105
87.05 0.00087
87.1 0.00055
87.15 -0.00002
87.2 -0.00037
87.25 -0.00009
87.3 -0.00046
87.35 -0.00035
87.4 -0.00019
87.45 -0.00036
87.5 -0.00065
87.55 -0.00024
87.6 0.00001
87.65 0.00056
87.7 0.00063
87.75 0.00047
87.8 0.00091
87.85 0.0015
87.9 0.00187
87.95 0.00189
88 0.0014
88.05 0.00154
88.1 0.00189
88.15 0.00182
88.2 0.00196
88.25 0.00213
88.3 0.0016
88.35 0.00144
88.4 0.00154
88.45 0.00125
88.5 0.00069
88.55 0.0007
88.6 0.00044
88.65 0.00079
88.7 0.0004
88.75 -0.00015
88.8 -0.00031
88.85 0.00016
88.9 0.00029
88.95 -0.0001
89 -0.00015
89.05 -0.00077
89.1 -0.00173
89.15 -0.00267
89.2 -0.00322
89.25 -0.00325
89.3 -0.00256
89.35 -0.00184
89.4 -0.00113
89.45 -0.00091
89.5 -0.00101
89.55 -0.00045
89.6 -0.00013
89.65 -0.00027
89.7 -0.00059
89.75 -0.00035
89.8 -0.00036
89.85 -0.00082
89.9 -0.00157
89.95 -0.00141
90 -0.00138
90.05 -0.00138
90.1 -0.00095
90.15 -0.00005
90.2 0.00108
90.25 0.00213
90.3 0.00289
90.35 0.0029
90.4 0.00232
90.45 0.00141
90.5 0.00129
90.55 0.00049
90.6 -0.00013
90.65 -0.00095
90.7 -0.00146
90.75 -0.00163
90.8 -0.00111
90.85 -0.00052
90.9 0.00012
90.95 0.00049
91 0.00094
91.05 0.00094
91.1 0.001
91.15 0.00101
91.2 0.00051
91.25 -0.00016
91.3 -0.00094
91.35 -0.00121
91.4 -0.00118
91.45 -0.00149
91.5 -0.00209
91.55 -0.00211
91.6 -0.0018
91.65 -0.00135
91.7 -0.0009
91.75 -0.00062
91.8 -0.0002
91.85 0.00059
91.9 0.00067
91.95 0.0003
92 -0.00011
92.05 -0.00044
92.1 -0.00052
92.15 -0.00041
92.2 -0.00025
92.25 0.00016
92.3 -0.00018
92.35 0.00008
92.4 0.00071
92.45 0.00074
92.5 0.00118
92.55 0.00155
92.6 0.00206
92.65 0.00188
92.7 0.00188
92.75 0.00193
92.8 0.00168
92.85 0.00182
92.9 0.00198
92.95 0.00201
93 0.00127
93.05 0.00078
93.1 0.00009
93.15 -0.00074
93.2 -0.00084
93.25 -0.00138
93.3 -0.00169
93.35 -0.00205
93.4 -0.00166
93.45 -0.00166
93.5 -0.00123
93.55 -0.00094
93.6 -0.00029
93.65 0.00017
93.7 0.00041
93.75 0.00105
93.8 0.00113
93.85 0.00063
93.9 -0.00016
93.95 -0.00121
94 -0.00188
94.05 -0.00218
94.1 -0.00195
94.15 -0.00198
94.2 -0.00175
94.25 -0.00188
94.3 -0.00203
94.35 -0.00189
94.4 -0.00132
94.45 -0.00144
94.5 -0.00085
94.55 -0.00008
94.6 0.00023
94.65 0.00099
94.7 0.00087
94.75 0.0005
94.8 0.00081
94.85 0.00113
94.9 0.00148
94.95 0.00186
95 0.00143
95.05 0.00057
95.1 0.00012
95.15 0.00022
95.2 0.00045
95.25 -0.00004
95.3 -0.00058
95.35 -0.00139
95.4 -0.00158
95.45 -0.00161
95.5 -0.00119
95.55 -0.0014
95.6 -0.001
95.65 -0.00098
95.7 -0.00039
95.75 0.00026
95.8 0.00041
95.85 0.00031
95.9 0.00069
95.95 0.00091
96 0.0014
96.05 0.00206
96.1 0.0023
96.15 0.00206
96.2 0.00224
96.25 0.00275
96.3 0.00233
96.35 0.00231
96.4 0.00195
96.45 0.00131
96.5 0.00034
96.55 0.00005
96.6 -0.00076
96.65 -0.00174
96.7 -0.00231
96.75 -0.00255
96.8 -0.0025
96.85 -0.00208
96.9 -0.00109
96.95 -0.00009
97 0.00014
97.05 0.00029
97.1 0.00023
97.15 0.00001
97.2 -0.0001
97.25 -0.00053
97.3 -0.00047
97.35 0.00007
97.4 -0.00014
97.45 -0.00045
97.5 -0.00006
97.55 0.00048
97.6 0.00042
97.65 0.00013
97.7 0.00046
97.75 0.00009
97.8 -0.00005
97.85 0.00028
97.9 -0.00003
97.95 0.00031
98 0.00011
98.05 0.00022
98.1 0.0005
98.15 0.0009
98.2 0.00081
98.25 0.00036
98.3 -0.00033
98.35 -0.00018
98.4 -0.00065
98.45 -0.00092
98.5 -0.00046
98.55 -0.00042
98.6 -0.00057
98.65 -0.00011
98.7 -0.0003
98.75 -0.00018
98.8 -0.0003
98.85 -0.00089
98.9 -0.00177
98.95 -0.00257
99 -0.00261
99.05 -0.00278
99.1 -0.00256
99.15 -0.00161
99.2 -0.00111
99.25 -0.00092
99.3 -0.00029
99.35 0.00035
99.4 0.00076
99.45 0.00047
99.5 0.00011
99.55 0.00036
99.6 0.00017
99.65 -0.00031
99.7 -0.00104
99.75 -0.00101
99.8 -0.00128
99.85 -0.00127
99.9 -0.00127
99.95 -0.00168
