0 0
0.05 0.00025
0.1 0.00096
0.15 0.00184
0.2 0.00277
0.25 0.00393
0.3 0.00501
0.35 0.00577
0.4 0.00661
0.45 0.00682
0.5 0.00666
0.55 0.00652
0.6 0.00655
0.65 0.0068
0.7 0.007
0.75 0.00679
0.8 0.00648
0.85 0.00637
0.9 0.00593
0.95 0.00505
1 0.00443
1.05 0.00387
1.1 0.00363
1.15 0.00307
1.2 0.00307
1.25 0.00353
1.3 0.00398
1.35 0.00466
1.4 0.00469
1.45 0.00461
1.5 0.00466
1.55 0.00444
1.6 0.0039
1.65 0.00363
1.7 0.00302
1.75 0.00306
1.8 0.00333
1.85 0.00383
1.9 0.00433
1.95 0.0044
2 0.00451
2.05 0.00469
2.1 0.00419
2.15 0.00336
2.2 0.00287
2.25 0.00209
2.3 0.00121
2.35 0.00053
2.4 0.00004
2.45 -0.00022
2.5 -0.00026
2.55 -0.00032
2.6 -0.00056
2.65 -0.00092
2.7 -0.00093
2.75 -0.00037
2.8 0.00032
2.85 0.00061
2.9 0.00109
2.95 0.00183
3 0.00274
3.05 0.00358
3.1 0.00361
3.15 0.00334
3.2 0.00275
3.25 0.00194
3.3 0.00149
3.35 0.00128
3.4 0.00157
3.45 0.00189
3.5 0.00169
3.55 0.00171
3.6 0.00131
3.65 0.00096
3.7 0.00045
3.75 -0.00019
3.8 -0.00015
3.85 0.00006
3.9 0.00052
3.95 0.00123
4 0.00148
4.05 0.00184
4.1 0.00207
4.15 0.00219
4.2 0.00192
4.25 0.00149
4.3 0.00131
4.35 0.00138
4.4 0.00142
4.45 0.00116
4.5 0.00083
4.55 0.00064
4.6 0.00068
4.65 0.00057
4.7 0.00022
4.75 0.00004
4.8 0.00014
4.85 0.00019
4.9 0.00007
4.95 0.00017
5 0.00054
5.05 0.00102
5.1 0.00122
5.15 0.00149
5.2 0.00204
5.25 0.00229
5.3 0.00246
5.35 0.00241
5.4 0.00236
5.45 0.00217
5.5 0.00202
5.55 0.00228
5.6 0.00265
5.65 0.00283
5.7 0.00294
5.75 0.003
5.8 0.00293
5.85 0.0029
5.9 0.00271
5.95 0.00262
6 0.00237
6.05 0.00173
6.1 0.00153
6.15 0.0013
6.2 0.00073
6.25 0.00069
6.3 0.00043
6.35 0.00022
6.4 -0.00016
6.45 -0.00076
6.5 -0.00098
6.55 -0.00139
6.6 -0.00122
6.65 -0.00051
6.7 0.00013
6.75 0.00094
6.8 0.00154
6.85 0.00178
6.9 0.00209
6.95 0.00218
7 0.00251
7.05 0.00249
7.1 0.00188
7.15 0.00129
7.2 0.00116
7.25 0.00129
7.3 0.00124
7.35 0.00133
7.4 0.00108
7.45 0.00067
7.5 0.00042
7.55 0.00038
7.6 0.00021
7.65 0.00038
7.7 0.00007
7.75 -0.00023
7.8 -0.00068
7.85 -0.00116
7.9 -0.00158
7.95 -0.0018
8 -0.00138
8.05 -0.00106
8.1 -0.00058
8.15 0.00019
8.2 0.00073
8.25 0.00142
8.3 0.00171
8.35 0.00148
8.4 0.00117
8.45 0.0011
8.5 0.00071
8.55 0.00007
8.6 -0.00024
8.65 -0.00012
8.7 -0.00011
8.75 0.00032
8.8 0.0003
8.85 -0.00005
8.9 0.00001
8.95 0.00015
9 0.00022
9.05 -0.00006
9.1 -0.00051
9.15 -0.00096
9.2 -0.00128
9.25 -0.00168
9.3 -0.0018
9.35 -0.00161
9.4 -0.00091
9.45 -0.00018
9.5 0.00079
9.55 0.00137
9.6 0.00177
9.65 0.00166
9.7 0.00153
9.75 0.00136
9.8 0.00141
9.85 0.00105
9.9 0.00097
9.95 0.00085
10 0.00035
10.05 0.00045
10.1 0.00063
10.15 0.00068
10.2 0.00028
10.25 -0.00014
10.3 -0.00053
10.35 -0.00027
10.4 0.00038
10.45 0.00075
10.5 0.00122
10.55 0.00139
10.6 0.00153
10.65 0.00193
10.7 0.00181
10.75 0.00129
10.8 0.00128
10.85 0.0011
10.9 0.00073
10.95 0.00077
11 0.0011
11.05 0.00101
11.1 0.00132
11.15 0.00116
11.2 0.00118
11.25 0.00102
11.3 0.00093
11.35 0.0006
11.4 0.00008
11.45 -0.00015
11.5 -0.00002
11.55 0.00012
11.6 0.00017
11.65 0.00057
11.7 0.00095
11.75 0.0011
11.8 0.00099
11.85 0.00078
11.9 0.00086
11.95 0.0005
12 -0.00003
12.05 -0.00062
12.1 -0.00121
12.15 -0.00119
12.2 -0.00081
12.25 -0.00041
12.3 0.00016
12.35 0.00081
12.4 0.00097
12.45 0.0007
12.5 0.00044
12.55 0.00057
12.6 0.00084
12.65 0.00059
12.7 0.00032
12.75 0.00015
12.8 -0.00016
12.85 -0.00076
12.9 -0.00103
12.95 -0.00086
13 -0.00071
13.05 -0.00054
13.1 -0.00039
13.15 -0.00033
13.2 -0.00049
13.25 -0.00022
13.3 -0.00019
13.35 0.00004
13.4 0.00036
13.45 0.0009
13.5 0.00077
13.55 0.00025
13.6 -0.00046
13.65 -0.00048
13.7 -0.00044
13.75 -0.00052
13.8 -0.00098
13.85 -0.00093
13.9 -0.00059
13.95 -0.00004
14 0.00022
14.05 0.00003
14.1 0.00006
14.15 -0.00015
14.2 -0.00068
14.25 -0.00061
14.3 -0.00086
14.35 -0.00097
14.4 -0.00122
14.45 -0.00118
14.5 -0.00106
14.55 -0.00054
14.6 -0.00037
14.65 0.00008
14.7 0.00068
14.75 0.00076
14.8 0.00034
14.85 -0.00028
14.9 -0.00042
14.95 -0.00086
15 -0.00131
15.05 -0.00159
15.1 -0.00127
15.15 -0.00056
15.2 -0.00049
15.25 -0.00063
15.3 -0.00026
15.35 -0.00003
15.4 -0.0002
15.45 -0.00054
15.5 -0.00115
15.55 -0.00168
15.6 -0.00231
15.65 -0.00278
15.7 -0.00313
15.75 -0.00296
15.8 -0.0026
15.85 -0.00257
15.9 -0.00253
15.95 -0.00182
16 -0.00105
16.05 -0.00038
16.1 -0.00016
16.15 -0.00024
16.2 -0.00006
16.25 -0.00029
16.3 -0.00031
16.35 -0.00032
16.4 -0.0001
16.45 0.00048
16.5 0.00097
16.55 0.0012
16.6 0.00127
16.65 0.00117
16.7 0.00082
16.75 0.00054
16.8 0.00056
16.85 0.00087
16.9 0.0008
16.95 0.0008
17 0.0012
17.05 0.00163
17.1 0.00217
17.15 0.00226
17.2 0.00211
17.25 0.00149
17.3 0.00086
17.35 -0.00003
17.4 -0.00014
17.45 -0.0004
17.5 -0.00032
17.55 0.00016
17.6 0.00089
17.65 0.00089
17.7 0.00105
17.75 0.00133
17.8 0.001
17.85 0.00109
17.9 0.00087
17.95 0.00034
18 0.00026
18.05 0.00015
18.1 0.00001
18.15 0.00037
18.2 0.00085
18.25 0.00133
18.3 0.00108
18.35 0.00038
18.4 0.00005
18.45 -0.00055
18.5 -0.0013
18.55 -0.00165
18.6 -0.00172
18.65 -0.00189
18.7 -0.00145
18.75 -0.0014
18.8 -0.00088
18.85 -0.00082
18.9 -0.00033
18.95 0.0001
19 0.00063
19.05 0.0011
19.1 0.00125
19.15 0.00122
19.2 0.00125
19.25 0.00158
19.3 0.00154
19.35 0.00114
19.4 0.00086
19.45 0.00088
19.5 0.00089
19.55 0.00109
19.6 0.00131
19.65 0.00104
19.7 0.0004
19.75 -0.00039
19.8 -0.00123
19.85 -0.0014
19.9 -0.00179
19.95 -0.00219
20 -0.00217
20.05 -0.00205
20.1 -0.00211
20.15 -0.00164
20.2 -0.00131
20.25 -0.00072
20.3 -0.00053
20.35 -0.0002
20.4 0.00027
20.45 0.00084
20.5 0.00074
20.55 0.00062
20.6 0.0006
20.65 0.00073
20.7 0.00038
20.75 0.00017
20.8 0.00005
20.85 -0.00034
20.9 -0.0006
20.95 -0.00052
21 -0.00015
21.05 0.0005
21.1 0.00104
21.15 0.00169
21.2 0.00184
21.25 0.00174
21.3 0.00187
21.35 0.00154
21.4 0.0013
21.45 0.00085
21.5 0.00055
21.55 0.00001
21.6 -0.00028
21.65 -0.00046
21.7 -0.00065
21.75 -0.00114
21.8 -0.00114
21.85 -0.00109
21.9 -0.00134
21.95 -0.00144
22 -0.00149
22.05 -0.00137
22.1 -0.0008
22.15 -0.00079
22.2 -0.00075
22.25 -0.00074
22.3 -0.00027
22.35 0.00031
22.4 0.00045
22.45 0.00091
22.5 0.00152
22.55 0.00189
22.6 0.00221
22.65 0.002
22.7 0.00126
22.75 0.00059
22.8 0.00032
22.85 -0.00003
22.9 -0.00016
22.95 -0.00037
23 -0.0005
23.05 -0.00069
23.1 -0.00071
23.15 -0.00086
23.2 -0.00054
23.25 -0.00069
23.3 -0.00074
23.35 -0.00093
23.4 -0.00117
23.45 -0.00162
23.5 -0.00205
23.55 -0.00211
23.6 -0.00239
23.65 -0.00229
23.7 -0.002
23.75 -0.00203
23.8 -0.00204
23.85 -0.0021
23.9 -0.0022
23.95 -0.00211
24 -0.00207
24.05 -0.00141
24.1 -0.00048
24.15 -0.00016
24.2 0.00043
24.25 0.00047
24.3 0.0003
24.35 0.00038
24.4 0.0003
24.45 0.0004
24.5 0.00087
24.55 0.00095
24.6 0.00133
24.65 0.00159
24.7 0.00181
24.75 0.00174
24.8 0.00171
24.85 0.00162
24.9 0.00128
24.95 0.00136
25 0.00131
25.05 0.0015
25.1 0.00116
25.15 0.00128
25.2 0.0017
25.25 0.00143
25.3 0.00131
25.35 0.00122
25.4 0.00091
25.45 0.00086
25.5 0.00055
25.55 0.0006
25.6 0.0005
25.65 0.00006
25.7 -0.00035
25.75 -0.00082
25.8 -0.00094
25.85 -0.00074
25.9 -0.00032
25.95 0.00002
26 -0.00004
26.05 -0.00025
26.1 -0.00063
26.15 -0.00051
26.2 -0.00073
26.25 -0.00045
26.3 -0.0004
26.35 -0.00073
26.4 -0.00106
26.45 -0.00103
26.5 -0.00109
26.55 -0.00126
26.6 -0.00149
26.65 -0.00156
26.7 -0.00161
26.75 -0.00127
26.8 -0.00127
26.85 -0.00083
26.9 -0.00067
26.95 -0.00019
27 -0.00011
27.05 0.00024
27.1 0.00051
27.15 0.0009
27.2 0.0012
27.25 0.00158
27.3 0.00161
27.35 0.00193
27.4 0.00234
27.45 0.00222
27.5 0.00206
27.55 0.00214
27.6 0.00217
27.65 0.00232
27.7 0.00265
27.75 0.00248
27.8 0.00178
27.85 0.00139
27.9 0.00128
27.95 0.0012
28 0.00097
28.05 0.00043
28.1 -0.00022
28.15 -0.00025
28.2 -0.00027
28.25 -0.00013
28.3 -0.0003
28.35 -0.00045
28.4 -0.00054
28.45 -0.00039
28.5 0.00001
28.55 -0.00007
28.6 0.00002
28.65 0.00043
28.7 0.00042
28.75 0.00034
28.8 -0.00008
28.85 -0.00039
28.9 -0.00065
28.95 -0.00043
29 -0.00046
29.05 -0.00014
29.1 0.00034
29.15 0.00093
29.2 0.00162
29.25 0.0018
29.3 0.00182
29.35 0.00154
29.4 0.00163
29.45 0.00151
29.5 0.0009
29.55 0.00053
29.6 -0.00007
29.65 -0.00082
29.7 -0.00165
29.75 -0.00209
29.8 -0.00227
29.85 -0.0018
29.9 -0.0013
29.95 -0.00055
30 -0.00023
30.05 0.0002
30.1 0.00016
30.15 0.00026
30.2 0.00017
30.25 0.00036
30.3 0.0006
30.35 0.00076
30.4 0.00065
30.45 0.00041
30.5 0.00046
30.55 0.00062
30.6 0.00096
30.65 0.00077
30.7 0.00015
30.75 -0.00045
30.8 -0.00074
30.85 -0.00085
30.9 -0.00108
30.95 -0.00079
31 -0.00052
31.05 -0.00037
31.1 -0.00036
31.15 -0.00019
31.2 -0.00033
31.25 -0.00064
31.3 -0.00098
31.35 -0.00123
31.4 -0.00115
31.45 -0.00061
31.5 -0.00064
31.55 -0.00082
31.6 -0.00125
31.65 -0.00165
31.7 -0.00162
31.75 -0.00124
31.8 -0.00127
31.85 -0.00135
31.9 -0.0012
31.95 -0.00103
32 -0.00052
32.05 -0.00001
32.1 0.0005
32.15 0.00067
32.2 0.00108
32.25 0.0016
32.3 0.00216
32.35 0.00212
32.4 0.0017
32.45 0.00161
32.5 0.00175
32.55 0.0017
32.6 0.00181
32.65 0.00172
32.7 0.00143
32.75 0.00071
32.8 0.00043
32.85 0.00026
32.9 -0.00004
32.95 -0
33 0.00027
33.05 0.00011
33.1 -0.00041
33.15 -0.00092
33.2 -0.00143
33.25 -0.00173
33.3 -0.00206
33.35 -0.0025
33.4 -0.00224
33.45 -0.00194
33.5 -0.00124
33.55 -0.00042
33.6 0.0002
33.65 0.00052
33.7 0.0004
33.75 -0.00003
33.8 -0.00048
33.85 -0.00036
33.9 -0.00021
33.95 0.00028
34 0.00093
34.05 0.00113
34.1 0.00146
34.15 0.00192
34.2 0.00174
34.25 0.00163
34.3 0.00146
34.35 0.00098
34.4 0.00035
34.45 -0.00028
34.5 -0.00097
34.55 -0.00155
34.6 -0.00202
34.65 -0.00253
34.7 -0.00301
34.75 -0.00295
34.8 -0.00262
34.85 -0.00198
34.9 -0.00103
34.95 -0.00028
35 0.00055
35.05 0.00133
35.1 0.00178
35.15 0.0018
35.2 0.00159
35.25 0.00133
35.3 0.00107
35.35 0.00056
35.4 0.00041
35.45 -0.00002
35.5 -0.00056
35.55 -0.00063
35.6 -0.00106
35.65 -0.00142
35.7 -0.00178
35.75 -0.00165
35.8 -0.00154
35.85 -0.00154
35.9 -0.00149
35.95 -0.00169
36 -0.00174
36.05 -0.00121
36.1 -0.00083
36.15 -0.00096
36.2 -0.00119
36.25 -0.00122
36.3 -0.00089
36.35 -0.00027
36.4 0.00002
36.45 0.00008
36.5 0.00052
36.55 0.00035
36.6 -0.00023
36.65 -0.00085
36.7 -0.00082
36.75 -0.00107
36.8 -0.00073
36.85 -0.00088
36.9 -0.00071
36.95 -0.00068
37 -0.00053
37.05 -0.00044
37.1 -0.00044
37.15 -0.00007
37.2 -0.00012
37.25 -0.00019
37.3 -0.00051
37.35 -0.00061
37.4 -0.0008
37.45 -0.0004
37.5 0.00009
37.55 0.00061
37.6 0.00121
37.65 0.00177
37.7 0.00199
37.75 0.00158
37.8 0.00079
37.85 -0.0002
37.9 -0.00069
37.95 -0.00115
38 -0.00139
38.05 -0.00113
38.1 -0.00102
38.15 -0.00069
38.2 -0.00075
38.25 -0.0009
38.3 -0.00072
38.35 -0.00059
38.4 -0.00057
38.45 -0.00057
38.5 -0.00063
38.55 -0.00036
38.6 -0.0002
38.65 -0.00003
38.7 0.00047
38.75 0.00075
38.8 0.00124
38.85 0.00104
38.9 0.00081
38.95 0.00031
39 -0.00015
39.05 -0.00049
39.1 -0.00089
39.15 -0.00127
39.2 -0.00142
39.25 -0.00148
39.3 -0.00179
39.35 -0.0014
39.4 -0.00086
39.45 -0.00018
39.5 -0.00014
39.55 -0.00041
39.6 -0.00024
39.65 0.0003
39.7 0.00055
39.75 0.00027
39.8 -0.00004
39.85 -0.00061
39.9 -0.00103
39.95 -0.00092
40 -0.00048
40.05 0.00022
40.1 0.00097
40.15 0.00142
40.2 0.00184
40.25 0.00223
40.3 0.00241
40.35 0.00202
40.4 0.00179
40.45 0.00178
40.5 0.00172
40.55 0.00121
40.6 0.00106
40.65 0.00118
40.7 0.00091
40.75 0.00034
40.8 -0.00001
40.85 -0.00021
40.9 -0.00016
40.95 -0.00002
41 0.00004
41.05 0.00021
41.1 -0.00002
41.15 -0.00032
41.2 -0.00082
41.25 -0.0014
41.3 -0.00187
41.35 -0.00233
41.4 -0.0022
41.45 -0.00161
41.5 -0.00122
41.55 -0.00088
41.6 -0.00023
41.65 0.0004
41.7 0.00081
41.75 0.00136
41.8 0.00201
41.85 0.0024
41.9 0.00281
41.95 0.00284
42 0.00257
42.05 0.00213
42.1 0.00191
42.15 0.00161
42.2 0.00147
42.25 0.00092
42.3 0.00082
42.35 0.0007
42.4 0.00072
42.45 0.0006
42.5 0.00082
42.55 0.00071
42.6 0.00037
42.65 0.00005
42.7 -0.00026
42.75 -0.00002
42.8 0.00037
42.85 0.00077
42.9 0.00098
42.95 0.00134
43 0.00102
43.05 0.00041
43.1 0.00019
43.15 0.00018
43.2 0.00003
43.25 -0.00052
43.3 -0.00094
43.35 -0.0016
43.4 -0.00234
43.45 -0.00258
43.5 -0.00233
43.55 -0.0018
43.6 -0.00118
43.65 -0.00055
43.7 -0.00054
43.75 -0.00123
43.8 -0.00188
43.85 -0.00288
43.9 -0.00408
43.95 -0.00546
44 -0.00666
44.05 -0.00798
44.1 -0.00904
44.15 -0.01027
44.2 -0.01109
44.25 -0.01201
44.3 -0.01344
44.35 -0.01495
44.4 -0.017
44.45 -0.01883
44.5 -0.02099
44.55 -0.02328
44.6 -0.02573
44.65 -0.0289
44.7 -0.03269
44.75 -0.03668
44.8 -0.04154
44.85 -0.04735
44.9 -0.05307
44.95 -0.05973
45 -0.06641
45.05 -0.07363
45.1 -0.08148
45.15 -0.08963
45.2 -0.09849
45.25 -0.10781
45.3 -0.11773
45.35 -0.1283
45.4 -0.1387
45.45 -0.14896
45.5 -0.15924
45.55 -0.16976
45.6 -0.18056
45.65 -0.19103
45.7 -0.20129
45.75 -0.21127
45.8 -0.22057
45.85 -0.22955
45.9 -0.23795
45.95 -0.24507
46 -0.25106
46.05 -0.25543
46.1 -0.25913
46.15 -0.26133
46.2 -0.2617
46.25 -0.2611
46.3 -0.25851
46.35 -0.25468
46.4 -0.24875
46.45 -0.2409
46.5 -0.23203
46.55 -0.22193
46.6 -0.20987
46.65 -0.19629
46.7 -0.18111
46.75 -0.16471
46.8 -0.14784
46.85 -0.12984
46.9 -0.11108
46.95 -0.09172
47 -0.07234
47.05 -0.05254
47.1 -0.03231
47.15 -0.01217
47.2 0.0081
47.25 0.02769
47.3 0.04717
47.35 0.06658
47.4 0.08484
47.45 0.10253
47.5 0.11941
47.55 0.13544
47.6 0.15077
47.65 0.16508
47.7 0.17824
47.75 0.19047
47.8 0.20145
47.85 0.21139
47.9 0.21943
47.95 0.22617
48 0.23213
48.05 0.2373
48.1 0.24157
48.15 0.2444
48.2 0.24651
48.25 0.24799
48.3 0.24879
48.35 0.24899
48.4 0.24819
48.45 0.24617
48.5 0.24395
48.55 0.24115
48.6 0.23771
48.65 0.23372
48.7 0.22939
48.75 0.22445
48.8 0.21922
48.85 0.21384
48.9 0.20883
48.95 0.2039
49 0.19857
49.05 0.19322
49.1 0.18781
49.15 0.18299
49.2 0.17836
49.25 0.17406
49.3 0.16989
49.35 0.1653
49.4 0.16057
49.45 0.15536
49.5 0.15036
49.55 0.14581
49.6 0.14153
49.65 0.13677
49.7 0.13178
49.75 0.1267
49.8 0.12228
49.85 0.11745
49.9 0.11298
49.95 0.1088
50 0.10466
50.05 0.1009
50.1 0.09667
50.15 0.0923
50.2 0.08805
50.25 0.0844
50.3 0.08039
50.35 0.07656
50.4 0.07323
50.45 0.07016
50.5 0.06713
50.55 0.06392
50.6 0.06081
50.65 0.05761
50.7 0.05446
50.75 0.05129
50.8 0.04789
50.85 0.04398
50.9 0.03992
50.95 0.03556
51 0.03126
51.05 0.02714
51.1 0.0233
51.15 0.01963
51.2 0.0161
51.25 0.01343
51.3 0.01057
51.35 0.00817
51.4 0.00619
51.45 0.0042
51.5 0.0019
51.55 -0.00018
51.6 -0.00232
51.65 -0.00426
51.7 -0.00584
51.75 -0.00789
51.8 -0.01007
51.85 -0.01202
51.9 -0.01401
51.95 -0.01581
52 -0.017
52.05 -0.01813
52.1 -0.0195
52.15 -0.02114
52.2 -0.02287
52.25 -0.02402
52.3 -0.02528
52.35 -0.02669
52.4 -0.02809
52.45 -0.02927
52.5 -0.03047
52.55 -0.0312
52.6 -0.03159
52.65 -0.03229
52.7 -0.03273
52.75 -0.03258
52.8 -0.03288
52.85 -0.03301
52.9 -0.03343
52.95 -0.03396
53 -0.03431
53.05 -0.03447
53.1 -0.03485
53.15 -0.03489
53.2 -0.03507
53.25 -0.03467
53.3 -0.03407
53.35 -0.03325
53.4 -0.03265
53.45 -0.03189
53.5 -0.03163
53.55 -0.03182
53.6 -0.0322
53.65 -0.03208
53.7 -0.03163
53.75 -0.03106
53.8 -0.0304
53.85 -0.03043
53.9 -0.03052
53.95 -0.03054
54 -0.03016
54.05 -0.03031
54.1 -0.03062
54.15 -0.03068
54.2 -0.03065
54.25 -0.03032
54.3 -0.02996
54.35 -0.02954
54.4 -0.02947
54.45 -0.02949
54.5 -0.02959
54.55 -0.02917
54.6 -0.02874
54.65 -0.02807
54.7 -0.02727
54.75 -0.02647
54.8 -0.02564
54.85 -0.02464
54.9 -0.02423
54.95 -0.02356
55 -0.02301
55.05 -0.02276
55.1 -0.02216
55.15 -0.0221
55.2 -0.02222
55.25 -0.02194
55.3 -0.02136
55.35 -0.02095
55.4 -0.02041
55.45 -0.0202
55.5 -0.01967
55.55 -0.01958
55.6 -0.0194
55.65 -0.01909
55.7 -0.01912
55.75 -0.01924
55.8 -0.01904
55.85 -0.01924
55.9 -0.01948
55.95 -0.01958
56 -0.01938
56.05 -0.01889
56.1 -0.01885
56.15 -0.01844
56.2 -0.01832
56.25 -0.01839
56.3 -0.01809
56.35 -0.01786
56.4 -0.01783
56.45 -0.01746
56.5 -0.01664
56.55 -0.0161
56.6 -0.0152
56.65 -0.01418
56.7 -0.01374
56.75 -0.01308
56.8 -0.01262
56.85 -0.01236
56.9 -0.01218
56.95 -0.01186
57 -0.01136
57.05 -0.01105
57.1 -0.01056
57.15 -0.01014
57.2 -0.00981
57.25 -0.01018
57.3 -0.01029
57.35 -0.01047
57.4 -0.01079
57.45 -0.01135
57.5 -0.01188
57.55 -0.01181
57.6 -0.01185
57.65 -0.01217
57.7 -0.012
57.75 -0.01198
57.8 -0.01212
57.85 -0.01194
57.9 -0.01153
57.95 -0.01108
58 -0.0111
58.05 -0.01125
58.1 -0.01104
58.15 -0.01081
58.2 -0.01012
58.25 -0.00939
58.3 -0.00901
58.35 -0.00857
58.4 -0.00792
58.45 -0.0076
58.5 -0.00757
58.55 -0.0079
58.6 -0.00795
58.65 -0.00823
58.7 -0.00854
58.75 -0.00906
58.8 -0.00933
58.85 -0.00892
58.9 -0.00874
58.95 -0.00812
59 -0.00805
59.05 -0.00776
59.1 -0.00716
59.15 -0.00675
59.2 -0.00652
59.25 -0.00636
59.3 -0.00611
59.35 -0.00621
59.4 -0.00592
59.45 -0.00554
59.5 -0.00532
59.55 -0.00554
59.6 -0.00602
59.65 -0.00649
59.7 -0.00629
59.75 -0.0057
59.8 -0.00506
59.85 -0.00435
59.9 -0.00357
59.95 -0.00306
60 -0.00302
60.05 -0.00326
60.1 -0.00351
60.15 -0.00421
60.2 -0.0044
60.25 -0.00479
60.3 -0.00497
60.35 -0.0047
60.4 -0.00469
60.45 -0.00449
60.5 -0.00433
60.55 -0.00433
60.6 -0.0039
60.65 -0.00366
60.7 -0.00381
60.75 -0.00368
60.8 -0.004
60.85 -0.00462
60.9 -0.00501
60.95 -0.00483
61 -0.00491
61.05 -0.00454
61.1 -0.00458
61.15 -0.00473
61.2 -0.00439
61.25 -0.00439
61.3 -0.00443
61.35 -0.0047
61.4 -0.00451
61.45 -0.00436
61.5 -0.00381
61.55 -0.00334
61.6 -0.00285
61.65 -0.00227
61.7 -0.00195
61.75 -0.00149
61.8 -0.00115
61.85 -0.00082
61.9 -0.00086
61.95 -0.00146
62 -0.00175
62.05 -0.00201
62.1 -0.00187
62.15 -0.00225
62.2 -0.00214
62.25 -0.00204
62.3 -0.00184
62.35 -0.0018
62.4 -0.00208
62.45 -0.00247
62.5 -0.00318
62.55 -0.00356
62.6 -0.004
62.65 -0.00373
62.7 -0.00356
62.75 -0.00326
62.8 -0.00266
62.85 -0.00204
62.9 -0.00138
62.95 -0.00097
63 -0.00053
63.05 -0.00037
63.1 -0.00005
63.15 -0.00029
63.2 -0.00081
63.25 -0.00164
63.3 -0.0021
63.35 -0.00234
63.4 -0.00286
63.45 -0.00312
63.5 -0.00341
63.55 -0.00314
63.6 -0.00278
63.65 -0.00277
63.7 -0.00227
63.75 -0.00162
63.8 -0.00158
63.85 -0.00155
63.9 -0.00183
63.95 -0.00181
64 -0.00175
64.05 -0.00171
64.1 -0.00198
64.15 -0.00224
64.2 -0.00193
64.25 -0.00148
64.3 -0.00132
64.35 -0.00162
64.4 -0.00161
64.45 -0.00147
64.5 -0.00156
64.55 -0.00157
64.6 -0.00198
64.65 -0.00177
64.7 -0.00148
64.75 -0.00139
64.8 -0.0017
64.85 -0.00146
64.9 -0.00091
64.95 -0.00036
65 -0.00042
65.05 -0.00078
65.1 -0.00142
65.15 -0.00159
65.2 -0.00126
65.25 -0.00149
65.3 -0.00137
65.35 -0.00131
65.4 -0.00122
65.45 -0.00099
65.5 -0.00072
65.55 -0.00053
65.6 -0.00029
65.65 -0.0001
65.7 0.00016
65.75 0.0006
65.8 0.00107
65.85 0.00078
65.9 0
65.95 -0.0005
66 -0.00121
66.05 -0.00201
66.1 -0.00223
66.15 -0.00227
66.2 -0.00191
66.25 -0.00124
66.3 -0.00041
66.35 -0.00021
66.4 -0.00021
66.45 0
66.5 0.0002
66.55 -0.00014
66.6 -0.00004
66.65 -0.00027
66.7 -0.0004
66.75 -0.00053
66.8 -0.00045
66.85 -0.00087
66.9 -0.00107
66.95 -0.0011
67 -0.00084
67.05 -0.00052
67.1 -0.00058
67.15 -0.00024
67.2 0.00024
67.25 0.00004
67.3 -0.00062
67.35 -0.00122
67.4 -0.00131
67.45 -0.00121
67.5 -0.001
67.55 -0.00098
67.6 -0.00123
67.65 -0.00125
67.7 -0.00162
67.75 -0.00138
67.8 -0.00158
67.85 -0.00138
67.9 -0.00121
67.95 -0.00116
68 -0.00146
68.05 -0.00159
68.1 -0.00169
68.15 -0.00127
68.2 -0.00078
68.25 -0.00045
68.3 -0.00026
68.35 -0.00042
68.4 -0.00047
68.45 -0.00053
68.5 -0.00058
68.55 -0.00081
68.6 -0.00078
68.65 -0.00036
68.7 -0.0002
68.75 0
68.8 0.0001
68.85 -0.00012
68.9 -0.00066
68.95 -0.00139
69 -0.00136
69.05 -0.00084
69.1 -0.0009
69.15 -0.00127
69.2 -0.00102
69.25 -0.00121
69.3 -0.001
69.35 -0.00096
69.4 -0.00085
69.45 -0.00062
69.5 -0.00037
69.55 -0.00059
69.6 -0.00055
69.65 -0.00019
69.7 -0.00032
69.75 -0.00002
69.8 0.00046
69.85 0.00032
69.9 -0.00004
69.95 -0.00058
70 -0.00122
70.05 -0.0016
70.1 -0.00174
70.15 -0.0017
70.2 -0.00162
70.25 -0.00151
70.3 -0.00156
70.35 -0.0014
70.4 -0.00129
70.45 -0.00083
70.5 -0.00009
70.55 -0.00002
70.6 0.00025
70.65 0.00037
70.7 0.00064
70.75 0.00093
70.8 0.00081
70.85 0.0011
70.9 0.00117
70.95 0.00106
71 0.00114
71.05 0.00111
71.1 0.00068
71.15 0.00047
71.2 0.00014
71.25 -0.00026
71.3 -0.0003
71.35 -0.00031
71.4 -0.00006
71.45 -0.0003
71.5 -0.00015
71.55 -0.00036
71.6 -0.00048
71.65 -0.00022
71.7 0.00016
71.75 0.00008
71.8 -0.00038
71.85 -0.0011
71.9 -0.00162
71.95 -0.00192
72 -0.00173
72.05 -0.0012
72.1 -0.00092
72.15 -0.00043
72.2 0.00029
72.25 0.00113
72.3 0.00154
72.35 0.00139
72.4 0.00145
72.45 0.00114
72.5 0.00105
72.55 0.00126
72.6 0.00165
72.65 0.00162
72.7 0.00105
72.75 0.00015
72.8 -0.00038
72.85 -0.00037
72.9 -0.00012
72.95 0.00028
73 0.00046
73.05 0.00061
73.1 0.00097
73.15 0.00144
73.2 0.00185
73.25 0.00209
73.3 0.00162
73.35 0.00098
73.4 0.00086
73.45 0.00074
73.5 0.00057
73.55 0.00022
73.6 0.00029
73.65 -0.00011
73.7 -0.00058
73.75 -0.00068
73.8 -0.00029
73.85 -0.00034
73.9 -0.00003
73.95 0.00032
74 0.00043
74.05 0.00072
74.1 0.00065
74.15 0.00084
74.2 0.00041
74.25 0.00026
74.3 0.00026
74.35 0.00058
74.4 0.00064
74.45 0.00015
74.5 -0.00038
74.55 -0.00065
74.6 -0.00071
74.65 -0.00106
74.7 -0.00165
74.75 -0.00164
74.8 -0.00181
74.85 -0.0019
74.9 -0.00164
74.95 -0.00156
75 -0.00134
75.05 -0.00086
75.1 -0.00087
75.15 -0.00116
75.2 -0.00094
75.25 -0.00101
75.3 -0.00091
75.35 -0.00116
75.4 -0.00093
75.45 -0.00034
75.5 0.00006
75.55 -0.00017
75.6 -0.0001
75.65 0.00021
75.7 0.00041
75.75 0.00019
75.8 -0.0001
75.85 -0.00054
75.9 -0.00063
75.95 -0.00041
76 0
76.05 0.00011
76.1 -0.00002
76.15 0.00017
76.2 0.00055
76.25 0.00028
76.3 0.00015
76.35 -0.00034
76.4 -0.00095
76.45 -0.0012
76.5 -0.00129
76.55 -0.00109
76.6 -0.00058
76.65 0.00007
76.7 0.00036
76.75 0.00052
76.8 0.00062
76.85 0.00055
76.9 0.00053
76.95 0.00083
77 0.00118
77.05 0.00086
77.1 0.0002
77.15 0.00014
77.2 0.00037
77.25 0.00073
77.3 0.00126
77.35 0.00151
77.4 0.00144
77.45 0.00168
77.5 0.00131
77.55 0.00086
77.6 0.00007
77.65 -0.00084
77.7 -0.00107
77.75 -0.00152
77.8 -0.0019
77.85 -0.00231
77.9 -0.00254
77.95 -0.00222
78 -0.00161
78.05 -0.00153
78.1 -0.00104
78.15 -0.00108
78.2 -0.00127
78.25 -0.00123
78.3 -0.00133
78.35 -0.00115
78.4 -0.0006
78.45 0.00018
78.5 0.00055
78.55 0.00034
78.6 0.00021
78.65 0.00041
78.7 0.00007
78.75 -0.00019
78.8 -0.00035
78.85 -0.00041
78.9 -0.0008
78.95 -0.0013
79 -0.00137
79.05 -0.00154
79.1 -0.0014
79.15 -0.00115
79.2 -0.00046
79.25 -0.00044
79.3 -0.00078
79.35 -0.00097
79.4 -0.00105
79.45 -0.00116
79.5 -0.00095
79.55 -0.00069
79.6 -0.00044
79.65 0.00005
79.7 0.00047
79.75 0.00027
79.8 0.00014
79.85 0.00049
79.9 0.00029
79.95 0.00056
80 0.00053
80.05 0.00031
80.1 -0.00022
80.15 -0.00022
80.2 0.00006
80.25 0.00067
80.3 0.0006
80.35 0.00071
80.4 0.00063
80.45 0.00059
80.5 0.00082
80.55 0.00076
80.6 0.00095
80.65 0.00097
80.7 0.0006
80.75 0.00065
80.8 0.00102
80.85 0.00119
80.9 0.00157
80.95 0.00177
81 0.00138
81.05 0.00073
81.1 -0.00021
81.15 -0.00117
81.2 -0.00196
81.25 -0.00203
81.3 -0.00187
81.35 -0.0012
81.4 -0.00068
81.45 -0.0002
81.5 0.00051
81.55 0.00067
81.6 0.00079
81.65 0.00077
81.7 0.00058
81.75 0.00058
81.8 0.00074
81.85 0.00042
81.9 0.00003
81.95 -0.00035
82 -0.00036
82.05 -0.00036
82.1 -0.00014
82.15 0.00025
82.2 0.00034
82.25 0.00046
82.3 0.00059
82.35 0.00017
82.4 -0.00044
82.45 -0.00109
82.5 -0.00134
82.55 -0.00165
82.6 -0.0016
82.65 -0.00101
82.7 -0.00076
82.75 -0.00065
82.8 -0.0009
82.85 -0.00109
82.9 -0.00114
82.95 -0.00116
83 -0.00132
83.05 -0.00126
83.1 -0.00147
83.15 -0.00117
83.2 -0.00059
83.25 -0.0002
83.3 0.00002
83.35 -0.00019
83.4 -0.00065
83.45 -0.00112
83.5 -0.00116
83.55 -0.00133
83.6 -0.00176
83.65 -0.00214
83.7 -0.00219
83.75 -0.00198
83.8 -0.00188
83.85 -0.00172
83.9 -0.00107
83.95 -0.00068
84 -0.0005
84.05 -0.00063
84.1 -0.0004
84.15 -0.00024
84.2 -0.00002
84.25 -0.00005
84.3 0.00037
84.35 0.00092
84.4 0.00118
84.45 0.00108
84.5 0.00107
84.55 0.00138
84.6 0.00132
84.65 0.00115
84.7 0.00105
84.75 0.00084
84.8 0.00078
84.85 0.001
84.9 0.00146
84.95 0.00199
85 0.00191
85.05 0.00128
85.1 0.00113
85.15 0.00064
85.2 -0.00006
85.25 -0.00058
85.3 -0.0012
85.35 -0.00117
85.4 -0.00074
85.45 -0.00061
85.5 -0.00051
85.55 -0.0007
85.6 -0.00058
85.65 -0.00068
85.7 -0.00076
85.75 -0.00044
85.8 -0.00025
85.85 -0.0005
85.9 -0.00016
85.95 0.00035
86 0.00034
86.05 0.00075
86.1 0.00138
86.15 0.00166
86.2 0.00167
86.25 0.00198
86.3 0.0017
86.35 0.00146
86.4 0.00143
86.45 0.001
86.5 0.00056
86.55 0.00032
86.6 0.00011
86.65 -0
86.7 0.00013
86.75 -0.00007
86.8 -0.00004
86.85 0.00006
86.9 0.00043
86.95 0.0008
87 0.00065
87.05 0.00028
87.1 -0.00007
87.15 -0.00058
87.2 -0.0005
87.25 0.00003
87.3 0.00059
87.35 0.00079
87.4 0.00099
87.45 0.0014
87.5 0.00142
87.55 0.00115
87.6 0.001
87.65 0.00121
87.7 0.00092
87.75 0.0008
87.8 0.00051
87.85 0.00016
87.9 -0.00013
87.95 -0.00072
88 -0.00082
88.05 -0.00057
88.1 -0.00007
88.15 0.00004
88.2 0.0005
88.25 0.00041
88.3 0.00052
88.35 0.00092
88.4 0.0011
88.45 0.00152
88.5 0.00182
88.55 0.00224
88.6 0.00219
88.65 0.0017
88.7 0.00146
88.75 0.00085
88.8 0.00046
88.85 -0.00028
88.9 -0.00073
88.95 -0.00059
89 -0.00005
89.05 0.00049
89.1 0.00082
89.15 0.00062
89.2 0.00013
89.25 -0.00026
89.3 -0.00054
89.35 -0.00077
89.4 -0.00057
89.45 -0.00064
89.5 -0.00065
89.55 -0.00026
89.6 0.00039
89.65 0.00103
89.7 0.0013
89.75 0.00127
89.8 0.00103
89.85 0.00087
89.9 0.00075
89.95 0.00015
90 -0.00013
90.05 -0.00001
90.1 -0.00037
90.15 -0.00051
90.2 -0.00055
90.25 -0.00068
90.3 -0.00095
90.35 -0.00072
90.4 -0.00099
90.45 -0.00088
90.5 -0.00095
90.55 -0.00076
90.6 -0.00023
90.65 0.00002
90.7 0.00015
90.75 0.0006
90.8 0.00055
90.85 0.0005
90.9 0.00005
90.95 0.00009
91 -0.0002
91.05 -0.00013
91.1 -0.00022
91.15 -0.00059
91.2 -0.00049
91.25 -0.00049
91.3 -0.00007
91.35 -0.0001
91.4 -0.00027
91.45 -0.0002
91.5 -0.00019
91.55 -0.00042
91.6 -0.00082
91.65 -0.00122
91.7 -0.00137
91.75 -0.00156
91.8 -0.00154
91.85 -0.00104
91.9 -0.00046
91.95 -0.00021
92 0.00011
92.05 0.00005
92.1 -0.00023
92.15 -0.00072
92.2 -0.00093
92.25 -0.00068
92.3 -0.0004
92.35 0.00006
92.4 0.00001
92.45 -0.00033
92.5 -0.00039
92.55 -0.0002
92.6 0.00001
92.65 -0.00023
92.7 -0.00083
92.75 -0.00109
92.8 -0.00119
92.85 -0.00137
92.9 -0.00133
92.95 -0.00086
93 -0.00054
93.05 -0.00019
93.1 0.00038
93.15 0.0007
93.2 0.00104
93.25 0.00139
93.3 0.00118
93.35 0.00061
93.4 -0.00007
93.45 -0.00077
93.5 -0.00114
93.55 -0.00164
93.6 -0.00153
93.65 -0.00157
93.7 -0.0017
93.75 -0.00207
93.8 -0.00201
93.85 -0.00193
93.9 -0.00202
93.95 -0.00146
94 -0.00133
94.05 -0.00097
94.1 -0.00027
94.15 -0.00003
94.2 -0.00003
94.25 0.00014
94.3 0.0002
94.35 0.00045
94.4 0.00035
94.45 0.00019
94.5 0.0004
94.55 0.00058
94.6 0.00047
94.65 -0.00002
94.7 -0.00022
94.75 -0.00062
94.8 -0.00047
94.85 -0.00046
94.9 -0.00017
94.95 0.00021
95 0.00003
95.05 0.00016
95.1 0.00026
95.15 -0.00007
95.2 -0.00021
95.25 -0.00002
95.3 0.00037
95.35 0.00088
95.4 0.00137
95.45 0.00119
95.5 0.00057
95.55 0.00055
95.6 0.00042
95.65 0.00026
95.7 0.00053
95.75 0.00045
95.8 0.00029
95.85 0.00016
95.9 -0.00008
95.95 -0.00034
96 -0.00013
96.05 -0.00027
96.1 -0.00031
96.15 -0.00053
96.2 -0.00091
96.25 -0.00116
96.3 -0.00166
96.35 -0.00154
96.4 -0.00166
96.45 -0.00197
96.5 -0.00187
96.55 -0.00185
96.6 -0.00149
96.65 -0.00074
96.7 -0.0006
96.75 -0.00053
96.8 -0.00038
96.85 -0.0001
96.9 0.00029
96.95 0.0003
97 0.00073
97.05 0.00134
97.1 0.00158
97.15 0.00169
97.2 0.00191
97.25 0.00231
97.3 0.00212
97.35 0.00226
97.4 0.0021
97.45 0.00219
97.5 0.0021
97.55 0.00217
97.6 0.00222
97.65 0.0021
97.7 0.00182
97.75 0.00175
97.8 0.00144
97.85 0.00069
97.9 0.00006
97.95 -0.00081
98 -0.00092
98.05 -0.00105
98.1 -0.00116
98.15 -0.00121
98.2 -0.00149
98.25 -0.00163
98.3 -0.00186
98.35 -0.00173
98.4 -0.00112
98.45 -0.00084
98.5 -0.00033
98.55 -0.00037
98.6 -0.00025
98.65 -0.00021
98.7 -0.00055
98.75 -0.00059
98.8 -0.00083
98.85 -0.00056
98.9 -0.00056
98.95 -0.00091
99 -0.0008
99.05 -0.00104
99.1 -0.0015
99.15 -0.00211
99.2 -0.00253
99.25 -0.00254
99.3 -0.0027
99.35 -0.00234
99.4 -0.00193
99.45 -0.00185
99.5 -0.00121
99.55 -0.00074
99.6 0.00005
99.65 0.00013
99.7 -0.0001
99.75 0.00006
99.8 0.00038
99.85 0.00059
99.9 0.00062
99.95 0.00038
