0 0
0.05 0.0001
0.1 0.00027
0.15 0.0004
0.2 0.00061
0.25 0.00077
0.3 0.00091
0.35 0.00119
0.4 0.00131
0.45 0.00128
0.5 0.00129
0.55 0.00149
0.6 0.00172
0.65 0.00197
0.7 0.00212
0.75 0.00224
0.8 0.0023
0.85 0.0023
0.9 0.00223
0.95 0.00211
1 0.00206
1.05 0.00205
1.1 0.00185
1.15 0.00175
1.2 0.00171
1.25 0.00158
1.3 0.00158
1.35 0.00156
1.4 0.0016
1.45 0.0017
1.5 0.00157
1.55 0.00136
1.6 0.00118
1.65 0.0011
1.7 0.00105
1.75 0.0011
1.8 0.00129
1.85 0.00148
1.9 0.00165
1.95 0.0016
2 0.0016
2.05 0.00168
2.1 0.00164
2.15 0.00147
2.2 0.00148
2.25 0.00136
2.3 0.00118
2.35 0.00094
2.4 0.0008
2.45 0.00076
2.5 0.00061
2.55 0.00064
2.6 0.00052
2.65 0.00053
2.7 0.00048
2.75 0.00033
2.8 0.00034
2.85 0.00051
2.9 0.00059
2.95 0.00062
3 0.00064
3.05 0.00053
3.1 0.00061
3.15 0.00082
3.2 0.00092
3.25 0.00091
3.3 0.001
3.35 0.00089
3.4 0.0009
3.45 0.00077
3.5 0.00081
3.55 0.00098
3.6 0.00095
3.65 0.00085
3.7 0.0008
3.75 0.00087
3.8 0.00096
3.85 0.00102
3.9 0.00091
3.95 0.00095
4 0.00083
4.05 0.00076
4.1 0.00059
4.15 0.00061
4.2 0.00057
4.25 0.00054
4.3 0.00041
4.35 0.00029
4.4 0.00025
4.45 0.00011
4.5 0.0001
4.55 0.00019
4.6 0.00018
4.65 0.00004
4.7 -0.00001
4.75 -0.00013
4.8 -0.00023
4.85 -0.00008
4.9 -0.00001
4.95 0.00011
5 0.0003
5.05 0.00043
5.1 0.00056
5.15 0.00059
5.2 0.00054
5.25 0.00047
5.3 0.00047
5.35 0.0005
5.4 0.00042
5.45 0.00028
5.5 0.00036
5.55 0.00038
5.6 0.00046
5.65 0.00057
5.7 0.00072
5.75 0.00073
5.8 0.00072
5.85 0.0007
5.9 0.00064
5.95 0.00065
6 0.00064
6.05 0.00047
6.1 0.00023
6.15 0.00017
6.2 0.00027
6.25 0.00033
6.3 0.00036
6.35 0.00042
6.4 0.0006
6.45 0.00055
6.5 0.00041
6.55 0.00017
6.6 0.00019
6.65 0.00036
6.7 0.00039
6.75 0.00056
6.8 0.00057
6.85 0.00062
6.9 0.00049
6.95 0.00027
7 0.00009
7.05 0.00003
7.1 -0.00005
7.15 -0.00012
7.2 -0.00029
7.25 -0.00029
7.3 -0.00035
7.35 -0.00031
7.4 -0.00039
7.45 -0.00052
7.5 -0.0005
7.55 -0.00051
7.6 -0.00054
7.65 -0.0004
7.7 -0.0004
7.75 -0.00044
7.8 -0.00033
7.85 -0.00032
7.9 -0.00029
7.95 -0.00026
8 -0.00009
8.05 -0.00001
8.1 -0.00004
8.15 0
8.2 0.00003
8.25 0.00003
8.3 -0.00007
8.35 -0.00019
8.4 -0.00028
8.45 -0.00039
8.5 -0.00024
8.55 -0.00015
8.6 -0.00018
8.65 -0.00024
8.7 -0.00014
8.75 -0.00015
8.8 -0.00004
8.85 0.00017
8.9 0.00042
8.95 0.00068
9 0.00092
9.05 0.00118
9.1 0.00119
9.15 0.00111
9.2 0.00094
9.25 0.0007
9.3 0.00037
9.35 0.00018
9.4 0.00014
9.45 0.00009
9.5 0.00018
9.55 0.00034
9.6 0.00056
9.65 0.00067
9.7 0.00075
9.75 0.00077
9.8 0.00068
9.85 0.00063
9.9 0.00051
9.95 0.00031
10 0.00022
10.05 0.00031
10.1 0.00038
10.15 0.00041
10.2 0.00029
10.25 0.00029
10.3 0.00036
10.35 0.00026
10.4 0.00008
10.45 -0.00016
10.5 -0.00031
10.55 -0.00048
10.6 -0.00048
10.65 -0.00041
10.7 -0.0003
10.75 -0.00019
10.8 0.00003
10.85 0.0001
10.9 0.00008
10.95 0.00003
11 -0.00007
11.05 -0.0001
11.1 -0.00002
11.15 -0.00008
11.2 -0.00022
11.25 -0.00037
11.3 -0.00048
11.35 -0.00052
11.4 -0.00041
11.45 -0.00032
11.5 -0.00029
11.55 -0.00026
11.6 -0.00008
11.65 0.00003
11.7 0.00015
11.75 0.00014
11.8 0.00004
11.85 -0.00008
11.9 -0.00019
11.95 -0.00021
12 -0.00023
12.05 -0.00013
12.1 -0.00011
12.15 -0.0002
12.2 -0.00026
12.25 -0.00016
12.3 0.00008
12.35 0.00038
12.4 0.00052
12.45 0.0007
12.5 0.00071
12.55 0.00056
12.6 0.00053
12.65 0.00035
12.7 0.00033
12.75 0.00044
12.8 0.00043
12.85 0.00027
12.9 0.00023
12.95 0.00028
13 0.00044
13.05 0.00059
13.1 0.00069
13.15 0.00067
13.2 0.00047
13.25 0.00014
13.3 -0.00014
13.35 -0.00014
13.4 -0.00013
13.45 0.00005
13.5 0.00017
13.55 0.0003
13.6 0.00028
13.65 0.00011
13.7 0.00011
13.75 0.00004
13.8 0.00007
13.85 0.00016
13.9 0.00012
13.95 0.00004
14 -0.00004
14.05 0.00003
14.1 0.00015
14.15 0.00024
14.2 0.00026
14.25 0.0004
14.3 0.00051
14.35 0.00064
14.4 0.00066
14.45 0.0005
14.5 0.0004
14.55 0.00031
14.6 0.00023
14.65 0.00005
14.7 0.00009
14.75 0.00022
14.8 0.00039
14.85 0.00049
14.9 0.00062
14.95 0.00074
15 0.00085
15.05 0.0007
15.1 0.00052
15.15 0.00025
15.2 0.00021
15.25 0.00016
15.3 0.0001
15.35 0.00003
15.4 -0.00019
15.45 -0.00045
15.5 -0.00052
15.55 -0.00045
15.6 -0.00035
15.65 -0.00018
15.7 -0.00001
15.75 0.00005
15.8 0.00022
15.85 0.00039
15.9 0.00043
15.95 0.0003
16 0.00016
16.05 0.00004
16.1 -0.0001
16.15 -0.0001
16.2 0.00003
16.25 -0.00002
16.3 0.00008
16.35 0.00022
16.4 0.00042
16.45 0.00052
16.5 0.00055
16.55 0.00067
16.6 0.00055
16.65 0.00048
16.7 0.00037
16.75 0.00019
16.8 -0.00005
16.85 -0.00014
16.9 -0.00015
16.95 -0.00009
17 -0.00007
17.05 -0.0001
17.1 -0.00006
17.15 0.00004
17.2 0.00003
17.25 0.00007
17.3 0.00015
17.35 0.0001
17.4 -0.00003
17.45 0.00001
17.5 -0.00004
17.55 -0.00008
17.6 0.00003
17.65 0.00023
17.7 0.00036
17.75 0.00036
17.8 0.00025
17.85 0.00003
17.9 -0.00029
17.95 -0.00033
18 -0.00026
18.05 -0.00034
18.1 -0.0004
18.15 -0.00045
18.2 -0.00031
18.25 -0.00019
18.3 -0.00009
18.35 -0.00013
18.4 -0.00018
18.45 -0.00031
18.5 -0.00046
18.55 -0.00042
18.6 -0.00031
18.65 -0.00014
18.7 -0.0001
18.75 -0.00011
18.8 -0.0001
18.85 0.00004
18.9 0.00001
18.95 -0.00003
19 -0.00018
19.05 -0.00036
19.1 -0.00056
19.15 -0.0005
19.2 -0.00041
19.25 -0.00029
19.3 -0.00026
19.35 -0.00025
19.4 -0.00025
19.45 -0.00035
19.5 -0.00051
19.55 -0.00045
19.6 -0.0004
19.65 -0.00035
19.7 -0.0002
19.75 0.00006
19.8 0.00011
19.85 0.00007
19.9 -0.0001
19.95 -0.0002
20 -0.00012
20.05 -0.00023
20.1 -0.00037
20.15 -0.00055
20.2 -0.00077
20.25 -0.00073
20.3 -0.00069
20.35 -0.00057
20.4 -0.00059
20.45 -0.00069
20.5 -0.00078
20.55 -0.00066
20.6 -0.00056
20.65 -0.00048
20.7 -0.00049
20.75 -0.00039
20.8 -0.00039
20.85 -0.00023
20.9 -0.00025
20.95 -0.00009
21 -0.00006
21.05 -0.0002
21.1 -0.00037
21.15 -0.00047
21.2 -0.00062
21.25 -0.00056
21.3 -0.0005
21.35 -0.00054
21.4 -0.00052
21.45 -0.00045
21.5 -0.00031
21.55 -0.00033
21.6 -0.00031
21.65 -0.00011
21.7 -0.00009
21.75 -0.00007
21.8 0.0001
21.85 0.00035
21.9 0.00056
21.95 0.00082
22 0.00082
22.05 0.00079
22.1 0.0008
22.15 0.00063
22.2 0.00053
22.25 0.00037
22.3 0.00039
22.35 0.00029
22.4 0.0002
22.45 0.00007
22.5 -0.00014
22.55 -0.00035
22.6 -0.00031
22.65 -0.00032
22.7 -0.0002
22.75 -0.00013
22.8 0.00007
22.85 0.00005
22.9 0.00012
22.95 0.00025
23 0.00023
23.05 0.00023
23.1 0.00011
23.15 -0.00007
23.2 -0.00033
23.25 -0.00047
23.3 -0.00048
23.35 -0.00053
23.4 -0.00047
23.45 -0.00044
23.5 -0.00031
23.55 -0.00022
23.6 -0.00025
23.65 -0.00041
23.7 -0.00055
23.75 -0.00056
23.8 -0.00055
23.85 -0.00035
23.9 -0.00004
23.95 0.00008
24 0.00001
24.05 -0.00006
24.1 -0.00004
24.15 -0.00016
24.2 -0.00029
24.25 -0.00039
24.3 -0.00037
24.35 -0.00015
24.4 -0.00001
24.45 -0.00004
24.5 -0.00001
24.55 0.00003
24.6 0.00008
24.65 0.00009
24.7 0.00016
24.75 0.00023
24.8 0.00038
24.85 0.00049
24.9 0.00053
24.95 0.00068
25 0.00086
25.05 0.00081
25.1 0.00084
25.15 0.00077
25.2 0.00055
25.25 0.00021
25.3 0.0001
25.35 0
25.4 -0.00019
25.45 -0.00041
25.5 -0.00044
25.55 -0.00052
25.6 -0.00057
25.65 -0.00049
25.7 -0.00043
25.75 -0.00047
25.8 -0.00052
25.85 -0.00051
25.9 -0.0004
25.95 -0.00036
26 -0.00018
26.05 -0.00006
26.1 0.00007
26.15 -0.00001
26.2 0.00004
26.25 0.00017
26.3 0.00021
26.35 0.00024
26.4 0.0002
26.45 0.00013
26.5 0.00006
26.55 -0.00007
26.6 -0.0001
26.65 -0.00017
26.7 -0.00004
26.75 0.00002
26.8 -0.00005
26.85 -0.00012
26.9 -0.00004
26.95 0
27 0.00011
27.05 0.00005
27.1 -0.00012
27.15 -0.00035
27.2 -0.00056
27.25 -0.00072
27.3 -0.00066
27.35 -0.00057
27.4 -0.00043
27.45 -0.00023
27.5 0.00001
27.55 0.00021
27.6 0.00036
27.65 0.00049
27.7 0.00053
27.75 0.00057
27.8 0.00061
27.85 0.00053
27.9 0.00041
27.95 0.00041
28 0.00033
28.05 0.00012
28.1 0.00003
28.15 -0.00011
28.2 -0.00015
28.25 -0.00026
28.3 -0.00039
28.35 -0.00053
28.4 -0.00057
28.45 -0.00053
28.5 -0.00058
28.55 -0.00051
28.6 -0.0004
28.65 -0.00021
28.7 0.00007
28.75 0.00014
28.8 0.00008
28.85 0
28.9 0.00003
28.95 0.0001
29 0.0003
29.05 0.00035
29.1 0.0004
29.15 0.00039
29.2 0.00047
29.25 0.00043
29.3 0.00028
29.35 0.00015
29.4 0.00017
29.45 0.0002
29.5 0.00034
29.55 0.00051
29.6 0.00071
29.65 0.00072
29.7 0.00057
29.75 0.00035
29.8 0.0003
29.85 0.00033
29.9 0.00042
29.95 0.00033
30 0.00014
30.05 0.00006
30.1 -0.00004
30.15 -0.00021
30.2 -0.00045
30.25 -0.00068
30.3 -0.00073
30.35 -0.00075
30.4 -0.00058
30.45 -0.00051
30.5 -0.0003
30.55 -0.00028
30.6 -0.00033
30.65 -0.00042
30.7 -0.00036
30.75 -0.00038
30.8 -0.00025
30.85 -0.00014
30.9 -0.00003
30.95 -0.00008
31 -0.00012
31.05 -0.00021
31.1 -0.00015
31.15 0.00001
31.2 0.00001
31.25 0.00007
31.3 0.00001
31.35 -0.00016
31.4 -0.0001
31.45 0.00007
31.5 0.00019
31.55 0.00012
31.6 0.00018
31.65 0.00009
31.7 0.00019
31.75 0.00041
31.8 0.00037
31.85 0.0002
31.9 0.00006
31.95 -0.00001
32 -0.00002
32.05 -0.00011
32.1 -0.00026
32.15 -0.00031
32.2 -0.00041
32.25 -0.00032
32.3 -0.00038
32.35 -0.00031
32.4 -0.00034
32.45 -0.00019
32.5 0.00008
32.55 0.00028
32.6 0.00045
32.65 0.00037
32.7 0.00018
32.75 0.00003
32.8 0.00007
32.85 0.00009
32.9 0.00004
32.95 0.00011
33 0.00019
33.05 0.0001
33.1 0.00015
33.15 0.00027
33.2 0.00038
33.25 0.00028
33.3 0.00022
33.35 0.00032
33.4 0.00031
33.45 0.00042
33.5 0.00049
33.55 0.00043
33.6 0.00026
33.65 0.00005
33.7 -0.00012
33.75 -0.00027
33.8 -0.00024
33.85 -0.00035
33.9 -0.0005
33.95 -0.00053
34 -0.00041
34.05 -0.00021
34.1 -0.00012
34.15 -0.00001
34.2 0.00001
34.25 -0.00006
34.3 -0.00023
34.35 -0.00025
34.4 -0.00014
34.45 -0
34.5 0.00017
34.55 0.00031
34.6 0.0005
34.65 0.00044
34.7 0.00028
34.75 0.00014
34.8 -0.00007
34.85 -0.00007
34.9 -0.00006
34.95 0.00011
35 0.00015
35.05 0.00003
35.1 -0.0002
35.15 -0.00022
35.2 -0.00027
35.25 -0.0003
35.3 -0.00041
35.35 -0.00028
35.4 -0.00001
35.45 0.00021
35.5 0.00039
35.55 0.00059
35.6 0.00069
35.65 0.00076
35.7 0.00074
35.75 0.00073
35.8 0.00072
35.85 0.00054
35.9 0.00032
35.95 0.00023
36 0.00008
36.05 -0.00012
36.1 -0.00031
36.15 -0.00053
36.2 -0.00048
36.25 -0.00028
36.3 -0.00015
36.35 0.00001
36.4 0.00025
36.45 0.00054
36.5 0.00081
36.55 0.00094
36.6 0.00109
36.65 0.00121
36.7 0.00132
36.75 0.00143
36.8 0.00139
36.85 0.00137
36.9 0.00114
36.95 0.00094
37 0.00064
37.05 0.0004
37.1 0.00029
37.15 0.00011
37.2 0.0001
37.25 0.00019
37.3 0.00027
37.35 0.00016
37.4 0.00006
37.45 -0.00016
37.5 -0.00043
37.55 -0.00059
37.6 -0.00067
37.65 -0.0007
37.7 -0.00062
37.75 -0.00044
37.8 -0.00023
37.85 -0
37.9 0.00011
37.95 0.00024
38 0.00024
38.05 0.00013
38.1 0.00014
38.15 0.00021
38.2 0.00012
38.25 -0.00001
38.3 -0.00023
38.35 -0.00047
38.4 -0.00068
38.45 -0.0009
38.5 -0.00088
38.55 -0.00092
38.6 -0.00084
38.65 -0.00081
38.7 -0.00085
38.75 -0.00087
38.8 -0.00074
38.85 -0.00058
38.9 -0.00052
38.95 -0.00038
39 -0.00025
39.05 -0.00022
39.1 -0.00023
39.15 -0.00011
39.2 0
39.25 -0.00005
39.3 0.00008
39.35 0.0002
39.4 0.00029
39.45 0.00044
39.5 0.00044
39.55 0.00042
39.6 0.0005
39.65 0.00053
39.7 0.00047
39.75 0.00025
39.8 -0.00008
39.85 -0.00017
39.9 -0.00008
39.95 -0.00004
40 -0.00007
40.05 0.00004
40.1 0.0001
40.15 -0.00003
40.2 -0.00024
40.25 -0.00019
40.3 -0.00028
40.35 -0.00027
40.4 -0.00021
40.45 -0.00004
40.5 0.00013
40.55 0.00033
40.6 0.00058
40.65 0.00072
40.7 0.0006
40.75 0.0003
40.8 -0.00005
40.85 -0.00037
40.9 -0.00048
40.95 -0.00058
41 -0.0007
41.05 -0.0007
41.1 -0.00065
41.15 -0.00049
41.2 -0.00047
41.25 -0.00037
41.3 -0.00016
41.35 0.00003
41.4 0.0002
41.45 0.00013
41.5 0.00002
41.55 0.00005
41.6 0.00006
41.65 0.00008
41.7 0.00023
41.75 0.00026
41.8 0.0002
41.85 0.00026
41.9 0.00036
41.95 0.00029
42 0.00013
42.05 0
42.1 -0.00021
42.15 -0.00049
42.2 -0.00064
42.25 -0.00064
42.3 -0.00071
42.35 -0.00059
42.4 -0.0006
42.45 -0.00071
42.5 -0.00063
42.55 -0.00066
42.6 -0.0006
42.65 -0.00039
42.7 -0.00031
42.75 -0.00034
42.8 -0.00029
42.85 -0.00039
42.9 -0.00054
42.95 -0.00043
43 -0.00042
43.05 -0.00053
43.1 -0.0007
43.15 -0.0008
43.2 -0.00082
43.25 -0.00078
43.3 -0.00076
43.35 -0.00058
43.4 -0.00027
43.45 0.00002
43.5 0.00007
43.55 0.00015
43.6 0.00008
43.65 -0.00008
43.7 -0.00023
43.75 -0.0002
43.8 -0.00004
43.85 -0.00004
43.9 -0.00016
43.95 -0.00009
44 -0.00001
44.05 -0.00006
44.1 -0.00003
44.15 0.00008
44.2 0.00018
44.25 0.00009
44.3 0.00002
44.35 -0.00009
44.4 -0.0002
44.45 -0.00022
44.5 -0.00032
44.55 -0.00036
44.6 -0.00049
44.65 -0.00064
44.7 -0.00077
44.75 -0.00076
44.8 -0.00062
44.85 -0.00032
44.9 -0.00012
44.95 -0.00012
45 0.00006
45.05 0.00013
45.1 0.00004
45.15 -0.00009
45.2 -0.00011
45.25 -0.00001
45.3 -0.00006
45.35 0.00002
45.4 -0.00002
45.45 -0.00002
45.5 -0.00002
45.55 -0.00006
45.6 -0.00016
45.65 -0.00009
45.7 -0.00009
45.75 -0.00001
45.8 0.00012
45.85 0.00024
45.9 0.00033
45.95 0.00031
46 0.00019
46.05 0.00023
46.1 0.00011
46.15 0.00012
46.2 0.00005
46.25 -0.00012
46.3 -0.00027
46.35 -0.00047
46.4 -0.00065
46.45 -0.00071
46.5 -0.00051
46.55 -0.00022
46.6 0.00016
46.65 0.00039
46.7 0.00057
46.75 0.00073
46.8 0.00093
46.85 0.001
46.9 0.00108
46.95 0.00121
47 0.0012
47.05 0.0012
47.1 0.00095
47.15 0.00067
47.2 0.00048
47.25 0.00017
47.3 0.00007
47.35 -0.00006
47.4 -0.00002
47.45 -0.00006
47.5 0.00004
47.55 -0.00002
47.6 0.00007
47.65 0.00006
47.7 -0.00005
47.75 -0.00005
47.8 -0.00011
47.85 -0.00008
47.9 0.0001
47.95 0.00029
48 0.00051
48.05 0.00057
48.1 0.00072
48.15 0.00066
48.2 0.00063
48.25 0.00072
48.3 0.00066
48.35 0.00062
48.4 0.00065
48.45 0.00057
48.5 0.00033
48.55 0.00005
48.6 -0.00019
48.65 -0.00026
48.7 -0.00024
48.75 -0.00017
48.8 -0.00016
48.85 0.00001
48.9 0.00009
48.95 0.00007
49 0.00001
49.05 0.00005
49.1 0.00022
49.15 0.00041
49.2 0.00065
49.25 0.0008
49.3 0.00083
49.35 0.00066
49.4 0.00064
49.45 0.00056
49.5 0.00041
49.55 0.00029
49.6 0.00022
49.65 0.00011
49.7 -0.00005
49.75 -0.00018
49.8 -0.0002
49.85 -0.00026
49.9 -0.00028
49.95 -0.00018
50 0.00003
50.05 0.00024
50.1 0.00043
50.15 0.00046
50.2 0.00042
50.25 0.00019
50.3 -0.00012
50.35 -0.00044
50.4 -0.00061
50.45 -0.00072
50.5 -0.0009
50.55 -0.00086
50.6 -0.00064
50.65 -0.00061
50.7 -0.00054
50.75 -0.00059
50.8 -0.00069
50.85 -0.00082
50.9 -0.00089
50.95 -0.00086
51 -0.00067
51.05 -0.00047
51.1 -0.00018
51.15 -0.00001
51.2 -0.00003
51.25 -0.00004
51.3 0.00007
51.35 0.00029
51.4 0.00039
51.45 0.00047
51.5 0.00054
51.55 0.00069
51.6 0.0006
51.65 0.00052
51.7 0.00035
51.75 0.00036
51.8 0.00032
51.85 0.00014
51.9 -0.00009
51.95 -0.00029
52 -0.00041
52.05 -0.00053
52.1 -0.00056
52.15 -0.00064
52.2 -0.00066
52.25 -0.00058
52.3 -0.00058
52.35 -0.00058
52.4 -0.00041
52.45 -0.00038
52.5 -0.00046
52.55 -0.00035
52.6 -0.00029
52.65 -0.00036
52.7 -0.00026
52.75 -0.00024
52.8 -0.00016
52.85 -0.00018
52.9 -0.00013
52.95 -0.00026
53 -0.00027
53.05 -0.0003
53.1 -0.00022
53.15 -0.00038
53.2 -0.00059
53.25 -0.00091
53.3 -0.00123
53.35 -0.00149
53.4 -0.0019
53.45 -0.0021
53.5 -0.0024
53.55 -0.00276
53.6 -0.00309
53.65 -0.00366
53.7 -0.00414
53.75 -0.00482
53.8 -0.00556
53.85 -0.00648
53.9 -0.00741
53.95 -0.00853
54 -0.01003
54.05 -0.01158
54.1 -0.01337
54.15 -0.01542
54.2 -0.0175
54.25 -0.01983
54.3 -0.02247
54.35 -0.02522
54.4 -0.02829
54.45 -0.03148
54.5 -0.03489
54.55 -0.03862
54.6 -0.04226
54.65 -0.04607
54.7 -0.05003
54.75 -0.0541
54.8 -0.05806
54.85 -0.06195
54.9 -0.06568
54.95 -0.06897
55 -0.07206
55.05 -0.0746
55.1 -0.07686
55.15 -0.0786
55.2 -0.07985
55.25 -0.0805
55.3 -0.08077
55.35 -0.0805
55.4 -0.07976
55.45 -0.07841
55.5 -0.07641
55.55 -0.0739
55.6 -0.0709
55.65 -0.06731
55.7 -0.06349
55.75 -0.05926
55.8 -0.05465
55.85 -0.04991
55.9 -0.04532
55.95 -0.04089
56 -0.0366
56.05 -0.03252
56.1 -0.02869
56.15 -0.02511
56.2 -0.02185
56.25 -0.01873
56.3 -0.01617
56.35 -0.01381
56.4 -0.01193
56.45 -0.01028
56.5 -0.00899
56.55 -0.00778
56.6 -0.00683
56.65 -0.00575
56.7 -0.0045
56.75 -0.00298
56.8 -0.0013
56.85 0.00083
56.9 0.00349
56.95 0.00661
57 0.01014
57.05 0.01409
57.1 0.01855
57.15 0.02351
57.2 0.02903
57.25 0.03508
57.3 0.0417
57.35 0.04873
57.4 0.05601
57.45 0.06373
57.5 0.07143
57.55 0.07926
57.6 0.08688
57.65 0.09411
57.7 0.10122
57.75 0.1079
57.8 0.11387
57.85 0.11925
57.9 0.12383
57.95 0.12792
58 0.13114
58.05 0.13373
58.1 0.13562
58.15 0.13672
58.2 0.13693
58.25 0.13624
58.3 0.13487
58.35 0.13271
58.4 0.13003
58.45 0.12685
58.5 0.12302
58.55 0.11882
58.6 0.11418
58.65 0.10917
58.7 0.1038
58.75 0.09815
58.8 0.09225
58.85 0.08627
58.9 0.08025
58.95 0.07413
59 0.06788
59.05 0.06168
59.1 0.05557
59.15 0.04966
59.2 0.04374
59.25 0.03809
59.3 0.0327
59.35 0.02763
59.4 0.02283
59.45 0.01832
59.5 0.01394
59.55 0.00955
59.6 0.00529
59.65 0.00131
59.7 -0.00241
59.75 -0.00572
59.8 -0.00881
59.85 -0.01173
59.9 -0.01443
59.95 -0.01688
60 -0.01881
60.05 -0.02059
60.1 -0.02202
60.15 -0.0232
60.2 -0.02426
60.25 -0.02536
60.3 -0.02628
60.35 -0.02709
60.4 -0.02759
60.45 -0.02814
60.5 -0.02839
60.55 -0.02859
60.6 -0.02866
60.65 -0.02861
60.7 -0.02861
60.75 -0.02861
60.8 -0.02855
60.85 -0.02822
60.9 -0.028
60.95 -0.02766
61 -0.02723
61.05 -0.02679
61.1 -0.02623
61.15 -0.02557
61.2 -0.02484
61.25 -0.02412
61.3 -0.02337
61.35 -0.02274
61.4 -0.02218
61.45 -0.02182
61.5 -0.02154
61.55 -0.02119
61.6 -0.02075
61.65 -0.02019
61.7 -0.01976
61.75 -0.01933
61.8 -0.0189
61.85 -0.0183
61.9 -0.01783
61.95 -0.01741
62 -0.01688
62.05 -0.01627
62.1 -0.01566
62.15 -0.01515
62.2 -0.01462
62.25 -0.01412
62.3 -0.01368
62.35 -0.01312
62.4 -0.01277
62.45 -0.0124
62.5 -0.0121
62.55 -0.01177
62.6 -0.01155
62.65 -0.01132
62.7 -0.01117
62.75 -0.01107
62.8 -0.01071
62.85 -0.01046
62.9 -0.01001
62.95 -0.00952
63 -0.00914
63.05 -0.0088
63.1 -0.00848
63.15 -0.00824
63.2 -0.00811
63.25 -0.00795
63.3 -0.00762
63.35 -0.00734
63.4 -0.00697
63.45 -0.00682
63.5 -0.0067
63.55 -0.00653
63.6 -0.00637
63.65 -0.00639
63.7 -0.00623
63.75 -0.0062
63.8 -0.00625
63.85 -0.0063
63.9 -0.00625
63.95 -0.00623
64 -0.00596
64.05 -0.00585
64.1 -0.00569
64.15 -0.00563
64.2 -0.00541
64.25 -0.00509
64.3 -0.0049
64.35 -0.00465
64.4 -0.00458
64.45 -0.00436
64.5 -0.00436
64.55 -0.00444
64.6 -0.00447
64.65 -0.00443
64.7 -0.00439
64.75 -0.00434
64.8 -0.00423
64.85 -0.00407
64.9 -0.00402
64.95 -0.00379
65 -0.00371
65.05 -0.00372
65.1 -0.00382
65.15 -0.00396
65.2 -0.00382
65.25 -0.00352
65.3 -0.00321
65.35 -0.00303
65.4 -0.00301
65.45 -0.00298
65.5 -0.00282
65.55 -0.00261
65.6 -0.00242
65.65 -0.00231
65.7 -0.00233
65.75 -0.0023
65.8 -0.00239
65.85 -0.00261
65.9 -0.00269
65.95 -0.00266
66 -0.00269
66.05 -0.00266
66.1 -0.00271
66.15 -0.00274
66.2 -0.0028
66.25 -0.00264
66.3 -0.00242
66.35 -0.00223
66.4 -0.00204
66.45 -0.00181
66.5 -0.00161
66.55 -0.00158
66.6 -0.00163
66.65 -0.00167
66.7 -0.00165
66.75 -0.00182
66.8 -0.00186
66.85 -0.00175
66.9 -0.00167
66.95 -0.0015
67 -0.0013
67.05 -0.00122
67.1 -0.00124
67.15 -0.00121
67.2 -0.00131
67.25 -0.00137
67.3 -0.00134
67.35 -0.00123
67.4 -0.00129
67.45 -0.0015
67.5 -0.00177
67.55 -0.00179
67.6 -0.00179
67.65 -0.0018
67.7 -0.00179
67.75 -0.00187
67.8 -0.00185
67.85 -0.00193
67.9 -0.00197
67.95 -0.00191
68 -0.00188
68.05 -0.00177
68.1 -0.00181
68.15 -0.00177
68.2 -0.00166
68.25 -0.00144
68.3 -0.00114
68.35 -0.00085
68.4 -0.00061
68.45 -0.00036
68.5 -0.00043
68.55 -0.00063
68.6 -0.00079
68.65 -0.00101
68.7 -0.0011
68.75 -0.00106
68.8 -0.00106
68.85 -0.00116
68.9 -0.00136
68.95 -0.00137
69 -0.00138
69.05 -0.00147
69.1 -0.00156
69.15 -0.00163
69.2 -0.00164
69.25 -0.00146
69.3 -0.00145
69.35 -0.00135
69.4 -0.00138
69.45 -0.00151
69.5 -0.00152
69.55 -0.00137
69.6 -0.00133
69.65 -0.00119
69.7 -0.001
69.75 -0.00093
69.8 -0.00087
69.85 -0.00076
69.9 -0.00063
69.95 -0.00053
70 -0.00053
70.05 -0.00038
70.1 -0.00021
70.15 -0.00022
70.2 -0.00025
70.25 -0.00025
70.3 -0.00029
70.35 -0.00047
70.4 -0.00073
70.45 -0.00081
70.5 -0.00101
70.55 -0.00109
70.6 -0.00118
70.65 -0.00116
70.7 -0.00108
70.75 -0.0011
70.8 -0.00092
70.85 -0.00093
70.9 -0.00102
70.95 -0.0009
71 -0.00071
71.05 -0.00067
71.1 -0.00071
71.15 -0.00088
71.2 -0.00085
71.25 -0.00072
71.3 -0.00051
71.35 -0.00037
71.4 -0.00024
71.45 -0.00012
71.5 -0.00019
71.55 -0.00035
71.6 -0.00034
71.65 -0.00031
71.7 -0.0003
71.75 -0.00028
71.8 -0.0003
71.85 -0.00048
71.9 -0.00054
71.95 -0.00068
72 -0.00074
72.05 -0.00079
72.1 -0.00069
72.15 -0.00056
72.2 -0.00052
72.25 -0.00038
72.3 -0.0004
72.35 -0.00049
72.4 -0.00044
72.45 -0.00055
72.5 -0.0007
72.55 -0.00077
72.6 -0.00078
72.65 -0.00077
72.7 -0.00067
72.75 -0.00072
72.8 -0.00067
72.85 -0.00065
72.9 -0.00071
72.95 -0.00068
73 -0.00056
73.05 -0.00048
73.1 -0.00044
73.15 -0.00028
73.2 -0.00013
73.25 -0.00008
73.3 0.00007
73.35 0.00013
73.4 0.00021
73.45 0.00011
73.5 -0.00011
73.55 -0.00035
73.6 -0.00063
73.65 -0.00065
73.7 -0.00074
73.75 -0.00089
73.8 -0.00078
73.85 -0.00069
73.9 -0.00049
73.95 -0.00047
74 -0.00057
74.05 -0.00059
74.1 -0.00046
74.15 -0.0004
74.2 -0.00041
74.25 -0.00029
74.3 -0.00009
74.35 -0.00008
74.4 -0.00017
74.45 -0.00019
74.5 -0.00007
74.55 -0.00001
74.6 0.00004
74.65 -0.00009
74.7 -0.00016
74.75 -0.00029
74.8 -0.00028
74.85 -0.00018
74.9 0.00004
74.95 0.0002
75 0.0004
75.05 0.00045
75.1 0.00033
75.15 0.00037
75.2 0.00021
75.25 0.00001
75.3 -0.00026
75.35 -0.0003
75.4 -0.00023
75.45 -0.00026
75.5 -0.00022
75.55 -0.00021
75.6 -0.00025
75.65 -0.00035
75.7 -0.00034
75.75 -0.00047
75.8 -0.00045
75.85 -0.00045
75.9 -0.00044
75.95 -0.00025
76 -0.00007
76.05 -0.00009
76.1 -0.00021
76.15 -0.0004
76.2 -0.00046
76.25 -0.00036
76.3 -0.00025
76.35 -0.00022
76.4 -0.00017
76.45 -0.00011
76.5 0.00009
76.55 0.00028
76.6 0.00045
76.65 0.00045
76.7 0.00031
76.75 0.00026
76.8 0.00031
76.85 0.00021
76.9 0.00029
76.95 0.0003
77 0.00015
77.05 0.00002
77.1 0.00009
77.15 0.00027
77.2 0.00019
77.25 0.00029
77.3 0.00046
77.35 0.00068
77.4 0.00091
77.45 0.00088
77.5 0.00072
77.55 0.00049
77.6 0.00027
77.65 -0
77.7 -0.00018
77.75 -0.00035
77.8 -0.00043
77.85 -0.0006
77.9 -0.00075
77.95 -0.00092
78 -0.00103
78.05 -0.00116
78.1 -0.00124
78.15 -0.00112
78.2 -0.00096
78.25 -0.00082
78.3 -0.00081
78.35 -0.00088
78.4 -0.00092
78.45 -0.001
78.5 -0.00091
78.55 -0.00073
78.6 -0.0007
78.65 -0.00067
78.7 -0.00056
78.75 -0.00048
78.8 -0.00023
78.85 -0.00016
78.9 -0.00007
78.95 -0.00003
79 0.0001
79.05 0.00032
79.1 0.00045
79.15 0.00065
79.2 0.00067
79.25 0.00073
79.3 0.00084
79.35 0.00086
79.4 0.00068
79.45 0.00048
79.5 0.00038
79.55 0.00037
79.6 0.00041
79.65 0.00046
79.7 0.00033
79.75 0.00034
79.8 0.00049
79.85 0.00067
79.9 0.00078
79.95 0.00094
80 0.00089
80.05 0.00063
80.1 0.0005
80.15 0.00042
80.2 0.00047
80.25 0.00057
80.3 0.00067
80.35 0.00067
80.4 0.00068
80.45 0.00063
80.5 0.0005
80.55 0.00047
80.6 0.00054
80.65 0.00045
80.7 0.00022
80.75 0.00006
80.8 0.00008
80.85 0.00006
80.9 0.00005
80.95 -0.00008
81 -0.00015
81.05 -0.00034
81.1 -0.00049
81.15 -0.00041
81.2 -0.00035
81.25 -0.00014
81.3 -0.00001
81.35 0.00006
81.4 0.00004
81.45 -0.00009
81.5 -0.00004
81.55 0.0001
81.6 0.00024
81.65 0.00028
81.7 0.00039
81.75 0.00036
81.8 0.00023
81.85 -0.00004
81.9 -0.00032
81.95 -0.00061
82 -0.00081
82.05 -0.00082
82.1 -0.0007
82.15 -0.00054
82.2 -0.00035
82.25 -0.00014
82.3 -0.00007
82.35 -0.00018
82.4 -0.00018
82.45 -0.00025
82.5 -0.00026
82.55 -0.00037
82.6 -0.00037
82.65 -0.00032
82.7 -0.00034
82.75 -0.00027
82.8 -0.00009
82.85 -0.0001
82.9 -0.00008
82.95 -0.00007
83 -0.00013
83.05 -0.00026
83.1 -0.00035
83.15 -0.00052
83.2 -0.00059
83.25 -0.00063
83.3 -0.0005
83.35 -0.00044
83.4 -0.00031
83.45 -0.00012
83.5 0.0001
83.55 0.0001
83.6 -0.00002
83.65 -0.00015
83.7 -0.00035
83.75 -0.00058
83.8 -0.0006
83.85 -0.0004
83.9 -0.00034
83.95 -0.00031
84 -0.00039
84.05 -0.00045
84.1 -0.00058
84.15 -0.00067
84.2 -0.0006
84.25 -0.00039
84.3 -0.00022
84.35 0.00003
84.4 0.00008
84.45 0.00004
84.5 0.00001
84.55 0.00002
84.6 0.00004
84.65 -0.00004
84.7 -0.0002
84.75 -0.0003
84.8 -0.00043
84.85 -0.00041
84.9 -0.00036
84.95 -0.00016
85 -0.00009
85.05 0.00004
85.1 0.00021
85.15 0.00014
85.2 -0
85.25 -0.00022
85.3 -0.00041
85.35 -0.0005
85.4 -0.00055
85.45 -0.00038
85.5 -0.00015
85.55 0.00013
85.6 0.00032
85.65 0.00054
85.7 0.00072
85.75 0.00087
85.8 0.00079
85.85 0.00055
85.9 0.0005
85.95 0.00049
86 0.0005
86.05 0.00053
86.1 0.00058
86.15 0.00057
86.2 0.00056
86.25 0.00059
86.3 0.00061
86.35 0.00054
86.4 0.00036
86.45 0.00037
86.5 0.00019
86.55 -0.00009
86.6 -0.0004
86.65 -0.00069
86.7 -0.00076
86.75 -0.00086
86.8 -0.00087
86.85 -0.00087
86.9 -0.00078
86.95 -0.00069
87 -0.00051
87.05 -0.00028
87.1 0.00004
87.15 0.00034
87.2 0.00049
87.25 0.0005
87.3 0.00034
87.35 0.00033
87.4 0.00018
87.45 0.00003
87.5 -0.0001
87.55 -0.0001
87.6 -0.00011
87.65 -0.0001
87.7 -0.00016
87.75 -0.00016
87.8 -0.00001
87.85 0.00018
87.9 0.00022
87.95 0.00011
88 -0.00007
88.05 -0.00025
88.1 -0.00038
88.15 -0.00051
88.2 -0.00043
88.25 -0.0003
88.3 -0.00007
88.35 0.0002
88.4 0.00037
88.45 0.00042
88.5 0.00036
88.55 0.00028
88.6 0.00012
88.65 0.00016
88.7 0.00005
88.75 -0.00009
88.8 -0.00005
88.85 -0.00004
88.9 -0.00006
88.95 -0.00001
89 0
89.05 -0.00005
89.1 -0.00008
89.15 0.00007
89.2 0.00002
89.25 -0.00009
89.3 -0.00016
89.35 -0.00021
89.4 -0.00017
89.45 -0.00016
89.5 -0.00005
89.55 0.00015
89.6 0.00033
89.65 0.0003
89.7 0.00033
89.75 0.0002
89.8 0.00004
89.85 0.00001
89.9 -0.00008
89.95 -0.0001
90 0.00001
90.05 0.00002
90.1 0.00007
90.15 0.00007
90.2 0.0002
90.25 0.00029
90.3 0.00043
90.35 0.00038
90.4 0.0003
90.45 0.00008
90.5 -0.00022
90.55 -0.00028
90.6 -0.0003
90.65 -0.00016
90.7 -0.00001
90.75 -0.00001
90.8 0.00005
90.85 0.00004
90.9 0.00014
90.95 0.00004
91 -0.00002
91.05 -0.0001
91.1 -0
91.15 0.00014
91.2 0.00033
91.25 0.00034
91.3 0.00019
91.35 0.00007
91.4 0.00015
91.45 0.0001
91.5 0.0001
91.55 0.00011
91.6 0.00013
91.65 -0.00002
91.7 -0.00007
91.75 -0.00003
91.8 0.00015
91.85 0.0003
91.9 0.00034
91.95 0.00037
92 0.00051
92.05 0.00043
92.1 0.00025
92.15 0.00011
92.2 -0.00013
92.25 -0.00019
92.3 -0.00027
92.35 -0.00029
92.4 -0.0003
92.45 -0.00014
92.5 -0.00014
92.55 -0.00028
92.6 -0.00033
92.65 -0.00047
92.7 -0.00039
92.75 -0.00028
92.8 -0.00004
92.85 0.00022
92.9 0.00031
92.95 0.00027
93 0.00015
93.05 -0.00005
93.1 -0.0001
93.15 -0.00016
93.2 -0.00029
93.25 -0.00027
93.3 -0.00031
93.35 -0.00019
93.4 -0.00013
93.45 -0.00017
93.5 -0.00007
93.55 -0.0001
93.6 -0.00025
93.65 -0.00038
93.7 -0.00045
93.75 -0.00052
93.8 -0.00044
93.85 -0.00036
93.9 -0.00029
93.95 -0.0002
94 -0.00003
94.05 -0.00008
94.1 0.00004
94.15 0.00003
94.2 0.0001
94.25 0.0003
94.3 0.00031
94.35 0.00022
94.4 0.00005
94.45 0.00001
94.5 -0.00003
94.55 0.00005
94.6 0.00024
94.65 0.00039
94.7 0.0003
94.75 0.00012
94.8 -0.0001
94.85 -0.0001
94.9 -0.00015
94.95 -0.00003
95 0.00013
95.05 0.00038
95.1 0.00041
95.15 0.00034
95.2 0.00024
95.25 0.00024
95.3 0.00022
95.35 0.00005
95.4 0.00006
95.45 0.00004
95.5 -0.00007
95.55 -0.00029
95.6 -0.00036
95.65 -0.00032
95.7 -0.00042
95.75 -0.00049
95.8 -0.00048
95.85 -0.00029
95.9 -0.00012
95.95 0.00015
96 0.00016
96.05 0.00008
96.1 0.00014
96.15 0.00025
96.2 0.00044
96.25 0.00051
96.3 0.00058
96.35 0.00063
96.4 0.00074
96.45 0.00084
96.5 0.00095
96.55 0.00094
96.6 0.00084
96.65 0.00078
96.7 0.00062
96.75 0.00054
96.8 0.00051
96.85 0.00052
96.9 0.00032
96.95 0.0002
97 0.00015
97.05 0.00009
97.1 -0.00011
97.15 -0.0002
97.2 -0.00035
97.25 -0.00037
97.3 -0.00034
97.35 -0.00041
97.4 -0.00052
97.45 -0.00046
97.5 -0.00039
97.55 -0.00017
97.6 -0.0001
97.65 -0.0002
97.7 -0.0003
97.75 -0.00039
97.8 -0.00049
97.85 -0.00065
97.9 -0.00066
97.95 -0.00053
98 -0.00029
98.05 -0.00024
98.1 -0.00021
98.15 -0.00032
98.2 -0.00034
98.25 -0.00042
98.3 -0.00056
98.35 -0.00072
98.4 -0.00077
98.45 -0.00059
98.5 -0.00039
98.55 -0.00023
98.6 -0.00002
98.65 0.00006
98.7 0.00024
98.75 0.00031
98.8 0.00028
98.85 0.00022
98.9 0.00001
98.95 -0.00009
99 -0.00007
99.05 0.00004
99.1 0.00009
99.15 0.00011
99.2 -0.00004
99.25 -0.00022
99.3 -0.00025
99.35 -0.00033
99.4 -0.0005
99.45 -0.00064
99.5 -0.00065
99.55 -0.00063
99.6 -0.0007
99.65 -0.00052
99.7 -0.00044
99.75 -0.00019
99.8 0.00001
99.85 0.00007
99.9 0.00026
99.95 0.00041
