0 0
0.05 0.00018
0.1 0.00083
0.15 0.00233
0.2 0.00463
0.25 0.00773
0.3 0.00988
0.35 0.01059
0.4 0.01186
0.45 0.01367
0.5 0.01448
0.55 0.01397
0.6 0.01273
0.65 0.01091
0.7 0.00992
0.75 0.00996
0.8 0.0095
0.85 0.00923
0.9 0.00853
0.95 0.00922
1 0.00901
1.05 0.00794
1.1 0.00679
1.15 0.00609
1.2 0.00625
1.25 0.00607
1.3 0.00535
1.35 0.00579
1.4 0.00671
1.45 0.00709
1.5 0.00797
1.55 0.00815
1.6 0.00733
1.65 0.00767
1.7 0.00844
1.75 0.00956
1.8 0.01112
1.85 0.01187
1.9 0.01226
1.95 0.0121
2 0.01205
2.05 0.01077
2.1 0.00935
2.15 0.00924
2.2 0.00847
2.25 0.00741
2.3 0.0077
2.35 0.00882
2.4 0.00942
2.45 0.00924
2.5 0.00979
2.55 0.00977
2.6 0.00876
2.65 0.00868
2.7 0.0082
2.75 0.00851
2.8 0.0082
2.85 0.00853
2.9 0.00953
2.95 0.01047
3 0.01153
3.05 0.01237
3.1 0.01191
3.15 0.01192
3.2 0.01143
3.25 0.00983
3.3 0.00792
3.35 0.00711
3.4 0.00691
3.45 0.00547
3.5 0.00448
3.55 0.00275
3.6 0.00236
3.65 0.00295
3.7 0.00331
3.75 0.00354
3.8 0.00375
3.85 0.00418
3.9 0.0049
3.95 0.00556
4 0.00646
4.05 0.00754
4.1 0.00874
4.15 0.00961
4.2 0.0094
4.25 0.00977
4.3 0.00968
4.35 0.00915
4.4 0.00899
4.45 0.00797
4.5 0.00655
4.55 0.00508
4.6 0.00451
4.65 0.00356
4.7 0.00209
4.75 0.00173
4.8 0.00255
4.85 0.00263
4.9 0.00253
4.95 0.00295
5 0.00388
5.05 0.00503
5.1 0.00552
5.15 0.0046
5.2 0.0028
5.25 0.00101
5.3 -0.00111
5.35 -0.00178
5.4 -0.00265
5.45 -0.00216
5.5 -0.00064
5.55 0.00037
5.6 0.00155
5.65 0.00334
5.7 0.0039
5.75 0.00456
5.8 0.00442
5.85 0.00355
5.9 0.00367
5.95 0.0044
6 0.0043
6.05 0.00322
6.1 0.00175
6.15 0.00025
6.2 -0.00022
6.25 0.0002
6.3 0.00008
6.35 -0.00081
6.4 -0.00053
6.45 -0.00054
6.5 -0.00081
6.55 0.00021
6.6 0.00031
6.65 0.00015
6.7 0.00028
6.75 0.0001
6.8 -0.00028
6.85 -0.001
6.9 -0.00225
6.95 -0.00191
7 -0.00098
7.05 -0.0003
7.1 -0.00017
7.15 0.00098
7.2 0.00149
7.25 0.00246
7.3 0.00299
7.35 0.00253
7.4 0.0023
7.45 0.00157
7.5 0.00044
7.55 -0.00107
7.6 -0.00137
7.65 -0.00157
7.7 -0.00078
7.75 -0.00077
7.8 -0.00063
7.85 -0.00033
7.9 0.00066
7.95 0.00189
8 0.00177
8.05 0.00252
8.1 0.00334
8.15 0.00432
8.2 0.00434
8.25 0.00472
8.3 0.00498
8.35 0.00387
8.4 0.00238
8.45 0.00125
8.5 -0.00025
8.55 -0.00093
8.6 -0.00028
8.65 -0.00015
8.7 0.00049
8.75 0.00072
8.8 0.00065
8.85 0.00126
8.9 0.00239
8.95 0.00239
9 0.00193
9.05 0.0024
9.1 0.00256
9.15 0.00178
9.2 0.00173
9.25 0.00152
9.3 0.00052
9.35 0.00061
9.4 0.00166
9.45 0.0014
9.5 0.0015
9.55 0.00175
9.6 0.00264
9.65 0.00233
9.7 0.00189
9.75 0.00138
9.8 0.00113
9.85 0.0005
9.9 0.00008
9.95 0.00037
10 0.0007
10.05 0.00154
10.1 0.00229
10.15 0.00348
10.2 0.00302
10.25 0.00305
10.3 0.00293
10.35 0.00288
10.4 0.00299
10.45 0.00261
10.5 0.00229
10.55 0.00228
10.6 0.0025
10.65 0.00341
10.7 0.00263
10.75 0.00077
10.8 -0.00101
10.85 -0.00114
10.9 -0.00078
10.95 -0.00081
11 -0.00052
11.05 -0.00066
11.1 -0.00007
11.15 0.00121
11.2 0.0027
11.25 0.00252
11.3 0.0031
11.35 0.00234
11.4 0.00197
11.45 0.00135
11.5 0.00074
11.55 0.00092
11.6 0.00126
11.65 0.0016
11.7 0.00246
11.75 0.00371
11.8 0.00346
11.85 0.00253
11.9 0.00143
11.95 -0.00056
12 -0.0009
12.05 -0.00022
12.1 0.00079
12.15 0.00227
12.2 0.00312
12.25 0.0028
12.3 0.00292
12.35 0.00337
12.4 0.00246
12.45 0.00211
12.5 0.00106
12.55 0.00067
12.6 0.00079
12.65 0.00069
12.7 0.0005
12.75 -0.00068
12.8 -0.00175
12.85 -0.00177
12.9 -0.00127
12.95 -0.00116
13 -0.00078
13.05 -0.00055
13.1 0.00011
13.15 0.001
13.2 0.00082
13.25 0.00102
13.3 0.00157
13.35 0.00165
13.4 0.0022
13.45 0.00262
13.5 0.00173
13.55 0.00183
13.6 0.0009
13.65 -0.00006
13.7 -0.00167
13.75 -0.0037
13.8 -0.00505
13.85 -0.00493
13.9 -0.00452
13.95 -0.00509
14 -0.00475
14.05 -0.00421
14.1 -0.00392
14.15 -0.00286
14.2 -0.00172
14.25 0.00009
14.3 0.00018
14.35 0.00048
14.4 0.00064
14.45 -0.00003
14.5 -0.00002
14.55 -0.00121
14.6 -0.00101
14.65 -0.00025
14.7 0.00087
14.75 0.00134
14.8 0.00127
14.85 0.00047
14.9 0.00032
14.95 -0.00095
15 -0.00287
15.05 -0.00315
15.1 -0.00403
15.15 -0.00438
15.2 -0.00428
15.25 -0.00439
15.3 -0.00508
15.35 -0.00466
15.4 -0.00375
15.45 -0.00348
15.5 -0.00293
15.55 -0.00178
15.6 -0.00132
15.65 -0.00152
15.7 -0.00148
15.75 -0.00209
15.8 -0.00291
15.85 -0.0043
15.9 -0.00483
15.95 -0.00447
16 -0.0033
16.05 -0.00295
16.1 -0.00252
16.15 -0.00204
16.2 -0.0012
16.25 -0.00095
16.3 -0.00179
16.35 -0.00178
16.4 -0.00071
16.45 0.00106
16.5 0.00232
16.55 0.00371
16.6 0.00358
16.65 0.00344
16.7 0.00333
16.75 0.0023
16.8 0.001
16.85 0.00031
16.9 -0.00073
16.95 -0.00179
17 -0.00342
17.05 -0.00386
17.1 -0.00434
17.15 -0.00399
17.2 -0.00346
17.25 -0.00357
17.3 -0.00417
17.35 -0.00341
17.4 -0.00202
17.45 -0.00042
17.5 0.00149
17.55 0.00353
17.6 0.00431
17.65 0.0047
17.7 0.00464
17.75 0.00465
17.8 0.0039
17.85 0.00294
17.9 0.00214
17.95 0.00233
18 0.00241
18.05 0.00306
18.1 0.00247
18.15 0.00242
18.2 0.00309
18.25 0.00228
18.3 0.00219
18.35 0.00135
18.4 0.00038
18.45 -0.00115
18.5 -0.00275
18.55 -0.0044
18.6 -0.00521
18.65 -0.00533
18.7 -0.00495
18.75 -0.00402
18.8 -0.00279
18.85 -0.00095
18.9 -0.00042
18.95 -0.00021
19 -0.0012
19.05 -0.00157
19.1 -0.00161
19.15 -0.00242
19.2 -0.00239
19.25 -0.00149
19.3 -0.00113
19.35 0.00001
19.4 0.00086
19.45 0.00087
19.5 0.00117
19.55 0.00115
19.6 0.00029
19.65 0.00045
19.7 0.00079
19.75 0.00087
19.8 0.00068
19.85 0.00095
19.9 0.00074
19.95 0.00121
20 0.00174
20.05 0.00129
20.1 0.00188
20.15 0.0027
20.2 0.00371
20.25 0.0048
20.3 0.00518
20.35 0.00412
20.4 0.00371
20.45 0.00374
20.5 0.00392
20.55 0.00338
20.6 0.00208
20.65 0.00121
20.7 0.00092
20.75 0.00013
20.8 0.00039
20.85 0.00006
20.9 -0.00082
20.95 -0.00138
21 -0.00221
21.05 -0.00202
21.1 -0.00263
21.15 -0.00245
21.2 -0.00271
21.25 -0.00239
21.3 -0.00218
21.35 -0.0012
21.4 -0.0008
21.45 -0.00058
21.5 -0.00143
21.55 -0.00151
21.6 -0.00259
21.65 -0.00354
21.7 -0.00338
21.75 -0.00334
21.8 -0.00305
21.85 -0.00169
21.9 -0.00182
21.95 -0.00143
22 -0.00213
22.05 -0.002
22.1 -0.00235
22.15 -0.00206
22.2 -0.00258
22.25 -0.00284
22.3 -0.00291
22.35 -0.0024
22.4 -0.00094
22.45 0.00071
22.5 0.00207
22.55 0.00186
22.6 0.00047
22.65 -0.00034
22.7 -0.00033
22.75 0.00005
22.8 0.00067
22.85 0.00055
22.9 0.00024
22.95 0.00085
23 0.00058
23.05 -0.00021
23.1 0.00031
23.15 -0.00017
23.2 -0.00125
23.25 -0.00217
23.3 -0.00218
23.35 -0.00116
23.4 -0.00083
23.45 -0.00001
23.5 -0.0003
23.55 -0.00109
23.6 -0.00173
23.65 -0.00168
23.7 -0.00219
23.75 -0.00224
23.8 -0.0026
23.85 -0.00288
23.9 -0.00244
23.95 -0.0016
24 -0.00018
24.05 0.00025
24.1 0.0012
24.15 0.00158
24.2 0.00172
24.25 0.00164
24.3 0.00127
24.35 0.00177
24.4 0.00262
24.45 0.00294
24.5 0.00192
24.55 0.00098
24.6 0.00045
24.65 -0.00008
24.7 -0.0005
24.75 -0.00161
24.8 -0.00284
24.85 -0.00282
24.9 -0.0034
24.95 -0.00405
25 -0.0033
25.05 -0.00336
25.1 -0.00304
25.15 -0.00237
25.2 -0.00257
25.25 -0.00316
25.3 -0.00387
25.35 -0.00341
25.4 -0.00309
25.45 -0.00258
25.5 -0.00178
25.55 -0.00006
25.6 0.0018
25.65 0.0029
25.7 0.00289
25.75 0.00365
25.8 0.00414
25.85 0.00347
25.9 0.00235
25.95 0.00119
26 0.00037
26.05 -0.00032
26.1 -0.0015
26.15 -0.00169
26.2 -0.00112
26.25 0.00039
26.3 0.00032
26.35 0.00005
26.4 -0.00102
26.45 -0.00182
26.5 -0.00121
26.55 -0.00174
26.6 -0.00294
26.65 -0.00249
26.7 -0.00138
26.75 -0.00132
26.8 -0.00033
26.85 0.00061
26.9 0.00053
26.95 0.00104
27 0.00118
27.05 0.00091
27.1 0.0003
27.15 -0.00041
27.2 -0.00078
27.25 -0.00029
27.3 -0.00079
27.35 -0.00143
27.4 -0.00197
27.45 -0.00117
27.5 -0.00116
27.55 -0.00208
27.6 -0.00146
27.65 -0.0004
27.7 0.0004
27.75 0.0004
27.8 0.00108
27.85 0.00144
27.9 0.00168
27.95 0.00188
28 0.00159
28.05 0.00223
28.1 0.00177
28.15 0.00025
28.2 -0.0007
28.25 -0.00101
28.3 -0.00101
28.35 -0.0006
28.4 -0.00025
28.45 0.00053
28.5 0.00155
28.55 0.00168
28.6 0.00112
28.65 0.00086
28.7 0.00052
28.75 0.00075
28.8 -0.00046
28.85 -0.00123
28.9 -0.00347
28.95 -0.00588
29 -0.00889
29.05 -0.01126
29.1 -0.01419
29.15 -0.01813
29.2 -0.0227
29.25 -0.02619
29.3 -0.03038
29.35 -0.03506
29.4 -0.03973
29.45 -0.0449
29.5 -0.05054
29.55 -0.05754
29.6 -0.06636
29.65 -0.0768
29.7 -0.08964
29.75 -0.10346
29.8 -0.11947
29.85 -0.13564
29.9 -0.1521
29.95 -0.17034
30 -0.18965
30.05 -0.2106
30.1 -0.23469
30.15 -0.25994
30.2 -0.28609
30.25 -0.31339
30.3 -0.34246
30.35 -0.37139
30.4 -0.40042
30.45 -0.42907
30.5 -0.45883
30.55 -0.48832
30.6 -0.51652
30.65 -0.54374
30.7 -0.56862
30.75 -0.59106
30.8 -0.61091
30.85 -0.62931
30.9 -0.64601
30.95 -0.65915
31 -0.66788
31.05 -0.67139
31.1 -0.67138
31.15 -0.6657
31.2 -0.65572
31.25 -0.64229
31.3 -0.62337
31.35 -0.60078
31.4 -0.57431
31.45 -0.54385
31.5 -0.51038
31.55 -0.47326
31.6 -0.43164
31.65 -0.38821
31.7 -0.34242
31.75 -0.29413
31.8 -0.24425
31.85 -0.19378
31.9 -0.1444
31.95 -0.09448
32 -0.04509
32.05 0.00355
32.1 0.05123
32.15 0.09718
32.2 0.1413
32.25 0.18241
32.3 0.22017
32.35 0.25584
32.4 0.28949
32.45 0.32182
32.5 0.35118
32.55 0.37776
32.6 0.40233
32.65 0.42418
32.7 0.44468
32.75 0.46245
32.8 0.47889
32.85 0.4933
32.9 0.50613
32.95 0.51682
33 0.52641
33.05 0.5347
33.1 0.54126
33.15 0.54559
33.2 0.54783
33.25 0.54927
33.3 0.54909
33.35 0.5491
33.4 0.5487
33.45 0.5471
33.5 0.54536
33.55 0.5435
33.6 0.54014
33.65 0.53478
33.7 0.52921
33.75 0.52203
33.8 0.51474
33.85 0.50643
33.9 0.49746
33.95 0.48901
34 0.48042
34.05 0.47061
34.1 0.4613
34.15 0.45036
34.2 0.43959
34.25 0.42914
34.3 0.418
34.35 0.40679
34.4 0.39521
34.45 0.384
34.5 0.37295
34.55 0.36207
34.6 0.34984
34.65 0.33691
34.7 0.32343
34.75 0.31025
34.8 0.29698
34.85 0.28517
34.9 0.27304
34.95 0.26204
35 0.25077
35.05 0.24006
35.1 0.23064
35.15 0.22136
35.2 0.21181
35.25 0.20191
35.3 0.19227
35.35 0.18335
35.4 0.17464
35.45 0.16585
35.5 0.15616
35.55 0.147
35.6 0.13842
35.65 0.12993
35.7 0.12132
35.75 0.11315
35.8 0.10594
35.85 0.09893
35.9 0.09154
35.95 0.08451
36 0.07779
36.05 0.0703
36.1 0.06318
36.15 0.05629
36.2 0.04953
36.25 0.04346
36.3 0.03696
36.35 0.03012
36.4 0.02372
36.45 0.01688
36.5 0.01032
36.55 0.00459
36.6 -0.00119
36.65 -0.00686
36.7 -0.01208
36.75 -0.01759
36.8 -0.02334
36.85 -0.02911
36.9 -0.03398
36.95 -0.03787
37 -0.04073
37.05 -0.0445
37.1 -0.04851
37.15 -0.05275
37.2 -0.05679
37.25 -0.06005
37.3 -0.06184
37.35 -0.06417
37.4 -0.06569
37.45 -0.06779
37.5 -0.06994
37.55 -0.07092
37.6 -0.07213
37.65 -0.0732
37.7 -0.07474
37.75 -0.07482
37.8 -0.07475
37.85 -0.07521
37.9 -0.07477
37.95 -0.07447
38 -0.07458
38.05 -0.07593
38.1 -0.07633
38.15 -0.07747
38.2 -0.07789
38.25 -0.07732
38.3 -0.07772
38.35 -0.07796
38.4 -0.07914
38.45 -0.07923
38.5 -0.07951
38.55 -0.07926
38.6 -0.07822
38.65 -0.07778
38.7 -0.07698
38.75 -0.07635
38.8 -0.0764
38.85 -0.07713
38.9 -0.07664
38.95 -0.07517
39 -0.07478
39.05 -0.07355
39.1 -0.07376
39.15 -0.07322
39.2 -0.07341
39.25 -0.07341
39.3 -0.07271
39.35 -0.07133
39.4 -0.0697
39.45 -0.06908
39.5 -0.06887
39.55 -0.06912
39.6 -0.0698
39.65 -0.06876
39.7 -0.0669
39.75 -0.0664
39.8 -0.06641
39.85 -0.06569
39.9 -0.06536
39.95 -0.06475
40 -0.06363
40.05 -0.06178
40.1 -0.0593
40.15 -0.0573
40.2 -0.05483
40.25 -0.05259
40.3 -0.05133
40.35 -0.04991
40.4 -0.04834
40.45 -0.04668
40.5 -0.04611
40.55 -0.04536
40.6 -0.04582
40.65 -0.0471
40.7 -0.04769
40.75 -0.048
40.8 -0.04744
40.85 -0.04757
40.9 -0.04835
40.95 -0.04825
41 -0.04842
41.05 -0.04824
41.1 -0.04666
41.15 -0.04597
41.2 -0.04426
41.25 -0.04333
41.3 -0.0425
41.35 -0.04069
41.4 -0.03849
41.45 -0.03716
41.5 -0.03678
41.55 -0.03556
41.6 -0.03533
41.65 -0.0354
41.7 -0.03573
41.75 -0.03645
41.8 -0.03741
41.85 -0.03679
41.9 -0.036
41.95 -0.0353
42 -0.03512
42.05 -0.03482
42.1 -0.03542
42.15 -0.03513
42.2 -0.03506
42.25 -0.03499
42.3 -0.03415
42.35 -0.03362
42.4 -0.03221
42.45 -0.03075
42.5 -0.02949
42.55 -0.02789
42.6 -0.02751
42.65 -0.0281
42.7 -0.02934
42.75 -0.02914
42.8 -0.02854
42.85 -0.02685
42.9 -0.02466
42.95 -0.02231
43 -0.02177
43.05 -0.02215
43.1 -0.02313
43.15 -0.0244
43.2 -0.02417
43.25 -0.02399
43.3 -0.02331
43.35 -0.02327
43.4 -0.02268
43.45 -0.02213
43.5 -0.02063
43.55 -0.01922
43.6 -0.01938
43.65 -0.01853
43.7 -0.01849
43.75 -0.01939
43.8 -0.01987
43.85 -0.01918
43.9 -0.01943
43.95 -0.01872
44 -0.0184
44.05 -0.01886
44.1 -0.01899
44.15 -0.01974
44.2 -0.0201
44.25 -0.02044
44.3 -0.01926
44.35 -0.01742
44.4 -0.01539
44.45 -0.01441
44.5 -0.0142
44.55 -0.01377
44.6 -0.01273
44.65 -0.01223
44.7 -0.0118
44.75 -0.01129
44.8 -0.01219
44.85 -0.01376
44.9 -0.01411
44.95 -0.01521
45 -0.01633
45.05 -0.01631
45.1 -0.01616
45.15 -0.01585
45.2 -0.01487
45.25 -0.01372
45.3 -0.01223
45.35 -0.01139
45.4 -0.01122
45.45 -0.01119
45.5 -0.01068
45.55 -0.0096
45.6 -0.00803
45.65 -0.00753
45.7 -0.00791
45.75 -0.00912
45.8 -0.01041
45.85 -0.01103
45.9 -0.01135
45.95 -0.01178
46 -0.01296
46.05 -0.01256
46.1 -0.01273
46.15 -0.01286
46.2 -0.01238
46.25 -0.0122
46.3 -0.01257
46.35 -0.0119
46.4 -0.01115
46.45 -0.01118
46.5 -0.00992
46.55 -0.00822
46.6 -0.00697
46.65 -0.00704
46.7 -0.00816
46.75 -0.00815
46.8 -0.00737
46.85 -0.00587
46.9 -0.00497
46.95 -0.00482
47 -0.00541
47.05 -0.00535
47.1 -0.00478
47.15 -0.00424
47.2 -0.00337
47.25 -0.00209
47.3 -0.00134
47.35 -0.00155
47.4 -0.00266
47.45 -0.00432
47.5 -0.0056
47.55 -0.00663
47.6 -0.007
47.65 -0.00698
47.7 -0.00648
47.75 -0.00698
47.8 -0.00722
47.85 -0.00622
47.9 -0.0047
47.95 -0.00398
48 -0.00311
48.05 -0.00244
48.1 -0.00134
48.15 -0.00155
48.2 -0.00184
48.25 -0.0014
48.3 -0.00082
48.35 -0.00114
48.4 -0.00258
48.45 -0.00324
48.5 -0.00425
48.55 -0.00518
48.6 -0.00659
48.65 -0.0081
48.7 -0.00984
48.75 -0.00947
48.8 -0.00896
48.85 -0.00853
48.9 -0.00763
48.95 -0.00629
49 -0.0047
49.05 -0.00259
49.1 -0.00177
49.15 -0.00106
49.2 -0.00141
49.25 -0.00093
49.3 -0.00091
49.35 -0.00046
49.4 -0.00085
49.45 -0.00223
49.5 -0.00276
49.55 -0.00395
49.6 -0.00478
49.65 -0.00587
49.7 -0.00662
49.75 -0.00653
49.8 -0.0052
49.85 -0.00507
49.9 -0.00453
49.95 -0.00473
50 -0.00368
50.05 -0.00261
50.1 -0.00113
50.15 -0.00125
50.2 -0.00161
50.25 -0.00242
50.3 -0.00393
50.35 -0.00557
50.4 -0.00634
50.45 -0.00603
50.5 -0.00487
50.55 -0.00434
50.6 -0.00343
50.65 -0.00326
50.7 -0.00307
50.75 -0.00307
50.8 -0.00262
50.85 -0.00329
50.9 -0.00332
50.95 -0.00381
51 -0.00389
51.05 -0.00304
51.1 -0.00214
51.15 -0.00167
51.2 -0.00122
51.25 -0.00121
51.3 -0.00053
51.35 -0.00024
51.4 -0.0011
51.45 -0.00247
51.5 -0.00312
51.55 -0.00266
51.6 -0.00244
51.65 -0.00291
51.7 -0.00275
51.75 -0.00162
51.8 -0.00174
51.85 -0.00287
51.9 -0.00328
51.95 -0.00362
52 -0.00309
52.05 -0.002
52.1 -0.001
52.15 -0.00019
52.2 0.00059
52.25 0.00019
52.3 -0.00044
52.35 -0.00098
52.4 -0.00186
52.45 -0.00318
52.5 -0.00319
52.55 -0.00336
52.6 -0.00332
52.65 -0.00307
52.7 -0.00327
52.75 -0.0022
52.8 -0.0014
52.85 -0.00082
52.9 -0.0003
52.95 0.00101
53 0.00064
53.05 0.00106
53.1 0.00022
53.15 -0.00012
53.2 0.00044
53.25 0.00041
53.3 0.0001
53.35 -0.00063
53.4 -0.0015
53.45 -0.00195
53.5 -0.00214
53.55 -0.00209
53.6 -0.00172
53.65 -0.00183
53.7 -0.00286
53.75 -0.00336
53.8 -0.00272
53.85 -0.00114
53.9 -0.00067
53.95 -0.00134
54 -0.00154
54.05 -0.00054
54.1 0.00052
54.15 0.00201
54.2 0.00371
54.25 0.00409
54.3 0.00471
54.35 0.00496
54.4 0.00461
54.45 0.00389
54.5 0.00398
54.55 0.00459
54.6 0.00551
54.65 0.00556
54.7 0.0056
54.75 0.00444
54.8 0.00326
54.85 0.00158
54.9 0.00024
54.95 -0.00058
55 -0.00077
55.05 -0.00023
55.1 -0.00018
55.15 0.0004
55.2 0.00019
55.25 0.00029
55.3 -0.00008
55.35 -0.00145
55.4 -0.00161
55.45 -0.00072
55.5 -0.00005
55.55 0.0013
55.6 0.00142
55.65 0.00228
55.7 0.00323
55.75 0.00315
55.8 0.00374
55.85 0.0037
55.9 0.00292
55.95 0.0016
56 0.00015
56.05 -0.0019
56.1 -0.00239
56.15 -0.00365
56.2 -0.00363
56.25 -0.00421
56.3 -0.00455
56.35 -0.00461
56.4 -0.00388
56.45 -0.00362
56.5 -0.00429
56.55 -0.00391
56.6 -0.00311
56.65 -0.00269
56.7 -0.00251
56.75 -0.00335
56.8 -0.00428
56.85 -0.00426
56.9 -0.00373
56.95 -0.00406
57 -0.00297
57.05 -0.00239
57.1 -0.00153
57.15 -0.00174
57.2 -0.00243
57.25 -0.00345
57.3 -0.00402
57.35 -0.00328
57.4 -0.00178
57.45 -0.00078
57.5 0.00039
57.55 0.00065
57.6 0.0005
57.65 -0.00017
57.7 -0.00031
57.75 -0.00127
57.8 -0.00088
57.85 -0.00118
57.9 -0.00234
57.95 -0.0032
58 -0.00253
58.05 -0.00242
58.1 -0.00188
58.15 -0.00248
58.2 -0.00331
58.25 -0.00462
58.3 -0.00402
58.35 -0.00251
58.4 -0.00147
58.45 -0.00071
58.5 0.00014
58.55 0.00041
58.6 0.00121
58.65 0.00182
58.7 0.00176
58.75 0.00055
58.8 0.0005
58.85 0.00081
58.9 0.00124
58.95 0.00169
59 0.00183
59.05 0.00168
59.1 0.00169
59.15 0.00184
59.2 0.00215
59.25 0.00146
59.3 0.00181
59.35 0.00258
59.4 0.00265
59.45 0.00236
59.5 0.00157
59.55 0.00095
59.6 0.00065
59.65 -0.00057
59.7 -0.00204
59.75 -0.00233
59.8 -0.00181
59.85 -0.00226
59.9 -0.00265
59.95 -0.00237
60 -0.00191
60.05 -0.00203
60.1 -0.00096
60.15 0.00045
60.2 0.00184
60.25 0.00296
60.3 0.00271
60.35 0.0032
60.4 0.00412
60.45 0.00399
60.5 0.00256
60.55 0.00156
60.6 0.00147
60.65 0.00092
60.7 -0.00028
60.75 -0.00196
60.8 -0.00323
60.85 -0.00322
60.9 -0.00402
60.95 -0.0038
61 -0.00373
61.05 -0.00249
61.1 -0.00172
61.15 -0.00093
61.2 -0.00067
61.25 -0.00122
61.3 -0.00075
61.35 0.00025
61.4 0.00032
61.45 0.00127
61.5 0.00277
61.55 0.00251
61.6 0.00257
61.65 0.00209
61.7 0.00169
61.75 0.00223
61.8 0.00156
61.85 0.00012
61.9 -0.00077
61.95 -0.00058
62 -0.00112
62.05 -0.00116
62.1 -0.00149
62.15 -0.00249
62.2 -0.00248
62.25 -0.00208
62.3 -0.00232
62.35 -0.00172
62.4 -0.0014
62.45 -0.00188
62.5 -0.00223
62.55 -0.00324
62.6 -0.00405
62.65 -0.00443
62.7 -0.00393
62.75 -0.00416
62.8 -0.00351
62.85 -0.00391
62.9 -0.00378
62.95 -0.0024
63 -0.00084
63.05 0.0003
63.1 0.00012
63.15 -0.00036
63.2 -0.00169
63.25 -0.00229
63.3 -0.00342
63.35 -0.00311
63.4 -0.0029
63.45 -0.00215
63.5 -0.00182
63.55 -0.00229
63.6 -0.00186
63.65 -0.00109
63.7 -0.00105
63.75 -0.00158
63.8 -0.00079
63.85 0.00014
63.9 0.00083
63.95 0.00208
64 0.00311
64.05 0.00248
64.1 0.00192
64.15 0.0017
64.2 0.00121
64.25 -0.00011
64.3 0.00015
64.35 0.0005
64.4 0.00088
64.45 0.00174
64.5 0.00183
64.55 0.0018
64.6 0.00219
64.65 0.00201
64.7 0.0027
64.75 0.0031
64.8 0.00413
64.85 0.00477
64.9 0.00405
64.95 0.00422
65 0.00388
65.05 0.00383
65.1 0.00406
65.15 0.00272
65.2 0.00089
65.25 0.00011
65.3 0.00008
65.35 0.00069
65.4 0.00084
65.45 0.00059
65.5 0.00051
65.55 0.00079
65.6 0.00162
65.65 0.0017
65.7 0.00191
65.75 0.00079
65.8 -0.00065
65.85 -0.00221
65.9 -0.00387
65.95 -0.00401
66 -0.00381
66.05 -0.00316
66.1 -0.00235
66.15 -0.00177
66.2 -0.00117
66.25 -0.00022
66.3 0.0012
66.35 0.00206
66.4 0.00224
66.45 0.00167
66.5 0.00058
66.55 0.00003
66.6 0.0001
66.65 0.00084
66.7 0.00101
66.75 0.00133
66.8 0.00119
66.85 0.00187
66.9 0.00231
66.95 0.00219
67 0.00288
67.05 0.00192
67.1 0.0006
67.15 0.00023
67.2 -0.0009
67.25 -0.00161
67.3 -0.00207
67.35 -0.00156
67.4 -0.00168
67.45 -0.00185
67.5 -0.00191
67.55 -0.00222
67.6 -0.00177
67.65 -0.00145
67.7 -0.0009
67.75 -0.00059
67.8 -0.00132
67.85 -0.00076
67.9 0.00054
67.95 0.00079
68 0.00097
68.05 0.00021
68.1 -0.00088
68.15 -0.00185
68.2 -0.00193
68.25 -0.00231
68.3 -0.00262
68.35 -0.00299
68.4 -0.00298
68.45 -0.00183
68.5 -0.00208
68.55 -0.00123
68.6 -0.00008
68.65 0.00163
68.7 0.00171
68.75 0.00162
68.8 0.00195
68.85 0.00094
68.9 -0.00033
68.95 -0.00102
69 -0.00139
69.05 -0.00053
69.1 0.00091
69.15 0.00151
69.2 0.00248
69.25 0.00182
69.3 0.00099
69.35 0.00048
69.4 -0.00023
69.45 -0.00138
69.5 -0.00216
69.55 -0.00265
69.6 -0.00345
69.65 -0.00472
69.7 -0.00443
69.75 -0.00312
69.8 -0.00206
69.85 -0.00193
69.9 -0.00253
69.95 -0.00215
70 -0.00123
70.05 -0.00111
70.1 -0.00097
70.15 -0.00078
70.2 -0.00041
70.25 -0.00039
70.3 -0.00014
70.35 0.00084
70.4 0.00043
70.45 0.00025
70.5 0.00103
70.55 0.00082
70.6 0.00008
70.65 -0.00072
70.7 -0.00014
70.75 0.00125
70.8 0.00189
70.85 0.0015
70.9 0.00206
70.95 0.00264
71 0.00231
71.05 0.00167
71.1 0.00034
71.15 -0.00047
71.2 -0.00114
71.25 -0.00102
71.3 -0.00021
71.35 0.00106
71.4 0.00101
71.45 0.00117
71.5 0.00208
71.55 0.00323
71.6 0.00258
71.65 0.00197
71.7 0.00089
71.75 -0.00017
71.8 -0.00161
71.85 -0.00237
71.9 -0.00211
71.95 -0.0021
72 -0.00174
72.05 -0.00195
72.1 -0.00123
72.15 0.00016
72.2 0.00041
72.25 -0.00012
72.3 -0.00077
72.35 -0.00023
72.4 -0.0006
72.45 -0.00119
72.5 -0.00219
72.55 -0.00211
72.6 -0.00201
72.65 -0.00211
72.7 -0.00219
72.75 -0.00178
72.8 -0.00163
72.85 -0.00149
72.9 -0.00077
72.95 -0.00032
73 -0.00014
73.05 -0.00046
73.1 -0.00118
73.15 -0.00111
73.2 -0.00094
73.25 -0.00128
73.3 -0.00123
73.35 -0.00214
73.4 -0.00255
73.45 -0.00242
73.5 -0.00294
73.55 -0.00343
73.6 -0.00323
73.65 -0.00215
73.7 -0.00191
73.75 -0.0013
73.8 0.00022
73.85 0.00089
73.9 0.00134
73.95 0.0021
74 0.00349
74.05 0.00355
74.1 0.00241
74.15 0.00218
74.2 0.00139
74.25 0.0001
74.3 -0.00037
74.35 -0.0013
74.4 -0.00214
74.45 -0.00249
74.5 -0.00173
74.55 -0.00059
74.6 0.00079
74.65 0.00059
74.7 0.00113
74.75 0.00168
74.8 0.00213
74.85 0.00249
74.9 0.00231
74.95 0.00125
75 0.00115
75.05 0.00151
75.1 0.00211
75.15 0.00191
75.2 0.00196
75.25 0.00223
75.3 0.00233
75.35 0.00247
75.4 0.00193
75.45 0.00079
75.5 0.00039
75.55 -0.00029
75.6 -0.00042
75.65 0.00057
75.7 0.00213
75.75 0.00304
75.8 0.0034
75.85 0.00436
75.9 0.00381
75.95 0.00238
76 0.00224
76.05 0.00266
76.1 0.00198
76.15 0.00101
76.2 0.00016
76.25 0.00052
76.3 0.00025
76.35 0.00062
76.4 0.00156
76.45 0.00221
76.5 0.00238
76.55 0.00297
76.6 0.00311
76.65 0.00286
76.7 0.00248
76.75 0.00102
76.8 0.00041
76.85 -0.00002
76.9 -0.00024
76.95 -0.00016
77 -0.00035
77.05 -0.0008
77.1 -0.00027
77.15 0.00095
77.2 0.00142
77.25 0.00133
77.3 0.00005
77.35 -0.0019
77.4 -0.00223
77.45 -0.00179
77.5 -0.00041
77.55 0.0003
77.6 0.00169
77.65 0.0022
77.7 0.00116
77.75 0.00092
77.8 -0.00008
77.85 -0.00063
77.9 -0.0019
77.95 -0.0022
78 -0.00206
78.05 -0.00191
78.1 -0.00163
78.15 -0.00067
78.2 0.00012
78.25 -0.00021
78.3 -0.00136
78.35 -0.00252
78.4 -0.00374
78.45 -0.00345
78.5 -0.00206
78.55 -0.00091
78.6 0.00031
78.65 0.00088
78.7 0.00119
78.75 0.00142
78.8 0.00088
78.85 -0.00004
78.9 -0.00119
78.95 -0.00183
79 -0.00136
79.05 -0.00087
79.1 -0.00103
79.15 -0.00134
79.2 -0.00057
79.25 -0.0003
79.3 -0.00048
79.35 -0.00078
79.4 -0.00046
79.45 -0.00046
79.5 -0.00102
79.55 -0.00183
79.6 -0.00258
79.65 -0.00323
79.7 -0.00319
79.75 -0.00382
79.8 -0.00301
79.85 -0.00192
79.9 -0.0016
79.95 -0.00031
80 0.00056
80.05 0.00013
80.1 0.00068
80.15 0.00093
80.2 0.00055
80.25 -0.00037
80.3 -0.00195
80.35 -0.00252
80.4 -0.00198
80.45 -0.00141
80.5 -0.0009
80.55 0.00035
80.6 0.0001
80.65 0.00095
80.7 0.00194
80.75 0.00297
80.8 0.00265
80.85 0.00258
80.9 0.00143
80.95 -0.00006
81 -0.00008
81.05 0.00009
81.1 0.00117
81.15 0.00272
81.2 0.00411
81.25 0.00357
81.3 0.00362
81.35 0.00374
81.4 0.00302
81.45 0.0025
81.5 0.00189
81.55 0.00212
81.6 0.00242
81.65 0.00252
81.7 0.00215
81.75 0.00207
81.8 0.00189
81.85 0.00253
81.9 0.00308
81.95 0.0031
82 0.00196
82.05 0.00149
82.1 0.00156
82.15 0.00031
82.2 -0.0008
82.25 -0.00109
82.3 -0.00152
82.35 -0.00097
82.4 -0.00086
82.45 -0.00023
82.5 0.00114
82.55 0.00164
82.6 0.00266
82.65 0.00391
82.7 0.00319
82.75 0.00172
82.8 -0.0005
82.85 -0.00243
82.9 -0.0036
82.95 -0.00316
83 -0.00308
83.05 -0.00269
83.1 -0.00325
83.15 -0.00358
83.2 -0.004
83.25 -0.00448
83.3 -0.00485
83.35 -0.00564
83.4 -0.00682
83.45 -0.00809
83.5 -0.00724
83.55 -0.00544
83.6 -0.00432
83.65 -0.0025
83.7 -0.00051
83.75 0.00053
83.8 0.00008
83.85 -0.00009
83.9 -0.00032
83.95 0.00022
84 0.00156
84.05 0.00314
84.1 0.00275
84.15 0.00244
84.2 0.00227
84.25 0.00099
84.3 0.00017
84.35 -0.00122
84.4 -0.00167
84.45 -0.00262
84.5 -0.00406
84.55 -0.00439
84.6 -0.00361
84.65 -0.00254
84.7 -0.00106
84.75 -0.00019
84.8 0.00098
84.85 0.00119
84.9 0.00016
84.95 0.00051
85 0.0003
85.05 0.00069
85.1 0.00147
85.15 0.00215
85.2 0.00238
85.25 0.00204
85.3 0.00257
85.35 0.00209
85.4 0.00261
85.45 0.00287
85.5 0.00321
85.55 0.00262
85.6 0.00288
85.65 0.00237
85.7 0.00092
85.75 0.00073
85.8 0.00021
85.85 -0.00117
85.9 -0.00257
85.95 -0.00348
86 -0.00329
86.05 -0.00289
86.1 -0.00198
86.15 -0.00099
86.2 -0.00116
86.25 -0.00198
86.3 -0.00177
86.35 -0.00137
86.4 -0.00054
86.45 0.00081
86.5 0.00249
86.55 0.00396
86.6 0.00524
86.65 0.00574
86.7 0.00506
86.75 0.00337
86.8 0.00146
86.85 -0.00011
86.9 -0.00177
86.95 -0.0024
87 -0.00269
87.05 -0.00272
87.1 -0.00157
87.15 -0.00126
87.2 -0.00023
87.25 0.00112
87.3 0.00087
87.35 0.00089
87.4 -0.00024
87.45 -0.00208
87.5 -0.00318
87.55 -0.00349
87.6 -0.0036
87.65 -0.00416
87.7 -0.00488
87.75 -0.00415
87.8 -0.00406
87.85 -0.00298
87.9 -0.00171
87.95 -0.0002
88 0.00112
88.05 0.00205
88.1 0.00347
88.15 0.00383
88.2 0.00474
88.25 0.00448
88.3 0.00449
88.35 0.00357
88.4 0.00367
88.45 0.00303
88.5 0.00271
88.55 0.00128
88.6 -0.00004
88.65 -0.00133
88.7 -0.0016
88.75 -0.00205
88.8 -0.00232
88.85 -0.002
88.9 -0.00139
88.95 -0.00192
89 -0.00295
89.05 -0.00428
89.1 -0.00377
89.15 -0.00353
89.2 -0.00373
89.25 -0.00312
89.3 -0.00249
89.35 -0.0024
89.4 -0.00241
89.45 -0.00323
89.5 -0.00263
89.55 -0.00101
89.6 -0.00101
89.65 -0.00017
89.7 -0.00002
89.75 -0.00018
89.8 -0.0009
89.85 -0.00062
89.9 0.00036
89.95 0.00181
90 0.00273
90.05 0.00305
90.1 0.00392
90.15 0.00304
90.2 0.00265
90.25 0.00187
90.3 0.00072
90.35 0.00069
90.4 0.00138
90.45 0.00175
90.5 0.00273
90.55 0.00259
90.6 0.00189
90.65 0.002
90.7 0.00199
90.75 0.00137
90.8 0.00039
90.85 -0.001
90.9 -0.00226
90.95 -0.00367
91 -0.0034
91.05 -0.00339
91.1 -0.00343
91.15 -0.00389
91.2 -0.00471
91.25 -0.00481
91.3 -0.00459
91.35 -0.00347
91.4 -0.0033
91.45 -0.00221
91.5 -0.00063
91.55 -0.00035
91.6 0.0002
91.65 -0.0002
91.7 -0.00147
91.75 -0.00109
91.8 -0.00045
91.85 -0.0003
91.9 0.00062
91.95 0.00163
92 0.00245
92.05 0.00381
92.1 0.00341
92.15 0.00329
92.2 0.00231
92.25 0.00156
92.3 0.00036
92.35 0.0006
92.4 0.00005
92.45 -0.00023
92.5 -0.0008
92.55 -0.00042
92.6 -0.00071
92.65 -0.00156
92.7 -0.00248
92.75 -0.00256
92.8 -0.00137
92.85 0.00044
92.9 0.00125
92.95 0.00261
93 0.00378
93.05 0.00334
93.1 0.00265
93.15 0.0028
93.2 0.00294
93.25 0.00374
93.3 0.0039
93.35 0.00429
93.4 0.00455
93.45 0.00505
93.5 0.0042
93.55 0.00251
93.6 0.00173
93.65 0.00192
93.7 0.00095
93.75 0.00003
93.8 -0.00129
93.85 -0.00113
93.9 -0.00106
93.95 -0.00031
94 0.00044
94.05 0.00102
94.1 0.00015
94.15 -0.0007
94.2 -0.00232
94.25 -0.00403
94.3 -0.00534
94.35 -0.00606
94.4 -0.00571
94.45 -0.00602
94.5 -0.00644
94.55 -0.00575
94.6 -0.00552
94.65 -0.00438
94.7 -0.00265
94.75 -0.00116
94.8 -0.00051
94.85 -0.00073
94.9 -0.00024
94.95 0.00109
95 0.00089
95.05 0.00162
95.1 0.00117
95.15 0.00167
95.2 0.00278
95.25 0.00315
95.3 0.0023
95.35 0.00073
95.4 0.00022
95.45 -0.0004
95.5 -0.00025
95.55 0.00047
95.6 0.00126
95.65 0.00087
95.7 0.00066
95.75 0.00143
95.8 0.00268
95.85 0.00222
95.9 0.0023
95.95 0.00297
96 0.00291
96.05 0.00356
96.1 0.00433
96.15 0.00502
96.2 0.00488
96.25 0.005
96.3 0.00453
96.35 0.00345
96.4 0.00267
96.45 0.00238
96.5 0.00216
96.55 0.00149
96.6 0.00055
96.65 -0.00107
96.7 -0.00135
96.75 -0.0014
96.8 -0.00204
96.85 -0.00335
96.9 -0.00357
96.95 -0.00245
97 -0.00062
97.05 0.00132
97.1 0.00206
97.15 0.00116
97.2 -0.00052
97.25 -0.00185
97.3 -0.00343
97.35 -0.00362
97.4 -0.00425
97.45 -0.00412
97.5 -0.00349
97.55 -0.0034
97.6 -0.00253
97.65 -0.00189
97.7 -0.00223
97.75 -0.00244
97.8 -0.00227
97.85 -0.00276
97.9 -0.00396
97.95 -0.00494
98 -0.00503
98.05 -0.00575
98.1 -0.00656
98.15 -0.00676
98.2 -0.0064
98.25 -0.00577
98.3 -0.00418
98.35 -0.00356
98.4 -0.00233
98.45 -0.00088
98.5 -0.00005
98.55 -0.0005
98.6 -0.00154
98.65 -0.00172
98.7 -0.00161
98.75 -0.00117
98.8 0.00021
98.85 0.00112
98.9 0.00101
98.95 -0.00015
99 -0.00004
99.05 -0.00061
99.1 0.00001
99.15 -0.00008
99.2 -0.0011
99.25 -0.00224
99.3 -0.00385
99.35 -0.00482
99.4 -0.00415
99.45 -0.00318
99.5 -0.00214
99.55 -0.00041
99.6 0.00094
99.65 0.00114
99.7 0.00164
99.75 0.0028
99.8 0.0038
99.85 0.00324
99.9 0.0027
99.95 0.00137
