0 0
0.05 0.00058
0.1 0.00677
0.15 0.01959
0.2 0.03454
0.25 0.04605
0.3 0.05388
0.35 0.05683
0.4 0.05561
0.45 0.05415
0.5 0.04919
0.55 0.04777
0.6 0.04646
0.65 0.04805
0.7 0.04488
0.75 0.04072
0.8 0.03811
0.85 0.03814
0.9 0.04269
0.95 0.04545
1 0.04368
1.05 0.04679
1.1 0.05103
1.15 0.05026
1.2 0.05109
1.25 0.04747
1.3 0.04411
1.35 0.04535
1.4 0.04442
1.45 0.04158
1.5 0.03827
1.55 0.03865
1.6 0.03633
1.65 0.03358
1.7 0.03399
1.75 0.03861
1.8 0.03951
1.85 0.03518
1.9 0.03101
1.95 0.03036
2 0.0261
2.05 0.02179
2.1 0.01533
2.15 0.01313
2.2 0.01468
2.25 0.02027
2.3 0.02858
2.35 0.03862
2.4 0.04652
2.45 0.04705
2.5 0.04996
2.55 0.05104
2.6 0.05353
2.65 0.05592
2.7 0.05407
2.75 0.05
2.8 0.04422
2.85 0.04023
2.9 0.03275
2.95 0.02852
3 0.0279
3.05 0.02395
3.1 0.01904
3.15 0.01297
3.2 0.00574
3.25 0.00044
3.3 -0.00152
3.35 -0.00446
3.4 -0.0023
3.45 0.00532
3.5 0.01223
3.55 0.02048
3.6 0.02387
3.65 0.02128
3.7 0.02053
3.75 0.01564
3.8 0.01262
3.85 0.00654
3.9 0.00708
3.95 0.01209
4 0.01329
4.05 0.01559
4.1 0.01983
4.15 0.01921
4.2 0.02137
4.25 0.02273
4.3 0.0254
4.35 0.02794
4.4 0.02184
4.45 0.01587
4.5 0.01135
4.55 0.00327
4.6 -0.00817
4.65 -0.0195
4.7 -0.03437
4.75 -0.0539
4.8 -0.07713
4.85 -0.10408
4.9 -0.13427
4.95 -0.16381
5 -0.20016
5.05 -0.2401
5.1 -0.29005
5.15 -0.34044
5.2 -0.39997
5.25 -0.45913
5.3 -0.52043
5.35 -0.58163
5.4 -0.64619
5.45 -0.71477
5.5 -0.7867
5.55 -0.85673
5.6 -0.93022
5.65 -0.99985
5.7 -1.06199
5.75 -1.11835
5.8 -1.16991
5.85 -1.21891
5.9 -1.26355
5.95 -1.30024
6 -1.32412
6.05 -1.34131
6.1 -1.35206
6.15 -1.35872
6.2 -1.35504
6.25 -1.35023
6.3 -1.34333
6.35 -1.33056
6.4 -1.30846
6.45 -1.28421
6.5 -1.25135
6.55 -1.21175
6.6 -1.17373
6.65 -1.13162
6.7 -1.07929
6.75 -1.01871
6.8 -0.9516
6.85 -0.87928
6.9 -0.80962
6.95 -0.73841
7 -0.66136
7.05 -0.57958
7.1 -0.491
7.15 -0.39372
7.2 -0.29371
7.25 -0.19217
7.3 -0.08819
7.35 0.0177
7.4 0.13024
7.45 0.24429
7.5 0.35896
7.55 0.47123
7.6 0.57535
7.65 0.67537
7.7 0.77067
7.75 0.85629
7.8 0.93556
7.85 1.00361
7.9 1.06558
7.95 1.1187
8 1.16707
8.05 1.21229
8.1 1.25024
8.15 1.2838
8.2 1.31538
8.25 1.34117
8.3 1.3575
8.35 1.369
8.4 1.37878
8.45 1.38666
8.5 1.39296
8.55 1.39305
8.6 1.38533
8.65 1.37198
8.7 1.35195
8.75 1.32648
8.8 1.30214
8.85 1.27591
8.9 1.25047
8.95 1.21961
9 1.18984
9.05 1.16365
9.1 1.13944
9.15 1.11373
9.2 1.08234
9.25 1.05196
9.3 1.0245
9.35 0.99455
9.4 0.96285
9.45 0.92579
9.5 0.89049
9.55 0.85724
9.6 0.82877
9.65 0.80394
9.7 0.78113
9.75 0.75409
9.8 0.73035
9.85 0.70357
9.9 0.67479
9.95 0.64697
10 0.62054
10.05 0.59756
10.1 0.56984
10.15 0.54436
10.2 0.51859
10.25 0.49391
10.3 0.47193
10.35 0.44874
10.4 0.42416
10.45 0.40368
10.5 0.38405
10.55 0.36786
10.6 0.35401
10.65 0.3333
10.7 0.31566
10.75 0.29976
10.8 0.27647
10.85 0.25187
10.9 0.23018
10.95 0.20795
11 0.1861
11.05 0.16116
11.1 0.13833
11.15 0.11863
11.2 0.09969
11.25 0.0814
11.3 0.06943
11.35 0.05374
11.4 0.04188
11.45 0.03291
11.5 0.0168
11.55 0.00232
11.6 -0.01008
11.65 -0.02144
11.7 -0.03059
11.75 -0.04334
11.8 -0.06128
11.85 -0.07814
11.9 -0.09734
11.95 -0.10829
12 -0.12041
12.05 -0.1266
12.1 -0.13126
12.15 -0.14161
12.2 -0.15183
12.25 -0.15841
12.3 -0.16128
12.35 -0.16647
12.4 -0.17027
12.45 -0.17255
12.5 -0.17485
12.55 -0.18029
12.6 -0.1893
12.65 -0.19811
12.7 -0.20083
12.75 -0.2057
12.8 -0.20821
12.85 -0.21158
12.9 -0.21017
12.95 -0.21311
13 -0.2096
13.05 -0.20382
13.1 -0.20404
13.15 -0.20743
13.2 -0.20758
13.25 -0.20829
13.3 -0.20295
13.35 -0.20183
13.4 -0.204
13.45 -0.20235
13.5 -0.20442
13.55 -0.20203
13.6 -0.20357
13.65 -0.19919
13.7 -0.19541
13.75 -0.18808
13.8 -0.18246
13.85 -0.18156
13.9 -0.18058
13.95 -0.17822
14 -0.17204
14.05 -0.17176
14.1 -0.17079
14.15 -0.16724
14.2 -0.16088
14.25 -0.15796
14.3 -0.15137
14.35 -0.15008
14.4 -0.15254
14.45 -0.15132
14.5 -0.15435
14.55 -0.15732
14.6 -0.16112
14.65 -0.15808
14.7 -0.15738
14.75 -0.15221
14.8 -0.15065
14.85 -0.15163
14.9 -0.14687
14.95 -0.14629
15 -0.14502
15.05 -0.14248
15.1 -0.13877
15.15 -0.13267
15.2 -0.12453
15.25 -0.12214
15.3 -0.11686
15.35 -0.11146
15.4 -0.106
15.45 -0.10141
15.5 -0.09993
15.55 -0.09504
15.6 -0.09043
15.65 -0.09124
15.7 -0.09052
15.75 -0.09222
15.8 -0.09008
15.85 -0.08604
15.9 -0.08703
15.95 -0.08949
16 -0.09443
16.05 -0.09835
16.1 -0.09614
16.15 -0.0912
16.2 -0.09166
16.25 -0.09177
16.3 -0.08672
16.35 -0.08631
16.4 -0.08249
16.45 -0.08098
16.5 -0.08334
16.55 -0.08214
16.6 -0.07716
16.65 -0.07457
16.7 -0.07337
16.75 -0.07688
16.8 -0.07405
16.85 -0.06962
16.9 -0.06171
16.95 -0.05311
17 -0.0512
17.05 -0.05417
17.1 -0.05958
17.15 -0.05949
17.2 -0.06119
17.25 -0.058
17.3 -0.05497
17.35 -0.05108
17.4 -0.05303
17.45 -0.05079
17.5 -0.05327
17.55 -0.05901
17.6 -0.06073
17.65 -0.05659
17.7 -0.05374
17.75 -0.0556
17.8 -0.0577
17.85 -0.05821
17.9 -0.0539
17.95 -0.0501
18 -0.04297
18.05 -0.03524
18.1 -0.03407
18.15 -0.03449
18.2 -0.03233
18.25 -0.03492
18.3 -0.03401
18.35 -0.03503
18.4 -0.03197
18.45 -0.03478
18.5 -0.03457
18.55 -0.03362
18.6 -0.03662
18.65 -0.0384
18.7 -0.04311
18.75 -0.04375
18.8 -0.03953
18.85 -0.04095
18.9 -0.03879
18.95 -0.03346
19 -0.02692
19.05 -0.02454
19.1 -0.01942
19.15 -0.01781
19.2 -0.01947
19.25 -0.01827
19.3 -0.01794
19.35 -0.02262
19.4 -0.02275
19.45 -0.01899
19.5 -0.01731
19.55 -0.01847
19.6 -0.01697
19.65 -0.02093
19.7 -0.02215
19.75 -0.02799
19.8 -0.02863
19.85 -0.03349
19.9 -0.03459
19.95 -0.03412
20 -0.03699
20.05 -0.03853
20.1 -0.0396
20.15 -0.04082
20.2 -0.04453
20.25 -0.04133
20.3 -0.03775
20.35 -0.03699
20.4 -0.03663
20.45 -0.03859
20.5 -0.03572
20.55 -0.03278
20.6 -0.03045
20.65 -0.02486
20.7 -0.01761
20.75 -0.01533
20.8 -0.01854
20.85 -0.0162
20.9 -0.01522
20.95 -0.01195
21 -0.01374
21.05 -0.01871
21.1 -0.0208
21.15 -0.02215
21.2 -0.01861
21.25 -0.0122
21.3 -0.01208
21.35 -0.01183
21.4 -0.00807
21.45 -0.00648
21.5 -0.00375
21.55 0.00137
21.6 0.00689
21.65 0.01217
21.7 0.01217
21.75 0.00889
21.8 0.00032
21.85 -0.01045
21.9 -0.01402
21.95 -0.01244
22 -0.0149
22.05 -0.02091
22.1 -0.02227
22.15 -0.02012
22.2 -0.02196
22.25 -0.02675
22.3 -0.02657
22.35 -0.02592
22.4 -0.02461
22.45 -0.02185
22.5 -0.02291
22.55 -0.02479
22.6 -0.02871
22.65 -0.0308
22.7 -0.02849
22.75 -0.02273
22.8 -0.01698
22.85 -0.01285
22.9 -0.00743
22.95 -0.00839
23 -0.011
23.05 -0.01256
23.1 -0.01403
23.15 -0.0109
23.2 -0.00976
23.25 -0.0075
23.3 -0.00755
23.35 -0.01248
23.4 -0.01674
23.45 -0.01513
23.5 -0.01654
23.55 -0.01832
23.6 -0.01482
23.65 -0.014
23.7 -0.01065
23.75 -0.009
23.8 -0.01017
23.85 -0.00846
23.9 -0.00852
23.95 -0.00668
24 -0.00531
24.05 -0.00666
24.1 -0.00585
24.15 -0.00911
24.2 -0.01452
24.25 -0.01856
24.3 -0.02306
24.35 -0.02409
24.4 -0.02571
24.45 -0.02545
24.5 -0.02696
24.55 -0.03025
24.6 -0.03343
24.65 -0.03041
24.7 -0.02192
24.75 -0.01309
24.8 -0.01083
24.85 -0.00822
24.9 -0.00252
24.95 0.00373
25 0.01051
25.05 0.01617
25.1 0.0146
25.15 0.01272
25.2 0.01131
25.25 0.00433
25.3 -0.00527
25.35 -0.01602
25.4 -0.01883
25.45 -0.01967
25.5 -0.01774
25.55 -0.01624
25.6 -0.01482
25.65 -0.01003
25.7 -0.01058
25.75 -0.00651
25.8 -0.00538
25.85 -0.00831
25.9 -0.01321
25.95 -0.01799
26 -0.02358
26.05 -0.02667
26.1 -0.02811
26.15 -0.02754
26.2 -0.02352
26.25 -0.02069
26.3 -0.01614
26.35 -0.0129
26.4 -0.00849
26.45 -0.0029
26.5 0.00511
26.55 0.00708
26.6 0.01233
26.65 0.01677
26.7 0.01352
26.75 0.0072
26.8 0.00484
26.85 0.0058
26.9 0.00857
26.95 0.00702
27 0.00077
27.05 0.00057
27.1 0.00414
27.15 0.00921
27.2 0.01136
27.25 0.01267
27.3 0.0162
27.35 0.01228
27.4 0.01224
27.45 0.01078
27.5 0.01012
27.55 0.00468
27.6 0.00304
27.65 -0.00224
27.7 -0.00528
27.75 -0.01
27.8 -0.01766
27.85 -0.0269
27.9 -0.03347
27.95 -0.0422
28 -0.05197
28.05 -0.06106
28.1 -0.07148
28.15 -0.07855
28.2 -0.08597
28.25 -0.09859
28.3 -0.11373
28.35 -0.13517
28.4 -0.16364
28.45 -0.19457
28.5 -0.2235
28.55 -0.24999
28.6 -0.28189
28.65 -0.31882
28.7 -0.36178
28.75 -0.40464
28.8 -0.44497
28.85 -0.48866
28.9 -0.53147
28.95 -0.57487
29 -0.62597
29.05 -0.6806
29.1 -0.73291
29.15 -0.78912
29.2 -0.84612
29.25 -0.8997
29.3 -0.95631
29.35 -1.01198
29.4 -1.06463
29.45 -1.11703
29.5 -1.16794
29.55 -1.2127
29.6 -1.24772
29.65 -1.27951
29.7 -1.30733
29.75 -1.32464
29.8 -1.3331
29.85 -1.33245
29.9 -1.32505
29.95 -1.30807
30 -1.28215
30.05 -1.25322
30.1 -1.21878
30.15 -1.17527
30.2 -1.12628
30.25 -1.06822
30.3 -1.00912
30.35 -0.94198
30.4 -0.87003
30.45 -0.79887
30.5 -0.72061
30.55 -0.64594
30.6 -0.56794
30.65 -0.48978
30.7 -0.41123
30.75 -0.33167
30.8 -0.24569
30.85 -0.16047
30.9 -0.07826
30.95 -0.0008
31 0.07779
31.05 0.15888
31.1 0.23847
31.15 0.31803
31.2 0.39167
31.25 0.45778
31.3 0.51519
31.35 0.56866
31.4 0.62291
31.45 0.67412
31.5 0.71695
31.55 0.75305
31.6 0.79012
31.65 0.82116
31.7 0.85355
31.75 0.8879
31.8 0.91776
31.85 0.94489
31.9 0.96889
31.95 0.98703
32 1.00477
32.05 1.02592
32.1 1.048
32.15 1.06674
32.2 1.07735
32.25 1.08455
32.3 1.0923
32.35 1.10325
32.4 1.11479
32.45 1.11968
32.5 1.11899
32.55 1.11594
32.6 1.11127
32.65 1.10702
32.7 1.10383
32.75 1.1054
32.8 1.10805
32.85 1.10343
32.9 1.09489
32.95 1.0902
33 1.08175
33.05 1.07301
33.1 1.05963
33.15 1.04079
33.2 1.02026
33.25 0.99663
33.3 0.97181
33.35 0.94533
33.4 0.91905
33.45 0.89135
33.5 0.86886
33.55 0.84728
33.6 0.82693
33.65 0.80372
33.7 0.78287
33.75 0.7606
33.8 0.73249
33.85 0.70425
33.9 0.67165
33.95 0.6429
34 0.61033
34.05 0.57783
34.1 0.544
34.15 0.51404
34.2 0.48768
34.25 0.46521
34.3 0.44296
34.35 0.42508
34.4 0.40168
34.45 0.38101
34.5 0.35923
34.55 0.34184
34.6 0.31886
34.65 0.29543
34.7 0.27125
34.75 0.25279
34.8 0.23075
34.85 0.20836
34.9 0.18327
34.95 0.16327
35 0.14695
35.05 0.1297
35.1 0.10869
35.15 0.09082
35.2 0.07199
35.25 0.05269
35.3 0.03769
35.35 0.0232
35.4 0.00793
35.45 -0.00973
35.5 -0.02738
35.55 -0.03742
35.6 -0.04856
35.65 -0.05976
35.7 -0.07229
35.75 -0.08599
35.8 -0.0984
35.85 -0.10374
35.9 -0.10934
35.95 -0.11195
36 -0.1153
36.05 -0.11731
36.1 -0.12301
36.15 -0.12968
36.2 -0.13907
36.25 -0.14536
36.3 -0.15016
36.35 -0.15536
36.4 -0.16377
36.45 -0.1671
36.5 -0.17192
36.55 -0.17642
36.6 -0.18199
36.65 -0.18314
36.7 -0.18469
36.75 -0.18205
36.8 -0.18231
36.85 -0.18265
36.9 -0.18785
36.95 -0.19078
37 -0.19063
37.05 -0.191
37.1 -0.1875
37.15 -0.18326
37.2 -0.17978
37.25 -0.18182
37.3 -0.1817
37.35 -0.18629
37.4 -0.18711
37.45 -0.18805
37.5 -0.19051
37.55 -0.19021
37.6 -0.19002
37.65 -0.19331
37.7 -0.19066
37.75 -0.1888
37.8 -0.18619
37.85 -0.1878
37.9 -0.19208
37.95 -0.18976
38 -0.18406
38.05 -0.17941
38.1 -0.17079
38.15 -0.16174
38.2 -0.15688
38.25 -0.15815
38.3 -0.16213
38.35 -0.1686
38.4 -0.17413
38.45 -0.1768
38.5 -0.17342
38.55 -0.16461
38.6 -0.15957
38.65 -0.15325
38.7 -0.14733
38.75 -0.14327
38.8 -0.1412
38.85 -0.13975
38.9 -0.14075
38.95 -0.14138
39 -0.13959
39.05 -0.13635
39.1 -0.12859
39.15 -0.1236
39.2 -0.12352
39.25 -0.12068
39.3 -0.11402
39.35 -0.11327
39.4 -0.11213
39.45 -0.10842
39.5 -0.10411
39.55 -0.10176
39.6 -0.10204
39.65 -0.10606
39.7 -0.1041
39.75 -0.10198
39.8 -0.10134
39.85 -0.09888
39.9 -0.10054
39.95 -0.10173
40 -0.09906
40.05 -0.09944
40.1 -0.09636
40.15 -0.09125
40.2 -0.08351
40.25 -0.07734
40.3 -0.07606
40.35 -0.07358
40.4 -0.0736
40.45 -0.0702
40.5 -0.06838
40.55 -0.06681
40.6 -0.06682
40.65 -0.0692
40.7 -0.06916
40.75 -0.06756
40.8 -0.06897
40.85 -0.0657
40.9 -0.06221
40.95 -0.06012
41 -0.06032
41.05 -0.05722
41.1 -0.0518
41.15 -0.05391
41.2 -0.05328
41.25 -0.05001
41.3 -0.04821
41.35 -0.0485
41.4 -0.05079
41.45 -0.05492
41.5 -0.06293
41.55 -0.07004
41.6 -0.07039
41.65 -0.0667
41.7 -0.06504
41.75 -0.06196
41.8 -0.05572
41.85 -0.05346
41.9 -0.05141
41.95 -0.04767
42 -0.04865
42.05 -0.05208
42.1 -0.05015
42.15 -0.05125
42.2 -0.05141
42.25 -0.05025
42.3 -0.05014
42.35 -0.0477
42.4 -0.0464
42.45 -0.04632
42.5 -0.04693
42.55 -0.05132
42.6 -0.05408
42.65 -0.05385
42.7 -0.05307
42.75 -0.04856
42.8 -0.04949
42.85 -0.047
42.9 -0.04689
42.95 -0.0477
43 -0.04763
43.05 -0.04725
43.1 -0.04296
43.15 -0.03747
43.2 -0.03028
43.25 -0.02301
43.3 -0.01845
43.35 -0.01331
43.4 -0.01432
43.45 -0.01827
43.5 -0.02557
43.55 -0.02727
43.6 -0.02969
43.65 -0.0271
43.7 -0.03066
43.75 -0.03656
43.8 -0.04366
43.85 -0.04766
43.9 -0.05131
43.95 -0.05058
44 -0.04673
44.05 -0.04207
44.1 -0.0369
44.15 -0.03518
44.2 -0.03267
44.25 -0.02707
44.3 -0.02131
44.35 -0.02047
44.4 -0.02212
44.45 -0.02781
44.5 -0.03485
44.55 -0.04247
44.6 -0.05014
44.65 -0.0547
44.7 -0.05384
44.75 -0.05468
44.8 -0.05282
44.85 -0.05337
44.9 -0.05558
44.95 -0.0586
45 -0.05893
45.05 -0.05616
45.1 -0.04689
45.15 -0.03526
45.2 -0.02906
45.25 -0.02738
45.3 -0.02591
45.35 -0.02457
45.4 -0.01952
45.45 -0.01518
45.5 -0.01222
45.55 -0.01487
45.6 -0.01704
45.65 -0.01783
45.7 -0.02041
45.75 -0.02366
45.8 -0.0254
45.85 -0.02683
45.9 -0.0239
45.95 -0.01813
46 -0.01659
46.05 -0.01202
46.1 -0.01206
46.15 -0.013
46.2 -0.01257
46.25 -0.01617
46.3 -0.01702
46.35 -0.01503
46.4 -0.00987
46.45 -0.00577
46.5 -0.00439
46.55 -0.00321
46.6 -0.00576
46.65 -0.01222
46.7 -0.01529
46.75 -0.01823
46.8 -0.01873
46.85 -0.01466
46.9 -0.01088
46.95 -0.00528
47 -0.00584
47.05 -0.00841
47.1 -0.00612
47.15 -0.00223
47.2 -0.00494
47.25 -0.00273
47.3 -0.00356
47.35 -0.00819
47.4 -0.01286
47.45 -0.01512
47.5 -0.01954
47.55 -0.02516
47.6 -0.02637
47.65 -0.02991
47.7 -0.02652
47.75 -0.02316
47.8 -0.01814
47.85 -0.01464
47.9 -0.01457
47.95 -0.01238
48 -0.00615
48.05 -0.00008
48.1 0.0004
48.15 -0.00195
48.2 -0.00306
48.25 -0.00131
48.3 0.00257
48.35 0.00668
48.4 0.0037
48.45 -0.00087
48.5 -0.00393
48.55 -0.00396
48.6 -0.00522
48.65 -0.00585
48.7 -0.00301
48.75 0.00303
48.8 0.00954
48.85 0.01061
48.9 0.01193
48.95 0.01071
49 0.01011
49.05 0.00477
49.1 -0.00406
49.15 -0.01263
49.2 -0.01403
49.25 -0.01857
49.3 -0.01976
49.35 -0.01561
49.4 -0.00751
49.45 -0.00572
49.5 -0.00025
49.55 -0.00043
49.6 -0.00373
49.65 -0.0055
49.7 -0.00455
49.75 -0.00707
49.8 -0.00819
49.85 -0.00574
49.9 -0.00422
49.95 0.00145
50 0.00486
50.05 0.00839
50.1 0.00776
50.15 0.00172
50.2 -0.00481
50.25 -0.01247
50.3 -0.02096
50.35 -0.02726
50.4 -0.03062
50.45 -0.03121
50.5 -0.0322
50.55 -0.03095
50.6 -0.02629
50.65 -0.01961
50.7 -0.01034
50.75 -0.00601
50.8 -0.00203
50.85 0.0002
50.9 -0.00007
50.95 -0.00437
51 -0.00219
51.05 -0.00506
51.1 -0.00345
51.15 -0.0006
51.2 -0.0022
51.25 -0.00591
51.3 -0.00335
51.35 -0.00283
51.4 -0.00684
51.45 -0.00566
51.5 -0.0046
51.55 0.00002
51.6 0.00468
51.65 0.00329
51.7 0.00157
51.75 0.00445
51.8 0.00522
51.85 0.00536
51.9 0.00568
51.95 0.00408
52 0.0055
52.05 0.00201
52.1 0.00154
52.15 -0.00359
52.2 -0.01053
52.25 -0.01412
52.3 -0.01098
52.35 -0.01002
52.4 -0.01135
52.45 -0.01415
52.5 -0.01719
52.55 -0.01682
52.6 -0.01592
52.65 -0.01575
52.7 -0.01223
52.75 -0.00504
52.8 0.00367
52.85 0.00611
52.9 0.00757
52.95 0.00978
53 0.00821
53.05 0.00921
53.1 0.00627
53.15 0.00352
53.2 -0.00267
53.25 -0.00551
53.3 -0.00597
53.35 -0.00936
53.4 -0.00631
53.45 -0.00441
53.5 0.0008
53.55 0.00778
53.6 0.0124
53.65 0.0111
53.7 0.01412
53.75 0.0124
53.8 0.01053
53.85 0.01091
53.9 0.00895
53.95 0.00554
54 -0.00078
54.05 -0.00269
54.1 -0.00281
54.15 0.00177
54.2 0.0029
54.25 0.00626
54.3 0.00503
54.35 0.00187
54.4 0.00426
54.45 0.01007
54.5 0.01494
54.55 0.0202
54.6 0.02172
54.65 0.01999
54.7 0.01248
54.75 0.00936
54.8 0.0102
54.85 0.01059
54.9 0.01059
54.95 0.01417
55 0.01886
55.05 0.01575
55.1 0.00922
55.15 0.00174
55.2 -0.00143
55.25 -0.00188
55.3 -0.00405
55.35 -0.00985
55.4 -0.0115
55.45 -0.00814
55.5 -0.00789
55.55 -0.00474
55.6 0.00116
55.65 0.00567
55.7 0.00858
55.75 0.01156
55.8 0.00998
55.85 0.01107
55.9 0.01168
55.95 0.01212
56 0.0116
56.05 0.01362
56.1 0.00878
56.15 0.00702
56.2 0.00032
56.25 -0.00428
56.3 -0.01008
56.35 -0.00907
56.4 -0.01236
56.45 -0.01019
56.5 -0.00633
56.55 -0.00417
56.6 -0.00612
56.65 -0.00903
56.7 -0.01314
56.75 -0.01873
56.8 -0.021
56.85 -0.02134
56.9 -0.01959
56.95 -0.02109
57 -0.0164
57.05 -0.01469
57.1 -0.0147
57.15 -0.01045
57.2 -0.003
57.25 0.001
57.3 0.00006
57.35 -0.00004
57.4 0.00153
57.45 -0.00164
57.5 -0.00579
57.55 -0.00336
57.6 -0.00047
57.65 -0.00257
57.7 -0.00142
57.75 0.00327
57.8 0.00483
57.85 0.00954
57.9 0.01578
57.95 0.01457
58 0.00843
58.05 0.00792
58.1 0.00297
58.15 0.00087
58.2 -0.00148
58.25 -0.00375
58.3 -0.00026
58.35 0.00363
58.4 0.00608
58.45 0.00908
58.5 0.00953
58.55 0.00434
58.6 -0.00018
58.65 0.00084
58.7 -0.00125
58.75 -0.00208
58.8 -0.00656
58.85 -0.00857
58.9 -0.01299
58.95 -0.0111
59 -0.00759
59.05 -0.00187
59.1 0.00619
59.15 0.0136
59.2 0.01874
59.25 0.01665
59.3 0.00925
59.35 0.00305
59.4 -0.00598
59.45 -0.01272
59.5 -0.0141
59.55 -0.0171
59.6 -0.01559
59.65 -0.01084
59.7 -0.0065
59.75 -0.00625
59.8 -0.00446
59.85 -0.00011
59.9 -0.00134
59.95 0.00068
60 0.00644
60.05 0.00629
60.1 0.00336
60.15 0.00528
60.2 0.00144
60.25 -0.00586
60.3 -0.01322
60.35 -0.0135
60.4 -0.00911
60.45 -0.00327
60.5 0.00055
60.55 0.0037
60.6 0.00865
60.65 0.00934
60.7 0.01197
60.75 0.01162
60.8 0.01127
60.85 0.00888
60.9 0.01046
60.95 0.0059
61 0.00536
61.05 0.0076
61.1 0.01156
61.15 0.01159
61.2 0.01083
61.25 0.01123
61.3 0.01051
61.35 0.00853
61.4 0.00587
61.45 -0.00042
61.5 -0.00076
61.55 0.00022
61.6 0.00468
61.65 0.00334
61.7 0.00198
61.75 0.00491
61.8 0.00832
61.85 0.01295
61.9 0.01387
61.95 0.01573
62 0.01646
62.05 0.0154
62.1 0.01
62.15 0.00971
62.2 0.0098
62.25 0.01006
62.3 0.00655
62.35 0.00367
62.4 0.00274
62.45 -0.00291
62.5 -0.00321
62.55 -0.00616
62.6 -0.00979
62.65 -0.00748
62.7 -0.00684
62.75 -0.00855
62.8 -0.00641
62.85 -0.0037
62.9 -0.00419
62.95 -0.00684
63 -0.01175
63.05 -0.01471
63.1 -0.01652
63.15 -0.01878
63.2 -0.02168
63.25 -0.02562
63.3 -0.02184
63.35 -0.02069
63.4 -0.01975
63.45 -0.01474
63.5 -0.01298
63.55 -0.01342
63.6 -0.01643
63.65 -0.01261
63.7 -0.00683
63.75 -0.00726
63.8 -0.00536
63.85 -0.00371
63.9 -0.00501
63.95 -0.00693
64 -0.00287
64.05 -0.00389
64.1 -0.00552
64.15 -0.01008
64.2 -0.00928
64.25 -0.00343
64.3 -0.00297
64.35 0.00218
64.4 0.00698
64.45 0.00807
64.5 0.00792
64.55 0.00884
64.6 0.00919
64.65 0.00554
64.7 0.00744
64.75 0.01249
64.8 0.01296
64.85 0.01201
64.9 0.00608
64.95 -0.00252
65 -0.00922
65.05 -0.01748
65.1 -0.02308
65.15 -0.02302
65.2 -0.02357
65.25 -0.01897
65.3 -0.01327
65.35 -0.00409
65.4 0.00098
65.45 0.00399
65.5 0.00882
65.55 0.01126
65.6 0.00769
65.65 0.00766
65.7 0.01076
65.75 0.01535
65.8 0.02102
65.85 0.02286
65.9 0.02651
65.95 0.02805
66 0.02782
66.05 0.02374
66.1 0.02272
66.15 0.01728
66.2 0.01256
66.25 0.00854
66.3 0.00617
66.35 0.00052
66.4 -0.00131
66.45 -0.00269
66.5 -0.00479
66.55 -0.00607
66.6 -0.00217
66.65 0.00111
66.7 0.00653
66.75 0.00749
66.8 0.00418
66.85 0.0035
66.9 0.0014
66.95 0.00389
67 0.00113
67.05 -0.00092
67.1 -0.00689
67.15 -0.00912
67.2 -0.00923
67.25 -0.0118
67.3 -0.01652
67.35 -0.02111
67.4 -0.02332
67.45 -0.02682
67.5 -0.02671
67.55 -0.02772
67.6 -0.02998
67.65 -0.02796
67.7 -0.02585
67.75 -0.02547
67.8 -0.0235
67.85 -0.01751
67.9 -0.01474
67.95 -0.01376
68 -0.0149
68.05 -0.01462
68.1 -0.01328
68.15 -0.00802
68.2 -0.00255
68.25 -0.00259
68.3 0.00165
68.35 0.00384
68.4 0.00622
68.45 0.01031
68.5 0.01157
68.55 0.00721
68.6 0.00115
68.65 -0.00212
68.7 -0.00253
68.75 0.00153
68.8 0.00554
68.85 0.01236
68.9 0.01291
68.95 0.01075
69 0.00418
69.05 -0.00175
69.1 -0.00129
69.15 -0.00512
69.2 -0.00835
69.25 -0.00644
69.3 -0.00931
69.35 -0.01289
69.4 -0.00939
69.45 -0.00547
69.5 -0.0037
69.55 -0.00456
69.6 -0.0033
69.65 -0.00411
69.7 -0.00008
69.75 0.00383
69.8 0.00685
69.85 0.00355
69.9 0.00081
69.95 0.0033
70 0.00244
70.05 0.00164
70.1 0.00423
70.15 0.00579
70.2 0.00608
70.25 0.00639
70.3 0.00764
70.35 0.00354
70.4 -0.00397
70.45 -0.00624
70.5 -0.00521
70.55 -0.00222
70.6 0.00405
70.65 0.0044
70.7 0.00797
70.75 0.01228
70.8 0.0165
70.85 0.02137
70.9 0.02596
70.95 0.02503
71 0.0197
71.05 0.01436
71.1 0.00576
71.15 0.00283
71.2 -0.00343
71.25 -0.01022
71.3 -0.01268
71.35 -0.00957
71.4 -0.00507
71.45 0.0002
71.5 0.00323
71.55 0.00197
71.6 0.00236
71.65 0.00175
71.7 0.00015
71.75 -0.00273
71.8 -0.00086
71.85 0.00169
71.9 0.00541
71.95 0.0057
72 0.0071
72.05 0.00278
72.1 -0.00262
72.15 -0.00406
72.2 -0.00885
72.25 -0.0141
72.3 -0.02019
72.35 -0.02518
72.4 -0.03033
72.45 -0.03235
72.5 -0.03174
72.55 -0.02521
72.6 -0.0235
72.65 -0.01774
72.7 -0.01612
72.75 -0.01358
72.8 -0.00782
72.85 -0.00196
72.9 0.00025
72.95 0.00174
73 0.00467
73.05 0.00807
73.1 0.01239
73.15 0.01157
73.2 0.00751
73.25 0.00906
73.3 0.00585
73.35 0.00635
73.4 0.0062
73.45 0.00651
73.5 0.00172
73.55 -0.00436
73.6 -0.00408
73.65 -0.00527
73.7 -0.00138
73.75 0.00462
73.8 0.00341
73.85 0.00495
73.9 0.00793
73.95 0.00709
74 0.00295
74.05 0.00165
74.1 0.00331
74.15 0.00836
74.2 0.01051
74.25 0.01208
74.3 0.0094
74.35 0.0065
74.4 0.00779
74.45 0.0097
74.5 0.0094
74.55 0.01192
74.6 0.01265
74.65 0.01425
74.7 0.01086
74.75 0.0113
74.8 0.01068
74.85 0.00989
74.9 0.01074
74.95 0.01298
75 0.01498
75.05 0.0145
75.1 0.00869
75.15 0.00548
75.2 -0.002
75.25 -0.00613
75.3 -0.00789
75.35 -0.01316
75.4 -0.01179
75.45 -0.00844
75.5 -0.0068
75.55 -0.00083
75.6 0.00728
75.65 0.00687
75.7 0.00855
75.75 0.005
75.8 0.00488
75.85 0.00213
75.9 0.00345
75.95 0.00734
76 0.01296
76.05 0.01347
76.1 0.00913
76.15 0.00971
76.2 0.01248
76.25 0.01561
76.3 0.02034
76.35 0.02214
76.4 0.02416
76.45 0.02375
76.5 0.02216
76.55 0.0211
76.6 0.01891
76.65 0.01708
76.7 0.01126
76.75 0.00525
76.8 -0.00403
76.85 -0.00997
76.9 -0.01389
76.95 -0.01115
77 -0.00638
77.05 -0.00213
77.1 -0.00419
77.15 -0.00479
77.2 -0.00501
77.25 -0.00102
77.3 0.00194
77.35 -0.0002
77.4 -0.00295
77.45 -0.002
77.5 -0.00541
77.55 -0.00784
77.6 -0.00482
77.65 -0.00495
77.7 -0.00348
77.75 -0.00404
77.8 -0.00751
77.85 -0.00792
77.9 -0.00639
77.95 -0.00899
78 -0.00667
78.05 -0.00603
78.1 -0.00242
78.15 -0.00231
78.2 -0.00084
78.25 -0.00436
78.3 -0.01097
78.35 -0.0107
78.4 -0.01335
78.45 -0.01025
78.5 -0.00955
78.55 -0.01066
78.6 -0.01545
78.65 -0.01604
78.7 -0.016
78.75 -0.0184
78.8 -0.01851
78.85 -0.02187
78.9 -0.024
78.95 -0.02604
79 -0.02816
79.05 -0.02479
79.1 -0.01819
79.15 -0.01477
79.2 -0.00895
79.25 -0.0087
79.3 -0.00555
79.35 -0.00024
79.4 0.00527
79.45 0.00649
79.5 0.01095
79.55 0.01423
79.6 0.01921
79.65 0.02239
79.7 0.02314
79.75 0.0169
79.8 0.01496
79.85 0.01182
79.9 0.0054
79.95 0.00307
80 0.00174
80.05 -0.00189
80.1 -0.00493
80.15 -0.00893
80.2 -0.01478
80.25 -0.01357
80.3 -0.00983
80.35 -0.01089
80.4 -0.00753
80.45 -0.00366
80.5 -0.00442
80.55 -0.0065
80.6 -0.01092
80.65 -0.01446
80.7 -0.01327
80.75 -0.01057
80.8 -0.01045
80.85 -0.01397
80.9 -0.0149
80.95 -0.01143
81 -0.00387
81.05 -0.00256
81.1 0.00176
81.15 0.00129
81.2 -0.00344
81.25 -0.00229
81.3 0.00117
81.35 0.00194
81.4 0.0038
81.45 0.00225
81.5 -0.00146
81.55 -0.0053
81.6 -0.00622
81.65 -0.00674
81.7 -0.01057
81.75 -0.01364
81.8 -0.01313
81.85 -0.01005
81.9 -0.01023
81.95 -0.01133
82 -0.01012
82.05 -0.0105
82.1 -0.01047
82.15 -0.00778
82.2 -0.00973
82.25 -0.00824
82.3 -0.00386
82.35 -0.00145
82.4 -0.00203
82.45 -0.00649
82.5 -0.00783
82.55 -0.00694
82.6 -0.0083
82.65 -0.00796
82.7 -0.00959
82.75 -0.01379
82.8 -0.0142
82.85 -0.01624
82.9 -0.01224
82.95 -0.00393
83 0.00192
83.05 0.00555
83.1 0.00527
83.15 0.00761
83.2 0.00491
83.25 -0.00019
83.3 -0.00596
83.35 -0.00767
83.4 -0.00672
83.45 -0.00412
83.5 -0.00259
83.55 -0.00258
83.6 -0.00535
83.65 -0.00235
83.7 -0.00206
83.75 0.00255
83.8 0.0073
83.85 0.00995
83.9 0.00854
83.95 0.0101
84 0.01011
84.05 0.00519
84.1 -0.00053
84.15 -0.00519
84.2 -0.00735
84.25 -0.01172
84.3 -0.01378
84.35 -0.01021
84.4 -0.01079
84.45 -0.01277
84.5 -0.01636
84.55 -0.0204
84.6 -0.02041
84.65 -0.01404
84.7 -0.01289
84.75 -0.01446
84.8 -0.00988
84.85 -0.00126
84.9 0.00363
84.95 0.0088
85 0.01564
85.05 0.01761
85.1 0.01892
85.15 0.02188
85.2 0.0238
85.25 0.02499
85.3 0.02196
85.35 0.02293
85.4 0.01838
85.45 0.01701
85.5 0.01336
85.55 0.01277
85.6 0.01311
85.65 0.00943
85.7 0.00279
85.75 -0.00048
85.8 -0.00016
85.85 -0.00076
85.9 -0.00181
85.95 -0.00252
86 -0.00559
86.05 -0.00466
86.1 -0.00195
86.15 0.00043
86.2 0.00327
86.25 0.0068
86.3 0.00401
86.35 0.0026
86.4 0.00508
86.45 0.00237
86.5 0.00492
86.55 0.0081
86.6 0.00479
86.65 -0.00148
86.7 -0.00854
86.75 -0.01438
86.8 -0.01546
86.85 -0.01259
86.9 -0.00958
86.95 -0.00643
87 -0.00612
87.05 -0.00941
87.1 -0.01048
87.15 -0.0121
87.2 -0.01436
87.25 -0.00991
87.3 -0.00243
87.35 0.00648
87.4 0.00704
87.45 0.00795
87.5 0.00992
87.55 0.00955
87.6 0.00415
87.65 0.00514
87.7 0.00523
87.75 0.003
87.8 0.00038
87.85 0.00068
87.9 -0.00107
87.95 -0.0033
88 -0.00149
88.05 -0.00327
88.1 -0.00418
88.15 -0.00354
88.2 -0.00701
88.25 -0.00564
88.3 -0.00496
88.35 -0.00069
88.4 0.0062
88.45 0.01018
88.5 0.01343
88.55 0.01601
88.6 0.017
88.65 0.01633
88.7 0.01014
88.75 0.00547
88.8 0.00516
88.85 0.00672
88.9 0.00597
88.95 0.00731
89 0.00549
89.05 0.00837
89.1 0.00507
89.15 0.00174
89.2 0.0011
89.25 -0.00013
89.3 0.0035
89.35 0.00186
89.4 0.00281
89.45 0.00596
89.5 0.01032
89.55 0.01234
89.6 0.01635
89.65 0.01667
89.7 0.01418
89.75 0.01326
89.8 0.00721
89.85 0.001
89.9 0.00062
89.95 0.00311
90 0.00702
90.05 0.00472
90.1 0.00419
90.15 0.00479
90.2 0.00268
90.25 0.00253
90.3 0.00624
90.35 0.00636
90.4 0.00397
90.45 0.0008
90.5 0.0019
90.55 0.00524
90.6 0.00471
90.65 0.00713
90.7 0.00323
90.75 -0.00113
90.8 0.00063
90.85 0.00524
90.9 0.00487
90.95 0.00799
91 0.00944
91.05 0.01354
91.1 0.01919
91.15 0.0166
91.2 0.01197
91.25 0.01233
91.3 0.01486
91.35 0.0165
91.4 0.01546
91.45 0.00848
91.5 0.00332
91.55 0.00292
91.6 0.00134
91.65 0.0033
91.7 0.00253
91.75 -0.00164
91.8 -0.00237
91.85 -0.00538
91.9 -0.01015
91.95 -0.01505
92 -0.02077
92.05 -0.02365
92.1 -0.02293
92.15 -0.02192
92.2 -0.01867
92.25 -0.01282
92.3 -0.01246
92.35 -0.01405
92.4 -0.0128
92.45 -0.0076
92.5 -0.00515
92.55 -0.00353
92.6 -0.00118
92.65 0.00142
92.7 0.00162
92.75 0.00011
92.8 -0.0041
92.85 -0.00634
92.9 -0.0097
92.95 -0.0126
93 -0.01004
93.05 -0.00859
93.1 -0.00898
93.15 -0.00446
93.2 -0.00076
93.25 0.00184
93.3 0.00364
93.35 0.00569
93.4 0.00863
93.45 0.00685
93.5 0.0006
93.55 -0.00584
93.6 -0.00827
93.65 -0.01236
93.7 -0.01256
93.75 -0.01646
93.8 -0.02158
93.85 -0.02032
93.9 -0.01666
93.95 -0.01254
94 -0.01019
94.05 -0.00321
94.1 -0.00212
94.15 -0.00149
94.2 0.00272
94.25 0.00569
94.3 0.01032
94.35 0.01602
94.4 0.01596
94.45 0.01054
94.5 0.00269
94.55 -0.0056
94.6 -0.00573
94.65 -0.00732
94.7 -0.00317
94.75 -0.00474
94.8 -0.0069
94.85 -0.01113
94.9 -0.01656
94.95 -0.0158
95 -0.01304
95.05 -0.01485
95.1 -0.0133
95.15 -0.01407
95.2 -0.00973
95.25 -0.00929
95.3 -0.00399
95.35 -0.00111
95.4 0.00009
95.45 -0.00166
95.5 -0.00118
95.55 0.00348
95.6 0.0066
95.65 0.01144
95.7 0.01563
95.75 0.01898
95.8 0.02201
95.85 0.02337
95.9 0.02358
95.95 0.01696
96 0.01399
96.05 0.00769
96.1 0.00059
96.15 -0.00164
96.2 -0.00772
96.25 -0.00674
96.3 -0.00724
96.35 -0.00632
96.4 -0.00488
96.45 -0.00274
96.5 0.00002
96.55 0.0029
96.6 0.00051
96.65 -0.00326
96.7 -0.00963
96.75 -0.01517
96.8 -0.01688
96.85 -0.01204
96.9 -0.00803
96.95 -0.00268
97 -0.00308
97.05 -0.00353
97.1 -0.00599
97.15 -0.00272
97.2 0.0038
97.25 0.00358
97.3 0.00761
97.35 0.01067
97.4 0.01574
97.45 0.01427
97.5 0.0081
97.55 0.00052
97.6 -0.00155
97.65 -0.00604
97.7 -0.00973
97.75 -0.01016
97.8 -0.00518
97.85 -0.00021
97.9 0.00153
97.95 0.00523
98 0.01152
98.05 0.01256
98.1 0.0077
98.15 0.00368
98.2 0.00345
98.25 0.00365
98.3 0.00126
98.35 0.00258
98.4 0.00097
98.45 -0.00326
98.5 -0.00973
98.55 -0.00891
98.6 -0.00835
98.65 -0.01128
98.7 -0.01031
98.75 -0.01185
98.8 -0.00897
98.85 -0.0056
98.9 -0.00117
98.95 -0.00259
99 -0.00567
99.05 -0.00974
99.1 -0.01406
99.15 -0.01627
99.2 -0.02049
99.25 -0.01784
99.3 -0.01532
99.35 -0.01392
99.4 -0.01049
99.45 -0.00784
99.5 -0.00141
99.55 0.00255
99.6 0.00111
99.65 -0.00374
99.7 -0.00492
99.75 -0.00604
99.8 -0.00487
99.85 -0.0034
99.9 -0.00015
99.95 0.00097
