0 0
0.05 0.00012
0.1 0.00233
0.15 0.01257
0.2 0.01797
0.25 0.02065
0.3 0.02322
0.35 0.03203
0.4 0.03874
0.45 0.04299
0.5 0.04927
0.55 0.0551
0.6 0.06128
0.65 0.06216
0.7 0.06059
0.75 0.06299
0.8 0.06357
0.85 0.06327
0.9 0.06049
0.95 0.05415
1 0.04552
1.05 0.04393
1.1 0.04639
1.15 0.04298
1.2 0.03609
1.25 0.0347
1.3 0.03694
1.35 0.03451
1.4 0.0298
1.45 0.02769
1.5 0.03107
1.55 0.03502
1.6 0.03993
1.65 0.04625
1.7 0.04741
1.75 0.0497
1.8 0.04655
1.85 0.03895
1.9 0.02946
1.95 0.02623
2 0.02541
2.05 0.02364
2.1 0.01992
2.15 0.01449
2.2 0.01436
2.25 0.02012
2.3 0.02499
2.35 0.03108
2.4 0.03731
2.45 0.03683
2.5 0.03818
2.55 0.03459
2.6 0.03038
2.65 0.02307
2.7 0.01622
2.75 0.01565
2.8 0.0117
2.85 0.00997
2.9 0.0134
2.95 0.01502
3 0.0139
3.05 0.01419
3.1 0.01334
3.15 0.01132
3.2 0.01568
3.25 0.01555
3.3 0.01839
3.35 0.02089
3.4 0.02647
3.45 0.02916
3.5 0.03002
3.55 0.02997
3.6 0.03111
3.65 0.02721
3.7 0.02558
3.75 0.0229
3.8 0.02078
3.85 0.02225
3.9 0.02148
3.95 0.01606
4 0.01049
4.05 0.00858
4.1 0.00753
4.15 0.00485
4.2 0.00019
4.25 -0.00052
4.3 0.00187
4.35 0.00329
4.4 0.00558
4.45 0.00412
4.5 0.00121
4.55 -0.0099
4.6 -0.02024
4.65 -0.03843
4.7 -0.05505
4.75 -0.07124
4.8 -0.08942
4.85 -0.11065
4.9 -0.14121
4.95 -0.17899
5 -0.21863
5.05 -0.26323
5.1 -0.31921
5.15 -0.37889
5.2 -0.44348
5.25 -0.51569
5.3 -0.59362
5.35 -0.67202
5.4 -0.7522
5.45 -0.83774
5.5 -0.93196
5.55 -1.02955
5.6 -1.13195
5.65 -1.23763
5.7 -1.33813
5.75 -1.43585
5.8 -1.5356
5.85 -1.62949
5.9 -1.7204
5.95 -1.8038
6 -1.8892
6.05 -1.97276
6.1 -2.05532
6.15 -2.12919
6.2 -2.19395
6.25 -2.25099
6.3 -2.30439
6.35 -2.35744
6.4 -2.40078
6.45 -2.43951
6.5 -2.47594
6.55 -2.49804
6.6 -2.51031
6.65 -2.51687
6.7 -2.51131
6.75 -2.4884
6.8 -2.45416
6.85 -2.40135
6.9 -2.3372
6.95 -2.25848
7 -2.1628
7.05 -2.04455
7.1 -1.90635
7.15 -1.75883
7.2 -1.60096
7.25 -1.43295
7.3 -1.25364
7.35 -1.05931
7.4 -0.85661
7.45 -0.65348
7.5 -0.4486
7.55 -0.23735
7.6 -0.02735
7.65 0.18188
7.7 0.3833
7.75 0.57618
7.8 0.75855
7.85 0.92779
7.9 1.09136
7.95 1.2467
8 1.3886
8.05 1.51415
8.1 1.63102
8.15 1.73573
8.2 1.82993
8.25 1.90997
8.3 1.98074
8.35 2.03808
8.4 2.08537
8.45 2.12946
8.5 2.16608
8.55 2.19599
8.6 2.21882
8.65 2.23095
8.7 2.23382
8.75 2.23376
8.8 2.23015
8.85 2.2268
8.9 2.22238
8.95 2.21478
9 2.20093
9.05 2.19146
9.1 2.17676
9.15 2.16406
9.2 2.14832
9.25 2.13205
9.3 2.11256
9.35 2.09243
9.4 2.07323
9.45 2.04942
9.5 2.02714
9.55 1.99789
9.6 1.96588
9.65 1.93251
9.7 1.89681
9.75 1.86095
9.8 1.83098
9.85 1.80309
9.9 1.77523
9.95 1.74423
10 1.70983
10.05 1.6684
10.1 1.62912
10.15 1.58779
10.2 1.54463
10.25 1.50545
10.3 1.46698
10.35 1.42199
10.4 1.37904
10.45 1.3368
10.5 1.29326
10.55 1.24567
10.6 1.19478
10.65 1.14867
10.7 1.1018
10.75 1.05804
10.8 1.01485
10.85 0.96755
10.9 0.91847
10.95 0.86723
11 0.81939
11.05 0.77231
11.1 0.72326
11.15 0.6721
11.2 0.62673
11.25 0.58136
11.3 0.53515
11.35 0.495
11.4 0.45847
11.45 0.42226
11.5 0.38495
11.55 0.34209
11.6 0.29712
11.65 0.25951
11.7 0.22647
11.75 0.19748
11.8 0.16399
11.85 0.13243
11.9 0.10513
11.95 0.07937
12 0.05442
12.05 0.02525
12.1 -0.00821
12.15 -0.04107
12.2 -0.06899
12.25 -0.09234
12.3 -0.11267
12.35 -0.13221
12.4 -0.15476
12.45 -0.17322
12.5 -0.194
12.55 -0.217
12.6 -0.23663
12.65 -0.25561
12.7 -0.27039
12.75 -0.28634
12.8 -0.29572
12.85 -0.30374
12.9 -0.3154
12.95 -0.32632
13 -0.33678
13.05 -0.34154
13.1 -0.34363
13.15 -0.34956
13.2 -0.35449
13.25 -0.36104
13.3 -0.36514
13.35 -0.36378
13.4 -0.3629
13.45 -0.36312
13.5 -0.36053
13.55 -0.35698
13.6 -0.35953
13.65 -0.3607
13.7 -0.36672
13.75 -0.37452
13.8 -0.37822
13.85 -0.38256
13.9 -0.38807
13.95 -0.38957
14 -0.38568
14.05 -0.37794
14.1 -0.36818
14.15 -0.36508
14.2 -0.36042
14.25 -0.35315
14.3 -0.34975
14.35 -0.34641
14.4 -0.34415
14.45 -0.34325
14.5 -0.33823
14.55 -0.33028
14.6 -0.32617
14.65 -0.32723
14.7 -0.33065
14.75 -0.32859
14.8 -0.32975
14.85 -0.33012
14.9 -0.32433
14.95 -0.31849
15 -0.31173
15.05 -0.30691
15.1 -0.30475
15.15 -0.2979
15.2 -0.29087
15.25 -0.28068
15.3 -0.27016
15.35 -0.26214
15.4 -0.25307
15.45 -0.24563
15.5 -0.2421
15.55 -0.24121
15.6 -0.2424
15.65 -0.24277
15.7 -0.24711
15.75 -0.25134
15.8 -0.25704
15.85 -0.25463
15.9 -0.25137
15.95 -0.25096
16 -0.24884
16.05 -0.24305
16.1 -0.23257
16.15 -0.22389
16.2 -0.21681
16.25 -0.21158
16.3 -0.20322
16.35 -0.19952
16.4 -0.19762
16.45 -0.1964
16.5 -0.19338
16.55 -0.19141
16.6 -0.18589
16.65 -0.17808
16.7 -0.17505
16.75 -0.17719
16.8 -0.1781
16.85 -0.17691
16.9 -0.17581
16.95 -0.16937
17 -0.16424
17.05 -0.16131
17.1 -0.16049
17.15 -0.15603
17.2 -0.15654
17.25 -0.15469
17.3 -0.15678
17.35 -0.15635
17.4 -0.15341
17.45 -0.15048
17.5 -0.14688
17.55 -0.14037
17.6 -0.13672
17.65 -0.13785
17.7 -0.13567
17.75 -0.13558
17.8 -0.13652
17.85 -0.13166
17.9 -0.12786
17.95 -0.12194
18 -0.1221
18.05 -0.12255
18.1 -0.12223
18.15 -0.1204
18.2 -0.11513
18.25 -0.11369
18.3 -0.11361
18.35 -0.11561
18.4 -0.11418
18.45 -0.11608
18.5 -0.1121
18.55 -0.10532
18.6 -0.09615
18.65 -0.09179
18.7 -0.093
18.75 -0.09615
18.8 -0.09457
18.85 -0.08865
18.9 -0.08623
18.95 -0.08508
19 -0.08702
19.05 -0.08761
19.1 -0.08656
19.15 -0.08324
19.2 -0.08128
19.25 -0.0844
19.3 -0.0841
19.35 -0.08563
19.4 -0.08453
19.45 -0.08392
19.5 -0.08682
19.55 -0.08872
19.6 -0.09029
19.65 -0.09068
19.7 -0.08686
19.75 -0.08081
19.8 -0.07732
19.85 -0.07463
19.9 -0.07041
19.95 -0.06806
20 -0.06424
20.05 -0.0626
20.1 -0.05977
20.15 -0.05604
20.2 -0.0578
20.25 -0.06324
20.3 -0.06649
20.35 -0.07003
20.4 -0.06985
20.45 -0.06589
20.5 -0.06648
20.55 -0.06485
20.6 -0.05935
20.65 -0.0591
20.7 -0.05775
20.75 -0.05833
20.8 -0.05358
20.85 -0.04569
20.9 -0.04259
20.95 -0.03916
21 -0.04035
21.05 -0.04188
21.1 -0.0474
21.15 -0.05055
21.2 -0.05344
21.25 -0.05097
21.3 -0.04552
21.35 -0.03807
21.4 -0.03672
21.45 -0.03551
21.5 -0.03083
21.55 -0.02674
21.6 -0.02869
21.65 -0.02749
21.7 -0.03177
21.75 -0.035
21.8 -0.03942
21.85 -0.04469
21.9 -0.04898
21.95 -0.05178
22 -0.05394
22.05 -0.05518
22.1 -0.04984
22.15 -0.0423
22.2 -0.03563
22.25 -0.02925
22.3 -0.02577
22.35 -0.01942
22.4 -0.01747
22.45 -0.01344
22.5 -0.01468
22.55 -0.01265
22.6 -0.01685
22.65 -0.02425
22.7 -0.03135
22.75 -0.03479
22.8 -0.0369
22.85 -0.03318
22.9 -0.02776
22.95 -0.02822
23 -0.03088
23.05 -0.02947
23.1 -0.03249
23.15 -0.03708
23.2 -0.04158
23.25 -0.04513
23.3 -0.0486
23.35 -0.04592
23.4 -0.04147
23.45 -0.03452
23.5 -0.02734
23.55 -0.02016
23.6 -0.01521
23.65 -0.00816
23.7 -0.00254
23.75 -0.00147
23.8 -0.0066
23.85 -0.01085
23.9 -0.01025
23.95 -0.01285
24 -0.01287
24.05 -0.01756
24.1 -0.01725
24.15 -0.01723
24.2 -0.01536
24.25 -0.01683
24.3 -0.01516
24.35 -0.01639
24.4 -0.01519
24.45 -0.01028
24.5 -0.00357
24.55 0.00439
24.6 0.00988
24.65 0.01459
24.7 0.01848
24.75 0.01398
24.8 0.01201
24.85 0.00585
24.9 -0.00395
24.95 -0.01068
25 -0.01596
25.05 -0.02327
25.1 -0.02295
25.15 -0.02515
25.2 -0.02986
25.25 -0.03492
25.3 -0.03869
25.35 -0.03795
25.4 -0.03904
25.45 -0.04094
25.5 -0.03875
25.55 -0.03937
25.6 -0.04127
25.65 -0.03723
25.7 -0.02798
25.75 -0.02254
25.8 -0.02096
25.85 -0.01814
25.9 -0.01493
25.95 -0.01502
26 -0.01112
26.05 -0.0119
26.1 -0.01498
26.15 -0.01714
26.2 -0.01562
26.25 -0.01028
26.3 -0.00418
26.35 0.00064
26.4 0.00569
26.45 0.01059
26.5 0.00835
26.55 0.00213
26.6 -0.00343
26.65 -0.00718
26.7 -0.00868
26.75 -0.00781
26.8 -0.01108
26.85 -0.00886
26.9 -0.00832
26.95 -0.00846
27 -0.00973
27.05 -0.01413
27.1 -0.02068
27.15 -0.02717
27.2 -0.03103
27.25 -0.02665
27.3 -0.01904
27.35 -0.01485
27.4 -0.0109
27.45 -0.0048
27.5 0.00202
27.55 0.00149
27.6 -0.00105
27.65 -0.00104
27.7 -0.00534
27.75 -0.01069
27.8 -0.01106
27.85 -0.0138
27.9 -0.01257
27.95 -0.01051
28 -0.0059
28.05 -0.005
28.1 -0.00528
28.15 -0.00742
28.2 -0.01117
28.25 -0.01638
28.3 -0.01749
28.35 -0.01403
28.4 -0.01501
28.45 -0.01378
28.5 -0.00923
28.55 -0.00632
28.6 -0.00725
28.65 -0.00978
28.7 -0.00936
28.75 -0.00934
28.8 -0.01157
28.85 -0.01267
28.9 -0.01462
28.95 -0.01692
29 -0.01675
29.05 -0.01138
29.1 -0.00961
29.15 -0.00779
29.2 -0.00594
29.25 -0.00683
29.3 -0.0077
29.35 -0.01028
29.4 -0.00659
29.45 -0.00488
29.5 -0.00561
29.55 -0.00882
29.6 -0.00956
29.65 -0.01153
29.7 -0.00802
29.75 -0.00328
29.8 -0.00428
29.85 -0.00275
29.9 0.00108
29.95 0.00466
30 0.00734
30.05 0.00864
30.1 0.00566
30.15 -0.00013
30.2 -0.00448
30.25 -0.00471
30.3 -0.00721
30.35 -0.00675
30.4 -0.00612
30.45 -0.00558
30.5 -0.00706
30.55 -0.00516
30.6 -0.00391
30.65 -0.00031
30.7 0.00361
30.75 0.00994
30.8 0.01324
30.85 0.01888
30.9 0.01698
30.95 0.0187
31 0.01593
31.05 0.00874
31.1 0.0008
31.15 -0.00387
31.2 -0.00718
31.25 -0.01258
31.3 -0.01659
31.35 -0.0162
31.4 -0.01793
31.45 -0.01335
31.5 -0.00658
31.55 0.00034
31.6 0.00617
31.65 0.00864
31.7 0.01018
31.75 0.00921
31.8 0.00712
31.85 0.00949
31.9 0.00815
31.95 0.00494
32 0.00402
32.05 -0.00133
32.1 -0.00337
32.15 -0.00463
32.2 -0.00525
32.25 -0.00883
32.3 -0.0139
32.35 -0.01946
32.4 -0.01737
32.45 -0.01907
32.5 -0.02185
32.55 -0.01738
32.6 -0.00955
32.65 -0.00439
32.7 -0.00346
32.75 -0.00335
32.8 -0.00017
32.85 0.00222
32.9 0.00548
32.95 0.00373
33 0.00496
33.05 0.00334
33.1 0.00676
33.15 0.01068
33.2 0.01047
33.25 0.01279
33.3 0.01212
33.35 0.00962
33.4 0.00374
33.45 -0.00366
33.5 -0.00981
33.55 -0.00921
33.6 -0.00497
33.65 -0.00562
33.7 -0.00792
33.75 -0.00343
33.8 -0.0037
33.85 -0.00085
33.9 0.00439
33.95 0.00385
34 0.00777
34.05 0.01366
34.1 0.02151
34.15 0.02856
34.2 0.02724
34.25 0.02064
34.3 0.01733
34.35 0.01313
34.4 0.00647
34.45 0.00049
34.5 -0.00133
34.55 -0.00203
34.6 0.00175
34.65 0.00008
34.7 0.00142
34.75 0.00304
34.8 0.00711
34.85 0.00898
34.9 0.01109
34.95 0.00819
35 0.0107
35.05 0.00955
35.1 0.00444
35.15 0.00328
35.2 -0.00127
35.25 -0.00366
35.3 -0.00409
35.35 -0.0066
35.4 -0.00788
35.45 -0.00721
35.5 -0.00715
35.55 -0.00944
35.6 -0.01008
35.65 -0.00466
35.7 0.00376
35.75 0.00504
35.8 0.002
35.85 -0.00224
35.9 -0.00829
35.95 -0.01275
36 -0.01018
36.05 -0.00736
36.1 -0.00359
36.15 -0.00149
36.2 0.00291
36.25 0.01014
36.3 0.01576
36.35 0.01828
36.4 0.01639
36.45 0.0127
36.5 0.01273
36.55 0.00878
36.6 0.00457
36.65 0.00359
36.7 0.00593
36.75 0.0067
36.8 0.00849
36.85 0.00949
36.9 0.00519
36.95 0.00253
37 0.00324
37.05 0.00455
37.1 0.00808
37.15 0.01295
37.2 0.01149
37.25 0.00876
37.3 0.00307
37.35 0.00223
37.4 0.0021
37.45 0.00106
37.5 -0.00101
37.55 -0.00109
37.6 -0.00037
37.65 0.00291
37.7 0.00683
37.75 0.00748
37.8 0.00805
37.85 0.00661
37.9 0.00184
37.95 -0.00274
38 -0.00576
38.05 -0.01049
38.1 -0.01663
38.15 -0.01466
38.2 -0.00907
38.25 -0.00212
38.3 0.00107
38.35 0.00212
38.4 -0.002
38.45 -0.00593
38.5 -0.00991
38.55 -0.01177
38.6 -0.01365
38.65 -0.01101
38.7 -0.01005
38.75 -0.01061
38.8 -0.00725
38.85 -0.00612
38.9 -0.00515
38.95 -0.00706
39 -0.00438
39.05 0.00136
39.1 0.00495
39.15 0.00771
39.2 0.00793
39.25 0.00366
39.3 -0.00139
39.35 -0.00392
39.4 -0.00058
39.45 0.0015
39.5 0.00175
39.55 0.00216
39.6 0.00153
39.65 -0.00159
39.7 -0.00248
39.75 -0.00261
39.8 -0.0028
39.85 -0.00548
39.9 -0.0034
39.95 0.00093
40 0.00295
40.05 0.00115
40.1 -0.00363
40.15 -0.0038
40.2 -0.00137
40.25 0.00384
40.3 0.00391
40.35 0.00006
40.4 0.00037
40.45 -0.00205
40.5 -0.00006
40.55 -0.00078
40.6 0.0019
40.65 0.00492
40.7 0.00924
40.75 0.00884
40.8 0.00438
40.85 -0.00096
40.9 -0.00684
40.95 -0.01428
41 -0.01936
41.05 -0.02304
41.1 -0.02388
41.15 -0.01955
41.2 -0.01917
41.25 -0.01758
41.3 -0.01103
41.35 -0.00735
41.4 -0.00718
41.45 -0.00563
41.5 -0.00743
41.55 -0.01058
41.6 -0.01217
41.65 -0.01536
41.7 -0.01255
41.75 -0.0104
41.8 -0.00446
41.85 -0.00412
41.9 -0.00409
41.95 -0.00001
42 -0.00011
42.05 -0.00297
42.1 -0.00046
42.15 -0.0018
42.2 0.0017
42.25 0.00605
42.3 0.00981
42.35 0.01057
42.4 0.01085
42.45 0.00949
42.5 0.00476
42.55 -0.0009
42.6 -0.00028
42.65 0.00036
42.7 -0.0022
42.75 -0.00762
42.8 -0.01254
42.85 -0.01694
42.9 -0.01416
42.95 -0.00814
43 -0.00378
43.05 -0.00183
43.1 0.00315
43.15 0.00347
43.2 0.00669
43.25 0.00938
43.3 0.01369
43.35 0.01671
43.4 0.01899
43.45 0.01901
43.5 0.01566
43.55 0.01112
43.6 0.00663
43.65 0.00183
43.7 -0.0001
43.75 -0.00191
43.8 -0.00438
43.85 -0.00592
43.9 -0.00745
43.95 -0.00448
44 -0.00297
44.05 -0.00557
44.1 -0.00854
44.15 -0.0089
44.2 -0.00706
44.25 -0.00087
44.3 0.00297
44.35 0.00446
44.4 0.0096
44.45 0.01169
44.5 0.0097
44.55 0.00902
44.6 0.00421
44.65 0.00368
44.7 0.00008
44.75 -0.00442
44.8 -0.00834
44.85 -0.01051
44.9 -0.01469
44.95 -0.01793
45 -0.01977
45.05 -0.02174
45.1 -0.02312
45.15 -0.02293
45.2 -0.02403
45.25 -0.01984
45.3 -0.01552
45.35 -0.01088
45.4 -0.00664
45.45 -0.00455
45.5 -0.00149
45.55 0.00546
45.6 0.01022
45.65 0.01673
45.7 0.02399
45.75 0.02603
45.8 0.02665
45.85 0.02921
45.9 0.03203
45.95 0.03197
46 0.03238
46.05 0.02604
46.1 0.02422
46.15 0.02173
46.2 0.01742
46.25 0.01176
46.3 0.00689
46.35 0.00639
46.4 0.00354
46.45 -0.00227
46.5 -0.00751
46.55 -0.01199
46.6 -0.01083
46.65 -0.01171
46.7 -0.01508
46.75 -0.01447
46.8 -0.01488
46.85 -0.01397
46.9 -0.01072
46.95 -0.01203
47 -0.00771
47.05 -0.0006
47.1 0.00483
47.15 0.0081
47.2 0.00813
47.25 0.0083
47.3 0.00393
47.35 -0.00164
47.4 -0.00459
47.45 -0.01015
47.5 -0.01531
47.55 -0.01827
47.6 -0.01685
47.65 -0.01254
47.7 -0.00781
47.75 -0.00494
47.8 -0.00222
47.85 -0.0035
47.9 -0.00356
47.95 0.00048
48 0.00542
48.05 0.00476
48.1 0.00096
48.15 -0.00068
48.2 -0.0019
48.25 0.00179
48.3 0.00154
48.35 -0.00231
48.4 -0.00494
48.45 -0.00452
48.5 -0.00176
48.55 -0.00195
48.6 -0.00519
48.65 -0.00324
48.7 0.00236
48.75 0.00553
48.8 0.00559
48.85 0.00696
48.9 0.00396
48.95 -0.00238
49 -0.00464
49.05 -0.00885
49.1 -0.00846
49.15 -0.00587
49.2 -0.00167
49.25 0.00151
49.3 0.00003
49.35 -0.00362
49.4 -0.00869
49.45 -0.00746
49.5 -0.00314
49.55 -0.00124
49.6 0.00201
49.65 0.00727
49.7 0.01169
49.75 0.01742
49.8 0.02343
49.85 0.02785
49.9 0.02779
49.95 0.02273
50 0.01685
50.05 0.00947
50.1 0.00163
50.15 -0.00683
50.2 -0.00854
50.25 -0.00737
50.3 -0.00562
50.35 -0.00429
50.4 -0.00699
50.45 -0.01034
50.5 -0.01481
50.55 -0.02022
50.6 -0.0215
50.65 -0.01933
50.7 -0.01876
50.75 -0.0188
50.8 -0.01658
50.85 -0.0141
50.9 -0.01093
50.95 -0.00528
51 -0.00349
51.05 0.0016
51.1 0.00918
51.15 0.01063
51.2 0.01187
51.25 0.01091
51.3 0.01416
51.35 0.0144
51.4 0.01194
51.45 0.01387
51.5 0.01617
51.55 0.01915
51.6 0.01544
51.65 0.01415
51.7 0.01681
51.75 0.0156
51.8 0.01415
51.85 0.00801
51.9 0.00687
51.95 0.00384
52 0.00088
52.05 -0.00257
52.1 -0.00762
52.15 -0.00819
52.2 -0.00462
52.25 0.00196
52.3 0.00737
52.35 0.01002
52.4 0.01387
52.45 0.01538
52.5 0.01404
52.55 0.01182
52.6 0.00719
52.65 0.00203
52.7 0.00134
52.75 0.00023
52.8 -0.00291
52.85 -0.00086
52.9 -0.00018
52.95 -0.00415
53 -0.0028
53.05 0.00147
53.1 0.00359
53.15 0.00912
53.2 0.01089
53.25 0.00813
53.3 0.00238
53.35 -0.00048
53.4 -0.00367
53.45 -0.00881
53.5 -0.01323
53.55 -0.01344
53.6 -0.00966
53.65 -0.00371
53.7 0.00304
53.75 0.00834
53.8 0.00982
53.85 0.00816
53.9 0.00983
53.95 0.01043
54 0.0127
54.05 0.01433
54.1 0.01765
54.15 0.01509
54.2 0.01271
54.25 0.00538
54.3 -0.00204
54.35 -0.00513
54.4 -0.00528
54.45 -0.00944
54.5 -0.01025
54.55 -0.01169
54.6 -0.01318
54.65 -0.0167
54.7 -0.01546
54.75 -0.01456
54.8 -0.0084
54.85 -0.00378
54.9 0.00278
54.95 0.00624
55 0.01007
55.05 0.01137
55.1 0.01492
55.15 0.0124
55.2 0.01389
55.25 0.01306
55.3 0.00728
55.35 0.00108
55.4 -0.00431
55.45 -0.00436
55.5 -0.00277
55.55 -0.00145
55.6 -0.00144
55.65 -0.00237
55.7 0.00046
55.75 0.00126
55.8 0.00569
55.85 0.01176
55.9 0.01694
55.95 0.01936
56 0.01895
56.05 0.01751
56.1 0.01059
56.15 0.00534
56.2 -0.00283
56.25 -0.0082
56.3 -0.01547
56.35 -0.01897
56.4 -0.0208
56.45 -0.02495
56.5 -0.02976
56.55 -0.02667
56.6 -0.01805
56.65 -0.01034
56.7 -0.00608
56.75 -0.00298
56.8 0.0017
56.85 0.00327
56.9 0.00442
56.95 0.00537
57 0.00139
57.05 -0.00035
57.1 0.00235
57.15 0.00249
57.2 0.00146
57.25 -0.00164
57.3 -0.00529
57.35 -0.01183
57.4 -0.01467
57.45 -0.01527
57.5 -0.01182
57.55 -0.00474
57.6 -0.00052
57.65 0.00245
57.7 0.00578
57.75 0.0108
57.8 0.00939
57.85 0.0083
57.9 0.00335
57.95 0.00037
58 -0.00448
58.05 -0.01018
58.1 -0.0133
58.15 -0.01232
58.2 -0.00941
58.25 -0.00562
58.3 -0.00638
58.35 -0.00851
58.4 -0.00917
58.45 -0.00839
58.5 -0.00509
58.55 -0.00117
58.6 0.00163
58.65 0.00128
58.7 -0.00108
58.75 -0.00498
58.8 -0.00337
58.85 0.00239
58.9 0.00157
58.95 0.00288
59 0.00756
59.05 0.01324
59.1 0.01713
59.15 0.01949
59.2 0.01564
59.25 0.0102
59.3 0.00233
59.35 -0.00665
59.4 -0.00909
59.45 -0.01424
59.5 -0.01963
59.55 -0.023
59.6 -0.01923
59.65 -0.01313
59.7 -0.00418
59.75 0.0031
59.8 0.00472
59.85 0.00362
59.9 0.00665
59.95 0.0073
60 0.00341
60.05 0.00227
60.1 0.00176
60.15 -0.00075
60.2 -0.00056
60.25 0.0029
60.3 0.00754
60.35 0.00619
60.4 0.00912
60.45 0.00815
60.5 0.00729
60.55 0.00371
60.6 0.00189
60.65 -0.00066
60.7 -0.00047
60.75 -0.00243
60.8 -0.00802
60.85 -0.01344
60.9 -0.01399
60.95 -0.01511
61 -0.01653
61.05 -0.01189
61.1 -0.0119
61.15 -0.01132
61.2 -0.00967
61.25 -0.0045
61.3 0.00325
61.35 0.00472
61.4 0.00249
61.45 -0.00254
61.5 -0.00524
61.55 -0.00686
61.6 -0.00302
61.65 -0.00216
61.7 -0.00291
61.75 -0.00625
61.8 -0.00609
61.85 -0.0041
61.9 0.00201
61.95 0.00694
62 0.01202
62.05 0.01659
62.1 0.01602
62.15 0.01456
62.2 0.01136
62.25 0.00838
62.3 0.0058
62.35 0.00443
62.4 0.00657
62.45 0.00392
62.5 0.00637
62.55 0.01131
62.6 0.01393
62.65 0.0136
62.7 0.01017
62.75 0.01001
62.8 0.01235
62.85 0.01547
62.9 0.0153
62.95 0.01141
63 0.00657
63.05 0.00527
63.1 0.0038
63.15 0.00352
63.2 0.00491
63.25 0.00175
63.3 0.00288
63.35 0.00405
63.4 0.00307
63.45 0.00208
63.5 -0.00299
63.55 -0.00964
63.6 -0.01214
63.65 -0.00846
63.7 -0.00178
63.75 -0.001
63.8 -0.00011
63.85 0.00348
63.9 0.00539
63.95 0.00549
64 0.00095
64.05 -0.00238
64.1 -0.00386
64.15 -0.00777
64.2 -0.00918
64.25 -0.00958
64.3 -0.00924
64.35 -0.01013
64.4 -0.00899
64.45 -0.00629
64.5 -0.0012
64.55 0.00248
64.6 0.00171
64.65 0.00415
64.7 0.00611
64.75 0.00664
64.8 0.00644
64.85 0.00729
64.9 0.0097
64.95 0.01019
65 0.00666
65.05 0.00323
65.1 0.00086
65.15 -0.00537
65.2 -0.00855
65.25 -0.01444
65.3 -0.02004
65.35 -0.02577
65.4 -0.02471
65.45 -0.02215
65.5 -0.01533
65.55 -0.01393
65.6 -0.01145
65.65 -0.00859
65.7 -0.00157
65.75 0.00207
65.8 0.00626
65.85 0.00605
65.9 0.0089
65.95 0.01236
66 0.0117
66.05 0.00857
66.1 0.00426
66.15 0.00311
66.2 0.0037
66.25 0.0064
66.3 0.0039
66.35 0.00361
66.4 0.00122
66.45 -0.00448
66.5 -0.01157
66.55 -0.01554
66.6 -0.01965
66.65 -0.02284
66.7 -0.01984
66.75 -0.01762
66.8 -0.01024
66.85 -0.00909
66.9 -0.00587
66.95 -0.00014
67 0.00435
67.05 0.00727
67.1 0.00811
67.15 0.00545
67.2 0.00539
67.25 0.00793
67.3 0.0133
67.35 0.01163
67.4 0.00994
67.45 0.00546
67.5 0.00163
67.55 -0.00426
67.6 -0.00543
67.65 -0.00208
67.7 0.0001
67.75 -0.00319
67.8 -0.00737
67.85 -0.01316
67.9 -0.01474
67.95 -0.01072
68 -0.00677
68.05 -0.00692
68.1 -0.00996
68.15 -0.01317
68.2 -0.01562
68.25 -0.01489
68.3 -0.0134
68.35 -0.00982
68.4 -0.00481
68.45 -0.00461
68.5 -0.00791
68.55 -0.00978
68.6 -0.00618
68.65 0.00105
68.7 0.00323
68.75 0.00095
68.8 0.00258
68.85 0.00689
68.9 0.01347
68.95 0.01863
69 0.02113
69.05 0.0164
69.1 0.01397
69.15 0.00708
69.2 0.00214
69.25 -0.00447
69.3 -0.00404
69.35 -0.00647
69.4 -0.0113
69.45 -0.01143
69.5 -0.00725
69.55 -0.00645
69.6 -0.00866
69.65 -0.00598
69.7 -0.00322
69.75 -0.00082
69.8 -0.00329
69.85 -0.00728
69.9 -0.01225
69.95 -0.00971
70 -0.01139
70.05 -0.01003
70.1 -0.00809
70.15 -0.00971
70.2 -0.01409
70.25 -0.01428
70.3 -0.00985
70.35 -0.00982
70.4 -0.0095
70.45 -0.01168
70.5 -0.00933
70.55 -0.00905
70.6 -0.0067
70.65 -0.00798
70.7 -0.00769
70.75 -0.00782
70.8 -0.00392
70.85 -0.00289
70.9 -0.00134
70.95 0.00077
71 0.00313
71.05 0.00707
71.1 0.00495
71.15 0.0043
71.2 0.00386
71.25 0.00606
71.3 0.01052
71.35 0.01394
71.4 0.01152
71.45 0.00845
71.5 0.00553
71.55 0.00189
71.6 -0.00096
71.65 -0.00263
71.7 -0.00512
71.75 -0.00208
71.8 0.00175
71.85 0.00567
71.9 0.00676
71.95 0.01039
72 0.00895
72.05 0.0057
72.1 0.00443
72.15 0.00403
72.2 0.00027
72.25 -0.00519
72.3 -0.01021
72.35 -0.01439
72.4 -0.01364
72.45 -0.01607
72.5 -0.01591
72.55 -0.01383
72.6 -0.01456
72.65 -0.01363
72.7 -0.01438
72.75 -0.01266
72.8 -0.0144
72.85 -0.01828
72.9 -0.01579
72.95 -0.00901
73 -0.00275
73.05 0.00594
73.1 0.01044
73.15 0.00928
73.2 0.00387
73.25 0.00309
73.3 0.00564
73.35 0.01064
73.4 0.01174
73.45 0.01598
73.5 0.0178
73.55 0.02132
73.6 0.02557
73.65 0.02856
73.7 0.02689
73.75 0.02153
73.8 0.02056
73.85 0.01543
73.9 0.00848
73.95 0.00302
74 -0.00292
74.05 -0.00209
74.1 -0.00445
74.15 -0.001
74.2 -0.00285
74.25 -0.0042
74.3 -0.00026
74.35 0.00182
74.4 0.00571
74.45 0.00665
74.5 0.00654
74.55 0.01028
74.6 0.0096
74.65 0.01174
74.7 0.01373
74.75 0.01014
74.8 0.00927
74.85 0.01103
74.9 0.01296
74.95 0.00862
75 0.00059
75.05 -0.00858
75.1 -0.01087
75.15 -0.01566
75.2 -0.01488
75.25 -0.01634
75.3 -0.01194
75.35 -0.00569
75.4 -0.00473
75.45 -0.00506
75.5 -0.0074
75.55 -0.00833
75.6 -0.01102
75.65 -0.00813
75.7 -0.00498
75.75 -0.0048
75.8 -0.00042
75.85 0.00642
75.9 0.01003
75.95 0.01059
76 0.00802
76.05 0.00601
76.1 0.00083
76.15 -0.00138
76.2 -0.00628
76.25 -0.00562
76.3 -0.00274
76.35 -0.0015
76.4 -0.00152
76.45 -0.00362
76.5 -0.00727
76.55 -0.01331
76.6 -0.01156
76.65 -0.01195
76.7 -0.01331
76.75 -0.01304
76.8 -0.01626
76.85 -0.01539
76.9 -0.01679
76.95 -0.01517
77 -0.0149
77.05 -0.01094
77.1 -0.00751
77.15 -0.00324
77.2 0.00292
77.25 0.00954
77.3 0.01428
77.35 0.01404
77.4 0.01731
77.45 0.01964
77.5 0.02013
77.55 0.01504
77.6 0.01279
77.65 0.0127
77.7 0.01426
77.75 0.01449
77.8 0.01009
77.85 0.00835
77.9 0.00483
77.95 0.00589
78 0.00358
78.05 0.00064
78.1 0.00325
78.15 0.00818
78.2 0.01437
78.25 0.01844
78.3 0.01629
78.35 0.01639
78.4 0.01447
78.45 0.01565
78.5 0.01557
78.55 0.01812
78.6 0.02096
78.65 0.0215
78.7 0.02246
78.75 0.02318
78.8 0.01694
78.85 0.01398
78.9 0.00959
78.95 0.00875
79 0.01151
79.05 0.01452
79.1 0.01222
79.15 0.00832
79.2 0.00418
79.25 0.0031
79.3 0.00362
79.35 0.00394
79.4 0.00299
79.45 -0.00196
79.5 -0.00659
79.55 -0.00727
79.6 -0.0064
79.65 -0.00192
79.7 0.00424
79.75 0.01134
79.8 0.01282
79.85 0.00902
79.9 0.00235
79.95 -0.00307
80 -0.00455
80.05 -0.00419
80.1 -0.00042
80.15 0.00072
80.2 0.0043
80.25 0.00568
80.3 0.00928
80.35 0.01026
80.4 0.01075
80.45 0.00907
80.5 0.0076
80.55 0.00419
80.6 -0.00264
80.65 -0.00294
80.7 -0.00486
80.75 -0.00668
80.8 -0.00835
80.85 -0.00703
80.9 -0.00786
80.95 -0.0114
81 -0.0124
81.05 -0.01136
81.1 -0.00666
81.15 -0.00631
81.2 -0.01038
81.25 -0.0089
81.3 -0.01045
81.35 -0.01511
81.4 -0.02039
81.45 -0.01844
81.5 -0.01495
81.55 -0.0138
81.6 -0.01208
81.65 -0.01104
81.7 -0.01162
81.75 -0.01446
81.8 -0.01996
81.85 -0.02409
81.9 -0.02825
81.95 -0.02558
82 -0.02609
82.05 -0.02662
82.1 -0.02541
82.15 -0.02155
82.2 -0.01996
82.25 -0.01324
82.3 -0.00675
82.35 0.00176
82.4 0.00603
82.45 0.01093
82.5 0.01079
82.55 0.014
82.6 0.01921
82.65 0.02498
82.7 0.02397
82.75 0.0244
82.8 0.01987
82.85 0.01784
82.9 0.01058
82.95 0.00205
83 -0.00264
83.05 -0.00448
83.1 -0.00924
83.15 -0.01049
83.2 -0.01513
83.25 -0.01707
83.3 -0.01955
83.35 -0.02311
83.4 -0.02349
83.45 -0.02026
83.5 -0.01838
83.55 -0.01394
83.6 -0.01439
83.65 -0.01322
83.7 -0.01023
83.75 -0.0039
83.8 -0.00014
83.85 -0.00132
83.9 0.00042
83.95 0.00132
84 0.00412
84.05 0.0051
84.1 0.00775
84.15 0.01176
84.2 0.01674
84.25 0.0177
84.3 0.01842
84.35 0.01928
84.4 0.02019
84.45 0.02312
84.5 0.0186
84.55 0.01016
84.6 0.00245
84.65 -0.00132
84.7 -0.00579
84.75 -0.01052
84.8 -0.01044
84.85 -0.01323
84.9 -0.01517
84.95 -0.01427
85 -0.00954
85.05 -0.00547
85.1 0.00038
85.15 0.00781
85.2 0.01455
85.25 0.01588
85.3 0.0169
85.35 0.01459
85.4 0.01437
85.45 0.01339
85.5 0.01518
85.55 0.01619
85.6 0.01197
85.65 0.00859
85.7 0.00361
85.75 0.00416
85.8 0.00238
85.85 0.00324
85.9 -0.00026
85.95 -0.00708
86 -0.0104
86.05 -0.01421
86.1 -0.01802
86.15 -0.02151
86.2 -0.01942
86.25 -0.01371
86.3 -0.01362
86.35 -0.00881
86.4 -0.00377
86.45 -0.00487
86.5 -0.00147
86.55 -0.00323
86.6 -0.00652
86.65 -0.01054
86.7 -0.01626
86.75 -0.01827
86.8 -0.0187
86.85 -0.01449
86.9 -0.01084
86.95 -0.00597
87 -0.00475
87.05 -0.00634
87.1 -0.00758
87.15 -0.00528
87.2 -0.00726
87.25 -0.00894
87.3 -0.01041
87.35 -0.01161
87.4 -0.01054
87.45 -0.01231
87.5 -0.01558
87.55 -0.01185
87.6 -0.01075
87.65 -0.01346
87.7 -0.01557
87.75 -0.01801
87.8 -0.01527
87.85 -0.01647
87.9 -0.01452
87.95 -0.00865
88 -0.00626
88.05 -0.00776
88.1 -0.00349
88.15 -0.00277
88.2 0.00089
88.25 0.00116
88.3 -0.0019
88.35 -0.0065
88.4 -0.00971
88.45 -0.00807
88.5 -0.01016
88.55 -0.00655
88.6 0.00118
88.65 0.00396
88.7 0.00794
88.75 0.0079
88.8 0.01011
88.85 0.01504
88.9 0.01859
88.95 0.01948
89 0.01883
89.05 0.0152
89.1 0.0094
89.15 0.00764
89.2 0.00962
89.25 0.00721
89.3 0.00908
89.35 0.00549
89.4 0.00235
89.45 -0.0004
89.5 -0.00222
89.55 -0.0003
89.6 -0.0011
89.65 -0.0026
89.7 -0.00465
89.75 -0.00787
89.8 -0.00968
89.85 -0.01398
89.9 -0.01482
89.95 -0.01181
90 -0.01023
90.05 -0.00934
90.1 -0.00669
90.15 -0.00394
90.2 0.00194
90.25 0.00923
90.3 0.01463
90.35 0.0143
90.4 0.01202
90.45 0.01071
90.5 0.00771
90.55 0.00223
90.6 -0.00078
90.65 -0.00504
90.7 -0.00871
90.75 -0.01437
90.8 -0.01399
90.85 -0.0109
90.9 -0.00897
90.95 -0.01099
91 -0.01285
91.05 -0.0106
91.1 -0.0048
91.15 -0.00407
91.2 -0.0043
91.25 -0.00586
91.3 -0.00571
91.35 -0.00598
91.4 -0.00485
91.45 -0.00573
91.5 -0.00469
91.55 -0.00393
91.6 -0.00415
91.65 -0.00614
91.7 -0.00314
91.75 0.00303
91.8 0.00445
91.85 0.00253
91.9 0.00297
91.95 -0.00082
92 -0.00433
92.05 -0.00164
92.1 0.00304
92.15 0.00868
92.2 0.0134
92.25 0.01798
92.3 0.02019
92.35 0.01902
92.4 0.01282
92.45 0.00422
92.5 0.00004
92.55 -0.00023
92.6 0.00171
92.65 0.00523
92.7 0.01156
92.75 0.01118
92.8 0.00706
92.85 0.00018
92.9 -0.00002
92.95 0.00267
93 0.0049
93.05 0.01039
93.1 0.01309
93.15 0.01811
93.2 0.01657
93.25 0.01597
93.3 0.01468
93.35 0.01542
93.4 0.01682
93.45 0.0157
93.5 0.01645
93.55 0.01712
93.6 0.01175
93.65 0.01082
93.7 0.00691
93.75 0.00584
93.8 0.00671
93.85 0.00847
93.9 0.00652
93.95 0.00149
94 -0.00035
94.05 -0.00017
94.1 -0.00062
94.15 -0.00437
94.2 -0.00812
94.25 -0.01261
94.3 -0.01592
94.35 -0.01418
94.4 -0.01133
94.45 -0.00745
94.5 -0.00636
94.55 -0.00506
94.6 -0.00008
94.65 0.00272
94.7 0.00201
94.75 0.00534
94.8 0.00877
94.85 0.00861
94.9 0.00482
94.95 0.00047
95 0.00074
95.05 -0.0005
95.1 -0.00158
95.15 -0.00107
95.2 0.0015
95.25 0.00679
95.3 0.00653
95.35 0.00152
95.4 -0.0062
95.45 -0.01514
95.5 -0.0219
95.55 -0.02277
95.6 -0.02044
95.65 -0.0189
95.7 -0.0146
95.75 -0.01308
95.8 -0.01407
95.85 -0.01002
95.9 -0.00785
95.95 -0.00455
96 -0.00431
96.05 -0.00557
96.1 -0.00575
96.15 -0.00216
96.2 -0.00241
96.25 -0.00656
96.3 -0.00924
96.35 -0.00908
96.4 -0.01169
96.45 -0.00905
96.5 -0.00893
96.55 -0.01188
96.6 -0.0161
96.65 -0.02175
96.7 -0.02128
96.75 -0.01745
96.8 -0.01111
96.85 -0.00255
96.9 0.0027
96.95 0.00505
97 0.00289
97.05 0.00002
97.1 -0.00297
97.15 -0.00519
97.2 -0.00729
97.25 -0.01056
97.3 -0.01499
97.35 -0.01413
97.4 -0.0111
97.45 -0.00537
97.5 -0.00499
97.55 -0.0007
97.6 0.00185
97.65 0.00133
97.7 0.00167
97.75 0.00496
97.8 0.00853
97.85 0.00674
97.9 0.00294
97.95 0.00378
98 0.00596
98.05 0.01113
98.1 0.01152
98.15 0.00953
98.2 0.0039
98.25 0.00114
98.3 0.00075
98.35 0.00091
98.4 0.0031
98.45 0.00536
98.5 0.01023
98.55 0.00954
98.6 0.01173
98.65 0.01448
98.7 0.01133
98.75 0.00992
98.8 0.00912
98.85 0.00514
98.9 0.0003
98.95 0.00186
99 0.00543
99.05 0.01062
99.1 0.01107
99.15 0.01266
99.2 0.01684
99.25 0.02161
99.3 0.02486
99.35 0.02071
99.4 0.01969
99.45 0.01867
99.5 0.01229
99.55 0.00555
99.6 -0.00174
99.65 -0.00441
99.7 -0.00536
99.75 -0.00227
99.8 -0.00326
99.85 -0.00172
99.9 -0.00456
99.95 -0.00203
