0 0
0.05 0.00283
0.1 0.01353
0.15 0.0216
0.2 0.0286
0.25 0.03761
0.3 0.04358
0.35 0.04993
0.4 0.05891
0.45 0.06868
0.5 0.07766
0.55 0.08337
0.6 0.08713
0.65 0.08853
0.7 0.08633
0.75 0.08445
0.8 0.07743
0.85 0.06684
0.9 0.0585
0.95 0.05385
1 0.0461
1.05 0.0367
1.1 0.02896
1.15 0.02732
1.2 0.03061
1.25 0.03003
1.3 0.02905
1.35 0.02718
1.4 0.03008
1.45 0.03504
1.5 0.04219
1.55 0.04982
1.6 0.055
1.65 0.05612
1.7 0.05669
1.75 0.05504
1.8 0.05418
1.85 0.04736
1.9 0.04433
1.95 0.03866
2 0.03573
2.05 0.03021
2.1 0.02768
2.15 0.02467
2.2 0.02185
2.25 0.02089
2.3 0.0172
2.35 0.01128
2.4 0.01249
2.45 0.01
2.5 0.00896
2.55 0.01199
2.6 0.01295
2.65 0.01819
2.7 0.0228
2.75 0.03049
2.8 0.03568
2.85 0.03406
2.9 0.03675
2.95 0.03473
3 0.0309
3.05 0.02945
3.1 0.02564
3.15 0.02679
3.2 0.02425
3.25 0.02563
3.3 0.0215
3.35 0.01643
3.4 0.01728
3.45 0.01593
3.5 0.01506
3.55 0.01154
3.6 0.00537
3.65 0.0041
3.7 0.00455
3.75 0.00434
3.8 0.00064
3.85 0.00051
3.9 -0.00231
3.95 -0.00124
4 0.00265
4.05 0.00578
4.1 0.00584
4.15 0.00342
4.2 -0.00023
4.25 0.00001
4.3 -0.00159
4.35 -0.00403
4.4 -0.00466
4.45 -0.00842
4.5 -0.00951
4.55 -0.01551
4.6 -0.02242
4.65 -0.02816
4.7 -0.0346
4.75 -0.04736
4.8 -0.06238
4.85 -0.08601
4.9 -0.11318
4.95 -0.14388
5 -0.17367
5.05 -0.20503
5.1 -0.24041
5.15 -0.28153
5.2 -0.3284
5.25 -0.37489
5.3 -0.4247
5.35 -0.4799
5.4 -0.53067
5.45 -0.58384
5.5 -0.63625
5.55 -0.68348
5.6 -0.72882
5.65 -0.76835
5.7 -0.80424
5.75 -0.83687
5.8 -0.85716
5.85 -0.87246
5.9 -0.87955
5.95 -0.87445
6 -0.86105
6.05 -0.84104
6.1 -0.8103
6.15 -0.77266
6.2 -0.72522
6.25 -0.67217
6.3 -0.61767
6.35 -0.55599
6.4 -0.48936
6.45 -0.42212
6.5 -0.35657
6.55 -0.28777
6.6 -0.22088
6.65 -0.1605
6.7 -0.1031
6.75 -0.04902
6.8 0.00266
6.85 0.05676
6.9 0.10963
6.95 0.16224
7 0.22046
7.05 0.27401
7.1 0.32878
7.15 0.38472
7.2 0.432
7.25 0.48021
7.3 0.52311
7.35 0.55963
7.4 0.59676
7.45 0.62836
7.5 0.65564
7.55 0.67707
7.6 0.69559
7.65 0.71135
7.7 0.7229
7.75 0.73556
7.8 0.7445
7.85 0.75071
7.9 0.75094
7.95 0.75027
8 0.74163
8.05 0.73007
8.1 0.71181
8.15 0.69608
8.2 0.67826
8.25 0.66411
8.3 0.64717
8.35 0.62585
8.4 0.60561
8.45 0.58271
8.5 0.5641
8.55 0.54705
8.6 0.53061
8.65 0.50599
8.7 0.47745
8.75 0.44902
8.8 0.42213
8.85 0.39641
8.9 0.3711
8.95 0.34782
9 0.33115
9.05 0.31595
9.1 0.30118
9.15 0.2827
9.2 0.26545
9.25 0.24746
9.3 0.2339
9.35 0.22048
9.4 0.21414
9.45 0.20827
9.5 0.19795
9.55 0.19118
9.6 0.18487
9.65 0.17419
9.7 0.16836
9.75 0.1587
9.8 0.14715
9.85 0.1399
9.9 0.13101
9.95 0.12013
10 0.11449
10.05 0.10456
10.1 0.09573
10.15 0.0877
10.2 0.08543
10.25 0.08236
10.3 0.08187
10.35 0.08002
10.4 0.07428
10.45 0.07252
10.5 0.07134
10.55 0.0689
10.6 0.06363
10.65 0.05859
10.7 0.04889
10.75 0.04339
10.8 0.03383
10.85 0.02122
10.9 0.00653
10.95 -0.00011
11 -0.00812
11.05 -0.01856
11.1 -0.02167
11.15 -0.022
11.2 -0.02511
11.25 -0.027
11.3 -0.03343
11.35 -0.0419
11.4 -0.05047
11.45 -0.06087
11.5 -0.06851
11.55 -0.07694
11.6 -0.07799
11.65 -0.07991
11.7 -0.08232
11.75 -0.08512
11.8 -0.08172
11.85 -0.08046
11.9 -0.0832
11.95 -0.08426
12 -0.0817
12.05 -0.08082
12.1 -0.08286
12.15 -0.0872
12.2 -0.09281
12.25 -0.09229
12.3 -0.08869
12.35 -0.08305
12.4 -0.08185
12.45 -0.08076
12.5 -0.07867
12.55 -0.07328
12.6 -0.06819
12.65 -0.06904
12.7 -0.06768
12.75 -0.06828
12.8 -0.06795
12.85 -0.06571
12.9 -0.0687
12.95 -0.07041
13 -0.07236
13.05 -0.07624
13.1 -0.08121
13.15 -0.08205
13.2 -0.08035
13.25 -0.07795
13.3 -0.07421
13.35 -0.06717
13.4 -0.06622
13.45 -0.06928
13.5 -0.06985
13.55 -0.06517
13.6 -0.06109
13.65 -0.05445
13.7 -0.04851
13.75 -0.04197
13.8 -0.04012
13.85 -0.03714
13.9 -0.03218
13.95 -0.02962
14 -0.03184
14.05 -0.03067
14.1 -0.03218
14.15 -0.0308
14.2 -0.0329
14.25 -0.03288
14.3 -0.03596
14.35 -0.03878
14.4 -0.04158
14.45 -0.04148
14.5 -0.04036
14.55 -0.04033
14.6 -0.03651
14.65 -0.03146
14.7 -0.02938
14.75 -0.03119
14.8 -0.03554
14.85 -0.03907
14.9 -0.0383
14.95 -0.03606
15 -0.03255
15.05 -0.0279
15.1 -0.02862
15.15 -0.02983
15.2 -0.02736
15.25 -0.02613
15.3 -0.02231
15.35 -0.01955
15.4 -0.02426
15.45 -0.03211
15.5 -0.0387
15.55 -0.04749
15.6 -0.04856
15.65 -0.05126
15.7 -0.04843
15.75 -0.04916
15.8 -0.04965
15.85 -0.05081
15.9 -0.05076
15.95 -0.0509
16 -0.04779
16.05 -0.04188
16.1 -0.03903
16.15 -0.03946
16.2 -0.04085
16.25 -0.03623
16.3 -0.03667
16.35 -0.03653
16.4 -0.03176
16.45 -0.02833
16.5 -0.02442
16.55 -0.01837
16.6 -0.01204
16.65 -0.00735
16.7 -0.00717
16.75 -0.01321
16.8 -0.01432
16.85 -0.01406
16.9 -0.01604
16.95 -0.02193
17 -0.02253
17.05 -0.01875
17.1 -0.01496
17.15 -0.01533
17.2 -0.01474
17.25 -0.0144
17.3 -0.01501
17.35 -0.01817
17.4 -0.01729
17.45 -0.02177
17.5 -0.02366
17.55 -0.02625
17.6 -0.02586
17.65 -0.02989
17.7 -0.03128
17.75 -0.03068
17.8 -0.02475
17.85 -0.02138
17.9 -0.02065
17.95 -0.01678
18 -0.01607
18.05 -0.0193
18.1 -0.02312
18.15 -0.02517
18.2 -0.02533
18.25 -0.02356
18.3 -0.023
18.35 -0.02555
18.4 -0.03082
18.45 -0.02956
18.5 -0.02741
18.55 -0.02273
18.6 -0.01671
18.65 -0.01001
18.7 -0.00515
18.75 -0.00739
18.8 -0.00997
18.85 -0.01021
18.9 -0.00983
18.95 -0.00808
19 -0.00704
19.05 -0.00851
19.1 -0.00854
19.15 -0.01327
19.2 -0.01888
19.25 -0.02146
19.3 -0.02008
19.35 -0.0188
19.4 -0.02125
19.45 -0.01848
19.5 -0.01443
19.55 -0.01238
19.6 -0.01077
19.65 -0.01145
19.7 -0.01477
19.75 -0.02085
19.8 -0.02036
19.85 -0.01737
19.9 -0.01175
19.95 -0.00542
20 -0.00043
20.05 -0.00008
20.1 -0.00218
20.15 -0.00618
20.2 -0.00983
20.25 -0.00952
20.3 -0.00876
20.35 -0.00952
20.4 -0.00571
20.45 -0.00014
20.5 0.00726
20.55 0.00828
20.6 0.00863
20.65 0.00379
20.7 -0.0039
20.75 -0.00869
20.8 -0.00742
20.85 -0.00962
20.9 -0.01483
20.95 -0.02136
21 -0.02174
21.05 -0.01728
21.1 -0.01034
21.15 -0.00635
21.2 0.00069
21.25 0.0049
21.3 0.00847
21.35 0.00615
21.4 0.00481
21.45 0.00191
21.5 -0.00028
21.55 -0.00478
21.6 -0.00396
21.65 -0.00438
21.7 -0.00173
21.75 -0.00222
21.8 -0.00188
21.85 -0.00295
21.9 -0.00165
21.95 0.00079
22 0.00564
22.05 0.00369
22.1 0.00241
22.15 0.00347
22.2 0.0042
22.25 0.00756
22.3 0.00657
22.35 0.00515
22.4 0.00109
22.45 -0.00039
22.5 0.00159
22.55 0.00251
22.6 -0.00202
22.65 -0.00875
22.7 -0.01235
22.75 -0.0128
22.8 -0.01243
22.85 -0.01349
22.9 -0.01623
22.95 -0.01742
23 -0.0186
23.05 -0.01993
23.1 -0.02261
23.15 -0.01903
23.2 -0.01536
23.25 -0.01036
23.3 -0.00291
23.35 0.00327
23.4 0.00808
23.45 0.01052
23.5 0.00971
23.55 0.00878
23.6 0.00674
23.65 0.0006
23.7 -0.00761
23.75 -0.01235
23.8 -0.01326
23.85 -0.01722
23.9 -0.02215
23.95 -0.02358
24 -0.02195
24.05 -0.02312
24.1 -0.01848
24.15 -0.01235
24.2 -0.00357
24.25 -0.00104
24.3 -0.00046
24.35 0.00336
24.4 0.00239
24.45 0.00535
24.5 0.00609
24.55 0.00894
24.6 0.00503
24.65 -0.00227
24.7 -0.00361
24.75 -0.00902
24.8 -0.01259
24.85 -0.01425
24.9 -0.01467
24.95 -0.01067
25 -0.01143
25.05 -0.01088
25.1 -0.0122
25.15 -0.00943
25.2 -0.00539
25.25 -0.00048
25.3 0.00586
25.35 0.00474
25.4 -0.00045
25.45 -0.00479
25.5 -0.0061
25.55 -0.00886
25.6 -0.00859
25.65 -0.00752
25.7 -0.00855
25.75 -0.0098
25.8 -0.00815
25.85 -0.01091
25.9 -0.01649
25.95 -0.01594
26 -0.01368
26.05 -0.01234
26.1 -0.0062
26.15 0.0003
26.2 0.00115
26.25 -0.00049
26.3 -0.00528
26.35 -0.00495
26.4 -0.00089
26.45 0.00195
26.5 0.00666
26.55 0.01181
26.6 0.01435
26.65 0.01618
26.7 0.01482
26.75 0.0157
26.8 0.0139
26.85 0.01113
26.9 0.00407
26.95 -0.00421
27 -0.01315
27.05 -0.01497
27.1 -0.016
27.15 -0.01561
27.2 -0.01728
27.25 -0.01312
27.3 -0.01135
27.35 -0.00874
27.4 -0.00867
27.45 -0.01002
27.5 -0.01323
27.55 -0.01312
27.6 -0.01894
27.65 -0.02324
27.7 -0.02472
27.75 -0.02486
27.8 -0.03064
27.85 -0.04319
27.9 -0.06058
27.95 -0.075
28 -0.08998
28.05 -0.10842
28.1 -0.1312
28.15 -0.1515
28.2 -0.18014
28.25 -0.20675
28.3 -0.2404
28.35 -0.27669
28.4 -0.31702
28.45 -0.36169
28.5 -0.41283
28.55 -0.46765
28.6 -0.52253
28.65 -0.58294
28.7 -0.64623
28.75 -0.71893
28.8 -0.79816
28.85 -0.87766
28.9 -0.96127
28.95 -1.04356
29 -1.12276
29.05 -1.20761
29.1 -1.29111
29.15 -1.37164
29.2 -1.44814
29.25 -1.52842
29.3 -1.60941
29.35 -1.68567
29.4 -1.75403
29.45 -1.8143
29.5 -1.87387
29.55 -1.92798
29.6 -1.97308
29.65 -2.01169
29.7 -2.03602
29.75 -2.05362
29.8 -2.06218
29.85 -2.05561
29.9 -2.03692
29.95 -2.0129
30 -1.9729
30.05 -1.92347
30.1 -1.86037
30.15 -1.78756
30.2 -1.70554
30.25 -1.61193
30.3 -1.50542
30.35 -1.39158
30.4 -1.26765
30.45 -1.13735
30.5 -1.00421
30.55 -0.86384
30.6 -0.7219
30.65 -0.58107
30.7 -0.43653
30.75 -0.28875
30.8 -0.14797
30.85 -0.00505
30.9 0.13051
30.95 0.26236
31 0.39165
31.05 0.515
31.1 0.63729
31.15 0.7598
31.2 0.87788
31.25 0.98484
31.3 1.07959
31.35 1.16631
31.4 1.25062
31.45 1.33191
31.5 1.40848
31.55 1.47666
31.6 1.53432
31.65 1.57793
31.7 1.61994
31.75 1.65004
31.8 1.6791
31.85 1.69787
31.9 1.71711
31.95 1.73488
32 1.7452
32.05 1.75287
32.1 1.75402
32.15 1.75407
32.2 1.74961
32.25 1.74833
32.3 1.75083
32.35 1.75416
32.4 1.75739
32.45 1.75087
32.5 1.74271
32.55 1.72918
32.6 1.71115
32.65 1.68921
32.7 1.67422
32.75 1.65619
32.8 1.6405
32.85 1.61876
32.9 1.60115
32.95 1.58604
33 1.56259
33.05 1.54059
33.1 1.51173
33.15 1.47796
33.2 1.44122
33.25 1.40994
33.3 1.37685
33.35 1.34804
33.4 1.31706
33.45 1.28526
33.5 1.25016
33.55 1.21284
33.6 1.17372
33.65 1.13553
33.7 1.09419
33.75 1.04795
33.8 1.00345
33.85 0.95933
33.9 0.91978
33.95 0.87554
34 0.83536
34.05 0.79314
34.1 0.75583
34.15 0.71746
34.2 0.67829
34.25 0.64111
34.3 0.60108
34.35 0.56251
34.4 0.52451
34.45 0.48284
34.5 0.4482
34.55 0.41418
34.6 0.37918
34.65 0.34097
34.7 0.30939
34.75 0.2799
34.8 0.25424
34.85 0.22869
34.9 0.2032
34.95 0.17426
35 0.14165
35.05 0.11051
35.1 0.07728
35.15 0.05161
35.2 0.02561
35.25 0.00206
35.3 -0.01775
35.35 -0.03497
35.4 -0.05217
35.45 -0.07074
35.5 -0.09085
35.55 -0.1096
35.6 -0.12489
35.65 -0.13837
35.7 -0.15329
35.75 -0.16577
35.8 -0.1778
35.85 -0.18871
35.9 -0.19532
35.95 -0.20788
36 -0.21454
36.05 -0.22465
36.1 -0.23316
36.15 -0.24187
36.2 -0.2521
36.25 -0.26177
36.3 -0.26821
36.35 -0.27139
36.4 -0.27358
36.45 -0.28062
36.5 -0.29011
36.55 -0.29899
36.6 -0.30847
36.65 -0.31693
36.7 -0.32246
36.75 -0.32286
36.8 -0.3215
36.85 -0.31687
36.9 -0.30864
36.95 -0.29831
37 -0.29575
37.05 -0.29204
37.1 -0.28588
37.15 -0.28526
37.2 -0.28334
37.25 -0.28137
37.3 -0.27836
37.35 -0.27522
37.4 -0.27319
37.45 -0.27039
37.5 -0.27214
37.55 -0.27826
37.6 -0.28337
37.65 -0.28498
37.7 -0.28137
37.75 -0.27702
37.8 -0.27068
37.85 -0.26741
37.9 -0.26893
37.95 -0.26504
38 -0.26124
38.05 -0.25886
38.1 -0.25461
38.15 -0.25021
38.2 -0.25116
38.25 -0.25384
38.3 -0.25151
38.35 -0.24835
38.4 -0.24389
38.45 -0.23884
38.5 -0.23798
38.55 -0.2365
38.6 -0.23702
38.65 -0.23969
38.7 -0.23455
38.75 -0.22578
38.8 -0.21882
38.85 -0.21011
38.9 -0.20263
38.95 -0.20129
39 -0.19498
39.05 -0.18705
39.1 -0.17894
39.15 -0.16992
39.2 -0.16478
39.25 -0.15872
39.3 -0.15887
39.35 -0.16071
39.4 -0.16093
39.45 -0.16443
39.5 -0.16739
39.55 -0.16736
39.6 -0.16656
39.65 -0.16388
39.7 -0.15821
39.75 -0.14997
39.8 -0.14522
39.85 -0.1379
39.9 -0.1292
39.95 -0.1214
40 -0.11919
40.05 -0.11919
40.1 -0.12079
40.15 -0.11942
40.2 -0.11533
40.25 -0.11013
40.3 -0.10557
40.35 -0.10388
40.4 -0.10074
40.45 -0.10505
40.5 -0.11307
40.55 -0.11699
40.6 -0.11732
40.65 -0.11372
40.7 -0.11219
40.75 -0.10679
40.8 -0.10669
40.85 -0.11054
40.9 -0.11757
40.95 -0.11865
41 -0.11677
41.05 -0.11523
41.1 -0.11292
41.15 -0.11407
41.2 -0.11661
41.25 -0.11957
41.3 -0.11794
41.35 -0.11908
41.4 -0.11422
41.45 -0.10976
41.5 -0.10106
41.55 -0.09103
41.6 -0.08901
41.65 -0.08675
41.7 -0.08212
41.75 -0.08345
41.8 -0.08868
41.85 -0.089
41.9 -0.08927
41.95 -0.08985
42 -0.08552
42.05 -0.07722
42.1 -0.06789
42.15 -0.06217
42.2 -0.05611
42.25 -0.05478
42.3 -0.05171
42.35 -0.05393
42.4 -0.05516
42.45 -0.05854
42.5 -0.06184
42.55 -0.06716
42.6 -0.06738
42.65 -0.06418
42.7 -0.05737
42.75 -0.04902
42.8 -0.04712
42.85 -0.05172
42.9 -0.05362
42.95 -0.05569
43 -0.05297
43.05 -0.04732
43.1 -0.04273
43.15 -0.04085
43.2 -0.03709
43.25 -0.03624
43.3 -0.0355
43.35 -0.0372
43.4 -0.04373
43.45 -0.04443
43.5 -0.04406
43.55 -0.04129
43.6 -0.04155
43.65 -0.04679
43.7 -0.04677
43.75 -0.04915
43.8 -0.04955
43.85 -0.04784
43.9 -0.05005
43.95 -0.05562
44 -0.06155
44.05 -0.0636
44.1 -0.0629
44.15 -0.06188
44.2 -0.06307
44.25 -0.06203
44.3 -0.05835
44.35 -0.05559
44.4 -0.05692
44.45 -0.05264
44.5 -0.04724
44.55 -0.04755
44.6 -0.05067
44.65 -0.0476
44.7 -0.04101
44.75 -0.03933
44.8 -0.03947
44.85 -0.0376
44.9 -0.03703
44.95 -0.03763
45 -0.03809
45.05 -0.03328
45.1 -0.02753
45.15 -0.02526
45.2 -0.02723
45.25 -0.02644
45.3 -0.02182
45.35 -0.02377
45.4 -0.02902
45.45 -0.03108
45.5 -0.02881
45.55 -0.0281
45.6 -0.02905
45.65 -0.03345
45.7 -0.03504
45.75 -0.03106
45.8 -0.0267
45.85 -0.0241
45.9 -0.02399
45.95 -0.02269
46 -0.02379
46.05 -0.02884
46.1 -0.02849
46.15 -0.03059
46.2 -0.03487
46.25 -0.03696
46.3 -0.03946
46.35 -0.04144
46.4 -0.03619
46.45 -0.02866
46.5 -0.01968
46.55 -0.01483
46.6 -0.01134
46.65 -0.01142
46.7 -0.01139
46.75 -0.01628
46.8 -0.0227
46.85 -0.02364
46.9 -0.02063
46.95 -0.01366
47 -0.00991
47.05 -0.00765
47.1 -0.01058
47.15 -0.01544
47.2 -0.02074
47.25 -0.02636
47.3 -0.02753
47.35 -0.02869
47.4 -0.02858
47.45 -0.02921
47.5 -0.03212
47.55 -0.0311
47.6 -0.02912
47.65 -0.03017
47.7 -0.03088
47.75 -0.03127
47.8 -0.03176
47.85 -0.02917
47.9 -0.02589
47.95 -0.02406
48 -0.01688
48.05 -0.01317
48.1 -0.00658
48.15 -0.00676
48.2 -0.00289
48.25 0.00269
48.3 0.00281
48.35 0.00544
48.4 0.00181
48.45 0.00038
48.5 0.00349
48.55 0.00201
48.6 -0.00065
48.65 -0.00636
48.7 -0.01236
48.75 -0.01211
48.8 -0.01551
48.85 -0.01348
48.9 -0.00981
48.95 -0.00943
49 -0.0104
49.05 -0.0146
49.1 -0.01917
49.15 -0.0169
49.2 -0.01092
49.25 -0.01015
49.3 -0.00521
49.35 -0.00558
49.4 -0.0045
49.45 -0.00401
49.5 -0.00435
49.55 -0.00898
49.6 -0.00693
49.65 -0.00315
49.7 0.00145
49.75 0.00434
49.8 0.00995
49.85 0.0122
49.9 0.00882
49.95 0.00456
50 0.00083
50.05 -0.00312
50.1 -0.009
50.15 -0.01639
50.2 -0.02174
50.25 -0.02569
50.3 -0.02753
50.35 -0.03055
50.4 -0.02744
50.45 -0.02163
50.5 -0.01712
50.55 -0.01729
50.6 -0.01754
50.65 -0.01476
50.7 -0.00772
50.75 0.00003
50.8 0.00395
50.85 0.01062
50.9 0.01717
50.95 0.02051
51 0.01951
51.05 0.01934
51.1 0.01484
51.15 0.01442
51.2 0.01313
51.25 0.00778
51.3 0.00557
51.35 -0.00143
51.4 -0.0055
51.45 -0.00474
51.5 -0.00869
51.55 -0.01075
51.6 -0.0157
51.65 -0.01953
51.7 -0.0188
51.75 -0.01782
51.8 -0.01821
51.85 -0.02032
51.9 -0.0216
51.95 -0.0253
52 -0.02817
52.05 -0.02925
52.1 -0.02495
52.15 -0.02095
52.2 -0.0144
52.25 -0.01355
52.3 -0.01592
52.35 -0.01462
52.4 -0.01397
52.45 -0.00832
52.5 -0.00835
52.55 -0.00354
52.6 0.00184
52.65 0.00437
52.7 0.01043
52.75 0.01679
52.8 0.02312
52.85 0.02437
52.9 0.02099
52.95 0.01923
53 0.01575
53.05 0.0111
53.1 0.00553
53.15 -0.00026
53.2 0.00045
53.25 0.00119
53.3 0.00055
53.35 -0.00091
53.4 -0.00369
53.45 -0.00388
53.5 0.00091
53.55 0.00445
53.6 0.00553
53.65 0.00112
53.7 -0.00192
53.75 -0.00406
53.8 -0.00813
53.85 -0.01485
53.9 -0.02159
53.95 -0.02219
54 -0.02137
54.05 -0.01963
54.1 -0.01679
54.15 -0.00905
54.2 -0.00054
54.25 0.00853
54.3 0.01493
54.35 0.0145
54.4 0.0149
54.45 0.00954
54.5 0.00232
54.55 0.00178
54.6 -0.00296
54.65 -0.00244
54.7 0.00189
54.75 0.00535
54.8 0.00837
54.85 0.00762
54.9 0.00841
54.95 0.00752
55 0.00407
55.05 0.00562
55.1 0.00682
55.15 0.00228
55.2 -0.0049
55.25 -0.01094
55.3 -0.01837
55.35 -0.01701
55.4 -0.01707
55.45 -0.01782
55.5 -0.01684
55.55 -0.01137
55.6 -0.00909
55.65 -0.00734
55.7 -0.00957
55.75 -0.00801
55.8 -0.01053
55.85 -0.01446
55.9 -0.01112
55.95 -0.00522
56 -0.00202
56.05 0.00384
56.1 0.00334
56.15 0.00379
56.2 0.00627
56.25 0.00897
56.3 0.01361
56.35 0.01262
56.4 0.01322
56.45 0.01464
56.5 0.0174
56.55 0.01572
56.6 0.01372
56.65 0.01115
56.7 0.00893
56.75 0.00982
56.8 0.00829
56.85 0.00322
56.9 0.00096
56.95 0.0027
57 -0.00069
57.05 -0.0025
57.1 -0.00741
57.15 -0.00616
57.2 -0.00116
57.25 0.00257
57.3 0.00265
57.35 -0.00127
57.4 -0.00247
57.45 -0.00405
57.5 -0.0095
57.55 -0.0097
57.6 -0.0096
57.65 -0.00797
57.7 -0.00945
57.75 -0.00971
57.8 -0.005
57.85 0.00201
57.9 0.00934
57.95 0.01704
58 0.01916
58.05 0.02177
58.1 0.02038
58.15 0.01868
58.2 0.01315
58.25 0.0047
58.3 -0.0024
58.35 -0.00429
58.4 -0.00984
58.45 -0.01554
58.5 -0.01591
58.55 -0.01133
58.6 -0.01031
58.65 -0.00461
58.7 -0.00541
58.75 -0.00223
58.8 0.00101
58.85 0.00501
58.9 0.00766
58.95 0.00505
59 -0.00029
59.05 -0.00208
59.1 -0.00257
59.15 0.00122
59.2 -0.00026
59.25 0.00039
59.3 -0.00192
59.35 -0.00177
59.4 0.00016
59.45 -0.00152
59.5 -0.00609
59.55 -0.00941
59.6 -0.01005
59.65 -0.00804
59.7 -0.00888
59.75 -0.00864
59.8 -0.00807
59.85 -0.00832
59.9 -0.00392
59.95 -0.00335
60 -0.00242
60.05 -0.00324
60.1 -0.0038
60.15 -0.00151
60.2 -0.00454
60.25 -0.0028
60.3 -0.0007
60.35 0.00202
60.4 0.0001
60.45 -0.00518
60.5 -0.00671
60.55 -0.01135
60.6 -0.01042
60.65 -0.00465
60.7 -0.00468
60.75 -0.00087
60.8 -0.00022
60.85 0.00129
60.9 0.00537
60.95 0.01229
61 0.01706
61.05 0.01713
61.1 0.01721
61.15 0.0169
61.2 0.01105
61.25 0.00166
61.3 -0.00552
61.35 -0.00868
61.4 -0.01264
61.45 -0.01692
61.5 -0.01609
61.55 -0.01096
61.6 -0.00442
61.65 -0.00032
61.7 0.00447
61.75 0.00487
61.8 0.00864
61.85 0.0119
61.9 0.0145
61.95 0.01041
62 0.0105
62.05 0.00533
62.1 -0.0008
62.15 -0.00865
62.2 -0.01366
62.25 -0.01693
62.3 -0.01578
62.35 -0.01699
62.4 -0.01399
62.45 -0.01338
62.5 -0.00839
62.55 -0.00819
62.6 -0.00261
62.65 0.0015
62.7 0.00529
62.75 0.00408
62.8 -0.00051
62.85 -0.00022
62.9 0.00039
62.95 -0.00285
63 -0.00005
63.05 0.00519
63.1 0.01177
63.15 0.01274
63.2 0.01371
63.25 0.01365
63.3 0.00855
63.35 0.00822
63.4 0.00405
63.45 -0.00183
63.5 -0.00882
63.55 -0.01022
63.6 -0.00931
63.65 -0.00573
63.7 -0.00722
63.75 -0.0113
63.8 -0.01591
63.85 -0.01462
63.9 -0.0113
63.95 -0.00462
64 -0.00081
64.05 0.00168
64.1 0.0005
64.15 -0.00052
64.2 0.0019
64.25 0.0027
64.3 0.00584
64.35 0.00458
64.4 0.00771
64.45 0.00845
64.5 0.0071
64.55 0.00441
64.6 0.00676
64.65 0.01215
64.7 0.01808
64.75 0.01873
64.8 0.01622
64.85 0.0175
64.9 0.01466
64.95 0.01075
65 0.01016
65.05 0.01336
65.1 0.01618
65.15 0.01988
65.2 0.01793
65.25 0.0147
65.3 0.01406
65.35 0.01481
65.4 0.01138
65.45 0.00805
65.5 0.00699
65.55 0.00257
65.6 -0.00389
65.65 -0.0102
65.7 -0.01038
65.75 -0.00754
65.8 -0.00413
65.85 -0.00522
65.9 -0.00297
65.95 -0.0022
66 -0.00659
66.05 -0.00739
66.1 -0.00704
66.15 -0.00727
66.2 -0.00684
66.25 -0.00163
66.3 0.00466
66.35 0.00686
66.4 0.00722
66.45 0.01051
66.5 0.01388
66.55 0.01051
66.6 0.01045
66.65 0.00461
66.7 0.00399
66.75 0.00303
66.8 -0.00269
66.85 -0.00431
66.9 -0.00279
66.95 0.00092
67 0.0057
67.05 0.00572
67.1 0.00239
67.15 -0.0004
67.2 -0.00048
67.25 0.00016
67.3 0.00431
67.35 0.00601
67.4 0.00416
67.45 0.00321
67.5 0.00507
67.55 0.00419
67.6 0.0059
67.65 0.00519
67.7 0.00526
67.75 -0.00007
67.8 -0.00155
67.85 0.00004
67.9 0.00506
67.95 0.01029
68 0.01288
68.05 0.01187
68.1 0.01049
68.15 0.00987
68.2 0.00981
68.25 0.01079
68.3 0.00798
68.35 0.0072
68.4 0.00822
68.45 0.00436
68.5 0.00022
68.55 -0.00268
68.6 -0.00691
68.65 -0.00885
68.7 -0.01434
68.75 -0.01795
68.8 -0.01763
68.85 -0.01998
68.9 -0.02089
68.95 -0.01641
69 -0.00859
69.05 -0.00786
69.1 -0.00672
69.15 -0.00231
69.2 0.00451
69.25 0.00534
69.3 0.00497
69.35 0.00704
69.4 0.00561
69.45 0.00495
69.5 0.002
69.55 0.00378
69.6 0.00839
69.65 0.00597
69.7 0.00359
69.75 -0.00215
69.8 -0.00321
69.85 -0.00673
69.9 -0.01247
69.95 -0.01409
70 -0.01371
70.05 -0.01711
70.1 -0.01947
70.15 -0.01727
70.2 -0.01062
70.25 -0.00923
70.3 -0.00486
70.35 -0.00211
70.4 -0.00447
70.45 -0.00411
70.5 -0.00107
70.55 -0.0035
70.6 -0.00629
70.65 -0.00402
70.7 -0.00554
70.75 -0.00228
70.8 -0.0034
70.85 -0.00481
70.9 -0.00306
70.95 0.00064
71 0.00461
71.05 0.00301
71.1 0.00333
71.15 -0.00036
71.2 -0.00035
71.25 0.00119
71.3 0.00104
71.35 -0.00155
71.4 -0.00092
71.45 -0.00008
71.5 -0.00462
71.55 -0.00385
71.6 -0.00305
71.65 0.00039
71.7 0.00247
71.75 0.00569
71.8 0.00714
71.85 0.0093
71.9 0.01218
71.95 0.01499
72 0.01067
72.05 0.00472
72.1 0.00425
72.15 0.00112
72.2 0.00035
72.25 0.00356
72.3 0.00956
72.35 0.01382
72.4 0.01033
72.45 0.00503
72.5 0.0029
72.55 0.00377
72.6 0.00335
72.65 0.00613
72.7 0.01021
72.75 0.00796
72.8 0.00326
72.85 0.00033
72.9 0.00136
72.95 0.00392
73 0.0029
73.05 0.00326
73.1 0.00692
73.15 0.00475
73.2 0.00697
73.25 0.01152
73.3 0.01304
73.35 0.01341
73.4 0.01037
73.45 0.00276
73.5 -0.00417
73.55 -0.00678
73.6 -0.00813
73.65 -0.01102
73.7 -0.01266
73.75 -0.01183
73.8 -0.00663
73.85 -0.00397
73.9 0.00052
73.95 0.0047
74 0.0056
74.05 0.00597
74.1 0.00307
74.15 0.00325
74.2 0.00708
74.25 0.0123
74.3 0.01849
74.35 0.02067
74.4 0.018
74.45 0.01364
74.5 0.01313
74.55 0.00971
74.6 0.00998
74.65 0.00555
74.7 0.0029
74.75 -0.002
74.8 -0.00353
74.85 -0.00893
74.9 -0.01329
74.95 -0.01287
75 -0.01244
75.05 -0.01489
75.1 -0.01645
75.15 -0.01542
75.2 -0.01184
75.25 -0.00712
75.3 -0.00593
75.35 -0.00076
75.4 0.00083
75.45 0.00482
75.5 0.00218
75.55 0.00013
75.6 0.00039
75.65 -0.0036
75.7 -0.00783
75.75 -0.00814
75.8 -0.01134
75.85 -0.01194
75.9 -0.01279
75.95 -0.00959
76 -0.0103
76.05 -0.01134
76.1 -0.01244
76.15 -0.01292
76.2 -0.01386
76.25 -0.01278
76.3 -0.00685
76.35 -0.00576
76.4 -0.00282
76.45 -0.00269
76.5 -0.00237
76.55 0.00164
76.6 0.00201
76.65 0.00552
76.7 0.00733
76.75 0.01152
76.8 0.01095
76.85 0.00546
76.9 -0.00162
76.95 -0.00258
77 -0.0022
77.05 0.00008
77.1 0.00399
77.15 0.00541
77.2 0.00967
77.25 0.01561
77.3 0.01602
77.35 0.01133
77.4 0.00987
77.45 0.01141
77.5 0.01153
77.55 0.0084
77.6 0.00601
77.65 0.00134
77.7 -0.00592
77.75 -0.00777
77.8 -0.00606
77.85 -0.00164
77.9 0.00385
77.95 0.00694
78 0.01157
78.05 0.01734
78.1 0.02224
78.15 0.02639
78.2 0.02461
78.25 0.02184
78.3 0.01803
78.35 0.0173
78.4 0.01091
78.45 0.00288
78.5 0.00098
78.55 -0.00333
78.6 -0.00816
78.65 -0.01089
78.7 -0.01538
78.75 -0.01731
78.8 -0.02076
78.85 -0.02156
78.9 -0.01645
78.95 -0.0089
79 -0.00132
79.05 0.00412
79.1 0.0037
79.15 0.00306
79.2 -0.00296
79.25 -0.01009
79.3 -0.014
79.35 -0.01639
79.4 -0.01416
79.45 -0.00807
79.5 -0.0087
79.55 -0.01238
79.6 -0.01682
79.65 -0.02201
79.7 -0.02737
79.75 -0.03314
79.8 -0.03914
79.85 -0.04234
79.9 -0.04189
79.95 -0.0359
80 -0.03322
80.05 -0.02886
80.1 -0.02484
80.15 -0.01826
80.2 -0.0084
80.25 -0.0043
80.3 -0.00538
80.35 -0.00245
80.4 -0.00152
80.45 -0.00476
80.5 -0.00794
80.55 -0.00654
80.6 -0.00265
80.65 -0.00333
80.7 -0.00076
80.75 0.00474
80.8 0.0046
80.85 0.00202
80.9 0.00162
80.95 -0.00249
81 -0.00034
81.05 0.0041
81.1 0.00808
81.15 0.01413
81.2 0.01282
81.25 0.00808
81.3 0.00778
81.35 0.0021
81.4 -0.00521
81.45 -0.00848
81.5 -0.01142
81.55 -0.01028
81.6 -0.00901
81.65 -0.01142
81.7 -0.01518
81.75 -0.01533
81.8 -0.01112
81.85 -0.00623
81.9 0.00176
81.95 0.00224
82 0.00043
82.05 -0.00062
82.1 -0.00372
82.15 -0.00804
82.2 -0.01415
82.25 -0.01879
82.3 -0.02203
82.35 -0.02349
82.4 -0.01878
82.45 -0.01121
82.5 -0.00943
82.55 -0.00672
82.6 -0.00423
82.65 0.00047
82.7 0.00495
82.75 0.0054
82.8 0.00937
82.85 0.01437
82.9 0.01174
82.95 0.00579
83 0.00042
83.05 -0.00024
83.1 -0.00483
83.15 -0.00634
83.2 -0.01006
83.25 -0.00817
83.3 -0.0085
83.35 -0.01189
83.4 -0.01302
83.45 -0.01252
83.5 -0.01531
83.55 -0.01884
83.6 -0.01742
83.65 -0.0172
83.7 -0.014
83.75 -0.01298
83.8 -0.00775
83.85 -0.00434
83.9 -0.00517
83.95 -0.00317
84 -0.00597
84.05 -0.00788
84.1 -0.00892
84.15 -0.00912
84.2 -0.01138
84.25 -0.00981
84.3 -0.00863
84.35 -0.0103
84.4 -0.00567
84.45 0.00059
84.5 0.0027
84.55 0.00783
84.6 0.01461
84.65 0.01325
84.7 0.01058
84.75 0.00756
84.8 0.00359
84.85 -0.00271
84.9 -0.01057
84.95 -0.01452
85 -0.01777
85.05 -0.01951
85.1 -0.01634
85.15 -0.01158
85.2 -0.00368
85.25 0.00259
85.3 0.0075
85.35 0.00966
85.4 0.00901
85.45 0.01151
85.5 0.0103
85.55 0.0111
85.6 0.01446
85.65 0.01706
85.7 0.02136
85.75 0.01945
85.8 0.01679
85.85 0.01684
85.9 0.01963
85.95 0.02353
86 0.02386
86.05 0.02344
86.1 0.02135
86.15 0.02225
86.2 0.02094
86.25 0.01938
86.3 0.01362
86.35 0.00851
86.4 0.00406
86.45 0.00444
86.5 0.00454
86.55 0.00846
86.6 0.00565
86.65 0.00713
86.7 0.00461
86.75 0.00188
86.8 -0.00178
86.85 0.00049
86.9 -0.00166
86.95 -0.00083
87 0.00099
87.05 0.00196
87.1 0.00585
87.15 0.01206
87.2 0.01581
87.25 0.01998
87.3 0.01796
87.35 0.0134
87.4 0.00686
87.45 0.00434
87.5 -0.00216
87.55 -0.00966
87.6 -0.00941
87.65 -0.01268
87.7 -0.01506
87.75 -0.01288
87.8 -0.00806
87.85 -0.00622
87.9 -0.00711
87.95 -0.00767
88 -0.00834
88.05 -0.0103
88.1 -0.00715
88.15 -0.00639
88.2 -0.00694
88.25 -0.00507
88.3 -0.00497
88.35 -0.0008
88.4 0.00452
88.45 0.00333
88.5 0.00508
88.55 0.00764
88.6 0.0087
88.65 0.01128
88.7 0.01511
88.75 0.01552
88.8 0.0108
88.85 0.00269
88.9 -0.0016
88.95 -0.00869
89 -0.01624
89.05 -0.01845
89.1 -0.02324
89.15 -0.02911
89.2 -0.02667
89.25 -0.02676
89.3 -0.02645
89.35 -0.02256
89.4 -0.0167
89.45 -0.00907
89.5 -0.00017
89.55 0.0102
89.6 0.01962
89.65 0.02097
89.7 0.01622
89.75 0.00911
89.8 0.00601
89.85 0.00624
89.9 0.00944
89.95 0.00784
90 0.00502
90.05 0.00191
90.1 0.00418
90.15 0.00954
90.2 0.01238
90.25 0.0152
90.3 0.01903
90.35 0.02248
90.4 0.01861
90.45 0.01438
90.5 0.00927
90.55 0.00766
90.6 0.0067
90.65 0.00592
90.7 0.00084
90.75 -0.00422
90.8 -0.00753
90.85 -0.00791
90.9 -0.00642
90.95 -0.00562
91 -0.00778
91.05 -0.01163
91.1 -0.01675
91.15 -0.02059
91.2 -0.02607
91.25 -0.03077
91.3 -0.03575
91.35 -0.03667
91.4 -0.03679
91.45 -0.02926
91.5 -0.01959
91.55 -0.01096
91.6 -0.00761
91.65 -0.00193
91.7 0.00463
91.75 0.01104
91.8 0.01372
91.85 0.01286
91.9 0.01198
91.95 0.01136
92 0.00637
92.05 0.00614
92.1 0.00353
92.15 -0.0002
92.2 -0.005
92.25 -0.0096
92.3 -0.0084
92.35 -0.00692
92.4 -0.00284
92.45 -0.00028
92.5 -0.00274
92.55 -0.00783
92.6 -0.01015
92.65 -0.01005
92.7 -0.01279
92.75 -0.01587
92.8 -0.01769
92.85 -0.01633
92.9 -0.01263
92.95 -0.00857
93 -0.0074
93.05 -0.01063
93.1 -0.00867
93.15 -0.00646
93.2 -0.00135
93.25 0.00446
93.3 0.00477
93.35 0.00077
93.4 0.00135
93.45 -0.00003
93.5 -0.00506
93.55 -0.00316
93.6 -0.00203
93.65 -0.00254
93.7 -0.00189
93.75 -0.00571
93.8 -0.0114
93.85 -0.01662
93.9 -0.02172
93.95 -0.02545
94 -0.02998
94.05 -0.0321
94.1 -0.03211
94.15 -0.03287
94.2 -0.0339
94.25 -0.02884
94.3 -0.0217
94.35 -0.01582
94.4 -0.0149
94.45 -0.01548
94.5 -0.01441
94.55 -0.0085
94.6 -0.00193
94.65 0.00008
94.7 0.00347
94.75 0.00365
94.8 0.00465
94.85 0.00263
94.9 -0.00183
94.95 -0.00223
95 0.00222
95.05 0.00854
95.1 0.01228
95.15 0.01328
95.2 0.01475
95.25 0.01526
95.3 0.01922
95.35 0.019
95.4 0.01622
95.45 0.01382
95.5 0.01487
95.55 0.01758
95.6 0.01636
95.65 0.01028
95.7 0.00187
95.75 -0.00474
95.8 -0.01011
95.85 -0.01649
95.9 -0.01709
95.95 -0.01395
96 -0.01504
96.05 -0.01354
96.1 -0.01274
96.15 -0.0118
96.2 -0.00507
96.25 -0.00213
96.3 0.00364
96.35 0.00947
96.4 0.01283
96.45 0.01498
96.5 0.0137
96.55 0.01289
96.6 0.01486
96.65 0.01772
96.7 0.01545
96.75 0.01663
96.8 0.01788
96.85 0.02038
96.9 0.01739
96.95 0.01437
97 0.00987
97.05 0.00872
97.1 0.00766
97.15 0.0059
97.2 0.00297
97.25 0.00229
97.3 -0.00157
97.35 -0.0067
97.4 -0.0137
97.45 -0.02137
97.5 -0.02749
97.55 -0.02447
97.6 -0.0246
97.65 -0.02548
97.7 -0.02453
97.75 -0.02297
97.8 -0.02315
97.85 -0.02176
97.9 -0.02141
97.95 -0.02052
98 -0.02245
98.05 -0.01753
98.1 -0.00956
98.15 -0.0005
98.2 0.00938
98.25 0.01108
98.3 0.01416
98.35 0.01208
98.4 0.00672
98.45 0.00619
98.5 0.00486
98.55 0.00519
98.6 0.00729
98.65 0.00667
98.7 0.00592
98.75 0.00943
98.8 0.01216
98.85 0.01457
98.9 0.01906
98.95 0.02288
99 0.02725
99.05 0.02681
99.1 0.0247
99.15 0.0173
99.2 0.00956
99.25 0.00453
99.3 0.00023
99.35 -0.00005
99.4 -0.00383
99.45 -0.00479
99.5 -0.00405
99.55 -0.00319
99.6 -0.00241
99.65 -0.00288
99.7 -0.00584
99.75 -0.0103
99.8 -0.01511
99.85 -0.01844
99.9 -0.01852
99.95 -0.01762
