0 0
0.05 0.00907
0.1 0.01958
0.15 0.02643
0.2 0.02907
0.25 0.03377
0.3 0.03618
0.35 0.036
0.4 0.04028
0.45 0.04258
0.5 0.042
0.55 0.0453
0.6 0.05065
0.65 0.05339
0.7 0.05617
0.75 0.06178
0.8 0.06183
0.85 0.05835
0.9 0.05267
0.95 0.05171
1 0.05205
1.05 0.04896
1.1 0.04463
1.15 0.04399
1.2 0.03963
1.25 0.0375
1.3 0.03879
1.35 0.03521
1.4 0.0308
1.45 0.02661
1.5 0.02945
1.55 0.03227
1.6 0.03885
1.65 0.03844
1.7 0.03676
1.75 0.03696
1.8 0.03263
1.85 0.03244
1.9 0.02844
1.95 0.02643
2 0.02399
2.05 0.02484
2.1 0.02268
2.15 0.02149
2.2 0.02399
2.25 0.02382
2.3 0.02366
2.35 0.02564
2.4 0.02407
2.45 0.02543
2.5 0.02677
2.55 0.03199
2.6 0.03321
2.65 0.02898
2.7 0.02618
2.75 0.02604
2.8 0.02235
2.85 0.01698
2.9 0.01601
2.95 0.01951
3 0.02523
3.05 0.03222
3.1 0.03976
3.15 0.04666
3.2 0.04707
3.25 0.04788
3.3 0.04279
3.35 0.04185
3.4 0.03556
3.45 0.02877
3.5 0.02509
3.55 0.02429
3.6 0.02379
3.65 0.02292
3.7 0.01976
3.75 0.01867
3.8 0.01326
3.85 0.01426
3.9 0.01571
3.95 0.01346
4 0.01628
4.05 0.01763
4.1 0.01318
4.15 0.00712
4.2 0.00176
4.25 -0.0046
4.3 -0.00683
4.35 -0.00447
4.4 -0.0048
4.45 -0.00276
4.5 -0.00822
4.55 -0.01728
4.6 -0.02763
4.65 -0.04384
4.7 -0.06062
4.75 -0.07851
4.8 -0.10068
4.85 -0.12896
4.9 -0.15497
4.95 -0.1861
5 -0.22177
5.05 -0.26438
5.1 -0.30787
5.15 -0.35594
5.2 -0.40883
5.25 -0.46922
5.3 -0.53628
5.35 -0.60876
5.4 -0.68383
5.45 -0.76311
5.5 -0.83979
5.55 -0.91532
5.6 -0.98795
5.65 -1.05911
5.7 -1.12302
5.75 -1.18714
5.8 -1.24783
5.85 -1.30779
5.9 -1.36246
5.95 -1.40466
6 -1.43905
6.05 -1.46927
6.1 -1.48907
6.15 -1.50766
6.2 -1.52255
6.25 -1.53205
6.3 -1.53702
6.35 -1.53697
6.4 -1.52911
6.45 -1.50994
6.5 -1.48827
6.55 -1.45665
6.6 -1.41848
6.65 -1.37637
6.7 -1.32604
6.75 -1.27034
6.8 -1.20688
6.85 -1.13543
6.9 -1.05892
6.95 -0.97146
7 -0.87572
7.05 -0.77317
7.1 -0.66381
7.15 -0.5529
7.2 -0.43953
7.25 -0.32305
7.3 -0.20425
7.35 -0.0844
7.4 0.03349
7.45 0.15321
7.5 0.27601
7.55 0.40184
7.6 0.52365
7.65 0.64021
7.7 0.75101
7.75 0.84785
7.8 0.93503
7.85 1.01611
7.9 1.09309
7.95 1.166
8 1.23302
8.05 1.29162
8.1 1.34041
8.15 1.37352
8.2 1.39975
8.25 1.41601
8.3 1.42564
8.35 1.43424
8.4 1.43831
8.45 1.44225
8.5 1.44017
8.55 1.43327
8.6 1.42913
8.65 1.4187
8.7 1.40631
8.75 1.38923
8.8 1.3746
8.85 1.36328
8.9 1.34514
8.95 1.32653
9 1.30867
9.05 1.29113
9.1 1.27028
9.15 1.24912
9.2 1.2272
9.25 1.20552
9.3 1.18294
9.35 1.15796
9.4 1.12808
9.45 1.1008
9.5 1.07079
9.55 1.04549
9.6 1.02305
9.65 0.99378
9.7 0.96145
9.75 0.92946
9.8 0.90224
9.85 0.8741
9.9 0.84777
9.95 0.8203
10 0.79688
10.05 0.77338
10.1 0.75384
10.15 0.7299
10.2 0.70711
10.25 0.68144
10.3 0.65512
10.35 0.62597
10.4 0.59979
10.45 0.57489
10.5 0.55356
10.55 0.53308
10.6 0.50839
10.65 0.4838
10.7 0.46388
10.75 0.44418
10.8 0.42141
10.85 0.39487
10.9 0.37008
10.95 0.35052
11 0.32614
11.05 0.30422
11.1 0.28364
11.15 0.26212
11.2 0.24419
11.25 0.22541
11.3 0.20677
11.35 0.18476
11.4 0.16637
11.45 0.14935
11.5 0.13297
11.55 0.1185
11.6 0.10299
11.65 0.0836
11.7 0.06644
11.75 0.04913
11.8 0.03245
11.85 0.01401
11.9 -0.00651
11.95 -0.02799
12 -0.05101
12.05 -0.06898
12.1 -0.08425
12.15 -0.09389
12.2 -0.10657
12.25 -0.11735
12.3 -0.12943
12.35 -0.137
12.4 -0.14286
12.45 -0.15228
12.5 -0.16494
12.55 -0.17217
12.6 -0.18141
12.65 -0.18596
12.7 -0.19065
12.75 -0.19476
12.8 -0.19663
12.85 -0.19468
12.9 -0.19336
12.95 -0.19803
13 -0.20104
13.05 -0.20546
13.1 -0.20865
13.15 -0.21187
13.2 -0.21243
13.25 -0.21385
13.3 -0.212
13.35 -0.21261
13.4 -0.21683
13.45 -0.21816
13.5 -0.2228
13.55 -0.22633
13.6 -0.22794
13.65 -0.22421
13.7 -0.22261
13.75 -0.21969
13.8 -0.21534
13.85 -0.2076
13.9 -0.20532
13.95 -0.20821
14 -0.2071
14.05 -0.20815
14.1 -0.21189
14.15 -0.21464
14.2 -0.21475
14.25 -0.21052
14.3 -0.20605
14.35 -0.1978
14.4 -0.19412
14.45 -0.18905
14.5 -0.18853
14.55 -0.18416
14.6 -0.17625
14.65 -0.17512
14.7 -0.17654
14.75 -0.17968
14.8 -0.18457
14.85 -0.18354
14.9 -0.17905
14.95 -0.17595
15 -0.17155
15.05 -0.17066
15.1 -0.16471
15.15 -0.15819
15.2 -0.14897
15.25 -0.14404
15.3 -0.14252
15.35 -0.14336
15.4 -0.14302
15.45 -0.14491
15.5 -0.14281
15.55 -0.14299
15.6 -0.1399
15.65 -0.13436
15.7 -0.12717
15.75 -0.12499
15.8 -0.12106
15.85 -0.11707
15.9 -0.11595
15.95 -0.11565
16 -0.11185
16.05 -0.10963
16.1 -0.11089
16.15 -0.11643
16.2 -0.12402
16.25 -0.1321
16.3 -0.13526
16.35 -0.13159
16.4 -0.12502
16.45 -0.11983
16.5 -0.11662
16.55 -0.11677
16.6 -0.11204
16.65 -0.10632
16.7 -0.10041
16.75 -0.09259
16.8 -0.08892
16.85 -0.09006
16.9 -0.0892
16.95 -0.08968
17 -0.09327
17.05 -0.09029
17.1 -0.08845
17.15 -0.08551
17.2 -0.07885
17.25 -0.07195
17.3 -0.06986
17.35 -0.06903
17.4 -0.06878
17.45 -0.06763
17.5 -0.06842
17.55 -0.06743
17.6 -0.06404
17.65 -0.06404
17.7 -0.06889
17.75 -0.07594
17.8 -0.07934
17.85 -0.07647
17.9 -0.07236
17.95 -0.06597
18 -0.06199
18.05 -0.06255
18.1 -0.06506
18.15 -0.06334
18.2 -0.06496
18.25 -0.06939
18.3 -0.0759
18.35 -0.08269
18.4 -0.08639
18.45 -0.08973
18.5 -0.08416
18.55 -0.07716
18.6 -0.07322
18.65 -0.07235
18.7 -0.07228
18.75 -0.06767
18.8 -0.0659
18.85 -0.06547
18.9 -0.05946
18.95 -0.05623
19 -0.05586
19.05 -0.05469
19.1 -0.05277
19.15 -0.05362
19.2 -0.05034
19.25 -0.04361
19.3 -0.0387
19.35 -0.03541
19.4 -0.03259
19.45 -0.02904
19.5 -0.02997
19.55 -0.03544
19.6 -0.03589
19.65 -0.03717
19.7 -0.03453
19.75 -0.03203
19.8 -0.02673
19.85 -0.02213
19.9 -0.01605
19.95 -0.01324
20 -0.01113
20.05 -0.01364
20.1 -0.0186
20.15 -0.02139
20.2 -0.02333
20.25 -0.02889
20.3 -0.02943
20.35 -0.02562
20.4 -0.02163
20.45 -0.01955
20.5 -0.0157
20.55 -0.01182
20.6 -0.01479
20.65 -0.02218
20.7 -0.03049
20.75 -0.03858
20.8 -0.04704
20.85 -0.05092
20.9 -0.05551
20.95 -0.05169
21 -0.04799
21.05 -0.04374
21.1 -0.0387
21.15 -0.03422
21.2 -0.03075
21.25 -0.02457
21.3 -0.02445
21.35 -0.02015
21.4 -0.01376
21.45 -0.01466
21.5 -0.01146
21.55 -0.00558
21.6 -0.00704
21.65 -0.00466
21.7 -0.00252
21.75 0.00203
21.8 0.00006
21.85 -0.00376
21.9 -0.00523
21.95 -0.00708
22 -0.00754
22.05 -0.00426
22.1 -0.00055
22.15 -0.00256
22.2 -0.00411
22.25 -0.00899
22.3 -0.01342
22.35 -0.01789
22.4 -0.01893
22.45 -0.01621
22.5 -0.01188
22.55 -0.00877
22.6 -0.00828
22.65 -0.00865
22.7 -0.00689
22.75 -0.00613
22.8 -0.00707
22.85 -0.01141
22.9 -0.01862
22.95 -0.02343
23 -0.02498
23.05 -0.02463
23.1 -0.02835
23.15 -0.02661
23.2 -0.02337
23.25 -0.02103
23.3 -0.01788
23.35 -0.01277
23.4 -0.01334
23.45 -0.01617
23.5 -0.01308
23.55 -0.00941
23.6 -0.00381
23.65 0.00303
23.7 0.01067
23.75 0.01219
23.8 0.00691
23.85 0.00612
23.9 0.00336
23.95 0.00355
24 -0.00195
24.05 -0.00598
24.1 -0.00851
24.15 -0.00617
24.2 -0.0022
24.25 0.00159
24.3 -0.00166
24.35 -0.00744
24.4 -0.01184
24.45 -0.01523
24.5 -0.01506
24.55 -0.01006
24.6 -0.00955
24.65 -0.01169
24.7 -0.01317
24.75 -0.01037
24.8 -0.01126
24.85 -0.00843
24.9 -0.00914
24.95 -0.01113
25 -0.01251
25.05 -0.01165
25.1 -0.00687
25.15 -0.00553
25.2 -0.00474
25.25 -0.0021
25.3 -0.00223
25.35 -0.00657
25.4 -0.01214
25.45 -0.01527
25.5 -0.01312
25.55 -0.01198
25.6 -0.01185
25.65 -0.01357
25.7 -0.01067
25.75 -0.00626
25.8 -0.00802
25.85 -0.0104
25.9 -0.00809
25.95 -0.00513
26 -0.00479
26.05 -0.00236
26.1 -0.00171
26.15 0.00022
26.2 -0.00165
26.25 -0.00213
26.3 -0.00289
26.35 -0.00523
26.4 -0.00377
26.45 -0.00572
26.5 -0.00927
26.55 -0.01045
26.6 -0.00832
26.65 -0.00416
26.7 -0.00325
26.75 -0.0031
26.8 -0.00296
26.85 -0.00362
26.9 -0.00731
26.95 -0.01111
27 -0.01237
27.05 -0.01571
27.1 -0.02055
27.15 -0.02521
27.2 -0.03121
27.25 -0.03048
27.3 -0.03041
27.35 -0.03225
27.4 -0.02976
27.45 -0.02367
27.5 -0.02233
27.55 -0.02336
27.6 -0.01927
27.65 -0.01622
27.7 -0.01525
27.75 -0.01362
27.8 -0.00975
27.85 -0.00596
27.9 -0.00771
27.95 -0.00891
28 -0.0182
28.05 -0.0246
28.1 -0.0317
28.15 -0.03734
28.2 -0.04897
28.25 -0.06469
28.3 -0.07922
28.35 -0.09557
28.4 -0.11043
28.45 -0.13211
28.5 -0.15409
28.55 -0.18253
28.6 -0.21028
28.65 -0.23436
28.7 -0.26443
28.75 -0.29886
28.8 -0.33629
28.85 -0.37295
28.9 -0.40864
28.95 -0.44288
29 -0.47999
29.05 -0.51948
29.1 -0.5619
29.15 -0.60965
29.2 -0.65506
29.25 -0.70203
29.3 -0.74725
29.35 -0.79353
29.4 -0.84122
29.45 -0.89046
29.5 -0.93823
29.55 -0.97866
29.6 -1.01323
29.65 -1.05075
29.7 -1.07899
29.75 -1.10648
29.8 -1.12537
29.85 -1.14271
29.9 -1.14959
29.95 -1.1465
30 -1.14278
30.05 -1.12748
30.1 -1.10431
30.15 -1.07581
30.2 -1.04583
30.25 -1.00607
30.3 -0.96223
30.35 -0.90934
30.4 -0.85248
30.45 -0.78744
30.5 -0.7142
30.55 -0.6351
30.6 -0.5532
30.65 -0.47033
30.7 -0.38458
30.75 -0.29449
30.8 -0.20727
30.85 -0.11758
30.9 -0.02958
30.95 0.05749
31 0.13492
31.05 0.20599
31.1 0.27005
31.15 0.33446
31.2 0.39295
31.25 0.4513
31.3 0.50868
31.35 0.55881
31.4 0.60868
31.45 0.65516
31.5 0.69752
31.55 0.73312
31.6 0.76328
31.65 0.78834
31.7 0.80431
31.75 0.81832
31.8 0.83029
31.85 0.8407
31.9 0.84615
31.95 0.85631
32 0.86346
32.05 0.86747
32.1 0.87842
32.15 0.88628
32.2 0.89115
32.25 0.89782
32.3 0.90071
32.35 0.90976
32.4 0.9139
32.45 0.91496
32.5 0.91543
32.55 0.91802
32.6 0.91951
32.65 0.92085
32.7 0.92376
32.75 0.92375
32.8 0.92037
32.85 0.9161
32.9 0.90653
32.95 0.89323
33 0.88373
33.05 0.86942
33.1 0.85723
33.15 0.84287
33.2 0.82696
33.25 0.80653
33.3 0.78705
33.35 0.76648
33.4 0.745
33.45 0.7282
33.5 0.70663
33.55 0.6819
33.6 0.65432
33.65 0.6334
33.7 0.60862
33.75 0.58243
33.8 0.56026
33.85 0.53503
33.9 0.51204
33.95 0.49063
34 0.47024
34.05 0.45402
34.1 0.43874
34.15 0.41959
34.2 0.39598
34.25 0.36989
34.3 0.34122
34.35 0.31488
34.4 0.29357
34.45 0.2759
34.5 0.2614
34.55 0.24204
34.6 0.21993
34.65 0.19719
34.7 0.17587
34.75 0.15553
34.8 0.14105
34.85 0.12382
34.9 0.10967
34.95 0.09851
35 0.08459
35.05 0.07164
35.1 0.06323
35.15 0.05409
35.2 0.03943
35.25 0.02373
35.3 0.01244
35.35 -0.00195
35.4 -0.01427
35.45 -0.02701
35.5 -0.04239
35.55 -0.05276
35.6 -0.05794
35.65 -0.06625
35.7 -0.07382
35.75 -0.08424
35.8 -0.09143
35.85 -0.09348
35.9 -0.10041
35.95 -0.10435
36 -0.10474
36.05 -0.11014
36.1 -0.11564
36.15 -0.1164
36.2 -0.11584
36.25 -0.12034
36.3 -0.12192
36.35 -0.12126
36.4 -0.12718
36.45 -0.13097
36.5 -0.13583
36.55 -0.13768
36.6 -0.13585
36.65 -0.13798
36.7 -0.13702
36.75 -0.13578
36.8 -0.13576
36.85 -0.1335
36.9 -0.13048
36.95 -0.13136
37 -0.13184
37.05 -0.13797
37.1 -0.14704
37.15 -0.15247
37.2 -0.15272
37.25 -0.15509
37.3 -0.15269
37.35 -0.15209
37.4 -0.15014
37.45 -0.15305
37.5 -0.15665
37.55 -0.15429
37.6 -0.14956
37.65 -0.14946
37.7 -0.14879
37.75 -0.14717
37.8 -0.14604
37.85 -0.142
37.9 -0.13494
37.95 -0.12681
38 -0.11821
38.05 -0.11902
38.1 -0.12176
38.15 -0.12359
38.2 -0.12751
38.25 -0.1329
38.3 -0.13746
38.35 -0.14276
38.4 -0.14209
38.45 -0.13863
38.5 -0.13659
38.55 -0.13695
38.6 -0.13272
38.65 -0.12495
38.7 -0.11776
38.75 -0.11007
38.8 -0.10908
38.85 -0.10997
38.9 -0.11023
38.95 -0.10893
39 -0.10757
39.05 -0.10616
39.1 -0.10681
39.15 -0.10736
39.2 -0.10774
39.25 -0.11006
39.3 -0.10891
39.35 -0.1081
39.4 -0.10658
39.45 -0.10753
39.5 -0.10385
39.55 -0.10366
39.6 -0.10296
39.65 -0.10298
39.7 -0.10284
39.75 -0.10291
39.8 -0.10342
39.85 -0.09948
39.9 -0.09714
39.95 -0.0909
40 -0.08678
40.05 -0.08729
40.1 -0.08698
40.15 -0.08813
40.2 -0.08926
40.25 -0.09082
40.3 -0.0932
40.35 -0.09491
40.4 -0.09691
40.45 -0.09186
40.5 -0.08972
40.55 -0.08361
40.6 -0.07761
40.65 -0.07477
40.7 -0.06741
40.75 -0.06533
40.8 -0.06722
40.85 -0.06644
40.9 -0.06885
40.95 -0.06905
41 -0.06438
41.05 -0.05613
41.1 -0.04809
41.15 -0.04448
41.2 -0.04154
41.25 -0.04168
41.3 -0.03862
41.35 -0.04107
41.4 -0.04366
41.45 -0.04277
41.5 -0.04061
41.55 -0.044
41.6 -0.04853
41.65 -0.0505
41.7 -0.05098
41.75 -0.04745
41.8 -0.04725
41.85 -0.04986
41.9 -0.05515
41.95 -0.0525
42 -0.04567
42.05 -0.04232
42.1 -0.03842
42.15 -0.03592
42.2 -0.03457
42.25 -0.02912
42.3 -0.02831
42.35 -0.03194
42.4 -0.0355
42.45 -0.03685
42.5 -0.04138
42.55 -0.04694
42.6 -0.05073
42.65 -0.05322
42.7 -0.05552
42.75 -0.05643
42.8 -0.0522
42.85 -0.04868
42.9 -0.04425
42.95 -0.03835
43 -0.03422
43.05 -0.02899
43.1 -0.02328
43.15 -0.02154
43.2 -0.01982
43.25 -0.01872
43.3 -0.01741
43.35 -0.01976
43.4 -0.02362
43.45 -0.02645
43.5 -0.02636
43.55 -0.02811
43.6 -0.02464
43.65 -0.02202
43.7 -0.01995
43.75 -0.02226
43.8 -0.02099
43.85 -0.02437
43.9 -0.02573
43.95 -0.02877
44 -0.03115
44.05 -0.02778
44.1 -0.02697
44.15 -0.02299
44.2 -0.02235
44.25 -0.01785
44.3 -0.01544
44.35 -0.01246
44.4 -0.00613
44.45 -0.00538
44.5 -0.00138
44.55 0.00202
44.6 0.00498
44.65 0.00602
44.7 0.00466
44.75 0.00459
44.8 0.00566
44.85 0.00865
44.9 0.0095
44.95 0.00832
45 0.00542
45.05 0.00047
45.1 -0.00026
45.15 -0.00559
45.2 -0.00766
45.25 -0.01016
45.3 -0.00992
45.35 -0.00743
45.4 -0.00371
45.45 -0.00677
45.5 -0.01013
45.55 -0.00878
45.6 -0.00605
45.65 -0.00928
45.7 -0.01305
45.75 -0.0127
45.8 -0.00966
45.85 -0.00366
45.9 -0.0003
45.95 -0.00347
46 -0.00593
46.05 -0.00477
46.1 -0.00556
46.15 -0.0026
46.2 0.00143
46.25 0.0069
46.3 0.01224
46.35 0.01412
46.4 0.01189
46.45 0.01195
46.5 0.00993
46.55 0.00262
46.6 -0.00678
46.65 -0.01405
46.7 -0.01621
46.75 -0.01949
46.8 -0.01837
46.85 -0.01849
46.9 -0.01534
46.95 -0.01762
47 -0.01709
47.05 -0.0192
47.1 -0.01893
47.15 -0.01777
47.2 -0.01508
47.25 -0.01233
47.3 -0.01473
47.35 -0.01848
47.4 -0.01878
47.45 -0.02174
47.5 -0.01867
47.55 -0.01336
47.6 -0.01348
47.65 -0.00969
47.7 -0.00709
47.75 -0.00948
47.8 -0.01169
47.85 -0.01385
47.9 -0.0119
47.95 -0.0077
48 -0.00769
48.05 -0.0054
48.1 0.00049
48.15 0.00473
48.2 0.00992
48.25 0.01299
48.3 0.01191
48.35 0.00661
48.4 0.00171
48.45 -0.00657
48.5 -0.0153
48.55 -0.02113
48.6 -0.02738
48.65 -0.02626
48.7 -0.02401
48.75 -0.01999
48.8 -0.01799
48.85 -0.01396
48.9 -0.01387
48.95 -0.01006
49 -0.00727
49.05 -0.00166
49.1 0.0039
49.15 0.00499
49.2 0.00491
49.25 0.00449
49.3 0.00069
49.35 -0.00352
49.4 -0.01032
49.45 -0.01111
49.5 -0.01161
49.55 -0.01304
49.6 -0.01801
49.65 -0.02199
49.7 -0.02604
49.75 -0.02917
49.8 -0.0332
49.85 -0.03012
49.9 -0.02883
49.95 -0.02658
50 -0.02456
50.05 -0.02327
50.1 -0.01778
50.15 -0.0117
50.2 -0.0048
50.25 -0.00412
50.3 -0.00562
50.35 -0.00555
50.4 -0.00689
50.45 -0.01074
50.5 -0.01548
50.55 -0.01813
50.6 -0.02046
50.65 -0.01739
50.7 -0.01039
50.75 -0.00548
50.8 0.00013
50.85 -0.00103
50.9 -0.00588
50.95 -0.01284
51 -0.02045
51.05 -0.02135
51.1 -0.02439
51.15 -0.026
51.2 -0.02041
51.25 -0.01735
51.3 -0.01148
51.35 -0.01004
51.4 -0.00881
51.45 -0.00883
51.5 -0.00807
51.55 -0.00948
51.6 -0.00716
51.65 -0.00166
51.7 -0.00062
51.75 0.00269
51.8 0.00381
51.85 0.00545
51.9 0.00287
51.95 0.00165
52 0.00374
52.05 0.00265
52.1 0.00422
52.15 0.00376
52.2 0.00104
52.25 0.00079
52.3 0.00452
52.35 0.00524
52.4 0.00864
52.45 0.01031
52.5 0.01175
52.55 0.00969
52.6 0.00514
52.65 0.00375
52.7 0.00409
52.75 0.0041
52.8 0.0071
52.85 0.01291
52.9 0.01224
52.95 0.01412
53 0.01838
53.05 0.02186
53.1 0.02664
53.15 0.02541
53.2 0.02185
53.25 0.01525
53.3 0.00767
53.35 0.0033
53.4 0.00426
53.45 0.00075
53.5 0.00177
53.55 0.00357
53.6 0.00106
53.65 -0.00156
53.7 -0.00056
53.75 0.00003
53.8 0.00157
53.85 0.00691
53.9 0.00899
53.95 0.00555
54 0.00424
54.05 0.00084
54.1 -0.0033
54.15 -0.0073
54.2 -0.00819
54.25 -0.0101
54.3 -0.01136
54.35 -0.01432
54.4 -0.01823
54.45 -0.01984
54.5 -0.02165
54.55 -0.01901
54.6 -0.01114
54.65 -0.00722
54.7 -0.00072
54.75 -0.00078
54.8 0.00266
54.85 0.00288
54.9 0.00668
54.95 0.01074
55 0.00886
55.05 0.00811
55.1 0.00734
55.15 0.00461
55.2 0.00618
55.25 0.00718
55.3 0.00773
55.35 0.00386
55.4 -0.00086
55.45 0.00052
55.5 0.00423
55.55 0.00547
55.6 0.00337
55.65 0.00032
55.7 -0.00307
55.75 -0.00101
55.8 0.00337
55.85 0.003
55.9 0.00631
55.95 0.00421
56 0.00393
56.05 0.00362
56.1 -0.00091
56.15 -0.00331
56.2 -0.00297
56.25 -0.00716
56.3 -0.01379
56.35 -0.01387
56.4 -0.01531
56.45 -0.014
56.5 -0.01245
56.55 -0.01385
56.6 -0.01046
56.65 -0.00994
56.7 -0.00762
56.75 -0.01012
56.8 -0.00935
56.85 -0.01182
56.9 -0.01564
56.95 -0.01855
57 -0.01618
57.05 -0.0158
57.1 -0.01114
57.15 -0.00536
57.2 0.00269
57.25 0.01001
57.3 0.01858
57.35 0.02509
57.4 0.03056
57.45 0.03081
57.5 0.03096
57.55 0.032
57.6 0.03456
57.65 0.03283
57.7 0.03291
57.75 0.03079
57.8 0.02684
57.85 0.02203
57.9 0.01633
57.95 0.01087
58 0.00329
58.05 -0.00496
58.1 -0.00859
58.15 -0.00837
58.2 -0.00795
58.25 -0.01178
58.3 -0.01672
58.35 -0.01404
58.4 -0.01026
58.45 -0.00274
58.5 -0.00194
58.55 -0.00222
58.6 -0.00242
58.65 -0.00485
58.7 -0.00343
58.75 0.00219
58.8 0.0031
58.85 0.00655
58.9 0.01253
58.95 0.01527
59 0.01279
59.05 0.01382
59.1 0.01398
59.15 0.01076
59.2 0.00983
59.25 0.00824
59.3 0.0069
59.35 0.00603
59.4 0.00258
59.45 0.00254
59.5 0.00599
59.55 0.0052
59.6 0.00396
59.65 0.00479
59.7 0.00687
59.75 0.00911
59.8 0.01184
59.85 0.01019
59.9 0.00648
59.95 0.00448
60 -0.00143
60.05 -0.00955
60.1 -0.01622
60.15 -0.02369
60.2 -0.02807
60.25 -0.0254
60.3 -0.02653
60.35 -0.02288
60.4 -0.01646
60.45 -0.01433
60.5 -0.01322
60.55 -0.00776
60.6 -0.00643
60.65 -0.00597
60.7 -0.00877
60.75 -0.01142
60.8 -0.01082
60.85 -0.01399
60.9 -0.01123
60.95 -0.00942
61 -0.01094
61.05 -0.01219
61.1 -0.01596
61.15 -0.01276
61.2 -0.01276
61.25 -0.00887
61.3 -0.00274
61.35 0.00014
61.4 0.00211
61.45 0.0078
61.5 0.00898
61.55 0.0113
61.6 0.01031
61.65 0.01124
61.7 0.00913
61.75 0.01126
61.8 0.01094
61.85 0.01393
61.9 0.0118
61.95 0.00827
62 0.00307
62.05 -0.00355
62.1 -0.00812
62.15 -0.01474
62.2 -0.01696
62.25 -0.01673
62.3 -0.0141
62.35 -0.01535
62.4 -0.01903
62.45 -0.01801
62.5 -0.01439
62.55 -0.01005
62.6 -0.01068
62.65 -0.00739
62.7 -0.00466
62.75 -0.0065
62.8 -0.00535
62.85 -0.0058
62.9 -0.00641
62.95 -0.00995
63 -0.00663
63.05 -0.00449
63.1 -0.00661
63.15 -0.00993
63.2 -0.00902
63.25 -0.00448
63.3 0.00049
63.35 0.00293
63.4 0.00852
63.45 0.01152
63.5 0.01213
63.55 0.00912
63.6 0.00209
63.65 -0.00208
63.7 0.00008
63.75 -0.00216
63.8 -0.00618
63.85 -0.01262
63.9 -0.01592
63.95 -0.01236
64 -0.00756
64.05 -0.00029
64.1 0.00508
64.15 0.00605
64.2 0.00494
64.25 0.00015
64.3 -0.00535
64.35 -0.00733
64.4 -0.00754
64.45 -0.00709
64.5 -0.00686
64.55 -0.00525
64.6 -0.00603
64.65 -0.00829
64.7 -0.00516
64.75 0.00168
64.8 0.01052
64.85 0.01547
64.9 0.0179
64.95 0.0208
65 0.02175
65.05 0.02442
65.1 0.0213
65.15 0.02079
65.2 0.02117
65.25 0.01903
65.3 0.01844
65.35 0.01342
65.4 0.00616
65.45 0.00007
65.5 -0.00772
65.55 -0.0136
65.6 -0.01722
65.65 -0.01812
65.7 -0.01672
65.75 -0.01471
65.8 -0.01026
65.85 -0.00353
65.9 0.00074
65.95 0.00563
66 0.00399
66.05 0.00458
66.1 0.00146
66.15 -0.00246
66.2 -0.0014
66.25 -0.00029
66.3 0.0023
66.35 -0.00102
66.4 0.00067
66.45 0.00539
66.5 0.01041
66.55 0.01102
66.6 0.01494
66.65 0.01501
66.7 0.01508
66.75 0.01254
66.8 0.00629
66.85 0.00037
66.9 -0.00587
66.95 -0.01067
67 -0.01456
67.05 -0.0133
67.1 -0.01441
67.15 -0.01552
67.2 -0.01169
67.25 -0.01309
67.3 -0.01432
67.35 -0.01437
67.4 -0.01641
67.45 -0.01986
67.5 -0.01978
67.55 -0.02222
67.6 -0.02271
67.65 -0.02576
67.7 -0.02241
67.75 -0.01952
67.8 -0.01252
67.85 -0.00777
67.9 0.00045
67.95 0.01027
68 0.01226
68.05 0.0129
68.1 0.0164
68.15 0.01475
68.2 0.01232
68.25 0.01301
68.3 0.01058
68.35 0.00685
68.4 0.00304
68.45 0.0046
68.5 0.0069
68.55 0.00513
68.6 0.00333
68.65 0.00559
68.7 0.01122
68.75 0.01621
68.8 0.01831
68.85 0.01786
68.9 0.01394
68.95 0.0094
69 0.00632
69.05 0.00014
69.1 -0.00721
69.15 -0.00869
69.2 -0.00517
69.25 -0.00336
69.3 0.00191
69.35 0.00389
69.4 0.00875
69.45 0.01175
69.5 0.0138
69.55 0.01573
69.6 0.0133
69.65 0.00787
69.7 0.00669
69.75 0.00915
69.8 0.00587
69.85 0.00577
69.9 0.00806
69.95 0.00981
70 0.00797
70.05 0.00259
70.1 -0.0044
70.15 -0.011
70.2 -0.01482
70.25 -0.01666
70.3 -0.01201
70.35 -0.00927
70.4 -0.0049
70.45 -0.00412
70.5 -0.00536
70.55 -0.00644
70.6 -0.00941
70.65 -0.01001
70.7 -0.00813
70.75 -0.00707
70.8 -0.00571
70.85 -0.0003
70.9 0.00144
70.95 0.0051
71 0.01008
71.05 0.0115
71.1 0.01086
71.15 0.00591
71.2 -0.00026
71.25 -0.00676
71.3 -0.01361
71.35 -0.01513
71.4 -0.01182
71.45 -0.00708
71.5 -0.00733
71.55 -0.00621
71.6 -0.00751
71.65 -0.00575
71.7 -0.00586
71.75 -0.00125
71.8 -0.00122
71.85 0.00122
71.9 0.0055
71.95 0.00879
72 0.00887
72.05 0.00916
72.1 0.00673
72.15 0.00621
72.2 0.00704
72.25 0.00916
72.3 0.00532
72.35 0.00339
72.4 0.00356
72.45 0.003
72.5 0.00052
72.55 -0.00261
72.6 -0.00774
72.65 -0.01447
72.7 -0.0179
72.75 -0.01904
72.8 -0.01452
72.85 -0.00975
72.9 -0.00645
72.95 -0.00454
73 -0.00618
73.05 -0.00741
73.1 -0.00663
73.15 -0.00471
73.2 -0.00125
73.25 0.00375
73.3 0.01053
73.35 0.01655
73.4 0.02241
73.45 0.02359
73.5 0.02088
73.55 0.01348
73.6 0.00671
73.65 0.00349
73.7 0.00325
73.75 0.00537
73.8 0.00151
73.85 -0.00045
73.9 -0.00017
73.95 -0.00326
74 -0.00656
74.05 -0.01155
74.1 -0.01007
74.15 -0.00498
74.2 -0.00465
74.25 0.00025
74.3 0.00609
74.35 0.00991
74.4 0.01426
74.45 0.01691
74.5 0.01403
74.55 0.01283
74.6 0.01324
74.65 0.00819
74.7 0.0081
74.75 0.00971
74.8 0.01315
74.85 0.01742
74.9 0.02201
74.95 0.02386
75 0.02408
75.05 0.02294
75.1 0.01718
75.15 0.0148
75.2 0.0082
75.25 0.00572
75.3 0.00105
75.35 -0.00156
75.4 -0.00796
75.45 -0.01606
75.5 -0.01943
75.55 -0.02066
75.6 -0.02306
75.65 -0.01955
75.7 -0.01601
75.75 -0.01579
75.8 -0.01879
75.85 -0.01962
75.9 -0.01718
75.95 -0.01259
76 -0.00941
76.05 -0.01154
76.1 -0.01408
76.15 -0.01835
76.2 -0.01933
76.25 -0.01454
76.3 -0.00888
76.35 -0.00079
76.4 0.00531
76.45 0.01299
76.5 0.01736
76.55 0.01717
76.6 0.01455
76.65 0.00843
76.7 0.00171
76.75 -0.00324
76.8 -0.00167
76.85 0.00292
76.9 0.00981
76.95 0.00898
77 0.00306
77.05 0.00161
77.1 0.00457
77.15 0.00122
77.2 -0.00364
77.25 -0.01044
77.3 -0.0115
77.35 -0.01196
77.4 -0.01224
77.45 -0.00801
77.5 -0.00355
77.55 -0.00303
77.6 -0.00304
77.65 -0.00174
77.7 0.00175
77.75 0.00608
77.8 0.01168
77.85 0.01582
77.9 0.01662
77.95 0.01727
78 0.01659
78.05 0.00994
78.1 0.00215
78.15 -0.00062
78.2 0.00035
78.25 -0.00082
78.3 0.00029
78.35 0.00317
78.4 0.00446
78.45 0.00214
78.5 0.00062
78.55 -0.00133
78.6 -0.00161
78.65 -0.00628
78.7 -0.00679
78.75 -0.00882
78.8 -0.00832
78.85 -0.00362
78.9 0.00156
78.95 0.00538
79 0.01038
79.05 0.01306
79.1 0.01025
79.15 0.00297
79.2 -0.00394
79.25 -0.01157
79.3 -0.01382
79.35 -0.01775
79.4 -0.02231
79.45 -0.02718
79.5 -0.02923
79.55 -0.03147
79.6 -0.02955
79.65 -0.02537
79.7 -0.01836
79.75 -0.01085
79.8 -0.0036
79.85 0.00162
79.9 0.00929
79.95 0.01281
80 0.01425
80.05 0.01372
80.1 0.01595
80.15 0.01786
80.2 0.02098
80.25 0.02295
80.3 0.02406
80.35 0.0258
80.4 0.02582
80.45 0.02163
80.5 0.01324
80.55 0.0031
80.6 0.00059
80.65 -0.0013
80.7 -0.0038
80.75 -0.00362
80.8 -0.00689
80.85 -0.0087
80.9 -0.01152
80.95 -0.0157
81 -0.01755
81.05 -0.01597
81.1 -0.01426
81.15 -0.01262
81.2 -0.01143
81.25 -0.00836
81.3 -0.0049
81.35 -0.00518
81.4 -0.00545
81.45 -0.00602
81.5 -0.00767
81.55 -0.01134
81.6 -0.01052
81.65 -0.00628
81.7 0.00118
81.75 0.00373
81.8 0.00674
81.85 0.01075
81.9 0.01346
81.95 0.01524
82 0.01896
82.05 0.02149
82.1 0.01643
82.15 0.00764
82.2 0.0021
82.25 0.00194
82.3 -0.00264
82.35 -0.00812
82.4 -0.00817
82.45 -0.00535
82.5 -0.00455
82.55 -0.00383
82.6 -0.00143
82.65 0.00047
82.7 0.00159
82.75 0.00439
82.8 0.00647
82.85 0.00292
82.9 -0.00269
82.95 -0.00542
83 -0.01006
83.05 -0.01471
83.1 -0.01753
83.15 -0.01496
83.2 -0.01397
83.25 -0.01249
83.3 -0.00877
83.35 -0.00141
83.4 0.00275
83.45 0.00092
83.5 0.0014
83.55 0.00276
83.6 0.00001
83.65 0.00071
83.7 0.0028
83.75 0.00119
83.8 -0.0034
83.85 -0.00928
83.9 -0.00797
83.95 -0.01084
84 -0.01366
84.05 -0.01656
84.1 -0.02036
84.15 -0.02507
84.2 -0.02432
84.25 -0.0263
84.3 -0.0271
84.35 -0.02509
84.4 -0.02094
84.45 -0.01527
84.5 -0.01277
84.55 -0.0066
84.6 -0.00343
84.65 -0.00175
84.7 -0.00349
84.75 -0.00804
84.8 -0.00607
84.85 -0.0039
84.9 -0.00252
84.95 -0.00555
85 -0.00344
85.05 0.00189
85.1 0.00317
85.15 0.00513
85.2 0.00817
85.25 0.0093
85.3 0.01202
85.35 0.01465
85.4 0.01414
85.45 0.00945
85.5 0.00367
85.55 -0.00465
85.6 -0.01126
85.65 -0.01908
85.7 -0.02691
85.75 -0.02534
85.8 -0.01948
85.85 -0.01069
85.9 -0.00113
85.95 0.00903
86 0.0119
86.05 0.01736
86.1 0.01999
86.15 0.01617
86.2 0.01202
86.25 0.0066
86.3 -0.00176
86.35 -0.01021
86.4 -0.01026
86.45 -0.00715
86.5 -0.00493
86.55 -0.0001
86.6 -0.00061
86.65 -0.00233
86.7 0.00012
86.75 0.00032
86.8 0.00326
86.85 0.00336
86.9 0.00365
86.95 0.00431
87 0.00294
87.05 0.00225
87.1 0.00115
87.15 0.00459
87.2 0.00202
87.25 -0.00311
87.3 -0.00372
87.35 -0.00577
87.4 -0.00554
87.45 -0.00882
87.5 -0.00731
87.55 -0.00533
87.6 -0.00571
87.65 -0.00597
87.7 -0.00991
87.75 -0.00965
87.8 -0.00982
87.85 -0.01059
87.9 -0.01282
87.95 -0.01057
88 -0.01271
88.05 -0.00913
88.1 -0.0043
88.15 -0.00344
88.2 -0.00478
88.25 -0.00305
88.3 -0.00439
88.35 -0.00199
88.4 0.00101
88.45 -0.00156
88.5 -0.00224
88.55 -0.00666
88.6 -0.00885
88.65 -0.00855
88.7 -0.01061
88.75 -0.01441
88.8 -0.01665
88.85 -0.01225
88.9 -0.00361
88.95 0.00521
89 0.00637
89.05 0.00299
89.1 0.00266
89.15 0.00189
89.2 0.0026
89.25 0.00025
89.3 0.00293
89.35 0.00099
89.4 -0.00222
89.45 -0.00554
89.5 -0.00755
89.55 -0.0074
89.6 -0.00568
89.65 -0.00603
89.7 -0.00242
89.75 0.00305
89.8 0.00943
89.85 0.00856
89.9 0.01135
89.95 0.01525
90 0.01243
90.05 0.00592
90.1 0.00231
90.15 -0.00009
90.2 -0.00426
90.25 -0.01075
90.3 -0.01227
90.35 -0.01354
90.4 -0.01613
90.45 -0.01283
90.5 -0.00598
90.55 -0.00398
90.6 -0.00207
90.65 0.00254
90.7 0.00698
90.75 0.00717
90.8 0.00305
90.85 0.00263
90.9 -0.00017
90.95 -0.0004
91 0.00143
91.05 -0.00177
91.1 -0.0004
91.15 0.00094
91.2 -0.00228
91.25 -0.00544
91.3 -0.00487
91.35 -0.00039
91.4 0.0044
91.45 0.0028
91.5 -0.00251
91.55 -0.00103
91.6 -0.00139
91.65 -0.00508
91.7 -0.00566
91.75 -0.00881
91.8 -0.01018
91.85 -0.01107
91.9 -0.01318
91.95 -0.00848
92 -0.0006
92.05 0.00827
92.1 0.01785
92.15 0.02708
92.2 0.02992
92.25 0.02721
92.3 0.02725
92.35 0.02749
92.4 0.02125
92.45 0.01524
92.5 0.01074
92.55 0.00744
92.6 0.00724
92.65 0.01124
92.7 0.01749
92.75 0.02281
92.8 0.02836
92.85 0.03182
92.9 0.03313
92.95 0.03558
93 0.03164
93.05 0.02329
93.1 0.01229
93.15 0.00525
93.2 -0.00352
93.25 -0.00602
93.3 -0.00918
93.35 -0.00911
93.4 -0.00597
93.45 -0.00613
93.5 -0.00216
93.55 0.00018
93.6 0.00152
93.65 -0.00136
93.7 -0.00362
93.75 -0.00382
93.8 0.00017
93.85 0.00061
93.9 -0.00119
93.95 -0.0028
94 -0.00802
94.05 -0.00917
94.1 -0.01389
94.15 -0.0162
94.2 -0.01259
94.25 -0.00812
94.3 -0.00458
94.35 -0.00001
94.4 0.00114
94.45 0.00266
94.5 0.00476
94.55 0.00621
94.6 0.00925
94.65 0.00768
94.7 0.0042
94.75 -0.00055
94.8 -0.00079
94.85 0.00232
94.9 0.0046
94.95 0.00386
95 0.00177
95.05 -0.00333
95.1 -0.00473
95.15 -0.00169
95.2 -0.00053
95.25 0.00294
95.3 0.0057
95.35 0.00961
95.4 0.00717
95.45 0.00622
95.5 0.00209
95.55 0.00126
95.6 0.00228
95.65 0.00462
95.7 0.0057
95.75 0.00137
95.8 -0.00107
95.85 -0.00255
95.9 -0.00328
95.95 -0.00775
96 -0.0089
96.05 -0.00545
96.1 0.00051
96.15 0.0078
96.2 0.00759
96.25 0.00849
96.3 0.01204
96.35 0.00978
96.4 0.00277
96.45 -0.00315
96.5 -0.00752
96.55 -0.01361
96.6 -0.01476
96.65 -0.01586
96.7 -0.01458
96.75 -0.00942
96.8 -0.00093
96.85 0.00077
96.9 -0.00003
96.95 0.00333
97 0.00871
97.05 0.00779
97.1 0.00627
97.15 0.00808
97.2 0.01151
97.25 0.01144
97.3 0.00782
97.35 0.00696
97.4 0.00354
97.45 0.00543
97.5 0.00683
97.55 0.00806
97.6 0.00819
97.65 0.00455
97.7 0.00077
97.75 -0.00422
97.8 -0.00956
97.85 -0.00904
97.9 -0.01286
97.95 -0.01893
98 -0.02206
98.05 -0.02479
98.1 -0.02798
98.15 -0.03018
98.2 -0.02474
98.25 -0.02198
98.3 -0.02035
98.35 -0.01557
98.4 -0.01552
98.45 -0.01119
98.5 -0.0102
98.55 -0.01331
98.6 -0.01014
98.65 -0.00968
98.7 -0.0041
98.75 0.00129
98.8 0.00905
98.85 0.01414
98.9 0.015
98.95 0.00989
99 0.00145
99.05 0.00027
99.1 0.00374
99.15 0.00972
99.2 0.01012
99.25 0.01246
99.3 0.01456
99.35 0.01363
99.4 0.00721
99.45 0.00551
99.5 0.00376
99.55 0.0007
99.6 0.00125
99.65 -0.00174
99.7 -0.003
99.75 -0.00829
99.8 -0.01298
99.85 -0.01481
99.9 -0.0111
99.95 -0.0033
