0 0
0.05 0.00187
0.1 0.00911
0.15 0.01404
0.2 0.02063
0.25 0.02886
0.3 0.03917
0.35 0.04455
0.4 0.04748
0.45 0.04536
0.5 0.04614
0.55 0.04946
0.6 0.05209
0.65 0.05044
0.7 0.04743
0.75 0.04211
0.8 0.04159
0.85 0.03814
0.9 0.03277
0.95 0.03456
1 0.03872
1.05 0.04564
1.1 0.04884
1.15 0.05362
1.2 0.05623
1.25 0.05772
1.3 0.05997
1.35 0.06325
1.4 0.06159
1.45 0.05484
1.5 0.04516
1.55 0.03943
1.6 0.03378
1.65 0.03474
1.7 0.03223
1.75 0.0283
1.8 0.02281
1.85 0.02009
1.9 0.01975
1.95 0.02382
2 0.02798
2.05 0.0326
2.1 0.03998
2.15 0.04561
2.2 0.05233
2.25 0.05342
2.3 0.05177
2.35 0.05315
2.4 0.05529
2.45 0.05395
2.5 0.05429
2.55 0.04769
2.6 0.04469
2.65 0.03801
2.7 0.03026
2.75 0.02707
2.8 0.02235
2.85 0.01485
2.9 0.0092
2.95 0.00766
3 0.01092
3.05 0.01763
3.1 0.01759
3.15 0.01356
3.2 0.01431
3.25 0.01395
3.3 0.01112
3.35 0.01424
3.4 0.01452
3.45 0.01335
3.5 0.01275
3.55 0.0084
3.6 0.00336
3.65 0.00091
3.7 0.00211
3.75 0.00153
3.8 0.00194
3.85 0.00011
3.9 -0.00119
3.95 0.00047
4 -0.00001
4.05 0.0031
4.1 0.01
4.15 0.01666
4.2 0.02283
4.25 0.0248
4.3 0.02411
4.35 0.01957
4.4 0.01328
4.45 0.00775
4.5 0.00231
4.55 -0.00455
4.6 -0.01928
4.65 -0.03772
4.7 -0.0561
4.75 -0.07687
4.8 -0.0951
4.85 -0.11664
4.9 -0.14074
4.95 -0.16988
5 -0.20178
5.05 -0.24389
5.1 -0.2915
5.15 -0.34419
5.2 -0.39619
5.25 -0.45466
5.3 -0.51915
5.35 -0.57896
5.4 -0.6385
5.45 -0.70222
5.5 -0.77036
5.55 -0.83914
5.6 -0.90468
5.65 -0.96712
5.7 -1.0204
5.75 -1.07178
5.8 -1.12037
5.85 -1.15917
5.9 -1.19128
5.95 -1.21438
6 -1.233
6.05 -1.24024
6.1 -1.24353
6.15 -1.23969
6.2 -1.23032
6.25 -1.21041
6.3 -1.18519
6.35 -1.14835
6.4 -1.10392
6.45 -1.05912
6.5 -1.01266
6.55 -0.95582
6.6 -0.89317
6.65 -0.83119
6.7 -0.763
6.75 -0.69583
6.8 -0.61987
6.85 -0.53968
6.9 -0.46167
6.95 -0.37878
7 -0.29264
7.05 -0.2088
7.1 -0.12476
7.15 -0.04165
7.2 0.0425
7.25 0.13107
7.3 0.21647
7.35 0.30157
7.4 0.38184
7.45 0.4575
7.5 0.52709
7.55 0.59992
7.6 0.66364
7.65 0.72654
7.7 0.78612
7.75 0.83619
7.8 0.8785
7.85 0.91876
7.9 0.94895
7.95 0.97119
8 0.99017
8.05 1.00923
8.1 1.02336
8.15 1.03584
8.2 1.04861
8.25 1.05682
8.3 1.06416
8.35 1.06535
8.4 1.06577
8.45 1.06336
8.5 1.05862
8.55 1.05104
8.6 1.04548
8.65 1.0366
8.7 1.02037
8.75 1.00456
8.8 0.98861
8.85 0.97502
8.9 0.95712
8.95 0.94274
9 0.92433
9.05 0.90191
9.1 0.87959
9.15 0.85944
9.2 0.84011
9.25 0.81859
9.3 0.79505
9.35 0.76917
9.4 0.74237
9.45 0.72054
9.5 0.70042
9.55 0.67688
9.6 0.65487
9.65 0.62867
9.7 0.60792
9.75 0.58438
9.8 0.56244
9.85 0.5394
9.9 0.51909
9.95 0.50084
10 0.47961
10.05 0.45866
10.1 0.4379
10.15 0.42008
10.2 0.40067
10.25 0.37926
10.3 0.3584
10.35 0.33611
10.4 0.31748
10.45 0.29748
10.5 0.27976
10.55 0.26982
10.6 0.26332
10.65 0.25897
10.7 0.24983
10.75 0.24282
10.8 0.22809
10.85 0.21167
10.9 0.19918
10.95 0.18847
11 0.17906
11.05 0.16595
11.1 0.15174
11.15 0.13208
11.2 0.11658
11.25 0.10075
11.3 0.07989
11.35 0.06042
11.4 0.03967
11.45 0.02015
11.5 0.00775
11.55 -0.00761
11.6 -0.02037
11.65 -0.03411
11.7 -0.04339
11.75 -0.05079
11.8 -0.06175
11.85 -0.06886
11.9 -0.07798
11.95 -0.08631
12 -0.09498
12.05 -0.10379
12.1 -0.11329
12.15 -0.12081
12.2 -0.12209
12.25 -0.12248
12.3 -0.12247
12.35 -0.12188
12.4 -0.12321
12.45 -0.1229
12.5 -0.12191
12.55 -0.11989
12.6 -0.1197
12.65 -0.12457
12.7 -0.12856
12.75 -0.13178
12.8 -0.13938
12.85 -0.14504
12.9 -0.15202
12.95 -0.16162
13 -0.16788
13.05 -0.16889
13.1 -0.16793
13.15 -0.16661
13.2 -0.16843
13.25 -0.1694
13.3 -0.16536
13.35 -0.16661
13.4 -0.16504
13.45 -0.16618
13.5 -0.16661
13.55 -0.16796
13.6 -0.16608
13.65 -0.16104
13.7 -0.16087
13.75 -0.15611
13.8 -0.15422
13.85 -0.1482
13.9 -0.14534
13.95 -0.14574
14 -0.14466
14.05 -0.13923
14.1 -0.13588
14.15 -0.13746
14.2 -0.14052
14.25 -0.1436
14.3 -0.14281
14.35 -0.14407
14.4 -0.14568
14.45 -0.14525
14.5 -0.14115
14.55 -0.13399
14.6 -0.13057
14.65 -0.1237
14.7 -0.11431
14.75 -0.10842
14.8 -0.10564
14.85 -0.10398
14.9 -0.10082
14.95 -0.10152
15 -0.1037
15.05 -0.10687
15.1 -0.10915
15.15 -0.10651
15.2 -0.1028
15.25 -0.09755
15.3 -0.09132
15.35 -0.08588
15.4 -0.08042
15.45 -0.08155
15.5 -0.08263
15.55 -0.07917
15.6 -0.0741
15.65 -0.06752
15.7 -0.06106
15.75 -0.05616
15.8 -0.05879
15.85 -0.05764
15.9 -0.0607
15.95 -0.06434
16 -0.06904
16.05 -0.07471
16.1 -0.08196
16.15 -0.08621
16.2 -0.08919
16.25 -0.08752
16.3 -0.08091
16.35 -0.07381
16.4 -0.06758
16.45 -0.06682
16.5 -0.06419
16.55 -0.061
16.6 -0.06352
16.65 -0.06657
16.7 -0.06608
16.75 -0.06448
16.8 -0.06088
16.85 -0.0553
16.9 -0.05318
16.95 -0.05623
17 -0.05489
17.05 -0.05442
17.1 -0.05723
17.15 -0.0591
17.2 -0.06083
17.25 -0.06139
17.3 -0.06515
17.35 -0.06678
17.4 -0.06956
17.45 -0.07381
17.5 -0.07777
17.55 -0.07879
17.6 -0.07627
17.65 -0.07613
17.7 -0.07321
17.75 -0.06717
17.8 -0.06267
17.85 -0.05824
17.9 -0.058
17.95 -0.05487
18 -0.0525
18.05 -0.04977
18.1 -0.04401
18.15 -0.03803
18.2 -0.03771
18.25 -0.04007
18.3 -0.03824
18.35 -0.03774
18.4 -0.04071
18.45 -0.03868
18.5 -0.03911
18.55 -0.03417
18.6 -0.02706
18.65 -0.02498
18.7 -0.02234
18.75 -0.02177
18.8 -0.02103
18.85 -0.02112
18.9 -0.0212
18.95 -0.02151
19 -0.02437
19.05 -0.02876
19.1 -0.03111
19.15 -0.02819
19.2 -0.02916
19.25 -0.0277
19.3 -0.02841
19.35 -0.02483
19.4 -0.01999
19.45 -0.01698
19.5 -0.0195
19.55 -0.0249
19.6 -0.0242
19.65 -0.02343
19.7 -0.0193
19.75 -0.02027
19.8 -0.01948
19.85 -0.02327
19.9 -0.02163
19.95 -0.01781
20 -0.01968
20.05 -0.01841
20.1 -0.01765
20.15 -0.0127
20.2 -0.00964
20.25 -0.00451
20.3 -0.00084
20.35 0.00249
20.4 0.00629
20.45 0.01027
20.5 0.00626
20.55 0.00564
20.6 0.00682
20.65 0.00351
20.7 -0.00038
20.75 -0.00276
20.8 -0.00508
20.85 -0.00371
20.9 -0.00191
20.95 -0.00261
21 -0.003
21.05 -0.0022
21.1 -0.00006
21.15 -0.00467
21.2 -0.00949
21.25 -0.01403
21.3 -0.01479
21.35 -0.01378
21.4 -0.00996
21.45 -0.00466
21.5 -0.00151
21.55 0.00335
21.6 0.00195
21.65 -0.00148
21.7 -0.00179
21.75 0.00042
21.8 0.00308
21.85 0.00544
21.9 0.00312
21.95 -0.00021
22 -0.00558
22.05 -0.01263
22.1 -0.01385
22.15 -0.01225
22.2 -0.00964
22.25 -0.00607
22.3 -0.00194
22.35 -0.00424
22.4 -0.00794
22.45 -0.01081
22.5 -0.01564
22.55 -0.01841
22.6 -0.01609
22.65 -0.01324
22.7 -0.0082
22.75 -0.00171
22.8 0.00048
22.85 0.00455
22.9 0.00513
22.95 0.00824
23 0.0054
23.05 0.00532
23.1 0.00159
23.15 -0.00151
23.2 -0.00423
23.25 -0.01139
23.3 -0.01577
23.35 -0.02017
23.4 -0.01838
23.45 -0.01392
23.5 -0.00994
23.55 -0.01106
23.6 -0.00972
23.65 -0.00671
23.7 -0.00243
23.75 -0.00146
23.8 -0.00116
23.85 -0.00455
23.9 -0.00279
23.95 -0.00527
24 -0.00714
24.05 -0.00903
24.1 -0.00574
24.15 -0.00506
24.2 -0.00914
24.25 -0.00894
24.3 -0.00763
24.35 -0.00302
24.4 -0.00216
24.45 0.00157
24.5 0.00365
24.55 0.00157
24.6 0.00278
24.65 0.00054
24.7 -0.00502
24.75 -0.01241
24.8 -0.01303
24.85 -0.01547
24.9 -0.014
24.95 -0.01192
25 -0.00586
25.05 0.00218
25.1 0.00435
25.15 0.003
25.2 0.00557
25.25 0.00841
25.3 0.0058
25.35 0.00312
25.4 0.0012
25.45 0.00064
25.5 -0.00431
25.55 -0.00935
25.6 -0.01466
25.65 -0.01621
25.7 -0.02101
25.75 -0.02754
25.8 -0.03172
25.85 -0.02986
25.9 -0.02411
25.95 -0.02295
26 -0.02054
26.05 -0.01887
26.1 -0.02079
26.15 -0.022
26.2 -0.01859
26.25 -0.0144
26.3 -0.01327
26.35 -0.01221
26.4 -0.00842
26.45 -0.00651
26.5 -0.00906
26.55 -0.00606
26.6 -0.00591
26.65 -0.00717
26.7 -0.00755
26.75 -0.00714
26.8 -0.00822
26.85 -0.00407
26.9 -0.00322
26.95 -0.00046
27 0.00239
27.05 0.00101
27.1 -0.00214
27.15 -0.00503
27.2 -0.0073
27.25 -0.00776
27.3 -0.01149
27.35 -0.0113
27.4 -0.01003
27.45 -0.00649
27.5 -0.00413
27.55 -0.00303
27.6 -0.00669
27.65 -0.01055
27.7 -0.01804
27.75 -0.02348
27.8 -0.02918
27.85 -0.03438
27.9 -0.03696
27.95 -0.04298
28 -0.0551
28.05 -0.06376
28.1 -0.07698
28.15 -0.08653
28.2 -0.10011
28.25 -0.11328
28.3 -0.13309
28.35 -0.1583
28.4 -0.18584
28.45 -0.21555
28.5 -0.24262
28.55 -0.2759
28.6 -0.30754
28.65 -0.3489
28.7 -0.38964
28.75 -0.43774
28.8 -0.49297
28.85 -0.54895
28.9 -0.60871
28.95 -0.67176
29 -0.73947
29.05 -0.80954
29.1 -0.87656
29.15 -0.94512
29.2 -1.01136
29.25 -1.08478
29.3 -1.15752
29.35 -1.23196
29.4 -1.30524
29.45 -1.36979
29.5 -1.4259
29.55 -1.47722
29.6 -1.52766
29.65 -1.57165
29.7 -1.60479
29.75 -1.62726
29.8 -1.64002
29.85 -1.64404
29.9 -1.64389
29.95 -1.63193
30 -1.60814
30.05 -1.5788
30.1 -1.53349
30.15 -1.47733
30.2 -1.41682
30.25 -1.34696
30.3 -1.26696
30.35 -1.1815
30.4 -1.08763
30.45 -0.98792
30.5 -0.87614
30.55 -0.75814
30.6 -0.63711
30.65 -0.51584
30.7 -0.38857
30.75 -0.25882
30.8 -0.13637
30.85 -0.01378
30.9 0.1053
30.95 0.21994
31 0.32149
31.05 0.41246
31.1 0.4988
31.15 0.58153
31.2 0.65523
31.25 0.72308
31.3 0.78703
31.35 0.84379
31.4 0.89349
31.45 0.94124
31.5 0.98484
31.55 1.02646
31.6 1.06614
31.65 1.10399
31.7 1.13895
31.75 1.16582
31.8 1.18871
31.85 1.20167
31.9 1.21136
31.95 1.21879
32 1.23008
32.05 1.2434
32.1 1.24885
32.15 1.2579
32.2 1.26468
32.25 1.27294
32.3 1.27485
32.35 1.28008
32.4 1.28385
32.45 1.28472
32.5 1.28359
32.55 1.28411
32.6 1.27875
32.65 1.27262
32.7 1.26184
32.75 1.24901
32.8 1.23726
32.85 1.22263
32.9 1.20995
32.95 1.19585
33 1.1863
33.05 1.17758
33.1 1.16618
33.15 1.14865
33.2 1.13374
33.25 1.11763
33.3 1.09408
33.35 1.06899
33.4 1.03796
33.45 1.00744
33.5 0.97276
33.55 0.94144
33.6 0.91385
33.65 0.88862
33.7 0.8657
33.75 0.83944
33.8 0.80552
33.85 0.77208
33.9 0.7339
33.95 0.70144
34 0.66717
34.05 0.63674
34.1 0.60383
34.15 0.57093
34.2 0.54146
34.25 0.51042
34.3 0.47927
34.35 0.45088
34.4 0.42051
34.45 0.39311
34.5 0.36793
34.55 0.34302
34.6 0.31804
34.65 0.29127
34.7 0.26855
34.75 0.248
34.8 0.22249
34.85 0.20291
34.9 0.18648
34.95 0.16646
35 0.14276
35.05 0.12436
35.1 0.10851
35.15 0.09243
35.2 0.07155
35.25 0.05338
35.3 0.03617
35.35 0.01608
35.4 -0.00649
35.45 -0.02734
35.5 -0.0458
35.55 -0.06148
35.6 -0.07926
35.65 -0.09798
35.7 -0.10732
35.75 -0.11107
35.8 -0.11256
35.85 -0.11551
35.9 -0.12485
35.95 -0.13776
36 -0.14497
36.05 -0.15487
36.1 -0.16033
36.15 -0.16314
36.2 -0.16516
36.25 -0.16574
36.3 -0.16463
36.35 -0.17195
36.4 -0.18456
36.45 -0.19939
36.5 -0.20614
36.55 -0.21126
36.6 -0.21116
36.65 -0.215
36.7 -0.21907
36.75 -0.22645
36.8 -0.23298
36.85 -0.23578
36.9 -0.24128
36.95 -0.24591
37 -0.24829
37.05 -0.25063
37.1 -0.24995
37.15 -0.24679
37.2 -0.24195
37.25 -0.23765
37.3 -0.23122
37.35 -0.22926
37.4 -0.22529
37.45 -0.21913
37.5 -0.21516
37.55 -0.21356
37.6 -0.2154
37.65 -0.22049
37.7 -0.2186
37.75 -0.2124
37.8 -0.20327
37.85 -0.19262
37.9 -0.18178
37.95 -0.1782
38 -0.17618
38.05 -0.17741
38.1 -0.18311
38.15 -0.18455
38.2 -0.18362
38.25 -0.18034
38.3 -0.17815
38.35 -0.1751
38.4 -0.17541
38.45 -0.17259
38.5 -0.1741
38.55 -0.17195
38.6 -0.16647
38.65 -0.16018
38.7 -0.15233
38.75 -0.15168
38.8 -0.15191
38.85 -0.15205
38.9 -0.15238
38.95 -0.14933
39 -0.15098
39.05 -0.14999
39.1 -0.1488
39.15 -0.1482
39.2 -0.14486
39.25 -0.14394
39.3 -0.14581
39.35 -0.14604
39.4 -0.14608
39.45 -0.14013
39.5 -0.13607
39.55 -0.12842
39.6 -0.12605
39.65 -0.11982
39.7 -0.11366
39.75 -0.11193
39.8 -0.10877
39.85 -0.10578
39.9 -0.10005
39.95 -0.09372
40 -0.09341
40.05 -0.09899
40.1 -0.09951
40.15 -0.09939
40.2 -0.10258
40.25 -0.10556
40.3 -0.10729
40.35 -0.10416
40.4 -0.10375
40.45 -0.10743
40.5 -0.11156
40.55 -0.11635
40.6 -0.12133
40.65 -0.1185
40.7 -0.11503
40.75 -0.11203
40.8 -0.10831
40.85 -0.10728
40.9 -0.10645
40.95 -0.09963
41 -0.09533
41.05 -0.08656
41.1 -0.08332
41.15 -0.07602
41.2 -0.07212
41.25 -0.07246
41.3 -0.07267
41.35 -0.07009
41.4 -0.07136
41.45 -0.07457
41.5 -0.07394
41.55 -0.06857
41.6 -0.06735
41.65 -0.06823
41.7 -0.06633
41.75 -0.06737
41.8 -0.0718
41.85 -0.07485
41.9 -0.07171
41.95 -0.07268
42 -0.06784
42.05 -0.06482
42.1 -0.06657
42.15 -0.06403
42.2 -0.05977
42.25 -0.05867
42.3 -0.06119
42.35 -0.0649
42.4 -0.06744
42.45 -0.06396
42.5 -0.06216
42.55 -0.05775
42.6 -0.05795
42.65 -0.0564
42.7 -0.0536
42.75 -0.05552
42.8 -0.05891
42.85 -0.05666
42.9 -0.05016
42.95 -0.04986
43 -0.04818
43.05 -0.04769
43.1 -0.04271
43.15 -0.03822
43.2 -0.03339
43.25 -0.03218
43.3 -0.03595
43.35 -0.04217
43.4 -0.04137
43.45 -0.04163
43.5 -0.03759
43.55 -0.0381
43.6 -0.0389
43.65 -0.03941
43.7 -0.03726
43.75 -0.03222
43.8 -0.02588
43.85 -0.01861
43.9 -0.01873
43.95 -0.02164
44 -0.02773
44.05 -0.0345
44.1 -0.03498
44.15 -0.03597
44.2 -0.03706
44.25 -0.0329
44.3 -0.03189
44.35 -0.02656
44.4 -0.01947
44.45 -0.01897
44.5 -0.01857
44.55 -0.02003
44.6 -0.02376
44.65 -0.02214
44.7 -0.02131
44.75 -0.01746
44.8 -0.01329
44.85 -0.01537
44.9 -0.01897
44.95 -0.02509
45 -0.03179
45.05 -0.03828
45.1 -0.04216
45.15 -0.04657
45.2 -0.04725
45.25 -0.04846
45.3 -0.04897
45.35 -0.04808
45.4 -0.0414
45.45 -0.03178
45.5 -0.02253
45.55 -0.01359
45.6 -0.00498
45.65 -0.00219
45.7 -0.0001
45.75 0.00144
45.8 0.00475
45.85 0.00261
45.9 0.00392
45.95 0.00538
46 0.00073
46.05 -0.00255
46.1 -0.00593
46.15 -0.012
46.2 -0.01441
46.25 -0.01684
46.3 -0.01437
46.35 -0.01437
46.4 -0.01564
46.45 -0.01542
46.5 -0.01932
46.55 -0.02105
46.6 -0.02568
46.65 -0.02539
46.7 -0.02725
46.75 -0.02326
46.8 -0.02411
46.85 -0.01941
46.9 -0.01986
46.95 -0.01899
47 -0.0147
47.05 -0.00944
47.1 -0.0085
47.15 -0.01086
47.2 -0.00883
47.25 -0.00894
47.3 -0.01022
47.35 -0.00642
47.4 -0.00723
47.45 -0.0106
47.5 -0.01115
47.55 -0.0112
47.6 -0.01517
47.65 -0.01596
47.7 -0.01473
47.75 -0.01464
47.8 -0.01705
47.85 -0.01458
47.9 -0.0162
47.95 -0.01756
48 -0.02119
48.05 -0.02637
48.1 -0.02993
48.15 -0.0273
48.2 -0.02497
48.25 -0.02366
48.3 -0.01947
48.35 -0.01855
48.4 -0.01864
48.45 -0.01382
48.5 -0.00593
48.55 -0.00413
48.6 -0.00296
48.65 -0.00632
48.7 -0.00489
48.75 -0.00203
48.8 -0.00415
48.85 -0.00851
48.9 -0.00978
48.95 -0.01455
49 -0.01459
49.05 -0.01777
49.1 -0.02126
49.15 -0.01876
49.2 -0.01214
49.25 -0.00756
49.3 -0.00158
49.35 0.00311
49.4 0.00802
49.45 0.01472
49.5 0.01992
49.55 0.02504
49.6 0.02885
49.65 0.02548
49.7 0.0183
49.75 0.00747
49.8 -0.00375
49.85 -0.01547
49.9 -0.0263
49.95 -0.03523
50 -0.03783
50.05 -0.03656
50.1 -0.03169
50.15 -0.0218
50.2 -0.01728
50.25 -0.01613
50.3 -0.01741
50.35 -0.02044
50.4 -0.02232
50.45 -0.02462
50.5 -0.02755
50.55 -0.02592
50.6 -0.02507
50.65 -0.02258
50.7 -0.01598
50.75 -0.01249
50.8 -0.00695
50.85 -0.0024
50.9 0.00212
50.95 0.00333
51 0.00196
51.05 0.00283
51.1 0.00588
51.15 0.00348
51.2 0.0034
51.25 0.00465
51.3 0.00118
51.35 -0.00217
51.4 -0.00396
51.45 -0.00468
51.5 -0.00679
51.55 -0.00727
51.6 -0.00299
51.65 0.00043
51.7 0.00344
51.75 0.00736
51.8 0.0059
51.85 0.00145
51.9 -0.00149
51.95 -0.00262
52 0.00168
52.05 0.00558
52.1 0.00663
52.15 0.01124
52.2 0.01243
52.25 0.00803
52.3 0.00045
52.35 -0.00706
52.4 -0.01321
52.45 -0.01137
52.5 -0.013
52.55 -0.01448
52.6 -0.00977
52.65 -0.00438
52.7 -0.00492
52.75 -0.00375
52.8 -0.0017
52.85 -0.00372
52.9 -0.00665
52.95 -0.00417
53 -0.00638
53.05 -0.00282
53.1 0.00456
53.15 0.01002
53.2 0.0138
53.25 0.01206
53.3 0.01301
53.35 0.00994
53.4 0.00361
53.45 -0.00283
53.5 -0.00892
53.55 -0.01571
53.6 -0.02213
53.65 -0.01935
53.7 -0.01702
53.75 -0.00935
53.8 -0.00273
53.85 0.00568
53.9 0.01547
53.95 0.02437
54 0.02889
54.05 0.02826
54.1 0.02894
54.15 0.02626
54.2 0.0262
54.25 0.022
54.3 0.01591
54.35 0.01521
54.4 0.0157
54.45 0.01116
54.5 0.01034
54.55 0.00907
54.6 0.00466
54.65 -0.00003
54.7 -0.0062
54.75 -0.01117
54.8 -0.01583
54.85 -0.0188
54.9 -0.0222
54.95 -0.02227
55 -0.02336
55.05 -0.0235
55.1 -0.02157
55.15 -0.01531
55.2 -0.0102
55.25 -0.00317
55.3 0.00206
55.35 0.00996
55.4 0.01869
55.45 0.02253
55.5 0.02522
55.55 0.02781
55.6 0.03166
55.65 0.03357
55.7 0.02984
55.75 0.02423
55.8 0.01495
55.85 0.01135
55.9 0.00991
55.95 0.00507
56 0.00029
56.05 -0.00243
56.1 0.00041
56.15 0.00144
56.2 -0.00238
56.25 -0.0008
56.3 -0.0036
56.35 -0.00501
56.4 -0.00571
56.45 -0.00554
56.5 -0.00226
56.55 0.00221
56.6 0.00511
56.65 0.00866
56.7 0.01318
56.75 0.01102
56.8 0.00438
56.85 -0.00148
56.9 -0.00855
56.95 -0.01147
57 -0.00806
57.05 -0.00343
57.1 0.00328
57.15 0.00364
57.2 0.00262
57.25 0.00447
57.3 0.00466
57.35 0.00326
57.4 0.00319
57.45 -0.00137
57.5 -0.00095
57.55 -0.00046
57.6 0.00358
57.65 0.00188
57.7 -0.00313
57.75 -0.00613
57.8 -0.0104
57.85 -0.00882
57.9 -0.00414
57.95 0.00324
58 0.01146
58.05 0.01452
58.1 0.01801
58.15 0.02091
58.2 0.01754
58.25 0.01155
58.3 0.00656
58.35 0.00692
58.4 0.00874
58.45 0.00655
58.5 0.00649
58.55 0.00929
58.6 0.01235
58.65 0.01142
58.7 0.01182
58.75 0.01184
58.8 0.01424
58.85 0.01498
58.9 0.01389
58.95 0.00732
59 0.006
59.05 0.00337
59.1 0.00477
59.15 0.00738
59.2 0.00517
59.25 -0.00037
59.3 -0.00075
59.35 -0.0053
59.4 -0.01203
59.45 -0.01665
59.5 -0.0178
59.55 -0.01422
59.6 -0.01425
59.65 -0.01692
59.7 -0.01982
59.75 -0.02231
59.8 -0.01874
59.85 -0.01504
59.9 -0.00941
59.95 -0.00107
60 0.00237
60.05 0.00379
60.1 0.00782
60.15 0.01186
60.2 0.00942
60.25 0.00718
60.3 0.0026
60.35 0.00041
60.4 -0.00338
60.45 -0.01006
60.5 -0.01624
60.55 -0.01925
60.6 -0.01968
60.65 -0.01946
60.7 -0.01905
60.75 -0.01748
60.8 -0.01839
60.85 -0.01404
60.9 -0.00948
60.95 -0.01014
61 -0.01081
61.05 -0.00702
61.1 -0.00245
61.15 0.00094
61.2 0.0011
61.25 0.00362
61.3 0.00339
61.35 0.00125
61.4 0.00168
61.45 0.00083
61.5 -0.00045
61.55 -0.00505
61.6 -0.00747
61.65 -0.00988
61.7 -0.01226
61.75 -0.01163
61.8 -0.00988
61.85 -0.00552
61.9 -0.00172
61.95 0.00045
62 -0.00059
62.05 -0.00428
62.1 -0.00282
62.15 -0.00457
62.2 -0.00065
62.25 0.00281
62.3 0.00435
62.35 0.0069
62.4 0.00819
62.45 0.00815
62.5 0.01076
62.55 0.00753
62.6 0.00762
62.65 0.0052
62.7 0.00303
62.75 0.00058
62.8 -0.0015
62.85 0.00033
62.9 0.00508
62.95 0.00903
63 0.009
63.05 0.01254
63.1 0.01776
63.15 0.01623
63.2 0.01454
63.25 0.01139
63.3 0.00425
63.35 -0.00258
63.4 -0.00528
63.45 -0.00354
63.5 -0.00116
63.55 0.00387
63.6 0.00743
63.65 0.00623
63.7 0.0021
63.75 -0.00339
63.8 -0.01057
63.85 -0.01877
63.9 -0.02291
63.95 -0.02116
64 -0.01387
64.05 -0.0047
64.1 0.00179
64.15 0.00274
64.2 0.00737
64.25 0.00693
64.3 0.00871
64.35 0.00528
64.4 0.00435
64.45 0.00028
64.5 -0.00686
64.55 -0.00882
64.6 -0.00605
64.65 -0.00465
64.7 -0.00612
64.75 -0.01036
64.8 -0.00802
64.85 -0.00448
64.9 -0.00612
64.95 -0.00938
65 -0.00838
65.05 -0.00835
65.1 -0.01072
65.15 -0.00691
65.2 -0.00198
65.25 -0.0012
65.3 0.004
65.35 0.00894
65.4 0.0079
65.45 0.01039
65.5 0.01194
65.55 0.01174
65.6 0.00988
65.65 0.00699
65.7 0.00766
65.75 0.00733
65.8 0.00855
65.85 0.00795
65.9 0.00516
65.95 0.00639
66 0.00334
66.05 -0.00159
66.1 -0.00785
66.15 -0.00918
66.2 -0.00483
66.25 -0.00257
66.3 -0.00382
66.35 -0.00086
66.4 -0.00227
66.45 0.00016
66.5 0.00481
66.55 0.00897
66.6 0.01137
66.65 0.0097
66.7 0.01135
66.75 0.00788
66.8 0.00332
66.85 0.00285
66.9 0.00072
66.95 -0.0009
67 -0.00034
67.05 -0.00031
67.1 0.00352
67.15 0.00489
67.2 0.00587
67.25 0.00143
67.3 0.00009
67.35 -0.0033
67.4 -0.00433
67.45 -0.00512
67.5 -0.00476
67.55 -0.00549
67.6 -0.00592
67.65 -0.00825
67.7 -0.01204
67.75 -0.00948
67.8 -0.01064
67.85 -0.00939
67.9 -0.00878
67.95 -0.0087
68 -0.01241
68.05 -0.01497
68.1 -0.01371
68.15 -0.01
68.2 -0.00641
68.25 -0.00155
68.3 0.00455
68.35 0.00775
68.4 0.00994
68.45 0.00651
68.5 0.00632
68.55 0.00259
68.6 -0.00067
68.65 -0.00488
68.7 -0.0061
68.75 -0.00471
68.8 -0.00107
68.85 0.00175
68.9 0.00284
68.95 -0.00034
69 -0.00233
69.05 0.00013
69.1 0.00429
69.15 0.00669
69.2 0.0057
69.25 0.0005
69.3 0.00132
69.35 -0.00002
69.4 -0.00486
69.45 -0.00743
69.5 -0.00576
69.55 -0.00145
69.6 -0.00173
69.65 -0.00526
69.7 -0.00489
69.75 -0.00211
69.8 -0.00435
69.85 -0.00862
69.9 -0.01511
69.95 -0.01998
70 -0.02425
70.05 -0.02927
70.1 -0.03338
70.15 -0.03501
70.2 -0.03365
70.25 -0.03027
70.3 -0.02581
70.35 -0.0201
70.4 -0.01928
70.45 -0.01937
70.5 -0.01515
70.55 -0.00891
70.6 -0.00219
70.65 -0.0011
70.7 -0.00127
70.75 0.00104
70.8 0.00079
70.85 0.00516
70.9 0.01167
70.95 0.01383
71 0.01644
71.05 0.01584
71.1 0.01794
71.15 0.022
71.2 0.02399
71.25 0.02562
71.3 0.02606
71.35 0.02872
71.4 0.024
71.45 0.02124
71.5 0.01854
71.55 0.01916
71.6 0.0132
71.65 0.01271
71.7 0.00665
71.75 0.00492
71.8 0.00252
71.85 0.00087
71.9 0.00003
71.95 0.0025
72 0.00197
72.05 0.00261
72.1 0.00422
72.15 0.00339
72.2 0.00693
72.25 0.00742
72.3 0.00533
72.35 0.00095
72.4 -0.00507
72.45 -0.00683
72.5 -0.0107
72.55 -0.01575
72.6 -0.02169
72.65 -0.02232
72.7 -0.0247
72.75 -0.02821
72.8 -0.02569
72.85 -0.01779
72.9 -0.01331
72.95 -0.00782
73 0.00031
73.05 0.00868
73.1 0.01516
73.15 0.0207
73.2 0.02455
73.25 0.02296
73.3 0.01805
73.35 0.01554
73.4 0.01286
73.45 0.00743
73.5 0.00137
73.55 -0.00652
73.6 -0.01298
73.65 -0.01454
73.7 -0.01814
73.75 -0.02252
73.8 -0.02529
73.85 -0.02945
73.9 -0.03277
73.95 -0.02743
74 -0.02471
74.05 -0.02519
74.1 -0.02222
74.15 -0.01641
74.2 -0.01
74.25 -0.00544
74.3 -0.0025
74.35 0.00445
74.4 0.00949
74.45 0.01101
74.5 0.01359
74.55 0.01672
74.6 0.01747
74.65 0.01218
74.7 0.00457
74.75 0.00163
74.8 0.00409
74.85 0.00553
74.9 0.0015
74.95 -0.00321
75 -0.00852
75.05 -0.00872
75.1 -0.00585
75.15 -0.00496
75.2 0.00032
75.25 0.00767
75.3 0.0113
75.35 0.00917
75.4 0.00572
75.45 0.00614
75.5 0.00934
75.55 0.00959
75.6 0.00987
75.65 0.00761
75.7 0.00487
75.75 0.00387
75.8 0.00575
75.85 0.00495
75.9 0.00188
75.95 -0.00339
76 -0.01012
76.05 -0.01328
76.1 -0.01245
76.15 -0.0071
76.2 -0.00255
76.25 -0.00332
76.3 0.00068
76.35 0.00353
76.4 0.00479
76.45 0.0054
76.5 0.00461
76.55 0.00736
76.6 0.00717
76.65 0.00258
76.7 0.00305
76.75 0.00649
76.8 0.00996
76.85 0.00897
76.9 0.00724
76.95 0.00084
77 -0.00272
77.05 -0.00128
77.1 -0.00292
77.15 -0.00332
77.2 -0.00123
77.25 -0.00095
77.3 0.00179
77.35 0.00673
77.4 0.01218
77.45 0.01399
77.5 0.01395
77.55 0.01018
77.6 0.00252
77.65 0.00039
77.7 0.00129
77.75 0.00132
77.8 -0.00081
77.85 -0.00325
77.9 -0.00638
77.95 -0.00538
78 -0.00331
78.05 -0.00574
78.1 -0.00861
78.15 -0.00696
78.2 -0.00326
78.25 0.00177
78.3 0.00559
78.35 0.00636
78.4 0.00878
78.45 0.01051
78.5 0.01001
78.55 0.01127
78.6 0.0098
78.65 0.00804
78.7 0.00524
78.75 0.00507
78.8 0.00881
78.85 0.01142
78.9 0.01412
78.95 0.01788
79 0.01995
79.05 0.02081
79.1 0.02332
79.15 0.02567
79.2 0.02697
79.25 0.02243
79.3 0.01687
79.35 0.0074
79.4 -0.00217
79.45 -0.00819
79.5 -0.00876
79.55 -0.00573
79.6 -0.00673
79.65 -0.006
79.7 -0.0041
79.75 -0.00064
79.8 0.00238
79.85 0.00573
79.9 0.00685
79.95 0.00568
80 0.00624
80.05 0.00176
80.1 -0.00114
80.15 -0.00076
80.2 0.00065
80.25 0.00151
80.3 0.00377
80.35 0.0002
80.4 -0.00494
80.45 -0.00846
80.5 -0.00973
80.55 -0.0065
80.6 -0.00529
80.65 -0.00679
80.7 -0.00477
80.75 -0.00365
80.8 -0.0036
80.85 -0.00093
80.9 -0.00326
80.95 -0.00843
81 -0.01327
81.05 -0.01882
81.1 -0.01827
81.15 -0.01918
81.2 -0.01986
81.25 -0.02135
81.3 -0.02252
81.35 -0.01783
81.4 -0.01087
81.45 -0.0059
81.5 -0.00511
81.55 -0.00108
81.6 -0.00044
81.65 -0.00233
81.7 -0.00272
81.75 -0.00755
81.8 -0.01017
81.85 -0.00885
81.9 -0.00493
81.95 -0.00361
82 -0.00211
82.05 0.00353
82.1 0.00312
82.15 0.00325
82.2 0.0052
82.25 0.00722
82.3 0.01022
82.35 0.01544
82.4 0.01838
82.45 0.02105
82.5 0.0172
82.55 0.01613
82.6 0.01078
82.65 0.00221
82.7 -0.00776
82.75 -0.01625
82.8 -0.01633
82.85 -0.01132
82.9 -0.00946
82.95 -0.01139
83 -0.01134
83.05 -0.00952
83.1 -0.00374
83.15 0.00393
83.2 0.00761
83.25 0.01194
83.3 0.01562
83.35 0.01767
83.4 0.01325
83.45 0.00947
83.5 0.00621
83.55 0.00272
83.6 0.00394
83.65 0.00656
83.7 0.00782
83.75 0.01095
83.8 0.01431
83.85 0.0142
83.9 0.01663
83.95 0.01822
84 0.01975
84.05 0.02038
84.1 0.01909
84.15 0.01395
84.2 0.01291
84.25 0.01181
84.3 0.01243
84.35 0.0116
84.4 0.01388
84.45 0.00996
84.5 0.00992
84.55 0.00708
84.6 0.00208
84.65 -0.00348
84.7 -0.01178
84.75 -0.01939
84.8 -0.02216
84.85 -0.02534
84.9 -0.02283
84.95 -0.01734
85 -0.00825
85.05 -0.00635
85.1 -0.0085
85.15 -0.00965
85.2 -0.01
85.25 -0.01425
85.3 -0.01818
85.35 -0.01542
85.4 -0.01706
85.45 -0.01521
85.5 -0.01549
85.55 -0.01416
85.6 -0.01465
85.65 -0.01089
85.7 -0.00481
85.75 0.0022
85.8 0.00857
85.85 0.00942
85.9 0.01132
85.95 0.01107
86 0.0079
86.05 0.00459
86.1 0.00187
86.15 -0.00064
86.2 -0.00706
86.25 -0.01113
86.3 -0.01629
86.35 -0.02211
86.4 -0.0248
86.45 -0.0201
86.5 -0.01432
86.55 -0.00979
86.6 -0.00451
86.65 -0.00243
86.7 -0.00019
86.75 0.00375
86.8 0.01009
86.85 0.00909
86.9 0.00507
86.95 0.00429
87 0.00597
87.05 0.00685
87.1 0.00293
87.15 0.00324
87.2 0.00429
87.25 0.00876
87.3 0.0134
87.35 0.01829
87.4 0.01726
87.45 0.01444
87.5 0.01279
87.55 0.00778
87.6 0.00661
87.65 0.00799
87.7 0.00495
87.75 -0.00152
87.8 -0.0072
87.85 -0.00929
87.9 -0.01072
87.95 -0.01183
88 -0.01232
88.05 -0.00816
88.1 -0.00348
88.15 -0.00397
88.2 -0.0074
88.25 -0.00662
88.3 -0.00296
88.35 -0.00013
88.4 -0.00232
88.45 -0.00005
88.5 -0.00112
88.55 -0.00207
88.6 -0.00232
88.65 0.00177
88.7 0.00144
88.75 0.00136
88.8 0.00536
88.85 0.00505
88.9 -0.00052
88.95 -0.00358
89 -0.00435
89.05 -0.00259
89.1 0.0028
89.15 0.00485
89.2 0.00537
89.25 0.00514
89.3 0.00874
89.35 0.01404
89.4 0.01761
89.45 0.01913
89.5 0.02256
89.55 0.01948
89.6 0.01255
89.65 0.00753
89.7 0.00718
89.75 0.00901
89.8 0.01342
89.85 0.01821
89.9 0.02305
89.95 0.02137
90 0.0204
90.05 0.01316
90.1 0.01015
90.15 0.00621
90.2 0.00612
90.25 0.00691
90.3 0.00875
90.35 0.01175
90.4 0.01262
90.45 0.01192
90.5 0.0068
90.55 -0.00052
90.6 -0.00759
90.65 -0.01602
90.7 -0.01967
90.75 -0.01727
90.8 -0.01957
90.85 -0.0165
90.9 -0.01781
90.95 -0.02101
91 -0.02167
91.05 -0.02491
91.1 -0.02498
91.15 -0.01999
91.2 -0.01575
91.25 -0.01333
91.3 -0.01553
91.35 -0.01828
91.4 -0.01933
91.45 -0.02078
91.5 -0.01741
91.55 -0.00994
91.6 -0.00087
91.65 0.00722
91.7 0.00759
91.75 0.00313
91.8 -0.00091
91.85 -0.00099
91.9 0.00027
91.95 0.00357
92 0.00918
92.05 0.01317
92.1 0.01003
92.15 0.00574
92.2 0.00581
92.25 0.00561
92.3 0.00358
92.35 0.00501
92.4 0.00503
92.45 0.00843
92.5 0.00956
92.55 0.00571
92.6 -0.00036
92.65 -0.0055
92.7 -0.00737
92.75 -0.00671
92.8 -0.01015
92.85 -0.01334
92.9 -0.012
92.95 -0.00878
93 -0.00967
93.05 -0.00591
93.1 0.0011
93.15 0.00965
93.2 0.00967
93.25 0.00822
93.3 0.01001
93.35 0.00998
93.4 0.00618
93.45 0.00618
93.5 0.003
93.55 -0.0003
93.6 0.00179
93.65 0.00007
93.7 -0.00314
93.75 -0.00223
93.8 -0.00569
93.85 -0.0113
93.9 -0.01659
93.95 -0.02275
94 -0.0251
94.05 -0.02413
94.1 -0.01763
94.15 -0.01243
94.2 -0.00522
94.25 -0.00513
94.3 -0.00299
94.35 -0.0042
94.4 -0.00605
94.45 -0.00546
94.5 -0.0035
94.55 -0.00458
94.6 -0.00406
94.65 -0.00341
94.7 -0.00259
94.75 0.00246
94.8 0.00867
94.85 0.0091
94.9 0.00793
94.95 0.00933
95 0.00635
95.05 -0.00018
95.1 -0.0075
95.15 -0.00783
95.2 -0.00831
95.25 -0.00699
95.3 -0.00143
95.35 -0.00054
95.4 -0.00251
95.45 -0.00142
95.5 -0.00505
95.55 -0.00659
95.6 -0.00926
95.65 -0.00944
95.7 -0.00663
95.75 -0.00771
95.8 -0.0092
95.85 -0.00849
95.9 -0.00682
95.95 -0.0064
96 -0.00502
96.05 -0.00718
96.1 -0.00589
96.15 -0.00496
96.2 -0.00589
96.25 -0.007
96.3 -0.00703
96.35 -0.00217
96.4 -0.00314
96.45 -0.0009
96.5 0.00427
96.55 0.00423
96.6 0.00802
96.65 0.00693
96.7 0.00512
96.75 -0.00038
96.8 -0.00392
96.85 -0.00981
96.9 -0.01044
96.95 -0.0109
97 -0.00757
97.05 -0.00228
97.1 0.0003
97.15 -0.00089
97.2 -0.00359
97.25 -0.00577
97.3 -0.0082
97.35 -0.00458
97.4 -0.006
97.45 -0.00185
97.5 -0.00133
97.55 -0.00177
97.6 0.00237
97.65 0.00125
97.7 0.00423
97.75 0.00166
97.8 0.00339
97.85 0.00291
97.9 0.00186
97.95 0.00404
98 0.00517
98.05 0.00661
98.1 0.00531
98.15 0.007
98.2 0.01061
98.25 0.01445
98.3 0.01863
98.35 0.01694
98.4 0.01813
98.45 0.01498
98.5 0.00686
98.55 0.00292
98.6 -0.00303
98.65 -0.00632
98.7 -0.00404
98.75 -0.00679
98.8 -0.00407
98.85 0.00003
98.9 0.00512
98.95 0.00645
99 0.00364
99.05 0.00471
99.1 0.009
99.15 0.00884
99.2 0.0072
99.25 0.00509
99.3 0.00027
99.35 0.00108
99.4 0.00214
99.45 0.00686
99.5 0.00558
99.55 0.00862
99.6 0.01109
99.65 0.01058
99.7 0.01357
99.75 0.01222
99.8 0.00741
99.85 0.00531
99.9 0.00264
99.95 0.00465
