0 0
0.05 0.00611
0.1 0.01593
0.15 0.02182
0.2 0.03084
0.25 0.0355
0.3 0.0439
0.35 0.04827
0.4 0.04794
0.45 0.05031
0.5 0.05006
0.55 0.05262
0.6 0.05118
0.65 0.05445
0.7 0.05689
0.75 0.0598
0.8 0.05991
0.85 0.06258
0.9 0.05922
0.95 0.0557
1 0.05662
1.05 0.0546
1.1 0.05392
1.15 0.05327
1.2 0.05489
1.25 0.0528
1.3 0.04603
1.35 0.03687
1.4 0.03488
1.45 0.03802
1.5 0.03582
1.55 0.03664
1.6 0.04096
1.65 0.04098
1.7 0.04201
1.75 0.04251
1.8 0.03786
1.85 0.03175
1.9 0.02953
1.95 0.03074
2 0.03089
2.05 0.03513
2.1 0.03403
2.15 0.03673
2.2 0.03861
2.25 0.03625
2.3 0.03796
2.35 0.03655
2.4 0.03167
2.45 0.03004
2.5 0.02705
2.55 0.02924
2.6 0.02606
2.65 0.01961
2.7 0.01674
2.75 0.01384
2.8 0.01616
2.85 0.01429
2.9 0.00947
2.95 0.00941
3 0.0124
3.05 0.01817
3.1 0.02106
3.15 0.02606
3.2 0.02532
3.25 0.02684
3.3 0.02885
3.35 0.03277
3.4 0.03818
3.45 0.04156
3.5 0.0409
3.55 0.03477
3.6 0.02787
3.65 0.02585
3.7 0.02588
3.75 0.02684
3.8 0.02376
3.85 0.01827
3.9 0.01209
3.95 0.00938
4 0.00549
4.05 0.00094
4.1 0.00264
4.15 -0.00069
4.2 0.00047
4.25 -0.00008
4.3 -0.00107
4.35 -0.00286
4.4 -0.00329
4.45 -0.0029
4.5 -0.00328
4.55 -0.0067
4.6 -0.01345
4.65 -0.03077
4.7 -0.04845
4.75 -0.07145
4.8 -0.09425
4.85 -0.12297
4.9 -0.15483
4.95 -0.19053
5 -0.22743
5.05 -0.27052
5.1 -0.31832
5.15 -0.37492
5.2 -0.43588
5.25 -0.5068
5.3 -0.58371
5.35 -0.66701
5.4 -0.75735
5.45 -0.85091
5.5 -0.95099
5.55 -1.05249
5.6 -1.1533
5.65 -1.25018
5.7 -1.34871
5.75 -1.44731
5.8 -1.54498
5.85 -1.63848
5.9 -1.7312
5.95 -1.8159
6 -1.90088
6.05 -1.98294
6.1 -2.05871
6.15 -2.12544
6.2 -2.18673
6.25 -2.24818
6.3 -2.30846
6.35 -2.35635
6.4 -2.39524
6.45 -2.43183
6.5 -2.46158
6.55 -2.48442
6.6 -2.4994
6.65 -2.5036
6.7 -2.4916
6.75 -2.46493
6.8 -2.42919
6.85 -2.37266
6.9 -2.29761
6.95 -2.20623
7 -2.10326
7.05 -1.98228
7.1 -1.84795
7.15 -1.7052
7.2 -1.54444
7.25 -1.37542
7.3 -1.19537
7.35 -1.00515
7.4 -0.81163
7.45 -0.6089
7.5 -0.40113
7.55 -0.19667
7.6 0.00416
7.65 0.20214
7.7 0.39134
7.75 0.57236
7.8 0.75188
7.85 0.9173
7.9 1.06986
7.95 1.21533
8 1.35492
8.05 1.48728
8.1 1.605
8.15 1.70543
8.2 1.79629
8.25 1.87799
8.3 1.9493
8.35 2.01414
8.4 2.07046
8.45 2.11833
8.5 2.15677
8.55 2.18409
8.6 2.20215
8.65 2.21511
8.7 2.21971
8.75 2.22435
8.8 2.22163
8.85 2.21436
8.9 2.20428
8.95 2.19803
9 2.19173
9.05 2.18066
9.1 2.16404
9.15 2.14299
9.2 2.12477
9.25 2.1047
9.3 2.08334
9.35 2.06019
9.4 2.03308
9.45 2.00685
9.5 1.98294
9.55 1.96104
9.6 1.94014
9.65 1.91407
9.7 1.88945
9.75 1.86067
9.8 1.82876
9.85 1.7956
9.9 1.75656
9.95 1.71968
10 1.68209
10.05 1.6421
10.1 1.60024
10.15 1.55956
10.2 1.51606
10.25 1.47393
10.3 1.42801
10.35 1.38632
10.4 1.34819
10.45 1.30691
10.5 1.26219
10.55 1.21352
10.6 1.16335
10.65 1.11195
10.7 1.06434
10.75 1.01546
10.8 0.97011
10.85 0.92813
10.9 0.88971
10.95 0.85103
11 0.80495
11.05 0.76314
11.1 0.71594
11.15 0.67236
11.2 0.63231
11.25 0.58639
11.3 0.53837
11.35 0.48858
11.4 0.44338
11.45 0.39915
11.5 0.36049
11.55 0.32018
11.6 0.28081
11.65 0.24624
11.7 0.20947
11.75 0.17607
11.8 0.1419
11.85 0.11473
11.9 0.09196
11.95 0.07105
12 0.04792
12.05 0.02455
12.1 -0.00179
12.15 -0.02825
12.2 -0.05238
12.25 -0.07783
12.3 -0.10631
12.35 -0.12924
12.4 -0.15453
12.45 -0.17877
12.5 -0.20151
12.55 -0.22147
12.6 -0.24129
12.65 -0.25768
12.7 -0.27123
12.75 -0.27831
12.8 -0.28575
12.85 -0.29413
12.9 -0.30586
12.95 -0.31967
13 -0.33022
13.05 -0.3331
13.1 -0.34036
13.15 -0.34906
13.2 -0.35912
13.25 -0.3672
13.3 -0.36993
13.35 -0.36908
13.4 -0.36923
13.45 -0.3693
13.5 -0.36889
13.55 -0.36781
13.6 -0.36369
13.65 -0.3613
13.7 -0.35546
13.75 -0.3506
13.8 -0.34442
13.85 -0.33836
13.9 -0.33753
13.95 -0.34176
14 -0.34716
14.05 -0.35264
14.1 -0.35917
14.15 -0.36693
14.2 -0.36994
14.25 -0.3706
14.3 -0.36909
14.35 -0.36843
14.4 -0.36941
14.45 -0.37019
14.5 -0.36412
14.55 -0.35671
14.6 -0.34926
14.65 -0.34027
14.7 -0.3285
14.75 -0.31992
14.8 -0.31412
14.85 -0.30901
14.9 -0.30086
14.95 -0.29731
15 -0.29514
15.05 -0.29655
15.1 -0.2947
15.15 -0.28756
15.2 -0.2792
15.25 -0.27179
15.3 -0.26386
15.35 -0.26065
15.4 -0.2592
15.45 -0.2609
15.5 -0.25805
15.55 -0.25903
15.6 -0.26172
15.65 -0.26412
15.7 -0.26213
15.75 -0.25464
15.8 -0.24515
15.85 -0.2337
15.9 -0.22597
15.95 -0.21927
16 -0.21853
16.05 -0.21793
16.1 -0.22008
16.15 -0.21635
16.2 -0.2122
16.25 -0.2045
16.3 -0.19749
16.35 -0.18853
16.4 -0.1792
16.45 -0.17269
16.5 -0.16848
16.55 -0.16352
16.6 -0.16314
16.65 -0.16048
16.7 -0.16196
16.75 -0.16005
16.8 -0.15806
16.85 -0.15584
16.9 -0.15663
16.95 -0.16145
17 -0.16566
17.05 -0.16657
17.1 -0.16728
17.15 -0.16867
17.2 -0.17096
17.25 -0.17387
17.3 -0.17739
17.35 -0.1737
17.4 -0.17039
17.45 -0.16433
17.5 -0.15399
17.55 -0.14321
17.6 -0.13312
17.65 -0.13069
17.7 -0.13273
17.75 -0.13684
17.8 -0.14004
17.85 -0.13773
17.9 -0.13754
17.95 -0.1341
18 -0.12682
18.05 -0.12381
18.1 -0.12418
18.15 -0.12731
18.2 -0.12283
18.25 -0.12102
18.3 -0.12247
18.35 -0.12218
18.4 -0.12084
18.45 -0.11906
18.5 -0.11905
18.55 -0.11776
18.6 -0.11364
18.65 -0.10592
18.7 -0.09831
18.75 -0.09662
18.8 -0.09292
18.85 -0.08985
18.9 -0.08724
18.95 -0.08822
19 -0.08922
19.05 -0.08468
19.1 -0.07849
19.15 -0.07035
19.2 -0.06476
19.25 -0.0582
19.3 -0.05775
19.35 -0.06289
19.4 -0.06286
19.45 -0.06802
19.5 -0.07365
19.55 -0.0772
19.6 -0.07426
19.65 -0.07199
19.7 -0.06826
19.75 -0.06805
19.8 -0.06853
19.85 -0.07102
19.9 -0.06852
19.95 -0.06442
20 -0.06186
20.05 -0.05715
20.1 -0.05564
20.15 -0.05023
20.2 -0.04983
20.25 -0.04779
20.3 -0.04534
20.35 -0.0408
20.4 -0.038
20.45 -0.03354
20.5 -0.03121
20.55 -0.03001
20.6 -0.03408
20.65 -0.03436
20.7 -0.03642
20.75 -0.03842
20.8 -0.04246
20.85 -0.04681
20.9 -0.05219
20.95 -0.05628
21 -0.0555
21.05 -0.04955
21.1 -0.04907
21.15 -0.05078
21.2 -0.05245
21.25 -0.05523
21.3 -0.05878
21.35 -0.05959
21.4 -0.05981
21.45 -0.06018
21.5 -0.05615
21.55 -0.04946
21.6 -0.04748
21.65 -0.04132
21.7 -0.03564
21.75 -0.03246
21.8 -0.03114
21.85 -0.02587
21.9 -0.02455
21.95 -0.02851
22 -0.03256
22.05 -0.03458
22.1 -0.03999
22.15 -0.04145
22.2 -0.03696
22.25 -0.03522
22.3 -0.03448
22.35 -0.03193
22.4 -0.0293
22.45 -0.03169
22.5 -0.03478
22.55 -0.03543
22.6 -0.0316
22.65 -0.02507
22.7 -0.02318
22.75 -0.02298
22.8 -0.01851
22.85 -0.01457
22.9 -0.01587
22.95 -0.0192
23 -0.02072
23.05 -0.02481
23.1 -0.02975
23.15 -0.0277
23.2 -0.02684
23.25 -0.02596
23.3 -0.02214
23.35 -0.01591
23.4 -0.01619
23.45 -0.01383
23.5 -0.01114
23.55 -0.00801
23.6 -0.00418
23.65 -0.00065
23.7 -0.00425
23.75 -0.00796
23.8 -0.00693
23.85 -0.00666
23.9 -0.01072
23.95 -0.00945
24 -0.00929
24.05 -0.00974
24.1 -0.01219
24.15 -0.01756
24.2 -0.01687
24.25 -0.01259
24.3 -0.00815
24.35 -0.00566
24.4 -0.00864
24.45 -0.00851
24.5 -0.01196
24.55 -0.01314
24.6 -0.01026
24.65 -0.01299
24.7 -0.01507
24.75 -0.01753
24.8 -0.01806
24.85 -0.02242
24.9 -0.02721
24.95 -0.02543
25 -0.02756
25.05 -0.0245
25.1 -0.01962
25.15 -0.01726
25.2 -0.01669
25.25 -0.02063
25.3 -0.02214
25.35 -0.02321
25.4 -0.01911
25.45 -0.0182
25.5 -0.02051
25.55 -0.0179
25.6 -0.01999
25.65 -0.01656
25.7 -0.01711
25.75 -0.01947
25.8 -0.02016
25.85 -0.02394
25.9 -0.02675
25.95 -0.02851
26 -0.03065
26.05 -0.02714
26.1 -0.02579
26.15 -0.02427
26.2 -0.02057
26.25 -0.01281
26.3 -0.00964
26.35 -0.00761
26.4 -0.00489
26.45 -0.00534
26.5 -0.00455
26.55 -0.00333
26.6 -0.00678
26.65 -0.00854
26.7 -0.0101
26.75 -0.01376
26.8 -0.01527
26.85 -0.01114
26.9 -0.01217
26.95 -0.01416
27 -0.01601
27.05 -0.01873
27.1 -0.02377
27.15 -0.02366
27.2 -0.02066
27.25 -0.01374
27.3 -0.0062
27.35 -0.00335
27.4 -0.00383
27.45 -0.00206
27.5 -0.0036
27.55 -0.00242
27.6 0.00219
27.65 0.00905
27.7 0.0122
27.75 0.01591
27.8 0.01486
27.85 0.01169
27.9 0.00915
27.95 0.00368
28 -0.00156
28.05 -0.00451
28.1 -0.00846
28.15 -0.01507
28.2 -0.01613
28.25 -0.01644
28.3 -0.01153
28.35 -0.00383
28.4 0.00032
28.45 0.00628
28.5 0.00639
28.55 0.00087
28.6 0.00028
28.65 0.00326
28.7 0.0024
28.75 0.0012
28.8 -0.0012
28.85 -0.00123
28.9 -0.00507
28.95 -0.01144
29 -0.01301
29.05 -0.01795
29.1 -0.01712
29.15 -0.01766
29.2 -0.01826
29.25 -0.01867
29.3 -0.01983
29.35 -0.02088
29.4 -0.01947
29.45 -0.02038
29.5 -0.02493
29.55 -0.03035
29.6 -0.03622
29.65 -0.03637
29.7 -0.03836
29.75 -0.03546
29.8 -0.03019
29.85 -0.03132
29.9 -0.03614
29.95 -0.0428
30 -0.04202
30.05 -0.04223
30.1 -0.04307
30.15 -0.04
30.2 -0.035
30.25 -0.02806
30.3 -0.02765
30.35 -0.02289
30.4 -0.02232
30.45 -0.01797
30.5 -0.01662
30.55 -0.01794
30.6 -0.01979
30.65 -0.02321
30.7 -0.0276
30.75 -0.0309
30.8 -0.03474
30.85 -0.03123
30.9 -0.02248
30.95 -0.01757
31 -0.01624
31.05 -0.01516
31.1 -0.01346
31.15 -0.01143
31.2 -0.00417
31.25 0.00188
31.3 0.01083
31.35 0.01542
31.4 0.02101
31.45 0.02616
31.5 0.03313
31.55 0.04046
31.6 0.04529
31.65 0.04922
31.7 0.04745
31.75 0.04799
31.8 0.04761
31.85 0.04369
31.9 0.03439
31.95 0.02434
32 0.01584
32.05 0.01256
32.1 0.00984
32.15 0.0067
32.2 0.00284
32.25 0.00334
32.3 0.00408
32.35 0.00702
32.4 0.01282
32.45 0.01406
32.5 0.01855
32.55 0.02111
32.6 0.02165
32.65 0.02384
32.7 0.02491
32.75 0.02289
32.8 0.02384
32.85 0.02743
32.9 0.03286
32.95 0.03165
33 0.02879
33.05 0.02951
33.1 0.02609
33.15 0.02211
33.2 0.021
33.25 0.0181
33.3 0.01991
33.35 0.02546
33.4 0.02561
33.45 0.02916
33.5 0.03427
33.55 0.03737
33.6 0.0345
33.65 0.03009
33.7 0.02291
33.75 0.02209
33.8 0.01705
33.85 0.01761
33.9 0.02091
33.95 0.0231
34 0.02002
34.05 0.01803
34.1 0.0137
34.15 0.00946
34.2 0.00809
34.25 0.00299
34.3 0.00016
34.35 0.00153
34.4 0.00058
34.45 0.00508
34.5 0.00629
34.55 0.00493
34.6 0.00128
34.65 0.00087
34.7 0.00477
34.75 0.00729
34.8 0.01079
34.85 0.00878
34.9 0.00954
34.95 0.00954
35 0.00851
35.05 0.01129
35.1 0.01466
35.15 0.01961
35.2 0.02476
35.25 0.0282
35.3 0.02698
35.35 0.02491
35.4 0.01892
35.45 0.01153
35.5 0.00301
35.55 -0.00288
35.6 -0.01095
35.65 -0.02003
35.7 -0.02668
35.75 -0.02856
35.8 -0.02459
35.85 -0.01812
35.9 -0.01222
35.95 -0.00801
36 -0.0101
36.05 -0.00803
36.1 -0.00647
36.15 -0.00821
36.2 -0.01159
36.25 -0.01407
36.3 -0.01623
36.35 -0.0138
36.4 -0.01016
36.45 -0.01164
36.5 -0.01153
36.55 -0.01556
36.6 -0.01829
36.65 -0.01682
36.7 -0.01857
36.75 -0.01788
36.8 -0.01745
36.85 -0.01659
36.9 -0.01472
36.95 -0.01555
37 -0.01708
37.05 -0.01639
37.1 -0.01892
37.15 -0.01541
37.2 -0.0167
37.25 -0.01371
37.3 -0.00912
37.35 -0.00761
37.4 -0.00828
37.45 -0.00813
37.5 -0.00727
37.55 -0.00192
37.6 -0.00091
37.65 0.00381
37.7 0.00463
37.75 0.001
37.8 -0.00601
37.85 -0.0076
37.9 -0.00707
37.95 -0.00705
38 -0.00839
38.05 -0.00455
38.1 -0.00242
38.15 -0.00284
38.2 -0.0059
38.25 -0.01126
38.3 -0.01274
38.35 -0.01315
38.4 -0.01638
38.45 -0.0219
38.5 -0.02673
38.55 -0.03113
38.6 -0.03076
38.65 -0.02674
38.7 -0.02383
38.75 -0.0198
38.8 -0.0129
38.85 -0.01033
38.9 -0.00712
38.95 -0.00791
39 -0.01015
39.05 -0.00715
39.1 -0.00259
39.15 0.00508
39.2 0.01236
39.25 0.01586
39.3 0.01639
39.35 0.01854
39.4 0.01408
39.45 0.01345
39.5 0.01192
39.55 0.01091
39.6 0.00501
39.65 0.0043
39.7 0.0025
39.75 0.00258
39.8 0.00257
39.85 0.00121
39.9 0.00158
39.95 0.00152
40 -0.00289
40.05 -0.001
40.1 0.00358
40.15 0.00568
40.2 0.01039
40.25 0.01597
40.3 0.01498
40.35 0.01587
40.4 0.01866
40.45 0.01964
40.5 0.01681
40.55 0.01557
40.6 0.00877
40.65 0.00124
40.7 -0.00611
40.75 -0.00897
40.8 -0.01257
40.85 -0.01139
40.9 -0.00798
40.95 -0.0069
41 -0.00237
41.05 0.003
41.1 0.00929
41.15 0.01365
41.2 0.01374
41.25 0.01284
41.3 0.01154
41.35 0.0133
41.4 0.01627
41.45 0.01929
41.5 0.02091
41.55 0.01662
41.6 0.01606
41.65 0.01211
41.7 0.01078
41.75 0.01111
41.8 0.00823
41.85 0.00167
41.9 -0.00729
41.95 -0.01354
42 -0.01306
42.05 -0.01198
42.1 -0.00833
42.15 -0.00325
42.2 0.00375
42.25 0.01027
42.3 0.01061
42.35 0.01232
42.4 0.01461
42.45 0.01264
42.5 0.00832
42.55 0.00309
42.6 -0.00057
42.65 -0.00499
42.7 -0.0116
42.75 -0.01158
42.8 -0.00666
42.85 0.00087
42.9 0.00903
42.95 0.00827
43 0.00257
43.05 0.00254
43.1 -0.00124
43.15 -0.00511
43.2 -0.01087
43.25 -0.01432
43.3 -0.01461
43.35 -0.01436
43.4 -0.0119
43.45 -0.00627
43.5 -0.0025
43.55 0.00184
43.6 0.00775
43.65 0.01197
43.7 0.01083
43.75 0.01215
43.8 0.01042
43.85 0.00826
43.9 0.01018
43.95 0.00789
44 0.00984
44.05 0.01092
44.1 0.01058
44.15 0.00727
44.2 0.0081
44.25 0.01185
44.3 0.01559
44.35 0.0119
44.4 0.01134
44.45 0.0074
44.5 0.00039
44.55 -0.00386
44.6 -0.00913
44.65 -0.01114
44.7 -0.0116
44.75 -0.01005
44.8 -0.00927
44.85 -0.00928
44.9 -0.00598
44.95 -0.00634
45 -0.01085
45.05 -0.01674
45.1 -0.01762
45.15 -0.01379
45.2 -0.0119
45.25 -0.00901
45.3 -0.00897
45.35 -0.01322
45.4 -0.01578
45.45 -0.01444
45.5 -0.00949
45.55 -0.00368
45.6 0.00402
45.65 0.01034
45.7 0.01187
45.75 0.01086
45.8 0.01029
45.85 0.00523
45.9 0.00455
45.95 0.00501
46 0.00679
46.05 0.01061
46.1 0.01385
46.15 0.01077
46.2 0.01072
46.25 0.01187
46.3 0.01159
46.35 0.00884
46.4 0.00698
46.45 0.00354
46.5 -0.00371
46.55 -0.00454
46.6 -0.00947
46.65 -0.01664
46.7 -0.01583
46.75 -0.01139
46.8 -0.01081
46.85 -0.00995
46.9 -0.01164
46.95 -0.01597
47 -0.0179
47.05 -0.01695
47.1 -0.01906
47.15 -0.01681
47.2 -0.01317
47.25 -0.00884
47.3 -0.00362
47.35 -0.00375
47.4 0.0005
47.45 0.00287
47.5 0.00409
47.55 0.00042
47.6 0.00059
47.65 0.00403
47.7 0.00485
47.75 0.00874
47.8 0.01441
47.85 0.02008
47.9 0.02373
47.95 0.02366
48 0.02124
48.05 0.01355
48.1 0.00971
48.15 0.00566
48.2 0.00201
48.25 -0.00482
48.3 -0.00742
48.35 -0.00463
48.4 -0.00694
48.45 -0.01295
48.5 -0.01766
48.55 -0.01693
48.6 -0.01796
48.65 -0.01924
48.7 -0.02329
48.75 -0.02079
48.8 -0.01748
48.85 -0.01729
48.9 -0.01386
48.95 -0.00917
49 -0.00863
49.05 -0.0038
49.1 -0.00496
49.15 -0.00728
49.2 -0.00792
49.25 -0.00662
49.3 -0.00258
49.35 0.00276
49.4 0.00969
49.45 0.0128
49.5 0.01124
49.55 0.00765
49.6 0.00182
49.65 -0.00494
49.7 -0.0098
49.75 -0.01525
49.8 -0.01974
49.85 -0.02164
49.9 -0.02253
49.95 -0.02057
50 -0.01401
50.05 -0.00793
50.1 -0.00791
50.15 -0.00631
50.2 -0.00134
50.25 0.00573
50.3 0.00891
50.35 0.00757
50.4 0.00648
50.45 0.00101
50.5 -0.0044
50.55 -0.01136
50.6 -0.01854
50.65 -0.02329
50.7 -0.0265
50.75 -0.02694
50.8 -0.02913
50.85 -0.02678
50.9 -0.02542
50.95 -0.02193
51 -0.02045
51.05 -0.01445
51.1 -0.00477
51.15 0.00441
51.2 0.01155
51.25 0.01171
51.3 0.00974
51.35 0.00608
51.4 0.00397
51.45 0.00289
51.5 0.00656
51.55 0.01255
51.6 0.01781
51.65 0.01631
51.7 0.01279
51.75 0.00706
51.8 0.0042
51.85 0.00652
51.9 0.00538
51.95 0.00174
52 -0.00464
52.05 -0.01086
52.1 -0.00943
52.15 -0.00976
52.2 -0.00592
52.25 0.00022
52.3 0.00664
52.35 0.00713
52.4 0.00562
52.45 0.00623
52.5 0.01014
52.55 0.00788
52.6 0.00515
52.65 -0.00001
52.7 -0.00121
52.75 -0.00196
52.8 -0.00393
52.85 -0.00292
52.9 -0.00184
52.95 0.00163
53 0.0006
53.05 0.00408
53.1 0.00765
53.15 0.00829
53.2 0.01143
53.25 0.01251
53.3 0.01523
53.35 0.01185
53.4 0.0079
53.45 0.00115
53.5 -0.00224
53.55 -0.00359
53.6 -0.00556
53.65 -0.00759
53.7 -0.00418
53.75 -0.00233
53.8 0.002
53.85 0.00408
53.9 0.00909
53.95 0.01255
54 0.01099
54.05 0.00779
54.1 0.00421
54.15 0.00227
54.2 0.00317
54.25 0.00592
54.3 0.00959
54.35 0.01312
54.4 0.01096
54.45 0.01023
54.5 0.00397
54.55 -0.00305
54.6 -0.01016
54.65 -0.01465
54.7 -0.01602
54.75 -0.01276
54.8 -0.00568
54.85 0.0012
54.9 0.00424
54.95 0.00316
55 0.00475
55.05 0.00957
55.1 0.01377
55.15 0.01481
55.2 0.01106
55.25 0.0105
55.3 0.00846
55.35 0.00803
55.4 0.00314
55.45 0.00038
55.5 -0.00103
55.55 -0.00331
55.6 -0.00064
55.65 -0
55.7 -0.00355
55.75 -0.00137
55.8 -0.00016
55.85 0.00174
55.9 0.00508
55.95 0.00254
56 0.00479
56.05 0.0099
56.1 0.00746
56.15 0.00258
56.2 -0.00543
56.25 -0.01199
56.3 -0.01347
56.35 -0.01539
56.4 -0.01355
56.45 -0.01512
56.5 -0.0138
56.55 -0.01347
56.6 -0.01498
56.65 -0.01642
56.7 -0.01542
56.75 -0.01703
56.8 -0.01502
56.85 -0.01248
56.9 -0.01208
56.95 -0.01546
57 -0.01325
57.05 -0.01404
57.1 -0.01335
57.15 -0.00965
57.2 -0.00509
57.25 0.00107
57.3 0.00226
57.35 0.00354
57.4 0.00755
57.45 0.00697
57.5 0.00754
57.55 0.00769
57.6 0.00974
57.65 0.00921
57.7 0.00493
57.75 0.00559
57.8 0.00379
57.85 -0.00113
57.9 -0.00189
57.95 -0.00638
58 -0.00606
58.05 -0.00239
58.1 -0.00044
58.15 -0.00252
58.2 -0.00373
58.25 -0.00372
58.3 -0.00406
58.35 -0.00378
58.4 -0.00318
58.45 -0.00356
58.5 -0.00219
58.55 -0.00309
58.6 -0.007
58.65 -0.00705
58.7 -0.00482
58.75 -0.0043
58.8 -0.00197
58.85 0.0031
58.9 0.00992
58.95 0.00988
59 0.00626
59.05 0.00315
59.1 -0.0033
59.15 -0.01141
59.2 -0.01391
59.25 -0.01303
59.3 -0.00833
59.35 -0.0036
59.4 0.00029
59.45 0.00166
59.5 0.00034
59.55 0.00048
59.6 0.00203
59.65 0.00433
59.7 0.00663
59.75 0.01151
59.8 0.01372
59.85 0.01162
59.9 0.0125
59.95 0.01043
60 0.00518
60.05 0.00548
60.1 0.00316
60.15 0.00461
60.2 0.00927
60.25 0.00659
60.3 0.00278
60.35 -0.00449
60.4 -0.01099
60.45 -0.01343
60.5 -0.01203
60.55 -0.00614
60.6 -0.0051
60.65 -0.00777
60.7 -0.00703
60.75 -0.00263
60.8 0.00276
60.85 0.00538
60.9 0.01008
60.95 0.01652
61 0.02056
61.05 0.02317
61.1 0.02527
61.15 0.02164
61.2 0.01317
61.25 0.01092
61.3 0.0038
61.35 -0.00188
61.4 -0.00865
61.45 -0.01558
61.5 -0.01624
61.55 -0.01786
61.6 -0.01601
61.65 -0.01811
61.7 -0.01604
61.75 -0.01815
61.8 -0.017
61.85 -0.01375
61.9 -0.0105
61.95 -0.00654
62 -0.00352
62.05 -0.00323
62.1 -0.00718
62.15 -0.00978
62.2 -0.01121
62.25 -0.01422
62.3 -0.01607
62.35 -0.01423
62.4 -0.01278
62.45 -0.01502
62.5 -0.0138
62.55 -0.01451
62.6 -0.01071
62.65 -0.01009
62.7 -0.00656
62.75 -0.00322
62.8 -0.00115
62.85 -0.00399
62.9 -0.00397
62.95 0.00002
63 0.00377
63.05 0.00446
63.1 0.00046
63.15 -0.00299
63.2 -0.00612
63.25 -0.00385
63.3 0.00125
63.35 0.00865
63.4 0.0088
63.45 0.0045
63.5 0.00364
63.55 0.00354
63.6 0.00324
63.65 0.00298
63.7 -0.0002
63.75 0.00003
63.8 0.00046
63.85 0.00391
63.9 0.00908
63.95 0.01197
64 0.01486
64.05 0.01845
64.1 0.01511
64.15 0.01244
64.2 0.01197
64.25 0.00613
64.3 -0.00279
64.35 -0.0072
64.4 -0.00528
64.45 -0.00463
64.5 -0.00506
64.55 -0.00647
64.6 -0.00473
64.65 -0.00279
64.7 0.0028
64.75 0.00237
64.8 -0.00199
64.85 -0.00389
64.9 -0.00207
64.95 0.00362
65 0.01008
65.05 0.01725
65.1 0.01594
65.15 0.01168
65.2 0.01084
65.25 0.0055
65.3 0.00149
65.35 0.00083
65.4 0.00325
65.45 0.00347
65.5 0.00048
65.55 -0.00352
65.6 -0.00705
65.65 -0.01038
65.7 -0.01455
65.75 -0.01875
65.8 -0.02426
65.85 -0.0284
65.9 -0.03004
65.95 -0.02452
66 -0.02106
66.05 -0.01423
66.1 -0.00823
66.15 -0.00557
66.2 -0.00059
66.25 0.00684
66.3 0.00862
66.35 0.01288
66.4 0.015
66.45 0.01444
66.5 0.01728
66.55 0.02041
66.6 0.01604
66.65 0.00952
66.7 0.00163
66.75 -0.00822
66.8 -0.0168
66.85 -0.01979
66.9 -0.0191
66.95 -0.01947
67 -0.02241
67.05 -0.02156
67.1 -0.02011
67.15 -0.02006
67.2 -0.01799
67.25 -0.0158
67.3 -0.00924
67.35 -0.00791
67.4 -0.00356
67.45 0.00315
67.5 0.00647
67.55 0.01268
67.6 0.012
67.65 0.00698
67.7 -0.00069
67.75 -0.00535
67.8 -0.0076
67.85 -0.00394
67.9 -0.00343
67.95 -0.00012
68 0.00616
68.05 0.0135
68.1 0.01627
68.15 0.01446
68.2 0.01159
68.25 0.00804
68.3 0.00211
68.35 0.00121
68.4 -0.00061
68.45 -0.00628
68.5 -0.01196
68.55 -0.01488
68.6 -0.01413
68.65 -0.01629
68.7 -0.02073
68.75 -0.01861
68.8 -0.01932
68.85 -0.01624
68.9 -0.0103
68.95 -0.00682
69 -0.00311
69.05 -0.00101
69.1 0.0025
69.15 0.00785
69.2 0.01206
69.25 0.01376
69.3 0.01503
69.35 0.01045
69.4 0.0038
69.45 -0.00062
69.5 -0.00453
69.55 -0.00571
69.6 -0.00329
69.65 0.0004
69.7 0.00111
69.75 -0.0018
69.8 -0.00417
69.85 -0.00928
69.9 -0.00788
69.95 -0.01037
70 -0.01128
70.05 -0.01173
70.1 -0.00706
70.15 -0.00162
70.2 0.00544
70.25 0.008
70.3 0.00763
70.35 0.00285
70.4 -0.00256
70.45 -0.00831
70.5 -0.01264
70.55 -0.01158
70.6 -0.00922
70.65 -0.00921
70.7 -0.0125
70.75 -0.01672
70.8 -0.01859
70.85 -0.02185
70.9 -0.02408
70.95 -0.02165
71 -0.0211
71.05 -0.02056
71.1 -0.01718
71.15 -0.00973
71.2 -0.00773
71.25 -0.00112
71.3 0.00746
71.35 0.01173
71.4 0.01223
71.45 0.00991
71.5 0.00549
71.55 0.00435
71.6 0.00082
71.65 -0.00306
71.7 -0.00647
71.75 -0.0098
71.8 -0.00913
71.85 -0.00713
71.9 -0.00335
71.95 0.0003
72 -0.00007
72.05 -0.00054
72.1 -0.00011
72.15 0.00124
72.2 0.00579
72.25 0.00855
72.3 0.00625
72.35 0.00194
72.4 -0.00226
72.45 -0.00335
72.5 -0.00772
72.55 -0.01055
72.6 -0.00976
72.65 -0.00697
72.7 -0.00305
72.75 0.00319
72.8 0.00886
72.85 0.0167
72.9 0.02096
72.95 0.02247
73 0.02405
73.05 0.01992
73.1 0.01264
73.15 0.00526
73.2 0.0024
73.25 0.00454
73.3 0.00598
73.35 0.0098
73.4 0.00858
73.45 0.00307
73.5 0.00232
73.55 0.00061
73.6 -0.0047
73.65 -0.00839
73.7 -0.01079
73.75 -0.01212
73.8 -0.01346
73.85 -0.01479
73.9 -0.01583
73.95 -0.01422
74 -0.00738
74.05 -0.0025
74.1 -0.00214
74.15 -0.0034
74.2 -0.00318
74.25 -0.00534
74.3 -0.00259
74.35 0.0001
74.4 0.00571
74.45 0.01344
74.5 0.02118
74.55 0.02153
74.6 0.02166
74.65 0.01848
74.7 0.01319
74.75 0.01325
74.8 0.01217
74.85 0.01418
74.9 0.0156
74.95 0.01752
75 0.01438
75.05 0.01337
75.1 0.01528
75.15 0.01732
75.2 0.01485
75.25 0.00916
75.3 0.00941
75.35 0.01006
75.4 0.00718
75.45 0.00911
75.5 0.01383
75.55 0.016
75.6 0.01335
75.65 0.01428
75.7 0.01027
75.75 0.00809
75.8 0.00837
75.85 0.00592
75.9 0.00764
75.95 0.00753
76 0.0055
76.05 -0.00086
76.1 -0.0029
76.15 -0.0081
76.2 -0.01489
76.25 -0.02083
76.3 -0.02144
76.35 -0.01797
76.4 -0.01485
76.45 -0.01616
76.5 -0.01368
76.55 -0.00888
76.6 -0.00934
76.65 -0.00519
76.7 -0.00266
76.75 -0.00335
76.8 0.00109
76.85 0.00462
76.9 0.00801
76.95 0.01334
77 0.01748
77.05 0.02055
77.1 0.02096
77.15 0.0167
77.2 0.01702
77.25 0.01707
77.3 0.01481
77.35 0.00945
77.4 0.00658
77.45 0.00206
77.5 -0.00301
77.55 -0.00938
77.6 -0.0151
77.65 -0.01682
77.7 -0.01613
77.75 -0.01744
77.8 -0.01504
77.85 -0.01684
77.9 -0.01547
77.95 -0.01759
78 -0.01739
78.05 -0.01544
78.1 -0.00864
78.15 0.00082
78.2 0.00929
78.25 0.01195
78.3 0.01394
78.35 0.01107
78.4 0.01229
78.45 0.00794
78.5 0.00371
78.55 0.00404
78.6 0.00739
78.65 0.00789
78.7 0.0055
78.75 0.00413
78.8 0.00119
78.85 -0.00072
78.9 -0.00638
78.95 -0.00594
79 -0.00322
79.05 -0.00493
79.1 -0.008
79.15 -0.01114
79.2 -0.01257
79.25 -0.0083
79.3 -0.00204
79.35 -0.00197
79.4 -0.0057
79.45 -0.00923
79.5 -0.01431
79.55 -0.01575
79.6 -0.01814
79.65 -0.01887
79.7 -0.02216
79.75 -0.02467
79.8 -0.02538
79.85 -0.02481
79.9 -0.01874
79.95 -0.01586
80 -0.01528
80.05 -0.00944
80.1 -0.00318
80.15 -0.00198
80.2 0.00107
80.25 0.00521
80.3 0.00487
80.35 -0.00008
80.4 -0.00114
80.45 -0.00136
80.5 -0.00006
80.55 0.00009
80.6 0.00101
80.65 0.00019
80.7 0.00438
80.75 0.011
80.8 0.01374
80.85 0.01055
80.9 0.00455
80.95 0.00105
81 0.00139
81.05 0.00406
81.1 0.00199
81.15 -0.0015
81.2 -0.00279
81.25 0.00143
81.3 0.00548
81.35 0.00622
81.4 0.00493
81.45 0.0068
81.5 0.0078
81.55 0.00422
81.6 0.00336
81.65 0.00539
81.7 0.00329
81.75 0.00386
81.8 0.00636
81.85 0.00748
81.9 0.01216
81.95 0.01778
82 0.0206
82.05 0.01656
82.1 0.01524
82.15 0.0135
82.2 0.00796
82.25 0.00144
82.3 -0.00669
82.35 -0.00737
82.4 -0.00405
82.45 -0.00039
82.5 0.00629
82.55 0.01109
82.6 0.01702
82.65 0.02382
82.7 0.02527
82.75 0.02581
82.8 0.02328
82.85 0.02328
82.9 0.0222
82.95 0.02241
83 0.02239
83.05 0.01925
83.1 0.01107
83.15 0.00894
83.2 0.00625
83.25 0.00155
83.3 -0.00435
83.35 -0.00914
83.4 -0.01217
83.45 -0.01524
83.5 -0.01622
83.55 -0.01495
83.6 -0.0157
83.65 -0.01525
83.7 -0.01377
83.75 -0.01266
83.8 -0.01366
83.85 -0.01507
83.9 -0.01798
83.95 -0.01677
84 -0.01092
84.05 -0.00736
84.1 -0.00604
84.15 -0.00425
84.2 -0.00687
84.25 -0.00387
84.3 -0.00081
84.35 0.00179
84.4 0.006
84.45 0.00469
84.5 0.00658
84.55 0.00254
84.6 0.00372
84.65 0.00791
84.7 0.00689
84.75 0.00613
84.8 0.00668
84.85 0.00993
84.9 0.00798
84.95 0.00594
85 0.00345
85.05 -0.00049
85.1 -0.00472
85.15 -0.00631
85.2 -0.00437
85.25 0.00008
85.3 0.00734
85.35 0.00707
85.4 0.00226
85.45 0.00147
85.5 0.00345
85.55 0.00158
85.6 0.00128
85.65 0.00299
85.7 -0.001
85.75 -0.00509
85.8 -0.01095
85.85 -0.01567
85.9 -0.02005
85.95 -0.02106
86 -0.02001
86.05 -0.018
86.1 -0.01272
86.15 -0.01208
86.2 -0.01222
86.25 -0.01069
86.3 -0.00756
86.35 -0.0009
86.4 0.00215
86.45 0.00225
86.5 0.00655
86.55 0.00481
86.6 0.00083
86.65 -0.00334
86.7 -0.00435
86.75 -0.00042
86.8 0.00243
86.85 0.00658
86.9 0.00953
86.95 0.00823
87 0.00649
87.05 0.00616
87.1 0.00719
87.15 0.00548
87.2 0.00334
87.25 0.00131
87.3 0.00162
87.35 -0.0003
87.4 0
87.45 -0.00274
87.5 -0.00564
87.55 -0.00997
87.6 -0.01484
87.65 -0.02033
87.7 -0.02655
87.75 -0.02626
87.8 -0.02228
87.85 -0.01857
87.9 -0.01245
87.95 -0.0096
88 -0.00392
88.05 0.00286
88.1 0.0052
88.15 0.01083
88.2 0.01004
88.25 0.00699
88.3 0.00304
88.35 0.00473
88.4 0.00572
88.45 0.01033
88.5 0.00904
88.55 0.00839
88.6 0.01081
88.65 0.01398
88.7 0.01105
88.75 0.00441
88.8 -0.00382
88.85 -0.00497
88.9 -0.00284
88.95 0.00314
89 0.00664
89.05 0.00512
89.1 0.00166
89.15 -0.00073
89.2 -0.00251
89.25 -0.00341
89.3 -0.00611
89.35 -0.00681
89.4 -0.00234
89.45 -0.00171
89.5 -0.00088
89.55 0.00419
89.6 0.00287
89.65 0.00463
89.7 0.00663
89.75 0.0073
89.8 0.00543
89.85 0.00604
89.9 0.00423
89.95 -0.001
90 -0.00595
90.05 -0.00864
90.1 -0.01056
90.15 -0.00739
90.2 -0.00099
90.25 0.00155
90.3 0.00254
90.35 0.00417
90.4 0.00775
90.45 0.00661
90.5 0.00971
90.55 0.00922
90.6 0.00698
90.65 0.0042
90.7 0.00171
90.75 -0.00255
90.8 -0.00617
90.85 -0.00765
90.9 -0.0099
90.95 -0.01169
91 -0.01056
91.05 -0.00884
91.1 -0.01053
91.15 -0.01398
91.2 -0.01469
91.25 -0.01801
91.3 -0.01591
91.35 -0.01709
91.4 -0.01715
91.45 -0.01401
91.5 -0.0135
91.55 -0.01516
91.6 -0.01862
91.65 -0.01791
91.7 -0.01184
91.75 -0.00553
91.8 -0.00466
91.85 -0.00406
91.9 -0.00441
91.95 -0.00764
92 -0.00801
92.05 -0.0035
92.1 0.00067
92.15 -0.00043
92.2 -0.00468
92.25 -0.00822
92.3 -0.00635
92.35 -0.00128
92.4 -0.00164
92.45 0.00213
92.5 0.00581
92.55 0.00505
92.6 0.00722
92.65 0.01041
92.7 0.00851
92.75 0.00263
92.8 -0.00376
92.85 -0.00607
92.9 -0.0065
92.95 -0.00718
93 -0.00274
93.05 0.00241
93.1 0.00178
93.15 0.00322
93.2 0.00781
93.25 0.01336
93.3 0.02027
93.35 0.02756
93.4 0.03253
93.45 0.02926
93.5 0.0268
93.55 0.02687
93.6 0.02787
93.65 0.0287
93.7 0.02816
93.75 0.02406
93.8 0.02084
93.85 0.01317
93.9 0.00449
93.95 -0.00221
94 -0.00467
94.05 -0.00467
94.1 -0.00081
94.15 0.00367
94.2 0.00933
94.25 0.01587
94.3 0.01936
94.35 0.01567
94.4 0.01396
94.45 0.01103
94.5 0.00905
94.55 0.00669
94.6 0.00282
94.65 -0.00151
94.7 -0.00277
94.75 -0.00144
94.8 -0.0025
94.85 -0.00742
94.9 -0.00744
94.95 -0.00543
95 -0.00506
95.05 -0.00653
95.1 -0.01068
95.15 -0.01549
95.2 -0.01897
95.25 -0.01676
95.3 -0.01289
95.35 -0.0082
95.4 -0.00022
95.45 0.00676
95.5 0.00663
95.55 0.00262
95.6 0.00079
95.65 -0.00332
95.7 -0.00255
95.75 -0.00519
95.8 -0.00789
95.85 -0.00956
95.9 -0.00656
95.95 -0.00151
96 0.00596
96.05 0.00542
96.1 0.00838
96.15 0.00981
96.2 0.00605
96.25 0.00491
96.3 0.00562
96.35 0.00716
96.4 0.00408
96.45 -0.00144
96.5 -0.0077
96.55 -0.01096
96.6 -0.00886
96.65 -0.00667
96.7 -0.00411
96.75 -0.00151
96.8 -0.00242
96.85 -0.00118
96.9 -0.00304
96.95 -0.00076
97 0.00076
97.05 -0.00032
97.1 -0.00078
97.15 0.00075
97.2 0.00512
97.25 0.00641
97.3 0.00665
97.35 0.00158
97.4 -0.00572
97.45 -0.01435
97.5 -0.02289
97.55 -0.02721
97.6 -0.02574
97.65 -0.02555
97.7 -0.01924
97.75 -0.01473
97.8 -0.0136
97.85 -0.01438
97.9 -0.01366
97.95 -0.01207
98 -0.00938
98.05 -0.00391
98.1 -0.00216
98.15 0.00269
98.2 0.00507
98.25 0.00482
98.3 0.00358
98.35 -0.00011
98.4 -0.00249
98.45 -0.00689
98.5 -0.01019
98.55 -0.0085
98.6 -0.00811
98.65 -0.00768
98.7 -0.00637
98.75 -0.00826
98.8 -0.0051
98.85 0.00099
98.9 0.00505
98.95 0.00675
99 0.00656
99.05 0.00184
99.1 -0.00141
99.15 -0.00502
99.2 -0.00428
99.25 -0.00207
99.3 -0.00075
99.35 0.00164
99.4 0.00412
99.45 0.0083
99.5 0.01268
99.55 0.01047
99.6 0.00714
99.65 0.00271
99.7 -0.00164
99.75 -0.00415
99.8 -0.0053
99.85 -0.00717
99.9 -0.00853
99.95 -0.00492
