0 0
0.05 0.00267
0.1 0.00592
0.15 0.00918
0.2 0.01579
0.25 0.01874
0.3 0.01931
0.35 0.02273
0.4 0.02545
0.45 0.02855
0.5 0.03232
0.55 0.04095
0.6 0.04791
0.65 0.05035
0.7 0.05251
0.75 0.04915
0.8 0.04653
0.85 0.04042
0.9 0.039
0.95 0.03946
1 0.04329
1.05 0.05005
1.1 0.05669
1.15 0.06158
1.2 0.05928
1.25 0.05375
1.3 0.05044
1.35 0.05
1.4 0.05121
1.45 0.05479
1.5 0.05377
1.55 0.04903
1.6 0.04339
1.65 0.03967
1.7 0.03702
1.75 0.03403
1.8 0.03508
1.85 0.03298
1.9 0.02956
1.95 0.02379
2 0.025
2.05 0.02865
2.1 0.0345
2.15 0.03956
2.2 0.04595
2.25 0.04411
2.3 0.04549
2.35 0.04508
2.4 0.03972
2.45 0.03221
2.5 0.02738
2.55 0.02465
2.6 0.02356
2.65 0.02182
2.7 0.01691
2.75 0.01709
2.8 0.02157
2.85 0.02168
2.9 0.02436
2.95 0.03003
3 0.02932
3.05 0.03194
3.1 0.03626
3.15 0.03767
3.2 0.0334
3.25 0.0263
3.3 0.01934
3.35 0.01561
3.4 0.01373
3.45 0.01239
3.5 0.00922
3.55 0.00526
3.6 0.00338
3.65 0.00514
3.7 0.00422
3.75 0.00873
3.8 0.01165
3.85 0.01236
3.9 0.0128
3.95 0.01066
4 0.01077
4.05 0.01136
4.1 0.01183
4.15 0.00749
4.2 0.00901
4.25 0.01216
4.3 0.01472
4.35 0.01389
4.4 0.01106
4.45 0.00226
4.5 -0.00798
4.55 -0.01803
4.6 -0.03135
4.65 -0.04438
4.7 -0.05778
4.75 -0.07119
4.8 -0.08858
4.85 -0.11183
4.9 -0.13781
4.95 -0.1706
5 -0.20956
5.05 -0.2567
5.1 -0.30779
5.15 -0.37096
5.2 -0.43664
5.25 -0.50432
5.3 -0.58148
5.35 -0.66854
5.4 -0.7582
5.45 -0.85471
5.5 -0.94829
5.55 -1.04429
5.6 -1.14388
5.65 -1.24284
5.7 -1.34079
5.75 -1.4381
5.8 -1.53438
5.85 -1.63066
5.9 -1.72312
5.95 -1.80676
6 -1.88748
6.05 -1.96954
6.1 -2.04346
6.15 -2.11489
6.2 -2.18477
6.25 -2.24808
6.3 -2.30425
6.35 -2.35631
6.4 -2.3996
6.45 -2.43955
6.5 -2.47424
6.55 -2.50428
6.6 -2.52402
6.65 -2.52963
6.7 -2.52046
6.75 -2.49306
6.8 -2.45391
6.85 -2.40441
6.9 -2.33888
6.95 -2.25411
7 -2.14906
7.05 -2.02921
7.1 -1.89427
7.15 -1.74731
7.2 -1.59016
7.25 -1.41755
7.3 -1.23722
7.35 -1.04901
7.4 -0.85126
7.45 -0.65039
7.5 -0.44373
7.55 -0.23716
7.6 -0.03114
7.65 0.1712
7.7 0.36649
7.75 0.55717
7.8 0.73661
7.85 0.90383
7.9 1.06088
7.95 1.20674
8 1.34781
8.05 1.48286
8.1 1.60389
8.15 1.71108
8.2 1.80501
8.25 1.88846
8.3 1.96521
8.35 2.02976
8.4 2.08571
8.45 2.13004
8.5 2.16777
8.55 2.19551
8.6 2.21879
8.65 2.2363
8.7 2.24294
8.75 2.24852
8.8 2.2516
8.85 2.24645
8.9 2.23663
8.95 2.2258
9 2.21439
9.05 2.19954
9.1 2.18749
9.15 2.17341
9.2 2.15997
9.25 2.14024
9.3 2.12189
9.35 2.10263
9.4 2.08129
9.45 2.057
9.5 2.02997
9.55 2.0004
9.6 1.9743
9.65 1.94709
9.7 1.9204
9.75 1.88734
9.8 1.85642
9.85 1.82
9.9 1.77951
9.95 1.73999
10 1.69837
10.05 1.65821
10.1 1.62237
10.15 1.58233
10.2 1.54304
10.25 1.50095
10.3 1.45455
10.35 1.41114
10.4 1.36997
10.45 1.32674
10.5 1.27979
10.55 1.23239
10.6 1.18767
10.65 1.14576
10.7 1.1029
10.75 1.05473
10.8 1.0038
10.85 0.95752
10.9 0.90975
10.95 0.86331
11 0.81572
11.05 0.76983
11.1 0.72339
11.15 0.67878
11.2 0.63316
11.25 0.58896
11.3 0.54731
11.35 0.50744
11.4 0.46461
11.45 0.4235
11.5 0.38106
11.55 0.34003
11.6 0.3038
11.65 0.26516
11.7 0.22629
11.75 0.19407
11.8 0.16604
11.85 0.13841
11.9 0.10523
11.95 0.07695
12 0.04951
12.05 0.02524
12.1 -0.00194
12.15 -0.02844
12.2 -0.05612
12.25 -0.08548
12.3 -0.1106
12.35 -0.13522
12.4 -0.16118
12.45 -0.18469
12.5 -0.20797
12.55 -0.23101
12.6 -0.24712
12.65 -0.2559
12.7 -0.26292
12.75 -0.26666
12.8 -0.27021
12.85 -0.27313
12.9 -0.2775
12.95 -0.2886
13 -0.29799
13.05 -0.30391
13.1 -0.31167
13.15 -0.32532
13.2 -0.33658
13.25 -0.34664
13.3 -0.3582
13.35 -0.3656
13.4 -0.36707
13.45 -0.36527
13.5 -0.36219
13.55 -0.36578
13.6 -0.37146
13.65 -0.37644
13.7 -0.38248
13.75 -0.38635
13.8 -0.38838
13.85 -0.39087
13.9 -0.39116
13.95 -0.38915
14 -0.39047
14.05 -0.38641
14.1 -0.38553
14.15 -0.3827
14.2 -0.38272
14.25 -0.37941
14.3 -0.37136
14.35 -0.3649
14.4 -0.35441
14.45 -0.34932
14.5 -0.3408
14.55 -0.33574
14.6 -0.33035
14.65 -0.32171
14.7 -0.31198
14.75 -0.31023
14.8 -0.31216
14.85 -0.31241
14.9 -0.31364
14.95 -0.31049
15 -0.30624
15.05 -0.30268
15.1 -0.29464
15.15 -0.28809
15.2 -0.28632
15.25 -0.28377
15.3 -0.27929
15.35 -0.27485
15.4 -0.27186
15.45 -0.26696
15.5 -0.26143
15.55 -0.26118
15.6 -0.25633
15.65 -0.25508
15.7 -0.25204
15.75 -0.25105
15.8 -0.25091
15.85 -0.24781
15.9 -0.24458
15.95 -0.23913
16 -0.23443
16.05 -0.22605
16.1 -0.2204
16.15 -0.2124
16.2 -0.20589
16.25 -0.20376
16.3 -0.20244
16.35 -0.20326
16.4 -0.20672
16.45 -0.20752
16.5 -0.20804
16.55 -0.20757
16.6 -0.20585
16.65 -0.19807
16.7 -0.1903
16.75 -0.18659
16.8 -0.18445
16.85 -0.18436
16.9 -0.1856
16.95 -0.18286
17 -0.17912
17.05 -0.17404
17.1 -0.17248
17.15 -0.1676
17.2 -0.16562
17.25 -0.16548
17.3 -0.16035
17.35 -0.1549
17.4 -0.15079
17.45 -0.15036
17.5 -0.15007
17.55 -0.14925
17.6 -0.1508
17.65 -0.15322
17.7 -0.15449
17.75 -0.151
17.8 -0.14317
17.85 -0.13339
17.9 -0.13051
17.95 -0.12956
18 -0.12843
18.05 -0.12682
18.1 -0.12229
18.15 -0.11974
18.2 -0.11329
18.25 -0.11107
18.3 -0.11031
18.35 -0.11238
18.4 -0.11592
18.45 -0.11557
18.5 -0.11242
18.55 -0.10485
18.6 -0.0994
18.65 -0.09988
18.7 -0.09991
18.75 -0.0993
18.8 -0.09947
18.85 -0.09622
18.9 -0.09629
18.95 -0.09524
19 -0.09252
19.05 -0.09046
19.1 -0.08761
19.15 -0.08336
19.2 -0.07885
19.25 -0.07275
19.3 -0.07128
19.35 -0.07478
19.4 -0.07807
19.45 -0.08048
19.5 -0.08445
19.55 -0.08322
19.6 -0.07999
19.65 -0.07379
19.7 -0.06525
19.75 -0.0623
19.8 -0.06462
19.85 -0.06769
19.9 -0.06739
19.95 -0.06421
20 -0.06099
20.05 -0.05922
20.1 -0.06209
20.15 -0.06354
20.2 -0.0648
20.25 -0.06678
20.3 -0.06904
20.35 -0.07217
20.4 -0.06839
20.45 -0.06041
20.5 -0.05139
20.55 -0.04731
20.6 -0.04807
20.65 -0.05286
20.7 -0.05188
20.75 -0.0499
20.8 -0.049
20.85 -0.04653
20.9 -0.0425
20.95 -0.03949
21 -0.03904
21.05 -0.04134
21.1 -0.04372
21.15 -0.04854
21.2 -0.04812
21.25 -0.05127
21.3 -0.05152
21.35 -0.05397
21.4 -0.05679
21.45 -0.0594
21.5 -0.06052
21.55 -0.06226
21.6 -0.05894
21.65 -0.05728
21.7 -0.05796
21.75 -0.06027
21.8 -0.05609
21.85 -0.05348
21.9 -0.05112
21.95 -0.04422
22 -0.03515
22.05 -0.02919
22.1 -0.02903
22.15 -0.02443
22.2 -0.02486
22.25 -0.02191
22.3 -0.0232
22.35 -0.02535
22.4 -0.0254
22.45 -0.02817
22.5 -0.03279
22.55 -0.03369
22.6 -0.03679
22.65 -0.03325
22.7 -0.02789
22.75 -0.02731
22.8 -0.03066
22.85 -0.03338
22.9 -0.03623
22.95 -0.03321
23 -0.03389
23.05 -0.0318
23.1 -0.0323
23.15 -0.02972
23.2 -0.02796
23.25 -0.02139
23.3 -0.02138
23.35 -0.02506
23.4 -0.0292
23.45 -0.02734
23.5 -0.0251
23.55 -0.02594
23.6 -0.02922
23.65 -0.02696
23.7 -0.02641
23.75 -0.02049
23.8 -0.02028
23.85 -0.01919
23.9 -0.01519
23.95 -0.0128
24 -0.01071
24.05 -0.00517
24.1 -0.00308
24.15 0.00209
24.2 0.00747
24.25 0.01145
24.3 0.00879
24.35 0.00147
24.4 -0.0083
24.45 -0.01192
24.5 -0.01645
24.55 -0.01974
24.6 -0.02478
24.65 -0.02397
24.7 -0.02586
24.75 -0.02326
24.8 -0.02296
24.85 -0.02405
24.9 -0.0201
24.95 -0.01417
25 -0.01087
25.05 -0.00478
25.1 0.00283
25.15 0.00919
25.2 0.00792
25.25 0.00408
25.3 -0.00005
25.35 -0.00381
25.4 -0.00561
25.45 -0.01102
25.5 -0.0182
25.55 -0.02619
25.6 -0.03274
25.65 -0.03776
25.7 -0.03579
25.75 -0.03105
25.8 -0.03033
25.85 -0.02508
25.9 -0.01799
25.95 -0.00868
26 -0.00559
26.05 -0.00067
26.1 0.00419
26.15 0.00684
26.2 0.01133
26.25 0.01676
26.3 0.01789
26.35 0.01227
26.4 0.01005
26.45 0.00319
26.5 0.00184
26.55 0.00385
26.6 0.00521
26.65 0.00248
26.7 0.00361
26.75 0.00377
26.8 0.00073
26.85 0.00116
26.9 0.00458
26.95 0.00447
27 -0.00027
27.05 -0.00198
27.1 -0.0049
27.15 -0.00482
27.2 -0.00917
27.25 -0.01256
27.3 -0.01049
27.35 -0.00603
27.4 0.00031
27.45 -0.00004
27.5 0.00189
27.55 0.00552
27.6 0.00522
27.65 0.00477
27.7 -0.00093
27.75 -0.00223
27.8 -0.00575
27.85 -0.00719
27.9 -0.00964
27.95 -0.01031
28 -0.01363
28.05 -0.01483
28.1 -0.01738
28.15 -0.021
28.2 -0.02204
28.25 -0.01801
28.3 -0.01549
28.35 -0.01313
28.4 -0.00851
28.45 -0.00916
28.5 -0.00967
28.55 -0.0133
28.6 -0.01274
28.65 -0.01586
28.7 -0.02112
28.75 -0.02274
28.8 -0.02358
28.85 -0.02079
28.9 -0.02144
28.95 -0.01953
29 -0.02023
29.05 -0.02163
29.1 -0.02226
29.15 -0.02469
29.2 -0.02274
29.25 -0.01491
29.3 -0.01072
29.35 -0.00562
29.4 0.00238
29.45 0.00753
29.5 0.01039
29.55 0.01201
29.6 0.01146
29.65 0.00926
29.7 0.00897
29.75 0.00839
29.8 0.00799
29.85 0.00938
29.9 0.0078
29.95 0.00403
30 0.00168
30.05 -0.003
30.1 -0.00734
30.15 -0.0114
30.2 -0.01488
30.25 -0.01621
30.3 -0.02011
30.35 -0.02537
30.4 -0.02899
30.45 -0.02709
30.5 -0.02082
30.55 -0.01721
30.6 -0.00902
30.65 -0.00137
30.7 0.00642
30.75 0.01472
30.8 0.01432
30.85 0.01586
30.9 0.01416
30.95 0.01624
31 0.01471
31.05 0.01389
31.1 0.01185
31.15 0.00646
31.2 0.00688
31.25 0.00218
31.3 -0.00398
31.35 -0.01012
31.4 -0.0102
31.45 -0.00909
31.5 -0.00415
31.55 0.00245
31.6 0.00762
31.65 0.00834
31.7 0.01222
31.75 0.01748
31.8 0.01677
31.85 0.01694
31.9 0.01405
31.95 0.01434
32 0.01293
32.05 0.01027
32.1 0.00838
32.15 0.0052
32.2 0.00113
32.25 -0.00455
32.3 -0.00421
32.35 -0.00048
32.4 0.00563
32.45 0.01203
32.5 0.01766
32.55 0.02001
32.6 0.02091
32.65 0.01732
32.7 0.01301
32.75 0.00847
32.8 0.00365
32.85 -0.00029
32.9 0.00012
32.95 -0.00189
33 -0.00323
33.05 -0.00379
33.1 -0
33.15 -0.0004
33.2 -0.00008
33.25 0.0009
33.3 0.00065
33.35 -0.00022
33.4 -0.00001
33.45 0.00291
33.5 0.00874
33.55 0.0112
33.6 0.00871
33.65 0.0103
33.7 0.01473
33.75 0.01819
33.8 0.01768
33.85 0.01589
33.9 0.01739
33.95 0.0147
34 0.01346
34.05 0.01295
34.1 0.00986
34.15 0.00429
34.2 0.00417
34.25 0.00446
34.3 0.00171
34.35 0.00292
34.4 -0.00031
34.45 0.00136
34.5 0.00586
34.55 0.00667
34.6 0.00496
34.65 -0.00023
34.7 -0.00789
34.75 -0.00956
34.8 -0.01136
34.85 -0.01111
34.9 -0.00804
34.95 -0.00501
35 -0.00083
35.05 -0.00132
35.1 -0.00536
35.15 -0.00336
35.2 -0.00617
35.25 -0.00945
35.3 -0.00711
35.35 -0.00236
35.4 -0.00112
35.45 -0.00138
35.5 -0.00364
35.55 -0.00761
35.6 -0.0143
35.65 -0.017
35.7 -0.0175
35.75 -0.02112
35.8 -0.02445
35.85 -0.02323
35.9 -0.01775
35.95 -0.00985
36 -0.00705
36.05 -0.00465
36.1 -0.00139
36.15 0.00281
36.2 0.00955
36.25 0.01222
36.3 0.01284
36.35 0.01381
36.4 0.01187
36.45 0.00896
36.5 0.0094
36.55 0.01258
36.6 0.01609
36.65 0.01221
36.7 0.00811
36.75 0.00419
36.8 0.00211
36.85 -0.00416
36.9 -0.01101
36.95 -0.01561
37 -0.01999
37.05 -0.02009
37.1 -0.01503
37.15 -0.01346
37.2 -0.01401
37.25 -0.01478
37.3 -0.01619
37.35 -0.01702
37.4 -0.01572
37.45 -0.0093
37.5 -0.00714
37.55 -0.00586
37.6 -0.00018
37.65 0.00746
37.7 0.01015
37.75 0.00952
37.8 0.00678
37.85 0.00747
37.9 0.0072
37.95 0.00416
38 0.00243
38.05 0.00396
38.1 0.00118
38.15 -0.00485
38.2 -0.00626
38.25 -0.00336
38.3 0.00181
38.35 0.00339
38.4 0.00635
38.45 0.00651
38.5 0.00319
38.55 -0.00065
38.6 -0.0036
38.65 -0.00453
38.7 -0.00581
38.75 -0.00428
38.8 -0.00215
38.85 0.00333
38.9 0.00574
38.95 0.0028
39 0.00322
39.05 -0.00064
39.1 -0.00742
39.15 -0.01009
39.2 -0.00959
39.25 -0.00523
39.3 0.00105
39.35 0.00509
39.4 0.00959
39.45 0.00997
39.5 0.0128
39.55 0.01039
39.6 0.0051
39.65 0.00392
39.7 0.00072
39.75 0.00217
39.8 0.00228
39.85 0.00312
39.9 0.00023
39.95 -0.00471
40 -0.00556
40.05 -0.00607
40.1 -0.00894
40.15 -0.00707
40.2 -0.0094
40.25 -0.00648
40.3 -0.00608
40.35 -0.00442
40.4 -0.00515
40.45 -0.00144
40.5 0.00324
40.55 0.00179
40.6 -0.00128
40.65 -0.00769
40.7 -0.00826
40.75 -0.00784
40.8 -0.00667
40.85 -0.00802
40.9 -0.01065
40.95 -0.01042
41 -0.01396
41.05 -0.01288
41.1 -0.00734
41.15 -0.00359
41.2 -0.00122
41.25 -0.0031
41.3 -0.00735
41.35 -0.01234
41.4 -0.01614
41.45 -0.01655
41.5 -0.01468
41.55 -0.01153
41.6 -0.01223
41.65 -0.01584
41.7 -0.01822
41.75 -0.01701
41.8 -0.01355
41.85 -0.01049
41.9 -0.00853
41.95 -0.00227
42 0.00456
42.05 0.00702
42.1 0.01012
42.15 0.01226
42.2 0.0087
42.25 0.00967
42.3 0.0126
42.35 0.00895
42.4 0.00889
42.45 0.01211
42.5 0.01554
42.55 0.02075
42.6 0.02364
42.65 0.02102
42.7 0.01608
42.75 0.01554
42.8 0.01448
42.85 0.01414
42.9 0.01709
42.95 0.01564
43 0.01568
43.05 0.01669
43.1 0.01777
43.15 0.01545
43.2 0.00943
43.25 0.00777
43.3 0.00492
43.35 0.00423
43.4 -0.00055
43.45 -0.0041
43.5 -0.00671
43.55 -0.00389
43.6 -0.00156
43.65 0.00235
43.7 0.00237
43.75 0.00376
43.8 0.00841
43.85 0.00719
43.9 0.00152
43.95 -0.00224
44 -0.00446
44.05 -0.00364
44.1 0.00042
44.15 -0.0002
44.2 0.00052
44.25 -0.00188
44.3 -0.00147
44.35 0.00155
44.4 -0.00159
44.45 -0.00674
44.5 -0.01423
44.55 -0.01915
44.6 -0.02315
44.65 -0.02187
44.7 -0.01933
44.75 -0.01977
44.8 -0.01813
44.85 -0.01843
44.9 -0.01703
44.95 -0.01781
45 -0.01954
45.05 -0.02337
45.1 -0.02637
45.15 -0.02753
45.2 -0.03049
45.25 -0.02641
45.3 -0.02544
45.35 -0.01911
45.4 -0.01447
45.45 -0.00931
45.5 -0.00447
45.55 -0.00359
45.6 0.00016
45.65 0.0022
45.7 0.00693
45.75 0.01097
45.8 0.0113
45.85 0.00986
45.9 0.00386
45.95 0.00155
46 -0.00397
46.05 -0.00997
46.1 -0.01671
46.15 -0.01945
46.2 -0.01939
46.25 -0.01989
46.3 -0.01403
46.35 -0.00559
46.4 0.00466
46.45 0.01336
46.5 0.01512
46.55 0.014
46.6 0.0159
46.65 0.01833
46.7 0.01938
46.75 0.02132
46.8 0.02133
46.85 0.02111
46.9 0.02079
46.95 0.02322
47 0.02664
47.05 0.02199
47.1 0.02043
47.15 0.01443
47.2 0.00688
47.25 -0.00045
47.3 -0.00667
47.35 -0.01279
47.4 -0.0163
47.45 -0.02146
47.5 -0.0238
47.55 -0.023
47.6 -0.01927
47.65 -0.01726
47.7 -0.01321
47.75 -0.01125
47.8 -0.00606
47.85 -0.00175
47.9 -0.00042
47.95 0.00468
48 0.00629
48.05 0.00683
48.1 0.00788
48.15 0.00487
48.2 0.00714
48.25 0.01015
48.3 0.00695
48.35 0.0069
48.4 0.00222
48.45 0.00056
48.5 -0.00313
48.55 -0.00613
48.6 -0.00704
48.65 -0.00313
48.7 0.00193
48.75 0.00105
48.8 0.00268
48.85 0.0047
48.9 0.00291
48.95 -0.00127
49 -0.00422
49.05 -0.00499
49.1 -0.0064
49.15 -0.00894
49.2 -0.01198
49.25 -0.01163
49.3 -0.01466
49.35 -0.01211
49.4 -0.0057
49.45 0.00064
49.5 0.0045
49.55 0.00546
49.6 0.00389
49.65 -0.0012
49.7 -0.00622
49.75 -0.0074
49.8 -0.00877
49.85 -0.00695
49.9 -0.00662
49.95 -0.00581
50 -0.00459
50.05 -0.00035
50.1 0.00112
50.15 0.00249
50.2 0.00703
50.25 0.01001
50.3 0.0099
50.35 0.00528
50.4 0.0012
50.45 0.00132
50.5 0.00507
50.55 0.00845
50.6 0.00855
50.65 0.00735
50.7 0.01004
50.75 0.00862
50.8 0.00546
50.85 0.00387
50.9 0.0066
50.95 0.00795
51 0.00988
51.05 0.00697
51.1 0.0053
51.15 0.00057
51.2 -0.00262
51.25 -0.00578
51.3 -0.00615
51.35 -0.00174
51.4 -0.0034
51.45 -0.00395
51.5 -0.0038
51.55 -0.00591
51.6 -0.00323
51.65 0.00271
51.7 0.00366
51.75 0.00346
51.8 0.00584
51.85 0.00357
51.9 0.00056
51.95 0.0014
52 0.00416
52.05 0.0038
52.1 0.0052
52.15 0.00856
52.2 0.00851
52.25 0.00384
52.3 -0.00017
52.35 -0.00472
52.4 -0.0055
52.45 -0.00313
52.5 -0.0053
52.55 -0.00652
52.6 -0.00592
52.65 -0.00294
52.7 0.00331
52.75 0.00305
52.8 0.0037
52.85 0.0003
52.9 -0.00461
52.95 -0.00856
53 -0.0088
53.05 -0.00488
53.1 -0.00602
53.15 -0.00329
53.2 -0.00298
53.25 -0.00527
53.3 -0.00261
53.35 0.00141
53.4 0.00003
53.45 -0.00213
53.5 -0.00342
53.55 -0.00236
53.6 -0.00429
53.65 -0.00698
53.7 -0.00787
53.75 -0.00395
53.8 -0.00474
53.85 -0.00618
53.9 -0.00996
53.95 -0.0095
54 -0.00939
54.05 -0.01123
54.1 -0.01355
54.15 -0.0174
54.2 -0.0145
54.25 -0.00937
54.3 -0.00815
54.35 -0.00512
54.4 -0.00263
54.45 -0.00327
54.5 0.00095
54.55 0.00606
54.6 0.00908
54.65 0.00683
54.7 0.00369
54.75 0.00105
54.8 -0.00034
54.85 -0.0044
54.9 -0.00225
54.95 0.00192
55 0.00616
55.05 0.00506
55.1 0.00229
55.15 0.00092
55.2 0.00241
55.25 -0.00031
55.3 -0.00026
55.35 -0.00423
55.4 -0.01033
55.45 -0.01773
55.5 -0.02146
55.55 -0.01907
55.6 -0.01399
55.65 -0.00608
55.7 0.00019
55.75 0.0079
55.8 0.01224
55.85 0.01112
55.9 0.01026
55.95 0.00713
56 0.00342
56.05 0.00325
56.1 0.00471
56.15 0.00154
56.2 -0.00373
56.25 -0.00551
56.3 -0.00725
56.35 -0.00618
56.4 -0.0056
56.45 -0.00371
56.5 -0.00349
56.55 -0.00636
56.6 -0.00406
56.65 -0.0009
56.7 -0.00108
56.75 -0.00056
56.8 -0.00445
56.85 -0.00857
56.9 -0.01318
56.95 -0.01432
57 -0.01778
57.05 -0.01761
57.1 -0.01925
57.15 -0.01913
57.2 -0.01809
57.25 -0.01698
57.3 -0.01162
57.35 -0.00802
57.4 -0.00257
57.45 0.00306
57.5 0.00863
57.55 0.01472
57.6 0.01737
57.65 0.01946
57.7 0.02356
57.75 0.02311
57.8 0.02451
57.85 0.01965
57.9 0.01628
57.95 0.01389
58 0.00704
58.05 -0.00077
58.1 -0.00568
58.15 -0.01076
58.2 -0.00911
58.25 -0.00705
58.3 -0.00229
58.35 -0.00279
58.4 -0.00375
58.45 -0.00319
58.5 -0.00589
58.55 -0.00811
58.6 -0.01143
58.65 -0.01367
58.7 -0.01819
58.75 -0.01539
58.8 -0.01369
58.85 -0.00756
58.9 -0.00407
58.95 -0.00039
59 0.00401
59.05 0.00308
59.1 0.00177
59.15 -0.00248
59.2 -0.00056
59.25 0.00133
59.3 -0.00178
59.35 -0.00153
59.4 -0.00422
59.45 -0.00734
59.5 -0.0093
59.55 -0.00844
59.6 -0.00517
59.65 0.00015
59.7 0.00496
59.75 0.00569
59.8 0.00885
59.85 0.00982
59.9 0.00637
59.95 0.00186
60 -0.00094
60.05 -0.0013
60.1 -0.00292
60.15 0.00012
60.2 -0.00202
60.25 0.00029
60.3 0.00406
60.35 0.00433
60.4 0.00093
60.45 -0.00055
60.5 -0.00561
60.55 -0.0082
60.6 -0.00824
60.65 -0.00422
60.7 0.00235
60.75 0.0032
60.8 0.0073
60.85 0.0103
60.9 0.00913
60.95 0.00978
61 0.00879
61.05 0.0031
61.1 -0.0035
61.15 -0.00328
61.2 -0.00395
61.25 -0.00402
61.3 -0.00386
61.35 -0.00389
61.4 -0.00447
61.45 -0.00119
61.5 0.00345
61.55 0.006
61.6 0.01157
61.65 0.01279
61.7 0.01016
61.75 0.01106
61.8 0.01415
61.85 0.01231
61.9 0.01263
61.95 0.01193
62 0.00861
62.05 0.00777
62.1 0.00506
62.15 0.00578
62.2 0.00471
62.25 -0.00017
62.3 0.00085
62.35 -0.00238
62.4 -0.00263
62.45 0.00173
62.5 0.00454
62.55 0.00246
62.6 0.0056
62.65 0.00498
62.7 0.00264
62.75 0.00292
62.8 0.00169
62.85 0.00215
62.9 0.0067
62.95 0.00696
63 0.00707
63.05 0.00986
63.1 0.0115
63.15 0.00759
63.2 0.00291
63.25 0.00412
63.3 0.00154
63.35 0.00117
63.4 -0.00051
63.45 -0.00522
63.5 -0.00464
63.55 -0.0061
63.6 -0.00726
63.65 -0.00501
63.7 0.00134
63.75 0.00148
63.8 0.00492
63.85 0.00707
63.9 0.01143
63.95 0.01659
64 0.01901
64.05 0.01702
64.1 0.01109
64.15 0.00733
64.2 0.00351
64.25 0.00243
64.3 -0.00248
64.35 -0.00668
64.4 -0.01107
64.45 -0.01542
64.5 -0.01643
64.55 -0.01629
64.6 -0.01061
64.65 -0.00415
64.7 -0.00249
64.75 0.00046
64.8 0.0006
64.85 -0.00147
64.9 -0.00061
64.95 0.00289
65 0.00491
65.05 0.00881
65.1 0.01055
65.15 0.01348
65.2 0.01695
65.25 0.01436
65.3 0.01283
65.35 0.00657
65.4 0.00428
65.45 0.00034
65.5 -0.00457
65.55 -0.00431
65.6 -0.00308
65.65 -0.0021
65.7 0.00224
65.75 0.00888
65.8 0.01574
65.85 0.01646
65.9 0.01728
65.95 0.01183
66 0.01165
66.05 0.00988
66.1 0.00629
66.15 0.0038
66.2 0.00369
66.25 -0.00041
66.3 -0.00439
66.35 -0.00779
66.4 -0.01181
66.45 -0.01079
66.5 -0.01099
66.55 -0.0085
66.6 -0.00487
66.65 -0.00182
66.7 0.00371
66.75 0.0027
66.8 -0.00172
66.85 -0.00434
66.9 -0.0024
66.95 -0.00532
67 -0.01087
67.05 -0.01036
67.1 -0.00519
67.15 0.00032
67.2 0.00424
67.25 0.0088
67.3 0.00778
67.35 0.00516
67.4 -0.00179
67.45 -0.00839
67.5 -0.0167
67.55 -0.02238
67.6 -0.02656
67.65 -0.02681
67.7 -0.02149
67.75 -0.01711
67.8 -0.01295
67.85 -0.01325
67.9 -0.00984
67.95 -0.00823
68 -0.00377
68.05 0.00119
68.1 0.00261
68.15 0.00371
68.2 0.00827
68.25 0.01453
68.3 0.02042
68.35 0.01895
68.4 0.01711
68.45 0.01224
68.5 0.00639
68.55 0.00591
68.6 0.00901
68.65 0.01175
68.7 0.01394
68.75 0.01677
68.8 0.01686
68.85 0.01899
68.9 0.02043
68.95 0.01616
69 0.01443
69.05 0.01106
69.1 0.01159
69.15 0.00956
69.2 0.00458
69.25 0.00433
69.3 0.00634
69.35 0.00605
69.4 0.00801
69.45 0.01102
69.5 0.00718
69.55 0.00496
69.6 0.00647
69.65 0.00661
69.7 0.00107
69.75 -0.00176
69.8 -0.00048
69.85 0.00366
69.9 0.00286
69.95 0.00429
70 0.00001
70.05 -0.00631
70.1 -0.01205
70.15 -0.01946
70.2 -0.0235
70.25 -0.02282
70.3 -0.02042
70.35 -0.01794
70.4 -0.019
70.45 -0.01595
70.5 -0.01519
70.55 -0.01387
70.6 -0.00802
70.65 -0.00508
70.7 -0.00196
70.75 -0.00311
70.8 -0.00452
70.85 -0.00559
70.9 -0.0082
70.95 -0.01167
71 -0.01163
71.05 -0.01413
71.1 -0.01037
71.15 -0.00912
71.2 -0.01176
71.25 -0.01304
71.3 -0.01664
71.35 -0.01435
71.4 -0.01488
71.45 -0.01178
71.5 -0.00932
71.55 -0.00703
71.6 -0.00369
71.65 -0.00208
71.7 -0.00127
71.75 0.00014
71.8 0.00416
71.85 0.00317
71.9 -0.00236
71.95 -0.00299
72 -0.0013
72.05 -0.00315
72.1 -0.00221
72.15 -0.0004
72.2 -0.00079
72.25 -0.00198
72.3 -0.00206
72.35 0.00203
72.4 0.00769
72.45 0.00854
72.5 0.01247
72.55 0.01623
72.6 0.01412
72.65 0.01533
72.7 0.01159
72.75 0.01042
72.8 0.01077
72.85 0.01164
72.9 0.01046
72.95 0.0078
73 0.0098
73.05 0.00935
73.1 0.00747
73.15 0.0056
73.2 0.00499
73.25 0.00732
73.3 0.01046
73.35 0.00831
73.4 0.00149
73.45 0.00075
73.5 0.00379
73.55 0.00621
73.6 0.00552
73.65 0.00793
73.7 0.0066
73.75 0.00208
73.8 0.00071
73.85 -0.00249
73.9 -0.00898
73.95 -0.01716
74 -0.02183
74.05 -0.02474
74.1 -0.02113
74.15 -0.02007
74.2 -0.01477
74.25 -0.00801
74.3 -0.00181
74.35 0.00005
74.4 -0.003
74.45 -0.00854
74.5 -0.00804
74.55 -0.00444
74.6 -0.00441
74.65 -0.00734
74.7 -0.00841
74.75 -0.01047
74.8 -0.01293
74.85 -0.01399
74.9 -0.01097
74.95 -0.00752
75 -0.00833
75.05 -0.00636
75.1 -0.00919
75.15 -0.00846
75.2 -0.01124
75.25 -0.0085
75.3 -0.0083
75.35 -0.00377
75.4 0.00186
75.45 0.00638
75.5 0.01165
75.55 0.01736
75.6 0.02063
75.65 0.02269
75.7 0.01989
75.75 0.01765
75.8 0.01688
75.85 0.01116
75.9 0.01091
75.95 0.01373
76 0.0178
76.05 0.01552
76.1 0.01177
76.15 0.00424
76.2 -0.0043
76.25 -0.01239
76.3 -0.01274
76.35 -0.01605
76.4 -0.01943
76.45 -0.01627
76.5 -0.01709
76.55 -0.01371
76.6 -0.01034
76.65 -0.00572
76.7 -0.00288
76.75 -0.00442
76.8 -0.00478
76.85 -0.00096
76.9 0.00157
76.95 0.00088
77 -0.00161
77.05 -0.00665
77.1 -0.0125
77.15 -0.017
77.2 -0.01979
77.25 -0.01707
77.3 -0.01392
77.35 -0.00974
77.4 -0.00984
77.45 -0.00962
77.5 -0.00912
77.55 -0.00704
77.6 -0.00116
77.65 -0.00112
77.7 0.0008
77.75 0.00038
77.8 -0.00202
77.85 0.00077
77.9 -0.00014
77.95 0.00297
78 0.00923
78.05 0.01564
78.1 0.02285
78.15 0.02419
78.2 0.01863
78.25 0.01375
78.3 0.01224
78.35 0.00672
78.4 0.00587
78.45 0.00236
78.5 0.00252
78.55 0.00576
78.6 0.00988
78.65 0.01073
78.7 0.01432
78.75 0.01123
78.8 0.00516
78.85 -0.00247
78.9 -0.00613
78.95 -0.01215
79 -0.01831
79.05 -0.01795
79.1 -0.01519
79.15 -0.01413
79.2 -0.01508
79.25 -0.01674
79.3 -0.01572
79.35 -0.01476
79.4 -0.01348
79.45 -0.01415
79.5 -0.01626
79.55 -0.01517
79.6 -0.01125
79.65 -0.00486
79.7 0.00093
79.75 0.00864
79.8 0.01069
79.85 0.00991
79.9 0.00492
79.95 0.00554
80 0.0073
80.05 0.01045
80.1 0.015
80.15 0.01756
80.2 0.01413
80.25 0.01477
80.3 0.01073
80.35 0.00745
80.4 0.0059
80.45 0.00019
80.5 -0
80.55 0.00001
80.6 -0.00382
80.65 -0.00531
80.7 -0.0094
80.75 -0.00846
80.8 -0.00396
80.85 0.00265
80.9 0.00336
80.95 0.00725
81 0.00709
81.05 0.00976
81.1 0.01472
81.15 0.01544
81.2 0.01221
81.25 0.01275
81.3 0.0085
81.35 0.00078
81.4 -0.00533
81.45 -0.01103
81.5 -0.01601
81.55 -0.02171
81.6 -0.02263
81.65 -0.02342
81.7 -0.02518
81.75 -0.0256
81.8 -0.0234
81.85 -0.02335
81.9 -0.02035
81.95 -0.01427
82 -0.00492
82.05 0.00404
82.1 0.01036
82.15 0.01399
82.2 0.0153
82.25 0.01413
82.3 0.01312
82.35 0.01109
82.4 0.00433
82.45 0.00334
82.5 0.00573
82.55 0.00667
82.6 0.00941
82.65 0.01102
82.7 0.00865
82.75 0.00437
82.8 0.00082
82.85 -0.00225
82.9 -0.00825
82.95 -0.01438
83 -0.0214
83.05 -0.02083
83.1 -0.01627
83.15 -0.0094
83.2 -0.00309
83.25 0.00496
83.3 0.00938
83.35 0.01458
83.4 0.02088
83.45 0.02709
83.5 0.03167
83.55 0.03464
83.6 0.03759
83.65 0.03982
83.7 0.03555
83.75 0.02828
83.8 0.02448
83.85 0.02045
83.9 0.01132
83.95 0.00231
84 -0.00808
84.05 -0.01769
84.1 -0.01907
84.15 -0.02102
84.2 -0.0239
84.25 -0.02039
84.3 -0.01247
84.35 -0.0096
84.4 -0.00613
84.45 -0.00022
84.5 -0.00005
84.55 -0.00442
84.6 -0.00743
84.65 -0.01238
84.7 -0.01516
84.75 -0.01449
84.8 -0.0167
84.85 -0.02132
84.9 -0.02657
84.95 -0.02533
85 -0.0232
85.05 -0.02118
85.1 -0.01986
85.15 -0.02041
85.2 -0.02256
85.25 -0.01822
85.3 -0.00987
85.35 -0.00083
85.4 0.00374
85.45 0.00552
85.5 0.00319
85.55 -0.00046
85.6 -0.00646
85.65 -0.00725
85.7 -0.00339
85.75 -0.00037
85.8 0.00594
85.85 0.01045
85.9 0.00848
85.95 0.01048
86 0.00934
86.05 0.00475
86.1 0.00016
86.15 -0.00589
86.2 -0.01367
86.25 -0.01578
86.3 -0.01362
86.35 -0.00925
86.4 -0.00281
86.45 -0.00115
86.5 0.00445
86.55 0.00405
86.6 0.00693
86.65 0.00904
86.7 0.01416
86.75 0.0173
86.8 0.01443
86.85 0.00693
86.9 0.00399
86.95 0.00218
87 0.00462
87.05 0.00154
87.1 -0.0012
87.15 -0.00735
87.2 -0.00949
87.25 -0.00672
87.3 -0.00076
87.35 0.00651
87.4 0.01036
87.45 0.00969
87.5 0.0092
87.55 0.00976
87.6 0.00897
87.65 0.00397
87.7 -0.00362
87.75 -0.00682
87.8 -0.00537
87.85 0.0005
87.9 0.00827
87.95 0.01258
88 0.01179
88.05 0.01095
88.1 0.00918
88.15 0.00997
88.2 0.0057
88.25 -0.00207
88.3 -0.00388
88.35 -0.00794
88.4 -0.0108
88.45 -0.01369
88.5 -0.01064
88.55 -0.0087
88.6 -0.00641
88.65 -0.0045
88.7 -0.0004
88.75 0.00175
88.8 0.00357
88.85 0.00382
88.9 0.0029
88.95 0.00031
89 -0.00277
89.05 -0.00899
89.1 -0.00782
89.15 -0.00507
89.2 -0.00294
89.25 -0.00498
89.3 -0.00575
89.35 -0.00781
89.4 -0.00675
89.45 -0.00877
89.5 -0.01364
89.55 -0.01321
89.6 -0.01387
89.65 -0.01487
89.7 -0.0098
89.75 -0.00492
89.8 -0.00565
89.85 -0.0027
89.9 0.00336
89.95 0.00595
90 0.00334
90.05 -0.00294
90.1 -0.00491
90.15 -0.00859
90.2 -0.00617
90.25 -0.00063
90.3 -0.00115
90.35 -0.00511
90.4 -0.00753
90.45 -0.00798
90.5 -0.00298
90.55 0.00357
90.6 0.00711
90.65 0.01075
90.7 0.01415
90.75 0.01906
90.8 0.02516
90.85 0.02426
90.9 0.02256
90.95 0.02218
91 0.0184
91.05 0.01571
91.1 0.01129
91.15 0.01016
91.2 0.01261
91.25 0.01198
91.3 0.01494
91.35 0.0116
91.4 0.00623
91.45 0.00238
91.5 0.00011
91.55 0.00233
91.6 -0.00026
91.65 -0.00438
91.7 -0.00414
91.75 -0.00448
91.8 -0.00772
91.85 -0.00616
91.9 -0.00529
91.95 -0.00728
92 -0.00486
92.05 -0.00191
92.1 0.00174
92.15 -0.00042
92.2 0.0026
92.25 0.00053
92.3 -0.00515
92.35 -0.00758
92.4 -0.00965
92.45 -0.01289
92.5 -0.01125
92.55 -0.01046
92.6 -0.00693
92.65 -0.0038
92.7 0.00217
92.75 0.00783
92.8 0.01133
92.85 0.01452
92.9 0.01478
92.95 0.01116
93 0.01001
93.05 0.00461
93.1 0.00316
93.15 -0.00083
93.2 -0.00172
93.25 -0.00051
93.3 -0.0041
93.35 -0.00403
93.4 -0.00069
93.45 0.00097
93.5 0.00021
93.55 -0.00057
93.6 -0.00447
93.65 -0.00843
93.7 -0.01317
93.75 -0.01684
93.8 -0.01442
93.85 -0.01094
93.9 -0.01081
93.95 -0.01231
94 -0.01632
94.05 -0.01986
94.1 -0.02098
94.15 -0.01887
94.2 -0.01152
94.25 -0.00239
94.3 0.00496
94.35 0.00998
94.4 0.0085
94.45 0.0053
94.5 0.00087
94.55 0.00109
94.6 0.00347
94.65 0.00019
94.7 0.00251
94.75 0.00456
94.8 0.00933
94.85 0.01429
94.9 0.01315
94.95 0.00757
95 0.00249
95.05 -0.00434
95.1 -0.01123
95.15 -0.01097
95.2 -0.01022
95.25 -0.01147
95.3 -0.00795
95.35 -0.00144
95.4 0.00162
95.45 0.0068
95.5 0.00969
95.55 0.01056
95.6 0.01081
95.65 0.00931
95.7 0.00461
95.75 0.00002
95.8 0.00157
95.85 -0.00011
95.9 -0.0043
95.95 -0.00455
96 -0.00332
96.05 0.00198
96.1 0.00187
96.15 0.00096
96.2 -0.00223
96.25 -0.00199
96.3 0.00239
96.35 0.0046
96.4 0.00732
96.45 0.00462
96.5 0.00636
96.55 0.00805
96.6 0.00979
96.65 0.01346
96.7 0.0185
96.75 0.0218
96.8 0.0258
96.85 0.02281
96.9 0.01582
96.95 0.00895
97 0.00783
97.05 0.00234
97.1 -0.00394
97.15 -0.00372
97.2 -0.00654
97.25 -0.00487
97.3 -0.0016
97.35 -0.00233
97.4 0.00049
97.45 0.0036
97.5 0.00569
97.55 0.00757
97.6 0.00648
97.65 0.00823
97.7 0.00853
97.75 0.00739
97.8 0.0032
97.85 -0.00083
97.9 -0.00816
97.95 -0.00839
98 -0.00484
98.05 0.00047
98.1 0.00298
98.15 0.00372
98.2 0.00421
98.25 0.00681
98.3 0.00653
98.35 0.00818
98.4 0.00401
98.45 0.00095
98.5 -0.00208
98.55 -0.00268
98.6 -0.00381
98.65 -0.00782
98.7 -0.01287
98.75 -0.01665
98.8 -0.01644
98.85 -0.01222
98.9 -0.00607
98.95 0.00171
99 0.00385
99.05 0.00787
99.1 0.01059
99.15 0.01424
99.2 0.0161
99.25 0.01788
99.3 0.02151
99.35 0.0225
99.4 0.02214
99.45 0.02289
99.5 0.02104
99.55 0.01742
99.6 0.01431
99.65 0.01277
99.7 0.0136
99.75 0.01666
99.8 0.01547
99.85 0.01714
99.9 0.01231
99.95 0.00615
