0 0
0.05 0.00099
0.1 0.0018
0.15 0.00256
0.2 0.0056
0.25 0.00933
0.3 0.01223
0.35 0.01344
0.4 0.0148
0.45 0.01532
0.5 0.01671
0.55 0.01829
0.6 0.01817
0.65 0.01735
0.7 0.01523
0.75 0.01293
0.8 0.01235
0.85 0.01111
0.9 0.01067
0.95 0.01202
1 0.01178
1.05 0.01233
1.1 0.01158
1.15 0.01111
1.2 0.01213
1.25 0.01187
1.3 0.01145
1.35 0.01233
1.4 0.0137
1.45 0.01571
1.5 0.01653
1.55 0.01657
1.6 0.015
1.65 0.01456
1.7 0.01334
1.75 0.0117
1.8 0.01186
1.85 0.01157
1.9 0.00987
1.95 0.0096
2 0.01011
2.05 0.01163
2.1 0.01392
2.15 0.01629
2.2 0.01713
2.25 0.01575
2.3 0.015
2.35 0.01534
2.4 0.01589
2.45 0.0146
2.5 0.01194
2.55 0.00875
2.6 0.00731
2.65 0.00582
2.7 0.0043
2.75 0.00424
2.8 0.00431
2.85 0.00433
2.9 0.00326
2.95 0.0041
3 0.00514
3.05 0.00477
3.1 0.00366
3.15 0.00384
3.2 0.00568
3.25 0.00687
3.3 0.00819
3.35 0.00797
3.4 0.00828
3.45 0.00837
3.5 0.00746
3.55 0.00755
3.6 0.00647
3.65 0.00468
3.7 0.00246
3.75 0.00182
3.8 0.00246
3.85 0.00405
3.9 0.00493
3.95 0.00671
4 0.00757
4.05 0.00836
4.1 0.00833
4.15 0.00871
4.2 0.00851
4.25 0.00767
4.3 0.00735
4.35 0.00803
4.4 0.00775
4.45 0.00774
4.5 0.00767
4.55 0.00608
4.6 0.00619
4.65 0.00657
4.7 0.0062
4.75 0.00575
4.8 0.00498
4.85 0.00337
4.9 0.00197
4.95 0.00021
5 -0.00123
5.05 -0.00064
5.1 -0.00052
5.15 0.00073
5.2 0.00196
5.25 0.0035
5.3 0.00578
5.35 0.00582
5.4 0.00653
5.45 0.00668
5.5 0.00641
5.55 0.00669
5.6 0.0061
5.65 0.00477
5.7 0.00522
5.75 0.00498
5.8 0.00329
5.85 0.00188
5.9 -0.00014
5.95 -0.00146
6 -0.00078
6.05 -0.00128
6.1 -0.00061
6.15 0.00105
6.2 0.00281
6.25 0.00345
6.3 0.00266
6.35 0.0012
6.4 -0.00045
6.45 -0.00005
6.5 0.0005
6.55 0.00008
6.6 -0.00139
6.65 -0.0024
6.7 -0.00361
6.75 -0.00258
6.8 -0.00166
6.85 -0.00174
6.9 -0.00255
6.95 -0.00189
7 -0.00223
7.05 -0.00072
7.1 0.00178
7.15 0.00296
7.2 0.00358
7.25 0.00461
7.3 0.00437
7.35 0.00509
7.4 0.00537
7.45 0.0065
7.5 0.00576
7.55 0.00364
7.6 0.00283
7.65 0.00099
7.7 0.00014
7.75 0.00028
7.8 0.00152
7.85 0.00137
7.9 0.00212
7.95 0.00143
8 0.00131
8.05 0.0026
8.1 0.00201
8.15 0.00074
8.2 -0.00053
8.25 0.00013
8.3 0.00014
8.35 0.00087
8.4 0.00267
8.45 0.00465
8.5 0.00686
8.55 0.00665
8.6 0.00607
8.65 0.00422
8.7 0.00375
8.75 0.00397
8.8 0.00425
8.85 0.00343
8.9 0.00293
8.95 0.00339
9 0.00416
9.05 0.00539
9.1 0.0054
9.15 0.00427
9.2 0.00251
9.25 0.00205
9.3 0.00103
9.35 -0.00046
9.4 -0.0005
9.45 -0.0009
9.5 -0.00175
9.55 -0.00226
9.6 -0.00378
9.65 -0.00417
9.7 -0.00294
9.75 -0.00187
9.8 0.00002
9.85 0.00201
9.9 0.00364
9.95 0.00581
10 0.00785
10.05 0.00766
10.1 0.00789
10.15 0.0067
10.2 0.00419
10.25 0.0023
10.3 -0.0004
10.35 -0.00148
10.4 -0.00242
10.45 -0.00139
10.5 -0.00071
10.55 -0.00148
10.6 -0.0031
10.65 -0.00414
10.7 -0.00557
10.75 -0.00468
10.8 -0.00428
10.85 -0.00457
10.9 -0.00557
10.95 -0.00545
11 -0.00372
11.05 -0.00277
11.1 -0.00212
11.15 -0.00247
11.2 -0.00154
11.25 -0.00122
11.3 0.0004
11.35 0.00109
11.4 0.00284
11.45 0.00386
11.5 0.00519
11.55 0.00543
11.6 0.00402
11.65 0.00291
11.7 0.00079
11.75 -0.00201
11.8 -0.00363
11.85 -0.00325
11.9 -0.00316
11.95 -0.00352
12 -0.00484
12.05 -0.00652
12.1 -0.00841
12.15 -0.00827
12.2 -0.00755
12.25 -0.00491
12.3 -0.00378
12.35 -0.00276
12.4 -0.00301
12.45 -0.00378
12.5 -0.00409
12.55 -0.00239
12.6 -0.0013
12.65 -0.00147
12.7 -0.0007
12.75 -0.00054
12.8 0.00087
12.85 0.00228
12.9 0.00198
12.95 0.00071
13 -0.0008
13.05 -0.00231
13.1 -0.00288
13.15 -0.00404
13.2 -0.00301
13.25 -0.00211
13.3 -0.00099
13.35 0.00141
13.4 0.00221
13.45 0.00152
13.5 0.00133
13.55 0.0016
13.6 0.00045
13.65 -0.00004
13.7 -0.00024
13.75 0.00044
13.8 0.0013
13.85 0.00216
13.9 0.00354
13.95 0.00499
14 0.00492
14.05 0.00589
14.1 0.00642
14.15 0.00686
14.2 0.0062
14.25 0.00659
14.3 0.00506
14.35 0.0042
14.4 0.00406
14.45 0.00346
14.5 0.00321
14.55 0.00209
14.6 0.00108
14.65 0.00171
14.7 0.00147
14.75 0.00049
14.8 -0.00149
14.85 -0.0035
14.9 -0.00316
14.95 -0.00315
15 -0.00267
15.05 -0.00178
15.1 -0.00167
15.15 -0.00155
15.2 -0.0006
15.25 0.00139
15.3 0.00227
15.35 0.00385
15.4 0.00491
15.45 0.00427
15.5 0.00315
15.55 0.00339
15.6 0.00315
15.65 0.00367
15.7 0.00357
15.75 0.00181
15.8 -0.00082
15.85 -0.00133
15.9 -0.00296
15.95 -0.00442
16 -0.00467
16.05 -0.00567
16.1 -0.00587
16.15 -0.00477
16.2 -0.00333
16.25 -0.00071
16.3 0.00127
16.35 0.00222
16.4 0.00226
16.45 0.00292
16.5 0.00428
16.55 0.00391
16.6 0.00241
16.65 0.00146
16.7 0.00037
16.75 -0.00149
16.8 -0.0013
16.85 -0.00058
16.9 -0.00007
16.95 0.00102
17 0.00179
17.05 0.0021
17.1 0.00239
17.15 0.00315
17.2 0.00434
17.25 0.00597
17.3 0.00586
17.35 0.00625
17.4 0.00586
17.45 0.00402
17.5 0.00144
17.55 0.00023
17.6 0.00072
17.65 0.00161
17.7 0.00157
17.75 0.00265
17.8 0.00278
17.85 0.00188
17.9 0.00156
17.95 0.00203
18 0.00211
18.05 0.0022
18.1 0.00319
18.15 0.00487
18.2 0.00571
18.25 0.00633
18.3 0.0053
18.35 0.0037
18.4 0.00129
18.45 0.00086
18.5 0.00003
18.55 0.00051
18.6 0.00096
18.65 -0.00019
18.7 -0.00084
18.75 0.0001
18.8 -0.00076
18.85 -0.00108
18.9 -0.00228
18.95 -0.00423
19 -0.00587
19.05 -0.00714
19.1 -0.0069
19.15 -0.00705
19.2 -0.00736
19.25 -0.00615
19.3 -0.00458
19.35 -0.00362
19.4 -0.0018
19.45 -0.00191
19.5 -0.00218
19.55 -0.00138
19.6 -0.00154
19.65 -0.0024
19.7 -0.00415
19.75 -0.00513
19.8 -0.00524
19.85 -0.00533
19.9 -0.00372
19.95 -0.00282
20 -0.0033
20.05 -0.00191
20.1 0.00062
20.15 0.0023
20.2 0.0025
20.25 0.00259
20.3 0.00317
20.35 0.00237
20.4 0.00136
20.45 0.00098
20.5 0.00038
20.55 0.00044
20.6 0.00097
20.65 0.00214
20.7 0.00251
20.75 0.00205
20.8 0.00275
20.85 0.00313
20.9 0.00344
20.95 0.00474
21 0.0037
21.05 0.00318
21.1 0.0033
21.15 0.00415
21.2 0.00359
21.25 0.0025
21.3 0.00014
21.35 -0.00231
21.4 -0.00337
21.45 -0.00414
21.5 -0.00357
21.55 -0.00246
21.6 -0.00051
21.65 -0.00008
21.7 0.00094
21.75 0.00133
21.8 0.00253
21.85 0.00192
21.9 0.00108
21.95 0.00043
22 -0.0008
22.05 -0.00283
22.1 -0.00449
22.15 -0.00474
22.2 -0.00327
22.25 -0.00353
22.3 -0.00222
22.35 -0.00099
22.4 -0.00019
22.45 -0.00026
22.5 -0.00094
22.55 -0.00121
22.6 -0.00156
22.65 -0.00062
22.7 0.00113
22.75 0.00276
22.8 0.00283
22.85 0.00212
22.9 0.0021
22.95 0.00203
23 0.00121
23.05 0.00192
23.1 0.00087
23.15 0.00093
23.2 0.00042
23.25 -0.00135
23.3 -0.0022
23.35 -0.00157
23.4 -0.00152
23.45 -0.00199
23.5 -0.00333
23.55 -0.0048
23.6 -0.00477
23.65 -0.00579
23.7 -0.00706
23.75 -0.00703
23.8 -0.00569
23.85 -0.00289
23.9 -0.00024
23.95 0.00158
24 0.00176
24.05 0.00154
24.1 0.00235
24.15 0.00209
24.2 0.00076
24.25 0.00123
24.3 0.00062
24.35 0.00006
24.4 -0.00121
24.45 -0.00221
24.5 -0.00231
24.55 -0.00243
24.6 -0.00352
24.65 -0.00522
24.7 -0.00692
24.75 -0.00681
24.8 -0.00506
24.85 -0.0035
24.9 -0.00283
24.95 -0.00127
25 -0.00108
25.05 0.00051
25.1 0.00157
25.15 0.00273
25.2 0.00309
25.25 0.00427
25.3 0.00422
25.35 0.00253
25.4 0.00051
25.45 -0.00204
25.5 -0.00431
25.55 -0.00652
25.6 -0.00689
25.65 -0.00794
25.7 -0.00928
25.75 -0.0107
25.8 -0.01007
25.85 -0.00817
25.9 -0.00759
25.95 -0.00695
26 -0.00497
26.05 -0.0026
26.1 0.00007
26.15 0.00208
26.2 0.00447
26.25 0.00544
26.3 0.00601
26.35 0.007
26.4 0.00773
26.45 0.00788
26.5 0.00715
26.55 0.00681
26.6 0.00668
26.65 0.00632
26.7 0.00597
26.75 0.00603
26.8 0.00698
26.85 0.00798
26.9 0.00682
26.95 0.0059
27 0.00597
27.05 0.00481
27.1 0.00333
27.15 0.00073
27.2 -0.00032
27.25 -0.0011
27.3 -0.00264
27.35 -0.00476
27.4 -0.00534
27.45 -0.00402
27.5 -0.00427
27.55 -0.00398
27.6 -0.00363
27.65 -0.00387
27.7 -0.00243
27.75 -0.00222
27.8 -0.00073
27.85 0.00117
27.9 0.00341
27.95 0.00389
28 0.00447
28.05 0.00431
28.1 0.00262
28.15 0.0007
28.2 -0.00023
28.25 -0.00001
28.3 0.00143
28.35 0.00359
28.4 0.00313
28.45 0.00174
28.5 -0.00095
28.55 -0.00441
28.6 -0.00548
28.65 -0.00728
28.7 -0.01
28.75 -0.01122
28.8 -0.01104
28.85 -0.01121
28.9 -0.01135
28.95 -0.01169
29 -0.01224
29.05 -0.01327
29.1 -0.0166
29.15 -0.02231
29.2 -0.03017
29.25 -0.03929
29.3 -0.04767
29.35 -0.05666
29.4 -0.06727
29.45 -0.07895
29.5 -0.09035
29.55 -0.10238
29.6 -0.11831
29.65 -0.13758
29.7 -0.15952
29.75 -0.18305
29.8 -0.20731
29.85 -0.23485
29.9 -0.26482
29.95 -0.29607
30 -0.32995
30.05 -0.3664
30.1 -0.40447
30.15 -0.44343
30.2 -0.48157
30.25 -0.52198
30.3 -0.56388
30.35 -0.60631
30.4 -0.64724
30.45 -0.68671
30.5 -0.72495
30.55 -0.76199
30.6 -0.79807
30.65 -0.83054
30.7 -0.86083
30.75 -0.88515
30.8 -0.90468
30.85 -0.9195
30.9 -0.92817
30.95 -0.9325
31 -0.92979
31.05 -0.91978
31.1 -0.9034
31.15 -0.88022
31.2 -0.85048
31.25 -0.81594
31.3 -0.775
31.35 -0.72836
31.4 -0.67512
31.45 -0.61685
31.5 -0.5538
31.55 -0.48712
31.6 -0.41873
31.65 -0.35011
31.7 -0.28151
31.75 -0.21101
31.8 -0.14079
31.85 -0.07217
31.9 -0.00475
31.95 0.06115
32 0.12459
32.05 0.18516
32.1 0.24284
32.15 0.2957
32.2 0.34539
32.25 0.39218
32.3 0.43412
32.35 0.47256
32.4 0.50773
32.45 0.5398
32.5 0.56935
32.55 0.59563
32.6 0.61782
32.65 0.63628
32.7 0.65373
32.75 0.66817
32.8 0.681
32.85 0.69244
32.9 0.69994
32.95 0.70408
33 0.70674
33.05 0.70831
33.1 0.70767
33.15 0.7073
33.2 0.70721
33.25 0.70506
33.3 0.70089
33.35 0.69779
33.4 0.69443
33.45 0.69035
33.5 0.68604
33.55 0.67998
33.6 0.67231
33.65 0.6658
33.7 0.65903
33.75 0.65011
33.8 0.64187
33.85 0.63208
33.9 0.62079
33.95 0.61001
34 0.60058
34.05 0.58944
34.1 0.57701
34.15 0.56504
34.2 0.55384
34.25 0.54222
34.3 0.52902
34.35 0.51528
34.4 0.50233
34.45 0.48832
34.5 0.47509
34.55 0.46241
34.6 0.44878
34.65 0.43452
34.7 0.42036
34.75 0.40519
34.8 0.38955
34.85 0.37378
34.9 0.35792
34.95 0.34262
35 0.32774
35.05 0.31463
35.1 0.30009
35.15 0.28725
35.2 0.27481
35.25 0.26114
35.3 0.24667
35.35 0.23369
35.4 0.22208
35.45 0.21055
35.5 0.19974
35.55 0.18964
35.6 0.17767
35.65 0.16527
35.7 0.15331
35.75 0.14151
35.8 0.12973
35.85 0.11808
35.9 0.10613
35.95 0.09473
36 0.08472
36.05 0.07459
36.1 0.06623
36.15 0.05699
36.2 0.04875
36.25 0.04021
36.3 0.03293
36.35 0.02451
36.4 0.01724
36.45 0.01114
36.5 0.00521
36.55 -0.0014
36.6 -0.00842
36.65 -0.01664
36.7 -0.0248
36.75 -0.03184
36.8 -0.03818
36.85 -0.04456
36.9 -0.04899
36.95 -0.05448
37 -0.05837
37.05 -0.06191
37.1 -0.06424
37.15 -0.06618
37.2 -0.06919
37.25 -0.07313
37.3 -0.07826
37.35 -0.08388
37.4 -0.0876
37.45 -0.09018
37.5 -0.09322
37.55 -0.0964
37.6 -0.09959
37.65 -0.10358
37.7 -0.10628
37.75 -0.10952
37.8 -0.11127
37.85 -0.11277
37.9 -0.11321
37.95 -0.11283
38 -0.11183
38.05 -0.11085
38.1 -0.11165
38.15 -0.11164
38.2 -0.11032
38.25 -0.10976
38.3 -0.10812
38.35 -0.10646
38.4 -0.10667
38.45 -0.10614
38.5 -0.10548
38.55 -0.10641
38.6 -0.10761
38.65 -0.10846
38.7 -0.10885
38.75 -0.10863
38.8 -0.10889
38.85 -0.10881
38.9 -0.10893
38.95 -0.1093
39 -0.10856
39.05 -0.10605
39.1 -0.10494
39.15 -0.1033
39.2 -0.10301
39.25 -0.10084
39.3 -0.09822
39.35 -0.09477
39.4 -0.09279
39.45 -0.0924
39.5 -0.09105
39.55 -0.091
39.6 -0.08988
39.65 -0.08957
39.7 -0.08869
39.75 -0.08667
39.8 -0.08603
39.85 -0.08468
39.9 -0.08344
39.95 -0.0832
40 -0.08298
40.05 -0.08225
40.1 -0.08163
40.15 -0.07952
40.2 -0.07877
40.25 -0.0772
40.3 -0.07519
40.35 -0.0721
40.4 -0.06857
40.45 -0.06703
40.5 -0.06709
40.55 -0.06631
40.6 -0.06668
40.65 -0.06811
40.7 -0.06928
40.75 -0.06953
40.8 -0.06867
40.85 -0.06645
40.9 -0.06435
40.95 -0.06295
41 -0.06122
41.05 -0.05865
41.1 -0.05672
41.15 -0.05513
41.2 -0.05535
41.25 -0.05575
41.3 -0.05681
41.35 -0.05608
41.4 -0.05481
41.45 -0.05293
41.5 -0.05226
41.55 -0.05223
41.6 -0.05298
41.65 -0.05331
41.7 -0.05317
41.75 -0.05099
41.8 -0.0494
41.85 -0.04856
41.9 -0.04655
41.95 -0.04424
42 -0.04162
42.05 -0.03866
42.1 -0.03603
42.15 -0.03333
42.2 -0.03186
42.25 -0.03289
42.3 -0.03505
42.35 -0.03697
42.4 -0.03691
42.45 -0.03544
42.5 -0.03566
42.55 -0.03641
42.6 -0.03758
42.65 -0.03788
42.7 -0.0372
42.75 -0.0375
42.8 -0.03633
42.85 -0.03653
42.9 -0.03578
42.95 -0.03391
43 -0.03194
43.05 -0.02994
43.1 -0.02782
43.15 -0.02703
43.2 -0.02749
43.25 -0.02698
43.3 -0.02583
43.35 -0.02579
43.4 -0.02726
43.45 -0.02938
43.5 -0.02984
43.55 -0.02955
43.6 -0.02946
43.65 -0.02844
43.7 -0.02639
43.75 -0.02605
43.8 -0.02499
43.85 -0.02333
43.9 -0.02108
43.95 -0.01913
44 -0.01889
44.05 -0.0196
44.1 -0.0208
44.15 -0.02043
44.2 -0.02152
44.25 -0.02283
44.3 -0.02237
44.35 -0.02246
44.4 -0.02244
44.45 -0.02259
44.5 -0.02133
44.55 -0.02104
44.6 -0.0211
44.65 -0.02131
44.7 -0.0199
44.75 -0.02013
44.8 -0.02103
44.85 -0.02226
44.9 -0.02369
44.95 -0.02276
45 -0.02205
45.05 -0.02128
45.1 -0.01951
45.15 -0.0195
45.2 -0.01826
45.25 -0.01668
45.3 -0.01582
45.35 -0.01418
45.4 -0.01239
45.45 -0.01029
45.5 -0.00845
45.55 -0.00735
45.6 -0.00737
45.65 -0.00854
45.7 -0.01065
45.75 -0.01086
45.8 -0.01106
45.85 -0.01188
45.9 -0.01265
45.95 -0.01174
46 -0.01121
46.05 -0.01104
46.1 -0.01112
46.15 -0.01167
46.2 -0.01236
46.25 -0.01245
46.3 -0.01321
46.35 -0.01318
46.4 -0.01193
46.45 -0.01114
46.5 -0.01009
46.55 -0.01041
46.6 -0.00945
46.65 -0.01032
46.7 -0.01231
46.75 -0.0121
46.8 -0.01066
46.85 -0.00872
46.9 -0.00632
46.95 -0.00486
47 -0.00337
47.05 -0.0024
47.1 -0.00239
47.15 -0.00401
47.2 -0.00544
47.25 -0.00689
47.3 -0.00671
47.35 -0.00661
47.4 -0.0057
47.45 -0.00458
47.5 -0.00359
47.55 -0.00213
47.6 -0.00277
47.65 -0.00374
47.7 -0.00348
47.75 -0.00393
47.8 -0.00443
47.85 -0.00588
47.9 -0.00763
47.95 -0.00812
48 -0.00706
48.05 -0.00694
48.1 -0.00791
48.15 -0.00926
48.2 -0.00987
48.25 -0.01149
48.3 -0.01124
48.35 -0.00946
48.4 -0.00688
48.45 -0.00579
48.5 -0.00393
48.55 -0.00339
48.6 -0.00196
48.65 -0.00001
48.7 -0.00046
48.75 -0.00085
48.8 -0.00119
48.85 -0.00102
48.9 -0.00215
48.95 -0.00375
49 -0.00378
49.05 -0.00471
49.1 -0.0047
49.15 -0.00456
49.2 -0.00348
49.25 -0.00372
49.3 -0.00377
49.35 -0.00468
49.4 -0.00618
49.45 -0.0081
49.5 -0.01021
49.55 -0.01083
49.6 -0.01113
49.65 -0.01153
49.7 -0.01127
49.75 -0.00986
49.8 -0.00726
49.85 -0.0055
49.9 -0.00489
49.95 -0.00433
50 -0.00523
50.05 -0.00692
50.1 -0.00814
50.15 -0.00759
50.2 -0.00737
50.25 -0.00646
50.3 -0.00692
50.35 -0.00695
50.4 -0.00776
50.45 -0.00667
50.5 -0.00576
50.55 -0.00457
50.6 -0.0043
50.65 -0.00266
50.7 -0.00296
50.75 -0.00463
50.8 -0.0058
50.85 -0.00556
50.9 -0.00428
50.95 -0.00289
51 -0.00282
51.05 -0.00228
51.1 -0.00083
51.15 -0.00073
51.2 0.00045
51.25 -0.00023
51.3 -0.00007
51.35 0.0005
51.4 -0.0004
51.45 -0.00261
51.5 -0.00342
51.55 -0.00289
51.6 -0.00143
51.65 -0.00024
51.7 0.00063
51.75 0.00083
51.8 0.00131
51.85 0.00142
51.9 0.0009
51.95 0.00169
52 0.00288
52.05 0.00444
52.1 0.00507
52.15 0.00407
52.2 0.00289
52.25 0.00279
52.3 0.00293
52.35 0.00391
52.4 0.00484
52.45 0.00403
52.5 0.00275
52.55 0.001
52.6 0.00054
52.65 -0.00155
52.7 -0.00252
52.75 -0.00458
52.8 -0.00604
52.85 -0.00589
52.9 -0.00509
52.95 -0.00343
53 -0.00228
53.05 -0.00122
53.1 -0.00204
53.15 -0.00329
53.2 -0.00545
53.25 -0.0052
53.3 -0.00492
53.35 -0.00588
53.4 -0.00761
53.45 -0.00769
53.5 -0.00781
53.55 -0.00772
53.6 -0.00636
53.65 -0.00421
53.7 -0.00168
53.75 -0.0015
53.8 -0.0015
53.85 -0.00202
53.9 -0.00154
53.95 -0.00086
54 0.00071
54.05 0.00038
54.1 0.00041
54.15 -0.00084
54.2 -0.00256
54.25 -0.00466
54.3 -0.00523
54.35 -0.00598
54.4 -0.00559
54.45 -0.00559
54.5 -0.0041
54.55 -0.00238
54.6 -0.00053
54.65 0.00179
54.7 0.00198
54.75 0.00264
54.8 0.00252
54.85 0.00079
54.9 -0.00003
54.95 -0.00087
55 -0.00174
55.05 -0.00127
55.1 0.0001
55.15 0.0008
55.2 0.00206
55.25 0.00138
55.3 -0.00045
55.35 -0.00301
55.4 -0.00514
55.45 -0.00554
55.5 -0.00508
55.55 -0.00567
55.6 -0.00703
55.65 -0.00673
55.7 -0.00519
55.75 -0.00474
55.8 -0.00324
55.85 -0.00083
55.9 0.00105
55.95 0.00209
56 0.00177
56.05 0.00256
56.1 0.00154
56.15 0.00115
56.2 0.00009
56.25 -0.00107
56.3 -0.00073
56.35 -0.00162
56.4 -0.00212
56.45 -0.00319
56.5 -0.00418
56.55 -0.00433
56.6 -0.00439
56.65 -0.00548
56.7 -0.00695
56.75 -0.0085
56.8 -0.01013
56.85 -0.0098
56.9 -0.00945
56.95 -0.00717
57 -0.00592
57.05 -0.00449
57.1 -0.00434
57.15 -0.00423
57.2 -0.0029
57.25 -0.00147
57.3 0.00047
57.35 0.00255
57.4 0.00314
57.45 0.00306
57.5 0.00248
57.55 0.00235
57.6 0.00352
57.65 0.00453
57.7 0.00565
57.75 0.00656
57.8 0.00534
57.85 0.00279
57.9 0.00079
57.95 -0.00065
58 -0.00105
58.05 -0.00267
58.1 -0.00214
58.15 -0.00099
58.2 -0.00053
58.25 0.00029
58.3 -0.00011
58.35 -0.00156
58.4 -0.00141
58.45 0.00009
58.5 0.00219
58.55 0.00293
58.6 0.00177
58.65 0.00144
58.7 0.00078
58.75 0.00097
58.8 0.00058
58.85 0.0013
58.9 0.00168
58.95 0.00051
59 0.00023
59.05 -0.00031
59.1 0.00061
59.15 0.00116
59.2 0.00005
59.25 -0.00161
59.3 -0.00168
59.35 -0.0009
59.4 -0.00098
59.45 -0.00089
59.5 -0.00123
59.55 -0.00216
59.6 -0.00363
59.65 -0.00495
59.7 -0.00537
59.75 -0.00382
59.8 -0.00339
59.85 -0.00247
59.9 -0.00277
59.95 -0.00285
60 -0.00229
60.05 -0.00284
60.1 -0.00398
60.15 -0.00313
60.2 -0.00266
60.25 -0.00088
60.3 0.00011
60.35 -0.00061
60.4 -0.00005
60.45 0.00131
60.5 0.00224
60.55 0.00187
60.6 0.00133
60.65 -0
60.7 -0.00123
60.75 -0.00142
60.8 -0.00252
60.85 -0.00317
60.9 -0.00267
60.95 -0.00133
61 -0.00024
61.05 0.00182
61.1 0.00188
61.15 0.00076
61.2 -0.0013
61.25 -0.00287
61.3 -0.003
61.35 -0.00146
61.4 -0.00122
61.45 -0.0002
61.5 -0.00007
61.55 0.00082
61.6 0.00209
61.65 0.00387
61.7 0.00604
61.75 0.00575
61.8 0.0055
61.85 0.00526
61.9 0.00442
61.95 0.00353
62 0.00361
62.05 0.00207
62.1 0.00003
62.15 -0.00021
62.2 -0.00109
62.25 -0.00059
62.3 -0.0005
62.35 -0.00092
62.4 0.00005
62.45 -0.00022
62.5 0.00016
62.55 0.00136
62.6 0.0011
62.65 0.00071
62.7 0.0008
62.75 0.00127
62.8 0.00169
62.85 0.00253
62.9 0.00349
62.95 0.00493
63 0.00487
63.05 0.00452
63.1 0.0044
63.15 0.00473
63.2 0.00446
63.25 0.00295
63.3 0.00171
63.35 0.00127
63.4 0.00194
63.45 0.00314
63.5 0.00437
63.55 0.00524
63.6 0.00538
63.65 0.00466
63.7 0.00435
63.75 0.00397
63.8 0.00406
63.85 0.00307
63.9 0.00077
63.95 -0.00004
64 0.00033
64.05 0.00028
64.1 0.00024
64.15 0.00113
64.2 0.00034
64.25 0.00061
64.3 0.00086
64.35 0.00084
64.4 0.00109
64.45 0.00189
64.5 0.00077
64.55 0.00074
64.6 0.00098
64.65 -0.00017
64.7 0.00035
64.75 0.00025
64.8 -0.00017
64.85 -0.00076
64.9 -0.00018
64.95 -0.00058
65 -0.00189
65.05 -0.00252
65.1 -0.00393
65.15 -0.00415
65.2 -0.00317
65.25 -0.00248
65.3 -0.00105
65.35 0.0012
65.4 0.00283
65.45 0.00241
65.5 0.00155
65.55 0.00172
65.6 0.00034
65.65 -0.00192
65.7 -0.0046
65.75 -0.00507
65.8 -0.00533
65.85 -0.00568
65.9 -0.00663
65.95 -0.00685
66 -0.00615
66.05 -0.00443
66.1 -0.00298
66.15 -0.00047
66.2 -0.00018
66.25 -0.00031
66.3 -0.00131
66.35 -0.001
66.4 -0.00203
66.45 -0.00182
66.5 -0.0006
66.55 -0.00102
66.6 0.00016
66.65 -0.00019
66.7 0.00002
66.75 0.00012
66.8 0.00013
66.85 -0.00049
66.9 -0.00135
66.95 -0.00176
67 -0.00072
67.05 -0.00084
67.1 0.00011
67.15 0.00093
67.2 0.00187
67.25 0.00335
67.3 0.00391
67.35 0.00297
67.4 0.0025
67.45 0.00313
67.5 0.0042
67.55 0.00474
67.6 0.00405
67.65 0.00245
67.7 0.00198
67.75 0.00239
67.8 0.00121
67.85 0.00049
67.9 -0.00018
67.95 0.00017
68 0.00081
68.05 0.00156
68.1 0.00133
68.15 -0.00042
68.2 -0.00285
68.25 -0.00511
68.3 -0.00561
68.35 -0.00688
68.4 -0.00792
68.45 -0.00859
68.5 -0.00872
68.55 -0.00896
68.6 -0.00839
68.65 -0.00597
68.7 -0.00414
68.75 -0.00258
68.8 -0.00242
68.85 -0.00128
68.9 -0.00079
68.95 -0.00007
69 -0.00041
69.05 -0.0004
69.1 -0.00173
69.15 -0.00255
69.2 -0.00324
69.25 -0.00354
69.3 -0.00237
69.35 -0.00062
69.4 -0.00008
69.45 0.00105
69.5 0.00311
69.55 0.00426
69.6 0.00426
69.65 0.00519
69.7 0.00571
69.75 0.00691
69.8 0.00668
69.85 0.00599
69.9 0.00525
69.95 0.00502
70 0.00386
70.05 0.00221
70.1 0.0005
70.15 -0.00215
70.2 -0.00492
70.25 -0.00626
70.3 -0.00642
70.35 -0.00543
70.4 -0.00568
70.45 -0.00569
70.5 -0.00474
70.55 -0.00262
70.6 0.0003
70.65 0.00342
70.7 0.00386
70.75 0.00453
70.8 0.00519
70.85 0.00449
70.9 0.00218
70.95 0.00058
71 -0.00064
71.05 -0.0028
71.1 -0.0046
71.15 -0.00562
71.2 -0.00588
71.25 -0.0052
71.3 -0.0056
71.35 -0.00572
71.4 -0.00588
71.45 -0.00595
71.5 -0.00497
71.55 -0.00536
71.6 -0.00436
71.65 -0.00416
71.7 -0.00328
71.75 -0.0017
71.8 -0.0016
71.85 -0.00182
71.9 -0.00071
71.95 -0.0003
72 -0.00108
72.05 -0.00106
72.1 0.00026
72.15 -0.0001
72.2 -0.00164
72.25 -0.00305
72.3 -0.00452
72.35 -0.006
72.4 -0.00659
72.45 -0.0073
72.5 -0.00607
72.55 -0.00436
72.6 -0.00269
72.65 -0.00134
72.7 0.00067
72.75 0.00112
72.8 0.00036
72.85 -0.00003
72.9 -0.00145
72.95 -0.00331
73 -0.00467
73.05 -0.00385
73.1 -0.0021
73.15 -0.00051
73.2 0.00176
73.25 0.00291
73.3 0.00256
73.35 0.00168
73.4 0.00028
73.45 -0.00159
73.5 -0.00323
73.55 -0.00343
73.6 -0.00355
73.65 -0.0025
73.7 -0.0005
73.75 -0.00052
73.8 -0.00176
73.85 -0.00223
73.9 -0.0026
73.95 -0.00264
74 -0.0019
74.05 -0.0011
74.1 0.00025
74.15 0.00002
74.2 -0.00017
74.25 0.00104
74.3 0.00238
74.35 0.00302
74.4 0.00224
74.45 0.00213
74.5 0.00111
74.55 -0.00003
74.6 -0.00058
74.65 -0.00165
74.7 -0.0017
74.75 -0.00214
74.8 -0.00121
74.85 0.00064
74.9 0.00224
74.95 0.0045
75 0.00609
75.05 0.00762
75.1 0.00806
75.15 0.00834
75.2 0.00825
75.25 0.0078
75.3 0.00625
75.35 0.006
75.4 0.00507
75.45 0.00455
75.5 0.00414
75.55 0.00429
75.6 0.00258
75.65 0.00017
75.7 -0.0019
75.75 -0.00289
75.8 -0.00398
75.85 -0.00511
75.9 -0.00495
75.95 -0.00543
76 -0.00664
76.05 -0.00746
76.1 -0.00674
76.15 -0.007
76.2 -0.00551
76.25 -0.00273
76.3 0.00024
76.35 0.0007
76.4 0.001
76.45 0.00024
76.5 -0.00035
76.55 0.0006
76.6 0.00028
76.65 0.00129
76.7 0.00257
76.75 0.00421
76.8 0.00418
76.85 0.00246
76.9 -0.00018
76.95 -0.00211
77 -0.0044
77.05 -0.0055
77.1 -0.00628
77.15 -0.00691
77.2 -0.00795
77.25 -0.00923
77.3 -0.00908
77.35 -0.00844
77.4 -0.00662
77.45 -0.00437
77.5 -0.00265
77.55 -0.00085
77.6 0.0003
77.65 0.00223
77.7 0.0021
77.75 0.00206
77.8 0.00103
77.85 0.00159
77.9 0.00282
77.95 0.00459
78 0.00642
78.05 0.00603
78.1 0.00527
78.15 0.004
78.2 0.00195
78.25 -0.00076
78.3 -0.00271
78.35 -0.0046
78.4 -0.00664
78.45 -0.00659
78.5 -0.00658
78.55 -0.0057
78.6 -0.00524
78.65 -0.00489
78.7 -0.00538
78.75 -0.00388
78.8 -0.00359
78.85 -0.00265
78.9 -0.00148
78.95 -0.00118
79 0.00027
79.05 0.00204
79.1 0.00229
79.15 0.00303
79.2 0.00402
79.25 0.00452
79.3 0.00327
79.35 0.00129
79.4 0.00126
79.45 0.00078
79.5 -0.00004
79.55 0.00043
79.6 -0.00046
79.65 -0.00177
79.7 -0.00201
79.75 -0.00222
79.8 -0.00107
79.85 0.00098
79.9 0.00172
79.95 0.00172
80 0.00206
80.05 0.00119
80.1 -0.00044
80.15 -0.00111
80.2 -0.00057
80.25 -0.0005
80.3 0.00007
80.35 0.00111
80.4 0.00115
80.45 0.00195
80.5 0.00188
80.55 0.00283
80.6 0.00474
80.65 0.00707
80.7 0.00781
80.75 0.00663
80.8 0.0062
80.85 0.00567
80.9 0.00583
80.95 0.00524
81 0.0051
81.05 0.0056
81.1 0.0064
81.15 0.00513
81.2 0.00376
81.25 0.00291
81.3 0.00326
81.35 0.00325
81.4 0.0041
81.45 0.00313
81.5 0.00146
81.55 0.00054
81.6 0.00052
81.65 0.001
81.7 0.0009
81.75 -0.00026
81.8 -0.00209
81.85 -0.00216
81.9 -0.00064
81.95 0.00116
82 0.00281
82.05 0.00371
82.1 0.00528
82.15 0.00702
82.2 0.0087
82.25 0.00866
82.3 0.00851
82.35 0.00664
82.4 0.00378
82.45 0.00125
82.5 -0.00101
82.55 -0.00291
82.6 -0.00391
82.65 -0.00497
82.7 -0.00528
82.75 -0.00537
82.8 -0.00595
82.85 -0.00601
82.9 -0.00524
82.95 -0.00508
83 -0.00521
83.05 -0.00401
83.1 -0.00329
83.15 -0.00121
83.2 0.0016
83.25 0.00253
83.3 0.00336
83.35 0.00419
83.4 0.00412
83.45 0.00451
83.5 0.00566
83.55 0.00503
83.6 0.00322
83.65 0.00292
83.7 0.00343
83.75 0.00318
83.8 0.00206
83.85 0.00101
83.9 -0.00028
83.95 -0.00103
84 -0.00189
84.05 -0.0021
84.1 -0.00323
84.15 -0.00243
84.2 -0.00106
84.25 -0.00137
84.3 -0.00222
84.35 -0.00355
84.4 -0.00396
84.45 -0.00517
84.5 -0.00421
84.55 -0.00195
84.6 -0.00085
84.65 0.0013
84.7 0.00201
84.75 0.00345
84.8 0.00259
84.85 0.00317
84.9 0.00343
84.95 0.00285
85 0.00108
85.05 0.00112
85.1 0.00199
85.15 0.00314
85.2 0.00453
85.25 0.00575
85.3 0.00623
85.35 0.00489
85.4 0.00321
85.45 0.00165
85.5 0.0005
85.55 -0.00006
85.6 -0.00029
85.65 -0.00116
85.7 -0.00289
85.75 -0.00496
85.8 -0.0048
85.85 -0.00346
85.9 -0.00379
85.95 -0.00277
86 -0.00235
86.05 -0.0011
86.1 -0.00002
86.15 0.00202
86.2 0.00167
86.25 0.00115
86.3 -0.00024
86.35 -0.00258
86.4 -0.00407
86.45 -0.00582
86.5 -0.00685
86.55 -0.00702
86.6 -0.00767
86.65 -0.00641
86.7 -0.00544
86.75 -0.00574
86.8 -0.00611
86.85 -0.00631
86.9 -0.00604
86.95 -0.00572
87 -0.00646
87.05 -0.00561
87.1 -0.00502
87.15 -0.00357
87.2 -0.00272
87.25 -0.00118
87.3 0.00083
87.35 0.00242
87.4 0.00232
87.45 0.00309
87.5 0.00306
87.55 0.00317
87.6 0.00318
87.65 0.00379
87.7 0.00459
87.75 0.00344
87.8 0.00247
87.85 0.00286
87.9 0.00147
87.95 -0.00079
88 -0.00195
88.05 -0.00268
88.1 -0.00211
88.15 -0.00204
88.2 -0.0025
88.25 -0.00333
88.3 -0.00211
88.35 -0.00066
88.4 0.00122
88.45 0.00251
88.5 0.00445
88.55 0.00651
88.6 0.0078
88.65 0.00835
88.7 0.00864
88.75 0.00918
88.8 0.0097
88.85 0.00855
88.9 0.008
88.95 0.00671
89 0.00569
89.05 0.00409
89.1 0.00251
89.15 0.00138
89.2 -0.00052
89.25 -0.00242
89.3 -0.00372
89.35 -0.00322
89.4 -0.00408
89.45 -0.00538
89.5 -0.00608
89.55 -0.00666
89.6 -0.00525
89.65 -0.00385
89.7 -0.0015
89.75 -0.00137
89.8 -0.00024
89.85 0.00084
89.9 0.00045
89.95 -0.00108
90 -0.00066
90.05 -0.00178
90.1 -0.00176
90.15 -0.00221
90.2 -0.00348
90.25 -0.00506
90.3 -0.00514
90.35 -0.0042
90.4 -0.00468
90.45 -0.00525
90.5 -0.00528
90.55 -0.0054
90.6 -0.00543
90.65 -0.00422
90.7 -0.00216
90.75 -0.00015
90.8 0.00102
90.85 0.003
90.9 0.00526
90.95 0.00765
91 0.00982
91.05 0.01122
91.1 0.01098
91.15 0.01114
91.2 0.01002
91.25 0.00895
91.3 0.00805
91.35 0.00706
91.4 0.0059
91.45 0.00401
91.5 0.00168
91.55 -0.00068
91.6 -0.0027
91.65 -0.00263
91.7 -0.00219
91.75 -0.00214
91.8 -0.00098
91.85 -0.00063
91.9 0.00064
91.95 0.0012
92 0.00111
92.05 0.00112
92.1 0.00141
92.15 0.00161
92.2 0.00276
92.25 0.00167
92.3 -0.0007
92.35 -0.00243
92.4 -0.0039
92.45 -0.00435
92.5 -0.00431
92.55 -0.00286
92.6 -0.00324
92.65 -0.00474
92.7 -0.0045
92.75 -0.00271
92.8 -0.0018
92.85 -0.00045
92.9 0.00014
92.95 0.00105
93 0.0018
93.05 0.00176
93.1 0.00112
93.15 0.00171
93.2 0.00209
93.25 0.00178
93.3 0.00006
93.35 -0.00257
93.4 -0.00473
93.45 -0.0047
93.5 -0.00478
93.55 -0.0041
93.6 -0.00234
93.65 -0.00207
93.7 -0.00272
93.75 -0.00378
93.8 -0.00486
93.85 -0.00533
93.9 -0.00655
93.95 -0.00682
94 -0.00781
94.05 -0.00903
94.1 -0.00908
94.15 -0.0083
94.2 -0.00568
94.25 -0.00317
94.3 -0.00229
94.35 -0.00246
94.4 -0.00337
94.45 -0.00385
94.5 -0.00398
94.55 -0.00512
94.6 -0.00643
94.65 -0.00729
94.7 -0.00688
94.75 -0.00577
94.8 -0.00389
94.85 -0.00353
94.9 -0.00212
94.95 0.00037
95 0.00277
95.05 0.00364
95.1 0.00431
95.15 0.00417
95.2 0.00423
95.25 0.00505
95.3 0.00383
95.35 0.00172
95.4 0.00054
95.45 0.00099
95.5 0.00045
95.55 0.00047
95.6 0.00191
95.65 0.00263
95.7 0.00249
95.75 0.00277
95.8 0.00259
95.85 0.00219
95.9 0.00284
95.95 0.00286
96 0.00349
96.05 0.00443
96.1 0.00411
96.15 0.0029
96.2 0.00259
96.25 0.00133
96.3 0.00038
96.35 -0.0002
96.4 -0.00015
96.45 0.00083
96.5 0.00129
96.55 0.001
96.6 -0.00048
96.65 -0.00119
96.7 -0.00063
96.75 0.00027
96.8 0.00173
96.85 0.0028
96.9 0.00217
96.95 0.00229
97 0.00257
97.05 0.0034
97.1 0.00294
97.15 0.00368
97.2 0.00239
97.25 0.00126
97.3 0
97.35 -0.00206
97.4 -0.0022
97.45 -0.001
97.5 0.00067
97.55 0.00078
97.6 -0.00065
97.65 -0.00031
97.7 -0.00137
97.75 -0.00187
97.8 -0.00216
97.85 -0.00308
97.9 -0.00273
97.95 -0.00258
98 -0.00099
98.05 0.00105
98.1 0.00102
98.15 0.00232
98.2 0.00203
98.25 0.00227
98.3 0.00171
98.35 0.0002
98.4 0.00019
98.45 0.00062
98.5 0.00018
98.55 0.00073
98.6 0.00034
98.65 0.00087
98.7 0.00134
98.75 0.00129
98.8 0.0018
98.85 0.00074
98.9 -0.00088
98.95 -0.00225
99 -0.00195
99.05 -0.00119
99.1 -0.00056
99.15 -0.00062
99.2 -0.00071
99.25 0.00069
99.3 0.00233
99.35 0.00312
99.4 0.00443
99.45 0.00394
99.5 0.00223
99.55 0.00065
99.6 0.00082
99.65 0.002
99.7 0.00134
99.75 -0.00007
99.8 -0.0022
99.85 -0.00296
99.9 -0.00313
99.95 -0.00201
