0 0
0.05 0.00658
0.1 0.01454
0.15 0.02653
0.2 0.03207
0.25 0.03969
0.3 0.0424
0.35 0.04277
0.4 0.04136
0.45 0.04336
0.5 0.04297
0.55 0.04269
0.6 0.04014
0.65 0.03855
0.7 0.04261
0.75 0.04317
0.8 0.04787
0.85 0.04786
0.9 0.04578
0.95 0.04055
1 0.03961
1.05 0.03942
1.1 0.0428
1.15 0.04319
1.2 0.04441
1.25 0.04248
1.3 0.0388
1.35 0.03937
1.4 0.04075
1.45 0.04465
1.5 0.0471
1.55 0.04416
1.6 0.04517
1.65 0.04162
1.7 0.03904
1.75 0.04004
1.8 0.03595
1.85 0.03632
1.9 0.03924
1.95 0.04301
2 0.04514
2.05 0.04582
2.1 0.04179
2.15 0.03784
2.2 0.03805
2.25 0.03324
2.3 0.03243
2.35 0.03576
2.4 0.0389
2.45 0.03887
2.5 0.03593
2.55 0.03227
2.6 0.02995
2.65 0.02735
2.7 0.02976
2.75 0.02699
2.8 0.02788
2.85 0.02908
2.9 0.0252
2.95 0.01866
3 0.01171
3.05 0.01176
3.1 0.00887
3.15 0.00858
3.2 0.00994
3.25 0.01359
3.3 0.01522
3.35 0.02036
3.4 0.01951
3.45 0.01984
3.5 0.01704
3.55 0.01531
3.6 0.01679
3.65 0.01968
3.7 0.0199
3.75 0.02188
3.8 0.02379
3.85 0.0207
3.9 0.02167
3.95 0.02132
4 0.02301
4.05 0.02427
4.1 0.02148
4.15 0.02108
4.2 0.02031
4.25 0.02092
4.3 0.02235
4.35 0.02223
4.4 0.02409
4.45 0.01856
4.5 0.01428
4.55 0.01191
4.6 0.01061
4.65 0.00713
4.7 -0.00246
4.75 -0.01644
4.8 -0.03624
4.85 -0.05668
4.9 -0.07391
4.95 -0.09524
5 -0.12031
5.05 -0.14678
5.1 -0.17391
5.15 -0.19701
5.2 -0.21834
5.25 -0.23986
5.3 -0.26824
5.35 -0.30029
5.4 -0.3316
5.45 -0.36638
5.5 -0.39896
5.55 -0.43216
5.6 -0.45914
5.65 -0.48453
5.7 -0.50924
5.75 -0.52472
5.8 -0.53772
5.85 -0.54227
5.9 -0.54427
5.95 -0.53581
6 -0.52456
6.05 -0.50118
6.1 -0.47251
6.15 -0.44216
6.2 -0.40423
6.25 -0.36249
6.3 -0.31921
6.35 -0.27564
6.4 -0.22468
6.45 -0.17146
6.5 -0.11933
6.55 -0.07276
6.6 -0.03135
6.65 0.01131
6.7 0.05249
6.75 0.08966
6.8 0.11856
6.85 0.14593
6.9 0.17042
6.95 0.19372
7 0.21718
7.05 0.23903
7.1 0.25927
7.15 0.2807
7.2 0.30345
7.25 0.32205
7.3 0.34012
7.35 0.35299
7.4 0.36036
7.45 0.36423
7.5 0.36755
7.55 0.37489
7.6 0.3788
7.65 0.3822
7.7 0.391
7.75 0.39514
7.8 0.40225
7.85 0.40692
7.9 0.4119
7.95 0.4162
8 0.41997
8.05 0.4204
8.1 0.41246
8.15 0.40637
8.2 0.40206
8.25 0.3903
8.3 0.37612
8.35 0.36653
8.4 0.35374
8.45 0.34254
8.5 0.33217
8.55 0.31993
8.6 0.3126
8.65 0.3004
8.7 0.28922
8.75 0.28134
8.8 0.27028
8.85 0.26194
8.9 0.25425
8.95 0.24558
9 0.23162
9.05 0.21868
9.1 0.20735
9.15 0.19406
9.2 0.18571
9.25 0.18073
9.3 0.16966
9.35 0.15975
9.4 0.14813
9.45 0.14058
9.5 0.12941
9.55 0.11955
9.6 0.11315
9.65 0.10723
9.7 0.09974
9.75 0.08931
9.8 0.07773
9.85 0.07063
9.9 0.06167
9.95 0.04844
10 0.04062
10.05 0.03572
10.1 0.03335
10.15 0.03204
10.2 0.02914
10.25 0.02709
10.3 0.02447
10.35 0.01666
10.4 0.01
10.45 0.00049
10.5 -0.01188
10.55 -0.01901
10.6 -0.02714
10.65 -0.03383
10.7 -0.03493
10.75 -0.03521
10.8 -0.03672
10.85 -0.0418
10.9 -0.04893
10.95 -0.05509
11 -0.05626
11.05 -0.06099
11.1 -0.06494
11.15 -0.06463
11.2 -0.06315
11.25 -0.05842
11.3 -0.05778
11.35 -0.05945
11.4 -0.05874
11.45 -0.05576
11.5 -0.0566
11.55 -0.05893
11.6 -0.0581
11.65 -0.06008
11.7 -0.05847
11.75 -0.06046
11.8 -0.05743
11.85 -0.0591
11.9 -0.05774
11.95 -0.05575
12 -0.05631
12.05 -0.05515
12.1 -0.05245
12.15 -0.05303
12.2 -0.05079
12.25 -0.0489
12.3 -0.05157
12.35 -0.04898
12.4 -0.04636
12.45 -0.04671
12.5 -0.05036
12.55 -0.0519
12.6 -0.05058
12.65 -0.04862
12.7 -0.04337
12.75 -0.03733
12.8 -0.03095
12.85 -0.02984
12.9 -0.03388
12.95 -0.04062
13 -0.04902
13.05 -0.0516
13.1 -0.05244
13.15 -0.05552
13.2 -0.05874
13.25 -0.06026
13.3 -0.05689
13.35 -0.05192
13.4 -0.04731
13.45 -0.04193
13.5 -0.03786
13.55 -0.03774
13.6 -0.03905
13.65 -0.0383
13.7 -0.03299
13.75 -0.02616
13.8 -0.02427
13.85 -0.02021
13.9 -0.0187
13.95 -0.02105
14 -0.02163
14.05 -0.02555
14.1 -0.02782
14.15 -0.02811
14.2 -0.02509
14.25 -0.02028
14.3 -0.01357
14.35 -0.01183
14.4 -0.01504
14.45 -0.01417
14.5 -0.01573
14.55 -0.01348
14.6 -0.01145
14.65 -0.01458
14.7 -0.01962
14.75 -0.02754
14.8 -0.02905
14.85 -0.02867
14.9 -0.02983
14.95 -0.03455
15 -0.04069
15.05 -0.04137
15.1 -0.04358
15.15 -0.04065
15.2 -0.0333
15.25 -0.02366
15.3 -0.01884
15.35 -0.01236
15.4 -0.00469
15.45 -0.00353
15.5 -0.00131
15.55 0.00173
15.6 0.00023
15.65 -0.00103
15.7 -0.00159
15.75 -0.00608
15.8 -0.01406
15.85 -0.01787
15.9 -0.0205
15.95 -0.0219
16 -0.02431
16.05 -0.02526
16.1 -0.02257
16.15 -0.02378
16.2 -0.02365
16.25 -0.01914
16.3 -0.01511
16.35 -0.01459
16.4 -0.01579
16.45 -0.01514
16.5 -0.01054
16.55 -0.01007
16.6 -0.00692
16.65 -0.00898
16.7 -0.01481
16.75 -0.02255
16.8 -0.02557
16.85 -0.02212
16.9 -0.01732
16.95 -0.01141
17 -0.00638
17.05 -0.00087
17.1 -0.00271
17.15 -0.00916
17.2 -0.01411
17.25 -0.01894
17.3 -0.01849
17.35 -0.01983
17.4 -0.01597
17.45 -0.01563
17.5 -0.01121
17.55 -0.00536
17.6 0.00232
17.65 0.00546
17.7 0.0056
17.75 0.00446
17.8 0.00554
17.85 0.00502
17.9 0.00639
17.95 0.00631
18 0.00615
18.05 0.00654
18.1 0.00183
18.15 -0.00423
18.2 -0.01112
18.25 -0.01916
18.3 -0.0255
18.35 -0.02425
18.4 -0.02274
18.45 -0.0224
18.5 -0.02327
18.55 -0.02446
18.6 -0.02814
18.65 -0.02444
18.7 -0.02238
18.75 -0.01983
18.8 -0.01818
18.85 -0.01726
18.9 -0.01384
18.95 -0.01076
19 -0.01174
19.05 -0.01612
19.1 -0.02042
19.15 -0.02324
19.2 -0.028
19.25 -0.03231
19.3 -0.03491
19.35 -0.03536
19.4 -0.03651
19.45 -0.03509
19.5 -0.03222
19.55 -0.02785
19.6 -0.02643
19.65 -0.02643
19.7 -0.02738
19.75 -0.02257
19.8 -0.02055
19.85 -0.01583
19.9 -0.01584
19.95 -0.0153
20 -0.01179
20.05 -0.00755
20.1 -0.00577
20.15 -0.00058
20.2 0.0002
20.25 -0.00099
20.3 -0.0004
20.35 0.00247
20.4 0.00394
20.45 0.00106
20.5 -0.00081
20.55 -0.00403
20.6 -0.00487
20.65 -0.00492
20.7 -0.00834
20.75 -0.00599
20.8 -0.00462
20.85 -0.00221
20.9 0.00005
20.95 -0.00137
21 -0.00394
21.05 -0.00164
21.1 0.00376
21.15 0.00588
21.2 0.00609
21.25 0.0048
21.3 0.00754
21.35 0.00488
21.4 0.00287
21.45 -0.00311
21.5 -0.00695
21.55 -0.01009
21.6 -0.00794
21.65 -0.00281
21.7 0.00226
21.75 0.00329
21.8 0.00439
21.85 0.00848
21.9 0.008
21.95 0.00347
22 0.00162
22.05 -0.00371
22.1 -0.00544
22.15 -0.01025
22.2 -0.01491
22.25 -0.01691
22.3 -0.0194
22.35 -0.01675
22.4 -0.0167
22.45 -0.01813
22.5 -0.01351
22.55 -0.01271
22.6 -0.0135
22.65 -0.00984
22.7 -0.00855
22.75 -0.00275
22.8 -0.003
22.85 0.00063
22.9 0.00215
22.95 0.00659
23 0.01344
23.05 0.01542
23.1 0.01911
23.15 0.0231
23.2 0.02581
23.25 0.02709
23.3 0.02118
23.35 0.01438
23.4 0.01196
23.45 0.00544
23.5 0.00225
23.55 -0.00213
23.6 -0.00511
23.65 -0.00255
23.7 -0.00224
23.75 -0.00588
23.8 -0.0048
23.85 -0.00731
23.9 -0.0104
23.95 -0.01178
24 -0.00942
24.05 -0.00701
24.1 -0.00601
24.15 -0.0058
24.2 -0.0068
24.25 -0.01113
24.3 -0.01394
24.35 -0.01329
24.4 -0.0101
24.45 -0.00657
24.5 -0.00302
24.55 0.00265
24.6 0.01006
24.65 0.0168
24.7 0.01564
24.75 0.01482
24.8 0.01624
24.85 0.01314
24.9 0.01184
24.95 0.00842
25 0.00442
25.05 0.0058
25.1 0.00896
25.15 0.00746
25.2 0.00463
25.25 0.00367
25.3 0.00701
25.35 0.00881
25.4 0.00603
25.45 0.00013
25.5 -0.00169
25.55 0.00035
25.6 0.00084
25.65 -0.00318
25.7 -0.0043
25.75 -0.0091
25.8 -0.01117
25.85 -0.01016
25.9 -0.00605
25.95 0.00078
26 0.00366
26.05 0.00525
26.1 0.00769
26.15 0.00598
26.2 0.00825
26.25 0.00447
26.3 0.003
26.35 0.00432
26.4 0.00192
26.45 0.00261
26.5 0.00513
26.55 0.00205
26.6 0.00218
26.65 0.00575
26.7 0.00659
26.75 0.00293
26.8 -0.00313
26.85 -0.00836
26.9 -0.01542
26.95 -0.01961
27 -0.02191
27.05 -0.02603
27.1 -0.03079
27.15 -0.03164
27.2 -0.03111
27.25 -0.02974
27.3 -0.02397
27.35 -0.01607
27.4 -0.01049
27.45 -0.00364
27.5 0.0018
27.55 -0.0015
27.6 -0.00812
27.65 -0.01341
27.7 -0.01801
27.75 -0.02639
27.8 -0.03295
27.85 -0.04586
27.9 -0.06133
27.95 -0.07483
28 -0.09443
28.05 -0.11686
28.1 -0.14244
28.15 -0.16622
28.2 -0.1905
28.25 -0.21775
28.3 -0.24782
28.35 -0.28078
28.4 -0.31909
28.45 -0.36754
28.5 -0.41566
28.55 -0.47302
28.6 -0.53453
28.65 -0.59781
28.7 -0.67078
28.75 -0.75133
28.8 -0.83773
28.85 -0.92925
28.9 -1.02328
28.95 -1.11537
29 -1.21228
29.05 -1.31369
29.1 -1.41189
29.15 -1.5058
29.2 -1.5997
29.25 -1.69464
29.3 -1.78194
29.35 -1.86981
29.4 -1.9549
29.45 -2.03482
29.5 -2.10288
29.55 -2.15922
29.6 -2.20695
29.65 -2.24329
29.7 -2.26857
29.75 -2.2789
29.8 -2.27307
29.85 -2.25569
29.9 -2.22102
29.95 -2.17236
30 -2.11279
30.05 -2.0432
30.1 -1.95927
30.15 -1.86747
30.2 -1.76232
30.25 -1.65148
30.3 -1.5334
30.35 -1.41097
30.4 -1.27447
30.45 -1.13504
30.5 -0.98665
30.55 -0.83688
30.6 -0.68779
30.65 -0.53767
30.7 -0.38977
30.75 -0.23648
30.8 -0.08171
30.85 0.06736
30.9 0.21351
30.95 0.35508
31 0.49475
31.05 0.62175
31.1 0.73808
31.15 0.85421
31.2 0.95984
31.25 1.05689
31.3 1.14616
31.35 1.22691
31.4 1.29981
31.45 1.37061
31.5 1.43386
31.55 1.49555
31.6 1.54744
31.65 1.59519
31.7 1.63737
31.75 1.67389
31.8 1.70311
31.85 1.73382
31.9 1.76119
31.95 1.77874
32 1.79677
32.05 1.80973
32.1 1.8214
32.15 1.82674
32.2 1.83336
32.25 1.83909
32.3 1.83642
32.35 1.83657
32.4 1.83489
32.45 1.83033
32.5 1.8268
32.55 1.82081
32.6 1.81413
32.65 1.80313
32.7 1.78885
32.75 1.77639
32.8 1.7583
32.85 1.74122
32.9 1.72504
32.95 1.70704
33 1.68857
33.05 1.66571
33.1 1.63716
33.15 1.60376
33.2 1.56547
33.25 1.52657
33.3 1.48761
33.35 1.45445
33.4 1.42384
33.45 1.38651
33.5 1.35266
33.55 1.31137
33.6 1.27213
33.65 1.23499
33.7 1.19769
33.75 1.15825
33.8 1.1196
33.85 1.08037
33.9 1.04085
33.95 0.99936
34 0.95231
34.05 0.90036
34.1 0.84983
34.15 0.80218
34.2 0.756
34.25 0.71263
34.3 0.66583
34.35 0.62299
34.4 0.57763
34.45 0.5343
34.5 0.48972
34.55 0.45278
34.6 0.41388
34.65 0.37736
34.7 0.34441
34.75 0.31388
34.8 0.28525
34.85 0.25981
34.9 0.22754
34.95 0.19632
35 0.16613
35.05 0.13232
35.1 0.10246
35.15 0.07709
35.2 0.05343
35.25 0.02778
35.3 0.00721
35.35 -0.01702
35.4 -0.04346
35.45 -0.07045
35.5 -0.09318
35.55 -0.11211
35.6 -0.12742
35.65 -0.14361
35.7 -0.15532
35.75 -0.16798
35.8 -0.18207
35.85 -0.1943
35.9 -0.21018
35.95 -0.22224
36 -0.23742
36.05 -0.24876
36.1 -0.25775
36.15 -0.26673
36.2 -0.27306
36.25 -0.2789
36.3 -0.28832
36.35 -0.29652
36.4 -0.29956
36.45 -0.3008
36.5 -0.29822
36.55 -0.29645
36.6 -0.29778
36.65 -0.29778
36.7 -0.29814
36.75 -0.30205
36.8 -0.30647
36.85 -0.31472
36.9 -0.32112
36.95 -0.32465
37 -0.32596
37.05 -0.3235
37.1 -0.31789
37.15 -0.31178
37.2 -0.30483
37.25 -0.29875
37.3 -0.29411
37.35 -0.28935
37.4 -0.28587
37.45 -0.28301
37.5 -0.28361
37.55 -0.28586
37.6 -0.29026
37.65 -0.29379
37.7 -0.29518
37.75 -0.29172
37.8 -0.29114
37.85 -0.29399
37.9 -0.29314
37.95 -0.28769
38 -0.28205
38.05 -0.27744
38.1 -0.27503
38.15 -0.27466
38.2 -0.27047
38.25 -0.26388
38.3 -0.25914
38.35 -0.2563
38.4 -0.25767
38.45 -0.25671
38.5 -0.25777
38.55 -0.25859
38.6 -0.25873
38.65 -0.25257
38.7 -0.24428
38.75 -0.23458
38.8 -0.22433
38.85 -0.21352
38.9 -0.20652
38.95 -0.19855
39 -0.19302
39.05 -0.19136
39.1 -0.18646
39.15 -0.18142
39.2 -0.17579
39.25 -0.17016
39.3 -0.17201
39.35 -0.17714
39.4 -0.17786
39.45 -0.1786
39.5 -0.17619
39.55 -0.17619
39.6 -0.17562
39.65 -0.17206
39.7 -0.16758
39.75 -0.16429
39.8 -0.16253
39.85 -0.16046
39.9 -0.16188
39.95 -0.16308
40 -0.16275
40.05 -0.15796
40.1 -0.15613
40.15 -0.15308
40.2 -0.14885
40.25 -0.1485
40.3 -0.14574
40.35 -0.1468
40.4 -0.14599
40.45 -0.13997
40.5 -0.13307
40.55 -0.13115
40.6 -0.13164
40.65 -0.13227
40.7 -0.13509
40.75 -0.13498
40.8 -0.13384
40.85 -0.13152
40.9 -0.12637
40.95 -0.12633
41 -0.12351
41.05 -0.12509
41.1 -0.12551
41.15 -0.12344
41.2 -0.11672
41.25 -0.11008
41.3 -0.10761
41.35 -0.10247
41.4 -0.10155
41.45 -0.10242
41.5 -0.10565
41.55 -0.10443
41.6 -0.09954
41.65 -0.0957
41.7 -0.09536
41.75 -0.09025
41.8 -0.08409
41.85 -0.07603
41.9 -0.07029
41.95 -0.07086
42 -0.07059
42.05 -0.07322
42.1 -0.0728
42.15 -0.07461
42.2 -0.07585
42.25 -0.07547
42.3 -0.07262
42.35 -0.06762
42.4 -0.06556
42.45 -0.06634
42.5 -0.06593
42.55 -0.06696
42.6 -0.06564
42.65 -0.06669
42.7 -0.06474
42.75 -0.06134
42.8 -0.05614
42.85 -0.0544
42.9 -0.05143
42.95 -0.04858
43 -0.04582
43.05 -0.04537
43.1 -0.04683
43.15 -0.04811
43.2 -0.0505
43.25 -0.05569
43.3 -0.05902
43.35 -0.06373
43.4 -0.06994
43.45 -0.07375
43.5 -0.07885
43.55 -0.08251
43.6 -0.08094
43.65 -0.0803
43.7 -0.07717
43.75 -0.07056
43.8 -0.06707
43.85 -0.06528
43.9 -0.06019
43.95 -0.05574
44 -0.05363
44.05 -0.05494
44.1 -0.05224
44.15 -0.04931
44.2 -0.04263
44.25 -0.03786
44.3 -0.03055
44.35 -0.03093
44.4 -0.0315
44.45 -0.02828
44.5 -0.02535
44.55 -0.02401
44.6 -0.02154
44.65 -0.02149
44.7 -0.02646
44.75 -0.03436
44.8 -0.04054
44.85 -0.04434
44.9 -0.04638
44.95 -0.04691
45 -0.04774
45.05 -0.04463
45.1 -0.03955
45.15 -0.03962
45.2 -0.03552
45.25 -0.02819
45.3 -0.0215
45.35 -0.0148
45.4 -0.01562
45.45 -0.01564
45.5 -0.01757
45.55 -0.01762
45.6 -0.01834
45.65 -0.01954
45.7 -0.02352
45.75 -0.02816
45.8 -0.02856
45.85 -0.03132
45.9 -0.03679
45.95 -0.03811
46 -0.03732
46.05 -0.03357
46.1 -0.03194
46.15 -0.0339
46.2 -0.03357
46.25 -0.03267
46.3 -0.02678
46.35 -0.02182
46.4 -0.0174
46.45 -0.01793
46.5 -0.0188
46.55 -0.02184
46.6 -0.02063
46.65 -0.02059
46.7 -0.024
46.75 -0.02585
46.8 -0.0245
46.85 -0.02172
46.9 -0.01938
46.95 -0.02018
47 -0.01921
47.05 -0.01888
47.1 -0.01912
47.15 -0.02109
47.2 -0.02455
47.25 -0.02905
47.3 -0.03244
47.35 -0.0304
47.4 -0.0236
47.45 -0.01756
47.5 -0.01202
47.55 -0.01163
47.6 -0.0085
47.65 -0.00857
47.7 -0.01034
47.75 -0.01233
47.8 -0.0157
47.85 -0.01815
47.9 -0.01823
47.95 -0.01823
48 -0.01686
48.05 -0.01893
48.1 -0.02274
48.15 -0.02417
48.2 -0.02039
48.25 -0.01691
48.3 -0.01646
48.35 -0.01762
48.4 -0.01468
48.45 -0.01646
48.5 -0.01322
48.55 -0.0126
48.6 -0.01147
48.65 -0.00961
48.7 -0.00431
48.75 -0.00161
48.8 -0.00099
48.85 -0.00442
48.9 -0.00994
48.95 -0.01524
49 -0.01576
49.05 -0.0164
49.1 -0.01913
49.15 -0.02318
49.2 -0.02455
49.25 -0.02745
49.3 -0.02373
49.35 -0.02244
49.4 -0.02406
49.45 -0.02028
49.5 -0.01594
49.55 -0.01092
49.6 -0.00408
49.65 -0.00166
49.7 -0.00202
49.75 -0.00453
49.8 -0.00641
49.85 -0.00833
49.9 -0.00957
49.95 -0.01148
50 -0.00905
50.05 -0.01026
50.1 -0.00764
50.15 -0.00959
50.2 -0.01457
50.25 -0.02015
50.3 -0.01922
50.35 -0.01511
50.4 -0.01043
50.45 -0.00587
50.5 -0.0039
50.55 -0.00496
50.6 -0.00944
50.65 -0.01293
50.7 -0.01353
50.75 -0.01143
50.8 -0.01349
50.85 -0.01524
50.9 -0.01749
50.95 -0.02136
51 -0.02472
51.05 -0.02106
51.1 -0.01559
51.15 -0.00648
51.2 -0.00246
51.25 -0.00422
51.3 -0.0064
51.35 -0.00863
51.4 -0.01291
51.45 -0.01126
51.5 -0.01295
51.55 -0.01707
51.6 -0.02205
51.65 -0.02115
51.7 -0.02146
51.75 -0.02268
51.8 -0.01992
51.85 -0.01415
51.9 -0.01087
51.95 -0.00907
52 -0.0106
52.05 -0.00874
52.1 -0.01109
52.15 -0.00919
52.2 -0.01049
52.25 -0.00973
52.3 -0.01219
52.35 -0.01145
52.4 -0.00575
52.45 -0.00314
52.5 -0.0018
52.55 -0.00245
52.6 -0.00369
52.65 -0.00056
52.7 0.00606
52.75 0.00906
52.8 0.00751
52.85 0.00622
52.9 0.00793
52.95 0.00672
53 0.0024
53.05 0.00403
53.1 0.00493
53.15 0.00975
53.2 0.01451
53.25 0.01391
53.3 0.01255
53.35 0.00851
53.4 0.00425
53.45 0.00488
53.5 0.00722
53.55 0.00646
53.6 0.00238
53.65 0.00165
53.7 0.00443
53.75 0.00286
53.8 -0.0006
53.85 -0.00223
53.9 -0.00305
53.95 -0.00094
54 -0.0015
54.05 0.00108
54.1 0.00169
54.15 0.00371
54.2 0.00242
54.25 0.00299
54.3 0.00264
54.35 0.00266
54.4 -0.00152
54.45 -0.00139
54.5 -0.00245
54.55 -0.00119
54.6 -0.00313
54.65 -0.00841
54.7 -0.01226
54.75 -0.01048
54.8 -0.01001
54.85 -0.0066
54.9 -0.00515
54.95 -0.00428
55 -0.00147
55.05 -0.00368
55.1 -0.00198
55.15 0.00071
55.2 -0.00116
55.25 -0.00127
55.3 0.00312
55.35 0.00969
55.4 0.01742
55.45 0.01728
55.5 0.01549
55.55 0.01224
55.6 0.01107
55.65 0.01328
55.7 0.01277
55.75 0.01529
55.8 0.01636
55.85 0.01915
55.9 0.0193
55.95 0.01935
56 0.01498
56.05 0.01176
56.1 0.01134
56.15 0.01111
56.2 0.012
56.25 0.01259
56.3 0.0087
56.35 0.00509
56.4 0.00666
56.45 0.00752
56.5 0.00663
56.55 0.00273
56.6 -0.00215
56.65 -0.00865
56.7 -0.01066
56.75 -0.00805
56.8 -0.00388
56.85 -0.00116
56.9 -0.00152
56.95 0.00043
57 -0.00026
57.05 0.00263
57.1 0.00259
57.15 -0.00122
57.2 -0.00142
57.25 -0.00607
57.3 -0.00908
57.35 -0.00707
57.4 -0.00835
57.45 -0.00548
57.5 -0.00715
57.55 -0.0057
57.6 -0.0016
57.65 0.00346
57.7 0.00641
57.75 0.00749
57.8 0.0048
57.85 0.00116
57.9 -0.00568
57.95 -0.01042
58 -0.01096
58.05 -0.0089
58.1 -0.00482
58.15 -0.00202
58.2 0.00124
58.25 0.00251
58.3 0.00577
58.35 0.00821
58.4 0.01317
58.45 0.01761
58.5 0.02077
58.55 0.02452
58.6 0.02325
58.65 0.02183
58.7 0.02063
58.75 0.02071
58.8 0.01632
58.85 0.01513
58.9 0.00904
58.95 0.00176
59 -0.00554
59.05 -0.00574
59.1 -0.00329
59.15 -0.00097
59.2 -0.00189
59.25 -0.00057
59.3 -0.00432
59.35 -0.00303
59.4 -0.00613
59.45 -0.01056
59.5 -0.01144
59.55 -0.01157
59.6 -0.01497
59.65 -0.0153
59.7 -0.01076
59.75 -0.00414
59.8 -0.00238
59.85 -0.0014
59.9 -0.00005
59.95 0.00258
60 0.00631
60.05 0.00477
60.1 0.00207
60.15 0.00383
60.2 0.00024
60.25 -0.00184
60.3 0.00096
60.35 0.00625
60.4 0.01318
60.45 0.01412
60.5 0.01311
60.55 0.01227
60.6 0.00764
60.65 0.00363
60.7 -0.00118
60.75 -0.00174
60.8 -0.00098
60.85 -0.00247
60.9 -0.00028
60.95 -0.00368
61 -0.00758
61.05 -0.00739
61.1 -0.00568
61.15 -0.00309
61.2 0.00176
61.25 0.00452
61.3 0.01001
61.35 0.00897
61.4 0.0071
61.45 0.00395
61.5 0.00158
61.55 -0.00158
61.6 -0.00537
61.65 -0.01147
61.7 -0.01899
61.75 -0.02294
61.8 -0.02553
61.85 -0.02468
61.9 -0.02408
61.95 -0.02609
62 -0.02227
62.05 -0.01638
62.1 -0.00904
62.15 -0.00263
62.2 -0.00022
62.25 -0.0012
62.3 -0.00353
62.35 -0.00659
62.4 -0.00771
62.45 -0.00531
62.5 -0.00162
62.55 0.00472
62.6 0.0045
62.65 0.00163
62.7 -0.00478
62.75 -0.01055
62.8 -0.01273
62.85 -0.01152
62.9 -0.01166
62.95 -0.01279
63 -0.0114
63.05 -0.01159
63.1 -0.01033
63.15 -0.00814
63.2 -0.00715
63.25 -0.00621
63.3 -0.00212
63.35 -0.0011
63.4 -0.00186
63.45 -0.00193
63.5 0.00057
63.55 0.00302
63.6 0.00762
63.65 0.0079
63.7 0.0074
63.75 0.00429
63.8 -0.00241
63.85 -0.00318
63.9 -0.00666
63.95 -0.00761
64 -0.01137
64.05 -0.01583
64.1 -0.01534
64.15 -0.01284
64.2 -0.00801
64.25 -0.00817
64.3 -0.00335
64.35 -0.00049
64.4 -0.00116
64.45 0.00251
64.5 0.00587
64.55 0.00633
64.6 0.00306
64.65 -0.00236
64.7 -0.00506
64.75 -0.00333
64.8 0.0025
64.85 0.00671
64.9 0.00757
64.95 0.01146
65 0.00955
65.05 0.00365
65.1 0.00114
65.15 0.00388
65.2 0.00806
65.25 0.00605
65.3 0.00474
65.35 0.00531
65.4 0.00282
65.45 -0.00178
65.5 -0.00718
65.55 -0.00574
65.6 -0.00707
65.65 -0.00511
65.7 -0.00632
65.75 -0.00547
65.8 -0.00082
65.85 0.00155
65.9 0.00611
65.95 0.00961
66 0.01047
66.05 0.01132
66.1 0.01244
66.15 0.01544
66.2 0.01177
66.25 0.01128
66.3 0.00816
66.35 0.0029
66.4 -0.00191
66.45 -0.00779
66.5 -0.00803
66.55 -0.00309
66.6 -0.0013
66.65 0.00432
66.7 0.00544
66.75 0.00806
66.8 0.01201
66.85 0.01311
66.9 0.00916
66.95 0.00288
67 0.00293
67.05 0.00586
67.1 0.00618
67.15 0.00383
67.2 -0.00075
67.25 -0.0001
67.3 -0.00112
67.35 -0.00051
67.4 -0.00446
67.45 -0.00788
67.5 -0.00909
67.55 -0.00818
67.6 -0.00313
67.65 0.00219
67.7 0.00703
67.75 0.00785
67.8 0.01056
67.85 0.00872
67.9 0.00648
67.95 0.00457
68 -0.00061
68.05 -0.00842
68.1 -0.01226
68.15 -0.0161
68.2 -0.01858
68.25 -0.01544
68.3 -0.01058
68.35 -0.009
68.4 -0.00697
68.45 -0.00914
68.5 -0.01402
68.55 -0.01871
68.6 -0.02202
68.65 -0.02471
68.7 -0.02181
68.75 -0.01672
68.8 -0.01142
68.85 -0.01028
68.9 -0.00763
68.95 -0.00236
69 -0.00284
69.05 0.00107
69.1 0.00724
69.15 0.01213
69.2 0.01856
69.25 0.01754
69.3 0.01536
69.35 0.0088
69.4 0.0021
69.45 0.00132
69.5 -0.00359
69.55 -0.00454
69.6 -0.00412
69.65 -0.00425
69.7 -0.00135
69.75 0.00184
69.8 0.00492
69.85 0.00904
69.9 0.01489
69.95 0.01472
70 0.00968
70.05 0.00553
70.1 0.00061
70.15 0.00123
70.2 -0.00042
70.25 -0.00176
70.3 -0.00219
70.35 -0.00183
70.4 0.00211
70.45 0.00314
70.5 0.00551
70.55 0.00649
70.6 0.00427
70.65 0.00295
70.7 0.00204
70.75 0.00456
70.8 0.0036
70.85 0.00015
70.9 -0.00226
70.95 -0.00581
71 -0.01158
71.05 -0.01182
71.1 -0.00934
71.15 -0.00588
71.2 -0.00362
71.25 -0.00411
71.3 -0.00362
71.35 -0.0012
71.4 -0.00262
71.45 -0.00322
71.5 -0.00372
71.55 0.00065
71.6 0.00582
71.65 0.01057
71.7 0.01648
71.75 0.02244
71.8 0.02546
71.85 0.0296
71.9 0.02706
71.95 0.02058
72 0.0128
72.05 0.00607
72.1 0.00193
72.15 -0.00279
72.2 -0.00492
72.25 -0.00266
72.3 0.00146
72.35 0.00686
72.4 0.00579
72.45 0.00868
72.5 0.00727
72.55 0.00386
72.6 0.00286
72.65 -0.00128
72.7 -0.00027
72.75 -0.00404
72.8 -0.00296
72.85 -0.00585
72.9 -0.01178
72.95 -0.01752
73 -0.02074
73.05 -0.01889
73.1 -0.01482
73.15 -0.00932
73.2 -0.00362
73.25 0.00067
73.3 0.00711
73.35 0.01492
73.4 0.01481
73.45 0.00965
73.5 0.0025
73.55 -0.00482
73.6 -0.00576
73.65 -0.01053
73.7 -0.01719
73.75 -0.0215
73.8 -0.02665
73.85 -0.0268
73.9 -0.02778
73.95 -0.02491
74 -0.02007
74.05 -0.01316
74.1 -0.01106
74.15 -0.01019
74.2 -0.00504
74.25 -0.00543
74.3 -0.0015
74.35 0.00362
74.4 0.00563
74.45 0.00787
74.5 0.01253
74.55 0.01844
74.6 0.01882
74.65 0.02011
74.7 0.02279
74.75 0.02557
74.8 0.02675
74.85 0.02367
74.9 0.02151
74.95 0.01856
75 0.01474
75.05 0.01357
75.1 0.00944
75.15 0.00391
75.2 0.00015
75.25 -0.00279
75.3 -0.00142
75.35 0.00099
75.4 0.00067
75.45 0.00241
75.5 0.00423
75.55 0.00768
75.6 0.00858
75.65 0.01077
75.7 0.00785
75.75 0.00063
75.8 -0.00788
75.85 -0.01256
75.9 -0.01103
75.95 -0.01211
76 -0.01227
76.05 -0.01276
76.1 -0.0137
76.15 -0.00927
76.2 -0.00521
76.25 -0.00489
76.3 -0.00416
76.35 0.00071
76.4 0.00518
76.45 0.01115
76.5 0.01398
76.55 0.01718
76.6 0.0194
76.65 0.01474
76.7 0.01338
76.75 0.00994
76.8 0.01086
76.85 0.00879
76.9 0.00539
76.95 -0.00083
77 -0.00182
77.05 -0.00657
77.1 -0.00884
77.15 -0.01441
77.2 -0.01563
77.25 -0.01186
77.3 -0.01076
77.35 -0.0084
77.4 -0.01009
77.45 -0.00858
77.5 -0.00363
77.55 0.00397
77.6 0.00515
77.65 0.00473
77.7 0.00503
77.75 0.00754
77.8 0.00696
77.85 0.00239
77.9 -0.00179
77.95 -0.00158
78 -0.00562
78.05 -0.00419
78.1 -0.00477
78.15 -0.00337
78.2 -0.00471
78.25 -0.00976
78.3 -0.00887
78.35 -0.01187
78.4 -0.01731
78.45 -0.01696
78.5 -0.01192
78.55 -0.01029
78.6 -0.00496
78.65 0.00099
78.7 0.00598
78.75 0.00715
78.8 0.00833
78.85 0.00492
78.9 0.00443
78.95 0.00222
79 -0.00265
79.05 -0.00483
79.1 -0.00799
79.15 -0.01387
79.2 -0.0124
79.25 -0.00665
79.3 -0.00038
79.35 0.00222
79.4 0.00766
79.45 0.00878
79.5 0.00812
79.55 0.00745
79.6 0.00519
79.65 0.00042
79.7 0.00017
79.75 0.00046
79.8 0.0024
79.85 0.00654
79.9 0.00893
79.95 0.0057
80 -0.00009
80.05 -0.00527
80.1 -0.00763
80.15 -0.00882
80.2 -0.01302
80.25 -0.01546
80.3 -0.01774
80.35 -0.01674
80.4 -0.01377
80.45 -0.01468
80.5 -0.01143
80.55 -0.00478
80.6 -0.00285
80.65 -0.00255
80.7 -0.00579
80.75 -0.00633
80.8 -0.01055
80.85 -0.01514
80.9 -0.01549
80.95 -0.01538
81 -0.01015
81.05 -0.01044
81.1 -0.00922
81.15 -0.00966
81.2 -0.00955
81.25 -0.00788
81.3 -0.00349
81.35 0.0009
81.4 0.00601
81.45 0.00894
81.5 0.0132
81.55 0.01258
81.6 0.00942
81.65 0.00315
81.7 0
81.75 0.00135
81.8 0.00612
81.85 0.00649
81.9 0.01033
81.95 0.00929
82 0.00537
82.05 -0.00155
82.1 -0.00509
82.15 -0.00901
82.2 -0.01167
82.25 -0.01685
82.3 -0.02042
82.35 -0.02494
82.4 -0.02552
82.45 -0.02334
82.5 -0.02364
82.55 -0.01748
82.6 -0.01271
82.65 -0.00858
82.7 -0.00257
82.75 0.00425
82.8 0.00759
82.85 0.01236
82.9 0.01495
82.95 0.0127
83 0.00743
83.05 0.00658
83.1 0.00594
83.15 0.00477
83.2 0.00674
83.25 0.01084
83.3 0.01334
83.35 0.01452
83.4 0.01071
83.45 0.00764
83.5 0.00138
83.55 -0.00149
83.6 -0.00482
83.65 -0.00333
83.7 -0.00344
83.75 -0.00095
83.8 0.00341
83.85 0.00936
83.9 0.01088
83.95 0.00832
84 0.00462
84.05 -0.00118
84.1 -0.00396
84.15 -0.00375
84.2 -0.00146
84.25 -0.00125
84.3 0.00064
84.35 0.00344
84.4 0.00344
84.45 0.00716
84.5 0.01218
84.55 0.01333
84.6 0.01129
84.65 0.00465
84.7 -0.00056
84.75 -0.0078
84.8 -0.00837
84.85 -0.00585
84.9 -0.00821
84.95 -0.01348
85 -0.0175
85.05 -0.02135
85.1 -0.02598
85.15 -0.03023
85.2 -0.03417
85.25 -0.0339
85.3 -0.02741
85.35 -0.02234
85.4 -0.01764
85.45 -0.00918
85.5 0.0014
85.55 0.00882
85.6 0.00877
85.65 0.00663
85.7 0.00664
85.75 0.00469
85.8 -0.0009
85.85 -0.0019
85.9 -0.00646
85.95 -0.00782
86 -0.00434
86.05 -0.00142
86.1 0.00473
86.15 0.00568
86.2 0.00804
86.25 0.00689
86.3 0.0087
86.35 0.00918
86.4 0.01228
86.45 0.01773
86.5 0.01811
86.55 0.01291
86.6 0.01113
86.65 0.01341
86.7 0.01338
86.75 0.01253
86.8 0.0098
86.85 0.0058
86.9 -0.00078
86.95 -0.00737
87 -0.01041
87.05 -0.00901
87.1 -0.00831
87.15 -0.00784
87.2 -0.00362
87.25 0.00155
87.3 0.00399
87.35 0.00717
87.4 0.0103
87.45 0.01566
87.5 0.01874
87.55 0.02064
87.6 0.01814
87.65 0.01558
87.7 0.01465
87.75 0.01271
87.8 0.01443
87.85 0.0148
87.9 0.01037
87.95 0.00219
88 -0.00489
88.05 -0.00504
88.1 -0.00198
88.15 0.0002
88.2 -0.00204
88.25 -0.00397
88.3 -0.00405
88.35 -0.00334
88.4 -0.00399
88.45 -0.00363
88.5 -0.00646
88.55 -0.0065
88.6 -0.00973
88.65 -0.01227
88.7 -0.01249
88.75 -0.01302
88.8 -0.01409
88.85 -0.01574
88.9 -0.01962
88.95 -0.01711
89 -0.01618
89.05 -0.01641
89.1 -0.01536
89.15 -0.0137
89.2 -0.01069
89.25 -0.00782
89.3 -0.00527
89.35 -0.00202
89.4 0.00282
89.45 0.01006
89.5 0.01806
89.55 0.02567
89.6 0.03163
89.65 0.03252
89.7 0.0279
89.75 0.02679
89.8 0.02045
89.85 0.015
89.9 0.0088
89.95 0.00032
90 -0.00665
90.05 -0.00949
90.1 -0.01178
90.15 -0.00849
90.2 -0.00598
90.25 -0.00244
90.3 0.00187
90.35 0.00818
90.4 0.01328
90.45 0.01825
90.5 0.01577
90.55 0.01134
90.6 0.00569
90.65 0.00521
90.7 0.00208
90.75 0.00289
90.8 -0.00082
90.85 -0.00502
90.9 -0.00642
90.95 -0.00281
91 -0.00043
91.05 0.00435
91.1 0.0043
91.15 0.00699
91.2 0.00782
91.25 0.00619
91.3 0.00133
91.35 -0.00113
91.4 -0.00703
91.45 -0.01253
91.5 -0.01933
91.55 -0.01907
91.6 -0.01459
91.65 -0.01351
91.7 -0.00812
91.75 -0.00166
91.8 0.00328
91.85 0.00774
91.9 0.00827
91.95 0.00946
92 0.00633
92.05 0.00433
92.1 0.00201
92.15 0.00363
92.2 0.00032
92.25 -0.00097
92.3 0.00136
92.35 0.00145
92.4 -0.00239
92.45 -0.00838
92.5 -0.01064
92.55 -0.00736
92.6 -0.00339
92.65 0.00114
92.7 0.00503
92.75 0.00514
92.8 0.00181
92.85 -0.00336
92.9 -0.01072
92.95 -0.01337
93 -0.01054
93.05 -0.00719
93.1 -0.00152
93.15 0.00031
93.2 0.00494
93.25 0.00468
93.3 0.00198
93.35 0.00328
93.4 -0.00043
93.45 -0.00074
93.5 -0.00476
93.55 -0.00845
93.6 -0.00827
93.65 -0.00949
93.7 -0.01317
93.75 -0.01691
93.8 -0.01688
93.85 -0.01142
93.9 -0.00863
93.95 -0.00375
94 0.00343
94.05 0.01027
94.1 0.01348
94.15 0.01148
94.2 0.0121
94.25 0.01399
94.3 0.01351
94.35 0.01225
94.4 0.01149
94.45 0.00895
94.5 0.00377
94.55 0.00177
94.6 -0.00139
94.65 -0.00159
94.7 -0.00422
94.75 -0.00239
94.8 0.00198
94.85 0.0026
94.9 0.00096
94.95 0.00088
95 0.00214
95.05 0.0065
95.1 0.0062
95.15 0.00299
95.2 0.00216
95.25 -0.00251
95.3 -0.0041
95.35 -0.00643
95.4 -0.01108
95.45 -0.01501
95.5 -0.02085
95.55 -0.02128
95.6 -0.02424
95.65 -0.02787
95.7 -0.03047
95.75 -0.02544
95.8 -0.01758
95.85 -0.01121
95.9 -0.00745
95.95 -0.00292
96 -0.00188
96.05 -0.00109
96.1 -0.00226
96.15 -0.00185
96.2 -0.00177
96.25 -0.00203
96.3 0.00046
96.35 -0.00036
96.4 0.00353
96.45 0.00437
96.5 0.00362
96.55 0.00149
96.6 -0.00166
96.65 -0.00794
96.7 -0.01357
96.75 -0.01946
96.8 -0.02205
96.85 -0.02355
96.9 -0.02339
96.95 -0.01964
97 -0.01624
97.05 -0.00895
97.1 0.00063
97.15 0.00939
97.2 0.0147
97.25 0.0193
97.3 0.02205
97.35 0.02527
97.4 0.02896
97.45 0.03004
97.5 0.03038
97.55 0.03255
97.6 0.03182
97.65 0.03019
97.7 0.0296
97.75 0.02544
97.8 0.01666
97.85 0.01391
97.9 0.00743
97.95 -0.00131
98 -0.00517
98.05 -0.00887
98.1 -0.00805
98.15 -0.00802
98.2 -0.00512
98.25 -0.00535
98.3 -0.00528
98.35 -0.00078
98.4 -0.00054
98.45 0.00104
98.5 0.00211
98.55 0.00557
98.6 0.01039
98.65 0.00879
98.7 0.00686
98.75 0.00914
98.8 0.00524
98.85 -0.00202
98.9 -0.00722
98.95 -0.00823
99 -0.00597
99.05 -0.00828
99.1 -0.01306
99.15 -0.01417
99.2 -0.01276
99.25 -0.01013
99.3 -0.01121
99.35 -0.0114
99.4 -0.01424
99.45 -0.01209
99.5 -0.01099
99.55 -0.00546
99.6 0.00215
99.65 0.00667
99.7 0.00811
99.75 0.01166
99.8 0.00933
99.85 0.00993
99.9 0.00958
99.95 0.00751
