0 0
0.05 0.00319
0.1 0.00831
0.15 0.01256
0.2 0.01428
0.25 0.01998
0.3 0.02998
0.35 0.03836
0.4 0.04593
0.45 0.05287
0.5 0.0606
0.55 0.06694
0.6 0.07255
0.65 0.07549
0.7 0.07625
0.75 0.07361
0.8 0.06579
0.85 0.05681
0.9 0.053
0.95 0.0456
1 0.04172
1.05 0.03478
1.1 0.03536
1.15 0.03993
1.2 0.04608
1.25 0.05028
1.3 0.05629
1.35 0.05912
1.4 0.0549
1.45 0.05099
1.5 0.05166
1.55 0.04786
1.6 0.04396
1.65 0.03786
1.7 0.03114
1.75 0.02729
1.8 0.02239
1.85 0.02223
1.9 0.02359
1.95 0.02825
2 0.03483
2.05 0.03746
2.1 0.03616
2.15 0.03368
2.2 0.03305
2.25 0.02796
2.3 0.02297
2.35 0.02032
2.4 0.02258
2.45 0.02585
2.5 0.0304
2.55 0.02869
2.6 0.02322
2.65 0.02302
2.7 0.02435
2.75 0.02671
2.8 0.02773
2.85 0.0252
2.9 0.02535
2.95 0.02685
3 0.0272
3.05 0.02429
3.1 0.01981
3.15 0.01323
3.2 0.00993
3.25 0.00796
3.3 0.01124
3.35 0.01562
3.4 0.01807
3.45 0.02015
3.5 0.02465
3.55 0.02993
3.6 0.03425
3.65 0.03845
3.7 0.03885
3.75 0.04059
3.8 0.04146
3.85 0.03669
3.9 0.03276
3.95 0.0332
4 0.03565
4.05 0.03644
4.1 0.03786
4.15 0.0337
4.2 0.02516
4.25 0.01978
4.3 0.01778
4.35 0.01458
4.4 0.01173
4.45 0.00188
4.5 -0.00614
4.55 -0.01353
4.6 -0.0272
4.65 -0.04475
4.7 -0.06662
4.75 -0.09241
4.8 -0.12001
4.85 -0.14697
4.9 -0.17954
4.95 -0.21893
5 -0.25837
5.05 -0.29927
5.1 -0.34702
5.15 -0.40541
5.2 -0.46507
5.25 -0.53065
5.3 -0.60121
5.35 -0.68054
5.4 -0.76128
5.45 -0.84919
5.5 -0.94138
5.55 -1.03918
5.6 -1.13861
5.65 -1.23688
5.7 -1.33683
5.75 -1.43915
5.8 -1.53654
5.85 -1.62864
5.9 -1.71651
5.95 -1.79799
6 -1.87571
6.05 -1.95029
6.1 -2.0205
6.15 -2.08985
6.2 -2.15594
6.25 -2.22096
6.3 -2.27965
6.35 -2.33417
6.4 -2.38845
6.45 -2.43329
6.5 -2.467
6.55 -2.48983
6.6 -2.50677
6.65 -2.50888
6.7 -2.49763
6.75 -2.47553
6.8 -2.44173
6.85 -2.39472
6.9 -2.32758
6.95 -2.24639
7 -2.14464
7.05 -2.025
7.1 -1.89263
7.15 -1.74589
7.2 -1.5851
7.25 -1.41366
7.3 -1.2305
7.35 -1.03529
7.4 -0.8301
7.45 -0.62626
7.5 -0.41778
7.55 -0.2122
7.6 -0.00919
7.65 0.19232
7.7 0.39063
7.75 0.57887
7.8 0.76199
7.85 0.93028
7.9 1.0862
7.95 1.23002
8 1.36336
8.05 1.48871
8.1 1.60273
8.15 1.71176
8.2 1.81297
8.25 1.89954
8.3 1.97554
8.35 2.03611
8.4 2.08932
8.45 2.1286
8.5 2.16099
8.55 2.18503
8.6 2.2069
8.65 2.22229
8.7 2.23652
8.75 2.24391
8.8 2.2409
8.85 2.23195
8.9 2.2221
8.95 2.21442
9 2.207
9.05 2.1937
9.1 2.1777
9.15 2.15675
9.2 2.13241
9.25 2.10596
9.3 2.08357
9.35 2.06566
9.4 2.04605
9.45 2.02637
9.5 2.00342
9.55 1.98123
9.6 1.95634
9.65 1.92424
9.7 1.89249
9.75 1.86074
9.8 1.82837
9.85 1.79027
9.9 1.75515
9.95 1.72201
10 1.6914
10.05 1.65714
10.1 1.61993
10.15 1.57975
10.2 1.5351
10.25 1.49308
10.3 1.44934
10.35 1.40893
10.4 1.36476
10.45 1.32376
10.5 1.28023
10.55 1.23252
10.6 1.18638
10.65 1.14151
10.7 1.09273
10.75 1.04808
10.8 1.00387
10.85 0.9548
10.9 0.90121
10.95 0.85319
11 0.8022
11.05 0.75536
11.1 0.70857
11.15 0.66639
11.2 0.62275
11.25 0.57556
11.3 0.52892
11.35 0.48879
11.4 0.44471
11.45 0.39882
11.5 0.35945
11.55 0.31852
11.6 0.27825
11.65 0.24397
11.7 0.2098
11.75 0.17536
11.8 0.14674
11.85 0.1207
11.9 0.09451
11.95 0.06616
12 0.04144
12.05 0.01891
12.1 -0.00988
12.15 -0.03838
12.2 -0.06313
12.25 -0.08851
12.3 -0.11614
12.35 -0.1442
12.4 -0.16815
12.45 -0.19224
12.5 -0.20857
12.55 -0.21962
12.6 -0.23479
12.65 -0.25026
12.7 -0.26614
12.75 -0.28234
12.8 -0.29677
12.85 -0.30551
12.9 -0.31728
12.95 -0.32699
13 -0.33308
13.05 -0.34023
13.1 -0.34778
13.15 -0.35303
13.2 -0.35429
13.25 -0.35494
13.3 -0.35263
13.35 -0.34929
13.4 -0.34447
13.45 -0.34345
13.5 -0.34168
13.55 -0.34017
13.6 -0.3467
13.65 -0.35627
13.7 -0.36268
13.75 -0.36469
13.8 -0.36593
13.85 -0.36281
13.9 -0.36291
13.95 -0.36556
14 -0.36404
14.05 -0.36623
14.1 -0.36527
14.15 -0.36691
14.2 -0.36675
14.25 -0.36382
14.3 -0.36157
14.35 -0.35642
14.4 -0.35254
14.45 -0.34991
14.5 -0.35037
14.55 -0.34822
14.6 -0.34089
14.65 -0.339
14.7 -0.33595
14.75 -0.33551
14.8 -0.33185
14.85 -0.33012
14.9 -0.32501
14.95 -0.32177
15 -0.32158
15.05 -0.31521
15.1 -0.30406
15.15 -0.29156
15.2 -0.28484
15.25 -0.28307
15.3 -0.27901
15.35 -0.27481
15.4 -0.27501
15.45 -0.26919
15.5 -0.26352
15.55 -0.26304
15.6 -0.25975
15.65 -0.26051
15.7 -0.2628
15.75 -0.26299
15.8 -0.25717
15.85 -0.24618
15.9 -0.23794
15.95 -0.22652
16 -0.21883
16.05 -0.21488
16.1 -0.20979
16.15 -0.20555
16.2 -0.20177
16.25 -0.19573
16.3 -0.19185
16.35 -0.18499
16.4 -0.177
16.45 -0.16965
16.5 -0.17082
16.55 -0.176
16.6 -0.18332
16.65 -0.18473
16.7 -0.18117
16.75 -0.18017
16.8 -0.17589
16.85 -0.17522
16.9 -0.17124
16.95 -0.16778
17 -0.16409
17.05 -0.15906
17.1 -0.15768
17.15 -0.15334
17.2 -0.15246
17.25 -0.15418
17.3 -0.15321
17.35 -0.14995
17.4 -0.14513
17.45 -0.13739
17.5 -0.13639
17.55 -0.13525
17.6 -0.13438
17.65 -0.13345
17.7 -0.13582
17.75 -0.13611
17.8 -0.13339
17.85 -0.12692
17.9 -0.12011
17.95 -0.11427
18 -0.11423
18.05 -0.11757
18.1 -0.1163
18.15 -0.11279
18.2 -0.11066
18.25 -0.10761
18.3 -0.1017
18.35 -0.09653
18.4 -0.09788
18.45 -0.10153
18.5 -0.10123
18.55 -0.10213
18.6 -0.10631
18.65 -0.10894
18.7 -0.10525
18.75 -0.10651
18.8 -0.10981
18.85 -0.10838
18.9 -0.10867
18.95 -0.10576
19 -0.10498
19.05 -0.10625
19.1 -0.10334
19.15 -0.10354
19.2 -0.0992
19.25 -0.09316
19.3 -0.09028
19.35 -0.08425
19.4 -0.08176
19.45 -0.0827
19.5 -0.08176
19.55 -0.07686
19.6 -0.07025
19.65 -0.06858
19.7 -0.06957
19.75 -0.0745
19.8 -0.07862
19.85 -0.08159
19.9 -0.08112
19.95 -0.07528
20 -0.06696
20.05 -0.06181
20.1 -0.05561
20.15 -0.05394
20.2 -0.04874
20.25 -0.05058
20.3 -0.05333
20.35 -0.058
20.4 -0.06217
20.45 -0.06037
20.5 -0.06082
20.55 -0.05912
20.6 -0.06085
20.65 -0.05671
20.7 -0.05118
20.75 -0.04695
20.8 -0.04313
20.85 -0.04336
20.9 -0.04561
20.95 -0.04712
21 -0.04517
21.05 -0.04746
21.1 -0.0508
21.15 -0.05202
21.2 -0.05449
21.25 -0.05711
21.3 -0.05403
21.35 -0.0477
21.4 -0.04078
21.45 -0.03531
21.5 -0.02927
21.55 -0.02265
21.6 -0.02278
21.65 -0.02231
21.7 -0.02173
21.75 -0.02518
21.8 -0.02696
21.85 -0.02782
21.9 -0.03267
21.95 -0.03214
22 -0.028
22.05 -0.02305
22.1 -0.0189
22.15 -0.02154
22.2 -0.02227
22.25 -0.02033
22.3 -0.01787
22.35 -0.01677
22.4 -0.01354
22.45 -0.01421
22.5 -0.01253
22.55 -0.01513
22.6 -0.01946
22.65 -0.02031
22.7 -0.02503
22.75 -0.02413
22.8 -0.02062
22.85 -0.01942
22.9 -0.01647
22.95 -0.01169
23 -0.01381
23.05 -0.01184
23.1 -0.01271
23.15 -0.01402
23.2 -0.02027
23.25 -0.02604
23.3 -0.02914
23.35 -0.03172
23.4 -0.02917
23.45 -0.0236
23.5 -0.02208
23.55 -0.0224
23.6 -0.01937
23.65 -0.01792
23.7 -0.01528
23.75 -0.01363
23.8 -0.01317
23.85 -0.01441
23.9 -0.0177
23.95 -0.02377
24 -0.02774
24.05 -0.03386
24.1 -0.03916
24.15 -0.04024
24.2 -0.03682
24.25 -0.02996
24.3 -0.02023
24.35 -0.01478
24.4 -0.01319
24.45 -0.00819
24.5 -0.00455
24.55 -0.00327
24.6 -0.00379
24.65 -0.00359
24.7 -0.00061
24.75 -0.00131
24.8 0.00009
24.85 -0.00442
24.9 -0.00433
24.95 -0.0096
25 -0.00957
25.05 -0.01454
25.1 -0.01512
25.15 -0.0129
25.2 -0.01024
25.25 -0.00635
25.3 -0.0084
25.35 -0.00943
25.4 -0.00915
25.45 -0.01199
25.5 -0.01357
25.55 -0.01534
25.6 -0.02073
25.65 -0.0209
25.7 -0.01813
25.75 -0.01267
25.8 -0.01324
25.85 -0.00965
25.9 -0.00544
25.95 -0.00098
26 0.00075
26.05 -0.00139
26.1 0.00014
26.15 0.00124
26.2 0.00116
26.25 0.00264
26.3 0.00212
26.35 0.00272
26.4 0.00342
26.45 0.00571
26.5 0.0062
26.55 0.00243
26.6 -0.00275
26.65 -0.00571
26.7 -0.00932
26.75 -0.01189
26.8 -0.01708
26.85 -0.02245
26.9 -0.02489
26.95 -0.02906
27 -0.03427
27.05 -0.03517
27.1 -0.03185
27.15 -0.03022
27.2 -0.02999
27.25 -0.03044
27.3 -0.02669
27.35 -0.02551
27.4 -0.02524
27.45 -0.02442
27.5 -0.02316
27.55 -0.02052
27.6 -0.0147
27.65 -0.00808
27.7 -0.00451
27.75 -0.00274
27.8 -0.00212
27.85 0.0006
27.9 -0.00222
27.95 -0.00152
28 -0.00586
28.05 -0.00867
28.1 -0.01459
28.15 -0.02005
28.2 -0.02231
28.25 -0.02647
28.3 -0.02896
28.35 -0.02611
28.4 -0.02432
28.45 -0.02391
28.5 -0.02322
28.55 -0.02002
28.6 -0.01886
28.65 -0.01708
28.7 -0.01111
28.75 -0.00949
28.8 -0.00432
28.85 -0.00294
28.9 -0.00274
28.95 -0.00601
29 -0.0098
29.05 -0.01362
29.1 -0.01736
29.15 -0.02151
29.2 -0.02694
29.25 -0.02888
29.3 -0.02878
29.35 -0.0223
29.4 -0.01823
29.45 -0.01691
29.5 -0.01921
29.55 -0.01882
29.6 -0.01529
29.65 -0.01449
29.7 -0.01518
29.75 -0.01126
29.8 -0.01176
29.85 -0.00733
29.9 -0.00741
29.95 -0.0073
30 -0.0046
30.05 -0.00262
30.1 -0.0001
30.15 0.00097
30.2 -0.00214
30.25 -0.00685
30.3 -0.01149
30.35 -0.01508
30.4 -0.01594
30.45 -0.01885
30.5 -0.02271
30.55 -0.02242
30.6 -0.02532
30.65 -0.02799
30.7 -0.03183
30.75 -0.03352
30.8 -0.02893
30.85 -0.02732
30.9 -0.02785
30.95 -0.02455
31 -0.0218
31.05 -0.0171
31.1 -0.01118
31.15 -0.01152
31.2 -0.01576
31.25 -0.0173
31.3 -0.01748
31.35 -0.01946
31.4 -0.02365
31.45 -0.02961
31.5 -0.02883
31.55 -0.02657
31.6 -0.02703
31.65 -0.02162
31.7 -0.01861
31.75 -0.01548
31.8 -0.01347
31.85 -0.00662
31.9 -0.0001
31.95 0.005
32 0.00897
32.05 0.00888
32.1 0.00591
32.15 0.007
32.2 0.00536
32.25 0.00342
32.3 0.00027
32.35 -0.00442
32.4 -0.00551
32.45 -0.0001
32.5 0.00027
32.55 0.00025
32.6 0.00132
32.65 0.00096
32.7 0.00468
32.75 0.00481
32.8 0.00526
32.85 0.00666
32.9 0.00844
32.95 0.01266
33 0.01741
33.05 0.01678
33.1 0.01872
33.15 0.02215
33.2 0.02584
33.25 0.02379
33.3 0.02075
33.35 0.01768
33.4 0.01502
33.45 0.0117
33.5 0.01004
33.55 0.0053
33.6 0.00487
33.65 0.005
33.7 0.01066
33.75 0.01802
33.8 0.02412
33.85 0.02534
33.9 0.02992
33.95 0.02918
34 0.02792
34.05 0.02428
34.1 0.0173
34.15 0.01145
34.2 0.00352
34.25 -0.00151
34.3 -0.00124
34.35 0.00432
34.4 0.00968
34.45 0.01464
34.5 0.01787
34.55 0.01576
34.6 0.01451
34.65 0.0116
34.7 0.01
34.75 0.01267
34.8 0.01429
34.85 0.01832
34.9 0.02359
34.95 0.02225
35 0.01958
35.05 0.01707
35.1 0.01232
35.15 0.00524
35.2 0.00126
35.25 -0.00243
35.3 -0.0038
35.35 -0.0047
35.4 -0.00468
35.45 -0.00347
35.5 -0.00441
35.55 -0.00812
35.6 -0.00695
35.65 -0.0075
35.7 -0.00353
35.75 -0.00061
35.8 0.00011
35.85 0.00041
35.9 -0.00143
35.95 -0.00363
36 -0.00641
36.05 -0.00922
36.1 -0.00813
36.15 -0.0092
36.2 -0.00503
36.25 0.00212
36.3 0.01108
36.35 0.01656
36.4 0.0219
36.45 0.02702
36.5 0.02364
36.55 0.01708
36.6 0.00987
36.65 0.00217
36.7 -0.00243
36.75 -0.00853
36.8 -0.01038
36.85 -0.00865
36.9 -0.00488
36.95 -0.00106
37 0.00033
37.05 0.00261
37.1 0.00573
37.15 0.01013
37.2 0.00951
37.25 0.00776
37.3 0.00819
37.35 0.01228
37.4 0.01438
37.45 0.01909
37.5 0.0187
37.55 0.02035
37.6 0.02092
37.65 0.02313
37.7 0.01948
37.75 0.01391
37.8 0.01161
37.85 0.01084
37.9 0.01004
37.95 0.01188
38 0.00858
38.05 0.00808
38.1 0.01002
38.15 0.01397
38.2 0.01469
38.25 0.01367
38.3 0.00785
38.35 0.00682
38.4 0.00492
38.45 0.00406
38.5 0.00251
38.55 -0.00303
38.6 -0.00306
38.65 -0.00483
38.7 -0.0061
38.75 -0.01085
38.8 -0.01738
38.85 -0.02256
38.9 -0.02191
38.95 -0.02326
39 -0.02156
39.05 -0.02008
39.1 -0.01829
39.15 -0.01545
39.2 -0.01565
39.25 -0.01553
39.3 -0.01216
39.35 -0.00928
39.4 -0.00754
39.45 -0.00779
39.5 -0.00884
39.55 -0.01121
39.6 -0.013
39.65 -0.01178
39.7 -0.01339
39.75 -0.0154
39.8 -0.01514
39.85 -0.01829
39.9 -0.01666
39.95 -0.01689
40 -0.01947
40.05 -0.01992
40.1 -0.01475
40.15 -0.00689
40.2 -0.00306
40.25 -0.00146
40.3 -0.00297
40.35 -0.00725
40.4 -0.01298
40.45 -0.01402
40.5 -0.01071
40.55 -0.00711
40.6 -0.00716
40.65 -0.01015
40.7 -0.00772
40.75 -0.00533
40.8 -0.0058
40.85 -0.00469
40.9 0.00082
40.95 0.00346
41 0.00585
41.05 0.00575
41.1 0.0009
41.15 0.00112
41.2 0.00232
41.25 0.00685
41.3 0.01322
41.35 0.01235
41.4 0.01433
41.45 0.00986
41.5 0.01062
41.55 0.00697
41.6 0.00093
41.65 -0.00051
41.7 -0.00551
41.75 -0.01235
41.8 -0.01567
41.85 -0.01693
41.9 -0.02068
41.95 -0.01696
42 -0.0149
42.05 -0.01044
42.1 -0.00427
42.15 0.00218
42.2 0.00195
42.25 0.00215
42.3 0.00669
42.35 0.0059
42.4 0.00926
42.45 0.01196
42.5 0.01684
42.55 0.01449
42.6 0.00806
42.65 -0.0004
42.7 -0.00098
42.75 -0.0019
42.8 -0.0029
42.85 0.00023
42.9 0.0016
42.95 -0.00167
43 -0.0032
43.05 -0.00182
43.1 -0.00279
43.15 -0.001
43.2 0.00135
43.25 0.00392
43.3 0.00309
43.35 0.0066
43.4 0.00517
43.45 0.0015
43.5 -0.0048
43.55 -0.00441
43.6 -0.00144
43.65 0.00346
43.7 0.004
43.75 -0.00044
43.8 -0.00257
43.85 0.00023
43.9 -0.00126
43.95 -0.00295
44 -0.00346
44.05 -0.0071
44.1 -0.01191
44.15 -0.01467
44.2 -0.01359
44.25 -0.01568
44.3 -0.01663
44.35 -0.0156
44.4 -0.01414
44.45 -0.01278
44.5 -0.01224
44.55 -0.01055
44.6 -0.00939
44.65 -0.00347
44.7 -0.00032
44.75 0.00573
44.8 0.0089
44.85 0.00666
44.9 0.00667
44.95 0.00556
45 0.00322
45.05 0.00608
45.1 0.00503
45.15 0.0025
45.2 0.00295
45.25 -0.001
45.3 -0.00416
45.35 -0.00266
45.4 -0.00145
45.45 0.00024
45.5 0.00253
45.55 0.00191
45.6 0.00189
45.65 -0.00258
45.7 -0.00383
45.75 -0.00556
45.8 -0.01004
45.85 -0.014
45.9 -0.01766
45.95 -0.0161
46 -0.00954
46.05 -0.00093
46.1 0.00195
46.15 0.00845
46.2 0.01254
46.25 0.01813
46.3 0.02375
46.35 0.02759
46.4 0.03061
46.45 0.03468
46.5 0.0302
46.55 0.02384
46.6 0.01434
46.65 0.01148
46.7 0.01221
46.75 0.01163
46.8 0.00641
46.85 0.00412
46.9 0.00574
46.95 0.00989
47 0.01567
47.05 0.01658
47.1 0.01819
47.15 0.01929
47.2 0.01999
47.25 0.01602
47.3 0.00974
47.35 0.00791
47.4 0.00492
47.45 0.00093
47.5 -0.00556
47.55 -0.00999
47.6 -0.00768
47.65 -0.00725
47.7 -0.00995
47.75 -0.01212
47.8 -0.00808
47.85 -0.00669
47.9 -0.00959
47.95 -0.00881
48 -0.01074
48.05 -0.00768
48.1 -0.00422
48.15 0.00065
48.2 0.00378
48.25 0.00614
48.3 0.00443
48.35 -0.00144
48.4 -0.00144
48.45 0.00247
48.5 0.00238
48.55 -0.00223
48.6 -0.00282
48.65 -0.0036
48.7 -0.00261
48.75 -0.00217
48.8 0.00056
48.85 -0.00197
48.9 -0.00323
48.95 -0.00406
49 -0.00226
49.05 -0.00406
49.1 -0.0011
49.15 0.00145
49.2 0.0041
49.25 0.00106
49.3 0.00217
49.35 -0.00086
49.4 -0.00271
49.45 -0.00135
49.5 -0.00436
49.55 -0.0051
49.6 -0.00875
49.65 -0.01211
49.7 -0.01316
49.75 -0.01304
49.8 -0.0089
49.85 -0.00639
49.9 -0.00319
49.95 -0.00323
50 -0.00482
50.05 -0.00877
50.1 -0.00953
50.15 -0.0138
50.2 -0.01137
50.25 -0.01129
50.3 -0.00949
50.35 -0.00551
50.4 -0.00032
50.45 0.00029
50.5 -0.00066
50.55 -0.00464
50.6 -0.00318
50.65 -0.00061
50.7 0.00487
50.75 0.0105
50.8 0.01231
50.85 0.00782
50.9 0.00637
50.95 0.00766
51 0.01076
51.05 0.00973
51.1 0.0063
51.15 0.00097
51.2 0.00184
51.25 0.00117
51.3 -0.00182
51.35 -0.00073
51.4 0.00421
51.45 0.00818
51.5 0.00785
51.55 0.011
51.6 0.01319
51.65 0.00925
51.7 0.00376
51.75 0.0007
51.8 -0.00146
51.85 -0.0017
51.9 -0.00373
51.95 -0.00667
52 -0.01003
52.05 -0.00842
52.1 -0.00955
52.15 -0.00599
52.2 -0.00266
52.25 0.00108
52.3 0.00757
52.35 0.01312
52.4 0.01094
52.45 0.00419
52.5 -0.00221
52.55 -0.00342
52.6 0.00028
52.65 -0.00023
52.7 0.00216
52.75 0.0052
52.8 0.01027
52.85 0.01193
52.9 0.01058
52.95 0.00407
53 -0.00293
53.05 -0.00523
53.1 -0.00962
53.15 -0.013
53.2 -0.01167
53.25 -0.01128
53.3 -0.00579
53.35 -0.00581
53.4 -0.00568
53.45 -0.0059
53.5 -0.00985
53.55 -0.00975
53.6 -0.00937
53.65 -0.00429
53.7 -0.0005
53.75 0.00027
53.8 0.00281
53.85 0.00389
53.9 0.00122
53.95 0.0025
54 0.00252
54.05 0.00607
54.1 0.00415
54.15 0.00203
54.2 -0.00406
54.25 -0.00942
54.3 -0.01311
54.35 -0.01094
54.4 -0.0109
54.45 -0.01377
54.5 -0.01343
54.55 -0.01609
54.6 -0.01765
54.65 -0.01873
54.7 -0.02088
54.75 -0.02052
54.8 -0.01549
54.85 -0.01065
54.9 -0.00984
54.95 -0.00469
55 -0.00385
55.05 -0.00599
55.1 -0.00996
55.15 -0.01574
55.2 -0.01751
55.25 -0.02075
55.3 -0.0219
55.35 -0.01652
55.4 -0.01525
55.45 -0.0157
55.5 -0.0131
55.55 -0.01456
55.6 -0.01746
55.65 -0.01437
55.7 -0.01188
55.75 -0.01145
55.8 -0.00582
55.85 -0.00515
55.9 -0.00308
55.95 0.00337
56 0.00422
56.05 0.00474
56.1 0.00117
56.15 0.0028
56.2 0.00474
56.25 0.00558
56.3 0.00668
56.35 0.00698
56.4 0.01089
56.45 0.01636
56.5 0.01866
56.55 0.01835
56.6 0.01927
56.65 0.023
56.7 0.02535
56.75 0.02391
56.8 0.01968
56.85 0.01235
56.9 0.00497
56.95 0.00286
57 -0.00283
57.05 -0.00536
57.1 -0.007
57.15 -0.00422
57.2 -0.0026
57.25 -0.00513
57.3 -0.00652
57.35 -0.00873
57.4 -0.00719
57.45 -0.00631
57.5 -0.00939
57.55 -0.00975
57.6 -0.01233
57.65 -0.00988
57.7 -0.00473
57.75 -0.00072
57.8 -0.00096
57.85 0.00275
57.9 0.00642
57.95 0.00764
58 0.0072
58.05 0.01034
58.1 0.01437
58.15 0.01415
58.2 0.01697
58.25 0.02134
58.3 0.02247
58.35 0.01976
58.4 0.01693
58.45 0.01416
58.5 0.0107
58.55 0.00879
58.6 0.00873
58.65 0.00387
58.7 -0.00413
58.75 -0.00509
58.8 -0.00531
58.85 -0.00056
58.9 -0.00096
58.95 -0.00373
59 -0.0019
59.05 -0.00225
59.1 -0.00608
59.15 -0.00636
59.2 -0.0063
59.25 -0.0103
59.3 -0.0132
59.35 -0.01103
59.4 -0.01166
59.45 -0.00835
59.5 -0.00448
59.55 -0.0032
59.6 -0.00499
59.65 -0.00251
59.7 -0.00487
59.75 -0.00455
59.8 -0.00784
59.85 -0.01065
59.9 -0.01181
59.95 -0.0094
60 -0.00718
60.05 -0.00479
60.1 0.00178
60.15 0.00934
60.2 0.01145
60.25 0.0079
60.3 0.00659
60.35 0.00507
60.4 0.00045
60.45 -0.00607
60.5 -0.01065
60.55 -0.01596
60.6 -0.01404
60.65 -0.01428
60.7 -0.01116
60.75 -0.01011
60.8 -0.01076
60.85 -0.00685
60.9 -0.00639
60.95 -0.00792
61 -0.00916
61.05 -0.0071
61.1 -0.0022
61.15 0.00025
61.2 0.00011
61.25 -0.00042
61.3 0.00154
61.35 0.00535
61.4 0.00712
61.45 0.00958
61.5 0.01381
61.55 0.01833
61.6 0.02381
61.65 0.02912
61.7 0.03261
61.75 0.02973
61.8 0.02687
61.85 0.02282
61.9 0.01699
61.95 0.00967
62 0.0008
62.05 -0.00314
62.1 -0.00698
62.15 -0.00583
62.2 -0.00483
62.25 -0.00799
62.3 -0.00943
62.35 -0.00543
62.4 -0.00663
62.45 -0.01035
62.5 -0.01127
62.55 -0.00712
62.6 -0.00435
62.65 -0.00108
62.7 -0.00286
62.75 -0.00448
62.8 -0.00175
62.85 -0.00379
62.9 -0.00604
62.95 -0.01038
63 -0.00963
63.05 -0.00886
63.1 -0.01032
63.15 -0.01065
63.2 -0.0103
63.25 -0.00591
63.3 -0.0058
63.35 -0.00593
63.4 -0.0082
63.45 -0.00798
63.5 -0.00453
63.55 -0.00049
63.6 0.00429
63.65 0.00582
63.7 0.00572
63.75 0.00443
63.8 0.00182
63.85 -0.00321
63.9 -0.00959
63.95 -0.01019
64 -0.00739
64.05 -0.00771
64.1 -0.01001
64.15 -0.0147
64.2 -0.0162
64.25 -0.01569
64.3 -0.01393
64.35 -0.01002
64.4 -0.00946
64.45 -0.01174
64.5 -0.01259
64.55 -0.01273
64.6 -0.00715
64.65 -0.00412
64.7 -0.00418
64.75 -0.00082
64.8 0.00381
64.85 0.0028
64.9 -0.00074
64.95 0.00178
65 0.00731
65.05 0.01393
65.1 0.01792
65.15 0.02326
65.2 0.0233
65.25 0.01728
65.3 0.01577
65.35 0.01808
65.4 0.02088
65.45 0.02391
65.5 0.02733
65.55 0.02763
65.6 0.02536
65.65 0.02373
65.7 0.01632
65.75 0.00938
65.8 0.00646
65.85 0.00657
65.9 0.00343
65.95 0.00267
66 -0.00212
66.05 -0.00661
66.1 -0.01042
66.15 -0.00832
66.2 -0.00948
66.25 -0.00578
66.3 0.00169
66.35 0.0099
66.4 0.01205
66.45 0.00948
66.5 0.01131
66.55 0.01244
66.6 0.01397
66.65 0.01362
66.7 0.01662
66.75 0.01293
66.8 0.01012
66.85 0.00398
66.9 -0.0012
66.95 -0.00258
67 -0.00424
67.05 -0.00402
67.1 -0.00314
67.15 -0.00545
67.2 -0.01014
67.25 -0.01116
67.3 -0.01317
67.35 -0.0159
67.4 -0.01657
67.45 -0.01612
67.5 -0.01241
67.55 -0.00718
67.6 -0.00299
67.65 0.00372
67.7 0.01076
67.75 0.01174
67.8 0.00722
67.85 -0.00057
67.9 -0.00464
67.95 -0.00285
68 -0.00284
68.05 -0.00416
68.1 -0.00627
68.15 -0.00614
68.2 -0.0095
68.25 -0.00819
68.3 -0.00612
68.35 -0.0051
68.4 -0.0033
68.45 -0.00596
68.5 -0.01019
68.55 -0.01547
68.6 -0.01398
68.65 -0.01034
68.7 -0.00607
68.75 -0.00342
68.8 0.00034
68.85 0.00289
68.9 0.00502
68.95 0.00399
69 0.00123
69.05 -0.00406
69.1 -0.0099
69.15 -0.01661
69.2 -0.0183
69.25 -0.01879
69.3 -0.01717
69.35 -0.01761
69.4 -0.01739
69.45 -0.01868
69.5 -0.01652
69.55 -0.01401
69.6 -0.01342
69.65 -0.01561
69.7 -0.01377
69.75 -0.01085
69.8 -0.00453
69.85 0.0047
69.9 0.00815
69.95 0.01409
70 0.01541
70.05 0.01819
70.1 0.02259
70.15 0.02421
70.2 0.02018
70.25 0.01308
70.3 0.0067
70.35 0.00463
70.4 0.00052
70.45 0.00218
70.5 0.00432
70.55 0.0023
70.6 0.00155
70.65 0.0005
70.7 -0.00355
70.75 -0.00141
70.8 0.00022
70.85 0.0058
70.9 0.01082
70.95 0.01624
71 0.0199
71.05 0.01897
71.1 0.01562
71.15 0.01567
71.2 0.01461
71.25 0.01257
71.3 0.00677
71.35 -0.00037
71.4 -0.00646
71.45 -0.01146
71.5 -0.01217
71.55 -0.01124
71.6 -0.00917
71.65 -0.01166
71.7 -0.012
71.75 -0.00688
71.8 0.00049
71.85 0.00402
71.9 0.0093
71.95 0.01212
72 0.01614
72.05 0.0161
72.1 0.01796
72.15 0.02152
72.2 0.01827
72.25 0.01701
72.3 0.01359
72.35 0.0089
72.4 0.009
72.45 0.00545
72.5 0.00217
72.55 -0.00468
72.6 -0.01038
72.65 -0.01153
72.7 -0.00759
72.75 -0.0058
72.8 -0.00057
72.85 0.00355
72.9 0.00986
72.95 0.01605
73 0.01968
73.05 0.01801
73.1 0.01655
73.15 0.01532
73.2 0.01443
73.25 0.00779
73.3 0.0038
73.35 0.00482
73.4 0.00053
73.45 -0.0016
73.5 -0.00421
73.55 -0.00629
73.6 -0.01142
73.65 -0.01831
73.7 -0.0216
73.75 -0.0184
73.8 -0.01761
73.85 -0.01975
73.9 -0.02194
73.95 -0.0228
74 -0.01903
74.05 -0.01357
74.1 -0.00467
74.15 0.00541
74.2 0.015
74.25 0.01788
74.3 0.0199
74.35 0.0228
74.4 0.01865
74.45 0.01865
74.5 0.01341
74.55 0.01018
74.6 0.00491
74.65 -0.0027
74.7 -0.01181
74.75 -0.02051
74.8 -0.0203
74.85 -0.01961
74.9 -0.01687
74.95 -0.01839
75 -0.01454
75.05 -0.01019
75.1 -0.00329
75.15 -0.00108
75.2 -0.00151
75.25 -0.00373
75.3 -0.00251
75.35 0.00094
75.4 0.00618
75.45 0.00569
75.5 0.0085
75.55 0.01074
75.6 0.01522
75.65 0.01314
75.7 0.00698
75.75 -0.00185
75.8 -0.00661
75.85 -0.01352
75.9 -0.01982
75.95 -0.02348
76 -0.01994
76.05 -0.01511
76.1 -0.01263
76.15 -0.01085
76.2 -0.00435
76.25 0.00197
76.3 0.00823
76.35 0.00961
76.4 0.00704
76.45 0.00655
76.5 0.00775
76.55 0.00401
76.6 0.00554
76.65 0.00256
76.7 -0.00319
76.75 -0.00582
76.8 -0.00468
76.85 -0.00769
76.9 -0.00897
76.95 -0.00513
77 -0.00642
77.05 -0.00251
77.1 -0.004
77.15 -0.00823
77.2 -0.01029
77.25 -0.00802
77.3 -0.00832
77.35 -0.01074
77.4 -0.01578
77.45 -0.01472
77.5 -0.00898
77.55 -0.00465
77.6 0.00288
77.65 0.00345
77.7 0.00744
77.75 0.00922
77.8 0.01292
77.85 0.01445
77.9 0.01036
77.95 0.00704
78 0.0034
78.05 -0.00168
78.1 -0.00262
78.15 -0.00472
78.2 -0.00332
78.25 0.00165
78.3 0.00393
78.35 0.00269
78.4 0.001
78.45 0.0012
78.5 0.00441
78.55 0.00143
78.6 0.0019
78.65 0.00012
78.7 0.00276
78.75 -0.00005
78.8 -0.00642
78.85 -0.0057
78.9 -0.00668
78.95 -0.01125
79 -0.01501
79.05 -0.01999
79.1 -0.02005
79.15 -0.02045
79.2 -0.02343
79.25 -0.02001
79.3 -0.01567
79.35 -0.01606
79.4 -0.01356
79.45 -0.00634
79.5 -0.0042
79.55 -0.00205
79.6 0.00065
79.65 0.00178
79.7 0.00137
79.75 -0.00314
79.8 -0.00929
79.85 -0.01137
79.9 -0.01208
79.95 -0.01081
80 -0.00943
80.05 -0.00597
80.1 -0.00543
80.15 -0.00191
80.2 0.00268
80.25 0.00807
80.3 0.00917
80.35 0.00676
80.4 0.00217
80.45 0.00158
80.5 -0.00213
80.55 -0.00269
80.6 -0.00454
80.65 -0.00455
80.7 0.00019
80.75 0.00106
80.8 -0.00171
80.85 -0.00742
80.9 -0.00951
80.95 -0.01095
81 -0.01233
81.05 -0.00866
81.1 -0.00212
81.15 0.00241
81.2 0.00423
81.25 0.00199
81.3 0.00036
81.35 -0.00429
81.4 -0.00929
81.45 -0.01458
81.5 -0.01854
81.55 -0.02341
81.6 -0.02338
81.65 -0.02235
81.7 -0.0172
81.75 -0.0153
81.8 -0.0112
81.85 -0.00378
81.9 -0.00206
81.95 -0.00088
82 0.00336
82.05 0.00351
82.1 -0.0003
82.15 -0.00191
82.2 -0.00605
82.25 -0.01076
82.3 -0.00947
82.35 -0.00547
82.4 0.00077
82.45 0.00175
82.5 -0.00107
82.55 0.00166
82.6 -0.00063
82.65 -0.0041
82.7 -0.00335
82.75 -0.00633
82.8 -0.01012
82.85 -0.01162
82.9 -0.01529
82.95 -0.01753
83 -0.01398
83.05 -0.00967
83.1 -0.00243
83.15 0.00209
83.2 0.00217
83.25 -0.00143
83.3 -0.00306
83.35 -0.00195
83.4 0.00191
83.45 0.00443
83.5 0.01014
83.55 0.01131
83.6 0.01369
83.65 0.016
83.7 0.0186
83.75 0.02017
83.8 0.0237
83.85 0.02244
83.9 0.02233
83.95 0.01867
84 0.01404
84.05 0.00806
84.1 -0.00052
84.15 -0.00187
84.2 -0.00632
84.25 -0.00916
84.3 -0.01063
84.35 -0.00869
84.4 -0.00971
84.45 -0.0089
84.5 -0.00411
84.55 -0.00175
84.6 0.00078
84.65 0.00207
84.7 0.00299
84.75 0.00523
84.8 0.0111
84.85 0.01881
84.9 0.02263
84.95 0.02623
85 0.0271
85.05 0.02463
85.1 0.01681
85.15 0.00621
85.2 -0.00281
85.25 -0.01101
85.3 -0.01889
85.35 -0.02029
85.4 -0.0149
85.45 -0.01252
85.5 -0.00619
85.55 0.00054
85.6 0.00752
85.65 0.01135
85.7 0.01289
85.75 0.01453
85.8 0.01219
85.85 0.00763
85.9 0.0006
85.95 -0.00523
86 -0.01253
86.05 -0.01243
86.1 -0.0068
86.15 -0.00134
86.2 0.00357
86.25 0.00595
86.3 0.01039
86.35 0.01321
86.4 0.01665
86.45 0.01503
86.5 0.015
86.55 0.01051
86.6 0.00816
86.65 0.00538
86.7 0.00303
86.75 0.00603
86.8 0.00316
86.85 0.00161
86.9 0.00424
86.95 0.00229
87 0.00468
87.05 0.00985
87.1 0.01331
87.15 0.0186
87.2 0.01899
87.25 0.01706
87.3 0.01404
87.35 0.00763
87.4 0.00325
87.45 0.00224
87.5 -0.00019
87.55 -0.00359
87.6 -0.00472
87.65 -0.00293
87.7 0.00172
87.75 0.0056
87.8 0.00918
87.85 0.00907
87.9 0.01209
87.95 0.01125
88 0.01091
88.05 0.01391
88.1 0.01125
88.15 0.00564
88.2 0.00611
88.25 0.00462
88.3 0.00378
88.35 0.00731
88.4 0.00842
88.45 0.0052
88.5 -0.00102
88.55 -0.00297
88.6 -0.00682
88.65 -0.00455
88.7 -0.00607
88.75 -0.00741
88.8 -0.01094
88.85 -0.01458
88.9 -0.014
88.95 -0.01197
89 -0.00639
89.05 -0.00118
89.1 -0.00179
89.15 -0.00393
89.2 -0.00154
89.25 0.00287
89.3 0.0054
89.35 0.006
89.4 0.00126
89.45 0.00072
89.5 -0.00011
89.55 -0.00106
89.6 0.00203
89.65 -0.00067
89.7 -0.0025
89.75 -0.00024
89.8 0.00124
89.85 0.00281
89.9 0.0036
89.95 0.00832
90 0.00799
90.05 0.00713
90.1 0.00905
90.15 0.01215
90.2 0.00888
90.25 0.00824
90.3 0.00882
90.35 0.00907
90.4 0.00697
90.45 0.00663
90.5 0.0083
90.55 0.00733
90.6 0.00316
90.65 0.00199
90.7 -0.00373
90.75 -0.00385
90.8 -0.00677
90.85 -0.01114
90.9 -0.0097
90.95 -0.00763
91 -0.00184
91.05 -0.00197
91.1 -0.00138
91.15 -0.00508
91.2 -0.00991
91.25 -0.01092
91.3 -0.00736
91.35 -0.00046
91.4 0.00481
91.45 0.00768
91.5 0.00711
91.55 0.00355
91.6 0.00047
91.65 -0.00075
91.7 -0.00305
91.75 -0.00276
91.8 -0.00418
91.85 -0.00933
91.9 -0.01206
91.95 -0.01067
92 -0.00551
92.05 -0.00262
92.1 0.00039
92.15 0.00212
92.2 0.00698
92.25 0.01289
92.3 0.01108
92.35 0.01303
92.4 0.01692
92.45 0.01826
92.5 0.01848
92.55 0.01946
92.6 0.01756
92.65 0.01319
92.7 0.00956
92.75 0.00315
92.8 0.00103
92.85 -0.00137
92.9 -0
92.95 -0.00337
93 -0.00781
93.05 -0.0088
93.1 -0.01337
93.15 -0.01672
93.2 -0.01849
93.25 -0.01496
93.3 -0.01266
93.35 -0.01234
93.4 -0.00834
93.45 -0.00487
93.5 -0.00344
93.55 -0.00635
93.6 -0.00901
93.65 -0.00753
93.7 -0.00177
93.75 0.00396
93.8 0.00634
93.85 0.0099
93.9 0.00763
93.95 0.00802
94 0.01113
94.05 0.01287
94.1 0.00824
94.15 0.00544
94.2 -0.00101
94.25 -0.00298
94.3 -0.00857
94.35 -0.01209
94.4 -0.00908
94.45 -0.00554
94.5 -0.0019
94.55 0.00208
94.6 0.0011
94.65 0.00268
94.7 -0.00115
94.75 0.00062
94.8 -0.00001
94.85 -0.00356
94.9 -0.00247
94.95 -0.00592
95 -0.0041
95.05 -0.00639
95.1 -0.00642
95.15 -0.00172
95.2 0.00024
95.25 0.00182
95.3 0.00173
95.35 0.00125
95.4 0.00379
95.45 0.00601
95.5 0.00495
95.55 -0.00091
95.6 -0.00162
95.65 0.00005
95.7 -0.00181
95.75 -0.00109
95.8 -0.00402
95.85 -0.00839
95.9 -0.01277
95.95 -0.01818
96 -0.02328
96.05 -0.02366
96.1 -0.02033
96.15 -0.01742
96.2 -0.01629
96.25 -0.01702
96.3 -0.01313
96.35 -0.01127
96.4 -0.00831
96.45 -0.00807
96.5 -0.00762
96.55 -0.01067
96.6 -0.01474
96.65 -0.0137
96.7 -0.01023
96.75 -0.00669
96.8 -0.00059
96.85 0.00059
96.9 0.00116
96.95 0.00414
97 0.00397
97.05 -0.0003
97.1 -0.00727
97.15 -0.01543
97.2 -0.02312
97.25 -0.03012
97.3 -0.03103
97.35 -0.02713
97.4 -0.02587
97.45 -0.02496
97.5 -0.01888
97.55 -0.01636
97.6 -0.01102
97.65 -0.00445
97.7 -0.00019
97.75 0.00438
97.8 0.00678
97.85 0.00908
97.9 0.01376
97.95 0.01455
98 0.00961
98.05 0.00205
98.1 0.0016
98.15 0.00112
98.2 0.00144
98.25 -0.00107
98.3 -0.00119
98.35 -0.00124
98.4 0.00045
98.45 -0.00184
98.5 0.00146
98.55 0.00257
98.6 0.00046
98.65 0.00141
98.7 0.00326
98.75 0.00532
98.8 0.00744
98.85 0.008
98.9 0.00838
98.95 0.00441
99 -0.00147
99.05 -0.00935
99.1 -0.01415
99.15 -0.01412
99.2 -0.01425
99.25 -0.01643
99.3 -0.01831
99.35 -0.01818
99.4 -0.01665
99.45 -0.01082
99.5 -0.00208
99.55 0.00784
99.6 0.01433
99.65 0.02095
99.7 0.02261
99.75 0.01801
99.8 0.01431
99.85 0.01203
99.9 0.01025
99.95 0.01305
