0 0
0.05 0.00582
0.1 0.01122
0.15 0.01672
0.2 0.02153
0.25 0.02474
0.3 0.02462
0.35 0.02993
0.4 0.03621
0.45 0.03994
0.5 0.04441
0.55 0.04394
0.6 0.04215
0.65 0.0404
0.7 0.0421
0.75 0.04718
0.8 0.04694
0.85 0.04845
0.9 0.04926
0.95 0.04591
1 0.04153
1.05 0.03585
1.1 0.0322
1.15 0.03104
1.2 0.02859
1.25 0.03011
1.3 0.02965
1.35 0.02865
1.4 0.03141
1.45 0.03362
1.5 0.03876
1.55 0.04248
1.6 0.04697
1.65 0.04453
1.7 0.0389
1.75 0.03362
1.8 0.03086
1.85 0.02863
1.9 0.02742
1.95 0.02437
2 0.02084
2.05 0.01697
2.1 0.01681
2.15 0.02025
2.2 0.02639
2.25 0.02852
2.3 0.03189
2.35 0.03662
2.4 0.04009
2.45 0.04269
2.5 0.04394
2.55 0.04448
2.6 0.03909
2.65 0.03223
2.7 0.02858
2.75 0.02467
2.8 0.02314
2.85 0.02264
2.9 0.02409
2.95 0.02183
3 0.02014
3.05 0.02249
3.1 0.02578
3.15 0.02695
3.2 0.02625
3.25 0.0285
3.3 0.03243
3.35 0.03293
3.4 0.03274
3.45 0.03016
3.5 0.02333
3.55 0.019
3.6 0.01525
3.65 0.01648
3.7 0.01804
3.75 0.01761
3.8 0.0205
3.85 0.01782
3.9 0.01817
3.95 0.01501
4 0.01113
4.05 0.00559
4.1 0.00149
4.15 0.00342
4.2 0.00234
4.25 0.0053
4.3 0.00762
4.35 0.00997
4.4 0.01194
4.45 0.01599
4.5 0.01865
4.55 0.01476
4.6 0.00805
4.65 0.00227
4.7 -0.00197
4.75 -0.00181
4.8 -0.00673
4.85 -0.00742
4.9 -0.00591
4.95 -0.00858
5 -0.01066
5.05 -0.01599
5.1 -0.02502
5.15 -0.03717
5.2 -0.04874
5.25 -0.05862
5.3 -0.06816
5.35 -0.07198
5.4 -0.07433
5.45 -0.07451
5.5 -0.07602
5.55 -0.07489
5.6 -0.07483
5.65 -0.07172
5.7 -0.06833
5.75 -0.06214
5.8 -0.05361
5.85 -0.04467
5.9 -0.03612
5.95 -0.02804
6 -0.02044
6.05 -0.00494
6.1 0.0143
6.15 0.03469
6.2 0.05709
6.25 0.07314
6.3 0.09152
6.35 0.11018
6.4 0.12781
6.45 0.14003
6.5 0.14397
6.55 0.14245
6.6 0.13739
6.65 0.12937
6.7 0.12329
6.75 0.11504
6.8 0.10921
6.85 0.1001
6.9 0.08772
6.95 0.0733
7 0.05984
7.05 0.0494
7.1 0.03658
7.15 0.02541
7.2 0.01429
7.25 0.00461
7.3 -0.00457
7.35 -0.01188
7.4 -0.01718
7.45 -0.01939
7.5 -0.02252
7.55 -0.02466
7.6 -0.02802
7.65 -0.03359
7.7 -0.03711
7.75 -0.04175
7.8 -0.04454
7.85 -0.03949
7.9 -0.03726
7.95 -0.03647
8 -0.03425
8.05 -0.0337
8.1 -0.0332
8.15 -0.03359
8.2 -0.03384
8.25 -0.02674
8.3 -0.01691
8.35 -0.00865
8.4 -0.00484
8.45 0.00205
8.5 0.00725
8.55 0.01259
8.6 0.01422
8.65 0.01767
8.7 0.02032
8.75 0.01732
8.8 0.01124
8.85 0.01106
8.9 0.00811
8.95 0.0057
9 0.00379
9.05 -0.0004
9.1 0.00016
9.15 -0.00163
9.2 0.00067
9.25 0.00414
9.3 0.00932
9.35 0.01481
9.4 0.02158
9.45 0.02762
9.5 0.03321
9.55 0.03193
9.6 0.03248
9.65 0.03319
9.7 0.02931
9.75 0.02352
9.8 0.01627
9.85 0.01377
9.9 0.01124
9.95 0.01187
10 0.01525
10.05 0.0129
10.1 0.01104
10.15 0.00548
10.2 0.0029
10.25 0.00479
10.3 0.00395
10.35 0.00126
10.4 -0.00184
10.45 -0.00008
10.5 -0.00132
10.55 -0.00417
10.6 -0.00469
10.65 -0.00468
10.7 -0.00675
10.75 -0.00812
10.8 -0.00969
10.85 -0.0103
10.9 -0.0098
10.95 -0.00727
11 -0.00835
11.05 -0.00637
11.1 -0.00484
11.15 0.00074
11.2 0.00756
11.25 0.01365
11.3 0.01791
11.35 0.0159
11.4 0.017
11.45 0.01491
11.5 0.01075
11.55 0.00994
11.6 0.00702
11.65 0.00247
11.7 0.00129
11.75 -0.00249
11.8 -0.00173
11.85 -0.00067
11.9 0.00087
11.95 0.0053
12 0.00885
12.05 0.00797
12.1 0.00668
12.15 0.00442
12.2 0.00215
12.25 0.00026
12.3 0.0022
12.35 0.00399
12.4 0.00859
12.45 0.00991
12.5 0.01282
12.55 0.01312
12.6 0.01532
12.65 0.01659
12.7 0.01224
12.75 0.00947
12.8 0.00674
12.85 0.00306
12.9 -0.00248
12.95 -0.00268
13 -0.00413
13.05 -0.00591
13.1 -0.00825
13.15 -0.00757
13.2 -0.00318
13.25 0.00171
13.3 0.00641
13.35 0.00946
13.4 0.00993
13.45 0.00724
13.5 0.0047
13.55 0.00132
13.6 -0.00364
13.65 -0.00792
13.7 -0.00906
13.75 -0.00753
13.8 -0.0077
13.85 -0.0037
13.9 -0.00005
13.95 0.00093
14 0.0041
14.05 0.00499
14.1 0.00706
14.15 0.0073
14.2 0.00618
14.25 0.00231
14.3 -0.00238
14.35 -0.00664
14.4 -0.01237
14.45 -0.01871
14.5 -0.01888
14.55 -0.01736
14.6 -0.0158
14.65 -0.0145
14.7 -0.01381
14.75 -0.01061
14.8 -0.01107
14.85 -0.00936
14.9 -0.01085
14.95 -0.01232
15 -0.01174
15.05 -0.01011
15.1 -0.01111
15.15 -0.01013
15.2 -0.01133
15.25 -0.01156
15.3 -0.00726
15.35 -0.00006
15.4 0.00685
15.45 0.00784
15.5 0.01085
15.55 0.00835
15.6 0.00893
15.65 0.00615
15.7 0.00073
15.75 -0.00325
15.8 -0.00713
15.85 -0.00847
15.9 -0.01261
15.95 -0.01684
16 -0.01441
16.05 -0.00819
16.1 -0.00113
16.15 0.00082
16.2 0.00483
16.25 0.00804
16.3 0.00636
16.35 0.00178
16.4 -0.00277
16.45 -0.0059
16.5 -0.00498
16.55 -0.00539
16.6 -0.0023
16.65 0.00228
16.7 0.00194
16.75 -0.00245
16.8 -0.00438
16.85 -0.0059
16.9 -0.00253
16.95 -0.00196
17 -0.00213
17.05 -0.00535
17.1 -0.00313
17.15 0.0006
17.2 0.00212
17.25 0.00594
17.3 0.00744
17.35 0.00493
17.4 -0.00006
17.45 -0.00386
17.5 -0.00726
17.55 -0.01092
17.6 -0.01003
17.65 -0.00973
17.7 -0.00777
17.75 -0.00669
17.8 -0.00756
17.85 -0.00937
17.9 -0.00676
17.95 -0.00254
18 0.00087
18.05 0.00161
18.1 0.00032
18.15 0.00197
18.2 0.00237
18.25 0.00393
18.3 0.00685
18.35 0.00441
18.4 -0.00032
18.45 -0.00383
18.5 -0.006
18.55 -0.00775
18.6 -0.00841
18.65 -0.01087
18.7 -0.01367
18.75 -0.01725
18.8 -0.02116
18.85 -0.01962
18.9 -0.01737
18.95 -0.01782
19 -0.01777
19.05 -0.01395
19.1 -0.00994
19.15 -0.01001
19.2 -0.01179
19.25 -0.01391
19.3 -0.01456
19.35 -0.01685
19.4 -0.01598
19.45 -0.01298
19.5 -0.01306
19.55 -0.0116
19.6 -0.00844
19.65 -0.00513
19.7 -0.00068
19.75 0.00257
19.8 0.00241
19.85 0.00317
19.9 0.00643
19.95 0.00569
20 0.00528
20.05 0.00587
20.1 0.00349
20.15 0.00109
20.2 -0.00337
20.25 -0.00185
20.3 -0.00132
20.35 0.00257
20.4 0.00781
20.45 0.00998
20.5 0.0128
20.55 0.01275
20.6 0.01555
20.65 0.01305
20.7 0.0085
20.75 0.00209
20.8 -0.00284
20.85 -0.00832
20.9 -0.00962
20.95 -0.00738
21 -0.00111
21.05 0.00388
21.1 0.00824
21.15 0.01066
21.2 0.01318
21.25 0.01755
21.3 0.01677
21.35 0.01357
21.4 0.00962
21.45 0.00641
21.5 0.00208
21.55 -0.00317
21.6 -0.00434
21.65 -0.00848
21.7 -0.01215
21.75 -0.01257
21.8 -0.01017
21.85 -0.00801
21.9 -0.0075
21.95 -0.00803
22 -0.00425
22.05 0.00107
22.1 0.00122
22.15 -0.00163
22.2 -0.00053
22.25 0.0036
22.3 0.00237
22.35 0.00466
22.4 0.00674
22.45 0.00475
22.5 -0.0004
22.55 -0.00704
22.6 -0.00859
22.65 -0.00851
22.7 -0.01057
22.75 -0.0136
22.8 -0.01495
22.85 -0.01771
22.9 -0.01421
22.95 -0.0136
23 -0.01346
23.05 -0.00792
23.1 -0.00409
23.15 0.00044
23.2 0.00597
23.25 0.01165
23.3 0.01663
23.35 0.02035
23.4 0.02006
23.45 0.01667
23.5 0.01569
23.55 0.01779
23.6 0.01893
23.65 0.02162
23.7 0.02239
23.75 0.02324
23.8 0.02594
23.85 0.02296
23.9 0.01616
23.95 0.01246
24 0.00541
24.05 -0.00064
24.1 -0.00327
24.15 -0.00394
24.2 -0.00538
24.25 -0.00959
24.3 -0.01378
24.35 -0.01495
24.4 -0.01273
24.45 -0.01362
24.5 -0.01168
24.55 -0.00667
24.6 -0.00378
24.65 -0.00095
24.7 -0.0002
24.75 0.00231
24.8 0.00631
24.85 0.00955
24.9 0.0095
24.95 0.00645
25 0.00758
25.05 0.00672
25.1 0.00922
25.15 0.01388
25.2 0.0124
25.25 0.01048
25.3 0.0072
25.35 0.00698
25.4 0.00561
25.45 0.00454
25.5 0.00209
25.55 0.00046
25.6 0.00054
25.65 -0.0016
25.7 -0.00473
25.75 -0.00309
25.8 -0.00454
25.85 -0.00634
25.9 -0.00574
25.95 -0.00709
26 -0.00754
26.05 -0.00939
26.1 -0.01193
26.15 -0.00997
26.2 -0.00743
26.25 -0.00784
26.3 -0.00767
26.35 -0.01063
26.4 -0.01541
26.45 -0.01668
26.5 -0.01713
26.55 -0.01947
26.6 -0.02312
26.65 -0.02053
26.7 -0.01754
26.75 -0.01736
26.8 -0.01898
26.85 -0.02191
26.9 -0.02329
26.95 -0.01929
27 -0.01225
27.05 -0.00871
27.1 -0.00658
27.15 -0.00812
27.2 -0.00541
27.25 -0.00076
27.3 -0.00055
27.35 0.00181
27.4 -0.00036
27.45 -0.00048
27.5 -0.00324
27.55 -0.00874
27.6 -0.01668
27.65 -0.02187
27.7 -0.02226
27.75 -0.02454
27.8 -0.02655
27.85 -0.02653
27.9 -0.0311
27.95 -0.04238
28 -0.056
28.05 -0.0687
28.1 -0.08606
28.15 -0.10449
28.2 -0.12644
28.25 -0.15346
28.3 -0.18297
28.35 -0.21427
28.4 -0.24803
28.45 -0.28002
28.5 -0.31949
28.55 -0.36252
28.6 -0.40846
28.65 -0.46085
28.7 -0.52262
28.75 -0.5864
28.8 -0.65656
28.85 -0.73661
28.9 -0.81925
28.95 -0.90541
29 -0.99716
29.05 -1.09623
29.1 -1.2002
29.15 -1.30275
29.2 -1.40933
29.25 -1.51271
29.3 -1.61635
29.35 -1.71359
29.4 -1.80904
29.45 -1.89931
29.5 -1.97878
29.55 -2.05325
29.6 -2.11713
29.65 -2.1725
29.7 -2.21978
29.75 -2.25922
29.8 -2.29051
29.85 -2.30408
29.9 -2.30389
29.95 -2.28659
30 -2.25931
30.05 -2.2199
30.1 -2.16995
30.15 -2.10348
30.2 -2.02457
30.25 -1.93172
30.3 -1.83199
30.35 -1.72503
30.4 -1.6033
30.45 -1.47301
30.5 -1.33765
30.55 -1.1915
30.6 -1.04113
30.65 -0.88734
30.7 -0.73169
30.75 -0.57602
30.8 -0.41842
30.85 -0.25871
30.9 -0.10171
30.95 0.05585
31 0.20907
31.05 0.35604
31.1 0.49926
31.15 0.63739
31.2 0.76325
31.25 0.88429
31.3 0.99514
31.35 1.09445
31.4 1.18597
31.45 1.27356
31.5 1.35154
31.55 1.42313
31.6 1.48932
31.65 1.55143
31.7 1.60353
31.75 1.64971
31.8 1.69483
31.85 1.7349
31.9 1.76628
31.95 1.79115
32 1.81618
32.05 1.83957
32.1 1.85369
32.15 1.86706
32.2 1.87384
32.25 1.87762
32.3 1.88169
32.35 1.87893
32.4 1.87676
32.45 1.87418
32.5 1.87161
32.55 1.86602
32.6 1.85769
32.65 1.84799
32.7 1.83251
32.75 1.81604
32.8 1.79678
32.85 1.77742
32.9 1.75491
32.95 1.73045
33 1.70855
33.05 1.68823
33.1 1.66511
33.15 1.63933
33.2 1.61475
33.25 1.58755
33.3 1.55789
33.35 1.52899
33.4 1.50243
33.45 1.47536
33.5 1.44059
33.55 1.40614
33.6 1.36907
33.65 1.32692
33.7 1.28783
33.75 1.24452
33.8 1.1978
33.85 1.1521
33.9 1.11108
33.95 1.07046
34 1.03154
34.05 0.99018
34.1 0.9485
34.15 0.90511
34.2 0.86134
34.25 0.81679
34.3 0.7711
34.35 0.72827
34.4 0.6855
34.45 0.64347
34.5 0.59913
34.55 0.55888
34.6 0.51697
34.65 0.47216
34.7 0.43251
34.75 0.39229
34.8 0.35041
34.85 0.3115
34.9 0.27185
34.95 0.23758
35 0.20735
35.05 0.17701
35.1 0.15233
35.15 0.12627
35.2 0.09956
35.25 0.0738
35.3 0.04638
35.35 0.02249
35.4 -0.00391
35.45 -0.02469
35.5 -0.04582
35.55 -0.06526
35.6 -0.0802
35.65 -0.09783
35.7 -0.1163
35.75 -0.13757
35.8 -0.15555
35.85 -0.17148
35.9 -0.18615
35.95 -0.20242
36 -0.22024
36.05 -0.23824
36.1 -0.25531
36.15 -0.26348
36.2 -0.26589
36.25 -0.2713
36.3 -0.27657
36.35 -0.28153
36.4 -0.28777
36.45 -0.29265
36.5 -0.29478
36.55 -0.29604
36.6 -0.29621
36.65 -0.30105
36.7 -0.30165
36.75 -0.30665
36.8 -0.31234
36.85 -0.31687
36.9 -0.32219
36.95 -0.32587
37 -0.32876
37.05 -0.33047
37.1 -0.33193
37.15 -0.33221
37.2 -0.33297
37.25 -0.32979
37.3 -0.32736
37.35 -0.32245
37.4 -0.32058
37.45 -0.3159
37.5 -0.3154
37.55 -0.31329
37.6 -0.31267
37.65 -0.30867
37.7 -0.30159
37.75 -0.29642
37.8 -0.28875
37.85 -0.28697
37.9 -0.28921
37.95 -0.29172
38 -0.29274
38.05 -0.29069
38.1 -0.28914
38.15 -0.28583
38.2 -0.27889
38.25 -0.269
38.3 -0.26221
38.35 -0.25954
38.4 -0.25998
38.45 -0.26204
38.5 -0.26454
38.55 -0.26274
38.6 -0.25681
38.65 -0.25362
38.7 -0.24966
38.75 -0.24244
38.8 -0.23204
38.85 -0.22095
38.9 -0.20962
38.95 -0.20231
39 -0.20161
39.05 -0.20189
39.1 -0.20217
39.15 -0.20572
39.2 -0.21057
39.25 -0.21439
39.3 -0.2156
39.35 -0.21495
39.4 -0.21232
39.45 -0.20497
39.5 -0.19702
39.55 -0.19081
39.6 -0.18678
39.65 -0.18148
39.7 -0.18025
39.75 -0.1742
39.8 -0.16698
39.85 -0.15992
39.9 -0.1547
39.95 -0.14834
40 -0.14342
40.05 -0.13846
40.1 -0.13545
40.15 -0.13091
40.2 -0.12977
40.25 -0.13345
40.3 -0.13325
40.35 -0.13667
40.4 -0.13589
40.45 -0.13528
40.5 -0.13491
40.55 -0.13034
40.6 -0.13132
40.65 -0.13409
40.7 -0.13868
40.75 -0.14293
40.8 -0.14535
40.85 -0.14528
40.9 -0.1458
40.95 -0.14582
41 -0.14291
41.05 -0.13541
41.1 -0.13236
41.15 -0.12794
41.2 -0.12701
41.25 -0.12217
41.3 -0.12066
41.35 -0.11614
41.4 -0.11076
41.45 -0.10439
41.5 -0.09634
41.55 -0.09261
41.6 -0.08666
41.65 -0.08228
41.7 -0.07796
41.75 -0.07996
41.8 -0.08049
41.85 -0.07846
41.9 -0.07769
41.95 -0.07548
42 -0.07072
42.05 -0.07189
42.1 -0.07665
42.15 -0.08145
42.2 -0.08113
42.25 -0.08184
42.3 -0.08293
42.35 -0.08039
42.4 -0.07695
42.45 -0.07484
42.5 -0.07434
42.55 -0.07594
42.6 -0.07499
42.65 -0.07165
42.7 -0.06847
42.75 -0.06423
42.8 -0.06542
42.85 -0.06461
42.9 -0.06667
42.95 -0.06446
43 -0.06664
43.05 -0.06882
43.1 -0.06607
43.15 -0.06347
43.2 -0.06237
43.25 -0.06339
43.3 -0.06393
43.35 -0.06516
43.4 -0.0659
43.45 -0.06388
43.5 -0.06147
43.55 -0.05789
43.6 -0.05114
43.65 -0.05046
43.7 -0.04775
43.75 -0.0478
43.8 -0.04688
43.85 -0.04894
43.9 -0.04954
43.95 -0.0466
44 -0.04342
44.05 -0.03886
44.1 -0.03463
44.15 -0.03058
44.2 -0.02673
44.25 -0.02649
44.3 -0.02706
44.35 -0.02603
44.4 -0.02957
44.45 -0.03285
44.5 -0.03421
44.55 -0.03298
44.6 -0.0287
44.65 -0.03033
44.7 -0.03519
44.75 -0.03446
44.8 -0.03524
44.85 -0.03208
44.9 -0.03156
44.95 -0.02764
45 -0.02607
45.05 -0.02461
45.1 -0.02633
45.15 -0.02613
45.2 -0.02803
45.25 -0.02598
45.3 -0.02586
45.35 -0.02432
45.4 -0.02403
45.45 -0.02535
45.5 -0.03049
45.55 -0.03611
45.6 -0.03692
45.65 -0.03887
45.7 -0.04122
45.75 -0.03791
45.8 -0.03784
45.85 -0.03721
45.9 -0.03653
45.95 -0.0355
46 -0.03446
46.05 -0.0313
46.1 -0.03105
46.15 -0.02666
46.2 -0.02165
46.25 -0.0179
46.3 -0.01835
46.35 -0.02221
46.4 -0.02737
46.45 -0.03319
46.5 -0.03207
46.55 -0.03139
46.6 -0.03024
46.65 -0.0312
46.7 -0.03251
46.75 -0.0352
46.8 -0.03896
46.85 -0.04086
46.9 -0.04044
46.95 -0.04136
47 -0.0381
47.05 -0.0381
47.1 -0.03832
47.15 -0.03249
47.2 -0.03115
47.25 -0.02848
47.3 -0.02338
47.35 -0.01788
47.4 -0.01098
47.45 -0.00448
47.5 -0.00045
47.55 0.00462
47.6 0.0076
47.65 0.00844
47.7 0.01032
47.75 0.00664
47.8 0.00583
47.85 0.0017
47.9 -0.00069
47.95 -0.00632
48 -0.00744
48.05 -0.00781
48.1 -0.0104
48.15 -0.01305
48.2 -0.01312
48.25 -0.01081
48.3 -0.00871
48.35 -0.0103
48.4 -0.01006
48.45 -0.01015
48.5 -0.01101
48.55 -0.01385
48.6 -0.01827
48.65 -0.02154
48.7 -0.02003
48.75 -0.0214
48.8 -0.02157
48.85 -0.01793
48.9 -0.01729
48.95 -0.01571
49 -0.01472
49.05 -0.0135
49.1 -0.0143
49.15 -0.01208
49.2 -0.0105
49.25 -0.00962
49.3 -0.0094
49.35 -0.01314
49.4 -0.01251
49.45 -0.01034
49.5 -0.00912
49.55 -0.01023
49.6 -0.00834
49.65 -0.00608
49.7 -0.00164
49.75 -0.00082
49.8 -0.00274
49.85 -0.00068
49.9 -0.00229
49.95 -0.00057
50 -0.0034
50.05 -0.00497
50.1 -0.00256
50.15 -0.00193
50.2 -0.00296
50.25 -0.00507
50.3 -0.0105
50.35 -0.01001
50.4 -0.01115
50.45 -0.01534
50.5 -0.01684
50.55 -0.01668
50.6 -0.01534
50.65 -0.011
50.7 -0.0058
50.75 0.00091
50.8 0.00458
50.85 0.00755
50.9 0.01209
50.95 0.01526
51 0.01442
51.05 0.01375
51.1 0.01485
51.15 0.01008
51.2 0.0096
51.25 0.01108
51.3 0.01122
51.35 0.01222
51.4 0.013
51.45 0.01154
51.5 0.01299
51.55 0.01355
51.6 0.00956
51.65 0.00186
51.7 0.00014
51.75 0.00215
51.8 0.00634
51.85 0.00424
51.9 -0.00112
51.95 -0.00623
52 -0.00654
52.05 -0.00744
52.1 -0.00623
52.15 -0.00684
52.2 -0.00954
52.25 -0.00902
52.3 -0.00646
52.35 -0.00122
52.4 -0.00207
52.45 -0.00288
52.5 -0.00248
52.55 0.001
52.6 0.00446
52.65 0.00617
52.7 0.00267
52.75 -0.00436
52.8 -0.01228
52.85 -0.0137
52.9 -0.01115
52.95 -0.01127
53 -0.00936
53.05 -0.0048
53.1 -0.00041
53.15 -0.00028
53.2 -0.00143
53.25 -0.00398
53.3 -0.00727
53.35 -0.00927
53.4 -0.01388
53.45 -0.01615
53.5 -0.01597
53.55 -0.01114
53.6 -0.00839
53.65 -0.00372
53.7 0.00309
53.75 0.00765
53.8 0.00716
53.85 0.00407
53.9 -0.00138
53.95 -0.00302
54 -0.00337
54.05 -0.00389
54.1 -0.00043
54.15 -0.00202
54.2 -0.00182
54.25 -0.0033
54.3 -0.00645
54.35 -0.00842
54.4 -0.00981
54.45 -0.01055
54.5 -0.00798
54.55 -0.0083
54.6 -0.00486
54.65 -0.00479
54.7 -0.00637
54.75 -0.00484
54.8 -0.00288
54.85 -0.00048
54.9 -0.00214
54.95 0.00065
55 -0.00134
55.05 -0.00149
55.1 0.00175
55.15 0.00444
55.2 0.00454
55.25 0.00469
55.3 0.00298
55.35 0.00437
55.4 0.00466
55.45 0.00593
55.5 0.00891
55.55 0.00763
55.6 0.00342
55.65 0.00259
55.7 0.00496
55.75 0.00719
55.8 0.01045
55.85 0.01156
55.9 0.0115
55.95 0.01229
56 0.00951
56.05 0.00758
56.1 0.00396
56.15 -0.0005
56.2 -0.00492
56.25 -0.01175
56.3 -0.01608
56.35 -0.01816
56.4 -0.02082
56.45 -0.02351
56.5 -0.02647
56.55 -0.02403
56.6 -0.01788
56.65 -0.00992
56.7 -0.00663
56.75 -0.00684
56.8 -0.00484
56.85 -0.00605
56.9 -0.00693
56.95 -0.01106
57 -0.01499
57.05 -0.01784
57.1 -0.02206
57.15 -0.02355
57.2 -0.02497
57.25 -0.02604
57.3 -0.02334
57.35 -0.02183
57.4 -0.01881
57.45 -0.01848
57.5 -0.0194
57.55 -0.01836
57.6 -0.01689
57.65 -0.01293
57.7 -0.00929
57.75 -0.00871
57.8 -0.00488
57.85 -0.00271
57.9 -0.00211
57.95 -0.00524
58 -0.00658
58.05 -0.00648
58.1 -0.0045
58.15 -0.00674
58.2 -0.00462
58.25 -0.00527
58.3 -0.00414
58.35 -0.00353
58.4 0
58.45 0.00458
58.5 0.0067
58.55 0.01108
58.6 0.01533
58.65 0.01362
58.7 0.01127
58.75 0.0113
58.8 0.00923
58.85 0.00319
58.9 -0.00267
58.95 -0.00959
59 -0.01317
59.05 -0.01392
59.1 -0.01522
59.15 -0.017
59.2 -0.01279
59.25 -0.00905
59.3 -0.00859
59.35 -0.00609
59.4 -0.00323
59.45 0.0014
59.5 0.00745
59.55 0.0129
59.6 0.01494
59.65 0.01214
59.7 0.00614
59.75 0.00584
59.8 0.0067
59.85 0.00585
59.9 0.00321
59.95 0.00049
60 -0.00442
60.05 -0.0088
60.1 -0.01212
60.15 -0.01385
60.2 -0.01751
60.25 -0.01452
60.3 -0.01282
60.35 -0.00854
60.4 -0.0016
60.45 0.00005
60.5 0.00491
60.55 0.0083
60.6 0.00724
60.65 0.00458
60.7 0.00405
60.75 0.00192
60.8 0.00086
60.85 -0.00352
60.9 -0.00274
60.95 -0.00172
61 -0.00205
61.05 -0.00227
61.1 -0.00048
61.15 0.00236
61.2 0.0028
61.25 0.00216
61.3 0.00334
61.35 0.00216
61.4 0.00504
61.45 0.00941
61.5 0.01155
61.55 0.01491
61.6 0.01667
61.65 0.01689
61.7 0.01618
61.75 0.01291
61.8 0.00646
61.85 -0.0018
61.9 -0.00314
61.95 -0.00359
62 -0.00502
62.05 -0.00231
62.1 -0.00242
62.15 -0.00064
62.2 -0.00271
62.25 -0.00335
62.3 -0.00178
62.35 -0.00385
62.4 -0.00552
62.45 -0.00736
62.5 -0.01083
62.55 -0.01541
62.6 -0.01645
62.65 -0.01502
62.7 -0.00894
62.75 -0.0082
62.8 -0.00997
62.85 -0.00827
62.9 -0.00627
62.95 -0.00273
63 -0.00183
63.05 0.00261
63.1 0.0094
63.15 0.00938
63.2 0.00473
63.25 0.00374
63.3 0.00449
63.35 0.00863
63.4 0.00739
63.45 0.00517
63.5 0.00169
63.55 -0.003
63.6 -0.00284
63.65 -0.0011
63.7 0.00187
63.75 0.00519
63.8 0.00727
63.85 0.01197
63.9 0.01782
63.95 0.018
64 0.01423
64.05 0.01042
64.1 0.00783
64.15 0.00426
64.2 0.00424
64.25 0.00343
64.3 -0.0006
64.35 -0.00088
64.4 0.00027
64.45 0.00433
64.5 0.00672
64.55 0.00848
64.6 0.0095
64.65 0.00935
64.7 0.00909
64.75 0.00939
64.8 0.01121
64.85 0.00885
64.9 0.00605
64.95 0.00653
65 0.00451
65.05 0.00416
65.1 0.00744
65.15 0.00498
65.2 0.00369
65.25 0.00506
65.3 0.00666
65.35 0.01066
65.4 0.01146
65.45 0.00721
65.5 0.00524
65.55 0.00178
65.6 0.0003
65.65 0.00202
65.7 0.00534
65.75 0.00418
65.8 0.00374
65.85 0.00678
65.9 0.01032
65.95 0.01402
66 0.01414
66.05 0.01514
66.1 0.01175
66.15 0.00886
66.2 0.00653
66.25 0.00586
66.3 0.00074
66.35 -0.00595
66.4 -0.008
66.45 -0.01225
66.5 -0.01032
66.55 -0.00935
66.6 -0.00908
66.65 -0.00876
66.7 -0.00927
66.75 -0.01315
66.8 -0.01186
66.85 -0.01334
66.9 -0.01456
66.95 -0.01501
67 -0.01441
67.05 -0.01393
67.1 -0.01514
67.15 -0.01334
67.2 -0.01021
67.25 -0.00413
67.3 -0.0022
67.35 0.0026
67.4 0.00347
67.45 0.00293
67.5 0.00117
67.55 0.0035
67.6 0.00277
67.65 -0.0011
67.7 -0.00663
67.75 -0.01236
67.8 -0.01425
67.85 -0.018
67.9 -0.02185
67.95 -0.02599
68 -0.02644
68.05 -0.02076
68.1 -0.01585
68.15 -0.01325
68.2 -0.01292
68.25 -0.01204
68.3 -0.01354
68.35 -0.01251
68.4 -0.01088
68.45 -0.01192
68.5 -0.01358
68.55 -0.01053
68.6 -0.00612
68.65 -0.00326
68.7 0.00008
68.75 0.00374
68.8 0.00673
68.85 0.01087
68.9 0.00975
68.95 0.00559
69 0.00059
69.05 -0.00393
69.1 -0.00819
69.15 -0.01098
69.2 -0.00931
69.25 -0.00562
69.3 -0.00665
69.35 -0.00983
69.4 -0.00949
69.45 -0.00711
69.5 -0.00739
69.55 -0.01011
69.6 -0.00977
69.65 -0.00486
69.7 0.00033
69.75 0.00518
69.8 0.00705
69.85 0.00454
69.9 0.00384
69.95 0.00657
70 0.00954
70.05 0.0145
70.1 0.01702
70.15 0.01869
70.2 0.02122
70.25 0.02003
70.3 0.0217
70.35 0.0242
70.4 0.0201
70.45 0.01687
70.5 0.01063
70.55 0.00693
70.6 0.00409
70.65 0.00433
70.7 0.00734
70.75 0.00783
70.8 0.00675
70.85 0.00789
70.9 0.01075
70.95 0.01138
71 0.01222
71.05 0.01405
71.1 0.01322
71.15 0.01306
71.2 0.01359
71.25 0.01314
71.3 0.00975
71.35 0.00295
71.4 -0.00056
71.45 -0.00284
71.5 -0.0053
71.55 -0.00321
71.6 -0.00475
71.65 -0.00624
71.7 -0.00928
71.75 -0.00754
71.8 -0.00463
71.85 -0.00413
71.9 -0.00505
71.95 -0.00223
72 -0.0017
72.05 -0.001
72.1 0.00289
72.15 0.00678
72.2 0.00728
72.25 0.01079
72.3 0.01353
72.35 0.01273
72.4 0.00884
72.45 0.00752
72.5 0.00557
72.55 0.00365
72.6 -0.0016
72.65 -0.00259
72.7 -0.00696
72.75 -0.0079
72.8 -0.0121
72.85 -0.01277
72.9 -0.00928
72.95 -0.01045
73 -0.01361
73.05 -0.01401
73.1 -0.01285
73.15 -0.01434
73.2 -0.01763
73.25 -0.0213
73.3 -0.01947
73.35 -0.01829
73.4 -0.0143
73.45 -0.00878
73.5 -0.00675
73.55 -0.00094
73.6 0.00556
73.65 0.00981
73.7 0.01552
73.75 0.02016
73.8 0.01965
73.85 0.02012
73.9 0.0177
73.95 0.01665
74 0.01711
74.05 0.01904
74.1 0.0154
74.15 0.00948
74.2 0.00458
74.25 0.00441
74.3 0.00175
74.35 -0.0005
74.4 0.00014
74.45 0.00065
74.5 0.00182
74.55 0.00152
74.6 0.00335
74.65 0.00181
74.7 -0.00324
74.75 -0.00895
74.8 -0.00878
74.85 -0.01101
74.9 -0.0156
74.95 -0.02113
75 -0.01921
75.05 -0.02005
75.1 -0.01823
75.15 -0.01607
75.2 -0.01629
75.25 -0.01691
75.3 -0.0135
75.35 -0.01387
75.4 -0.0142
75.45 -0.00998
75.5 -0.00609
75.55 -0.0007
75.6 0.00166
75.65 0.00424
75.7 0.00568
75.75 0.00786
75.8 0.01157
75.85 0.01546
75.9 0.01782
75.95 0.02163
76 0.02282
76.05 0.02208
76.1 0.01596
76.15 0.01339
76.2 0.01089
76.25 0.0052
76.3 0.00181
76.35 -0.00304
76.4 -0.00264
76.45 -0.00128
76.5 -0.00322
76.55 -0.00729
76.6 -0.00987
76.65 -0.00908
76.7 -0.0071
76.75 -0.00289
76.8 0.00172
76.85 0.00751
76.9 0.00912
76.95 0.00991
77 0.00927
77.05 0.01103
77.1 0.01047
77.15 0.0129
77.2 0.00912
77.25 0.00923
77.3 0.00439
77.35 -0.00101
77.4 -0.00241
77.45 -0.00025
77.5 0.00324
77.55 0.00516
77.6 0.00379
77.65 0.00386
77.7 0.00651
77.75 0.00489
77.8 0.00026
77.85 -0.00317
77.9 -0.00742
77.95 -0.00682
78 -0.00753
78.05 -0.00418
78.1 -0.00598
78.15 -0.00573
78.2 -0.00873
78.25 -0.01292
78.3 -0.01098
78.35 -0.00886
78.4 -0.00536
78.45 -0.00186
78.5 0.00111
78.55 0.00368
78.6 0.00355
78.65 0.0058
78.7 0.00259
78.75 -0.00332
78.8 -0.00656
78.85 -0.00566
78.9 -0.00811
78.95 -0.01148
79 -0.01011
79.05 -0.01053
79.1 -0.0131
79.15 -0.01642
79.2 -0.01743
79.25 -0.0166
79.3 -0.01388
79.35 -0.00998
79.4 -0.00605
79.45 -0.0058
79.5 -0.00151
79.55 -0.00232
79.6 -0.00283
79.65 -0.00061
79.7 0.00387
79.75 0.00829
79.8 0.01386
79.85 0.01515
79.9 0.01347
79.95 0.0139
80 0.01617
80.05 0.0142
80.1 0.01183
80.15 0.00544
80.2 -0.00138
80.25 -0.00931
80.3 -0.01558
80.35 -0.02001
80.4 -0.02289
80.45 -0.02369
80.5 -0.02623
80.55 -0.02572
80.6 -0.02225
80.65 -0.01637
80.7 -0.01478
80.75 -0.01555
80.8 -0.01593
80.85 -0.01515
80.9 -0.01156
80.95 -0.0064
81 -0.00036
81.05 0.00036
81.1 0.0017
81.15 0.00395
81.2 0.00426
81.25 0.00764
81.3 0.01323
81.35 0.01388
81.4 0.01378
81.45 0.013
81.5 0.00954
81.55 0.0097
81.6 0.00686
81.65 0.00816
81.7 0.00572
81.75 0.00104
81.8 -0.00351
81.85 -0.00243
81.9 0.0004
81.95 0.00421
82 0.00354
82.05 0.00622
82.1 0.00997
82.15 0.0153
82.2 0.01831
82.25 0.01514
82.3 0.01058
82.35 0.007
82.4 0.00327
82.45 -0.00215
82.5 -0.00441
82.55 -0.00299
82.6 -0.00395
82.65 -0.00192
82.7 -0.00383
82.75 -0.00326
82.8 -0.00286
82.85 -0.00067
82.9 -0.00312
82.95 -0.00525
83 -0.0044
83.05 0.00003
83.1 0.00568
83.15 0.0054
83.2 0.00214
83.25 -0.00166
83.3 -0.00715
83.35 -0.00741
83.4 -0.01023
83.45 -0.01223
83.5 -0.01375
83.55 -0.0168
83.6 -0.02067
83.65 -0.02395
83.7 -0.02357
83.75 -0.01999
83.8 -0.01558
83.85 -0.01051
83.9 -0.00474
83.95 -0.00048
84 0.00502
84.05 0.00673
84.1 0.00916
84.15 0.0121
84.2 0.0126
84.25 0.01028
84.3 0.01107
84.35 0.01035
84.4 0.01
84.45 0.00734
84.5 0.00893
84.55 0.01045
84.6 0.00838
84.65 0.00328
84.7 -0.00154
84.75 -0.00216
84.8 -0.00082
84.85 0.00221
84.9 0.00004
84.95 -0.00068
85 -0.00352
85.05 -0.00871
85.1 -0.01185
85.15 -0.01272
85.2 -0.011
85.25 -0.01166
85.3 -0.00974
85.35 -0.0089
85.4 -0.00445
85.45 0.00259
85.5 0.00776
85.55 0.00899
85.6 0.01165
85.65 0.01207
85.7 0.01129
85.75 0.01157
85.8 0.01386
85.85 0.01164
85.9 0.00936
85.95 0.00509
86 0.00037
86.05 -0.00077
86.1 -0.00389
86.15 -0.00924
86.2 -0.01456
86.25 -0.01832
86.3 -0.02054
86.35 -0.02375
86.4 -0.02629
86.45 -0.02919
86.5 -0.02735
86.55 -0.0256
86.6 -0.02427
86.65 -0.02279
86.7 -0.02341
86.75 -0.01882
86.8 -0.01052
86.85 -0.00053
86.9 0.00828
86.95 0.01283
87 0.01617
87.05 0.01438
87.1 0.01268
87.15 0.01409
87.2 0.01286
87.25 0.00934
87.3 0.00392
87.35 -0.00055
87.4 -0.0003
87.45 -0.00355
87.5 -0.00358
87.55 -0.00628
87.6 -0.00911
87.65 -0.00904
87.7 -0.00563
87.75 -0.00189
87.8 -0.00102
87.85 -0.00351
87.9 -0.00303
87.95 0.00104
88 0.00697
88.05 0.00754
88.1 0.01057
88.15 0.01425
88.2 0.01256
88.25 0.00721
88.3 0.00358
88.35 -0.00245
88.4 -0.00418
88.45 -0.00254
88.5 -0.00054
88.55 0.00488
88.6 0.00781
88.65 0.0118
88.7 0.01147
88.75 0.0117
88.8 0.00767
88.85 0.00047
88.9 -0.00413
88.95 -0.00735
89 -0.0107
89.05 -0.0159
89.1 -0.01898
89.15 -0.01625
89.2 -0.0159
89.25 -0.01221
89.3 -0.01153
89.35 -0.01321
89.4 -0.01224
89.45 -0.01164
89.5 -0.01037
89.55 -0.00778
89.6 -0.00555
89.65 -0.00534
89.7 -0.00645
89.75 -0.00898
89.8 -0.00935
89.85 -0.0114
89.9 -0.01315
89.95 -0.00926
90 -0.0036
90.05 0.00101
90.1 0.00103
90.15 -0.00129
90.2 0.00025
90.25 0.00448
90.3 0.0062
90.35 0.00598
90.4 0.00625
90.45 0.00334
90.5 0.00252
90.55 0.0058
90.6 0.00903
90.65 0.01093
90.7 0.00843
90.75 0.00618
90.8 0.0045
90.85 0.00102
90.9 0.00117
90.95 0.0048
91 0.00622
91.05 0.00589
91.1 0.00233
91.15 -0.00208
91.2 -0.00297
91.25 -0.00564
91.3 -0.00683
91.35 -0.00486
91.4 -0.00271
91.45 -0.00048
91.5 0.00414
91.55 0.00295
91.6 0.00224
91.65 0.00075
91.7 -0.00277
91.75 -0.00244
91.8 -0.00127
91.85 -0.00326
91.9 -0.00509
91.95 -0.00576
92 -0.00418
92.05 -0.00299
92.1 -0.00137
92.15 0.00163
92.2 0.00556
92.25 0.00968
92.3 0.00791
92.35 0.0068
92.4 0.00265
92.45 0.00115
92.5 -0.0004
92.55 -0.00192
92.6 -0.00314
92.65 -0.0043
92.7 -0.00792
92.75 -0.00724
92.8 -0.00464
92.85 0.00062
92.9 0.00322
92.95 0.00686
93 0.01061
93.05 0.01161
93.1 0.00921
93.15 0.00872
93.2 0.01142
93.25 0.01208
93.3 0.00757
93.35 0.00799
93.4 0.01015
93.45 0.01087
93.5 0.01061
93.55 0.01075
93.6 0.00788
93.65 0.00188
93.7 -0.00191
93.75 -0.00067
93.8 0.00224
93.85 0.00383
93.9 0.00357
93.95 0.00097
94 -0.00097
94.05 -0.00075
94.1 -0.0017
94.15 -0.00427
94.2 -0.00876
94.25 -0.01418
94.3 -0.01727
94.35 -0.01404
94.4 -0.01421
94.45 -0.0148
94.5 -0.01704
94.55 -0.01971
94.6 -0.02109
94.65 -0.01702
94.7 -0.01432
94.75 -0.00862
94.8 -0.00225
94.85 0.00102
94.9 0.00187
94.95 0.00336
95 0.00692
95.05 0.00711
95.1 0.00599
95.15 0.00407
95.2 -0.00004
95.25 0.00148
95.3 0.00527
95.35 0.01112
95.4 0.0139
95.45 0.01232
95.5 0.01414
95.55 0.01149
95.6 0.00883
95.65 0.00842
95.7 0.00371
95.75 -0.00219
95.8 -0.00653
95.85 -0.00767
95.9 -0.00532
95.95 -0.00039
96 0.00464
96.05 0.00682
96.1 0.0068
96.15 0.00676
96.2 0.00756
96.25 0.00582
96.3 0.00727
96.35 0.00524
96.4 0.00393
96.45 0.00017
96.5 -0.00221
96.55 -0.00441
96.6 -0.00569
96.65 -0.00537
96.7 -0.00516
96.75 -0.00721
96.8 -0.00849
96.85 -0.00604
96.9 -0.00055
96.95 0.00552
97 0.00737
97.05 0.00907
97.1 0.00907
97.15 0.01119
97.2 0.01196
97.25 0.00838
97.3 0.00789
97.35 0.0029
97.4 0.00045
97.45 0.00122
97.5 0.00466
97.55 0.0056
97.6 0.0049
97.65 0.00537
97.7 0.00369
97.75 0.00298
97.8 0.00622
97.85 0.01013
97.9 0.0113
97.95 0.01248
98 0.01449
98.05 0.01335
98.1 0.01499
98.15 0.01469
98.2 0.01369
98.25 0.00908
98.3 0.00777
98.35 0.00687
98.4 0.00644
98.45 0.00647
98.5 0.00549
98.55 0.00065
98.6 -0.00248
98.65 -0.00095
98.7 -0.00306
98.75 -0.00659
98.8 -0.00647
98.85 -0.00892
98.9 -0.01289
98.95 -0.01205
99 -0.00954
99.05 -0.00789
99.1 -0.00504
99.15 -0.0051
99.2 -0.00127
99.25 0.00031
99.3 -0.00151
99.35 -0.00383
99.4 -0.00624
99.45 -0.00349
99.5 0.00062
99.55 0.00084
99.6 0.00016
99.65 -0.00004
99.7 0.00329
99.75 0.00503
99.8 0.0085
99.85 0.01071
99.9 0.01133
99.95 0.01407
