0 0
0.05 0.00912
0.1 0.01733
0.15 0.02863
0.2 0.04243
0.25 0.05348
0.3 0.05815
0.35 0.05721
0.4 0.05251
0.45 0.05238
0.5 0.0515
0.55 0.04747
0.6 0.04511
0.65 0.04856
0.7 0.05349
0.75 0.05986
0.8 0.06306
0.85 0.06279
0.9 0.05667
0.95 0.05055
1 0.04449
1.05 0.03676
1.1 0.02962
1.15 0.02557
1.2 0.02815
1.25 0.03025
1.3 0.03292
1.35 0.03649
1.4 0.03607
1.45 0.03664
1.5 0.03534
1.55 0.03688
1.6 0.04209
1.65 0.04604
1.7 0.04509
1.75 0.04403
1.8 0.04115
1.85 0.04328
1.9 0.04565
1.95 0.04218
2 0.03906
2.05 0.03245
2.1 0.026
2.15 0.01953
2.2 0.01624
2.25 0.01377
2.3 0.01253
2.35 0.01088
2.4 0.01157
2.45 0.01022
2.5 0.00657
2.55 0.0063
2.6 0.01093
2.65 0.01444
2.7 0.01711
2.75 0.01553
2.8 0.0175
2.85 0.01696
2.9 0.01335
2.95 0.0136
3 0.01763
3.05 0.01917
3.1 0.01843
3.15 0.01785
3.2 0.0189
3.25 0.02453
3.3 0.02889
3.35 0.03005
3.4 0.02894
3.45 0.02621
3.5 0.01972
3.55 0.01962
3.6 0.0214
3.65 0.01915
3.7 0.014
3.75 0.01416
3.8 0.01356
3.85 0.01387
3.9 0.01783
3.95 0.02377
4 0.02372
4.05 0.0248
4.1 0.02686
4.15 0.02649
4.2 0.02598
4.25 0.02682
4.3 0.0276
4.35 0.02041
4.4 0.01622
4.45 0.00473
4.5 -0.01076
4.55 -0.02962
4.6 -0.05014
4.65 -0.06402
4.7 -0.0822
4.75 -0.10462
4.8 -0.13164
4.85 -0.15945
4.9 -0.18356
4.95 -0.20962
5 -0.24351
5.05 -0.2838
5.1 -0.33407
5.15 -0.38968
5.2 -0.44592
5.25 -0.50549
5.3 -0.57132
5.35 -0.64168
5.4 -0.72194
5.45 -0.80403
5.5 -0.8948
5.55 -0.99001
5.6 -1.08756
5.65 -1.18862
5.7 -1.28715
5.75 -1.38375
5.8 -1.47554
5.85 -1.56463
5.9 -1.6435
5.95 -1.72027
6 -1.78882
6.05 -1.85068
6.1 -1.9122
6.15 -1.97268
6.2 -2.02798
6.25 -2.07654
6.3 -2.11359
6.35 -2.14341
6.4 -2.16411
6.45 -2.1829
6.5 -2.19632
6.55 -2.20104
6.6 -2.19638
6.65 -2.17907
6.7 -2.14602
6.75 -2.09762
6.8 -2.03418
6.85 -1.96078
6.9 -1.87281
6.95 -1.77115
7 -1.65836
7.05 -1.53593
7.1 -1.39699
7.15 -1.24075
7.2 -1.07284
7.25 -0.90229
7.3 -0.72887
7.35 -0.55231
7.4 -0.36704
7.45 -0.1796
7.5 0.01199
7.55 0.19582
7.6 0.37532
7.65 0.55215
7.7 0.72233
7.75 0.87804
7.8 1.02657
7.85 1.15785
7.9 1.27262
7.95 1.3808
8 1.47699
8.05 1.56158
8.1 1.6323
8.15 1.68918
8.2 1.7339
8.25 1.77326
8.3 1.80941
8.35 1.83377
8.4 1.84978
8.45 1.8619
8.5 1.87056
8.55 1.87613
8.6 1.87276
8.65 1.86869
8.7 1.86106
8.75 1.84487
8.8 1.82484
8.85 1.80277
8.9 1.7819
8.95 1.76255
9 1.74401
9.05 1.72806
9.1 1.70875
9.15 1.69177
9.2 1.66802
9.25 1.64831
9.3 1.63063
9.35 1.61121
9.4 1.59434
9.45 1.57085
9.5 1.5484
9.55 1.52747
9.6 1.50371
9.65 1.48375
9.7 1.46359
9.75 1.43977
9.8 1.4179
9.85 1.39852
9.9 1.37711
9.95 1.3527
10 1.3311
10.05 1.31069
10.1 1.28538
10.15 1.2569
10.2 1.23098
10.25 1.20238
10.3 1.17191
10.35 1.14022
10.4 1.10496
10.45 1.06918
10.5 1.02971
10.55 0.99676
10.6 0.96403
10.65 0.92719
10.7 0.88859
10.75 0.84971
10.8 0.8093
10.85 0.77667
10.9 0.74376
10.95 0.70862
11 0.67884
11.05 0.64445
11.1 0.61041
11.15 0.57527
11.2 0.54181
11.25 0.50523
11.3 0.47313
11.35 0.437
11.4 0.40017
11.45 0.36641
11.5 0.33393
11.55 0.30129
11.6 0.2701
11.65 0.24173
11.7 0.21597
11.75 0.18523
11.8 0.15649
11.85 0.13284
11.9 0.11176
11.95 0.08867
12 0.06323
12.05 0.03595
12.1 0.00633
12.15 -0.02476
12.2 -0.05209
12.25 -0.07816
12.3 -0.10213
12.35 -0.11825
12.4 -0.13657
12.45 -0.15697
12.5 -0.1699
12.55 -0.1803
12.6 -0.1953
12.65 -0.20643
12.7 -0.21538
12.75 -0.22847
12.8 -0.23961
12.85 -0.24562
12.9 -0.25245
12.95 -0.26079
13 -0.26903
13.05 -0.27677
13.1 -0.27941
13.15 -0.2861
13.2 -0.28828
13.25 -0.29169
13.3 -0.29218
13.35 -0.29495
13.4 -0.29579
13.45 -0.29363
13.5 -0.29409
13.55 -0.297
13.6 -0.3001
13.65 -0.30567
13.7 -0.31413
13.75 -0.32018
13.8 -0.32652
13.85 -0.33054
13.9 -0.33189
13.95 -0.32909
14 -0.32977
14.05 -0.32546
14.1 -0.32434
14.15 -0.32218
14.2 -0.32096
14.25 -0.31913
14.3 -0.3131
14.35 -0.30667
14.4 -0.30322
14.45 -0.29695
14.5 -0.28773
14.55 -0.28253
14.6 -0.27432
14.65 -0.26997
14.7 -0.26749
14.75 -0.26291
14.8 -0.25532
14.85 -0.25076
14.9 -0.24597
14.95 -0.2465
15 -0.25072
15.05 -0.25055
15.1 -0.24802
15.15 -0.24699
15.2 -0.24911
15.25 -0.24922
15.3 -0.24817
15.35 -0.24855
15.4 -0.25098
15.45 -0.24695
15.5 -0.23934
15.55 -0.22957
15.6 -0.21989
15.65 -0.21397
15.7 -0.20535
15.75 -0.19677
15.8 -0.19494
15.85 -0.19548
15.9 -0.19725
15.95 -0.19849
16 -0.19848
16.05 -0.20024
16.1 -0.19602
16.15 -0.18792
16.2 -0.1805
16.25 -0.17851
16.3 -0.18055
16.35 -0.17806
16.4 -0.17174
16.45 -0.1652
16.5 -0.16347
16.55 -0.16177
16.6 -0.16113
16.65 -0.16309
16.7 -0.16523
16.75 -0.16631
16.8 -0.16773
16.85 -0.16492
16.9 -0.15888
16.95 -0.14944
17 -0.14042
17.05 -0.1343
17.1 -0.13088
17.15 -0.13095
17.2 -0.12685
17.25 -0.12066
17.3 -0.12081
17.35 -0.12138
17.4 -0.11862
17.45 -0.11568
17.5 -0.11074
17.55 -0.10852
17.6 -0.10619
17.65 -0.10073
17.7 -0.10015
17.75 -0.09913
17.8 -0.09602
17.85 -0.09694
17.9 -0.09862
17.95 -0.10413
18 -0.11056
18.05 -0.11298
18.1 -0.11629
18.15 -0.11619
18.2 -0.11168
18.25 -0.1041
18.3 -0.09582
18.35 -0.08977
18.4 -0.08226
18.45 -0.08013
18.5 -0.07735
18.55 -0.0765
18.6 -0.07836
18.65 -0.0795
18.7 -0.07912
18.75 -0.07999
18.8 -0.08169
18.85 -0.08592
18.9 -0.08577
18.95 -0.0813
19 -0.08001
19.05 -0.08068
19.1 -0.07854
19.15 -0.0761
19.2 -0.07163
19.25 -0.07009
19.3 -0.07267
19.35 -0.07661
19.4 -0.07347
19.45 -0.0737
19.5 -0.07507
19.55 -0.07024
19.6 -0.06792
19.65 -0.06439
19.7 -0.05989
19.75 -0.06086
19.8 -0.06428
19.85 -0.06519
19.9 -0.06683
19.95 -0.06881
20 -0.07281
20.05 -0.06904
20.1 -0.06088
20.15 -0.0504
20.2 -0.04324
20.25 -0.03514
20.3 -0.03124
20.35 -0.03114
20.4 -0.0314
20.45 -0.03404
20.5 -0.03702
20.55 -0.04103
20.6 -0.03932
20.65 -0.04282
20.7 -0.04256
20.75 -0.04169
20.8 -0.04402
20.85 -0.04135
20.9 -0.03765
20.95 -0.03183
21 -0.02977
21.05 -0.03086
21.1 -0.02883
21.15 -0.02805
21.2 -0.02798
21.25 -0.02695
21.3 -0.02475
21.35 -0.02582
21.4 -0.02513
21.45 -0.02182
21.5 -0.02318
21.55 -0.0207
21.6 -0.02174
21.65 -0.02299
21.7 -0.02246
21.75 -0.0189
21.8 -0.02189
21.85 -0.02627
21.9 -0.03205
21.95 -0.03865
22 -0.04359
22.05 -0.0467
22.1 -0.04922
22.15 -0.0476
22.2 -0.04673
22.25 -0.0419
22.3 -0.03685
22.35 -0.03205
22.4 -0.02453
22.45 -0.02183
22.5 -0.02207
22.55 -0.02132
22.6 -0.02337
22.65 -0.02066
22.7 -0.02337
22.75 -0.02154
22.8 -0.02031
22.85 -0.01892
22.9 -0.01598
22.95 -0.01605
23 -0.01275
23.05 -0.01515
23.1 -0.01345
23.15 -0.01136
23.2 -0.00934
23.25 -0.00629
23.3 -0.0089
23.35 -0.00773
23.4 -0.01044
23.45 -0.01369
23.5 -0.01278
23.55 -0.01146
23.6 -0.01438
23.65 -0.01284
23.7 -0.01343
23.75 -0.01058
23.8 -0.01408
23.85 -0.01286
23.9 -0.01129
23.95 -0.01311
24 -0.01127
24.05 -0.00953
24.1 -0.00688
24.15 -0.00185
24.2 -0.00401
24.25 -0.00438
24.3 -0.00641
24.35 -0.01158
24.4 -0.01186
24.45 -0.01427
24.5 -0.01164
24.55 -0.01265
24.6 -0.01416
24.65 -0.0179
24.7 -0.02142
24.75 -0.02399
24.8 -0.0263
24.85 -0.02278
24.9 -0.02044
24.95 -0.0224
25 -0.02699
25.05 -0.0308
25.1 -0.02829
25.15 -0.02111
25.2 -0.01771
25.25 -0.01809
25.3 -0.0193
25.35 -0.01988
25.4 -0.01538
25.45 -0.01513
25.5 -0.01009
25.55 -0.005
25.6 -0.00152
25.65 0.00044
25.7 -0.00083
25.75 -0.00238
25.8 -0.00747
25.85 -0.01508
25.9 -0.01865
25.95 -0.01925
26 -0.01909
26.05 -0.02189
26.1 -0.02368
26.15 -0.02768
26.2 -0.02567
26.25 -0.02287
26.3 -0.01683
26.35 -0.01373
26.4 -0.01189
26.45 -0.01415
26.5 -0.01343
26.55 -0.01348
26.6 -0.0143
26.65 -0.0179
26.7 -0.02232
26.75 -0.02558
26.8 -0.02383
26.85 -0.01796
26.9 -0.01266
26.95 -0.00969
27 -0.01114
27.05 -0.00904
27.1 -0.01153
27.15 -0.01407
27.2 -0.01782
27.25 -0.01981
27.3 -0.02176
27.35 -0.02072
27.4 -0.01963
27.45 -0.02031
27.5 -0.01546
27.55 -0.01092
27.6 -0.00961
27.65 -0.01285
27.7 -0.01177
27.75 -0.01031
27.8 -0.00568
27.85 -0.00715
27.9 -0.00345
27.95 -0.00217
28 -0.0053
28.05 -0.01104
28.1 -0.01466
28.15 -0.01496
28.2 -0.01824
28.25 -0.02382
28.3 -0.02713
28.35 -0.02683
28.4 -0.02641
28.45 -0.03141
28.5 -0.03122
28.55 -0.0278
28.6 -0.02423
28.65 -0.02611
28.7 -0.02853
28.75 -0.03801
28.8 -0.04852
28.85 -0.05864
28.9 -0.07383
28.95 -0.09284
29 -0.10943
29.05 -0.12006
29.1 -0.1331
29.15 -0.14907
29.2 -0.16801
29.25 -0.18511
29.3 -0.19866
29.35 -0.21547
29.4 -0.23251
29.45 -0.25009
29.5 -0.26673
29.55 -0.28833
29.6 -0.3087
29.65 -0.32861
29.7 -0.35077
29.75 -0.37482
29.8 -0.39723
29.85 -0.41513
29.9 -0.42969
29.95 -0.44681
30 -0.4625
30.05 -0.47562
30.1 -0.48458
30.15 -0.49251
30.2 -0.49834
30.25 -0.49738
30.3 -0.4922
30.35 -0.49043
30.4 -0.48515
30.45 -0.47707
30.5 -0.46593
30.55 -0.45066
30.6 -0.43281
30.65 -0.40846
30.7 -0.37606
30.75 -0.33915
30.8 -0.30058
30.85 -0.25593
30.9 -0.21404
30.95 -0.16854
31 -0.12271
31.05 -0.07324
31.1 -0.02719
31.15 0.01415
31.2 0.05513
31.25 0.09509
31.3 0.12992
31.35 0.16887
31.4 0.2064
31.45 0.24286
31.5 0.27557
31.55 0.30741
31.6 0.33301
31.65 0.35357
31.7 0.3696
31.75 0.38469
31.8 0.40454
31.85 0.41949
31.9 0.43115
31.95 0.44517
32 0.45904
32.05 0.46792
32.1 0.47306
32.15 0.48107
32.2 0.4855
32.25 0.48391
32.3 0.48486
32.35 0.48697
32.4 0.48792
32.45 0.48646
32.5 0.48143
32.55 0.47701
32.6 0.47258
32.65 0.46878
32.7 0.45945
32.75 0.44919
32.8 0.43357
32.85 0.42104
32.9 0.41027
32.95 0.40326
33 0.38957
33.05 0.38047
33.1 0.367
33.15 0.35201
33.2 0.33694
33.25 0.32079
33.3 0.30851
33.35 0.29327
33.4 0.2812
33.45 0.27258
33.5 0.26184
33.55 0.25333
33.6 0.24484
33.65 0.23184
33.7 0.21444
33.75 0.19494
33.8 0.17539
33.85 0.15707
33.9 0.14137
33.95 0.12732
34 0.1151
34.05 0.10699
34.1 0.10324
34.15 0.09948
34.2 0.09649
34.25 0.08807
34.3 0.08219
34.35 0.07407
34.4 0.06909
34.45 0.05864
34.5 0.04666
34.55 0.03942
34.6 0.03454
34.65 0.03371
34.7 0.03421
34.75 0.02736
34.8 0.01927
34.85 0.00969
34.9 0.00266
34.95 0.00053
35 -0.00336
35.05 -0.00333
35.1 -0.0087
35.15 -0.01199
35.2 -0.01176
35.25 -0.01464
35.3 -0.01909
35.35 -0.02033
35.4 -0.02085
35.45 -0.02167
35.5 -0.02811
35.55 -0.03792
35.6 -0.04624
35.65 -0.05402
35.7 -0.05602
35.75 -0.05289
35.8 -0.051
35.85 -0.04934
35.9 -0.044
35.95 -0.04315
36 -0.04692
36.05 -0.04729
36.1 -0.04843
36.15 -0.05
36.2 -0.0532
36.25 -0.05833
36.3 -0.05945
36.35 -0.06014
36.4 -0.05904
36.45 -0.05444
36.5 -0.04927
36.55 -0.04385
36.6 -0.03927
36.65 -0.03537
36.7 -0.03642
36.75 -0.03587
36.8 -0.037
36.85 -0.04252
36.9 -0.05177
36.95 -0.06145
37 -0.06608
37.05 -0.06661
37.1 -0.06272
37.15 -0.05871
37.2 -0.0544
37.25 -0.04802
37.3 -0.04691
37.35 -0.0472
37.4 -0.04401
37.45 -0.04406
37.5 -0.04771
37.55 -0.052
37.6 -0.05361
37.65 -0.05361
37.7 -0.05752
37.75 -0.05704
37.8 -0.05295
37.85 -0.05262
37.9 -0.04968
37.95 -0.05237
38 -0.05541
38.05 -0.05642
38.1 -0.05649
38.15 -0.05819
38.2 -0.05461
38.25 -0.05145
38.3 -0.04722
38.35 -0.04661
38.4 -0.04839
38.45 -0.04794
38.5 -0.04495
38.55 -0.04098
38.6 -0.03878
38.65 -0.03755
38.7 -0.037
38.75 -0.03801
38.8 -0.03475
38.85 -0.03031
38.9 -0.03297
38.95 -0.03229
39 -0.03537
39.05 -0.03714
39.1 -0.0358
39.15 -0.03368
39.2 -0.03501
39.25 -0.03336
39.3 -0.03173
39.35 -0.03382
39.4 -0.03333
39.45 -0.03338
39.5 -0.03072
39.55 -0.03179
39.6 -0.03585
39.65 -0.03593
39.7 -0.03927
39.75 -0.03947
39.8 -0.04317
39.85 -0.04331
39.9 -0.0406
39.95 -0.03456
40 -0.03246
40.05 -0.03172
40.1 -0.02812
40.15 -0.02589
40.2 -0.02303
40.25 -0.0216
40.3 -0.0226
40.35 -0.01934
40.4 -0.0196
40.45 -0.02063
40.5 -0.02103
40.55 -0.02222
40.6 -0.02341
40.65 -0.02239
40.7 -0.01754
40.75 -0.01303
40.8 -0.01371
40.85 -0.01551
40.9 -0.01293
40.95 -0.01573
41 -0.0138
41.05 -0.01034
41.1 -0.01059
41.15 -0.00951
41.2 -0.00871
41.25 -0.01087
41.3 -0.00939
41.35 -0.01376
41.4 -0.01417
41.45 -0.01742
41.5 -0.01555
41.55 -0.01206
41.6 -0.00707
41.65 -0.00337
41.7 -0.00049
41.75 -0.00401
41.8 -0.00365
41.85 -0.00763
41.9 -0.0105
41.95 -0.00861
42 -0.00517
42.05 -0.00064
42.1 -0.00313
42.15 -0.00689
42.2 -0.01117
42.25 -0.01558
42.3 -0.02258
42.35 -0.02695
42.4 -0.03198
42.45 -0.02983
42.5 -0.02337
42.55 -0.02012
42.6 -0.01988
42.65 -0.02287
42.7 -0.02381
42.75 -0.02413
42.8 -0.02055
42.85 -0.01388
42.9 -0.00531
42.95 -0.00463
43 -0.00224
43.05 0.00142
43.1 0.00367
43.15 -0.00107
43.2 -0.00263
43.25 -0.00209
43.3 0.00163
43.35 0.00554
43.4 0.00678
43.45 0.00235
43.5 -0.00313
43.55 -0.00289
43.6 -0.00292
43.65 -0.00495
43.7 -0.00457
43.75 -0.00361
43.8 0.00067
43.85 -0.00117
43.9 -0.00566
43.95 -0.01089
44 -0.0183
44.05 -0.02701
44.1 -0.03362
44.15 -0.03209
44.2 -0.02701
44.25 -0.0215
44.3 -0.01547
44.35 -0.00667
44.4 -0.0045
44.45 -0.00477
44.5 -0.00561
44.55 -0.00285
44.6 -0.00413
44.65 -0.00229
44.7 0.00218
44.75 0.00781
44.8 0.01211
44.85 0.00822
44.9 -0.00041
44.95 -0.00338
45 -0.00134
45.05 0.00217
45.1 0.00043
45.15 -0.00308
45.2 -0.00967
45.25 -0.0102
45.3 -0.01022
45.35 -0.00879
45.4 -0.00346
45.45 0.00247
45.5 0.00697
45.55 0.00768
45.6 0.00675
45.65 0.00386
45.7 -0.0005
45.75 -0.00887
45.8 -0.01771
45.85 -0.02334
45.9 -0.02732
45.95 -0.03059
46 -0.0303
46.05 -0.02574
46.1 -0.02589
46.15 -0.0243
46.2 -0.0254
46.25 -0.02266
46.3 -0.01598
46.35 -0.01239
46.4 -0.00923
46.45 -0.00317
46.5 0.00006
46.55 -0.00165
46.6 -0.00204
46.65 -0.00633
46.7 -0.00878
46.75 -0.01024
46.8 -0.01385
46.85 -0.0167
46.9 -0.01945
46.95 -0.02139
47 -0.0203
47.05 -0.02021
47.1 -0.02266
47.15 -0.02403
47.2 -0.02617
47.25 -0.02529
47.3 -0.02594
47.35 -0.02753
47.4 -0.02917
47.45 -0.02555
47.5 -0.02056
47.55 -0.01675
47.6 -0.01174
47.65 -0.00856
47.7 -0.00774
47.75 -0.00761
47.8 -0.00854
47.85 -0.01172
47.9 -0.01228
47.95 -0.00883
48 -0.01003
48.05 -0.00882
48.1 -0.00625
48.15 -0.00768
48.2 -0.00479
48.25 -0.00011
48.3 0.00452
48.35 0.00731
48.4 0.01087
48.45 0.01274
48.5 0.00894
48.55 0.00469
48.6 -0.00025
48.65 -0.00558
48.7 -0.00952
48.75 -0.00781
48.8 -0.00361
48.85 0.00066
48.9 0.00122
48.95 0.00566
49 0.00834
49.05 0.01302
49.1 0.01489
49.15 0.01867
49.2 0.01903
49.25 0.01484
49.3 0.00691
49.35 -0.00168
49.4 -0.01001
49.45 -0.01277
49.5 -0.01596
49.55 -0.01353
49.6 -0.00868
49.65 -0.00447
49.7 -0.00477
49.75 -0.00207
49.8 -0.00159
49.85 -0.00348
49.9 0.00001
49.95 0.0066
50 0.00741
50.05 0.01171
50.1 0.01485
50.15 0.01537
50.2 0.01891
50.25 0.01911
50.3 0.01941
50.35 0.0135
50.4 0.01204
50.45 0.0057
50.5 -0.0014
50.55 -0.00605
50.6 -0.00961
50.65 -0.00849
50.7 -0.01163
50.75 -0.01657
50.8 -0.02005
50.85 -0.02207
50.9 -0.02312
50.95 -0.01828
51 -0.01603
51.05 -0.01448
51.1 -0.01535
51.15 -0.01092
51.2 -0.00962
51.25 -0.00959
51.3 -0.01165
51.35 -0.01506
51.4 -0.0129
51.45 -0.00643
51.5 -0.00481
51.55 -0.00036
51.6 0.0054
51.65 0.00544
51.7 0.00345
51.75 -0.00089
51.8 -0.0048
51.85 -0.01111
51.9 -0.01359
51.95 -0.01265
52 -0.01126
52.05 -0.00711
52.1 -0.00589
52.15 -0.00313
52.2 0.00362
52.25 0.00972
52.3 0.01685
52.35 0.02183
52.4 0.0271
52.45 0.02441
52.5 0.02274
52.55 0.01567
52.6 0.00791
52.65 0.00551
52.7 0.00143
52.75 -0.00433
52.8 -0.00901
52.85 -0.00706
52.9 -0.00543
52.95 0.00055
53 0.00491
53.05 0.00432
53.1 -0.00037
53.15 -0.00093
53.2 -0.00212
53.25 -0.00637
53.3 -0.00401
53.35 0.00032
53.4 0.00342
53.45 0.00196
53.5 -0.00109
53.55 -0.00176
53.6 -0.0049
53.65 -0.01056
53.7 -0.01761
53.75 -0.02404
53.8 -0.02303
53.85 -0.02345
53.9 -0.02638
53.95 -0.02357
54 -0.01937
54.05 -0.01133
54.1 -0.0081
54.15 -0.00563
54.2 -0.00326
54.25 -0.00098
54.3 -0.00127
54.35 0.00273
54.4 0.00197
54.45 -0.00138
54.5 0.00063
54.55 0.00099
54.6 0.00358
54.65 0.00255
54.7 0.00154
54.75 0.00346
54.8 0.00444
54.85 0.00076
54.9 -0.00234
54.95 -0.00498
55 -0.00154
55.05 0.00521
55.1 0.0126
55.15 0.01252
55.2 0.01058
55.25 0.01244
55.3 0.01559
55.35 0.01259
55.4 0.00947
55.45 0.00374
55.5 0.00207
55.55 0.00405
55.6 0.0081
55.65 0.01204
55.7 0.01787
55.75 0.02265
55.8 0.02013
55.85 0.01435
55.9 0.00521
55.95 0.00163
56 -0.00171
56.05 -0.00559
56.1 -0.01037
56.15 -0.01564
56.2 -0.01708
56.25 -0.01449
56.3 -0.01475
56.35 -0.01041
56.4 -0.00864
56.45 -0.00734
56.5 -0.00299
56.55 0.00067
56.6 0.00343
56.65 0.00548
56.7 0.00813
56.75 0.00701
56.8 0.01007
56.85 0.01467
56.9 0.01926
56.95 0.02364
57 0.02422
57.05 0.02369
57.1 0.0257
57.15 0.02377
57.2 0.02104
57.25 0.01963
57.3 0.0188
57.35 0.01906
57.4 0.01266
57.45 0.01061
57.5 0.00481
57.55 0.00222
57.6 -0.00226
57.65 -0.00136
57.7 -0.00561
57.75 -0.01161
57.8 -0.01048
57.85 -0.00461
57.9 -0.00031
57.95 -0.00198
58 -0.00405
58.05 -0.00919
58.1 -0.01061
58.15 -0.00751
58.2 -0.00098
58.25 0.00396
58.3 0.0107
58.35 0.01792
58.4 0.02282
58.45 0.02726
58.5 0.03078
58.55 0.03259
58.6 0.03133
58.65 0.02339
58.7 0.02047
58.75 0.01597
58.8 0.01377
58.85 0.00729
58.9 0.00614
58.95 0.00479
59 0.00601
59.05 0.00461
59.1 0.00467
59.15 0.00531
59.2 0.00076
59.25 -0.00575
59.3 -0.01457
59.35 -0.01802
59.4 -0.02118
59.45 -0.02418
59.5 -0.0283
59.55 -0.02596
59.6 -0.02418
59.65 -0.01892
59.7 -0.01293
59.75 -0.00579
59.8 -0.00279
59.85 0.00178
59.9 0.0087
59.95 0.01635
60 0.02369
60.05 0.03022
60.1 0.02833
60.15 0.02661
60.2 0.01893
60.25 0.01281
60.3 0.0092
60.35 0.00503
60.4 -0.0032
60.45 -0.01157
60.5 -0.01452
60.55 -0.01962
60.6 -0.02449
60.65 -0.02873
60.7 -0.02973
60.75 -0.03172
60.8 -0.02845
60.85 -0.02661
60.9 -0.02339
60.95 -0.0183
61 -0.01342
61.05 -0.01127
61.1 -0.0107
61.15 -0.01042
61.2 -0.00799
61.25 -0.00231
61.3 -0.00157
61.35 -0.00579
61.4 -0.0113
61.45 -0.01092
61.5 -0.01423
61.55 -0.01833
61.6 -0.02279
61.65 -0.02594
61.7 -0.02515
61.75 -0.02265
61.8 -0.01767
61.85 -0.01702
61.9 -0.01729
61.95 -0.01668
62 -0.01869
62.05 -0.0167
62.1 -0.0136
62.15 -0.01427
62.2 -0.01555
62.25 -0.01387
62.3 -0.01457
62.35 -0.01502
62.4 -0.01006
62.45 -0.00198
62.5 0.00029
62.55 0.00286
62.6 0.00465
62.65 0.00304
62.7 0.00648
62.75 0.01094
62.8 0.00937
62.85 0.00762
62.9 0.00841
62.95 0.0111
63 0.01115
63.05 0.01036
63.1 0.00642
63.15 0.00289
63.2 -0.00338
63.25 -0.00756
63.3 -0.0071
63.35 -0.00732
63.4 -0.00965
63.45 -0.00913
63.5 -0.00493
63.55 -0.00203
63.6 0.00305
63.65 0.00538
63.7 0.00727
63.75 0.00359
63.8 -0.00022
63.85 -0.00245
63.9 -0.00763
63.95 -0.01377
64 -0.01407
64.05 -0.01319
64.1 -0.00785
64.15 0.00098
64.2 0.00653
64.25 0.00988
64.3 0.00937
64.35 0.00856
64.4 0.00355
64.45 -0.0005
64.5 -0.00054
64.55 0.00108
64.6 0.00524
64.65 0.00384
64.7 0.00412
64.75 0.00863
64.8 0.00686
64.85 0.00088
64.9 0.00134
64.95 0.00046
65 -0.0047
65.05 -0.01024
65.1 -0.01342
65.15 -0.01613
65.2 -0.01987
65.25 -0.02306
65.3 -0.02713
65.35 -0.02744
65.4 -0.0289
65.45 -0.0273
65.5 -0.0209
65.55 -0.01237
65.6 -0.00222
65.65 0.00927
65.7 0.01293
65.75 0.01833
65.8 0.02484
65.85 0.02663
65.9 0.0284
65.95 0.02447
66 0.01918
66.05 0.0184
66.1 0.01767
66.15 0.01419
66.2 0.01257
66.25 0.00672
66.3 -0.00219
66.35 -0.01187
66.4 -0.01666
66.45 -0.01883
66.5 -0.01568
66.55 -0.01317
66.6 -0.01195
66.65 -0.00778
66.7 -0.00441
66.75 -0.00458
66.8 -0.0045
66.85 -0.00011
66.9 0.007
66.95 0.01214
67 0.01527
67.05 0.012
67.1 0.00882
67.15 0.0047
67.2 0.00106
67.25 0.0001
67.3 0.0003
67.35 0.00431
67.4 0.00926
67.45 0.01221
67.5 0.00897
67.55 0.00966
67.6 0.00701
67.65 0.0027
67.7 -0.00389
67.75 -0.00377
67.8 -0.00286
67.85 0.00202
67.9 0.00175
67.95 0.00271
68 0.00525
68.05 0.00945
68.1 0.01085
68.15 0.01274
68.2 0.01714
68.25 0.01526
68.3 0.00938
68.35 0.00184
68.4 -0.00485
68.45 -0.00682
68.5 -0.00415
68.55 -0.00604
68.6 -0.00273
68.65 -0.00328
68.7 -0.00807
68.75 -0.01392
68.8 -0.01567
68.85 -0.01595
68.9 -0.01536
68.95 -0.01705
69 -0.01713
69.05 -0.01517
69.1 -0.01719
69.15 -0.01367
69.2 -0.01084
69.25 -0.00511
69.3 0.00182
69.35 0.005
69.4 0.00696
69.45 0.00542
69.5 0.0012
69.55 0.00031
69.6 0.00334
69.65 0.00505
69.7 0.00968
69.75 0.01354
69.8 0.01215
69.85 0.0145
69.9 0.011
69.95 0.00682
70 0.00026
70.05 -0.0005
70.1 -0.00266
70.15 -0.00791
70.2 -0.01495
70.25 -0.02222
70.3 -0.02337
70.35 -0.02379
70.4 -0.02514
70.45 -0.02711
70.5 -0.02251
70.55 -0.01525
70.6 -0.0078
70.65 -0.00356
70.7 -0.00345
70.75 -0.00054
70.8 0.00429
70.85 0.0038
70.9 0.00724
70.95 0.00569
71 0.00479
71.05 0.00173
71.1 0.00035
71.15 -0.00144
71.2 -0.00359
71.25 -0.00517
71.3 -0.00374
71.35 0.00086
71.4 0.0002
71.45 0.00261
71.5 0.00531
71.55 0.00872
71.6 0.00928
71.65 0.00889
71.7 0.00385
71.75 0.00054
71.8 -0.00115
71.85 -0.00647
71.9 -0.00489
71.95 0.00091
72 0.00479
72.05 0.00562
72.1 0.01014
72.15 0.01158
72.2 0.00786
72.25 0.0042
72.3 0.0005
72.35 0.00048
72.4 0.00507
72.45 0.00886
72.5 0.00975
72.55 0.00597
72.6 -0.00147
72.65 -0.00772
72.7 -0.01048
72.75 -0.00912
72.8 -0.00919
72.85 -0.013
72.9 -0.01289
72.95 -0.01562
73 -0.0127
73.05 -0.00938
73.1 -0.00293
73.15 0.00373
73.2 0.01154
73.25 0.01704
73.3 0.02187
73.35 0.02575
73.4 0.02233
73.45 0.02243
73.5 0.02209
73.55 0.01725
73.6 0.01485
73.65 0.00767
73.7 0.00105
73.75 -0.00446
73.8 -0.0065
73.85 -0.0091
73.9 -0.00842
73.95 -0.01102
74 -0.01237
74.05 -0.01539
74.1 -0.01837
74.15 -0.01577
74.2 -0.01052
74.25 -0.00259
74.3 -0.00164
74.35 -0.0017
74.4 -0.00269
74.45 -0.00622
74.5 -0.01176
74.55 -0.01756
74.6 -0.02027
74.65 -0.02091
74.7 -0.0214
74.75 -0.01629
74.8 -0.01166
74.85 -0.00516
74.9 -0.00425
74.95 -0.00401
75 0.00075
75.05 0.00531
75.1 0.00505
75.15 0.00758
75.2 0.00424
75.25 -0.00157
75.3 -0.00109
75.35 -0.00185
75.4 -0.00252
75.45 -0.0022
75.5 -0.00224
75.55 0.00277
75.6 0.00648
75.65 0.00443
75.7 0.00704
75.75 0.01115
75.8 0.00843
75.85 0.00764
75.9 0.00562
75.95 0.00754
76 0.0107
76.05 0.01265
76.1 0.00984
76.15 0.00649
76.2 0.00587
76.25 0.00516
76.3 0.00461
76.35 0.00644
76.4 0.00972
76.45 0.00764
76.5 0.00685
76.55 0.00284
76.6 0.0002
76.65 0.00097
76.7 -0.00156
76.75 -0.0005
76.8 -0.00068
76.85 -0.0011
76.9 0.00072
76.95 -0.002
77 -0.00101
77.05 0.00083
77.1 0.00459
77.15 0.00622
77.2 0.00427
77.25 0.00176
77.3 -0.00145
77.35 -0.00406
77.4 -0.00997
77.45 -0.00918
77.5 -0.00601
77.55 -0.00176
77.6 0.00118
77.65 0.00102
77.7 0.00085
77.75 0.00415
77.8 0.00555
77.85 0.0048
77.9 0.00268
77.95 0.00545
78 0.00524
78.05 0.00876
78.1 0.01017
78.15 0.00989
78.2 0.00986
78.25 0.01028
78.3 0.00789
78.35 0.00413
78.4 0.00219
78.45 0.00508
78.5 0.0048
78.55 0.00784
78.6 0.00996
78.65 0.00965
78.7 0.00596
78.75 0.00529
78.8 0.00464
78.85 0.00271
78.9 0.0036
78.95 0.00537
79 0.00497
79.05 0.00053
79.1 -0.00497
79.15 -0.012
79.2 -0.0199
79.25 -0.02368
79.3 -0.01977
79.35 -0.01708
79.4 -0.01007
79.45 -0.00903
79.5 -0.01228
79.55 -0.01071
79.6 -0.00415
79.65 -0.0028
79.7 0.00286
79.75 0.00822
79.8 0.01123
79.85 0.0139
79.9 0.01324
79.95 0.00924
80 0.00273
80.05 -0.00585
80.1 -0.01279
80.15 -0.01599
80.2 -0.01375
80.25 -0.00899
80.3 -0.00469
80.35 0.00124
80.4 0.00672
80.45 0.00685
80.5 0.00352
80.55 0.00052
80.6 -0.00364
80.65 -0.00142
80.7 -0.0031
80.75 -0.00008
80.8 0.00606
80.85 0.00875
80.9 0.01359
80.95 0.01153
81 0.00844
81.05 0.00363
81.1 0.0012
81.15 -0.00058
81.2 -0.00225
81.25 -0.00684
81.3 -0.00956
81.35 -0.01226
81.4 -0.01163
81.45 -0.00715
81.5 -0.00249
81.55 -0.00288
81.6 0.00162
81.65 0.00246
81.7 0.00578
81.75 0.00544
81.8 0.00426
81.85 -0.00093
81.9 0.00041
81.95 -0.00288
82 -0.00633
82.05 -0.00437
82.1 0.00115
82.15 0.00803
82.2 0.00869
82.25 0.00752
82.3 0.00592
82.35 0.00476
82.4 -0.00087
82.45 0.00011
82.5 0.00018
82.55 -0.0013
82.6 -0.00349
82.65 -0.0011
82.7 -0.00395
82.75 -0.00338
82.8 -0.00658
82.85 -0.00423
82.9 -0.00193
82.95 0.00103
83 -0.00097
83.05 -0.00378
83.1 -0.00637
83.15 -0.00961
83.2 -0.00773
83.25 -0.00717
83.3 -0.00319
83.35 -0.00036
83.4 -0.00034
83.45 0.00213
83.5 0.00396
83.55 0.00487
83.6 0.00904
83.65 0.01207
83.7 0.01067
83.75 0.00555
83.8 0.00308
83.85 0.00567
83.9 0.00443
83.95 0.00227
84 0.00107
84.05 0.00421
84.1 0.00191
84.15 0.00076
84.2 -0.0011
84.25 -0.00209
84.3 0.00114
84.35 -0.00089
84.4 -0.00516
84.45 -0.00829
84.5 -0.00901
84.55 -0.0099
84.6 -0.00619
84.65 -0.00116
84.7 0.00497
84.75 0.00928
84.8 0.00987
84.85 0.00609
84.9 -0.00029
84.95 0.00026
85 0.00287
85.05 0.00214
85.1 0.00371
85.15 0.00785
85.2 0.01014
85.25 0.00799
85.3 0.00749
85.35 0.00487
85.4 0.00402
85.45 0.0033
85.5 -0.00185
85.55 -0.0057
85.6 -0.00493
85.65 -0.00048
85.7 0.00335
85.75 0.00507
85.8 0.00903
85.85 0.01186
85.9 0.01556
85.95 0.01273
86 0.00587
86.05 -0.00096
86.1 -0.00842
86.15 -0.01695
86.2 -0.01656
86.25 -0.01802
86.3 -0.02187
86.35 -0.01968
86.4 -0.01938
86.45 -0.02008
86.5 -0.02339
86.55 -0.02779
86.6 -0.02566
86.65 -0.01901
86.7 -0.01372
86.75 -0.01143
86.8 -0.00602
86.85 0.00097
86.9 0.00119
86.95 0.0024
87 0.00421
87.05 0.00163
87.1 0.00137
87.15 -0.00343
87.2 -0.00221
87.25 -0.00283
87.3 -0.00573
87.35 -0.00524
87.4 -0.00438
87.45 -0.00216
87.5 0.00386
87.55 0.00626
87.6 0.012
87.65 0.01416
87.7 0.01311
87.75 0.01445
87.8 0.00973
87.85 0.00996
87.9 0.00947
87.95 0.01248
88 0.01313
88.05 0.01283
88.1 0.01515
88.15 0.01545
88.2 0.01261
88.25 0.00628
88.3 -0.00295
88.35 -0.00557
88.4 -0.01038
88.45 -0.00904
88.5 -0.01002
88.55 -0.00797
88.6 -0.00578
88.65 -0.00738
88.7 -0.01224
88.75 -0.00985
88.8 -0.00455
88.85 0.00219
88.9 0.00844
88.95 0.01065
89 0.00973
89.05 0.0067
89.1 0.00647
89.15 0.00967
89.2 0.01215
89.25 0.01221
89.3 0.01157
89.35 0.0114
89.4 0.01427
89.45 0.01035
89.5 0.00722
89.55 -0.00026
89.6 -0.00708
89.65 -0.01342
89.7 -0.01847
89.75 -0.0232
89.8 -0.02091
89.85 -0.01726
89.9 -0.01143
89.95 -0.00301
90 -0.0008
90.05 0.00014
90.1 0.00403
90.15 0.00647
90.2 0.00503
90.25 0.00472
90.3 0.00441
90.35 -0.00076
90.4 -0.00303
90.45 -0.00259
90.5 -0.00225
90.55 -0.00308
90.6 -0.0081
90.65 -0.00879
90.7 -0.00431
90.75 0.00267
90.8 0.00708
90.85 0.01054
90.9 0.00777
90.95 0.00476
91 0.00644
91.05 0.00659
91.1 0.00247
91.15 0.00416
91.2 0.00771
91.25 0.01314
91.3 0.01218
91.35 0.00942
91.4 0.0039
91.45 -0.00123
91.5 -0.00527
91.55 -0.01017
91.6 -0.01239
91.65 -0.01215
91.7 -0.01231
91.75 -0.01407
91.8 -0.01696
91.85 -0.01295
91.9 -0.01064
91.95 -0.01068
92 -0.01424
92.05 -0.01378
92.1 -0.008
92.15 -0.00602
92.2 0.00034
92.25 0.00671
92.3 0.01424
92.35 0.01792
92.4 0.01575
92.45 0.00853
92.5 0.0064
92.55 0.00703
92.6 0.01007
92.65 0.00941
92.7 0.00397
92.75 -0.00366
92.8 -0.00982
92.85 -0.01732
92.9 -0.02226
92.95 -0.01969
93 -0.01617
93.05 -0.01351
93.1 -0.01199
93.15 -0.01065
93.2 -0.00583
93.25 -0.00589
93.3 -0.00666
93.35 -0.00933
93.4 -0.01276
93.45 -0.01029
93.5 -0.00998
93.55 -0.01309
93.6 -0.01574
93.65 -0.02007
93.7 -0.01657
93.75 -0.00838
93.8 -0.00226
93.85 0.00473
93.9 0.00575
93.95 0.00216
94 0.0028
94.05 0.00542
94.1 0.00446
94.15 0.00441
94.2 0.00513
94.25 0.00371
94.3 0.00066
94.35 -0.00427
94.4 -0.0047
94.45 -0.00396
94.5 -0.00564
94.55 -0.01021
94.6 -0.00946
94.65 -0.00527
94.7 -0.00287
94.75 0.00301
94.8 0.00979
94.85 0.01474
94.9 0.013
94.95 0.01272
95 0.0139
95.05 0.01174
95.1 0.00936
95.15 0.00382
95.2 -0.0037
95.25 -0.0035
95.3 -0.00736
95.35 -0.0085
95.4 -0.00982
95.45 -0.00655
95.5 0.00076
95.55 0.0057
95.6 0.00476
95.65 0.00526
95.7 0.00412
95.75 0.00101
95.8 0.00315
95.85 0.00547
95.9 0.00601
95.95 0.00506
96 0.00025
96.05 0.00053
96.1 0.00405
96.15 0.00203
96.2 -0.00265
96.25 -0.009
96.3 -0.01312
96.35 -0.01167
96.4 -0.00538
96.45 0.00129
96.5 0.00376
96.55 0.00374
96.6 -0.00026
96.65 -0.00698
96.7 -0.0152
96.75 -0.01459
96.8 -0.00909
96.85 -0.00097
96.9 -0.00022
96.95 -0.00295
97 -0.00804
97.05 -0.01198
97.1 -0.01175
97.15 -0.01507
97.2 -0.0168
97.25 -0.01953
97.3 -0.0202
97.35 -0.02312
97.4 -0.02318
97.45 -0.01855
97.5 -0.01192
97.55 -0.00767
97.6 -0.0026
97.65 0.00519
97.7 0.00637
97.75 0.00934
97.8 0.01521
97.85 0.01949
97.9 0.02393
97.95 0.02257
98 0.02468
98.05 0.02339
98.1 0.01897
98.15 0.0127
98.2 0.00507
98.25 -0.00239
98.3 -0.0024
98.35 -0.00448
98.4 -0.00538
98.45 -0.00598
98.5 -0.00184
98.55 -0.0023
98.6 -0.00154
98.65 -0.00451
98.7 -0.00474
98.75 -0.00153
98.8 0.00457
98.85 0.00681
98.9 0.00595
98.95 0.00373
99 0.00542
99.05 0.01063
99.1 0.01636
99.15 0.01526
99.2 0.01737
99.25 0.02015
99.3 0.01729
99.35 0.01214
99.4 0.00997
99.45 0.0038
99.5 0.0013
99.55 0.00355
99.6 0.00053
99.65 0.00269
99.7 0.00079
99.75 -0.0041
99.8 -0.0076
99.85 -0.01041
99.9 -0.01227
99.95 -0.0095
