0 0
0.05 0.00042
0.1 0.00513
0.15 0.01438
0.2 0.0261
0.25 0.03461
0.3 0.04136
0.35 0.04491
0.4 0.05134
0.45 0.05704
0.5 0.06023
0.55 0.05862
0.6 0.05398
0.65 0.04992
0.7 0.04472
0.75 0.04148
0.8 0.04029
0.85 0.03933
0.9 0.03501
0.95 0.03197
1 0.0284
1.05 0.02556
1.1 0.02468
1.15 0.02164
1.2 0.02451
1.25 0.02834
1.3 0.02872
1.35 0.02906
1.4 0.03208
1.45 0.03478
1.5 0.03699
1.55 0.04092
1.6 0.03914
1.65 0.03752
1.7 0.03291
1.75 0.02604
1.8 0.02433
1.85 0.02229
1.9 0.01986
1.95 0.01555
2 0.01452
2.05 0.01579
2.1 0.01489
2.15 0.01667
2.2 0.0177
2.25 0.02318
2.3 0.02874
2.35 0.03304
2.4 0.03142
2.45 0.03145
2.5 0.02734
2.55 0.02811
2.6 0.02752
2.65 0.02503
2.7 0.02468
2.75 0.02075
2.8 0.01459
2.85 0.01174
2.9 0.0118
2.95 0.01171
3 0.0143
3.05 0.01579
3.1 0.01389
3.15 0.01071
3.2 0.01177
3.25 0.01136
3.3 0.01165
3.35 0.01648
3.4 0.01867
3.45 0.02215
3.5 0.02269
3.55 0.02539
3.6 0.02371
3.65 0.02218
3.7 0.02055
3.75 0.01645
3.8 0.01614
3.85 0.01427
3.9 0.00941
3.95 0.0085
4 0.01067
4.05 0.01123
4.1 0.00989
4.15 0.00704
4.2 0.0057
4.25 0.00723
4.3 0.00606
4.35 0.00316
4.4 -0.00161
4.45 -0.00264
4.5 0.00222
4.55 0.01028
4.6 0.01807
4.65 0.02586
4.7 0.02937
4.75 0.02845
4.8 0.0294
4.85 0.02775
4.9 0.02366
4.95 0.02264
5 0.02254
5.05 0.02052
5.1 0.01463
5.15 0.01311
5.2 0.00927
5.25 0.002
5.3 -0.00152
5.35 -0.00274
5.4 -0.00804
5.45 -0.01599
5.5 -0.0197
5.55 -0.01922
5.6 -0.01732
5.65 -0.01685
5.7 -0.0202
5.75 -0.02163
5.8 -0.02145
5.85 -0.02101
5.9 -0.02399
5.95 -0.03132
6 -0.03962
6.05 -0.04289
6.1 -0.04228
6.15 -0.04238
6.2 -0.04331
6.25 -0.04411
6.3 -0.04749
6.35 -0.05046
6.4 -0.05053
6.45 -0.04931
6.5 -0.05137
6.55 -0.05148
6.6 -0.05105
6.65 -0.04793
6.7 -0.04408
6.75 -0.04201
6.8 -0.03296
6.85 -0.02194
6.9 -0.01487
6.95 -0.0094
7 0.00043
7.05 0.01209
7.1 0.02241
7.15 0.03476
7.2 0.04567
7.25 0.05238
7.3 0.05835
7.35 0.06183
7.4 0.06608
7.45 0.07642
7.5 0.08906
7.55 0.09878
7.6 0.10933
7.65 0.1192
7.7 0.12407
7.75 0.12381
7.8 0.12207
7.85 0.12365
7.9 0.12322
7.95 0.11946
8 0.11332
8.05 0.10872
8.1 0.10482
8.15 0.09713
8.2 0.08627
8.25 0.08064
8.3 0.07057
8.35 0.06322
8.4 0.05602
8.45 0.04557
8.5 0.0374
8.55 0.03305
8.6 0.024
8.65 0.01882
8.7 0.01148
8.75 0.00556
8.8 -0.0039
8.85 -0.00713
8.9 -0.01193
8.95 -0.01735
9 -0.02038
9.05 -0.01987
9.1 -0.01841
9.15 -0.02123
9.2 -0.02729
9.25 -0.02915
9.3 -0.0335
9.35 -0.03982
9.4 -0.04426
9.45 -0.04486
9.5 -0.04663
9.55 -0.04779
9.6 -0.04418
9.65 -0.04212
9.7 -0.03925
9.75 -0.03353
9.8 -0.0255
9.85 -0.01659
9.9 -0.01332
9.95 -0.01321
10 -0.01398
10.05 -0.01389
10.1 -0.01371
10.15 -0.01356
10.2 -0.00977
10.25 -0.0078
10.3 -0.00929
10.35 -0.01218
10.4 -0.01414
10.45 -0.01635
10.5 -0.01665
10.55 -0.01493
10.6 -0.01227
10.65 -0.01222
10.7 -0.01389
10.75 -0.01313
10.8 -0.00908
10.85 -0.00885
10.9 -0.0068
10.95 -0.00552
11 -0.00658
11.05 -0.00628
11.1 -0.00166
11.15 -0.00054
11.2 -0.00105
11.25 -0.00197
11.3 -0.00488
11.35 -0.0062
11.4 -0.00381
11.45 -0.00204
11.5 -0.00133
11.55 0.00202
11.6 0.00552
11.65 0.00824
11.7 0.00916
11.75 0.01153
11.8 0.01244
11.85 0.01126
11.9 0.00792
11.95 0.00748
12 0.00407
12.05 0.00398
12.1 0.00569
12.15 0.00929
12.2 0.01213
12.25 0.00938
12.3 0.00461
12.35 0.00069
12.4 -0.00345
12.45 -0.00727
12.5 -0.00619
12.55 -0.00476
12.6 -0.0014
12.65 0.00245
12.7 0.00381
12.75 0.00188
12.8 0.00328
12.85 0.00331
12.9 0.00586
12.95 0.00446
13 0.00554
13.05 0.00567
13.1 0.00699
13.15 0.00618
13.2 0.00772
13.25 0.00821
13.3 0.00387
13.35 0.00276
13.4 0.00274
13.45 0.00617
13.5 0.00801
13.55 0.00891
13.6 0.00949
13.65 0.00684
13.7 0.0072
13.75 0.00723
13.8 0.00267
13.85 0.00183
13.9 0.00513
13.95 0.00594
14 0.00459
14.05 0.00403
14.1 0.00409
14.15 0.00109
14.2 -0.00386
14.25 -0.00891
14.3 -0.00992
14.35 -0.01221
14.4 -0.01582
14.45 -0.01349
14.5 -0.01337
14.55 -0.01124
14.6 -0.01148
14.65 -0.0133
14.7 -0.01653
14.75 -0.01582
14.8 -0.01646
14.85 -0.01832
14.9 -0.01437
14.95 -0.01181
15 -0.00898
15.05 -0.00753
15.1 -0.00846
15.15 -0.00609
15.2 -0.00483
15.25 0.00003
15.3 0.00222
15.35 0.00365
15.4 0.00569
15.45 0.00631
15.5 0.00943
15.55 0.01197
15.6 0.01164
15.65 0.01065
15.7 0.01296
15.75 0.01623
15.8 0.02009
15.85 0.01768
15.9 0.01501
15.95 0.01525
16 0.01341
16.05 0.00871
16.1 0.00434
16.15 -0.00033
16.2 -0.00608
16.25 -0.00712
16.3 -0.00713
16.35 -0.00666
16.4 -0.00191
16.45 -0.0009
16.5 -0.00035
16.55 0.00042
16.6 0.00377
16.65 0.00298
16.7 0.00042
16.75 -0.00064
16.8 -0.00514
16.85 -0.00369
16.9 -0.00371
16.95 -0.00347
17 -0.00354
17.05 -0.00662
17.1 -0.01098
17.15 -0.011
17.2 -0.01356
17.25 -0.01025
17.3 -0.00316
17.35 0.00517
17.4 0.01358
17.45 0.02152
17.5 0.02867
17.55 0.02764
17.6 0.02308
17.65 0.01646
17.7 0.00842
17.75 0.00469
17.8 -0.00151
17.85 -0.00825
17.9 -0.00781
17.95 -0.00926
18 -0.0109
18.05 -0.01385
18.1 -0.01205
18.15 -0.01275
18.2 -0.01312
18.25 -0.00865
18.3 -0.00785
18.35 -0.0062
18.4 -0.00691
18.45 -0.00495
18.5 -0.00113
18.55 -0.00248
18.6 -0.00524
18.65 -0.00259
18.7 0.00144
18.75 0.00592
18.8 0.00563
18.85 0.00458
18.9 0.00619
18.95 0.00596
19 0.00352
19.05 -0.00012
19.1 -0.00193
19.15 0.00109
19.2 0.00539
19.25 0.00984
19.3 0.00832
19.35 0.00852
19.4 0.00718
19.45 0.00888
19.5 0.00716
19.55 0.00608
19.6 0.00712
19.65 0.00848
19.7 0.00876
19.75 0.01197
19.8 0.01662
19.85 0.01988
19.9 0.01743
19.95 0.01156
20 0.00747
20.05 0.00309
20.1 0.00011
20.15 -0.00375
20.2 -0.00792
20.25 -0.01241
20.3 -0.01424
20.35 -0.01189
20.4 -0.00993
20.45 -0.00787
20.5 -0.00403
20.55 -0.00103
20.6 0.00108
20.65 0.00447
20.7 0.00758
20.75 0.0051
20.8 0.00415
20.85 0.00059
20.9 0.00128
20.95 0.00462
21 0.00661
21.05 0.00578
21.1 0.00239
21.15 0.00119
21.2 0.0036
21.25 0.00074
21.3 -0.00104
21.35 -0.00424
21.4 -0.00269
21.45 -0.00365
21.5 -0.00257
21.55 -0.00077
21.6 0.00175
21.65 0.00677
21.7 0.01065
21.75 0.01121
21.8 0.01252
21.85 0.01228
21.9 0.00935
21.95 0.007
22 0.00076
22.05 -0.00359
22.1 -0.00382
22.15 0.00008
22.2 0.0054
22.25 0.00403
22.3 0.00078
22.35 0.00017
22.4 0.00309
22.45 0.00507
22.5 0.00705
22.55 0.00892
22.6 0.00662
22.65 0.00101
22.7 -0.0059
22.75 -0.01264
22.8 -0.018
22.85 -0.0214
22.9 -0.02473
22.95 -0.026
23 -0.02393
23.05 -0.0238
23.1 -0.02252
23.15 -0.01585
23.2 -0.01354
23.25 -0.01169
23.3 -0.00763
23.35 -0.00104
23.4 0.00511
23.45 0.00719
23.5 0.00967
23.55 0.00781
23.6 0.00871
23.65 0.00794
23.7 0.00641
23.75 0.00129
23.8 -0.00391
23.85 -0.00908
23.9 -0.01014
23.95 -0.01394
24 -0.0114
24.05 -0.01148
24.1 -0.0093
24.15 -0.00762
24.2 -0.00343
24.25 0.0015
24.3 0.00553
24.35 0.00382
24.4 0.00188
24.45 -0.00186
24.5 -0.00383
24.55 -0.00278
24.6 -0.00434
24.65 -0.00637
24.7 -0.00423
24.75 -0.00247
24.8 -0.00441
24.85 -0.00875
24.9 -0.01123
24.95 -0.01148
25 -0.01277
25.05 -0.01577
25.1 -0.01353
25.15 -0.01113
25.2 -0.00838
25.25 -0.00667
25.3 -0.00385
25.35 -0.00296
25.4 0.00115
25.45 0.00467
25.5 0.00885
25.55 0.0112
25.6 0.01025
25.65 0.00923
25.7 0.00827
25.75 0.00905
25.8 0.00735
25.85 0.00772
25.9 0.0054
25.95 -0.00034
26 -0.00369
26.05 -0.00543
26.1 -0.0091
26.15 -0.01465
26.2 -0.01482
26.25 -0.00973
26.3 -0.00896
26.35 -0.01062
26.4 -0.01354
26.45 -0.01604
26.5 -0.01522
26.55 -0.01636
26.6 -0.01446
26.65 -0.00919
26.7 -0.0062
26.75 -0.00565
26.8 -0.00589
26.85 -0.00237
26.9 0.00314
26.95 0.00552
27 0.0087
27.05 0.00997
27.1 0.0088
27.15 0.00847
27.2 0.00458
27.25 0.00396
27.3 -0.00031
27.35 -0.00712
27.4 -0.01393
27.45 -0.01653
27.5 -0.02028
27.55 -0.01871
27.6 -0.01526
27.65 -0.0138
27.7 -0.01284
27.75 -0.01482
27.8 -0.01872
27.85 -0.02585
27.9 -0.03173
27.95 -0.04043
28 -0.05519
28.05 -0.07212
28.1 -0.09042
28.15 -0.10586
28.2 -0.12601
28.25 -0.14453
28.3 -0.16489
28.35 -0.19493
28.4 -0.2287
28.45 -0.26667
28.5 -0.30652
28.55 -0.34946
28.6 -0.39801
28.65 -0.45738
28.7 -0.51981
28.75 -0.58552
28.8 -0.65533
28.85 -0.73556
28.9 -0.81802
28.95 -0.90644
29 -0.99866
29.05 -1.09458
29.1 -1.19701
29.15 -1.29822
29.2 -1.39933
29.25 -1.50244
29.3 -1.60519
29.35 -1.70253
29.4 -1.79605
29.45 -1.88803
29.5 -1.97229
29.55 -2.04668
29.6 -2.10928
29.65 -2.16461
29.7 -2.21147
29.75 -2.24432
29.8 -2.2698
29.85 -2.28471
29.9 -2.28816
29.95 -2.27511
30 -2.2482
30.05 -2.21305
30.1 -2.16798
30.15 -2.10598
30.2 -2.03078
30.25 -1.94507
30.3 -1.84513
30.35 -1.73458
30.4 -1.613
30.45 -1.48373
30.5 -1.3516
30.55 -1.21763
30.6 -1.07319
30.65 -0.92369
30.7 -0.77316
30.75 -0.62431
30.8 -0.47419
30.85 -0.3258
30.9 -0.17409
30.95 -0.0223
31 0.12516
31.05 0.27239
31.1 0.41221
31.15 0.54529
31.2 0.67188
31.25 0.79748
31.3 0.91439
31.35 1.02339
31.4 1.13062
31.45 1.23372
31.5 1.32734
31.55 1.4137
31.6 1.49471
31.65 1.56847
31.7 1.62816
31.75 1.67775
31.8 1.72318
31.85 1.75979
31.9 1.79582
31.95 1.82562
32 1.85239
32.05 1.8735
32.1 1.89255
32.15 1.90941
32.2 1.92174
32.25 1.92838
32.3 1.93159
32.35 1.92822
32.4 1.92009
32.45 1.91166
32.5 1.90582
32.55 1.89626
32.6 1.88823
32.65 1.87749
32.7 1.86511
32.75 1.85042
32.8 1.83208
32.85 1.80962
32.9 1.78903
32.95 1.76883
33 1.74628
33.05 1.72096
33.1 1.69657
33.15 1.66796
33.2 1.63739
33.25 1.60842
33.3 1.57565
33.35 1.54458
33.4 1.51163
33.45 1.47824
33.5 1.44368
33.55 1.4095
33.6 1.37415
33.65 1.3392
33.7 1.29725
33.75 1.25203
33.8 1.20552
33.85 1.15546
33.9 1.10849
33.95 1.05914
34 1.01365
34.05 0.97084
34.1 0.92751
34.15 0.88284
34.2 0.84059
34.25 0.79736
34.3 0.75221
34.35 0.70599
34.4 0.65849
34.45 0.61662
34.5 0.57357
34.55 0.53518
34.6 0.497
34.65 0.45596
34.7 0.41956
34.75 0.38188
34.8 0.3479
34.85 0.31323
34.9 0.28074
34.95 0.25308
35 0.22331
35.05 0.19516
35.1 0.168
35.15 0.14134
35.2 0.11604
35.25 0.09301
35.3 0.07037
35.35 0.04786
35.4 0.02352
35.45 -0.00003
35.5 -0.0241
35.55 -0.05173
35.6 -0.07942
35.65 -0.1005
35.7 -0.11928
35.75 -0.14079
35.8 -0.16206
35.85 -0.18323
35.9 -0.20035
35.95 -0.21122
36 -0.22014
36.05 -0.23276
36.1 -0.24563
36.15 -0.25215
36.2 -0.26184
36.25 -0.27062
36.3 -0.27911
36.35 -0.2898
36.4 -0.29397
36.45 -0.29564
36.5 -0.29736
36.55 -0.29989
36.6 -0.30624
36.65 -0.31425
36.7 -0.31784
36.75 -0.32204
36.8 -0.32101
36.85 -0.32462
36.9 -0.32961
36.95 -0.32979
37 -0.3298
37.05 -0.32826
37.1 -0.32474
37.15 -0.32583
37.2 -0.32464
37.25 -0.3198
37.3 -0.31563
37.35 -0.31144
37.4 -0.31056
37.45 -0.30712
37.5 -0.30194
37.55 -0.3021
37.6 -0.30184
37.65 -0.2985
37.7 -0.29882
37.75 -0.29572
37.8 -0.29214
37.85 -0.28946
37.9 -0.28798
37.95 -0.28418
38 -0.27926
38.05 -0.27277
38.1 -0.26676
38.15 -0.26334
38.2 -0.26536
38.25 -0.26593
38.3 -0.26221
38.35 -0.26105
38.4 -0.2605
38.45 -0.26033
38.5 -0.259
38.55 -0.25963
38.6 -0.26142
38.65 -0.26134
38.7 -0.26068
38.75 -0.26099
38.8 -0.25674
38.85 -0.24967
38.9 -0.23985
38.95 -0.23543
39 -0.23236
39.05 -0.23189
39.1 -0.2286
39.15 -0.22051
39.2 -0.21338
39.25 -0.20571
39.3 -0.19702
39.35 -0.19395
39.4 -0.19024
39.45 -0.18772
39.5 -0.18878
39.55 -0.18573
39.6 -0.18049
39.65 -0.17359
39.7 -0.17098
39.75 -0.16758
39.8 -0.16171
39.85 -0.15462
39.9 -0.15087
39.95 -0.14842
40 -0.14759
40.05 -0.15152
40.1 -0.15465
40.15 -0.15812
40.2 -0.15643
40.25 -0.15706
40.3 -0.15851
40.35 -0.16004
40.4 -0.16148
40.45 -0.16282
40.5 -0.1589
40.55 -0.15068
40.6 -0.14676
40.65 -0.14391
40.7 -0.14077
40.75 -0.13607
40.8 -0.13511
40.85 -0.13683
40.9 -0.13612
40.95 -0.13224
41 -0.12817
41.05 -0.12579
41.1 -0.11903
41.15 -0.11506
41.2 -0.10884
41.25 -0.10258
41.3 -0.10096
41.35 -0.10207
41.4 -0.09972
41.45 -0.10197
41.5 -0.10555
41.55 -0.11099
41.6 -0.11235
41.65 -0.11273
41.7 -0.10971
41.75 -0.10831
41.8 -0.10374
41.85 -0.10165
41.9 -0.09601
41.95 -0.08734
42 -0.08106
42.05 -0.08081
42.1 -0.0835
42.15 -0.08109
42.2 -0.07533
42.25 -0.07029
42.3 -0.06882
42.35 -0.0661
42.4 -0.06832
42.45 -0.06721
42.5 -0.06551
42.55 -0.06602
42.6 -0.06649
42.65 -0.06992
42.7 -0.06982
42.75 -0.07191
42.8 -0.07329
42.85 -0.07326
42.9 -0.07278
42.95 -0.0746
43 -0.07636
43.05 -0.07645
43.1 -0.07527
43.15 -0.06924
43.2 -0.06222
43.25 -0.05374
43.3 -0.05062
43.35 -0.04593
43.4 -0.03948
43.45 -0.03647
43.5 -0.03379
43.55 -0.03185
43.6 -0.03372
43.65 -0.03263
43.7 -0.03663
43.75 -0.04148
43.8 -0.04881
43.85 -0.05723
43.9 -0.06204
43.95 -0.06319
44 -0.05886
44.05 -0.05236
44.1 -0.04839
44.15 -0.04672
44.2 -0.04213
44.25 -0.04052
44.3 -0.04328
44.35 -0.04735
44.4 -0.04967
44.45 -0.05159
44.5 -0.05179
44.55 -0.04954
44.6 -0.04578
44.65 -0.0409
44.7 -0.03804
44.75 -0.03645
44.8 -0.03914
44.85 -0.03999
44.9 -0.03901
44.95 -0.04066
45 -0.03763
45.05 -0.03332
45.1 -0.03168
45.15 -0.03095
45.2 -0.03394
45.25 -0.03434
45.3 -0.03752
45.35 -0.04119
45.4 -0.04101
45.45 -0.04337
45.5 -0.04463
45.55 -0.04338
45.6 -0.04106
45.65 -0.04098
45.7 -0.03957
45.75 -0.03744
45.8 -0.03764
45.85 -0.03868
45.9 -0.03806
45.95 -0.03715
46 -0.03566
46.05 -0.03748
46.1 -0.03467
46.15 -0.03339
46.2 -0.03539
46.25 -0.03434
46.3 -0.0345
46.35 -0.03574
46.4 -0.03428
46.45 -0.03154
46.5 -0.02933
46.55 -0.02426
46.6 -0.01879
46.65 -0.01491
46.7 -0.01213
46.75 -0.00676
46.8 -0.00143
46.85 0.00416
46.9 0.00617
46.95 0.00892
47 0.0092
47.05 0.0043
47.1 0.00199
47.15 -0.00225
47.2 -0.00203
47.25 -0.0034
47.3 -0.00493
47.35 -0.0079
47.4 -0.00789
47.45 -0.0058
47.5 -0.00918
47.55 -0.00921
47.6 -0.00827
47.65 -0.00681
47.7 -0.00831
47.75 -0.00803
47.8 -0.0051
47.85 -0.00087
47.9 0.00313
47.95 0.00139
48 -0.00164
48.05 -0.00669
48.1 -0.0145
48.15 -0.0225
48.2 -0.02477
48.25 -0.02297
48.3 -0.01947
48.35 -0.01278
48.4 -0.00477
48.45 0.00357
48.5 0.01068
48.55 0.015
48.6 0.01477
48.65 0.01267
48.7 0.00528
48.75 0.0002
48.8 -0.00709
48.85 -0.01013
48.9 -0.0139
48.95 -0.01411
49 -0.01772
49.05 -0.01632
49.1 -0.01551
49.15 -0.01665
49.2 -0.01536
49.25 -0.01188
49.3 -0.00607
49.35 -0.00613
49.4 -0.00574
49.45 -0.0096
49.5 -0.01118
49.55 -0.01437
49.6 -0.01873
49.65 -0.01803
49.7 -0.01482
49.75 -0.01575
49.8 -0.01806
49.85 -0.01886
49.9 -0.01619
49.95 -0.01247
50 -0.01027
50.05 -0.01178
50.1 -0.01453
50.15 -0.01285
50.2 -0.00968
50.25 -0.01088
50.3 -0.01283
50.35 -0.01174
50.4 -0.00874
50.45 -0.0099
50.5 -0.01063
50.55 -0.01093
50.6 -0.01382
50.65 -0.01645
50.7 -0.01865
50.75 -0.01891
50.8 -0.02045
50.85 -0.02111
50.9 -0.0167
50.95 -0.01153
51 -0.00729
51.05 -0.00376
51.1 0.00202
51.15 0.00243
51.2 -0.00025
51.25 -0.00343
51.3 -0.00824
51.35 -0.00847
51.4 -0.00656
51.45 -0.00441
51.5 0.00062
51.55 0.00354
51.6 0.00201
51.65 0.00043
51.7 0.00049
51.75 0.00038
51.8 0.00189
51.85 0.00433
51.9 0.00722
51.95 0.01166
52 0.01169
52.05 0.00741
52.1 0.00395
52.15 -0.00051
52.2 -0.00383
52.25 -0.00468
52.3 -0.00122
52.35 0.00232
52.4 0.00769
52.45 0.01007
52.5 0.01246
52.55 0.0127
52.6 0.00729
52.65 0.0006
52.7 -0.007
52.75 -0.00882
52.8 -0.00585
52.85 -0.00788
52.9 -0.00902
52.95 -0.01306
53 -0.01708
53.05 -0.02114
53.1 -0.02588
53.15 -0.02914
53.2 -0.02798
53.25 -0.02767
53.3 -0.0276
53.35 -0.02575
53.4 -0.01876
53.45 -0.01101
53.5 -0.00794
53.55 -0.00526
53.6 -0.00613
53.65 -0.0022
53.7 0.00406
53.75 0.00548
53.8 0.00619
53.85 0.00952
53.9 0.01388
53.95 0.01933
54 0.01832
54.05 0.01961
54.1 0.02101
54.15 0.02119
54.2 0.01522
54.25 0.0118
54.3 0.00742
54.35 0.00516
54.4 0.00345
54.45 0.0032
54.5 0.00252
54.55 -0.00121
54.6 -0.00338
54.65 -0.00085
54.7 0.00279
54.75 0.00154
54.8 0.00311
54.85 0.00513
54.9 0.00965
54.95 0.01143
55 0.01172
55.05 0.01251
55.1 0.0116
55.15 0.01151
55.2 0.00899
55.25 0.00614
55.3 0.00413
55.35 0.00596
55.4 0.00622
55.45 0.00703
55.5 0.00377
55.55 0.00027
55.6 0.00125
55.65 -0.00097
55.7 0.00091
55.75 -0.00028
55.8 -0.00116
55.85 -0.00113
55.9 -0.00184
55.95 -0.00411
56 -0.00506
56.05 -0.00405
56.1 -0.00288
56.15 -0.00537
56.2 -0.00622
56.25 -0.00264
56.3 0.00109
56.35 0.00322
56.4 0.00365
56.45 0.00223
56.5 0.0004
56.55 -0.0003
56.6 -0.0037
56.65 -0.00652
56.7 -0.01053
56.75 -0.01559
56.8 -0.01744
56.85 -0.01734
56.9 -0.0172
56.95 -0.01477
57 -0.01248
57.05 -0.01106
57.1 -0.00961
57.15 -0.01157
57.2 -0.01522
57.25 -0.0141
57.3 -0.01081
57.35 -0.0093
57.4 -0.00372
57.45 -0.0011
57.5 0.00421
57.55 0.0083
57.6 0.00775
57.65 0.01022
57.7 0.01418
57.75 0.01115
57.8 0.00583
57.85 0.00152
57.9 0.00109
57.95 0.00165
58 -0.00046
58.05 -0.00278
58.1 -0.0071
58.15 -0.00563
58.2 -0.00762
58.25 -0.01079
58.3 -0.01523
58.35 -0.01915
58.4 -0.02119
58.45 -0.01888
58.5 -0.01831
58.55 -0.01368
58.6 -0.00673
58.65 0.00155
58.7 0.00339
58.75 0.00435
58.8 0.00221
58.85 0.0009
58.9 -0.00174
58.95 -0.00409
59 -0.00267
59.05 0.00101
59.1 0.00463
59.15 0.00244
59.2 0.00194
59.25 -0.002
59.3 -0.00695
59.35 -0.01006
59.4 -0.01292
59.45 -0.01689
59.5 -0.02006
59.55 -0.02033
59.6 -0.01791
59.65 -0.01237
59.7 -0.00827
59.75 -0.00514
59.8 -0.00285
59.85 -0.00326
59.9 -0.00414
59.95 -0.00617
60 -0.00609
60.05 -0.00582
60.1 -0.00773
60.15 -0.00553
60.2 0.00025
60.25 0.00282
60.3 0.00194
60.35 0.00019
60.4 0.00181
60.45 0.00267
60.5 0.0013
60.55 0.00136
60.6 0.00134
60.65 0.00338
60.7 0.00216
60.75 0.00187
60.8 0.0016
60.85 -0.0019
60.9 -0.0062
60.95 -0.00698
61 -0.00436
61.05 -0.00247
61.1 -0.00411
61.15 -0.00629
61.2 -0.00601
61.25 -0.00251
61.3 0.00153
61.35 0.00295
61.4 0.00669
61.45 0.00969
61.5 0.01305
61.55 0.01263
61.6 0.0092
61.65 0.00857
61.7 0.01069
61.75 0.01516
61.8 0.01981
61.85 0.01828
61.9 0.01532
61.95 0.00977
62 0.00156
62.05 -0.00162
62.1 -0.00632
62.15 -0.01263
62.2 -0.01428
62.25 -0.01183
62.3 -0.00624
62.35 -0.00531
62.4 -0.00174
62.45 -0.00266
62.5 -0.00635
62.55 -0.00832
62.6 -0.0094
62.65 -0.00774
62.7 -0.00343
62.75 0.00256
62.8 0.00314
62.85 0.00381
62.9 0.00442
62.95 0.00176
63 -0.00324
63.05 -0.00978
63.1 -0.01583
63.15 -0.01747
63.2 -0.02034
63.25 -0.02389
63.3 -0.02616
63.35 -0.02391
63.4 -0.01965
63.45 -0.01605
63.5 -0.00964
63.55 -0.00198
63.6 0.00134
63.65 0.00661
63.7 0.00914
63.75 0.00778
63.8 0.00742
63.85 0.00688
63.9 0.00875
63.95 0.01334
64 0.01181
64.05 0.00864
64.1 0.00574
64.15 0.00517
64.2 0.00307
64.25 0.00083
64.3 -0.00092
64.35 -0.00244
64.4 -0.00604
64.45 -0.00563
64.5 -0.00317
64.55 0.00193
64.6 0.00408
64.65 0.00422
64.7 0.00268
64.75 -0.0016
64.8 -0.00465
64.85 -0.00555
64.9 -0.00757
64.95 -0.01172
65 -0.01451
65.05 -0.01641
65.1 -0.01451
65.15 -0.01245
65.2 -0.01162
65.25 -0.01328
65.3 -0.01027
65.35 -0.00372
65.4 0.00467
65.45 0.01296
65.5 0.01673
65.55 0.01597
65.6 0.01492
65.65 0.01333
65.7 0.00768
65.75 0.00557
65.8 0.00007
65.85 0.0006
65.9 0.00119
65.95 0.00315
66 0.00413
66.05 0.00792
66.1 0.00982
66.15 0.00954
66.2 0.00807
66.25 0.00879
66.3 0.01214
66.35 0.01248
66.4 0.01538
66.45 0.01438
66.5 0.01088
66.55 0.00772
66.6 0.00358
66.65 -0.00156
66.7 -0.00739
66.75 -0.01049
66.8 -0.01163
66.85 -0.01353
66.9 -0.01169
66.95 -0.01069
67 -0.00899
67.05 -0.00445
67.1 0.00254
67.15 0.00469
67.2 0.00957
67.25 0.01042
67.3 0.00978
67.35 0.00843
67.4 0.00913
67.45 0.01199
67.5 0.01571
67.55 0.01307
67.6 0.01229
67.65 0.0122
67.7 0.00946
67.75 0.00424
67.8 -0.00166
67.85 -0.00202
67.9 0.00032
67.95 0.00323
68 0.00079
68.05 -0.00249
68.1 -0.0046
68.15 -0.00198
68.2 -0.00074
68.25 0.0001
68.3 0.00174
68.35 0.00262
68.4 0.00224
68.45 0.00305
68.5 0.00696
68.55 0.00653
68.6 0.0063
68.65 0.00244
68.7 -0.00103
68.75 -0.00608
68.8 -0.01143
68.85 -0.01657
68.9 -0.02076
68.95 -0.02258
69 -0.01805
69.05 -0.0138
69.1 -0.00695
69.15 -0.00488
69.2 -0.00406
69.25 -0.00393
69.3 -0.00205
69.35 -0.00347
69.4 -0.00199
69.45 -0.0011
69.5 -0.00098
69.55 -0.00322
69.6 -0.00752
69.65 -0.00593
69.7 -0.00568
69.75 -0.00309
69.8 -0.00093
69.85 0.00413
69.9 0.00818
69.95 0.0075
70 0.00696
70.05 0.00564
70.1 0.00642
70.15 0.00631
70.2 0.00418
70.25 0.00303
70.3 0.00389
70.35 0.0009
70.4 -0.00152
70.45 -0.00424
70.5 -0.00882
70.55 -0.00771
70.6 -0.00276
70.65 0.00375
70.7 0.01123
70.75 0.01601
70.8 0.01483
70.85 0.00884
70.9 0.00061
70.95 -0.00093
71 0.00205
71.05 0.00721
71.1 0.01171
71.15 0.01538
71.2 0.01654
71.25 0.01687
71.3 0.01746
71.35 0.0163
71.4 0.0153
71.45 0.01122
71.5 0.01034
71.55 0.01138
71.6 0.00946
71.65 0.01022
71.7 0.0134
71.75 0.01034
71.8 0.00629
71.85 0.00126
71.9 -0.00573
71.95 -0.01167
72 -0.01366
72.05 -0.01719
72.1 -0.01727
72.15 -0.01232
72.2 -0.00489
72.25 -0.00268
72.3 -0.00374
72.35 -0.00737
72.4 -0.00734
72.45 -0.01038
72.5 -0.01085
72.55 -0.01197
72.6 -0.01349
72.65 -0.01326
72.7 -0.01541
72.75 -0.01576
72.8 -0.0156
72.85 -0.01232
72.9 -0.01304
72.95 -0.01211
73 -0.00808
73.05 -0.00881
73.1 -0.00848
73.15 -0.01142
73.2 -0.013
73.25 -0.01575
73.3 -0.01538
73.35 -0.01086
73.4 -0.00307
73.45 0.00201
73.5 0.00598
73.55 0.00763
73.6 0.01129
73.65 0.01234
73.7 0.01475
73.75 0.01096
73.8 0.0064
73.85 0.00588
73.9 0.00394
73.95 0.00328
74 0.00395
74.05 0.00144
74.1 -0.00203
74.15 -0.0025
74.2 0.00135
74.25 0.00395
74.3 0.00601
74.35 0.00393
74.4 0.00498
74.45 0.00701
74.5 0.00795
74.55 0.00496
74.6 0.00404
74.65 0.00393
74.7 0.00696
74.75 0.00808
74.8 0.00596
74.85 0.00316
74.9 0.00059
74.95 -0.0038
75 -0.00256
75.05 -0.00472
75.1 -0.00817
75.15 -0.0092
75.2 -0.00956
75.25 -0.00744
75.3 -0.00608
75.35 -0.0012
75.4 -0.00009
75.45 0.00096
75.5 -0.00223
75.55 -0.00124
75.6 -0.00063
75.65 0.00015
75.7 -0.0011
75.75 -0.00338
75.8 -0.00811
75.85 -0.00814
75.9 -0.00722
75.95 -0.00793
76 -0.00803
76.05 -0.00679
76.1 -0.00852
76.15 -0.00903
76.2 -0.00535
76.25 -0.00175
76.3 -0.00039
76.35 -0.00174
76.4 0.00018
76.45 0.0044
76.5 0.00425
76.55 0.00126
76.6 -0.00247
76.65 -0.00627
76.7 -0.00587
76.75 -0.00215
76.8 0.00238
76.85 0.00624
76.9 0.01218
76.95 0.01601
77 0.01412
77.05 0.01511
77.1 0.01155
77.15 0.00584
77.2 -0.00124
77.25 -0.00297
77.3 -0.00322
77.35 -0.0053
77.4 -0.0074
77.45 -0.00914
77.5 -0.01191
77.55 -0.01042
77.6 -0.01196
77.65 -0.01217
77.7 -0.01386
77.75 -0.01376
77.8 -0.01412
77.85 -0.01474
77.9 -0.01749
77.95 -0.01414
78 -0.00926
78.05 -0.00598
78.1 -0.00278
78.15 0.00135
78.2 0.0055
78.25 0.00711
78.3 0.00771
78.35 0.01128
78.4 0.01429
78.45 0.01761
78.5 0.01838
78.55 0.01699
78.6 0.01777
78.65 0.01978
78.7 0.01995
78.75 0.01927
78.8 0.01811
78.85 0.01373
78.9 0.01172
78.95 0.01219
79 0.01348
79.05 0.0149
79.1 0.01755
79.15 0.02043
79.2 0.02187
79.25 0.02196
79.3 0.02236
79.35 0.01782
79.4 0.01415
79.45 0.01091
79.5 0.00789
79.55 0.0062
79.6 0.00206
79.65 -0.00344
79.7 -0.00458
79.75 -0.00657
79.8 -0.00654
79.85 -0.00276
79.9 0.00017
79.95 0.00044
80 -0.00075
80.05 0.0021
80.1 0.00127
80.15 -0.00266
80.2 -0.0093
80.25 -0.01719
80.3 -0.02371
80.35 -0.02268
80.4 -0.01743
80.45 -0.00936
80.5 -0.00659
80.55 -0.00447
80.6 -0.00004
80.65 0.00506
80.7 0.00463
80.75 -0.00032
80.8 -0.00267
80.85 -0.00301
80.9 -0.00605
80.95 -0.0112
81 -0.01509
81.05 -0.01303
81.1 -0.01258
81.15 -0.01021
81.2 -0.00982
81.25 -0.0069
81.3 -0.00499
81.35 -0.00186
81.4 0.00027
81.45 -0.00081
81.5 -0.00526
81.55 -0.01063
81.6 -0.01066
81.65 -0.01405
81.7 -0.01336
81.75 -0.00822
81.8 -0.00665
81.85 -0.007
81.9 -0.00285
81.95 -0.00112
82 0.00376
82.05 0.00668
82.1 0.00589
82.15 0.0047
82.2 0.00506
82.25 0.00591
82.3 0.00387
82.35 0.00134
82.4 -0.00383
82.45 -0.006
82.5 -0.00956
82.55 -0.00725
82.6 -0.00306
82.65 0.00208
82.7 0.00483
82.75 0.00655
82.8 0.00911
82.85 0.00589
82.9 0.00178
82.95 -0.00514
83 -0.01289
83.05 -0.01559
83.1 -0.01254
83.15 -0.00571
83.2 -0.00451
83.25 -0.00124
83.3 -0.00305
83.35 -0.00005
83.4 -0.00151
83.45 -0.00645
83.5 -0.00856
83.55 -0.01054
83.6 -0.01113
83.65 -0.01461
83.7 -0.01771
83.75 -0.02117
83.8 -0.01885
83.85 -0.01937
83.9 -0.02115
83.95 -0.02084
84 -0.01589
84.05 -0.01498
84.1 -0.01283
84.15 -0.00658
84.2 -0.00178
84.25 -0.0017
84.3 -0.00488
84.35 -0.0039
84.4 -0.00028
84.45 -0.00173
84.5 -0.00086
84.55 0.00277
84.6 0.00893
84.65 0.00827
84.7 0.00869
84.75 0.00625
84.8 0.00505
84.85 0.0049
84.9 0.00345
84.95 0.00505
85 0.00259
85.05 0.00477
85.1 0.00888
85.15 0.01017
85.2 0.00753
85.25 0.0079
85.3 0.01047
85.35 0.00978
85.4 0.01004
85.45 0.01113
85.5 0.00764
85.55 0.00583
85.6 0.00178
85.65 0.00058
85.7 0.00101
85.75 0.00166
85.8 0.00596
85.85 0.00519
85.9 0.00139
85.95 -0.00381
86 -0.01088
86.05 -0.01472
86.1 -0.01372
86.15 -0.01375
86.2 -0.01657
86.25 -0.01985
86.3 -0.01868
86.35 -0.01616
86.4 -0.01065
86.45 -0.0044
86.5 0.00307
86.55 0.00687
86.6 0.01192
86.65 0.01784
86.7 0.01651
86.75 0.01558
86.8 0.01663
86.85 0.01346
86.9 0.01065
86.95 0.00465
87 -0.00323
87.05 -0.00924
87.1 -0.01287
87.15 -0.01339
87.2 -0.01524
87.25 -0.01381
87.3 -0.013
87.35 -0.01238
87.4 -0.01177
87.45 -0.00971
87.5 -0.00729
87.55 -0.00223
87.6 0.00492
87.65 0.01146
87.7 0.01512
87.75 0.01294
87.8 0.00656
87.85 0.0044
87.9 0.00148
87.95 -0.0018
88 0.00014
88.05 0.00542
88.1 0.00922
88.15 0.00751
88.2 0.00717
88.25 0.005
88.3 0.00506
88.35 0.00104
88.4 -0.00088
88.45 0.00037
88.5 0.0031
88.55 0.00563
88.6 0.0104
88.65 0.01049
88.7 0.01068
88.75 0.00945
88.8 0.00382
88.85 0.00307
88.9 0.00056
88.95 0.00023
89 0.00174
89.05 0.00478
89.1 0.00617
89.15 0.00557
89.2 0.00867
89.25 0.00816
89.3 0.0082
89.35 0.00648
89.4 0.00398
89.45 0.00403
89.5 -0.00003
89.55 -0.00614
89.6 -0.01167
89.65 -0.01783
89.7 -0.01711
89.75 -0.01878
89.8 -0.02158
89.85 -0.0246
89.9 -0.02515
89.95 -0.0242
90 -0.02529
90.05 -0.02386
90.1 -0.02021
90.15 -0.01693
90.2 -0.01195
90.25 -0.01104
90.3 -0.01077
90.35 -0.01004
90.4 -0.00543
90.45 0.00057
90.5 0.00105
90.55 0.00115
90.6 -0.00069
90.65 -0.00212
90.7 0.00119
90.75 0.00155
90.8 0.00032
90.85 0.00165
90.9 0.0034
90.95 0.00317
91 0.00636
91.05 0.00627
91.1 0.00714
91.15 0.00522
91.2 0.00019
91.25 -0.00198
91.3 -0.00018
91.35 -0.00295
91.4 -0.00657
91.45 -0.01124
91.5 -0.01511
91.55 -0.01833
91.6 -0.02126
91.65 -0.0208
91.7 -0.01728
91.75 -0.01271
91.8 -0.01206
91.85 -0.00774
91.9 -0.00612
91.95 -0.003
92 0.0024
92.05 0.00315
92.1 0.00201
92.15 0.00321
92.2 0.00063
92.25 -0.0025
92.3 -0.00165
92.35 -0.00119
92.4 -0.00348
92.45 -0.00074
92.5 0.00027
92.55 -0.00022
92.6 -0.00071
92.65 0.00066
92.7 -0.0018
92.75 0.00001
92.8 0.00289
92.85 0.00727
92.9 0.007
92.95 0.00888
93 0.01102
93.05 0.01013
93.1 0.01228
93.15 0.00971
93.2 0.00457
93.25 0.00409
93.3 0.00091
93.35 0.00103
93.4 -0.00182
93.45 -0.00712
93.5 -0.00998
93.55 -0.01308
93.6 -0.01711
93.65 -0.01961
93.7 -0.01519
93.75 -0.00798
93.8 -0.00618
93.85 -0.00621
93.9 -0.00738
93.95 -0.00951
94 -0.01137
94.05 -0.00854
94.1 -0.00167
94.15 0.00001
94.2 -0.00058
94.25 -0.0037
94.3 -0.00792
94.35 -0.01225
94.4 -0.01751
94.45 -0.02132
94.5 -0.02423
94.55 -0.02133
94.6 -0.01938
94.65 -0.01514
94.7 -0.00813
94.75 -0.00491
94.8 -0.00258
94.85 0.00119
94.9 0.00226
94.95 0.00578
95 0.01055
95.05 0.01225
95.1 0.01627
95.15 0.01825
95.2 0.01694
95.25 0.01508
95.3 0.01198
95.35 0.00908
95.4 0.00932
95.45 0.0111
95.5 0.00792
95.55 0.00552
95.6 0.00009
95.65 -0.00174
95.7 -0.00115
95.75 -0.00028
95.8 0.00049
95.85 0.00485
95.9 0.01058
95.95 0.01503
96 0.0194
96.05 0.02283
96.1 0.02008
96.15 0.01341
96.2 0.00882
96.25 0.00785
96.3 0.00764
96.35 0.01076
96.4 0.00985
96.45 0.00772
96.5 0.0079
96.55 0.00467
96.6 -0.00133
96.65 -0.00566
96.7 -0.00997
96.75 -0.00793
96.8 -0.00518
96.85 -0.00177
96.9 0.00149
96.95 0.00211
97 0.00032
97.05 -0.00295
97.1 -0.0072
97.15 -0.01256
97.2 -0.01082
97.25 -0.00914
97.3 -0.00417
97.35 -0.00359
97.4 -0.00085
97.45 0.00433
97.5 0.00921
97.55 0.00975
97.6 0.01254
97.65 0.01745
97.7 0.02073
97.75 0.0186
97.8 0.01321
97.85 0.01061
97.9 0.01081
97.95 0.00762
98 0.00268
98.05 0.00008
98.1 0.00018
98.15 -0.0028
98.2 -0.00761
98.25 -0.01016
98.3 -0.00988
98.35 -0.00825
98.4 -0.00927
98.45 -0.01207
98.5 -0.01586
98.55 -0.01572
98.6 -0.01764
98.65 -0.01319
98.7 -0.00949
98.75 -0.0072
98.8 -0.00524
98.85 -0.00161
98.9 0.00464
98.95 0.0077
99 0.00549
99.05 0.00618
99.1 0.00433
99.15 0.00462
99.2 0.00675
99.25 0.00967
99.3 0.01401
99.35 0.01868
99.4 0.02204
99.45 0.02403
99.5 0.02634
99.55 0.02457
99.6 0.01952
99.65 0.01449
99.7 0.01295
99.75 0.01197
99.8 0.00723
99.85 0.00019
99.9 -0.00645
99.95 -0.0123
