0 0
0.05 0.00634
0.1 0.0099
0.15 0.01183
0.2 0.01881
0.25 0.02192
0.3 0.02312
0.35 0.02698
0.4 0.03071
0.45 0.03299
0.5 0.03885
0.55 0.0412
0.6 0.04772
0.65 0.05041
0.7 0.05541
0.75 0.0613
0.8 0.0632
0.85 0.05878
0.9 0.05937
0.95 0.05654
1 0.04933
1.05 0.04402
1.1 0.04284
1.15 0.03888
1.2 0.03492
1.25 0.02898
1.3 0.02759
1.35 0.03035
1.4 0.0362
1.45 0.04116
1.5 0.04108
1.55 0.04214
1.6 0.04209
1.65 0.03988
1.7 0.04075
1.75 0.03889
1.8 0.03811
1.85 0.03909
1.9 0.04074
1.95 0.04086
2 0.04158
2.05 0.03743
2.1 0.03509
2.15 0.03628
2.2 0.03797
2.25 0.04267
2.3 0.04861
2.35 0.05122
2.4 0.04881
2.45 0.04969
2.5 0.04678
2.55 0.03897
2.6 0.03617
2.65 0.02884
2.7 0.02804
2.75 0.02477
2.8 0.02613
2.85 0.02419
2.9 0.02376
2.95 0.02012
3 0.01396
3.05 0.01114
3.1 0.0078
3.15 0.0037
3.2 0.00068
3.25 -0.00248
3.3 -0.00404
3.35 -0.00258
3.4 -0.0031
3.45 -0.00175
3.5 0.00447
3.55 0.00801
3.6 0.01086
3.65 0.01659
3.7 0.02009
3.75 0.02399
3.8 0.02197
3.85 0.02284
3.9 0.01921
3.95 0.01345
4 0.01218
4.05 0.0142
4.1 0.01702
4.15 0.02155
4.2 0.02215
4.25 0.01972
4.3 0.01369
4.35 0.0046
4.4 -0.00482
4.45 -0.01171
4.5 -0.01519
4.55 -0.02024
4.6 -0.02761
4.65 -0.04186
4.7 -0.05913
4.75 -0.08139
4.8 -0.10124
4.85 -0.12255
4.9 -0.15255
4.95 -0.19081
5 -0.23028
5.05 -0.27575
5.1 -0.32517
5.15 -0.37729
5.2 -0.43314
5.25 -0.50302
5.3 -0.57798
5.35 -0.65535
5.4 -0.73803
5.45 -0.82558
5.5 -0.9186
5.55 -1.01056
5.6 -1.10607
5.65 -1.20878
5.7 -1.31162
5.75 -1.40853
5.8 -1.507
5.85 -1.60571
5.9 -1.69865
5.95 -1.78801
6 -1.8687
6.05 -1.94379
6.1 -2.01346
6.15 -2.08016
6.2 -2.14291
6.25 -2.19784
6.3 -2.24523
6.35 -2.29387
6.4 -2.33516
6.45 -2.37266
6.5 -2.40504
6.55 -2.4292
6.6 -2.43819
6.65 -2.43478
6.7 -2.4186
6.75 -2.39062
6.8 -2.34943
6.85 -2.29512
6.9 -2.22322
6.95 -2.1386
7 -2.03435
7.05 -1.91249
7.1 -1.77893
7.15 -1.63572
7.2 -1.47793
7.25 -1.30479
7.3 -1.12441
7.35 -0.94075
7.4 -0.74568
7.45 -0.54388
7.5 -0.34611
7.55 -0.14558
7.6 0.04836
7.65 0.24049
7.7 0.42924
7.75 0.61282
7.8 0.79296
7.85 0.95765
7.9 1.11216
7.95 1.26055
8 1.39729
8.05 1.52198
8.1 1.63309
8.15 1.73497
8.2 1.82381
8.25 1.9006
8.3 1.96814
8.35 2.02158
8.4 2.06368
8.45 2.10149
8.5 2.13638
8.55 2.16403
8.6 2.18546
8.65 2.20274
8.7 2.21472
8.75 2.21491
8.8 2.20625
8.85 2.19271
8.9 2.18078
8.95 2.16346
9 2.14356
9.05 2.12907
9.1 2.11495
9.15 2.09672
9.2 2.07229
9.25 2.0447
9.3 2.01978
9.35 1.99561
9.4 1.9751
9.45 1.95335
9.5 1.9325
9.55 1.91098
9.6 1.88301
9.65 1.85603
9.7 1.82472
9.75 1.79216
9.8 1.75909
9.85 1.72398
9.9 1.68759
9.95 1.64719
10 1.60557
10.05 1.56019
10.1 1.51594
10.15 1.4709
10.2 1.42824
10.25 1.3862
10.3 1.34754
10.35 1.30894
10.4 1.26573
10.45 1.22108
10.5 1.17717
10.55 1.1307
10.6 1.08448
10.65 1.04418
10.7 1.005
10.75 0.96335
10.8 0.91973
10.85 0.87367
10.9 0.83256
10.95 0.78736
11 0.73788
11.05 0.69178
11.1 0.64989
11.15 0.60951
11.2 0.5673
11.25 0.52505
11.3 0.48654
11.35 0.44466
11.4 0.4079
11.45 0.37464
11.5 0.3399
11.55 0.3067
11.6 0.27072
11.65 0.2326
11.7 0.20063
11.75 0.16909
11.8 0.13557
11.85 0.10492
11.9 0.07188
11.95 0.04258
12 0.01507
12.05 -0.01451
12.1 -0.04352
12.15 -0.0666
12.2 -0.08459
12.25 -0.10232
12.3 -0.12017
12.35 -0.13955
12.4 -0.15891
12.45 -0.17614
12.5 -0.18979
12.55 -0.20047
12.6 -0.20816
12.65 -0.22086
12.7 -0.23172
12.75 -0.24345
12.8 -0.25607
12.85 -0.27258
12.9 -0.28735
12.95 -0.30416
13 -0.3188
13.05 -0.33317
13.1 -0.33871
13.15 -0.33907
13.2 -0.33723
13.25 -0.33572
13.3 -0.33766
13.35 -0.33867
13.4 -0.34325
13.45 -0.34878
13.5 -0.35383
13.55 -0.35629
13.6 -0.36098
13.65 -0.36514
13.7 -0.36886
13.75 -0.36937
13.8 -0.36933
13.85 -0.36792
13.9 -0.36371
13.95 -0.36172
14 -0.35693
14.05 -0.35469
14.1 -0.3507
14.15 -0.34643
14.2 -0.34135
14.25 -0.33602
14.3 -0.33013
14.35 -0.32404
14.4 -0.31601
14.45 -0.314
14.5 -0.31469
14.55 -0.31614
14.6 -0.31832
14.65 -0.3209
14.7 -0.31868
14.75 -0.31917
14.8 -0.32007
14.85 -0.32094
14.9 -0.32147
14.95 -0.32121
15 -0.31935
15.05 -0.31652
15.1 -0.31194
15.15 -0.30634
15.2 -0.30278
15.25 -0.29605
15.3 -0.28836
15.35 -0.27696
15.4 -0.26355
15.45 -0.255
15.5 -0.24597
15.55 -0.23651
15.6 -0.233
15.65 -0.22716
15.7 -0.22716
15.75 -0.22295
15.8 -0.21729
15.85 -0.21477
15.9 -0.20926
15.95 -0.20303
16 -0.19953
16.05 -0.20138
16.1 -0.20271
16.15 -0.20256
16.2 -0.19804
16.25 -0.19693
16.3 -0.19623
16.35 -0.19758
16.4 -0.19311
16.45 -0.18871
16.5 -0.18299
16.55 -0.18195
16.6 -0.18314
16.65 -0.1812
16.7 -0.18107
16.75 -0.17906
16.8 -0.17876
16.85 -0.17403
16.9 -0.17099
16.95 -0.17069
17 -0.17119
17.05 -0.1675
17.1 -0.16429
17.15 -0.1647
17.2 -0.16689
17.25 -0.16805
17.3 -0.16739
17.35 -0.16255
17.4 -0.15825
17.45 -0.15514
17.5 -0.15255
17.55 -0.14961
17.6 -0.1444
17.65 -0.13772
17.7 -0.13076
17.75 -0.12818
17.8 -0.12357
17.85 -0.12133
17.9 -0.11714
17.95 -0.11249
18 -0.10727
18.05 -0.10364
18.1 -0.10374
18.15 -0.1043
18.2 -0.10368
18.25 -0.10412
18.3 -0.10597
18.35 -0.1055
18.4 -0.10772
18.45 -0.10844
18.5 -0.1029
18.55 -0.09524
18.6 -0.08833
18.65 -0.08306
18.7 -0.07801
18.75 -0.07463
18.8 -0.07658
18.85 -0.07361
18.9 -0.07195
18.95 -0.07506
19 -0.08129
19.05 -0.08909
19.1 -0.09126
19.15 -0.09101
19.2 -0.08832
19.25 -0.08237
19.3 -0.07983
19.35 -0.07405
19.4 -0.06971
19.45 -0.06701
19.5 -0.06132
19.55 -0.05564
19.6 -0.04836
19.65 -0.0459
19.7 -0.04224
19.75 -0.03991
19.8 -0.0367
19.85 -0.04013
19.9 -0.0437
19.95 -0.04456
20 -0.04481
20.05 -0.04633
20.1 -0.05272
20.15 -0.05838
20.2 -0.05779
20.25 -0.05269
20.3 -0.05389
20.35 -0.05698
20.4 -0.05795
20.45 -0.05436
20.5 -0.04948
20.55 -0.04867
20.6 -0.05188
20.65 -0.05686
20.7 -0.05488
20.75 -0.0535
20.8 -0.04757
20.85 -0.04349
20.9 -0.04179
20.95 -0.04087
21 -0.03959
21.05 -0.04146
21.1 -0.0393
21.15 -0.03817
21.2 -0.035
21.25 -0.03145
21.3 -0.03072
21.35 -0.03377
21.4 -0.03178
21.45 -0.03388
21.5 -0.03976
21.55 -0.04022
21.6 -0.04393
21.65 -0.04997
21.7 -0.04986
21.75 -0.04964
21.8 -0.0508
21.85 -0.04848
21.9 -0.04509
21.95 -0.04209
22 -0.04007
22.05 -0.03755
22.1 -0.03308
22.15 -0.03005
22.2 -0.03187
22.25 -0.03693
22.3 -0.04324
22.35 -0.04497
22.4 -0.04861
22.45 -0.04673
22.5 -0.04471
22.55 -0.04004
22.6 -0.03315
22.65 -0.02596
22.7 -0.01899
22.75 -0.0185
22.8 -0.01743
22.85 -0.02175
22.9 -0.02442
22.95 -0.02862
23 -0.02995
23.05 -0.03366
23.1 -0.03869
23.15 -0.04236
23.2 -0.04391
23.25 -0.04711
23.3 -0.04314
23.35 -0.03776
23.4 -0.0281
23.45 -0.01976
23.5 -0.01106
23.55 -0.00447
23.6 -0.00455
23.65 -0.00273
23.7 -0.00102
23.75 -0.00159
23.8 -0.00451
23.85 -0.00607
23.9 -0.00505
23.95 -0.00112
24 -0.00462
24.05 -0.00431
24.1 -0.00078
24.15 -0.00156
24.2 -0.00657
24.25 -0.00783
24.3 -0.01004
24.35 -0.0134
24.4 -0.01457
24.45 -0.01906
24.5 -0.02535
24.55 -0.03024
24.6 -0.03425
24.65 -0.03256
24.7 -0.02751
24.75 -0.02234
24.8 -0.01749
24.85 -0.0168
24.9 -0.01308
24.95 -0.0147
25 -0.01901
25.05 -0.02556
25.1 -0.02662
25.15 -0.02206
25.2 -0.01841
25.25 -0.01501
25.3 -0.0155
25.35 -0.01844
25.4 -0.02018
25.45 -0.01669
25.5 -0.00939
25.55 -0.00526
25.6 -0.0003
25.65 -0.00024
25.7 0.00044
25.75 0.00064
25.8 0.00248
25.85 0.00374
25.9 0.00805
25.95 0.01067
26 0.00683
26.05 0.00262
26.1 -0.0054
26.15 -0.01326
26.2 -0.01823
26.25 -0.01822
26.3 -0.01498
26.35 -0.01561
26.4 -0.01282
26.45 -0.01303
26.5 -0.01711
26.55 -0.01532
26.6 -0.01431
26.65 -0.01568
26.7 -0.01656
26.75 -0.02096
26.8 -0.02277
26.85 -0.02047
26.9 -0.01701
26.95 -0.0153
27 -0.01053
27.05 -0.00341
27.1 0.00554
27.15 0.01327
27.2 0.01933
27.25 0.01721
27.3 0.0128
27.35 0.00435
27.4 0.00125
27.45 -0.00201
27.5 -0.00436
27.55 -0.00254
27.6 -0.00449
27.65 -0.0027
27.7 -0.00588
27.75 -0.00448
27.8 0.00046
27.85 0.00671
27.9 0.01026
27.95 0.01388
28 0.0098
28.05 0.00468
28.1 -0.00284
28.15 -0.00482
28.2 -0.00879
28.25 -0.01336
28.3 -0.02002
28.35 -0.02321
28.4 -0.02064
28.45 -0.01695
28.5 -0.01375
28.55 -0.01591
28.6 -0.01362
28.65 -0.00851
28.7 -0.0067
28.75 -0.00588
28.8 -0.00861
28.85 -0.01175
28.9 -0.01701
28.95 -0.0235
29 -0.02525
29.05 -0.02771
29.1 -0.03572
29.15 -0.04624
29.2 -0.04949
29.25 -0.0546
29.3 -0.06347
29.35 -0.06988
29.4 -0.07511
29.45 -0.08211
29.5 -0.08439
29.55 -0.08688
29.6 -0.08758
29.65 -0.09239
29.7 -0.09583
29.75 -0.09701
29.8 -0.09766
29.85 -0.09754
29.9 -0.10054
29.95 -0.10259
30 -0.10104
30.05 -0.09916
30.1 -0.09431
30.15 -0.09022
30.2 -0.08914
30.25 -0.09257
30.3 -0.09703
30.35 -0.09888
30.4 -0.09708
30.45 -0.09799
30.5 -0.0999
30.55 -0.09835
30.6 -0.09381
30.65 -0.08718
30.7 -0.07742
30.75 -0.06772
30.8 -0.05953
30.85 -0.05499
30.9 -0.05396
30.95 -0.05386
31 -0.05249
31.05 -0.04827
31.1 -0.04348
31.15 -0.03515
31.2 -0.02491
31.25 -0.01211
31.3 -0.00099
31.35 0.01097
31.4 0.02202
31.45 0.02948
31.5 0.03518
31.55 0.04118
31.6 0.04222
31.65 0.04109
31.7 0.03884
31.75 0.03833
31.8 0.03826
31.85 0.04021
31.9 0.04095
31.95 0.04313
32 0.0492
32.05 0.0492
32.1 0.05376
32.15 0.05295
32.2 0.05794
32.25 0.06573
32.3 0.07384
32.35 0.07719
32.4 0.07697
32.45 0.07978
32.5 0.08313
32.55 0.08706
32.6 0.08582
32.65 0.08623
32.7 0.0839
32.75 0.08518
32.8 0.08336
32.85 0.08877
32.9 0.09585
32.95 0.09887
33 0.097
33.05 0.09401
33.1 0.09768
33.15 0.10308
33.2 0.10233
33.25 0.10592
33.3 0.10855
33.35 0.10919
33.4 0.1061
33.45 0.10417
33.5 0.09872
33.55 0.09616
33.6 0.09757
33.65 0.0976
33.7 0.09482
33.75 0.08889
33.8 0.0825
33.85 0.07814
33.9 0.07535
33.95 0.07079
34 0.06278
34.05 0.05821
34.1 0.05968
34.15 0.05649
34.2 0.05106
34.25 0.04898
34.3 0.05197
34.35 0.05226
34.4 0.05462
34.45 0.05156
34.5 0.04596
34.55 0.03995
34.6 0.03522
34.65 0.03421
34.7 0.02982
34.75 0.02384
34.8 0.02151
34.85 0.02069
34.9 0.01985
34.95 0.01985
35 0.01974
35.05 0.02328
35.1 0.02795
35.15 0.02946
35.2 0.0262
35.25 0.02159
35.3 0.01376
35.35 0.00575
35.4 0.00351
35.45 -0.00171
35.5 -0.00743
35.55 -0.00853
35.6 -0.00542
35.65 -0.0014
35.7 0.00373
35.75 0.00821
35.8 0.00785
35.85 0.00414
35.9 -0.00413
35.95 -0.01035
36 -0.01676
36.05 -0.01688
36.1 -0.01327
36.15 -0.00988
36.2 -0.00772
36.25 -0.01123
36.3 -0.01872
36.35 -0.02711
36.4 -0.03288
36.45 -0.03414
36.5 -0.03602
36.55 -0.03307
36.6 -0.03108
36.65 -0.03331
36.7 -0.03193
36.75 -0.02693
36.8 -0.02073
36.85 -0.0133
36.9 -0.01037
36.95 -0.01043
37 -0.01131
37.05 -0.01639
37.1 -0.01814
37.15 -0.01525
37.2 -0.01611
37.25 -0.01393
37.3 -0.01332
37.35 -0.01776
37.4 -0.01725
37.45 -0.01459
37.5 -0.0119
37.55 -0.01195
37.6 -0.01704
37.65 -0.02105
37.7 -0.02609
37.75 -0.02922
37.8 -0.02937
37.85 -0.03205
37.9 -0.03103
37.95 -0.02694
38 -0.0254
38.05 -0.0221
38.1 -0.01703
38.15 -0.01682
38.2 -0.01293
38.25 -0.00853
38.3 -0.00832
38.35 -0.00934
38.4 -0.01205
38.45 -0.01144
38.5 -0.00931
38.55 -0.01087
38.6 -0.01048
38.65 -0.01365
38.7 -0.02002
38.75 -0.02295
38.8 -0.02504
38.85 -0.02684
38.9 -0.02785
38.95 -0.02785
39 -0.03096
39.05 -0.03098
39.1 -0.02921
39.15 -0.02496
39.2 -0.01795
39.25 -0.01191
39.3 -0.00834
39.35 -0.00845
39.4 -0.01179
39.45 -0.01698
39.5 -0.01719
39.55 -0.01548
39.6 -0.01333
39.65 -0.01114
39.7 -0.00526
39.75 -0.00317
39.8 0.00245
39.85 0.00545
39.9 0.00652
39.95 0.00187
40 -0.00311
40.05 -0.00525
40.1 -0.01071
40.15 -0.01435
40.2 -0.01725
40.25 -0.02107
40.3 -0.02234
40.35 -0.02394
40.4 -0.02676
40.45 -0.02807
40.5 -0.0286
40.55 -0.02769
40.6 -0.02742
40.65 -0.02205
40.7 -0.01663
40.75 -0.01223
40.8 -0.00699
40.85 -0.00262
40.9 0.00372
40.95 0.01048
41 0.01746
41.05 0.0163
41.1 0.01709
41.15 0.01875
41.2 0.01988
41.25 0.02143
41.3 0.01945
41.35 0.01405
41.4 0.01036
41.45 0.00871
41.5 0.00276
41.55 -0.00245
41.6 -0.00586
41.65 -0.00548
41.7 -0.00525
41.75 -0.00092
41.8 0.00093
41.85 -0.00172
41.9 -0.00477
41.95 -0.00524
42 -0.0012
42.05 0.00135
42.1 0.00197
42.15 0.00496
42.2 0.01057
42.25 0.014
42.3 0.01381
42.35 0.0093
42.4 0.00137
42.45 -0.00357
42.5 -0.00849
42.55 -0.01377
42.6 -0.01581
42.65 -0.01865
42.7 -0.02348
42.75 -0.0258
42.8 -0.02647
42.85 -0.02757
42.9 -0.02893
42.95 -0.03214
43 -0.02783
43.05 -0.02006
43.1 -0.01387
43.15 -0.00901
43.2 -0.00514
43.25 -0.0025
43.3 -0.00338
43.35 -0.00263
43.4 -0.0049
43.45 -0.00757
43.5 -0.01002
43.55 -0.01325
43.6 -0.01831
43.65 -0.02309
43.7 -0.02213
43.75 -0.02171
43.8 -0.02061
43.85 -0.01858
43.9 -0.01114
43.95 -0.00752
44 -0.00381
44.05 0.00127
44.1 0.00726
44.15 0.01451
44.2 0.0223
44.25 0.02146
44.3 0.02327
44.35 0.01956
44.4 0.01119
44.45 0.00506
44.5 0.00422
44.55 0.00668
44.6 0.00843
44.65 0.00665
44.7 0.00126
44.75 -0.00695
44.8 -0.01277
44.85 -0.01224
44.9 -0.0152
44.95 -0.01812
45 -0.02171
45.05 -0.01811
45.1 -0.0103
45.15 -0.00178
45.2 0.00748
45.25 0.01429
45.3 0.01804
45.35 0.02199
45.4 0.02269
45.45 0.02471
45.5 0.02064
45.55 0.01513
45.6 0.0099
45.65 0.00534
45.7 0.00221
45.75 -0.00004
45.8 -0.0008
45.85 -0.00229
45.9 -0.00175
45.95 -0.00072
46 -0.00468
46.05 -0.00777
46.1 -0.00721
46.15 -0.00438
46.2 0.0008
46.25 0.00313
46.3 0.00791
46.35 0.00734
46.4 0.00853
46.45 0.00744
46.5 0.01015
46.55 0.01268
46.6 0.00968
46.65 0.00891
46.7 0.00473
46.75 0.00558
46.8 0.00877
46.85 0.00671
46.9 0.00745
46.95 0.00321
47 0.00134
47.05 -0.00454
47.1 -0.00375
47.15 0.00003
47.2 0.0059
47.25 0.01136
47.3 0.01098
47.35 0.00913
47.4 0.00399
47.45 0.00227
47.5 -0.00125
47.55 -0.00024
47.6 -0.00447
47.65 -0.00289
47.7 -0.00331
47.75 -0.00198
47.8 -0.00353
47.85 -0.00327
47.9 0.00019
47.95 0.00565
48 0.00923
48.05 0.00887
48.1 0.01173
48.15 0.01046
48.2 0.00938
48.25 0.00406
48.3 0.00418
48.35 -0.00093
48.4 -0.00641
48.45 -0.00988
48.5 -0.00852
48.55 -0.00833
48.6 -0.00325
48.65 -0.00078
48.7 0.00448
48.75 0.00498
48.8 0.00136
48.85 -0.00525
48.9 -0.00966
48.95 -0.01493
49 -0.0148
49.05 -0.0098
49.1 -0.00543
49.15 -0.0007
49.2 0.00264
49.25 0.0089
49.3 0.01228
49.35 0.01706
49.4 0.01462
49.45 0.01438
49.5 0.00893
49.55 0.00606
49.6 -0.00022
49.65 -0.00145
49.7 -0.00556
49.75 -0.00686
49.8 -0.01086
49.85 -0.01374
49.9 -0.01198
49.95 -0.01367
50 -0.01249
50.05 -0.01347
50.1 -0.0178
50.15 -0.02119
50.2 -0.02181
50.25 -0.0252
50.3 -0.02497
50.35 -0.0235
50.4 -0.02411
50.45 -0.0252
50.5 -0.02361
50.55 -0.02227
50.6 -0.01727
50.65 -0.01669
50.7 -0.01308
50.75 -0.0078
50.8 0.00022
50.85 0.00119
50.9 -0.00099
50.95 0.0011
51 0.005
51.05 0.00276
51.1 -0.00332
51.15 -0.00631
51.2 -0.00423
51.25 -0.00129
51.3 -0.00149
51.35 -0.00339
51.4 -0.00583
51.45 -0.0094
51.5 -0.00796
51.55 -0.00669
51.6 -0.00973
51.65 -0.01263
51.7 -0.01453
51.75 -0.01581
51.8 -0.01068
51.85 -0.00657
51.9 -0.00593
51.95 -0.0055
52 -0.00785
52.05 -0.00786
52.1 -0.00876
52.15 -0.01005
52.2 -0.01088
52.25 -0.00955
52.3 -0.00769
52.35 -0.00531
52.4 -0.00616
52.45 -0.0081
52.5 -0.00664
52.55 -0.00585
52.6 -0.00351
52.65 -0.00107
52.7 0.00315
52.75 0.00664
52.8 0.0055
52.85 0.00833
52.9 0.01382
52.95 0.01369
53 0.01547
53.05 0.01434
53.1 0.00967
53.15 0.00984
53.2 0.01186
53.25 0.01152
53.3 0.01036
53.35 0.00449
53.4 0.00049
53.45 0.00173
53.5 -0.00009
53.55 -0.00511
53.6 -0.00351
53.65 -0.0012
53.7 0.00135
53.75 -0.00006
53.8 -0.00104
53.85 -0.00039
53.9 0.00325
53.95 0.00102
54 -0.00036
54.05 0.00094
54.1 0.0004
54.15 0.00151
54.2 0.00513
54.25 0.01067
54.3 0.01658
54.35 0.02343
54.4 0.02853
54.45 0.02779
54.5 0.02876
54.55 0.02241
54.6 0.01644
54.65 0.0139
54.7 0.00943
54.75 0.00907
54.8 0.00886
54.85 0.00467
54.9 0.00333
54.95 -0.00239
55 -0.00149
55.05 -0.00147
55.1 -0.00484
55.15 -0.00645
55.2 -0.01143
55.25 -0.01324
55.3 -0.01345
55.35 -0.01215
55.4 -0.01232
55.45 -0.00963
55.5 -0.00998
55.55 -0.00766
55.6 -0.00227
55.65 0.00581
55.7 0.00898
55.75 0.01255
55.8 0.01602
55.85 0.01592
55.9 0.0122
55.95 0.00723
56 0.00625
56.05 0.0048
56.1 0.00699
56.15 0.00965
56.2 0.00861
56.25 0.00979
56.3 0.00573
56.35 0.00115
56.4 -0.00047
56.45 -0.00578
56.5 -0.0089
56.55 -0.00829
56.6 -0.01102
56.65 -0.01164
56.7 -0.01255
56.75 -0.01464
56.8 -0.01838
56.85 -0.01955
56.9 -0.02131
56.95 -0.02505
57 -0.0229
57.05 -0.01878
57.1 -0.01304
57.15 -0.00949
57.2 -0.00385
57.25 0.00396
57.3 0.01025
57.35 0.00888
57.4 0.00673
57.45 0.00872
57.5 0.00961
57.55 0.00679
57.6 0.00734
57.65 0.00608
57.7 0.00074
57.75 -0.00142
57.8 0.0003
57.85 0.00241
57.9 0.00132
57.95 -0.00107
58 -0.00596
58.05 -0.0131
58.1 -0.01943
58.15 -0.01804
58.2 -0.01631
58.25 -0.01743
58.3 -0.01273
58.35 -0.01292
58.4 -0.00738
58.45 -0.00447
58.5 -0.0063
58.55 -0.00473
58.6 0.00049
58.65 0.00311
58.7 0.00887
58.75 0.00964
58.8 0.00886
58.85 0.00903
58.9 0.00798
58.95 0.00416
59 -0.00056
59.05 -0.00223
59.1 -0.00545
59.15 -0.0037
59.2 -0.00456
59.25 -0.0054
59.3 -0.00423
59.35 -0.00224
59.4 -0.00174
59.45 -0.00465
59.5 -0.00726
59.55 -0.01045
59.6 -0.0086
59.65 -0.00212
59.7 0.00541
59.75 0.0126
59.8 0.01804
59.85 0.01731
59.9 0.01633
59.95 0.01487
60 0.01209
60.05 0.011
60.1 0.00987
60.15 0.00369
60.2 -0.00071
60.25 -0.00755
60.3 -0.00777
60.35 -0.01132
60.4 -0.01671
60.45 -0.01504
60.5 -0.01306
60.55 -0.0123
60.6 -0.01465
60.65 -0.01611
60.7 -0.01388
60.75 -0.01431
60.8 -0.01682
60.85 -0.01845
60.9 -0.01659
60.95 -0.01582
61 -0.01418
61.05 -0.00827
61.1 -0.00231
61.15 0.0061
61.2 0.00819
61.25 0.01228
61.3 0.01326
61.35 0.01082
61.4 0.00909
61.45 0.01002
61.5 0.00728
61.55 0.00846
61.6 0.00979
61.65 0.00616
61.7 -0.00059
61.75 -0.0037
61.8 -0.00976
61.85 -0.01009
61.9 -0.0053
61.95 -0.0018
62 0.00011
62.05 0.0017
62.1 0.00709
62.15 0.00758
62.2 0.00515
62.25 0.00776
62.3 0.01215
62.35 0.0103
62.4 0.01171
62.45 0.01311
62.5 0.00947
62.55 0.00223
62.6 -0.00604
62.65 -0.01265
62.7 -0.01731
62.75 -0.01713
62.8 -0.01466
62.85 -0.01062
62.9 -0.00954
62.95 -0.00954
63 -0.00987
63.05 -0.00652
63.1 -0.0061
63.15 -0.00626
63.2 -0.00493
63.25 -0.00424
63.3 -0.00382
63.35 0.00077
63.4 0.00731
63.45 0.00708
63.5 0.00397
63.55 0.00579
63.6 0.00952
63.65 0.00938
63.7 0.01101
63.75 0.01583
63.8 0.01666
63.85 0.01196
63.9 0.0093
63.95 0.00312
64 -0.00081
64.05 -0.00504
64.1 -0.00702
64.15 -0.00565
64.2 -0.00037
64.25 0.00083
64.3 -0.00136
64.35 -0.0031
64.4 -0.002
64.45 0.00209
64.5 0.00549
64.55 0.01067
64.6 0.01149
64.65 0.0105
64.7 0.00984
64.75 0.00403
64.8 0.00428
64.85 0.00735
64.9 0.00425
64.95 0.00183
65 0.00285
65.05 0.00671
65.1 0.00947
65.15 0.00964
65.2 0.0132
65.25 0.0183
65.3 0.01883
65.35 0.01372
65.4 0.0132
65.45 0.01574
65.5 0.01345
65.55 0.014
65.6 0.00953
65.65 0.00457
65.7 -0.00228
65.75 -0.00388
65.8 -0.00099
65.85 0.00362
65.9 0.0034
65.95 0.00403
66 0.00138
66.05 -0.00339
66.1 -0.00405
66.15 -0.00292
66.2 0.0014
66.25 0.00731
66.3 0.01202
66.35 0.01397
66.4 0.00991
66.45 0.00574
66.5 0.00593
66.55 0.00931
66.6 0.01015
66.65 0.01272
66.7 0.01756
66.75 0.02245
66.8 0.02367
66.85 0.02073
66.9 0.01945
66.95 0.01317
67 0.00476
67.05 0.00063
67.1 0.00151
67.15 0.00045
67.2 -0.0018
67.25 -0.00524
67.3 -0.01019
67.35 -0.0087
67.4 -0.0031
67.45 -0.0028
67.5 -0.00061
67.55 0.00337
67.6 0.00903
67.65 0.01166
67.7 0.0072
67.75 0.00389
67.8 -0.00072
67.85 -0.00033
67.9 0.00287
67.95 0.00169
68 -0.00204
68.05 -0.00157
68.1 -0.0036
68.15 -0.00159
68.2 0.00038
68.25 -0.003
68.3 -0.00875
68.35 -0.01149
68.4 -0.01126
68.45 -0.01253
68.5 -0.01686
68.55 -0.0172
68.6 -0.01511
68.65 -0.00932
68.7 -0.0011
68.75 0.00181
68.8 0.00349
68.85 0.0012
68.9 0.00123
68.95 0.00203
69 0.00083
69.05 0.00418
69.1 0.00637
69.15 0.00983
69.2 0.01276
69.25 0.01664
69.3 0.01436
69.35 0.00731
69.4 0.00294
69.45 -0.00463
69.5 -0.00635
69.55 -0.00392
69.6 -0.00532
69.65 -0.00878
69.7 -0.01125
69.75 -0.01413
69.8 -0.0198
69.85 -0.01857
69.9 -0.01777
69.95 -0.01416
70 -0.00887
70.05 -0.00966
70.1 -0.01034
70.15 -0.01262
70.2 -0.01479
70.25 -0.0114
70.3 -0.00657
70.35 -0.00605
70.4 -0.00503
70.45 -0.00512
70.5 -0.00949
70.55 -0.01623
70.6 -0.01867
70.65 -0.01551
70.7 -0.0108
70.75 -0.01107
70.8 -0.01262
70.85 -0.00816
70.9 -0.00641
70.95 -0.00943
71 -0.00929
71.05 -0.00398
71.1 0.00052
71.15 0.00529
71.2 0.01202
71.25 0.0158
71.3 0.0163
71.35 0.01159
71.4 0.00303
71.45 -0.00683
71.5 -0.00932
71.55 -0.00965
71.6 -0.00845
71.65 -0.00838
71.7 -0.00635
71.75 -0.00056
71.8 0.00529
71.85 0.00575
71.9 0.00357
71.95 0.00316
72 0.0023
72.05 -0
72.1 -0.00317
72.15 -0.00826
72.2 -0.0131
72.25 -0.01933
72.3 -0.0198
72.35 -0.0215
72.4 -0.0195
72.45 -0.0129
72.5 -0.00749
72.55 -0.00339
72.6 -0.00116
72.65 0.00448
72.7 0.00727
72.75 0.00416
72.8 0.00474
72.85 0.00082
72.9 -0.00081
72.95 0.00222
73 0.00188
73.05 -0.00158
73.1 -0.00008
73.15 0.00148
73.2 0.0046
73.25 0.00231
73.3 0.00057
73.35 0.00229
73.4 0.00462
73.45 0.00437
73.5 0.00014
73.55 -0.00686
73.6 -0.01374
73.65 -0.01507
73.7 -0.01376
73.75 -0.01209
73.8 -0.0079
73.85 -0.00403
73.9 -0.00348
73.95 -0.00024
74 -0.00026
74.05 0.00373
74.1 0.00262
74.15 -0.00034
74.2 0.00119
74.25 0.00352
74.3 0.00373
74.35 0.00544
74.4 0.00719
74.45 0.01205
74.5 0.01661
74.55 0.01433
74.6 0.01248
74.65 0.00704
74.7 0.00366
74.75 0.00402
74.8 0.00015
74.85 -0.00398
74.9 -0.00598
74.95 -0.00369
75 -0.00189
75.05 -0.00065
75.1 0.00316
75.15 0.00919
75.2 0.0089
75.25 0.00966
75.3 0.0101
75.35 0.00808
75.4 0.00451
75.45 -0.0001
75.5 0.00123
75.55 0.00264
75.6 0.00023
75.65 0.0009
75.7 -0.00125
75.75 -0.00639
75.8 -0.00901
75.85 -0.01131
75.9 -0.01082
75.95 -0.01382
76 -0.0162
76.05 -0.01773
76.1 -0.01987
76.15 -0.0237
76.2 -0.02766
76.25 -0.0296
76.3 -0.02592
76.35 -0.01908
76.4 -0.01113
76.45 -0.00558
76.5 -0.0039
76.55 -0.00688
76.6 -0.00485
76.65 -0.00707
76.7 -0.00643
76.75 -0.00509
76.8 -0.00147
76.85 0.00283
76.9 0.00363
76.95 0.00089
77 -0.00138
77.05 -0.00086
77.1 -0.00394
77.15 -0.00275
77.2 -0.00192
77.25 0.00268
77.3 0.0033
77.35 0.00392
77.4 0.00738
77.45 0.006
77.5 0.00383
77.55 -0.00112
77.6 -0.00147
77.65 -0.00074
77.7 0.00038
77.75 0.00449
77.8 0.01017
77.85 0.01129
77.9 0.00705
77.95 0.00049
78 -0.00036
78.05 -0.00531
78.1 -0.0107
78.15 -0.01093
78.2 -0.01435
78.25 -0.01344
78.3 -0.01007
78.35 -0.00702
78.4 -0.00449
78.45 -0.00651
78.5 -0.00714
78.55 -0.00823
78.6 -0.00983
78.65 -0.01179
78.7 -0.01364
78.75 -0.0131
78.8 -0.00705
78.85 -0.00381
78.9 0.00219
78.95 0.01017
79 0.01409
79.05 0.01615
79.1 0.01281
79.15 0.01438
79.2 0.01573
79.25 0.01607
79.3 0.01905
79.35 0.02358
79.4 0.02234
79.45 0.02143
79.5 0.0178
79.55 0.01202
79.6 0.00675
79.65 -0.00051
79.7 -0.00292
79.75 -0.00545
79.8 -0.00801
79.85 -0.00965
79.9 -0.00844
79.95 -0.00275
80 0.00423
80.05 0.00618
80.1 0.00781
80.15 0.0116
80.2 0.01367
80.25 0.01795
80.3 0.01974
80.35 0.0226
80.4 0.02043
80.45 0.01677
80.5 0.00991
80.55 0.00638
80.6 0.0058
80.65 0.00247
80.7 0.00135
80.75 -0.00088
80.8 0.00083
80.85 0.00324
80.9 0.00497
80.95 0.00314
81 -0.00104
81.05 -0.0052
81.1 -0.00862
81.15 -0.01059
81.2 -0.01061
81.25 -0.00532
81.3 -0.00047
81.35 -0.00063
81.4 -0.00432
81.45 -0.00934
81.5 -0.00764
81.55 -0.0037
81.6 -0.00552
81.65 -0.00851
81.7 -0.00684
81.75 -0.00123
81.8 0.00411
81.85 0.01115
81.9 0.01518
81.95 0.01861
82 0.02348
82.05 0.02095
82.1 0.01459
82.15 0.01082
82.2 0.01112
82.25 0.00802
82.3 0.00848
82.35 0.00878
82.4 0.01227
82.45 0.01363
82.5 0.01302
82.55 0.01102
82.6 0.0061
82.65 0.00293
82.7 0.00138
82.75 0.00127
82.8 -0.0008
82.85 -0.00172
82.9 -0.00486
82.95 -0.00818
83 -0.01163
83.05 -0.01383
83.1 -0.01255
83.15 -0.01561
83.2 -0.01947
83.25 -0.02513
83.3 -0.0271
83.35 -0.02263
83.4 -0.0152
83.45 -0.00897
83.5 -0.00797
83.55 -0.00786
83.6 -0.00261
83.65 -0.0016
83.7 -0.00143
83.75 -0.00546
83.8 -0.00421
83.85 -0.0055
83.9 -0.00594
83.95 -0.00325
84 -0.00531
84.05 -0.00671
84.1 -0.00723
84.15 -0.00566
84.2 -0.00092
84.25 -0.0016
84.3 -0.00288
84.35 -0.00396
84.4 -0.00881
84.45 -0.00857
84.5 -0.00533
84.55 -0.00293
84.6 -0.00375
84.65 -0.00775
84.7 -0.01186
84.75 -0.0104
84.8 -0.00543
84.85 -0.00303
84.9 -0.00026
84.95 0.00045
85 0.00357
85.05 0.00765
85.1 0.014
85.15 0.02022
85.2 0.02211
85.25 0.01934
85.3 0.01954
85.35 0.01518
85.4 0.01357
85.45 0.01578
85.5 0.01339
85.55 0.0065
85.6 0.00395
85.65 0.00316
85.7 0.00044
85.75 0.00213
85.8 0.0013
85.85 -0.0001
85.9 -0.00236
85.95 -0.00509
86 -0.00824
86.05 -0.00823
86.1 -0.00573
86.15 -0.00748
86.2 -0.00826
86.25 -0.00541
86.3 0.00092
86.35 0.00373
86.4 0.00478
86.45 0.00225
86.5 0.00351
86.55 0.00666
86.6 0.00818
86.65 0.00648
86.7 0.00747
86.75 0.01123
86.8 0.01324
86.85 0.01082
86.9 0.00455
86.95 -0.00471
87 -0.00982
87.05 -0.01453
87.1 -0.02074
87.15 -0.02378
87.2 -0.02461
87.25 -0.02627
87.3 -0.02774
87.35 -0.02612
87.4 -0.02196
87.45 -0.01672
87.5 -0.01593
87.55 -0.01717
87.6 -0.01187
87.65 -0.00301
87.7 0.00603
87.75 0.01171
87.8 0.01274
87.85 0.01048
87.9 0.01266
87.95 0.01009
88 0.00734
88.05 0.00739
88.1 0.00688
88.15 0.01026
88.2 0.01175
88.25 0.01564
88.3 0.0165
88.35 0.01172
88.4 0.01115
88.45 0.01296
88.5 0.01511
88.55 0.01301
88.6 0.01392
88.65 0.01775
88.7 0.01985
88.75 0.01936
88.8 0.01917
88.85 0.02011
88.9 0.02066
88.95 0.01762
89 0.01331
89.05 0.01261
89.1 0.01397
89.15 0.01499
89.2 0.01579
89.25 0.01892
89.3 0.01479
89.35 0.00651
89.4 -0.00386
89.45 -0.01386
89.5 -0.01833
89.55 -0.01989
89.6 -0.02175
89.65 -0.0248
89.7 -0.02066
89.75 -0.02111
89.8 -0.01812
89.85 -0.01187
89.9 -0.00639
89.95 0.00163
90 0.00777
90.05 0.01423
90.1 0.01308
90.15 0.01189
90.2 0.00657
90.25 0.00121
90.3 -0.00275
90.35 -0.00306
90.4 -0.00387
90.45 -0.00614
90.5 -0.00818
90.55 -0.01194
90.6 -0.00999
90.65 -0.01176
90.7 -0.00791
90.75 -0.00298
90.8 -0.0039
90.85 -0.00516
90.9 -0.00253
90.95 -0.00295
91 0.00001
91.05 0.00318
91.1 0.00676
91.15 0.00647
91.2 0.00804
91.25 0.00651
91.3 0.00225
91.35 0.00067
91.4 -0.00155
91.45 -0.00296
91.5 -0.00672
91.55 -0.00564
91.6 -0.00257
91.65 0.00311
91.7 0.00283
91.75 -0.00047
91.8 -0.00741
91.85 -0.01026
91.9 -0.00936
91.95 -0.00553
92 -0.00274
92.05 0.00217
92.1 0.00425
92.15 0.00674
92.2 0.01198
92.25 0.01828
92.3 0.01584
92.35 0.01052
92.4 0.00208
92.45 -0.00002
92.5 0.00011
92.55 0.00122
92.6 0.00304
92.65 0.00014
92.7 -0.00344
92.75 -0.00932
92.8 -0.00817
92.85 -0.01038
92.9 -0.00807
92.95 -0.0059
93 -0.00145
93.05 0.00297
93.1 0.00839
93.15 0.01107
93.2 0.01041
93.25 0.00571
93.3 0.00305
93.35 -0.00087
93.4 -0.00039
93.45 0.0014
93.5 0.00282
93.55 -0.00008
93.6 -0.00462
93.65 -0.00531
93.7 -0.00319
93.75 -0.00305
93.8 -0.00181
93.85 -0.00102
93.9 -0.00034
93.95 0.00408
94 0.00732
94.05 0.00695
94.1 0.00988
94.15 0.01002
94.2 0.00963
94.25 0.00535
94.3 0.00422
94.35 0.0015
94.4 0.00275
94.45 0.00441
94.5 0.00858
94.55 0.01356
94.6 0.01407
94.65 0.01371
94.7 0.01476
94.75 0.01298
94.8 0.0107
94.85 0.00998
94.9 0.00805
94.95 0.00592
95 0.00594
95.05 0.00365
95.1 0.0051
95.15 0.00114
95.2 0.00145
95.25 0.00044
95.3 -0.00526
95.35 -0.00455
95.4 -0.00113
95.45 -0.00143
95.5 0.00241
95.55 0.00676
95.6 0.00669
95.65 0.00838
95.7 0.01121
95.75 0.0145
95.8 0.01215
95.85 0.01001
95.9 0.00816
95.95 0.00951
96 0.0103
96.05 0.01196
96.1 0.01216
96.15 0.01056
96.2 0.01042
96.25 0.00879
96.3 0.00777
96.35 0.00899
96.4 0.00671
96.45 0.00767
96.5 0.00767
96.55 0.00751
96.6 0.00709
96.65 0.0062
96.7 -0.00027
96.75 -0.00299
96.8 -0.0067
96.85 -0.00644
96.9 -0.00682
96.95 -0.00329
97 -0.00503
97.05 -0.00903
97.1 -0.00972
97.15 -0.01416
97.2 -0.01491
97.25 -0.01461
97.3 -0.0113
97.35 -0.01164
97.4 -0.01107
97.45 -0.01377
97.5 -0.0161
97.55 -0.01398
97.6 -0.01637
97.65 -0.02055
97.7 -0.02158
97.75 -0.01675
97.8 -0.01016
97.85 -0.00625
97.9 0.00055
97.95 0.00578
98 0.01005
98.05 0.0152
98.1 0.01723
98.15 0.01726
98.2 0.015
98.25 0.00715
98.3 0.00324
98.35 0.00028
98.4 -0.00353
98.45 -0.00657
98.5 -0.01131
98.55 -0.01642
98.6 -0.02141
98.65 -0.02625
98.7 -0.02792
98.75 -0.02601
98.8 -0.02438
98.85 -0.02461
98.9 -0.01887
98.95 -0.01045
99 -0.0013
99.05 0.00701
99.1 0.00774
99.15 0.00532
99.2 -0.00167
99.25 -0.01037
99.3 -0.01143
99.35 -0.00745
99.4 -0.00187
99.45 -0.00141
99.5 -0.00288
99.55 -0.0083
99.6 -0.01165
99.65 -0.01038
99.7 -0.01347
99.75 -0.01265
99.8 -0.01463
99.85 -0.01184
99.9 -0.00641
99.95 0.00093
