0 0
0.05 0.00353
0.1 0.0074
0.15 0.01054
0.2 0.01545
0.25 0.01948
0.3 0.02085
0.35 0.02248
0.4 0.02487
0.45 0.03136
0.5 0.03811
0.55 0.04788
0.6 0.05306
0.65 0.05654
0.7 0.05452
0.75 0.05069
0.8 0.04742
0.85 0.04577
0.9 0.04907
0.95 0.05465
1 0.06088
1.05 0.068
1.1 0.075
1.15 0.07568
1.2 0.06972
1.25 0.0641
1.3 0.05635
1.35 0.04863
1.4 0.04048
1.45 0.03874
1.5 0.04104
1.55 0.04547
1.6 0.04944
1.65 0.05075
1.7 0.05423
1.75 0.05579
1.8 0.0549
1.85 0.05203
1.9 0.04445
1.95 0.0389
2 0.03878
2.05 0.04175
2.1 0.04017
2.15 0.03644
2.2 0.03121
2.25 0.03179
2.3 0.03234
2.35 0.03205
2.4 0.03294
2.45 0.03267
2.5 0.03517
2.55 0.03339
2.6 0.02826
2.65 0.02368
2.7 0.02423
2.75 0.02059
2.8 0.01493
2.85 0.01637
2.9 0.01939
2.95 0.02316
3 0.02959
3.05 0.02912
3.1 0.02853
3.15 0.02655
3.2 0.02282
3.25 0.01566
3.3 0.01119
3.35 0.00905
3.4 0.01131
3.45 0.01401
3.5 0.01896
3.55 0.0228
3.6 0.02511
3.65 0.02761
3.7 0.02466
3.75 0.0213
3.8 0.02245
3.85 0.02581
3.9 0.0282
3.95 0.02824
4 0.02548
4.05 0.0234
4.1 0.01857
4.15 0.01224
4.2 0.00809
4.25 0.00865
4.3 0.00961
4.35 0.01166
4.4 0.00534
4.45 -0.0058
4.5 -0.02144
4.55 -0.03566
4.6 -0.04629
4.65 -0.062
4.7 -0.07969
4.75 -0.10243
4.8 -0.12553
4.85 -0.15119
4.9 -0.17992
4.95 -0.21169
5 -0.24923
5.05 -0.29201
5.1 -0.34068
5.15 -0.39496
5.2 -0.45187
5.25 -0.51961
5.3 -0.59005
5.35 -0.66439
5.4 -0.74658
5.45 -0.8356
5.5 -0.92787
5.55 -1.02077
5.6 -1.12175
5.65 -1.22227
5.7 -1.3274
5.75 -1.43197
5.8 -1.52869
5.85 -1.62375
5.9 -1.71731
5.95 -1.80717
6 -1.89259
6.05 -1.97645
6.1 -2.05363
6.15 -2.12816
6.2 -2.20105
6.25 -2.2681
6.3 -2.32365
6.35 -2.37298
6.4 -2.41607
6.45 -2.45256
6.5 -2.48079
6.55 -2.50454
6.6 -2.5171
6.65 -2.51843
6.7 -2.50823
6.75 -2.48497
6.8 -2.4485
6.85 -2.39893
6.9 -2.32784
6.95 -2.24133
7 -2.13498
7.05 -2.01334
7.1 -1.87997
7.15 -1.73323
7.2 -1.57164
7.25 -1.39949
7.3 -1.21488
7.35 -1.01929
7.4 -0.81782
7.45 -0.61496
7.5 -0.41562
7.55 -0.21097
7.6 -0.01056
7.65 0.18573
7.7 0.38239
7.75 0.5717
7.8 0.74989
7.85 0.91788
7.9 1.0806
7.95 1.23699
8 1.37821
8.05 1.51124
8.1 1.62864
8.15 1.73443
8.2 1.82613
8.25 1.91066
8.3 1.97956
8.35 2.03714
8.4 2.08315
8.45 2.12507
8.5 2.16111
8.55 2.19351
8.6 2.21273
8.65 2.22909
8.7 2.23704
8.75 2.23899
8.8 2.23461
8.85 2.2312
8.9 2.22439
8.95 2.21687
9 2.2097
9.05 2.20143
9.1 2.18626
9.15 2.16989
9.2 2.14863
9.25 2.12309
9.3 2.09832
9.35 2.07891
9.4 2.05682
9.45 2.03518
9.5 2.01128
9.55 1.98192
9.6 1.95124
9.65 1.92277
9.7 1.89001
9.75 1.85832
9.8 1.82856
9.85 1.79379
9.9 1.75864
9.95 1.72221
10 1.6824
10.05 1.6482
10.1 1.61333
10.15 1.57321
10.2 1.53284
10.25 1.48763
10.3 1.43967
10.35 1.39456
10.4 1.34874
10.45 1.3046
10.5 1.26382
10.55 1.21893
10.6 1.1701
10.65 1.11879
10.7 1.06971
10.75 1.02015
10.8 0.97625
10.85 0.93719
10.9 0.89831
10.95 0.85381
11 0.80493
11.05 0.75682
11.1 0.71213
11.15 0.66913
11.2 0.62332
11.25 0.57662
11.3 0.53546
11.35 0.4982
11.4 0.45651
11.45 0.41987
11.5 0.38034
11.55 0.34491
11.6 0.31318
11.65 0.27996
11.7 0.2452
11.75 0.2128
11.8 0.17679
11.85 0.13768
11.9 0.10494
11.95 0.07079
12 0.03958
12.05 0.00952
12.1 -0.01417
12.15 -0.03779
12.2 -0.06326
12.25 -0.0857
12.3 -0.10865
12.35 -0.12802
12.4 -0.14553
12.45 -0.167
12.5 -0.18629
12.55 -0.20335
12.6 -0.22195
12.65 -0.2405
12.7 -0.25787
12.75 -0.27328
12.8 -0.28726
12.85 -0.30096
12.9 -0.31322
12.95 -0.32498
13 -0.3308
13.05 -0.33937
13.1 -0.34794
13.15 -0.35091
13.2 -0.35589
13.25 -0.36413
13.3 -0.37387
13.35 -0.38131
13.4 -0.38329
13.45 -0.38787
13.5 -0.38546
13.55 -0.38082
13.6 -0.37937
13.65 -0.376
13.7 -0.37666
13.75 -0.37365
13.8 -0.37161
13.85 -0.3744
13.9 -0.37533
13.95 -0.37629
14 -0.37518
14.05 -0.37242
14.1 -0.36601
14.15 -0.36393
14.2 -0.36407
14.25 -0.36521
14.3 -0.36606
14.35 -0.3606
14.4 -0.35267
14.45 -0.34507
14.5 -0.33893
14.55 -0.32915
14.6 -0.31876
14.65 -0.31491
14.7 -0.30801
14.75 -0.30597
14.8 -0.3001
14.85 -0.29781
14.9 -0.3002
14.95 -0.30277
15 -0.30561
15.05 -0.30875
15.1 -0.31178
15.15 -0.30916
15.2 -0.30519
15.25 -0.29664
15.3 -0.28938
15.35 -0.28
15.4 -0.27511
15.45 -0.26889
15.5 -0.26425
15.55 -0.25862
15.6 -0.25714
15.65 -0.2561
15.7 -0.25751
15.75 -0.25296
15.8 -0.25183
15.85 -0.25205
15.9 -0.24536
15.95 -0.23995
16 -0.23295
16.05 -0.23029
16.1 -0.23096
16.15 -0.22693
16.2 -0.22542
16.25 -0.22339
16.3 -0.21553
16.35 -0.20976
16.4 -0.20505
16.45 -0.20363
16.5 -0.2035
16.55 -0.19951
16.6 -0.19334
16.65 -0.1839
16.7 -0.17425
16.75 -0.1686
16.8 -0.16921
16.85 -0.17026
16.9 -0.17034
16.95 -0.1707
17 -0.17004
17.05 -0.17038
17.1 -0.1731
17.15 -0.17684
17.2 -0.17322
17.25 -0.17048
17.3 -0.16391
17.35 -0.15769
17.4 -0.15574
17.45 -0.14974
17.5 -0.13987
17.55 -0.13695
17.6 -0.1312
17.65 -0.12808
17.7 -0.1278
17.75 -0.12396
17.8 -0.11912
17.85 -0.11196
17.9 -0.10787
17.95 -0.10778
18 -0.10412
18.05 -0.10153
18.1 -0.10237
18.15 -0.10511
18.2 -0.10561
18.25 -0.1041
18.3 -0.10656
18.35 -0.10327
18.4 -0.10515
18.45 -0.10314
18.5 -0.10089
18.55 -0.09935
18.6 -0.0973
18.65 -0.09649
18.7 -0.09334
18.75 -0.08702
18.8 -0.08567
18.85 -0.08394
18.9 -0.08396
18.95 -0.08717
19 -0.08775
19.05 -0.08972
19.1 -0.09059
19.15 -0.08613
19.2 -0.08478
19.25 -0.08624
19.3 -0.08613
19.35 -0.08245
19.4 -0.08005
19.45 -0.07551
19.5 -0.0739
19.55 -0.06855
19.6 -0.06621
19.65 -0.06908
19.7 -0.07039
19.75 -0.07115
19.8 -0.06913
19.85 -0.06777
19.9 -0.06414
19.95 -0.06435
20 -0.06642
20.05 -0.06418
20.1 -0.05965
20.15 -0.06028
20.2 -0.06155
20.25 -0.05992
20.3 -0.05728
20.35 -0.05968
20.4 -0.05788
20.45 -0.05899
20.5 -0.06012
20.55 -0.06249
20.6 -0.0589
20.65 -0.06029
20.7 -0.05797
20.75 -0.05754
20.8 -0.05703
20.85 -0.05727
20.9 -0.06032
20.95 -0.05687
21 -0.05133
21.05 -0.0509
21.1 -0.04809
21.15 -0.04957
21.2 -0.04898
21.25 -0.0461
21.3 -0.0427
21.35 -0.04149
21.4 -0.04067
21.45 -0.04214
21.5 -0.03979
21.55 -0.03899
21.6 -0.03442
21.65 -0.02715
21.7 -0.0215
21.75 -0.01715
21.8 -0.01358
21.85 -0.01493
21.9 -0.01845
21.95 -0.02421
22 -0.0305
22.05 -0.03177
22.1 -0.03142
22.15 -0.03168
22.2 -0.02881
22.25 -0.03105
22.3 -0.03341
22.35 -0.03886
22.4 -0.0405
22.45 -0.03649
22.5 -0.03482
22.55 -0.03397
22.6 -0.02971
22.65 -0.02612
22.7 -0.02278
22.75 -0.01849
22.8 -0.01198
22.85 -0.0095
22.9 -0.01245
22.95 -0.01205
23 -0.00887
23.05 -0.00353
23.1 -0.00106
23.15 -0.00109
23.2 -0.00038
23.25 -0.00438
23.3 -0.00538
23.35 -0.00632
23.4 -0.01095
23.45 -0.01603
23.5 -0.0244
23.55 -0.02846
23.6 -0.02673
23.65 -0.02455
23.7 -0.02157
23.75 -0.02169
23.8 -0.02029
23.85 -0.0189
23.9 -0.01866
23.95 -0.01755
24 -0.01539
24.05 -0.01317
24.1 -0.01564
24.15 -0.01891
24.2 -0.01701
24.25 -0.01583
24.3 -0.01574
24.35 -0.01285
24.4 -0.00959
24.45 -0.01103
24.5 -0.01285
24.55 -0.01438
24.6 -0.01865
24.65 -0.01968
24.7 -0.02028
24.75 -0.01749
24.8 -0.0148
24.85 -0.0169
24.9 -0.02226
24.95 -0.02825
25 -0.03467
25.05 -0.039
25.1 -0.04274
25.15 -0.042
25.2 -0.04326
25.25 -0.03706
25.3 -0.0265
25.35 -0.01691
25.4 -0.00837
25.45 -0.00436
25.5 0.00128
25.55 -0.0001
25.6 -0.00614
25.65 -0.01181
25.7 -0.01521
25.75 -0.01819
25.8 -0.01584
25.85 -0.01382
25.9 -0.01024
25.95 -0.00427
26 0.0024
26.05 0.00324
26.1 0.00214
26.15 0.00349
26.2 0.00118
26.25 -0.0004
26.3 -0.00678
26.35 -0.01396
26.4 -0.01876
26.45 -0.01769
26.5 -0.01632
26.55 -0.01552
26.6 -0.01415
26.65 -0.01253
26.7 -0.0114
26.75 -0.01136
26.8 -0.01473
26.85 -0.01355
26.9 -0.01041
26.95 -0.00471
27 0.00019
27.05 -0.00034
27.1 -0.00238
27.15 -0.0058
27.2 -0.00592
27.25 -0.01004
27.3 -0.01305
27.35 -0.01689
27.4 -0.02268
27.45 -0.02871
27.5 -0.03467
27.55 -0.03713
27.6 -0.03195
27.65 -0.02222
27.7 -0.01209
27.75 -0.002
27.8 0.00377
27.85 0.00259
27.9 -0.00169
27.95 -0.00565
28 -0.00646
28.05 -0.01109
28.1 -0.01555
28.15 -0.01439
28.2 -0.01683
28.25 -0.0197
28.3 -0.02271
28.35 -0.01834
28.4 -0.01332
28.45 -0.00951
28.5 -0.00902
28.55 -0.00751
28.6 -0.00748
28.65 -0.00599
28.7 -0.00745
28.75 -0.00641
28.8 -0.00132
28.85 -0.00198
28.9 -0.00662
28.95 -0.00581
29 -0.00665
29.05 -0.00298
29.1 0.00075
29.15 0.00661
29.2 0.01046
29.25 0.01385
29.3 0.01357
29.35 0.01432
29.4 0.0128
29.45 0.00737
29.5 -0.00025
29.55 -0.00954
29.6 -0.01069
29.65 -0.01368
29.7 -0.01798
29.75 -0.01884
29.8 -0.01992
29.85 -0.01627
29.9 -0.0149
29.95 -0.00969
30 -0.00503
30.05 -0.00045
30.1 0.00151
30.15 0.00054
30.2 0.00257
30.25 0.00571
30.3 0.00731
30.35 0.00885
30.4 0.00971
30.45 0.00653
30.5 -0.00099
30.55 -0.00638
30.6 -0.00964
30.65 -0.00791
30.7 -0.00584
30.75 -0.00103
30.8 0.00296
30.85 0.00145
30.9 -0.00328
30.95 -0.01032
31 -0.01764
31.05 -0.01738
31.1 -0.01182
31.15 -0.01123
31.2 -0.01007
31.25 -0.00531
31.3 -0.00156
31.35 0.00064
31.4 0.00516
31.45 0.0105
31.5 0.01021
31.55 0.00685
31.6 0.00103
31.65 -0.00753
31.7 -0.00888
31.75 -0.01289
31.8 -0.01377
31.85 -0.00992
31.9 -0.00286
31.95 -0.00173
32 -0.0016
32.05 -0.00039
32.1 -0.00275
32.15 -0.0078
32.2 -0.00629
32.25 -0.00192
32.3 0.00442
32.35 0.00748
32.4 0.00757
32.45 0.00763
32.5 0.01108
32.55 0.01673
32.6 0.02062
32.65 0.02307
32.7 0.02682
32.75 0.02912
32.8 0.03222
32.85 0.02791
32.9 0.01927
32.95 0.01129
33 0.00892
33.05 0.0064
33.1 0.00023
33.15 -0.00734
33.2 -0.00869
33.25 -0.00844
33.3 -0.00442
33.35 -0.0003
33.4 0.00141
33.45 0.00322
33.5 0.00133
33.55 0.00169
33.6 -0.0007
33.65 -0.00041
33.7 0.00069
33.75 0.00091
33.8 0.00039
33.85 -0.00132
33.9 -0.00291
33.95 -0.00282
34 0.00223
34.05 0.00713
34.1 0.01104
34.15 0.01321
34.2 0.01191
34.25 0.0109
34.3 0.01063
34.35 0.01218
34.4 0.01251
34.45 0.0112
34.5 0.01004
34.55 0.01144
34.6 0.01457
34.65 0.01287
34.7 0.00803
34.75 0.00732
34.8 0.00605
34.85 0.0019
34.9 -0.00444
34.95 -0.00743
35 -0.01045
35.05 -0.01236
35.1 -0.01
35.15 -0.00739
35.2 -0.00369
35.25 0.00005
35.3 -0.00162
35.35 -0.00512
35.4 -0.00429
35.45 -0.00479
35.5 -0.00065
35.55 -0.00163
35.6 -0.00556
35.65 -0.00985
35.7 -0.01147
35.75 -0.01038
35.8 -0.00563
35.85 -0.00378
35.9 -0.00161
35.95 -0.00244
36 -0.0009
36.05 -0.00422
36.1 -0.01039
36.15 -0.01703
36.2 -0.01639
36.25 -0.01599
36.3 -0.01772
36.35 -0.01894
36.4 -0.02129
36.45 -0.02242
36.5 -0.02298
36.55 -0.02542
36.6 -0.02289
36.65 -0.02195
36.7 -0.01551
36.75 -0.01075
36.8 -0.00231
36.85 0.00637
36.9 0.01175
36.95 0.01287
37 0.00915
37.05 0.00361
37.1 -0.00192
37.15 -0.00905
37.2 -0.01312
37.25 -0.01054
37.3 -0.00779
37.35 -0.00797
37.4 -0.0055
37.45 -0.00082
37.5 0.00239
37.55 0.00871
37.6 0.01126
37.65 0.01456
37.7 0.01113
37.75 0.00578
37.8 0.00294
37.85 0.00018
37.9 -0.0037
37.95 -0.00369
38 -0.00048
38.05 -0.00276
38.1 -0.00498
38.15 -0.00499
38.2 -0.00154
38.25 -0.0019
38.3 -0.00252
38.35 -0.00019
38.4 -0.00213
38.45 -0.00156
38.5 0.00203
38.55 0.00469
38.6 0.00722
38.65 0.00881
38.7 0.00977
38.75 0.01301
38.8 0.01184
38.85 0.01467
38.9 0.01431
38.95 0.00981
39 0.00354
39.05 0.00066
39.1 0.00243
39.15 0.00546
39.2 0.00504
39.25 0.00114
39.3 -0.00251
39.35 -0.00375
39.4 -0.00758
39.45 -0.01051
39.5 -0.01416
39.55 -0.01214
39.6 -0.01146
39.65 -0.01371
39.7 -0.01454
39.75 -0.01691
39.8 -0.01641
39.85 -0.01771
39.9 -0.01549
39.95 -0.01437
40 -0.01467
40.05 -0.01152
40.1 -0.0041
40.15 0.00093
40.2 0.00637
40.25 0.00762
40.3 0.00699
40.35 0.00781
40.4 0.00641
40.45 0.00482
40.5 0.00357
40.55 -0.00104
40.6 -0.00596
40.65 -0.00793
40.7 -0.00678
40.75 -0.00447
40.8 0.00064
40.85 0.00001
40.9 -0.0044
40.95 -0.00654
41 -0.00473
41.05 -0.00594
41.1 -0.0041
41.15 -0.00641
41.2 -0.00455
41.25 -0.00101
41.3 0.00216
41.35 0.00321
41.4 0.0013
41.45 0.00182
41.5 0.00188
41.55 0.00373
41.6 0.00107
41.65 0.00245
41.7 0.00067
41.75 0.00035
41.8 -0.00249
41.85 -0.00134
41.9 -0.00242
41.95 0.00032
42 0.00335
42.05 0.00917
42.1 0.01665
42.15 0.01579
42.2 0.01297
42.25 0.0117
42.3 0.01196
42.35 0.01512
42.4 0.0135
42.45 0.01092
42.5 0.01046
42.55 0.01234
42.6 0.01286
42.65 0.01052
42.7 0.00708
42.75 0.00252
42.8 0.00129
42.85 0.00172
42.9 0.00569
42.95 0.01172
43 0.01541
43.05 0.01679
43.1 0.01588
43.15 0.01052
43.2 0.00808
43.25 0.0058
43.3 0.00363
43.35 -0.00031
43.4 -0.00374
43.45 -0.00205
43.5 -0.00516
43.55 -0.00815
43.6 -0.01261
43.65 -0.01238
43.7 -0.01107
43.75 -0.01037
43.8 -0.00831
43.85 -0.00314
43.9 0.0023
43.95 0.00881
44 0.01506
44.05 0.01576
44.1 0.01854
44.15 0.02049
44.2 0.01814
44.25 0.01775
44.3 0.01121
44.35 0.00324
44.4 0.00012
44.45 -0.00304
44.5 -0.00963
44.55 -0.01684
44.6 -0.02361
44.65 -0.0255
44.7 -0.0248
44.75 -0.02144
44.8 -0.0193
44.85 -0.01559
44.9 -0.00773
44.95 -0.00235
45 -0.00348
45.05 -0.0015
45.1 0.00192
45.15 0.00765
45.2 0.00989
45.25 0.00955
45.3 0.00722
45.35 0.00374
45.4 -0.00159
45.45 -0.00896
45.5 -0.01461
45.55 -0.01254
45.6 -0.00984
45.65 -0.00324
45.7 -0.00179
45.75 0.00121
45.8 0.00713
45.85 0.00778
45.9 0.01061
45.95 0.01301
46 0.01415
46.05 0.00927
46.1 0.00318
46.15 0.00162
46.2 0.0007
46.25 -0.00041
46.3 -0.00301
46.35 -0.00892
46.4 -0.0115
46.45 -0.01658
46.5 -0.01418
46.55 -0.01371
46.6 -0.01113
46.65 -0.00954
46.7 -0.00761
46.75 -0.00295
46.8 0.00262
46.85 0.00503
46.9 0.00521
46.95 0.00301
47 -0.00312
47.05 -0.00323
47.1 -0.00365
47.15 -0.00609
47.2 -0.00416
47.25 -0.00217
47.3 0.00091
47.35 -0.00036
47.4 0.00102
47.45 0.00012
47.5 -0.00186
47.55 -0.00248
47.6 0.00121
47.65 0.00427
47.7 0.01007
47.75 0.01339
47.8 0.01471
47.85 0.01091
47.9 0.00859
47.95 0.00993
48 0.01344
48.05 0.0109
48.1 0.00487
48.15 0.00352
48.2 -0.00087
48.25 -0.00079
48.3 -0.00425
48.35 -0.00664
48.4 -0.01105
48.45 -0.01759
48.5 -0.01843
48.55 -0.01654
48.6 -0.01211
48.65 -0.00941
48.7 -0.00353
48.75 -0.00331
48.8 -0.00204
48.85 0.00209
48.9 0.00799
48.95 0.01275
49 0.01138
49.05 0.00915
49.1 0.00344
49.15 0.0013
49.2 0.00427
49.25 0.00699
49.3 0.00467
49.35 -0.00096
49.4 -0.00053
49.45 -0.00368
49.5 -0.0074
49.55 -0.01352
49.6 -0.0182
49.65 -0.01689
49.7 -0.01195
49.75 -0.00612
49.8 0.00226
49.85 0.00549
49.9 0.00529
49.95 0.00883
50 0.00742
50.05 0.00615
50.1 0.00193
50.15 0.00066
50.2 -0.00049
50.25 -0.00347
50.3 -0.00817
50.35 -0.01496
50.4 -0.0169
50.45 -0.01983
50.5 -0.01906
50.55 -0.02084
50.6 -0.01725
50.65 -0.01159
50.7 -0.0113
50.75 -0.01322
50.8 -0.01687
50.85 -0.02129
50.9 -0.02619
50.95 -0.02354
51 -0.01673
51.05 -0.01206
51.1 -0.00463
51.15 0.00259
51.2 0.0046
51.25 0.00431
51.3 0.00488
51.35 0.00208
51.4 -0.00019
51.45 0.00268
51.5 0.00585
51.55 0.01143
51.6 0.0133
51.65 0.01602
51.7 0.01737
51.75 0.0142
51.8 0.01549
51.85 0.01169
51.9 0.01075
51.95 0.00569
52 -0.00199
52.05 -0.00492
52.1 -0.00819
52.15 -0.01064
52.2 -0.00926
52.25 -0.00404
52.3 0.00088
52.35 0.00576
52.4 0.00908
52.45 0.00882
52.5 0.01008
52.55 0.01399
52.6 0.01219
52.65 0.00602
52.7 -0.00137
52.75 -0.00283
52.8 -0.00143
52.85 -0.00314
52.9 -0.005
52.95 -0.00925
53 -0.01577
53.05 -0.01942
53.1 -0.01909
53.15 -0.01576
53.2 -0.01088
53.25 -0.00519
53.3 0.00002
53.35 0.0053
53.4 0.00759
53.45 0.00544
53.5 0.00121
53.55 -0.00579
53.6 -0.01196
53.65 -0.01089
53.7 -0.00908
53.75 -0.01003
53.8 -0.00838
53.85 -0.01107
53.9 -0.00839
53.95 -0.00617
54 -0.00165
54.05 0.00012
54.1 0.00325
54.15 0.00179
54.2 0.00148
54.25 -0.00285
54.3 -0.00499
54.35 -0.00463
54.4 0.00029
54.45 0.00034
54.5 -0.00063
54.55 0.00176
54.6 -0.00104
54.65 -0.00718
54.7 -0.00742
54.75 -0.00687
54.8 -0.00192
54.85 -0.00021
54.9 0.00066
54.95 -0.00103
55 -0.00596
55.05 -0.00432
55.1 -0.00704
55.15 -0.0106
55.2 -0.0091
55.25 -0.0073
55.3 -0.00344
55.35 -0.00284
55.4 0.00198
55.45 0.00961
55.5 0.01785
55.55 0.01801
55.6 0.01713
55.65 0.01581
55.7 0.01096
55.75 0.00781
55.8 0.00327
55.85 -0.00293
55.9 -0.00449
55.95 -0.00666
56 -0.00484
56.05 -0.00166
56.1 0.00067
56.15 -0.00095
56.2 -0.00359
56.25 -0.00075
56.3 0.00235
56.35 0.00306
56.4 0.00171
56.45 -0.00335
56.5 -0.00671
56.55 -0.008
56.6 -0.00586
56.65 -0.00396
56.7 -0.00438
56.75 -0.00645
56.8 -0.00393
56.85 -0.00537
56.9 -0.00834
56.95 -0.01094
57 -0.01218
57.05 -0.01182
57.1 -0.01004
57.15 -0.00451
57.2 0.00264
57.25 0.00645
57.3 0.0076
57.35 0.00431
57.4 0.00229
57.45 0.00562
57.5 0.00901
57.55 0.00862
57.6 0.01045
57.65 0.01116
57.7 0.00705
57.75 0.00192
57.8 -0.00104
57.85 0.0009
57.9 0.00588
57.95 0.01118
58 0.01229
58.05 0.00744
58.1 -0.00073
58.15 -0.00968
58.2 -0.01095
58.25 -0.00863
58.3 -0.00324
58.35 0.00136
58.4 0.0061
58.45 0.01248
58.5 0.01601
58.55 0.01466
58.6 0.01438
58.65 0.00953
58.7 0.0032
58.75 -0.00389
58.8 -0.00766
58.85 -0.00829
58.9 -0.01209
58.95 -0.01475
59 -0.0109
59.05 -0.00376
59.1 -0.0027
59.15 -0.00356
59.2 -0.00432
59.25 -0.00185
59.3 0.00194
59.35 0.00014
59.4 -0.00329
59.45 -0.00287
59.5 -0.00628
59.55 -0.00526
59.6 -0.00553
59.65 -0.00309
59.7 0.00254
59.75 0.00945
59.8 0.01413
59.85 0.02044
59.9 0.025
59.95 0.02546
60 0.02444
60.05 0.02466
60.1 0.02637
60.15 0.02277
60.2 0.0182
60.25 0.01668
60.3 0.0106
60.35 0.00492
60.4 0.00214
60.45 -0.00182
60.5 -0.00649
60.55 -0.00633
60.6 -0.00588
60.65 -0.0083
60.7 -0.00973
60.75 -0.01375
60.8 -0.01539
60.85 -0.01317
60.9 -0.01214
60.95 -0.0134
61 -0.01004
61.05 -0.00558
61.1 -0.0034
61.15 -0.00234
61.2 -0.00371
61.25 -0.00777
61.3 -0.00862
61.35 -0.01291
61.4 -0.01776
61.45 -0.01585
61.5 -0.01093
61.55 -0.01097
61.6 -0.00791
61.65 -0.00596
61.7 -0.00062
61.75 0.00309
61.8 0.00447
61.85 0.00569
61.9 0.00844
61.95 0.01176
62 0.01382
62.05 0.01602
62.1 0.01703
62.15 0.01322
62.2 0.00833
62.25 0.00479
62.3 0.00009
62.35 -0.00614
62.4 -0.00781
62.45 -0.00857
62.5 -0.00582
62.55 -0.00469
62.6 0.00055
62.65 0.00282
62.7 0.00419
62.75 0.00408
62.8 0.0053
62.85 0.00763
62.9 0.00483
62.95 0.0055
63 0.00534
63.05 0.00398
63.1 0.00037
63.15 0.00207
63.2 0.00417
63.25 0.00911
63.3 0.01203
63.35 0.00928
63.4 0.00242
63.45 -0.00477
63.5 -0.01031
63.55 -0.01307
63.6 -0.01019
63.65 -0.00307
63.7 0.00057
63.75 -0.00043
63.8 -0.00327
63.85 -0.00152
63.9 0.00031
63.95 0.00418
64 0.00838
64.05 0.00939
64.1 0.00609
64.15 0.00603
64.2 0.00104
64.25 -0.00006
64.3 -0.00257
64.35 -0.0005
64.4 -0.0038
64.45 -0.01011
64.5 -0.01114
64.55 -0.01555
64.6 -0.01913
64.65 -0.02114
64.7 -0.02267
64.75 -0.01941
64.8 -0.01382
64.85 -0.00954
64.9 -0.00365
64.95 0.00502
65 0.01436
65.05 0.02144
65.1 0.02114
65.15 0.02043
65.2 0.02279
65.25 0.01942
65.3 0.01381
65.35 0.00631
65.4 -0.00304
65.45 -0.01189
65.5 -0.01609
65.55 -0.01777
65.6 -0.01829
65.65 -0.01996
65.7 -0.02355
65.75 -0.02191
65.8 -0.02173
65.85 -0.02058
65.9 -0.01479
65.95 -0.00992
66 -0.01019
66.05 -0.01174
66.1 -0.01195
66.15 -0.01264
66.2 -0.00742
66.25 -0.00079
66.3 -0.00099
66.35 -0.00458
66.4 -0.00176
66.45 -0.00018
66.5 0.00042
66.55 -0.00077
66.6 -0.00311
66.65 -0.00321
66.7 -0.00574
66.75 -0.00716
66.8 -0.0079
66.85 -0.00598
66.9 -0.00663
66.95 -0.00388
67 -0.00196
67.05 0.00257
67.1 0.00695
67.15 0.00703
67.2 0.00245
67.25 0.0026
67.3 0.00143
67.35 0.00167
67.4 0.0003
67.45 -0.00494
67.5 -0.0055
67.55 -0.00168
67.6 0.00234
67.65 0.00264
67.7 0.00097
67.75 -0.0026
67.8 -0.0066
67.85 -0.00445
67.9 -0.00533
67.95 -0.00277
68 -0.00279
68.05 -0.00204
68.1 -0.00006
68.15 -0.00247
68.2 -0.00359
68.25 -0.00499
68.3 -0.00066
68.35 0.00297
68.4 0.00227
68.45 0.00281
68.5 0.00061
68.55 0.00003
68.6 -0.00458
68.65 -0.00238
68.7 0.00197
68.75 0.00676
68.8 0.00674
68.85 0.00218
68.9 0.00314
68.95 0.00107
69 -0.00144
69.05 -0.00401
69.1 -0.00402
69.15 -0.00574
69.2 -0.00355
69.25 0.00081
69.3 -0.00067
69.35 0.00276
69.4 0.00673
69.45 0.00744
69.5 0.00464
69.55 -0.00084
69.6 -0.00501
69.65 -0.00715
69.7 -0.00953
69.75 -0.00587
69.8 -0.0058
69.85 -0.00302
69.9 -0.00515
69.95 -0.00852
70 -0.01182
70.05 -0.00949
70.1 -0.01152
70.15 -0.0124
70.2 -0.01168
70.25 -0.01073
70.3 -0.00716
70.35 0.0002
70.4 0.00651
70.45 0.01451
70.5 0.02292
70.55 0.02315
70.6 0.02563
70.65 0.0207
70.7 0.01186
70.75 0.00293
70.8 -0.00017
70.85 0.00049
70.9 -0.00249
70.95 -0.00156
71 0.00023
71.05 -0.00113
71.1 0.00246
71.15 0.00751
71.2 0.01287
71.25 0.01506
71.3 0.01761
71.35 0.01608
71.4 0.01338
71.45 0.01101
71.5 0.01275
71.55 0.01432
71.6 0.01582
71.65 0.01958
71.7 0.01929
71.75 0.02146
71.8 0.01941
71.85 0.01507
71.9 0.01428
71.95 0.01594
72 0.01487
72.05 0.0166
72.1 0.01283
72.15 0.00809
72.2 0.00155
72.25 -0.00729
72.3 -0.01285
72.35 -0.01148
72.4 -0.00701
72.45 -0.00644
72.5 -0.00143
72.55 0.00171
72.6 0.00084
72.65 0.00401
72.7 0.00469
72.75 0.00587
72.8 0.00393
72.85 0.00276
72.9 0.00618
72.95 0.00869
73 0.00753
73.05 0.00463
73.1 0.0002
73.15 -0.00734
73.2 -0.01225
73.25 -0.01433
73.3 -0.01758
73.35 -0.01524
73.4 -0.01307
73.45 -0.00783
73.5 -0.00516
73.55 -0.00055
73.6 0.0017
73.65 0.00425
73.7 0.0063
73.75 0.00689
73.8 0.01096
73.85 0.00844
73.9 0.00592
73.95 0.0029
74 0.00146
74.05 -0.00436
74.1 -0.0097
74.15 -0.01411
74.2 -0.01885
74.25 -0.01615
74.3 -0.01675
74.35 -0.01266
74.4 -0.01178
74.45 -0.01034
74.5 -0.00747
74.55 -0.00054
74.6 0.00275
74.65 0.00913
74.7 0.01164
74.75 0.00906
74.8 0.0021
74.85 0.00009
74.9 -0.00373
74.95 -0.00837
75 -0.01266
75.05 -0.01885
75.1 -0.02413
75.15 -0.0288
75.2 -0.03394
75.25 -0.0328
75.3 -0.03059
75.35 -0.02523
75.4 -0.01537
75.45 -0.00671
75.5 -0.00015
75.55 0.00174
75.6 0.00289
75.65 0.00014
75.7 0.00258
75.75 0.00607
75.8 0.00355
75.85 0.00615
75.9 0.00331
75.95 0.0005
76 0.00028
76.05 0.00192
76.1 0.00542
76.15 0.00292
76.2 0.00502
76.25 0.00585
76.3 0.00796
76.35 0.00441
76.4 0.00577
76.45 0.00506
76.5 0.0069
76.55 0.00602
76.6 0.00067
76.65 -0.00614
76.7 -0.00895
76.75 -0.00853
76.8 -0.00409
76.85 0.00211
76.9 0.01018
76.95 0.01082
77 0.00966
77.05 0.00819
77.1 0.00671
77.15 0.00343
77.2 0.0025
77.25 -0.0016
77.3 -0.00254
77.35 -0.00006
77.4 -0.00093
77.45 -0.0049
77.5 -0.00448
77.55 -0.00106
77.6 -0.00289
77.65 -0.00443
77.7 -0.00622
77.75 -0.00321
77.8 0.0029
77.85 0.00384
77.9 0.00782
77.95 0.00576
78 0.00483
78.05 0.00304
78.1 0.0063
78.15 0.00599
78.2 0.00248
78.25 -0.00247
78.3 -0.00089
78.35 0.00047
78.4 -0.00009
78.45 -0.00254
78.5 -0.00504
78.55 -0.01075
78.6 -0.01769
78.65 -0.01783
78.7 -0.01256
78.75 -0.01233
78.8 -0.01041
78.85 -0.00522
78.9 -0.00143
78.95 0.00445
79 0.00609
79.05 0.00871
79.1 0.01175
79.15 0.0164
79.2 0.02255
79.25 0.02452
79.3 0.02552
79.35 0.02526
79.4 0.02499
79.45 0.02126
79.5 0.01984
79.55 0.01255
79.6 0.00683
79.65 0.00564
79.7 0.00743
79.75 0.00698
79.8 0.00485
79.85 0.00327
79.9 0.00448
79.95 0.00099
80 0.00138
80.05 0.00186
80.1 -0.0017
80.15 -0.00622
80.2 -0.0046
80.25 -0.00139
80.3 -0.00292
80.35 -0.00181
80.4 0.00181
80.45 0.00063
80.5 -0.00403
80.55 -0.01131
80.6 -0.018
80.65 -0.0253
80.7 -0.02439
80.75 -0.02515
80.8 -0.02595
80.85 -0.02147
80.9 -0.02046
80.95 -0.01502
81 -0.00912
81.05 -0.00425
81.1 -0.00297
81.15 0.00091
81.2 0.00419
81.25 0.01043
81.3 0.01001
81.35 0.00885
81.4 0.00567
81.45 0.00696
81.5 0.00946
81.55 0.01083
81.6 0.009
81.65 0.00246
81.7 -0.00039
81.75 0.00031
81.8 -0.00291
81.85 -0.00938
81.9 -0.00852
81.95 -0.01125
82 -0.01623
82.05 -0.01783
82.1 -0.01716
82.15 -0.0162
82.2 -0.01001
82.25 -0.00628
82.3 -0.00221
82.35 -0.00386
82.4 -0.0078
82.45 -0.00965
82.5 -0.01374
82.55 -0.01649
82.6 -0.01306
82.65 -0.00746
82.7 -0.00549
82.75 0.00038
82.8 0.00681
82.85 0.00911
82.9 0.01285
82.95 0.01412
83 0.01013
83.05 0.00691
83.1 0.00308
83.15 -0.00367
83.2 -0.0071
83.25 -0.01012
83.3 -0.01534
83.35 -0.01359
83.4 -0.00754
83.45 -0.00385
83.5 -0.00187
83.55 -0.00333
83.6 -0.00639
83.65 -0.01155
83.7 -0.01765
83.75 -0.02172
83.8 -0.02106
83.85 -0.01811
83.9 -0.012
83.95 -0.00558
84 -0.00482
84.05 -0.00743
84.1 -0.00863
84.15 -0.00891
84.2 -0.0038
84.25 -0.00053
84.3 0.00021
84.35 0.00416
84.4 0.01066
84.45 0.01625
84.5 0.02018
84.55 0.02034
84.6 0.02143
84.65 0.02352
84.7 0.02434
84.75 0.02694
84.8 0.02224
84.85 0.01805
84.9 0.01619
84.95 0.01038
85 0.00973
85.05 0.0084
85.1 0.00934
85.15 0.00946
85.2 0.00524
85.25 0.00235
85.3 0.00118
85.35 0.00238
85.4 0.0023
85.45 0.00027
85.5 -0.00569
85.55 -0.00667
85.6 -0.0088
85.65 -0.01297
85.7 -0.0108
85.75 -0.01204
85.8 -0.00822
85.85 -0.00939
85.9 -0.0113
85.95 -0.00959
86 -0.00348
86.05 0.00026
86.1 0.00693
86.15 0.0103
86.2 0.00742
86.25 0.00854
86.3 0.00467
86.35 0.00057
86.4 -0.00117
86.45 -0.00576
86.5 -0.00466
86.55 -0.0068
86.6 -0.01097
86.65 -0.01105
86.7 -0.00689
86.75 -0.00379
86.8 -0.00516
86.85 -0.00989
86.9 -0.0083
86.95 -0.00938
87 -0.01256
87.05 -0.0153
87.1 -0.0161
87.15 -0.01144
87.2 -0.01185
87.25 -0.00842
87.3 -0.00258
87.35 0.00341
87.4 0.00352
87.45 0.00388
87.5 0.00044
87.55 -0.0024
87.6 -0.00727
87.65 -0.01391
87.7 -0.01501
87.75 -0.01445
87.8 -0.01347
87.85 -0.0095
87.9 -0.00223
87.95 -0.00086
88 0.00432
88.05 0.00484
88.1 0.00545
88.15 0.00916
88.2 0.008
88.25 0.00691
88.3 0.00655
88.35 0.00848
88.4 0.00511
88.45 0.00167
88.5 -0.00114
88.55 -0.00066
88.6 0.00181
88.65 -0.00024
88.7 -0.00106
88.75 0.00148
88.8 0.00549
88.85 0.01199
88.9 0.01191
88.95 0.01253
89 0.01094
89.05 0.0086
89.1 0.00317
89.15 0.00225
89.2 0.00431
89.25 0.00934
89.3 0.01432
89.35 0.01618
89.4 0.01441
89.45 0.00824
89.5 0.00377
89.55 0.0011
89.6 0.00079
89.65 0.00073
89.7 0.00033
89.75 -0.00383
89.8 -0.00177
89.85 -0.0029
89.9 -0.00103
89.95 -0.00036
90 0.0022
90.05 0.00349
90.1 0.00173
90.15 -0.00331
90.2 -0.00856
90.25 -0.00963
90.3 -0.01335
90.35 -0.01825
90.4 -0.01717
90.45 -0.01453
90.5 -0.0084
90.55 -0.00189
90.6 0.00698
90.65 0.01568
90.7 0.01909
90.75 0.01613
90.8 0.01006
90.85 0.00685
90.9 0.00615
90.95 0.00682
91 0.00936
91.05 0.00982
91.1 0.00698
91.15 0.00035
91.2 -0.00425
91.25 -0.00224
91.3 0.00272
91.35 0.01012
91.4 0.01423
91.45 0.01546
91.5 0.01142
91.55 0.01173
91.6 0.00734
91.65 -0.00065
91.7 -0.00813
91.75 -0.01287
91.8 -0.01849
91.85 -0.01777
91.9 -0.01401
91.95 -0.01295
92 -0.01567
92.05 -0.01262
92.1 -0.01197
92.15 -0.01448
92.2 -0.01757
92.25 -0.02174
92.3 -0.02319
92.35 -0.0189
92.4 -0.01391
92.45 -0.01366
92.5 -0.01351
92.55 -0.01199
92.6 -0.01323
92.65 -0.01498
92.7 -0.01562
92.75 -0.01516
92.8 -0.01315
92.85 -0.01484
92.9 -0.01266
92.95 -0.01178
93 -0.01362
93.05 -0.01342
93.1 -0.0102
93.15 -0.00743
93.2 -0.00624
93.25 -0.00568
93.3 -0.00409
93.35 0.00155
93.4 0.00392
93.45 0.00185
93.5 -0.00045
93.55 -0.00012
93.6 -0.0034
93.65 -0.00489
93.7 -0.00129
93.75 -0.00122
93.8 -0.00488
93.85 -0.01082
93.9 -0.01773
93.95 -0.01931
94 -0.0176
94.05 -0.01116
94.1 -0.00985
94.15 -0.011
94.2 -0.0148
94.25 -0.01765
94.3 -0.01913
94.35 -0.01479
94.4 -0.01308
94.45 -0.00715
94.5 0.00069
94.55 0.00486
94.6 0.0071
94.65 0.00548
94.7 0.00118
94.75 -0.00011
94.8 -0.00051
94.85 0.00364
94.9 0.00398
94.95 0.00736
95 0.00755
95.05 0.00328
95.1 -0.00128
95.15 -0.00641
95.2 -0.00803
95.25 -0.01081
95.3 -0.01065
95.35 -0.00911
95.4 -0.00953
95.45 -0.01068
95.5 -0.00953
95.55 -0.00826
95.6 -0.00262
95.65 0.00289
95.7 0.01029
95.75 0.01038
95.8 0.01217
95.85 0.0121
95.9 0.00751
95.95 0.00695
96 0.01079
96.05 0.00899
96.1 0.01112
96.15 0.01322
96.2 0.01354
96.25 0.01596
96.3 0.01951
96.35 0.018
96.4 0.02053
96.45 0.01876
96.5 0.01458
96.55 0.01343
96.6 0.01247
96.65 0.00865
96.7 0.00993
96.75 0.01298
96.8 0.0151
96.85 0.01251
96.9 0.00904
96.95 0.00538
97 0.00061
97.05 -0.00516
97.1 -0.01028
97.15 -0.01522
97.2 -0.02102
97.25 -0.02179
97.3 -0.02205
97.35 -0.01673
97.4 -0.01007
97.45 -0.00239
97.5 0.00757
97.55 0.01204
97.6 0.01506
97.65 0.01823
97.7 0.01492
97.75 0.01091
97.8 0.00351
97.85 0.00129
97.9 0.00123
97.95 0.00149
98 -0.00199
98.05 -0.00623
98.1 -0.0047
98.15 -0.00534
98.2 -0.0087
98.25 -0.01288
98.3 -0.01312
98.35 -0.01223
98.4 -0.00802
98.45 -0.00192
98.5 0.00349
98.55 0.00947
98.6 0.00975
98.65 0.00871
98.7 0.0038
98.75 0.00104
98.8 0.00082
98.85 -0.00178
98.9 0.00097
98.95 0.0045
99 0.00415
99.05 0.00489
99.1 0.00835
99.15 0.01389
99.2 0.01762
99.25 0.01638
99.3 0.01209
99.35 0.01082
99.4 0.00605
99.45 0.0033
99.5 0.00055
99.55 -0.00198
99.6 -0.00288
99.65 -0.00294
99.7 -0.0016
99.75 -0.0005
99.8 0.0021
99.85 0.00797
99.9 0.01391
99.95 0.0151
