0 0
0.05 0.00062
0.1 0.00414
0.15 0.00956
0.2 0.0168
0.25 0.02163
0.3 0.02528
0.35 0.0339
0.4 0.04442
0.45 0.04935
0.5 0.05205
0.55 0.04996
0.6 0.04936
0.65 0.05172
0.7 0.05628
0.75 0.06023
0.8 0.06381
0.85 0.06461
0.9 0.06605
0.95 0.06879
1 0.07008
1.05 0.07351
1.1 0.06994
1.15 0.06927
1.2 0.07044
1.25 0.07123
1.3 0.06795
1.35 0.06099
1.4 0.05174
1.45 0.04665
1.5 0.0384
1.55 0.03172
1.6 0.02663
1.65 0.02198
1.7 0.02234
1.75 0.02797
1.8 0.02891
1.85 0.02745
1.9 0.02461
1.95 0.02544
2 0.03062
2.05 0.03802
2.1 0.04219
2.15 0.04279
2.2 0.04348
2.25 0.0401
2.3 0.03879
2.35 0.03916
2.4 0.03908
2.45 0.03461
2.5 0.02687
2.55 0.01745
2.6 0.0112
2.65 0.01027
2.7 0.00899
2.75 0.00661
2.8 0.00291
2.85 -0.00131
2.9 -0.00188
2.95 0.00353
3 0.00468
3.05 0.00424
3.1 0.00195
3.15 0.00652
3.2 0.01238
3.25 0.01307
3.3 0.01054
3.35 0.0056
3.4 0.00032
3.45 -0.00109
3.5 0.00487
3.55 0.00561
3.6 0.00387
3.65 0.0049
3.7 0.0028
3.75 0.00424
3.8 0.00364
3.85 0.00622
3.9 0.00961
3.95 0.0152
4 0.01511
4.05 0.01589
4.1 0.01582
4.15 0.01235
4.2 0.00554
4.25 -0.00337
4.3 -0.00535
4.35 -0.0067
4.4 -0.0078
4.45 -0.01347
4.5 -0.01469
4.55 -0.01902
4.6 -0.02987
4.65 -0.04257
4.7 -0.0614
4.75 -0.08114
4.8 -0.10388
4.85 -0.12417
4.9 -0.1531
4.95 -0.18384
5 -0.22309
5.05 -0.26646
5.1 -0.31601
5.15 -0.37008
5.2 -0.42054
5.25 -0.47112
5.3 -0.52456
5.35 -0.58131
5.4 -0.64387
5.45 -0.71415
5.5 -0.78339
5.55 -0.85683
5.6 -0.93349
5.65 -1.01159
5.7 -1.08881
5.75 -1.15929
5.8 -1.22264
5.85 -1.27409
5.9 -1.32084
5.95 -1.36002
6 -1.38966
6.05 -1.41419
6.1 -1.43469
6.15 -1.44882
6.2 -1.45028
6.25 -1.44521
6.3 -1.43289
6.35 -1.40925
6.4 -1.38006
6.45 -1.34224
6.5 -1.29439
6.55 -1.24397
6.6 -1.18546
6.65 -1.12132
6.7 -1.05608
6.75 -0.98732
6.8 -0.90575
6.85 -0.81503
6.9 -0.71956
6.95 -0.61428
7 -0.5028
7.05 -0.38671
7.1 -0.27287
7.15 -0.15558
7.2 -0.03962
7.25 0.07506
7.3 0.19265
7.35 0.30656
7.4 0.41863
7.45 0.53156
7.5 0.64097
7.55 0.74557
7.6 0.84073
7.65 0.92235
7.7 0.99701
7.75 1.06115
7.8 1.11159
7.85 1.15852
7.9 1.1931
7.95 1.21751
8 1.24099
8.05 1.26163
8.1 1.2804
8.15 1.29507
8.2 1.2962
8.25 1.29188
8.3 1.28417
8.35 1.27429
8.4 1.26382
8.45 1.25234
8.5 1.23168
8.55 1.20984
8.6 1.19006
8.65 1.16857
8.7 1.14258
8.75 1.11503
8.8 1.08613
8.85 1.05382
8.9 1.02621
8.95 1.00229
9 0.97534
9.05 0.95196
9.1 0.93217
9.15 0.91437
9.2 0.89274
9.25 0.86982
9.3 0.84195
9.35 0.81681
9.4 0.7894
9.45 0.76332
9.5 0.74326
9.55 0.72379
9.6 0.70472
9.65 0.69115
9.7 0.67751
9.75 0.66056
9.8 0.64778
9.85 0.63155
9.9 0.61839
9.95 0.60655
10 0.59078
10.05 0.57563
10.1 0.55388
10.15 0.53355
10.2 0.51412
10.25 0.4914
10.3 0.47056
10.35 0.44755
10.4 0.42454
10.45 0.40756
10.5 0.39274
10.55 0.38144
10.6 0.37279
10.65 0.35885
10.7 0.34082
10.75 0.32621
10.8 0.30666
10.85 0.28611
10.9 0.26922
10.95 0.25122
11 0.23551
11.05 0.22029
11.1 0.19979
11.15 0.1797
11.2 0.15938
11.25 0.14125
11.3 0.12671
11.35 0.10887
11.4 0.08862
11.45 0.07481
11.5 0.06157
11.55 0.04725
11.6 0.03769
11.65 0.03159
11.7 0.02572
11.75 0.01637
11.8 0.00449
11.85 -0.00665
11.9 -0.01648
11.95 -0.02452
12 -0.03419
12.05 -0.0466
12.1 -0.06317
12.15 -0.07502
12.2 -0.08618
12.25 -0.09887
12.3 -0.10662
12.35 -0.11866
12.4 -0.12869
12.45 -0.13919
12.5 -0.14627
12.55 -0.15425
12.6 -0.15583
12.65 -0.15771
12.7 -0.15904
12.75 -0.1587
12.8 -0.15591
12.85 -0.15612
12.9 -0.1616
12.95 -0.16878
13 -0.16925
13.05 -0.16816
13.1 -0.17011
13.15 -0.17538
13.2 -0.17799
13.25 -0.18431
13.3 -0.18626
13.35 -0.18487
13.4 -0.18547
13.45 -0.18664
13.5 -0.18798
13.55 -0.18438
13.6 -0.17937
13.65 -0.17245
13.7 -0.16866
13.75 -0.16781
13.8 -0.16629
13.85 -0.1638
13.9 -0.15999
13.95 -0.15692
14 -0.15872
14.05 -0.16208
14.1 -0.16552
14.15 -0.1651
14.2 -0.16827
14.25 -0.17158
14.3 -0.17625
14.35 -0.18041
14.4 -0.17737
14.45 -0.17456
14.5 -0.16806
14.55 -0.15765
14.6 -0.15223
14.65 -0.14294
14.7 -0.1356
14.75 -0.1268
14.8 -0.11906
14.85 -0.11358
14.9 -0.10901
14.95 -0.11044
15 -0.11472
15.05 -0.12172
15.1 -0.13031
15.15 -0.13485
15.2 -0.13639
15.25 -0.13765
15.3 -0.13175
15.35 -0.12515
15.4 -0.12349
15.45 -0.123
15.5 -0.12212
15.55 -0.12296
15.6 -0.12312
15.65 -0.11928
15.7 -0.11708
15.75 -0.11348
15.8 -0.11188
15.85 -0.11401
15.9 -0.11451
15.95 -0.11378
16 -0.11601
16.05 -0.11858
16.1 -0.11585
16.15 -0.11566
16.2 -0.11223
16.25 -0.10852
16.3 -0.1023
16.35 -0.09263
16.4 -0.0882
16.45 -0.08005
16.5 -0.07025
16.55 -0.06016
16.6 -0.05405
16.65 -0.0559
16.7 -0.05945
16.75 -0.06449
16.8 -0.06644
16.85 -0.07126
16.9 -0.07402
16.95 -0.07793
17 -0.07893
17.05 -0.07831
17.1 -0.07532
17.15 -0.07384
17.2 -0.07111
17.25 -0.06981
17.3 -0.0698
17.35 -0.06951
17.4 -0.07156
17.45 -0.07536
17.5 -0.07137
17.55 -0.06904
17.6 -0.07063
17.65 -0.0681
17.7 -0.06121
17.75 -0.05237
17.8 -0.0487
17.85 -0.04307
17.9 -0.03559
17.95 -0.03363
18 -0.03631
18.05 -0.03658
18.1 -0.04221
18.15 -0.04577
18.2 -0.04484
18.25 -0.0449
18.3 -0.04354
18.35 -0.03867
18.4 -0.03238
18.45 -0.03303
18.5 -0.03515
18.55 -0.03519
18.6 -0.04019
18.65 -0.04663
18.7 -0.05227
18.75 -0.05582
18.8 -0.05868
18.85 -0.05656
18.9 -0.05161
18.95 -0.04979
19 -0.05133
19.05 -0.04663
19.1 -0.04003
19.15 -0.03278
19.2 -0.0325
19.25 -0.0318
19.3 -0.03281
19.35 -0.03749
19.4 -0.03805
19.45 -0.0409
19.5 -0.04363
19.55 -0.04859
19.6 -0.0454
19.65 -0.0435
19.7 -0.04436
19.75 -0.04435
19.8 -0.04689
19.85 -0.04715
19.9 -0.0431
19.95 -0.03739
20 -0.03425
20.05 -0.02814
20.1 -0.02142
20.15 -0.01626
20.2 -0.01258
20.25 -0.01276
20.3 -0.01573
20.35 -0.01444
20.4 -0.00994
20.45 -0.00877
20.5 -0.01011
20.55 -0.00765
20.6 -0.00347
20.65 -0.00235
20.7 -0.00224
20.75 -0.00186
20.8 -0.0072
20.85 -0.01499
20.9 -0.02101
20.95 -0.02461
21 -0.02998
21.05 -0.03455
21.1 -0.03543
21.15 -0.03516
21.2 -0.03796
21.25 -0.03757
21.3 -0.03427
21.35 -0.03479
21.4 -0.03762
21.45 -0.04049
21.5 -0.04382
21.55 -0.0456
21.6 -0.04146
21.65 -0.03436
21.7 -0.03038
21.75 -0.02584
21.8 -0.02029
21.85 -0.01279
21.9 -0.00429
21.95 -0.00343
22 -0.00716
22.05 -0.00725
22.1 -0.0093
22.15 -0.01063
22.2 -0.01078
22.25 -0.00882
22.3 -0.0054
22.35 -0.0028
22.4 -0.0015
22.45 -0.00284
22.5 -0.00215
22.55 0.00141
22.6 -0.00151
22.65 -0.00439
22.7 -0.00711
22.75 -0.00814
22.8 -0.01293
22.85 -0.01196
22.9 -0.00692
22.95 -0.00189
23 0.00214
23.05 0.00552
23.1 0.00922
23.15 0.01331
23.2 0.01326
23.25 0.01549
23.3 0.01545
23.35 0.01371
23.4 0.01323
23.45 0.00918
23.5 0.0098
23.55 0.01086
23.6 0.0135
23.65 0.01398
23.7 0.01706
23.75 0.01202
23.8 0.00626
23.85 -0.00093
23.9 -0.00558
23.95 -0.00468
24 -0.00158
24.05 0.00391
24.1 0.00925
24.15 0.01283
24.2 0.01194
24.25 0.01359
24.3 0.01306
24.35 0.01205
24.4 0.01393
24.45 0.00848
24.5 0.0065
24.55 0.00778
24.6 0.00586
24.65 0.00101
24.7 -0.00043
24.75 -0.00715
24.8 -0.01257
24.85 -0.01405
24.9 -0.01178
24.95 -0.00914
25 -0.00631
25.05 -0.00685
25.1 -0.01217
25.15 -0.01953
25.2 -0.02354
25.25 -0.02629
25.3 -0.02769
25.35 -0.03056
25.4 -0.0319
25.45 -0.02918
25.5 -0.02379
25.55 -0.02222
25.6 -0.02065
25.65 -0.01648
25.7 -0.0121
25.75 -0.00889
25.8 -0.01006
25.85 -0.00875
25.9 -0.00539
25.95 -0.00352
26 -0.00695
26.05 -0.00803
26.1 -0.00396
26.15 0.00177
26.2 0.00583
26.25 0.00586
26.3 0.00769
26.35 0.00692
26.4 0.00419
26.45 0.0048
26.5 0.00341
26.55 0.00416
26.6 0.00239
26.65 0.00289
26.7 0.00418
26.75 0.00004
26.8 -0.00574
26.85 -0.0089
26.9 -0.01554
26.95 -0.01639
27 -0.01718
27.05 -0.0185
27.1 -0.02207
27.15 -0.02186
27.2 -0.02451
27.25 -0.02495
27.3 -0.0234
27.35 -0.02197
27.4 -0.02123
27.45 -0.01956
27.5 -0.01597
27.55 -0.01264
27.6 -0.00959
27.65 -0.01262
27.7 -0.0147
27.75 -0.01807
27.8 -0.02129
27.85 -0.02904
27.9 -0.0399
27.95 -0.04786
28 -0.05665
28.05 -0.06302
28.1 -0.07251
28.15 -0.07672
28.2 -0.07845
28.25 -0.08226
28.3 -0.09222
28.35 -0.10972
28.4 -0.12689
28.45 -0.14895
28.5 -0.17489
28.55 -0.19668
28.6 -0.22224
28.65 -0.25428
28.7 -0.28643
28.75 -0.31825
28.8 -0.35932
28.85 -0.40388
28.9 -0.45309
28.95 -0.50266
29 -0.56028
29.05 -0.62127
29.1 -0.6824
29.15 -0.74904
29.2 -0.81398
29.25 -0.87646
29.3 -0.94377
29.35 -1.00945
29.4 -1.07612
29.45 -1.14286
29.5 -1.21095
29.55 -1.27846
29.6 -1.34327
29.65 -1.40201
29.7 -1.45542
29.75 -1.50065
29.8 -1.5321
29.85 -1.55866
29.9 -1.57689
29.95 -1.58483
30 -1.5762
30.05 -1.55386
30.1 -1.51745
30.15 -1.4761
30.2 -1.42414
30.25 -1.36289
30.3 -1.29527
30.35 -1.21628
30.4 -1.12929
30.45 -1.03592
30.5 -0.93717
30.55 -0.83252
30.6 -0.72602
30.65 -0.60823
30.7 -0.4856
30.75 -0.36089
30.8 -0.23985
30.85 -0.12187
30.9 -0.00349
30.95 0.11015
31 0.21652
31.05 0.31658
31.1 0.41203
31.15 0.50307
31.2 0.58716
31.25 0.66608
31.3 0.73489
31.35 0.79676
31.4 0.852
31.45 0.89955
31.5 0.94243
31.55 0.97859
31.6 1.01048
31.65 1.03834
31.7 1.06508
31.75 1.09123
31.8 1.11062
31.85 1.13163
31.9 1.15429
31.95 1.17736
32 1.19156
32.05 1.20151
32.1 1.20917
32.15 1.21195
32.2 1.21622
32.25 1.21828
32.3 1.22365
32.35 1.22501
32.4 1.22258
32.45 1.22302
32.5 1.22402
32.55 1.21831
32.6 1.20846
32.65 1.19385
32.7 1.17964
32.75 1.16152
32.8 1.1446
32.85 1.13352
32.9 1.12237
32.95 1.10669
33 1.091
33.05 1.07807
33.1 1.06239
33.15 1.04252
33.2 1.01992
33.25 0.99498
33.3 0.96911
33.35 0.94532
33.4 0.92435
33.45 0.9035
33.5 0.8748
33.55 0.84914
33.6 0.81718
33.65 0.78467
33.7 0.75124
33.75 0.71922
33.8 0.69062
33.85 0.66153
33.9 0.63624
33.95 0.60482
34 0.57086
34.05 0.53476
34.1 0.4987
34.15 0.47112
34.2 0.44907
34.25 0.43046
34.3 0.40478
34.35 0.38035
34.4 0.35501
34.45 0.33135
34.5 0.30996
34.55 0.29154
34.6 0.27443
34.65 0.25399
34.7 0.22985
34.75 0.20666
34.8 0.1814
34.85 0.15878
34.9 0.13747
34.95 0.11942
35 0.09846
35.05 0.08287
35.1 0.06814
35.15 0.05456
35.2 0.03626
35.25 0.0223
35.3 0.00851
35.35 -0.00788
35.4 -0.02847
35.45 -0.0417
35.5 -0.05111
35.55 -0.06096
35.6 -0.06786
35.65 -0.08012
35.7 -0.0921
35.75 -0.0993
35.8 -0.10742
35.85 -0.11653
35.9 -0.12678
35.95 -0.13193
36 -0.13733
36.05 -0.14311
36.1 -0.14917
36.15 -0.15986
36.2 -0.17361
36.25 -0.18327
36.3 -0.18837
36.35 -0.19506
36.4 -0.19807
36.45 -0.19771
36.5 -0.19445
36.55 -0.1951
36.6 -0.19535
36.65 -0.19245
36.7 -0.18909
36.75 -0.19032
36.8 -0.19694
36.85 -0.20272
36.9 -0.20754
36.95 -0.21327
37 -0.21542
37.05 -0.21128
37.1 -0.20948
37.15 -0.20437
37.2 -0.19836
37.25 -0.19654
37.3 -0.19171
37.35 -0.19117
37.4 -0.19173
37.45 -0.19351
37.5 -0.19502
37.55 -0.1951
37.6 -0.19696
37.65 -0.19663
37.7 -0.19559
37.75 -0.18902
37.8 -0.18406
37.85 -0.17576
37.9 -0.17071
37.95 -0.16381
38 -0.16116
38.05 -0.15875
38.1 -0.15814
38.15 -0.1562
38.2 -0.15516
38.25 -0.15792
38.3 -0.15869
38.35 -0.15494
38.4 -0.14795
38.45 -0.14113
38.5 -0.13887
38.55 -0.13597
38.6 -0.13341
38.65 -0.12868
38.7 -0.12397
38.75 -0.12006
38.8 -0.11701
38.85 -0.11863
38.9 -0.11705
38.95 -0.11384
39 -0.11631
39.05 -0.12047
39.1 -0.11996
39.15 -0.11912
39.2 -0.1144
39.25 -0.11313
39.3 -0.11122
39.35 -0.10736
39.4 -0.10682
39.45 -0.10508
39.5 -0.10411
39.55 -0.10368
39.6 -0.10067
39.65 -0.1024
39.7 -0.1072
39.75 -0.11209
39.8 -0.11559
39.85 -0.11672
39.9 -0.12011
39.95 -0.11881
40 -0.11734
40.05 -0.11685
40.1 -0.11731
40.15 -0.12015
40.2 -0.11948
40.25 -0.1149
40.3 -0.11321
40.35 -0.1056
40.4 -0.1035
40.45 -0.0984
40.5 -0.0921
40.55 -0.08288
40.6 -0.07415
40.65 -0.07257
40.7 -0.07505
40.75 -0.07327
40.8 -0.07189
40.85 -0.06993
40.9 -0.07264
40.95 -0.07101
41 -0.06857
41.05 -0.06815
41.1 -0.07178
41.15 -0.07386
41.2 -0.07089
41.25 -0.06669
41.3 -0.06474
41.35 -0.05975
41.4 -0.05278
41.45 -0.05322
41.5 -0.05721
41.55 -0.05881
41.6 -0.06382
41.65 -0.06254
41.7 -0.06239
41.75 -0.06296
41.8 -0.06364
41.85 -0.06077
41.9 -0.05827
41.95 -0.06057
42 -0.0573
42.05 -0.05058
42.1 -0.04484
42.15 -0.04218
42.2 -0.03696
42.25 -0.0359
42.3 -0.0369
42.35 -0.04058
42.4 -0.04133
42.45 -0.04283
42.5 -0.04312
42.55 -0.04472
42.6 -0.04346
42.65 -0.04683
42.7 -0.04634
42.75 -0.04901
42.8 -0.05413
42.85 -0.05593
42.9 -0.0511
42.95 -0.04242
43 -0.03867
43.05 -0.03743
43.1 -0.03592
43.15 -0.03733
43.2 -0.03352
43.25 -0.03488
43.3 -0.03312
43.35 -0.03457
43.4 -0.03963
43.45 -0.0381
43.5 -0.03835
43.55 -0.03371
43.6 -0.03004
43.65 -0.02592
43.7 -0.01954
43.75 -0.01277
43.8 -0.0063
43.85 -0.0077
43.9 -0.00611
43.95 -0.00794
44 -0.00813
44.05 -0.00537
44.1 -0.00604
44.15 -0.00594
44.2 -0.00534
44.25 -0.00585
44.3 -0.00817
44.35 -0.01336
44.4 -0.01724
44.45 -0.02092
44.5 -0.01994
44.55 -0.02145
44.6 -0.02305
44.65 -0.02721
44.7 -0.02683
44.75 -0.02629
44.8 -0.02986
44.85 -0.02975
44.9 -0.03329
44.95 -0.03457
45 -0.03656
45.05 -0.04138
45.1 -0.04118
45.15 -0.03941
45.2 -0.03692
45.25 -0.03056
45.3 -0.0234
45.35 -0.01958
45.4 -0.01932
45.45 -0.01879
45.5 -0.01529
45.55 -0.01018
45.6 -0.01146
45.65 -0.00824
45.7 -0.00828
45.75 -0.013
45.8 -0.01465
45.85 -0.01992
45.9 -0.02146
45.95 -0.0255
46 -0.02348
46.05 -0.01746
46.1 -0.01326
46.15 -0.00988
46.2 -0.00464
46.25 0.00203
46.3 0.00487
46.35 0.00785
46.4 0.01056
46.45 0.01451
46.5 0.01147
46.55 0.00266
46.6 -0.0016
46.65 -0.00103
46.7 0.00143
46.75 0.00118
46.8 -0.00481
46.85 -0.01134
46.9 -0.01941
46.95 -0.02844
47 -0.03422
47.05 -0.03543
47.1 -0.03105
47.15 -0.02373
47.2 -0.0143
47.25 -0.00892
47.3 -0.00742
47.35 -0.00826
47.4 -0.00629
47.45 -0.0062
47.5 -0.0114
47.55 -0.01983
47.6 -0.02782
47.65 -0.03052
47.7 -0.02698
47.75 -0.02691
47.8 -0.02102
47.85 -0.02096
47.9 -0.01621
47.95 -0.01494
48 -0.01619
48.05 -0.02009
48.1 -0.01865
48.15 -0.0196
48.2 -0.02007
48.25 -0.02226
48.3 -0.02536
48.35 -0.02509
48.4 -0.0265
48.45 -0.02819
48.5 -0.03222
48.55 -0.03351
48.6 -0.03224
48.65 -0.03082
48.7 -0.02675
48.75 -0.02371
48.8 -0.02064
48.85 -0.01538
48.9 -0.01584
48.95 -0.01248
49 -0.00949
49.05 -0.0077
49.1 -0.00888
49.15 -0.00566
49.2 -0.00432
49.25 -0.00538
49.3 -0.00807
49.35 -0.01092
49.4 -0.01193
49.45 -0.00977
49.5 -0.00744
49.55 -0.00583
49.6 -0.0084
49.65 -0.01448
49.7 -0.01819
49.75 -0.0217
49.8 -0.02352
49.85 -0.02617
49.9 -0.02887
49.95 -0.03316
50 -0.03337
50.05 -0.02974
50.1 -0.02683
50.15 -0.02514
50.2 -0.02104
50.25 -0.01912
50.3 -0.01239
50.35 -0.00919
50.4 -0.00822
50.45 -0.00418
50.5 -0.004
50.55 -0.00438
50.6 -0.0061
50.65 -0.00294
50.7 0.00042
50.75 0.00447
50.8 0.00494
50.85 0.00968
50.9 0.00857
50.95 0.01165
51 0.01533
51.05 0.01236
51.1 0.00821
51.15 0.0018
51.2 -0.00246
51.25 -0.0015
51.3 -0.00202
51.35 -0.00641
51.4 -0.00443
51.45 -0.00685
51.5 -0.00614
51.55 -0.00146
51.6 0.0007
51.65 0.00467
51.7 0.00682
51.75 0.00963
51.8 0.00936
51.85 0.01135
51.9 0.01014
51.95 0.01083
52 0.01444
52.05 0.01811
52.1 0.02093
52.15 0.01623
52.2 0.01601
52.25 0.01906
52.3 0.0145
52.35 0.00938
52.4 0.00065
52.45 -0.00751
52.5 -0.01523
52.55 -0.01596
52.6 -0.01909
52.65 -0.02186
52.7 -0.01773
52.75 -0.01469
52.8 -0.01427
52.85 -0.01129
52.9 -0.00936
52.95 -0.01183
53 -0.01416
53.05 -0.01807
53.1 -0.01827
53.15 -0.01791
53.2 -0.01258
53.25 -0.00693
53.3 -0.00427
53.35 -0.00166
53.4 -0.00142
53.45 -0.00137
53.5 -0.00284
53.55 -0.00813
53.6 -0.00966
53.65 -0.00659
53.7 -0.00505
53.75 -0.00576
53.8 -0.00936
53.85 -0.01374
53.9 -0.01898
53.95 -0.01928
54 -0.01823
54.05 -0.01291
54.1 -0.00619
54.15 0.0013
54.2 0.0088
54.25 0.0086
54.3 0.01239
54.35 0.01718
54.4 0.01686
54.45 0.01486
54.5 0.01057
54.55 0.00882
54.6 0.00998
54.65 0.01184
54.7 0.0137
54.75 0.01617
54.8 0.01192
54.85 0.01016
54.9 0.01141
54.95 0.01344
55 0.01134
55.05 0.01128
55.1 0.0062
55.15 0.00082
55.2 -0.00309
55.25 -0.01001
55.3 -0.01486
55.35 -0.01203
55.4 -0.01376
55.45 -0.00907
55.5 -0.00272
55.55 -0.00027
55.6 0.00098
55.65 0.0005
55.7 -0.00241
55.75 -0.00122
55.8 -0.00494
55.85 -0.00698
55.9 -0.0119
55.95 -0.01534
56 -0.01604
56.05 -0.01093
56.1 -0.00459
56.15 0.00046
56.2 -0.00047
56.25 0.00346
56.3 0.00676
56.35 0.01
56.4 0.0091
56.45 0.00963
56.5 0.00894
56.55 0.00458
56.6 0.0056
56.65 0.0061
56.7 0.00212
56.75 -0.00368
56.8 -0.00416
56.85 -0.00198
56.9 0.00116
56.95 0.00613
57 0.00889
57.05 0.00671
57.1 0.00764
57.15 0.01077
57.2 0.01436
57.25 0.01827
57.3 0.01748
57.35 0.0157
57.4 0.01171
57.45 0.00369
57.5 0.00077
57.55 0.00243
57.6 0.00406
57.65 0.00468
57.7 0.00404
57.75 0.00421
57.8 0.00717
57.85 0.01011
57.9 0.00908
57.95 0.00273
58 -0.00173
58.05 -0.0079
58.1 -0.00933
58.15 -0.00646
58.2 0.00016
58.25 0.00765
58.3 0.01439
58.35 0.01894
58.4 0.02216
58.45 0.01841
58.5 0.01851
58.55 0.01282
58.6 0.00482
58.65 -0.00309
58.7 -0.00466
58.75 -0.00813
58.8 -0.00873
58.85 -0.00995
58.9 -0.00769
58.95 -0.00247
59 -0.00315
59.05 -0.00123
59.1 0.00277
59.15 0.00442
59.2 0.00256
59.25 -0.00046
59.3 0.00031
59.35 0.00136
59.4 0.00459
59.45 0.00451
59.5 0.00385
59.55 0.00407
59.6 0.00515
59.65 0.00527
59.7 0.00642
59.75 0.00163
59.8 -0.00577
59.85 -0.00858
59.9 -0.01169
59.95 -0.01428
60 -0.01048
60.05 -0.00274
60.1 0.00282
60.15 0.01005
60.2 0.00869
60.25 0.00451
60.3 0.00322
60.35 0.0043
60.4 0.00069
60.45 -0.00275
60.5 -0.00202
60.55 0.00188
60.6 0.00125
60.65 0.00269
60.7 0.00387
60.75 0.00478
60.8 0.00728
60.85 0.01149
60.9 0.01067
60.95 0.01205
61 0.01278
61.05 0.01057
61.1 0.0086
61.15 0.00705
61.2 0.00564
61.25 0.00148
61.3 -0.00415
61.35 -0.00382
61.4 -0.0031
61.45 -0.00763
61.5 -0.00768
61.55 -0.01127
61.6 -0.00828
61.65 -0.00362
61.7 0.00321
61.75 0.00812
61.8 0.01481
61.85 0.01678
61.9 0.01727
61.95 0.01663
62 0.01453
62.05 0.00852
62.1 0.00742
62.15 0.00129
62.2 -0.00389
62.25 -0.01202
62.3 -0.01213
62.35 -0.00888
62.4 -0.0055
62.45 -0.00524
62.5 -0.00538
62.55 -0.00826
62.6 -0.01065
62.65 -0.0092
62.7 -0.00691
62.75 -0.00545
62.8 -0.00124
62.85 0.00001
62.9 -0.00333
62.95 -0.0066
63 -0.00545
63.05 -0.00649
63.1 -0.00655
63.15 -0.00818
63.2 -0.01088
63.25 -0.00968
63.3 -0.00505
63.35 -0.00466
63.4 -0.00706
63.45 -0.00649
63.5 -0.0101
63.55 -0.0075
63.6 -0.0016
63.65 0.00607
63.7 0.0098
63.75 0.01283
63.8 0.01225
63.85 0.01008
63.9 0.0056
63.95 0.00187
64 -0.00144
64.05 -0.0018
64.1 -0.00438
64.15 -0.00672
64.2 -0.00989
64.25 -0.00772
64.3 -0.00376
64.35 -0.0046
64.4 -0.00726
64.45 -0.01146
64.5 -0.01427
64.55 -0.01921
64.6 -0.02171
64.65 -0.0248
64.7 -0.02016
64.75 -0.01648
64.8 -0.01735
64.85 -0.01419
64.9 -0.0099
64.95 -0.00727
65 -0.00885
65.05 -0.00539
65.1 -0.00058
65.15 0
65.2 -0.00314
65.25 -0.00769
65.3 -0.01469
65.35 -0.01751
65.4 -0.01921
65.45 -0.02311
65.5 -0.02216
65.55 -0.02398
65.6 -0.0239
65.65 -0.02601
65.7 -0.02721
65.75 -0.02605
65.8 -0.02457
65.85 -0.02083
65.9 -0.01437
65.95 -0.00853
66 -0.00563
66.05 -0.0054
66.1 -0.00545
66.15 -0.00357
66.2 -0.00388
66.25 -0.00691
66.3 -0.01002
66.35 -0.01024
66.4 -0.00541
66.45 0.00136
66.5 0.00909
66.55 0.01493
66.6 0.02121
66.65 0.02499
66.7 0.02719
66.75 0.02856
66.8 0.03171
66.85 0.03207
66.9 0.02983
66.95 0.029
67 0.03074
67.05 0.02819
67.1 0.02261
67.15 0.01351
67.2 0.00616
67.25 0.00285
67.3 -0.00047
67.35 -0.00482
67.4 -0.00659
67.45 -0.0087
67.5 -0.00697
67.55 -0.00248
67.6 0.0039
67.65 0.00776
67.7 0.00876
67.75 0.00645
67.8 -0.00015
67.85 -0.00129
67.9 -0.00138
67.95 -0.00101
68 -0.00483
68.05 -0.00963
68.1 -0.00956
68.15 -0.00916
68.2 -0.01055
68.25 -0.01427
68.3 -0.01316
68.35 -0.01526
68.4 -0.0161
68.45 -0.01638
68.5 -0.01992
68.55 -0.02274
68.6 -0.0241
68.65 -0.02293
68.7 -0.01841
68.75 -0.01646
68.8 -0.01674
68.85 -0.01058
68.9 -0.00164
68.95 0.00844
69 0.01415
69.05 0.01355
69.1 0.0127
69.15 0.01417
69.2 0.01167
69.25 0.01363
69.3 0.01069
69.35 0.01003
69.4 0.01136
69.45 0.0098
69.5 0.00654
69.55 -0.00022
69.6 -0.00182
69.65 0.00098
69.7 0.00606
69.75 0.00555
69.8 0.00574
69.85 0.00434
69.9 0.00154
69.95 0.00191
70 0.00198
70.05 0.00496
70.1 0.00593
70.15 0.00779
70.2 0.00581
70.25 0.00622
70.3 0.00131
70.35 -0.00098
70.4 -0.00033
70.45 -0.00269
70.5 -0.00432
70.55 -0.00338
70.6 -0.00193
70.65 -0.00522
70.7 -0.00518
70.75 -0.0031
70.8 -0.0004
70.85 -0.00207
70.9 -0.00636
70.95 -0.00376
71 0.00228
71.05 0.00978
71.1 0.01001
71.15 0.00597
71.2 0.00419
71.25 0.00506
71.3 0.00638
71.35 0.0078
71.4 0.00337
71.45 0.00271
71.5 0.00037
71.55 0.00156
71.6 -0.0021
71.65 -0.00556
71.7 -0.00424
71.75 -0.00255
71.8 0.00187
71.85 0.00072
71.9 0.0046
71.95 0.00416
72 0.00805
72.05 0.012
72.1 0.01467
72.15 0.01532
72.2 0.01128
72.25 0.00528
72.3 -0.00289
72.35 -0.00576
72.4 -0.00877
72.45 -0.01167
72.5 -0.01366
72.55 -0.01871
72.6 -0.02008
72.65 -0.01734
72.7 -0.01641
72.75 -0.01065
72.8 -0.00416
72.85 0.00222
72.9 0.00732
72.95 0.00924
73 0.0139
73.05 0.01567
73.1 0.01319
73.15 0.0131
73.2 0.01646
73.25 0.01553
73.3 0.01344
73.35 0.01559
73.4 0.01413
73.45 0.01486
73.5 0.00921
73.55 0.00278
73.6 -0.0052
73.65 -0.01078
73.7 -0.0135
73.75 -0.01901
73.8 -0.01865
73.85 -0.01636
73.9 -0.01784
73.95 -0.01606
74 -0.01014
74.05 -0.00455
74.1 -0.0007
74.15 0.00521
74.2 0.0094
74.25 0.00704
74.3 0.00205
74.35 -0.00254
74.4 -0.00572
74.45 -0.0071
74.5 -0.00513
74.55 -0.00592
74.6 -0.00285
74.65 0.00223
74.7 0.00828
74.75 0.00989
74.8 0.01024
74.85 0.01167
74.9 0.01449
74.95 0.01862
75 0.01716
75.05 0.01842
75.1 0.01336
75.15 0.00998
75.2 0.00507
75.25 -0.00053
75.3 -0.0027
75.35 -0.00817
75.4 -0.01552
75.45 -0.01554
75.5 -0.01828
75.55 -0.01583
75.6 -0.01095
75.65 -0.00795
75.7 -0.00261
75.75 0.00419
75.8 0.01084
75.85 0.01696
75.9 0.02154
75.95 0.02625
76 0.02354
76.05 0.01688
76.1 0.01329
76.15 0.00897
76.2 0.00218
76.25 0.00179
76.3 0.00095
76.35 -0.00181
76.4 -0.00804
76.45 -0.01332
76.5 -0.01119
76.55 -0.01061
76.6 -0.01026
76.65 -0.01116
76.7 -0.00893
76.75 -0.00644
76.8 -0.00377
76.85 -0.00204
76.9 -0.00315
76.95 -0.00456
77 -0.00172
77.05 0.00434
77.1 0.00661
77.15 0.01172
77.2 0.0167
77.25 0.01545
77.3 0.0168
77.35 0.01456
77.4 0.01082
77.45 0.01063
77.5 0.01148
77.55 0.00995
77.6 0.00732
77.65 0.00487
77.7 -0.00152
77.75 -0.00222
77.8 0.00024
77.85 0.00399
77.9 0.00597
77.95 0.00988
78 0.01471
78.05 0.01179
78.1 0.00513
78.15 -0.0007
78.2 -0.00135
78.25 -0.00479
78.3 -0.00855
78.35 -0.01431
78.4 -0.02098
78.45 -0.02564
78.5 -0.02595
78.55 -0.02013
78.6 -0.01131
78.65 -0.00426
78.7 -0.00104
78.75 -0.00221
78.8 0.0008
78.85 0.00271
78.9 0.00151
78.95 -0.00202
79 -0.0039
79.05 -0.0084
79.1 -0.00633
79.15 -0.00662
79.2 -0.00948
79.25 -0.00871
79.3 -0.00342
79.35 -0.00353
79.4 -0.00529
79.45 -0.00808
79.5 -0.01208
79.55 -0.01684
79.6 -0.01922
79.65 -0.01854
79.7 -0.0141
79.75 -0.00601
79.8 -0.00204
79.85 -0.00059
79.9 0.0019
79.95 0.00076
80 0.00172
80.05 0.00436
80.1 0.00608
80.15 0.00601
80.2 0.00816
80.25 0.0121
80.3 0.01299
80.35 0.01643
80.4 0.01656
80.45 0.01169
80.5 0.00805
80.55 0.0041
80.6 0.00106
80.65 0.00149
80.7 -0.00037
80.75 -0.00431
80.8 -0.00617
80.85 -0.00584
80.9 -0.00487
80.95 -0.00104
81 0.00402
81.05 0.00945
81.1 0.00909
81.15 0.00416
81.2 0.00249
81.25 -0.00249
81.3 -0.00839
81.35 -0.00922
81.4 -0.00801
81.45 -0.01143
81.5 -0.01235
81.55 -0.01287
81.6 -0.01257
81.65 -0.01584
81.7 -0.01412
81.75 -0.00991
81.8 -0.00526
81.85 -0.00017
81.9 0.00047
81.95 0.00037
82 0.00126
82.05 0.00209
82.1 0.00112
82.15 0.00068
82.2 0.00039
82.25 -0.00157
82.3 -0.00658
82.35 -0.00984
82.4 -0.0126
82.45 -0.00885
82.5 -0.00427
82.55 -0.00446
82.6 -0.00054
82.65 0.00512
82.7 0.00648
82.75 0.00445
82.8 0.00608
82.85 0.0082
82.9 0.01008
82.95 0.00695
83 0.00586
83.05 0.00711
83.1 0.01151
83.15 0.01309
83.2 0.01626
83.25 0.01905
83.3 0.02029
83.35 0.02082
83.4 0.01883
83.45 0.01778
83.5 0.01772
83.55 0.01608
83.6 0.01351
83.65 0.01217
83.7 0.00601
83.75 -0.00208
83.8 -0.00581
83.85 -0.00764
83.9 -0.00604
83.95 -0.00809
84 -0.0076
84.05 -0.00389
84.1 -0.0025
84.15 0.00195
84.2 -0.00015
84.25 0.00145
84.3 0.00126
84.35 -0.00198
84.4 -0.0082
84.45 -0.01524
84.5 -0.02306
84.55 -0.02622
84.6 -0.0291
84.65 -0.02452
84.7 -0.02248
84.75 -0.01696
84.8 -0.00966
84.85 -0.00251
84.9 0.00461
84.95 0.01255
85 0.01363
85.05 0.01113
85.1 0.00375
85.15 -0.00434
85.2 -0.00647
85.25 -0.00334
85.3 -0.00138
85.35 0.00446
85.4 0.00337
85.45 -0.00079
85.5 -0.00181
85.55 -0.00387
85.6 -0.00408
85.65 -0.00452
85.7 -0.00638
85.75 -0.00825
85.8 -0.0045
85.85 0.00024
85.9 0.00478
85.95 0.00337
86 0.0058
86.05 0.00312
86.1 0.00299
86.15 0.00031
86.2 -0.0007
86.25 -0.00602
86.3 -0.00804
86.35 -0.01058
86.4 -0.01541
86.45 -0.01669
86.5 -0.01453
86.55 -0.01284
86.6 -0.00788
86.65 -0.0003
86.7 0.00848
86.75 0.00915
86.8 0.00727
86.85 0.00348
86.9 0.00263
86.95 0.00127
87 -0.00185
87.05 -0.00688
87.1 -0.01058
87.15 -0.01091
87.2 -0.01024
87.25 -0.01069
87.3 -0.00899
87.35 -0.01186
87.4 -0.01414
87.45 -0.01108
87.5 -0.00371
87.55 -0.00027
87.6 0.00078
87.65 0.00341
87.7 0.00678
87.75 0.00407
87.8 0.00499
87.85 0.00485
87.9 -0.00034
87.95 -0.00259
88 -0.00479
88.05 -0.00615
88.1 -0.00463
88.15 -0.00268
88.2 -0.00121
88.25 0.00054
88.3 -0.00052
88.35 0.0002
88.4 -0.00013
88.45 0.004
88.5 0.0062
88.55 0.00702
88.6 0.00281
88.65 0.00438
88.7 0.00932
88.75 0.01134
88.8 0.00871
88.85 0.00552
88.9 0.00572
88.95 0.0074
89 0.01228
89.05 0.01137
89.1 0.01073
89.15 0.01051
89.2 0.01379
89.25 0.01484
89.3 0.01732
89.35 0.01368
89.4 0.01308
89.45 0.01282
89.5 0.00679
89.55 0.00005
89.6 -0.00034
89.65 0.00263
89.7 0.00048
89.75 -0.00264
89.8 -0.00385
89.85 -0.00113
89.9 -0.00302
89.95 -0.00018
90 0.0044
90.05 0.01013
90.1 0.01468
90.15 0.01735
90.2 0.01475
90.25 0.00841
90.3 0.00365
90.35 0.00214
90.4 0.00175
90.45 0.00341
90.5 0.00205
90.55 0.0047
90.6 0.00874
90.65 0.01374
90.7 0.01321
90.75 0.00921
90.8 0.00295
90.85 -0.00487
90.9 -0.00797
90.95 -0.01369
91 -0.02045
91.05 -0.02681
91.1 -0.03216
91.15 -0.03526
91.2 -0.03186
91.25 -0.02493
91.3 -0.01678
91.35 -0.00659
91.4 -0.00293
91.45 0.00231
91.5 0.00419
91.55 0.00365
91.6 0.00252
91.65 0.00476
91.7 0.00116
91.75 -0.00371
91.8 -0.00302
91.85 -0.00284
91.9 -0.00404
91.95 -0.00696
92 -0.00713
92.05 -0.0103
92.1 -0.00875
92.15 -0.00602
92.2 -0.00213
92.25 0.0023
92.3 0.00241
92.35 0.00408
92.4 0.00141
92.45 0.00162
92.5 -0.00307
92.55 -0.00363
92.6 -0.00422
92.65 -0.00693
92.7 -0.00928
92.75 -0.01338
92.8 -0.01616
92.85 -0.02101
92.9 -0.02562
92.95 -0.02953
93 -0.0307
93.05 -0.03097
93.1 -0.02812
93.15 -0.02814
93.2 -0.02844
93.25 -0.02357
93.3 -0.01393
93.35 -0.00961
93.4 -0.00306
93.45 0.00332
93.5 0.01049
93.55 0.01871
93.6 0.01931
93.65 0.01599
93.7 0.00959
93.75 0.0074
93.8 0.0088
93.85 0.0067
93.9 0.00814
93.95 0.00537
94 0.00281
94.05 0.00266
94.1 0.00114
94.15 -0.00141
94.2 -0.00659
94.25 -0.00768
94.3 -0.00404
94.35 0.00027
94.4 0.00025
94.45 -0.00182
94.5 -0.00479
94.55 -0.0109
94.6 -0.01224
94.65 -0.01102
94.7 -0.00599
94.75 0.00245
94.8 0.01055
94.85 0.01942
94.9 0.02813
94.95 0.03045
95 0.02614
95.05 0.01843
95.1 0.01593
95.15 0.01667
95.2 0.01575
95.25 0.01825
95.3 0.01649
95.35 0.01716
95.4 0.01188
95.45 0.00262
95.5 -0.00809
95.55 -0.01063
95.6 -0.01423
95.65 -0.01114
95.7 -0.00506
95.75 0.00354
95.8 0.0129
95.85 0.01878
95.9 0.01612
95.95 0.01368
96 0.01337
96.05 0.01151
96.1 0.00458
96.15 -0.00246
96.2 -0.00753
96.25 -0.01269
96.3 -0.01447
96.35 -0.01174
96.4 -0.01237
96.45 -0.01596
96.5 -0.02035
96.55 -0.02379
96.6 -0.02403
96.65 -0.02103
96.7 -0.01508
96.75 -0.00709
96.8 0.00251
96.85 0.01068
96.9 0.01798
96.95 0.02378
97 0.02948
97.05 0.03311
97.1 0.03308
97.15 0.02683
97.2 0.0241
97.25 0.01844
97.3 0.01146
97.35 0.00314
97.4 -0.006
97.45 -0.01597
97.5 -0.01919
97.55 -0.01698
97.6 -0.01166
97.65 -0.00952
97.7 -0.00434
97.75 -0.00103
97.8 -0.00381
97.85 -0.00967
97.9 -0.01132
97.95 -0.00999
98 -0.01299
98.05 -0.00994
98.1 -0.00471
98.15 0.00021
98.2 0.0065
98.25 0.01048
98.3 0.01272
98.35 0.01637
98.4 0.01667
98.45 0.01592
98.5 0.00902
98.55 -0.00066
98.6 -0.00984
98.65 -0.01585
98.7 -0.0234
98.75 -0.03091
98.8 -0.0347
98.85 -0.03918
98.9 -0.03594
98.95 -0.03405
99 -0.02556
99.05 -0.02219
99.1 -0.01493
99.15 -0.00726
99.2 0.00013
99.25 0.00522
99.3 0.00791
99.35 0.00806
99.4 0.00861
99.45 0.0076
99.5 0.00585
99.55 0.00358
99.6 0.0026
99.65 0.00413
99.7 0.00338
99.75 0.00312
99.8 -0.0006
99.85 0.00086
99.9 0.00543
99.95 0.00783
