0 0
0.05 0.0022
0.1 0.00771
0.15 0.01486
0.2 0.01969
0.25 0.02341
0.3 0.02619
0.35 0.02992
0.4 0.03086
0.45 0.03322
0.5 0.034
0.55 0.03545
0.6 0.03722
0.65 0.03998
0.7 0.0427
0.75 0.04212
0.8 0.04094
0.85 0.03724
0.9 0.03533
0.95 0.03163
1 0.02626
1.05 0.02157
1.1 0.02207
1.15 0.02257
1.2 0.02248
1.25 0.02479
1.3 0.0287
1.35 0.03188
1.4 0.03434
1.45 0.03478
1.5 0.03193
1.55 0.02793
1.6 0.02598
1.65 0.02383
1.7 0.02385
1.75 0.02251
1.8 0.02181
1.85 0.02055
1.9 0.02074
1.95 0.02053
2 0.01752
2.05 0.01859
2.1 0.02103
2.15 0.02531
2.2 0.03012
2.25 0.02963
2.3 0.02584
2.35 0.02507
2.4 0.02657
2.45 0.02759
2.5 0.02881
2.55 0.02937
2.6 0.02969
2.65 0.03101
2.7 0.02973
2.75 0.02903
2.8 0.02897
2.85 0.02504
2.9 0.02285
2.95 0.01919
3 0.0191
3.05 0.01694
3.1 0.01791
3.15 0.01856
3.2 0.01842
3.25 0.02022
3.3 0.02356
3.35 0.02449
3.4 0.02132
3.45 0.02029
3.5 0.01793
3.55 0.01372
3.6 0.01335
3.65 0.01415
3.7 0.01656
3.75 0.01821
3.8 0.01968
3.85 0.02021
3.9 0.01664
3.95 0.01499
4 0.0143
4.05 0.01285
4.1 0.00917
4.15 0.00806
4.2 0.00689
4.25 0.00426
4.3 0.00369
4.35 0.00504
4.4 0.00393
4.45 0.00143
4.5 -0.00147
4.55 -0.00171
4.6 -0.0004
4.65 0.00136
4.7 0.00117
4.75 0.0005
4.8 0.00193
4.85 0.00369
4.9 0.00375
4.95 0.00455
5 0.00736
5.05 0.01097
5.1 0.01326
5.15 0.01354
5.2 0.01111
5.25 0.00985
5.3 0.0062
5.35 0.00329
5.4 0.00243
5.45 0.0047
5.5 0.00353
5.55 0.00395
5.6 0.00398
5.65 0.00326
5.7 0.00074
5.75 0.00049
5.8 -0.0021
5.85 -0.00419
5.9 -0.00298
5.95 0.00067
6 0.00353
6.05 0.00582
6.1 0.00587
6.15 0.00415
6.2 0.00248
6.25 0.00399
6.3 0.00418
6.35 0.0069
6.4 0.00841
6.45 0.01144
6.5 0.0108
6.55 0.01222
6.6 0.0113
6.65 0.01181
6.7 0.0098
6.75 0.01034
6.8 0.00953
6.85 0.00621
6.9 0.00298
6.95 0.00064
7 -0.00016
7.05 0.00244
7.1 0.00123
7.15 0.00205
7.2 0.00203
7.25 0.00215
7.3 0.00496
7.35 0.00887
7.4 0.01232
7.45 0.01418
7.5 0.014
7.55 0.01356
7.6 0.01112
7.65 0.0083
7.7 0.00425
7.75 0.00403
7.8 0.00354
7.85 0.00234
7.9 0.00221
7.95 0.00448
8 0.00573
8.05 0.00809
8.1 0.00905
8.15 0.00625
8.2 0.00635
8.25 0.00856
8.3 0.00627
8.35 0.00319
8.4 -0.0021
8.45 -0.00767
8.5 -0.01225
8.55 -0.01404
8.6 -0.01386
8.65 -0.01346
8.7 -0.01386
8.75 -0.01087
8.8 -0.00751
8.85 -0.00497
8.9 -0.0009
8.95 -0.00009
9 0.00147
9.05 0.00292
9.1 0.00248
9.15 0.00012
9.2 -0.00334
9.25 -0.00373
9.3 -0.00463
9.35 -0.00646
9.4 -0.00908
9.45 -0.00814
9.5 -0.00555
9.55 -0.00489
9.6 -0.00595
9.65 -0.00499
9.7 -0.00467
9.75 -0.00215
9.8 0.00217
9.85 0.00261
9.9 0.00162
9.95 0.00115
10 0.00065
10.05 0.00033
10.1 0.00286
10.15 0.0043
10.2 0.00607
10.25 0.00975
10.3 0.01257
10.35 0.01404
10.4 0.0156
10.45 0.0167
10.5 0.01694
10.55 0.0185
10.6 0.01536
10.65 0.0129
10.7 0.01198
10.75 0.00805
10.8 0.00284
10.85 -0.00011
10.9 -0.00083
10.95 -0.00356
11 -0.00524
11.05 -0.00487
11.1 -0.00266
11.15 0.00099
11.2 0.00575
11.25 0.00619
11.3 0.00352
11.35 0.00387
11.4 0.00426
11.45 0.00608
11.5 0.00698
11.55 0.00891
11.6 0.00793
11.65 0.00479
11.7 0.00517
11.75 0.00311
11.8 0.00439
11.85 0.00165
11.9 -0.00283
11.95 -0.00434
12 -0.00418
12.05 -0.0029
12.1 -0.00082
12.15 0.00307
12.2 0.00391
12.25 0.00389
12.3 0.00053
12.35 -0.00223
12.4 -0.00574
12.45 -0.00545
12.5 -0.00583
12.55 -0.00406
12.6 -0.00354
12.65 -0.00026
12.7 0.0032
12.75 0.00456
12.8 0.00277
12.85 0.00404
12.9 0.00681
12.95 0.00732
13 0.00724
13.05 0.00643
13.1 0.0072
13.15 0.00807
13.2 0.00992
13.25 0.00967
13.3 0.00985
13.35 0.00868
13.4 0.00819
13.45 0.00852
13.5 0.00617
13.55 0.00181
13.6 0.00113
13.65 -0.00064
13.7 -0.00124
13.75 0.00039
13.8 0.00154
13.85 -0.00019
13.9 0.00101
13.95 0.00265
14 0.00319
14.05 0.00501
14.1 0.00553
14.15 0.0076
14.2 0.01036
14.25 0.0114
14.3 0.01206
14.35 0.01123
14.4 0.01165
14.45 0.00842
14.5 0.00383
14.55 -0.00221
14.6 -0.00775
14.65 -0.01373
14.7 -0.01652
14.75 -0.0173
14.8 -0.01501
14.85 -0.0099
14.9 -0.00674
14.95 -0.00624
15 -0.00692
15.05 -0.00842
15.1 -0.00959
15.15 -0.01247
15.2 -0.01639
15.25 -0.0156
15.3 -0.0124
15.35 -0.00856
15.4 -0.00689
15.45 -0.00754
15.5 -0.00646
15.55 -0.00426
15.6 -0.00205
15.65 -0.00088
15.7 -0.00201
15.75 -0.00036
15.8 0.00215
15.85 0.00337
15.9 0.00483
15.95 0.00682
16 0.00501
16.05 0.00141
16.1 0.00149
16.15 -0.00099
16.2 -0.00053
16.25 0.00049
16.3 0.00104
16.35 0.00245
16.4 0.00164
16.45 0.00319
16.5 0.00237
16.55 -0.00051
16.6 -0.00165
16.65 -0.00092
16.7 -0.00018
16.75 0.00013
16.8 0.00244
16.85 0.00541
16.9 0.0073
16.95 0.00927
17 0.00919
17.05 0.0101
17.1 0.00872
17.15 0.00957
17.2 0.00853
17.25 0.00723
17.3 0.00282
17.35 0.0009
17.4 -0.00314
17.45 -0.00342
17.5 -0.00311
17.55 -0.0029
17.6 -0.00443
17.65 -0.00804
17.7 -0.01228
17.75 -0.01678
17.8 -0.0192
17.85 -0.01775
17.9 -0.01641
17.95 -0.01551
18 -0.01652
18.05 -0.01483
18.1 -0.01489
18.15 -0.01334
18.2 -0.01203
18.25 -0.01046
18.3 -0.01082
18.35 -0.00862
18.4 -0.0036
18.45 -0.00246
18.5 -0.00099
18.55 0.00102
18.6 0.00158
18.65 -0.00073
18.7 0.00033
18.75 0.00354
18.8 0.00597
18.85 0.00654
18.9 0.00577
18.95 0.00528
19 0.00438
19.05 0.00424
19.1 0.00344
19.15 0.00277
19.2 0.00292
19.25 0.00291
19.3 0.00385
19.35 0.00143
19.4 -0.00335
19.45 -0.00639
19.5 -0.00561
19.55 -0.0062
19.6 -0.00817
19.65 -0.01063
19.7 -0.00878
19.75 -0.00905
19.8 -0.00767
19.85 -0.00396
19.9 -0.00001
19.95 0.00357
20 0.00653
20.05 0.01042
20.1 0.00946
20.15 0.00972
20.2 0.01079
20.25 0.00914
20.3 0.00585
20.35 0.00106
20.4 -0.0035
20.45 -0.00517
20.5 -0.00516
20.55 -0.00565
20.6 -0.00695
20.65 -0.00967
20.7 -0.0078
20.75 -0.00791
20.8 -0.00581
20.85 -0.00107
20.9 -0.00031
20.95 -0.00095
21 -0.00046
21.05 0.00242
21.1 0.0068
21.15 0.00881
21.2 0.00855
21.25 0.00607
21.3 0.00573
21.35 0.00452
21.4 0.00536
21.45 0.00778
21.5 0.00682
21.55 0.005
21.6 0.00445
21.65 0.00632
21.7 0.00787
21.75 0.00813
21.8 0.00923
21.85 0.00814
21.9 0.00831
21.95 0.00874
22 0.00933
22.05 0.00698
22.1 0.00549
22.15 0.00446
22.2 0.00047
22.25 0.00061
22.3 -0.00168
22.35 -0.00241
22.4 -0.00509
22.45 -0.00893
22.5 -0.01377
22.55 -0.01427
22.6 -0.01167
22.65 -0.01082
22.7 -0.00885
22.75 -0.0044
22.8 -0.0007
22.85 0.00001
22.9 -0.00131
22.95 -0.0036
23 -0.00221
23.05 -0.0004
23.1 -0.00093
23.15 -0.00263
23.2 -0.00638
23.25 -0.00579
23.3 -0.0041
23.35 -0.00224
23.4 -0.00073
23.45 -0.00102
23.5 0.00125
23.55 -0.00054
23.6 -0.0011
23.65 -0.00035
23.7 0.00197
23.75 0.00401
23.8 0.00457
23.85 0.00541
23.9 0.00444
23.95 0.00291
24 0.00435
24.05 0.00244
24.1 0.00093
24.15 -0.00279
24.2 -0.00363
24.25 -0.00452
24.3 -0.00654
24.35 -0.00445
24.4 -0.00178
24.45 -0.00214
24.5 -0.00236
24.55 -0.00188
24.6 0.00018
24.65 -0.00098
24.7 -0.00057
24.75 -0.0033
24.8 -0.00785
24.85 -0.01088
24.9 -0.00997
24.95 -0.00763
25 -0.00327
25.05 0.00124
25.1 0.00154
25.15 0.00318
25.2 0.00339
25.25 0.00582
25.3 0.00402
25.35 -0.00043
25.4 -0.00506
25.45 -0.00708
25.5 -0.00805
25.55 -0.00919
25.6 -0.008
25.65 -0.00897
25.7 -0.00844
25.75 -0.0054
25.8 -0.00231
25.85 0.00117
25.9 0.0008
25.95 -0.00234
26 -0.0052
26.05 -0.00545
26.1 -0.00595
26.15 -0.00612
26.2 -0.00406
26.25 -0.00307
26.3 -0.00143
26.35 -0.0025
26.4 -0.00316
26.45 -0.00229
26.5 -0.00161
26.55 -0.00331
26.6 -0.00513
26.65 -0.00294
26.7 -0.00423
26.75 -0.00599
26.8 -0.00369
26.85 0.00054
26.9 0.00615
26.95 0.00681
27 0.00595
27.05 0.00233
27.1 -0.00038
27.15 -0.00352
27.2 -0.00797
27.25 -0.00871
27.3 -0.00761
27.35 -0.00924
27.4 -0.0105
27.45 -0.01225
27.5 -0.01337
27.55 -0.0139
27.6 -0.01344
27.65 -0.01046
27.7 -0.01002
27.75 -0.01032
27.8 -0.00786
27.85 -0.00263
27.9 -0.00006
27.95 0.00242
28 0.00349
28.05 0.0016
28.1 0.00083
28.15 -0.00245
28.2 -0.0067
28.25 -0.00739
28.3 -0.00664
28.35 -0.00581
28.4 -0.00835
28.45 -0.01176
28.5 -0.01533
28.55 -0.01805
28.6 -0.02137
28.65 -0.03029
28.7 -0.04401
28.75 -0.05679
28.8 -0.07377
28.85 -0.08846
28.9 -0.10575
28.95 -0.12492
29 -0.14947
29.05 -0.17714
29.1 -0.20602
29.15 -0.24062
29.2 -0.27814
29.25 -0.32172
29.3 -0.36775
29.35 -0.41865
29.4 -0.47459
29.45 -0.53479
29.5 -0.59726
29.55 -0.66152
29.6 -0.73422
29.65 -0.80874
29.7 -0.88652
29.75 -0.97053
29.8 -1.05743
29.85 -1.14376
29.9 -1.23348
29.95 -1.32291
30 -1.40793
30.05 -1.49108
30.1 -1.57065
30.15 -1.64525
30.2 -1.71494
30.25 -1.78008
30.3 -1.83373
30.35 -1.87732
30.4 -1.90794
30.45 -1.92733
30.5 -1.93477
30.55 -1.9271
30.6 -1.90397
30.65 -1.869
30.7 -1.82315
30.75 -1.76603
30.8 -1.69455
30.85 -1.61096
30.9 -1.51304
30.95 -1.40386
31 -1.28417
31.05 -1.15487
31.1 -1.01839
31.15 -0.88181
31.2 -0.74379
31.25 -0.60031
31.3 -0.45403
31.35 -0.31129
31.4 -0.17021
31.45 -0.03212
31.5 0.10205
31.55 0.22734
31.6 0.35015
31.65 0.46386
31.7 0.56875
31.75 0.66602
31.8 0.75516
31.85 0.83721
31.9 0.91677
31.95 0.99104
32 1.05749
32.05 1.11662
32.1 1.16875
32.15 1.21582
32.2 1.25494
32.25 1.28763
32.3 1.31397
32.35 1.33841
32.4 1.36016
32.45 1.3807
32.5 1.39613
32.55 1.40951
32.6 1.41808
32.65 1.42657
32.7 1.43536
32.75 1.44317
32.8 1.44589
32.85 1.44923
32.9 1.45085
32.95 1.44703
33 1.44278
33.05 1.43409
33.1 1.42449
33.15 1.41439
33.2 1.40708
33.25 1.40079
33.3 1.39272
33.35 1.37929
33.4 1.36406
33.45 1.34874
33.5 1.33333
33.55 1.31478
33.6 1.29421
33.65 1.27207
33.7 1.25047
33.75 1.22945
33.8 1.20782
33.85 1.18512
33.9 1.16193
33.95 1.1364
34 1.10577
34.05 1.07208
34.1 1.03645
34.15 1.0015
34.2 0.96894
34.25 0.93877
34.3 0.90763
34.35 0.87469
34.4 0.84281
34.45 0.809
34.5 0.77802
34.55 0.74389
34.6 0.71115
34.65 0.67959
34.7 0.64531
34.75 0.61418
34.8 0.58386
34.85 0.55562
34.9 0.52608
34.95 0.49901
35 0.4728
35.05 0.4431
35.1 0.41039
35.15 0.37937
35.2 0.35122
35.25 0.322
35.3 0.29593
35.35 0.2681
35.4 0.24169
35.45 0.21344
35.5 0.18659
35.55 0.15907
35.6 0.1362
35.65 0.11218
35.7 0.08957
35.75 0.06994
35.8 0.05076
35.85 0.03179
35.9 0.01194
35.95 -0.0064
36 -0.02497
36.05 -0.03974
36.1 -0.05191
36.15 -0.06479
36.2 -0.07956
36.25 -0.09426
36.3 -0.11063
36.35 -0.12252
36.4 -0.13609
36.45 -0.14792
36.5 -0.1613
36.55 -0.16956
36.6 -0.17634
36.65 -0.18305
36.7 -0.19031
36.75 -0.1992
36.8 -0.20643
36.85 -0.21387
36.9 -0.21829
36.95 -0.21989
37 -0.22033
37.05 -0.22343
37.1 -0.22963
37.15 -0.23266
37.2 -0.23348
37.25 -0.23734
37.3 -0.24277
37.35 -0.24383
37.4 -0.24733
37.45 -0.24796
37.5 -0.24998
37.55 -0.25043
37.6 -0.24845
37.65 -0.24453
37.7 -0.24026
37.75 -0.23941
37.8 -0.2376
37.85 -0.23862
37.9 -0.24234
37.95 -0.24496
38 -0.24702
38.05 -0.24986
38.1 -0.24763
38.15 -0.24616
38.2 -0.24063
38.25 -0.23427
38.3 -0.22988
38.35 -0.2287
38.4 -0.22415
38.45 -0.22182
38.5 -0.2167
38.55 -0.21412
38.6 -0.21391
38.65 -0.21137
38.7 -0.21096
38.75 -0.2095
38.8 -0.21025
38.85 -0.20776
38.9 -0.20577
38.95 -0.20104
39 -0.19953
39.05 -0.19975
39.1 -0.19741
39.15 -0.19126
39.2 -0.18745
39.25 -0.18456
39.3 -0.18158
39.35 -0.1771
39.4 -0.17138
39.45 -0.16498
39.5 -0.16301
39.55 -0.16074
39.6 -0.1593
39.65 -0.15872
39.7 -0.16008
39.75 -0.16178
39.8 -0.15943
39.85 -0.1538
39.9 -0.14781
39.95 -0.14538
40 -0.14475
40.05 -0.14219
40.1 -0.13893
40.15 -0.13401
40.2 -0.1296
40.25 -0.12397
40.3 -0.1218
40.35 -0.11991
40.4 -0.11961
40.45 -0.12059
40.5 -0.12388
40.55 -0.12573
40.6 -0.12719
40.65 -0.1265
40.7 -0.12468
40.75 -0.12014
40.8 -0.11339
40.85 -0.11052
40.9 -0.10862
40.95 -0.10574
41 -0.10336
41.05 -0.10406
41.1 -0.10477
41.15 -0.1038
41.2 -0.10042
41.25 -0.09577
41.3 -0.09256
41.35 -0.08796
41.4 -0.08714
41.45 -0.08577
41.5 -0.08423
41.55 -0.08032
41.6 -0.07921
41.65 -0.07877
41.7 -0.07932
41.75 -0.07781
41.8 -0.07713
41.85 -0.07935
41.9 -0.08337
41.95 -0.08583
42 -0.08654
42.05 -0.08595
42.1 -0.08433
42.15 -0.07925
42.2 -0.07366
42.25 -0.07069
42.3 -0.06871
42.35 -0.06911
42.4 -0.06691
42.45 -0.06293
42.5 -0.05994
42.55 -0.05663
42.6 -0.05678
42.65 -0.05905
42.7 -0.05996
42.75 -0.06142
42.8 -0.06321
42.85 -0.06141
42.9 -0.05762
42.95 -0.05459
43 -0.05056
43.05 -0.05035
43.1 -0.04782
43.15 -0.04463
43.2 -0.04276
43.25 -0.0446
43.3 -0.04637
43.35 -0.05007
43.4 -0.05433
43.45 -0.0574
43.5 -0.05865
43.55 -0.058
43.6 -0.05735
43.65 -0.05659
43.7 -0.05311
43.75 -0.04982
43.8 -0.04668
43.85 -0.04653
43.9 -0.04779
43.95 -0.05041
44 -0.052
44.05 -0.05177
44.1 -0.05305
44.15 -0.05543
44.2 -0.05296
44.25 -0.04952
44.3 -0.04876
44.35 -0.04812
44.4 -0.04742
44.45 -0.04497
44.5 -0.03981
44.55 -0.03349
44.6 -0.02811
44.65 -0.02706
44.7 -0.02739
44.75 -0.02994
44.8 -0.03255
44.85 -0.03103
44.9 -0.0323
44.95 -0.03208
45 -0.02952
45.05 -0.03019
45.1 -0.02939
45.15 -0.02786
45.2 -0.0273
45.25 -0.02599
45.3 -0.02582
45.35 -0.02852
45.4 -0.02821
45.45 -0.02813
45.5 -0.02894
45.55 -0.03182
45.6 -0.03154
45.65 -0.03146
45.7 -0.0328
45.75 -0.03133
45.8 -0.0299
45.85 -0.02751
45.9 -0.02388
45.95 -0.02404
46 -0.02214
46.05 -0.02144
46.1 -0.02049
46.15 -0.01927
46.2 -0.01716
46.25 -0.01735
46.3 -0.01462
46.35 -0.0112
46.4 -0.00741
46.45 -0.00828
46.5 -0.01206
46.55 -0.01468
46.6 -0.01462
46.65 -0.01588
46.7 -0.01756
46.75 -0.01639
46.8 -0.01509
46.85 -0.01213
46.9 -0.00782
46.95 -0.00611
47 -0.00766
47.05 -0.00754
47.1 -0.00881
47.15 -0.00976
47.2 -0.01055
47.25 -0.01256
47.3 -0.01445
47.35 -0.01576
47.4 -0.01581
47.45 -0.01323
47.5 -0.01009
47.55 -0.00942
47.6 -0.00876
47.65 -0.00613
47.7 -0.00544
47.75 -0.00677
47.8 -0.00765
47.85 -0.01093
47.9 -0.01137
47.95 -0.01259
48 -0.01305
48.05 -0.01072
48.1 -0.00754
48.15 -0.00788
48.2 -0.00872
48.25 -0.0094
48.3 -0.01195
48.35 -0.01427
48.4 -0.01245
48.45 -0.01194
48.5 -0.00935
48.55 -0.00814
48.6 -0.00698
48.65 -0.00677
48.7 -0.00713
48.75 -0.00889
48.8 -0.00948
48.85 -0.01047
48.9 -0.01097
48.95 -0.01096
49 -0.01015
49.05 -0.00884
49.1 -0.00509
49.15 -0.00478
49.2 -0.00685
49.25 -0.00622
49.3 -0.00361
49.35 0.0002
49.4 0.00194
49.45 0.00259
49.5 0.00467
49.55 0.00479
49.6 0.00288
49.65 0.0007
49.7 -0.00308
49.75 -0.00359
49.8 -0.00584
49.85 -0.00616
49.9 -0.00472
49.95 -0.00368
50 -0.00274
50.05 -0.00499
50.1 -0.0071
50.15 -0.01073
50.2 -0.01503
50.25 -0.01869
50.3 -0.01973
50.35 -0.02223
50.4 -0.01984
50.45 -0.01689
50.5 -0.01315
50.55 -0.01089
50.6 -0.00702
50.65 -0.00631
50.7 -0.00844
50.75 -0.00751
50.8 -0.00616
50.85 -0.0022
50.9 0.00285
50.95 0.00695
51 0.00695
51.05 0.0037
51.1 0.00246
51.15 0.00376
51.2 0.0037
51.25 0.00503
51.3 0.00452
51.35 0.00204
51.4 -0.00197
51.45 -0.00317
51.5 -0.00369
51.55 -0.00312
51.6 -0.00448
51.65 -0.00344
51.7 -0.00172
51.75 -0.0039
51.8 -0.00276
51.85 -0.00186
51.9 -0.00156
51.95 -0.00346
52 -0.00686
52.05 -0.00854
52.1 -0.00717
52.15 -0.00546
52.2 -0.00271
52.25 -0.00264
52.3 -0.00282
52.35 -0.0018
52.4 -0.00296
52.45 -0.00434
52.5 -0.00421
52.55 -0.00521
52.6 -0.00691
52.65 -0.00636
52.7 -0.00641
52.75 -0.00578
52.8 -0.00645
52.85 -0.00601
52.9 -0.00802
52.95 -0.00793
53 -0.00833
53.05 -0.0061
53.1 -0.00585
53.15 -0.00476
53.2 -0.00188
53.25 0.00024
53.3 0.00055
53.35 -0.00079
53.4 -0.00435
53.45 -0.00443
53.5 -0.00661
53.55 -0.00712
53.6 -0.00432
53.65 -0.00357
53.7 -0.00595
53.75 -0.00463
53.8 -0.0052
53.85 -0.00398
53.9 -0.00563
53.95 -0.00802
54 -0.00785
54.05 -0.00851
54.1 -0.00745
54.15 -0.00831
54.2 -0.00777
54.25 -0.00588
54.3 -0.00462
54.35 -0.00341
54.4 -0.00222
54.45 0.00067
54.5 0.00238
54.55 0.00465
54.6 0.00673
54.65 0.00577
54.7 0.0024
54.75 -0.00214
54.8 -0.00245
54.85 -0.00375
54.9 -0.00144
54.95 -0.0004
55 0.00129
55.05 -0.00048
55.1 -0.00143
55.15 -0.004
55.2 -0.00267
55.25 -0.00244
55.3 -0.00189
55.35 -0.0013
55.4 0.00126
55.45 0.00141
55.5 0.00185
55.55 0.00102
55.6 0.00258
55.65 0.00245
55.7 0.00497
55.75 0.00335
55.8 -0.0008
55.85 -0.00134
55.9 0.00101
55.95 0.00467
56 0.00789
56.05 0.0077
56.1 0.00771
56.15 0.00769
56.2 0.00476
56.25 0.00187
56.3 -0.00197
56.35 -0.00599
56.4 -0.00905
56.45 -0.00787
56.5 -0.00726
56.55 -0.00434
56.6 -0.00321
56.65 -0.00131
56.7 0.00161
56.75 0.00229
56.8 0.00395
56.85 0.0058
56.9 0.00395
56.95 0.00364
57 0.00469
57.05 0.00202
57.1 0.00127
57.15 0.0016
57.2 0.00082
57.25 -0.00008
57.3 -0.00248
57.35 -0.00483
57.4 -0.00416
57.45 -0.005
57.5 -0.00438
57.55 -0.00374
57.6 -0.00075
57.65 0.00146
57.7 0.00311
57.75 0.00667
57.8 0.00544
57.85 0.00301
57.9 0.00318
57.95 0.00355
58 0.00269
58.05 0.001
58.1 -0.00066
58.15 -0.00489
58.2 -0.00572
58.25 -0.0052
58.3 -0.00349
58.35 -0.0031
58.4 -0.00412
58.45 -0.00372
58.5 -0.00285
58.55 -0.0012
58.6 0.00052
58.65 0.00058
58.7 -0.00165
58.75 -0.00257
58.8 -0.00527
58.85 -0.0077
58.9 -0.00716
58.95 -0.00531
59 -0.00427
59.05 -0.00235
59.1 -0.00133
59.15 0.002
59.2 0.00357
59.25 0.00146
59.3 -0.00249
59.35 -0.00478
59.4 -0.00526
59.45 -0.00307
59.5 -0.00157
59.55 0.0007
59.6 0.00411
59.65 0.00395
59.7 0.00618
59.75 0.00762
59.8 0.00897
59.85 0.01045
59.9 0.01289
59.95 0.01607
60 0.01501
60.05 0.01087
60.1 0.00631
60.15 0.00296
60.2 0.00147
60.25 -0.00208
60.3 -0.00661
60.35 -0.00739
60.4 -0.00909
60.45 -0.00877
60.5 -0.00878
60.55 -0.00675
60.6 -0.00596
60.65 -0.00437
60.7 -0.00504
60.75 -0.00297
60.8 -0.00199
60.85 -0.00117
60.9 -0.00003
60.95 0.00168
61 0.00464
61.05 0.00713
61.1 0.00951
61.15 0.01143
61.2 0.01232
61.25 0.00914
61.3 0.00855
61.35 0.00565
61.4 0.00043
61.45 -0.00391
61.5 -0.00697
61.55 -0.00923
61.6 -0.01261
61.65 -0.0143
61.7 -0.01186
61.75 -0.00749
61.8 -0.00454
61.85 -0.00493
61.9 -0.002
61.95 -0.00266
62 -0.0055
62.05 -0.0076
62.1 -0.01092
62.15 -0.01154
62.2 -0.00918
62.25 -0.0059
62.3 -0.00313
62.35 -0.00075
62.4 0.00304
62.45 0.00467
62.5 0.00376
62.55 0.00378
62.6 0.00437
62.65 0.00324
62.7 0.00349
62.75 0.0003
62.8 -0.0018
62.85 -0.00037
62.9 0.00252
62.95 0.00099
63 -0.00117
63.05 -0.00473
63.1 -0.00974
63.15 -0.01265
63.2 -0.01098
63.25 -0.00906
63.3 -0.00749
63.35 -0.00335
63.4 -0.00178
63.45 -0.00036
63.5 -0.00169
63.55 -0.00377
63.6 -0.00308
63.65 -0.00272
63.7 -0.0041
63.75 -0.00173
63.8 0.00146
63.85 0.00547
63.9 0.00664
63.95 0.00842
64 0.00933
64.05 0.00722
64.1 0.00426
64.15 0.00207
64.2 -0.00195
64.25 -0.00529
64.3 -0.0074
64.35 -0.00713
64.4 -0.00915
64.45 -0.01238
64.5 -0.0124
64.55 -0.01077
64.6 -0.01016
64.65 -0.01126
64.7 -0.01345
64.75 -0.01095
64.8 -0.00587
64.85 -0.00299
64.9 0.00203
64.95 0.00783
65 0.01018
65.05 0.00952
65.1 0.00672
65.15 0.00438
65.2 0.00394
65.25 0.0023
65.3 0.00205
65.35 0.00414
65.4 0.00321
65.45 0.00145
65.5 -0.00266
65.55 -0.00409
65.6 -0.00171
65.65 0.00235
65.7 0.00736
65.75 0.01107
65.8 0.00978
65.85 0.00503
65.9 0.00311
65.95 0.0013
66 0.00257
66.05 0.00284
66.1 0.00281
66.15 0.00336
66.2 0.00495
66.25 0.00332
66.3 -0.00107
66.35 -0.00341
66.4 -0.00269
66.45 -0.00427
66.5 -0.00429
66.55 -0.00189
66.6 -0.00327
66.65 -0.00307
66.7 -0.00219
66.75 -0.0008
66.8 0.00002
66.85 -0.00074
66.9 -0.00059
66.95 0.00024
67 0.00153
67.05 0.00247
67.1 0.00158
67.15 -0.00093
67.2 -0.00339
67.25 -0.00688
67.3 -0.00684
67.35 -0.00495
67.4 -0.00622
67.45 -0.00424
67.5 -0.00352
67.55 -0.00086
67.6 0.00024
67.65 0.00216
67.7 0.00609
67.75 0.00555
67.8 0.00745
67.85 0.00766
67.9 0.00517
67.95 0.00325
68 0.00352
68.05 0.00438
68.1 0.00155
68.15 0.00089
68.2 0.00293
68.25 0.00121
68.3 0.00195
68.35 -0.00055
68.4 0.00038
68.45 0.00198
68.5 0.00085
68.55 0.00166
68.6 -0.00106
68.65 -0.00445
68.7 -0.00795
68.75 -0.00814
68.8 -0.00936
68.85 -0.01143
68.9 -0.01235
68.95 -0.01399
69 -0.01529
69.05 -0.01719
69.1 -0.01964
69.15 -0.02038
69.2 -0.02189
69.25 -0.01907
69.3 -0.01519
69.35 -0.01389
69.4 -0.01048
69.45 -0.00752
69.5 -0.00281
69.55 0.00295
69.6 0.00615
69.65 0.00617
69.7 0.00395
69.75 0.00172
69.8 -0.00151
69.85 -0.00254
69.9 -0.00081
69.95 0.00172
70 0.00379
70.05 0.00463
70.1 0.00605
70.15 0.00816
70.2 0.00915
70.25 0.0061
70.3 0.00327
70.35 0.00243
70.4 -0.00066
70.45 -0.00405
70.5 -0.00538
70.55 -0.00377
70.6 -0.00493
70.65 -0.00499
70.7 -0.00563
70.75 -0.00631
70.8 -0.00465
70.85 -0.00386
70.9 -0.00364
70.95 -0.00057
71 0.00006
71.05 0.00327
71.1 0.00714
71.15 0.00607
71.2 0.00278
71.25 0.00045
71.3 -0.00096
71.35 -0.00311
71.4 -0.00689
71.45 -0.01136
71.5 -0.01085
71.55 -0.01113
71.6 -0.01161
71.65 -0.0138
71.7 -0.01211
71.75 -0.0106
71.8 -0.01076
71.85 -0.01215
71.9 -0.01184
71.95 -0.0093
72 -0.00743
72.05 -0.00663
72.1 -0.00358
72.15 -0.00289
72.2 -0.00246
72.25 -0.00332
72.3 -0.00581
72.35 -0.00537
72.4 -0.00143
72.45 -0.00094
72.5 -0.00277
72.55 -0.00419
72.6 -0.00723
72.65 -0.00929
72.7 -0.00814
72.75 -0.00881
72.8 -0.00771
72.85 -0.00411
72.9 0.00138
72.95 0.00432
73 0.00379
73.05 0.00516
73.1 0.0033
73.15 0.0022
73.2 0.00465
73.25 0.0045
73.3 0.00242
73.35 0.00251
73.4 0.00485
73.45 0.00506
73.5 0.00691
73.55 0.00992
73.6 0.01136
73.65 0.01327
73.7 0.0127
73.75 0.00987
73.8 0.009
73.85 0.0073
73.9 0.0077
73.95 0.01031
74 0.01006
74.05 0.00893
74.1 0.00519
74.15 0.00052
74.2 0.00025
74.25 -0.00107
74.3 -0.00355
74.35 -0.0058
74.4 -0.00595
74.45 -0.0035
74.5 -0.00124
74.55 0.00203
74.6 0.00677
74.65 0.00919
74.7 0.00713
74.75 0.00469
74.8 0.00002
74.85 -0.00045
74.9 -0.00132
74.95 -0.00262
75 -0.00167
75.05 -0.0027
75.1 -0.00311
75.15 -0.00389
75.2 -0.00389
75.25 -0.00138
75.3 -0.00026
75.35 -0.00125
75.4 -0.00375
75.45 -0.00603
75.5 -0.00531
75.55 -0.00253
75.6 -0.00315
75.65 -0.00258
75.7 -0.00447
75.75 -0.00341
75.8 -0.00161
75.85 0.00075
75.9 0.0029
75.95 0.00596
76 0.00617
76.05 0.00895
76.1 0.00938
76.15 0.00611
76.2 0.00496
76.25 0.00458
76.3 0.00555
76.35 0.00702
76.4 0.0062
76.45 0.00299
76.5 0.00265
76.55 0.00315
76.6 0.00487
76.65 0.00598
76.7 0.00686
76.75 0.00491
76.8 0.00343
76.85 0.00311
76.9 0.00119
76.95 0.00263
77 0.0039
77.05 0.00507
77.1 0.00535
77.15 0.0049
77.2 0.00352
77.25 0.00284
77.3 0.00227
77.35 0.00142
77.4 -0.00091
77.45 -0.00272
77.5 -0.00157
77.55 -0.00284
77.6 -0.00574
77.65 -0.00493
77.7 -0.00512
77.75 -0.00689
77.8 -0.00962
77.85 -0.0111
77.9 -0.00878
77.95 -0.00672
78 -0.00778
78.05 -0.00904
78.1 -0.01135
78.15 -0.01163
78.2 -0.01258
78.25 -0.01351
78.3 -0.01172
78.35 -0.01115
78.4 -0.00749
78.45 -0.00711
78.5 -0.00788
78.55 -0.00805
78.6 -0.00674
78.65 -0.00278
78.7 0.00183
78.75 0.00703
78.8 0.01019
78.85 0.01358
78.9 0.01687
78.95 0.01738
79 0.01498
79.05 0.01068
79.1 0.00727
79.15 0.00239
79.2 0.0007
79.25 -0.00288
79.3 -0.0053
79.35 -0.00548
79.4 -0.00377
79.45 0.00067
79.5 0.00074
79.55 0.00014
79.6 0.00002
79.65 0.00306
79.7 0.00627
79.75 0.00632
79.8 0.00332
79.85 -0.00175
79.9 -0.00505
79.95 -0.00617
80 -0.00833
80.05 -0.00913
80.1 -0.01032
80.15 -0.01182
80.2 -0.01456
80.25 -0.01531
80.3 -0.01421
80.35 -0.01221
80.4 -0.01092
80.45 -0.00715
80.5 -0.0038
80.55 -0.00064
80.6 0.00327
80.65 0.00736
80.7 0.00775
80.75 0.00793
80.8 0.00853
80.85 0.00586
80.9 0.00343
80.95 0.00336
81 0.00142
81.05 0.00218
81.1 0.00271
81.15 0.00361
81.2 0.00401
81.25 0.00415
81.3 0.00567
81.35 0.00702
81.4 0.00442
81.45 0.00425
81.5 0.00543
81.55 0.00331
81.6 0.00344
81.65 0.00625
81.7 0.0063
81.75 0.00708
81.8 0.00526
81.85 0.00236
81.9 -0.00184
81.95 -0.00218
82 -0.00067
82.05 0.00274
82.1 0.00477
82.15 0.00872
82.2 0.0116
82.25 0.01454
82.3 0.01284
82.35 0.01065
82.4 0.00697
82.45 0.00543
82.5 0.00418
82.55 0.00134
82.6 -0.00152
82.65 -0.00428
82.7 -0.00758
82.75 -0.00798
82.8 -0.00945
82.85 -0.01128
82.9 -0.00861
82.95 -0.00686
83 -0.00706
83.05 -0.00849
83.1 -0.00642
83.15 -0.0068
83.2 -0.00637
83.25 -0.00385
83.3 -0.00163
83.35 -0.00229
83.4 -0.00387
83.45 -0.00468
83.5 -0.00763
83.55 -0.01116
83.6 -0.01384
83.65 -0.01313
83.7 -0.00865
83.75 -0.00682
83.8 -0.00491
83.85 -0.00438
83.9 -0.00093
83.95 0.00239
84 0.00294
84.05 0.00254
84.1 0.00143
84.15 0.00349
84.2 0.00651
84.25 0.01001
84.3 0.01284
84.35 0.01561
84.4 0.01411
84.45 0.0121
84.5 0.00791
84.55 0.00674
84.6 0.00662
84.65 0.00401
84.7 0.00467
84.75 0.00582
84.8 0.0063
84.85 0.00721
84.9 0.00502
84.95 0.0008
85 -0.00064
85.05 -0.00069
85.1 -0.00116
85.15 0.00104
85.2 0.00391
85.25 0.00475
85.3 0.00324
85.35 0.00048
85.4 -0.0028
85.45 -0.00494
85.5 -0.00333
85.55 -0.00444
85.6 -0.00738
85.65 -0.01081
85.7 -0.01338
85.75 -0.01576
85.8 -0.01658
85.85 -0.01439
85.9 -0.00908
85.95 -0.0055
86 -0.00513
86.05 -0.00247
86.1 0.00107
86.15 0.00498
86.2 0.01003
86.25 0.00988
86.3 0.01018
86.35 0.01047
86.4 0.01037
86.45 0.00744
86.5 0.00222
86.55 -0.00227
86.6 -0.00617
86.65 -0.00649
86.7 -0.0065
86.75 -0.00591
86.8 -0.00654
86.85 -0.00621
86.9 -0.0024
86.95 -0.00022
87 0.00162
87.05 0.00397
87.1 0.00409
87.15 0.00208
87.2 0.00259
87.25 0.00149
87.3 0.00294
87.35 0.0055
87.4 0.00682
87.45 0.00894
87.5 0.00967
87.55 0.01026
87.6 0.01243
87.65 0.01539
87.7 0.01637
87.75 0.01592
87.8 0.01546
87.85 0.01554
87.9 0.01401
87.95 0.0109
88 0.00709
88.05 0.00297
88.1 -0.00222
88.15 -0.00528
88.2 -0.00974
88.25 -0.0136
88.3 -0.01619
88.35 -0.01874
88.4 -0.01908
88.45 -0.01592
88.5 -0.01101
88.55 -0.00503
88.6 -0.00336
88.65 -0.003
88.7 -0.00033
88.75 0.00275
88.8 0.0029
88.85 0.00068
88.9 0.00036
88.95 0.00274
89 0.00679
89.05 0.00616
89.1 0.00774
89.15 0.00933
89.2 0.0082
89.25 0.00748
89.3 0.00909
89.35 0.00982
89.4 0.01064
89.45 0.00881
89.5 0.00639
89.55 0.00372
89.6 0.00016
89.65 -0.00261
89.7 -0.00311
89.75 -0.00223
89.8 -0.00068
89.85 -0.00259
89.9 -0.0008
89.95 0.00115
90 0.00507
90.05 0.00661
90.1 0.00721
90.15 0.00715
90.2 0.00445
90.25 0.00307
90.3 0.00315
90.35 0.0019
90.4 -0.00165
90.45 -0.00668
90.5 -0.0104
90.55 -0.01052
90.6 -0.00818
90.65 -0.00605
90.7 -0.00417
90.75 -0.00082
90.8 0.00404
90.85 0.00586
90.9 0.00385
90.95 0.00476
91 0.00383
91.05 0.00128
91.1 -0.00348
91.15 -0.00492
91.2 -0.00696
91.25 -0.00836
91.3 -0.00608
91.35 -0.00467
91.4 -0.00577
91.45 -0.00629
91.5 -0.00379
91.55 -0.00325
91.6 -0.00338
91.65 -0.00331
91.7 -0.00115
91.75 0.00233
91.8 0.00611
91.85 0.00644
91.9 0.00654
91.95 0.00477
92 0.00416
92.05 0.00328
92.1 0.00336
92.15 0.00352
92.2 0.0034
92.25 0.00193
92.3 -0.00179
92.35 -0.00221
92.4 0.00028
92.45 0.0016
92.5 0.00225
92.55 0.00044
92.6 0.00176
92.65 0.00034
92.7 0.00065
92.75 0.00254
92.8 0.00132
92.85 0.00197
92.9 0.00475
92.95 0.00815
93 0.00933
93.05 0.01067
93.1 0.00759
93.15 0.00735
93.2 0.00826
93.25 0.00855
93.3 0.00896
93.35 0.00942
93.4 0.00953
93.45 0.01024
93.5 0.01244
93.55 0.01108
93.6 0.00954
93.65 0.00935
93.7 0.00691
93.75 0.0029
93.8 0.00145
93.85 -0.00091
93.9 -0.00344
93.95 -0.00274
94 -0.0027
94.05 -0.00323
94.1 -0.0063
94.15 -0.0072
94.2 -0.00666
94.25 -0.00616
94.3 -0.00838
94.35 -0.01035
94.4 -0.00833
94.45 -0.00471
94.5 -0.00025
94.55 0.00183
94.6 0.00545
94.65 0.00515
94.7 0.00229
94.75 -0.00112
94.8 -0.00255
94.85 -0.00093
94.9 -0.00055
94.95 -0.00016
95 0.00003
95.05 0.00049
95.1 0.00298
95.15 0.00462
95.2 0.00748
95.25 0.01031
95.3 0.01034
95.35 0.00974
95.4 0.00972
95.45 0.00914
95.5 0.00522
95.55 0.00231
95.6 -0.00119
95.65 -0.00457
95.7 -0.00478
95.75 -0.00373
95.8 -0.00374
95.85 -0.00645
95.9 -0.00664
95.95 -0.00388
96 -0.00186
96.05 0.0016
96.1 0.00095
96.15 -0.00227
96.2 -0.0057
96.25 -0.00852
96.3 -0.00983
96.35 -0.00839
96.4 -0.00656
96.45 -0.0061
96.5 -0.00824
96.55 -0.00965
96.6 -0.01226
96.65 -0.01605
96.7 -0.01582
96.75 -0.01312
96.8 -0.01106
96.85 -0.00693
96.9 -0.00264
96.95 -0.00046
97 -0.00003
97.05 -0.00072
97.1 -0.0037
97.15 -0.00289
97.2 -0.0015
97.25 0.002
97.3 0.00404
97.35 0.00456
97.4 0.00298
97.45 0.00418
97.5 0.00275
97.55 0.00009
97.6 -0.00039
97.65 -0.00327
97.7 -0.00631
97.75 -0.00513
97.8 -0.00495
97.85 -0.00318
97.9 -0.00268
97.95 -0.00477
98 -0.00391
98.05 -0.00109
98.1 0.00009
98.15 -0.00222
98.2 -0.00208
98.25 -0.00161
98.3 -0.00283
98.35 -0.00119
98.4 -0.00245
98.45 -0.00029
98.5 0.00256
98.55 0.00352
98.6 0.00302
98.65 0.00078
98.7 0.00056
98.75 -0.00206
98.8 -0.00316
98.85 -0.00392
98.9 -0.0065
98.95 -0.00651
99 -0.00341
99.05 -0.00249
99.1 -0.00193
99.15 -0.00263
99.2 -0.00427
99.25 -0.00712
99.3 -0.0066
99.35 -0.00426
99.4 0.00036
99.45 0.00249
99.5 0.00253
99.55 0.00202
99.6 0.00194
99.65 0.00048
99.7 -0.00214
99.75 -0.00426
99.8 -0.00447
99.85 -0.00366
99.9 0.00005
99.95 0.00476
