0 0
0.05 0.00132
0.1 0.0083
0.15 0.02106
0.2 0.03382
0.25 0.04789
0.3 0.05917
0.35 0.06971
0.4 0.07298
0.45 0.06894
0.5 0.0686
0.55 0.07098
0.6 0.07212
0.65 0.07195
0.7 0.06928
0.75 0.0631
0.8 0.0594
0.85 0.05574
0.9 0.04965
0.95 0.04327
1 0.03994
1.05 0.03653
1.1 0.03467
1.15 0.03809
1.2 0.04363
1.25 0.04594
1.3 0.0451
1.35 0.04766
1.4 0.04428
1.45 0.04065
1.5 0.03566
1.55 0.03433
1.6 0.02955
1.65 0.02378
1.7 0.01661
1.75 0.01761
1.8 0.01516
1.85 0.01927
1.9 0.01838
1.95 0.019
2 0.02217
2.05 0.02381
2.1 0.022
2.15 0.02032
2.2 0.01949
2.25 0.02273
2.3 0.02956
2.35 0.03079
2.4 0.03578
2.45 0.04261
2.5 0.04623
2.55 0.04369
2.6 0.03846
2.65 0.03146
2.7 0.02262
2.75 0.02187
2.8 0.01863
2.85 0.01412
2.9 0.01082
2.95 0.01153
3 0.0112
3.05 0.01321
3.1 0.01174
3.15 0.008
3.2 0.00318
3.25 -0.00279
3.3 -0.00053
3.35 0.00241
3.4 0.00891
3.45 0.01336
3.5 0.01448
3.55 0.01881
3.6 0.02006
3.65 0.02331
3.7 0.02323
3.75 0.02769
3.8 0.03432
3.85 0.0378
3.9 0.0396
3.95 0.04342
4 0.04357
4.05 0.04474
4.1 0.03801
4.15 0.03286
4.2 0.03169
4.25 0.02647
4.3 0.01789
4.35 0.00571
4.4 -0.00491
4.45 -0.01045
4.5 -0.01785
4.55 -0.0246
4.6 -0.02847
4.65 -0.03641
4.7 -0.04509
4.75 -0.05836
4.8 -0.08002
4.85 -0.10263
4.9 -0.13305
4.95 -0.16812
5 -0.20781
5.05 -0.24409
5.1 -0.28208
5.15 -0.32135
5.2 -0.36557
5.25 -0.40991
5.3 -0.4563
5.35 -0.50799
5.4 -0.56205
5.45 -0.62425
5.5 -0.68984
5.55 -0.75007
5.6 -0.81055
5.65 -0.86048
5.7 -0.90099
5.75 -0.93699
5.8 -0.97048
5.85 -0.99841
5.9 -1.0201
5.95 -1.0319
6 -1.03493
6.05 -1.02391
6.1 -1.00071
6.15 -0.96718
6.2 -0.92875
6.25 -0.88775
6.3 -0.84482
6.35 -0.7947
6.4 -0.74517
6.45 -0.69361
6.5 -0.6444
6.55 -0.58955
6.6 -0.53033
6.65 -0.47456
6.7 -0.41616
6.75 -0.35726
6.8 -0.29715
6.85 -0.2374
6.9 -0.17533
6.95 -0.11337
7 -0.05266
7.05 0.01506
7.1 0.0785
7.15 0.14598
7.2 0.21653
7.25 0.28768
7.3 0.35652
7.35 0.41775
7.4 0.47521
7.45 0.53031
7.5 0.58097
7.55 0.62676
7.6 0.67317
7.65 0.71921
7.7 0.75578
7.75 0.78408
7.8 0.8078
7.85 0.83076
7.9 0.84422
7.95 0.85818
8 0.86785
8.05 0.87655
8.1 0.87791
8.15 0.87593
8.2 0.87281
8.25 0.86739
8.3 0.85943
8.35 0.84495
8.4 0.8261
8.45 0.81016
8.5 0.79611
8.55 0.7788
8.6 0.76498
8.65 0.74936
8.7 0.7301
8.75 0.70535
8.8 0.68233
8.85 0.66068
8.9 0.64326
8.95 0.6237
9 0.60066
9.05 0.58163
9.1 0.56198
9.15 0.54227
9.2 0.52367
9.25 0.50941
9.3 0.49246
9.35 0.47416
9.4 0.4608
9.45 0.44285
9.5 0.42712
9.55 0.41576
9.6 0.40178
9.65 0.38543
9.7 0.36783
9.75 0.35147
9.8 0.34064
9.85 0.33417
9.9 0.32303
9.95 0.31675
10 0.30579
10.05 0.29406
10.1 0.28367
10.15 0.27552
10.2 0.26247
10.25 0.25109
10.3 0.24363
10.35 0.2329
10.4 0.22682
10.45 0.2215
10.5 0.21157
10.55 0.20469
10.6 0.1994
10.65 0.19266
10.7 0.18137
10.75 0.16717
10.8 0.15026
10.85 0.13547
10.9 0.11937
10.95 0.10239
11 0.08803
11.05 0.07422
11.1 0.06436
11.15 0.05511
11.2 0.04491
11.25 0.03588
11.3 0.02171
11.35 0.00447
11.4 -0.00592
11.45 -0.0173
11.5 -0.02314
11.55 -0.03457
11.6 -0.04003
11.65 -0.05048
11.7 -0.06092
11.75 -0.07374
11.8 -0.08677
11.85 -0.09323
11.9 -0.10028
11.95 -0.1006
12 -0.10416
12.05 -0.11136
12.1 -0.11964
12.15 -0.12774
12.2 -0.13363
12.25 -0.1337
12.3 -0.12887
12.35 -0.12802
12.4 -0.12454
12.45 -0.12346
12.5 -0.12713
12.55 -0.12764
12.6 -0.1281
12.65 -0.12539
12.7 -0.12278
12.75 -0.11809
12.8 -0.1186
12.85 -0.11531
12.9 -0.11569
12.95 -0.11236
13 -0.10836
13.05 -0.1057
13.1 -0.10986
13.15 -0.10905
13.2 -0.10654
13.25 -0.10436
13.3 -0.10577
13.35 -0.10806
13.4 -0.11272
13.45 -0.12022
13.5 -0.12189
13.55 -0.11995
13.6 -0.11492
13.65 -0.10874
13.7 -0.10587
13.75 -0.10604
13.8 -0.1058
13.85 -0.10636
13.9 -0.10956
13.95 -0.1098
14 -0.11204
14.05 -0.11185
14.1 -0.1078
14.15 -0.10566
14.2 -0.10293
14.25 -0.10445
14.3 -0.10669
14.35 -0.10685
14.4 -0.10937
14.45 -0.10994
14.5 -0.10481
14.55 -0.10171
14.6 -0.0944
14.65 -0.08745
14.7 -0.0788
14.75 -0.07256
14.8 -0.06463
14.85 -0.05603
14.9 -0.04846
14.95 -0.04672
15 -0.04475
15.05 -0.04473
15.1 -0.04498
15.15 -0.04545
15.2 -0.04618
15.25 -0.05136
15.3 -0.05123
15.35 -0.05052
15.4 -0.05505
15.45 -0.05924
15.5 -0.06144
15.55 -0.06737
15.6 -0.0664
15.65 -0.06932
15.7 -0.07171
15.75 -0.06792
15.8 -0.06769
15.85 -0.06921
15.9 -0.06938
15.95 -0.06834
16 -0.0684
16.05 -0.0701
16.1 -0.07169
16.15 -0.07099
16.2 -0.06495
16.25 -0.06388
16.3 -0.05757
16.35 -0.05359
16.4 -0.05435
16.45 -0.05582
16.5 -0.05849
16.55 -0.05416
16.6 -0.0482
16.65 -0.03988
16.7 -0.03772
16.75 -0.04041
16.8 -0.04236
16.85 -0.04031
16.9 -0.03806
16.95 -0.0348
17 -0.03627
17.05 -0.04017
17.1 -0.04171
17.15 -0.0407
17.2 -0.04081
17.25 -0.04042
17.3 -0.0352
17.35 -0.03322
17.4 -0.03238
17.45 -0.03321
17.5 -0.03416
17.55 -0.03213
17.6 -0.03049
17.65 -0.03408
17.7 -0.03977
17.75 -0.04335
17.8 -0.04415
17.85 -0.04246
17.9 -0.03557
17.95 -0.03052
18 -0.02666
18.05 -0.02541
18.1 -0.02292
18.15 -0.01728
18.2 -0.01845
18.25 -0.02312
18.3 -0.02453
18.35 -0.02422
18.4 -0.02575
18.45 -0.02369
18.5 -0.02653
18.55 -0.03056
18.6 -0.03401
18.65 -0.03261
18.7 -0.0333
18.75 -0.03235
18.8 -0.03172
18.85 -0.03438
18.9 -0.03865
18.95 -0.04345
19 -0.04443
19.05 -0.04127
19.1 -0.0334
19.15 -0.02289
19.2 -0.01112
19.25 -0.00686
19.3 -0.00068
19.35 0.0035
19.4 0.00072
19.45 -0.00201
19.5 -0.00596
19.55 -0.01302
19.6 -0.01578
19.65 -0.01296
19.7 -0.0112
19.75 -0.00829
19.8 -0.0094
19.85 -0.00629
19.9 -0.00188
19.95 -0.0043
20 -0.00716
20.05 -0.00714
20.1 -0.00571
20.15 -0.00978
20.2 -0.01305
20.25 -0.01187
20.3 -0.00884
20.35 -0.0104
20.4 -0.00857
20.45 -0.00753
20.5 -0.00319
20.55 -0.00128
20.6 -0.002
20.65 -0.00715
20.7 -0.00872
20.75 -0.00604
20.8 -0.00043
20.85 -0.00081
20.9 -0.0034
20.95 -0.00622
21 -0.00546
21.05 -0.00648
21.1 -0.01078
21.15 -0.00977
21.2 -0.00574
21.25 -0.00424
21.3 -0.001
21.35 -0.00277
21.4 -0.00416
21.45 -0.00323
21.5 -0.00159
21.55 -0.00336
21.6 -0.00595
21.65 -0.00484
21.7 -0.00425
21.75 -0.00855
21.8 -0.01386
21.85 -0.01591
21.9 -0.01424
21.95 -0.01482
22 -0.01278
22.05 -0.00773
22.1 -0.00895
22.15 -0.00778
22.2 -0.00906
22.25 -0.0134
22.3 -0.01402
22.35 -0.01485
22.4 -0.01381
22.45 -0.01595
22.5 -0.01514
22.55 -0.01344
22.6 -0.01517
22.65 -0.01716
22.7 -0.02234
22.75 -0.02501
22.8 -0.02704
22.85 -0.02191
22.9 -0.01479
22.95 -0.01015
23 -0.00416
23.05 -0.00455
23.1 -0.00943
23.15 -0.012
23.2 -0.014
23.25 -0.00986
23.3 -0.00411
23.35 0.00405
23.4 0.00638
23.45 0.01093
23.5 0.00842
23.55 0.00922
23.6 0.00418
23.65 0.00017
23.7 -0.00593
23.75 -0.01218
23.8 -0.01399
23.85 -0.01242
23.9 -0.01091
23.95 -0.00739
24 -0.00215
24.05 0.00525
24.1 0.00611
24.15 0.00649
24.2 0.00476
24.25 -0.0015
24.3 -0.00513
24.35 -0.00586
24.4 -0.00701
24.45 -0.00732
24.5 -0.01018
24.55 -0.00874
24.6 -0.01022
24.65 -0.0143
24.7 -0.02063
24.75 -0.02125
24.8 -0.01731
24.85 -0.01348
24.9 -0.00835
24.95 -0.00799
25 -0.00932
25.05 -0.00673
25.1 -0.00383
25.15 -0.00287
25.2 -0.00129
25.25 -0.00019
25.3 -0.00126
25.35 -0.00136
25.4 0.00167
25.45 0.00365
25.5 -0.00033
25.55 0.0006
25.6 -0.00012
25.65 -0.00306
25.7 -0.00366
25.75 -0.00511
25.8 -0.00524
25.85 -0.00267
25.9 -0.00493
25.95 -0.00174
26 -0.00075
26.05 0.00005
26.1 -0.00258
26.15 -0.00766
26.2 -0.00837
26.25 -0.00632
26.3 -0.00835
26.35 -0.011
26.4 -0.01584
26.45 -0.01469
26.5 -0.01202
26.55 -0.00799
26.6 -0.00369
26.65 -0.00476
26.7 -0.00433
26.75 -0.00494
26.8 -0.0084
26.85 -0.01096
26.9 -0.01442
26.95 -0.01912
27 -0.01713
27.05 -0.01354
27.1 -0.00754
27.15 0.00123
27.2 0.00844
27.25 0.01639
27.3 0.02183
27.35 0.02602
27.4 0.02564
27.45 0.02304
27.5 0.01466
27.55 0.00299
27.6 -0.0034
27.65 -0.01175
27.7 -0.02336
27.75 -0.03418
27.8 -0.04618
27.85 -0.05787
27.9 -0.07169
27.95 -0.08743
28 -0.09809
28.05 -0.11009
28.1 -0.1271
28.15 -0.14291
28.2 -0.16595
28.25 -0.1916
28.3 -0.22285
28.35 -0.25787
28.4 -0.29011
28.45 -0.32269
28.5 -0.35725
28.55 -0.39885
28.6 -0.44495
28.65 -0.49276
28.7 -0.54351
28.75 -0.59934
28.8 -0.66438
28.85 -0.73015
28.9 -0.80333
28.95 -0.87544
29 -0.95322
29.05 -1.03575
29.1 -1.11455
29.15 -1.1982
29.2 -1.28304
29.25 -1.36244
29.3 -1.44324
29.35 -1.51742
29.4 -1.58518
29.45 -1.64419
29.5 -1.69475
29.55 -1.73862
29.6 -1.78076
29.65 -1.8156
29.7 -1.8375
29.75 -1.85396
29.8 -1.86035
29.85 -1.86008
29.9 -1.84816
29.95 -1.82119
30 -1.78161
30.05 -1.7324
30.1 -1.67756
30.15 -1.6118
30.2 -1.53137
30.25 -1.44303
30.3 -1.34305
30.35 -1.23759
30.4 -1.12286
30.45 -1.00043
30.5 -0.87716
30.55 -0.74553
30.6 -0.61681
30.65 -0.48503
30.7 -0.35483
30.75 -0.22712
30.8 -0.09935
30.85 0.02686
30.9 0.15542
30.95 0.28029
31 0.39745
31.05 0.51062
31.1 0.61821
31.15 0.7237
31.2 0.82124
31.25 0.91609
31.3 1.00108
31.35 1.07328
31.4 1.13549
31.45 1.19403
31.5 1.25047
31.55 1.30217
31.6 1.35151
31.65 1.38898
31.7 1.41872
31.75 1.4429
31.8 1.45992
31.85 1.47332
31.9 1.4868
31.95 1.49768
32 1.51126
32.05 1.52576
32.1 1.53871
32.15 1.54739
32.2 1.5479
32.25 1.54752
32.3 1.5417
32.35 1.53812
32.4 1.53349
32.45 1.52886
32.5 1.51648
32.55 1.49915
32.6 1.47928
32.65 1.45883
32.7 1.43659
32.75 1.41859
32.8 1.4021
32.85 1.38654
32.9 1.37008
32.95 1.349
33 1.32636
33.05 1.30459
33.1 1.28266
33.15 1.26047
33.2 1.23954
33.25 1.21592
33.3 1.18957
33.35 1.16366
33.4 1.13482
33.45 1.10706
33.5 1.08108
33.55 1.05315
33.6 1.02518
33.65 0.99515
33.7 0.95822
33.75 0.92281
33.8 0.88545
33.85 0.85032
33.9 0.81543
33.95 0.78409
34 0.75405
34.05 0.72005
34.1 0.68391
34.15 0.64744
34.2 0.60931
34.25 0.57706
34.3 0.54749
34.35 0.51501
34.4 0.48343
34.45 0.45485
34.5 0.42147
34.55 0.39207
34.6 0.3658
34.65 0.33408
34.7 0.29937
34.75 0.2679
34.8 0.23921
34.85 0.20906
34.9 0.17995
34.95 0.15762
35 0.13155
35.05 0.10522
35.1 0.07752
35.15 0.05875
35.2 0.04159
35.25 0.02676
35.3 0.01218
35.35 -0.00031
35.4 -0.01823
35.45 -0.0355
35.5 -0.05026
35.55 -0.06583
35.6 -0.08236
35.65 -0.0978
35.7 -0.11685
35.75 -0.13726
35.8 -0.15709
35.85 -0.17183
35.9 -0.18311
35.95 -0.19428
36 -0.2043
36.05 -0.21035
36.1 -0.21736
36.15 -0.2233
36.2 -0.22695
36.25 -0.22723
36.3 -0.23189
36.35 -0.23536
36.4 -0.23949
36.45 -0.24317
36.5 -0.24834
36.55 -0.2513
36.6 -0.25398
36.65 -0.25144
36.7 -0.24952
36.75 -0.24511
36.8 -0.24734
36.85 -0.25283
36.9 -0.25554
36.95 -0.25525
37 -0.25965
37.05 -0.26334
37.1 -0.26955
37.15 -0.27218
37.2 -0.27289
37.25 -0.27218
37.3 -0.26713
37.35 -0.26706
37.4 -0.26861
37.45 -0.26729
37.5 -0.26702
37.55 -0.26212
37.6 -0.25263
37.65 -0.2491
37.7 -0.24311
37.75 -0.23955
37.8 -0.23191
37.85 -0.22657
37.9 -0.22193
37.95 -0.21669
38 -0.20921
38.05 -0.20253
38.1 -0.20013
38.15 -0.20019
38.2 -0.20421
38.25 -0.20363
38.3 -0.20538
38.35 -0.20982
38.4 -0.20772
38.45 -0.2087
38.5 -0.21117
38.55 -0.21223
38.6 -0.21182
38.65 -0.2082
38.7 -0.19897
38.75 -0.18971
38.8 -0.186
38.85 -0.18031
38.9 -0.17362
38.95 -0.16839
39 -0.16843
39.05 -0.16926
39.1 -0.16679
39.15 -0.16245
39.2 -0.15574
39.25 -0.15582
39.3 -0.15861
39.35 -0.16412
39.4 -0.16723
39.45 -0.16588
39.5 -0.16256
39.55 -0.15693
39.6 -0.15365
39.65 -0.14796
39.7 -0.14349
39.75 -0.13864
39.8 -0.13047
39.85 -0.12923
39.9 -0.12685
39.95 -0.12045
40 -0.11443
40.05 -0.11383
40.1 -0.11405
40.15 -0.11488
40.2 -0.11854
40.25 -0.11701
40.3 -0.12019
40.35 -0.12501
40.4 -0.12873
40.45 -0.12868
40.5 -0.12242
40.55 -0.11854
40.6 -0.11768
40.65 -0.11997
40.7 -0.12277
40.75 -0.11873
40.8 -0.11801
40.85 -0.11465
40.9 -0.10898
40.95 -0.10203
41 -0.09681
41.05 -0.08879
41.1 -0.08489
41.15 -0.07919
41.2 -0.08031
41.25 -0.07701
41.3 -0.07731
41.35 -0.07535
41.4 -0.07068
41.45 -0.06493
41.5 -0.05973
41.55 -0.05969
41.6 -0.06457
41.65 -0.07149
41.7 -0.07824
41.75 -0.07952
41.8 -0.07824
41.85 -0.07327
41.9 -0.06875
41.95 -0.06959
42 -0.07058
42.05 -0.07359
42.1 -0.07063
42.15 -0.07021
42.2 -0.06682
42.25 -0.06178
42.3 -0.05821
42.35 -0.05757
42.4 -0.05277
42.45 -0.04872
42.5 -0.04519
42.55 -0.04561
42.6 -0.0497
42.65 -0.05318
42.7 -0.05609
42.75 -0.05598
42.8 -0.0508
42.85 -0.05169
42.9 -0.05075
42.95 -0.05086
43 -0.05067
43.05 -0.04991
43.1 -0.05088
43.15 -0.04769
43.2 -0.0452
43.25 -0.03975
43.3 -0.03519
43.35 -0.03605
43.4 -0.03396
43.45 -0.03702
43.5 -0.03816
43.55 -0.03822
43.6 -0.04147
43.65 -0.04078
43.7 -0.04447
43.75 -0.04374
43.8 -0.04328
43.85 -0.04261
43.9 -0.04245
43.95 -0.03745
44 -0.03283
44.05 -0.03105
44.1 -0.02844
44.15 -0.02818
44.2 -0.03192
44.25 -0.03542
44.3 -0.03946
44.35 -0.03728
44.4 -0.03787
44.45 -0.04053
44.5 -0.04187
44.55 -0.03867
44.6 -0.03583
44.65 -0.031
44.7 -0.0248
44.75 -0.0186
44.8 -0.01516
44.85 -0.01318
44.9 -0.01039
44.95 -0.01165
45 -0.01326
45.05 -0.0197
45.1 -0.01977
45.15 -0.02269
45.2 -0.02205
45.25 -0.02415
45.3 -0.0274
45.35 -0.02586
45.4 -0.0272
45.45 -0.02389
45.5 -0.01797
45.55 -0.01825
45.6 -0.01494
45.65 -0.01731
45.7 -0.02083
45.75 -0.02699
45.8 -0.03481
45.85 -0.03833
45.9 -0.03792
45.95 -0.03954
46 -0.04277
46.05 -0.04326
46.1 -0.04622
46.15 -0.04362
46.2 -0.03995
46.25 -0.03136
46.3 -0.02864
46.35 -0.02461
46.4 -0.02422
46.45 -0.02746
46.5 -0.03008
46.55 -0.03323
46.6 -0.03523
46.65 -0.03683
46.7 -0.03758
46.75 -0.0367
46.8 -0.03121
46.85 -0.02489
46.9 -0.02226
46.95 -0.01706
47 -0.00969
47.05 -0.00554
47.1 -0.00275
47.15 -0.0009
47.2 -0.00217
47.25 -0.0077
47.3 -0.01054
47.35 -0.0123
47.4 -0.01397
47.45 -0.01747
47.5 -0.01593
47.55 -0.01574
47.6 -0.01422
47.65 -0.01005
47.7 -0.00591
47.75 -0.0029
47.8 -0.00611
47.85 -0.01164
47.9 -0.01885
47.95 -0.02558
48 -0.02509
48.05 -0.02379
48.1 -0.02196
48.15 -0.02248
48.2 -0.01745
48.25 -0.01656
48.3 -0.01846
48.35 -0.01756
48.4 -0.01928
48.45 -0.02077
48.5 -0.02335
48.55 -0.02068
48.6 -0.01703
48.65 -0.01172
48.7 -0.0036
48.75 0.00361
48.8 0.00747
48.85 0.00443
48.9 0.0007
48.95 -0.00367
49 -0.00512
49.05 -0.00581
49.1 -0.00493
49.15 -0.00713
49.2 -0.01172
49.25 -0.01749
49.3 -0.01886
49.35 -0.01419
49.4 -0.0062
49.45 0.00311
49.5 0.01184
49.55 0.01218
49.6 0.00675
49.65 -0.00053
49.7 -0.00971
49.75 -0.01684
49.8 -0.01643
49.85 -0.01349
49.9 -0.01378
49.95 -0.01646
50 -0.01764
50.05 -0.02095
50.1 -0.0186
50.15 -0.018
50.2 -0.01214
50.25 -0.01164
50.3 -0.0135
50.35 -0.01779
50.4 -0.01707
50.45 -0.01437
50.5 -0.01277
50.55 -0.008
50.6 -0.00743
50.65 -0.00368
50.7 -0.00487
50.75 -0.00854
50.8 -0.0111
50.85 -0.00998
50.9 -0.01179
50.95 -0.01379
51 -0.00953
51.05 -0.00406
51.1 0.00328
51.15 0.0039
51.2 0.00667
51.25 0.00377
51.3 -0.0027
51.35 -0.00462
51.4 -0.00558
51.45 -0.00648
51.5 -0.00274
51.55 -0.00469
51.6 -0.00612
51.65 -0.00353
51.7 0.00081
51.75 0.00739
51.8 0.00821
51.85 0.00916
51.9 0.01284
51.95 0.01775
52 0.02213
52.05 0.01933
52.1 0.02024
52.15 0.0205
52.2 0.01452
52.25 0.00722
52.3 0.00486
52.35 -0.00161
52.4 -0.00598
52.45 -0.00727
52.5 -0.0047
52.55 -0.00011
52.6 0.00192
52.65 0.00048
52.7 -0.00113
52.75 -0.00401
52.8 -0.00131
52.85 0.00225
52.9 0.00099
52.95 -0.00113
53 -0.0006
53.05 0.00417
53.1 0.0053
53.15 0.00147
53.2 0.0025
53.25 0.00573
53.3 0.00882
53.35 0.00882
53.4 0.00905
53.45 0.00559
53.5 0.0014
53.55 -0.00394
53.6 -0.01048
53.65 -0.01258
53.7 -0.01145
53.75 -0.00844
53.8 -0.00477
53.85 -0.00678
53.9 -0.00889
53.95 -0.00667
54 -0.00698
54.05 -0.00383
54.1 -0.00482
54.15 -0.00509
54.2 -0.006
54.25 -0.00716
54.3 -0.00663
54.35 -0.00318
54.4 -0.00466
54.45 -0.00816
54.5 -0.0067
54.55 -0.00798
54.6 -0.00556
54.65 -0.00378
54.7 -0.00427
54.75 -0.00493
54.8 -0.00428
54.85 -0.00508
54.9 -0.0052
54.95 -0.00856
55 -0.01341
55.05 -0.01096
55.1 -0.00573
55.15 -0.00492
55.2 -0.00725
55.25 -0.00996
55.3 -0.00993
55.35 -0.01269
55.4 -0.01206
55.45 -0.01377
55.5 -0.00907
55.55 -0.00418
55.6 -0.00346
55.65 0.0022
55.7 0.00641
55.75 0.01257
55.8 0.01969
55.85 0.01892
55.9 0.02108
55.95 0.01946
56 0.01489
56.05 0.00639
56.1 -0.00163
56.15 -0.00989
56.2 -0.01234
56.25 -0.01377
56.3 -0.01386
56.35 -0.01721
56.4 -0.018
56.45 -0.01937
56.5 -0.01551
56.55 -0.01421
56.6 -0.01342
56.65 -0.00951
56.7 -0.00989
56.75 -0.01261
56.8 -0.01121
56.85 -0.00693
56.9 -0.00584
56.95 -0.00224
57 -0.00122
57.05 -0.00214
57.1 -0.00217
57.15 0.00264
57.2 0.00117
57.25 -0.0027
57.3 -0.00629
57.35 -0.00794
57.4 -0.00568
57.45 -0.00185
57.5 -0.0026
57.55 0.00017
57.6 0.00192
57.65 0.00087
57.7 -0.00381
57.75 -0.00406
57.8 -0.00683
57.85 -0.0064
57.9 -0.00875
57.95 -0.00819
58 -0.00735
58.05 -0.00142
58.1 0.00459
58.15 0.0038
58.2 0.00527
58.25 0.00223
58.3 0.00228
58.35 0.00411
58.4 0.00116
58.45 0.00392
58.5 0.00647
58.55 0.01067
58.6 0.00848
58.65 0.00389
58.7 0.00249
58.75 0.00034
58.8 -0.00501
58.85 -0.01182
58.9 -0.0101
58.95 -0.00647
59 0.00019
59.05 0.00236
59.1 0.00059
59.15 0.00432
59.2 0.00946
59.25 0.01556
59.3 0.01952
59.35 0.02339
59.4 0.02499
59.45 0.02725
59.5 0.03133
59.55 0.03468
59.6 0.0374
59.65 0.03891
59.7 0.03764
59.75 0.03253
59.8 0.03019
59.85 0.02583
59.9 0.02248
59.95 0.01829
60 0.00936
60.05 0.00159
60.1 -0.00528
60.15 -0.00942
60.2 -0.0069
60.25 -0.00228
60.3 -0.00043
60.35 0.0052
60.4 0.00851
60.45 0.00574
60.5 -0.00094
60.55 -0.00079
60.6 0.00214
60.65 0.00454
60.7 0.00356
60.75 0.00403
60.8 0.0032
60.85 0.00162
60.9 -0.00159
60.95 -0.00357
61 -0.00346
61.05 0.00072
61.1 0.00059
61.15 0.00232
61.2 0.00529
61.25 0.00471
61.3 0.00577
61.35 0.00715
61.4 0.00772
61.45 0.00708
61.5 0.00315
61.55 0.00079
61.6 -0.00474
61.65 -0.01238
61.7 -0.01675
61.75 -0.01805
61.8 -0.02137
61.85 -0.02444
61.9 -0.02333
61.95 -0.01809
62 -0.015
62.05 -0.0129
62.1 -0.00882
62.15 -0.00466
62.2 0.00162
62.25 0.00163
62.3 -0.00312
62.35 -0.00884
62.4 -0.0117
62.45 -0.01571
62.5 -0.01724
62.55 -0.01567
62.6 -0.01153
62.65 -0.00322
62.7 0.00502
62.75 0.00687
62.8 0.01207
62.85 0.01036
62.9 0.00655
62.95 0.00517
63 0.00137
63.05 -0.00024
63.1 -0.00462
63.15 -0.00584
63.2 -0.00797
63.25 -0.01111
63.3 -0.01625
63.35 -0.01341
63.4 -0.01093
63.45 -0.0084
63.5 -0.00855
63.55 -0.00601
63.6 -0.00149
63.65 -0.00077
63.7 0.00411
63.75 0.01042
63.8 0.01424
63.85 0.01089
63.9 0.00561
63.95 0.00273
64 -0.00145
64.05 -0.00041
64.1 0.00421
64.15 0.00999
64.2 0.01581
64.25 0.01633
64.3 0.01962
64.35 0.01566
64.4 0.01553
64.45 0.0157
64.5 0.01459
64.55 0.00826
64.6 0.0037
64.65 0.00473
64.7 0.00852
64.75 0.0134
64.8 0.0181
64.85 0.01666
64.9 0.01256
64.95 0.00852
65 0.00624
65.05 0.00871
65.1 0.00642
65.15 0.00098
65.2 -0.00023
65.25 -0.00024
65.3 -0.00422
65.35 -0.00839
65.4 -0.00887
65.45 -0.00453
65.5 0.0027
65.55 0.01115
65.6 0.01662
65.65 0.01842
65.7 0.01819
65.75 0.01816
65.8 0.01955
65.85 0.01956
65.9 0.01545
65.95 0.00731
66 0.00563
66.05 0.00737
66.1 0.00632
66.15 0.00708
66.2 0.00679
66.25 0.00652
66.3 0.00632
66.35 0.00879
66.4 0.00585
66.45 0.00081
66.5 0.00063
66.55 -0.00054
66.6 -0.0012
66.65 -0.00203
66.7 -0.00687
66.75 -0.00558
66.8 -0.00534
66.85 -0.00092
66.9 -0.00115
66.95 0.00116
67 -0.00176
67.05 -0.00251
67.1 -0.0001
67.15 -0.00376
67.2 -0.00276
67.25 0.00011
67.3 -0.00007
67.35 -0.00045
67.4 0.0014
67.45 0.00472
67.5 0.00617
67.55 0.0066
67.6 0.01006
67.65 0.00821
67.7 0.01043
67.75 0.01431
67.8 0.01534
67.85 0.01658
67.9 0.01581
67.95 0.01772
68 0.01736
68.05 0.01034
68.1 0.00236
68.15 -0.00039
68.2 -0.00331
68.25 -0.00668
68.3 -0.00693
68.35 -0.01062
68.4 -0.01283
68.45 -0.01431
68.5 -0.01898
68.55 -0.01667
68.6 -0.01694
68.65 -0.02067
68.7 -0.02328
68.75 -0.01995
68.8 -0.01645
68.85 -0.01762
68.9 -0.0179
68.95 -0.01626
69 -0.01581
69.05 -0.01401
69.1 -0.0161
69.15 -0.01474
69.2 -0.0173
69.25 -0.01746
69.3 -0.01173
69.35 -0.00432
69.4 0.00478
69.45 0.01018
69.5 0.01451
69.55 0.01501
69.6 0.0137
69.65 0.01501
69.7 0.01798
69.75 0.02196
69.8 0.01806
69.85 0.00915
69.9 -0.00094
69.95 -0.0089
70 -0.01593
70.05 -0.02224
70.1 -0.02869
70.15 -0.0275
70.2 -0.02442
70.25 -0.02201
70.3 -0.0236
70.35 -0.02496
70.4 -0.02209
70.45 -0.01792
70.5 -0.01278
70.55 -0.00699
70.6 0.0014
70.65 0.00771
70.7 0.01056
70.75 0.01283
70.8 0.01302
70.85 0.00832
70.9 0.00313
70.95 -0.00239
71 -0.00575
71.05 -0.00508
71.1 -0.00205
71.15 -0.00094
71.2 0.00003
71.25 0.00515
71.3 0.01104
71.35 0.01314
71.4 0.01045
71.45 0.00789
71.5 0.0091
71.55 0.00813
71.6 0.0098
71.65 0.01414
71.7 0.02003
71.75 0.0256
71.8 0.02523
71.85 0.0255
71.9 0.02648
71.95 0.0271
72 0.02452
72.05 0.02334
72.1 0.02449
72.15 0.02568
72.2 0.02637
72.25 0.02858
72.3 0.02446
72.35 0.02171
72.4 0.01632
72.45 0.01433
72.5 0.00945
72.55 0.00227
72.6 -0.0017
72.65 -0.00818
72.7 -0.01654
72.75 -0.01811
72.8 -0.01856
72.85 -0.02166
72.9 -0.02374
72.95 -0.01921
73 -0.01517
73.05 -0.01059
73.1 -0.00937
73.15 -0.00425
73.2 -0.00106
73.25 0.00411
73.3 0.00314
73.35 -0.00172
73.4 -0.00113
73.45 -0.00393
73.5 -0.00819
73.55 -0.01169
73.6 -0.01193
73.65 -0.01478
73.7 -0.01354
73.75 -0.01406
73.8 -0.01717
73.85 -0.01859
73.9 -0.02299
73.95 -0.02154
74 -0.01843
74.05 -0.01294
74.1 -0.0074
74.15 -0.00548
74.2 -0.0061
74.25 -0.00506
74.3 -0.00713
74.35 -0.00801
74.4 -0.00715
74.45 -0.00198
74.5 -0.00039
74.55 0.00046
74.6 -0.00045
74.65 0.00336
74.7 0.00317
74.75 0.00211
74.8 -0.00022
74.85 -0.00029
74.9 -0.00017
74.95 -0.00038
75 0.00187
75.05 -0.0015
75.1 0.00004
75.15 0.00023
75.2 0.00228
75.25 0.0061
75.3 0.00891
75.35 0.0124
75.4 0.00911
75.45 0.0062
75.5 0.00612
75.55 0.00609
75.6 0.00144
75.65 -0.00167
75.7 -0.00811
75.75 -0.01515
75.8 -0.01724
75.85 -0.02177
75.9 -0.02268
75.95 -0.01919
76 -0.01665
76.05 -0.01145
76.1 -0.01164
76.15 -0.01242
76.2 -0.0145
76.25 -0.0152
76.3 -0.01602
76.35 -0.01347
76.4 -0.01356
76.45 -0.00849
76.5 -0.00121
76.55 0.00433
76.6 0.00443
76.65 0.00571
76.7 0.00174
76.75 -0.00005
76.8 -0.00541
76.85 -0.00401
76.9 -0.0069
76.95 -0.00361
77 -0.00347
77.05 -0.00381
77.1 -0.00358
77.15 -0.00697
77.2 -0.0077
77.25 -0.0049
77.3 -0.00732
77.35 -0.00728
77.4 -0.00636
77.45 -0.00096
77.5 -0.00091
77.55 0.00358
77.6 0.00354
77.65 -0.00139
77.7 -0.00626
77.75 -0.01159
77.8 -0.01799
77.85 -0.01657
77.9 -0.01285
77.95 -0.01363
78 -0.01089
78.05 -0.006
78.1 0.00097
78.15 0.00652
78.2 0.00533
78.25 0.00829
78.3 0.00545
78.35 0.00076
78.4 -0.00346
78.45 -0.00869
78.5 -0.01581
78.55 -0.0214
78.6 -0.0258
78.65 -0.02688
78.7 -0.02984
78.75 -0.03001
78.8 -0.03099
78.85 -0.03291
78.9 -0.02903
78.95 -0.02612
79 -0.01975
79.05 -0.01046
79.1 -0.00003
79.15 0.00825
79.2 0.01407
79.25 0.01748
79.3 0.01988
79.35 0.02087
79.4 0.0168
79.45 0.01017
79.5 0.00611
79.55 0.00222
79.6 0.00303
79.65 0.0034
79.7 0.00741
79.75 0.00968
79.8 0.01473
79.85 0.0195
79.9 0.01795
79.95 0.0111
80 0.00554
80.05 -0.00181
80.1 -0.00376
80.15 -0.00382
80.2 -0.00391
80.25 -0.00414
80.3 -0.00028
80.35 -0.0013
80.4 -0.00462
80.45 -0.00711
80.5 -0.0103
80.55 -0.01365
80.6 -0.01336
80.65 -0.01257
80.7 -0.00845
80.75 -0.0044
80.8 -0.00264
80.85 0.00177
80.9 0.00874
80.95 0.01137
81 0.00768
81.05 0.00196
81.1 -0.00295
81.15 -0.00996
81.2 -0.01363
81.25 -0.01895
81.3 -0.01618
81.35 -0.01388
81.4 -0.01192
81.45 -0.01081
81.5 -0.00938
81.55 -0.00518
81.6 -0.00509
81.65 -0.00546
81.7 -0.00804
81.75 -0.00433
81.8 -0.00307
81.85 0.00054
81.9 0.00738
81.95 0.00782
82 0.0035
82.05 -0.00348
82.1 -0.01067
82.15 -0.01542
82.2 -0.01883
82.25 -0.02066
82.3 -0.01715
82.35 -0.01526
82.4 -0.01364
82.45 -0.01275
82.5 -0.01392
82.55 -0.01114
82.6 -0.00584
82.65 -0.00245
82.7 -0.0036
82.75 -0.00729
82.8 -0.01005
82.85 -0.01498
82.9 -0.01572
82.95 -0.0169
83 -0.01567
83.05 -0.01553
83.1 -0.01695
83.15 -0.01715
83.2 -0.01465
83.25 -0.00968
83.3 -0.00884
83.35 -0.00447
83.4 0.00163
83.45 0.00289
83.5 0.00748
83.55 0.00915
83.6 0.00713
83.65 0.00511
83.7 -0.00004
83.75 -0.00523
83.8 -0.00708
83.85 -0.00269
83.9 0.0016
83.95 0.00751
84 0.00962
84.05 0.01171
84.1 0.01204
84.15 0.00808
84.2 0.00441
84.25 0.00291
84.3 0.00535
84.35 0.0111
84.4 0.01099
84.45 0.00995
84.5 0.00668
84.55 0.00732
84.6 0.00909
84.65 0.01396
84.7 0.01265
84.75 0.0104
84.8 0.00843
84.85 0.00453
84.9 -0.00231
84.95 -0.00624
85 -0.00846
85.05 -0.00997
85.1 -0.007
85.15 -0.00824
85.2 -0.01138
85.25 -0.01366
85.3 -0.01034
85.35 -0.01138
85.4 -0.01143
85.45 -0.00892
85.5 -0.00441
85.55 -0.00043
85.6 0.006
85.65 0.00627
85.7 0.00497
85.75 0.00738
85.8 0.01222
85.85 0.01576
85.9 0.01406
85.95 0.01645
86 0.02166
86.05 0.02383
86.1 0.02046
86.15 0.01981
86.2 0.01992
86.25 0.01985
86.3 0.01985
86.35 0.01871
86.4 0.01375
86.45 0.01065
86.5 0.00341
86.55 0.00132
86.6 -0.00311
86.65 -0.00679
86.7 -0.00742
86.75 -0.01117
86.8 -0.01272
86.85 -0.01299
86.9 -0.01091
86.95 -0.01174
87 -0.00784
87.05 -0.00084
87.1 0.00755
87.15 0.01285
87.2 0.01839
87.25 0.02069
87.3 0.02012
87.35 0.01819
87.4 0.01835
87.45 0.02037
87.5 0.0236
87.55 0.02461
87.6 0.01876
87.65 0.0169
87.7 0.01788
87.75 0.01564
87.8 0.00965
87.85 0.00249
87.9 -0.0026
87.95 -0.00761
88 -0.01183
88.05 -0.01544
88.1 -0.01336
88.15 -0.0093
88.2 -0.00608
88.25 -0.00478
88.3 -0.00653
88.35 -0.00702
88.4 -0.01027
88.45 -0.01558
88.5 -0.0187
88.55 -0.02063
88.6 -0.01909
88.65 -0.01854
88.7 -0.01286
88.75 -0.00361
88.8 0.00707
88.85 0.01182
88.9 0.01017
88.95 0.01226
89 0.01575
89.05 0.01624
89.1 0.01822
89.15 0.01976
89.2 0.01756
89.25 0.01632
89.3 0.01421
89.35 0.01304
89.4 0.01447
89.45 0.01484
89.5 0.01807
89.55 0.01685
89.6 0.01132
89.65 0.00378
89.7 -0.0024
89.75 -0.0103
89.8 -0.01415
89.85 -0.01183
89.9 -0.00502
89.95 0.00182
90 0.00963
90.05 0.00923
90.1 0.01057
90.15 0.0143
90.2 0.01523
90.25 0.01043
90.3 0.00307
90.35 0.00029
90.4 0.00026
90.45 0.00118
90.5 0.00117
90.55 -0.00174
90.6 -0.0071
90.65 -0.01419
90.7 -0.02056
90.75 -0.01952
90.8 -0.02096
90.85 -0.02045
90.9 -0.02232
90.95 -0.01867
91 -0.01324
91.05 -0.00444
91.1 0.00346
91.15 0.00919
91.2 0.00778
91.25 0.00892
91.3 0.00869
91.35 0.00742
91.4 0.00316
91.45 -0.00447
91.5 -0.00611
91.55 -0.00749
91.6 -0.01038
91.65 -0.00662
91.7 -0.00005
91.75 0.00337
91.8 0.00777
91.85 0.0102
91.9 0.00697
91.95 0.0048
92 0.00077
92.05 -0.00626
92.1 -0.0068
92.15 -0.00861
92.2 -0.01251
92.25 -0.0107
92.3 -0.00395
92.35 -0.00006
92.4 -0.00171
92.45 0.00137
92.5 0.00033
92.55 -0.00308
92.6 -0.00359
92.65 -0.00023
92.7 -0.00017
92.75 -0.00409
92.8 -0.00946
92.85 -0.00753
92.9 -0.0051
92.95 0.0011
93 0.0045
93.05 0.01074
93.1 0.01837
93.15 0.02575
93.2 0.02563
93.25 0.02694
93.3 0.02716
93.35 0.02354
93.4 0.02221
93.45 0.01614
93.5 0.00985
93.55 0.00042
93.6 -0.00117
93.65 -0.0057
93.7 -0.01069
93.75 -0.01546
93.8 -0.01718
93.85 -0.01625
93.9 -0.01256
93.95 -0.01145
94 -0.0143
94.05 -0.01157
94.1 -0.00667
94.15 -0.00077
94.2 0.0008
94.25 -0.00299
94.3 -0.00808
94.35 -0.01117
94.4 -0.01317
94.45 -0.00975
94.5 -0.01127
94.55 -0.01183
94.6 -0.00662
94.65 0.00173
94.7 0.00806
94.75 0.00724
94.8 0.01053
94.85 0.01236
94.9 0.01107
94.95 0.00675
95 -0.00002
95.05 -0.00508
95.1 -0.00544
95.15 -0.00766
95.2 -0.0044
95.25 0.00194
95.3 0.00146
95.35 0.0005
95.4 -0.00042
95.45 -0.00416
95.5 -0.00917
95.55 -0.01395
95.6 -0.01164
95.65 -0.0069
95.7 -0.00678
95.75 -0.00495
95.8 -0.00761
95.85 -0.00778
95.9 -0.00983
95.95 -0.01211
96 -0.01066
96.05 -0.01302
96.1 -0.01233
96.15 -0.01349
96.2 -0.01674
96.25 -0.01929
96.3 -0.02189
96.35 -0.01834
96.4 -0.01907
96.45 -0.01359
96.5 -0.01254
96.55 -0.00671
96.6 -0.00286
96.65 0.00101
96.7 0.0051
96.75 0.00639
96.8 0.00891
96.85 0.01071
96.9 0.00829
96.95 0.00607
97 0.00147
97.05 -0.00332
97.1 -0.00129
97.15 0.00154
97.2 0.00732
97.25 0.00738
97.3 0.00809
97.35 0.00553
97.4 0.00171
97.45 0.00171
97.5 0.00523
97.55 0.00645
97.6 0.00569
97.65 0.00818
97.7 0.00456
97.75 0.00257
97.8 0.00426
97.85 0.00507
97.9 0.00437
97.95 0.00557
98 0.00251
98.05 -0.00398
98.1 -0.01144
98.15 -0.0188
98.2 -0.02525
98.25 -0.02322
98.3 -0.01934
98.35 -0.01313
98.4 -0.00703
98.45 -0.00181
98.5 0.00107
98.55 0.004
98.6 0.00674
98.65 0.00693
98.7 0.00844
98.75 0.01252
98.8 0.01608
98.85 0.01943
98.9 0.02353
98.95 0.0228
99 0.01779
99.05 0.01205
99.1 0.00431
99.15 -0.00217
99.2 -0.00154
99.25 -0.00442
99.3 -0.00239
99.35 0.0024
99.4 0.00292
99.45 -0.00025
99.5 -0.00538
99.55 -0.00413
99.6 -0.00331
99.65 -0.00185
99.7 0.00166
99.75 0.00137
99.8 -0.00327
99.85 -0.00217
99.9 -0.00329
99.95 -0.00105
