0 0
0.05 0.0039
0.1 0.01495
0.15 0.02519
0.2 0.03332
0.25 0.04069
0.3 0.04336
0.35 0.04861
0.4 0.0499
0.45 0.05304
0.5 0.05549
0.55 0.05722
0.6 0.06156
0.65 0.06777
0.7 0.06704
0.75 0.06834
0.8 0.0698
0.85 0.07105
0.9 0.07091
0.95 0.06954
1 0.06349
1.05 0.05787
1.1 0.05404
1.15 0.0527
1.2 0.05368
1.25 0.04865
1.3 0.04485
1.35 0.04033
1.4 0.03656
1.45 0.03217
1.5 0.03264
1.55 0.03355
1.6 0.03639
1.65 0.03696
1.7 0.03652
1.75 0.03973
1.8 0.03824
1.85 0.03778
1.9 0.03616
1.95 0.0393
2 0.04315
2.05 0.04263
2.1 0.04005
2.15 0.03432
2.2 0.03338
2.25 0.02887
2.3 0.02297
2.35 0.0204
2.4 0.02029
2.45 0.01983
2.5 0.01542
2.55 0.01113
2.6 0.01065
2.65 0.00791
2.7 0.01229
2.75 0.0153
2.8 0.01937
2.85 0.01946
2.9 0.01948
2.95 0.02005
3 0.0176
3.05 0.01334
3.1 0.01215
3.15 0.01325
3.2 0.01759
3.25 0.02479
3.3 0.02584
3.35 0.02656
3.4 0.02812
3.45 0.02754
3.5 0.02405
3.55 0.02074
3.6 0.01555
3.65 0.01259
3.7 0.01091
3.75 0.00594
3.8 0.00437
3.85 0.00174
3.9 -0.00137
3.95 0.00044
4 0.00543
4.05 0.0105
4.1 0.01358
4.15 0.01306
4.2 0.0159
4.25 0.01761
4.3 0.01486
4.35 0.01559
4.4 0.00998
4.45 0.00474
4.5 -0.00421
4.55 -0.01823
4.6 -0.02962
4.65 -0.04407
4.7 -0.06231
4.75 -0.08498
4.8 -0.11238
4.85 -0.14342
4.9 -0.17716
4.95 -0.20554
5 -0.23349
5.05 -0.26373
5.1 -0.29631
5.15 -0.34202
5.2 -0.3958
5.25 -0.45366
5.3 -0.51598
5.35 -0.58083
5.4 -0.64792
5.45 -0.71564
5.5 -0.78608
5.55 -0.85517
5.6 -0.92708
5.65 -1.00128
5.7 -1.06628
5.75 -1.12821
5.8 -1.18327
5.85 -1.22696
5.9 -1.26401
5.95 -1.29513
6 -1.32317
6.05 -1.34586
6.1 -1.35834
6.15 -1.36246
6.2 -1.36074
6.25 -1.35233
6.3 -1.3354
6.35 -1.31367
6.4 -1.2847
6.45 -1.25126
6.5 -1.20658
6.55 -1.15517
6.6 -1.09762
6.65 -1.03565
6.7 -0.96995
6.75 -0.89628
6.8 -0.8217
6.85 -0.73992
6.9 -0.65425
6.95 -0.56819
7 -0.47295
7.05 -0.36865
7.1 -0.26443
7.15 -0.15721
7.2 -0.05144
7.25 0.05864
7.3 0.16584
7.35 0.27314
7.4 0.37436
7.45 0.47469
7.5 0.57504
7.55 0.66839
7.6 0.75709
7.65 0.83345
7.7 0.90175
7.75 0.96136
7.8 1.01517
7.85 1.06277
7.9 1.10136
7.95 1.13932
8 1.17138
8.05 1.19787
8.1 1.21646
8.15 1.22589
8.2 1.23205
8.25 1.22947
8.3 1.22477
8.35 1.22213
8.4 1.21663
8.45 1.20298
8.5 1.1882
8.55 1.17383
8.6 1.16068
8.65 1.14683
8.7 1.12604
8.75 1.09954
8.8 1.0761
8.85 1.05347
8.9 1.02978
8.95 1.0062
9 0.98201
9.05 0.96172
9.1 0.94262
9.15 0.91815
9.2 0.8881
9.25 0.86087
9.3 0.83716
9.35 0.81046
9.4 0.78873
9.45 0.76328
9.5 0.73967
9.55 0.71893
9.6 0.69861
9.65 0.67877
9.7 0.66287
9.75 0.64406
9.8 0.62482
9.85 0.60959
9.9 0.59002
9.95 0.5705
10 0.54842
10.05 0.53183
10.1 0.5145
10.15 0.49648
10.2 0.47401
10.25 0.45576
10.3 0.43485
10.35 0.41306
10.4 0.39329
10.45 0.37658
10.5 0.3577
10.55 0.34166
10.6 0.32346
10.65 0.30523
10.7 0.29291
10.75 0.28281
10.8 0.26941
10.85 0.25983
10.9 0.25237
10.95 0.23877
11 0.22618
11.05 0.21246
11.1 0.19651
11.15 0.1786
11.2 0.16468
11.25 0.14753
11.3 0.12853
11.35 0.10727
11.4 0.0859
11.45 0.06321
11.5 0.04866
11.55 0.03146
11.6 0.01326
11.65 0.0001
11.7 -0.01179
11.75 -0.02409
11.8 -0.03408
11.85 -0.04037
11.9 -0.04421
11.95 -0.05226
12 -0.06568
12.05 -0.07444
12.1 -0.08482
12.15 -0.09371
12.2 -0.10155
12.25 -0.10887
12.3 -0.11556
12.35 -0.12378
12.4 -0.13403
12.45 -0.13873
12.5 -0.13975
12.55 -0.13734
12.6 -0.14216
12.65 -0.144
12.7 -0.14621
12.75 -0.14638
12.8 -0.15155
12.85 -0.1608
12.9 -0.16773
12.95 -0.17639
13 -0.1805
13.05 -0.18024
13.1 -0.17579
13.15 -0.17588
13.2 -0.17746
13.25 -0.18257
13.3 -0.18664
13.35 -0.18696
13.4 -0.18797
13.45 -0.18297
13.5 -0.18191
13.55 -0.17779
13.6 -0.1741
13.65 -0.16695
13.7 -0.1656
13.75 -0.16775
13.8 -0.16582
13.85 -0.16573
13.9 -0.16686
13.95 -0.1706
14 -0.17182
14.05 -0.17226
14.1 -0.16945
14.15 -0.16127
14.2 -0.15561
14.25 -0.15072
14.3 -0.14645
14.35 -0.14079
14.4 -0.13437
14.45 -0.12735
14.5 -0.11936
14.55 -0.11699
14.6 -0.12008
14.65 -0.12564
14.7 -0.12681
14.75 -0.12309
14.8 -0.12313
14.85 -0.12426
14.9 -0.12024
14.95 -0.12234
15 -0.12279
15.05 -0.11941
15.1 -0.11754
15.15 -0.11814
15.2 -0.11482
15.25 -0.10904
15.3 -0.10795
15.35 -0.10813
15.4 -0.11266
15.45 -0.11033
15.5 -0.1097
15.55 -0.11012
15.6 -0.10726
15.65 -0.10914
15.7 -0.11247
15.75 -0.11735
15.8 -0.12322
15.85 -0.12003
15.9 -0.11126
15.95 -0.10721
16 -0.0992
16.05 -0.0908
16.1 -0.08634
16.15 -0.08287
16.2 -0.08043
16.25 -0.0808
16.3 -0.07692
16.35 -0.07564
16.4 -0.07211
16.45 -0.0721
16.5 -0.06898
16.55 -0.07221
16.6 -0.07897
16.65 -0.08156
16.7 -0.08417
16.75 -0.08125
16.8 -0.08294
16.85 -0.0857
16.9 -0.08483
16.95 -0.07863
17 -0.07602
17.05 -0.07282
17.1 -0.07105
17.15 -0.06484
17.2 -0.06152
17.25 -0.0572
17.3 -0.05212
17.35 -0.04656
17.4 -0.04017
17.45 -0.04113
17.5 -0.04748
17.55 -0.04922
17.6 -0.05137
17.65 -0.04842
17.7 -0.04923
17.75 -0.04701
17.8 -0.04885
17.85 -0.04885
17.9 -0.05
17.95 -0.04958
18 -0.04876
18.05 -0.04639
18.1 -0.0485
18.15 -0.04703
18.2 -0.04577
18.25 -0.04182
18.3 -0.03512
18.35 -0.02687
18.4 -0.02743
18.45 -0.03133
18.5 -0.03787
18.55 -0.0397
18.6 -0.03853
18.65 -0.03394
18.7 -0.03226
18.75 -0.03014
18.8 -0.03406
18.85 -0.03656
18.9 -0.04189
18.95 -0.04579
19 -0.05053
19.05 -0.04786
19.1 -0.04122
19.15 -0.03421
19.2 -0.02728
19.25 -0.02004
19.3 -0.01693
19.35 -0.01611
19.4 -0.01349
19.45 -0.01388
19.5 -0.01576
19.55 -0.02104
19.6 -0.02088
19.65 -0.02167
19.7 -0.02376
19.75 -0.02244
19.8 -0.0181
19.85 -0.0206
19.9 -0.02697
19.95 -0.02823
20 -0.03265
20.05 -0.03379
20.1 -0.03127
20.15 -0.02608
20.2 -0.02534
20.25 -0.02803
20.3 -0.03413
20.35 -0.03276
20.4 -0.036
20.45 -0.0393
20.5 -0.03781
20.55 -0.03226
20.6 -0.03082
20.65 -0.02947
20.7 -0.03208
20.75 -0.03132
20.8 -0.02895
20.85 -0.02327
20.9 -0.01783
20.95 -0.01759
21 -0.01345
21.05 -0.01061
21.1 -0.0091
21.15 -0.00925
21.2 -0.01009
21.25 -0.00986
21.3 -0.00876
21.35 -0.00704
21.4 -0.00283
21.45 0.00096
21.5 0.00479
21.55 0.00095
21.6 -0.00532
21.65 -0.00774
21.7 -0.01078
21.75 -0.01515
21.8 -0.01534
21.85 -0.01862
21.9 -0.02047
21.95 -0.01812
22 -0.01901
22.05 -0.01707
22.1 -0.01738
22.15 -0.02054
22.2 -0.01773
22.25 -0.02011
22.3 -0.01688
22.35 -0.01276
22.4 -0.01373
22.45 -0.01018
22.5 -0.01079
22.55 -0.01068
22.6 -0.01274
22.65 -0.01296
22.7 -0.00994
22.75 -0.00452
22.8 -0.00588
22.85 -0.01108
22.9 -0.01627
22.95 -0.01657
23 -0.02093
23.05 -0.0257
23.1 -0.03102
23.15 -0.03312
23.2 -0.02863
23.25 -0.01967
23.3 -0.01189
23.35 -0.00783
23.4 -0.00678
23.45 -0.00699
23.5 -0.00578
23.55 -0.01015
23.6 -0.01513
23.65 -0.01663
23.7 -0.01609
23.75 -0.01974
23.8 -0.01764
23.85 -0.0186
23.9 -0.01468
23.95 -0.01261
24 -0.01227
24.05 -0.01595
24.1 -0.01949
24.15 -0.02396
24.2 -0.0264
24.25 -0.0265
24.3 -0.02166
24.35 -0.02162
24.4 -0.0187
24.45 -0.01816
24.5 -0.01586
24.55 -0.01167
24.6 -0.01318
24.65 -0.00988
24.7 -0.00928
24.75 -0.00912
24.8 -0.01324
24.85 -0.01407
24.9 -0.01654
24.95 -0.01767
25 -0.01813
25.05 -0.02066
25.1 -0.02042
25.15 -0.02037
25.2 -0.01854
25.25 -0.01675
25.3 -0.01692
25.35 -0.01559
25.4 -0.01185
25.45 -0.00965
25.5 -0.00972
25.55 -0.00488
25.6 0.00037
25.65 -0.00106
25.7 -0.00623
25.75 -0.0074
25.8 -0.00845
25.85 -0.01308
25.9 -0.01311
25.95 -0.01157
26 -0.01146
26.05 -0.01036
26.1 -0.0114
26.15 -0.01001
26.2 -0.00902
26.25 -0.00433
26.3 0.00077
26.35 0.00705
26.4 0.00774
26.45 0.00706
26.5 0.00251
26.55 -0.00451
26.6 -0.00598
26.65 -0.00579
26.7 -0.00465
26.75 -0.00287
26.8 0.00296
26.85 0.00869
26.9 0.00903
26.95 0.00704
27 0.00748
27.05 0.00563
27.1 0.0086
27.15 0.01091
27.2 0.01513
27.25 0.01682
27.3 0.0147
27.35 0.00773
27.4 0.00584
27.45 -0.0007
27.5 -0.00128
27.55 -0.00328
27.6 -0.00775
27.65 -0.01384
27.7 -0.02034
27.75 -0.02961
27.8 -0.03606
27.85 -0.0388
27.9 -0.03844
27.95 -0.04402
28 -0.0509
28.05 -0.05814
28.1 -0.06306
28.15 -0.06675
28.2 -0.07113
28.25 -0.07932
28.3 -0.08916
28.35 -0.10836
28.4 -0.12853
28.45 -0.15056
28.5 -0.17914
28.55 -0.21521
28.6 -0.25331
28.65 -0.29467
28.7 -0.34096
28.75 -0.38514
28.8 -0.43381
28.85 -0.48162
28.9 -0.53123
28.95 -0.58133
29 -0.63519
29.05 -0.69069
29.1 -0.74901
29.15 -0.80901
29.2 -0.87209
29.25 -0.94228
29.3 -1.01171
29.35 -1.07692
29.4 -1.14387
29.45 -1.20726
29.5 -1.26478
29.55 -1.31772
29.6 -1.36823
29.65 -1.41065
29.7 -1.44791
29.75 -1.48378
29.8 -1.51466
29.85 -1.53039
29.9 -1.54108
29.95 -1.53982
30 -1.52707
30.05 -1.508
30.1 -1.4734
30.15 -1.42641
30.2 -1.36719
30.25 -1.299
30.3 -1.22369
30.35 -1.14612
30.4 -1.06103
30.45 -0.9733
30.5 -0.87774
30.55 -0.77411
30.6 -0.67069
30.65 -0.56128
30.7 -0.45134
30.75 -0.34257
30.8 -0.23183
30.85 -0.11802
30.9 -0.00742
30.95 0.09806
31 0.20409
31.05 0.30456
31.1 0.40112
31.15 0.49357
31.2 0.57604
31.25 0.6575
31.3 0.72925
31.35 0.79475
31.4 0.8543
31.45 0.90792
31.5 0.95959
31.55 1.00487
31.6 1.04425
31.65 1.07825
31.7 1.10831
31.75 1.1352
31.8 1.15187
31.85 1.16453
31.9 1.1714
31.95 1.17647
32 1.18211
32.05 1.18631
32.1 1.18776
32.15 1.19067
32.2 1.19675
32.25 1.20582
32.3 1.2125
32.35 1.21307
32.4 1.2124
32.45 1.20872
32.5 1.20763
32.55 1.20335
32.6 1.20019
32.65 1.19267
32.7 1.18873
32.75 1.18113
32.8 1.17227
32.85 1.16511
32.9 1.15178
32.95 1.14097
33 1.12744
33.05 1.10989
33.1 1.08909
33.15 1.06265
33.2 1.03518
33.25 1.01263
33.3 0.98943
33.35 0.96831
33.4 0.94632
33.45 0.91768
33.5 0.88708
33.55 0.85901
33.6 0.83121
33.65 0.79977
33.7 0.76815
33.75 0.73868
33.8 0.70929
33.85 0.68295
33.9 0.65837
33.95 0.62931
34 0.60004
34.05 0.57056
34.1 0.53776
34.15 0.5015
34.2 0.46638
34.25 0.43431
34.3 0.40538
34.35 0.3828
34.4 0.35949
34.45 0.33459
34.5 0.31126
34.55 0.29079
34.6 0.27049
34.65 0.24837
34.7 0.22512
34.75 0.20614
34.8 0.18465
34.85 0.16546
34.9 0.14608
34.95 0.12711
35 0.10478
35.05 0.08693
35.1 0.07386
35.15 0.06231
35.2 0.04732
35.25 0.02875
35.3 0.00879
35.35 -0.00656
35.4 -0.02016
35.45 -0.03062
35.5 -0.03893
35.55 -0.05235
35.6 -0.06069
35.65 -0.06701
35.7 -0.07208
35.75 -0.07637
35.8 -0.08411
35.85 -0.0933
35.9 -0.10753
35.95 -0.12343
36 -0.1325
36.05 -0.14469
36.1 -0.15537
36.15 -0.16627
36.2 -0.17305
36.25 -0.18035
36.3 -0.18432
36.35 -0.18497
36.4 -0.18169
36.45 -0.18254
36.5 -0.18444
36.55 -0.18787
36.6 -0.19083
36.65 -0.19641
36.7 -0.20287
36.75 -0.20523
36.8 -0.20689
36.85 -0.20638
36.9 -0.2089
36.95 -0.20975
37 -0.21159
37.05 -0.2111
37.1 -0.20925
37.15 -0.21022
37.2 -0.21427
37.25 -0.21507
37.3 -0.21288
37.35 -0.21329
37.4 -0.21511
37.45 -0.21396
37.5 -0.21349
37.55 -0.20841
37.6 -0.20008
37.65 -0.19833
37.7 -0.20007
37.75 -0.20093
37.8 -0.19555
37.85 -0.18711
37.9 -0.18062
37.95 -0.1763
38 -0.17362
38.05 -0.17262
38.1 -0.1674
38.15 -0.16361
38.2 -0.16106
38.25 -0.1642
38.3 -0.1662
38.35 -0.16602
38.4 -0.16479
38.45 -0.16046
38.5 -0.16181
38.55 -0.15982
38.6 -0.15793
38.65 -0.15758
38.7 -0.15865
38.75 -0.15441
38.8 -0.14589
38.85 -0.14114
38.9 -0.14131
38.95 -0.14137
39 -0.13896
39.05 -0.13911
39.1 -0.13457
39.15 -0.13065
39.2 -0.12763
39.25 -0.12563
39.3 -0.12526
39.35 -0.12649
39.4 -0.13071
39.45 -0.13187
39.5 -0.13244
39.55 -0.12904
39.6 -0.12357
39.65 -0.11965
39.7 -0.1171
39.75 -0.11907
39.8 -0.11635
39.85 -0.10931
39.9 -0.10533
39.95 -0.1027
40 -0.10373
40.05 -0.10803
40.1 -0.1102
40.15 -0.1145
40.2 -0.1184
40.25 -0.11875
40.3 -0.11264
40.35 -0.11039
40.4 -0.10701
40.45 -0.09974
40.5 -0.09547
40.55 -0.09448
40.6 -0.09066
40.65 -0.08936
40.7 -0.0887
40.75 -0.08418
40.8 -0.08118
40.85 -0.07607
40.9 -0.07521
40.95 -0.0761
41 -0.07684
41.05 -0.08028
41.1 -0.0852
41.15 -0.08724
41.2 -0.08816
41.25 -0.08617
41.3 -0.08451
41.35 -0.08152
41.4 -0.07485
41.45 -0.06775
41.5 -0.06412
41.55 -0.06461
41.6 -0.06412
41.65 -0.06089
41.7 -0.05915
41.75 -0.05303
41.8 -0.04475
41.85 -0.03816
41.9 -0.03074
41.95 -0.02946
42 -0.03072
42.05 -0.03145
42.1 -0.03015
42.15 -0.02722
42.2 -0.02739
42.25 -0.03351
42.3 -0.03406
42.35 -0.03171
42.4 -0.03487
42.45 -0.03468
42.5 -0.03049
42.55 -0.02877
42.6 -0.0276
42.65 -0.02492
42.7 -0.0208
42.75 -0.01562
42.8 -0.01004
42.85 -0.01023
42.9 -0.00932
42.95 -0.00869
43 -0.00991
43.05 -0.01394
43.1 -0.02259
43.15 -0.0318
43.2 -0.03883
43.25 -0.04398
43.3 -0.04233
43.35 -0.03793
43.4 -0.0332
43.45 -0.03459
43.5 -0.0373
43.55 -0.04277
43.6 -0.04385
43.65 -0.04755
43.7 -0.05012
43.75 -0.05369
43.8 -0.05864
43.85 -0.06331
43.9 -0.06543
43.95 -0.06314
44 -0.06245
44.05 -0.05977
44.1 -0.05667
44.15 -0.04833
44.2 -0.04393
44.25 -0.041
44.3 -0.04183
44.35 -0.04186
44.4 -0.04218
44.45 -0.03641
44.5 -0.02782
44.55 -0.01985
44.6 -0.01306
44.65 -0.00506
44.7 -0.00503
44.75 -0.00629
44.8 -0.0097
44.85 -0.00809
44.9 -0.006
44.95 -0.00599
45 -0.00266
45.05 0.00158
45.1 0.00627
45.15 0.00465
45.2 0.00344
45.25 0.00062
45.3 -0.00602
45.35 -0.01387
45.4 -0.01604
45.45 -0.01683
45.5 -0.02085
45.55 -0.0185
45.6 -0.02138
45.65 -0.02128
45.7 -0.01672
45.75 -0.0139
45.8 -0.01383
45.85 -0.01871
45.9 -0.01698
45.95 -0.01786
46 -0.01629
46.05 -0.01164
46.1 -0.01318
46.15 -0.01817
46.2 -0.02432
46.25 -0.02733
46.3 -0.02581
46.35 -0.02862
46.4 -0.02614
46.45 -0.0245
46.5 -0.02484
46.55 -0.02583
46.6 -0.0258
46.65 -0.02474
46.7 -0.02571
46.75 -0.0291
46.8 -0.02544
46.85 -0.02514
46.9 -0.02773
46.95 -0.02611
47 -0.02282
47.05 -0.02395
47.1 -0.02376
47.15 -0.01961
47.2 -0.01844
47.25 -0.01595
47.3 -0.01115
47.35 -0.00309
47.4 -0.0013
47.45 0.00005
47.5 0.00123
47.55 0.00227
47.6 -0.00166
47.65 0.00011
47.7 0.0015
47.75 -0.00131
47.8 -0.00552
47.85 -0.00929
47.9 -0.01535
47.95 -0.02148
48 -0.02052
48.05 -0.02134
48.1 -0.02449
48.15 -0.02728
48.2 -0.02442
48.25 -0.01907
48.3 -0.01455
48.35 -0.00641
48.4 -0.00303
48.45 -0.00023
48.5 0.00163
48.55 0.00037
48.6 -0.00274
48.65 -0.00543
48.7 -0.00544
48.75 -0.00639
48.8 -0.00663
48.85 -0.00996
48.9 -0.01066
48.95 -0.01105
49 -0.01399
49.05 -0.01044
49.1 -0.00322
49.15 0.00456
49.2 0.01307
49.25 0.01241
49.3 0.01377
49.35 0.01005
49.4 0.00379
49.45 0.00004
49.5 0.00045
49.55 0.00212
49.6 0.00088
49.65 -0.00373
49.7 -0.00497
49.75 -0.0082
49.8 -0.00884
49.85 -0.01229
49.9 -0.01038
49.95 -0.012
50 -0.01089
50.05 -0.00727
50.1 -0.00856
50.15 -0.01018
50.2 -0.00899
50.25 -0.00801
50.3 -0.00948
50.35 -0.00784
50.4 -0.01049
50.45 -0.01229
50.5 -0.011
50.55 -0.01104
50.6 -0.00919
50.65 -0.00787
50.7 -0.01013
50.75 -0.01103
50.8 -0.01001
50.85 -0.00789
50.9 -0.00748
50.95 -0.01099
51 -0.00906
51.05 -0.00577
51.1 -0.00427
51.15 -0.00168
51.2 -0.00156
51.25 0.00093
51.3 0.00494
51.35 0.01036
51.4 0.01552
51.45 0.02211
51.5 0.02713
51.55 0.03051
51.6 0.03393
51.65 0.03542
51.7 0.03704
51.75 0.03102
51.8 0.0259
51.85 0.0163
51.9 0.00799
51.95 0.00602
52 0.00661
52.05 0.00158
52.1 -0.00092
52.15 0.00012
52.2 0.00347
52.25 0.00867
52.3 0.00807
52.35 0.00835
52.4 0.01011
52.45 0.00994
52.5 0.00557
52.55 0.00368
52.6 -0.00162
52.65 -0.00183
52.7 -0.00297
52.75 -0.0075
52.8 -0.01127
52.85 -0.01198
52.9 -0.00748
52.95 -0.00716
53 -0.00248
53.05 -0.00438
53.1 -0.00152
53.15 -0.00245
53.2 -0.00604
53.25 -0.00576
53.3 -0.00281
53.35 -0.00186
53.4 -0.00267
53.45 -0.00492
53.5 -0.00666
53.55 -0.00483
53.6 -0.00123
53.65 0.00455
53.7 0.00985
53.75 0.00969
53.8 0.00406
53.85 -0.0005
53.9 -0.00054
53.95 -0.00367
54 -0.00485
54.05 -0.00749
54.1 -0.00978
54.15 -0.01356
54.2 -0.01412
54.25 -0.01146
54.3 -0.00977
54.35 -0.0039
54.4 -0.00155
54.45 0.00165
54.5 0.00377
54.55 0.0011
54.6 -0.00246
54.65 -0.00276
54.7 0.00156
54.75 0.00589
54.8 0.00532
54.85 -0.00003
54.9 -0.00657
54.95 -0.00802
55 -0.01259
55.05 -0.0169
55.1 -0.0175
55.15 -0.01523
55.2 -0.00833
55.25 -0.00758
55.3 -0.00787
55.35 -0.01218
55.4 -0.00974
55.45 -0.00832
55.5 -0.00568
55.55 -0.00297
55.6 -0.0027
55.65 0.00132
55.7 0.00639
55.75 0.00891
55.8 0.01334
55.85 0.015
55.9 0.01634
55.95 0.01668
56 0.0187
56.05 0.02061
56.1 0.02084
56.15 0.01912
56.2 0.01864
56.25 0.01984
56.3 0.02312
56.35 0.02687
56.4 0.02211
56.45 0.01656
56.5 0.01363
56.55 0.00924
56.6 0.00606
56.65 0.00175
56.7 0.00201
56.75 0.0005
56.8 -0.00262
56.85 -0.00942
56.9 -0.01249
56.95 -0.01457
57 -0.01708
57.05 -0.02067
57.1 -0.02505
57.15 -0.02618
57.2 -0.02062
57.25 -0.01414
57.3 -0.00552
57.35 -0.0037
57.4 0.00089
57.45 0.00102
57.5 -0.00032
57.55 -0.00107
57.6 0.00224
57.65 0.00185
57.7 -0.0012
57.75 0.00096
57.8 0.00559
57.85 0.00453
57.9 0.00578
57.95 0.00318
58 0.00439
58.05 -0.00032
58.1 -0.00099
58.15 0.00241
58.2 0.00755
58.25 0.00497
58.3 0.00571
58.35 0.00209
58.4 0.00354
58.45 -0.00054
58.5 -0.00585
58.55 -0.01293
58.6 -0.01378
58.65 -0.01089
58.7 -0.0041
58.75 0.00074
58.8 0.00451
58.85 0.00793
58.9 0.00691
58.95 0.00317
59 0.00283
59.05 0.00531
59.1 0.00275
59.15 0.00138
59.2 0.00308
59.25 0.00412
59.3 0.00218
59.35 0.00207
59.4 0.00399
59.45 0.00262
59.5 0.00363
59.55 0.00773
59.6 0.00846
59.65 0.00931
59.7 0.00593
59.75 0.00626
59.8 0.00877
59.85 0.00638
59.9 0.00396
59.95 0.00121
60 -0.00044
60.05 0.00226
60.1 -0.00088
60.15 -0.00404
60.2 -0.00784
60.25 -0.01173
60.3 -0.0182
60.35 -0.02453
60.4 -0.02793
60.45 -0.03084
60.5 -0.03459
60.55 -0.03618
60.6 -0.03201
60.65 -0.02678
60.7 -0.02068
60.75 -0.01256
60.8 -0.00922
60.85 -0.00258
60.9 -0.00267
60.95 -0.00081
61 0.0018
61.05 -0.00058
61.1 0.00114
61.15 0.00499
61.2 0.00442
61.25 0.00499
61.3 0.00758
61.35 0.00993
61.4 0.0104
61.45 0.01249
61.5 0.01565
61.55 0.01663
61.6 0.01425
61.65 0.01578
61.7 0.0118
61.75 0.00651
61.8 -0.00007
61.85 -0.00006
61.9 -0.00257
61.95 -0.00293
62 -0.00372
62.05 -0.00436
62.1 -0.003
62.15 -0.00554
62.2 -0.00712
62.25 -0.0084
62.3 -0.01122
62.35 -0.01435
62.4 -0.01506
62.45 -0.0162
62.5 -0.01753
62.55 -0.02039
62.6 -0.01598
62.65 -0.0164
62.7 -0.01365
62.75 -0.00685
62.8 -0.00274
62.85 0.00211
62.9 0.00369
62.95 0.00851
63 0.0081
63.05 0.00766
63.1 0.00236
63.15 -0.00527
63.2 -0.00614
63.25 -0.01048
63.3 -0.01074
63.35 -0.01109
63.4 -0.01391
63.45 -0.0104
63.5 -0.00785
63.55 -0.00289
63.6 -0.00152
63.65 0.00106
63.7 0.00581
63.75 0.00531
63.8 0.00171
63.85 0.00084
63.9 0.00338
63.95 0.00626
64 0.00798
64.05 0.00597
64.1 0.00759
64.15 0.00337
64.2 0.00213
64.25 0.00512
64.3 0.00341
64.35 0.00337
64.4 0.00339
64.45 0.00587
64.5 0.00786
64.55 0.01235
64.6 0.01312
64.65 0.01573
64.7 0.01733
64.75 0.02066
64.8 0.01962
64.85 0.01442
64.9 0.01295
64.95 0.01502
65 0.01617
65.05 0.01909
65.1 0.0169
65.15 0.01315
65.2 0.00792
65.25 0.00039
65.3 -0.00139
65.35 -0.00396
65.4 -0.00163
65.45 -0.00234
65.5 -0.0021
65.55 -0.00336
65.6 -0.00596
65.65 -0.00552
65.7 -0.00148
65.75 0.00541
65.8 0.01067
65.85 0.01685
65.9 0.01594
65.95 0.00913
66 0.00673
66.05 0.00778
66.1 0.01056
66.15 0.00731
66.2 0.00201
66.25 -0.00334
66.3 -0.00881
66.35 -0.01427
66.4 -0.01961
66.45 -0.02404
66.5 -0.02939
66.55 -0.02808
66.6 -0.02354
66.65 -0.01819
66.7 -0.01098
66.75 -0.00626
66.8 -0.00032
66.85 -0.00067
66.9 -0.00465
66.95 -0.00654
67 -0.0041
67.05 0.0011
67.1 0.0084
67.15 0.01176
67.2 0.01033
67.25 0.00854
67.3 0.00994
67.35 0.01002
67.4 0.01071
67.45 0.01269
67.5 0.01271
67.55 0.00923
67.6 0.00681
67.65 0.00079
67.7 -0.00625
67.75 -0.0123
67.8 -0.01093
67.85 -0.01296
67.9 -0.01644
67.95 -0.02196
68 -0.02187
68.05 -0.01818
68.1 -0.01541
68.15 -0.01041
68.2 -0.00399
68.25 0.00093
68.3 0.00703
68.35 0.01344
68.4 0.01618
68.45 0.0119
68.5 0.01168
68.55 0.0056
68.6 -0.00232
68.65 -0.01177
68.7 -0.01703
68.75 -0.01792
68.8 -0.01706
68.85 -0.01068
68.9 -0.00436
68.95 -0.00071
69 -0.00103
69.05 -0.00374
69.1 -0.0085
69.15 -0.00989
69.2 -0.00564
69.25 -0.00447
69.3 -0.00767
69.35 -0.00646
69.4 -0.00124
69.45 0.00591
69.5 0.01044
69.55 0.0122
69.6 0.00763
69.65 -0.00046
69.7 -0.00719
69.75 -0.00748
69.8 -0.00462
69.85 -0.00285
69.9 -0.0048
69.95 -0.00773
70 -0.00867
70.05 -0.01279
70.1 -0.01668
70.15 -0.01938
70.2 -0.0157
70.25 -0.01237
70.3 -0.01317
70.35 -0.01366
70.4 -0.01169
70.45 -0.00865
70.5 -0.003
70.55 -0.00045
70.6 0.0056
70.65 0.01199
70.7 0.01763
70.75 0.01756
70.8 0.01854
70.85 0.01626
70.9 0.0143
70.95 0.01384
71 0.01137
71.05 0.0095
71.1 0.00764
71.15 0.00141
71.2 -0.00283
71.25 -0.00967
71.3 -0.01214
71.35 -0.01117
71.4 -0.00769
71.45 -0.00788
71.5 -0.00931
71.55 -0.00757
71.6 -0.00523
71.65 0.00123
71.7 0.00493
71.75 0.00698
71.8 0.00559
71.85 -0.00043
71.9 -0.00603
71.95 -0.00817
72 -0.0106
72.05 -0.01473
72.1 -0.0199
72.15 -0.0194
72.2 -0.02133
72.25 -0.01847
72.3 -0.01621
72.35 -0.00993
72.4 -0.00299
72.45 0.00006
72.5 0.00415
72.55 0.01078
72.6 0.01303
72.65 0.00916
72.7 0.0018
72.75 -0.00341
72.8 -0.0103
72.85 -0.01239
72.9 -0.01219
72.95 -0.01037
73 -0.01303
73.05 -0.0125
73.1 -0.0156
73.15 -0.01869
73.2 -0.01672
73.25 -0.01079
73.3 -0.00675
73.35 -0.00588
73.4 -0.0085
73.45 -0.01278
73.5 -0.01753
73.55 -0.0215
73.6 -0.01953
73.65 -0.02029
73.7 -0.01933
73.75 -0.01307
73.8 -0.00964
73.85 -0.00907
73.9 -0.0085
73.95 -0.00361
74 0.00384
74.05 0.00797
74.1 0.00756
74.15 0.01112
74.2 0.01405
74.25 0.01258
74.3 0.0095
74.35 0.00321
74.4 -0.00391
74.45 -0.00603
74.5 -0.00788
74.55 -0.00624
74.6 -0.00165
74.65 0.00035
74.7 0.00592
74.75 0.00837
74.8 0.01121
74.85 0.0136
74.9 0.01287
74.95 0.01154
75 0.00906
75.05 0.00694
75.1 0.0087
75.15 0.00685
75.2 0.00774
75.25 0.00352
75.3 0.00421
75.35 0.00488
75.4 0.0063
75.45 0.01016
75.5 0.01528
75.55 0.01697
75.6 0.01528
75.65 0.01316
75.7 0.00706
75.75 0.00637
75.8 0.00109
75.85 -0.00376
75.9 -0.00826
75.95 -0.00887
76 -0.00871
76.05 -0.0102
76.1 -0.01496
76.15 -0.01233
76.2 -0.00831
76.25 -0.00046
76.3 0.00284
76.35 0.0056
76.4 0.01079
76.45 0.01254
76.5 0.00781
76.55 0.00319
76.6 0.00073
76.65 0.00382
76.7 0.00273
76.75 -0.00293
76.8 -0.0059
76.85 -0.00578
76.9 -0.00119
76.95 0.00047
77 0.00523
77.05 0.00717
77.1 0.01108
77.15 0.01357
77.2 0.01063
77.25 0.009
77.3 0.00559
77.35 0.00143
77.4 -0.00392
77.45 -0.00763
77.5 -0.01052
77.55 -0.00708
77.6 -0.00537
77.65 -0.00814
77.7 -0.01385
77.75 -0.01877
77.8 -0.0211
77.85 -0.02351
77.9 -0.02511
77.95 -0.02288
78 -0.02155
78.05 -0.01877
78.1 -0.01343
78.15 -0.01104
78.2 -0.00901
78.25 -0.00398
78.3 0.00288
78.35 0.00804
78.4 0.01101
78.45 0.0132
78.5 0.01086
78.55 0.01192
78.6 0.00773
78.65 0.0079
78.7 0.00535
78.75 0.00111
78.8 -0.00203
78.85 -0.00001
78.9 0.00213
78.95 0.00601
79 0.0069
79.05 0.00387
79.1 0.00236
79.15 -0.00259
79.2 -0.00611
79.25 -0.01141
79.3 -0.01119
79.35 -0.0053
79.4 -0.00115
79.45 0.00319
79.5 0.00161
79.55 0.00289
79.6 0.00723
79.65 0.01314
79.7 0.01129
79.75 0.01375
79.8 0.01692
79.85 0.02068
79.9 0.0253
79.95 0.02762
80 0.02652
80.05 0.01887
80.1 0.00966
80.15 0.00335
80.2 -0.00359
80.25 -0.00931
80.3 -0.00863
80.35 -0.0121
80.4 -0.01813
80.45 -0.01856
80.5 -0.01768
80.55 -0.01486
80.6 -0.01366
80.65 -0.00788
80.7 -0.00127
80.75 0.00546
80.8 0.01366
80.85 0.02004
80.9 0.02601
80.95 0.03183
81 0.02857
81.05 0.02473
81.1 0.02164
81.15 0.02098
81.2 0.01437
81.25 0.00535
81.3 -0.00111
81.35 -0.00503
81.4 -0.01136
81.45 -0.01532
81.5 -0.02004
81.55 -0.02261
81.6 -0.01853
81.65 -0.01057
81.7 -0.00562
81.75 -0.00301
81.8 -0.00198
81.85 0.00327
81.9 0.00526
81.95 0.00974
82 0.0146
82.05 0.01198
82.1 0.013
82.15 0.01085
82.2 0.0118
82.25 0.0152
82.3 0.01286
82.35 0.01381
82.4 0.01074
82.45 0.00965
82.5 0.01248
82.55 0.00982
82.6 0.01069
82.65 0.00543
82.7 0.00326
82.75 0.00422
82.8 0.00612
82.85 0.00499
82.9 0.00434
82.95 0.00713
83 0.00702
83.05 0.00335
83.1 0.00401
83.15 0.00557
83.2 0.00731
83.25 0.00418
83.3 0.00177
83.35 -0.00095
83.4 -0.00746
83.45 -0.01264
83.5 -0.01905
83.55 -0.02359
83.6 -0.02882
83.65 -0.03342
83.7 -0.03129
83.75 -0.03057
83.8 -0.02842
83.85 -0.02021
83.9 -0.01449
83.95 -0.00928
84 -0.00328
84.05 0.00244
84.1 0.00666
84.15 0.00702
84.2 0.00305
84.25 -0.00319
84.3 -0.0068
84.35 -0.01129
84.4 -0.00973
84.45 -0.0095
84.5 -0.0132
84.55 -0.01811
84.6 -0.01771
84.65 -0.0177
84.7 -0.01624
84.75 -0.01125
84.8 -0.00435
84.85 -0.00026
84.9 -0.00048
84.95 0.00011
85 -0.00127
85.05 -0.00068
85.1 -0.00036
85.15 -0.00005
85.2 -0.0009
85.25 -0.00283
85.3 -0.00158
85.35 0.00014
85.4 0.00477
85.45 0.00399
85.5 -0.00071
85.55 -0.00836
85.6 -0.01421
85.65 -0.01256
85.7 -0.01161
85.75 -0.013
85.8 -0.01217
85.85 -0.00703
85.9 -0.00285
85.95 -0.00182
86 -0.00063
86.05 -0.00199
86.1 -0.005
86.15 -0.0059
86.2 -0.00815
86.25 -0.00676
86.3 -0.00864
86.35 -0.00588
86.4 -0.00186
86.45 0.00154
86.5 0.00571
86.55 0.01139
86.6 0.01062
86.65 0.01094
86.7 0.00824
86.75 0.0104
86.8 0.00727
86.85 0.00223
86.9 -0.00143
86.95 -0.00604
87 -0.00811
87.05 -0.00623
87.1 -0.00393
87.15 -0.00611
87.2 -0.00746
87.25 -0.00992
87.3 -0.01021
87.35 -0.01041
87.4 -0.00582
87.45 -0.001
87.5 0.00531
87.55 0.0047
87.6 0.00542
87.65 0.00316
87.7 -0.00116
87.75 -0.00326
87.8 -0.00589
87.85 -0.00296
87.9 0.00012
87.95 0.0067
88 0.00948
88.05 0.00686
88.1 0.00117
88.15 0.00064
88.2 0.00507
88.25 0.00783
88.3 0.01061
88.35 0.00995
88.4 0.00536
88.45 -0.00236
88.5 -0.00256
88.55 -0.00382
88.6 -0.00318
88.65 -0.00015
88.7 -0.00169
88.75 0.0005
88.8 0.00483
88.85 0.0043
88.9 0.00426
88.95 0.00423
89 0.00393
89.05 0.0043
89.1 -0.00019
89.15 -0.00076
89.2 -0.00109
89.25 -0.00115
89.3 -0.00212
89.35 -0.00492
89.4 -0.00924
89.45 -0.00714
89.5 -0.00542
89.55 -0.00273
89.6 -0.00163
89.65 -0.00349
89.7 -0.00333
89.75 -0.00637
89.8 -0.00895
89.85 -0.01201
89.9 -0.01025
89.95 -0.00921
90 -0.00487
90.05 -0.00417
90.1 -0.00578
90.15 -0.01053
90.2 -0.00984
90.25 -0.01152
90.3 -0.01564
90.35 -0.01861
90.4 -0.01621
90.45 -0.01349
90.5 -0.01345
90.55 -0.0136
90.6 -0.01401
90.65 -0.00906
90.7 -0.00513
90.75 -0.00186
90.8 -0.0019
90.85 -0.00136
90.9 -0.00502
90.95 -0.0048
91 -0.00538
91.05 -0.00662
91.1 -0.00506
91.15 -0.00011
91.2 0.00166
91.25 0.00378
91.3 0.00958
91.35 0.01268
91.4 0.01067
91.45 0.01167
91.5 0.01046
91.55 0.00815
91.6 0.01095
91.65 0.01142
91.7 0.00774
91.75 0.0008
91.8 0.00115
91.85 -0.00288
91.9 -0.00503
91.95 -0.00264
92 0.00173
92.05 0.00577
92.1 0.00825
92.15 0.00685
92.2 0.00983
92.25 0.00932
92.3 0.00753
92.35 0.00453
92.4 0.00406
92.45 0.00404
92.5 0.00562
92.55 0.00238
92.6 0.00482
92.65 0.00852
92.7 0.01403
92.75 0.01334
92.8 0.00794
92.85 0.00765
92.9 0.00712
92.95 0.00873
93 0.0094
93.05 0.00637
93.1 0.00808
93.15 0.00973
93.2 0.01204
93.25 0.01279
93.3 0.01339
93.35 0.01508
93.4 0.01522
93.45 0.01175
93.5 0.01137
93.55 0.00698
93.6 -0.00052
93.65 -0.00933
93.7 -0.01339
93.75 -0.01826
93.8 -0.02383
93.85 -0.02915
93.9 -0.02773
93.95 -0.02659
94 -0.02474
94.05 -0.02184
94.1 -0.01382
94.15 -0.00768
94.2 -0.00167
94.25 0.0026
94.3 0.00817
94.35 0.01216
94.4 0.01246
94.45 0.00967
94.5 0.00387
94.55 -0.00104
94.6 -0.00011
94.65 -0.00225
94.7 -0.00092
94.75 -0.00306
94.8 -0.00227
94.85 -0.00568
94.9 -0.00298
94.95 -0.00289
95 -0.00238
95.05 -0.00625
95.1 -0.01165
95.15 -0.0157
95.2 -0.01311
95.25 -0.01295
95.3 -0.0072
95.35 -0.00309
95.4 -0.00288
95.45 -0.00636
95.5 -0.00447
95.55 -0.0005
95.6 0.00661
95.65 0.01192
95.7 0.01424
95.75 0.01472
95.8 0.01177
95.85 0.00934
95.9 0.0024
95.95 0.00071
96 -0.00404
96.05 -0.00894
96.1 -0.00999
96.15 -0.01399
96.2 -0.01759
96.25 -0.01554
96.3 -0.01249
96.35 -0.00472
96.4 -0.00123
96.45 0.00448
96.5 0.00756
96.55 0.00512
96.6 0.00092
96.65 -0.00386
96.7 -0.0098
96.75 -0.01519
96.8 -0.01772
96.85 -0.01426
96.9 -0.00828
96.95 -0.00508
97 -0.00319
97.05 0.00281
97.1 0.00819
97.15 0.00887
97.2 0.0099
97.25 0.00765
97.3 0.0037
97.35 0.00139
97.4 -0.00124
97.45 -0.00296
97.5 -0.00357
97.55 -0.003
97.6 -0.00232
97.65 -0.00005
97.7 -0.00153
97.75 -0.00211
97.8 -0.00103
97.85 -0.00216
97.9 -0.00687
97.95 -0.0119
98 -0.01141
98.05 -0.00681
98.1 -0.00356
98.15 -0.0008
98.2 -0.001
98.25 -0.00096
98.3 -0.00408
98.35 -0.00074
98.4 0.00232
98.45 0.00874
98.5 0.01484
98.55 0.01483
98.6 0.01509
98.65 0.0186
98.7 0.01514
98.75 0.01149
98.8 0.01292
98.85 0.01646
98.9 0.01441
98.95 0.01632
99 0.01594
99.05 0.01106
99.1 0.0063
99.15 0.00371
99.2 0.00617
99.25 0.00273
99.3 -0.0014
99.35 -0.00122
99.4 0.00266
99.45 0.00538
99.5 0.00316
99.55 0.00318
99.6 0.00395
99.65 0.00201
99.7 -0.00184
99.75 -0.00038
99.8 -0.00129
99.85 0.00075
99.9 -0.00016
99.95 -0.00338
