0 0
0.05 0.00489
0.1 0.01303
0.15 0.01948
0.2 0.02365
0.25 0.03167
0.3 0.03857
0.35 0.04503
0.4 0.05167
0.45 0.05688
0.5 0.05907
0.55 0.0595
0.6 0.05944
0.65 0.05611
0.7 0.05476
0.75 0.05133
0.8 0.0492
0.85 0.04344
0.9 0.03805
0.95 0.03236
1 0.02842
1.05 0.03016
1.1 0.02871
1.15 0.0292
1.2 0.03066
1.25 0.02813
1.3 0.02656
1.35 0.02995
1.4 0.03261
1.45 0.0347
1.5 0.03357
1.55 0.03417
1.6 0.03463
1.65 0.0367
1.7 0.03612
1.75 0.03506
1.8 0.03547
1.85 0.03488
1.9 0.03111
1.95 0.02614
2 0.02508
2.05 0.02636
2.1 0.02653
2.15 0.02451
2.2 0.02687
2.25 0.0273
2.3 0.02713
2.35 0.02817
2.4 0.03236
2.45 0.03029
2.5 0.02828
2.55 0.0299
2.6 0.02692
2.65 0.02758
2.7 0.02826
2.75 0.02554
2.8 0.02086
2.85 0.01562
2.9 0.01532
2.95 0.01967
3 0.0228
3.05 0.02204
3.1 0.02525
3.15 0.02465
3.2 0.02367
3.25 0.02069
3.3 0.01896
3.35 0.01664
3.4 0.0169
3.45 0.018
3.5 0.01793
3.55 0.02018
3.6 0.02188
3.65 0.02327
3.7 0.02176
3.75 0.02434
3.8 0.0216
3.85 0.02033
3.9 0.0153
3.95 0.01274
4 0.00857
4.05 0.00604
4.1 0.00281
4.15 0.00135
4.2 0.00493
4.25 0.00525
4.3 0.00958
4.35 0.01033
4.4 0.00777
4.45 0.00388
4.5 -0.00018
4.55 -0.00548
4.6 -0.0118
4.65 -0.01066
4.7 -0.00991
4.75 -0.00546
4.8 0.001
4.85 0.00687
4.9 0.01138
4.95 0.01114
5 0.00915
5.05 0.00676
5.1 0.00011
5.15 -0.00597
5.2 -0.01653
5.25 -0.02935
5.3 -0.04145
5.35 -0.04928
5.4 -0.05258
5.45 -0.0531
5.5 -0.05779
5.55 -0.06378
5.6 -0.06791
5.65 -0.07158
5.7 -0.07134
5.75 -0.0704
5.8 -0.06788
5.85 -0.06647
5.9 -0.06157
5.95 -0.05601
6 -0.05297
6.05 -0.04716
6.1 -0.03678
6.15 -0.03066
6.2 -0.02031
6.25 -0.00715
6.3 0.0037
6.35 0.01353
6.4 0.02287
6.45 0.03211
6.5 0.04289
6.55 0.05025
6.6 0.05906
6.65 0.06591
6.7 0.07309
6.75 0.08215
6.8 0.08994
6.85 0.10172
6.9 0.11301
6.95 0.12043
7 0.12223
7.05 0.12795
7.1 0.12979
7.15 0.13244
7.2 0.13354
7.25 0.13441
7.3 0.13618
7.35 0.13551
7.4 0.13217
7.45 0.12674
7.5 0.11869
7.55 0.11233
7.6 0.1072
7.65 0.10053
7.7 0.09327
7.75 0.08858
7.8 0.08583
7.85 0.07767
7.9 0.06671
7.95 0.0576
8 0.0469
8.05 0.03266
8.1 0.02114
8.15 0.00816
8.2 -0.00522
8.25 -0.01452
8.3 -0.02485
8.35 -0.03301
8.4 -0.04095
8.45 -0.04958
8.5 -0.05865
8.55 -0.06567
8.6 -0.07082
8.65 -0.06943
8.7 -0.06436
8.75 -0.05811
8.8 -0.05664
8.85 -0.05582
8.9 -0.05367
8.95 -0.05458
9 -0.05567
9.05 -0.05137
9.1 -0.0465
9.15 -0.04558
9.2 -0.04658
9.25 -0.04783
9.3 -0.04389
9.35 -0.04022
9.4 -0.03644
9.45 -0.03658
9.5 -0.03443
9.55 -0.03043
9.6 -0.02763
9.65 -0.0211
9.7 -0.01794
9.75 -0.01166
9.8 -0.00474
9.85 -0.00211
9.9 0.00227
9.95 0.00654
10 0.01236
10.05 0.01676
10.1 0.01631
10.15 0.01643
10.2 0.01369
10.25 0.01195
10.3 0.01197
10.35 0.01426
10.4 0.01242
10.45 0.01278
10.5 0.00793
10.55 0.00558
10.6 0.00705
10.65 0.00479
10.7 0.00012
10.75 0.00079
10.8 -0.00126
10.85 0.00054
10.9 0.00021
10.95 -0.00102
11 -0.00167
11.05 -0.00348
11.1 -0.00624
11.15 -0.00787
11.2 -0.0047
11.25 -0.00105
11.3 0.00369
11.35 0.00355
11.4 0.00586
11.45 0.00398
11.5 0.00225
11.55 -0.00109
11.6 -0.00461
11.65 -0.00674
11.7 -0.00412
11.75 -0.00472
11.8 -0.00747
11.85 -0.00895
11.9 -0.00879
11.95 -0.0089
12 -0.00509
12.05 -0.00395
12.1 -0.00409
12.15 -0.00673
12.2 -0.00976
12.25 -0.01272
12.3 -0.01597
12.35 -0.01951
12.4 -0.0234
12.45 -0.02279
12.5 -0.02303
12.55 -0.02123
12.6 -0.01679
12.65 -0.00833
12.7 -0.00452
12.75 -0.00367
12.8 -0.00375
12.85 -0.00584
12.9 -0.00842
12.95 -0.00606
13 -0.00727
13.05 -0.00628
13.1 -0.00706
13.15 -0.00276
13.2 0.00236
13.25 0.00977
13.3 0.01463
13.35 0.01782
13.4 0.01865
13.45 0.01557
13.5 0.00996
13.55 0.00304
13.6 0.00031
13.65 -0.00183
13.7 -0.00025
13.75 -0.00211
13.8 -0.00498
13.85 -0.00871
13.9 -0.00733
13.95 -0.00889
14 -0.00491
14.05 -0.00334
14.1 -0.00194
14.15 -0.00154
14.2 -0.00495
14.25 -0.00689
14.3 -0.00433
14.35 -0.00054
14.4 0.00534
14.45 0.00622
14.5 0.00842
14.55 0.00956
14.6 0.01182
14.65 0.01532
14.7 0.0176
14.75 0.02033
14.8 0.02269
14.85 0.02052
14.9 0.01661
14.95 0.01392
15 0.00729
15.05 0.00382
15.1 0.00166
15.15 -0.00104
15.2 -0.00019
15.25 0.00289
15.3 0.00691
15.35 0.00722
15.4 0.00976
15.45 0.01008
15.5 0.00796
15.55 0.00537
15.6 0.00542
15.65 0.00599
15.7 0.00709
15.75 0.01041
15.8 0.0109
15.85 0.0061
15.9 -0.00136
15.95 -0.00257
16 -0.0002
16.05 0.00028
16.1 -0.00321
16.15 -0.00728
16.2 -0.01142
16.25 -0.01618
16.3 -0.01729
16.35 -0.01916
16.4 -0.01769
16.45 -0.01362
16.5 -0.00582
16.55 -0.00149
16.6 0.00155
16.65 0.00225
16.7 0.00342
16.75 0.00456
16.8 0.00418
16.85 -0.00047
16.9 -0.00465
16.95 -0.00823
17 -0.00859
17.05 -0.00442
17.1 0.00046
17.15 0.00203
17.2 -0.00004
17.25 -0.00495
17.3 -0.00952
17.35 -0.01042
17.4 -0.01076
17.45 -0.00871
17.5 -0.00345
17.55 0.00073
17.6 0.00137
17.65 0.00028
17.7 -0.00416
17.75 -0.008
17.8 -0.01185
17.85 -0.01433
17.9 -0.01394
17.95 -0.00889
18 -0.0013
18.05 0.00492
18.1 0.0059
18.15 0.00964
18.2 0.0094
18.25 0.00658
18.3 0.00237
18.35 0.00206
18.4 -0.0012
18.45 0.00076
18.5 -0.00079
18.55 -0.00514
18.6 -0.00708
18.65 -0.00939
18.7 -0.00611
18.75 -0.00713
18.8 -0.00996
18.85 -0.01471
18.9 -0.01858
18.95 -0.02289
19 -0.02529
19.05 -0.02731
19.1 -0.02841
19.15 -0.02972
19.2 -0.02883
19.25 -0.02781
19.3 -0.0208
19.35 -0.01045
19.4 -0.0056
19.45 0.00198
19.5 0.00708
19.55 0.00997
19.6 0.01358
19.65 0.01231
19.7 0.01149
19.75 0.01386
19.8 0.0176
19.85 0.01656
19.9 0.01178
19.95 0.00584
20 -0.00004
20.05 -0.00332
20.1 -0.00472
20.15 -0.00188
20.2 0.00323
20.25 0.00403
20.3 0.00075
20.35 0.00164
20.4 0.00469
20.45 0.00434
20.5 0.00127
20.55 0.00075
20.6 -0.00016
20.65 -0.00253
20.7 -0.00744
20.75 -0.00921
20.8 -0.00625
20.85 -0.00584
20.9 -0.00763
20.95 -0.00914
21 -0.007
21.05 -0.00174
21.1 0.00094
21.15 0.00146
21.2 -0.00176
21.25 -0.00714
21.3 -0.00775
21.35 -0.00865
21.4 -0.01097
21.45 -0.01501
21.5 -0.01349
21.55 -0.01001
21.6 -0.00736
21.65 -0.00689
21.7 -0.0044
21.75 -0.00377
21.8 -0.00194
21.85 -0.00179
21.9 -0.001
21.95 0.00286
22 0.00955
22.05 0.01228
22.1 0.00991
22.15 0.00692
22.2 0.00778
22.25 0.00606
22.3 0.00348
22.35 0.00015
22.4 -0.00549
22.45 -0.00544
22.5 -0.00733
22.55 -0.00442
22.6 -0.00476
22.65 -0.00752
22.7 -0.00882
22.75 -0.0071
22.8 -0.00889
22.85 -0.0127
22.9 -0.01526
22.95 -0.01507
23 -0.01397
23.05 -0.01168
23.1 -0.0112
23.15 -0.00743
23.2 -0.00509
23.25 -0.00298
23.3 -0.00227
23.35 0.00284
23.4 0.00999
23.45 0.01043
23.5 0.00792
23.55 0.00642
23.6 0.00802
23.65 0.012
23.7 0.0115
23.75 0.00966
23.8 0.00602
23.85 0.00654
23.9 0.00411
23.95 -0.00028
24 -0.00492
24.05 -0.00614
24.1 -0.00396
24.15 0.00018
24.2 0.00606
24.25 0.00667
24.3 0.00771
24.35 0.00677
24.4 0.0031
24.45 -0.00007
24.5 -0.00058
24.55 0.00078
24.6 0.00465
24.65 0.0102
24.7 0.01172
24.75 0.00889
24.8 0.00461
24.85 0.00331
24.9 0.00419
24.95 0.0073
25 0.00568
25.05 0.00804
25.1 0.0069
25.15 0.00307
25.2 0.0034
25.25 0.00133
25.3 -0.00266
25.35 -0.00079
25.4 0.00316
25.45 0.0021
25.5 0.00512
25.55 0.0095
25.6 0.01303
25.65 0.01079
25.7 0.00791
25.75 0.0066
25.8 0.00306
25.85 0.00387
25.9 0.00827
25.95 0.01442
26 0.01367
26.05 0.01258
26.1 0.01084
26.15 0.00691
26.2 0.0019
26.25 -0.00069
26.3 -0.00575
26.35 -0.00428
26.4 0.00027
26.45 -0.00066
26.5 -0.00253
26.55 -0.00508
26.6 -0.00812
26.65 -0.0131
26.7 -0.01767
26.75 -0.01796
26.8 -0.01354
26.85 -0.01238
26.9 -0.01175
26.95 -0.00746
27 -0.00226
27.05 0.0024
27.1 0.00836
27.15 0.01132
27.2 0.01161
27.25 0.01434
27.3 0.01146
27.35 0.01042
27.4 0.00517
27.45 0.0027
27.5 0.00269
27.55 0.00124
27.6 0.00269
27.65 -0.00059
27.7 -0.00862
27.75 -0.01173
27.8 -0.01936
27.85 -0.02272
27.9 -0.02839
27.95 -0.03492
28 -0.04473
28.05 -0.05924
28.1 -0.07429
28.15 -0.0931
28.2 -0.10923
28.25 -0.12692
28.3 -0.1472
28.35 -0.1722
28.4 -0.19858
28.45 -0.23207
28.5 -0.27014
28.55 -0.31406
28.6 -0.36114
28.65 -0.41463
28.7 -0.47019
28.75 -0.53215
28.8 -0.59956
28.85 -0.67299
28.9 -0.755
28.95 -0.84395
29 -0.93327
29.05 -1.02228
29.1 -1.11599
29.15 -1.21154
29.2 -1.31272
29.25 -1.41322
29.3 -1.51626
29.35 -1.61439
29.4 -1.70919
29.45 -1.79959
29.5 -1.89029
29.55 -1.97327
29.6 -2.05375
29.65 -2.12699
29.7 -2.18568
29.75 -2.23496
29.8 -2.27497
29.85 -2.30377
29.9 -2.31589
29.95 -2.31812
30 -2.30969
30.05 -2.28744
30.1 -2.24704
30.15 -2.19173
30.2 -2.12103
30.25 -2.04159
30.3 -1.9503
30.35 -1.84553
30.4 -1.72855
30.45 -1.60516
30.5 -1.4753
30.55 -1.3419
30.6 -1.19813
30.65 -1.05298
30.7 -0.89969
30.75 -0.7463
30.8 -0.58707
30.85 -0.4238
30.9 -0.2664
30.95 -0.11147
31 0.04228
31.05 0.18989
31.1 0.33815
31.15 0.47983
31.2 0.61725
31.25 0.74884
31.3 0.87375
31.35 0.99088
31.4 1.10069
31.45 1.2012
31.5 1.29961
31.55 1.38562
31.6 1.46785
31.65 1.54388
31.7 1.61399
31.75 1.67227
31.8 1.71841
31.85 1.75755
31.9 1.79394
31.95 1.82322
32 1.84895
32.05 1.87235
32.1 1.88716
32.15 1.89731
32.2 1.90387
32.25 1.90675
32.3 1.90493
32.35 1.90469
32.4 1.90042
32.45 1.89236
32.5 1.88643
32.55 1.8772
32.6 1.86507
32.65 1.85283
32.7 1.84055
32.75 1.82655
32.8 1.80905
32.85 1.79077
32.9 1.77793
32.95 1.76601
33 1.75249
33.05 1.73176
33.1 1.71157
33.15 1.68632
33.2 1.65979
33.25 1.63067
33.3 1.60391
33.35 1.5721
33.4 1.53814
33.45 1.50423
33.5 1.46833
33.55 1.43411
33.6 1.40083
33.65 1.36592
33.7 1.32903
33.75 1.28663
33.8 1.2426
33.85 1.20032
33.9 1.15433
33.95 1.10657
34 1.05981
34.05 1.01515
34.1 0.96629
34.15 0.91539
34.2 0.86288
34.25 0.81254
34.3 0.76284
34.35 0.71624
34.4 0.67052
34.45 0.62785
34.5 0.58621
34.55 0.54467
34.6 0.50691
34.65 0.47215
34.7 0.43895
34.75 0.40675
34.8 0.37115
34.85 0.33323
34.9 0.30062
34.95 0.27234
35 0.23922
35.05 0.20626
35.1 0.17361
35.15 0.14704
35.2 0.12391
35.25 0.10084
35.3 0.0784
35.35 0.05843
35.4 0.03363
35.45 0.01195
35.5 -0.00913
35.55 -0.03174
35.6 -0.05521
35.65 -0.07635
35.7 -0.09595
35.75 -0.11945
35.8 -0.13752
35.85 -0.15196
35.9 -0.16373
35.95 -0.18054
36 -0.19449
36.05 -0.21114
36.1 -0.22184
36.15 -0.22863
36.2 -0.23352
36.25 -0.24417
36.3 -0.2515
36.35 -0.25885
36.4 -0.26957
36.45 -0.27927
36.5 -0.28608
36.55 -0.29264
36.6 -0.2956
36.65 -0.30227
36.7 -0.31025
36.75 -0.31752
36.8 -0.32214
36.85 -0.32698
36.9 -0.3309
36.95 -0.33443
37 -0.33231
37.05 -0.32743
37.1 -0.32824
37.15 -0.3303
37.2 -0.33052
37.25 -0.33296
37.3 -0.33401
37.35 -0.33634
37.4 -0.33962
37.45 -0.33742
37.5 -0.33002
37.55 -0.3236
37.6 -0.31616
37.65 -0.31304
37.7 -0.307
37.75 -0.3046
37.8 -0.29977
37.85 -0.29522
37.9 -0.29357
37.95 -0.29584
38 -0.29756
38.05 -0.2976
38.1 -0.29717
38.15 -0.29874
38.2 -0.29661
38.25 -0.29271
38.3 -0.2844
38.35 -0.27576
38.4 -0.2656
38.45 -0.26119
38.5 -0.25826
38.55 -0.25135
38.6 -0.24731
38.65 -0.24499
38.7 -0.23894
38.75 -0.23566
38.8 -0.2317
38.85 -0.22822
38.9 -0.22134
38.95 -0.21458
39 -0.21205
39.05 -0.21344
39.1 -0.20993
39.15 -0.20731
39.2 -0.20194
39.25 -0.198
39.3 -0.19436
39.35 -0.19071
39.4 -0.18848
39.45 -0.1867
39.5 -0.18423
39.55 -0.18273
39.6 -0.17945
39.65 -0.17437
39.7 -0.17444
39.75 -0.17492
39.8 -0.17759
39.85 -0.17743
39.9 -0.17987
39.95 -0.17873
40 -0.17738
40.05 -0.17821
40.1 -0.17834
40.15 -0.17904
40.2 -0.17542
40.25 -0.17247
40.3 -0.17073
40.35 -0.16433
40.4 -0.15997
40.45 -0.15393
40.5 -0.14894
40.55 -0.14065
40.6 -0.13437
40.65 -0.13079
40.7 -0.12433
40.75 -0.11801
40.8 -0.11677
40.85 -0.11846
40.9 -0.12078
40.95 -0.12251
41 -0.12053
41.05 -0.11948
41.1 -0.11603
41.15 -0.11053
41.2 -0.1077
41.25 -0.10332
41.3 -0.10389
41.35 -0.10636
41.4 -0.11067
41.45 -0.11324
41.5 -0.11237
41.55 -0.11017
41.6 -0.10376
41.65 -0.09868
41.7 -0.09195
41.75 -0.09008
41.8 -0.08537
41.85 -0.08518
41.9 -0.08494
41.95 -0.08636
42 -0.08537
42.05 -0.0819
42.1 -0.07792
42.15 -0.07318
42.2 -0.072
42.25 -0.07211
42.3 -0.06961
42.35 -0.06939
42.4 -0.06704
42.45 -0.06689
42.5 -0.07081
42.55 -0.0769
42.6 -0.07963
42.65 -0.07896
42.7 -0.0741
42.75 -0.07196
42.8 -0.06615
42.85 -0.06456
42.9 -0.0612
42.95 -0.0622
43 -0.06687
43.05 -0.06546
43.1 -0.06324
43.15 -0.05882
43.2 -0.05266
43.25 -0.04904
43.3 -0.04409
43.35 -0.03881
43.4 -0.03465
43.45 -0.0308
43.5 -0.03368
43.55 -0.03677
43.6 -0.03987
43.65 -0.04412
43.7 -0.05115
43.75 -0.05477
43.8 -0.05794
43.85 -0.06205
43.9 -0.06597
43.95 -0.06585
44 -0.0667
44.05 -0.0645
44.1 -0.0607
44.15 -0.05617
44.2 -0.05218
44.25 -0.05155
44.3 -0.05408
44.35 -0.05801
44.4 -0.0589
44.45 -0.06117
44.5 -0.06393
44.55 -0.05956
44.6 -0.05388
44.65 -0.04679
44.7 -0.04348
44.75 -0.03885
44.8 -0.03236
44.85 -0.0244
44.9 -0.0165
44.95 -0.01465
45 -0.01797
45.05 -0.02406
45.1 -0.03227
45.15 -0.03497
45.2 -0.03381
45.25 -0.03363
45.3 -0.03089
45.35 -0.02878
45.4 -0.02455
45.45 -0.01922
45.5 -0.0127
45.55 -0.00732
45.6 -0.00634
45.65 -0.00818
45.7 -0.01058
45.75 -0.01063
45.8 -0.01513
45.85 -0.02032
45.9 -0.02216
45.95 -0.02748
46 -0.02735
46.05 -0.02558
46.1 -0.02051
46.15 -0.01422
46.2 -0.01301
46.25 -0.01129
46.3 -0.00925
46.35 -0.00731
46.4 -0.00479
46.45 -0.00242
46.5 -0.00037
46.55 0.00078
46.6 0.00142
46.65 -0.00344
46.7 -0.00912
46.75 -0.01711
46.8 -0.02415
46.85 -0.02552
46.9 -0.028
46.95 -0.02989
47 -0.02765
47.05 -0.02672
47.1 -0.02325
47.15 -0.01994
47.2 -0.01504
47.25 -0.01532
47.3 -0.01422
47.35 -0.01617
47.4 -0.02114
47.45 -0.02737
47.5 -0.02717
47.55 -0.0232
47.6 -0.01633
47.65 -0.01328
47.7 -0.0088
47.75 -0.0028
47.8 -0.00078
47.85 -0.00411
47.9 -0.0111
47.95 -0.0152
48 -0.02001
48.05 -0.02465
48.1 -0.02619
48.15 -0.02952
48.2 -0.03418
48.25 -0.03708
48.3 -0.04036
48.35 -0.04303
48.4 -0.0448
48.45 -0.04132
48.5 -0.03838
48.55 -0.03169
48.6 -0.02809
48.65 -0.02722
48.7 -0.02639
48.75 -0.02384
48.8 -0.02506
48.85 -0.02852
48.9 -0.02828
48.95 -0.02608
49 -0.02166
49.05 -0.01495
49.1 -0.01035
49.15 -0.00802
49.2 -0.00572
49.25 -0.0057
49.3 -0.00451
49.35 -0.00272
49.4 -0.00137
49.45 0.00277
49.5 0.00679
49.55 0.00697
49.6 0.00757
49.65 0.00977
49.7 0.0135
49.75 0.01349
49.8 0.01101
49.85 0.00724
49.9 0.00331
49.95 -0.00407
50 -0.00792
50.05 -0.01013
50.1 -0.01181
50.15 -0.01299
50.2 -0.01525
50.25 -0.01463
50.3 -0.01691
50.35 -0.01482
50.4 -0.01127
50.45 -0.00918
50.5 -0.00931
50.55 -0.01211
50.6 -0.01185
50.65 -0.01109
50.7 -0.01221
50.75 -0.01611
50.8 -0.02093
50.85 -0.01943
50.9 -0.01423
50.95 -0.00645
51 -0.00386
51.05 -0.00385
51.1 -0.00295
51.15 -0.00097
51.2 0.00037
51.25 -0.00252
51.3 -0.0048
51.35 -0.00617
51.4 -0.00698
51.45 -0.01033
51.5 -0.01
51.55 -0.00976
51.6 -0.01252
51.65 -0.01694
51.7 -0.01485
51.75 -0.01131
51.8 -0.00969
51.85 -0.01142
51.9 -0.01517
51.95 -0.02026
52 -0.02356
52.05 -0.02327
52.1 -0.02104
52.15 -0.01941
52.2 -0.01857
52.25 -0.01854
52.3 -0.01841
52.35 -0.01505
52.4 -0.01529
52.45 -0.01271
52.5 -0.00612
52.55 -0.00101
52.6 0.00043
52.65 0.001
52.7 0.0041
52.75 0.00644
52.8 0.01091
52.85 0.0146
52.9 0.01408
52.95 0.00881
53 0.00762
53.05 0.00335
53.1 0.00367
53.15 0.0013
53.2 -0.00093
53.25 -0.0019
53.3 -0.00077
53.35 -0.00168
53.4 0.00092
53.45 0.00011
53.5 -0.00277
53.55 -0.00263
53.6 -0.00195
53.65 -0.00426
53.7 -0.00156
53.75 -0.00376
53.8 -0.00529
53.85 -0.00979
53.9 -0.01228
53.95 -0.01038
54 -0.0115
54.05 -0.01216
54.1 -0.01528
54.15 -0.01786
54.2 -0.01603
54.25 -0.01375
54.3 -0.01454
54.35 -0.01635
54.4 -0.01978
54.45 -0.02263
54.5 -0.02419
54.55 -0.01973
54.6 -0.01125
54.65 -0.00328
54.7 0.00556
54.75 0.01465
54.8 0.02044
54.85 0.02383
54.9 0.02374
54.95 0.02476
55 0.02395
55.05 0.02216
55.1 0.02039
55.15 0.01885
55.2 0.01427
55.25 0.01069
55.3 0.01026
55.35 0.01004
55.4 0.00807
55.45 0.00673
55.5 0.00741
55.55 0.00719
55.6 0.00403
55.65 0.00285
55.7 0.00322
55.75 0.00541
55.8 0.0053
55.85 0.00843
55.9 0.0087
55.95 0.01098
56 0.01236
56.05 0.01125
56.1 0.0133
56.15 0.01367
56.2 0.01047
56.25 0.01034
56.3 0.01212
56.35 0.01476
56.4 0.01479
56.45 0.0106
56.5 0.00585
56.55 0.0036
56.6 0.00418
56.65 0.00718
56.7 0.00725
56.75 0.00779
56.8 0.00702
56.85 0.00258
56.9 0.00081
56.95 -0.00345
57 -0.00728
57.05 -0.00757
57.1 -0.00472
57.15 -0.00373
57.2 -0.00677
57.25 -0.01154
57.3 -0.01728
57.35 -0.01906
57.4 -0.01498
57.45 -0.01406
57.5 -0.01215
57.55 -0.00884
57.6 -0.0046
57.65 -0.0014
57.7 -0.00177
57.75 0.00168
57.8 0.00409
57.85 0.00739
57.9 0.01121
57.95 0.01635
58 0.01998
58.05 0.02239
58.1 0.02484
58.15 0.02563
58.2 0.02394
58.25 0.0226
58.3 0.01823
58.35 0.01478
58.4 0.01481
58.45 0.015
58.5 0.01397
58.55 0.01387
58.6 0.01415
58.65 0.01509
58.7 0.01669
58.75 0.01313
58.8 0.01118
58.85 0.01167
58.9 0.01066
58.95 0.00582
59 0.00166
59.05 -0.00385
59.1 -0.00709
59.15 -0.00645
59.2 -0.00556
59.25 -0.00654
59.3 -0.00474
59.35 -0.00383
59.4 -0.00074
59.45 0.00025
59.5 0.00007
59.55 0.00116
59.6 0.00001
59.65 0.00142
59.7 0.00129
59.75 -0.00264
59.8 -0.0095
59.85 -0.01393
59.9 -0.01705
59.95 -0.01633
60 -0.01361
60.05 -0.01085
60.1 -0.01083
60.15 -0.01305
60.2 -0.01614
60.25 -0.01837
60.3 -0.02203
60.35 -0.02042
60.4 -0.01614
60.45 -0.01565
60.5 -0.01085
60.55 -0.00693
60.6 -0.00114
60.65 0.00408
60.7 0.00698
60.75 0.00995
60.8 0.00727
60.85 0.00445
60.9 0.00099
60.95 -0.00325
61 -0.00242
61.05 -0.00447
61.1 -0.00651
61.15 -0.00841
61.2 -0.01257
61.25 -0.01052
61.3 -0.01152
61.35 -0.01058
61.4 -0.01197
61.45 -0.01417
61.5 -0.01215
61.55 -0.00795
61.6 -0.00334
61.65 -0.00266
61.7 0.00039
61.75 0.00404
61.8 0.00479
61.85 0.0019
61.9 0.00144
61.95 0.00235
62 -0.00136
62.05 -0.00093
62.1 0.0011
62.15 0.00486
62.2 0.00801
62.25 0.00786
62.3 0.00773
62.35 0.00268
62.4 -0.00414
62.45 -0.00966
62.5 -0.01065
62.55 -0.00877
62.6 -0.00425
62.65 -0.00282
62.7 -0.00343
62.75 -0.0061
62.8 -0.00918
62.85 -0.012
62.9 -0.00964
62.95 -0.00689
63 -0.00814
63.05 -0.00703
63.1 -0.00218
63.15 -0.0019
63.2 -0.00309
63.25 -0.00716
63.3 -0.00868
63.35 -0.00886
63.4 -0.00861
63.45 -0.0084
63.5 -0.00633
63.55 -0.00584
63.6 -0.0043
63.65 -0.00507
63.7 -0.00844
63.75 -0.01086
63.8 -0.0131
63.85 -0.01628
63.9 -0.01818
63.95 -0.01559
64 -0.01424
64.05 -0.00892
64.1 -0.00756
64.15 -0.00897
64.2 -0.0125
64.25 -0.01128
64.3 -0.00776
64.35 -0.00544
64.4 0.00043
64.45 0.0031
64.5 0.00392
64.55 0.00653
64.6 0.0083
64.65 0.00678
64.7 0.00304
64.75 0.00281
64.8 0.00313
64.85 0.00539
64.9 0.00248
64.95 0.00222
65 0.00131
65.05 -0.00129
65.1 0.00096
65.15 -0.00058
65.2 -0.00504
65.25 -0.00397
65.3 -0.00474
65.35 -0.00201
65.4 -0.00152
65.45 0.00042
65.5 -0.00041
65.55 -0.00146
65.6 -0.00554
65.65 -0.00433
65.7 -0.00554
65.75 -0.00204
65.8 -0.00105
65.85 -0.00025
65.9 0.0022
65.95 0.00573
66 0.00415
66.05 0.00648
66.1 0.00424
66.15 -0.00041
66.2 -0.00522
66.25 -0.00828
66.3 -0.01225
66.35 -0.01596
66.4 -0.01599
66.45 -0.0183
66.5 -0.02023
66.55 -0.02163
66.6 -0.02333
66.65 -0.02308
66.7 -0.02381
66.75 -0.02309
66.8 -0.01924
66.85 -0.01494
66.9 -0.01318
66.95 -0.00935
67 -0.01003
67.05 -0.00909
67.1 -0.00723
67.15 -0.00596
67.2 -0.00153
67.25 0.00059
67.3 0.0033
67.35 0.00823
67.4 0.00967
67.45 0.01065
67.5 0.00865
67.55 0.00393
67.6 -0.00185
67.65 -0.00499
67.7 -0.00684
67.75 -0.00421
67.8 0.00057
67.85 0.00565
67.9 0.01206
67.95 0.01364
68 0.01573
68.05 0.01875
68.1 0.0189
68.15 0.01981
68.2 0.01538
68.25 0.00892
68.3 0.0002
68.35 -0.00495
68.4 -0.00906
68.45 -0.00979
68.5 -0.01009
68.55 -0.00658
68.6 -0.00648
68.65 -0.00848
68.7 -0.0118
68.75 -0.01443
68.8 -0.01406
68.85 -0.01478
68.9 -0.0133
68.95 -0.01132
69 -0.01204
69.05 -0.00814
69.1 -0.00657
69.15 -0.00448
69.2 -0.00636
69.25 -0.00564
69.3 -0.00597
69.35 -0.00391
69.4 -0.00388
69.45 -0.00701
69.5 -0.00507
69.55 -0.00115
69.6 0.00175
69.65 0.00433
69.7 0.00853
69.75 0.01205
69.8 0.01634
69.85 0.02053
69.9 0.0229
69.95 0.0259
70 0.02432
70.05 0.02537
70.1 0.02144
70.15 0.01976
70.2 0.01575
70.25 0.01567
70.3 0.01156
70.35 0.00611
70.4 0.00211
70.45 -0.00244
70.5 -0.00124
70.55 0.00233
70.6 0.00243
70.65 0.0063
70.7 0.008
70.75 0.00602
70.8 0.00766
70.85 0.00999
70.9 0.01449
70.95 0.01646
71 0.0198
71.05 0.02
71.1 0.01915
71.15 0.01485
71.2 0.00689
71.25 0.00302
71.3 0.00056
71.35 -0.00102
71.4 -0.0027
71.45 -0.00185
71.5 -0.00076
71.55 -0.00193
71.6 -0.00102
71.65 0.00142
71.7 0.00637
71.75 0.01054
71.8 0.00831
71.85 0.00537
71.9 0.00063
71.95 -0.00159
72 -0.00663
72.05 -0.01014
72.1 -0.01254
72.15 -0.0113
72.2 -0.00814
72.25 -0.00791
72.3 -0.01041
72.35 -0.01438
72.4 -0.01364
72.45 -0.01507
72.5 -0.01119
72.55 -0.00852
72.6 -0.00854
72.65 -0.01055
72.7 -0.0147
72.75 -0.01416
72.8 -0.01081
72.85 -0.00606
72.9 -0.00467
72.95 -0.00053
73 0.00146
73.05 0.00216
73.1 0.00075
73.15 -0.00257
73.2 -0.00515
73.25 -0.00904
73.3 -0.00751
73.35 -0.003
73.4 -0.0007
73.45 0.00364
73.5 0.00537
73.55 0.00771
73.6 0.00691
73.65 0.00205
73.7 0.00189
73.75 0.00422
73.8 0.00548
73.85 0.00182
73.9 -0.00372
73.95 -0.00624
74 -0.00497
74.05 -0.00551
74.1 -0.00723
74.15 -0.00905
74.2 -0.00618
74.25 -0.00422
74.3 0.00077
74.35 0.00582
74.4 0.00479
74.45 0.00648
74.5 0.00623
74.55 0.0082
74.6 0.00853
74.65 0.00777
74.7 0.00259
74.75 -0.00465
74.8 -0.00973
74.85 -0.01205
74.9 -0.00979
74.95 -0.0089
75 -0.00379
75.05 0.00344
75.1 0.00529
75.15 0.00979
75.2 0.00913
75.25 0.00985
75.3 0.00622
75.35 0.00036
75.4 -0.00616
75.45 -0.00985
75.5 -0.01168
75.55 -0.01429
75.6 -0.0167
75.65 -0.01899
75.7 -0.02197
75.75 -0.01993
75.8 -0.01629
75.85 -0.01463
75.9 -0.01379
75.95 -0.01433
76 -0.01174
76.05 -0.00742
76.1 -0.00535
76.15 -0.00309
76.2 -0.00401
76.25 -0.00386
76.3 -0.00253
76.35 0.00017
76.4 -0.0018
76.45 -0.00598
76.5 -0.00872
76.55 -0.01279
76.6 -0.01152
76.65 -0.01331
76.7 -0.0102
76.75 -0.00834
76.8 -0.00667
76.85 -0.00695
76.9 -0.0024
76.95 0.00435
77 0.01126
77.05 0.01366
77.1 0.01604
77.15 0.01297
77.2 0.01107
77.25 0.00869
77.3 0.00598
77.35 0.00076
77.4 -0.00326
77.45 -0.00319
77.5 -0.00071
77.55 0.00133
77.6 0.00647
77.65 0.01104
77.7 0.00999
77.75 0.00756
77.8 0.00924
77.85 0.00576
77.9 0.00557
77.95 0.00301
78 0.00406
78.05 0.00665
78.1 0.00698
78.15 0.00334
78.2 0.00408
78.25 0.00198
78.3 0.00361
78.35 0.00813
78.4 0.01111
78.45 0.01308
78.5 0.01044
78.55 0.00849
78.6 0.00322
78.65 0.00286
78.7 0.00603
78.75 0.00488
78.8 0.00523
78.85 0.00716
78.9 0.0117
78.95 0.01543
79 0.01244
79.05 0.00862
79.1 0.00297
79.15 0.00049
79.2 -0.00239
79.25 -0.0003
79.3 -0.00266
79.35 -0.00316
79.4 -0.00318
79.45 -0.00044
79.5 0.00349
79.55 0.00343
79.6 0.00229
79.65 0.00075
79.7 -0.00092
79.75 -0.00012
79.8 0.00129
79.85 0.00579
79.9 0.01105
79.95 0.0159
80 0.01432
80.05 0.01387
80.1 0.00966
80.15 0.00194
80.2 -0.00043
80.25 -0.00221
80.3 -0.0006
80.35 -0.00329
80.4 -0.00615
80.45 -0.00603
80.5 -0.0039
80.55 0.00022
80.6 0.00519
80.65 0.01103
80.7 0.01493
80.75 0.01832
80.8 0.01854
80.85 0.01492
80.9 0.0086
80.95 0.00257
81 -0.00378
81.05 -0.01089
81.1 -0.01208
81.15 -0.00986
81.2 -0.00713
81.25 -0.00872
81.3 -0.00647
81.35 -0.0038
81.4 -0.00032
81.45 0.00486
81.5 0.00803
81.55 0.0056
81.6 -0.00073
81.65 -0.00158
81.7 -0.00181
81.75 -0.00523
81.8 -0.00773
81.85 -0.01255
81.9 -0.0188
81.95 -0.01883
82 -0.0192
82.05 -0.01483
82.1 -0.014
82.15 -0.00953
82.2 -0.00725
82.25 -0.00311
82.3 0.00113
82.35 0.00662
82.4 0.00649
82.45 0.0053
82.5 0.00069
82.55 -0.00015
82.6 -0.00441
82.65 -0.00438
82.7 -0.00564
82.75 -0.00896
82.8 -0.00708
82.85 -0.00395
82.9 0.00047
82.95 0.00298
83 0.00221
83.05 0.00376
83.1 0.00109
83.15 -0.00223
83.2 -0.00437
83.25 -0.00236
83.3 -0.00341
83.35 -0.00363
83.4 -0.00714
83.45 -0.0048
83.5 -0.00172
83.55 -0.00264
83.6 -0.00683
83.65 -0.00574
83.7 -0.00756
83.75 -0.01116
83.8 -0.01577
83.85 -0.01402
83.9 -0.01302
83.95 -0.00923
84 -0.00409
84.05 0.00317
84.1 0.00346
84.15 0.00134
84.2 -0.00122
84.25 -0.00029
84.3 0.00405
84.35 0.00775
84.4 0.00737
84.45 0.00945
84.5 0.01091
84.55 0.0102
84.6 0.00556
84.65 0.00552
84.7 0.00565
84.75 0.00305
84.8 -0.00292
84.85 -0.00248
84.9 -0.00424
84.95 -0.0035
85 -0.00321
85.05 -0.00514
85.1 -0.00706
85.15 -0.00431
85.2 -0.00348
85.25 -0.00525
85.3 -0.00978
85.35 -0.01073
85.4 -0.01107
85.45 -0.00976
85.5 -0.0084
85.55 -0.00773
85.6 -0.00369
85.65 0.0002
85.7 -0.00052
85.75 -0.00271
85.8 -0.00468
85.85 -0.00255
85.9 -0.00298
85.95 -0.00198
86 0.00157
86.05 0.00206
86.1 0.00339
86.15 0.00241
86.2 0.00078
86.25 0.00013
86.3 0.00257
86.35 0.00321
86.4 0.00376
86.45 0.00498
86.5 0.0081
86.55 0.00582
86.6 0.00578
86.65 0.00578
86.7 0.00341
86.75 0.00372
86.8 0.00507
86.85 0.00476
86.9 0.00622
86.95 0.00322
87 0.00291
87.05 0.00233
87.1 0.0054
87.15 0.00527
87.2 0.00202
87.25 0.0024
87.3 -0.00055
87.35 -0.00471
87.4 -0.00514
87.45 -0.00476
87.5 -0.006
87.55 -0.0047
87.6 -0.00487
87.65 -0.00298
87.7 0.00131
87.75 0.0043
87.8 0.0055
87.85 0.00775
87.9 0.00877
87.95 0.00851
88 0.0035
88.05 0.00377
88.1 0.00339
88.15 0.00451
88.2 0.00556
88.25 0.00437
88.3 0.00201
88.35 -0.00387
88.4 -0.01098
88.45 -0.01159
88.5 -0.01183
88.55 -0.01263
88.6 -0.01612
88.65 -0.01868
88.7 -0.01876
88.75 -0.01829
88.8 -0.01585
88.85 -0.01116
88.9 -0.0096
88.95 -0.00764
89 -0.0094
89.05 -0.01061
89.1 -0.00938
89.15 -0.00806
89.2 -0.00727
89.25 -0.00261
89.3 -0.00218
89.35 -0.0055
89.4 -0.00379
89.45 -0.00326
89.5 -0.0033
89.55 -0.00265
89.6 -0.00547
89.65 -0.00436
89.7 -0.00378
89.75 -0.00686
89.8 -0.00605
89.85 -0.00711
89.9 -0.01002
89.95 -0.00768
90 -0.00841
90.05 -0.00955
90.1 -0.01292
90.15 -0.01146
90.2 -0.00904
90.25 -0.00896
90.3 -0.00764
90.35 -0.00387
90.4 -0.00098
90.45 0.00387
90.5 0.00977
90.55 0.00896
90.6 0.00538
90.65 0.00246
90.7 0.00173
90.75 -0.00157
90.8 -0.00539
90.85 -0.00857
90.9 -0.00767
90.95 -0.00805
91 -0.00456
91.05 -0.00214
91.1 0.00248
91.15 0.00646
91.2 0.00537
91.25 0.00678
91.3 0.00595
91.35 0.00726
91.4 0.00741
91.45 0.00556
91.5 0.00334
91.55 0.00542
91.6 0.00599
91.65 0.00917
91.7 0.01196
91.75 0.01262
91.8 0.01437
91.85 0.01742
91.9 0.01654
91.95 0.01175
92 0.00833
92.05 0.00855
92.1 0.00693
92.15 0.00694
92.2 0.00552
92.25 0.00805
92.3 0.01212
92.35 0.01575
92.4 0.01786
92.45 0.01718
92.5 0.01686
92.55 0.01914
92.6 0.02026
92.65 0.01986
92.7 0.01844
92.75 0.01777
92.8 0.01535
92.85 0.01623
92.9 0.01334
92.95 0.00846
93 0.00509
93.05 0.00217
93.1 -0.0006
93.15 -0.00113
93.2 -0.00554
93.25 -0.00856
93.3 -0.01058
93.35 -0.00752
93.4 -0.00385
93.45 -0.00066
93.5 0.00082
93.55 0
93.6 -0.00079
93.65 0.00118
93.7 0.00131
93.75 0.00094
93.8 0.00339
93.85 0.00348
93.9 0.00651
93.95 0.00612
94 0.00177
94.05 0.00135
94.1 0.0043
94.15 0.007
94.2 0.01001
94.25 0.01388
94.3 0.01862
94.35 0.02267
94.4 0.027
94.45 0.02623
94.5 0.02674
94.55 0.02182
94.6 0.0174
94.65 0.00886
94.7 0.00086
94.75 -0.00432
94.8 -0.01003
94.85 -0.01695
94.9 -0.02234
94.95 -0.02264
95 -0.02493
95.05 -0.02266
95.1 -0.01992
95.15 -0.0141
95.2 -0.01223
95.25 -0.01245
95.3 -0.0095
95.35 -0.00723
95.4 -0.00521
95.45 -0.00343
95.5 -0.00416
95.55 -0.00463
95.6 -0.00668
95.65 -0.00996
95.7 -0.01296
95.75 -0.01239
95.8 -0.01011
95.85 -0.00507
95.9 0.00246
95.95 0.00547
96 0.0086
96.05 0.00566
96.1 -0.00064
96.15 -0.0014
96.2 -0.00463
96.25 -0.00663
96.3 -0.00698
96.35 -0.00996
96.4 -0.00955
96.45 -0.00698
96.5 -0.00453
96.55 -0.00097
96.6 0.00101
96.65 0.001
96.7 0.00327
96.75 0.00832
96.8 0.00706
96.85 0.00825
96.9 0.00861
96.95 0.00634
97 0.00071
97.05 -0.00597
97.1 -0.009
97.15 -0.01198
97.2 -0.01151
97.25 -0.00734
97.3 -0.00831
97.35 -0.00939
97.4 -0.0116
97.45 -0.00939
97.5 -0.01095
97.55 -0.01105
97.6 -0.00667
97.65 0.00036
97.7 0.00105
97.75 0.00437
97.8 0.00677
97.85 0.00907
97.9 0.0129
97.95 0.01342
98 0.0149
98.05 0.01307
98.1 0.00794
98.15 0.00227
98.2 0.00216
98.25 -0.00104
98.3 0.00034
98.35 -0.00219
98.4 -0.00142
98.45 -0.00307
98.5 -0.00524
98.55 -0.00446
98.6 -0.006
98.65 -0.00624
98.7 -0.00783
98.75 -0.01035
98.8 -0.01011
98.85 -0.01149
98.9 -0.01427
98.95 -0.01466
99 -0.01305
99.05 -0.01182
99.1 -0.00935
99.15 -0.00661
99.2 -0.00564
99.25 -0.00101
99.3 -0.00087
99.35 0.0009
99.4 0.00479
99.45 0.00393
99.5 0.00257
99.55 0.0031
99.6 -0.00049
99.65 -0.00608
99.7 -0.00693
99.75 -0.00938
99.8 -0.01061
99.85 -0.00994
99.9 -0.00637
99.95 -0.0075
