0 0
0.05 0.00693
0.1 0.01826
0.15 0.03197
0.2 0.04528
0.25 0.05335
0.3 0.05766
0.35 0.06163
0.4 0.06413
0.45 0.06152
0.5 0.05947
0.55 0.05855
0.6 0.06026
0.65 0.06253
0.7 0.06565
0.75 0.0642
0.8 0.05757
0.85 0.04958
0.9 0.04327
0.95 0.04367
1 0.04612
1.05 0.05123
1.1 0.0516
1.15 0.05263
1.2 0.05141
1.25 0.05121
1.3 0.04887
1.35 0.0498
1.4 0.04546
1.45 0.04242
1.5 0.04201
1.55 0.03717
1.6 0.0335
1.65 0.03307
1.7 0.03465
1.75 0.03255
1.8 0.03001
1.85 0.02766
1.9 0.03054
1.95 0.03423
2 0.03628
2.05 0.03339
2.1 0.02653
2.15 0.02477
2.2 0.02758
2.25 0.03117
2.3 0.03261
2.35 0.03119
2.4 0.03155
2.45 0.03265
2.5 0.03617
2.55 0.0415
2.6 0.03966
2.65 0.03985
2.7 0.03819
2.75 0.03387
2.8 0.02793
2.85 0.01941
2.9 0.01368
2.95 0.01444
3 0.01842
3.05 0.02404
3.1 0.03077
3.15 0.03449
3.2 0.03904
3.25 0.04354
3.3 0.04297
3.35 0.03695
3.4 0.03378
3.45 0.03371
3.5 0.03262
3.55 0.03201
3.6 0.03126
3.65 0.02976
3.7 0.02446
3.75 0.0202
3.8 0.01902
3.85 0.02031
3.9 0.01842
3.95 0.01267
4 0.00716
4.05 0.00092
4.1 -0.00531
4.15 -0.01043
4.2 -0.00868
4.25 -0.00572
4.3 -0.00465
4.35 -0.00547
4.4 -0.00568
4.45 -0.01289
4.5 -0.02266
4.55 -0.03053
4.6 -0.04409
4.65 -0.05725
4.7 -0.06911
4.75 -0.08852
4.8 -0.10667
4.85 -0.13193
4.9 -0.15825
4.95 -0.18715
5 -0.22792
5.05 -0.27384
5.1 -0.32314
5.15 -0.38477
5.2 -0.44685
5.25 -0.51492
5.3 -0.5884
5.35 -0.66797
5.4 -0.75199
5.45 -0.83922
5.5 -0.92898
5.55 -1.02747
5.6 -1.12712
5.65 -1.23081
5.7 -1.33612
5.75 -1.44083
5.8 -1.53628
5.85 -1.63219
5.9 -1.72384
5.95 -1.80723
6 -1.89263
6.05 -1.97551
6.1 -2.04885
6.15 -2.11509
6.2 -2.17472
6.25 -2.23537
6.3 -2.28961
6.35 -2.33789
6.4 -2.38687
6.45 -2.42891
6.5 -2.46604
6.55 -2.49315
6.6 -2.5087
6.65 -2.51659
6.7 -2.50665
6.75 -2.48553
6.8 -2.44366
6.85 -2.38752
6.9 -2.31552
6.95 -2.22978
7 -2.12636
7.05 -2.00433
7.1 -1.86904
7.15 -1.7162
7.2 -1.55241
7.25 -1.38015
7.3 -1.19557
7.35 -1.00248
7.4 -0.80443
7.45 -0.60114
7.5 -0.40167
7.55 -0.20351
7.6 -0.00138
7.65 0.19301
7.7 0.38096
7.75 0.56769
7.8 0.75154
7.85 0.92962
7.9 1.0911
7.95 1.24538
8 1.38482
8.05 1.51006
8.1 1.62101
8.15 1.72126
8.2 1.81274
8.25 1.8895
8.3 1.95687
8.35 2.01777
8.4 2.06394
8.45 2.10389
8.5 2.13839
8.55 2.16537
8.6 2.18851
8.65 2.19959
8.7 2.202
8.75 2.20082
8.8 2.19452
8.85 2.18508
8.9 2.17976
8.95 2.16933
9 2.15747
9.05 2.14444
9.1 2.13522
9.15 2.121
9.2 2.10942
9.25 2.09307
9.3 2.07452
9.35 2.05252
9.4 2.03129
9.45 2.0067
9.5 1.98427
9.55 1.96247
9.6 1.93512
9.65 1.90688
9.7 1.88125
9.75 1.85364
9.8 1.82059
9.85 1.79026
9.9 1.75932
9.95 1.72453
10 1.69075
10.05 1.6535
10.1 1.61782
10.15 1.5849
10.2 1.54584
10.25 1.50316
10.3 1.46386
10.35 1.42063
10.4 1.37391
10.45 1.33149
10.5 1.28588
10.55 1.24229
10.6 1.19871
10.65 1.14977
10.7 1.10059
10.75 1.05074
10.8 0.99998
10.85 0.95252
10.9 0.9069
10.95 0.86413
11 0.81975
11.05 0.77111
11.1 0.72339
11.15 0.67944
11.2 0.63753
11.25 0.5906
11.3 0.54482
11.35 0.50241
11.4 0.4598
11.45 0.41721
11.5 0.37885
11.55 0.34379
11.6 0.30976
11.65 0.27021
11.7 0.23112
11.75 0.19371
11.8 0.15656
11.85 0.1187
11.9 0.08494
11.95 0.05466
12 0.02508
12.05 -0.00452
12.1 -0.03504
12.15 -0.06002
12.2 -0.08459
12.25 -0.10909
12.3 -0.13489
12.35 -0.15267
12.4 -0.16658
12.45 -0.17698
12.5 -0.19241
12.55 -0.20885
12.6 -0.22081
12.65 -0.23623
12.7 -0.25472
12.75 -0.26969
12.8 -0.27863
12.85 -0.28929
12.9 -0.30283
12.95 -0.31129
13 -0.31816
13.05 -0.32855
13.1 -0.33802
13.15 -0.34864
13.2 -0.35204
13.25 -0.35942
13.3 -0.36254
13.35 -0.36586
13.4 -0.36555
13.45 -0.36285
13.5 -0.36028
13.55 -0.36041
13.6 -0.36096
13.65 -0.36613
13.7 -0.37255
13.75 -0.37381
13.8 -0.37596
13.85 -0.38071
13.9 -0.3819
13.95 -0.38251
14 -0.37962
14.05 -0.37774
14.1 -0.37694
14.15 -0.3781
14.2 -0.37529
14.25 -0.36974
14.3 -0.36744
14.35 -0.3599
14.4 -0.35092
14.45 -0.34719
14.5 -0.34677
14.55 -0.3489
14.6 -0.34855
14.65 -0.3447
14.7 -0.33831
14.75 -0.33467
14.8 -0.32575
14.85 -0.32146
14.9 -0.31453
14.95 -0.31165
15 -0.30659
15.05 -0.30448
15.1 -0.30287
15.15 -0.29882
15.2 -0.2947
15.25 -0.28964
15.3 -0.27965
15.35 -0.27362
15.4 -0.26704
15.45 -0.25827
15.5 -0.24968
15.55 -0.24642
15.6 -0.24587
15.65 -0.24266
15.7 -0.23849
15.75 -0.23398
15.8 -0.22645
15.85 -0.21692
15.9 -0.2066
15.95 -0.20021
16 -0.20134
16.05 -0.20236
16.1 -0.20694
16.15 -0.21297
16.2 -0.21401
16.25 -0.21323
16.3 -0.21024
16.35 -0.20876
16.4 -0.20435
16.45 -0.20372
16.5 -0.2014
16.55 -0.19664
16.6 -0.1898
16.65 -0.18872
16.7 -0.18229
16.75 -0.17881
16.8 -0.1769
16.85 -0.17808
16.9 -0.17629
16.95 -0.17674
17 -0.17926
17.05 -0.1831
17.1 -0.1799
17.15 -0.17882
17.2 -0.17397
17.25 -0.1679
17.3 -0.16285
17.35 -0.15765
17.4 -0.148
17.45 -0.14248
17.5 -0.13436
17.55 -0.12872
17.6 -0.12943
17.65 -0.1314
17.7 -0.13163
17.75 -0.12747
17.8 -0.1262
17.85 -0.12375
17.9 -0.11721
17.95 -0.11417
18 -0.11291
18.05 -0.10914
18.1 -0.11036
18.15 -0.10648
18.2 -0.10745
18.25 -0.1038
18.3 -0.10046
18.35 -0.10201
18.4 -0.10393
18.45 -0.10362
18.5 -0.10747
18.55 -0.11112
18.6 -0.11053
18.65 -0.10767
18.7 -0.10314
18.75 -0.10337
18.8 -0.10322
18.85 -0.10494
18.9 -0.09978
18.95 -0.09188
19 -0.08735
19.05 -0.08493
19.1 -0.08612
19.15 -0.08503
19.2 -0.07946
19.25 -0.07543
19.3 -0.07029
19.35 -0.06873
19.4 -0.06582
19.45 -0.06337
19.5 -0.0645
19.55 -0.06672
19.6 -0.06624
19.65 -0.06306
19.7 -0.05763
19.75 -0.05828
19.8 -0.05541
19.85 -0.05844
19.9 -0.06278
19.95 -0.06819
20 -0.06833
20.05 -0.06788
20.1 -0.06464
20.15 -0.06514
20.2 -0.06903
20.25 -0.06669
20.3 -0.06214
20.35 -0.05547
20.4 -0.04777
20.45 -0.04385
20.5 -0.03948
20.55 -0.03928
20.6 -0.03699
20.65 -0.03918
20.7 -0.04022
20.75 -0.04419
20.8 -0.04336
20.85 -0.04493
20.9 -0.04204
20.95 -0.03803
21 -0.03613
21.05 -0.03434
21.1 -0.03064
21.15 -0.02731
21.2 -0.0263
21.25 -0.02412
21.3 -0.02206
21.35 -0.01902
21.4 -0.01613
21.45 -0.01945
21.5 -0.0246
21.55 -0.02835
21.6 -0.03346
21.65 -0.04093
21.7 -0.04605
21.75 -0.0467
21.8 -0.04848
21.85 -0.04909
21.9 -0.04594
21.95 -0.04784
22 -0.04751
22.05 -0.04424
22.1 -0.04167
22.15 -0.04161
22.2 -0.04086
22.25 -0.03702
22.3 -0.0335
22.35 -0.03039
22.4 -0.02978
22.45 -0.03032
22.5 -0.02791
22.55 -0.02645
22.6 -0.02807
22.65 -0.02704
22.7 -0.02207
22.75 -0.01923
22.8 -0.02187
22.85 -0.02858
22.9 -0.03553
22.95 -0.03954
23 -0.03768
23.05 -0.0383
23.1 -0.03312
23.15 -0.03105
23.2 -0.02942
23.25 -0.03228
23.3 -0.03513
23.35 -0.03512
23.4 -0.03095
23.45 -0.02989
23.5 -0.02988
23.55 -0.02766
23.6 -0.02296
23.65 -0.01727
23.7 -0.01812
23.75 -0.02272
23.8 -0.02973
23.85 -0.03757
23.9 -0.04012
23.95 -0.0374
24 -0.03631
24.05 -0.03819
24.1 -0.0339
24.15 -0.03204
24.2 -0.02914
24.25 -0.02488
24.3 -0.02587
24.35 -0.02774
24.4 -0.02995
24.45 -0.02686
24.5 -0.01958
24.55 -0.01271
24.6 -0.01069
24.65 -0.0078
24.7 -0.006
24.75 -0.00343
24.8 -0.00611
24.85 -0.00849
24.9 -0.00715
24.95 -0.01038
25 -0.0097
25.05 -0.01324
25.1 -0.01215
25.15 -0.00762
25.2 -0.00451
25.25 -0.00574
25.3 -0.00363
25.35 0.00162
25.4 0.00142
25.45 -0.00311
25.5 -0.00299
25.55 -0.0014
25.6 -0.00497
25.65 -0.01102
25.7 -0.0195
25.75 -0.02413
25.8 -0.02466
25.85 -0.0199
25.9 -0.01956
25.95 -0.01649
26 -0.0096
26.05 -0.00069
26.1 0.00519
26.15 0.00461
26.2 0.00419
26.25 0.00568
26.3 0.00713
26.35 0.0058
26.4 0.0018
26.45 -0.00473
26.5 -0.00496
26.55 -0.00628
26.6 -0.008
26.65 -0.01041
26.7 -0.01044
26.75 -0.01256
26.8 -0.0116
26.85 -0.01444
26.9 -0.0112
26.95 -0.00487
27 0.00256
27.05 0.00189
27.1 0.00394
27.15 0.00558
27.2 0.00539
27.25 0.00607
27.3 0.0075
27.35 0.00588
27.4 0.00528
27.45 0.0016
27.5 -0.00567
27.55 -0.01419
27.6 -0.02305
27.65 -0.02652
27.7 -0.02613
27.75 -0.02037
27.8 -0.01639
27.85 -0.01377
27.9 -0.01193
27.95 -0.01459
28 -0.01685
28.05 -0.01902
28.1 -0.0213
28.15 -0.01841
28.2 -0.01238
28.25 -0.00366
28.3 0.00294
28.35 0.00605
28.4 0.00577
28.45 0.00705
28.5 0.00987
28.55 0.01241
28.6 0.01543
28.65 0.01158
28.7 0.00982
28.75 0.00679
28.8 0.00698
28.85 0.00585
28.9 0.00458
28.95 0.00287
29 -0.00364
29.05 -0.01243
29.1 -0.02033
29.15 -0.02506
29.2 -0.02842
29.25 -0.02724
29.3 -0.02502
29.35 -0.02555
29.4 -0.02391
29.45 -0.02226
29.5 -0.01981
29.55 -0.0174
29.6 -0.0179
29.65 -0.01404
29.7 -0.01089
29.75 -0.01044
29.8 -0.01546
29.85 -0.01968
29.9 -0.0196
29.95 -0.02003
30 -0.02056
30.05 -0.01749
30.1 -0.021
30.15 -0.0237
30.2 -0.02899
30.25 -0.03456
30.3 -0.03521
30.35 -0.03259
30.4 -0.03125
30.45 -0.03475
30.5 -0.03192
30.55 -0.02965
30.6 -0.02339
30.65 -0.02193
30.7 -0.02453
30.75 -0.02738
30.8 -0.02519
30.85 -0.02644
30.9 -0.02522
30.95 -0.0233
31 -0.01882
31.05 -0.01256
31.1 -0.00916
31.15 -0.00344
31.2 -0.00078
31.25 0.00172
31.3 0.00795
31.35 0.00761
31.4 0.00541
31.45 0.0059
31.5 0.00699
31.55 0.01264
31.6 0.01314
31.65 0.01028
31.7 0.00882
31.75 0.00871
31.8 0.01399
31.85 0.01571
31.9 0.01535
31.95 0.01955
32 0.0211
32.05 0.02155
32.1 0.02392
32.15 0.02991
32.2 0.03206
32.25 0.02944
32.3 0.0278
32.35 0.02622
32.4 0.02169
32.45 0.01444
32.5 0.00682
32.55 0.00491
32.6 0.00596
32.65 0.00589
32.7 0.00196
32.75 0.00319
32.8 0.00601
32.85 0.00715
32.9 0.00371
32.95 0.00619
33 0.00428
33.05 0.00664
33.1 0.01216
33.15 0.01213
33.2 0.01405
33.25 0.01827
33.3 0.02016
33.35 0.02001
33.4 0.02134
33.45 0.02362
33.5 0.02075
33.55 0.01367
33.6 0.0049
33.65 -0.00378
33.7 -0.00783
33.75 -0.00692
33.8 -0.00976
33.85 -0.01322
33.9 -0.01881
33.95 -0.0213
34 -0.0195
34.05 -0.0142
34.1 -0.01375
34.15 -0.01568
34.2 -0.01378
34.25 -0.01217
34.3 -0.00934
34.35 -0.00801
34.4 -0.00398
34.45 -0.0025
34.5 -0.0029
34.55 -0.00724
34.6 -0.0052
34.65 -0.00205
34.7 0.00109
34.75 0.00518
34.8 0.01095
34.85 0.01402
34.9 0.01326
34.95 0.0162
35 0.01598
35.05 0.01138
35.1 0.0061
35.15 0.00275
35.2 0.00353
35.25 0.00748
35.3 0.01137
35.35 0.01652
35.4 0.01513
35.45 0.01152
35.5 0.0066
35.55 0.00265
35.6 -0.00355
35.65 -0.00444
35.7 -0.00351
35.75 -0.00059
35.8 0.00317
35.85 0.00089
35.9 0.00072
35.95 0.00206
36 0.00292
36.05 0.00224
36.1 0.0057
36.15 0.0069
36.2 0.00384
36.25 -0.00205
36.3 -0.00991
36.35 -0.01318
36.4 -0.0145
36.45 -0.00951
36.5 -0.00544
36.55 -0.0036
36.6 -0.00563
36.65 -0.00197
36.7 -0.00073
36.75 -0.00019
36.8 -0.00347
36.85 -0.00496
36.9 -0.00257
36.95 -0.00384
37 -0.00608
37.05 -0.00765
37.1 -0.00369
37.15 -0.0026
37.2 -0.00607
37.25 -0.00697
37.3 -0.01092
37.35 -0.0134
37.4 -0.01642
37.45 -0.01241
37.5 -0.01083
37.55 -0.0128
37.6 -0.00919
37.65 -0.0047
37.7 0.00148
37.75 0.00274
37.8 0.0074
37.85 0.01423
37.9 0.01717
37.95 0.01398
38 0.01292
38.05 0.0091
38.1 0.00438
38.15 0.00235
38.2 -0.00181
38.25 -0.0031
38.3 -0.00727
38.35 -0.00511
38.4 -0.00463
38.45 -0.00514
38.5 -0.00401
38.55 -0.00191
38.6 -0.00279
38.65 -0.00749
38.7 -0.01418
38.75 -0.01844
38.8 -0.02031
38.85 -0.01703
38.9 -0.01308
38.95 -0.00942
39 -0.0036
39.05 0.00365
39.1 0.01234
39.15 0.0199
39.2 0.02657
39.25 0.02393
39.3 0.02144
39.35 0.01383
39.4 0.00859
39.45 0.00039
39.5 -0.00317
39.55 -0.00847
39.6 -0.00746
39.65 -0.00667
39.7 -0.00551
39.75 -0.00148
39.8 -0.00058
39.85 -0.00359
39.9 -0.00503
39.95 -0.00209
40 0.00156
40.05 0.00805
40.1 0.01522
40.15 0.01875
40.2 0.01792
40.25 0.01325
40.3 0.01057
40.35 0.00791
40.4 0.00412
40.45 -0.00133
40.5 -0.00207
40.55 -0.00669
40.6 -0.01225
40.65 -0.01214
40.7 -0.01031
40.75 -0.00517
40.8 -0.00277
40.85 -0.00482
40.9 -0.00972
40.95 -0.01056
41 -0.01276
41.05 -0.01656
41.1 -0.01766
41.15 -0.01258
41.2 -0.00683
41.25 -0.00097
41.3 0.00692
41.35 0.00819
41.4 0.0085
41.45 0.01207
41.5 0.01352
41.55 0.01356
41.6 0.01389
41.65 0.01669
41.7 0.01846
41.75 0.02021
41.8 0.01691
41.85 0.01172
41.9 0.00527
41.95 0.0015
42 -0.00518
42.05 -0.01014
42.1 -0.01197
42.15 -0.01037
42.2 -0.01193
42.25 -0.01491
42.3 -0.01199
42.35 -0.01343
42.4 -0.01171
42.45 -0.00782
42.5 -0.00538
42.55 -0.00324
42.6 0.00174
42.65 0.0023
42.7 0.00242
42.75 -0.00035
42.8 0.001
42.85 -0.00038
42.9 -0.00074
42.95 0.0011
43 0.00457
43.05 0.00354
43.1 -0.00135
43.15 -0.00393
43.2 -0.00591
43.25 -0.0044
43.3 -0.00622
43.35 -0.00415
43.4 -0.00423
43.45 -0.00185
43.5 0.00359
43.55 0.00363
43.6 0.00066
43.65 -0.00338
43.7 -0.01007
43.75 -0.01065
43.8 -0.01086
43.85 -0.01339
43.9 -0.01737
43.95 -0.01591
44 -0.01804
44.05 -0.02056
44.1 -0.02158
44.15 -0.01914
44.2 -0.01481
44.25 -0.01427
44.3 -0.0168
44.35 -0.01908
44.4 -0.02044
44.45 -0.02305
44.5 -0.02297
44.55 -0.01652
44.6 -0.01222
44.65 -0.00581
44.7 -0.00152
44.75 0.00559
44.8 0.01292
44.85 0.01358
44.9 0.01283
44.95 0.01096
45 0.01177
45.05 0.01519
45.1 0.01858
45.15 0.01716
45.2 0.01425
45.25 0.00915
45.3 0.00553
45.35 0.00419
45.4 0.00621
45.45 0.0062
45.5 0.00938
45.55 0.01068
45.6 0.01027
45.65 0.00823
45.7 0.01055
45.75 0.01265
45.8 0.01003
45.85 0.01054
45.9 0.00874
45.95 0.00784
46 0.00337
46.05 -0.00323
46.1 -0.00979
46.15 -0.012
46.2 -0.01038
46.25 -0.00605
46.3 -0.00161
46.35 0.00009
46.4 0.00425
46.45 0.00482
46.5 0.00021
46.55 -0.00399
46.6 -0.00539
46.65 -0.00353
46.7 0.00214
46.75 0.00642
46.8 0.00439
46.85 0.00141
46.9 -0.00019
46.95 -0.00573
47 -0.00644
47.05 -0.00648
47.1 -0.00751
47.15 -0.0047
47.2 0.00099
47.25 0.00476
47.3 0.00215
47.35 -0.00117
47.4 -0.00179
47.45 0.00045
47.5 -0.00196
47.55 -0.00071
47.6 -0.0043
47.65 -0.00819
47.7 -0.00949
47.75 -0.01389
47.8 -0.01458
47.85 -0.01423
47.9 -0.01519
47.95 -0.01108
48 -0.00868
48.05 -0.00529
48.1 -0.00191
48.15 -0.00213
48.2 0.00198
48.25 0.00177
48.3 0.00417
48.35 0.00973
48.4 0.01003
48.45 0.01131
48.5 0.01555
48.55 0.01281
48.6 0.01269
48.65 0.00743
48.7 0.00347
48.75 0.00133
48.8 -0.0008
48.85 -0.00127
48.9 -0.00089
48.95 -0.00493
49 -0.0077
49.05 -0.0057
49.1 -0.00014
49.15 0.00128
49.2 0.00519
49.25 0.00798
49.3 0.00558
49.35 0.0025
49.4 -0.00218
49.45 -0.00891
49.5 -0.01319
49.55 -0.01437
49.6 -0.01681
49.65 -0.0167
49.7 -0.01562
49.75 -0.01071
49.8 -0.00425
49.85 0.00478
49.9 0.01341
49.95 0.02131
50 0.0213
50.05 0.01724
50.1 0.01347
50.15 0.00765
50.2 0.00531
50.25 0.00382
50.3 0.00681
50.35 0.00749
50.4 0.00298
50.45 0.00296
50.5 0.00493
50.55 0.00677
50.6 0.00778
50.65 0.01101
50.7 0.01243
50.75 0.0152
50.8 0.0171
50.85 0.0161
50.9 0.01555
50.95 0.01408
51 0.01608
51.05 0.01325
51.1 0.00692
51.15 0.00433
51.2 -0.00149
51.25 -0.00266
51.3 -0.00033
51.35 0.00205
51.4 0.00554
51.45 0.009
51.5 0.01264
51.55 0.01323
51.6 0.01261
51.65 0.01343
51.7 0.01297
51.75 0.01387
51.8 0.01452
51.85 0.00939
51.9 0.00725
51.95 0.00492
52 0.00089
52.05 -0.00127
52.1 -0.00047
52.15 0.00074
52.2 -0.00244
52.25 -0.00638
52.3 -0.00481
52.35 0.00061
52.4 0.00726
52.45 0.00834
52.5 0.00669
52.55 0.00818
52.6 0.00414
52.65 -0.00094
52.7 -0.00194
52.75 -0.00438
52.8 -0.00562
52.85 -0.00351
52.9 -0.00207
52.95 -0.00095
53 -0.00115
53.05 -0.00434
53.1 -0.00247
53.15 -0.00062
53.2 0.00057
53.25 -0.0029
53.3 -0.00101
53.35 -0.00437
53.4 -0.00573
53.45 -0.00632
53.5 -0.00718
53.55 -0.00915
53.6 -0.00923
53.65 -0.01093
53.7 -0.01393
53.75 -0.01463
53.8 -0.01773
53.85 -0.02079
53.9 -0.01969
53.95 -0.01469
54 -0.00944
54.05 -0.00652
54.1 -0.00505
54.15 -0.00384
54.2 0.00008
54.25 0.00048
54.3 0.0026
54.35 0.00186
54.4 -0.00268
54.45 -0.00701
54.5 -0.00638
54.55 -0.00218
54.6 0.00017
54.65 -0.00283
54.7 -0.0039
54.75 -0.0061
54.8 -0.00605
54.85 -0.00565
54.9 -0.00542
54.95 -0.00544
55 -0.00194
55.05 0.00442
55.1 0.00846
55.15 0.00608
55.2 0.00186
55.25 0.00053
55.3 0.00108
55.35 0.0012
55.4 -0.0007
55.45 -0.00209
55.5 -0.00052
55.55 0.00476
55.6 0.00555
55.65 0.00127
55.7 0.00224
55.75 0.00403
55.8 0.00672
55.85 0.00983
55.9 0.01123
55.95 0.01243
56 0.01324
56.05 0.01107
56.1 0.0103
56.15 0.00881
56.2 0.00519
56.25 0.00108
56.3 -0.00481
56.35 -0.00879
56.4 -0.00689
56.45 -0.00501
56.5 -0.00769
56.55 -0.00907
56.6 -0.01167
56.65 -0.01533
56.7 -0.01884
56.75 -0.01522
56.8 -0.01194
56.85 -0.0089
56.9 -0.00768
56.95 -0.01012
57 -0.00989
57.05 -0.01306
57.1 -0.01398
57.15 -0.00918
57.2 -0.00435
57.25 0.00187
57.3 0.01002
57.35 0.01359
57.4 0.01137
57.45 0.00431
57.5 -0.00359
57.55 -0.00975
57.6 -0.01318
57.65 -0.01663
57.7 -0.02009
57.75 -0.02054
57.8 -0.02219
57.85 -0.02545
57.9 -0.02118
57.95 -0.01613
58 -0.00871
58.05 0.00096
58.1 0.00983
58.15 0.01053
58.2 0.00753
58.25 0.00804
58.3 0.00439
58.35 -0.00141
58.4 -0.00183
58.45 -0.00468
58.5 -0.00755
58.55 -0.00862
58.6 -0.00872
58.65 -0.00417
58.7 0.00138
58.75 0.00604
58.8 0.01103
58.85 0.00997
58.9 0.00421
58.95 0.0013
59 -0.00407
59.05 -0.00412
59.1 -0.00428
59.15 -0.00142
59.2 0.0032
59.25 0.0034
59.3 0.00078
59.35 0.0016
59.4 0.00636
59.45 0.01221
59.5 0.01662
59.55 0.02238
59.6 0.02455
59.65 0.02745
59.7 0.0286
59.75 0.03073
59.8 0.02602
59.85 0.0174
59.9 0.00967
59.95 0.00293
60 -0.00157
60.05 -0.00093
60.1 0.00127
60.15 0.00554
60.2 0.00942
60.25 0.01376
60.3 0.01289
60.35 0.01516
60.4 0.01681
60.45 0.01394
60.5 0.01059
60.55 0.01143
60.6 0.00962
60.65 0.00258
60.7 0.0005
60.75 -0.00349
60.8 -0.007
60.85 -0.0047
60.9 -0.00561
60.95 -0.01027
61 -0.00945
61.05 -0.01202
61.1 -0.00961
61.15 -0.00936
61.2 -0.00912
61.25 -0.0091
61.3 -0.00414
61.35 0.00048
61.4 -0.00005
61.45 0.00118
61.5 0.0005
61.55 0.00009
61.6 0.00168
61.65 0.00471
61.7 0.00318
61.75 0.00468
61.8 0.00418
61.85 0.00421
61.9 0.00404
61.95 -0.00069
62 -0.00072
62.05 -0.00313
62.1 -0.00377
62.15 -0.00368
62.2 -0.00173
62.25 -0.00139
62.3 -0.00165
62.35 0.00189
62.4 0.00583
62.45 0.00781
62.5 0.00932
62.55 0.00631
62.6 0.00589
62.65 0.00487
62.7 0.00767
62.75 0.00437
62.8 -0.00211
62.85 -0.00857
62.9 -0.01069
62.95 -0.01092
63 -0.01456
63.05 -0.01293
63.1 -0.00774
63.15 -0.00173
63.2 -0.00127
63.25 -0.00048
63.3 0.00381
63.35 0.00649
63.4 0.00572
63.45 0.00531
63.5 0.0062
63.55 0.00635
63.6 0.00146
63.65 -0.00261
63.7 -0.0053
63.75 -0.00661
63.8 -0.00802
63.85 -0.00981
63.9 -0.01071
63.95 -0.00833
64 -0.01114
64.05 -0.01185
64.1 -0.0158
64.15 -0.01597
64.2 -0.01712
64.25 -0.01986
64.3 -0.0248
64.35 -0.02612
64.4 -0.02155
64.45 -0.01541
64.5 -0.0133
64.55 -0.01507
64.6 -0.01547
64.65 -0.0138
64.7 -0.01345
64.75 -0.0128
64.8 -0.00777
64.85 -0.00478
64.9 -0.0025
64.95 0.0013
65 0.0008
65.05 -0.00178
65.1 -0.00176
65.15 0.00198
65.2 0.00583
65.25 0.01128
65.3 0.01499
65.35 0.0204
65.4 0.01972
65.45 0.02158
65.5 0.01949
65.55 0.02073
65.6 0.021
65.65 0.01997
65.7 0.01331
65.75 0.00432
65.8 0.00065
65.85 0.00155
65.9 0.00092
65.95 0.00273
66 0.00505
66.05 0.00815
66.1 0.00774
66.15 0.00349
66.2 -0.0026
66.25 -0.00375
66.3 -0.00197
66.35 0.00348
66.4 0.00599
66.45 0.00901
66.5 0.00701
66.55 0.00855
66.6 0.00958
66.65 0.00635
66.7 0.00438
66.75 0.00053
66.8 -0.00681
66.85 -0.01304
66.9 -0.01793
66.95 -0.02377
67 -0.02678
67.05 -0.02352
67.1 -0.0165
67.15 -0.0105
67.2 -0.0091
67.25 -0.00457
67.3 -0.00519
67.35 -0.00325
67.4 0.00119
67.45 0.00696
67.5 0.00612
67.55 0.00412
67.6 -0.00125
67.65 -0.00097
67.7 0.00078
67.75 0.00066
67.8 -0.00321
67.85 -0.00484
67.9 -0.00655
67.95 -0.01035
68 -0.01435
68.05 -0.01381
68.1 -0.01127
68.15 -0.01187
68.2 -0.01599
68.25 -0.01889
68.3 -0.01726
68.35 -0.01271
68.4 -0.00468
68.45 -0.00188
68.5 0.00104
68.55 0.00385
68.6 0.0079
68.65 0.0091
68.7 0.01285
68.75 0.01033
68.8 0.012
68.85 0.00762
68.9 0.00558
68.95 -0.00065
69 -0.00219
69.05 -0.00459
69.1 -0.00358
69.15 0.00082
69.2 0.00445
69.25 0.00675
69.3 0.01062
69.35 0.01396
69.4 0.01869
69.45 0.02297
69.5 0.01931
69.55 0.01501
69.6 0.00634
69.65 0.00186
69.7 -0.00146
69.75 -0.00797
69.8 -0.0088
69.85 -0.01057
69.9 -0.0149
69.95 -0.01991
70 -0.01822
70.05 -0.0186
70.1 -0.018
70.15 -0.01531
70.2 -0.01062
70.25 -0.00318
70.3 0.00614
70.35 0.01545
70.4 0.02077
70.45 0.02318
70.5 0.02389
70.55 0.02391
70.6 0.02215
70.65 0.02187
70.7 0.0187
70.75 0.0149
70.8 0.00658
70.85 -0.00324
70.9 -0.01111
70.95 -0.01202
71 -0.01285
71.05 -0.01565
71.1 -0.02005
71.15 -0.01771
71.2 -0.0125
71.25 -0.01294
71.3 -0.0114
71.35 -0.00987
71.4 -0.01212
71.45 -0.01505
71.5 -0.0117
71.55 -0.01322
71.6 -0.01042
71.65 -0.00754
71.7 -0.00131
71.75 -0.00017
71.8 0.00066
71.85 0.00414
71.9 0.00576
71.95 0.00553
72 0.00278
72.05 -0.00331
72.1 -0.01088
72.15 -0.01827
72.2 -0.0173
72.25 -0.01748
72.3 -0.01767
72.35 -0.01535
72.4 -0.01327
72.45 -0.01386
72.5 -0.01274
72.55 -0.01551
72.6 -0.01304
72.65 -0.01418
72.7 -0.01153
72.75 -0.00596
72.8 0.00128
72.85 0.00163
72.9 -0.00112
72.95 -0.00402
73 -0.00863
73.05 -0.00951
73.1 -0.01295
73.15 -0.01736
73.2 -0.01546
73.25 -0.0168
73.3 -0.01151
73.35 -0.00319
73.4 0.00571
73.45 0.01522
73.5 0.02127
73.55 0.02388
73.6 0.02444
73.65 0.02492
73.7 0.01899
73.75 0.01408
73.8 0.01343
73.85 0.01411
73.9 0.00929
73.95 0.00929
74 0.00458
74.05 -0.00268
74.1 -0.00326
74.15 -0.00467
74.2 -0.00402
74.25 -0.00548
74.3 -0.00915
74.35 -0.0133
74.4 -0.01721
74.45 -0.01837
74.5 -0.01816
74.55 -0.02114
74.6 -0.01969
74.65 -0.01671
74.7 -0.01243
74.75 -0.00797
74.8 -0.002
74.85 -0.00018
74.9 -0.00115
74.95 -0.00595
75 -0.00611
75.05 -0.00932
75.1 -0.01182
75.15 -0.01026
75.2 -0.00949
75.25 -0.00764
75.3 -0.00283
75.35 -0.00294
75.4 -0.00679
75.45 -0.01135
75.5 -0.0113
75.55 -0.01279
75.6 -0.01005
75.65 -0.00673
75.7 -0.00386
75.75 -0.00234
75.8 -0.00143
75.85 -0.00255
75.9 -0.00382
75.95 -0.00627
76 -0.00927
76.05 -0.00666
76.1 -0.00596
76.15 -0.00863
76.2 -0.0065
76.25 -0.00838
76.3 -0.00612
76.35 -0.00839
76.4 -0.00459
76.45 -0.00075
76.5 -0.00171
76.55 -0.00423
76.6 -0.00642
76.65 -0.00696
76.7 -0.00493
76.75 0.00089
76.8 0.00038
76.85 -0.00124
76.9 -0.00411
76.95 -0.00491
77 -0.00246
77.05 -0.00019
77.1 0.00167
77.15 0.00026
77.2 -0.00252
77.25 -0.00192
77.3 -0.00013
77.35 -0.00247
77.4 -0.00663
77.45 -0.00925
77.5 -0.01402
77.55 -0.0125
77.6 -0.01231
77.65 -0.01185
77.7 -0.0097
77.75 -0.00489
77.8 0.0019
77.85 0.01112
77.9 0.01468
77.95 0.01377
78 0.01323
78.05 0.0083
78.1 0.00032
78.15 -0.00296
78.2 -0.00254
78.25 -0.00366
78.3 -0.00755
78.35 -0.00477
78.4 0.00175
78.45 0.00264
78.5 0.00399
78.55 0.00694
78.6 0.00451
78.65 0.00684
78.7 0.0107
78.75 0.0142
78.8 0.01274
78.85 0.00844
78.9 0.00826
78.95 0.00691
79 0.00458
79.05 0.0058
79.1 0.00636
79.15 0.0071
79.2 0.01023
79.25 0.01489
79.3 0.0122
79.35 0.01363
79.4 0.01569
79.45 0.01887
79.5 0.02253
79.55 0.0271
79.6 0.03209
79.65 0.03045
79.7 0.02464
79.75 0.02246
79.8 0.02102
79.85 0.01594
79.9 0.01109
79.95 0.00373
80 -0.00409
80.05 -0.00502
80.1 -0.00857
80.15 -0.00719
80.2 -0.00822
80.25 -0.00894
80.3 -0.00534
80.35 0.00129
80.4 0.00074
80.45 0.00422
80.5 0.00391
80.55 0.00091
80.6 -0.00407
80.65 -0.00341
80.7 -0.00432
80.75 -0.00798
80.8 -0.01362
80.85 -0.01967
80.9 -0.02501
80.95 -0.03051
81 -0.0325
81.05 -0.02774
81.1 -0.02214
81.15 -0.01529
81.2 -0.01203
81.25 -0.0118
81.3 -0.00873
81.35 -0.00538
81.4 -0.00226
81.45 0.00302
81.5 0.0018
81.55 -0.0029
81.6 -0.00433
81.65 -0.00498
81.7 -0.00226
81.75 -0.00055
81.8 -0.00129
81.85 0.00083
81.9 0.00238
81.95 0.0022
82 -0.00018
82.05 -0.00199
82.1 -0.0067
82.15 -0.01025
82.2 -0.01598
82.25 -0.01407
82.3 -0.00782
82.35 -0.00234
82.4 -0.00073
82.45 0.00021
82.5 0.00516
82.55 0.01075
82.6 0.01489
82.65 0.01811
82.7 0.01479
82.75 0.00794
82.8 0.00075
82.85 -0.00155
82.9 0.00052
82.95 0.00571
83 0.00569
83.05 0.00387
83.1 0.00201
83.15 0.00233
83.2 0.00562
83.25 0.00799
83.3 0.00441
83.35 -0.00112
83.4 -0.0018
83.45 -0.00378
83.5 -0.00538
83.55 -0.00639
83.6 -0.00978
83.65 -0.01425
83.7 -0.01991
83.75 -0.01964
83.8 -0.01476
83.85 -0.00591
83.9 -0.00233
83.95 -0.0039
84 -0.00376
84.05 -0.00338
84.1 -0.00036
84.15 -0.00039
84.2 0.00359
84.25 0.00964
84.3 0.01653
84.35 0.0218
84.4 0.02561
84.45 0.02458
84.5 0.0205
84.55 0.01886
84.6 0.01352
84.65 0.00974
84.7 0.00762
84.75 0.00639
84.8 0.00876
84.85 0.00836
84.9 0.01114
84.95 0.00943
85 0.00415
85.05 0.00115
85.1 -0.00463
85.15 -0.0059
85.2 -0.00853
85.25 -0.01015
85.3 -0.0083
85.35 -0.01049
85.4 -0.01063
85.45 -0.0059
85.5 -0.00581
85.55 -0.00228
85.6 -0.00188
85.65 -0.0055
85.7 -0.00517
85.75 -0.0058
85.8 -0.00227
85.85 0.00484
85.9 0.0101
85.95 0.01168
86 0.0136
86.05 0.01605
86.1 0.01561
86.15 0.01632
86.2 0.01844
86.25 0.01767
86.3 0.01318
86.35 0.0114
86.4 0.01276
86.45 0.0087
86.5 0.00878
86.55 0.00841
86.6 0.01038
86.65 0.01208
86.7 0.01587
86.75 0.01565
86.8 0.01565
86.85 0.01099
86.9 0.00748
86.95 0.00607
87 0.00717
87.05 0.01143
87.1 0.01501
87.15 0.01533
87.2 0.00991
87.25 0.00745
87.3 0.00371
87.35 -0.00063
87.4 -0.00378
87.45 -0.00451
87.5 -0.00294
87.55 -0.00226
87.6 -0.00577
87.65 -0.01112
87.7 -0.01009
87.75 -0.0081
87.8 -0.00828
87.85 -0.01209
87.9 -0.01015
87.95 -0.01099
88 -0.00677
88.05 0.00017
88.1 0.00816
88.15 0.0168
88.2 0.01713
88.25 0.01176
88.3 0.00685
88.35 0.00567
88.4 0.00144
88.45 -0.00237
88.5 -0.00516
88.55 -0.00691
88.6 -0.00485
88.65 -0.006
88.7 -0.00258
88.75 -0.0025
88.8 -0.00164
88.85 -0.00465
88.9 -0.00859
88.95 -0.00779
89 -0.00895
89.05 -0.01377
89.1 -0.01592
89.15 -0.02008
89.2 -0.01957
89.25 -0.018
89.3 -0.01838
89.35 -0.01336
89.4 -0.01043
89.45 -0.00371
89.5 -0.00111
89.55 -0.00186
89.6 -0.00253
89.65 -0.00588
89.7 -0.00315
89.75 0.00166
89.8 0.00807
89.85 0.01482
89.9 0.01398
89.95 0.01181
90 0.01288
90.05 0.01194
90.1 0.01
90.15 0.00589
90.2 0.00326
90.25 0.00125
90.3 -0.0016
90.35 -0.0075
90.4 -0.01207
90.45 -0.01098
90.5 -0.01267
90.55 -0.01171
90.6 -0.00792
90.65 -0.00468
90.7 -0.0042
90.75 -0.00294
90.8 -0.00455
90.85 -0.0091
90.9 -0.00932
90.95 -0.0121
91 -0.01651
91.05 -0.01733
91.1 -0.01344
91.15 -0.00881
91.2 -0.00438
91.25 0.00042
91.3 0.00493
91.35 0.00667
91.4 0.0093
91.45 0.01367
91.5 0.01731
91.55 0.01426
91.6 0.01367
91.65 0.0159
91.7 0.0182
91.75 0.01706
91.8 0.01273
91.85 0.00975
91.9 0.0074
91.95 0.00968
92 0.01261
92.05 0.01217
92.1 0.00819
92.15 0.00424
92.2 -0.00159
92.25 -0.00198
92.3 0.00171
92.35 0.00274
92.4 0.00642
92.45 0.00839
92.5 0.00798
92.55 0.00792
92.6 0.00264
92.65 -0.00503
92.7 -0.01221
92.75 -0.01841
92.8 -0.018
92.85 -0.01658
92.9 -0.01793
92.95 -0.01867
93 -0.01898
93.05 -0.01935
93.1 -0.01375
93.15 -0.01338
93.2 -0.01638
93.25 -0.01878
93.3 -0.01578
93.35 -0.0141
93.4 -0.01592
93.45 -0.01523
93.5 -0.01541
93.55 -0.01051
93.6 -0.00637
93.65 -0.00256
93.7 0.00172
93.75 0.00234
93.8 0.00443
93.85 0.00115
93.9 -0.00197
93.95 -0.00796
94 -0.00789
94.05 -0.00473
94.1 0.00035
94.15 0.00013
94.2 -0.00121
94.25 -0.00333
94.3 -0.00214
94.35 0.0032
94.4 0.00329
94.45 0.00563
94.5 0.00463
94.55 0.00437
94.6 0.00179
94.65 0.00146
94.7 0.00067
94.75 -0.00437
94.8 -0.01048
94.85 -0.01112
94.9 -0.01451
94.95 -0.0108
95 -0.00404
95.05 -0.00105
95.1 -0.00125
95.15 0.00055
95.2 -0.00183
95.25 0.001
95.3 0.00219
95.35 0.00149
95.4 -0.00071
95.45 0.00171
95.5 0.00589
95.55 0.00638
95.6 0.00386
95.65 0.00008
95.7 0.00031
95.75 0.00009
95.8 0.00068
95.85 -0.00228
95.9 -0.00662
95.95 -0.00698
96 -0.0096
96.05 -0.00627
96.1 -0.00684
96.15 -0.00351
96.2 -0.00088
96.25 0.00152
96.3 0.00142
96.35 0.00443
96.4 0.00534
96.45 0.00951
96.5 0.01079
96.55 0.01406
96.6 0.01658
96.65 0.01815
96.7 0.02132
96.75 0.01738
96.8 0.01626
96.85 0.0155
96.9 0.01189
96.95 0.00569
97 0.00247
97.05 0.0031
97.1 0.00384
97.15 0.00742
97.2 0.00745
97.25 0.01124
97.3 0.01073
97.35 0.00865
97.4 0.00399
97.45 0.00252
97.5 0.00326
97.55 0.00471
97.6 0.00496
97.65 0.00097
97.7 -0.001
97.75 -0.00225
97.8 0.00052
97.85 0.00054
97.9 -0.00259
97.95 -0.00273
98 0.00073
98.05 0.00093
98.1 0.00001
98.15 0.00007
98.2 0.00357
98.25 0.00272
98.3 0.0028
98.35 0.00197
98.4 0.00207
98.45 0.00117
98.5 -0.00239
98.55 -0.00883
98.6 -0.01214
98.65 -0.01192
98.7 -0.00658
98.75 -0.00696
98.8 -0.00335
98.85 0.00212
98.9 0.00786
98.95 0.0061
99 0.00022
99.05 -0.00338
99.1 -0.00709
99.15 -0.01297
99.2 -0.01489
99.25 -0.01268
99.3 -0.01293
99.35 -0.01095
99.4 -0.01077
99.45 -0.01043
99.5 -0.01332
99.55 -0.01395
99.6 -0.01616
99.65 -0.01481
99.7 -0.01435
99.75 -0.0097
99.8 -0.00945
99.85 -0.01273
99.9 -0.01736
99.95 -0.02059
