0 0
0.05 0.0005
0.1 0.00682
0.15 0.01426
0.2 0.02002
0.25 0.02574
0.3 0.03101
0.35 0.0336
0.4 0.03444
0.45 0.035
0.5 0.04104
0.55 0.0467
0.6 0.05222
0.65 0.05797
0.7 0.05698
0.75 0.05817
0.8 0.05692
0.85 0.0508
0.9 0.04745
0.95 0.04221
1 0.03515
1.05 0.03315
1.1 0.02965
1.15 0.02521
1.2 0.02257
1.25 0.02547
1.3 0.02978
1.35 0.0301
1.4 0.03214
1.45 0.03481
1.5 0.03872
1.55 0.04449
1.6 0.04943
1.65 0.04871
1.7 0.04937
1.75 0.04718
1.8 0.04173
1.85 0.03352
1.9 0.02429
1.95 0.02237
2 0.02345
2.05 0.02705
2.1 0.02953
2.15 0.03402
2.2 0.04056
2.25 0.04184
2.3 0.04447
2.35 0.04651
2.4 0.0443
2.45 0.03732
2.5 0.03072
2.55 0.02821
2.6 0.02914
2.65 0.02856
2.7 0.02685
2.75 0.02167
2.8 0.01858
2.85 0.01266
2.9 0.00737
2.95 0.00782
3 0.00696
3.05 0.0074
3.1 0.01341
3.15 0.01577
3.2 0.02214
3.25 0.02821
3.3 0.03498
3.35 0.04236
3.4 0.04933
3.45 0.05409
3.5 0.05626
3.55 0.0552
3.6 0.04892
3.65 0.04053
3.7 0.03402
3.75 0.02404
3.8 0.01373
3.85 0.00311
3.9 -0.00686
3.95 -0.01031
4 -0.01281
4.05 -0.00959
4.1 -0.00922
4.15 -0.01023
4.2 -0.00875
4.25 -0.00439
4.3 0.00177
4.35 0.00468
4.4 0.00185
4.45 -0.00286
4.5 -0.00887
4.55 -0.01463
4.6 -0.02294
4.65 -0.03244
4.7 -0.04434
4.75 -0.06393
4.8 -0.08877
4.85 -0.11879
4.9 -0.15285
4.95 -0.18711
5 -0.22461
5.05 -0.26798
5.1 -0.31489
5.15 -0.36899
5.2 -0.43151
5.25 -0.4975
5.3 -0.56905
5.35 -0.651
5.4 -0.73739
5.45 -0.83221
5.5 -0.93209
5.55 -1.03748
5.6 -1.14216
5.65 -1.24897
5.7 -1.34965
5.75 -1.45011
5.8 -1.54817
5.85 -1.64374
5.9 -1.73574
5.95 -1.81785
6 -1.89727
6.05 -1.97179
6.1 -2.04816
6.15 -2.12074
6.2 -2.19084
6.25 -2.25587
6.3 -2.3131
6.35 -2.36646
6.4 -2.41204
6.45 -2.44877
6.5 -2.47641
6.55 -2.49848
6.6 -2.50868
6.65 -2.50964
6.7 -2.49922
6.75 -2.47672
6.8 -2.43753
6.85 -2.38863
6.9 -2.32498
6.95 -2.24347
7 -2.14412
7.05 -2.0324
7.1 -1.90734
7.15 -1.76128
7.2 -1.59588
7.25 -1.41551
7.3 -1.22898
7.35 -1.03158
7.4 -0.82738
7.45 -0.62254
7.5 -0.42011
7.55 -0.21298
7.6 -0.00488
7.65 0.19904
7.7 0.39904
7.75 0.59015
7.8 0.76864
7.85 0.93687
7.9 1.09825
7.95 1.24806
8 1.38201
8.05 1.50986
8.1 1.62371
8.15 1.72973
8.2 1.82183
8.25 1.89963
8.3 1.96892
8.35 2.03165
8.4 2.08325
8.45 2.12696
8.5 2.16387
8.55 2.19048
8.6 2.20953
8.65 2.21828
8.7 2.22062
8.75 2.22348
8.8 2.22054
8.85 2.21224
8.9 2.20237
8.95 2.19652
9 2.18725
9.05 2.17839
9.1 2.16286
9.15 2.15113
9.2 2.1328
9.25 2.11876
9.3 2.09929
9.35 2.07506
9.4 2.04718
9.45 2.01689
9.5 1.98547
9.55 1.95369
9.6 1.92847
9.65 1.90359
9.7 1.88331
9.75 1.86056
9.8 1.8387
9.85 1.81198
9.9 1.78538
9.95 1.75129
10 1.71624
10.05 1.68059
10.1 1.64622
10.15 1.60844
10.2 1.56447
10.25 1.5164
10.3 1.46989
10.35 1.42157
10.4 1.37234
10.45 1.32751
10.5 1.28533
10.55 1.24114
10.6 1.19538
10.65 1.15162
10.7 1.10933
10.75 1.06236
10.8 1.01605
10.85 0.97024
10.9 0.92617
10.95 0.87517
11 0.82474
11.05 0.77444
11.1 0.72104
11.15 0.66958
11.2 0.62478
11.25 0.58405
11.3 0.54245
11.35 0.50554
11.4 0.46883
11.45 0.42958
11.5 0.38879
11.55 0.35048
11.6 0.31516
11.65 0.27722
11.7 0.24326
11.75 0.21189
11.8 0.18058
11.85 0.15167
11.9 0.11942
11.95 0.08843
12 0.05432
12.05 0.02612
12.1 -0.00566
12.15 -0.03986
12.2 -0.07366
12.25 -0.10473
12.3 -0.13334
12.35 -0.15286
12.4 -0.16796
12.45 -0.18753
12.5 -0.20744
12.55 -0.22567
12.6 -0.24576
12.65 -0.25755
12.7 -0.2672
12.75 -0.27729
12.8 -0.28887
12.85 -0.29684
12.9 -0.30404
12.95 -0.31553
13 -0.32099
13.05 -0.32255
13.1 -0.32854
13.15 -0.33252
13.2 -0.33641
13.25 -0.34231
13.3 -0.34942
13.35 -0.35644
13.4 -0.3612
13.45 -0.36284
13.5 -0.36432
13.55 -0.36218
13.6 -0.35913
13.65 -0.35923
13.7 -0.35835
13.75 -0.35809
13.8 -0.3567
13.85 -0.35301
13.9 -0.35043
13.95 -0.35175
14 -0.35717
14.05 -0.35992
14.1 -0.36178
14.15 -0.36369
14.2 -0.36199
14.25 -0.36234
14.3 -0.36285
14.35 -0.36164
14.4 -0.35535
14.45 -0.3528
14.5 -0.3522
14.55 -0.34726
14.6 -0.34156
14.65 -0.34078
14.7 -0.33489
14.75 -0.32931
14.8 -0.32309
14.85 -0.32203
14.9 -0.31916
14.95 -0.31846
15 -0.31258
15.05 -0.3052
15.1 -0.29532
15.15 -0.28796
15.2 -0.28717
15.25 -0.28715
15.3 -0.29
15.35 -0.28667
15.4 -0.2871
15.45 -0.28821
15.5 -0.28564
15.55 -0.27743
15.6 -0.26702
15.65 -0.25441
15.7 -0.242
15.75 -0.23551
15.8 -0.2299
15.85 -0.22906
15.9 -0.22753
15.95 -0.2283
16 -0.23225
16.05 -0.23684
16.1 -0.23913
16.15 -0.24253
16.2 -0.24282
16.25 -0.24301
16.3 -0.2413
16.35 -0.23193
16.4 -0.22624
16.45 -0.22388
16.5 -0.22085
16.55 -0.21933
16.6 -0.21146
16.65 -0.20438
16.7 -0.19885
16.75 -0.18848
16.8 -0.17753
16.85 -0.17053
16.9 -0.16892
16.95 -0.17079
17 -0.17251
17.05 -0.16909
17.1 -0.16201
17.15 -0.15725
17.2 -0.15544
17.25 -0.15064
17.3 -0.14877
17.35 -0.15018
17.4 -0.15181
17.45 -0.14917
17.5 -0.14512
17.55 -0.13708
17.6 -0.1269
17.65 -0.12178
17.7 -0.11954
17.75 -0.11404
17.8 -0.11374
17.85 -0.11669
17.9 -0.11747
17.95 -0.12243
18 -0.12873
18.05 -0.13141
18.1 -0.13608
18.15 -0.13524
18.2 -0.13384
18.25 -0.13518
18.3 -0.12898
18.35 -0.12701
18.4 -0.1224
18.45 -0.11842
18.5 -0.111
18.55 -0.10158
18.6 -0.09889
18.65 -0.09215
18.7 -0.08613
18.75 -0.07816
18.8 -0.07459
18.85 -0.07653
18.9 -0.08025
18.95 -0.08654
19 -0.08978
19.05 -0.0921
19.1 -0.09338
19.15 -0.09516
19.2 -0.09733
19.25 -0.09332
19.3 -0.09127
19.35 -0.08799
19.4 -0.08853
19.45 -0.08425
19.5 -0.08349
19.55 -0.07806
19.6 -0.07203
19.65 -0.07146
19.7 -0.07026
19.75 -0.06563
19.8 -0.0647
19.85 -0.05941
19.9 -0.05787
19.95 -0.05463
20 -0.05679
20.05 -0.06188
20.1 -0.06774
20.15 -0.0713
20.2 -0.06862
20.25 -0.06572
20.3 -0.06353
20.35 -0.05687
20.4 -0.05436
20.45 -0.05148
20.5 -0.05106
20.55 -0.04629
20.6 -0.04027
20.65 -0.03569
20.7 -0.03545
20.75 -0.04078
20.8 -0.04324
20.85 -0.04728
20.9 -0.04543
20.95 -0.0451
21 -0.04387
21.05 -0.04364
21.1 -0.04563
21.15 -0.04229
21.2 -0.03894
21.25 -0.0407
21.3 -0.04049
21.35 -0.0433
21.4 -0.04841
21.45 -0.05231
21.5 -0.05265
21.55 -0.05548
21.6 -0.05348
21.65 -0.05243
21.7 -0.04734
21.75 -0.04105
21.8 -0.04005
21.85 -0.04272
21.9 -0.04055
21.95 -0.03935
22 -0.04045
22.05 -0.04227
22.1 -0.04016
22.15 -0.03533
22.2 -0.03383
22.25 -0.02918
22.3 -0.02951
22.35 -0.03062
22.4 -0.03564
22.45 -0.04019
22.5 -0.03769
22.55 -0.03466
22.6 -0.03222
22.65 -0.02562
22.7 -0.01784
22.75 -0.01331
22.8 -0.01488
22.85 -0.02124
22.9 -0.02685
22.95 -0.02591
23 -0.02711
23.05 -0.02312
23.1 -0.02079
23.15 -0.01961
23.2 -0.0219
23.25 -0.0272
23.3 -0.02602
23.35 -0.02468
23.4 -0.02289
23.45 -0.02244
23.5 -0.02027
23.55 -0.01962
23.6 -0.01912
23.65 -0.01443
23.7 -0.00815
23.75 -0.00218
23.8 0.00037
23.85 -0.00296
23.9 -0.00763
23.95 -0.01406
24 -0.01724
24.05 -0.01532
24.1 -0.01311
24.15 -0.01578
24.2 -0.01579
24.25 -0.01335
24.3 -0.01628
24.35 -0.0136
24.4 -0.00918
24.45 -0.00961
24.5 -0.00828
24.55 -0.00395
24.6 0.00103
24.65 0.0014
24.7 0.0042
24.75 0.00006
24.8 -0.00361
24.85 -0.00823
24.9 -0.01409
24.95 -0.01523
25 -0.01504
25.05 -0.01341
25.1 -0.01519
25.15 -0.01995
25.2 -0.01949
25.25 -0.01912
25.3 -0.01754
25.35 -0.01374
25.4 -0.01367
25.45 -0.011
25.5 -0.00688
25.55 -0.00346
25.6 -0.00199
25.65 -0.00086
25.7 0.0029
25.75 0.00206
25.8 -0.00154
25.85 -0.00393
25.9 -0.00349
25.95 -0.00472
26 -0.00861
26.05 -0.01503
26.1 -0.01449
26.15 -0.01673
26.2 -0.01762
26.25 -0.01809
26.3 -0.01769
26.35 -0.01526
26.4 -0.00934
26.45 -0.00249
26.5 0.00056
26.55 0.00039
26.6 -0.00149
26.65 -0.00525
26.7 -0.00775
26.75 -0.0087
26.8 -0.01081
26.85 -0.01438
26.9 -0.01425
26.95 -0.01581
27 -0.01411
27.05 -0.01044
27.1 -0.01016
27.15 -0.00572
27.2 -0.00331
27.25 -0.00156
27.3 -0.00216
27.35 -0.00044
27.4 -0.00228
27.45 -0.00854
27.5 -0.01497
27.55 -0.02227
27.6 -0.02819
27.65 -0.03243
27.7 -0.03216
27.75 -0.03357
27.8 -0.02935
27.85 -0.02099
27.9 -0.01282
27.95 -0.00619
28 -0.00159
28.05 -0.00367
28.1 -0.0039
28.15 -0.00085
28.2 0.00083
28.25 0.00555
28.3 0.00643
28.35 0.00432
28.4 0.00551
28.45 0.00431
28.5 -0.00134
28.55 -0.00439
28.6 -0.00497
28.65 -0.00617
28.7 -0.00416
28.75 -0.00106
28.8 0.00296
28.85 0.00529
28.9 0.00309
28.95 -0.00231
29 -0.00514
29.05 -0.01147
29.1 -0.01087
29.15 -0.01033
29.2 -0.00624
29.25 0.00069
29.3 0.00891
29.35 0.01499
29.4 0.01782
29.45 0.01654
29.5 0.01367
29.55 0.00602
29.6 0.00059
29.65 -0.00487
29.7 -0.01047
29.75 -0.01154
29.8 -0.01128
29.85 -0.00925
29.9 -0.01205
29.95 -0.01254
30 -0.01515
30.05 -0.0152
30.1 -0.01418
30.15 -0.01273
30.2 -0.01385
30.25 -0.01205
30.3 -0.00804
30.35 -0.00872
30.4 -0.00742
30.45 -0.00375
30.5 0.0015
30.55 0.00544
30.6 0.01001
30.65 0.01481
30.7 0.01648
30.75 0.01464
30.8 0.01093
30.85 0.01132
30.9 0.00655
30.95 0.00159
31 -0.00042
31.05 -0.00405
31.1 -0.00633
31.15 -0.00923
31.2 -0.00961
31.25 -0.01325
31.3 -0.01754
31.35 -0.01677
31.4 -0.01702
31.45 -0.01749
31.5 -0.01541
31.55 -0.0147
31.6 -0.00966
31.65 -0.00499
31.7 -0.00229
31.75 0.00008
31.8 0.00048
31.85 -0.00228
31.9 -0.00468
31.95 -0.005
32 -0.0046
32.05 -0.0077
32.1 -0.00886
32.15 -0.01214
32.2 -0.01304
32.25 -0.01675
32.3 -0.01785
32.35 -0.01788
32.4 -0.01477
32.45 -0.01249
32.5 -0.0089
32.55 -0.00546
32.6 0.00152
32.65 0.00724
32.7 0.006
32.75 0.00008
32.8 -0.0039
32.85 -0.00237
32.9 0.00284
32.95 0.00738
33 0.01405
33.05 0.01793
33.1 0.01989
33.15 0.01693
33.2 0.01093
33.25 0.00982
33.3 0.00656
33.35 0.00503
33.4 0.00567
33.45 0.00939
33.5 0.01498
33.55 0.01941
33.6 0.01781
33.65 0.01575
33.7 0.01299
33.75 0.0121
33.8 0.00974
33.85 0.01146
33.9 0.01034
33.95 0.0101
34 0.01032
34.05 0.0074
34.1 0.00058
34.15 -0.00132
34.2 -0.00262
34.25 -0.00513
34.3 -0.00689
34.35 -0.00869
34.4 -0.00655
34.45 -0.00939
34.5 -0.01248
34.55 -0.01823
34.6 -0.01824
34.65 -0.01637
34.7 -0.01437
34.75 -0.0166
34.8 -0.01889
34.85 -0.0187
34.9 -0.01604
34.95 -0.01385
35 -0.00717
35.05 0.00146
35.1 0.0037
35.15 0.00319
35.2 0.00072
35.25 0.00292
35.3 0.00801
35.35 0.01314
35.4 0.01421
35.45 0.01033
35.5 0.00351
35.55 -0.00019
35.6 -0.00536
35.65 -0.00575
35.7 -0.00687
35.75 -0.00907
35.8 -0.01409
35.85 -0.01762
35.9 -0.01417
35.95 -0.01216
36 -0.01128
36.05 -0.00965
36.1 -0.01034
36.15 -0.01155
36.2 -0.01117
36.25 -0.01254
36.3 -0.01084
36.35 -0.00481
36.4 -0.00105
36.45 -0.00139
36.5 0.00255
36.55 0.00582
36.6 0.00468
36.65 0.00243
36.7 -0.00337
36.75 -0.00451
36.8 -0.00942
36.85 -0.00987
36.9 -0.00936
36.95 -0.0124
37 -0.01007
37.05 -0.00916
37.1 -0.00682
37.15 -0.00693
37.2 -0.00948
37.25 -0.01493
37.3 -0.01563
37.35 -0.017
37.4 -0.01479
37.45 -0.01095
37.5 -0.0084
37.55 -0.0085
37.6 -0.00955
37.65 -0.0054
37.7 0.00087
37.75 0.00526
37.8 0.01185
37.85 0.01837
37.9 0.02532
37.95 0.029
38 0.02545
38.05 0.02315
38.1 0.01879
38.15 0.01853
38.2 0.0151
38.25 0.01522
38.3 0.01072
38.35 0.00739
38.4 0.00109
38.45 -0.00447
38.5 -0.0119
38.55 -0.01552
38.6 -0.01694
38.65 -0.01633
38.7 -0.01462
38.75 -0.01116
38.8 -0.00674
38.85 -0.00753
38.9 -0.01016
38.95 -0.00804
39 -0.0028
39.05 0.00366
39.1 0.00741
39.15 0.00477
39.2 0.00612
39.25 0.01062
39.3 0.01434
39.35 0.01599
39.4 0.01749
39.45 0.01864
39.5 0.02052
39.55 0.017
39.6 0.01368
39.65 0.01124
39.7 0.00647
39.75 0.00505
39.8 0.00291
39.85 -0.00337
39.9 -0.00751
39.95 -0.01039
40 -0.01337
40.05 -0.01253
40.1 -0.01021
40.15 -0.00551
40.2 -0.00603
40.25 -0.00841
40.3 -0.00949
40.35 -0.01035
40.4 -0.00892
40.45 -0.00892
40.5 -0.00588
40.55 -0.00657
40.6 -0.00539
40.65 -0.00368
40.7 -0.00439
40.75 -0.00864
40.8 -0.01302
40.85 -0.01291
40.9 -0.01142
40.95 -0.01189
41 -0.0152
41.05 -0.02038
41.1 -0.02523
41.15 -0.02723
41.2 -0.02954
41.25 -0.02421
41.3 -0.01488
41.35 -0.0063
41.4 0.00303
41.45 0.00467
41.5 0.00535
41.55 0.00268
41.6 0.00112
41.65 0.00133
41.7 0.00148
41.75 0.00141
41.8 0.00473
41.85 0.00447
41.9 0.00418
41.95 0.00733
42 0.01128
42.05 0.01706
42.1 0.01504
42.15 0.0157
42.2 0.01081
42.25 0.01
42.3 0.01084
42.35 0.011
42.4 0.01156
42.45 0.01422
42.5 0.01899
42.55 0.02049
42.6 0.02096
42.65 0.01784
42.7 0.01273
42.75 0.00623
42.8 0.00382
42.85 0.00254
42.9 0.00424
42.95 0.00413
43 -0.00038
43.05 -0.00753
43.1 -0.01249
43.15 -0.01703
43.2 -0.01545
43.25 -0.0176
43.3 -0.0141
43.35 -0.0141
43.4 -0.01198
43.45 -0.0104
43.5 -0.00924
43.55 -0.0113
43.6 -0.01273
43.65 -0.0125
43.7 -0.01185
43.75 -0.01268
43.8 -0.00769
43.85 -0.00266
43.9 0.00268
43.95 0.0079
44 0.01278
44.05 0.01315
44.1 0.01292
44.15 0.01384
44.2 0.01245
44.25 0.01292
44.3 0.01155
44.35 0.00538
44.4 0.00146
44.45 -0.00214
44.5 -0.00824
44.55 -0.01238
44.6 -0.01651
44.65 -0.02094
44.7 -0.01965
44.75 -0.0204
44.8 -0.01985
44.85 -0.02217
44.9 -0.02292
44.95 -0.0245
45 -0.02298
45.05 -0.01866
45.1 -0.01089
45.15 -0.00613
45.2 0.0011
45.25 0.00247
45.3 0.00009
45.35 0.00011
45.4 0.00407
45.45 0.00953
45.5 0.0086
45.55 0.01137
45.6 0.00972
45.65 0.00342
45.7 -0.00308
45.75 -0.0079
45.8 -0.01462
45.85 -0.01384
45.9 -0.01049
45.95 -0.00316
46 0.00467
46.05 0.00537
46.1 0.00091
46.15 0.00031
46.2 0.00076
46.25 -0.00254
46.3 -0.00733
46.35 -0.00978
46.4 -0.00812
46.45 -0.00762
46.5 -0.01074
46.55 -0.01557
46.6 -0.02081
46.65 -0.02347
46.7 -0.02499
46.75 -0.02112
46.8 -0.01929
46.85 -0.014
46.9 -0.01075
46.95 -0.01151
47 -0.01236
47.05 -0.01182
47.1 -0.0123
47.15 -0.01361
47.2 -0.01088
47.25 -0.00408
47.3 0.00362
47.35 0.01263
47.4 0.01551
47.45 0.01804
47.5 0.01484
47.55 0.01404
47.6 0.00897
47.65 0.00828
47.7 0.01193
47.75 0.01067
47.8 0.00823
47.85 0.01079
47.9 0.01083
47.95 0.01438
48 0.01186
48.05 0.00551
48.1 0.00212
48.15 -0.00395
48.2 -0.0104
48.25 -0.01716
48.3 -0.02082
48.35 -0.02342
48.4 -0.02074
48.45 -0.01762
48.5 -0.01268
48.55 -0.00599
48.6 -0.00503
48.65 0.00084
48.7 0.00661
48.75 0.00652
48.8 0.00986
48.85 0.01059
48.9 0.01205
48.95 0.00771
49 0.00851
49.05 0.00998
49.1 0.01224
49.15 0.0089
49.2 0.00917
49.25 0.0101
49.3 0.01146
49.35 0.00798
49.4 0.00101
49.45 -0.00477
49.5 -0.00649
49.55 -0.0041
49.6 -0.00347
49.65 -0.0022
49.7 0.00203
49.75 0.00746
49.8 0.00953
49.85 0.0084
49.9 0.0091
49.95 0.01118
50 0.00929
50.05 0.00656
50.1 0.00901
50.15 0.01143
50.2 0.00841
50.25 0.0017
50.3 0.00136
50.35 0.00076
50.4 0.00337
50.45 0.00826
50.5 0.00778
50.55 0.00927
50.6 0.01182
50.65 0.01214
50.7 0.01171
50.75 0.01011
50.8 0.01082
50.85 0.01164
50.9 0.00899
50.95 0.00758
51 0.00445
51.05 0.00107
51.1 -0.00506
51.15 -0.00988
51.2 -0.00794
51.25 -0.0053
51.3 -0.00477
51.35 -0.00558
51.4 -0.00127
51.45 0.00138
51.5 0.00263
51.55 0.0037
51.6 0.00249
51.65 0.0046
51.7 0.0071
51.75 0.00749
51.8 0.00709
51.85 0.00488
51.9 0.0051
51.95 0.00748
52 0.00948
52.05 0.00941
52.1 0.01039
52.15 0.01036
52.2 0.01193
52.25 0.01223
52.3 0.00892
52.35 0.0035
52.4 -0.00307
52.45 -0.00558
52.5 -0.00832
52.55 -0.01374
52.6 -0.01964
52.65 -0.02062
52.7 -0.01811
52.75 -0.01068
52.8 -0.00813
52.85 -0.00181
52.9 0.0017
52.95 0.00388
53 0.00407
53.05 0.00388
53.1 0.00492
53.15 0.00147
53.2 0.00283
53.25 0.00076
53.3 -0.00137
53.35 -0.00416
53.4 -0.00462
53.45 -0.00124
53.5 0.00086
53.55 0.00469
53.6 0.00527
53.65 0.00181
53.7 -0.00225
53.75 -0.00221
53.8 0.00091
53.85 -0.00074
53.9 0.00093
53.95 0.00525
54 0.01113
54.05 0.01108
54.1 0.01047
54.15 0.01073
54.2 0.00639
54.25 0.00347
54.3 -0.00205
54.35 -0.00937
54.4 -0.0125
54.45 -0.00939
54.5 -0.00759
54.55 -0.00673
54.6 -0.00325
54.65 -0.00325
54.7 -0.00343
54.75 -0.00043
54.8 0.00594
54.85 0.01217
54.9 0.0113
54.95 0.01098
55 0.01
55.05 0.00504
55.1 0.00528
55.15 0.0092
55.2 0.00647
55.25 0.00043
55.3 -0.00262
55.35 -0.00809
55.4 -0.01312
55.45 -0.01624
55.5 -0.01767
55.55 -0.01707
55.6 -0.0141
55.65 -0.01131
55.7 -0.00549
55.75 0.00038
55.8 -0.00051
55.85 0.00103
55.9 0.00113
55.95 0.0017
56 0.00492
56.05 0.00648
56.1 0.01068
56.15 0.00871
56.2 0.00225
56.25 -0.00332
56.3 -0.00427
56.35 -0.00664
56.4 -0.00474
56.45 -0.00419
56.5 -0.00483
56.55 -0.00753
56.6 -0.00552
56.65 -0.00792
56.7 -0.00452
56.75 0.00036
56.8 0.0002
56.85 -0.00216
56.9 -0.00141
56.95 0.00229
57 0.0009
57.05 -0.00403
57.1 -0.00293
57.15 0.00103
57.2 0.00722
57.25 0.01384
57.3 0.02005
57.35 0.02103
57.4 0.02222
57.45 0.01704
57.5 0.00762
57.55 0.00008
57.6 -0.00401
57.65 -0.00909
57.7 -0.00977
57.75 -0.00746
57.8 -0.00321
57.85 -0.00031
57.9 -0.00249
57.95 -0.00172
58 -0.00479
58.05 -0.0079
58.1 -0.00735
58.15 -0.00771
58.2 -0.00678
58.25 -0.00369
58.3 0.0025
58.35 0.00751
58.4 0.00713
58.45 0.00205
58.5 0.00099
58.55 0.00011
58.6 -0.00303
58.65 -0.00928
58.7 -0.0165
58.75 -0.02424
58.8 -0.02401
58.85 -0.02192
58.9 -0.01866
58.95 -0.01448
59 -0.01288
59.05 -0.01171
59.1 -0.00638
59.15 -0.00213
59.2 0.00426
59.25 0.01167
59.3 0.01621
59.35 0.01966
59.4 0.02479
59.45 0.02648
59.5 0.02673
59.55 0.02602
59.6 0.0249
59.65 0.02466
59.7 0.02459
59.75 0.02609
59.8 0.02358
59.85 0.02053
59.9 0.02098
59.95 0.02153
60 0.02005
60.05 0.01767
60.1 0.01223
60.15 0.01007
60.2 0.01102
60.25 0.00846
60.3 0.00474
60.35 -0.00196
60.4 -0.00796
60.45 -0.01469
60.5 -0.01384
60.55 -0.01383
60.6 -0.01693
60.65 -0.02095
60.7 -0.02186
60.75 -0.01742
60.8 -0.01367
60.85 -0.01294
60.9 -0.01094
60.95 -0.01077
61 -0.01044
61.05 -0.01156
61.1 -0.00871
61.15 -0.00363
61.2 -0.00345
61.25 -0.0061
61.3 -0.00573
61.35 -0.00522
61.4 -0.00826
61.45 -0.006
61.5 -0.00229
61.55 -0.00001
61.6 0.00204
61.65 0.00591
61.7 0.00439
61.75 0.0051
61.8 0.00533
61.85 0.00365
61.9 -0.00117
61.95 -0.00346
62 -0.00404
62.05 -0.0051
62.1 -0.00379
62.15 -0.00625
62.2 -0.00575
62.25 -0.00448
62.3 -0.00636
62.35 -0.00384
62.4 0.00027
62.45 0.00471
62.5 0.00624
62.55 0.0057
62.6 0.00802
62.65 0.00583
62.7 0.00387
62.75 0.00003
62.8 -0.00562
62.85 -0.01302
62.9 -0.02037
62.95 -0.02616
63 -0.02891
63.05 -0.02969
63.1 -0.03082
63.15 -0.0279
63.2 -0.02704
63.25 -0.02576
63.3 -0.0216
63.35 -0.0211
63.4 -0.01545
63.45 -0.01004
63.5 -0.00545
63.55 -0.00579
63.6 -0.00379
63.65 0.00225
63.7 0.00962
63.75 0.01485
63.8 0.01853
63.85 0.0221
63.9 0.02222
63.95 0.02413
64 0.02432
64.05 0.02577
64.1 0.02207
64.15 0.01777
64.2 0.01483
64.25 0.01264
64.3 0.00827
64.35 0.00032
64.4 -0.00448
64.45 -0.00302
64.5 -0.00656
64.55 -0.00946
64.6 -0.00938
64.65 -0.01327
64.7 -0.01057
64.75 -0.00854
64.8 -0.01115
64.85 -0.00767
64.9 -0.00318
64.95 0.00296
65 0.00232
65.05 0.00382
65.1 0.00111
65.15 -0.00085
65.2 -0.00151
65.25 -0.00349
65.3 -0.00801
65.35 -0.00981
65.4 -0.01148
65.45 -0.01129
65.5 -0.01437
65.55 -0.01695
65.6 -0.01514
65.65 -0.01154
65.7 -0.00836
65.75 -0.00156
65.8 0.00611
65.85 0.00604
65.9 0.00417
65.95 0.00262
66 0.00522
66.05 0.00921
66.1 0.01549
66.15 0.01999
66.2 0.01977
66.25 0.01707
66.3 0.01509
66.35 0.01102
66.4 0.01103
66.45 0.01408
66.5 0.01548
66.55 0.01366
66.6 0.00881
66.65 0.004
66.7 0.0034
66.75 0.00041
66.8 -0.00384
66.85 -0.00498
66.9 -0.00817
66.95 -0.013
67 -0.013
67.05 -0.00907
67.1 -0.00279
67.15 0.00053
67.2 -0.00156
67.25 -0.00656
67.3 -0.01227
67.35 -0.01475
67.4 -0.01759
67.45 -0.01629
67.5 -0.01119
67.55 -0.0068
67.6 -0.00341
67.65 -0.00294
67.7 0.00079
67.75 0.00314
67.8 0.00421
67.85 0.00047
67.9 -0.00229
67.95 -0.00435
68 -0.00549
68.05 -0.00833
68.1 -0.00765
68.15 -0.00784
68.2 -0.0078
68.25 -0.00389
68.3 -0.00121
68.35 0.00508
68.4 0.00671
68.45 0.01101
68.5 0.01142
68.55 0.00837
68.6 0.00494
68.65 -0.0019
68.7 -0.00911
68.75 -0.00866
68.8 -0.00603
68.85 -0.00406
68.9 -0.00424
68.95 -0.00647
69 -0.00485
69.05 -0.00345
69.1 -0.00236
69.15 -0.00049
69.2 -0.00138
69.25 0.00038
69.3 -0.00033
69.35 -0.00136
69.4 -0.0047
69.45 -0.01047
69.5 -0.01527
69.55 -0.01517
69.6 -0.01033
69.65 -0.01068
69.7 -0.00926
69.75 -0.00912
69.8 -0.00838
69.85 -0.00643
69.9 -0.00485
69.95 -0.00692
70 -0.00945
70.05 -0.01245
70.1 -0.01285
70.15 -0.01208
70.2 -0.01422
70.25 -0.01685
70.3 -0.01783
70.35 -0.01548
70.4 -0.01147
70.45 -0.01019
70.5 -0.00749
70.55 -0.00725
70.6 -0.00907
70.65 -0.01321
70.7 -0.01351
70.75 -0.01488
70.8 -0.01796
70.85 -0.02242
70.9 -0.02747
70.95 -0.03092
71 -0.0272
71.05 -0.01762
71.1 -0.00833
71.15 -0.00551
71.2 -0.00598
71.25 -0.00355
71.3 -0.00316
71.35 -0.00509
71.4 -0.00769
71.45 -0.01179
71.5 -0.00875
71.55 -0.00942
71.6 -0.01274
71.65 -0.01227
71.7 -0.01361
71.75 -0.0113
71.8 -0.01258
71.85 -0.01149
71.9 -0.0077
71.95 0.00059
72 0.00355
72.05 0.00616
72.1 0.00635
72.15 0.00382
72.2 0.00683
72.25 0.0046
72.3 0.00757
72.35 0.00986
72.4 0.01012
72.45 0.01347
72.5 0.01805
72.55 0.02103
72.6 0.01737
72.65 0.01019
72.7 0.00324
72.75 0.00294
72.8 0.00083
72.85 0.00133
72.9 0.00651
72.95 0.00664
73 0.00479
73.05 0.00746
73.1 0.01062
73.15 0.01285
73.2 0.01434
73.25 0.01529
73.3 0.0185
73.35 0.01959
73.4 0.02355
73.45 0.02087
73.5 0.02185
73.55 0.02154
73.6 0.02
73.65 0.02216
73.7 0.02386
73.75 0.02532
73.8 0.02345
73.85 0.023
73.9 0.01865
73.95 0.01373
74 0.01379
74.05 0.01121
74.1 0.00684
74.15 0
74.2 -0.00501
74.25 -0.00636
74.3 -0.00422
74.35 -0.00683
74.4 -0.01091
74.45 -0.00888
74.5 -0.00461
74.55 -0.00592
74.6 -0.00529
74.65 -0.00304
74.7 -0.00577
74.75 -0.0106
74.8 -0.01091
74.85 -0.00864
74.9 -0.003
74.95 0.00335
75 0.00508
75.05 0.00273
75.1 0.0001
75.15 -0.00405
75.2 -0.00843
75.25 -0.00979
75.3 -0.01218
75.35 -0.01458
75.4 -0.01802
75.45 -0.02201
75.5 -0.01961
75.55 -0.01625
75.6 -0.00795
75.65 -0.00084
75.7 0.00399
75.75 0.00407
75.8 0.0005
75.85 0.00102
75.9 0.00089
75.95 -0.00068
76 -0.00411
76.05 -0.00642
76.1 -0.00612
76.15 -0.00668
76.2 -0.00576
76.25 -0.00314
76.3 -0.00453
76.35 -0.00202
76.4 0.0006
76.45 0.00207
76.5 -0.00082
76.55 -0.00586
76.6 -0.01224
76.65 -0.01873
76.7 -0.01812
76.75 -0.01338
76.8 -0.00827
76.85 -0.00173
76.9 0.00147
76.95 -0.00078
77 -0.00014
77.05 0.00098
77.1 -0.00035
77.15 0.00038
77.2 0.00024
77.25 0.00444
77.3 0.01129
77.35 0.01228
77.4 0.01471
77.45 0.01212
77.5 0.01
77.55 0.00525
77.6 0.00364
77.65 -0.00121
77.7 0.00028
77.75 -0.00112
77.8 -0.00378
77.85 -0.00409
77.9 -0.00467
77.95 -0.00498
78 -0.00246
78.05 -0.00093
78.1 0.00436
78.15 0.01126
78.2 0.01087
78.25 0.0068
78.3 0.0037
78.35 0.00479
78.4 0.00416
78.45 -0.0007
78.5 -0.00384
78.55 -0.00824
78.6 -0.01134
78.65 -0.01262
78.7 -0.01009
78.75 -0.0065
78.8 -0.00473
78.85 0.00117
78.9 0.0092
78.95 0.01451
79 0.01954
79.05 0.01929
79.1 0.01895
79.15 0.01281
79.2 0.01029
79.25 0.00979
79.3 0.00449
79.35 -0.00191
79.4 -0.00914
79.45 -0.01249
79.5 -0.01521
79.55 -0.01293
79.6 -0.01298
79.65 -0.00909
79.7 -0.00844
79.75 -0.00544
79.8 -0.00524
79.85 -0.00701
79.9 -0.00994
79.95 -0.00631
80 0.00028
80.05 0.00558
80.1 0.0054
80.15 0.00609
80.2 0.00656
80.25 0.0096
80.3 0.00831
80.35 0.00259
80.4 -0.00435
80.45 -0.0115
80.5 -0.01919
80.55 -0.02635
80.6 -0.0258
80.65 -0.01942
80.7 -0.01484
80.75 -0.00708
80.8 -0.00042
80.85 0.00215
80.9 0.00691
80.95 0.00809
81 0.00854
81.05 0.00486
81.1 0.00057
81.15 -0.00559
81.2 -0.01308
81.25 -0.01651
81.3 -0.02011
81.35 -0.02243
81.4 -0.02594
81.45 -0.0229
81.5 -0.01737
81.55 -0.01632
81.6 -0.01569
81.65 -0.01582
81.7 -0.01373
81.75 -0.01098
81.8 -0.00414
81.85 -0.00267
81.9 -0.00378
81.95 -0.00318
82 -0.00503
82.05 -0.00401
82.1 0.00014
82.15 0.00135
82.2 0.00079
82.25 0.00165
82.3 -0.0001
82.35 -0.0007
82.4 0.0016
82.45 0.00535
82.5 0.00388
82.55 0.00452
82.6 0.00842
82.65 0.00618
82.7 0.00059
82.75 0.00215
82.8 0.00666
82.85 0.01194
82.9 0.0189
82.95 0.02597
83 0.02967
83.05 0.02796
83.1 0.02692
83.15 0.02659
83.2 0.02766
83.25 0.02717
83.3 0.02097
83.35 0.0137
83.4 0.00529
83.45 -0.0037
83.5 -0.00964
83.55 -0.01481
83.6 -0.01835
83.65 -0.02214
83.7 -0.01949
83.75 -0.01404
83.8 -0.00633
83.85 0.00157
83.9 0.00973
83.95 0.01542
84 0.01923
84.05 0.0198
84.1 0.02015
84.15 0.02131
84.2 0.02467
84.25 0.02651
84.3 0.02955
84.35 0.02865
84.4 0.02929
84.45 0.02896
84.5 0.02373
84.55 0.02034
84.6 0.01612
84.65 0.01302
84.7 0.01067
84.75 0.00938
84.8 0.00316
84.85 -0.00105
84.9 -0.00397
84.95 -0.00768
85 -0.01312
85.05 -0.01379
85.1 -0.01706
85.15 -0.0197
85.2 -0.02012
85.25 -0.02075
85.3 -0.02347
85.35 -0.02268
85.4 -0.0173
85.45 -0.01041
85.5 -0.00648
85.55 -0.00486
85.6 -0.00177
85.65 0.00233
85.7 0.00134
85.75 0.00338
85.8 0.00389
85.85 0.00231
85.9 0.00382
85.95 0.00091
86 -0.00418
86.05 -0.01134
86.1 -0.01901
86.15 -0.02305
86.2 -0.02508
86.25 -0.02032
86.3 -0.01474
86.35 -0.01342
86.4 -0.01546
86.45 -0.01205
86.5 -0.00535
86.55 0.00174
86.6 0.00575
86.65 0.0127
86.7 0.01293
86.75 0.01644
86.8 0.01596
86.85 0.01042
86.9 0.00394
86.95 -0.00236
87 -0.00604
87.05 -0.0103
87.1 -0.01548
87.15 -0.01311
87.2 -0.0135
87.25 -0.01066
87.3 -0.00717
87.35 -0.00427
87.4 -0.00114
87.45 -0.00227
87.5 0.00079
87.55 0.00608
87.6 0.01225
87.65 0.01479
87.7 0.01099
87.75 0.00573
87.8 -0.00079
87.85 -0.00359
87.9 -0.00494
87.95 -0.00228
88 0.00136
88.05 0.00191
88.1 -0.00002
88.15 0.00287
88.2 0.00415
88.25 0.00547
88.3 0.01017
88.35 0.01421
88.4 0.01596
88.45 0.01674
88.5 0.01784
88.55 0.01301
88.6 0.00655
88.65 0.00639
88.7 0.00633
88.75 0.00921
88.8 0.01256
88.85 0.01067
88.9 0.00978
88.95 0.00944
89 0.00667
89.05 0.00631
89.1 0.00148
89.15 -0.00118
89.2 -0.00727
89.25 -0.00785
89.3 -0.00584
89.35 -0.00554
89.4 -0.00377
89.45 -0.00022
89.5 -0.00087
89.55 -0.00338
89.6 -0.00806
89.65 -0.00848
89.7 -0.01005
89.75 -0.0142
89.8 -0.01503
89.85 -0.01593
89.9 -0.01885
89.95 -0.01806
90 -0.0129
90.05 -0.0115
90.1 -0.01112
90.15 -0.00844
90.2 -0.00359
90.25 0.00136
90.3 0.00343
90.35 0.00842
90.4 0.0071
90.45 0.00466
90.5 0.00658
90.55 0.00872
90.6 0.00976
90.65 0.01325
90.7 0.01389
90.75 0.01089
90.8 0.00902
90.85 0.01013
90.9 0.00663
90.95 0.00761
91 0.00724
91.05 0.0052
91.1 0.00195
91.15 0.00161
91.2 0.00059
91.25 -0.00119
91.3 -0.0057
91.35 -0.00727
91.4 -0.00987
91.45 -0.0069
91.5 -0.00435
91.55 -0.00572
91.6 -0.0034
91.65 -0.00207
91.7 0.00241
91.75 0.00505
91.8 0.0032
91.85 0.00649
91.9 0.01252
91.95 0.0178
92 0.02065
92.05 0.0247
92.1 0.02459
92.15 0.02337
92.2 0.02138
92.25 0.01884
92.3 0.01918
92.35 0.01553
92.4 0.01137
92.45 0.0031
92.5 0.00114
92.55 -0.00383
92.6 -0.00635
92.65 -0.00727
92.7 -0.00766
92.75 -0.01021
92.8 -0.00863
92.85 -0.00334
92.9 0.0019
92.95 0.00629
93 0.00581
93.05 0.00349
93.1 0.00453
93.15 0.00897
93.2 0.01092
93.25 0.00652
93.3 0.00262
93.35 -0.00448
93.4 -0.00811
93.45 -0.01177
93.5 -0.0167
93.55 -0.01623
93.6 -0.01219
93.65 -0.01059
93.7 -0.00757
93.75 -0.00748
93.8 -0.01057
93.85 -0.01559
93.9 -0.02029
93.95 -0.01751
94 -0.0101
94.05 -0.00249
94.1 -0.00073
94.15 -0.00308
94.2 -0.00046
94.25 -0.00173
94.3 -0.00396
94.35 -0.00917
94.4 -0.01263
94.45 -0.00913
94.5 -0.00977
94.55 -0.00514
94.6 0.00059
94.65 0.00772
94.7 0.01615
94.75 0.01768
94.8 0.01935
94.85 0.01502
94.9 0.00972
94.95 0.0039
95 0.00211
95.05 0.00515
95.1 0.01004
95.15 0.01483
95.2 0.01505
95.25 0.01187
95.3 0.00647
95.35 0.00181
95.4 0.00284
95.45 0.00375
95.5 0.00104
95.55 -0.00276
95.6 -0.00474
95.65 -0.00508
95.7 -0.00051
95.75 -0.00186
95.8 -0.00703
95.85 -0.01027
95.9 -0.01329
95.95 -0.01546
96 -0.01553
96.05 -0.01209
96.1 -0.01013
96.15 -0.00632
96.2 -0.00432
96.25 0.00183
96.3 0.002
96.35 0.0056
96.4 0.00389
96.45 0.00329
96.5 0.00687
96.55 0.01114
96.6 0.00857
96.65 0.00658
96.7 0.00659
96.75 0.00702
96.8 0.0022
96.85 0.00223
96.9 0.0046
96.95 0.00838
97 0.01097
97.05 0.01382
97.1 0.0123
97.15 0.00706
97.2 0.00495
97.25 -0.00124
97.3 -0.00841
97.35 -0.01095
97.4 -0.01221
97.45 -0.01431
97.5 -0.01594
97.55 -0.01189
97.6 -0.00796
97.65 -0.0093
97.7 -0.01085
97.75 -0.00741
97.8 -0.00104
97.85 0.00625
97.9 0.0111
97.95 0.01288
98 0.01592
98.05 0.01464
98.1 0.0085
98.15 0.00256
98.2 -0.00002
98.25 0.00059
98.3 0.00528
98.35 0.00623
98.4 0.00491
98.45 0.0011
98.5 -0.00615
98.55 -0.00927
98.6 -0.0098
98.65 -0.00614
98.7 -0.00658
98.75 -0.00675
98.8 -0.00882
98.85 -0.01054
98.9 -0.00717
98.95 -0.0005
99 0.00522
99.05 0.00426
99.1 0.00704
99.15 0.00631
99.2 0.00706
99.25 0.00417
99.3 0.00589
99.35 0.0098
99.4 0.00916
99.45 0.01111
99.5 0.01044
99.55 0.01282
99.6 0.01139
99.65 0.00922
99.7 0.00588
99.75 0.00638
99.8 0.00256
99.85 -0.00475
99.9 -0.00811
99.95 -0.01305
