0 0
0.05 0.00001
0.1 0.00006
0.15 0.00029
0.2 0.00045
0.25 0.00052
0.3 0.00065
0.35 0.00073
0.4 0.00079
0.45 0.0009
0.5 0.00089
0.55 0.00082
0.6 0.00079
0.65 0.00094
0.7 0.00115
0.75 0.00118
0.8 0.0012
0.85 0.00131
0.9 0.00136
0.95 0.00129
1 0.00121
1.05 0.00119
1.1 0.00108
1.15 0.00099
1.2 0.00095
1.25 0.00085
1.3 0.00072
1.35 0.00057
1.4 0.0004
1.45 0.00042
1.5 0.0005
1.55 0.00069
1.6 0.00074
1.65 0.00084
1.7 0.00087
1.75 0.00093
1.8 0.00088
1.85 0.00082
1.9 0.00072
1.95 0.00068
2 0.00068
2.05 0.00061
2.1 0.00056
2.15 0.00051
2.2 0.00059
2.25 0.00061
2.3 0.00072
2.35 0.00088
2.4 0.00092
2.45 0.00097
2.5 0.00089
2.55 0.00091
2.6 0.00101
2.65 0.00105
2.7 0.00115
2.75 0.00109
2.8 0.00095
2.85 0.00078
2.9 0.00071
2.95 0.00061
3 0.00059
3.05 0.00054
3.1 0.0006
3.15 0.00068
3.2 0.00061
3.25 0.00059
3.3 0.00066
3.35 0.00073
3.4 0.00087
3.45 0.00099
3.5 0.00103
3.55 0.001
3.6 0.00091
3.65 0.00086
3.7 0.00083
3.75 0.00072
3.8 0.00067
3.85 0.00064
3.9 0.00062
3.95 0.00064
4 0.00061
4.05 0.00066
4.1 0.00064
4.15 0.00068
4.2 0.00076
4.25 0.0007
4.3 0.00053
4.35 0.00037
4.4 0.00035
4.45 0.00032
4.5 0.0002
4.55 0.0002
4.6 0.00014
4.65 0.0002
4.7 0.00036
4.75 0.00036
4.8 0.00043
4.85 0.00036
4.9 0.0003
4.95 0.00015
5 0.0002
5.05 0.00018
5.1 0.00027
5.15 0.00031
5.2 0.00046
5.25 0.00052
5.3 0.0005
5.35 0.00055
5.4 0.00068
5.45 0.00079
5.5 0.00085
5.55 0.00094
5.6 0.00094
5.65 0.00099
5.7 0.00105
5.75 0.00103
5.8 0.00094
5.85 0.00078
5.9 0.00066
5.95 0.0005
6 0.0003
6.05 0.00018
6.1 0.00014
6.15 0.00004
6.2 0.00004
6.25 -0.00005
6.3 -0
6.35 0.00005
6.4 0.00016
6.45 0.00026
6.5 0.00029
6.55 0.0004
6.6 0.00043
6.65 0.00051
6.7 0.00065
6.75 0.00068
6.8 0.0006
6.85 0.00046
6.9 0.00033
6.95 0.00024
7 0.00028
7.05 0.00027
7.1 0.00027
7.15 0.00017
7.2 0.00001
7.25 -0.00017
7.3 -0.00035
7.35 -0.00036
7.4 -0.00026
7.45 -0.00022
7.5 -0.00015
7.55 -0.00013
7.6 -0.00017
7.65 -0.00025
7.7 -0.00031
7.75 -0.0002
7.8 -0.0001
7.85 -0.00011
7.9 -0.00005
7.95 0.00012
8 0.00011
8.05 0.00024
8.1 0.00029
8.15 0.00042
8.2 0.00052
8.25 0.00061
8.3 0.00053
8.35 0.00048
8.4 0.00052
8.45 0.00046
8.5 0.00031
8.55 0.00014
8.6 0.00002
8.65 0
8.7 0.00001
8.75 0.00013
8.8 0.00028
8.85 0.00023
8.9 0.00007
8.95 0.00005
9 -0.00001
9.05 -0.00014
9.1 -0.0003
9.15 -0.00046
9.2 -0.00062
9.25 -0.00075
9.3 -0.00072
9.35 -0.00059
9.4 -0.0005
9.45 -0.00029
9.5 -0.00005
9.55 0.0001
9.6 0.00013
9.65 0.00022
9.7 0.00038
9.75 0.00056
9.8 0.00075
9.85 0.00075
9.9 0.00064
9.95 0.00058
10 0.00039
10.05 0.00033
10.1 0.00019
10.15 0.00017
10.2 0.00023
10.25 0.00016
10.3 -0.00001
10.35 -0.00009
10.4 -0.00019
10.45 -0.0003
10.5 -0.00044
10.55 -0.00053
10.6 -0.00045
10.65 -0.00044
10.7 -0.00046
10.75 -0.0004
10.8 -0.00042
10.85 -0.0003
10.9 -0.00022
10.95 -0.00019
11 -0.00023
11.05 -0.00014
11.1 -0.00015
11.15 -0.00015
11.2 -0.00004
11.25 0.00013
11.3 0.0003
11.35 0.00043
11.4 0.00056
11.45 0.00066
11.5 0.00056
11.55 0.00037
11.6 0.00018
11.65 -0.00003
11.7 -0.00006
11.75 -0.00002
11.8 -0.00004
11.85 -0.00015
11.9 -0.00015
11.95 -0.00013
12 -0.00003
12.05 -0.00002
12.1 0.00012
12.15 0.00023
12.2 0.00039
12.25 0.00042
12.3 0.00045
12.35 0.00054
12.4 0.00046
12.45 0.00027
12.5 0.00014
12.55 0.00005
12.6 -0.00003
12.65 0.00001
12.7 -0.00005
12.75 -0.00004
12.8 -0.00007
12.85 0.00001
12.9 0.00014
12.95 0.00016
13 0.00021
13.05 0.00032
13.1 0.00038
13.15 0.00042
13.2 0.00045
13.25 0.00053
13.3 0.00047
13.35 0.00049
13.4 0.00042
13.45 0.00029
13.5 0.00031
13.55 0.00023
13.6 0.00008
13.65 -0.00009
13.7 -0.0003
13.75 -0.00041
13.8 -0.00042
13.85 -0.00043
13.9 -0.00031
13.95 -0.00026
14 -0.0001
14.05 -0.00004
14.1 0.00002
14.15 -0
14.2 0.00008
14.25 0.00004
14.3 0
14.35 -0.00013
14.4 -0.00026
14.45 -0.00019
14.5 -0.00017
14.55 -0.0002
14.6 -0.00021
14.65 -0.00008
14.7 0.00012
14.75 0.00033
14.8 0.0005
14.85 0.00065
14.9 0.0007
14.95 0.00062
15 0.00041
15.05 0.00027
15.1 0.00019
15.15 0.00008
15.2 0.00003
15.25 -0.00008
15.3 -0.00006
15.35 -0.0001
15.4 -0.00004
15.45 0.00002
15.5 0.00008
15.55 0.00016
15.6 0.00016
15.65 0.00008
15.7 0.00014
15.75 0.00022
15.8 0.00018
15.85 0.0001
15.9 -0.00005
15.95 -0.00004
16 -0.00008
16.05 -0.00011
16.1 -0.00017
16.15 -0.0002
16.2 -0.0001
16.25 0.00008
16.3 0.00021
16.35 0.00034
16.4 0.00028
16.45 0.00017
16.5 0.0001
16.55 -0.00005
16.6 -0.00012
16.65 -0.00004
16.7 -0.00004
16.75 0.00007
16.8 0.00004
16.85 -0
16.9 -0.00015
16.95 -0.00033
17 -0.00031
17.05 -0.00035
17.1 -0.00038
17.15 -0.00038
17.2 -0.00046
17.25 -0.00046
17.3 -0.0003
17.35 -0.00024
17.4 -0.00009
17.45 -0.00003
17.5 -0.00006
17.55 -0.00008
17.6 -0.00002
17.65 0.00011
17.7 0.00021
17.75 0.00035
17.8 0.00034
17.85 0.00017
17.9 0.00015
17.95 0.00016
18 0.00026
18.05 0.00026
18.1 0.00013
18.15 -0.00002
18.2 -0.00017
18.25 -0.00019
18.3 -0.00014
18.35 -0.00014
18.4 -0.00011
18.45 -0.00011
18.5 0
18.55 0
18.6 0.00009
18.65 0.00011
18.7 0.00004
18.75 -0.00005
18.8 0.00001
18.85 0.00009
18.9 0.0002
18.95 0.0003
19 0.00038
19.05 0.00046
19.1 0.00039
19.15 0.00036
19.2 0.00037
19.25 0.00031
19.3 0.00018
19.35 0.00012
19.4 0.00013
19.45 0.00003
19.5 -0.00011
19.55 -0.00012
19.6 -0.00023
19.65 -0.00026
19.7 -0.00039
19.75 -0.00052
19.8 -0.00069
19.85 -0.00073
19.9 -0.00064
19.95 -0.00042
20 -0.00037
20.05 -0.00035
20.1 -0.0003
20.15 -0.00035
20.2 -0.00032
20.25 -0.00026
20.3 -0.0001
20.35 -0.00002
20.4 0.00008
20.45 0.00015
20.5 0.00014
20.55 0.00003
20.6 -0.00002
20.65 0.00003
20.7 -0.00006
20.75 -0.00021
20.8 -0.00021
20.85 -0.00024
20.9 -0.00029
20.95 -0.00024
21 -0.00009
21.05 0
21.1 0.00001
21.15 -0.00002
21.2 -0.00011
21.25 -0.00011
21.3 -0.00018
21.35 -0.00018
21.4 -0.0001
21.45 -0.0001
21.5 -0.00009
21.55 -0.00019
21.6 -0.00029
21.65 -0.00028
21.7 -0.00025
21.75 -0.00028
21.8 -0.00018
21.85 -0.00002
21.9 0.00007
21.95 0.00018
22 0.00026
22.05 0.0003
22.1 0.00031
22.15 0.00027
22.2 0.00025
22.25 0.00011
22.3 -0.00005
22.35 -0.00022
22.4 -0.00036
22.45 -0.00033
22.5 -0.00037
22.55 -0.00043
22.6 -0.00032
22.65 -0.00013
22.7 -0
22.75 0
22.8 -0.00008
22.85 -0.00024
22.9 -0.00034
22.95 -0.0003
23 -0.00018
23.05 -0.00017
23.1 -0.00016
23.15 -0.00011
23.2 -0.00009
23.25 -0.00003
23.3 0.00012
23.35 0.00017
23.4 0.0003
23.45 0.00028
23.5 0.00021
23.55 0.00024
23.6 0.00027
23.65 0.00032
23.7 0.00023
23.75 0.00022
23.8 0.00027
23.85 0.00033
23.9 0.00034
23.95 0.00039
24 0.00032
24.05 0.00021
24.1 0.00006
24.15 -0.00003
24.2 -0.00006
24.25 -0.00014
24.3 -0.00015
24.35 -0.00018
24.4 -0.00014
24.45 -0.0001
24.5 -0.00018
24.55 -0.00023
24.6 -0.00017
24.65 -0.00023
24.7 -0.00013
24.75 -0.00005
24.8 -0.0001
24.85 -0.00014
24.9 -0.0001
24.95 -0.00012
25 -0.00007
25.05 -0.00007
25.1 -0
25.15 -0.00007
25.2 -0.00005
25.25 -0.00006
25.3 -0.00004
25.35 -0.00003
25.4 -0.00006
25.45 -0.00007
25.5 -0.00015
25.55 -0.0001
25.6 -0.00003
25.65 0.00001
25.7 0.00009
25.75 0.0001
25.8 -0.00001
25.85 -0.00013
25.9 -0.00028
25.95 -0.00033
26 -0.00035
26.05 -0.00027
26.1 -0.00023
26.15 -0.00024
26.2 -0.00033
26.25 -0.00029
26.3 -0.00028
26.35 -0.00016
26.4 -0.0001
26.45 0.00001
26.5 0.00017
26.55 0.00023
26.6 0.00022
26.65 0.00012
26.7 0.00004
26.75 -0.00013
26.8 -0.00026
26.85 -0.00025
26.9 -0.00014
26.95 0.00006
27 0.00018
27.05 0.00021
27.1 0.0001
27.15 0.00005
27.2 0.00003
27.25 0.00008
27.3 0.00015
27.35 0.00013
27.4 0.00013
27.45 0.00011
27.5 0.0002
27.55 0.00015
27.6 0.00001
27.65 -0.0001
27.7 -0.00011
27.75 -0.00003
27.8 -0.00002
27.85 -0.00006
27.9 -0.00008
27.95 -0.00009
28 -0.00003
28.05 0.00003
28.1 -0.00001
28.15 0
28.2 0.00011
28.25 0.00008
28.3 0.00003
28.35 0.00005
28.4 0.00003
28.45 -0.00006
28.5 -0
28.55 0.00001
28.6 -0.00009
28.65 -0.00019
28.7 -0.00034
28.75 -0.00047
28.8 -0.00058
28.85 -0.00059
28.9 -0.00059
28.95 -0.00065
29 -0.00069
29.05 -0.00069
29.1 -0.0007
29.15 -0.00056
29.2 -0.00037
29.25 -0.00012
29.3 0.00005
29.35 0.00008
29.4 0.0002
29.45 0.00022
29.5 0.00024
29.55 0.00013
29.6 -0
29.65 -0.00001
29.7 0.00001
29.75 0.00014
29.8 0.00032
29.85 0.00044
29.9 0.00054
29.95 0.00067
30 0.00079
30.05 0.0007
30.1 0.00067
30.15 0.00069
30.2 0.00063
30.25 0.00048
30.3 0.00026
30.35 0.00001
30.4 -0.00018
30.45 -0.00018
30.5 -0.00013
30.55 -0.00001
30.6 -0.00004
30.65 0.00004
30.7 0.00021
30.75 0.00022
30.8 0.00023
30.85 0.00013
30.9 0.00003
30.95 -0.00004
31 -0.00015
31.05 -0.00011
31.1 -0.00013
31.15 -0.00004
31.2 -0.00003
31.25 0.00005
31.3 0.00013
31.35 0.00023
31.4 0.00036
31.45 0.00035
31.5 0.00036
31.55 0.00044
31.6 0.00055
31.65 0.00062
31.7 0.00057
31.75 0.00053
31.8 0.00037
31.85 0.00015
31.9 -0.00012
31.95 -0.00037
32 -0.00046
32.05 -0.00057
32.1 -0.00065
32.15 -0.00073
32.2 -0.00082
32.25 -0.00086
32.3 -0.00088
32.35 -0.00086
32.4 -0.00067
32.45 -0.00039
32.5 -0.00014
32.55 -0.00008
32.6 -0.00015
32.65 -0.00012
32.7 0.00003
32.75 0.00012
32.8 0.00027
32.85 0.00037
32.9 0.00044
32.95 0.00047
33 0.00048
33.05 0.00034
33.1 0.00023
33.15 0.00004
33.2 -0.00005
33.25 -0.00005
33.3 -0.00007
33.35 0
33.4 0.00007
33.45 0.00013
33.5 0.00017
33.55 0.00024
33.6 0.00038
33.65 0.00036
33.7 0.00028
33.75 0.00023
33.8 0.00012
33.85 0.00013
33.9 0.00023
33.95 0.00024
34 0.00026
34.05 0.00032
34.1 0.00023
34.15 0.00012
34.2 0.0001
34.25 0.00001
34.3 -0.00015
34.35 -0.00029
34.4 -0.00044
34.45 -0.00043
34.5 -0.00029
34.55 -0.00021
34.6 -0.00008
34.65 0.00001
34.7 0.00015
34.75 0.00011
34.8 0.00004
34.85 -0.00005
34.9 -0.00003
34.95 -0.00014
35 -0.00012
35.05 0.00002
35.1 0.00004
35.15 0.00017
35.2 0.00013
35.25 0.00008
35.3 -0.00002
35.35 -0
35.4 0.00007
35.45 0.00009
35.5 0.00015
35.55 0.00025
35.6 0.00037
35.65 0.00041
35.7 0.00048
35.75 0.00057
35.8 0.0007
35.85 0.00065
35.9 0.00051
35.95 0.0003
36 0.00009
36.05 -0.00017
36.1 -0.0002
36.15 -0.00022
36.2 -0.00015
36.25 -0.00006
36.3 -0.00001
36.35 -0
36.4 -0.00002
36.45 -0.00002
36.5 -0.00006
36.55 -0.00002
36.6 0.00008
36.65 0.00013
36.7 0.00007
36.75 0.00001
36.8 -0.00005
36.85 0.00001
36.9 0.00009
36.95 0.00006
37 -0.00002
37.05 -0.00004
37.1 -0.00006
37.15 -0.00003
37.2 -0.00005
37.25 0.00002
37.3 0.00007
37.35 0.00007
37.4 0
37.45 0
37.5 -0.00009
37.55 -0.00026
37.6 -0.00047
37.65 -0.00066
37.7 -0.0007
37.75 -0.00072
37.8 -0.00075
37.85 -0.0006
37.9 -0.00034
37.95 -0.00009
38 0.00015
38.05 0.00033
38.1 0.00049
38.15 0.00054
38.2 0.00043
38.25 0.00037
38.3 0.00026
38.35 0.00023
38.4 0.00016
38.45 0.0001
38.5 0.00015
38.55 0.00016
38.6 0.00011
38.65 0.00013
38.7 0.00013
38.75 0.00001
38.8 -0.00017
38.85 -0.0002
38.9 -0.00029
38.95 -0.00042
39 -0.00046
39.05 -0.00041
39.1 -0.00028
39.15 -0.00017
39.2 -0.00008
39.25 -0.00007
39.3 -0.00006
39.35 0.00007
39.4 0.00021
39.45 0.00018
39.5 0.00026
39.55 0.00033
39.6 0.00029
39.65 0.0003
39.7 0.00022
39.75 0.00007
39.8 -0.00004
39.85 -0.00006
39.9 0.00002
39.95 0.00002
40 -0.00004
40.05 -0.00008
40.1 -0.00016
40.15 -0.00031
40.2 -0.00038
40.25 -0.0005
40.3 -0.00064
40.35 -0.00093
40.4 -0.00113
40.45 -0.0014
40.5 -0.00173
40.55 -0.00194
40.6 -0.00231
40.65 -0.00268
40.7 -0.00298
40.75 -0.00344
40.8 -0.00401
40.85 -0.00458
40.9 -0.00526
40.95 -0.00606
41 -0.00705
41.05 -0.00828
41.1 -0.00958
41.15 -0.01101
41.2 -0.01246
41.25 -0.01409
41.3 -0.01591
41.35 -0.01776
41.4 -0.01966
41.45 -0.02164
41.5 -0.02386
41.55 -0.02624
41.6 -0.02858
41.65 -0.03091
41.7 -0.03327
41.75 -0.0357
41.8 -0.03825
41.85 -0.04088
41.9 -0.04357
41.95 -0.04621
42 -0.04869
42.05 -0.05097
42.1 -0.05321
42.15 -0.05516
42.2 -0.057
42.25 -0.0587
42.3 -0.06011
42.35 -0.06116
42.4 -0.06182
42.45 -0.06218
42.5 -0.0623
42.55 -0.06218
42.6 -0.0617
42.65 -0.06103
42.7 -0.06004
42.75 -0.05887
42.8 -0.05742
42.85 -0.0557
42.9 -0.05365
42.95 -0.05141
43 -0.04894
43.05 -0.04632
43.1 -0.04363
43.15 -0.04085
43.2 -0.03819
43.25 -0.03548
43.3 -0.03279
43.35 -0.02987
43.4 -0.02681
43.45 -0.0236
43.5 -0.0203
43.55 -0.0168
43.6 -0.01325
43.65 -0.00942
43.7 -0.00549
43.75 -0.00133
43.8 0.00289
43.85 0.00725
43.9 0.01173
43.95 0.01631
44 0.02089
44.05 0.02554
44.1 0.03018
44.15 0.03499
44.2 0.03984
44.25 0.04457
44.3 0.04925
44.35 0.05372
44.4 0.05791
44.45 0.06193
44.5 0.06566
44.55 0.06892
44.6 0.07165
44.65 0.07397
44.7 0.07588
44.75 0.07726
44.8 0.07821
44.85 0.0787
44.9 0.0788
44.95 0.07837
45 0.07738
45.05 0.07611
45.1 0.07437
45.15 0.07241
45.2 0.07024
45.25 0.06779
45.3 0.06524
45.35 0.06239
45.4 0.05948
45.45 0.05656
45.5 0.05356
45.55 0.05055
45.6 0.04749
45.65 0.04458
45.7 0.04177
45.75 0.03898
45.8 0.0364
45.85 0.03395
45.9 0.03162
45.95 0.02948
46 0.02771
46.05 0.0261
46.1 0.02475
46.15 0.02351
46.2 0.02253
46.25 0.02166
46.3 0.02084
46.35 0.02009
46.4 0.01961
46.45 0.0192
46.5 0.01889
46.55 0.01874
46.6 0.01858
46.65 0.01853
46.7 0.01843
46.75 0.01827
46.8 0.01825
46.85 0.01823
46.9 0.01817
46.95 0.01809
47 0.01786
47.05 0.01759
47.1 0.01735
47.15 0.0172
47.2 0.01697
47.25 0.01662
47.3 0.01614
47.35 0.01577
47.4 0.01525
47.45 0.01466
47.5 0.01407
47.55 0.01335
47.6 0.01264
47.65 0.01188
47.7 0.01106
47.75 0.0102
47.8 0.00935
47.85 0.00871
47.9 0.00816
47.95 0.00764
48 0.00711
48.05 0.00659
48.1 0.00608
48.15 0.00535
48.2 0.00455
48.25 0.00381
48.3 0.00317
48.35 0.00246
48.4 0.00167
48.45 0.00083
48.5 0.00008
48.55 -0.00054
48.6 -0.00123
48.65 -0.00182
48.7 -0.00249
48.75 -0.00305
48.8 -0.00348
48.85 -0.0039
48.9 -0.00437
48.95 -0.00483
49 -0.00523
49.05 -0.00557
49.1 -0.0058
49.15 -0.00604
49.2 -0.00639
49.25 -0.00673
49.3 -0.00704
49.35 -0.00727
49.4 -0.00747
49.45 -0.00768
49.5 -0.00784
49.55 -0.00803
49.6 -0.00812
49.65 -0.00817
49.7 -0.00836
49.75 -0.00854
49.8 -0.00862
49.85 -0.00883
49.9 -0.00893
49.95 -0.00898
50 -0.0091
50.05 -0.0091
50.1 -0.00906
50.15 -0.00913
50.2 -0.00926
50.25 -0.00941
50.3 -0.00943
50.35 -0.0094
50.4 -0.00946
50.45 -0.00944
50.5 -0.00936
50.55 -0.00916
50.6 -0.00892
50.65 -0.00886
50.7 -0.0087
50.75 -0.00862
50.8 -0.00862
50.85 -0.00852
50.9 -0.00834
50.95 -0.00828
51 -0.00826
51.05 -0.00822
51.1 -0.00815
51.15 -0.00797
51.2 -0.00775
51.25 -0.00749
51.3 -0.00739
51.35 -0.00738
51.4 -0.00743
51.45 -0.00753
51.5 -0.00751
51.55 -0.00737
51.6 -0.00736
51.65 -0.00719
51.7 -0.00711
51.75 -0.00696
51.8 -0.00681
51.85 -0.00666
51.9 -0.00642
51.95 -0.0062
52 -0.00612
52.05 -0.00598
52.1 -0.00577
52.15 -0.00556
52.2 -0.00533
52.25 -0.00532
52.3 -0.00543
52.35 -0.0054
52.4 -0.00545
52.45 -0.00544
52.5 -0.0055
52.55 -0.00549
52.6 -0.00535
52.65 -0.00535
52.7 -0.00533
52.75 -0.00534
52.8 -0.00538
52.85 -0.00533
52.9 -0.00534
52.95 -0.0053
53 -0.00511
53.05 -0.00502
53.1 -0.00478
53.15 -0.0045
53.2 -0.0044
53.25 -0.00422
53.3 -0.00419
53.35 -0.00428
53.4 -0.00424
53.45 -0.00427
53.5 -0.00421
53.55 -0.00409
53.6 -0.00392
53.65 -0.00383
53.7 -0.00375
53.75 -0.00369
53.8 -0.00358
53.85 -0.00351
53.9 -0.00354
53.95 -0.00362
54 -0.00354
54.05 -0.00345
54.1 -0.00345
54.15 -0.00351
54.2 -0.00361
54.25 -0.00359
54.3 -0.00347
54.35 -0.00342
54.4 -0.00333
54.45 -0.00335
54.5 -0.00334
54.55 -0.00319
54.6 -0.00316
54.65 -0.00313
54.7 -0.00296
54.75 -0.00285
54.8 -0.00265
54.85 -0.0024
54.9 -0.00233
54.95 -0.00234
55 -0.00242
55.05 -0.00242
55.1 -0.00238
55.15 -0.00231
55.2 -0.00219
55.25 -0.00201
55.3 -0.00197
55.35 -0.00194
55.4 -0.00188
55.45 -0.00193
55.5 -0.00187
55.55 -0.0019
55.6 -0.00183
55.65 -0.00183
55.7 -0.00182
55.75 -0.00189
55.8 -0.0019
55.85 -0.0018
55.9 -0.00165
55.95 -0.00145
56 -0.00147
56.05 -0.0015
56.1 -0.00157
56.15 -0.00172
56.2 -0.00174
56.25 -0.00173
56.3 -0.00178
56.35 -0.00179
56.4 -0.0018
56.45 -0.00169
56.5 -0.00161
56.55 -0.00161
56.6 -0.00151
56.65 -0.00135
56.7 -0.0012
56.75 -0.00118
56.8 -0.00123
56.85 -0.00135
56.9 -0.00144
56.95 -0.00152
57 -0.00167
57.05 -0.0017
57.1 -0.00177
57.15 -0.00181
57.2 -0.00177
57.25 -0.00159
57.3 -0.00154
57.35 -0.00139
57.4 -0.00119
57.45 -0.00115
57.5 -0.00101
57.55 -0.00103
57.6 -0.001
57.65 -0.00102
57.7 -0.00106
57.75 -0.00111
57.8 -0.00122
57.85 -0.00118
57.9 -0.00117
57.95 -0.00112
58 -0.00113
58.05 -0.00109
58.1 -0.001
58.15 -0.00104
58.2 -0.00108
58.25 -0.00106
58.3 -0.00107
58.35 -0.00109
58.4 -0.00108
58.45 -0.00114
58.5 -0.00126
58.55 -0.00119
58.6 -0.00112
58.65 -0.00106
58.7 -0.00102
58.75 -0.00091
58.8 -0.00081
58.85 -0.00075
58.9 -0.00061
58.95 -0.00059
59 -0.0007
59.05 -0.00086
59.1 -0.00097
59.15 -0.00098
59.2 -0.00089
59.25 -0.00077
59.3 -0.00067
59.35 -0.0007
59.4 -0.00063
59.45 -0.00052
59.5 -0.00048
59.55 -0.00055
59.6 -0.00054
59.65 -0.00045
59.7 -0.00043
59.75 -0.00041
59.8 -0.00036
59.85 -0.00044
59.9 -0.00045
59.95 -0.00052
60 -0.00043
60.05 -0.00033
60.1 -0.00031
60.15 -0.00026
60.2 -0.00013
60.25 -0.00001
60.3 0.00003
60.35 -0.00004
60.4 -0.00008
60.45 -0.00008
60.5 -0.00022
60.55 -0.00038
60.6 -0.00056
60.65 -0.00062
60.7 -0.00068
60.75 -0.00076
60.8 -0.00085
60.85 -0.00095
60.9 -0.00085
60.95 -0.00076
61 -0.00075
61.05 -0.00064
61.1 -0.00045
61.15 -0.00033
61.2 -0.00032
61.25 -0.00037
61.3 -0.00032
61.35 -0.00028
61.4 -0.00032
61.45 -0.00037
61.5 -0.00035
61.55 -0.00024
61.6 -0.0001
61.65 0.00008
61.7 0.00004
61.75 -0.00011
61.8 -0.00033
61.85 -0.00041
61.9 -0.00044
61.95 -0.00044
62 -0.00041
62.05 -0.00039
62.1 -0.00047
62.15 -0.00056
62.2 -0.00061
62.25 -0.0007
62.3 -0.00081
62.35 -0.00077
62.4 -0.00064
62.45 -0.00057
62.5 -0.00042
62.55 -0.00035
62.6 -0.00026
62.65 -0.00031
62.7 -0.0004
62.75 -0.00041
62.8 -0.00027
62.85 -0.00024
62.9 -0.00017
62.95 -0.00007
63 -0.00013
63.05 -0.00019
63.1 -0.00029
63.15 -0.00035
63.2 -0.00041
63.25 -0.00034
63.3 -0.00033
63.35 -0.00025
63.4 -0.00021
63.45 -0.00017
63.5 -0.00002
63.55 0.00014
63.6 0.00021
63.65 0.00027
63.7 0.00026
63.75 0.00023
63.8 0.00027
63.85 0.00029
63.9 0.00034
63.95 0.0004
64 0.00045
64.05 0.00038
64.1 0.00035
64.15 0.00029
64.2 0.00023
64.25 0.00023
64.3 0.00031
64.35 0.00026
64.4 0.00012
64.45 0.00011
64.5 0.00001
64.55 -0.00006
64.6 -0.00008
64.65 -0.00003
64.7 0.00011
64.75 0.00017
64.8 0.00017
64.85 0.00009
64.9 -0.00008
64.95 -0.00018
65 -0.0002
65.05 -0.00032
65.1 -0.00047
65.15 -0.00059
65.2 -0.00065
65.25 -0.00065
65.3 -0.00071
65.35 -0.00066
65.4 -0.00067
65.45 -0.00058
65.5 -0.00057
65.55 -0.00048
65.6 -0.00027
65.65 -0.00021
65.7 -0.00004
65.75 0.00015
65.8 0.00027
65.85 0.00025
65.9 0.0003
65.95 0.00038
66 0.00049
66.05 0.00051
66.1 0.00057
66.15 0.00052
66.2 0.00048
66.25 0.00029
66.3 0.00011
66.35 0.00008
66.4 -0.00001
66.45 -0.00017
66.5 -0.00028
66.55 -0.00033
66.6 -0.00023
66.65 -0.00026
66.7 -0.00034
66.75 -0.00034
66.8 -0.00034
66.85 -0.00041
66.9 -0.00035
66.95 -0.00021
67 -0.00009
67.05 -0.00002
67.1 0.00004
67.15 0.00002
67.2 0.00008
67.25 -0.00002
67.3 0.00001
67.35 -0.00004
67.4 -0.00012
67.45 -0.00021
67.5 -0.00033
67.55 -0.00029
67.6 -0.00027
67.65 -0.00029
67.7 -0.00028
67.75 -0.00034
67.8 -0.00042
67.85 -0.00048
67.9 -0.0005
67.95 -0.0006
68 -0.00058
68.05 -0.00049
68.1 -0.00034
68.15 -0.00032
68.2 -0.00023
68.25 -0.00014
68.3 -0.00011
68.35 -0.00011
68.4 -0.00019
68.45 -0.00033
68.5 -0.00042
68.55 -0.00054
68.6 -0.00061
68.65 -0.00061
68.7 -0.00067
68.75 -0.00061
68.8 -0.00053
68.85 -0.00041
68.9 -0.00033
68.95 -0.00028
69 -0.00027
69.05 -0.00024
69.1 -0.00008
69.15 0.00009
69.2 0.00012
69.25 0.00003
69.3 0.00003
69.35 0.00008
69.4 0.00019
69.45 0.0002
69.5 0.00011
69.55 0.00012
69.6 0.00004
69.65 -0.00001
69.7 -0.00014
69.75 -0.00017
69.8 -0.00007
69.85 -0.00005
69.9 0.00007
69.95 0.00006
70 0.00006
70.05 0.00015
70.1 0.00026
70.15 0.0004
70.2 0.00051
70.25 0.00045
70.3 0.00034
70.35 0.00018
70.4 0.00012
70.45 0.00001
70.5 -0.00004
70.55 0
70.6 0.00004
70.65 -0.00006
70.7 -0.00013
70.75 -0.00021
70.8 -0.00013
70.85 -0.00007
70.9 -0.00001
70.95 -0.00004
71 -0.0001
71.05 -0.00008
71.1 0.00001
71.15 0.00019
71.2 0.00031
71.25 0.0003
71.3 0.00019
71.35 0.00002
71.4 -0.00007
71.45 -0.00009
71.5 -0.00018
71.55 -0.00019
71.6 -0.0003
71.65 -0.00035
71.7 -0.00041
71.75 -0.00049
71.8 -0.00058
71.85 -0.00058
71.9 -0.00061
71.95 -0.00049
72 -0.00031
72.05 -0.00011
72.1 -0.00002
72.15 -0.00001
72.2 0.00009
72.25 0.00014
72.3 0.00019
72.35 0.00012
72.4 0.00001
72.45 -0.00007
72.5 -0.00016
72.55 -0.00009
72.6 -0.00003
72.65 -0.00006
72.7 -0.00005
72.75 0.00007
72.8 0.0001
72.85 0.00021
72.9 0.00026
72.95 0.00027
73 0.0002
73.05 0.00019
73.1 0.00009
73.15 0.00015
73.2 0.00029
73.25 0.00033
73.3 0.00035
73.35 0.00039
73.4 0.0005
73.45 0.0005
73.5 0.00036
73.55 0.00033
73.6 0.00023
73.65 0.00021
73.7 0.00009
73.75 0.00005
73.8 0.00009
73.85 0.00008
73.9 0.00008
73.95 -0
74 -0.00005
74.05 -0.00005
74.1 0.00005
74.15 -0.00001
74.2 -0.00004
74.25 -0.00005
74.3 0.00004
74.35 0.00008
74.4 0.00015
74.45 0.00009
74.5 0.00002
74.55 -0.00003
74.6 0.00003
74.65 0.00015
74.7 0.00028
74.75 0.00043
74.8 0.00054
74.85 0.00051
74.9 0.00046
74.95 0.00027
75 0.00012
75.05 -0.00008
75.1 -0.00027
75.15 -0.00034
75.2 -0.00025
75.25 -0.00018
75.3 -0.00004
75.35 0.0001
75.4 0.00013
75.45 0.00013
75.5 0.00005
75.55 -0.00007
75.6 -0.00019
75.65 -0.00026
75.7 -0.00022
75.75 -0.00028
75.8 -0.00022
75.85 -0.00017
75.9 -0.00019
75.95 -0.00016
76 -0
76.05 0.00001
76.1 0.00001
76.15 0.00001
76.2 -0.00009
76.25 -0.00024
76.3 -0.0002
76.35 -0.00007
76.4 -0.0001
76.45 -0.00022
76.5 -0.00033
76.55 -0.00037
76.6 -0.00026
76.65 -0.00027
76.7 -0.00015
76.75 -0.0001
76.8 0.00005
76.85 0.00011
76.9 0.00015
76.95 0.00007
77 0.00005
77.05 0.00002
77.1 0.00001
77.15 -0.00003
77.2 0.00001
77.25 -0.00003
77.3 -0.00013
77.35 -0.00027
77.4 -0.00045
77.45 -0.00043
77.5 -0.00036
77.55 -0.00024
77.6 -0.00015
77.65 -0.00009
77.7 0.00006
77.75 0.00006
77.8 0.00013
77.85 0.00024
77.9 0.00038
77.95 0.00054
78 0.00067
78.05 0.00072
78.1 0.0007
78.15 0.00057
78.2 0.00049
78.25 0.0004
78.3 0.00028
78.35 0.00027
78.4 0.00031
78.45 0.00018
78.5 0.00011
78.55 0.00015
78.6 0.00011
78.65 0.00013
78.7 0.00009
78.75 0.00013
78.8 0.00026
78.85 0.00031
78.9 0.00031
78.95 0.00032
79 0.00035
79.05 0.0004
79.1 0.00048
79.15 0.00038
79.2 0.00033
79.25 0.0002
79.3 -0.00003
79.35 -0.00022
79.4 -0.00038
79.45 -0.00053
79.5 -0.00052
79.55 -0.00038
79.6 -0.00032
79.65 -0.00036
79.7 -0.00027
79.75 -0.00012
79.8 0.00001
79.85 0.00004
79.9 -0.00004
79.95 -0.00018
80 -0.00023
80.05 -0.00013
80.1 0.00005
80.15 0.0001
80.2 0
80.25 -0.00009
80.3 -0.00023
80.35 -0.00042
80.4 -0.00054
80.45 -0.00056
80.5 -0.00048
80.55 -0.00037
80.6 -0.00028
80.65 -0.00029
80.7 -0.00023
80.75 -0.00008
80.8 -0.0001
80.85 -0.00009
80.9 -0.00008
80.95 -0.00001
81 0.00006
81.05 0.00008
81.1 0.00003
81.15 0.00008
81.2 0.00022
81.25 0.0002
81.3 0.00025
81.35 0.0002
81.4 0.00025
81.45 0.0002
81.5 0.00007
81.55 0.00003
81.6 -0.00006
81.65 -0.00007
81.7 -0.00002
81.75 -0.00005
81.8 0.00004
81.85 0.0001
81.9 0.00019
81.95 0.00035
82 0.00045
82.05 0.00047
82.1 0.00046
82.15 0.00036
82.2 0.00039
82.25 0.00041
82.3 0.00038
82.35 0.00028
82.4 0.00022
82.45 0.0001
82.5 -0.00002
82.55 -0.00001
82.6 0.00002
82.65 -0.00004
82.7 -0.00006
82.75 -0.00007
82.8 -0.00018
82.85 -0.00034
82.9 -0.0004
82.95 -0.0004
83 -0.00028
83.05 -0.00025
83.1 -0.00009
83.15 -0.00007
83.2 -0.0001
83.25 -0.00003
83.3 -0.0001
83.35 -0.00026
83.4 -0.00031
83.45 -0.00039
83.5 -0.00049
83.55 -0.00049
83.6 -0.00052
83.65 -0.00056
83.7 -0.00053
83.75 -0.00054
83.8 -0.00054
83.85 -0.00049
83.9 -0.00031
83.95 -0.00013
84 0.00001
84.05 0.00023
84.1 0.00038
84.15 0.00039
84.2 0.00031
84.25 0.00028
84.3 0.00015
84.35 0.00015
84.4 0.00024
84.45 0.00017
84.5 0.00011
84.55 -0.00004
84.6 -0.00013
84.65 -0.00024
84.7 -0.00037
84.75 -0.00047
84.8 -0.00045
84.85 -0.00051
84.9 -0.00061
84.95 -0.00069
85 -0.0006
85.05 -0.00053
85.1 -0.00032
85.15 -0.00007
85.2 0.00017
85.25 0.00022
85.3 0.00018
85.35 0.00012
85.4 -0.00004
85.45 -0.00026
85.5 -0.00046
85.55 -0.00056
85.6 -0.0005
85.65 -0.00054
85.7 -0.00047
85.75 -0.00037
85.8 -0.00033
85.85 -0.00024
85.9 -0.00012
85.95 -0.00011
86 -0.00002
86.05 0.00013
86.1 0.00019
86.15 0.00024
86.2 0.00026
86.25 0.00036
86.3 0.00044
86.35 0.00049
86.4 0.00052
86.45 0.00053
86.5 0.00047
86.55 0.00043
86.6 0.00029
86.65 0.00022
86.7 0.00021
86.75 0.00018
86.8 0.00019
86.85 0.00008
86.9 -0.00006
86.95 -0.00012
87 -0.0001
87.05 -0
87.1 0.00011
87.15 0.00023
87.2 0.00018
87.25 0.00026
87.3 0.00031
87.35 0.0002
87.4 0.00005
87.45 -0.00003
87.5 -0.00007
87.55 -0.00019
87.6 -0.00015
87.65 -0.00022
87.7 -0.00026
87.75 -0.00036
87.8 -0.00042
87.85 -0.0003
87.9 -0.00026
87.95 -0.00025
88 -0.00022
88.05 -0.00019
88.1 -0.00014
88.15 -0.00021
88.2 -0.00011
88.25 0.00003
88.3 0.00019
88.35 0.00021
88.4 0.00024
88.45 0.00013
88.5 0.00005
88.55 0.00002
88.6 0.00009
88.65 0.00001
88.7 0.00002
88.75 0.0001
88.8 0.00024
88.85 0.00032
88.9 0.00027
88.95 0.00014
89 0.00002
89.05 -0
89.1 -0.00002
89.15 0.00006
89.2 0.00005
89.25 0.00009
89.3 0.00006
89.35 -0
89.4 -0.00013
89.45 -0.0002
89.5 -0.00029
89.55 -0.00035
89.6 -0.00046
89.65 -0.00044
89.7 -0.00031
89.75 -0.00021
89.8 -0
89.85 0.00008
89.9 0.00001
89.95 -0.00013
90 -0.00027
90.05 -0.00027
90.1 -0.00014
90.15 -0.00009
90.2 -0.0001
90.25 -0.00001
90.3 -0.00002
90.35 0.00004
90.4 0.00019
90.45 0.00021
90.5 0.00018
90.55 0.00018
90.6 0.00019
90.65 0.00015
90.7 0.00015
90.75 0.00017
90.8 0.00014
90.85 -0.00001
90.9 -0.00019
90.95 -0.00031
91 -0.00031
91.05 -0.00024
91.1 -0.00025
91.15 -0.00022
91.2 -0.00019
91.25 -0.00007
91.3 0.00001
91.35 0.00003
91.4 0.00005
91.45 -0.00001
91.5 -0.00006
91.55 -0.00015
91.6 -0.00031
91.65 -0.00049
91.7 -0.00047
91.75 -0.00033
91.8 -0.0001
91.85 0.00003
91.9 0.00002
91.95 -0.00004
92 -0.00015
92.05 -0.00012
92.1 0.00002
92.15 0.00016
92.2 0.00018
92.25 0.00016
92.3 0.00021
92.35 0.00028
92.4 0.00033
92.45 0.00032
92.5 0.00021
92.55 0.0001
92.6 -0.00006
92.65 -0.00015
92.7 -0.00023
92.75 -0.0003
92.8 -0.00035
92.85 -0.00046
92.9 -0.00037
92.95 -0.00029
93 -0.00023
93.05 -0.00009
93.1 -0.00002
93.15 0.00004
93.2 0.00017
93.25 0.00037
93.3 0.00037
93.35 0.00026
93.4 0.00005
93.45 -0.00007
93.5 -0.00003
93.55 0.00011
93.6 0.00011
93.65 0.0001
93.7 0.0001
93.75 0.00004
93.8 0.00009
93.85 0.00011
93.9 0.00009
93.95 -0.00004
94 -0.00023
94.05 -0.00025
94.1 -0.00021
94.15 -0.00009
94.2 0.00004
94.25 0.00009
94.3 0.0002
94.35 0.00033
94.4 0.00031
94.45 0.00037
94.5 0.00034
94.55 0.00034
94.6 0.00041
94.65 0.00041
94.7 0.00033
94.75 0.00033
94.8 0.00033
94.85 0.00021
94.9 0.00011
94.95 0.00007
95 -0.00001
95.05 -0.00009
95.1 -0.00023
95.15 -0.0002
95.2 -0.00018
95.25 -0.00009
95.3 0.00004
95.35 0.00018
95.4 0.00032
95.45 0.0004
95.5 0.00045
95.55 0.00049
95.6 0.00036
95.65 0.00033
95.7 0.00028
95.75 0.00019
95.8 0.00009
95.85 0.00013
95.9 0.00012
95.95 -0.00001
96 -0.00021
96.05 -0.00025
96.1 -0.00027
96.15 -0.00037
96.2 -0.00049
96.25 -0.0004
96.3 -0.00022
96.35 -0.00012
96.4 -0.00013
96.45 -0.00023
96.5 -0.00026
96.55 -0.00036
96.6 -0.00036
96.65 -0.00023
96.7 -0.00015
96.75 -0.00016
96.8 -0.0002
96.85 -0.00028
96.9 -0.00019
96.95 -0.0002
97 -0.00009
97.05 -0.00013
97.1 -0.00013
97.15 -0.00014
97.2 -0.00016
97.25 -0.00026
97.3 -0.00039
97.35 -0.00051
97.4 -0.00048
97.45 -0.00048
97.5 -0.00041
97.55 -0.00036
97.6 -0.00036
97.65 -0.00034
97.7 -0.00022
97.75 -0.00016
97.8 -0.0001
97.85 -0.00013
97.9 -0.00023
97.95 -0.00021
98 -0.00018
98.05 -0.00011
98.1 -0.0001
98.15 0.00003
98.2 0.00002
98.25 -0.00004
98.3 0.00001
98.35 -0.00007
98.4 -0.00003
98.45 -0.00009
98.5 -0.00019
98.55 -0.00031
98.6 -0.00026
98.65 -0.00023
98.7 -0.00018
98.75 -0.00011
98.8 -0.00005
98.85 0.00002
98.9 0.00003
98.95 -0
99 -0.00001
99.05 -0.00006
99.1 -0.0001
99.15 -0.00012
99.2 -0.00008
99.25 0.00007
99.3 0.00023
99.35 0.00031
99.4 0.00038
99.45 0.00033
99.5 0.00033
99.55 0.00038
99.6 0.00031
99.65 0.00027
99.7 0.00018
99.75 0.00018
99.8 0.00019
99.85 0.00019
99.9 0.00028
99.95 0.00039
