0 0
0.05 0.00025
0.1 0.00231
0.15 0.00459
0.2 0.00659
0.25 0.00912
0.3 0.01172
0.35 0.0139
0.4 0.01521
0.45 0.01544
0.5 0.01499
0.55 0.01479
0.6 0.01394
0.65 0.01338
0.7 0.01199
0.75 0.01078
0.8 0.01005
0.85 0.01049
0.9 0.0104
0.95 0.00958
1 0.00805
1.05 0.00792
1.1 0.00785
1.15 0.00726
1.2 0.00732
1.25 0.00769
1.3 0.00838
1.35 0.00914
1.4 0.00945
1.45 0.01017
1.5 0.0113
1.55 0.01137
1.6 0.01012
1.65 0.00826
1.7 0.00612
1.75 0.00497
1.8 0.00441
1.85 0.00343
1.9 0.00363
1.95 0.00395
2 0.0035
2.05 0.00258
2.1 0.00294
2.15 0.00421
2.2 0.0059
2.25 0.00689
2.3 0.00651
2.35 0.00608
2.4 0.00537
2.45 0.00539
2.5 0.00615
2.55 0.00685
2.6 0.00664
2.65 0.00655
2.7 0.00645
2.75 0.00632
2.8 0.00593
2.85 0.00466
2.9 0.0036
2.95 0.00391
3 0.00403
3.05 0.00464
3.1 0.00569
3.15 0.00575
3.2 0.00582
3.25 0.00536
3.3 0.00575
3.35 0.00602
3.4 0.00518
3.45 0.00418
3.5 0.00324
3.55 0.00359
3.6 0.00448
3.65 0.00567
3.7 0.00716
3.75 0.00717
3.8 0.00616
3.85 0.00583
3.9 0.00462
3.95 0.00441
4 0.00438
4.05 0.00419
4.1 0.00429
4.15 0.00342
4.2 0.00256
4.25 0.00201
4.3 0.00187
4.35 0.00225
4.4 0.00331
4.45 0.00312
4.5 0.00341
4.55 0.00412
4.6 0.00426
4.65 0.00375
4.7 0.00375
4.75 0.00418
4.8 0.00502
4.85 0.00467
4.9 0.00444
4.95 0.00361
5 0.00248
5.05 0.00204
5.1 0.00275
5.15 0.0023
5.2 0.00215
5.25 0.00137
5.3 0.00031
5.35 -0.0005
5.4 -0.00141
5.45 -0.00174
5.5 -0.00258
5.55 -0.00206
5.6 -0.00191
5.65 -0.0015
5.7 -0.00151
5.75 -0.00036
5.8 0.00026
5.85 0.00165
5.9 0.00201
5.95 0.00294
6 0.00289
6.05 0.00335
6.1 0.00354
6.15 0.00366
6.2 0.00385
6.25 0.00368
6.3 0.00366
6.35 0.00273
6.4 0.00239
6.45 0.00174
6.5 0.00176
6.55 0.00274
6.6 0.00383
6.65 0.00512
6.7 0.006
6.75 0.00674
6.8 0.00694
6.85 0.00701
6.9 0.00579
6.95 0.00456
7 0.00345
7.05 0.00188
7.1 0.00092
7.15 0.00058
7.2 0.0003
7.25 0.00057
7.3 0.00074
7.35 0.00139
7.4 0.00237
7.45 0.00338
7.5 0.00371
7.55 0.00308
7.6 0.00333
7.65 0.00274
7.7 0.00218
7.75 0.00081
7.8 0.00089
7.85 0.00053
7.9 -0.0006
7.95 -0.0013
8 -0.00178
8.05 -0.0024
8.1 -0.00204
8.15 -0.00145
8.2 -0.00077
8.25 -0.00107
8.3 -0.00066
8.35 0.00059
8.4 0.00043
8.45 -0.00058
8.5 -0.00097
8.55 -0.00189
8.6 -0.00187
8.65 -0.0014
8.7 -0.00081
8.75 -0.00078
8.8 -0.00034
8.85 0.00087
8.9 0.00111
8.95 0.00108
9 0.0008
9.05 0.00084
9.1 0.00178
9.15 0.0023
9.2 0.00174
9.25 0.00183
9.3 0.00103
9.35 0.00045
9.4 0.0002
9.45 0.00102
9.5 0.00162
9.55 0.00162
9.6 0.00125
9.65 0.00035
9.7 -0.00108
9.75 -0.00142
9.8 -0.00147
9.85 -0.00198
9.9 -0.00138
9.95 -0.00098
10 -0.00096
10.05 -0.00164
10.1 -0.00129
10.15 -0.00025
10.2 0.00144
10.25 0.00204
10.3 0.0021
10.35 0.00176
10.4 0.00063
10.45 -0.00031
10.5 -0.00091
10.55 -0.00163
10.6 -0.00279
10.65 -0.00384
10.7 -0.00346
10.75 -0.00218
10.8 -0.00139
10.85 -0.00119
10.9 -0.00135
10.95 -0.00113
11 -0.00109
11.05 -0.00034
11.1 0.00111
11.15 0.00138
11.2 0.00067
11.25 -0.00014
11.3 0.00036
11.35 -0.00007
11.4 -0.00005
11.45 -0.00031
11.5 -0.00041
11.55 -0.00037
11.6 -0.00112
11.65 -0.00186
11.7 -0.00138
11.75 -0.00153
11.8 -0.0018
11.85 -0.00221
11.9 -0.0022
11.95 -0.00182
12 -0.00226
12.05 -0.00238
12.1 -0.00272
12.15 -0.00199
12.2 -0.00038
12.25 -0.00016
12.3 -0
12.35 0.00043
12.4 0.00014
12.45 0.00039
12.5 0.0004
12.55 -0.00048
12.6 -0.00096
12.65 -0.00055
12.7 -0.00055
12.75 -0.0013
12.8 -0.0024
12.85 -0.00186
12.9 -0.00175
12.95 -0.00127
13 -0.00098
13.05 0.00026
13.1 0.00071
13.15 0.00096
13.2 0.00189
13.25 0.00268
13.3 0.00293
13.35 0.00272
13.4 0.00171
13.45 0.00052
13.5 -0.00064
13.55 -0.0009
13.6 -0.00185
13.65 -0.00192
13.7 -0.00152
13.75 -0.00079
13.8 -0.00053
13.85 -0.00052
13.9 0.00004
13.95 0.00092
14 0.00181
14.05 0.00317
14.1 0.00449
14.15 0.00415
14.2 0.00309
14.25 0.00213
14.3 0.00155
14.35 0.00159
14.4 0.00215
14.45 0.00228
14.5 0.00257
14.55 0.00281
14.6 0.0025
14.65 0.00187
14.7 0.00226
14.75 0.0023
14.8 0.0027
14.85 0.0022
14.9 0.00202
14.95 0.00258
15 0.00228
15.05 0.00094
15.1 -0.00062
15.15 -0.00146
15.2 -0.00201
15.25 -0.00126
15.3 -0.00157
15.35 -0.00206
15.4 -0.00182
15.45 -0.00194
15.5 -0.00201
15.55 -0.00267
15.6 -0.00321
15.65 -0.00238
15.7 -0.00193
15.75 -0.00165
15.8 -0.00086
15.85 0.00017
15.9 0.00048
15.95 -0.00008
16 0.00016
16.05 0.00087
16.1 0.00212
16.15 0.00374
16.2 0.00535
16.25 0.00607
16.3 0.00563
16.35 0.00524
16.4 0.00465
16.45 0.00451
16.5 0.00378
16.55 0.00357
16.6 0.00237
16.65 0.00219
16.7 0.001
16.75 0.00094
16.8 0.00029
16.85 -0.00058
16.9 -0.00062
16.95 -0.00015
17 -0.00014
17.05 -0.00082
17.1 -0.00047
17.15 -0.00038
17.2 -0.00098
17.25 -0.00055
17.3 0.00069
17.35 0.00117
17.4 0.00177
17.45 0.00124
17.5 0.00099
17.55 0.00087
17.6 -0.00024
17.65 -0.00023
17.7 0.00023
17.75 0.00107
17.8 0.00151
17.85 0.00111
17.9 0.00063
17.95 0.00038
18 0.0003
18.05 0.00107
18.1 0.00161
18.15 0.00178
18.2 0.00071
18.25 0.00054
18.3 0.00095
18.35 0.00123
18.4 0.00072
18.45 -0.00031
18.5 -0.00083
18.55 -0.00211
18.6 -0.00347
18.65 -0.00439
18.7 -0.00371
18.75 -0.00359
18.8 -0.00384
18.85 -0.00302
18.9 -0.00293
18.95 -0.00292
19 -0.00257
19.05 -0.00245
19.1 -0.00245
19.15 -0.00137
19.2 0.00002
19.25 0.00179
19.3 0.00234
19.35 0.00274
19.4 0.00332
19.45 0.00255
19.5 0.00187
19.55 0.00155
19.6 0.00183
19.65 0.00278
19.7 0.00255
19.75 0.00298
19.8 0.00367
19.85 0.00301
19.9 0.00173
19.95 0.00147
20 0.00038
20.05 0.00047
20.1 0.00134
20.15 0.00244
20.2 0.00254
20.25 0.00135
20.3 -0.0001
20.35 -0.00037
20.4 0.00026
20.45 0.00084
20.5 0.00194
20.55 0.0021
20.6 0.0019
20.65 0.00232
20.7 0.00276
20.75 0.00267
20.8 0.0023
20.85 0.00114
20.9 0.0009
20.95 0.00154
21 0.00153
21.05 0.00087
21.1 -0.00014
21.15 -0.00144
21.2 -0.00306
21.25 -0.00367
21.3 -0.00307
21.35 -0.00221
21.4 -0.00233
21.45 -0.00289
21.5 -0.0021
21.55 -0.00189
21.6 -0.00215
21.65 -0.00179
21.7 -0.00205
21.75 -0.00308
21.8 -0.00289
21.85 -0.00291
21.9 -0.00327
21.95 -0.00358
22 -0.00398
22.05 -0.00339
22.1 -0.00245
22.15 -0.0009
22.2 -0.00063
22.25 -0.00125
22.3 -0.00082
22.35 -0.00124
22.4 -0.00079
22.45 -0.00067
22.5 -0.00033
22.55 -0.00095
22.6 -0.00086
22.65 -0.00102
22.7 -0.00141
22.75 -0.00157
22.8 -0.00171
22.85 -0.00148
22.9 -0.00159
22.95 -0.0015
23 -0.00066
23.05 0.00065
23.1 0.00093
23.15 0.00091
23.2 0.0005
23.25 -0.00047
23.3 -0.00011
23.35 -0.00017
23.4 0.00023
23.45 0.00129
23.5 0.00147
23.55 0.00203
23.6 0.00258
23.65 0.00344
23.7 0.00413
23.75 0.00375
23.8 0.00289
23.85 0.0016
23.9 0.00153
23.95 0.0007
24 -0.00038
24.05 -0.00115
24.1 -0.00073
24.15 -0.00005
24.2 0.00119
24.25 0.00127
24.3 0.00061
24.35 -0.00073
24.4 -0.00247
24.45 -0.00331
24.5 -0.00333
24.55 -0.00346
24.6 -0.00388
24.65 -0.00409
24.7 -0.00484
24.75 -0.0055
24.8 -0.00538
24.85 -0.00555
24.9 -0.00596
24.95 -0.00538
25 -0.00371
25.05 -0.00228
25.1 -0.0012
25.15 -0.00016
25.2 0.00065
25.25 0.00063
25.3 0.00098
25.35 0.00181
25.4 0.0018
25.45 0.00126
25.5 0.00059
25.55 -0.00081
25.6 -0.00113
25.65 -0.00124
25.7 -0.00094
25.75 -0.00066
25.8 -0.00051
25.85 -0.00065
25.9 -0.00128
25.95 -0.00166
26 -0.00245
26.05 -0.00307
26.1 -0.00384
26.15 -0.00324
26.2 -0.00348
26.25 -0.00347
26.3 -0.00388
26.35 -0.00435
26.4 -0.00369
26.45 -0.0025
26.5 -0.00135
26.55 -0.00078
26.6 -0.00085
26.65 -0.0002
26.7 0.00049
26.75 0.00116
26.8 0.00207
26.85 0.00269
26.9 0.00314
26.95 0.00357
27 0.00361
27.05 0.00296
27.1 0.00169
27.15 0.00007
27.2 -0.00081
27.25 -0.0012
27.3 -0.00106
27.35 -0.00106
27.4 -0.00107
27.45 -0.0011
27.5 -0.00034
27.55 0.00094
27.6 0.00124
27.65 0.001
27.7 0.00041
27.75 -0.00039
27.8 -0.00021
27.85 -0.00014
27.9 -0.00043
27.95 -0.00073
28 -0.00127
28.05 -0.00174
28.1 -0.0014
28.15 -0.00109
28.2 -0.00103
28.25 -0.0007
28.3 0.00012
28.35 0.00074
28.4 0.00132
28.45 0.00096
28.5 0.00079
28.55 0.00074
28.6 0.00095
28.65 0.0011
28.7 0.00181
28.75 0.00212
28.8 0.00231
28.85 0.00214
28.9 0.00263
28.95 0.00233
29 0.00227
29.05 0.00123
29.1 -0.00019
29.15 -0.00097
29.2 -0.0009
29.25 -0.00128
29.3 -0.0009
29.35 -0.00066
29.4 0.00012
29.45 0.00045
29.5 0.00078
29.55 0.00021
29.6 -0.00037
29.65 -0.00055
29.7 0.00024
29.75 0.00027
29.8 0.0006
29.85 0.00045
29.9 0.00129
29.95 0.00237
30 0.00365
30.05 0.00338
30.1 0.00287
30.15 0.00314
30.2 0.00231
30.25 0.00208
30.3 0.0014
30.35 -0.00011
30.4 -0.00075
30.45 -0.00017
30.5 0.00027
30.55 -0.00036
30.6 -0.00056
30.65 0.00024
30.7 0.00155
30.75 0.00302
30.8 0.00362
30.85 0.00466
30.9 0.00395
30.95 0.00381
31 0.00309
31.05 0.00227
31.1 0.00211
31.15 0.00113
31.2 0.0007
31.25 0.00041
31.3 -0.00052
31.35 -0.001
31.4 -0.00103
31.45 -0.00062
31.5 -0.00106
31.55 -0.00107
31.6 -0.0013
31.65 -0.00053
31.7 -0.00046
31.75 -0.00035
31.8 -0.00076
31.85 -0.00081
31.9 -0.0015
31.95 -0.00188
32 -0.00226
32.05 -0.00278
32.1 -0.00346
32.15 -0.00321
32.2 -0.00225
32.25 -0.0006
32.3 -0.00017
32.35 -0.00034
32.4 0.00034
32.45 0.00163
32.5 0.00133
32.55 0.00109
32.6 0.00135
32.65 0.00068
32.7 0.00039
32.75 -0.0004
32.8 -0.00154
32.85 -0.00275
32.9 -0.004
32.95 -0.0041
33 -0.00301
33.05 -0.00213
33.1 -0.00214
33.15 -0.0012
33.2 -0.00103
33.25 -0.001
33.3 -0.00147
33.35 -0.00091
33.4 -0.00055
33.45 -0.00063
33.5 -0.00157
33.55 -0.00204
33.6 -0.00145
33.65 -0.00119
33.7 -0.00037
33.75 0.001
33.8 0.00153
33.85 0.00233
33.9 0.00358
33.95 0.00456
34 0.00433
34.05 0.00345
34.1 0.00181
34.15 0.00055
34.2 0.00063
34.25 0.00098
34.3 0.00095
34.35 0.00108
34.4 0.00197
34.45 0.00221
34.5 0.00227
34.55 0.00213
34.6 0.00216
34.65 0.00247
34.7 0.00189
34.75 0.00052
34.8 -0.00114
34.85 -0.0019
34.9 -0.00273
34.95 -0.00367
35 -0.00343
35.05 -0.00247
35.1 -0.00175
35.15 -0.00063
35.2 -0.00063
35.25 -0.00127
35.3 -0.00234
35.35 -0.00265
35.4 -0.0036
35.45 -0.0033
35.5 -0.00274
35.55 -0.00265
35.6 -0.00313
35.65 -0.00256
35.7 -0.00251
35.75 -0.00136
35.8 0.00016
35.85 0.00136
35.9 0.0028
35.95 0.00288
36 0.00177
36.05 0.00118
36.1 0.00086
36.15 0.00125
36.2 0.002
36.25 0.00204
36.3 0.00263
36.35 0.00328
36.4 0.0028
36.45 0.00171
36.5 0.00026
36.55 -0.00058
36.6 -0.00068
36.65 -0.00037
36.7 0.00057
36.75 0.00169
36.8 0.00195
36.85 0.00183
36.9 0.00124
36.95 -0.00018
37 -0.00031
37.05 0.00051
37.1 0.00095
37.15 0.00199
37.2 0.00344
37.25 0.00446
37.3 0.00449
37.35 0.00403
37.4 0.00331
37.45 0.00285
37.5 0.00214
37.55 0.00139
37.6 0.0002
37.65 -0.00078
37.7 -0.00125
37.75 -0.00069
37.8 0.00042
37.85 0.00099
37.9 0.00121
37.95 0.00131
38 0.00107
38.05 -0.00001
38.1 -0.00082
38.15 -0.00162
38.2 -0.00269
38.25 -0.00228
38.3 -0.00154
38.35 -0.00092
38.4 -0.00015
38.45 0.00014
38.5 -0.00046
38.55 0
38.6 -0.00044
38.65 -0.00145
38.7 -0.0023
38.75 -0.00203
38.8 -0.00161
38.85 -0.00034
38.9 0.00025
38.95 0.00086
39 0.00206
39.05 0.0031
39.1 0.00274
39.15 0.00144
39.2 0.0008
39.25 0.00061
39.3 -0.00016
39.35 -0.00104
39.4 -0.00062
39.45 -0.0002
39.5 0.00047
39.55 0.00091
39.6 0.0008
39.65 -0.00009
39.7 -0.00044
39.75 -0.00004
39.8 0.00088
39.85 0.0017
39.9 0.00276
39.95 0.00313
40 0.00225
40.05 0.00086
40.1 -0.00026
40.15 -0.00197
40.2 -0.0032
40.25 -0.00339
40.3 -0.00342
40.35 -0.00296
40.4 -0.00211
40.45 -0.00117
40.5 -0.00013
40.55 0.00071
40.6 0.0006
40.65 0.00035
40.7 0.00077
40.75 0.00101
40.8 0.00064
40.85 0.00079
40.9 0.00115
40.95 0.0003
41 0.00056
41.05 0.00079
41.1 0.00134
41.15 0.00176
41.2 0.00264
41.25 0.00247
41.3 0.0029
41.35 0.00195
41.4 0.00155
41.45 0.00173
41.5 0.00214
41.55 0.00126
41.6 0.0008
41.65 0.00091
41.7 0.00047
41.75 0.00027
41.8 0.00008
41.85 -0.00067
41.9 -0.00058
41.95 0.00011
42 -0.00041
42.05 -0.00054
42.1 -0.00024
42.15 -0.00031
42.2 -0.00109
42.25 -0.00152
42.3 -0.00176
42.35 -0.00282
42.4 -0.00314
42.45 -0.00407
42.5 -0.00499
42.55 -0.00473
42.6 -0.00351
42.65 -0.00295
42.7 -0.0031
42.75 -0.00343
42.8 -0.00344
42.85 -0.00254
42.9 -0.00278
42.95 -0.00176
43 -0.00057
43.05 0.00041
43.1 0.00168
43.15 0.00135
43.2 0.00161
43.25 0.00083
43.3 -0.00063
43.35 -0.00122
43.4 -0.00057
43.45 0.00005
43.5 0.00067
43.55 0.00033
43.6 0.00085
43.65 0.00127
43.7 0.00075
43.75 0.00095
43.8 0.00011
43.85 0.00003
43.9 0.00053
43.95 0.00086
44 0.00143
44.05 0.0019
44.1 0.00242
44.15 0.00248
44.2 0.00273
44.25 0.00348
44.3 0.00368
44.35 0.00354
44.4 0.00273
44.45 0.00114
44.5 -0.00077
44.55 -0.00288
44.6 -0.00327
44.65 -0.00244
44.7 -0.00232
44.75 -0.0024
44.8 -0.00275
44.85 -0.00282
44.9 -0.00249
44.95 -0.00121
45 0.00046
45.05 0.00098
45.1 0.00156
45.15 0.00103
45.2 0.00144
45.25 0.00087
45.3 0.00117
45.35 0.00106
45.4 0.00048
45.45 -0.00077
45.5 -0.0025
45.55 -0.00321
45.6 -0.00271
45.65 -0.00225
45.7 -0.00267
45.75 -0.00292
45.8 -0.00283
45.85 -0.00292
45.9 -0.00368
45.95 -0.00414
46 -0.00469
46.05 -0.00532
46.1 -0.00547
46.15 -0.00508
46.2 -0.00409
46.25 -0.0038
46.3 -0.0026
46.35 -0.00187
46.4 -0.00069
46.45 -0.00041
46.5 -0.00083
46.55 -0.00084
46.6 -0.00016
46.65 0.00089
46.7 0.00088
46.75 0.00156
46.8 0.0023
46.85 0.00229
46.9 0.00253
46.95 0.00307
47 0.0026
47.05 0.00113
47.1 -0.00072
47.15 -0.00154
47.2 -0.00159
47.25 -0.00158
47.3 -0.00218
47.35 -0.00158
47.4 -0.00152
47.45 -0.00088
47.5 -0.00048
47.55 0.00066
47.6 0.00089
47.65 0.00176
47.7 0.00203
47.75 0.00228
47.8 0.00181
47.85 0.00229
47.9 0.00233
47.95 0.00289
48 0.00275
48.05 0.00236
48.1 0.00125
48.15 0.00054
48.2 -0.00017
48.25 -0.0004
48.3 -0.00001
48.35 -0.00009
48.4 0.00079
48.45 0.0008
48.5 0.00103
48.55 0.00025
48.6 -0.00092
48.65 -0.0025
48.7 -0.00234
48.75 -0.00305
48.8 -0.00396
48.85 -0.00516
48.9 -0.00585
48.95 -0.00496
49 -0.00375
49.05 -0.00264
49.1 -0.00248
49.15 -0.0022
49.2 -0.00249
49.25 -0.00268
49.3 -0.00344
49.35 -0.00336
49.4 -0.00266
49.45 -0.00153
49.5 -0.00067
49.55 0.00062
49.6 0.00206
49.65 0.0026
49.7 0.00235
49.75 0.00281
49.8 0.00329
49.85 0.00253
49.9 0.00257
49.95 0.00257
50 0.00249
50.05 0.00138
50.1 0.00043
50.15 0.00021
50.2 -0.00059
50.25 -0.00073
50.3 -0.00096
50.35 -0.00167
50.4 -0.00156
50.45 -0.00063
50.5 -0.00005
50.55 0.00045
50.6 0.00082
50.65 0.00123
50.7 0.00171
50.75 0.0015
50.8 0.00092
50.85 0.00024
50.9 -0.00027
50.95 -0.00123
51 -0.00182
51.05 -0.00143
51.1 -0.00155
51.15 -0.00225
51.2 -0.00296
51.25 -0.00318
51.3 -0.00216
51.35 -0.00083
51.4 -0.00018
51.45 0.00086
51.5 0.00082
51.55 0.00068
51.6 0.00007
51.65 -0.00105
51.7 -0.00252
51.75 -0.00322
51.8 -0.00386
51.85 -0.00409
51.9 -0.00401
51.95 -0.00425
52 -0.00403
52.05 -0.00445
52.1 -0.00389
52.15 -0.00237
52.2 -0.00164
52.25 -0.00069
52.3 -0.00034
52.35 -0.00097
52.4 -0.00073
52.45 -0.00097
52.5 -0.00081
52.55 0.00039
52.6 0.00055
52.65 0.00065
52.7 0.00067
52.75 0.0008
52.8 0.00025
52.85 -0.00041
52.9 -0.00006
52.95 0.00095
53 0.00106
53.05 0.00032
53.1 -0.00012
53.15 -0.00052
53.2 -0.00134
53.25 -0.00175
53.3 -0.00092
53.35 0.00037
53.4 0.00142
53.45 0.00148
53.5 0.00209
53.55 0.00185
53.6 0.00232
53.65 0.00345
53.7 0.00456
53.75 0.00402
53.8 0.00338
53.85 0.00345
53.9 0.00273
53.95 0.00289
54 0.00328
54.05 0.00399
54.1 0.0042
54.15 0.00457
54.2 0.00523
54.25 0.00571
54.3 0.0046
54.35 0.00305
54.4 0.00197
54.45 0.00069
54.5 0.00066
54.55 0.00025
54.6 -0.00049
54.65 -0.00027
54.7 0.00045
54.75 0.00097
54.8 0.00041
54.85 0.00005
54.9 0.00066
54.95 0.00043
55 0.00045
55.05 0.00134
55.1 0.00144
55.15 0.00187
55.2 0.00163
55.25 0.00108
55.3 0.00101
55.35 0.00093
55.4 0.00162
55.45 0.00235
55.5 0.00204
55.55 0.00237
55.6 0.00158
55.65 0.00023
55.7 -0.00058
55.75 -0.00131
55.8 -0.00079
55.85 -0.00018
55.9 0.00098
55.95 0.00099
56 0.00074
56.05 0.00115
56.1 0.00129
56.15 0.00131
56.2 0.00131
56.25 0.00106
56.3 0.00063
56.35 -0.00027
56.4 -0.001
56.45 -0.00241
56.5 -0.00235
56.55 -0.00288
56.6 -0.00339
56.65 -0.00357
56.7 -0.00389
56.75 -0.00392
56.8 -0.00367
56.85 -0.00308
56.9 -0.00315
56.95 -0.00215
57 -0.00053
57.05 0.00055
57.1 0.00142
57.15 0.00131
57.2 0.00112
57.25 0.00081
57.3 -0.00042
57.35 -0.00199
57.4 -0.0019
57.45 -0.00144
57.5 -0.00116
57.55 -0.00007
57.6 0.00025
57.65 0.00102
57.7 0.00169
57.75 0.00161
57.8 0.00186
57.85 0.00137
57.9 0.00144
57.95 0.00116
58 -0.00012
58.05 -0.0017
58.1 -0.0029
58.15 -0.00259
58.2 -0.00128
58.25 -0.0007
58.3 -0.00063
58.35 -0.00011
58.4 0
58.45 0.00052
58.5 0.00154
58.55 0.00193
58.6 0.00187
58.65 0.00102
58.7 0.00034
58.75 -0.00097
58.8 -0.0027
58.85 -0.00367
58.9 -0.00344
58.95 -0.00329
59 -0.00368
59.05 -0.00368
59.1 -0.00285
59.15 -0.00171
59.2 -0.00106
59.25 -0.00146
59.3 -0.00112
59.35 -0.00083
59.4 -0.00073
59.45 0.00025
59.5 0.00166
59.55 0.00265
59.6 0.00289
59.65 0.00184
59.7 0.00071
59.75 -0.00076
59.8 -0.00248
59.85 -0.0032
59.9 -0.0028
59.95 -0.00233
60 -0.00259
60.05 -0.00328
60.1 -0.00288
60.15 -0.00267
60.2 -0.00261
60.25 -0.00219
60.3 -0.00074
60.35 0.00068
60.4 0.00079
60.45 0.0002
60.5 0.00038
60.55 0.00091
60.6 0.00159
60.65 0.00096
60.7 0.00074
60.75 0.001
60.8 0.00127
60.85 0.00091
60.9 0.00064
60.95 0.00035
61 -0.00033
61.05 -0.001
61.1 -0.00077
61.15 -0.00128
61.2 -0.00146
61.25 -0.00151
61.3 -0.00068
61.35 -0.001
61.4 -0.00125
61.45 -0.00214
61.5 -0.00183
61.55 -0.00059
61.6 0.00035
61.65 0.00096
61.7 0.00104
61.75 0.00018
61.8 0.00016
61.85 0.00084
61.9 0.00053
61.95 0.00014
62 0.00036
62.05 0.00026
62.1 0.00078
62.15 0.00175
62.2 0.003
62.25 0.00368
62.3 0.00334
62.35 0.00339
62.4 0.00219
62.45 0.00088
62.5 -0.0009
62.55 -0.00229
62.6 -0.00226
62.65 -0.00185
62.7 -0.00155
62.75 -0.0018
62.8 -0.00251
62.85 -0.00209
62.9 -0.00246
62.95 -0.00281
63 -0.00262
63.05 -0.00252
63.1 -0.003
63.15 -0.00234
63.2 -0.00186
63.25 -0.00225
63.3 -0.00192
63.35 -0.00087
63.4 0.00072
63.45 0.00091
63.5 0.00132
63.55 0.0013
63.6 0.00144
63.65 0.00062
63.7 0.00026
63.75 -0.00083
63.8 -0.00087
63.85 -0.00122
63.9 -0.0009
63.95 0.00029
64 0.00135
64.05 0.00167
64.1 0.00133
64.15 0.00191
64.2 0.00165
64.25 0.00093
64.3 0.00053
64.35 0.00093
64.4 0.00039
64.45 -0.0005
64.5 -0.00168
64.55 -0.00265
64.6 -0.00309
64.65 -0.00226
64.7 -0.00129
64.75 0.00025
64.8 0.00163
64.85 0.00174
64.9 0.00103
64.95 0.00057
65 0.00119
65.05 0.0011
65.1 0.00028
65.15 -0.00103
65.2 -0.00078
65.25 -0.00082
65.3 -0.00133
65.35 -0.00081
65.4 -0.00016
65.45 0.00116
65.5 0.00143
65.55 0.00192
65.6 0.00171
65.65 0.00176
65.7 0.00172
65.75 0.00153
65.8 0.00099
65.85 0.00155
65.9 0.00132
65.95 0.00114
66 0.00101
66.05 0.00183
66.1 0.00148
66.15 0.00203
66.2 0.00188
66.25 0.00124
66.3 0.00144
66.35 0.00129
66.4 0.00028
66.45 0.00035
66.5 -0.00062
66.55 -0.00069
66.6 -0.00098
66.65 -0.00122
66.7 -0.00126
66.75 -0.00099
66.8 -0.00092
66.85 -0.00089
66.9 -0.00074
66.95 0.00019
67 0.0006
67.05 0.00152
67.1 0.00129
67.15 0.00053
67.2 0.0005
67.25 0.00018
67.3 -0.00015
67.35 -0.00118
67.4 -0.00096
67.45 -0.00131
67.5 -0.00204
67.55 -0.00252
67.6 -0.0032
67.65 -0.00362
67.7 -0.00415
67.75 -0.00388
67.8 -0.00269
67.85 -0.00085
67.9 -0.00031
67.95 -0.00026
68 0.00044
68.05 0.00047
68.1 0.00071
68.15 0.0002
68.2 -0.00081
68.25 -0.00054
68.3 0.00002
68.35 0.00026
68.4 0.00113
68.45 0.00081
68.5 -0.00016
68.55 -0.00151
68.6 -0.00194
68.65 -0.0026
68.7 -0.00247
68.75 -0.00128
68.8 -0.00092
68.85 -0.00012
68.9 -0.00026
68.95 0.00032
69 0.00075
69.05 0.00048
69.1 0.00074
69.15 0.00112
69.2 0.00106
69.25 0.0008
69.3 -0.00018
69.35 -0.00041
69.4 -0.00039
69.45 0.00023
69.5 -0.00001
69.55 -0.00069
69.6 -0.00056
69.65 -0.00065
69.7 -0.00081
69.75 -0.00156
69.8 -0.0012
69.85 -0.00125
69.9 -0.00138
69.95 -0.00123
70 -0.00161
70.05 -0.00264
70.1 -0.00331
70.15 -0.00424
70.2 -0.00483
70.25 -0.00501
70.3 -0.00523
70.35 -0.00536
70.4 -0.00577
70.45 -0.00567
70.5 -0.00483
70.55 -0.00297
70.6 -0.00229
70.65 -0.00146
70.7 -0.0005
70.75 0.00115
70.8 0.00292
70.85 0.0034
70.9 0.00421
70.95 0.00461
71 0.00454
71.05 0.00441
71.1 0.00497
71.15 0.00572
71.2 0.00612
71.25 0.00661
71.3 0.00702
71.35 0.00642
71.4 0.00511
71.45 0.00305
71.5 0.00159
71.55 0.00053
71.6 0.00014
71.65 0.00047
71.7 0.00086
71.75 0.00148
71.8 0.00113
71.85 0.0013
71.9 0.00205
71.95 0.00279
72 0.00326
72.05 0.00248
72.1 0.00128
72.15 -0.00007
72.2 -0.00151
72.25 -0.00272
72.3 -0.00291
72.35 -0.00246
72.4 -0.00263
72.45 -0.0026
72.5 -0.00206
72.55 -0.0022
72.6 -0.00288
72.65 -0.00361
72.7 -0.00285
72.75 -0.00125
72.8 0.0006
72.85 0.00206
72.9 0.00283
72.95 0.00248
73 0.00288
73.05 0.00384
73.1 0.0041
73.15 0.00298
73.2 0.00275
73.25 0.00325
73.3 0.00421
73.35 0.00375
73.4 0.00301
73.45 0.00266
73.5 0.00168
73.55 0.00046
73.6 -0.00031
73.65 -0.00088
73.7 -0.00039
73.75 0.00085
73.8 0.001
73.85 0.00009
73.9 0.00038
73.95 0.00075
74 0.00182
74.05 0.0029
74.1 0.0026
74.15 0.0014
74.2 0.00028
74.25 -0.00131
74.3 -0.00274
74.35 -0.00289
74.4 -0.00205
74.45 -0.00188
74.5 -0.00075
74.55 0.00075
74.6 0.00099
74.65 0.0006
74.7 0.00069
74.75 0.00108
74.8 0.00191
74.85 0.00171
74.9 0.00235
74.95 0.00319
75 0.00299
75.05 0.00318
75.1 0.00235
75.15 0.00219
75.2 0.00099
75.25 -0.00038
75.3 -0.00049
75.35 -0.00057
75.4 -0.00118
75.45 -0.00066
75.5 0.00046
75.55 0.00129
75.6 0.00243
75.65 0.00198
75.7 0.00176
75.75 0.00156
75.8 0.00045
75.85 -0.00153
75.9 -0.00377
75.95 -0.0054
76 -0.00687
76.05 -0.0087
76.1 -0.01131
76.15 -0.01468
76.2 -0.01808
76.25 -0.02135
76.3 -0.02412
76.35 -0.02831
76.4 -0.03285
76.45 -0.03846
76.5 -0.04391
76.55 -0.05116
76.6 -0.05973
76.65 -0.06918
76.7 -0.07969
76.75 -0.09001
76.8 -0.10097
76.85 -0.11345
76.9 -0.12801
76.95 -0.14397
77 -0.16236
77.05 -0.18176
77.1 -0.20416
77.15 -0.22862
77.2 -0.25342
77.25 -0.2792
77.3 -0.30594
77.35 -0.33462
77.4 -0.36392
77.45 -0.3942
77.5 -0.4235
77.55 -0.45287
77.6 -0.48135
77.65 -0.50916
77.7 -0.53499
77.75 -0.55855
77.8 -0.58052
77.85 -0.60036
77.9 -0.6168
77.95 -0.62935
78 -0.63697
78.05 -0.64168
78.1 -0.64197
78.15 -0.63752
78.2 -0.62731
78.25 -0.61152
78.3 -0.59176
78.35 -0.56786
78.4 -0.53827
78.45 -0.50355
78.5 -0.46579
78.55 -0.42465
78.6 -0.38122
78.65 -0.33628
78.7 -0.28935
78.75 -0.24207
78.8 -0.19383
78.85 -0.14568
78.9 -0.09799
78.95 -0.05167
79 -0.00744
79.05 0.03581
79.1 0.07604
79.15 0.11456
79.2 0.15114
79.25 0.18368
79.3 0.21283
79.35 0.2395
79.4 0.26288
79.45 0.28433
79.5 0.30335
79.55 0.32026
79.6 0.33408
79.65 0.34648
79.7 0.35678
79.75 0.36652
79.8 0.37599
79.85 0.38382
79.9 0.39052
79.95 0.39753
80 0.40378
80.05 0.40942
80.1 0.41521
80.15 0.42076
80.2 0.42627
80.25 0.43031
80.3 0.4344
80.35 0.43862
80.4 0.44226
80.45 0.44536
80.5 0.44741
80.55 0.449
80.6 0.45071
80.65 0.45241
80.7 0.45285
80.75 0.45177
80.8 0.44912
80.85 0.44581
80.9 0.44157
80.95 0.43698
81 0.43147
81.05 0.42595
81.1 0.42023
81.15 0.41428
81.2 0.40821
81.25 0.40195
81.3 0.39583
81.35 0.38855
81.4 0.38139
81.45 0.37278
81.5 0.36467
81.55 0.35547
81.6 0.34662
81.65 0.33684
81.7 0.32661
81.75 0.31707
81.8 0.30712
81.85 0.29655
81.9 0.28636
81.95 0.27667
82 0.26803
82.05 0.26012
82.1 0.25216
82.15 0.24356
82.2 0.23479
82.25 0.22549
82.3 0.21533
82.35 0.20646
82.4 0.19695
82.45 0.18676
82.5 0.17732
82.55 0.16872
82.6 0.16053
82.65 0.15275
82.7 0.14488
82.75 0.13633
82.8 0.12827
82.85 0.12104
82.9 0.11424
82.95 0.10759
83 0.0999
83.05 0.09212
83.1 0.08485
83.15 0.07717
83.2 0.07104
83.25 0.06471
83.3 0.05923
83.35 0.05281
83.4 0.04586
83.45 0.039
83.5 0.03181
83.55 0.02525
83.6 0.01889
83.65 0.01425
83.7 0.00891
83.75 0.00325
83.8 -0.00077
83.85 -0.00543
83.9 -0.00881
83.95 -0.01313
84 -0.01732
84.05 -0.02099
84.1 -0.02549
84.15 -0.02887
84.2 -0.03138
84.25 -0.03427
84.3 -0.03681
84.35 -0.03926
84.4 -0.04135
84.45 -0.04393
84.5 -0.04751
84.55 -0.05198
84.6 -0.0559
84.65 -0.05855
84.7 -0.06041
84.75 -0.06263
84.8 -0.06533
84.85 -0.06756
84.9 -0.06946
84.95 -0.07066
85 -0.07195
85.05 -0.07346
85.1 -0.07455
85.15 -0.07568
85.2 -0.07653
85.25 -0.07662
85.3 -0.07716
85.35 -0.07724
85.4 -0.07806
85.45 -0.07931
85.5 -0.08005
85.55 -0.08039
85.6 -0.0809
85.65 -0.08139
85.7 -0.08175
85.75 -0.08068
85.8 -0.08002
85.85 -0.07997
85.9 -0.08029
85.95 -0.08083
86 -0.08045
86.05 -0.07935
86.1 -0.07761
86.15 -0.07544
86.2 -0.07429
86.25 -0.07368
86.3 -0.07358
86.35 -0.07364
86.4 -0.07254
86.45 -0.07068
86.5 -0.06967
86.55 -0.06773
86.6 -0.06659
86.65 -0.06632
86.7 -0.06637
86.75 -0.06581
86.8 -0.06516
86.85 -0.06396
86.9 -0.06211
86.95 -0.05991
87 -0.05874
87.05 -0.05699
87.1 -0.05553
87.15 -0.05557
87.2 -0.05525
87.25 -0.05532
87.3 -0.0554
87.35 -0.05578
87.4 -0.05629
87.45 -0.05677
87.5 -0.05728
87.55 -0.0574
87.6 -0.05707
87.65 -0.05532
87.7 -0.05397
87.75 -0.05267
87.8 -0.05192
87.85 -0.05077
87.9 -0.04879
87.95 -0.04638
88 -0.04359
88.05 -0.04229
88.1 -0.04193
88.15 -0.04088
88.2 -0.03926
88.25 -0.03915
88.3 -0.03888
88.35 -0.03849
88.4 -0.03873
88.45 -0.03926
88.5 -0.04006
88.55 -0.03964
88.6 -0.03902
88.65 -0.03897
88.7 -0.03852
88.75 -0.03726
88.8 -0.03619
88.85 -0.03512
88.9 -0.03487
88.95 -0.03534
89 -0.03504
89.05 -0.03369
89.1 -0.03161
89.15 -0.03058
89.2 -0.02899
89.25 -0.0276
89.3 -0.02768
89.35 -0.02819
89.4 -0.02783
89.45 -0.02808
89.5 -0.02775
89.55 -0.02699
89.6 -0.02594
89.65 -0.0262
89.7 -0.02558
89.75 -0.02478
89.8 -0.02436
89.85 -0.02389
89.9 -0.02316
89.95 -0.02274
90 -0.02319
90.05 -0.02246
90.1 -0.02102
90.15 -0.02006
90.2 -0.01895
90.25 -0.0176
90.3 -0.01743
90.35 -0.01691
90.4 -0.0164
90.45 -0.0168
90.5 -0.0181
90.55 -0.01828
90.6 -0.01909
90.65 -0.01871
90.7 -0.01835
90.75 -0.01879
90.8 -0.01902
90.85 -0.01886
90.9 -0.01796
90.95 -0.01742
91 -0.01739
91.05 -0.01806
91.1 -0.0183
91.15 -0.01824
91.2 -0.01711
91.25 -0.01541
91.3 -0.01509
91.35 -0.01538
91.4 -0.01587
91.45 -0.01526
91.5 -0.01419
91.55 -0.01282
91.6 -0.01166
91.65 -0.01055
91.7 -0.01057
91.75 -0.01109
91.8 -0.01243
91.85 -0.01397
91.9 -0.0151
91.95 -0.01533
92 -0.01579
92.05 -0.01586
92.1 -0.01523
92.15 -0.01499
92.2 -0.01533
92.25 -0.01486
92.3 -0.01372
92.35 -0.01275
92.4 -0.01188
92.45 -0.0113
92.5 -0.01077
92.55 -0.01044
92.6 -0.00929
92.65 -0.00923
92.7 -0.00845
92.75 -0.00811
92.8 -0.00805
92.85 -0.00791
92.9 -0.00782
92.95 -0.0072
93 -0.00713
93.05 -0.00697
93.1 -0.00732
93.15 -0.00718
93.2 -0.00795
93.25 -0.00853
93.3 -0.0094
93.35 -0.0107
93.4 -0.01226
93.45 -0.01349
93.5 -0.01345
93.55 -0.01382
93.6 -0.0142
93.65 -0.01451
93.7 -0.01348
93.75 -0.0131
93.8 -0.01183
93.85 -0.01072
93.9 -0.01036
93.95 -0.0105
94 -0.00938
94.05 -0.00821
94.1 -0.0066
94.15 -0.00564
94.2 -0.0041
94.25 -0.00278
94.3 -0.00318
94.35 -0.00287
94.4 -0.00293
94.45 -0.00262
94.5 -0.00293
94.55 -0.00252
94.6 -0.00187
94.65 -0.00127
94.7 -0.00176
94.75 -0.00336
94.8 -0.00544
94.85 -0.00615
94.9 -0.00574
94.95 -0.00469
95 -0.00378
95.05 -0.00344
95.1 -0.00391
95.15 -0.00438
95.2 -0.00501
95.25 -0.00558
95.3 -0.00579
95.35 -0.00651
95.4 -0.00715
95.45 -0.00794
95.5 -0.00756
95.55 -0.00785
95.6 -0.00819
95.65 -0.00818
95.7 -0.00801
95.75 -0.00775
95.8 -0.00709
95.85 -0.0056
95.9 -0.00375
95.95 -0.00184
96 -0.00135
96.05 -0.00083
96.1 -0.00024
96.15 -0.0004
96.2 -0.00111
96.25 -0.00088
96.3 -0.00124
96.35 -0.00085
96.4 -0.00092
96.45 -0.00098
96.5 -0.00093
96.55 -0.00129
96.6 -0.00093
96.65 -0.0006
96.7 0.00032
96.75 0.00009
96.8 -0.00041
96.85 -0.00183
96.9 -0.00354
96.95 -0.00534
97 -0.00568
97.05 -0.00563
97.1 -0.0051
97.15 -0.00387
97.2 -0.00287
97.25 -0.00252
97.3 -0.00297
97.35 -0.00402
97.4 -0.00518
97.45 -0.00591
97.5 -0.00512
97.55 -0.00447
97.6 -0.00313
97.65 -0.00178
97.7 -0.00078
97.75 -0.00111
97.8 -0.00053
97.85 -0.00087
97.9 -0.0013
97.95 -0.0025
98 -0.00401
98.05 -0.00527
98.1 -0.00609
98.15 -0.00538
98.2 -0.00443
98.25 -0.00409
98.3 -0.00453
98.35 -0.00463
98.4 -0.00425
98.45 -0.00427
98.5 -0.00425
98.55 -0.004
98.6 -0.00401
98.65 -0.00329
98.7 -0.00211
98.75 -0.00039
98.8 -0.00004
98.85 0.0005
98.9 0.00162
98.95 0.00269
99 0.0022
99.05 0.00155
99.1 0.00175
99.15 0.00254
99.2 0.00364
99.25 0.0035
99.3 0.00284
99.35 0.0022
99.4 0.00224
99.45 0.00214
99.5 0.00107
99.55 0.00027
99.6 0.0004
99.65 0.00027
99.7 0.00002
99.75 -0.00117
99.8 -0.00167
99.85 -0.00114
99.9 -0.00176
99.95 -0.00157
