0 0
0.05 0.00012
0.1 0.00039
0.15 0.00096
0.2 0.00133
0.25 0.00183
0.3 0.00227
0.35 0.00277
0.4 0.00287
0.45 0.00301
0.5 0.00328
0.55 0.00319
0.6 0.00298
0.65 0.00265
0.7 0.00219
0.75 0.00205
0.8 0.00216
0.85 0.00249
0.9 0.00273
0.95 0.00269
1 0.00288
1.05 0.00297
1.1 0.00272
1.15 0.0024
1.2 0.00242
1.25 0.00231
1.3 0.00205
1.35 0.00185
1.4 0.00156
1.45 0.00136
1.5 0.00117
1.55 0.00098
1.6 0.00082
1.65 0.00076
1.7 0.00107
1.75 0.00155
1.8 0.00198
1.85 0.00224
1.9 0.00225
1.95 0.00246
2 0.00259
2.05 0.00258
2.1 0.00265
2.15 0.00278
2.2 0.00293
2.25 0.003
2.3 0.00293
2.35 0.00297
2.4 0.00293
2.45 0.00261
2.5 0.00224
2.55 0.00187
2.6 0.00172
2.65 0.00135
2.7 0.00137
2.75 0.00113
2.8 0.00105
2.85 0.00085
2.9 0.00086
2.95 0.00102
3 0.0011
3.05 0.00106
3.1 0.00094
3.15 0.00072
3.2 0.00051
3.25 0.0005
3.3 0.00068
3.35 0.00079
3.4 0.00075
3.45 0.00077
3.5 0.00098
3.55 0.00091
3.6 0.00093
3.65 0.00116
3.7 0.00113
3.75 0.00125
3.8 0.00126
3.85 0.00137
3.9 0.00143
3.95 0.00164
4 0.00154
4.05 0.00137
4.1 0.0013
4.15 0.00141
4.2 0.0013
4.25 0.00137
4.3 0.0016
4.35 0.00181
4.4 0.00161
4.45 0.00144
4.5 0.00123
4.55 0.00121
4.6 0.001
4.65 0.00105
4.7 0.00082
4.75 0.00088
4.8 0.00084
4.85 0.00094
4.9 0.00091
4.95 0.00112
5 0.00133
5.05 0.00136
5.1 0.00146
5.15 0.00133
5.2 0.00134
5.25 0.00118
5.3 0.00113
5.35 0.00101
5.4 0.00081
5.45 0.00083
5.5 0.0007
5.55 0.00084
5.6 0.00071
5.65 0.00047
5.7 0.00018
5.75 0.00009
5.8 -0.00007
5.85 -0.00028
5.9 -0.00038
5.95 -0.00052
6 -0.00037
6.05 -0.00037
6.1 -0.00041
6.15 -0.00031
6.2 -0.00006
6.25 0.00005
6.3 -0.00007
6.35 0.00013
6.4 0.00035
6.45 0.00026
6.5 0.00013
6.55 0.00012
6.6 0.00026
6.65 0.00022
6.7 0.00027
6.75 0.00046
6.8 0.00078
6.85 0.00088
6.9 0.00105
6.95 0.00091
7 0.00081
7.05 0.00054
7.1 0.00058
7.15 0.00034
7.2 0.00034
7.25 0.00046
7.3 0.00037
7.35 0.00027
7.4 0.00034
7.45 0.0004
7.5 0.00055
7.55 0.00063
7.6 0.0009
7.65 0.00103
7.7 0.00131
7.75 0.00137
7.8 0.00128
7.85 0.00123
7.9 0.00093
7.95 0.0007
8 0.00041
8.05 0.00041
8.1 0.00044
8.15 0.00038
8.2 0.00037
8.25 0.00032
8.3 0.00034
8.35 0.00053
8.4 0.00067
8.45 0.00081
8.5 0.00087
8.55 0.00092
8.6 0.00067
8.65 0.0006
8.7 0.00053
8.75 0.00049
8.8 0.00037
8.85 0.00043
8.9 0.00053
8.95 0.00042
9 0.00043
9.05 0.00055
9.1 0.00081
9.15 0.001
9.2 0.00108
9.25 0.00086
9.3 0.0004
9.35 -0.00008
9.4 -0.00051
9.45 -0.00084
9.5 -0.00077
9.55 -0.00076
9.6 -0.00051
9.65 -0.00045
9.7 -0.00045
9.75 -0.00029
9.8 -0.00029
9.85 -0.00042
9.9 -0.00044
9.95 -0.00035
10 -0.00047
10.05 -0.00029
10.1 -0.00003
10.15 -0.00001
10.2 -0.00016
10.25 -0.00043
10.3 -0.00069
10.35 -0.00101
10.4 -0.00093
10.45 -0.00095
10.5 -0.00099
10.55 -0.00112
10.6 -0.00106
10.65 -0.0011
10.7 -0.0009
10.75 -0.00049
10.8 -0.00005
10.85 0.00016
10.9 0.0004
10.95 0.00056
11 0.00056
11.05 0.00033
11.1 0.00027
11.15 -0
11.2 -0.00033
11.25 -0.00031
11.3 -0.00011
11.35 0.00003
11.4 -0.00005
11.45 -0.00015
11.5 -0.00004
11.55 -0.00001
11.6 -0.00005
11.65 -0.00032
11.7 -0.00021
11.75 -0.0002
11.8 -0.00013
11.85 -0.00011
11.9 0.00008
11.95 0.00006
12 0.00019
12.05 0.00022
12.1 0.00031
12.15 0.00053
12.2 0.00068
12.25 0.00054
12.3 0.00064
12.35 0.00072
12.4 0.00078
12.45 0.0005
12.5 0.00037
12.55 0.00003
12.6 -0.00005
12.65 0.00005
12.7 0.00004
12.75 -0.00021
12.8 -0.00056
12.85 -0.00092
12.9 -0.00107
12.95 -0.00113
13 -0.0011
13.05 -0.00109
13.1 -0.00082
13.15 -0.00044
13.2 -0.0003
13.25 -0.00012
13.3 -0.00008
13.35 -0.0001
13.4 0.00003
13.45 0.00037
13.5 0.00081
13.55 0.00125
13.6 0.00123
13.65 0.00095
13.7 0.00063
13.75 0.00018
13.8 0.00001
13.85 0.00002
13.9 0.00002
13.95 -0.00006
14 -0.0003
14.05 -0.00026
14.1 -0.00032
14.15 -0.00022
14.2 -0.00004
14.25 -0.00006
14.3 0.00017
14.35 0.00053
14.4 0.00052
14.45 0.00072
14.5 0.0009
14.55 0.00119
14.6 0.0011
14.65 0.00105
14.7 0.00101
14.75 0.00099
14.8 0.00076
14.85 0.00076
14.9 0.00046
14.95 0.00046
15 0.00058
15.05 0.00085
15.1 0.00101
15.15 0.00086
15.2 0.00043
15.25 0.00034
15.3 0.0004
15.35 0.00018
15.4 0.00013
15.45 0.00022
15.5 0.00036
15.55 0.00026
15.6 0.0001
15.65 -0.00003
15.7 0.00013
15.75 0.00017
15.8 0.00026
15.85 0.00024
15.9 0.00034
15.95 0.00013
16 -0.00012
16.05 -0.00052
16.1 -0.0009
16.15 -0.00102
16.2 -0.00119
16.25 -0.00114
16.3 -0.00084
16.35 -0.00085
16.4 -0.00093
16.45 -0.00084
16.5 -0.00064
16.55 -0.00027
16.6 -0.00002
16.65 -0.00003
16.7 -0.00028
16.75 -0.0005
16.8 -0.00075
16.85 -0.00075
16.9 -0.00055
16.95 -0.0002
17 -0.00013
17.05 -0.00033
17.1 -0.00023
17.15 -0.00032
17.2 -0.00017
17.25 -0.00001
17.3 0.00025
17.35 0.00038
17.4 0.00034
17.45 0.00036
17.5 0.00044
17.55 0.00056
17.6 0.00075
17.65 0.00063
17.7 0.00028
17.75 0.00011
17.8 0.00019
17.85 -0.00003
17.9 -0.00019
17.95 -0.00046
18 -0.00061
18.05 -0.00073
18.1 -0.0005
18.15 -0.00047
18.2 -0.00057
18.25 -0.00067
18.3 -0.00045
18.35 -0.00027
18.4 -0.00038
18.45 -0.0002
18.5 0.00012
18.55 0.00026
18.6 0.00024
18.65 0.00027
18.7 0.0004
18.75 0.00033
18.8 0.00016
18.85 -0.0001
18.9 -0.00031
18.95 -0.00064
19 -0.00104
19.05 -0.0013
19.1 -0.00123
19.15 -0.00105
19.2 -0.00108
19.25 -0.00074
19.3 -0.00067
19.35 -0.0008
19.4 -0.00083
19.45 -0.001
19.5 -0.00099
19.55 -0.00067
19.6 -0.00019
19.65 0.00032
19.7 0.00085
19.75 0.00117
19.8 0.00134
19.85 0.00127
19.9 0.00115
19.95 0.00094
20 0.00062
20.05 0.00023
20.1 -0.00015
20.15 -0.00021
20.2 -0.00015
20.25 0.00004
20.3 0.00031
20.35 0.00027
20.4 0.00021
20.45 0.00008
20.5 -0.00024
20.55 -0.00048
20.6 -0.00076
20.65 -0.00109
20.7 -0.00111
20.75 -0.00084
20.8 -0.0005
20.85 0.00002
20.9 0.00012
20.95 -0.00006
21 -0.00033
21.05 -0.00062
21.1 -0.00068
21.15 -0.00049
21.2 -0.00014
21.25 0.00037
21.3 0.00045
21.35 0.00062
21.4 0.00061
21.45 0.00036
21.5 0.00008
21.55 -0.00018
21.6 -0.00012
21.65 -0.00006
21.7 -0.00022
21.75 -0.00028
21.8 -0.00005
21.85 0.00035
21.9 0.00037
21.95 0.0006
22 0.00069
22.05 0.00094
22.1 0.00089
22.15 0.0009
22.2 0.00078
22.25 0.00039
22.3 0.00008
22.35 -0.00031
22.4 -0.00052
22.45 -0.00055
22.5 -0.00052
22.55 -0.0006
22.6 -0.00076
22.65 -0.00096
22.7 -0.00089
22.75 -0.00089
22.8 -0.00074
22.85 -0.00049
22.9 -0.00008
22.95 0.00023
23 0.00065
23.05 0.00078
23.1 0.0006
23.15 0.00036
23.2 0.00009
23.25 -0.00027
23.3 -0.00056
23.35 -0.00086
23.4 -0.00091
23.45 -0.0007
23.5 -0.00064
23.55 -0.00068
23.6 -0.00085
23.65 -0.00065
23.7 -0.0007
23.75 -0.00085
23.8 -0.00103
23.85 -0.00117
23.9 -0.00092
23.95 -0.00083
24 -0.00059
24.05 -0.00022
24.1 0.00013
24.15 0.00057
24.2 0.00072
24.25 0.00072
24.3 0.00054
24.35 0.00043
24.4 0.00055
24.45 0.00037
24.5 0.00032
24.55 0.00044
24.6 0.00029
24.65 0.00029
24.7 0.00036
24.75 0.00053
24.8 0.00066
24.85 0.00082
24.9 0.00098
24.95 0.00088
25 0.00061
25.05 0.00057
25.1 0.00062
25.15 0.00055
25.2 0.00051
25.25 0.00055
25.3 0.00038
25.35 0.00045
25.4 0.00056
25.45 0.00072
25.5 0.00054
25.55 0.00058
25.6 0.00046
25.65 0.00036
25.7 0.00035
25.75 0.00028
25.8 0.00008
25.85 -0.00006
25.9 -0.00012
25.95 -0.0001
26 -0.00007
26.05 -0.00018
26.1 -0.00036
26.15 -0.00028
26.2 -0.00045
26.25 -0.00057
26.3 -0.00076
26.35 -0.00107
26.4 -0.00126
26.45 -0.00116
26.5 -0.00103
26.55 -0.00085
26.6 -0.00084
26.65 -0.00098
26.7 -0.0012
26.75 -0.00143
26.8 -0.00146
26.85 -0.00134
26.9 -0.00127
26.95 -0.00103
27 -0.00104
27.05 -0.00108
27.1 -0.00115
27.15 -0.00094
27.2 -0.00088
27.25 -0.00053
27.3 -0.00047
27.35 -0.00055
27.4 -0.00029
27.45 -0.00022
27.5 -0.00016
27.55 -0.00029
27.6 -0.00023
27.65 -0.00001
27.7 0.00039
27.75 0.00078
27.8 0.0009
27.85 0.00101
27.9 0.00094
27.95 0.00081
28 0.00051
28.05 0.00037
28.1 0.00014
28.15 -0.00022
28.2 -0.00023
28.25 -0.00042
28.3 -0.00072
28.35 -0.00093
28.4 -0.00076
28.45 -0.0004
28.5 0.00001
28.55 0.00027
28.6 0.00029
28.65 0.00033
28.7 0.00029
28.75 0.00035
28.8 0.00041
28.85 0.00034
28.9 0.00023
28.95 0.00005
29 -0.00017
29.05 -0.00021
29.1 0.00005
29.15 0.00002
29.2 -0.00019
29.25 -0.00015
29.3 -0.00028
29.35 -0.00015
29.4 0.00017
29.45 0.00041
29.5 0.00056
29.55 0.0007
29.6 0.00065
29.65 0.00045
29.7 0.00044
29.75 0.00031
29.8 0.00042
29.85 0.00072
29.9 0.00067
29.95 0.00085
30 0.00109
30.05 0.00129
30.1 0.00112
30.15 0.00092
30.2 0.00056
30.25 0.00019
30.3 -0.00008
30.35 -0.00029
30.4 -0.00022
30.45 0.00001
30.5 -0.00001
30.55 -0.00012
30.6 0.00004
30.65 -0.00004
30.7 0.00003
30.75 0.00009
30.8 0.00022
30.85 0.00014
30.9 0.00031
30.95 0.00061
31 0.00101
31.05 0.0012
31.1 0.00144
31.15 0.00126
31.2 0.00099
31.25 0.00068
31.3 0.00067
31.35 0.00071
31.4 0.00072
31.45 0.00057
31.5 0.00032
31.55 0.00023
31.6 -0.00005
31.65 -0.00037
31.7 -0.00058
31.75 -0.00072
31.8 -0.00082
31.85 -0.00086
31.9 -0.00062
31.95 -0.00064
32 -0.00054
32.05 -0.00027
32.1 -0.00022
32.15 -0.00025
32.2 -0.00022
32.25 -0.00021
32.3 -0.00043
32.35 -0.00074
32.4 -0.00095
32.45 -0.00105
32.5 -0.00109
32.55 -0.00111
32.6 -0.00078
32.65 -0.00052
32.7 -0.00027
32.75 -0.00003
32.8 0.00029
32.85 0.00041
32.9 0.00034
32.95 0.00046
33 0.00066
33.05 0.0007
33.1 0.00085
33.15 0.00066
33.2 0.00068
33.25 0.00085
33.3 0.00092
33.35 0.00092
33.4 0.00105
33.45 0.00101
33.5 0.00071
33.55 0.00035
33.6 0.00021
33.65 -0.00008
33.7 -0.00005
33.75 -0.00021
33.8 -0.00041
33.85 -0.00067
33.9 -0.00075
33.95 -0.00059
34 -0.00024
34.05 0.00014
34.1 0.00032
34.15 0.00019
34.2 0.00026
34.25 0.00024
34.3 -0.00001
34.35 -0.00018
34.4 -0.00012
34.45 -0.00007
34.5 -0.00012
34.55 0.00009
34.6 0.00046
34.65 0.0007
34.7 0.00095
34.75 0.00106
34.8 0.00092
34.85 0.00081
34.9 0.00067
34.95 0.00039
35 0.00033
35.05 0.00027
35.1 0.0001
35.15 0.0002
35.2 -0.00001
35.25 -0.0003
35.3 -0.00073
35.35 -0.00074
35.4 -0.00089
35.45 -0.00108
35.5 -0.00123
35.55 -0.00104
35.6 -0.00081
35.65 -0.00049
35.7 -0.00004
35.75 0.00047
35.8 0.00055
35.85 0.00066
35.9 0.00087
35.95 0.00107
36 0.00098
36.05 0.00059
36.1 0.00025
36.15 0.00005
36.2 -0.00019
36.25 -0.00057
36.3 -0.00082
36.35 -0.00091
36.4 -0.00092
36.45 -0.00109
36.5 -0.00129
36.55 -0.00109
36.6 -0.0007
36.65 -0.00051
36.7 -0.00023
36.75 0.00013
36.8 0.00057
36.85 0.00065
36.9 0.00069
36.95 0.0007
37 0.00044
37.05 0.0003
37.1 0.00021
37.15 0.00026
37.2 0.00022
37.25 -0.00004
37.3 -0.00009
37.35 -0.00023
37.4 -0.00035
37.45 -0.00025
37.5 -0.00013
37.55 0.00007
37.6 0.00022
37.65 0.00004
37.7 -0.00022
37.75 -0.00048
37.8 -0.00065
37.85 -0.00051
37.9 -0.00028
37.95 -0.00015
38 0.00003
38.05 0.00016
38.1 0.00001
38.15 -0.00032
38.2 -0.0007
38.25 -0.00098
38.3 -0.00127
38.35 -0.00109
38.4 -0.00086
38.45 -0.00079
38.5 -0.00083
38.55 -0.00077
38.6 -0.00074
38.65 -0.00053
38.7 -0.00041
38.75 -0.00057
38.8 -0.00076
38.85 -0.00082
38.9 -0.00088
38.95 -0.0008
39 -0.00078
39.05 -0.00057
39.1 -0.0005
39.15 -0.00059
39.2 -0.00074
39.25 -0.0009
39.3 -0.00132
39.35 -0.00211
39.4 -0.00314
39.45 -0.00422
39.5 -0.0052
39.55 -0.00608
39.6 -0.00691
39.65 -0.00806
39.7 -0.00925
39.75 -0.01088
39.8 -0.01279
39.85 -0.01494
39.9 -0.01705
39.95 -0.01977
40 -0.02262
40.05 -0.02572
40.1 -0.0293
40.15 -0.03353
40.2 -0.03807
40.25 -0.04288
40.3 -0.0483
40.35 -0.05408
40.4 -0.06009
40.45 -0.06651
40.5 -0.07303
40.55 -0.08
40.6 -0.08745
40.65 -0.09485
40.7 -0.10255
40.75 -0.11039
40.8 -0.11812
40.85 -0.12562
40.9 -0.13272
40.95 -0.13952
41 -0.14607
41.05 -0.15176
41.1 -0.15655
41.15 -0.16083
41.2 -0.16405
41.25 -0.1663
41.3 -0.16741
41.35 -0.16731
41.4 -0.16594
41.45 -0.16347
41.5 -0.15972
41.55 -0.15486
41.6 -0.14873
41.65 -0.1418
41.7 -0.13385
41.75 -0.12475
41.8 -0.11488
41.85 -0.10412
41.9 -0.0928
41.95 -0.08085
42 -0.0686
42.05 -0.05599
42.1 -0.0432
42.15 -0.03012
42.2 -0.0174
42.25 -0.00511
42.3 0.00691
42.35 0.01826
42.4 0.02908
42.45 0.03955
42.5 0.04923
42.55 0.05812
42.6 0.06642
42.65 0.07397
42.7 0.08073
42.75 0.08667
42.8 0.09231
42.85 0.09738
42.9 0.10194
42.95 0.10582
43 0.10951
43.05 0.11264
43.1 0.11547
43.15 0.11809
43.2 0.12046
43.25 0.1226
43.3 0.12498
43.35 0.12718
43.4 0.12929
43.45 0.13156
43.5 0.1337
43.55 0.13588
43.6 0.13757
43.65 0.13907
43.7 0.1402
43.75 0.14136
43.8 0.1425
43.85 0.14332
43.9 0.1438
43.95 0.14378
44 0.14355
44.05 0.14299
44.1 0.14233
44.15 0.14154
44.2 0.14022
44.25 0.13845
44.3 0.13646
44.35 0.13391
44.4 0.13078
44.45 0.12737
44.5 0.12394
44.55 0.12008
44.6 0.11612
44.65 0.11232
44.7 0.10828
44.75 0.10402
44.8 0.09976
44.85 0.09531
44.9 0.09087
44.95 0.08651
45 0.08239
45.05 0.07792
45.1 0.07349
45.15 0.06934
45.2 0.06541
45.25 0.06139
45.3 0.05758
45.35 0.05383
45.4 0.05009
45.45 0.04642
45.5 0.04259
45.55 0.03887
45.6 0.03519
45.65 0.03165
45.7 0.02819
45.75 0.02515
45.8 0.02205
45.85 0.01909
45.9 0.01631
45.95 0.01356
46 0.01098
46.05 0.00858
46.1 0.00624
46.15 0.00388
46.2 0.00173
46.25 -0.00023
46.3 -0.00184
46.35 -0.00335
46.4 -0.00475
46.45 -0.00593
46.5 -0.00739
46.55 -0.00903
46.6 -0.01051
46.65 -0.01199
46.7 -0.01317
46.75 -0.01405
46.8 -0.01468
46.85 -0.01526
46.9 -0.0162
46.95 -0.01697
47 -0.01755
47.05 -0.01816
47.1 -0.01872
47.15 -0.01958
47.2 -0.0204
47.25 -0.02134
47.3 -0.02186
47.35 -0.02237
47.4 -0.02259
47.45 -0.02264
47.5 -0.02253
47.55 -0.02269
47.6 -0.02309
47.65 -0.02364
47.7 -0.02387
47.75 -0.0238
47.8 -0.02396
47.85 -0.024
47.9 -0.02388
47.95 -0.02367
48 -0.02357
48.05 -0.02334
48.1 -0.02312
48.15 -0.0228
48.2 -0.02231
48.25 -0.0219
48.3 -0.02185
48.35 -0.02184
48.4 -0.02193
48.45 -0.02177
48.5 -0.02152
48.55 -0.02116
48.6 -0.02108
48.65 -0.02105
48.7 -0.02089
48.75 -0.02041
48.8 -0.01988
48.85 -0.01942
48.9 -0.01931
48.95 -0.0194
49 -0.01949
49.05 -0.01919
49.1 -0.01873
49.15 -0.01828
49.2 -0.01799
49.25 -0.01758
49.3 -0.01726
49.35 -0.01697
49.4 -0.01691
49.45 -0.01688
49.5 -0.01674
49.55 -0.01637
49.6 -0.01589
49.65 -0.01543
49.7 -0.01514
49.75 -0.0148
49.8 -0.01462
49.85 -0.01446
49.9 -0.01429
49.95 -0.01414
50 -0.01374
50.05 -0.01361
50.1 -0.01329
50.15 -0.01279
50.2 -0.01253
50.25 -0.01237
50.3 -0.01246
50.35 -0.01227
50.4 -0.0119
50.45 -0.01138
50.5 -0.01076
50.55 -0.01062
50.6 -0.01036
50.65 -0.0102
50.7 -0.01012
50.75 -0.01013
50.8 -0.01032
50.85 -0.01057
50.9 -0.01055
50.95 -0.01066
51 -0.01066
51.05 -0.01057
51.1 -0.01026
51.15 -0.00993
51.2 -0.00983
51.25 -0.00949
51.3 -0.0092
51.35 -0.00902
51.4 -0.00865
51.45 -0.00814
51.5 -0.00783
51.55 -0.00768
51.6 -0.00754
51.65 -0.00749
51.7 -0.00742
51.75 -0.00734
51.8 -0.00718
51.85 -0.00704
51.9 -0.00683
51.95 -0.00657
52 -0.00622
52.05 -0.00594
52.1 -0.00569
52.15 -0.00547
52.2 -0.00541
52.25 -0.00553
52.3 -0.00586
52.35 -0.0059
52.4 -0.0059
52.45 -0.00579
52.5 -0.00564
52.55 -0.00568
52.6 -0.00591
52.65 -0.00624
52.7 -0.00627
52.75 -0.00612
52.8 -0.00618
52.85 -0.006
52.9 -0.00594
52.95 -0.00578
53 -0.00552
53.05 -0.00511
53.1 -0.00471
53.15 -0.00448
53.2 -0.00413
53.25 -0.0037
53.3 -0.00355
53.35 -0.00329
53.4 -0.0034
53.45 -0.00376
53.5 -0.00421
53.55 -0.00425
53.6 -0.00409
53.65 -0.00387
53.7 -0.00401
53.75 -0.00409
53.8 -0.00419
53.85 -0.00428
53.9 -0.00417
53.95 -0.00424
54 -0.0043
54.05 -0.00452
54.1 -0.00441
54.15 -0.00431
54.2 -0.00397
54.25 -0.00345
54.3 -0.00314
54.35 -0.0031
54.4 -0.00287
54.45 -0.00291
54.5 -0.00307
54.55 -0.00321
54.6 -0.00342
54.65 -0.00332
54.7 -0.00346
54.75 -0.0033
54.8 -0.00331
54.85 -0.00316
54.9 -0.00316
54.95 -0.00297
55 -0.00288
55.05 -0.00261
55.1 -0.00248
55.15 -0.00233
55.2 -0.00233
55.25 -0.00245
55.3 -0.00252
55.35 -0.00273
55.4 -0.00288
55.45 -0.00279
55.5 -0.00254
55.55 -0.00235
55.6 -0.00246
55.65 -0.00247
55.7 -0.00232
55.75 -0.00231
55.8 -0.00219
55.85 -0.0023
55.9 -0.00249
55.95 -0.00232
56 -0.00203
56.05 -0.00178
56.1 -0.00168
56.15 -0.00168
56.2 -0.00182
56.25 -0.00178
56.3 -0.00186
56.35 -0.00184
56.4 -0.00162
56.45 -0.00153
56.5 -0.00127
56.55 -0.00097
56.6 -0.0006
56.65 -0.00046
56.7 -0.00066
56.75 -0.00084
56.8 -0.00105
56.85 -0.00115
56.9 -0.00115
56.95 -0.00097
57 -0.00084
57.05 -0.0008
57.1 -0.00063
57.15 -0.00064
57.2 -0.00058
57.25 -0.00056
57.3 -0.00051
57.35 -0.00047
57.4 -0.00062
57.45 -0.00074
57.5 -0.00076
57.55 -0.00065
57.6 -0.00082
57.65 -0.00075
57.7 -0.00056
57.75 -0.00068
57.8 -0.00065
57.85 -0.00047
57.9 -0.00029
57.95 -0.0003
58 -0.00059
58.05 -0.00093
58.1 -0.00125
58.15 -0.00149
58.2 -0.00144
58.25 -0.0013
58.3 -0.00128
58.35 -0.00111
58.4 -0.00091
58.45 -0.00073
58.5 -0.00067
58.55 -0.00068
58.6 -0.00095
58.65 -0.00139
58.7 -0.00151
58.75 -0.00165
58.8 -0.00189
58.85 -0.00209
58.9 -0.00232
58.95 -0.00254
59 -0.00231
59.05 -0.00212
59.1 -0.00192
59.15 -0.00194
59.2 -0.0018
59.25 -0.00156
59.3 -0.00122
59.35 -0.00112
59.4 -0.00083
59.45 -0.00064
59.5 -0.0008
59.55 -0.00075
59.6 -0.00082
59.65 -0.00071
59.7 -0.00058
59.75 -0.00066
59.8 -0.00085
59.85 -0.0007
59.9 -0.00059
59.95 -0.00041
60 -0.00024
60.05 -0.00026
60.1 -0.00041
60.15 -0.00049
60.2 -0.00039
60.25 -0.00046
60.3 -0.00049
60.35 -0.00065
60.4 -0.00068
60.45 -0.00046
60.5 -0.00021
60.55 -0.00002
60.6 0.0003
60.65 0.00016
60.7 -0.00024
60.75 -0.0003
60.8 -0.00021
60.85 -0.00007
60.9 0.00004
60.95 0.0002
61 0.00047
61.05 0.00038
61.1 0.00013
61.15 -0.00003
61.2 -0.00001
61.25 -0.00011
61.3 -0.00004
61.35 -0
61.4 -0.0001
61.45 -0.00016
61.5 -0.00022
61.55 -0.00041
61.6 -0.00061
61.65 -0.00072
61.7 -0.00078
61.75 -0.00087
61.8 -0.00105
61.85 -0.00098
61.9 -0.00105
61.95 -0.00128
62 -0.00123
62.05 -0.00093
62.1 -0.00083
62.15 -0.0007
62.2 -0.00038
62.25 -0.00004
62.3 -0.00006
62.35 -0.00002
62.4 0.00003
62.45 -0.00012
62.5 -0.0001
62.55 -0.00025
62.6 -0.00016
62.65 -0.00003
62.7 -0.00017
62.75 -0.00016
62.8 -0.00034
62.85 -0.00071
62.9 -0.00098
62.95 -0.00124
63 -0.00123
63.05 -0.00108
63.1 -0.00112
63.15 -0.00115
63.2 -0.00116
63.25 -0.00124
63.3 -0.00106
63.35 -0.0008
63.4 -0.00067
63.45 -0.00056
63.5 -0.0006
63.55 -0.00056
63.6 -0.00027
63.65 -0.00025
63.7 -0.00029
63.75 -0.00016
63.8 -0.00023
63.85 -0.0002
63.9 -0.00013
63.95 -0.00017
64 0.00002
64.05 -0.00013
64.1 -0.00001
64.15 0.00019
64.2 0.00002
64.25 -0.00014
64.3 -0.00028
64.35 -0.00018
64.4 -0.00021
64.45 -0.00015
64.5 -0.00009
64.55 -0.00028
64.6 -0.00034
64.65 -0.00036
64.7 -0.00026
64.75 -0.00009
64.8 0.00014
64.85 0.00028
64.9 0.00022
64.95 0.00027
65 0.00051
65.05 0.00082
65.1 0.00109
65.15 0.00097
65.2 0.00072
65.25 0.00056
65.3 0.00063
65.35 0.00049
65.4 0.00022
65.45 -0.00008
65.5 -0.00025
65.55 -0.00035
65.6 -0.0006
65.65 -0.00072
65.7 -0.00093
65.75 -0.00087
65.8 -0.00071
65.85 -0.00068
65.9 -0.00086
65.95 -0.00076
66 -0.00039
66.05 0.00003
66.1 0.00008
66.15 -0.0001
66.2 -0.00002
66.25 0.00002
66.3 -0.00019
66.35 -0.00021
66.4 -0.00026
66.45 -0.00023
66.5 -0.00025
66.55 -0.00004
66.6 0.00006
66.65 0.00024
66.7 0.00044
66.75 0.00063
66.8 0.00048
66.85 0.0004
66.9 0.00005
66.95 -0.00006
67 -0
67.05 0.00003
67.1 -0.00015
67.15 -0.00022
67.2 -0.0004
67.25 -0.0007
67.3 -0.00092
67.35 -0.00119
67.4 -0.00115
67.45 -0.00097
67.5 -0.00068
67.55 -0.00022
67.6 0.00031
67.65 0.00075
67.7 0.00101
67.75 0.0009
67.8 0.00089
67.85 0.00097
67.9 0.00107
67.95 0.00126
68 0.00146
68.05 0.00129
68.1 0.00087
68.15 0.00042
68.2 0.00033
68.25 0.00023
68.3 -0.00003
68.35 -0.00024
68.4 -0.00029
68.45 -0.00048
68.5 -0.00036
68.55 -0.00022
68.6 -0.00021
68.65 -0.00024
68.7 -0.00048
68.75 -0.00036
68.8 -0.00007
68.85 0.00013
68.9 0.00006
68.95 -0.00004
69 0
69.05 0.00018
69.1 0.00009
69.15 0.00012
69.2 0.00011
69.25 0.0002
69.3 0.00007
69.35 0.00017
69.4 0.00006
69.45 0.00004
69.5 -0.00003
69.55 -0.00022
69.6 -0.00055
69.65 -0.00055
69.7 -0.0003
69.75 -0.00018
69.8 -0.00025
69.85 -0.00028
69.9 -0.00035
69.95 -0.00047
70 -0.00039
70.05 -0.00048
70.1 -0.00034
70.15 -0.00043
70.2 -0.00053
70.25 -0.00053
70.3 -0.00025
70.35 0.00012
70.4 0.00022
70.45 0.00027
70.5 0.00016
70.55 0.00009
70.6 0.00013
70.65 0.00025
70.7 0.00032
70.75 0.00046
70.8 0.00042
70.85 0.00028
70.9 0.00023
70.95 0.00004
71 -0.00019
71.05 -0.00029
71.1 -0.00042
71.15 -0.00032
71.2 -0.00025
71.25 -0.00034
71.3 -0.0006
71.35 -0.00074
71.4 -0.00098
71.45 -0.00128
71.5 -0.00141
71.55 -0.00128
71.6 -0.00095
71.65 -0.00065
71.7 -0.00061
71.75 -0.00076
71.8 -0.00102
71.85 -0.00095
71.9 -0.00087
71.95 -0.00058
72 -0.00031
72.05 -0.00001
72.1 0.00039
72.15 0.00047
72.2 0.00064
72.25 0.00072
72.3 0.00091
72.35 0.00117
72.4 0.00136
72.45 0.00135
72.5 0.00135
72.55 0.00097
72.6 0.00037
72.65 -0.00013
72.7 -0.00042
72.75 -0.00083
72.8 -0.00105
72.85 -0.00108
72.9 -0.00117
72.95 -0.00093
73 -0.00063
73.05 -0.0006
73.1 -0.0004
73.15 -0.00008
73.2 0.00024
73.25 0.00033
73.3 0.00039
73.35 0.00018
73.4 0.00018
73.45 0.00023
73.5 0.00031
73.55 0.00024
73.6 0.0004
73.65 0.00069
73.7 0.00066
73.75 0.0005
73.8 0.00054
73.85 0.00076
73.9 0.00056
73.95 0.00055
74 0.0005
74.05 0.00022
74.1 0.00002
74.15 -0.00015
74.2 -0.00052
74.25 -0.00066
74.3 -0.00051
74.35 -0.00031
74.4 0.00005
74.45 0.00029
74.5 0.00032
74.55 0.00043
74.6 0.00043
74.65 0.00046
74.7 0.00037
74.75 0.00014
74.8 0.00018
74.85 0.0002
74.9 -0.00001
74.95 -0.00034
75 -0.00043
75.05 -0.00032
75.1 -0.0004
75.15 -0.00033
75.2 -0.00003
75.25 0.0002
75.3 0.00043
75.35 0.00076
75.4 0.00083
75.45 0.0008
75.5 0.00075
75.55 0.00064
75.6 0.00072
75.65 0.00087
75.7 0.00075
75.75 0.00074
75.8 0.00044
75.85 0.00008
75.9 -0.00023
75.95 -0.00042
76 -0.00073
76.05 -0.00088
76.1 -0.00089
76.15 -0.00072
76.2 -0.00072
76.25 -0.00091
76.3 -0.0008
76.35 -0.00044
76.4 -0.00038
76.45 -0.00053
76.5 -0.00044
76.55 -0.00059
76.6 -0.00058
76.65 -0.00037
76.7 -0.00041
76.75 -0.00064
76.8 -0.00101
76.85 -0.00123
76.9 -0.00147
76.95 -0.00127
77 -0.00099
77.05 -0.00097
77.1 -0.00075
77.15 -0.0007
77.2 -0.0007
77.25 -0.00086
77.3 -0.00095
77.35 -0.00108
77.4 -0.00103
77.45 -0.00078
77.5 -0.00071
77.55 -0.00084
77.6 -0.00066
77.65 -0.00045
77.7 -0.0001
77.75 0.0001
77.8 0.00012
77.85 -0.00012
77.9 -0.00049
77.95 -0.00049
78 -0.00053
78.05 -0.00036
78.1 -0.00014
78.15 0.00016
78.2 0.0001
78.25 0.00003
78.3 -0.00016
78.35 -0.00006
78.4 0.00022
78.45 0.00025
78.5 0.00045
78.55 0.00073
78.6 0.00107
78.65 0.00134
78.7 0.00129
78.75 0.00129
78.8 0.00107
78.85 0.0006
78.9 0.00043
78.95 0.00029
79 0.00043
79.05 0.00055
79.1 0.00038
79.15 0.00014
79.2 0.00019
79.25 0.00005
79.3 -0.00028
79.35 -0.00048
79.4 -0.00081
79.45 -0.0011
79.5 -0.00119
79.55 -0.00102
79.6 -0.00109
79.65 -0.00095
79.7 -0.00087
79.75 -0.00087
79.8 -0.00084
79.85 -0.00073
79.9 -0.00064
79.95 -0.00051
80 -0.00059
80.05 -0.00058
80.1 -0.0003
80.15 0.00003
80.2 0.00026
80.25 0.00025
80.3 0.0004
80.35 0.00066
80.4 0.00094
80.45 0.00111
80.5 0.00106
80.55 0.00072
80.6 0.00069
80.65 0.00077
80.7 0.00052
80.75 0.00025
80.8 0.00005
80.85 -0.0002
80.9 -0.0004
80.95 -0.00052
81 -0.00037
81.05 -0.00006
81.1 0.00038
81.15 0.00046
81.2 0.00038
81.25 0.00048
81.3 0.0006
81.35 0.00047
81.4 0.00057
81.45 0.00074
81.5 0.00097
81.55 0.00078
81.6 0.00078
81.65 0.00064
81.7 0.00055
81.75 0.00042
81.8 0.00027
81.85 0.0002
81.9 0.0003
81.95 0.0005
82 0.00083
82.05 0.00111
82.1 0.00125
82.15 0.00132
82.2 0.00132
82.25 0.00109
82.3 0.00071
82.35 0.00045
82.4 0.00008
82.45 -0.00007
82.5 0.00007
82.55 0.00014
82.6 0.00027
82.65 0.0005
82.7 0.00079
82.75 0.0011
82.8 0.00108
82.85 0.00076
82.9 0.00055
82.95 0.00036
83 0.00005
83.05 -0.00014
83.1 -0.00013
83.15 -0.00022
83.2 -0.00018
83.25 -0.0001
83.3 0.00013
83.35 0.00019
83.4 0.00021
83.45 0.00017
83.5 0.00029
83.55 0.00033
83.6 0.00047
83.65 0.00067
83.7 0.00086
83.75 0.00075
83.8 0.00083
83.85 0.00102
83.9 0.00087
83.95 0.00072
84 0.0004
84.05 0
84.1 -0.0003
84.15 -0.00034
84.2 -0.0005
84.25 -0.00042
84.3 -0.00023
84.35 -0.00016
84.4 -0.00034
84.45 -0.0005
84.5 -0.0007
84.55 -0.0008
84.6 -0.00079
84.65 -0.00058
84.7 -0.0003
84.75 -0.00007
84.8 -0.00007
84.85 -0.00012
84.9 -0.00002
84.95 -0.00022
85 -0.00016
85.05 -0.0001
85.1 -0.00011
85.15 -0.00018
85.2 -0.00041
85.25 -0.00055
85.3 -0.00076
85.35 -0.00062
85.4 -0.00051
85.45 -0.00019
85.5 -0.00008
85.55 -0.00028
85.6 -0.00038
85.65 -0.00026
85.7 -0.00026
85.75 -0.00017
85.8 -0.00022
85.85 -0.00008
85.9 0.00022
85.95 0.00047
86 0.00076
86.05 0.00104
86.1 0.00101
86.15 0.00108
86.2 0.00074
86.25 0.0004
86.3 0.00003
86.35 -0.00004
86.4 -0.00033
86.45 -0.00033
86.5 -0.00055
86.55 -0.00092
86.6 -0.00107
86.65 -0.00096
86.7 -0.00078
86.75 -0.00077
86.8 -0.00092
86.85 -0.00092
86.9 -0.00079
86.95 -0.00073
87 -0.00077
87.05 -0.00059
87.1 -0.0006
87.15 -0.00036
87.2 -0.0001
87.25 -0.00007
87.3 -0.0002
87.35 -0.00035
87.4 -0.00039
87.45 -0.00022
87.5 -0.00012
87.55 -0.00023
87.6 -0.00023
87.65 -0.0002
87.7 -0.00007
87.75 -0.00011
87.8 -0.00032
87.85 -0.00029
87.9 -0.00012
87.95 0.00014
88 0.00008
88.05 0.00023
88.1 0.00015
88.15 0.00001
88.2 -0.00007
88.25 -0.00004
88.3 -0.00017
88.35 -0.00033
88.4 -0.00036
88.45 -0.0004
88.5 -0.00056
88.55 -0.00062
88.6 -0.0008
88.65 -0.00092
88.7 -0.00112
88.75 -0.00136
88.8 -0.00138
88.85 -0.00127
88.9 -0.00123
88.95 -0.00087
89 -0.00082
89.05 -0.00053
89.1 -0.00026
89.15 -0.00015
89.2 -0.00015
89.25 -0.00012
89.3 -0.00013
89.35 -0.00032
89.4 -0.00016
89.45 -0.00008
89.5 -0.00017
89.55 0.00003
89.6 0.0004
89.65 0.0006
89.7 0.00075
89.75 0.00064
89.8 0.00061
89.85 0.00031
89.9 -0.00006
89.95 -0.00054
90 -0.00097
90.05 -0.0012
90.1 -0.00145
90.15 -0.00171
90.2 -0.00187
90.25 -0.00182
90.3 -0.0016
90.35 -0.00148
90.4 -0.00124
90.45 -0.00076
90.5 -0.00056
90.55 -0.00042
90.6 -0.00023
90.65 -0.00027
90.7 -0.00007
90.75 0.00028
90.8 0.00054
90.85 0.00077
90.9 0.00103
90.95 0.00105
91 0.00117
91.05 0.00103
91.1 0.00103
91.15 0.00068
91.2 0.00064
91.25 0.00046
91.3 0.00007
91.35 -0.00023
91.4 -0.00051
91.45 -0.00055
91.5 -0.00062
91.55 -0.00072
91.6 -0.00048
91.65 -0.00015
91.7 -0.00002
91.75 -0.00017
91.8 -0.00022
91.85 -0.00028
91.9 -0.00046
91.95 -0.00068
92 -0.00052
92.05 -0.00025
92.1 -0.00024
92.15 -0.00038
92.2 -0.00051
92.25 -0.00053
92.3 -0.00057
92.35 -0.00035
92.4 0.00009
92.45 0.00031
92.5 0.00061
92.55 0.00087
92.6 0.0012
92.65 0.00145
92.7 0.00139
92.75 0.00121
92.8 0.00111
92.85 0.00116
92.9 0.00099
92.95 0.00074
93 0.00063
93.05 0.0005
93.1 0.00049
93.15 0.00051
93.2 0.00026
93.25 -0.00005
93.3 -0.00016
93.35 -0.00017
93.4 0.00007
93.45 0.00042
93.5 0.00037
93.55 0.00005
93.6 -0.00015
93.65 -0.00052
93.7 -0.00079
93.75 -0.00092
93.8 -0.00085
93.85 -0.00079
93.9 -0.00095
93.95 -0.00095
94 -0.00098
94.05 -0.0007
94.1 -0.00037
94.15 -0.00023
94.2 0.00001
94.25 0.00011
94.3 0.00039
94.35 0.0005
94.4 0.00072
94.45 0.0007
94.5 0.00046
94.55 0.00043
94.6 0.00026
94.65 0.00039
94.7 0.0004
94.75 0.00034
94.8 0.00014
94.85 0.00019
94.9 -0.00004
94.95 -0.00038
95 -0.00051
95.05 -0.00068
95.1 -0.00096
95.15 -0.00088
95.2 -0.00081
95.25 -0.00057
95.3 -0.00045
95.35 -0.00031
95.4 -0.00002
95.45 0.00014
95.5 0.00029
95.55 0.00047
95.6 0.00059
95.65 0.00056
95.7 0.00063
95.75 0.00044
95.8 0.00054
95.85 0.00066
95.9 0.00058
95.95 0.00069
96 0.00051
96.05 0.00043
96.1 0.00048
96.15 0.00059
96.2 0.00058
96.25 0.00061
96.3 0.00052
96.35 0.00022
96.4 -0.00003
96.45 -0.00044
96.5 -0.00049
96.55 -0.00044
96.6 -0.00059
96.65 -0.00049
96.7 -0.00039
96.75 -0.00009
96.8 -0.00004
96.85 0.00019
96.9 0.00005
96.95 0.00004
97 0.00018
97.05 -0.00001
97.1 -0.00011
97.15 -0.00024
97.2 -0.00027
97.25 -0.00053
97.3 -0.0005
97.35 -0.00058
97.4 -0.00049
97.45 -0.00066
97.5 -0.00051
97.55 -0.00012
97.6 0.00002
97.65 -0.00008
97.7 -0.00002
97.75 0.00012
97.8 -0
97.85 -0.00032
97.9 -0.0006
97.95 -0.00091
98 -0.00124
98.05 -0.00136
98.1 -0.00111
98.15 -0.00108
98.2 -0.00101
98.25 -0.00086
98.3 -0.00095
98.35 -0.00087
98.4 -0.00078
98.45 -0.00076
98.5 -0.00066
98.55 -0.00052
98.6 -0.00058
98.65 -0.00055
98.7 -0.00064
98.75 -0.0007
98.8 -0.0007
98.85 -0.00074
98.9 -0.00086
98.95 -0.00072
99 -0.00056
99.05 -0.0002
99.1 0
99.15 0.00012
99.2 0.00006
99.25 -0.00019
99.3 -0.00051
99.35 -0.00067
99.4 -0.00075
99.45 -0.00066
99.5 -0.00064
99.55 -0.00054
99.6 -0.00048
99.65 -0.00057
99.7 -0.00061
99.75 -0.00049
99.8 -0.0002
99.85 0.00029
99.9 0.00075
99.95 0.00094
