0 0
0.05 0.00044
0.1 0.00123
0.15 0.00213
0.2 0.00258
0.25 0.00361
0.3 0.00534
0.35 0.00698
0.4 0.00814
0.45 0.00933
0.5 0.01098
0.55 0.01221
0.6 0.01347
0.65 0.01399
0.7 0.01369
0.75 0.013
0.8 0.01148
0.85 0.01059
0.9 0.01068
0.95 0.011
1 0.01167
1.05 0.01238
1.1 0.01199
1.15 0.01213
1.2 0.01202
1.25 0.01097
1.3 0.01004
1.35 0.00849
1.4 0.00725
1.45 0.00565
1.5 0.00481
1.55 0.00461
1.6 0.0041
1.65 0.00432
1.7 0.00422
1.75 0.00415
1.8 0.00422
1.85 0.00525
1.9 0.00541
1.95 0.00504
2 0.00468
2.05 0.00368
2.1 0.00238
2.15 0.00232
2.2 0.00267
2.25 0.00362
2.3 0.00356
2.35 0.00448
2.4 0.00474
2.45 0.00536
2.5 0.00549
2.55 0.0058
2.6 0.00568
2.65 0.00585
2.7 0.00543
2.75 0.00437
2.8 0.00367
2.85 0.00325
2.9 0.00379
2.95 0.00362
3 0.00363
3.05 0.00334
3.1 0.0033
3.15 0.00308
3.2 0.00312
3.25 0.00379
3.3 0.00505
3.35 0.00594
3.4 0.00623
3.45 0.00576
3.5 0.00501
3.55 0.00357
3.6 0.00349
3.65 0.00415
3.7 0.00421
3.75 0.00489
3.8 0.0047
3.85 0.00369
3.9 0.00323
3.95 0.0038
4 0.00385
4.05 0.00375
4.1 0.00279
4.15 0.00246
4.2 0.00307
4.25 0.00274
4.3 0.00251
4.35 0.00306
4.4 0.00264
4.45 0.00284
4.5 0.00275
4.55 0.00201
4.6 0.00217
4.65 0.00208
4.7 0.00257
4.75 0.00255
4.8 0.00193
4.85 0.00158
4.9 0.00208
4.95 0.00284
5 0.00271
5.05 0.00179
5.1 0.00157
5.15 0.00211
5.2 0.00164
5.25 0.00211
5.3 0.0024
5.35 0.00254
5.4 0.00204
5.45 0.00163
5.5 0.0016
5.55 0.00213
5.6 0.0033
5.65 0.00375
5.7 0.00431
5.75 0.00391
5.8 0.00349
5.85 0.00329
5.9 0.00241
5.95 0.00181
6 0.00173
6.05 0.00194
6.1 0.00137
6.15 0.00086
6.2 0.00119
6.25 0.00195
6.3 0.00293
6.35 0.0037
6.4 0.00463
6.45 0.00544
6.5 0.00495
6.55 0.00411
6.6 0.00358
6.65 0.00261
6.7 0.00209
6.75 0.00119
6.8 0.00048
6.85 -0.00044
6.9 -0.00173
6.95 -0.00215
7 -0.00199
7.05 -0.00135
7.1 -0.00113
7.15 -0.00039
7.2 0.00097
7.25 0.00154
7.3 0.00223
7.35 0.00271
7.4 0.00287
7.45 0.00288
7.5 0.00356
7.55 0.00407
7.6 0.00331
7.65 0.00329
7.7 0.00327
7.75 0.00232
7.8 0.00229
7.85 0.00258
7.9 0.00182
7.95 0.00075
8 -0.00003
8.05 0.00022
8.1 0.00051
8.15 0.0014
8.2 0.00177
8.25 0.00111
8.3 0.00131
8.35 0.0018
8.4 0.00203
8.45 0.00207
8.5 0.00239
8.55 0.0026
8.6 0.003
8.65 0.00389
8.7 0.00387
8.75 0.00341
8.8 0.00244
8.85 0.00078
8.9 -0.00053
8.95 -0.00134
9 -0.0015
9.05 -0.00115
9.1 0.00004
9.15 0.0008
9.2 0.00193
9.25 0.00317
9.3 0.0043
9.35 0.00408
9.4 0.00315
9.45 0.00251
9.5 0.00139
9.55 0.00057
9.6 0.00001
9.65 -0.00007
9.7 0.00072
9.75 0.00126
9.8 0.00107
9.85 0.00028
9.9 0.00046
9.95 0.00076
10 0.0004
10.05 -0.00042
10.1 -0.00113
10.15 -0.00188
10.2 -0.00154
10.25 -0.00151
10.3 -0.00094
10.35 -0.00102
10.4 -0.00091
10.45 -0.00118
10.5 -0.00132
10.55 -0.00061
10.6 0.00036
10.65 0.00063
10.7 0.00127
10.75 0.00215
10.8 0.00245
10.85 0.00262
10.9 0.00267
10.95 0.00206
11 0.00106
11.05 0.0007
11.1 0.00047
11.15 0.00048
11.2 -0.00008
11.25 -0.00109
11.3 -0.0008
11.35 -0.00138
11.4 -0.00154
11.45 -0.00163
11.5 -0.00103
11.55 -0.00023
11.6 0.00004
11.65 0.00073
11.7 0.00139
11.75 0.00093
11.8 0.00121
11.85 0.00153
11.9 0.00209
11.95 0.00277
12 0.00276
12.05 0.00181
12.1 0.00034
12.15 -0.00135
12.2 -0.00279
12.25 -0.00384
12.3 -0.00334
12.35 -0.00248
12.4 -0.00184
12.45 -0.00115
12.5 -0.00139
12.55 -0.00146
12.6 -0.00051
12.65 -0.00042
12.7 0.00004
12.75 0.00047
12.8 0.00093
12.85 0.00113
12.9 0.00155
12.95 0.00104
13 0.00005
13.05 -0.00049
13.1 -0.0012
13.15 -0.00188
13.2 -0.00302
13.25 -0.00319
13.3 -0.00311
13.35 -0.00271
13.4 -0.00198
13.45 -0.00154
13.5 -0.00113
13.55 -0.00135
13.6 -0.00161
13.65 -0.00186
13.7 -0.00178
13.75 -0.00221
13.8 -0.00263
13.85 -0.00273
13.9 -0.00208
13.95 -0.00076
14 -0.00062
14.05 -0.00089
14.1 -0.00068
14.15 -0.00035
14.2 0.00072
14.25 0.00111
14.3 0.00177
14.35 0.00282
14.4 0.00246
14.45 0.00137
14.5 -0.00009
14.55 -0.00063
14.6 -0.00068
14.65 -0.00125
14.7 -0.00237
14.75 -0.00205
14.8 -0.00187
14.85 -0.00077
14.9 -0.00052
14.95 -0.00081
15 -0.00119
15.05 -0.00129
15.1 -0.00163
15.15 -0.00106
15.2 0.00019
15.25 0.00076
15.3 0.00144
15.35 0.00128
15.4 0.00159
15.45 0.00128
15.5 0.00164
15.55 0.00152
15.6 0.00125
15.65 0.001
15.7 -0.0001
15.75 -0.00114
15.8 -0.00235
15.85 -0.00369
15.9 -0.00446
15.95 -0.00465
16 -0.00397
16.05 -0.00399
16.1 -0.00416
16.15 -0.00328
16.2 -0.00274
16.25 -0.00287
16.3 -0.00336
16.35 -0.00311
16.4 -0.00231
16.45 -0.00107
16.5 0.00008
16.55 0.00096
16.6 0.00078
16.65 0.00062
16.7 0.00077
16.75 0.0003
16.8 0.00066
16.85 0.00174
16.9 0.00203
16.95 0.00249
17 0.00185
17.05 0.00193
17.1 0.00231
17.15 0.00163
17.2 0.00069
17.25 0.00012
17.3 -0.00032
17.35 -0.00115
17.4 -0.00188
17.45 -0.00225
17.5 -0.00274
17.55 -0.00315
17.6 -0.00261
17.65 -0.00197
17.7 -0.00089
17.75 -0.0003
17.8 -0.00036
17.85 0.00037
17.9 0.00177
17.95 0.00318
18 0.00383
18.05 0.00419
18.1 0.00445
18.15 0.00385
18.2 0.00399
18.25 0.004
18.3 0.00356
18.35 0.00242
18.4 0.00188
18.45 0.00192
18.5 0.00136
18.55 0.00025
18.6 -0.00065
18.65 -0.00047
18.7 -0.00114
18.75 -0.0013
18.8 -0.0011
18.85 -0.00026
18.9 0.0001
18.95 -0.0002
19 -0.00032
19.05 0.00048
19.1 0.00164
19.15 0.00181
19.2 0.00166
19.25 0.00218
19.3 0.0018
19.35 0.00163
19.4 0.00164
19.45 0.00182
19.5 0.00161
19.55 0.0018
19.6 0.00117
19.65 0.00003
19.7 -0.0001
19.75 0.00034
19.8 0.00134
19.85 0.00239
19.9 0.00218
19.95 0.00151
20 0.00128
20.05 0.00151
20.1 0.00207
20.15 0.00227
20.2 0.0017
20.25 0.00095
20.3 -0.0003
20.35 -0.00036
20.4 -0.00119
20.45 -0.00136
20.5 -0.00167
20.55 -0.00225
20.6 -0.0017
20.65 -0.00114
20.7 -0.00038
20.75 -0.00023
20.8 -0.00025
20.85 0.00046
20.9 0.00137
20.95 0.00137
21 0.00104
21.05 0.00008
21.1 -0.00031
21.15 -0.00065
21.2 -0.00049
21.25 -0.00124
21.3 -0.00189
21.35 -0.00285
21.4 -0.00321
21.45 -0.0038
21.5 -0.00385
21.55 -0.00311
21.6 -0.00195
21.65 -0.00038
21.7 0.00103
21.75 0.00096
21.8 -0.00004
21.85 -0.00147
21.9 -0.00282
21.95 -0.00363
22 -0.00444
22.05 -0.00469
22.1 -0.00379
22.15 -0.00356
22.2 -0.00267
22.25 -0.00253
22.3 -0.0013
22.35 -0.00051
22.4 0.0004
22.45 0.00145
22.5 0.00275
22.55 0.0035
22.6 0.00294
22.65 0.00286
22.7 0.00208
22.75 0.00159
22.8 0.00121
22.85 0.00025
22.9 -0.00097
22.95 -0.00122
23 -0.00168
23.05 -0.00218
23.1 -0.00247
23.15 -0.0019
23.2 -0.00093
23.25 -0.0009
23.3 0.00005
23.35 0.00094
23.4 0.00081
23.45 0.00037
23.5 -0.00039
23.55 0.00003
23.6 0.00111
23.65 0.00197
23.7 0.00315
23.75 0.00379
23.8 0.00399
23.85 0.00341
23.9 0.00309
23.95 0.00289
24 0.002
24.05 0.00044
24.1 -0.00013
24.15 0.00026
24.2 0.00075
24.25 0.00098
24.3 0.00114
24.35 0.00073
24.4 0.00127
24.45 0.00082
24.5 0.00081
24.55 0.00156
24.6 0.00228
24.65 0.00268
24.7 0.00336
24.75 0.00349
24.8 0.00265
24.85 0.00238
24.9 0.0014
24.95 0.00065
25 -0.00053
25.05 -0.00123
25.1 -0.0014
25.15 -0.00107
25.2 -0.00018
25.25 0.00107
25.3 0.00175
25.35 0.00278
25.4 0.00388
25.45 0.0039
25.5 0.00417
25.55 0.00358
25.6 0.00265
25.65 0.00163
25.7 0.00037
25.75 -0.00072
25.8 -0.00165
25.85 -0.0024
25.9 -0.00344
25.95 -0.00446
26 -0.00447
26.05 -0.00337
26.1 -0.0031
26.15 -0.00277
26.2 -0.00226
26.25 -0.00129
26.3 -0.00045
26.35 0.00042
26.4 0.00156
26.45 0.00124
26.5 0.00021
26.55 -0.00138
26.6 -0.00278
26.65 -0.00394
26.7 -0.00403
26.75 -0.00388
26.8 -0.00287
26.85 -0.00241
26.9 -0.00218
26.95 -0.00217
27 -0.00109
27.05 -0.00046
27.1 0.00058
27.15 0.00152
27.2 0.00162
27.25 0.00224
27.3 0.00185
27.35 0.0021
27.4 0.00252
27.45 0.0029
27.5 0.00301
27.55 0.00344
27.6 0.00295
27.65 0.00298
27.7 0.00334
27.75 0.0041
27.8 0.00332
27.85 0.0031
27.9 0.00237
27.95 0.00081
28 -0.00101
28.05 -0.0022
28.1 -0.00307
28.15 -0.00346
28.2 -0.0028
28.25 -0.00306
28.3 -0.00273
28.35 -0.00159
28.4 -0.00034
28.45 0.00105
28.5 0.00116
28.55 0.0004
28.6 0.00028
28.65 -0.00057
28.7 -0.00123
28.75 -0.00111
28.8 -0.00104
28.85 -0.00171
28.9 -0.00209
28.95 -0.00288
29 -0.00401
29.05 -0.00489
29.1 -0.00505
29.15 -0.00481
29.2 -0.00441
29.25 -0.00352
29.3 -0.00333
29.35 -0.00317
29.4 -0.00279
29.45 -0.00307
29.5 -0.00384
29.55 -0.0039
29.6 -0.00287
29.65 -0.00216
29.7 -0.00162
29.75 -0.002
29.8 -0.00133
29.85 -0.00119
29.9 -0.00033
29.95 0.0009
30 0.00245
30.05 0.00319
30.1 0.00383
30.15 0.00394
30.2 0.00286
30.25 0.00112
30.3 -0.00038
30.35 -0.00174
30.4 -0.00189
30.45 -0.00115
30.5 0.00028
30.55 0.00085
30.6 0.00145
30.65 0.00227
30.7 0.00184
30.75 0.00143
30.8 0.00044
30.85 -0.00091
30.9 -0.00246
30.95 -0.00252
31 -0.00224
31.05 -0.00198
31.1 -0.00141
31.15 -0.00139
31.2 -0.00112
31.25 -0.00026
31.3 0.00117
31.35 0.00206
31.4 0.0027
31.45 0.00267
31.5 0.00166
31.55 0.001
31.6 -0.00002
31.65 0.00009
31.7 0.00064
31.75 0.00082
31.8 0.00052
31.85 0.00098
31.9 0.00193
31.95 0.00312
32 0.004
32.05 0.00399
32.1 0.00322
32.15 0.0029
32.2 0.00194
32.25 0.00029
32.3 -0.00149
32.35 -0.00162
32.4 -0.00204
32.45 -0.00196
32.5 -0.00119
32.55 -0.00023
32.6 0.00116
32.65 0.00135
32.7 0.00158
32.75 0.00073
32.8 0.00016
32.85 -0.00085
32.9 -0.00183
32.95 -0.00289
33 -0.00352
33.05 -0.00415
33.1 -0.00468
33.15 -0.00436
33.2 -0.00335
33.25 -0.00296
33.3 -0.00241
33.35 -0.00142
33.4 -0.00105
33.45 -0.00041
33.5 -0.00047
33.55 -0.00108
33.6 -0.00107
33.65 -0.00014
33.7 0.0011
33.75 0.00225
33.8 0.00274
33.85 0.00262
33.9 0.0022
33.95 0.0024
34 0.00148
34.05 0.00008
34.1 -0.00165
34.15 -0.00222
34.2 -0.00314
34.25 -0.00318
34.3 -0.00259
34.35 -0.00117
34.4 -0.00037
34.45 0.00083
34.5 0.00082
34.55 0.0013
34.6 0.00101
34.65 0.00113
34.7 0.00096
34.75 0.00164
34.8 0.00233
34.85 0.0018
34.9 0.00214
34.95 0.00226
35 0.00128
35.05 -0.00014
35.1 -0.00166
35.15 -0.00206
35.2 -0.00178
35.25 -0.00118
35.3 -0.00078
35.35 0.00029
35.4 0.00122
35.45 0.0017
35.5 0.00154
35.55 0.00127
35.6 0.0007
35.65 0.00004
35.7 -0.00029
35.75 -0.00062
35.8 -0.00037
35.85 -0.0003
35.9 -0.00052
35.95 -0.00047
36 -0.00097
36.05 -0.00124
36.1 -0.00112
36.15 -0.00029
36.2 0.00079
36.25 0.00193
36.3 0.00313
36.35 0.00442
36.4 0.0053
36.45 0.00608
36.5 0.00518
36.55 0.00491
36.6 0.00367
36.65 0.00252
36.7 0.00238
36.75 0.00279
36.8 0.00287
36.85 0.00322
36.9 0.00355
36.95 0.00359
37 0.00272
37.05 0.00215
37.1 0.00135
37.15 0.00086
37.2 0.00099
37.25 0.00067
37.3 0.00007
37.35 -0.00062
37.4 -0.00048
37.45 -0.0001
37.5 -0.00042
37.55 -0.00036
37.6 -0.00116
37.65 -0.00094
37.7 -0.00048
37.75 -0.00022
37.8 0.00023
37.85 0.00054
37.9 0.00068
37.95 0.0014
38 0.00234
38.05 0.00291
38.1 0.00253
38.15 0.00242
38.2 0.00207
38.25 0.00153
38.3 0.00012
38.35 -0.00049
38.4 -0.00057
38.45 -0.00152
38.5 -0.00262
38.55 -0.00308
38.6 -0.00319
38.65 -0.0029
38.7 -0.00234
38.75 -0.00189
38.8 -0.00168
38.85 -0.00062
38.9 0.00051
38.95 0.00129
39 0.002
39.05 0.00256
39.1 0.00249
39.15 0.00145
39.2 0.00146
39.25 0.00183
39.3 0.00164
39.35 0.00194
39.4 0.00249
39.45 0.00287
39.5 0.00317
39.55 0.00225
39.6 0.00153
39.65 0.00058
39.7 0.00014
39.75 0.00038
39.8 0.00084
39.85 0.00088
39.9 0.00119
39.95 0.00108
40 0.00139
40.05 0.00065
40.1 -0.00051
40.15 -0.0005
40.2 0.00023
40.25 0.00072
40.3 0.00098
40.35 0.00033
40.4 -0.00108
40.45 -0.00118
40.5 -0.00052
40.55 -0.00037
40.6 -0.00042
40.65 0.00003
40.7 -0.00066
40.75 -0.00185
40.8 -0.00202
40.85 -0.00188
40.9 -0.00113
40.95 -0.00039
41 -0.00046
41.05 -0.00132
41.1 -0.00107
41.15 -0.00131
41.2 -0.00187
41.25 -0.00207
41.3 -0.00178
41.35 -0.00155
41.4 -0.00128
41.45 -0.00023
41.5 0.00107
41.55 0.00183
41.6 0.00216
41.65 0.00228
41.7 0.0021
41.75 0.0018
41.8 0.00105
41.85 0.00072
41.9 -0.00053
41.95 -0.00205
42 -0.00269
42.05 -0.00371
42.1 -0.00431
42.15 -0.00476
42.2 -0.00454
42.25 -0.00419
42.3 -0.00457
42.35 -0.0043
42.4 -0.00364
42.45 -0.00356
42.5 -0.00406
42.55 -0.00488
42.6 -0.00431
42.65 -0.00312
42.7 -0.00277
42.75 -0.00255
42.8 -0.00173
42.85 -0.00174
42.9 -0.0015
42.95 -0.00052
43 0.00056
43.05 0.00113
43.1 0.00216
43.15 0.00291
43.2 0.0028
43.25 0.00231
43.3 0.00233
43.35 0.00152
43.4 0.00077
43.45 -0.00032
43.5 -0.00067
43.55 -0.00137
43.6 -0.00177
43.65 -0.00163
43.7 -0.0018
43.75 -0.0018
43.8 -0.00086
43.85 -0.00017
43.9 0
43.95 0.0009
44 0.00095
44.05 0.00053
44.1 -0.00004
44.15 -0.00006
44.2 -0.00081
44.25 -0.00186
44.3 -0.00302
44.35 -0.00317
44.4 -0.0033
44.45 -0.00321
44.5 -0.00206
44.55 -0.00166
44.6 -0.00047
44.65 -0.00022
44.7 0.00073
44.75 0.00185
44.8 0.00263
44.85 0.00307
44.9 0.00334
44.95 0.00299
45 0.00332
45.05 0.00348
45.1 0.00306
45.15 0.00282
45.2 0.00252
45.25 0.00138
45.3 0.00015
45.35 -0.00132
45.4 -0.00156
45.45 -0.00074
45.5 -0.00037
45.55 0.00048
45.6 0.00043
45.65 -0.00024
45.7 -0.00011
45.75 -0.00072
45.8 -0.00051
45.85 -0.00079
45.9 -0.00138
45.95 -0.00125
46 -0.00076
46.05 -0.00032
46.1 0.0004
46.15 0.00109
46.2 0.00104
46.25 0.00093
46.3 0.00058
46.35 -0.00038
46.4 -0.00116
46.45 -0.00143
46.5 -0.00142
46.55 -0.00133
46.6 -0.00147
46.65 -0.00133
46.7 -0.00175
46.75 -0.00182
46.8 -0.00191
46.85 -0.00263
46.9 -0.0034
46.95 -0.00395
47 -0.00402
47.05 -0.00334
47.1 -0.00274
47.15 -0.00219
47.2 -0.00151
47.25 -0.00175
47.3 -0.00257
47.35 -0.00336
47.4 -0.00361
47.45 -0.0033
47.5 -0.00335
47.55 -0.00359
47.6 -0.00364
47.65 -0.00268
47.7 -0.00258
47.75 -0.00156
47.8 -0.00078
47.85 -0.00045
47.9 0.00006
47.95 0.00046
48 0.00113
48.05 0.00151
48.1 0.0016
48.15 0.00204
48.2 0.00204
48.25 0.00108
48.3 0.00129
48.35 0.00088
48.4 -0.00026
48.45 -0.00115
48.5 -0.00136
48.55 -0.00059
48.6 0.00013
48.65 0.00075
48.7 0.00123
48.75 0.00232
48.8 0.00264
48.85 0.0023
48.9 0.00131
48.95 0.00001
49 -0.00012
49.05 0.00042
49.1 0.00039
49.15 -0.00005
49.2 -0.0004
49.25 0.00013
49.3 0.00084
49.35 0.00146
49.4 0.00264
49.45 0.00382
49.5 0.00343
49.55 0.00339
49.6 0.00353
49.65 0.00392
49.7 0.00343
49.75 0.00339
49.8 0.00361
49.85 0.0026
49.9 0.00155
49.95 0.00072
50 -0.00038
50.05 -0.00062
50.1 -0.00009
50.15 -0.00064
50.2 -0.00123
50.25 -0.00097
50.3 -0.00023
50.35 -0.00042
50.4 -0.00105
50.45 -0.00097
50.5 -0.00154
50.55 -0.00181
50.6 -0.00197
50.65 -0.00244
50.7 -0.00176
50.75 -0.00036
50.8 0.0002
50.85 0.00028
50.9 0.00047
50.95 0.00078
51 0.00131
51.05 0.00149
51.1 0.00072
51.15 0.00078
51.2 0.00148
51.25 0.00133
51.3 0.00175
51.35 0.00163
51.4 0.00196
51.45 0.00163
51.5 0.00167
51.55 0.00135
51.6 0.00014
51.65 -0.00101
51.7 -0.00219
51.75 -0.0031
51.8 -0.00338
51.85 -0.00313
51.9 -0.00286
51.95 -0.00291
52 -0.00194
52.05 -0.0003
52.1 0.00016
52.15 0.00018
52.2 0.00042
52.25 0.00103
52.3 0.00066
52.35 -0.00051
52.4 -0.00061
52.45 -0.0006
52.5 -0.00015
52.55 0.00063
52.6 0.00143
52.65 0.00113
52.7 0.00007
52.75 -0.0007
52.8 -0.00144
52.85 -0.00122
52.9 -0.00176
52.95 -0.00244
53 -0.00256
53.05 -0.00263
53.1 -0.00295
53.15 -0.00236
53.2 -0.00183
53.25 -0.00127
53.3 -0.00104
53.35 0.00006
53.4 0.00151
53.45 0.00305
53.5 0.00405
53.55 0.00409
53.6 0.00437
53.65 0.00391
53.7 0.00358
53.75 0.00255
53.8 0.00219
53.85 0.00107
53.9 0.00031
53.95 0.00032
54 0.00069
54.05 0.00119
54.1 0.00075
54.15 0.00033
54.2 -0.00073
54.25 -0.00112
54.3 -0.00126
54.35 -0.00072
54.4 -0.00032
54.45 -0.00035
54.5 -0.00089
54.55 -0.00131
54.6 -0.00192
54.65 -0.0015
54.7 -0.00078
54.75 0.00044
54.8 0.00137
54.85 0.0019
54.9 0.0013
54.95 0.00092
55 0.00128
55.05 0.00171
55.1 0.00159
55.15 0.00158
55.2 0.00213
55.25 0.00276
55.3 0.00202
55.35 0.0015
55.4 0.00179
55.45 0.00131
55.5 0.00095
55.55 0.00072
55.6 -0.00008
55.65 -0.00132
55.7 -0.00233
55.75 -0.00315
55.8 -0.00341
55.85 -0.00327
55.9 -0.00286
55.95 -0.002
56 -0.00172
56.05 -0.00062
56.1 0.00038
56.15 0.00138
56.2 0.00245
56.25 0.00377
56.3 0.00385
56.35 0.00287
56.4 0.00243
56.45 0.00183
56.5 0.00065
56.55 -0.00034
56.6 -0.00107
56.65 -0.00234
56.7 -0.00319
56.75 -0.00427
56.8 -0.00492
56.85 -0.00569
56.9 -0.0066
56.95 -0.00722
57 -0.00776
57.05 -0.00701
57.1 -0.00537
57.15 -0.00303
57.2 -0.00086
57.25 0.00147
57.3 0.0033
57.35 0.00502
57.4 0.00586
57.45 0.00679
57.5 0.00703
57.55 0.00726
57.6 0.00759
57.65 0.00633
57.7 0.00534
57.75 0.00399
57.8 0.0032
57.85 0.00208
57.9 0.00108
57.95 -0.0001
58 -0.00017
58.05 -0.00094
58.1 -0.00102
58.15 -0.00182
58.2 -0.00266
58.25 -0.00224
58.3 -0.00157
58.35 -0.00116
58.4 -0.00095
58.45 -0.00073
58.5 -0.00094
58.55 -0.00163
58.6 -0.00162
58.65 -0.00194
58.7 -0.00152
58.75 -0.00072
58.8 -0.00049
58.85 0.00016
58.9 0.00085
58.95 0.00081
59 0.00094
59.05 0.00008
59.1 -0.00027
59.15 -0.00069
59.2 -0.00038
59.25 -0.00037
59.3 0.00019
59.35 0.00121
59.4 0.00108
59.45 0.00169
59.5 0.00179
59.55 0.00219
59.6 0.00234
59.65 0.00132
59.7 0.00028
59.75 -0.00141
59.8 -0.00342
59.85 -0.00549
59.9 -0.00604
59.95 -0.00652
60 -0.00672
60.05 -0.00706
60.1 -0.00819
60.15 -0.00865
60.2 -0.00965
60.25 -0.0117
60.3 -0.01337
60.35 -0.01486
60.4 -0.01637
60.45 -0.01809
60.5 -0.02129
60.55 -0.0247
60.6 -0.02855
60.65 -0.03445
60.7 -0.0402
60.75 -0.04685
60.8 -0.05431
60.85 -0.06305
60.9 -0.07248
60.95 -0.08337
61 -0.0964
61.05 -0.11031
61.1 -0.12522
61.15 -0.14139
61.2 -0.15822
61.25 -0.17635
61.3 -0.1959
61.35 -0.21772
61.4 -0.24045
61.45 -0.26489
61.5 -0.28938
61.55 -0.31505
61.6 -0.34038
61.65 -0.36576
61.7 -0.39111
61.75 -0.41627
61.8 -0.44007
61.85 -0.46407
61.9 -0.48613
61.95 -0.50718
62 -0.52623
62.05 -0.54328
62.1 -0.55647
62.15 -0.56709
62.2 -0.5746
62.25 -0.5784
62.3 -0.57875
62.35 -0.57514
62.4 -0.56758
62.45 -0.55551
62.5 -0.53822
62.55 -0.51672
62.6 -0.49155
62.65 -0.46291
62.7 -0.43093
62.75 -0.39565
62.8 -0.35746
62.85 -0.31651
62.9 -0.27331
62.95 -0.2278
63 -0.18103
63.05 -0.13429
63.1 -0.08814
63.15 -0.04193
63.2 0.00399
63.25 0.04932
63.3 0.09273
63.35 0.13418
63.4 0.17401
63.45 0.21284
63.5 0.24991
63.55 0.28405
63.6 0.31658
63.65 0.34673
63.7 0.37484
63.75 0.40027
63.8 0.4236
63.85 0.4443
63.9 0.46207
63.95 0.47716
64 0.48943
64.05 0.49887
64.1 0.50723
64.15 0.51451
64.2 0.52068
64.25 0.524
64.3 0.52667
64.35 0.52794
64.4 0.52689
64.45 0.52422
64.5 0.52028
64.55 0.51485
64.6 0.50911
64.65 0.50214
64.7 0.49447
64.75 0.48625
64.8 0.47757
64.85 0.46815
64.9 0.45736
64.95 0.44574
65 0.43355
65.05 0.42182
65.1 0.40992
65.15 0.39669
65.2 0.38398
65.25 0.37128
65.3 0.35842
65.35 0.34588
65.4 0.33303
65.45 0.31976
65.5 0.30698
65.55 0.29407
65.6 0.28063
65.65 0.2665
65.7 0.25329
65.75 0.23988
65.8 0.22696
65.85 0.21394
65.9 0.20178
65.95 0.19047
66 0.17957
66.05 0.17
66.1 0.16048
66.15 0.15148
66.2 0.14355
66.25 0.13498
66.3 0.12613
66.35 0.11835
66.4 0.11148
66.45 0.10405
66.5 0.09674
66.55 0.09027
66.6 0.08426
66.65 0.0776
66.7 0.0717
66.75 0.06557
66.8 0.05986
66.85 0.0536
66.9 0.04682
66.95 0.04023
67 0.03381
67.05 0.02811
67.1 0.02325
67.15 0.01811
67.2 0.01393
67.25 0.01068
67.3 0.00723
67.35 0.00316
67.4 -0.00127
67.45 -0.00499
67.5 -0.00909
67.55 -0.01236
67.6 -0.01554
67.65 -0.01872
67.7 -0.02114
67.75 -0.02364
67.8 -0.02681
67.85 -0.03022
67.9 -0.03323
67.95 -0.03584
68 -0.03821
68.05 -0.04029
68.1 -0.04286
68.15 -0.04499
68.2 -0.04753
68.25 -0.04885
68.3 -0.05004
68.35 -0.05218
68.4 -0.05388
68.45 -0.05464
68.5 -0.05545
68.55 -0.05563
68.6 -0.05567
68.65 -0.05622
68.7 -0.05766
68.75 -0.05933
68.8 -0.06086
68.85 -0.06248
68.9 -0.06278
68.95 -0.06383
69 -0.06479
69.05 -0.06538
69.1 -0.06512
69.15 -0.06562
69.2 -0.06653
69.25 -0.06645
69.3 -0.06608
69.35 -0.06607
69.4 -0.06547
69.45 -0.06479
69.5 -0.06494
69.55 -0.0656
69.6 -0.06625
69.65 -0.06543
69.7 -0.06431
69.75 -0.0629
69.8 -0.06226
69.85 -0.06214
69.9 -0.06236
69.95 -0.0628
70 -0.06179
70.05 -0.06151
70.1 -0.06168
70.15 -0.0617
70.2 -0.06071
70.25 -0.05886
70.3 -0.0576
70.35 -0.05597
70.4 -0.05486
70.45 -0.05448
70.5 -0.05301
70.55 -0.05121
70.6 -0.04921
70.65 -0.04801
70.7 -0.04777
70.75 -0.04666
70.8 -0.04524
70.85 -0.04504
70.9 -0.04481
70.95 -0.0442
71 -0.04446
71.05 -0.04507
71.1 -0.04585
71.15 -0.04639
71.2 -0.04599
71.25 -0.0446
71.3 -0.04307
71.35 -0.04207
71.4 -0.04106
71.45 -0.04034
71.5 -0.03878
71.55 -0.03676
71.6 -0.03459
71.65 -0.03264
71.7 -0.03238
71.75 -0.03312
71.8 -0.03396
71.85 -0.03435
71.9 -0.03387
71.95 -0.03301
72 -0.03176
72.05 -0.03026
72.1 -0.02921
72.15 -0.02857
72.2 -0.02874
72.25 -0.02943
72.3 -0.03007
72.35 -0.03008
72.4 -0.03057
72.45 -0.03096
72.5 -0.03112
72.55 -0.03111
72.6 -0.03047
72.65 -0.03054
72.7 -0.02954
72.75 -0.02807
72.8 -0.02678
72.85 -0.02631
72.9 -0.02654
72.95 -0.0265
73 -0.02552
73.05 -0.02552
73.1 -0.02498
73.15 -0.02353
73.2 -0.02245
73.25 -0.02256
73.3 -0.02217
73.35 -0.02234
73.4 -0.02299
73.45 -0.02257
73.5 -0.02228
73.55 -0.02168
73.6 -0.02103
73.65 -0.01984
73.7 -0.01886
73.75 -0.0176
73.8 -0.01629
73.85 -0.01505
73.9 -0.01519
73.95 -0.01517
74 -0.01476
74.05 -0.01454
74.1 -0.0143
74.15 -0.01377
74.2 -0.01361
74.25 -0.01364
74.3 -0.01322
74.35 -0.01262
74.4 -0.0128
74.45 -0.01396
74.5 -0.01474
74.55 -0.0149
74.6 -0.01459
74.65 -0.01452
74.7 -0.01512
74.75 -0.015
74.8 -0.01408
74.85 -0.01384
74.9 -0.01327
74.95 -0.01265
75 -0.01191
75.05 -0.01124
75.1 -0.01148
75.15 -0.01246
75.2 -0.01233
75.25 -0.01203
75.3 -0.01135
75.35 -0.01044
75.4 -0.0108
75.45 -0.01118
75.5 -0.01175
75.55 -0.01204
75.6 -0.01241
75.65 -0.01193
75.7 -0.01096
75.75 -0.01107
75.8 -0.0106
75.85 -0.01108
75.9 -0.01161
75.95 -0.01259
76 -0.01228
76.05 -0.01128
76.1 -0.01064
76.15 -0.01065
76.2 -0.0104
76.25 -0.00944
76.3 -0.00794
76.35 -0.007
76.4 -0.00607
76.45 -0.00518
76.5 -0.0052
76.55 -0.00496
76.6 -0.00487
76.65 -0.00442
76.7 -0.0049
76.75 -0.00633
76.8 -0.00699
76.85 -0.00806
76.9 -0.00921
76.95 -0.01069
77 -0.01113
77.05 -0.01051
77.1 -0.00995
77.15 -0.00848
77.2 -0.00742
77.25 -0.00654
77.3 -0.00603
77.35 -0.0063
77.4 -0.00649
77.45 -0.00674
77.5 -0.00692
77.55 -0.00673
77.6 -0.00673
77.65 -0.00755
77.7 -0.00739
77.75 -0.00771
77.8 -0.00774
77.85 -0.0082
77.9 -0.00887
77.95 -0.00954
78 -0.01034
78.05 -0.01103
78.1 -0.01015
78.15 -0.00913
78.2 -0.0074
78.25 -0.00633
78.3 -0.0062
78.35 -0.00548
78.4 -0.00521
78.45 -0.00425
78.5 -0.00425
78.55 -0.0043
78.6 -0.0044
78.65 -0.00359
78.7 -0.00311
78.75 -0.00294
78.8 -0.00214
78.85 -0.00115
78.9 -0.00002
78.95 0.00118
79 0.00111
79.05 0.00139
79.1 0.00041
79.15 -0.00124
79.2 -0.00261
79.25 -0.0031
79.3 -0.00258
79.35 -0.00243
79.4 -0.00183
79.45 -0.00228
79.5 -0.00354
79.55 -0.00519
79.6 -0.00569
79.65 -0.00624
79.7 -0.00673
79.75 -0.00673
79.8 -0.00686
79.85 -0.00662
79.9 -0.00662
79.95 -0.00711
80 -0.00699
80.05 -0.0057
80.1 -0.00472
80.15 -0.00351
80.2 -0.00178
80.25 -0.00066
80.3 0.00051
80.35 0.00093
80.4 0.0005
80.45 -0.00043
80.5 -0.00104
80.55 -0.00081
80.6 -0.00039
80.65 -0.00071
80.7 -0.00121
80.75 -0.00227
80.8 -0.00359
80.85 -0.00346
80.9 -0.0031
80.95 -0.00336
81 -0.00413
81.05 -0.00418
81.1 -0.00435
81.15 -0.00512
81.2 -0.00456
81.25 -0.00324
81.3 -0.00198
81.35 -0.002
81.4 -0.00237
81.45 -0.00169
81.5 -0.00136
81.55 -0.00204
81.6 -0.0028
81.65 -0.00399
81.7 -0.00496
81.75 -0.00547
81.8 -0.00477
81.85 -0.00414
81.9 -0.00297
81.95 -0.00194
82 -0.00143
82.05 -0.00092
82.1 -0.00096
82.15 -0.00069
82.2 -0.00045
82.25 -0.00119
82.3 -0.00215
82.35 -0.00189
82.4 -0.00093
82.45 -0.00032
82.5 0.0005
82.55 0.00018
82.6 -0.00056
82.65 -0.00053
82.7 -0.00014
82.75 -0.00011
82.8 -0.00065
82.85 -0.00013
82.9 0.00036
82.95 0.0009
83 0.00021
83.05 -0.00004
83.1 -0.00018
83.15 -0.0003
83.2 -0.00116
83.25 -0.00246
83.3 -0.00244
83.35 -0.00166
83.4 -0.00063
83.45 -0.00004
83.5 0.00081
83.55 0.00139
83.6 0.00207
83.65 0.00205
83.7 0.00143
83.75 0.00072
83.8 0.00026
83.85 -0.00064
83.9 -0.0018
83.95 -0.00274
84 -0.00385
84.05 -0.00396
84.1 -0.00331
84.15 -0.00225
84.2 -0.00212
84.25 -0.00245
84.3 -0.00251
84.35 -0.00264
84.4 -0.00237
84.45 -0.00164
84.5 -0.00072
84.55 0.00019
84.6 0.00098
84.65 0.00201
84.7 0.00247
84.75 0.0028
84.8 0.00232
84.85 0.00171
84.9 0.00195
84.95 0.00133
85 0.00054
85.05 -0.00003
85.1 -0.0002
85.15 0.00024
85.2 0.00033
85.25 0.00113
85.3 0.00182
85.35 0.00243
85.4 0.00191
85.45 0.00063
85.5 -0.00025
85.55 -0.00003
85.6 -0.00036
85.65 -0.00129
85.7 -0.00163
85.75 -0.0026
85.8 -0.00361
85.85 -0.00356
85.9 -0.00356
85.95 -0.00251
86 -0.00117
86.05 -0.00066
86.1 -0.0003
86.15 -0.00083
86.2 -0.0008
86.25 -0.00017
86.3 0.00022
86.35 0.00064
86.4 0.00129
86.45 0.00152
86.5 0.00188
86.55 0.0018
86.6 0.00222
86.65 0.00261
86.7 0.0017
86.75 0.0013
86.8 0.0014
86.85 0.00137
86.9 0.00063
86.95 -0.00015
87 0.00003
87.05 -0.00027
87.1 0.00005
87.15 0.00028
87.2 -0.00014
87.25 -0.00028
87.3 -0.00083
87.35 -0.00169
87.4 -0.00223
87.45 -0.00248
87.5 -0.00219
87.55 -0.00196
87.6 -0.00093
87.65 -0.0001
87.7 -0.0003
87.75 -0.00016
87.8 -0.00088
87.85 -0.0014
87.9 -0.00166
87.95 -0.00132
88 -0.00192
88.05 -0.00161
88.1 -0.00079
88.15 0.00062
88.2 0.00136
88.25 0.00079
88.3 0.00003
88.35 -0.00014
88.4 0.00049
88.45 0.00127
88.5 0.00089
88.55 0.00137
88.6 0.00162
88.65 0.00108
88.7 -0.00017
88.75 -0.0005
88.8 -0.0002
88.85 -0.00012
88.9 0.00028
88.95 0.00093
89 0.00171
89.05 0.00245
89.1 0.00334
89.15 0.00414
89.2 0.00418
89.25 0.00354
89.3 0.00289
89.35 0.00227
89.4 0.00217
89.45 0.00136
89.5 0.00146
89.55 0.00157
89.6 0.00076
89.65 0.00014
89.7 0.00052
89.75 0.00028
89.8 -0.0005
89.85 -0.00189
89.9 -0.00223
89.95 -0.00255
90 -0.00325
90.05 -0.00389
90.1 -0.00422
90.15 -0.00485
90.2 -0.0056
90.25 -0.00566
90.3 -0.00583
90.35 -0.00632
90.4 -0.00612
90.45 -0.00641
90.5 -0.00589
90.55 -0.00436
90.6 -0.00358
90.65 -0.00253
90.7 -0.00219
90.75 -0.00201
90.8 -0.00221
90.85 -0.00216
90.9 -0.00154
90.95 -0.00081
91 0.0002
91.05 0.00083
91.1 0.00172
91.15 0.00139
91.2 0.00087
91.25 -0.0002
91.3 -0.00093
91.35 -0.00048
91.4 -0.00082
91.45 -0.00182
91.5 -0.00232
91.55 -0.00177
91.6 -0.00096
91.65 0.00021
91.7 0.00067
91.75 0.00072
91.8 0.00021
91.85 -0.00092
91.9 -0.00159
91.95 -0.00144
92 -0.00072
92.05 -0.00056
92.1 0.00044
92.15 0.00025
92.2 0.00065
92.25 0.00112
92.3 0.00131
92.35 0.00193
92.4 0.00279
92.45 0.00315
92.5 0.00282
92.55 0.00268
92.6 0.0025
92.65 0.0029
92.7 0.00329
92.75 0.00321
92.8 0.00348
92.85 0.00421
92.9 0.00356
92.95 0.00321
93 0.00277
93.05 0.00158
93.1 0.00032
93.15 -0.0009
93.2 -0.00137
93.25 -0.00207
93.3 -0.00318
93.35 -0.00395
93.4 -0.00343
93.45 -0.00198
93.5 -0.00088
93.55 0.00014
93.6 -0.00003
93.65 -0.00074
93.7 -0.00169
93.75 -0.00176
93.8 -0.00162
93.85 -0.00135
93.9 -0.00129
93.95 -0.00104
94 -0.00119
94.05 -0.00107
94.1 -0.00113
94.15 -0.00156
94.2 -0.0025
94.25 -0.0035
94.3 -0.00381
94.35 -0.00438
94.4 -0.00468
94.45 -0.00365
94.5 -0.00329
94.55 -0.00349
94.6 -0.00301
94.65 -0.00315
94.7 -0.00311
94.75 -0.00215
94.8 -0.0015
94.85 -0.0016
94.9 -0.00152
94.95 -0.001
95 -0.00078
95.05 -0.00138
95.1 -0.00183
95.15 -0.00169
95.2 -0.00126
95.25 -0.00085
95.3 -0.00067
95.35 -0.00025
95.4 0.00022
95.45 0.00063
95.5 0.00152
95.55 0.00118
95.6 0.00157
95.65 0.00134
95.7 0.00138
95.75 0.00114
95.8 0.00124
95.85 0.00204
95.9 0.00326
95.95 0.00359
96 0.00368
96.05 0.00299
96.1 0.00172
96.15 -0.00004
96.2 -0.00129
96.25 -0.00145
96.3 -0.00165
96.35 -0.00115
96.4 0.00009
96.45 0.00058
96.5 0.00117
96.55 0.0021
96.6 0.00209
96.65 0.00132
96.7 0.00118
96.75 0.001
96.8 0.0017
96.85 0.00219
96.9 0.0028
96.95 0.00362
97 0.00409
97.05 0.0046
97.1 0.0049
97.15 0.00483
97.2 0.00384
97.25 0.00243
97.3 0.00129
97.35 0.0012
97.4 0.0006
97.45 -0.00037
97.5 -0.00057
97.55 -0.00087
97.6 -0.00065
97.65 -0.00035
97.7 -0.00105
97.75 -0.00084
97.8 -0.00057
97.85 -0.00052
97.9 -0.00044
97.95 -0.00005
98 0.00051
98.05 -0.00005
98.1 -0.00108
98.15 -0.00101
98.2 -0.0001
98.25 0.00029
98.3 0.00103
98.35 0.001
98.4 0.0009
98.45 0.00007
98.5 -0.00044
98.55 -0.00031
98.6 0.00044
98.65 0.00168
98.7 0.00255
98.75 0.00268
98.8 0.00299
98.85 0.00295
98.9 0.00176
98.95 0.00127
99 0.00032
99.05 -0.00018
99.1 -0.0003
99.15 -0.00011
99.2 0.00068
99.25 0.00106
99.3 0.00102
99.35 0.00063
99.4 -0.00057
99.45 -0.00074
99.5 -0.00097
99.55 -0.00127
99.6 -0.00145
99.65 -0.00083
99.7 -0.00023
99.75 -0.00044
99.8 -0.0009
99.85 -0.00034
99.9 0.00068
99.95 0.0014
