0 0
0.05 0.00178
0.1 0.00383
0.15 0.00556
0.2 0.00683
0.25 0.00785
0.3 0.0091
0.35 0.00953
0.4 0.00953
0.45 0.00956
0.5 0.00959
0.55 0.00947
0.6 0.00871
0.65 0.00778
0.7 0.00844
0.75 0.00989
0.8 0.00989
0.85 0.01088
0.9 0.01253
0.95 0.01473
1 0.01638
1.05 0.01599
1.1 0.01431
1.15 0.01207
1.2 0.01092
1.25 0.01019
1.3 0.00965
1.35 0.00962
1.4 0.01055
1.45 0.01018
1.5 0.00956
1.55 0.01011
1.6 0.00931
1.65 0.00888
1.7 0.00752
1.75 0.00653
1.8 0.00594
1.85 0.00478
1.9 0.00367
1.95 0.0045
2 0.00488
2.05 0.0053
2.1 0.00666
2.15 0.00764
2.2 0.00888
2.25 0.01077
2.3 0.01072
2.35 0.01074
2.4 0.01038
2.45 0.00965
2.5 0.00823
2.55 0.00801
2.6 0.00751
2.65 0.00795
2.7 0.00808
2.75 0.00914
2.8 0.00997
2.85 0.00931
2.9 0.0081
2.95 0.00811
3 0.00918
3.05 0.00865
3.1 0.00888
3.15 0.00912
3.2 0.00782
3.25 0.00663
3.3 0.00695
3.35 0.00645
3.4 0.00525
3.45 0.00542
3.5 0.0061
3.55 0.00651
3.6 0.00755
3.65 0.00914
3.7 0.00899
3.75 0.00821
3.8 0.0081
3.85 0.00727
3.9 0.00773
3.95 0.0085
4 0.00765
4.05 0.00786
4.1 0.00824
4.15 0.00794
4.2 0.00685
4.25 0.00607
4.3 0.00448
4.35 0.00234
4.4 0.00042
4.45 0.00006
4.5 -0.00033
4.55 -0.00069
4.6 0.00016
4.65 0.00203
4.7 0.00461
4.75 0.00643
4.8 0.00662
4.85 0.00653
4.9 0.00569
4.95 0.00471
5 0.00284
5.05 0.00165
5.1 0.00051
5.15 -0.00002
5.2 0.00075
5.25 0.00135
5.3 0.00134
5.35 0.00084
5.4 0.00026
5.45 -0.00028
5.5 0.00076
5.55 0.0017
5.6 0.0028
5.65 0.00246
5.7 0.003
5.75 0.00296
5.8 0.00228
5.85 0.00174
5.9 0.00072
5.95 -0.00091
6 -0.00161
6.05 -0.00048
6.1 0.00024
6.15 -0.00025
6.2 0.00051
6.25 0.0001
6.3 -0.00051
6.35 0.00048
6.4 0.00067
6.45 0.00172
6.5 0.00159
6.55 0.00048
6.6 -0.00044
6.65 -0.00119
6.7 -0.00178
6.75 -0.00092
6.8 -0.00112
6.85 -0.00157
6.9 -0.00191
6.95 -0.00139
7 -0.00033
7.05 -0.00045
7.1 0.00093
7.15 0.00303
7.2 0.00514
7.25 0.00578
7.3 0.00616
7.35 0.00532
7.4 0.00405
7.45 0.00306
7.5 0.00239
7.55 0.00263
7.6 0.00346
7.65 0.00412
7.7 0.00358
7.75 0.00324
7.8 0.00275
7.85 0.00293
7.9 0.00354
7.95 0.00422
8 0.0036
8.05 0.00374
8.1 0.00442
8.15 0.0052
8.2 0.00472
8.25 0.00512
8.3 0.0061
8.35 0.00724
8.4 0.00665
8.45 0.00639
8.5 0.00525
8.55 0.00452
8.6 0.00409
8.65 0.00453
8.7 0.00428
8.75 0.00454
8.8 0.00422
8.85 0.00285
8.9 0.0008
8.95 0.0004
9 -0.00009
9.05 0.00066
9.1 0.00184
9.15 0.00178
9.2 0.00282
9.25 0.00324
9.3 0.00304
9.35 0.00366
9.4 0.00437
9.45 0.00532
9.5 0.00587
9.55 0.00481
9.6 0.00297
9.65 0.00136
9.7 -0.00049
9.75 -0.0026
9.8 -0.00443
9.85 -0.00458
9.9 -0.00446
9.95 -0.00432
10 -0.0037
10.05 -0.00322
10.1 -0.00205
10.15 -0.00112
10.2 -0.00031
10.25 -0.00061
10.3 0.0001
10.35 0.00084
10.4 0.0022
10.45 0.0038
10.5 0.00362
10.55 0.00446
10.6 0.00462
10.65 0.00467
10.7 0.00501
10.75 0.00392
10.8 0.00253
10.85 0.0006
10.9 -0.00135
10.95 -0.00183
11 -0.00295
11.05 -0.0036
11.1 -0.00256
11.15 -0.00162
11.2 -0.00018
11.25 0.0006
11.3 0.00141
11.35 0.00283
11.4 0.00412
11.45 0.00484
11.5 0.00448
11.55 0.00284
11.6 0.00231
11.65 0.0023
11.7 0.00286
11.75 0.00286
11.8 0.00367
11.85 0.00289
11.9 0.00136
11.95 0.00101
12 0.00116
12.05 0.00029
12.1 0.00018
12.15 0.00011
12.2 0.00073
12.25 0.00218
12.3 0.00337
12.35 0.00302
12.4 0.00228
12.45 0.00119
12.5 0.00127
12.55 0.00237
12.6 0.00318
12.65 0.00225
12.7 0.00028
12.75 -0.00017
12.8 0.00027
12.85 0.00079
12.9 0.00146
12.95 0.00116
13 0.00004
13.05 -0.00053
13.1 -0.00129
13.15 -0.00207
13.2 -0.00326
13.25 -0.00413
13.3 -0.00421
13.35 -0.00302
13.4 -0.00095
13.45 -0.00054
13.5 -0.00076
13.55 -0.00154
13.6 -0.00201
13.65 -0.00246
13.7 -0.00251
13.75 -0.00203
13.8 -0.00213
13.85 -0.00186
13.9 -0.00261
13.95 -0.00377
14 -0.00512
14.05 -0.00471
14.1 -0.00396
14.15 -0.0038
14.2 -0.00435
14.25 -0.00389
14.3 -0.0026
14.35 -0.00281
14.4 -0.0037
14.45 -0.00359
14.5 -0.00331
14.55 -0.00345
14.6 -0.00226
14.65 -0.00016
14.7 0.0018
14.75 0.00195
14.8 0.00174
14.85 0.00227
14.9 0.00217
14.95 0.00193
15 0.00215
15.05 0.00092
15.1 -0.00003
15.15 0.0003
15.2 0.00159
15.25 0.00279
15.3 0.00437
15.35 0.006
15.4 0.00664
15.45 0.00701
15.5 0.00692
15.55 0.00636
15.6 0.00506
15.65 0.00423
15.7 0.00333
15.75 0.00365
15.8 0.00457
15.85 0.00506
15.9 0.00565
15.95 0.00434
16 0.00209
16.05 0.00126
16.1 0.0017
16.15 0.00176
16.2 0.00184
16.25 0.00248
16.3 0.0038
16.35 0.00521
16.4 0.00655
16.45 0.00553
16.5 0.00501
16.55 0.00299
16.6 0.00025
16.65 -0.00111
16.7 -0.00241
16.75 -0.00233
16.8 -0.00262
16.85 -0.00203
16.9 -0.00084
16.95 0.00026
17 0.00141
17.05 0.00239
17.1 0.00268
17.15 0.0023
17.2 0.00162
17.25 0.00092
17.3 0.00038
17.35 0.0004
17.4 0.0005
17.45 -0.00084
17.5 -0.00252
17.55 -0.0024
17.6 -0.00343
17.65 -0.00367
17.7 -0.00262
17.75 -0.00202
17.8 -0.00222
17.85 -0.00248
17.9 -0.00227
17.95 -0.00206
18 -0.00112
18.05 -0.00074
18.1 -0.0007
18.15 -0.00173
18.2 -0.00222
18.25 -0.00308
18.3 -0.00412
18.35 -0.00419
18.4 -0.00503
18.45 -0.00524
18.5 -0.00591
18.55 -0.00549
18.6 -0.00383
18.65 -0.00217
18.7 -0.0001
18.75 0.00087
18.8 0.00097
18.85 0.00005
18.9 -0.0005
18.95 -0.00124
19 -0.00224
19.05 -0.00393
19.1 -0.00584
19.15 -0.00685
19.2 -0.00585
19.25 -0.00436
19.3 -0.0029
19.35 -0.00198
19.4 -0.00097
19.45 -0.00091
19.5 -0.00138
19.55 -0.00167
19.6 -0.00109
19.65 -0.00121
19.7 -0.00142
19.75 -0.00231
19.8 -0.00244
19.85 -0.00148
19.9 -0.00098
19.95 -0.00019
20 0.00048
20.05 -0.00008
20.1 -0.00081
20.15 -0.00244
20.2 -0.00334
20.25 -0.00382
20.3 -0.00382
20.35 -0.00242
20.4 -0.00103
20.45 0.00027
20.5 0.00078
20.55 -0.00016
20.6 -0.00066
20.65 0.00025
20.7 0.00132
20.75 0.00291
20.8 0.00341
20.85 0.00428
20.9 0.00337
20.95 0.00188
21 0.00128
21.05 0.00153
21.1 0.00065
21.15 -0.00097
21.2 -0.00154
21.25 -0.00286
21.3 -0.00293
21.35 -0.00169
21.4 -0.00192
21.45 -0.00233
21.5 -0.00162
21.55 -0.00009
21.6 0.00055
21.65 0.00104
21.7 0.00072
21.75 -0.00031
21.8 -0.00201
21.85 -0.00198
21.9 -0.00095
21.95 0.00098
22 0.00324
22.05 0.00345
22.1 0.00234
22.15 0.0025
22.2 0.00256
22.25 0.00158
22.3 0.0019
22.35 0.00114
22.4 -0.00059
22.45 -0.00288
22.5 -0.00365
22.55 -0.00498
22.6 -0.00656
22.65 -0.00721
22.7 -0.007
22.75 -0.00595
22.8 -0.00433
22.85 -0.00336
22.9 -0.00361
22.95 -0.00224
23 -0.00056
23.05 0.00147
23.1 0.00379
23.15 0.00596
23.2 0.00697
23.25 0.00806
23.3 0.00734
23.35 0.00661
23.4 0.00563
23.45 0.00409
23.5 0.00213
23.55 0.00111
23.6 0.00122
23.65 0.0011
23.7 0.00044
23.75 0.00045
23.8 0.00039
23.85 -0.00018
23.9 -0.00038
23.95 0.00008
24 0.00099
24.05 0.00082
24.1 0.00124
24.15 0.00049
24.2 -0.00051
24.25 -0.00154
24.3 -0.00181
24.35 -0.00155
24.4 -0.00099
24.45 -0.00034
24.5 0.0006
24.55 0.00121
24.6 0.00185
24.65 0.00266
24.7 0.00198
24.75 0.0004
24.8 -0.00112
24.85 -0.00238
24.9 -0.00388
24.95 -0.00519
25 -0.00651
25.05 -0.00741
25.1 -0.00757
25.15 -0.00723
25.2 -0.00628
25.25 -0.00444
25.3 -0.00235
25.35 -0.00032
25.4 0.00202
25.45 0.00434
25.5 0.00473
25.55 0.00526
25.6 0.00596
25.65 0.00546
25.7 0.00457
25.75 0.00354
25.8 0.00223
25.85 0.00005
25.9 -0.00055
25.95 -0.00042
26 -0.00047
26.05 0.00009
26.1 -0.00049
26.15 -0.00071
26.2 -0.00202
26.25 -0.00228
26.3 -0.00159
26.35 -0.00153
26.4 -0.00041
26.45 -0.00052
26.5 -0.00048
26.55 -0.00101
26.6 -0.00181
26.65 -0.00262
26.7 -0.00376
26.75 -0.00478
26.8 -0.00577
26.85 -0.00652
26.9 -0.00731
26.95 -0.00643
27 -0.00473
27.05 -0.0041
27.1 -0.00382
27.15 -0.00383
27.2 -0.0037
27.25 -0.00365
27.3 -0.00427
27.35 -0.00305
27.4 -0.00264
27.45 -0.00112
27.5 0.00097
27.55 0.00201
27.6 0.00159
27.65 0.0009
27.7 -0.00057
27.75 -0.00245
27.8 -0.00274
27.85 -0.00364
27.9 -0.00455
27.95 -0.00524
28 -0.0049
28.05 -0.00538
28.1 -0.00415
28.15 -0.00272
28.2 -0.00256
28.25 -0.00201
28.3 -0.00177
28.35 -0.00184
28.4 -0.00209
28.45 -0.0023
28.5 -0.00188
28.55 -0.00169
28.6 -0.00164
28.65 -0.00033
28.7 0.00058
28.75 0.00096
28.8 0.00089
28.85 0.0014
28.9 0.00171
28.95 0.00185
29 0.00217
29.05 0.00344
29.1 0.00435
29.15 0.00438
29.2 0.00437
29.25 0.00442
29.3 0.00443
29.35 0.0049
29.4 0.00425
29.45 0.00453
29.5 0.00434
29.55 0.00483
29.6 0.00429
29.65 0.0039
29.7 0.00225
29.75 0.00217
29.8 0.00182
29.85 0.00228
29.9 0.0016
29.95 0.00142
30 0.00101
30.05 0.00003
30.1 -0.00018
30.15 -0.00059
30.2 0.00034
30.25 -0.00016
30.3 -0.00165
30.35 -0.00361
30.4 -0.00533
30.45 -0.00635
30.5 -0.00578
30.55 -0.00454
30.6 -0.00323
30.65 -0.00304
30.7 -0.0021
30.75 -0.00022
30.8 0.00042
30.85 0.00032
30.9 0.00153
30.95 0.00327
31 0.00377
31.05 0.00332
31.1 0.00297
31.15 0.00202
31.2 0.0024
31.25 0.00225
31.3 0.00168
31.35 0.00178
31.4 0.00161
31.45 0.00164
31.5 0.00186
31.55 0.00147
31.6 0.00003
31.65 -0.00148
31.7 -0.0032
31.75 -0.00522
31.8 -0.00479
31.85 -0.00286
31.9 -0.00086
31.95 0.00106
32 0.00159
32.05 0.00074
32.1 -0.00056
32.15 -0.00199
32.2 -0.00336
32.25 -0.00417
32.3 -0.00341
32.35 -0.00267
32.4 -0.00241
32.45 -0.00113
32.5 -0.00128
32.55 -0.00192
32.6 -0.00222
32.65 -0.00332
32.7 -0.00289
32.75 -0.00239
32.8 -0.0018
32.85 -0.00044
32.9 0.0002
32.95 0.00132
33 0.00275
33.05 0.00441
33.1 0.00448
33.15 0.00481
33.2 0.00567
33.25 0.00692
33.3 0.00825
33.35 0.00776
33.4 0.0062
33.45 0.00435
33.5 0.00373
33.55 0.00367
33.6 0.00304
33.65 0.00203
33.7 0.00121
33.75 0.001
33.8 0.00021
33.85 -0.00015
33.9 -0.00126
33.95 -0.00152
34 -0.00097
34.05 -0.00143
34.1 -0.00139
34.15 -0.00164
34.2 -0.00262
34.25 -0.00246
34.3 -0.00195
34.35 -0.00055
34.4 -0.00074
34.45 -0.0012
34.5 -0.00126
34.55 -0.00116
34.6 -0.00082
34.65 -0.00069
34.7 0.00064
34.75 0.00032
34.8 -0.0006
34.85 -0.00194
34.9 -0.00324
34.95 -0.00301
35 -0.00204
35.05 -0.00204
35.1 -0.00157
35.15 -0.00097
35.2 -0.00038
35.25 -0.00055
35.3 -0.00127
35.35 -0.00079
35.4 -0.00158
35.45 -0.00302
35.5 -0.00342
35.55 -0.00358
35.6 -0.00382
35.65 -0.00466
35.7 -0.00543
35.75 -0.00541
35.8 -0.00444
35.85 -0.00312
35.9 -0.00283
35.95 -0.00233
36 -0.00264
36.05 -0.00293
36.1 -0.00292
36.15 -0.00269
36.2 -0.00275
36.25 -0.00294
36.3 -0.00236
36.35 -0.00271
36.4 -0.00243
36.45 -0.00229
36.5 -0.00099
36.55 0.00009
36.6 -0.00016
36.65 -0.00121
36.7 -0.00176
36.75 -0.0025
36.8 -0.0019
36.85 -0.00106
36.9 -0.00041
36.95 0.00135
37 0.00182
37.05 0.00315
37.1 0.00273
37.15 0.00231
37.2 0.00279
37.25 0.00323
37.3 0.00299
37.35 0.00186
37.4 0.0005
37.45 -0.00066
37.5 -0.00019
37.55 -0.00082
37.6 -0.00115
37.65 -0.00069
37.7 0.00092
37.75 0.00259
37.8 0.00275
37.85 0.00269
37.9 0.00176
37.95 0.00084
38 0.00079
38.05 0.00028
38.1 0.0009
38.15 0.00161
38.2 0.00128
38.25 0.00202
38.3 0.00126
38.35 0.00078
38.4 0.00082
38.45 0.00037
38.5 0.00096
38.55 0.00038
38.6 -0.00112
38.65 -0.0023
38.7 -0.00328
38.75 -0.00468
38.8 -0.00433
38.85 -0.00483
38.9 -0.00475
38.95 -0.00482
39 -0.00313
39.05 -0.00212
39.1 -0.00039
39.15 0.00108
39.2 0.00247
39.25 0.00435
39.3 0.00645
39.35 0.00639
39.4 0.00656
39.45 0.00726
39.5 0.00729
39.55 0.00673
39.6 0.0066
39.65 0.00706
39.7 0.00672
39.75 0.00599
39.8 0.00397
39.85 0.00198
39.9 -0.0001
39.95 -0.00063
40 -0.00106
40.05 -0.00159
40.1 -0.00138
40.15 -0.00121
40.2 0.00014
40.25 -0.00003
40.3 -0.00037
40.35 -0.00026
40.4 -0.00099
40.45 -0.00145
40.5 -0.00144
40.55 -0.00153
40.6 -0.00156
40.65 -0.0004
40.7 0.00158
40.75 0.00393
40.8 0.00525
40.85 0.00591
40.9 0.00482
40.95 0.00489
41 0.00456
41.05 0.00453
41.1 0.00428
41.15 0.00363
41.2 0.00369
41.25 0.00331
41.3 0.00208
41.35 0.00161
41.4 0.00183
41.45 0.00088
41.5 -0.00013
41.55 -0.00052
41.6 -0.00152
41.65 -0.00215
41.7 -0.00268
41.75 -0.00348
41.8 -0.00383
41.85 -0.00384
41.9 -0.00405
41.95 -0.00447
42 -0.00471
42.05 -0.00422
42.1 -0.00468
42.15 -0.00435
42.2 -0.00408
42.25 -0.00419
42.3 -0.00363
42.35 -0.00369
42.4 -0.00379
42.45 -0.00303
42.5 -0.00154
42.55 0.00039
42.6 0.00285
42.65 0.00456
42.7 0.00471
42.75 0.00495
42.8 0.00418
42.85 0.00426
42.9 0.00359
42.95 0.00185
43 0.00178
43.05 0.00107
43.1 0.00149
43.15 0.00065
43.2 0.00019
43.25 -0.00031
43.3 -0.00099
43.35 -0.00092
43.4 -0.00071
43.45 -0.00087
43.5 -0.00038
43.55 -0.00126
43.6 -0.00119
43.65 -0.00046
43.7 0.00039
43.75 0.00199
43.8 0.00324
43.85 0.00267
43.9 0.00139
43.95 0.00012
44 -0.00103
44.05 -0.00144
44.1 -0.00103
44.15 0.00048
44.2 0.00038
44.25 0.00101
44.3 0.00085
44.35 -0.0004
44.4 -0.00201
44.45 -0.00331
44.5 -0.00414
44.55 -0.00478
44.6 -0.0051
44.65 -0.00463
44.7 -0.00272
44.75 -0.00003
44.8 0.00052
44.85 0.0008
44.9 0.00127
44.95 0.00101
45 0.001
45.05 0.00121
45.1 0.00048
45.15 0.00015
45.2 0.00083
45.25 -0.00003
45.3 -0.00013
45.35 0.00064
45.4 0.00125
45.45 0.00251
45.5 0.00185
45.55 0.00058
45.6 0.00055
45.65 -0.00088
45.7 -0.00279
45.75 -0.00489
45.8 -0.00651
45.85 -0.00761
45.9 -0.00827
45.95 -0.01043
46 -0.01379
46.05 -0.01735
46.1 -0.02151
46.15 -0.02506
46.2 -0.02823
46.25 -0.03194
46.3 -0.03547
46.35 -0.03965
46.4 -0.04517
46.45 -0.05327
46.5 -0.06256
46.55 -0.07292
46.6 -0.08414
46.65 -0.0966
46.7 -0.11084
46.75 -0.12769
46.8 -0.14561
46.85 -0.16444
46.9 -0.18536
46.95 -0.20944
47 -0.23624
47.05 -0.26443
47.1 -0.29378
47.15 -0.32525
47.2 -0.35798
47.25 -0.39122
47.3 -0.42592
47.35 -0.46137
47.4 -0.49688
47.45 -0.53352
47.5 -0.56863
47.55 -0.60323
47.6 -0.63668
47.65 -0.66871
47.7 -0.69818
47.75 -0.72509
47.8 -0.74876
47.85 -0.76747
47.9 -0.78175
47.95 -0.7913
48 -0.79705
48.05 -0.7966
48.1 -0.79105
48.15 -0.78031
48.2 -0.76264
48.25 -0.73984
48.3 -0.71153
48.35 -0.67625
48.4 -0.63636
48.45 -0.59052
48.5 -0.54027
48.55 -0.48808
48.6 -0.43408
48.65 -0.37721
48.7 -0.3173
48.75 -0.25765
48.8 -0.19622
48.85 -0.13549
48.9 -0.07485
48.95 -0.01566
49 0.04173
49.05 0.09657
49.1 0.14951
49.15 0.19834
49.2 0.24311
49.25 0.28445
49.3 0.32366
49.35 0.35908
49.4 0.39246
49.45 0.42341
49.5 0.45097
49.55 0.47619
49.6 0.49918
49.65 0.5184
49.7 0.53631
49.75 0.55241
49.8 0.56577
49.85 0.57713
49.9 0.58727
49.95 0.59673
50 0.60438
50.05 0.61179
50.1 0.61751
50.15 0.62242
50.2 0.62566
50.25 0.62733
50.3 0.62747
50.35 0.62834
50.4 0.62739
50.45 0.62694
50.5 0.62652
50.55 0.62359
50.6 0.61915
50.65 0.61374
50.7 0.60797
50.75 0.60036
50.8 0.59316
50.85 0.58482
50.9 0.57585
50.95 0.56524
51 0.55433
51.05 0.54253
51.1 0.53058
51.15 0.51818
51.2 0.50413
51.25 0.48887
51.3 0.47288
51.35 0.4581
51.4 0.44435
51.45 0.43066
51.5 0.41715
51.55 0.40196
51.6 0.38778
51.65 0.37418
51.7 0.35894
51.75 0.34296
51.8 0.32876
51.85 0.3137
51.9 0.29946
51.95 0.28538
52 0.27069
52.05 0.25676
52.1 0.24238
52.15 0.22939
52.2 0.21618
52.25 0.20373
52.3 0.19094
52.35 0.17941
52.4 0.16915
52.45 0.15788
52.5 0.14807
52.55 0.13923
52.6 0.13091
52.65 0.12225
52.7 0.11313
52.75 0.10366
52.8 0.09422
52.85 0.08471
52.9 0.07436
52.95 0.06565
53 0.05854
53.05 0.05057
53.1 0.04323
53.15 0.0356
53.2 0.02778
53.25 0.0207
53.3 0.01424
53.35 0.00903
53.4 0.00432
53.45 -0.00033
53.5 -0.00666
53.55 -0.0115
53.6 -0.01584
53.65 -0.02004
53.7 -0.02446
53.75 -0.02936
53.8 -0.03337
53.85 -0.03864
53.9 -0.04283
53.95 -0.04591
54 -0.05045
54.05 -0.05524
54.1 -0.06019
54.15 -0.06549
54.2 -0.0707
54.25 -0.07559
54.3 -0.07823
54.35 -0.08037
54.4 -0.08085
54.45 -0.08112
54.5 -0.08126
54.55 -0.08293
54.6 -0.08345
54.65 -0.08518
54.7 -0.08687
54.75 -0.08812
54.8 -0.08901
54.85 -0.08918
54.9 -0.08912
54.95 -0.089
55 -0.08837
55.05 -0.08787
55.1 -0.08775
55.15 -0.08713
55.2 -0.08671
55.25 -0.08734
55.3 -0.08804
55.35 -0.08979
55.4 -0.09112
55.45 -0.09224
55.5 -0.09269
55.55 -0.09323
55.6 -0.09414
55.65 -0.09473
55.7 -0.09452
55.75 -0.09281
55.8 -0.09177
55.85 -0.09095
55.9 -0.08889
55.95 -0.08784
56 -0.08563
56.05 -0.08365
56.1 -0.08274
56.15 -0.082
56.2 -0.08197
56.25 -0.08173
56.3 -0.08136
56.35 -0.0801
56.4 -0.07862
56.45 -0.07747
56.5 -0.07725
56.55 -0.07635
56.6 -0.07455
56.65 -0.07278
56.7 -0.07232
56.75 -0.07173
56.8 -0.07152
56.85 -0.07015
56.9 -0.06869
56.95 -0.06846
57 -0.06822
57.05 -0.06817
57.1 -0.068
57.15 -0.06731
57.2 -0.06734
57.25 -0.06694
57.3 -0.06547
57.35 -0.06306
57.4 -0.06197
57.45 -0.05966
57.5 -0.05829
57.55 -0.05801
57.6 -0.05852
57.65 -0.05859
57.7 -0.05763
57.75 -0.05579
57.8 -0.05417
57.85 -0.05324
57.9 -0.05098
57.95 -0.04995
58 -0.04915
58.05 -0.04765
58.1 -0.04566
58.15 -0.0449
58.2 -0.04381
58.25 -0.04371
58.3 -0.04331
58.35 -0.04189
58.4 -0.04188
58.45 -0.04091
58.5 -0.03933
58.55 -0.03771
58.6 -0.03731
58.65 -0.03821
58.7 -0.03838
58.75 -0.03818
58.8 -0.03857
58.85 -0.03939
58.9 -0.04023
58.95 -0.04026
59 -0.03854
59.05 -0.03771
59.1 -0.03632
59.15 -0.03424
59.2 -0.03396
59.25 -0.0333
59.3 -0.03353
59.35 -0.03365
59.4 -0.03257
59.45 -0.03082
59.5 -0.02991
59.55 -0.03016
59.6 -0.02991
59.65 -0.03034
59.7 -0.03018
59.75 -0.02863
59.8 -0.02658
59.85 -0.0248
59.9 -0.02351
59.95 -0.02284
60 -0.02207
60.05 -0.02271
60.1 -0.02301
60.15 -0.02371
60.2 -0.02381
60.25 -0.02431
60.3 -0.02572
60.35 -0.02701
60.4 -0.02743
60.45 -0.02691
60.5 -0.02493
60.55 -0.02271
60.6 -0.02218
60.65 -0.02152
60.7 -0.02133
60.75 -0.02185
60.8 -0.02139
60.85 -0.02061
60.9 -0.02067
60.95 -0.01991
61 -0.01854
61.05 -0.01739
61.1 -0.01675
61.15 -0.01551
61.2 -0.01513
61.25 -0.01569
61.3 -0.01668
61.35 -0.0182
61.4 -0.0178
61.45 -0.018
61.5 -0.01819
61.55 -0.01686
61.6 -0.01696
61.65 -0.01718
61.7 -0.01762
61.75 -0.01776
61.8 -0.01687
61.85 -0.0163
61.9 -0.01575
61.95 -0.01496
62 -0.01322
62.05 -0.01226
62.1 -0.01142
62.15 -0.01064
62.2 -0.0101
62.25 -0.01002
62.3 -0.00989
62.35 -0.01031
62.4 -0.01139
62.45 -0.0119
62.5 -0.01103
62.55 -0.00965
62.6 -0.00849
62.65 -0.00846
62.7 -0.00789
62.75 -0.00811
62.8 -0.00925
62.85 -0.00971
62.9 -0.00922
62.95 -0.00846
63 -0.00691
63.05 -0.0066
63.1 -0.00776
63.15 -0.00827
63.2 -0.00936
63.25 -0.00925
63.3 -0.01033
63.35 -0.01047
63.4 -0.01112
63.45 -0.01187
63.5 -0.01331
63.55 -0.01415
63.6 -0.01342
63.65 -0.01209
63.7 -0.0114
63.75 -0.01175
63.8 -0.01187
63.85 -0.01233
63.9 -0.01192
63.95 -0.01224
64 -0.01123
64.05 -0.00915
64.1 -0.00807
64.15 -0.00652
64.2 -0.00543
64.25 -0.00517
64.3 -0.00517
64.35 -0.00435
64.4 -0.00295
64.45 -0.00216
64.5 -0.00218
64.55 -0.00262
64.6 -0.00379
64.65 -0.00465
64.7 -0.00428
64.75 -0.0032
64.8 -0.00339
64.85 -0.00356
64.9 -0.00492
64.95 -0.00573
65 -0.0069
65.05 -0.00764
65.1 -0.00874
65.15 -0.01025
65.2 -0.01018
65.25 -0.00931
65.3 -0.00815
65.35 -0.00734
65.4 -0.00785
65.45 -0.00777
65.5 -0.0075
65.55 -0.00673
65.6 -0.00559
65.65 -0.00565
65.7 -0.00669
65.75 -0.00764
65.8 -0.00801
65.85 -0.0082
65.9 -0.0078
65.95 -0.00648
66 -0.0042
66.05 -0.00387
66.1 -0.00245
66.15 -0.00247
66.2 -0.00364
66.25 -0.00544
66.3 -0.00729
66.35 -0.00718
66.4 -0.00771
66.45 -0.00734
66.5 -0.00654
66.55 -0.00556
66.6 -0.00477
66.65 -0.0051
66.7 -0.00576
66.75 -0.00587
66.8 -0.00661
66.85 -0.00772
66.9 -0.00792
66.95 -0.00744
67 -0.0069
67.05 -0.00522
67.1 -0.00393
67.15 -0.00398
67.2 -0.00354
67.25 -0.00307
67.3 -0.0032
67.35 -0.00364
67.4 -0.003
67.45 -0.00365
67.5 -0.00324
67.55 -0.00181
67.6 -0.00161
67.65 -0.00092
67.7 0.00061
67.75 0.00082
67.8 0.00028
67.85 -0.00028
67.9 -0.00013
67.95 0.00005
68 -0.00032
68.05 -0.00018
68.1 0.00057
68.15 0.00134
68.2 0.0007
68.25 0.00047
68.3 -0.0004
68.35 -0.00028
68.4 0.00038
68.45 0.00041
68.5 0.00149
68.55 0.00305
68.6 0.00398
68.65 0.00372
68.7 0.00347
68.75 0.00178
68.8 0.00154
68.85 0.00115
68.9 -0.00003
68.95 -0.00179
69 -0.00194
69.05 -0.00286
69.1 -0.0041
69.15 -0.0039
69.2 -0.00436
69.25 -0.00318
69.3 -0.00253
69.35 -0.00157
69.4 -0.00101
69.45 -0.00073
69.5 -0.00005
69.55 0.00149
69.6 0.0022
69.65 0.00318
69.7 0.00315
69.75 0.00384
69.8 0.00309
69.85 0.00217
69.9 0.00187
69.95 0.00066
70 0.00093
70.05 0.00075
70.1 0.00033
70.15 -0.00069
70.2 -0.00212
70.25 -0.00286
70.3 -0.00311
70.35 -0.00291
70.4 -0.00173
70.45 -0.00181
70.5 -0.00291
70.55 -0.00272
70.6 -0.00137
70.65 -0.0013
70.7 -0.0011
70.75 -0.00086
70.8 0.00022
70.85 -0.00007
70.9 -0.00123
70.95 -0.00087
71 0.00028
71.05 0.00018
71.1 -0.00004
71.15 0.00018
71.2 0.00137
71.25 0.00236
71.3 0.00369
71.35 0.00371
71.4 0.00444
71.45 0.00539
71.5 0.00459
71.55 0.00367
71.6 0.00294
71.65 0.00166
71.7 0.00127
71.75 0.00188
71.8 0.00096
71.85 -0.00053
71.9 -0.00196
71.95 -0.00364
72 -0.00349
72.05 -0.00277
72.1 -0.00289
72.15 -0.00319
72.2 -0.00376
72.25 -0.0037
72.3 -0.00352
72.35 -0.00297
72.4 -0.00266
72.45 -0.00135
72.5 -0.00082
72.55 -0.0007
72.6 -0.00156
72.65 -0.00193
72.7 -0.00207
72.75 -0.00222
72.8 -0.00263
72.85 -0.00245
72.9 -0.00169
72.95 -0.00237
73 -0.00197
73.05 -0.00205
73.1 -0.00287
73.15 -0.00271
73.2 -0.00234
73.25 -0.00189
73.3 -0.00176
73.35 -0.00224
73.4 -0.00192
73.45 -0.00203
73.5 -0.00308
73.55 -0.00431
73.6 -0.00432
73.65 -0.00386
73.7 -0.00257
73.75 -0.00077
73.8 0.00071
73.85 0.0025
73.9 0.00232
73.95 0.00319
74 0.0025
74.05 0.00089
74.1 -0.00063
74.15 -0.0027
74.2 -0.0031
74.25 -0.00227
74.3 -0.00218
74.35 -0.00236
74.4 -0.00231
74.45 -0.00228
74.5 -0.00329
74.55 -0.00347
74.6 -0.00412
74.65 -0.00337
74.7 -0.00245
74.75 -0.00169
74.8 -0.00149
74.85 -0.00155
74.9 -0.00109
74.95 -0.00098
75 -0.00145
75.05 -0.0021
75.1 -0.00321
75.15 -0.00379
75.2 -0.00303
75.25 -0.00207
75.3 -0.00212
75.35 -0.00288
75.4 -0.00238
75.45 -0.00162
75.5 -0.00013
75.55 0.00151
75.6 0.0032
75.65 0.00505
75.7 0.00562
75.75 0.00427
75.8 0.00281
75.85 0.00229
75.9 0.00147
75.95 0.0019
76 0.00183
76.05 0.00062
76.1 -0.00096
76.15 -0.00098
76.2 -0.00216
76.25 -0.002
76.3 -0.00279
76.35 -0.00277
76.4 -0.00323
76.45 -0.00319
76.5 -0.00293
76.55 -0.00357
76.6 -0.00391
76.65 -0.0035
76.7 -0.0035
76.75 -0.00423
76.8 -0.00472
76.85 -0.0048
76.9 -0.00547
76.95 -0.00564
77 -0.00499
77.05 -0.00362
77.1 -0.00169
77.15 0.0001
77.2 0.00098
77.25 0.00223
77.3 0.00246
77.35 0.0034
77.4 0.00416
77.45 0.0043
77.5 0.00299
77.55 0.00256
77.6 0.00092
77.65 0.00068
77.7 0.00022
77.75 0.00044
77.8 -0.00047
77.85 0.00004
77.9 0.00121
77.95 0.00071
78 -0.00025
78.05 0.0003
78.1 0.00013
78.15 -0.00079
78.2 -0.00248
78.25 -0.00321
78.3 -0.00376
78.35 -0.00323
78.4 -0.00377
78.45 -0.00447
78.5 -0.00382
78.55 -0.00307
78.6 -0.00344
78.65 -0.00413
78.7 -0.00364
78.75 -0.00178
78.8 -0.00005
78.85 0.00035
78.9 0.00107
78.95 0.00036
79 0.00098
79.05 0.00051
79.1 0.00089
79.15 -0.00003
79.2 -0.00134
79.25 -0.00202
79.3 -0.00274
79.35 -0.0038
79.4 -0.00308
79.45 -0.00248
79.5 -0.00188
79.55 -0.0013
79.6 -0.00015
79.65 -0.00045
79.7 -0.00157
79.75 -0.00176
79.8 -0.00201
79.85 -0.00266
79.9 -0.00191
79.95 -0.00054
80 -0.00013
80.05 0.00041
80.1 0.00068
80.15 0.00149
80.2 0.0023
80.25 0.00366
80.3 0.00529
80.35 0.00681
80.4 0.00686
80.45 0.00589
80.5 0.00532
80.55 0.00362
80.6 0.00322
80.65 0.00266
80.7 0.00117
80.75 0.00083
80.8 -0.00007
80.85 0.0006
80.9 0.00043
80.95 0.00108
81 0.00197
81.05 0.00254
81.1 0.00238
81.15 0.00165
81.2 0.00215
81.25 0.00354
81.3 0.00495
81.35 0.00601
81.4 0.00571
81.45 0.0059
81.5 0.00511
81.55 0.00302
81.6 0.00259
81.65 0.00274
81.7 0.0037
81.75 0.00276
81.8 0.00103
81.85 0.00013
81.9 0.00056
81.95 0.00098
82 0.00104
82.05 0.00212
82.1 0.00209
82.15 0.00292
82.2 0.00327
82.25 0.00347
82.3 0.00219
82.35 0.00206
82.4 0.00184
82.45 0.00091
82.5 0.00055
82.55 0.00048
82.6 0.00098
82.65 0.00065
82.7 -0.00075
82.75 -0.00162
82.8 -0.00093
82.85 -0.00066
82.9 -0.00132
82.95 -0.00145
83 -0.00254
83.05 -0.00323
83.1 -0.00399
83.15 -0.00373
83.2 -0.00228
83.25 -0.00206
83.3 -0.00116
83.35 0.00056
83.4 0.00144
83.45 0.00196
83.5 0.00274
83.55 0.00279
83.6 0.00342
83.65 0.00236
83.7 0.00096
83.75 -0.00002
83.8 -0.00068
83.85 -0.00113
83.9 -0.00174
83.95 -0.00151
84 -0.00166
84.05 -0.00217
84.1 -0.00275
84.15 -0.00279
84.2 -0.00184
84.25 -0.00153
84.3 -0.00227
84.35 -0.00137
84.4 -0.00179
84.45 -0.00257
84.5 -0.00349
84.55 -0.00312
84.6 -0.00155
84.65 -0.0008
84.7 -0.00135
84.75 -0.00224
84.8 -0.00356
84.85 -0.00315
84.9 -0.00355
84.95 -0.0036
85 -0.00288
85.05 -0.00171
85.1 -0.00164
85.15 -0.00168
85.2 -0.00046
85.25 0.00116
85.3 0.00325
85.35 0.00423
85.4 0.00402
85.45 0.00231
85.5 0.00003
85.55 -0.00061
85.6 0.00014
85.65 0.00032
85.7 0.00063
85.75 0.00191
85.8 0.00374
85.85 0.00401
85.9 0.0046
85.95 0.00379
86 0.00396
86.05 0.00449
86.1 0.00529
86.15 0.00483
86.2 0.0039
86.25 0.00288
86.3 0.00152
86.35 0.00167
86.4 0.00211
86.45 0.00291
86.5 0.00335
86.55 0.00353
86.6 0.00359
86.65 0.00409
86.7 0.00339
86.75 0.00262
86.8 0.0027
86.85 0.00318
86.9 0.0036
86.95 0.00359
87 0.00249
87.05 0.00224
87.1 0.00249
87.15 0.00335
87.2 0.00227
87.25 0.00189
87.3 0.00046
87.35 0.00011
87.4 0.00019
87.45 -0.00082
87.5 -0.0008
87.55 -0.00003
87.6 0.00006
87.65 -0.00048
87.7 -0.00013
87.75 0.00088
87.8 0.00148
87.85 0.00156
87.9 0.0012
87.95 0.00102
88 0.00152
88.05 0.00214
88.1 0.00259
88.15 0.0024
88.2 0.0018
88.25 0.00153
88.3 0.00082
88.35 -0.00057
88.4 -0.00099
88.45 -0.00074
88.5 -0.00154
88.55 -0.00209
88.6 -0.00308
88.65 -0.00427
88.7 -0.00498
88.75 -0.00612
88.8 -0.00716
88.85 -0.0077
88.9 -0.00759
88.95 -0.00736
89 -0.00549
89.05 -0.00507
89.1 -0.00517
89.15 -0.00367
89.2 -0.00246
89.25 -0.00192
89.3 -0.00112
89.35 -0.00116
89.4 -0.00103
89.45 -0.00129
89.5 -0.00175
89.55 -0.00306
89.6 -0.00259
89.65 -0.00144
89.7 -0.00014
89.75 0.00063
89.8 0.00099
89.85 -0.00006
89.9 -0.00142
89.95 -0.00337
90 -0.00505
90.05 -0.00488
90.1 -0.00455
90.15 -0.00502
90.2 -0.00572
90.25 -0.00606
90.3 -0.00466
90.35 -0.00362
90.4 -0.00348
90.45 -0.00198
90.5 -0.00105
90.55 -0.00119
90.6 -0.00219
90.65 -0.00322
90.7 -0.00335
90.75 -0.00342
90.8 -0.00297
90.85 -0.00147
90.9 -0.00054
90.95 -0.0008
91 -0.0008
91.05 -0.00156
91.1 -0.00145
91.15 -0.00105
91.2 -0.00125
91.25 -0.00206
91.3 -0.003
91.35 -0.00435
91.4 -0.00479
91.45 -0.0043
91.5 -0.00439
91.55 -0.00396
91.6 -0.00354
91.65 -0.00338
91.7 -0.00255
91.75 -0.00168
91.8 -0.00138
91.85 -0.00098
91.9 0.00036
91.95 0.0012
92 0.00157
92.05 0.00156
92.1 0.00038
92.15 -0.00128
92.2 -0.00307
92.25 -0.00424
92.3 -0.00377
92.35 -0.00195
92.4 -0.00024
92.45 0.00045
92.5 0.00206
92.55 0.00387
92.6 0.00536
92.65 0.00498
92.7 0.00521
92.75 0.00423
92.8 0.00358
92.85 0.0019
92.9 0.00032
92.95 -0.00136
93 -0.00348
93.05 -0.00381
93.1 -0.00277
93.15 -0.00194
93.2 -0.00067
93.25 -0.00075
93.3 -0.00042
93.35 0.0011
93.4 0.00306
93.45 0.00506
93.5 0.00533
93.55 0.00529
93.6 0.00369
93.65 0.002
93.7 0.00106
93.75 0.00125
93.8 0.00052
93.85 0.00048
93.9 -0.0001
93.95 -0.00011
94 -0.001
94.05 -0.00061
94.1 -0.00131
94.15 -0.00075
94.2 0.00045
94.25 0.00216
94.3 0.0037
94.35 0.00383
94.4 0.00305
94.45 0.00338
94.5 0.00285
94.55 0.0025
94.6 0.00325
94.65 0.00353
94.7 0.00246
94.75 0.00079
94.8 -0.0007
94.85 -0.00064
94.9 0.00038
94.95 0.0009
95 0.00081
95.05 0.00058
95.1 0.00113
95.15 0.00226
95.2 0.00374
95.25 0.00497
95.3 0.00644
95.35 0.00651
95.4 0.0062
95.45 0.00449
95.5 0.00299
95.55 0.00151
95.6 0.00138
95.65 0.00039
95.7 -0.00049
95.75 0.00007
95.8 0
95.85 -0.00119
95.9 -0.00168
95.95 -0.00225
96 -0.00278
96.05 -0.00244
96.1 -0.00156
96.15 -0.00011
96.2 0.0013
96.25 0.00105
96.3 -0.00039
96.35 -0.00151
96.4 -0.00134
96.45 -0.00153
96.5 -0.00259
96.55 -0.00225
96.6 -0.00245
96.65 -0.00324
96.7 -0.00377
96.75 -0.00305
96.8 -0.00135
96.85 -0.00066
96.9 -0.00112
96.95 -0.00234
97 -0.00311
97.05 -0.00443
97.1 -0.00429
97.15 -0.00349
97.2 -0.00316
97.25 -0.00283
97.3 -0.00304
97.35 -0.00368
97.4 -0.00281
97.45 -0.00079
97.5 0.00135
97.55 0.00214
97.6 0.00206
97.65 0.00245
97.7 0.00242
97.75 0.00105
97.8 -0.00105
97.85 -0.00257
97.9 -0.00375
97.95 -0.00526
98 -0.00522
98.05 -0.00422
98.1 -0.00356
98.15 -0.00349
98.2 -0.0019
98.25 -0.00123
98.3 -0.00037
98.35 -0.00091
98.4 -0.00004
98.45 0.00065
98.5 0.00005
98.55 0.0004
98.6 0.00018
98.65 0.00036
98.7 -0.00065
98.75 -0.00093
98.8 -0.0005
98.85 -0.00118
98.9 -0.0016
98.95 -0.00127
99 -0.00022
99.05 0.00131
99.1 0.00201
99.15 0.00284
99.2 0.00325
99.25 0.0037
99.3 0.00345
99.35 0.00315
99.4 0.00305
99.45 0.00347
99.5 0.00445
99.55 0.0045
99.6 0.00487
99.65 0.00441
99.7 0.00281
99.75 0.00167
99.8 0.00033
99.85 -0.0015
99.9 -0.00176
99.95 -0.00258
