0 0
0.05 0.00084
0.1 0.00279
0.15 0.005
0.2 0.00641
0.25 0.00722
0.3 0.00873
0.35 0.00952
0.4 0.00956
0.45 0.01029
0.5 0.01128
0.55 0.0118
0.6 0.01199
0.65 0.01115
0.7 0.01077
0.75 0.01116
0.8 0.01142
0.85 0.01166
0.9 0.01111
0.95 0.01015
1 0.00967
1.05 0.00988
1.1 0.01009
1.15 0.01022
1.2 0.01029
1.25 0.01013
1.3 0.00899
1.35 0.00733
1.4 0.00594
1.45 0.00517
1.5 0.00465
1.55 0.00482
1.6 0.00521
1.65 0.00468
1.7 0.00417
1.75 0.00426
1.8 0.00461
1.85 0.00428
1.9 0.00447
1.95 0.00496
2 0.0052
2.05 0.00522
2.1 0.00514
2.15 0.00584
2.2 0.00593
2.25 0.00546
2.3 0.00463
2.35 0.00379
2.4 0.00286
2.45 0.00332
2.5 0.00434
2.55 0.00424
2.6 0.00486
2.65 0.00466
2.7 0.00442
2.75 0.00447
2.8 0.00373
2.85 0.00399
2.9 0.00373
2.95 0.00309
3 0.00311
3.05 0.0031
3.1 0.00342
3.15 0.00448
3.2 0.00445
3.25 0.0041
3.3 0.00402
3.35 0.00475
3.4 0.00465
3.45 0.00475
3.5 0.00419
3.55 0.0045
3.6 0.00395
3.65 0.00344
3.7 0.00264
3.75 0.00239
3.8 0.00157
3.85 0.0013
3.9 0.0016
3.95 0.0013
4 0.00106
4.05 0.00108
4.1 0.00055
4.15 0.00092
4.2 0.00094
4.25 0.00031
4.3 -0.00017
4.35 0.00025
4.4 0.00093
4.45 0.00127
4.5 0.00191
4.55 0.00204
4.6 0.00161
4.65 0.00221
4.7 0.00216
4.75 0.00213
4.8 0.00272
4.85 0.00299
4.9 0.00308
4.95 0.00254
5 0.0017
5.05 0.0013
5.1 0.00121
5.15 0.00048
5.2 -0.00059
5.25 -0.00062
5.3 -0.00001
5.35 0.00012
5.4 0.0011
5.45 0.00182
5.5 0.00221
5.55 0.002
5.6 0.00234
5.65 0.00233
5.7 0.00311
5.75 0.00347
5.8 0.00323
5.85 0.00381
5.9 0.00366
5.95 0.00427
6 0.00404
6.05 0.00442
6.1 0.00459
6.15 0.00419
6.2 0.00453
6.25 0.00422
6.3 0.00431
6.35 0.00457
6.4 0.00421
6.45 0.00367
6.5 0.00302
6.55 0.00295
6.6 0.00309
6.65 0.0022
6.7 0.00206
6.75 0.00274
6.8 0.00234
6.85 0.00277
6.9 0.00222
6.95 0.00129
7 0.00095
7.05 0.00036
7.1 0.00075
7.15 0.00077
7.2 0.0006
7.25 0.00098
7.3 0.00126
7.35 0.00094
7.4 0.00038
7.45 -0.00015
7.5 -0.00058
7.55 -0.00118
7.6 -0.00094
7.65 -0.00017
7.7 -0.00041
7.75 -0.00065
7.8 -0.0013
7.85 -0.00165
7.9 -0.00107
7.95 -0.00091
8 -0.00035
8.05 -0.00057
8.1 -0.00002
8.15 0.00067
8.2 0.00184
8.25 0.00228
8.3 0.0024
8.35 0.00244
8.4 0.00322
8.45 0.00287
8.5 0.00289
8.55 0.00222
8.6 0.00121
8.65 0.00026
8.7 -0.00054
8.75 -0.00173
8.8 -0.00178
8.85 -0.00244
8.9 -0.0023
8.95 -0.00187
9 -0.00176
9.05 -0.00138
9.1 -0.00064
9.15 0.00072
9.2 0.00082
9.25 0.00069
9.3 0.00115
9.35 0.00125
9.4 0.00106
9.45 0.00109
9.5 0.00155
9.55 0.00231
9.6 0.0029
9.65 0.00338
9.7 0.00266
9.75 0.00226
9.8 0.00195
9.85 0.00181
9.9 0.00226
9.95 0.00229
10 0.00183
10.05 0.00084
10.1 0.00063
10.15 0.00011
10.2 -0.0007
10.25 -0.00063
10.3 -0.00044
10.35 -0.00056
10.4 -0.00111
10.45 -0.00211
10.5 -0.00167
10.55 -0.00135
10.6 -0.00067
10.65 -0.00064
10.7 -0.00105
10.75 -0.00088
10.8 -0.00017
10.85 0.00059
10.9 0.00162
10.95 0.00195
11 0.00173
11.05 0.00214
11.1 0.00216
11.15 0.00241
11.2 0.00317
11.25 0.00414
11.3 0.00392
11.35 0.00349
11.4 0.00237
11.45 0.00139
11.5 0.00134
11.55 0.00138
11.6 0.00117
11.65 0.00153
11.7 0.00234
11.75 0.00329
11.8 0.00387
11.85 0.00334
11.9 0.00314
11.95 0.00346
12 0.00412
12.05 0.00346
12.1 0.002
12.15 0.00161
12.2 0.00148
12.25 0.002
12.3 0.00194
12.35 0.00101
12.4 -0.00045
12.45 -0.00146
12.5 -0.00201
12.55 -0.0021
12.6 -0.00114
12.65 -0.00066
12.7 0.00008
12.75 0.00118
12.8 0.00117
12.85 0.00105
12.9 0.00163
12.95 0.00112
13 -0.00007
13.05 -0.00072
13.1 -0.00027
13.15 0.00035
13.2 0.00022
13.25 0.00066
13.3 0.00133
13.35 0.00168
13.4 0.00127
13.45 0.001
13.5 0.0002
13.55 -0.00023
13.6 -0.0006
13.65 -0.00062
13.7 0.00003
13.75 0.00118
13.8 0.00163
13.85 0.00106
13.9 0.00103
13.95 0.00026
14 -0.00005
14.05 -0.00042
14.1 -0.00041
14.15 -0.0009
14.2 -0.00104
14.25 -0.00193
14.3 -0.00233
14.35 -0.00221
14.4 -0.00258
14.45 -0.00256
14.5 -0.00236
14.55 -0.00184
14.6 -0.00177
14.65 -0.00227
14.7 -0.00266
14.75 -0.00353
14.8 -0.00354
14.85 -0.00375
14.9 -0.00425
14.95 -0.00447
15 -0.00408
15.05 -0.0028
15.1 -0.00172
15.15 -0.00049
15.2 0.00118
15.25 0.00224
15.3 0.00267
15.35 0.00237
15.4 0.00262
15.45 0.00339
15.5 0.00389
15.55 0.00369
15.6 0.00262
15.65 0.00243
15.7 0.0019
15.75 0.00102
15.8 -0.00006
15.85 -0.0012
15.9 -0.00123
15.95 -0.00048
16 0.00036
16.05 0.00058
16.1 0.0015
16.15 0.00192
16.2 0.00253
16.25 0.0023
16.3 0.00197
16.35 0.00142
16.4 0.00109
16.45 0.00158
16.5 0.00167
16.55 0.00103
16.6 0.00102
16.65 0.00061
16.7 0.0002
16.75 -0.00053
16.8 -0.00181
16.85 -0.00224
16.9 -0.00158
16.95 -0.00052
17 0.00021
17.05 -0.0002
17.1 -0.00062
17.15 -0.00032
17.2 0.00002
17.25 -0.00015
17.3 -0.00038
17.35 -0.00042
17.4 -0.00038
17.45 -0.00045
17.5 -0.0008
17.55 -0.00043
17.6 -0.00045
17.65 -0.00032
17.7 -0.00098
17.75 -0.00051
17.8 -0.00064
17.85 -0.00082
17.9 -0.00007
17.95 0.00065
18 0.00056
18.05 0.0012
18.1 0.00087
18.15 0.00071
18.2 0.00034
18.25 -0.00044
18.3 -0.00153
18.35 -0.00174
18.4 -0.00137
18.45 -0.00141
18.5 -0.00098
18.55 -0.00136
18.6 -0.00113
18.65 -0.00085
18.7 -0.00035
18.75 0.00028
18.8 0.0003
18.85 0.00014
18.9 0.00031
18.95 0.00121
19 0.00197
19.05 0.00171
19.1 0.00184
19.15 0.00164
19.2 0.00148
19.25 0.00124
19.3 0.00129
19.35 0.00128
19.4 0.00109
19.45 0.00045
19.5 -0.00062
19.55 -0.00208
19.6 -0.00326
19.65 -0.00297
19.7 -0.00299
19.75 -0.00267
19.8 -0.00255
19.85 -0.00312
19.9 -0.00382
19.95 -0.00373
20 -0.00303
20.05 -0.00266
20.1 -0.0017
20.15 -0.00168
20.2 -0.00082
20.25 -0.00022
20.3 0.001
20.35 0.00202
20.4 0.00319
20.45 0.00351
20.5 0.00398
20.55 0.00352
20.6 0.00281
20.65 0.00281
20.7 0.00204
20.75 0.0017
20.8 0.00061
20.85 0.0001
20.9 -0.00077
20.95 -0.00176
21 -0.00187
21.05 -0.0021
21.1 -0.00164
21.15 -0.00199
21.2 -0.00152
21.25 -0.00168
21.3 -0.00227
21.35 -0.00169
21.4 -0.00145
21.45 -0.00092
21.5 -0.00104
21.55 -0.00167
21.6 -0.00115
21.65 -0.00107
21.7 -0.00063
21.75 -0.00085
21.8 -0.00107
21.85 -0.00092
21.9 -0.00027
21.95 0.00006
22 0.00052
22.05 0.001
22.1 0.00126
22.15 0.00162
22.2 0.00251
22.25 0.00353
22.3 0.00466
22.35 0.00519
22.4 0.00514
22.45 0.00464
22.5 0.0042
22.55 0.00285
22.6 0.00238
22.65 0.00205
22.7 0.00103
22.75 0.00041
22.8 -0.00066
22.85 -0.00093
22.9 -0.00186
22.95 -0.0019
23 -0.00164
23.05 -0.0022
23.1 -0.00184
23.15 -0.00094
23.2 -0.00085
23.25 0.00005
23.3 -0.00002
23.35 -0.00004
23.4 -0.00049
23.45 -0.0003
23.5 -0.00049
23.55 -0.00125
23.6 -0.00089
23.65 0.0002
23.7 0.00093
23.75 0.0007
23.8 -0.00024
23.85 -0.00111
23.9 -0.00225
23.95 -0.00209
24 -0.00217
24.05 -0.00181
24.1 -0.00154
24.15 -0.00136
24.2 -0.00042
24.25 0.00059
24.3 0.00054
24.35 -0.00025
24.4 -0.00151
24.45 -0.00196
24.5 -0.00133
24.55 -0.00012
24.6 0.00056
24.65 0.00144
24.7 0.00196
24.75 0.00279
24.8 0.00273
24.85 0.00306
24.9 0.00318
24.95 0.00291
25 0.0023
25.05 0.00172
25.1 0.00063
25.15 -0.00035
25.2 -0.00143
25.25 -0.00228
25.3 -0.00288
25.35 -0.00278
25.4 -0.00206
25.45 -0.00078
25.5 -0.0005
25.55 -0.00011
25.6 0.00043
25.65 0.00003
25.7 -0.00107
25.75 -0.00143
25.8 -0.00101
25.85 0.00006
25.9 0.00141
25.95 0.00166
26 0.001
26.05 0.00117
26.1 0.00153
26.15 0.00118
26.2 0.00103
26.25 0.00065
26.3 -0.00033
26.35 -0.00099
26.4 -0.0021
26.45 -0.00296
26.5 -0.00343
26.55 -0.00371
26.6 -0.00436
26.65 -0.00528
26.7 -0.00497
26.75 -0.00423
26.8 -0.00255
26.85 -0.00136
26.9 0.00021
26.95 0.00149
27 0.00263
27.05 0.00253
27.1 0.00307
27.15 0.00242
27.2 0.00133
27.25 0.0011
27.3 0.00012
27.35 -0.00003
27.4 -0.0002
27.45 0.00014
27.5 -0.00005
27.55 0.00005
27.6 0.00014
27.65 0.00084
27.7 0.00128
27.75 0.00179
27.8 0.00182
27.85 0.00153
27.9 0.00204
27.95 0.00177
28 0.00093
28.05 0.00057
28.1 0.00046
28.15 0.00047
28.2 0.00018
28.25 -0.00088
28.3 -0.00208
28.35 -0.00329
28.4 -0.00457
28.45 -0.00464
28.5 -0.00437
28.55 -0.00446
28.6 -0.00384
28.65 -0.00279
28.7 -0.00131
28.75 -0.00059
28.8 -0.00032
28.85 0.00006
28.9 0.00081
28.95 0.00056
29 -0.00049
29.05 -0.00093
29.1 -0.0016
29.15 -0.00108
29.2 0.00005
29.25 0.00157
29.3 0.00239
29.35 0.00309
29.4 0.0033
29.45 0.00397
29.5 0.00356
29.55 0.00282
29.6 0.00224
29.65 0.00185
29.7 0.0022
29.75 0.00273
29.8 0.00255
29.85 0.00199
29.9 0.00121
29.95 0.00024
30 -0.001
30.05 -0.00144
30.1 -0.0023
30.15 -0.00272
30.2 -0.00349
30.25 -0.00416
30.3 -0.00507
30.35 -0.00553
30.4 -0.00571
30.45 -0.0062
30.5 -0.00602
30.55 -0.0061
30.6 -0.00589
30.65 -0.00466
30.7 -0.00343
30.75 -0.0028
30.8 -0.00198
30.85 -0.00144
30.9 -0.00099
30.95 0.00026
31 0.00121
31.05 0.00201
31.1 0.00229
31.15 0.00234
31.2 0.00264
31.25 0.00347
31.3 0.00454
31.35 0.00489
31.4 0.00386
31.45 0.00292
31.5 0.00209
31.55 0.00217
31.6 0.00262
31.65 0.00241
31.7 0.00141
31.75 0.00139
31.8 0.00057
31.85 0.00078
31.9 0.00069
31.95 -0.00026
32 -0.00156
32.05 -0.00166
32.1 -0.00189
32.15 -0.002
32.2 -0.00115
32.25 0.00019
32.3 0.00154
32.35 0.00188
32.4 0.00278
32.45 0.00298
32.5 0.00248
32.55 0.00188
32.6 0.00132
32.65 0.00075
32.7 -0.0002
32.75 -0.00135
32.8 -0.00174
32.85 -0.00156
32.9 -0.00124
32.95 -0.00045
33 0.00047
33.05 0.00064
33.1 0.00066
33.15 0.00124
33.2 0.00121
33.25 0.00028
33.3 0.00007
33.35 -0.00071
33.4 -0.00033
33.45 -0.00052
33.5 -0.00088
33.55 -0.00182
33.6 -0.00305
33.65 -0.00332
33.7 -0.00312
33.75 -0.00264
33.8 -0.00159
33.85 -0.0001
33.9 0.00131
33.95 0.00243
34 0.00265
34.05 0.00292
34.1 0.00226
34.15 0.0016
34.2 0.00135
34.25 0.00041
34.3 -0.00025
34.35 -0.00067
34.4 -0.0007
34.45 -0.00015
34.5 0.00034
34.55 0.00024
34.6 -0.0007
34.65 -0.00183
34.7 -0.00173
34.75 -0.00207
34.8 -0.0029
34.85 -0.00332
34.9 -0.00376
34.95 -0.00453
35 -0.00521
35.05 -0.00503
35.1 -0.00383
35.15 -0.00336
35.2 -0.00293
35.25 -0.00238
35.3 -0.00146
35.35 -0.00119
35.4 -0.00033
35.45 -0.00021
35.5 0.00016
35.55 0.00089
35.6 0.00143
35.65 0.00242
35.7 0.00239
35.75 0.00178
35.8 0.00158
35.85 0.00162
35.9 0.00157
35.95 0.00214
36 0.00264
36.05 0.00224
36.1 0.00245
36.15 0.00253
36.2 0.00196
36.25 0.00138
36.3 0.00014
36.35 0.00016
36.4 -0.0007
36.45 -0.00089
36.5 -0.00159
36.55 -0.00136
36.6 -0.0011
36.65 -0.00048
36.7 -0.00066
36.75 -0.00067
36.8 -0.00137
36.85 -0.00236
36.9 -0.00337
36.95 -0.00384
37 -0.00421
37.05 -0.00402
37.1 -0.00279
37.15 -0.00113
37.2 0.00007
37.25 0.00111
37.3 0.00166
37.35 0.00209
37.4 0.00301
37.45 0.00272
37.5 0.00281
37.55 0.00249
37.6 0.00292
37.65 0.00217
37.7 0.00136
37.75 0.00094
37.8 0.00147
37.85 0.00092
37.9 0.00035
37.95 -0.00055
38 -0.00067
38.05 -0.00154
38.1 -0.00165
38.15 -0.0018
38.2 -0.0015
38.25 -0.00032
38.3 -0.00029
38.35 0.00016
38.4 0.00104
38.45 0.00089
38.5 0.00002
38.55 -0.00053
38.6 -0.00079
38.65 -0.00161
38.7 -0.00216
38.75 -0.00167
38.8 -0.00142
38.85 -0.00117
38.9 -0.00017
38.95 0.00118
39 0.00121
39.05 0.00141
39.1 0.00113
39.15 0.0014
39.2 0.00158
39.25 0.00217
39.3 0.0028
39.35 0.00297
39.4 0.00248
39.45 0.00135
39.5 -0.00017
39.55 -0.00033
39.6 -0.00083
39.65 -0.00107
39.7 -0.00075
39.75 0.0001
39.8 0.00116
39.85 0.00116
39.9 0.0006
39.95 0.00028
40 0.00055
40.05 0.00109
40.1 0.00121
40.15 0.00131
40.2 0.00074
40.25 -0.00043
40.3 -0.00151
40.35 -0.00268
40.4 -0.00343
40.45 -0.00378
40.5 -0.00289
40.55 -0.00255
40.6 -0.00138
40.65 -0.00007
40.7 0.00051
40.75 0.00067
40.8 0.00056
40.85 0.00068
40.9 0.00121
40.95 0.00153
41 0.00136
41.05 0.00097
41.1 0.00122
41.15 0.00184
41.2 0.002
41.25 0.00114
41.3 0.00072
41.35 0.00025
41.4 0.00041
41.45 -0.00008
41.5 -0.00105
41.55 -0.002
41.6 -0.00188
41.65 -0.00179
41.7 -0.00203
41.75 -0.00249
41.8 -0.00279
41.85 -0.00282
41.9 -0.00202
41.95 -0.00143
42 -0.00063
42.05 -0.00003
42.1 -0.00048
42.15 -0
42.2 0.00019
42.25 0.00097
42.3 0.00212
42.35 0.00328
42.4 0.00386
42.45 0.00369
42.5 0.00357
42.55 0.00321
42.6 0.00268
42.65 0.0017
42.7 0.0001
42.75 -0.00079
42.8 -0.00109
42.85 -0.00111
42.9 -0.00091
42.95 -0.00076
43 -0.00135
43.05 -0.00186
43.1 -0.00213
43.15 -0.00275
43.2 -0.00279
43.25 -0.00334
43.3 -0.00377
43.35 -0.00411
43.4 -0.00468
43.45 -0.00399
43.5 -0.00247
43.55 -0.00164
43.6 -0.00077
43.65 0.00034
43.7 0.00082
43.75 0.00057
43.8 0.00004
43.85 -0.00091
43.9 -0.00208
43.95 -0.00308
44 -0.00293
44.05 -0.0022
44.1 -0.00069
44.15 -0.00027
44.2 -0.00048
44.25 -0.00034
44.3 -0.00086
44.35 -0.00174
44.4 -0.00258
44.45 -0.0027
44.5 -0.00324
44.55 -0.00264
44.6 -0.00221
44.65 -0.00102
44.7 0.00054
44.75 0.00104
44.8 0.00137
44.85 0.00112
44.9 0.00151
44.95 0.0009
45 -0.00004
45.05 0.00001
45.1 -0.00043
45.15 -0.00067
45.2 -0.00143
45.25 -0.00228
45.3 -0.00265
45.35 -0.00314
45.4 -0.00369
45.45 -0.00389
45.5 -0.00418
45.55 -0.00397
45.6 -0.00402
45.65 -0.00303
45.7 -0.00259
45.75 -0.00131
45.8 -0.00008
45.85 0.00086
45.9 0.00087
45.95 0.00108
46 0.00038
46.05 0.00083
46.1 0.00149
46.15 0.00184
46.2 0.0017
46.25 0.00132
46.3 0.00189
46.35 0.00161
46.4 0.00124
46.45 0.00169
46.5 0.00238
46.55 0.00307
46.6 0.00294
46.65 0.0024
46.7 0.00129
46.75 0.00126
46.8 0.00081
46.85 -0
46.9 -0.00125
46.95 -0.00259
47 -0.00241
47.05 -0.00213
47.1 -0.00219
47.15 -0.00125
47.2 -0.00102
47.25 -0.00023
47.3 0.00022
47.35 -0.0002
47.4 -0.00087
47.45 -0.00113
47.5 -0.00074
47.55 0.00042
47.6 0.00089
47.65 0.00195
47.7 0.00194
47.75 0.00132
47.8 0.00082
47.85 0.00103
47.9 0.00081
47.95 0.00105
48 0.00175
48.05 0.00291
48.1 0.00413
48.15 0.00539
48.2 0.00506
48.25 0.0043
48.3 0.00377
48.35 0.00346
48.4 0.00309
48.45 0.00235
48.5 0.00088
48.55 0.00012
48.6 -0.0007
48.65 -0.00061
48.7 0.00019
48.75 0.00021
48.8 0.00107
48.85 0.00196
48.9 0.00201
48.95 0.00262
49 0.00291
49.05 0.00317
49.1 0.00392
49.15 0.004
49.2 0.0039
49.25 0.00309
49.3 0.00227
49.35 0.0021
49.4 0.00165
49.45 0.00163
49.5 0.00209
49.55 0.00132
49.6 -0.0001
49.65 -0.00088
49.7 -0.00135
49.75 -0.00105
49.8 -0.00009
49.85 -0.00006
49.9 0.00045
49.95 0.00033
50 0.0005
50.05 -0.00023
50.1 -0.00115
50.15 -0.00114
50.2 -0.00071
50.25 -0.00091
50.3 -0.00101
50.35 -0.00114
50.4 -0.0006
50.45 0.0004
50.5 0.00049
50.55 0.00024
50.6 0.00027
50.65 0.00024
50.7 -0.00048
50.75 -0.0005
50.8 -0.00084
50.85 -0.00043
50.9 0.00001
50.95 0.00027
51 0.00023
51.05 0.00048
51.1 0.00113
51.15 0.00112
51.2 0.00046
51.25 -0.00021
51.3 -0.00119
51.35 -0.00112
51.4 -0.00109
51.45 -0.00162
51.5 -0.00151
51.55 -0.00178
51.6 -0.00232
51.65 -0.00192
51.7 -0.00139
51.75 -0.00052
51.8 -0.00047
51.85 -0.00018
51.9 -0.00077
51.95 -0.00175
52 -0.00221
52.05 -0.00351
52.1 -0.00424
52.15 -0.00517
52.2 -0.00698
52.25 -0.00866
52.3 -0.00994
52.35 -0.01087
52.4 -0.01202
52.45 -0.01425
52.5 -0.01793
52.55 -0.0223
52.6 -0.02615
52.65 -0.03028
52.7 -0.03558
52.75 -0.04216
52.8 -0.04905
52.85 -0.0575
52.9 -0.06564
52.95 -0.07454
53 -0.08418
53.05 -0.09529
53.1 -0.10734
53.15 -0.12042
53.2 -0.13573
53.25 -0.15216
53.3 -0.1699
53.35 -0.18945
53.4 -0.21027
53.45 -0.23229
53.5 -0.25448
53.55 -0.27794
53.6 -0.30114
53.65 -0.32468
53.7 -0.34858
53.75 -0.37179
53.8 -0.39581
53.85 -0.41897
53.9 -0.44192
53.95 -0.46414
54 -0.48358
54.05 -0.50077
54.1 -0.51623
54.15 -0.52784
54.2 -0.53626
54.25 -0.54172
54.3 -0.54343
54.35 -0.54191
54.4 -0.53677
54.45 -0.52876
54.5 -0.51648
54.55 -0.50062
54.6 -0.48037
54.65 -0.45736
54.7 -0.43079
54.75 -0.40113
54.8 -0.36869
54.85 -0.33326
54.9 -0.29519
54.95 -0.25531
55 -0.21531
55.05 -0.17369
55.1 -0.1325
55.15 -0.09108
55.2 -0.05038
55.25 -0.00949
55.3 0.03078
55.35 0.07005
55.4 0.10642
55.45 0.14068
55.5 0.17383
55.55 0.20544
55.6 0.23404
55.65 0.26002
55.7 0.2852
55.75 0.3081
55.8 0.32863
55.85 0.34775
55.9 0.36527
55.95 0.38103
56 0.39666
56.05 0.41011
56.1 0.42204
56.15 0.43308
56.2 0.44299
56.25 0.45117
56.3 0.45861
56.35 0.4644
56.4 0.46964
56.45 0.4743
56.5 0.47805
56.55 0.47977
56.6 0.48082
56.65 0.48043
56.7 0.47884
56.75 0.4755
56.8 0.47142
56.85 0.46659
56.9 0.45988
56.95 0.45252
57 0.44468
57.05 0.43681
57.1 0.42747
57.15 0.41681
57.2 0.40583
57.25 0.39356
57.3 0.38165
57.35 0.36969
57.4 0.35805
57.45 0.34604
57.5 0.33419
57.55 0.32144
57.6 0.30812
57.65 0.29477
57.7 0.28197
57.75 0.26873
57.8 0.2561
57.85 0.24355
57.9 0.23104
57.95 0.21829
58 0.20589
58.05 0.19355
58.1 0.18164
58.15 0.17053
58.2 0.16104
58.25 0.15311
58.3 0.14587
58.35 0.13884
58.4 0.13082
58.45 0.12359
58.5 0.11583
58.55 0.10787
58.6 0.10091
58.65 0.09417
58.7 0.08821
58.75 0.08212
58.8 0.07658
58.85 0.07104
58.9 0.06592
58.95 0.06153
59 0.05648
59.05 0.05155
59.1 0.0464
59.15 0.04137
59.2 0.03709
59.25 0.03205
59.3 0.02769
59.35 0.02408
59.4 0.02044
59.45 0.0161
59.5 0.01102
59.55 0.00702
59.6 0.00247
59.65 -0.00253
59.7 -0.00752
59.75 -0.01205
59.8 -0.01643
59.85 -0.01942
59.9 -0.02132
59.95 -0.02255
60 -0.02342
60.05 -0.02509
60.1 -0.02757
60.15 -0.02942
60.2 -0.03167
60.25 -0.03417
60.3 -0.03669
60.35 -0.03967
60.4 -0.04254
60.45 -0.04528
60.5 -0.04748
60.55 -0.04992
60.6 -0.05158
60.65 -0.05366
60.7 -0.05492
60.75 -0.05591
60.8 -0.05712
60.85 -0.0586
60.9 -0.06027
60.95 -0.06139
61 -0.06163
61.05 -0.0614
61.1 -0.06185
61.15 -0.06174
61.2 -0.06245
61.25 -0.06286
61.3 -0.06336
61.35 -0.06283
61.4 -0.06209
61.45 -0.06233
61.5 -0.06189
61.55 -0.06228
61.6 -0.06258
61.65 -0.06255
61.7 -0.0621
61.75 -0.06227
61.8 -0.06223
61.85 -0.06236
61.9 -0.06239
61.95 -0.06201
62 -0.06179
62.05 -0.06159
62.1 -0.06076
62.15 -0.05906
62.2 -0.05839
62.25 -0.05732
62.3 -0.05675
62.35 -0.05601
62.4 -0.05456
62.45 -0.05373
62.5 -0.05273
62.55 -0.05255
62.6 -0.05142
62.65 -0.05059
62.7 -0.0493
62.75 -0.04846
62.8 -0.0482
62.85 -0.04882
62.9 -0.04971
62.95 -0.04982
63 -0.04945
63.05 -0.04868
63.1 -0.04797
63.15 -0.04696
63.2 -0.04582
63.25 -0.04474
63.3 -0.04303
63.35 -0.04107
63.4 -0.03911
63.45 -0.03839
63.5 -0.03716
63.55 -0.03581
63.6 -0.03504
63.65 -0.03522
63.7 -0.03558
63.75 -0.03664
63.8 -0.0377
63.85 -0.03843
63.9 -0.03859
63.95 -0.03888
64 -0.03927
64.05 -0.03882
64.1 -0.03814
64.15 -0.03766
64.2 -0.03727
64.25 -0.03607
64.3 -0.03465
64.35 -0.03311
64.4 -0.03133
64.45 -0.03033
64.5 -0.03001
64.55 -0.0294
64.6 -0.02911
64.65 -0.02827
64.7 -0.02698
64.75 -0.02584
64.8 -0.0252
64.85 -0.02535
64.9 -0.0253
64.95 -0.02473
65 -0.02366
65.05 -0.02277
65.1 -0.02239
65.15 -0.02167
65.2 -0.02078
65.25 -0.01974
65.3 -0.02016
65.35 -0.02007
65.4 -0.01989
65.45 -0.01921
65.5 -0.01829
65.55 -0.01731
65.6 -0.01715
65.65 -0.01737
65.7 -0.01817
65.75 -0.01805
65.8 -0.01733
65.85 -0.01785
65.9 -0.01763
65.95 -0.017
66 -0.01723
66.05 -0.01719
66.1 -0.01648
66.15 -0.01607
66.2 -0.01572
66.25 -0.01635
66.3 -0.01729
66.35 -0.01755
66.4 -0.01692
66.45 -0.01574
66.5 -0.01499
66.55 -0.01392
66.6 -0.01373
66.65 -0.01321
66.7 -0.01375
66.75 -0.01488
66.8 -0.01563
66.85 -0.01542
66.9 -0.01569
66.95 -0.0151
67 -0.01392
67.05 -0.01405
67.1 -0.014
67.15 -0.01393
67.2 -0.01468
67.25 -0.0144
67.3 -0.01427
67.35 -0.0144
67.4 -0.01436
67.45 -0.01459
67.5 -0.01383
67.55 -0.01403
67.6 -0.01432
67.65 -0.0144
67.7 -0.01369
67.75 -0.01341
67.8 -0.01338
67.85 -0.01331
67.9 -0.01373
67.95 -0.01402
68 -0.01319
68.05 -0.01295
68.1 -0.01304
68.15 -0.01349
68.2 -0.0136
68.25 -0.01332
68.3 -0.01246
68.35 -0.01141
68.4 -0.0109
68.45 -0.01124
68.5 -0.01041
68.55 -0.00976
68.6 -0.00872
68.65 -0.00854
68.7 -0.00809
68.75 -0.00736
68.8 -0.00615
68.85 -0.00617
68.9 -0.00714
68.95 -0.00704
69 -0.00685
69.05 -0.00665
69.1 -0.00699
69.15 -0.00697
69.2 -0.00649
69.25 -0.00546
69.3 -0.00516
69.35 -0.00587
69.4 -0.00633
69.45 -0.00599
69.5 -0.0054
69.55 -0.00517
69.6 -0.00438
69.65 -0.00477
69.7 -0.00486
69.75 -0.00487
69.8 -0.00557
69.85 -0.00641
69.9 -0.00664
69.95 -0.00738
70 -0.00838
70.05 -0.00838
70.1 -0.00791
70.15 -0.00731
70.2 -0.00649
70.25 -0.00589
70.3 -0.00472
70.35 -0.00348
70.4 -0.00198
70.45 -0.00146
70.5 -0.00072
70.55 -0.00106
70.6 -0.00195
70.65 -0.00259
70.7 -0.0025
70.75 -0.00295
70.8 -0.0026
70.85 -0.00227
70.9 -0.0022
70.95 -0.00274
71 -0.00258
71.05 -0.00181
71.1 -0.0018
71.15 -0.00176
71.2 -0.0013
71.25 -0.00142
71.3 -0.00254
71.35 -0.00325
71.4 -0.00359
71.45 -0.00347
71.5 -0.00297
71.55 -0.00283
71.6 -0.00352
71.65 -0.00335
71.7 -0.00262
71.75 -0.00219
71.8 -0.00243
71.85 -0.002
71.9 -0.00163
71.95 -0.00165
72 -0.00258
72.05 -0.00374
72.1 -0.00407
72.15 -0.00371
72.2 -0.00284
72.25 -0.00155
72.3 -0.001
72.35 -0.00073
72.4 -0.00102
72.45 -0.00126
72.5 -0.00106
72.55 -0.00061
72.6 -0.00035
72.65 0.00002
72.7 0.00027
72.75 0.00045
72.8 0.00103
72.85 0.0017
72.9 0.00138
72.95 0.00072
73 0.00009
73.05 -0.00109
73.1 -0.00271
73.15 -0.00443
73.2 -0.00469
73.25 -0.00432
73.3 -0.00356
73.35 -0.00377
73.4 -0.00323
73.45 -0.00295
73.5 -0.00207
73.55 -0.00197
73.6 -0.00287
73.65 -0.00378
73.7 -0.00464
73.75 -0.00571
73.8 -0.00681
73.85 -0.00799
73.9 -0.00813
73.95 -0.00696
74 -0.00546
74.05 -0.00365
74.1 -0.00154
74.15 -0.00054
74.2 -0.00034
74.25 -0.0004
74.3 -0.00025
74.35 -0.00024
74.4 0.00043
74.45 0.00061
74.5 0.00007
74.55 0.00033
74.6 0.00031
74.65 0.00007
74.7 0.00048
74.75 0.00106
74.8 0.00085
74.85 0.00006
74.9 -0.00014
74.95 -0.00108
75 -0.00253
75.05 -0.00384
75.1 -0.00377
75.15 -0.00426
75.2 -0.0049
75.25 -0.00494
75.3 -0.00545
75.35 -0.00588
75.4 -0.00512
75.45 -0.00395
75.5 -0.00241
75.55 -0.00175
75.6 -0.00048
75.65 0.00039
75.7 -0.00004
75.75 -0.00098
75.8 -0.0013
75.85 -0.002
75.9 -0.00195
75.95 -0.0021
76 -0.00163
76.05 -0.00187
76.1 -0.00196
76.15 -0.00166
76.2 -0.00124
76.25 -0.00165
76.3 -0.00231
76.35 -0.00296
76.4 -0.00244
76.45 -0.0019
76.5 -0.0013
76.55 -0.00126
76.6 -0.00106
76.65 -0.00017
76.7 0.00071
76.75 0.00164
76.8 0.00271
76.85 0.0031
76.9 0.00222
76.95 0.00105
77 0.0008
77.05 0.00131
77.1 0.00153
77.15 0.00082
77.2 -0.00066
77.25 -0.00238
77.3 -0.00392
77.35 -0.00527
77.4 -0.00559
77.45 -0.00616
77.5 -0.00551
77.55 -0.00394
77.6 -0.00336
77.65 -0.00214
77.7 -0.00178
77.75 -0.00081
77.8 -0.0005
77.85 -0.00055
77.9 -0.00095
77.95 -0.0007
78 -0.00069
78.05 -0.00037
78.1 0.00017
78.15 0.0003
78.2 0.00105
78.25 0.0011
78.3 0.00027
78.35 -0.00082
78.4 -0.00141
78.45 -0.00124
78.5 -0.00046
78.55 0.00004
78.6 0.00063
78.65 0.00005
78.7 -0.00103
78.75 -0.00108
78.8 -0.00195
78.85 -0.003
78.9 -0.00365
78.95 -0.00326
79 -0.00258
79.05 -0.00226
79.1 -0.0027
79.15 -0.00315
79.2 -0.00328
79.25 -0.00291
79.3 -0.00247
79.35 -0.00194
79.4 -0.00077
79.45 -0.00019
79.5 0.00007
79.55 -0.00043
79.6 -0.00058
79.65 -0.00045
79.7 -0.00051
79.75 -0.00067
79.8 -0.00113
79.85 -0.00155
79.9 -0.00135
79.95 -0.00121
80 -0.00134
80.05 -0.00059
80.1 -0.00089
80.15 -0.00175
80.2 -0.00302
80.25 -0.00419
80.3 -0.00475
80.35 -0.00496
80.4 -0.00448
80.45 -0.00333
80.5 -0.00154
80.55 0.00051
80.6 0.00152
80.65 0.00141
80.7 0.0012
80.75 0.00092
80.8 0.00054
80.85 -0.00053
80.9 -0.00085
80.95 -0.0009
81 -0.00104
81.05 -0.00113
81.1 -0.00142
81.15 -0.00114
81.2 -0.00143
81.25 -0.00141
81.3 -0.00187
81.35 -0.00224
81.4 -0.00198
81.45 -0.00199
81.5 -0.00169
81.55 -0.00159
81.6 -0.00209
81.65 -0.00214
81.7 -0.00181
81.75 -0.0006
81.8 -0.00029
81.85 0.00042
81.9 0.001
81.95 0.00145
82 0.0009
82.05 0.00127
82.1 0.0011
82.15 0.00049
82.2 -0.00001
82.25 -0.00098
82.3 -0.00192
82.35 -0.00189
82.4 -0.00226
82.45 -0.0014
82.5 -0.00115
82.55 -0.00127
82.6 -0.00087
82.65 -0.00035
82.7 -0.00069
82.75 -0.00141
82.8 -0.00171
82.85 -0.00202
82.9 -0.00115
82.95 -0.00002
83 0.00094
83.05 0.00223
83.1 0.00326
83.15 0.00317
83.2 0.00281
83.25 0.00243
83.3 0.00266
83.35 0.00201
83.4 0.00073
83.45 -0.00003
83.5 -0.00133
83.55 -0.00284
83.6 -0.00337
83.65 -0.00283
83.7 -0.00248
83.75 -0.00248
83.8 -0.00196
83.85 -0.00143
83.9 -0.0005
83.95 0.001
84 0.00133
84.05 0.00162
84.1 0.00159
84.15 0.00113
84.2 0.00003
84.25 -0.00066
84.3 -0.00161
84.35 -0.00164
84.4 -0.00129
84.45 -0.00129
84.5 -0.0013
84.55 -0.00159
84.6 -0.00125
84.65 -0.00093
84.7 -0.00139
84.75 -0.00099
84.8 -0.00099
84.85 -0.00052
84.9 0.00018
84.95 0.00136
85 0.00288
85.05 0.00439
85.1 0.00517
85.15 0.00527
85.2 0.00423
85.25 0.00269
85.3 0.00172
85.35 0.00108
85.4 0.00001
85.45 -0.00072
85.5 -0.00154
85.55 -0.00247
85.6 -0.00335
85.65 -0.00395
85.7 -0.00334
85.75 -0.00257
85.8 -0.00149
85.85 -0.0006
85.9 0.00083
85.95 0.00195
86 0.00262
86.05 0.00236
86.1 0.0016
86.15 0.00075
86.2 0.00031
86.25 -0.00011
86.3 -0.00014
86.35 0.00005
86.4 -0.00047
86.45 -0.00061
86.5 -0.00066
86.55 -0.00059
86.6 0.00035
86.65 0.00151
86.7 0.00145
86.75 0.0009
86.8 -0.00011
86.85 -0.00006
86.9 -0.0007
86.95 -0.00122
87 -0.00206
87.05 -0.00227
87.1 -0.00198
87.15 -0.00182
87.2 -0.00131
87.25 -0.00092
87.3 -0.0005
87.35 -0.00035
87.4 0.00011
87.45 -0.00019
87.5 -0.00099
87.55 -0.00104
87.6 -0.00019
87.65 0.00055
87.7 0.00026
87.75 0.00014
87.8 -0.00041
87.85 -0.0005
87.9 0.00028
87.95 0.00039
88 -0.00004
88.05 -0.00032
88.1 -0.0012
88.15 -0.00225
88.2 -0.00286
88.25 -0.00274
88.3 -0.00319
88.35 -0.00369
88.4 -0.00431
88.45 -0.00363
88.5 -0.00367
88.55 -0.00399
88.6 -0.00351
88.65 -0.00271
88.7 -0.00199
88.75 -0.00078
88.8 0.00076
88.85 0.00245
88.9 0.00426
88.95 0.00478
89 0.00401
89.05 0.00318
89.1 0.00285
89.15 0.00209
89.2 0.00193
89.25 0.00106
89.3 0.00055
89.35 0.00043
89.4 -0.00002
89.45 0.00017
89.5 0.00068
89.55 0.00079
89.6 0.00098
89.65 0.00154
89.7 0.00155
89.75 0.00225
89.8 0.00286
89.85 0.0028
89.9 0.00263
89.95 0.00228
90 0.00207
90.05 0.00148
90.1 0.00187
90.15 0.0017
90.2 0.00189
90.25 0.00184
90.3 0.0013
90.35 0.00025
90.4 -0.00113
90.45 -0.00273
90.5 -0.00299
90.55 -0.00278
90.6 -0.00264
90.65 -0.00304
90.7 -0.00378
90.75 -0.00382
90.8 -0.00364
90.85 -0.00323
90.9 -0.00291
90.95 -0.00274
91 -0.0016
91.05 0.00015
91.1 0.00164
91.15 0.00246
91.2 0.00258
91.25 0.00262
91.3 0.0024
91.35 0.00229
91.4 0.00178
91.45 0.00088
91.5 0.00057
91.55 0.00001
91.6 -0.00086
91.65 -0.0006
91.7 -0.0004
91.75 -0.0009
91.8 -0.00076
91.85 0.00004
91.9 0.00007
91.95 -0.00024
92 -0.00067
92.05 -0.00037
92.1 -0.00064
92.15 -0.00106
92.2 -0.00179
92.25 -0.00254
92.3 -0.0031
92.35 -0.00266
92.4 -0.00283
92.45 -0.00299
92.5 -0.00349
92.55 -0.00423
92.6 -0.00374
92.65 -0.0024
92.7 -0.00213
92.75 -0.00223
92.8 -0.00205
92.85 -0.00182
92.9 -0.00223
92.95 -0.00169
93 -0.00162
93.05 -0.00161
93.1 -0.00079
93.15 0.00072
93.2 0.0013
93.25 0.00176
93.3 0.00161
93.35 0.00106
93.4 0.00106
93.45 0.00072
93.5 0.00069
93.55 -0.00002
93.6 -0.00015
93.65 -0.00047
93.7 -0.00118
93.75 -0.00103
93.8 -0.00157
93.85 -0.00242
93.9 -0.00219
93.95 -0.0024
94 -0.00269
94.05 -0.00258
94.1 -0.00205
94.15 -0.00217
94.2 -0.00257
94.25 -0.00245
94.3 -0.00234
94.35 -0.00134
94.4 -0.00045
94.45 0.00012
94.5 0.00119
94.55 0.00132
94.6 0.00076
94.65 0.00066
94.7 0.00076
94.75 0.00047
94.8 0.00003
94.85 -0.00057
94.9 -0.00063
94.95 -0.00084
95 -0.00047
95.05 -0.00047
95.1 -0.00084
95.15 -0.00091
95.2 -0.00059
95.25 -0.00016
95.3 0.00004
95.35 0.00075
95.4 0.00151
95.45 0.0018
95.5 0.00144
95.55 0.00125
95.6 0.00106
95.65 0.00119
95.7 0.00105
95.75 0.00153
95.8 0.00142
95.85 0.00051
95.9 0.00048
95.95 -0.00005
96 0.00017
96.05 0.00048
96.1 0.00081
96.15 0.00109
96.2 0.00128
96.25 0.00063
96.3 0.00019
96.35 0.00049
96.4 0.00037
96.45 -0.00024
96.5 -0.0013
96.55 -0.0023
96.6 -0.00284
96.65 -0.0035
96.7 -0.00365
96.75 -0.00259
96.8 -0.00225
96.85 -0.00238
96.9 -0.00294
96.95 -0.00264
97 -0.00254
97.05 -0.00246
97.1 -0.00226
97.15 -0.00124
97.2 -0.00036
97.25 0.00097
97.3 0.00185
97.35 0.00219
97.4 0.00222
97.45 0.0014
97.5 0.00123
97.55 0.00063
97.6 0.00067
97.65 0.00024
97.7 0.00065
97.75 0.00032
97.8 0.00025
97.85 -0.00017
97.9 -0.00036
97.95 0.0005
98 0.00084
98.05 0.00033
98.1 -0.0006
98.15 -0.00075
98.2 -0.00033
98.25 -0.00015
98.3 0.00075
98.35 0.00212
98.4 0.0027
98.45 0.00328
98.5 0.00297
98.55 0.00198
98.6 0.00086
98.65 0.00014
98.7 -0.00106
98.75 -0.00199
98.8 -0.00211
98.85 -0.00151
98.9 -0.00088
98.95 -0.00031
99 0.0003
99.05 0.00136
99.1 0.00267
99.15 0.00364
99.2 0.00409
99.25 0.00338
99.3 0.0031
99.35 0.00261
99.4 0.00186
99.45 0.0021
99.5 0.00181
99.55 0.00082
99.6 0.00055
99.65 0.00112
99.7 0.00178
99.75 0.00237
99.8 0.0022
99.85 0.00152
99.9 0.00041
99.95 0.00058
