0 0
0.05 0.00348
0.1 0.01029
0.15 0.01526
0.2 0.02644
0.25 0.03449
0.3 0.04342
0.35 0.04531
0.4 0.05176
0.45 0.05733
0.5 0.06133
0.55 0.05979
0.6 0.05565
0.65 0.05696
0.7 0.06028
0.75 0.0634
0.8 0.06267
0.85 0.05906
0.9 0.05739
0.95 0.05123
1 0.04356
1.05 0.03852
1.1 0.03383
1.15 0.0302
1.2 0.03155
1.25 0.02982
1.3 0.03389
1.35 0.0348
1.4 0.0381
1.45 0.03635
1.5 0.03633
1.55 0.03607
1.6 0.03951
1.65 0.04051
1.7 0.04473
1.75 0.04996
1.8 0.04829
1.85 0.04724
1.9 0.04082
1.95 0.03981
2 0.0383
2.05 0.03657
2.1 0.03557
2.15 0.03408
2.2 0.03409
2.25 0.03183
2.3 0.02775
2.35 0.02825
2.4 0.0282
2.45 0.02592
2.5 0.0251
2.55 0.02293
2.6 0.01836
2.65 0.01351
2.7 0.01484
2.75 0.01388
2.8 0.01689
2.85 0.01734
2.9 0.0207
2.95 0.02739
3 0.03585
3.05 0.03902
3.1 0.04035
3.15 0.04349
3.2 0.04282
3.25 0.0425
3.3 0.03814
3.35 0.02989
3.4 0.02192
3.45 0.02144
3.5 0.01826
3.55 0.01405
3.6 0.01572
3.65 0.01338
3.7 0.01198
3.75 0.01233
3.8 0.0142
3.85 0.01519
3.9 0.01565
3.95 0.01312
4 0.01183
4.05 0.01009
4.1 0.00567
4.15 0.00326
4.2 0.00176
4.25 0.00519
4.3 0.0101
4.35 0.01547
4.4 0.01149
4.45 0.00981
4.5 0.00287
4.55 -0.00443
4.6 -0.01984
4.65 -0.04094
4.7 -0.05858
4.75 -0.07647
4.8 -0.10049
4.85 -0.12407
4.9 -0.14923
4.95 -0.17957
5 -0.21463
5.05 -0.24948
5.1 -0.29389
5.15 -0.34715
5.2 -0.40429
5.25 -0.46147
5.3 -0.51735
5.35 -0.57963
5.4 -0.6495
5.45 -0.71949
5.5 -0.78958
5.55 -0.85537
5.6 -0.91912
5.65 -0.9829
5.7 -1.0458
5.75 -1.10328
5.8 -1.1593
5.85 -1.21216
5.9 -1.25085
5.95 -1.2777
6 -1.2946
6.05 -1.31085
6.1 -1.31607
6.15 -1.3122
6.2 -1.30337
6.25 -1.29244
6.3 -1.28143
6.35 -1.26767
6.4 -1.24969
6.45 -1.21784
6.5 -1.17909
6.55 -1.13323
6.6 -1.08432
6.65 -1.02889
6.7 -0.96358
6.75 -0.89245
6.8 -0.815
6.85 -0.7364
6.9 -0.65195
6.95 -0.56602
7 -0.48068
7.05 -0.38725
7.1 -0.29035
7.15 -0.19318
7.2 -0.09258
7.25 0.01099
7.3 0.11476
7.35 0.21943
7.4 0.3233
7.45 0.42318
7.5 0.52409
7.55 0.61528
7.6 0.70306
7.65 0.7875
7.7 0.85914
7.75 0.92809
7.8 0.98844
7.85 1.04462
7.9 1.09069
7.95 1.12593
8 1.14931
8.05 1.16886
8.1 1.18043
8.15 1.18697
8.2 1.18891
8.25 1.18731
8.3 1.18191
8.35 1.18025
8.4 1.17596
8.45 1.17005
8.5 1.16021
8.55 1.14621
8.6 1.13622
8.65 1.12693
8.7 1.11892
8.75 1.10875
8.8 1.09204
8.85 1.07548
8.9 1.05717
8.95 1.04129
9 1.02348
9.05 1.00134
9.1 0.97515
9.15 0.94745
9.2 0.9205
9.25 0.89989
9.3 0.87974
9.35 0.85967
9.4 0.84444
9.45 0.8227
9.5 0.80007
9.55 0.77836
9.6 0.75319
9.65 0.7305
9.7 0.70493
9.75 0.67766
9.8 0.65891
9.85 0.64217
9.9 0.62937
9.95 0.61145
10 0.59639
10.05 0.58224
10.1 0.5676
10.15 0.55148
10.2 0.53117
10.25 0.51123
10.3 0.49276
10.35 0.46798
10.4 0.44378
10.45 0.41377
10.5 0.38321
10.55 0.35124
10.6 0.32736
10.65 0.30032
10.7 0.27176
10.75 0.24809
10.8 0.2317
10.85 0.21911
10.9 0.20351
10.95 0.18514
11 0.16682
11.05 0.14605
11.1 0.12354
11.15 0.10594
11.2 0.08778
11.25 0.06851
11.3 0.05386
11.35 0.03774
11.4 0.0217
11.45 0.00631
11.5 -0.0079
11.55 -0.02024
11.6 -0.02806
11.65 -0.03253
11.7 -0.04259
11.75 -0.05026
11.8 -0.06356
11.85 -0.07144
11.9 -0.08337
11.95 -0.09633
12 -0.11141
12.05 -0.12162
12.1 -0.1286
12.15 -0.13513
12.2 -0.13983
12.25 -0.14491
12.3 -0.14889
12.35 -0.14876
12.4 -0.15437
12.45 -0.16061
12.5 -0.16523
12.55 -0.1653
12.6 -0.16928
12.65 -0.16834
12.7 -0.1716
12.75 -0.17663
12.8 -0.18279
12.85 -0.18539
12.9 -0.18185
12.95 -0.18042
13 -0.17631
13.05 -0.17186
13.1 -0.17011
13.15 -0.17177
13.2 -0.17571
13.25 -0.17539
13.3 -0.17715
13.35 -0.1777
13.4 -0.18166
13.45 -0.18306
13.5 -0.18705
13.55 -0.18982
13.6 -0.18973
13.65 -0.1918
13.7 -0.19166
13.75 -0.18736
13.8 -0.1831
13.85 -0.17936
13.9 -0.17083
13.95 -0.16729
14 -0.16152
14.05 -0.15204
14.1 -0.14341
14.15 -0.1416
14.2 -0.14193
14.25 -0.14333
14.3 -0.1456
14.35 -0.14158
14.4 -0.13353
14.45 -0.12752
14.5 -0.12524
14.55 -0.12642
14.6 -0.12908
14.65 -0.13156
14.7 -0.12782
14.75 -0.12536
14.8 -0.12441
14.85 -0.12308
14.9 -0.12386
14.95 -0.1246
15 -0.1248
15.05 -0.12004
15.1 -0.11446
15.15 -0.1065
15.2 -0.1054
15.25 -0.10064
15.3 -0.10032
15.35 -0.09895
15.4 -0.10087
15.45 -0.10579
15.5 -0.11153
15.55 -0.11769
15.6 -0.11537
15.65 -0.11239
15.7 -0.1056
15.75 -0.09532
15.8 -0.08597
15.85 -0.08255
15.9 -0.07879
15.95 -0.07314
16 -0.07324
16.05 -0.07807
16.1 -0.08258
16.15 -0.08735
16.2 -0.09042
16.25 -0.08679
16.3 -0.08004
16.35 -0.07644
16.4 -0.07415
16.45 -0.06886
16.5 -0.06337
16.55 -0.05821
16.6 -0.0511
16.65 -0.04651
16.7 -0.04326
16.75 -0.04101
16.8 -0.03702
16.85 -0.03236
16.9 -0.03087
16.95 -0.03371
17 -0.04169
17.05 -0.04896
17.1 -0.05138
17.15 -0.05295
17.2 -0.05717
17.25 -0.06333
17.3 -0.06825
17.35 -0.07075
17.4 -0.07292
17.45 -0.07448
17.5 -0.07792
17.55 -0.07377
17.6 -0.06976
17.65 -0.06153
17.7 -0.05495
17.75 -0.05068
17.8 -0.04449
17.85 -0.04272
17.9 -0.04158
17.95 -0.03962
18 -0.03432
18.05 -0.03466
18.1 -0.03759
18.15 -0.0377
18.2 -0.03961
18.25 -0.03784
18.3 -0.03642
18.35 -0.03928
18.4 -0.04587
18.45 -0.04994
18.5 -0.05179
18.55 -0.04982
18.6 -0.05027
18.65 -0.04611
18.7 -0.04294
18.75 -0.03746
18.8 -0.03456
18.85 -0.03277
18.9 -0.03345
18.95 -0.03002
19 -0.02947
19.05 -0.02516
19.1 -0.02565
19.15 -0.02767
19.2 -0.02559
19.25 -0.02054
19.3 -0.01735
19.35 -0.01643
19.4 -0.0156
19.45 -0.01311
19.5 -0.01013
19.55 -0.01261
19.6 -0.01891
19.65 -0.0278
19.7 -0.0299
19.75 -0.03358
19.8 -0.03769
19.85 -0.04403
19.9 -0.0482
19.95 -0.05338
20 -0.05563
20.05 -0.05244
20.1 -0.04504
20.15 -0.03653
20.2 -0.02912
20.25 -0.02718
20.3 -0.02416
20.35 -0.01884
20.4 -0.01298
20.45 -0.01249
20.5 -0.01547
20.55 -0.01893
20.6 -0.02036
20.65 -0.01875
20.7 -0.01642
20.75 -0.01127
20.8 -0.01045
20.85 -0.0065
20.9 -0.00412
20.95 0.00016
21 0.00295
21.05 -0.00046
21.1 -0.00206
21.15 -0.00682
21.2 -0.00997
21.25 -0.0145
21.3 -0.01919
21.35 -0.01967
21.4 -0.01967
21.45 -0.01768
21.5 -0.02034
21.55 -0.02012
21.6 -0.01848
21.65 -0.01319
21.7 -0.00824
21.75 -0.00371
21.8 -0.00335
21.85 -0.00053
21.9 0.00203
21.95 0.00171
22 -0.00216
22.05 -0.00977
22.1 -0.01712
22.15 -0.02236
22.2 -0.02355
22.25 -0.0207
22.3 -0.01921
22.35 -0.01822
22.4 -0.01332
22.45 -0.01248
22.5 -0.01043
22.55 -0.00785
22.6 -0.00748
22.65 -0.00428
22.7 0.00119
22.75 0.00696
22.8 0.00663
22.85 0.00247
22.9 -0.0023
22.95 -0.00295
23 -0.00831
23.05 -0.01674
23.1 -0.02195
23.15 -0.02877
23.2 -0.03582
23.25 -0.0401
23.3 -0.04053
23.35 -0.03847
23.4 -0.03848
23.45 -0.03337
23.5 -0.02589
23.55 -0.0223
23.6 -0.02214
23.65 -0.01946
23.7 -0.02131
23.75 -0.02554
23.8 -0.02271
23.85 -0.01659
23.9 -0.01242
23.95 -0.00461
24 -0.00315
24.05 -0.00206
24.1 0.00103
24.15 0.00601
24.2 0.00388
24.25 0.00414
24.3 0.00023
24.35 -0.00094
24.4 -0.0003
24.45 -0.00194
24.5 0.00002
24.55 0.00331
24.6 0.00363
24.65 0.00488
24.7 0.00515
24.75 0.00325
24.8 -0.0024
24.85 -0.00774
24.9 -0.01289
24.95 -0.01486
25 -0.01353
25.05 -0.01188
25.1 -0.01043
25.15 -0.00602
25.2 -0.00002
25.25 0.00414
25.3 0.00142
25.35 0.0035
25.4 0.00271
25.45 0.00422
25.5 0.00805
25.55 0.01073
25.6 0.01462
25.65 0.01598
25.7 0.01861
25.75 0.02268
25.8 0.02503
25.85 0.02028
25.9 0.01857
25.95 0.01831
26 0.01518
26.05 0.01379
26.1 0.01416
26.15 0.01037
26.2 0.00251
26.25 -0.00621
26.3 -0.00963
26.35 -0.00828
26.4 -0.01065
26.45 -0.01233
26.5 -0.01094
26.55 -0.01411
26.6 -0.01098
26.65 -0.00716
26.7 -0.00074
26.75 0.00342
26.8 0.00899
26.85 0.0155
26.9 0.02198
26.95 0.0281
27 0.03253
27.05 0.03409
27.1 0.03467
27.15 0.02792
27.2 0.02271
27.25 0.01686
27.3 0.00741
27.35 0.00299
27.4 -0.00492
27.45 -0.0122
27.5 -0.01872
27.55 -0.02806
27.6 -0.03226
27.65 -0.03382
27.7 -0.0343
27.75 -0.03326
27.8 -0.03194
27.85 -0.03661
27.9 -0.0443
27.95 -0.05068
28 -0.05773
28.05 -0.0634
28.1 -0.06926
28.15 -0.08021
28.2 -0.09704
28.25 -0.11027
28.3 -0.12418
28.35 -0.14424
28.4 -0.16703
28.45 -0.18852
28.5 -0.2109
28.55 -0.23574
28.6 -0.26432
28.65 -0.29625
28.7 -0.3369
28.75 -0.38276
28.8 -0.42851
28.85 -0.47786
28.9 -0.52846
28.95 -0.58277
29 -0.64281
29.05 -0.70953
29.1 -0.77985
29.15 -0.85079
29.2 -0.91914
29.25 -0.98816
29.3 -1.05426
29.35 -1.11692
29.4 -1.17156
29.45 -1.22932
29.5 -1.2816
29.55 -1.33431
29.6 -1.37888
29.65 -1.42123
29.7 -1.46131
29.75 -1.49343
29.8 -1.52142
29.85 -1.53558
29.9 -1.54196
29.95 -1.54
30 -1.52412
30.05 -1.49869
30.1 -1.4623
30.15 -1.42175
30.2 -1.3721
30.25 -1.31144
30.3 -1.24405
30.35 -1.16703
30.4 -1.07975
30.45 -0.98644
30.5 -0.88532
30.55 -0.77424
30.6 -0.66018
30.65 -0.54439
30.7 -0.4251
30.75 -0.30225
30.8 -0.18435
30.85 -0.07389
30.9 0.03538
30.95 0.14025
31 0.24619
31.05 0.34261
31.1 0.43541
31.15 0.52207
31.2 0.60034
31.25 0.66917
31.3 0.73449
31.35 0.79382
31.4 0.85146
31.45 0.90716
31.5 0.95736
31.55 1.00285
31.6 1.03479
31.65 1.05685
31.7 1.07158
31.75 1.08367
31.8 1.0919
31.85 1.09993
31.9 1.10431
31.95 1.10909
32 1.11777
32.05 1.12965
32.1 1.13478
32.15 1.14066
32.2 1.14836
32.25 1.15663
32.3 1.16305
32.35 1.16927
32.4 1.1723
32.45 1.17344
32.5 1.1762
32.55 1.176
32.6 1.1743
32.65 1.1694
32.7 1.16465
32.75 1.15413
32.8 1.14395
32.85 1.13675
32.9 1.12835
32.95 1.1187
33 1.11113
33.05 1.10081
33.1 1.08604
33.15 1.07214
33.2 1.05451
33.25 1.03341
33.3 1.01038
33.35 0.99097
33.4 0.96465
33.45 0.94107
33.5 0.91836
33.55 0.8901
33.6 0.85919
33.65 0.82845
33.7 0.797
33.75 0.76909
33.8 0.74106
33.85 0.71021
33.9 0.67883
33.95 0.64597
34 0.61281
34.05 0.58355
34.1 0.55875
34.15 0.5304
34.2 0.50238
34.25 0.47905
34.3 0.45533
34.35 0.4308
34.4 0.40307
34.45 0.37425
34.5 0.35076
34.55 0.32634
34.6 0.30192
34.65 0.27884
34.7 0.25327
34.75 0.2339
34.8 0.2134
34.85 0.19041
34.9 0.17342
34.95 0.1534
35 0.1338
35.05 0.1158
35.1 0.10095
35.15 0.08601
35.2 0.06529
35.25 0.04912
35.3 0.03462
35.35 0.02093
35.4 0.00706
35.45 -0.00713
35.5 -0.02071
35.55 -0.03343
35.6 -0.04988
35.65 -0.06844
35.7 -0.08835
35.75 -0.10465
35.8 -0.11289
35.85 -0.11884
35.9 -0.12881
35.95 -0.14107
36 -0.14591
36.05 -0.15468
36.1 -0.16149
36.15 -0.16821
36.2 -0.17034
36.25 -0.17298
36.3 -0.17475
36.35 -0.17825
36.4 -0.18402
36.45 -0.18896
36.5 -0.19306
36.55 -0.19215
36.6 -0.1916
36.65 -0.19701
36.7 -0.20218
36.75 -0.20224
36.8 -0.20112
36.85 -0.2038
36.9 -0.20709
36.95 -0.20826
37 -0.2101
37.05 -0.21552
37.1 -0.21697
37.15 -0.22064
37.2 -0.21923
37.25 -0.21287
37.3 -0.20996
37.35 -0.20577
37.4 -0.19857
37.45 -0.19265
37.5 -0.18665
37.55 -0.18595
37.6 -0.18741
37.65 -0.18905
37.7 -0.18902
37.75 -0.18799
37.8 -0.18671
37.85 -0.18796
37.9 -0.19088
37.95 -0.19507
38 -0.19901
38.05 -0.20084
38.1 -0.20304
38.15 -0.20447
38.2 -0.20679
38.25 -0.20137
38.3 -0.1967
38.35 -0.19272
38.4 -0.18944
38.45 -0.18478
38.5 -0.18173
38.55 -0.17959
38.6 -0.17573
38.65 -0.17331
38.7 -0.17181
38.75 -0.16867
38.8 -0.16149
38.85 -0.15436
38.9 -0.14754
38.95 -0.14433
39 -0.13936
39.05 -0.13499
39.1 -0.13023
39.15 -0.13095
39.2 -0.12846
39.25 -0.12146
39.3 -0.11898
39.35 -0.1148
39.4 -0.11392
39.45 -0.11415
39.5 -0.11416
39.55 -0.11543
39.6 -0.11872
39.65 -0.11874
39.7 -0.11866
39.75 -0.12012
39.8 -0.12248
39.85 -0.12241
39.9 -0.11813
39.95 -0.111
40 -0.10252
40.05 -0.09537
40.1 -0.09427
40.15 -0.09766
40.2 -0.10085
40.25 -0.0995
40.3 -0.09288
40.35 -0.08613
40.4 -0.08301
40.45 -0.08085
40.5 -0.08208
40.55 -0.07861
40.6 -0.07702
40.65 -0.07466
40.7 -0.06895
40.75 -0.06477
40.8 -0.06317
40.85 -0.06167
40.9 -0.05984
40.95 -0.06253
41 -0.0654
41.05 -0.0672
41.1 -0.067
41.15 -0.07161
41.2 -0.07691
41.25 -0.08249
41.3 -0.08698
41.35 -0.08594
41.4 -0.08181
41.45 -0.07641
41.5 -0.0739
41.55 -0.0712
41.6 -0.06702
41.65 -0.06729
41.7 -0.06676
41.75 -0.06266
41.8 -0.05497
41.85 -0.05423
41.9 -0.05339
41.95 -0.0524
42 -0.0482
42.05 -0.0441
42.1 -0.03858
42.15 -0.03836
42.2 -0.04042
42.25 -0.04145
42.3 -0.03919
42.35 -0.03979
42.4 -0.04218
42.45 -0.04062
42.5 -0.03979
42.55 -0.04297
42.6 -0.04668
42.65 -0.04564
42.7 -0.04391
42.75 -0.04357
42.8 -0.04728
42.85 -0.05254
42.9 -0.05137
42.95 -0.05315
43 -0.05772
43.05 -0.05488
43.1 -0.04718
43.15 -0.03952
43.2 -0.0318
43.25 -0.02522
43.3 -0.02432
43.35 -0.02479
43.4 -0.02829
43.45 -0.02897
43.5 -0.02526
43.55 -0.01878
43.6 -0.01924
43.65 -0.01913
43.7 -0.02121
43.75 -0.02741
43.8 -0.02786
43.85 -0.03175
43.9 -0.0293
43.95 -0.02847
44 -0.02415
44.05 -0.01812
44.1 -0.0177
44.15 -0.02241
44.2 -0.03043
44.25 -0.03298
44.3 -0.03054
44.35 -0.03235
44.4 -0.0374
44.45 -0.03605
44.5 -0.03615
44.55 -0.03275
44.6 -0.02767
44.65 -0.02525
44.7 -0.01997
44.75 -0.01289
44.8 -0.0084
44.85 -0.00818
44.9 -0.00579
44.95 -0.00826
45 -0.00655
45.05 -0.00567
45.1 -0.00419
45.15 -0.00554
45.2 -0.00356
45.25 -0.00225
45.3 -0.00301
45.35 -0.00524
45.4 -0.00891
45.45 -0.01283
45.5 -0.01388
45.55 -0.01468
45.6 -0.01734
45.65 -0.02004
45.7 -0.01832
45.75 -0.01889
45.8 -0.02199
45.85 -0.02796
45.9 -0.03343
45.95 -0.03345
46 -0.03683
46.05 -0.03795
46.1 -0.03627
46.15 -0.03598
46.2 -0.03406
46.25 -0.03461
46.3 -0.03134
46.35 -0.02969
46.4 -0.02729
46.45 -0.02575
46.5 -0.02187
46.55 -0.01724
46.6 -0.01384
46.65 -0.00952
46.7 -0.00692
46.75 -0.00482
46.8 -0.0028
46.85 -0.00216
46.9 -0.00417
46.95 -0.00292
47 -0.0076
47.05 -0.01159
47.1 -0.01578
47.15 -0.0137
47.2 -0.0132
47.25 -0.01423
47.3 -0.01011
47.35 -0.01062
47.4 -0.01166
47.45 -0.01627
47.5 -0.02207
47.55 -0.0234
47.6 -0.01998
47.65 -0.01984
47.7 -0.01541
47.75 -0.01433
47.8 -0.01163
47.85 -0.0086
47.9 -0.0044
47.95 -0.00438
48 -0.00473
48.05 -0.00985
48.1 -0.0123
48.15 -0.01488
48.2 -0.0151
48.25 -0.01177
48.3 -0.00955
48.35 -0.01026
48.4 -0.01368
48.45 -0.01191
48.5 -0.01224
48.55 -0.01536
48.6 -0.01503
48.65 -0.01406
48.7 -0.01164
48.75 -0.00782
48.8 -0.00292
48.85 0.00328
48.9 0.00982
48.95 0.0153
49 0.0153
49.05 0.0098
49.1 0.00615
49.15 -0.00123
49.2 -0.00339
49.25 -0.00292
49.3 -0.00643
49.35 -0.00833
49.4 -0.0055
49.45 -0.0022
49.5 -0.00507
49.55 -0.00885
49.6 -0.00629
49.65 -0.00916
49.7 -0.00966
49.75 -0.00756
49.8 -0.00813
49.85 -0.00698
49.9 -0.0031
49.95 0.0014
50 0.00072
50.05 0.00186
50.1 0.00017
50.15 0.00004
50.2 0.00014
50.25 -0.00069
50.3 0.00066
50.35 -0.00322
50.4 -0.0068
50.45 -0.00617
50.5 -0.0103
50.55 -0.01031
50.6 -0.00997
50.65 -0.01183
50.7 -0.01278
50.75 -0.0131
50.8 -0.01145
50.85 -0.00548
50.9 0.00152
50.95 0.0011
51 -0.00142
51.05 -0.00524
51.1 -0.0049
51.15 -0.0071
51.2 -0.01243
51.25 -0.01304
51.3 -0.01389
51.35 -0.00917
51.4 -0.00682
51.45 -0.0065
51.5 -0.00604
51.55 -0.00149
51.6 0.00246
51.65 0.00259
51.7 -0.00128
51.75 -0.00214
51.8 -0.00051
51.85 0.00172
51.9 0.00006
51.95 -0.00196
52 -0.00297
52.05 -0.00613
52.1 -0.00429
52.15 -0.00134
52.2 -0.0016
52.25 -0.00403
52.3 -0.00518
52.35 -0.00151
52.4 -0.00105
52.45 -0.00005
52.5 0.00478
52.55 0.00711
52.6 0.00813
52.65 0.00629
52.7 0.00126
52.75 -0.00225
52.8 -0.00243
52.85 -0.00612
52.9 -0.01165
52.95 -0.0154
53 -0.01308
53.05 -0.01539
53.1 -0.01845
53.15 -0.01951
53.2 -0.0207
53.25 -0.01555
53.3 -0.01509
53.35 -0.01112
53.4 -0.00429
53.45 -0.00022
53.5 0.00025
53.55 -0.00218
53.6 -0.0038
53.65 -0.00633
53.7 -0.00513
53.75 -0.0064
53.8 -0.01092
53.85 -0.01741
53.9 -0.02074
53.95 -0.02345
54 -0.02126
54.05 -0.01594
54.1 -0.0124
54.15 -0.01326
54.2 -0.01398
54.25 -0.01227
54.3 -0.01324
54.35 -0.00957
54.4 -0.00469
54.45 -0.00092
54.5 0.00217
54.55 0.00871
54.6 0.01518
54.65 0.01846
54.7 0.02085
54.75 0.0173
54.8 0.017
54.85 0.01528
54.9 0.01659
54.95 0.02036
55 0.02039
55.05 0.02221
55.1 0.0207
55.15 0.01482
55.2 0.01427
55.25 0.0107
55.3 0.00304
55.35 -0.0052
55.4 -0.00999
55.45 -0.00972
55.5 -0.01033
55.55 -0.00767
55.6 -0.0019
55.65 0.00405
55.7 0.00475
55.75 0.00302
55.8 -0.00037
55.85 -0.0067
55.9 -0.00837
55.95 -0.01314
56 -0.01903
56.05 -0.01648
56.1 -0.01436
56.15 -0.01549
56.2 -0.01742
56.25 -0.01474
56.3 -0.01558
56.35 -0.01278
56.4 -0.01425
56.45 -0.01243
56.5 -0.00667
56.55 -0.00295
56.6 -0.00431
56.65 -0.00404
56.7 -0.00644
56.75 -0.00423
56.8 -0.00041
56.85 0.00636
56.9 0.01251
56.95 0.01817
57 0.01961
57.05 0.01433
57.1 0.00685
57.15 0.00356
57.2 -0.00286
57.25 -0.00692
57.3 -0.00563
57.35 -0.00383
57.4 -0.00017
57.45 0.00277
57.5 0.00151
57.55 -0.00085
57.6 0.00103
57.65 0.00308
57.7 0.00713
57.75 0.01058
57.8 0.01296
57.85 0.01648
57.9 0.02123
57.95 0.02416
58 0.02023
58.05 0.02039
58.1 0.01713
58.15 0.01247
58.2 0.00507
58.25 0.00396
58.3 0.00032
58.35 -0.0043
58.4 -0.0114
58.45 -0.01939
58.5 -0.02661
58.55 -0.02864
58.6 -0.02721
58.65 -0.02458
58.7 -0.0167
58.75 -0.00594
58.8 0.00357
58.85 0.01015
58.9 0.01528
58.95 0.01344
59 0.00648
59.05 0.00103
59.1 -0.00568
59.15 -0.00919
59.2 -0.00757
59.25 -0.00718
59.3 -0.00686
59.35 -0.00891
59.4 -0.01158
59.45 -0.00936
59.5 -0.00414
59.55 0.00062
59.6 0.00388
59.65 0.00728
59.7 0.0065
59.75 0.0014
59.8 -0.00025
59.85 -0.00034
59.9 0.00176
59.95 0.00031
60 -0.00473
60.05 -0.00922
60.1 -0.00955
60.15 -0.01303
60.2 -0.01176
60.25 -0.01261
60.3 -0.01384
60.35 -0.01192
60.4 -0.00652
60.45 -0.00481
60.5 -0.00145
60.55 -0.00186
60.6 -0.00634
60.65 -0.00611
60.7 -0.00791
60.75 -0.00621
60.8 -0.00329
60.85 0.00302
60.9 0.00405
60.95 0.00611
61 0.00477
61.05 0.00407
61.1 0.00804
61.15 0.01005
61.2 0.01454
61.25 0.01191
61.3 0.00563
61.35 -0.00199
61.4 -0.00822
61.45 -0.01579
61.5 -0.01696
61.55 -0.01933
61.6 -0.01582
61.65 -0.01281
61.7 -0.01042
61.75 -0.01028
61.8 -0.0093
61.85 -0.0087
61.9 -0.00666
61.95 -0.00631
62 -0.00599
62.05 -0.00046
62.1 0.00515
62.15 0.01244
62.2 0.01982
62.25 0.02227
62.3 0.01922
62.35 0.01279
62.4 0.00673
62.45 -0.00144
62.5 -0.01094
62.55 -0.02047
62.6 -0.02613
62.65 -0.02472
62.7 -0.02073
62.75 -0.01604
62.8 -0.01377
62.85 -0.00706
62.9 -0.00576
62.95 -0.00537
63 -0.00086
63.05 0.00294
63.1 0.00237
63.15 0.00641
63.2 0.01251
63.25 0.01422
63.3 0.012
63.35 0.0112
63.4 0.0093
63.45 0.00972
63.5 0.01146
63.55 0.00917
63.6 0.00768
63.65 0.00946
63.7 0.0084
63.75 0.0054
63.8 0.00699
63.85 0.01129
63.9 0.01397
63.95 0.01475
64 0.01866
64.05 0.02334
64.1 0.02883
64.15 0.02833
64.2 0.02392
64.25 0.01906
64.3 0.01444
64.35 0.01408
64.4 0.01119
64.45 0.00724
64.5 0.00416
64.55 -0.00017
64.6 -0.00063
64.65 -0.0015
64.7 0.0013
64.75 0.00286
64.8 -0.00108
64.85 0.00087
64.9 0.00407
64.95 0.00256
65 0.00029
65.05 -0.00011
65.1 0.00234
65.15 0.0074
65.2 0.00716
65.25 0.00894
65.3 0.00438
65.35 -0.00365
65.4 -0.00518
65.45 -0.00204
65.5 -0.00222
65.55 0.00234
65.6 0.00349
65.65 0.00618
65.7 0.00809
65.75 0.00466
65.8 0.0027
65.85 0.0019
65.9 0.00003
65.95 -0.00416
66 -0.00644
66.05 -0.00306
66.1 -0.00163
66.15 -0.00066
66.2 0.00414
66.25 0.00566
66.3 0.00794
66.35 0.01182
66.4 0.01071
66.45 0.0125
66.5 0.00796
66.55 -0.00023
66.6 -0.00521
66.65 -0.00917
66.7 -0.0104
66.75 -0.01512
66.8 -0.01447
66.85 -0.01427
66.9 -0.01667
66.95 -0.01326
67 -0.01047
67.05 -0.00762
67.1 -0.00589
67.15 -0.00733
67.2 -0.01042
67.25 -0.00711
67.3 -0.00433
67.35 -0.00002
67.4 0.00625
67.45 0.0112
67.5 0.0165
67.55 0.0201
67.6 0.02096
67.65 0.02176
67.7 0.02041
67.75 0.02146
67.8 0.01619
67.85 0.00832
67.9 0.00177
67.95 -0.00418
68 -0.01112
68.05 -0.01502
68.1 -0.01944
68.15 -0.01791
68.2 -0.01338
68.25 -0.00736
68.3 -0.00426
68.35 -0.00338
68.4 -0.00299
68.45 -0.00179
68.5 0.00122
68.55 -0.00184
68.6 -0.00771
68.65 -0.0109
68.7 -0.0099
68.75 -0.00475
68.8 0.00227
68.85 0.00539
68.9 0.00441
68.95 0.00206
69 -0.00084
69.05 -0.00564
69.1 -0.00436
69.15 -0.00776
69.2 -0.00601
69.25 -0.00102
69.3 0.00049
69.35 -0.00071
69.4 0.00105
69.45 0.00315
69.5 0.0019
69.55 -0.00166
69.6 -0.00545
69.65 -0.00926
69.7 -0.01126
69.75 -0.00763
69.8 -0.00707
69.85 -0.0065
69.9 -0.00831
69.95 -0.01114
70 -0.01389
70.05 -0.01878
70.1 -0.02305
70.15 -0.02014
70.2 -0.01444
70.25 -0.00745
70.3 -0.00003
70.35 0.00203
70.4 0.00217
70.45 0.00118
70.5 -0.0013
70.55 0.00102
70.6 0.00686
70.65 0.01337
70.7 0.02057
70.75 0.02151
70.8 0.01567
70.85 0.01057
70.9 0.00733
70.95 0.00233
71 -0.00385
71.05 -0.00571
71.1 -0.01081
71.15 -0.01479
71.2 -0.01914
71.25 -0.01886
71.3 -0.01986
71.35 -0.02064
71.4 -0.01731
71.45 -0.01329
71.5 -0.01253
71.55 -0.01533
71.6 -0.01975
71.65 -0.02212
71.7 -0.02348
71.75 -0.01778
71.8 -0.01467
71.85 -0.01491
71.9 -0.01228
71.95 -0.00514
72 -0.0047
72.05 -0.00757
72.1 -0.00805
72.15 -0.00997
72.2 -0.00767
72.25 -0.00852
72.3 -0.00883
72.35 -0.01177
72.4 -0.01331
72.45 -0.01166
72.5 -0.00524
72.55 -0.00251
72.6 -0.00421
72.65 0.00006
72.7 0.00322
72.75 0.0012
72.8 0.00399
72.85 0.00397
72.9 0.00576
72.95 0.00464
73 0.00105
73.05 -0.00331
73.1 -0.00982
73.15 -0.00873
73.2 -0.005
73.25 0.00057
73.3 0.00383
73.35 0.0041
73.4 0.0086
73.45 0.01234
73.5 0.01043
73.55 0.00592
73.6 0.00475
73.65 0.00669
73.7 0.00988
73.75 0.01503
73.8 0.02119
73.85 0.02178
73.9 0.01892
73.95 0.0112
74 0.002
74.05 -0.0042
74.1 -0.00586
74.15 -0.01091
74.2 -0.01197
74.25 -0.01229
74.3 -0.00759
74.35 -0.0014
74.4 0.00534
74.45 0.01169
74.5 0.01381
74.55 0.01625
74.6 0.01872
74.65 0.02119
74.7 0.01728
74.75 0.00952
74.8 0.00708
74.85 0.00069
74.9 -0.00586
74.95 -0.00846
75 -0.01314
75.05 -0.01395
75.1 -0.01186
75.15 -0.01065
75.2 -0.01207
75.25 -0.01011
75.3 -0.00852
75.35 -0.00437
75.4 0.00079
75.45 0.00267
75.5 0.005
75.55 0.00503
75.6 0.00295
75.65 0.00557
75.7 0.00384
75.75 0.00691
75.8 0.01278
75.85 0.01159
75.9 0.01167
75.95 0.00659
76 0.00419
76.05 0.00136
76.1 -0.00103
76.15 -0.00243
76.2 0.00051
76.25 0.0048
76.3 0.00597
76.35 0.01038
76.4 0.01364
76.45 0.01654
76.5 0.01486
76.55 0.01131
76.6 0.00426
76.65 -0.00314
76.7 -0.00499
76.75 -0.00943
76.8 -0.00781
76.85 -0.00314
76.9 -0.00428
76.95 -0.0089
77 -0.00826
77.05 -0.00776
77.1 -0.00241
77.15 -0.00278
77.2 -0.00322
77.25 -0.00403
77.3 -0.00857
77.35 -0.01271
77.4 -0.01117
77.45 -0.00893
77.5 -0.00449
77.55 0.00147
77.6 0.00735
77.65 0.00801
77.7 0.00662
77.75 0.00154
77.8 0.00057
77.85 0.00078
77.9 0.00484
77.95 0.00903
78 0.01468
78.05 0.01518
78.1 0.01092
78.15 0.00673
78.2 0.00485
78.25 0.00275
78.3 0.00547
78.35 0.01008
78.4 0.01253
78.45 0.01136
78.5 0.00654
78.55 0.00559
78.6 0.00668
78.65 0.00742
78.7 0.00897
78.75 0.01279
78.8 0.01104
78.85 0.0119
78.9 0.01477
78.95 0.01916
79 0.01776
79.05 0.01116
79.1 0.00618
79.15 0.0058
79.2 0.00578
79.25 0.00642
79.3 0.00161
79.35 -0.00086
79.4 -0.00657
79.45 -0.01123
79.5 -0.01394
79.55 -0.01676
79.6 -0.01913
79.65 -0.02272
79.7 -0.02117
79.75 -0.01692
79.8 -0.01575
79.85 -0.00964
79.9 -0.00619
79.95 -0.0049
80 -0.00218
80.05 0.0031
80.1 0.00369
80.15 0.00003
80.2 0.00083
80.25 0.00017
80.3 -0.00383
80.35 -0.00297
80.4 -0.00497
80.45 -0.00291
80.5 -0.00456
80.55 -0.00142
80.6 0.00365
80.65 0.00729
80.7 0.01184
80.75 0.01494
80.8 0.01517
80.85 0.01369
80.9 0.01474
80.95 0.01625
81 0.01803
81.05 0.01748
81.1 0.01319
81.15 0.00682
81.2 -0.00155
81.25 -0.01066
81.3 -0.0143
81.35 -0.01141
81.4 -0.00623
81.45 -0.00326
81.5 -0.00393
81.55 -0.00299
81.6 -0.00244
81.65 -0.00399
81.7 -0.00692
81.75 -0.01092
81.8 -0.01597
81.85 -0.01993
81.9 -0.0251
81.95 -0.02274
82 -0.01953
82.05 -0.01733
82.1 -0.01467
82.15 -0.01654
82.2 -0.01223
82.25 -0.01018
82.3 -0.01013
82.35 -0.01119
82.4 -0.0096
82.45 -0.00896
82.5 -0.01031
82.55 -0.01127
82.6 -0.01236
82.65 -0.012
82.7 -0.01263
82.75 -0.01439
82.8 -0.01037
82.85 -0.00269
82.9 -0.00026
82.95 0.00012
83 0.0037
83.05 0.00385
83.1 -0.00057
83.15 -0.00768
83.2 -0.0149
83.25 -0.01615
83.3 -0.01974
83.35 -0.02141
83.4 -0.01739
83.45 -0.0102
83.5 -0.00522
83.55 0.0027
83.6 0.00955
83.65 0.01292
83.7 0.01688
83.75 0.01834
83.8 0.01746
83.85 0.01241
83.9 0.01066
83.95 0.01061
84 0.00835
84.05 0.00509
84.1 0.0014
84.15 -0.00365
84.2 -0.0099
84.25 -0.00996
84.3 -0.00884
84.35 -0.00809
84.4 -0.00599
84.45 -0.0045
84.5 -0.00556
84.55 -0.00355
84.6 -0.001
84.65 -0.0013
84.7 -0.00156
84.75 -0.00005
84.8 0.00512
84.85 0.00836
84.9 0.00847
84.95 0.00395
85 0.00137
85.05 -0.00295
85.1 -0.0063
85.15 -0.00353
85.2 0.00248
85.25 0.00357
85.3 0.00056
85.35 -0.00194
85.4 -0.00284
85.45 -0.00763
85.5 -0.01079
85.55 -0.01328
85.6 -0.01138
85.65 -0.00698
85.7 -0.00711
85.75 -0.00581
85.8 -0.00668
85.85 -0.00896
85.9 -0.00858
85.95 -0.00823
86 -0.00338
86.05 -0.00151
86.1 -0.00002
86.15 -0.00124
86.2 -0.00223
86.25 -0.00153
86.3 -0.00417
86.35 -0.00084
86.4 -0.00199
86.45 -0.00613
86.5 -0.00617
86.55 -0.00264
86.6 -0.00024
86.65 0.00055
86.7 0.00186
86.75 0.00227
86.8 0.00342
86.85 0.00034
86.9 -0.00046
86.95 0.00141
87 0.00549
87.05 0.00785
87.1 0.00798
87.15 0.00901
87.2 0.00534
87.25 0.00733
87.3 0.00604
87.35 0.00617
87.4 0.00187
87.45 -0.00274
87.5 -0.00353
87.55 -0.00528
87.6 -0.00268
87.65 0.00336
87.7 0.0038
87.75 0.00479
87.8 0.00752
87.85 0.00641
87.9 0.00918
87.95 0.01224
88 0.01553
88.05 0.01441
88.1 0.00809
88.15 0.00437
88.2 -0.00172
88.25 -0.00101
88.3 -0.00072
88.35 -0.00351
88.4 -0.0024
88.45 -0.00216
88.5 -0.00265
88.55 0.00193
88.6 0.00531
88.65 0.01053
88.7 0.01437
88.75 0.01503
88.8 0.01384
88.85 0.01046
88.9 0.00298
88.95 0.00174
89 0.00483
89.05 0.00186
89.1 0.00101
89.15 -0.00421
89.2 -0.00682
89.25 -0.00821
89.3 -0.00757
89.35 -0.00175
89.4 0.00468
89.45 0.00883
89.5 0.00832
89.55 0.0118
89.6 0.01475
89.65 0.01543
89.7 0.01853
89.75 0.0164
89.8 0.017
89.85 0.01679
89.9 0.01352
89.95 0.00585
90 0.00007
90.05 -0.00708
90.1 -0.01282
90.15 -0.01778
90.2 -0.01873
90.25 -0.021
90.3 -0.01744
90.35 -0.01195
90.4 -0.0099
90.45 -0.01042
90.5 -0.00844
90.55 -0.00424
90.6 0.00319
90.65 0.0118
90.7 0.01425
90.75 0.01699
90.8 0.01613
90.85 0.01357
90.9 0.00964
90.95 0.00949
91 0.01274
91.05 0.01756
91.1 0.02333
91.15 0.02624
91.2 0.02279
91.25 0.02214
91.3 0.02314
91.35 0.02145
91.4 0.01557
91.45 0.0124
91.5 0.00489
91.55 -0.00208
91.6 -0.00698
91.65 -0.00585
91.7 -0.00647
91.75 -0.00988
91.8 -0.00825
91.85 -0.00468
91.9 0.00117
91.95 0.0052
92 0.00589
92.05 0.0016
92.1 -0.00164
92.15 -0.00487
92.2 -0.00785
92.25 -0.01138
92.3 -0.0159
92.35 -0.01337
92.4 -0.01324
92.45 -0.01523
92.5 -0.01404
92.55 -0.0143
92.6 -0.01518
92.65 -0.01032
92.7 -0.01051
92.75 -0.00535
92.8 -0.00243
92.85 0.00175
92.9 0.0077
92.95 0.01155
93 0.01627
93.05 0.0159
93.1 0.01426
93.15 0.00858
93.2 0.00097
93.25 -0.00602
93.3 -0.00962
93.35 -0.01429
93.4 -0.01475
93.45 -0.01158
93.5 -0.01122
93.55 -0.00852
93.6 -0.00628
93.65 -0.00416
93.7 -0.00566
93.75 -0.01008
93.8 -0.009
93.85 -0.00729
93.9 -0.00702
93.95 -0.00829
94 -0.01167
94.05 -0.00927
94.1 -0.007
94.15 -0.00662
94.2 -0.00765
94.25 -0.00548
94.3 -0.00744
94.35 -0.00801
94.4 -0.00885
94.45 -0.01069
94.5 -0.01273
94.55 -0.01667
94.6 -0.01712
94.65 -0.01124
94.7 -0.00239
94.75 -0.00054
94.8 0.00446
94.85 0.0056
94.9 0.00425
94.95 0.00161
95 -0.00454
95.05 -0.00977
95.1 -0.01688
95.15 -0.01986
95.2 -0.02031
95.25 -0.01753
95.3 -0.01805
95.35 -0.01687
95.4 -0.01906
95.45 -0.02228
95.5 -0.02236
95.55 -0.02489
95.6 -0.02845
95.65 -0.02705
95.7 -0.01978
95.75 -0.00879
95.8 0.0011
95.85 0.00621
95.9 0.0081
95.95 0.00578
96 0.00885
96.05 0.01123
96.1 0.01679
96.15 0.02315
96.2 0.02558
96.25 0.02494
96.3 0.02524
96.35 0.01995
96.4 0.0124
96.45 0.00406
96.5 0.00024
96.55 0.00257
96.6 0.0021
96.65 0.00156
96.7 0.00353
96.75 0.0022
96.8 -0.00198
96.85 -0.00442
96.9 -0.00959
96.95 -0.01427
97 -0.01375
97.05 -0.01325
97.1 -0.01394
97.15 -0.01329
97.2 -0.0083
97.25 -0.00186
97.3 0.00354
97.35 0.00837
97.4 0.01374
97.45 0.01824
97.5 0.02252
97.55 0.02494
97.6 0.02501
97.65 0.02562
97.7 0.02405
97.75 0.02125
97.8 0.02078
97.85 0.01481
97.9 0.01095
97.95 0.01191
98 0.01399
98.05 0.01391
98.1 0.01681
98.15 0.02107
98.2 0.02599
98.25 0.02937
98.3 0.0327
98.35 0.03464
98.4 0.03216
98.45 0.02391
98.5 0.01511
98.55 0.00402
98.6 0.00002
98.65 0.00073
98.7 -0.00394
98.75 -0.0024
98.8 0.00166
98.85 0.0058
98.9 0.00756
98.95 0.00415
99 -0.00336
99.05 -0.00694
99.1 -0.00658
99.15 -0.00998
99.2 -0.01302
99.25 -0.01441
99.3 -0.01091
99.35 -0.00738
99.4 -0.00582
99.45 -0.00252
99.5 -0.00024
99.55 -0.00082
99.6 -0.0048
99.65 -0.01068
99.7 -0.01177
99.75 -0.00949
99.8 -0.00574
99.85 0.00018
99.9 0.00255
99.95 0.00818
