0 0
0.05 0.00453
0.1 0.01393
0.15 0.02062
0.2 0.02417
0.25 0.02508
0.3 0.03002
0.35 0.03078
0.4 0.03522
0.45 0.03919
0.5 0.04612
0.55 0.04931
0.6 0.05178
0.65 0.05389
0.7 0.05282
0.75 0.05191
0.8 0.05466
0.85 0.05302
0.9 0.04874
0.95 0.04122
1 0.03987
1.05 0.0402
1.1 0.03673
1.15 0.03611
1.2 0.03925
1.25 0.04097
1.3 0.04423
1.35 0.04494
1.4 0.04699
1.45 0.04702
1.5 0.05053
1.55 0.04706
1.6 0.04283
1.65 0.03799
1.7 0.03296
1.75 0.02586
1.8 0.02559
1.85 0.02166
1.9 0.02079
1.95 0.01706
2 0.01722
2.05 0.01569
2.1 0.0188
2.15 0.01992
2.2 0.02358
2.25 0.02623
2.3 0.03107
2.35 0.03689
2.4 0.03691
2.45 0.03336
2.5 0.0327
2.55 0.03552
2.6 0.03937
2.65 0.04374
2.7 0.04613
2.75 0.0434
2.8 0.04484
2.85 0.04015
2.9 0.0328
2.95 0.02742
3 0.02135
3.05 0.0203
3.1 0.01668
3.15 0.01727
3.2 0.01391
3.25 0.01521
3.3 0.01683
3.35 0.01584
3.4 0.01667
3.45 0.02112
3.5 0.02406
3.55 0.02153
3.6 0.01761
3.65 0.01758
3.7 0.02087
3.75 0.02626
3.8 0.03185
3.85 0.03354
3.9 0.03449
3.95 0.0339
4 0.03428
4.05 0.03649
4.1 0.0332
4.15 0.02474
4.2 0.01614
4.25 0.00602
4.3 -0.00356
4.35 -0.00634
4.4 -0.0084
4.45 -0.01362
4.5 -0.0184
4.55 -0.02776
4.6 -0.03485
4.65 -0.04545
4.7 -0.05642
4.75 -0.07599
4.8 -0.10264
4.85 -0.13398
4.9 -0.16601
4.95 -0.20193
5 -0.23863
5.05 -0.28595
5.1 -0.33282
5.15 -0.38232
5.2 -0.43879
5.25 -0.50551
5.3 -0.57516
5.35 -0.6517
5.4 -0.73748
5.45 -0.82545
5.5 -0.91866
5.55 -1.01465
5.6 -1.11122
5.65 -1.20808
5.7 -1.30555
5.75 -1.40158
5.8 -1.49403
5.85 -1.58558
5.9 -1.67028
5.95 -1.75362
6 -1.83321
6.05 -1.90801
6.1 -1.97825
6.15 -2.04133
6.2 -2.09911
6.25 -2.14653
6.3 -2.18984
6.35 -2.22514
6.4 -2.25329
6.45 -2.27783
6.5 -2.29009
6.55 -2.29157
6.6 -2.29142
6.65 -2.28448
6.7 -2.26949
6.75 -2.23955
6.8 -2.19758
6.85 -2.14259
6.9 -2.0733
6.95 -1.98734
7 -1.8841
7.05 -1.76723
7.1 -1.63767
7.15 -1.48922
7.2 -1.33134
7.25 -1.16072
7.3 -0.97878
7.35 -0.79546
7.4 -0.60518
7.45 -0.41163
7.5 -0.219
7.55 -0.03122
7.6 0.15536
7.65 0.3348
7.7 0.50501
7.75 0.66637
7.8 0.81689
7.85 0.95553
7.9 1.08375
7.95 1.20296
8 1.31511
8.05 1.42171
8.1 1.5145
8.15 1.59762
8.2 1.67098
8.25 1.73459
8.3 1.78687
8.35 1.82982
8.4 1.86653
8.45 1.89912
8.5 1.92497
8.55 1.95153
8.6 1.96835
8.65 1.9842
8.7 1.9974
8.75 2.00394
8.8 2.00997
8.85 2.00735
8.9 1.9969
8.95 1.98833
9 1.98236
9.05 1.97283
9.1 1.96359
9.15 1.94692
9.2 1.93237
9.25 1.91248
9.3 1.89494
9.35 1.87045
9.4 1.84377
9.45 1.82027
9.5 1.79654
9.55 1.77651
9.6 1.75655
9.65 1.73662
9.7 1.70995
9.75 1.68448
9.8 1.6594
9.85 1.62968
9.9 1.60251
9.95 1.57528
10 1.5416
10.05 1.50501
10.1 1.46952
10.15 1.43525
10.2 1.40248
10.25 1.36988
10.3 1.33593
10.35 1.29711
10.4 1.25231
10.45 1.21232
10.5 1.17221
10.55 1.13172
10.6 1.09398
10.65 1.05386
10.7 1.01462
10.75 0.97204
10.8 0.92476
10.85 0.87571
10.9 0.83239
10.95 0.79264
11 0.74976
11.05 0.70452
11.1 0.66598
11.15 0.62377
11.2 0.58629
11.25 0.54763
11.3 0.51391
11.35 0.4782
11.4 0.44595
11.45 0.41441
11.5 0.38249
11.55 0.34421
11.6 0.30643
11.65 0.26542
11.7 0.22672
11.75 0.18791
11.8 0.15655
11.85 0.12615
11.9 0.09505
11.95 0.06277
12 0.03591
12.05 0.00858
12.1 -0.0205
12.15 -0.04359
12.2 -0.06615
12.25 -0.08299
12.3 -0.10295
12.35 -0.12191
12.4 -0.13956
12.45 -0.15462
12.5 -0.17172
12.55 -0.18373
12.6 -0.19305
12.65 -0.20386
12.7 -0.2126
12.75 -0.22523
12.8 -0.23488
12.85 -0.24834
12.9 -0.26179
12.95 -0.27014
13 -0.28307
13.05 -0.29166
13.1 -0.29885
13.15 -0.30652
13.2 -0.31462
13.25 -0.32011
13.3 -0.32041
13.35 -0.3249
13.4 -0.32934
13.45 -0.32962
13.5 -0.33419
13.55 -0.33676
13.6 -0.33612
13.65 -0.3378
13.7 -0.33688
13.75 -0.33934
13.8 -0.3451
13.85 -0.34489
13.9 -0.34507
13.95 -0.3486
14 -0.34625
14.05 -0.34697
14.1 -0.34258
14.15 -0.3341
14.2 -0.33216
14.25 -0.33011
14.3 -0.32833
14.35 -0.32252
14.4 -0.32031
14.45 -0.32085
14.5 -0.31648
14.55 -0.31551
14.6 -0.3163
14.65 -0.31256
14.7 -0.31281
14.75 -0.30804
14.8 -0.30739
14.85 -0.30636
14.9 -0.30665
14.95 -0.30598
15 -0.30133
15.05 -0.29714
15.1 -0.29354
15.15 -0.2913
15.2 -0.2848
15.25 -0.2763
15.3 -0.26894
15.35 -0.25905
15.4 -0.24866
15.45 -0.24218
15.5 -0.23986
15.55 -0.23325
15.6 -0.22791
15.65 -0.22814
15.7 -0.22766
15.75 -0.22385
15.8 -0.22476
15.85 -0.22282
15.9 -0.22227
15.95 -0.2176
16 -0.21646
16.05 -0.21829
16.1 -0.2152
16.15 -0.20751
16.2 -0.20062
16.25 -0.19097
16.3 -0.18812
16.35 -0.18374
16.4 -0.18371
16.45 -0.17818
16.5 -0.17201
16.55 -0.1696
16.6 -0.16774
16.65 -0.16637
16.7 -0.161
16.75 -0.15962
16.8 -0.15643
16.85 -0.15064
16.9 -0.1438
16.95 -0.13877
17 -0.13533
17.05 -0.13457
17.1 -0.13794
17.15 -0.14032
17.2 -0.14371
17.25 -0.1427
17.3 -0.14416
17.35 -0.14384
17.4 -0.1446
17.45 -0.14257
17.5 -0.13737
17.55 -0.13218
17.6 -0.13038
17.65 -0.12373
17.7 -0.11466
17.75 -0.10831
17.8 -0.10478
17.85 -0.0993
17.9 -0.0982
17.95 -0.10238
18 -0.10952
18.05 -0.11303
18.1 -0.11429
18.15 -0.11316
18.2 -0.10731
18.25 -0.10115
18.3 -0.09843
18.35 -0.09616
18.4 -0.09111
18.45 -0.08982
18.5 -0.09238
18.55 -0.09829
18.6 -0.10377
18.65 -0.11006
18.7 -0.11045
18.75 -0.10821
18.8 -0.10623
18.85 -0.1003
18.9 -0.09897
18.95 -0.09321
19 -0.08568
19.05 -0.07575
19.1 -0.06748
19.15 -0.06404
19.2 -0.06276
19.25 -0.0591
19.3 -0.06121
19.35 -0.06467
19.4 -0.06677
19.45 -0.06729
19.5 -0.06382
19.55 -0.06465
19.6 -0.06179
19.65 -0.06473
19.7 -0.06557
19.75 -0.06528
19.8 -0.06406
19.85 -0.06615
19.9 -0.06511
19.95 -0.06569
20 -0.06833
20.05 -0.0676
20.1 -0.06553
20.15 -0.06746
20.2 -0.07111
20.25 -0.07366
20.3 -0.07533
20.35 -0.07332
20.4 -0.07458
20.45 -0.07567
20.5 -0.06984
20.55 -0.06174
20.6 -0.05288
20.65 -0.04272
20.7 -0.03469
20.75 -0.02836
20.8 -0.02378
20.85 -0.02289
20.9 -0.02419
20.95 -0.02409
21 -0.02097
21.05 -0.0198
21.1 -0.01723
21.15 -0.02008
21.2 -0.02596
21.25 -0.03251
21.3 -0.03565
21.35 -0.04088
21.4 -0.04044
21.45 -0.04077
21.5 -0.04353
21.55 -0.04037
21.6 -0.03517
21.65 -0.02916
21.7 -0.03031
21.75 -0.02848
21.8 -0.02367
21.85 -0.02018
21.9 -0.02307
21.95 -0.02762
22 -0.03343
22.05 -0.03585
22.1 -0.03555
22.15 -0.03944
22.2 -0.04239
22.25 -0.04302
22.3 -0.03867
22.35 -0.03166
22.4 -0.02614
22.45 -0.01964
22.5 -0.01696
22.55 -0.01232
22.6 -0.01412
22.65 -0.01809
22.7 -0.01964
22.75 -0.02256
22.8 -0.02173
22.85 -0.0262
22.9 -0.02476
22.95 -0.0277
23 -0.02731
23.05 -0.03012
23.1 -0.03125
23.15 -0.02698
23.2 -0.02117
23.25 -0.02122
23.3 -0.02296
23.35 -0.02606
23.4 -0.02772
23.45 -0.0285
23.5 -0.03003
23.55 -0.02601
23.6 -0.02305
23.65 -0.01773
23.7 -0.01618
23.75 -0.01388
23.8 -0.00969
23.85 -0.01144
23.9 -0.01633
23.95 -0.02184
24 -0.02954
24.05 -0.03366
24.1 -0.03723
24.15 -0.03423
24.2 -0.02921
24.25 -0.02825
24.3 -0.02868
24.35 -0.03198
24.4 -0.0302
24.45 -0.02659
24.5 -0.02665
24.55 -0.02348
24.6 -0.02519
24.65 -0.02779
24.7 -0.02845
24.75 -0.02397
24.8 -0.01615
24.85 -0.00777
24.9 -0.00302
24.95 -0.00287
25 -0.00272
25.05 -0.00769
25.1 -0.01023
25.15 -0.01125
25.2 -0.01605
25.25 -0.01973
25.3 -0.01678
25.35 -0.01071
25.4 -0.00411
25.45 0.00332
25.5 0.00443
25.55 0.00098
25.6 -0.0029
25.65 -0.00998
25.7 -0.01882
25.75 -0.02524
25.8 -0.02899
25.85 -0.02578
25.9 -0.01925
25.95 -0.01304
26 -0.00864
26.05 -0.00375
26.1 -0.00005
26.15 0.0042
26.2 0.00768
26.25 0.01273
26.3 0.01762
26.35 0.02077
26.4 0.02264
26.45 0.02324
26.5 0.01765
26.55 0.01397
26.6 0.00826
26.65 0.00248
26.7 0.00132
26.75 0.00385
26.8 0.00241
26.85 0.00337
26.9 0.00294
26.95 -0.00261
27 -0.00414
27.05 -0.00179
27.1 -0.00285
27.15 -0.00128
27.2 -0.00031
27.25 0.00342
27.3 0.00729
27.35 0.00686
27.4 0.00912
27.45 0.01008
27.5 0.00922
27.55 0.01154
27.6 0.01426
27.65 0.01717
27.7 0.02088
27.75 0.02366
27.8 0.02624
27.85 0.02519
27.9 0.02313
27.95 0.01993
28 0.01032
28.05 -0.00254
28.1 -0.01131
28.15 -0.02017
28.2 -0.02341
28.25 -0.03006
28.3 -0.0378
28.35 -0.04515
28.4 -0.04862
28.45 -0.04883
28.5 -0.04603
28.55 -0.04821
28.6 -0.05227
28.65 -0.0582
28.7 -0.05898
28.75 -0.06042
28.8 -0.06076
28.85 -0.06167
28.9 -0.05948
28.95 -0.05911
29 -0.06658
29.05 -0.07627
29.1 -0.08453
29.15 -0.09175
29.2 -0.10361
29.25 -0.11966
29.3 -0.1312
29.35 -0.1431
29.4 -0.15485
29.45 -0.1705
29.5 -0.18402
29.55 -0.19558
29.6 -0.20956
29.65 -0.22116
29.7 -0.23151
29.75 -0.23999
29.8 -0.24975
29.85 -0.25562
29.9 -0.26071
29.95 -0.2711
30 -0.27884
30.05 -0.28143
30.1 -0.28243
30.15 -0.28092
30.2 -0.28234
30.25 -0.27906
30.3 -0.27582
30.35 -0.26718
30.4 -0.25984
30.45 -0.25077
30.5 -0.24127
30.55 -0.22248
30.6 -0.19802
30.65 -0.17327
30.7 -0.15292
30.75 -0.13196
30.8 -0.11165
30.85 -0.08938
30.9 -0.06307
30.95 -0.03837
31 -0.01055
31.05 0.0149
31.1 0.03832
31.15 0.06428
31.2 0.08961
31.25 0.11306
31.3 0.13794
31.35 0.15839
31.4 0.17524
31.45 0.19252
31.5 0.20886
31.55 0.21913
31.6 0.22624
31.65 0.22649
31.7 0.22495
31.75 0.21934
31.8 0.21292
31.85 0.20605
31.9 0.19933
31.95 0.1926
32 0.19487
32.05 0.20048
32.1 0.20852
32.15 0.2149
32.2 0.22175
32.25 0.22408
32.3 0.22366
32.35 0.22567
32.4 0.22485
32.45 0.2261
32.5 0.22374
32.55 0.21906
32.6 0.21974
32.65 0.22322
32.7 0.22702
32.75 0.22696
32.8 0.2205
32.85 0.21464
32.9 0.21213
32.95 0.20964
33 0.20266
33.05 0.19685
33.1 0.19191
33.15 0.1907
33.2 0.18845
33.25 0.17984
33.3 0.17315
33.35 0.16787
33.4 0.15978
33.45 0.15015
33.5 0.13997
33.55 0.131
33.6 0.12156
33.65 0.11268
33.7 0.10714
33.75 0.09769
33.8 0.09292
33.85 0.08617
33.9 0.07783
33.95 0.06895
34 0.05961
34.05 0.04905
34.1 0.04607
34.15 0.04559
34.2 0.0416
34.25 0.03501
34.3 0.02786
34.35 0.02674
34.4 0.02438
34.45 0.0248
34.5 0.02458
34.55 0.01856
34.6 0.01485
34.65 0.00969
34.7 0.00891
34.75 0.00799
34.8 0.01034
34.85 0.01333
34.9 0.01087
34.95 0.00961
35 0.00499
35.05 0.00038
35.1 -0.00765
35.15 -0.01852
35.2 -0.02516
35.25 -0.0336
35.3 -0.04007
35.35 -0.04756
35.4 -0.0509
35.45 -0.04961
35.5 -0.04735
35.55 -0.04542
35.6 -0.03996
35.65 -0.03272
35.7 -0.02606
35.75 -0.02484
35.8 -0.02421
35.85 -0.02191
35.9 -0.01971
35.95 -0.01931
36 -0.02007
36.05 -0.01913
36.1 -0.02347
36.15 -0.02401
36.2 -0.0234
36.25 -0.02431
36.3 -0.03008
36.35 -0.03413
36.4 -0.03369
36.45 -0.03808
36.5 -0.04313
36.55 -0.04837
36.6 -0.04905
36.65 -0.04956
36.7 -0.04914
36.75 -0.04843
36.8 -0.04355
36.85 -0.03588
36.9 -0.03209
36.95 -0.02748
37 -0.02422
37.05 -0.02604
37.1 -0.02356
37.15 -0.02512
37.2 -0.0236
37.25 -0.02555
37.3 -0.02411
37.35 -0.02333
37.4 -0.02254
37.45 -0.02121
37.5 -0.02299
37.55 -0.02687
37.6 -0.02846
37.65 -0.02527
37.7 -0.02072
37.75 -0.0145
37.8 -0.01581
37.85 -0.01636
37.9 -0.0205
37.95 -0.02165
38 -0.02276
38.05 -0.02396
38.1 -0.02503
38.15 -0.02511
38.2 -0.0235
38.25 -0.02336
38.3 -0.02507
38.35 -0.02935
38.4 -0.02923
38.45 -0.02455
38.5 -0.01838
38.55 -0.01732
38.6 -0.02069
38.65 -0.02201
38.7 -0.02259
38.75 -0.02731
38.8 -0.02833
38.85 -0.02753
38.9 -0.02792
38.95 -0.02969
39 -0.02903
39.05 -0.0292
39.1 -0.02734
39.15 -0.02544
39.2 -0.02273
39.25 -0.01771
39.3 -0.0166
39.35 -0.0175
39.4 -0.01456
39.45 -0.01719
39.5 -0.01778
39.55 -0.01958
39.6 -0.01826
39.65 -0.01995
39.7 -0.01849
39.75 -0.02067
39.8 -0.02326
39.85 -0.02614
39.9 -0.02696
39.95 -0.02798
40 -0.03098
40.05 -0.03453
40.1 -0.03791
40.15 -0.03352
40.2 -0.03298
40.25 -0.02925
40.3 -0.02238
40.35 -0.01356
40.4 -0.00876
40.45 -0.00129
40.5 0.00194
40.55 0.00254
40.6 0.0032
40.65 0.00266
40.7 0.00181
40.75 -0.00042
40.8 -0.00343
40.85 -0.00381
40.9 -0.00775
40.95 -0.00794
41 -0.01035
41.05 -0.00939
41.1 -0.01123
41.15 -0.00776
41.2 -0.00582
41.25 -0.00115
41.3 0.00202
41.35 0.00065
41.4 0.00256
41.45 0.00426
41.5 0.00115
41.55 0.00242
41.6 0.00593
41.65 0.00309
41.7 0.00227
41.75 -0.00319
41.8 -0.0063
41.85 -0.00595
41.9 -0.00822
41.95 -0.00642
42 -0.00935
42.05 -0.00681
42.1 -0.00811
42.15 -0.00806
42.2 -0.01212
42.25 -0.01231
42.3 -0.00892
42.35 -0.00258
42.4 0.00229
42.45 0.0011
42.5 -0.00372
42.55 -0.00842
42.6 -0.01541
42.65 -0.02024
42.7 -0.02349
42.75 -0.02428
42.8 -0.0202
42.85 -0.02079
42.9 -0.01548
42.95 -0.00828
43 -0.0064
43.05 -0.00307
43.1 0.00347
43.15 0.00539
43.2 0.00561
43.25 0.00648
43.3 0.00466
43.35 0.00429
43.4 0.00254
43.45 -0.00065
43.5 -0.00327
43.55 -0.00733
43.6 -0.011
43.65 -0.00829
43.7 -0.00374
43.75 0.00196
43.8 0.00195
43.85 0.00086
43.9 0.00101
43.95 0.00315
44 0.00236
44.05 0.00554
44.1 0.00495
44.15 0.00519
44.2 0.00702
44.25 0.00971
44.3 0.01095
44.35 0.01264
44.4 0.00862
44.45 0.00054
44.5 -0.00335
44.55 -0.008
44.6 -0.00806
44.65 -0.00499
44.7 -0.00395
44.75 0.00063
44.8 -0.00011
44.85 -0.00316
44.9 -0.00545
44.95 -0.0063
45 -0.00701
45.05 -0.00976
45.1 -0.00769
45.15 -0.0094
45.2 -0.01332
45.25 -0.01652
45.3 -0.01851
45.35 -0.02057
45.4 -0.02314
45.45 -0.02445
45.5 -0.02337
45.55 -0.01831
45.6 -0.01678
45.65 -0.0162
45.7 -0.01282
45.75 -0.0061
45.8 0.00246
45.85 0.0048
45.9 0.00166
45.95 0.00333
46 0.00277
46.05 0.00494
46.1 0.00396
46.15 0.00286
46.2 0.00302
46.25 0.00095
46.3 -0.00428
46.35 -0.01013
46.4 -0.01036
46.45 -0.00566
46.5 -0.00522
46.55 -0.00891
46.6 -0.00866
46.65 -0.00847
46.7 -0.00837
46.75 -0.01121
46.8 -0.00985
46.85 -0.01066
46.9 -0.00583
46.95 0.00145
47 0.00606
47.05 0.01139
47.1 0.01378
47.15 0.01491
47.2 0.01658
47.25 0.0152
47.3 0.0087
47.35 0.0035
47.4 -0.00024
47.45 -0.00144
47.5 0.0016
47.55 0.00626
47.6 0.01294
47.65 0.01575
47.7 0.01421
47.75 0.00864
47.8 0.00737
47.85 0.00818
47.9 0.01093
47.95 0.01491
48 0.01937
48.05 0.01603
48.1 0.01399
48.15 0.00696
48.2 0.00006
48.25 -0.00883
48.3 -0.01065
48.35 -0.01253
48.4 -0.01666
48.45 -0.02114
48.5 -0.0187
48.55 -0.0177
48.6 -0.02033
48.65 -0.01882
48.7 -0.01563
48.75 -0.01332
48.8 -0.01358
48.85 -0.01141
48.9 -0.00527
48.95 0.00113
49 0.00715
49.05 0.00888
49.1 0.01371
49.15 0.01622
49.2 0.0172
49.25 0.0148
49.3 0.01109
49.35 0.00595
49.4 0.0047
49.45 0.00155
49.5 -0.00102
49.55 -0.00367
49.6 -0.00349
49.65 0.0012
49.7 0.00822
49.75 0.01231
49.8 0.01019
49.85 0.00757
49.9 0.00884
49.95 0.0125
50 0.01239
50.05 0.01174
50.1 0.014
50.15 0.01806
50.2 0.02215
50.25 0.02036
50.3 0.01541
50.35 0.00731
50.4 -0.00228
50.45 -0.01134
50.5 -0.021
50.55 -0.02154
50.6 -0.02386
50.65 -0.02132
50.7 -0.01514
50.75 -0.00983
50.8 -0.00745
50.85 -0.00884
50.9 -0.01141
50.95 -0.01448
51 -0.01593
51.05 -0.01752
51.1 -0.01988
51.15 -0.01753
51.2 -0.01141
51.25 -0.00834
51.3 -0.00307
51.35 -0.00211
51.4 -0.00486
51.45 -0.00251
51.5 0.00319
51.55 0.00414
51.6 0.00652
51.65 0.00863
51.7 0.0091
51.75 0.01003
51.8 0.00945
51.85 0.00994
51.9 0.01107
51.95 0.01322
52 0.01418
52.05 0.01433
52.1 0.01473
52.15 0.01444
52.2 0.01483
52.25 0.01325
52.3 0.01419
52.35 0.01307
52.4 0.00791
52.45 0.00411
52.5 -0.00138
52.55 -0.00479
52.6 -0.00285
52.65 -0.00422
52.7 -0.00807
52.75 -0.01203
52.8 -0.01821
52.85 -0.02515
52.9 -0.02461
52.95 -0.02492
53 -0.02337
53.05 -0.01606
53.1 -0.00744
53.15 -0.00597
53.2 -0.00573
53.25 -0.00597
53.3 -0.00829
53.35 -0.01109
53.4 -0.01046
53.45 -0.01068
53.5 -0.01107
53.55 -0.00674
53.6 -0.00282
53.65 0.00142
53.7 0.00649
53.75 0.01237
53.8 0.01563
53.85 0.01789
53.9 0.02104
53.95 0.02513
54 0.02652
54.05 0.02853
54.1 0.02824
54.15 0.02297
54.2 0.01627
54.25 0.01346
54.3 0.00691
54.35 -0.00198
54.4 -0.00428
54.45 -0.00952
54.5 -0.01595
54.55 -0.0197
54.6 -0.0196
54.65 -0.01521
54.7 -0.00766
54.75 -0.00626
54.8 -0.00176
54.85 -0.00118
54.9 0.00026
54.95 0.00208
55 -0.0007
55.05 -0.00096
55.1 -0.00538
55.15 -0.00679
55.2 -0.00732
55.25 -0.00537
55.3 -0.00229
55.35 -0.00186
55.4 -0.0012
55.45 0.00074
55.5 0.0035
55.55 0.00878
55.6 0.01226
55.65 0.00981
55.7 0.01098
55.75 0.0119
55.8 0.01533
55.85 0.01613
55.9 0.0159
55.95 0.01229
56 0.00705
56.05 0.00022
56.1 -0.00253
56.15 -0.00253
56.2 -0.00171
56.25 -0.00489
56.3 -0.00628
56.35 -0.00356
56.4 -0.00114
56.45 -0.00111
56.5 -0.00459
56.55 -0.0057
56.6 -0.01015
56.65 -0.01506
56.7 -0.02109
56.75 -0.02206
56.8 -0.02421
56.85 -0.02004
56.9 -0.01481
56.95 -0.01377
57 -0.01372
57.05 -0.01037
57.1 -0.00959
57.15 -0.0049
57.2 0.00085
57.25 0.00125
57.3 0.00151
57.35 -0.00315
57.4 -0.00869
57.45 -0.01611
57.5 -0.02403
57.55 -0.03173
57.6 -0.03819
57.65 -0.04356
57.7 -0.04162
57.75 -0.03532
57.8 -0.02556
57.85 -0.01478
57.9 -0.00585
57.95 0.00318
58 0.0102
58.05 0.01534
58.1 0.01626
58.15 0.01841
58.2 0.01671
58.25 0.01743
58.3 0.01562
58.35 0.0142
58.4 0.01474
58.45 0.00972
58.5 0.00368
58.55 -0.00447
58.6 -0.00761
58.65 -0.01152
58.7 -0.01047
58.75 -0.00699
58.8 -0.00242
58.85 -0.0015
58.9 0.00031
58.95 0.00231
59 0.00512
59.05 0.00382
59.1 0.00148
59.15 -0.00426
59.2 -0.01074
59.25 -0.01684
59.3 -0.02177
59.35 -0.02361
59.4 -0.02069
59.45 -0.01858
59.5 -0.01932
59.55 -0.02138
59.6 -0.01718
59.65 -0.00933
59.7 -0.00308
59.75 -0.00308
59.8 -0.00414
59.85 -0.00632
59.9 -0.00489
59.95 -0.00167
60 -0.00044
60.05 0.00004
60.1 0.00077
60.15 -0.00207
60.2 0.00057
60.25 0.00513
60.3 0.00389
60.35 0.00107
60.4 0.00135
60.45 0.00416
60.5 0.003
60.55 -0.00219
60.6 -0.0033
60.65 -0.0045
60.7 -0.00086
60.75 0.00077
60.8 -0.00067
60.85 -0.00473
60.9 -0.00978
60.95 -0.00862
61 -0.00946
61.05 -0.01102
61.1 -0.00912
61.15 -0.01102
61.2 -0.01476
61.25 -0.01973
61.3 -0.02296
61.35 -0.02425
61.4 -0.02018
61.45 -0.01162
61.5 -0.00146
61.55 0.00489
61.6 0.00772
61.65 0.00488
61.7 0.00318
61.75 0.00049
61.8 0.00187
61.85 -0.00046
61.9 -0.00138
61.95 -0.00492
62 -0.00371
62.05 -0.0051
62.1 -0.00483
62.15 -0.00059
62.2 0.00164
62.25 0.00386
62.3 0.00276
62.35 0.00231
62.4 0.00216
62.45 0.00456
62.5 0.0069
62.55 0.01123
62.6 0.01681
62.65 0.02371
62.7 0.02806
62.75 0.03201
62.8 0.03377
62.85 0.03647
62.9 0.03663
62.95 0.03129
63 0.02211
63.05 0.01743
63.1 0.01275
63.15 0.01269
63.2 0.01128
63.25 0.01311
63.3 0.00852
63.35 0.00578
63.4 0.0018
63.45 0.00094
63.5 0.00326
63.55 0.00181
63.6 0.00229
63.65 0.00098
63.7 0.00236
63.75 0.00163
63.8 -0.00201
63.85 -0.0079
63.9 -0.01131
63.95 -0.01618
64 -0.01896
64.05 -0.01944
64.1 -0.01532
64.15 -0.00717
64.2 -0.00109
64.25 0.00059
64.3 0.00424
64.35 0.00658
64.4 0.00639
64.45 0.00191
64.5 -0.0027
64.55 -0.00947
64.6 -0.00992
64.65 -0.00534
64.7 0.0015
64.75 0.00157
64.8 0.00363
64.85 0.00859
64.9 0.01477
64.95 0.0146
65 0.01045
65.05 0.01024
65.1 0.00805
65.15 0.00387
65.2 -0.00046
65.25 0.00088
65.3 0.0037
65.35 0.0064
65.4 0.00429
65.45 0.00449
65.5 0.00831
65.55 0.00687
65.6 0.00264
65.65 0.00037
65.7 -0.00105
65.75 -0.00263
65.8 -0.00501
65.85 -0.01024
65.9 -0.00924
65.95 -0.00698
66 -0.00679
66.05 -0.00396
66.1 -0.0052
66.15 -0.00349
66.2 -0.0053
66.25 -0.00421
66.3 -0.00533
66.35 -0.00898
66.4 -0.00649
66.45 -0.0027
66.5 -0.0039
66.55 -0.00861
66.6 -0.01309
66.65 -0.01794
66.7 -0.0184
66.75 -0.02101
66.8 -0.01904
66.85 -0.01883
66.9 -0.01994
66.95 -0.01504
67 -0.01482
67.05 -0.01324
67.1 -0.00769
67.15 -0.00711
67.2 -0.00922
67.25 -0.00722
67.3 -0.00716
67.35 -0.00966
67.4 -0.00773
67.45 -0.00586
67.5 -0.00699
67.55 -0.01109
67.6 -0.01426
67.65 -0.01592
67.7 -0.01235
67.75 -0.0073
67.8 0.00142
67.85 0.00957
67.9 0.01066
67.95 0.01353
68 0.01198
68.05 0.01164
68.1 0.01021
68.15 0.00942
68.2 0.00595
68.25 0.0079
68.3 0.01148
68.35 0.00986
68.4 0.00678
68.45 0.00876
68.5 0.0055
68.55 -0.00083
68.6 -0.0073
68.65 -0.0115
68.7 -0.01488
68.75 -0.01819
68.8 -0.01893
68.85 -0.01421
68.9 -0.01301
68.95 -0.01498
69 -0.01888
69.05 -0.01628
69.1 -0.01335
69.15 -0.0085
69.2 -0.00521
69.25 -0.00478
69.3 0.0005
69.35 0.00818
69.4 0.01105
69.45 0.00776
69.5 0.00771
69.55 0.00296
69.6 0.00371
69.65 0.00512
69.7 0.00304
69.75 0.00397
69.8 0.00707
69.85 0.00674
69.9 0.01043
69.95 0.01435
70 0.02006
70.05 0.02541
70.1 0.02419
70.15 0.02184
70.2 0.01435
70.25 0.01153
70.3 0.00993
70.35 0.00846
70.4 0.00245
70.45 -0.00584
70.5 -0.00914
70.55 -0.00666
70.6 -0.00164
70.65 -0.00003
70.7 0.00367
70.75 0.00685
70.8 0.01023
70.85 0.00879
70.9 0.00527
70.95 0.00545
71 0.00302
71.05 0.00444
71.1 0.00378
71.15 0.00348
71.2 0.00351
71.25 0.00162
71.3 -0.00023
71.35 -0.00406
71.4 -0.00433
71.45 -0.00141
71.5 -0.00334
71.55 -0.00117
71.6 0.00068
71.65 0.00431
71.7 0.00286
71.75 -0.00034
71.8 -0.00285
71.85 -0.00383
71.9 -0.00082
71.95 0.00254
72 -0.00005
72.05 0.00226
72.1 0.00751
72.15 0.01449
72.2 0.02173
72.25 0.02417
72.3 0.02118
72.35 0.0143
72.4 0.00705
72.45 0.0056
72.5 0.00119
72.55 -0.00346
72.6 -0.00827
72.65 -0.00896
72.7 -0.01245
72.75 -0.01453
72.8 -0.01514
72.85 -0.01413
72.9 -0.00769
72.95 0.00106
73 0.00655
73.05 0.00705
73.1 0.00804
73.15 0.00993
73.2 0.00744
73.25 0.00694
73.3 0.00338
73.35 -0.00216
73.4 -0.00323
73.45 -0.00063
73.5 0.0019
73.55 -0.00115
73.6 0.00082
73.65 0.00022
73.7 -0.00285
73.75 -0.00671
73.8 -0.00621
73.85 -0.00664
73.9 -0.01032
73.95 -0.00964
74 -0.00564
74.05 -0.00595
74.1 -0.0067
74.15 -0.00819
74.2 -0.00784
74.25 -0.00419
74.3 -0.00187
74.35 0.00308
74.4 0.00237
74.45 0.00623
74.5 0.00767
74.55 0.01154
74.6 0.01007
74.65 0.00381
74.7 -0.00264
74.75 -0.00602
74.8 -0.01229
74.85 -0.01436
74.9 -0.01835
74.95 -0.01846
75 -0.01463
75.05 -0.0072
75.1 0.00248
75.15 0.00795
75.2 0.01315
75.25 0.01901
75.3 0.0213
75.35 0.0254
75.4 0.02499
75.45 0.02426
75.5 0.01757
75.55 0.00916
75.6 0.0034
75.65 -0.00159
75.7 -0.00919
75.75 -0.01224
75.8 -0.01034
75.85 -0.01095
75.9 -0.00591
75.95 -0.00327
76 -0.00452
76.05 -0.00923
76.1 -0.01225
76.15 -0.01745
76.2 -0.02248
76.25 -0.01955
76.3 -0.01392
76.35 -0.0108
76.4 -0.01088
76.45 -0.00788
76.5 -0.00842
76.55 -0.01152
76.6 -0.01699
76.65 -0.01895
76.7 -0.01485
76.75 -0.00865
76.8 -0.00347
76.85 -0.00173
76.9 -0.00033
76.95 0.00498
77 0.00744
77.05 0.00558
77.1 0.00873
77.15 0.00992
77.2 0.01172
77.25 0.01463
77.3 0.01827
77.35 0.01812
77.4 0.01314
77.45 0.00544
77.5 -0.00294
77.55 -0.01104
77.6 -0.0156
77.65 -0.01971
77.7 -0.02354
77.75 -0.02261
77.8 -0.01919
77.85 -0.01579
77.9 -0.01562
77.95 -0.0096
78 -0.00481
78.05 -0.00507
78.1 -0.00355
78.15 -0.00009
78.2 0.00196
78.25 0.00614
78.3 0.00991
78.35 0.01397
78.4 0.01135
78.45 0.00786
78.5 0.00718
78.55 0.00817
78.6 0.01027
78.65 0.01036
78.7 0.01119
78.75 0.00754
78.8 0.00094
78.85 -0.00674
78.9 -0.00964
78.95 -0.00645
79 -0.00622
79.05 -0.00757
79.1 -0.00749
79.15 -0.00644
79.2 -0.00585
79.25 -0.008
79.3 -0.00905
79.35 -0.00683
79.4 -0.0012
79.45 0.00485
79.5 0.00739
79.55 0.01162
79.6 0.01811
79.65 0.01751
79.7 0.01521
79.75 0.00795
79.8 0.00036
79.85 -0.00327
79.9 -0.00362
79.95 -0.00288
80 0.00033
80.05 0.00608
80.1 0.00513
80.15 0.00382
80.2 0.0039
80.25 0.00661
80.3 0.01082
80.35 0.01396
80.4 0.0164
80.45 0.01479
80.5 0.00987
80.55 0.00689
80.6 0.0084
80.65 0.01153
80.7 0.00864
80.75 0.00978
80.8 0.01109
80.85 0.01383
80.9 0.01343
80.95 0.01488
81 0.01376
81.05 0.01234
81.1 0.01455
81.15 0.01236
81.2 0.01307
81.25 0.01578
81.3 0.01905
81.35 0.02229
81.4 0.02428
81.45 0.02524
81.5 0.02341
81.55 0.02436
81.6 0.01909
81.65 0.01028
81.7 0.0021
81.75 -0.00268
81.8 -0.00718
81.85 -0.00893
81.9 -0.00875
81.95 -0.00812
82 -0.00358
82.05 0.00329
82.1 0.00343
82.15 0.00694
82.2 0.01077
82.25 0.01022
82.3 0.00426
82.35 0.00349
82.4 0.00537
82.45 0.00914
82.5 0.00643
82.55 -0.00038
82.6 -0.00355
82.65 -0.00166
82.7 0.00212
82.75 0.00479
82.8 0.00637
82.85 0.00172
82.9 0.00134
82.95 -0.00332
83 -0.00265
83.05 -0.00229
83.1 -0.00559
83.15 -0.01001
83.2 -0.01666
83.25 -0.02401
83.3 -0.02761
83.35 -0.02996
83.4 -0.02804
83.45 -0.02435
83.5 -0.02406
83.55 -0.01809
83.6 -0.01115
83.65 -0.00895
83.7 -0.01103
83.75 -0.01437
83.8 -0.01934
83.85 -0.02528
83.9 -0.02632
83.95 -0.02331
84 -0.01722
84.05 -0.01257
84.1 -0.00531
84.15 -0.00191
84.2 -0.00144
84.25 -0.00327
84.3 -0.00318
84.35 -0.00489
84.4 -0.00627
84.45 -0.00764
84.5 -0.01065
84.55 -0.0089
84.6 -0.00289
84.65 0.00553
84.7 0.01112
84.75 0.00938
84.8 0.00799
84.85 0.00765
84.9 0.00412
84.95 -0.00073
85 -0.00353
85.05 -0.00467
85.1 -0.00826
85.15 -0.01023
85.2 -0.0122
85.25 -0.00898
85.3 -0.00754
85.35 -0.00142
85.4 -0.00168
85.45 -0.00261
85.5 -0.00642
85.55 -0.00895
85.6 -0.00787
85.65 -0.00256
85.7 -0.00097
85.75 0.00301
85.8 0.00837
85.85 0.01228
85.9 0.01077
85.95 0.00686
86 -0.0004
86.05 -0.00123
86.1 -0.00205
86.15 -0.00341
86.2 0.00032
86.25 0.00435
86.3 0.00638
86.35 0.00814
86.4 0.01195
86.45 0.0115
86.5 0.00684
86.55 -0.00072
86.6 -0.0043
86.65 -0.00584
86.7 -0.00612
86.75 -0.00937
86.8 -0.0079
86.85 -0.00305
86.9 0.00153
86.95 0.00167
87 -0.00083
87.05 0.00043
87.1 0.00277
87.15 0.00294
87.2 -0.00087
87.25 -0.00536
87.3 -0.0111
87.35 -0.01161
87.4 -0.01298
87.45 -0.01328
87.5 -0.0145
87.55 -0.01187
87.6 -0.00976
87.65 -0.00923
87.7 -0.00921
87.75 -0.01014
87.8 -0.01289
87.85 -0.01478
87.9 -0.01614
87.95 -0.01649
88 -0.01455
88.05 -0.0087
88.1 -0.00034
88.15 0.0043
88.2 0.00658
88.25 0.01083
88.3 0.00991
88.35 0.01022
88.4 0.00863
88.45 0.0085
88.5 0.01179
88.55 0.0112
88.6 0.00841
88.65 0.00734
88.7 0.00592
88.75 0.00767
88.8 0.00672
88.85 0.00427
88.9 0.00498
88.95 0.00425
89 0.00151
89.05 -0.00289
89.1 -0.00572
89.15 -0.00324
89.2 -0.00517
89.25 -0.00494
89.3 -0.00409
89.35 -0.00044
89.4 -0.00132
89.45 -0.00273
89.5 -0.00201
89.55 -0.00023
89.6 -0.00276
89.65 -0.0049
89.7 -0.00685
89.75 -0.00525
89.8 -0.0081
89.85 -0.00941
89.9 -0.0055
89.95 -0.00573
90 -0.00617
90.05 -0.00755
90.1 -0.0046
90.15 -0.00123
90.2 0.00572
90.25 0.01039
90.3 0.01669
90.35 0.01894
90.4 0.02213
90.45 0.02391
90.5 0.02429
90.55 0.02194
90.6 0.01666
90.65 0.01375
90.7 0.01019
90.75 0.0052
90.8 0.0008
90.85 -0.00312
90.9 -0.00845
90.95 -0.0066
91 -0.00529
91.05 -0.00118
91.1 0.00146
91.15 0.00134
91.2 0.00113
91.25 0.00368
91.3 0.00762
91.35 0.00643
91.4 0.00822
91.45 0.0126
91.5 0.0108
91.55 0.00996
91.6 0.00647
91.65 0.00339
91.7 -0.00319
91.75 -0.0108
91.8 -0.01825
91.85 -0.0261
91.9 -0.02631
91.95 -0.02012
92 -0.0143
92.05 -0.01183
92.1 -0.01337
92.15 -0.01555
92.2 -0.01948
92.25 -0.02348
92.3 -0.02465
92.35 -0.02678
92.4 -0.02631
92.45 -0.02157
92.5 -0.01755
92.55 -0.01561
92.6 -0.01309
92.65 -0.01098
92.7 -0.00984
92.75 -0.00707
92.8 -0.00524
92.85 -0.0072
92.9 -0.01083
92.95 -0.01042
93 -0.0049
93.05 -0.00362
93.1 -0.00658
93.15 -0.00893
93.2 -0.00614
93.25 -0.00049
93.3 0.00003
93.35 -0.0001
93.4 -0.00152
93.45 0.00222
93.5 0.00421
93.55 0.00917
93.6 0.00989
93.65 0.01291
93.7 0.01306
93.75 0.0154
93.8 0.01636
93.85 0.02032
93.9 0.02483
93.95 0.02906
94 0.03085
94.05 0.02514
94.1 0.0191
94.15 0.01531
94.2 0.01071
94.25 0.00331
94.3 -0.00605
94.35 -0.01584
94.4 -0.023
94.45 -0.02732
94.5 -0.02378
94.55 -0.02176
94.6 -0.0202
94.65 -0.0148
94.7 -0.0068
94.75 0.00216
94.8 0.01085
94.85 0.01664
94.9 0.01864
94.95 0.02161
95 0.0217
95.05 0.02407
95.1 0.02539
95.15 0.02713
95.2 0.02992
95.25 0.02754
95.3 0.02132
95.35 0.01789
95.4 0.01615
95.45 0.01392
95.5 0.01106
95.55 0.00605
95.6 -0.00023
95.65 -0.00558
95.7 -0.00943
95.75 -0.00723
95.8 -0.00415
95.85 -0.0007
95.9 0.00591
95.95 0.00849
96 0.01129
96.05 0.01298
96.1 0.00814
96.15 0.0072
96.2 0.00639
96.25 0.00398
96.3 0.00205
96.35 0.00121
96.4 0.00225
96.45 0.00316
96.5 0.00312
96.55 0.0067
96.6 0.01202
96.65 0.01275
96.7 0.01274
96.75 0.0119
96.8 0.00784
96.85 0.00378
96.9 -0.00336
96.95 -0.00855
97 -0.00705
97.05 -0.00837
97.1 -0.00987
97.15 -0.00994
97.2 -0.00955
97.25 -0.00474
97.3 -0.00592
97.35 -0.00742
97.4 -0.00923
97.45 -0.01041
97.5 -0.00654
97.55 -0.00154
97.6 0.00221
97.65 0.00445
97.7 0.00871
97.75 0.01457
97.8 0.01919
97.85 0.01981
97.9 0.01826
97.95 0.01809
98 0.01837
98.05 0.01239
98.1 0.0053
98.15 -0.0028
98.2 -0.00902
98.25 -0.0083
98.3 -0.00626
98.35 -0.0016
98.4 0.00065
98.45 0.00306
98.5 -0.0007
98.55 -0.00249
98.6 -0.00282
98.65 -0.00026
98.7 0.00209
98.75 0.00419
98.8 0.00427
98.85 0.00625
98.9 0.00977
98.95 0.00948
99 0.00687
99.05 0.00667
99.1 0.00538
99.15 0.0036
99.2 0.00211
99.25 0.00064
99.3 -0.00504
99.35 -0.00426
99.4 -0.00301
99.45 -0.00484
99.5 -0.00281
99.55 -0.00289
99.6 -0.0054
99.65 -0.00886
99.7 -0.01299
99.75 -0.01111
99.8 -0.00758
99.85 -0.00381
99.9 -0.00501
99.95 -0.00855
