0 0
0.05 0.00146
0.1 0.00392
0.15 0.0071
0.2 0.0099
0.25 0.01161
0.3 0.0118
0.35 0.01299
0.4 0.01389
0.45 0.01321
0.5 0.01336
0.55 0.01227
0.6 0.01245
0.65 0.01297
0.7 0.01418
0.75 0.0139
0.8 0.01264
0.85 0.01097
0.9 0.0104
0.95 0.01024
1 0.01024
1.05 0.01018
1.1 0.01069
1.15 0.01148
1.2 0.01228
1.25 0.01325
1.3 0.01282
1.35 0.01225
1.4 0.01153
1.45 0.01005
1.5 0.00797
1.55 0.0074
1.6 0.00631
1.65 0.00633
1.7 0.00554
1.75 0.00562
1.8 0.00569
1.85 0.00702
1.9 0.00817
1.95 0.00792
2 0.00732
2.05 0.00798
2.1 0.00893
2.15 0.00966
2.2 0.00888
2.25 0.00716
2.3 0.00593
2.35 0.00415
2.4 0.00383
2.45 0.00331
2.5 0.00219
2.55 0.00248
2.6 0.00333
2.65 0.0037
2.7 0.00501
2.75 0.00684
2.8 0.00737
2.85 0.00802
2.9 0.0083
2.95 0.00817
3 0.00679
3.05 0.0059
3.1 0.00502
3.15 0.00564
3.2 0.00551
3.25 0.00514
3.3 0.00589
3.35 0.00741
3.4 0.0081
3.45 0.00779
3.5 0.00784
3.55 0.0073
3.6 0.0066
3.65 0.00702
3.7 0.00726
3.75 0.00758
3.8 0.00759
3.85 0.00729
3.9 0.00789
3.95 0.00787
4 0.00748
4.05 0.00643
4.1 0.00605
4.15 0.00607
4.2 0.00649
4.25 0.00635
4.3 0.00673
4.35 0.00785
4.4 0.0083
4.45 0.0079
4.5 0.00722
4.55 0.00755
4.6 0.008
4.65 0.00794
4.7 0.00662
4.75 0.0057
4.8 0.00426
4.85 0.00373
4.9 0.00334
4.95 0.00263
5 0.00209
5.05 0.00293
5.1 0.00417
5.15 0.00525
5.2 0.0068
5.25 0.00814
5.3 0.00897
5.35 0.00869
5.4 0.00763
5.45 0.00652
5.5 0.00554
5.55 0.00381
5.6 0.00234
5.65 0.00019
5.7 -0.0011
5.75 -0.00071
5.8 -0.00043
5.85 0.00053
5.9 0.00158
5.95 0.00188
6 0.00241
6.05 0.00287
6.1 0.00219
6.15 0.00059
6.2 -0.00072
6.25 -0.00204
6.3 -0.0023
6.35 -0.00261
6.4 -0.00244
6.45 -0.00314
6.5 -0.00302
6.55 -0.00348
6.6 -0.00437
6.65 -0.00495
6.7 -0.00418
6.75 -0.00399
6.8 -0.00317
6.85 -0.00236
6.9 -0.00112
6.95 -0.00084
7 -0.00154
7.05 -0.0014
7.1 -0.00068
7.15 -0.00028
7.2 -0.00037
7.25 -0.00117
7.3 -0.00193
7.35 -0.00167
7.4 -0.0016
7.45 -0.0005
7.5 -0.00065
7.55 0.00014
7.6 -0.00024
7.65 -0.00016
7.7 0.00032
7.75 0.00004
7.8 0.00058
7.85 0.00058
7.9 0.00062
7.95 0.0019
8 0.00279
8.05 0.00444
8.1 0.00621
8.15 0.00584
8.2 0.00531
8.25 0.00524
8.3 0.00432
8.35 0.0037
8.4 0.00314
8.45 0.00307
8.5 0.00256
8.55 0.00319
8.6 0.00302
8.65 0.00276
8.7 0.00282
8.75 0.00189
8.8 0.00127
8.85 0.00162
8.9 0.00228
8.95 0.00199
9 0.00172
9.05 0.00235
9.1 0.00251
9.15 0.0031
9.2 0.00261
9.25 0.00283
9.3 0.00167
9.35 0.00102
9.4 0.00098
9.45 0.00015
9.5 -0.00038
9.55 0.0001
9.6 0.00084
9.65 0.00248
9.7 0.00416
9.75 0.00448
9.8 0.0047
9.85 0.00563
9.9 0.00487
9.95 0.00367
10 0.00285
10.05 0.00246
10.1 0.00288
10.15 0.00197
10.2 0.00186
10.25 0.00241
10.3 0.00239
10.35 0.00146
10.4 0.00174
10.45 0.0009
10.5 -0.00087
10.55 -0.00164
10.6 -0.00283
10.65 -0.00359
10.7 -0.00323
10.75 -0.00353
10.8 -0.00393
10.85 -0.00281
10.9 -0.00304
10.95 -0.00319
11 -0.00226
11.05 -0.00209
11.1 -0.0018
11.15 -0.00091
11.2 -0.00068
11.25 0.00064
11.3 0.00242
11.35 0.00433
11.4 0.00452
11.45 0.00501
11.5 0.00449
11.55 0.00431
11.6 0.00466
11.65 0.0039
11.7 0.00211
11.75 0.00121
11.8 -0.00038
11.85 -0.00237
11.9 -0.00261
11.95 -0.00183
12 -0.00164
12.05 -0.00231
12.1 -0.00281
12.15 -0.00337
12.2 -0.00345
12.25 -0.00223
12.3 -0.00237
12.35 -0.00119
12.4 -0.00092
12.45 0.00013
12.5 0.00186
12.55 0.00331
12.6 0.00469
12.65 0.00492
12.7 0.00472
12.75 0.00526
12.8 0.00453
12.85 0.00283
12.9 0.00149
12.95 0.00158
13 0.00127
13.05 0.00107
13.1 0.00082
13.15 -0.00048
13.2 -0.00243
13.25 -0.00248
13.3 -0.00324
13.35 -0.00354
13.4 -0.00386
13.45 -0.00307
13.5 -0.00247
13.55 -0.00294
13.6 -0.00287
13.65 -0.00298
13.7 -0.00344
13.75 -0.00329
13.8 -0.00208
13.85 -0.00063
13.9 0.00147
13.95 0.00183
14 0.00111
14.05 0.00166
14.1 0.00266
14.15 0.00261
14.2 0.00317
14.25 0.00398
14.3 0.00345
14.35 0.00363
14.4 0.00267
14.45 0.00169
14.5 0.00212
14.55 0.0025
14.6 0.00267
14.65 0.00289
14.7 0.00319
14.75 0.00361
14.8 0.00381
14.85 0.00366
14.9 0.00296
14.95 0.00291
15 0.00247
15.05 0.00259
15.1 0.00249
15.15 0.00191
15.2 0.00185
15.25 0.0022
15.3 0.00332
15.35 0.00412
15.4 0.00316
15.45 0.00164
15.5 0.00104
15.55 -0.00005
15.6 -0.00035
15.65 0.00051
15.7 0.00033
15.75 0.00109
15.8 0.00075
15.85 0.00139
15.9 0.00131
15.95 -0.0001
16 -0.00058
16.05 -0.0005
16.1 -0.00148
16.15 -0.00312
16.2 -0.0047
16.25 -0.00548
16.3 -0.0062
16.35 -0.00562
16.4 -0.00374
16.45 -0.00174
16.5 -0.00047
16.55 -0.00058
16.6 -0.0016
16.65 -0.0011
16.7 -0.0007
16.75 -0.00113
16.8 -0.00097
16.85 -0.00019
16.9 0.00133
16.95 0.00268
17 0.00246
17.05 0.00235
17.1 0.00312
17.15 0.00394
17.2 0.0052
17.25 0.00567
17.3 0.00585
17.35 0.00563
17.4 0.00491
17.45 0.00466
17.5 0.00294
17.55 0.00199
17.6 0.00069
17.65 -0.00063
17.7 -0.00205
17.75 -0.00252
17.8 -0.00318
17.85 -0.00381
17.9 -0.00479
17.95 -0.00597
18 -0.00588
18.05 -0.00571
18.1 -0.00449
18.15 -0.00384
18.2 -0.00205
18.25 -0.00182
18.3 -0.00206
18.35 -0.0011
18.4 -0.00012
18.45 0.00046
18.5 0.00083
18.55 0.00041
18.6 -0.00062
18.65 -0.00231
18.7 -0.00376
18.75 -0.00362
18.8 -0.00316
18.85 -0.00212
18.9 -0.00042
18.95 0.0007
19 0.00119
19.05 0.00142
19.1 0.00149
19.15 0.00084
19.2 0.00115
19.25 0.00147
19.3 0.00214
19.35 0.00234
19.4 0.00293
19.45 0.00188
19.5 0.00079
19.55 -0.00056
19.6 -0.00176
19.65 -0.00296
19.7 -0.00259
19.75 -0.00136
19.8 -0.00027
19.85 -0.00065
19.9 -0.0017
19.95 -0.00322
20 -0.0042
20.05 -0.00487
20.1 -0.00438
20.15 -0.00329
20.2 -0.00244
20.25 -0.00258
20.3 -0.00201
20.35 -0.00179
20.4 -0.00089
20.45 0.00059
20.5 0.00191
20.55 0.00341
20.6 0.00454
20.65 0.00384
20.7 0.00381
20.75 0.00271
20.8 0.00292
20.85 0.00227
20.9 0.00144
20.95 0.00016
21 -0.0011
21.05 -0.00266
21.1 -0.00291
21.15 -0.0028
21.2 -0.00263
21.25 -0.00304
21.3 -0.00256
21.35 -0.00246
21.4 -0.00195
21.45 -0.00219
21.5 -0.00156
21.55 -0.00204
21.6 -0.00258
21.65 -0.00203
21.7 -0.00114
21.75 -0.00081
21.8 -0.00004
21.85 0.00119
21.9 0.00233
21.95 0.00272
22 0.00209
22.05 0.00174
22.1 0.0003
22.15 0.00039
22.2 0.00008
22.25 -0.00064
22.3 -0.00162
22.35 -0.00324
22.4 -0.00472
22.45 -0.00525
22.5 -0.00594
22.55 -0.00698
22.6 -0.00747
22.65 -0.00798
22.7 -0.00746
22.75 -0.00724
22.8 -0.00649
22.85 -0.00635
22.9 -0.00625
22.95 -0.00563
23 -0.00384
23.05 -0.00125
23.1 0.00029
23.15 0.00148
23.2 0.00104
23.25 0.00054
23.3 0.00067
23.35 0.0007
23.4 -0.00046
23.45 -0.00002
23.5 0.00149
23.55 0.00278
23.6 0.00392
23.65 0.00466
23.7 0.00427
23.75 0.00439
23.8 0.00295
23.85 0.00099
23.9 -0.00023
23.95 -0.00006
24 0.00091
24.05 0.00079
24.1 0.00076
24.15 0.00132
24.2 0.00074
24.25 -0.00027
24.3 -0.00134
24.35 -0.00159
24.4 -0.00182
24.45 -0.00146
24.5 -0.00121
24.55 -0.00204
24.6 -0.00328
24.65 -0.00333
24.7 -0.00298
24.75 -0.00213
24.8 -0.0004
24.85 0.00024
24.9 0.00043
24.95 0.00122
25 0.00158
25.05 0.00055
25.1 -0.00074
25.15 -0.00023
25.2 -0.00098
25.25 -0.00081
25.3 -0.00076
25.35 -0.00008
25.4 0.00109
25.45 0.00131
25.5 0.00163
25.55 0.00259
25.6 0.00289
25.65 0.00207
25.7 0.00113
25.75 0.00061
25.8 0.00072
25.85 0.00171
25.9 0.00271
25.95 0.00365
26 0.00347
26.05 0.00384
26.1 0.00308
26.15 0.0015
26.2 0.00122
26.25 0.0021
26.3 0.00278
26.35 0.00411
26.4 0.00406
26.45 0.00346
26.5 0.00217
26.55 0.00177
26.6 0.00124
26.65 -0.00028
26.7 -0.00183
26.75 -0.00175
26.8 -0.00154
26.85 -0.0021
26.9 -0.00309
26.95 -0.00376
27 -0.00272
27.05 -0.00103
27.1 -0.00021
27.15 -0.00072
27.2 -0.00119
27.25 -0.00235
27.3 -0.00387
27.35 -0.00421
27.4 -0.00492
27.45 -0.00547
27.5 -0.00492
27.55 -0.00415
27.6 -0.00373
27.65 -0.00405
27.7 -0.00275
27.75 -0.00059
27.8 0.00043
27.85 0.00222
27.9 0.00224
27.95 0.00176
28 0.00154
28.05 0.00159
28.1 0.00057
28.15 -0.00119
28.2 -0.00104
28.25 0.00015
28.3 0.00035
28.35 0.00035
28.4 0.00019
28.45 -0.00013
28.5 0.00019
28.55 0.001
28.6 0.00158
28.65 0.00092
28.7 -0.00099
28.75 -0.00233
28.8 -0.00299
28.85 -0.00488
28.9 -0.0061
28.95 -0.00853
29 -0.00985
29.05 -0.01251
29.1 -0.0162
29.15 -0.02099
29.2 -0.02469
29.25 -0.02844
29.3 -0.03389
29.35 -0.04017
29.4 -0.04596
29.45 -0.0518
29.5 -0.05907
29.55 -0.06857
29.6 -0.07902
29.65 -0.09139
29.7 -0.10649
29.75 -0.12206
29.8 -0.14053
29.85 -0.16071
29.9 -0.1828
29.95 -0.20802
30 -0.23379
30.05 -0.26056
30.1 -0.29025
30.15 -0.32263
30.2 -0.35564
30.25 -0.38874
30.3 -0.42308
30.35 -0.45939
30.4 -0.49598
30.45 -0.5322
30.5 -0.56707
30.55 -0.60105
30.6 -0.63493
30.65 -0.66768
30.7 -0.69746
30.75 -0.72326
30.8 -0.74458
30.85 -0.76185
30.9 -0.77394
30.95 -0.78288
31 -0.78626
31.05 -0.7847
31.1 -0.7766
31.15 -0.76313
31.2 -0.74421
31.25 -0.72034
31.3 -0.69025
31.35 -0.65393
31.4 -0.61189
31.45 -0.56641
31.5 -0.51731
31.55 -0.46537
31.6 -0.40941
31.65 -0.35205
31.7 -0.29149
31.75 -0.22966
31.8 -0.16755
31.85 -0.10706
31.9 -0.04691
31.95 0.00964
32 0.06395
32.05 0.11606
32.1 0.16627
32.15 0.21239
32.2 0.25545
32.25 0.29454
32.3 0.32997
32.35 0.36142
32.4 0.38964
32.45 0.41355
32.5 0.43531
32.55 0.45299
32.6 0.4674
32.65 0.4804
32.7 0.49173
32.75 0.50195
32.8 0.5109
32.85 0.51839
32.9 0.52489
32.95 0.53061
33 0.53646
33.05 0.54039
33.1 0.54316
33.15 0.54654
33.2 0.54987
33.25 0.55319
33.3 0.55501
33.35 0.55715
33.4 0.55947
33.45 0.56147
33.5 0.56175
33.55 0.56117
33.6 0.55975
33.65 0.55815
33.7 0.55648
33.75 0.55286
33.8 0.54922
33.85 0.5447
33.9 0.53837
33.95 0.53193
34 0.52594
34.05 0.51869
34.1 0.51097
34.15 0.50157
34.2 0.4919
34.25 0.48113
34.3 0.47063
34.35 0.45929
34.4 0.44929
34.45 0.44007
34.5 0.42927
34.55 0.41913
34.6 0.40813
34.65 0.39558
34.7 0.38263
34.75 0.36977
34.8 0.35809
34.85 0.34588
34.9 0.33454
34.95 0.32275
35 0.31096
35.05 0.2984
35.1 0.28614
35.15 0.27281
35.2 0.25875
35.25 0.24663
35.3 0.23544
35.35 0.22394
35.4 0.2133
35.45 0.20257
35.5 0.19242
35.55 0.18182
35.6 0.17059
35.65 0.15853
35.7 0.14797
35.75 0.13687
35.8 0.12675
35.85 0.11634
35.9 0.10605
35.95 0.09701
36 0.08782
36.05 0.08007
36.1 0.07201
36.15 0.06315
36.2 0.05563
36.25 0.04732
36.3 0.03949
36.35 0.03175
36.4 0.02347
36.45 0.01639
36.5 0.00961
36.55 0.00355
36.6 -0.00347
36.65 -0.00991
36.7 -0.01485
36.75 -0.02075
36.8 -0.02742
36.85 -0.03326
36.9 -0.03956
36.95 -0.04577
37 -0.05026
37.05 -0.05391
37.1 -0.05763
37.15 -0.06222
37.2 -0.06544
37.25 -0.06929
37.3 -0.07284
37.35 -0.07632
37.4 -0.07951
37.45 -0.08155
37.5 -0.0825
37.55 -0.08321
37.6 -0.0838
37.65 -0.08429
37.7 -0.08612
37.75 -0.08779
37.8 -0.08835
37.85 -0.08999
37.9 -0.09064
37.95 -0.09266
38 -0.09327
38.05 -0.09354
38.1 -0.09392
38.15 -0.09517
38.2 -0.09577
38.25 -0.09736
38.3 -0.09935
38.35 -0.10145
38.4 -0.10175
38.45 -0.10251
38.5 -0.10137
38.55 -0.09907
38.6 -0.09829
38.65 -0.09704
38.7 -0.09579
38.75 -0.09375
38.8 -0.09225
38.85 -0.0911
38.9 -0.08923
38.95 -0.08869
39 -0.08851
39.05 -0.08821
39.1 -0.08825
39.15 -0.08765
39.2 -0.08636
39.25 -0.08579
39.3 -0.08435
39.35 -0.08351
39.4 -0.08368
39.45 -0.08355
39.5 -0.08333
39.55 -0.08245
39.6 -0.08049
39.65 -0.07756
39.7 -0.07553
39.75 -0.07507
39.8 -0.0738
39.85 -0.07285
39.9 -0.07292
39.95 -0.07354
40 -0.07444
40.05 -0.0741
40.1 -0.07297
40.15 -0.07196
40.2 -0.07043
40.25 -0.06776
40.3 -0.06458
40.35 -0.06297
40.4 -0.06248
40.45 -0.06163
40.5 -0.06064
40.55 -0.06031
40.6 -0.05843
40.65 -0.05738
40.7 -0.05518
40.75 -0.05238
40.8 -0.04954
40.85 -0.04808
40.9 -0.04772
40.95 -0.04738
41 -0.0484
41.05 -0.04996
41.1 -0.04996
41.15 -0.04873
41.2 -0.048
41.25 -0.04625
41.3 -0.04472
41.35 -0.04299
41.4 -0.04108
41.45 -0.0402
41.5 -0.03998
41.55 -0.04104
41.6 -0.04233
41.65 -0.04246
41.7 -0.04293
41.75 -0.04223
41.8 -0.04178
41.85 -0.0403
41.9 -0.03865
41.95 -0.0381
42 -0.03677
42.05 -0.03676
42.1 -0.03716
42.15 -0.03624
42.2 -0.03638
42.25 -0.03728
42.3 -0.03692
42.35 -0.0356
42.4 -0.03508
42.45 -0.03465
42.5 -0.03329
42.55 -0.03238
42.6 -0.03234
42.65 -0.03153
42.7 -0.03171
42.75 -0.03105
42.8 -0.03048
42.85 -0.02863
42.9 -0.02683
42.95 -0.02513
43 -0.02312
43.05 -0.02108
43.1 -0.02051
43.15 -0.02137
43.2 -0.02254
43.25 -0.02274
43.3 -0.0237
43.35 -0.02481
43.4 -0.02558
43.45 -0.02602
43.5 -0.02625
43.55 -0.02714
43.6 -0.0265
43.65 -0.02659
43.7 -0.02701
43.75 -0.02735
43.8 -0.02582
43.85 -0.0254
43.9 -0.02496
43.95 -0.02384
44 -0.02188
44.05 -0.02149
44.1 -0.02149
44.15 -0.02138
44.2 -0.02205
44.25 -0.0228
44.3 -0.02251
44.35 -0.02091
44.4 -0.01826
44.45 -0.01616
44.5 -0.01494
44.55 -0.01491
44.6 -0.01501
44.65 -0.01592
44.7 -0.01562
44.75 -0.01587
44.8 -0.01599
44.85 -0.01593
44.9 -0.01635
44.95 -0.01616
45 -0.01527
45.05 -0.01529
45.1 -0.01416
45.15 -0.01325
45.2 -0.01155
45.25 -0.01098
45.3 -0.01143
45.35 -0.01057
45.4 -0.00905
45.45 -0.0071
45.5 -0.00607
45.55 -0.00471
45.6 -0.00551
45.65 -0.00725
45.7 -0.0092
45.75 -0.01152
45.8 -0.0127
45.85 -0.01425
45.9 -0.01526
45.95 -0.01499
46 -0.01431
46.05 -0.01352
46.1 -0.01238
46.15 -0.01091
46.2 -0.00875
46.25 -0.0073
46.3 -0.00545
46.35 -0.00347
46.4 -0.00349
46.45 -0.00491
46.5 -0.0054
46.55 -0.00484
46.6 -0.00549
46.65 -0.00513
46.7 -0.00584
46.75 -0.00739
46.8 -0.00815
46.85 -0.00933
46.9 -0.00932
46.95 -0.01009
47 -0.01025
47.05 -0.01065
47.1 -0.00985
47.15 -0.00925
47.2 -0.00864
47.25 -0.00774
47.3 -0.00702
47.35 -0.0074
47.4 -0.00754
47.45 -0.00705
47.5 -0.0068
47.55 -0.00763
47.6 -0.00812
47.65 -0.0083
47.7 -0.00908
47.75 -0.00825
47.8 -0.00735
47.85 -0.00603
47.9 -0.00483
47.95 -0.0043
48 -0.0039
48.05 -0.00269
48.1 -0.00256
48.15 -0.00307
48.2 -0.00288
48.25 -0.00281
48.3 -0.00259
48.35 -0.00186
48.4 -0.00277
48.45 -0.00398
48.5 -0.00547
48.55 -0.00583
48.6 -0.00512
48.65 -0.00392
48.7 -0.00273
48.75 -0.00163
48.8 -0.00045
48.85 -0.00076
48.9 -0.00046
48.95 0.00052
49 0.00174
49.05 0.00216
49.1 0.00208
49.15 0.00044
49.2 -0.0021
49.25 -0.00464
49.3 -0.00722
49.35 -0.00899
49.4 -0.01062
49.45 -0.0103
49.5 -0.0095
49.55 -0.00732
49.6 -0.00607
49.65 -0.0062
49.7 -0.00534
49.75 -0.00479
49.8 -0.00428
49.85 -0.00471
49.9 -0.00412
49.95 -0.00425
50 -0.00414
50.05 -0.0036
50.1 -0.00238
50.15 -0.00282
50.2 -0.00198
50.25 -0.00092
50.3 -0.0006
50.35 -0.00089
50.4 -0.00241
50.45 -0.00258
50.5 -0.0032
50.55 -0.00302
50.6 -0.00345
50.65 -0.00453
50.7 -0.00397
50.75 -0.0029
50.8 -0.00246
50.85 -0.0028
50.9 -0.00326
50.95 -0.00277
51 -0.00294
51.05 -0.00201
51.1 -0.00236
51.15 -0.00222
51.2 -0.00328
51.25 -0.00499
51.3 -0.00573
51.35 -0.0063
51.4 -0.00697
51.45 -0.00743
51.5 -0.00805
51.55 -0.00881
51.6 -0.00916
51.65 -0.00868
51.7 -0.00688
51.75 -0.00469
51.8 -0.00188
51.85 0.00071
51.9 0.00251
51.95 0.00272
52 0.0034
52.05 0.00323
52.1 0.00329
52.15 0.00263
52.2 0.00161
52.25 0.00138
52.3 0.00037
52.35 -0.00129
52.4 -0.0018
52.45 -0.00196
52.5 -0.0021
52.55 -0.00211
52.6 -0.00082
52.65 0.00073
52.7 0.00077
52.75 0.00149
52.8 0.00241
52.85 0.00239
52.9 0.00157
52.95 0.00006
53 -0.00184
53.05 -0.00255
53.1 -0.00224
53.15 -0.00108
53.2 -0.00097
53.25 -0.00118
53.3 -0.00035
53.35 0.00043
53.4 0.00167
53.45 0.00225
53.5 0.00204
53.55 0.00221
53.6 0.00285
53.65 0.0025
53.7 0.00159
53.75 -0.00033
53.8 -0.00044
53.85 0.00038
53.9 -0.00028
53.95 -0.00067
54 0.00014
54.05 0.00175
54.1 0.00194
54.15 0.00112
54.2 -0.00026
54.25 -0.00194
54.3 -0.00322
54.35 -0.00333
54.4 -0.00416
54.45 -0.00376
54.5 -0.00331
54.55 -0.00331
54.6 -0.00413
54.65 -0.00344
54.7 -0.00355
54.75 -0.00323
54.8 -0.00348
54.85 -0.00398
54.9 -0.00389
54.95 -0.00396
55 -0.00489
55.05 -0.00405
55.1 -0.00334
55.15 -0.00208
55.2 -0.00058
55.25 0.00096
55.3 0.00238
55.35 0.00361
55.4 0.00337
55.45 0.00306
55.5 0.00266
55.55 0.00126
55.6 0.00021
55.65 -0.00097
55.7 -0.00161
55.75 -0.00138
55.8 -0.00032
55.85 0.00098
55.9 0.00112
55.95 0.00062
56 -0.00098
56.05 -0.00113
56.1 -0.00028
56.15 -0.0002
56.2 -0.00009
56.25 -0.00002
56.3 0.00059
56.35 0
56.4 -0.00054
56.45 -0.0019
56.5 -0.00312
56.55 -0.00389
56.6 -0.00369
56.65 -0.0032
56.7 -0.00171
56.75 -0.00088
56.8 -0.00066
56.85 0.00001
56.9 0.00154
56.95 0.00143
57 0.00146
57.05 0.00019
57.1 -0.00169
57.15 -0.00239
57.2 -0.00329
57.25 -0.00455
57.3 -0.0056
57.35 -0.00593
57.4 -0.00467
57.45 -0.00278
57.5 -0.00176
57.55 -0.00157
57.6 -0.00172
57.65 -0.00284
57.7 -0.00388
57.75 -0.00364
57.8 -0.00365
57.85 -0.00328
57.9 -0.00153
57.95 0.00015
58 0.00028
58.05 0.00036
58.1 0.00066
58.15 0.00118
58.2 0.00206
58.25 0.00207
58.3 0.00256
58.35 0.00271
58.4 0.0026
58.45 0.00314
58.5 0.00231
58.55 0.00212
58.6 0.00089
58.65 0.00077
58.7 0.00063
58.75 0.00043
58.8 0.00131
58.85 0.00124
58.9 0.00091
58.95 0.00049
59 -0.00097
59.05 -0.0009
59.1 -0.00092
59.15 -0.00074
59.2 -0.00085
59.25 -0.00026
59.3 0.00036
59.35 0.00111
59.4 0.00069
59.45 0.00096
59.5 0.0008
59.55 -0.00016
59.6 -0.00117
59.65 -0.0009
59.7 -0.00124
59.75 -0.00094
59.8 -0.00181
59.85 -0.00267
59.9 -0.0038
59.95 -0.00327
60 -0.00336
60.05 -0.0042
60.1 -0.00346
60.15 -0.00329
60.2 -0.00255
60.25 -0.0011
60.3 -0.00029
60.35 0.00133
60.4 0.0026
60.45 0.00367
60.5 0.00305
60.55 0.00265
60.6 0.00131
60.65 -0.00076
60.7 -0.00196
60.75 -0.00189
60.8 -0.00097
60.85 0.00075
60.9 0.00135
60.95 0.00249
61 0.00421
61.05 0.00576
61.1 0.00578
61.15 0.00508
61.2 0.00387
61.25 0.0025
61.3 0.00033
61.35 -0.00052
61.4 -0.00144
61.45 -0.00308
61.5 -0.00376
61.55 -0.00484
61.6 -0.00584
61.65 -0.00561
61.7 -0.00498
61.75 -0.00467
61.8 -0.0039
61.85 -0.00216
61.9 -0.00032
61.95 0.00164
62 0.003
62.05 0.00458
62.1 0.00519
62.15 0.00404
62.2 0.00275
62.25 0.00258
62.3 0.00202
62.35 0.00099
62.4 0.00047
62.45 0.00035
62.5 0.00105
62.55 0.00245
62.6 0.00417
62.65 0.00423
62.7 0.00311
62.75 0.00121
62.8 0.00093
62.85 0.00146
62.9 0.00196
62.95 0.00277
63 0.0023
63.05 0.00183
63.1 0.00066
63.15 -0.00012
63.2 -0.0002
63.25 -0.00003
63.3 -0.00103
63.35 -0.0025
63.4 -0.00281
63.45 -0.00299
63.5 -0.00268
63.55 -0.00322
63.6 -0.00393
63.65 -0.00433
63.7 -0.00381
63.75 -0.00229
63.8 -0.00125
63.85 -0.00133
63.9 -0.00235
63.95 -0.00166
64 -0.00084
64.05 0.00054
64.1 0.00118
64.15 0.00248
64.2 0.00418
64.25 0.00502
64.3 0.00411
64.35 0.00291
64.4 0.00309
64.45 0.00179
64.5 0.00104
64.55 0.00115
64.6 0.00158
64.65 0.00175
64.7 0.00075
64.75 -0.0001
64.8 -0.00127
64.85 -0.00286
64.9 -0.00302
64.95 -0.00183
65 -0.00136
65.05 -0.00113
65.1 -0.00119
65.15 -0.00191
65.2 -0.00222
65.25 -0.00131
65.3 -0.00139
65.35 -0.00238
65.4 -0.00213
65.45 -0.0015
65.5 0.00002
65.55 0.00208
65.6 0.00206
65.65 0.00279
65.7 0.00231
65.75 0.00282
65.8 0.00311
65.85 0.00226
65.9 0.00116
65.95 -0.00005
66 -0.00063
66.05 0.00019
66.1 0.00166
66.15 0.00196
66.2 0.00186
66.25 0.00224
66.3 0.00308
66.35 0.0037
66.4 0.00293
66.45 0.00193
66.5 0.0017
66.55 0.0004
66.6 0.00013
66.65 0.00024
66.7 -0.00061
66.75 -0.00015
66.8 -0.00037
66.85 0.00066
66.9 0.0001
66.95 0.00019
67 0.00022
67.05 0.00119
67.1 0.00184
67.15 0.00277
67.2 0.00263
67.25 0.00277
67.3 0.00264
67.35 0.0017
67.4 0.00208
67.45 0.00114
67.5 0.00058
67.55 -0.00106
67.6 -0.00325
67.65 -0.00549
67.7 -0.00651
67.75 -0.00719
67.8 -0.00815
67.85 -0.00781
67.9 -0.00586
67.95 -0.0052
68 -0.00355
68.05 -0.0015
68.1 0.00103
68.15 0.00339
68.2 0.00532
68.25 0.00495
68.3 0.00331
68.35 0.00147
68.4 0.00005
68.45 -0.00209
68.5 -0.00442
68.55 -0.00578
68.6 -0.00668
68.65 -0.00565
68.7 -0.00405
68.75 -0.00194
68.8 -0.00102
68.85 -0.00018
68.9 0.00036
68.95 0.00092
69 0.00035
69.05 0.00109
69.1 0.00232
69.15 0.00309
69.2 0.00281
69.25 0.00251
69.3 0.00119
69.35 -0.00061
69.4 -0.00167
69.45 -0.00317
69.5 -0.00386
69.55 -0.00332
69.6 -0.00265
69.65 -0.00084
69.7 -0.00001
69.75 -0.00019
69.8 0.00032
69.85 0.00058
69.9 0.00076
69.95 0.00015
70 -0
70.05 -0.00112
70.1 -0.00249
70.15 -0.00203
70.2 -0.00152
70.25 -0.00158
70.3 -0.00239
70.35 -0.00234
70.4 -0.00246
70.45 -0.00118
70.5 0.00033
70.55 0.00139
70.6 0.00173
70.65 0.00153
70.7 0.00051
70.75 0.00024
70.8 0.00076
70.85 0.00062
70.9 0.00049
70.95 -0.00057
71 -0.00187
71.05 -0.00157
71.1 -0.00065
71.15 -0.00074
71.2 -0.00108
71.25 -0.00098
71.3 -0.00142
71.35 -0.00273
71.4 -0.00339
71.45 -0.00281
71.5 -0.00135
71.55 -0.0002
71.6 0.00069
71.65 0.00143
71.7 0.0018
71.75 0.00163
71.8 0.00209
71.85 0.00124
71.9 0.00016
71.95 -0.00137
72 -0.0025
72.05 -0.0021
72.1 -0.00155
72.15 -0.00146
72.2 -0.00184
72.25 -0.00168
72.3 -0.00209
72.35 -0.0031
72.4 -0.00427
72.45 -0.00368
72.5 -0.00249
72.55 -0.00094
72.6 0.00113
72.65 0.00317
72.7 0.00359
72.75 0.00391
72.8 0.00385
72.85 0.00466
72.9 0.0041
72.95 0.0032
73 0.00309
73.05 0.00354
73.1 0.00464
73.15 0.00439
73.2 0.00466
73.25 0.0049
73.3 0.00579
73.35 0.00466
73.4 0.00371
73.45 0.00163
73.5 0.00129
73.55 0.00087
73.6 0.00004
73.65 -0.00163
73.7 -0.00353
73.75 -0.00361
73.8 -0.00382
73.85 -0.00428
73.9 -0.00483
73.95 -0.00408
74 -0.00331
74.05 -0.0024
74.1 -0.00116
74.15 0.0003
74.2 0.00007
74.25 -0.0002
74.3 -0.00134
74.35 -0.00091
74.4 0.00007
74.45 0.00019
74.5 0.00085
74.55 0.00094
74.6 0.00021
74.65 -0.00146
74.7 -0.00154
74.75 -0.00216
74.8 -0.00244
74.85 -0.00294
74.9 -0.0021
74.95 -0.00022
75 0.00034
75.05 0.0008
75.1 -0.0001
75.15 -0.00088
75.2 -0.00153
75.25 -0.00098
75.3 -0.00142
75.35 -0.00046
75.4 0.00053
75.45 0.00108
75.5 0.00115
75.55 0.00202
75.6 0.00302
75.65 0.00224
75.7 0.00123
75.75 -0.00042
75.8 -0.00171
75.85 -0.00355
75.9 -0.00435
75.95 -0.00454
76 -0.00506
76.05 -0.00424
76.1 -0.0029
76.15 -0.00121
76.2 0.00043
76.25 0.0004
76.3 0.00016
76.35 0.00053
76.4 -0.00033
76.45 0.00036
76.5 -0.00006
76.55 0.00075
76.6 0.00036
76.65 -0.00004
76.7 0.00016
76.75 0.00147
76.8 0.00219
76.85 0.00139
76.9 0.00111
76.95 0.00175
77 0.00118
77.05 0.00023
77.1 -0.00122
77.15 -0.00289
77.2 -0.00378
77.25 -0.00519
77.3 -0.00568
77.35 -0.00572
77.4 -0.00446
77.45 -0.00314
77.5 -0.00177
77.55 -0.00088
77.6 -0.00127
77.65 -0.00172
77.7 -0.00185
77.75 -0.00268
77.8 -0.00213
77.85 -0.00061
77.9 0.00054
77.95 0.0017
78 0.00353
78.05 0.00482
78.1 0.00465
78.15 0.00524
78.2 0.00444
78.25 0.00378
78.3 0.00389
78.35 0.0033
78.4 0.00317
78.45 0.00184
78.5 0.00196
78.55 0.00073
78.6 -0.00012
78.65 -0.00167
78.7 -0.00157
78.75 -0.00091
78.8 -0.00022
78.85 -0.00017
78.9 -0.00098
78.95 -0.00203
79 -0.00278
79.05 -0.00355
79.1 -0.00428
79.15 -0.00518
79.2 -0.0059
79.25 -0.0063
79.3 -0.00485
79.35 -0.00369
79.4 -0.00308
79.45 -0.00158
79.5 -0.00055
79.55 0.00112
79.6 0.00113
79.65 0.00199
79.7 0.00142
79.75 0.00141
79.8 0.00116
79.85 0.00205
79.9 0.0033
79.95 0.00461
80 0.00442
80.05 0.00387
80.1 0.00234
80.15 0.00006
80.2 -0.00021
80.25 -0.00039
80.3 -0.00151
80.35 -0.00122
80.4 -0.00045
80.45 -0.00086
80.5 -0.00126
80.55 -0.00205
80.6 -0.00189
80.65 -0.00217
80.7 -0.0017
80.75 -0.00239
80.8 -0.00241
80.85 -0.00226
80.9 -0.00249
80.95 -0.00232
81 -0.00223
81.05 -0.00284
81.1 -0.00326
81.15 -0.00323
81.2 -0.00334
81.25 -0.00212
81.3 -0.00155
81.35 0.00001
81.4 0.00012
81.45 0.00132
81.5 0.00142
81.55 0.00081
81.6 0.00025
81.65 -0.00033
81.7 -0.00077
81.75 0.00009
81.8 0.00161
81.85 0.00249
81.9 0.00243
81.95 0.00187
82 0.00124
82.05 0.00009
82.1 -0.00145
82.15 -0.00115
82.2 -0.00109
82.25 -0.00134
82.3 -0.00095
82.35 -0.00111
82.4 -0.00084
82.45 -0.00065
82.5 0.00076
82.55 0.00057
82.6 0.00161
82.65 0.00243
82.7 0.00208
82.75 0.0026
82.8 0.00368
82.85 0.00456
82.9 0.00553
82.95 0.00494
83 0.00489
83.05 0.00524
83.1 0.00406
83.15 0.00328
83.2 0.00197
83.25 0.00161
83.3 0.00043
83.35 0.00006
83.4 0.00088
83.45 0.002
83.5 0.00356
83.55 0.00462
83.6 0.00402
83.65 0.00232
83.7 0.00019
83.75 -0.00153
83.8 -0.00357
83.85 -0.00545
83.9 -0.00617
83.95 -0.00644
84 -0.00599
84.05 -0.00583
84.1 -0.00489
84.15 -0.00381
84.2 -0.0025
84.25 -0.00112
84.3 0.00059
84.35 0.00181
84.4 0.00249
84.45 0.0025
84.5 0.00208
84.55 0.00216
84.6 0.00289
84.65 0.0032
84.7 0.00253
84.75 0.00297
84.8 0.00388
84.85 0.00371
84.9 0.00379
84.95 0.00466
85 0.00394
85.05 0.00249
85.1 0.00158
85.15 0.00149
85.2 0.00203
85.25 0.00269
85.3 0.00297
85.35 0.0023
85.4 0.00115
85.45 0.00074
85.5 -0.00069
85.55 -0.00193
85.6 -0.00241
85.65 -0.0015
85.7 -0.00122
85.75 -0.00033
85.8 0.00132
85.85 0.00184
85.9 0.00123
85.95 0.00116
86 0.00214
86.05 0.00342
86.1 0.00482
86.15 0.00549
86.2 0.00454
86.25 0.00406
86.3 0.00224
86.35 0.00029
86.4 -0.00148
86.45 -0.00353
86.5 -0.00366
86.55 -0.00419
86.6 -0.00378
86.65 -0.00244
86.7 -0.00179
86.75 -0.00247
86.8 -0.00344
86.85 -0.00313
86.9 -0.00301
86.95 -0.00342
87 -0.00227
87.05 -0.0005
87.1 0.00161
87.15 0.00314
87.2 0.00337
87.25 0.00409
87.3 0.00472
87.35 0.00478
87.4 0.00399
87.45 0.00215
87.5 0.00003
87.55 -0.00171
87.6 -0.00168
87.65 -0.00151
87.7 -0.00189
87.75 -0.00243
87.8 -0.00142
87.85 -0.00181
87.9 -0.00265
87.95 -0.00389
88 -0.00347
88.05 -0.00413
88.1 -0.00426
88.15 -0.00348
88.2 -0.00316
88.25 -0.0021
88.3 -0.00059
88.35 -0.00022
88.4 -0.00035
88.45 -0.00104
88.5 -0.00142
88.55 -0.00158
88.6 -0.00058
88.65 -0.00019
88.7 0.00116
88.75 0.00073
88.8 0.00038
88.85 0.00097
88.9 0.00051
88.95 -0.00011
89 0.00012
89.05 -0.00048
89.1 -0.0013
89.15 -0.00164
89.2 -0.00078
89.25 -0.00005
89.3 -0.00012
89.35 -0.00045
89.4 -0.00093
89.45 -0.00103
89.5 -0.00209
89.55 -0.00368
89.6 -0.00493
89.65 -0.00429
89.7 -0.00457
89.75 -0.00485
89.8 -0.00397
89.85 -0.00275
89.9 -0.00167
89.95 -0.00139
90 -0.00198
90.05 -0.00323
90.1 -0.00332
90.15 -0.00301
90.2 -0.00233
90.25 -0.00066
90.3 -0.00015
90.35 0.00077
90.4 0.00248
90.45 0.00408
90.5 0.00412
90.55 0.00457
90.6 0.00545
90.65 0.00628
90.7 0.00682
90.75 0.00542
90.8 0.0043
90.85 0.00246
90.9 0.00009
90.95 -0.00209
91 -0.00371
91.05 -0.00412
91.1 -0.00332
91.15 -0.00267
91.2 -0.00248
91.25 -0.00168
91.3 -0.00223
91.35 -0.00129
91.4 -0.00046
91.45 -0.00061
91.5 0.00039
91.55 0.00096
91.6 0.00057
91.65 -0.00057
91.7 -0.00013
91.75 -0.00014
91.8 -0.00062
91.85 -0.00086
91.9 -0.0001
91.95 -0.00053
92 0.00039
92.05 0.00067
92.1 0.00004
92.15 -0.00017
92.2 -0.00003
92.25 -0.00079
92.3 -0.00071
92.35 0.00007
92.4 0.00056
92.45 0.00043
92.5 -0.00013
92.55 -0.00052
92.6 -0.00013
92.65 0.00107
92.7 0.00122
92.75 0.00173
92.8 0.00253
92.85 0.00327
92.9 0.0043
92.95 0.00563
93 0.00714
93.05 0.00655
93.1 0.00458
93.15 0.00367
93.2 0.0023
93.25 0.00157
93.3 0.00062
93.35 0.00012
93.4 -0.00036
93.45 -0.00143
93.5 -0.00246
93.55 -0.00359
93.6 -0.00392
93.65 -0.00432
93.7 -0.00498
93.75 -0.00515
93.8 -0.00489
93.85 -0.00539
93.9 -0.00602
93.95 -0.00598
94 -0.00522
94.05 -0.00435
94.1 -0.00392
94.15 -0.00359
94.2 -0.00379
94.25 -0.00352
94.3 -0.00219
94.35 -0.00092
94.4 -0.00026
94.45 0.00001
94.5 0.00107
94.55 0.00274
94.6 0.00348
94.65 0.00252
94.7 0.00291
94.75 0.00377
94.8 0.00397
94.85 0.00361
94.9 0.00357
94.95 0.00264
95 0.00106
95.05 0.00101
95.1 -0.00004
95.15 0.00024
95.2 0.00001
95.25 -0.00038
95.3 -0.00103
95.35 -0.00023
95.4 0.00102
95.45 0.00199
95.5 0.00275
95.55 0.00234
95.6 0.00176
95.65 0.0019
95.7 0.0019
95.75 0.00164
95.8 0.00074
95.85 0.00075
95.9 0.00063
95.95 0.00102
96 0.00102
96.05 0.0008
96.1 0.00124
96.15 0.00179
96.2 0.00287
96.25 0.00422
96.3 0.00359
96.35 0.00224
96.4 0.00204
96.45 0.00231
96.5 0.00254
96.55 0.002
96.6 0.00043
96.65 -0.00016
96.7 -0.00087
96.75 -0.00058
96.8 -0.00033
96.85 -0.00071
96.9 -0.00205
96.95 -0.00239
97 -0.00217
97.05 -0.00291
97.1 -0.00423
97.15 -0.00431
97.2 -0.00402
97.25 -0.00374
97.3 -0.00323
97.35 -0.00265
97.4 -0.00112
97.45 0.00048
97.5 0.0009
97.55 0.00118
97.6 0.00033
97.65 0.00015
97.7 0.00114
97.75 0.00175
97.8 0.0021
97.85 0.00241
97.9 0.00304
97.95 0.00302
98 0.00291
98.05 0.00225
98.1 0.00073
98.15 -0.00102
98.2 -0.00235
98.25 -0.00193
98.3 -0.00274
98.35 -0.00396
98.4 -0.00541
98.45 -0.00674
98.5 -0.00605
98.55 -0.00544
98.6 -0.00538
98.65 -0.00568
98.7 -0.00547
98.75 -0.00543
98.8 -0.00465
98.85 -0.00444
98.9 -0.00355
98.95 -0.00213
99 -0.00183
99.05 -0.0018
99.1 -0.0004
99.15 0.00026
99.2 0.00075
99.25 0.00125
99.3 0.00186
99.35 0.00271
99.4 0.00208
99.45 0.00241
99.5 0.00305
99.55 0.00326
99.6 0.00411
99.65 0.00476
99.7 0.00388
99.75 0.00316
99.8 0.00179
99.85 0.00009
99.9 -0.00007
99.95 -0.00096
