0 0
0.05 0.00424
0.1 0.00762
0.15 0.01684
0.2 0.03009
0.25 0.04441
0.3 0.05616
0.35 0.06031
0.4 0.05771
0.45 0.05452
0.5 0.05299
0.55 0.04976
0.6 0.05031
0.65 0.05393
0.7 0.06031
0.75 0.05982
0.8 0.0577
0.85 0.05545
0.9 0.05514
0.95 0.05667
1 0.05795
1.05 0.05354
1.1 0.04845
1.15 0.04333
1.2 0.03526
1.25 0.03466
1.3 0.03125
1.35 0.0276
1.4 0.02443
1.45 0.01902
1.5 0.02082
1.55 0.02502
1.6 0.02422
1.65 0.02371
1.7 0.02626
1.75 0.03272
1.8 0.03543
1.85 0.03417
1.9 0.03772
1.95 0.03752
2 0.03958
2.05 0.04113
2.1 0.04368
2.15 0.04242
2.2 0.03664
2.25 0.0298
2.3 0.02259
2.35 0.01933
2.4 0.01904
2.45 0.02235
2.5 0.02431
2.55 0.02221
2.6 0.02384
2.65 0.02455
2.7 0.02833
2.75 0.03285
2.8 0.03843
2.85 0.03779
2.9 0.03262
2.95 0.02687
3 0.02564
3.05 0.02687
3.1 0.02635
3.15 0.02666
3.2 0.02515
3.25 0.02465
3.3 0.02164
3.35 0.02265
3.4 0.02757
3.45 0.03064
3.5 0.0282
3.55 0.02468
3.6 0.01834
3.65 0.01024
3.7 0.00357
3.75 0.00351
3.8 0.00669
3.85 0.00629
3.9 0.01069
3.95 0.01438
4 0.01386
4.05 0.01717
4.1 0.01555
4.15 0.01537
4.2 0.01888
4.25 0.01881
4.3 0.01828
4.35 0.01784
4.4 0.01076
4.45 0.00119
4.5 -0.00469
4.55 -0.01064
4.6 -0.01979
4.65 -0.03528
4.7 -0.05709
4.75 -0.08147
4.8 -0.11038
4.85 -0.14367
4.9 -0.17869
4.95 -0.21658
5 -0.25562
5.05 -0.30302
5.1 -0.35791
5.15 -0.41712
5.2 -0.48043
5.25 -0.54864
5.3 -0.61595
5.35 -0.68705
5.4 -0.76918
5.45 -0.85833
5.5 -0.95156
5.55 -1.05032
5.6 -1.14419
5.65 -1.24054
5.7 -1.33275
5.75 -1.42932
5.8 -1.52079
5.85 -1.60833
5.9 -1.69498
5.95 -1.78162
6 -1.86958
6.05 -1.95552
6.1 -2.03659
6.15 -2.11091
6.2 -2.17382
6.25 -2.23013
6.3 -2.27984
6.35 -2.32329
6.4 -2.36187
6.45 -2.40187
6.5 -2.43612
6.55 -2.46487
6.6 -2.4815
6.65 -2.48441
6.7 -2.47896
6.75 -2.46201
6.8 -2.43258
6.85 -2.38805
6.9 -2.32824
6.95 -2.2457
7 -2.14639
7.05 -2.02555
7.1 -1.89446
7.15 -1.74714
7.2 -1.58234
7.25 -1.40672
7.3 -1.22482
7.35 -1.034
7.4 -0.84091
7.45 -0.64249
7.5 -0.43785
7.55 -0.23213
7.6 -0.02481
7.65 0.17834
7.7 0.37242
7.75 0.56329
7.8 0.74513
7.85 0.91526
7.9 1.07972
7.95 1.23593
8 1.37816
8.05 1.50885
8.1 1.62952
8.15 1.73356
8.2 1.82767
8.25 1.91174
8.3 1.98757
8.35 2.04793
8.4 2.09621
8.45 2.14143
8.5 2.17406
8.55 2.20217
8.6 2.22031
8.65 2.23617
8.7 2.25009
8.75 2.25903
8.8 2.25811
8.85 2.25263
8.9 2.24703
8.95 2.23189
9 2.21278
9.05 2.19436
9.1 2.17855
9.15 2.16057
9.2 2.13854
9.25 2.11064
9.3 2.07886
9.35 2.0496
9.4 2.02365
9.45 1.99406
9.5 1.96402
9.55 1.93633
9.6 1.9046
9.65 1.8784
9.7 1.85456
9.75 1.82356
9.8 1.79371
9.85 1.7641
9.9 1.73338
9.95 1.69929
10 1.66629
10.05 1.62642
10.1 1.58161
10.15 1.5355
10.2 1.49167
10.25 1.45335
10.3 1.41664
10.35 1.3781
10.4 1.33421
10.45 1.29189
10.5 1.24473
10.55 1.19991
10.6 1.15569
10.65 1.11047
10.7 1.0663
10.75 1.02217
10.8 0.97545
10.85 0.93267
10.9 0.88764
10.95 0.84484
11 0.80392
11.05 0.76491
11.1 0.72726
11.15 0.68858
11.2 0.65177
11.25 0.61058
11.3 0.56692
11.35 0.52676
11.4 0.48712
11.45 0.4458
11.5 0.4034
11.55 0.35753
11.6 0.31098
11.65 0.27124
11.7 0.2347
11.75 0.19818
11.8 0.16223
11.85 0.12613
11.9 0.08988
11.95 0.0616
12 0.03791
12.05 0.01331
12.1 -0.00919
12.15 -0.02691
12.2 -0.04363
12.25 -0.06416
12.3 -0.08522
12.35 -0.10296
12.4 -0.1268
12.45 -0.14989
12.5 -0.17535
12.55 -0.19629
12.6 -0.21492
12.65 -0.2355
12.7 -0.25086
12.75 -0.26487
12.8 -0.2776
12.85 -0.2916
12.9 -0.30531
12.95 -0.31252
13 -0.31854
13.05 -0.32688
13.1 -0.33049
13.15 -0.33588
13.2 -0.34011
13.25 -0.34887
13.3 -0.35128
13.35 -0.35091
13.4 -0.35104
13.45 -0.34954
13.5 -0.34652
13.55 -0.35053
13.6 -0.35371
13.65 -0.35896
13.7 -0.367
13.75 -0.36851
13.8 -0.3733
13.85 -0.37708
13.9 -0.37498
13.95 -0.36861
14 -0.36072
14.05 -0.353
14.1 -0.35087
14.15 -0.3481
14.2 -0.34836
14.25 -0.34572
14.3 -0.34529
14.35 -0.34464
14.4 -0.34713
14.45 -0.34855
14.5 -0.34715
14.55 -0.34756
14.6 -0.3467
14.65 -0.34508
14.7 -0.34415
14.75 -0.33656
14.8 -0.32932
14.85 -0.32613
14.9 -0.31812
14.95 -0.30953
15 -0.30218
15.05 -0.29939
15.1 -0.30033
15.15 -0.29558
15.2 -0.29275
15.25 -0.29306
15.3 -0.28642
15.35 -0.27802
15.4 -0.26683
15.45 -0.25494
15.5 -0.24566
15.55 -0.24135
15.6 -0.23543
15.65 -0.23051
15.7 -0.23138
15.75 -0.23436
15.8 -0.23367
15.85 -0.23116
15.9 -0.23118
15.95 -0.23395
16 -0.23503
16.05 -0.23532
16.1 -0.23459
16.15 -0.23048
16.2 -0.22666
16.25 -0.2249
16.3 -0.22177
16.35 -0.22119
16.4 -0.21685
16.45 -0.20843
16.5 -0.20058
16.55 -0.1962
16.6 -0.19145
16.65 -0.18917
16.7 -0.18199
16.75 -0.17335
16.8 -0.16946
16.85 -0.16507
16.9 -0.16033
16.95 -0.16016
17 -0.15859
17.05 -0.15874
17.1 -0.15732
17.15 -0.15758
17.2 -0.15579
17.25 -0.15148
17.3 -0.14531
17.35 -0.14104
17.4 -0.14274
17.45 -0.13884
17.5 -0.13742
17.55 -0.13741
17.6 -0.13424
17.65 -0.13079
17.7 -0.12802
17.75 -0.12353
17.8 -0.12509
17.85 -0.1274
17.9 -0.13155
17.95 -0.13097
18 -0.1336
18.05 -0.13413
18.1 -0.13685
18.15 -0.136
18.2 -0.13645
18.25 -0.13528
18.3 -0.12923
18.35 -0.12573
18.4 -0.12016
18.45 -0.11875
18.5 -0.1204
18.55 -0.11536
18.6 -0.10722
18.65 -0.09822
18.7 -0.09293
18.75 -0.08581
18.8 -0.08599
18.85 -0.0849
18.9 -0.08069
18.95 -0.07679
19 -0.07839
19.05 -0.07998
19.1 -0.07806
19.15 -0.07507
19.2 -0.07675
19.25 -0.07985
19.3 -0.08301
19.35 -0.08819
19.4 -0.08774
19.45 -0.08709
19.5 -0.08633
19.55 -0.08282
19.6 -0.07905
19.65 -0.07492
19.7 -0.07525
19.75 -0.07005
19.8 -0.06448
19.85 -0.06371
19.9 -0.06122
19.95 -0.06415
20 -0.06996
20.05 -0.07622
20.1 -0.0802
20.15 -0.0812
20.2 -0.07564
20.25 -0.07223
20.3 -0.07157
20.35 -0.06714
20.4 -0.06216
20.45 -0.05719
20.5 -0.04961
20.55 -0.04176
20.6 -0.0389
20.65 -0.04017
20.7 -0.03727
20.75 -0.03672
20.8 -0.03723
20.85 -0.03899
20.9 -0.03647
20.95 -0.03443
21 -0.03141
21.05 -0.02725
21.1 -0.029
21.15 -0.03489
21.2 -0.0364
21.25 -0.03671
21.3 -0.03301
21.35 -0.03551
21.4 -0.03697
21.45 -0.03724
21.5 -0.038
21.55 -0.04213
21.6 -0.04871
21.65 -0.05178
21.7 -0.05159
21.75 -0.05207
21.8 -0.05189
21.85 -0.05031
21.9 -0.04733
21.95 -0.04437
22 -0.04435
22.05 -0.0436
22.1 -0.03877
22.15 -0.03139
22.2 -0.02244
22.25 -0.02009
22.3 -0.01999
22.35 -0.01871
22.4 -0.01604
22.45 -0.01326
22.5 -0.0147
22.55 -0.0145
22.6 -0.01121
22.65 -0.01433
22.7 -0.01504
22.75 -0.01934
22.8 -0.02254
22.85 -0.02829
22.9 -0.03173
22.95 -0.03209
23 -0.03233
23.05 -0.03101
23.1 -0.03254
23.15 -0.02935
23.2 -0.02652
23.25 -0.02727
23.3 -0.02342
23.35 -0.02188
23.4 -0.02166
23.45 -0.02455
23.5 -0.02426
23.55 -0.02269
23.6 -0.01971
23.65 -0.01533
23.7 -0.00952
23.75 -0.00401
23.8 -0.00438
23.85 -0.00582
23.9 -0.00667
23.95 -0.00808
24 -0.01365
24.05 -0.01728
24.1 -0.0232
24.15 -0.02989
24.2 -0.03502
24.25 -0.03393
24.3 -0.03209
24.35 -0.03371
24.4 -0.03048
24.45 -0.02522
24.5 -0.01956
24.55 -0.01955
24.6 -0.01472
24.65 -0.01198
24.7 -0.01062
24.75 -0.00693
24.8 -0.00432
24.85 0.0005
24.9 0.00059
24.95 0.00206
25 0.00512
25.05 0.00395
25.1 0.00276
25.15 -0.00041
25.2 -0.00683
25.25 -0.01471
25.3 -0.02102
25.35 -0.01998
25.4 -0.01733
25.45 -0.0161
25.5 -0.01594
25.55 -0.01829
25.6 -0.01487
25.65 -0.01709
25.7 -0.01907
25.75 -0.02279
25.8 -0.02552
25.85 -0.02461
25.9 -0.02067
25.95 -0.01276
26 -0.00333
26.05 0.00616
26.1 0.00719
26.15 0.00284
26.2 0.00016
26.25 -0.00503
26.3 -0.00694
26.35 -0.00586
26.4 -0.0062
26.45 -0.01014
26.5 -0.01202
26.55 -0.01302
26.6 -0.01357
26.65 -0.01391
26.7 -0.01007
26.75 -0.00759
26.8 -0.01002
26.85 -0.00707
26.9 -0.00821
26.95 -0.01246
27 -0.01554
27.05 -0.01844
27.1 -0.01488
27.15 -0.01646
27.2 -0.02039
27.25 -0.02113
27.3 -0.01752
27.35 -0.0159
27.4 -0.01788
27.45 -0.02242
27.5 -0.02619
27.55 -0.02358
27.6 -0.02154
27.65 -0.01708
27.7 -0.0168
27.75 -0.01696
27.8 -0.01378
27.85 -0.01345
27.9 -0.01267
27.95 -0.0077
28 -0.00272
28.05 0.00447
28.1 0.0084
28.15 0.0119
28.2 0.00981
28.25 0.01144
28.3 0.01103
28.35 0.00611
28.4 -0.0021
28.45 -0.01024
28.5 -0.01674
28.55 -0.02369
28.6 -0.03017
28.65 -0.03614
28.7 -0.04075
28.75 -0.04541
28.8 -0.04831
28.85 -0.04545
28.9 -0.03882
28.95 -0.03609
29 -0.02872
29.05 -0.02468
29.1 -0.02093
29.15 -0.01536
29.2 -0.00948
29.25 -0.00532
29.3 -0.00193
29.35 0.00105
29.4 0.00499
29.45 0.00234
29.5 -0.00057
29.55 -0.00548
29.6 -0.00709
29.65 -0.00903
29.7 -0.01182
29.75 -0.01749
29.8 -0.01814
29.85 -0.01556
29.9 -0.01066
29.95 -0.00923
30 -0.00884
30.05 -0.00756
30.1 -0.00747
30.15 -0.01024
30.2 -0.00907
30.25 -0.00769
30.3 -0.00457
30.35 -0.00526
30.4 -0.00949
30.45 -0.00982
30.5 -0.01266
30.55 -0.00913
30.6 -0.00219
30.65 -0.00171
30.7 0.00076
30.75 0.00008
30.8 0.00109
30.85 -0.00254
30.9 -0.00781
30.95 -0.00922
31 -0.00731
31.05 -0.00705
31.1 -0.01044
31.15 -0.01516
31.2 -0.0198
31.25 -0.01813
31.3 -0.02036
31.35 -0.01677
31.4 -0.01573
31.45 -0.01933
31.5 -0.02048
31.55 -0.01776
31.6 -0.01164
31.65 -0.00919
31.7 -0.00961
31.75 -0.00739
31.8 -0.00916
31.85 -0.01106
31.9 -0.01469
31.95 -0.01213
32 -0.01259
32.05 -0.01475
32.1 -0.01772
32.15 -0.01635
32.2 -0.01314
32.25 -0.00667
32.3 -0.00225
32.35 0.00683
32.4 0.01757
32.45 0.02738
32.5 0.03336
32.55 0.03788
32.6 0.0392
32.65 0.04271
32.7 0.04379
32.75 0.04803
32.8 0.0535
32.85 0.05409
32.9 0.04935
32.95 0.04251
33 0.03633
33.05 0.02901
33.1 0.02448
33.15 0.0191
33.2 0.02175
33.25 0.02048
33.3 0.02113
33.35 0.02319
33.4 0.02992
33.45 0.03038
33.5 0.03151
33.55 0.0305
33.6 0.03415
33.65 0.0329
33.7 0.03016
33.75 0.02808
33.8 0.02147
33.85 0.01641
33.9 0.01469
33.95 0.01316
34 0.01359
34.05 0.01128
34.1 0.00677
34.15 0.00606
34.2 0.00713
34.25 0.00343
34.3 0.00455
34.35 0.00031
34.4 -0.00345
34.45 -0.00594
34.5 -0.00839
34.55 -0.01399
34.6 -0.01391
34.65 -0.00895
34.7 -0.00517
34.75 -0.00647
34.8 -0.01175
34.85 -0.01851
34.9 -0.02348
34.95 -0.02148
35 -0.01588
35.05 -0.01456
35.1 -0.01011
35.15 -0.00622
35.2 -0.00626
35.25 -0.00764
35.3 -0.01174
35.35 -0.01801
35.4 -0.02381
35.45 -0.02606
35.5 -0.02375
35.55 -0.02334
35.6 -0.0242
35.65 -0.01875
35.7 -0.01556
35.75 -0.01722
35.8 -0.01974
35.85 -0.01865
35.9 -0.0196
35.95 -0.01585
36 -0.01227
36.05 -0.00924
36.1 -0.00863
36.15 -0.00345
36.2 -0.00163
36.25 -0.00488
36.3 -0.00194
36.35 0.00198
36.4 0.00413
36.45 0.0009
36.5 0.00053
36.55 -0.00205
36.6 -0.00509
36.65 -0.00952
36.7 -0.01526
36.75 -0.01521
36.8 -0.01132
36.85 -0.00862
36.9 -0.00911
36.95 -0.00475
37 0.00277
37.05 0.00366
37.1 0.0004
37.15 0.00151
37.2 0.00128
37.25 0.00565
37.3 0.00957
37.35 0.00694
37.4 0.00839
37.45 0.00704
37.5 0.00534
37.55 0.00427
37.6 0.00529
37.65 0.0055
37.7 0.00302
37.75 -0.00022
37.8 -0.00637
37.85 -0.00953
37.9 -0.01187
37.95 -0.01114
38 -0.01209
38.05 -0.01203
38.1 -0.0083
38.15 -0.00899
38.2 -0.0043
38.25 0.00251
38.3 0.00586
38.35 0.00438
38.4 0.0077
38.45 0.00993
38.5 0.00683
38.55 0.00697
38.6 0.00356
38.65 -0.00003
38.7 -0.00121
38.75 -0.00015
38.8 0.00497
38.85 0.00981
38.9 0.00776
38.95 0.00899
39 0.00788
39.05 0.00338
39.1 -0.00181
39.15 -0.00248
39.2 0.00114
39.25 -0.00044
39.3 -0.00198
39.35 0.00192
39.4 0.00398
39.45 0.00147
39.5 0.0031
39.55 0.00554
39.6 0.00498
39.65 0.0073
39.7 0.00871
39.75 0.01335
39.8 0.01815
39.85 0.02087
39.9 0.02234
39.95 0.01787
40 0.01385
40.05 0.00578
40.1 -0.00395
40.15 -0.0066
40.2 -0.00768
40.25 -0.01089
40.3 -0.01391
40.35 -0.01669
40.4 -0.018
40.45 -0.02183
40.5 -0.02552
40.55 -0.02958
40.6 -0.03291
40.65 -0.0367
40.7 -0.03163
40.75 -0.02504
40.8 -0.0184
40.85 -0.01446
40.9 -0.00852
40.95 -0.00656
41 -0.00277
41.05 -0.00085
41.1 -0.00349
41.15 -0.00187
41.2 -0.00089
41.25 0.0004
41.3 -0.0005
41.35 -0.00026
41.4 -0.00127
41.45 0.00118
41.5 0.0062
41.55 0.01272
41.6 0.01374
41.65 0.01542
41.7 0.01646
41.75 0.01672
41.8 0.0151
41.85 0.01001
41.9 0.00213
41.95 -0.00711
42 -0.01593
42.05 -0.01766
42.1 -0.01433
42.15 -0.00985
42.2 -0.00331
42.25 0.00107
42.3 0.00361
42.35 0.00076
42.4 0.00365
42.45 0.00817
42.5 0.00811
42.55 0.00343
42.6 -0.00358
42.65 -0.00782
42.7 -0.01401
42.75 -0.01879
42.8 -0.0172
42.85 -0.01142
42.9 -0.00888
42.95 -0.00539
43 -0.00554
43.05 -0.00939
43.1 -0.01171
43.15 -0.01108
43.2 -0.01267
43.25 -0.01652
43.3 -0.01569
43.35 -0.0119
43.4 -0.00851
43.45 -0.00762
43.5 -0.00795
43.55 -0.01122
43.6 -0.00925
43.65 -0.00699
43.7 -0.00902
43.75 -0.01102
43.8 -0.01004
43.85 -0.01247
43.9 -0.01363
43.95 -0.00805
44 -0.00285
44.05 0.00284
44.1 0.00277
44.15 0.00009
44.2 -0.00399
44.25 -0.0098
44.3 -0.00984
44.35 -0.01016
44.4 -0.01261
44.45 -0.014
44.5 -0.01046
44.55 -0.00583
44.6 -0.0023
44.65 -0.00203
44.7 0.00243
44.75 0.00789
44.8 0.01517
44.85 0.01762
44.9 0.02216
44.95 0.02269
45 0.02366
45.05 0.02746
45.1 0.03153
45.15 0.03085
45.2 0.02608
45.25 0.02139
45.3 0.02146
45.35 0.01695
45.4 0.01228
45.45 0.00848
45.5 0.00343
45.55 -0.00378
45.6 -0.01011
45.65 -0.01689
45.7 -0.02224
45.75 -0.02202
45.8 -0.01554
45.85 -0.00795
45.9 -0.00089
45.95 0.00857
46 0.01853
46.05 0.02508
46.1 0.02825
46.15 0.02793
46.2 0.0238
46.25 0.01951
46.3 0.01982
46.35 0.02175
46.4 0.02142
46.45 0.01663
46.5 0.01175
46.55 0.00428
46.6 0.00183
46.65 0.00259
46.7 0.00311
46.75 0.00351
46.8 0.0022
46.85 -0.00136
46.9 -0.00051
46.95 0.00267
47 0.00782
47.05 0.01226
47.1 0.01154
47.15 0.01355
47.2 0.01076
47.25 0.00743
47.3 0.00687
47.35 0.00233
47.4 -0.00476
47.45 -0.01127
47.5 -0.01437
47.55 -0.01851
47.6 -0.02001
47.65 -0.02131
47.7 -0.02276
47.75 -0.02143
47.8 -0.01798
47.85 -0.01257
47.9 -0.00626
47.95 -0.00364
48 -0.00542
48.05 -0.00915
48.1 -0.0105
48.15 -0.01347
48.2 -0.01253
48.25 -0.00979
48.3 -0.00991
48.35 -0.0131
48.4 -0.01769
48.45 -0.01883
48.5 -0.01547
48.55 -0.00958
48.6 -0.0048
48.65 -0.00193
48.7 0.00239
48.75 0.00559
48.8 0.00339
48.85 0.00388
48.9 0.00304
48.95 0.00006
49 0.0005
49.05 0.00188
49.1 0.00454
49.15 0.00867
49.2 0.01466
49.25 0.01941
49.3 0.0252
49.35 0.02857
49.4 0.03119
49.45 0.0307
49.5 0.02941
49.55 0.02525
49.6 0.0164
49.65 0.01179
49.7 0.00955
49.75 0.00901
49.8 0.00464
49.85 0.00358
49.9 0.00584
49.95 0.0072
50 0.00379
50.05 0.00191
50.1 0.00033
50.15 0.00028
50.2 0.0009
50.25 0.00113
50.3 0.00167
50.35 0.00177
50.4 0.00535
50.45 0.01167
50.5 0.01117
50.55 0.00806
50.6 0.0045
50.65 0.00339
50.7 0.00028
50.75 -0.00055
50.8 -0.0055
50.85 -0.00474
50.9 -0.00273
50.95 0.0024
51 0.0043
51.05 0.00835
51.1 0.01458
51.15 0.02118
51.2 0.02398
51.25 0.02497
51.3 0.02001
51.35 0.01139
51.4 0.003
51.45 -0.00627
51.5 -0.01183
51.55 -0.01122
51.6 -0.01013
51.65 -0.00427
51.7 0.00369
51.75 0.00376
51.8 0.00674
51.85 0.0068
51.9 0.00427
51.95 0.00162
52 -0.00414
52.05 -0.00851
52.1 -0.01282
52.15 -0.01699
52.2 -0.02091
52.25 -0.01976
52.3 -0.01311
52.35 -0.01244
52.4 -0.01391
52.45 -0.01096
52.5 -0.01141
52.55 -0.01514
52.6 -0.01889
52.65 -0.02078
52.7 -0.02423
52.75 -0.02314
52.8 -0.02444
52.85 -0.02642
52.9 -0.02684
52.95 -0.02355
53 -0.02094
53.05 -0.01842
53.1 -0.01595
53.15 -0.01286
53.2 -0.00861
53.25 -0.00089
53.3 0.0006
53.35 0.00616
53.4 0.01175
53.45 0.01655
53.5 0.02112
53.55 0.02388
53.6 0.02538
53.65 0.02065
53.7 0.01704
53.75 0.01519
53.8 0.01004
53.85 0.008
53.9 0.00842
53.95 0.01085
54 0.00725
54.05 0.00389
54.1 0.00506
54.15 0.0069
54.2 0.0053
54.25 0.00034
54.3 0.00044
54.35 -0.0031
54.4 -0.00723
54.45 -0.0061
54.5 -0.0026
54.55 0.00364
54.6 0.00724
54.65 0.01183
54.7 0.01437
54.75 0.01296
54.8 0.00898
54.85 0.00759
54.9 0.00258
54.95 -0.00128
55 -0.00325
55.05 -0.00659
55.1 -0.00456
55.15 -0.00398
55.2 -0.00101
55.25 0.00197
55.3 0.00667
55.35 0.00808
55.4 0.01266
55.45 0.01113
55.5 0.0052
55.55 0.0039
55.6 0.0006
55.65 0.00191
55.7 0.00187
55.75 0.00059
55.8 0.0007
55.85 0.00443
55.9 0.00355
55.95 -0.00181
56 -0.00802
56.05 -0.01041
56.1 -0.01571
56.15 -0.02027
56.2 -0.021
56.25 -0.0166
56.3 -0.01229
56.35 -0.0088
56.4 -0.00693
56.45 -0.00506
56.5 -0.00011
56.55 0.00123
56.6 -0.00106
56.65 -0.00615
56.7 -0.00734
56.75 -0.00519
56.8 -0.00449
56.85 -0.00386
56.9 -0.00449
56.95 -0.00014
57 0.00518
57.05 0.00362
57.1 0.00031
57.15 -0.00283
57.2 -0.00193
57.25 0.00072
57.3 0.00448
57.35 0.00478
57.4 0.00668
57.45 0.00471
57.5 0.0045
57.55 0.0031
57.6 0.00318
57.65 0.006
57.7 0.0052
57.75 0.00651
57.8 0.0042
57.85 0.0031
57.9 0.00006
57.95 -0.00046
58 -0.00187
58.05 -0.00292
58.1 -0.00456
58.15 -0.00721
58.2 -0.00392
58.25 -0.00532
58.3 -0.0051
58.35 -0.00354
58.4 -0.0023
58.45 -0.00582
58.5 -0.01028
58.55 -0.01036
58.6 -0.00958
58.65 -0.01254
58.7 -0.01662
58.75 -0.02121
58.8 -0.01859
58.85 -0.014
58.9 -0.01209
58.95 -0.00778
59 -0.00096
59.05 0.00057
59.1 -0.00038
59.15 -0.00266
59.2 -0.00141
59.25 0.0026
59.3 0.00768
59.35 0.01458
59.4 0.02226
59.45 0.02759
59.5 0.02986
59.55 0.02851
59.6 0.02421
59.65 0.02315
59.7 0.02468
59.75 0.02311
59.8 0.02311
59.85 0.02105
59.9 0.01431
59.95 0.01263
60 0.0077
60.05 0.00334
60.1 -0.00189
60.15 -0.00262
60.2 -0.00586
60.25 -0.01067
60.3 -0.01019
60.35 -0.01343
60.4 -0.01898
60.45 -0.02139
60.5 -0.02026
60.55 -0.02214
60.6 -0.01842
60.65 -0.01081
60.7 -0.00108
60.75 0.00673
60.8 0.01552
60.85 0.02006
60.9 0.02285
60.95 0.0231
61 0.0175
61.05 0.01425
61.1 0.01151
61.15 0.00521
61.2 -0.00121
61.25 -0.00232
61.3 -0.00581
61.35 -0.00533
61.4 -0.00467
61.45 0.00006
61.5 0.00395
61.55 0.0032
61.6 0.00078
61.65 -0.00326
61.7 -0.00295
61.75 -0.00085
61.8 0.00266
61.85 0.00293
61.9 0.00603
61.95 0.01053
62 0.01186
62.05 0.00827
62.1 0.00289
62.15 -0.0037
62.2 -0.01204
62.25 -0.02053
62.3 -0.02291
62.35 -0.02243
62.4 -0.02342
62.45 -0.02152
62.5 -0.02174
62.55 -0.02031
62.6 -0.02231
62.65 -0.01783
62.7 -0.01674
62.75 -0.01487
62.8 -0.01403
62.85 -0.00975
62.9 -0.00643
62.95 -0.00039
63 0.00167
63.05 0.00345
63.1 0.002
63.15 -0.00098
63.2 -0.00639
63.25 -0.0076
63.3 -0.00313
63.35 0.00354
63.4 0.00955
63.45 0.01165
63.5 0.01442
63.55 0.01509
63.6 0.01369
63.65 0.00956
63.7 0.0072
63.75 0.00911
63.8 0.01062
63.85 0.01204
63.9 0.01054
63.95 0.00647
64 0.0077
64.05 0.0061
64.1 0.007
64.15 0.00364
64.2 0.00336
64.25 0.00271
64.3 0.00068
64.35 -0.00477
64.4 -0.00719
64.45 -0.00594
64.5 -0.00474
64.55 -0.00587
64.6 -0.00318
64.65 -0.00182
64.7 -0.00201
64.75 -0.00384
64.8 -0.00746
64.85 -0.00824
64.9 -0.0119
64.95 -0.01223
65 -0.01076
65.05 -0.00971
65.1 -0.00943
65.15 -0.01245
65.2 -0.01337
65.25 -0.01181
65.3 -0.01235
65.35 -0.01093
65.4 -0.00481
65.45 -0.00488
65.5 -0.00207
65.55 -0.00145
65.6 -0.00129
65.65 -0.00134
65.7 -0.00583
65.75 -0.01249
65.8 -0.01273
65.85 -0.01576
65.9 -0.01661
65.95 -0.01368
66 -0.01396
66.05 -0.01238
66.1 -0.01171
66.15 -0.00861
66.2 -0.00864
66.25 -0.00928
66.3 -0.01204
66.35 -0.01718
66.4 -0.02264
66.45 -0.02221
66.5 -0.01907
66.55 -0.01767
66.6 -0.01858
66.65 -0.02045
66.7 -0.01538
66.75 -0.00825
66.8 -0.0072
66.85 -0.00938
66.9 -0.01056
66.95 -0.01415
67 -0.01525
67.05 -0.01643
67.1 -0.01463
67.15 -0.01497
67.2 -0.01797
67.25 -0.01635
67.3 -0.01673
67.35 -0.01597
67.4 -0.01657
67.45 -0.01101
67.5 -0.00664
67.55 -0.00659
67.6 -0.0087
67.65 -0.01093
67.7 -0.01127
67.75 -0.00971
67.8 -0.00912
67.85 -0.00725
67.9 -0.00762
67.95 -0.00951
68 -0.01042
68.05 -0.00856
68.1 -0.00516
68.15 -0.00197
68.2 -0.00298
68.25 -0.00016
68.3 -0.00084
68.35 -0.00345
68.4 -0.0083
68.45 -0.00629
68.5 -0.00018
68.55 0.00057
68.6 0.00117
68.65 0.00357
68.7 0.00969
68.75 0.00987
68.8 0.00975
68.85 0.00961
68.9 0.00814
68.95 0.00623
69 0.00626
69.05 0.00516
69.1 0.00676
69.15 0.00981
69.2 0.01004
69.25 0.00551
69.3 -0.00026
69.35 0.00057
69.4 0.00159
69.45 0.0071
69.5 0.01363
69.55 0.01697
69.6 0.02023
69.65 0.02251
69.7 0.02388
69.75 0.02073
69.8 0.01401
69.85 0.01205
69.9 0.01015
69.95 0.00456
70 0.00026
70.05 0.00151
70.1 0.00723
70.15 0.01203
70.2 0.01409
70.25 0.01481
70.3 0.01099
70.35 0.00403
70.4 0.00042
70.45 0.00075
70.5 -0.00291
70.55 -0.00637
70.6 -0.01031
70.65 -0.01347
70.7 -0.01591
70.75 -0.01882
70.8 -0.01676
70.85 -0.01759
70.9 -0.01765
70.95 -0.01421
71 -0.01133
71.05 -0.00424
71.1 -0.00119
71.15 0.00027
71.2 0.00433
71.25 0.00842
71.3 0.01219
71.35 0.01242
71.4 0.01653
71.45 0.01877
71.5 0.02285
71.55 0.0284
71.6 0.02546
71.65 0.01948
71.7 0.01767
71.75 0.01755
71.8 0.01866
71.85 0.01647
71.9 0.01342
71.95 0.015
72 0.01482
72.05 0.0161
72.1 0.01511
72.15 0.00997
72.2 0.00315
72.25 -0.00466
72.3 -0.00616
72.35 -0.00647
72.4 -0.00633
72.45 -0.01009
72.5 -0.01408
72.55 -0.01368
72.6 -0.01653
72.65 -0.0182
72.7 -0.02056
72.75 -0.02014
72.8 -0.01786
72.85 -0.01039
72.9 -0.00819
72.95 -0.00291
73 0.00445
73.05 0.00765
73.1 0.01106
73.15 0.01143
73.2 0.01039
73.25 0.00795
73.3 0.00946
73.35 0.00804
73.4 0.011
73.45 0.01583
73.5 0.01701
73.55 0.01828
73.6 0.0201
73.65 0.01721
73.7 0.0129
73.75 0.00736
73.8 0.00727
73.85 0.01041
73.9 0.00869
73.95 0.01093
74 0.00896
74.05 0.00525
74.1 0.0035
74.15 0.00205
74.2 -0.00241
74.25 -0.0092
74.3 -0.01203
74.35 -0.00818
74.4 -0.00413
74.45 0.00175
74.5 0.00557
74.55 0.00569
74.6 0.00207
74.65 -0.00098
74.7 -0.00252
74.75 0.00099
74.8 0.00497
74.85 0.01173
74.9 0.01592
74.95 0.0171
75 0.01272
75.05 0.01342
75.1 0.01049
75.15 0.00452
75.2 -0.00014
75.25 -0.00685
75.3 -0.0107
75.35 -0.00984
75.4 -0.01091
75.45 -0.01011
75.5 -0.01084
75.55 -0.0077
75.6 -0.00519
75.65 -0.00704
75.7 -0.00959
75.75 -0.01294
75.8 -0.01077
75.85 -0.00615
75.9 0.00009
75.95 0.00342
76 0.00357
76.05 0.00752
76.1 0.00661
76.15 0.00688
76.2 0.00421
76.25 0.00616
76.3 0.0112
76.35 0.01095
76.4 0.00894
76.45 0.00804
76.5 0.00863
76.55 0.00444
76.6 0.00454
76.65 0.00088
76.7 -0.00125
76.75 0.00005
76.8 0.00113
76.85 0.00459
76.9 0.00609
76.95 0.00426
77 0.00717
77.05 0.01004
77.1 0.01487
77.15 0.01856
77.2 0.0172
77.25 0.01114
77.3 0.00753
77.35 0.00506
77.4 0.00251
77.45 0.00072
77.5 0.0026
77.55 0.00523
77.6 0.00607
77.65 0.00456
77.7 -0.00034
77.75 -0.00025
77.8 0.00303
77.85 0.00044
77.9 0.00274
77.95 0.00214
78 -0.00295
78.05 -0.00952
78.1 -0.01522
78.15 -0.01945
78.2 -0.01666
78.25 -0.01204
78.3 -0.01217
78.35 -0.01575
78.4 -0.01677
78.45 -0.01379
78.5 -0.0088
78.55 -0.00156
78.6 0.00571
78.65 0.00763
78.7 0.00516
78.75 -0.00071
78.8 -0.00736
78.85 -0.0145
78.9 -0.01699
78.95 -0.01993
79 -0.019
79.05 -0.01666
79.1 -0.0094
79.15 -0.00554
79.2 -0.00034
79.25 0.00279
79.3 0.00284
79.35 0.0006
79.4 -0.00232
79.45 -0.00279
79.5 -0.00036
79.55 -0.00281
79.6 -0.00362
79.65 -0.0017
79.7 -0.00178
79.75 0.00045
79.8 0.00625
79.85 0.00488
79.9 0.00095
79.95 -0.00297
80 -0.00725
80.05 -0.00525
80.1 -0.00704
80.15 -0.0051
80.2 -0.00697
80.25 -0.00393
80.3 0.00127
80.35 0.00678
80.4 0.00949
80.45 0.00858
80.5 0.00949
80.55 0.00816
80.6 0.00795
80.65 0.01019
80.7 0.0099
80.75 0.01324
80.8 0.01028
80.85 0.00686
80.9 0.00017
80.95 -0.00013
81 -0.00182
81.05 -0.00003
81.1 -0.00273
81.15 -0.0065
81.2 -0.01155
81.25 -0.01836
81.3 -0.01969
81.35 -0.01931
81.4 -0.01856
81.45 -0.01905
81.5 -0.02094
81.55 -0.02235
81.6 -0.02284
81.65 -0.02566
81.7 -0.02801
81.75 -0.02905
81.8 -0.02626
81.85 -0.02651
81.9 -0.02846
81.95 -0.02342
82 -0.01715
82.05 -0.01557
82.1 -0.01079
82.15 -0.0041
82.2 -0.00291
82.25 0.00041
82.3 0.00311
82.35 0.00159
82.4 0.00146
82.45 0.00317
82.5 0.00843
82.55 0.00927
82.6 0.01224
82.65 0.00933
82.7 0.00655
82.75 0.00284
82.8 0.00021
82.85 -0.00162
82.9 -0.00025
82.95 0.00298
83 0.00616
83.05 0.01126
83.1 0.0158
83.15 0.02062
83.2 0.01842
83.25 0.01494
83.3 0.01069
83.35 0.0043
83.4 -0.00015
83.45 -0.00092
83.5 -0.00076
83.55 -0.00236
83.6 0.00005
83.65 -0.00258
83.7 0.00052
83.75 0.00267
83.8 0.00578
83.85 0.01187
83.9 0.01085
83.95 0.00689
84 0.00277
84.05 0.00233
84.1 0.00156
84.15 -0.00343
84.2 -0.01023
84.25 -0.01414
84.3 -0.01307
84.35 -0.0065
84.4 0.00029
84.45 0.00909
84.5 0.00993
84.55 0.00972
84.6 0.01053
84.65 0.01429
84.7 0.01303
84.75 0.00737
84.8 0.00395
84.85 0.00506
84.9 0.00747
84.95 0.00566
85 0.00446
85.05 0.00198
85.1 0.00219
85.15 0.00464
85.2 0.00419
85.25 0.00295
85.3 0.0019
85.35 0.00272
85.4 0.0021
85.45 0.00357
85.5 0.00648
85.55 0.01031
85.6 0.00792
85.65 0.00544
85.7 0.0036
85.75 0.00085
85.8 -0.00287
85.85 -0.00941
85.9 -0.01566
85.95 -0.01773
86 -0.01817
86.05 -0.01334
86.1 -0.00688
86.15 -0.00192
86.2 0.00435
86.25 0.00619
86.3 0.00908
86.35 0.00698
86.4 0.00284
86.45 -0.00368
86.5 -0.00679
86.55 -0.00488
86.6 -0.00736
86.65 -0.00437
86.7 -0.00566
86.75 -0.00298
86.8 -0.00364
86.85 -0.00399
86.9 -0.00725
86.95 -0.00617
87 -0.00239
87.05 -0.00263
87.1 -0.00669
87.15 -0.0043
87.2 -0.00591
87.25 -0.00917
87.3 -0.00756
87.35 -0.00685
87.4 -0.00849
87.45 -0.00658
87.5 -0.00524
87.55 -0.00825
87.6 -0.01161
87.65 -0.01707
87.7 -0.02172
87.75 -0.02219
87.8 -0.02001
87.85 -0.01961
87.9 -0.01802
87.95 -0.01757
88 -0.0179
88.05 -0.01411
88.1 -0.00736
88.15 -0.00283
88.2 -0.00304
88.25 -0.00495
88.3 -0.00719
88.35 -0.0065
88.4 -0.00881
88.45 -0.01215
88.5 -0.00921
88.55 -0.00528
88.6 -0.00137
88.65 0.00624
88.7 0.00899
88.75 0.00916
88.8 0.00971
88.85 0.00875
88.9 0.00722
88.95 0.00757
89 0.01107
89.05 0.00994
89.1 0.01259
89.15 0.01571
89.2 0.0207
89.25 0.01884
89.3 0.01349
89.35 0.01138
89.4 0.01239
89.45 0.0163
89.5 0.0161
89.55 0.01056
89.6 0.0074
89.65 0.00545
89.7 0.00003
89.75 -0.00531
89.8 -0.01165
89.85 -0.01333
89.9 -0.01083
89.95 -0.01124
90 -0.00798
90.05 -0.00584
90.1 -0.00264
90.15 -0.00129
90.2 0.00068
90.25 0.00233
90.3 0.00728
90.35 0.01421
90.4 0.01516
90.45 0.01514
90.5 0.00963
90.55 0.00309
90.6 -0.00539
90.65 -0.01348
90.7 -0.01775
90.75 -0.02141
90.8 -0.01959
90.85 -0.01673
90.9 -0.01658
90.95 -0.01541
91 -0.01204
91.05 -0.0118
91.1 -0.01292
91.15 -0.01346
91.2 -0.01591
91.25 -0.01145
91.3 -0.00733
91.35 -0.00452
91.4 -0.00031
91.45 0.00528
91.5 0.00513
91.55 0.00746
91.6 0.00461
91.65 -0.00039
91.7 0.00099
91.75 -0.00145
91.8 0.00057
91.85 0.00345
91.9 0.00157
91.95 -0.00074
92 0.00059
92.05 -0.00151
92.1 0.00083
92.15 0.00496
92.2 0.00669
92.25 0.00991
92.3 0.00845
92.35 0.0045
92.4 0.00625
92.45 0.01065
92.5 0.01416
92.55 0.01244
92.6 0.01075
92.65 0.01299
92.7 0.01651
92.75 0.01324
92.8 0.01482
92.85 0.01635
92.9 0.01485
92.95 0.01022
93 0.00717
93.05 0.00773
93.1 0.00994
93.15 0.0123
93.2 0.01025
93.25 0.01274
93.3 0.01201
93.35 0.00713
93.4 0.00632
93.45 0.00592
93.5 0.00489
93.55 0.00257
93.6 -0.00146
93.65 -0.00763
93.7 -0.01288
93.75 -0.01179
93.8 -0.0111
93.85 -0.00987
93.9 -0.00711
93.95 -0.00915
94 -0.00654
94.05 -0.00272
94.1 -0.00261
94.15 0.00077
94.2 0.00606
94.25 0.00826
94.3 0.00655
94.35 0.00961
94.4 0.00766
94.45 0.00727
94.5 0.00508
94.55 0.00359
94.6 -0.00192
94.65 -0.00268
94.7 -0.00308
94.75 -0.00656
94.8 -0.01092
94.85 -0.00895
94.9 -0.00516
94.95 0.00214
95 0.00336
95.05 0.00028
95.1 -0.00368
95.15 -0.0041
95.2 -0.0083
95.25 -0.01244
95.3 -0.01291
95.35 -0.00849
95.4 -0.00043
95.45 0.00037
95.5 -0.00289
95.55 -0.0089
95.6 -0.01191
95.65 -0.01541
95.7 -0.01731
95.75 -0.0204
95.8 -0.01801
95.85 -0.0131
95.9 -0.00733
95.95 -0.00079
96 0.00453
96.05 0.00658
96.1 0.01033
96.15 0.01578
96.2 0.01703
96.25 0.01264
96.3 0.00909
96.35 0.00521
96.4 0.00195
96.45 -0.00204
96.5 -0.00247
96.55 -0.00236
96.6 -0.00215
96.65 -0.00585
96.7 -0.00636
96.75 -0.00186
96.8 0.00255
96.85 0.00337
96.9 0.00741
96.95 0.01172
97 0.01781
97.05 0.02066
97.1 0.01884
97.15 0.01702
97.2 0.0135
97.25 0.01019
97.3 0.01079
97.35 0.00907
97.4 0.01066
97.45 0.01218
97.5 0.00953
97.55 0.0098
97.6 0.01314
97.65 0.01149
97.7 0.00761
97.75 0.00111
97.8 -0.00117
97.85 -0.00271
97.9 -0.00124
97.95 -0.00167
98 0.0008
98.05 -0.00025
98.1 -0.0056
98.15 -0.01125
98.2 -0.01389
98.25 -0.01128
98.3 -0.01284
98.35 -0.00873
98.4 -0.00957
98.45 -0.0069
98.5 -0.00714
98.55 -0.01043
98.6 -0.01369
98.65 -0.01759
98.7 -0.02133
98.75 -0.02638
98.8 -0.02407
98.85 -0.02426
98.9 -0.02433
98.95 -0.02285
99 -0.01649
99.05 -0.01064
99.1 -0.00726
99.15 -0.00088
99.2 0.00275
99.25 0.00265
99.3 0.00358
99.35 0.00064
99.4 -0.00547
99.45 -0.01129
99.5 -0.01575
99.55 -0.02039
99.6 -0.01927
99.65 -0.02104
99.7 -0.0221
99.75 -0.01715
99.8 -0.01307
99.85 -0.00868
99.9 -0.00603
99.95 -0.00665
