0 0
0.05 0.00518
0.1 0.01038
0.15 0.01796
0.2 0.02217
0.25 0.02545
0.3 0.02864
0.35 0.02975
0.4 0.02871
0.45 0.027
0.5 0.02425
0.55 0.02216
0.6 0.02696
0.65 0.03648
0.7 0.04
0.75 0.03989
0.8 0.04054
0.85 0.03864
0.9 0.04233
0.95 0.04053
1 0.0401
1.05 0.03946
1.1 0.0431
1.15 0.04259
1.2 0.04579
1.25 0.04634
1.3 0.04564
1.35 0.04328
1.4 0.04507
1.45 0.04277
1.5 0.04057
1.55 0.03693
1.6 0.03661
1.65 0.0328
1.7 0.03405
1.75 0.03481
1.8 0.03897
1.85 0.03858
1.9 0.03847
1.95 0.03482
2 0.0303
2.05 0.02818
2.1 0.02543
2.15 0.02584
2.2 0.02839
2.25 0.03202
2.3 0.03808
2.35 0.04453
2.4 0.04962
2.45 0.05078
2.5 0.04873
2.55 0.04735
2.6 0.04921
2.65 0.04992
2.7 0.05215
2.75 0.04834
2.8 0.0459
2.85 0.04244
2.9 0.04301
2.95 0.04082
3 0.03633
3.05 0.03624
3.1 0.0349
3.15 0.02918
3.2 0.02671
3.25 0.02408
3.3 0.02504
3.35 0.02104
3.4 0.02122
3.45 0.01869
3.5 0.01681
3.55 0.01221
3.6 0.00806
3.65 0.00942
3.7 0.00833
3.75 0.00964
3.8 0.01517
3.85 0.02061
3.9 0.01985
3.95 0.01622
4 0.00944
4.05 0.00651
4.1 0.00742
4.15 0.01241
4.2 0.01841
4.25 0.01609
4.3 0.01358
4.35 0.01412
4.4 0.00691
4.45 -0.00509
4.5 -0.01204
4.55 -0.02056
4.6 -0.03015
4.65 -0.04639
4.7 -0.06749
4.75 -0.09386
4.8 -0.12306
4.85 -0.15519
4.9 -0.18707
4.95 -0.21898
5 -0.2562
5.05 -0.30096
5.1 -0.34888
5.15 -0.40018
5.2 -0.45891
5.25 -0.52173
5.3 -0.58734
5.35 -0.65744
5.4 -0.732
5.45 -0.81375
5.5 -0.89688
5.55 -0.98687
5.6 -1.07767
5.65 -1.17376
5.7 -1.2725
5.75 -1.371
5.8 -1.46448
5.85 -1.55479
5.9 -1.64029
5.95 -1.7219
6 -1.7937
6.05 -1.8628
6.1 -1.92476
6.15 -1.98085
6.2 -2.03315
6.25 -2.0858
6.3 -2.13048
6.35 -2.16927
6.4 -2.20003
6.45 -2.2236
6.5 -2.24557
6.55 -2.25814
6.6 -2.25747
6.65 -2.25091
6.7 -2.23214
6.75 -2.20019
6.8 -2.15857
6.85 -2.10113
6.9 -2.03351
6.95 -1.94958
7 -1.85232
7.05 -1.74301
7.1 -1.61593
7.15 -1.47726
7.2 -1.32172
7.25 -1.15255
7.3 -0.97547
7.35 -0.79471
7.4 -0.60596
7.45 -0.41128
7.5 -0.22008
7.55 -0.0351
7.6 0.1519
7.65 0.33588
7.7 0.5135
7.75 0.6844
7.8 0.84792
7.85 0.99765
7.9 1.13381
7.95 1.26474
8 1.38815
8.05 1.49836
8.1 1.59708
8.15 1.68709
8.2 1.76165
8.25 1.82656
8.3 1.88256
8.35 1.92675
8.4 1.95822
8.45 1.98306
8.5 1.99717
8.55 2.00932
8.6 2.01517
8.65 2.01776
8.7 2.01691
8.75 2.00914
8.8 2.00018
8.85 1.98231
8.9 1.96374
8.95 1.94428
9 1.92227
9.05 1.9028
9.1 1.87696
9.15 1.84701
9.2 1.81967
9.25 1.79544
9.3 1.77017
9.35 1.75102
9.4 1.73231
9.45 1.71221
9.5 1.68927
9.55 1.66855
9.6 1.64895
9.65 1.6282
9.7 1.60192
9.75 1.57801
9.8 1.55572
9.85 1.52804
9.9 1.49727
9.95 1.47062
10 1.44215
10.05 1.41861
10.1 1.38919
10.15 1.35856
10.2 1.33256
10.25 1.30853
10.3 1.27875
10.35 1.2447
10.4 1.2144
10.45 1.18715
10.5 1.1571
10.55 1.12574
10.6 1.09197
10.65 1.05682
10.7 1.01982
10.75 0.9786
10.8 0.94118
10.85 0.90226
10.9 0.86368
10.95 0.82739
11 0.79213
11.05 0.7519
11.1 0.71339
11.15 0.6746
11.2 0.63206
11.25 0.59084
11.3 0.54756
11.35 0.50672
11.4 0.46196
11.45 0.41592
11.5 0.36869
11.55 0.33012
11.6 0.29028
11.65 0.24991
11.7 0.2125
11.75 0.17706
11.8 0.14924
11.85 0.11939
11.9 0.08823
11.95 0.06433
12 0.03672
12.05 0.01417
12.1 -0.0049
12.15 -0.03009
12.2 -0.05546
12.25 -0.07723
12.3 -0.09553
12.35 -0.11618
12.4 -0.13358
12.45 -0.15498
12.5 -0.17406
12.55 -0.18797
12.6 -0.19893
12.65 -0.20876
12.7 -0.2231
12.75 -0.23876
12.8 -0.24953
12.85 -0.26215
12.9 -0.27397
12.95 -0.28254
13 -0.2914
13.05 -0.2973
13.1 -0.30429
13.15 -0.30897
13.2 -0.31639
13.25 -0.31928
13.3 -0.32378
13.35 -0.32879
13.4 -0.33527
13.45 -0.33886
13.5 -0.3384
13.55 -0.33572
13.6 -0.33882
13.65 -0.33721
13.7 -0.33849
13.75 -0.33654
13.8 -0.33477
13.85 -0.33521
13.9 -0.33219
13.95 -0.33201
14 -0.32991
14.05 -0.33308
14.1 -0.33884
14.15 -0.34314
14.2 -0.34061
14.25 -0.3388
14.3 -0.33694
14.35 -0.33536
14.4 -0.32821
14.45 -0.31981
14.5 -0.30942
14.55 -0.29967
14.6 -0.29296
14.65 -0.29
14.7 -0.28571
14.75 -0.28476
14.8 -0.28408
14.85 -0.28343
14.9 -0.28094
14.95 -0.27697
15 -0.27087
15.05 -0.26391
15.1 -0.25548
15.15 -0.25112
15.2 -0.2529
15.25 -0.25079
15.3 -0.25104
15.35 -0.24928
15.4 -0.24603
15.45 -0.24141
15.5 -0.2382
15.55 -0.23152
15.6 -0.2238
15.65 -0.21675
15.7 -0.21723
15.75 -0.21983
15.8 -0.22527
15.85 -0.23014
15.9 -0.22751
15.95 -0.22522
16 -0.22582
16.05 -0.22497
16.1 -0.21822
16.15 -0.21334
16.2 -0.21081
16.25 -0.20697
16.3 -0.20069
16.35 -0.19789
16.4 -0.19447
16.45 -0.19487
16.5 -0.19617
16.55 -0.1987
16.6 -0.20221
16.65 -0.19798
16.7 -0.19443
16.75 -0.18688
16.8 -0.18055
16.85 -0.17297
16.9 -0.16817
16.95 -0.16476
17 -0.15759
17.05 -0.14764
17.1 -0.13967
17.15 -0.13036
17.2 -0.12075
17.25 -0.11949
17.3 -0.12157
17.35 -0.12427
17.4 -0.12497
17.45 -0.12551
17.5 -0.12933
17.55 -0.1274
17.6 -0.12203
17.65 -0.11466
17.7 -0.10791
17.75 -0.10288
17.8 -0.10505
17.85 -0.10751
17.9 -0.11175
17.95 -0.11453
18 -0.11544
18.05 -0.11093
18.1 -0.10833
18.15 -0.11086
18.2 -0.10717
18.25 -0.10561
18.3 -0.10292
18.35 -0.10318
18.4 -0.09934
18.45 -0.10056
18.5 -0.1053
18.55 -0.10656
18.6 -0.11007
18.65 -0.11285
18.7 -0.10976
18.75 -0.10277
18.8 -0.09716
18.85 -0.09204
18.9 -0.0868
18.95 -0.08549
19 -0.08741
19.05 -0.08725
19.1 -0.08825
19.15 -0.09057
19.2 -0.08674
19.25 -0.08167
19.3 -0.07812
19.35 -0.07732
19.4 -0.07163
19.45 -0.07197
19.5 -0.07621
19.55 -0.07879
19.6 -0.07926
19.65 -0.08165
19.7 -0.08508
19.75 -0.0843
19.8 -0.07998
19.85 -0.07244
19.9 -0.06999
19.95 -0.0709
20 -0.06608
20.05 -0.06163
20.1 -0.05691
20.15 -0.05201
20.2 -0.04471
20.25 -0.03635
20.3 -0.03121
20.35 -0.02933
20.4 -0.02756
20.45 -0.02603
20.5 -0.02451
20.55 -0.02489
20.6 -0.02504
20.65 -0.02975
20.7 -0.03198
20.75 -0.03033
20.8 -0.03203
20.85 -0.03527
20.9 -0.03886
20.95 -0.03933
21 -0.03935
21.05 -0.03678
21.1 -0.03414
21.15 -0.02857
21.2 -0.02179
21.25 -0.0206
21.3 -0.02273
21.35 -0.02856
21.4 -0.03723
21.45 -0.04227
21.5 -0.0411
21.55 -0.03829
21.6 -0.03992
21.65 -0.04127
21.7 -0.04454
21.75 -0.04859
21.8 -0.04825
21.85 -0.04766
21.9 -0.04163
21.95 -0.03423
22 -0.03393
22.05 -0.03024
22.1 -0.02791
22.15 -0.02945
22.2 -0.03241
22.25 -0.03559
22.3 -0.03852
22.35 -0.03841
22.4 -0.03981
22.45 -0.042
22.5 -0.03972
22.55 -0.0347
22.6 -0.03424
22.65 -0.03429
22.7 -0.03192
22.75 -0.0259
22.8 -0.01923
22.85 -0.01826
22.9 -0.0215
22.95 -0.02619
23 -0.02592
23.05 -0.02103
23.1 -0.01777
23.15 -0.01765
23.2 -0.01434
23.25 -0.01089
23.3 -0.01069
23.35 -0.01064
23.4 -0.0078
23.45 -0.00324
23.5 -0.00206
23.55 0.00067
23.6 -0.00042
23.65 0.00099
23.7 0.0013
23.75 -0.00385
23.8 -0.00582
23.85 -0.00652
23.9 -0.0111
23.95 -0.01326
24 -0.01099
24.05 -0.006
24.1 -0.00434
24.15 -0.00534
24.2 -0.00875
24.25 -0.01599
24.3 -0.02216
24.35 -0.02295
24.4 -0.02119
24.45 -0.02435
24.5 -0.02308
24.55 -0.02235
24.6 -0.02449
24.65 -0.02159
24.7 -0.0165
24.75 -0.01539
24.8 -0.01432
24.85 -0.01195
24.9 -0.01167
24.95 -0.00781
25 -0.00377
25.05 0.00198
25.1 0.00811
25.15 0.00645
25.2 0.00089
25.25 -0.00523
25.3 -0.01338
25.35 -0.02063
25.4 -0.0244
25.45 -0.02247
25.5 -0.02134
25.55 -0.02277
25.6 -0.02171
25.65 -0.02247
25.7 -0.02644
25.75 -0.0261
25.8 -0.02037
25.85 -0.01488
25.9 -0.01525
25.95 -0.01435
26 -0.0155
26.05 -0.0189
26.1 -0.02395
26.15 -0.03009
26.2 -0.03671
26.25 -0.04068
26.3 -0.0381
26.35 -0.03855
26.4 -0.03519
26.45 -0.03325
26.5 -0.03185
26.55 -0.0308
26.6 -0.02883
26.65 -0.02379
26.7 -0.02065
26.75 -0.02019
26.8 -0.0175
26.85 -0.01828
26.9 -0.01476
26.95 -0.01035
27 -0.01104
27.05 -0.00892
27.1 -0.00656
27.15 -0.00061
27.2 0.00049
27.25 0.0024
27.3 0.00188
27.35 -0.0011
27.4 -0.00748
27.45 -0.01028
27.5 -0.00971
27.55 -0.01116
27.6 -0.01429
27.65 -0.01462
27.7 -0.01518
27.75 -0.01474
27.8 -0.01578
27.85 -0.0186
27.9 -0.02155
27.95 -0.02009
28 -0.02022
28.05 -0.01521
28.1 -0.01377
28.15 -0.01722
28.2 -0.01658
28.25 -0.01364
28.3 -0.00818
28.35 -0.00715
28.4 -0.00933
28.45 -0.01213
28.5 -0.0205
28.55 -0.02981
28.6 -0.04134
28.65 -0.04752
28.7 -0.0494
28.75 -0.05441
28.8 -0.05849
28.85 -0.06519
28.9 -0.06975
28.95 -0.07523
29 -0.08736
29.05 -0.09952
29.1 -0.1116
29.15 -0.12115
29.2 -0.13096
29.25 -0.14202
29.3 -0.15155
29.35 -0.166
29.4 -0.18078
29.45 -0.19162
29.5 -0.20706
29.55 -0.22515
29.6 -0.24362
29.65 -0.25458
29.7 -0.26301
29.75 -0.27097
29.8 -0.27991
29.85 -0.28945
29.9 -0.29415
29.95 -0.3006
30 -0.29927
30.05 -0.30143
30.1 -0.29839
30.15 -0.28939
30.2 -0.2794
30.25 -0.27325
30.3 -0.26978
30.35 -0.26082
30.4 -0.24479
30.45 -0.22946
30.5 -0.21414
30.55 -0.20078
30.6 -0.18643
30.65 -0.17117
30.7 -0.14952
30.75 -0.13057
30.8 -0.10753
30.85 -0.08518
30.9 -0.06737
30.95 -0.04742
31 -0.02666
31.05 -0.00789
31.1 0.00994
31.15 0.02609
31.2 0.04195
31.25 0.05767
31.3 0.07451
31.35 0.09531
31.4 0.11145
31.45 0.12951
31.5 0.14861
31.55 0.16835
31.6 0.18841
31.65 0.20355
31.7 0.21816
31.75 0.23258
31.8 0.2453
31.85 0.25487
31.9 0.25802
31.95 0.25912
32 0.26042
32.05 0.26203
32.1 0.26844
32.15 0.27981
32.2 0.28793
32.25 0.29772
32.3 0.30073
32.35 0.30178
32.4 0.30211
32.45 0.30508
32.5 0.30731
32.55 0.31081
32.6 0.30886
32.65 0.30879
32.7 0.30996
32.75 0.3039
32.8 0.29811
32.85 0.2948
32.9 0.28595
32.95 0.27629
33 0.26869
33.05 0.25554
33.1 0.24207
33.15 0.23343
33.2 0.22068
33.25 0.20444
33.3 0.18803
33.35 0.1722
33.4 0.16163
33.45 0.15164
33.5 0.14239
33.55 0.13454
33.6 0.12664
33.65 0.11874
33.7 0.11065
33.75 0.1014
33.8 0.08949
33.85 0.07587
33.9 0.06024
33.95 0.04565
34 0.03297
34.05 0.0257
34.1 0.01685
34.15 0.01389
34.2 0.0155
34.25 0.0197
34.3 0.0174
34.35 0.01637
34.4 0.0101
34.45 0.00781
34.5 0.00707
34.55 0.00207
34.6 -0.00252
34.65 -0.00997
34.7 -0.01669
34.75 -0.0219
34.8 -0.02468
34.85 -0.02956
34.9 -0.02913
34.95 -0.0274
35 -0.02897
35.05 -0.03174
35.1 -0.03569
35.15 -0.03755
35.2 -0.03653
35.25 -0.03137
35.3 -0.0234
35.35 -0.01932
35.4 -0.01895
35.45 -0.01748
35.5 -0.01467
35.55 -0.01733
35.6 -0.0143
35.65 -0.01422
35.7 -0.01416
35.75 -0.01483
35.8 -0.01424
35.85 -0.01377
35.9 -0.01764
35.95 -0.02438
36 -0.02803
36.05 -0.03061
36.1 -0.03472
36.15 -0.03562
36.2 -0.03921
36.25 -0.04273
36.3 -0.04298
36.35 -0.03891
36.4 -0.03332
36.45 -0.03107
36.5 -0.02712
36.55 -0.02392
36.6 -0.0213
36.65 -0.01652
36.7 -0.00946
36.75 -0.00227
36.8 -0.0003
36.85 0.0013
36.9 -0.00118
36.95 -0.00901
37 -0.01655
37.05 -0.01867
37.1 -0.01845
37.15 -0.01805
37.2 -0.01492
37.25 -0.01835
37.3 -0.02065
37.35 -0.01957
37.4 -0.02403
37.45 -0.02502
37.5 -0.02957
37.55 -0.03319
37.6 -0.03783
37.65 -0.04117
37.7 -0.04469
37.75 -0.04277
37.8 -0.03865
37.85 -0.03703
37.9 -0.03351
37.95 -0.02793
38 -0.0219
38.05 -0.01909
38.1 -0.01957
38.15 -0.02225
38.2 -0.02416
38.25 -0.02816
38.3 -0.03374
38.35 -0.03592
38.4 -0.03663
38.45 -0.04016
38.5 -0.0447
38.55 -0.04713
38.6 -0.04908
38.65 -0.04983
38.7 -0.04373
38.75 -0.03754
38.8 -0.03105
38.85 -0.02941
38.9 -0.02831
38.95 -0.02931
39 -0.03348
39.05 -0.0313
39.1 -0.02635
39.15 -0.02674
39.2 -0.02771
39.25 -0.02898
39.3 -0.02426
39.35 -0.01688
39.4 -0.01131
39.45 -0.00724
39.5 -0.00723
39.55 -0.00555
39.6 -0.00131
39.65 0.0022
39.7 0.00443
39.75 0.00314
39.8 -0.00204
39.85 -0.00702
39.9 -0.01414
39.95 -0.02273
40 -0.02617
40.05 -0.027
40.1 -0.03054
40.15 -0.02834
40.2 -0.02311
40.25 -0.01756
40.3 -0.01353
40.35 -0.00654
40.4 -0.00307
40.45 -0.00018
40.5 0.00495
40.55 0.01001
40.6 0.0109
40.65 0.01296
40.7 0.00793
40.75 0.00783
40.8 0.01038
40.85 0.0093
40.9 0.00613
40.95 0.00325
41 -0.00352
41.05 -0.00598
41.1 -0.01066
41.15 -0.01737
41.2 -0.01951
41.25 -0.01552
41.3 -0.01177
41.35 -0.0104
41.4 -0.00559
41.45 0.00094
41.5 0.00771
41.55 0.01485
41.6 0.02175
41.65 0.02329
41.7 0.02108
41.75 0.01377
41.8 0.01054
41.85 0.0081
41.9 0.00913
41.95 0.00869
42 0.00959
42.05 0.00525
42.1 -0.00072
42.15 -0.00317
42.2 -0.00414
42.25 -0.00738
42.3 -0.0108
42.35 -0.00899
42.4 -0.00609
42.45 -0.00139
42.5 -0.0008
42.55 0.00164
42.6 0.00241
42.65 0.0048
42.7 0.00895
42.75 0.00588
42.8 0.00534
42.85 0.00167
42.9 0.00153
42.95 -0.00108
43 -0.0056
43.05 -0.01317
43.1 -0.02068
43.15 -0.02034
43.2 -0.015
43.25 -0.00849
43.3 -0.00814
43.35 -0.00916
43.4 -0.00706
43.45 -0.00452
43.5 -0.00684
43.55 -0.00584
43.6 -0.00104
43.65 0.00375
43.7 0.00454
43.75 0.00757
43.8 0.00605
43.85 0.00671
43.9 0.01016
43.95 0.01475
44 0.01806
44.05 0.0204
44.1 0.01574
44.15 0.01342
44.2 0.00783
44.25 0.00115
44.3 -0.00738
44.35 -0.01428
44.4 -0.01596
44.45 -0.01823
44.5 -0.0213
44.55 -0.02247
44.6 -0.02162
44.65 -0.02293
44.7 -0.0208
44.75 -0.01925
44.8 -0.02163
44.85 -0.02346
44.9 -0.02005
44.95 -0.01809
45 -0.01169
45.05 -0.00872
45.1 -0.00814
45.15 -0.01077
45.2 -0.00788
45.25 -0.00785
45.3 -0.00523
45.35 -0.00362
45.4 -0.00314
45.45 0.00033
45.5 -0.00062
45.55 0.00208
45.6 -0.00048
45.65 -0.0046
45.7 -0.0114
45.75 -0.01942
45.8 -0.02557
45.85 -0.02395
45.9 -0.0195
45.95 -0.01724
46 -0.01795
46.05 -0.01781
46.1 -0.01913
46.15 -0.02211
46.2 -0.02253
46.25 -0.02539
46.3 -0.02925
46.35 -0.03093
46.4 -0.02863
46.45 -0.02248
46.5 -0.01677
46.55 -0.01081
46.6 -0.00192
46.65 0.00798
46.7 0.01788
46.75 0.01872
46.8 0.01933
46.85 0.0217
46.9 0.02526
46.95 0.02613
47 0.02035
47.05 0.01518
47.1 0.01175
47.15 0.01282
47.2 0.00814
47.25 0.00654
47.3 0.00739
47.35 0.00977
47.4 0.0112
47.45 0.00606
47.5 0.00331
47.55 -0.00278
47.6 -0.00533
47.65 -0.00429
47.7 -0.0027
47.75 -0.00651
47.8 -0.01098
47.85 -0.01628
47.9 -0.01895
47.95 -0.01957
48 -0.02245
48.05 -0.0239
48.1 -0.019
48.15 -0.01647
48.2 -0.00965
48.25 -0.00381
48.3 -0.00348
48.35 -0.00096
48.4 0.00112
48.45 0.00496
48.5 0.00772
48.55 0.01258
48.6 0.01346
48.65 0.01559
48.7 0.01936
48.75 0.01857
48.8 0.012
48.85 0.00652
48.9 -0.00253
48.95 -0.00614
49 -0.00732
49.05 -0.00514
49.1 -0.00202
49.15 -0.00079
49.2 -0.00468
49.25 -0.00576
49.3 -0.00482
49.35 -0.00296
49.4 0.00022
49.45 0.00465
49.5 0.00343
49.55 0.00397
49.6 0.00254
49.65 0.0001
49.7 -0.0028
49.75 -0.00419
49.8 -0.00919
49.85 -0.00816
49.9 -0.00536
49.95 -0.00561
50 -0.0097
50.05 -0.01364
50.1 -0.01614
50.15 -0.02121
50.2 -0.01843
50.25 -0.01131
50.3 -0.00896
50.35 -0.00919
50.4 -0.0082
50.45 -0.00672
50.5 -0.00661
50.55 -0.00285
50.6 0.0019
50.65 0.00491
50.7 0.00795
50.75 0.00711
50.8 0.00536
50.85 0.00034
50.9 -0.00431
50.95 -0.01066
51 -0.01041
51.05 -0.00613
51.1 -0.00328
51.15 -0.00002
51.2 0.00139
51.25 0.00132
51.3 -0.00283
51.35 -0.0096
51.4 -0.01481
51.45 -0.01371
51.5 -0.01137
51.55 -0.01136
51.6 -0.00846
51.65 -0.01015
51.7 -0.0077
51.75 -0.00546
51.8 -0.00169
51.85 -0.0028
51.9 -0.00256
51.95 -0.0054
52 -0.00685
52.05 -0.00536
52.1 -0.00064
52.15 0.00362
52.2 0.00418
52.25 -0.00047
52.3 -0.00167
52.35 -0.00683
52.4 -0.01295
52.45 -0.01911
52.5 -0.01729
52.55 -0.01838
52.6 -0.0163
52.65 -0.01486
52.7 -0.0163
52.75 -0.01525
52.8 -0.01575
52.85 -0.01804
52.9 -0.02188
52.95 -0.02055
53 -0.01628
53.05 -0.00805
53.1 -0.00511
53.15 -0.00373
53.2 -0.00367
53.25 -0.00196
53.3 -0.00325
53.35 -0.00026
53.4 -0.00071
53.45 -0.00085
53.5 -0.00451
53.55 -0.00725
53.6 -0.00701
53.65 -0.00159
53.7 -0.00119
53.75 -0.0009
53.8 0.00347
53.85 0.00352
53.9 0.00752
53.95 0.01077
54 0.00848
54.05 0.00482
54.1 0.00354
54.15 0.00713
54.2 0.01102
54.25 0.01578
54.3 0.01636
54.35 0.01513
54.4 0.01561
54.45 0.01193
54.5 0.00655
54.55 0.00487
54.6 0.00016
54.65 -0.00341
54.7 -0.00865
54.75 -0.01219
54.8 -0.0135
54.85 -0.01591
54.9 -0.01669
54.95 -0.01999
55 -0.02067
55.05 -0.02181
55.1 -0.01994
55.15 -0.01431
55.2 -0.01066
55.25 -0.01124
55.3 -0.0127
55.35 -0.01429
55.4 -0.01389
55.45 -0.01281
55.5 -0.01305
55.55 -0.01292
55.6 -0.01329
55.65 -0.01085
55.7 -0.00607
55.75 -0.00316
55.8 0.00401
55.85 0.00576
55.9 0.01119
55.95 0.0144
56 0.01637
56.05 0.01716
56.1 0.02023
56.15 0.01658
56.2 0.01388
56.25 0.00801
56.3 0.00315
56.35 -0.002
56.4 -0.00918
56.45 -0.01132
56.5 -0.01337
56.55 -0.0111
56.6 -0.00809
56.65 -0.00057
56.7 0.00063
56.75 0.00374
56.8 0.00816
56.85 0.00808
56.9 0.00928
56.95 0.00952
57 0.00841
57.05 0.00637
57.1 0.00665
57.15 0.00743
57.2 0.01097
57.25 0.01646
57.3 0.02134
57.35 0.02649
57.4 0.03144
57.45 0.03492
57.5 0.03875
57.55 0.03997
57.6 0.03614
57.65 0.03373
57.7 0.03366
57.75 0.03179
57.8 0.02576
57.85 0.01656
57.9 0.00838
57.95 0.00426
58 -0.00086
58.05 -0.00164
58.1 -0.00161
58.15 -0.00012
58.2 0.00415
58.25 0.00793
58.3 0.00899
58.35 0.00811
58.4 0.00977
58.45 0.00861
58.5 0.0066
58.55 0.0012
58.6 0.00188
58.65 0.00521
58.7 0.00594
58.75 0.00791
58.8 0.01091
58.85 0.01492
58.9 0.01395
58.95 0.0073
59 -0.00097
59.05 -0.00404
59.1 -0.00193
59.15 0.00018
59.2 0.00392
59.25 0.00134
59.3 -0.00343
59.35 -0.00753
59.4 -0.01298
59.45 -0.01983
59.5 -0.0223
59.55 -0.01981
59.6 -0.02028
59.65 -0.01556
59.7 -0.01519
59.75 -0.01659
59.8 -0.01576
59.85 -0.01665
59.9 -0.01975
59.95 -0.02061
60 -0.02404
60.05 -0.02514
60.1 -0.02121
60.15 -0.01861
60.2 -0.01992
60.25 -0.0213
60.3 -0.01731
60.35 -0.01107
60.4 -0.00436
60.45 -0.00397
60.5 -0.00461
60.55 -0.00527
60.6 -0.00205
60.65 -0.00037
60.7 -0.00057
60.75 0.00031
60.8 0.00321
60.85 0.00571
60.9 0.00329
60.95 -0.00057
61 0.00143
61.05 -0.00069
61.1 -0.00656
61.15 -0.00658
61.2 -0.00671
61.25 -0.00647
61.3 -0.0081
61.35 -0.01116
61.4 -0.00859
61.45 -0.00271
61.5 -0.00322
61.55 -0.0045
61.6 -0.001
61.65 0.00378
61.7 0.00673
61.75 0.01111
61.8 0.01598
61.85 0.02002
61.9 0.02406
61.95 0.02445
62 0.02597
62.05 0.02359
62.1 0.02206
62.15 0.01822
62.2 0.01366
62.25 0.00734
62.3 0.00097
62.35 -0.00589
62.4 -0.00908
62.45 -0.01115
62.5 -0.01395
62.55 -0.01561
62.6 -0.01234
62.65 -0.01225
62.7 -0.00989
62.75 -0.0049
62.8 0.00076
62.85 0.00216
62.9 0.00231
62.95 -0.00206
63 -0.00712
63.05 -0.00944
63.1 -0.01344
63.15 -0.01213
63.2 -0.01176
63.25 -0.01288
63.3 -0.01398
63.35 -0.0179
63.4 -0.02049
63.45 -0.02138
63.5 -0.01898
63.55 -0.01374
63.6 -0.00788
63.65 -0.00066
63.7 -0.00014
63.75 0.00116
63.8 0.00262
63.85 0.00672
63.9 0.00926
63.95 0.01322
64 0.01841
64.05 0.02052
64.1 0.02419
64.15 0.02653
64.2 0.02213
64.25 0.01496
64.3 0.00805
64.35 0.00316
64.4 -0.00205
64.45 -0.00419
64.5 -0.00762
64.55 -0.01285
64.6 -0.0171
64.65 -0.01797
64.7 -0.01276
64.75 -0.00594
64.8 -0.00005
64.85 0.00092
64.9 0.0051
64.95 0.00374
65 0.00287
65.05 0.00421
65.1 0.00386
65.15 -0.00043
65.2 0.00124
65.25 -0.00182
65.3 -0.00371
65.35 -0.00045
65.4 0.00138
65.45 -0.00032
65.5 -0.00214
65.55 -0.00391
65.6 -0.00629
65.65 -0.00617
65.7 -0.00106
65.75 0.00447
65.8 0.00633
65.85 0.00893
65.9 0.01067
65.95 0.0111
66 0.00814
66.05 0.0083
66.1 0.00632
66.15 0.00225
66.2 -0.00324
66.25 -0.00634
66.3 -0.01065
66.35 -0.01641
66.4 -0.02328
66.45 -0.02356
66.5 -0.02424
66.55 -0.02305
66.6 -0.02323
66.65 -0.02173
66.7 -0.01727
66.75 -0.01301
66.8 -0.0115
66.85 -0.01382
66.9 -0.01441
66.95 -0.00882
67 -0.00725
67.05 -0.00683
67.1 -0.0052
67.15 -0.00059
67.2 0.00482
67.25 0.0044
67.3 0.0076
67.35 0.01001
67.4 0.01297
67.45 0.01699
67.5 0.02182
67.55 0.02705
67.6 0.03283
67.65 0.03826
67.7 0.03487
67.75 0.03227
67.8 0.02692
67.85 0.02178
67.9 0.02108
67.95 0.01557
68 0.01107
68.05 0.00561
68.1 0.00224
68.15 -0.00263
68.2 -0.00423
68.25 -0.00584
68.3 -0.00736
68.35 -0.00764
68.4 -0.00894
68.45 -0.00553
68.5 -0.00226
68.55 -0.00253
68.6 -0.00117
68.65 -0.00422
68.7 -0.00658
68.75 -0.01215
68.8 -0.01408
68.85 -0.0161
68.9 -0.01997
68.95 -0.02278
69 -0.02393
69.05 -0.02592
69.1 -0.02877
69.15 -0.0274
69.2 -0.0198
69.25 -0.01658
69.3 -0.01701
69.35 -0.01703
69.4 -0.01782
69.45 -0.01481
69.5 -0.01507
69.55 -0.00917
69.6 -0.00883
69.65 -0.00521
69.7 -0.00447
69.75 -0.00366
69.8 -0.00588
69.85 -0.003
69.9 0.00273
69.95 0.00611
70 0.01228
70.05 0.01975
70.1 0.01952
70.15 0.02248
70.2 0.02057
70.25 0.01375
70.3 0.00649
70.35 0.00464
70.4 0.00344
70.45 0.00598
70.5 0.00802
70.55 0.00681
70.6 0.00422
70.65 0.00222
70.7 0.00122
70.75 0.00181
70.8 0.00268
70.85 0.00182
70.9 0.00569
70.95 0.00856
71 0.00786
71.05 0.007
71.1 0.00687
71.15 0.00557
71.2 0.00195
71.25 -0.00486
71.3 -0.00478
71.35 -0.00892
71.4 -0.01468
71.45 -0.01263
71.5 -0.01199
71.55 -0.01302
71.6 -0.01474
71.65 -0.01438
71.7 -0.01431
71.75 -0.0156
71.8 -0.01415
71.85 -0.01581
71.9 -0.01638
71.95 -0.01249
72 -0.00969
72.05 -0.00626
72.1 -0.00036
72.15 0.00158
72.2 0.00446
72.25 0.00157
72.3 0.00003
72.35 -0.00417
72.4 -0.00769
72.45 -0.01021
72.5 -0.00702
72.55 -0.00459
72.6 -0.00136
72.65 -0.00209
72.7 -0.00174
72.75 0.00046
72.8 0.00258
72.85 0.00704
72.9 0.00521
72.95 -0.00008
73 -0.00039
73.05 -0.00042
73.1 -0.00266
73.15 -0.00164
73.2 0.00018
73.25 0.00515
73.3 0.0072
73.35 0.0114
73.4 0.01128
73.45 0.01153
73.5 0.00984
73.55 0.00527
73.6 -0.00006
73.65 -0.0066
73.7 -0.00824
73.75 -0.01144
73.8 -0.01252
73.85 -0.01113
73.9 -0.01337
73.95 -0.00912
74 -0.00558
74.05 -0.00471
74.1 -0.00291
74.15 -0.00407
74.2 -0.00584
74.25 -0.00695
74.3 -0.01062
74.35 -0.01625
74.4 -0.01736
74.45 -0.02035
74.5 -0.01976
74.55 -0.01374
74.6 -0.0087
74.65 -0.00159
74.7 0.00501
74.75 0.00795
74.8 0.01048
74.85 0.01583
74.9 0.01675
74.95 0.01403
75 0.01073
75.05 0.00953
75.1 0.00404
75.15 0.00129
75.2 0.00285
75.25 0.0047
75.3 0.00993
75.35 0.01218
75.4 0.01489
75.45 0.01501
75.5 0.01712
75.55 0.01351
75.6 0.01003
75.65 0.00806
75.7 0.00279
75.75 -0.0011
75.8 -0.00303
75.85 -0.0064
75.9 -0.00473
75.95 0.00046
76 0.00188
76.05 0.00436
76.1 0.00943
76.15 0.01254
76.2 0.01112
76.25 0.00626
76.3 0.00606
76.35 0.00113
76.4 -0.00097
76.45 0.00006
76.5 -0.00058
76.55 0.003
76.6 0.00904
76.65 0.01449
76.7 0.01366
76.75 0.01039
76.8 0.00384
76.85 0.00032
76.9 0.00071
76.95 0.0023
77 0.00664
77.05 0.01313
77.1 0.01696
77.15 0.02255
77.2 0.02012
77.25 0.01738
77.3 0.01847
77.35 0.01794
77.4 0.01512
77.45 0.01002
77.5 0.00433
77.55 -0.00389
77.6 -0.01189
77.65 -0.0137
77.7 -0.01637
77.75 -0.01899
77.8 -0.0176
77.85 -0.01846
77.9 -0.02149
77.95 -0.01746
78 -0.01705
78.05 -0.01746
78.1 -0.0178
78.15 -0.0172
78.2 -0.0172
78.25 -0.01779
78.3 -0.01406
78.35 -0.01049
78.4 -0.00953
78.45 -0.01023
78.5 -0.00838
78.55 -0.00924
78.6 -0.01331
78.65 -0.01103
78.7 -0.0087
78.75 -0.0081
78.8 -0.007
78.85 -0.00463
78.9 0.00156
78.95 0.00245
79 0.00346
79.05 0.00016
79.1 0.00251
79.15 0.0012
79.2 0.00403
79.25 0.00935
79.3 0.01514
79.35 0.01926
79.4 0.01965
79.45 0.01832
79.5 0.01879
79.55 0.01447
79.6 0.0121
79.65 0.01264
79.7 0.01328
79.75 0.01468
79.8 0.01542
79.85 0.01015
79.9 0.0063
79.95 -0.00127
80 -0.0036
80.05 -0.00938
80.1 -0.01387
80.15 -0.01668
80.2 -0.02081
80.25 -0.02086
80.3 -0.01582
80.35 -0.00841
80.4 0.0003
80.45 0.00212
80.5 0.00485
80.55 0.00272
80.6 0.00174
80.65 0.00494
80.7 0.00987
80.75 0.01292
80.8 0.01689
80.85 0.01978
80.9 0.02321
80.95 0.02383
81 0.01868
81.05 0.01747
81.1 0.01079
81.15 0.01018
81.2 0.01251
81.25 0.00997
81.3 0.00405
81.35 0.00037
81.4 0.00019
81.45 0.00445
81.5 0.00643
81.55 0.00246
81.6 0.00228
81.65 0.00507
81.7 0.00493
81.75 0.00623
81.8 0.0062
81.85 0.00775
81.9 0.00597
81.95 0.00502
82 0.00765
82.05 0.00824
82.1 0.00606
82.15 0.00404
82.2 0.00622
82.25 0.00651
82.3 0.00462
82.35 -0.00094
82.4 -0.00606
82.45 -0.00758
82.5 -0.0099
82.55 -0.00855
82.6 -0.00629
82.65 -0.00508
82.7 0.00032
82.75 0.00757
82.8 0.01507
82.85 0.01783
82.9 0.01755
82.95 0.0129
83 0.01191
83.05 0.00932
83.1 0.01022
83.15 0.00964
83.2 0.01158
83.25 0.0145
83.3 0.01512
83.35 0.01307
83.4 0.01303
83.45 0.00868
83.5 0.00786
83.55 0.0068
83.6 0.00046
83.65 -0.00482
83.7 -0.00911
83.75 -0.0157
83.8 -0.0219
83.85 -0.02533
83.9 -0.02536
83.95 -0.02287
84 -0.01628
84.05 -0.01308
84.1 -0.01236
84.15 -0.01295
84.2 -0.01477
84.25 -0.01945
84.3 -0.01754
84.35 -0.01334
84.4 -0.00711
84.45 -0.00024
84.5 0.00463
84.55 0.00678
84.6 0.00375
84.65 -0.00185
84.7 -0.00517
84.75 -0.0097
84.8 -0.00963
84.85 -0.00715
84.9 -0.00228
84.95 -0.00178
85 0.00225
85.05 0.00026
85.1 -0.00166
85.15 -0.00719
85.2 -0.01315
85.25 -0.01706
85.3 -0.01379
85.35 -0.00923
85.4 -0.00896
85.45 -0.00987
85.5 -0.00546
85.55 -0.00506
85.6 -0.0047
85.65 -0.00557
85.7 -0.00736
85.75 -0.00416
85.8 0.0005
85.85 -0.00114
85.9 -0.0056
85.95 -0.00846
86 -0.00995
86.05 -0.00912
86.1 -0.00802
86.15 -0.00352
86.2 0.00114
86.25 0.00022
86.3 -0.00474
86.35 -0.00542
86.4 -0.0053
86.45 -0.00102
86.5 0.00015
86.55 -0.00014
86.6 -0.00285
86.65 -0.00879
86.7 -0.00885
86.75 -0.00571
86.8 -0.0008
86.85 0.00146
86.9 -0.00145
86.95 -0.00486
87 -0.00559
87.05 -0.00182
87.1 0.00304
87.15 0.004
87.2 0.00548
87.25 0.00614
87.3 0.00394
87.35 0.00214
87.4 0.00469
87.45 0.00498
87.5 0.00639
87.55 0.00704
87.6 0.00931
87.65 0.00586
87.7 0.00152
87.75 -0.00553
87.8 -0.00577
87.85 -0.00947
87.9 -0.00992
87.95 -0.00603
88 -0.00769
88.05 -0.00529
88.1 -0.00048
88.15 -0.00179
88.2 -0.00433
88.25 -0.00945
88.3 -0.01372
88.35 -0.01937
88.4 -0.01725
88.45 -0.01833
88.5 -0.02021
88.55 -0.02274
88.6 -0.02544
88.65 -0.02579
88.7 -0.01954
88.75 -0.01513
88.8 -0.01353
88.85 -0.01408
88.9 -0.01622
88.95 -0.01875
89 -0.01449
89.05 -0.00673
89.1 0.00036
89.15 0.00193
89.2 0.00566
89.25 0.0085
89.3 0.01116
89.35 0.01466
89.4 0.01996
89.45 0.02548
89.5 0.02274
89.55 0.01779
89.6 0.01304
89.65 0.00532
89.7 -0.00323
89.75 -0.00724
89.8 -0.00851
89.85 -0.0101
89.9 -0.01267
89.95 -0.01495
90 -0.01232
90.05 -0.0059
90.1 -0.00085
90.15 0.00588
90.2 0.00834
90.25 0.00699
90.3 0.00143
90.35 -0.00434
90.4 -0.0048
90.45 -0.00414
90.5 -0.00411
90.55 -0.00339
90.6 -0.00029
90.65 0.00129
90.7 -0.00088
90.75 -0.00193
90.8 -0.00344
90.85 -0.00154
90.9 0.00335
90.95 0.00648
91 0.00602
91.05 0.00637
91.1 0.00812
91.15 0.00966
91.2 0.00907
91.25 0.00842
91.3 0.00455
91.35 0.00408
91.4 0.00226
91.45 -0.0032
91.5 -0.00787
91.55 -0.00934
91.6 -0.00984
91.65 -0.0079
91.7 -0.00315
91.75 -0.00314
91.8 0.0012
91.85 0.00869
91.9 0.01522
91.95 0.02097
92 0.01909
92.05 0.02017
92.1 0.01781
92.15 0.01681
92.2 0.01662
92.25 0.01083
92.3 0.00627
92.35 -0.00111
92.4 -0.00983
92.45 -0.01361
92.5 -0.01818
92.55 -0.01511
92.6 -0.00834
92.65 -0.00707
92.7 -0.00848
92.75 -0.00408
92.8 0.00121
92.85 0.00845
92.9 0.01629
92.95 0.01752
93 0.01517
93.05 0.00914
93.1 0.00501
93.15 0.00348
93.2 0.003
93.25 0.00089
93.3 0.00201
93.35 0.0046
93.4 0.00657
93.45 0.0079
93.5 0.00495
93.55 0.00222
93.6 0.00308
93.65 0.0018
93.7 0.00468
93.75 0.00565
93.8 0.00616
93.85 0.0074
93.9 0.00771
93.95 0.00446
94 -0.00208
94.05 -0.00306
94.1 -0.00491
94.15 -0.00645
94.2 -0.00833
94.25 -0.00548
94.3 0.00024
94.35 -0.00004
94.4 -0.00345
94.45 -0.00755
94.5 -0.00749
94.55 -0.00784
94.6 -0.00446
94.65 0.00008
94.7 -0.00162
94.75 -0.00542
94.8 -0.01135
94.85 -0.01778
94.9 -0.01576
94.95 -0.01417
95 -0.00982
95.05 -0.00552
95.1 0.00201
95.15 0.00542
95.2 0.00812
95.25 0.00855
95.3 0.00925
95.35 0.0116
95.4 0.01245
95.45 0.01195
95.5 0.00783
95.55 0.00866
95.6 0.00996
95.65 0.01065
95.7 0.00882
95.75 0.00654
95.8 0.00385
95.85 -0.00205
95.9 -0.00192
95.95 -0.00264
96 0.00039
96.05 0.00006
96.1 -0.00482
96.15 -0.00754
96.2 -0.00565
96.25 0.00007
96.3 0.00147
96.35 -0.00141
96.4 0.00106
96.45 0.00286
96.5 0.00432
96.55 0.00299
96.6 0.00284
96.65 -0.00179
96.7 -0.00918
96.75 -0.01233
96.8 -0.0147
96.85 -0.01574
96.9 -0.01303
96.95 -0.01291
97 -0.00857
97.05 -0.00541
97.1 -0.00271
97.15 -0.00493
97.2 -0.0038
97.25 -0.00498
97.3 -0.00458
97.35 0.00064
97.4 0.00598
97.45 0.0127
97.5 0.0144
97.55 0.01143
97.6 0.0068
97.65 -0.00099
97.7 -0.01015
97.75 -0.01362
97.8 -0.01078
97.85 -0.01131
97.9 -0.00787
97.95 -0.00628
98 -0.00339
98.05 -0.00431
98.1 -0.00556
98.15 -0.00452
98.2 -0.0018
98.25 -0.00097
98.3 -0.00319
98.35 -0.00318
98.4 -0.00116
98.45 0.00039
98.5 0.00383
98.55 0.00266
98.6 -0.00044
98.65 0.00169
98.7 0.00428
98.75 0.00442
98.8 0.00468
98.85 0.00642
98.9 0.00897
98.95 0.00898
99 0.00974
99.05 0.01397
99.1 0.01651
99.15 0.01773
99.2 0.01646
99.25 0.00971
99.3 0.00019
99.35 -0.00327
99.4 -0.00457
99.45 -0.00752
99.5 -0.00647
99.55 -0.00241
99.6 -0.00104
99.65 -0.00258
99.7 -0.00349
99.75 -0.00463
99.8 -0.00803
99.85 -0.00984
99.9 -0.01091
99.95 -0.01425
