0 0
0.05 0.00371
0.1 0.00929
0.15 0.01546
0.2 0.02129
0.25 0.02689
0.3 0.03054
0.35 0.0304
0.4 0.03032
0.45 0.02763
0.5 0.02536
0.55 0.02212
0.6 0.01974
0.65 0.0172
0.7 0.01758
0.75 0.01617
0.8 0.01624
0.85 0.01545
0.9 0.0154
0.95 0.0162
1 0.01849
1.05 0.01872
1.1 0.01937
1.15 0.01764
1.2 0.01482
1.25 0.01331
1.3 0.01176
1.35 0.01034
1.4 0.00972
1.45 0.00843
1.5 0.00945
1.55 0.01004
1.6 0.0112
1.65 0.01383
1.7 0.01533
1.75 0.01634
1.8 0.01685
1.85 0.01649
1.9 0.01791
1.95 0.01776
2 0.0164
2.05 0.01598
2.1 0.01695
2.15 0.01735
2.2 0.01632
2.25 0.01457
2.3 0.01376
2.35 0.01371
2.4 0.01209
2.45 0.01007
2.5 0.00906
2.55 0.00755
2.6 0.00778
2.65 0.00978
2.7 0.00938
2.75 0.00757
2.8 0.00595
2.85 0.00559
2.9 0.00709
2.95 0.00672
3 0.00799
3.05 0.00749
3.1 0.00699
3.15 0.00535
3.2 0.00653
3.25 0.00917
3.3 0.0111
3.35 0.01227
3.4 0.01357
3.45 0.01439
3.5 0.01404
3.55 0.01293
3.6 0.01104
3.65 0.01032
3.7 0.00966
3.75 0.01019
3.8 0.009
3.85 0.0064
3.9 0.00539
3.95 0.00572
4 0.00567
4.05 0.00441
4.1 0.00314
4.15 0.00398
4.2 0.00446
4.25 0.00664
4.3 0.00856
4.35 0.01078
4.4 0.01087
4.45 0.01127
4.5 0.01177
4.55 0.01273
4.6 0.01174
4.65 0.00928
4.7 0.00641
4.75 0.00373
4.8 0.00284
4.85 0.00363
4.9 0.00332
4.95 0.00378
5 0.00563
5.05 0.00601
5.1 0.0071
5.15 0.0059
5.2 0.0067
5.25 0.00758
5.3 0.00794
5.35 0.00758
5.4 0.00577
5.45 0.00417
5.5 0.00144
5.55 0.0012
5.6 0.00246
5.65 0.00274
5.7 0.00193
5.75 0.00075
5.8 -0.00137
5.85 -0.0031
5.9 -0.00336
5.95 -0.00124
6 0.002
6.05 0.0025
6.1 0.00451
6.15 0.00638
6.2 0.00667
6.25 0.0075
6.3 0.00878
6.35 0.00867
6.4 0.00865
6.45 0.00866
6.5 0.00695
6.55 0.00711
6.6 0.00496
6.65 0.00433
6.7 0.00468
6.75 0.00565
6.8 0.00539
6.85 0.0041
6.9 0.00159
6.95 0.00171
7 0.00021
7.05 0.00052
7.1 0.0014
7.15 0.00271
7.2 0.00201
7.25 0.00177
7.3 0.00101
7.35 0.00107
7.4 0.00126
7.45 0.00036
7.5 0.00047
7.55 0.00163
7.6 0.00226
7.65 0.00382
7.7 0.00607
7.75 0.0066
7.8 0.00568
7.85 0.0044
7.9 0.00238
7.95 -0.00041
8 -0.00327
8.05 -0.00424
8.1 -0.00581
8.15 -0.00583
8.2 -0.00595
8.25 -0.0038
8.3 -0.00024
8.35 0.00117
8.4 0.0019
8.45 0.00409
8.5 0.00355
8.55 0.00281
8.6 0.00179
8.65 0.003
8.7 0.00289
8.75 0.00259
8.8 0.00275
8.85 0.00171
8.9 0.00135
8.95 0.00203
9 0.00272
9.05 0.00147
9.1 -0.00095
9.15 -0.00217
9.2 -0.00128
9.25 -0.00127
9.3 -0.00148
9.35 -0.00258
9.4 -0.00331
9.45 -0.00396
9.5 -0.0036
9.55 -0.00145
9.6 0.00074
9.65 0.00062
9.7 0.00129
9.75 0.00042
9.8 -0.00174
9.85 -0.0046
9.9 -0.00697
9.95 -0.00704
10 -0.00458
10.05 -0.00215
10.1 0.00103
10.15 0.00347
10.2 0.0045
10.25 0.00508
10.3 0.0057
10.35 0.00693
10.4 0.00715
10.45 0.00547
10.5 0.00578
10.55 0.00394
10.6 0.00262
10.65 0.00124
10.7 0.00001
10.75 -0.00211
10.8 -0.00428
10.85 -0.00526
10.9 -0.00587
10.95 -0.00495
11 -0.00233
11.05 -0.00126
11.1 0.00073
11.15 0.0003
11.2 -0.00013
11.25 0.0007
11.3 -0.00017
11.35 0.00013
11.4 0.0012
11.45 0.00064
11.5 -0.00121
11.55 -0.00071
11.6 0.00048
11.65 0.00185
11.7 0.00389
11.75 0.006
11.8 0.0078
11.85 0.00695
11.9 0.00736
11.95 0.008
12 0.00702
12.05 0.00522
12.1 0.00194
12.15 -0.00023
12.2 -0.00038
12.25 -0.00225
12.3 -0.00245
12.35 -0.00091
12.4 0.00138
12.45 0.00347
12.5 0.00515
12.55 0.00543
12.6 0.00674
12.65 0.00704
12.7 0.00602
12.75 0.00545
12.8 0.00298
12.85 0.00014
12.9 -0.0014
12.95 -0.00233
13 -0.00375
13.05 -0.0055
13.1 -0.00526
13.15 -0.00374
13.2 -0.00077
13.25 0.00129
13.3 0.00298
13.35 0.0036
13.4 0.00518
13.45 0.00512
13.5 0.00636
13.55 0.00508
13.6 0.0055
13.65 0.00405
13.7 0.00405
13.75 0.00442
13.8 0.00261
13.85 0.00251
13.9 0.00385
13.95 0.00516
14 0.00449
14.05 0.00377
14.1 0.00166
14.15 0.00166
14.2 0.00268
14.25 0.00268
14.3 0.00413
14.35 0.00429
14.4 0.00492
14.45 0.00599
14.5 0.00565
14.55 0.00633
14.6 0.00703
14.65 0.00844
14.7 0.01005
14.75 0.00844
14.8 0.0062
14.85 0.00271
14.9 0.00187
14.95 0.00238
15 0.00142
15.05 0.00112
15.1 0.00214
15.15 0.0006
15.2 -0.00016
15.25 0.00061
15.3 0.00181
15.35 0.0021
15.4 0.0014
15.45 0.00076
15.5 0.00114
15.55 0.0014
15.6 0.00221
15.65 0.00109
15.7 -0.00132
15.75 -0.00445
15.8 -0.00505
15.85 -0.00356
15.9 -0.00192
15.95 0.0006
16 0.0002
16.05 -0.00031
16.1 0.00056
16.15 0.00048
16.2 -0.00041
16.25 -0.00053
16.3 -0.00129
16.35 -0.00156
16.4 -0.00336
16.45 -0.00356
16.5 -0.00342
16.55 -0.00151
16.6 -0.00124
16.65 -0.00025
16.7 0.00002
16.75 0.00125
16.8 0.00059
16.85 -0.00177
16.9 -0.00184
16.95 -0.00164
17 -0.00109
17.05 -0.00055
17.1 -0.00068
17.15 -0.00274
17.2 -0.00232
17.25 -0.00123
17.3 0.00045
17.35 0.00224
17.4 0.00354
17.45 0.00389
17.5 0.00512
17.55 0.0069
17.6 0.00822
17.65 0.00717
17.7 0.00384
17.75 -0.00063
17.8 -0.00471
17.85 -0.0065
17.9 -0.00805
17.95 -0.01006
18 -0.01028
18.05 -0.00807
18.1 -0.00698
18.15 -0.00589
18.2 -0.00393
18.25 -0.00131
18.3 0.00209
18.35 0.00209
18.4 0.00286
18.45 0.00349
18.5 0.00361
18.55 0.00383
18.6 0.003
18.65 0.0024
18.7 0.00279
18.75 0.00082
18.8 -0.00042
18.85 0.00032
18.9 -0.00091
18.95 -0.0028
19 -0.00335
19.05 -0.00497
19.1 -0.00702
19.15 -0.0087
19.2 -0.01017
19.25 -0.01038
19.3 -0.00823
19.35 -0.00496
19.4 -0.00447
19.45 -0.0048
19.5 -0.00553
19.55 -0.00696
19.6 -0.00667
19.65 -0.00714
19.7 -0.0057
19.75 -0.00427
19.8 -0.00247
19.85 -0.00109
19.9 -0.00021
19.95 0.001
20 0.00183
20.05 0.00046
20.1 -0.00213
20.15 -0.0037
20.2 -0.00335
20.25 -0.00141
20.3 -0.0017
20.35 -0.00256
20.4 -0.00194
20.45 -0.00224
20.5 -0.00405
20.55 -0.00427
20.6 -0.00543
20.65 -0.00451
20.7 -0.00291
20.75 -0.00089
20.8 0.0015
20.85 0.00097
20.9 0.00207
20.95 0.00421
21 0.00494
21.05 0.00669
21.1 0.00615
21.15 0.0057
21.2 0.00653
21.25 0.00554
21.3 0.00309
21.35 -0.00068
21.4 -0.00498
21.45 -0.00604
21.5 -0.00757
21.55 -0.0062
21.6 -0.00364
21.65 -0.0015
21.7 0.00114
21.75 0.00234
21.8 0.00407
21.85 0.00387
21.9 0.00253
21.95 0.00131
22 -0.00013
22.05 -0.00285
22.1 -0.00366
22.15 -0.00556
22.2 -0.00496
22.25 -0.00578
22.3 -0.00631
22.35 -0.00426
22.4 -0.00345
22.45 -0.0018
22.5 -0.00098
22.55 -0.00096
22.6 -0.00236
22.65 -0.00172
22.7 -0.00039
22.75 0.00177
22.8 0.00431
22.85 0.00376
22.9 0.00391
22.95 0.00443
23 0.00611
23.05 0.00607
23.1 0.00662
23.15 0.00808
23.2 0.00771
23.25 0.00855
23.3 0.00803
23.35 0.0054
23.4 0.00425
23.45 0.00131
23.5 -0.00189
23.55 -0.00254
23.6 -0.00241
23.65 -0.00122
23.7 -0.00222
23.75 -0.00464
23.8 -0.00474
23.85 -0.00287
23.9 -0.00263
23.95 -0.00224
24 -0.00268
24.05 -0.00382
24.1 -0.00346
24.15 -0.0026
24.2 -0.00121
24.25 -0.00096
24.3 -0.00047
24.35 0.00093
24.4 0.00013
24.45 0.00029
24.5 0.00018
24.55 -0.00037
24.6 -0.0013
24.65 -0.00102
24.7 0.00042
24.75 0.00208
24.8 0.00475
24.85 0.00574
24.9 0.00553
24.95 0.00489
25 0.00585
25.05 0.00546
25.1 0.0053
25.15 0.00363
25.2 0.00391
25.25 0.00198
25.3 0.00126
25.35 -0.00008
25.4 -0.00203
25.45 -0.00182
25.5 -0.00128
25.55 0.0006
25.6 0.00017
25.65 -0.00164
25.7 -0.00378
25.75 -0.00618
25.8 -0.00855
25.85 -0.0076
25.9 -0.00557
25.95 -0.00338
26 0.00007
26.05 0.00025
26.1 0.00006
26.15 -0.00108
26.2 -0.0026
26.25 -0.00378
26.3 -0.00481
26.35 -0.00451
26.4 -0.00442
26.45 -0.00317
26.5 -0.0006
26.55 -0.00047
26.6 0.0008
26.65 0.00296
26.7 0.00559
26.75 0.0051
26.8 0.00345
26.85 0.00206
26.9 -0.0007
26.95 -0.00363
27 -0.00682
27.05 -0.00895
27.1 -0.01076
27.15 -0.00938
27.2 -0.0084
27.25 -0.0056
27.3 -0.00224
27.35 -0.00042
27.4 0.00105
27.45 0.00301
27.5 0.0027
27.55 0.00213
27.6 0.00075
27.65 0.00117
27.7 0.00122
27.75 0.00118
27.8 -0.00067
27.85 -0.00093
27.9 -0.00071
27.95 -0.00236
28 -0.00439
28.05 -0.00524
28.1 -0.0048
28.15 -0.00468
28.2 -0.0028
28.25 -0.00226
28.3 -0.00266
28.35 -0.00151
28.4 -0.00209
28.45 -0.00148
28.5 -0.00121
28.55 -0.00215
28.6 -0.00408
28.65 -0.00683
28.7 -0.00799
28.75 -0.00866
28.8 -0.01059
28.85 -0.01206
28.9 -0.01528
28.95 -0.01955
29 -0.02373
29.05 -0.02899
29.1 -0.03635
29.15 -0.04548
29.2 -0.05654
29.25 -0.06901
29.3 -0.08335
29.35 -0.09815
29.4 -0.11404
29.45 -0.13252
29.5 -0.1521
29.55 -0.1719
29.6 -0.19468
29.65 -0.22121
29.7 -0.25038
29.75 -0.28189
29.8 -0.31557
29.85 -0.35159
29.9 -0.39178
29.95 -0.43344
30 -0.47655
30.05 -0.52296
30.1 -0.57187
30.15 -0.6214
30.2 -0.67105
30.25 -0.7241
30.3 -0.77585
30.35 -0.82836
30.4 -0.87881
30.45 -0.92856
30.5 -0.97791
30.55 -1.02496
30.6 -1.06655
30.65 -1.10195
30.7 -1.13094
30.75 -1.15406
30.8 -1.16968
30.85 -1.17944
30.9 -1.17983
30.95 -1.17336
31 -1.15796
31.05 -1.13561
31.1 -1.10617
31.15 -1.06819
31.2 -1.02282
31.25 -0.97129
31.3 -0.91463
31.35 -0.85257
31.4 -0.78379
31.45 -0.71076
31.5 -0.63479
31.55 -0.55605
31.6 -0.47461
31.65 -0.38958
31.7 -0.3052
31.75 -0.22184
31.8 -0.13814
31.85 -0.05615
31.9 0.02383
31.95 0.09936
32 0.16965
32.05 0.23782
32.1 0.30373
32.15 0.36522
32.2 0.42394
32.25 0.47791
32.3 0.52591
32.35 0.57037
32.4 0.61195
32.45 0.65187
32.5 0.68789
32.55 0.72232
32.6 0.75457
32.65 0.78289
32.7 0.80666
32.75 0.82706
32.8 0.84782
32.85 0.86567
32.9 0.88052
32.95 0.89331
33 0.90476
33.05 0.91413
33.1 0.92357
33.15 0.93363
33.2 0.94369
33.25 0.95146
33.3 0.95714
33.35 0.96206
33.4 0.96331
33.45 0.96327
33.5 0.96076
33.55 0.95659
33.6 0.94952
33.65 0.94086
33.7 0.93221
33.75 0.92038
33.8 0.90974
33.85 0.89823
33.9 0.88677
33.95 0.87116
34 0.85353
34.05 0.83352
34.1 0.81229
34.15 0.79195
34.2 0.77146
34.25 0.75017
34.3 0.72925
34.35 0.70716
34.4 0.68426
34.45 0.6636
34.5 0.6424
34.55 0.62297
34.6 0.60377
34.65 0.58391
34.7 0.5614
34.75 0.54046
34.8 0.52064
34.85 0.50049
34.9 0.47901
34.95 0.45708
35 0.43378
35.05 0.41085
35.1 0.38925
35.15 0.36869
35.2 0.34854
35.25 0.32794
35.3 0.30862
35.35 0.29032
35.4 0.272
35.45 0.25335
35.5 0.23465
35.55 0.21781
35.6 0.20198
35.65 0.18685
35.7 0.17282
35.75 0.15703
35.8 0.14284
35.85 0.12739
35.9 0.11349
35.95 0.09769
36 0.08401
36.05 0.07099
36.1 0.05813
36.15 0.04428
36.2 0.03222
36.25 0.01871
36.3 0.00567
36.35 -0.00719
36.4 -0.01899
36.45 -0.02846
36.5 -0.03714
36.55 -0.04396
36.6 -0.05282
36.65 -0.06194
36.7 -0.07208
36.75 -0.08185
36.8 -0.0899
36.85 -0.09786
36.9 -0.10335
36.95 -0.10772
37 -0.11327
37.05 -0.11745
37.1 -0.12219
37.15 -0.12674
37.2 -0.13093
37.25 -0.13515
37.3 -0.13895
37.35 -0.14105
37.4 -0.14264
37.45 -0.1425
37.5 -0.14478
37.55 -0.14574
37.6 -0.14719
37.65 -0.14735
37.7 -0.14868
37.75 -0.14884
37.8 -0.14832
37.85 -0.14811
37.9 -0.14989
37.95 -0.15032
38 -0.15251
38.05 -0.1551
38.1 -0.15679
38.15 -0.15637
38.2 -0.15614
38.25 -0.1555
38.3 -0.1531
38.35 -0.15
38.4 -0.14936
38.45 -0.14679
38.5 -0.14498
38.55 -0.14241
38.6 -0.13986
38.65 -0.13985
38.7 -0.14153
38.75 -0.14279
38.8 -0.14375
38.85 -0.14532
38.9 -0.14465
38.95 -0.1413
39 -0.13775
39.05 -0.13435
39.1 -0.12996
39.15 -0.12785
39.2 -0.1248
39.25 -0.12265
39.3 -0.12122
39.35 -0.11814
39.4 -0.11644
39.45 -0.11516
39.5 -0.11429
39.55 -0.11328
39.6 -0.11156
39.65 -0.10973
39.7 -0.1081
39.75 -0.10843
39.8 -0.10951
39.85 -0.10852
39.9 -0.10721
39.95 -0.10542
40 -0.10181
40.05 -0.09859
40.1 -0.09806
40.15 -0.09572
40.2 -0.09573
40.25 -0.09664
40.3 -0.09564
40.35 -0.09444
40.4 -0.09449
40.45 -0.09468
40.5 -0.09384
40.55 -0.09203
40.6 -0.09124
40.65 -0.08889
40.7 -0.08599
40.75 -0.08484
40.8 -0.08515
40.85 -0.08573
40.9 -0.0834
40.95 -0.08182
41 -0.07921
41.05 -0.07856
41.1 -0.07817
41.15 -0.07518
41.2 -0.07371
41.25 -0.07114
41.3 -0.06895
41.35 -0.06593
41.4 -0.06498
41.45 -0.06421
41.5 -0.06337
41.55 -0.06197
41.6 -0.06079
41.65 -0.06136
41.7 -0.05999
41.75 -0.0597
41.8 -0.0594
41.85 -0.0588
41.9 -0.05857
41.95 -0.0584
42 -0.05953
42.05 -0.05814
42.1 -0.05801
42.15 -0.05766
42.2 -0.05478
42.25 -0.05128
42.3 -0.05025
42.35 -0.04949
42.4 -0.04768
42.45 -0.04756
42.5 -0.04583
42.55 -0.04432
42.6 -0.04418
42.65 -0.04202
42.7 -0.03888
42.75 -0.03866
42.8 -0.03712
42.85 -0.03625
42.9 -0.0372
42.95 -0.03843
43 -0.03978
43.05 -0.04177
43.1 -0.04105
43.15 -0.04033
43.2 -0.03965
43.25 -0.03834
43.3 -0.03621
43.35 -0.03563
43.4 -0.03642
43.45 -0.03595
43.5 -0.03656
43.55 -0.03492
43.6 -0.03538
43.65 -0.03521
43.7 -0.03522
43.75 -0.03459
43.8 -0.03182
43.85 -0.02964
43.9 -0.02778
43.95 -0.02728
44 -0.02833
44.05 -0.0294
44.1 -0.02819
44.15 -0.0286
44.2 -0.02676
44.25 -0.02676
44.3 -0.02635
44.35 -0.02619
44.4 -0.02567
44.45 -0.02358
44.5 -0.02135
44.55 -0.02052
44.6 -0.01846
44.65 -0.01622
44.7 -0.01464
44.75 -0.01412
44.8 -0.01513
44.85 -0.01696
44.9 -0.01699
44.95 -0.01548
45 -0.01487
45.05 -0.01655
45.1 -0.01627
45.15 -0.01558
45.2 -0.01576
45.25 -0.01436
45.3 -0.01499
45.35 -0.01705
45.4 -0.01692
45.45 -0.01863
45.5 -0.02089
45.55 -0.02172
45.6 -0.02136
45.65 -0.02092
45.7 -0.0208
45.75 -0.02183
45.8 -0.02345
45.85 -0.02255
45.9 -0.02194
45.95 -0.02157
46 -0.02076
46.05 -0.01839
46.1 -0.01571
46.15 -0.01288
46.2 -0.00962
46.25 -0.00856
46.3 -0.00838
46.35 -0.00922
46.4 -0.00919
46.45 -0.00813
46.5 -0.00884
46.55 -0.01115
46.6 -0.01194
46.65 -0.01393
46.7 -0.01479
46.75 -0.01375
46.8 -0.01241
46.85 -0.01089
46.9 -0.00975
46.95 -0.00822
47 -0.00861
47.05 -0.00885
47.1 -0.00758
47.15 -0.00803
47.2 -0.01033
47.25 -0.01228
47.3 -0.01194
47.35 -0.01082
47.4 -0.01038
47.45 -0.0095
47.5 -0.00936
47.55 -0.01039
47.6 -0.00914
47.65 -0.00856
47.7 -0.00886
47.75 -0.00737
47.8 -0.00734
47.85 -0.00617
47.9 -0.00491
47.95 -0.00387
48 -0.00469
48.05 -0.00546
48.1 -0.00701
48.15 -0.00675
48.2 -0.00695
48.25 -0.00663
48.3 -0.0057
48.35 -0.00368
48.4 -0.00407
48.45 -0.0047
48.5 -0.00686
48.55 -0.00902
48.6 -0.01121
48.65 -0.0116
48.7 -0.01136
48.75 -0.01171
48.8 -0.01051
48.85 -0.00818
48.9 -0.00515
48.95 -0.00521
49 -0.00489
49.05 -0.00455
49.1 -0.00451
49.15 -0.00606
49.2 -0.00593
49.25 -0.00608
49.3 -0.00779
49.35 -0.00887
49.4 -0.01071
49.45 -0.01025
49.5 -0.00913
49.55 -0.00735
49.6 -0.00775
49.65 -0.00793
49.7 -0.00653
49.75 -0.00564
49.8 -0.00619
49.85 -0.00609
49.9 -0.00705
49.95 -0.00838
50 -0.00764
50.05 -0.00523
50.1 -0.00336
50.15 -0.00281
50.2 -0.00167
50.25 0.00063
50.3 0.0008
50.35 0.00142
50.4 0.00147
50.45 0.00027
50.5 -0.00234
50.55 -0.00591
50.6 -0.00892
50.65 -0.01138
50.7 -0.01265
50.75 -0.01167
50.8 -0.01147
50.85 -0.00908
50.9 -0.00699
50.95 -0.00465
51 -0.00331
51.05 -0.00395
51.1 -0.0025
51.15 -0.00294
51.2 -0.00308
51.25 -0.00408
51.3 -0.00568
51.35 -0.00554
51.4 -0.00517
51.45 -0.00305
51.5 -0.00049
51.55 0.00066
51.6 0.00065
51.65 0.00009
51.7 -0.00164
51.75 -0.00323
51.8 -0.0048
51.85 -0.00504
51.9 -0.00675
51.95 -0.00902
52 -0.01144
52.05 -0.01359
52.1 -0.01436
52.15 -0.0125
52.2 -0.01012
52.25 -0.0077
52.3 -0.00648
52.35 -0.00504
52.4 -0.00533
52.45 -0.00613
52.5 -0.00622
52.55 -0.00426
52.6 -0.00267
52.65 -0.00238
52.7 -0.0014
52.75 0.0008
52.8 0.00171
52.85 0.00255
52.9 0.00365
52.95 0.0054
53 0.00651
53.05 0.00807
53.1 0.00805
53.15 0.00538
53.2 0.00179
53.25 0.00061
53.3 -0.00052
53.35 -0.00108
53.4 -0.00093
53.45 -0.00066
53.5 0.00037
53.55 0.00167
53.6 0.00163
53.65 0.00302
53.7 0.00394
53.75 0.00236
53.8 0.00202
53.85 0.00093
53.9 -0.00074
53.95 -0.00002
54 -0.00047
54.05 -0.00159
54.1 -0.00294
54.15 -0.00323
54.2 -0.00312
54.25 -0.00389
54.3 -0.00297
54.35 -0.00307
54.4 -0.00278
54.45 -0.00251
54.5 -0.00345
54.55 -0.00343
54.6 -0.00377
54.65 -0.00461
54.7 -0.00547
54.75 -0.00529
54.8 -0.00616
54.85 -0.0065
54.9 -0.0045
54.95 -0.00268
55 -0.00207
55.05 -0.00189
55.1 0.00014
55.15 0.00234
55.2 0.00406
55.25 0.00386
55.3 0.00157
55.35 0.00032
55.4 -0.00074
55.45 -0.00096
55.5 -0.00044
55.55 -0.00093
55.6 -0.00205
55.65 -0.00095
55.7 -0.00009
55.75 -0.00146
55.8 -0.00307
55.85 -0.00512
55.9 -0.00444
55.95 -0.00345
56 -0.00077
56.05 -0.00003
56.1 0.00203
56.15 0.00336
56.2 0.00232
56.25 0.00054
56.3 0.00003
56.35 -0.0021
56.4 -0.00417
56.45 -0.00391
56.5 -0.00238
56.55 -0.00007
56.6 0.00146
56.65 0.00161
56.7 0.00274
56.75 0.00221
56.8 0.0014
56.85 0.00063
56.9 0.00135
56.95 0.00228
57 0.00253
57.05 0.00314
57.1 0.00421
57.15 0.00384
57.2 0.00139
57.25 0.00039
57.3 -0.00003
57.35 0.00083
57.4 0.00017
57.45 -0.00017
57.5 -0.00071
57.55 -0.00086
57.6 0.00079
57.65 0.00074
57.7 0.00221
57.75 0.00396
57.8 0.00387
57.85 0.00247
57.9 0.00098
57.95 0.00168
58 0.00329
58.05 0.00361
58.1 0.00473
58.15 0.00624
58.2 0.00696
58.25 0.00672
58.3 0.00399
58.35 0.0011
58.4 0.00087
58.45 0.00199
58.5 0.00387
58.55 0.0062
58.6 0.0081
58.65 0.0097
58.7 0.01002
58.75 0.00998
58.8 0.00754
58.85 0.00588
58.9 0.00227
58.95 -0.00121
59 -0.00249
59.05 -0.00318
59.1 -0.00373
59.15 -0.00347
59.2 -0.00301
59.25 -0.00219
59.3 -0.00285
59.35 -0.00258
59.4 -0.00425
59.45 -0.0068
59.5 -0.00889
59.55 -0.00944
59.6 -0.00942
59.65 -0.0072
59.7 -0.00473
59.75 -0.00111
59.8 0.00296
59.85 0.00417
59.9 0.00362
59.95 0.00418
60 0.00411
60.05 0.00231
60.1 0.00178
60.15 0.003
60.2 0.00435
60.25 0.00282
60.3 0.00112
60.35 -0.00169
60.4 -0.00431
60.45 -0.00411
60.5 -0.0027
60.55 -0.00156
60.6 0.00063
60.65 0.0023
60.7 0.0041
60.75 0.0062
60.8 0.00592
60.85 0.0042
60.9 0.00227
60.95 -0.00118
61 -0.0024
61.05 -0.00366
61.1 -0.00592
61.15 -0.0072
61.2 -0.00692
61.25 -0.00747
61.3 -0.00822
61.35 -0.00919
61.4 -0.00989
61.45 -0.01078
61.5 -0.01232
61.55 -0.01323
61.6 -0.01258
61.65 -0.01305
61.7 -0.01048
61.75 -0.00923
61.8 -0.00729
61.85 -0.00726
61.9 -0.00548
61.95 -0.0057
62 -0.00422
62.05 -0.00211
62.1 0.00085
62.15 0.00097
62.2 0.00224
62.25 0.00292
62.3 0.00164
62.35 0.00099
62.4 0.00229
62.45 0.00149
62.5 0.0024
62.55 0.00231
62.6 0.00275
62.65 0.00229
62.7 0.0013
62.75 -0.00079
62.8 -0.00105
62.85 -0.00154
62.9 -0.00169
62.95 -0.00176
63 0.00006
63.05 0.00246
63.1 0.00239
63.15 0.00245
63.2 0.00195
63.25 0.0033
63.3 0.00438
63.35 0.00449
63.4 0.00278
63.45 0.0023
63.5 0.0025
63.55 0.00249
63.6 0.00245
63.65 0.00142
63.7 -0.00104
63.75 -0.00278
63.8 -0.00486
63.85 -0.00724
63.9 -0.008
63.95 -0.00668
64 -0.00651
64.05 -0.00519
64.1 -0.00323
64.15 -0.00102
64.2 0.00151
64.25 0.00373
64.3 0.00343
64.35 0.00248
64.4 0.00297
64.45 0.00187
64.5 0.00074
64.55 0.00129
64.6 0.00187
64.65 0.00082
64.7 -0.00139
64.75 -0.00179
64.8 -0.0033
64.85 -0.00322
64.9 -0.00443
64.95 -0.00423
65 -0.00273
65.05 -0.00123
65.1 0.00133
65.15 0.00278
65.2 0.0021
65.25 0.00329
65.3 0.00228
65.35 0.00154
65.4 -0.00009
65.45 -0.00269
65.5 -0.00472
65.55 -0.00565
65.6 -0.00595
65.65 -0.0046
65.7 -0.00162
65.75 -0.00124
65.8 -0.00045
65.85 0.00066
65.9 0.00286
65.95 0.00575
66 0.00818
66.05 0.0089
66.1 0.00686
66.15 0.00475
66.2 0.00176
66.25 0.00097
66.3 0.00028
66.35 -0.00149
66.4 -0.00266
66.45 -0.00422
66.5 -0.00657
66.55 -0.00569
66.6 -0.0039
66.65 -0.00232
66.7 -0.00019
66.75 0.00265
66.8 0.00317
66.85 0.00182
66.9 -0.00102
66.95 -0.00233
67 -0.00338
67.05 -0.00461
67.1 -0.00336
67.15 -0.00211
67.2 -0.00277
67.25 -0.00256
67.3 -0.00137
67.35 0.00127
67.4 0.00161
67.45 0.00183
67.5 0.00022
67.55 0.00001
67.6 -0.00125
67.65 -0.00362
67.7 -0.00571
67.75 -0.00785
67.8 -0.01008
67.85 -0.01181
67.9 -0.01235
67.95 -0.01118
68 -0.01044
68.05 -0.00819
68.1 -0.00486
68.15 -0.0015
68.2 0.00066
68.25 0.0039
68.3 0.00413
68.35 0.00403
68.4 0.00255
68.45 0.00281
68.5 0.00348
68.55 0.00183
68.6 -0.00084
68.65 -0.00156
68.7 -0.00318
68.75 -0.00457
68.8 -0.0067
68.85 -0.00554
68.9 -0.00351
68.95 -0.00196
69 0.00097
69.05 0.00259
69.1 0.00331
69.15 0.00481
69.2 0.00635
69.25 0.00837
69.3 0.00768
69.35 0.00818
69.4 0.00812
69.45 0.00898
69.5 0.0085
69.55 0.00633
69.6 0.00605
69.65 0.0045
69.7 0.00403
69.75 0.00196
69.8 0.00062
69.85 -0.00175
69.9 -0.00362
69.95 -0.0036
70 -0.00501
70.05 -0.00551
70.1 -0.00478
70.15 -0.00257
70.2 0.00015
70.25 0.00245
70.3 0.00442
70.35 0.00438
70.4 0.00319
70.45 0.00363
70.5 0.00338
70.55 0.00456
70.6 0.00389
70.65 0.00144
70.7 -0.00204
70.75 -0.0051
70.8 -0.00652
70.85 -0.00758
70.9 -0.00825
70.95 -0.00985
71 -0.01063
71.05 -0.00952
71.1 -0.00652
71.15 -0.00322
71.2 -0.00091
71.25 -0.00065
71.3 -0.00153
71.35 -0.00052
71.4 0.00021
71.45 0.00067
71.5 -0.00027
71.55 0.00034
71.6 0.00087
71.65 0.00217
71.7 0.00228
71.75 0.00057
71.8 -0.00146
71.85 -0.0008
71.9 0.00142
71.95 0.00436
72 0.00421
72.05 0.00255
72.1 0.00248
72.15 0.00346
72.2 0.00512
72.25 0.00755
72.3 0.00704
72.35 0.00601
72.4 0.00303
72.45 0.00146
72.5 0.00141
72.55 0.0027
72.6 0.00368
72.65 0.00286
72.7 0.00398
72.75 0.00335
72.8 0.0022
72.85 -0.0002
72.9 -0.00194
72.95 -0.00387
73 -0.00632
73.05 -0.00632
73.1 -0.00444
73.15 -0.00472
73.2 -0.00439
73.25 -0.00259
73.3 -0.00208
73.35 -0.00062
73.4 -0.0011
73.45 -0.00035
73.5 0.00177
73.55 0.0015
73.6 0.00176
73.65 0.00245
73.7 0.00283
73.75 0.00385
73.8 0.00566
73.85 0.00816
73.9 0.00945
73.95 0.0099
74 0.01103
74.05 0.00904
74.1 0.00783
74.15 0.00787
74.2 0.00581
74.25 0.00377
74.3 0.0025
74.35 0.00306
74.4 0.00119
74.45 -0.0017
74.5 -0.00172
74.55 -0.00325
74.6 -0.00275
74.65 -0.00099
74.7 -0.00001
74.75 0.00077
74.8 0.00183
74.85 0.00351
74.9 0.00492
74.95 0.00579
75 0.00645
75.05 0.00502
75.1 0.0037
75.15 0.00179
75.2 -0.00016
75.25 -0.00185
75.3 -0.00395
75.35 -0.00697
75.4 -0.00678
75.45 -0.00485
75.5 -0.00325
75.55 -0.00168
75.6 -0.00022
75.65 0.00092
75.7 0.00299
75.75 0.00436
75.8 0.00585
75.85 0.00475
75.9 0.00189
75.95 -0.00177
76 -0.00529
76.05 -0.00866
76.1 -0.00838
76.15 -0.007
76.2 -0.00505
76.25 -0.00509
76.3 -0.00295
76.35 -0.00239
76.4 -0.00254
76.45 -0.00207
76.5 -0.00195
76.55 -0.00028
76.6 0.00251
76.65 0.00471
76.7 0.00401
76.75 0.00315
76.8 0.00331
76.85 0.00169
76.9 0.00014
76.95 0.00053
77 -0.00017
77.05 -0.00178
77.1 -0.00139
77.15 -0.00045
77.2 -0.00038
77.25 -0.0002
77.3 0.00172
77.35 0.00115
77.4 -0.00116
77.45 -0.00303
77.5 -0.00481
77.55 -0.0058
77.6 -0.00425
77.65 -0.00356
77.7 -0.00402
77.75 -0.00262
77.8 0.00002
77.85 0.00314
77.9 0.00541
77.95 0.00699
78 0.00764
78.05 0.00767
78.1 0.00868
78.15 0.00735
78.2 0.0075
78.25 0.0057
78.3 0.00577
78.35 0.00651
78.4 0.00439
78.45 0.00109
78.5 -0.00292
78.55 -0.00431
78.6 -0.00429
78.65 -0.00319
78.7 -0.00195
78.75 -0.00246
78.8 -0.00292
78.85 -0.00467
78.9 -0.00602
78.95 -0.00589
79 -0.00726
79.05 -0.00612
79.1 -0.006
79.15 -0.00434
79.2 -0.0019
79.25 0.00017
79.3 0.00312
79.35 0.00577
79.4 0.0075
79.45 0.00812
79.5 0.00898
79.55 0.00922
79.6 0.00931
79.65 0.00672
79.7 0.00537
79.75 0.00579
79.8 0.00417
79.85 0.00404
79.9 0.00456
79.95 0.00303
80 0.00193
80.05 -0.00058
80.1 -0.00381
80.15 -0.00714
80.2 -0.01043
80.25 -0.01169
80.3 -0.01308
80.35 -0.01317
80.4 -0.0108
80.45 -0.00672
80.5 -0.00549
80.55 -0.0034
80.6 -0.00139
80.65 -0.00199
80.7 -0.00275
80.75 -0.00197
80.8 -0.00035
80.85 0.00241
80.9 0.00331
80.95 0.00299
81 0.00084
81.05 -0.00162
81.1 -0.0022
81.15 -0.00148
81.2 0.00049
81.25 0.0018
81.3 0.00403
81.35 0.00308
81.4 0.00222
81.45 0.0029
81.5 0.00285
81.55 0.00132
81.6 -0.00049
81.65 -0.00099
81.7 -0.00145
81.75 -0.00045
81.8 0.0013
81.85 0.00369
81.9 0.00527
81.95 0.0051
82 0.00575
82.05 0.00643
82.1 0.00743
82.15 0.00573
82.2 0.00588
82.25 0.00439
82.3 0.00379
82.35 0.00462
82.4 0.00365
82.45 0.00295
82.5 0.00343
82.55 0.00266
82.6 0.00064
82.65 -0.00152
82.7 -0.00188
82.75 -0.00287
82.8 -0.0019
82.85 -0.00069
82.9 0.00173
82.95 0.00117
83 -0.00046
83.05 -0.00119
83.1 -0.00053
83.15 -0.00075
83.2 -0.00065
83.25 0.00007
83.3 -0.00108
83.35 -0.00056
83.4 0.00119
83.45 0.00077
83.5 -0.00153
83.55 -0.00337
83.6 -0.00588
83.65 -0.00536
83.7 -0.003
83.75 -0.00288
83.8 -0.00441
83.85 -0.00648
83.9 -0.006
83.95 -0.00701
84 -0.00662
84.05 -0.00777
84.1 -0.00957
84.15 -0.00972
84.2 -0.00731
84.25 -0.0036
84.3 0.00052
84.35 0.00263
84.4 0.00354
84.45 0.00533
84.5 0.00749
84.55 0.00651
84.6 0.00432
84.65 0.00407
84.7 0.00265
84.75 0.00219
84.8 0.00216
84.85 0.00044
84.9 -0.00053
84.95 -0.00307
85 -0.00371
85.05 -0.00207
85.1 -0.00289
85.15 -0.00177
85.2 0.00043
85.25 0.00335
85.3 0.00536
85.35 0.00652
85.4 0.007
85.45 0.0051
85.5 0.00273
85.55 0.00161
85.6 0.00079
85.65 -0.00043
85.7 -0.00017
85.75 -0.00045
85.8 -0.00126
85.85 -0.00089
85.9 -0.00135
85.95 -0.00224
86 -0.0028
86.05 -0.00493
86.1 -0.0054
86.15 -0.00548
86.2 -0.00435
86.25 -0.00219
86.3 0.00093
86.35 0.00096
86.4 0.0005
86.45 -0.00177
86.5 -0.00342
86.55 -0.00558
86.6 -0.00558
86.65 -0.00484
86.7 -0.00489
86.75 -0.00427
86.8 -0.00275
86.85 -0.00207
86.9 -0.00302
86.95 -0.00276
87 -0.00296
87.05 -0.00207
87.1 -0.0022
87.15 -0.00382
87.2 -0.00279
87.25 -0.00316
87.3 -0.00424
87.35 -0.00454
87.4 -0.00263
87.45 -0.00295
87.5 -0.00304
87.55 -0.00364
87.6 -0.00271
87.65 -0.00287
87.7 -0.00248
87.75 -0.00188
87.8 -0.00029
87.85 0.0001
87.9 0.0011
87.95 0.00145
88 0.00144
88.05 0.00241
88.1 0.00239
88.15 0.00198
88.2 0.00287
88.25 0.00372
88.3 0.0029
88.35 0.0009
88.4 0.00091
88.45 0.0013
88.5 0.00256
88.55 0.00419
88.6 0.00451
88.65 0.00316
88.7 0.00124
88.75 -0.0019
88.8 -0.00561
88.85 -0.0088
88.9 -0.00999
88.95 -0.00907
89 -0.00723
89.05 -0.00713
89.1 -0.00806
89.15 -0.00954
89.2 -0.00825
89.25 -0.00752
89.3 -0.00716
89.35 -0.00693
89.4 -0.00557
89.45 -0.00378
89.5 -0.00085
89.55 0.00286
89.6 0.00365
89.65 0.00492
89.7 0.00468
89.75 0.00232
89.8 0.00037
89.85 -0.00259
89.9 -0.00359
89.95 -0.00302
90 -0.00149
90.05 0.00115
90.1 0.00413
90.15 0.00497
90.2 0.00672
90.25 0.0062
90.3 0.00564
90.35 0.00482
90.4 0.00452
90.45 0.00373
90.5 0.00354
90.55 0.00262
90.6 0.002
90.65 0.00123
90.7 0.00162
90.75 0.00137
90.8 0.00008
90.85 -0.00236
90.9 -0.00226
90.95 -0.00139
91 0.00073
91.05 0.00111
91.1 0.00257
91.15 0.00297
91.2 0.00114
91.25 0.00148
91.3 0.00237
91.35 0.00356
91.4 0.00264
91.45 0.00049
91.5 0.00037
91.55 -0.00023
91.6 -0.00002
91.65 0.00153
91.7 0.00349
91.75 0.0028
91.8 0.00389
91.85 0.00516
91.9 0.00436
91.95 0.00492
92 0.00593
92.05 0.00735
92.1 0.00684
92.15 0.00659
92.2 0.00527
92.25 0.00245
92.3 0.00064
92.35 -0.00196
92.4 -0.00307
92.45 -0.00535
92.5 -0.008
92.55 -0.00943
92.6 -0.00795
92.65 -0.00825
92.7 -0.00915
92.75 -0.00773
92.8 -0.00555
92.85 -0.00209
92.9 -0.0005
92.95 0.00008
93 0.00162
93.05 0.0014
93.1 0.00258
93.15 0.00287
93.2 0.00451
93.25 0.00564
93.3 0.00596
93.35 0.00524
93.4 0.00551
93.45 0.00498
93.5 0.00583
93.55 0.00409
93.6 0.00303
93.65 0.00277
93.7 0.0013
93.75 0.00058
93.8 0.00094
93.85 0.00036
93.9 -0.00191
93.95 -0.00482
94 -0.00557
94.05 -0.00533
94.1 -0.00665
94.15 -0.00874
94.2 -0.00769
94.25 -0.00623
94.3 -0.00429
94.35 -0.00214
94.4 -0.0004
94.45 0.00036
94.5 -0.0011
94.55 -0.00384
94.6 -0.0056
94.65 -0.00784
94.7 -0.00963
94.75 -0.00956
94.8 -0.01009
94.85 -0.00925
94.9 -0.00772
94.95 -0.0075
95 -0.00759
95.05 -0.00855
95.1 -0.00679
95.15 -0.00589
95.2 -0.00599
95.25 -0.00524
95.3 -0.00308
95.35 -0.00082
95.4 -0.0007
95.45 0.00127
95.5 0.00154
95.55 0.00245
95.6 0.00467
95.65 0.00681
95.7 0.00921
95.75 0.00971
95.8 0.01032
95.85 0.01038
95.9 0.0079
95.95 0.006
96 0.00337
96.05 0.00125
96.1 -0.00191
96.15 -0.00391
96.2 -0.00487
96.25 -0.00687
96.3 -0.00743
96.35 -0.00741
96.4 -0.00697
96.45 -0.00451
96.5 -0.00297
96.55 -0.00324
96.6 -0.00379
96.65 -0.00478
96.7 -0.00353
96.75 -0.00192
96.8 -0.00197
96.85 -0.00185
96.9 -0.00082
96.95 -0.0012
97 -0.0011
97.05 -0.00275
97.1 -0.00394
97.15 -0.00497
97.2 -0.00388
97.25 -0.00359
97.3 -0.00394
97.35 -0.00262
97.4 -0.00213
97.45 -0.00177
97.5 -0.00044
97.55 0.00028
97.6 0.0022
97.65 0.00295
97.7 0.00277
97.75 0.00158
97.8 0.0018
97.85 -0.00002
97.9 -0.00058
97.95 -0.00228
98 -0.0027
98.05 -0.00417
98.1 -0.0053
98.15 -0.00425
98.2 -0.00455
98.25 -0.0048
98.3 -0.00457
98.35 -0.004
98.4 -0.00494
98.45 -0.00558
98.5 -0.00728
98.55 -0.00585
98.6 -0.00588
98.65 -0.00527
98.7 -0.00497
98.75 -0.00412
98.8 -0.00469
98.85 -0.00398
98.9 -0.0043
98.95 -0.00536
99 -0.00709
99.05 -0.00842
99.1 -0.00816
99.15 -0.00755
99.2 -0.00527
99.25 -0.00183
99.3 -0.00012
99.35 0.00207
99.4 0.0053
99.45 0.0055
99.5 0.00705
99.55 0.00773
99.6 0.00896
99.65 0.01036
99.7 0.01024
99.75 0.00894
99.8 0.00624
99.85 0.00592
99.9 0.00703
99.95 0.00694
