0 0
0.05 0.00169
0.1 0.00511
0.15 0.01262
0.2 0.01759
0.25 0.02037
0.3 0.02295
0.35 0.02663
0.4 0.02769
0.45 0.02601
0.5 0.03103
0.55 0.03273
0.6 0.03245
0.65 0.03807
0.7 0.0458
0.75 0.05317
0.8 0.05882
0.85 0.05972
0.9 0.06059
0.95 0.06244
1 0.06267
1.05 0.06136
1.1 0.06075
1.15 0.06267
1.2 0.05866
1.25 0.05369
1.3 0.05005
1.35 0.05066
1.4 0.04823
1.45 0.04721
1.5 0.04888
1.55 0.0508
1.6 0.04842
1.65 0.04284
1.7 0.03858
1.75 0.03809
1.8 0.03654
1.85 0.03721
1.9 0.03918
1.95 0.03713
2 0.03655
2.05 0.03225
2.1 0.02632
2.15 0.0258
2.2 0.02308
2.25 0.02559
2.3 0.03055
2.35 0.03233
2.4 0.03321
2.45 0.03527
2.5 0.03957
2.55 0.0377
2.6 0.03232
2.65 0.02594
2.7 0.02541
2.75 0.02695
2.8 0.03224
2.85 0.03285
2.9 0.03335
2.95 0.03015
3 0.02898
3.05 0.02905
3.1 0.02941
3.15 0.02636
3.2 0.02199
3.25 0.01985
3.3 0.01916
3.35 0.0202
3.4 0.01842
3.45 0.01381
3.5 0.01168
3.55 0.01297
3.6 0.01693
3.65 0.02003
3.7 0.02234
3.75 0.02278
3.8 0.01979
3.85 0.01304
3.9 0.01237
3.95 0.00776
4 0.00862
4.05 0.00546
4.1 0.00708
4.15 0.00483
4.2 0.00392
4.25 0.00761
4.3 0.00975
4.35 0.01118
4.4 0.01031
4.45 0.00806
4.5 0.00254
4.55 -0.00844
4.6 -0.02537
4.65 -0.04553
4.7 -0.06237
4.75 -0.08298
4.8 -0.10898
4.85 -0.13406
4.9 -0.16497
4.95 -0.20014
5 -0.23763
5.05 -0.27905
5.1 -0.32676
5.15 -0.37905
5.2 -0.44045
5.25 -0.5109
5.3 -0.583
5.35 -0.6596
5.4 -0.74822
5.45 -0.83816
5.5 -0.92993
5.55 -1.0305
5.6 -1.13393
5.65 -1.24031
5.7 -1.34078
5.75 -1.4419
5.8 -1.54244
5.85 -1.64112
5.9 -1.73117
5.95 -1.81894
6 -1.90537
6.05 -1.98237
6.1 -2.05964
6.15 -2.12892
6.2 -2.1954
6.25 -2.2531
6.3 -2.30936
6.35 -2.36039
6.4 -2.41023
6.45 -2.45332
6.5 -2.48903
6.55 -2.51576
6.6 -2.53095
6.65 -2.53041
6.7 -2.51558
6.75 -2.48545
6.8 -2.44562
6.85 -2.39608
6.9 -2.3315
6.95 -2.24701
7 -2.14183
7.05 -2.0204
7.1 -1.88227
7.15 -1.73239
7.2 -1.57517
7.25 -1.40117
7.3 -1.21369
7.35 -1.01958
7.4 -0.81857
7.45 -0.61795
7.5 -0.4139
7.55 -0.21109
7.6 -0.00864
7.65 0.19369
7.7 0.38564
7.75 0.57139
7.8 0.75371
7.85 0.92233
7.9 1.07856
7.95 1.22336
8 1.35618
8.05 1.47996
8.1 1.59465
8.15 1.70298
8.2 1.79883
8.25 1.885
8.3 1.95905
8.35 2.02386
8.4 2.07806
8.45 2.12476
8.5 2.15777
8.55 2.18841
8.6 2.21178
8.65 2.22841
8.7 2.23644
8.75 2.24152
8.8 2.2406
8.85 2.23574
8.9 2.23043
8.95 2.22118
9 2.2118
9.05 2.1954
9.1 2.1761
9.15 2.15658
9.2 2.13811
9.25 2.12175
9.3 2.10683
9.35 2.09271
9.4 2.07267
9.45 2.05309
9.5 2.03399
9.55 2.00827
9.6 1.9775
9.65 1.94076
9.7 1.906
9.75 1.87191
9.8 1.838
9.85 1.80707
9.9 1.77252
9.95 1.73264
10 1.69478
10.05 1.65408
10.1 1.61166
10.15 1.57235
10.2 1.53614
10.25 1.49484
10.3 1.45306
10.35 1.41312
10.4 1.36901
10.45 1.32582
10.5 1.28169
10.55 1.23907
10.6 1.19364
10.65 1.14518
10.7 1.09477
10.75 1.04322
10.8 0.99255
10.85 0.94092
10.9 0.89519
10.95 0.85247
11 0.80877
11.05 0.76568
11.1 0.71946
11.15 0.67604
11.2 0.63118
11.25 0.58577
11.3 0.54263
11.35 0.50501
11.4 0.46427
11.45 0.42217
11.5 0.38328
11.55 0.3465
11.6 0.31409
11.65 0.28108
11.7 0.24651
11.75 0.20667
11.8 0.16796
11.85 0.12902
11.9 0.08974
11.95 0.05628
12 0.02404
12.05 -0.0046
12.1 -0.0314
12.15 -0.0601
12.2 -0.08338
12.25 -0.10887
12.3 -0.13415
12.35 -0.15625
12.4 -0.17953
12.45 -0.19933
12.5 -0.21371
12.55 -0.22198
12.6 -0.2323
12.65 -0.23988
12.7 -0.24559
12.75 -0.25629
12.8 -0.26889
12.85 -0.27823
12.9 -0.28644
12.95 -0.29877
13 -0.31356
13.05 -0.32519
13.1 -0.3378
13.15 -0.34387
13.2 -0.34461
13.25 -0.34893
13.3 -0.35145
13.35 -0.35055
13.4 -0.35363
13.45 -0.35616
13.5 -0.35516
13.55 -0.35495
13.6 -0.35712
13.65 -0.3605
13.7 -0.35946
13.75 -0.35754
13.8 -0.36088
13.85 -0.36752
13.9 -0.37091
13.95 -0.36881
14 -0.36826
14.05 -0.3717
14.1 -0.37314
14.15 -0.37044
14.2 -0.3631
14.25 -0.36108
14.3 -0.36132
14.35 -0.3607
14.4 -0.3622
14.45 -0.36358
14.5 -0.3578
14.55 -0.35068
14.6 -0.33938
14.65 -0.33193
14.7 -0.32443
14.75 -0.31625
14.8 -0.30764
14.85 -0.30291
14.9 -0.30171
14.95 -0.30196
15 -0.2991
15.05 -0.29394
15.1 -0.2906
15.15 -0.28757
15.2 -0.28116
15.25 -0.28073
15.3 -0.28384
15.35 -0.28512
15.4 -0.28794
15.45 -0.29171
15.5 -0.29431
15.55 -0.28772
15.6 -0.27999
15.65 -0.27178
15.7 -0.26195
15.75 -0.25019
15.8 -0.24458
15.85 -0.23556
15.9 -0.22756
15.95 -0.2187
16 -0.21226
16.05 -0.21073
16.1 -0.20908
16.15 -0.20349
16.2 -0.2037
16.25 -0.20251
16.3 -0.19989
16.35 -0.19524
16.4 -0.1932
16.45 -0.18944
16.5 -0.18721
16.55 -0.18627
16.6 -0.1872
16.65 -0.18858
16.7 -0.19282
16.75 -0.19207
16.8 -0.19025
16.85 -0.18965
16.9 -0.19157
16.95 -0.18979
17 -0.18247
17.05 -0.17496
17.1 -0.16485
17.15 -0.15288
17.2 -0.149
17.25 -0.14243
17.3 -0.13457
17.35 -0.12815
17.4 -0.12421
17.45 -0.12696
17.5 -0.12598
17.55 -0.12985
17.6 -0.1286
17.65 -0.13149
17.7 -0.13763
17.75 -0.13727
17.8 -0.13145
17.85 -0.12722
17.9 -0.12146
17.95 -0.11878
18 -0.1159
18.05 -0.11081
18.1 -0.11114
18.15 -0.11432
18.2 -0.11955
18.25 -0.1258
18.3 -0.13215
18.35 -0.13168
18.4 -0.12499
18.45 -0.11795
18.5 -0.11317
18.55 -0.11073
18.6 -0.10476
18.65 -0.09919
18.7 -0.09218
18.75 -0.08423
18.8 -0.08172
18.85 -0.08299
18.9 -0.08354
18.95 -0.08199
19 -0.07722
19.05 -0.0784
19.1 -0.07995
19.15 -0.077
19.2 -0.0741
19.25 -0.07113
19.3 -0.06615
19.35 -0.06109
19.4 -0.05589
19.45 -0.05244
19.5 -0.05289
19.55 -0.05097
19.6 -0.04854
19.65 -0.05373
19.7 -0.05862
19.75 -0.06343
19.8 -0.06518
19.85 -0.06989
19.9 -0.06891
19.95 -0.07104
20 -0.07606
20.05 -0.07431
20.1 -0.07454
20.15 -0.0695
20.2 -0.06156
20.25 -0.05247
20.3 -0.05129
20.35 -0.04866
20.4 -0.05248
20.45 -0.05279
20.5 -0.0493
20.55 -0.04698
20.6 -0.04386
20.65 -0.04454
20.7 -0.04731
20.75 -0.04795
20.8 -0.04505
20.85 -0.04443
20.9 -0.04494
20.95 -0.04467
21 -0.04914
21.05 -0.05441
21.1 -0.0541
21.15 -0.04908
21.2 -0.04617
21.25 -0.04822
21.3 -0.04942
21.35 -0.04779
21.4 -0.04522
21.45 -0.04446
21.5 -0.04712
21.55 -0.04849
21.6 -0.05001
21.65 -0.05352
21.7 -0.05378
21.75 -0.04876
21.8 -0.04856
21.85 -0.0462
21.9 -0.04338
21.95 -0.039
22 -0.0318
22.05 -0.02636
22.1 -0.02421
22.15 -0.02784
22.2 -0.03387
22.25 -0.03672
22.3 -0.03477
22.35 -0.03121
22.4 -0.03196
22.45 -0.03574
22.5 -0.04173
22.55 -0.04144
22.6 -0.03682
22.65 -0.03652
22.7 -0.03708
22.75 -0.03617
22.8 -0.03072
22.85 -0.03176
22.9 -0.02848
22.95 -0.02334
23 -0.01807
23.05 -0.01882
23.1 -0.02274
23.15 -0.02734
23.2 -0.02987
23.25 -0.03339
23.3 -0.03789
23.35 -0.03597
23.4 -0.0336
23.45 -0.03085
23.5 -0.02502
23.55 -0.01871
23.6 -0.01584
23.65 -0.01188
23.7 -0.0131
23.75 -0.0189
23.8 -0.02261
23.85 -0.02117
23.9 -0.02466
23.95 -0.02559
24 -0.02839
24.05 -0.02982
24.1 -0.03363
24.15 -0.03373
24.2 -0.03087
24.25 -0.02624
24.3 -0.01947
24.35 -0.01898
24.4 -0.02246
24.45 -0.02829
24.5 -0.03254
24.55 -0.03618
24.6 -0.03713
24.65 -0.04023
24.7 -0.0436
24.75 -0.03909
24.8 -0.03117
24.85 -0.02214
24.9 -0.01835
24.95 -0.01839
25 -0.01832
25.05 -0.01409
25.1 -0.01251
25.15 -0.01347
25.2 -0.00982
25.25 -0.0108
25.3 -0.00945
25.35 -0.00735
25.4 -0.00684
25.45 -0.00556
25.5 -0.00326
25.55 0.00135
25.6 -0.00108
25.65 0.0002
25.7 0.00453
25.75 0.00741
25.8 0.00361
25.85 0.00135
25.9 -0.00126
25.95 -0.00796
26 -0.01483
26.05 -0.01554
26.1 -0.01304
26.15 -0.01463
26.2 -0.01651
26.25 -0.01929
26.3 -0.01883
26.35 -0.02024
26.4 -0.01638
26.45 -0.0154
26.5 -0.00969
26.55 -0.00627
26.6 -0.00844
26.65 -0.0104
26.7 -0.011
26.75 -0.01075
26.8 -0.01016
26.85 -0.00511
26.9 -0.00628
26.95 -0.00443
27 -0.00806
27.05 -0.00918
27.1 -0.00902
27.15 -0.00559
27.2 -0.00409
27.25 -0.00765
27.3 -0.0087
27.35 -0.00863
27.4 -0.00853
27.45 -0.01292
27.5 -0.01241
27.55 -0.01228
27.6 -0.01346
27.65 -0.01608
27.7 -0.02028
27.75 -0.02332
27.8 -0.02711
27.85 -0.0322
27.9 -0.03239
27.95 -0.03116
28 -0.02434
28.05 -0.02062
28.1 -0.01306
28.15 -0.00572
28.2 -0.0004
28.25 0.0038
28.3 0.00816
28.35 0.01046
28.4 0.01411
28.45 0.01518
28.5 0.01879
28.55 0.02252
28.6 0.02027
28.65 0.01252
28.7 0.00994
28.75 0.0097
28.8 0.00952
28.85 0.0039
28.9 0.00373
28.95 0.00175
29 -0.00393
29.05 -0.00502
29.1 -0.00254
29.15 -0.00559
29.2 -0.0076
29.25 -0.00813
29.3 -0.01103
29.35 -0.01013
29.4 -0.00831
29.45 -0.01102
29.5 -0.01484
29.55 -0.01745
29.6 -0.01763
29.65 -0.01986
29.7 -0.0189
29.75 -0.02013
29.8 -0.01776
29.85 -0.0192
29.9 -0.01501
29.95 -0.01524
30 -0.00995
30.05 -0.00219
30.1 0.00352
30.15 0.00846
30.2 0.01392
30.25 0.01853
30.3 0.02225
30.35 0.01922
30.4 0.01116
30.45 0.00262
30.5 -0.00121
30.55 -0.00531
30.6 -0.00648
30.65 -0.01013
30.7 -0.00953
30.75 -0.01167
30.8 -0.0119
30.85 -0.01348
30.9 -0.01118
30.95 -0.00481
31 -0.00466
31.05 -0.00207
31.1 -0.0026
31.15 -0.00397
31.2 -0.00248
31.25 0.0008
31.3 0.00283
31.35 -0.0005
31.4 -0.00385
31.45 -0.00765
31.5 -0.00735
31.55 -0.00221
31.6 0.00549
31.65 0.00782
31.7 0.01295
31.75 0.01775
31.8 0.01625
31.85 0.01792
31.9 0.01749
31.95 0.01583
32 0.01329
32.05 0.00821
32.1 0.00566
32.15 0.00714
32.2 0.01095
32.25 0.015
32.3 0.01535
32.35 0.01539
32.4 0.01136
32.45 0.00831
32.5 0.00108
32.55 -0.00822
32.6 -0.00914
32.65 -0.01211
32.7 -0.00988
32.75 -0.00775
32.8 -0.00729
32.85 -0.0046
32.9 -0.00267
32.95 0.0028
33 0.00697
33.05 0.01192
33.1 0.01031
33.15 0.01107
33.2 0.00772
33.25 0.00248
33.3 -0.00226
33.35 -0.00202
33.4 -0.00175
33.45 0.00057
33.5 0.00091
33.55 -0.00272
33.6 -0.00335
33.65 -0.00778
33.7 -0.0071
33.75 -0.00982
33.8 -0.01381
33.85 -0.01477
33.9 -0.01328
33.95 -0.00711
34 -0.00682
34.05 -0.00501
34.1 -0.005
34.15 -0.0029
34.2 0.00177
34.25 0.00607
34.3 0.01194
34.35 0.01842
34.4 0.01854
34.45 0.01677
34.5 0.01786
34.55 0.02102
34.6 0.02309
34.65 0.02052
34.7 0.01888
34.75 0.01689
34.8 0.01453
34.85 0.01149
34.9 0.00778
34.95 0.00377
35 0.00058
35.05 -0.00224
35.1 -0.00332
35.15 -0.00598
35.2 -0.00614
35.25 -0.00617
35.3 -0.00953
35.35 -0.01537
35.4 -0.02173
35.45 -0.02643
35.5 -0.03128
35.55 -0.03016
35.6 -0.03012
35.65 -0.0267
35.7 -0.01809
35.75 -0.01041
35.8 -0.00808
35.85 -0.00773
35.9 -0.00611
35.95 -0.00047
36 0.00262
36.05 0.00218
36.1 0.00349
36.15 0.00484
36.2 0.00638
36.25 0.00229
36.3 0.00216
36.35 0.00573
36.4 0.0029
36.45 0.00208
36.5 0.00252
36.55 0.00638
36.6 0.01163
36.65 0.01634
36.7 0.01566
36.75 0.01384
36.8 0.01403
36.85 0.00808
36.9 0.00045
36.95 -0.00348
37 -0.00468
37.05 -0.0023
37.1 -0.00391
37.15 -0.00721
37.2 -0.0082
37.25 -0.00953
37.3 -0.01145
37.35 -0.00791
37.4 -0.00206
37.45 -0.00306
37.5 -0.00628
37.55 -0.00632
37.6 -0.00388
37.65 -0.00271
37.7 0.00226
37.75 0.00441
37.8 0.00648
37.85 0.0081
37.9 0.00735
37.95 0.00353
38 0.00003
38.05 -0.00305
38.1 -0.00844
38.15 -0.00849
38.2 -0.00834
38.25 -0.00942
38.3 -0.01311
38.35 -0.01535
38.4 -0.01144
38.45 -0.00799
38.5 -0.00564
38.55 -0.00225
38.6 -0.00119
38.65 0.00087
38.7 0.00161
38.75 0.00401
38.8 0.0057
38.85 0.003
38.9 -0.00064
38.95 -0.00467
39 -0.00288
39.05 -0.00119
39.1 -0.00255
39.15 -0.00173
39.2 -0.00271
39.25 -0.00698
39.3 -0.00852
39.35 -0.00779
39.4 -0.00844
39.45 -0.01163
39.5 -0.01084
39.55 -0.01063
39.6 -0.00748
39.65 -0.00853
39.7 -0.00583
39.75 -0.00732
39.8 -0.00847
39.85 -0.00865
39.9 -0.00383
39.95 -0.00298
40 0.00065
40.05 0.00528
40.1 0.00841
40.15 0.00651
40.2 0.00154
40.25 -0.00415
40.3 -0.00415
40.35 -0.00612
40.4 -0.00712
40.45 -0.00593
40.5 -0.00797
40.55 -0.00507
40.6 -0.00413
40.65 -0.00607
40.7 -0.00546
40.75 -0.00926
40.8 -0.01505
40.85 -0.01379
40.9 -0.01379
40.95 -0.00923
41 -0.0037
41.05 -0.0022
41.1 0.00034
41.15 0.00214
41.2 -0.00012
41.25 -0.00521
41.3 -0.00786
41.35 -0.01237
41.4 -0.01241
41.45 -0.01151
41.5 -0.00733
41.55 -0.00461
41.6 -0.00212
41.65 0.00089
41.7 0.00637
41.75 0.01224
41.8 0.01765
41.85 0.01541
41.9 0.01549
41.95 0.01195
42 0.00943
42.05 0.00408
42.1 0.00484
42.15 0.00563
42.2 0.00118
42.25 -0.00473
42.3 -0.00883
42.35 -0.01098
42.4 -0.01243
42.45 -0.01556
42.5 -0.01339
42.55 -0.01035
42.6 -0.00633
42.65 -0.00127
42.7 0.00457
42.75 0.00418
42.8 0.00631
42.85 0.01035
42.9 0.01338
42.95 0.01299
43 0.01392
43.05 0.01424
43.1 0.01608
43.15 0.01633
43.2 0.01633
43.25 0.01863
43.3 0.01689
43.35 0.01702
43.4 0.01184
43.45 0.0079
43.5 0.00675
43.55 0.00293
43.6 -0.00174
43.65 -0.00598
43.7 -0.01005
43.75 -0.00894
43.8 -0.01046
43.85 -0.00835
43.9 -0.00725
43.95 -0.00931
44 -0.01294
44.05 -0.01759
44.1 -0.02073
44.15 -0.02379
44.2 -0.02371
44.25 -0.02514
44.3 -0.02499
44.35 -0.02556
44.4 -0.02343
44.45 -0.02461
44.5 -0.01981
44.55 -0.01141
44.6 -0.00409
44.65 0.00401
44.7 0.00466
44.75 0.00371
44.8 0
44.85 -0.0042
44.9 -0.00572
44.95 -0.00253
45 -0.00213
45.05 0.00066
45.1 0.00649
45.15 0.01256
45.2 0.01751
45.25 0.02183
45.3 0.02064
45.35 0.01687
45.4 0.01005
45.45 0.00331
45.5 -0.00207
45.55 -0.00872
45.6 -0.01425
45.65 -0.01436
45.7 -0.01531
45.75 -0.01835
45.8 -0.0216
45.85 -0.01755
45.9 -0.00938
45.95 -0.00669
46 -0.00856
46.05 -0.00576
46.1 -0.00648
46.15 -0.00515
46.2 0.00082
46.25 0.00544
46.3 0.01124
46.35 0.01217
46.4 0.00804
46.45 0.00485
46.5 0.00014
46.55 -0.00189
46.6 -0.00398
46.65 -0.00405
46.7 -0.00459
46.75 -0.00293
46.8 -0.00444
46.85 -0.00037
46.9 0.00007
46.95 -0.00164
47 -0.00686
47.05 -0.00606
47.1 -0.00603
47.15 -0.00545
47.2 -0.00365
47.25 -0.00509
47.3 -0.00841
47.35 -0.0127
47.4 -0.01784
47.45 -0.01767
47.5 -0.01504
47.55 -0.01452
47.6 -0.01637
47.65 -0.01302
47.7 -0.01308
47.75 -0.01467
47.8 -0.01061
47.85 -0.00381
47.9 0.00535
47.95 0.01472
48 0.02262
48.05 0.02894
48.1 0.03177
48.15 0.03423
48.2 0.0295
48.25 0.02876
48.3 0.02305
48.35 0.01513
48.4 0.00714
48.45 0.00489
48.5 0.0068
48.55 0.00695
48.6 0.00906
48.65 0.01074
48.7 0.00716
48.75 0.00513
48.8 0.00203
48.85 -0.00312
48.9 -0.00167
48.95 -0.00312
49 -0.00146
49.05 -0.00122
49.1 -0.00436
49.15 -0.00273
49.2 -0.00402
49.25 -0.0041
49.3 -0.00442
49.35 -0.00121
49.4 -0.00186
49.45 -0.00383
49.5 -0.00352
49.55 0.00102
49.6 0.00142
49.65 0.00395
49.7 0.00425
49.75 0.00556
49.8 0.00954
49.85 0.01485
49.9 0.02017
49.95 0.01957
50 0.01452
50.05 0.00585
50.1 -0.003
50.15 -0.01234
50.2 -0.01487
50.25 -0.01988
50.3 -0.01755
50.35 -0.01401
50.4 -0.00944
50.45 -0.00773
50.5 -0.00631
50.55 -0.00639
50.6 -0.00751
50.65 -0.00781
50.7 -0.01095
50.75 -0.00857
50.8 -0.00693
50.85 -0.00127
50.9 0.00462
50.95 0.00978
51 0.01513
51.05 0.01434
51.1 0.00896
51.15 0.00372
51.2 0.00295
51.25 -0.00217
51.3 -0.00184
51.35 -0.00346
51.4 -0.00735
51.45 -0.00829
51.5 -0.01055
51.55 -0.0085
51.6 -0.00373
51.65 0.00225
51.7 0.00951
51.75 0.0141
51.8 0.01298
51.85 0.01414
51.9 0.01701
51.95 0.01355
52 0.00621
52.05 0.00045
52.1 0.00101
52.15 0.0007
52.2 0.00154
52.25 0.00249
52.3 -0.00051
52.35 -0.00656
52.4 -0.01124
52.45 -0.01298
52.5 -0.01255
52.55 -0.01381
52.6 -0.01115
52.65 -0.00639
52.7 -0.00533
52.75 -0.00112
52.8 0.00527
52.85 0.01112
52.9 0.01079
52.95 0.00877
53 0.01032
53.05 0.00977
53.1 0.00814
53.15 0.00446
53.2 0.00405
53.25 0.00684
53.3 0.00468
53.35 0.00423
53.4 -0.00077
53.45 -0.00266
53.5 -0.00016
53.55 -0.00011
53.6 0.00397
53.65 0.00883
53.7 0.00954
53.75 0.00769
53.8 0.00352
53.85 0.0039
53.9 0.00473
53.95 0.00931
54 0.01182
54.05 0.00989
54.1 0.00908
54.15 0.01174
54.2 0.01414
54.25 0.01416
54.3 0.01254
54.35 0.00693
54.4 0.00215
54.45 0.00217
54.5 0.0056
54.55 0.00878
54.6 0.00892
54.65 0.00867
54.7 0.00381
54.75 -0.00233
54.8 -0.00886
54.85 -0.01716
54.9 -0.02181
54.95 -0.02209
55 -0.024
55.05 -0.02332
55.1 -0.02127
55.15 -0.02004
55.2 -0.01876
55.25 -0.01355
55.3 -0.01222
55.35 -0.00741
55.4 -0.00818
55.45 -0.00711
55.5 -0.00586
55.55 -0.00794
55.6 -0.01217
55.65 -0.01703
55.7 -0.01842
55.75 -0.01852
55.8 -0.01464
55.85 -0.0109
55.9 -0.01153
55.95 -0.01264
56 -0.00815
56.05 -0.00006
56.1 0.00116
56.15 0.00311
56.2 0.00353
56.25 0.00092
56.3 0.00214
56.35 0.00424
56.4 0.00194
56.45 -0.00213
56.5 -0.00233
56.55 -0.00618
56.6 -0.00755
56.65 -0.00427
56.7 -0.00197
56.75 -0.00215
56.8 0.00178
56.85 0.00542
56.9 0.00543
56.95 0.00095
57 -0.00074
57.05 0.00041
57.1 0.00128
57.15 -0.00176
57.2 -0.00416
57.25 -0.00316
57.3 -0.00503
57.35 -0.00622
57.4 -0.00793
57.45 -0.00463
57.5 -0.00271
57.55 -0.00039
57.6 -0.00002
57.65 -0.00304
57.7 -0.00036
57.75 0.00146
57.8 0.00113
57.85 0.00409
57.9 0.00987
57.95 0.00944
58 0.00961
58.05 0.01131
58.1 0.0146
58.15 0.01694
58.2 0.01376
58.25 0.01267
58.3 0.00686
58.35 0.00345
58.4 -0.00214
58.45 -0.00489
58.5 -0.00713
58.55 -0.01022
58.6 -0.01112
58.65 -0.00659
58.7 -0.00375
58.75 -0.00365
58.8 -0.00531
58.85 -0.00893
58.9 -0.01326
58.95 -0.0142
59 -0.01388
59.05 -0.01101
59.1 -0.0048
59.15 0.00294
59.2 0.01021
59.25 0.01076
59.3 0.01192
59.35 0.01361
59.4 0.01593
59.45 0.02017
59.5 0.02258
59.55 0.01784
59.6 0.01551
59.65 0.01689
59.7 0.01273
59.75 0.00654
59.8 0.00187
59.85 -0.00528
59.9 -0.01273
59.95 -0.01561
60 -0.01187
60.05 -0.01292
60.1 -0.01601
60.15 -0.01538
60.2 -0.01676
60.25 -0.01176
60.3 -0.00478
60.35 0.00068
60.4 0.0015
60.45 -0.00178
60.5 0.0002
60.55 0.00416
60.6 0.00417
60.65 0.00586
60.7 0.00659
60.75 0.00474
60.8 0.00618
60.85 0.00213
60.9 0.00089
60.95 -0.00192
61 -0.00535
61.05 -0.00421
61.1 -0.00724
61.15 -0.0052
61.2 -0.00446
61.25 -0.00211
61.3 -0.00168
61.35 -0.00396
61.4 -0.00114
61.45 0.0017
61.5 0.00699
61.55 0.0142
61.6 0.01814
61.65 0.01968
61.7 0.01591
61.75 0.0124
61.8 0.00818
61.85 0.00931
61.9 0.01127
61.95 0.01177
62 0.00716
62.05 0.00281
62.1 -0.00402
62.15 -0.00776
62.2 -0.00813
62.25 -0.01019
62.3 -0.01057
62.35 -0.01223
62.4 -0.01041
62.45 -0.00686
62.5 -0.00385
62.55 0.00043
62.6 0.00481
62.65 0.00885
62.7 0.01321
62.75 0.01063
62.8 0.00857
62.85 0.00788
62.9 0.01078
62.95 0.00767
63 0.00896
63.05 0.00962
63.1 0.00927
63.15 0.00583
63.2 -0.00062
63.25 -0.00775
63.3 -0.00882
63.35 -0.00608
63.4 -0.00767
63.45 -0.0093
63.5 -0.01392
63.55 -0.01403
63.6 -0.00976
63.65 -0.00638
63.7 -0.00288
63.75 0.00314
63.8 0.00527
63.85 0.00303
63.9 0.00084
63.95 -0.00228
64 -0.00635
64.05 -0.005
64.1 -0.00699
64.15 -0.00348
64.2 0.00325
64.25 0.00361
64.3 0.00542
64.35 0.00915
64.4 0.01277
64.45 0.01346
64.5 0.0101
64.55 0.0057
64.6 0.00485
64.65 -0.00023
64.7 -0.00455
64.75 -0.00718
64.8 -0.00859
64.85 -0.00455
64.9 -0.00038
64.95 0.00261
65 0.00074
65.05 0.0015
65.1 0.0032
65.15 -0.00024
65.2 -0.0007
65.25 -0.00101
65.3 -0.00179
65.35 -0.00633
65.4 -0.01254
65.45 -0.01995
65.5 -0.02738
65.55 -0.02721
65.6 -0.02596
65.65 -0.02326
65.7 -0.02384
65.75 -0.02049
65.8 -0.02043
65.85 -0.0181
65.9 -0.01075
65.95 -0.00527
66 -0.00026
66.05 0.00152
66.1 -0.00005
66.15 0.00044
66.2 -0.0011
66.25 -0.00347
66.3 -0.00635
66.35 -0.00922
66.4 -0.01251
66.45 -0.00973
66.5 -0.00726
66.55 -0.00074
66.6 0.00349
66.65 0.00227
66.7 -0.00118
66.75 0.00139
66.8 0.00152
66.85 -0.00178
66.9 -0.00733
66.95 -0.01376
67 -0.02006
67.05 -0.01785
67.1 -0.01917
67.15 -0.02092
67.2 -0.01875
67.25 -0.01247
67.3 -0.00364
67.35 0.00599
67.4 0.01369
67.45 0.01526
67.5 0.01183
67.55 0.01067
67.6 0.00512
67.65 0.0022
67.7 -0.00015
67.75 0.00275
67.8 0.00029
67.85 -0.0012
67.9 -0.00613
67.95 -0.01126
68 -0.00927
68.05 -0.00331
68.1 0.00165
68.15 0.00464
68.2 0.00848
68.25 0.00973
68.3 0.01363
68.35 0.01259
68.4 0.01171
68.45 0.00954
68.5 0.01179
68.55 0.01591
68.6 0.0208
68.65 0.01846
68.7 0.01478
68.75 0.00954
68.8 0.00232
68.85 -0.00195
68.9 -0.00528
68.95 -0.00614
69 -0.00906
69.05 -0.01195
69.1 -0.00983
69.15 -0.00918
69.2 -0.00995
69.25 -0.01367
69.3 -0.01785
69.35 -0.0206
69.4 -0.01911
69.45 -0.01646
69.5 -0.01622
69.55 -0.01035
69.6 -0.00469
69.65 -0.00297
69.7 -0.0045
69.75 -0.00697
69.8 -0.00643
69.85 -0.0065
69.9 -0.00445
69.95 -0.00496
70 -0.00777
70.05 -0.00466
70.1 -0.00455
70.15 -0.0053
70.2 -0.00888
70.25 -0.00561
70.3 0.00119
70.35 0.0026
70.4 0.00644
70.45 0.00792
70.5 0.0085
70.55 0.01288
70.6 0.01914
70.65 0.01839
70.7 0.01497
70.75 0.01045
70.8 0.00545
70.85 0.00554
70.9 0.00745
70.95 0.00967
71 0.00974
71.05 0.007
71.1 0.00188
71.15 -0.00194
71.2 -0.00429
71.25 -0.00959
71.3 -0.01557
71.35 -0.01475
71.4 -0.01603
71.45 -0.01779
71.5 -0.01807
71.55 -0.01397
71.6 -0.00675
71.65 -0.00447
71.7 0.00061
71.75 0.00782
71.8 0.01535
71.85 0.01928
71.9 0.02117
71.95 0.02068
72 0.01903
72.05 0.01793
72.1 0.01588
72.15 0.01453
72.2 0.00828
72.25 -0.00075
72.3 -0.00426
72.35 -0.01046
72.4 -0.01077
72.45 -0.00931
72.5 -0.0099
72.55 -0.00568
72.6 -0.00505
72.65 -0.00716
72.7 -0.006
72.75 -0.00321
72.8 -0.00454
72.85 -0.00787
72.9 -0.00549
72.95 0.00074
73 0.00504
73.05 0.00481
73.1 0.00801
73.15 0.01127
73.2 0.01465
73.25 0.01275
73.3 0.01287
73.35 0.01001
73.4 0.0055
73.45 0.00625
73.5 0.00859
73.55 0.00775
73.6 0.01115
73.65 0.01042
73.7 0.01208
73.75 0.00769
73.8 0.00673
73.85 0.00968
73.9 0.00642
73.95 0.00192
74 0.00005
74.05 -0.00378
74.1 -0.00634
74.15 -0.00987
74.2 -0.01138
74.25 -0.01042
74.3 -0.013
74.35 -0.0097
74.4 -0.00606
74.45 -0.00488
74.5 -0.00074
74.55 0.00436
74.6 0.0096
74.65 0.01579
74.7 0.01688
74.75 0.02079
74.8 0.02428
74.85 0.02442
74.9 0.02293
74.95 0.01892
75 0.01087
75.05 0.00073
75.1 -0.00814
75.15 -0.00949
75.2 -0.0096
75.25 -0.00482
75.3 0.0011
75.35 0.00347
75.4 0.00853
75.45 0.01355
75.5 0.01794
75.55 0.01976
75.6 0.0195
75.65 0.0133
75.7 0.01215
75.75 0.01332
75.8 0.0148
75.85 0.00981
75.9 0.00282
75.95 -0.00308
76 -0.00285
76.05 -0.00472
76.1 -0.00595
76.15 -0.00841
76.2 -0.01212
76.25 -0.01823
76.3 -0.01902
76.35 -0.02074
76.4 -0.01761
76.45 -0.01668
76.5 -0.01766
76.55 -0.01643
76.6 -0.01316
76.65 -0.00548
76.7 0.00301
76.75 0.01067
76.8 0.01121
76.85 0.01325
76.9 0.01515
76.95 0.01643
77 0.01125
77.05 0.00797
77.1 0.00643
77.15 0.00586
77.2 0.00333
77.25 -0.00171
77.3 -0.00494
77.35 -0.0056
77.4 -0.01029
77.45 -0.01666
77.5 -0.01819
77.55 -0.01415
77.6 -0.0145
77.65 -0.01256
77.7 -0.01032
77.75 -0.0122
77.8 -0.01104
77.85 -0.01043
77.9 -0.00488
77.95 0.00268
78 0.0047
78.05 0.00589
78.1 0.0104
78.15 0.00821
78.2 0.003
78.25 0.00199
78.3 0.00471
78.35 0.0035
78.4 -0.00135
78.45 -0.00251
78.5 -0.00568
78.55 -0.00366
78.6 0.00037
78.65 0.00139
78.7 0.00295
78.75 0.00589
78.8 0.00825
78.85 0.01039
78.9 0.01337
78.95 0.01292
79 0.01475
79.05 0.01872
79.1 0.02208
79.15 0.02484
79.2 0.02599
79.25 0.02324
79.3 0.01904
79.35 0.01866
79.4 0.01422
79.45 0.00744
79.5 0.00541
79.55 0.00302
79.6 0.00355
79.65 -0.00001
79.7 0.00051
79.75 0.00311
79.8 0.0022
79.85 0.00126
79.9 -0.00206
79.95 -0.00123
80 -0.00221
80.05 -0.00083
80.1 0.00375
80.15 0.00736
80.2 0.01302
80.25 0.01576
80.3 0.01191
80.35 0.00582
80.4 0.0033
80.45 0.00283
80.5 -0.00087
80.55 -0.00711
80.6 -0.01198
80.65 -0.01672
80.7 -0.01843
80.75 -0.01972
80.8 -0.01888
80.85 -0.01864
80.9 -0.02026
80.95 -0.0204
81 -0.02232
81.05 -0.02114
81.1 -0.01801
81.15 -0.01656
81.2 -0.01124
81.25 -0.00803
81.3 -0.00093
81.35 0.0015
81.4 0.00459
81.45 0.0077
81.5 0.00948
81.55 0.00881
81.6 0.00856
81.65 0.01096
81.7 0.00846
81.75 0.00966
81.8 0.00944
81.85 0.01022
81.9 0.00887
81.95 0.00391
82 -0.00382
82.05 -0.01092
82.1 -0.01812
82.15 -0.01984
82.2 -0.01853
82.25 -0.01419
82.3 -0.01434
82.35 -0.01605
82.4 -0.0114
82.45 -0.01077
82.5 -0.01378
82.55 -0.01015
82.6 -0.01134
82.65 -0.01526
82.7 -0.02002
82.75 -0.02585
82.8 -0.02909
82.85 -0.03064
82.9 -0.02843
82.95 -0.02097
83 -0.01773
83.05 -0.0128
83.1 -0.00771
83.15 -0.0074
83.2 -0.00797
83.25 -0.00339
83.3 -0.00282
83.35 0.00249
83.4 0.007
83.45 0.00812
83.5 0.01026
83.55 0.00724
83.6 0.00337
83.65 0.00297
83.7 0.00028
83.75 -0.00107
83.8 -0.00568
83.85 -0.00754
83.9 -0.00392
83.95 -0.00452
84 -0.00224
84.05 -0.00394
84.1 -0.00074
84.15 0.00292
84.2 0.00181
84.25 0.00459
84.3 0.00538
84.35 0.00154
84.4 0.00109
84.45 0.00452
84.5 0.00811
84.55 0.00762
84.6 0.00836
84.65 0.00764
84.7 0.01041
84.75 0.01384
84.8 0.01185
84.85 0.01273
84.9 0.01103
84.95 0.01323
85 0.01372
85.05 0.01637
85.1 0.01879
85.15 0.01894
85.2 0.0166
85.25 0.00952
85.3 0.00138
85.35 0.00015
85.4 0.00115
85.45 0.00322
85.5 0.00203
85.55 -0.00363
85.6 -0.00412
85.65 -0.00088
85.7 0.00491
85.75 0.00409
85.8 0.00132
85.85 -0.00499
85.9 -0.01199
85.95 -0.01532
86 -0.01637
86.05 -0.01999
86.1 -0.01824
86.15 -0.01935
86.2 -0.02192
86.25 -0.01785
86.3 -0.00989
86.35 -0.00266
86.4 0.00353
86.45 0.01141
86.5 0.0192
86.55 0.01839
86.6 0.01263
86.65 0.0061
86.7 -0.00103
86.75 -0.00856
86.8 -0.01501
86.85 -0.01417
86.9 -0.01202
86.95 -0.01138
87 -0.00591
87.05 -0.00078
87.1 0.00234
87.15 0.00037
87.2 0.00309
87.25 0.00446
87.3 0.00746
87.35 0.00958
87.4 0.01019
87.45 0.01302
87.5 0.01359
87.55 0.0099
87.6 0.00765
87.65 0.00237
87.7 -0.00562
87.75 -0.0139
87.8 -0.01474
87.85 -0.00986
87.9 -0.00173
87.95 0.00057
88 0.00653
88.05 0.014
88.1 0.01884
88.15 0.02078
88.2 0.01591
88.25 0.01076
88.3 0.00557
88.35 0.00365
88.4 -0.00256
88.45 -0.00879
88.5 -0.00873
88.55 -0.00622
88.6 -0.00842
88.65 -0.01112
88.7 -0.00786
88.75 -0.00457
88.8 0.00138
88.85 0.00886
88.9 0.01011
88.95 0.0114
89 0.01073
89.05 0.01122
89.1 0.00885
89.15 0.00998
89.2 0.0084
89.25 0.00614
89.3 0.00191
89.35 -0.00377
89.4 -0.00535
89.45 -0.01024
89.5 -0.01026
89.55 -0.01237
89.6 -0.01462
89.65 -0.0132
89.7 -0.01457
89.75 -0.01174
89.8 -0.01299
89.85 -0.01569
89.9 -0.01495
89.95 -0.01095
90 -0.00634
90.05 -0.00635
90.1 -0.00871
90.15 -0.007
90.2 -0.00307
90.25 -0.00299
90.3 -0.00572
90.35 -0.00921
90.4 -0.01148
90.45 -0.01215
90.5 -0.00947
90.55 -0.00676
90.6 -0.00405
90.65 0.00259
90.7 0.00726
90.75 0.00514
90.8 0.00309
90.85 -0.00011
90.9 0.0018
90.95 -0.00116
91 -0.00528
91.05 -0.01101
91.1 -0.01706
91.15 -0.02165
91.2 -0.01873
91.25 -0.01643
91.3 -0.01769
91.35 -0.01809
91.4 -0.01624
91.45 -0.01594
91.5 -0.01423
91.55 -0.00735
91.6 -0.00273
91.65 0.0023
91.7 0.00677
91.75 0.01222
91.8 0.01087
91.85 0.01332
91.9 0.00949
91.95 0.00745
92 0.00215
92.05 0.00029
92.1 -0.00108
92.15 -0.0054
92.2 -0.0029
92.25 -0.00227
92.3 0.00109
92.35 0.00232
92.4 0.00169
92.45 0.00514
92.5 0.0049
92.55 0.00645
92.6 0.00462
92.65 0.00319
92.7 0.0058
92.75 0.00506
92.8 0.00031
92.85 -0.00649
92.9 -0.00918
92.95 -0.00701
93 -0.00785
93.05 -0.00418
93.1 -0.00571
93.15 -0.00519
93.2 -0.00774
93.25 -0.00988
93.3 -0.01187
93.35 -0.01501
93.4 -0.01583
93.45 -0.0128
93.5 -0.01134
93.55 -0.00467
93.6 0.00306
93.65 0.00624
93.7 0.00828
93.75 0.00623
93.8 0.00305
93.85 -0.00148
93.9 -0.00798
93.95 -0.01272
94 -0.01189
94.05 -0.01344
94.1 -0.01726
94.15 -0.01669
94.2 -0.01542
94.25 -0.01438
94.3 -0.01609
94.35 -0.01585
94.4 -0.01166
94.45 -0.00782
94.5 -0.00337
94.55 -0.00161
94.6 -0.003
94.65 -0.00706
94.7 -0.01145
94.75 -0.01683
94.8 -0.01418
94.85 -0.01075
94.9 -0.007
94.95 -0.00133
95 -0.00025
95.05 0.00059
95.1 0.0027
95.15 0.00144
95.2 0.00545
95.25 0.01167
95.3 0.01425
95.35 0.01822
95.4 0.02387
95.45 0.02625
95.5 0.02308
95.55 0.02334
95.6 0.02289
95.65 0.02316
95.7 0.01851
95.75 0.01809
95.8 0.01556
95.85 0.00935
95.9 0.00318
95.95 -0.00221
96 -0.00177
96.05 0.00104
96.1 0.00204
96.15 0.00436
96.2 0.00486
96.25 0.00928
96.3 0.01269
96.35 0.00941
96.4 0.00388
96.45 -0.00325
96.5 -0.01146
96.55 -0.01176
96.6 -0.00842
96.65 -0.00205
96.7 0.00098
96.75 -0.00032
96.8 -0.00042
96.85 -0.00415
96.9 -0.00442
96.95 -0.0086
97 -0.0134
97.05 -0.01319
97.1 -0.00769
97.15 -0.00248
97.2 0.00552
97.25 0.01211
97.3 0.01792
97.35 0.02256
97.4 0.02811
97.45 0.02828
97.5 0.02706
97.55 0.02207
97.6 0.01857
97.65 0.01718
97.7 0.01302
97.75 0.01172
97.8 0.00632
97.85 0.00075
97.9 -0.00113
97.95 -0.003
98 -0.00071
98.05 0.00411
98.1 0.01103
98.15 0.01545
98.2 0.0131
98.25 0.01406
98.3 0.00906
98.35 0.00937
98.4 0.01273
98.45 0.01466
98.5 0.01878
98.55 0.01981
98.6 0.01643
98.65 0.01604
98.7 0.01651
98.75 0.01054
98.8 0.00522
98.85 0.00476
98.9 0.00382
98.95 -0.00068
99 -0.00327
99.05 -0.00151
99.1 -0.0039
99.15 -0.00102
99.2 -0.00174
99.25 -0.00125
99.3 -0.00486
99.35 -0.00338
99.4 -0.00211
99.45 -0.00126
99.5 0.00025
99.55 -0.00291
99.6 -0.00416
99.65 -0.00668
99.7 -0.00904
99.75 -0.00832
99.8 -0.00883
99.85 -0.00962
99.9 -0.0061
99.95 -0.00627
