0 0
0.05 0.00459
0.1 0.01169
0.15 0.02022
0.2 0.02903
0.25 0.0405
0.3 0.05047
0.35 0.05863
0.4 0.06009
0.45 0.06158
0.5 0.06343
0.55 0.05913
0.6 0.05403
0.65 0.05385
0.7 0.05259
0.75 0.0504
0.8 0.04788
0.85 0.04837
0.9 0.04691
0.95 0.04547
1 0.04268
1.05 0.03994
1.1 0.03438
1.15 0.03463
1.2 0.03382
1.25 0.0328
1.3 0.03108
1.35 0.03444
1.4 0.03649
1.45 0.04103
1.5 0.04461
1.55 0.0431
1.6 0.04248
1.65 0.04136
1.7 0.04467
1.75 0.04667
1.8 0.05099
1.85 0.05158
1.9 0.04625
1.95 0.04048
2 0.04025
2.05 0.03725
2.1 0.03722
2.15 0.03745
2.2 0.03403
2.25 0.02931
2.3 0.02712
2.35 0.0245
2.4 0.02548
2.45 0.02491
2.5 0.02654
2.55 0.02844
2.6 0.03387
2.65 0.03445
2.7 0.0334
2.75 0.03649
2.8 0.03944
2.85 0.03835
2.9 0.03752
2.95 0.03465
3 0.03058
3.05 0.02469
3.1 0.02034
3.15 0.01946
3.2 0.01455
3.25 0.01552
3.3 0.0184
3.35 0.02032
3.4 0.0245
3.45 0.02611
3.5 0.02368
3.55 0.02098
3.6 0.02311
3.65 0.02284
3.7 0.02109
3.75 0.01619
3.8 0.01311
3.85 0.01095
3.9 0.01039
3.95 0.01158
4 0.01294
4.05 0.01767
4.1 0.01567
4.15 0.01722
4.2 0.0189
4.25 0.0214
4.3 0.02121
4.35 0.0211
4.4 0.01415
4.45 0.00991
4.5 -0.00252
4.55 -0.01713
4.6 -0.03619
4.65 -0.05738
4.7 -0.08205
4.75 -0.10178
4.8 -0.123
4.85 -0.1464
4.9 -0.17368
4.95 -0.20587
5 -0.24792
5.05 -0.29068
5.1 -0.33713
5.15 -0.3866
5.2 -0.44946
5.25 -0.51471
5.3 -0.59218
5.35 -0.66982
5.4 -0.7501
5.45 -0.83813
5.5 -0.92976
5.55 -1.03016
5.6 -1.13228
5.65 -1.23013
5.7 -1.32899
5.75 -1.42743
5.8 -1.52155
5.85 -1.6107
5.9 -1.70346
5.95 -1.79054
6 -1.87484
6.05 -1.95392
6.1 -2.03314
6.15 -2.1081
6.2 -2.17494
6.25 -2.24139
6.3 -2.301
6.35 -2.35514
6.4 -2.39938
6.45 -2.4426
6.5 -2.47923
6.55 -2.5038
6.6 -2.51855
6.65 -2.52384
6.7 -2.51237
6.75 -2.4857
6.8 -2.44462
6.85 -2.39317
6.9 -2.32773
6.95 -2.24787
7 -2.14934
7.05 -2.03695
7.1 -1.91014
7.15 -1.77012
7.2 -1.61065
7.25 -1.43959
7.3 -1.2584
7.35 -1.06251
7.4 -0.85909
7.45 -0.64875
7.5 -0.43971
7.55 -0.23135
7.6 -0.02721
7.65 0.17202
7.7 0.36969
7.75 0.56484
7.8 0.74516
7.85 0.91236
7.9 1.07346
7.95 1.22857
8 1.36934
8.05 1.50243
8.1 1.62126
8.15 1.72862
8.2 1.81878
8.25 1.89511
8.3 1.96269
8.35 2.02532
8.4 2.07404
8.45 2.11387
8.5 2.14636
8.55 2.17075
8.6 2.19213
8.65 2.20967
8.7 2.22607
8.75 2.23371
8.8 2.23228
8.85 2.22796
8.9 2.22516
8.95 2.2228
9 2.21617
9.05 2.20452
9.1 2.19105
9.15 2.17361
9.2 2.1555
9.25 2.13182
9.3 2.10427
9.35 2.07871
9.4 2.05473
9.45 2.03176
9.5 2.01242
9.55 1.99448
9.6 1.96942
9.65 1.94629
9.7 1.91492
9.75 1.88192
9.8 1.85191
9.85 1.82079
9.9 1.79072
9.95 1.75395
10 1.71148
10.05 1.67017
10.1 1.62939
10.15 1.58415
10.2 1.53865
10.25 1.49481
10.3 1.45106
10.35 1.40492
10.4 1.36444
10.45 1.32198
10.5 1.27693
10.55 1.23562
10.6 1.19511
10.65 1.15436
10.7 1.11092
10.75 1.0607
10.8 1.00855
10.85 0.95724
10.9 0.90348
10.95 0.84896
11 0.80161
11.05 0.75546
11.1 0.70926
11.15 0.66286
11.2 0.62171
11.25 0.58513
11.3 0.55135
11.35 0.51655
11.4 0.48128
11.45 0.44425
11.5 0.40856
11.55 0.37399
11.6 0.33507
11.65 0.29689
11.7 0.25809
11.75 0.22313
11.8 0.18304
11.85 0.148
11.9 0.11571
11.95 0.08534
12 0.05571
12.05 0.02829
12.1 -0.00374
12.15 -0.0316
12.2 -0.05963
12.25 -0.08512
12.3 -0.10867
12.35 -0.13522
12.4 -0.1548
12.45 -0.17611
12.5 -0.19312
12.55 -0.21406
12.6 -0.23461
12.65 -0.25117
12.7 -0.26732
12.75 -0.27876
12.8 -0.29025
12.85 -0.30408
12.9 -0.31625
12.95 -0.3296
13 -0.33846
13.05 -0.34982
13.1 -0.35711
13.15 -0.3612
13.2 -0.36052
13.25 -0.35793
13.3 -0.35519
13.35 -0.35912
13.4 -0.36537
13.45 -0.37114
13.5 -0.37767
13.55 -0.38008
13.6 -0.38435
13.65 -0.39069
13.7 -0.39002
13.75 -0.38849
13.8 -0.38927
13.85 -0.39257
13.9 -0.39489
13.95 -0.39381
14 -0.39313
14.05 -0.39193
14.1 -0.39306
14.15 -0.39271
14.2 -0.38977
14.25 -0.3807
14.3 -0.37302
14.35 -0.36717
14.4 -0.36391
14.45 -0.35692
14.5 -0.35026
14.55 -0.33987
14.6 -0.33087
14.65 -0.32083
14.7 -0.31129
14.75 -0.30344
14.8 -0.29495
14.85 -0.28836
14.9 -0.2858
14.95 -0.28767
15 -0.29016
15.05 -0.29281
15.1 -0.29845
15.15 -0.2967
15.2 -0.29003
15.25 -0.28244
15.3 -0.27559
15.35 -0.27304
15.4 -0.266
15.45 -0.25649
15.5 -0.25438
15.55 -0.2496
15.6 -0.25026
15.65 -0.25459
15.7 -0.25273
15.75 -0.25256
15.8 -0.24962
15.85 -0.24725
15.9 -0.24744
15.95 -0.24089
16 -0.23649
16.05 -0.23635
16.1 -0.23506
16.15 -0.23532
16.2 -0.23489
16.25 -0.22984
16.3 -0.21977
16.35 -0.21096
16.4 -0.20328
16.45 -0.19464
16.5 -0.19221
16.55 -0.18917
16.6 -0.18265
16.65 -0.17656
16.7 -0.16832
16.75 -0.16738
16.8 -0.17039
16.85 -0.16904
16.9 -0.17102
16.95 -0.16787
17 -0.16403
17.05 -0.16442
17.1 -0.16247
17.15 -0.16096
17.2 -0.15599
17.25 -0.14897
17.3 -0.14155
17.35 -0.13915
17.4 -0.14125
17.45 -0.13944
17.5 -0.13521
17.55 -0.13686
17.6 -0.14081
17.65 -0.13811
17.7 -0.13614
17.75 -0.13568
17.8 -0.13007
17.85 -0.12148
17.9 -0.11416
17.95 -0.11175
18 -0.11339
18.05 -0.11301
18.1 -0.10957
18.15 -0.10711
18.2 -0.10541
18.25 -0.1087
18.3 -0.11535
18.35 -0.1193
18.4 -0.11741
18.45 -0.11413
18.5 -0.11404
18.55 -0.1174
18.6 -0.11458
18.65 -0.1151
18.7 -0.11426
18.75 -0.11323
18.8 -0.11132
18.85 -0.10597
18.9 -0.10009
18.95 -0.0981
19 -0.09582
19.05 -0.08979
19.1 -0.08724
19.15 -0.08481
19.2 -0.08095
19.25 -0.07377
19.3 -0.06858
19.35 -0.0674
19.4 -0.0678
19.45 -0.06637
19.5 -0.06967
19.55 -0.07305
19.6 -0.0753
19.65 -0.07534
19.7 -0.07617
19.75 -0.0795
19.8 -0.08005
19.85 -0.07607
19.9 -0.07341
19.95 -0.07451
20 -0.07848
20.05 -0.08017
20.1 -0.0828
20.15 -0.08162
20.2 -0.07709
20.25 -0.07131
20.3 -0.06835
20.35 -0.06809
20.4 -0.06341
20.45 -0.0551
20.5 -0.04528
20.55 -0.0424
20.6 -0.0443
20.65 -0.04925
20.7 -0.04791
20.75 -0.0505
20.8 -0.05193
20.85 -0.0543
20.9 -0.05767
20.95 -0.05598
21 -0.05086
21.05 -0.04541
21.1 -0.04595
21.15 -0.04244
21.2 -0.04367
21.25 -0.04318
21.3 -0.04095
21.35 -0.04221
21.4 -0.03996
21.45 -0.03859
21.5 -0.03711
21.55 -0.03832
21.6 -0.04354
21.65 -0.05005
21.7 -0.05037
21.75 -0.04845
21.8 -0.04207
21.85 -0.03817
21.9 -0.03555
21.95 -0.03541
22 -0.03231
22.05 -0.03417
22.1 -0.03062
22.15 -0.02466
22.2 -0.02264
22.25 -0.02154
22.3 -0.02455
22.35 -0.03117
22.4 -0.03513
22.45 -0.0343
22.5 -0.02878
22.55 -0.02932
22.6 -0.02667
22.65 -0.02646
22.7 -0.02352
22.75 -0.02192
22.8 -0.02117
22.85 -0.02283
22.9 -0.02214
22.95 -0.02241
23 -0.02423
23.05 -0.02241
23.1 -0.0183
23.15 -0.01214
23.2 -0.00464
23.25 -0.00469
23.3 -0.00598
23.35 -0.00989
23.4 -0.00917
23.45 -0.00732
23.5 -0.0029
23.55 -0.00421
23.6 -0.00533
23.65 -0.01056
23.7 -0.01793
23.75 -0.02078
23.8 -0.0261
23.85 -0.03275
23.9 -0.03481
23.95 -0.03729
24 -0.03789
24.05 -0.0396
24.1 -0.0426
24.15 -0.04396
24.2 -0.0382
24.25 -0.03135
24.3 -0.02174
24.35 -0.01478
24.4 -0.01429
24.45 -0.0122
24.5 -0.01029
24.55 -0.01234
24.6 -0.01777
24.65 -0.02303
24.7 -0.02289
24.75 -0.01978
24.8 -0.02135
24.85 -0.01945
24.9 -0.01782
24.95 -0.01838
25 -0.01542
25.05 -0.00973
25.1 -0.01073
25.15 -0.01233
25.2 -0.01211
25.25 -0.01234
25.3 -0.01211
25.35 -0.01194
25.4 -0.00961
25.45 -0.0055
25.5 -0.00473
25.55 -0.00847
25.6 -0.01286
25.65 -0.01768
25.7 -0.01713
25.75 -0.01903
25.8 -0.01854
25.85 -0.01629
25.9 -0.01486
25.95 -0.01519
26 -0.0168
26.05 -0.01795
26.1 -0.01711
26.15 -0.01408
26.2 -0.0089
26.25 -0.006
26.3 -0.00263
26.35 -0.00395
26.4 -0.00703
26.45 -0.00919
26.5 -0.01061
26.55 -0.01378
26.6 -0.01594
26.65 -0.02019
26.7 -0.01984
26.75 -0.02213
26.8 -0.0233
26.85 -0.02679
26.9 -0.03128
26.95 -0.03422
27 -0.03561
27.05 -0.03108
27.1 -0.02404
27.15 -0.02228
27.2 -0.02359
27.25 -0.02261
27.3 -0.02382
27.35 -0.02616
27.4 -0.02584
27.45 -0.02476
27.5 -0.02601
27.55 -0.0236
27.6 -0.01944
27.65 -0.01976
27.7 -0.02259
27.75 -0.02175
27.8 -0.02042
27.85 -0.01392
27.9 -0.01287
27.95 -0.0079
28 -0.00763
28.05 -0.0049
28.1 -0.00384
28.15 -0.00372
28.2 -0.00564
28.25 -0.00534
28.3 -0.0083
28.35 -0.00816
28.4 -0.00687
28.45 -0.00165
28.5 0.00007
28.55 0.00029
28.6 0.00101
28.65 0.00468
28.7 0.00818
28.75 0.00984
28.8 0.01253
28.85 0.0174
28.9 0.02053
28.95 0.02104
29 0.0159
29.05 0.00957
29.1 0.00029
29.15 -0.00475
29.2 -0.00543
29.25 -0.00385
29.3 -0.00096
29.35 0.00173
29.4 0.00115
29.45 -0.00162
29.5 -0.00199
29.55 -0.00524
29.6 -0.00294
29.65 0.002
29.7 0.00648
29.75 0.00475
29.8 0.00714
29.85 0.00493
29.9 0.00243
29.95 0.00261
30 0.00421
30.05 0.00144
30.1 -0.00258
30.15 -0.00048
30.2 -0.00313
30.25 -0.00075
30.3 -0.0006
30.35 -0.00186
30.4 -0.00098
30.45 -0.00329
30.5 0.00004
30.55 0.00451
30.6 0.00312
30.65 0.0035
30.7 0.00519
30.75 0.00835
30.8 0.00933
30.85 0.0053
30.9 -0.00126
30.95 -0.00511
31 -0.00993
31.05 -0.01365
31.1 -0.01287
31.15 -0.01385
31.2 -0.01736
31.25 -0.02006
31.3 -0.02129
31.35 -0.02143
31.4 -0.0199
31.45 -0.01803
31.5 -0.01403
31.55 -0.01208
31.6 -0.00846
31.65 -0.00476
31.7 -0.00025
31.75 0.00184
31.8 0.00364
31.85 0.00197
31.9 0.00522
31.95 0.00465
32 0.008
32.05 0.01228
32.1 0.01029
32.15 0.01016
32.2 0.01291
32.25 0.01138
32.3 0.01375
32.35 0.01377
32.4 0.01074
32.45 0.00914
32.5 0.00945
32.55 0.00921
32.6 0.00577
32.65 0.00754
32.7 0.00706
32.75 0.01055
32.8 0.0153
32.85 0.01412
32.9 0.00806
32.95 0.00161
33 -0.00278
33.05 -0.00939
33.1 -0.01701
33.15 -0.02148
33.2 -0.01976
33.25 -0.0177
33.3 -0.01739
33.35 -0.01905
33.4 -0.01916
33.45 -0.01943
33.5 -0.01585
33.55 -0.01263
33.6 -0.01208
33.65 -0.00737
33.7 0.00097
33.75 0.00449
33.8 0.00782
33.85 0.0085
33.9 0.00763
33.95 0.00374
34 0.001
34.05 0.00107
34.1 0.00136
34.15 0.0017
34.2 0.00561
34.25 0.00868
34.3 0.00851
34.35 0.00789
34.4 0.00349
34.45 0.00292
34.5 0.00009
34.55 0.00297
34.6 0.00666
34.65 0.00987
34.7 0.01093
34.75 0.00898
34.8 0.0113
34.85 0.01147
34.9 0.00953
34.95 0.01157
35 0.0141
35.05 0.01462
35.1 0.01098
35.15 0.01061
35.2 0.01196
35.25 0.01445
35.3 0.01761
35.35 0.0183
35.4 0.01607
35.45 0.01068
35.5 0.00241
35.55 -0.00171
35.6 -0.00412
35.65 -0.00659
35.7 -0.00722
35.75 -0.00378
35.8 0.00113
35.85 0.00298
35.9 0.00556
35.95 0.00897
36 0.01144
36.05 0.01367
36.1 0.01782
36.15 0.01692
36.2 0.01792
36.25 0.01457
36.3 0.00967
36.35 0.00188
36.4 -0.00666
36.45 -0.0153
36.5 -0.02294
36.55 -0.0296
36.6 -0.03382
36.65 -0.03205
36.7 -0.02416
36.75 -0.02127
36.8 -0.01563
36.85 -0.01066
36.9 -0.00272
36.95 0.00287
37 0.00597
37.05 0.00414
37.1 0.00015
37.15 -0.00046
37.2 -0.00004
37.25 -0.00078
37.3 -0.00212
37.35 -0.00305
37.4 -0.00664
37.45 -0.00797
37.5 -0.00983
37.55 -0.01154
37.6 -0.01476
37.65 -0.01191
37.7 -0.00899
37.75 -0.006
37.8 -0.00315
37.85 0.00145
37.9 0.00264
37.95 0.00113
38 0.00409
38.05 0.00221
38.1 -0.00052
38.15 -0.00505
38.2 -0.00484
38.25 -0.00841
38.3 -0.0124
38.35 -0.01582
38.4 -0.01635
38.45 -0.01363
38.5 -0.01106
38.55 -0.0123
38.6 -0.01436
38.65 -0.01378
38.7 -0.01189
38.75 -0.00767
38.8 -0.0049
38.85 -0.00552
38.9 -0.00129
38.95 0.00564
39 0.00538
39.05 0.00816
39.1 0.00628
39.15 0.00712
39.2 0.00777
39.25 0.00688
39.3 0.00826
39.35 0.00882
39.4 0.01098
39.45 0.00805
39.5 0.00935
39.55 0.01088
39.6 0.01321
39.65 0.01117
39.7 0.01285
39.75 0.0144
39.8 0.01714
39.85 0.01632
39.9 0.0106
39.95 0.00747
40 0.00699
40.05 0.00384
40.1 0.00587
40.15 0.00305
40.2 0.00424
40.25 0.00783
40.3 0.00805
40.35 0.00293
40.4 -0.0017
40.45 -0.00656
40.5 -0.01082
40.55 -0.00838
40.6 -0.00771
40.65 -0.00716
40.7 -0.00204
40.75 0.00255
40.8 0.00163
40.85 0.00241
40.9 0.00047
40.95 0.00275
41 0.00166
41.05 0.00529
41.1 0.00745
41.15 0.00951
41.2 0.01159
41.25 0.00936
41.3 0.00812
41.35 0.00385
41.4 -0.0004
41.45 -0.00349
41.5 -0.0035
41.55 -0.00351
41.6 -0.0074
41.65 -0.00952
41.7 -0.01032
41.75 -0.00714
41.8 -0.00347
41.85 0.00084
41.9 0.0038
41.95 0.00943
42 0.01491
42.05 0.01309
42.1 0.00976
42.15 0.00436
42.2 0.00009
42.25 0.00143
42.3 -0.00082
42.35 -0.00232
42.4 -0.00548
42.45 -0.0034
42.5 -0.00655
42.55 -0.00726
42.6 -0.00788
42.65 -0.00665
42.7 -0.00212
42.75 0.00264
42.8 0.00482
42.85 0.00339
42.9 0.00609
42.95 0.01142
43 0.0102
43.05 0.01108
43.1 0.01412
43.15 0.01428
43.2 0.0139
43.25 0.01511
43.3 0.01547
43.35 0.01543
43.4 0.01198
43.45 0.00802
43.5 0.00108
43.55 -0.00155
43.6 -0.00314
43.65 -0.00354
43.7 -0.00749
43.75 -0.01161
43.8 -0.00957
43.85 -0.00605
43.9 -0.00572
43.95 -0.00448
44 -0.00464
44.05 -0.00087
44.1 -0.00193
44.15 -0.00063
44.2 -0.00168
44.25 0.00167
44.3 -0.0001
44.35 0.00231
44.4 0.00345
44.45 0.00135
44.5 -0.00291
44.55 -0.00906
44.6 -0.01064
44.65 -0.01178
44.7 -0.00726
44.75 -0.00731
44.8 -0.00832
44.85 -0.01023
44.9 -0.01426
44.95 -0.01302
45 -0.00864
45.05 -0.00101
45.1 0.00406
45.15 0.01006
45.2 0.01525
45.25 0.01813
45.3 0.01633
45.35 0.0155
45.4 0.01253
45.45 0.00711
45.5 0.00674
45.55 0.01013
45.6 0.00685
45.65 0.00786
45.7 0.00457
45.75 0.00192
45.8 0.00377
45.85 0.00861
45.9 0.00603
45.95 -0.00068
46 -0.00461
46.05 -0.00416
46.1 -0.00747
46.15 -0.00608
46.2 -0.00652
46.25 -0.00935
46.3 -0.00757
46.35 -0.00395
46.4 0.00285
46.45 0.00424
46.5 0.00496
46.55 0.00826
46.6 0.0054
46.65 0.00316
46.7 0.0052
46.75 0.00702
46.8 0.00384
46.85 -0.001
46.9 -0.00174
46.95 -0.00076
47 0.00344
47.05 0.00425
47.1 0.00816
47.15 0.01412
47.2 0.01414
47.25 0.01663
47.3 0.0139
47.35 0.012
47.4 0.01178
47.45 0.00882
47.5 0.00647
47.55 0.00571
47.6 0.00203
47.65 -0.00434
47.7 -0.01177
47.75 -0.01808
47.8 -0.01871
47.85 -0.02072
47.9 -0.02407
47.95 -0.02857
48 -0.02619
48.05 -0.01915
48.1 -0.01566
48.15 -0.00956
48.2 -0.0064
48.25 -0.00716
48.3 -0.00382
48.35 -0.00571
48.4 -0.01099
48.45 -0.01411
48.5 -0.01432
48.55 -0.01179
48.6 -0.0106
48.65 -0.00578
48.7 -0.00628
48.75 -0.00354
48.8 -0.0037
48.85 -0.0077
48.9 -0.00819
48.95 -0.0051
49 -0.00186
49.05 -0.00161
49.1 -0.00074
49.15 0.00179
49.2 -0.00038
49.25 -0.00339
49.3 -0.00314
49.35 0.00121
49.4 0.00093
49.45 -0.0006
49.5 0.00284
49.55 0.00809
49.6 0.0081
49.65 0.00871
49.7 0.00894
49.75 0.01225
49.8 0.01362
49.85 0.00899
49.9 0.00171
49.95 -0.00045
50 -0.00502
50.05 -0.0045
50.1 -0.00411
50.15 -0.00418
50.2 -0.00666
50.25 -0.01227
50.3 -0.01734
50.35 -0.02115
50.4 -0.02346
50.45 -0.02514
50.5 -0.02022
50.55 -0.01634
50.6 -0.01173
50.65 -0.00629
50.7 0.00099
50.75 0.00982
50.8 0.01696
50.85 0.02408
50.9 0.02358
50.95 0.01976
51 0.01882
51.05 0.01623
51.1 0.01497
51.15 0.01068
51.2 0.01045
51.25 0.00769
51.3 0.00357
51.35 0.00069
51.4 0.0016
51.45 -0.00019
51.5 0.00172
51.55 0.00332
51.6 0.00314
51.65 -0.00178
51.7 -0.00226
51.75 -0.00526
51.8 -0.00685
51.85 -0.01101
51.9 -0.00905
51.95 -0.00927
52 -0.00547
52.05 -0.00388
52.1 -0.0015
52.15 0.0016
52.2 0.00294
52.25 0.00166
52.3 -0.00228
52.35 -0.00774
52.4 -0.01237
52.45 -0.01269
52.5 -0.01377
52.55 -0.01056
52.6 -0.00855
52.65 -0.00917
52.7 -0.00527
52.75 -0.00185
52.8 0.00297
52.85 0.00824
52.9 0.01101
52.95 0.0104
53 0.0103
53.05 0.01288
53.1 0.01714
53.15 0.02029
53.2 0.02401
53.25 0.02781
53.3 0.02641
53.35 0.01984
53.4 0.00974
53.45 -0.00028
53.5 -0.00337
53.55 -0.0027
53.6 0.00103
53.65 0.00043
53.7 0.00339
53.75 0.00878
53.8 0.00808
53.85 0.00882
53.9 0.00576
53.95 0.00019
54 -0.00659
54.05 -0.01054
54.1 -0.00905
54.15 -0.00703
54.2 -0.00115
54.25 0.00525
54.3 0.01054
54.35 0.00966
54.4 0.00433
54.45 0.00189
54.5 -0.00211
54.55 -0.0033
54.6 -0.00089
54.65 -0.0037
54.7 -0.00494
54.75 -0.00141
54.8 -0.00194
54.85 -0.00469
54.9 -0.00259
54.95 -0.00461
55 -0.01038
55.05 -0.01565
55.1 -0.02156
55.15 -0.02169
55.2 -0.01962
55.25 -0.0204
55.3 -0.01517
55.35 -0.01394
55.4 -0.01119
55.45 -0.00473
55.5 0.00214
55.55 0.00541
55.6 0.01091
55.65 0.01659
55.7 0.01976
55.75 0.01653
55.8 0.00906
55.85 0.00315
55.9 -0.00097
55.95 0.00055
56 0.00187
56.05 0.00386
56.1 0.00126
56.15 -0.00257
56.2 -0.0081
56.25 -0.01014
56.3 -0.01303
56.35 -0.01385
56.4 -0.01605
56.45 -0.01367
56.5 -0.01136
56.55 -0.00694
56.6 -0.00424
56.65 -0.00424
56.7 0.00039
56.75 0.00559
56.8 0.00597
56.85 0.00641
56.9 0.0103
56.95 0.01327
57 0.01551
57.05 0.01512
57.1 0.01094
57.15 0.00694
57.2 0.00378
57.25 -0.0021
57.3 -0.00685
57.35 -0.00612
57.4 -0.0084
57.45 -0.00946
57.5 -0.0091
57.55 -0.00645
57.6 -0.00109
57.65 0.00355
57.7 0.00532
57.75 0.00251
57.8 0.0029
57.85 0.00495
57.9 0.00863
57.95 0.0092
58 0.00944
58.05 0.00501
58.1 -0.00041
58.15 -0.0057
58.2 -0.00901
58.25 -0.01448
58.3 -0.01535
58.35 -0.0151
58.4 -0.01418
58.45 -0.01434
58.5 -0.01689
58.55 -0.01928
58.6 -0.01827
58.65 -0.01225
58.7 -0.0082
58.75 -0.00801
58.8 -0.00511
58.85 -0.00215
58.9 0.00003
58.95 0.00461
59 0.00332
59.05 0.00038
59.1 -0.00511
59.15 -0.00509
59.2 -0.00513
59.25 -0.00607
59.3 -0.01054
59.35 -0.01026
59.4 -0.01096
59.45 -0.01474
59.5 -0.01304
59.55 -0.01504
59.6 -0.01826
59.65 -0.02064
59.7 -0.01838
59.75 -0.01358
59.8 -0.00974
59.85 -0.00273
59.9 0.00589
59.95 0.01254
60 0.01462
60.05 0.01308
60.1 0.00647
60.15 0.00206
60.2 -0.00114
60.25 -0.00337
60.3 -0.00417
60.35 -0.00237
60.4 0.00283
60.45 0.00308
60.5 0.00289
60.55 0.00705
60.6 0.0047
60.65 -0.00158
60.7 -0.00229
60.75 -0.00259
60.8 -0.00158
60.85 -0.00312
60.9 -0.00518
60.95 -0.0083
61 -0.00507
61.05 -0.00079
61.1 -0.00176
61.15 -0.00677
61.2 -0.01398
61.25 -0.0186
61.3 -0.0192
61.35 -0.01616
61.4 -0.01377
61.45 -0.01045
61.5 -0.00402
61.55 -0.00317
61.6 -0.00335
61.65 -0.00343
61.7 -0.00643
61.75 -0.01024
61.8 -0.00734
61.85 -0.00322
61.9 -0.00146
61.95 -0.00415
62 -0.00191
62.05 -0.00441
62.1 -0.00231
62.15 -0.00229
62.2 -0.00163
62.25 -0.00539
62.3 -0.00996
62.35 -0.00972
62.4 -0.00761
62.45 -0.00536
62.5 -0.00311
62.55 -0.00052
62.6 -0.00318
62.65 0.00007
62.7 0.00495
62.75 0.00424
62.8 0.00082
62.85 -0.00308
62.9 -0.00347
62.95 -0.00583
63 -0.00419
63.05 -0.00034
63.1 0.00036
63.15 -0.0012
63.2 -0.00615
63.25 -0.01207
63.3 -0.0113
63.35 -0.01234
63.4 -0.01181
63.45 -0.00845
63.5 -0.00214
63.55 0.00443
63.6 0.00484
63.65 0.00761
63.7 0.00736
63.75 0.00835
63.8 0.0128
63.85 0.01832
63.9 0.01933
63.95 0.01414
64 0.00797
64.05 0.00299
64.1 0.00291
64.15 0.0053
64.2 0.00444
64.25 -0.00072
64.3 -0.00543
64.35 -0.00529
64.4 -0.00413
64.45 -0.00626
64.5 -0.00632
64.55 -0.00601
64.6 -0.0057
64.65 -0.00456
64.7 -0.00747
64.75 -0.00785
64.8 -0.0101
64.85 -0.01361
64.9 -0.01548
64.95 -0.01569
65 -0.01496
65.05 -0.01175
65.1 -0.00583
65.15 0.00033
65.2 0.00227
65.25 0.00311
65.3 0.00194
65.35 0.00078
65.4 -0.00395
65.45 -0.00496
65.5 -0.00654
65.55 -0.01064
65.6 -0.0086
65.65 -0.01067
65.7 -0.01018
65.75 -0.00631
65.8 -0.00488
65.85 -0.00052
65.9 0.00606
65.95 0.0104
66 0.01466
66.05 0.01543
66.1 0.01578
66.15 0.01369
66.2 0.01575
66.25 0.01336
66.3 0.01325
66.35 0.01445
66.4 0.01282
66.45 0.00767
66.5 0.00134
66.55 -0.00493
66.6 -0.00669
66.65 -0.01054
66.7 -0.00869
66.75 -0.00667
66.8 -0.00168
66.85 0.00115
66.9 0.00248
66.95 0.00592
67 0.00995
67.05 0.0085
67.1 0.00274
67.15 0.00143
67.2 0.00367
67.25 0.00746
67.3 0.01195
67.35 0.01078
67.4 0.0076
67.45 0.00321
67.5 0.00415
67.55 0.00827
67.6 0.01027
67.65 0.01227
67.7 0.00941
67.75 0.00522
67.8 0.00663
67.85 0.00563
67.9 0.00619
67.95 0.00492
68 0.00223
68.05 0.00317
68.1 0.00471
68.15 0.00875
68.2 0.01026
68.25 0.00761
68.3 0.0082
68.35 0.01114
68.4 0.00782
68.45 0.00754
68.5 0.00672
68.55 0.00897
68.6 0.00792
68.65 0.00836
68.7 0.00442
68.75 0.00069
68.8 -0.00398
68.85 -0.00407
68.9 -0.00215
68.95 -0.00066
69 0.00304
69.05 0.00159
69.1 -0.00266
69.15 -0.00609
69.2 -0.00856
69.25 -0.00879
69.3 -0.01055
69.35 -0.01361
69.4 -0.0189
69.45 -0.02483
69.5 -0.02199
69.55 -0.01439
69.6 -0.01142
69.65 -0.00674
69.7 -0.00231
69.75 -0.00149
69.8 -0.00179
69.85 -0.0024
69.9 -0.00629
69.95 -0.01073
70 -0.0153
70.05 -0.0149
70.1 -0.01193
70.15 -0.00853
70.2 -0.0027
70.25 -0.00217
70.3 0.00005
70.35 0.00019
70.4 -0.00039
70.45 -0.00427
70.5 -0.01035
70.55 -0.01131
70.6 -0.01495
70.65 -0.01888
70.7 -0.01828
70.75 -0.01234
70.8 -0.00653
70.85 0.00159
70.9 0.00453
70.95 0.00657
71 0.00702
71.05 0.00743
71.1 0.00404
71.15 0.00397
71.2 0.00096
71.25 -0.00345
71.3 -0.00268
71.35 -0.00566
71.4 -0.00505
71.45 -0.00632
71.5 -0.0071
71.55 -0.00434
71.6 0.00246
71.65 0.00568
71.7 0.00943
71.75 0.00795
71.8 0.00628
71.85 0.00738
71.9 0.00477
71.95 0.00338
72 0.00092
72.05 -0.00269
72.1 -0.00095
72.15 0.00055
72.2 -0.00176
72.25 -0.00225
72.3 -0.00621
72.35 -0.01086
72.4 -0.0108
72.45 -0.00575
72.5 0.00181
72.55 0.01123
72.6 0.01806
72.65 0.02562
72.7 0.02934
72.75 0.02902
72.8 0.02628
72.85 0.02497
72.9 0.01897
72.95 0.00922
73 0.00523
73.05 0.00321
73.1 0.0054
73.15 0.00685
73.2 0.00447
73.25 0.0064
73.3 0.01102
73.35 0.01399
73.4 0.017
73.45 0.0134
73.5 0.0055
73.55 0.00221
73.6 -0.00468
73.65 -0.01174
73.7 -0.0156
73.75 -0.01528
73.8 -0.01789
73.85 -0.02248
73.9 -0.02367
73.95 -0.02017
74 -0.01663
74.05 -0.01617
74.1 -0.01323
74.15 -0.01368
74.2 -0.0108
74.25 -0.00807
74.3 -0.00352
74.35 0.00167
74.4 0.00449
74.45 0.00406
74.5 -0.00013
74.55 -0.0039
74.6 -0.00853
74.65 -0.00787
74.7 -0.00888
74.75 -0.01276
74.8 -0.01108
74.85 -0.00742
74.9 -0.00126
74.95 0.00606
75 0.00932
75.05 0.0076
75.1 0.00958
75.15 0.01144
75.2 0.01225
75.25 0.00883
75.3 0.00613
75.35 0.00787
75.4 0.00591
75.45 0.00186
75.5 -0.00403
75.55 -0.00384
75.6 -0.00734
75.65 -0.01183
75.7 -0.01731
75.75 -0.02094
75.8 -0.01839
75.85 -0.0158
75.9 -0.00814
75.95 0.00109
76 0.00975
76.05 0.01776
76.1 0.02325
76.15 0.02667
76.2 0.0253
76.25 0.02346
76.3 0.01844
76.35 0.01584
76.4 0.00827
76.45 0.00485
76.5 0.00095
76.55 -0.00376
76.6 -0.0047
76.65 -0.00211
76.7 0.00092
76.75 0.00171
76.8 0.0041
76.85 0.0038
76.9 0.00468
76.95 0.00452
77 -0.00027
77.05 -0.00174
77.1 -0.00152
77.15 0.00325
77.2 0.00217
77.25 0.00409
77.3 0.00867
77.35 0.00628
77.4 0.00462
77.45 0.00769
77.5 0.00822
77.55 0.00643
77.6 0.00524
77.65 0.00563
77.7 0.00615
77.75 0.01033
77.8 0.00779
77.85 0.00712
77.9 0.00729
77.95 0.00249
78 0.00113
78.05 0.00205
78.1 0.00052
78.15 0.00146
78.2 -0.00082
78.25 -0.00152
78.3 -0.00323
78.35 -0.00509
78.4 -0.00396
78.45 -0.00646
78.5 -0.01069
78.55 -0.01127
78.6 -0.00769
78.65 -0.00477
78.7 -0.00613
78.75 -0.00964
78.8 -0.01076
78.85 -0.01087
78.9 -0.00829
78.95 -0.00859
79 -0.00412
79.05 -0.00525
79.1 -0.00759
79.15 -0.0055
79.2 -0.00293
79.25 -0.00194
79.3 -0.00171
79.35 0.00224
79.4 -0.0001
79.45 -0.00535
79.5 -0.0052
79.55 -0.00301
79.6 -0.00263
79.65 0.00081
79.7 0.00726
79.75 0.0113
79.8 0.01405
79.85 0.01322
79.9 0.01361
79.95 0.01104
80 0.00545
80.05 -0.0017
80.1 -0.00207
80.15 0.00057
80.2 -0.00149
80.25 0.00144
80.3 0.00067
80.35 0.00458
80.4 0.00357
80.45 0.00626
80.5 0.00623
80.55 0.00277
80.6 -0.00442
80.65 -0.01284
80.7 -0.0129
80.75 -0.00801
80.8 -0.0079
80.85 -0.00783
80.9 -0.008
80.95 -0.00958
81 -0.00918
81.05 -0.01064
81.1 -0.01142
81.15 -0.00738
81.2 -0.00232
81.25 -0.00345
81.3 -0.00825
81.35 -0.00648
81.4 -0.00262
81.45 0.00322
81.5 0.00605
81.55 0.00535
81.6 0.00376
81.65 0.00092
81.7 0.00058
81.75 0.00015
81.8 0.00327
81.85 0.0063
81.9 0.00953
81.95 0.01175
82 0.00833
82.05 0.00972
82.1 0.0116
82.15 0.01114
82.2 0.00958
82.25 0.00785
82.3 0.00352
82.35 -0.00275
82.4 -0.00493
82.45 -0.00405
82.5 -0.00707
82.55 -0.0043
82.6 0.0008
82.65 0.00805
82.7 0.01277
82.75 0.0124
82.8 0.00741
82.85 0.00438
82.9 0.0039
82.95 0.00299
83 0.00599
83.05 0.00855
83.1 0.00591
83.15 0.00268
83.2 0.00471
83.25 0.00188
83.3 -0.00198
83.35 -0.00143
83.4 -0.00279
83.45 -0.00409
83.5 -0.00428
83.55 -0.00852
83.6 -0.01035
83.65 -0.00756
83.7 -0.00079
83.75 0.00698
83.8 0.0138
83.85 0.01617
83.9 0.01726
83.95 0.02074
84 0.01872
84.05 0.01705
84.1 0.0145
84.15 0.01411
84.2 0.01585
84.25 0.01883
84.3 0.02222
84.35 0.02358
84.4 0.02659
84.45 0.02118
84.5 0.01281
84.55 0.00234
84.6 -0.00275
84.65 -0.0073
84.7 -0.01067
84.75 -0.01175
84.8 -0.01308
84.85 -0.01621
84.9 -0.01383
84.95 -0.01401
85 -0.01038
85.05 -0.00829
85.1 -0.00651
85.15 -0.00293
85.2 -0.00546
85.25 -0.0073
85.3 -0.011
85.35 -0.01321
85.4 -0.01577
85.45 -0.01966
85.5 -0.02412
85.55 -0.02804
85.6 -0.02706
85.65 -0.02545
85.7 -0.02147
85.75 -0.01284
85.8 -0.0079
85.85 -0.00814
85.9 -0.01157
85.95 -0.01402
86 -0.01455
86.05 -0.01128
86.1 -0.01002
86.15 -0.01201
86.2 -0.01034
86.25 -0.01186
86.3 -0.01444
86.35 -0.01568
86.4 -0.01888
86.45 -0.02197
86.5 -0.024
86.55 -0.02502
86.6 -0.02805
86.65 -0.03125
86.7 -0.02938
86.75 -0.02564
86.8 -0.02066
86.85 -0.01954
86.9 -0.01978
86.95 -0.01629
87 -0.01013
87.05 -0.00625
87.1 -0.00585
87.15 -0.00408
87.2 -0.0059
87.25 -0.00931
87.3 -0.0089
87.35 -0.0072
87.4 -0.00771
87.45 -0.00359
87.5 0.00112
87.55 0.00535
87.6 0.00757
87.65 0.0118
87.7 0.01238
87.75 0.01246
87.8 0.01177
87.85 0.00677
87.9 0.00058
87.95 -0.00232
88 -0.00015
88.05 0.00587
88.1 0.01109
88.15 0.01763
88.2 0.01787
88.25 0.02013
88.3 0.01586
88.35 0.01033
88.4 0.00428
88.45 -0.00302
88.5 -0.00957
88.55 -0.01044
88.6 -0.01421
88.65 -0.01516
88.7 -0.01209
88.75 -0.00652
88.8 -0.00466
88.85 -0.00656
88.9 -0.00966
88.95 -0.01428
89 -0.01221
89.05 -0.00533
89.1 -0.00425
89.15 -0.00649
89.2 -0.00612
89.25 -0.0092
89.3 -0.01246
89.35 -0.01065
89.4 -0.01089
89.45 -0.01004
89.5 -0.0061
89.55 -0.0052
89.6 -0.0063
89.65 -0.00462
89.7 0.00007
89.75 0.00575
89.8 0.00621
89.85 0.00954
89.9 0.00914
89.95 0.01268
90 0.01371
90.05 0.01451
90.1 0.01741
90.15 0.01986
90.2 0.01704
90.25 0.01116
90.3 0.00953
90.35 0.00673
90.4 0.00115
90.45 -0.00571
90.5 -0.01227
90.55 -0.01062
90.6 -0.00955
90.65 -0.0047
90.7 0.00032
90.75 0.001
90.8 0.0062
90.85 0.01346
90.9 0.01293
90.95 0.01038
91 0.00425
91.05 0.00279
91.1 0.00551
91.15 0.00966
91.2 0.00863
91.25 0.00733
91.3 0.00896
91.35 0.01264
91.4 0.01787
91.45 0.0224
91.5 0.0231
91.55 0.02012
91.6 0.01332
91.65 0.0045
91.7 0.00098
91.75 0.00216
91.8 0.00305
91.85 -0.0005
91.9 -0.00653
91.95 -0.0107
92 -0.01019
92.05 -0.01177
92.1 -0.01468
92.15 -0.01523
92.2 -0.0187
92.25 -0.02068
92.3 -0.01992
92.35 -0.01383
92.4 -0.00634
92.45 0.00195
92.5 0.00728
92.55 0.00696
92.6 0.00388
92.65 -0.00153
92.7 -0.00222
92.75 0.00213
92.8 0.00274
92.85 0.00327
92.9 0.00039
92.95 -0.00033
93 0.00347
93.05 0.00424
93.1 0.00023
93.15 -0.00283
93.2 -0.00038
93.25 0.00454
93.3 0.00472
93.35 0.00664
93.4 0.00562
93.45 0.00894
93.5 0.01444
93.55 0.01995
93.6 0.0224
93.65 0.02442
93.7 0.01981
93.75 0.01426
93.8 0.00581
93.85 0.00049
93.9 0.00071
93.95 -0.00008
94 0.00373
94.05 0.00872
94.1 0.00659
94.15 0.00592
94.2 0.00823
94.25 0.00458
94.3 0.00637
94.35 0.00251
94.4 0.00335
94.45 0.00579
94.5 0.01011
94.55 0.0153
94.6 0.01844
94.65 0.01917
94.7 0.01879
94.75 0.01506
94.8 0.00911
94.85 0.00169
94.9 -0.00347
94.95 -0.00502
95 -0.00816
95.05 -0.00517
95.1 -0.00284
95.15 -0.00084
95.2 -0.00008
95.25 -0.00071
95.3 0.00231
95.35 0.00586
95.4 0.00286
95.45 0.00431
95.5 0.00509
95.55 0.00722
95.6 0.01178
95.65 0.01544
95.7 0.01811
95.75 0.01835
95.8 0.01695
95.85 0.01123
95.9 0.0075
95.95 0.0015
96 -0.00096
96.05 -0.00364
96.1 -0.00142
96.15 -0.00125
96.2 0.00282
96.25 0.00546
96.3 0.002
96.35 -0.00089
96.4 -0.004
96.45 -0.00914
96.5 -0.00997
96.55 -0.01056
96.6 -0.00887
96.65 -0.00973
96.7 -0.01189
96.75 -0.01334
96.8 -0.01018
96.85 -0.00367
96.9 0.00331
96.95 0.01035
97 0.01357
97.05 0.01461
97.1 0.01424
97.15 0.01489
97.2 0.0146
97.25 0.01282
97.3 0.01417
97.35 0.01479
97.4 0.01672
97.45 0.01814
97.5 0.01378
97.55 0.01031
97.6 0.00627
97.65 0.0036
97.7 -0.00256
97.75 -0.00699
97.8 -0.01142
97.85 -0.01202
97.9 -0.00849
97.95 -0.00683
98 -0.00698
98.05 -0.00699
98.1 -0.00354
98.15 -0.00217
98.2 -0.00028
98.25 0.00123
98.3 0.00208
98.35 0.00367
98.4 -0.00007
98.45 -0.00341
98.5 -0.00469
98.55 -0.00347
98.6 -0.00573
98.65 -0.0031
98.7 -0.00343
98.75 -0.00588
98.8 -0.00998
98.85 -0.0127
98.9 -0.01067
98.95 -0.00487
99 -0.00353
99.05 -0.00072
99.1 0.00337
99.15 0.00112
99.2 0.00357
99.25 0.0006
99.3 0.00128
99.35 0.00464
99.4 0.00855
99.45 0.01014
99.5 0.01355
99.55 0.01311
99.6 0.0103
99.65 0.00756
99.7 0.00014
99.75 -0.00497
99.8 -0.00814
99.85 -0.00881
99.9 -0.00807
99.95 -0.00623
