0 0
0.05 0.00097
0.1 0.00438
0.15 0.00851
0.2 0.01628
0.25 0.02827
0.3 0.0378
0.35 0.04638
0.4 0.04884
0.45 0.04911
0.5 0.05364
0.55 0.05939
0.6 0.06118
0.65 0.05689
0.7 0.05598
0.75 0.05238
0.8 0.04753
0.85 0.04816
0.9 0.0475
0.95 0.04615
1 0.04083
1.05 0.04079
1.1 0.04258
1.15 0.04426
1.2 0.04779
1.25 0.04764
1.3 0.04326
1.35 0.03667
1.4 0.03173
1.45 0.03187
1.5 0.03523
1.55 0.03904
1.6 0.03901
1.65 0.03578
1.7 0.0355
1.75 0.0375
1.8 0.0424
1.85 0.04444
1.9 0.0418
1.95 0.04312
2 0.04351
2.05 0.04106
2.1 0.04219
2.15 0.03756
2.2 0.03547
2.25 0.03643
2.3 0.0339
2.35 0.03312
2.4 0.03195
2.45 0.02977
2.5 0.03232
2.55 0.03252
2.6 0.03118
2.65 0.02966
2.7 0.02782
2.75 0.0292
2.8 0.03352
2.85 0.03802
2.9 0.03771
2.95 0.03799
3 0.03277
3.05 0.02535
3.1 0.02169
3.15 0.02023
3.2 0.01804
3.25 0.01349
3.3 0.01125
3.35 0.0137
3.4 0.0183
3.45 0.02504
3.5 0.02542
3.55 0.02694
3.6 0.02867
3.65 0.02657
3.7 0.0282
3.75 0.02912
3.8 0.0262
3.85 0.02014
3.9 0.01157
3.95 0.00821
4 0.00575
4.05 0.00376
4.1 0.00194
4.15 0.00039
4.2 -0.00349
4.25 -0.00422
4.3 -0.00386
4.35 -0.0018
4.4 -0.00348
4.45 -0.00782
4.5 -0.01733
4.55 -0.02802
4.6 -0.04431
4.65 -0.05723
4.7 -0.07407
4.75 -0.09044
4.8 -0.1108
4.85 -0.13122
4.9 -0.15819
4.95 -0.19556
5 -0.23851
5.05 -0.2824
5.1 -0.33694
5.15 -0.40036
5.2 -0.46267
5.25 -0.52952
5.3 -0.59863
5.35 -0.67694
5.4 -0.76164
5.45 -0.84818
5.5 -0.93823
5.55 -1.02792
5.6 -1.11857
5.65 -1.21627
5.7 -1.32036
5.75 -1.42426
5.8 -1.52511
5.85 -1.62337
5.9 -1.71669
5.95 -1.8091
6 -1.89873
6.05 -1.97988
6.1 -2.05672
6.15 -2.12353
6.2 -2.18993
6.25 -2.24814
6.3 -2.2998
6.35 -2.34516
6.4 -2.38805
6.45 -2.42502
6.5 -2.45372
6.55 -2.47802
6.6 -2.49326
6.65 -2.50255
6.7 -2.49513
6.75 -2.47608
6.8 -2.44082
6.85 -2.39383
6.9 -2.32627
6.95 -2.24295
7 -2.14104
7.05 -2.02059
7.1 -1.89038
7.15 -1.74638
7.2 -1.58764
7.25 -1.41802
7.3 -1.23618
7.35 -1.04495
7.4 -0.84741
7.45 -0.64462
7.5 -0.43438
7.55 -0.22956
7.6 -0.02579
7.65 0.17272
7.7 0.36424
7.75 0.547
7.8 0.72803
7.85 0.9014
7.9 1.06227
7.95 1.21503
8 1.35368
8.05 1.48233
8.1 1.60282
8.15 1.70877
8.2 1.80607
8.25 1.89391
8.3 1.96605
8.35 2.02997
8.4 2.08791
8.45 2.13759
8.5 2.17936
8.55 2.20497
8.6 2.22168
8.65 2.23085
8.7 2.23924
8.75 2.247
8.8 2.25245
8.85 2.25139
8.9 2.24435
8.95 2.232
9 2.21385
9.05 2.19551
9.1 2.17624
9.15 2.15786
9.2 2.14343
9.25 2.12489
9.3 2.10326
9.35 2.08145
9.4 2.05951
9.45 2.03734
9.5 2.01661
9.55 1.99262
9.6 1.96503
9.65 1.93367
9.7 1.90543
9.75 1.87465
9.8 1.84034
9.85 1.80816
9.9 1.77008
9.95 1.73001
10 1.69205
10.05 1.65355
10.1 1.61958
10.15 1.58671
10.2 1.55201
10.25 1.51447
10.3 1.47725
10.35 1.43652
10.4 1.39586
10.45 1.34696
10.5 1.3009
10.55 1.24834
10.6 1.196
10.65 1.14614
10.7 1.09516
10.75 1.0449
10.8 0.99613
10.85 0.94551
10.9 0.89464
10.95 0.84767
11 0.79851
11.05 0.75444
11.1 0.71224
11.15 0.67113
11.2 0.63178
11.25 0.5887
11.3 0.54431
11.35 0.50233
11.4 0.4651
11.45 0.42609
11.5 0.39094
11.55 0.35606
11.6 0.31623
11.65 0.2764
11.7 0.23437
11.75 0.19501
11.8 0.15518
11.85 0.11967
11.9 0.09094
11.95 0.06687
12 0.03766
12.05 0.00518
12.1 -0.02404
12.15 -0.05244
12.2 -0.07844
12.25 -0.10532
12.3 -0.13191
12.35 -0.15255
12.4 -0.16617
12.45 -0.17823
12.5 -0.19234
12.55 -0.20234
12.6 -0.21537
12.65 -0.23181
12.7 -0.24569
12.75 -0.26146
12.8 -0.27758
12.85 -0.29233
12.9 -0.30096
12.95 -0.30553
13 -0.31381
13.05 -0.32169
13.1 -0.32945
13.15 -0.34052
13.2 -0.34614
13.25 -0.34824
13.3 -0.35519
13.35 -0.36476
13.4 -0.36922
13.45 -0.36818
13.5 -0.36963
13.55 -0.37534
13.6 -0.3758
13.65 -0.37222
13.7 -0.37404
13.75 -0.37939
13.8 -0.38098
13.85 -0.37858
13.9 -0.37333
13.95 -0.36504
14 -0.35973
14.05 -0.35745
14.1 -0.35547
14.15 -0.3587
14.2 -0.36166
14.25 -0.36431
14.3 -0.36428
14.35 -0.35972
14.4 -0.358
14.45 -0.35733
14.5 -0.35536
14.55 -0.35035
14.6 -0.34066
14.65 -0.33394
14.7 -0.32914
14.75 -0.32804
14.8 -0.32985
14.85 -0.33017
14.9 -0.3248
14.95 -0.31942
15 -0.30927
15.05 -0.29977
15.1 -0.29047
15.15 -0.28214
15.2 -0.2784
15.25 -0.27308
15.3 -0.26861
15.35 -0.26641
15.4 -0.26917
15.45 -0.26761
15.5 -0.26597
15.55 -0.25955
15.6 -0.25241
15.65 -0.24525
15.7 -0.24257
15.75 -0.24224
15.8 -0.24243
15.85 -0.24511
15.9 -0.24126
15.95 -0.23377
16 -0.22988
16.05 -0.22339
16.1 -0.21963
16.15 -0.21577
16.2 -0.20816
16.25 -0.20514
16.3 -0.1994
16.35 -0.19606
16.4 -0.19492
16.45 -0.19473
16.5 -0.19248
16.55 -0.18849
16.6 -0.18986
16.65 -0.18907
16.7 -0.18909
16.75 -0.1904
16.8 -0.18948
16.85 -0.18363
16.9 -0.17903
16.95 -0.173
17 -0.16717
17.05 -0.16151
17.1 -0.16015
17.15 -0.15656
17.2 -0.15379
17.25 -0.15367
17.3 -0.15692
17.35 -0.15491
17.4 -0.15711
17.45 -0.16009
17.5 -0.16352
17.55 -0.15998
17.6 -0.15936
17.65 -0.1533
17.7 -0.14552
17.75 -0.14333
17.8 -0.14156
17.85 -0.1425
17.9 -0.14504
17.95 -0.14233
18 -0.13445
18.05 -0.1311
18.1 -0.12857
18.15 -0.12507
18.2 -0.12485
18.25 -0.12293
18.3 -0.12403
18.35 -0.12051
18.4 -0.11832
18.45 -0.11332
18.5 -0.11273
18.55 -0.11236
18.6 -0.11295
18.65 -0.10966
18.7 -0.10546
18.75 -0.09687
18.8 -0.0874
18.85 -0.07806
18.9 -0.06982
18.95 -0.07002
19 -0.07463
19.05 -0.0753
19.1 -0.0767
19.15 -0.07698
19.2 -0.0813
19.25 -0.08324
19.3 -0.08632
19.35 -0.08463
19.4 -0.07892
19.45 -0.07528
19.5 -0.07617
19.55 -0.07816
19.6 -0.07553
19.65 -0.07048
19.7 -0.06539
19.75 -0.06148
19.8 -0.06096
19.85 -0.05979
19.9 -0.05849
19.95 -0.05943
20 -0.05635
20.05 -0.059
20.1 -0.05885
20.15 -0.06248
20.2 -0.0647
20.25 -0.06499
20.3 -0.06298
20.35 -0.05705
20.4 -0.04862
20.45 -0.04734
20.5 -0.04802
20.55 -0.04642
20.6 -0.04898
20.65 -0.05227
20.7 -0.05016
20.75 -0.05086
20.8 -0.05544
20.85 -0.06097
20.9 -0.05992
20.95 -0.05587
21 -0.05222
21.05 -0.04833
21.1 -0.04153
21.15 -0.03397
21.2 -0.03429
21.25 -0.03674
21.3 -0.04317
21.35 -0.05038
21.4 -0.05587
21.45 -0.05787
21.5 -0.05654
21.55 -0.05302
21.6 -0.05318
21.65 -0.05336
21.7 -0.05349
21.75 -0.05188
21.8 -0.04634
21.85 -0.03894
21.9 -0.03761
21.95 -0.03409
22 -0.02939
22.05 -0.02266
22.1 -0.02169
22.15 -0.02217
22.2 -0.022
22.25 -0.02038
22.3 -0.02087
22.35 -0.02027
22.4 -0.0177
22.45 -0.02159
22.5 -0.02667
22.55 -0.03434
22.6 -0.04109
22.65 -0.04824
22.7 -0.04933
22.75 -0.04785
22.8 -0.04784
22.85 -0.04907
22.9 -0.04802
22.95 -0.04951
23 -0.04689
23.05 -0.04316
23.1 -0.0381
23.15 -0.03248
23.2 -0.02785
23.25 -0.02496
23.3 -0.02667
23.35 -0.02553
23.4 -0.02591
23.45 -0.02792
23.5 -0.0263
23.55 -0.02738
23.6 -0.0294
23.65 -0.02676
23.7 -0.02114
23.75 -0.01385
23.8 -0.00519
23.85 -0.00055
23.9 0.0033
23.95 0.00489
24 0.00189
24.05 0.00196
24.1 0.00384
24.15 0.00254
24.2 -0.00251
24.25 -0.00969
24.3 -0.01685
24.35 -0.01709
24.4 -0.02088
24.45 -0.0247
24.5 -0.02204
24.55 -0.01687
24.6 -0.01676
24.65 -0.02067
24.7 -0.02146
24.75 -0.01896
24.8 -0.0196
24.85 -0.02083
24.9 -0.02007
24.95 -0.02229
25 -0.02626
25.05 -0.03182
25.1 -0.02918
25.15 -0.02568
25.2 -0.01948
25.25 -0.01371
25.3 -0.00811
25.35 -0.00336
25.4 -0.00068
25.45 0.00278
25.5 0.00123
25.55 -0.00101
25.6 -0.00435
25.65 -0.00782
25.7 -0.00721
25.75 -0.00393
25.8 -0.00559
25.85 -0.01027
25.9 -0.01573
25.95 -0.0141
26 -0.01698
26.05 -0.01639
26.1 -0.0131
26.15 -0.01449
26.2 -0.01442
26.25 -0.01347
26.3 -0.01267
26.35 -0.01355
26.4 -0.01313
26.45 -0.01175
26.5 -0.00586
26.55 -0.00482
26.6 -0.00317
26.65 -0.00365
26.7 -0.00688
26.75 -0.00782
26.8 -0.00463
26.85 -0.00264
26.9 -0.00407
26.95 -0.00454
27 -0.00091
27.05 0.00249
27.1 0.00326
27.15 0.00247
27.2 0.00437
27.25 0.00862
27.3 0.01121
27.35 0.00959
27.4 0.01075
27.45 0.00576
27.5 0.00295
27.55 -0.00103
27.6 -0.00258
27.65 -0.00146
27.7 -0.00472
27.75 -0.00913
27.8 -0.01193
27.85 -0.01551
27.9 -0.02136
27.95 -0.02086
28 -0.02196
28.05 -0.02316
28.1 -0.01967
28.15 -0.0171
28.2 -0.01376
28.25 -0.01384
28.3 -0.01401
28.35 -0.0153
28.4 -0.01228
28.45 -0.01261
28.5 -0.01315
28.55 -0.01098
28.6 -0.00798
28.65 -0.00167
28.7 -0.00026
28.75 0.0004
28.8 0.00221
28.85 0.00276
28.9 0.00398
28.95 0.0088
29 0.00848
29.05 0.00659
29.1 0.00588
29.15 0.00612
29.2 0.00976
29.25 0.00931
29.3 0.00702
29.35 0.00434
29.4 0.00259
29.45 0.00205
29.5 0.00491
29.55 0.00149
29.6 -0.00076
29.65 -0.00524
29.7 -0.01086
29.75 -0.01734
29.8 -0.01907
29.85 -0.02116
29.9 -0.02461
29.95 -0.02046
30 -0.02015
30.05 -0.02061
30.1 -0.01551
30.15 -0.00733
30.2 -0.00173
30.25 0.00447
30.3 0.0121
30.35 0.01909
30.4 0.01904
30.45 0.0133
30.5 0.00418
30.55 -0.00143
30.6 -0.0083
30.65 -0.00855
30.7 -0.00562
30.75 -0.00194
30.8 0.00075
30.85 0.00273
30.9 0.00003
30.95 -0.00076
31 0.00232
31.05 0.00553
31.1 0.00485
31.15 0.00698
31.2 0.00404
31.25 -0.00057
31.3 -0.00278
31.35 -0.00258
31.4 -0.00636
31.45 -0.00846
31.5 -0.00797
31.55 -0.00557
31.6 -0.00389
31.65 -0.0063
31.7 -0.00791
31.75 -0.0054
31.8 -0.00625
31.85 -0.01063
31.9 -0.00872
31.95 -0.00464
32 -0.00421
32.05 -0.00652
32.1 -0.00329
32.15 0.00164
32.2 0.0089
32.25 0.00847
32.3 0.0115
32.35 0.01506
32.4 0.01214
32.45 0.00836
32.5 0.00503
32.55 0.00628
32.6 0.00779
32.65 0.01108
32.7 0.00795
32.75 0.00755
32.8 0.00742
32.85 0.01041
32.9 0.01068
32.95 0.00951
33 0.01031
33.05 0.00973
33.1 0.00818
33.15 0.01007
33.2 0.00641
33.25 0.00482
33.3 0.00312
33.35 0.00301
33.4 -0.00003
33.45 -0.00262
33.5 -0.0071
33.55 -0.01172
33.6 -0.01375
33.65 -0.0133
33.7 -0.00888
33.75 -0.00687
33.8 -0.00855
33.85 -0.00744
33.9 -0.00713
33.95 -0.00321
34 -0.00343
34.05 -0.00633
34.1 -0.0111
34.15 -0.01331
34.2 -0.01791
34.25 -0.0159
34.3 -0.01597
34.35 -0.01603
34.4 -0.01224
34.45 -0.00885
34.5 -0.00888
34.55 -0.00755
34.6 -0.00661
34.65 -0.00671
34.7 -0.01062
34.75 -0.01419
34.8 -0.01285
34.85 -0.00838
34.9 -0.00198
34.95 0.00369
35 0.00776
35.05 0.00863
35.1 0.00943
35.15 0.01095
35.2 0.01069
35.25 0.00788
35.3 0.00306
35.35 -0.00449
35.4 -0.01337
35.45 -0.02074
35.5 -0.02704
35.55 -0.03236
35.6 -0.0343
35.65 -0.03397
35.7 -0.03458
35.75 -0.03368
35.8 -0.02992
35.85 -0.02777
35.9 -0.02405
35.95 -0.02261
36 -0.01573
36.05 -0.00665
36.1 0.00102
36.15 0.00411
36.2 0.00239
36.25 0.00338
36.3 0.00337
36.35 0.00803
36.4 0.01216
36.45 0.01446
36.5 0.01902
36.55 0.02069
36.6 0.01984
36.65 0.01862
36.7 0.02039
36.75 0.02261
36.8 0.01843
36.85 0.01845
36.9 0.01742
36.95 0.01995
37 0.02424
37.05 0.02259
37.1 0.01783
37.15 0.01265
37.2 0.00532
37.25 0.00102
37.3 0.00189
37.35 0.00002
37.4 -0.00504
37.45 -0.011
37.5 -0.01787
37.55 -0.01985
37.6 -0.02154
37.65 -0.02421
37.7 -0.02577
37.75 -0.0271
37.8 -0.02281
37.85 -0.01366
37.9 -0.00347
37.95 0.00588
38 0.00916
38.05 0.00694
38.1 0.0014
38.15 -0.00453
38.2 -0.009
38.25 -0.01219
38.3 -0.01378
38.35 -0.01286
38.4 -0.01423
38.45 -0.01711
38.5 -0.01983
38.55 -0.02107
38.6 -0.0177
38.65 -0.01172
38.7 -0.00989
38.75 -0.00388
38.8 0.00492
38.85 0.00772
38.9 0.00661
38.95 0.00757
39 0.004
39.05 -0.00186
39.1 -0.00077
39.15 0.00034
39.2 -0.00293
39.25 -0.00744
39.3 -0.00986
39.35 -0.00998
39.4 -0.00778
39.45 -0.0098
39.5 -0.00661
39.55 0.0005
39.6 0.00408
39.65 0.00688
39.7 0.00646
39.75 0.00282
39.8 0.00003
39.85 0.00281
39.9 0.00556
39.95 0.00477
40 0.00621
40.05 0.00581
40.1 0.00297
40.15 -0.00254
40.2 -0.00979
40.25 -0.00955
40.3 -0.01261
40.35 -0.01299
40.4 -0.01218
40.45 -0.00869
40.5 -0.00574
40.55 -0.00728
40.6 -0.01151
40.65 -0.01631
40.7 -0.0202
40.75 -0.0201
40.8 -0.01961
40.85 -0.0153
40.9 -0.00672
40.95 -0.0019
41 0.00568
41.05 0.0142
41.1 0.0159
41.15 0.02028
41.2 0.02297
41.25 0.02032
41.3 0.01804
41.35 0.01293
41.4 0.01275
41.45 0.00841
41.5 0.00242
41.55 -0.00214
41.6 -0.00193
41.65 -0.00539
41.7 -0.00512
41.75 -0.00728
41.8 -0.00797
41.85 -0.0041
41.9 0.00111
41.95 0.00205
42 0.00574
42.05 0.00742
42.1 0.01058
42.15 0.01327
42.2 0.01756
42.25 0.01745
42.3 0.01653
42.35 0.01086
42.4 0.00621
42.45 -0.0014
42.5 -0.00538
42.55 -0.00795
42.6 -0.00621
42.65 -0.00073
42.7 0.00341
42.75 0.00871
42.8 0.00758
42.85 0.01032
42.9 0.01346
42.95 0.01481
43 0.01881
43.05 0.01532
43.1 0.01096
43.15 0.0069
43.2 0.00126
43.25 -0.0008
43.3 -0.00053
43.35 0.00236
43.4 0.00451
43.45 0.00247
43.5 0.00548
43.55 0.00346
43.6 0.00578
43.65 0.00285
43.7 -0.00189
43.75 -0.00926
43.8 -0.01525
43.85 -0.01857
43.9 -0.02151
43.95 -0.02415
44 -0.02196
44.05 -0.01437
44.1 -0.00805
44.15 -0.00462
44.2 0.0002
44.25 0.00657
44.3 0.0141
44.35 0.01385
44.4 0.00845
44.45 -0.00008
44.5 -0.00968
44.55 -0.01842
44.6 -0.02006
44.65 -0.02147
44.7 -0.02147
44.75 -0.02138
44.8 -0.02364
44.85 -0.0242
44.9 -0.02265
44.95 -0.02361
45 -0.02558
45.05 -0.02136
45.1 -0.01792
45.15 -0.01813
45.2 -0.01301
45.25 -0.008
45.3 -0.00533
45.35 -0.00549
45.4 -0.00549
45.45 -0.00614
45.5 -0.00755
45.55 -0.01058
45.6 -0.0077
45.65 -0.00072
45.7 0.00228
45.75 0.00461
45.8 0.00888
45.85 0.013
45.9 0.01909
45.95 0.02645
46 0.0277
46.05 0.02211
46.1 0.01613
46.15 0.01543
46.2 0.01545
46.25 0.01355
46.3 0.00725
46.35 0.00106
46.4 -0.00052
46.45 0.00054
46.5 0.00567
46.55 0.01157
46.6 0.01785
46.65 0.01955
46.7 0.01651
46.75 0.01075
46.8 0.00825
46.85 0.00852
46.9 0.01031
46.95 0.0105
47 0.01294
47.05 0.01179
47.1 0.01224
47.15 0.01356
47.2 0.01438
47.25 0.01294
47.3 0.01161
47.35 0.01169
47.4 0.01204
47.45 0.00881
47.5 0.0068
47.55 0.00833
47.6 0.00884
47.65 0.00389
47.7 0.00205
47.75 -0.00136
47.8 0.00052
47.85 0.00095
47.9 0.00536
47.95 0.00735
48 0.00429
48.05 0.00374
48.1 0.00095
48.15 0.00123
48.2 -0.00051
48.25 -0.0018
48.3 -0.00608
48.35 -0.00959
48.4 -0.01086
48.45 -0.01018
48.5 -0.01179
48.55 -0.01454
48.6 -0.01377
48.65 -0.01571
48.7 -0.01761
48.75 -0.01996
48.8 -0.01866
48.85 -0.01575
48.9 -0.01139
48.95 -0.00454
49 -0.00316
49.05 -0.00371
49.1 -0.00715
49.15 -0.00744
49.2 -0.00459
49.25 -0.00637
49.3 -0.00855
49.35 -0.012
49.4 -0.01388
49.45 -0.0118
49.5 -0.00722
49.55 0.00037
49.6 0.00204
49.65 -0.00037
49.7 0.00011
49.75 0.00252
49.8 0.00739
49.85 0.00917
49.9 0.00835
49.95 0.01113
50 0.01349
50.05 0.0157
50.1 0.01817
50.15 0.01432
50.2 0.01456
50.25 0.01328
50.3 0.00901
50.35 0.00533
50.4 -0.00026
50.45 -0.00787
50.5 -0.00964
50.55 -0.00655
50.6 0.00063
50.65 0.00911
50.7 0.01159
50.75 0.01477
50.8 0.01475
50.85 0.01674
50.9 0.0128
50.95 0.00697
51 0.00313
51.05 -0.00386
51.1 -0.00945
51.15 -0.01205
51.2 -0.01541
51.25 -0.01227
51.3 -0.00705
51.35 -0.00448
51.4 -0.00615
51.45 -0.01065
51.5 -0.01066
51.55 -0.00996
51.6 -0.01173
51.65 -0.01587
51.7 -0.01959
51.75 -0.02119
51.8 -0.02173
51.85 -0.01679
51.9 -0.01164
51.95 -0.01041
52 -0.0119
52.05 -0.013
52.1 -0.01588
52.15 -0.01993
52.2 -0.01705
52.25 -0.00937
52.3 -0.00188
52.35 0.00339
52.4 0.00644
52.45 0.0105
52.5 0.01073
52.55 0.01262
52.6 0.01573
52.65 0.0127
52.7 0.00579
52.75 0.00461
52.8 0.00401
52.85 -0.00012
52.9 -0.00077
52.95 0.00342
53 0.00577
53.05 0.00419
53.1 0.00365
53.15 0.00454
53.2 0.00672
53.25 0.00762
53.3 0.01202
53.35 0.01747
53.4 0.01695
53.45 0.01514
53.5 0.0101
53.55 0.00473
53.6 0.00366
53.65 0.00717
53.7 0.01109
53.75 0.01313
53.8 0.0132
53.85 0.01513
53.9 0.01536
53.95 0.01019
54 0.00804
54.05 0.01028
54.1 0.00686
54.15 0.00687
54.2 0.00192
54.25 0.00213
54.3 -0.00015
54.35 -0.0017
54.4 0.00099
54.45 0.00394
54.5 0.00209
54.55 0.00108
54.6 -0.00325
54.65 -0.00353
54.7 -0.00616
54.75 -0.00288
54.8 -0.00149
54.85 -0.00113
54.9 0.00144
54.95 0.00286
55 0.00357
55.05 0.00378
55.1 0.00707
55.15 0.00715
55.2 0.00499
55.25 0.00064
55.3 0.00042
55.35 0.00293
55.4 0.00085
55.45 0.00085
55.5 0.00159
55.55 0.00083
55.6 0.00018
55.65 0.00407
55.7 0.00988
55.75 0.01708
55.8 0.01971
55.85 0.02292
55.9 0.02634
55.95 0.02387
56 0.02052
56.05 0.01989
56.1 0.02188
56.15 0.01799
56.2 0.01799
56.25 0.01667
56.3 0.01298
56.35 0.00719
56.4 0.00042
56.45 -0.00792
56.5 -0.01709
56.55 -0.02068
56.6 -0.02265
56.65 -0.02156
56.7 -0.01664
56.75 -0.00968
56.8 -0.00536
56.85 -0.00657
56.9 -0.0106
56.95 -0.00913
57 -0.00778
57.05 -0.00611
57.1 -0.00647
57.15 -0.01095
57.2 -0.01252
57.25 -0.01453
57.3 -0.01385
57.35 -0.01618
57.4 -0.01555
57.45 -0.01107
57.5 -0.00544
57.55 -0.00524
57.6 -0.0049
57.65 -0.00062
57.7 0.00157
57.75 0.00392
57.8 0.0014
57.85 -0.00196
57.9 -0.00775
57.95 -0.01482
58 -0.01726
58.05 -0.01464
58.1 -0.01201
58.15 -0.00943
58.2 -0.00436
58.25 -0.00062
58.3 0.0048
58.35 0.0115
58.4 0.01933
58.45 0.01981
58.5 0.01398
58.55 0.00871
58.6 0.00433
58.65 -0.00301
58.7 -0.00963
58.75 -0.01664
58.8 -0.02269
58.85 -0.02562
58.9 -0.02759
58.95 -0.02935
59 -0.02738
59.05 -0.02538
59.1 -0.02379
59.15 -0.01674
59.2 -0.00773
59.25 -0.00173
59.3 0.00388
59.35 0.00443
59.4 0.00372
59.45 0.00542
59.5 0.00779
59.55 0.0073
59.6 0.00869
59.65 0.00861
59.7 0.00791
59.75 0.00978
59.8 0.0094
59.85 0.00684
59.9 0.00821
59.95 0.00439
60 -0.00045
60.05 -0.00259
60.1 -0.00558
60.15 -0.00713
60.2 -0.00677
60.25 -0.00963
60.3 -0.00718
60.35 -0.00937
60.4 -0.00908
60.45 -0.00417
60.5 0.00119
60.55 0.0081
60.6 0.01333
60.65 0.01453
60.7 0.01715
60.75 0.02053
60.8 0.02122
60.85 0.02284
60.9 0.01882
60.95 0.01725
61 0.0131
61.05 0.01329
61.1 0.00836
61.15 0.00526
61.2 -0.00031
61.25 -0.00354
61.3 -0.00631
61.35 -0.0058
61.4 -0.00191
61.45 -0.00006
61.5 0.00126
61.55 0.00363
61.6 0.0018
61.65 -0.00419
61.7 -0.008
61.75 -0.00803
61.8 -0.00961
61.85 -0.00584
61.9 -0.00524
61.95 -0.00237
62 0.00003
62.05 -0.00186
62.1 0.00155
62.15 0.00666
62.2 0.00576
62.25 0.00214
62.3 -0.00078
62.35 -0.00208
62.4 -0.00404
62.45 -0.00753
62.5 -0.00571
62.55 -0.00619
62.6 -0.01018
62.65 -0.01541
62.7 -0.01749
62.75 -0.02142
62.8 -0.02
62.85 -0.02132
62.9 -0.02006
62.95 -0.01422
63 -0.01376
63.05 -0.0152
63.1 -0.01123
63.15 -0.00984
63.2 -0.00425
63.25 0.00399
63.3 0.00808
63.35 0.01248
63.4 0.01723
63.45 0.01899
63.5 0.01937
63.55 0.02121
63.6 0.01905
63.65 0.01777
63.7 0.01404
63.75 0.01169
63.8 0.00652
63.85 0.00267
63.9 0.00257
63.95 -0.00101
64 -0.0068
64.05 -0.01202
64.1 -0.01673
64.15 -0.02156
64.2 -0.01932
64.25 -0.01546
64.3 -0.01566
64.35 -0.01677
64.4 -0.01966
64.45 -0.02431
64.5 -0.02312
64.55 -0.01613
64.6 -0.00732
64.65 -0.00038
64.7 0.00586
64.75 0.01068
64.8 0.01451
64.85 0.01882
64.9 0.0245
64.95 0.02513
65 0.02036
65.05 0.02005
65.1 0.01642
65.15 0.01437
65.2 0.01423
65.25 0.0125
65.3 0.00725
65.35 0.00511
65.4 0.00297
65.45 0.00177
65.5 0.0013
65.55 0.00459
65.6 0.01072
65.65 0.01568
65.7 0.01862
65.75 0.01669
65.8 0.01628
65.85 0.01744
65.9 0.01223
65.95 0.00895
66 0.00706
66.05 0.00752
66.1 0.00245
66.15 -0.00318
66.2 -0.0108
66.25 -0.0175
66.3 -0.01861
66.35 -0.01702
66.4 -0.01163
66.45 -0.00961
66.5 -0.01044
66.55 -0.00648
66.6 -0.00592
66.65 -0.00525
66.7 0.00001
66.75 0.00464
66.8 0.00852
66.85 0.01368
66.9 0.01489
66.95 0.01603
67 0.0131
67.05 0.00627
67.1 0.00332
67.15 0.00189
67.2 -0.0007
67.25 -0.00209
67.3 0.00162
67.35 -0.00059
67.4 -0.00488
67.45 -0.0033
67.5 -0.00682
67.55 -0.00644
67.6 -0.00799
67.65 -0.01181
67.7 -0.01167
67.75 -0.00859
67.8 -0.00466
67.85 -0.0003
67.9 0.00127
67.95 0.00441
68 0.00385
68.05 0.00642
68.1 0.00692
68.15 0.01005
68.2 0.01041
68.25 0.008
68.3 0.00262
68.35 0.00277
68.4 0.00223
68.45 0.00019
68.5 -0.00422
68.55 -0.0024
68.6 -0.00001
68.65 -0.0025
68.7 -0.00251
68.75 0.00104
68.8 0.00477
68.85 0.00335
68.9 0.00448
68.95 0.00679
69 0.00637
69.05 0.00446
69.1 0.00272
69.15 -0.00038
69.2 0.00134
69.25 0.00019
69.3 -0.00188
69.35 0.00013
69.4 0.00563
69.45 0.01125
69.5 0.01509
69.55 0.0161
69.6 0.01861
69.65 0.01397
69.7 0.00499
69.75 -0.00443
69.8 -0.01246
69.85 -0.02048
69.9 -0.02323
69.95 -0.0254
70 -0.02797
70.05 -0.02343
70.1 -0.0183
70.15 -0.01412
70.2 -0.01278
70.25 -0.00832
70.3 -0.00333
70.35 -0.00455
70.4 -0.0026
70.45 0.00307
70.5 0.00186
70.55 -0.00304
70.6 -0.00641
70.65 -0.00443
70.7 0.00018
70.75 0.00715
70.8 0.01441
70.85 0.0146
70.9 0.01451
70.95 0.01205
71 0.01038
71.05 0.00938
71.1 0.00426
71.15 -0.00011
71.2 -0.00398
71.25 -0.0099
71.3 -0.00997
71.35 -0.01293
71.4 -0.01434
71.45 -0.0154
71.5 -0.01392
71.55 -0.01486
71.6 -0.01591
71.65 -0.01708
71.7 -0.01492
71.75 -0.012
71.8 -0.00668
71.85 -0.00583
71.9 -0.00289
71.95 0.00159
72 0.00052
72.05 -0.00351
72.1 -0.00251
72.15 -0.00511
72.2 -0.00904
72.25 -0.01044
72.3 -0.01447
72.35 -0.01425
72.4 -0.01147
72.45 -0.0132
72.5 -0.01293
72.55 -0.00898
72.6 -0.0085
72.65 -0.01011
72.7 -0.01146
72.75 -0.00828
72.8 -0.00495
72.85 0.00072
72.9 0.00512
72.95 0.01214
73 0.01158
73.05 0.00948
73.1 0.01069
73.15 0.00876
73.2 0.00768
73.25 0.00186
73.3 -0.00574
73.35 -0.00999
73.4 -0.01288
73.45 -0.01344
73.5 -0.01338
73.55 -0.01089
73.6 -0.00681
73.65 -0.00252
73.7 -0.00342
73.75 -0.00503
73.8 -0.00189
73.85 -0.00167
73.9 -0.00223
73.95 -0.00625
74 -0.00436
74.05 -0.00503
74.1 -0.00274
74.15 -0.00341
74.2 -0.0024
74.25 0.00317
74.3 0.00758
74.35 0.00972
74.4 0.00862
74.45 0.01093
74.5 0.01549
74.55 0.01969
74.6 0.01646
74.65 0.01096
74.7 0.00389
74.75 0.00357
74.8 0.0008
74.85 0.00226
74.9 0.00182
74.95 0.00583
75 0.00834
75.05 0.00708
75.1 0.00406
75.15 -0.00005
75.2 0.00034
75.25 -0.0009
75.3 -0.00562
75.35 -0.00409
75.4 -0.00437
75.45 -0.00323
75.5 -0.00052
75.55 0.00157
75.6 0.00539
75.65 0.0075
75.7 0.00982
75.75 0.01285
75.8 0.01304
75.85 0.00963
75.9 0.0075
75.95 0.00881
76 0.00862
76.05 0.01153
76.1 0.00785
76.15 0.00092
76.2 0.00028
76.25 -0.00396
76.3 -0.00203
76.35 -0.00312
76.4 -0.00665
76.45 -0.00687
76.5 -0.0026
76.55 0.00261
76.6 0.00199
76.65 -0.00159
76.7 -0.00474
76.75 -0.00841
76.8 -0.00949
76.85 -0.0059
76.9 0.00125
76.95 0.00566
77 0.0059
77.05 0.00502
77.1 0.00204
77.15 0.00207
77.2 0.00097
77.25 -0.00386
77.3 -0.01115
77.35 -0.01316
77.4 -0.01254
77.45 -0.0086
77.5 -0.00359
77.55 -0.00187
77.6 -0.00003
77.65 0.00171
77.7 0.00121
77.75 0.0002
77.8 0.00288
77.85 0.00594
77.9 0.0057
77.95 0.00832
78 0.01317
78.05 0.01277
78.1 0.00761
78.15 0.00668
78.2 0.00584
78.25 0.00621
78.3 0.00825
78.35 0.01259
78.4 0.01795
78.45 0.01605
78.5 0.00977
78.55 0.00799
78.6 0.00189
78.65 -0.00338
78.7 -0.01032
78.75 -0.01512
78.8 -0.01592
78.85 -0.01703
78.9 -0.01775
78.95 -0.01918
79 -0.02085
79.05 -0.01581
79.1 -0.0134
79.15 -0.00904
79.2 -0.00273
79.25 0.00548
79.3 0.01194
79.35 0.01673
79.4 0.02095
79.45 0.01911
79.5 0.02034
79.55 0.02138
79.6 0.01682
79.65 0.01297
79.7 0.00917
79.75 0.00727
79.8 0.00542
79.85 0.00241
79.9 0.00182
79.95 0.0013
80 0.00194
80.05 -0.00037
80.1 -0.00137
80.15 -0.0062
80.2 -0.01039
80.25 -0.01672
80.3 -0.01623
80.35 -0.01713
80.4 -0.02075
80.45 -0.02034
80.5 -0.02101
80.55 -0.01961
80.6 -0.02149
80.65 -0.0253
80.7 -0.02715
80.75 -0.02933
80.8 -0.02814
80.85 -0.02765
80.9 -0.0254
80.95 -0.01915
81 -0.00948
81.05 -0.0033
81.1 -0.00345
81.15 -0.0027
81.2 -0.00457
81.25 -0.00789
81.3 -0.0082
81.35 -0.00539
81.4 -0.00121
81.45 -0.00169
81.5 0.0016
81.55 0.00713
81.6 0.00782
81.65 0.00471
81.7 -0.00053
81.75 0.00015
81.8 -0.0006
81.85 0.0014
81.9 0.00462
81.95 0.00535
82 0.00316
82.05 0.00142
82.1 -0.00168
82.15 -0.00263
82.2 -0.00394
82.25 -0.0054
82.3 -0.00713
82.35 -0.01012
82.4 -0.00989
82.45 -0.00826
82.5 -0.0097
82.55 -0.00785
82.6 -0.00545
82.65 -0.00102
82.7 0.00075
82.75 0.00314
82.8 0.00063
82.85 -0.00456
82.9 -0.00622
82.95 -0.00823
83 -0.00646
83.05 -0.00026
83.1 0.00694
83.15 0.01405
83.2 0.01373
83.25 0.01586
83.3 0.01672
83.35 0.01514
83.4 0.00962
83.45 0.00567
83.5 -0.00166
83.55 -0.00445
83.6 -0.00682
83.65 -0.00539
83.7 -0.00155
83.75 0.00498
83.8 0.00673
83.85 0.00753
83.9 0.00674
83.95 0.00217
84 -0.00019
84.05 -0.00398
84.1 -0.00887
84.15 -0.0095
84.2 -0.00545
84.25 -0.00652
84.3 -0.00285
84.35 -0.00411
84.4 -0.00471
84.45 -0.00504
84.5 -0.00466
84.55 -0.00357
84.6 -0.00116
84.65 0.00107
84.7 0.00564
84.75 0.00665
84.8 0.0106
84.85 0.00991
84.9 0.01081
84.95 0.01213
85 0.0093
85.05 0.00421
85.1 0.00008
85.15 -0.002
85.2 0.00021
85.25 -0.00025
85.3 -0.00313
85.35 -0.00833
85.4 -0.01434
85.45 -0.01289
85.5 -0.00952
85.55 -0.0081
85.6 -0.00809
85.65 -0.01109
85.7 -0.00775
85.75 -0.00256
85.8 0.00065
85.85 0.00085
85.9 -0.00047
85.95 -0.00414
86 -0.00819
86.05 -0.00531
86.1 -0.00379
86.15 -0.00115
86.2 -0.00124
86.25 0.00146
86.3 0.00547
86.35 0.00897
86.4 0.01049
86.45 0.00766
86.5 0.00519
86.55 -0.00107
86.6 -0.00561
86.65 -0.00381
86.7 -0.00504
86.75 -0.00964
86.8 -0.01265
86.85 -0.01031
86.9 -0.00789
86.95 -0.00388
87 0.00324
87.05 0.00641
87.1 0.01002
87.15 0.0109
87.2 0.01268
87.25 0.00886
87.3 0.00142
87.35 -0.00442
87.4 -0.00787
87.45 -0.00795
87.5 -0.01105
87.55 -0.00757
87.6 -0.00854
87.65 -0.00899
87.7 -0.01143
87.75 -0.01185
87.8 -0.01383
87.85 -0.01281
87.9 -0.0126
87.95 -0.00978
88 -0.00569
88.05 -0.00037
88.1 0.00355
88.15 0.00456
88.2 0.00077
88.25 0.00073
88.3 0.00262
88.35 0.00779
88.4 0.00825
88.45 0.01214
88.5 0.01768
88.55 0.0185
88.6 0.02019
88.65 0.018
88.7 0.01829
88.75 0.01337
88.8 0.00505
88.85 -0.00323
88.9 -0.0061
88.95 -0.00742
89 -0.00657
89.05 -0.003
89.1 -0.00087
89.15 -0.00207
89.2 -0.00533
89.25 -0.01073
89.3 -0.01575
89.35 -0.01755
89.4 -0.01637
89.45 -0.01668
89.5 -0.01357
89.55 -0.0085
89.6 -0.006
89.65 -0.0021
89.7 0.00095
89.75 0.00445
89.8 0.00303
89.85 0.0022
89.9 -0.00062
89.95 -0.00292
90 -0.00143
90.05 -0.00038
90.1 0.00325
90.15 0.00425
90.2 0.00348
90.25 0.00514
90.3 0.00853
90.35 0.01055
90.4 0.01455
90.45 0.01847
90.5 0.02306
90.55 0.02571
90.6 0.0295
90.65 0.02805
90.7 0.02086
90.75 0.01361
90.8 0.01
90.85 0.01095
90.9 0.01183
90.95 0.0107
91 0.01064
91.05 0.00852
91.1 0.00305
91.15 -0.00151
91.2 -0.0071
91.25 -0.01177
91.3 -0.01391
91.35 -0.00981
91.4 -0.00992
91.45 -0.01177
91.5 -0.0144
91.55 -0.01279
91.6 -0.01397
91.65 -0.01723
91.7 -0.02178
91.75 -0.02552
91.8 -0.02982
91.85 -0.03379
91.9 -0.0349
91.95 -0.02846
92 -0.02551
92.05 -0.02056
92.1 -0.01171
92.15 -0.00343
92.2 0.00029
92.25 0.00726
92.3 0.01241
92.35 0.01264
92.4 0.01615
92.45 0.02036
92.5 0.02169
92.55 0.02484
92.6 0.02268
92.65 0.01516
92.7 0.00556
92.75 -0.00515
92.8 -0.01336
92.85 -0.01741
92.9 -0.01822
92.95 -0.01773
93 -0.0135
93.05 -0.01131
93.1 -0.01015
93.15 -0.0111
93.2 -0.01134
93.25 -0.01354
93.3 -0.01477
93.35 -0.01433
93.4 -0.00817
93.45 -0.00344
93.5 0.00343
93.55 0.00623
93.6 0.00596
93.65 0.00777
93.7 0.01321
93.75 0.01152
93.8 0.0095
93.85 0.00385
93.9 0.00182
93.95 -0.00123
94 0.00131
94.05 0.00636
94.1 0.00956
94.15 0.01436
94.2 0.01566
94.25 0.01185
94.3 0.00723
94.35 0.0057
94.4 0.00771
94.45 0.01092
94.5 0.01301
94.55 0.01405
94.6 0.0092
94.65 0.00373
94.7 -0.00318
94.75 -0.00716
94.8 -0.00711
94.85 -0.00478
94.9 -0.00618
94.95 -0.01064
95 -0.01282
95.05 -0.01494
95.1 -0.01776
95.15 -0.01614
95.2 -0.01531
95.25 -0.01345
95.3 -0.00853
95.35 -0.00679
95.4 -0.0064
95.45 -0.00671
95.5 -0.00147
95.55 0.00436
95.6 0.00829
95.65 0.0068
95.7 0.00834
95.75 0.00642
95.8 0.00622
95.85 0.00869
95.9 0.01028
95.95 0.00826
96 0.0086
96.05 0.00423
96.1 0.00419
96.15 -0.00034
96.2 -0.00099
96.25 0.00254
96.3 0.00851
96.35 0.00856
96.4 0.01066
96.45 0.0142
96.5 0.01226
96.55 0.01045
96.6 0.01049
96.65 0.01225
96.7 0.01489
96.75 0.01259
96.8 0.0057
96.85 -0.00054
96.9 -0.00091
96.95 0.00164
97 0.00312
97.05 0.00095
97.1 0.00317
97.15 0.00502
97.2 0.00469
97.25 0.00576
97.3 0.01017
97.35 0.00899
97.4 0.00357
97.45 0.00227
97.5 -0.00317
97.55 -0.00994
97.6 -0.0119
97.65 -0.01332
97.7 -0.01064
97.75 -0.00988
97.8 -0.00474
97.85 0.00313
97.9 0.00925
97.95 0.01041
98 0.01318
98.05 0.01273
98.1 0.00933
98.15 0.01008
98.2 0.01175
98.25 0.00853
98.3 0.01032
98.35 0.01383
98.4 0.01467
98.45 0.01416
98.5 0.0101
98.55 0.00839
98.6 0.00823
98.65 0.00796
98.7 0.01093
98.75 0.00765
98.8 0.00364
98.85 0.00319
98.9 0.00246
98.95 -0.0014
99 -0.00764
99.05 -0.00845
99.1 -0.00699
99.15 -0.00514
99.2 -0.00767
99.25 -0.00607
99.3 -0.00766
99.35 -0.00471
99.4 0.00069
99.45 -0.00034
99.5 -0.00145
99.55 -0.00099
99.6 -0.00227
99.65 -0.00168
99.7 -0.00307
99.75 -0.00501
99.8 -0.00646
99.85 -0.00428
99.9 0.00069
99.95 0.0016
