0 0
0.05 0.00202
0.1 0.00674
0.15 0.01178
0.2 0.02037
0.25 0.02809
0.3 0.03907
0.35 0.0486
0.4 0.05619
0.45 0.06379
0.5 0.06727
0.55 0.07222
0.6 0.07508
0.65 0.072
0.7 0.06472
0.75 0.0609
0.8 0.05526
0.85 0.05306
0.9 0.04995
0.95 0.04638
1 0.04549
1.05 0.04514
1.1 0.04635
1.15 0.04872
1.2 0.05411
1.25 0.05203
1.3 0.05373
1.35 0.05574
1.4 0.05645
1.45 0.05507
1.5 0.04854
1.55 0.0454
1.6 0.04549
1.65 0.04068
1.7 0.03624
1.75 0.03173
1.8 0.02758
1.85 0.02968
1.9 0.03349
1.95 0.03628
2 0.0402
2.05 0.03818
2.1 0.0355
2.15 0.03049
2.2 0.02984
2.25 0.02611
2.3 0.02085
2.35 0.02132
2.4 0.0259
2.45 0.0321
2.5 0.03766
2.55 0.04441
2.6 0.05021
2.65 0.05531
2.7 0.05191
2.75 0.04526
2.8 0.04359
2.85 0.03985
2.9 0.03863
2.95 0.03413
3 0.02696
3.05 0.02132
3.1 0.01499
3.15 0.01047
3.2 0.01261
3.25 0.0134
3.3 0.01736
3.35 0.02162
3.4 0.02775
3.45 0.02807
3.5 0.0229
3.55 0.02045
3.6 0.01702
3.65 0.01055
3.7 0.00567
3.75 0.00127
3.8 -0.00101
3.85 -0.00053
3.9 0.00222
3.95 0.0043
4 0.00903
4.05 0.00772
4.1 0.00839
4.15 0.00992
4.2 0.00741
4.25 0.00155
4.3 -0.00267
4.35 -0.00305
4.4 -0.00878
4.45 -0.01074
4.5 -0.01587
4.55 -0.02632
4.6 -0.04175
4.65 -0.05753
4.7 -0.07236
4.75 -0.09437
4.8 -0.12152
4.85 -0.14761
4.9 -0.17158
4.95 -0.1995
5 -0.23039
5.05 -0.26864
5.1 -0.31082
5.15 -0.36672
5.2 -0.42603
5.25 -0.49286
5.3 -0.56866
5.35 -0.65032
5.4 -0.73482
5.45 -0.81748
5.5 -0.89989
5.55 -0.98485
5.6 -1.06772
5.65 -1.14862
5.7 -1.23432
5.75 -1.32479
5.8 -1.41468
5.85 -1.50031
5.9 -1.58152
5.95 -1.65991
6 -1.72934
6.05 -1.79347
6.1 -1.85193
6.15 -1.90219
6.2 -1.94655
6.25 -1.9791
6.3 -2.00744
6.35 -2.02477
6.4 -2.0333
6.45 -2.03604
6.5 -2.0368
6.55 -2.03105
6.6 -2.01605
6.65 -1.99607
6.7 -1.96767
6.75 -1.92968
6.8 -1.87798
6.85 -1.81124
6.9 -1.72617
6.95 -1.63065
7 -1.51982
7.05 -1.395
7.1 -1.25745
7.15 -1.11718
7.2 -0.97057
7.25 -0.81533
7.3 -0.64944
7.35 -0.47872
7.4 -0.3051
7.45 -0.13059
7.5 0.03574
7.55 0.20284
7.6 0.36586
7.65 0.525
7.7 0.67605
7.75 0.8163
7.8 0.94952
7.85 1.07182
7.9 1.18497
7.95 1.28212
8 1.37125
8.05 1.44686
8.1 1.51586
8.15 1.57765
8.2 1.62723
8.25 1.66925
8.3 1.70311
8.35 1.7283
8.4 1.75448
8.45 1.77218
8.5 1.78955
8.55 1.79723
8.6 1.80511
8.65 1.80711
8.7 1.80635
8.75 1.80535
8.8 1.80335
8.85 1.79664
8.9 1.78156
8.95 1.76632
9 1.751
9.05 1.7304
9.1 1.71203
9.15 1.68918
9.2 1.66464
9.25 1.64301
9.3 1.62267
9.35 1.6038
9.4 1.58318
9.45 1.56305
9.5 1.54513
9.55 1.52444
9.6 1.50137
9.65 1.4766
9.7 1.44657
9.75 1.41521
9.8 1.38496
9.85 1.35242
9.9 1.32177
9.95 1.28977
10 1.25529
10.05 1.22399
10.1 1.19504
10.15 1.16256
10.2 1.13341
10.25 1.10278
10.3 1.07561
10.35 1.04659
10.4 1.01738
10.45 0.98672
10.5 0.95049
10.55 0.91425
10.6 0.87795
10.65 0.84402
10.7 0.81291
10.75 0.78046
10.8 0.74925
10.85 0.71581
10.9 0.68222
10.95 0.64782
11 0.60783
11.05 0.57257
11.1 0.53527
11.15 0.49432
11.2 0.45333
11.25 0.41169
11.3 0.37213
11.35 0.34024
11.4 0.31266
11.45 0.28084
11.5 0.24619
11.55 0.21778
11.6 0.18584
11.65 0.1517
11.7 0.12137
11.75 0.08951
11.8 0.06303
11.85 0.0419
11.9 0.01623
11.95 -0.00492
12 -0.02267
12.05 -0.03726
12.1 -0.05171
12.15 -0.07321
12.2 -0.09047
12.25 -0.10544
12.3 -0.12162
12.35 -0.14005
12.4 -0.15424
12.45 -0.17314
12.5 -0.1908
12.55 -0.20851
12.6 -0.22486
12.65 -0.23571
12.7 -0.24717
12.75 -0.25466
12.8 -0.25848
12.85 -0.26761
12.9 -0.2788
12.95 -0.28479
13 -0.29161
13.05 -0.29959
13.1 -0.30079
13.15 -0.29852
13.2 -0.29812
13.25 -0.30017
13.3 -0.29921
13.35 -0.29534
13.4 -0.29189
13.45 -0.29607
13.5 -0.29984
13.55 -0.30481
13.6 -0.30725
13.65 -0.30878
13.7 -0.3071
13.75 -0.30257
13.8 -0.29579
13.85 -0.2881
13.9 -0.28256
13.95 -0.28234
14 -0.28319
14.05 -0.28724
14.1 -0.2888
14.15 -0.28559
14.2 -0.28071
14.25 -0.27354
14.3 -0.26644
14.35 -0.26211
14.4 -0.2637
14.45 -0.26173
14.5 -0.26308
14.55 -0.26508
14.6 -0.26666
14.65 -0.26309
14.7 -0.26155
14.75 -0.25509
14.8 -0.24964
14.85 -0.24722
14.9 -0.24251
14.95 -0.23508
15 -0.22583
15.05 -0.22482
15.1 -0.22095
15.15 -0.22107
15.2 -0.21707
15.25 -0.20984
15.3 -0.20655
15.35 -0.20135
15.4 -0.19871
15.45 -0.1989
15.5 -0.19976
15.55 -0.19948
15.6 -0.1982
15.65 -0.20117
15.7 -0.1999
15.75 -0.20133
15.8 -0.19745
15.85 -0.19667
15.9 -0.1925
15.95 -0.18896
16 -0.18339
16.05 -0.18037
16.1 -0.17271
16.15 -0.16834
16.2 -0.16565
16.25 -0.16184
16.3 -0.15822
16.35 -0.15922
16.4 -0.16127
16.45 -0.16548
16.5 -0.16692
16.55 -0.16635
16.6 -0.16518
16.65 -0.15999
16.7 -0.15041
16.75 -0.14683
16.8 -0.14602
16.85 -0.1417
16.9 -0.13847
16.95 -0.13893
17 -0.1368
17.05 -0.13229
17.1 -0.12564
17.15 -0.12043
17.2 -0.12021
17.25 -0.12075
17.3 -0.12416
17.35 -0.12705
17.4 -0.13102
17.45 -0.12727
17.5 -0.12679
17.55 -0.12808
17.6 -0.12233
17.65 -0.12012
17.7 -0.11858
17.75 -0.11609
17.8 -0.11295
17.85 -0.1121
17.9 -0.10655
17.95 -0.10529
18 -0.1033
18.05 -0.09949
18.1 -0.09886
18.15 -0.10043
18.2 -0.09962
18.25 -0.09562
18.3 -0.09502
18.35 -0.09245
18.4 -0.09144
18.45 -0.0906
18.5 -0.08595
18.55 -0.08266
18.6 -0.08132
18.65 -0.07893
18.7 -0.07477
18.75 -0.06716
18.8 -0.06562
18.85 -0.06152
18.9 -0.05718
18.95 -0.05163
19 -0.05149
19.05 -0.05611
19.1 -0.05748
19.15 -0.05936
19.2 -0.06266
19.25 -0.06825
19.3 -0.06628
19.35 -0.06462
19.4 -0.05968
19.45 -0.05388
19.5 -0.0478
19.55 -0.04308
19.6 -0.04278
19.65 -0.04251
19.7 -0.0415
19.75 -0.042
19.8 -0.04683
19.85 -0.05288
19.9 -0.06023
19.95 -0.06611
20 -0.06371
20.05 -0.06439
20.1 -0.06597
20.15 -0.06097
20.2 -0.05756
20.25 -0.05375
20.3 -0.05044
20.35 -0.04509
20.4 -0.03946
20.45 -0.03717
20.5 -0.03755
20.55 -0.03441
20.6 -0.03388
20.65 -0.03305
20.7 -0.02984
20.75 -0.0265
20.8 -0.02517
20.85 -0.02759
20.9 -0.03405
20.95 -0.03618
21 -0.03558
21.05 -0.03135
21.1 -0.02785
21.15 -0.02513
21.2 -0.02744
21.25 -0.02974
21.3 -0.03587
21.35 -0.0439
21.4 -0.04492
21.45 -0.03974
21.5 -0.03673
21.55 -0.03193
21.6 -0.02988
21.65 -0.03299
21.7 -0.03547
21.75 -0.0374
21.8 -0.03514
21.85 -0.03103
21.9 -0.02575
21.95 -0.01846
22 -0.01479
22.05 -0.01755
22.1 -0.01669
22.15 -0.0131
22.2 -0.00982
22.25 -0.00558
22.3 -0.00665
22.35 -0.00722
22.4 -0.00648
22.45 -0.00601
22.5 -0.00764
22.55 -0.00719
22.6 -0.00371
22.65 -0.00234
22.7 -0.00126
22.75 -0.00128
22.8 -0.00197
22.85 -0.00057
22.9 -0.00016
22.95 -0.00587
23 -0.00814
23.05 -0.01531
23.1 -0.02343
23.15 -0.03262
23.2 -0.0411
23.25 -0.04877
23.3 -0.05244
23.35 -0.05514
23.4 -0.05623
23.45 -0.05691
23.5 -0.05699
23.55 -0.05188
23.6 -0.04678
23.65 -0.04492
23.7 -0.04555
23.75 -0.04737
23.8 -0.04699
23.85 -0.04705
23.9 -0.04185
23.95 -0.03763
24 -0.03307
24.05 -0.03182
24.1 -0.03242
24.15 -0.03188
24.2 -0.02834
24.25 -0.02616
24.3 -0.02759
24.35 -0.02267
24.4 -0.0229
24.45 -0.02232
24.5 -0.01933
24.55 -0.01889
24.6 -0.01323
24.65 -0.00896
24.7 -0.00921
24.75 -0.01107
24.8 -0.01478
24.85 -0.01445
24.9 -0.0176
24.95 -0.02297
25 -0.02948
25.05 -0.02741
25.1 -0.02878
25.15 -0.03158
25.2 -0.0296
25.25 -0.03018
25.3 -0.02905
25.35 -0.02634
25.4 -0.02267
25.45 -0.02076
25.5 -0.01851
25.55 -0.01746
25.6 -0.01495
25.65 -0.01382
25.7 -0.0142
25.75 -0.01357
25.8 -0.00784
25.85 -0.00207
25.9 -0.00198
25.95 -0.00201
26 0.00014
26.05 0.00071
26.1 -0.00164
26.15 -0.00336
26.2 -0.00141
26.25 -0.00226
26.3 -0.00112
26.35 -0.00074
26.4 0.00079
26.45 0.00091
26.5 -0.00282
26.55 -0.0024
26.6 0.00125
26.65 -0.00046
26.7 -0.00333
26.75 -0.00548
26.8 -0.00284
26.85 -0.00037
26.9 -0.00006
26.95 0.0023
27 0.00492
27.05 0.00502
27.1 0.0068
27.15 0.00534
27.2 0.00869
27.25 0.00638
27.3 0.00424
27.35 0.00416
27.4 0.0014
27.45 0.00394
27.5 0.00068
27.55 -0.00576
27.6 -0.01278
27.65 -0.02085
27.7 -0.02431
27.75 -0.02735
27.8 -0.02944
27.85 -0.03189
27.9 -0.03473
27.95 -0.03345
28 -0.02789
28.05 -0.02049
28.1 -0.01117
28.15 -0.00779
28.2 -0.00825
28.25 -0.0148
28.3 -0.01744
28.35 -0.02107
28.4 -0.0253
28.45 -0.02817
28.5 -0.03281
28.55 -0.0367
28.6 -0.04529
28.65 -0.05769
28.7 -0.07246
28.75 -0.08452
28.8 -0.09689
28.85 -0.11521
28.9 -0.13009
28.95 -0.15147
29 -0.16956
29.05 -0.19009
29.1 -0.20759
29.15 -0.23232
29.2 -0.25521
29.25 -0.27786
29.3 -0.30164
29.35 -0.33228
29.4 -0.36569
29.45 -0.40171
29.5 -0.43084
29.55 -0.46126
29.6 -0.48716
29.65 -0.51002
29.7 -0.53408
29.75 -0.56075
29.8 -0.58147
29.85 -0.601
29.9 -0.61918
29.95 -0.62995
30 -0.6327
30.05 -0.62974
30.1 -0.62202
30.15 -0.61392
30.2 -0.60621
30.25 -0.58814
30.3 -0.56519
30.35 -0.54092
30.4 -0.51585
30.45 -0.48471
30.5 -0.44542
30.55 -0.40068
30.6 -0.35801
30.65 -0.31601
30.7 -0.26885
30.75 -0.22235
30.8 -0.17402
30.85 -0.12953
30.9 -0.08782
30.95 -0.04638
31 -0.002
31.05 0.04485
31.1 0.0842
31.15 0.11829
31.2 0.15562
31.25 0.19409
31.3 0.22958
31.35 0.25778
31.4 0.28778
31.45 0.30946
31.5 0.32953
31.55 0.35259
31.6 0.36888
31.65 0.38111
31.7 0.38986
31.75 0.3977
31.8 0.40164
31.85 0.41118
31.9 0.41642
31.95 0.42023
32 0.42292
32.05 0.42711
32.1 0.43178
32.15 0.44101
32.2 0.44854
32.25 0.45234
32.3 0.45972
32.35 0.46241
32.4 0.46538
32.45 0.46775
32.5 0.46503
32.55 0.46782
32.6 0.47097
32.65 0.47242
32.7 0.47081
32.75 0.46771
32.8 0.46352
32.85 0.45563
32.9 0.45074
32.95 0.44697
33 0.44272
33.05 0.43889
33.1 0.43524
33.15 0.42964
33.2 0.41757
33.25 0.40928
33.3 0.40043
33.35 0.39309
33.4 0.3876
33.45 0.37629
33.5 0.36027
33.55 0.34615
33.6 0.32842
33.65 0.31317
33.7 0.29627
33.75 0.2818
33.8 0.26973
33.85 0.25525
33.9 0.23825
33.95 0.22293
34 0.20762
34.05 0.19192
34.1 0.17631
34.15 0.16977
34.2 0.16163
34.25 0.15169
34.3 0.14337
34.35 0.13429
34.4 0.12922
34.45 0.12322
34.5 0.11917
34.55 0.11526
34.6 0.11379
34.65 0.1159
34.7 0.11904
34.75 0.11366
34.8 0.10313
34.85 0.09301
34.9 0.08792
34.95 0.08505
35 0.08101
35.05 0.0739
35.1 0.0672
35.15 0.0572
35.2 0.05052
35.25 0.04563
35.3 0.03584
35.35 0.03223
35.4 0.02462
35.45 0.01724
35.5 0.00902
35.55 -0.00163
35.6 -0.00442
35.65 -0.00727
35.7 -0.01105
35.75 -0.01369
35.8 -0.01856
35.85 -0.01818
35.9 -0.0216
35.95 -0.0283
36 -0.031
36.05 -0.03701
36.1 -0.03982
36.15 -0.04503
36.2 -0.05048
36.25 -0.05483
36.3 -0.06132
36.35 -0.06352
36.4 -0.0641
36.45 -0.06126
36.5 -0.05499
36.55 -0.05055
36.6 -0.05261
36.65 -0.05723
36.7 -0.06459
36.75 -0.06887
36.8 -0.06675
36.85 -0.06413
36.9 -0.06655
36.95 -0.06678
37 -0.06446
37.05 -0.0615
37.1 -0.06236
37.15 -0.06064
37.2 -0.05653
37.25 -0.05496
37.3 -0.05709
37.35 -0.05994
37.4 -0.05901
37.45 -0.05948
37.5 -0.06134
37.55 -0.06196
37.6 -0.05976
37.65 -0.05467
37.7 -0.05258
37.75 -0.05411
37.8 -0.05836
37.85 -0.06239
37.9 -0.06288
37.95 -0.06761
38 -0.06873
38.05 -0.06817
38.1 -0.06519
38.15 -0.06451
38.2 -0.06118
38.25 -0.06143
38.3 -0.06097
38.35 -0.06321
38.4 -0.06268
38.45 -0.06678
38.5 -0.06822
38.55 -0.06762
38.6 -0.06257
38.65 -0.057
38.7 -0.0572
38.75 -0.06052
38.8 -0.06295
38.85 -0.06091
38.9 -0.06084
38.95 -0.06254
39 -0.06473
39.05 -0.06152
39.1 -0.05901
39.15 -0.05392
39.2 -0.05429
39.25 -0.05138
39.3 -0.04536
39.35 -0.03994
39.4 -0.03689
39.45 -0.03554
39.5 -0.03582
39.55 -0.03282
39.6 -0.02809
39.65 -0.02527
39.7 -0.02617
39.75 -0.02728
39.8 -0.03154
39.85 -0.03491
39.9 -0.03652
39.95 -0.03445
40 -0.03162
40.05 -0.03373
40.1 -0.03123
40.15 -0.02758
40.2 -0.02729
40.25 -0.02452
40.3 -0.02406
40.35 -0.02802
40.4 -0.02965
40.45 -0.03544
40.5 -0.04299
40.55 -0.0434
40.6 -0.04671
40.65 -0.04443
40.7 -0.04299
40.75 -0.03818
40.8 -0.03045
40.85 -0.02855
40.9 -0.03008
40.95 -0.03221
41 -0.03781
41.05 -0.04254
41.1 -0.04673
41.15 -0.04636
41.2 -0.04076
41.25 -0.03741
41.3 -0.03547
41.35 -0.0298
41.4 -0.02348
41.45 -0.02333
41.5 -0.02315
41.55 -0.01937
41.6 -0.0141
41.65 -0.00794
41.7 -0.00199
41.75 0.00404
41.8 0.00381
41.85 -0.00037
41.9 -0.00829
41.95 -0.01912
42 -0.02631
42.05 -0.03131
42.1 -0.03341
42.15 -0.03624
42.2 -0.03604
42.25 -0.03436
42.3 -0.03043
42.35 -0.02741
42.4 -0.02204
42.45 -0.01505
42.5 -0.00856
42.55 -0.00709
42.6 -0.00608
42.65 -0.00717
42.7 -0.00514
42.75 -0.00167
42.8 0.00081
42.85 -0.00137
42.9 -0.00363
42.95 -0.00923
43 -0.01475
43.05 -0.01757
43.1 -0.01701
43.15 -0.01466
43.2 -0.01026
43.25 -0.00999
43.3 -0.00674
43.35 -0.00791
43.4 -0.01074
43.45 -0.01659
43.5 -0.02083
43.55 -0.02058
43.6 -0.0178
43.65 -0.0187
43.7 -0.02348
43.75 -0.02474
43.8 -0.02832
43.85 -0.03043
43.9 -0.02645
43.95 -0.02245
44 -0.02055
44.05 -0.01561
44.1 -0.0145
44.15 -0.01284
44.2 -0.01074
44.25 -0.01134
44.3 -0.01596
44.35 -0.0176
44.4 -0.01982
44.45 -0.01616
44.5 -0.01113
44.55 -0.01252
44.6 -0.00894
44.65 -0.00465
44.7 -0.00334
44.75 -0.00006
44.8 0.00213
44.85 0.00522
44.9 0.00989
44.95 0.01252
45 0.00797
45.05 0.0063
45.1 0.00108
45.15 -0.00354
45.2 -0.00429
45.25 -0.00373
45.3 -0.00019
45.35 0.00473
45.4 0.01012
45.45 0.0127
45.5 0.00893
45.55 0.00836
45.6 0.00732
45.65 0.00282
45.7 0.00179
45.75 -0.00177
45.8 -0.00089
45.85 -0.0037
45.9 -0.00361
45.95 -0.00714
46 -0.01205
46.05 -0.01325
46.1 -0.01833
46.15 -0.02461
46.2 -0.0269
46.25 -0.0292
46.3 -0.03345
46.35 -0.03521
46.4 -0.0315
46.45 -0.0271
46.5 -0.0222
46.55 -0.02063
46.6 -0.01858
46.65 -0.02065
46.7 -0.01708
46.75 -0.01477
46.8 -0.01267
46.85 -0.01282
46.9 -0.01392
46.95 -0.01251
47 -0.0072
47.05 -0.00292
47.1 -0.0033
47.15 -0.00459
47.2 -0.01005
47.25 -0.01431
47.3 -0.01185
47.35 -0.00819
47.4 -0.00687
47.45 -0.00311
47.5 -0.00324
47.55 -0.00721
47.6 -0.00763
47.65 -0.01048
47.7 -0.01554
47.75 -0.01964
47.8 -0.01662
47.85 -0.01642
47.9 -0.01314
47.95 -0.00598
48 -0.00152
48.05 0.00436
48.1 0.01018
48.15 0.01527
48.2 0.01527
48.25 0.0155
48.3 0.01817
48.35 0.02052
48.4 0.01638
48.45 0.00758
48.5 -0.00135
48.55 -0.00511
48.6 -0.00979
48.65 -0.00952
48.7 -0.00917
48.75 -0.00787
48.8 -0.00373
48.85 0.00046
48.9 0.00702
48.95 0.00695
49 0.00262
49.05 -0.00145
49.1 -0.00137
49.15 -0.00503
49.2 -0.00853
49.25 -0.00924
49.3 -0.01411
49.35 -0.01561
49.4 -0.01461
49.45 -0.0156
49.5 -0.01617
49.55 -0.0153
49.6 -0.01608
49.65 -0.01766
49.7 -0.02149
49.75 -0.01863
49.8 -0.01257
49.85 -0.01227
49.9 -0.01222
49.95 -0.01243
50 -0.00899
50.05 -0.01004
50.1 -0.0081
50.15 -0.00279
50.2 0.00064
50.25 0.0055
50.3 0.01114
50.35 0.01783
50.4 0.02295
50.45 0.02332
50.5 0.02077
50.55 0.01404
50.6 0.01032
50.65 0.00511
50.7 -0.00175
50.75 -0.00234
50.8 -0.00371
50.85 -0.00073
50.9 0.0045
50.95 0.00667
51 0.00876
51.05 0.00777
51.1 0.00508
51.15 0.00453
51.2 0.00304
51.25 0.00122
51.3 -0.0013
51.35 -0.00789
51.4 -0.01349
51.45 -0.01913
51.5 -0.01893
51.55 -0.01469
51.6 -0.00669
51.65 0.00085
51.7 0.0037
51.75 0.00716
51.8 0.00828
51.85 0.00855
51.9 0.01011
51.95 0.00626
52 0.00683
52.05 0.00434
52.1 -0.00087
52.15 -0.0022
52.2 -0.0008
52.25 -0.00003
52.3 -0.00465
52.35 -0.00714
52.4 -0.00777
52.45 -0.01052
52.5 -0.01328
52.55 -0.01394
52.6 -0.01435
52.65 -0.01006
52.7 -0.00971
52.75 -0.01061
52.8 -0.00903
52.85 -0.00617
52.9 -0.00016
52.95 0.00567
53 0.0128
53.05 0.02026
53.1 0.02007
53.15 0.01937
53.2 0.01559
53.25 0.01135
53.3 0.00437
53.35 -0.00437
53.4 -0.01183
53.45 -0.01157
53.5 -0.00793
53.55 -0.00281
53.6 0.00301
53.65 0.00507
53.7 0.00394
53.75 0.00362
53.8 0.00319
53.85 0.00036
53.9 -0.00238
53.95 -0.00392
54 -0.00261
54.05 0.00024
54.1 0.00287
54.15 0.00296
54.2 0.00506
54.25 0.00584
54.3 0.00633
54.35 0.00188
54.4 -0.00175
54.45 -0.00817
54.5 -0.01166
54.55 -0.01082
54.6 -0.0098
54.65 -0.00645
54.7 -0.0018
54.75 -0.00215
54.8 0.00122
54.85 0.00246
54.9 0.00467
54.95 0.00436
55 0.00333
55.05 0.00373
55.1 0.00149
55.15 -0.00355
55.2 -0.00386
55.25 -0.00489
55.3 -0.00496
55.35 -0.00477
55.4 -0.00527
55.45 -0.00318
55.5 -0.0028
55.55 -0.00682
55.6 -0.00841
55.65 -0.00709
55.7 -0.00624
55.75 -0.00363
55.8 -0.00366
55.85 -0.00009
55.9 0.00614
55.95 0.01083
56 0.01278
56.05 0.00814
56.1 0.00797
56.15 0.00699
56.2 0.00622
56.25 0.00763
56.3 0.00429
56.35 -0.00298
56.4 -0.01057
56.45 -0.01882
56.5 -0.02668
56.55 -0.03145
56.6 -0.03141
56.65 -0.03209
56.7 -0.03206
56.75 -0.02777
56.8 -0.01902
56.85 -0.01527
56.9 -0.00872
56.95 -0.00216
57 0.00356
57.05 0.00849
57.1 0.01204
57.15 0.0114
57.2 0.00943
57.25 0.00912
57.3 0.01146
57.35 0.01172
57.4 0.00791
57.45 0.001
57.5 -0.00114
57.55 0.00111
57.6 0.00455
57.65 0.00809
57.7 0.01129
57.75 0.01191
57.8 0.00738
57.85 0.00606
57.9 0.00505
57.95 0.00287
58 0.00552
58.05 0.01047
58.1 0.01424
58.15 0.01891
58.2 0.02231
58.25 0.01757
58.3 0.0141
58.35 0.0127
58.4 0.00944
58.45 0.0029
58.5 -0.00557
58.55 -0.00921
58.6 -0.01188
58.65 -0.01096
58.7 -0.01238
58.75 -0.01468
58.8 -0.0135
58.85 -0.01565
58.9 -0.01803
58.95 -0.01517
59 -0.01128
59.05 -0.00512
59.1 -0.00145
59.15 -0.00117
59.2 0.0024
59.25 0.00649
59.3 0.00361
59.35 0.00145
59.4 0.00312
59.45 0.00194
59.5 0.00282
59.55 0.00113
59.6 -0.00469
59.65 -0.00433
59.7 -0.00002
59.75 0.00451
59.8 0.01023
59.85 0.01174
59.9 0.01244
59.95 0.01561
60 0.01251
60.05 0.01107
60.1 0.00926
60.15 0.00578
60.2 -0.00064
60.25 -0.00374
60.3 -0.00641
60.35 -0.00672
60.4 -0.01128
60.45 -0.00955
60.5 -0.01221
60.55 -0.01169
60.6 -0.01157
60.65 -0.01262
60.7 -0.01291
60.75 -0.0091
60.8 -0.0087
60.85 -0.00643
60.9 -0.00868
60.95 -0.00844
61 -0.00748
61.05 -0.00863
61.1 -0.01026
61.15 -0.01402
61.2 -0.01842
61.25 -0.01831
61.3 -0.01949
61.35 -0.02027
61.4 -0.01725
61.45 -0.01818
61.5 -0.01821
61.55 -0.01812
61.6 -0.01308
61.65 -0.01299
61.7 -0.00948
61.75 -0.00839
61.8 -0.01148
61.85 -0.0167
61.9 -0.01768
61.95 -0.01268
62 -0.01095
62.05 -0.00587
62.1 -0.0066
62.15 -0.0031
62.2 0.00302
62.25 0.01069
62.3 0.01491
62.35 0.02062
62.4 0.02442
62.45 0.02737
62.5 0.02508
62.55 0.02372
62.6 0.02353
62.65 0.02335
62.7 0.02343
62.75 0.02115
62.8 0.01939
62.85 0.01297
62.9 0.00581
62.95 -0.00387
63 -0.01102
63.05 -0.01811
63.1 -0.02428
63.15 -0.02833
63.2 -0.02441
63.25 -0.01695
63.3 -0.01158
63.35 -0.0109
63.4 -0.00675
63.45 -0.00673
63.5 -0.00695
63.55 -0.01045
63.6 -0.01501
63.65 -0.01859
63.7 -0.01987
63.75 -0.01822
63.8 -0.01164
63.85 -0.00397
63.9 -0.00112
63.95 0.00306
64 0.00093
64.05 -0.00307
64.1 -0.00627
64.15 -0.00342
64.2 0.00099
64.25 0.00435
64.3 0.00761
64.35 0.00628
64.4 0.00728
64.45 0.00771
64.5 0.0099
64.55 0.01305
64.6 0.01057
64.65 0.00999
64.7 0.00605
64.75 -0.0011
64.8 -0.00882
64.85 -0.01041
64.9 -0.01351
64.95 -0.01465
65 -0.01046
65.05 -0.01135
65.1 -0.011
65.15 -0.00516
65.2 0.00271
65.25 0.00569
65.3 0.004
65.35 0.0068
65.4 0.00696
65.45 0.00778
65.5 0.01169
65.55 0.01344
65.6 0.0112
65.65 0.00719
65.7 0.00758
65.75 0.01136
65.8 0.01367
65.85 0.01176
65.9 0.00866
65.95 0.00833
66 0.0067
66.05 0.00517
66.1 0.00654
66.15 0.00662
66.2 0.0043
66.25 -0.00163
66.3 -0.00704
66.35 -0.01295
66.4 -0.01279
66.45 -0.00977
66.5 -0.00585
66.55 0.00133
66.6 0.00619
66.65 0.01107
66.7 0.01763
66.75 0.02085
66.8 0.01811
66.85 0.01004
66.9 -0.00074
66.95 -0.00507
67 -0.00616
67.05 -0.00952
67.1 -0.00994
67.15 -0.00854
67.2 -0.00546
67.25 -0.00604
67.3 -0.00308
67.35 -0.00015
67.4 0.00265
67.45 0.00709
67.5 0.0073
67.55 0.00941
67.6 0.0112
67.65 0.01111
67.7 0.00775
67.75 0.00452
67.8 0.00273
67.85 0.00405
67.9 0.00518
67.95 0.00739
68 0.00585
68.05 0.00624
68.1 0.00818
68.15 0.00836
68.2 0.00785
68.25 0.00449
68.3 0.00345
68.35 0.00561
68.4 0.0035
68.45 0.00382
68.5 0.0025
68.55 0.00376
68.6 0.00416
68.65 0.00222
68.7 -0.00063
68.75 -0.0052
68.8 -0.00707
68.85 -0.00767
68.9 -0.00547
68.95 0.0001
69 0.00063
69.05 -0.00403
69.1 -0.00998
69.15 -0.00955
69.2 -0.0085
69.25 -0.00922
69.3 -0.00524
69.35 -0.00587
69.4 -0.00686
69.45 -0.00562
69.5 -0.00691
69.55 -0.00312
69.6 -0.00089
69.65 0.00172
69.7 0.00278
69.75 0.00527
69.8 0.00915
69.85 0.00668
69.9 0.00188
69.95 -0.00128
70 -0.00397
70.05 -0.00695
70.1 -0.0099
70.15 -0.00798
70.2 -0.00795
70.25 -0.01208
70.3 -0.00993
70.35 -0.00434
70.4 0.00196
70.45 0.00756
70.5 0.01397
70.55 0.01439
70.6 0.0127
70.65 0.01344
70.7 0.01093
70.75 0.00995
70.8 0.01262
70.85 0.00979
70.9 0.01142
70.95 0.00669
71 0.00547
71.05 0.00769
71.1 0.01187
71.15 0.01017
71.2 0.01113
71.25 0.01259
71.3 0.01171
71.35 0.00521
71.4 0.00183
71.45 -0.00171
71.5 -0.003
71.55 -0.00383
71.6 -0.00058
71.65 0.00276
71.7 0.00421
71.75 0.00576
71.8 0.00329
71.85 0.00545
71.9 0.00451
71.95 0.00553
72 0.00868
72.05 0.00595
72.1 0.00508
72.15 0.00457
72.2 0.00452
72.25 0.00221
72.3 0.0013
72.35 -0.00274
72.4 -0.00556
72.45 -0.00522
72.5 -0.00103
72.55 0.00519
72.6 0.00569
72.65 0.00862
72.7 0.01331
72.75 0.01865
72.8 0.01954
72.85 0.01937
72.9 0.01511
72.95 0.00789
73 0.00623
73.05 0.00498
73.1 0.00727
73.15 0.00301
73.2 0.00082
73.25 -0.00293
73.3 -0.00465
73.35 -0.00553
73.4 -0.0025
73.45 -0.00479
73.5 -0.00878
73.55 -0.01069
73.6 -0.01442
73.65 -0.01371
73.7 -0.01324
73.75 -0.0138
73.8 -0.01563
73.85 -0.01521
73.9 -0.01059
73.95 -0.00882
74 -0.00923
74.05 -0.00858
74.1 -0.00822
74.15 -0.00788
74.2 -0.01193
74.25 -0.01095
74.3 -0.01245
74.35 -0.01462
74.4 -0.01605
74.45 -0.01416
74.5 -0.00987
74.55 -0.00958
74.6 -0.00768
74.65 -0.00438
74.7 -0.00361
74.75 -0.00153
74.8 -0.00171
74.85 -0.00016
74.9 -0.00235
74.95 -0.00271
75 -0.00449
75.05 -0.0035
75.1 -0.00742
75.15 -0.01022
75.2 -0.00872
75.25 -0.01149
75.3 -0.0145
75.35 -0.0185
75.4 -0.02158
75.45 -0.01912
75.5 -0.01658
75.55 -0.01104
75.6 -0.0057
75.65 0.00024
75.7 0.00717
75.75 0.01396
75.8 0.01833
75.85 0.02268
75.9 0.01894
75.95 0.01577
76 0.01155
76.05 0.00472
76.1 -0.00127
76.15 -0.00781
76.2 -0.01033
76.25 -0.01336
76.3 -0.01548
76.35 -0.01151
76.4 -0.00925
76.45 -0.00951
76.5 -0.01018
76.55 -0.01421
76.6 -0.01122
76.65 -0.00988
76.7 -0.0097
76.75 -0.01072
76.8 -0.00973
76.85 -0.00438
76.9 -0.00117
76.95 -0.0022
77 -0.00408
77.05 -0.00058
77.1 -0.00187
77.15 -0.0069
77.2 -0.01241
77.25 -0.01271
77.3 -0.01265
77.35 -0.01069
77.4 -0.00783
77.45 -0.00673
77.5 -0.00786
77.55 -0.01037
77.6 -0.00792
77.65 -0.0081
77.7 -0.0078
77.75 -0.00375
77.8 0.00204
77.85 0.0071
77.9 0.00867
77.95 0.01299
78 0.01871
78.05 0.01661
78.1 0.01033
78.15 0.00718
78.2 0.00032
78.25 -0.00295
78.3 -0.00803
78.35 -0.01214
78.4 -0.01817
78.45 -0.02354
78.5 -0.02318
78.55 -0.02281
78.6 -0.01973
78.65 -0.01557
78.7 -0.01371
78.75 -0.0093
78.8 -0.00784
78.85 -0.00507
78.9 -0.00445
78.95 -0.00727
79 -0.01096
79.05 -0.01243
79.1 -0.00965
79.15 -0.00403
79.2 0.00105
79.25 0.00633
79.3 0.01334
79.35 0.02002
79.4 0.02073
79.45 0.01663
79.5 0.01087
79.55 0.00334
79.6 -0.00191
79.65 -0.00496
79.7 -0.00577
79.75 -0.0014
79.8 -0.0014
79.85 -0.00211
79.9 -0.00209
79.95 -0.00003
80 0.00362
80.05 0.01033
80.1 0.00912
80.15 0.00336
80.2 -0.00041
80.25 -0.00341
80.3 -0.00829
80.35 -0.01422
80.4 -0.01679
80.45 -0.01806
80.5 -0.01625
80.55 -0.01024
80.6 -0.00889
80.65 -0.00303
80.7 -0.00158
80.75 -0.00012
80.8 0.00371
80.85 0.00485
80.9 0.00825
80.95 0.01071
81 0.00687
81.05 0.00722
81.1 0.00827
81.15 0.0125
81.2 0.01382
81.25 0.01232
81.3 0.01242
81.35 0.01545
81.4 0.01396
81.45 0.00975
81.5 0.00226
81.55 -0.00242
81.6 -0.00419
81.65 -0.00148
81.7 0.0013
81.75 0.00075
81.8 -0.00289
81.85 -0.00802
81.9 -0.00982
81.95 -0.01404
82 -0.01673
82.05 -0.01566
82.1 -0.01392
82.15 -0.01339
82.2 -0.01128
82.25 -0.01259
82.3 -0.0089
82.35 -0.00261
82.4 -0.00145
82.45 -0.00112
82.5 0.00233
82.55 0.00487
82.6 0.00601
82.65 0.00331
82.7 0.00393
82.75 0.00558
82.8 0.00449
82.85 -0.00044
82.9 -0.00491
82.95 -0.00616
83 -0.00562
83.05 -0.00745
83.1 -0.00772
83.15 -0.00919
83.2 -0.01384
83.25 -0.01431
83.3 -0.01653
83.35 -0.01677
83.4 -0.01488
83.45 -0.01166
83.5 -0.00532
83.55 -0.00505
83.6 -0.00159
83.65 0.00121
83.7 0.00574
83.75 0.01065
83.8 0.00964
83.85 0.00625
83.9 0.00661
83.95 0.0043
84 -0.00127
84.05 -0.00771
84.1 -0.01405
84.15 -0.02086
84.2 -0.01959
84.25 -0.01829
84.3 -0.01709
84.35 -0.01402
84.4 -0.00984
84.45 -0.00867
84.5 -0.01045
84.55 -0.00884
84.6 -0.01068
84.65 -0.01097
84.7 -0.0102
84.75 -0.01186
84.8 -0.01318
84.85 -0.01015
84.9 -0.00995
84.95 -0.01242
85 -0.01411
85.05 -0.01575
85.1 -0.01327
85.15 -0.01226
85.2 -0.00722
85.25 -0.00029
85.3 0.0082
85.35 0.01423
85.4 0.02044
85.45 0.02041
85.5 0.01838
85.55 0.01708
85.6 0.01657
85.65 0.01907
85.7 0.0209
85.75 0.01938
85.8 0.01542
85.85 0.01238
85.9 0.00628
85.95 0.00383
86 0.00131
86.05 -0.00177
86.1 -0.00765
86.15 -0.01389
86.2 -0.02028
86.25 -0.01976
86.3 -0.01772
86.35 -0.01165
86.4 -0.0045
86.45 -0.00379
86.5 0.00066
86.55 0.00166
86.6 0.00428
86.65 0.00933
86.7 0.01522
86.75 0.01874
86.8 0.02264
86.85 0.02076
86.9 0.01887
86.95 0.01941
87 0.01598
87.05 0.01724
87.1 0.01239
87.15 0.00634
87.2 -0.00181
87.25 -0.00839
87.3 -0.01598
87.35 -0.01501
87.4 -0.01425
87.45 -0.01171
87.5 -0.00483
87.55 0.0048
87.6 0.00796
87.65 0.01295
87.7 0.01114
87.75 0.01041
87.8 0.00538
87.85 0.00474
87.9 0.00283
87.95 0.00206
88 -0.00195
88.05 -0.00636
88.1 -0.00463
88.15 -0.00102
88.2 0.00195
88.25 -0
88.3 -0.00073
88.35 -0.00539
88.4 -0.00506
88.45 -0.00622
88.5 -0.00651
88.55 -0.00352
88.6 -0.00526
88.65 -0.01027
88.7 -0.00904
88.75 -0.00365
88.8 -0.00095
88.85 0.0032
88.9 0.00668
88.95 0.00415
89 0.00585
89.05 0.00848
89.1 0.01334
89.15 0.01944
89.2 0.02338
89.25 0.02465
89.3 0.01919
89.35 0.01533
89.4 0.01516
89.45 0.01641
89.5 0.01858
89.55 0.01722
89.6 0.01544
89.65 0.01336
89.7 0.01438
89.75 0.01676
89.8 0.02101
89.85 0.02008
89.9 0.01705
89.95 0.00915
90 0.00674
90.05 0.00067
90.1 -0.00408
90.15 -0.00266
90.2 0.00059
90.25 0.00079
90.3 -0.00237
90.35 -0.00687
90.4 -0.01262
90.45 -0.01118
90.5 -0.00506
90.55 -0.00255
90.6 -0.00552
90.65 -0.00414
90.7 0.00125
90.75 0.00883
90.8 0.01639
90.85 0.02312
90.9 0.02828
90.95 0.0251
91 0.02428
91.05 0.02094
91.1 0.01244
91.15 0.0065
91.2 0.00247
91.25 -0.00166
91.3 -0.00404
91.35 -0.00862
91.4 -0.00856
91.45 -0.01019
91.5 -0.00869
91.55 -0.00564
91.6 -0.00565
91.65 -0.00627
91.7 -0.00731
91.75 -0.00771
91.8 -0.00661
91.85 -0.0087
91.9 -0.00684
91.95 -0.00691
92 -0.00345
92.05 -0.00435
92.1 -0.00675
92.15 -0.01123
92.2 -0.01279
92.25 -0.01036
92.3 -0.00683
92.35 -0.00236
92.4 0.00416
92.45 0.01028
92.5 0.01514
92.55 0.01513
92.6 0.01637
92.65 0.01311
92.7 0.00575
92.75 0.00065
92.8 -0.00728
92.85 -0.01244
92.9 -0.01312
92.95 -0.01628
93 -0.01625
93.05 -0.01893
93.1 -0.01959
93.15 -0.02041
93.2 -0.02187
93.25 -0.02417
93.3 -0.02413
93.35 -0.02299
93.4 -0.01635
93.45 -0.00822
93.5 -0.00072
93.55 0.00742
93.6 0.00761
93.65 0.00401
93.7 0.00094
93.75 0.0002
93.8 -0.00068
93.85 0.00339
93.9 0.01031
93.95 0.01749
94 0.01826
94.05 0.01967
94.1 0.01502
94.15 0.00662
94.2 -0.0002
94.25 -0.00273
94.3 -0.0006
94.35 0.00164
94.4 -0.00028
94.45 -0.00368
94.5 -0.01017
94.55 -0.01139
94.6 -0.00765
94.65 -0.00525
94.7 -0.00541
94.75 -0.00736
94.8 -0.00886
94.85 -0.01347
94.9 -0.01069
94.95 -0.00854
95 -0.00611
95.05 -0.00488
95.1 0.00054
95.15 0.0061
95.2 0.00576
95.25 0.00805
95.3 0.01131
95.35 0.01086
95.4 0.01045
95.45 0.00768
95.5 0.00904
95.55 0.00478
95.6 -0.00188
95.65 -0.00887
95.7 -0.01437
95.75 -0.01399
95.8 -0.01033
95.85 -0.01031
95.9 -0.01406
95.95 -0.01534
96 -0.01202
96.05 -0.00932
96.1 -0.0079
96.15 -0.00202
96.2 0.00154
96.25 0.00046
96.3 -0.0031
96.35 -0.00906
96.4 -0.0122
96.45 -0.01441
96.5 -0.01573
96.55 -0.01955
96.6 -0.02028
96.65 -0.01689
96.7 -0.01749
96.75 -0.02047
96.8 -0.02257
96.85 -0.01945
96.9 -0.01293
96.95 -0.00321
97 0.00655
97.05 0.00983
97.1 0.01183
97.15 0.01693
97.2 0.01788
97.25 0.01908
97.3 0.02201
97.35 0.02125
97.4 0.01812
97.45 0.01649
97.5 0.0128
97.55 0.0113
97.6 0.01281
97.65 0.01648
97.7 0.01545
97.75 0.00913
97.8 0.0005
97.85 -0.00178
97.9 -0.00109
97.95 0.00095
98 0.00585
98.05 0.00655
98.1 0.00737
98.15 0.00682
98.2 0.00173
98.25 -0.00447
98.3 -0.01182
98.35 -0.01887
98.4 -0.02308
98.45 -0.02563
98.5 -0.02633
98.55 -0.02539
98.6 -0.02412
98.65 -0.01652
98.7 -0.01351
98.75 -0.00652
98.8 -0.00518
98.85 -0.00797
98.9 -0.00561
98.95 0.00113
99 0.00194
99.05 -0.00022
99.1 -0.00358
99.15 -0.00735
99.2 -0.01227
99.25 -0.01452
99.3 -0.01396
99.35 -0.01568
99.4 -0.0157
99.45 -0.00968
99.5 -0.00692
99.55 0.00026
99.6 0.00056
99.65 -0.00166
99.7 -0.00332
99.75 -0.00463
99.8 -0.00036
99.85 -0.00106
99.9 0.00105
99.95 -0.00175
