0 0
0.05 0.0001
0.1 0.00148
0.15 0.00287
0.2 0.00396
0.25 0.00567
0.3 0.00744
0.35 0.00829
0.4 0.00829
0.45 0.00878
0.5 0.00874
0.55 0.0088
0.6 0.00899
0.65 0.00903
0.7 0.00842
0.75 0.00757
0.8 0.00652
0.85 0.00642
0.9 0.00587
0.95 0.00545
1 0.00536
1.05 0.00542
1.1 0.00568
1.15 0.00575
1.2 0.0064
1.25 0.00722
1.3 0.00698
1.35 0.00697
1.4 0.00738
1.45 0.00744
1.5 0.00789
1.55 0.00819
1.6 0.00762
1.65 0.00643
1.7 0.00546
1.75 0.00493
1.8 0.00415
1.85 0.00363
1.9 0.00356
1.95 0.00392
2 0.00451
2.05 0.00488
2.1 0.00547
2.15 0.00515
2.2 0.00496
2.25 0.00514
2.3 0.00542
2.35 0.00575
2.4 0.00573
2.45 0.00492
2.5 0.00484
2.55 0.00459
2.6 0.00373
2.65 0.00384
2.7 0.00417
2.75 0.00466
2.8 0.00433
2.85 0.00347
2.9 0.00243
2.95 0.00192
3 0.00103
3.05 0.00055
3.1 0.00022
3.15 0.00001
3.2 0.0006
3.25 0.00145
3.3 0.00177
3.35 0.00216
3.4 0.00309
3.45 0.00335
3.5 0.0042
3.55 0.00458
3.6 0.00422
3.65 0.00367
3.7 0.00389
3.75 0.00451
3.8 0.00466
3.85 0.00454
3.9 0.00507
3.95 0.00544
4 0.00562
4.05 0.00618
4.1 0.00619
4.15 0.00557
4.2 0.00563
4.25 0.00581
4.3 0.00616
4.35 0.00553
4.4 0.00532
4.45 0.00552
4.5 0.00531
4.55 0.00549
4.6 0.00579
4.65 0.00607
4.7 0.00603
4.75 0.00506
4.8 0.00428
4.85 0.00321
4.9 0.0025
4.95 0.00175
5 0.00112
5.05 0.00115
5.1 0.00124
5.15 0.00186
5.2 0.00211
5.25 0.00217
5.3 0.00206
5.35 0.0019
5.4 0.00105
5.45 0.00062
5.5 -0.00002
5.55 0.0001
5.6 0.00034
5.65 0.00077
5.7 0.0016
5.75 0.00252
5.8 0.00363
5.85 0.00442
5.9 0.0051
5.95 0.00588
6 0.00627
6.05 0.00645
6.1 0.00617
6.15 0.00525
6.2 0.00393
6.25 0.00215
6.3 0.00133
6.35 0.00003
6.4 -0.00001
6.45 0.00064
6.5 0.00097
6.55 0.00074
6.6 0
6.65 -0.00069
6.7 -0.00129
6.75 -0.00143
6.8 -0.00144
6.85 -0.00077
6.9 0.00048
6.95 0.00053
7 0.00064
7.05 0.00086
7.1 0.00136
7.15 0.00109
7.2 0.00147
7.25 0.00134
7.3 0.00188
7.35 0.00235
7.4 0.00256
7.45 0.00201
7.5 0.00109
7.55 0.00115
7.6 0.00173
7.65 0.00224
7.7 0.00225
7.75 0.00151
7.8 0.00041
7.85 -0.00079
7.9 -0.00204
7.95 -0.00285
8 -0.00359
8.05 -0.00413
8.1 -0.00384
8.15 -0.00388
8.2 -0.00401
8.25 -0.00325
8.3 -0.00291
8.35 -0.00182
8.4 -0.00158
8.45 -0.00186
8.5 -0.00206
8.55 -0.00219
8.6 -0.00196
8.65 -0.00216
8.7 -0.00236
8.75 -0.00182
8.8 -0.00159
8.85 -0.00194
8.9 -0.00192
8.95 -0.00239
9 -0.00225
9.05 -0.0017
9.1 -0.00054
9.15 0.00068
9.2 0.00119
9.25 0.00158
9.3 0.00146
9.35 0.00141
9.4 0.00143
9.45 0.00129
9.5 0.00113
9.55 0.00132
9.6 0.00171
9.65 0.00221
9.7 0.00314
9.75 0.00362
9.8 0.00384
9.85 0.0034
9.9 0.00333
9.95 0.00337
10 0.00259
10.05 0.00231
10.1 0.00128
10.15 -0.00005
10.2 -0.00146
10.25 -0.00269
10.3 -0.00267
10.35 -0.00297
10.4 -0.00285
10.45 -0.00225
10.5 -0.00139
10.55 -0.00042
10.6 0.00039
10.65 0.00133
10.7 0.00159
10.75 0.00239
10.8 0.00233
10.85 0.00275
10.9 0.00343
10.95 0.00434
11 0.00499
11.05 0.0051
11.1 0.00434
11.15 0.00301
11.2 0.00214
11.25 0.00117
11.3 0.00056
11.35 0.00077
11.4 0.00049
11.45 -0.00043
11.5 -0.00082
11.55 -0.00097
11.6 -0.00073
11.65 -0.0003
11.7 -0.00067
11.75 -0.00106
11.8 -0.00139
11.85 -0.00209
11.9 -0.00252
11.95 -0.00326
12 -0.00361
12.05 -0.0028
12.1 -0.00244
12.15 -0.0026
12.2 -0.00263
12.25 -0.00285
12.3 -0.00295
12.35 -0.00314
12.4 -0.00316
12.45 -0.00225
12.5 -0.00106
12.55 -0.00001
12.6 0.00035
12.65 0.00024
12.7 -0.00025
12.75 0.00004
12.8 0.00053
12.85 0.00057
12.9 0.00082
12.95 0.00126
13 0.00137
13.05 0.00153
13.1 0.00128
13.15 0.00124
13.2 0.00128
13.25 0.00099
13.3 0.00121
13.35 0.00058
13.4 -0.00013
13.45 -0.0005
13.5 -0.00105
13.55 -0.0008
13.6 -0.00068
13.65 -0.00099
13.7 -0.00051
13.75 -0.00055
13.8 -0.00051
13.85 -0.00094
13.9 -0.00165
13.95 -0.00155
14 -0.00062
14.05 0.00017
14.1 0.00108
14.15 0.00104
14.2 0.0003
14.25 0.00016
14.3 -0.00056
14.35 -0.00086
14.4 -0.00068
14.45 -0.0009
14.5 -0.00093
14.55 -0.00132
14.6 -0.00176
14.65 -0.0019
14.7 -0.00188
14.75 -0.00128
14.8 -0.00098
14.85 -0.00117
14.9 -0.00126
14.95 -0.00161
15 -0.00177
15.05 -0.00138
15.1 -0.00143
15.15 -0.00124
15.2 -0.00024
15.25 0.00042
15.3 0.00124
15.35 0.00231
15.4 0.00212
15.45 0.0021
15.5 0.00187
15.55 0.00189
15.6 0.00136
15.65 0.00066
15.7 -0.00038
15.75 -0.00037
15.8 -0.00055
15.85 -0.00052
15.9 -0.00012
15.95 0.00061
16 0.00085
16.05 0.00046
16.1 0.00033
16.15 -0.00005
16.2 0.00018
16.25 0.00047
16.3 -0.00005
16.35 0.00018
16.4 -0.00038
16.45 -0.00104
16.5 -0.00176
16.55 -0.00154
16.6 -0.0017
16.65 -0.00102
16.7 -0.00045
16.75 0.00022
16.8 0.00088
16.85 0.00066
16.9 0.00013
16.95 -0.00061
17 -0.0011
17.05 -0.00074
17.1 0.00032
17.15 0.00099
17.2 0.00201
17.25 0.00264
17.3 0.00273
17.35 0.00221
17.4 0.00125
17.45 0.00122
17.5 0.00057
17.55 0.00079
17.6 0.00065
17.65 0.0005
17.7 0.0011
17.75 0.00184
17.8 0.00293
17.85 0.00325
17.9 0.00382
17.95 0.00318
18 0.00267
18.05 0.00281
18.1 0.00253
18.15 0.00248
18.2 0.00206
18.25 0.00137
18.3 0.00065
18.35 0.00072
18.4 0.0012
18.45 0.00124
18.5 0.00051
18.55 -0.00021
18.6 -0.00126
18.65 -0.00168
18.7 -0.00219
18.75 -0.00223
18.8 -0.00217
18.85 -0.00125
18.9 -0.0012
18.95 -0.00033
19 0.00063
19.05 0.00053
19.1 0.00033
19.15 0.00062
19.2 0.00044
19.25 0.00024
19.3 -0.00049
19.35 -0.00083
19.4 -0.00132
19.45 -0.00208
19.5 -0.00168
19.55 -0.00058
19.6 0.00036
19.65 0.00075
19.7 0.00052
19.75 0.00066
19.8 0.00122
19.85 0.00083
19.9 0.00077
19.95 0.00038
20 0.00032
20.05 0.00005
20.1 0
20.15 0.00021
20.2 0.00035
20.25 0.00004
20.3 -0.0003
20.35 -0.00092
20.4 -0.00072
20.45 -0.00071
20.5 -0.00008
20.55 0.0001
20.6 0.00027
20.65 0.00069
20.7 0.00032
20.75 -0.00025
20.8 -0.00061
20.85 -0.0009
20.9 -0.00076
20.95 -0.00086
21 -0.00015
21.05 -0.00037
21.1 -0.00015
21.15 -0.00018
21.2 0.00028
21.25 0.00031
21.3 -0.00042
21.35 -0.00143
21.4 -0.00213
21.45 -0.00264
21.5 -0.00254
21.55 -0.00205
21.6 -0.00088
21.65 -0.00051
21.7 -0.00045
21.75 -0.00009
21.8 0.0001
21.85 0.00063
21.9 0.00097
21.95 0.00149
22 0.00146
22.05 0.00137
22.1 0.00182
22.15 0.00253
22.2 0.00346
22.25 0.00333
22.3 0.00305
22.35 0.00244
22.4 0.00182
22.45 0.00199
22.5 0.00228
22.55 0.00223
22.6 0.0018
22.65 0.00114
22.7 0.00011
22.75 -0.0002
22.8 -0.00079
22.85 -0.00129
22.9 -0.00099
22.95 -0.00098
23 -0.00023
23.05 -0.00049
23.1 -0.00106
23.15 -0.00075
23.2 -0.00015
23.25 -0.00003
23.3 0.00058
23.35 0.00148
23.4 0.00181
23.45 0.00121
23.5 0.00007
23.55 -0.00006
23.6 0.00044
23.65 0.00096
23.7 0.00138
23.75 0.00209
23.8 0.00186
23.85 0.00149
23.9 0.00161
23.95 0.00131
24 0.00045
24.05 0.00003
24.1 -0.00051
24.15 -0.00125
24.2 -0.0013
24.25 -0.00183
24.3 -0.00147
24.35 -0.0011
24.4 -0.0007
24.45 -0.00081
24.5 -0.00127
24.55 -0.00077
24.6 -0.00084
24.65 -0.00089
24.7 -0.00103
24.75 -0.00139
24.8 -0.0011
24.85 -0.0008
24.9 -0.00015
24.95 0
25 0.00023
25.05 0.00046
25.1 0.0007
25.15 0.0009
25.2 0.00058
25.25 0.00052
25.3 0.0001
25.35 -0.00093
25.4 -0.00198
25.45 -0.00248
25.5 -0.00219
25.55 -0.00215
25.6 -0.00143
25.65 -0.00081
25.7 -0.00109
25.75 -0.00051
25.8 0.00034
25.85 0.00059
25.9 0.00055
25.95 0.0001
26 -0.00004
26.05 -0.00033
26.1 -0.00122
26.15 -0.00117
26.2 -0.00163
26.25 -0.00177
26.3 -0.00115
26.35 -0.00121
26.4 -0.00123
26.45 -0.00131
26.5 -0.00196
26.55 -0.00196
26.6 -0.00159
26.65 -0.0018
26.7 -0.00147
26.75 -0.00091
26.8 -0.00115
26.85 -0.00192
26.9 -0.00219
26.95 -0.00155
27 -0.00148
27.05 -0.00199
27.1 -0.00265
27.15 -0.00246
27.2 -0.0014
27.25 -0.00042
27.3 0.00068
27.35 0.0019
27.4 0.00226
27.45 0.00245
27.5 0.00272
27.55 0.0022
27.6 0.00112
27.65 0.00092
27.7 0.00121
27.75 0.00141
27.8 0.00198
27.85 0.00251
27.9 0.00328
27.95 0.00347
28 0.00372
28.05 0.0042
28.1 0.0042
28.15 0.00363
28.2 0.00235
28.25 0.00183
28.3 0.00099
28.35 -0.00016
28.4 -0.00147
28.45 -0.00197
28.5 -0.00254
28.55 -0.00272
28.6 -0.00191
28.65 -0.00153
28.7 -0.0015
28.75 -0.001
28.8 -0.00048
28.85 0.00027
28.9 0.0005
28.95 0.00118
29 0.0022
29.05 0.00279
29.1 0.00247
29.15 0.00132
29.2 0.00092
29.25 0.00067
29.3 0.00024
29.35 -0.00059
29.4 -0.00152
29.45 -0.00144
29.5 -0.00112
29.55 -0.00091
29.6 -0.00005
29.65 0.00062
29.7 0.00163
29.75 0.00183
29.8 0.00234
29.85 0.00293
29.9 0.00367
29.95 0.00418
30 0.00397
30.05 0.00339
30.1 0.00298
30.15 0.0019
30.2 0.00029
30.25 -0.00093
30.3 -0.00122
30.35 -0.00205
30.4 -0.00238
30.45 -0.00244
30.5 -0.00219
30.55 -0.00147
30.6 -0.00086
30.65 -0.00077
30.7 -0.00044
30.75 -0.00095
30.8 -0.0009
30.85 -0.00101
30.9 -0.00122
30.95 -0.0006
31 0.00028
31.05 0.00132
31.1 0.00127
31.15 0.00073
31.2 0.00064
31.25 0.00037
31.3 0.00038
31.35 0.00029
31.4 0.0009
31.45 0.00099
31.5 0.00132
31.55 0.00116
31.6 0.00115
31.65 0.00067
31.7 0.00096
31.75 0.00072
31.8 0.00031
31.85 -0.00004
31.9 -0.00008
31.95 -0.00008
32 0.00003
32.05 0.00036
32.1 -0.00013
32.15 -0.00051
32.2 -0.00103
32.25 -0.00073
32.3 -0.0002
32.35 -0.00034
32.4 -0.00018
32.45 0.00059
32.5 0.00077
32.55 0.00146
32.6 0.00241
32.65 0.00283
32.7 0.00279
32.75 0.00203
32.8 0.00127
32.85 0.00048
32.9 -0.00046
32.95 -0.00037
33 -0.00024
33.05 -0.00085
33.1 -0.00157
33.15 -0.00269
33.2 -0.00289
33.25 -0.00318
33.3 -0.00322
33.35 -0.00334
33.4 -0.00377
33.45 -0.00381
33.5 -0.00367
33.55 -0.00395
33.6 -0.00317
33.65 -0.00213
33.7 -0.00173
33.75 -0.00092
33.8 -0.00016
33.85 0.00039
33.9 0.00037
33.95 0.00102
34 0.00078
34.05 0.0006
34.1 -0.00018
34.15 -0.00126
34.2 -0.00183
34.25 -0.00253
34.3 -0.00287
34.35 -0.00346
34.4 -0.00406
34.45 -0.0045
34.5 -0.00516
34.55 -0.00552
34.6 -0.00576
34.65 -0.00511
34.7 -0.00409
34.75 -0.00367
34.8 -0.0024
34.85 -0.00173
34.9 -0.00058
34.95 0.00003
35 0.00072
35.05 0.00041
35.1 0.00063
35.15 0.00046
35.2 0.00096
35.25 0.00127
35.3 0.00107
35.35 0.00047
35.4 0.00056
35.45 0.00113
35.5 0.00157
35.55 0.00219
35.6 0.002
35.65 0.00099
35.7 0.00103
35.75 0.00033
35.8 -0.00064
35.85 -0.00071
35.9 -0.00055
35.95 0.00007
36 0.00082
36.05 0.00084
36.1 0.0008
36.15 0.00094
36.2 0.00055
36.25 0.0006
36.3 0.00132
36.35 0.00202
36.4 0.00274
36.45 0.00304
36.5 0.00258
36.55 0.0014
36.6 -0.00019
36.65 -0.00112
36.7 -0.00186
36.75 -0.00289
36.8 -0.0026
36.85 -0.00214
36.9 -0.00111
36.95 -0.00089
37 -0.00085
37.05 -0.00012
37.1 -0.00021
37.15 -0.0005
37.2 0.00009
37.25 0.00021
37.3 0.00077
37.35 0.00047
37.4 0.00066
37.45 0.00013
37.5 0.00026
37.55 -0.00027
37.6 -0.00016
37.65 -0.00017
37.7 -0.00086
37.75 -0.00172
37.8 -0.00161
37.85 -0.00109
37.9 -0.00066
37.95 -0.00043
38 0.0002
38.05 0.00126
38.1 0.00162
38.15 0.00205
38.2 0.00208
38.25 0.00222
38.3 0.00241
38.35 0.00238
38.4 0.00143
38.45 0.00014
38.5 -0.00046
38.55 -0.00131
38.6 -0.00207
38.65 -0.00228
38.7 -0.00152
38.75 -0.00066
38.8 0.00067
38.85 0.00095
38.9 0.00152
38.95 0.00153
39 0.00095
39.05 0.00029
39.1 0.00047
39.15 0.00103
39.2 0.00097
39.25 0.00033
39.3 0.0001
39.35 -0.00018
39.4 0.0001
39.45 -0.00005
39.5 0.00056
39.55 0.00163
39.6 0.00251
39.65 0.00344
39.7 0.0036
39.75 0.00316
39.8 0.00191
39.85 0.00022
39.9 -0.00079
39.95 -0.00136
40 -0.00132
40.05 -0.00065
40.1 -0.00056
40.15 -0.00012
40.2 0.00041
40.25 0.00109
40.3 0.00145
40.35 0.00209
40.4 0.0017
40.45 0.00154
40.5 0.00172
40.55 0.00124
40.6 0.00027
40.65 0.00005
40.7 -0.00009
40.75 -0.00069
40.8 -0.00054
40.85 -0.00035
40.9 0.00025
40.95 0.0012
41 0.0022
41.05 0.00218
41.1 0.00162
41.15 0.0014
41.2 0.00046
41.25 -0.00087
41.3 -0.0012
41.35 -0.00106
41.4 -0.00136
41.45 -0.00104
41.5 -0.00072
41.55 0
41.6 0.00021
41.65 0.00072
41.7 0.0009
41.75 0.00024
41.8 0.00019
41.85 -0.00014
41.9 -0.00075
41.95 -0.00064
42 -0.00053
42.05 -0.0002
42.1 0.00043
42.15 0.00013
42.2 -0.00022
42.25 -0.00113
42.3 -0.00197
42.35 -0.00268
42.4 -0.00228
42.45 -0.00169
42.5 -0.00152
42.55 -0.00119
42.6 -0.00137
42.65 -0.00116
42.7 -0.00061
42.75 0.00012
42.8 0.00067
42.85 0.00024
42.9 -0.00031
42.95 -0.00066
43 -0.00082
43.05 -0.00136
43.1 -0.00136
43.15 -0.00067
43.2 0.00028
43.25 0.00139
43.3 0.00222
43.35 0.00208
43.4 0.00252
43.45 0.0032
43.5 0.00372
43.55 0.00312
43.6 0.00178
43.65 0.00004
43.7 -0.00084
43.75 -0.00178
43.8 -0.00245
43.85 -0.00203
43.9 -0.00211
43.95 -0.00249
44 -0.00241
44.05 -0.00248
44.1 -0.00308
44.15 -0.00324
44.2 -0.00353
44.25 -0.003
44.3 -0.00194
44.35 -0.0007
44.4 -0.00022
44.45 -0.0002
44.5 -0.00018
44.55 -0.00076
44.6 -0.00071
44.65 -0.00044
44.7 -0.00027
44.75 -0.00099
44.8 -0.00122
44.85 -0.00093
44.9 -0.00099
44.95 -0.00138
45 -0.00247
45.05 -0.00391
45.1 -0.00572
45.15 -0.0072
45.2 -0.00819
45.25 -0.00978
45.3 -0.01174
45.35 -0.01435
45.4 -0.01663
45.45 -0.01888
45.5 -0.02168
45.55 -0.02437
45.6 -0.02799
45.65 -0.03277
45.7 -0.03772
45.75 -0.04257
45.8 -0.04813
45.85 -0.05438
45.9 -0.06213
45.95 -0.07004
46 -0.07913
46.05 -0.08942
46.1 -0.10144
46.15 -0.11465
46.2 -0.12897
46.25 -0.14367
46.3 -0.15894
46.35 -0.17542
46.4 -0.19329
46.45 -0.21142
46.5 -0.22939
46.55 -0.24849
46.6 -0.26757
46.65 -0.28676
46.7 -0.3055
46.75 -0.32425
46.8 -0.3425
46.85 -0.36056
46.9 -0.37748
46.95 -0.39306
47 -0.40651
47.05 -0.41853
47.1 -0.42841
47.15 -0.43678
47.2 -0.44224
47.25 -0.44562
47.3 -0.44606
47.35 -0.44395
47.4 -0.43906
47.45 -0.43154
47.5 -0.42033
47.55 -0.40709
47.6 -0.39077
47.65 -0.37124
47.7 -0.34995
47.75 -0.32699
47.8 -0.30211
47.85 -0.27564
47.9 -0.24728
47.95 -0.21812
48 -0.18783
48.05 -0.15685
48.1 -0.12489
48.15 -0.09229
48.2 -0.06039
48.25 -0.02838
48.3 0.00286
48.35 0.03316
48.4 0.06237
48.45 0.09068
48.5 0.11864
48.55 0.14567
48.6 0.17109
48.65 0.1962
48.7 0.21955
48.75 0.2416
48.8 0.26312
48.85 0.2832
48.9 0.30253
48.95 0.32039
49 0.33738
49.05 0.35329
49.1 0.36791
49.15 0.38141
49.2 0.39295
49.25 0.4026
49.3 0.41097
49.35 0.41748
49.4 0.42344
49.45 0.42754
49.5 0.43098
49.55 0.43338
49.6 0.43416
49.65 0.43343
49.7 0.43189
49.75 0.42831
49.8 0.42326
49.85 0.41708
49.9 0.41113
49.95 0.40512
50 0.39812
50.05 0.39026
50.1 0.38109
50.15 0.37182
50.2 0.36215
50.25 0.35177
50.3 0.34102
50.35 0.32922
50.4 0.31747
50.45 0.30517
50.5 0.2935
50.55 0.28173
50.6 0.27039
50.65 0.25887
50.7 0.24689
50.75 0.23587
50.8 0.22429
50.85 0.21344
50.9 0.20224
50.95 0.19151
51 0.18053
51.05 0.17057
51.1 0.16049
51.15 0.15109
51.2 0.14247
51.25 0.1336
51.3 0.12457
51.35 0.11595
51.4 0.10848
51.45 0.10211
51.5 0.09542
51.55 0.08934
51.6 0.08272
51.65 0.07659
51.7 0.07137
51.75 0.06645
51.8 0.06176
51.85 0.05629
51.9 0.05103
51.95 0.04663
52 0.04219
52.05 0.03827
52.1 0.03425
52.15 0.02963
52.2 0.02571
52.25 0.02227
52.3 0.01939
52.35 0.01553
52.4 0.01141
52.45 0.0079
52.5 0.00426
52.55 0.00117
52.6 -0.00169
52.65 -0.00451
52.7 -0.00793
52.75 -0.01077
52.8 -0.01397
52.85 -0.01707
52.9 -0.01931
52.95 -0.02089
53 -0.02214
53.05 -0.02415
53.1 -0.02651
53.15 -0.02912
53.2 -0.03209
53.25 -0.0348
53.3 -0.03752
53.35 -0.04011
53.4 -0.0418
53.45 -0.0435
53.5 -0.044
53.55 -0.04409
53.6 -0.04408
53.65 -0.04479
53.7 -0.04615
53.75 -0.04711
53.8 -0.04732
53.85 -0.04749
53.9 -0.0473
53.95 -0.04776
54 -0.04784
54.05 -0.04884
54.1 -0.05051
54.15 -0.05141
54.2 -0.05231
54.25 -0.05346
54.3 -0.05449
54.35 -0.05558
54.4 -0.05665
54.45 -0.05742
54.5 -0.05737
54.55 -0.05702
54.6 -0.05613
54.65 -0.05599
54.7 -0.05595
54.75 -0.05554
54.8 -0.05466
54.85 -0.05357
54.9 -0.05244
54.95 -0.051
55 -0.04959
55.05 -0.04898
55.1 -0.0482
55.15 -0.0472
55.2 -0.04646
55.25 -0.04542
55.3 -0.04433
55.35 -0.04319
55.4 -0.04312
55.45 -0.04326
55.5 -0.04318
55.55 -0.04308
55.6 -0.04337
55.65 -0.04356
55.7 -0.04404
55.75 -0.04494
55.8 -0.0447
55.85 -0.04451
55.9 -0.04473
55.95 -0.04467
56 -0.04449
56.05 -0.04346
56.1 -0.04271
56.15 -0.04132
56.2 -0.0405
56.25 -0.04024
56.3 -0.03987
56.35 -0.03994
56.4 -0.03958
56.45 -0.0385
56.5 -0.03741
56.55 -0.03643
56.6 -0.03602
56.65 -0.03525
56.7 -0.03431
56.75 -0.03365
56.8 -0.03314
56.85 -0.03287
56.9 -0.03281
56.95 -0.03226
57 -0.03177
57.05 -0.03078
57.1 -0.03041
57.15 -0.0296
57.2 -0.02859
57.25 -0.02808
57.3 -0.02719
57.35 -0.02707
57.4 -0.02697
57.45 -0.02731
57.5 -0.0273
57.55 -0.02711
57.6 -0.0274
57.65 -0.02801
57.7 -0.02832
57.75 -0.02734
57.8 -0.02579
57.85 -0.02383
57.9 -0.02281
57.95 -0.02197
58 -0.02142
58.05 -0.02133
58.1 -0.02114
58.15 -0.02155
58.2 -0.02178
58.25 -0.02147
58.3 -0.02125
58.35 -0.02148
58.4 -0.02168
58.45 -0.02169
58.5 -0.02125
58.55 -0.02075
58.6 -0.0203
58.65 -0.02012
58.7 -0.01913
58.75 -0.0187
58.8 -0.01774
58.85 -0.01768
58.9 -0.01706
58.95 -0.01632
59 -0.01571
59.05 -0.01487
59.1 -0.01394
59.15 -0.01273
59.2 -0.0116
59.25 -0.01171
59.3 -0.01159
59.35 -0.01128
59.4 -0.01157
59.45 -0.0126
59.5 -0.01402
59.55 -0.01463
59.6 -0.01434
59.65 -0.01452
59.7 -0.01433
59.75 -0.01342
59.8 -0.01346
59.85 -0.01327
59.9 -0.01357
59.95 -0.01299
60 -0.01188
60.05 -0.01081
60.1 -0.00957
60.15 -0.00905
60.2 -0.00851
60.25 -0.00852
60.3 -0.0086
60.35 -0.00874
60.4 -0.00868
60.45 -0.00841
60.5 -0.00831
60.55 -0.00904
60.6 -0.00969
60.65 -0.01022
60.7 -0.01036
60.75 -0.00983
60.8 -0.00873
60.85 -0.00744
60.9 -0.00637
60.95 -0.00522
61 -0.00469
61.05 -0.0042
61.1 -0.0039
61.15 -0.00382
61.2 -0.0044
61.25 -0.00445
61.3 -0.00523
61.35 -0.00535
61.4 -0.00584
61.45 -0.00621
61.5 -0.007
61.55 -0.008
61.6 -0.00857
61.65 -0.00918
61.7 -0.00934
61.75 -0.00914
61.8 -0.0095
61.85 -0.00941
61.9 -0.00928
61.95 -0.00909
62 -0.00925
62.05 -0.00877
62.1 -0.00795
62.15 -0.00756
62.2 -0.00671
62.25 -0.00617
62.3 -0.00644
62.35 -0.00603
62.4 -0.00552
62.45 -0.00534
62.5 -0.0051
62.55 -0.00555
62.6 -0.00522
62.65 -0.00496
62.7 -0.00545
62.75 -0.00533
62.8 -0.00566
62.85 -0.00653
62.9 -0.0073
62.95 -0.00709
63 -0.0069
63.05 -0.0073
63.1 -0.0069
63.15 -0.00709
63.2 -0.00657
63.25 -0.00571
63.3 -0.00499
63.35 -0.00396
63.4 -0.00268
63.45 -0.00165
63.5 -0.00194
63.55 -0.00205
63.6 -0.00162
63.65 -0.00123
63.7 -0.00094
63.75 -0.00142
63.8 -0.00233
63.85 -0.00255
63.9 -0.00238
63.95 -0.0019
64 -0.00231
64.05 -0.00271
64.1 -0.00283
64.15 -0.00333
64.2 -0.00389
64.25 -0.00428
64.3 -0.00381
64.35 -0.0042
64.4 -0.00511
64.45 -0.00573
64.5 -0.00517
64.55 -0.00497
64.6 -0.00526
64.65 -0.00583
64.7 -0.00625
64.75 -0.00687
64.8 -0.00702
64.85 -0.00649
64.9 -0.00576
64.95 -0.00481
65 -0.00367
65.05 -0.00348
65.1 -0.00385
65.15 -0.00344
65.2 -0.003
65.25 -0.00219
65.3 -0.00228
65.35 -0.00257
65.4 -0.00202
65.45 -0.00153
65.5 -0.00072
65.55 -0.00041
65.6 -0.00076
65.65 -0.00042
65.7 -0.00091
65.75 -0.00168
65.8 -0.00252
65.85 -0.00327
65.9 -0.00321
65.95 -0.00369
66 -0.00422
66.05 -0.00477
66.1 -0.00521
66.15 -0.0056
66.2 -0.00532
66.25 -0.00514
66.3 -0.00466
66.35 -0.00365
66.4 -0.00281
66.45 -0.00218
66.5 -0.00144
66.55 -0.00099
66.6 -0.00143
66.65 -0.00198
66.7 -0.0016
66.75 -0.00115
66.8 -0.00014
66.85 -0.00004
66.9 0.00045
66.95 0.00131
67 0.00233
67.05 0.00335
67.1 0.00394
67.15 0.00353
67.2 0.0036
67.25 0.00384
67.3 0.00341
67.35 0.00313
67.4 0.00225
67.45 0.00076
67.5 -0.00013
67.55 -0.00012
67.6 -0.00032
67.65 -0.00079
67.7 -0.00045
67.75 -0.00005
67.8 -0.00016
67.85 -0.00002
67.9 0.00024
67.95 -0.00005
68 -0.00016
68.05 -0.00089
68.1 -0.00191
68.15 -0.00284
68.2 -0.00404
68.25 -0.00405
68.3 -0.00363
68.35 -0.00375
68.4 -0.00412
68.45 -0.00365
68.5 -0.00373
68.55 -0.00351
68.6 -0.00326
68.65 -0.00323
68.7 -0.00269
68.75 -0.00159
68.8 -0.00039
68.85 0.00003
68.9 0.00004
68.95 -0.00006
69 -0.00035
69.05 -0.00011
69.1 -0.00037
69.15 -0.00122
69.2 -0.00175
69.25 -0.00225
69.3 -0.00183
69.35 -0.00123
69.4 -0.00098
69.45 -0.00131
69.5 -0.00096
69.55 -0.00132
69.6 -0.00119
69.65 -0.0011
69.7 -0.00107
69.75 -0.00133
69.8 -0.00167
69.85 -0.00177
69.9 -0.00101
69.95 -0.00038
70 -0.0007
70.05 -0.00116
70.1 -0.00099
70.15 -0.00132
70.2 -0.00201
70.25 -0.00209
70.3 -0.00235
70.35 -0.00233
70.4 -0.00213
70.45 -0.0016
70.5 -0.00164
70.55 -0.00176
70.6 -0.00192
70.65 -0.00117
70.7 -0.00105
70.75 -0.00098
70.8 -0.00141
70.85 -0.00193
70.9 -0.0018
70.95 -0.00179
71 -0.00187
71.05 -0.00122
71.1 -0.0007
71.15 -0.0008
71.2 -0.00051
71.25 -0.00027
71.3 0.00007
71.35 0.00085
71.4 0.00066
71.45 0.00012
71.5 -0.00043
71.55 -0.00113
71.6 -0.00125
71.65 -0.00141
71.7 -0.00063
71.75 -0.00003
71.8 0.00031
71.85 0.00029
71.9 -0.00046
71.95 -0.00088
72 -0.00035
72.05 -0.00039
72.1 -0.00098
72.15 -0.00149
72.2 -0.00187
72.25 -0.00145
72.3 -0.00078
72.35 -0.00048
72.4 0.00026
72.45 0.00071
72.5 0.00032
72.55 0.00015
72.6 -0.0004
72.65 -0.00008
72.7 0.00033
72.75 0.0004
72.8 0.00076
72.85 0.00055
72.9 0.0007
72.95 0.00149
73 0.00114
73.05 0.00057
73.1 0.00089
73.15 0.00114
73.2 0.00134
73.25 0.00077
73.3 -0.00012
73.35 -0.00029
73.4 -0.00073
73.45 -0.00038
73.5 -0.00018
73.55 0.00005
73.6 0.00053
73.65 0.00033
73.7 0.00057
73.75 0.00025
73.8 0.00065
73.85 0.00035
73.9 -0.00023
73.95 -0.00122
74 -0.00144
74.05 -0.00095
74.1 -0.0008
74.15 -0.00077
74.2 -0.00067
74.25 -0.00022
74.3 0.00037
74.35 0.00147
74.4 0.00204
74.45 0.00221
74.5 0.00257
74.55 0.00264
74.6 0.00183
74.65 0.00123
74.7 0.00045
74.75 0.00014
74.8 0.00009
74.85 0.00057
74.9 0.00156
74.95 0.00266
75 0.00299
75.05 0.0022
75.1 0.00178
75.15 0.00173
75.2 0.0008
75.25 -0.00022
75.3 -0.00071
75.35 -0.00069
75.4 -0.00006
75.45 -0.00004
75.5 -0.00077
75.55 -0.00071
75.6 -0.00001
75.65 0.00101
75.7 0.00095
75.75 0.0005
75.8 0.00068
75.85 0.00113
75.9 0.00075
75.95 0.00056
76 0.00091
76.05 0.00037
76.1 0.00047
76.15 -0.00003
76.2 -0.00073
76.25 -0.0005
76.3 0.00016
76.35 0.00092
76.4 0.00151
76.45 0.0012
76.5 0.00128
76.55 0.00121
76.6 0.00048
76.65 -0.00044
76.7 -0.00115
76.75 -0.00202
76.8 -0.00169
76.85 -0.00129
76.9 -0.00097
76.95 -0.00014
77 -0.00029
77.05 -0.00103
77.1 -0.00093
77.15 -0.00125
77.2 -0.00185
77.25 -0.00178
77.3 -0.00183
77.35 -0.0024
77.4 -0.00245
77.45 -0.00189
77.5 -0.00211
77.55 -0.00265
77.6 -0.00248
77.65 -0.00248
77.7 -0.0029
77.75 -0.00316
77.8 -0.00309
77.85 -0.00276
77.9 -0.00305
77.95 -0.00311
78 -0.00229
78.05 -0.00083
78.1 -0.0003
78.15 -0.00018
78.2 -0.00057
78.25 -0.00084
78.3 -0.00129
78.35 -0.0014
78.4 -0.00169
78.45 -0.00174
78.5 -0.00128
78.55 -0.00032
78.6 0.00052
78.65 0.00135
78.7 0.00111
78.75 0.00116
78.8 0.00119
78.85 0.00125
78.9 0.00142
78.95 0.00128
79 0.00144
79.05 0.00176
79.1 0.00241
79.15 0.00234
79.2 0.00277
79.25 0.00293
79.3 0.00304
79.35 0.00275
79.4 0.00297
79.45 0.00271
79.5 0.00224
79.55 0.00157
79.6 0.00064
79.65 -0.00041
79.7 -0.00177
79.75 -0.00256
79.8 -0.00308
79.85 -0.00288
79.9 -0.00292
79.95 -0.00326
80 -0.00319
80.05 -0.0034
80.1 -0.00381
80.15 -0.00371
80.2 -0.00393
80.25 -0.00427
80.3 -0.00457
80.35 -0.00466
80.4 -0.00439
80.45 -0.00428
80.5 -0.00367
80.55 -0.00272
80.6 -0.00227
80.65 -0.00167
80.7 -0.00038
80.75 0.00001
80.8 -0.00033
80.85 -0.00064
80.9 -0.00103
80.95 -0.00123
81 -0.00112
81.05 -0.00141
81.1 -0.00148
81.15 -0.00165
81.2 -0.00223
81.25 -0.00234
81.3 -0.00224
81.35 -0.00168
81.4 -0.00104
81.45 -0.00049
81.5 0.00014
81.55 0.00017
81.6 0.00036
81.65 0.00118
81.7 0.00183
81.75 0.0026
81.8 0.00298
81.85 0.00249
81.9 0.00157
81.95 0.00131
82 0.00184
82.05 0.00279
82.1 0.00342
82.15 0.00378
82.2 0.0034
82.25 0.00355
82.3 0.00346
82.35 0.00378
82.4 0.0038
82.45 0.00339
82.5 0.00276
82.55 0.00219
82.6 0.00211
82.65 0.00163
82.7 0.0014
82.75 0.00051
82.8 0.00044
82.85 0.00107
82.9 0.0009
82.95 0.0013
83 0.00159
83.05 0.00109
83.1 0.00121
83.15 0.00084
83.2 0.00072
83.25 0.00016
83.3 0.00017
83.35 0.00081
83.4 0.00163
83.45 0.002
83.5 0.00225
83.55 0.00264
83.6 0.00277
83.65 0.003
83.7 0.0022
83.75 0.0021
83.8 0.00144
83.85 0.00037
83.9 -0.00016
83.95 -0.00114
84 -0.00105
84.05 -0.00165
84.1 -0.00189
84.15 -0.00232
84.2 -0.00212
84.25 -0.00211
84.3 -0.00125
84.35 -0.00133
84.4 -0.00092
84.45 -0.00014
84.5 0.00007
84.55 -0.00031
84.6 -0.00018
84.65 -0.00037
84.7 0.00027
84.75 0.00124
84.8 0.00201
84.85 0.00233
84.9 0.00275
84.95 0.00236
85 0.00177
85.05 0.00124
85.1 0.00065
85.15 0.00027
85.2 0.00008
85.25 0.0001
85.3 -0.00043
85.35 -0.00117
85.4 -0.00176
85.45 -0.00182
85.5 -0.00122
85.55 -0.0003
85.6 0.00049
85.65 0.00153
85.7 0.00218
85.75 0.00247
85.8 0.00171
85.85 0.00103
85.9 0.00115
85.95 0.00175
86 0.00217
86.05 0.00223
86.1 0.00138
86.15 0.00086
86.2 -0.00017
86.25 -0.00141
86.3 -0.00277
86.35 -0.00314
86.4 -0.00339
86.45 -0.00305
86.5 -0.00224
86.55 -0.00105
86.6 -0.00084
86.65 -0.00043
86.7 -0.00009
86.75 0.00012
86.8 0.00009
86.85 0.00067
86.9 0.00152
86.95 0.00134
87 0.0006
87.05 -0.00052
87.1 -0.00107
87.15 -0.00142
87.2 -0.00141
87.25 -0.00056
87.3 -0.00059
87.35 -0.00048
87.4 0.00025
87.45 0.0005
87.5 0.00004
87.55 -0.00038
87.6 -0.0012
87.65 -0.00134
87.7 -0.00066
87.75 0.00016
87.8 0.00089
87.85 0.00061
87.9 0.00102
87.95 0.00121
88 0.00148
88.05 0.00153
88.1 0.00209
88.15 0.00285
88.2 0.00266
88.25 0.00232
88.3 0.00149
88.35 0.0007
88.4 0.0007
88.45 0.00106
88.5 0.001
88.55 0.00156
88.6 0.00215
88.65 0.0026
88.7 0.00257
88.75 0.00228
88.8 0.00213
88.85 0.00211
88.9 0.00243
88.95 0.00179
89 0.00126
89.05 0.00074
89.1 0.00064
89.15 0.0008
89.2 0.0002
89.25 -0.00081
89.3 -0.00201
89.35 -0.00334
89.4 -0.00453
89.45 -0.00486
89.5 -0.005
89.55 -0.00401
89.6 -0.0029
89.65 -0.00182
89.7 -0.00081
89.75 0.00058
89.8 0.00076
89.85 0.0002
89.9 -0.00058
89.95 -0.00076
90 -0.00046
90.05 0.00005
90.1 -0.00007
90.15 -0.00066
90.2 -0.00083
90.25 -0.00045
90.3 0.00037
90.35 0.0009
90.4 0.00143
90.45 0.00127
90.5 0.0011
90.55 0.00137
90.6 0.00098
90.65 0.00121
90.7 0.00153
90.75 0.0016
90.8 0.00114
90.85 0.00134
90.9 0.00059
90.95 0.0006
91 0.00039
91.05 0.0002
91.1 -0.00066
91.15 -0.00186
91.2 -0.00277
91.25 -0.00341
91.3 -0.00293
91.35 -0.00224
91.4 -0.00161
91.45 -0.00159
91.5 -0.00145
91.55 -0.00082
91.6 -0.00053
91.65 -0.00069
91.7 -0.00082
91.75 -0.00087
91.8 -0.00088
91.85 -0.00112
91.9 -0.00194
91.95 -0.00187
92 -0.00191
92.05 -0.00181
92.1 -0.00231
92.15 -0.00253
92.2 -0.00241
92.25 -0.00215
92.3 -0.0012
92.35 -0.00112
92.4 -0.00126
92.45 -0.00198
92.5 -0.00267
92.55 -0.00298
92.6 -0.00337
92.65 -0.00365
92.7 -0.00326
92.75 -0.00314
92.8 -0.00212
92.85 -0.00185
92.9 -0.00223
92.95 -0.00258
93 -0.00206
93.05 -0.00222
93.1 -0.00147
93.15 -0.00129
93.2 -0.00032
93.25 0.00021
93.3 0.00014
93.35 0.00065
93.4 0.00112
93.45 0.00104
93.5 0.00149
93.55 0.00171
93.6 0.00204
93.65 0.00228
93.7 0.0021
93.75 0.00133
93.8 0.00149
93.85 0.00111
93.9 0.00085
93.95 0.00098
94 0.00123
94.05 0.0019
94.1 0.00231
94.15 0.00173
94.2 0.0015
94.25 0.00158
94.3 0.00086
94.35 0.00044
94.4 0.00023
94.45 -0.00057
94.5 -0.00094
94.55 -0.00118
94.6 -0.00069
94.65 -0.00037
94.7 -0.00024
94.75 -0.00051
94.8 -0.0004
94.85 0.00008
94.9 0.00021
94.95 -0.00012
95 -0.00078
95.05 -0.00103
95.1 -0.00063
95.15 0.00039
95.2 0.00134
95.25 0.00191
95.3 0.00261
95.35 0.00293
95.4 0.00316
95.45 0.00347
95.5 0.00396
95.55 0.00394
95.6 0.00337
95.65 0.003
95.7 0.00265
95.75 0.00278
95.8 0.00289
95.85 0.003
95.9 0.00306
95.95 0.0025
96 0.00189
96.05 0.00166
96.1 0.00122
96.15 0.00151
96.2 0.00148
96.25 0.00191
96.3 0.00185
96.35 0.00174
96.4 0.00104
96.45 -0.00003
96.5 -0.00044
96.55 -0.00018
96.6 -0.00073
96.65 -0.00052
96.7 -0.00097
96.75 -0.00124
96.8 -0.00184
96.85 -0.00247
96.9 -0.00335
96.95 -0.00364
97 -0.00376
97.05 -0.0039
97.1 -0.0039
97.15 -0.00431
97.2 -0.00448
97.25 -0.00449
97.3 -0.00487
97.35 -0.00443
97.4 -0.00446
97.45 -0.00382
97.5 -0.00289
97.55 -0.00207
97.6 -0.00097
97.65 -0.00062
97.7 -0.00019
97.75 0.00062
97.8 0.00057
97.85 -0.00021
97.9 -0.00095
97.95 -0.0011
98 -0.00061
98.05 0.00014
98.1 0.00132
98.15 0.00229
98.2 0.00291
98.25 0.00252
98.3 0.00271
98.35 0.00315
98.4 0.00354
98.45 0.00347
98.5 0.00375
98.55 0.00356
98.6 0.00344
98.65 0.00298
98.7 0.00253
98.75 0.00228
98.8 0.00226
98.85 0.00275
98.9 0.00311
98.95 0.0034
99 0.00267
99.05 0.00206
99.1 0.00123
99.15 0.00125
99.2 0.00153
99.25 0.00126
99.3 0.00064
99.35 0.00068
99.4 0.00108
99.45 0.00077
99.5 0.00019
99.55 -0.00039
99.6 -0.00154
99.65 -0.00182
99.7 -0.00199
99.75 -0.00259
99.8 -0.00336
99.85 -0.00307
99.9 -0.00287
99.95 -0.00203
