0 0
0.05 0.00152
0.1 0.0038
0.15 0.00613
0.2 0.00724
0.25 0.00794
0.3 0.00896
0.35 0.01027
0.4 0.01082
0.45 0.01099
0.5 0.01092
0.55 0.01159
0.6 0.01177
0.65 0.01161
0.7 0.01093
0.75 0.01112
0.8 0.01225
0.85 0.0136
0.9 0.01329
0.95 0.0131
1 0.01193
1.05 0.01085
1.1 0.00905
1.15 0.00723
1.2 0.0063
1.25 0.00687
1.3 0.00688
1.35 0.00756
1.4 0.00754
1.45 0.00887
1.5 0.00865
1.55 0.00749
1.6 0.00578
1.65 0.00444
1.7 0.00326
1.75 0.0026
1.8 0.00279
1.85 0.00299
1.9 0.00324
1.95 0.00497
2 0.00607
2.05 0.00776
2.1 0.0089
2.15 0.00891
2.2 0.00852
2.25 0.00856
2.3 0.00787
2.35 0.00685
2.4 0.00661
2.45 0.00772
2.5 0.0082
2.55 0.00765
2.6 0.00684
2.65 0.00598
2.7 0.0053
2.75 0.00619
2.8 0.00715
2.85 0.00765
2.9 0.00891
2.95 0.00863
3 0.00738
3.05 0.00617
3.1 0.00466
3.15 0.00344
3.2 0.00281
3.25 0.00296
3.3 0.00439
3.35 0.00477
3.4 0.004
3.45 0.00425
3.5 0.00459
3.55 0.00587
3.6 0.00661
3.65 0.0063
3.7 0.00705
3.75 0.00796
3.8 0.00917
3.85 0.00884
3.9 0.0076
3.95 0.00632
4 0.00543
4.05 0.00447
4.1 0.0029
4.15 0.00204
4.2 0.00059
4.25 -0.00072
4.3 -0.00023
4.35 0.0008
4.4 0.00286
4.45 0.00484
4.5 0.00618
4.55 0.00682
4.6 0.0074
4.65 0.00803
4.7 0.00821
4.75 0.0087
4.8 0.00968
4.85 0.01024
4.9 0.00999
4.95 0.00889
5 0.00708
5.05 0.00502
5.1 0.00423
5.15 0.00417
5.2 0.005
5.25 0.00568
5.3 0.00501
5.35 0.00501
5.4 0.0055
5.45 0.0051
5.5 0.00511
5.55 0.00532
5.6 0.00477
5.65 0.005
5.7 0.00523
5.75 0.00556
5.8 0.00436
5.85 0.0036
5.9 0.00303
5.95 0.00212
6 0.00076
6.05 -0.00012
6.1 0.00031
6.15 0.00014
6.2 0.0005
6.25 0.00138
6.3 0.00134
6.35 0.00176
6.4 0.00251
6.45 0.00345
6.5 0.00357
6.55 0.00385
6.6 0.0044
6.65 0.00394
6.7 0.00419
6.75 0.00475
6.8 0.00437
6.85 0.00334
6.9 0.0033
6.95 0.00297
7 0.00234
7.05 0.00228
7.1 0.00275
7.15 0.00241
7.2 0.00215
7.25 0.00088
7.3 -0.00095
7.35 -0.00107
7.4 -0.00171
7.45 -0.00174
7.5 -0.00266
7.55 -0.00401
7.6 -0.00335
7.65 -0.00204
7.7 -0.00135
7.75 -0.001
7.8 -0.00172
7.85 -0.00116
7.9 -0.00021
7.95 0.00099
8 0.00078
8.05 0.0014
8.1 0.00136
8.15 0.00057
8.2 0.00081
8.25 -0.00002
8.3 0.00042
8.35 0.0011
8.4 0.00125
8.45 0.00163
8.5 0.00135
8.55 0.00195
8.6 0.00162
8.65 0.00079
8.7 0.00109
8.75 0.00201
8.8 0.00275
8.85 0.00325
8.9 0.00298
8.95 0.00153
9 0.00133
9.05 0.00046
9.1 0.00099
9.15 0.00087
9.2 0.00111
9.25 0.0022
9.3 0.00193
9.35 0.00231
9.4 0.00262
9.45 0.00351
9.5 0.00311
9.55 0.00357
9.6 0.0034
9.65 0.00358
9.7 0.00321
9.75 0.00236
9.8 0.00093
9.85 -0.00115
9.9 -0.00176
9.95 -0.00206
10 -0.00291
10.05 -0.00365
10.1 -0.00294
10.15 -0.00326
10.2 -0.00298
10.25 -0.00331
10.3 -0.00401
10.35 -0.00398
10.4 -0.00399
10.45 -0.00422
10.5 -0.0041
10.55 -0.00245
10.6 -0.00163
10.65 -0.00084
10.7 -0.00053
10.75 -0.0012
10.8 -0.0009
10.85 -0.00153
10.9 -0.00224
10.95 -0.00271
11 -0.00172
11.05 -0.00038
11.1 0.00162
11.15 0.00206
11.2 0.00134
11.25 0.00004
11.3 -0.00071
11.35 -0.00045
11.4 -0.00017
11.45 -0.0008
11.5 -0.0001
11.55 0.00052
11.6 0.00016
11.65 0.00089
11.7 0.00198
11.75 0.00323
11.8 0.00451
11.85 0.00436
11.9 0.00509
11.95 0.00588
12 0.00586
12.05 0.00433
12.1 0.00267
12.15 0.00231
12.2 0.00243
12.25 0.0027
12.3 0.0026
12.35 0.00335
12.4 0.00251
12.45 0.00159
12.5 0.00206
12.55 0.00127
12.6 0.00039
12.65 -0.00077
12.7 -0.00057
12.75 -0.00052
12.8 0.00035
12.85 0.00181
12.9 0.00153
12.95 0.00036
13 -0.00041
13.05 -0.00042
13.1 0.00047
13.15 0.00023
13.2 -0.00049
13.25 -0.00172
13.3 -0.00296
13.35 -0.00452
13.4 -0.00589
13.45 -0.00635
13.5 -0.00595
13.55 -0.00476
13.6 -0.00296
13.65 -0.0025
13.7 -0.00199
13.75 -0.00137
13.8 -0.00146
13.85 -0.00207
13.9 -0.00154
13.95 -0.00067
14 0.00085
14.05 0.00087
14.1 0.00102
14.15 0.0007
14.2 0.00087
14.25 0.00117
14.3 0.0005
14.35 0.00106
14.4 0.00056
14.45 0.00061
14.5 -0.00032
14.55 -0.00094
14.6 -0.00023
14.65 0.00029
14.7 0.00161
14.75 0.00297
14.8 0.00321
14.85 0.00307
14.9 0.00334
14.95 0.00273
15 0.00308
15.05 0.00405
15.1 0.00528
15.15 0.00646
15.2 0.0056
15.25 0.00532
15.3 0.00428
15.35 0.00313
15.4 0.00125
15.45 0.00077
15.5 -0.00001
15.55 0.00033
15.6 0.00032
15.65 -0.00001
15.7 -0.00125
15.75 -0.00186
15.8 -0.00255
15.85 -0.00279
15.9 -0.00212
15.95 -0.00134
16 -0.00128
16.05 -0.00057
16.1 -0.0001
16.15 0.0001
16.2 -0.00015
16.25 0.00085
16.3 0.00239
16.35 0.00242
16.4 0.00195
16.45 0.00148
16.5 0.00133
16.55 0.00089
16.6 0.00025
16.65 0.00047
16.7 -0.00034
16.75 -0.00001
16.8 0.00053
16.85 0.0008
16.9 0.00029
16.95 0.00055
17 0.00081
17.05 0.00072
17.1 -0.00027
17.15 -0.00189
17.2 -0.00237
17.25 -0.00179
17.3 -0.00076
17.35 -0.00101
17.4 -0.00069
17.45 -0.00126
17.5 -0.0021
17.55 -0.00349
17.6 -0.00502
17.65 -0.00602
17.7 -0.00629
17.75 -0.0064
17.8 -0.00606
17.85 -0.00464
17.9 -0.00311
17.95 -0.00223
18 -0.00253
18.05 -0.00341
18.1 -0.00291
18.15 -0.00215
18.2 -0.001
18.25 0.00033
18.3 0.00191
18.35 0.00254
18.4 0.00194
18.45 0.00254
18.5 0.00314
18.55 0.00363
18.6 0.00336
18.65 0.00369
18.7 0.00275
18.75 0.00269
18.8 0.00183
18.85 0.00187
18.9 0.00123
18.95 0.00071
19 -0.00081
19.05 -0.00276
19.1 -0.00266
19.15 -0.00215
19.2 -0.00155
19.25 -0.00071
19.3 -0.00084
19.35 -0.00087
19.4 -0.00104
19.45 -0.0011
19.5 -0.0004
19.55 -0.00095
19.6 -0.00006
19.65 0.00052
19.7 0.00198
19.75 0.00318
19.8 0.00337
19.85 0.00282
19.9 0.00297
19.95 0.00174
20 0.00002
20.05 -0.00074
20.1 -0.00132
20.15 -0.00097
20.2 -0.00179
20.25 -0.00203
20.3 -0.00308
20.35 -0.00415
20.4 -0.00415
20.45 -0.00366
20.5 -0.00273
20.55 -0.00154
20.6 0.00027
20.65 0.0008
20.7 0.00052
20.75 -0.00008
20.8 -0.00154
20.85 -0.00162
20.9 -0.00258
20.95 -0.00385
21 -0.00399
21.05 -0.00345
21.1 -0.00353
21.15 -0.00411
21.2 -0.00301
21.25 -0.00143
21.3 0.00041
21.35 0.0018
21.4 0.00236
21.45 0.00192
21.5 0.00076
21.55 -0.00076
21.6 -0.00132
21.65 -0.00105
21.7 -0.00099
21.75 -0.00153
21.8 -0.00269
21.85 -0.00355
21.9 -0.00313
21.95 -0.00228
22 -0.00082
22.05 0.00118
22.1 0.00317
22.15 0.00444
22.2 0.00566
22.25 0.00665
22.3 0.00592
22.35 0.00587
22.4 0.00497
22.45 0.00399
22.5 0.00337
22.55 0.00211
22.6 0.00166
22.65 0.00017
22.7 -0.00136
22.75 -0.00165
22.8 -0.00111
22.85 -0.00094
22.9 -0.00082
22.95 -0.00131
23 -0.0014
23.05 -0.00044
23.1 -0.00016
23.15 -0.00092
23.2 -0.00209
23.25 -0.00233
23.3 -0.00267
23.35 -0.00275
23.4 -0.00207
23.45 -0.00038
23.5 0.00156
23.55 0.00295
23.6 0.00417
23.65 0.00526
23.7 0.00496
23.75 0.00389
23.8 0.00203
23.85 0.00058
23.9 -0.00129
23.95 -0.00328
24 -0.00404
24.05 -0.00494
24.1 -0.00526
24.15 -0.00464
24.2 -0.00351
24.25 -0.00281
24.3 -0.00247
24.35 -0.00087
24.4 0.00055
24.45 0.00108
24.5 0.00172
24.55 0.00115
24.6 0.00137
24.65 0.00046
24.7 0.00024
24.75 0.00002
24.8 0.00052
24.85 0.00188
24.9 0.00151
24.95 0.0019
25 0.00207
25.05 0.00207
25.1 0.00144
25.15 0.0005
25.2 0.00018
25.25 0.00044
25.3 -0.00047
25.35 -0.00019
25.4 -0.00077
25.45 -0.0006
25.5 -0.0009
25.55 -0.00183
25.6 -0.00191
25.65 -0.00201
25.7 -0.00214
25.75 -0.00138
25.8 -0.00154
25.85 -0.001
25.9 -0.00146
25.95 -0.00094
26 0.0005
26.05 0.00065
26.1 0.00047
26.15 -0.0002
26.2 -0.00152
26.25 -0.00218
26.3 -0.00343
26.35 -0.00279
26.4 -0.00163
26.45 -0.00144
26.5 -0.0007
26.55 0.00075
26.6 0.00205
26.65 0.00334
26.7 0.00406
26.75 0.00471
26.8 0.00579
26.85 0.00618
26.9 0.00652
26.95 0.0069
27 0.00671
27.05 0.00686
27.1 0.0068
27.15 0.00663
27.2 0.00592
27.25 0.00491
27.3 0.00287
27.35 0.00205
27.4 0.00156
27.45 0.00178
27.5 0.0009
27.55 0.00118
27.6 0.00213
27.65 0.00232
27.7 0.00216
27.75 0.00286
27.8 0.003
27.85 0.00277
27.9 0.0012
27.95 -0.0006
28 -0.00129
28.05 -0.00255
28.1 -0.00311
28.15 -0.00355
28.2 -0.00447
28.25 -0.00434
28.3 -0.00308
28.35 -0.00213
28.4 -0.00029
28.45 0.00146
28.5 0.00197
28.55 0.00282
28.6 0.00193
28.65 0.00139
28.7 0.00161
28.75 0.00172
28.8 0.00084
28.85 -0.00026
28.9 -0.0001
28.95 -0.00046
29 -0.00009
29.05 -0.00058
29.1 0.00008
29.15 0.00029
29.2 0.00106
29.25 0.00104
29.3 -0.00016
29.35 -0.00176
29.4 -0.00313
29.45 -0.00443
29.5 -0.00413
29.55 -0.00265
29.6 -0.00183
29.65 -0.00166
29.7 -0.00101
29.75 -0.00106
29.8 -0.00154
29.85 -0.0018
29.9 -0.00133
29.95 0.00006
30 0.00106
30.05 0.00129
30.1 0.00067
30.15 0.00031
30.2 -0.00099
30.25 -0.00144
30.3 -0.00145
30.35 -0.00148
30.4 -0.00071
30.45 -0.00019
30.5 -0.00006
30.55 0.00061
30.6 0.00001
30.65 0.00037
30.7 0.00147
30.75 0.0014
30.8 0.00081
30.85 0.001
30.9 0.00062
30.95 -0.00085
31 -0.00153
31.05 -0.0008
31.1 -0.00136
31.15 -0.00222
31.2 -0.00176
31.25 -0.00085
31.3 -0.00076
31.35 -0.00166
31.4 -0.00145
31.45 -0.00066
31.5 0.00023
31.55 0.00016
31.6 -0.00085
31.65 -0.00065
31.7 0.00064
31.75 0.00201
31.8 0.00219
31.85 0.00255
31.9 0.0021
31.95 0.00267
32 0.00338
32.05 0.004
32.1 0.00376
32.15 0.00326
32.2 0.00191
32.25 0.00129
32.3 0.00185
32.35 0.00286
32.4 0.00227
32.45 0.00145
32.5 0.00128
32.55 0.00101
32.6 -0.00046
32.65 -0.00105
32.7 -0.00232
32.75 -0.00284
32.8 -0.00241
32.85 -0.00113
32.9 0.00038
32.95 0.00083
33 0.00122
33.05 0.00179
33.1 0.00152
33.15 0.0021
33.2 0.00269
33.25 0.00311
33.3 0.00359
33.35 0.00404
33.4 0.00429
33.45 0.00448
33.5 0.00325
33.55 0.00304
33.6 0.00232
33.65 0.0011
33.7 0.00022
33.75 -0.00152
33.8 -0.00267
33.85 -0.00216
33.9 -0.00268
33.95 -0.00236
34 -0.00181
34.05 -0.00228
34.1 -0.00333
34.15 -0.00364
34.2 -0.00298
34.25 -0.00155
34.3 -0.00078
34.35 -0.0008
34.4 -0.00129
34.45 -0.00053
34.5 0.00056
34.55 0.00121
34.6 0.00103
34.65 -0.00025
34.7 -0.00066
34.75 -0.00096
34.8 -0.00058
34.85 -0.0004
34.9 -0.0009
34.95 -0.00049
35 -0.00091
35.05 -0.00166
35.1 -0.00204
35.15 -0.00135
35.2 -0.00035
35.25 -0.0005
35.3 0.00031
35.35 0.00049
35.4 -0.00039
35.45 -0.00143
35.5 -0.00274
35.55 -0.00392
35.6 -0.00484
35.65 -0.00466
35.7 -0.00421
35.75 -0.00414
35.8 -0.00273
35.85 -0.00124
35.9 -0.0001
35.95 -0.0004
36 0.00004
36.05 -0.00004
36.1 0.0002
36.15 -0.00045
36.2 -0.00019
36.25 0.0005
36.3 0.00131
36.35 0.00185
36.4 0.00219
36.45 0.00212
36.5 0.00096
36.55 -0.0001
36.6 0.00019
36.65 0.00011
36.7 -0.00068
36.75 -0.00019
36.8 -0.00004
36.85 0.00101
36.9 0.00104
36.95 0.00168
37 0.00143
37.05 0.00042
37.1 -0.00073
37.15 -0.00081
37.2 0.00017
37.25 0.00119
37.3 0.00195
37.35 0.00188
37.4 0.00266
37.45 0.00215
37.5 0.00193
37.55 0.00093
37.6 -0.00061
37.65 -0.00172
37.7 -0.00168
37.75 -0.0027
37.8 -0.00234
37.85 -0.003
37.9 -0.00242
37.95 -0.00304
38 -0.00318
38.05 -0.00246
38.1 -0.00276
38.15 -0.00378
38.2 -0.00344
38.25 -0.00315
38.3 -0.00339
38.35 -0.0027
38.4 -0.00247
38.45 -0.00295
38.5 -0.00408
38.55 -0.00389
38.6 -0.00317
38.65 -0.00143
38.7 -0.00131
38.75 -0.00222
38.8 -0.00338
38.85 -0.00311
38.9 -0.00337
38.95 -0.0021
39 -0.00168
39.05 -0.00234
39.1 -0.00325
39.15 -0.00388
39.2 -0.00476
39.25 -0.00493
39.3 -0.00573
39.35 -0.00523
39.4 -0.00433
39.45 -0.00403
39.5 -0.00361
39.55 -0.00328
39.6 -0.00379
39.65 -0.00425
39.7 -0.00309
39.75 -0.00129
39.8 -0.00032
39.85 -0.00037
39.9 -0.00091
39.95 -0.00019
40 0.00075
40.05 0.00044
40.1 -0.00075
40.15 -0.00025
40.2 0.00087
40.25 0.00152
40.3 0.00095
40.35 0.00072
40.4 0.00044
40.45 -0.00079
40.5 -0.00213
40.55 -0.00216
40.6 -0.00185
40.65 -0.00216
40.7 -0.00104
40.75 -0.00069
40.8 -0.00124
40.85 -0.00045
40.9 -0.00078
40.95 -0.00071
41 -0.00106
41.05 -0.00045
41.1 0.00046
41.15 0.00149
41.2 0.00167
41.25 0.00252
41.3 0.00216
41.35 0.0026
41.4 0.00193
41.45 0.0015
41.5 0.00037
41.55 -0.00093
41.6 -0.00243
41.65 -0.00303
41.7 -0.00197
41.75 -0.00195
41.8 -0.00141
41.85 -0.00016
41.9 0.00039
41.95 0.00167
42 0.00138
42.05 0.00123
42.1 0.0007
42.15 0.00126
42.2 0.00222
42.25 0.00171
42.3 0.0006
42.35 -0.00082
42.4 -0.00103
42.45 -0.00026
42.5 0.00075
42.55 0.00171
42.6 0.0022
42.65 0.00302
42.7 0.00289
42.75 0.0023
42.8 0.00269
42.85 0.00257
42.9 0.00209
42.95 0.00129
43 0.00139
43.05 0.00045
43.1 0.001
43.15 0.00214
43.2 0.0035
43.25 0.00483
43.3 0.00586
43.35 0.00551
43.4 0.00407
43.45 0.00266
43.5 0.00245
43.55 0.00133
43.6 0.00066
43.65 0.00013
43.7 0.00072
43.75 0.00184
43.8 0.00333
43.85 0.00496
43.9 0.0048
43.95 0.00325
44 0.00218
44.05 0.00181
44.1 0.00124
44.15 -0.00021
44.2 -0.00114
44.25 -0.00132
44.3 -0.0017
44.35 -0.00175
44.4 -0.0012
44.45 -0.0003
44.5 0.00068
44.55 0.00172
44.6 0.00324
44.65 0.00303
44.7 0.00355
44.75 0.00257
44.8 0.00171
44.85 0.00058
44.9 -0.00069
44.95 -0.00261
45 -0.00424
45.05 -0.00579
45.1 -0.00655
45.15 -0.00751
45.2 -0.00784
45.25 -0.00792
45.3 -0.00635
45.35 -0.00589
45.4 -0.00509
45.45 -0.00453
45.5 -0.00303
45.55 -0.00216
45.6 -0.00245
45.65 -0.0024
45.7 -0.00246
45.75 -0.00179
45.8 -0.00105
45.85 0.00021
45.9 0.00021
45.95 0.00003
46 -0.00049
46.05 0.00021
46.1 0.00006
46.15 0.00082
46.2 0.00208
46.25 0.00331
46.3 0.00406
46.35 0.00468
46.4 0.00395
46.45 0.00211
46.5 0.0011
46.55 0.00049
46.6 -0.00091
46.65 -0.00273
46.7 -0.00264
46.75 -0.00164
46.8 -0.0008
46.85 0.00089
46.9 0.0014
46.95 0.00228
47 0.00338
47.05 0.00284
47.1 0.00277
47.15 0.00329
47.2 0.00321
47.25 0.00327
47.3 0.00291
47.35 0.00285
47.4 0.00163
47.45 -0.00023
47.5 -0.00117
47.55 -0.0027
47.6 -0.0038
47.65 -0.0035
47.7 -0.00336
47.75 -0.00225
47.8 -0.00057
47.85 0.00034
47.9 0.00167
47.95 0.00244
48 0.00362
48.05 0.00375
48.1 0.00463
48.15 0.00389
48.2 0.00256
48.25 0.00234
48.3 0.00233
48.35 0.00215
48.4 0.00285
48.45 0.00385
48.5 0.00408
48.55 0.00405
48.6 0.00251
48.65 0.00071
48.7 -0.00099
48.75 -0.00122
48.8 -0.00124
48.85 -0.0004
48.9 0.00028
48.95 0.00128
49 0.00163
49.05 0.00265
49.1 0.00362
49.15 0.00353
49.2 0.00266
49.25 0.00068
49.3 -0.00042
49.35 -0.00063
49.4 -0.00122
49.45 -0.00123
49.5 -0.00156
49.55 -0.00248
49.6 -0.00253
49.65 -0.00312
49.7 -0.00408
49.75 -0.00424
49.8 -0.00578
49.85 -0.00742
49.9 -0.00961
49.95 -0.01045
50 -0.01112
50.05 -0.01208
50.1 -0.01412
50.15 -0.01606
50.2 -0.01809
50.25 -0.02104
50.3 -0.02519
50.35 -0.0299
50.4 -0.03644
50.45 -0.04356
50.5 -0.05138
50.55 -0.05999
50.6 -0.06979
50.65 -0.08161
50.7 -0.09447
50.75 -0.10933
50.8 -0.12557
50.85 -0.14287
50.9 -0.16232
50.95 -0.18249
51 -0.20395
51.05 -0.22672
51.1 -0.25112
51.15 -0.2788
51.2 -0.30916
51.25 -0.34019
51.3 -0.3735
51.35 -0.40811
51.4 -0.44297
51.45 -0.47858
51.5 -0.51296
51.55 -0.54554
51.6 -0.57748
51.65 -0.60908
51.7 -0.63749
51.75 -0.66285
51.8 -0.68485
51.85 -0.70341
51.9 -0.7181
51.95 -0.73051
52 -0.73928
52.05 -0.74367
52.1 -0.7418
52.15 -0.73491
52.2 -0.72066
52.25 -0.70015
52.3 -0.67402
52.35 -0.64445
52.4 -0.61136
52.45 -0.57254
52.5 -0.53109
52.55 -0.48698
52.6 -0.43932
52.65 -0.38995
52.7 -0.33757
52.75 -0.284
52.8 -0.22883
52.85 -0.17392
52.9 -0.11953
52.95 -0.06683
53 -0.01523
53.05 0.03516
53.1 0.08182
53.15 0.12534
53.2 0.16735
53.25 0.20597
53.3 0.24125
53.35 0.2732
53.4 0.30302
53.45 0.33195
53.5 0.35815
53.55 0.38162
53.6 0.40255
53.65 0.4224
53.7 0.44099
53.75 0.45745
53.8 0.47211
53.85 0.48479
53.9 0.49649
53.95 0.50731
54 0.51553
54.05 0.52315
54.1 0.53102
54.15 0.53749
54.2 0.54361
54.25 0.54839
54.3 0.55325
54.35 0.55793
54.4 0.56158
54.45 0.56317
54.5 0.5636
54.55 0.5622
54.6 0.56011
54.65 0.55755
54.7 0.55461
54.75 0.55058
54.8 0.54768
54.85 0.54411
54.9 0.53936
54.95 0.53364
55 0.52848
55.05 0.5213
55.1 0.51311
55.15 0.50496
55.2 0.49597
55.25 0.48729
55.3 0.47748
55.35 0.46698
55.4 0.45648
55.45 0.44664
55.5 0.43702
55.55 0.42749
55.6 0.41652
55.65 0.40495
55.7 0.3925
55.75 0.38074
55.8 0.36926
55.85 0.35745
55.9 0.34447
55.95 0.33162
56 0.31887
56.05 0.30598
56.1 0.29328
56.15 0.28025
56.2 0.26799
56.25 0.25661
56.3 0.24616
56.35 0.23465
56.4 0.22186
56.45 0.20968
56.5 0.19787
56.55 0.18685
56.6 0.17479
56.65 0.16357
56.7 0.15194
56.75 0.13972
56.8 0.12736
56.85 0.11574
56.9 0.10636
56.95 0.09783
57 0.08999
57.05 0.08079
57.1 0.07238
57.15 0.06295
57.2 0.05397
57.25 0.04484
57.3 0.03712
57.35 0.03036
57.4 0.02333
57.45 0.01724
57.5 0.01108
57.55 0.0049
57.6 -0.00188
57.65 -0.00871
57.7 -0.01666
57.75 -0.02459
57.8 -0.03111
57.85 -0.03774
57.9 -0.04407
57.95 -0.04867
58 -0.05405
58.05 -0.05759
58.1 -0.06181
58.15 -0.06597
58.2 -0.07062
58.25 -0.07511
58.3 -0.07877
58.35 -0.08206
58.4 -0.08497
58.45 -0.08604
58.5 -0.08773
58.55 -0.08814
58.6 -0.08857
58.65 -0.08879
58.7 -0.09028
58.75 -0.09175
58.8 -0.09381
58.85 -0.09435
58.9 -0.09489
58.95 -0.09605
59 -0.09574
59.05 -0.09446
59.1 -0.09434
59.15 -0.09469
59.2 -0.09424
59.25 -0.09428
59.3 -0.09343
59.35 -0.09404
59.4 -0.09499
59.45 -0.09458
59.5 -0.09495
59.55 -0.09573
59.6 -0.0961
59.65 -0.09678
59.7 -0.09554
59.75 -0.09506
59.8 -0.09306
59.85 -0.0901
59.9 -0.0881
59.95 -0.08564
60 -0.08423
60.05 -0.08245
60.1 -0.08202
60.15 -0.08254
60.2 -0.08157
60.25 -0.08144
60.3 -0.08089
60.35 -0.07946
60.4 -0.07714
60.45 -0.07527
60.5 -0.07323
60.55 -0.07101
60.6 -0.06926
60.65 -0.06872
60.7 -0.06768
60.75 -0.06602
60.8 -0.06488
60.85 -0.06489
60.9 -0.06518
60.95 -0.0652
61 -0.06602
61.05 -0.06543
61.1 -0.06382
61.15 -0.06309
61.2 -0.06293
61.25 -0.0632
61.3 -0.06247
61.35 -0.06179
61.4 -0.05994
61.45 -0.05852
61.5 -0.05764
61.55 -0.05765
61.6 -0.05771
61.65 -0.05815
61.7 -0.05886
61.75 -0.05804
61.8 -0.05665
61.85 -0.05466
61.9 -0.05361
61.95 -0.05185
62 -0.05045
62.05 -0.04836
62.1 -0.04725
62.15 -0.04724
62.2 -0.04738
62.25 -0.04755
62.3 -0.04838
62.35 -0.0494
62.4 -0.05019
62.45 -0.04887
62.5 -0.04703
62.55 -0.04638
62.6 -0.04563
62.65 -0.04422
62.7 -0.0428
62.75 -0.04084
62.8 -0.03831
62.85 -0.03708
62.9 -0.03705
62.95 -0.03723
63 -0.03663
63.05 -0.03663
63.1 -0.03606
63.15 -0.03523
63.2 -0.03407
63.25 -0.03229
63.3 -0.03213
63.35 -0.0318
63.4 -0.03187
63.45 -0.03268
63.5 -0.0338
63.55 -0.03383
63.6 -0.03302
63.65 -0.0331
63.7 -0.03253
63.75 -0.03221
63.8 -0.03075
63.85 -0.03043
63.9 -0.03069
63.95 -0.03082
64 -0.03035
64.05 -0.03062
64.1 -0.0291
64.15 -0.0271
64.2 -0.02518
64.25 -0.02373
64.3 -0.02221
64.35 -0.02226
64.4 -0.02111
64.45 -0.0196
64.5 -0.01864
64.55 -0.01864
64.6 -0.01952
64.65 -0.01961
64.7 -0.02068
64.75 -0.02111
64.8 -0.02216
64.85 -0.02222
64.9 -0.02224
64.95 -0.02287
65 -0.02345
65.05 -0.02386
65.1 -0.02342
65.15 -0.02155
65.2 -0.01994
65.25 -0.01961
65.3 -0.01804
65.35 -0.01737
65.4 -0.01627
65.45 -0.01581
65.5 -0.01529
65.55 -0.01426
65.6 -0.0125
65.65 -0.0113
65.7 -0.0109
65.75 -0.01068
65.8 -0.00994
65.85 -0.00877
65.9 -0.00947
65.95 -0.01121
66 -0.01187
66.05 -0.01129
66.1 -0.01064
66.15 -0.01063
66.2 -0.01026
66.25 -0.01117
66.3 -0.0118
66.35 -0.01276
66.4 -0.01221
66.45 -0.01258
66.5 -0.01283
66.55 -0.01211
66.6 -0.01238
66.65 -0.01129
66.7 -0.01114
66.75 -0.01114
66.8 -0.01154
66.85 -0.01151
66.9 -0.01081
66.95 -0.01077
67 -0.00979
67.05 -0.00927
67.1 -0.00903
67.15 -0.00881
67.2 -0.00762
67.25 -0.00796
67.3 -0.00772
67.35 -0.00801
67.4 -0.00864
67.45 -0.00852
67.5 -0.00824
67.55 -0.00857
67.6 -0.00973
67.65 -0.01023
67.7 -0.00945
67.75 -0.00905
67.8 -0.00934
67.85 -0.00983
67.9 -0.0096
67.95 -0.00844
68 -0.00763
68.05 -0.00671
68.1 -0.00622
68.15 -0.00482
68.2 -0.00509
68.25 -0.00487
68.3 -0.00409
68.35 -0.0032
68.4 -0.00292
68.45 -0.00373
68.5 -0.00524
68.55 -0.006
68.6 -0.00681
68.65 -0.00704
68.7 -0.00709
68.75 -0.0072
68.8 -0.00611
68.85 -0.00571
68.9 -0.0048
68.95 -0.00472
69 -0.00408
69.05 -0.00379
69.1 -0.00482
69.15 -0.00589
69.2 -0.00602
69.25 -0.00645
69.3 -0.0075
69.35 -0.00826
69.4 -0.00805
69.45 -0.00782
69.5 -0.00716
69.55 -0.00577
69.6 -0.00478
69.65 -0.00415
69.7 -0.00366
69.75 -0.00228
69.8 -0.00255
69.85 -0.00232
69.9 -0.00178
69.95 -0.00097
70 -0.00049
70.05 -0.00135
70.1 -0.00123
70.15 -0.00076
70.2 -0.00055
70.25 -0.00176
70.3 -0.00163
70.35 -0.00282
70.4 -0.00292
70.45 -0.00394
70.5 -0.00458
70.55 -0.00528
70.6 -0.00475
70.65 -0.00425
70.7 -0.00453
70.75 -0.00354
70.8 -0.00183
70.85 -0.00183
70.9 -0.00103
70.95 -0.00102
71 -0.00018
71.05 -0.0006
71.1 -0.00071
71.15 -0.00051
71.2 -0.00099
71.25 -0.00196
71.3 -0.00358
71.35 -0.00365
71.4 -0.00398
71.45 -0.00413
71.5 -0.00509
71.55 -0.00643
71.6 -0.00717
71.65 -0.00637
71.7 -0.00526
71.75 -0.00348
71.8 -0.00203
71.85 -0.00168
71.9 -0.0025
71.95 -0.00403
72 -0.00504
72.05 -0.00549
72.1 -0.0049
72.15 -0.00316
72.2 -0.0011
72.25 0.00059
72.3 0.0019
72.35 0.00133
72.4 0.00073
72.45 -0.00073
72.5 -0.00131
72.55 -0.00178
72.6 -0.00143
72.65 -0.00031
72.7 -0.00042
72.75 0.00049
72.8 -0.00023
72.85 -0.00163
72.9 -0.00239
72.95 -0.00315
73 -0.00342
73.05 -0.00371
73.1 -0.00466
73.15 -0.00445
73.2 -0.00391
73.25 -0.00363
73.3 -0.00396
73.35 -0.00448
73.4 -0.00364
73.45 -0.00317
73.5 -0.00229
73.55 -0.00097
73.6 -0.00057
73.65 0.00044
73.7 0.0013
73.75 0.00274
73.8 0.00378
73.85 0.00474
73.9 0.00531
73.95 0.00616
74 0.00634
74.05 0.0066
74.1 0.00591
74.15 0.00386
74.2 0.00109
74.25 -0.00103
74.3 -0.00144
74.35 -0.0024
74.4 -0.00249
74.45 -0.00341
74.5 -0.00484
74.55 -0.00518
74.6 -0.00554
74.65 -0.00532
74.7 -0.00474
74.75 -0.00505
74.8 -0.00558
74.85 -0.00607
74.9 -0.00564
74.95 -0.00501
75 -0.00511
75.05 -0.00389
75.1 -0.00178
75.15 0.00066
75.2 0.00295
75.25 0.00301
75.3 0.0016
75.35 0.00139
75.4 -0.0001
75.45 -0.00203
75.5 -0.00371
75.55 -0.00526
75.6 -0.00623
75.65 -0.00589
75.7 -0.00561
75.75 -0.00541
75.8 -0.00525
75.85 -0.00437
75.9 -0.00388
75.95 -0.00329
76 -0.00322
76.05 -0.00215
76.1 -0.00062
76.15 0.00116
76.2 0.0014
76.25 0.00025
76.3 -0.00035
76.35 -0.00144
76.4 -0.00314
76.45 -0.00419
76.5 -0.00423
76.55 -0.00445
76.6 -0.00444
76.65 -0.00374
76.7 -0.00265
76.75 -0.00141
76.8 -0.00048
76.85 0.00054
76.9 0.00028
76.95 -0.00088
77 -0.00114
77.05 -0.00229
77.1 -0.00259
77.15 -0.00323
77.2 -0.004
77.25 -0.00423
77.3 -0.00289
77.35 -0.00083
77.4 0.00064
77.45 0.00252
77.5 0.00325
77.55 0.00248
77.6 0.00134
77.65 0.00107
77.7 -0.00002
77.75 -0.00043
77.8 -0.00049
77.85 -0.0014
77.9 -0.00149
77.95 -0.00218
78 -0.00272
78.05 -0.0023
78.1 -0.00262
78.15 -0.00148
78.2 -0.00054
78.25 0.00118
78.3 0.00156
78.35 0.00224
78.4 0.00197
78.45 0.00208
78.5 0.00247
78.55 0.00347
78.6 0.00386
78.65 0.00316
78.7 0.00316
78.75 0.00282
78.8 0.0015
78.85 0.00043
78.9 -0.00016
78.95 -0.00165
79 -0.0036
79.05 -0.00352
79.1 -0.00303
79.15 -0.00296
79.2 -0.00321
79.25 -0.00408
79.3 -0.00435
79.35 -0.00324
79.4 -0.00299
79.45 -0.00343
79.5 -0.00234
79.55 -0.00036
79.6 0.00183
79.65 0.00245
79.7 0.0028
79.75 0.0022
79.8 0.00219
79.85 0.00131
79.9 0.00107
79.95 0.00044
80 0.0003
80.05 -0.00023
80.1 -0.00122
80.15 -0.00257
80.2 -0.00378
80.25 -0.00335
80.3 -0.00225
80.35 -0.00046
80.4 0.00044
80.45 0.0009
80.5 0.00116
80.55 0.00175
80.6 0.00281
80.65 0.00413
80.7 0.0035
80.75 0.00331
80.8 0.0038
80.85 0.00395
80.9 0.00471
80.95 0.00586
81 0.00613
81.05 0.00514
81.1 0.00477
81.15 0.00361
81.2 0.00166
81.25 -0.00007
81.3 -0.00099
81.35 -0.00073
81.4 -0.00048
81.45 -0.00045
81.5 -0.00117
81.55 -0.00138
81.6 -0.00151
81.65 -0.00228
81.7 -0.00315
81.75 -0.00305
81.8 -0.00243
81.85 -0.00278
81.9 -0.00364
81.95 -0.00431
82 -0.00548
82.05 -0.0058
82.1 -0.006
82.15 -0.0061
82.2 -0.0061
82.25 -0.00513
82.3 -0.00517
82.35 -0.00454
82.4 -0.00295
82.45 -0.00276
82.5 -0.0021
82.55 -0.00073
82.6 0.00089
82.65 0.00199
82.7 0.00262
82.75 0.00384
82.8 0.0046
82.85 0.00484
82.9 0.00555
82.95 0.00641
83 0.00729
83.05 0.00706
83.1 0.0059
83.15 0.00521
83.2 0.0043
83.25 0.00344
83.3 0.00261
83.35 0.0018
83.4 -0.00002
83.45 -0.00026
83.5 -0.00129
83.55 -0.00179
83.6 -0.00176
83.65 -0.00045
83.7 0.00028
83.75 -0.00014
83.8 -0.00018
83.85 0.00021
83.9 0.001
83.95 0.00129
84 0.00169
84.05 0.0016
84.1 0.00228
84.15 0.00289
84.2 0.00373
84.25 0.00412
84.3 0.00372
84.35 0.00218
84.4 -0.00011
84.45 -0.00066
84.5 -0.00042
84.55 0.00085
84.6 0.00157
84.65 0.00233
84.7 0.0022
84.75 0.00156
84.8 0.00131
84.85 0.00007
84.9 -0.00084
84.95 -0.00079
85 0.00025
85.05 0.00199
85.1 0.00348
85.15 0.00332
85.2 0.0036
85.25 0.00307
85.3 0.00338
85.35 0.00368
85.4 0.00454
85.45 0.00426
85.5 0.00293
85.55 0.00084
85.6 0.00036
85.65 -0.00104
85.7 -0.003
85.75 -0.00325
85.8 -0.00302
85.85 -0.00171
85.9 0.00027
85.95 0.00087
86 0.00159
86.05 0.00159
86.1 0.00232
86.15 0.00178
86.2 0.00166
86.25 0.00074
86.3 0.00066
86.35 0.00162
86.4 0.00081
86.45 0.00068
86.5 0.0014
86.55 0.00148
86.6 0.00039
86.65 -0.00104
86.7 -0.00313
86.75 -0.00489
86.8 -0.00505
86.85 -0.0049
86.9 -0.00429
86.95 -0.00309
87 -0.00142
87.05 -0.00039
87.1 0
87.15 0.00069
87.2 0.0015
87.25 0.0011
87.3 -0.00009
87.35 -0.0002
87.4 0.00007
87.45 -0.00089
87.5 -0.00119
87.55 -0.00234
87.6 -0.00332
87.65 -0.00455
87.7 -0.00427
87.75 -0.00342
87.8 -0.00158
87.85 0.00076
87.9 0.0017
87.95 0.00281
88 0.00374
88.05 0.00425
88.1 0.00358
88.15 0.00352
88.2 0.00349
88.25 0.00206
88.3 0.0016
88.35 0.00129
88.4 0.00042
88.45 0.00024
88.5 -0.00093
88.55 -0.00097
88.6 -0.00129
88.65 -0.00167
88.7 -0.00081
88.75 -0.00088
88.8 -0.00173
88.85 -0.00209
88.9 -0.00281
88.95 -0.0033
89 -0.00437
89.05 -0.00474
89.1 -0.00507
89.15 -0.00475
89.2 -0.00537
89.25 -0.00452
89.3 -0.00457
89.35 -0.00354
89.4 -0.00299
89.45 -0.0016
89.5 0.00014
89.55 0.00171
89.6 0.0024
89.65 0.00294
89.7 0.00276
89.75 0.00244
89.8 0.00211
89.85 0.00105
89.9 0.00041
89.95 0.00068
90 0.00074
90.05 -0.00014
90.1 0.00024
90.15 -0.00057
90.2 -0.00142
90.25 -0.00124
90.3 -0.00085
90.35 -0.00148
90.4 -0.00188
90.45 -0.00198
90.5 -0.00183
90.55 -0.00135
90.6 -0.00126
90.65 -0.00154
90.7 -0.0015
90.75 -0.00095
90.8 -0.00093
90.85 -0.00026
90.9 -0.00063
90.95 -0.00023
91 0.00056
91.05 -0.00009
91.1 0
91.15 0.00036
91.2 0.00108
91.25 0.00251
91.3 0.00351
91.35 0.00432
91.4 0.00382
91.45 0.00416
91.5 0.00469
91.55 0.00431
91.6 0.0041
91.65 0.0045
91.7 0.00469
91.75 0.00382
91.8 0.004
91.85 0.00284
91.9 0.00137
91.95 -0.00062
92 -0.00301
92.05 -0.00485
92.1 -0.00634
92.15 -0.00764
92.2 -0.0069
92.25 -0.00553
92.3 -0.00365
92.35 -0.00114
92.4 -0.00046
92.45 0.00012
92.5 -0.00031
92.55 0.00038
92.6 0.00084
92.65 0.00064
92.7 0.00067
92.75 -0.00047
92.8 -0.00016
92.85 0.00104
92.9 0.00281
92.95 0.00371
93 0.00435
93.05 0.00322
93.1 0.00331
93.15 0.00399
93.2 0.00393
93.25 0.00437
93.3 0.00448
93.35 0.00518
93.4 0.00466
93.45 0.00313
93.5 0.00189
93.55 0.00115
93.6 0.00144
93.65 0.00111
93.7 0.00013
93.75 -0.00019
93.8 -0.0003
93.85 -0.00007
93.9 0.00063
93.95 0.00093
94 0.00163
94.05 0.00259
94.1 0.00234
94.15 0.00277
94.2 0.00284
94.25 0.00351
94.3 0.00248
94.35 0.00204
94.4 0.00083
94.45 -0.00087
94.5 -0.00172
94.55 -0.00168
94.6 -0.00155
94.65 -0.00146
94.7 -0.00085
94.75 0.00022
94.8 -0.00028
94.85 -0.00033
94.9 -0.00026
94.95 -0.00136
95 -0.00166
95.05 -0.00274
95.1 -0.0033
95.15 -0.00259
95.2 -0.00214
95.25 -0.00212
95.3 -0.00209
95.35 -0.00291
95.4 -0.00348
95.45 -0.00331
95.5 -0.0027
95.55 -0.00269
95.6 -0.00188
95.65 -0.00134
95.7 0.00004
95.75 0.00098
95.8 0.00055
95.85 -0.00029
95.9 -0.00039
95.95 0.0004
96 0.00161
96.05 0.00322
96.1 0.00426
96.15 0.005
96.2 0.00519
96.25 0.00436
96.3 0.00278
96.35 0.00064
96.4 0.00015
96.45 0.00018
96.5 0.00103
96.55 0.00148
96.6 0.00145
96.65 0.00011
96.7 -0.00179
96.75 -0.00231
96.8 -0.0032
96.85 -0.00283
96.9 -0.0036
96.95 -0.0048
97 -0.00448
97.05 -0.00405
97.1 -0.00338
97.15 -0.00285
97.2 -0.00258
97.25 -0.00203
97.3 -0.00113
97.35 -0.00039
97.4 -0.00004
97.45 0.00022
97.5 0.0006
97.55 0.0003
97.6 0.00054
97.65 0.00121
97.7 0.0006
97.75 0.00053
97.8 0.00027
97.85 -0.00015
97.9 0.0004
97.95 0.00117
98 0.00195
98.05 0.00277
98.1 0.00374
98.15 0.00407
98.2 0.00311
98.25 0.00102
98.3 0.00007
98.35 -0.00014
98.4 -0.00114
98.45 -0.00131
98.5 -0.00052
98.55 0.00104
98.6 0.00274
98.65 0.00284
98.7 0.00209
98.75 0.0008
98.8 -0.00021
98.85 -0.00089
98.9 -0.00225
98.95 -0.00232
99 -0.00258
99.05 -0.00229
99.1 -0.00102
99.15 -0.00129
99.2 -0.00217
99.25 -0.00313
99.3 -0.00418
99.35 -0.00567
99.4 -0.00615
99.45 -0.0072
99.5 -0.00822
99.55 -0.00848
99.6 -0.00884
99.65 -0.0083
99.7 -0.00848
99.75 -0.00786
99.8 -0.00647
99.85 -0.00618
99.9 -0.00521
99.95 -0.0035
