0 0
0.05 0.00063
0.1 0.00118
0.15 0.00258
0.2 0.0036
0.25 0.00435
0.3 0.00537
0.35 0.00666
0.4 0.00765
0.45 0.0081
0.5 0.00813
0.55 0.0077
0.6 0.00675
0.65 0.00618
0.7 0.00523
0.75 0.00521
0.8 0.0053
0.85 0.00547
0.9 0.00619
0.95 0.00633
1 0.00674
1.05 0.00682
1.1 0.0066
1.15 0.00667
1.2 0.00653
1.25 0.00631
1.3 0.00653
1.35 0.00667
1.4 0.0067
1.45 0.00694
1.5 0.00652
1.55 0.00559
1.6 0.0047
1.65 0.00429
1.7 0.00385
1.75 0.00329
1.8 0.00318
1.85 0.00285
1.9 0.00279
1.95 0.00322
2 0.00336
2.05 0.00328
2.1 0.00336
2.15 0.00294
2.2 0.00331
2.25 0.00332
2.3 0.00296
2.35 0.00334
2.4 0.00381
2.45 0.00402
2.5 0.00412
2.55 0.00375
2.6 0.00292
2.65 0.0026
2.7 0.00192
2.75 0.00143
2.8 0.00069
2.85 0.00074
2.9 0.00105
2.95 0.00184
3 0.00187
3.05 0.0024
3.1 0.00263
3.15 0.00319
3.2 0.00406
3.25 0.00428
3.3 0.00472
3.35 0.00471
3.4 0.00478
3.45 0.00488
3.5 0.00502
3.55 0.00463
3.6 0.0042
3.65 0.00377
3.7 0.00336
3.75 0.0031
3.8 0.00278
3.85 0.002
3.9 0.00124
3.95 0.00112
4 0.00146
4.05 0.00207
4.1 0.00217
4.15 0.00263
4.2 0.00251
4.25 0.00243
4.3 0.00186
4.35 0.00122
4.4 0.00035
4.45 -0.00055
4.5 -0.00136
4.55 -0.00114
4.6 -0.00102
4.65 -0.00114
4.7 -0.00101
4.75 -0.00016
4.8 0.00115
4.85 0.00205
4.9 0.00311
4.95 0.00326
5 0.00289
5.05 0.00269
5.1 0.00242
5.15 0.00162
5.2 0.00136
5.25 0.00118
5.3 0.00147
5.35 0.00158
5.4 0.00144
5.45 0.00192
5.5 0.00251
5.55 0.00259
5.6 0.00308
5.65 0.00273
5.7 0.00263
5.75 0.00234
5.8 0.0022
5.85 0.00199
5.9 0.00216
5.95 0.00267
6 0.00336
6.05 0.00391
6.1 0.00404
6.15 0.00328
6.2 0.00299
6.25 0.00225
6.3 0.0012
6.35 0.00095
6.4 0.00102
6.45 0.00108
6.5 0.00158
6.55 0.00134
6.6 0.00095
6.65 0.00091
6.7 0.00037
6.75 -0.00013
6.8 -0.00091
6.85 -0.00077
6.9 -0.00007
6.95 0.00011
7 0.00077
7.05 0.00135
7.1 0.00156
7.15 0.00214
7.2 0.00285
7.25 0.00331
7.3 0.00374
7.35 0.00332
7.4 0.00255
7.45 0.00173
7.5 0.00116
7.55 0.00132
7.6 0.00105
7.65 0.00079
7.7 0.00118
7.75 0.00092
7.8 0.00076
7.85 0.00072
7.9 0.00036
7.95 0
8 -0.00036
8.05 -0.00005
8.1 0.00009
8.15 0.00079
8.2 0.00135
8.25 0.002
8.3 0.00182
8.35 0.00149
8.4 0.00107
8.45 0.00038
8.5 -0.00003
8.55 -0.00012
8.6 -0.0006
8.65 -0.00101
8.7 -0.00112
8.75 -0.00164
8.8 -0.002
8.85 -0.00239
8.9 -0.00298
8.95 -0.003
9 -0.00266
9.05 -0.00193
9.1 -0.00157
9.15 -0.001
9.2 -0.001
9.25 -0.00047
9.3 -0.00015
9.35 0.00022
9.4 0.0006
9.45 0.00124
9.5 0.00215
9.55 0.00241
9.6 0.00248
9.65 0.00221
9.7 0.00248
9.75 0.00255
9.8 0.00203
9.85 0.00165
9.9 0.00115
9.95 0.00027
10 -0.00019
10.05 -0.00039
10.1 -0.00041
10.15 0.00012
10.2 0.00005
10.25 -0.00016
10.3 -0.0003
10.35 0.0001
10.4 0.00066
10.45 0.00094
10.5 0.00085
10.55 0.00081
10.6 0.00126
10.65 0.00165
10.7 0.00135
10.75 0.00111
10.8 0.00093
10.85 0.00114
10.9 0.00143
10.95 0.00121
11 0.00108
11.05 0.00065
11.1 0.00035
11.15 0.00043
11.2 0.0002
11.25 -0.00003
11.3 -0.00001
11.35 -0.00016
11.4 -0.00066
11.45 -0.00146
11.5 -0.0021
11.55 -0.00231
11.6 -0.00278
11.65 -0.00235
11.7 -0.00243
11.75 -0.00202
11.8 -0.00205
11.85 -0.00206
11.9 -0.00212
11.95 -0.00136
12 -0.00119
12.05 -0.0013
12.1 -0.00112
12.15 -0.00128
12.2 -0.00171
12.25 -0.0019
12.3 -0.00137
12.35 -0.00099
12.4 -0.00106
12.45 -0.00087
12.5 -0.00071
12.55 -0.00107
12.6 -0.00071
12.65 -0.00057
12.7 -0.00008
12.75 0.00084
12.8 0.00161
12.85 0.00235
12.9 0.00321
12.95 0.00299
13 0.00249
13.05 0.00231
13.1 0.00223
13.15 0.00186
13.2 0.00184
13.25 0.00185
13.3 0.0018
13.35 0.00104
13.4 -0.00008
13.45 -0.00073
13.5 -0.00075
13.55 -0.00096
13.6 -0.00125
13.65 -0.00121
13.7 -0.00144
13.75 -0.00173
13.8 -0.00192
13.85 -0.00137
13.9 -0.0007
13.95 0.00007
14 0.00038
14.05 0.00061
14.1 0.00112
14.15 0.00119
14.2 0.00091
14.25 0.00114
14.3 0.00144
14.35 0.00135
14.4 0.0013
14.45 0.00088
14.5 0.00042
14.55 0.00042
14.6 0.0003
14.65 0.00078
14.7 0.00113
14.75 0.0009
14.8 0.00052
14.85 -0.00036
14.9 -0.00049
14.95 -0.00059
15 -0.00088
15.05 -0.00102
15.1 -0.00096
15.15 -0.00139
15.2 -0.00184
15.25 -0.00203
15.3 -0.00141
15.35 -0.00069
15.4 -0.00072
15.45 -0.00049
15.5 0.00019
15.55 0.00087
15.6 0.00082
15.65 0.00088
15.7 0.00137
15.75 0.0011
15.8 0.00031
15.85 -0.0008
15.9 -0.00165
15.95 -0.00261
16 -0.0026
16.05 -0.00178
16.1 -0.00091
16.15 0.00013
16.2 0.001
16.25 0.00121
16.3 0.00124
16.35 0.00174
16.4 0.0017
16.45 0.00127
16.5 0.00067
16.55 0.00057
16.6 0.00089
16.65 0.00107
16.7 0.00139
16.75 0.00137
16.8 0.00171
16.85 0.00142
16.9 0.0008
16.95 0.00025
17 -0.00017
17.05 0.00011
17.1 0.0008
17.15 0.00124
17.2 0.00111
17.25 0.00138
17.3 0.00204
17.35 0.00268
17.4 0.00315
17.45 0.00259
17.5 0.00221
17.55 0.00221
17.6 0.00176
17.65 0.00147
17.7 0.0012
17.75 0.00112
17.8 0.00137
17.85 0.00111
17.9 0.00094
17.95 0.00128
18 0.00159
18.05 0.00191
18.1 0.0019
18.15 0.00179
18.2 0.00135
18.25 0.00087
18.3 0.00043
18.35 -0.00044
18.4 -0.0006
18.45 -0.00036
18.5 -0.00052
18.55 -0.00065
18.6 -0.00019
18.65 -0.00026
18.7 -0.00082
18.75 -0.00064
18.8 -0.00099
18.85 -0.00148
18.9 -0.00195
18.95 -0.0027
19 -0.00254
19.05 -0.00213
19.1 -0.00199
19.15 -0.0014
19.2 -0.00067
19.25 -0.00053
19.3 0.00008
19.35 0.00004
19.4 0.00027
19.45 0.00054
19.5 0.00085
19.55 0.00136
19.6 0.00101
19.65 0.00035
19.7 -0.00059
19.75 -0.00128
19.8 -0.0012
19.85 -0.0014
19.9 -0.002
19.95 -0.00267
20 -0.00261
20.05 -0.00191
20.1 -0.00098
20.15 -0.00049
20.2 -0.00053
20.25 -0.00025
20.3 0.00051
20.35 0.001
20.4 0.0013
20.45 0.00149
20.5 0.002
20.55 0.00244
20.6 0.0024
20.65 0.00185
20.7 0.00147
20.75 0.00098
20.8 0.00021
20.85 -0.00003
20.9 0.00027
20.95 0.00081
21 0.00053
21.05 0.00015
21.1 0.00016
21.15 -0.00046
21.2 -0.00093
21.25 -0.00087
21.3 -0.00054
21.35 0.00016
21.4 0.00024
21.45 -0.00028
21.5 -0.00018
21.55 -0.00039
21.6 -0.00044
21.65 -0.00056
21.7 -0.00006
21.75 0.00005
21.8 0.00041
21.85 0.00044
21.9 0.00085
21.95 0.00092
22 0.00079
22.05 0.00013
22.1 -0.00088
22.15 -0.00133
22.2 -0.00119
22.25 -0.00162
22.3 -0.00227
22.35 -0.00239
22.4 -0.00223
22.45 -0.00202
22.5 -0.00181
22.55 -0.00127
22.6 -0.00054
22.65 -0.00015
22.7 -0.00004
22.75 -0.00027
22.8 -0.00014
22.85 -0.0001
22.9 -0.00019
22.95 -0.00044
23 -0.0004
23.05 0.00007
23.1 0.00001
23.15 -0.00038
23.2 -0.0008
23.25 -0.00121
23.3 -0.00142
23.35 -0.00116
23.4 -0.00148
23.45 -0.00101
23.5 -0.00034
23.55 0.00048
23.6 0.00113
23.65 0.00165
23.7 0.0016
23.75 0.00179
23.8 0.00219
23.85 0.00217
23.9 0.00137
23.95 0.00102
24 0.00039
24.05 -0.00042
24.1 -0.00149
24.15 -0.00234
24.2 -0.00293
24.25 -0.00345
24.3 -0.00397
24.35 -0.00397
24.4 -0.00386
24.45 -0.0031
24.5 -0.00289
24.55 -0.0026
24.6 -0.0024
24.65 -0.00193
24.7 -0.00104
24.75 -0.00065
24.8 -0.00085
24.85 -0.0009
24.9 -0.0004
24.95 -0.00017
25 -0.00043
25.05 -0.00062
25.1 -0.00122
25.15 -0.00108
25.2 -0.00111
25.25 -0.00058
25.3 -0.00014
25.35 0.0002
25.4 0.00034
25.45 0.00084
25.5 0.00165
25.55 0.00253
25.6 0.00263
25.65 0.00308
25.7 0.00337
25.75 0.00328
25.8 0.00312
25.85 0.00319
25.9 0.00352
25.95 0.004
26 0.00456
26.05 0.00502
26.1 0.0048
26.15 0.00393
26.2 0.00308
26.25 0.0022
26.3 0.00183
26.35 0.00123
26.4 0.00113
26.45 0.00151
26.5 0.00122
26.55 0.001
26.6 0.0006
26.65 0.00044
26.7 -0.00019
26.75 -0.00107
26.8 -0.00181
26.85 -0.00177
26.9 -0.00147
26.95 -0.00113
27 -0.00044
27.05 0.00014
27.1 0.00031
27.15 0.00019
27.2 0.0004
27.25 0.00089
27.3 0.00079
27.35 0.00063
27.4 0.00084
27.45 0.00084
27.5 0.00068
27.55 0.00051
27.6 0.00085
27.65 0.00077
27.7 0.00114
27.75 0.00133
27.8 0.00183
27.85 0.00209
27.9 0.00261
27.95 0.00221
28 0.00154
28.05 0.00108
28.1 0.00116
28.15 0.00065
28.2 0.00057
28.25 0.00017
28.3 0.00014
28.35 0.0006
28.4 0.00019
28.45 0.00017
28.5 0.00056
28.55 0.00039
28.6 0.00066
28.65 0.00026
28.7 -0.00007
28.75 -0.00035
28.8 -0.00102
28.85 -0.00198
28.9 -0.00209
28.95 -0.00255
29 -0.00263
29.05 -0.00241
29.1 -0.0018
29.15 -0.00157
29.2 -0.00173
29.25 -0.00232
29.3 -0.00283
29.35 -0.00315
29.4 -0.00374
29.45 -0.00351
29.5 -0.00348
29.55 -0.00333
29.6 -0.00302
29.65 -0.00239
29.7 -0.00238
29.75 -0.00198
29.8 -0.00102
29.85 0.00019
29.9 0.00131
29.95 0.00162
30 0.00137
30.05 0.00087
30.1 0.00016
30.15 -0.00021
30.2 0.00008
30.25 0.00029
30.3 0.00019
30.35 0.00036
30.4 0.00001
30.45 -0.00043
30.5 -0.00065
30.55 -0.00044
30.6 -0.00053
30.65 -0.00008
30.7 -0.00033
30.75 -0.00055
30.8 -0.00109
30.85 -0.0016
30.9 -0.00176
30.95 -0.00187
31 -0.00145
31.05 -0.00094
31.1 -0.00097
31.15 -0.00064
31.2 -0.00071
31.25 -0.00038
31.3 -0.00039
31.35 -0.0009
31.4 -0.0017
31.45 -0.00218
31.5 -0.00237
31.55 -0.00258
31.6 -0.00249
31.65 -0.00223
31.7 -0.00238
31.75 -0.00225
31.8 -0.00221
31.85 -0.00256
31.9 -0.00309
31.95 -0.0028
32 -0.00189
32.05 -0.00101
32.1 -0.00026
32.15 0.0007
32.2 0.001
32.25 0.00093
32.3 0.00049
32.35 0.00004
32.4 -0.00021
32.45 -0.00031
32.5 -0.00016
32.55 -0.0001
32.6 -0.0006
32.65 -0.00058
32.7 -0.00067
32.75 -0.00067
32.8 -0.00006
32.85 0.0001
32.9 -0.0003
32.95 -0.00054
33 -0.001
33.05 -0.00109
33.1 -0.00139
33.15 -0.00195
33.2 -0.00219
33.25 -0.00202
33.3 -0.00218
33.35 -0.00188
33.4 -0.00104
33.45 -0.00059
33.5 -0.00022
33.55 -0.00011
33.6 -0.00049
33.65 -0.00037
33.7 -0.00037
33.75 -0.00085
33.8 -0.00139
33.85 -0.00175
33.9 -0.0016
33.95 -0.00077
34 -0.00029
34.05 0.00018
34.1 0.00072
34.15 0.00103
34.2 0.00095
34.25 0.00099
34.3 0.00076
34.35 0.00096
34.4 0.00125
34.45 0.00161
34.5 0.0012
34.55 0.00056
34.6 -0.00039
34.65 -0.00141
34.7 -0.00166
34.75 -0.00133
34.8 -0.00082
34.85 -0.00027
34.9 0.00026
34.95 0.00018
35 -0.00037
35.05 -0.00082
35.1 -0.00139
35.15 -0.00131
35.2 -0.00116
35.25 -0.00058
35.3 -0.00052
35.35 0.00022
35.4 0.00084
35.45 0.00111
35.5 0.0013
35.55 0.00105
35.6 0.00085
35.65 0.00124
35.7 0.00191
35.75 0.00176
35.8 0.00167
35.85 0.001
35.9 0.00113
35.95 0.0008
36 0.00094
36.05 0.00088
36.1 0.00069
36.15 0.00036
36.2 0.00031
36.25 0.00049
36.3 0.00034
36.35 0.00027
36.4 0.00024
36.45 0.00052
36.5 0.001
36.55 0.00161
36.6 0.00233
36.65 0.00225
36.7 0.00168
36.75 0.00178
36.8 0.00219
36.85 0.00201
36.9 0.00193
36.95 0.00154
37 0.00084
37.05 0.00066
37.1 0.0002
37.15 -0.00041
37.2 -0.00129
37.25 -0.00136
37.3 -0.00105
37.35 -0.00083
37.4 -0.00116
37.45 -0.00087
37.5 -0.00052
37.55 -0.00073
37.6 -0.00117
37.65 -0.00106
37.7 -0.00125
37.75 -0.0008
37.8 -0.00061
37.85 -0.00056
37.9 -0.00086
37.95 -0.00129
38 -0.00124
38.05 -0.00137
38.1 -0.00132
38.15 -0.00123
38.2 -0.00121
38.25 -0.00127
38.3 -0.00081
38.35 -0.00085
38.4 -0.00127
38.45 -0.00103
38.5 -0.00114
38.55 -0.00071
38.6 -0
38.65 0.00048
38.7 0.00123
38.75 0.0011
38.8 0.00085
38.85 0.00061
38.9 0.00095
38.95 0.00164
39 0.00257
39.05 0.00264
39.1 0.00229
39.15 0.00224
39.2 0.00261
39.25 0.00211
39.3 0.0022
39.35 0.0025
39.4 0.00233
39.45 0.00189
39.5 0.00158
39.55 0.00071
39.6 -0.00024
39.65 -0.00088
39.7 -0.0015
39.75 -0.00167
39.8 -0.00202
39.85 -0.00261
39.9 -0.00252
39.95 -0.00187
40 -0.00168
40.05 -0.00084
40.1 0.00006
40.15 0.00092
40.2 0.00174
40.25 0.00245
40.3 0.00234
40.35 0.00171
40.4 0.0008
40.45 -0.00043
40.5 -0.00121
40.55 -0.00121
40.6 -0.00148
40.65 -0.00159
40.7 -0.00096
40.75 -0.00048
40.8 -0.0004
40.85 -0.00057
40.9 -0.00065
40.95 -0.00112
41 -0.00198
41.05 -0.00249
41.1 -0.00304
41.15 -0.00369
41.2 -0.00421
41.25 -0.00437
41.3 -0.00528
41.35 -0.00682
41.4 -0.00844
41.45 -0.01064
41.5 -0.01343
41.55 -0.01579
41.6 -0.01792
41.65 -0.02076
41.7 -0.02408
41.75 -0.02778
41.8 -0.03185
41.85 -0.03714
41.9 -0.04277
41.95 -0.04982
42 -0.05747
42.05 -0.06626
42.1 -0.0765
42.15 -0.0873
42.2 -0.09898
42.25 -0.11101
42.3 -0.12444
42.35 -0.13889
42.4 -0.1544
42.45 -0.17055
42.5 -0.18681
42.55 -0.20312
42.6 -0.21984
42.65 -0.23686
42.7 -0.25445
42.75 -0.27172
42.8 -0.28828
42.85 -0.30454
42.9 -0.32075
42.95 -0.33618
43 -0.35019
43.05 -0.3628
43.1 -0.37291
43.15 -0.38091
43.2 -0.38724
43.25 -0.39115
43.3 -0.39266
43.35 -0.39088
43.4 -0.38642
43.45 -0.3791
43.5 -0.36811
43.55 -0.35441
43.6 -0.33809
43.65 -0.31965
43.7 -0.29919
43.75 -0.2765
43.8 -0.25129
43.85 -0.22498
43.9 -0.19713
43.95 -0.16827
44 -0.13913
44.05 -0.10986
44.1 -0.07965
44.15 -0.05002
44.2 -0.02135
44.25 0.0067
44.3 0.03374
44.35 0.05982
44.4 0.08538
44.45 0.10903
44.5 0.13159
44.55 0.15198
44.6 0.17094
44.65 0.18768
44.7 0.20296
44.75 0.21727
44.8 0.23012
44.85 0.24194
44.9 0.25246
44.95 0.26193
45 0.26986
45.05 0.27652
45.1 0.28204
45.15 0.28708
45.2 0.29147
45.25 0.29581
45.3 0.29986
45.35 0.30349
45.4 0.30672
45.45 0.30844
45.5 0.3091
45.55 0.3091
45.6 0.30892
45.65 0.30839
45.7 0.30745
45.75 0.30662
45.8 0.30477
45.85 0.30184
45.9 0.2982
45.95 0.29469
46 0.2907
46.05 0.28607
46.1 0.28155
46.15 0.27669
46.2 0.27176
46.25 0.26669
46.3 0.26145
46.35 0.25548
46.4 0.24883
46.45 0.24211
46.5 0.23495
46.55 0.228
46.6 0.22067
46.65 0.21292
46.7 0.20475
46.75 0.19739
46.8 0.1897
46.85 0.18202
46.9 0.17466
46.95 0.16746
47 0.16087
47.05 0.15492
47.1 0.14863
47.15 0.14283
47.2 0.13698
47.25 0.13174
47.3 0.12637
47.35 0.12145
47.4 0.11684
47.45 0.11194
47.5 0.10717
47.55 0.10186
47.6 0.0965
47.65 0.09182
47.7 0.0867
47.75 0.0818
47.8 0.07684
47.85 0.07261
47.9 0.06874
47.95 0.06401
48 0.05947
48.05 0.05509
48.1 0.0504
48.15 0.04635
48.2 0.04262
48.25 0.03912
48.3 0.03519
48.35 0.03084
48.4 0.02637
48.45 0.02213
48.5 0.01761
48.55 0.01418
48.6 0.01084
48.65 0.00717
48.7 0.00429
48.75 0.00091
48.8 -0.00166
48.85 -0.00473
48.9 -0.00699
48.95 -0.0093
49 -0.01217
49.05 -0.01498
49.1 -0.01765
49.15 -0.02046
49.2 -0.02265
49.25 -0.02406
49.3 -0.02535
49.35 -0.02635
49.4 -0.02796
49.45 -0.0299
49.5 -0.03212
49.55 -0.03424
49.6 -0.03536
49.65 -0.03607
49.7 -0.03662
49.75 -0.0369
49.8 -0.0379
49.85 -0.0392
49.9 -0.03968
49.95 -0.03965
50 -0.03985
50.05 -0.03988
50.1 -0.04014
50.15 -0.04026
50.2 -0.0407
50.25 -0.04088
50.3 -0.04079
50.35 -0.04122
50.4 -0.04151
50.45 -0.04214
50.5 -0.04261
50.55 -0.04286
50.6 -0.04327
50.65 -0.044
50.7 -0.04409
50.75 -0.04433
50.8 -0.04402
50.85 -0.04393
50.9 -0.0436
50.95 -0.04276
51 -0.04262
51.05 -0.04256
51.1 -0.04196
51.15 -0.0417
51.2 -0.04145
51.25 -0.04107
51.3 -0.04021
51.35 -0.03975
51.4 -0.03933
51.45 -0.03878
51.5 -0.03794
51.55 -0.03754
51.6 -0.03705
51.65 -0.03726
51.7 -0.03712
51.75 -0.03644
51.8 -0.0356
51.85 -0.03456
51.9 -0.03384
51.95 -0.03335
52 -0.03374
52.05 -0.03369
52.1 -0.03396
52.15 -0.03406
52.2 -0.03356
52.25 -0.03278
52.3 -0.03257
52.35 -0.03177
52.4 -0.03133
52.45 -0.03138
52.5 -0.0315
52.55 -0.0312
52.6 -0.03105
52.65 -0.03099
52.7 -0.03086
52.75 -0.03023
52.8 -0.02956
52.85 -0.02855
52.9 -0.02796
52.95 -0.02728
53 -0.02716
53.05 -0.02758
53.1 -0.02812
53.15 -0.02874
53.2 -0.02851
53.25 -0.02823
53.3 -0.02745
53.35 -0.02669
53.4 -0.02625
53.45 -0.02529
53.5 -0.02464
53.55 -0.02452
53.6 -0.02464
53.65 -0.02397
53.7 -0.02386
53.75 -0.02339
53.8 -0.0232
53.85 -0.02223
53.9 -0.0216
53.95 -0.02147
54 -0.02096
54.05 -0.02007
54.1 -0.01919
54.15 -0.01913
54.2 -0.01945
54.25 -0.01951
54.3 -0.01929
54.35 -0.01946
54.4 -0.01882
54.45 -0.01799
54.5 -0.01791
54.55 -0.01803
54.6 -0.01825
54.65 -0.0184
54.7 -0.01815
54.75 -0.01815
54.8 -0.01732
54.85 -0.01649
54.9 -0.0152
54.95 -0.01435
55 -0.01394
55.05 -0.01348
55.1 -0.01256
55.15 -0.01178
55.2 -0.01144
55.25 -0.01139
55.3 -0.01144
55.35 -0.01162
55.4 -0.01138
55.45 -0.01107
55.5 -0.01076
55.55 -0.01107
55.6 -0.01164
55.65 -0.01254
55.7 -0.01329
55.75 -0.01332
55.8 -0.01294
55.85 -0.01223
55.9 -0.01146
55.95 -0.01058
56 -0.00963
56.05 -0.00854
56.1 -0.00826
56.15 -0.00818
56.2 -0.00846
56.25 -0.00877
56.3 -0.00881
56.35 -0.00872
56.4 -0.00826
56.45 -0.00829
56.5 -0.00844
56.55 -0.009
56.6 -0.00898
56.65 -0.0084
56.7 -0.00759
56.75 -0.00666
56.8 -0.00669
56.85 -0.00668
56.9 -0.00721
56.95 -0.00701
57 -0.00735
57.05 -0.00746
57.1 -0.0078
57.15 -0.00817
57.2 -0.00772
57.25 -0.00696
57.3 -0.00671
57.35 -0.00638
57.4 -0.00634
57.45 -0.00659
57.5 -0.00666
57.55 -0.00719
57.6 -0.0079
57.65 -0.00843
57.7 -0.00879
57.75 -0.00819
57.8 -0.00708
57.85 -0.00578
57.9 -0.00546
57.95 -0.00562
58 -0.00628
58.05 -0.00631
58.1 -0.00607
58.15 -0.00553
58.2 -0.00468
58.25 -0.00419
58.3 -0.00408
58.35 -0.00431
58.4 -0.00477
58.45 -0.00452
58.5 -0.00399
58.55 -0.00375
58.6 -0.00351
58.65 -0.00314
58.7 -0.00328
58.75 -0.00351
58.8 -0.00335
58.85 -0.00338
58.9 -0.00382
58.95 -0.00417
59 -0.00439
59.05 -0.00479
59.1 -0.00502
59.15 -0.00457
59.2 -0.00427
59.25 -0.0041
59.3 -0.0037
59.35 -0.00351
59.4 -0.00371
59.45 -0.00332
59.5 -0.00318
59.55 -0.00281
59.6 -0.00321
59.65 -0.00326
59.7 -0.0034
59.75 -0.00312
59.8 -0.00333
59.85 -0.00365
59.9 -0.00377
59.95 -0.00423
60 -0.00429
60.05 -0.00475
60.1 -0.00453
60.15 -0.00433
60.2 -0.00405
60.25 -0.00407
60.3 -0.00432
60.35 -0.00396
60.4 -0.00404
60.45 -0.00396
60.5 -0.00332
60.55 -0.003
60.6 -0.00225
60.65 -0.00214
60.7 -0.00211
60.75 -0.00232
60.8 -0.00191
60.85 -0.00127
60.9 -0.00072
60.95 -0.00015
61 -0.00004
61.05 -0.00064
61.1 -0.00109
61.15 -0.0011
61.2 -0.00073
61.25 -0.00113
61.3 -0.00134
61.35 -0.00155
61.4 -0.00145
61.45 -0.00186
61.5 -0.00255
61.55 -0.00313
61.6 -0.003
61.65 -0.00312
61.7 -0.00285
61.75 -0.00307
61.8 -0.00303
61.85 -0.00276
61.9 -0.00217
61.95 -0.0019
62 -0.0023
62.05 -0.00228
62.1 -0.00265
62.15 -0.00305
62.2 -0.00342
62.25 -0.0038
62.3 -0.00342
62.35 -0.00284
62.4 -0.00226
62.45 -0.00204
62.5 -0.00133
62.55 -0.00042
62.6 -0.00036
62.65 -0.00084
62.7 -0.00074
62.75 -0.00079
62.8 -0.00066
62.85 -0.00062
62.9 -0.00104
62.95 -0.00126
63 -0.00082
63.05 -0.00029
63.1 0.0003
63.15 0.0005
63.2 0.00065
63.25 0.00066
63.3 -0.00004
63.35 -0.00014
63.4 -0.00072
63.45 -0.00169
63.5 -0.00287
63.55 -0.00359
63.6 -0.00419
63.65 -0.00422
63.7 -0.00414
63.75 -0.00404
63.8 -0.00363
63.85 -0.00355
63.9 -0.00347
63.95 -0.00283
64 -0.00185
64.05 -0.00094
64.1 -0.00025
64.15 0.00059
64.2 0.00049
64.25 0.0008
64.3 0.00033
64.35 -0.00016
64.4 -0.00071
64.45 -0.00102
64.5 -0.00124
64.55 -0.00159
64.6 -0.00148
64.65 -0.00077
64.7 -0.00035
64.75 -0.00014
64.8 0.00048
64.85 0.00132
64.9 0.00196
64.95 0.00174
65 0.00153
65.05 0.0007
65.1 -0
65.15 0.00006
65.2 0.0005
65.25 0.0008
65.3 0.00091
65.35 0.00049
65.4 0.00016
65.45 0.00037
65.5 0.00063
65.55 0.0011
65.6 0.00112
65.65 0.00087
65.7 0.00064
65.75 0.00036
65.8 -0.00044
65.85 -0.00082
65.9 -0.00054
65.95 -0.00043
66 0.00005
66.05 0.00005
66.1 0.00037
66.15 0.00075
66.2 0.00072
66.25 0.00096
66.3 0.00057
66.35 0.0007
66.4 0.00035
66.45 0.00042
66.5 0.00094
66.55 0.00115
66.6 0.00148
66.65 0.00159
66.7 0.00174
66.75 0.00114
66.8 0.00022
66.85 -0.00058
66.9 -0.00128
66.95 -0.0018
67 -0.00186
67.05 -0.00204
67.1 -0.00192
67.15 -0.00147
67.2 -0.00141
67.25 -0.00184
67.3 -0.00148
67.35 -0.00068
67.4 -0.00051
67.45 -0.00035
67.5 -0.00013
67.55 0.0005
67.6 0.00091
67.65 0.00115
67.7 0.00103
67.75 0.00045
67.8 0.00012
67.85 0.00013
67.9 -0.00042
67.95 -0.00095
68 -0.00143
68.05 -0.00131
68.1 -0.00121
68.15 -0.00059
68.2 0.00033
68.25 0.00122
68.3 0.00143
68.35 0.00078
68.4 0.00001
68.45 -0.00066
68.5 -0.00089
68.55 -0.00151
68.6 -0.002
68.65 -0.00271
68.7 -0.00264
68.75 -0.00266
68.8 -0.00306
68.85 -0.00328
68.9 -0.00277
68.95 -0.00219
69 -0.00179
69.05 -0.00132
69.1 -0.00038
69.15 0.00045
69.2 0.00132
69.25 0.0022
69.3 0.00216
69.35 0.00144
69.4 0.00132
69.45 0.0007
69.5 0.00021
69.55 -0.00065
69.6 -0.00147
69.65 -0.00168
69.7 -0.00148
69.75 -0.00152
69.8 -0.00124
69.85 -0.00058
69.9 0.00001
69.95 0.0002
70 0.00043
70.05 0.00055
70.1 0.00012
70.15 -0.00011
70.2 -0.00053
70.25 -0.00033
70.3 -0.00055
70.35 -0.00045
70.4 -0.00056
70.45 -0.00013
70.5 -0.00017
70.55 -0.00045
70.6 -0.00019
70.65 -0.00025
70.7 -0.00072
70.75 -0.00152
70.8 -0.00167
70.85 -0.00119
70.9 -0.00107
70.95 -0.00054
71 0.00008
71.05 0.00037
71.1 0.00054
71.15 0.00109
71.2 0.00104
71.25 0.00107
71.3 0.00098
71.35 0.00064
71.4 0.00022
71.45 -0.00054
71.5 -0.00149
71.55 -0.00223
71.6 -0.0028
71.65 -0.0031
71.7 -0.00333
71.75 -0.00271
71.8 -0.00151
71.85 -0.00014
71.9 0.00112
71.95 0.00209
72 0.00291
72.05 0.00266
72.1 0.00217
72.15 0.00108
72.2 -0.00006
72.25 -0.00092
72.3 -0.00124
72.35 -0.0016
72.4 -0.00198
72.45 -0.00261
72.5 -0.00271
72.55 -0.00311
72.6 -0.00288
72.65 -0.00216
72.7 -0.00143
72.75 -0.00094
72.8 -0.00055
72.85 0.00007
72.9 0.00004
72.95 0.00029
73 0.00079
73.05 0.00113
73.1 0.00179
73.15 0.0016
73.2 0.00178
73.25 0.00158
73.3 0.00127
73.35 0.00135
73.4 0.00166
73.45 0.00178
73.5 0.00146
73.55 0.0015
73.6 0.00079
73.65 -0.00019
73.7 -0.00105
73.75 -0.00197
73.8 -0.00209
73.85 -0.00149
73.9 -0.00123
73.95 -0.00138
74 -0.00089
74.05 -0.00023
74.1 0.00009
74.15 0.00003
74.2 -0.00046
74.25 -0.00046
74.3 -0.00022
74.35 -0.00027
74.4 -0.00025
74.45 0.00014
74.5 0.00002
74.55 -0.00043
74.6 -0.00038
74.65 -0.00031
74.7 0.00014
74.75 0.00068
74.8 0.00081
74.85 0.00073
74.9 0.0007
74.95 0.00097
75 0.00047
75.05 0.00002
75.1 -0.00065
75.15 -0.0005
75.2 -0.00013
75.25 0.00015
75.3 0.00003
75.35 0.00015
75.4 0.00046
75.45 0.00041
75.5 0.00075
75.55 0.0012
75.6 0.00176
75.65 0.00152
75.7 0.00153
75.75 0.00154
75.8 0.00186
75.85 0.00211
75.9 0.00169
75.95 0.00087
76 -0.00003
76.05 -0.00112
76.1 -0.00218
76.15 -0.00293
76.2 -0.00338
76.25 -0.0038
76.3 -0.00329
76.35 -0.00217
76.4 -0.00125
76.45 -0.00027
76.5 0.00035
76.55 0.00068
76.6 0.00045
76.65 0.00017
76.7 -0.00037
76.75 -0.00016
76.8 -0.00001
76.85 0.00019
76.9 -0.0001
76.95 -0.00039
77 -0.00106
77.05 -0.00158
77.1 -0.00188
77.15 -0.00175
77.2 -0.00208
77.25 -0.00162
77.3 -0.00124
77.35 -0.00068
77.4 -0.00065
77.45 -0.00027
77.5 0.00044
77.55 0.00057
77.6 0.00025
77.65 0.0005
77.7 0.0009
77.75 0.00068
77.8 0.00014
77.85 -0.00043
77.9 -0.00128
77.95 -0.00188
78 -0.00251
78.05 -0.00231
78.1 -0.0024
78.15 -0.00252
78.2 -0.0019
78.25 -0.00158
78.3 -0.00071
78.35 -0.00062
78.4 -0.00037
78.45 -0.00035
78.5 -0.00021
78.55 -0.00031
78.6 -0.00027
78.65 -0.00051
78.7 -0.00047
78.75 -0.00084
78.8 -0.00109
78.85 -0.00086
78.9 -0.00021
78.95 0.00067
79 0.00068
79.05 0.00097
79.1 0.00166
79.15 0.00226
79.2 0.00278
79.25 0.00319
79.3 0.00274
79.35 0.00228
79.4 0.00136
79.45 0.00028
79.5 -0.00037
79.55 -0.00107
79.6 -0.00085
79.65 -0.00036
79.7 0.00021
79.75 0.00028
79.8 0.00026
79.85 0.00007
79.9 -0.00016
79.95 -0.00002
80 0.00047
80.05 0.00087
80.1 0.00062
80.15 0.00009
80.2 -0.00004
80.25 -0.00022
80.3 -0.0004
80.35 0.00011
80.4 0.00101
80.45 0.00118
80.5 0.00111
80.55 0.0015
80.6 0.002
80.65 0.00238
80.7 0.00274
80.75 0.00219
80.8 0.00217
80.85 0.00183
80.9 0.00186
80.95 0.00121
81 0.00107
81.05 0.00085
81.1 0.00077
81.15 0.00093
81.2 0.00094
81.25 0.00115
81.3 0.00161
81.35 0.00152
81.4 0.00104
81.45 0.00049
81.5 0.00014
81.55 -0
81.6 0.00036
81.65 0.0004
81.7 0.00048
81.75 0.00091
81.8 0.00086
81.85 0.00027
81.9 0.00036
81.95 -0.00008
82 -0.00018
82.05 -0.00052
82.1 -0.00117
82.15 -0.00121
82.2 -0.00093
82.25 -0.00106
82.3 -0.00132
82.35 -0.00125
82.4 -0.00128
82.45 -0.00116
82.5 -0.00137
82.55 -0.00191
82.6 -0.0027
82.65 -0.00359
82.7 -0.00362
82.75 -0.00342
82.8 -0.00302
82.85 -0.00296
82.9 -0.00234
82.95 -0.00175
83 -0.00175
83.05 -0.00111
83.1 -0.00087
83.15 -0.00021
83.2 -0.00029
83.25 -0.0002
83.3 -0.00007
83.35 0.00056
83.4 0.0009
83.45 0.00105
83.5 0.00133
83.55 0.00196
83.6 0.00165
83.65 0.00105
83.7 0.00055
83.75 -0.00014
83.8 -0.00112
83.85 -0.00165
83.9 -0.00211
83.95 -0.00187
84 -0.00175
84.05 -0.00168
84.1 -0.00098
84.15 -0.00095
84.2 -0.00046
84.25 -0.00058
84.3 -0.00052
84.35 0.00015
84.4 0.00016
84.45 -0.00029
84.5 -0.00023
84.55 0.00001
84.6 0.00024
84.65 0.00039
84.7 0.00003
84.75 0.00005
84.8 0.00044
84.85 0.00082
84.9 0.00131
84.95 0.00167
85 0.00117
85.05 0.00121
85.1 0.00156
85.15 0.00156
85.2 0.00137
85.25 0.0016
85.3 0.0012
85.35 0.00095
85.4 0.00065
85.45 0.00022
85.5 -0.0003
85.55 -0.00021
85.6 -0.00041
85.65 -0.00023
85.7 0.00047
85.75 0.0003
85.8 -0.00013
85.85 -0.00025
85.9 0.00015
85.95 -0.00011
86 -0.00084
86.05 -0.00149
86.1 -0.00169
86.15 -0.00196
86.2 -0.00216
86.25 -0.00179
86.3 -0.00179
86.35 -0.00202
86.4 -0.00152
86.45 -0.00068
86.5 0.00018
86.55 0.00042
86.6 -0.00003
86.65 -0.00069
86.7 -0.00156
86.75 -0.00158
86.8 -0.00161
86.85 -0.00091
86.9 0.00012
86.95 0.00131
87 0.00176
87.05 0.00192
87.1 0.00176
87.15 0.00157
87.2 0.00122
87.25 0.00043
87.3 0.00022
87.35 0.00027
87.4 -0.00021
87.45 -0.00095
87.5 -0.00191
87.55 -0.00192
87.6 -0.00121
87.65 -0.00114
87.7 -0.00051
87.75 0.00023
87.8 0.00018
87.85 0.00073
87.9 0.00047
87.95 -0.00008
88 -0.00013
88.05 -0.00008
88.1 -0.00025
88.15 -0.00058
88.2 -0.00105
88.25 -0.0008
88.3 -0.00096
88.35 -0.00091
88.4 -0.00133
88.45 -0.00115
88.5 -0.00096
88.55 -0.00019
88.6 0.00055
88.65 0.00062
88.7 0.00082
88.75 0.00126
88.8 0.00167
88.85 0.00183
88.9 0.00173
88.95 0.00205
89 0.00262
89.05 0.00235
89.1 0.0015
89.15 0.00033
89.2 -0.00072
89.25 -0.00115
89.3 -0.00078
89.35 -0.00043
89.4 0.00024
89.45 0.00071
89.5 0.00066
89.55 0.00099
89.6 0.00156
89.65 0.00119
89.7 0.00132
89.75 0.00123
89.8 0.00133
89.85 0.00165
89.9 0.00184
89.95 0.00156
90 0.00102
90.05 0.00031
90.1 -0.00079
90.15 -0.00092
90.2 -0.00152
90.25 -0.00233
90.3 -0.003
90.35 -0.0032
90.4 -0.00253
90.45 -0.0016
90.5 -0.00078
90.55 0.00036
90.6 0.0011
90.65 0.00088
90.7 0.0003
90.75 -0.0006
90.8 -0.00129
90.85 -0.00127
90.9 -0.00126
90.95 -0.00166
91 -0.0015
91.05 -0.00144
91.1 -0.00079
91.15 0.00014
91.2 0.00107
91.25 0.00213
91.3 0.00255
91.35 0.00227
91.4 0.00228
91.45 0.0023
91.5 0.00209
91.55 0.00155
91.6 0.00136
91.65 0.00055
91.7 0.00005
91.75 -0.0009
91.8 -0.00111
91.85 -0.00161
91.9 -0.00179
91.95 -0.00154
92 -0.00151
92.05 -0.00091
92.1 0.00012
92.15 0.00014
92.2 0.00002
92.25 -0
92.3 0.00049
92.35 0.00097
92.4 0.00094
92.45 0.00069
92.5 0.00071
92.55 0.00048
92.6 0.00066
92.65 0.00063
92.7 0.0004
92.75 0.0002
92.8 0.00058
92.85 0.00131
92.9 0.00119
92.95 0.001
93 0.00058
93.05 0.00004
93.1 -0.0002
93.15 -0.00095
93.2 -0.00084
93.25 -0.00024
93.3 0.0007
93.35 0.00139
93.4 0.00192
93.45 0.00177
93.5 0.00174
93.55 0.001
93.6 0.0009
93.65 0.0013
93.7 0.00183
93.75 0.00237
93.8 0.00252
93.85 0.00222
93.9 0.00145
93.95 0.00061
94 0.00045
94.05 0.00076
94.1 0.00058
94.15 0.00012
94.2 -0.00058
94.25 -0.00157
94.3 -0.00206
94.35 -0.00227
94.4 -0.00274
94.45 -0.00272
94.5 -0.00308
94.55 -0.00301
94.6 -0.00326
94.65 -0.00294
94.7 -0.00311
94.75 -0.0026
94.8 -0.00246
94.85 -0.00239
94.9 -0.00175
94.95 -0.00122
95 -0.00062
95.05 -0.00008
95.1 0.00014
95.15 0.00026
95.2 0.0006
95.25 0.00028
95.3 -0.00038
95.35 -0.00106
95.4 -0.00125
95.45 -0.00157
95.5 -0.00192
95.55 -0.00161
95.6 -0.00086
95.65 -0.00069
95.7 -0.00055
95.75 0.00015
95.8 0.00064
95.85 0.00122
95.9 0.00091
95.95 0.0005
96 0.00055
96.05 0.00026
96.1 -0.00036
96.15 -0.00105
96.2 -0.00151
96.25 -0.00138
96.3 -0.0012
96.35 -0.00119
96.4 -0.00133
96.45 -0.00093
96.5 -0.00015
96.55 0.00009
96.6 0.00038
96.65 0.00057
96.7 0.00086
96.75 0.00049
96.8 0.00069
96.85 0.00089
96.9 0.00062
96.95 -0.00018
97 -0.00094
97.05 -0.00112
97.1 -0.00055
97.15 -0.00002
97.2 0.00016
97.25 0.00022
97.3 0.00002
97.35 -0.00036
97.4 -0.00052
97.45 -0.00118
97.5 -0.00107
97.55 -0.00143
97.6 -0.00184
97.65 -0.00152
97.7 -0.00098
97.75 -0.00071
97.8 -0.00068
97.85 -0.00026
97.9 0.00012
97.95 0.0005
98 0.00098
98.05 0.00118
98.1 0.00116
98.15 0.00057
98.2 -0.00045
98.25 -0.0008
98.3 -0.00131
98.35 -0.00183
98.4 -0.00149
98.45 -0.00112
98.5 -0.00055
98.55 0.00018
98.6 0.00081
98.65 0.00158
98.7 0.00177
98.75 0.00133
98.8 0.00129
98.85 0.00149
98.9 0.00175
98.95 0.00232
99 0.00293
99.05 0.00333
99.1 0.00294
99.15 0.00253
99.2 0.00174
99.25 0.00163
99.3 0.00125
99.35 0.00087
99.4 0.00064
99.45 0.00093
99.5 0.0012
99.55 0.00158
99.6 0.00217
99.65 0.00182
99.7 0.00133
99.75 0.00141
99.8 0.00084
99.85 0.00018
99.9 0.00004
99.95 -0.00065
