0 0
0.05 0.00036
0.1 0.00093
0.15 0.00127
0.2 0.00188
0.25 0.00242
0.3 0.00311
0.35 0.00351
0.4 0.00412
0.45 0.00482
0.5 0.00489
0.55 0.0047
0.6 0.0046
0.65 0.00432
0.7 0.00383
0.75 0.0032
0.8 0.00252
0.85 0.00204
0.9 0.0021
0.95 0.00239
1 0.00304
1.05 0.00338
1.1 0.00374
1.15 0.00397
1.2 0.00417
1.25 0.00441
1.3 0.00418
1.35 0.00431
1.4 0.00404
1.45 0.00394
1.5 0.0039
1.55 0.00375
1.6 0.0039
1.65 0.00408
1.7 0.00426
1.75 0.00407
1.8 0.00349
1.85 0.0027
1.9 0.00217
1.95 0.0016
2 0.00123
2.05 0.00092
2.1 0.00076
2.15 0.00078
2.2 0.00074
2.25 0.00061
2.3 0.00049
2.35 0.00075
2.4 0.00118
2.45 0.00123
2.5 0.00154
2.55 0.00156
2.6 0.00144
2.65 0.00128
2.7 0.00111
2.75 0.00094
2.8 0.00105
2.85 0.00149
2.9 0.00189
2.95 0.00205
3 0.00232
3.05 0.00215
3.1 0.00205
3.15 0.00177
3.2 0.00144
3.25 0.00108
3.3 0.00076
3.35 0.00082
3.4 0.00067
3.45 0.00104
3.5 0.00127
3.55 0.00172
3.6 0.00181
3.65 0.00169
3.7 0.0013
3.75 0.00112
3.8 0.00079
3.85 0.00031
3.9 0.0003
3.95 0.00018
4 0
4.05 0.00009
4.1 0.00006
4.15 -0.00002
4.2 0.00013
4.25 0.00033
4.3 0.00077
4.35 0.0011
4.4 0.00117
4.45 0.00111
4.5 0.00128
4.55 0.00116
4.6 0.00137
4.65 0.00125
4.7 0.00138
4.75 0.00134
4.8 0.00116
4.85 0.00122
4.9 0.00155
4.95 0.00165
5 0.0015
5.05 0.00143
5.1 0.00135
5.15 0.00144
5.2 0.00144
5.25 0.00167
5.3 0.00166
5.35 0.00128
5.4 0.00105
5.45 0.00118
5.5 0.00147
5.55 0.00196
5.6 0.00189
5.65 0.00177
5.7 0.00175
5.75 0.00149
5.8 0.00111
5.85 0.00098
5.9 0.00104
5.95 0.0009
6 0.00047
6.05 0.00011
6.1 -0.00018
6.15 0.0001
6.2 0.0004
6.25 0.00066
6.3 0.0005
6.35 0.00019
6.4 -0.00024
6.45 -0.00035
6.5 0.00006
6.55 0.00058
6.6 0.00097
6.65 0.00122
6.7 0.00129
6.75 0.00139
6.8 0.0017
6.85 0.00215
6.9 0.0023
6.95 0.00255
7 0.00292
7.05 0.00293
7.1 0.00252
7.15 0.00192
7.2 0.00135
7.25 0.00119
7.3 0.00072
7.35 0.00065
7.4 0.00097
7.45 0.00085
7.5 0.00082
7.55 0.00083
7.6 0.00079
7.65 0.00111
7.7 0.00103
7.75 0.00106
7.8 0.00112
7.85 0.00119
7.9 0.00147
7.95 0.00147
8 0.00121
8.05 0.00087
8.1 0.00082
8.15 0.00103
8.2 0.00113
8.25 0.00078
8.3 0.0003
8.35 -0.00028
8.4 -0.00036
8.45 -0.00007
8.5 0.00051
8.55 0.00118
8.6 0.00147
8.65 0.00121
8.7 0.00064
8.75 0.00054
8.8 0.00044
8.85 0.00015
8.9 -0.00004
8.95 -0.00037
9 -0.00018
9.05 -0.00026
9.1 -0.00007
9.15 0.00009
9.2 0.00007
9.25 0.00034
9.3 0.00085
9.35 0.00118
9.4 0.00154
9.45 0.00181
9.5 0.0022
9.55 0.00199
9.6 0.0014
9.65 0.00067
9.7 0.0005
9.75 0.00033
9.8 0.00031
9.85 0.00046
9.9 0.00061
9.95 0.00056
10 0.00066
10.05 0.00078
10.1 0.00114
10.15 0.00092
10.2 0.00108
10.25 0.0008
10.3 0.00066
10.35 0.00024
10.4 -0.00023
10.45 -0.00027
10.5 -0.00039
10.55 -0.00068
10.6 -0.00109
10.65 -0.00108
10.7 -0.00081
10.75 -0.00086
10.8 -0.00054
10.85 -0.00047
10.9 -0.0002
10.95 -0.00007
11 0.00012
11.05 0.00024
11.1 0.00031
11.15 0.00046
11.2 0.00049
11.25 0.00062
11.3 0.00031
11.35 0
11.4 -0.00033
11.45 -0.00033
11.5 -0.00047
11.55 -0.00054
11.6 -0.00055
11.65 -0.00043
11.7 -0.00029
11.75 -0.00028
11.8 -0.0004
11.85 -0.00042
11.9 -0.00029
11.95 0.00002
12 0.0003
12.05 0.00013
12.1 0.00009
12.15 -0.00019
12.2 -0.00008
12.25 -0.00027
12.3 -0.00023
12.35 -0.00038
12.4 -0.00015
12.45 -0.0001
12.5 0.00004
12.55 0.00043
12.6 0.00042
12.65 0.00062
12.7 0.00051
12.75 0.00023
12.8 0.00031
12.85 0.00019
12.9 0.00036
12.95 0.00034
13 -0.00005
13.05 -0.00032
13.1 -0.00038
13.15 -0.00068
13.2 -0.00065
13.25 -0.00065
13.3 -0.00044
13.35 -0.00004
13.4 0.00054
13.45 0.00109
13.5 0.00144
13.55 0.00161
13.6 0.00124
13.65 0.00073
13.7 0.00049
13.75 0.00021
13.8 0.00018
13.85 0.00009
13.9 -0.00019
13.95 -0.00007
14 -0.00002
14.05 0.00022
14.1 0.00064
14.15 0.00049
14.2 0.00023
14.25 0.00005
14.3 -0.00004
14.35 0.00025
14.4 0.00063
14.45 0.00063
14.5 0.00044
14.55 0.00055
14.6 0.00091
14.65 0.00079
14.7 0.00057
14.75 0.00035
14.8 0.00002
14.85 -0.00046
14.9 -0.00074
14.95 -0.00068
15 -0.00073
15.05 -0.00055
15.1 -0.00015
15.15 -0.00023
15.2 -0.0002
15.25 -0.00005
15.3 -0.00029
15.35 -0.00036
15.4 -0.00031
15.45 -0.00013
15.5 -0.00003
15.55 0.00012
15.6 0.00006
15.65 0.00005
15.7 0.00023
15.75 0.00024
15.8 -0.00015
15.85 -0.00019
15.9 -0.00006
15.95 -0.0003
16 -0.00065
16.05 -0.00082
16.1 -0.00087
16.15 -0.00095
16.2 -0.00092
16.25 -0.00116
16.3 -0.00122
16.35 -0.00136
16.4 -0.00144
16.45 -0.00104
16.5 -0.00097
16.55 -0.00107
16.6 -0.00092
16.65 -0.00103
16.7 -0.00134
16.75 -0.00164
16.8 -0.002
16.85 -0.00195
16.9 -0.00171
16.95 -0.00115
17 -0.00037
17.05 0.00028
17.1 0.00056
17.15 0.0006
17.2 0.00039
17.25 0.00057
17.3 0.0006
17.35 0.00086
17.4 0.0013
17.45 0.00142
17.5 0.00144
17.55 0.00142
17.6 0.00117
17.65 0.00092
17.7 0.00077
17.75 0.00075
17.8 0.00053
17.85 0.00051
17.9 0.00041
17.95 0.00064
18 0.0006
18.05 0.00042
18.1 0.00041
18.15 0.00063
18.2 0.00044
18.25 -0.00001
18.3 -0.00004
18.35 0.00013
18.4 0.00014
18.45 -0.00013
18.5 -0.00028
18.55 -0.00039
18.6 -0.00054
18.65 -0.00048
18.7 -0.00004
18.75 0
18.8 0.00026
18.85 0.00069
18.9 0.00056
18.95 0.00037
19 0.00023
19.05 0.00034
19.1 0.00024
19.15 -0.0001
19.2 -0.00021
19.25 -0.00044
19.3 -0.00031
19.35 0.00002
19.4 0.00022
19.45 0.00017
19.5 0.00045
19.55 0.00069
19.6 0.00055
19.65 0.00047
19.7 0.00066
19.75 0.00087
19.8 0.00099
19.85 0.00075
19.9 0.00021
19.95 -0.00006
20 -0.00043
20.05 -0.00053
20.1 -0.00033
20.15 -0.00017
20.2 -0.00002
20.25 0.00026
20.3 0.00053
20.35 0.00088
20.4 0.00096
20.45 0.00094
20.5 0.00073
20.55 0.00038
20.6 0.00038
20.65 0.00042
20.7 0.00048
20.75 0.00074
20.8 0.00068
20.85 0.00078
20.9 0.001
20.95 0.00122
21 0.00089
21.05 0.00063
21.1 0.00009
21.15 -0.00011
21.2 -0.0004
21.25 -0.00066
21.3 -0.00107
21.35 -0.00101
21.4 -0.00118
21.45 -0.00153
21.5 -0.00161
21.55 -0.00152
21.6 -0.00164
21.65 -0.00134
21.7 -0.00126
21.75 -0.00129
21.8 -0.00135
21.85 -0.00152
21.9 -0.00135
21.95 -0.00086
22 -0.00047
22.05 0.00018
22.1 0.00042
22.15 0.00043
22.2 0.00028
22.25 -0.00008
22.3 0.00004
22.35 0.00026
22.4 0.00048
22.45 0.00067
22.5 0.00099
22.55 0.0013
22.6 0.00141
22.65 0.00159
22.7 0.00124
22.75 0.00054
22.8 -0.00031
22.85 -0.00064
22.9 -0.00057
22.95 -0.00062
23 -0.00083
23.05 -0.00103
23.1 -0.00144
23.15 -0.00134
23.2 -0.0013
23.25 -0.00148
23.3 -0.00183
23.35 -0.00221
23.4 -0.0021
23.45 -0.00161
23.5 -0.00086
23.55 -0.0002
23.6 -0.00013
23.65 -0.00011
23.7 0.0002
23.75 0.00056
23.8 0.00045
23.85 0.00062
23.9 0.00044
23.95 -0.00006
24 -0.00008
24.05 0.00015
24.1 0.00063
24.15 0.00108
24.2 0.00101
24.25 0.0006
24.3 -0.00005
24.35 -0.00078
24.4 -0.00152
24.45 -0.00191
24.5 -0.00171
24.55 -0.00134
24.6 -0.00072
24.65 -0.00022
24.7 0.00005
24.75 0.00048
24.8 0.00075
24.85 0.00113
24.9 0.00157
24.95 0.00164
25 0.0019
25.05 0.00179
25.1 0.00181
25.15 0.00141
25.2 0.00071
25.25 0.00013
25.3 -0.0003
25.35 -0.00037
25.4 -0.00006
25.45 0.00039
25.5 0.00052
25.55 0.00048
25.6 0.00023
25.65 0.00033
25.7 0.00035
25.75 0.00002
25.8 -0.00008
25.85 0.00017
25.9 0.00016
25.95 0.0004
26 0.00052
26.05 0.00075
26.1 0.00099
26.15 0.00131
26.2 0.00124
26.25 0.00119
26.3 0.00086
26.35 0.00026
26.4 -0.00023
26.45 -0.00061
26.5 -0.00119
26.55 -0.00176
26.6 -0.00236
26.65 -0.00284
26.7 -0.00265
26.75 -0.00249
26.8 -0.00248
26.85 -0.00243
26.9 -0.0025
26.95 -0.00202
27 -0.00146
27.05 -0.00064
27.1 0.00025
27.15 0.00085
27.2 0.00103
27.25 0.00096
27.3 0.00108
27.35 0.00097
27.4 0.0006
27.45 0.0005
27.5 0.00055
27.55 0.00059
27.6 0.00083
27.65 0.00072
27.7 0.00025
27.75 0.00019
27.8 0.00015
27.85 0.00014
27.9 0.00009
27.95 -0.00024
28 -0.00046
28.05 -0.00031
28.1 -0.00018
28.15 -0.00037
28.2 -0.00034
28.25 -0.00005
28.3 0.00048
28.35 0.00062
28.4 0.00097
28.45 0.00089
28.5 0.00065
28.55 0.00042
28.6 0.00058
28.65 0.00026
28.7 0.00038
28.75 0.0006
28.8 0.0006
28.85 0.00033
28.9 0.00009
28.95 0.00007
29 0.00017
29.05 0.00001
29.1 -0.00026
29.15 -0.00025
29.2 -0.00027
29.25 -0.00034
29.3 -0.00043
29.35 -0.00016
29.4 -0
29.45 0.00031
29.5 0.00025
29.55 -0.00001
29.6 -0.00031
29.65 -0.00063
29.7 -0.00042
29.75 -0.00051
29.8 -0.00018
29.85 0.00036
29.9 0.00045
29.95 0.00049
30 0.00032
30.05 -0.00014
30.1 -0.00073
30.15 -0.00073
30.2 -0.00046
30.25 -0.00045
30.3 -0.00016
30.35 -0.00018
30.4 -0.00021
30.45 0.00011
30.5 -0.00004
30.55 -0.00035
30.6 -0.00022
30.65 -0.0002
30.7 -0.00039
30.75 -0.00049
30.8 -0.00023
30.85 0.00029
30.9 0.00068
30.95 0.0006
31 0.00032
31.05 0.00041
31.1 0.00017
31.15 0.00029
31.2 0.00003
31.25 -0.00012
31.3 -0.00026
31.35 -0.00007
31.4 0.00027
31.45 0.00056
31.5 0.00044
31.55 0.00026
31.6 0.00027
31.65 0.00046
31.7 0.00073
31.75 0.00116
31.8 0.0014
31.85 0.00175
31.9 0.00215
31.95 0.00189
32 0.00133
32.05 0.00075
32.1 0.00009
32.15 -0.00029
32.2 -0.00037
32.25 -0.00061
32.3 -0.00048
32.35 -0.00051
32.4 -0.00072
32.45 -0.00082
32.5 -0.00079
32.55 -0.00103
32.6 -0.00104
32.65 -0.00096
32.7 -0.00121
32.75 -0.001
32.8 -0.00114
32.85 -0.00115
32.9 -0.00119
32.95 -0.00147
33 -0.00149
33.05 -0.00168
33.1 -0.00156
33.15 -0.00124
33.2 -0.00114
33.25 -0.00071
33.3 -0.00015
33.35 0.00019
33.4 0.00066
33.45 0.00087
33.5 0.00126
33.55 0.00125
33.6 0.00091
33.65 0.00053
33.7 -0.00013
33.75 -0.00079
33.8 -0.00118
33.85 -0.00145
33.9 -0.00168
33.95 -0.00146
34 -0.00111
34.05 -0.00067
34.1 -0.00043
34.15 -0.00042
34.2 -0.00024
34.25 -0.00047
34.3 -0.00079
34.35 -0.00125
34.4 -0.00142
34.45 -0.00142
34.5 -0.00157
34.55 -0.0017
34.6 -0.00167
34.65 -0.00136
34.7 -0.0008
34.75 -0.00019
34.8 0.00045
34.85 0.00066
34.9 0.00059
34.95 0.00027
35 -0.00019
35.05 -0.00047
35.1 -0.00024
35.15 0.00026
35.2 0.00063
35.25 0.00064
35.3 0.00098
35.35 0.00078
35.4 0.0007
35.45 0.00028
35.5 0.00022
35.55 0.00036
35.6 0.0002
35.65 0.00026
35.7 0.00035
35.75 0.00023
35.8 -0.00016
35.85 -0.00048
35.9 -0.00042
35.95 -0.00044
36 -0.00072
36.05 -0.001
36.1 -0.00098
36.15 -0.00068
36.2 -0.00038
36.25 0.00004
36.3 0.00029
36.35 0.00049
36.4 0.00076
36.45 0.00081
36.5 0.00107
36.55 0.00151
36.6 0.00143
36.65 0.00111
36.7 0.00067
36.75 0.00051
36.8 0.00055
36.85 0.00065
36.9 0.00071
36.95 0.00069
37 0.00094
37.05 0.00117
37.1 0.00087
37.15 0.00059
37.2 0.00011
37.25 -0.00053
37.3 -0.00066
37.35 -0.00093
37.4 -0.00129
37.45 -0.00159
37.5 -0.00149
37.55 -0.00106
37.6 -0.00032
37.65 0.0003
37.7 0.00041
37.75 0.00036
37.8 0.0004
37.85 0.00035
37.9 0.00029
37.95 0.00031
38 0.00028
38.05 0.00018
38.1 -0.00021
38.15 -0.00079
38.2 -0.00127
38.25 -0.00128
38.3 -0.00141
38.35 -0.00106
38.4 -0.00077
38.45 -0.00037
38.5 -0.00016
38.55 0.00023
38.6 0.00034
38.65 0.00005
38.7 0.00021
38.75 0.00033
38.8 0.00013
38.85 -0.0002
38.9 -0.00038
38.95 -0.00027
39 -0.00026
39.05 -0.00034
39.1 -0.00055
39.15 -0.00091
39.2 -0.00078
39.25 -0.00083
39.3 -0.00085
39.35 -0.00044
39.4 0.00014
39.45 0.00078
39.5 0.00133
39.55 0.00189
39.6 0.0021
39.65 0.00229
39.7 0.0023
39.75 0.0023
39.8 0.00231
39.85 0.00175
39.9 0.00153
39.95 0.00105
40 0.00037
40.05 -0.00023
40.1 -0.00085
40.15 -0.00153
40.2 -0.00172
40.25 -0.00195
40.3 -0.00213
40.35 -0.0021
40.4 -0.00167
40.45 -0.00157
40.5 -0.00169
40.55 -0.00172
40.6 -0.00175
40.65 -0.0013
40.7 -0.00071
40.75 -0.00058
40.8 -0.00041
40.85 -0.00048
40.9 -0.00081
40.95 -0.00068
41 -0.00026
41.05 0.0001
41.1 0.0007
41.15 0.00126
41.2 0.00159
41.25 0.00142
41.3 0.00085
41.35 0.00029
41.4 -0.00018
41.45 -0.00017
41.5 -0.00044
41.55 -0.00082
41.6 -0.00113
41.65 -0.00085
41.7 -0.00052
41.75 -0.00041
41.8 -0.00052
41.85 -0.00056
41.9 -0.00015
41.95 0.00043
42 0.00092
42.05 0.00095
42.1 0.00056
42.15 -0.00002
42.2 -0.00048
42.25 -0.00064
42.3 -0.00056
42.35 -0.00027
42.4 -0.00023
42.45 0.00008
42.5 0.00004
42.55 0.00027
42.6 0.00005
42.65 -0.0004
42.7 -0.00087
42.75 -0.0012
42.8 -0.00141
42.85 -0.00163
42.9 -0.00138
42.95 -0.00134
43 -0.00104
43.05 -0.00097
43.1 -0.00084
43.15 -0.00064
43.2 -0.00038
43.25 -0.00026
43.3 -0.00001
43.35 -0.00003
43.4 0.00013
43.45 0.00046
43.5 0.00082
43.55 0.00136
43.6 0.00147
43.65 0.00154
43.7 0.00169
43.75 0.00189
43.8 0.00176
43.85 0.00163
43.9 0.00149
43.95 0.00123
44 0.00069
44.05 0.0006
44.1 0.00032
44.15 -0.00022
44.2 -0.00072
44.25 -0.00076
44.3 -0.00106
44.35 -0.00109
44.4 -0.00077
44.45 -0.00073
44.5 -0.00067
44.55 -0.00021
44.6 -0.00012
44.65 0.00001
44.7 0.00012
44.75 -0.00001
44.8 -0.00008
44.85 -0.00001
44.9 -0.00023
44.95 -0.00026
45 -0.00021
45.05 -0.00043
45.1 -0.00063
45.15 -0.00043
45.2 -0.00019
45.25 0.00011
45.3 0.00014
45.35 0.00035
45.4 0.00063
45.45 0.00115
45.5 0.00167
45.55 0.00163
45.6 0.00167
45.65 0.00141
45.7 0.00094
45.75 0.0005
45.8 0.0002
45.85 -0.00029
45.9 -0.00039
45.95 -0.00048
46 -0.00053
46.05 -0.00075
46.1 -0.00075
46.15 -0.00072
46.2 -0.00098
46.25 -0.00151
46.3 -0.002
46.35 -0.00267
46.4 -0.00305
46.45 -0.0035
46.5 -0.00441
46.55 -0.00557
46.6 -0.00703
46.65 -0.00867
46.7 -0.01019
46.75 -0.01177
46.8 -0.01374
46.85 -0.01617
46.9 -0.01906
46.95 -0.02222
47 -0.02546
47.05 -0.02919
47.1 -0.03327
47.15 -0.03771
47.2 -0.04271
47.25 -0.04835
47.3 -0.05392
47.35 -0.06028
47.4 -0.06728
47.45 -0.075
47.5 -0.08322
47.55 -0.09157
47.6 -0.10082
47.65 -0.11022
47.7 -0.12042
47.75 -0.1311
47.8 -0.14219
47.85 -0.15301
47.9 -0.16387
47.95 -0.17464
48 -0.18499
48.05 -0.19471
48.1 -0.20393
48.15 -0.2125
48.2 -0.22088
48.25 -0.22862
48.3 -0.23533
48.35 -0.24055
48.4 -0.24428
48.45 -0.24581
48.5 -0.24539
48.55 -0.243
48.6 -0.23901
48.65 -0.233
48.7 -0.22556
48.75 -0.21608
48.8 -0.20518
48.85 -0.19224
48.9 -0.17761
48.95 -0.16149
49 -0.14432
49.05 -0.12593
49.1 -0.10699
49.15 -0.08748
49.2 -0.06744
49.25 -0.04729
49.3 -0.02735
49.35 -0.00764
49.4 0.01147
49.45 0.03011
49.5 0.04807
49.55 0.06547
49.6 0.08149
49.65 0.09679
49.7 0.11055
49.75 0.12332
49.8 0.13504
49.85 0.14504
49.9 0.15372
49.95 0.1613
50 0.16802
50.05 0.17357
50.1 0.17805
50.15 0.18163
50.2 0.18464
50.25 0.18667
50.3 0.18797
50.35 0.18903
50.4 0.18961
50.45 0.18974
50.5 0.18961
50.55 0.18961
50.6 0.1892
50.65 0.18855
50.7 0.18804
50.75 0.18742
50.8 0.18701
50.85 0.18624
50.9 0.18552
50.95 0.18451
51 0.18301
51.05 0.18103
51.1 0.17913
51.15 0.17717
51.2 0.17467
51.25 0.17205
51.3 0.16903
51.35 0.16611
51.4 0.16311
51.45 0.15942
51.5 0.15586
51.55 0.15202
51.6 0.14756
51.65 0.14308
51.7 0.13842
51.75 0.13386
51.8 0.12967
51.85 0.12534
51.9 0.1205
51.95 0.1158
52 0.11127
52.05 0.10697
52.1 0.10242
52.15 0.09811
52.2 0.09355
52.25 0.08877
52.3 0.08397
52.35 0.07926
52.4 0.07444
52.45 0.06988
52.5 0.06521
52.55 0.06089
52.6 0.05686
52.65 0.0526
52.7 0.04882
52.75 0.04519
52.8 0.04165
52.85 0.03794
52.9 0.03426
52.95 0.03061
53 0.02725
53.05 0.02462
53.1 0.02188
53.15 0.01945
53.2 0.01718
53.25 0.01464
53.3 0.01221
53.35 0.01032
53.4 0.00828
53.45 0.00625
53.5 0.00454
53.55 0.00306
53.6 0.00178
53.65 0.00014
53.7 -0.00139
53.75 -0.00252
53.8 -0.00347
53.85 -0.00409
53.9 -0.00519
53.95 -0.00654
54 -0.00799
54.05 -0.00935
54.1 -0.01049
54.15 -0.0113
54.2 -0.0123
54.25 -0.01291
54.3 -0.0137
54.35 -0.01407
54.4 -0.01476
54.45 -0.01563
54.5 -0.0164
54.55 -0.01684
54.6 -0.01699
54.65 -0.0168
54.7 -0.01707
54.75 -0.0171
54.8 -0.01696
54.85 -0.01694
54.9 -0.01684
54.95 -0.0172
55 -0.01797
55.05 -0.01883
55.1 -0.01969
55.15 -0.02032
55.2 -0.02058
55.25 -0.02109
55.3 -0.02141
55.35 -0.02177
55.4 -0.02201
55.45 -0.02254
55.5 -0.02302
55.55 -0.0232
55.6 -0.02305
55.65 -0.02294
55.7 -0.02284
55.75 -0.02283
55.8 -0.02249
55.85 -0.02257
55.9 -0.02251
55.95 -0.02256
56 -0.02225
56.05 -0.02177
56.1 -0.02141
56.15 -0.02097
56.2 -0.02087
56.25 -0.02124
56.3 -0.02175
56.35 -0.02212
56.4 -0.02251
56.45 -0.02306
56.5 -0.02315
56.55 -0.02302
56.6 -0.02252
56.65 -0.02198
56.7 -0.02168
56.75 -0.02119
56.8 -0.02056
56.85 -0.02039
56.9 -0.02021
56.95 -0.02011
57 -0.02007
57.05 -0.02017
57.1 -0.02006
57.15 -0.0198
57.2 -0.01945
57.25 -0.01887
57.3 -0.01832
57.35 -0.01769
57.4 -0.01733
57.45 -0.01719
57.5 -0.01693
57.55 -0.01694
57.6 -0.01692
57.65 -0.01699
57.7 -0.01729
57.75 -0.01764
57.8 -0.01793
57.85 -0.01774
57.9 -0.01788
57.95 -0.01756
58 -0.0173
58.05 -0.01685
58.1 -0.01636
58.15 -0.01612
58.2 -0.01569
58.25 -0.01544
58.3 -0.01502
58.35 -0.01492
58.4 -0.01449
58.45 -0.01415
58.5 -0.01361
58.55 -0.01311
58.6 -0.01306
58.65 -0.01329
58.7 -0.01311
58.75 -0.01313
58.8 -0.01278
58.85 -0.01283
58.9 -0.01283
58.95 -0.01266
59 -0.01264
59.05 -0.01253
59.1 -0.01228
59.15 -0.01218
59.2 -0.01238
59.25 -0.01275
59.3 -0.01307
59.35 -0.01304
59.4 -0.01256
59.45 -0.01202
59.5 -0.01134
59.55 -0.01051
59.6 -0.00993
59.65 -0.00994
59.7 -0.0099
59.75 -0.00958
59.8 -0.00946
59.85 -0.00966
59.9 -0.00975
59.95 -0.00945
60 -0.0093
60.05 -0.00929
60.1 -0.00926
60.15 -0.00944
60.2 -0.00911
60.25 -0.00899
60.3 -0.00909
60.35 -0.00908
60.4 -0.00867
60.45 -0.00839
60.5 -0.00809
60.55 -0.00773
60.6 -0.00784
60.65 -0.00792
60.7 -0.00823
60.75 -0.00839
60.8 -0.00845
60.85 -0.00846
60.9 -0.00844
60.95 -0.0083
61 -0.00781
61.05 -0.00732
61.1 -0.00679
61.15 -0.0066
61.2 -0.00633
61.25 -0.0061
61.3 -0.00576
61.35 -0.00524
61.4 -0.00531
61.45 -0.00527
61.5 -0.00522
61.55 -0.00504
61.6 -0.00479
61.65 -0.0049
61.7 -0.00483
61.75 -0.00472
61.8 -0.00481
61.85 -0.00477
61.9 -0.00459
61.95 -0.00463
62 -0.00497
62.05 -0.00506
62.1 -0.00514
62.15 -0.00524
62.2 -0.0052
62.25 -0.0052
62.3 -0.00506
62.35 -0.00522
62.4 -0.00502
62.45 -0.00499
62.5 -0.00519
62.55 -0.00486
62.6 -0.00465
62.65 -0.00444
62.7 -0.0042
62.75 -0.00387
62.8 -0.00362
62.85 -0.0038
62.9 -0.00385
62.95 -0.00387
63 -0.00421
63.05 -0.00427
63.1 -0.00424
63.15 -0.00437
63.2 -0.00406
63.25 -0.00377
63.3 -0.00346
63.35 -0.00307
63.4 -0.00271
63.45 -0.00251
63.5 -0.00242
63.55 -0.00274
63.6 -0.00265
63.65 -0.00284
63.7 -0.00319
63.75 -0.00329
63.8 -0.00298
63.85 -0.0028
63.9 -0.00288
63.95 -0.00263
64 -0.00245
64.05 -0.00199
64.1 -0.0019
64.15 -0.0022
64.2 -0.00252
64.25 -0.0024
64.3 -0.00264
64.35 -0.00244
64.4 -0.00261
64.45 -0.00286
64.5 -0.00323
64.55 -0.0033
64.6 -0.00288
64.65 -0.00278
64.7 -0.00267
64.75 -0.00287
64.8 -0.0027
64.85 -0.00262
64.9 -0.00261
64.95 -0.00285
65 -0.00263
65.05 -0.00255
65.1 -0.00227
65.15 -0.00233
65.2 -0.00235
65.25 -0.00225
65.3 -0.00232
65.35 -0.00229
65.4 -0.00244
65.45 -0.00252
65.5 -0.00258
65.55 -0.00261
65.6 -0.00278
65.65 -0.00292
65.7 -0.00284
65.75 -0.00247
65.8 -0.00223
65.85 -0.00173
65.9 -0.00165
65.95 -0.00188
66 -0.00161
66.05 -0.00103
66.1 -0.00068
66.15 -0.0002
66.2 0.00028
66.25 0.00032
66.3 0.00008
66.35 0.00011
66.4 -0.00012
66.45 -0.00049
66.5 -0.00105
66.55 -0.00178
66.6 -0.00202
66.65 -0.00225
66.7 -0.0026
66.75 -0.00253
66.8 -0.00211
66.85 -0.00192
66.9 -0.00146
66.95 -0.00076
67 0.00004
67.05 0.00077
67.1 0.00102
67.15 0.00106
67.2 0.00067
67.25 0.00022
67.3 -0.00012
67.35 -0.00076
67.4 -0.00086
67.45 -0.00127
67.5 -0.00157
67.55 -0.00204
67.6 -0.00233
67.65 -0.0023
67.7 -0.00195
67.75 -0.00147
67.8 -0.00105
67.85 -0.0006
67.9 -0.00053
67.95 -0.00021
68 -0.00012
68.05 0.00004
68.1 0.00005
68.15 -0.00023
68.2 -0.00022
68.25 0.00007
68.3 0.00049
68.35 0.00062
68.4 0.00071
68.45 0.00085
68.5 0.00111
68.55 0.00103
68.6 0.00052
68.65 -0.00026
68.7 -0.00115
68.75 -0.00189
68.8 -0.00211
68.85 -0.00213
68.9 -0.00222
68.95 -0.00212
69 -0.00227
69.05 -0.00257
69.1 -0.00259
69.15 -0.00228
69.2 -0.0021
69.25 -0.00167
69.3 -0.00102
69.35 -0.00067
69.4 -0.00026
69.45 0.00033
69.5 0.00041
69.55 0.00018
69.6 0.00009
69.65 -0.00018
69.7 -0.00059
69.75 -0.00058
69.8 -0.00059
69.85 -0.00094
69.9 -0.00097
69.95 -0.00097
70 -0.00071
70.05 -0.00027
70.1 -0.00003
70.15 -0.00004
70.2 -0.00021
70.25 -0.00001
70.3 -0.00006
70.35 0.00021
70.4 0.0004
70.45 0.00021
70.5 -0.00019
70.55 -0.00071
70.6 -0.00086
70.65 -0.00067
70.7 -0.00026
70.75 0.00011
70.8 0.00038
70.85 0.00027
70.9 -0.00008
70.95 -0.0003
71 -0.00026
71.05 -0.00002
71.1 -0.00002
71.15 -0.0002
71.2 -0.0001
71.25 0.00006
71.3 0.00029
71.35 0.00076
71.4 0.00082
71.45 0.00092
71.5 0.00122
71.55 0.00123
71.6 0.0009
71.65 0.00023
71.7 0.00006
71.75 0.00013
71.8 0.00032
71.85 0.00059
71.9 0.00074
71.95 0.00107
72 0.00133
72.05 0.00133
72.1 0.00121
72.15 0.00135
72.2 0.00096
72.25 0.00066
72.3 0.00019
72.35 0.00011
72.4 -0.00034
72.45 -0.00095
72.5 -0.00107
72.55 -0.00134
72.6 -0.00122
72.65 -0.00092
72.7 -0.0006
72.75 -0.00036
72.8 -0.00004
72.85 0.00022
72.9 0.00001
72.95 -0.00045
73 -0.00068
73.05 -0.0005
73.1 -0.00058
73.15 -0.00081
73.2 -0.00094
73.25 -0.00085
73.3 -0.00058
73.35 -0.00029
73.4 0.00024
73.45 0.00024
73.5 0.00055
73.55 0.00068
73.6 0.00074
73.65 0.00094
73.7 0.00119
73.75 0.00123
73.8 0.00102
73.85 0.0009
73.9 0.00072
73.95 0.00017
74 -0.00008
74.05 -0.00039
74.1 -0.00048
74.15 -0.00063
74.2 -0.00043
74.25 -0.00008
74.3 0.00042
74.35 0.00043
74.4 0.00049
74.45 0.00019
74.5 0.00018
74.55 0.00038
74.6 0.00023
74.65 0.00045
74.7 0.00034
74.75 0.00031
74.8 0.00049
74.85 0.00068
74.9 0.00068
74.95 0.00027
75 0.00018
75.05 -0.00022
75.1 -0.0002
75.15 -0.00027
75.2 0.00001
75.25 0.0003
75.3 0.00026
75.35 -0.00015
75.4 -0.00021
75.45 0.00003
75.5 -0
75.55 0.00008
75.6 0.00002
75.65 -0.00023
75.7 -0.00068
75.75 -0.00076
75.8 -0.00049
75.85 -0.00013
75.9 -0.00019
75.95 -0.00022
76 -0.00025
76.05 0.00005
76.1 0.00046
76.15 0.00034
76.2 0.00032
76.25 0.00034
76.3 0.00045
76.35 0.00017
76.4 -0.00011
76.45 -0.00059
76.5 -0.00062
76.55 -0.00048
76.6 -0.00059
76.65 -0.00075
76.7 -0.00053
76.75 -0.00014
76.8 -0.00029
76.85 -0.00017
76.9 -0.00018
76.95 -0.00019
77 -0.0001
77.05 -0.00037
77.1 -0.00064
77.15 -0.00047
77.2 -0.00006
77.25 0.0003
77.3 0.00079
77.35 0.00125
77.4 0.00127
77.45 0.00104
77.5 0.00094
77.55 0.00063
77.6 0.0004
77.65 -0.00001
77.7 -0.00035
77.75 -0.00066
77.8 -0.00084
77.85 -0.00059
77.9 -0.00022
77.95 -0.00011
78 0.00019
78.05 0.00028
78.1 0.00013
78.15 -0.00007
78.2 -0.00029
78.25 -0.00016
78.3 0.00005
78.35 -0.00007
78.4 -0.00006
78.45 -0.00023
78.5 -0.00022
78.55 -0.0005
78.6 -0.0004
78.65 -0.00011
78.7 0.00031
78.75 0.0003
78.8 0.00027
78.85 0.00039
78.9 0.00007
78.95 0.0001
79 0.00041
79.05 0.00082
79.1 0.00088
79.15 0.00072
79.2 0.00047
79.25 0.00044
79.3 0.00045
79.35 0.00031
79.4 0.00024
79.45 0.00047
79.5 0.00033
79.55 0.00009
79.6 -0.00002
79.65 -0.00011
79.7 -0.00018
79.75 -0.00058
79.8 -0.00107
79.85 -0.00152
79.9 -0.00156
79.95 -0.00132
80 -0.00147
80.05 -0.00129
80.1 -0.00118
80.15 -0.00142
80.2 -0.00141
80.25 -0.0014
80.3 -0.00163
80.35 -0.00166
80.4 -0.00184
80.45 -0.00159
80.5 -0.00151
80.55 -0.00111
80.6 -0.00058
80.65 -0.00051
80.7 -0.00009
80.75 0.00022
80.8 0.00016
80.85 0.0004
80.9 0.00086
80.95 0.00131
81 0.00149
81.05 0.0012
81.1 0.00113
81.15 0.00107
81.2 0.001
81.25 0.00098
81.3 0.0009
81.35 0.001
81.4 0.00101
81.45 0.00063
81.5 0.00022
81.55 0.00007
81.6 -0.00027
81.65 -0.00044
81.7 -0.00077
81.75 -0.00122
81.8 -0.00153
81.85 -0.00185
81.9 -0.00207
81.95 -0.00202
82 -0.00222
82.05 -0.00199
82.1 -0.00186
82.15 -0.00149
82.2 -0.00123
82.25 -0.00119
82.3 -0.00081
82.35 -0.00024
82.4 0.0004
82.45 0.0006
82.5 0.00047
82.55 0.00024
82.6 0.00039
82.65 0.0004
82.7 0.00049
82.75 0.00065
82.8 0.00081
82.85 0.00115
82.9 0.0015
82.95 0.00144
83 0.00154
83.05 0.00176
83.1 0.00157
83.15 0.00125
83.2 0.00096
83.25 0.00063
83.3 0.00023
83.35 -0.00008
83.4 -0.00065
83.45 -0.00118
83.5 -0.00109
83.55 -0.00088
83.6 -0.0008
83.65 -0.00106
83.7 -0.00142
83.75 -0.00129
83.8 -0.00114
83.85 -0.0011
83.9 -0.00122
83.95 -0.00093
84 -0.00033
84.05 0.00004
84.1 0.00032
84.15 0.00013
84.2 0.00005
84.25 -0.00018
84.3 -0.00058
84.35 -0.00074
84.4 -0.00052
84.45 -0.00036
84.5 -0.0001
84.55 0.00005
84.6 0.0002
84.65 0.00044
84.7 0.00088
84.75 0.0009
84.8 0.00087
84.85 0.00085
84.9 0.0008
84.95 0.0008
85 0.00067
85.05 0.00071
85.1 0.00037
85.15 -0.00017
85.2 -0.00087
85.25 -0.00096
85.3 -0.00075
85.35 -0.00021
85.4 0.00017
85.45 0.00063
85.5 0.00115
85.55 0.00133
85.6 0.00136
85.65 0.00156
85.7 0.0012
85.75 0.00119
85.8 0.00088
85.85 0.00025
85.9 0.00007
85.95 -0.00028
86 -0.00059
86.05 -0.00059
86.1 -0.0009
86.15 -0.00128
86.2 -0.0011
86.25 -0.00084
86.3 -0.00064
86.35 -0.00029
86.4 0.00015
86.45 0.00033
86.5 0.00002
86.55 -0.00037
86.6 -0.00027
86.65 -0.00023
86.7 0.00012
86.75 -0.00007
86.8 -0.00052
86.85 -0.00055
86.9 -0.00053
86.95 -0.00084
87 -0.00068
87.05 -0.0005
87.1 -0.00051
87.15 -0.00038
87.2 -0.00044
87.25 -0.00056
87.3 -0.00094
87.35 -0.0009
87.4 -0.00103
87.45 -0.00084
87.5 -0.0004
87.55 -0.00027
87.6 -0.00032
87.65 -0.00066
87.7 -0.00091
87.75 -0.00084
87.8 -0.00073
87.85 -0.00026
87.9 0.00036
87.95 0.00063
88 0.0007
88.05 0.00045
88.1 0.00027
88.15 -0.00007
88.2 -0.00024
88.25 -0.00024
88.3 -0.00003
88.35 0.00031
88.4 0.00021
88.45 -0.00022
88.5 -0.00034
88.55 -0.0005
88.6 -0.0009
88.65 -0.0011
88.7 -0.00104
88.75 -0.00076
88.8 -0.00019
88.85 -0.0001
88.9 -0.00026
88.95 -0.00061
89 -0.00066
89.05 -0.00036
89.1 -0.00032
89.15 0.00005
89.2 -0.00003
89.25 -0.00015
89.3 0
89.35 0.00025
89.4 0.00072
89.45 0.00085
89.5 0.00061
89.55 0.00019
89.6 -0.00011
89.65 -0.00032
89.7 -0.00068
89.75 -0.00077
89.8 -0.00042
89.85 -0.00004
89.9 0.00001
89.95 -0.00004
90 0.00003
90.05 0.00018
90.1 0.00015
90.15 0.00003
90.2 -0.00039
90.25 -0.00075
90.3 -0.00105
90.35 -0.00096
90.4 -0.00118
90.45 -0.00092
90.5 -0.00057
90.55 -0.00013
90.6 0.00028
90.65 0.00049
90.7 0.00027
90.75 -0.0001
90.8 -0.00012
90.85 -0.00008
90.9 -0.00004
90.95 -0.00018
91 -0.0003
91.05 -0.0005
91.1 -0.00082
91.15 -0.00063
91.2 -0.00014
91.25 -0.00004
91.3 0.00033
91.35 0.00047
91.4 0.00021
91.45 0.00036
91.5 0.00054
91.55 0.00091
91.6 0.00102
91.65 0.00117
91.7 0.00105
91.75 0.00073
91.8 0.00031
91.85 -0.00027
91.9 -0.00041
91.95 -0.00069
92 -0.00069
92.05 -0.00036
92.1 -0.00036
92.15 -0
92.2 -0.00003
92.25 0.00007
92.3 -0.00021
92.35 -0.00033
92.4 -0.00072
92.45 -0.00119
92.5 -0.0013
92.55 -0.00135
92.6 -0.00108
92.65 -0.00072
92.7 -0.00072
92.75 -0.00088
92.8 -0.00101
92.85 -0.00101
92.9 -0.00083
92.95 -0.00036
93 0.00011
93.05 0.00061
93.1 0.00098
93.15 0.00123
93.2 0.00147
93.25 0.0016
93.3 0.00171
93.35 0.00198
93.4 0.00214
93.45 0.0023
93.5 0.00213
93.55 0.00204
93.6 0.00208
93.65 0.00211
93.7 0.00165
93.75 0.00135
93.8 0.00089
93.85 0.00033
93.9 -0.00037
93.95 -0.00092
94 -0.001
94.05 -0.00095
94.1 -0.00054
94.15 -0.00029
94.2 -0.00043
94.25 -0.00021
94.3 -0.00042
94.35 -0.00081
94.4 -0.00079
94.45 -0.00084
94.5 -0.00088
94.55 -0.00057
94.6 -0.00038
94.65 -0.00014
94.7 -0.00036
94.75 -0.00043
94.8 -0.0008
94.85 -0.00065
94.9 -0.00081
94.95 -0.00098
95 -0.00081
95.05 -0.0005
95.1 -0.00016
95.15 0.00022
95.2 0.00072
95.25 0.00094
95.3 0.00132
95.35 0.00147
95.4 0.0011
95.45 0.00087
95.5 0.00089
95.55 0.00115
95.6 0.00148
95.65 0.00143
95.7 0.00104
95.75 0.00054
95.8 0.00046
95.85 -0
95.9 -0.00012
95.95 -0.00046
96 -0.0006
96.05 -0.00031
96.1 0.00025
96.15 0.00068
96.2 0.00056
96.25 0.00062
96.3 0.00023
96.35 0.00022
96.4 0.00034
96.45 0.00005
96.5 -0.00003
96.55 0.00017
96.6 0
96.65 -0.00021
96.7 -0.00021
96.75 -0.00053
96.8 -0.00046
96.85 -0.00025
96.9 -0.00008
96.95 0.0003
97 0.00084
97.05 0.00135
97.1 0.00135
97.15 0.00087
97.2 0.00009
97.25 -0.00022
97.3 -0.0004
97.35 -0.00073
97.4 -0.00123
97.45 -0.00155
97.5 -0.00132
97.55 -0.00077
97.6 -0.00008
97.65 0.00066
97.7 0.00107
97.75 0.00139
97.8 0.00167
97.85 0.00203
97.9 0.00221
97.95 0.00235
98 0.00217
98.05 0.00202
98.1 0.00148
98.15 0.00083
98.2 0.00029
98.25 0.00004
98.3 0.00019
98.35 0.00023
98.4 0.00036
98.45 0.00005
98.5 -0.00009
98.55 -0.00013
98.6 -0.0003
98.65 -0.00078
98.7 -0.00083
98.75 -0.00119
98.8 -0.00172
98.85 -0.0019
98.9 -0.0022
98.95 -0.00234
99 -0.00252
99.05 -0.00215
99.1 -0.00188
99.15 -0.00141
99.2 -0.00129
99.25 -0.00088
99.3 -0.00046
99.35 -0.00049
99.4 -0.00013
99.45 0.00005
99.5 0.00019
99.55 0.00045
99.6 0.00028
99.65 -0.00007
99.7 -0.00055
99.75 -0.0007
99.8 -0.00092
99.85 -0.00109
99.9 -0.0013
99.95 -0.00167
