0 0
0.05 0.00101
0.1 0.00269
0.15 0.00372
0.2 0.00502
0.25 0.0063
0.3 0.00673
0.35 0.00749
0.4 0.00792
0.45 0.00794
0.5 0.00759
0.55 0.00797
0.6 0.00778
0.65 0.00803
0.7 0.00841
0.75 0.00828
0.8 0.00749
0.85 0.00668
0.9 0.00693
0.95 0.00678
1 0.00646
1.05 0.00699
1.1 0.00683
1.15 0.00718
1.2 0.00755
1.25 0.00829
1.3 0.00798
1.35 0.00768
1.4 0.00691
1.45 0.00656
1.5 0.00663
1.55 0.00605
1.6 0.00504
1.65 0.00522
1.7 0.0056
1.75 0.00528
1.8 0.00458
1.85 0.00356
1.9 0.00267
1.95 0.00276
2 0.00386
2.05 0.00499
2.1 0.00606
2.15 0.00626
2.2 0.00682
2.25 0.00627
2.3 0.00641
2.35 0.00686
2.4 0.00778
2.45 0.00751
2.5 0.00707
2.55 0.00644
2.6 0.00646
2.65 0.00677
2.7 0.00654
2.75 0.00651
2.8 0.00608
2.85 0.00631
2.9 0.00657
2.95 0.00617
3 0.00525
3.05 0.00467
3.1 0.00391
3.15 0.00377
3.2 0.00446
3.25 0.00492
3.3 0.00521
3.35 0.00467
3.4 0.00481
3.45 0.00473
3.5 0.00385
3.55 0.00285
3.6 0.00246
3.65 0.00194
3.7 0.00185
3.75 0.00117
3.8 0.00015
3.85 -0.00062
3.9 -0.00004
3.95 0.00097
4 0.00179
4.05 0.00285
4.1 0.00426
4.15 0.00502
4.2 0.00506
4.25 0.00556
4.3 0.00584
4.35 0.00519
4.4 0.00529
4.45 0.00539
4.5 0.00575
4.55 0.00493
4.6 0.00396
4.65 0.00257
4.7 0.00239
4.75 0.00268
4.8 0.00336
4.85 0.00447
4.9 0.0045
4.95 0.0037
5 0.00271
5.05 0.0026
5.1 0.00302
5.15 0.00269
5.2 0.00252
5.25 0.002
5.3 0.00174
5.35 0.00085
5.4 0.0005
5.45 0.00043
5.5 0.001
5.55 0.00062
5.6 -0.00014
5.65 -0.00024
5.7 -0.00056
5.75 -0.00098
5.8 -0.00047
5.85 -0.00058
5.9 -0.00017
5.95 -0.00036
6 -0.00065
6.05 -0.00099
6.1 -0.00093
6.15 -0.00011
6.2 0.0014
6.25 0.00293
6.3 0.00461
6.35 0.00465
6.4 0.00514
6.45 0.00533
6.5 0.00537
6.55 0.00448
6.6 0.00296
6.65 0.00161
6.7 0.00091
6.75 -0.00007
6.8 0.00018
6.85 -0.00016
6.9 -0.00058
6.95 -0.00024
7 0.00051
7.05 0.00039
7.1 0.00033
7.15 0.00015
7.2 -0.00002
7.25 -0.00075
7.3 -0.00123
7.35 -0.00209
7.4 -0.00247
7.45 -0.00272
7.5 -0.00305
7.55 -0.00363
7.6 -0.00338
7.65 -0.00208
7.7 -0.00064
7.75 -0.00007
7.8 0.00033
7.85 -0.00008
7.9 -0.00063
7.95 -0.00082
8 -0.00112
8.05 -0.00151
8.1 -0.0012
8.15 -0.00152
8.2 -0.00095
8.25 -0.00009
8.3 0.00116
8.35 0.00121
8.4 0.00093
8.45 0.00134
8.5 0.00157
8.55 0.00232
8.6 0.00252
8.65 0.00317
8.7 0.0038
8.75 0.00414
8.8 0.00431
8.85 0.00478
8.9 0.00451
8.95 0.00491
9 0.00484
9.05 0.00379
9.1 0.00311
9.15 0.00202
9.2 0.00208
9.25 0.00161
9.3 0.00113
9.35 0.00075
9.4 0.00004
9.45 -0.00085
9.5 -0.00064
9.55 -0.0011
9.6 -0.00044
9.65 -0.00042
9.7 0.0002
9.75 0.00055
9.8 0.00071
9.85 0.00111
9.9 0.00123
9.95 0.00191
10 0.00164
10.05 0.00174
10.1 0.00195
10.15 0.00119
10.2 0.00065
10.25 0.00059
10.3 0.00076
10.35 0.00067
10.4 0.00102
10.45 0.00076
10.5 0.00064
10.55 0.00085
10.6 0.00097
10.65 0.00125
10.7 0.00066
10.75 -0.00024
10.8 -0.00023
10.85 -0.00033
10.9 0.00037
10.95 0.00171
11 0.00217
11.05 0.00271
11.1 0.00318
11.15 0.00281
11.2 0.00267
11.25 0.00327
11.3 0.00263
11.35 0.00259
11.4 0.00206
11.45 0.00172
11.5 0.00157
11.55 0.00216
11.6 0.00294
11.65 0.00286
11.7 0.00289
11.75 0.0019
11.8 0.00066
11.85 -0.00036
11.9 -0.00064
11.95 -0.00113
12 -0.00107
12.05 -0.0014
12.1 -0.00156
12.15 -0.00083
12.2 -0.00038
12.25 -0.00088
12.3 -0.00058
12.35 -0.00017
12.4 -0.00053
12.45 -0.0001
12.5 -0.00048
12.55 0.00004
12.6 0.00113
12.65 0.00193
12.7 0.00291
12.75 0.00302
12.8 0.00294
12.85 0.00223
12.9 0.00134
12.95 -0.00002
13 -0.00037
13.05 -0.00112
13.1 -0.00113
13.15 -0.00155
13.2 -0.00143
13.25 -0.00079
13.3 -0.00057
13.35 0.00016
13.4 0.00019
13.45 0.00094
13.5 0.00211
13.55 0.00309
13.6 0.00349
13.65 0.00271
13.7 0.00206
13.75 0.00206
13.8 0.0017
13.85 0.00103
13.9 0.00056
13.95 0.00106
14 0.00135
14.05 0.00199
14.1 0.00171
14.15 0.00196
14.2 0.00147
14.25 0.00049
14.3 0.00011
14.35 -0.00016
14.4 -0.00086
14.45 -0.00083
14.5 -0
14.55 0.00004
14.6 0.00021
14.65 -0.00004
14.7 -0.00043
14.75 -0.00037
14.8 -0.00087
14.85 -0.00065
14.9 -0.00126
14.95 -0.00242
15 -0.00361
15.05 -0.00411
15.1 -0.00413
15.15 -0.00374
15.2 -0.00327
15.25 -0.00194
15.3 -0.00128
15.35 -0.00119
15.4 -0.00124
15.45 -0.00089
15.5 -0.00074
15.55 -0.0011
15.6 -0.00194
15.65 -0.00159
15.7 -0.00059
15.75 -0.00041
15.8 0.00001
15.85 0.00112
15.9 0.00208
15.95 0.00272
16 0.00373
16.05 0.00458
16.1 0.00414
16.15 0.00299
16.2 0.00159
16.25 0.00094
16.3 0.00121
16.35 0.00128
16.4 0.00193
16.45 0.00285
16.5 0.00379
16.55 0.00461
16.6 0.00413
16.65 0.00291
16.7 0.00118
16.75 -0.0001
16.8 -0.00105
16.85 -0.00081
16.9 -0.00042
16.95 -0.0009
17 -0.00145
17.05 -0.0016
17.1 -0.00088
17.15 -0.00009
17.2 0.0002
17.25 0.00056
17.3 0.0015
17.35 0.00184
17.4 0.00125
17.45 0.0015
17.5 0.00234
17.55 0.00285
17.6 0.00292
17.65 0.0034
17.7 0.00316
17.75 0.00208
17.8 0.00164
17.85 0.00193
17.9 0.00125
17.95 0.00145
18 0.00071
18.05 0.00063
18.1 0.00121
18.15 0.00218
18.2 0.0024
18.25 0.00302
18.3 0.00286
18.35 0.00207
18.4 0.00129
18.45 0.00056
18.5 -0.00008
18.55 -0.00087
18.6 -0.00129
18.65 -0.00112
18.7 -0.00157
18.75 -0.00212
18.8 -0.00266
18.85 -0.00243
18.9 -0.00214
18.95 -0.00132
19 -0.00008
19.05 0.00141
19.1 0.00279
19.15 0.00262
19.2 0.0024
19.25 0.0022
19.3 0.00156
19.35 0.00165
19.4 0.00166
19.45 0.00184
19.5 0.00239
19.55 0.00295
19.6 0.00356
19.65 0.00281
19.7 0.00282
19.75 0.0031
19.8 0.00362
19.85 0.00356
19.9 0.00352
19.95 0.00356
20 0.00249
20.05 0.00144
20.1 0.00092
20.15 -0.00038
20.2 -0.00181
20.25 -0.00212
20.3 -0.00222
20.35 -0.00241
20.4 -0.00226
20.45 -0.00223
20.5 -0.0015
20.55 -0.00169
20.6 -0.00235
20.65 -0.00272
20.7 -0.0027
20.75 -0.00188
20.8 -0.00197
20.85 -0.0018
20.9 -0.00139
20.95 -0.0009
21 -0.00004
21.05 0.00039
21.1 0.0007
21.15 0.00134
21.2 0.00152
21.25 0.0007
21.3 -0.00063
21.35 -0.00197
21.4 -0.00322
21.45 -0.00326
21.5 -0.00381
21.55 -0.00432
21.6 -0.00363
21.65 -0.00314
21.7 -0.00293
21.75 -0.00222
21.8 -0.00223
21.85 -0.00181
21.9 -0.00189
21.95 -0.00133
22 -0.00036
22.05 0.00075
22.1 0.00082
22.15 0.00145
22.2 0.00169
22.25 0.00172
22.3 0.00159
22.35 0.00123
22.4 0.00063
22.45 -0.00074
22.5 -0.00181
22.55 -0.00205
22.6 -0.00184
22.65 -0.00241
22.7 -0.00273
22.75 -0.00205
22.8 -0.00205
22.85 -0.0024
22.9 -0.00173
22.95 -0.00061
23 -0.00048
23.05 -0.00023
23.1 -0.0003
23.15 -0.00084
23.2 -0.00097
23.25 -0.00177
23.3 -0.00198
23.35 -0.0015
23.4 -0.0018
23.45 -0.00168
23.5 -0.00131
23.55 -0.00106
23.6 -0.00051
23.65 0.00038
23.7 0.00017
23.75 0.00063
23.8 0.00007
23.85 0.00051
23.9 0.00079
23.95 0.00135
24 0.00195
24.05 0.00148
24.1 0.00062
24.15 -0.00076
24.2 -0.00246
24.25 -0.00306
24.3 -0.00391
24.35 -0.00367
24.4 -0.00274
24.45 -0.0024
24.5 -0.00158
24.55 -0.00103
24.6 -0.00002
24.65 -0.00012
24.7 0.00016
24.75 -0.00028
24.8 -0.00133
24.85 -0.00113
24.9 -0.00016
24.95 0.0003
25 0.00103
25.05 0.00086
25.1 0.00004
25.15 -0.00109
25.2 -0.00178
25.25 -0.00254
25.3 -0.00285
25.35 -0.00296
25.4 -0.00332
25.45 -0.00272
25.5 -0.00219
25.55 -0.00219
25.6 -0.0025
25.65 -0.00287
25.7 -0.00231
25.75 -0.00175
25.8 -0.00099
25.85 -0.00056
25.9 -0.00007
25.95 0.00054
26 0.00165
26.05 0.00308
26.1 0.00324
26.15 0.00238
26.2 0.00238
26.25 0.00177
26.3 0.00105
26.35 0.00109
26.4 0.0015
26.45 0.0019
26.5 0.00217
26.55 0.00253
26.6 0.00277
26.65 0.00188
26.7 0.00055
26.75 -0.00051
26.8 -0.00072
26.85 0.00002
26.9 0.00121
26.95 0.00202
27 0.00229
27.05 0.00142
27.1 0.00157
27.15 0.00066
27.2 0.00042
27.25 0.0007
27.3 0.00141
27.35 0.00156
27.4 0.00095
27.45 0.00047
27.5 0.00004
27.55 0.00013
27.6 -0.00002
27.65 -0.00042
27.7 -0.00133
27.75 -0.00164
27.8 -0.00236
27.85 -0.00334
27.9 -0.00361
27.95 -0.00322
28 -0.0025
28.05 -0.00154
28.1 -0.00007
28.15 0.00155
28.2 0.00271
28.25 0.00403
28.3 0.00462
28.35 0.00503
28.4 0.00469
28.45 0.00432
28.5 0.00282
28.55 0.0011
28.6 0.00027
28.65 -0.00037
28.7 -0.00022
28.75 0.00002
28.8 -0.00016
28.85 -0.00027
28.9 -0.00071
28.95 -0.00051
29 -0.00006
29.05 -0.00023
29.1 -0.0008
29.15 -0.00201
29.2 -0.00222
29.25 -0.00249
29.3 -0.00254
29.35 -0.00265
29.4 -0.00335
29.45 -0.00411
29.5 -0.00378
29.55 -0.00355
29.6 -0.00284
29.65 -0.00238
29.7 -0.00169
29.75 -0.0003
29.8 0.00041
29.85 0.00083
29.9 0.00166
29.95 0.00155
30 0.002
30.05 0.00186
30.1 0.00235
30.15 0.00194
30.2 0.00148
30.25 0.00043
30.3 0.00052
30.35 0.0009
30.4 0.00129
30.45 0.00124
30.5 0.00035
30.55 -0.00067
30.6 -0.00163
30.65 -0.00131
30.7 -0.00018
30.75 0.00034
30.8 -0.00004
30.85 -0.00005
30.9 0.00034
30.95 0.00011
31 0.00073
31.05 0.001
31.1 0.00041
31.15 0.00042
31.2 0.00012
31.25 -0.00066
31.3 -0.00123
31.35 -0.00163
31.4 -0.00213
31.45 -0.00252
31.5 -0.0027
31.55 -0.00177
31.6 -0.00093
31.65 0.00009
31.7 0.00087
31.75 0.00091
31.8 0.00095
31.85 0.001
31.9 0.00057
31.95 -0.00063
32 -0.00086
32.05 -0.00131
32.1 -0.00157
32.15 -0.00114
32.2 -0.00133
32.25 -0.0017
32.3 -0.00223
32.35 -0.00299
32.4 -0.00343
32.45 -0.00389
32.5 -0.00389
32.55 -0.00435
32.6 -0.00435
32.65 -0.00391
32.7 -0.00372
32.75 -0.00374
32.8 -0.00257
32.85 -0.0022
32.9 -0.00256
32.95 -0.00262
33 -0.00273
33.05 -0.00262
33.1 -0.00306
33.15 -0.00314
33.2 -0.00263
33.25 -0.00236
33.3 -0.00166
33.35 -0.00046
33.4 0.0012
33.45 0.00234
33.5 0.00276
33.55 0.00323
33.6 0.00308
33.65 0.00206
33.7 0.00132
33.75 0.00003
33.8 -0.00029
33.85 -0.00011
33.9 -0.00038
33.95 -0.00074
34 -0.00089
34.05 -0.0013
34.1 -0.00207
34.15 -0.00195
34.2 -0.00154
34.25 -0.0008
34.3 0.00061
34.35 0.00201
34.4 0.00242
34.45 0.00277
34.5 0.002
34.55 0.00071
34.6 0.00022
34.65 0.00071
34.7 0.00132
34.75 0.00137
34.8 0.00212
34.85 0.00319
34.9 0.00289
34.95 0.00318
35 0.00239
35.05 0.00115
35.1 0.00071
35.15 0.00107
35.2 0.00167
35.25 0.0013
35.3 0.00154
35.35 0.00187
35.4 0.00134
35.45 0.00036
35.5 -0.00079
35.55 -0.00092
35.6 -0.00171
35.65 -0.00247
35.7 -0.0036
35.75 -0.0042
35.8 -0.00371
35.85 -0.00275
35.9 -0.00109
35.95 0.0009
36 0.00201
36.05 0.00235
36.1 0.00243
36.15 0.00314
36.2 0.00265
36.25 0.00268
36.3 0.00252
36.35 0.00197
36.4 0.00123
36.45 0.00103
36.5 0.00111
36.55 0.00167
36.6 0.00268
36.65 0.0037
36.7 0.00474
36.75 0.005
36.8 0.00509
36.85 0.00521
36.9 0.00494
36.95 0.0038
37 0.00335
37.05 0.00272
37.1 0.0013
37.15 -0.00032
37.2 -0.00187
37.25 -0.00245
37.3 -0.00229
37.35 -0.00264
37.4 -0.00184
37.45 -0.00108
37.5 -0.0003
37.55 0.00045
37.6 0.00025
37.65 0.00024
37.7 0.00027
37.75 -0.00059
37.8 -0.0005
37.85 -0.00078
37.9 -0.00141
37.95 -0.00139
38 -0.00194
38.05 -0.00302
38.1 -0.00403
38.15 -0.00398
38.2 -0.00435
38.25 -0.00342
38.3 -0.00294
38.35 -0.00306
38.4 -0.00367
38.45 -0.00401
38.5 -0.00355
38.55 -0.00267
38.6 -0.00148
38.65 -0.00114
38.7 -0.00101
38.75 -0.00124
38.8 -0.00074
38.85 -0.0006
38.9 -0.00015
38.95 0.00021
39 0.00072
39.05 0.00145
39.1 0.00185
39.15 0.00145
39.2 0.00052
39.25 0.00011
39.3 -0.00083
39.35 -0.0013
39.4 -0.00123
39.45 -0.00035
39.5 0.00024
39.55 0.00003
39.6 0.00019
39.65 0.00063
39.7 0.00068
39.75 0.00023
39.8 -0.0007
39.85 -0.00119
39.9 -0.00087
39.95 -0.0005
40 0.00027
40.05 0.00001
40.1 -0.00027
40.15 -0.00086
40.2 -0.00173
40.25 -0.00257
40.3 -0.00297
40.35 -0.00269
40.4 -0.00205
40.45 -0.00125
40.5 0.00001
40.55 0.00133
40.6 0.00204
40.65 0.00194
40.7 0.00183
40.75 0.0024
40.8 0.00318
40.85 0.0035
40.9 0.00274
40.95 0.00205
41 0.0009
41.05 0.00021
41.1 0.00033
41.15 0.0001
41.2 0.00006
41.25 0.00057
41.3 0.0009
41.35 0.00184
41.4 0.00176
41.45 0.00239
41.5 0.00194
41.55 0.00062
41.6 -0.00046
41.65 -0.00091
41.7 -0.00192
41.75 -0.00293
41.8 -0.00331
41.85 -0.00272
41.9 -0.00179
41.95 -0.00097
42 -0.0011
42.05 -0.00132
42.1 -0.00052
42.15 0.00052
42.2 0.00035
42.25 0.00007
42.3 0.00056
42.35 0.00132
42.4 0.00111
42.45 0.00042
42.5 0.00067
42.55 0.00038
42.6 0.00002
42.65 0.00054
42.7 0.00088
42.75 0.0003
42.8 0.00039
42.85 -0.00002
42.9 -0.00107
42.95 -0.00148
43 -0.00223
43.05 -0.00217
43.1 -0.00121
43.15 -0.00082
43.2 -0.00072
43.25 -0.00034
43.3 0.00056
43.35 0.00031
43.4 0.00078
43.45 0.00071
43.5 0.00039
43.55 0.00084
43.6 0.00022
43.65 -0.00011
43.7 -0.00005
43.75 0.00083
43.8 0.00199
43.85 0.0027
43.9 0.00358
43.95 0.00317
44 0.00316
44.05 0.003
44.1 0.00327
44.15 0.00261
44.2 0.00248
44.25 0.00155
44.3 0.00001
44.35 -0.00148
44.4 -0.00299
44.45 -0.00303
44.5 -0.00294
44.55 -0.00243
44.6 -0.00237
44.65 -0.0027
44.7 -0.0027
44.75 -0.00246
44.8 -0.00129
44.85 -0.00019
44.9 0.00048
44.95 0.0001
45 0.00066
45.05 0.00106
45.1 0.00118
45.15 0.00142
45.2 0.00213
45.25 0.00288
45.3 0.00238
45.35 0.00217
45.4 0.00228
45.45 0.00189
45.5 0.00102
45.55 -0.00046
45.6 -0.00114
45.65 -0.00068
45.7 -0.00088
45.75 -0.0004
45.8 0.00057
45.85 0.00136
45.9 0.00156
45.95 0.00162
46 0.0023
46.05 0.00319
46.1 0.0035
46.15 0.00299
46.2 0.00163
46.25 0.00122
46.3 0.00099
46.35 0.00081
46.4 0.00032
46.45 -0.00075
46.5 -0.00183
46.55 -0.00171
46.6 -0.00178
46.65 -0.00191
46.7 -0.00128
46.75 -0.00083
46.8 -0.00123
46.85 -0.00164
46.9 -0.00126
46.95 -0.00091
47 -0.00134
47.05 -0.00097
47.1 -0.00062
47.15 -0.00014
47.2 -0.00004
47.25 -0.00074
47.3 -0.00185
47.35 -0.00295
47.4 -0.0041
47.45 -0.00476
47.5 -0.00548
47.55 -0.00624
47.6 -0.00649
47.65 -0.00662
47.7 -0.00553
47.75 -0.00425
47.8 -0.0028
47.85 -0.00227
47.9 -0.00162
47.95 -0.00115
48 -0.00031
48.05 0.00087
48.1 0.00089
48.15 0.00104
48.2 0.00178
48.25 0.00196
48.3 0.00207
48.35 0.00216
48.4 0.002
48.45 0.00154
48.5 0.00165
48.55 0.00113
48.6 0.0013
48.65 0.00071
48.7 0.001
48.75 0.00171
48.8 0.002
48.85 0.00247
48.9 0.00196
48.95 0.00128
49 0.00142
49.05 0.00064
49.1 -0.00072
49.15 -0.00172
49.2 -0.00141
49.25 -0.00133
49.3 -0.00143
49.35 -0.00106
49.4 -0.00018
49.45 0.00022
49.5 0.00053
49.55 0.00049
49.6 -0.00025
49.65 -0.00054
49.7 -0.0008
49.75 -0.00048
49.8 -0.00035
49.85 -0.00108
49.9 -0.00111
49.95 -0.00063
50 -0.00056
50.05 -0.00111
50.1 -0.00104
50.15 -0.00064
50.2 -0.00051
50.25 -0.0005
50.3 -0.00127
50.35 -0.00223
50.4 -0.00292
50.45 -0.00331
50.5 -0.0025
50.55 -0.00207
50.6 -0.00243
50.65 -0.00314
50.7 -0.00273
50.75 -0.00216
50.8 -0.00078
50.85 0.00039
50.9 0.0008
50.95 0.00133
51 0.00226
51.05 0.00304
51.1 0.00288
51.15 0.00257
51.2 0.00282
51.25 0.00349
51.3 0.00352
51.35 0.00389
51.4 0.00427
51.45 0.00436
51.5 0.00332
51.55 0.00263
51.6 0.00187
51.65 0.00179
51.7 0.00147
51.75 0.00194
51.8 0.00279
51.85 0.00352
51.9 0.00327
51.95 0.00349
52 0.00353
52.05 0.00277
52.1 0.00269
52.15 0.00298
52.2 0.00217
52.25 0.00078
52.3 -0.00047
52.35 -0.00064
52.4 -0.00096
52.45 -0.0017
52.5 -0.00205
52.55 -0.00254
52.6 -0.00267
52.65 -0.00291
52.7 -0.00253
52.75 -0.00219
52.8 -0.00105
52.85 -0.00053
52.9 -0.00008
52.95 -0.00029
53 0.00015
53.05 0
53.1 -0.00007
53.15 0.00012
53.2 0.00011
53.25 0.00018
53.3 -0.00056
53.35 -0.00142
53.4 -0.0012
53.45 -0.00087
53.5 -0.00094
53.55 -0.00073
53.6 -0.00121
53.65 -0.00167
53.7 -0.00196
53.75 -0.00266
53.8 -0.0029
53.85 -0.00291
53.9 -0.00264
53.95 -0.0025
54 -0.00255
54.05 -0.00194
54.1 -0.00095
54.15 -0.00102
54.2 -0.00037
54.25 0.00039
54.3 0.00051
54.35 0.00065
54.4 0.00002
54.45 -0.00009
54.5 -0.00051
54.55 -0.00038
54.6 -0.00083
54.65 -0.00131
54.7 -0.00186
54.75 -0.00212
54.8 -0.00221
54.85 -0.00223
54.9 -0.00157
54.95 -0.00152
55 -0.00094
55.05 -0.00092
55.1 -0.00052
55.15 0.00021
55.2 0.00064
55.25 0.00082
55.3 0.00058
55.35 -0.00042
55.4 -0.00123
55.45 -0.002
55.5 -0.00268
55.55 -0.00371
55.6 -0.00482
55.65 -0.00526
55.7 -0.00516
55.75 -0.00411
55.8 -0.00233
55.85 -0.00042
55.9 0.00042
55.95 0.00027
56 0.00016
56.05 0.00022
56.1 -0.00038
56.15 0.00014
56.2 0.00068
56.25 0.00111
56.3 0.00154
56.35 0.00135
56.4 0.00168
56.45 0.00244
56.5 0.00219
56.55 0.00118
56.6 0.00129
56.65 0.00192
56.7 0.00274
56.75 0.00302
56.8 0.00286
56.85 0.00202
56.9 0.00104
56.95 -0.00025
57 -0.00027
57.05 -0.00037
57.1 0.00032
57.15 0.00089
57.2 0.00137
57.25 0.00163
57.3 0.00176
57.35 0.00111
57.4 0.00021
57.45 -0.00042
57.5 -0.00155
57.55 -0.00171
57.6 -0.00203
57.65 -0.00209
57.7 -0.0015
57.75 -0.00014
57.8 0.00023
57.85 0.00005
57.9 0.0003
57.95 -0.00006
58 -0.00052
58.05 -0.00055
58.1 0.0002
58.15 0.00001
58.2 -0.00029
58.25 -0.00059
58.3 -0.00104
58.35 -0.00036
58.4 -0.00025
58.45 0.00005
58.5 -0.00054
58.55 -0.00043
58.6 -0.00088
58.65 -0.00158
58.7 -0.00178
58.75 -0.00152
58.8 -0.00126
58.85 -0.00141
58.9 -0.00074
58.95 -0.00029
59 0.00063
59.05 0.0005
59.1 0.00027
59.15 0.00013
59.2 -0.0008
59.25 -0.00081
59.3 -0.00034
59.35 0.00028
59.4 0.00065
59.45 0.00002
59.5 0.00021
59.55 0.0008
59.6 0.00146
59.65 0.00147
59.7 0.0013
59.75 0.0017
59.8 0.00201
59.85 0.0029
59.9 0.00287
59.95 0.00316
60 0.00307
60.05 0.00349
60.1 0.00268
60.15 0.0012
60.2 0.00017
60.25 -0.00042
60.3 0.00007
60.35 0.00058
60.4 0.00085
60.45 0.00155
60.5 0.0015
60.55 0.0021
60.6 0.00161
60.65 0.00145
60.7 0.00097
60.75 0.00072
60.8 0.00062
60.85 -0.00027
60.9 -0.00168
60.95 -0.00201
61 -0.00144
61.05 -0.00139
61.1 -0.00079
61.15 0.00014
61.2 0.00123
61.25 0.00247
61.3 0.00244
61.35 0.00301
61.4 0.00367
61.45 0.00373
61.5 0.00285
61.55 0.00197
61.6 0.0013
61.65 0.0006
61.7 -0.0006
61.75 -0.00249
61.8 -0.00475
61.85 -0.00641
61.9 -0.00722
61.95 -0.00782
62 -0.0088
62.05 -0.00931
62.1 -0.00971
62.15 -0.01134
62.2 -0.01313
62.25 -0.01444
62.3 -0.01646
62.35 -0.01854
62.4 -0.02243
62.45 -0.02637
62.5 -0.03179
62.55 -0.0383
62.6 -0.04547
62.65 -0.0533
62.7 -0.06176
62.75 -0.07098
62.8 -0.08047
62.85 -0.09079
62.9 -0.10273
62.95 -0.11673
63 -0.13171
63.05 -0.14874
63.1 -0.16708
63.15 -0.18699
63.2 -0.20838
63.25 -0.23165
63.3 -0.25565
63.35 -0.27988
63.4 -0.30479
63.45 -0.33039
63.5 -0.35721
63.55 -0.38384
63.6 -0.40995
63.65 -0.4355
63.7 -0.45918
63.75 -0.48206
63.8 -0.50192
63.85 -0.51918
63.9 -0.53405
63.95 -0.54679
64 -0.55704
64.05 -0.56408
64.1 -0.56712
64.15 -0.56589
64.2 -0.55997
64.25 -0.55023
64.3 -0.53498
64.35 -0.51479
64.4 -0.49084
64.45 -0.46407
64.5 -0.43459
64.55 -0.40211
64.6 -0.36668
64.65 -0.32791
64.7 -0.28639
64.75 -0.24374
64.8 -0.19999
64.85 -0.15605
64.9 -0.11193
64.95 -0.06896
65 -0.02633
65.05 0.01406
65.1 0.05372
65.15 0.09166
65.2 0.12741
65.25 0.16043
65.3 0.19039
65.35 0.21753
65.4 0.24193
65.45 0.26419
65.5 0.28494
65.55 0.30392
65.6 0.3209
65.65 0.33528
65.7 0.34729
65.75 0.35877
65.8 0.36902
65.85 0.37805
65.9 0.38535
65.95 0.39139
66 0.39581
66.05 0.40044
66.1 0.40414
66.15 0.40763
66.2 0.40994
66.25 0.41242
66.3 0.41344
66.35 0.41411
66.4 0.41383
66.45 0.41408
66.5 0.41384
66.55 0.41386
66.6 0.41299
66.65 0.41239
66.7 0.41065
66.75 0.40863
66.8 0.40656
66.85 0.4035
66.9 0.39982
66.95 0.39407
67 0.38785
67.05 0.38177
67.1 0.37464
67.15 0.36687
67.2 0.35766
67.25 0.34909
67.3 0.34046
67.35 0.33122
67.4 0.32094
67.45 0.31129
67.5 0.30108
67.55 0.29046
67.6 0.28056
67.65 0.27044
67.7 0.25933
67.75 0.24859
67.8 0.23826
67.85 0.22749
67.9 0.21739
67.95 0.20762
68 0.19841
68.05 0.18964
68.1 0.18078
68.15 0.17158
68.2 0.16231
68.25 0.15307
68.3 0.14507
68.35 0.13695
68.4 0.12892
68.45 0.12187
68.5 0.11462
68.55 0.10894
68.6 0.10384
68.65 0.09932
68.7 0.09479
68.75 0.0895
68.8 0.08394
68.85 0.07908
68.9 0.07343
68.95 0.06825
69 0.06366
69.05 0.05919
69.1 0.0547
69.15 0.05106
69.2 0.04655
69.25 0.0428
69.3 0.03934
69.35 0.03575
69.4 0.03131
69.45 0.02668
69.5 0.02245
69.55 0.01848
69.6 0.01486
69.65 0.01116
69.7 0.00725
69.75 0.0044
69.8 0.00182
69.85 -0.00036
69.9 -0.00324
69.95 -0.00687
70 -0.01055
70.05 -0.01355
70.1 -0.01679
70.15 -0.02035
70.2 -0.02419
70.25 -0.0275
70.3 -0.02965
70.35 -0.03196
70.4 -0.03423
70.45 -0.03671
70.5 -0.03885
70.55 -0.04024
70.6 -0.04225
70.65 -0.04431
70.7 -0.04633
70.75 -0.04864
70.8 -0.05087
70.85 -0.05288
70.9 -0.05367
70.95 -0.05419
71 -0.05403
71.05 -0.05461
71.1 -0.05555
71.15 -0.05669
71.2 -0.05735
71.25 -0.05827
71.3 -0.05966
71.35 -0.06034
71.4 -0.06094
71.45 -0.06215
71.5 -0.06246
71.55 -0.06185
71.6 -0.06137
71.65 -0.06186
71.7 -0.06163
71.75 -0.06192
71.8 -0.06177
71.85 -0.06212
71.9 -0.0624
71.95 -0.06321
72 -0.0629
72.05 -0.06178
72.1 -0.06075
72.15 -0.05953
72.2 -0.05941
72.25 -0.05983
72.3 -0.05918
72.35 -0.05936
72.4 -0.05958
72.45 -0.05919
72.5 -0.05933
72.55 -0.05844
72.6 -0.05669
72.65 -0.05604
72.7 -0.05611
72.75 -0.05539
72.8 -0.05464
72.85 -0.05451
72.9 -0.05451
72.95 -0.05365
73 -0.05333
73.05 -0.05288
73.1 -0.05264
73.15 -0.0526
73.2 -0.05174
73.25 -0.05001
73.3 -0.0477
73.35 -0.0466
73.4 -0.04581
73.45 -0.04537
73.5 -0.04407
73.55 -0.04329
73.6 -0.04321
73.65 -0.04296
73.7 -0.04298
73.75 -0.04295
73.8 -0.04314
73.85 -0.0428
73.9 -0.04237
73.95 -0.04182
74 -0.04179
74.05 -0.04072
74.1 -0.03905
74.15 -0.0382
74.2 -0.03737
74.25 -0.03668
74.3 -0.03502
74.35 -0.03449
74.4 -0.03433
74.45 -0.03362
74.5 -0.03305
74.55 -0.03173
74.6 -0.03153
74.65 -0.03176
74.7 -0.03188
74.75 -0.03214
74.8 -0.03172
74.85 -0.03111
74.9 -0.03095
74.95 -0.03024
75 -0.02863
75.05 -0.0266
75.1 -0.02577
75.15 -0.02456
75.2 -0.02451
75.25 -0.02463
75.3 -0.0241
75.35 -0.02288
75.4 -0.02234
75.45 -0.02269
75.5 -0.02328
75.55 -0.02423
75.6 -0.02478
75.65 -0.02415
75.7 -0.02394
75.75 -0.02322
75.8 -0.02285
75.85 -0.02258
75.9 -0.02173
75.95 -0.02177
76 -0.02215
76.05 -0.02196
76.1 -0.02109
76.15 -0.021
76.2 -0.02126
76.25 -0.02065
76.3 -0.02043
76.35 -0.01969
76.4 -0.01878
76.45 -0.01737
76.5 -0.01668
76.55 -0.01575
76.6 -0.01451
76.65 -0.01404
76.7 -0.01314
76.75 -0.01242
76.8 -0.01185
76.85 -0.01122
76.9 -0.01122
76.95 -0.01185
77 -0.01184
77.05 -0.01266
77.1 -0.01305
77.15 -0.01285
77.2 -0.01261
77.25 -0.01198
77.3 -0.01096
77.35 -0.01124
77.4 -0.01157
77.45 -0.01177
77.5 -0.01108
77.55 -0.0101
77.6 -0.00989
77.65 -0.01069
77.7 -0.01204
77.75 -0.01338
77.8 -0.0139
77.85 -0.01453
77.9 -0.01467
77.95 -0.01356
78 -0.0128
78.05 -0.0117
78.1 -0.01047
78.15 -0.01031
78.2 -0.01083
78.25 -0.01128
78.3 -0.01109
78.35 -0.01149
78.4 -0.01211
78.45 -0.01222
78.5 -0.01214
78.55 -0.01168
78.6 -0.01189
78.65 -0.01166
78.7 -0.01076
78.75 -0.01066
78.8 -0.01065
78.85 -0.00952
78.9 -0.00892
78.95 -0.00792
79 -0.00743
79.05 -0.00619
79.1 -0.00608
79.15 -0.00613
79.2 -0.00586
79.25 -0.00507
79.3 -0.00538
79.35 -0.00573
79.4 -0.00635
79.45 -0.00691
79.5 -0.00768
79.55 -0.00751
79.6 -0.00725
79.65 -0.00749
79.7 -0.00726
79.75 -0.00725
79.8 -0.00725
79.85 -0.00732
79.9 -0.00646
79.95 -0.00554
80 -0.00526
80.05 -0.00496
80.1 -0.0055
80.15 -0.00516
80.2 -0.0053
80.25 -0.00612
80.3 -0.00584
80.35 -0.0052
80.4 -0.00478
80.45 -0.00383
80.5 -0.00394
80.55 -0.00466
80.6 -0.00489
80.65 -0.00544
80.7 -0.00487
80.75 -0.0049
80.8 -0.00442
80.85 -0.00413
80.9 -0.0031
80.95 -0.00332
81 -0.00383
81.05 -0.00395
81.1 -0.00456
81.15 -0.00514
81.2 -0.00546
81.25 -0.00549
81.3 -0.00469
81.35 -0.00438
81.4 -0.00394
81.45 -0.00362
81.5 -0.00378
81.55 -0.00406
81.6 -0.00347
81.65 -0.00277
81.7 -0.00201
81.75 -0.00223
81.8 -0.0028
81.85 -0.00386
81.9 -0.00409
81.95 -0.0043
82 -0.00351
82.05 -0.00367
82.1 -0.00402
82.15 -0.00488
82.2 -0.00595
82.25 -0.00609
82.3 -0.00568
82.35 -0.00436
82.4 -0.00288
82.45 -0.00131
82.5 -0.00004
82.55 0.00102
82.6 0.00209
82.65 0.00323
82.7 0.00391
82.75 0.00334
82.8 0.00175
82.85 -0.00032
82.9 -0.00129
82.95 -0.00137
83 -0.00214
83.05 -0.00336
83.1 -0.00472
83.15 -0.00576
83.2 -0.00594
83.25 -0.00634
83.3 -0.00584
83.35 -0.00498
83.4 -0.00451
83.45 -0.00311
83.5 -0.00249
83.55 -0.00231
83.6 -0.00164
83.65 -0.00182
83.7 -0.00127
83.75 -0.00105
83.8 -0.00161
83.85 -0.00126
83.9 -0.00068
83.95 0.00032
84 0.00046
84.05 0.00008
84.1 -0.00103
84.15 -0.00224
84.2 -0.00342
84.25 -0.0041
84.3 -0.00396
84.35 -0.00392
84.4 -0.00393
84.45 -0.00305
84.5 -0.00238
84.55 -0.00173
84.6 -0.00189
84.65 -0.00204
84.7 -0.00204
84.75 -0.00236
84.8 -0.00163
84.85 -0.00022
84.9 0.00034
84.95 0.00081
85 0.00042
85.05 0.00026
85.1 -0.0004
85.15 -0.00045
85.2 -0.00058
85.25 -0.00061
85.3 -0.00048
85.35 -0.00024
85.4 -0.00075
85.45 -0.00165
85.5 -0.00127
85.55 -0.00129
85.6 -0.00081
85.65 -0.00092
85.7 -0.00043
85.75 -0.0007
85.8 -0.00137
85.85 -0.00101
85.9 -0.00013
85.95 -0.00014
86 -0.00025
86.05 0.00031
86.1 -0.00004
86.15 0.0005
86.2 0.00074
86.25 0.00107
86.3 0.00073
86.35 -0.00034
86.4 -0.00058
86.45 -0.00094
86.5 -0.00168
86.55 -0.00218
86.6 -0.0017
86.65 -0.00209
86.7 -0.00285
86.75 -0.00276
86.8 -0.00239
86.85 -0.00152
86.9 -0.00159
86.95 -0.0021
87 -0.00258
87.05 -0.00241
87.1 -0.00134
87.15 -0.00134
87.2 -0.00147
87.25 -0.0007
87.3 0.00068
87.35 0.00228
87.4 0.00321
87.45 0.00388
87.5 0.00348
87.55 0.00254
87.6 0.00238
87.65 0.00287
87.7 0.00352
87.75 0.00436
87.8 0.00394
87.85 0.00258
87.9 0.00102
87.95 0.00011
88 -0.00055
88.05 -0.00176
88.1 -0.00266
88.15 -0.00314
88.2 -0.00376
88.25 -0.0036
88.3 -0.00383
88.35 -0.00393
88.4 -0.00344
88.45 -0.00235
88.5 -0.00216
88.55 -0.00117
88.6 -0.00026
88.65 0.00039
88.7 0.00113
88.75 0.00138
88.8 0.00113
88.85 0.00148
88.9 0.00165
88.95 0.00155
89 0.00066
89.05 -0.00065
89.1 -0.00207
89.15 -0.00219
89.2 -0.00124
89.25 0.00014
89.3 0.00096
89.35 0.001
89.4 0.00174
89.45 0.00199
89.5 0.0028
89.55 0.00305
89.6 0.00232
89.65 0.0014
89.7 0.00096
89.75 0.00098
89.8 0.00104
89.85 0.0008
89.9 0.0014
89.95 0.00088
90 0.00004
90.05 -0.00005
90.1 -0.00082
90.15 -0.00197
90.2 -0.0033
90.25 -0.00316
90.3 -0.003
90.35 -0.00267
90.4 -0.00265
90.45 -0.00284
90.5 -0.00317
90.55 -0.00385
90.6 -0.00423
90.65 -0.00447
90.7 -0.00355
90.75 -0.00197
90.8 -0.0005
90.85 0.00075
90.9 0.00201
90.95 0.0028
91 0.00269
91.05 0.00309
91.1 0.0031
91.15 0.0033
91.2 0.00287
91.25 0.00209
91.3 0.00068
91.35 -0.00002
91.4 -0.00035
91.45 -0.00094
91.5 -0.00038
91.55 -0.00054
91.6 -0.00074
91.65 -0.0001
91.7 -0.00043
91.75 0.00023
91.8 0.00023
91.85 -0.00012
91.9 -0.00034
91.95 -0.00071
92 -0.00032
92.05 0.00048
92.1 0.00134
92.15 0.00103
92.2 0.00036
92.25 -0.00005
92.3 -0.00033
92.35 -0.00079
92.4 -0.00121
92.45 -0.00059
92.5 0.00069
92.55 0.00135
92.6 0.00132
92.65 0.00143
92.7 0.00127
92.75 0.00187
92.8 0.00215
92.85 0.00138
92.9 0.00079
92.95 0.00077
93 0.00151
93.05 0.0011
93.1 0.00084
93.15 0.00116
93.2 0.00056
93.25 0.00041
93.3 0.00036
93.35 0.00038
93.4 -0.00026
93.45 -0.0014
93.5 -0.00186
93.55 -0.00141
93.6 -0.00076
93.65 -0.00015
93.7 0.00105
93.75 0.00106
93.8 0.00108
93.85 0.00092
93.9 0.00099
93.95 0.00086
94 0.00048
94.05 -0.00044
94.1 -0.00136
94.15 -0.00138
94.2 -0.00136
94.25 -0.00142
94.3 -0.0016
94.35 -0.00159
94.4 -0.00127
94.45 -0.00147
94.5 -0.00085
94.55 -0.00112
94.6 -0.00073
94.65 -0.00036
94.7 0.00041
94.75 0
94.8 -0.0008
94.85 -0.00175
94.9 -0.00303
94.95 -0.0035
95 -0.0027
95.05 -0.00219
95.1 -0.00189
95.15 -0.00151
95.2 -0.00104
95.25 -0.00084
95.3 -0.00009
95.35 -0.00006
95.4 0.00036
95.45 0.0013
95.5 0.00117
95.55 0.0015
95.6 0.00105
95.65 0.00002
95.7 -0.00149
95.75 -0.00245
95.8 -0.00205
95.85 -0.00112
95.9 -0.00072
95.95 -0.00114
96 -0.00104
96.05 -0.00002
96.1 0.00013
96.15 0.00028
96.2 0.00118
96.25 0.0016
96.3 0.0017
96.35 0.00232
96.4 0.00256
96.45 0.00169
96.5 0.00072
96.55 0.00036
96.6 0.0003
96.65 -0.00038
96.7 -0.00026
96.75 0.0001
96.8 0.00102
96.85 0.00087
96.9 0.00138
96.95 0.0018
97 0.00239
97.05 0.00269
97.1 0.00212
97.15 0.00228
97.2 0.00182
97.25 0.00172
97.3 0.00159
97.35 0.00064
97.4 0.00033
97.45 0.00085
97.5 0.00163
97.55 0.00188
97.6 0.00265
97.65 0.00249
97.7 0.00169
97.75 0.00111
97.8 0.00116
97.85 0.00075
97.9 -0.00035
97.95 -0.00096
98 -0.00172
98.05 -0.00133
98.1 -0.00078
98.15 -0.00098
98.2 -0.00179
98.25 -0.00214
98.3 -0.00206
98.35 -0.0013
98.4 -0.00105
98.45 -0.0006
98.5 0.00016
98.55 0.00011
98.6 -0.00067
98.65 -0.00133
98.7 -0.00178
98.75 -0.00147
98.8 -0.0017
98.85 -0.00217
98.9 -0.00307
98.95 -0.00346
99 -0.00345
99.05 -0.00295
99.1 -0.00196
99.15 -0.00094
99.2 -0.00029
99.25 0.00075
99.3 0.00079
99.35 0.00014
99.4 -0.00065
99.45 -0.00191
99.5 -0.0029
99.55 -0.00296
99.6 -0.0027
99.65 -0.00279
99.7 -0.00279
99.75 -0.00256
99.8 -0.00262
99.85 -0.00257
99.9 -0.00157
99.95 -0.00076
