0 0
0.05 0.00059
0.1 0.00193
0.15 0.00312
0.2 0.00463
0.25 0.00655
0.3 0.00773
0.35 0.00781
0.4 0.00726
0.45 0.00676
0.5 0.006
0.55 0.00497
0.6 0.00471
0.65 0.00459
0.7 0.00422
0.75 0.00476
0.8 0.00546
0.85 0.00599
0.9 0.00669
0.95 0.00737
1 0.00767
1.05 0.00774
1.1 0.00764
1.15 0.00726
1.2 0.0063
1.25 0.00604
1.3 0.00656
1.35 0.0068
1.4 0.00673
1.45 0.00688
1.5 0.00652
1.55 0.00603
1.6 0.00545
1.65 0.00441
1.7 0.00441
1.75 0.00494
1.8 0.00589
1.85 0.00698
1.9 0.00768
1.95 0.00722
2 0.00739
2.05 0.00753
2.1 0.00803
2.15 0.00749
2.2 0.00711
2.25 0.00728
2.3 0.00649
2.35 0.0059
2.4 0.00578
2.45 0.00586
2.5 0.00584
2.55 0.00538
2.6 0.00549
2.65 0.0056
2.7 0.00578
2.75 0.00598
2.8 0.00569
2.85 0.0058
2.9 0.00581
2.95 0.00522
3 0.00484
3.05 0.00423
3.1 0.00371
3.15 0.00271
3.2 0.00163
3.25 0.00077
3.3 0.00101
3.35 0.00145
3.4 0.00159
3.45 0.00128
3.5 0.00065
3.55 0.00061
3.6 0.00139
3.65 0.00246
3.7 0.00246
3.75 0.00223
3.8 0.00147
3.85 0.00154
3.9 0.00125
3.95 0.00071
4 0.00081
4.05 0.00036
4.1 0.00094
4.15 0.00075
4.2 0.00072
4.25 0.00154
4.3 0.00221
4.35 0.00308
4.4 0.00331
4.45 0.00366
4.5 0.00365
4.55 0.00312
4.6 0.00202
4.65 0.00154
4.7 0.00108
4.75 0.00148
4.8 0.00231
4.85 0.00243
4.9 0.00266
4.95 0.00214
5 0.00126
5.05 0.00065
5.1 0.00052
5.15 0.00044
5.2 -0.0001
5.25 0.0004
5.3 0.00153
5.35 0.0021
5.4 0.0021
5.45 0.00236
5.5 0.00316
5.55 0.0042
5.6 0.00439
5.65 0.00391
5.7 0.00333
5.75 0.00249
5.8 0.00177
5.85 0.00079
5.9 0.0004
5.95 0.00021
6 -0.00008
6.05 -0.00044
6.1 0.0001
6.15 0.00105
6.2 0.00109
6.25 0.00088
6.3 0.001
6.35 0.00075
6.4 0.00051
6.45 0.00027
6.5 0.00084
6.55 0.00156
6.6 0.00232
6.65 0.00287
6.7 0.00319
6.75 0.00339
6.8 0.00381
6.85 0.00339
6.9 0.00328
6.95 0.00247
7 0.00219
7.05 0.00213
7.1 0.0023
7.15 0.0024
7.2 0.00268
7.25 0.0025
7.3 0.00213
7.35 0.00242
7.4 0.00186
7.45 0.00147
7.5 0.00102
7.55 0.00135
7.6 0.00155
7.65 0.00204
7.7 0.00278
7.75 0.00301
7.8 0.00326
7.85 0.00379
7.9 0.00397
7.95 0.00385
8 0.0028
8.05 0.00221
8.1 0.00121
8.15 0.00061
8.2 0.00045
8.25 0.00093
8.3 0.00181
8.35 0.00207
8.4 0.00187
8.45 0.0021
8.5 0.00225
8.55 0.0024
8.6 0.00175
8.65 0.00047
8.7 0.00014
8.75 0.00027
8.8 0.00077
8.85 0.00139
8.9 0.00139
8.95 0.00099
9 0.00019
9.05 -0.00065
9.1 -0.0008
9.15 -0.00051
9.2 -0.00001
9.25 -0.00042
9.3 -0.00107
9.35 -0.00083
9.4 -0.00124
9.45 -0.00128
9.5 -0.00125
9.55 -0.00119
9.6 -0.00161
9.65 -0.00171
9.7 -0.00204
9.75 -0.00183
9.8 -0.00131
9.85 -0.00107
9.9 -0.00131
9.95 -0.00156
10 -0.00175
10.05 -0.00133
10.1 -0.00136
10.15 -0.00065
10.2 -0.00027
10.25 -0.00004
10.3 -0.00007
10.35 0.00041
10.4 0.00051
10.45 -0.00016
10.5 -0.00088
10.55 -0.00179
10.6 -0.00197
10.65 -0.00244
10.7 -0.00258
10.75 -0.00221
10.8 -0.00134
10.85 -0.00094
10.9 -0.00086
10.95 -0.00045
11 -0.00044
11.05 -0.00018
11.1 0.00028
11.15 0.00045
11.2 0.00049
11.25 0.00077
11.3 0.00068
11.35 0.00108
11.4 0.00178
11.45 0.00169
11.5 0.0013
11.55 0.00047
11.6 0.00052
11.65 0.00105
11.7 0.00085
11.75 0.00003
11.8 0.00001
11.85 0.00038
11.9 0.00011
11.95 -0.0005
12 -0.00126
12.05 -0.00172
12.1 -0.00176
12.15 -0.00219
12.2 -0.00207
12.25 -0.00157
12.3 -0.00146
12.35 -0.0016
12.4 -0.00182
12.45 -0.00142
12.5 -0.0007
12.55 -0.00074
12.6 -0.00126
12.65 -0.00107
12.7 -0.00022
12.75 0.00093
12.8 0.00177
12.85 0.00176
12.9 0.00222
12.95 0.00298
13 0.00326
13.05 0.00263
13.1 0.00139
13.15 0.00065
13.2 0.00073
13.25 0.00109
13.3 0.00134
13.35 0.00121
13.4 0.0013
13.45 0.00091
13.5 -0.00006
13.55 -0.00133
13.6 -0.00271
13.65 -0.00329
13.7 -0.00405
13.75 -0.00388
13.8 -0.00352
13.85 -0.00357
13.9 -0.00283
13.95 -0.00228
14 -0.00193
14.05 -0.00096
14.1 0.00029
14.15 0.00152
14.2 0.00159
14.25 0.00146
14.3 0.00159
14.35 0.0021
14.4 0.00233
14.45 0.00277
14.5 0.00307
14.55 0.0037
14.6 0.00417
14.65 0.00355
14.7 0.00328
14.75 0.00329
14.8 0.00268
14.85 0.00153
14.9 0.00027
14.95 -0.00042
15 -0.00104
15.05 -0.00088
15.1 -0.00029
15.15 0.00007
15.2 0.00065
15.25 0.00051
15.3 0.00075
15.35 0.00014
15.4 -0.00064
15.45 -0.00088
15.5 -0.00117
15.55 -0.00194
15.6 -0.00218
15.65 -0.0017
15.7 -0.0018
15.75 -0.00151
15.8 -0.00112
15.85 -0.00098
15.9 -0.00016
15.95 0.0003
16 0.00071
16.05 0.00047
16.1 0.00088
16.15 0.00153
16.2 0.0021
16.25 0.00161
16.3 0.00087
16.35 0.00063
16.4 0.00107
16.45 0.00139
16.5 0.00127
16.55 0.00056
16.6 0.00048
16.65 0.00001
16.7 -0.00016
16.75 0.00015
16.8 -0.00002
16.85 -0.00048
16.9 -0.00101
16.95 -0.00083
17 -0.00039
17.05 0.00052
17.1 0.0005
17.15 0.00035
17.2 0.00065
17.25 0.00108
17.3 0.00066
17.35 0.00033
17.4 0.00022
17.45 -0.00008
17.5 -0.00087
17.55 -0.00102
17.6 -0.00083
17.65 -0.00009
17.7 0.00016
17.75 0.00089
17.8 0.00164
17.85 0.00154
17.9 0.00146
17.95 0.00158
18 0.00179
18.05 0.00225
18.1 0.00251
18.15 0.0027
18.2 0.0022
18.25 0.00156
18.3 0.00086
18.35 -0.00037
18.4 -0.00077
18.45 -0.00094
18.5 -0.0008
18.55 -0.001
18.6 -0.0006
18.65 -0.00102
18.7 -0.00143
18.75 -0.00163
18.8 -0.00198
18.85 -0.00202
18.9 -0.00233
18.95 -0.0021
19 -0.00219
19.05 -0.0021
19.1 -0.00236
19.15 -0.00169
19.2 -0.00113
19.25 -0.00112
19.3 -0.00074
19.35 -0.00047
19.4 -0.00068
19.45 -0.00101
19.5 -0.00088
19.55 -0.0004
19.6 0.00001
19.65 0.0007
19.7 0.00072
19.75 0.00032
19.8 0.00058
19.85 0.00049
19.9 0.00106
19.95 0.00143
20 0.00129
20.05 0.00151
20.1 0.00203
20.15 0.00206
20.2 0.00173
20.25 0.00198
20.3 0.0019
20.35 0.00125
20.4 0.00115
20.45 0.00139
20.5 0.0015
20.55 0.00112
20.6 0.00138
20.65 0.00117
20.7 0.00071
20.75 -0.00017
20.8 -0.00059
20.85 -0.00087
20.9 -0.00159
20.95 -0.00175
21 -0.00106
21.05 -0.00049
21.1 -0.00048
21.15 -0.00059
21.2 -0.00012
21.25 -0.00018
21.3 -0.00036
21.35 -0.00105
21.4 -0.00178
21.45 -0.00156
21.5 -0.00076
21.55 -0.0002
21.6 0.00052
21.65 0.00049
21.7 0.00094
21.75 0.0007
21.8 -0.00011
21.85 -0.00048
21.9 -0.00083
21.95 -0.00076
22 -0.00042
22.05 -0.00088
22.1 -0.00049
22.15 -0.00072
22.2 -0.00075
22.25 -0.00058
22.3 -0.00006
22.35 0.00014
22.4 0.00081
22.45 0.0012
22.5 0.00088
22.55 0.00014
22.6 0.0001
22.65 -0.00065
22.7 -0.0009
22.75 -0.00092
22.8 -0.00065
22.85 -0.00028
22.9 -0.00071
22.95 -0.00135
23 -0.00179
23.05 -0.00257
23.1 -0.00227
23.15 -0.00173
23.2 -0.00133
23.25 -0.00046
23.3 -0.00008
23.35 0.00034
23.4 0.00055
23.45 0.00094
23.5 0.00085
23.55 0.00023
23.6 -0.00055
23.65 -0.0006
23.7 -0.00113
23.75 -0.00116
23.8 -0.00168
23.85 -0.00123
23.9 -0.00121
23.95 -0.0016
24 -0.00227
24.05 -0.0024
24.1 -0.00296
24.15 -0.00344
24.2 -0.00331
24.25 -0.00325
24.3 -0.00322
24.35 -0.00233
24.4 -0.00225
24.45 -0.00267
24.5 -0.00255
24.55 -0.00287
24.6 -0.00257
24.65 -0.00228
24.7 -0.00176
24.75 -0.00179
24.8 -0.00095
24.85 0.00005
24.9 0.00013
24.95 -0.00012
25 0.00023
25.05 -0.00014
25.1 -0.00032
25.15 -0.00058
25.2 -0.00113
25.25 -0.00089
25.3 -0.00081
25.35 -0.00114
25.4 -0.00175
25.45 -0.00251
25.5 -0.00249
25.55 -0.00153
25.6 -0.00008
25.65 0.00135
25.7 0.00247
25.75 0.00288
25.8 0.0033
25.85 0.00328
25.9 0.00248
25.95 0.00125
26 0.00068
26.05 0.00036
26.1 0.00013
26.15 -0.00047
26.2 -0.00077
26.25 -0.0004
26.3 0.00055
26.35 0.00081
26.4 0.00059
26.45 0.00083
26.5 0.00068
26.55 0.00102
26.6 0.00091
26.65 0.0001
26.7 -0.00049
26.75 -0.00138
26.8 -0.00152
26.85 -0.00136
26.9 -0.00125
26.95 -0.00133
27 -0.00154
27.05 -0.00213
27.1 -0.00239
27.15 -0.00243
27.2 -0.00277
27.25 -0.00305
27.3 -0.00275
27.35 -0.00286
27.4 -0.00291
27.45 -0.00308
27.5 -0.00313
27.55 -0.00235
27.6 -0.00174
27.65 -0.00055
27.7 -0.00008
27.75 0.00037
27.8 0.00091
27.85 0.00122
27.9 0.002
27.95 0.0025
28 0.00304
28.05 0.00277
28.1 0.00267
28.15 0.00211
28.2 0.00161
28.25 0.00095
28.3 0.00027
28.35 -0.00069
28.4 -0.00133
28.45 -0.00143
28.5 -0.00156
28.55 -0.0008
28.6 -0.00088
28.65 -0.00026
28.7 -0.00036
28.75 -0.00065
28.8 -0.00035
28.85 -0.00001
28.9 0.00073
28.95 0.00051
29 0.00079
29.05 0.00038
29.1 0.00011
29.15 -0.00008
29.2 0.00018
29.25 -0.00011
29.3 -0.00052
29.35 -0.00004
29.4 0.00033
29.45 0.00122
29.5 0.00152
29.55 0.00231
29.6 0.00217
29.65 0.00155
29.7 0.00041
29.75 0.00014
29.8 -0.0007
29.85 -0.00158
29.9 -0.00171
29.95 -0.002
30 -0.00142
30.05 -0.0003
30.1 -0.00018
30.15 -0.00049
30.2 -0.0005
30.25 -0.00058
30.3 -0.00058
30.35 -0.00015
30.4 -0.00028
30.45 -0.0005
30.5 -0.00035
30.55 -0.00076
30.6 -0.00065
30.65 -0.00055
30.7 -0
30.75 0.00046
30.8 0.00124
30.85 0.00191
30.9 0.00166
30.95 0.00136
31 0.00145
31.05 0.00184
31.1 0.0022
31.15 0.0022
31.2 0.00272
31.25 0.00328
31.3 0.00381
31.35 0.0039
31.4 0.00368
31.45 0.00312
31.5 0.00213
31.55 0.00149
31.6 0.00164
31.65 0.00191
31.7 0.00209
31.75 0.00178
31.8 0.00116
31.85 0.00026
31.9 -0.00006
31.95 -0.00034
32 -0.00012
32.05 0.0004
32.1 0.00061
32.15 0.00056
32.2 0.00104
32.25 0.00061
32.3 0.00029
32.35 -0.00061
32.4 -0.00174
32.45 -0.00216
32.5 -0.00294
32.55 -0.00327
32.6 -0.00356
32.65 -0.00392
32.7 -0.00334
32.75 -0.00245
32.8 -0.00124
32.85 0.00013
32.9 0.00098
32.95 0.00208
33 0.00324
33.05 0.00305
33.1 0.00208
33.15 0.00122
33.2 -0.00003
33.25 -0.00118
33.3 -0.00197
33.35 -0.00195
33.4 -0.00227
33.45 -0.0026
33.5 -0.00215
33.55 -0.00103
33.6 -0.0009
33.65 -0.00128
33.7 -0.00078
33.75 -0.00011
33.8 0.00059
33.85 0.00077
33.9 0.00142
33.95 0.00146
34 0.00204
34.05 0.0021
34.1 0.00253
34.15 0.00277
34.2 0.00229
34.25 0.00215
34.3 0.00177
34.35 0.00093
34.4 0.00024
34.45 -0.00016
34.5 -0.00069
34.55 -0.00163
34.6 -0.00163
34.65 -0.00214
34.7 -0.00289
34.75 -0.0028
34.8 -0.00225
34.85 -0.00105
34.9 0.00012
34.95 0.00081
35 0.00102
35.05 0.00064
35.1 0.00021
35.15 -0.00026
35.2 -0.00089
35.25 -0.00079
35.3 -0.00072
35.35 -0.00033
35.4 0.00008
35.45 0.00079
35.5 0.00078
35.55 0.00105
35.6 0.00123
35.65 0.00119
35.7 0.00154
35.75 0.00166
35.8 0.00165
35.85 0.00102
35.9 0.00094
35.95 0.001
36 0.00098
36.05 0.00154
36.1 0.00141
36.15 0.001
36.2 0.00011
36.25 -0.00062
36.3 -0.00099
36.35 -0.00128
36.4 -0.00153
36.45 -0.00211
36.5 -0.00224
36.55 -0.00265
36.6 -0.00242
36.65 -0.00238
36.7 -0.00203
36.75 -0.00199
36.8 -0.00135
36.85 -0.00044
36.9 0.0002
36.95 0.00013
37 0.0007
37.05 0.00135
37.1 0.00202
37.15 0.00219
37.2 0.00247
37.25 0.00228
37.3 0.00259
37.35 0.00192
37.4 0.00129
37.45 0.00028
37.5 0.00012
37.55 -0.00024
37.6 -0.00076
37.65 -0.0004
37.7 -0.00024
37.75 -0.00005
37.8 -0.00052
37.85 -0.00103
37.9 -0.0018
37.95 -0.00187
38 -0.00123
38.05 -0.00117
38.1 -0.00061
38.15 -0.00042
38.2 -0.00043
38.25 -0.00039
38.3 -0.00064
38.35 -0.00034
38.4 0.00001
38.45 0.00069
38.5 0.00149
38.55 0.00231
38.6 0.00229
38.65 0.00269
38.7 0.00306
38.75 0.00253
38.8 0.00138
38.85 0.00006
38.9 -0.00059
38.95 -0.00116
39 -0.00143
39.05 -0.00155
39.1 -0.00094
39.15 0.00013
39.2 0.00093
39.25 0.00094
39.3 0.00071
39.35 -0.00017
39.4 -0.00068
39.45 -0.00058
39.5 0.00016
39.55 0.00087
39.6 0.00102
39.65 0.00032
39.7 -0.00051
39.75 -0.00149
39.8 -0.00143
39.85 -0.00074
39.9 -0.00016
39.95 -0.00017
40 -0.00006
40.05 -0.00013
40.1 -0.00053
40.15 -0.00048
40.2 -0.00081
40.25 -0.00031
40.3 0.00055
40.35 0.00106
40.4 0.00164
40.45 0.00219
40.5 0.00179
40.55 0.00077
40.6 0.00003
40.65 -0.00004
40.7 -0.00005
40.75 0.00018
40.8 0.00006
40.85 0.00018
40.9 -0.00046
40.95 -0.00036
41 -0.00066
41.05 -0.00107
41.1 -0.00188
41.15 -0.00262
41.2 -0.00352
41.25 -0.00326
41.3 -0.00275
41.35 -0.00179
41.4 -0.00086
41.45 -0.00081
41.5 -0.00069
41.55 -0.00056
41.6 0.00007
41.65 0.00058
41.7 0.00067
41.75 0.001
41.8 0.00131
41.85 0.00151
41.9 0.00137
41.95 0.00127
42 0.00157
42.05 0.00208
42.1 0.00271
42.15 0.0029
42.2 0.00216
42.25 0.00212
42.3 0.00147
42.35 0.00082
42.4 0.00075
42.45 0.00007
42.5 -0.00056
42.55 -0.00162
42.6 -0.00199
42.65 -0.00276
42.7 -0.00235
42.75 -0.00127
42.8 -0.00092
42.85 0.00001
42.9 0.0008
42.95 0.00144
43 0.00215
43.05 0.00186
43.1 0.00087
43.15 -0.00035
43.2 -0.00085
43.25 -0.00134
43.3 -0.00096
43.35 -0.00057
43.4 0.00016
43.45 0.0003
43.5 0.00021
43.55 0.00006
43.6 0.00023
43.65 0.00092
43.7 0.00157
43.75 0.00176
43.8 0.00115
43.85 0.00016
43.9 -0.00056
43.95 -0.00147
44 -0.00217
44.05 -0.0036
44.1 -0.00533
44.15 -0.00632
44.2 -0.00686
44.25 -0.00729
44.3 -0.00784
44.35 -0.00872
44.4 -0.01093
44.45 -0.01281
44.5 -0.01579
44.55 -0.01899
44.6 -0.0221
44.65 -0.02585
44.7 -0.03082
44.75 -0.03653
44.8 -0.04359
44.85 -0.05038
44.9 -0.05758
44.95 -0.0658
45 -0.0756
45.05 -0.08659
45.1 -0.09862
45.15 -0.11166
45.2 -0.12494
45.25 -0.13883
45.3 -0.15432
45.35 -0.17135
45.4 -0.18938
45.45 -0.20789
45.5 -0.22631
45.55 -0.24485
45.6 -0.26376
45.65 -0.28281
45.7 -0.30168
45.75 -0.32085
45.8 -0.33962
45.85 -0.35738
45.9 -0.37525
45.95 -0.39224
46 -0.40749
46.05 -0.42079
46.1 -0.43143
46.15 -0.43901
46.2 -0.44397
46.25 -0.44612
46.3 -0.44432
46.35 -0.43861
46.4 -0.43043
46.45 -0.41836
46.5 -0.40398
46.55 -0.38696
46.6 -0.36763
46.65 -0.34507
46.7 -0.3194
46.75 -0.29143
46.8 -0.26144
46.85 -0.23008
46.9 -0.19782
46.95 -0.16479
47 -0.1313
47.05 -0.09834
47.1 -0.06658
47.15 -0.03585
47.2 -0.00557
47.25 0.0243
47.3 0.05221
47.35 0.07872
47.4 0.10366
47.45 0.12745
47.5 0.14912
47.55 0.16897
47.6 0.18749
47.65 0.20432
47.7 0.21929
47.75 0.23369
47.8 0.2463
47.85 0.25794
47.9 0.26872
47.95 0.2792
48 0.2886
48.05 0.29751
48.1 0.30556
48.15 0.31306
48.2 0.31974
48.25 0.32579
48.3 0.3315
48.35 0.33699
48.4 0.34154
48.45 0.34543
48.5 0.34816
48.55 0.34994
48.6 0.35208
48.65 0.35431
48.7 0.35578
48.75 0.35636
48.8 0.35611
48.85 0.35591
48.9 0.3544
48.95 0.35202
49 0.34898
49.05 0.34492
49.1 0.3413
49.15 0.33704
49.2 0.33235
49.25 0.32726
49.3 0.32129
49.35 0.31533
49.4 0.30786
49.45 0.29934
49.5 0.29126
49.55 0.28296
49.6 0.27376
49.65 0.26445
49.7 0.25472
49.75 0.2455
49.8 0.23618
49.85 0.22669
49.9 0.21702
49.95 0.20769
50 0.19829
50.05 0.18922
50.1 0.17977
50.15 0.17068
50.2 0.16249
50.25 0.15464
50.3 0.14716
50.35 0.13996
50.4 0.13215
50.45 0.12445
50.5 0.11739
50.55 0.11067
50.6 0.10363
50.65 0.09677
50.7 0.09046
50.75 0.08406
50.8 0.07823
50.85 0.07278
50.9 0.06711
50.95 0.06206
51 0.05692
51.05 0.05133
51.1 0.04567
51.15 0.04071
51.2 0.03593
51.25 0.03113
51.3 0.02693
51.35 0.02233
51.4 0.01855
51.45 0.01492
51.5 0.0112
51.55 0.00794
51.6 0.00433
51.65 0.00115
51.7 -0.00173
51.75 -0.0042
51.8 -0.00739
51.85 -0.01017
51.9 -0.01359
51.95 -0.01622
52 -0.01825
52.05 -0.02044
52.1 -0.02218
52.15 -0.02454
52.2 -0.02673
52.25 -0.02942
52.3 -0.03206
52.35 -0.03379
52.4 -0.03605
52.45 -0.03845
52.5 -0.03977
52.55 -0.0409
52.6 -0.0414
52.65 -0.04214
52.7 -0.04274
52.75 -0.04421
52.8 -0.04589
52.85 -0.0478
52.9 -0.0487
52.95 -0.04959
53 -0.05052
53.05 -0.05119
53.1 -0.05158
53.15 -0.0515
53.2 -0.05171
53.25 -0.05125
53.3 -0.05044
53.35 -0.05053
53.4 -0.05016
53.45 -0.0495
53.5 -0.04994
53.55 -0.05109
53.6 -0.05162
53.65 -0.05256
53.7 -0.05317
53.75 -0.05345
53.8 -0.05392
53.85 -0.05389
53.9 -0.05386
53.95 -0.05399
54 -0.05405
54.05 -0.05426
54.1 -0.05331
54.15 -0.05207
54.2 -0.05144
54.25 -0.0511
54.3 -0.05096
54.35 -0.05044
54.4 -0.04953
54.45 -0.04897
54.5 -0.04887
54.55 -0.04835
54.6 -0.04772
54.65 -0.04634
54.7 -0.04562
54.75 -0.0451
54.8 -0.04447
54.85 -0.04342
54.9 -0.04193
54.95 -0.04079
55 -0.03986
55.05 -0.03934
55.1 -0.03919
55.15 -0.03922
55.2 -0.03938
55.25 -0.0388
55.3 -0.0382
55.35 -0.03778
55.4 -0.0367
55.45 -0.03649
55.5 -0.0367
55.55 -0.03725
55.6 -0.03663
55.65 -0.03625
55.7 -0.03603
55.75 -0.03563
55.8 -0.03521
55.85 -0.03501
55.9 -0.0341
55.95 -0.03311
56 -0.03273
56.05 -0.03226
56.1 -0.03156
56.15 -0.03088
56.2 -0.03043
56.25 -0.03044
56.3 -0.03057
56.35 -0.03026
56.4 -0.02996
56.45 -0.02987
56.5 -0.02881
56.55 -0.0275
56.6 -0.02668
56.65 -0.02567
56.7 -0.02446
56.75 -0.02345
56.8 -0.02326
56.85 -0.02363
56.9 -0.0233
56.95 -0.02249
57 -0.02222
57.05 -0.02131
57.1 -0.02017
57.15 -0.01981
57.2 -0.01934
57.25 -0.01946
57.3 -0.01912
57.35 -0.01896
57.4 -0.01817
57.45 -0.01812
57.5 -0.0185
57.55 -0.01894
57.6 -0.01877
57.65 -0.01852
57.7 -0.01838
57.75 -0.01881
57.8 -0.01881
57.85 -0.01811
57.9 -0.01682
57.95 -0.01653
58 -0.01678
58.05 -0.01672
58.1 -0.01703
58.15 -0.01663
58.2 -0.01607
58.25 -0.01588
58.3 -0.01604
58.35 -0.01541
58.4 -0.01506
58.45 -0.01413
58.5 -0.01289
58.55 -0.01252
58.6 -0.0118
58.65 -0.01202
58.7 -0.01225
58.75 -0.0128
58.8 -0.01349
58.85 -0.01379
58.9 -0.0136
58.95 -0.01345
59 -0.01356
59.05 -0.01316
59.1 -0.01256
59.15 -0.01183
59.2 -0.01121
59.25 -0.01086
59.3 -0.00991
59.35 -0.00872
59.4 -0.00823
59.45 -0.00847
59.5 -0.00888
59.55 -0.00866
59.6 -0.00883
59.65 -0.00881
59.7 -0.00911
59.75 -0.00944
59.8 -0.00944
59.85 -0.00917
59.9 -0.00905
59.95 -0.00848
60 -0.00861
60.05 -0.00864
60.1 -0.00893
60.15 -0.00902
60.2 -0.00914
60.25 -0.00899
60.3 -0.00931
60.35 -0.00911
60.4 -0.00921
60.45 -0.00882
60.5 -0.00771
60.55 -0.0068
60.6 -0.00571
60.65 -0.00556
60.7 -0.00611
60.75 -0.00664
60.8 -0.00635
60.85 -0.00544
60.9 -0.00532
60.95 -0.00469
61 -0.00436
61.05 -0.0044
61.1 -0.00441
61.15 -0.00465
61.2 -0.00515
61.25 -0.00513
61.3 -0.0057
61.35 -0.00545
61.4 -0.00557
61.45 -0.00583
61.5 -0.00576
61.55 -0.00556
61.6 -0.00596
61.65 -0.0057
61.7 -0.00479
61.75 -0.00446
61.8 -0.00356
61.85 -0.00254
61.9 -0.00158
61.95 -0.00062
62 -0.00092
62.05 -0.00083
62.1 -0.00114
62.15 -0.00202
62.2 -0.00313
62.25 -0.0045
62.3 -0.00496
62.35 -0.00518
62.4 -0.00568
62.45 -0.00592
62.5 -0.00629
62.55 -0.00578
62.6 -0.00512
62.65 -0.00402
62.7 -0.0033
62.75 -0.00306
62.8 -0.00336
62.85 -0.00368
62.9 -0.00396
62.95 -0.0044
63 -0.00503
63.05 -0.00525
63.1 -0.00462
63.15 -0.00394
63.2 -0.00391
63.25 -0.00407
63.3 -0.00458
63.35 -0.0048
63.4 -0.00479
63.45 -0.00526
63.5 -0.0053
63.55 -0.00559
63.6 -0.00481
63.65 -0.00419
63.7 -0.00348
63.75 -0.00313
63.8 -0.00272
63.85 -0.00177
63.9 -0.00189
63.95 -0.0025
64 -0.00253
64.05 -0.00232
64.1 -0.00255
64.15 -0.00239
64.2 -0.00182
64.25 -0.00083
64.3 -0.00074
64.35 -0.00048
64.4 -0.00054
64.45 -0.00107
64.5 -0.0017
64.55 -0.00183
64.6 -0.00225
64.65 -0.00234
64.7 -0.00274
64.75 -0.00309
64.8 -0.00293
64.85 -0.00312
64.9 -0.00332
64.95 -0.00327
65 -0.0034
65.05 -0.00383
65.1 -0.00331
65.15 -0.00225
65.2 -0.00166
65.25 -0.00097
65.3 -0.00005
65.35 0.00068
65.4 0.00083
65.45 0.00095
65.5 0.0012
65.55 0.00049
65.6 0.00033
65.65 0.00068
65.7 0.00086
65.75 0.00095
65.8 0.0008
65.85 0.00115
65.9 0.00146
65.95 0.00198
66 0.00235
66.05 0.00246
66.1 0.00225
66.15 0.0024
66.2 0.00154
66.25 0.00037
66.3 -0.00083
66.35 -0.0019
66.4 -0.0024
66.45 -0.00224
66.5 -0.00224
66.55 -0.00166
66.6 -0.00196
66.65 -0.00259
66.7 -0.00335
66.75 -0.0042
66.8 -0.0046
66.85 -0.00478
66.9 -0.00466
66.95 -0.00485
67 -0.00488
67.05 -0.004
67.1 -0.00327
67.15 -0.00302
67.2 -0.00267
67.25 -0.00284
67.3 -0.00302
67.35 -0.00236
67.4 -0.00186
67.45 -0.00112
67.5 -0.00105
67.55 -0.00118
67.6 -0.00128
67.65 -0.00102
67.7 -0.00132
67.75 -0.00137
67.8 -0.00191
67.85 -0.002
67.9 -0.00248
67.95 -0.00291
68 -0.00355
68.05 -0.00304
68.1 -0.00277
68.15 -0.00192
68.2 -0.00164
68.25 -0.00066
68.3 -0.00018
68.35 -0.00044
68.4 0.00003
68.45 0.00072
68.5 0.00148
68.55 0.0022
68.6 0.00203
68.65 0.00151
68.7 0.00141
68.75 0.00175
68.8 0.00212
68.85 0.00249
68.9 0.0025
68.95 0.00248
69 0.00178
69.05 0.00082
69.1 0.00075
69.15 0.00004
69.2 0.00017
69.25 -0.00042
69.3 -0.00081
69.35 -0.00081
69.4 -0.00086
69.45 -0.0006
69.5 -0.00045
69.55 0.00022
69.6 0.00023
69.65 -0.00021
69.7 -0.00042
69.75 -0.00099
69.8 -0.00171
69.85 -0.00182
69.9 -0.00169
69.95 -0.00092
70 -0.00037
70.05 0.00046
70.1 0.00161
70.15 0.00207
70.2 0.00162
70.25 0.001
70.3 -0.0001
70.35 -0.00061
70.4 -0.00044
70.45 -0.00027
70.5 -0.0003
70.55 -0.00006
70.6 -0.00001
70.65 0.00003
70.7 -0.0003
70.75 -0.00001
70.8 -0.00003
70.85 -0.00022
70.9 -0.0004
70.95 -0.00026
71 0.00019
71.05 -0.00002
71.1 0.00032
71.15 0.00052
71.2 0.00024
71.25 0.00032
71.3 0.00049
71.35 0.0009
71.4 0.00093
71.45 0.00139
71.5 0.00194
71.55 0.00276
71.6 0.00354
71.65 0.00381
71.7 0.00399
71.75 0.00414
71.8 0.00336
71.85 0.00276
71.9 0.00235
71.95 0.00228
72 0.0015
72.05 0.00034
72.1 -0.00065
72.15 -0.00187
72.2 -0.0031
72.25 -0.00344
72.3 -0.0029
72.35 -0.00272
72.4 -0.00222
72.45 -0.00133
72.5 -0.00026
72.55 0.00053
72.6 0.00058
72.65 0.00025
72.7 -0.00012
72.75 -0.00087
72.8 -0.00116
72.85 -0.00112
72.9 -0.00078
72.95 -0.0006
73 -0.00025
73.05 0.00046
73.1 0.001
73.15 0.00181
73.2 0.00206
73.25 0.00219
73.3 0.00189
73.35 0.00135
73.4 0.00028
73.45 -0.00035
73.5 -0.00043
73.55 -0.00098
73.6 -0.00064
73.65 -0.00087
73.7 -0.0011
73.75 -0.00103
73.8 -0.00137
73.85 -0.00165
73.9 -0.0021
73.95 -0.00267
74 -0.0026
74.05 -0.00201
74.1 -0.00089
74.15 -0.0005
74.2 -0.00074
74.25 -0.00136
74.3 -0.00172
74.35 -0.00149
74.4 -0.00095
74.45 -0.00025
74.5 0.00037
74.55 0.00058
74.6 -0.00001
74.65 -0.00083
74.7 -0.00104
74.75 -0.00082
74.8 -0.00102
74.85 -0.00101
74.9 -0.0016
74.95 -0.00177
75 -0.00202
75.05 -0.00244
75.1 -0.00313
75.15 -0.003
75.2 -0.0024
75.25 -0.00204
75.3 -0.00146
75.35 -0.00077
75.4 -0.00059
75.45 -0.00025
75.5 0.00025
75.55 0.00081
75.6 0.00158
75.65 0.00129
75.7 0.00125
75.75 0.0004
75.8 -0.00038
75.85 -0.00025
75.9 0.0004
75.95 0.0012
76 0.00165
76.05 0.00156
76.1 0.00107
76.15 0.00054
76.2 0.0004
76.25 -0
76.3 -0.00008
76.35 0.00037
76.4 0.00116
76.45 0.00147
76.5 0.00126
76.55 0.00122
76.6 0.00058
76.65 -0.00035
76.7 -0.00106
76.75 -0.00198
76.8 -0.00279
76.85 -0.00372
76.9 -0.00444
76.95 -0.00509
77 -0.00449
77.05 -0.00395
77.1 -0.00263
77.15 -0.00114
77.2 0.0002
77.25 0.00047
77.3 0.00082
77.35 0.00109
77.4 0.00088
77.45 0.00127
77.5 0.00095
77.55 0.00011
77.6 0.00008
77.65 -0.00014
77.7 0.00038
77.75 0.00091
77.8 0.00064
77.85 0.00086
77.9 0.00064
77.95 0.00007
78 -0.00073
78.05 -0.00053
78.1 -0.00083
78.15 -0.00083
78.2 -0.00087
78.25 -0.00113
78.3 -0.00062
78.35 0.00019
78.4 0.00098
78.45 0.00078
78.5 0.00053
78.55 0.00082
78.6 0.0012
78.65 0.00172
78.7 0.00131
78.75 0.00136
78.8 0.00066
78.85 0.00024
78.9 0.00007
78.95 -0.00037
79 -0.00124
79.05 -0.00205
79.1 -0.00263
79.15 -0.00246
79.2 -0.0023
79.25 -0.00172
79.3 -0.00171
79.35 -0.00138
79.4 -0.00086
79.45 -0.00057
79.5 -0.00094
79.55 -0.00078
79.6 -0.00067
79.65 -0.00057
79.7 0.00002
79.75 0.00049
79.8 0.00023
79.85 0.00056
79.9 0.00126
79.95 0.0021
80 0.00226
80.05 0.00224
80.1 0.00178
80.15 0.00108
80.2 -0.00009
80.25 -0.00038
80.3 -0.00092
80.35 -0.0008
80.4 -0.00127
80.45 -0.00197
80.5 -0.00283
80.55 -0.0035
80.6 -0.00312
80.65 -0.00307
80.7 -0.00292
80.75 -0.00269
80.8 -0.0024
80.85 -0.00151
80.9 -0.00075
80.95 -0.00047
81 -0.00092
81.05 -0.00061
81.1 -0.00028
81.15 -0.00009
81.2 0.00015
81.25 0.00026
81.3 -0.00005
81.35 -0.00074
81.4 -0.00105
81.45 -0.00087
81.5 -0.00043
81.55 0.0003
81.6 0.00106
81.65 0.00118
81.7 0.00165
81.75 0.00141
81.8 0.00155
81.85 0.00171
81.9 0.00122
81.95 0.00044
82 0.00033
82.05 0.0003
82.1 0.00023
82.15 -0.00025
82.2 -0.00046
82.25 -0.00048
82.3 0.00005
82.35 -0.00025
82.4 -0.0003
82.45 0.00004
82.5 -0.00006
82.55 0.00007
82.6 0.00005
82.65 -0.00041
82.7 -0.00066
82.75 -0.00136
82.8 -0.00098
82.85 -0.00103
82.9 -0.00109
82.95 -0.00121
83 -0.00139
83.05 -0.00192
83.1 -0.0015
83.15 -0.00074
83.2 0.0005
83.25 0.00081
83.3 0.00041
83.35 0.00026
83.4 0.00026
83.45 0.00033
83.5 0.00061
83.55 0.00019
83.6 0.00058
83.65 0.00128
83.7 0.00101
83.75 0.00041
83.8 0.00015
83.85 -0.00006
83.9 0.00003
83.95 -0.00005
84 0.00041
84.05 0.00122
84.1 0.00155
84.15 0.00121
84.2 0.00123
84.25 0.00085
84.3 0.00115
84.35 0.00107
84.4 0.0005
84.45 0.00048
84.5 0.00044
84.55 0.00031
84.6 -0.00007
84.65 -0.00063
84.7 -0.00156
84.75 -0.00136
84.8 -0.00071
84.85 0.00036
84.9 0.00085
84.95 0.00078
85 0.00105
85.05 0.00079
85.1 0.00037
85.15 0.00075
85.2 0.00149
85.25 0.00124
85.3 0.00099
85.35 0.00011
85.4 -0.00089
85.45 -0.00168
85.5 -0.00257
85.55 -0.00323
85.6 -0.00279
85.65 -0.00191
85.7 -0.00077
85.75 -0.00046
85.8 0.00028
85.85 0.00105
85.9 0.00155
85.95 0.00127
86 0.00051
86.05 -0.00061
86.1 -0.00101
86.15 -0.00134
86.2 -0.00083
86.25 -0.00003
86.3 0.00115
86.35 0.00164
86.4 0.00114
86.45 0.00023
86.5 -0.0004
86.55 -0.00098
86.6 -0.0012
86.65 -0.00177
86.7 -0.0017
86.75 -0.00127
86.8 -0.00051
86.85 0.00066
86.9 0.00149
86.95 0.00144
87 0.00153
87.05 0.00209
87.1 0.00222
87.15 0.00244
87.2 0.00265
87.25 0.00233
87.3 0.00239
87.35 0.00215
87.4 0.00179
87.45 0.0016
87.5 0.00125
87.55 0.00063
87.6 -0.00007
87.65 -0.00072
87.7 -0.00107
87.75 -0.00057
87.8 -0.00025
87.85 0.00006
87.9 -0.0004
87.95 -0.00066
88 -0.00145
88.05 -0.00192
88.1 -0.00234
88.15 -0.0018
88.2 -0.00182
88.25 -0.00115
88.3 -0.00093
88.35 -0.00042
88.4 -0.00069
88.45 -0.00017
88.5 -0.00042
88.55 -0.00018
88.6 -0.00062
88.65 -0.00146
88.7 -0.00224
88.75 -0.0024
88.8 -0.00287
88.85 -0.00354
88.9 -0.00304
88.95 -0.00283
89 -0.00302
89.05 -0.0034
89.1 -0.00285
89.15 -0.00274
89.2 -0.00215
89.25 -0.00094
89.3 -0.00005
89.35 0.00003
89.4 -0.00017
89.45 0.00028
89.5 0.00024
89.55 0.00053
89.6 0.00008
89.65 -0.0008
89.7 -0.00074
89.75 -0.00071
89.8 -0.00064
89.85 -0.00039
89.9 -0.00031
89.95 -0.00008
90 -0.00017
90.05 0.00005
90.1 0.00076
90.15 0.00103
90.2 0.00059
90.25 -0.00038
90.3 -0.00127
90.35 -0.00196
90.4 -0.00278
90.45 -0.00254
90.5 -0.00152
90.55 -0.00061
90.6 0.00075
90.65 0.00178
90.7 0.00227
90.75 0.00312
90.8 0.00286
90.85 0.00186
90.9 0.00166
90.95 0.00123
91 0.00051
91.05 0.00021
91.1 0.00039
91.15 0.0005
91.2 0.00108
91.25 0.00138
91.3 0.00113
91.35 0.00098
91.4 0.00146
91.45 0.00185
91.5 0.00224
91.55 0.00265
91.6 0.00211
91.65 0.00125
91.7 0.00076
91.75 -0.0001
91.8 -0.00097
91.85 -0.00113
91.9 -0.00089
91.95 -0.00014
92 0.00104
92.05 0.00177
92.1 0.00255
92.15 0.00265
92.2 0.00314
92.25 0.00373
92.3 0.00413
92.35 0.00349
92.4 0.00332
92.45 0.00222
92.5 0.00168
92.55 0.00116
92.6 0.00069
92.65 -0.00035
92.7 -0.00099
92.75 -0.00168
92.8 -0.00165
92.85 -0.0014
92.9 -0.00167
92.95 -0.0022
93 -0.00219
93.05 -0.00236
93.1 -0.00245
93.15 -0.00271
93.2 -0.00299
93.25 -0.00318
93.3 -0.00357
93.35 -0.00404
93.4 -0.00443
93.45 -0.00374
93.5 -0.0033
93.55 -0.00303
93.6 -0.00321
93.65 -0.00302
93.7 -0.00219
93.75 -0.00133
93.8 -0.00013
93.85 0.00109
93.9 0.00202
93.95 0.00281
94 0.00352
94.05 0.004
94.1 0.00368
94.15 0.00351
94.2 0.00324
94.25 0.0027
94.3 0.00188
94.35 0.00069
94.4 -0
94.45 -0.00023
94.5 -0.00069
94.55 -0.00028
94.6 -0.00019
94.65 -0.00065
94.7 -0.00108
94.75 -0.00158
94.8 -0.00185
94.85 -0.00124
94.9 -0.00069
94.95 0.00036
95 0.00076
95.05 0.00097
95.1 0.00051
95.15 0.00073
95.2 0.00034
95.25 -0.00001
95.3 -0.00029
95.35 -0.00018
95.4 -0.00004
95.45 0.0004
95.5 0.00059
95.55 0.00053
95.6 0.00115
95.65 0.00112
95.7 0.00073
95.75 0.00096
95.8 0.0012
95.85 0.00096
95.9 0.00141
95.95 0.00112
96 0.00058
96.05 -0.00043
96.1 -0.00111
96.15 -0.00138
96.2 -0.00135
96.25 -0.0016
96.3 -0.0012
96.35 -0.00099
96.4 -0.00055
96.45 -0.0009
96.5 -0.00113
96.55 -0.0009
96.6 -0.00019
96.65 0.00019
96.7 0.00032
96.75 0.00014
96.8 0.00069
96.85 0.00106
96.9 0.00093
96.95 0.00045
97 -0.00046
97.05 -0.00146
97.1 -0.00138
97.15 -0.00104
97.2 -0.0008
97.25 0.00001
97.3 0.00011
97.35 0.00063
97.4 0.00139
97.45 0.00202
97.5 0.0027
97.55 0.00336
97.6 0.00365
97.65 0.00415
97.7 0.00428
97.75 0.00442
97.8 0.00469
97.85 0.00386
97.9 0.00363
97.95 0.0032
98 0.00263
98.05 0.00228
98.1 0.0014
98.15 0.00006
98.2 -0.00055
98.25 -0.00096
98.3 -0.00114
98.35 -0.00127
98.4 -0.00172
98.45 -0.00137
98.5 -0.00102
98.55 -0.00133
98.6 -0.0017
98.65 -0.00221
98.7 -0.00201
98.75 -0.00158
98.8 -0.00109
98.85 -0.00105
98.9 -0.00048
98.95 -0.00031
99 -0.00047
99.05 -0.00023
99.1 -0.00033
99.15 -0.00039
99.2 -0.00001
99.25 -0.00023
99.3 -0.00072
99.35 -0.00114
99.4 -0.00136
99.45 -0.00198
99.5 -0.00271
99.55 -0.00287
99.6 -0.00314
99.65 -0.00331
99.7 -0.00271
99.75 -0.00192
99.8 -0.00178
99.85 -0.00142
99.9 -0.0013
99.95 -0.0008
