0 0
0.05 0.00135
0.1 0.00368
0.15 0.00583
0.2 0.00796
0.25 0.01008
0.3 0.01099
0.35 0.01088
0.4 0.01189
0.45 0.01322
0.5 0.01473
0.55 0.0154
0.6 0.01527
0.65 0.01448
0.7 0.0137
0.75 0.01369
0.8 0.01425
0.85 0.01411
0.9 0.0138
0.95 0.01359
1 0.01248
1.05 0.01145
1.1 0.01143
1.15 0.01099
1.2 0.0109
1.25 0.0107
1.3 0.00999
1.35 0.01014
1.4 0.00936
1.45 0.00907
1.5 0.00791
1.55 0.00792
1.6 0.00725
1.65 0.00652
1.7 0.00674
1.75 0.00793
1.8 0.00932
1.85 0.009
1.9 0.008
1.95 0.00733
2 0.00607
2.05 0.00528
2.1 0.00383
2.15 0.00323
2.2 0.00365
2.25 0.00333
2.3 0.00421
2.35 0.00509
2.4 0.00514
2.45 0.00503
2.5 0.0041
2.55 0.00325
2.6 0.00315
2.65 0.00314
2.7 0.00336
2.75 0.00296
2.8 0.00348
2.85 0.00356
2.9 0.00346
2.95 0.00432
3 0.00545
3.05 0.00584
3.1 0.00611
3.15 0.0069
3.2 0.00742
3.25 0.00662
3.3 0.00652
3.35 0.00616
3.4 0.00541
3.45 0.00594
3.5 0.00612
3.55 0.00694
3.6 0.00805
3.65 0.00816
3.7 0.00837
3.75 0.00817
3.8 0.00856
3.85 0.00785
3.9 0.00694
3.95 0.00718
4 0.00646
4.05 0.00574
4.1 0.00553
4.15 0.00538
4.2 0.00533
4.25 0.00549
4.3 0.00457
4.35 0.00287
4.4 0.00098
4.45 -0.00019
4.5 -0.00037
4.55 -0.0005
4.6 -0.00039
4.65 -0.00091
4.7 -0.00043
4.75 -0.00067
4.8 -0.0004
4.85 -0.00072
4.9 -0.00086
4.95 -0.00055
5 0.00036
5.05 0.00115
5.1 0.00135
5.15 0.00136
5.2 0.00196
5.25 0.00146
5.3 0.00099
5.35 0.00064
5.4 0.00147
5.45 0.00125
5.5 0.00054
5.55 0.00095
5.6 0.00181
5.65 0.00237
5.7 0.00324
5.75 0.0034
5.8 0.00289
5.85 0.00272
5.9 0.00327
5.95 0.00296
6 0.00308
6.05 0.00229
6.1 0.00219
6.15 0.00289
6.2 0.0031
6.25 0.00338
6.3 0.00242
6.35 0.00109
6.4 -0.00045
6.45 -0.00203
6.5 -0.00328
6.55 -0.00375
6.6 -0.00292
6.65 -0.00227
6.7 -0.00162
6.75 -0.00088
6.8 -0.00099
6.85 -0.00133
6.9 -0.00026
6.95 0.00149
7 0.00166
7.05 0.00238
7.1 0.00342
7.15 0.00437
7.2 0.00462
7.25 0.00357
7.3 0.00358
7.35 0.00347
7.4 0.00272
7.45 0.00182
7.5 0.00055
7.55 -0.00072
7.6 -0.00173
7.65 -0.00242
7.7 -0.00256
7.75 -0.00258
7.8 -0.00303
7.85 -0.00373
7.9 -0.00329
7.95 -0.00186
8 -0.00138
8.05 -0.00159
8.1 -0.0018
8.15 -0.00118
8.2 -0.00156
8.25 -0.0004
8.3 0.00075
8.35 0.00252
8.4 0.00462
8.45 0.00664
8.5 0.00669
8.55 0.00531
8.6 0.00454
8.65 0.0037
8.7 0.0028
8.75 0.00309
8.8 0.00237
8.85 0.00269
8.9 0.0034
8.95 0.00384
9 0.00316
9.05 0.00225
9.1 0.0014
9.15 0.00067
9.2 -0.00042
9.25 -0.00059
9.3 -0.00129
9.35 -0.00056
9.4 -0.00096
9.45 -0.00087
9.5 -0.00115
9.55 -0.00082
9.6 0.00023
9.65 0.00094
9.7 0.00097
9.75 0.00089
9.8 0.00007
9.85 -0.00037
9.9 -0.00148
9.95 -0.0017
10 -0.00142
10.05 -0.00043
10.1 0.00036
10.15 0.00044
10.2 0.00009
10.25 -0.00018
10.3 0.00012
10.35 0.00042
10.4 0.00122
10.45 0.00261
10.5 0.00362
10.55 0.00391
10.6 0.00423
10.65 0.00506
10.7 0.00539
10.75 0.00566
10.8 0.00479
10.85 0.00364
10.9 0.00161
10.95 -0.00023
11 -0.0021
11.05 -0.00393
11.1 -0.00536
11.15 -0.00597
11.2 -0.00574
11.25 -0.00496
11.3 -0.00387
11.35 -0.00196
11.4 -0.0012
11.45 0.00015
11.5 0.00114
11.55 0.00109
11.6 0.00137
11.65 0.00245
11.7 0.0026
11.75 0.00308
11.8 0.00342
11.85 0.00256
11.9 0.00249
11.95 0.00338
12 0.00411
12.05 0.00475
12.1 0.00564
12.15 0.00577
12.2 0.0048
12.25 0.00294
12.3 0.00071
12.35 -0.00067
12.4 -0.00092
12.45 -0.00062
12.5 -0.00015
12.55 0.00031
12.6 0.0014
12.65 0.0024
12.7 0.0031
12.75 0.00427
12.8 0.00557
12.85 0.00663
12.9 0.00729
12.95 0.00801
13 0.0081
13.05 0.00724
13.1 0.00579
13.15 0.00431
13.2 0.0034
13.25 0.00318
13.3 0.00178
13.35 0.00119
13.4 0.0001
13.45 -0.00105
13.5 -0.00262
13.55 -0.00407
13.6 -0.00451
13.65 -0.00482
13.7 -0.00437
13.75 -0.00276
13.8 -0.00102
13.85 0.00095
13.9 0.0024
13.95 0.00221
14 0.00219
14.05 0.00135
14.1 0.00003
14.15 -0.00064
14.2 -0.00166
14.25 -0.0029
14.3 -0.00346
14.35 -0.00428
14.4 -0.00519
14.45 -0.0056
14.5 -0.00507
14.55 -0.00499
14.6 -0.00348
14.65 -0.00134
14.7 0.00118
14.75 0.00252
14.8 0.00357
14.85 0.0037
14.9 0.00399
14.95 0.0037
15 0.0031
15.05 0.00342
15.1 0.00391
15.15 0.00437
15.2 0.00374
15.25 0.00246
15.3 0.00196
15.35 0.00117
15.4 0.00127
15.45 0.00135
15.5 0.00229
15.55 0.00337
15.6 0.00357
15.65 0.00244
15.7 0.00157
15.75 0.00027
15.8 -0.00141
15.85 -0.00248
15.9 -0.002
15.95 -0.00198
16 -0.00192
16.05 -0.00192
16.1 -0.00073
16.15 -0.00076
16.2 -0.00129
16.25 -0.00223
16.3 -0.00282
16.35 -0.00379
16.4 -0.00339
16.45 -0.0029
16.5 -0.00336
16.55 -0.00234
16.6 -0.00241
16.65 -0.00171
16.7 -0.00053
16.75 0.00103
16.8 0.00254
16.85 0.0035
16.9 0.0042
16.95 0.00422
17 0.00287
17.05 0.00161
17.1 0.00051
17.15 -0.00106
17.2 -0.0014
17.25 -0.00122
17.3 -0.00063
17.35 0.00078
17.4 0.00095
17.45 0.00189
17.5 0.00304
17.55 0.0036
17.6 0.00448
17.65 0.00392
17.7 0.00387
17.75 0.00356
17.8 0.00212
17.85 0.00124
17.9 0.00024
17.95 -0.00106
18 -0.00135
18.05 -0.00123
18.1 -0.00019
18.15 0.00084
18.2 0.00215
18.25 0.00261
18.3 0.00166
18.35 0.00147
18.4 0.00007
18.45 -0.00043
18.5 -0.00146
18.55 -0.00255
18.6 -0.00329
18.65 -0.00339
18.7 -0.00368
18.75 -0.00406
18.8 -0.0045
18.85 -0.00348
18.9 -0.00321
18.95 -0.00217
19 -0.00144
19.05 -0.00159
19.1 -0.00138
19.15 -0.00074
19.2 -0.00038
19.25 0.00082
19.3 0.00236
19.35 0.00249
19.4 0.00324
19.45 0.00363
19.5 0.00285
19.55 0.00211
19.6 0.00184
19.65 0.00207
19.7 0.00191
19.75 0.00171
19.8 0.00233
19.85 0.0035
19.9 0.00292
19.95 0.00325
20 0.00226
20.05 0.00193
20.1 0.00156
20.15 0.00071
20.2 -0.00037
20.25 -0.00195
20.3 -0.00257
20.35 -0.00226
20.4 -0.00218
20.45 -0.00253
20.5 -0.00224
20.55 -0.00218
20.6 -0.00189
20.65 -0.0006
20.7 -0.00021
20.75 -0.00053
20.8 -0.00116
20.85 -0.00137
20.9 -0.0012
20.95 -0.00029
21 0.00001
21.05 -0.00025
21.1 -0.00067
21.15 -0.00044
21.2 -0.00052
21.25 -0.00016
21.3 0.00084
21.35 0.0024
21.4 0.00331
21.45 0.00297
21.5 0.00219
21.55 0.00214
21.6 0.00215
21.65 0.00261
21.7 0.00341
21.75 0.00309
21.8 0.00274
21.85 0.00231
21.9 0.00145
21.95 0.00094
22 0.00091
22.05 0.00151
22.1 0.00122
22.15 0.00068
22.2 -0.00051
22.25 -0.00143
22.3 -0.00284
22.35 -0.00298
22.4 -0.0032
22.45 -0.0022
22.5 -0.00088
22.55 -0.00042
22.6 -0.00114
22.65 -0.00103
22.7 -0.0013
22.75 -0.00102
22.8 -0.00036
22.85 -0.00062
22.9 -0.00005
22.95 0.00105
23 0.00108
23.05 0.00148
23.1 0.00219
23.15 0.00265
23.2 0.0028
23.25 0.00182
23.3 0.00159
23.35 0.00199
23.4 0.00262
23.45 0.00258
23.5 0.00209
23.55 0.00103
23.6 -0.00003
23.65 -0.00164
23.7 -0.00184
23.75 -0.00237
23.8 -0.0023
23.85 -0.00196
23.9 -0.00121
23.95 -0.00109
24 -0.00194
24.05 -0.00139
24.1 0.00004
24.15 -0
24.2 -0.00038
24.25 0.00039
24.3 -0.00026
24.35 -0.00035
24.4 0.00018
24.45 -0.00065
24.5 -0.00208
24.55 -0.0023
24.6 -0.00145
24.65 -0.00007
24.7 0.00066
24.75 0.00138
24.8 0.0024
24.85 0.00285
24.9 0.00239
24.95 0.00219
25 0.00246
25.05 0.00187
25.1 0.00115
25.15 0.00051
25.2 0.00099
25.25 0.00158
25.3 0.0027
25.35 0.0039
25.4 0.00486
25.45 0.0059
25.5 0.00551
25.55 0.00421
25.6 0.00284
25.65 0.00179
25.7 0.00009
25.75 -0.00032
25.8 0.00013
25.85 0.00074
25.9 0.00057
25.95 0.00126
26 0.00138
26.05 0.00119
26.1 0.00005
26.15 -0.00085
26.2 -0.00187
26.25 -0.0035
26.3 -0.00472
26.35 -0.00476
26.4 -0.00359
26.45 -0.00333
26.5 -0.00226
26.55 -0.00095
26.6 0.00021
26.65 0.00112
26.7 0.00135
26.75 0.00137
26.8 0.00055
26.85 -0.00049
26.9 -0.00155
26.95 -0.00162
27 -0.00231
27.05 -0.00265
27.1 -0.00259
27.15 -0.00268
27.2 -0.00273
27.25 -0.00322
27.3 -0.00411
27.35 -0.00423
27.4 -0.00379
27.45 -0.00435
27.5 -0.00467
27.55 -0.00414
27.6 -0.00281
27.65 -0.00286
27.7 -0.00284
27.75 -0.00217
27.8 -0.00247
27.85 -0.00269
27.9 -0.00168
27.95 -0.00081
28 0.00033
28.05 0.0013
28.1 0.00227
28.15 0.0016
28.2 0.00128
28.25 0.00107
28.3 0.0014
28.35 0.00196
28.4 0.00205
28.45 0.00151
28.5 0.00135
28.55 0.00119
28.6 0.00048
28.65 -0.00143
28.7 -0.00382
28.75 -0.0066
28.8 -0.00887
28.85 -0.01073
28.9 -0.01119
28.95 -0.01152
29 -0.01133
29.05 -0.01236
29.1 -0.01452
29.15 -0.01801
29.2 -0.02226
29.25 -0.02683
29.3 -0.03093
29.35 -0.03588
29.4 -0.04099
29.45 -0.04622
29.5 -0.05275
29.55 -0.06122
29.6 -0.07146
29.65 -0.08324
29.7 -0.09473
29.75 -0.10816
29.8 -0.12244
29.85 -0.13852
29.9 -0.1555
29.95 -0.17488
30 -0.19634
30.05 -0.21811
30.1 -0.24148
30.15 -0.26602
30.2 -0.29188
30.25 -0.3198
30.3 -0.34813
30.35 -0.37751
30.4 -0.40798
30.45 -0.43982
30.5 -0.47199
30.55 -0.50476
30.6 -0.53705
30.65 -0.56688
30.7 -0.59417
30.75 -0.61939
30.8 -0.6412
30.85 -0.6592
30.9 -0.67492
30.95 -0.68584
31 -0.6919
31.05 -0.69465
31.1 -0.69307
31.15 -0.68704
31.2 -0.67583
31.25 -0.65913
31.3 -0.63786
31.35 -0.61138
31.4 -0.58035
31.45 -0.54369
31.5 -0.5034
31.55 -0.45967
31.6 -0.41325
31.65 -0.36488
31.7 -0.31451
31.75 -0.26337
31.8 -0.21159
31.85 -0.15872
31.9 -0.10536
31.95 -0.05312
32 -0.00223
32.05 0.04792
32.1 0.09714
32.15 0.14448
32.2 0.18831
32.25 0.22947
32.3 0.26799
32.35 0.30275
32.4 0.33553
32.45 0.36551
32.5 0.39346
32.55 0.41803
32.6 0.44104
32.65 0.46046
32.7 0.47847
32.75 0.49439
32.8 0.5077
32.85 0.52069
32.9 0.53144
32.95 0.54058
33 0.54874
33.05 0.55607
33.1 0.56146
33.15 0.56554
33.2 0.56947
33.25 0.5713
33.3 0.57146
33.35 0.57034
33.4 0.57033
33.45 0.57007
33.5 0.56876
33.55 0.56672
33.6 0.5628
33.65 0.5589
33.7 0.55324
33.75 0.54714
33.8 0.54018
33.85 0.53281
33.9 0.52273
33.95 0.5114
34 0.49899
34.05 0.48706
34.1 0.47397
34.15 0.46052
34.2 0.44685
34.25 0.43198
34.3 0.4173
34.35 0.40316
34.4 0.38889
34.45 0.37404
34.5 0.35964
34.55 0.34469
34.6 0.32982
34.65 0.31546
34.7 0.30141
34.75 0.28817
34.8 0.27428
34.85 0.26087
34.9 0.2476
34.95 0.23387
35 0.21965
35.05 0.20686
35.1 0.19408
35.15 0.18101
35.2 0.16816
35.25 0.15576
35.3 0.14534
35.35 0.13478
35.4 0.12596
35.45 0.11696
35.5 0.10782
35.55 0.0984
35.6 0.09029
35.65 0.08244
35.7 0.07436
35.75 0.06655
35.8 0.05901
35.85 0.05243
35.9 0.04649
35.95 0.03995
36 0.03428
36.05 0.02907
36.1 0.0241
36.15 0.01829
36.2 0.01284
36.25 0.00716
36.3 0.0024
36.35 -0.0016
36.4 -0.00533
36.45 -0.00941
36.5 -0.01313
36.55 -0.01655
36.6 -0.02041
36.65 -0.02467
36.7 -0.02919
36.75 -0.03327
36.8 -0.03648
36.85 -0.03974
36.9 -0.04304
36.95 -0.04468
37 -0.0461
37.05 -0.04845
37.1 -0.05059
37.15 -0.05215
37.2 -0.05384
37.25 -0.05528
37.3 -0.05684
37.35 -0.05755
37.4 -0.05794
37.45 -0.05796
37.5 -0.05875
37.55 -0.06001
37.6 -0.0621
37.65 -0.06369
37.7 -0.06518
37.75 -0.06677
37.8 -0.06917
37.85 -0.07226
37.9 -0.07506
37.95 -0.07689
38 -0.07827
38.05 -0.07816
38.1 -0.07731
38.15 -0.07711
38.2 -0.07784
38.25 -0.07756
38.3 -0.07726
38.35 -0.07744
38.4 -0.07784
38.45 -0.07776
38.5 -0.07848
38.55 -0.07796
38.6 -0.07641
38.65 -0.07515
38.7 -0.0736
38.75 -0.0736
38.8 -0.07365
38.85 -0.07417
38.9 -0.07403
38.95 -0.07262
39 -0.07214
39.05 -0.07111
39.1 -0.07128
39.15 -0.07137
39.2 -0.07007
39.25 -0.06834
39.3 -0.06594
39.35 -0.06513
39.4 -0.06368
39.45 -0.06177
39.5 -0.06164
39.55 -0.06166
39.6 -0.06114
39.65 -0.06039
39.7 -0.05934
39.75 -0.05867
39.8 -0.05768
39.85 -0.0572
39.9 -0.05577
39.95 -0.0558
40 -0.05665
40.05 -0.05727
40.1 -0.05765
40.15 -0.05762
40.2 -0.05711
40.25 -0.05652
40.3 -0.05478
40.35 -0.05248
40.4 -0.05031
40.45 -0.04944
40.5 -0.04939
40.55 -0.05017
40.6 -0.04921
40.65 -0.04825
40.7 -0.04711
40.75 -0.04557
40.8 -0.04464
40.85 -0.04408
40.9 -0.04456
40.95 -0.04498
41 -0.04543
41.05 -0.04421
41.1 -0.04256
41.15 -0.0404
41.2 -0.03894
41.25 -0.03776
41.3 -0.03659
41.35 -0.03536
41.4 -0.0354
41.45 -0.03462
41.5 -0.03449
41.55 -0.03455
41.6 -0.03557
41.65 -0.03576
41.7 -0.03471
41.75 -0.03431
41.8 -0.03365
41.85 -0.032
41.9 -0.03067
41.95 -0.0296
42 -0.02954
42.05 -0.02987
42.1 -0.02973
42.15 -0.02933
42.2 -0.02838
42.25 -0.02823
42.3 -0.02864
42.35 -0.02898
42.4 -0.02885
42.45 -0.02949
42.5 -0.02911
42.55 -0.02761
42.6 -0.02724
42.65 -0.02672
42.7 -0.02715
42.75 -0.02655
42.8 -0.02602
42.85 -0.02476
42.9 -0.02409
42.95 -0.02349
43 -0.02367
43.05 -0.02276
43.1 -0.02173
43.15 -0.02065
43.2 -0.019
43.25 -0.01866
43.3 -0.0178
43.35 -0.01785
43.4 -0.01845
43.45 -0.01886
43.5 -0.01864
43.55 -0.01775
43.6 -0.01796
43.65 -0.01726
43.7 -0.01671
43.75 -0.01624
43.8 -0.01679
43.85 -0.01777
43.9 -0.0187
43.95 -0.01925
44 -0.01853
44.05 -0.01865
44.1 -0.01878
44.15 -0.01934
44.2 -0.02012
44.25 -0.02092
44.3 -0.0214
44.35 -0.02074
44.4 -0.02053
44.45 -0.02066
44.5 -0.02112
44.55 -0.01983
44.6 -0.01874
44.65 -0.01696
44.7 -0.01438
44.75 -0.01288
44.8 -0.01243
44.85 -0.011
44.9 -0.00919
44.95 -0.00831
45 -0.00755
45.05 -0.00734
45.1 -0.00787
45.15 -0.00766
45.2 -0.00872
45.25 -0.00969
45.3 -0.00992
45.35 -0.00996
45.4 -0.01033
45.45 -0.01123
45.5 -0.01239
45.55 -0.01211
45.6 -0.01104
45.65 -0.00972
45.7 -0.00836
45.75 -0.00696
45.8 -0.00634
45.85 -0.00557
45.9 -0.00465
45.95 -0.0037
46 -0.00334
46.05 -0.0041
46.1 -0.00418
46.15 -0.004
46.2 -0.00527
46.25 -0.00687
46.3 -0.00779
46.35 -0.00879
46.4 -0.01004
46.45 -0.01153
46.5 -0.01223
46.55 -0.01164
46.6 -0.01127
46.65 -0.01048
46.7 -0.01062
46.75 -0.0104
46.8 -0.00997
46.85 -0.01025
46.9 -0.00944
46.95 -0.00834
47 -0.0065
47.05 -0.00601
47.1 -0.00513
47.15 -0.00531
47.2 -0.00467
47.25 -0.00396
47.3 -0.00397
47.35 -0.00338
47.4 -0.00244
47.45 -0.00312
47.5 -0.00388
47.55 -0.00409
47.6 -0.00407
47.65 -0.0035
47.7 -0.00314
47.75 -0.00205
47.8 -0.00101
47.85 -0.00001
47.9 -0.00053
47.95 -0.0002
48 -0.00029
48.05 -0.00061
48.1 -0.00187
48.15 -0.00285
48.2 -0.003
48.25 -0.0031
48.3 -0.00267
48.35 -0.00319
48.4 -0.00269
48.45 -0.00147
48.5 -0.00187
48.55 -0.00242
48.6 -0.00209
48.65 -0.00266
48.7 -0.00286
48.75 -0.00342
48.8 -0.0034
48.85 -0.00291
48.9 -0.00325
48.95 -0.0038
49 -0.00518
49.05 -0.00508
49.1 -0.00521
49.15 -0.00497
49.2 -0.00494
49.25 -0.00532
49.3 -0.00551
49.35 -0.00612
49.4 -0.00736
49.45 -0.00865
49.5 -0.00918
49.55 -0.00819
49.6 -0.0076
49.65 -0.00731
49.7 -0.00661
49.75 -0.00569
49.8 -0.00414
49.85 -0.00275
49.9 -0.00176
49.95 -0.00114
50 0.00004
50.05 0.00126
50.1 0.00219
50.15 0.00229
50.2 0.0026
50.25 0.00245
50.3 0.00132
50.35 0.00124
50.4 0.00118
50.45 0.00014
50.5 -0.00021
50.55 -0.00047
50.6 -0.00125
50.65 -0.00146
50.7 -0.00067
50.75 0.00044
50.8 0.00004
50.85 -0.00071
50.9 -0.00121
50.95 -0.00113
51 -0.00038
51.05 0.00024
51.1 -0.00062
51.15 -0.00143
51.2 -0.00167
51.25 -0.00292
51.3 -0.00408
51.35 -0.00544
51.4 -0.00617
51.45 -0.00546
51.5 -0.00439
51.55 -0.00348
51.6 -0.00329
51.65 -0.0022
51.7 -0.00111
51.75 -0.00095
51.8 -0.00108
51.85 -0.00085
51.9 -0.00156
51.95 -0.002
52 -0.00288
52.05 -0.00361
52.1 -0.00372
52.15 -0.00259
52.2 -0.00235
52.25 -0.00314
52.3 -0.00369
52.35 -0.00313
52.4 -0.0017
52.45 -0.00068
52.5 -0.00108
52.55 -0.00109
52.6 -0.0013
52.65 -0.00085
52.7 -0.00035
52.75 -0.0011
52.8 -0.00153
52.85 -0.00108
52.9 -0.00177
52.95 -0.00153
53 -0.00167
53.05 -0.00241
53.1 -0.00347
53.15 -0.00341
53.2 -0.0025
53.25 -0.0023
53.3 -0.00147
53.35 -0.00048
53.4 -0.00006
53.45 -0.00034
53.5 -0.00142
53.55 -0.00251
53.6 -0.00378
53.65 -0.00345
53.7 -0.00341
53.75 -0.00394
53.8 -0.00317
53.85 -0.00258
53.9 -0.00148
53.95 -0.00067
54 -0.0006
54.05 0.00007
54.1 0.00138
54.15 0.00104
54.2 0.0016
54.25 0.00252
54.3 0.00208
54.35 0.00103
54.4 0.00091
54.45 0.00094
54.5 0.00065
54.55 0.00044
54.6 0.00069
54.65 -0.00022
54.7 -0.00086
54.75 -0.00166
54.8 -0.00272
54.85 -0.00395
54.9 -0.00343
54.95 -0.00295
55 -0.00272
55.05 -0.00164
55.1 -0.00032
55.15 -0.00036
55.2 -0.00015
55.25 0.00055
55.3 0.00183
55.35 0.00225
55.4 0.00123
55.45 0.00122
55.5 0.00047
55.55 -0.00072
55.6 -0.0018
55.65 -0.00193
55.7 -0.00288
55.75 -0.00244
55.8 -0.00177
55.85 -0.0007
55.9 0
55.95 0.00025
56 0.0001
56.05 -0.00097
56.1 -0.00219
56.15 -0.00317
56.2 -0.00441
56.25 -0.00578
56.3 -0.00667
56.35 -0.00733
56.4 -0.00812
56.45 -0.00765
56.5 -0.00571
56.55 -0.00368
56.6 -0.003
56.65 -0.00164
56.7 0.00027
56.75 0.00151
56.8 0.00204
56.85 0.00304
56.9 0.00385
56.95 0.00301
57 0.00276
57.05 0.00248
57.1 0.00258
57.15 0.00243
57.2 0.00253
57.25 0.00309
57.3 0.00235
57.35 0.0023
57.4 0.00191
57.45 0.00162
57.5 0.00091
57.55 0.00024
57.6 -0.00114
57.65 -0.00144
57.7 -0.00261
57.75 -0.00265
57.8 -0.00219
57.85 -0.00226
57.9 -0.00187
57.95 -0.0006
58 -0.00043
58.05 -0.00022
58.1 0.00085
58.15 0.00061
58.2 0.00143
58.25 0.00257
58.3 0.00213
58.35 0.00107
58.4 0.00127
58.45 0.00175
58.5 0.00149
58.55 0.00085
58.6 -0.00005
58.65 -0.00113
58.7 -0.00152
58.75 -0.00168
58.8 -0.00196
58.85 -0.00284
58.9 -0.00356
58.95 -0.00467
59 -0.00536
59.05 -0.00533
59.1 -0.00568
59.15 -0.00484
59.2 -0.00292
59.25 -0.00172
59.3 -0.00036
59.35 0.00134
59.4 0.00221
59.45 0.00358
59.5 0.00395
59.55 0.00339
59.6 0.00252
59.65 0.0021
59.7 0.00205
59.75 0.00139
59.8 -0.00013
59.85 -0.00095
59.9 -0.00233
59.95 -0.00237
60 -0.00139
60.05 -0.00067
60.1 -0.0006
60.15 -0.00035
60.2 -0.00075
60.25 -0.00049
60.3 0.00019
60.35 0.00017
60.4 -0.00079
60.45 -0.00071
60.5 0.00026
60.55 0.00024
60.6 0.00026
60.65 -0.00038
60.7 -0.0006
60.75 -0.0002
60.8 0.00088
60.85 0.00171
60.9 0.00266
60.95 0.0033
61 0.00329
61.05 0.00371
61.1 0.0026
61.15 0.00188
61.2 0.00057
61.25 -0.00104
61.3 -0.00115
61.35 -0.00188
61.4 -0.00176
61.45 -0.0022
61.5 -0.00321
61.55 -0.00365
61.6 -0.00377
61.65 -0.00415
61.7 -0.00395
61.75 -0.00371
61.8 -0.00322
61.85 -0.00361
61.9 -0.0031
61.95 -0.00205
62 -0.00082
62.05 -0.0002
62.1 -0.0006
62.15 -0.00071
62.2 -0.00136
62.25 -0.00251
62.3 -0.00377
62.35 -0.00515
62.4 -0.00597
62.45 -0.00542
62.5 -0.00499
62.55 -0.00513
62.6 -0.00538
62.65 -0.00592
62.7 -0.00631
62.75 -0.00498
62.8 -0.00268
62.85 -0.00128
62.9 0.00021
62.95 0.00129
63 0.00113
63.05 0.00168
63.1 0.00274
63.15 0.00306
63.2 0.00383
63.25 0.00357
63.3 0.00266
63.35 0.00129
63.4 -0.00001
63.45 0.00014
63.5 0.00021
63.55 -0.00027
63.6 0.00039
63.65 -0.00008
63.7 -0.00046
63.75 0.00038
63.8 0.00065
63.85 0.00003
63.9 0.00068
63.95 0.00152
64 0.00165
64.05 0.00258
64.1 0.0033
64.15 0.00297
64.2 0.00181
64.25 -0.00002
64.3 -0.00163
64.35 -0.00184
64.4 -0.00232
64.45 -0.00276
64.5 -0.00279
64.55 -0.0025
64.6 -0.00165
64.65 -0.00088
64.7 -0.00109
64.75 -0.00204
64.8 -0.00159
64.85 -0.00185
64.9 -0.00276
64.95 -0.00348
65 -0.00297
65.05 -0.00231
65.1 -0.00267
65.15 -0.00308
65.2 -0.00328
65.25 -0.00377
65.3 -0.00271
65.35 -0.00234
65.4 -0.0028
65.45 -0.00213
65.5 -0.00077
65.55 0.00085
65.6 0.00297
65.65 0.00418
65.7 0.00363
65.75 0.00388
65.8 0.00296
65.85 0.00305
65.9 0.00271
65.95 0.00309
66 0.00319
66.05 0.00314
66.1 0.00396
66.15 0.00377
66.2 0.00417
66.25 0.0034
66.3 0.00234
66.35 0.0022
66.4 0.00287
66.45 0.00295
66.5 0.00239
66.55 0.0019
66.6 0.0004
66.65 0.00051
66.7 0.00043
66.75 0.00065
66.8 0.00125
66.85 0.00252
66.9 0.00219
66.95 0.00121
67 0.00068
67.05 -0.00028
67.1 -0.0007
67.15 0.00005
67.2 0.00107
67.25 0.00181
67.3 0.00239
67.35 0.00323
67.4 0.00434
67.45 0.00504
67.5 0.00487
67.55 0.00361
67.6 0.0032
67.65 0.0036
67.7 0.00363
67.75 0.00261
67.8 0.00082
67.85 -0.00123
67.9 -0.00202
67.95 -0.00135
68 -0.00186
68.05 -0.00311
68.1 -0.00292
68.15 -0.00356
68.2 -0.00364
68.25 -0.00415
68.3 -0.00472
68.35 -0.00535
68.4 -0.00581
68.45 -0.00509
68.5 -0.00427
68.55 -0.00296
68.6 -0.00215
68.65 -0.00083
68.7 0.00069
68.75 0.00247
68.8 0.00311
68.85 0.00426
68.9 0.00537
68.95 0.00531
69 0.00439
69.05 0.00371
69.1 0.0032
69.15 0.00256
69.2 0.00097
69.25 0.00039
69.3 0.00043
69.35 0.00095
69.4 0.00037
69.45 -0.00037
69.5 -0.0013
69.55 -0.00102
69.6 -0.00098
69.65 -0.00068
69.7 0.00004
69.75 0.00041
69.8 0.00105
69.85 0.00091
69.9 0.00132
69.95 0.00241
70 0.00297
70.05 0.00228
70.1 0.00113
70.15 -0.00078
70.2 -0.00164
70.25 -0.00177
70.3 -0.00192
70.35 -0.00257
70.4 -0.00194
70.45 -0.00203
70.5 -0.00149
70.55 -0.00006
70.6 0.00043
70.65 0.00103
70.7 0.00222
70.75 0.00347
70.8 0.00334
70.85 0.00266
70.9 0.00094
70.95 -0.00029
71 -0.00103
71.05 -0.00087
71.1 -0.00068
71.15 -0.00112
71.2 -0.00232
71.25 -0.00299
71.3 -0.00337
71.35 -0.00421
71.4 -0.00383
71.45 -0.00358
71.5 -0.00386
71.55 -0.0044
71.6 -0.00456
71.65 -0.00389
71.7 -0.00321
71.75 -0.00274
71.8 -0.00174
71.85 -0.00024
71.9 -0.00014
71.95 -0.00069
72 -0.00203
72.05 -0.00366
72.1 -0.00386
72.15 -0.00434
72.2 -0.0041
72.25 -0.00438
72.3 -0.0045
72.35 -0.00442
72.4 -0.00488
72.45 -0.00451
72.5 -0.00473
72.55 -0.00458
72.6 -0.00422
72.65 -0.00291
72.7 -0.0007
72.75 0.0018
72.8 0.00368
72.85 0.00446
72.9 0.00396
72.95 0.00344
73 0.0033
73.05 0.00269
73.1 0.00148
73.15 0.00163
73.2 0.00113
73.25 0.00076
73.3 0.00072
73.35 0.00005
73.4 -0.00082
73.45 -0.00147
73.5 -0.00216
73.55 -0.00234
73.6 -0.00216
73.65 -0.00086
73.7 0.00073
73.75 0.00253
73.8 0.00459
73.85 0.00628
73.9 0.00694
73.95 0.00681
74 0.00718
74.05 0.00789
74.1 0.00847
74.15 0.00746
74.2 0.00615
74.25 0.00421
74.3 0.00213
74.35 0.00143
74.4 0.00166
74.45 0.00068
74.5 0.00023
74.55 -0.00017
74.6 -0.00021
74.65 0.0008
74.7 0.00169
74.75 0.00279
74.8 0.00309
74.85 0.00298
74.9 0.00303
74.95 0.00315
75 0.00203
75.05 0.00192
75.1 0.00065
75.15 -0.0006
75.2 -0.0021
75.25 -0.00192
75.3 -0.0017
75.35 -0.00125
75.4 -0.00013
75.45 0.0002
75.5 0.001
75.55 0.0007
75.6 0.00141
75.65 0.0019
75.7 0.00149
75.75 0.00065
75.8 -0.00047
75.85 -0.00165
75.9 -0.00278
75.95 -0.00417
76 -0.00458
76.05 -0.00504
76.1 -0.00461
76.15 -0.00332
76.2 -0.00244
76.25 -0.00162
76.3 -0.00015
76.35 0.00151
76.4 0.00151
76.45 0.0016
76.5 0.00145
76.55 0.00171
76.6 0.00249
76.65 0.00174
76.7 0.00154
76.75 0.00114
76.8 0.0012
76.85 0.00212
76.9 0.00265
76.95 0.00253
77 0.003
77.05 0.00292
77.1 0.00193
77.15 0.00131
77.2 0.00016
77.25 0.00016
77.3 0.00102
77.35 0.00173
77.4 0.00241
77.45 0.00361
77.5 0.00426
77.55 0.00372
77.6 0.00334
77.65 0.00353
77.7 0.00342
77.75 0.00389
77.8 0.00384
77.85 0.00241
77.9 0.00118
77.95 0.00074
78 0.00133
78.05 0.00112
78.1 0.00141
78.15 0.0005
78.2 -0.00049
78.25 -0.00063
78.3 -0.00162
78.35 -0.0032
78.4 -0.00483
78.45 -0.00473
78.5 -0.00393
78.55 -0.00281
78.6 -0.00154
78.65 -0.00164
78.7 -0.00073
78.75 0.00076
78.8 0.00165
78.85 0.00267
78.9 0.00258
78.95 0.00148
79 0.00115
79.05 0.00109
79.1 0.00063
79.15 -0.00036
79.2 -0.00018
79.25 0.0005
79.3 0.0006
79.35 0
79.4 -0.00148
79.45 -0.00199
79.5 -0.00239
79.55 -0.00263
79.6 -0.00176
79.65 -0.00103
79.7 -0.00113
79.75 -0.00064
79.8 0.00047
79.85 0.00068
79.9 0.00137
79.95 0.0009
80 0.00001
80.05 -0.001
80.1 -0.00173
80.15 -0.00249
80.2 -0.00259
80.25 -0.00354
80.3 -0.00285
80.35 -0.00226
80.4 -0.00227
80.45 -0.00226
80.5 -0.00121
80.55 0.00048
80.6 0.00169
80.65 0.00307
80.7 0.00267
80.75 0.00134
80.8 -0.00045
80.85 -0.00234
80.9 -0.00318
80.95 -0.0043
81 -0.00379
81.05 -0.00344
81.1 -0.00349
81.15 -0.00269
81.2 -0.00296
81.25 -0.00273
81.3 -0.00303
81.35 -0.00307
81.4 -0.00236
81.45 -0.00104
81.5 0.00056
81.55 0.00089
81.6 0.00131
81.65 0.00153
81.7 0.00168
81.75 0.0013
81.8 0.00095
81.85 0.00077
81.9 -0.00021
81.95 -0.00173
82 -0.00291
82.05 -0.00352
82.1 -0.00467
82.15 -0.00504
82.2 -0.00425
82.25 -0.00353
82.3 -0.00213
82.35 -0.00151
82.4 -0.00052
82.45 0.00079
82.5 0.00226
82.55 0.00367
82.6 0.00477
82.65 0.00569
82.7 0.00619
82.75 0.00571
82.8 0.00546
82.85 0.00476
82.9 0.00484
82.95 0.00504
83 0.0042
83.05 0.00407
83.1 0.00314
83.15 0.00255
83.2 0.00144
83.25 0.00037
83.3 -0.00048
83.35 -0.00129
83.4 -0.00274
83.45 -0.00293
83.5 -0.00183
83.55 -0.00085
83.6 0.00032
83.65 0.00022
83.7 -0.00042
83.75 -0.00165
83.8 -0.00188
83.85 -0.00135
83.9 -0.00019
83.95 0.00123
84 0.00108
84.05 -0.00018
84.1 -0.00183
84.15 -0.00209
84.2 -0.00239
84.25 -0.00279
84.3 -0.00323
84.35 -0.00425
84.4 -0.00457
84.45 -0.00426
84.5 -0.00463
84.55 -0.00546
84.6 -0.00451
84.65 -0.00332
84.7 -0.00184
84.75 -0.00153
84.8 -0.00162
84.85 -0.0006
84.9 0.00102
84.95 0.00244
85 0.00232
85.05 0.00156
85.1 0.00071
85.15 0.00071
85.2 -0.00032
85.25 -0.00073
85.3 -0.00006
85.35 0.00113
85.4 0.0018
85.45 0.00204
85.5 0.00151
85.55 0.00056
85.6 0.00057
85.65 0.00079
85.7 0.00043
85.75 0.00019
85.8 -0.00071
85.85 -0.00087
85.9 -0.00042
85.95 -0.00091
86 -0.00191
86.05 -0.00286
86.1 -0.00366
86.15 -0.00304
86.2 -0.00163
86.25 0.00005
86.3 0.00052
86.35 0.00137
86.4 0.00125
86.45 0.00159
86.5 0.00091
86.55 0.00041
86.6 0.00018
86.65 -0.00018
86.7 -0.00109
86.75 -0.0016
86.8 -0.00231
86.85 -0.00346
86.9 -0.00494
86.95 -0.00594
87 -0.00502
87.05 -0.00463
87.1 -0.00309
87.15 -0.00196
87.2 -0.00069
87.25 -0.00073
87.3 -0.00055
87.35 0.00053
87.4 0.00053
87.45 0.00014
87.5 0.00031
87.55 -0.0001
87.6 -0.00055
87.65 -0.00141
87.7 -0.00244
87.75 -0.00234
87.8 -0.00303
87.85 -0.00326
87.9 -0.00374
87.95 -0.00339
88 -0.00394
88.05 -0.00496
88.1 -0.0062
88.15 -0.00722
88.2 -0.00807
88.25 -0.00809
88.3 -0.00628
88.35 -0.00363
88.4 -0.00055
88.45 0.00216
88.5 0.00287
88.55 0.00409
88.6 0.00536
88.65 0.00619
88.7 0.00654
88.75 0.0065
88.8 0.00514
88.85 0.00284
88.9 0.0007
88.95 -0.00017
89 0.00009
89.05 0.00046
89.1 0.00119
89.15 0.00122
89.2 0.00125
89.25 0.00077
89.3 0.00068
89.35 0.00126
89.4 0.00209
89.45 0.00226
89.5 0.00131
89.55 0.00074
89.6 0.00083
89.65 0.00095
89.7 0.00096
89.75 0.00186
89.8 0.00231
89.85 0.00313
89.9 0.00325
89.95 0.0024
90 0.00197
90.05 0.00189
90.1 0.00229
90.15 0.00276
90.2 0.0024
90.25 0.001
90.3 0.0005
90.35 0.00103
90.4 0.00207
90.45 0.00153
90.5 0.00042
90.55 0.00013
90.6 0.00033
90.65 0.00063
90.7 0.00162
90.75 0.00254
90.8 0.00269
90.85 0.00272
90.9 0.00324
90.95 0.00252
91 0.00146
91.05 0.00012
91.1 -0.00082
91.15 -0.00208
91.2 -0.00327
91.25 -0.00442
91.3 -0.00481
91.35 -0.00524
91.4 -0.00585
91.45 -0.00562
91.5 -0.00499
91.55 -0.00456
91.6 -0.00432
91.65 -0.00337
91.7 -0.00333
91.75 -0.00268
91.8 -0.00148
91.85 -0.00051
91.9 0.00063
91.95 0.00039
92 -0.00082
92.05 -0.00123
92.1 -0.00047
92.15 -0.00052
92.2 -0.00044
92.25 0.00049
92.3 0.0018
92.35 0.00308
92.4 0.00402
92.45 0.00506
92.5 0.00555
92.55 0.00453
92.6 0.00405
92.65 0.00393
92.7 0.00359
92.75 0.00248
92.8 0.00175
92.85 0.00102
92.9 0.00107
92.95 0.00082
93 0.00076
93.05 0.00091
93.1 0.00042
93.15 -0.00063
93.2 -0.00155
93.25 -0.00255
93.3 -0.00278
93.35 -0.00371
93.4 -0.00328
93.45 -0.00353
93.5 -0.00395
93.55 -0.00449
93.6 -0.00351
93.65 -0.00272
93.7 -0.0026
93.75 -0.0033
93.8 -0.00304
93.85 -0.00192
93.9 0.00003
93.95 0.00134
94 0.00153
94.05 0.00206
94.1 0.00274
94.15 0.00369
94.2 0.00323
94.25 0.00163
94.3 0.00039
94.35 -0.00134
94.4 -0.00188
94.45 -0.00261
94.5 -0.00327
94.55 -0.00364
94.6 -0.00333
94.65 -0.00274
94.7 -0.00162
94.75 0.00026
94.8 0.0019
94.85 0.00351
94.9 0.00527
94.95 0.00592
95 0.00624
95.05 0.00673
95.1 0.00608
95.15 0.00436
95.2 0.00377
95.25 0.00367
95.3 0.0027
95.35 0.00161
95.4 0.00109
95.45 0.00106
95.5 0.00018
95.55 -0.00002
95.6 -0.00112
95.65 -0.00276
95.7 -0.0037
95.75 -0.00436
95.8 -0.00385
95.85 -0.00337
95.9 -0.00297
95.95 -0.00253
96 -0.00192
96.05 -0.00217
96.1 -0.00195
96.15 -0.00203
96.2 -0.00231
96.25 -0.00151
96.3 0.00009
96.35 0.00148
96.4 0.00126
96.45 0.00188
96.5 0.00292
96.55 0.00343
96.6 0.00335
96.65 0.004
96.7 0.00472
96.75 0.00494
96.8 0.00507
96.85 0.00432
96.9 0.00327
96.95 0.00201
97 0.00181
97.05 0.00203
97.1 0.00157
97.15 0.00179
97.2 0.00076
97.25 -0.00058
97.3 -0.00065
97.35 -0.00083
97.4 -0.00178
97.45 -0.00225
97.5 -0.0021
97.55 -0.00157
97.6 -0.00125
97.65 -0.00061
97.7 0.00001
97.75 0.00047
97.8 0.0012
97.85 0.00231
97.9 0.00281
97.95 0.0019
98 0.00127
98.05 -0.00003
98.1 0.00011
98.15 0.00006
98.2 -0.00104
98.25 -0.00168
98.3 -0.00291
98.35 -0.00449
98.4 -0.00516
98.45 -0.00601
98.5 -0.00515
98.55 -0.00444
98.6 -0.003
98.65 -0.00159
98.7 -0.00036
98.75 0.00122
98.8 0.0018
98.85 0.0016
98.9 0.00144
98.95 0.00067
99 -0.00047
99.05 -0.00189
99.1 -0.00227
99.15 -0.00228
99.2 -0.00208
99.25 -0.00074
99.3 0.0004
99.35 0.00177
99.4 0.0022
99.45 0.00268
99.5 0.00207
99.55 0.0019
99.6 0.00218
99.65 0.00301
99.7 0.00275
99.75 0.00155
99.8 -0.00017
99.85 -0.0017
99.9 -0.00354
99.95 -0.00431
