0 0
0.05 0.00039
0.1 0.00107
0.15 0.00186
0.2 0.00262
0.25 0.00317
0.3 0.00331
0.35 0.00358
0.4 0.00391
0.45 0.00387
0.5 0.00379
0.55 0.00378
0.6 0.00354
0.65 0.00325
0.7 0.00321
0.75 0.00312
0.8 0.00284
0.85 0.00256
0.9 0.00211
0.95 0.00198
1 0.00188
1.05 0.00179
1.1 0.00155
1.15 0.00162
1.2 0.00155
1.25 0.00146
1.3 0.00135
1.35 0.00112
1.4 0.00082
1.45 0.00057
1.5 0.0003
1.55 0.00027
1.6 0.00057
1.65 0.0009
1.7 0.00142
1.75 0.00156
1.8 0.00155
1.85 0.00172
1.9 0.00165
1.95 0.0018
2 0.00174
2.05 0.00159
2.1 0.00145
2.15 0.00125
2.2 0.00124
2.25 0.00142
2.3 0.00176
2.35 0.00185
2.4 0.00213
2.45 0.00229
2.5 0.00221
2.55 0.00235
2.6 0.00254
2.65 0.00256
2.7 0.00248
2.75 0.00252
2.8 0.00245
2.85 0.00252
2.9 0.00225
2.95 0.00212
3 0.0018
3.05 0.00154
3.1 0.00139
3.15 0.00123
3.2 0.00132
3.25 0.00136
3.3 0.00152
3.35 0.0017
3.4 0.00187
3.45 0.00202
3.5 0.00182
3.55 0.0018
3.6 0.0016
3.65 0.00134
3.7 0.00108
3.75 0.00083
3.8 0.00053
3.85 0.00032
3.9 0.00005
3.95 -0.00002
4 0.00015
4.05 0.00042
4.1 0.00039
4.15 0.00053
4.2 0.00068
4.25 0.00087
4.3 0.00084
4.35 0.00098
4.4 0.00125
4.45 0.00138
4.5 0.00133
4.55 0.00111
4.6 0.0009
4.65 0.00067
4.7 0.0005
4.75 0.00045
4.8 0.00058
4.85 0.00084
4.9 0.00099
4.95 0.00102
5 0.00094
5.05 0.00077
5.1 0.0005
5.15 0.00037
5.2 0.00038
5.25 0.00051
5.3 0.00052
5.35 0.00058
5.4 0.00052
5.45 0.00062
5.5 0.00047
5.55 0.00041
5.6 0.00033
5.65 0.00017
5.7 0.0003
5.75 0.00027
5.8 0.00007
5.85 0.00013
5.9 0
5.95 -0.00002
6 -0
6.05 0.00028
6.1 0.00051
6.15 0.00041
6.2 0.00037
6.25 0.00018
6.3 0.0001
6.35 -0.00014
6.4 -0.0001
6.45 0.00008
6.5 0.00018
6.55 0.00043
6.6 0.00069
6.65 0.00098
6.7 0.00134
6.75 0.00147
6.8 0.00169
6.85 0.00188
6.9 0.00172
6.95 0.0013
7 0.00091
7.05 0.00068
7.1 0.00032
7.15 0.00018
7.2 0.00031
7.25 0.00023
7.3 0.0002
7.35 0.00039
7.4 0.0003
7.45 0
7.5 -0.00032
7.55 -0.00069
7.6 -0.00068
7.65 -0.00079
7.7 -0.00054
7.75 -0.00016
7.8 0.00029
7.85 0.00046
7.9 0.00061
7.95 0.00085
8 0.00107
8.05 0.00103
8.1 0.00099
8.15 0.00107
8.2 0.00104
8.25 0.00098
8.3 0.00107
8.35 0.00112
8.4 0.0013
8.45 0.0013
8.5 0.00119
8.55 0.00097
8.6 0.00074
8.65 0.00042
8.7 0.00024
8.75 0.00002
8.8 -0.00024
8.85 -0.00062
8.9 -0.001
8.95 -0.00133
9 -0.0016
9.05 -0.00188
9.1 -0.00167
9.15 -0.00144
9.2 -0.0011
9.25 -0.00084
9.3 -0.0005
9.35 -0.00011
9.4 0.00001
9.45 -0.00011
9.5 -0.00035
9.55 -0.00045
9.6 -0.00035
9.65 -0.00032
9.7 -0.00028
9.75 -0.00015
9.8 -0.00024
9.85 -0.00007
9.9 0.00022
9.95 0.00018
10 0.0003
10.05 0.00019
10.1 0.00002
10.15 -0.00015
10.2 -0.00039
10.25 -0.00059
10.3 -0.0007
10.35 -0.00069
10.4 -0.00059
10.45 -0.00027
10.5 0.00015
10.55 0.00053
10.6 0.0006
10.65 0.00072
10.7 0.001
10.75 0.00134
10.8 0.00151
10.85 0.00159
10.9 0.00136
10.95 0.00132
11 0.00138
11.05 0.00131
11.1 0.00136
11.15 0.00127
11.2 0.00106
11.25 0.00072
11.3 0.00066
11.35 0.00033
11.4 0.00021
11.45 -0.00004
11.5 -0.00038
11.55 -0.00053
11.6 -0.00058
11.65 -0.00051
11.7 -0.00063
11.75 -0.00073
11.8 -0.00058
11.85 -0.0003
11.9 -0.00016
11.95 -0.00022
12 -0.00043
12.05 -0.00077
12.1 -0.00115
12.15 -0.00148
12.2 -0.0014
12.25 -0.00141
12.3 -0.0014
12.35 -0.00126
12.4 -0.00093
12.45 -0.00048
12.5 0
12.55 0.00026
12.6 0.00023
12.65 0.00019
12.7 0.00036
12.75 0.00056
12.8 0.00069
12.85 0.0009
12.9 0.0012
12.95 0.00112
13 0.00078
13.05 0.00062
13.1 0.00035
13.15 0.00023
13.2 -0.00008
13.25 -0.00009
13.3 -0.00033
13.35 -0.00034
13.4 -0.0005
13.45 -0.00061
13.5 -0.00065
13.55 -0.00066
13.6 -0.00053
13.65 -0.00045
13.7 -0.00034
13.75 -0.00013
13.8 -0.00008
13.85 -0.00016
13.9 -0.00037
13.95 -0.00055
14 -0.00054
14.05 -0.00028
14.1 -0.00001
14.15 0.00038
14.2 0.00063
14.25 0.00052
14.3 0.00031
14.35 0.00035
14.4 0.00052
14.45 0.00071
14.5 0.00069
14.55 0.00054
14.6 0.00026
14.65 -0.00017
14.7 -0.00032
14.75 -0.0006
14.8 -0.0009
14.85 -0.00125
14.9 -0.00138
14.95 -0.00134
15 -0.00115
15.05 -0.0007
15.1 -0.00027
15.15 -0.00013
15.2 -0.00009
15.25 0.00009
15.3 0.00038
15.35 0.00033
15.4 0.00016
15.45 0.0001
15.5 0.00016
15.55 0.0003
15.6 0.00019
15.65 -0.00006
15.7 -0.00011
15.75 0.00002
15.8 0.00035
15.85 0.00048
15.9 0.00054
15.95 0.00047
16 0.0004
16.05 0.00057
16.1 0.00045
16.15 0.0002
16.2 0.00015
16.25 0.00031
16.3 0.00017
16.35 0.00029
16.4 0.00037
16.45 0.00015
16.5 0.00008
16.55 -0.00007
16.6 -0.00005
16.65 -0.00011
16.7 -0.00011
16.75 0.00013
16.8 0.0004
16.85 0.00063
16.9 0.00048
16.95 0.00054
17 0.00051
17.05 0.00052
17.1 0.00064
17.15 0.00064
17.2 0.00051
17.25 0.00049
17.3 0.00033
17.35 0.00033
17.4 0.00038
17.45 0.0002
17.5 -0.00005
17.55 -0.00005
17.6 -0.00029
17.65 -0.00031
17.7 -0.00025
17.75 -0.00038
17.8 -0.00059
17.85 -0.00054
17.9 -0.00059
17.95 -0.00075
18 -0.0007
18.05 -0.00039
18.1 0.00001
18.15 0.00026
18.2 0.00062
18.25 0.00068
18.3 0.00041
18.35 0.00045
18.4 0.00045
18.45 0.00062
18.5 0.00088
18.55 0.00074
18.6 0.00062
18.65 0.00067
18.7 0.00074
18.75 0.00049
18.8 0.00041
18.85 0.00014
18.9 -0.00003
18.95 -0.00016
19 -0.0003
19.05 -0.00044
19.1 -0.00043
19.15 -0.00019
19.2 -0.00015
19.25 -0.00015
19.3 0.00007
19.35 0.0003
19.4 0.00048
19.45 0.00031
19.5 0.00008
19.55 -0.00003
19.6 -0.00013
19.65 -0.00039
19.7 -0.00061
19.75 -0.00057
19.8 -0.00053
19.85 -0.0003
19.9 0.00003
19.95 0.00031
20 0.00044
20.05 0.00041
20.1 0.00052
20.15 0.00065
20.2 0.00081
20.25 0.00084
20.3 0.00083
20.35 0.0007
20.4 0.00064
20.45 0.00062
20.5 0.00052
20.55 0.00015
20.6 -0.00022
20.65 -0.00025
20.7 -0.00008
20.75 -0.00003
20.8 -0.00013
20.85 -0.00041
20.9 -0.00055
20.95 -0.00045
21 -0.00031
21.05 -0.00009
21.1 -0.00015
21.15 -0.00029
21.2 -0.00048
21.25 -0.00038
21.3 -0.00042
21.35 -0.00034
21.4 -0.00032
21.45 -0.00016
21.5 -0.00019
21.55 -0.00044
21.6 -0.00035
21.65 -0.00017
21.7 -0.0001
21.75 0.00017
21.8 0.0001
21.85 -0.00013
21.9 -0.00012
21.95 0.00003
22 0.0003
22.05 0.00023
22.1 0.00032
22.15 0.0004
22.2 0.00037
22.25 0.00013
22.3 0.00014
22.35 -0.00009
22.4 -0.00029
22.45 -0.00033
22.5 -0.00039
22.55 -0.00036
22.6 -0.00045
22.65 -0.00041
22.7 -0.00041
22.75 -0.00052
22.8 -0.00068
22.85 -0.00077
22.9 -0.00053
22.95 -0.00026
23 -0.00012
23.05 -0.00009
23.1 0.00018
23.15 0.00036
23.2 0.00048
23.25 0.00063
23.3 0.00062
23.35 0.0005
23.4 0.0006
23.45 0.00051
23.5 0.00046
23.55 0.00014
23.6 -0.00007
23.65 -0.00014
23.7 -0.00005
23.75 -0.00023
23.8 -0.00052
23.85 -0.00049
23.9 -0.00044
23.95 -0.00041
24 -0.00036
24.05 -0.00054
24.1 -0.00047
24.15 -0.00016
24.2 0.00008
24.25 0.00014
24.3 0.00004
24.35 0.00004
24.4 0.00021
24.45 0.00053
24.5 0.00066
24.55 0.00053
24.6 0.00025
24.65 0.00007
24.7 -0.00019
24.75 -0.00033
24.8 -0.00019
24.85 0.00004
24.9 0.0001
24.95 0.00002
25 0.00007
25.05 -0.00014
25.1 -0.00038
25.15 -0.00041
25.2 -0.0005
25.25 -0.00057
25.3 -0.00072
25.35 -0.00082
25.4 -0.00104
25.45 -0.0012
25.5 -0.00114
25.55 -0.00101
25.6 -0.001
25.65 -0.00109
25.7 -0.00118
25.75 -0.0013
25.8 -0.00136
25.85 -0.00114
25.9 -0.00083
25.95 -0.00046
26 -0.00007
26.05 0.00042
26.1 0.00052
26.15 0.00049
26.2 0.00048
26.25 0.00069
26.3 0.00066
26.35 0.0004
26.4 0.00031
26.45 0.00011
26.5 0.00014
26.55 0.00034
26.6 0.00041
26.65 0.00032
26.7 0.00007
26.75 -0.00025
26.8 -0.0002
26.85 -0.0001
26.9 0.00016
26.95 0.00019
27 0.00042
27.05 0.00064
27.1 0.00091
27.15 0.00099
27.2 0.00113
27.25 0.00136
27.3 0.0015
27.35 0.00152
27.4 0.00143
27.45 0.00145
27.5 0.00117
27.55 0.0007
27.6 0.00034
27.65 0.00027
27.7 0.00031
27.75 0.00022
27.8 0.00024
27.85 0.0003
27.9 0.00048
27.95 0.00077
28 0.00072
28.05 0.00074
28.1 0.00065
28.15 0.00058
28.2 0.00053
28.25 0.00021
28.3 -0.00017
28.35 -0.00063
28.4 -0.00072
28.45 -0.00076
28.5 -0.0008
28.55 -0.00056
28.6 -0.00041
28.65 -0.00014
28.7 -0.00017
28.75 -0.00027
28.8 -0.00034
28.85 -0.00041
28.9 -0.00066
28.95 -0.00098
29 -0.00125
29.05 -0.00124
29.1 -0.0012
29.15 -0.00118
29.2 -0.00108
29.25 -0.00072
29.3 -0.00023
29.35 0.00005
29.4 0.00019
29.45 0.00038
29.5 0.00046
29.55 0.00036
29.6 0.00035
29.65 0.00013
29.7 0.00018
29.75 0.00003
29.8 0.00016
29.85 -0.00001
29.9 0.00001
29.95 0.00019
30 0.00048
30.05 0.00042
30.1 0.00037
30.15 0.00012
30.2 -0.0003
30.25 -0.00033
30.3 -0.00017
30.35 -0.00031
30.4 -0.00017
30.45 0.00014
30.5 0.0003
30.55 0.00022
30.6 -0.0001
30.65 -0.00043
30.7 -0.00044
30.75 -0.00039
30.8 -0.00015
30.85 -0.00008
30.9 -0.00025
30.95 -0.0004
31 -0.00023
31.05 -0.00012
31.1 -0.00027
31.15 -0.00021
31.2 -0.00019
31.25 0.00006
31.3 0.00004
31.35 -0.00004
31.4 -0.00016
31.45 -0.00027
31.5 -0.00037
31.55 -0.00023
31.6 0.00003
31.65 0.0004
31.7 0.00043
31.75 0.00047
31.8 0.00043
31.85 0.00054
31.9 0.00038
31.95 0.0001
32 -0.00015
32.05 -0.00023
32.1 -0.00012
32.15 0.00009
32.2 0.0002
32.25 0.0002
32.3 0.00036
32.35 0.00055
32.4 0.00066
32.45 0.00064
32.5 0.00075
32.55 0.00081
32.6 0.00055
32.65 0.00034
32.7 0.0003
32.75 -0
32.8 -0.00006
32.85 -0.00028
32.9 -0.0006
32.95 -0.0008
33 -0.00109
33.05 -0.00142
33.1 -0.00167
33.15 -0.00176
33.2 -0.00175
33.25 -0.00182
33.3 -0.00169
33.35 -0.00146
33.4 -0.00127
33.45 -0.00101
33.5 -0.0008
33.55 -0.00058
33.6 -0.00053
33.65 -0.00044
33.7 -0.00031
33.75 0.00002
33.8 0.0003
33.85 0.00037
33.9 0.00038
33.95 0.00058
34 0.00067
34.05 0.00079
34.1 0.00089
34.15 0.00069
34.2 0.00069
34.25 0.00065
34.3 0.00052
34.35 0.00015
34.4 -0.00009
34.45 0.00001
34.5 0.00001
34.55 -0.00004
34.6 -0.00015
34.65 -0.0001
34.7 -0.00024
34.75 -0.00054
34.8 -0.00082
34.85 -0.00073
34.9 -0.0008
34.95 -0.0009
35 -0.00112
35.05 -0.00122
35.1 -0.00137
35.15 -0.00139
35.2 -0.00117
35.25 -0.00111
35.3 -0.00112
35.35 -0.00114
35.4 -0.00124
35.45 -0.00117
35.5 -0.00116
35.55 -0.00104
35.6 -0.0008
35.65 -0.00072
35.7 -0.00079
35.75 -0.00092
35.8 -0.00077
35.85 -0.00046
35.9 -0.0002
35.95 -0.00019
36 -0.00019
36.05 -0.0003
36.1 -0.00039
36.15 -0.00061
36.2 -0.00082
36.25 -0.00078
36.3 -0.0009
36.35 -0.00084
36.4 -0.00057
36.45 -0.00036
36.5 -0.00024
36.55 -0.00006
36.6 0.00003
36.65 0.00015
36.7 0.00031
36.75 0.0006
36.8 0.0008
36.85 0.00077
36.9 0.0005
36.95 0.00052
37 0.00062
37.05 0.00041
37.1 0.00035
37.15 0.00027
37.2 0.00022
37.25 0.00039
37.3 0.00035
37.35 0.00042
37.4 0.00055
37.45 0.00047
37.5 0.00029
37.55 -0.00005
37.6 -0.00043
37.65 -0.00066
37.7 -0.00072
37.75 -0.00054
37.8 -0.00043
37.85 -0.0003
37.9 -0.00032
37.95 -0.00026
38 -0.00023
38.05 -0.00038
38.1 -0.0003
38.15 -0.00041
38.2 -0.00041
38.25 -0.00024
38.3 0.00008
38.35 0.00005
38.4 -0.00011
38.45 -0.00043
38.5 -0.00076
38.55 -0.00092
38.6 -0.00078
38.65 -0.00057
38.7 -0.0007
38.75 -0.00069
38.8 -0.00087
38.85 -0.00133
38.9 -0.00158
38.95 -0.00174
39 -0.00202
39.05 -0.0022
39.1 -0.00264
39.15 -0.00323
39.2 -0.00404
39.25 -0.00467
39.3 -0.00524
39.35 -0.00585
39.4 -0.0068
39.45 -0.00811
39.5 -0.00941
39.55 -0.01088
39.6 -0.01257
39.65 -0.0145
39.7 -0.01684
39.75 -0.01952
39.8 -0.02258
39.85 -0.02556
39.9 -0.02879
39.95 -0.03236
40 -0.036
40.05 -0.03987
40.1 -0.04389
40.15 -0.04831
40.2 -0.05265
40.25 -0.05716
40.3 -0.06158
40.35 -0.06618
40.4 -0.07098
40.45 -0.07584
40.5 -0.0808
40.55 -0.0856
40.6 -0.09048
40.65 -0.09548
40.7 -0.10019
40.75 -0.10493
40.8 -0.10919
40.85 -0.11311
40.9 -0.11677
40.95 -0.1201
41 -0.12268
41.05 -0.12451
41.1 -0.12578
41.15 -0.12662
41.2 -0.1271
41.25 -0.12693
41.3 -0.12636
41.35 -0.12537
41.4 -0.12378
41.45 -0.1215
41.5 -0.11844
41.55 -0.11497
41.6 -0.11099
41.65 -0.10643
41.7 -0.10134
41.75 -0.09551
41.8 -0.08935
41.85 -0.08262
41.9 -0.07538
41.95 -0.06761
42 -0.05956
42.05 -0.05127
42.1 -0.04294
42.15 -0.03431
42.2 -0.02538
42.25 -0.01665
42.3 -0.0076
42.35 0.00132
42.4 0.01046
42.45 0.01971
42.5 0.02896
42.55 0.0382
42.6 0.04756
42.65 0.0568
42.7 0.06572
42.75 0.07429
42.8 0.08281
42.85 0.09106
42.9 0.09891
42.95 0.10617
43 0.11309
43.05 0.11965
43.1 0.12561
43.15 0.13087
43.2 0.13535
43.25 0.13944
43.3 0.14303
43.35 0.14604
43.4 0.14857
43.45 0.15023
43.5 0.15108
43.55 0.15148
43.6 0.15126
43.65 0.15052
43.7 0.14926
43.75 0.14734
43.8 0.14491
43.85 0.14193
43.9 0.13848
43.95 0.13446
44 0.13037
44.05 0.1262
44.1 0.12184
44.15 0.11755
44.2 0.11292
44.25 0.10822
44.3 0.10333
44.35 0.09844
44.4 0.09381
44.45 0.08944
44.5 0.08492
44.55 0.08071
44.6 0.0766
44.65 0.07257
44.7 0.06877
44.75 0.06512
44.8 0.06156
44.85 0.05815
44.9 0.05504
44.95 0.05179
45 0.04883
45.05 0.04582
45.1 0.04288
45.15 0.04016
45.2 0.03755
45.25 0.03538
45.3 0.03347
45.35 0.03185
45.4 0.03037
45.45 0.02871
45.5 0.02742
45.55 0.02635
45.6 0.02524
45.65 0.02404
45.7 0.02299
45.75 0.0217
45.8 0.02047
45.85 0.01932
45.9 0.01815
45.95 0.01726
46 0.01635
46.05 0.01561
46.1 0.01464
46.15 0.01366
46.2 0.0126
46.25 0.01146
46.3 0.01016
46.35 0.00889
46.4 0.00752
46.45 0.00643
46.5 0.00537
46.55 0.00417
46.6 0.00338
46.65 0.00265
46.7 0.00174
46.75 0.00109
46.8 0.00028
46.85 -0.00071
46.9 -0.00139
46.95 -0.00186
47 -0.00227
47.05 -0.00286
47.1 -0.00365
47.15 -0.00424
47.2 -0.00518
47.25 -0.00603
47.3 -0.00677
47.35 -0.00757
47.4 -0.00814
47.45 -0.0086
47.5 -0.00925
47.55 -0.00997
47.6 -0.01067
47.65 -0.0115
47.7 -0.01229
47.75 -0.01292
47.8 -0.01361
47.85 -0.0139
47.9 -0.01433
47.95 -0.01467
48 -0.01482
48.05 -0.0152
48.1 -0.01529
48.15 -0.01545
48.2 -0.01555
48.25 -0.01578
48.3 -0.01596
48.35 -0.01605
48.4 -0.01604
48.45 -0.01617
48.5 -0.01618
48.55 -0.01606
48.6 -0.01612
48.65 -0.01623
48.7 -0.01659
48.75 -0.01668
48.8 -0.01698
48.85 -0.01717
48.9 -0.01704
48.95 -0.01667
49 -0.01638
49.05 -0.01608
49.1 -0.01615
49.15 -0.01626
49.2 -0.01611
49.25 -0.01612
49.3 -0.01634
49.35 -0.01645
49.4 -0.01655
49.45 -0.01672
49.5 -0.01656
49.55 -0.01612
49.6 -0.0155
49.65 -0.01486
49.7 -0.01433
49.75 -0.01411
49.8 -0.01419
49.85 -0.01399
49.9 -0.01399
49.95 -0.01394
50 -0.01407
50.05 -0.01405
50.1 -0.0142
50.15 -0.01444
50.2 -0.01465
50.25 -0.01469
50.3 -0.01434
50.35 -0.01371
50.4 -0.0134
50.45 -0.01325
50.5 -0.01287
50.55 -0.01244
50.6 -0.01202
50.65 -0.01159
50.7 -0.01113
50.75 -0.01106
50.8 -0.01097
50.85 -0.01077
50.9 -0.01081
50.95 -0.01066
51 -0.01077
51.05 -0.01092
51.1 -0.01093
51.15 -0.01094
51.2 -0.01071
51.25 -0.01027
51.3 -0.01011
51.35 -0.00974
51.4 -0.00948
51.45 -0.00949
51.5 -0.00941
51.55 -0.0095
51.6 -0.00933
51.65 -0.00936
51.7 -0.00925
51.75 -0.00895
51.8 -0.00867
51.85 -0.00824
51.9 -0.00787
51.95 -0.00747
52 -0.00723
52.05 -0.00725
52.1 -0.00712
52.15 -0.00713
52.2 -0.00732
52.25 -0.00747
52.3 -0.00749
52.35 -0.00729
52.4 -0.00692
52.45 -0.0069
52.5 -0.0066
52.55 -0.00647
52.6 -0.00622
52.65 -0.00617
52.7 -0.00593
52.75 -0.00589
52.8 -0.00594
52.85 -0.00573
52.9 -0.00546
52.95 -0.00511
53 -0.00498
53.05 -0.00506
53.1 -0.00493
53.15 -0.00478
53.2 -0.00493
53.25 -0.00485
53.3 -0.00504
53.35 -0.00511
53.4 -0.00512
53.45 -0.00529
53.5 -0.00524
53.55 -0.00518
53.6 -0.00491
53.65 -0.00462
53.7 -0.00458
53.75 -0.00472
53.8 -0.00465
53.85 -0.00452
53.9 -0.0045
53.95 -0.00425
54 -0.00406
54.05 -0.00401
54.1 -0.00383
54.15 -0.00354
54.2 -0.00359
54.25 -0.00349
54.3 -0.00347
54.35 -0.00342
54.4 -0.0034
54.45 -0.00337
54.5 -0.00352
54.55 -0.00365
54.6 -0.00369
54.65 -0.0036
54.7 -0.00327
54.75 -0.00314
54.8 -0.00311
54.85 -0.00301
54.9 -0.0031
54.95 -0.00324
55 -0.0031
55.05 -0.00277
55.1 -0.00239
55.15 -0.00219
55.2 -0.00209
55.25 -0.00227
55.3 -0.00252
55.35 -0.00264
55.4 -0.00262
55.45 -0.00264
55.5 -0.0025
55.55 -0.00261
55.6 -0.00261
55.65 -0.00245
55.7 -0.00215
55.75 -0.00199
55.8 -0.00194
55.85 -0.00196
55.9 -0.002
55.95 -0.00189
56 -0.00187
56.05 -0.00184
56.1 -0.00189
56.15 -0.00208
56.2 -0.00204
56.25 -0.00182
56.3 -0.0019
56.35 -0.00204
56.4 -0.00193
56.45 -0.00163
56.5 -0.00143
56.55 -0.00156
56.6 -0.00181
56.65 -0.00198
56.7 -0.00198
56.75 -0.00206
56.8 -0.00204
56.85 -0.00205
56.9 -0.00187
56.95 -0.00176
57 -0.00174
57.05 -0.00163
57.1 -0.00152
57.15 -0.00147
57.2 -0.00137
57.25 -0.00139
57.3 -0.00136
57.35 -0.00134
57.4 -0.00154
57.45 -0.00167
57.5 -0.00163
57.55 -0.0015
57.6 -0.00139
57.65 -0.00134
57.7 -0.00115
57.75 -0.00091
57.8 -0.00062
57.85 -0.00047
57.9 -0.00031
57.95 -0.00049
58 -0.00078
58.05 -0.00116
58.1 -0.00126
58.15 -0.00112
58.2 -0.00107
58.25 -0.00095
58.3 -0.00089
58.35 -0.00069
58.4 -0.00047
58.45 -0.0003
58.5 -0.00041
58.55 -0.00037
58.6 -0.00018
58.65 -0.00032
58.7 -0.00071
58.75 -0.00087
58.8 -0.00081
58.85 -0.0007
58.9 -0.00051
58.95 -0.00038
59 -0.0006
59.05 -0.00059
59.1 -0.00078
59.15 -0.00097
59.2 -0.00092
59.25 -0.00103
59.3 -0.00111
59.35 -0.0011
59.4 -0.00127
59.45 -0.00117
59.5 -0.00107
59.55 -0.00082
59.6 -0.00059
59.65 -0.00032
59.7 -0.00042
59.75 -0.00057
59.8 -0.0007
59.85 -0.0007
59.9 -0.00061
59.95 -0.00078
60 -0.00112
60.05 -0.00149
60.1 -0.00157
60.15 -0.00137
60.2 -0.00109
60.25 -0.00072
60.3 -0.0007
60.35 -0.00071
60.4 -0.00088
60.45 -0.00092
60.5 -0.00108
60.55 -0.00136
60.6 -0.00164
60.65 -0.00189
60.7 -0.00181
60.75 -0.00157
60.8 -0.00145
60.85 -0.00135
60.9 -0.00125
60.95 -0.00096
61 -0.00055
61.05 -0.00011
61.1 -0.00012
61.15 -0.00001
61.2 -0.00019
61.25 -0.00032
61.3 -0.00019
61.35 -0.00006
61.4 -0.00008
61.45 -0.00003
61.5 0.00016
61.55 0.00042
61.6 0.00072
61.65 0.0008
61.7 0.00054
61.75 0.00025
61.8 0.00018
61.85 0.00015
61.9 0.00016
61.95 0.0003
62 0.0005
62.05 0.00037
62.1 0.00031
62.15 0.00008
62.2 -0.00012
62.25 -0.00044
62.3 -0.0006
62.35 -0.00078
62.4 -0.0008
62.45 -0.00078
62.5 -0.00077
62.55 -0.0008
62.6 -0.00065
62.65 -0.00069
62.7 -0.00079
62.75 -0.001
62.8 -0.00086
62.85 -0.00097
62.9 -0.00105
62.95 -0.00112
63 -0.00127
63.05 -0.00108
63.1 -0.0008
63.15 -0.00079
63.2 -0.00062
63.25 -0.00027
63.3 -0.00011
63.35 -0.00021
63.4 -0.00028
63.45 -0.00052
63.5 -0.00089
63.55 -0.00096
63.6 -0.00076
63.65 -0.0004
63.7 -0.00037
63.75 -0.00029
63.8 -0.00042
63.85 -0.00055
63.9 -0.00047
63.95 -0.00023
64 -0.00016
64.05 -0.00019
64.1 -0.00046
64.15 -0.00057
64.2 -0.00068
64.25 -0.00093
64.3 -0.00098
64.35 -0.00071
64.4 -0.00034
64.45 0.0001
64.5 0.00055
64.55 0.0007
64.6 0.00087
64.65 0.00108
64.7 0.00121
64.75 0.00136
64.8 0.00127
64.85 0.00099
64.9 0.00048
64.95 0.00013
65 -0.00036
65.05 -0.00063
65.1 -0.0008
65.15 -0.00086
65.2 -0.00102
65.25 -0.00112
65.3 -0.00101
65.35 -0.00082
65.4 -0.00089
65.45 -0.00113
65.5 -0.00115
65.55 -0.00107
65.6 -0.00075
65.65 -0.00068
65.7 -0.00064
65.75 -0.00073
65.8 -0.00058
65.85 -0.00041
65.9 -0.00006
65.95 0.00026
66 0.00043
66.05 0.0005
66.1 0.00027
66.15 0.00004
66.2 -0.00025
66.25 -0.00018
66.3 -0.00013
66.35 -0.00013
66.4 0.00003
66.45 0.0002
66.5 0.00006
66.55 0.00011
66.6 0.00011
66.65 0.00005
66.7 -0.00013
66.75 -0.00015
66.8 -0.0002
66.85 -0.0001
66.9 0.00013
66.95 0.00005
67 0.00016
67.05 -0.00004
67.1 -0.00016
67.15 -0.00019
67.2 -0.00041
67.25 -0.00074
67.3 -0.00102
67.35 -0.00123
67.4 -0.00128
67.45 -0.00106
67.5 -0.00088
67.55 -0.00074
67.6 -0.00074
67.65 -0.00057
67.7 -0.00053
67.75 -0.00027
67.8 -0.00029
67.85 -0.00044
67.9 -0.0007
67.95 -0.00068
68 -0.00057
68.05 -0.0004
68.1 -0.0001
68.15 -0.00002
68.2 -0.00005
68.25 0.00009
68.3 -0.00005
68.35 -0.00005
68.4 0.00015
68.45 0.00006
68.5 0.00014
68.55 0.00041
68.6 0.00078
68.65 0.00101
68.7 0.00088
68.75 0.00084
68.8 0.00051
68.85 0.00017
68.9 -0.0003
68.95 -0.00034
69 -0.00016
69.05 -0.00024
69.1 -0.00037
69.15 -0.00021
69.2 -0.00018
69.25 -0.00033
69.3 -0.00022
69.35 -0.00028
69.4 -0.00052
69.45 -0.00082
69.5 -0.00087
69.55 -0.00079
69.6 -0.00051
69.65 -0.00016
69.7 0.00005
69.75 0.00017
69.8 0.0003
69.85 0.00026
69.9 0.00001
69.95 -0.00021
70 -0.00024
70.05 -0.00041
70.1 -0.00031
70.15 -0.00013
70.2 0.00017
70.25 0.00054
70.3 0.00065
70.35 0.00082
70.4 0.00103
70.45 0.00123
70.5 0.00111
70.55 0.00104
70.6 0.00092
70.65 0.00068
70.7 0.0007
70.75 0.0006
70.8 0.00024
70.85 -0.00014
70.9 -0.00058
70.95 -0.00098
71 -0.00133
71.05 -0.00157
71.1 -0.00168
71.15 -0.00186
71.2 -0.00191
71.25 -0.0019
71.3 -0.00172
71.35 -0.00143
71.4 -0.0013
71.45 -0.00127
71.5 -0.00129
71.55 -0.00113
71.6 -0.00111
71.65 -0.00108
71.7 -0.00082
71.75 -0.00044
71.8 -0.00015
71.85 0.00015
71.9 0.00014
71.95 0.00023
72 0.00019
72.05 0.00025
72.1 0.00022
72.15 0.00013
72.2 0.00022
72.25 0.00049
72.3 0.00059
72.35 0.00045
72.4 0.00028
72.45 0.00011
72.5 0.00021
72.55 0.00033
72.6 0.00054
72.65 0.00063
72.7 0.00062
72.75 0.0008
72.8 0.00096
72.85 0.00117
72.9 0.0013
72.95 0.00135
73 0.00146
73.05 0.00137
73.1 0.00114
73.15 0.00089
73.2 0.00057
73.25 0.00007
73.3 -0.00035
73.35 -0.00049
73.4 -0.00055
73.45 -0.00047
73.5 -0.00016
73.55 0.00017
73.6 0.00045
73.65 0.00074
73.7 0.00086
73.75 0.00076
73.8 0.00039
73.85 0.00007
73.9 -0.00012
73.95 -0.00017
74 -0.00008
74.05 -0.00022
74.1 -0.00025
74.15 -0.00027
74.2 -0.00046
74.25 -0.00031
74.3 0.00001
74.35 -0.00003
74.4 -0.00014
74.45 -0.00043
74.5 -0.00044
74.55 -0.00034
74.6 -0.00007
74.65 0.00026
74.7 0.00047
74.75 0.00075
74.8 0.00079
74.85 0.00092
74.9 0.00079
74.95 0.00077
75 0.00087
75.05 0.001
75.1 0.00088
75.15 0.00054
75.2 0.00012
75.25 -0.00011
75.3 -0.00006
75.35 0.00004
75.4 0.00033
75.45 0.00068
75.5 0.00081
75.55 0.00096
75.6 0.00118
75.65 0.00142
75.7 0.0015
75.75 0.00156
75.8 0.00163
75.85 0.00176
75.9 0.00183
75.95 0.00173
76 0.00166
76.05 0.00142
76.1 0.00096
76.15 0.00044
76.2 -0.00014
76.25 -0.0006
76.3 -0.00098
76.35 -0.00107
76.4 -0.00127
76.45 -0.00111
76.5 -0.00113
76.55 -0.0009
76.6 -0.00069
76.65 -0.00071
76.7 -0.00074
76.75 -0.0007
76.8 -0.00071
76.85 -0.00086
76.9 -0.00069
76.95 -0.00069
77 -0.00071
77.05 -0.00064
77.1 -0.00032
77.15 -0.00007
77.2 0.00014
77.25 0.00002
77.3 -0.00023
77.35 -0.00041
77.4 -0.00059
77.45 -0.00076
77.5 -0.00085
77.55 -0.00105
77.6 -0.00106
77.65 -0.00097
77.7 -0.00092
77.75 -0.00099
77.8 -0.00113
77.85 -0.00117
77.9 -0.00113
77.95 -0.00097
78 -0.00057
78.05 -0.00048
78.1 -0.00047
78.15 -0.00053
78.2 -0.00033
78.25 -0.00027
78.3 -0.00033
78.35 -0.00048
78.4 -0.00042
78.45 -0.00045
78.5 -0.00053
78.55 -0.00078
78.6 -0.00068
78.65 -0.00068
78.7 -0.00056
78.75 -0.00034
78.8 -0.00002
78.85 0.00021
78.9 0.00031
78.95 0.00034
79 0.00031
79.05 0.00039
79.1 0.00028
79.15 0.00039
79.2 0.0005
79.25 0.00054
79.3 0.00059
79.35 0.00061
79.4 0.00037
79.45 0.00002
79.5 -0.00033
79.55 -0.00039
79.6 -0.00052
79.65 -0.00035
79.7 -0.00007
79.75 0.0001
79.8 0.00021
79.85 0.00009
79.9 -0.0002
79.95 -0.00058
80 -0.00053
80.05 -0.00051
80.1 -0.00045
80.15 -0.0003
80.2 -0.00037
80.25 -0.00045
80.3 -0.00042
80.35 -0.00032
80.4 -0.00024
80.45 -0.00011
80.5 -0.00008
80.55 -0.00011
80.6 -0.00025
80.65 -0.00014
80.7 -0.0001
80.75 0.00008
80.8 0.00029
80.85 0.00045
80.9 0.00041
80.95 0.00015
81 0.00005
81.05 -0.00018
81.1 -0.00048
81.15 -0.00066
81.2 -0.00076
81.25 -0.00074
81.3 -0.00052
81.35 -0.00048
81.4 -0.00047
81.45 -0.00029
81.5 -0.0002
81.55 -0.00018
81.6 -0.00039
81.65 -0.00071
81.7 -0.00088
81.75 -0.00085
81.8 -0.00089
81.85 -0.00098
81.9 -0.00115
81.95 -0.00093
82 -0.00047
82.05 -0.00019
82.1 0.00018
82.15 0.00018
82.2 0.00024
82.25 0.00049
82.3 0.00062
82.35 0.00053
82.4 0.00059
82.45 0.00046
82.5 0.00054
82.55 0.00054
82.6 0.00036
82.65 0.00004
82.7 0
82.75 0.0001
82.8 0.00037
82.85 0.00073
82.9 0.0008
82.95 0.00081
83 0.00056
83.05 0.00023
83.1 -0.00003
83.15 -0.00033
83.2 -0.0005
83.25 -0.00075
83.3 -0.0009
83.35 -0.00074
83.4 -0.00064
83.45 -0.00058
83.5 -0.00071
83.55 -0.00048
83.6 -0.00016
83.65 0.00015
83.7 0.00039
83.75 0.00043
83.8 0.00034
83.85 0.00023
83.9 0.00002
83.95 0.00003
84 -0.00001
84.05 -0.00023
84.1 -0.00026
84.15 -0.00042
84.2 -0.00025
84.25 0.00013
84.3 0.00028
84.35 0.00059
84.4 0.00093
84.45 0.00106
84.5 0.00124
84.55 0.00106
84.6 0.00087
84.65 0.00075
84.7 0.00062
84.75 0.00058
84.8 0.00053
84.85 0.00024
84.9 -0.00012
84.95 -0.00019
85 -0.00015
85.05 -0.00011
85.1 0.00009
85.15 0.00015
85.2 0.00029
85.25 0.00059
85.3 0.00058
85.35 0.00059
85.4 0.00031
85.45 0
85.5 -0.00005
85.55 -0.00004
85.6 0.00012
85.65 0.00026
85.7 0.00042
85.75 0.00048
85.8 0.00046
85.85 0.0003
85.9 0.00024
85.95 0.00038
86 0.00047
86.05 0.00052
86.1 0.00073
86.15 0.00103
86.2 0.00113
86.25 0.00088
86.3 0.00088
86.35 0.00055
86.4 0.00043
86.45 0.00033
86.5 0.00034
86.55 0.00022
86.6 -0.00002
86.65 -0.00029
86.7 -0.00052
86.75 -0.00073
86.8 -0.001
86.85 -0.00127
86.9 -0.00147
86.95 -0.00166
87 -0.00147
87.05 -0.00106
87.1 -0.00091
87.15 -0.00085
87.2 -0.00059
87.25 -0.00038
87.3 -0.00017
87.35 0.00011
87.4 0.00025
87.45 0.00047
87.5 0.00044
87.55 0.00046
87.6 0.00045
87.65 0.00052
87.7 0.00031
87.75 0.00022
87.8 -0.00002
87.85 -0.00036
87.9 -0.00077
87.95 -0.00072
88 -0.00058
88.05 -0.0006
88.1 -0.00057
88.15 -0.0006
88.2 -0.0004
88.25 -0.00025
88.3 -0.00011
88.35 0.00003
88.4 0.00007
88.45 0.00019
88.5 0.00042
88.55 0.00053
88.6 0.00039
88.65 0.00042
88.7 0.00043
88.75 0.0002
88.8 -0
88.85 -0.00038
88.9 -0.00036
88.95 -0.00053
89 -0.00052
89.05 -0.00058
89.1 -0.00067
89.15 -0.00079
89.2 -0.0008
89.25 -0.0006
89.3 -0.0004
89.35 -0.00017
89.4 0.00022
89.45 0.00042
89.5 0.00039
89.55 0.0005
89.6 0.00052
89.65 0.00049
89.7 0.00048
89.75 0.00024
89.8 -0.00007
89.85 -0.00024
89.9 -0.00022
89.95 -0.00024
90 -0.00006
90.05 0.00021
90.1 0.00035
90.15 0.00056
90.2 0.00053
90.25 0.00047
90.3 0.00059
90.35 0.00044
90.4 0.00007
90.45 -0.0001
90.5 -0.00044
90.55 -0.00063
90.6 -0.00076
90.65 -0.00079
90.7 -0.00068
90.75 -0.00072
90.8 -0.00045
90.85 -0.00034
90.9 -0.00036
90.95 -0.0003
91 -0.00026
91.05 -0.00013
91.1 0.00013
91.15 0.00051
91.2 0.00087
91.25 0.00099
91.3 0.00075
91.35 0.00049
91.4 0.00014
91.45 -0.00022
91.5 -0.00036
91.55 -0.00019
91.6 -0.00001
91.65 0.00008
91.7 0.00024
91.75 0.00054
91.8 0.00084
91.85 0.00095
91.9 0.00086
91.95 0.00051
92 0.00042
92.05 0.00011
92.1 -0.0002
92.15 -0.00028
92.2 -0.00021
92.25 -0.00005
92.3 -0.00002
92.35 -0.00006
92.4 0.00014
92.45 0.0002
92.5 0.00045
92.55 0.00059
92.6 0.00041
92.65 0.0003
92.7 0.00022
92.75 0.00015
92.8 0.00031
92.85 0.00044
92.9 0.00072
92.95 0.00086
93 0.00096
93.05 0.00105
93.1 0.00097
93.15 0.00089
93.2 0.00055
93.25 0.00038
93.3 -0.00001
93.35 -0.00022
93.4 -0.00048
93.45 -0.00079
93.5 -0.00116
93.55 -0.0011
93.6 -0.00104
93.65 -0.00103
93.7 -0.0008
93.75 -0.00046
93.8 -0.00022
93.85 -0.0002
93.9 -0.00017
93.95 -0.00021
94 -0.00014
94.05 0.00008
94.1 0.00015
94.15 0.00033
94.2 0.0002
94.25 0.00013
94.3 0.00026
94.35 0.00027
94.4 0.00016
94.45 0.00013
94.5 0.00007
94.55 0.0002
94.6 0.00008
94.65 0.00004
94.7 -0.00022
94.75 -0.00058
94.8 -0.00076
94.85 -0.00087
94.9 -0.00086
94.95 -0.00075
95 -0.00068
95.05 -0.00039
95.1 -0.00006
95.15 -0.00001
95.2 -0.00005
95.25 -0.00026
95.3 -0.00053
95.35 -0.00088
95.4 -0.00117
95.45 -0.00145
95.5 -0.0017
95.55 -0.0016
95.6 -0.0012
95.65 -0.00108
95.7 -0.00106
95.75 -0.00107
95.8 -0.00116
95.85 -0.0013
95.9 -0.00148
95.95 -0.00144
96 -0.00154
96.05 -0.00146
96.1 -0.00129
96.15 -0.00127
96.2 -0.00129
96.25 -0.00117
96.3 -0.00083
96.35 -0.00076
96.4 -0.0006
96.45 -0.0002
96.5 0.00005
96.55 0.00003
96.6 0.00006
96.65 0.00001
96.7 0.00004
96.75 -0.00011
96.8 0.00003
96.85 0.00031
96.9 0.00045
96.95 0.00053
97 0.00048
97.05 0.00041
97.1 0.00019
97.15 0.00012
97.2 -0.00002
97.25 -0.00002
97.3 0.00003
97.35 0.00022
97.4 0.00045
97.45 0.00071
97.5 0.00095
97.55 0.00093
97.6 0.00079
97.65 0.00056
97.7 0.00062
97.75 0.00057
97.8 0.00046
97.85 0.00047
97.9 0.0003
97.95 0.00028
98 0.00026
98.05 0.00026
98.1 0.00019
98.15 0.00016
98.2 0.00013
98.25 0.00026
98.3 0.00026
98.35 0.00023
98.4 0.00029
98.45 0.00009
98.5 0.00003
98.55 -0.00017
98.6 -0.00015
98.65 -0.00012
98.7 -0.0001
98.75 0.00011
98.8 0.00007
98.85 -0.00003
98.9 -0.00014
98.95 -0.00016
99 0
99.05 0.00008
99.1 0.0002
99.15 0.00007
99.2 -0.00018
99.25 -0.00016
99.3 -0.00018
99.35 -0.00007
99.4 0.00014
99.45 0.00008
99.5 -0.00018
99.55 -0.00041
99.6 -0.00047
99.65 -0.00053
99.7 -0.00051
99.75 -0.0005
99.8 -0.00063
99.85 -0.00079
99.9 -0.00064
99.95 -0.0006
