0 0
0.05 0.00089
0.1 0.00142
0.15 0.00174
0.2 0.00271
0.25 0.00412
0.3 0.00522
0.35 0.00578
0.4 0.0066
0.45 0.0076
0.5 0.00837
0.55 0.00878
0.6 0.00873
0.65 0.00799
0.7 0.00737
0.75 0.00676
0.8 0.00587
0.85 0.00476
0.9 0.00408
0.95 0.00411
1 0.00397
1.05 0.00413
1.1 0.00462
1.15 0.00473
1.2 0.00513
1.25 0.00489
1.3 0.00516
1.35 0.00524
1.4 0.00546
1.45 0.00558
1.5 0.00572
1.55 0.00519
1.6 0.00523
1.65 0.00472
1.7 0.00455
1.75 0.00414
1.8 0.00389
1.85 0.00337
1.9 0.00333
1.95 0.00296
2 0.00312
2.05 0.00296
2.1 0.00302
2.15 0.00302
2.2 0.00267
2.25 0.00295
2.3 0.00263
2.35 0.00196
2.4 0.0018
2.45 0.00231
2.5 0.00305
2.55 0.00396
2.6 0.00463
2.65 0.00473
2.7 0.00478
2.75 0.00493
2.8 0.00467
2.85 0.00445
2.9 0.00394
2.95 0.00363
3 0.00363
3.05 0.00312
3.1 0.00248
3.15 0.00178
3.2 0.0015
3.25 0.00157
3.3 0.00201
3.35 0.00215
3.4 0.00196
3.45 0.00137
3.5 0.00088
3.55 0.00037
3.6 0.00058
3.65 0.00056
3.7 0.00044
3.75 0.00068
3.8 0.00101
3.85 0.00103
3.9 0.00143
3.95 0.00127
4 0.00071
4.05 0.00007
4.1 -0.0007
4.15 -0.00135
4.2 -0.00136
4.25 -0.00154
4.3 -0.00091
4.35 -0.00022
4.4 0.00015
4.45 0.00066
4.5 0.00159
4.55 0.00252
4.6 0.0026
4.65 0.00314
4.7 0.00371
4.75 0.00395
4.8 0.00413
4.85 0.00357
4.9 0.00323
4.95 0.00294
5 0.00253
5.05 0.00195
5.1 0.00208
5.15 0.00246
5.2 0.00251
5.25 0.00255
5.3 0.00218
5.35 0.00141
5.4 0.00105
5.45 0.00098
5.5 0.001
5.55 0.00079
5.6 0.00096
5.65 0.00135
5.7 0.00196
5.75 0.00191
5.8 0.00218
5.85 0.0024
5.9 0.00194
5.95 0.0019
6 0.00217
6.05 0.00235
6.1 0.00269
6.15 0.00306
6.2 0.00295
6.25 0.00253
6.3 0.00216
6.35 0.00151
6.4 0.00059
6.45 -0.00046
6.5 -0.00092
6.55 -0.00127
6.6 -0.00133
6.65 -0.00095
6.7 -0.00037
6.75 0.0006
6.8 0.00137
6.85 0.00135
6.9 0.00147
6.95 0.00165
7 0.00134
7.05 0.00154
7.1 0.00106
7.15 0.00117
7.2 0.00095
7.25 0.00039
7.3 0.00008
7.35 -0.0005
7.4 -0.00036
7.45 0.00027
7.5 0.00084
7.55 0.00165
7.6 0.0022
7.65 0.00195
7.7 0.00144
7.75 0.00078
7.8 0.00051
7.85 0.00061
7.9 0.00083
7.95 0.00074
8 0.001
8.05 0.00096
8.1 0.0007
8.15 0.00057
8.2 0.00014
8.25 -0.00038
8.3 -0.00034
8.35 -0.00036
8.4 -0.00014
8.45 -0.00031
8.5 -0.00062
8.55 -0.00063
8.6 -0.0007
8.65 -0.00094
8.7 -0.00131
8.75 -0.00114
8.8 -0.00055
8.85 0.00045
8.9 0.00159
8.95 0.0019
9 0.00157
9.05 0.0014
9.1 0.00076
9.15 0.00016
9.2 -0.00046
9.25 -0.00071
9.3 -0.00071
9.35 -0.00082
9.4 -0.00073
9.45 -0.00049
9.5 -0.00037
9.55 0.00021
9.6 0.00044
9.65 0.00032
9.7 0.00047
9.75 0.00103
9.8 0.00164
9.85 0.00139
9.9 0.00095
9.95 0.00105
10 0.00074
10.05 0.00053
10.1 -0.00001
10.15 -0.0003
10.2 -0.00071
10.25 -0.00049
10.3 -0.00076
10.35 -0.00123
10.4 -0.00191
10.45 -0.00183
10.5 -0.00115
10.55 -0.00005
10.6 0.00085
10.65 0.00189
10.7 0.00269
10.75 0.00277
10.8 0.00285
10.85 0.00307
10.9 0.00274
10.95 0.00195
11 0.00124
11.05 0.0008
11.1 0.00021
11.15 0.0003
11.2 -0.00005
11.25 0.00002
11.3 0.00015
11.35 0.0003
11.4 0.00062
11.45 0.0012
11.5 0.00166
11.55 0.00204
11.6 0.00196
11.65 0.00218
11.7 0.00179
11.75 0.00178
11.8 0.00206
11.85 0.00209
11.9 0.00196
11.95 0.0016
12 0.0009
12.05 0.00027
12.1 -0.00006
12.15 -0.0004
12.2 -0.00053
12.25 -0.00021
12.3 0.00051
12.35 0.0004
12.4 0.00046
12.45 0.00042
12.5 0.00021
12.55 -0.0001
12.6 -0.00075
12.65 -0.00066
12.7 -0.00051
12.75 -0.00072
12.8 -0.00116
12.85 -0.0009
12.9 -0.00013
12.95 0.00074
13 0.00132
13.05 0.00118
13.1 0.0008
13.15 0.00045
13.2 0.00024
13.25 -0.00016
13.3 -0.00051
13.35 -0.00062
13.4 -0.0006
13.45 -0.00001
13.5 0.00038
13.55 0.00043
13.6 0.00057
13.65 0.00019
13.7 0.00001
13.75 -0.00035
13.8 -0.00064
13.85 -0.00109
13.9 -0.00112
13.95 -0.0013
14 -0.00162
14.05 -0.00177
14.1 -0.00203
14.15 -0.00251
14.2 -0.00258
14.25 -0.00287
14.3 -0.00315
14.35 -0.00301
14.4 -0.00305
14.45 -0.00303
14.5 -0.00248
14.55 -0.00177
14.6 -0.00143
14.65 -0.00108
14.7 -0.00124
14.75 -0.00157
14.8 -0.00108
14.85 -0.00093
14.9 -0.00032
14.95 -0.0003
15 0.00032
15.05 0.00097
15.1 0.00127
15.15 0.00109
15.2 0.0006
15.25 0.00058
15.3 0.00076
15.35 0.00064
15.4 0.00021
15.45 0
15.5 0.00039
15.55 0.00104
15.6 0.00163
15.65 0.0016
15.7 0.00199
15.75 0.0021
15.8 0.00148
15.85 0.00101
15.9 0.00083
15.95 0.00048
16 0.00029
16.05 0.00052
16.1 0.001
16.15 0.00127
16.2 0.00093
16.25 0.00028
16.3 -0.00061
16.35 -0.00118
16.4 -0.00194
16.45 -0.00224
16.5 -0.00223
16.55 -0.00194
16.6 -0.00175
16.65 -0.00199
16.7 -0.00168
16.75 -0.0011
16.8 -0.00096
16.85 -0.0011
16.9 -0.00113
16.95 -0.00067
17 -0.00083
17.05 -0.00056
17.1 -0.00062
17.15 -0.00043
17.2 -0.00073
17.25 -0.00125
17.3 -0.00177
17.35 -0.00241
17.4 -0.00263
17.45 -0.00283
17.5 -0.00272
17.55 -0.00275
17.6 -0.00269
17.65 -0.00196
17.7 -0.00115
17.75 -0.00025
17.8 0.00087
17.85 0.00159
17.9 0.00242
17.95 0.00236
18 0.00175
18.05 0.00171
18.1 0.00155
18.15 0.00103
18.2 0.00112
18.25 0.00077
18.3 0.00101
18.35 0.00089
18.4 0.00075
18.45 0.00094
18.5 0.00107
18.55 0.00067
18.6 0.00054
18.65 0.00015
18.7 -0.00038
18.75 -0.00057
18.8 -0.00013
18.85 0.00015
18.9 0.00066
18.95 0.00143
19 0.00235
19.05 0.00264
19.1 0.00252
19.15 0.00262
19.2 0.00233
19.25 0.00191
19.3 0.00194
19.35 0.00183
19.4 0.00172
19.45 0.00163
19.5 0.00092
19.55 0.00087
19.6 0.00101
19.65 0.0009
19.7 0.0009
19.75 0.00132
19.8 0.00155
19.85 0.00108
19.9 0.0009
19.95 0.00117
20 0.00158
20.05 0.0018
20.1 0.00203
20.15 0.0025
20.2 0.00297
20.25 0.0027
20.3 0.00242
20.35 0.00178
20.4 0.00142
20.45 0.00123
20.5 0.00043
20.55 0.00029
20.6 0.00032
20.65 -0.00024
20.7 -0.0006
20.75 -0.00062
20.8 -0.00045
20.85 0.00009
20.9 0.00023
20.95 0.00065
21 0.00056
21.05 0.00013
21.1 0.00031
21.15 0.00064
21.2 0.00102
21.25 0.0011
21.3 0.00081
21.35 0.00067
21.4 0.00099
21.45 0.00152
21.5 0.00136
21.55 0.00148
21.6 0.00137
21.65 0.00109
21.7 0.00108
21.75 0.00088
21.8 0.00046
21.85 -0.00001
21.9 -0.00008
21.95 -0.00008
22 -0.00048
22.05 -0.00127
22.1 -0.00124
22.15 -0.00112
22.2 -0.00071
22.25 -0.00003
22.3 -0.00006
22.35 0.00026
22.4 0.00038
22.45 0.00047
22.5 0.00013
22.55 -0.00026
22.6 -0.00019
22.65 -0.00062
22.7 -0.00065
22.75 -0.00048
22.8 0.00009
22.85 0.00072
22.9 0.00073
22.95 0.00106
23 0.00105
23.05 0.00071
23.1 0.00081
23.15 0.00093
23.2 0.00049
23.25 -0.0001
23.3 -0.00006
23.35 0.00025
23.4 0.00046
23.45 0.00064
23.5 0.00058
23.55 0.00042
23.6 0.00054
23.65 0.00103
23.7 0.00073
23.75 0.00014
23.8 0.00011
23.85 -0.0001
23.9 -0.00082
23.95 -0.00159
24 -0.00156
24.05 -0.00198
24.1 -0.00238
24.15 -0.00269
24.2 -0.0028
24.25 -0.00287
24.3 -0.0029
24.35 -0.00264
24.4 -0.00195
24.45 -0.00188
24.5 -0.00132
24.55 -0.00052
24.6 0.00032
24.65 0.00078
24.7 0.00079
24.75 0.00089
24.8 0.00128
24.85 0.00086
24.9 0.00023
24.95 0.00011
25 -0.00038
25.05 -0.00106
25.1 -0.0016
25.15 -0.00207
25.2 -0.00268
25.25 -0.00266
25.3 -0.00281
25.35 -0.00304
25.4 -0.00278
25.45 -0.00245
25.5 -0.00257
25.55 -0.00278
25.6 -0.00273
25.65 -0.00289
25.7 -0.00222
25.75 -0.00204
25.8 -0.00178
25.85 -0.00189
25.9 -0.00158
25.95 -0.00174
26 -0.00157
26.05 -0.00187
26.1 -0.00158
26.15 -0.00115
26.2 -0.00059
26.25 0.00015
26.3 0.00044
26.35 0.00064
26.4 0.00098
26.45 0.00079
26.5 0.00084
26.55 0.00054
26.6 0.00009
26.65 0.00024
26.7 0.00019
26.75 -0.00035
26.8 -0.00083
26.85 -0.00083
26.9 -0.00089
26.95 -0.00061
27 -0.00036
27.05 -0.00006
27.1 0.00048
27.15 0.00038
27.2 -0.0001
27.25 -0.00008
27.3 0.00039
27.35 0.00096
27.4 0.00147
27.45 0.00186
27.5 0.00211
27.55 0.00187
27.6 0.00163
27.65 0.00183
27.7 0.00185
27.75 0.00148
27.8 0.00149
27.85 0.00135
27.9 0.00102
27.95 0.00022
28 0.00022
28.05 0.00013
28.1 0.00051
28.15 0.00082
28.2 0.00102
28.25 0.00154
28.3 0.00159
28.35 0.00111
28.4 0.00063
28.45 0.00073
28.5 0.00085
28.55 0.00116
28.6 0.00154
28.65 0.00144
28.7 0.00163
28.75 0.00166
28.8 0.00171
28.85 0.00167
28.9 0.00144
28.95 0.00066
29 0.00018
29.05 -0.00019
29.1 -0.00064
29.15 -0.001
29.2 -0.00108
29.25 -0.00135
29.3 -0.00127
29.35 -0.00139
29.4 -0.00189
29.45 -0.00174
29.5 -0.0017
29.55 -0.00177
29.6 -0.00184
29.65 -0.00149
29.7 -0.00086
29.75 -0.00073
29.8 -0.00114
29.85 -0.00127
29.9 -0.00158
29.95 -0.00176
30 -0.00209
30.05 -0.00164
30.1 -0.00148
30.15 -0.00177
30.2 -0.00232
30.25 -0.00204
30.3 -0.0013
30.35 -0.00107
30.4 -0.00135
30.45 -0.00183
30.5 -0.00164
30.55 -0.00153
30.6 -0.00082
30.65 0.00006
30.7 0.00092
30.75 0.00093
30.8 0.00132
30.85 0.00125
30.9 0.00138
30.95 0.00144
31 0.00166
31.05 0.00134
31.1 0.00073
31.15 -0.00025
31.2 -0.00035
31.25 -0.00078
31.3 -0.00069
31.35 -0.00079
31.4 -0.00105
31.45 -0.00159
31.5 -0.00147
31.55 -0.00076
31.6 -0.00019
31.65 0.00011
31.7 0.00073
31.75 0.00109
31.8 0.00134
31.85 0.00094
31.9 0.0001
31.95 -0.00029
32 0
32.05 0.00065
32.1 0.00152
32.15 0.00172
32.2 0.00213
32.25 0.00196
32.3 0.00197
32.35 0.00137
32.4 0.00059
32.45 0.00003
32.5 -0.00071
32.55 -0.00111
32.6 -0.00108
32.65 -0.00064
32.7 -0.00028
32.75 -0.00053
32.8 -0.00052
32.85 -0.00029
32.9 0.0003
32.95 0.00092
33 0.0008
33.05 0.00054
33.1 0.0006
33.15 0.00099
33.2 0.00112
33.25 0.00152
33.3 0.00164
33.35 0.00133
33.4 0.00098
33.45 0.00051
33.5 -0.00028
33.55 -0.00044
33.6 -0.00074
33.65 -0.00113
33.7 -0.00137
33.75 -0.00193
33.8 -0.0017
33.85 -0.00103
33.9 -0.00011
33.95 0.0007
34 0.00161
34.05 0.00232
34.1 0.00271
34.15 0.00294
34.2 0.0032
34.25 0.00288
34.3 0.00236
34.35 0.00173
34.4 0.00119
34.45 0.00079
34.5 0.00066
34.55 0.00062
34.6 0.00035
34.65 0.00007
34.7 -0.00069
34.75 -0.00083
34.8 -0.00065
34.85 -0.00027
34.9 0.00036
34.95 0.00106
35 0.00116
35.05 0.00093
35.1 0.0004
35.15 -0.00023
35.2 -0.00024
35.25 0.00023
35.3 0.00068
35.35 0.00096
35.4 0.00075
35.45 0.00016
35.5 0.00016
35.55 0.00026
35.6 0.00043
35.65 -0.00007
35.7 -0.00059
35.75 -0.00119
35.8 -0.00141
35.85 -0.00101
35.9 -0.00051
35.95 -0.0004
36 -0.00074
36.05 -0.00076
36.1 -0.00062
36.15 -0.00073
36.2 -0.00057
36.25 -0.00083
36.3 -0.00067
36.35 -0.0003
36.4 -0.00058
36.45 -0.00081
36.5 -0.00135
36.55 -0.00109
36.6 -0.00058
36.65 -0.00032
36.7 -0.00028
36.75 -0.00066
36.8 -0.00119
36.85 -0.00172
36.9 -0.00225
36.95 -0.00242
37 -0.00215
37.05 -0.00141
37.1 -0.00107
37.15 -0.00047
37.2 -0.00043
37.25 -0.00078
37.3 -0.00133
37.35 -0.00198
37.4 -0.00238
37.45 -0.00232
37.5 -0.00236
37.55 -0.00238
37.6 -0.00254
37.65 -0.00188
37.7 -0.00131
37.75 -0.00062
37.8 -0.00066
37.85 -0.00079
37.9 -0.00049
37.95 -0.0004
38 -0.00018
38.05 -0.00048
38.1 -0.00051
38.15 -0.00007
38.2 -0.00018
38.25 -0.00016
38.3 0.00008
38.35 0.00052
38.4 0.00037
38.45 0.00002
38.5 -0.00003
38.55 0.00016
38.6 -0.00013
38.65 -0.00042
38.7 -0.00095
38.75 -0.00071
38.8 -0.00077
38.85 -0.00121
38.9 -0.00085
38.95 -0.00107
39 -0.00061
39.05 -0.00004
39.1 0.00053
39.15 0.00057
39.2 0.00015
39.25 0.00031
39.3 0.00029
39.35 0.0005
39.4 0.00112
39.45 0.00109
39.5 0.00128
39.55 0.00116
39.6 0.00124
39.65 0.0017
39.7 0.00148
39.75 0.001
39.8 0.00019
39.85 -0.00029
39.9 -0.00072
39.95 -0.00122
40 -0.00107
40.05 -0.00083
40.1 -0.00085
40.15 -0.00074
40.2 -0.00104
40.25 -0.00084
40.3 -0.00089
40.35 -0.00048
40.4 -0.00062
40.45 -0.00109
40.5 -0.00097
40.55 -0.00134
40.6 -0.00091
40.65 -0.00052
40.7 -0.00035
40.75 0.00012
40.8 0.00057
40.85 0.00031
40.9 0.00031
40.95 -0.00009
41 -0.00013
41.05 0.00018
41.1 0.00001
41.15 -0.00053
41.2 -0.00063
41.25 -0.0003
41.3 -0.00026
41.35 -0.00038
41.4 0.00003
41.45 0.00016
41.5 0.00046
41.55 0.00088
41.6 0.00058
41.65 0.00062
41.7 0.00071
41.75 0.00063
41.8 0.0009
41.85 0.00059
41.9 0.00029
41.95 -0.00003
42 0.00022
42.05 0.00043
42.1 0.00037
42.15 -0.00016
42.2 -0.00041
42.25 -0.00039
42.3 -0.00052
42.35 -0.00026
42.4 0.00009
42.45 0.00069
42.5 0.00077
42.55 0.00076
42.6 0.00096
42.65 0.00154
42.7 0.00128
42.75 0.001
42.8 0.00116
42.85 0.00151
42.9 0.00205
42.95 0.00179
43 0.00148
43.05 0.00152
43.1 0.00126
43.15 0.00067
43.2 0.00027
43.25 0.00029
43.3 0.00017
43.35 -0.00037
43.4 -0.00111
43.45 -0.00116
43.5 -0.00153
43.55 -0.00179
43.6 -0.00174
43.65 -0.00139
43.7 -0.00089
43.75 -0.00076
43.8 -0.0009
43.85 -0.00054
43.9 0.00026
43.95 0.00059
44 0.00046
44.05 0.00015
44.1 -0.00024
44.15 -0.0006
44.2 -0.00073
44.25 -0.00081
44.3 -0.00093
44.35 -0.0012
44.4 -0.00128
44.45 -0.0015
44.5 -0.00189
44.55 -0.00158
44.6 -0.00143
44.65 -0.00116
44.7 -0.00048
44.75 -0
44.8 0.00075
44.85 0.00079
44.9 0.00118
44.95 0.00171
45 0.00146
45.05 0.00102
45.1 0.00027
45.15 -0.00071
45.2 -0.00105
45.25 -0.00098
45.3 -0.00107
45.35 -0.00094
45.4 -0.00106
45.45 -0.00054
45.5 -0.00026
45.55 0.00023
45.6 0.00016
45.65 0.00049
45.7 0.00116
45.75 0.00195
45.8 0.00256
45.85 0.0022
45.9 0.00175
45.95 0.00104
46 0.00082
46.05 0.00018
46.1 -0.00023
46.15 -0.00071
46.2 -0.00149
46.25 -0.00147
46.3 -0.00146
46.35 -0.00143
46.4 -0.00139
46.45 -0.00136
46.5 -0.00172
46.55 -0.00191
46.6 -0.00204
46.65 -0.00216
46.7 -0.00154
46.75 -0.00125
46.8 -0.00139
46.85 -0.00174
46.9 -0.00204
46.95 -0.00168
47 -0.00089
47.05 -0.00041
47.1 0.00009
47.15 -0.00008
47.2 -0.0003
47.25 -0.00058
47.3 -0.00096
47.35 -0.00097
47.4 -0.0014
47.45 -0.00183
47.5 -0.00169
47.55 -0.00179
47.6 -0.00187
47.65 -0.00205
47.7 -0.00219
47.75 -0.00254
47.8 -0.00251
47.85 -0.00224
47.9 -0.0015
47.95 -0.00113
48 -0.00088
48.05 -0.00007
48.1 0.00041
48.15 0.00069
48.2 0.00071
48.25 0.00065
48.3 0.00103
48.35 0.00157
48.4 0.00136
48.45 0.00127
48.5 0.00061
48.55 0.00051
48.6 0.00017
48.65 -0.00027
48.7 -0.00058
48.75 -0.00103
48.8 -0.00077
48.85 -0.00025
48.9 0.00033
48.95 0.00041
49 0.00002
49.05 -0.00048
49.1 -0.00072
49.15 -0.00085
49.2 -0.00033
49.25 -0.00013
49.3 -0.00046
49.35 -0.00032
49.4 -0.0004
49.45 -0.00084
49.5 -0.00051
49.55 -0.00017
49.6 0.00019
49.65 0.00021
49.7 -0.00025
49.75 -0.0008
49.8 -0.00134
49.85 -0.00177
49.9 -0.0016
49.95 -0.00102
50 -0.00062
50.05 -0.00028
50.1 0.00004
50.15 0.00055
50.2 0.00062
50.25 0.00082
50.3 0.00047
50.35 0.00026
50.4 0.00056
50.45 0.00102
50.5 0.00135
50.55 0.00105
50.6 0.00138
50.65 0.00188
50.7 0.00205
50.75 0.00185
50.8 0.00141
50.85 0.0013
50.9 0.0013
50.95 0.00146
51 0.00109
51.05 0.00132
51.1 0.00099
51.15 0.00021
51.2 0.00022
51.25 0.00073
51.3 0.00105
51.35 0.00094
51.4 0.00061
51.45 0.00063
51.5 0.00068
51.55 0.00066
51.6 0.0004
51.65 -0.00021
51.7 -0.00109
51.75 -0.00201
51.8 -0.00217
51.85 -0.00251
51.9 -0.00235
51.95 -0.00235
52 -0.00256
52.05 -0.00235
52.1 -0.0025
52.15 -0.00213
52.2 -0.00154
52.25 -0.00063
52.3 0.00058
52.35 0.00137
52.4 0.00187
52.45 0.00254
52.5 0.00255
52.55 0.00253
52.6 0.00273
52.65 0.00277
52.7 0.00306
52.75 0.00333
52.8 0.00331
52.85 0.00279
52.9 0.00222
52.95 0.0018
53 0.00121
53.05 -0.00005
53.1 -0.00082
53.15 -0.00174
53.2 -0.00261
53.25 -0.00414
53.3 -0.00571
53.35 -0.00762
53.4 -0.00921
53.45 -0.01118
53.5 -0.01369
53.55 -0.01668
53.6 -0.01991
53.65 -0.02353
53.7 -0.02703
53.75 -0.03137
53.8 -0.03634
53.85 -0.04181
53.9 -0.0476
53.95 -0.05425
54 -0.06228
54.05 -0.07095
54.1 -0.0801
54.15 -0.08988
54.2 -0.10118
54.25 -0.11323
54.3 -0.12649
54.35 -0.14104
54.4 -0.15629
54.45 -0.17158
54.5 -0.18675
54.55 -0.20284
54.6 -0.21935
54.65 -0.23565
54.7 -0.25175
54.75 -0.26742
54.8 -0.28135
54.85 -0.29451
54.9 -0.30674
54.95 -0.31749
55 -0.32566
55.05 -0.3317
55.1 -0.33533
55.15 -0.33709
55.2 -0.33644
55.25 -0.33381
55.3 -0.32826
55.35 -0.32006
55.4 -0.30998
55.45 -0.29743
55.5 -0.28338
55.55 -0.26689
55.6 -0.24944
55.65 -0.23085
55.7 -0.2105
55.75 -0.18906
55.8 -0.16683
55.85 -0.14487
55.9 -0.1225
55.95 -0.10063
56 -0.07945
56.05 -0.05878
56.1 -0.03896
56.15 -0.0202
56.2 -0.00298
56.25 0.01286
56.3 0.02783
56.35 0.04109
56.4 0.05296
56.45 0.06399
56.5 0.07404
56.55 0.0828
56.6 0.09076
56.65 0.09807
56.7 0.10452
56.75 0.11106
56.8 0.11786
56.85 0.1245
56.9 0.13139
56.95 0.13845
57 0.14523
57.05 0.15242
57.1 0.15983
57.15 0.16683
57.2 0.17357
57.25 0.18057
57.3 0.18778
57.35 0.19508
57.4 0.2025
57.45 0.20979
57.5 0.21751
57.55 0.22549
57.6 0.23331
57.65 0.24062
57.7 0.24732
57.75 0.25314
57.8 0.25872
57.85 0.26356
57.9 0.26752
57.95 0.27081
58 0.27263
58.05 0.27395
58.1 0.27468
58.15 0.27421
58.2 0.27334
58.25 0.27142
58.3 0.26864
58.35 0.26566
58.4 0.26185
58.45 0.25712
58.5 0.25215
58.55 0.24717
58.6 0.24219
58.65 0.23697
58.7 0.23117
58.75 0.22472
58.8 0.21759
58.85 0.21043
58.9 0.20353
58.95 0.19693
59 0.19019
59.05 0.18386
59.1 0.17775
59.15 0.17173
59.2 0.16534
59.25 0.15949
59.3 0.15348
59.35 0.1473
59.4 0.14164
59.45 0.13647
59.5 0.13151
59.55 0.12681
59.6 0.12187
59.65 0.11653
59.7 0.11063
59.75 0.10545
59.8 0.10068
59.85 0.0955
59.9 0.09062
59.95 0.08585
60 0.08055
60.05 0.07533
60.1 0.07074
60.15 0.06594
60.2 0.06122
60.25 0.0565
60.3 0.05173
60.35 0.04731
60.4 0.04386
60.45 0.04056
60.5 0.03778
60.55 0.03528
60.6 0.03265
60.65 0.03005
60.7 0.02658
60.75 0.02259
60.8 0.01866
60.85 0.01545
60.9 0.01221
60.95 0.00947
61 0.00646
61.05 0.00318
61.1 -0.00041
61.15 -0.00358
61.2 -0.00657
61.25 -0.00905
61.3 -0.01136
61.35 -0.01328
61.4 -0.01479
61.45 -0.01694
61.5 -0.01916
61.55 -0.02093
61.6 -0.02238
61.65 -0.02433
61.7 -0.02619
61.75 -0.02828
61.8 -0.03062
61.85 -0.03237
61.9 -0.03353
61.95 -0.03475
62 -0.03572
62.05 -0.03682
62.1 -0.03792
62.15 -0.03857
62.2 -0.03893
62.25 -0.03905
62.3 -0.03932
62.35 -0.03961
62.4 -0.04052
62.45 -0.04119
62.5 -0.0422
62.55 -0.04306
62.6 -0.04334
62.65 -0.04371
62.7 -0.04435
62.75 -0.04498
62.8 -0.04577
62.85 -0.04559
62.9 -0.04556
62.95 -0.04532
63 -0.04545
63.05 -0.04537
63.1 -0.04476
63.15 -0.04392
63.2 -0.04346
63.25 -0.04331
63.3 -0.04309
63.35 -0.04333
63.4 -0.04374
63.45 -0.04409
63.5 -0.04352
63.55 -0.04272
63.6 -0.04155
63.65 -0.04068
63.7 -0.03949
63.75 -0.03922
63.8 -0.03909
63.85 -0.03873
63.9 -0.03862
63.95 -0.03838
64 -0.03838
64.05 -0.03834
64.1 -0.03764
64.15 -0.03697
64.2 -0.03603
64.25 -0.03572
64.3 -0.03575
64.35 -0.03563
64.4 -0.03566
64.45 -0.03551
64.5 -0.03494
64.55 -0.03378
64.6 -0.03314
64.65 -0.03242
64.7 -0.03171
64.75 -0.03103
64.8 -0.03043
64.85 -0.03015
64.9 -0.02953
64.95 -0.02951
65 -0.02931
65.05 -0.02881
65.1 -0.02831
65.15 -0.02819
65.2 -0.02782
65.25 -0.02793
65.3 -0.02814
65.35 -0.02798
65.4 -0.02779
65.45 -0.02715
65.5 -0.02689
65.55 -0.0266
65.6 -0.02593
65.65 -0.02484
65.7 -0.02364
65.75 -0.02281
65.8 -0.02201
65.85 -0.02176
65.9 -0.022
65.95 -0.02179
66 -0.02185
66.05 -0.02199
66.1 -0.02178
66.15 -0.02191
66.2 -0.02139
66.25 -0.02041
66.3 -0.01997
66.35 -0.01942
66.4 -0.01935
66.45 -0.01868
66.5 -0.01835
66.55 -0.0183
66.6 -0.01781
66.65 -0.01686
66.7 -0.01639
66.75 -0.0155
66.8 -0.01532
66.85 -0.01574
66.9 -0.01639
66.95 -0.01685
67 -0.0166
67.05 -0.01606
67.1 -0.01582
67.15 -0.01579
67.2 -0.01545
67.25 -0.01481
67.3 -0.01375
67.35 -0.0132
67.4 -0.01257
67.45 -0.01197
67.5 -0.01167
67.55 -0.0114
67.6 -0.01155
67.65 -0.01145
67.7 -0.01092
67.75 -0.0103
67.8 -0.01022
67.85 -0.01044
67.9 -0.01073
67.95 -0.01144
68 -0.01151
68.05 -0.01142
68.1 -0.01098
68.15 -0.01051
68.2 -0.01049
68.25 -0.01089
68.3 -0.01109
68.35 -0.01114
68.4 -0.01061
68.45 -0.00968
68.5 -0.00935
68.55 -0.0089
68.6 -0.00881
68.65 -0.00865
68.7 -0.00809
68.75 -0.00735
68.8 -0.00743
68.85 -0.00721
68.9 -0.00767
68.95 -0.00844
69 -0.00935
69.05 -0.00993
69.1 -0.00958
69.15 -0.00967
69.2 -0.01008
69.25 -0.00994
69.3 -0.00928
69.35 -0.00871
69.4 -0.00799
69.45 -0.00728
69.5 -0.0063
69.55 -0.00518
69.6 -0.00485
69.65 -0.00432
69.7 -0.00467
69.75 -0.00521
69.8 -0.00608
69.85 -0.00695
69.9 -0.00756
69.95 -0.00814
70 -0.00836
70.05 -0.00863
70.1 -0.00883
70.15 -0.00921
70.2 -0.0088
70.25 -0.00828
70.3 -0.00765
70.35 -0.00724
70.4 -0.00686
70.45 -0.00672
70.5 -0.00623
70.55 -0.00631
70.6 -0.00641
70.65 -0.0064
70.7 -0.00654
70.75 -0.00691
70.8 -0.00693
70.85 -0.00634
70.9 -0.00548
70.95 -0.00511
71 -0.00437
71.05 -0.00365
71.1 -0.00324
71.15 -0.00338
71.2 -0.0036
71.25 -0.00321
71.3 -0.00275
71.35 -0.00293
71.4 -0.00348
71.45 -0.00432
71.5 -0.00508
71.55 -0.00528
71.6 -0.00527
71.65 -0.00499
71.7 -0.00504
71.75 -0.00521
71.8 -0.00501
71.85 -0.00468
71.9 -0.00418
71.95 -0.00419
72 -0.00399
72.05 -0.00423
72.1 -0.0041
72.15 -0.00334
72.2 -0.00252
72.25 -0.00214
72.3 -0.00179
72.35 -0.00132
72.4 -0.001
72.45 -0.00134
72.5 -0.00133
72.55 -0.00182
72.6 -0.00161
72.65 -0.00171
72.7 -0.00221
72.75 -0.00232
72.8 -0.00277
72.85 -0.00351
72.9 -0.00379
72.95 -0.00422
73 -0.00449
73.05 -0.00471
73.1 -0.00436
73.15 -0.00394
73.2 -0.00363
73.25 -0.00301
73.3 -0.00242
73.35 -0.00214
73.4 -0.00176
73.45 -0.00147
73.5 -0.00084
73.55 -0.00004
73.6 -0.00016
73.65 0.0002
73.7 0.00071
73.75 0.00129
73.8 0.00169
73.85 0.00147
73.9 0.00069
73.95 0.00034
74 -0.00006
74.05 -0.00077
74.1 -0.00169
74.15 -0.00241
74.2 -0.00303
74.25 -0.00326
74.3 -0.00355
74.35 -0.00384
74.4 -0.00429
74.45 -0.00452
74.5 -0.00439
74.55 -0.0036
74.6 -0.00247
74.65 -0.00164
74.7 -0.0015
74.75 -0.00094
74.8 -0.00033
74.85 0.0005
74.9 0.00097
74.95 0.00088
75 0.00082
75.05 0.0007
75.1 0.00049
75.15 -0.00004
75.2 -0.00034
75.25 -0.00046
75.3 -0.00006
75.35 -0.00014
75.4 -0.00033
75.45 -0.00055
75.5 -0.00067
75.55 -0.00045
75.6 -0.00042
75.65 -0.00049
75.7 -0.00032
75.75 -0.00009
75.8 0.00032
75.85 0.00039
75.9 -0.00011
75.95 -0.00071
76 -0.00086
76.05 -0.00093
76.1 -0.00112
76.15 -0.00106
76.2 -0.001
76.25 -0.00104
76.3 -0.00136
76.35 -0.00161
76.4 -0.00158
76.45 -0.00102
76.5 -0.00091
76.55 -0.00028
76.6 0.00029
76.65 0.00092
76.7 0.00115
76.75 0.00099
76.8 0.00117
76.85 0.00117
76.9 0.00154
76.95 0.00114
77 0.00076
77.05 0.00062
77.1 0.00036
77.15 -0.00033
77.2 -0.00037
77.25 -0.0009
77.3 -0.00113
77.35 -0.0008
77.4 -0.00012
77.45 -0.00026
77.5 -0.00071
77.55 -0.00048
77.6 0.00006
77.65 0.00067
77.7 0.00113
77.75 0.00146
77.8 0.00095
77.85 0.00094
77.9 0.0004
77.95 -0.00004
78 -0.00074
78.05 -0.00131
78.1 -0.00199
78.15 -0.00216
78.2 -0.00253
78.25 -0.00226
78.3 -0.00188
78.35 -0.00151
78.4 -0.00127
78.45 -0.0016
78.5 -0.00216
78.55 -0.00291
78.6 -0.0031
78.65 -0.00282
78.7 -0.00265
78.75 -0.00184
78.8 -0.0009
78.85 -0.00044
78.9 -0.00012
78.95 -0.00019
79 -0.00022
79.05 0.00021
79.1 0.00062
79.15 0.00088
79.2 0.00054
79.25 0.00077
79.3 0.00096
79.35 0.00077
79.4 0.00102
79.45 0.00148
79.5 0.00196
79.55 0.00173
79.6 0.00157
79.65 0.00088
79.7 0.00027
79.75 -0.00038
79.8 -0.00063
79.85 -0.00056
79.9 -0.00066
79.95 -0.00078
80 -0.00039
80.05 0.00004
80.1 -0.00011
80.15 -0.00005
80.2 -0.00044
80.25 -0.00026
80.3 0.00012
80.35 0.00048
80.4 0.00114
80.45 0.00119
80.5 0.00077
80.55 0
80.6 -0.00018
80.65 -0.00057
80.7 -0.00051
80.75 -0.00008
80.8 0.00049
80.85 0.00112
80.9 0.00133
80.95 0.00154
81 0.00163
81.05 0.00191
81.1 0.00134
81.15 0.0013
81.2 0.00117
81.25 0.00056
81.3 0.00019
81.35 0.0001
81.4 -0.00004
81.45 0.00031
81.5 0.00036
81.55 0.00085
81.6 0.00105
81.65 0.00127
81.7 0.00138
81.75 0.00114
81.8 0.00097
81.85 0.00044
81.9 -0.00022
81.95 -0.00115
82 -0.00211
82.05 -0.00242
82.1 -0.0026
82.15 -0.0022
82.2 -0.00207
82.25 -0.0023
82.3 -0.00284
82.35 -0.00311
82.4 -0.00361
82.45 -0.0032
82.5 -0.00219
82.55 -0.00169
82.6 -0.00126
82.65 -0.00115
82.7 -0.00093
82.75 -0.00041
82.8 -0.00061
82.85 -0.00084
82.9 -0.0012
82.95 -0.00158
83 -0.00216
83.05 -0.00257
83.1 -0.00224
83.15 -0.00206
83.2 -0.00139
83.25 -0.00134
83.3 -0.00075
83.35 0.00011
83.4 0.00025
83.45 0.00056
83.5 0.00121
83.55 0.00163
83.6 0.00205
83.65 0.00252
83.7 0.00247
83.75 0.00175
83.8 0.00145
83.85 0.00151
83.9 0.00095
83.95 0.00004
84 -0.00003
84.05 -0.00016
84.1 -0.0003
84.15 0.00003
84.2 0.00028
84.25 0.00057
84.3 0.00107
84.35 0.00172
84.4 0.0019
84.45 0.00141
84.5 0.00081
84.55 0.00044
84.6 0.00064
84.65 0.00103
84.7 0.00078
84.75 0.00088
84.8 0.00117
84.85 0.00169
84.9 0.00197
84.95 0.00213
85 0.00203
85.05 0.00158
85.1 0.00122
85.15 0.00032
85.2 -0.00029
85.25 -0.00079
85.3 -0.00072
85.35 -0.00111
85.4 -0.00162
85.45 -0.00225
85.5 -0.00257
85.55 -0.00305
85.6 -0.00277
85.65 -0.00248
85.7 -0.00207
85.75 -0.00206
85.8 -0.00229
85.85 -0.00249
85.9 -0.00246
85.95 -0.00272
86 -0.00257
86.05 -0.00256
86.1 -0.0023
86.15 -0.0016
86.2 -0.00082
86.25 -0.00041
86.3 -0.00053
86.35 -0.00012
86.4 0.00048
86.45 0.00109
86.5 0.00121
86.55 0.00085
86.6 0.00089
86.65 0.0007
86.7 0.00006
86.75 0.00005
86.8 0.00027
86.85 0.00047
86.9 0.00084
86.95 0.0012
87 0.00076
87.05 0.00059
87.1 0.00085
87.15 0.00132
87.2 0.00115
87.25 0.00056
87.3 0.00036
87.35 0.00061
87.4 0.00117
87.45 0.00091
87.5 0.00034
87.55 0.00014
87.6 0.00003
87.65 -0.00023
87.7 -0.0002
87.75 -0.00016
87.8 -0.00035
87.85 -0.00081
87.9 -0.00133
87.95 -0.00162
88 -0.00193
88.05 -0.0024
88.1 -0.00249
88.15 -0.00225
88.2 -0.00144
88.25 -0.00054
88.3 0.00058
88.35 0.00173
88.4 0.00188
88.45 0.00147
88.5 0.00129
88.55 0.00134
88.6 0.00082
88.65 0.00062
88.7 0.00038
88.75 0.00021
88.8 0.00003
88.85 0.00029
88.9 0.00068
88.95 0.00109
89 0.00095
89.05 0.00065
89.1 0.00022
89.15 0.00037
89.2 0.00014
89.25 -0.00026
89.3 -0.00014
89.35 0.0003
89.4 0.0009
89.45 0.00153
89.5 0.0014
89.55 0.0017
89.6 0.00161
89.65 0.00095
89.7 0.00065
89.75 0.00039
89.8 0.00012
89.85 0.0003
89.9 0.00014
89.95 -0.00039
90 -0.00021
90.05 0.00017
90.1 0.00007
90.15 0.00051
90.2 0.00049
90.25 0.00028
90.3 0.0002
90.35 0.00009
90.4 -0.00039
90.45 -0.00063
90.5 -0.00068
90.55 -0.0008
90.6 -0.00085
90.65 -0.00049
90.7 -0.00081
90.75 -0.00139
90.8 -0.00205
90.85 -0.00192
90.9 -0.0018
90.95 -0.00137
91 -0.00143
91.05 -0.00158
91.1 -0.00159
91.15 -0.00123
91.2 -0.00128
91.25 -0.0009
91.3 -0.00008
91.35 0.00025
91.4 0.0008
91.45 0.00102
91.5 0.00127
91.55 0.00127
91.6 0.00101
91.65 0.00117
91.7 0.00152
91.75 0.00183
91.8 0.00193
91.85 0.00199
91.9 0.00191
91.95 0.00141
92 0.00091
92.05 0.0004
92.1 -0.00023
92.15 -0.00044
92.2 -0.00112
92.25 -0.00159
92.3 -0.00139
92.35 -0.00121
92.4 -0.00148
92.45 -0.00115
92.5 -0.00104
92.55 -0.0009
92.6 -0.00036
92.65 -0.00005
92.7 0.00043
92.75 0.00037
92.8 0.00025
92.85 -0.00026
92.9 -0.0005
92.95 -0.00076
93 -0.00056
93.05 -0.00004
93.1 0.00053
93.15 0.00052
93.2 0.00073
93.25 0.00116
93.3 0.00155
93.35 0.00137
93.4 0.00137
93.45 0.00095
93.5 0.00013
93.55 -0.00036
93.6 -0.00108
93.65 -0.00096
93.7 -0.00082
93.75 -0.00097
93.8 -0.00155
93.85 -0.00173
93.9 -0.00198
93.95 -0.00157
94 -0.00118
94.05 -0.00115
94.1 -0.0016
94.15 -0.00152
94.2 -0.00178
94.25 -0.00163
94.3 -0.00099
94.35 -0.00106
94.4 -0.00085
94.45 -0.00118
94.5 -0.00086
94.55 -0.00033
94.6 0.00045
94.65 0.00074
94.7 0.00088
94.75 0.00113
94.8 0.00139
94.85 0.00135
94.9 0.00088
94.95 0.00015
95 -0.00028
95.05 -0.00017
95.1 -0.0004
95.15 -0.00031
95.2 -0.00019
95.25 0.00034
95.3 0.00114
95.35 0.00098
95.4 0.0012
95.45 0.00097
95.5 0.00051
95.55 -0.00015
95.6 -0.00017
95.65 -0.00002
95.7 0.00034
95.75 0.00026
95.8 0.00027
95.85 0.00036
95.9 0.00029
95.95 0.0002
96 -0.00015
96.05 -0.00042
96.1 -0.00045
96.15 -0.00097
96.2 -0.0013
96.25 -0.00183
96.3 -0.00205
96.35 -0.00154
96.4 -0.00066
96.45 -0.0005
96.5 -0.00076
96.55 -0.00125
96.6 -0.00115
96.65 -0.00077
96.7 -0.00036
96.75 -0.00052
96.8 -0.00099
96.85 -0.0017
96.9 -0.00236
96.95 -0.00256
97 -0.00222
97.05 -0.00212
97.1 -0.00209
97.15 -0.00176
97.2 -0.00162
97.25 -0.0017
97.3 -0.00174
97.35 -0.00159
97.4 -0.00107
97.45 -0.00054
97.5 -0.00005
97.55 0.00019
97.6 0.00088
97.65 0.00099
97.7 0.00068
97.75 0.00047
97.8 0.00055
97.85 0.00104
97.9 0.00129
97.95 0.00152
98 0.00171
98.05 0.0015
98.1 0.00146
98.15 0.00163
98.2 0.00188
98.25 0.00182
98.3 0.00188
98.35 0.00147
98.4 0.00155
98.45 0.00129
98.5 0.00121
98.55 0.0015
98.6 0.00102
98.65 0.00075
98.7 0.00055
98.75 0.00004
98.8 -0.00031
98.85 -0.00063
98.9 -0.00115
98.95 -0.00182
99 -0.00196
99.05 -0.00159
99.1 -0.00165
99.15 -0.0021
99.2 -0.00175
99.25 -0.00112
99.3 -0.00061
99.35 -0.00011
99.4 -0.00008
99.45 -0.00008
99.5 -0.00024
99.55 -0.00024
99.6 -0.00061
99.65 -0.00111
99.7 -0.00151
99.75 -0.00124
99.8 -0.00048
99.85 -0.00049
99.9 -0.00024
99.95 0.00015
