0 0
0.05 0.00014
0.1 0.00043
0.15 0.00061
0.2 0.00091
0.25 0.00125
0.3 0.00159
0.35 0.00199
0.4 0.0023
0.45 0.00234
0.5 0.00217
0.55 0.0019
0.6 0.0017
0.65 0.00167
0.7 0.00158
0.75 0.00139
0.8 0.00125
0.85 0.00119
0.9 0.00134
0.95 0.00147
1 0.0014
1.05 0.00149
1.1 0.00141
1.15 0.00137
1.2 0.00157
1.25 0.00166
1.3 0.00165
1.35 0.00162
1.4 0.00161
1.45 0.00149
1.5 0.0014
1.55 0.00128
1.6 0.00127
1.65 0.00143
1.7 0.00168
1.75 0.00197
1.8 0.00209
1.85 0.0023
1.9 0.00254
1.95 0.00246
2 0.00226
2.05 0.00209
2.1 0.00199
2.15 0.00184
2.2 0.00155
2.25 0.00122
2.3 0.00104
2.35 0.001
2.4 0.00095
2.45 0.00108
2.5 0.0011
2.55 0.00109
2.6 0.00104
2.65 0.00089
2.7 0.00072
2.75 0.00072
2.8 0.00074
2.85 0.0009
2.9 0.00087
2.95 0.00095
3 0.00087
3.05 0.00094
3.1 0.00104
3.15 0.00101
3.2 0.00107
3.25 0.00124
3.3 0.00137
3.35 0.00149
3.4 0.00148
3.45 0.00147
3.5 0.00147
3.55 0.00144
3.6 0.00126
3.65 0.00124
3.7 0.00124
3.75 0.00118
3.8 0.00117
3.85 0.00124
3.9 0.00128
3.95 0.00122
4 0.00123
4.05 0.0011
4.1 0.00089
4.15 0.0009
4.2 0.0007
4.25 0.00074
4.3 0.00074
4.35 0.00065
4.4 0.0007
4.45 0.00059
4.5 0.00041
4.55 0.00019
4.6 -0.00011
4.65 -0.00041
4.7 -0.00053
4.75 -0.00038
4.8 -0.0003
4.85 -0.00001
4.9 0.0004
4.95 0.00064
5 0.00066
5.05 0.00061
5.1 0.00065
5.15 0.00062
5.2 0.00064
5.25 0.00048
5.3 0.00028
5.35 0.00003
5.4 -0.00022
5.45 -0.00018
5.5 -0.00017
5.55 -0.00028
5.6 -0.00044
5.65 -0.00042
5.7 -0.00017
5.75 -0.00011
5.8 0.00001
5.85 0.00012
5.9 0.00042
5.95 0.00046
6 0.00037
6.05 0.00018
6.1 0.00004
6.15 -0.00018
6.2 -0.00025
6.25 -0.00022
6.3 0.00003
6.35 0.00031
6.4 0.00035
6.45 0.00058
6.5 0.0009
6.55 0.00107
6.6 0.00109
6.65 0.00121
6.7 0.00106
6.75 0.00099
6.8 0.00108
6.85 0.00119
6.9 0.00133
6.95 0.00145
7 0.00126
7.05 0.00113
7.1 0.00088
7.15 0.00058
7.2 0.00047
7.25 0.00049
7.3 0.00057
7.35 0.00051
7.4 0.00045
7.45 0.0004
7.5 0.0004
7.55 0.00057
7.6 0.00047
7.65 0.00026
7.7 0.00017
7.75 0
7.8 -0.00008
7.85 -0.0003
7.9 -0.00031
7.95 -0.00014
8 -0.00007
8.05 0.00001
8.1 -0.00004
8.15 -0.00006
8.2 -0.00009
8.25 0.00009
8.3 0.00031
8.35 0.00024
8.4 0.00008
8.45 -0.00005
8.5 -0.00003
8.55 -0.00001
8.6 0.00007
8.65 0.00016
8.7 0.00024
8.75 0.00018
8.8 0.00024
8.85 0.00015
8.9 0.00004
8.95 0.00002
9 0.00013
9.05 0.00009
9.1 0.00002
9.15 0.00016
9.2 0.00043
9.25 0.00068
9.3 0.00061
9.35 0.00063
9.4 0.00065
9.45 0.00068
9.5 0.00052
9.55 0.00026
9.6 -0.00008
9.65 -0.00031
9.7 -0.00036
9.75 -0.00035
9.8 -0.00026
9.85 -0.00017
9.9 -0.00006
9.95 -0
10 0.00003
10.05 -0.00004
10.1 -0.00018
10.15 -0.00036
10.2 -0.00055
10.25 -0.00047
10.3 -0.0003
10.35 -0.00015
10.4 -0.00006
10.45 -0.00002
10.5 0.00007
10.55 0.0001
10.6 0.00017
10.65 0.0004
10.7 0.00064
10.75 0.00066
10.8 0.00057
10.85 0.00055
10.9 0.00044
10.95 0.00035
11 0.00041
11.05 0.00043
11.1 0.00055
11.15 0.00074
11.2 0.00061
11.25 0.00036
11.3 0.00004
11.35 -0.00026
11.4 -0.0004
11.45 -0.00031
11.5 -0.00004
11.55 0.00022
11.6 0.00032
11.65 0.00037
11.7 0.00038
11.75 0.00043
11.8 0.00032
11.85 0.00029
11.9 0.00029
11.95 0.00021
12 0.00002
12.05 -0.00023
12.1 -0.00022
12.15 -0.00012
12.2 -0.00009
12.25 -0.0002
12.3 -0.00025
12.35 -0.00011
12.4 0.00013
12.45 0.00013
12.5 -0.00001
12.55 -0.00026
12.6 -0.00046
12.65 -0.00036
12.7 -0.00027
12.75 -0.00027
12.8 -0.00027
12.85 -0.00019
12.9 -0.00008
12.95 0.00017
13 0.00015
13.05 0.00005
13.1 -0.00017
13.15 -0.00043
13.2 -0.00065
13.25 -0.00068
13.3 -0.00075
13.35 -0.00075
13.4 -0.00065
13.45 -0.00049
13.5 -0.00041
13.55 -0.00032
13.6 -0.0004
13.65 -0.00046
13.7 -0.00049
13.75 -0.00062
13.8 -0.00046
13.85 -0.00044
13.9 -0.0003
13.95 -0.00033
14 -0.00034
14.05 -0.00035
14.1 -0.00034
14.15 -0.00035
14.2 -0.00031
14.25 -0.00011
14.3 0.00019
14.35 0.00036
14.4 0.00041
14.45 0.00053
14.5 0.00063
14.55 0.00047
14.6 0.00028
14.65 0.00018
14.7 -0.00005
14.75 -0.00003
14.8 -0
14.85 -0.00012
14.9 -0.00033
14.95 -0.00029
15 -0.00021
15.05 -0.00004
15.1 -0.00005
15.15 -0.00002
15.2 -0.00003
15.25 0.00004
15.3 0.00011
15.35 0.00002
15.4 -0.00006
15.45 -0.00001
15.5 -0
15.55 -0.00006
15.6 -0.00009
15.65 -0.00022
15.7 -0.00009
15.75 -0.00002
15.8 0.00001
15.85 -0.00005
15.9 -0.00021
15.95 -0.0001
16 -0.00007
16.05 0
16.1 0.00014
16.15 0.00022
16.2 0.00011
16.25 -0.00015
16.3 -0.00019
16.35 -0.00018
16.4 -0.00009
16.45 -0.00019
16.5 -0.00006
16.55 0.00007
16.6 0.00019
16.65 0.00041
16.7 0.00039
16.75 0.00021
16.8 -0.0001
16.85 -0.00044
16.9 -0.00066
16.95 -0.00061
17 -0.00058
17.05 -0.00045
17.1 -0.00034
17.15 -0.00027
17.2 -0.00024
17.25 -0.00034
17.3 -0.00043
17.35 -0.00034
17.4 -0.00032
17.45 -0.00031
17.5 -0.00032
17.55 -0.00016
17.6 0.00008
17.65 0.00024
17.7 0.00023
17.75 0.00034
17.8 0.00058
17.85 0.00073
17.9 0.00071
17.95 0.0008
18 0.00065
18.05 0.00054
18.1 0.00041
18.15 0.00023
18.2 0.00013
18.25 -0.00006
18.3 0
18.35 -0.00001
18.4 0.00008
18.45 0.00032
18.5 0.0004
18.55 0.00046
18.6 0.00039
18.65 0.00027
18.7 -0.00001
18.75 -0.00034
18.8 -0.00041
18.85 -0.00037
18.9 -0.00014
18.95 -0.00004
19 -0.00009
19.05 0.00001
19.1 -0.00005
19.15 -0.00001
19.2 -0.00012
19.25 -0.00035
19.3 -0.00035
19.35 -0.00038
19.4 -0.00018
19.45 -0.00001
19.5 0.0002
19.55 0.00046
19.6 0.00071
19.65 0.001
19.7 0.00105
19.75 0.00108
19.8 0.0009
19.85 0.00085
19.9 0.00094
19.95 0.00111
20 0.00126
20.05 0.00107
20.1 0.00089
20.15 0.0007
20.2 0.00061
20.25 0.00047
20.3 0.00033
20.35 0.00019
20.4 -0.0001
20.45 -0.00025
20.5 -0.00033
20.55 -0.00045
20.6 -0.00052
20.65 -0.00051
20.7 -0.00064
20.75 -0.00074
20.8 -0.00089
20.85 -0.00094
20.9 -0.00102
20.95 -0.00109
21 -0.00098
21.05 -0.00065
21.1 -0.00033
21.15 0.0001
21.2 0.00035
21.25 0.00045
21.3 0.00039
21.35 0.00037
21.4 0.00045
21.45 0.00033
21.5 0.0003
21.55 0.00021
21.6 0.00028
21.65 0.00012
21.7 -0.00017
21.75 -0.00016
21.8 0.00001
21.85 0.00008
21.9 -0.00003
21.95 -0.00028
22 -0.00057
22.05 -0.00056
22.1 -0.00044
22.15 -0.00026
22.2 -0.00009
22.25 -0.0001
22.3 -0.00015
22.35 -0.00017
22.4 -0.00028
22.45 -0.00024
22.5 -0.0003
22.55 -0.00033
22.6 -0.0005
22.65 -0.00044
22.7 -0.00041
22.75 -0.00021
22.8 -0.00009
22.85 0.00016
22.9 0.00047
22.95 0.00062
23 0.00056
23.05 0.00056
23.1 0.00066
23.15 0.00077
23.2 0.00092
23.25 0.00084
23.3 0.00089
23.35 0.00072
23.4 0.00039
23.45 0.00026
23.5 0.00017
23.55 0.00025
23.6 0.00039
23.65 0.00054
23.7 0.00067
23.75 0.00076
23.8 0.00066
23.85 0.00045
23.9 0.00009
23.95 -0.00012
24 -0.00029
24.05 -0.00054
24.1 -0.00059
24.15 -0.00054
24.2 -0.00062
24.25 -0.0008
24.3 -0.00089
24.35 -0.00073
24.4 -0.00042
24.45 -0.00035
24.5 -0.00016
24.55 0.00013
24.6 0.00048
24.65 0.00085
24.7 0.00089
24.75 0.001
24.8 0.00104
24.85 0.00094
24.9 0.00096
24.95 0.00088
25 0.00064
25.05 0.00045
25.1 0.00012
25.15 -0.00029
25.2 -0.00043
25.25 -0.00043
25.3 -0.00027
25.35 -0.00004
25.4 0.00022
25.45 0.00052
25.5 0.00056
25.55 0.00042
25.6 0.00046
25.65 0.00044
25.7 0.00024
25.75 0.00019
25.8 0.00006
25.85 -0.00011
25.9 -0.00011
25.95 -0.0002
26 -0.0001
26.05 -0.00022
26.1 -0.00021
26.15 -0.00005
26.2 0.00014
26.25 0.0001
26.3 0.00001
26.35 -0.00023
26.4 -0.00038
26.45 -0.00065
26.5 -0.00063
26.55 -0.00066
26.6 -0.00062
26.65 -0.0005
26.7 -0.0004
26.75 -0.00047
26.8 -0.00056
26.85 -0.00076
26.9 -0.00084
26.95 -0.00084
27 -0.00077
27.05 -0.00055
27.1 -0.00036
27.15 -0.00023
27.2 -0.0003
27.25 -0.0004
27.3 -0.00049
27.35 -0.00058
27.4 -0.00047
27.45 -0.00047
27.5 -0.00051
27.55 -0.00049
27.6 -0.00055
27.65 -0.00053
27.7 -0.00033
27.75 -0.00009
27.8 -0.00003
27.85 0.00017
27.9 0.00013
27.95 0.00023
28 0.00039
28.05 0.00051
28.1 0.00042
28.15 0.00047
28.2 0.00053
28.25 0.00061
28.3 0.00077
28.35 0.00066
28.4 0.00054
28.45 0.00046
28.5 0.00055
28.55 0.00068
28.6 0.00077
28.65 0.0006
28.7 0.00061
28.75 0.00062
28.8 0.00069
28.85 0.00065
28.9 0.00046
28.95 0.00015
29 0.00012
29.05 0.00021
29.1 0.00005
29.15 0
29.2 0.0001
29.25 0.00032
29.3 0.00027
29.35 0.00029
29.4 0.00033
29.45 0.00015
29.5 0.00001
29.55 0.00001
29.6 0.00001
29.65 0.00003
29.7 -0.00002
29.75 0.00009
29.8 0.00026
29.85 0.00029
29.9 0.00016
29.95 0.00022
30 0.00028
30.05 0.00016
30.1 -0.00001
30.15 -0.00002
30.2 -0
30.25 -0.00012
30.3 -0.00011
30.35 -0.00015
30.4 -0.00021
30.45 -0.00018
30.5 -0.00024
30.55 -0.00015
30.6 -0.00009
30.65 -0.00012
30.7 -0.0002
30.75 -0.00029
30.8 -0.00044
30.85 -0.00041
30.9 -0.00039
30.95 -0.00032
31 -0.00023
31.05 -0.00007
31.1 0.00013
31.15 0.00035
31.2 0.00034
31.25 0.00012
31.3 -0.00022
31.35 -0.00038
31.4 -0.0005
31.45 -0.00056
31.5 -0.00068
31.55 -0.00069
31.6 -0.00053
31.65 -0.00022
31.7 -0.00002
31.75 0.0001
31.8 0.00034
31.85 0.00027
31.9 0
31.95 -0.00011
32 -0.00006
32.05 -0.00016
32.1 -0.00015
32.15 -0.0001
32.2 -0.0001
32.25 -0.00024
32.3 -0.00021
32.35 -0.00007
32.4 0.00003
32.45 -0.00002
32.5 0.00007
32.55 0.00016
32.6 0.00034
32.65 0.00035
32.7 0.00021
32.75 -0.00003
32.8 -0.00005
32.85 0.00007
32.9 0.00025
32.95 0.00046
33 0.00062
33.05 0.00067
33.1 0.00067
33.15 0.00061
33.2 0.00032
33.25 0.00017
33.3 0.00009
33.35 0.00008
33.4 -0.00003
33.45 -0.00025
33.5 -0.00025
33.55 -0.00025
33.6 -0.00042
33.65 -0.00058
33.7 -0.00078
33.75 -0.0007
33.8 -0.00061
33.85 -0.00043
33.9 -0.00021
33.95 0.00002
34 -0.00001
34.05 0.00005
34.1 0.00026
34.15 0.00048
34.2 0.00057
34.25 0.00057
34.3 0.00039
34.35 0.00023
34.4 0.0001
34.45 -0.00007
34.5 -0.0002
34.55 -0.00017
34.6 -0.00003
34.65 0.00012
34.7 0.00026
34.75 0.00011
34.8 -0.00022
34.85 -0.00071
34.9 -0.00107
34.95 -0.00135
35 -0.00148
35.05 -0.00158
35.1 -0.00184
35.15 -0.00222
35.2 -0.00256
35.25 -0.00298
35.3 -0.00341
35.35 -0.00395
35.4 -0.00455
35.45 -0.0054
35.5 -0.00648
35.55 -0.00771
35.6 -0.00922
35.65 -0.01101
35.7 -0.01269
35.75 -0.0146
35.8 -0.01649
35.85 -0.01861
35.9 -0.02071
35.95 -0.02317
36 -0.02569
36.05 -0.02822
36.1 -0.03074
36.15 -0.03339
36.2 -0.03629
36.25 -0.03942
36.3 -0.04265
36.35 -0.04577
36.4 -0.04878
36.45 -0.05159
36.5 -0.05448
36.55 -0.05737
36.6 -0.05991
36.65 -0.06224
36.7 -0.06416
36.75 -0.06575
36.8 -0.06721
36.85 -0.06831
36.9 -0.06892
36.95 -0.06907
37 -0.06899
37.05 -0.06858
37.1 -0.0677
37.15 -0.06642
37.2 -0.06488
37.25 -0.06294
37.3 -0.06069
37.35 -0.05831
37.4 -0.05617
37.45 -0.05422
37.5 -0.05241
37.55 -0.05052
37.6 -0.04885
37.65 -0.04733
37.7 -0.04592
37.75 -0.04464
37.8 -0.04379
37.85 -0.04311
37.9 -0.04298
37.95 -0.04314
38 -0.04337
38.05 -0.04394
38.1 -0.04485
38.15 -0.04595
38.2 -0.04697
38.25 -0.04794
38.3 -0.04863
38.35 -0.04902
38.4 -0.04909
38.45 -0.04853
38.5 -0.04745
38.55 -0.04592
38.6 -0.04395
38.65 -0.04127
38.7 -0.03773
38.75 -0.03356
38.8 -0.02874
38.85 -0.02312
38.9 -0.01707
38.95 -0.01057
39 -0.00345
39.05 0.00412
39.1 0.01206
39.15 0.02044
39.2 0.02896
39.25 0.03748
39.3 0.04608
39.35 0.05449
39.4 0.0625
39.45 0.07026
39.5 0.0776
39.55 0.08479
39.6 0.09149
39.65 0.09766
39.7 0.10354
39.75 0.10886
39.8 0.11358
39.85 0.11776
39.9 0.12121
39.95 0.12373
40 0.12548
40.05 0.12659
40.1 0.12712
40.15 0.12708
40.2 0.12664
40.25 0.126
40.3 0.12489
40.35 0.1232
40.4 0.12109
40.45 0.1188
40.5 0.116
40.55 0.11289
40.6 0.10961
40.65 0.10628
40.7 0.1028
40.75 0.09905
40.8 0.09511
40.85 0.09122
40.9 0.08738
40.95 0.08357
41 0.07969
41.05 0.07577
41.1 0.07175
41.15 0.06779
41.2 0.06372
41.25 0.05984
41.3 0.05597
41.35 0.05206
41.4 0.04849
41.45 0.04484
41.5 0.04149
41.55 0.03837
41.6 0.03525
41.65 0.03221
41.7 0.02943
41.75 0.02662
41.8 0.02382
41.85 0.02126
41.9 0.01888
41.95 0.01664
42 0.01435
42.05 0.01225
42.1 0.01022
42.15 0.00852
42.2 0.00692
42.25 0.00542
42.3 0.00407
42.35 0.0027
42.4 0.00156
42.45 0.00038
42.5 -0.00069
42.55 -0.0016
42.6 -0.00236
42.65 -0.00316
42.7 -0.00385
42.75 -0.00465
42.8 -0.00526
42.85 -0.00608
42.9 -0.0067
42.95 -0.00727
43 -0.00784
43.05 -0.0083
43.1 -0.00875
43.15 -0.00923
43.2 -0.00962
43.25 -0.01015
43.3 -0.01046
43.35 -0.01073
43.4 -0.01082
43.45 -0.01101
43.5 -0.01126
43.55 -0.01151
43.6 -0.01191
43.65 -0.01208
43.7 -0.0121
43.75 -0.01227
43.8 -0.01243
43.85 -0.01263
43.9 -0.01291
43.95 -0.01292
44 -0.01291
44.05 -0.013
44.1 -0.01307
44.15 -0.0131
44.2 -0.01308
44.25 -0.01315
44.3 -0.01319
44.35 -0.01339
44.4 -0.01345
44.45 -0.01346
44.5 -0.0135
44.55 -0.01353
44.6 -0.01358
44.65 -0.01366
44.7 -0.01349
44.75 -0.01336
44.8 -0.01332
44.85 -0.01335
44.9 -0.01327
44.95 -0.01308
45 -0.01294
45.05 -0.01269
45.1 -0.01266
45.15 -0.01263
45.2 -0.01258
45.25 -0.01245
45.3 -0.01222
45.35 -0.01205
45.4 -0.012
45.45 -0.01211
45.5 -0.01231
45.55 -0.01246
45.6 -0.01237
45.65 -0.01238
45.7 -0.01235
45.75 -0.01239
45.8 -0.01218
45.85 -0.01213
45.9 -0.01203
45.95 -0.01191
46 -0.0116
46.05 -0.0115
46.1 -0.0114
46.15 -0.01133
46.2 -0.01105
46.25 -0.01087
46.3 -0.01063
46.35 -0.01049
46.4 -0.01034
46.45 -0.01006
46.5 -0.00972
46.55 -0.00947
46.6 -0.00925
46.65 -0.0091
46.7 -0.00906
46.75 -0.00913
46.8 -0.00925
46.85 -0.00918
46.9 -0.00893
46.95 -0.00882
47 -0.00861
47.05 -0.00857
47.1 -0.00846
47.15 -0.00829
47.2 -0.0083
47.25 -0.00806
47.3 -0.00767
47.35 -0.00722
47.4 -0.00693
47.45 -0.00656
47.5 -0.00622
47.55 -0.00597
47.6 -0.00594
47.65 -0.00603
47.7 -0.00632
47.75 -0.00635
47.8 -0.00648
47.85 -0.0064
47.9 -0.00637
47.95 -0.0062
48 -0.00592
48.05 -0.00589
48.1 -0.00577
48.15 -0.00577
48.2 -0.00576
48.25 -0.00582
48.3 -0.00584
48.35 -0.00567
48.4 -0.00565
48.45 -0.00578
48.5 -0.00568
48.55 -0.00559
48.6 -0.00534
48.65 -0.00519
48.7 -0.00499
48.75 -0.00482
48.8 -0.00453
48.85 -0.00439
48.9 -0.00437
48.95 -0.00447
49 -0.00436
49.05 -0.00416
49.1 -0.00423
49.15 -0.00419
49.2 -0.00406
49.25 -0.00402
49.3 -0.00404
49.35 -0.00412
49.4 -0.0041
49.45 -0.00396
49.5 -0.00392
49.55 -0.00392
49.6 -0.00389
49.65 -0.00377
49.7 -0.00378
49.75 -0.00383
49.8 -0.00365
49.85 -0.00352
49.9 -0.00326
49.95 -0.00319
50 -0.00323
50.05 -0.00327
50.1 -0.00335
50.15 -0.00332
50.2 -0.00341
50.25 -0.00359
50.3 -0.00351
50.35 -0.00357
50.4 -0.00353
50.45 -0.00347
50.5 -0.00328
50.55 -0.00306
50.6 -0.003
50.65 -0.0028
50.7 -0.00278
50.75 -0.00278
50.8 -0.00293
50.85 -0.00318
50.9 -0.00342
50.95 -0.00339
51 -0.00337
51.05 -0.00331
51.1 -0.003
51.15 -0.00258
51.2 -0.00237
51.25 -0.00221
51.3 -0.00215
51.35 -0.00211
51.4 -0.00224
51.45 -0.00241
51.5 -0.00233
51.55 -0.00225
51.6 -0.00207
51.65 -0.00181
51.7 -0.00177
51.75 -0.00172
51.8 -0.00178
51.85 -0.00186
51.9 -0.00173
51.95 -0.00183
52 -0.00203
52.05 -0.00216
52.1 -0.00214
52.15 -0.00199
52.2 -0.00174
52.25 -0.00146
52.3 -0.00132
52.35 -0.0014
52.4 -0.00145
52.45 -0.00133
52.5 -0.00138
52.55 -0.00141
52.6 -0.00149
52.65 -0.00168
52.7 -0.00169
52.75 -0.00174
52.8 -0.00172
52.85 -0.00154
52.9 -0.00144
52.95 -0.00121
53 -0.00092
53.05 -0.00095
53.1 -0.00092
53.15 -0.00094
53.2 -0.00114
53.25 -0.00118
53.3 -0.00121
53.35 -0.00118
53.4 -0.00104
53.45 -0.00101
53.5 -0.00111
53.55 -0.0013
53.6 -0.00127
53.65 -0.00114
53.7 -0.00123
53.75 -0.0014
53.8 -0.00166
53.85 -0.00185
53.9 -0.00177
53.95 -0.00179
54 -0.00156
54.05 -0.00151
54.1 -0.00151
54.15 -0.00135
54.2 -0.00119
54.25 -0.00121
54.3 -0.001
54.35 -0.00084
54.4 -0.00068
54.45 -0.00069
54.5 -0.00088
54.55 -0.00108
54.6 -0.00099
54.65 -0.00104
54.7 -0.00101
54.75 -0.00106
54.8 -0.00089
54.85 -0.00091
54.9 -0.00106
54.95 -0.00096
55 -0.00087
55.05 -0.00081
55.1 -0.00059
55.15 -0.00029
55.2 0.00005
55.25 0.00015
55.3 -0.00002
55.35 -0.00001
55.4 0.00005
55.45 -0.00002
55.5 -0.0001
55.55 -0.00034
55.6 -0.00032
55.65 -0.00044
55.7 -0.00036
55.75 -0.00037
55.8 -0.00039
55.85 -0.00058
55.9 -0.00056
55.95 -0.00068
56 -0.0008
56.05 -0.00103
56.1 -0.0013
56.15 -0.00153
56.2 -0.00162
56.25 -0.00162
56.3 -0.00157
56.35 -0.00158
56.4 -0.00167
56.45 -0.00154
56.5 -0.00123
56.55 -0.00102
56.6 -0.00089
56.65 -0.00064
56.7 -0.00036
56.75 -0.00015
56.8 -0.00019
56.85 -0.00009
56.9 0.00004
56.95 0.00019
57 0.00022
57.05 0.00022
57.1 0.00002
57.15 -0.00018
57.2 -0.00049
57.25 -0.00077
57.3 -0.00098
57.35 -0.00096
57.4 -0.00087
57.45 -0.0007
57.5 -0.00051
57.55 -0.0002
57.6 -0.00014
57.65 0.00001
57.7 -0.00003
57.75 0.00007
57.8 0.00021
57.85 0.00042
57.9 0.00058
57.95 0.00057
58 0.00051
58.05 0.00022
58.1 0
58.15 -0.00023
58.2 -0.0002
58.25 -0.00032
58.3 -0.00058
58.35 -0.0008
58.4 -0.00107
58.45 -0.0012
58.5 -0.00138
58.55 -0.00157
58.6 -0.00159
58.65 -0.00148
58.7 -0.00132
58.75 -0.00111
58.8 -0.00073
58.85 -0.00038
58.9 0.00001
58.95 0.00032
59 0.00031
59.05 0.00023
59.1 -0
59.15 -0.00034
59.2 -0.00064
59.25 -0.00093
59.3 -0.00101
59.35 -0.00087
59.4 -0.00067
59.45 -0.00049
59.5 -0.00042
59.55 -0.00026
59.6 -0.00017
59.65 -0.00011
59.7 -0.00003
59.75 -0.00013
59.8 -0.00025
59.85 -0.00019
59.9 -0.00015
59.95 -0.00021
60 -0.00028
60.05 -0.00032
60.1 -0.00038
60.15 -0.00028
60.2 -0.00024
60.25 -0.00009
60.3 0.00011
60.35 0.0002
60.4 0.00007
60.45 -0.00004
60.5 0.00006
60.55 0.00024
60.6 0.0003
60.65 0.00045
60.7 0.00057
60.75 0.00076
60.8 0.00065
60.85 0.00054
60.9 0.00055
60.95 0.00039
61 0.00009
61.05 -0.00027
61.1 -0.00051
61.15 -0.00056
61.2 -0.00053
61.25 -0.00039
61.3 -0.00015
61.35 -0.00016
61.4 -0.00004
61.45 0.00017
61.5 0.00014
61.55 0.00024
61.6 0.00038
61.65 0.0003
61.7 0.0003
61.75 0.00034
61.8 0.00021
61.85 -0.00009
61.9 -0.00026
61.95 -0.00039
62 -0.00061
62.05 -0.00057
62.1 -0.00058
62.15 -0.00058
62.2 -0.0004
62.25 -0.00037
62.3 -0.00016
62.35 -0.00013
62.4 -0.00018
62.45 -0.00033
62.5 -0.00057
62.55 -0.00085
62.6 -0.00085
62.65 -0.00082
62.7 -0.00091
62.75 -0.00085
62.8 -0.00076
62.85 -0.00079
62.9 -0.00081
62.95 -0.00071
63 -0.0007
63.05 -0.0005
63.1 -0.00039
63.15 -0.00027
63.2 -0.00031
63.25 -0.00029
63.3 -0.00007
63.35 0.00024
63.4 0.00049
63.45 0.00054
63.5 0.00042
63.55 0.00035
63.6 0.0002
63.65 0.00024
63.7 0.00038
63.75 0.00045
63.8 0.00037
63.85 0.00024
63.9 0.00014
63.95 0.00023
64 0.00025
64.05 0.00039
64.1 0.00044
64.15 0.00062
64.2 0.00088
64.25 0.00111
64.3 0.0012
64.35 0.00117
64.4 0.00114
64.45 0.00115
64.5 0.00115
64.55 0.00117
64.6 0.00102
64.65 0.00077
64.7 0.00048
64.75 0.00017
64.8 -0.00009
64.85 -0.0003
64.9 -0.00037
64.95 -0.00038
65 -0.0004
65.05 -0.00039
65.1 -0.00017
65.15 -0.00007
65.2 0.0001
65.25 0.00017
65.3 0.00013
65.35 0.00026
65.4 0.00013
65.45 0.00011
65.5 0.00022
65.55 0.00008
65.6 -0.00014
65.65 -0.00032
65.7 -0.00024
65.75 0.00001
65.8 0.00035
65.85 0.00068
65.9 0.00082
65.95 0.00087
66 0.00087
66.05 0.00089
66.1 0.00099
66.15 0.00115
66.2 0.00124
66.25 0.00102
66.3 0.00095
66.35 0.00071
66.4 0.0004
66.45 0.00035
66.5 0.00015
66.55 0.00017
66.6 0.00015
66.65 0.00008
66.7 -0.00002
66.75 0.00005
66.8 0.00003
66.85 0.00002
66.9 0.00001
66.95 0.00007
67 0.00018
67.05 0.00011
67.1 0.0002
67.15 0.00007
67.2 -0.00017
67.25 -0.00048
67.3 -0.00081
67.35 -0.00087
67.4 -0.00082
67.45 -0.00077
67.5 -0.00059
67.55 -0.00049
67.6 -0.00029
67.65 -0.00025
67.7 -0.00025
67.75 -0.00014
67.8 -0.00007
67.85 -0.00005
67.9 -0.00021
67.95 -0.0003
68 -0.00033
68.05 -0.00028
68.1 -0.00012
68.15 0.0001
68.2 0.00006
68.25 0.00011
68.3 -0.00005
68.35 -0.00011
68.4 -0.00023
68.45 -0.00019
68.5 -0.00004
68.55 0.00002
68.6 0
68.65 0.00015
68.7 0.00014
68.75 0.00006
68.8 -0.00011
68.85 -0.00017
68.9 -0.00032
68.95 -0.00028
69 -0.00033
69.05 -0.00038
69.1 -0.00031
69.15 -0.00011
69.2 -0.00005
69.25 0.00017
69.3 0.00036
69.35 0.00028
69.4 0.00022
69.45 0.00012
69.5 0.00004
69.55 -0.00019
69.6 -0.00051
69.65 -0.00065
69.7 -0.00054
69.75 -0.0004
69.8 -0.00021
69.85 -0.00017
69.9 -0.00009
69.95 0.00013
70 0.00032
70.05 0.00058
70.1 0.00061
70.15 0.00046
70.2 0.0003
70.25 0.00021
70.3 0
70.35 -0.00002
70.4 0.00004
70.45 -0.00007
70.5 0.00005
70.55 0.00002
70.6 -0.00014
70.65 -0.00007
70.7 -0.00016
70.75 -0.00025
70.8 -0.00046
70.85 -0.00047
70.9 -0.00059
70.95 -0.00048
71 -0.00051
71.05 -0.00034
71.1 -0.00011
71.15 0.00005
71.2 0.0002
71.25 0.0001
71.3 0.00002
71.35 -0.00007
71.4 -0.0003
71.45 -0.00038
71.5 -0.00027
71.55 -0.00036
71.6 -0.00045
71.65 -0.00054
71.7 -0.00062
71.75 -0.00056
71.8 -0.00036
71.85 -0.00023
71.9 -0.00016
71.95 -0.00004
72 0.00012
72.05 0.00013
72.1 0.00031
72.15 0.00047
72.2 0.00049
72.25 0.00041
72.3 0.00043
72.35 0.00024
72.4 -0.00006
72.45 -0.00013
72.5 -0.00003
72.55 0.00001
72.6 0.00002
72.65 0.00001
72.7 0.00019
72.75 0.00019
72.8 0.00037
72.85 0.00026
72.9 0.00008
72.95 0.00013
73 0.00003
73.05 -0.00021
73.1 -0.0004
73.15 -0.00048
73.2 -0.00055
73.25 -0.00049
73.3 -0.00024
73.35 -0.00008
73.4 -0.00011
73.45 -0.00014
73.5 -0.00006
73.55 -0.00009
73.6 -0.00015
73.65 -0.00032
73.7 -0.00033
73.75 -0.00037
73.8 -0.00024
73.85 0.00001
73.9 0.00019
73.95 0.00012
74 0.00014
74.05 0.00022
74.1 0.00012
74.15 0.0002
74.2 0.00027
74.25 0.00039
74.3 0.00055
74.35 0.00072
74.4 0.00074
74.45 0.00075
74.5 0.0006
74.55 0.00061
74.6 0.00055
74.65 0.00049
74.7 0.00023
74.75 0.0001
74.8 -0.00013
74.85 -0.0002
74.9 -0.00005
74.95 -0
75 0.00006
75.05 0.00016
75.1 0.00009
75.15 0.0002
75.2 0.00034
75.25 0.00043
75.3 0.00048
75.35 0.00038
75.4 0.00041
75.45 0.00021
75.5 0.00016
75.55 0.00018
75.6 0.00001
75.65 -0.00006
75.7 0.00002
75.75 0.00012
75.8 0.00027
75.85 0.00047
75.9 0.00056
75.95 0.00048
76 0.00044
76.05 0.00026
76.1 0.00017
76.15 -0.00006
76.2 -0.00023
76.25 -0.00049
76.3 -0.00065
76.35 -0.00058
76.4 -0.00058
76.45 -0.00073
76.5 -0.00063
76.55 -0.00037
76.6 -0.00021
76.65 -0.00028
76.7 -0.00042
76.75 -0.00061
76.8 -0.00062
76.85 -0.0004
76.9 -0.00012
76.95 0.00001
77 0.00014
77.05 0.00038
77.1 0.0003
77.15 0.00009
77.2 -0.00021
77.25 -0.00036
77.3 -0.00026
77.35 -0.00012
77.4 0.00012
77.45 0.00013
77.5 0.00014
77.55 0.00011
77.6 -0.00009
77.65 -0.00023
77.7 -0.00022
77.75 -0.00008
77.8 -0.00008
77.85 -0.00016
77.9 -0.0003
77.95 -0.00043
78 -0.00056
78.05 -0.00042
78.1 -0.00036
78.15 -0.00033
78.2 -0.00043
78.25 -0.00029
78.3 -0.00027
78.35 -0.00037
78.4 -0.00053
78.45 -0.00056
78.5 -0.0005
78.55 -0.00038
78.6 -0.00027
78.65 -0.0003
78.7 -0.00025
78.75 -0.00037
78.8 -0.00045
78.85 -0.00064
78.9 -0.00055
78.95 -0.00049
79 -0.00025
79.05 -0.00007
79.1 0.00019
79.15 0.00041
79.2 0.00064
79.25 0.0008
79.3 0.0008
79.35 0.00061
79.4 0.00058
79.45 0.00042
79.5 0.00034
79.55 0.00043
79.6 0.00027
79.65 0.00028
79.7 0.00039
79.75 0.00034
79.8 0.0004
79.85 0.00052
79.9 0.00051
79.95 0.00047
80 0.00049
80.05 0.0003
80.1 0.00003
80.15 -0.00032
80.2 -0.00058
80.25 -0.00067
80.3 -0.00086
80.35 -0.00079
80.4 -0.00068
80.45 -0.00046
80.5 -0.00021
80.55 -0.00013
80.6 -0.00017
80.65 -0.00034
80.7 -0.00056
80.75 -0.00075
80.8 -0.00068
80.85 -0.00048
80.9 -0.0003
80.95 -0.00003
81 0.00009
81.05 0.00015
81.1 0.00012
81.15 0.00005
81.2 0.00013
81.25 0.00018
81.3 0.00018
81.35 0.00027
81.4 0.00045
81.45 0.00069
81.5 0.00086
81.55 0.00081
81.6 0.00062
81.65 0.00048
81.7 0.00028
81.75 0.00007
81.8 0.00008
81.85 0.00012
81.9 0.00032
81.95 0.00041
82 0.00048
82.05 0.00029
82.1 0.00009
82.15 -0.00005
82.2 -0.00012
82.25 -0.00019
82.3 -0.0001
82.35 -0.00017
82.4 -0.00037
82.45 -0.0003
82.5 -0.00008
82.55 -0.00001
82.6 -0.00009
82.65 -0.00011
82.7 0.00004
82.75 0.00018
82.8 0.00022
82.85 0.00004
82.9 -0.00027
82.95 -0.00045
83 -0.00053
83.05 -0.00041
83.1 -0.0005
83.15 -0.0007
83.2 -0.00064
83.25 -0.00066
83.3 -0.00066
83.35 -0.00078
83.4 -0.00077
83.45 -0.00065
83.5 -0.00061
83.55 -0.00039
83.6 -0.00035
83.65 -0.00048
83.7 -0.00048
83.75 -0.00062
83.8 -0.00064
83.85 -0.00051
83.9 -0.00037
83.95 -0.00012
84 -0.00001
84.05 -0.00011
84.1 -0.00026
84.15 -0.00022
84.2 -0.00025
84.25 -0.00028
84.3 -0.00015
84.35 -0.00006
84.4 0.00011
84.45 0.00028
84.5 0.00041
84.55 0.00059
84.6 0.00052
84.65 0.00039
84.7 0.00011
84.75 -0.00008
84.8 -0.00035
84.85 -0.0003
84.9 -0.00035
84.95 -0.00019
85 0.00009
85.05 0.0004
85.1 0.00049
85.15 0.00054
85.2 0.00039
85.25 0.00013
85.3 -0.00019
85.35 -0.0004
85.4 -0.00056
85.45 -0.00069
85.5 -0.0007
85.55 -0.00077
85.6 -0.00056
85.65 -0.00028
85.7 -0.00008
85.75 -0.00012
85.8 -0
85.85 -0.00004
85.9 0.00014
85.95 0.00031
86 0.00023
86.05 0.00004
86.1 0.00006
86.15 0.00025
86.2 0.00035
86.25 0.00044
86.3 0.00053
86.35 0.00038
86.4 0.00033
86.45 0.00036
86.5 0.00055
86.55 0.00069
86.6 0.00062
86.65 0.00033
86.7 0.00015
86.75 0.00018
86.8 0.00032
86.85 0.00035
86.9 0.00032
86.95 0.00037
87 0.00044
87.05 0.00042
87.1 0.0002
87.15 0.00024
87.2 0.00006
87.25 -0.00008
87.3 -0.00024
87.35 -0.00018
87.4 -0.0001
87.45 -0.00003
87.5 -0.00002
87.55 0.0001
87.6 0.00015
87.65 0.00007
87.7 -0.00008
87.75 -0.00013
87.8 -0.00024
87.85 -0.00023
87.9 -0.00028
87.95 -0.00043
88 -0.00035
88.05 -0.0002
88.1 -0.0001
88.15 0.00004
88.2 0.00018
88.25 0.00042
88.3 0.00054
88.35 0.00048
88.4 0.00035
88.45 0.0004
88.5 0.00051
88.55 0.00035
88.6 0.00002
88.65 -0.00029
88.7 -0.00063
88.75 -0.00076
88.8 -0.00071
88.85 -0.00076
88.9 -0.00087
88.95 -0.00091
89 -0.0009
89.05 -0.00074
89.1 -0.0006
89.15 -0.00028
89.2 -0.00006
89.25 0.00002
89.3 0.00022
89.35 0.0004
89.4 0.00032
89.45 0.00034
89.5 0.00044
89.55 0.00066
89.6 0.00084
89.65 0.00095
89.7 0.00086
89.75 0.00066
89.8 0.00029
89.85 0.00001
89.9 -0.00006
89.95 -0.00013
90 -0.00024
90.05 -0.00019
90.1 -0.00008
90.15 -0.00017
90.2 -0.00005
90.25 -0.00008
90.3 0.00006
90.35 0.00016
90.4 0.00029
90.45 0.00037
90.5 0.00054
90.55 0.00076
90.6 0.00064
90.65 0.00043
90.7 0.00019
90.75 -0.00009
90.8 -0.00041
90.85 -0.00062
90.9 -0.00089
90.95 -0.00092
91 -0.00096
91.05 -0.00087
91.1 -0.00071
91.15 -0.00062
91.2 -0.00058
91.25 -0.00067
91.3 -0.0005
91.35 -0.00049
91.4 -0.00047
91.45 -0.00028
91.5 -0.00025
91.55 -0.00007
91.6 0.00013
91.65 0.00018
91.7 0.00031
91.75 0.00053
91.8 0.00044
91.85 0.00029
91.9 0.00024
91.95 0.00001
92 -0.00018
92.05 -0.00025
92.1 -0.00021
92.15 0.00001
92.2 -0.00003
92.25 -0.00025
92.3 -0.00034
92.35 -0.00028
92.4 -0.00009
92.45 0.00006
92.5 0.00023
92.55 0.00033
92.6 0.00031
92.65 0.00022
92.7 0.00019
92.75 0.00001
92.8 -0.0003
92.85 -0.00066
92.9 -0.0009
92.95 -0.00094
93 -0.00077
93.05 -0.00077
93.1 -0.00061
93.15 -0.00063
93.2 -0.00054
93.25 -0.00048
93.3 -0.00047
93.35 -0.00053
93.4 -0.00051
93.45 -0.00048
93.5 -0.00042
93.55 -0.0002
93.6 0.00002
93.65 0.00036
93.7 0.0007
93.75 0.00085
93.8 0.00074
93.85 0.00071
93.9 0.00073
93.95 0.00074
94 0.00053
94.05 0.00021
94.1 0.00001
94.15 -0.00007
94.2 0
94.25 -0.00012
94.3 -0.00027
94.35 -0.00033
94.4 -0.00041
94.45 -0.00045
94.5 -0.00056
94.55 -0.00039
94.6 -0.00015
94.65 0.00001
94.7 -0.00002
94.75 -0.00003
94.8 -0.00011
94.85 -0.00001
94.9 0.00012
94.95 0.00029
95 0.00048
95.05 0.00054
95.1 0.00047
95.15 0.00028
95.2 0.0001
95.25 -0.00007
95.3 -0.0002
95.35 -0.00038
95.4 -0.00033
95.45 -0.00014
95.5 -0.00007
95.55 0.00004
95.6 -0.00006
95.65 -0.00006
95.7 0.00013
95.75 0.0001
95.8 0.0001
95.85 -0.00007
95.9 -0.00003
95.95 -0.00015
96 -0.00005
96.05 0.0001
96.1 0.00022
96.15 0.00023
96.2 0.00038
96.25 0.00061
96.3 0.00056
96.35 0.00052
96.4 0.00044
96.45 0.00041
96.5 0.00047
96.55 0.00048
96.6 0.0005
96.65 0.00046
96.7 0.00043
96.75 0.00042
96.8 0.00025
96.85 -0.00002
96.9 -0.00017
96.95 -0.00014
97 -0.00001
97.05 0.00024
97.1 0.0002
97.15 0.00026
97.2 0.00021
97.25 0.00029
97.3 0.00026
97.35 0.00034
97.4 0.00024
97.45 0.00012
97.5 0.00014
97.55 0.00002
97.6 0.0001
97.65 0.00016
97.7 0.00011
97.75 -0.00004
97.8 -0.00032
97.85 -0.00032
97.9 -0.00026
97.95 -0.00038
98 -0.00031
98.05 -0.00012
98.1 0.00005
98.15 -0.00004
98.2 -0.00024
98.25 -0.0003
98.3 -0.00019
98.35 0.00002
98.4 0.00031
98.45 0.00035
98.5 0.00027
98.55 0.00018
98.6 -0.00001
98.65 -0.00014
98.7 -0.00033
98.75 -0.00062
98.8 -0.0008
98.85 -0.00074
98.9 -0.00081
98.95 -0.00082
99 -0.00082
99.05 -0.00076
99.1 -0.00055
99.15 -0.00022
99.2 -0.00011
99.25 -0.00022
99.3 -0.0004
99.35 -0.00029
99.4 -0.00009
99.45 0.00022
99.5 0.00036
99.55 0.00033
99.6 0.00042
99.65 0.00057
99.7 0.00076
99.75 0.00081
99.8 0.00072
99.85 0.00057
99.9 0.00037
99.95 0.00013
