0 0
0.05 0.00035
0.1 0.00061
0.15 0.00112
0.2 0.0017
0.25 0.00197
0.3 0.00201
0.35 0.00212
0.4 0.00215
0.45 0.00229
0.5 0.00219
0.55 0.00219
0.6 0.00202
0.65 0.00187
0.7 0.00173
0.75 0.00169
0.8 0.00161
0.85 0.00169
0.9 0.00195
0.95 0.00194
1 0.00198
1.05 0.00216
1.1 0.00214
1.15 0.00223
1.2 0.0024
1.25 0.00228
1.3 0.00201
1.35 0.00174
1.4 0.00143
1.45 0.00144
1.5 0.0014
1.55 0.00144
1.6 0.00159
1.65 0.00161
1.7 0.00183
1.75 0.00182
1.8 0.00192
1.85 0.0021
1.9 0.00214
1.95 0.00191
2 0.00189
2.05 0.00201
2.1 0.00226
2.15 0.0025
2.2 0.00236
2.25 0.00232
2.3 0.00226
2.35 0.00199
2.4 0.00155
2.45 0.00133
2.5 0.00134
2.55 0.00127
2.6 0.00141
2.65 0.00155
2.7 0.00169
2.75 0.0016
2.8 0.0017
2.85 0.00176
2.9 0.00165
2.95 0.00151
3 0.00125
3.05 0.00126
3.1 0.00115
3.15 0.00088
3.2 0.00055
3.25 0.00052
3.3 0.00048
3.35 0.0005
3.4 0.00046
3.45 0.00026
3.5 0.00034
3.55 0.00039
3.6 0.00067
3.65 0.00105
3.7 0.00133
3.75 0.00143
3.8 0.00154
3.85 0.00141
3.9 0.00107
3.95 0.00103
4 0.00114
4.05 0.00109
4.1 0.00103
4.15 0.00095
4.2 0.00082
4.25 0.00091
4.3 0.00107
4.35 0.00104
4.4 0.00104
4.45 0.00092
4.5 0.00093
4.55 0.00082
4.6 0.00069
4.65 0.00057
4.7 0.00029
4.75 0.0002
4.8 0.00034
4.85 0.00058
4.9 0.00068
4.95 0.0008
5 0.00074
5.05 0.00054
5.1 0.00056
5.15 0.00078
5.2 0.00108
5.25 0.00129
5.3 0.00148
5.35 0.00138
5.4 0.00135
5.45 0.0013
5.5 0.00098
5.55 0.00094
5.6 0.00086
5.65 0.00094
5.7 0.00096
5.75 0.00104
5.8 0.00109
5.85 0.00105
5.9 0.00081
5.95 0.00077
6 0.00064
6.05 0.00043
6.1 0.00033
6.15 0.00006
6.2 -0.00011
6.25 -0.00016
6.3 -0.00013
6.35 -0.00001
6.4 0.00001
6.45 0.00009
6.5 0.0002
6.55 0.00011
6.6 -0.00009
6.65 -0.00014
6.7 -0.00017
6.75 -0.00021
6.8 -0.0001
6.85 -0.00021
6.9 -0.00007
6.95 0.00024
7 0.00035
7.05 0.00049
7.1 0.00042
7.15 0.00036
7.2 0.00014
7.25 -0.0002
7.3 -0.00061
7.35 -0.00062
7.4 -0.0006
7.45 -0.00054
7.5 -0.00056
7.55 -0.00035
7.6 -0.00019
7.65 0.00007
7.7 0.00027
7.75 0.00045
7.8 0.00049
7.85 0.00039
7.9 0.00024
7.95 0.00005
8 -0.00007
8.05 0.00003
8.1 -0.00005
8.15 -0.00029
8.2 -0.00029
8.25 -0.00037
8.3 -0.00034
8.35 -0.00048
8.4 -0.00068
8.45 -0.00093
8.5 -0.00083
8.55 -0.00049
8.6 -0.00036
8.65 -0.00025
8.7 -0.00021
8.75 -0.00009
8.8 -0.00003
8.85 -0.00017
8.9 -0.00009
8.95 -0.00022
9 -0.0003
9.05 -0.00045
9.1 -0.00069
9.15 -0.00071
9.2 -0.00078
9.25 -0.00061
9.3 -0.00053
9.35 -0.0002
9.4 -0.00013
9.45 0.00009
9.5 0.00044
9.55 0.0005
9.6 0.00071
9.65 0.00078
9.7 0.00088
9.75 0.00097
9.8 0.00082
9.85 0.00081
9.9 0.00058
9.95 0.00059
10 0.00062
10.05 0.00072
10.1 0.00095
10.15 0.00093
10.2 0.001
10.25 0.00085
10.3 0.00068
10.35 0.0006
10.4 0.00063
10.45 0.00045
10.5 0.00039
10.55 0.0002
10.6 0.00029
10.65 0.00043
10.7 0.00069
10.75 0.00065
10.8 0.00058
10.85 0.00054
10.9 0.00029
10.95 0.00029
11 0.00026
11.05 0.00008
11.1 0.00003
11.15 0.00014
11.2 0.00029
11.25 0.00028
11.3 0.00018
11.35 0.00027
11.4 0.00041
11.45 0.00037
11.5 0.00044
11.55 0.00058
11.6 0.00074
11.65 0.00089
11.7 0.00083
11.75 0.00065
11.8 0.00067
11.85 0.00048
11.9 0.00023
11.95 -0.00007
12 -0.00041
12.05 -0.00061
12.1 -0.00085
12.15 -0.00096
12.2 -0.00078
12.25 -0.00063
12.3 -0.00055
12.35 -0.00029
12.4 -0.00024
12.45 0.00003
12.5 -0.00002
12.55 -0.00024
12.6 -0.00043
12.65 -0.00062
12.7 -0.00055
12.75 -0.00064
12.8 -0.00063
12.85 -0.00069
12.9 -0.00059
12.95 -0.00052
13 -0.00041
13.05 -0.00016
13.1 0.00016
13.15 0.00024
13.2 0.00038
13.25 0.00054
13.3 0.00081
13.35 0.00093
13.4 0.00078
13.45 0.00064
13.5 0.00063
13.55 0.00043
13.6 0.00037
13.65 0.00033
13.7 0.00045
13.75 0.00038
13.8 0.0002
13.85 0.00016
13.9 0.00009
13.95 0.00005
14 0.00014
14.05 0.00007
14.1 -0
14.15 0.00003
14.2 0.00004
14.25 0.00016
14.3 0.0003
14.35 0.00052
14.4 0.00056
14.45 0.00059
14.5 0.00043
14.55 0.00021
14.6 -0.00012
14.65 -0.0004
14.7 -0.00072
14.75 -0.00092
14.8 -0.00119
14.85 -0.00134
14.9 -0.00147
14.95 -0.00164
15 -0.00147
15.05 -0.00116
15.1 -0.00094
15.15 -0.00058
15.2 -0.00043
15.25 -0.00008
15.3 0.00005
15.35 0.0001
15.4 0.00029
15.45 0.00022
15.5 0.00024
15.55 0.00015
15.6 -0.00013
15.65 -0.00011
15.7 -0.00025
15.75 -0.00034
15.8 -0.00024
15.85 0.00003
15.9 0.0001
15.95 -0.00006
16 -0.00032
16.05 -0.00056
16.1 -0.0007
16.15 -0.00083
16.2 -0.00098
16.25 -0.00116
16.3 -0.00119
16.35 -0.00107
16.4 -0.00086
16.45 -0.00072
16.5 -0.00043
16.55 -0.00032
16.6 -0.00018
16.65 -0.00003
16.7 0.00008
16.75 0.00035
16.8 0.00063
16.85 0.00072
16.9 0.00055
16.95 0.0002
17 0.00008
17.05 0.00008
17.1 -0.00009
17.15 -0.0003
17.2 -0.00036
17.25 -0.00043
17.3 -0.00062
17.35 -0.00047
17.4 -0.0003
17.45 -0.00011
17.5 0.00023
17.55 0.00057
17.6 0.00073
17.65 0.00074
17.7 0.0009
17.75 0.00079
17.8 0.00082
17.85 0.00093
17.9 0.00085
17.95 0.00073
18 0.00039
18.05 0.00031
18.1 0.00011
18.15 0.00013
18.2 0.00005
18.25 0.00018
18.3 0.00035
18.35 0.00029
18.4 0.00015
18.45 0.00006
18.5 0.0001
18.55 0.00014
18.6 0.00026
18.65 0.00031
18.7 0.00015
18.75 0.0002
18.8 0.00002
18.85 -0.00004
18.9 -0.00024
18.95 -0.00038
19 -0.0003
19.05 -0.00006
19.1 0.00016
19.15 0.00045
19.2 0.00053
19.25 0.00071
19.3 0.00087
19.35 0.00109
19.4 0.00096
19.45 0.00092
19.5 0.0008
19.55 0.0006
19.6 0.00035
19.65 0.00002
19.7 -0.00033
19.75 -0.0007
19.8 -0.00099
19.85 -0.00098
19.9 -0.0007
19.95 -0.00049
20 -0.00024
20.05 0.00004
20.1 0.00019
20.15 0.00037
20.2 0.00054
20.25 0.00066
20.3 0.00063
20.35 0.00048
20.4 0.00051
20.45 0.00032
20.5 0.00017
20.55 -0.00009
20.6 -0.00015
20.65 -0.00022
20.7 -0.00004
20.75 0.00011
20.8 0.00009
20.85 -0.00013
20.9 -0.00025
20.95 -0.00008
21 -0.0001
21.05 -0.00019
21.1 -0.00032
21.15 -0.00033
21.2 -0.0003
21.25 -0.00026
21.3 -0.00039
21.35 -0.0006
21.4 -0.00057
21.45 -0.00068
21.5 -0.00077
21.55 -0.00092
21.6 -0.00108
21.65 -0.00101
21.7 -0.00069
21.75 -0.00027
21.8 0.00013
21.85 0.00021
21.9 0.00008
21.95 -0.00013
22 -0.00042
22.05 -0.00049
22.1 -0.00039
22.15 -0.00049
22.2 -0.00035
22.25 -0.0001
22.3 0.0002
22.35 0.00045
22.4 0.0004
22.45 0.00015
22.5 -0.00007
22.55 -0.00037
22.6 -0.00036
22.65 -0.00033
22.7 -0.00007
22.75 0.00009
22.8 0.00024
22.85 0.00011
22.9 0.00003
22.95 0.00009
23 0.00012
23.05 -0.00003
23.1 -0.00005
23.15 0.00006
23.2 0.00024
23.25 0.00021
23.3 -0.00002
23.35 -0.00027
23.4 -0.00038
23.45 -0.00046
23.5 -0.00049
23.55 -0.00058
23.6 -0.00048
23.65 -0.00042
23.7 -0.00027
23.75 -0.0002
23.8 -0.00018
23.85 -0.0003
23.9 -0.00054
23.95 -0.00073
24 -0.00095
24.05 -0.00103
24.1 -0.00084
24.15 -0.00061
24.2 -0.00055
24.25 -0.00065
24.3 -0.0008
24.35 -0.00097
24.4 -0.00113
24.45 -0.00118
24.5 -0.0009
24.55 -0.00082
24.6 -0.00088
24.65 -0.001
24.7 -0.00094
24.75 -0.00068
24.8 -0.00036
24.85 -0.0001
24.9 -0.00009
24.95 0.00014
25 0.00029
25.05 0.00044
25.1 0.00044
25.15 0.00051
25.2 0.00067
25.25 0.00088
25.3 0.00111
25.35 0.00138
25.4 0.00161
25.45 0.0018
25.5 0.00191
25.55 0.00202
25.6 0.00213
25.65 0.00224
25.7 0.00223
25.75 0.00204
25.8 0.00154
25.85 0.00121
25.9 0.00093
25.95 0.0005
26 0.00019
26.05 -0.00018
26.1 -0.0003
26.15 -0.00048
26.2 -0.00064
26.25 -0.00069
26.3 -0.0008
26.35 -0.00071
26.4 -0.00069
26.45 -0.00057
26.5 -0.00036
26.55 -0.00002
26.6 0.00007
26.65 0.00027
26.7 0.00027
26.75 0.00026
26.8 0.00026
26.85 0.00043
26.9 0.00041
26.95 0.00033
27 0.00032
27.05 0.00019
27.1 -0.00003
27.15 -0.00001
27.2 -0.00002
27.25 0.00004
27.3 -0.00006
27.35 -0.00005
27.4 0.0001
27.45 0.00028
27.5 0.00045
27.55 0.00055
27.6 0.00073
27.65 0.00094
27.7 0.001
27.75 0.00089
27.8 0.00087
27.85 0.0006
27.9 0.00026
27.95 0
28 -0.00027
28.05 -0.00062
28.1 -0.00062
28.15 -0.00077
28.2 -0.00089
28.25 -0.00071
28.3 -0.00047
28.35 -0.00032
28.4 -0.00004
28.45 0.00029
28.5 0.00035
28.55 0.00043
28.6 0.0005
28.65 0.0004
28.7 0.0004
28.75 0.00016
28.8 -0.00015
28.85 -0.00013
28.9 -0
28.95 -0.00011
29 -0.00022
29.05 -0.00048
29.1 -0.0007
29.15 -0.00088
29.2 -0.00106
29.25 -0.00126
29.3 -0.00132
29.35 -0.0012
29.4 -0.00095
29.45 -0.00068
29.5 -0.00026
29.55 -0.00017
29.6 0.00007
29.65 0.00033
29.7 0.00054
29.75 0.00081
29.8 0.00095
29.85 0.00112
29.9 0.00106
29.95 0.00081
30 0.00074
30.05 0.00053
30.1 0.00026
30.15 0.00028
30.2 0.0004
30.25 0.00054
30.3 0.00043
30.35 0.00034
30.4 0.00026
30.45 0.00018
30.5 0.00024
30.55 0.00021
30.6 0.00037
30.65 0.00065
30.7 0.00088
30.75 0.001
30.8 0.00095
30.85 0.00092
30.9 0.00059
30.95 0.0005
31 0.00016
31.05 -0.00016
31.1 -0.00035
31.15 -0.00058
31.2 -0.00067
31.25 -0.00084
31.3 -0.00072
31.35 -0.00068
31.4 -0.00047
31.45 -0.00035
31.5 -0.00045
31.55 -0.00041
31.6 -0.00026
31.65 0.00003
31.7 0.00031
31.75 0.00055
31.8 0.00064
31.85 0.00076
31.9 0.00056
31.95 0.00057
32 0.00063
32.05 0.00074
32.1 0.00056
32.15 0.00026
32.2 0.0001
32.25 -0.00022
32.3 -0.00045
32.35 -0.00045
32.4 -0.00054
32.45 -0.00055
32.5 -0.0006
32.55 -0.00077
32.6 -0.00064
32.65 -0.00059
32.7 -0.00073
32.75 -0.00069
32.8 -0.00045
32.85 -0.00013
32.9 0.00023
32.95 0.00039
33 0.00063
33.05 0.00087
33.1 0.00105
33.15 0.00088
33.2 0.00057
33.25 0.00021
33.3 -0.00011
33.35 -0.00012
33.4 -0.00008
33.45 -0.00006
33.5 0.00012
33.55 -0.00001
33.6 -0.00002
33.65 -0.00013
33.7 -0.00038
33.75 -0.0005
33.8 -0.00069
33.85 -0.00082
33.9 -0.00064
33.95 -0.00052
34 -0.00033
34.05 -0.00029
34.1 -0.00006
34.15 0.00013
34.2 0.00008
34.25 0.0001
34.3 0.00027
34.35 0.00035
34.4 0.00036
34.45 0.00053
34.5 0.00069
34.55 0.00092
34.6 0.00077
34.65 0.00046
34.7 0.0002
34.75 0.00014
34.8 0.00018
34.85 0.00017
34.9 0.00034
34.95 0.00053
35 0.00051
35.05 0.00049
35.1 0.00058
35.15 0.00065
35.2 0.00052
35.25 0.00045
35.3 0.00044
35.35 0.00055
35.4 0.00057
35.45 0.00057
35.5 0.00048
35.55 0.0003
35.6 -0.00001
35.65 -0.00019
35.7 -0.00025
35.75 -0.00009
35.8 -0.00004
35.85 0.00007
35.9 0.00007
35.95 0.00011
36 0.0002
36.05 0.00015
36.1 0.0001
36.15 0.0001
36.2 -0.00006
36.25 -0.00025
36.3 -0.00056
36.35 -0.00076
36.4 -0.00103
36.45 -0.00102
36.5 -0.00079
36.55 -0.00069
36.6 -0.00053
36.65 -0.00068
36.7 -0.00099
36.75 -0.00128
36.8 -0.00143
36.85 -0.00161
36.9 -0.00198
36.95 -0.00236
37 -0.00268
37.05 -0.00287
37.1 -0.00313
37.15 -0.00335
37.2 -0.00346
37.25 -0.0038
37.3 -0.00447
37.35 -0.0051
37.4 -0.00573
37.45 -0.00663
37.5 -0.00747
37.55 -0.00841
37.6 -0.00941
37.65 -0.01066
37.7 -0.01208
37.75 -0.01394
37.8 -0.01621
37.85 -0.01837
37.9 -0.0206
37.95 -0.023
38 -0.02559
38.05 -0.02826
38.1 -0.03132
38.15 -0.03438
38.2 -0.03779
38.25 -0.04116
38.3 -0.04476
38.35 -0.04853
38.4 -0.05235
38.45 -0.05615
38.5 -0.05976
38.55 -0.06334
38.6 -0.06699
38.65 -0.07076
38.7 -0.07455
38.75 -0.07791
38.8 -0.08101
38.85 -0.08382
38.9 -0.08628
38.95 -0.0884
39 -0.0903
39.05 -0.09204
39.1 -0.09345
39.15 -0.09456
39.2 -0.09532
39.25 -0.09567
39.3 -0.09578
39.35 -0.0957
39.4 -0.0951
39.45 -0.09397
39.5 -0.09273
39.55 -0.09108
39.6 -0.08899
39.65 -0.08678
39.7 -0.08457
39.75 -0.08203
39.8 -0.07944
39.85 -0.07677
39.9 -0.07379
39.95 -0.07064
40 -0.06747
40.05 -0.06428
40.1 -0.06058
40.15 -0.05658
40.2 -0.05229
40.25 -0.04773
40.3 -0.04322
40.35 -0.03831
40.4 -0.03303
40.45 -0.02769
40.5 -0.02202
40.55 -0.01583
40.6 -0.00958
40.65 -0.003
40.7 0.00378
40.75 0.01085
40.8 0.0184
40.85 0.02588
40.9 0.0335
40.95 0.04137
41 0.0491
41.05 0.05686
41.1 0.06454
41.15 0.07197
41.2 0.0794
41.25 0.0866
41.3 0.09337
41.35 0.09969
41.4 0.1057
41.45 0.11109
41.5 0.11597
41.55 0.12024
41.6 0.12419
41.65 0.12745
41.7 0.13012
41.75 0.13213
41.8 0.13379
41.85 0.135
41.9 0.13588
41.95 0.1362
42 0.13618
42.05 0.13543
42.1 0.13412
42.15 0.13263
42.2 0.13079
42.25 0.12841
42.3 0.12579
42.35 0.1228
42.4 0.11951
42.45 0.11613
42.5 0.11246
42.55 0.10884
42.6 0.10504
42.65 0.10123
42.7 0.09735
42.75 0.0935
42.8 0.08989
42.85 0.08617
42.9 0.08228
42.95 0.07838
43 0.07452
43.05 0.07069
43.1 0.06725
43.15 0.06372
43.2 0.06025
43.25 0.05701
43.3 0.05367
43.35 0.0506
43.4 0.04772
43.45 0.0446
43.5 0.04137
43.55 0.03849
43.6 0.03576
43.65 0.03289
43.7 0.02998
43.75 0.02726
43.8 0.02486
43.85 0.02236
43.9 0.02006
43.95 0.0177
44 0.01547
44.05 0.01343
44.1 0.0115
44.15 0.0099
44.2 0.00849
44.25 0.00719
44.3 0.00566
44.35 0.0043
44.4 0.00289
44.45 0.00135
44.5 -0.00019
44.55 -0.00155
44.6 -0.0027
44.65 -0.004
44.7 -0.00546
44.75 -0.00678
44.8 -0.00813
44.85 -0.00918
44.9 -0.00993
44.95 -0.01044
45 -0.01119
45.05 -0.01176
45.1 -0.01224
45.15 -0.01298
45.2 -0.01357
45.25 -0.01426
45.3 -0.0148
45.35 -0.01542
45.4 -0.01576
45.45 -0.01624
45.5 -0.01648
45.55 -0.01663
45.6 -0.01694
45.65 -0.01703
45.7 -0.01708
45.75 -0.01713
45.8 -0.01736
45.85 -0.01736
45.9 -0.01746
45.95 -0.01737
46 -0.01735
46.05 -0.01762
46.1 -0.01781
46.15 -0.01804
46.2 -0.01824
46.25 -0.01853
46.3 -0.01887
46.35 -0.01883
46.4 -0.01856
46.45 -0.01845
46.5 -0.0184
46.55 -0.01816
46.6 -0.01795
46.65 -0.01777
46.7 -0.01776
46.75 -0.01772
46.8 -0.01773
46.85 -0.01768
46.9 -0.01736
46.95 -0.01714
47 -0.01705
47.05 -0.01706
47.1 -0.01702
47.15 -0.01691
47.2 -0.01649
47.25 -0.01586
47.3 -0.01537
47.35 -0.01504
47.4 -0.01481
47.45 -0.01437
47.5 -0.01392
47.55 -0.0134
47.6 -0.01294
47.65 -0.01282
47.7 -0.01262
47.75 -0.01248
47.8 -0.01254
47.85 -0.0126
47.9 -0.01238
47.95 -0.012
48 -0.01165
48.05 -0.0114
48.1 -0.01141
48.15 -0.01132
48.2 -0.01143
48.25 -0.01159
48.3 -0.01147
48.35 -0.01134
48.4 -0.0111
48.45 -0.01077
48.5 -0.0106
48.55 -0.01056
48.6 -0.01031
48.65 -0.01
48.7 -0.00991
48.75 -0.0098
48.8 -0.00962
48.85 -0.00937
48.9 -0.00927
48.95 -0.00919
49 -0.00921
49.05 -0.00909
49.1 -0.00905
49.15 -0.00889
49.2 -0.00874
49.25 -0.00864
49.3 -0.00851
49.35 -0.00825
49.4 -0.00811
49.45 -0.00782
49.5 -0.00767
49.55 -0.00749
49.6 -0.00735
49.65 -0.00714
49.7 -0.00685
49.75 -0.00649
49.8 -0.00605
49.85 -0.00572
49.9 -0.00575
49.95 -0.00578
50 -0.00605
50.05 -0.0064
50.1 -0.00652
50.15 -0.00664
50.2 -0.00651
50.25 -0.00634
50.3 -0.00613
50.35 -0.00594
50.4 -0.00563
50.45 -0.00545
50.5 -0.00547
50.55 -0.00544
50.6 -0.00536
50.65 -0.00541
50.7 -0.00539
50.75 -0.00549
50.8 -0.00572
50.85 -0.00577
50.9 -0.0055
50.95 -0.00517
51 -0.00492
51.05 -0.00468
51.1 -0.00465
51.15 -0.00478
51.2 -0.00481
51.25 -0.00488
51.3 -0.00466
51.35 -0.0045
51.4 -0.00446
51.45 -0.00432
51.5 -0.00423
51.55 -0.004
51.6 -0.00378
51.65 -0.00344
51.7 -0.00325
51.75 -0.00309
51.8 -0.00317
51.85 -0.0032
51.9 -0.00324
51.95 -0.00337
52 -0.00334
52.05 -0.00349
52.1 -0.00347
52.15 -0.00366
52.2 -0.00353
52.25 -0.00326
52.3 -0.00327
52.35 -0.0031
52.4 -0.003
52.45 -0.00312
52.5 -0.00304
52.55 -0.00313
52.6 -0.00314
52.65 -0.00328
52.7 -0.00342
52.75 -0.00346
52.8 -0.00333
52.85 -0.00333
52.9 -0.00334
52.95 -0.00348
53 -0.00345
53.05 -0.00335
53.1 -0.00327
53.15 -0.00315
53.2 -0.00304
53.25 -0.00295
53.3 -0.00292
53.35 -0.00279
53.4 -0.00248
53.45 -0.0023
53.5 -0.00207
53.55 -0.00187
53.6 -0.00175
53.65 -0.0019
53.7 -0.00203
53.75 -0.0022
53.8 -0.00219
53.85 -0.00196
53.9 -0.00175
53.95 -0.00167
54 -0.00175
54.05 -0.00202
54.1 -0.00207
54.15 -0.0022
54.2 -0.0021
54.25 -0.00185
54.3 -0.00154
54.35 -0.00119
54.4 -0.001
54.45 -0.00091
54.5 -0.0011
54.55 -0.00109
54.6 -0.0013
54.65 -0.00165
54.7 -0.0019
54.75 -0.00222
54.8 -0.00227
54.85 -0.00224
54.9 -0.00223
54.95 -0.00219
55 -0.002
55.05 -0.00173
55.1 -0.00169
55.15 -0.00143
55.2 -0.00123
55.25 -0.00105
55.3 -0.00078
55.35 -0.00065
55.4 -0.00052
55.45 -0.00062
55.5 -0.00051
55.55 -0.00069
55.6 -0.00077
55.65 -0.00102
55.7 -0.00108
55.75 -0.00118
55.8 -0.00143
55.85 -0.00163
55.9 -0.00191
55.95 -0.00217
56 -0.00209
56.05 -0.00198
56.1 -0.00198
56.15 -0.00184
56.2 -0.0015
56.25 -0.00124
56.3 -0.00123
56.35 -0.00132
56.4 -0.00128
56.45 -0.00128
56.5 -0.00142
56.55 -0.00154
56.6 -0.00148
56.65 -0.00142
56.7 -0.00151
56.75 -0.00166
56.8 -0.00177
56.85 -0.0016
56.9 -0.00137
56.95 -0.00133
57 -0.00101
57.05 -0.00069
57.1 -0.00059
57.15 -0.00044
57.2 -0.00056
57.25 -0.00055
57.3 -0.00046
57.35 -0.00052
57.4 -0.00052
57.45 -0.00034
57.5 -0.00032
57.55 -0.00042
57.6 -0.00061
57.65 -0.00064
57.7 -0.00044
57.75 -0.0005
57.8 -0.00037
57.85 -0.0002
57.9 -0.00026
57.95 -0.0005
58 -0.00062
58.05 -0.00084
58.1 -0.00098
58.15 -0.00099
58.2 -0.00078
58.25 -0.00072
58.3 -0.00084
58.35 -0.00081
58.4 -0.00061
58.45 -0.00053
58.5 -0.00052
58.55 -0.00068
58.6 -0.00093
58.65 -0.00121
58.7 -0.00151
58.75 -0.00167
58.8 -0.00156
58.85 -0.00122
58.9 -0.00089
58.95 -0.00063
59 -0.00045
59.05 -0.0001
59.1 0.00014
59.15 0.00043
59.2 0.00057
59.25 0.00077
59.3 0.00074
59.35 0.00071
59.4 0.00077
59.45 0.00073
59.5 0.00062
59.55 0.00057
59.6 0.00033
59.65 0.00007
59.7 0.00005
59.75 0.00022
59.8 0.00024
59.85 0.00017
59.9 0.00019
59.95 0.00022
60 0.00011
60.05 0.00001
60.1 0.00006
60.15 0.00027
60.2 0.00047
60.25 0.00044
60.3 0.00048
60.35 0.00047
60.4 0.00035
60.45 0.00007
60.5 -0.00005
60.55 -0.00015
60.6 -0.00034
60.65 -0.00058
60.7 -0.00072
60.75 -0.00077
60.8 -0.00084
60.85 -0.00074
60.9 -0.00054
60.95 -0.00054
61 -0.00062
61.05 -0.00066
61.1 -0.00061
61.15 -0.00032
61.2 -0.00029
61.25 -0.00023
61.3 0.00005
61.35 0.00026
61.4 0.00029
61.45 0.0004
61.5 0.00048
61.55 0.00068
61.6 0.00091
61.65 0.00118
61.7 0.00114
61.75 0.00099
61.8 0.00098
61.85 0.0008
61.9 0.00079
61.95 0.00083
62 0.00059
62.05 0.00019
62.1 -0.00005
62.15 -0.00039
62.2 -0.00053
62.25 -0.00058
62.3 -0.00059
62.35 -0.00049
62.4 -0.00056
62.45 -0.00057
62.5 -0.00053
62.55 -0.00064
62.6 -0.00083
62.65 -0.00075
62.7 -0.0005
62.75 -0.00024
62.8 -0.00005
62.85 0.00001
62.9 -0.00009
62.95 -0.00005
63 -0.00002
63.05 0.00018
63.1 0.00011
63.15 0.00014
63.2 0.00026
63.25 0.00012
63.3 0.00018
63.35 0.00007
63.4 -0.00011
63.45 -0.00031
63.5 -0.00024
63.55 -0.00037
63.6 -0.00027
63.65 -0.00032
63.7 -0.00028
63.75 -0.00043
63.8 -0.00042
63.85 -0.00038
63.9 -0.00012
63.95 -0.00004
64 0.00011
64.05 0.00037
64.1 0.0003
64.15 0.00004
64.2 0
64.25 0.00014
64.3 0.00038
64.35 0.00048
64.4 0.00057
64.45 0.00038
64.5 0.00035
64.55 0.00044
64.6 0.0003
64.65 0.00033
64.7 0.00041
64.75 0.00035
64.8 0.00042
64.85 0.00029
64.9 0.00022
64.95 0.00027
65 0.00021
65.05 0.00033
65.1 0.00057
65.15 0.00081
65.2 0.00106
65.25 0.00109
65.3 0.00088
65.35 0.00071
65.4 0.00034
65.45 -0.00013
65.5 -0.00059
65.55 -0.00083
65.6 -0.001
65.65 -0.00118
65.7 -0.0014
65.75 -0.00159
65.8 -0.00167
65.85 -0.00172
65.9 -0.00177
65.95 -0.00152
66 -0.00129
66.05 -0.00093
66.1 -0.00083
66.15 -0.00078
66.2 -0.00067
66.25 -0.00051
66.3 -0.00053
66.35 -0.00063
66.4 -0.00058
66.45 -0.0005
66.5 -0.00056
66.55 -0.00039
66.6 -0.00012
66.65 0.00018
66.7 0.00031
66.75 0.00022
66.8 0.00001
66.85 -0.00018
66.9 -0.00041
66.95 -0.00033
67 -0.00017
67.05 -0.00011
67.1 0.0001
67.15 0.00034
67.2 0.00048
67.25 0.00044
67.3 0.00029
67.35 0.0004
67.4 0.00038
67.45 0.00029
67.5 0.00028
67.55 0.00029
67.6 0.00027
67.65 0.00004
67.7 0.00006
67.75 -0.00012
67.8 -0.00025
67.85 -0.00033
67.9 -0.00047
67.95 -0.00034
68 -0.00001
68.05 0.00026
68.1 0.00043
68.15 0.00065
68.2 0.00077
68.25 0.00082
68.3 0.00099
68.35 0.00084
68.4 0.00082
68.45 0.00061
68.5 0.00043
68.55 0.0001
68.6 -0.0002
68.65 -0.00021
68.7 -0.00031
68.75 -0.00031
68.8 -0.00041
68.85 -0.00044
68.9 -0.00034
68.95 -0.00007
69 0.00009
69.05 0.00004
69.1 -0.00013
69.15 -0.00002
69.2 0.00023
69.25 0.00052
69.3 0.00066
69.35 0.00065
69.4 0.00065
69.45 0.00078
69.5 0.00088
69.55 0.00081
69.6 0.00066
69.65 0.00038
69.7 0.0001
69.75 -0.00008
69.8 -0.0003
69.85 -0.0003
69.9 -0.00015
69.95 -0.00003
70 -0.00003
70.05 -0
70.1 0.0002
70.15 0.00048
70.2 0.0004
70.25 0.00047
70.3 0.00065
70.35 0.00076
70.4 0.00092
70.45 0.00085
70.5 0.00054
70.55 0.00019
70.6 -0.00015
70.65 -0.00037
70.7 -0.00045
70.75 -0.00067
70.8 -0.0009
70.85 -0.00089
70.9 -0.00082
70.95 -0.00082
71 -0.00079
71.05 -0.00058
71.1 -0.00038
71.15 -0.00013
71.2 -0.00008
71.25 -0.00024
71.3 -0.00017
71.35 -0.00025
71.4 -0.0002
71.45 -0.00019
71.5 -0.00032
71.55 -0.00026
71.6 -0.00013
71.65 0.00012
71.7 0.00023
71.75 0.00029
71.8 0.00017
71.85 -0.00011
71.9 -0.00008
71.95 -0.00022
72 -0.00012
72.05 -0.00012
72.1 -0.00016
72.15 -0.00038
72.2 -0.00052
72.25 -0.00037
72.3 -0.00031
72.35 -0.00039
72.4 -0.00047
72.45 -0.00039
72.5 -0.00051
72.55 -0.00049
72.6 -0.00032
72.65 -0.00036
72.7 -0.00056
72.75 -0.00044
72.8 -0.00045
72.85 -0.00064
72.9 -0.00065
72.95 -0.00045
73 -0.00037
73.05 -0.00043
73.1 -0.00033
73.15 -0.00044
73.2 -0.00049
73.25 -0.00036
73.3 -0.00042
73.35 -0.00029
73.4 -0.00028
73.45 -0.00026
73.5 -0.00009
73.55 0.00012
73.6 0.00028
73.65 0.00047
73.7 0.00052
73.75 0.00064
73.8 0.00048
73.85 0.00039
73.9 0.0003
73.95 0.00029
74 0.00005
74.05 -0
74.1 -0.00014
74.15 -0.00029
74.2 -0.00049
74.25 -0.00077
74.3 -0.00076
74.35 -0.00087
74.4 -0.00087
74.45 -0.00075
74.5 -0.00063
74.55 -0.00048
74.6 -0.00027
74.65 -0
74.7 -0.00002
74.75 0.00002
74.8 0.00023
74.85 0.00052
74.9 0.00062
74.95 0.0005
75 0.00037
75.05 0.00023
75.1 0.00021
75.15 0.00036
75.2 0.00058
75.25 0.00073
75.3 0.0008
75.35 0.00084
75.4 0.00074
75.45 0.00078
75.5 0.00079
75.55 0.00092
75.6 0.0009
75.65 0.00088
75.7 0.00065
75.75 0.00058
75.8 0.00054
75.85 0.00043
75.9 0.0002
75.95 -0.00002
76 -0.00007
76.05 -0.0001
76.1 -0.00023
76.15 -0.00035
76.2 -0.00052
76.25 -0.0007
76.3 -0.00081
76.35 -0.00075
76.4 -0.00058
76.45 -0.00033
76.5 -0.00017
76.55 0.00002
76.6 0.00032
76.65 0.00036
76.7 0.00056
76.75 0.00062
76.8 0.00065
76.85 0.0004
76.9 0.00019
76.95 0.00019
77 0.00021
77.05 0.00033
77.1 0.00023
77.15 0.00031
77.2 0.00029
77.25 0.00003
77.3 -0.00006
77.35 -0.00016
77.4 -0.00007
77.45 0.00015
77.5 0.0002
77.55 0.00015
77.6 -0.00006
77.65 -0.00004
77.7 -0.00003
77.75 -0.00004
77.8 -0.0001
77.85 -0.00017
77.9 -0.00025
77.95 -0.00045
78 -0.00034
78.05 -0.00042
78.1 -0.0004
78.15 -0.0004
78.2 -0.00058
78.25 -0.00056
78.3 -0.00067
78.35 -0.00082
78.4 -0.00096
78.45 -0.00081
78.5 -0.00054
78.55 -0.00035
78.6 -0.00043
78.65 -0.00051
78.7 -0.00061
78.75 -0.0007
78.8 -0.00062
78.85 -0.00032
78.9 -0.00005
78.95 0.00031
79 0.0005
79.05 0.00035
79.1 0.00021
79.15 -0.00011
79.2 -0.0002
79.25 -0.00006
79.3 0.00014
79.35 0.00005
79.4 0.00007
79.45 0.00001
79.5 0.00006
79.55 0.00025
79.6 0.00056
79.65 0.00071
79.7 0.0007
79.75 0.0008
79.8 0.00098
79.85 0.00122
79.9 0.00127
79.95 0.00131
80 0.00115
80.05 0.0008
80.1 0.00051
80.15 0.00039
80.2 0.0003
80.25 0.00011
80.3 -0.00009
80.35 -0.00016
80.4 -0.00029
80.45 -0.0005
80.5 -0.00064
80.55 -0.00087
80.6 -0.00113
80.65 -0.0014
80.7 -0.00157
80.75 -0.00153
80.8 -0.00142
80.85 -0.00104
80.9 -0.00078
80.95 -0.00075
81 -0.00075
81.05 -0.00051
81.1 -0.00049
81.15 -0.00023
81.2 0
81.25 0.0003
81.3 0.00049
81.35 0.00042
81.4 0.00031
81.45 0.00031
81.5 0.00009
81.55 -0.00025
81.6 -0.00039
81.65 -0.0003
81.7 -0.0002
81.75 -0.00032
81.8 -0.0005
81.85 -0.00073
81.9 -0.00094
81.95 -0.00115
82 -0.00106
82.05 -0.00089
82.1 -0.00057
82.15 -0.00024
82.2 0.00021
82.25 0.00049
82.3 0.00067
82.35 0.00059
82.4 0.00059
82.45 0.00057
82.5 0.00059
82.55 0.00075
82.6 0.001
82.65 0.00104
82.7 0.0009
82.75 0.00076
82.8 0.00055
82.85 0.0003
82.9 0.00017
82.95 0.00001
83 -0.00028
83.05 -0.00042
83.1 -0.00063
83.15 -0.00065
83.2 -0.00076
83.25 -0.00088
83.3 -0.00066
83.35 -0.00048
83.4 -0.00052
83.45 -0.0006
83.5 -0.00059
83.55 -0.00075
83.6 -0.00073
83.65 -0.00071
83.7 -0.00046
83.75 -0.00027
83.8 -0.0001
83.85 -0.00007
83.9 0.00004
83.95 -0.00004
84 0.00001
84.05 0.00026
84.1 0.00029
84.15 0.00038
84.2 0.00049
84.25 0.00053
84.3 0.00033
84.35 0.00025
84.4 0.00018
84.45 -0.00009
84.5 -0.00035
84.55 -0.00035
84.6 -0.0004
84.65 -0.00031
84.7 -0.00034
84.75 -0.00037
84.8 -0.00016
84.85 -0.00006
84.9 0
84.95 -0.00015
85 -0.00035
85.05 -0.00049
85.1 -0.0006
85.15 -0.00078
85.2 -0.00098
85.25 -0.00096
85.3 -0.001
85.35 -0.00108
85.4 -0.00113
85.45 -0.00092
85.5 -0.00074
85.55 -0.00065
85.6 -0.00031
85.65 0.00007
85.7 0.00033
85.75 0.00065
85.8 0.00076
85.85 0.00098
85.9 0.00094
85.95 0.00077
86 0.00058
86.05 0.00063
86.1 0.00054
86.15 0.00053
86.2 0.00041
86.25 0.00042
86.3 0.00018
86.35 0.00007
86.4 0.00005
86.45 -0.00015
86.5 -0.00039
86.55 -0.00065
86.6 -0.00068
86.65 -0.00069
86.7 -0.00044
86.75 -0.0002
86.8 0.00002
86.85 0.00028
86.9 0.00038
86.95 0.00038
87 0.0002
87.05 0.00018
87.1 -0.00004
87.15 -0.00021
87.2 -0.00046
87.25 -0.00044
87.3 -0.00041
87.35 -0.00038
87.4 -0.00052
87.45 -0.00062
87.5 -0.00074
87.55 -0.0009
87.6 -0.00097
87.65 -0.00101
87.7 -0.00076
87.75 -0.00048
87.8 -0.00016
87.85 0.00029
87.9 0.00054
87.95 0.00049
88 0.00035
88.05 0.00037
88.1 0.00021
88.15 -0.00007
88.2 -0.00033
88.25 -0.00066
88.3 -0.00064
88.35 -0.00076
88.4 -0.00088
88.45 -0.00093
88.5 -0.00069
88.55 -0.00052
88.6 -0.00021
88.65 0.00005
88.7 0.00008
88.75 -0
88.8 -0.00017
88.85 -0.0003
88.9 -0.00027
88.95 -0.00033
89 -0.00022
89.05 -0.00014
89.1 0.00009
89.15 0.00034
89.2 0.00048
89.25 0.00065
89.3 0.00084
89.35 0.00076
89.4 0.00063
89.45 0.00061
89.5 0.00062
89.55 0.00072
89.6 0.00053
89.65 0.00017
89.7 -0.00019
89.75 -0.00054
89.8 -0.00083
89.85 -0.00094
89.9 -0.00096
89.95 -0.00081
90 -0.00078
90.05 -0.00073
90.1 -0.00042
90.15 -0.00016
90.2 0.00007
90.25 0.00033
90.3 0.00065
90.35 0.00081
90.4 0.00097
90.45 0.00105
90.5 0.00119
90.55 0.00102
90.6 0.00084
90.65 0.00089
90.7 0.00071
90.75 0.00065
90.8 0.00064
90.85 0.00053
90.9 0.00059
90.95 0.00065
91 0.00062
91.05 0.00071
91.1 0.00059
91.15 0.0004
91.2 0.00006
91.25 -0.00005
91.3 -0.00001
91.35 -0.00006
91.4 -0.00001
91.45 0.00005
91.5 -0.00013
91.55 -0.00006
91.6 0.00016
91.65 0.00027
91.7 0.00043
91.75 0.00039
91.8 0.00016
91.85 0.00016
91.9 0.00032
91.95 0.00029
92 0.00038
92.05 0.00029
92.1 0.00011
92.15 -0.00016
92.2 -0.00022
92.25 -0.00004
92.3 0.00023
92.35 0.00021
92.4 0.0001
92.45 0.00013
92.5 0.00009
92.55 -0.00007
92.6 -0.00037
92.65 -0.00037
92.7 -0.00018
92.75 -0.00021
92.8 -0.00008
92.85 -0.00002
92.9 0.00022
92.95 0.00021
93 0.00032
93.05 0.0003
93.1 0.00019
93.15 -0.00005
93.2 -0.00019
93.25 -0.00021
93.3 -0.00036
93.35 -0.00042
93.4 -0.00032
93.45 -0.0003
93.5 -0.00016
93.55 -0.00002
93.6 -0.00005
93.65 -0.00006
93.7 -0.00011
93.75 -0.0002
93.8 -0.00027
93.85 -0.00016
93.9 -0.00009
93.95 -0.00012
94 0
94.05 0.00023
94.1 0.00045
94.15 0.00036
94.2 0.00039
94.25 0.00056
94.3 0.00082
94.35 0.00092
94.4 0.00092
94.45 0.00098
94.5 0.00084
94.55 0.00047
94.6 0.00025
94.65 0.00011
94.7 -0.00018
94.75 -0.00016
94.8 0.00005
94.85 0.00037
94.9 0.00038
94.95 0.00047
95 0.00067
95.05 0.00053
95.1 0.00059
95.15 0.00047
95.2 0.00032
95.25 0.00007
95.3 -0.00025
95.35 -0.00023
95.4 -0.0003
95.45 -0.00011
95.5 -0.00009
95.55 -0.00024
95.6 -0.00037
95.65 -0.00025
95.7 -0.00004
95.75 -0.00002
95.8 -0.00007
95.85 -0.00017
95.9 -0.00014
95.95 -0.00017
96 -0.00002
96.05 0.00007
96.1 -0.0001
96.15 -0.00025
96.2 -0.00027
96.25 -0.00039
96.3 -0.00041
96.35 -0.00059
96.4 -0.00071
96.45 -0.00051
96.5 -0.00051
96.55 -0.00059
96.6 -0.00038
96.65 -0.00031
96.7 -0.00046
96.75 -0.00067
96.8 -0.00096
96.85 -0.00111
96.9 -0.00117
96.95 -0.00092
97 -0.00065
97.05 -0.00023
97.1 -0.00006
97.15 0.00007
97.2 0.00017
97.25 0.00036
97.3 0.00062
97.35 0.00064
97.4 0.00054
97.45 0.00025
97.5 0.00005
97.55 0.00001
97.6 -0.00019
97.65 -0.00045
97.7 -0.00062
97.75 -0.00073
97.8 -0.00081
97.85 -0.00077
97.9 -0.00082
97.95 -0.00093
98 -0.00099
98.05 -0.00082
98.1 -0.00043
98.15 -0.00027
98.2 0.00005
98.25 0.00012
98.3 -0.00002
98.35 -0.00028
98.4 -0.00054
98.45 -0.00058
98.5 -0.00039
98.55 -0.00003
98.6 0.00006
98.65 -0.00006
98.7 -0.00029
98.75 -0.00028
98.8 -0.00037
98.85 -0.0004
98.9 -0.00042
98.95 -0.00054
99 -0.00059
99.05 -0.00043
99.1 -0.00036
99.15 -0.00025
99.2 -0.00034
99.25 -0.00024
99.3 -0.00012
99.35 0.00011
99.4 0.00009
99.45 0.00006
99.5 -0.00005
99.55 -0.00012
99.6 -0.00016
99.65 -0.00005
99.7 0.00004
99.75 0.00027
99.8 0.00052
99.85 0.00051
99.9 0.00032
99.95 0.00037
