0 0
0.05 0.00244
0.1 0.01173
0.15 0.01872
0.2 0.02767
0.25 0.03599
0.3 0.0467
0.35 0.05389
0.4 0.05369
0.45 0.05571
0.5 0.05318
0.55 0.05417
0.6 0.05037
0.65 0.04721
0.7 0.04988
0.75 0.05118
0.8 0.05494
0.85 0.05229
0.9 0.05451
0.95 0.05546
1 0.05303
1.05 0.04789
1.1 0.04007
1.15 0.0377
1.2 0.03856
1.25 0.03762
1.3 0.03863
1.35 0.03579
1.4 0.03417
1.45 0.03617
1.5 0.03587
1.55 0.03779
1.6 0.04032
1.65 0.04458
1.7 0.04433
1.75 0.03981
1.8 0.0412
1.85 0.03686
1.9 0.03696
1.95 0.03571
2 0.03181
2.05 0.03344
2.1 0.03638
2.15 0.03408
2.2 0.02961
2.25 0.02243
2.3 0.0182
2.35 0.01944
2.4 0.01831
2.45 0.01796
2.5 0.02269
2.55 0.03005
2.6 0.03904
2.65 0.04434
2.7 0.05081
2.75 0.04828
2.8 0.0492
2.85 0.05039
2.9 0.04609
2.95 0.04365
3 0.03841
3.05 0.03597
3.1 0.03656
3.15 0.03611
3.2 0.03516
3.25 0.03484
3.3 0.03476
3.35 0.03113
3.4 0.03042
3.45 0.02808
3.5 0.02459
3.55 0.02476
3.6 0.02317
3.65 0.02218
3.7 0.01657
3.75 0.00899
3.8 0.00443
3.85 0.00698
3.9 0.00524
3.95 0.00359
4 0.00694
4.05 0.01154
4.1 0.01315
4.15 0.01684
4.2 0.02005
4.25 0.01659
4.3 0.0115
4.35 0.00361
4.4 -0.00652
4.45 -0.01248
4.5 -0.01937
4.55 -0.03069
4.6 -0.04281
4.65 -0.06021
4.7 -0.07985
4.75 -0.09603
4.8 -0.11682
4.85 -0.14235
4.9 -0.16669
4.95 -0.19939
5 -0.23257
5.05 -0.27483
5.1 -0.31888
5.15 -0.36541
5.2 -0.42107
5.25 -0.47895
5.3 -0.54221
5.35 -0.61014
5.4 -0.67733
5.45 -0.74538
5.5 -0.8183
5.55 -0.89726
5.6 -0.97445
5.65 -1.05277
5.7 -1.12521
5.75 -1.19699
5.8 -1.2655
5.85 -1.32726
5.9 -1.38133
5.95 -1.42328
6 -1.45377
6.05 -1.48009
6.1 -1.49965
6.15 -1.51612
6.2 -1.5245
6.25 -1.52997
6.3 -1.52417
6.35 -1.51181
6.4 -1.49335
6.45 -1.46728
6.5 -1.44125
6.55 -1.40547
6.6 -1.36195
6.65 -1.31296
6.7 -1.26239
6.75 -1.20331
6.8 -1.13414
6.85 -1.06004
6.9 -0.98057
6.95 -0.89325
7 -0.79751
7.05 -0.6934
7.1 -0.57848
7.15 -0.45837
7.2 -0.33977
7.25 -0.22029
7.3 -0.09564
7.35 0.02588
7.4 0.14481
7.45 0.26696
7.5 0.38271
7.55 0.49242
7.6 0.59994
7.65 0.70127
7.7 0.79743
7.75 0.88384
7.8 0.96027
7.85 1.03244
7.9 1.09458
7.95 1.15291
8 1.20451
8.05 1.25103
8.1 1.29079
8.15 1.32532
8.2 1.34745
8.25 1.35941
8.3 1.36467
8.35 1.37084
8.4 1.37257
8.45 1.37156
8.5 1.36881
8.55 1.35714
8.6 1.34135
8.65 1.32922
8.7 1.31487
8.75 1.29914
8.8 1.28538
8.85 1.26893
8.9 1.25067
8.95 1.23434
9 1.21441
9.05 1.19308
9.1 1.17489
9.15 1.15268
9.2 1.13102
9.25 1.11004
9.3 1.08772
9.35 1.069
9.4 1.0508
9.45 1.03574
9.5 1.01448
9.55 0.99677
9.6 0.97777
9.65 0.95797
9.7 0.93428
9.75 0.91014
9.8 0.88661
9.85 0.86582
9.9 0.84556
9.95 0.82075
10 0.79419
10.05 0.77045
10.1 0.74841
10.15 0.72662
10.2 0.70521
10.25 0.68766
10.3 0.66947
10.35 0.64825
10.4 0.62334
10.45 0.59814
10.5 0.57788
10.55 0.55575
10.6 0.52849
10.65 0.49991
10.7 0.47787
10.75 0.45923
10.8 0.43777
10.85 0.41927
10.9 0.40233
10.95 0.38105
11 0.35746
11.05 0.32879
11.1 0.29848
11.15 0.27448
11.2 0.25237
11.25 0.22778
11.3 0.20301
11.35 0.17627
11.4 0.14764
11.45 0.12482
11.5 0.107
11.55 0.08924
11.6 0.07511
11.65 0.06034
11.7 0.04226
11.75 0.01965
11.8 -0.00507
11.85 -0.02794
11.9 -0.04673
11.95 -0.06047
12 -0.07276
12.05 -0.08742
12.1 -0.10332
12.15 -0.11894
12.2 -0.12997
12.25 -0.1405
12.3 -0.1454
12.35 -0.15061
12.4 -0.15865
12.45 -0.17116
12.5 -0.18229
12.55 -0.19091
12.6 -0.20218
12.65 -0.21224
12.7 -0.22262
12.75 -0.22631
12.8 -0.23046
12.85 -0.22914
12.9 -0.22584
12.95 -0.22302
13 -0.21711
13.05 -0.2143
13.1 -0.21039
13.15 -0.21075
13.2 -0.21178
13.25 -0.21545
13.3 -0.21389
13.35 -0.21435
13.4 -0.21915
13.45 -0.21988
13.5 -0.21667
13.55 -0.21084
13.6 -0.21055
13.65 -0.20697
13.7 -0.20068
13.75 -0.19691
13.8 -0.19987
13.85 -0.20299
13.9 -0.20262
13.95 -0.20384
14 -0.204
14.05 -0.20431
14.1 -0.20589
14.15 -0.20266
14.2 -0.19796
14.25 -0.1985
14.3 -0.19486
14.35 -0.19533
14.4 -0.19607
14.45 -0.19127
14.5 -0.18684
14.55 -0.18348
14.6 -0.1841
14.65 -0.18604
14.7 -0.18809
14.75 -0.19131
14.8 -0.19428
14.85 -0.1932
14.9 -0.18546
14.95 -0.18204
15 -0.17582
15.05 -0.16905
15.1 -0.15905
15.15 -0.14999
15.2 -0.14414
15.25 -0.14285
15.3 -0.13855
15.35 -0.13373
15.4 -0.12691
15.45 -0.12386
15.5 -0.11782
15.55 -0.11679
15.6 -0.1143
15.65 -0.11593
15.7 -0.11388
15.75 -0.11716
15.8 -0.11817
15.85 -0.11907
15.9 -0.11467
15.95 -0.11607
16 -0.1148
16.05 -0.11399
16.1 -0.1175
16.15 -0.11707
16.2 -0.11821
16.25 -0.11597
16.3 -0.1115
16.35 -0.1065
16.4 -0.10351
16.45 -0.10514
16.5 -0.10689
16.55 -0.10576
16.6 -0.10834
16.65 -0.11092
16.7 -0.10688
16.75 -0.09815
16.8 -0.09181
16.85 -0.08517
16.9 -0.08056
16.95 -0.07363
17 -0.07208
17.05 -0.07576
17.1 -0.08054
17.15 -0.08231
17.2 -0.07991
17.25 -0.07656
17.3 -0.07282
17.35 -0.07261
17.4 -0.07571
17.45 -0.07684
17.5 -0.0776
17.55 -0.07313
17.6 -0.06602
17.65 -0.06296
17.7 -0.06471
17.75 -0.06391
17.8 -0.05895
17.85 -0.05995
17.9 -0.06306
17.95 -0.06394
18 -0.05954
18.05 -0.06122
18.1 -0.06329
18.15 -0.06647
18.2 -0.06329
18.25 -0.06454
18.3 -0.06048
18.35 -0.05995
18.4 -0.05754
18.45 -0.05289
18.5 -0.0507
18.55 -0.04901
18.6 -0.04464
18.65 -0.04668
18.7 -0.05136
18.75 -0.05517
18.8 -0.06096
18.85 -0.06404
18.9 -0.06426
18.95 -0.06431
19 -0.06662
19.05 -0.0613
19.1 -0.05298
19.15 -0.04553
19.2 -0.03868
19.25 -0.03773
19.3 -0.03629
19.35 -0.03818
19.4 -0.03541
19.45 -0.02952
19.5 -0.02297
19.55 -0.01825
19.6 -0.01811
19.65 -0.01938
19.7 -0.01879
19.75 -0.02037
19.8 -0.02344
19.85 -0.02975
19.9 -0.0313
19.95 -0.03278
20 -0.0374
20.05 -0.03864
20.1 -0.03699
20.15 -0.03408
20.2 -0.03158
20.25 -0.02575
20.3 -0.01867
20.35 -0.01734
20.4 -0.01394
20.45 -0.0143
20.5 -0.01949
20.55 -0.02494
20.6 -0.03311
20.65 -0.03498
20.7 -0.03516
20.75 -0.0357
20.8 -0.03917
20.85 -0.03678
20.9 -0.03804
20.95 -0.03303
21 -0.02521
21.05 -0.0154
21.1 -0.00645
21.15 -0.00666
21.2 -0.00386
21.25 0.00021
21.3 0.00548
21.35 0.00251
21.4 -0.00036
21.45 -0.00401
21.5 -0.00767
21.55 -0.01293
21.6 -0.01471
21.65 -0.01307
21.7 -0.01388
21.75 -0.01154
21.8 -0.01332
21.85 -0.01796
21.9 -0.01986
21.95 -0.02027
22 -0.02171
22.05 -0.02664
22.1 -0.03041
22.15 -0.03298
22.2 -0.03632
22.25 -0.04063
22.3 -0.04255
22.35 -0.04261
22.4 -0.04367
22.45 -0.04584
22.5 -0.0429
22.55 -0.03538
22.6 -0.02879
22.65 -0.02337
22.7 -0.01608
22.75 -0.00684
22.8 -0.00059
22.85 0.00017
22.9 -0.00334
22.95 -0.00276
23 -0.00397
23.05 -0.00117
23.1 0.00361
23.15 0.00942
23.2 0.01065
23.25 0.0059
23.3 -0.00141
23.35 -0.00369
23.4 -0.0102
23.45 -0.01175
23.5 -0.00927
23.55 -0.00645
23.6 -0.00545
23.65 -0.00159
23.7 -0.00084
23.75 -0.00235
23.8 -0.00718
23.85 -0.01107
23.9 -0.01747
23.95 -0.02244
24 -0.02254
24.05 -0.02352
24.1 -0.02437
24.15 -0.01934
24.2 -0.01401
24.25 -0.00862
24.3 -0.0047
24.35 0.00118
24.4 -0
24.45 0.00226
24.5 0.00637
24.55 0.01106
24.6 0.0145
24.65 0.01594
24.7 0.01428
24.75 0.00865
24.8 0.00301
24.85 -0.00563
24.9 -0.0073
24.95 -0.01178
25 -0.01437
25.05 -0.01674
25.1 -0.02152
25.15 -0.02546
25.2 -0.03073
25.25 -0.03363
25.3 -0.03278
25.35 -0.03053
25.4 -0.03033
25.45 -0.03156
25.5 -0.02861
25.55 -0.02701
25.6 -0.02499
25.65 -0.02304
25.7 -0.0247
25.75 -0.02514
25.8 -0.02205
25.85 -0.01883
25.9 -0.01565
25.95 -0.01224
26 -0.0136
26.05 -0.01551
26.1 -0.01501
26.15 -0.01568
26.2 -0.01616
26.25 -0.0182
26.3 -0.01922
26.35 -0.01939
26.4 -0.02136
26.45 -0.01981
26.5 -0.01341
26.55 -0.00808
26.6 -0.00585
26.65 -0.00228
26.7 0.00227
26.75 0.00649
26.8 0.00938
26.85 0.00993
26.9 0.01118
26.95 0.00879
27 0.00511
27.05 0.00655
27.1 0.00393
27.15 0.00362
27.2 -0.00131
27.25 -0.00373
27.3 -0.00399
27.35 -0.00113
27.4 0.00072
27.45 0.00146
27.5 -0.0026
27.55 -0.00779
27.6 -0.01459
27.65 -0.02127
27.7 -0.02362
27.75 -0.02307
27.8 -0.02678
27.85 -0.02471
27.9 -0.02824
27.95 -0.03032
28 -0.02927
28.05 -0.03324
28.1 -0.03649
28.15 -0.04561
28.2 -0.05955
28.25 -0.07689
28.3 -0.09371
28.35 -0.11026
28.4 -0.12317
28.45 -0.13629
28.5 -0.14853
28.55 -0.16201
28.6 -0.17986
28.65 -0.19833
28.7 -0.22134
28.75 -0.24675
28.8 -0.28341
28.85 -0.3258
28.9 -0.37179
28.95 -0.41932
29 -0.47189
29.05 -0.52744
29.1 -0.58045
29.15 -0.63142
29.2 -0.68624
29.25 -0.74587
29.3 -0.80311
29.35 -0.86328
29.4 -0.91891
29.45 -0.97185
29.5 -1.02237
29.55 -1.07489
29.6 -1.12451
29.65 -1.16495
29.7 -1.20224
29.75 -1.23497
29.8 -1.26164
29.85 -1.28209
29.9 -1.28907
29.95 -1.28787
30 -1.27855
30.05 -1.26141
30.1 -1.23159
30.15 -1.19728
30.2 -1.15692
30.25 -1.10388
30.3 -1.04246
30.35 -0.98035
30.4 -0.90833
30.45 -0.83476
30.5 -0.75881
30.55 -0.67813
30.6 -0.58777
30.65 -0.48932
30.7 -0.3938
30.75 -0.29537
30.8 -0.19295
30.85 -0.09779
30.9 -0.00843
30.95 0.07909
31 0.16353
31.05 0.24306
31.1 0.3255
31.15 0.4032
31.2 0.47918
31.25 0.55086
31.3 0.61432
31.35 0.67232
31.4 0.72158
31.45 0.76901
31.5 0.81275
31.55 0.85254
31.6 0.88401
31.65 0.90896
31.7 0.92545
31.75 0.93917
31.8 0.95219
31.85 0.96147
31.9 0.96637
31.95 0.96585
32 0.96769
32.05 0.96604
32.1 0.96735
32.15 0.9671
32.2 0.96829
32.25 0.96728
32.3 0.96694
32.35 0.97113
32.4 0.97274
32.45 0.97421
32.5 0.9775
32.55 0.9755
32.6 0.9718
32.65 0.9611
32.7 0.94752
32.75 0.93665
32.8 0.92875
32.85 0.91863
32.9 0.90783
32.95 0.89669
33 0.88742
33.05 0.87326
33.1 0.85759
33.15 0.83524
33.2 0.81093
33.25 0.7856
33.3 0.75784
33.35 0.73139
33.4 0.70497
33.45 0.6851
33.5 0.66281
33.55 0.64495
33.6 0.62586
33.65 0.60333
33.7 0.58594
33.75 0.56449
33.8 0.54353
33.85 0.52537
33.9 0.50852
33.95 0.49241
34 0.4711
34.05 0.45208
34.1 0.43256
34.15 0.40952
34.2 0.391
34.25 0.36764
34.3 0.34465
34.35 0.3265
34.4 0.3093
34.45 0.29576
34.5 0.28132
34.55 0.26772
34.6 0.24851
34.65 0.23147
34.7 0.21741
34.75 0.20304
34.8 0.1833
34.85 0.16855
34.9 0.15544
34.95 0.14301
35 0.12953
35.05 0.11614
35.1 0.09892
35.15 0.08287
35.2 0.07117
35.25 0.05935
35.3 0.04678
35.35 0.03745
35.4 0.02477
35.45 0.01268
35.5 0.00094
35.55 -0.0074
35.6 -0.02133
35.65 -0.03846
35.7 -0.0501
35.75 -0.05917
35.8 -0.06827
35.85 -0.07946
35.9 -0.08942
35.95 -0.09414
36 -0.10098
36.05 -0.10969
36.1 -0.11356
36.15 -0.1183
36.2 -0.12136
36.25 -0.12667
36.3 -0.1345
36.35 -0.13584
36.4 -0.14
36.45 -0.13913
36.5 -0.1371
36.55 -0.14134
36.6 -0.14976
36.65 -0.15376
36.7 -0.15482
36.75 -0.154
36.8 -0.15023
36.85 -0.15317
36.9 -0.16066
36.95 -0.16275
37 -0.16146
37.05 -0.16073
37.1 -0.16352
37.15 -0.16512
37.2 -0.16324
37.25 -0.16301
37.3 -0.16646
37.35 -0.1718
37.4 -0.17338
37.45 -0.17091
37.5 -0.16914
37.55 -0.16251
37.6 -0.15776
37.65 -0.15465
37.7 -0.15625
37.75 -0.15741
37.8 -0.15644
37.85 -0.15825
37.9 -0.15887
37.95 -0.16033
38 -0.15537
38.05 -0.14837
38.1 -0.14635
38.15 -0.14806
38.2 -0.15139
38.25 -0.15151
38.3 -0.14929
38.35 -0.14691
38.4 -0.14803
38.45 -0.14624
38.5 -0.14473
38.55 -0.13906
38.6 -0.13692
38.65 -0.13615
38.7 -0.13702
38.75 -0.13974
38.8 -0.13972
38.85 -0.13793
38.9 -0.1359
38.95 -0.13043
39 -0.12527
39.05 -0.12029
39.1 -0.11286
39.15 -0.1087
39.2 -0.10848
39.25 -0.10842
39.3 -0.10412
39.35 -0.09693
39.4 -0.08744
39.45 -0.0849
39.5 -0.07926
39.55 -0.07648
39.6 -0.08035
39.65 -0.08317
39.7 -0.08728
39.75 -0.0943
39.8 -0.09347
39.85 -0.09078
39.9 -0.08446
39.95 -0.07941
40 -0.07296
40.05 -0.0709
40.1 -0.06549
40.15 -0.05959
40.2 -0.05749
40.25 -0.0587
40.3 -0.05667
40.35 -0.05824
40.4 -0.06167
40.45 -0.06555
40.5 -0.06382
40.55 -0.06286
40.6 -0.06226
40.65 -0.06248
40.7 -0.06563
40.75 -0.07031
40.8 -0.06893
40.85 -0.07212
40.9 -0.06885
40.95 -0.06514
41 -0.06235
41.05 -0.05844
41.1 -0.05534
41.15 -0.05222
41.2 -0.05054
41.25 -0.04727
41.3 -0.04773
41.35 -0.05322
41.4 -0.05735
41.45 -0.06313
41.5 -0.06357
41.55 -0.06015
41.6 -0.06171
41.65 -0.06253
41.7 -0.05828
41.75 -0.05172
41.8 -0.04811
41.85 -0.04986
41.9 -0.05495
41.95 -0.05319
42 -0.05406
42.05 -0.05593
42.1 -0.05761
42.15 -0.06065
42.2 -0.0582
42.25 -0.05662
42.3 -0.0501
42.35 -0.04193
42.4 -0.04029
42.45 -0.04057
42.5 -0.03643
42.55 -0.03101
42.6 -0.02621
42.65 -0.02415
42.7 -0.01933
42.75 -0.01512
42.8 -0.01029
42.85 -0.00816
42.9 -0.01321
42.95 -0.01979
43 -0.02599
43.05 -0.03416
43.1 -0.04091
43.15 -0.04734
43.2 -0.05065
43.25 -0.05397
43.3 -0.0565
43.35 -0.05348
43.4 -0.0505
43.45 -0.04373
43.5 -0.03733
43.55 -0.03402
43.6 -0.02893
43.65 -0.02579
43.7 -0.01922
43.75 -0.02006
43.8 -0.02388
43.85 -0.02935
43.9 -0.02996
43.95 -0.02832
44 -0.02875
44.05 -0.03094
44.1 -0.02783
44.15 -0.02092
44.2 -0.0188
44.25 -0.01579
44.3 -0.01358
44.35 -0.01091
44.4 -0.01286
44.45 -0.01199
44.5 -0.01625
44.55 -0.02033
44.6 -0.02065
44.65 -0.01624
44.7 -0.01332
44.75 -0.01427
44.8 -0.01917
44.85 -0.01828
44.9 -0.01865
44.95 -0.01973
45 -0.02125
45.05 -0.0253
45.1 -0.02943
45.15 -0.02674
45.2 -0.02287
45.25 -0.01757
45.3 -0.01397
45.35 -0.01261
45.4 -0.01118
45.45 -0.00984
45.5 -0.01294
45.55 -0.0111
45.6 -0.00549
45.65 -0.00016
45.7 0.00107
45.75 -0.00329
45.8 -0.00466
45.85 -0.00741
45.9 -0.01121
45.95 -0.0104
46 -0.0101
46.05 -0.01201
46.1 -0.00922
46.15 -0.00955
46.2 -0.00804
46.25 -0.01153
46.3 -0.01161
46.35 -0.00827
46.4 -0.00738
46.45 -0.00736
46.5 -0.00337
46.55 -0.00591
46.6 -0.01125
46.65 -0.01493
46.7 -0.02125
46.75 -0.02281
46.8 -0.02191
46.85 -0.02229
46.9 -0.02222
46.95 -0.02138
47 -0.01852
47.05 -0.01214
47.1 -0.00773
47.15 -0.007
47.2 -0.0065
47.25 -0.0065
47.3 -0.00206
47.35 0.00465
47.4 0.00537
47.45 0.00916
47.5 0.01418
47.55 0.0132
47.6 0.01314
47.65 0.00816
47.7 0.00739
47.75 0.00663
47.8 0.00707
47.85 0.00748
47.9 0.00771
47.95 0.00891
48 0.01183
48.05 0.0126
48.1 0.00841
48.15 0.00368
48.2 0.00156
48.25 -0.00107
48.3 0.00076
48.35 0.00076
48.4 0.00245
48.45 -0.00045
48.5 -0.00398
48.55 -0.00602
48.6 -0.01046
48.65 -0.00993
48.7 -0.01433
48.75 -0.01234
48.8 -0.0135
48.85 -0.01627
48.9 -0.01913
48.95 -0.01604
49 -0.01219
49.05 -0.01227
49.1 -0.01465
49.15 -0.01233
49.2 -0.0083
49.25 -0.0066
49.3 -0.00378
49.35 -0.00522
49.4 -0.00894
49.45 -0.01515
49.5 -0.0167
49.55 -0.02032
49.6 -0.01771
49.65 -0.01079
49.7 -0.00384
49.75 -0.00249
49.8 -0.00574
49.85 -0.00814
49.9 -0.01348
49.95 -0.01702
50 -0.01913
50.05 -0.01492
50.1 -0.00919
50.15 -0.00131
50.2 0.00612
50.25 0.00742
50.3 0.00403
50.35 0.0043
50.4 0.00784
50.45 0.00532
50.5 0.00197
50.55 0.00103
50.6 0.00317
50.65 0.00078
50.7 0.00215
50.75 -0.00198
50.8 -0.0067
50.85 -0.01161
50.9 -0.01353
50.95 -0.01413
51 -0.01154
51.05 -0.01281
51.1 -0.01425
51.15 -0.01465
51.2 -0.01246
51.25 -0.01478
51.3 -0.01684
51.35 -0.01979
51.4 -0.02223
51.45 -0.02505
51.5 -0.02108
51.55 -0.01472
51.6 -0.00826
51.65 -0.0035
51.7 -0.00506
51.75 -0.00736
51.8 -0.00948
51.85 -0.01445
51.9 -0.01954
51.95 -0.02565
52 -0.02568
52.05 -0.02307
52.1 -0.02299
52.15 -0.02061
52.2 -0.0175
52.25 -0.01146
52.3 -0.0084
52.35 -0.00518
52.4 0.00174
52.45 0.00956
52.5 0.01558
52.55 0.01354
52.6 0.01046
52.65 0.01042
52.7 0.00572
52.75 0.00417
52.8 0.00469
52.85 0.00647
52.9 0.00406
52.95 0.00205
53 0.00038
53.05 0.00201
53.1 0.00654
53.15 0.00779
53.2 0.00998
53.25 0.00821
53.3 0.00232
53.35 -0.00245
53.4 -0.0057
53.45 -0.00542
53.5 -0.00782
53.55 -0.00743
53.6 -0.00591
53.65 -0.00066
53.7 -0.00189
53.75 -0.00033
53.8 0.00222
53.85 0.00058
53.9 0.00367
53.95 0.00487
54 0.00539
54.05 0.00785
54.1 0.01041
54.15 0.00659
54.2 0.00534
54.25 0.00016
54.3 -0.00639
54.35 -0.00929
54.4 -0.01252
54.45 -0.01454
54.5 -0.01774
54.55 -0.02127
54.6 -0.02175
54.65 -0.02486
54.7 -0.02749
54.75 -0.02538
54.8 -0.02355
54.85 -0.02017
54.9 -0.01805
54.95 -0.01172
55 -0.00831
55.05 -0.00382
55.1 0.00339
55.15 0.00998
55.2 0.0091
55.25 0.00387
55.3 -0.00178
55.35 -0.00845
55.4 -0.0151
55.45 -0.01473
55.5 -0.0128
55.55 -0.01043
55.6 -0.01074
55.65 -0.01277
55.7 -0.01282
55.75 -0.01131
55.8 -0.01308
55.85 -0.01444
55.9 -0.00948
55.95 -0.00701
56 -0.00607
56.05 -0.00483
56.1 -0.00219
56.15 0.00353
56.2 0.00808
56.25 0.01258
56.3 0.01792
56.35 0.01614
56.4 0.01114
56.45 0.00374
56.5 0.00356
56.55 0.00803
56.6 0.01084
56.65 0.00841
56.7 0.00653
56.75 0.00564
56.8 0.00236
56.85 -0.00017
56.9 -0.00611
56.95 -0.01253
57 -0.01401
57.05 -0.01394
57.1 -0.00927
57.15 -0.00441
57.2 0.00185
57.25 0.0019
57.3 0.00139
57.35 0.00053
57.4 -0.00021
57.45 -0.00107
57.5 -0.0018
57.55 -0.0031
57.6 -0.0037
57.65 -0.00139
57.7 -0.00324
57.75 -0.00815
57.8 -0.01167
57.85 -0.0118
57.9 -0.00696
57.95 -0.00083
58 -0.0003
58.05 -0.00103
58.1 -0.00534
58.15 -0.00531
58.2 -0.001
58.25 -0.00073
58.3 0.00202
58.35 0.00069
58.4 0.00296
58.45 0.00154
58.5 0.00425
58.55 0.00884
58.6 0.01062
58.65 0.0108
58.7 0.01179
58.75 0.01418
58.8 0.01187
58.85 0.01233
58.9 0.01235
58.95 0.00767
59 0.00337
59.05 0.00227
59.1 0.00581
59.15 0.00945
59.2 0.00907
59.25 0.00557
59.3 0.00477
59.35 0.00812
59.4 0.0141
59.45 0.01361
59.5 0.00823
59.55 0.00466
59.6 0.00539
59.65 0.00107
59.7 -0.00586
59.75 -0.00969
59.8 -0.01433
59.85 -0.02
59.9 -0.02449
59.95 -0.02091
60 -0.01466
60.05 -0.0086
60.1 -0.00267
60.15 -0.00049
60.2 -0.00158
60.25 -0.00159
60.3 0.00249
60.35 0.00107
60.4 -0.00181
60.45 -0.00104
60.5 -0.0029
60.55 0.00092
60.6 0.00726
60.65 0.01189
60.7 0.01038
60.75 0.01326
60.8 0.01857
60.85 0.0195
60.9 0.01587
60.95 0.01253
61 0.01112
61.05 0.01407
61.1 0.01583
61.15 0.01154
61.2 0.01006
61.25 0.01253
61.3 0.01179
61.35 0.01309
61.4 0.01508
61.45 0.01634
61.5 0.01241
61.55 0.01199
61.6 0.01122
61.65 0.01216
61.7 0.0105
61.75 0.00796
61.8 0.0028
61.85 -0.00094
61.9 -0.00773
61.95 -0.01612
62 -0.0183
62.05 -0.01855
62.1 -0.01341
62.15 -0.00771
62.2 -0.00617
62.25 -0.008
62.3 -0.01188
62.35 -0.01423
62.4 -0.01836
62.45 -0.02065
62.5 -0.02464
62.55 -0.02224
62.6 -0.01872
62.65 -0.01772
62.7 -0.01839
62.75 -0.01857
62.8 -0.02027
62.85 -0.01985
62.9 -0.01655
62.95 -0.01211
63 -0.00448
63.05 -0.00131
63.1 -0.00231
63.15 -0.00297
63.2 0.00119
63.25 0.00621
63.3 0.01134
63.35 0.01683
63.4 0.01917
63.45 0.01823
63.5 0.01948
63.55 0.01424
63.6 0.00799
63.65 0.00726
63.7 0.00476
63.75 0.00727
63.8 0.00454
63.85 -0.00119
63.9 -0.00647
63.95 -0.00991
64 -0.00928
64.05 -0.00768
64.1 -0.00208
64.15 0.00012
64.2 -0.00075
64.25 -0.0048
64.3 -0.00836
64.35 -0.01289
64.4 -0.01465
64.45 -0.01531
64.5 -0.01485
64.55 -0.01581
64.6 -0.01389
64.65 -0.00841
64.7 -0.00594
64.75 -0.00279
64.8 -0.00393
64.85 -0.00422
64.9 -0.00555
64.95 -0.00401
65 -0.00111
65.05 0.00482
65.1 0.00568
65.15 0.0041
65.2 0.00338
65.25 0.00591
65.3 0.00979
65.35 0.01224
65.4 0.00948
65.45 0.00951
65.5 0.01027
65.55 0.01364
65.6 0.01553
65.65 0.01407
65.7 0.00767
65.75 -0.00158
65.8 -0.00568
65.85 -0.00909
65.9 -0.00643
65.95 -0.00462
66 -0.00548
66.05 -0.00806
66.1 -0.01008
66.15 -0.01
66.2 -0.00651
66.25 0.00072
66.3 0.00636
66.35 0.00498
66.4 -0.00015
66.45 -0.00363
66.5 -0.00473
66.55 -0.00468
66.6 -0.0044
66.65 -0.00031
66.7 0.00175
66.75 0.0068
66.8 0.00748
66.85 0.0091
66.9 0.01048
66.95 0.01121
67 0.01037
67.05 0.01191
67.1 0.01663
67.15 0.01764
67.2 0.02049
67.25 0.01982
67.3 0.01853
67.35 0.01212
67.4 0.01136
67.45 0.01453
67.5 0.01959
67.55 0.02492
67.6 0.02483
67.65 0.02128
67.7 0.01351
67.75 0.00441
67.8 -0.00432
67.85 -0.00729
67.9 -0.00834
67.95 -0.00915
68 -0.00811
68.05 -0.00907
68.1 -0.00653
68.15 -0.00277
68.2 -0.00272
68.25 -0.0055
68.3 -0.00657
68.35 -0.00228
68.4 0.00312
68.45 0.00678
68.5 0.00568
68.55 0.00473
68.6 0.00483
68.65 0.0049
68.7 0.00162
68.75 -0.00412
68.8 -0.00355
68.85 0.0004
68.9 0.00059
68.95 -0.00013
69 -0.00033
69.05 -0.00461
69.1 -0.00506
69.15 -0.00906
69.2 -0.01566
69.25 -0.01471
69.3 -0.01769
69.35 -0.02054
69.4 -0.01975
69.45 -0.0188
69.5 -0.01218
69.55 -0.00479
69.6 0.00294
69.65 0.00929
69.7 0.01069
69.75 0.00837
69.8 0.00148
69.85 0.00164
69.9 -0.00249
69.95 -0.00545
70 -0.00253
70.05 -0.00019
70.1 -0.00324
70.15 -0.00265
70.2 0.00129
70.25 0.00232
70.3 0.00423
70.35 0.00383
70.4 0.0007
70.45 0.002
70.5 0.00061
70.55 -0.00371
70.6 -0.00182
70.65 -0.00223
70.7 0.00189
70.75 0.00335
70.8 0.00153
70.85 0.00002
70.9 0.00029
70.95 -0.00436
71 -0.00463
71.05 -0.0072
71.1 -0.01101
71.15 -0.01248
71.2 -0.01066
71.25 -0.0065
71.3 -0.00629
71.35 -0.00827
71.4 -0.01241
71.45 -0.01044
71.5 -0.00432
71.55 0.00156
71.6 0.00905
71.65 0.0087
71.7 0.01099
71.75 0.012
71.8 0.00991
71.85 0.00489
71.9 0.00563
71.95 0.00906
72 0.0141
72.05 0.01552
72.1 0.01408
72.15 0.00921
72.2 0.00183
72.25 -0.00666
72.3 -0.01168
72.35 -0.01194
72.4 -0.01277
72.45 -0.01395
72.5 -0.00967
72.55 -0.01016
72.6 -0.01376
72.65 -0.01856
72.7 -0.0209
72.75 -0.01806
72.8 -0.01674
72.85 -0.01699
72.9 -0.0128
72.95 -0.00557
73 -0.00349
73.05 -0.0012
73.1 0.00089
73.15 0.0033
73.2 0.00571
73.25 0.00918
73.3 0.01018
73.35 0.00716
73.4 0.00832
73.45 0.01014
73.5 0.01487
73.55 0.01347
73.6 0.00753
73.65 0.00447
73.7 0.00097
73.75 -0.0001
73.8 0.00245
73.85 0.00647
73.9 0.00407
73.95 0.00616
74 0.00235
74.05 0.00221
74.1 -0.00084
74.15 0.0002
74.2 0.00215
74.25 0.00758
74.3 0.00732
74.35 0.01099
74.4 0.0141
74.45 0.01456
74.5 0.01789
74.55 0.01766
74.6 0.01177
74.65 0.00953
74.7 0.00618
74.75 -0.00042
74.8 -0.00019
74.85 0.00006
74.9 -0.00075
74.95 0.00069
75 -0.00336
75.05 -0.00879
75.1 -0.01637
75.15 -0.02279
75.2 -0.02101
75.25 -0.01601
75.3 -0.01033
75.35 -0.0048
75.4 -0.00179
75.45 0.00458
75.5 0.00541
75.55 0.00937
75.6 0.008
75.65 0.00925
75.7 0.01226
75.75 0.01559
75.8 0.01941
75.85 0.02001
75.9 0.01811
75.95 0.01293
76 0.00885
76.05 0.00216
76.1 -0.00564
76.15 -0.01481
76.2 -0.02126
76.25 -0.02518
76.3 -0.02483
76.35 -0.02355
76.4 -0.02455
76.45 -0.02086
76.5 -0.01948
76.55 -0.01973
76.6 -0.01462
76.65 -0.01231
76.7 -0.01097
76.75 -0.01221
76.8 -0.01144
76.85 -0.00618
76.9 -0.00572
76.95 -0.00757
77 -0.00567
77.05 -0.00412
77.1 0.00063
77.15 0.00656
77.2 0.01223
77.25 0.01037
77.3 0.01056
77.35 0.01138
77.4 0.00673
77.45 0.00121
77.5 -0.00151
77.55 0.00106
77.6 0.00528
77.65 0.00875
77.7 0.0066
77.75 0.00738
77.8 0.00961
77.85 0.01052
77.9 0.01342
77.95 0.00984
78 0.00925
78.05 0.01029
78.1 0.01039
78.15 0.0071
78.2 0.008
78.25 0.00653
78.3 0.0011
78.35 -0.00065
78.4 -0.003
78.45 0.00003
78.5 0.00194
78.55 0.00743
78.6 0.01018
78.65 0.00807
78.7 0.00669
78.75 0.00305
78.8 0.00302
78.85 0.00459
78.9 0.0047
78.95 0.00296
79 0.00397
79.05 -0.00004
79.1 -0.00055
79.15 -0.00351
79.2 -0.00555
79.25 -0.00895
79.3 -0.01067
79.35 -0.01343
79.4 -0.0167
79.45 -0.01602
79.5 -0.01325
79.55 -0.00714
79.6 -0.00596
79.65 -0.00393
79.7 0.001
79.75 0.00509
79.8 0.00435
79.85 0.00505
79.9 0.00835
79.95 0.00623
80 0.00631
80.05 0.00614
80.1 0.0053
80.15 0.00044
80.2 -0.00202
80.25 -0.00495
80.3 -0.00561
80.35 -0.00689
80.4 -0.00366
80.45 -0.00363
80.5 -0.00425
80.55 -0.00596
80.6 -0.0033
80.65 -0.00338
80.7 -0.00367
80.75 -0.00534
80.8 -0.00976
80.85 -0.01487
80.9 -0.01267
80.95 -0.0148
81 -0.01136
81.05 -0.00406
81.1 0.0018
81.15 0.00306
81.2 0.00768
81.25 0.00671
81.3 0.0036
81.35 -0.00055
81.4 -0.00093
81.45 -0.00274
81.5 -0.00552
81.55 -0.0092
81.6 -0.00995
81.65 -0.0112
81.7 -0.01094
81.75 -0.00889
81.8 -0.00343
81.85 0.00463
81.9 0.01136
81.95 0.01302
82 0.01573
82.05 0.01905
82.1 0.01668
82.15 0.01014
82.2 0.00097
82.25 -0.00104
82.3 -0.00147
82.35 -0.00164
82.4 0.00295
82.45 0.00348
82.5 0.00292
82.55 0.00408
82.6 0.00261
82.65 0.00274
82.7 0.00083
82.75 0.00298
82.8 0.00321
82.85 0.00125
82.9 0.00156
82.95 0.00309
83 0.00175
83.05 0.00393
83.1 0.00485
83.15 0.00062
83.2 0.00019
83.25 0.00139
83.3 0.00317
83.35 0.00774
83.4 0.00641
83.45 0.00556
83.5 0.00608
83.55 0.00871
83.6 0.00772
83.65 0.00247
83.7 -0.00175
83.75 -0.00669
83.8 -0.00614
83.85 -0.00617
83.9 -0.00723
83.95 -0.00472
84 0.00133
84.05 0.0036
84.1 0.00641
84.15 0.01209
84.2 0.01285
84.25 0.01095
84.3 0.00524
84.35 -0.0009
84.4 -0.00819
84.45 -0.01247
84.5 -0.01046
84.55 -0.00435
84.6 0.00433
84.65 0.01186
84.7 0.01698
84.75 0.02267
84.8 0.02023
84.85 0.01587
84.9 0.01332
84.95 0.01149
85 0.00806
85.05 0.00289
85.1 0.00123
85.15 -0.00136
85.2 -0.00397
85.25 -0.00421
85.3 -0.00244
85.35 -0.0027
85.4 -0.00394
85.45 -0.00808
85.5 -0.00818
85.55 -0.00717
85.6 -0.0084
85.65 -0.00808
85.7 -0.00288
85.75 -0.00299
85.8 -0.00115
85.85 0.00235
85.9 0.00287
85.95 -0.00027
86 -0.0012
86.05 -0.00315
86.1 -0.00451
86.15 -0.00119
86.2 0.0045
86.25 0.00846
86.3 0.00698
86.35 0.00106
86.4 -0.0069
86.45 -0.00743
86.5 -0.00574
86.55 -0.00385
86.6 -0.00502
86.65 -0.00139
86.7 -0.00032
86.75 -0.00357
86.8 -0.00439
86.85 -0.00825
86.9 -0.00875
86.95 -0.00912
87 -0.00506
87.05 0.0004
87.1 -0.00058
87.15 0.00025
87.2 0.00423
87.25 0.00275
87.3 -0.00166
87.35 -0.00361
87.4 -0.00648
87.45 -0.01049
87.5 -0.01012
87.55 -0.00894
87.6 -0.00935
87.65 -0.01352
87.7 -0.01611
87.75 -0.02131
87.8 -0.01852
87.85 -0.01092
87.9 -0.00221
87.95 0.00785
88 0.01585
88.05 0.02011
88.1 0.01994
88.15 0.01335
88.2 0.00941
88.25 0.00702
88.3 0.00465
88.35 0.00305
88.4 0.00279
88.45 -0.00246
88.5 -0.00473
88.55 -0.00614
88.6 -0.01046
88.65 -0.01506
88.7 -0.01295
88.75 -0.01022
88.8 -0.00446
88.85 -0.00243
88.9 0.00348
88.95 0.01027
89 0.01339
89.05 0.01096
89.1 0.004
89.15 -0.00334
89.2 -0.00446
89.25 -0.00943
89.3 -0.01492
89.35 -0.01978
89.4 -0.0243
89.45 -0.0299
89.5 -0.03342
89.55 -0.03348
89.6 -0.02995
89.65 -0.02964
89.7 -0.02855
89.75 -0.02777
89.8 -0.02057
89.85 -0.01576
89.9 -0.01085
89.95 -0.0026
90 0.00009
90.05 0.00111
90.1 -0.00131
90.15 -0.00414
90.2 -0.00924
90.25 -0.01067
90.3 -0.01313
90.35 -0.01017
90.4 -0.00273
90.45 0.00279
90.5 0.00607
90.55 0.00993
90.6 0.01235
90.65 0.01085
90.7 0.00537
90.75 0.00601
90.8 0.00756
90.85 0.00425
90.9 -0.00036
90.95 -0.00781
91 -0.00708
91.05 -0.00962
91.1 -0.0082
91.15 -0.00536
91.2 0.00127
91.25 0.00426
91.3 0.00913
91.35 0.01029
91.4 0.01488
91.45 0.0127
91.5 0.00756
91.55 0.00432
91.6 -0.00028
91.65 -0.00516
91.7 -0.01066
91.75 -0.01079
91.8 -0.01158
91.85 -0.01131
91.9 -0.00919
91.95 -0.01114
92 -0.00833
92.05 -0.00131
92.1 0.00696
92.15 0.01226
92.2 0.01753
92.25 0.01586
92.3 0.01727
92.35 0.01307
92.4 0.00992
92.45 0.00966
92.5 0.00857
92.55 0.00772
92.6 0.01054
92.65 0.01377
92.7 0.01109
92.75 0.00742
92.8 0.0057
92.85 0.00857
92.9 0.0097
92.95 0.00711
93 0.0063
93.05 0.00069
93.1 -0.0064
93.15 -0.01011
93.2 -0.01311
93.25 -0.01146
93.3 -0.01401
93.35 -0.01199
93.4 -0.00605
93.45 -0.00147
93.5 0.00613
93.55 0.0115
93.6 0.0171
93.65 0.0152
93.7 0.01319
93.75 0.00668
93.8 0.00113
93.85 -0.00675
93.9 -0.01577
93.95 -0.02326
94 -0.02237
94.05 -0.02046
94.1 -0.02184
94.15 -0.02478
94.2 -0.02408
94.25 -0.01933
94.3 -0.0175
94.35 -0.01915
94.4 -0.01687
94.45 -0.00965
94.5 -0.00099
94.55 0.00837
94.6 0.01496
94.65 0.02266
94.7 0.02165
94.75 0.02092
94.8 0.01577
94.85 0.01467
94.9 0.01703
94.95 0.0149
95 0.00871
95.05 0.00239
95.1 -0.00147
95.15 -0.00759
95.2 -0.00709
95.25 -0.00417
95.3 -0.00361
95.35 -0.006
95.4 -0.00227
95.45 -0.00134
95.5 -0.00171
95.55 -0.00323
95.6 -0.00157
95.65 0.00132
95.7 0.00309
95.75 0.00766
95.8 0.01094
95.85 0.01281
95.9 0.01765
95.95 0.0148
96 0.01057
96.05 0.00814
96.1 0.00165
96.15 0.00103
96.2 -0.00163
96.25 -0.00622
96.3 -0.01314
96.35 -0.01475
96.4 -0.01407
96.45 -0.0146
96.5 -0.01007
96.55 -0.00315
96.6 -0.00047
96.65 -0.00116
96.7 0.00028
96.75 0.0031
96.8 0.00825
96.85 0.00794
96.9 0.01127
96.95 0.00894
97 0.0024
97.05 -0.00314
97.1 -0.01043
97.15 -0.01667
97.2 -0.02
97.25 -0.01911
97.3 -0.02044
97.35 -0.01601
97.4 -0.01227
97.45 -0.0119
97.5 -0.00868
97.55 -0.00812
97.6 -0.00483
97.65 -0.00257
97.7 -0.00183
97.75 -0.00319
97.8 0.00061
97.85 0.00035
97.9 0.00474
97.95 0.00842
98 0.00995
98.05 0.01112
98.1 0.00968
98.15 0.01154
98.2 0.01388
98.25 0.01807
98.3 0.01963
98.35 0.0146
98.4 0.01214
98.45 0.01275
98.5 0.01577
98.55 0.02062
98.6 0.02518
98.65 0.02573
98.7 0.02462
98.75 0.02636
98.8 0.02237
98.85 0.0216
98.9 0.01889
98.95 0.01269
99 0.00895
99.05 0.00761
99.1 0.00579
99.15 0.00175
99.2 0.00202
99.25 -0.00257
99.3 -0.007
99.35 -0.00977
99.4 -0.01189
99.45 -0.01497
99.5 -0.01554
99.55 -0.0143
99.6 -0.01212
99.65 -0.00851
99.7 -0.00402
99.75 0.00234
99.8 0.00121
99.85 0.00154
99.9 0.00129
99.95 -0.00323
