0 0
0.05 0.00792
0.1 0.01765
0.15 0.03122
0.2 0.03847
0.25 0.04812
0.3 0.05208
0.35 0.05292
0.4 0.05594
0.45 0.05723
0.5 0.06012
0.55 0.05783
0.6 0.05384
0.65 0.05189
0.7 0.05101
0.75 0.05345
0.8 0.05369
0.85 0.05592
0.9 0.05181
0.95 0.05154
1 0.04891
1.05 0.04476
1.1 0.03962
1.15 0.04051
1.2 0.0398
1.25 0.04354
1.3 0.04283
1.35 0.03902
1.4 0.03663
1.45 0.03108
1.5 0.032
1.55 0.02957
1.6 0.03139
1.65 0.03531
1.7 0.03621
1.75 0.0384
1.8 0.03685
1.85 0.03806
1.9 0.03912
1.95 0.0425
2 0.04426
2.05 0.0411
2.1 0.03769
2.15 0.03328
2.2 0.02943
2.25 0.03045
2.3 0.03384
2.35 0.03115
2.4 0.0286
2.45 0.03167
2.5 0.03283
2.55 0.03619
2.6 0.03935
2.65 0.03635
2.7 0.03617
2.75 0.03257
2.8 0.02957
2.85 0.03026
2.9 0.02775
2.95 0.02789
3 0.03001
3.05 0.03447
3.1 0.0389
3.15 0.04443
3.2 0.04866
3.25 0.05355
3.3 0.05672
3.35 0.05567
3.4 0.04878
3.45 0.04113
3.5 0.03259
3.55 0.02643
3.6 0.01979
3.65 0.01939
3.7 0.0187
3.75 0.02006
3.8 0.02501
3.85 0.02401
3.9 0.02373
3.95 0.02034
4 0.01326
4.05 0.00738
4.1 0.00542
4.15 0.00124
4.2 -0.00206
4.25 -0.00115
4.3 -0.00304
4.35 -0.00356
4.4 -0.00601
4.45 -0.014
4.5 -0.02367
4.55 -0.03468
4.6 -0.04902
4.65 -0.06431
4.7 -0.08088
4.75 -0.09622
4.8 -0.11479
4.85 -0.14058
4.9 -0.17229
4.95 -0.2017
5 -0.23717
5.05 -0.27789
5.1 -0.32633
5.15 -0.37555
5.2 -0.43336
5.25 -0.49228
5.3 -0.55857
5.35 -0.63063
5.4 -0.70512
5.45 -0.78489
5.5 -0.86473
5.55 -0.945
5.6 -1.01834
5.65 -1.0938
5.7 -1.16827
5.75 -1.23371
5.8 -1.29884
5.85 -1.36074
5.9 -1.41327
5.95 -1.46294
6 -1.5068
6.05 -1.54158
6.1 -1.56933
6.15 -1.59685
6.2 -1.61251
6.25 -1.62506
6.3 -1.63282
6.35 -1.63624
6.4 -1.63444
6.45 -1.62567
6.5 -1.60444
6.55 -1.5757
6.6 -1.53625
6.65 -1.49042
6.7 -1.44025
6.75 -1.38468
6.8 -1.32197
6.85 -1.24682
6.9 -1.16586
6.95 -1.07107
7 -0.97308
7.05 -0.86397
7.1 -0.74768
7.15 -0.62362
7.2 -0.49756
7.25 -0.36297
7.3 -0.22529
7.35 -0.09082
7.4 0.04645
7.45 0.18145
7.5 0.31263
7.55 0.44102
7.6 0.57009
7.65 0.69381
7.7 0.81725
7.75 0.93302
7.8 1.03979
7.85 1.13271
7.9 1.21726
7.95 1.29611
8 1.36356
8.05 1.41919
8.1 1.46861
8.15 1.5069
8.2 1.54035
8.25 1.5662
8.3 1.58993
8.35 1.60198
8.4 1.60499
8.45 1.60628
8.5 1.60767
8.55 1.6012
8.6 1.59214
8.65 1.57509
8.7 1.55394
8.75 1.52842
8.8 1.50469
8.85 1.4765
8.9 1.44814
8.95 1.41661
9 1.38613
9.05 1.35132
9.1 1.32108
9.15 1.2898
9.2 1.25732
9.25 1.22528
9.3 1.19302
9.35 1.1616
9.4 1.12961
9.45 1.09655
9.5 1.06789
9.55 1.04423
9.6 1.01802
9.65 0.98675
9.7 0.95376
9.75 0.9244
9.8 0.90123
9.85 0.88192
9.9 0.86445
9.95 0.84692
10 0.8253
10.05 0.8047
10.1 0.78008
10.15 0.75463
10.2 0.72763
10.25 0.69719
10.3 0.67088
10.35 0.64851
10.4 0.62582
10.45 0.59848
10.5 0.56953
10.55 0.53644
10.6 0.50835
10.65 0.4784
10.7 0.45107
10.75 0.42872
10.8 0.40238
10.85 0.37886
10.9 0.35682
10.95 0.33381
11 0.30811
11.05 0.28447
11.1 0.25811
11.15 0.23412
11.2 0.21566
11.25 0.19778
11.3 0.17403
11.35 0.15366
11.4 0.13616
11.45 0.11529
11.5 0.09734
11.55 0.08082
11.6 0.05942
11.65 0.03481
11.7 0.01665
11.75 -0.00557
11.8 -0.02498
11.85 -0.04307
11.9 -0.05744
11.95 -0.06858
12 -0.07616
12.05 -0.08839
12.1 -0.1002
12.15 -0.11186
12.2 -0.11893
12.25 -0.13163
12.3 -0.14616
12.35 -0.15935
12.4 -0.17474
12.45 -0.18224
12.5 -0.1861
12.55 -0.18622
12.6 -0.1913
12.65 -0.1944
12.7 -0.19557
12.75 -0.20053
12.8 -0.20193
12.85 -0.20308
12.9 -0.20365
12.95 -0.20331
13 -0.2025
13.05 -0.20261
13.1 -0.20451
13.15 -0.2123
13.2 -0.22088
13.25 -0.22686
13.3 -0.23046
13.35 -0.2357
13.4 -0.23597
13.45 -0.23942
13.5 -0.24267
13.55 -0.24434
13.6 -0.24137
13.65 -0.2359
13.7 -0.2299
13.75 -0.22277
13.8 -0.21667
13.85 -0.21001
13.9 -0.20524
13.95 -0.20074
14 -0.19693
14.05 -0.19682
14.1 -0.19953
14.15 -0.19887
14.2 -0.19756
14.25 -0.19254
14.3 -0.1923
14.35 -0.1942
14.4 -0.19388
14.45 -0.19112
14.5 -0.18761
14.55 -0.18715
14.6 -0.18887
14.65 -0.1929
14.7 -0.19348
14.75 -0.19483
14.8 -0.18976
14.85 -0.18164
14.9 -0.17367
14.95 -0.16438
15 -0.16081
15.05 -0.16266
15.1 -0.15978
15.15 -0.15731
15.2 -0.15492
15.25 -0.1575
15.3 -0.15882
15.35 -0.1566
15.4 -0.15296
15.45 -0.15376
15.5 -0.1536
15.55 -0.14984
15.6 -0.14191
15.65 -0.13677
15.7 -0.1316
15.75 -0.12832
15.8 -0.12328
15.85 -0.11823
15.9 -0.11471
15.95 -0.10867
16 -0.10426
16.05 -0.09818
16.1 -0.09642
16.15 -0.09573
16.2 -0.09567
16.25 -0.09455
16.3 -0.09104
16.35 -0.08775
16.4 -0.08396
16.45 -0.08375
16.5 -0.08683
16.55 -0.09176
16.6 -0.09258
16.65 -0.0957
16.7 -0.09535
16.75 -0.09251
16.8 -0.08994
16.85 -0.09151
16.9 -0.08831
16.95 -0.08724
17 -0.0871
17.05 -0.08344
17.1 -0.08525
17.15 -0.0844
17.2 -0.08738
17.25 -0.08804
17.3 -0.09106
17.35 -0.0911
17.4 -0.09468
17.45 -0.0976
17.5 -0.095
17.55 -0.09588
17.6 -0.09572
17.65 -0.09786
17.7 -0.0936
17.75 -0.09364
17.8 -0.09203
17.85 -0.09068
17.9 -0.08307
17.95 -0.08125
18 -0.07578
18.05 -0.07226
18.1 -0.06876
18.15 -0.07008
18.2 -0.07131
18.25 -0.06856
18.3 -0.06319
18.35 -0.06278
18.4 -0.06539
18.45 -0.06212
18.5 -0.05482
18.55 -0.0461
18.6 -0.0452
18.65 -0.0469
18.7 -0.04785
18.75 -0.04764
18.8 -0.04663
18.85 -0.04689
18.9 -0.04625
18.95 -0.05023
19 -0.056
19.05 -0.06197
19.1 -0.0641
19.15 -0.06217
19.2 -0.05774
19.25 -0.05246
19.3 -0.04423
19.35 -0.03551
19.4 -0.02922
19.45 -0.02639
19.5 -0.02293
19.55 -0.02606
19.6 -0.0305
19.65 -0.0336
19.7 -0.03325
19.75 -0.03772
19.8 -0.04072
19.85 -0.03788
19.9 -0.03729
19.95 -0.03392
20 -0.02764
20.05 -0.02682
20.1 -0.0243
20.15 -0.02131
20.2 -0.02217
20.25 -0.0237
20.3 -0.02744
20.35 -0.03155
20.4 -0.03639
20.45 -0.03766
20.5 -0.03977
20.55 -0.03638
20.6 -0.03044
20.65 -0.02965
20.7 -0.02492
20.75 -0.02111
20.8 -0.02306
20.85 -0.02467
20.9 -0.02941
20.95 -0.02782
21 -0.02565
21.05 -0.02499
21.1 -0.02251
21.15 -0.01838
21.2 -0.01835
21.25 -0.01802
21.3 -0.01989
21.35 -0.02008
21.4 -0.01781
21.45 -0.01225
21.5 -0.01297
21.55 -0.01122
21.6 -0.01001
21.65 -0.00764
21.7 -0.01195
21.75 -0.01835
21.8 -0.02556
21.85 -0.0256
21.9 -0.02181
21.95 -0.01641
22 -0.01212
22.05 -0.00857
22.1 -0.00941
22.15 -0.01554
22.2 -0.01705
22.25 -0.02108
22.3 -0.01978
22.35 -0.0162
22.4 -0.01061
22.45 -0.00596
22.5 -0.00737
22.55 -0.0093
22.6 -0.01382
22.65 -0.01307
22.7 -0.01207
22.75 -0.01495
22.8 -0.02039
22.85 -0.0273
22.9 -0.02931
22.95 -0.02881
23 -0.02802
23.05 -0.02426
23.1 -0.01756
23.15 -0.01097
23.2 -0.00302
23.25 -0.0022
23.3 -0.0069
23.35 -0.00789
23.4 -0.01269
23.45 -0.01937
23.5 -0.02393
23.55 -0.02475
23.6 -0.01965
23.65 -0.01792
23.7 -0.02029
23.75 -0.02049
23.8 -0.01919
23.85 -0.02226
23.9 -0.02408
23.95 -0.02583
24 -0.02336
24.05 -0.02259
24.1 -0.02006
24.15 -0.01471
24.2 -0.01009
24.25 -0.00863
24.3 -0.00416
24.35 -0.00538
24.4 -0.0106
24.45 -0.01027
24.5 -0.00543
24.55 -0.00512
24.6 -0.00207
24.65 -0.00164
24.7 -0.00397
24.75 -0.00647
24.8 -0.00855
24.85 -0.0091
24.9 -0.01118
24.95 -0.01202
25 -0.0134
25.05 -0.01584
25.1 -0.01597
25.15 -0.01465
25.2 -0.00997
25.25 -0.00549
25.3 -0.00631
25.35 -0.0112
25.4 -0.01763
25.45 -0.02131
25.5 -0.02358
25.55 -0.02607
25.6 -0.02771
25.65 -0.02358
25.7 -0.02294
25.75 -0.01922
25.8 -0.01907
25.85 -0.02036
25.9 -0.02342
25.95 -0.02706
26 -0.02409
26.05 -0.02157
26.1 -0.02104
26.15 -0.02165
26.2 -0.02008
26.25 -0.02036
26.3 -0.0184
26.35 -0.01599
26.4 -0.01351
26.45 -0.00897
26.5 -0.00068
26.55 0.00038
26.6 0.00557
26.65 0.0071
26.7 0.00785
26.75 0.01224
26.8 0.01471
26.85 0.01345
26.9 0.00808
26.95 0.00242
27 -0.00432
27.05 -0.00765
27.1 -0.01069
27.15 -0.01511
27.2 -0.01661
27.25 -0.01453
27.3 -0.00966
27.35 -0.00278
27.4 -0.00147
27.45 0.00226
27.5 0.00648
27.55 0.00882
27.6 0.00605
27.65 0.00544
27.7 0.00024
27.75 -0.00842
27.8 -0.01457
27.85 -0.0209
27.9 -0.0233
27.95 -0.02715
28 -0.02625
28.05 -0.02478
28.1 -0.03086
28.15 -0.03695
28.2 -0.04293
28.25 -0.05178
28.3 -0.06251
28.35 -0.07445
28.4 -0.08827
28.45 -0.10826
28.5 -0.13227
28.55 -0.15774
28.6 -0.18195
28.65 -0.20502
28.7 -0.22488
28.75 -0.24787
28.8 -0.2749
28.85 -0.30076
28.9 -0.33104
28.95 -0.36436
29 -0.40126
29.05 -0.44512
29.1 -0.49372
29.15 -0.53707
29.2 -0.58175
29.25 -0.62432
29.3 -0.66561
29.35 -0.71072
29.4 -0.75403
29.45 -0.80072
29.5 -0.84451
29.55 -0.88834
29.6 -0.93189
29.65 -0.97404
29.7 -1.01015
29.75 -1.04208
29.8 -1.06989
29.85 -1.09359
29.9 -1.11203
29.95 -1.12312
30 -1.12093
30.05 -1.10656
30.1 -1.08385
30.15 -1.05544
30.2 -1.02687
30.25 -0.99615
30.3 -0.95607
30.35 -0.91077
30.4 -0.85576
30.45 -0.80189
30.5 -0.74786
30.55 -0.68506
30.6 -0.62103
30.65 -0.54953
30.7 -0.4766
30.75 -0.40227
30.8 -0.32916
30.85 -0.25719
30.9 -0.18814
30.95 -0.11368
31 -0.03779
31.05 0.03165
31.1 0.10403
31.15 0.1714
31.2 0.23365
31.25 0.2958
31.3 0.35487
31.35 0.41264
31.4 0.46871
31.45 0.51724
31.5 0.56041
31.55 0.59953
31.6 0.63286
31.65 0.65926
31.7 0.69005
31.75 0.71861
31.8 0.74096
31.85 0.76199
31.9 0.78763
31.95 0.80843
32 0.83129
32.05 0.84698
32.1 0.85858
32.15 0.86815
32.2 0.87545
32.25 0.88171
32.3 0.89431
32.35 0.90454
32.4 0.91718
32.45 0.92846
32.5 0.93848
32.55 0.94291
32.6 0.94687
32.65 0.94901
32.7 0.94664
32.75 0.94001
32.8 0.92875
32.85 0.91551
32.9 0.90008
32.95 0.88674
33 0.87627
33.05 0.86173
33.1 0.84915
33.15 0.83516
33.2 0.81721
33.25 0.7968
33.3 0.78304
33.35 0.77131
33.4 0.7587
33.45 0.74155
33.5 0.72177
33.55 0.69733
33.6 0.6717
33.65 0.65027
33.7 0.62934
33.75 0.6105
33.8 0.59244
33.85 0.57677
33.9 0.5578
33.95 0.54044
34 0.52021
34.05 0.49517
34.1 0.47374
34.15 0.45107
34.2 0.42464
34.25 0.39878
34.3 0.37759
34.35 0.35735
34.4 0.33918
34.45 0.31692
34.5 0.292
34.55 0.2675
34.6 0.24144
34.65 0.21409
34.7 0.1929
34.75 0.17789
34.8 0.16793
34.85 0.161
34.9 0.15319
34.95 0.14139
35 0.13074
35.05 0.12119
35.1 0.11228
35.15 0.10238
35.2 0.08579
35.25 0.06896
35.3 0.05659
35.35 0.04204
35.4 0.02666
35.45 0.00935
35.5 -0.01017
35.55 -0.02624
35.6 -0.03478
35.65 -0.04063
35.7 -0.05161
35.75 -0.05836
35.8 -0.06086
35.85 -0.06296
35.9 -0.06612
35.95 -0.06812
36 -0.07242
36.05 -0.07951
36.1 -0.09116
36.15 -0.1043
36.2 -0.11634
36.25 -0.12089
36.3 -0.12989
36.35 -0.13717
36.4 -0.14278
36.45 -0.14408
36.5 -0.14715
36.55 -0.15239
36.6 -0.15521
36.65 -0.15278
36.7 -0.15469
36.75 -0.15161
36.8 -0.15333
36.85 -0.1504
36.9 -0.14728
36.95 -0.14925
37 -0.15496
37.05 -0.15479
37.1 -0.15323
37.15 -0.15134
37.2 -0.1535
37.25 -0.15055
37.3 -0.14605
37.35 -0.14304
37.4 -0.13713
37.45 -0.13817
37.5 -0.13718
37.55 -0.13686
37.6 -0.13361
37.65 -0.13202
37.7 -0.13287
37.75 -0.13276
37.8 -0.13646
37.85 -0.13859
37.9 -0.14323
37.95 -0.14609
38 -0.14538
38.05 -0.14548
38.1 -0.145
38.15 -0.14719
38.2 -0.14543
38.25 -0.13846
38.3 -0.12968
38.35 -0.12466
38.4 -0.12069
38.45 -0.1145
38.5 -0.11015
38.55 -0.10357
38.6 -0.10419
38.65 -0.1083
38.7 -0.11237
38.75 -0.1138
38.8 -0.11375
38.85 -0.11612
38.9 -0.11343
38.95 -0.10664
39 -0.10159
39.05 -0.10072
39.1 -0.10237
39.15 -0.10171
39.2 -0.10449
39.25 -0.10971
39.3 -0.11482
39.35 -0.11429
39.4 -0.11127
39.45 -0.10777
39.5 -0.10773
39.55 -0.10295
39.6 -0.10138
39.65 -0.09641
39.7 -0.09135
39.75 -0.09166
39.8 -0.08737
39.85 -0.08068
39.9 -0.07162
39.95 -0.06921
40 -0.07056
40.05 -0.07252
40.1 -0.07146
40.15 -0.07007
40.2 -0.07243
40.25 -0.072
40.3 -0.07373
40.35 -0.07262
40.4 -0.07491
40.45 -0.07934
40.5 -0.0856
40.55 -0.08953
40.6 -0.09304
40.65 -0.08977
40.7 -0.08439
40.75 -0.07825
40.8 -0.07288
40.85 -0.07104
40.9 -0.07345
40.95 -0.0714
41 -0.06854
41.05 -0.06125
41.1 -0.05358
41.15 -0.04641
41.2 -0.03755
41.25 -0.03173
41.3 -0.03058
41.35 -0.02848
41.4 -0.03071
41.45 -0.03648
41.5 -0.03784
41.55 -0.0389
41.6 -0.04356
41.65 -0.0487
41.7 -0.0489
41.75 -0.05281
41.8 -0.05303
41.85 -0.04919
41.9 -0.05097
41.95 -0.05523
42 -0.05281
42.05 -0.05025
42.1 -0.04881
42.15 -0.05055
42.2 -0.04641
42.25 -0.04457
42.3 -0.04529
42.35 -0.04144
42.4 -0.04006
42.45 -0.04133
42.5 -0.04623
42.55 -0.04671
42.6 -0.04848
42.65 -0.05275
42.7 -0.05462
42.75 -0.05214
42.8 -0.04812
42.85 -0.041
42.9 -0.03209
42.95 -0.0223
43 -0.01386
43.05 -0.01167
43.1 -0.01206
43.15 -0.01679
43.2 -0.02259
43.25 -0.03138
43.3 -0.03388
43.35 -0.03226
43.4 -0.02966
43.45 -0.02929
43.5 -0.03055
43.55 -0.0272
43.6 -0.02222
43.65 -0.0166
43.7 -0.01705
43.75 -0.01846
43.8 -0.02019
43.85 -0.02535
43.9 -0.02405
43.95 -0.02528
44 -0.02109
44.05 -0.02115
44.1 -0.02123
44.15 -0.01802
44.2 -0.01263
44.25 -0.00843
44.3 -0.00386
44.35 -0.00009
44.4 0.00051
44.45 -0.0016
44.5 -0.004
44.55 -0.00701
44.6 -0.01372
44.65 -0.02137
44.7 -0.02772
44.75 -0.02832
44.8 -0.0313
44.85 -0.03584
44.9 -0.03883
44.95 -0.03824
45 -0.03207
45.05 -0.02669
45.1 -0.02349
45.15 -0.01845
45.2 -0.01398
45.25 -0.01101
45.3 -0.01047
45.35 -0.01271
45.4 -0.01288
45.45 -0.01238
45.5 -0.00783
45.55 -0.00276
45.6 -0.00124
45.65 0.00196
45.7 0.00265
45.75 0.0027
45.8 -0.00149
45.85 -0.00538
45.9 -0.0124
45.95 -0.02158
46 -0.03121
46.05 -0.03116
46.1 -0.03276
46.15 -0.03254
46.2 -0.02891
46.25 -0.02898
46.3 -0.0293
46.35 -0.03241
46.4 -0.0369
46.45 -0.03548
46.5 -0.02812
46.55 -0.02311
46.6 -0.01643
46.65 -0.01624
46.7 -0.0135
46.75 -0.01458
46.8 -0.01399
46.85 -0.01453
46.9 -0.01568
46.95 -0.01583
47 -0.01912
47.05 -0.01952
47.1 -0.01814
47.15 -0.01938
47.2 -0.01873
47.25 -0.01659
47.3 -0.01092
47.35 -0.00635
47.4 -0.00169
47.45 -0.00087
47.5 -0.00275
47.55 -0.00477
47.6 -0.00966
47.65 -0.00837
47.7 -0.00935
47.75 -0.00604
47.8 -0.00531
47.85 -0.00051
47.9 0.00538
47.95 0.00811
48 0.01344
48.05 0.01246
48.1 0.01096
48.15 0.01118
48.2 0.00636
48.25 0.00362
48.3 0.00519
48.35 0.00732
48.4 0.00916
48.45 0.01286
48.5 0.01549
48.55 0.01797
48.6 0.01666
48.65 0.01253
48.7 0.01186
48.75 0.01101
48.8 0.00818
48.85 0.00977
48.9 0.0076
48.95 0.00765
49 0.00798
49.05 0.00728
49.1 0.00818
49.15 0.00904
49.2 0.00852
49.25 0.00382
49.3 -0.00168
49.35 -0.00464
49.4 -0.00716
49.45 -0.01125
49.5 -0.0159
49.55 -0.01417
49.6 -0.01136
49.65 -0.01091
49.7 -0.01123
49.75 -0.01576
49.8 -0.01353
49.85 -0.0106
49.9 -0.01144
49.95 -0.00896
50 -0.00669
50.05 -0.00793
50.1 -0.0111
50.15 -0.00846
50.2 -0.01068
50.25 -0.0141
50.3 -0.01114
50.35 -0.00719
50.4 -0.00846
50.45 -0.00874
50.5 -0.01235
50.55 -0.0137
50.6 -0.01777
50.65 -0.0236
50.7 -0.02765
50.75 -0.02837
50.8 -0.02816
50.85 -0.02753
50.9 -0.02032
50.95 -0.01621
51 -0.01422
51.05 -0.01429
51.1 -0.01207
51.15 -0.00562
51.2 -0.00103
51.25 0.00084
51.3 -0.00215
51.35 -0.00591
51.4 -0.01186
51.45 -0.01072
51.5 -0.0084
51.55 -0.00796
51.6 -0.00584
51.65 -0.00562
51.7 -0.00205
51.75 -0.0004
51.8 -0.00129
51.85 -0.00426
51.9 -0.00993
51.95 -0.01363
52 -0.01678
52.05 -0.01955
52.1 -0.01912
52.15 -0.02186
52.2 -0.02545
52.25 -0.02893
52.3 -0.024
52.35 -0.02216
52.4 -0.01791
52.45 -0.01282
52.5 -0.00777
52.55 -0.00473
52.6 -0.00083
52.65 -0.0005
52.7 0.00045
52.75 0.00344
52.8 0.00663
52.85 0.0113
52.9 0.0173
52.95 0.01632
53 0.01713
53.05 0.01213
53.1 0.01181
53.15 0.00718
53.2 0.00223
53.25 -0.00507
53.3 -0.00982
53.35 -0.0158
53.4 -0.0198
53.45 -0.0247
53.5 -0.02827
53.55 -0.02409
53.6 -0.01753
53.65 -0.01507
53.7 -0.01613
53.75 -0.0152
53.8 -0.01566
53.85 -0.01016
53.9 -0.00311
53.95 -0.0009
54 -0.00109
54.05 -0.00242
54.1 0.00028
54.15 0.00381
54.2 0.00635
54.25 0.00468
54.3 0.00245
54.35 -0.00208
54.4 -0.0079
54.45 -0.00725
54.5 -0.00665
54.55 -0.00903
54.6 -0.01111
54.65 -0.00742
54.7 -0.0035
54.75 -0.00467
54.8 -0.00229
54.85 -0.00398
54.9 -0.00287
54.95 -0.00392
55 -0.00041
55.05 0.00093
55.1 0.00654
55.15 0.01369
55.2 0.01378
55.25 0.01077
55.3 0.00698
55.35 0.00565
55.4 0.005
55.45 0.00766
55.5 0.01296
55.55 0.0156
55.6 0.01614
55.65 0.01905
55.7 0.01491
55.75 0.01387
55.8 0.01224
55.85 0.01058
55.9 0.01048
55.95 0.00557
56 0.00046
56.05 -0.00134
56.1 -0.0035
56.15 -0.00075
56.2 0.00601
56.25 0.01291
56.3 0.02092
56.35 0.02625
56.4 0.02584
56.45 0.02172
56.5 0.0149
56.55 0.0135
56.6 0.01445
56.65 0.01102
56.7 0.0078
56.75 0.007
56.8 0.00513
56.85 0.00439
56.9 0.00728
56.95 0.00454
57 0.00016
57.05 -0.00412
57.1 -0.011
57.15 -0.01526
57.2 -0.01328
57.25 -0.01237
57.3 -0.01375
57.35 -0.01583
57.4 -0.01251
57.45 -0.01051
57.5 -0.00529
57.55 0.00158
57.6 0.01006
57.65 0.01422
57.7 0.01697
57.75 0.01552
57.8 0.01054
57.85 0.00385
57.9 0.0034
57.95 0.00109
58 -0.00445
58.05 -0.00895
58.1 -0.01488
58.15 -0.01804
58.2 -0.02072
58.25 -0.01754
58.3 -0.01016
58.35 -0.00502
58.4 -0.00446
58.45 -0.00019
58.5 0.00364
58.55 0.00457
58.6 0.00583
58.65 0.00317
58.7 -0.00287
58.75 -0.00791
58.8 -0.01214
58.85 -0.00998
58.9 -0.00657
58.95 -0.00264
59 -0.00221
59.05 0.00158
59.1 0.00873
59.15 0.0092
59.2 0.01049
59.25 0.008
59.3 0.00745
59.35 0.0021
59.4 0.00238
59.45 -0.00079
59.5 -0.00407
59.55 -0.00185
59.6 0.00299
59.65 0.00573
59.7 0.00559
59.75 0.001
59.8 0.00023
59.85 0.00034
59.9 0.00291
59.95 0.00412
60 0.00772
60.05 0.0106
60.1 0.01482
60.15 0.01972
60.2 0.02261
60.25 0.02192
60.3 0.02127
60.35 0.01829
60.4 0.01911
60.45 0.01415
60.5 0.01079
60.55 0.01003
60.6 0.00974
60.65 0.00919
60.7 0.00654
60.75 0.00071
60.8 0.00051
60.85 -0.00177
60.9 -0.00785
60.95 -0.01517
61 -0.02178
61.05 -0.02696
61.1 -0.02985
61.15 -0.02888
61.2 -0.02336
61.25 -0.01688
61.3 -0.00886
61.35 -0.00554
61.4 -0.00268
61.45 -0.00417
61.5 -0.00101
61.55 -0.00361
61.6 -0.00816
61.65 -0.00802
61.7 -0.00655
61.75 -0.00737
61.8 -0.00434
61.85 -0.00453
61.9 -0.0004
61.95 0.00346
62 0.00352
62.05 0.00635
62.1 0.00851
62.15 0.01026
62.2 0.00776
62.25 0.00748
62.3 0.00609
62.35 0.00638
62.4 0.00753
62.45 0.00679
62.5 0.00296
62.55 0.00435
62.6 0.00315
62.65 0.00429
62.7 0.00247
62.75 -0.0031
62.8 -0.00848
62.85 -0.00969
62.9 -0.01048
62.95 -0.00857
63 -0.00527
63.05 -0.00661
63.1 -0.00736
63.15 -0.01081
63.2 -0.00866
63.25 -0.00236
63.3 0.0053
63.35 0.0057
63.4 0.00265
63.45 0.00023
63.5 0.00325
63.55 0.00842
63.6 0.01194
63.65 0.01734
63.7 0.01686
63.75 0.01101
63.8 0.01035
63.85 0.0129
63.9 0.01642
63.95 0.02033
64 0.02559
64.05 0.02192
64.1 0.02014
64.15 0.01826
64.2 0.01855
64.25 0.01367
64.3 0.0096
64.35 0.00995
64.4 0.0047
64.45 -0.00306
64.5 -0.00746
64.55 -0.00584
64.6 -0.00381
64.65 -0.00166
64.7 -0.00326
64.75 -0.00031
64.8 0.00003
64.85 0.00223
64.9 0.00369
64.95 0.00456
65 0.00527
65.05 0.00842
65.1 0.00916
65.15 0.00977
65.2 0.01157
65.25 0.01349
65.3 0.01004
65.35 0.00312
65.4 0.00224
65.45 0.00373
65.5 0.00008
65.55 0.0003
65.6 -0.00165
65.65 -0.0009
65.7 0.00018
65.75 -0.00127
65.8 0.00159
65.85 0.00584
65.9 0.00325
65.95 -0.00126
66 -0.00614
66.05 -0.00574
66.1 -0.00274
66.15 -0.00324
66.2 -0.00202
66.25 -0.00344
66.3 -0.00825
66.35 -0.00682
66.4 -0.00952
66.45 -0.00991
66.5 -0.01188
66.55 -0.01052
66.6 -0.01108
66.65 -0.01312
66.7 -0.01196
66.75 -0.00926
66.8 -0.01094
66.85 -0.01417
66.9 -0.01474
66.95 -0.01618
67 -0.01527
67.05 -0.01456
67.1 -0.01773
67.15 -0.01423
67.2 -0.01225
67.25 -0.01314
67.3 -0.01211
67.35 -0.00591
67.4 -0.00514
67.45 -0.00223
67.5 -0.00233
67.55 -0.00323
67.6 -0.00349
67.65 -0.00592
67.7 -0.00803
67.75 -0.00774
67.8 -0.00704
67.85 -0.00419
67.9 -0.00632
67.95 -0.00357
68 0.00092
68.05 0.00134
68.1 0.00209
68.15 0.00384
68.2 0.00509
68.25 0.00234
68.3 -0.00313
68.35 -0.00297
68.4 -0.00226
68.45 0.00219
68.5 0.00235
68.55 -0.00095
68.6 -0.00428
68.65 -0.00834
68.7 -0.00619
68.75 0.00045
68.8 0.00923
68.85 0.01809
68.9 0.02017
68.95 0.01806
69 0.01271
69.05 0.01115
69.1 0.01029
69.15 0.0068
69.2 -0.0009
69.25 -0.00652
69.3 -0.01361
69.35 -0.01421
69.4 -0.01249
69.45 -0.01018
69.5 -0.01263
69.55 -0.0132
69.6 -0.00804
69.65 -0.00474
69.7 -0.00307
69.75 -0.00407
69.8 -0.00902
69.85 -0.01056
69.9 -0.0096
69.95 -0.00552
70 -0.00558
70.05 -0.00278
70.1 0.004
70.15 0.00806
70.2 0.00919
70.25 0.00727
70.3 0.00483
70.35 0.00569
70.4 0.00605
70.45 0.00849
70.5 0.00737
70.55 0.00169
70.6 -0.00212
70.65 -0.00566
70.7 -0.00533
70.75 -0.00412
70.8 -0.0058
70.85 -0.00219
70.9 0.00333
70.95 0.0036
71 0.00402
71.05 0.00438
71.1 0.0017
71.15 0.00304
71.2 0.00048
71.25 0.00048
71.3 0.00464
71.35 0.01106
71.4 0.01473
71.45 0.02021
71.5 0.0183
71.55 0.0192
71.6 0.02138
71.65 0.01894
71.7 0.01083
71.75 0.00194
71.8 -0.00875
71.85 -0.01668
71.9 -0.02172
71.95 -0.01907
72 -0.01748
72.05 -0.01694
72.1 -0.01741
72.15 -0.01817
72.2 -0.01322
72.25 -0.00763
72.3 -0.00522
72.35 -0.00322
72.4 0.00236
72.45 0.00566
72.5 0.01168
72.55 0.01352
72.6 0.00945
72.65 0.00584
72.7 0.00676
72.75 0.00772
72.8 0.01028
72.85 0.01085
72.9 0.00852
72.95 0.0087
73 0.00618
73.05 0.00478
73.1 0.00212
73.15 -0.00055
73.2 -0.00553
73.25 -0.01092
73.3 -0.01202
73.35 -0.00841
73.4 -0.00621
73.45 -0.00401
73.5 0.00162
73.55 0.00901
73.6 0.01244
73.65 0.01416
73.7 0.01597
73.75 0.01475
73.8 0.00809
73.85 0.00607
73.9 0.00123
73.95 -0.00177
74 -0.00045
74.05 -0.00358
74.1 -0.00358
74.15 -0.00529
74.2 -0.00569
74.25 -0.00782
74.3 -0.00576
74.35 -0.00018
74.4 0.0032
74.45 0.00737
74.5 0.00495
74.55 0.00541
74.6 0.00925
74.65 0.00662
74.7 0.00221
74.75 -0.00214
74.8 -0.00359
74.85 -0.00007
74.9 0.00288
74.95 0.00166
75 -0.0034
75.05 -0.0066
75.1 -0.0124
75.15 -0.01571
75.2 -0.01492
75.25 -0.01642
75.3 -0.01417
75.35 -0.00881
75.4 -0.00207
75.45 -0.00113
75.5 -0.00108
75.55 0.00156
75.6 0.00213
75.65 0.00074
75.7 0.00122
75.75 0.00017
75.8 0.00161
75.85 0.00287
75.9 0.00375
75.95 0.00073
76 -0.00613
76.05 -0.0114
76.1 -0.01522
76.15 -0.01544
76.2 -0.01754
76.25 -0.02058
76.3 -0.01632
76.35 -0.01034
76.4 -0.00896
76.45 -0.00616
76.5 0.00034
76.55 0.00265
76.6 0.00742
76.65 0.00606
76.7 0.0027
76.75 0.00461
76.8 0.00808
76.85 0.00958
76.9 0.00533
76.95 -0.00009
77 -0.00203
77.05 -0.0042
77.1 -0.00138
77.15 0.00448
77.2 0.01144
77.25 0.01003
77.3 0.01147
77.35 0.00816
77.4 0.00791
77.45 0.00617
77.5 0.00653
77.55 0.00412
77.6 0.00493
77.65 0.0007
77.7 0.00198
77.75 0.00078
77.8 0.00079
77.85 0.00366
77.9 0.00707
77.95 0.01201
78 0.01562
78.05 0.01468
78.1 0.01572
78.15 0.01422
78.2 0.01374
78.25 0.00797
78.3 0.003
78.35 -0.00154
78.4 -0.00923
78.45 -0.01623
78.5 -0.01898
78.55 -0.0203
78.6 -0.02336
78.65 -0.02379
78.7 -0.01786
78.75 -0.01395
78.8 -0.00905
78.85 -0.00222
78.9 0.00426
78.95 0.00401
79 0.0022
79.05 -0.00112
79.1 -0.0032
79.15 -0.00793
79.2 -0.01193
79.25 -0.01208
79.3 -0.00765
79.35 -0.00438
79.4 0.00017
79.45 0.00223
79.5 0.00289
79.55 0.00371
79.6 0.00038
79.65 -0.00167
79.7 -0.00605
79.75 -0.00706
79.8 -0.00777
79.85 -0.00794
79.9 -0.01197
79.95 -0.01395
80 -0.01018
80.05 -0.01082
80.1 -0.00855
80.15 -0.00794
80.2 -0.00934
80.25 -0.01019
80.3 -0.00998
80.35 -0.00764
80.4 -0.00292
80.45 0.00186
80.5 0.00645
80.55 0.0088
80.6 0.00772
80.65 0.0049
80.7 0.00263
80.75 -0.00255
80.8 -0.00607
80.85 -0.00934
80.9 -0.00655
80.95 -0.00392
81 -0.00454
81.05 -0.00544
81.1 -0.00686
81.15 -0.00466
81.2 -0.00088
81.25 0.00411
81.3 0.00917
81.35 0.01019
81.4 0.01433
81.45 0.01632
81.5 0.01582
81.55 0.01545
81.6 0.01117
81.65 0.01166
81.7 0.00908
81.75 0.00838
81.8 0.00894
81.85 0.00849
81.9 0.00371
81.95 0.00405
82 0.00697
82.05 0.01036
82.1 0.01261
82.15 0.01631
82.2 0.01337
82.25 0.01269
82.3 0.01275
82.35 0.00973
82.4 0.01072
82.45 0.00885
82.5 0.01026
82.55 0.00813
82.6 0.00557
82.65 0.00792
82.7 0.00974
82.75 0.01284
82.8 0.01003
82.85 0.00811
82.9 0.00394
82.95 -0.00149
83 -0.00565
83.05 -0.0037
83.1 0.00128
83.15 0.00845
83.2 0.00921
83.25 0.01235
83.3 0.01615
83.35 0.01935
83.4 0.02203
83.45 0.02317
83.5 0.0236
83.55 0.02526
83.6 0.01889
83.65 0.01055
83.7 0.00759
83.75 0.00373
83.8 -0.00354
83.85 -0.00706
83.9 -0.00594
83.95 -0.00588
84 -0.00728
84.05 -0.00409
84.1 -0.00385
84.15 0.00054
84.2 0.00155
84.25 -0.00054
84.3 -0.00012
84.35 -0.00361
84.4 -0.00508
84.45 -0.00249
84.5 -0.00308
84.55 -0.00287
84.6 -0.00663
84.65 -0.00427
84.7 -0.00675
84.75 -0.0055
84.8 -0.00763
84.85 -0.00414
84.9 -0.00157
84.95 -0.00425
85 -0.01094
85.05 -0.01708
85.1 -0.02335
85.15 -0.02936
85.2 -0.03254
85.25 -0.03429
85.3 -0.0335
85.35 -0.02697
85.4 -0.02063
85.45 -0.01112
85.5 -0.00876
85.55 -0.00747
85.6 -0.00698
85.65 -0.00833
85.7 -0.0071
85.75 -0.01023
85.8 -0.01268
85.85 -0.01302
85.9 -0.01077
85.95 -0.00464
86 -0.00088
86.05 -0.00276
86.1 -0.00356
86.15 -0.00594
86.2 -0.00254
86.25 -0.00279
86.3 -0.00153
86.35 0.00207
86.4 0.00136
86.45 0.00401
86.5 0.00219
86.55 -0.00364
86.6 -0.00658
86.65 -0.00517
86.7 -0.00673
86.75 -0.01112
86.8 -0.01407
86.85 -0.01341
86.9 -0.01546
86.95 -0.01627
87 -0.01891
87.05 -0.01832
87.1 -0.01719
87.15 -0.01929
87.2 -0.02298
87.25 -0.0263
87.3 -0.02939
87.35 -0.02595
87.4 -0.01917
87.45 -0.01158
87.5 -0.0048
87.55 0.00386
87.6 0.00997
87.65 0.00855
87.7 0.00374
87.75 0.00402
87.8 0.00767
87.85 0.009
87.9 0.00684
87.95 0.00333
88 -0.00294
88.05 -0.00453
88.1 -0.00291
88.15 0.00206
88.2 0.00419
88.25 0.00338
88.3 0.00671
88.35 0.00377
88.4 0.00591
88.45 0.00643
88.5 0.00641
88.55 0.00192
88.6 0.00223
88.65 -0.00125
88.7 -0.00551
88.75 -0.00397
88.8 -0.00442
88.85 -0.00468
88.9 -0.00412
88.95 -0.00099
89 -0.00293
89.05 -0.00779
89.1 -0.00787
89.15 -0.00314
89.2 0.00235
89.25 0.00991
89.3 0.01867
89.35 0.01992
89.4 0.02385
89.45 0.02551
89.5 0.02538
89.55 0.02753
89.6 0.02813
89.65 0.02804
89.7 0.02571
89.75 0.02563
89.8 0.02115
89.85 0.01745
89.9 0.01792
89.95 0.0181
90 0.01286
90.05 0.00868
90.1 0.00588
90.15 0.00018
90.2 -0.00228
90.25 -0.00493
90.3 -0.00817
90.35 -0.0102
90.4 -0.00658
90.45 -0.00018
90.5 0.00463
90.55 0.00795
90.6 0.00582
90.65 0.00619
90.7 0.00541
90.75 0.00181
90.8 -0.00332
90.85 -0.00615
90.9 -0.01181
90.95 -0.01204
91 -0.01318
91.05 -0.01437
91.1 -0.01747
91.15 -0.01997
91.2 -0.02175
91.25 -0.02237
91.3 -0.01964
91.35 -0.01217
91.4 -0.00899
91.45 -0.00992
91.5 -0.00958
91.55 -0.00854
91.6 -0.00445
91.65 -0.00245
91.7 -0.00509
91.75 -0.00994
91.8 -0.0168
91.85 -0.02015
91.9 -0.022
91.95 -0.01898
92 -0.01186
92.05 -0.00649
92.1 -0.00411
92.15 -0.00404
92.2 0.00084
92.25 0.0037
92.3 0.00752
92.35 0.00846
92.4 0.00446
92.45 0.00223
92.5 -0.00054
92.55 0.00248
92.6 0.00483
92.65 0.00617
92.7 0.00555
92.75 0.00097
92.8 0.00033
92.85 -0.00065
92.9 -0.00186
92.95 -0.00579
93 -0.01016
93.05 -0.01063
93.1 -0.01353
93.15 -0.01839
93.2 -0.01529
93.25 -0.01526
93.3 -0.01178
93.35 -0.00842
93.4 -0.00831
93.45 -0.00389
93.5 0.00318
93.55 0.01014
93.6 0.01195
93.65 0.01372
93.7 0.01759
93.75 0.01749
93.8 0.01995
93.85 0.01866
93.9 0.01662
93.95 0.00972
94 0.00814
94.05 0.00527
94.1 0.0061
94.15 0.00944
94.2 0.00815
94.25 0.00183
94.3 -0.00512
94.35 -0.00959
94.4 -0.00809
94.45 -0.00401
94.5 -0.00291
94.55 0.00126
94.6 -0.00026
94.65 -0.00023
94.7 -0.00474
94.75 -0.00715
94.8 -0.00543
94.85 0.00019
94.9 0.00809
94.95 0.01003
95 0.00584
95.05 -0.00065
95.1 -0.0061
95.15 -0.00787
95.2 -0.00847
95.25 -0.01262
95.3 -0.01654
95.35 -0.01755
95.4 -0.01729
95.45 -0.01311
95.5 -0.00536
95.55 -0.00116
95.6 0.00107
95.65 -0.00225
95.7 -0.00297
95.75 0.00078
95.8 0.00774
95.85 0.01535
95.9 0.01984
95.95 0.02035
96 0.01633
96.05 0.01393
96.1 0.01542
96.15 0.01759
96.2 0.01763
96.25 0.01567
96.3 0.01389
96.35 0.01239
96.4 0.00954
96.45 0.00615
96.5 0.00667
96.55 0.00413
96.6 0.00556
96.65 0.0064
96.7 0.00428
96.75 0.00324
96.8 0.00276
96.85 -0.00016
96.9 0.0008
96.95 0.00006
97 0.00206
97.05 -0.0003
97.1 -0.00657
97.15 -0.01057
97.2 -0.01276
97.25 -0.01509
97.3 -0.01365
97.35 -0.01322
97.4 -0.01487
97.45 -0.01162
97.5 -0.00816
97.55 -0.00167
97.6 0.00104
97.65 0.00168
97.7 0.00149
97.75 0.00209
97.8 0.0047
97.85 0.00447
97.9 -0.00012
97.95 -0.00079
98 -0.00062
98.05 0.00217
98.1 0.00058
98.15 -0.00366
98.2 -0.00254
98.25 -0.00637
98.3 -0.00368
98.35 -0.00079
98.4 0.003
98.45 0.00217
98.5 0.00029
98.55 0.00215
98.6 -0.00179
98.65 -0.00332
98.7 -0.00415
98.75 -0.00795
98.8 -0.0101
98.85 -0.0115
98.9 -0.01117
98.95 -0.01059
99 -0.00556
99.05 -0.00117
99.1 -0.00004
99.15 0.00085
99.2 0.00243
99.25 0.00789
99.3 0.00738
99.35 0.00745
99.4 0.00252
99.45 -0.00494
99.5 -0.00776
99.55 -0.00984
99.6 -0.00691
99.65 -0.00386
99.7 0.00205
99.75 0.00372
99.8 0.00368
99.85 0.00188
99.9 -0.00231
99.95 -0.00067
