0 0
0.05 0.00548
0.1 0.01116
0.15 0.015
0.2 0.02363
0.25 0.03125
0.3 0.03769
0.35 0.04236
0.4 0.04292
0.45 0.04241
0.5 0.04177
0.55 0.04459
0.6 0.04806
0.65 0.05369
0.7 0.05461
0.75 0.05303
0.8 0.05051
0.85 0.04409
0.9 0.03635
0.95 0.03216
1 0.02646
1.05 0.02182
1.1 0.02362
1.15 0.03049
1.2 0.03168
1.25 0.03114
1.3 0.03616
1.35 0.03736
1.4 0.03641
1.45 0.04069
1.5 0.04463
1.55 0.04657
1.6 0.0435
1.65 0.04361
1.7 0.04433
1.75 0.04792
1.8 0.04675
1.85 0.04227
1.9 0.04188
1.95 0.04187
2 0.04205
2.05 0.03987
2.1 0.04027
2.15 0.03548
2.2 0.03254
2.25 0.02813
2.3 0.02451
2.35 0.02456
2.4 0.02188
2.45 0.01643
2.5 0.01259
2.55 0.01234
2.6 0.01006
2.65 0.01445
2.7 0.01818
2.75 0.02526
2.8 0.02952
2.85 0.03139
2.9 0.03006
2.95 0.03014
3 0.02901
3.05 0.03072
3.1 0.03389
3.15 0.03507
3.2 0.03764
3.25 0.03409
3.3 0.03121
3.35 0.03113
3.4 0.03011
3.45 0.02955
3.5 0.02851
3.55 0.02737
3.6 0.02182
3.65 0.01709
3.7 0.00995
3.75 0.00644
3.8 0.00453
3.85 0.00111
3.9 0.0037
3.95 0.00765
4 0.01265
4.05 0.01937
4.1 0.02211
4.15 0.01964
4.2 0.01904
4.25 0.01834
4.3 0.01997
4.35 0.02105
4.4 0.01883
4.45 0.01055
4.5 0.00078
4.55 -0.01094
4.6 -0.02295
4.65 -0.03771
4.7 -0.0582
4.75 -0.08115
4.8 -0.10469
4.85 -0.12989
4.9 -0.15828
4.95 -0.18964
5 -0.22386
5.05 -0.26518
5.1 -0.3144
5.15 -0.37132
5.2 -0.44049
5.25 -0.51177
5.3 -0.59248
5.35 -0.67532
5.4 -0.76109
5.45 -0.85169
5.5 -0.94955
5.55 -1.0485
5.6 -1.14688
5.65 -1.24777
5.7 -1.35011
5.75 -1.44801
5.8 -1.54062
5.85 -1.63452
5.9 -1.72486
5.95 -1.8149
6 -1.89976
6.05 -1.97714
6.1 -2.04881
6.15 -2.11277
6.2 -2.17754
6.25 -2.23517
6.3 -2.28577
6.35 -2.33756
6.4 -2.38405
6.45 -2.42721
6.5 -2.46123
6.55 -2.48165
6.6 -2.49751
6.65 -2.50379
6.7 -2.49418
6.75 -2.46706
6.8 -2.42831
6.85 -2.37919
6.9 -2.31111
6.95 -2.23092
7 -2.13021
7.05 -2.01403
7.1 -1.8803
7.15 -1.72694
7.2 -1.56373
7.25 -1.38847
7.3 -1.20738
7.35 -1.013
7.4 -0.81103
7.45 -0.60238
7.5 -0.38856
7.55 -0.17957
7.6 0.02664
7.65 0.22617
7.7 0.41588
7.75 0.59812
7.8 0.77349
7.85 0.93962
7.9 1.09729
7.95 1.24627
8 1.38912
8.05 1.51538
8.1 1.62825
8.15 1.72742
8.2 1.81822
8.25 1.90113
8.3 1.97033
8.35 2.02957
8.4 2.08178
8.45 2.1288
8.5 2.16863
8.55 2.20178
8.6 2.22532
8.65 2.24174
8.7 2.24914
8.75 2.25377
8.8 2.25315
8.85 2.24807
8.9 2.24055
8.95 2.22639
9 2.20929
9.05 2.19322
9.1 2.17735
9.15 2.15694
9.2 2.13794
9.25 2.11727
9.3 2.09711
9.35 2.07626
9.4 2.05117
9.45 2.02325
9.5 1.99488
9.55 1.96646
9.6 1.93462
9.65 1.89955
9.7 1.86799
9.75 1.83967
9.8 1.8076
9.85 1.77264
9.9 1.73874
9.95 1.70665
10 1.67503
10.05 1.64351
10.1 1.60424
10.15 1.56144
10.2 1.5174
10.25 1.47605
10.3 1.43424
10.35 1.39005
10.4 1.34436
10.45 1.30009
10.5 1.25281
10.55 1.20564
10.6 1.16182
10.65 1.11717
10.7 1.06901
10.75 1.02424
10.8 0.9765
10.85 0.93145
10.9 0.88212
10.95 0.83281
11 0.78607
11.05 0.74139
11.1 0.6953
11.15 0.64961
11.2 0.60497
11.25 0.56154
11.3 0.51485
11.35 0.4754
11.4 0.43324
11.45 0.39372
11.5 0.35748
11.55 0.3173
11.6 0.28197
11.65 0.2479
11.7 0.215
11.75 0.18367
11.8 0.15377
11.85 0.12202
11.9 0.09479
11.95 0.06419
12 0.0306
12.05 -0.00391
12.1 -0.03141
12.15 -0.05978
12.2 -0.08846
12.25 -0.11245
12.3 -0.12949
12.35 -0.14236
12.4 -0.15779
12.45 -0.17261
12.5 -0.18791
12.55 -0.2028
12.6 -0.22238
12.65 -0.24123
12.7 -0.2555
12.75 -0.27276
12.8 -0.29092
12.85 -0.30239
12.9 -0.3118
12.95 -0.32404
13 -0.33079
13.05 -0.33485
13.1 -0.33678
13.15 -0.33817
13.2 -0.34102
13.25 -0.34543
13.3 -0.34648
13.35 -0.35342
13.4 -0.36006
13.45 -0.36967
13.5 -0.37717
13.55 -0.38527
13.6 -0.38958
13.65 -0.39
13.7 -0.38473
13.75 -0.38449
13.8 -0.38371
13.85 -0.37835
13.9 -0.37404
13.95 -0.36893
14 -0.36266
14.05 -0.3613
14.1 -0.36324
14.15 -0.36289
14.2 -0.36317
14.25 -0.36522
14.3 -0.36189
14.35 -0.35625
14.4 -0.35352
14.45 -0.35013
14.5 -0.3488
14.55 -0.3473
14.6 -0.34438
14.65 -0.33876
14.7 -0.33505
14.75 -0.32701
14.8 -0.32166
14.85 -0.312
14.9 -0.30721
14.95 -0.29962
15 -0.2944
15.05 -0.29168
15.1 -0.28609
15.15 -0.28164
15.2 -0.27931
15.25 -0.2733
15.3 -0.26977
15.35 -0.26473
15.4 -0.25858
15.45 -0.25243
15.5 -0.24879
15.55 -0.24493
15.6 -0.24384
15.65 -0.24289
15.7 -0.24478
15.75 -0.24389
15.8 -0.23932
15.85 -0.2335
15.9 -0.22994
15.95 -0.22578
16 -0.22156
16.05 -0.22104
16.1 -0.22233
16.15 -0.22212
16.2 -0.22244
16.25 -0.22447
16.3 -0.22604
16.35 -0.22607
16.4 -0.22481
16.45 -0.21808
16.5 -0.20759
16.55 -0.20031
16.6 -0.19325
16.65 -0.19068
16.7 -0.18976
16.75 -0.18984
16.8 -0.18329
16.85 -0.17671
16.9 -0.17551
16.95 -0.17567
17 -0.17262
17.05 -0.16797
17.1 -0.15974
17.15 -0.1569
17.2 -0.15004
17.25 -0.14068
17.3 -0.13313
17.35 -0.12618
17.4 -0.11961
17.45 -0.11908
17.5 -0.12062
17.55 -0.1214
17.6 -0.12097
17.65 -0.12562
17.7 -0.13164
17.75 -0.13753
17.8 -0.13575
17.85 -0.13217
17.9 -0.12936
17.95 -0.12758
18 -0.12135
18.05 -0.11211
18.1 -0.10892
18.15 -0.10821
18.2 -0.11117
18.25 -0.10807
18.3 -0.10902
18.35 -0.10691
18.4 -0.1066
18.45 -0.10471
18.5 -0.1045
18.55 -0.10029
18.6 -0.09909
18.65 -0.10159
18.7 -0.10467
18.75 -0.10513
18.8 -0.10719
18.85 -0.11027
18.9 -0.10607
18.95 -0.10505
19 -0.10023
19.05 -0.09545
19.1 -0.09015
19.15 -0.08314
19.2 -0.07677
19.25 -0.06975
19.3 -0.06638
19.35 -0.06774
19.4 -0.06668
19.45 -0.06967
19.5 -0.07176
19.55 -0.07244
19.6 -0.06954
19.65 -0.06509
19.7 -0.05891
19.75 -0.05483
19.8 -0.05037
19.85 -0.05275
19.9 -0.05046
19.95 -0.04722
20 -0.04369
20.05 -0.04506
20.1 -0.0478
20.15 -0.05015
20.2 -0.05645
20.25 -0.05882
20.3 -0.05849
20.35 -0.05829
20.4 -0.05376
20.45 -0.04835
20.5 -0.04762
20.55 -0.04872
20.6 -0.05229
20.65 -0.0587
20.7 -0.06095
20.75 -0.05799
20.8 -0.05436
20.85 -0.05117
20.9 -0.04681
20.95 -0.04096
21 -0.03645
21.05 -0.03307
21.1 -0.03078
21.15 -0.02615
21.2 -0.02099
21.25 -0.02222
21.3 -0.02823
21.35 -0.03242
21.4 -0.03642
21.45 -0.03466
21.5 -0.03778
21.55 -0.03948
21.6 -0.04489
21.65 -0.05016
21.7 -0.05376
21.75 -0.05488
21.8 -0.05539
21.85 -0.05636
21.9 -0.05222
21.95 -0.05149
22 -0.05163
22.05 -0.04916
22.1 -0.05054
22.15 -0.04581
22.2 -0.03743
22.25 -0.02761
22.3 -0.01998
22.35 -0.01214
22.4 -0.01207
22.45 -0.01578
22.5 -0.0146
22.55 -0.01389
22.6 -0.01255
22.65 -0.01737
22.7 -0.02526
22.75 -0.03117
22.8 -0.03255
22.85 -0.03273
22.9 -0.03174
22.95 -0.02982
23 -0.02807
23.05 -0.02864
23.1 -0.02675
23.15 -0.02374
23.2 -0.024
23.25 -0.02708
23.3 -0.02821
23.35 -0.03237
23.4 -0.03214
23.45 -0.0299
23.5 -0.02643
23.55 -0.02176
23.6 -0.02179
23.65 -0.01848
23.7 -0.02075
23.75 -0.01757
23.8 -0.01592
23.85 -0.01405
23.9 -0.0166
23.95 -0.02235
24 -0.02948
24.05 -0.03721
24.1 -0.03969
24.15 -0.0382
24.2 -0.0399
24.25 -0.03916
24.3 -0.03604
24.35 -0.03241
24.4 -0.03274
24.45 -0.0339
24.5 -0.03722
24.55 -0.04055
24.6 -0.04043
24.65 -0.03626
24.7 -0.03333
24.75 -0.02652
24.8 -0.02047
24.85 -0.01832
24.9 -0.01597
24.95 -0.00934
25 -0.00924
25.05 -0.01027
25.1 -0.01008
25.15 -0.01231
25.2 -0.00983
25.25 -0.01034
25.3 -0.01498
25.35 -0.01264
25.4 -0.01192
25.45 -0.01442
25.5 -0.01504
25.55 -0.01265
25.6 -0.00925
25.65 -0.00782
25.7 -0.007
25.75 -0.00932
25.8 -0.01256
25.85 -0.01175
25.9 -0.01449
25.95 -0.01187
26 -0.0072
26.05 -0.00055
26.1 0.00636
26.15 0.0077
26.2 0.00821
26.25 0.00285
26.3 -0.00365
26.35 -0.00869
26.4 -0.012
26.45 -0.01799
26.5 -0.01659
26.55 -0.01444
26.6 -0.0141
26.65 -0.0093
26.7 -0.0019
26.75 0.00313
26.8 0.00476
26.85 0.00423
26.9 0.00234
26.95 -0.00054
27 -0.00194
27.05 -0.00375
27.1 -0.0027
27.15 0.00053
27.2 0.00311
27.25 0.00563
27.3 0.00218
27.35 0.004
27.4 0.00244
27.45 0.0052
27.5 0.01026
27.55 0.0095
27.6 0.01155
27.65 0.01525
27.7 0.01236
27.75 0.01149
27.8 0.01297
27.85 0.00979
27.9 0.00683
27.95 0.00423
28 -0.00194
28.05 -0.00286
28.1 -0.00086
28.15 -0.00204
28.2 -0.00615
28.25 -0.00608
28.3 -0.0059
28.35 -0.00396
28.4 -0.00614
28.45 -0.01115
28.5 -0.01394
28.55 -0.01606
28.6 -0.0206
28.65 -0.01802
28.7 -0.01599
28.75 -0.0154
28.8 -0.01101
28.85 -0.00408
28.9 0.00308
28.95 0.00448
29 0.00179
29.05 -0.00033
29.1 0.00182
29.15 0.00467
29.2 0.0008
29.25 -0.00081
29.3 -0.00186
29.35 -0.00181
29.4 -0.00312
29.45 -0.00395
29.5 -0.00092
29.55 -0.00313
29.6 -0.00867
29.65 -0.01673
29.7 -0.0176
29.75 -0.02307
29.8 -0.02847
29.85 -0.03297
29.9 -0.03416
29.95 -0.03585
30 -0.04067
30.05 -0.04578
30.1 -0.04622
30.15 -0.04607
30.2 -0.0428
30.25 -0.03791
30.3 -0.03119
30.35 -0.02782
30.4 -0.02861
30.45 -0.0255
30.5 -0.02295
30.55 -0.02458
30.6 -0.02732
30.65 -0.03087
30.7 -0.03789
30.75 -0.04001
30.8 -0.03803
30.85 -0.0325
30.9 -0.03011
30.95 -0.03169
31 -0.02836
31.05 -0.02872
31.1 -0.02975
31.15 -0.02804
31.2 -0.02777
31.25 -0.02454
31.3 -0.01897
31.35 -0.01413
31.4 -0.0126
31.45 -0.01299
31.5 -0.0092
31.55 -0.00714
31.6 -0.00658
31.65 -0.00806
31.7 -0.00553
31.75 -0.00649
31.8 -0.00786
31.85 -0.01093
31.9 -0.01035
31.95 -0.01151
32 -0.00981
32.05 -0.00572
32.1 -0.00547
32.15 -0.00695
32.2 -0.00761
32.25 -0.0068
32.3 -0.0083
32.35 -0.00488
32.4 -0.0046
32.45 -0.00326
32.5 -0.00049
32.55 0.00665
32.6 0.01285
32.65 0.01428
32.7 0.01669
32.75 0.02173
32.8 0.02377
32.85 0.02861
32.9 0.0326
32.95 0.03977
33 0.03995
33.05 0.03981
33.1 0.03805
33.15 0.03956
33.2 0.03645
33.25 0.03488
33.3 0.03456
33.35 0.03732
33.4 0.03716
33.45 0.04012
33.5 0.03812
33.55 0.03264
33.6 0.03218
33.65 0.03012
33.7 0.03166
33.75 0.03363
33.8 0.0337
33.85 0.03709
33.9 0.03783
33.95 0.04121
34 0.03968
34.05 0.03467
34.1 0.02964
34.15 0.02338
34.2 0.01534
34.25 0.00862
34.3 0.0019
34.35 -0.0004
34.4 0.00171
34.45 0.00452
34.5 0.00964
34.55 0.01631
34.6 0.01985
34.65 0.01832
34.7 0.01408
34.75 0.01209
34.8 0.01064
34.85 0.01075
34.9 0.01419
34.95 0.01576
35 0.02112
35.05 0.02813
35.1 0.03585
35.15 0.04178
35.2 0.04696
35.25 0.0511
35.3 0.05396
35.35 0.05462
35.4 0.04851
35.45 0.03806
35.5 0.02576
35.55 0.01943
35.6 0.01668
35.65 0.01792
35.7 0.01337
35.75 0.00949
35.8 0.00854
35.85 0.00517
35.9 -0.00175
35.95 -0.01027
36 -0.01441
36.05 -0.01331
36.1 -0.01107
36.15 -0.01212
36.2 -0.01521
36.25 -0.01901
36.3 -0.02316
36.35 -0.02633
36.4 -0.02459
36.45 -0.02303
36.5 -0.02225
36.55 -0.02122
36.6 -0.019
36.65 -0.02089
36.7 -0.02114
36.75 -0.01815
36.8 -0.01799
36.85 -0.01596
36.9 -0.01346
36.95 -0.01556
37 -0.01662
37.05 -0.02088
37.1 -0.02056
37.15 -0.0167
37.2 -0.01062
37.25 -0.00966
37.3 -0.00648
37.35 -0.00519
37.4 -0.00516
37.45 -0.00204
37.5 0.00281
37.55 0.00802
37.6 0.0135
37.65 0.01446
37.7 0.01112
37.75 0.00707
37.8 -0.00051
37.85 -0.00889
37.9 -0.00982
37.95 -0.00896
38 -0.01056
38.05 -0.01147
38.1 -0.01433
38.15 -0.01147
38.2 -0.01145
38.25 -0.01255
38.3 -0.01031
38.35 -0.01267
38.4 -0.01236
38.45 -0.01379
38.5 -0.01373
38.55 -0.01682
38.6 -0.02143
38.65 -0.02275
38.7 -0.01941
38.75 -0.01794
38.8 -0.01776
38.85 -0.0196
38.9 -0.01941
38.95 -0.01685
39 -0.01136
39.05 -0.00465
39.1 0.00028
39.15 0.00534
39.2 0.00662
39.25 0.00969
39.3 0.01459
39.35 0.01654
39.4 0.01493
39.45 0.01501
39.5 0.01779
39.55 0.01567
39.6 0.01603
39.65 0.0187
39.7 0.0209
39.75 0.02077
39.8 0.02219
39.85 0.0176
39.9 0.00865
39.95 0.00182
40 -0.00686
40.05 -0.01591
40.1 -0.01649
40.15 -0.01144
40.2 -0.00454
40.25 0.00219
40.3 0.00882
40.35 0.00931
40.4 0.0068
40.45 0.00097
40.5 -0.00049
40.55 -0.00591
40.6 -0.00967
40.65 -0.0146
40.7 -0.01579
40.75 -0.01803
40.8 -0.01684
40.85 -0.01415
40.9 -0.01595
40.95 -0.01501
41 -0.01237
41.05 -0.00895
41.1 -0.00698
41.15 -0.00748
41.2 -0.00633
41.25 -0.00074
41.3 0.00248
41.35 0.0018
41.4 -0.00177
41.45 -0.00447
41.5 -0.01024
41.55 -0.01287
41.6 -0.00982
41.65 -0.00846
41.7 -0.01151
41.75 -0.01457
41.8 -0.0179
41.85 -0.01681
41.9 -0.01144
41.95 -0.00907
42 -0.00927
42.05 -0.01258
42.1 -0.01806
42.15 -0.02026
42.2 -0.02353
42.25 -0.02247
42.3 -0.01624
42.35 -0.01209
42.4 -0.01086
42.45 -0.00752
42.5 -0.00207
42.55 -0.0029
42.6 -0.00006
42.65 0.00234
42.7 0.00043
42.75 -0.00004
42.8 0.00252
42.85 0.0056
42.9 0.00608
42.95 0.00569
43 0.00881
43.05 0.01236
43.1 0.01444
43.15 0.01331
43.2 0.01238
43.25 0.00973
43.3 0.00379
43.35 0.00075
43.4 -0.00103
43.45 -0.00319
43.5 -0.00696
43.55 -0.01026
43.6 -0.01327
43.65 -0.01796
43.7 -0.01978
43.75 -0.02204
43.8 -0.02591
43.85 -0.02527
43.9 -0.01819
43.95 -0.01429
44 -0.0068
44.05 -0.00519
44.1 -0.00006
44.15 0.00135
44.2 0.00435
44.25 0.00771
44.3 0.01042
44.35 0.01377
44.4 0.01121
44.45 0.01199
44.5 0.01185
44.55 0.01227
44.6 0.01408
44.65 0.01126
44.7 0.01021
44.75 0.01311
44.8 0.01761
44.85 0.02247
44.9 0.02148
44.95 0.01721
45 0.01354
45.05 0.00911
45.1 0.00253
45.15 0.00001
45.2 -0.00135
45.25 -0.00633
45.3 -0.00992
45.35 -0.01431
45.4 -0.01299
45.45 -0.01301
45.5 -0.00906
45.55 -0.00265
45.6 0.00092
45.65 0.00648
45.7 0.00938
45.75 0.0113
45.8 0.00974
45.85 0.00579
45.9 0.0024
45.95 -0.00373
46 -0.01058
46.05 -0.01472
46.1 -0.01294
46.15 -0.00712
46.2 0.0018
46.25 0.00329
46.3 0.00534
46.35 0.00611
46.4 0.00261
46.45 -0.00012
46.5 -0.00073
46.55 -0.00101
46.6 0.00327
46.65 0.00657
46.7 0.00456
46.75 0.00692
46.8 0.01067
46.85 0.01262
46.9 0.01438
46.95 0.01334
47 0.01101
47.05 0.01051
47.1 0.00938
47.15 0.01101
47.2 0.01115
47.25 0.0076
47.3 0.00499
47.35 0.00159
47.4 0.00125
47.45 -0.00198
47.5 -0.00793
47.55 -0.00777
47.6 -0.0101
47.65 -0.00729
47.7 -0.00793
47.75 -0.00428
47.8 0.00202
47.85 0.00441
47.9 0.00706
47.95 0.01087
48 0.01353
48.05 0.01442
48.1 0.01304
48.15 0.00978
48.2 0.00818
48.25 0.01083
48.3 0.01306
48.35 0.01431
48.4 0.01116
48.45 0.01151
48.5 0.00813
48.55 0.00338
48.6 -0.00007
48.65 0.00038
48.7 0.00008
48.75 -0.00489
48.8 -0.00407
48.85 0.00087
48.9 0.00043
48.95 -0.00346
49 -0.00785
49.05 -0.01048
49.1 -0.01134
49.15 -0.00829
49.2 -0.01004
49.25 -0.00649
49.3 -0.00266
49.35 -0.00412
49.4 -0.00281
49.45 -0.0006
49.5 -0.00004
49.55 -0.00114
49.6 -0.00044
49.65 -0.00229
49.7 -0.00665
49.75 -0.00804
49.8 -0.00903
49.85 -0.01361
49.9 -0.0169
49.95 -0.01656
50 -0.01309
50.05 -0.01057
50.1 -0.01122
50.15 -0.0084
50.2 -0.00408
50.25 -0.00498
50.3 -0.00393
50.35 -0.00266
50.4 0.00131
50.45 0.00049
50.5 -0.00103
50.55 -0.00033
50.6 0.00296
50.65 0.0005
50.7 0.00014
50.75 0.00408
50.8 0.00565
50.85 0.00658
50.9 0.00214
50.95 -0.00392
51 -0.0047
51.05 -0.00719
51.1 -0.01238
51.15 -0.01675
51.2 -0.01991
51.25 -0.01717
51.3 -0.01174
51.35 -0.01073
51.4 -0.00459
51.45 0.00377
51.5 0.00604
51.55 0.00603
51.6 0.00854
51.65 0.00756
51.7 0.00894
51.75 0.01286
51.8 0.01503
51.85 0.01294
51.9 0.00716
51.95 0.00534
52 0.00445
52.05 -0.00094
52.1 -0.00621
52.15 -0.01069
52.2 -0.01592
52.25 -0.01409
52.3 -0.01187
52.35 -0.00832
52.4 -0.00696
52.45 -0.00847
52.5 -0.00619
52.55 -0.00205
52.6 0.00469
52.65 0.0097
52.7 0.01096
52.75 0.0123
52.8 0.01554
52.85 0.01202
52.9 0.00705
52.95 -0.00003
53 -0.00838
53.05 -0.01238
53.1 -0.00985
53.15 -0.0056
53.2 0.00101
53.25 0.0019
53.3 -0.00157
53.35 -0.00185
53.4 -0.00102
53.45 -0.00113
53.5 -0.00456
53.55 -0.00887
53.6 -0.01017
53.65 -0.01321
53.7 -0.01825
53.75 -0.01798
53.8 -0.02019
53.85 -0.02032
53.9 -0.01417
53.95 -0.00681
54 0.00053
54.05 0.00284
54.1 0.00793
54.15 0.00729
54.2 0.01086
54.25 0.01673
54.3 0.01798
54.35 0.01476
54.4 0.01015
54.45 0.00295
54.5 -0.00618
54.55 -0.01265
54.6 -0.02033
54.65 -0.02603
54.7 -0.0308
54.75 -0.03131
54.8 -0.03063
54.85 -0.0289
54.9 -0.02543
54.95 -0.02275
55 -0.02078
55.05 -0.02065
55.1 -0.01545
55.15 -0.00776
55.2 -0.00305
55.25 0.00462
55.3 0.00948
55.35 0.01211
55.4 0.01113
55.45 0.01403
55.5 0.0172
55.55 0.01619
55.6 0.01543
55.65 0.01693
55.7 0.01566
55.75 0.01677
55.8 0.01947
55.85 0.01672
55.9 0.01713
55.95 0.01259
56 0.00653
56.05 0.00453
56.1 -0.00023
56.15 -0.00305
56.2 -0.00744
56.25 -0.00586
56.3 -0.00171
56.35 -0.00328
56.4 -0.00619
56.45 -0.01
56.5 -0.01042
56.55 -0.00537
56.6 0.00199
56.65 0.00318
56.7 0.00736
56.75 0.0064
56.8 0.00236
56.85 -0.00379
56.9 -0.00297
56.95 -0.00082
57 0.00312
57.05 0.0052
57.1 0.00439
57.15 0.00107
57.2 -0.00355
57.25 -0.00409
57.3 -0.00242
57.35 0.0002
57.4 0.00177
57.45 0.00634
57.5 0.00847
57.55 0.00493
57.6 0.00361
57.65 0.00065
57.7 -0.0015
57.75 -0.00694
57.8 -0.01188
57.85 -0.01174
57.9 -0.01486
57.95 -0.0167
58 -0.01728
58.05 -0.01339
58.1 -0.00815
58.15 -0.00781
58.2 -0.00254
58.25 0.00436
58.3 0.01271
58.35 0.01786
58.4 0.01925
58.45 0.02208
58.5 0.0183
58.55 0.01566
58.6 0.01084
58.65 0.01103
58.7 0.01019
58.75 0.00738
58.8 0.00506
58.85 0.00399
58.9 0.00259
58.95 0.00211
59 0.00018
59.05 0.00305
59.1 0.00755
59.15 0.0099
59.2 0.00906
59.25 0.00738
59.3 0.00898
59.35 0.00618
59.4 0.001
59.45 -0.00019
59.5 -0.00298
59.55 -0.00046
59.6 -0.00279
59.65 -0.00389
59.7 -0.00279
59.75 -0.00194
59.8 -0.00154
59.85 -0.00011
59.9 0.00082
59.95 0.00404
60 0.00867
60.05 0.01403
60.1 0.0134
60.15 0.00906
60.2 0.00407
60.25 -0.00032
60.3 -0.00751
60.35 -0.00998
60.4 -0.00818
60.45 -0.00632
60.5 -0.00185
60.55 0.00275
60.6 0.00071
60.65 0.00381
60.7 0.00098
60.75 -0.00038
60.8 -0.00031
60.85 -0.0049
60.9 -0.01037
60.95 -0.0164
61 -0.01699
61.05 -0.0141
61.1 -0.01243
61.15 -0.01048
61.2 -0.00699
61.25 -0.00405
61.3 -0.0041
61.35 -0.00811
61.4 -0.01385
61.45 -0.01244
61.5 -0.00603
61.55 -0.0034
61.6 -0.00313
61.65 -0.00097
61.7 0.0029
61.75 0.00236
61.8 -0.00169
61.85 -0.00209
61.9 -0.00205
61.95 0.00235
62 0.00775
62.05 0.0123
62.1 0.01328
62.15 0.01095
62.2 0.0041
62.25 -0.00159
62.3 -0.00603
62.35 -0.00836
62.4 -0.00635
62.45 -0.00155
62.5 0.00093
62.55 0.00363
62.6 0.00042
62.65 -0.0025
62.7 -0.00796
62.75 -0.01355
62.8 -0.0202
62.85 -0.01982
62.9 -0.01726
62.95 -0.01555
63 -0.01261
63.05 -0.00699
63.1 -0.00723
63.15 -0.0046
63.2 -0.00084
63.25 0.00253
63.3 0.00038
63.35 0.00036
63.4 0.00325
63.45 0.00214
63.5 0.00077
63.55 -0.00078
63.6 0.00223
63.65 0.00299
63.7 -0.00024
63.75 -0.00292
63.8 -0.00814
63.85 -0.0121
63.9 -0.0149
63.95 -0.01982
64 -0.02138
64.05 -0.02322
64.1 -0.01781
64.15 -0.01172
64.2 -0.00474
64.25 -0.00353
64.3 -0.00634
64.35 -0.01079
64.4 -0.01111
64.45 -0.0056
64.5 -0.00237
64.55 0.00439
64.6 0.00922
64.65 0.01315
64.7 0.01131
64.75 0.01095
64.8 0.00593
64.85 0.00083
64.9 -0.00453
64.95 -0.01082
65 -0.01622
65.05 -0.01435
65.1 -0.00967
65.15 -0.00224
65.2 0.00345
65.25 0.00452
65.3 0.00779
65.35 0.00858
65.4 0.00746
65.45 0.00422
65.5 0.00347
65.55 0.00326
65.6 0.00432
65.65 0.00379
65.7 0.00163
65.75 -0.0021
65.8 -0.00843
65.85 -0.01511
65.9 -0.0166
65.95 -0.01281
66 -0.01015
66.05 -0.01147
66.1 -0.00966
66.15 -0.00683
66.2 -0.00198
66.25 0.00014
66.3 0.00145
66.35 0.00297
66.4 0.00838
66.45 0.00994
66.5 0.01158
66.55 0.01178
66.6 0.0123
66.65 0.01439
66.7 0.0125
66.75 0.01382
66.8 0.01832
66.85 0.02114
66.9 0.01963
66.95 0.02119
67 0.01791
67.05 0.01406
67.1 0.01413
67.15 0.01606
67.2 0.01415
67.25 0.01086
67.3 0.01121
67.35 0.00774
67.4 0.00256
67.45 0.00332
67.5 0.00098
67.55 -0.00248
67.6 -0.00826
67.65 -0.01074
67.7 -0.01579
67.75 -0.01662
67.8 -0.01285
67.85 -0.01072
67.9 -0.00422
67.95 0.00424
68 0.00836
68.05 0.00774
68.1 0.00225
68.15 -0.00028
68.2 0.00021
68.25 -0.00081
68.3 0.00212
68.35 0.00216
68.4 0.00003
68.45 -0.00036
68.5 0.0035
68.55 0.00266
68.6 0.00616
68.65 0.0122
68.7 0.01178
68.75 0.01331
68.8 0.01127
68.85 0.00485
68.9 -0.00361
68.95 -0.01184
69 -0.01714
69.05 -0.01997
69.1 -0.01681
69.15 -0.01729
69.2 -0.01978
69.25 -0.016
69.3 -0.00804
69.35 -0.00589
69.4 -0.00636
69.45 -0.00767
69.5 -0.0068
69.55 -0.00222
69.6 -0.00142
69.65 -0.00223
69.7 -0.00153
69.75 0.00031
69.8 -0.00251
69.85 -0.00366
69.9 -0.0046
69.95 -0.0066
70 -0.00737
70.05 -0.0061
70.1 -0.00215
70.15 -0.00183
70.2 -0.00537
70.25 -0.00485
70.3 -0.00848
70.35 -0.00854
70.4 -0.00994
70.45 -0.01218
70.5 -0.00919
70.55 -0.00635
70.6 -0.00719
70.65 -0.00256
70.7 0.00392
70.75 0.00979
70.8 0.00899
70.85 0.01225
70.9 0.01526
70.95 0.01755
71 0.02132
71.05 0.02512
71.1 0.02161
71.15 0.01963
71.2 0.0209
71.25 0.02218
71.3 0.02439
71.35 0.02059
71.4 0.01689
71.45 0.01422
71.5 0.0088
71.55 0.00865
71.6 0.00423
71.65 0.00477
71.7 0.00573
71.75 0.00842
71.8 0.00968
71.85 0.01384
71.9 0.01696
71.95 0.01376
72 0.01422
72.05 0.01307
72.1 0.00682
72.15 0.00025
72.2 -0.00823
72.25 -0.0122
72.3 -0.01053
72.35 -0.01063
72.4 -0.01357
72.45 -0.01912
72.5 -0.01786
72.55 -0.01302
72.6 -0.01315
72.65 -0.01325
72.7 -0.01178
72.75 -0.01402
72.8 -0.01501
72.85 -0.01557
72.9 -0.01177
72.95 -0.01212
73 -0.01329
73.05 -0.01082
73.1 -0.00652
73.15 0.00024
73.2 0.00895
73.25 0.00913
73.3 0.00449
73.35 -0.00245
73.4 -0.00613
73.45 -0.00502
73.5 -0.00305
73.55 -0.00452
73.6 -0.00344
73.65 0.00017
73.7 0.0025
73.75 0.00544
73.8 0.00288
73.85 0.00274
73.9 0.00042
73.95 -0.00036
74 -0.00432
74.05 -0.00464
74.1 -0.00859
74.15 -0.0102
74.2 -0.00828
74.25 -0.00408
74.3 0.0017
74.35 0.00947
74.4 0.01138
74.45 0.01169
74.5 0.01146
74.55 0.00906
74.6 0.00805
74.65 0.00454
74.7 -0.00087
74.75 -0.00303
74.8 0.00024
74.85 0.00095
74.9 0.00326
74.95 0.00124
75 -0.00222
75.05 -0.00691
75.1 -0.00551
75.15 -0.0013
75.2 0.00015
75.25 0.00132
75.3 0.00653
75.35 0.0061
75.4 0.0012
75.45 -0.00517
75.5 -0.00808
75.55 -0.00579
75.6 -0.00502
75.65 -0.00386
75.7 -0.00024
75.75 -0.00136
75.8 -0.00605
75.85 -0.0102
75.9 -0.01229
75.95 -0.01411
76 -0.01827
76.05 -0.02109
76.1 -0.01681
76.15 -0.01671
76.2 -0.01489
76.25 -0.00911
76.3 -0.00666
76.35 -0.00444
76.4 -0.00288
76.45 -0.00255
76.5 0.00045
76.55 -0.00144
76.6 -0.00626
76.65 -0.01274
76.7 -0.01389
76.75 -0.0168
76.8 -0.01908
76.85 -0.01452
76.9 -0.00835
76.95 -0.00321
77 0.00416
77.05 0.0046
77.1 0.00153
77.15 0.00112
77.2 0.00016
77.25 -0.00111
77.3 -0.00025
77.35 -0.00135
77.4 -0.00446
77.45 -0.01002
77.5 -0.01014
77.55 -0.00637
77.6 -0.00692
77.65 -0.00278
77.7 0.00151
77.75 0.00781
77.8 0.00706
77.85 0.00457
77.9 0.00723
77.95 0.00853
78 0.01038
78.05 0.01257
78.1 0.01609
78.15 0.02049
78.2 0.0249
78.25 0.02621
78.3 0.02902
78.35 0.02994
78.4 0.02782
78.45 0.02457
78.5 0.02277
78.55 0.02211
78.6 0.02019
78.65 0.01357
78.7 0.00687
78.75 -0.00189
78.8 -0.01148
78.85 -0.01689
78.9 -0.01654
78.95 -0.01689
79 -0.01844
79.05 -0.01942
79.1 -0.02181
79.15 -0.02141
79.2 -0.0208
79.25 -0.0198
79.3 -0.02019
79.35 -0.01732
79.4 -0.01685
79.45 -0.01899
79.5 -0.01851
79.55 -0.01462
79.6 -0.01167
79.65 -0.00865
79.7 -0.00164
79.75 0.00092
79.8 0.00392
79.85 0.00926
79.9 0.00908
79.95 0.00417
80 -0.00092
80.05 0.00017
80.1 -0.0021
80.15 -0.00499
80.2 -0.00495
80.25 -0.00168
80.3 0.00342
80.35 0.00208
80.4 0.00486
80.45 0.00453
80.5 0.00383
80.55 0.00493
80.6 0.00423
80.65 0.00242
80.7 0.00188
80.75 0.00135
80.8 0.00105
80.85 -0.00026
80.9 0.0022
80.95 0.00176
81 -0.00256
81.05 -0.00341
81.1 -0.00638
81.15 -0.00533
81.2 -0.00795
81.25 -0.00875
81.3 -0.00411
81.35 -0.00507
81.4 -0.00436
81.45 -0.00716
81.5 -0.01198
81.55 -0.0113
81.6 -0.01261
81.65 -0.00854
81.7 -0.00138
81.75 0.00402
81.8 0.00288
81.85 0.00146
81.9 0.00282
81.95 -0.00034
82 -0.00015
82.05 -0.0032
82.1 -0.00748
82.15 -0.00473
82.2 -0.00064
82.25 0.00306
82.3 0.00735
82.35 0.01418
82.4 0.01716
82.45 0.01905
82.5 0.02248
82.55 0.02657
82.6 0.02304
82.65 0.02001
82.7 0.01675
82.75 0.01414
82.8 0.01519
82.85 0.01663
82.9 0.02047
82.95 0.01915
83 0.02101
83.05 0.01764
83.1 0.0136
83.15 0.00812
83.2 0.00536
83.25 0.00402
83.3 0.00007
83.35 -0.00141
83.4 0.00031
83.45 0.00337
83.5 0.00951
83.55 0.00829
83.6 0.0064
83.65 0.0052
83.7 0.00552
83.75 0.00851
83.8 0.01028
83.85 0.00989
83.9 0.00917
83.95 0.00574
84 0.00728
84.05 0.01165
84.1 0.01756
84.15 0.01565
84.2 0.01302
84.25 0.00964
84.3 0.00765
84.35 0.00612
84.4 0.00312
84.45 0.00332
84.5 0.00002
84.55 -0.0046
84.6 -0.00586
84.65 -0.00512
84.7 -0.00483
84.75 -0.0046
84.8 -0.00278
84.85 -0.00368
84.9 -0.00544
84.95 -0.00802
85 -0.00974
85.05 -0.01073
85.1 -0.00667
85.15 -0.0023
85.2 -0.00082
85.25 -0.00069
85.3 -0.00166
85.35 -0.00373
85.4 -0.00947
85.45 -0.01267
85.5 -0.01573
85.55 -0.01536
85.6 -0.01343
85.65 -0.01236
85.7 -0.01407
85.75 -0.01261
85.8 -0.01098
85.85 -0.0123
85.9 -0.00846
85.95 -0.00351
86 0.00393
86.05 0.00779
86.1 0.00526
86.15 0.00045
86.2 -0.00038
86.25 0.00229
86.3 -0.00035
86.35 -0.00656
86.4 -0.01372
86.45 -0.01337
86.5 -0.01308
86.55 -0.01262
86.6 -0.01246
86.65 -0.01282
86.7 -0.01022
86.75 -0.00933
86.8 -0.01103
86.85 -0.00832
86.9 -0.0082
86.95 -0.00787
87 -0.00572
87.05 -0.00366
87.1 -0.00348
87.15 -0.00377
87.2 -0.00199
87.25 0.00017
87.3 0.00112
87.35 0.00151
87.4 0.00437
87.45 0.00649
87.5 0.01063
87.55 0.00905
87.6 0.00334
87.65 -0.00276
87.7 -0.00773
87.75 -0.00945
87.8 -0.01126
87.85 -0.0146
87.9 -0.01343
87.95 -0.01277
88 -0.01073
88.05 -0.01054
88.1 -0.01191
88.15 -0.01523
88.2 -0.0161
88.25 -0.01659
88.3 -0.01335
88.35 -0.01099
88.4 -0.00543
88.45 -0.00178
88.5 0.00007
88.55 0.00528
88.6 0.00666
88.65 0.00426
88.7 0.00429
88.75 0.0061
88.8 0.00285
88.85 0.00132
88.9 0.00127
88.95 0.00171
89 0.00127
89.05 -0.00065
89.1 -0.00333
89.15 -0.00919
89.2 -0.01281
89.25 -0.01326
89.3 -0.00779
89.35 -0.00393
89.4 0.00136
89.45 0.00896
89.5 0.01175
89.55 0.01582
89.6 0.01609
89.65 0.01314
89.7 0.00678
89.75 0.00521
89.8 0.00076
89.85 -0.00618
89.9 -0.00946
89.95 -0.01052
90 -0.01232
90.05 -0.0136
90.1 -0.01215
90.15 -0.01163
90.2 -0.00603
90.25 0.00021
90.3 0.00423
90.35 0.01048
90.4 0.0138
90.45 0.01526
90.5 0.01949
90.55 0.01966
90.6 0.01371
90.65 0.01252
90.7 0.01369
90.75 0.01231
90.8 0.00823
90.85 0.00727
90.9 0.00688
90.95 0.00366
91 0.00503
91.05 0.00118
91.1 -0.00087
91.15 0.00193
91.2 0.00799
91.25 0.01156
91.3 0.0099
91.35 0.00423
91.4 0.0004
91.45 -0.00298
91.5 -0.00163
91.55 -0.00258
91.6 -0.00188
91.65 0.00035
91.7 0.00137
91.75 0.00112
91.8 -0.00049
91.85 0.00239
91.9 0.00782
91.95 0.013
92 0.01676
92.05 0.0143
92.1 0.01543
92.15 0.01683
92.2 0.01818
92.25 0.02135
92.3 0.01848
92.35 0.01647
92.4 0.01208
92.45 0.01002
92.5 0.00969
92.55 0.0095
92.6 0.01214
92.65 0.01078
92.7 0.00478
92.75 0.00434
92.8 0.00199
92.85 -0.00401
92.9 -0.0094
92.95 -0.01695
93 -0.01821
93.05 -0.01631
93.1 -0.01256
93.15 -0.01172
93.2 -0.01101
93.25 -0.00735
93.3 -0.00685
93.35 -0.00514
93.4 -0.00216
93.45 -0.00047
93.5 -0.00231
93.55 -0.0031
93.6 -0.00518
93.65 -0.00322
93.7 -0.00473
93.75 -0.00749
93.8 -0.01115
93.85 -0.00957
93.9 -0.00746
93.95 -0.00104
94 0.00497
94.05 0.00935
94.1 0.00742
94.15 0.00735
94.2 0.00197
94.25 -0.00056
94.3 -0.00225
94.35 -0.001
94.4 0.00292
94.45 0.00408
94.5 0.00257
94.55 0.00122
94.6 0.00408
94.65 0.00579
94.7 0.0099
94.75 0.01499
94.8 0.01544
94.85 0.01486
94.9 0.01565
94.95 0.01751
95 0.01935
95.05 0.01807
95.1 0.01084
95.15 0.00523
95.2 0.00241
95.25 0.00038
95.3 0.00021
95.35 0.00382
95.4 0.00254
95.45 0.00169
95.5 -0.0007
95.55 -0.00634
95.6 -0.01388
95.65 -0.0146
95.7 -0.01766
95.75 -0.01847
95.8 -0.01661
95.85 -0.01047
95.9 -0.00878
95.95 -0.00301
96 -0.00195
96.05 0.00209
96.1 0.00105
96.15 -0.00245
96.2 -0.00168
96.25 0.00119
96.3 -0.00027
96.35 -0.00491
96.4 -0.00352
96.45 -0.0053
96.5 -0.0058
96.55 -0.00556
96.6 -0.00084
96.65 0.00657
96.7 0.01494
96.75 0.02077
96.8 0.01844
96.85 0.01627
96.9 0.01202
96.95 0.00443
97 -0.00004
97.05 -0.00124
97.1 0.00113
97.15 0.0001
97.2 -0.00475
97.25 -0.01021
97.3 -0.01067
97.35 -0.00995
97.4 -0.0063
97.45 -0.00284
97.5 -0.00025
97.55 -0.00154
97.6 0.00147
97.65 -0.00029
97.7 0.00044
97.75 0.00078
97.8 -0.00211
97.85 -0.00248
97.9 0.00009
97.95 -0.00317
98 -0.00272
98.05 0.00081
98.1 -0.00019
98.15 -0.00468
98.2 -0.01052
98.25 -0.01407
98.3 -0.01448
98.35 -0.01077
98.4 -0.00356
98.45 -0.00335
98.5 -0.00105
98.55 -0.00102
98.6 0.00185
98.65 0.00663
98.7 0.01099
98.75 0.01484
98.8 0.01413
98.85 0.01279
98.9 0.01091
98.95 0.01231
99 0.01443
99.05 0.01164
99.1 0.00762
99.15 0.00703
99.2 0.00698
99.25 0.00166
99.3 -0.00125
99.35 -0.00219
99.4 -0.00565
99.45 -0.0106
99.5 -0.01752
99.55 -0.02055
99.6 -0.01844
99.65 -0.01278
99.7 -0.01129
99.75 -0.01099
99.8 -0.00558
99.85 -0.0015
99.9 -0.00137
99.95 -0.0021
