0 0
0.05 0.00672
0.1 0.01687
0.15 0.02946
0.2 0.04158
0.25 0.04902
0.3 0.05625
0.35 0.06482
0.4 0.07116
0.45 0.07824
0.5 0.07965
0.55 0.07755
0.6 0.07155
0.65 0.06985
0.7 0.06874
0.75 0.06927
0.8 0.07097
0.85 0.06606
0.9 0.06419
0.95 0.06022
1 0.05857
1.05 0.05477
1.1 0.04767
1.15 0.04237
1.2 0.03803
1.25 0.03379
1.3 0.0295
1.35 0.02756
1.4 0.02802
1.45 0.03091
1.5 0.03012
1.55 0.02755
1.6 0.02641
1.65 0.02315
1.7 0.01819
1.75 0.01308
1.8 0.01195
1.85 0.01141
1.9 0.01574
1.95 0.02041
2 0.02805
2.05 0.037
2.1 0.04552
2.15 0.04987
2.2 0.04704
2.25 0.0404
2.3 0.03209
2.35 0.02772
2.4 0.02291
2.45 0.01805
2.5 0.01758
2.55 0.01596
2.6 0.01885
2.65 0.02168
2.7 0.02462
2.75 0.02418
2.8 0.02756
2.85 0.02964
2.9 0.03013
2.95 0.03375
3 0.03876
3.05 0.04094
3.1 0.03861
3.15 0.0389
3.2 0.03921
3.25 0.03641
3.3 0.03759
3.35 0.03995
3.4 0.04074
3.45 0.03683
3.5 0.03427
3.55 0.03127
3.6 0.0239
3.65 0.02264
3.7 0.01816
3.75 0.01465
3.8 0.00822
3.85 0.00004
3.9 -0.00072
3.95 0.00324
4 0.01008
4.05 0.01636
4.1 0.01909
4.15 0.02066
4.2 0.02086
4.25 0.01639
4.3 0.00858
4.35 0.00137
4.4 -0.0007
4.45 -0.00169
4.5 -0.00781
4.55 -0.01287
4.6 -0.02461
4.65 -0.03857
4.7 -0.05286
4.75 -0.06868
4.8 -0.08878
4.85 -0.11435
4.9 -0.13792
4.95 -0.1627
5 -0.19805
5.05 -0.23742
5.1 -0.27851
5.15 -0.32482
5.2 -0.37587
5.25 -0.42609
5.3 -0.48226
5.35 -0.53693
5.4 -0.59557
5.45 -0.65695
5.5 -0.71921
5.55 -0.78042
5.6 -0.84487
5.65 -0.90202
5.7 -0.95186
5.75 -1.00082
5.8 -1.04373
5.85 -1.08003
5.9 -1.10695
5.95 -1.12512
6 -1.13225
6.05 -1.13777
6.1 -1.13312
6.15 -1.12482
6.2 -1.11125
6.25 -1.08837
6.3 -1.06044
6.35 -1.02861
6.4 -0.9951
6.45 -0.95511
6.5 -0.91045
6.55 -0.86548
6.6 -0.81689
6.65 -0.76731
6.7 -0.71492
6.75 -0.6597
6.8 -0.60042
6.85 -0.53807
6.9 -0.46729
6.95 -0.39238
7 -0.31092
7.05 -0.22225
7.1 -0.1324
7.15 -0.04251
7.2 0.05477
7.25 0.15233
7.3 0.24406
7.35 0.33961
7.4 0.43508
7.45 0.52928
7.5 0.61552
7.55 0.69855
7.6 0.77649
7.65 0.85117
7.7 0.91513
7.75 0.97298
7.8 1.02298
7.85 1.06305
7.9 1.09036
7.95 1.11643
8 1.13785
8.05 1.14981
8.1 1.15612
8.15 1.15634
8.2 1.15427
8.25 1.14808
8.3 1.13358
8.35 1.11175
8.4 1.08906
8.45 1.06365
8.5 1.04223
8.55 1.02032
8.6 0.99171
8.65 0.96066
8.7 0.9309
8.75 0.90071
8.8 0.87223
8.85 0.84089
8.9 0.80804
8.95 0.77599
9 0.74945
9.05 0.72274
9.1 0.69581
9.15 0.66625
9.2 0.6386
9.25 0.61519
9.3 0.59582
9.35 0.57835
9.4 0.56109
9.45 0.5466
9.5 0.53184
9.55 0.50946
9.6 0.48338
9.65 0.46061
9.7 0.43539
9.75 0.41479
9.8 0.39594
9.85 0.38349
9.9 0.3666
9.95 0.35255
10 0.3369
10.05 0.3209
10.1 0.30723
10.15 0.29441
10.2 0.28517
10.25 0.27789
10.3 0.26737
10.35 0.2614
10.4 0.25401
10.45 0.24892
10.5 0.24093
10.55 0.23144
10.6 0.22018
10.65 0.20828
10.7 0.19042
10.75 0.17034
10.8 0.15315
10.85 0.13526
10.9 0.1187
10.95 0.1009
11 0.08754
11.05 0.07806
11.1 0.06551
11.15 0.05552
11.2 0.04505
11.25 0.03279
11.3 0.01793
11.35 0.00692
11.4 0.00114
11.45 -0.00159
11.5 -0.00939
11.55 -0.01937
11.6 -0.02738
11.65 -0.03727
11.7 -0.04665
11.75 -0.05255
11.8 -0.06094
11.85 -0.06937
11.9 -0.08268
11.95 -0.09409
12 -0.10272
12.05 -0.10573
12.1 -0.11255
12.15 -0.11946
12.2 -0.12839
12.25 -0.13618
12.3 -0.14521
12.35 -0.14835
12.4 -0.14892
12.45 -0.1451
12.5 -0.14419
12.55 -0.14604
12.6 -0.15102
12.65 -0.15142
12.7 -0.14733
12.75 -0.1482
12.8 -0.14764
12.85 -0.14713
12.9 -0.14839
12.95 -0.1457
13 -0.14455
13.05 -0.14306
13.1 -0.13992
13.15 -0.14033
13.2 -0.14424
13.25 -0.14863
13.3 -0.14934
13.35 -0.14976
13.4 -0.14434
13.45 -0.13889
13.5 -0.13113
13.55 -0.12527
13.6 -0.11989
13.65 -0.11543
13.7 -0.11286
13.75 -0.11043
13.8 -0.10767
13.85 -0.10889
13.9 -0.11145
13.95 -0.10872
14 -0.10689
14.05 -0.10938
14.1 -0.11256
14.15 -0.11541
14.2 -0.12022
14.25 -0.12038
14.3 -0.11634
14.35 -0.1136
14.4 -0.10671
14.45 -0.09951
14.5 -0.0903
14.55 -0.08883
14.6 -0.09017
14.65 -0.08866
14.7 -0.09191
14.75 -0.09518
14.8 -0.0921
14.85 -0.08645
14.9 -0.0843
14.95 -0.08579
15 -0.08307
15.05 -0.07696
15.1 -0.07458
15.15 -0.07692
15.2 -0.07851
15.25 -0.0802
15.3 -0.08455
15.35 -0.08181
15.4 -0.07596
15.45 -0.0674
15.5 -0.064
15.55 -0.05993
15.6 -0.05679
15.65 -0.05532
15.7 -0.05348
15.75 -0.05092
15.8 -0.04602
15.85 -0.04221
15.9 -0.04153
15.95 -0.04145
16 -0.04718
16.05 -0.04756
16.1 -0.05084
16.15 -0.05128
16.2 -0.05628
16.25 -0.05565
16.3 -0.05469
16.35 -0.05555
16.4 -0.05184
16.45 -0.05434
16.5 -0.05553
16.55 -0.05906
16.6 -0.0606
16.65 -0.06558
16.7 -0.06839
16.75 -0.07244
16.8 -0.0695
16.85 -0.06781
16.9 -0.06637
16.95 -0.06221
17 -0.06277
17.05 -0.06092
17.1 -0.05414
17.15 -0.05308
17.2 -0.05368
17.25 -0.05707
17.3 -0.05688
17.35 -0.05273
17.4 -0.0535
17.45 -0.05264
17.5 -0.05327
17.55 -0.05503
17.6 -0.05173
17.65 -0.04702
17.7 -0.04299
17.75 -0.03719
17.8 -0.02992
17.85 -0.0225
17.9 -0.02156
17.95 -0.02165
18 -0.02551
18.05 -0.02612
18.1 -0.02353
18.15 -0.02218
18.2 -0.01996
18.25 -0.02271
18.3 -0.02467
18.35 -0.03076
18.4 -0.03495
18.45 -0.04205
18.5 -0.04453
18.55 -0.04827
18.6 -0.05291
18.65 -0.05832
18.7 -0.06111
18.75 -0.06154
18.8 -0.05681
18.85 -0.04794
18.9 -0.04434
18.95 -0.03761
19 -0.03397
19.05 -0.03123
19.1 -0.03353
19.15 -0.03889
19.2 -0.04359
19.25 -0.04678
19.3 -0.04721
19.35 -0.04069
19.4 -0.03277
19.45 -0.02513
19.5 -0.02401
19.55 -0.02299
19.6 -0.01945
19.65 -0.02137
19.7 -0.02225
19.75 -0.0246
19.8 -0.02195
19.85 -0.01586
19.9 -0.01576
19.95 -0.01693
20 -0.01409
20.05 -0.0157
20.1 -0.01685
20.15 -0.015
20.2 -0.01562
20.25 -0.01596
20.3 -0.01743
20.35 -0.01601
20.4 -0.01164
20.45 -0.0097
20.5 -0.01139
20.55 -0.01575
20.6 -0.02134
20.65 -0.02235
20.7 -0.02484
20.75 -0.02814
20.8 -0.02736
20.85 -0.02508
20.9 -0.02077
20.95 -0.01768
21 -0.01638
21.05 -0.01981
21.1 -0.01919
21.15 -0.01958
21.2 -0.01461
21.25 -0.01201
21.3 -0.01473
21.35 -0.01144
21.4 -0.01087
21.45 -0.01251
21.5 -0.01407
21.55 -0.01315
21.6 -0.00856
21.65 -0.00106
21.7 0.00429
21.75 0.0093
21.8 0.01166
21.85 0.00799
21.9 0.00915
21.95 0.01179
22 0.01106
22.05 0.00457
22.1 0.00054
22.15 -0.00024
22.2 -0.00153
22.25 -0.00673
22.3 -0.00825
22.35 -0.00968
22.4 -0.00975
22.45 -0.01082
22.5 -0.00798
22.55 -0.00843
22.6 -0.01329
22.65 -0.01759
22.7 -0.01552
22.75 -0.0183
22.8 -0.02133
22.85 -0.02522
22.9 -0.02649
22.95 -0.02283
23 -0.02207
23.05 -0.01984
23.1 -0.01997
23.15 -0.02113
23.2 -0.0243
23.25 -0.02003
23.3 -0.0162
23.35 -0.01072
23.4 -0.0035
23.45 -0.0034
23.5 -0.00508
23.55 -0.00333
23.6 -0.00338
23.65 -0.00396
23.7 -0.00877
23.75 -0.01335
23.8 -0.01284
23.85 -0.01094
23.9 -0.00796
23.95 -0.00226
24 0.003
24.05 0.00508
24.1 0.001
24.15 -0.00455
24.2 -0.0095
24.25 -0.01299
24.3 -0.01469
24.35 -0.01302
24.4 -0.0138
24.45 -0.0147
24.5 -0.01366
24.55 -0.01164
24.6 -0.01369
24.65 -0.01844
24.7 -0.02051
24.75 -0.02317
24.8 -0.02097
24.85 -0.02194
24.9 -0.02135
24.95 -0.01708
25 -0.01
25.05 -0.00552
25.1 -0.00608
25.15 -0.0104
25.2 -0.01351
25.25 -0.01593
25.3 -0.01777
25.35 -0.0197
25.4 -0.0173
25.45 -0.01476
25.5 -0.00834
25.55 -0.00329
25.6 -0.00157
25.65 0.00132
25.7 0.00279
25.75 -0.00096
25.8 -0.0003
25.85 -0.00247
25.9 -0.00505
25.95 -0.00527
26 -0.00421
26.05 -0.00267
26.1 -0.00306
26.15 -0.00623
26.2 -0.01057
26.25 -0.01404
26.3 -0.01855
26.35 -0.02333
26.4 -0.02513
26.45 -0.02069
26.5 -0.01917
26.55 -0.01751
26.6 -0.01093
26.65 -0.00062
26.7 0.0071
26.75 0.00743
26.8 0.00856
26.85 0.01327
26.9 0.01632
26.95 0.02138
27 0.02683
27.05 0.02601
27.1 0.02434
27.15 0.0189
27.2 0.00998
27.25 0.00163
27.3 -0.00291
27.35 -0.00511
27.4 -0.00954
27.45 -0.00814
27.5 -0.01226
27.55 -0.02012
27.6 -0.02278
27.65 -0.02935
27.7 -0.03149
27.75 -0.03596
27.8 -0.03812
27.85 -0.04262
27.9 -0.04901
27.95 -0.05542
28 -0.06269
28.05 -0.06941
28.1 -0.08469
28.15 -0.10184
28.2 -0.12431
28.25 -0.14608
28.3 -0.17166
28.35 -0.1974
28.4 -0.23186
28.45 -0.26416
28.5 -0.29954
28.55 -0.33727
28.6 -0.37593
28.65 -0.41664
28.7 -0.46755
28.75 -0.52171
28.8 -0.58429
28.85 -0.65076
28.9 -0.71679
28.95 -0.77894
29 -0.84017
29.05 -0.90337
29.1 -0.96873
29.15 -1.03234
29.2 -1.09289
29.25 -1.15313
29.3 -1.21758
29.35 -1.28039
29.4 -1.33876
29.45 -1.39176
29.5 -1.44167
29.55 -1.49162
29.6 -1.53573
29.65 -1.57826
29.7 -1.61047
29.75 -1.63965
29.8 -1.6585
29.85 -1.67312
29.9 -1.67868
29.95 -1.6694
30 -1.6484
30.05 -1.61842
30.1 -1.57825
30.15 -1.52761
30.2 -1.46877
30.25 -1.3993
30.3 -1.32686
30.35 -1.24159
30.4 -1.15176
30.45 -1.05207
30.5 -0.94404
30.55 -0.83355
30.6 -0.71775
30.65 -0.59598
30.7 -0.47479
30.75 -0.35433
30.8 -0.23363
30.85 -0.11425
30.9 0.00403
30.95 0.1205
31 0.23864
31.05 0.35043
31.1 0.45826
31.15 0.56599
31.2 0.66789
31.25 0.76246
31.3 0.84972
31.35 0.92392
31.4 0.99536
31.45 1.06121
31.5 1.11567
31.55 1.16427
31.6 1.20697
31.65 1.24929
31.7 1.28316
31.75 1.31363
31.8 1.3381
31.85 1.35786
31.9 1.37591
31.95 1.38705
32 1.39382
32.05 1.39886
32.1 1.40144
32.15 1.40761
32.2 1.41718
32.25 1.42834
32.3 1.44035
32.35 1.45167
32.4 1.45419
32.45 1.45243
32.5 1.44916
32.55 1.44108
32.6 1.43425
32.65 1.4209
32.7 1.40784
32.75 1.39658
32.8 1.38635
32.85 1.36786
32.9 1.35072
32.95 1.33359
33 1.30978
33.05 1.28934
33.1 1.26615
33.15 1.24121
33.2 1.20978
33.25 1.17808
33.3 1.14435
33.35 1.11023
33.4 1.0734
33.45 1.04148
33.5 1.0121
33.55 0.98475
33.6 0.9596
33.65 0.92696
33.7 0.89375
33.75 0.85927
33.8 0.82325
33.85 0.78928
33.9 0.75132
33.95 0.71733
34 0.68646
34.05 0.65346
34.1 0.62225
34.15 0.58952
34.2 0.55358
34.25 0.52506
34.3 0.49936
34.35 0.4695
34.4 0.4379
34.45 0.4089
34.5 0.38225
34.55 0.36008
34.6 0.33408
34.65 0.31192
34.7 0.28687
34.75 0.25614
34.8 0.22615
34.85 0.19349
34.9 0.16486
34.95 0.14316
35 0.11843
35.05 0.1001
35.1 0.08278
35.15 0.06885
35.2 0.05441
35.25 0.03752
35.3 0.01508
35.35 -0.00777
35.4 -0.03109
35.45 -0.05074
35.5 -0.065
35.55 -0.07956
35.6 -0.08917
35.65 -0.09905
35.7 -0.11021
35.75 -0.12501
35.8 -0.13857
35.85 -0.1497
35.9 -0.15646
35.95 -0.15931
36 -0.16046
36.05 -0.16907
36.1 -0.17795
36.15 -0.18542
36.2 -0.1899
36.25 -0.19611
36.3 -0.20495
36.35 -0.21415
36.4 -0.22432
36.45 -0.23635
36.5 -0.24374
36.55 -0.24587
36.6 -0.24558
36.65 -0.24864
36.7 -0.2484
36.75 -0.24596
36.8 -0.24071
36.85 -0.23599
36.9 -0.23712
36.95 -0.23664
37 -0.2369
37.05 -0.23309
37.1 -0.23181
37.15 -0.23164
37.2 -0.23079
37.25 -0.23186
37.3 -0.23319
37.35 -0.233
37.4 -0.23477
37.45 -0.23389
37.5 -0.236
37.55 -0.24046
37.6 -0.24207
37.65 -0.23941
37.7 -0.2401
37.75 -0.2427
37.8 -0.24512
37.85 -0.24227
37.9 -0.24149
37.95 -0.23644
38 -0.22876
38.05 -0.2209
38.1 -0.2162
38.15 -0.21211
38.2 -0.20386
38.25 -0.20183
38.3 -0.19946
38.35 -0.2015
38.4 -0.19657
38.45 -0.1904
38.5 -0.1863
38.55 -0.17916
38.6 -0.17218
38.65 -0.17096
38.7 -0.16675
38.75 -0.16025
38.8 -0.16067
38.85 -0.15971
38.9 -0.1552
38.95 -0.15291
39 -0.14779
39.05 -0.14365
39.1 -0.14356
39.15 -0.14578
39.2 -0.14404
39.25 -0.14687
39.3 -0.14652
39.35 -0.14778
39.4 -0.1495
39.45 -0.15234
39.5 -0.14948
39.55 -0.14782
39.6 -0.14591
39.65 -0.14597
39.7 -0.14553
39.75 -0.13939
39.8 -0.13624
39.85 -0.13072
39.9 -0.12487
39.95 -0.12382
40 -0.11745
40.05 -0.10825
40.1 -0.10307
40.15 -0.10201
40.2 -0.10568
40.25 -0.11207
40.3 -0.11763
40.35 -0.11978
40.4 -0.1187
40.45 -0.11603
40.5 -0.11562
40.55 -0.11484
40.6 -0.11416
40.65 -0.11409
40.7 -0.11295
40.75 -0.10709
40.8 -0.09964
40.85 -0.09721
40.9 -0.09753
40.95 -0.09674
41 -0.09521
41.05 -0.09413
41.1 -0.08914
41.15 -0.08588
41.2 -0.08275
41.25 -0.07817
41.3 -0.07456
41.35 -0.07106
41.4 -0.06498
41.45 -0.06143
41.5 -0.06037
41.55 -0.05757
41.6 -0.05696
41.65 -0.05294
41.7 -0.05385
41.75 -0.05666
41.8 -0.05666
41.85 -0.05293
41.9 -0.05055
41.95 -0.0547
42 -0.05316
42.05 -0.05163
42.1 -0.05146
42.15 -0.05264
42.2 -0.05362
42.25 -0.05134
42.3 -0.05275
42.35 -0.05562
42.4 -0.05551
42.45 -0.05825
42.5 -0.0616
42.55 -0.06247
42.6 -0.05932
42.65 -0.05754
42.7 -0.05598
42.75 -0.05222
42.8 -0.04559
42.85 -0.0443
42.9 -0.04554
42.95 -0.04958
43 -0.05337
43.05 -0.05501
43.1 -0.05779
43.15 -0.06025
43.2 -0.05912
43.25 -0.05997
43.3 -0.0572
43.35 -0.05768
43.4 -0.05587
43.45 -0.05088
43.5 -0.04288
43.55 -0.04037
43.6 -0.04062
43.65 -0.04225
43.7 -0.04067
43.75 -0.04343
43.8 -0.0401
43.85 -0.03457
43.9 -0.02885
43.95 -0.02371
44 -0.01825
44.05 -0.02072
44.1 -0.02382
44.15 -0.02558
44.2 -0.02257
44.25 -0.02129
44.3 -0.01958
44.35 -0.01488
44.4 -0.0088
44.45 -0.00512
44.5 -0.00049
44.55 -0.00292
44.6 -0.00369
44.65 -0.00282
44.7 -0.00508
44.75 -0.01236
44.8 -0.01549
44.85 -0.02227
44.9 -0.03071
44.95 -0.03557
45 -0.0378
45.05 -0.04276
45.1 -0.04275
45.15 -0.03951
45.2 -0.03251
45.25 -0.02397
45.3 -0.02153
45.35 -0.01999
45.4 -0.01674
45.45 -0.01054
45.5 -0.00515
45.55 -0.00734
45.6 -0.00934
45.65 -0.00719
45.7 -0.00965
45.75 -0.01221
45.8 -0.01747
45.85 -0.02259
45.9 -0.02639
45.95 -0.03291
46 -0.03799
46.05 -0.0422
46.1 -0.04225
46.15 -0.04231
46.2 -0.0449
46.25 -0.04269
46.3 -0.04057
46.35 -0.03799
46.4 -0.03883
46.45 -0.04203
46.5 -0.041
46.55 -0.03552
46.6 -0.03201
46.65 -0.03256
46.7 -0.03285
46.75 -0.03507
46.8 -0.03734
46.85 -0.035
46.9 -0.0316
46.95 -0.02655
47 -0.0242
47.05 -0.01671
47.1 -0.00962
47.15 -0.00725
47.2 -0.00733
47.25 -0.00504
47.3 -0.0076
47.35 -0.01258
47.4 -0.01633
47.45 -0.01499
47.5 -0.01758
47.55 -0.01577
47.6 -0.00922
47.65 -0.00608
47.7 -0.00276
47.75 -0.00176
47.8 -0.00413
47.85 -0.00186
47.9 0.00283
47.95 0.00267
48 -0.00161
48.05 -0.00826
48.1 -0.00905
48.15 -0.00561
48.2 -0.0068
48.25 -0.01231
48.3 -0.01373
48.35 -0.01628
48.4 -0.01931
48.45 -0.01823
48.5 -0.01771
48.55 -0.01552
48.6 -0.0138
48.65 -0.00916
48.7 -0.00572
48.75 -0.00531
48.8 -0.00184
48.85 -0.00433
48.9 -0.0096
48.95 -0.01248
49 -0.01291
49.05 -0.00898
49.1 -0.00673
49.15 -0.0018
49.2 0.00391
49.25 0.0096
49.3 0.01311
49.35 0.01311
49.4 0.01072
49.45 0.01074
49.5 0.0108
49.55 0.01062
49.6 0.01075
49.65 0.00564
49.7 -0.00335
49.75 -0.00774
49.8 -0.00713
49.85 -0.00474
49.9 0.00019
49.95 0.00469
50 0.00873
50.05 0.00753
50.1 0.00268
50.15 -0.00284
50.2 -0.0028
50.25 -0.0017
50.3 0.00145
50.35 0.00044
50.4 0.00227
50.45 0.0035
50.5 -0.00083
50.55 -0.00755
50.6 -0.01088
50.65 -0.00978
50.7 -0.01037
50.75 -0.00691
50.8 -0.00176
50.85 0.00416
50.9 0.0103
50.95 0.01597
51 0.02036
51.05 0.01761
51.1 0.01184
51.15 0.01067
51.2 0.00738
51.25 0.00514
51.3 -0.00049
51.35 -0.00296
51.4 -0.00021
51.45 -0.00122
51.5 -0.00118
51.55 -0.00225
51.6 -0.00773
51.65 -0.00756
51.7 -0.00861
51.75 -0.00652
51.8 -0.0012
51.85 -0.00124
51.9 -0.00219
51.95 -0.00484
52 -0.00891
52.05 -0.01148
52.1 -0.00932
52.15 -0.0124
52.2 -0.01826
52.25 -0.0194
52.3 -0.01967
52.35 -0.01571
52.4 -0.01452
52.45 -0.01712
52.5 -0.01514
52.55 -0.00891
52.6 -0.00375
52.65 -0.00219
52.7 -0.00505
52.75 -0.00422
52.8 -0.0082
52.85 -0.01209
52.9 -0.01395
52.95 -0.01169
53 -0.00721
53.05 -0.00518
53.1 -0.00322
53.15 -0.0059
53.2 -0.01141
53.25 -0.01221
53.3 -0.01419
53.35 -0.01304
53.4 -0.00706
53.45 0.00131
53.5 0.00232
53.55 0.00019
53.6 -0.00025
53.65 0.00185
53.7 -0.00039
53.75 -0.00204
53.8 -0.0028
53.85 -0.00801
53.9 -0.01377
53.95 -0.01453
54 -0.01132
54.05 -0.01045
54.1 -0.01011
54.15 -0.01316
54.2 -0.01786
54.25 -0.02343
54.3 -0.02135
54.35 -0.01443
54.4 -0.01261
54.45 -0.01464
54.5 -0.01588
54.55 -0.0142
54.6 -0.01171
54.65 -0.00963
54.7 -0.00433
54.75 -0.00468
54.8 -0.00258
54.85 0.00262
54.9 0.00253
54.95 0.00104
55 -0.00311
55.05 -0.00278
55.1 -0.00332
55.15 0.00005
55.2 -0.00004
55.25 -0.00329
55.3 -0.00703
55.35 -0.00833
55.4 -0.01267
55.45 -0.0114
55.5 -0.01236
55.55 -0.01194
55.6 -0.01078
55.65 -0.00949
55.7 -0.00356
55.75 -0.00115
55.8 0.00438
55.85 0.01201
55.9 0.01962
55.95 0.02208
56 0.01818
56.05 0.01164
56.1 0.01132
56.15 0.01121
56.2 0.00596
56.25 -0.00024
56.3 -0.00863
56.35 -0.01667
56.4 -0.01783
56.45 -0.01954
56.5 -0.01765
56.55 -0.01771
56.6 -0.01755
56.65 -0.01153
56.7 -0.00323
56.75 0.00572
56.8 0.00984
56.85 0.00831
56.9 0.00385
56.95 -0.00169
57 -0.00313
57.05 -0.00271
57.1 -0.00068
57.15 -0.00221
57.2 -0.0002
57.25 -0.00315
57.3 -0.00307
57.35 -0.00713
57.4 -0.01154
57.45 -0.01158
57.5 -0.01258
57.55 -0.01483
57.6 -0.01087
57.65 -0.00783
57.7 -0.00042
57.75 0.0089
57.8 0.01679
57.85 0.02324
57.9 0.02449
57.95 0.02021
58 0.01503
58.05 0.00958
58.1 0.00079
58.15 -0.00217
58.2 -0.00822
58.25 -0.01453
58.3 -0.01508
58.35 -0.00947
58.4 -0.00082
58.45 0.00209
58.5 0.00825
58.55 0.01195
58.6 0.01386
58.65 0.00973
58.7 0.00236
58.75 -0.00422
58.8 -0.01138
58.85 -0.01184
58.9 -0.01386
58.95 -0.017
59 -0.01265
59.05 -0.00388
59.1 0.00435
59.15 0.0113
59.2 0.01386
59.25 0.01425
59.3 0.01319
59.35 0.00754
59.4 0.00124
59.45 -0.00503
59.5 -0.01249
59.55 -0.01874
59.6 -0.0212
59.65 -0.01706
59.7 -0.0146
59.75 -0.01032
59.8 -0.00278
59.85 0.00709
59.9 0.01027
59.95 0.01027
60 0.01444
60.05 0.01579
60.1 0.01372
60.15 0.00901
60.2 0.01022
60.25 0.01119
60.3 0.0109
60.35 0.00992
60.4 0.00588
60.45 0.00284
60.5 0.00483
60.55 0.00551
60.6 0.00606
60.65 0.00803
60.7 0.00522
60.75 0.00629
60.8 0.00591
60.85 0.00473
60.9 0.00202
60.95 -0.00204
61 -0.00664
61.05 -0.00852
61.1 -0.00467
61.15 0.00065
61.2 0.00163
61.25 0.00418
61.3 0.00219
61.35 -0.0008
61.4 -0.00426
61.45 -0.00642
61.5 -0.01184
61.55 -0.01852
61.6 -0.02321
61.65 -0.02512
61.7 -0.02295
61.75 -0.02139
61.8 -0.0226
61.85 -0.0226
61.9 -0.02015
61.95 -0.01713
62 -0.01657
62.05 -0.00973
62.1 -0.00364
62.15 -0.00354
62.2 -0.0067
62.25 -0.00415
62.3 0.00156
62.35 0.00298
62.4 -0.00052
62.45 -0.00509
62.5 -0.00595
62.55 -0.0059
62.6 -0.00445
62.65 -0.00156
62.7 -0.00085
62.75 -0.00267
62.8 -0.00381
62.85 -0.00851
62.9 -0.0137
62.95 -0.01527
63 -0.01534
63.05 -0.01815
63.1 -0.01398
63.15 -0.00582
63.2 0.00412
63.25 0.01422
63.3 0.02321
63.35 0.02478
63.4 0.02077
63.45 0.01603
63.5 0.00776
63.55 -0.00225
63.6 -0.00991
63.65 -0.01139
63.7 -0.01361
63.75 -0.0167
63.8 -0.0206
63.85 -0.02258
63.9 -0.01797
63.95 -0.01048
64 -0.00267
64.05 -0.00152
64.1 -0.00145
64.15 -0.00105
64.2 -0.00151
64.25 -0.00121
64.3 -0.00248
64.35 0.0002
64.4 0.00103
64.45 -0.00178
64.5 -0.0036
64.55 -0.00529
64.6 -0.00063
64.65 0.00435
64.7 0.01033
64.75 0.01496
64.8 0.01613
64.85 0.01635
64.9 0.01102
64.95 0.01116
65 0.01517
65.05 0.01377
65.1 0.01573
65.15 0.01832
65.2 0.02205
65.25 0.01991
65.3 0.01731
65.35 0.01308
65.4 0.00578
65.45 0.00062
65.5 -0.00259
65.55 -0.00803
65.6 -0.0148
65.65 -0.01759
65.7 -0.01761
65.75 -0.01825
65.8 -0.01277
65.85 -0.01076
65.9 -0.00433
65.95 -0.00048
66 0.00194
66.05 0.00543
66.1 0.00667
66.15 0.00521
66.2 -0.0004
66.25 -0.0068
66.3 -0.00691
66.35 -0.00923
66.4 -0.01351
66.45 -0.01725
66.5 -0.01438
66.55 -0.01011
66.6 -0.00431
66.65 -0.00293
66.7 0.0015
66.75 0.00258
66.8 -0.00037
66.85 0.00194
66.9 0.0081
66.95 0.0134
67 0.01775
67.05 0.01716
67.1 0.01243
67.15 0.0118
67.2 0.01533
67.25 0.01861
67.3 0.01606
67.35 0.01445
67.4 0.01014
67.45 0.0039
67.5 -0.00482
67.55 -0.01394
67.6 -0.02303
67.65 -0.02868
67.7 -0.0255
67.75 -0.01715
67.8 -0.0123
67.85 -0.00326
67.9 0.00764
67.95 0.01224
68 0.01494
68.05 0.01964
68.1 0.02137
68.15 0.01695
68.2 0.01294
68.25 0.01378
68.3 0.01715
68.35 0.01876
68.4 0.02152
68.45 0.02015
68.5 0.01985
68.55 0.01607
68.6 0.01455
68.65 0.01265
68.7 0.01077
68.75 0.00935
68.8 0.00746
68.85 0.00738
68.9 0.00309
68.95 -0.00425
69 -0.01032
69.05 -0.0095
69.1 -0.01246
69.15 -0.01496
69.2 -0.01907
69.25 -0.02433
69.3 -0.02618
69.35 -0.02852
69.4 -0.03085
69.45 -0.02565
69.5 -0.01831
69.55 -0.0129
69.6 -0.00908
69.65 -0.005
69.7 0.00149
69.75 0.00418
69.8 0.00247
69.85 -0.00147
69.9 0.00125
69.95 0.00585
70 0.01093
70.05 0.01415
70.1 0.01517
70.15 0.01272
70.2 0.01461
70.25 0.01355
70.3 0.01475
70.35 0.01481
70.4 0.01162
70.45 0.00407
70.5 0.00019
70.55 0.0013
70.6 -0.00078
70.65 -0.00204
70.7 -0.0053
70.75 -0.01055
70.8 -0.00946
70.85 -0.00578
70.9 -0.00133
70.95 0.004
71 0.01059
71.05 0.01252
71.1 0.01542
71.15 0.01734
71.2 0.01599
71.25 0.01511
71.3 0.01464
71.35 0.00943
71.4 0.00082
71.45 -0.00576
71.5 -0.00936
71.55 -0.0078
71.6 -0.00634
71.65 -0.00425
71.7 -0.00069
71.75 0.00383
71.8 0.0077
71.85 0.00535
71.9 0.00101
71.95 -0.00486
72 -0.00867
72.05 -0.00718
72.1 -0.00831
72.15 -0.00795
72.2 -0.00365
72.25 -0.00489
72.3 -0.00186
72.35 0.00246
72.4 0.00867
72.45 0.01478
72.5 0.01569
72.55 0.01883
72.6 0.02173
72.65 0.02324
72.7 0.02458
72.75 0.02074
72.8 0.01726
72.85 0.01304
72.9 0.00773
72.95 -0.00098
73 -0.00888
73.05 -0.01516
73.1 -0.01908
73.15 -0.01581
73.2 -0.01169
73.25 -0.0107
73.3 -0.00564
73.35 0.00223
73.4 0.00845
73.45 0.01613
73.5 0.01638
73.55 0.01185
73.6 0.00558
73.65 0.00488
73.7 0.00069
73.75 -0.00344
73.8 -0.00398
73.85 -0.00074
73.9 -0.00272
73.95 -0.0075
74 -0.01463
74.05 -0.02169
74.1 -0.02706
74.15 -0.03067
74.2 -0.03495
74.25 -0.032
74.3 -0.03048
74.35 -0.03055
74.4 -0.0323
74.45 -0.03425
74.5 -0.02859
74.55 -0.01972
74.6 -0.01521
74.65 -0.01493
74.7 -0.01376
74.75 -0.00959
74.8 -0.00152
74.85 0.00415
74.9 0.007
74.95 0.00492
75 0.00544
75.05 0.00876
75.1 0.01414
75.15 0.01762
75.2 0.01803
75.25 0.01339
75.3 0.01266
75.35 0.00975
75.4 0.01121
75.45 0.01533
75.5 0.01967
75.55 0.02053
75.6 0.01803
75.65 0.01522
75.7 0.01296
75.75 0.01522
75.8 0.01552
75.85 0.01094
75.9 0.00669
75.95 0.00542
76 0.00406
76.05 0.00255
76.1 0.00369
76.15 0.00536
76.2 0.00171
76.25 -0.00245
76.3 -0.00167
76.35 -0.00545
76.4 -0.009
76.45 -0.00918
76.5 -0.00881
76.55 -0.01161
76.6 -0.00957
76.65 -0.00968
76.7 -0.01313
76.75 -0.0142
76.8 -0.01372
76.85 -0.01565
76.9 -0.01654
76.95 -0.01844
77 -0.01731
77.05 -0.01161
77.1 -0.00552
77.15 0.00232
77.2 0.00564
77.25 0.01069
77.3 0.01286
77.35 0.01187
77.4 0.01384
77.45 0.01672
77.5 0.01918
77.55 0.0146
77.6 0.0095
77.65 0.0049
77.7 0.00008
77.75 -0.00568
77.8 -0.00412
77.85 -0.00092
77.9 0.00473
77.95 0.01046
78 0.01132
78.05 0.01424
78.1 0.01074
78.15 0.0071
78.2 -0.0001
78.25 -0.00368
78.3 -0.00707
78.35 -0.00877
78.4 -0.01004
78.45 -0.01207
78.5 -0.00806
78.55 -0.00066
78.6 0.0024
78.65 0.00857
78.7 0.01212
78.75 0.01231
78.8 0.00989
78.85 0.00405
78.9 0.00258
78.95 -0.00071
79 0.00113
79.05 0.00452
79.1 0.00173
79.15 -0.00457
79.2 -0.0107
79.25 -0.01325
79.3 -0.01188
79.35 -0.01041
79.4 -0.01255
79.45 -0.01333
79.5 -0.00807
79.55 -0.00789
79.6 -0.00958
79.65 -0.01296
79.7 -0.0127
79.75 -0.00934
79.8 -0.00431
79.85 0.0021
79.9 0.00311
79.95 0.00643
80 0.00872
80.05 0.01186
80.1 0.01432
80.15 0.01234
80.2 0.00697
80.25 0.00315
80.3 -0.00149
80.35 -0.00447
80.4 -0.00699
80.45 -0.01059
80.5 -0.01579
80.55 -0.01891
80.6 -0.02106
80.65 -0.01825
80.7 -0.01018
80.75 -0.00595
80.8 -0.00653
80.85 -0.00381
80.9 -0.00404
80.95 -0.00001
81 -0.00206
81.05 -0.00284
81.1 -0.0073
81.15 -0.00734
81.2 -0.0042
81.25 -0.00082
81.3 0.00233
81.35 0.00003
81.4 -0.00304
81.45 -0.00241
81.5 0.00209
81.55 0.00436
81.6 0.0095
81.65 0.01658
81.7 0.01729
81.75 0.01718
81.8 0.01618
81.85 0.01299
81.9 0.00978
81.95 0.005
82 -0.00254
82.05 -0.00872
82.1 -0.01486
82.15 -0.02181
82.2 -0.02499
82.25 -0.02014
82.3 -0.01806
82.35 -0.01328
82.4 -0.01031
82.45 -0.00816
82.5 -0.00131
82.55 -0.0009
82.6 -0.00012
82.65 0.00191
82.7 0.00701
82.75 0.01224
82.8 0.01202
82.85 0.00952
82.9 0.00551
82.95 -0.0019
83 -0.00825
83.05 -0.00909
83.1 -0.00443
83.15 0.00112
83.2 0.00279
83.25 0.00225
83.3 0.00463
83.35 0.00209
83.4 0.0012
83.45 0.00318
83.5 0.00523
83.55 0.00718
83.6 0.01079
83.65 0.00841
83.7 0.00518
83.75 0.00748
83.8 0.00775
83.85 0.00608
83.9 0.00432
83.95 0.00337
84 0.00566
84.05 0.00854
84.1 0.01229
84.15 0.01274
84.2 0.01251
84.25 0.01434
84.3 0.00975
84.35 0.00445
84.4 0.00281
84.45 0.00212
84.5 0.00007
84.55 -0.00011
84.6 0.00149
84.65 0.0013
84.7 0.00263
84.75 0.00692
84.8 0.00681
84.85 0.00255
84.9 0.00101
84.95 -0.00311
85 -0.00314
85.05 -0.00404
85.1 -0.00481
85.15 -0.00242
85.2 -0.00294
85.25 0.00045
85.3 0.00235
85.35 0.00636
85.4 0.01041
85.45 0.0154
85.5 0.02032
85.55 0.01743
85.6 0.01823
85.65 0.02174
85.7 0.01749
85.75 0.00956
85.8 0.00182
85.85 -0.00795
85.9 -0.0114
85.95 -0.01594
86 -0.02212
86.05 -0.02786
86.1 -0.02652
86.15 -0.02267
86.2 -0.02204
86.25 -0.02034
86.3 -0.01292
86.35 -0.01023
86.4 -0.00418
86.45 0.00113
86.5 0.00688
86.55 0.01457
86.6 0.01956
86.65 0.02365
86.7 0.02734
86.75 0.0229
86.8 0.01559
86.85 0.00553
86.9 0.00127
86.95 -0.00582
87 -0.00992
87.05 -0.01589
87.1 -0.02246
87.15 -0.02169
87.2 -0.02067
87.25 -0.01545
87.3 -0.01003
87.35 -0.00559
87.4 0.00062
87.45 0.0017
87.5 0.00001
87.55 -0.00138
87.6 -0.00618
87.65 -0.00598
87.7 -0.00122
87.75 -0.00275
87.8 -0.00692
87.85 -0.01229
87.9 -0.01441
87.95 -0.00973
88 -0.00304
88.05 0.00173
88.1 0.00046
88.15 -0.00259
88.2 -0.00861
88.25 -0.00905
88.3 -0.00983
88.35 -0.01306
88.4 -0.01465
88.45 -0.01817
88.5 -0.02017
88.55 -0.02118
88.6 -0.0176
88.65 -0.01574
88.7 -0.01274
88.75 -0.00821
88.8 -0.00159
88.85 0.00552
88.9 0.01188
88.95 0.01438
89 0.01417
89.05 0.01196
89.1 0.00905
89.15 0.00227
89.2 -0.00251
89.25 -0.00574
89.3 -0.00946
89.35 -0.01459
89.4 -0.01512
89.45 -0.01145
89.5 -0.0036
89.55 0.00034
89.6 0.00713
89.65 0.01298
89.7 0.01395
89.75 0.01483
89.8 0.01194
89.85 0.00874
89.9 0.00803
89.95 0.0105
90 0.01368
90.05 0.0107
90.1 0.0092
90.15 0.00944
90.2 0.00589
90.25 0.00237
90.3 0.00349
90.35 0.00543
90.4 0.00986
90.45 0.01587
90.5 0.01918
90.55 0.02428
90.6 0.02993
90.65 0.02766
90.7 0.02184
90.75 0.01923
90.8 0.01369
90.85 0.01227
90.9 0.01107
90.95 0.00689
91 0.00454
91.05 0.00016
91.1 -0.00232
91.15 -0.00312
91.2 -0.00028
91.25 -0.00333
91.3 -0.00051
91.35 0.00387
91.4 0.00728
91.45 0.00506
91.5 0.00656
91.55 0.00511
91.6 0.00676
91.65 0.0053
91.7 0.00041
91.75 -0.00367
91.8 -0.00247
91.85 -0.00154
91.9 -0.00198
91.95 -0.00045
92 0.00146
92.05 -0.00004
92.1 0.00208
92.15 0.00439
92.2 0.00844
92.25 0.0093
92.3 0.00664
92.35 0.00278
92.4 -0.00156
92.45 -0.00507
92.5 -0.0069
92.55 -0.00907
92.6 -0.01242
92.65 -0.01439
92.7 -0.01875
92.75 -0.02109
92.8 -0.01775
92.85 -0.01369
92.9 -0.00916
92.95 -0.00821
93 -0.0078
93.05 -0.00447
93.1 0.00237
93.15 0.00292
93.2 0.00512
93.25 0.00738
93.3 0.01039
93.35 0.01552
93.4 0.01914
93.45 0.01886
93.5 0.01782
93.55 0.01888
93.6 0.02143
93.65 0.02159
93.7 0.01937
93.75 0.01532
93.8 0.01043
93.85 0.00407
93.9 -0.00192
93.95 -0.00206
94 -0.00269
94.05 -0.0043
94.1 -0.00938
94.15 -0.01337
94.2 -0.0192
94.25 -0.02562
94.3 -0.0249
94.35 -0.02734
94.4 -0.03141
94.45 -0.03591
94.5 -0.03918
94.55 -0.04173
94.6 -0.03626
94.65 -0.0305
94.7 -0.02896
94.75 -0.02166
94.8 -0.01177
94.85 -0.0074
94.9 -0.0026
94.95 0.00495
95 0.00667
95.05 0.0077
95.1 0.00924
95.15 0.00788
95.2 0.00315
95.25 -0.00104
95.3 0.00076
95.35 0.00077
95.4 0.00437
95.45 0.00434
95.5 0.00562
95.55 0.00502
95.6 0.00886
95.65 0.00606
95.7 0.00534
95.75 0.00071
95.8 -0.00172
95.85 -0.00245
95.9 0.00094
95.95 0.00411
96 0.00847
96.05 0.01015
96.1 0.01419
96.15 0.014
96.2 0.01251
96.25 0.00774
96.3 0.00043
96.35 -0.00895
96.4 -0.0168
96.45 -0.02161
96.5 -0.02617
96.55 -0.02337
96.6 -0.01553
96.65 -0.01315
96.7 -0.0101
96.75 -0.0072
96.8 -0.00369
96.85 -0.00192
96.9 -0.00053
96.95 -0.0009
97 0.00327
97.05 0.00905
97.1 0.00861
97.15 0.01235
97.2 0.01563
97.25 0.01576
97.3 0.01166
97.35 0.00641
97.4 0.00519
97.45 0.00434
97.5 0.00731
97.55 0.00485
97.6 0.00162
97.65 -0.00527
97.7 -0.01145
97.75 -0.01014
97.8 -0.00755
97.85 -0.00727
97.9 -0.00255
97.95 0.00316
98 0.01118
98.05 0.01161
98.1 0.01076
98.15 0.01022
98.2 0.00931
98.25 0.00736
98.3 0.0026
98.35 -0.00254
98.4 -0.00722
98.45 -0.00568
98.5 -0.0008
98.55 0.00701
98.6 0.00889
98.65 0.01345
98.7 0.01686
98.75 0.01851
98.8 0.02249
98.85 0.02042
98.9 0.01846
98.95 0.01061
99 0.0043
99.05 0.00438
99.1 0.00646
99.15 0.00324
99.2 0.0046
99.25 0.00284
99.3 -0.00171
99.35 -0.00256
99.4 -0.00584
99.45 -0.01047
99.5 -0.01699
99.55 -0.02
99.6 -0.02496
99.65 -0.02771
99.7 -0.02533
99.75 -0.02303
99.8 -0.01838
99.85 -0.01148
99.9 -0.01096
99.95 -0.00687
