0 0
0.05 0.00488
0.1 0.01423
0.15 0.02813
0.2 0.04243
0.25 0.05552
0.3 0.06401
0.35 0.0647
0.4 0.06869
0.45 0.06835
0.5 0.06776
0.55 0.06855
0.6 0.0633
0.65 0.05749
0.7 0.05733
0.75 0.05584
0.8 0.05602
0.85 0.05634
0.9 0.05749
0.95 0.05334
1 0.04857
1.05 0.04435
1.1 0.04589
1.15 0.04261
1.2 0.0394
1.25 0.03922
1.3 0.03473
1.35 0.03571
1.4 0.04054
1.45 0.04186
1.5 0.04538
1.55 0.05043
1.6 0.05389
1.65 0.05639
1.7 0.06063
1.75 0.06518
1.8 0.06295
1.85 0.06094
1.9 0.05261
1.95 0.0465
2 0.03965
2.05 0.03435
2.1 0.03321
2.15 0.02994
2.2 0.02356
2.25 0.016
2.3 0.01579
2.35 0.01625
2.4 0.02123
2.45 0.02686
2.5 0.03207
2.55 0.03031
2.6 0.02781
2.65 0.02866
2.7 0.02884
2.75 0.02702
2.8 0.02901
2.85 0.0288
2.9 0.02982
2.95 0.03256
3 0.0313
3.05 0.03282
3.1 0.03279
3.15 0.03548
3.2 0.0326
3.25 0.03062
3.3 0.0282
3.35 0.0259
3.4 0.02621
3.45 0.02461
3.5 0.01825
3.55 0.01327
3.6 0.00599
3.65 -0.00127
3.7 -0.00733
3.75 -0.00888
3.8 -0.01005
3.85 -0.0046
3.9 0.00285
3.95 0.00968
4 0.01835
4.05 0.02069
4.1 0.02182
4.15 0.02562
4.2 0.02497
4.25 0.01879
4.3 0.0093
4.35 -0.0007
4.4 -0.01251
4.45 -0.01865
4.5 -0.02814
4.55 -0.03914
4.6 -0.04801
4.65 -0.06054
4.7 -0.07267
4.75 -0.09203
4.8 -0.1152
4.85 -0.13691
4.9 -0.16145
4.95 -0.19691
5 -0.23801
5.05 -0.28019
5.1 -0.32824
5.15 -0.38598
5.2 -0.44814
5.25 -0.51566
5.3 -0.58263
5.35 -0.65886
5.4 -0.73665
5.45 -0.81948
5.5 -0.90315
5.55 -0.98736
5.6 -1.07625
5.65 -1.16416
5.7 -1.24994
5.75 -1.34043
5.8 -1.42439
5.85 -1.50786
5.9 -1.58599
5.95 -1.65781
6 -1.72158
6.05 -1.78424
6.1 -1.83993
6.15 -1.89674
6.2 -1.94839
6.25 -1.99097
6.3 -2.02449
6.35 -2.05575
6.4 -2.07938
6.45 -2.09518
6.5 -2.10451
6.55 -2.10725
6.6 -2.09789
6.65 -2.07421
6.7 -2.03612
6.75 -1.9867
6.8 -1.928
6.85 -1.85751
6.9 -1.77829
6.95 -1.67954
7 -1.56707
7.05 -1.44153
7.1 -1.30104
7.15 -1.15283
7.2 -0.99205
7.25 -0.82641
7.3 -0.65899
7.35 -0.48594
7.4 -0.31304
7.45 -0.13514
7.5 0.0441
7.55 0.22434
7.6 0.39359
7.65 0.55659
7.7 0.71459
7.75 0.86398
7.8 1.0064
7.85 1.13811
7.9 1.25477
7.95 1.36105
8 1.45304
8.05 1.53799
8.1 1.60923
8.15 1.67416
8.2 1.72756
8.25 1.7701
8.3 1.80513
8.35 1.83422
8.4 1.85596
8.45 1.86678
8.5 1.86961
8.55 1.86476
8.6 1.85163
8.65 1.83328
8.7 1.81231
8.75 1.79475
8.8 1.78079
8.85 1.76735
8.9 1.74919
8.95 1.73124
9 1.70799
9.05 1.68636
9.1 1.66564
9.15 1.64015
9.2 1.61926
9.25 1.59844
9.3 1.57497
9.35 1.55576
9.4 1.53194
9.45 1.50798
9.5 1.48695
9.55 1.46728
9.6 1.44289
9.65 1.4157
9.7 1.39076
9.75 1.3725
9.8 1.35556
9.85 1.33871
9.9 1.31802
9.95 1.29746
10 1.27564
10.05 1.24829
10.1 1.21571
10.15 1.18531
10.2 1.15408
10.25 1.12796
10.3 1.10373
10.35 1.07424
10.4 1.04067
10.45 1.01095
10.5 0.97869
10.55 0.94796
10.6 0.91804
10.65 0.88217
10.7 0.84748
10.75 0.8069
10.8 0.77128
10.85 0.73052
10.9 0.69308
10.95 0.65786
11 0.6244
11.05 0.59347
11.1 0.56061
11.15 0.52285
11.2 0.48542
11.25 0.44411
11.3 0.40426
11.35 0.36621
11.4 0.33357
11.45 0.29873
11.5 0.26666
11.55 0.23373
11.6 0.20206
11.65 0.17314
11.7 0.14711
11.75 0.12005
11.8 0.08905
11.85 0.05645
11.9 0.02381
11.95 -0.003
12 -0.02707
12.05 -0.04565
12.1 -0.06456
12.15 -0.07965
12.2 -0.09164
12.25 -0.10579
12.3 -0.12049
12.35 -0.13517
12.4 -0.15073
12.45 -0.1653
12.5 -0.18505
12.55 -0.20382
12.6 -0.22113
12.65 -0.23483
12.7 -0.24326
12.75 -0.25019
12.8 -0.25452
12.85 -0.2599
12.9 -0.2643
12.95 -0.27406
13 -0.28609
13.05 -0.29361
13.1 -0.29534
13.15 -0.30022
13.2 -0.30009
13.25 -0.30304
13.3 -0.30705
13.35 -0.3117
13.4 -0.31886
13.45 -0.3257
13.5 -0.32945
13.55 -0.33454
13.6 -0.33786
13.65 -0.34144
13.7 -0.33919
13.75 -0.33422
13.8 -0.33059
13.85 -0.32406
13.9 -0.31699
13.95 -0.31143
14 -0.30286
14.05 -0.29729
14.1 -0.2932
14.15 -0.29257
14.2 -0.2883
14.25 -0.28839
14.3 -0.28642
14.35 -0.2836
14.4 -0.2813
14.45 -0.27475
14.5 -0.26645
14.55 -0.25659
14.6 -0.25174
14.65 -0.25325
14.7 -0.25644
14.75 -0.25774
14.8 -0.25811
14.85 -0.25279
14.9 -0.24872
14.95 -0.24555
15 -0.24485
15.05 -0.24347
15.1 -0.24175
15.15 -0.24224
15.2 -0.24509
15.25 -0.24213
15.3 -0.24179
15.35 -0.23484
15.4 -0.22922
15.45 -0.22138
15.5 -0.21083
15.55 -0.20146
15.6 -0.19447
15.65 -0.18668
15.7 -0.18197
15.75 -0.18164
15.8 -0.18228
15.85 -0.18672
15.9 -0.18932
15.95 -0.19233
16 -0.19004
16.05 -0.19084
16.1 -0.19342
16.15 -0.19332
16.2 -0.18652
16.25 -0.18283
16.3 -0.17568
16.35 -0.1704
16.4 -0.16877
16.45 -0.16625
16.5 -0.16086
16.55 -0.15253
16.6 -0.1478
16.65 -0.14486
16.7 -0.14401
16.75 -0.13954
16.8 -0.13432
16.85 -0.13093
16.9 -0.13146
16.95 -0.13066
17 -0.1325
17.05 -0.12858
17.1 -0.12566
17.15 -0.1219
17.2 -0.1209
17.25 -0.11941
17.3 -0.11616
17.35 -0.11635
17.4 -0.11252
17.45 -0.10988
17.5 -0.10314
17.55 -0.09998
17.6 -0.09691
17.65 -0.09725
17.7 -0.09914
17.75 -0.09866
17.8 -0.09748
17.85 -0.09942
17.9 -0.09803
17.95 -0.09655
18 -0.09242
18.05 -0.09136
18.1 -0.0936
18.15 -0.09306
18.2 -0.08964
18.25 -0.08448
18.3 -0.07949
18.35 -0.07256
18.4 -0.06904
18.45 -0.06811
18.5 -0.07067
18.55 -0.07456
18.6 -0.07508
18.65 -0.07989
18.7 -0.08517
18.75 -0.08582
18.8 -0.08511
18.85 -0.08462
18.9 -0.08178
18.95 -0.08207
19 -0.08247
19.05 -0.08316
19.1 -0.08618
19.15 -0.08739
19.2 -0.08641
19.25 -0.08313
19.3 -0.07609
19.35 -0.0714
19.4 -0.0689
19.45 -0.06409
19.5 -0.05572
19.55 -0.05231
19.6 -0.05167
19.65 -0.04743
19.7 -0.04943
19.75 -0.04942
19.8 -0.05373
19.85 -0.05234
19.9 -0.04955
19.95 -0.04576
20 -0.04593
20.05 -0.05052
20.1 -0.04958
20.15 -0.05202
20.2 -0.05555
20.25 -0.05484
20.3 -0.05709
20.35 -0.05437
20.4 -0.05467
20.45 -0.05545
20.5 -0.05633
20.55 -0.05296
20.6 -0.04767
20.65 -0.0453
20.7 -0.04429
20.75 -0.04692
20.8 -0.05064
20.85 -0.04895
20.9 -0.05087
20.95 -0.05141
21 -0.05159
21.05 -0.0506
21.1 -0.04551
21.15 -0.04397
21.2 -0.03813
21.25 -0.03487
21.3 -0.03624
21.35 -0.03519
21.4 -0.03184
21.45 -0.02794
21.5 -0.02271
21.55 -0.0182
21.6 -0.01909
21.65 -0.01839
21.7 -0.02281
21.75 -0.02416
21.8 -0.02126
21.85 -0.02405
21.9 -0.02345
21.95 -0.01891
22 -0.01416
22.05 -0.00888
22.1 -0.01043
22.15 -0.01499
22.2 -0.01455
22.25 -0.01306
22.3 -0.01672
22.35 -0.01864
22.4 -0.01757
22.45 -0.01607
22.5 -0.01199
22.55 -0.01371
22.6 -0.01649
22.65 -0.01503
22.7 -0.01896
22.75 -0.02011
22.8 -0.01743
22.85 -0.01638
22.9 -0.02009
22.95 -0.0202
23 -0.02113
23.05 -0.02129
23.1 -0.019
23.15 -0.01646
23.2 -0.01102
23.25 -0.00893
23.3 -0.00676
23.35 -0.00159
23.4 0.00412
23.45 0.00905
23.5 0.00642
23.55 0.00095
23.6 -0.00109
23.65 -0.0036
23.7 -0.00238
23.75 -0.00452
23.8 -0.00329
23.85 -0
23.9 -0.00089
23.95 0.00009
24 0.00282
24.05 0.00085
24.1 -0.00314
24.15 -0.00598
24.2 -0.01086
24.25 -0.01399
24.3 -0.01573
24.35 -0.02066
24.4 -0.02287
24.45 -0.02074
24.5 -0.01747
24.55 -0.01848
24.6 -0.02127
24.65 -0.02637
24.7 -0.02652
24.75 -0.02985
24.8 -0.02731
24.85 -0.02721
24.9 -0.0302
24.95 -0.02943
25 -0.02785
25.05 -0.02672
25.1 -0.02346
25.15 -0.02429
25.2 -0.02546
25.25 -0.02035
25.3 -0.01456
25.35 -0.00877
25.4 -0.00588
25.45 -0.00429
25.5 -0.00813
25.55 -0.01087
25.6 -0.01024
25.65 -0.00713
25.7 -0.00934
25.75 -0.01246
25.8 -0.01143
25.85 -0.01286
25.9 -0.00998
25.95 -0.01075
26 -0.00764
26.05 -0.00557
26.1 -0.00484
26.15 -0.00814
26.2 -0.00967
26.25 -0.00952
26.3 -0.00534
26.35 -0.00052
26.4 0.00296
26.45 0.00834
26.5 0.01366
26.55 0.01758
26.6 0.01706
26.65 0.01324
26.7 0.00774
26.75 0.00111
26.8 -0.0011
26.85 0.00086
26.9 0.00565
26.95 0.00644
27 0.00587
27.05 0.00568
27.1 0.00879
27.15 0.00786
27.2 0.00419
27.25 -0.00135
27.3 -0.0055
27.35 -0.0127
27.4 -0.01516
27.45 -0.01492
27.5 -0.00952
27.55 -0.00686
27.6 -0.00848
27.65 -0.00772
27.7 -0.0098
27.75 -0.01572
27.8 -0.01795
27.85 -0.0155
27.9 -0.01773
27.95 -0.01825
28 -0.01521
28.05 -0.01601
28.1 -0.02072
28.15 -0.0219
28.2 -0.02059
28.25 -0.02463
28.3 -0.02734
28.35 -0.03471
28.4 -0.04444
28.45 -0.05201
28.5 -0.0537
28.55 -0.05391
28.6 -0.05321
28.65 -0.05722
28.7 -0.06689
28.75 -0.07567
28.8 -0.08368
28.85 -0.09144
28.9 -0.09947
28.95 -0.10789
29 -0.12594
29.05 -0.15065
29.1 -0.1731
29.15 -0.19391
29.2 -0.21458
29.25 -0.23589
29.3 -0.25803
29.35 -0.27871
29.4 -0.29827
29.45 -0.32242
29.5 -0.34749
29.55 -0.37334
29.6 -0.40178
29.65 -0.43412
29.7 -0.46136
29.75 -0.48303
29.8 -0.50073
29.85 -0.51394
29.9 -0.52718
29.95 -0.5382
30 -0.55283
30.05 -0.5619
30.1 -0.56812
30.15 -0.57202
30.2 -0.57207
30.25 -0.56732
30.3 -0.55881
30.35 -0.54173
30.4 -0.52688
30.45 -0.51014
30.5 -0.49197
30.55 -0.46328
30.6 -0.42781
30.65 -0.39058
30.7 -0.34978
30.75 -0.30654
30.8 -0.26146
30.85 -0.21444
30.9 -0.16816
30.95 -0.12981
31 -0.09172
31.05 -0.04952
31.1 -0.00637
31.15 0.03375
31.2 0.06945
31.25 0.10797
31.3 0.1483
31.35 0.18333
31.4 0.21273
31.45 0.23767
31.5 0.26441
31.55 0.29508
31.6 0.32725
31.65 0.35914
31.7 0.38901
31.75 0.41371
31.8 0.42845
31.85 0.44373
31.9 0.45453
31.95 0.46729
32 0.48057
32.05 0.48843
32.1 0.49016
32.15 0.49119
32.2 0.49572
32.25 0.49846
32.3 0.50327
32.35 0.5019
32.4 0.49634
32.45 0.49731
32.5 0.49698
32.55 0.49133
32.6 0.48665
32.65 0.48528
32.7 0.47859
32.75 0.47672
32.8 0.47418
32.85 0.47277
32.9 0.46673
32.95 0.45979
33 0.4491
33.05 0.43706
33.1 0.42201
33.15 0.40544
33.2 0.38907
33.25 0.37145
33.3 0.35241
33.35 0.34002
33.4 0.33061
33.45 0.32264
33.5 0.31741
33.55 0.30856
33.6 0.30027
33.65 0.28632
33.7 0.26767
33.75 0.25418
33.8 0.23896
33.85 0.22456
33.9 0.21497
33.95 0.2038
34 0.19407
34.05 0.18636
34.1 0.17695
34.15 0.17095
34.2 0.15957
34.25 0.15357
34.3 0.14987
34.35 0.14623
34.4 0.13699
34.45 0.12833
34.5 0.12356
34.55 0.11931
34.6 0.11088
34.65 0.10476
34.7 0.09996
34.75 0.09145
34.8 0.07917
34.85 0.07285
34.9 0.06968
34.95 0.06415
35 0.06219
35.05 0.05721
35.1 0.05083
35.15 0.04444
35.2 0.03915
35.25 0.03721
35.3 0.03215
35.35 0.02316
35.4 0.01742
35.45 0.01542
35.5 0.0151
35.55 0.01426
35.6 0.00609
35.65 -0.00141
35.7 -0.00608
35.75 -0.01271
35.8 -0.01782
35.85 -0.02559
35.9 -0.03129
35.95 -0.03503
36 -0.03999
36.05 -0.0442
36.1 -0.04945
36.15 -0.05686
36.2 -0.06241
36.25 -0.06844
36.3 -0.07588
36.35 -0.08227
36.4 -0.08931
36.45 -0.09
36.5 -0.09277
36.55 -0.08898
36.6 -0.08787
36.65 -0.08592
36.7 -0.08002
36.75 -0.07294
36.8 -0.06907
36.85 -0.06411
36.9 -0.05847
36.95 -0.05848
37 -0.05997
37.05 -0.05895
37.1 -0.05514
37.15 -0.05477
37.2 -0.05653
37.25 -0.05707
37.3 -0.063
37.35 -0.0638
37.4 -0.0695
37.45 -0.07394
37.5 -0.07467
37.55 -0.07265
37.6 -0.07048
37.65 -0.07047
37.7 -0.07044
37.75 -0.06946
37.8 -0.06608
37.85 -0.06029
37.9 -0.05735
37.95 -0.05807
38 -0.05531
38.05 -0.05282
38.1 -0.0501
38.15 -0.04596
38.2 -0.04339
38.25 -0.04334
38.3 -0.04683
38.35 -0.05484
38.4 -0.05867
38.45 -0.05768
38.5 -0.05976
38.55 -0.06568
38.6 -0.07373
38.65 -0.07402
38.7 -0.06831
38.75 -0.06669
38.8 -0.06582
38.85 -0.0629
38.9 -0.06431
38.95 -0.06542
39 -0.06559
39.05 -0.06581
39.1 -0.06529
39.15 -0.06522
39.2 -0.05951
39.25 -0.05722
39.3 -0.05155
39.35 -0.04516
39.4 -0.03971
39.45 -0.0396
39.5 -0.04035
39.55 -0.04442
39.6 -0.04946
39.65 -0.05448
39.7 -0.05855
39.75 -0.06143
39.8 -0.06564
39.85 -0.07058
39.9 -0.06818
39.95 -0.06675
40 -0.06473
40.05 -0.06473
40.1 -0.06157
40.15 -0.05328
40.2 -0.04595
40.25 -0.04131
40.3 -0.03694
40.35 -0.03159
40.4 -0.02632
40.45 -0.02039
40.5 -0.01919
40.55 -0.02093
40.6 -0.0273
40.65 -0.03258
40.7 -0.03836
40.75 -0.04185
40.8 -0.03982
40.85 -0.03839
40.9 -0.04106
40.95 -0.04368
41 -0.03927
41.05 -0.03514
41.1 -0.03066
41.15 -0.0283
41.2 -0.02812
41.25 -0.02354
41.3 -0.01619
41.35 -0.01166
41.4 -0.0085
41.45 -0.00864
41.5 -0.01406
41.55 -0.01985
41.6 -0.02319
41.65 -0.0262
41.7 -0.02987
41.75 -0.03017
41.8 -0.03309
41.85 -0.03057
41.9 -0.03152
41.95 -0.03062
42 -0.02675
42.05 -0.02345
42.1 -0.02195
42.15 -0.02191
42.2 -0.02532
42.25 -0.02511
42.3 -0.02222
42.35 -0.01566
42.4 -0.00773
42.45 -0.00321
42.5 -0.00335
42.55 -0.00247
42.6 -0.0034
42.65 -0.00046
42.7 0.00225
42.75 0.00114
42.8 -0.00143
42.85 -0.00724
42.9 -0.01441
42.95 -0.01612
43 -0.02069
43.05 -0.01919
43.1 -0.01994
43.15 -0.02193
43.2 -0.02144
43.25 -0.01717
43.3 -0.01479
43.35 -0.01222
43.4 -0.01384
43.45 -0.01797
43.5 -0.02158
43.55 -0.01855
43.6 -0.0118
43.65 -0.00949
43.7 -0.00427
43.75 0.00199
43.8 0.00564
43.85 0.00772
43.9 0.00405
43.95 -0.00326
44 -0.00781
44.05 -0.01198
44.1 -0.01592
44.15 -0.0174
44.2 -0.01576
44.25 -0.01815
44.3 -0.01628
44.35 -0.01275
44.4 -0.00666
44.45 -0.00568
44.5 -0.00947
44.55 -0.01265
44.6 -0.0118
44.65 -0.0088
44.7 -0.0023
44.75 0.00586
44.8 0.01338
44.85 0.02013
44.9 0.01731
44.95 0.01458
45 0.00934
45.05 0.00824
45.1 0.0087
45.15 0.00686
45.2 0.00442
45.25 0.00013
45.3 -0.00271
45.35 -0.00983
45.4 -0.01319
45.45 -0.01525
45.5 -0.01505
45.55 -0.00992
45.6 -0.00715
45.65 -0.0039
45.7 -0.00644
45.75 -0.00875
45.8 -0.00788
45.85 -0.00589
45.9 -0.00774
45.95 -0.01146
46 -0.01616
46.05 -0.02167
46.1 -0.02009
46.15 -0.01945
46.2 -0.01737
46.25 -0.01846
46.3 -0.02201
46.35 -0.02372
46.4 -0.01966
46.45 -0.014
46.5 -0.01164
46.55 -0.00665
46.6 -0.00196
46.65 0.00488
46.7 0.01128
46.75 0.01849
46.8 0.01957
46.85 0.01578
46.9 0.01056
46.95 0.00831
47 0.00478
47.05 -0.00125
47.1 -0.00192
47.15 -0.00415
47.2 -0.00984
47.25 -0.00927
47.3 -0.00805
47.35 -0.00579
47.4 -0.00329
47.45 -0.00633
47.5 -0.01012
47.55 -0.01509
47.6 -0.02212
47.65 -0.02688
47.7 -0.02974
47.75 -0.0337
47.8 -0.03163
47.85 -0.03182
47.9 -0.03238
47.95 -0.0335
48 -0.02922
48.05 -0.02181
48.1 -0.01396
48.15 -0.00747
48.2 -0.00099
48.25 0.00028
48.3 0.00298
48.35 0.00014
48.4 -0.00353
48.45 -0.01046
48.5 -0.01611
48.55 -0.01822
48.6 -0.01945
48.65 -0.01758
48.7 -0.01666
48.75 -0.01212
48.8 -0.01264
48.85 -0.00881
48.9 -0.00376
48.95 0.00264
49 0.00529
49.05 0.0067
49.1 0.00396
49.15 0.00189
49.2 0.00088
49.25 0.00345
49.3 0.00236
49.35 0.00112
49.4 -0.00035
49.45 0.00233
49.5 0.00117
49.55 -0.00361
49.6 -0.00312
49.65 0.00107
49.7 0.00383
49.75 0.00981
49.8 0.01063
49.85 0.01292
49.9 0.00944
49.95 0.0066
50 0.00612
50.05 0.0016
50.1 0.00173
50.15 0.00299
50.2 0.00306
50.25 0.00553
50.3 0.0026
50.35 0.00454
50.4 0.00259
50.45 0.00456
50.5 0.00576
50.55 0.01028
50.6 0.00979
50.65 0.00448
50.7 0.0017
50.75 -0.00016
50.8 -0.00581
50.85 -0.0082
50.9 -0.00972
50.95 -0.0112
51 -0.00747
51.05 -0.00696
51.1 -0.00915
51.15 -0.01137
51.2 -0.01018
51.25 -0.00977
51.3 -0.00759
51.35 -0.00454
51.4 -0.00527
51.45 -0.00746
51.5 -0.00786
51.55 -0.00317
51.6 0.00442
51.65 0.00666
51.7 0.00678
51.75 0.00608
51.8 0.00922
51.85 0.01239
51.9 0.01426
51.95 0.01185
52 0.0078
52.05 0.00018
52.1 -0.00603
52.15 -0.00667
52.2 -0.01004
52.25 -0.01333
52.3 -0.0147
52.35 -0.01028
52.4 -0.00271
52.45 -0.00073
52.5 -0.00234
52.55 0.00109
52.6 0.00406
52.65 0.00671
52.7 0.00632
52.75 0.00614
52.8 0.00211
52.85 -0.0013
52.9 -0.00344
52.95 -0.00768
53 -0.01164
53.05 -0.01492
53.1 -0.01584
53.15 -0.01811
53.2 -0.01652
53.25 -0.01008
53.3 -0.00561
53.35 -0.00238
53.4 -0.00371
53.45 -0.00776
53.5 -0.01161
53.55 -0.01105
53.6 -0.00706
53.65 -0.00017
53.7 0.00577
53.75 0.0057
53.8 0.00276
53.85 0.0018
53.9 -0.00292
53.95 -0.0019
54 -0.00149
54.05 -0.00178
54.1 -0.0047
54.15 -0.00522
54.2 -0.00292
54.25 -0.00007
54.3 0.00187
54.35 0.00176
54.4 0.00469
54.45 0.00904
54.5 0.0084
54.55 0.00947
54.6 0.01319
54.65 0.01414
54.7 0.0128
54.75 0.00632
54.8 0.00365
54.85 0.00024
54.9 0.00204
54.95 0.00501
55 0.00681
55.05 0.00899
55.1 0.00926
55.15 0.01257
55.2 0.01371
55.25 0.0164
55.3 0.01708
55.35 0.01722
55.4 0.0112
55.45 0.00811
55.5 0.00152
55.55 -0.00391
55.6 -0.00659
55.65 -0.00465
55.7 -0.00135
55.75 0.00454
55.8 0.00304
55.85 0.00427
55.9 0.00531
55.95 0.0098
56 0.01366
56.05 0.0166
56.1 0.01551
56.15 0.00924
56.2 0.00151
56.25 -0.00649
56.3 -0.01427
56.35 -0.01984
56.4 -0.01869
56.45 -0.01345
56.5 -0.01146
56.55 -0.00974
56.6 -0.00931
56.65 -0.00987
56.7 -0.0084
56.75 -0.00671
56.8 -0.00493
56.85 -0.00148
56.9 -0.00014
56.95 0.00402
57 0.00555
57.05 0.00311
57.1 0.00146
57.15 -0.00456
57.2 -0.0036
57.25 -0.00163
57.3 -0.0047
57.35 -0.00995
57.4 -0.01076
57.45 -0.00907
57.5 -0.00756
57.55 -0.00805
57.6 -0.01123
57.65 -0.01694
57.7 -0.02107
57.75 -0.0234
57.8 -0.02537
57.85 -0.02582
57.9 -0.02196
57.95 -0.01933
58 -0.01734
58.05 -0.01741
58.1 -0.0174
58.15 -0.01824
58.2 -0.01244
58.25 -0.01191
58.3 -0.00731
58.35 -0.00155
58.4 0.00015
58.45 0.00198
58.5 0.00515
58.55 0.00697
58.6 0.006
58.65 0.00708
58.7 0.01163
58.75 0.01524
58.8 0.01678
58.85 0.01789
58.9 0.01465
58.95 0.01196
59 0.01221
59.05 0.01595
59.1 0.01337
59.15 0.0064
59.2 0.00474
59.25 0.00511
59.3 0.00619
59.35 0.01007
59.4 0.0148
59.45 0.01701
59.5 0.02028
59.55 0.01592
59.6 0.00729
59.65 0.00081
59.7 -0.00091
59.75 0.00171
59.8 0.00714
59.85 0.00968
59.9 0.00981
59.95 0.00547
60 0.00122
60.05 -0.00046
60.1 -0.0052
60.15 -0.00466
60.2 -0.00783
60.25 -0.00542
60.3 -0.00778
60.35 -0.00465
60.4 0.00047
60.45 0.007
60.5 0.01405
60.55 0.01695
60.6 0.01844
60.65 0.01552
60.7 0.01498
60.75 0.01128
60.8 0.00787
60.85 0.00397
60.9 0.0053
60.95 0.00452
61 -0.00128
61.05 -0.00841
61.1 -0.01156
61.15 -0.01695
61.2 -0.01995
61.25 -0.0163
61.3 -0.01274
61.35 -0.01307
61.4 -0.00814
61.45 -0.00557
61.5 -0.00713
61.55 -0.00362
61.6 -0.00595
61.65 -0.00452
61.7 0.00059
61.75 0.00422
61.8 0.00857
61.85 0.00655
61.9 0.00379
61.95 0.00017
62 0.00166
62.05 0.00637
62.1 0.00831
62.15 0.00547
62.2 0.00311
62.25 0.00143
62.3 0.003
62.35 0.00008
62.4 -0.00353
62.45 -0.00554
62.5 -0.00299
62.55 -0.00353
62.6 -0.00376
62.65 -0.00602
62.7 -0.0082
62.75 -0.00619
62.8 -0.00664
62.85 -0.00813
62.9 -0.00762
62.95 -0.01033
63 -0.01189
63.05 -0.00912
63.1 -0.00213
63.15 -0.00132
63.2 0.00063
63.25 0.00513
63.3 0.00799
63.35 0.01066
63.4 0.00693
63.45 0.00629
63.5 0.00546
63.55 0.00041
63.6 -0.0012
63.65 -0.0067
63.7 -0.00855
63.75 -0.01209
63.8 -0.01067
63.85 -0.01121
63.9 -0.01338
63.95 -0.01258
64 -0.00665
64.05 -0.00552
64.1 -0.00752
64.15 -0.011
64.2 -0.01135
64.25 -0.01452
64.3 -0.01245
64.35 -0.01023
64.4 -0.00974
64.45 -0.01032
64.5 -0.01213
64.55 -0.01236
64.6 -0.01561
64.65 -0.0136
64.7 -0.01523
64.75 -0.01837
64.8 -0.02245
64.85 -0.02111
64.9 -0.01779
64.95 -0.01094
65 -0.0029
65.05 0.00448
65.1 0.00474
65.15 0.00797
65.2 0.01374
65.25 0.02105
65.3 0.02843
65.35 0.03547
65.4 0.03376
65.45 0.03254
65.5 0.03335
65.55 0.02689
65.6 0.02228
65.65 0.02005
65.7 0.01542
65.75 0.0077
65.8 -0.00068
65.85 -0.00607
65.9 -0.00935
65.95 -0.00784
66 -0.0099
66.05 -0.01303
66.1 -0.01736
66.15 -0.01935
66.2 -0.01829
66.25 -0.01848
66.3 -0.02155
66.35 -0.01951
66.4 -0.02131
66.45 -0.01613
66.5 -0.0105
66.55 -0.00364
66.6 0.00331
66.65 0.00351
66.7 0.00193
66.75 -0.00349
66.8 -0.00998
66.85 -0.01172
66.9 -0.00819
66.95 -0.00332
67 -0.00426
67.05 -0.00285
67.1 -0.00457
67.15 -0.00595
67.2 -0.00349
67.25 0.00007
67.3 0.00134
67.35 0.00057
67.4 -0.00298
67.45 -0.0015
67.5 -0.0032
67.55 -0.00161
67.6 -0.00063
67.65 -0.00392
67.7 -0.00106
67.75 -0.00129
67.8 -0.00514
67.85 -0.01028
67.9 -0.01572
67.95 -0.02199
68 -0.01969
68.05 -0.01528
68.1 -0.00702
68.15 -0.00518
68.2 -0.00349
68.25 0.00242
68.3 0.00371
68.35 0.00139
68.4 -0.00297
68.45 -0.00558
68.5 -0.00373
68.55 -0.00521
68.6 -0.00599
68.65 -0.00513
68.7 -0.00064
68.75 -0.00167
68.8 -0.00428
68.85 -0.00076
68.9 0.00338
68.95 0.00802
69 0.01328
69.05 0.01175
69.1 0.00834
69.15 0.00563
69.2 0.00554
69.25 0.00697
69.3 0.00514
69.35 0.00812
69.4 0.00724
69.45 0.00935
69.5 0.01038
69.55 0.01412
69.6 0.01819
69.65 0.0174
69.7 0.01926
69.75 0.01585
69.8 0.01307
69.85 0.01459
69.9 0.01001
69.95 0.00629
70 0.0039
70.05 0.00043
70.1 -0.00107
70.15 -0.00407
70.2 -0.00145
70.25 -0.00267
70.3 -0.00315
70.35 -0.00136
70.4 0.00131
70.45 0.00641
70.5 0.00694
70.55 0.00718
70.6 0.00891
70.65 0.01368
70.7 0.01493
70.75 0.01745
70.8 0.01757
70.85 0.01438
70.9 0.00961
70.95 0.00311
71 -0.00521
71.05 -0.00851
71.1 -0.01013
71.15 -0.01071
71.2 -0.01362
71.25 -0.01688
71.3 -0.01367
71.35 -0.00895
71.4 -0.0006
71.45 0.00218
71.5 0.00686
71.55 0.01325
71.6 0.01756
71.65 0.02096
71.7 0.01846
71.75 0.01569
71.8 0.01639
71.85 0.01594
71.9 0.01371
71.95 0.01225
72 0.00857
72.05 0.00925
72.1 0.00814
72.15 0.00465
72.2 -0.00269
72.25 -0.00421
72.3 -0.00744
72.35 -0.00828
72.4 -0.00462
72.45 -0.00403
72.5 -0.00042
72.55 0.00253
72.6 0.00617
72.65 0.00317
72.7 -0.00084
72.75 -0.00775
72.8 -0.0147
72.85 -0.02011
72.9 -0.02192
72.95 -0.01972
73 -0.01304
73.05 -0.00644
73.1 0.0026
73.15 0.00499
73.2 0.00498
73.25 0.00069
73.3 -0.00037
73.35 0.00274
73.4 0.00009
73.45 -0.00069
73.5 -0.00585
73.55 -0.01131
73.6 -0.01082
73.65 -0.00706
73.7 -0.00576
73.75 -0.00233
73.8 -0.00105
73.85 -0.00277
73.9 -0.00178
73.95 -0.00132
74 -0.00191
74.05 -0.00664
74.1 -0.00465
74.15 0.00046
74.2 0.00464
74.25 0.00439
74.3 0.00186
74.35 -0.00276
74.4 -0.00395
74.45 -0.00768
74.5 -0.00755
74.55 -0.00519
74.6 -0.00324
74.65 -0.00409
74.7 -0.00097
74.75 -0.00189
74.8 -0.00656
74.85 -0.01013
74.9 -0.01357
74.95 -0.01222
75 -0.01405
75.05 -0.0112
75.1 -0.01193
75.15 -0.01078
75.2 -0.0094
75.25 -0.01118
75.3 -0.00672
75.35 -0.00517
75.4 -0.00038
75.45 -0.00097
75.5 -0.00197
75.55 -0.00644
75.6 -0.00805
75.65 -0.01093
75.7 -0.01091
75.75 -0.00632
75.8 0.00031
75.85 0.00174
75.9 0.00506
75.95 0.00272
76 -0.00117
76.05 -0.00801
76.1 -0.01042
76.15 -0.01085
76.2 -0.01197
76.25 -0.00712
76.3 0.00107
76.35 0.00862
76.4 0.01147
76.45 0.01629
76.5 0.02152
76.55 0.02084
76.6 0.02281
76.65 0.01973
76.7 0.01344
76.75 0.00793
76.8 0.00225
76.85 0.00132
76.9 0.00132
76.95 0.00352
77 0.00427
77.05 0.0004
77.1 -0.00414
77.15 -0.01054
77.2 -0.01245
77.25 -0.01388
77.3 -0.01797
77.35 -0.02095
77.4 -0.01853
77.45 -0.0124
77.5 -0.00576
77.55 0.00303
77.6 0.0038
77.65 0.00154
77.7 -0.00132
77.75 -0.00231
77.8 -0.00295
77.85 -0.00288
77.9 -0.00624
77.95 -0.00868
78 -0.00613
78.05 -0.00368
78.1 -0.00055
78.15 0.00574
78.2 0.01115
78.25 0.01769
78.3 0.01763
78.35 0.01777
78.4 0.01578
78.45 0.01083
78.5 0.01061
78.55 0.00505
78.6 0.00095
78.65 -0.00592
78.7 -0.0106
78.75 -0.00818
78.8 -0.00511
78.85 -0.00284
78.9 -0.00031
78.95 0.00532
79 0.00379
79.05 -0.00203
79.1 -0.00731
79.15 -0.01353
79.2 -0.01913
79.25 -0.02121
79.3 -0.02448
79.35 -0.02588
79.4 -0.02329
79.45 -0.01799
79.5 -0.00873
79.55 -0.00062
79.6 0.00446
79.65 0.01145
79.7 0.01053
79.75 0.00904
79.8 0.00649
79.85 0.0019
79.9 0.00298
79.95 0.00231
80 -0.00234
80.05 -0.00813
80.1 -0.01441
80.15 -0.01839
80.2 -0.01817
80.25 -0.0208
80.3 -0.02292
80.35 -0.02103
80.4 -0.01946
80.45 -0.02021
80.5 -0.01461
80.55 -0.01336
80.6 -0.01179
80.65 -0.0062
80.7 -0.00468
80.75 -0.00673
80.8 -0.00863
80.85 -0.00415
80.9 -0.00068
80.95 -0.00116
81 0.00111
81.05 0.00432
81.1 0.00932
81.15 0.00999
81.2 0.00936
81.25 0.00628
81.3 0.00818
81.35 0.01152
81.4 0.01428
81.45 0.01699
81.5 0.01906
81.55 0.02219
81.6 0.02255
81.65 0.0205
81.7 0.02039
81.75 0.02025
81.8 0.01941
81.85 0.01396
81.9 0.01368
81.95 0.01133
82 0.00545
82.05 0.0012
82.1 0.00303
82.15 0.0023
82.2 0.00261
82.25 0.00577
82.3 0.0055
82.35 0.00689
82.4 0.00673
82.45 0.00214
82.5 -0.00345
82.55 -0.00962
82.6 -0.01511
82.65 -0.01359
82.7 -0.01008
82.75 -0.01082
82.8 -0.01215
82.85 -0.01648
82.9 -0.02172
82.95 -0.02587
83 -0.0251
83.05 -0.02667
83.1 -0.02079
83.15 -0.01566
83.2 -0.00683
83.25 -0.00218
83.3 0.00562
83.35 0.00691
83.4 0.00285
83.45 -0.00394
83.5 -0.01145
83.55 -0.01547
83.6 -0.01719
83.65 -0.02045
83.7 -0.01615
83.75 -0.01363
83.8 -0.01145
83.85 -0.00702
83.9 -0.00253
83.95 0.00459
84 0.01044
84.05 0.00916
84.1 0.01232
84.15 0.01492
84.2 0.01728
84.25 0.02149
84.3 0.02111
84.35 0.02165
84.4 0.01894
84.45 0.01186
84.5 0.00876
84.55 0.00428
84.6 0.00006
84.65 -0.00343
84.7 -0.00234
84.75 0.00206
84.8 0.00542
84.85 0.01006
84.9 0.01576
84.95 0.01496
85 0.01258
85.05 0.00986
85.1 0.00752
85.15 0.00324
85.2 0.0023
85.25 -0.00011
85.3 -0.00025
85.35 -0.00469
85.4 -0.00306
85.45 -0.00545
85.5 -0.00599
85.55 -0.00647
85.6 -0.00273
85.65 -0.00477
85.7 -0.00686
85.75 -0.00935
85.8 -0.01325
85.85 -0.01387
85.9 -0.0157
85.95 -0.01128
86 -0.01097
86.05 -0.01313
86.1 -0.01228
86.15 -0.01133
86.2 -0.01133
86.25 -0.00685
86.3 -0.00037
86.35 0.00422
86.4 0.00308
86.45 0.00092
86.5 -0.00033
86.55 -0.00188
86.6 -0.00186
86.65 -0.00597
86.7 -0.00821
86.75 -0.0099
86.8 -0.00674
86.85 -0.00352
86.9 0.00341
86.95 0.00579
87 0.00769
87.05 0.01312
87.1 0.01436
87.15 0.01023
87.2 0.01106
87.25 0.01036
87.3 0.00936
87.35 0.00633
87.4 0.00371
87.45 0.00176
87.5 0.00337
87.55 0.00711
87.6 0.00757
87.65 0.00494
87.7 -0.00149
87.75 -0.00157
87.8 0.00281
87.85 0.00255
87.9 0.00611
87.95 0.00667
88 0.00459
88.05 0.00553
88.1 0.00732
88.15 0.00463
88.2 -0.00199
88.25 -0.00812
88.3 -0.01588
88.35 -0.02013
88.4 -0.02181
88.45 -0.02329
88.5 -0.01941
88.55 -0.01706
88.6 -0.01442
88.65 -0.00862
88.7 0.0003
88.75 0.01023
88.8 0.01925
88.85 0.02443
88.9 0.02607
88.95 0.02118
89 0.0133
89.05 0.00996
89.1 0.0107
89.15 0.01106
89.2 0.01509
89.25 0.0185
89.3 0.01832
89.35 0.01518
89.4 0.01563
89.45 0.01864
89.5 0.01582
89.55 0.01504
89.6 0.00864
89.65 0.00283
89.7 -0.00353
89.75 -0.01167
89.8 -0.01161
89.85 -0.01461
89.9 -0.01351
89.95 -0.01235
90 -0.00964
90.05 -0.00641
90.1 0.00063
90.15 0.00652
90.2 0.00516
90.25 0.00038
90.3 -0.0024
90.35 0.00032
90.4 0.00047
90.45 -0.00195
90.5 -0.00434
90.55 -0.00431
90.6 -0.00782
90.65 -0.00488
90.7 -0.00047
90.75 0.00207
90.8 0.00472
90.85 0.00338
90.9 0.00606
90.95 0.00404
91 -0.0008
91.05 -0.00319
91.1 -0.00103
91.15 0.00258
91.2 0.00262
91.25 0.00265
91.3 0.00384
91.35 0.00733
91.4 0.00688
91.45 0.00325
91.5 -0.00011
91.55 -0.00349
91.6 -0.00976
91.65 -0.01717
91.7 -0.01868
91.75 -0.01754
91.8 -0.01106
91.85 -0.0036
91.9 -0.0009
91.95 0.00444
92 0.00821
92.05 0.01296
92.1 0.01131
92.15 0.01393
92.2 0.00978
92.25 0.00382
92.3 0.00107
92.35 0.00259
92.4 -0.00127
92.45 -0.00726
92.5 -0.0123
92.55 -0.0154
92.6 -0.01498
92.65 -0.01739
92.7 -0.01473
92.75 -0.01206
92.8 -0.0071
92.85 -0.00752
92.9 -0.00662
92.95 -0.00496
93 0.00036
93.05 -0.00016
93.1 0.00045
93.15 0.00438
93.2 0.00247
93.25 0.00148
93.3 0.00473
93.35 0.0033
93.4 -0.00005
93.45 -0.00114
93.5 -0.00444
93.55 -0.00861
93.6 -0.01228
93.65 -0.01168
93.7 -0.0143
93.75 -0.01899
93.8 -0.01938
93.85 -0.01518
93.9 -0.00885
93.95 -0.00238
94 0.00647
94.05 0.00778
94.1 0.00585
94.15 0.00713
94.2 0.01001
94.25 0.0133
94.3 0.01783
94.35 0.02385
94.4 0.02343
94.45 0.02042
94.5 0.02057
94.55 0.02256
94.6 0.01968
94.65 0.01993
94.7 0.01829
94.75 0.01369
94.8 0.00693
94.85 0.00185
94.9 -0.00348
94.95 -0.00809
95 -0.00868
95.05 -0.01106
95.1 -0.01072
95.15 -0.00727
95.2 -0.00873
95.25 -0.00749
95.3 -0.00544
95.35 -0.00434
95.4 -0.00275
95.45 -0.00041
95.5 0.00488
95.55 0.00312
95.6 0.00096
95.65 0.00385
95.7 0.00685
95.75 0.00414
95.8 0.00431
95.85 -0.00054
95.9 0.0008
95.95 -0.00229
96 -0.00017
96.05 0.00335
96.1 0.00183
96.15 0.00343
96.2 0.00163
96.25 0.00457
96.3 0.01051
96.35 0.00858
96.4 0.01097
96.45 0.0107
96.5 0.00662
96.55 0.00428
96.6 0.00064
96.65 -0.00273
96.7 -0.00699
96.75 -0.00512
96.8 -0.0015
96.85 0.00354
96.9 0.00938
96.95 0.0159
97 0.01555
97.05 0.01368
97.1 0.00795
97.15 -0.00017
97.2 -0.00234
97.25 -0.00007
97.3 0.00003
97.35 0.0002
97.4 0.0008
97.45 -0.00376
97.5 -0.01105
97.55 -0.01328
97.6 -0.01717
97.65 -0.02026
97.7 -0.01844
97.75 -0.01697
97.8 -0.0179
97.85 -0.01972
97.9 -0.02074
97.95 -0.01607
98 -0.01044
98.05 -0.00453
98.1 0.00363
98.15 0.00575
98.2 0.0067
98.25 0.00295
98.3 -0.00169
98.35 -0.00102
98.4 -0.00193
98.45 -0.00265
98.5 0.00163
98.55 0.00606
98.6 0.01244
98.65 0.01094
98.7 0.00532
98.75 0.00117
98.8 0.00071
98.85 0.00136
98.9 -0.00194
98.95 -0.00081
99 0.00169
99.05 0.00577
99.1 0.00593
99.15 0.00144
99.2 -0.00564
99.25 -0.01301
99.3 -0.01325
99.35 -0.01687
99.4 -0.0212
99.45 -0.0255
99.5 -0.02651
99.55 -0.0283
99.6 -0.02518
99.65 -0.02294
99.7 -0.02038
99.75 -0.01482
99.8 -0.00569
99.85 0.00067
99.9 0.00042
99.95 -0.00106
