0 0
0.05 0.00337
0.1 0.00955
0.15 0.02114
0.2 0.03248
0.25 0.04216
0.3 0.0463
0.35 0.04916
0.4 0.05073
0.45 0.05479
0.5 0.05454
0.55 0.05861
0.6 0.06474
0.65 0.07087
0.7 0.06959
0.75 0.06794
0.8 0.06469
0.85 0.062
0.9 0.05654
0.95 0.04833
1 0.03888
1.05 0.03676
1.1 0.03817
1.15 0.03623
1.2 0.0378
1.25 0.03675
1.3 0.03796
1.35 0.03976
1.4 0.03675
1.45 0.03368
1.5 0.03167
1.55 0.03349
1.6 0.0351
1.65 0.03762
1.7 0.03647
1.75 0.0327
1.8 0.0269
1.85 0.02357
1.9 0.01964
1.95 0.01523
2 0.01103
2.05 0.00845
2.1 0.00582
2.15 0.00647
2.2 0.0124
2.25 0.02063
2.3 0.02437
2.35 0.02636
2.4 0.02982
2.45 0.03109
2.5 0.03296
2.55 0.03506
2.6 0.03539
2.65 0.03202
2.7 0.02773
2.75 0.02942
2.8 0.03378
2.85 0.03801
2.9 0.0364
2.95 0.03267
3 0.03371
3.05 0.03782
3.1 0.03497
3.15 0.02969
3.2 0.03031
3.25 0.02772
3.3 0.02149
3.35 0.01715
3.4 0.01526
3.45 0.01105
3.5 0.00752
3.55 0.01059
3.6 0.01423
3.65 0.01914
3.7 0.02557
3.75 0.02759
3.8 0.02874
3.85 0.02691
3.9 0.02684
3.95 0.02643
4 0.02271
4.05 0.02037
4.1 0.01872
4.15 0.01409
4.2 0.01417
4.25 0.01396
4.3 0.01184
4.35 0.00447
4.4 -0.00121
4.45 -0.00956
4.5 -0.02194
4.55 -0.0322
4.6 -0.03897
4.65 -0.04762
4.7 -0.05903
4.75 -0.07358
4.8 -0.0954
4.85 -0.12224
4.9 -0.15251
4.95 -0.18756
5 -0.22454
5.05 -0.26568
5.1 -0.3145
5.15 -0.36741
5.2 -0.43352
5.25 -0.50154
5.3 -0.58122
5.35 -0.66188
5.4 -0.74712
5.45 -0.83365
5.5 -0.93051
5.55 -1.03199
5.6 -1.13643
5.65 -1.24139
5.7 -1.34302
5.75 -1.44485
5.8 -1.54622
5.85 -1.64124
5.9 -1.73353
5.95 -1.81806
6 -1.89479
6.05 -1.96575
6.1 -2.03275
6.15 -2.09803
6.2 -2.15949
6.25 -2.22053
6.3 -2.27788
6.35 -2.32715
6.4 -2.37363
6.45 -2.416
6.5 -2.45194
6.55 -2.47539
6.6 -2.4883
6.65 -2.4891
6.7 -2.47816
6.75 -2.45078
6.8 -2.41523
6.85 -2.35986
6.9 -2.28899
6.95 -2.20606
7 -2.10223
7.05 -1.98348
7.1 -1.84698
7.15 -1.69867
7.2 -1.53553
7.25 -1.35821
7.3 -1.17261
7.35 -0.98547
7.4 -0.79195
7.45 -0.59392
7.5 -0.39026
7.55 -0.18734
7.6 0.01811
7.65 0.22122
7.7 0.41576
7.75 0.60389
7.8 0.77906
7.85 0.94435
7.9 1.10152
7.95 1.24497
8 1.37377
8.05 1.49359
8.1 1.59953
8.15 1.6995
8.2 1.78781
8.25 1.86462
8.3 1.9307
8.35 1.99259
8.4 2.04828
8.45 2.09809
8.5 2.13293
8.55 2.15743
8.6 2.17828
8.65 2.19016
8.7 2.1981
8.75 2.2003
8.8 2.1982
8.85 2.19713
8.9 2.19313
8.95 2.18716
9 2.17843
9.05 2.16212
9.1 2.14557
9.15 2.13036
9.2 2.1143
9.25 2.09639
9.3 2.07126
9.35 2.04713
9.4 2.02247
9.45 1.99724
9.5 1.97033
9.55 1.93914
9.6 1.90644
9.65 1.87537
9.7 1.84175
9.75 1.81037
9.8 1.7768
9.85 1.745
9.9 1.71684
9.95 1.69047
10 1.66079
10.05 1.6251
10.1 1.58933
10.15 1.55106
10.2 1.5098
10.25 1.47063
10.3 1.4352
10.35 1.39368
10.4 1.35575
10.45 1.31328
10.5 1.26593
10.55 1.22079
10.6 1.1745
10.65 1.1249
10.7 1.07615
10.75 1.0285
10.8 0.98276
10.85 0.93549
10.9 0.88709
10.95 0.84069
11 0.79265
11.05 0.7443
11.1 0.69829
11.15 0.65834
11.2 0.61925
11.25 0.57709
11.3 0.53852
11.35 0.49701
11.4 0.46154
11.45 0.42973
11.5 0.39124
11.55 0.35742
11.6 0.31852
11.65 0.27683
11.7 0.23897
11.75 0.20556
11.8 0.17395
11.85 0.1462
11.9 0.12041
11.95 0.0893
12 0.05413
12.05 0.021
12.1 -0.01087
12.15 -0.03511
12.2 -0.05743
12.25 -0.08342
12.3 -0.10345
12.35 -0.12441
12.4 -0.1462
12.45 -0.16491
12.5 -0.18742
12.55 -0.20874
12.6 -0.22692
12.65 -0.24245
12.7 -0.26062
12.75 -0.27861
12.8 -0.29351
12.85 -0.3013
12.9 -0.30424
12.95 -0.30543
13 -0.30817
13.05 -0.3136
13.1 -0.31589
13.15 -0.32143
13.2 -0.33175
13.25 -0.33799
13.3 -0.34486
13.35 -0.35106
13.4 -0.35582
13.45 -0.36053
13.5 -0.3635
13.55 -0.36518
13.6 -0.36255
13.65 -0.35816
13.7 -0.35765
13.75 -0.35699
13.8 -0.35525
13.85 -0.35793
13.9 -0.35627
13.95 -0.35596
14 -0.35563
14.05 -0.35523
14.1 -0.35147
14.15 -0.34595
14.2 -0.34517
14.25 -0.34894
14.3 -0.34959
14.35 -0.34533
14.4 -0.34168
14.45 -0.34214
14.5 -0.33792
14.55 -0.33749
14.6 -0.3317
14.65 -0.32878
14.7 -0.3272
14.75 -0.32721
14.8 -0.32924
14.85 -0.33278
14.9 -0.33062
14.95 -0.32396
15 -0.31325
15.05 -0.30001
15.1 -0.29094
15.15 -0.28365
15.2 -0.27575
15.25 -0.27178
15.3 -0.26745
15.35 -0.26699
15.4 -0.26976
15.45 -0.27497
15.5 -0.27229
15.55 -0.26983
15.6 -0.26297
15.65 -0.25954
15.7 -0.25112
15.75 -0.2469
15.8 -0.24315
15.85 -0.23682
15.9 -0.23281
15.95 -0.23224
16 -0.22934
16.05 -0.22181
16.1 -0.21722
16.15 -0.20918
16.2 -0.19939
16.25 -0.19191
16.3 -0.18452
16.35 -0.17676
16.4 -0.17151
16.45 -0.16997
16.5 -0.16668
16.55 -0.16177
16.6 -0.16323
16.65 -0.16633
16.7 -0.17292
16.75 -0.17579
16.8 -0.17792
16.85 -0.1742
16.9 -0.17445
16.95 -0.17753
17 -0.17964
17.05 -0.17537
17.1 -0.16849
17.15 -0.16289
17.2 -0.16304
17.25 -0.16485
17.3 -0.16894
17.35 -0.16848
17.4 -0.16371
17.45 -0.1551
17.5 -0.14966
17.55 -0.14944
17.6 -0.15247
17.65 -0.14877
17.7 -0.14613
17.75 -0.13965
17.8 -0.13111
17.85 -0.12082
17.9 -0.11236
17.95 -0.10737
18 -0.10241
18.05 -0.0973
18.1 -0.09146
18.15 -0.08628
18.2 -0.08796
18.25 -0.09219
18.3 -0.0932
18.35 -0.09259
18.4 -0.09546
18.45 -0.09568
18.5 -0.09524
18.55 -0.09131
18.6 -0.08757
18.65 -0.08244
18.7 -0.0817
18.75 -0.08413
18.8 -0.08744
18.85 -0.09274
18.9 -0.09514
18.95 -0.1001
19 -0.10264
19.05 -0.0991
19.1 -0.09735
19.15 -0.09671
19.2 -0.09112
19.25 -0.09015
19.3 -0.09319
19.35 -0.09432
19.4 -0.09358
19.45 -0.09108
19.5 -0.08863
19.55 -0.08488
19.6 -0.07834
19.65 -0.07544
19.7 -0.07158
19.75 -0.06573
19.8 -0.05991
19.85 -0.05607
19.9 -0.05498
19.95 -0.05871
20 -0.05876
20.05 -0.06018
20.1 -0.06346
20.15 -0.06536
20.2 -0.06328
20.25 -0.06305
20.3 -0.06101
20.35 -0.05898
20.4 -0.05685
20.45 -0.05871
20.5 -0.05973
20.55 -0.05856
20.6 -0.05971
20.65 -0.05592
20.7 -0.05216
20.75 -0.05113
20.8 -0.05527
20.85 -0.05374
20.9 -0.05667
20.95 -0.0547
21 -0.05074
21.05 -0.05006
21.1 -0.05071
21.15 -0.05289
21.2 -0.04977
21.25 -0.04909
21.3 -0.05122
21.35 -0.04919
21.4 -0.04319
21.45 -0.0438
21.5 -0.04036
21.55 -0.03666
21.6 -0.03206
21.65 -0.03154
21.7 -0.03147
21.75 -0.03235
21.8 -0.03371
21.85 -0.03638
21.9 -0.0429
21.95 -0.04261
22 -0.03744
22.05 -0.03465
22.1 -0.03457
22.15 -0.03501
22.2 -0.03339
22.25 -0.02831
22.3 -0.0215
22.35 -0.01744
22.4 -0.01545
22.45 -0.01954
22.5 -0.01915
22.55 -0.0161
22.6 -0.01403
22.65 -0.01887
22.7 -0.02469
22.75 -0.03097
22.8 -0.0384
22.85 -0.04338
22.9 -0.04215
22.95 -0.03774
23 -0.03547
23.05 -0.03147
23.1 -0.02598
23.15 -0.02223
23.2 -0.02197
23.25 -0.01911
23.3 -0.02058
23.35 -0.02
23.4 -0.01692
23.45 -0.01176
23.5 -0.01088
23.55 -0.00785
23.6 -0.01148
23.65 -0.01461
23.7 -0.01815
23.75 -0.0227
23.8 -0.02774
23.85 -0.0289
23.9 -0.02631
23.95 -0.02909
24 -0.02622
24.05 -0.02785
24.1 -0.02549
24.15 -0.02459
24.2 -0.02268
24.25 -0.01785
24.3 -0.01971
24.35 -0.01967
24.4 -0.02125
24.45 -0.02269
24.5 -0.02788
24.55 -0.03206
24.6 -0.03165
24.65 -0.03192
24.7 -0.03143
24.75 -0.02597
24.8 -0.02174
24.85 -0.01608
24.9 -0.01048
24.95 -0.00462
25 0.00215
25.05 0.0086
25.1 0.00974
25.15 0.01222
25.2 0.01217
25.25 0.01303
25.3 0.00669
25.35 0.00117
25.4 -0.00232
25.45 -0.00484
25.5 -0.01089
25.55 -0.01523
25.6 -0.02074
25.65 -0.0277
25.7 -0.03262
25.75 -0.03089
25.8 -0.03167
25.85 -0.02999
25.9 -0.03061
25.95 -0.03134
26 -0.03381
26.05 -0.03692
26.1 -0.03549
26.15 -0.02976
26.2 -0.02267
26.25 -0.01586
26.3 -0.01555
26.35 -0.01848
26.4 -0.02309
26.45 -0.02777
26.5 -0.02671
26.55 -0.02289
26.6 -0.02224
26.65 -0.01885
26.7 -0.01828
26.75 -0.01466
26.8 -0.01411
26.85 -0.01031
26.9 -0.00628
26.95 -0.00837
27 -0.01283
27.05 -0.01914
27.1 -0.01814
27.15 -0.01563
27.2 -0.01023
27.25 -0.00861
27.3 -0.00323
27.35 -0.00357
27.4 -0.00543
27.45 -0.00342
27.5 -0.00349
27.55 -0.00611
27.6 -0.00336
27.65 -0
27.7 0.00125
27.75 -0.00238
27.8 -0.00801
27.85 -0.01127
27.9 -0.00866
27.95 -0.00392
28 0.00062
28.05 0.00172
28.1 -0.00156
28.15 -0.00263
28.2 -0.00447
28.25 -0.00531
28.3 -0.00378
28.35 -0.00689
28.4 -0.0094
28.45 -0.01422
28.5 -0.01448
28.55 -0.0159
28.6 -0.01711
28.65 -0.01345
28.7 -0.01115
28.75 -0.01102
28.8 -0.01402
28.85 -0.01474
28.9 -0.0167
28.95 -0.01507
29 -0.01569
29.05 -0.018
29.1 -0.01706
29.15 -0.01554
29.2 -0.01272
29.25 -0.00904
29.3 -0.0112
29.35 -0.01415
29.4 -0.01831
29.45 -0.01808
29.5 -0.01756
29.55 -0.01658
29.6 -0.01608
29.65 -0.02074
29.7 -0.02225
29.75 -0.02386
29.8 -0.02192
29.85 -0.01839
29.9 -0.02249
29.95 -0.02786
30 -0.03428
30.05 -0.04013
30.1 -0.04399
30.15 -0.04803
30.2 -0.0518
30.25 -0.04904
30.3 -0.04757
30.35 -0.04681
30.4 -0.04759
30.45 -0.04685
30.5 -0.04148
30.55 -0.03297
30.6 -0.02372
30.65 -0.02021
30.7 -0.02305
30.75 -0.02799
30.8 -0.03367
30.85 -0.03518
30.9 -0.03224
30.95 -0.0277
31 -0.0235
31.05 -0.02255
31.1 -0.02227
31.15 -0.02313
31.2 -0.01807
31.25 -0.01485
31.3 -0.01367
31.35 -0.01216
31.4 -0.01213
31.45 -0.01251
31.5 -0.01186
31.55 -0.01182
31.6 -0.01126
31.65 -0.0026
31.7 0.00408
31.75 0.0082
31.8 0.01411
31.85 0.01977
31.9 0.02698
31.95 0.0362
32 0.04231
32.05 0.04651
32.1 0.04807
32.15 0.05199
32.2 0.0498
32.25 0.04969
32.3 0.04654
32.35 0.04305
32.4 0.03797
32.45 0.03616
32.5 0.03783
32.55 0.0381
32.6 0.04046
32.65 0.04495
32.7 0.04432
32.75 0.04365
32.8 0.04209
32.85 0.03905
32.9 0.03893
32.95 0.03825
33 0.03934
33.05 0.03768
33.1 0.0354
33.15 0.03661
33.2 0.03976
33.25 0.0446
33.3 0.0459
33.35 0.04823
33.4 0.04773
33.45 0.04628
33.5 0.04564
33.55 0.04012
33.6 0.03789
33.65 0.03664
33.7 0.02981
33.75 0.02116
33.8 0.01495
33.85 0.01199
33.9 0.01205
33.95 0.01402
34 0.01551
34.05 0.01879
34.1 0.02126
34.15 0.01637
34.2 0.00812
34.25 0.00012
34.3 -0.00942
34.35 -0.01835
34.4 -0.02098
34.45 -0.01929
34.5 -0.01298
34.55 -0.00929
34.6 -0.00978
34.65 -0.00898
34.7 -0.00439
34.75 -0.00338
34.8 -0.00038
34.85 0.00129
34.9 0.00463
34.95 0.00144
35 -0.0002
35.05 0.00159
35.1 0.00119
35.15 -0.00296
35.2 -0.01027
35.25 -0.01382
35.3 -0.01772
35.35 -0.01489
35.4 -0.0155
35.45 -0.01588
35.5 -0.01976
35.55 -0.02493
35.6 -0.02865
35.65 -0.02878
35.7 -0.03115
35.75 -0.03033
35.8 -0.02949
35.85 -0.0293
35.9 -0.02255
35.95 -0.01859
36 -0.01384
36.05 -0.00537
36.1 -0.00131
36.15 0.00072
36.2 0.00282
36.25 0.00413
36.3 0.00694
36.35 0.01223
36.4 0.00962
36.45 0.00915
36.5 0.01032
36.55 0.00645
36.6 0.00626
36.65 0.00977
36.7 0.00901
36.75 0.00372
36.8 -0.00436
36.85 -0.00651
36.9 -0.01023
36.95 -0.01438
37 -0.01184
37.05 -0.01113
37.1 -0.00831
37.15 -0.00309
37.2 0.00407
37.25 0.00643
37.3 0.01096
37.35 0.01084
37.4 0.01011
37.45 0.00783
37.5 0.00893
37.55 0.00888
37.6 0.01087
37.65 0.00689
37.7 0.00445
37.75 -0.00047
37.8 -0.00704
37.85 -0.00892
37.9 -0.01052
37.95 -0.01479
38 -0.01906
38.05 -0.01616
38.1 -0.01011
38.15 -0.00776
38.2 -0.00941
38.25 -0.01153
38.3 -0.00786
38.35 -0.00166
38.4 -0.00202
38.45 -0.00648
38.5 -0.00866
38.55 -0.00652
38.6 -0.00451
38.65 -0.0004
38.7 0.00312
38.75 0.00595
38.8 0.00873
38.85 0.01027
38.9 0.00996
38.95 0.01314
39 0.00977
39.05 0.0095
39.1 0.00382
39.15 -0.00398
39.2 -0.00468
39.25 -0.00663
39.3 -0.00799
39.35 -0.00872
39.4 -0.00679
39.45 -0.00352
39.5 0.00079
39.55 0.00142
39.6 0.00383
39.65 0.0025
39.7 -0.00325
39.75 -0.00772
39.8 -0.00676
39.85 -0.00967
39.9 -0.01081
39.95 -0.01154
40 -0.01157
40.05 -0.01436
40.1 -0.01778
40.15 -0.01906
40.2 -0.02014
40.25 -0.01825
40.3 -0.01724
40.35 -0.01977
40.4 -0.02297
40.45 -0.02162
40.5 -0.01685
40.55 -0.00934
40.6 -0.00047
40.65 0.00243
40.7 0.0028
40.75 -0.00054
40.8 -0.0051
40.85 -0.008
40.9 -0.01084
40.95 -0.01568
41 -0.01442
41.05 -0.01535
41.1 -0.01624
41.15 -0.01847
41.2 -0.02218
41.25 -0.02184
41.3 -0.02073
41.35 -0.0188
41.4 -0.01481
41.45 -0.00898
41.5 -0.00269
41.55 0.00355
41.6 0.0095
41.65 0.01418
41.7 0.01283
41.75 0.01008
41.8 0.00347
41.85 0.00194
41.9 0.00397
41.95 0.00729
42 0.01147
42.05 0.0087
42.1 0.00899
42.15 0.01103
42.2 0.00872
42.25 0.00511
42.3 -0.00019
42.35 -0.0065
42.4 -0.00584
42.45 -0.0026
42.5 -0.00074
42.55 -0.00272
42.6 -0.00027
42.65 0.00122
42.7 0.00569
42.75 0.01231
42.8 0.01999
42.85 0.02201
42.9 0.02578
42.95 0.02854
43 0.03224
43.05 0.03261
43.1 0.02606
43.15 0.02237
43.2 0.01399
43.25 0.00284
43.3 -0.002
43.35 -0.00731
43.4 -0.00953
43.45 -0.0094
43.5 -0.0065
43.55 -0.00695
43.6 -0.00638
43.65 -0.00761
43.7 -0.00874
43.75 -0.0091
43.8 -0.01181
43.85 -0.01437
43.9 -0.01802
43.95 -0.02336
44 -0.02177
44.05 -0.01783
44.1 -0.01601
44.15 -0.01277
44.2 -0.01007
44.25 -0.01091
44.3 -0.0145
44.35 -0.01188
44.4 -0.0051
44.45 -0.0011
44.5 0.00586
44.55 0.00732
44.6 0.01195
44.65 0.01083
44.7 0.01225
44.75 0.01225
44.8 0.01336
44.85 0.01176
44.9 0.00675
44.95 -0.00021
45 -0.00056
45.05 0.00217
45.1 0.00557
45.15 0.00527
45.2 0.00002
45.25 0.0003
45.3 0.00317
45.35 0.00751
45.4 0.00965
45.45 0.00707
45.5 0.00275
45.55 0.00258
45.6 0.00632
45.65 0.00709
45.7 0.01113
45.75 0.01491
45.8 0.01199
45.85 0.01201
45.9 0.00983
45.95 0.0071
46 0.00541
46.05 0.00713
46.1 0.00342
46.15 0.00424
46.2 0.00281
46.25 -0.0027
46.3 -0.0081
46.35 -0.0074
46.4 -0.00859
46.45 -0.01203
46.5 -0.01718
46.55 -0.01501
46.6 -0.01185
46.65 -0.01051
46.7 -0.00474
46.75 -0.00321
46.8 -0.00323
46.85 -0.00211
46.9 -0.00057
46.95 -0.00003
47 0.00256
47.05 0.00603
47.1 0.00782
47.15 0.00631
47.2 0.00537
47.25 0.00197
47.3 -0.0026
47.35 -0.00594
47.4 -0.01196
47.45 -0.01401
47.5 -0.01413
47.55 -0.01722
47.6 -0.01684
47.65 -0.01404
47.7 -0.0142
47.75 -0.01292
47.8 -0.01112
47.85 -0.00848
47.9 -0.00898
47.95 -0.01063
48 -0.0128
48.05 -0.01163
48.1 -0.00965
48.15 -0.00362
48.2 0.00445
48.25 0.0132
48.3 0.01473
48.35 0.01012
48.4 0.0021
48.45 -0.00264
48.5 -0.00903
48.55 -0.00902
48.6 -0.00782
48.65 -0.00422
48.7 -0.00237
48.75 -0.0017
48.8 -0.00105
48.85 0.00023
48.9 0.00215
48.95 -0.0002
49 -0.00071
49.05 -0.00363
49.1 -0.00316
49.15 0.00042
49.2 0.00495
49.25 0.01085
49.3 0.01092
49.35 0.01473
49.4 0.01333
49.45 0.01063
49.5 0.01108
49.55 0.00941
49.6 0.00423
49.65 0.00444
49.7 0.0031
49.75 0.0026
49.8 -0.00108
49.85 -0.00541
49.9 -0.00613
49.95 -0.00361
50 -0.00458
50.05 -0.00564
50.1 -0.00179
50.15 -0.00117
50.2 -0.00326
50.25 -0.00761
50.3 -0.00553
50.35 -0.00756
50.4 -0.0077
50.45 -0.00834
50.5 -0.00897
50.55 -0.00979
50.6 -0.01051
50.65 -0.00681
50.7 -0.0028
50.75 0.00274
50.8 0.00287
50.85 0.00626
50.9 0.00619
50.95 0.00243
51 -0.00365
51.05 -0.00456
51.1 -0.00266
51.15 0.00227
51.2 0.00322
51.25 0.00731
51.3 0.00912
51.35 0.01162
51.4 0.01044
51.45 0.00705
51.5 0.00585
51.55 0.00481
51.6 0.00697
51.65 0.0112
51.7 0.01444
51.75 0.01405
51.8 0.0146
51.85 0.01668
51.9 0.01964
51.95 0.01786
52 0.01345
52.05 0.00567
52.1 0.0011
52.15 -0.00133
52.2 -0.0069
52.25 -0.01422
52.3 -0.02054
52.35 -0.025
52.4 -0.02143
52.45 -0.02068
52.5 -0.0207
52.55 -0.01666
52.6 -0.00841
52.65 -0.00344
52.7 -0.00147
52.75 0.00344
52.8 0.00602
52.85 0.01015
52.9 0.0136
52.95 0.01805
53 0.01846
53.05 0.01889
53.1 0.02162
53.15 0.01908
53.2 0.02011
53.25 0.01724
53.3 0.01738
53.35 0.01707
53.4 0.01633
53.45 0.01283
53.5 0.01263
53.55 0.01005
53.6 0.00436
53.65 0.00176
53.7 0.00098
53.75 0.00444
53.8 0.00384
53.85 0.00589
53.9 0.00225
53.95 -0.00084
54 -0.00653
54.05 -0.00798
54.1 -0.01246
54.15 -0.01144
54.2 -0.01021
54.25 -0.01186
54.3 -0.01494
54.35 -0.0198
54.4 -0.02142
54.45 -0.01763
54.5 -0.01452
54.55 -0.00923
54.6 -0.00823
54.65 -0.00548
54.7 -0.00121
54.75 -0.00243
54.8 0.00101
54.85 0.00559
54.9 0.00786
54.95 0.00822
55 0.00779
55.05 0.00301
55.1 0.00027
55.15 -0.00068
55.2 -0.00099
55.25 0.00084
55.3 0.00078
55.35 0.003
55.4 0.00597
55.45 0.00398
55.5 0.00513
55.55 0.00352
55.6 0.00086
55.65 0.00031
55.7 0.00346
55.75 0.00201
55.8 -0.00097
55.85 0.00026
55.9 -0.0025
55.95 -0.00165
56 -0.00555
56.05 -0.00378
56.1 -0.00326
56.15 -0.00579
56.2 -0.00508
56.25 -0.00833
56.3 -0.00709
56.35 -0.00302
56.4 -0.00253
56.45 -0.00539
56.5 -0.00961
56.55 -0.01387
56.6 -0.01436
56.65 -0.01207
56.7 -0.01207
56.75 -0.00687
56.8 -0.00447
56.85 -0.00653
56.9 -0.00657
56.95 -0.00435
57 -0.00137
57.05 0.00119
57.1 0.00677
57.15 0.01093
57.2 0.01422
57.25 0.01049
57.3 0.00432
57.35 -0.0035
57.4 -0.01106
57.45 -0.01046
57.5 -0.00564
57.55 -0.00294
57.6 0.00099
57.65 0.00774
57.7 0.01161
57.75 0.01022
57.8 0.00899
57.85 0.00865
57.9 0.01029
57.95 0.01157
58 0.01102
58.05 0.01059
58.1 0.00749
58.15 0.0073
58.2 0.00734
58.25 0.00566
58.3 -0.00066
58.35 -0.00726
58.4 -0.00785
58.45 -0.0072
58.5 -0.0079
58.55 -0.00663
58.6 -0.00585
58.65 -0.00859
58.7 -0.00783
58.75 -0.00679
58.8 -0.0037
58.85 0.00124
58.9 0.00034
58.95 0.00022
59 -0.00017
59.05 -0.00307
59.1 -0.00144
59.15 -0.00309
59.2 -0.00265
59.25 -0.00475
59.3 -0.00952
59.35 -0.01336
59.4 -0.01939
59.45 -0.02128
59.5 -0.01704
59.55 -0.01609
59.6 -0.01545
59.65 -0.01516
59.7 -0.01179
59.75 -0.0051
59.8 0.00129
59.85 0.00378
59.9 0.00329
59.95 0.00101
60 0.00012
60.05 0.00413
60.1 0.00197
60.15 0.00212
60.2 0.00381
60.25 0.00498
60.3 0.00462
60.35 0.00749
60.4 0.01091
60.45 0.01101
60.5 0.0062
60.55 0.00041
60.6 0.00002
60.65 0.00188
60.7 0.00005
60.75 -0.00484
60.8 -0.00401
60.85 0.00061
60.9 0.00165
60.95 -0.00014
61 -0.00075
61.05 -0.00409
61.1 -0.00414
61.15 -0.00243
61.2 -0.00215
61.25 -0.00176
61.3 -0.00447
61.35 -0.00705
61.4 -0.00355
61.45 -0.00352
61.5 -0.00253
61.55 0.00049
61.6 0.00336
61.65 0.00442
61.7 0.00337
61.75 0.00033
61.8 -0.00536
61.85 -0.00681
61.9 -0.00311
61.95 -0.00109
62 0.00142
62.05 0.00726
62.1 0.01353
62.15 0.01495
62.2 0.0128
62.25 0.01454
62.3 0.0105
62.35 0.01105
62.4 0.00957
62.45 0.00389
62.5 0.00395
62.55 0.00415
62.6 0.00686
62.65 0.00545
62.7 0.00136
62.75 -0.00133
62.8 -0.00374
62.85 -0.00619
62.9 -0.00395
62.95 -0.00562
63 -0.00938
63.05 -0.00684
63.1 -0.0081
63.15 -0.00811
63.2 -0.011
63.25 -0.0093
63.3 -0.00589
63.35 -0.0012
63.4 -0.00187
63.45 -0.00549
63.5 -0.00861
63.55 -0.00755
63.6 -0.00927
63.65 -0.00919
63.7 -0.00852
63.75 -0.01089
63.8 -0.01295
63.85 -0.01221
63.9 -0.01248
63.95 -0.0077
64 -0.00626
64.05 -0.00171
64.1 -0.00013
64.15 0.00499
64.2 0.00785
64.25 0.01348
64.3 0.01521
64.35 0.01095
64.4 0.00858
64.45 0.00976
64.5 0.00643
64.55 0.00514
64.6 0.00119
64.65 -0.00505
64.7 -0.00922
64.75 -0.01375
64.8 -0.01931
64.85 -0.02209
64.9 -0.02111
64.95 -0.015
65 -0.01016
65.05 -0.00881
65.1 -0.01088
65.15 -0.00999
65.2 -0.00633
65.25 -0.00009
65.3 0.00721
65.35 0.00723
65.4 0.0063
65.45 0.00861
65.5 0.00513
65.55 0.0003
65.6 0.00031
65.65 0.00132
65.7 0.00256
65.75 0.00245
65.8 0.00322
65.85 0.006
65.9 0.00904
65.95 0.01003
66 0.01164
66.05 0.00859
66.1 0.00628
66.15 0.00408
66.2 0.00289
66.25 0.00509
66.3 0.00495
66.35 0.00159
66.4 -0.00279
66.45 -0.00793
66.5 -0.00795
66.55 -0.01038
66.6 -0.01421
66.65 -0.01967
66.7 -0.02601
66.75 -0.02579
66.8 -0.01937
66.85 -0.01104
66.9 -0.00751
66.95 -0.00825
67 -0.00447
67.05 0.00206
67.1 0.00965
67.15 0.01039
67.2 0.01092
67.25 0.01398
67.3 0.01881
67.35 0.01609
67.4 0.00956
67.45 0.00824
67.5 0.00917
67.55 0.00541
67.6 0.00028
67.65 -0.00097
67.7 -0.00621
67.75 -0.01088
67.8 -0.01328
67.85 -0.01817
67.9 -0.0233
67.95 -0.02691
68 -0.02638
68.05 -0.01914
68.1 -0.01677
68.15 -0.01205
68.2 -0.00718
68.25 -0.00747
68.3 -0.00244
68.35 0.00037
68.4 0.00545
68.45 0.01197
68.5 0.01174
68.55 0.00782
68.6 0.00495
68.65 0.00336
68.7 -0.00054
68.75 0.0008
68.8 0.00565
68.85 0.00427
68.9 0.00438
68.95 0.00561
69 0.00781
69.05 0.00925
69.1 0.01261
69.15 0.01789
69.2 0.02058
69.25 0.02
69.3 0.01827
69.35 0.01106
69.4 0.00609
69.45 0.00216
69.5 0.00273
69.55 0.00134
69.6 -0.00112
69.65 0
69.7 0.00334
69.75 0.00756
69.8 0.01318
69.85 0.01648
69.9 0.01804
69.95 0.02177
70 0.01934
70.05 0.01394
70.1 0.01046
70.15 0.00264
70.2 -0.00543
70.25 -0.01136
70.3 -0.01286
70.35 -0.0136
70.4 -0.01528
70.45 -0.01461
70.5 -0.01077
70.55 -0.01206
70.6 -0.01004
70.65 -0.01005
70.7 -0.00535
70.75 -0.00351
70.8 -0.00142
70.85 -0.00355
70.9 -0.00176
70.95 -0.00401
71 -0.00287
71.05 0.00037
71.1 -0.001
71.15 0.00047
71.2 0.0007
71.25 0.00307
71.3 0.00272
71.35 0.004
71.4 0.00699
71.45 0.01218
71.5 0.01173
71.55 0.01375
71.6 0.00962
71.65 0.00736
71.7 0.00661
71.75 0.00166
71.8 -0.0046
71.85 -0.00516
71.9 -0.00972
71.95 -0.00804
72 -0.00672
72.05 -0.00743
72.1 -0.00768
72.15 -0.01063
72.2 -0.01096
72.25 -0.01212
72.3 -0.01216
72.35 -0.0155
72.4 -0.01282
72.45 -0.01299
72.5 -0.01355
72.55 -0.01307
72.6 -0.01374
72.65 -0.00969
72.7 -0.00883
72.75 -0.00934
72.8 -0.00488
72.85 -0.00477
72.9 -0.00873
72.95 -0.00923
73 -0.0108
73.05 -0.0127
73.1 -0.0164
73.15 -0.01789
73.2 -0.01673
73.25 -0.01352
73.3 -0.00966
73.35 -0.01066
73.4 -0.00729
73.45 -0.00177
73.5 -0.0009
73.55 0.00233
73.6 0.00404
73.65 0.00195
73.7 0.00061
73.75 0.00357
73.8 0.00315
73.85 0.00288
73.9 0.00012
73.95 -0.00214
74 -0.00426
74.05 -0.00415
74.1 -0.00244
74.15 -0.00533
74.2 -0.01044
74.25 -0.01342
74.3 -0.01163
74.35 -0.00502
74.4 0.00004
74.45 0.00445
74.5 0.00365
74.55 0.00614
74.6 0.01152
74.65 0.01332
74.7 0.01805
74.75 0.02159
74.8 0.02661
74.85 0.02543
74.9 0.01913
74.95 0.01799
75 0.01577
75.05 0.0099
75.1 0.00544
75.15 0.00392
75.2 -0.00109
75.25 -0.00765
75.3 -0.00849
75.35 -0.00547
75.4 -0.00717
75.45 -0.00896
75.5 -0.01087
75.55 -0.00656
75.6 0.00032
75.65 0.00067
75.7 0.0031
75.75 0.00101
75.8 -0.00149
75.85 0.00157
75.9 0.00508
75.95 0.00825
76 0.00515
76.05 0.0036
76.1 0.00035
76.15 -0.00508
76.2 -0.0097
76.25 -0.01546
76.3 -0.01511
76.35 -0.0128
76.4 -0.01359
76.45 -0.01701
76.5 -0.01609
76.55 -0.01373
76.6 -0.00648
76.65 -0.00518
76.7 -0.00496
76.75 -0.00607
76.8 -0.00787
76.85 -0.01133
76.9 -0.01214
76.95 -0.01426
77 -0.01285
77.05 -0.01281
77.1 -0.00941
77.15 -0.00969
77.2 -0.01303
77.25 -0.01361
77.3 -0.01612
77.35 -0.01273
77.4 -0.00861
77.45 -0.00289
77.5 0.00122
77.55 0.00195
77.6 -0.00135
77.65 -0.00539
77.7 -0.01155
77.75 -0.0125
77.8 -0.0111
77.85 -0.01123
77.9 -0.00903
77.95 -0.00945
78 -0.00536
78.05 0.00103
78.1 0.00503
78.15 0.00926
78.2 0.01445
78.25 0.02092
78.3 0.02774
78.35 0.03175
78.4 0.03163
78.45 0.03164
78.5 0.02734
78.55 0.0224
78.6 0.01623
78.65 0.00753
78.7 0.00355
78.75 -0.00321
78.8 -0.00648
78.85 -0.00537
78.9 -0.0041
78.95 -0.00122
79 -0.00152
79.05 -0.00427
79.1 -0.0049
79.15 -0.00866
79.2 -0.013
79.25 -0.01611
79.3 -0.01558
79.35 -0.01078
79.4 -0.00827
79.45 -0.00183
79.5 0.00663
79.55 0.01103
79.6 0.01585
79.65 0.01412
79.7 0.01041
79.75 0.00369
79.8 -0.00516
79.85 -0.00565
79.9 -0.00756
79.95 -0.00934
80 -0.0138
80.05 -0.01458
80.1 -0.01308
80.15 -0.00786
80.2 -0.00152
80.25 -0.00146
80.3 0.00255
80.35 0.00206
80.4 0.00331
80.45 0.00417
80.5 0.0026
80.55 0.0002
80.6 0.00014
80.65 0.0003
80.7 0.00435
80.75 0.00372
80.8 0.00781
80.85 0.0103
80.9 0.00761
80.95 0.00477
81 0.00701
81.05 0.01109
81.1 0.01017
81.15 0.01353
81.2 0.01598
81.25 0.01882
81.3 0.01988
81.35 0.02072
81.4 0.0161
81.45 0.00745
81.5 0.00142
81.55 -0.00293
81.6 -0.00614
81.65 -0.01035
81.7 -0.01335
81.75 -0.0107
81.8 -0.00999
81.85 -0.00896
81.9 -0.01046
81.95 -0.01111
82 -0.00847
82.05 -0.00624
82.1 0.00035
82.15 0.0009
82.2 -0.00216
82.25 -0.00277
82.3 -0.00707
82.35 -0.0105
82.4 -0.00956
82.45 -0.00349
82.5 0.00352
82.55 0.00573
82.6 0.0107
82.65 0.0175
82.7 0.02017
82.75 0.01913
82.8 0.01473
82.85 0.01348
82.9 0.00847
82.95 0.00315
83 -0.00163
83.05 -0.0057
83.1 -0.00695
83.15 -0.00988
83.2 -0.01425
83.25 -0.01615
83.3 -0.01779
83.35 -0.01301
83.4 -0.008
83.45 -0.00449
83.5 -0.00397
83.55 -0.00616
83.6 -0.00909
83.65 -0.00642
83.7 -0.00808
83.75 -0.0128
83.8 -0.01769
83.85 -0.02358
83.9 -0.02792
83.95 -0.0314
84 -0.02609
84.05 -0.01576
84.1 -0.00634
84.15 0.00337
84.2 0.00884
84.25 0.01258
84.3 0.01355
84.35 0.01104
84.4 0.00749
84.45 0.0035
84.5 -0.00349
84.55 -0.00291
84.6 -0.00507
84.65 -0.00926
84.7 -0.00685
84.75 -0.00404
84.8 -0.0049
84.85 -0.00339
84.9 -0.00002
84.95 0.00138
85 0.0021
85.05 -0.00031
85.1 -0.00461
85.15 -0.01015
85.2 -0.01585
85.25 -0.02044
85.3 -0.01779
85.35 -0.01267
85.4 -0.00983
85.45 -0.00646
85.5 -0.00111
85.55 -0.00047
85.6 0.00315
85.65 0.00112
85.7 -0.00278
85.75 -0.00841
85.8 -0.01239
85.85 -0.01602
85.9 -0.01521
85.95 -0.01627
86 -0.01722
86.05 -0.01927
86.1 -0.01597
86.15 -0.00899
86.2 -0.00017
86.25 0.00689
86.3 0.01146
86.35 0.01026
86.4 0.00939
86.45 0.00637
86.5 0.00072
86.55 -0.00683
86.6 -0.00951
86.65 -0.00751
86.7 -0.00868
86.75 -0.00764
86.8 -0.00173
86.85 -0.00159
86.9 0.00381
86.95 0.00347
87 0.0045
87.05 0.00485
87.1 0.00853
87.15 0.01133
87.2 0.01496
87.25 0.01238
87.3 0.01154
87.35 0.01504
87.4 0.01512
87.45 0.01262
87.5 0.00609
87.55 -0.00035
87.6 -0.00822
87.65 -0.00801
87.7 -0.00616
87.75 0
87.8 0.00483
87.85 0.00445
87.9 0.00133
87.95 -0.00164
88 -0.00466
88.05 -0.00237
88.1 0.00393
88.15 0.0046
88.2 0.00366
88.25 0.00121
88.3 0.00147
88.35 0.00554
88.4 0.01021
88.45 0.01094
88.5 0.01307
88.55 0.01616
88.6 0.01447
88.65 0.01572
88.7 0.01505
88.75 0.00935
88.8 0.00621
88.85 -0.00033
88.9 -0.00681
88.95 -0.00816
89 -0.00855
89.05 -0.00566
89.1 -0.0018
89.15 0.00244
89.2 0.00743
89.25 0.01023
89.3 0.00959
89.35 0.01315
89.4 0.01577
89.45 0.02075
89.5 0.01967
89.55 0.01383
89.6 0.01082
89.65 0.00554
89.7 0.00287
89.75 0.0011
89.8 0.00162
89.85 -0.00131
89.9 -0.00696
89.95 -0.01082
90 -0.00773
90.05 -0.00224
90.1 0.00519
90.15 0.00779
90.2 0.00615
90.25 0.00235
90.3 -0.00152
90.35 -0.0023
90.4 -0.0069
90.45 -0.00784
90.5 -0.00612
90.55 -0.00495
90.6 -0.00408
90.65 -0.00089
90.7 0.00202
90.75 0.00415
90.8 0.00083
90.85 -0.00091
90.9 0.00233
90.95 0.00235
91 0.00637
91.05 0.00955
91.1 0.00706
91.15 0.00123
91.2 -0.00461
91.25 -0.00623
91.3 -0.00701
91.35 -0.00447
91.4 -0.00215
91.45 -0.00005
91.5 0.00484
91.55 0.00449
91.6 0.00624
91.65 0.00938
91.7 0.01315
91.75 0.01759
91.8 0.02056
91.85 0.02
91.9 0.02001
91.95 0.01669
92 0.01357
92.05 0.00844
92.1 0.00124
92.15 -0.00466
92.2 -0.01236
92.25 -0.01958
92.3 -0.02451
92.35 -0.02133
92.4 -0.01351
92.45 -0.01131
92.5 -0.01159
92.55 -0.01485
92.6 -0.01422
92.65 -0.01564
92.7 -0.0144
92.75 -0.0076
92.8 0.00055
92.85 0.0085
92.9 0.01251
92.95 0.01808
93 0.01852
93.05 0.01499
93.1 0.01433
93.15 0.01177
93.2 0.00534
93.25 0.00481
93.3 0.00376
93.35 -0.00156
93.4 -0.0085
93.45 -0.01176
93.5 -0.01055
93.55 -0.01075
93.6 -0.0065
93.65 -0.0039
93.7 -0.00328
93.75 0.00102
93.8 0.00679
93.85 0.01225
93.9 0.01054
93.95 0.01004
94 0.00444
94.05 -0.00329
94.1 -0.00824
94.15 -0.00635
94.2 -0.00741
94.25 -0.01046
94.3 -0.016
94.35 -0.01694
94.4 -0.01939
94.45 -0.02129
94.5 -0.01789
94.55 -0.01542
94.6 -0.00991
94.65 -0.00311
94.7 0.00486
94.75 0.01324
94.8 0.0206
94.85 0.02521
94.9 0.0251
94.95 0.02074
95 0.02047
95.05 0.0188
95.1 0.01664
95.15 0.01838
95.2 0.01657
95.25 0.00959
95.3 0.00624
95.35 -0.00089
95.4 -0.00201
95.45 -0.00709
95.5 -0.0081
95.55 -0.01125
95.6 -0.01149
95.65 -0.01323
95.7 -0.01016
95.75 -0.00353
95.8 0.00121
95.85 0.00461
95.9 0.00962
95.95 0.00973
96 0.00498
96.05 -0.0026
96.1 -0.0038
96.15 -0.00216
96.2 0.0025
96.25 0.00474
96.3 0.00731
96.35 0.01069
96.4 0.01132
96.45 0.01035
96.5 0.00432
96.55 0.00418
96.6 0.00374
96.65 0.00391
96.7 0.00251
96.75 -0.00307
96.8 -0.004
96.85 -0.00585
96.9 -0.01015
96.95 -0.01486
97 -0.01938
97.05 -0.01652
97.1 -0.01278
97.15 -0.0122
97.2 -0.01227
97.25 -0.00691
97.3 -0.0015
97.35 -0.00206
97.4 -0.00174
97.45 0.00192
97.5 0.00404
97.55 0.00451
97.6 0.00008
97.65 -0.00074
97.7 -0.0012
97.75 -0.00198
97.8 -0.00459
97.85 -0.00805
97.9 -0.01254
97.95 -0.01436
98 -0.01638
98.05 -0.01522
98.1 -0.00913
98.15 -0.00641
98.2 0.00052
98.25 0.00236
98.3 -0.00076
98.35 -0.0018
98.4 -0.00421
98.45 -0.00126
98.5 0.0026
98.55 0.00206
98.6 0.00522
98.65 0.00497
98.7 0.00776
98.75 0.00692
98.8 0.00238
98.85 0.00322
98.9 -0.00036
98.95 -0.0066
99 -0.00648
99.05 -0.00386
99.1 -0.00361
99.15 0.00023
99.2 0.00316
99.25 0.00116
99.3 -0.00136
99.35 -0.00583
99.4 -0.00682
99.45 -0.00796
99.5 -0.00888
99.55 -0.01212
99.6 -0.00882
99.65 -0.00916
99.7 -0.01237
99.75 -0.01705
99.8 -0.01484
99.85 -0.01525
99.9 -0.01355
99.95 -0.00738
