0 0
0.05 0.00084
0.1 0.00774
0.15 0.01788
0.2 0.02483
0.25 0.03201
0.3 0.04038
0.35 0.04219
0.4 0.04108
0.45 0.04505
0.5 0.04706
0.55 0.04759
0.6 0.04859
0.65 0.04635
0.7 0.04772
0.75 0.04632
0.8 0.04419
0.85 0.04518
0.9 0.04243
0.95 0.03785
1 0.03827
1.05 0.04202
1.1 0.04427
1.15 0.04389
1.2 0.04112
1.25 0.03648
1.3 0.03741
1.35 0.03914
1.4 0.03961
1.45 0.03853
1.5 0.04198
1.55 0.04574
1.6 0.04566
1.65 0.04776
1.7 0.04444
1.75 0.03927
1.8 0.03379
1.85 0.02901
1.9 0.02993
1.95 0.02897
2 0.03261
2.05 0.03078
2.1 0.03455
2.15 0.04127
2.2 0.04768
2.25 0.04824
2.3 0.051
2.35 0.0493
2.4 0.04215
2.45 0.03761
2.5 0.03797
2.55 0.03684
2.6 0.03297
2.65 0.02976
2.7 0.03035
2.75 0.02624
2.8 0.02536
2.85 0.02654
2.9 0.02483
2.95 0.02593
3 0.02956
3.05 0.03199
3.1 0.03193
3.15 0.03254
3.2 0.03291
3.25 0.03234
3.3 0.02983
3.35 0.03128
3.4 0.03477
3.45 0.03696
3.5 0.03588
3.55 0.03414
3.6 0.03648
3.65 0.03776
3.7 0.03793
3.75 0.03689
3.8 0.03413
3.85 0.03167
3.9 0.02404
3.95 0.0167
4 0.01532
4.05 0.01049
4.1 0.00455
4.15 -0.00129
4.2 -0.00463
4.25 -0.00513
4.3 -0.00614
4.35 -0.00975
4.4 -0.01289
4.45 -0.01945
4.5 -0.02735
4.55 -0.03144
4.6 -0.03478
4.65 -0.03993
4.7 -0.04994
4.75 -0.05698
4.8 -0.06249
4.85 -0.0772
4.9 -0.09396
4.95 -0.11498
5 -0.13643
5.05 -0.15862
5.1 -0.18855
5.15 -0.22512
5.2 -0.26355
5.25 -0.3042
5.3 -0.35064
5.35 -0.39375
5.4 -0.4338
5.45 -0.47831
5.5 -0.51811
5.55 -0.55467
5.6 -0.58694
5.65 -0.61853
5.7 -0.65319
5.75 -0.68271
5.8 -0.70814
5.85 -0.72565
5.9 -0.73463
5.95 -0.73466
6 -0.72681
6.05 -0.71842
6.1 -0.70498
6.15 -0.68072
6.2 -0.64934
6.25 -0.6163
6.3 -0.57995
6.35 -0.53925
6.4 -0.49764
6.45 -0.44954
6.5 -0.40035
6.55 -0.34844
6.6 -0.29419
6.65 -0.24343
6.7 -0.19125
6.75 -0.13598
6.8 -0.07829
6.85 -0.02101
6.9 0.03712
6.95 0.08713
7 0.13262
7.05 0.17777
7.1 0.22331
7.15 0.27085
7.2 0.31388
7.25 0.357
7.3 0.39934
7.35 0.44593
7.4 0.48964
7.45 0.53325
7.5 0.57109
7.55 0.60603
7.6 0.63558
7.65 0.66055
7.7 0.685
7.75 0.69965
7.8 0.70772
7.85 0.71515
7.9 0.72122
7.95 0.7195
8 0.71884
8.05 0.71659
8.1 0.71079
8.15 0.69876
8.2 0.68154
8.25 0.66793
8.3 0.65034
8.35 0.63017
8.4 0.61195
8.45 0.59313
8.5 0.57425
8.55 0.55695
8.6 0.54029
8.65 0.51872
8.7 0.4912
8.75 0.46223
8.8 0.4319
8.85 0.40411
8.9 0.37951
8.95 0.35188
9 0.33138
9.05 0.31536
9.1 0.29704
9.15 0.28229
9.2 0.26893
9.25 0.24917
9.3 0.2263
9.35 0.20866
9.4 0.19305
9.45 0.1817
9.5 0.16551
9.55 0.15118
9.6 0.13839
9.65 0.12735
9.7 0.11537
9.75 0.10788
9.8 0.10196
9.85 0.09057
9.9 0.07961
9.95 0.07383
10 0.06313
10.05 0.04972
10.1 0.03755
10.15 0.0243
10.2 0.01575
10.25 0.0137
10.3 0.01143
10.35 0.01458
10.4 0.01456
10.45 0.01536
10.5 0.01079
10.55 0.01123
10.6 0.01119
10.65 0.01155
10.7 0.01114
10.75 0.00904
10.8 0.00796
10.85 0.00294
10.9 -0.0024
10.95 -0.00896
11 -0.01372
11.05 -0.01661
11.1 -0.01651
11.15 -0.01929
11.2 -0.02663
11.25 -0.02955
11.3 -0.03498
11.35 -0.03661
11.4 -0.03386
11.45 -0.0371
11.5 -0.03919
11.55 -0.04521
11.6 -0.04577
11.65 -0.04745
11.7 -0.05317
11.75 -0.0582
11.8 -0.06362
11.85 -0.06598
11.9 -0.06971
11.95 -0.0701
12 -0.06914
12.05 -0.06538
12.1 -0.06577
12.15 -0.06244
12.2 -0.06265
12.25 -0.06172
12.3 -0.06608
12.35 -0.0665
12.4 -0.06737
12.45 -0.06554
12.5 -0.06183
12.55 -0.0562
12.6 -0.04975
12.65 -0.04262
12.7 -0.03662
12.75 -0.03072
12.8 -0.02543
12.85 -0.02658
12.9 -0.02917
12.95 -0.03544
13 -0.04487
13.05 -0.05734
13.1 -0.06213
13.15 -0.06561
13.2 -0.06815
13.25 -0.07181
13.3 -0.07537
13.35 -0.07644
13.4 -0.07242
13.45 -0.06901
13.5 -0.06384
13.55 -0.0631
13.6 -0.06533
13.65 -0.06868
13.7 -0.07398
13.75 -0.07871
13.8 -0.07617
13.85 -0.07128
13.9 -0.06485
13.95 -0.0637
14 -0.05749
14.05 -0.05158
14.1 -0.05177
14.15 -0.05483
14.2 -0.05827
14.25 -0.06286
14.3 -0.06169
14.35 -0.06377
14.4 -0.06785
14.45 -0.06497
14.5 -0.05744
14.55 -0.05475
14.6 -0.05121
14.65 -0.04391
14.7 -0.03815
14.75 -0.03206
14.8 -0.028
14.85 -0.02686
14.9 -0.02385
14.95 -0.02659
15 -0.02907
15.05 -0.0316
15.1 -0.03763
15.15 -0.04259
15.2 -0.04503
15.25 -0.04154
15.3 -0.03857
15.35 -0.0324
15.4 -0.02481
15.45 -0.02442
15.5 -0.02814
15.55 -0.03489
15.6 -0.03938
15.65 -0.04044
15.7 -0.04326
15.75 -0.03973
15.8 -0.03737
15.85 -0.03361
15.9 -0.03134
15.95 -0.03355
16 -0.03138
16.05 -0.02652
16.1 -0.01964
16.15 -0.01918
16.2 -0.01824
16.25 -0.02063
16.3 -0.02222
16.35 -0.02783
16.4 -0.03138
16.45 -0.02988
16.5 -0.03022
16.55 -0.03342
16.6 -0.0334
16.65 -0.03631
16.7 -0.03355
16.75 -0.03318
16.8 -0.03266
16.85 -0.03463
16.9 -0.03932
16.95 -0.03791
17 -0.04021
17.05 -0.03644
17.1 -0.03049
17.15 -0.02744
17.2 -0.02457
17.25 -0.01789
17.3 -0.01388
17.35 -0.0105
17.4 -0.01087
17.45 -0.01087
17.5 -0.01357
17.55 -0.0119
17.6 -0.01534
17.65 -0.01456
17.7 -0.01857
17.75 -0.01647
17.8 -0.01333
17.85 -0.01204
17.9 -0.01181
17.95 -0.0111
18 -0.00661
18.05 -0.00782
18.1 -0.00759
18.15 -0.00327
18.2 0.00317
18.25 0.00965
18.3 0.00909
18.35 0.00748
18.4 0.0047
18.45 0.00521
18.5 0.00036
18.55 -0.0055
18.6 -0.01422
18.65 -0.0171
18.7 -0.02024
18.75 -0.01703
18.8 -0.017
18.85 -0.01816
18.9 -0.02223
18.95 -0.0246
19 -0.02925
19.05 -0.03153
19.1 -0.02735
19.15 -0.02477
19.2 -0.0221
19.25 -0.02229
19.3 -0.02419
19.35 -0.02699
19.4 -0.02821
19.45 -0.03028
19.5 -0.03131
19.55 -0.02638
19.6 -0.01756
19.65 -0.01328
19.7 -0.00605
19.75 -0.00103
19.8 -0.00175
19.85 -0.00075
19.9 -0.00492
19.95 -0.00318
20 -0.0042
20.05 -0.00518
20.1 -0.00932
20.15 -0.00926
20.2 -0.01121
20.25 -0.01235
20.3 -0.01107
20.35 -0.00997
20.4 -0.0102
20.45 -0.00741
20.5 -0.0052
20.55 -0.00093
20.6 -0.00251
20.65 -0.00651
20.7 -0.01269
20.75 -0.01563
20.8 -0.01532
20.85 -0.01507
20.9 -0.01842
20.95 -0.02215
21 -0.02128
21.05 -0.01674
21.1 -0.01721
21.15 -0.012
21.2 -0.01107
21.25 -0.00733
21.3 -0.00616
21.35 -0.00128
21.4 -0.00241
21.45 -0.00555
21.5 -0.00797
21.55 -0.00779
21.6 -0.00324
21.65 -0.00237
21.7 0.00207
21.75 0.00136
21.8 0.00228
21.85 -0.00032
21.9 -0.00451
21.95 -0.00871
22 -0.01171
22.05 -0.01276
22.1 -0.01635
22.15 -0.01467
22.2 -0.01578
22.25 -0.01344
22.3 -0.00897
22.35 -0.00342
22.4 -0.00396
22.45 -0.00595
22.5 -0.00784
22.55 -0.00573
22.6 -0.00283
22.65 -0.0008
22.7 -0.00228
22.75 0.00022
22.8 -0.00097
22.85 -0.00181
22.9 -0.00128
22.95 -0.0004
23 0.00478
23.05 0.00412
23.1 0.00157
23.15 -0.00436
23.2 -0.00597
23.25 -0.00383
23.3 0.00205
23.35 0.00199
23.4 0.00467
23.45 0.00244
23.5 -0.00262
23.55 -0.00798
23.6 -0.01124
23.65 -0.012
23.7 -0.00676
23.75 0.00139
23.8 0.01078
23.85 0.01886
23.9 0.01781
23.95 0.01965
24 0.02098
24.05 0.02299
24.1 0.01784
24.15 0.01194
24.2 0.01085
24.25 0.01086
24.3 0.00924
24.35 0.00622
24.4 0.00475
24.45 0.005
24.5 0.00391
24.55 0.00628
24.6 0.00705
24.65 0.01056
24.7 0.01197
24.75 0.00924
24.8 0.00488
24.85 0.00514
24.9 0.00766
24.95 0.00686
25 0.00668
25.05 0.00756
25.1 0.00799
25.15 0.00942
25.2 0.01309
25.25 0.01077
25.3 0.00731
25.35 0.00332
25.4 0.00377
25.45 0.00399
25.5 0.00277
25.55 0.00294
25.6 0.00321
25.65 0.007
25.7 0.01081
25.75 0.01213
25.8 0.00983
25.85 0.00825
25.9 0.0077
25.95 0.00424
26 0.00073
26.05 -0.00508
26.1 -0.00978
26.15 -0.00921
26.2 -0.01297
26.25 -0.01516
26.3 -0.01124
26.35 -0.00379
26.4 -0.00232
26.45 -0.00195
26.5 0.00072
26.55 0.00418
26.6 0.00791
26.65 0.00798
26.7 0.0029
26.75 -0.00099
26.8 -0.0022
26.85 0.00009
26.9 -0.00322
26.95 -0.00852
27 -0.01631
27.05 -0.01637
27.1 -0.01854
27.15 -0.01548
27.2 -0.01087
27.25 -0.00435
27.3 -0.00139
27.35 -0.0027
27.4 -0.00341
27.45 -0.00139
27.5 0.00016
27.55 -0.00324
27.6 -0.00418
27.65 -0.00544
27.7 -0.00697
27.75 -0.01015
27.8 -0.01959
27.85 -0.03096
27.9 -0.05047
27.95 -0.07206
28 -0.09206
28.05 -0.11706
28.1 -0.14138
28.15 -0.16587
28.2 -0.18944
28.25 -0.21628
28.3 -0.24662
28.35 -0.28177
28.4 -0.32334
28.45 -0.37157
28.5 -0.42219
28.55 -0.47577
28.6 -0.53584
28.65 -0.60376
28.7 -0.67407
28.75 -0.75097
28.8 -0.83139
28.85 -0.9133
28.9 -0.99344
28.95 -1.07706
29 -1.15999
29.05 -1.24737
29.1 -1.33407
29.15 -1.42436
29.2 -1.50946
29.25 -1.5929
29.3 -1.67098
29.35 -1.74897
29.4 -1.81774
29.45 -1.88179
29.5 -1.93984
29.55 -1.98611
29.6 -2.02647
29.65 -2.05973
29.7 -2.08134
29.75 -2.09569
29.8 -2.09964
29.85 -2.08666
29.9 -2.06589
29.95 -2.0368
30 -1.99947
30.05 -1.94596
30.1 -1.88668
30.15 -1.81537
30.2 -1.73397
30.25 -1.64464
30.3 -1.54069
30.35 -1.43343
30.4 -1.31395
30.45 -1.18789
30.5 -1.05588
30.55 -0.91665
30.6 -0.77665
30.65 -0.63422
30.7 -0.4899
30.75 -0.34951
30.8 -0.20975
30.85 -0.07347
30.9 0.06668
30.95 0.20645
31 0.34331
31.05 0.47337
31.1 0.60209
31.15 0.73049
31.2 0.85037
31.25 0.9619
31.3 1.06423
31.35 1.15933
31.4 1.24816
31.45 1.3335
31.5 1.41546
31.55 1.49015
31.6 1.55243
31.65 1.6033
31.7 1.64629
31.75 1.68651
31.8 1.72482
31.85 1.7601
31.9 1.7913
31.95 1.81257
32 1.82848
32.05 1.84187
32.1 1.85087
32.15 1.85321
32.2 1.84843
32.25 1.84209
32.3 1.83495
32.35 1.82379
32.4 1.81738
32.45 1.80997
32.5 1.79914
32.55 1.78774
32.6 1.77071
32.65 1.75297
32.7 1.73352
32.75 1.71197
32.8 1.69306
32.85 1.67459
32.9 1.65515
32.95 1.63597
33 1.61116
33.05 1.58493
33.1 1.55501
33.15 1.52565
33.2 1.49352
33.25 1.46334
33.3 1.42694
33.35 1.39261
33.4 1.35758
33.45 1.31795
33.5 1.27757
33.55 1.23353
33.6 1.18901
33.65 1.14706
33.7 1.10774
33.75 1.06725
33.8 1.02378
33.85 0.98331
33.9 0.93862
33.95 0.8994
34 0.86012
34.05 0.82073
34.1 0.78189
34.15 0.74235
34.2 0.69816
34.25 0.65153
34.3 0.60438
34.35 0.55667
34.4 0.51351
34.45 0.47308
34.5 0.4399
34.55 0.40866
34.6 0.38187
34.65 0.35703
34.7 0.33369
34.75 0.30829
34.8 0.28164
34.85 0.25283
34.9 0.22113
34.95 0.18707
35 0.15759
35.05 0.12433
35.1 0.09331
35.15 0.06697
35.2 0.04049
35.25 0.01481
35.3 -0.01328
35.35 -0.03654
35.4 -0.05859
35.45 -0.07816
35.5 -0.09288
35.55 -0.1034
35.6 -0.11625
35.65 -0.13063
35.7 -0.1477
35.75 -0.16431
35.8 -0.17564
35.85 -0.18554
35.9 -0.20051
35.95 -0.21585
36 -0.22396
36.05 -0.22865
36.1 -0.23463
36.15 -0.24593
36.2 -0.2581
36.25 -0.26898
36.3 -0.27659
36.35 -0.28213
36.4 -0.28987
36.45 -0.29905
36.5 -0.30294
36.55 -0.30799
36.6 -0.3142
36.65 -0.32147
36.7 -0.32744
36.75 -0.33298
36.8 -0.33004
36.85 -0.32836
36.9 -0.32226
36.95 -0.31239
37 -0.30807
37.05 -0.30704
37.1 -0.30205
37.15 -0.29905
37.2 -0.29991
37.25 -0.30153
37.3 -0.2997
37.35 -0.29325
37.4 -0.28664
37.45 -0.28635
37.5 -0.28176
37.55 -0.27754
37.6 -0.27199
37.65 -0.26652
37.7 -0.26494
37.75 -0.26033
37.8 -0.25865
37.85 -0.26245
37.9 -0.26206
37.95 -0.26318
38 -0.26531
38.05 -0.26296
38.1 -0.25999
38.15 -0.26121
38.2 -0.26197
38.25 -0.26189
38.3 -0.26232
38.35 -0.26413
38.4 -0.26503
38.45 -0.26419
38.5 -0.25699
38.55 -0.25032
38.6 -0.23899
38.65 -0.23398
38.7 -0.23257
38.75 -0.22567
38.8 -0.21559
38.85 -0.21176
38.9 -0.2111
38.95 -0.21092
39 -0.21367
39.05 -0.21712
39.1 -0.21398
39.15 -0.20899
39.2 -0.2028
39.25 -0.20006
39.3 -0.1999
39.35 -0.19753
39.4 -0.19679
39.45 -0.19108
39.5 -0.18165
39.55 -0.16931
39.6 -0.16338
39.65 -0.1614
39.7 -0.1586
39.75 -0.15159
39.8 -0.14858
39.85 -0.14513
39.9 -0.13862
39.95 -0.13126
40 -0.12258
40.05 -0.11878
40.1 -0.1207
40.15 -0.1222
40.2 -0.12495
40.25 -0.12314
40.3 -0.12333
40.35 -0.128
40.4 -0.12933
40.45 -0.13075
40.5 -0.12659
40.55 -0.1238
40.6 -0.12085
40.65 -0.11925
40.7 -0.11705
40.75 -0.11581
40.8 -0.11718
40.85 -0.11989
40.9 -0.11795
40.95 -0.11828
41 -0.11621
41.05 -0.10987
41.1 -0.10372
41.15 -0.09713
41.2 -0.09344
41.25 -0.09454
41.3 -0.09126
41.35 -0.08563
41.4 -0.07991
41.45 -0.07477
41.5 -0.07512
41.55 -0.07224
41.6 -0.07368
41.65 -0.07591
41.7 -0.07817
41.75 -0.07883
41.8 -0.07592
41.85 -0.07542
41.9 -0.07308
41.95 -0.07185
42 -0.07218
42.05 -0.07284
42.1 -0.0698
42.15 -0.06847
42.2 -0.06862
42.25 -0.06632
42.3 -0.06756
42.35 -0.06609
42.4 -0.06953
42.45 -0.07325
42.5 -0.07065
42.55 -0.06755
42.6 -0.06731
42.65 -0.0659
42.7 -0.06748
42.75 -0.0677
42.8 -0.06408
42.85 -0.05935
42.9 -0.05996
42.95 -0.06038
43 -0.05582
43.05 -0.05275
43.1 -0.05505
43.15 -0.05494
43.2 -0.05914
43.25 -0.05855
43.3 -0.05617
43.35 -0.05669
43.4 -0.05568
43.45 -0.05553
43.5 -0.05691
43.55 -0.05606
43.6 -0.05449
43.65 -0.05403
43.7 -0.05711
43.75 -0.0614
43.8 -0.06532
43.85 -0.0705
43.9 -0.07016
43.95 -0.06305
44 -0.05544
44.05 -0.05203
44.1 -0.05127
44.15 -0.04732
44.2 -0.04852
44.25 -0.05048
44.3 -0.04889
44.35 -0.04871
44.4 -0.05034
44.45 -0.05288
44.5 -0.05327
44.55 -0.05438
44.6 -0.0539
44.65 -0.0522
44.7 -0.04537
44.75 -0.03529
44.8 -0.02627
44.85 -0.02154
44.9 -0.0145
44.95 -0.01438
45 -0.01839
45.05 -0.02453
45.1 -0.02619
45.15 -0.02955
45.2 -0.02793
45.25 -0.02355
45.3 -0.02073
45.35 -0.01968
45.4 -0.02107
45.45 -0.02241
45.5 -0.02321
45.55 -0.01985
45.6 -0.01358
45.65 -0.00908
45.7 -0.00614
45.75 -0.00718
45.8 -0.00442
45.85 -0.00722
45.9 -0.01476
45.95 -0.01942
46 -0.02298
46.05 -0.02254
46.1 -0.02524
46.15 -0.02534
46.2 -0.02185
46.25 -0.01851
46.3 -0.0161
46.35 -0.01732
46.4 -0.02171
46.45 -0.02857
46.5 -0.03438
46.55 -0.03514
46.6 -0.03366
46.65 -0.02819
46.7 -0.02793
46.75 -0.0278
46.8 -0.02457
46.85 -0.01728
46.9 -0.01527
46.95 -0.01301
47 -0.01056
47.05 -0.00817
47.1 -0.00936
47.15 -0.01164
47.2 -0.01577
47.25 -0.02181
47.3 -0.02403
47.35 -0.02925
47.4 -0.03313
47.45 -0.03371
47.5 -0.03121
47.55 -0.02775
47.6 -0.02831
47.65 -0.02542
47.7 -0.02391
47.75 -0.01823
47.8 -0.01445
47.85 -0.0157
47.9 -0.01787
47.95 -0.01679
48 -0.01316
48.05 -0.01003
48.1 -0.00922
48.15 -0.00826
48.2 -0.00365
48.25 0.00028
48.3 0.00015
48.35 -0.00144
48.4 0.00016
48.45 0.00525
48.5 0.00686
48.55 0.0035
48.6 -0.00111
48.65 -0.00015
48.7 -0.00042
48.75 -0.00576
48.8 -0.0093
48.85 -0.01602
48.9 -0.02345
48.95 -0.02461
49 -0.02278
49.05 -0.02031
49.1 -0.01753
49.15 -0.01009
49.2 -0.00477
49.25 -0.0007
49.3 0.00269
49.35 0.00475
49.4 0.00529
49.45 0.0032
49.5 -0.00115
49.55 -0.00311
49.6 -0.00054
49.65 0.0013
49.7 0.00602
49.75 0.00478
49.8 -0.00032
49.85 -0.00759
49.9 -0.00947
49.95 -0.00582
50 -0.00387
50.05 -0.00611
50.1 -0.00858
50.15 -0.00911
50.2 -0.01213
50.25 -0.01653
50.3 -0.01463
50.35 -0.01391
50.4 -0.01082
50.45 -0.00563
50.5 0.00211
50.55 0.00759
50.6 0.00666
50.65 0.00881
50.7 0.00772
50.75 0.01044
50.8 0.00882
50.85 0.00299
50.9 -0.00027
50.95 0.00054
51 -0.00375
51.05 -0.01032
51.1 -0.01005
51.15 -0.01073
51.2 -0.00818
51.25 -0.00612
51.3 -0.00559
51.35 -0.00142
51.4 -0.00088
51.45 0.00375
51.5 0.00556
51.55 0.00151
51.6 0.00308
51.65 0.00783
51.7 0.01295
51.75 0.01709
51.8 0.01998
51.85 0.01955
51.9 0.01863
51.95 0.01283
52 0.01204
52.05 0.01037
52.1 0.00794
52.15 0.0092
52.2 0.01147
52.25 0.01285
52.3 0.01112
52.35 0.00552
52.4 0.00379
52.45 0.00466
52.5 0.0005
52.55 -0.00137
52.6 0
52.65 -0.00186
52.7 0.00067
52.75 -0.00261
52.8 -0.00161
52.85 0.0002
52.9 -0.00218
52.95 -0.00259
53 -0.00318
53.05 -0.00449
53.1 -0.00424
53.15 -0.0078
53.2 -0.00946
53.25 -0.00835
53.3 -0.00948
53.35 -0.01432
53.4 -0.02146
53.45 -0.02659
53.5 -0.02555
53.55 -0.02754
53.6 -0.02977
53.65 -0.02569
53.7 -0.02221
53.75 -0.02096
53.8 -0.01755
53.85 -0.00985
53.9 -0.00263
53.95 -0.00199
54 0.00233
54.05 0.00106
54.1 0.00372
54.15 0.00301
54.2 0.00335
54.25 0.00061
54.3 -0.00324
54.35 -0.00115
54.4 0.00074
54.45 0.00312
54.5 0.00175
54.55 0.00405
54.6 0.00909
54.65 0.01465
54.7 0.01944
54.75 0.02414
54.8 0.02091
54.85 0.0135
54.9 0.00537
54.95 -0.00111
55 -0.00595
55.05 -0.01257
55.1 -0.01343
55.15 -0.01529
55.2 -0.01272
55.25 -0.00749
55.3 -0.00101
55.35 -0.00136
55.4 -0.00144
55.45 -0.00357
55.5 -0.00348
55.55 0.00075
55.6 0.00264
55.65 0.00714
55.7 0.01026
55.75 0.00951
55.8 0.01094
55.85 0.0096
55.9 0.00896
55.95 0.01152
56 0.01054
56.05 0.0045
56.1 0.00233
56.15 0.00058
56.2 -0.00375
56.25 -0.00625
56.3 -0.00531
56.35 -0.0021
56.4 0.00008
56.45 0.00184
56.5 0.0064
56.55 0.00377
56.6 -0.00346
56.65 -0.00674
56.7 -0.00625
56.75 -0.00176
56.8 0.00287
56.85 0.0026
56.9 0.00336
56.95 0.00288
57 -0.00059
57.05 -0.00756
57.1 -0.0083
57.15 -0.01111
57.2 -0.0166
57.25 -0.01543
57.3 -0.0185
57.35 -0.0192
57.4 -0.01373
57.45 -0.00593
57.5 0.0017
57.55 0.00168
57.6 0.00134
57.65 -0.00016
57.7 -0.0051
57.75 -0.00748
57.8 -0.00472
57.85 -0.00019
57.9 -0.00165
57.95 -0.0054
58 -0.00989
58.05 -0.00802
58.1 -0.00541
58.15 -0.00295
58.2 -0.00211
58.25 -0.00442
58.3 -0.00598
58.35 -0.01019
58.4 -0.00978
58.45 -0.01034
58.5 -0.011
58.55 -0.01364
58.6 -0.01525
58.65 -0.01971
58.7 -0.02545
58.75 -0.02864
58.8 -0.03049
58.85 -0.02823
58.9 -0.02711
58.95 -0.02777
59 -0.03032
59.05 -0.02879
59.1 -0.02505
59.15 -0.01894
59.2 -0.00884
59.25 -0.00386
59.3 -0.00302
59.35 -0.00188
59.4 -0.00157
59.45 -0.00353
59.5 -0.00225
59.55 0.00192
59.6 0.00777
59.65 0.00963
59.7 0.00738
59.75 0.006
59.8 0.00057
59.85 -0.00411
59.9 -0.00264
59.95 0.00118
60 -0.00021
60.05 -0.00119
60.1 0.00067
60.15 0.0046
60.2 0.0034
60.25 0.00332
60.3 0.00146
60.35 -0.00027
60.4 0.00303
60.45 0.00489
60.5 0.00691
60.55 0.00887
60.6 0.00839
60.65 0.00643
60.7 0.00877
60.75 0.01049
60.8 0.01146
60.85 0.01293
60.9 0.01632
60.95 0.0158
61 0.01872
61.05 0.01874
61.1 0.02079
61.15 0.02354
61.2 0.02789
61.25 0.03209
61.3 0.02985
61.35 0.02406
61.4 0.01893
61.45 0.01642
61.5 0.01702
61.55 0.01279
61.6 0.00464
61.65 -0.00525
61.7 -0.00851
61.75 -0.01349
61.8 -0.01434
61.85 -0.01182
61.9 -0.00646
61.95 -0.00132
62 0.00423
62.05 0.00463
62.1 0.00542
62.15 0.00389
62.2 0.00275
62.25 0.00483
62.3 0.00449
62.35 0.00449
62.4 0.00316
62.45 0.00578
62.5 0.00802
62.55 0.00988
62.6 0.00529
62.65 0.00437
62.7 0.00067
62.75 -0.0059
62.8 -0.00644
62.85 -0.00599
62.9 -0.00378
62.95 -0.00207
63 -0.00388
63.05 -0.00591
63.1 -0.01036
63.15 -0.01289
63.2 -0.01624
63.25 -0.02073
63.3 -0.02168
63.35 -0.02213
63.4 -0.02332
63.45 -0.02162
63.5 -0.02043
63.55 -0.01855
63.6 -0.01934
63.65 -0.01922
63.7 -0.01342
63.75 -0.00666
63.8 0.00097
63.85 0.00769
63.9 0.01085
63.95 0.00758
64 0.00575
64.05 0.00212
64.1 0.0021
64.15 0.00558
64.2 0.00928
64.25 0.00893
64.3 0.00582
64.35 0.00706
64.4 0.0065
64.45 0.00462
64.5 0.00106
64.55 0.00153
64.6 -0.00252
64.65 -0.00145
64.7 -0.00166
64.75 -0.00111
64.8 0.00024
64.85 0.00206
64.9 0.00088
64.95 -0.00011
65 -0.00181
65.05 -0.00698
65.1 -0.01047
65.15 -0.01385
65.2 -0.01662
65.25 -0.01951
65.3 -0.01566
65.35 -0.01391
65.4 -0.01418
65.45 -0.01728
65.5 -0.0181
65.55 -0.01275
65.6 -0.00382
65.65 0.00097
65.7 0.00281
65.75 0.00045
65.8 0.00191
65.85 0.00074
65.9 0.00418
65.95 0.00448
66 0.00214
66.05 -0.00269
66.1 -0.00861
66.15 -0.00972
66.2 -0.00672
66.25 -0.00832
66.3 -0.00444
66.35 -0.00577
66.4 -0.00843
66.45 -0.01132
66.5 -0.01079
66.55 -0.01353
66.6 -0.01511
66.65 -0.01049
66.7 -0.00505
66.75 -0.00041
66.8 0.00466
66.85 0.01095
66.9 0.01273
66.95 0.01411
67 0.00935
67.05 0.00667
67.1 0.00693
67.15 0.00308
67.2 -0.00012
67.25 -0.00314
67.3 -0.0089
67.35 -0.00752
67.4 -0.00425
67.45 0.00034
67.5 0.00345
67.55 0.00851
67.6 0.0111
67.65 0.01551
67.7 0.01924
67.75 0.02335
67.8 0.0234
67.85 0.01738
67.9 0.00927
67.95 0.00698
68 0.00029
68.05 -0.00142
68.1 -0.0018
68.15 -0.00295
68.2 -0.00079
68.25 0.00416
68.3 0.00307
68.35 0.00377
68.4 0.00326
68.45 0.0024
68.5 -0.001
68.55 0.00026
68.6 0.00454
68.65 0.00276
68.7 0.0055
68.75 0.00856
68.8 0.00817
68.85 0.01105
68.9 0.01216
68.95 0.01001
69 0.00897
69.05 0.00357
69.1 0.00275
69.15 0.00613
69.2 0.00311
69.25 0.00486
69.3 0.00436
69.35 0.00306
69.4 0.00252
69.45 -0.00028
69.5 0.0014
69.55 0.00215
69.6 0.00336
69.65 0.00677
69.7 0.01102
69.75 0.01141
69.8 0.01083
69.85 0.01392
69.9 0.01116
69.95 0.00851
70 0.00401
70.05 -0.0024
70.1 -0.01063
70.15 -0.01159
70.2 -0.00824
70.25 -0.00931
70.3 -0.00933
70.35 -0.00621
70.4 -0.00789
70.45 -0.00581
70.5 -0.00253
70.55 -0.00225
70.6 -0.00171
70.65 -0.00071
70.7 0.00053
70.75 -0.00066
70.8 -0.00608
70.85 -0.01149
70.9 -0.01544
70.95 -0.01268
71 -0.00789
71.05 -0.00139
71.1 -0.00206
71.15 -0.00536
71.2 -0.00343
71.25 0.00182
71.3 0.00413
71.35 0.00544
71.4 0.00189
71.45 -0.00056
71.5 -0.00188
71.55 -0.00622
71.6 -0.00576
71.65 -0.00336
71.7 -0.00379
71.75 -0.00271
71.8 -0.00386
71.85 -0.007
71.9 -0.00669
71.95 -0.00648
72 -0.00994
72.05 -0.01362
72.1 -0.01253
72.15 -0.01108
72.2 -0.00865
72.25 -0.00903
72.3 -0.01273
72.35 -0.0185
72.4 -0.01936
72.45 -0.01493
72.5 -0.0093
72.55 -0.00154
72.6 0.00773
72.65 0.00913
72.7 0.00893
72.75 0.00979
72.8 0.00798
72.85 0.01032
72.9 0.01323
72.95 0.0111
73 0.01263
73.05 0.01503
73.1 0.0155
73.15 0.01444
73.2 0.01189
73.25 0.00817
73.3 0.00808
73.35 0.00813
73.4 0.00441
73.45 -0.00311
73.5 -0.0081
73.55 -0.01527
73.6 -0.01516
73.65 -0.01432
73.7 -0.00915
73.75 -0.00233
73.8 0.00013
73.85 0.00297
73.9 0.00896
73.95 0.00794
74 0.01064
74.05 0.01071
74.1 0.0091
74.15 0.00361
74.2 0.00149
74.25 0.00289
74.3 0.00522
74.35 0.01007
74.4 0.01615
74.45 0.01708
74.5 0.01497
74.55 0.00784
74.6 -0.00229
74.65 -0.01041
74.7 -0.01437
74.75 -0.0127
74.8 -0.01135
74.85 -0.00616
74.9 -0.00578
74.95 -0.0031
75 -0.00066
75.05 0.00318
75.1 0.00944
75.15 0.01164
75.2 0.01254
75.25 0.00695
75.3 0.00541
75.35 0.0069
75.4 0.00251
75.45 0.00178
75.5 0.00207
75.55 -0.00087
75.6 -0.00577
75.65 -0.0084
75.7 -0.00946
75.75 -0.0101
75.8 -0.01448
75.85 -0.02081
75.9 -0.0219
75.95 -0.02331
76 -0.02629
76.05 -0.02655
76.1 -0.02248
76.15 -0.01487
76.2 -0.01283
76.25 -0.01042
76.3 -0.00419
76.35 0.00389
76.4 0.00879
76.45 0.00997
76.5 0.0094
76.55 0.0071
76.6 0.00317
76.65 -0.00328
76.7 -0.0026
76.75 0.00231
76.8 0.00561
76.85 0.011
76.9 0.01688
76.95 0.01461
77 0.0105
77.05 0.01105
77.1 0.00834
77.15 0.00958
77.2 0.00807
77.25 0.00723
77.3 0.0032
77.35 0.00459
77.4 0.00873
77.45 0.01056
77.5 0.01512
77.55 0.01842
77.6 0.01455
77.65 0.01387
77.7 0.01083
77.75 0.00666
77.8 0.00411
77.85 -0.00267
77.9 -0.00453
77.95 -0.00389
78 0.0009
78.05 0.00576
78.1 0.01211
78.15 0.01694
78.2 0.01469
78.25 0.00875
78.3 0.00772
78.35 0.00375
78.4 -0.00169
78.45 -0.00201
78.5 -0.00471
78.55 -0.00729
78.6 -0.00415
78.65 -0.00456
78.7 -0.00101
78.75 0.00205
78.8 0.00533
78.85 0.00756
78.9 0.00684
78.95 0.00264
79 0.003
79.05 0.00245
79.1 0.00171
79.15 0.00148
79.2 -0.00034
79.25 -0.0037
79.3 -0.00865
79.35 -0.00792
79.4 -0.00961
79.45 -0.01502
79.5 -0.01748
79.55 -0.01965
79.6 -0.02401
79.65 -0.02565
79.7 -0.02366
79.75 -0.02313
79.8 -0.01755
79.85 -0.01026
79.9 -0.00282
79.95 0.00239
80 0.00554
80.05 0.00708
80.1 0.00741
80.15 0.00579
80.2 0.00644
80.25 0.00262
80.3 0.0035
80.35 0.00281
80.4 0.00532
80.45 0.00796
80.5 0.01064
80.55 0.00958
80.6 0.01207
80.65 0.01163
80.7 0.00547
80.75 -0.00065
80.8 -0.00311
80.85 -0.00139
80.9 -0.00187
80.95 -0.00467
81 -0.00495
81.05 -0.00879
81.1 -0.0137
81.15 -0.0186
81.2 -0.01943
81.25 -0.02306
81.3 -0.02595
81.35 -0.02524
81.4 -0.01849
81.45 -0.01006
81.5 -0.00506
81.55 -0.00612
81.6 -0.00342
81.65 -0.0037
81.7 -0.00648
81.75 -0.00342
81.8 -0.00574
81.85 -0.01025
81.9 -0.01339
81.95 -0.01241
82 -0.01513
82.05 -0.01888
82.1 -0.02212
82.15 -0.02263
82.2 -0.0195
82.25 -0.01845
82.3 -0.02069
82.35 -0.0188
82.4 -0.01383
82.45 -0.00527
82.5 0.00168
82.55 0.00221
82.6 0.00047
82.65 -0.0049
82.7 -0.00918
82.75 -0.0111
82.8 -0.00798
82.85 -0.0035
82.9 -0.00062
82.95 0.00143
83 -0.00023
83.05 -0.00396
83.1 -0.00691
83.15 -0.00662
83.2 -0.00103
83.25 -0.00118
83.3 0.00364
83.35 0.01108
83.4 0.01263
83.45 0.00828
83.5 0.00568
83.55 0.00057
83.6 -0.00238
83.65 -0.00143
83.7 -0.00277
83.75 -0.00374
83.8 -0.00346
83.85 -0.00197
83.9 -0.00403
83.95 -0.00266
84 0.00038
84.05 -0.00165
84.1 -0.00739
84.15 -0.01026
84.2 -0.00904
84.25 -0.00989
84.3 -0.00485
84.35 -0.00061
84.4 0.00207
84.45 -0.00069
84.5 -0.00571
84.55 -0.00911
84.6 -0.00826
84.65 -0.00311
84.7 0.00115
84.75 -0.00032
84.8 -0.00385
84.85 -0.00357
84.9 -0.00005
84.95 0.00569
85 0.01076
85.05 0.00983
85.1 0.0071
85.15 0.00221
85.2 -0.00285
85.25 -0.00939
85.3 -0.0147
85.35 -0.01417
85.4 -0.01038
85.45 -0.00524
85.5 -0.00111
85.55 0.00606
85.6 0.0126
85.65 0.01701
85.7 0.02114
85.75 0.02108
85.8 0.02383
85.85 0.02639
85.9 0.02914
85.95 0.02458
86 0.01561
86.05 0.00734
86.1 -0.00149
86.15 -0.00523
86.2 -0.0089
86.25 -0.0059
86.3 -0.00618
86.35 -0.0029
86.4 -0.00496
86.45 -0.00979
86.5 -0.01323
86.55 -0.01525
86.6 -0.01472
86.65 -0.00937
86.7 -0.00796
86.75 -0.00771
86.8 -0.01028
86.85 -0.01152
86.9 -0.01304
86.95 -0.01104
87 -0.00641
87.05 0.00153
87.1 0.00627
87.15 0.0105
87.2 0.01483
87.25 0.01921
87.3 0.01899
87.35 0.01262
87.4 0.00556
87.45 0.00228
87.5 0.00463
87.55 0.0029
87.6 0.00312
87.65 0.00675
87.7 0.00805
87.75 0.00931
87.8 0.01323
87.85 0.01315
87.9 0.01176
87.95 0.01326
88 0.01735
88.05 0.01402
88.1 0.01515
88.15 0.01892
88.2 0.01818
88.25 0.01756
88.3 0.01471
88.35 0.00741
88.4 0.00454
88.45 0.00312
88.5 0.00177
88.55 0.00313
88.6 0.00628
88.65 0.00637
88.7 0.00564
88.75 0.00302
88.8 -0.00017
88.85 0.00209
88.9 0.00595
88.95 0.00897
89 0.00563
89.05 -0.00024
89.1 -0.00452
89.15 -0.00471
89.2 -0.00444
89.25 -0.00523
89.3 -0.00245
89.35 -0.00137
89.4 -0.00309
89.45 -0.00537
89.5 -0.00377
89.55 -0.00515
89.6 -0.00212
89.65 -0.00339
89.7 -0.00534
89.75 -0.00353
89.8 -0.00319
89.85 0.00042
89.9 0.00142
89.95 0.00482
90 0.00501
90.05 0.0024
90.1 0.00415
90.15 0.00475
90.2 -0.00009
90.25 -0.00078
90.3 -0.0013
90.35 0.00174
90.4 0.00224
90.45 0
90.5 -0.0023
90.55 -0.00246
90.6 -0.00745
90.65 -0.00865
90.7 -0.00922
90.75 -0.01297
90.8 -0.01547
90.85 -0.0201
90.9 -0.01924
90.95 -0.01611
91 -0.01711
91.05 -0.01202
91.1 -0.00446
91.15 -0.0035
91.2 -0.00513
91.25 -0.01022
91.3 -0.01632
91.35 -0.01737
91.4 -0.01494
91.45 -0.01495
91.5 -0.01522
91.55 -0.01592
91.6 -0.01744
91.65 -0.0171
91.7 -0.01551
91.75 -0.01544
91.8 -0.01696
91.85 -0.01697
91.9 -0.01795
91.95 -0.02061
92 -0.02428
92.05 -0.02609
92.1 -0.02348
92.15 -0.01802
92.2 -0.01211
92.25 -0.00788
92.3 -0.00457
92.35 0.00209
92.4 0.0084
92.45 0.01341
92.5 0.01871
92.55 0.02029
92.6 0.01609
92.65 0.01514
92.7 0.01469
92.75 0.01552
92.8 0.01963
92.85 0.02135
92.9 0.02528
92.95 0.02766
93 0.03002
93.05 0.02801
93.1 0.02112
93.15 0.01017
93.2 0.00598
93.25 0.00017
93.3 -0.00368
93.35 -0.00659
93.4 -0.00765
93.45 -0.01195
93.5 -0.00946
93.55 -0.00406
93.6 -0.00322
93.65 -0.00486
93.7 -0.01021
93.75 -0.01613
93.8 -0.01636
93.85 -0.01128
93.9 -0.00426
93.95 -0.00042
94 -0.00038
94.05 0.00201
94.1 0.006
94.15 0.01117
94.2 0.01693
94.25 0.02248
94.3 0.02576
94.35 0.024
94.4 0.01698
94.45 0.01311
94.5 0.01138
94.55 0.01017
94.6 0.00894
94.65 0.0102
94.7 0.0107
94.75 0.01397
94.8 0.01076
94.85 0.00866
94.9 0.01062
94.95 0.01471
95 0.0196
95.05 0.02412
95.1 0.0239
95.15 0.02319
95.2 0.02385
95.25 0.01777
95.3 0.01407
95.35 0.00609
95.4 0.00305
95.45 -0.00217
95.5 -0.00636
95.55 -0.00717
95.6 -0.00292
95.65 -0.00102
95.7 0.00133
95.75 0.00063
95.8 -0.00357
95.85 -0.00958
95.9 -0.0102
95.95 -0.01042
96 -0.01293
96.05 -0.01453
96.1 -0.01908
96.15 -0.01671
96.2 -0.01734
96.25 -0.01491
96.3 -0.01187
96.35 -0.0073
96.4 -0.00373
96.45 0.00291
96.5 0.00649
96.55 0.01094
96.6 0.00921
96.65 0.01117
96.7 0.00798
96.75 0.00675
96.8 0.00909
96.85 0.00649
96.9 0.00031
96.95 -0.00874
97 -0.01143
97.05 -0.00934
97.1 -0.01232
97.15 -0.01388
97.2 -0.01688
97.25 -0.02062
97.3 -0.0241
97.35 -0.02426
97.4 -0.02465
97.45 -0.01964
97.5 -0.01206
97.55 -0.00955
97.6 -0.00724
97.65 -0.00286
97.7 0.00422
97.75 0.01038
97.8 0.01199
97.85 0.01066
97.9 0.01305
97.95 0.01636
98 0.01619
98.05 0.01304
98.1 0.00897
98.15 0.00361
98.2 0.00221
98.25 0.00539
98.3 0.01001
98.35 0.0135
98.4 0.01414
98.45 0.00999
98.5 0.00744
98.55 0.00239
98.6 -0.00027
98.65 -0.0031
98.7 -0.00938
98.75 -0.00929
98.8 -0.006
98.85 -0.00004
98.9 0.00473
98.95 0.00733
99 0.0045
99.05 0.00065
99.1 -0.00072
99.15 -0.0059
99.2 -0.00478
99.25 -0.00586
99.3 -0.01074
99.35 -0.0135
99.4 -0.01589
99.45 -0.01169
99.5 -0.00966
99.55 -0.01118
99.6 -0.01137
99.65 -0.01241
99.7 -0.00756
99.75 -0.00033
99.8 0.00622
99.85 0.00549
99.9 -0.00031
99.95 -0.00677
