0 0
0.05 0.00212
0.1 0.01238
0.15 0.01969
0.2 0.02767
0.25 0.03355
0.3 0.03551
0.35 0.03588
0.4 0.03886
0.45 0.04319
0.5 0.04538
0.55 0.04483
0.6 0.04795
0.65 0.05113
0.7 0.04977
0.75 0.04905
0.8 0.05234
0.85 0.0577
0.9 0.05584
0.95 0.05789
1 0.05944
1.05 0.06069
1.1 0.05544
1.15 0.04936
1.2 0.04445
1.25 0.04299
1.3 0.04177
1.35 0.04111
1.4 0.04416
1.45 0.04301
1.5 0.04195
1.55 0.04167
1.6 0.0385
1.65 0.03711
1.7 0.03259
1.75 0.02773
1.8 0.02801
1.85 0.02728
1.9 0.02926
1.95 0.02786
2 0.02321
2.05 0.02315
2.1 0.02285
2.15 0.02584
2.2 0.02876
2.25 0.03319
2.3 0.03147
2.35 0.02779
2.4 0.03024
2.45 0.0275
2.5 0.02894
2.55 0.03347
2.6 0.03734
2.65 0.04097
2.7 0.038
2.75 0.03331
2.8 0.02722
2.85 0.02546
2.9 0.02005
2.95 0.01447
3 0.00965
3.05 0.0079
3.1 0.00584
3.15 0.00288
3.2 0.00189
3.25 0.00433
3.3 0.01164
3.35 0.01569
3.4 0.01755
3.45 0.01923
3.5 0.02491
3.55 0.02364
3.6 0.02391
3.65 0.02212
3.7 0.02202
3.75 0.02181
3.8 0.01883
3.85 0.0147
3.9 0.01281
3.95 0.011
4 0.01151
4.05 0.01531
4.1 0.02041
4.15 0.02418
4.2 0.02609
4.25 0.02202
4.3 0.01342
4.35 0.00314
4.4 -0.00316
4.45 -0.01055
4.5 -0.01484
4.55 -0.02061
4.6 -0.02605
4.65 -0.03497
4.7 -0.05005
4.75 -0.07029
4.8 -0.09279
4.85 -0.12207
4.9 -0.155
4.95 -0.18849
5 -0.22802
5.05 -0.27791
5.1 -0.3346
5.15 -0.39418
5.2 -0.45973
5.25 -0.52478
5.3 -0.5929
5.35 -0.66882
5.4 -0.74732
5.45 -0.83627
5.5 -0.92853
5.55 -1.0193
5.6 -1.10963
5.65 -1.2048
5.7 -1.3017
5.75 -1.39728
5.8 -1.49124
5.85 -1.58513
5.9 -1.6741
5.95 -1.76152
6 -1.84392
6.05 -1.92175
6.1 -1.99092
6.15 -2.05189
6.2 -2.10994
6.25 -2.16179
6.3 -2.20758
6.35 -2.25192
6.4 -2.2918
6.45 -2.32587
6.5 -2.34952
6.55 -2.35954
6.6 -2.35586
6.65 -2.33835
6.7 -2.31353
6.75 -2.27438
6.8 -2.22143
6.85 -2.15744
6.9 -2.08159
6.95 -1.99301
7 -1.88774
7.05 -1.76225
7.1 -1.61998
7.15 -1.46809
7.2 -1.30602
7.25 -1.13251
7.3 -0.95471
7.35 -0.7672
7.4 -0.57209
7.45 -0.37968
7.5 -0.18155
7.55 0.01839
7.6 0.21305
7.65 0.40074
7.7 0.57989
7.75 0.74806
7.8 0.91261
7.85 1.07049
7.9 1.21221
7.95 1.34122
8 1.45936
8.05 1.57044
8.1 1.66487
8.15 1.74892
8.2 1.82372
8.25 1.88853
8.3 1.94263
8.35 1.98398
8.4 2.0115
8.45 2.03673
8.5 2.05549
8.55 2.0689
8.6 2.07111
8.65 2.06546
8.7 2.05488
8.75 2.04167
8.8 2.02871
8.85 2.01895
8.9 2.00366
8.95 1.98911
9 1.96841
9.05 1.946
9.1 1.92352
9.15 1.90508
9.2 1.88931
9.25 1.86954
9.3 1.84737
9.35 1.82716
9.4 1.80083
9.45 1.77126
9.5 1.74601
9.55 1.71978
9.6 1.69046
9.65 1.65895
9.7 1.62681
9.75 1.59578
9.8 1.56783
9.85 1.54388
9.9 1.51782
9.95 1.49543
10 1.46886
10.05 1.43923
10.1 1.41189
10.15 1.38325
10.2 1.35188
10.25 1.31547
10.3 1.28196
10.35 1.2464
10.4 1.215
10.45 1.17903
10.5 1.14328
10.55 1.10988
10.6 1.07067
10.65 1.02585
10.7 0.98549
10.75 0.94311
10.8 0.89659
10.85 0.85435
10.9 0.81597
10.95 0.77881
11 0.73858
11.05 0.6954
11.1 0.65514
11.15 0.61335
11.2 0.57478
11.25 0.53874
11.3 0.4974
11.35 0.45247
11.4 0.41253
11.45 0.3782
11.5 0.33912
11.55 0.30169
11.6 0.26313
11.65 0.23079
11.7 0.20095
11.75 0.17077
11.8 0.13642
11.85 0.1017
11.9 0.07299
11.95 0.04461
12 0.01947
12.05 -0.0051
12.1 -0.02932
12.15 -0.05015
12.2 -0.06926
12.25 -0.08629
12.3 -0.10072
12.35 -0.11886
12.4 -0.1423
12.45 -0.15968
12.5 -0.18029
12.55 -0.19731
12.6 -0.21165
12.65 -0.22131
12.7 -0.23073
12.75 -0.24329
12.8 -0.25759
12.85 -0.27179
12.9 -0.28113
12.95 -0.28838
13 -0.29831
13.05 -0.3026
13.1 -0.30799
13.15 -0.31541
13.2 -0.31782
13.25 -0.32525
13.3 -0.32697
13.35 -0.32844
13.4 -0.32715
13.45 -0.33238
13.5 -0.33697
13.55 -0.34436
13.6 -0.35201
13.65 -0.35703
13.7 -0.3633
13.75 -0.3681
13.8 -0.3731
13.85 -0.37161
13.9 -0.37012
13.95 -0.36222
14 -0.35682
14.05 -0.35353
14.1 -0.34722
14.15 -0.33657
14.2 -0.32851
14.25 -0.32273
14.3 -0.31402
14.35 -0.31088
14.4 -0.3109
14.45 -0.3122
14.5 -0.31347
14.55 -0.31036
14.6 -0.30877
14.65 -0.30455
14.7 -0.30024
14.75 -0.29726
14.8 -0.29782
14.85 -0.29421
14.9 -0.28919
14.95 -0.28121
15 -0.27811
15.05 -0.26993
15.1 -0.26677
15.15 -0.26407
15.2 -0.25855
15.25 -0.25783
15.3 -0.25987
15.35 -0.25543
15.4 -0.24848
15.45 -0.24386
15.5 -0.24039
15.55 -0.23701
15.6 -0.23808
15.65 -0.23508
15.7 -0.23522
15.75 -0.23136
15.8 -0.2276
15.85 -0.21961
15.9 -0.21137
15.95 -0.20125
16 -0.19337
16.05 -0.18943
16.1 -0.185
16.15 -0.18263
16.2 -0.18166
16.25 -0.1845
16.3 -0.18476
16.35 -0.18772
16.4 -0.18965
16.45 -0.18987
16.5 -0.18733
16.55 -0.18823
16.6 -0.18248
16.65 -0.17251
16.7 -0.16636
16.75 -0.16275
16.8 -0.15737
16.85 -0.15693
16.9 -0.15348
16.95 -0.15125
17 -0.14737
17.05 -0.14205
17.1 -0.13493
17.15 -0.13297
17.2 -0.12858
17.25 -0.12721
17.3 -0.12634
17.35 -0.12583
17.4 -0.1241
17.45 -0.12376
17.5 -0.12492
17.55 -0.12335
17.6 -0.12659
17.65 -0.12498
17.7 -0.11924
17.75 -0.11288
17.8 -0.10825
17.85 -0.10961
17.9 -0.11342
17.95 -0.11703
18 -0.1153
18.05 -0.1167
18.1 -0.11261
18.15 -0.10719
18.2 -0.1045
18.25 -0.09964
18.3 -0.09176
18.35 -0.08293
18.4 -0.07934
18.45 -0.07727
18.5 -0.07782
18.55 -0.08243
18.6 -0.08321
18.65 -0.07975
18.7 -0.07471
18.75 -0.07268
18.8 -0.07481
18.85 -0.07945
18.9 -0.0858
18.95 -0.08682
19 -0.08822
19.05 -0.08798
19.1 -0.08512
19.15 -0.08657
19.2 -0.08955
19.25 -0.08936
19.3 -0.09061
19.35 -0.0882
19.4 -0.08871
19.45 -0.08883
19.5 -0.09038
19.55 -0.08539
19.6 -0.07719
19.65 -0.06935
19.7 -0.06545
19.75 -0.06373
19.8 -0.06393
19.85 -0.06738
19.9 -0.06574
19.95 -0.06225
20 -0.0554
20.05 -0.05527
20.1 -0.05517
20.15 -0.05767
20.2 -0.05448
20.25 -0.05202
20.3 -0.04842
20.35 -0.04982
20.4 -0.05229
20.45 -0.05413
20.5 -0.05286
20.55 -0.04947
20.6 -0.04827
20.65 -0.04844
20.7 -0.04684
20.75 -0.04627
20.8 -0.04667
20.85 -0.05081
20.9 -0.05408
20.95 -0.05089
21 -0.04582
21.05 -0.04017
21.1 -0.03371
21.15 -0.03166
21.2 -0.02994
21.25 -0.02729
21.3 -0.02424
21.35 -0.0219
21.4 -0.02515
21.45 -0.02762
21.5 -0.0336
21.55 -0.0416
21.6 -0.04316
21.65 -0.04148
21.7 -0.04062
21.75 -0.03787
21.8 -0.03787
21.85 -0.03514
21.9 -0.03551
21.95 -0.0333
22 -0.03611
22.05 -0.04117
22.1 -0.04438
22.15 -0.04898
22.2 -0.05234
22.25 -0.05122
22.3 -0.04623
22.35 -0.04138
22.4 -0.03644
22.45 -0.02824
22.5 -0.02205
22.55 -0.01477
22.6 -0.01561
22.65 -0.01266
22.7 -0.00721
22.75 -0.00074
22.8 0.00435
22.85 0.00266
22.9 0.00161
22.95 -0.00289
23 -0.00365
23.05 -0.0097
23.1 -0.01489
23.15 -0.02006
23.2 -0.02723
23.25 -0.03593
23.3 -0.04433
23.35 -0.0522
23.4 -0.05647
23.45 -0.05723
23.5 -0.05357
23.55 -0.04851
23.6 -0.04444
23.65 -0.03568
23.7 -0.03241
23.75 -0.0263
23.8 -0.02164
23.85 -0.01934
23.9 -0.01707
23.95 -0.01414
24 -0.0153
24.05 -0.01709
24.1 -0.01951
24.15 -0.02208
24.2 -0.02355
24.25 -0.02778
24.3 -0.03051
24.35 -0.02655
24.4 -0.02178
24.45 -0.01798
24.5 -0.01692
24.55 -0.01394
24.6 -0.01142
24.65 -0.00968
24.7 -0.01158
24.75 -0.01074
24.8 -0.01143
24.85 -0.01279
24.9 -0.015
24.95 -0.01242
25 -0.0074
25.05 -0.00357
25.1 -0.00472
25.15 -0.00435
25.2 -0.00152
25.25 -0.00161
25.3 -0.00087
25.35 -0.00567
25.4 -0.00545
25.45 -0.00647
25.5 -0.00662
25.55 -0.00645
25.6 -0.00346
25.65 -0.00363
25.7 -0.003
25.75 -0.00627
25.8 -0.00532
25.85 -0.00163
25.9 -0.00357
25.95 -0.00911
26 -0.00966
26.05 -0.01292
26.1 -0.01124
26.15 -0.01088
26.2 -0.00809
26.25 -0.00683
26.3 -0.00609
26.35 -0.00709
26.4 -0.00701
26.45 -0.00925
26.5 -0.00658
26.55 -0.00067
26.6 0.00545
26.65 0.00423
26.7 0.00587
26.75 0.0031
26.8 0.00166
26.85 0.00454
26.9 0.00681
26.95 0.00698
27 0.00462
27.05 0.00379
27.1 0.00019
27.15 -0.00538
27.2 -0.0068
27.25 -0.01033
27.3 -0.01329
27.35 -0.01239
27.4 -0.00862
27.45 -0.00335
27.5 0.00185
27.55 0.00132
27.6 -0.00169
27.65 -0.00779
27.7 -0.01103
27.75 -0.01609
27.8 -0.01931
27.85 -0.02175
27.9 -0.02331
27.95 -0.02483
28 -0.02487
28.05 -0.02556
28.1 -0.02507
28.15 -0.02553
28.2 -0.02535
28.25 -0.02418
28.3 -0.02185
28.35 -0.01845
28.4 -0.01761
28.45 -0.01298
28.5 -0.01337
28.55 -0.01903
28.6 -0.01884
28.65 -0.02409
28.7 -0.02972
28.75 -0.03779
28.8 -0.04139
28.85 -0.04099
28.9 -0.04402
28.95 -0.04411
29 -0.0468
29.05 -0.04707
29.1 -0.05325
29.15 -0.06115
29.2 -0.06792
29.25 -0.07633
29.3 -0.08312
29.35 -0.09683
29.4 -0.11227
29.45 -0.12197
29.5 -0.13345
29.55 -0.14897
29.6 -0.15915
29.65 -0.16587
29.7 -0.17175
29.75 -0.17886
29.8 -0.1882
29.85 -0.2024
29.9 -0.2118
29.95 -0.22566
30 -0.23872
30.05 -0.2462
30.1 -0.25628
30.15 -0.26691
30.2 -0.27863
30.25 -0.28814
30.3 -0.2938
30.35 -0.29356
30.4 -0.29193
30.45 -0.28585
30.5 -0.2761
30.55 -0.26138
30.6 -0.24528
30.65 -0.23091
30.7 -0.2168
30.75 -0.20211
30.8 -0.18581
30.85 -0.16862
30.9 -0.14558
30.95 -0.12192
31 -0.099
31.05 -0.07464
31.1 -0.04817
31.15 -0.02226
31.2 0.00264
31.25 0.02009
31.3 0.03827
31.35 0.05407
31.4 0.06833
31.45 0.08688
31.5 0.10214
31.55 0.12019
31.6 0.13831
31.65 0.14884
31.7 0.15931
31.75 0.17044
31.8 0.18193
31.85 0.19711
31.9 0.20746
31.95 0.21696
32 0.22815
32.05 0.23585
32.1 0.24054
32.15 0.24605
32.2 0.2545
32.25 0.25978
32.3 0.26272
32.35 0.2661
32.4 0.27181
32.45 0.27512
32.5 0.27587
32.55 0.27234
32.6 0.26761
32.65 0.25933
32.7 0.2544
32.75 0.24993
32.8 0.24121
32.85 0.234
32.9 0.22848
32.95 0.22182
33 0.21662
33.05 0.21157
33.1 0.2032
33.15 0.1993
33.2 0.19405
33.25 0.18677
33.3 0.18323
33.35 0.18061
33.4 0.17351
33.45 0.16875
33.5 0.15783
33.55 0.14782
33.6 0.14044
33.65 0.1293
33.7 0.11507
33.75 0.10757
33.8 0.10121
33.85 0.09175
33.9 0.08892
33.95 0.08432
34 0.08159
34.05 0.07367
34.1 0.0639
34.15 0.05334
34.2 0.05049
34.25 0.05279
34.3 0.04969
34.35 0.04836
34.4 0.04828
34.45 0.04468
34.5 0.04062
34.55 0.04002
34.6 0.04231
34.65 0.04237
34.7 0.0373
34.75 0.03221
34.8 0.0314
34.85 0.02881
34.9 0.02786
34.95 0.02233
35 0.01458
35.05 0.00906
35.1 0.00375
35.15 0.00194
35.2 0.00296
35.25 0.00672
35.3 0.00398
35.35 -0.00061
35.4 -0.00158
35.45 -0.00342
35.5 -0.00074
35.55 0.00046
35.6 -0.00012
35.65 -0.00085
35.7 -0.00382
35.75 -0.00226
35.8 0.0011
35.85 0.00157
35.9 0.00004
35.95 0.00111
36 -0.00038
36.05 -0.00748
36.1 -0.01341
36.15 -0.01891
36.2 -0.02638
36.25 -0.03117
36.3 -0.03655
36.35 -0.03712
36.4 -0.04109
36.45 -0.0386
36.5 -0.04035
36.55 -0.04202
36.6 -0.03808
36.65 -0.03076
36.7 -0.02753
36.75 -0.02842
36.8 -0.0311
36.85 -0.03623
36.9 -0.03725
36.95 -0.03422
37 -0.03558
37.05 -0.04032
37.1 -0.04674
37.15 -0.04613
37.2 -0.0405
37.25 -0.0391
37.3 -0.03972
37.35 -0.04069
37.4 -0.03961
37.45 -0.03666
37.5 -0.0366
37.55 -0.03728
37.6 -0.03458
37.65 -0.03101
37.7 -0.02683
37.75 -0.02296
37.8 -0.02016
37.85 -0.01607
37.9 -0.01315
37.95 -0.00887
38 -0.01087
38.05 -0.01772
38.1 -0.02405
38.15 -0.02564
38.2 -0.02593
38.25 -0.02289
38.3 -0.019
38.35 -0.01801
38.4 -0.02175
38.45 -0.02318
38.5 -0.02263
38.55 -0.02248
38.6 -0.01873
38.65 -0.0215
38.7 -0.02313
38.75 -0.02052
38.8 -0.02326
38.85 -0.02262
38.9 -0.02048
38.95 -0.02047
39 -0.02471
39.05 -0.0311
39.1 -0.03727
39.15 -0.03745
39.2 -0.03757
39.25 -0.0325
39.3 -0.02947
39.35 -0.02417
39.4 -0.01657
39.45 -0.01039
39.5 -0.01182
39.55 -0.01109
39.6 -0.01162
39.65 -0.01199
39.7 -0.00978
39.75 -0.00957
39.8 -0.00601
39.85 -0.00213
39.9 -0.00182
39.95 -0.00669
40 -0.01153
40.05 -0.01548
40.1 -0.02169
40.15 -0.02752
40.2 -0.03236
40.25 -0.03798
40.3 -0.03716
40.35 -0.03044
40.4 -0.02643
40.45 -0.01948
40.5 -0.01744
40.55 -0.01682
40.6 -0.01891
40.65 -0.02414
40.7 -0.0294
40.75 -0.02716
40.8 -0.02221
40.85 -0.01413
40.9 -0.00911
40.95 -0.01005
41 -0.01243
41.05 -0.01344
41.1 -0.01117
41.15 -0.00911
41.2 -0.01115
41.25 -0.013
41.3 -0.01591
41.35 -0.01611
41.4 -0.0143
41.45 -0.01694
41.5 -0.01382
41.55 -0.01505
41.6 -0.01916
41.65 -0.0238
41.7 -0.025
41.75 -0.02651
41.8 -0.02769
41.85 -0.03021
41.9 -0.02963
41.95 -0.02383
42 -0.01795
42.05 -0.0167
42.1 -0.01215
42.15 -0.01033
42.2 -0.00872
42.25 -0.00384
42.3 -0.00382
42.35 -0.00094
42.4 0.00259
42.45 0.00718
42.5 0.01222
42.55 0.01292
42.6 0.0074
42.65 0.00698
42.7 0.00244
42.75 -0.00242
42.8 -0.00195
42.85 0.00063
42.9 0.00267
42.95 0.00511
43 0.00572
43.05 0.00746
43.1 0.00429
43.15 0.00308
43.2 0.00396
43.25 -0.00082
43.3 -0.00152
43.35 0.00169
43.4 -0.00165
43.45 -0.00611
43.5 -0.01043
43.55 -0.01171
43.6 -0.00834
43.65 -0.00487
43.7 -0.00097
43.75 -0.00338
43.8 -0.00152
43.85 0.00121
43.9 0.0007
43.95 -0.00167
44 -0.00756
44.05 -0.01365
44.1 -0.01361
44.15 -0.01061
44.2 -0.00468
44.25 -0.00283
44.3 0.00201
44.35 0.00106
44.4 -0.00181
44.45 -0.00088
44.5 0.00241
44.55 0.00064
44.6 0.00207
44.65 0.00609
44.7 0.01155
44.75 0.00948
44.8 0.00349
44.85 -0.00448
44.9 -0.01235
44.95 -0.01972
45 -0.0228
45.05 -0.02275
45.1 -0.02491
45.15 -0.02579
45.2 -0.02133
45.25 -0.0164
45.3 -0.01462
45.35 -0.00868
45.4 -0.00183
45.45 -0.00123
45.5 -0.00188
45.55 0.0008
45.6 0.00293
45.65 0.00376
45.7 0.00051
45.75 -0.0031
45.8 -0.00734
45.85 -0.01331
45.9 -0.01398
45.95 -0.01311
46 -0.00943
46.05 -0.0087
46.1 -0.00336
46.15 0.00331
46.2 0.00479
46.25 0.0095
46.3 0.00781
46.35 0.00631
46.4 0.00606
46.45 0.00352
46.5 -0.00259
46.55 -0.0103
46.6 -0.01137
46.65 -0.011
46.7 -0.00618
46.75 -0.0007
46.8 0.00597
46.85 0.00752
46.9 0.0057
46.95 0.0076
47 0.00802
47.05 0.00611
47.1 0.0045
47.15 0.00366
47.2 0.0009
47.25 0.00214
47.3 0.00609
47.35 0.01138
47.4 0.01223
47.45 0.01012
47.5 0.00933
47.55 0.00992
47.6 0.00811
47.65 0.00921
47.7 0.01179
47.75 0.01217
47.8 0.01266
47.85 0.01245
47.9 0.00647
47.95 0.00251
48 -0.00182
48.05 -0.00116
48.1 -0.00225
48.15 -0.00125
48.2 -0.00268
48.25 -0.00363
48.3 -0.00712
48.35 -0.01185
48.4 -0.0097
48.45 -0.0088
48.5 -0.0064
48.55 -0.00442
48.6 -0.00004
48.65 0.00451
48.7 0.00266
48.75 0.00165
48.8 -0.00308
48.85 -0.0019
48.9 0.002
48.95 0.0067
49 0.00724
49.05 0.00389
49.1 0.00484
49.15 0.005
49.2 0.00541
49.25 0.00188
49.3 -0.00399
49.35 -0.00682
49.4 -0.00884
49.45 -0.00888
49.5 -0.00481
49.55 -0.00456
49.6 -0.00827
49.65 -0.0076
49.7 -0.00491
49.75 -0.00637
49.8 -0.00298
49.85 0.00157
49.9 0.00031
49.95 -0.0054
50 -0.00613
50.05 -0.00839
50.1 -0.0055
50.15 -0.00452
50.2 -0.00061
50.25 -0.0022
50.3 -0.00059
50.35 0.00146
50.4 0.00069
50.45 0.00121
50.5 -0.00115
50.55 -0.00576
50.6 -0.01084
50.65 -0.00954
50.7 -0.00665
50.75 -0.00198
50.8 0.00097
50.85 0.00566
50.9 0.00458
50.95 0.00096
51 0.00233
51.05 -0.00071
51.1 -0.00137
51.15 0.00197
51.2 0.00558
51.25 0.00237
51.3 0.00011
51.35 0.00284
51.4 0.00425
51.45 0.00033
51.5 -0.00647
51.55 -0.01522
51.6 -0.01905
51.65 -0.01765
51.7 -0.01625
51.75 -0.0118
51.8 -0.01247
51.85 -0.00915
51.9 -0.00819
51.95 -0.0054
52 -0.00028
52.05 0.00711
52.1 0.01009
52.15 0.01281
52.2 0.01611
52.25 0.02102
52.3 0.02273
52.35 0.02532
52.4 0.0262
52.45 0.02547
52.5 0.02604
52.55 0.02487
52.6 0.0179
52.65 0.00938
52.7 -0.00162
52.75 -0.0117
52.8 -0.01371
52.85 -0.01738
52.9 -0.01808
52.95 -0.01546
53 -0.01535
53.05 -0.01462
53.1 -0.01125
53.15 -0.00446
53.2 0.00258
53.25 0.00237
53.3 0.00225
53.35 0.00168
53.4 0.00269
53.45 0.00562
53.5 0.00941
53.55 0.00877
53.6 0.00535
53.65 0.00134
53.7 0.00179
53.75 0.00369
53.8 0.00501
53.85 0.00549
53.9 0.00047
53.95 0.00029
54 -0.0017
54.05 -0.00567
54.1 -0.0091
54.15 -0.01262
54.2 -0.01281
54.25 -0.01086
54.3 -0.00601
54.35 -0.00626
54.4 -0.00171
54.45 0.00118
54.5 0.00315
54.55 0.00596
54.6 0.00609
54.65 0.00478
54.7 0.00744
54.75 0.00353
54.8 0.00274
54.85 -0.00305
54.9 -0.0089
54.95 -0.01459
55 -0.01798
55.05 -0.01477
55.1 -0.00874
55.15 -0.00384
55.2 0.00102
55.25 0.00284
55.3 0.00644
55.35 0.01173
55.4 0.01322
55.45 0.00967
55.5 0.00185
55.55 -0.00559
55.6 -0.00869
55.65 -0.01494
55.7 -0.01547
55.75 -0.01657
55.8 -0.01993
55.85 -0.02068
55.9 -0.01985
55.95 -0.0171
56 -0.00957
56.05 0.0002
56.1 0.00361
56.15 0.00399
56.2 0.00445
56.25 -0.00002
56.3 -0.00449
56.35 -0.0065
56.4 -0.0067
56.45 -0.0068
56.5 -0.00297
56.55 0.00197
56.6 0.00074
56.65 0.00097
56.7 0.00225
56.75 -0.00094
56.8 -0.00771
56.85 -0.01423
56.9 -0.01678
56.95 -0.01399
57 -0.01452
57.05 -0.01262
57.1 -0.01395
57.15 -0.01141
57.2 -0.0112
57.25 -0.01479
57.3 -0.01577
57.35 -0.01164
57.4 -0.00931
57.45 -0.0037
57.5 0.00363
57.55 0.00321
57.6 -0.00086
57.65 -0.00331
57.7 -0.00515
57.75 -0.00871
57.8 -0.00799
57.85 -0.00621
57.9 -0.0024
57.95 -0.00342
58 -0.00485
58.05 -0.00926
58.1 -0.01596
58.15 -0.01757
58.2 -0.01451
58.25 -0.00972
58.3 -0.00539
58.35 -0.00311
58.4 -0.00322
58.45 -0.00054
58.5 0.00028
58.55 -0.00382
58.6 -0.00773
58.65 -0.01318
58.7 -0.0139
58.75 -0.01337
58.8 -0.01567
58.85 -0.01635
58.9 -0.01785
58.95 -0.01375
59 -0.01051
59.05 -0.01138
59.1 -0.01201
59.15 -0.01343
59.2 -0.01426
59.25 -0.01004
59.3 -0.00434
59.35 0.00175
59.4 0.00956
59.45 0.01162
59.5 0.00822
59.55 0.00602
59.6 0.00637
59.65 0.00331
59.7 0.00513
59.75 0.00275
59.8 -0.00038
59.85 -0.00356
59.9 -0.00487
59.95 -0.00709
60 -0.00373
60.05 0.00352
60.1 0.0099
60.15 0.00886
60.2 0.00826
60.25 0.00893
60.3 0.00643
60.35 0.00124
60.4 -0.00236
60.45 -0.00854
60.5 -0.01183
60.55 -0.01491
60.6 -0.01738
60.65 -0.01745
60.7 -0.01952
60.75 -0.01499
60.8 -0.0124
60.85 -0.0111
60.9 -0.00573
60.95 -0.00609
61 -0.0017
61.05 0.00025
61.1 0.00255
61.15 0.00557
61.2 0.00485
61.25 0.00895
61.3 0.00661
61.35 0.00434
61.4 0.00552
61.45 0.0091
61.5 0.00855
61.55 0.01127
61.6 0.00793
61.65 0.00443
61.7 -0.00008
61.75 -0.0061
61.8 -0.00525
61.85 -0.00038
61.9 0.00327
61.95 0.00212
62 0.00041
62.05 -0.00381
62.1 -0.00165
62.15 -0.00457
62.2 -0.00807
62.25 -0.00982
62.3 -0.00915
62.35 -0.00637
62.4 -0.0051
62.45 0.00106
62.5 0.00071
62.55 -0.0029
62.6 -0.00573
62.65 -0.00664
62.7 -0.01026
62.75 -0.0076
62.8 -0.00315
62.85 -0.00337
62.9 -0.00127
62.95 0.00467
63 0.00659
63.05 0.00969
63.1 0.0088
63.15 0.00825
63.2 0.00626
63.25 0.00703
63.3 0.01079
63.35 0.01597
63.4 0.01804
63.45 0.02076
63.5 0.01788
63.55 0.01691
63.6 0.01178
63.65 0.00812
63.7 0.00901
63.75 0.01273
63.8 0.01295
63.85 0.01285
63.9 0.01104
63.95 0.0122
64 0.0081
64.05 0.00097
64.1 -0.00022
64.15 -0.00466
64.2 -0.01053
64.25 -0.01643
64.3 -0.01751
64.35 -0.01777
64.4 -0.0201
64.45 -0.02285
64.5 -0.02593
64.55 -0.02092
64.6 -0.01801
64.65 -0.01912
64.7 -0.01992
64.75 -0.02073
64.8 -0.02185
64.85 -0.02424
64.9 -0.02657
64.95 -0.02974
65 -0.03009
65.05 -0.02281
65.1 -0.01971
65.15 -0.01208
65.2 -0.00943
65.25 -0.00226
65.3 0.00486
65.35 0.00515
65.4 0.0023
65.45 -0.00199
65.5 -0.00426
65.55 -0.00329
65.6 0.00127
65.65 0.00527
65.7 0.01219
65.75 0.01892
65.8 0.02284
65.85 0.02346
65.9 0.02109
65.95 0.01425
66 0.006
66.05 0.00357
66.1 0.00578
66.15 0.0093
66.2 0.01166
66.25 0.00806
66.3 0.00154
66.35 -0.00584
66.4 -0.00777
66.45 -0.01204
66.5 -0.01242
66.55 -0.00699
66.6 0.00007
66.65 0.00133
66.7 0.00628
66.75 0.01373
66.8 0.01984
66.85 0.0222
66.9 0.02491
66.95 0.02192
67 0.0192
67.05 0.01202
67.1 0.00251
67.15 -0.00689
67.2 -0.01094
67.25 -0.01605
67.3 -0.01688
67.35 -0.0145
67.4 -0.01037
67.45 -0.00932
67.5 -0.00629
67.55 -0.00493
67.6 -0.00802
67.65 -0.00546
67.7 -0.00638
67.75 -0.00778
67.8 -0.00991
67.85 -0.00583
67.9 -0.00519
67.95 -0.0066
68 -0.00865
68.05 -0.01005
68.1 -0.00525
68.15 0.00224
68.2 0.00754
68.25 0.01094
68.3 0.01534
68.35 0.01309
68.4 0.0063
68.45 0.00246
68.5 0.00342
68.55 0.00585
68.6 0.00489
68.65 0.0031
68.7 0.00233
68.75 0.00327
68.8 0.00158
68.85 -0.00284
68.9 -0.00381
68.95 -0.00251
69 -0.00002
69.05 -0.00046
69.1 -0.00173
69.15 0.00003
69.2 -0.00273
69.25 -0.0005
69.3 0.00219
69.35 0.00165
69.4 0.00081
69.45 -0.001
69.5 -0.00391
69.55 -0.00399
69.6 -0.00372
69.65 -0.00263
69.7 0.00197
69.75 0.00756
69.8 0.01208
69.85 0.01116
69.9 0.00835
69.95 0.00256
70 0.00277
70.05 0.00722
70.1 0.00609
70.15 0.00421
70.2 0.00711
70.25 0.00406
70.3 -0.00139
70.35 -0.00403
70.4 -0.00291
70.45 -0.00402
70.5 -0.00098
70.55 0.00486
70.6 0.01043
70.65 0.0175
70.7 0.02183
70.75 0.02602
70.8 0.02482
70.85 0.02332
70.9 0.02035
70.95 0.01275
71 0.00433
71.05 0.00313
71.1 0.00094
71.15 0.00174
71.2 0.00576
71.25 0.01188
71.3 0.01471
71.35 0.01236
71.4 0.00731
71.45 0.00604
71.5 0.00773
71.55 0.01037
71.6 0.00894
71.65 0.00332
71.7 -0.00424
71.75 -0.01321
71.8 -0.01962
71.85 -0.01768
71.9 -0.01046
71.95 -0.0079
72 -0.00209
72.05 0.00596
72.1 0.00782
72.15 0.00397
72.2 -0.00025
72.25 -0.00751
72.3 -0.01082
72.35 -0.01017
72.4 -0.00691
72.45 -0.00591
72.5 -0.00187
72.55 -0.00143
72.6 -0.00338
72.65 -0.00882
72.7 -0.00919
72.75 -0.00504
72.8 -0.00185
72.85 -0.00366
72.9 -0.00104
72.95 0.00159
73 0.00549
73.05 0.00544
73.1 0.00771
73.15 0.00393
73.2 0.0045
73.25 0.00569
73.3 0.00579
73.35 0.00638
73.4 0.00906
73.45 0.00655
73.5 0.00355
73.55 -0.0029
73.6 -0.00984
73.65 -0.01457
73.7 -0.01375
73.75 -0.01514
73.8 -0.01901
73.85 -0.01972
73.9 -0.01827
73.95 -0.01844
74 -0.01313
74.05 -0.00757
74.1 0.00051
74.15 0.00467
74.2 0.0038
74.25 0.00142
74.3 0.00176
74.35 -0.00234
74.4 -0.00797
74.45 -0.01483
74.5 -0.02233
74.55 -0.02291
74.6 -0.0228
74.65 -0.02083
74.7 -0.01602
74.75 -0.01069
74.8 -0.00498
74.85 -0.00222
74.9 -0.00309
74.95 -0.00456
75 -0.00037
75.05 0.00021
75.1 0.00075
75.15 -0.00196
75.2 0.00082
75.25 0.0032
75.3 0.00491
75.35 0.00974
75.4 0.01181
75.45 0.00969
75.5 0.00582
75.55 0.00682
75.6 0.0034
75.65 -0.00273
75.7 -0.00916
75.75 -0.01199
75.8 -0.01268
75.85 -0.01575
75.9 -0.01349
75.95 -0.00625
76 -0.00374
76.05 -0.00239
76.1 0.00043
76.15 0.00155
76.2 0.00203
76.25 0.00685
76.3 0.01269
76.35 0.0115
76.4 0.0089
76.45 0.00306
76.5 0.00219
76.55 0.00239
76.6 0.0062
76.65 0.00485
76.7 0.00717
76.75 0.01091
76.8 0.01411
76.85 0.01701
76.9 0.0183
76.95 0.01995
77 0.02085
77.05 0.01584
77.1 0.01475
77.15 0.01649
77.2 0.01483
77.25 0.00808
77.3 -0.00031
77.35 -0.00213
77.4 -0.00056
77.45 0.0016
77.5 0.00027
77.55 -0.0008
77.6 0.00029
77.65 -0.00358
77.7 -0.00118
77.75 -0.00033
77.8 0.00413
77.85 0.00473
77.9 0.00758
77.95 0.01052
78 0.01148
78.05 0.00925
78.1 0.00545
78.15 -0.00127
78.2 -0.00189
78.25 -0.00511
78.3 -0.0043
78.35 -0.00407
78.4 -0.00159
78.45 0.00444
78.5 0.00994
78.55 0.01321
78.6 0.01551
78.65 0.01181
78.7 0.00549
78.75 -0.00195
78.8 -0.00271
78.85 -0.005
78.9 -0.00479
78.95 -0.00269
79 0.00239
79.05 0.00615
79.1 0.00903
79.15 0.00539
79.2 0.00248
79.25 -0.00019
79.3 0.00058
79.35 0.00371
79.4 0.00909
79.45 0.01065
79.5 0.01335
79.55 0.01035
79.6 0.00349
79.65 -0.00269
79.7 -0.00237
79.75 -0.00065
79.8 0.00047
79.85 -0.00256
79.9 -0.00573
79.95 -0.00315
80 -0.00479
80.05 -0.00806
80.1 -0.01368
80.15 -0.01475
80.2 -0.01706
80.25 -0.01902
80.3 -0.0198
80.35 -0.02161
80.4 -0.02544
80.45 -0.02507
80.5 -0.02279
80.55 -0.02021
80.6 -0.01539
80.65 -0.01327
80.7 -0.00759
80.75 -0.00381
80.8 0.00263
80.85 0.00611
80.9 0.00978
80.95 0.0092
81 0.00814
81.05 0.00447
81.1 0.00076
81.15 -0.00018
81.2 -0.00345
81.25 -0.00467
81.3 -0.00778
81.35 -0.00632
81.4 -0.00174
81.45 0.00538
81.5 0.00742
81.55 0.00361
81.6 0.00401
81.65 0.00207
81.7 0.00537
81.75 0.00809
81.8 0.01238
81.85 0.01026
81.9 0.00365
81.95 -0.00213
82 -0.00311
82.05 -0.00076
82.1 -0.00286
82.15 -0.0073
82.2 -0.00793
82.25 -0.01117
82.3 -0.01519
82.35 -0.01976
82.4 -0.02347
82.45 -0.02193
82.5 -0.01498
82.55 -0.00522
82.6 -0.00089
82.65 0.00455
82.7 0.00812
82.75 0.00935
82.8 0.00969
82.85 0.00579
82.9 0.00212
82.95 0.00213
83 0.00446
83.05 0.00182
83.1 -0.00098
83.15 -0.0002
83.2 0.00394
83.25 0.0036
83.3 0.00231
83.35 0.00396
83.4 0.00134
83.45 0.00184
83.5 0.00464
83.55 0.00419
83.6 0.00178
83.65 0.00321
83.7 0.00496
83.75 0.00266
83.8 0.00024
83.85 0.00154
83.9 0.00579
83.95 0.00598
84 0.00106
84.05 0.00082
84.1 0.00475
84.15 0.00452
84.2 0.00041
84.25 -0.0066
84.3 -0.00719
84.35 -0.00867
84.4 -0.01289
84.45 -0.01336
84.5 -0.01424
84.55 -0.00978
84.6 -0.00214
84.65 -0.00072
84.7 0.00391
84.75 0.00902
84.8 0.00926
84.85 0.01323
84.9 0.01138
84.95 0.01229
85 0.0096
85.05 0.00424
85.1 -0.00167
85.15 -0.00107
85.2 -0.00229
85.25 -0.00315
85.3 -0.0074
85.35 -0.01406
85.4 -0.01589
85.45 -0.01937
85.5 -0.01825
85.55 -0.01688
85.6 -0.01796
85.65 -0.01563
85.7 -0.01149
85.75 -0.00948
85.8 -0.00551
85.85 -0.00078
85.9 -0.002
85.95 -0.00255
86 -0.00402
86.05 -0.00573
86.1 -0.00198
86.15 -0.00256
86.2 -0.00205
86.25 -0.00411
86.3 -0.00404
86.35 -0.00602
86.4 -0.00528
86.45 -0.0048
86.5 -0.00171
86.55 0.00129
86.6 0.00577
86.65 0.00529
86.7 0.00209
86.75 -0.00349
86.8 -0.00466
86.85 -0.00368
86.9 -0.00681
86.95 -0.00857
87 -0.00546
87.05 -0.00361
87.1 0.00119
87.15 0.00156
87.2 0.00046
87.25 0.00244
87.3 0.00487
87.35 0.00365
87.4 0.00282
87.45 0.00249
87.5 0.00336
87.55 0.00633
87.6 0.00877
87.65 0.00886
87.7 0.01121
87.75 0.01445
87.8 0.01768
87.85 0.01662
87.9 0.01448
87.95 0.01096
88 0.00853
88.05 0.00457
88.1 -0.0002
88.15 -0.0068
88.2 -0.00924
88.25 -0.01095
88.3 -0.00857
88.35 -0.00905
88.4 -0.00878
88.45 -0.00571
88.5 -0.00497
88.55 0.00055
88.6 0.00252
88.65 0.00149
88.7 -0.00143
88.75 -0.00187
88.8 -0.00589
88.85 -0.01044
88.9 -0.00888
88.95 -0.00368
89 0.0026
89.05 0.00717
89.1 0.00508
89.15 0.00724
89.2 0.00754
89.25 0.00754
89.3 0.00452
89.35 0.00181
89.4 0.00379
89.45 0.00298
89.5 0.00243
89.55 -0.0007
89.6 0.00058
89.65 0.0035
89.7 0.00795
89.75 0.00639
89.8 0.00482
89.85 0.00009
89.9 -0.00645
89.95 -0.01275
90 -0.02017
90.05 -0.02329
90.1 -0.01922
90.15 -0.01457
90.2 -0.01414
90.25 -0.01498
90.3 -0.00971
90.35 -0.00861
90.4 -0.00825
90.45 -0.0065
90.5 -0.00498
90.55 -0.00038
90.6 0.00054
90.65 -0.00231
90.7 -0.00173
90.75 -0.0037
90.8 -0.0032
90.85 -0.00132
90.9 -0.00379
90.95 -0.00469
91 -0.00466
91.05 -0.00428
91.1 -0.00185
91.15 -0.00135
91.2 -0.00462
91.25 -0.0037
91.3 -0.0024
91.35 -0.00215
91.4 -0.00353
91.45 -0.0079
91.5 -0.0107
91.55 -0.00689
91.6 -0.0038
91.65 0.00163
91.7 0.00513
91.75 0.00502
91.8 0.00261
91.85 -0.0033
91.9 -0.00436
91.95 -0.00557
92 -0.00849
92.05 -0.01282
92.1 -0.01185
92.15 -0.00829
92.2 -0.00541
92.25 -0.00589
92.3 -0.00316
92.35 -0.00142
92.4 -0.0032
92.45 -0.00694
92.5 -0.00793
92.55 -0.00753
92.6 -0.01083
92.65 -0.01386
92.7 -0.01663
92.75 -0.01881
92.8 -0.01631
92.85 -0.01452
92.9 -0.00996
92.95 -0.00238
93 0.00721
93.05 0.01064
93.1 0.01477
93.15 0.01827
93.2 0.01944
93.25 0.01448
93.3 0.01195
93.35 0.0122
93.4 0.014
93.45 0.01727
93.5 0.02289
93.55 0.02738
93.6 0.03195
93.65 0.03236
93.7 0.03129
93.75 0.02701
93.8 0.02677
93.85 0.02124
93.9 0.01548
93.95 0.01415
94 0.01215
94.05 0.00647
94.1 0.00153
94.15 0.00217
94.2 -0.00065
94.25 -0.00472
94.3 -0.00781
94.35 -0.007
94.4 -0.00156
94.45 0.00106
94.5 0.00274
94.55 0.00352
94.6 0.0031
94.65 0.00154
94.7 0.00263
94.75 0.00403
94.8 0.00117
94.85 -0.00271
94.9 -0.0014
94.95 -0.00085
95 0.00401
95.05 0.0104
95.1 0.01004
95.15 0.01189
95.2 0.00764
95.25 0.00248
95.3 -0.00424
95.35 -0.01259
95.4 -0.01884
95.45 -0.01838
95.5 -0.01673
95.55 -0.01156
95.6 -0.00887
95.65 -0.01016
95.7 -0.01123
95.75 -0.013
95.8 -0.01349
95.85 -0.01358
95.9 -0.01693
95.95 -0.01768
96 -0.01735
96.05 -0.01745
96.1 -0.01707
96.15 -0.01295
96.2 -0.01269
96.25 -0.01076
96.3 -0.00458
96.35 -0.00377
96.4 -0.00696
96.45 -0.00952
96.5 -0.01002
96.55 -0.01139
96.6 -0.01478
96.65 -0.01544
96.7 -0.01198
96.75 -0.01074
96.8 -0.01076
96.85 -0.01176
96.9 -0.012
96.95 -0.00772
97 -0.00414
97.05 -0.00257
97.1 -0.00516
97.15 -0.0017
97.2 -0.00179
97.25 -0.00171
97.3 0.00083
97.35 0.00159
97.4 0.00431
97.45 0.00594
97.5 0.00838
97.55 0.00654
97.6 0.00485
97.65 0.00262
97.7 -0.00092
97.75 -0.00656
97.8 -0.01212
97.85 -0.01185
97.9 -0.00837
97.95 -0.0016
98 0.00728
98.05 0.0121
98.1 0.01891
98.15 0.0219
98.2 0.02001
98.25 0.02122
98.3 0.02004
98.35 0.01946
98.4 0.02008
98.45 0.01751
98.5 0.01408
98.55 0.00863
98.6 0.00528
98.65 0.00655
98.7 0.00555
98.75 0.00537
98.8 0.00621
98.85 0.00224
98.9 -0.00371
98.95 -0.00423
99 -0.0061
99.05 -0.00294
99.1 0.00364
99.15 0.00781
99.2 0.00801
99.25 0.01149
99.3 0.0126
99.35 0.01617
99.4 0.0176
99.45 0.0135
99.5 0.01027
99.55 0.00665
99.6 0.00161
99.65 -0.00179
99.7 -0.00523
99.75 -0.00258
99.8 -0.00325
99.85 -0.00036
99.9 0.00396
99.95 0.00436
