0 0
0.05 0.00716
0.1 0.01782
0.15 0.02781
0.2 0.03192
0.25 0.03327
0.3 0.0391
0.35 0.04011
0.4 0.0454
0.45 0.05355
0.5 0.06147
0.55 0.06505
0.6 0.06393
0.65 0.06048
0.7 0.05541
0.75 0.05595
0.8 0.05512
0.85 0.04948
0.9 0.04436
0.95 0.03757
1 0.03506
1.05 0.03434
1.1 0.02998
1.15 0.02419
1.2 0.02301
1.25 0.01945
1.3 0.0212
1.35 0.02095
1.4 0.02511
1.45 0.03245
1.5 0.03813
1.55 0.03981
1.6 0.0404
1.65 0.0403
1.7 0.04039
1.75 0.03621
1.8 0.03046
1.85 0.02657
1.9 0.0273
1.95 0.02718
2 0.02761
2.05 0.02952
2.1 0.03099
2.15 0.03397
2.2 0.03753
2.25 0.03661
2.3 0.03294
2.35 0.02664
2.4 0.02093
2.45 0.01933
2.5 0.02337
2.55 0.02485
2.6 0.02258
2.65 0.02337
2.7 0.02627
2.75 0.02839
2.8 0.03209
2.85 0.03498
2.9 0.03729
2.95 0.03825
3 0.03682
3.05 0.03889
3.1 0.04144
3.15 0.04347
3.2 0.03875
3.25 0.03551
3.3 0.03451
3.35 0.03083
3.4 0.02334
3.45 0.01774
3.5 0.01802
3.55 0.01662
3.6 0.01263
3.65 0.00874
3.7 0.00593
3.75 0.00115
3.8 -0.00272
3.85 -0.00325
3.9 -0.00388
3.95 -0.00641
4 -0.00634
4.05 -0.00542
4.1 -0.00758
4.15 -0.00352
4.2 -0.0014
4.25 0.00225
4.3 0.00223
4.35 -0.00056
4.4 -0.00141
4.45 -0.00285
4.5 -0.0062
4.55 -0.01721
4.6 -0.02715
4.65 -0.03906
4.7 -0.05342
4.75 -0.07115
4.8 -0.0924
4.85 -0.11725
4.9 -0.15141
4.95 -0.18805
5 -0.22834
5.05 -0.2777
5.1 -0.33198
5.15 -0.38952
5.2 -0.45513
5.25 -0.52547
5.3 -0.59677
5.35 -0.67258
5.4 -0.7535
5.45 -0.83651
5.5 -0.9282
5.55 -1.02208
5.6 -1.11767
5.65 -1.21483
5.7 -1.31371
5.75 -1.41151
5.8 -1.5068
5.85 -1.60217
5.9 -1.69215
5.95 -1.78573
6 -1.87965
6.05 -1.96743
6.1 -2.05042
6.15 -2.12473
6.2 -2.19411
6.25 -2.25632
6.3 -2.31121
6.35 -2.36066
6.4 -2.40297
6.45 -2.44032
6.5 -2.46839
6.55 -2.48629
6.6 -2.50037
6.65 -2.50168
6.7 -2.49249
6.75 -2.46891
6.8 -2.42956
6.85 -2.3788
6.9 -2.31259
6.95 -2.22826
7 -2.13107
7.05 -2.01745
7.1 -1.88736
7.15 -1.74094
7.2 -1.58205
7.25 -1.40937
7.3 -1.22846
7.35 -1.03831
7.4 -0.8407
7.45 -0.64241
7.5 -0.43661
7.55 -0.23123
7.6 -0.0235
7.65 0.18022
7.7 0.37637
7.75 0.56984
7.8 0.75661
7.85 0.92708
7.9 1.08858
7.95 1.23764
8 1.37926
8.05 1.51155
8.1 1.62919
8.15 1.72998
8.2 1.81561
8.25 1.88826
8.3 1.95132
8.35 2.00436
8.4 2.0504
8.45 2.09444
8.5 2.12843
8.55 2.15489
8.6 2.17536
8.65 2.19159
8.7 2.20107
8.75 2.20799
8.8 2.21136
8.85 2.20834
8.9 2.20203
8.95 2.1947
9 2.18502
9.05 2.17533
9.1 2.16024
9.15 2.1446
9.2 2.13218
9.25 2.11924
9.3 2.10301
9.35 2.08342
9.4 2.06366
9.45 2.04466
9.5 2.02673
9.55 2.00371
9.6 1.9806
9.65 1.95425
9.7 1.92799
9.75 1.89733
9.8 1.85999
9.85 1.82117
9.9 1.78647
9.95 1.75109
10 1.71374
10.05 1.67033
10.1 1.62717
10.15 1.58022
10.2 1.53353
10.25 1.48661
10.3 1.44304
10.35 1.39742
10.4 1.35736
10.45 1.31201
10.5 1.26413
10.55 1.21895
10.6 1.17148
10.65 1.12265
10.7 1.0759
10.75 1.03132
10.8 0.99165
10.85 0.94637
10.9 0.90566
10.95 0.86431
11 0.8228
11.05 0.78158
11.1 0.73917
11.15 0.69139
11.2 0.64242
11.25 0.59892
11.3 0.55522
11.35 0.51369
11.4 0.47022
11.45 0.42329
11.5 0.3774
11.55 0.3321
11.6 0.29236
11.65 0.25671
11.7 0.22498
11.75 0.1977
11.8 0.16661
11.85 0.13538
11.9 0.1077
11.95 0.0817
12 0.05727
12.05 0.03527
12.1 0.00668
12.15 -0.02108
12.2 -0.04736
12.25 -0.07407
12.3 -0.09567
12.35 -0.12006
12.4 -0.14617
12.45 -0.16742
12.5 -0.18939
12.55 -0.21079
12.6 -0.2301
12.65 -0.24716
12.7 -0.26339
12.75 -0.27338
12.8 -0.28096
12.85 -0.2895
12.9 -0.297
12.95 -0.30671
13 -0.31475
13.05 -0.32142
13.1 -0.32642
13.15 -0.3352
13.2 -0.34099
13.25 -0.34479
13.3 -0.34603
13.35 -0.34976
13.4 -0.35074
13.45 -0.35181
13.5 -0.35187
13.55 -0.35168
13.6 -0.35271
13.65 -0.35273
13.7 -0.35449
13.75 -0.35785
13.8 -0.36093
13.85 -0.3678
13.9 -0.37561
13.95 -0.37612
14 -0.37438
14.05 -0.37067
14.1 -0.36926
14.15 -0.37092
14.2 -0.37289
14.25 -0.37488
14.3 -0.3701
14.35 -0.36618
14.4 -0.35815
14.45 -0.35083
14.5 -0.34258
14.55 -0.33276
14.6 -0.33053
14.65 -0.32559
14.7 -0.31795
14.75 -0.31396
14.8 -0.31101
14.85 -0.30479
14.9 -0.30038
14.95 -0.2998
15 -0.29932
15.05 -0.29524
15.1 -0.29444
15.15 -0.29158
15.2 -0.28828
15.25 -0.28343
15.3 -0.27914
15.35 -0.27877
15.4 -0.27807
15.45 -0.27493
15.5 -0.27455
15.55 -0.27002
15.6 -0.26633
15.65 -0.26392
15.7 -0.26432
15.75 -0.25943
15.8 -0.25073
15.85 -0.24714
15.9 -0.24058
15.95 -0.2342
16 -0.22663
16.05 -0.21646
16.1 -0.20726
16.15 -0.2025
16.2 -0.19709
16.25 -0.19578
16.3 -0.19894
16.35 -0.20235
16.4 -0.20769
16.45 -0.20855
16.5 -0.20467
16.55 -0.20062
16.6 -0.19863
16.65 -0.19713
16.7 -0.19748
16.75 -0.19887
16.8 -0.19846
16.85 -0.19296
16.9 -0.1888
16.95 -0.18019
17 -0.17306
17.05 -0.16647
17.1 -0.16173
17.15 -0.16086
17.2 -0.15493
17.25 -0.15343
17.3 -0.15038
17.35 -0.14615
17.4 -0.14731
17.45 -0.14942
17.5 -0.14685
17.55 -0.14302
17.6 -0.13761
17.65 -0.13711
17.7 -0.14059
17.75 -0.14456
17.8 -0.14777
17.85 -0.14315
17.9 -0.13648
17.95 -0.13145
18 -0.12393
18.05 -0.12158
18.1 -0.12044
18.15 -0.11919
18.2 -0.11585
18.25 -0.10889
18.3 -0.10692
18.35 -0.10747
18.4 -0.1117
18.45 -0.1106
18.5 -0.10853
18.55 -0.10545
18.6 -0.10719
18.65 -0.10496
18.7 -0.10397
18.75 -0.10397
18.8 -0.10745
18.85 -0.1116
18.9 -0.11301
18.95 -0.11277
19 -0.10829
19.05 -0.10044
19.1 -0.09367
19.15 -0.08761
19.2 -0.08708
19.25 -0.08844
19.3 -0.09187
19.35 -0.09006
19.4 -0.08851
19.45 -0.08605
19.5 -0.08579
19.55 -0.07992
19.6 -0.073
19.65 -0.06789
19.7 -0.06334
19.75 -0.0646
19.8 -0.06104
19.85 -0.05462
19.9 -0.05302
19.95 -0.04948
20 -0.04635
20.05 -0.04146
20.1 -0.03638
20.15 -0.03694
20.2 -0.03815
20.25 -0.0376
20.3 -0.03974
20.35 -0.03973
20.4 -0.03706
20.45 -0.03881
20.5 -0.04205
20.55 -0.04316
20.6 -0.04751
20.65 -0.05092
20.7 -0.05477
20.75 -0.05747
20.8 -0.05888
20.85 -0.05459
20.9 -0.05376
20.95 -0.05482
21 -0.05836
21.05 -0.05709
21.1 -0.0555
21.15 -0.05201
21.2 -0.04593
21.25 -0.04403
21.3 -0.04257
21.35 -0.04281
21.4 -0.04608
21.45 -0.04376
21.5 -0.03971
21.55 -0.03941
21.6 -0.04251
21.65 -0.0482
21.7 -0.04695
21.75 -0.04766
21.8 -0.04266
21.85 -0.04131
21.9 -0.04184
21.95 -0.03858
22 -0.03779
22.05 -0.03349
22.1 -0.03384
22.15 -0.02943
22.2 -0.02417
22.25 -0.01704
22.3 -0.01643
22.35 -0.01514
22.4 -0.01886
22.45 -0.0237
22.5 -0.02508
22.55 -0.02294
22.6 -0.02184
22.65 -0.02359
22.7 -0.02965
22.75 -0.03511
22.8 -0.04249
22.85 -0.04512
22.9 -0.04955
22.95 -0.0506
23 -0.05207
23.05 -0.0527
23.1 -0.05158
23.15 -0.0491
23.2 -0.04753
23.25 -0.04718
23.3 -0.04591
23.35 -0.03848
23.4 -0.03682
23.45 -0.03629
23.5 -0.03173
23.55 -0.02823
23.6 -0.02905
23.65 -0.027
23.7 -0.02486
23.75 -0.02404
23.8 -0.02337
23.85 -0.02425
23.9 -0.02392
23.95 -0.01939
24 -0.01238
24.05 -0.00765
24.1 -0.00306
24.15 -0.00091
24.2 -0.00085
24.25 0.00229
24.3 0.00453
24.35 0.00535
24.4 0.00767
24.45 0.00889
24.5 0.00939
24.55 0.00813
24.6 0.00364
24.65 -0.00116
24.7 -0.00865
24.75 -0.01777
24.8 -0.01989
24.85 -0.02382
24.9 -0.02702
24.95 -0.0262
25 -0.02232
25.05 -0.02013
25.1 -0.02185
25.15 -0.02576
25.2 -0.03048
25.25 -0.03474
25.3 -0.03259
25.35 -0.0285
25.4 -0.02124
25.45 -0.01714
25.5 -0.01773
25.55 -0.01998
25.6 -0.01976
25.65 -0.01867
25.7 -0.01968
25.75 -0.0236
25.8 -0.0254
25.85 -0.02127
25.9 -0.0164
25.95 -0.0132
26 -0.01416
26.05 -0.01511
26.1 -0.01641
26.15 -0.01951
26.2 -0.01831
26.25 -0.02001
26.3 -0.01884
26.35 -0.02018
26.4 -0.01734
26.45 -0.01399
26.5 -0.01571
26.55 -0.01257
26.6 -0.0138
26.65 -0.01136
26.7 -0.01076
26.75 -0.01013
26.8 -0.01109
26.85 -0.00774
26.9 -0.00553
26.95 0.00036
27 0.00525
27.05 0.01164
27.1 0.01534
27.15 0.01154
27.2 0.01003
27.25 0.00558
27.3 0.00025
27.35 -0.00504
27.4 -0.00791
27.45 -0.00617
27.5 -0.0058
27.55 -0.00818
27.6 -0.00519
27.65 -0.00676
27.7 -0.00921
27.75 -0.00696
27.8 -0.00574
27.85 -0.00277
27.9 -0.00407
27.95 -0.00416
28 -0.00867
28.05 -0.0079
28.1 -0.00696
28.15 -0.00914
28.2 -0.01199
28.25 -0.01584
28.3 -0.0186
28.35 -0.02011
28.4 -0.02104
28.45 -0.01992
28.5 -0.01741
28.55 -0.01461
28.6 -0.01561
28.65 -0.01179
28.7 -0.01168
28.75 -0.00763
28.8 -0.00367
28.85 0.00217
28.9 0.00757
28.95 0.01395
29 0.02127
29.05 0.02367
29.1 0.0224
29.15 0.02021
29.2 0.01986
29.25 0.0208
29.3 0.0206
29.35 0.02305
29.4 0.02251
29.45 0.01754
29.5 0.00893
29.55 -0.00005
29.6 -0.00597
29.65 -0.00594
29.7 -0.00973
29.75 -0.01042
29.8 -0.01425
29.85 -0.01866
29.9 -0.01776
29.95 -0.01827
30 -0.01819
30.05 -0.02005
30.1 -0.01832
30.15 -0.01717
30.2 -0.01466
30.25 -0.01396
30.3 -0.01598
30.35 -0.01889
30.4 -0.02232
30.45 -0.02417
30.5 -0.0235
30.55 -0.02023
30.6 -0.01596
30.65 -0.01528
30.7 -0.01265
30.75 -0.01151
30.8 -0.01037
30.85 -0.00824
30.9 -0.00486
30.95 0.00044
31 0.00224
31.05 0.00103
31.1 -0.00282
31.15 -0.00745
31.2 -0.00696
31.25 -0.00497
31.3 -0.0043
31.35 0.00111
31.4 0.00699
31.45 0.00811
31.5 0.00585
31.55 0.0046
31.6 0.00433
31.65 0.00811
31.7 0.00837
31.75 0.00948
31.8 0.01274
31.85 0.01391
31.9 0.01141
31.95 0.00776
32 0.00716
32.05 0.00364
32.1 -0.0028
32.15 -0.00491
32.2 -0.00627
32.25 -0.00266
32.3 -0.00277
32.35 -0.00199
32.4 -0.00591
32.45 -0.00407
32.5 0.0004
32.55 0.00476
32.6 0.00542
32.65 0.00265
32.7 -0.00192
32.75 -0.00645
32.8 -0.01285
32.85 -0.01238
32.9 -0.01386
32.95 -0.01532
33 -0.01263
33.05 -0.00901
33.1 -0.01015
33.15 -0.00859
33.2 -0.00386
33.25 -0.00043
33.3 0.00013
33.35 -0.00089
33.4 -0.00307
33.45 -0.00157
33.5 -0.00417
33.55 -0.00472
33.6 -0.00389
33.65 0.00042
33.7 0.00381
33.75 0.00175
33.8 -0.00016
33.85 0.0015
33.9 -0.00036
33.95 -0.0047
34 -0.00497
34.05 -0.00854
34.1 -0.00667
34.15 -0.00149
34.2 0.00527
34.25 0.01302
34.3 0.01483
34.35 0.0162
34.4 0.01593
34.45 0.0167
34.5 0.01362
34.55 0.01465
34.6 0.0113
34.65 0.01059
34.7 0.01178
34.75 0.01387
34.8 0.01822
34.85 0.01729
34.9 0.01305
34.95 0.00755
35 0.00194
35.05 -0.00278
35.1 -0.00667
35.15 -0.01177
35.2 -0.01246
35.25 -0.01344
35.3 -0.01639
35.35 -0.01441
35.4 -0.01568
35.45 -0.01946
35.5 -0.02142
35.55 -0.02285
35.6 -0.02224
35.65 -0.01718
35.7 -0.00847
35.75 -0.00529
35.8 -0.00407
35.85 -0.0042
35.9 -0.00231
35.95 0.00204
36 0.00832
36.05 0.01512
36.1 0.01751
36.15 0.01839
36.2 0.01318
36.25 0.01299
36.3 0.01167
36.35 0.00845
36.4 0.0029
36.45 -0.00157
36.5 -0.0015
36.55 -0.00536
36.6 -0.00959
36.65 -0.01336
36.7 -0.01771
36.75 -0.0195
36.8 -0.02191
36.85 -0.02111
36.9 -0.01526
36.95 -0.00754
37 -0.00208
37.05 -0.00261
37.1 -0.00461
37.15 -0.00485
37.2 -0.00134
37.25 0.00436
37.3 0.00606
37.35 0.00284
37.4 0.00285
37.45 0.00479
37.5 0.00618
37.55 0.01096
37.6 0.01086
37.65 0.00719
37.7 0.00893
37.75 0.01131
37.8 0.00846
37.85 0.00357
37.9 0.00387
37.95 0.00493
38 0.00635
38.05 0.00898
38.1 0.01042
38.15 0.00757
38.2 0.0024
38.25 -0.00113
38.3 -0.00174
38.35 -0.00335
38.4 -0.00297
38.45 -0.00292
38.5 -0.00029
38.55 0.00589
38.6 0.0128
38.65 0.01322
38.7 0.01684
38.75 0.02223
38.8 0.02289
38.85 0.02232
38.9 0.01702
38.95 0.00832
39 0.00647
39.05 0.00607
39.1 0.0063
39.15 0.00479
39.2 -0.00087
39.25 -0.00104
39.3 -0.00204
39.35 -0.0054
39.4 -0.00514
39.45 -0.00779
39.5 -0.00483
39.55 -0.00427
39.6 -0.00723
39.65 -0.00476
39.7 -0.00083
39.75 0.00112
39.8 0.00219
39.85 -0.0008
39.9 -0.00017
39.95 0.00176
40 0.0045
40.05 0.00757
40.1 0.01226
40.15 0.01378
40.2 0.01763
40.25 0.01528
40.3 0.01022
40.35 0.0065
40.4 0.00036
40.45 0.00053
40.5 0.00179
40.55 0.00023
40.6 -0.00434
40.65 -0.00408
40.7 -0.00734
40.75 -0.0116
40.8 -0.01391
40.85 -0.01454
40.9 -0.01757
40.95 -0.02049
41 -0.02322
41.05 -0.02191
41.1 -0.01816
41.15 -0.01154
41.2 -0.0067
41.25 -0.00725
41.3 -0.00492
41.35 0.00113
41.4 0.0018
41.45 0.00293
41.5 0.00442
41.55 0.00374
41.6 -0.00022
41.65 -0.00373
41.7 -0.01003
41.75 -0.01738
41.8 -0.02462
41.85 -0.02858
41.9 -0.03267
41.95 -0.02972
42 -0.02715
42.05 -0.02397
42.1 -0.02289
42.15 -0.02328
42.2 -0.02259
42.25 -0.01851
42.3 -0.00968
42.35 -0.00423
42.4 0.00317
42.45 0.00714
42.5 0.01034
42.55 0.01132
42.6 0.00755
42.65 0.00875
42.7 0.01321
42.75 0.01287
42.8 0.01392
42.85 0.01249
42.9 0.0072
42.95 0.00422
43 0.00343
43.05 0.00625
43.1 0.00619
43.15 0.00245
43.2 0.00455
43.25 0.00247
43.3 -0.00025
43.35 0.00254
43.4 0.0071
43.45 0.00978
43.5 0.00665
43.55 0.00618
43.6 0.00173
43.65 -0.00202
43.7 0.00011
43.75 0.00287
43.8 0.00326
43.85 0.00233
43.9 0.00041
43.95 0.00201
44 0.00463
44.05 0.0069
44.1 0.01209
44.15 0.01191
44.2 0.00669
44.25 -0.00069
44.3 -0.00727
44.35 -0.01255
44.4 -0.01188
44.45 -0.01262
44.5 -0.00902
44.55 -0.00397
44.6 0.00247
44.65 0.0042
44.7 0.00314
44.75 0.00076
44.8 0.00247
44.85 0.00292
44.9 0.00247
44.95 0.00655
45 0.01253
45.05 0.01932
45.1 0.02337
45.15 0.01947
45.2 0.01362
45.25 0.00452
45.3 0.00278
45.35 0.00159
45.4 -0.00332
45.45 -0.00756
45.5 -0.01068
45.55 -0.0162
45.6 -0.01858
45.65 -0.01928
45.7 -0.01957
45.75 -0.01831
45.8 -0.01528
45.85 -0.011
45.9 -0.004
45.95 0.00393
46 0.00772
46.05 0.00922
46.1 0.00988
46.15 0.00614
46.2 0.00166
46.25 -0.00358
46.3 -0.00803
46.35 -0.01432
46.4 -0.01498
46.45 -0.01755
46.5 -0.01744
46.55 -0.01493
46.6 -0.01383
46.65 -0.01287
46.7 -0.01461
46.75 -0.01456
46.8 -0.01234
46.85 -0.00612
46.9 0.00224
46.95 0.01162
47 0.01653
47.05 0.01825
47.1 0.0139
47.15 0.01292
47.2 0.00829
47.25 0.00852
47.3 0.01199
47.35 0.01247
47.4 0.01244
47.45 0.00696
47.5 0.00358
47.55 0.00525
47.6 0.01044
47.65 0.01412
47.7 0.01525
47.75 0.01283
47.8 0.00631
47.85 0.00324
47.9 0.00042
47.95 -0.00195
48 0.00015
48.05 -0.00099
48.1 0.00289
48.15 0.00535
48.2 0.00509
48.25 0.00708
48.3 0.01207
48.35 0.01519
48.4 0.0126
48.45 0.00603
48.5 0.00062
48.55 -0.00537
48.6 -0.00604
48.65 -0.00975
48.7 -0.0113
48.75 -0.01491
48.8 -0.01471
48.85 -0.01663
48.9 -0.02082
48.95 -0.01945
49 -0.01814
49.05 -0.01845
49.1 -0.02165
49.15 -0.02369
49.2 -0.02429
49.25 -0.0267
49.3 -0.0276
49.35 -0.0235
49.4 -0.01411
49.45 -0.0103
49.5 -0.00651
49.55 -0.00413
49.6 -0.0065
49.65 -0.01067
49.7 -0.01493
49.75 -0.01541
49.8 -0.0129
49.85 -0.00682
49.9 -0.00008
49.95 0.00587
50 0.0133
50.05 0.02003
50.1 0.02677
50.15 0.02499
50.2 0.02596
50.25 0.02899
50.3 0.02862
50.35 0.0258
50.4 0.02227
50.45 0.01396
50.5 0.00761
50.55 -0.00103
50.6 -0.00256
50.65 -0.00137
50.7 0.0018
50.75 0.00527
50.8 0.00287
50.85 0.00211
50.9 -0.00107
50.95 -0.0006
51 -0.00437
51.05 -0.00573
51.1 -0.0051
51.15 -0.00535
51.2 -0.00302
51.25 0.00023
51.3 0.00126
51.35 0.00195
51.4 0.0029
51.45 0.00785
51.5 0.01165
51.55 0.01401
51.6 0.01529
51.65 0.01715
51.7 0.01346
51.75 0.01121
51.8 0.01327
51.85 0.01378
51.9 0.00915
51.95 0.00301
52 -0.00327
52.05 -0.01063
52.1 -0.01614
52.15 -0.0189
52.2 -0.02199
52.25 -0.0247
52.3 -0.02081
52.35 -0.01444
52.4 -0.01042
52.45 -0.01079
52.5 -0.00942
52.55 -0.0085
52.6 -0.00692
52.65 -0.00692
52.7 -0.01015
52.75 -0.01176
52.8 -0.01533
52.85 -0.0126
52.9 -0.00507
52.95 -0.00024
53 0.0044
53.05 0.00897
53.1 0.00734
53.15 0.0084
53.2 0.00681
53.25 0.00203
53.3 -0.00233
53.35 -0.00585
53.4 -0.00937
53.45 -0.01076
53.5 -0.00873
53.55 -0.0058
53.6 -0.00398
53.65 0.00078
53.7 0.00401
53.75 0.00462
53.8 0.00934
53.85 0.01203
53.9 0.01581
53.95 0.01317
54 0.00955
54.05 0.00788
54.1 0.00546
54.15 0.00538
54.2 0.00527
54.25 0.00141
54.3 -0.00242
54.35 -0.00254
54.4 0.00024
54.45 0.00449
54.5 0.00372
54.55 0.00091
54.6 0.001
54.65 0.00421
54.7 0.00828
54.75 0.00936
54.8 0.00685
54.85 0.00704
54.9 0.00844
54.95 0.01071
55 0.011
55.05 0.0102
55.1 0.00615
55.15 0.0006
55.2 -0.00602
55.25 -0.00551
55.3 -0.00711
55.35 -0.00439
55.4 0.00078
55.45 0.00459
55.5 0.00466
55.55 0.00483
55.6 0.00365
55.65 0.00303
55.7 0.00265
55.75 0.00665
55.8 0.01153
55.85 0.01465
55.9 0.01736
55.95 0.02164
56 0.027
56.05 0.02585
56.1 0.02226
56.15 0.01767
56.2 0.01295
56.25 0.00832
56.3 0.00437
56.35 0.00186
56.4 0.001
56.45 -0.00136
56.5 -0.00165
56.55 -0.00499
56.6 -0.00351
56.65 -0.0046
56.7 -0.00474
56.75 -0.0011
56.8 -0.00189
56.85 -0.0049
56.9 -0.00905
56.95 -0.00822
57 -0.01021
57.05 -0.00872
57.1 -0.00571
57.15 -0.00106
57.2 0.00144
57.25 -0.0001
57.3 -0.00041
57.35 0.00153
57.4 0.00468
57.45 0.00988
57.5 0.01125
57.55 0.00956
57.6 0.00365
57.65 0.0011
57.7 0.00258
57.75 -0.00066
57.8 -0.00259
57.85 -0.00163
57.9 -0.00485
57.95 -0.00809
58 -0.01375
58.05 -0.01866
58.1 -0.01668
58.15 -0.01294
58.2 -0.01253
58.25 -0.00797
58.3 -0.00601
58.35 -0.0036
58.4 -0.00071
58.45 -0.00007
58.5 -0.0009
58.55 0.0011
58.6 0.00575
58.65 0.00807
58.7 0.00855
58.75 0.01157
58.8 0.01039
58.85 0.00707
58.9 0.00504
58.95 0.003
59 0.00185
59.05 0.00149
59.1 0.00502
59.15 0.00885
59.2 0.00699
59.25 0.00194
59.3 -0.0048
59.35 -0.01303
59.4 -0.01998
59.45 -0.02592
59.5 -0.02745
59.55 -0.02824
59.6 -0.02246
59.65 -0.01907
59.7 -0.01597
59.75 -0.01722
59.8 -0.01773
59.85 -0.01994
59.9 -0.01558
59.95 -0.01155
60 -0.00803
60.05 -0.00791
60.1 -0.0062
60.15 -0.00297
60.2 0.00348
60.25 0.00539
60.3 0.0036
60.35 0.00423
60.4 0.00313
60.45 0.00296
60.5 0.0032
60.55 0.0072
60.6 0.01344
60.65 0.0185
60.7 0.02271
60.75 0.02694
60.8 0.03122
60.85 0.03167
60.9 0.02674
60.95 0.02206
61 0.01334
61.05 0.00266
61.1 -0.00651
61.15 -0.0166
61.2 -0.02473
61.25 -0.02538
61.3 -0.02091
61.35 -0.02108
61.4 -0.01693
61.45 -0.01235
61.5 -0.00767
61.55 -0.00082
61.6 0.00007
61.65 -0.00365
61.7 -0.01032
61.75 -0.01832
61.8 -0.02303
61.85 -0.02404
61.9 -0.02419
61.95 -0.01806
62 -0.01416
62.05 -0.01369
62.1 -0.01227
62.15 -0.00986
62.2 -0.00454
62.25 -0.00061
62.3 -0.00165
62.35 -0.00606
62.4 -0.0122
62.45 -0.01581
62.5 -0.01204
62.55 -0.01215
62.6 -0.01102
62.65 -0.01087
62.7 -0.01312
62.75 -0.01644
62.8 -0.01904
62.85 -0.02264
62.9 -0.02031
62.95 -0.01973
63 -0.0169
63.05 -0.01517
63.1 -0.00827
63.15 -0.00506
63.2 -0.00645
63.25 -0.00599
63.3 -0.00689
63.35 -0.00852
63.4 -0.00835
63.45 -0.00337
63.5 0.00118
63.55 0.00658
63.6 0.01032
63.65 0.01562
63.7 0.01831
63.75 0.01519
63.8 0.00934
63.85 0.00618
63.9 0.00818
63.95 0.00457
64 0.002
64.05 -0.00089
64.1 -0.00435
64.15 -0.00963
64.2 -0.01327
64.25 -0.01699
64.3 -0.01381
64.35 -0.00952
64.4 -0.00623
64.45 -0.00708
64.5 -0.0023
64.55 -0.00008
64.6 -0.00043
64.65 -0.0012
64.7 0.00145
64.75 -0.00056
64.8 0.00289
64.85 0.00488
64.9 0.00383
64.95 0.00407
65 0.00318
65.05 -0.00014
65.1 -0.00204
65.15 -0.00293
65.2 0.00176
65.25 0.00415
65.3 0.00512
65.35 0.00827
65.4 0.0112
65.45 0.01065
65.5 0.01046
65.55 0.01392
65.6 0.01087
65.65 0.00938
65.7 0.00498
65.75 0.00177
65.8 -0.00257
65.85 -0.00263
65.9 0.00057
65.95 0.00508
66 0.00492
66.05 0.00107
66.1 -0.00419
66.15 -0.0109
66.2 -0.01076
66.25 -0.01081
66.3 -0.00537
66.35 -0.00388
66.4 -0.0056
66.45 -0.00181
66.5 0.00446
66.55 0.00873
66.6 0.01099
66.65 0.01493
66.7 0.01357
66.75 0.01503
66.8 0.01409
66.85 0.0154
66.9 0.01308
66.95 0.00859
67 0.00748
67.05 0.00688
67.1 0.00165
67.15 0.00269
67.2 0.00314
67.25 0.0066
67.3 0.00832
67.35 0.00475
67.4 0.00498
67.45 0.00175
67.5 0.00125
67.55 -0.00012
67.6 -0.00502
67.65 -0.01156
67.7 -0.01465
67.75 -0.01504
67.8 -0.01209
67.85 -0.00499
67.9 0.00164
67.95 0.00223
68 0.00636
68.05 0.01244
68.1 0.01306
68.15 0.01123
68.2 0.01156
68.25 0.00825
68.3 0.00535
68.35 -0.00029
68.4 -0.00303
68.45 -0.0073
68.5 -0.01081
68.55 -0.01423
68.6 -0.01189
68.65 -0.01001
68.7 -0.0035
68.75 0.00253
68.8 0.00796
68.85 0.00817
68.9 0.00787
68.95 0.0058
69 0.0018
69.05 -0.00014
69.1 0.00127
69.15 0.00159
69.2 0.00195
69.25 0.00495
69.3 0.01071
69.35 0.01424
69.4 0.0115
69.45 0.00563
69.5 0.00493
69.55 0.00828
69.6 0.00928
69.65 0.01179
69.7 0.00864
69.75 0.00417
69.8 0.00225
69.85 0.00427
69.9 0.00083
69.95 0.00047
70 -0.00423
70.05 -0.00446
70.1 -0.00576
70.15 -0.0096
70.2 -0.01531
70.25 -0.01602
70.3 -0.01176
70.35 -0.00415
70.4 0.00514
70.45 0.01137
70.5 0.00984
70.55 0.00836
70.6 0.00428
70.65 0.00486
70.7 0.00588
70.75 0.00329
70.8 -0.00015
70.85 -0.00028
70.9 -0.00197
70.95 -0.00655
71 -0.00596
71.05 -0.00478
71.1 -0.00771
71.15 -0.01213
71.2 -0.01022
71.25 -0.00933
71.3 -0.00965
71.35 -0.01083
71.4 -0.00849
71.45 -0.00909
71.5 -0.00409
71.55 0.00327
71.6 0.01077
71.65 0.01085
71.7 0.01359
71.75 0.01762
71.8 0.0195
71.85 0.02138
71.9 0.01822
71.95 0.01102
72 0.00786
72.05 0.00273
72.1 -0.00084
72.15 -0.00113
72.2 0.00259
72.25 0.00105
72.3 -0.00325
72.35 -0.00321
72.4 0.00125
72.45 0.00526
72.5 0.00455
72.55 0.00415
72.6 -0.00013
72.65 -0.00105
72.7 -0.00438
72.75 -0.01006
72.8 -0.01211
72.85 -0.01632
72.9 -0.0139
72.95 -0.00853
73 -0.00574
73.05 -0.00647
73.1 -0.00426
73.15 -0.00706
73.2 -0.00583
73.25 -0.00405
73.3 -0.006
73.35 -0.00809
73.4 -0.01153
73.45 -0.0091
73.5 -0.00874
73.55 -0.00901
73.6 -0.00638
73.65 -0.00311
73.7 0.00151
73.75 0.00425
73.8 0.00397
73.85 0.00639
73.9 0.00475
73.95 0.00526
74 0.00339
74.05 0.00643
74.1 0.00611
74.15 0.00818
74.2 0.01107
74.25 0.00839
74.3 0.01054
74.35 0.00695
74.4 0.0054
74.45 0.00272
74.5 -0.00309
74.55 -0.00251
74.6 -0.00095
74.65 0.00093
74.7 0.00577
74.75 0.00874
74.8 0.01113
74.85 0.00837
74.9 0.00814
74.95 0.0092
75 0.00456
75.05 0.00137
75.1 0.00192
75.15 -0.00051
75.2 -0.00051
75.25 -0.00225
75.3 -0.00329
75.35 -0.00238
75.4 0.00154
75.45 0.00616
75.5 0.00463
75.55 0.00686
75.6 0.00982
75.65 0.00642
75.7 -0.00047
75.75 -0.00795
75.8 -0.01263
75.85 -0.01839
75.9 -0.02256
75.95 -0.02262
76 -0.01828
76.05 -0.01511
76.1 -0.0104
76.15 -0.00243
76.2 0.00269
76.25 0.0034
76.3 0.0057
76.35 0.01011
76.4 0.01613
76.45 0.01783
76.5 0.01373
76.55 0.0061
76.6 0.00128
76.65 0.00222
76.7 -0.00041
76.75 -0.00194
76.8 -0.00563
76.85 -0.0072
76.9 -0.0073
76.95 -0.00908
77 -0.01193
77.05 -0.00843
77.1 -0.00527
77.15 0.00026
77.2 0.00218
77.25 0.00474
77.3 0.00487
77.35 0.00766
77.4 0.00934
77.45 0.00618
77.5 0.00703
77.55 0.0096
77.6 0.00863
77.65 0.01126
77.7 0.0134
77.75 0.01586
77.8 0.01504
77.85 0.01447
77.9 0.01284
77.95 0.01444
78 0.01568
78.05 0.0174
78.1 0.01885
78.15 0.01831
78.2 0.02056
78.25 0.01739
78.3 0.01651
78.35 0.01333
78.4 0.00724
78.45 0.00259
78.5 0.00267
78.55 0.00519
78.6 0.0061
78.65 0.00925
78.7 0.01345
78.75 0.01857
78.8 0.01804
78.85 0.0127
78.9 0.01054
78.95 0.00628
79 0.00658
79.05 0.00469
79.1 0.00162
79.15 -0.00353
79.2 -0.0067
79.25 -0.00705
79.3 -0.00946
79.35 -0.0071
79.4 -0.00205
79.45 0.00343
79.5 0.00561
79.55 0.00394
79.6 0.00204
79.65 0.00385
79.7 0.00823
79.75 0.0079
79.8 0.00723
79.85 0.0039
79.9 0.00265
79.95 0.00368
80 0.00796
80.05 0.00852
80.1 0.00626
80.15 0.00782
80.2 0.0068
80.25 0.00796
80.3 0.0067
80.35 0.0025
80.4 0.00208
80.45 -0.00011
80.5 -0.00005
80.55 -0.00144
80.6 -0.007
80.65 -0.01062
80.7 -0.01135
80.75 -0.0088
80.8 -0.00988
80.85 -0.01026
80.9 -0.00732
80.95 -0.00433
81 -0.00276
81.05 -0.00433
81.1 -0.00412
81.15 -0.00462
81.2 -0.00913
81.25 -0.01077
81.3 -0.00783
81.35 -0.00903
81.4 -0.0084
81.45 -0.00783
81.5 -0.00992
81.55 -0.00744
81.6 -0.00833
81.65 -0.01057
81.7 -0.01387
81.75 -0.01144
81.8 -0.00538
81.85 0.00082
81.9 0.00123
81.95 0.00025
82 0.00345
82.05 0.00044
82.1 -0.00617
82.15 -0.01387
82.2 -0.01862
82.25 -0.02001
82.3 -0.01553
82.35 -0.00718
82.4 -0.0032
82.45 -0.00259
82.5 -0.00382
82.55 -0.00619
82.6 -0.01124
82.65 -0.01277
82.7 -0.0135
82.75 -0.01356
82.8 -0.01139
82.85 -0.00704
82.9 -0.00247
82.95 -0.00229
83 -0.00393
83.05 -0.00915
83.1 -0.01327
83.15 -0.01877
83.2 -0.02049
83.25 -0.01956
83.3 -0.01833
83.35 -0.01299
83.4 -0.01198
83.45 -0.0133
83.5 -0.0116
83.55 -0.00736
83.6 -0.0004
83.65 0.00315
83.7 0.00891
83.75 0.00764
83.8 0.00416
83.85 0.00085
83.9 0.00267
83.95 0.00277
84 0.00092
84.05 0.00241
84.1 -0.00086
84.15 -0.00605
84.2 -0.01102
84.25 -0.00954
84.3 -0.00441
84.35 -0.00057
84.4 -0.00275
84.45 -0.00408
84.5 -0.00223
84.55 0.0018
84.6 0.00037
84.65 -0.00476
84.7 -0.00369
84.75 -0.00622
84.8 -0.01049
84.85 -0.01361
84.9 -0.01487
84.95 -0.0108
85 -0.0092
85.05 -0.00783
85.1 -0.00944
85.15 -0.00783
85.2 -0.00613
85.25 -0.00724
85.3 -0.0039
85.35 -0.00519
85.4 -0.00631
85.45 -0.00827
85.5 -0.00813
85.55 -0.00753
85.6 -0.00914
85.65 -0.00606
85.7 -0.00441
85.75 0.00109
85.8 0.0004
85.85 0.00086
85.9 0.0016
85.95 0.00003
86 -0.00085
86.05 0.00173
86.1 0.00611
86.15 0.0102
86.2 0.00871
86.25 0.00897
86.3 0.00628
86.35 0.00255
86.4 0.00283
86.45 0.00328
86.5 0.00151
86.55 0.00297
86.6 0.0007
86.65 -0.00421
86.7 -0.01082
86.75 -0.01361
86.8 -0.00987
86.85 -0.00537
86.9 -0.00589
86.95 -0.00984
87 -0.01305
87.05 -0.01475
87.1 -0.01688
87.15 -0.01811
87.2 -0.02019
87.25 -0.01723
87.3 -0.00963
87.35 -0.00653
87.4 -0.00074
87.45 0.00367
87.5 0.00726
87.55 0.01277
87.6 0.01498
87.65 0.01335
87.7 0.01084
87.75 0.009
87.8 0.00411
87.85 0.00137
87.9 -0.0049
87.95 -0.0101
88 -0.00895
88.05 -0.00613
88.1 -0.00005
88.15 0.00463
88.2 0.00871
88.25 0.01313
88.3 0.01616
88.35 0.01501
88.4 0.01669
88.45 0.01941
88.5 0.02404
88.55 0.02813
88.6 0.02987
88.65 0.02453
88.7 0.01771
88.75 0.00956
88.8 0.00301
88.85 -0.00556
88.9 -0.00633
88.95 -0.00413
89 -0.00114
89.05 0.00069
89.1 -0.00264
89.15 -0.00266
89.2 -0.00007
89.25 0.00611
89.3 0.01008
89.35 0.01305
89.4 0.01273
89.45 0.00944
89.5 0.00392
89.55 0.00237
89.6 0.00461
89.65 0.00186
89.7 -0.00282
89.75 -0.00455
89.8 -0.00551
89.85 -0.00252
89.9 0.00163
89.95 0.00721
90 0.00943
90.05 0.00913
90.1 0.00389
90.15 0.00298
90.2 0.00511
90.25 0.00158
90.3 -0.00548
90.35 -0.00565
90.4 -0.00759
90.45 -0.00925
90.5 -0.01431
90.55 -0.01993
90.6 -0.02124
90.65 -0.02019
90.7 -0.02033
90.75 -0.02304
90.8 -0.02025
90.85 -0.01338
90.9 -0.00533
90.95 0.00288
91 0.01146
91.05 0.01653
91.1 0.02102
91.15 0.02326
91.2 0.01956
91.25 0.01161
91.3 0.00617
91.35 0.00608
91.4 0.00556
91.45 0.00065
91.5 -0.00538
91.55 -0.00968
91.6 -0.00789
91.65 -0.00642
91.7 -0.00135
91.75 -0.00009
91.8 0.00457
91.85 0.01088
91.9 0.01825
91.95 0.01993
92 0.01689
92.05 0.01569
92.1 0.01559
92.15 0.01507
92.2 0.01303
92.25 0.01467
92.3 0.01681
92.35 0.01333
92.4 0.00873
92.45 0.00117
92.5 -0.00853
92.55 -0.01424
92.6 -0.02126
92.65 -0.02733
92.7 -0.02523
92.75 -0.0228
92.8 -0.01741
92.85 -0.00822
92.9 -0.006
92.95 -0.00348
93 0.00169
93.05 0.00631
93.1 0.0049
93.15 0.00042
93.2 -0.00345
93.25 -0.0052
93.3 -0.0055
93.35 -0.00642
93.4 -0.00373
93.45 -0.00629
93.5 -0.00375
93.55 -0.00001
93.6 0.00587
93.65 0.01182
93.7 0.01093
93.75 0.00769
93.8 0.00879
93.85 0.00833
93.9 0.00649
93.95 0.00604
94 0.00436
94.05 0.0072
94.1 0.00858
94.15 0.00879
94.2 0.00617
94.25 0.00295
94.3 -0.00346
94.35 -0.00469
94.4 -0.00523
94.45 -0.0034
94.5 -0.00379
94.55 -0.00349
94.6 -0.00213
94.65 -0.00316
94.7 -0.00401
94.75 -0.00694
94.8 -0.0051
94.85 -0.00716
94.9 -0.01201
94.95 -0.01769
95 -0.01929
95.05 -0.02001
95.1 -0.01587
95.15 -0.01078
95.2 -0.00772
95.25 -0.00326
95.3 0.00223
95.35 0.00626
95.4 0.00772
95.45 0.00674
95.5 0.00491
95.55 0.00723
95.6 0.00543
95.65 0.00651
95.7 0.00329
95.75 0.00088
95.8 -0.00261
95.85 -0.00142
95.9 -0.00485
95.95 -0.00669
96 -0.00513
96.05 -0.00028
96.1 0.00369
96.15 0.00752
96.2 0.01007
96.25 0.01403
96.3 0.01233
96.35 0.01232
96.4 0.00884
96.45 0.00246
96.5 -0.00367
96.55 -0.00521
96.6 -0.00917
96.65 -0.0066
96.7 -0.00121
96.75 0.00402
96.8 0.00873
96.85 0.01505
96.9 0.01826
96.95 0.01945
97 0.02245
97.05 0.0198
97.1 0.01257
97.15 0.00215
97.2 -0.00455
97.25 -0.01182
97.3 -0.01517
97.35 -0.01273
97.4 -0.0147
97.45 -0.01843
97.5 -0.02155
97.55 -0.02292
97.6 -0.02041
97.65 -0.018
97.7 -0.01104
97.75 -0.01039
97.8 -0.00954
97.85 -0.00553
97.9 -0.00583
97.95 -0.00675
98 -0.01022
98.05 -0.00713
98.1 -0.0088
98.15 -0.0116
98.2 -0.01499
98.25 -0.0168
98.3 -0.01926
98.35 -0.02231
98.4 -0.01912
98.45 -0.01444
98.5 -0.00922
98.55 -0.00685
98.6 -0.00524
98.65 -0.00129
98.7 0.00189
98.75 0.00484
98.8 0.00773
98.85 0.00871
98.9 0.00544
98.95 0.00021
99 -0.00402
99.05 -0.00998
99.1 -0.01288
99.15 -0.01052
99.2 -0.00826
99.25 -0.0073
99.3 -0.00418
99.35 -0.00469
99.4 -0.00836
99.45 -0.00933
99.5 -0.00718
99.55 -0.00097
99.6 0.00161
99.65 0.00332
99.7 0.00193
99.75 -0.00132
99.8 -0.00431
99.85 -0.00612
99.9 -0.00824
99.95 -0.00508
