0 0
0.05 0.00674
0.1 0.01947
0.15 0.02593
0.2 0.03046
0.25 0.03345
0.3 0.03301
0.35 0.03289
0.4 0.03213
0.45 0.02899
0.5 0.02598
0.55 0.02334
0.6 0.02298
0.65 0.02824
0.7 0.03005
0.75 0.03734
0.8 0.04443
0.85 0.0522
0.9 0.06065
0.95 0.0655
1 0.06875
1.05 0.07036
1.1 0.06708
1.15 0.05917
1.2 0.05397
1.25 0.0462
1.3 0.03901
1.35 0.03623
1.4 0.0374
1.45 0.03523
1.5 0.033
1.55 0.03294
1.6 0.03789
1.65 0.03725
1.7 0.03243
1.75 0.02731
1.8 0.02292
1.85 0.023
1.9 0.02386
1.95 0.0246
2 0.0299
2.05 0.03379
2.1 0.04011
2.15 0.04065
2.2 0.04286
2.25 0.04271
2.3 0.03919
2.35 0.03245
2.4 0.02413
2.45 0.01603
2.5 0.01171
2.55 0.01006
2.6 0.01275
2.65 0.01416
2.7 0.01258
2.75 0.01609
2.8 0.01655
2.85 0.01774
2.9 0.01981
2.95 0.0185
3 0.0173
3.05 0.01524
3.1 0.01824
3.15 0.01958
3.2 0.01954
3.25 0.01729
3.3 0.01704
3.35 0.01309
3.4 0.01296
3.45 0.01344
3.5 0.01438
3.55 0.01801
3.6 0.02471
3.65 0.0263
3.7 0.0269
3.75 0.02463
3.8 0.02144
3.85 0.01984
3.9 0.01858
3.95 0.01513
4 0.00869
4.05 0.00447
4.1 -0.00199
4.15 -0.00924
4.2 -0.01132
4.25 -0.01478
4.3 -0.0171
4.35 -0.01401
4.4 -0.00838
4.45 -0.00797
4.5 -0.01208
4.55 -0.01931
4.6 -0.0315
4.65 -0.04393
4.7 -0.0579
4.75 -0.07426
4.8 -0.09319
4.85 -0.11885
4.9 -0.14883
4.95 -0.18342
5 -0.22664
5.05 -0.27238
5.1 -0.32249
5.15 -0.37992
5.2 -0.44507
5.25 -0.51747
5.3 -0.59321
5.35 -0.66845
5.4 -0.75035
5.45 -0.83825
5.5 -0.92422
5.55 -1.00995
5.6 -1.10315
5.65 -1.19666
5.7 -1.29023
5.75 -1.38328
5.8 -1.47181
5.85 -1.55857
5.9 -1.6438
5.95 -1.72066
6 -1.79794
6.05 -1.86681
6.1 -1.9364
6.15 -2.00355
6.2 -2.06099
6.25 -2.11436
6.3 -2.16601
6.35 -2.21286
6.4 -2.25407
6.45 -2.28878
6.5 -2.31159
6.55 -2.32129
6.6 -2.32025
6.65 -2.30875
6.7 -2.28997
6.75 -2.25895
6.8 -2.2146
6.85 -2.15285
6.9 -2.07486
6.95 -1.98995
7 -1.88995
7.05 -1.77451
7.1 -1.64996
7.15 -1.50837
7.2 -1.35353
7.25 -1.18529
7.3 -1.01401
7.35 -0.83193
7.4 -0.65053
7.45 -0.4674
7.5 -0.28392
7.55 -0.09718
7.6 0.09344
7.65 0.28208
7.7 0.46143
7.75 0.63784
7.8 0.80955
7.85 0.9685
7.9 1.11689
7.95 1.25397
8 1.37872
8.05 1.49251
8.1 1.59415
8.15 1.68793
8.2 1.77435
8.25 1.84977
8.3 1.91918
8.35 1.97399
8.4 2.02024
8.45 2.05559
8.5 2.08065
8.55 2.10544
8.6 2.12584
8.65 2.13975
8.7 2.1487
8.75 2.14737
8.8 2.13971
8.85 2.12947
8.9 2.1205
8.95 2.11139
9 2.096
9.05 2.08008
9.1 2.05772
9.15 2.03613
9.2 2.01639
9.25 1.99781
9.3 1.97331
9.35 1.94345
9.4 1.9114
9.45 1.87592
9.5 1.84219
9.55 1.80821
9.6 1.77684
9.65 1.74509
9.7 1.71606
9.75 1.68327
9.8 1.65296
9.85 1.61667
9.9 1.58532
9.95 1.55
10 1.50979
10.05 1.46722
10.1 1.42525
10.15 1.3852
10.2 1.34319
10.25 1.30496
10.3 1.26306
10.35 1.22064
10.4 1.18327
10.45 1.14835
10.5 1.10673
10.55 1.06556
10.6 1.02681
10.65 0.98779
10.7 0.94884
10.75 0.909
10.8 0.86705
10.85 0.8243
10.9 0.7812
10.95 0.73956
11 0.69247
11.05 0.64885
11.1 0.60596
11.15 0.56296
11.2 0.52208
11.25 0.48338
11.3 0.44171
11.35 0.39829
11.4 0.35679
11.45 0.31623
11.5 0.27856
11.55 0.2406
11.6 0.20343
11.65 0.16821
11.7 0.13608
11.75 0.10805
11.8 0.07654
11.85 0.04555
11.9 0.01462
11.95 -0.01108
12 -0.03065
12.05 -0.04953
12.1 -0.0639
12.15 -0.08255
12.2 -0.09938
12.25 -0.11291
12.3 -0.12576
12.35 -0.14235
12.4 -0.15577
12.45 -0.17256
12.5 -0.19097
12.55 -0.20483
12.6 -0.21606
12.65 -0.22818
12.7 -0.24307
12.75 -0.25505
12.8 -0.26982
12.85 -0.2812
12.9 -0.29001
12.95 -0.30206
13 -0.31676
13.05 -0.32575
13.1 -0.33364
13.15 -0.33992
13.2 -0.34753
13.25 -0.34863
13.3 -0.34987
13.35 -0.35065
13.4 -0.34819
13.45 -0.34481
13.5 -0.34651
13.55 -0.34751
13.6 -0.34807
13.65 -0.3497
13.7 -0.34714
13.75 -0.34179
13.8 -0.33813
13.85 -0.3373
13.9 -0.33966
13.95 -0.33751
14 -0.33753
14.05 -0.3379
14.1 -0.33346
14.15 -0.32794
14.2 -0.32062
14.25 -0.31813
14.3 -0.31437
14.35 -0.31407
14.4 -0.31402
14.45 -0.31262
14.5 -0.31028
14.55 -0.31162
14.6 -0.31269
14.65 -0.31037
14.7 -0.30473
14.75 -0.30289
14.8 -0.30359
14.85 -0.29929
14.9 -0.29157
14.95 -0.28096
15 -0.27118
15.05 -0.26291
15.1 -0.25562
15.15 -0.24597
15.2 -0.23858
15.25 -0.23334
15.3 -0.23217
15.35 -0.23234
15.4 -0.22836
15.45 -0.22959
15.5 -0.22752
15.55 -0.22698
15.6 -0.22344
15.65 -0.22357
15.7 -0.22527
15.75 -0.22867
15.8 -0.22452
15.85 -0.21949
15.9 -0.20994
15.95 -0.20207
16 -0.19636
16.05 -0.19158
16.1 -0.19078
16.15 -0.18758
16.2 -0.1845
16.25 -0.18287
16.3 -0.18288
16.35 -0.18175
16.4 -0.17636
16.45 -0.17549
16.5 -0.16956
16.55 -0.1685
16.6 -0.16557
16.65 -0.16579
16.7 -0.16408
16.75 -0.16558
16.8 -0.16307
16.85 -0.15722
16.9 -0.15003
16.95 -0.14939
17 -0.1487
17.05 -0.14815
17.1 -0.14327
17.15 -0.1357
17.2 -0.12827
17.25 -0.12788
17.3 -0.12669
17.35 -0.12462
17.4 -0.1218
17.45 -0.11984
17.5 -0.12269
17.55 -0.12227
17.6 -0.11847
17.65 -0.1126
17.7 -0.10973
17.75 -0.10723
17.8 -0.11053
17.85 -0.10902
17.9 -0.10432
17.95 -0.10248
18 -0.10525
18.05 -0.10386
18.1 -0.1017
18.15 -0.10154
18.2 -0.10189
18.25 -0.10256
18.3 -0.1045
18.35 -0.10383
18.4 -0.10192
18.45 -0.1039
18.5 -0.09989
18.55 -0.09946
18.6 -0.0995
18.65 -0.09966
18.7 -0.09601
18.75 -0.09255
18.8 -0.09272
18.85 -0.09154
18.9 -0.08714
18.95 -0.07977
19 -0.07546
19.05 -0.0745
19.1 -0.07383
19.15 -0.07208
19.2 -0.06633
19.25 -0.05891
19.3 -0.05842
19.35 -0.05732
19.4 -0.05982
19.45 -0.06344
19.5 -0.06241
19.55 -0.06119
19.6 -0.06168
19.65 -0.06009
19.7 -0.06386
19.75 -0.06725
19.8 -0.07252
19.85 -0.07716
19.9 -0.07413
19.95 -0.07541
20 -0.07171
20.05 -0.07137
20.1 -0.06793
20.15 -0.06534
20.2 -0.0602
20.25 -0.05384
20.3 -0.05213
20.35 -0.05519
20.4 -0.05336
20.45 -0.04811
20.5 -0.04426
20.55 -0.04253
20.6 -0.03896
20.65 -0.03665
20.7 -0.0391
20.75 -0.042
20.8 -0.04792
20.85 -0.04776
20.9 -0.0503
20.95 -0.04883
21 -0.05126
21.05 -0.05183
21.1 -0.04674
21.15 -0.041
21.2 -0.04101
21.25 -0.04048
21.3 -0.03797
21.35 -0.0364
21.4 -0.0384
21.45 -0.03524
21.5 -0.03468
21.55 -0.03453
21.6 -0.03724
21.65 -0.04
21.7 -0.04416
21.75 -0.04883
21.8 -0.05372
21.85 -0.05379
21.9 -0.0497
21.95 -0.04791
22 -0.04352
22.05 -0.0408
22.1 -0.03493
22.15 -0.03506
22.2 -0.03306
22.25 -0.03417
22.3 -0.03811
22.35 -0.0392
22.4 -0.03915
22.45 -0.03823
22.5 -0.03338
22.55 -0.02564
22.6 -0.02033
22.65 -0.01881
22.7 -0.01603
22.75 -0.01308
22.8 -0.01189
22.85 -0.01449
22.9 -0.01233
22.95 -0.01417
23 -0.01805
23.05 -0.02324
23.1 -0.02331
23.15 -0.02069
23.2 -0.0173
23.25 -0.01617
23.3 -0.01902
23.35 -0.01739
23.4 -0.01228
23.45 -0.008
23.5 -0.005
23.55 0.00009
23.6 0.00086
23.65 -0.00362
23.7 -0.0059
23.75 -0.00435
23.8 -0.00326
23.85 -0.00796
23.9 -0.01184
23.95 -0.01451
24 -0.01583
24.05 -0.014
24.1 -0.00901
24.15 -0.00909
24.2 -0.01264
24.25 -0.01794
24.3 -0.0222
24.35 -0.02276
24.4 -0.02066
24.45 -0.01508
24.5 -0.01092
24.55 -0.00963
24.6 -0.0114
24.65 -0.01071
24.7 -0.0128
24.75 -0.01576
24.8 -0.02196
24.85 -0.02496
24.9 -0.02536
24.95 -0.02698
25 -0.02604
25.05 -0.02771
25.1 -0.02617
25.15 -0.02206
25.2 -0.02228
25.25 -0.01688
25.3 -0.00965
25.35 -0.00269
25.4 0.00548
25.45 0.00708
25.5 0.00347
25.55 0.00226
25.6 -0.00253
25.65 -0.00996
25.7 -0.0186
25.75 -0.02072
25.8 -0.01816
25.85 -0.016
25.9 -0.01772
25.95 -0.02084
26 -0.02249
26.05 -0.01848
26.1 -0.01203
26.15 -0.00928
26.2 -0.00549
26.25 -0.00061
26.3 0.00624
26.35 0.0135
26.4 0.01678
26.45 0.02027
26.5 0.01958
26.55 0.01233
26.6 0.00629
26.65 0.0043
26.7 0.00331
26.75 0.00037
26.8 -0.00004
26.85 0.00276
26.9 0.00182
26.95 -0.00177
27 -0.00549
27.05 -0.00887
27.1 -0.00689
27.15 -0.00649
27.2 -0.00446
27.25 -0.00197
27.3 -0.00551
27.35 -0.0043
27.4 -0.00827
27.45 -0.01506
27.5 -0.02101
27.55 -0.02329
27.6 -0.0251
27.65 -0.02819
27.7 -0.0248
27.75 -0.02157
27.8 -0.01981
27.85 -0.01818
27.9 -0.0135
27.95 -0.01306
28 -0.0156
28.05 -0.01935
28.1 -0.02582
28.15 -0.0268
28.2 -0.02343
28.25 -0.02104
28.3 -0.01762
28.35 -0.01833
28.4 -0.02398
28.45 -0.03178
28.5 -0.03906
28.55 -0.0429
28.6 -0.04573
28.65 -0.04947
28.7 -0.05135
28.75 -0.05728
28.8 -0.05859
28.85 -0.06369
28.9 -0.06941
28.95 -0.07442
29 -0.08096
29.05 -0.0899
29.1 -0.10231
29.15 -0.11447
29.2 -0.12594
29.25 -0.13471
29.3 -0.14515
29.35 -0.15752
29.4 -0.17185
29.45 -0.18107
29.5 -0.18715
29.55 -0.1923
29.6 -0.19652
29.65 -0.19833
29.7 -0.19826
29.75 -0.1983
29.8 -0.19935
29.85 -0.2055
29.9 -0.21417
29.95 -0.22249
30 -0.22856
30.05 -0.23431
30.1 -0.23788
30.15 -0.23634
30.2 -0.22717
30.25 -0.21412
30.3 -0.1975
30.35 -0.18686
30.4 -0.1743
30.45 -0.16265
30.5 -0.14568
30.55 -0.13159
30.6 -0.11425
30.65 -0.09974
30.7 -0.08453
30.75 -0.06984
30.8 -0.05428
30.85 -0.04098
30.9 -0.02725
30.95 -0.01261
31 -0.00502
31.05 -0.002
31.1 0.00118
31.15 0.00866
31.2 0.01298
31.25 0.02049
31.3 0.02344
31.35 0.03244
31.4 0.04097
31.45 0.04804
31.5 0.0546
31.55 0.06236
31.6 0.06853
31.65 0.07411
31.7 0.07858
31.75 0.08093
31.8 0.08296
31.85 0.08713
31.9 0.09348
31.95 0.09505
32 0.09388
32.05 0.09374
32.1 0.09372
32.15 0.10025
32.2 0.11155
32.25 0.12038
32.3 0.13009
32.35 0.13782
32.4 0.14278
32.45 0.14952
32.5 0.15919
32.55 0.16904
32.6 0.17923
32.65 0.18993
32.7 0.2003
32.75 0.2074
32.8 0.21383
32.85 0.21759
32.9 0.21344
32.95 0.21183
33 0.20484
33.05 0.20376
33.1 0.20412
33.15 0.20463
33.2 0.20599
33.25 0.20547
33.3 0.20714
33.35 0.20937
33.4 0.20353
33.45 0.19915
33.5 0.1918
33.55 0.18172
33.6 0.17431
33.65 0.16699
33.7 0.16327
33.75 0.16385
33.8 0.15908
33.85 0.15547
33.9 0.1517
33.95 0.14558
34 0.14095
34.05 0.14085
34.1 0.13724
34.15 0.13261
34.2 0.1272
34.25 0.11975
34.3 0.11567
34.35 0.11323
34.4 0.10803
34.45 0.10292
34.5 0.10068
34.55 0.09862
34.6 0.09597
34.65 0.0882
34.7 0.08067
34.75 0.07089
34.8 0.06813
34.85 0.06639
34.9 0.06333
34.95 0.05645
35 0.05078
35.05 0.04502
35.1 0.04439
35.15 0.04511
35.2 0.04255
35.25 0.03851
35.3 0.03926
35.35 0.03444
35.4 0.02798
35.45 0.02479
35.5 0.01808
35.55 0.01388
35.6 0.01083
35.65 0.01185
35.7 0.00994
35.75 0.0105
35.8 0.01287
35.85 0.01096
35.9 0.00622
35.95 0.00023
36 -0.00588
36.05 -0.01049
36.1 -0.01347
36.15 -0.01408
36.2 -0.01911
36.25 -0.02375
36.3 -0.02883
36.35 -0.0319
36.4 -0.0311
36.45 -0.03181
36.5 -0.0305
36.55 -0.03204
36.6 -0.03224
36.65 -0.03354
36.7 -0.0299
36.75 -0.03141
36.8 -0.03688
36.85 -0.03592
36.9 -0.03102
36.95 -0.02514
37 -0.0238
37.05 -0.02466
37.1 -0.02874
37.15 -0.03477
37.2 -0.03928
37.25 -0.03944
37.3 -0.03533
37.35 -0.03616
37.4 -0.04079
37.45 -0.04737
37.5 -0.04639
37.55 -0.04689
37.6 -0.04376
37.65 -0.03992
37.7 -0.03784
37.75 -0.03904
37.8 -0.03899
37.85 -0.04059
37.9 -0.0438
37.95 -0.04358
38 -0.04307
38.05 -0.04393
38.1 -0.03895
38.15 -0.03177
38.2 -0.02823
38.25 -0.02664
38.3 -0.02314
38.35 -0.02599
38.4 -0.025
38.45 -0.02088
38.5 -0.02333
38.55 -0.02541
38.6 -0.02492
38.65 -0.02172
38.7 -0.0197
38.75 -0.01913
38.8 -0.02315
38.85 -0.03029
38.9 -0.03773
38.95 -0.04637
39 -0.04691
39.05 -0.04598
39.1 -0.04636
39.15 -0.04678
39.2 -0.04851
39.25 -0.05051
39.3 -0.04898
39.35 -0.04614
39.4 -0.03916
39.45 -0.03313
39.5 -0.02778
39.55 -0.02583
39.6 -0.02647
39.65 -0.0289
39.7 -0.02896
39.75 -0.02945
39.8 -0.02738
39.85 -0.02926
39.9 -0.02912
39.95 -0.02541
40 -0.01964
40.05 -0.01462
40.1 -0.00884
40.15 -0.00468
40.2 -0.00455
40.25 -0.00808
40.3 -0.01381
40.35 -0.01501
40.4 -0.01211
40.45 -0.01087
40.5 -0.01363
40.55 -0.01818
40.6 -0.02465
40.65 -0.02354
40.7 -0.0206
40.75 -0.01806
40.8 -0.01339
40.85 -0.01317
40.9 -0.00871
40.95 -0.00829
41 -0.00786
41.05 -0.01256
41.1 -0.0136
41.15 -0.01517
41.2 -0.01548
41.25 -0.0133
41.3 -0.00811
41.35 -0.00412
41.4 -0.00107
41.45 0.00131
41.5 0.00252
41.55 0.00136
41.6 -0.00237
41.65 -0.00235
41.7 -0.00453
41.75 -0.00966
41.8 -0.01516
41.85 -0.01695
41.9 -0.01321
41.95 -0.00896
42 -0.01024
42.05 -0.01075
42.1 -0.00981
42.15 -0.00544
42.2 -0.00215
42.25 -0.00533
42.3 -0.00872
42.35 -0.01031
42.4 -0.01583
42.45 -0.01916
42.5 -0.01625
42.55 -0.01609
42.6 -0.01104
42.65 -0.00622
42.7 -0.00326
42.75 0.00102
42.8 0.0005
42.85 -0.00038
42.9 -0.00505
42.95 -0.00675
43 -0.0055
43.05 -0.00358
43.1 0.00125
43.15 0.00288
43.2 -0.00012
43.25 -0.00206
43.3 -0.00329
43.35 -0.0053
43.4 -0.00775
43.45 -0.00959
43.5 -0.00982
43.55 -0.01169
43.6 -0.01021
43.65 -0.00866
43.7 -0.00494
43.75 -0.0029
43.8 -0.00278
43.85 -0.00399
43.9 -0.00186
43.95 0.0015
44 0.00438
44.05 0.00611
44.1 0.00817
44.15 0.00453
44.2 0.00477
44.25 -0.0001
44.3 -0.00123
44.35 -0.00119
44.4 -0.00608
44.45 -0.00495
44.5 -0.00448
44.55 -0.00566
44.6 -0.00688
44.65 -0.00583
44.7 -0.00628
44.75 -0.00623
44.8 -0.00398
44.85 -0.00077
44.9 -0.00207
44.95 0.00081
45 0.0047
45.05 0.00739
45.1 0.00932
45.15 0.00651
45.2 0.00466
45.25 0.00333
45.3 -0.00052
45.35 0.00061
45.4 -0.00368
45.45 -0.00999
45.5 -0.01273
45.55 -0.01388
45.6 -0.01029
45.65 -0.00739
45.7 -0.00786
45.75 -0.00985
45.8 -0.00764
45.85 -0.0044
45.9 -0.00708
45.95 -0.01283
46 -0.02057
46.05 -0.02202
46.1 -0.01753
46.15 -0.01594
46.2 -0.01858
46.25 -0.01517
46.3 -0.01503
46.35 -0.01136
46.4 -0.01058
46.45 -0.01275
46.5 -0.01397
46.55 -0.01093
46.6 -0.0078
46.65 -0.0068
46.7 -0.00968
46.75 -0.00694
46.8 -0.00652
46.85 -0.00194
46.9 0.00125
46.95 0.00205
47 -0.00166
47.05 -0.00511
47.1 -0.00501
47.15 -0.0089
47.2 -0.0134
47.25 -0.01858
47.3 -0.0222
47.35 -0.01913
47.4 -0.01532
47.45 -0.01618
47.5 -0.01608
47.55 -0.01677
47.6 -0.01638
47.65 -0.012
47.7 -0.0129
47.75 -0.01019
47.8 -0.0045
47.85 -0
47.9 0.00517
47.95 0.01121
48 0.01447
48.05 0.01962
48.1 0.02156
48.15 0.01708
48.2 0.01652
48.25 0.01096
48.3 0.00854
48.35 0.00591
48.4 0.00689
48.45 0.00729
48.5 0.00506
48.55 0.00695
48.6 0.00447
48.65 0.00416
48.7 -0.00078
48.75 -0.00501
48.8 -0.0055
48.85 -0.00888
48.9 -0.00656
48.95 -0.00374
49 -0.00168
49.05 -0.00257
49.1 -0.00556
49.15 -0.00364
49.2 0.00203
49.25 0.00663
49.3 0.00461
49.35 0.00293
49.4 -0.00321
49.45 -0.00373
49.5 -0.00113
49.55 0.00132
49.6 0.00552
49.65 0.00291
49.7 0.00431
49.75 0.00486
49.8 0.00381
49.85 0.00488
49.9 0.00243
49.95 -0.00141
50 -0.00622
50.05 -0.01314
50.1 -0.01734
50.15 -0.01865
50.2 -0.02246
50.25 -0.02292
50.3 -0.02613
50.35 -0.02598
50.4 -0.02309
50.45 -0.02213
50.5 -0.01647
50.55 -0.01394
50.6 -0.01546
50.65 -0.01892
50.7 -0.02352
50.75 -0.02685
50.8 -0.02388
50.85 -0.01774
50.9 -0.01101
50.95 -0.0079
51 -0.00097
51.05 0.00064
51.1 0.00336
51.15 0.00936
51.2 0.0167
51.25 0.0216
51.3 0.01933
51.35 0.01725
51.4 0.01556
51.45 0.00862
51.5 0.00064
51.55 -0.00504
51.6 -0.00734
51.65 -0.00649
51.7 -0.00258
51.75 -0.00026
51.8 0.00389
51.85 0.01073
51.9 0.01364
51.95 0.017
52 0.02149
52.05 0.02177
52.1 0.02016
52.15 0.01494
52.2 0.00861
52.25 0.00539
52.3 0.00555
52.35 0.00359
52.4 0.00065
52.45 -0.00432
52.5 -0.01054
52.55 -0.01376
52.6 -0.01523
52.65 -0.0161
52.7 -0.01222
52.75 -0.01349
52.8 -0.01065
52.85 -0.00443
52.9 0.00147
52.95 0.00675
53 0.01169
53.05 0.01023
53.1 0.00842
53.15 0.00966
53.2 0.00613
53.25 0.00515
53.3 0.0067
53.35 0.0102
53.4 0.01296
53.45 0.0166
53.5 0.02146
53.55 0.02472
53.6 0.02643
53.65 0.02907
53.7 0.02402
53.75 0.01906
53.8 0.01802
53.85 0.01139
53.9 0.00623
53.95 0.00498
54 0.00034
54.05 0.00002
54.1 0.00192
54.15 0.00549
54.2 0.01069
54.25 0.0121
54.3 0.0143
54.35 0.01078
54.4 0.00979
54.45 0.00755
54.5 0.00541
54.55 0.00398
54.6 0.00562
54.65 0.00857
54.7 0.00493
54.75 -0.0022
54.8 -0.0037
54.85 -0.00945
54.9 -0.01099
54.95 -0.01283
55 -0.01006
55.05 -0.00576
55.1 -0.00609
55.15 -0.00219
55.2 -0.00308
55.25 -0.00086
55.3 0.00271
55.35 0.0069
55.4 0.00842
55.45 0.00996
55.5 0.01312
55.55 0.0101
55.6 0.01004
55.65 0.00699
55.7 0.00501
55.75 0.00067
55.8 0.00021
55.85 -0.00233
55.9 -0.0082
55.95 -0.00787
56 -0.00303
56.05 0.00048
56.1 -0.00117
56.15 -0.00474
56.2 -0.01053
56.25 -0.01432
56.3 -0.016
56.35 -0.01897
56.4 -0.02317
56.45 -0.02025
56.5 -0.01676
56.55 -0.01492
56.6 -0.01203
56.65 -0.00739
56.7 -0.00312
56.75 -0.00289
56.8 -0.00585
56.85 -0.00958
56.9 -0.01095
56.95 -0.01154
57 -0.01061
57.05 -0.01208
57.1 -0.01325
57.15 -0.01611
57.2 -0.01711
57.25 -0.01473
57.3 -0.01558
57.35 -0.01912
57.4 -0.02028
57.45 -0.02325
57.5 -0.02238
57.55 -0.01883
57.6 -0.0189
57.65 -0.01703
57.7 -0.0133
57.75 -0.00709
57.8 -0.00401
57.85 -0.00193
57.9 -0.00013
57.95 0.00432
58 0.00823
58.05 0.00869
58.1 0.00467
58.15 -0.00214
58.2 -0.00629
58.25 -0.0129
58.3 -0.01597
58.35 -0.01912
58.4 -0.02327
58.45 -0.02835
58.5 -0.02561
58.55 -0.01932
58.6 -0.01006
58.65 -0.00267
58.7 0.00157
58.75 0.00876
58.8 0.00969
58.85 0.00499
58.9 0.00441
58.95 0.00301
59 0.0065
59.05 0.00648
59.1 0.00327
59.15 0.00126
59.2 0.00338
59.25 0.00774
59.3 0.00797
59.35 0.0082
59.4 0.00992
59.45 0.00672
59.5 0.0007
59.55 -0.00132
59.6 -0.00058
59.65 -0.00443
59.7 -0.00856
59.75 -0.01212
59.8 -0.01558
59.85 -0.0126
59.9 -0.01416
59.95 -0.01042
60 -0.00464
60.05 0.00315
60.1 0.01101
60.15 0.01237
60.2 0.01416
60.25 0.01158
60.3 0.01366
60.35 0.01602
60.4 0.02064
60.45 0.02034
60.5 0.02247
60.55 0.02474
60.6 0.0246
60.65 0.02346
60.7 0.02062
60.75 0.01289
60.8 0.00959
60.85 0.00599
60.9 0.00171
60.95 0.00205
61 -0.00237
61.05 -0.00694
61.1 -0.01186
61.15 -0.01869
61.2 -0.02118
61.25 -0.02424
61.3 -0.02481
61.35 -0.02715
61.4 -0.02715
61.45 -0.02855
61.5 -0.02534
61.55 -0.02086
61.6 -0.01345
61.65 -0.00463
61.7 0.00143
61.75 0.0094
61.8 0.01425
61.85 0.0194
61.9 0.01845
61.95 0.0121
62 0.01036
62.05 0.00394
62.1 -0.00486
62.15 -0.01147
62.2 -0.01075
62.25 -0.0079
62.3 -0.00154
62.35 0.00315
62.4 0.00144
62.45 -0.00183
62.5 0.00021
62.55 0.00152
62.6 0.00509
62.65 0.01019
62.7 0.01433
62.75 0.01703
62.8 0.01446
62.85 0.00983
62.9 0.00537
62.95 0.00402
63 0.00343
63.05 -0.00002
63.1 -0.0054
63.15 -0.01177
63.2 -0.01862
63.25 -0.0173
63.3 -0.01465
63.35 -0.01629
63.4 -0.01928
63.45 -0.02394
63.5 -0.02331
63.55 -0.02095
63.6 -0.02157
63.65 -0.02392
63.7 -0.02791
63.75 -0.02839
63.8 -0.02999
63.85 -0.03141
63.9 -0.03373
63.95 -0.02809
64 -0.02279
64.05 -0.0214
64.1 -0.02138
64.15 -0.01584
64.2 -0.00659
64.25 0.00385
64.3 0.0084
64.35 0.007
64.4 0.00453
64.45 0.00223
64.5 0.00073
64.55 -0.00255
64.6 -0.00245
64.65 -0.0024
64.7 -0.00532
64.75 -0.00482
64.8 -0.00258
64.85 -0.00474
64.9 -0.00944
64.95 -0.00712
65 -0.00455
65.05 -0.00326
65.1 -0.00471
65.15 -0.00627
65.2 -0.00348
65.25 0.00335
65.3 0.0119
65.35 0.01929
65.4 0.02115
65.45 0.01929
65.5 0.01347
65.55 0.01196
65.6 0.01455
65.65 0.01286
65.7 0.01439
65.75 0.01053
65.8 0.00696
65.85 0.00493
65.9 -0.00009
65.95 0.00013
66 0.00108
66.05 -0.00143
66.1 -0.0029
66.15 -0.00167
66.2 0.00068
66.25 0.00332
66.3 0.00396
66.35 0.00651
66.4 0.00661
66.45 0.00311
66.5 0.00205
66.55 0.00236
66.6 0.00215
66.65 0.00483
66.7 0.00972
66.75 0.0127
66.8 0.01724
66.85 0.01866
66.9 0.02247
66.95 0.02178
67 0.01912
67.05 0.01518
67.1 0.007
67.15 0.00503
67.2 0.00355
67.25 0.00156
67.3 -0.00405
67.35 -0.00645
67.4 -0.0064
67.45 -0.00159
67.5 0.0004
67.55 -0.00138
67.6 0.00008
67.65 0.00136
67.7 0.0029
67.75 0.00084
67.8 -0.00293
67.85 -0.00564
67.9 -0.00669
67.95 -0.00465
68 -0.00081
68.05 0.00153
68.1 0.00535
68.15 0.00622
68.2 0.00397
68.25 -0.00145
68.3 -0.00603
68.35 -0.01205
68.4 -0.01033
68.45 -0.01239
68.5 -0.01294
68.55 -0.01609
68.6 -0.01892
68.65 -0.01689
68.7 -0.01776
68.75 -0.01673
68.8 -0.01326
68.85 -0.0075
68.9 -0.00725
68.95 -0.00361
69 -0.00375
69.05 -0.00524
69.1 -0.00977
69.15 -0.00788
69.2 -0.00173
69.25 0.00507
69.3 0.01381
69.35 0.02158
69.4 0.02272
69.45 0.01714
69.5 0.01103
69.55 0.0095
69.6 0.0118
69.65 0.01311
69.7 0.01219
69.75 0.01036
69.8 0.00883
69.85 0.0098
69.9 0.00804
69.95 0.00575
70 0.00745
70.05 0.00514
70.1 0.00245
70.15 -0.00153
70.2 -0.00586
70.25 -0.00743
70.3 -0.00598
70.35 -0.00624
70.4 -0.00425
70.45 -0.00024
70.5 0.00403
70.55 0.00234
70.6 0.00565
70.65 0.00585
70.7 0.00211
70.75 -0.00008
70.8 -0.00551
70.85 -0.01018
70.9 -0.00831
70.95 -0.00195
71 0.0049
71.05 0.00902
71.1 0.00691
71.15 0.00588
71.2 0.00775
71.25 0.01044
71.3 0.01484
71.35 0.01628
71.4 0.01607
71.45 0.01047
71.5 0.0033
71.55 -0.00378
71.6 -0.01177
71.65 -0.01905
71.7 -0.02578
71.75 -0.02579
71.8 -0.02057
71.85 -0.01315
71.9 -0.00649
71.95 -0.00046
72 0.00112
72.05 0.00106
72.1 0.00312
72.15 -0.00041
72.2 -0.00065
72.25 -0.00403
72.3 -0.01009
72.35 -0.01095
72.4 -0.01177
72.45 -0.01363
72.5 -0.00947
72.55 -0.00311
72.6 0.00427
72.65 0.00655
72.7 0.00567
72.75 0.00526
72.8 0.0089
72.85 0.01156
72.9 0.01577
72.95 0.01604
73 0.01386
73.05 0.00901
73.1 0.00283
73.15 -0.00087
73.2 -0.0017
73.25 0.00223
73.3 0.00015
73.35 0.00121
73.4 -0.00176
73.45 -0.0067
73.5 -0.0057
73.55 -0.00434
73.6 0.00034
73.65 0.00122
73.7 0.0032
73.75 0.0078
73.8 0.01404
73.85 0.02035
73.9 0.01919
73.95 0.01985
74 0.02063
74.05 0.02216
74.1 0.02109
74.15 0.01515
74.2 0.0073
74.25 0.00554
74.3 0.00464
74.35 0.00111
74.4 0.00109
74.45 -0.00227
74.5 -0.00121
74.55 -0.00124
74.6 0.00284
74.65 0.0026
74.7 0.00384
74.75 0.00679
74.8 0.00527
74.85 0.00439
74.9 -0.00104
74.95 -0.0028
75 -0.0005
75.05 0.0017
75.1 -0.00172
75.15 -0.00387
75.2 -0.00225
75.25 -0.00358
75.3 -0.00328
75.35 -0.00388
75.4 -0.00448
75.45 -0.00806
75.5 -0.00787
75.55 -0.00392
75.6 -0.00194
75.65 -0.00229
75.7 -0.00059
75.75 0.00028
75.8 0.00274
75.85 -0.00056
75.9 -0.00612
75.95 -0.01057
76 -0.01577
76.05 -0.01484
76.1 -0.01165
76.15 -0.00656
76.2 -0.00157
76.25 0.00058
76.3 0.00077
76.35 0.00105
76.4 0.00041
76.45 -0.00086
76.5 0.00085
76.55 0.00209
76.6 0.00699
76.65 0.00472
76.7 -0.00044
76.75 -0.00535
76.8 -0.01016
76.85 -0.0158
76.9 -0.01715
76.95 -0.01509
77 -0.00892
77.05 -0.00637
77.1 -0.00826
77.15 -0.00793
77.2 -0.0108
77.25 -0.01413
77.3 -0.01611
77.35 -0.01762
77.4 -0.01796
77.45 -0.01493
77.5 -0.01005
77.55 -0.00856
77.6 -0.00904
77.65 -0.0054
77.7 -0.00363
77.75 -0.00005
77.8 0.00368
77.85 0.00593
77.9 0.00655
77.95 0.00306
78 0.00033
78.05 -0.0056
78.1 -0.01066
78.15 -0.00954
78.2 -0.00758
78.25 -0.00369
78.3 0.00072
78.35 -0.00056
78.4 0.00177
78.45 0.00592
78.5 0.00372
78.55 0.00108
78.6 -0.00187
78.65 -0.00658
78.7 -0.00507
78.75 0.0006
78.8 0.00814
78.85 0.01183
78.9 0.01175
78.95 0.01183
79 0.0081
79.05 0.00632
79.1 0.00645
79.15 0.00584
79.2 0.00411
79.25 0.00674
79.3 0.00681
79.35 0.0018
79.4 -0.00316
79.45 -0.00861
79.5 -0.01307
79.55 -0.01251
79.6 -0.00782
79.65 -0.00794
79.7 -0.01171
79.75 -0.00863
79.8 -0.00986
79.85 -0.01319
79.9 -0.00951
79.95 -0.00733
80 -0.00143
80.05 0.00104
80.1 0.001
80.15 0.00016
80.2 0.00091
80.25 -0.00267
80.3 -0.0004
80.35 0.00256
80.4 0.00027
80.45 0.00276
80.5 0.00776
80.55 0.01154
80.6 0.01592
80.65 0.0169
80.7 0.01942
80.75 0.01501
80.8 0.01064
80.85 0.00509
80.9 0.00321
80.95 0.00269
81 0.00597
81.05 0.00749
81.1 0.01202
81.15 0.01484
81.2 0.01628
81.25 0.01633
81.3 0.01847
81.35 0.01703
81.4 0.01005
81.45 0.00585
81.5 0.00462
81.55 0.00085
81.6 0.00203
81.65 0.00474
81.7 0.0015
81.75 -0.00168
81.8 -0.00492
81.85 -0.00355
81.9 0.00043
81.95 -0.00117
82 -0.00277
82.05 -0.00366
82.1 -0.00271
82.15 0.00254
82.2 0.00863
82.25 0.00734
82.3 0.00788
82.35 0.00507
82.4 0.00103
82.45 -0.0006
82.5 -0.00004
82.55 -0.00342
82.6 -0.00604
82.65 -0.00762
82.7 -0.00873
82.75 -0.00825
82.8 -0.00719
82.85 -0.00862
82.9 -0.00687
82.95 -0.00618
83 -0.0057
83.05 -0.00382
83.1 0.00128
83.15 0.00501
83.2 0.00395
83.25 0.00368
83.3 0.00727
83.35 0.01264
83.4 0.01726
83.45 0.01789
83.5 0.01383
83.55 0.00963
83.6 0.00737
83.65 0.00129
83.7 -0.00178
83.75 0.00069
83.8 -0.00149
83.85 -0.00345
83.9 -0.0025
83.95 -0.0022
84 -0.00037
84.05 0.0017
84.1 0.00456
84.15 0.00581
84.2 0.00955
84.25 0.01103
84.3 0.01217
84.35 0.0145
84.4 0.01711
84.45 0.0158
84.5 0.0177
84.55 0.01381
84.6 0.00655
84.65 0.00561
84.7 0.00476
84.75 0.00329
84.8 0.00194
84.85 -0.00353
84.9 -0.00573
84.95 -0.0072
85 -0.01043
85.05 -0.01236
85.1 -0.01589
85.15 -0.01954
85.2 -0.02376
85.25 -0.02129
85.3 -0.0191
85.35 -0.02054
85.4 -0.0211
85.45 -0.01745
85.5 -0.01612
85.55 -0.01306
85.6 -0.01441
85.65 -0.01366
85.7 -0.01296
85.75 -0.00839
85.8 -0.00329
85.85 0.00039
85.9 0.00066
85.95 0.00451
86 0.00898
86.05 0.01328
86.1 0.01529
86.15 0.0163
86.2 0.01728
86.25 0.01745
86.3 0.01698
86.35 0.01487
86.4 0.01427
86.45 0.01046
86.5 0.00368
86.55 -0.00372
86.6 -0.00797
86.65 -0.01277
86.7 -0.01133
86.75 -0.00825
86.8 -0.00336
86.85 0.00406
86.9 0.01079
86.95 0.01514
87 0.01171
87.05 0.00758
87.1 0.00121
87.15 -0.00622
87.2 -0.01512
87.25 -0.02209
87.3 -0.02027
87.35 -0.01827
87.4 -0.01819
87.45 -0.01685
87.5 -0.018
87.55 -0.02157
87.6 -0.02541
87.65 -0.02286
87.7 -0.02358
87.75 -0.02501
87.8 -0.02743
87.85 -0.02782
87.9 -0.0225
87.95 -0.02087
88 -0.01718
88.05 -0.01048
88.1 -0.00092
88.15 0.00559
88.2 0.00551
88.25 0.00867
88.3 0.00917
88.35 0.01084
88.4 0.00973
88.45 0.00595
88.5 0.00297
88.55 -0.00205
88.6 -0.00722
88.65 -0.00786
88.7 -0.00682
88.75 -0.00601
88.8 -0.00187
88.85 -0.002
88.9 0.00099
88.95 0.00037
89 -0.00435
89.05 -0.00863
89.1 -0.00953
89.15 -0.0086
89.2 -0.00975
89.25 -0.01266
89.3 -0.01703
89.35 -0.02083
89.4 -0.02134
89.45 -0.02316
89.5 -0.02442
89.55 -0.0208
89.6 -0.01252
89.65 -0.00712
89.7 -0.00522
89.75 -0.00782
89.8 -0.00913
89.85 -0.00586
89.9 0.00018
89.95 0.00227
90 0.00646
90.05 0.00868
90.1 0.0071
90.15 0.00555
90.2 0.00544
90.25 0.00491
90.3 0.00474
90.35 0.0084
90.4 0.00603
90.45 0.00804
90.5 0.00591
90.55 0.003
90.6 0.003
90.65 0.00606
90.7 0.00644
90.75 0.00818
90.8 0.00871
90.85 0.00631
90.9 0.00042
90.95 -0.00761
91 -0.01599
91.05 -0.02256
91.1 -0.02324
91.15 -0.02008
91.2 -0.01988
91.25 -0.02238
91.3 -0.02361
91.35 -0.01938
91.4 -0.01816
91.45 -0.01614
91.5 -0.0108
91.55 -0.00638
91.6 -0.0057
91.65 -0.00357
91.7 0.00315
91.75 0.00418
91.8 0.00329
91.85 -0.00053
91.9 -0.00267
91.95 -0.00791
92 -0.00847
92.05 -0.00581
92.1 -0.00231
92.15 -0.00384
92.2 -0.00424
92.25 -0.00662
92.3 -0.0072
92.35 -0.0055
92.4 -0.00349
92.45 -0.00215
92.5 0.00367
92.55 0.00296
92.6 0.00133
92.65 0.00485
92.7 0.00643
92.75 0.00651
92.8 0.00714
92.85 0.00494
92.9 0.00201
92.95 0.00451
93 0.00867
93.05 0.01537
93.1 0.02113
93.15 0.02152
93.2 0.01799
93.25 0.0127
93.3 0.00966
93.35 0.00691
93.4 0.00355
93.45 0.00568
93.5 0.00746
93.55 0.00383
93.6 0.00048
93.65 -0.0016
93.7 0.00168
93.75 0.00497
93.8 0.01038
93.85 0.01153
93.9 0.01282
93.95 0.01399
94 0.01758
94.05 0.02319
94.1 0.02573
94.15 0.02168
94.2 0.01974
94.25 0.01835
94.3 0.01747
94.35 0.01417
94.4 0.01408
94.45 0.01417
94.5 0.01176
94.55 0.00673
94.6 0.00084
94.65 -0.00023
94.7 -0.00146
94.75 -0.00156
94.8 -0.00447
94.85 -0.00158
94.9 0.00007
94.95 0.00058
95 0.00034
95.05 0.00032
95.1 -0.00088
95.15 -0.00316
95.2 -0.00855
95.25 -0.00713
95.3 -0.00832
95.35 -0.01266
95.4 -0.01328
95.45 -0.00922
95.5 -0.00511
95.55 0.00085
95.6 0.00784
95.65 0.01503
95.7 0.02254
95.75 0.02491
95.8 0.0217
95.85 0.01898
95.9 0.01485
95.95 0.01092
96 0.00814
96.05 0.0069
96.1 0.0055
96.15 0.00055
96.2 -0.00321
96.25 -0.00285
96.3 -0.00295
96.35 0.00162
96.4 0.00395
96.45 0.00668
96.5 0.00878
96.55 0.00523
96.6 0.00253
96.65 0.00017
96.7 0.00185
96.75 0.00565
96.8 0.00724
96.85 0.01191
96.9 0.01135
96.95 0.00842
97 0.0084
97.05 0.00359
97.1 0.00413
97.15 0.00519
97.2 0.005
97.25 0.00082
97.3 0.00208
97.35 0.00016
97.4 -0.00343
97.45 -0.00473
97.5 -0.00694
97.55 -0.0075
97.6 -0.01185
97.65 -0.01379
97.7 -0.01479
97.75 -0.0099
97.8 -0.00326
97.85 0.00552
97.9 0.01414
97.95 0.01902
98 0.01698
98.05 0.01475
98.1 0.00731
98.15 0.00505
98.2 0.00046
98.25 -0.00256
98.3 -0.00437
98.35 -0.00414
98.4 -0.00391
98.45 -0.00546
98.5 -0.00219
98.55 0.00059
98.6 0.00052
98.65 -0.00145
98.7 -0.0054
98.75 -0.01155
98.8 -0.01153
98.85 -0.01423
98.9 -0.01724
98.95 -0.02212
99 -0.02611
99.05 -0.02809
99.1 -0.02804
99.15 -0.02777
99.2 -0.02402
99.25 -0.01831
99.3 -0.01768
99.35 -0.01529
99.4 -0.01159
99.45 -0.00721
99.5 0.00064
99.55 0.00413
99.6 0.00384
99.65 0.0028
99.7 -0.00201
99.75 -0.00334
99.8 0.00011
99.85 0.00421
99.9 0.00984
99.95 0.00844
