0 0
0.05 0.00896
0.1 0.01785
0.15 0.02886
0.2 0.03625
0.25 0.04277
0.3 0.05181
0.35 0.05808
0.4 0.0611
0.45 0.06079
0.5 0.06103
0.55 0.05964
0.6 0.05729
0.65 0.05619
0.7 0.05462
0.75 0.05024
0.8 0.04429
0.85 0.03756
0.9 0.03748
0.95 0.03627
1 0.03286
1.05 0.03001
1.1 0.02619
1.15 0.02833
1.2 0.03366
1.25 0.04051
1.3 0.04489
1.35 0.04553
1.4 0.0442
1.45 0.04109
1.5 0.04277
1.55 0.03947
1.6 0.04158
1.65 0.04022
1.7 0.03668
1.75 0.02989
1.8 0.02751
1.85 0.02438
1.9 0.02088
1.95 0.02056
2 0.01819
2.05 0.02105
2.1 0.02647
2.15 0.03373
2.2 0.03674
2.25 0.03787
2.3 0.03824
2.35 0.04023
2.4 0.04489
2.45 0.04751
2.5 0.04894
2.55 0.05057
2.6 0.05011
2.65 0.04782
2.7 0.04804
2.75 0.04866
2.8 0.04442
2.85 0.03636
2.9 0.03145
2.95 0.02975
3 0.02697
3.05 0.02587
3.1 0.02087
3.15 0.01472
3.2 0.00955
3.25 0.00388
3.3 0.00288
3.35 0.00679
3.4 0.01067
3.45 0.00979
3.5 0.00623
3.55 0.00441
3.6 0.00867
3.65 0.01464
3.7 0.01556
3.75 0.01766
3.8 0.01474
3.85 0.01718
3.9 0.01738
3.95 0.01645
4 0.0172
4.05 0.0185
4.1 0.01749
4.15 0.01157
4.2 0.003
4.25 -0.00002
4.3 0.00193
4.35 -0.00159
4.4 -0.00635
4.45 -0.01198
4.5 -0.02065
4.55 -0.02637
4.6 -0.03262
4.65 -0.04065
4.7 -0.05838
4.75 -0.08052
4.8 -0.10822
4.85 -0.14043
4.9 -0.17763
4.95 -0.21763
5 -0.2546
5.05 -0.30003
5.1 -0.35172
5.15 -0.40844
5.2 -0.46966
5.25 -0.53148
5.3 -0.60185
5.35 -0.67557
5.4 -0.75434
5.45 -0.8412
5.5 -0.93271
5.55 -1.02577
5.6 -1.12419
5.65 -1.22487
5.7 -1.32878
5.75 -1.43096
5.8 -1.52563
5.85 -1.62113
5.9 -1.71456
5.95 -1.79989
6 -1.88254
6.05 -1.96327
6.1 -2.04158
6.15 -2.11874
6.2 -2.18586
6.25 -2.24536
6.3 -2.30074
6.35 -2.35657
6.4 -2.40906
6.45 -2.45181
6.5 -2.48859
6.55 -2.50993
6.6 -2.52269
6.65 -2.52215
6.7 -2.50762
6.75 -2.48021
6.8 -2.43883
6.85 -2.38871
6.9 -2.32101
6.95 -2.24006
7 -2.14657
7.05 -2.03485
7.1 -1.90373
7.15 -1.75775
7.2 -1.59968
7.25 -1.42683
7.3 -1.24646
7.35 -1.05688
7.4 -0.86077
7.45 -0.65513
7.5 -0.44779
7.55 -0.23762
7.6 -0.02929
7.65 0.17246
7.7 0.37392
7.75 0.56921
7.8 0.75634
7.85 0.92821
7.9 1.08607
7.95 1.23832
8 1.37737
8.05 1.50096
8.1 1.61228
8.15 1.71142
8.2 1.80414
8.25 1.8908
8.3 1.96847
8.35 2.03694
8.4 2.09476
8.45 2.14457
8.5 2.17784
8.55 2.2015
8.6 2.21722
8.65 2.22711
8.7 2.23195
8.75 2.23707
8.8 2.24032
8.85 2.23561
8.9 2.22567
8.95 2.21084
9 2.19642
9.05 2.18154
9.1 2.16269
9.15 2.14504
9.2 2.12959
9.25 2.11128
9.3 2.08917
9.35 2.06791
9.4 2.05158
9.45 2.03037
9.5 2.0066
9.55 1.98361
9.6 1.95901
9.65 1.9283
9.7 1.89835
9.75 1.86386
9.8 1.83188
9.85 1.8036
9.9 1.76883
9.95 1.73622
10 1.70665
10.05 1.67346
10.1 1.63431
10.15 1.59024
10.2 1.54599
10.25 1.50258
10.3 1.45881
10.35 1.41662
10.4 1.37236
10.45 1.32928
10.5 1.28579
10.55 1.24158
10.6 1.19587
10.65 1.14986
10.7 1.10503
10.75 1.06072
10.8 1.01471
10.85 0.96637
10.9 0.91775
10.95 0.86553
11 0.81193
11.05 0.76402
11.1 0.71948
11.15 0.67343
11.2 0.6295
11.25 0.58566
11.3 0.53994
11.35 0.50009
11.4 0.45681
11.45 0.41254
11.5 0.36944
11.55 0.33021
11.6 0.29555
11.65 0.2644
11.7 0.23037
11.75 0.19411
11.8 0.15564
11.85 0.1229
11.9 0.08844
11.95 0.0594
12 0.03305
12.05 0.00566
12.1 -0.02216
12.15 -0.04951
12.2 -0.07367
12.25 -0.09762
12.3 -0.11993
12.35 -0.141
12.4 -0.15921
12.45 -0.17774
12.5 -0.19423
12.55 -0.21319
12.6 -0.22711
12.65 -0.23691
12.7 -0.24716
12.75 -0.25846
12.8 -0.27188
12.85 -0.2858
12.9 -0.29849
12.95 -0.3068
13 -0.31135
13.05 -0.31921
13.1 -0.32865
13.15 -0.34079
13.2 -0.34974
13.25 -0.35927
13.3 -0.36676
13.35 -0.37115
13.4 -0.37682
13.45 -0.37971
13.5 -0.37905
13.55 -0.38233
13.6 -0.38096
13.65 -0.37725
13.7 -0.37639
13.75 -0.37351
13.8 -0.36922
13.85 -0.36818
13.9 -0.3625
13.95 -0.35881
14 -0.35238
14.05 -0.34429
14.1 -0.33637
14.15 -0.33666
14.2 -0.33761
14.25 -0.33663
14.3 -0.33694
14.35 -0.3356
14.4 -0.33103
14.45 -0.32425
14.5 -0.31722
14.55 -0.31039
14.6 -0.30348
14.65 -0.29946
14.7 -0.29596
14.75 -0.29693
14.8 -0.30149
14.85 -0.30036
14.9 -0.29705
14.95 -0.29873
15 -0.30203
15.05 -0.30561
15.1 -0.30534
15.15 -0.30349
15.2 -0.30021
15.25 -0.29351
15.3 -0.28264
15.35 -0.2722
15.4 -0.2643
15.45 -0.25621
15.5 -0.25182
15.55 -0.24577
15.6 -0.2417
15.65 -0.24182
15.7 -0.23823
15.75 -0.23319
15.8 -0.22721
15.85 -0.2236
15.9 -0.21987
15.95 -0.21449
16 -0.20939
16.05 -0.21086
16.1 -0.21143
16.15 -0.20803
16.2 -0.20989
16.25 -0.20945
16.3 -0.20689
16.35 -0.20596
16.4 -0.20914
16.45 -0.21364
16.5 -0.21059
16.55 -0.20431
16.6 -0.19737
16.65 -0.19207
16.7 -0.18899
16.75 -0.18995
16.8 -0.1863
16.85 -0.1815
16.9 -0.17718
16.95 -0.17291
17 -0.16713
17.05 -0.16124
17.1 -0.15424
17.15 -0.14761
17.2 -0.14801
17.25 -0.14788
17.3 -0.1484
17.35 -0.15302
17.4 -0.1597
17.45 -0.16603
17.5 -0.16444
17.55 -0.15727
17.6 -0.1504
17.65 -0.14166
17.7 -0.1392
17.75 -0.13742
17.8 -0.13806
17.85 -0.14068
17.9 -0.13669
17.95 -0.13368
18 -0.13454
18.05 -0.1365
18.1 -0.13165
18.15 -0.1263
18.2 -0.12007
18.25 -0.11387
18.3 -0.10518
18.35 -0.10216
18.4 -0.10294
18.45 -0.1071
18.5 -0.10765
18.55 -0.10483
18.6 -0.10193
18.65 -0.10095
18.7 -0.09737
18.75 -0.09368
18.8 -0.08781
18.85 -0.08319
18.9 -0.08387
18.95 -0.08689
19 -0.08441
19.05 -0.08068
19.1 -0.08288
19.15 -0.08026
19.2 -0.0789
19.25 -0.07746
19.3 -0.07211
19.35 -0.06781
19.4 -0.06791
19.45 -0.06496
19.5 -0.06786
19.55 -0.07416
19.6 -0.07453
19.65 -0.07121
19.7 -0.06902
19.75 -0.06989
19.8 -0.0714
19.85 -0.07566
19.9 -0.07689
19.95 -0.07656
20 -0.07733
20.05 -0.07912
20.1 -0.07675
20.15 -0.07522
20.2 -0.07019
20.25 -0.0616
20.3 -0.05524
20.35 -0.04724
20.4 -0.04403
20.45 -0.04647
20.5 -0.04689
20.55 -0.04417
20.6 -0.04205
20.65 -0.04258
20.7 -0.0395
20.75 -0.03969
20.8 -0.04406
20.85 -0.04944
20.9 -0.05359
20.95 -0.05962
21 -0.0584
21.05 -0.05574
21.1 -0.05426
21.15 -0.0569
21.2 -0.05881
21.25 -0.06098
21.3 -0.05955
21.35 -0.05281
21.4 -0.05147
21.45 -0.0523
21.5 -0.05252
21.55 -0.05207
21.6 -0.05296
21.65 -0.05527
21.7 -0.05853
21.75 -0.05641
21.8 -0.04957
21.85 -0.04849
21.9 -0.05033
21.95 -0.04984
22 -0.04773
22.05 -0.04929
22.1 -0.05043
22.15 -0.04896
22.2 -0.04207
22.25 -0.03512
22.3 -0.02963
22.35 -0.02483
22.4 -0.01799
22.45 -0.01172
22.5 -0.01194
22.55 -0.01686
22.6 -0.02325
22.65 -0.02378
22.7 -0.0264
22.75 -0.02528
22.8 -0.02077
22.85 -0.01559
22.9 -0.01717
22.95 -0.02136
23 -0.02209
23.05 -0.01995
23.1 -0.0158
23.15 -0.01234
23.2 -0.01529
23.25 -0.02034
23.3 -0.02316
23.35 -0.02929
23.4 -0.03467
23.45 -0.03316
23.5 -0.03007
23.55 -0.02415
23.6 -0.01976
23.65 -0.01258
23.7 -0.00612
23.75 -0.00134
23.8 -0.00283
23.85 -0.00272
23.9 -0.00223
23.95 -0.00151
24 -0.00155
24.05 -0.00122
24.1 -0.00184
24.15 0.00025
24.2 0.0007
24.25 0.00234
24.3 0.00347
24.35 0.00473
24.4 0.00628
24.45 0.00195
24.5 -0.00186
24.55 -0.0093
24.6 -0.01178
24.65 -0.0111
24.7 -0.00953
24.75 -0.01102
24.8 -0.01302
24.85 -0.01749
24.9 -0.02371
24.95 -0.02706
25 -0.02464
25.05 -0.02567
25.1 -0.02952
25.15 -0.02781
25.2 -0.02203
25.25 -0.0148
25.3 -0.01137
25.35 -0.00968
25.4 -0.01306
25.45 -0.01161
25.5 -0.01389
25.55 -0.01733
25.6 -0.02281
25.65 -0.02823
25.7 -0.03285
25.75 -0.03237
25.8 -0.03462
25.85 -0.03531
25.9 -0.03694
25.95 -0.03465
26 -0.0278
26.05 -0.02037
26.1 -0.01139
26.15 -0.002
26.2 0.00279
26.25 0.00316
26.3 -0.0018
26.35 -0.00351
26.4 -0.00392
26.45 -0.0089
26.5 -0.01611
26.55 -0.01927
26.6 -0.02234
26.65 -0.02311
26.7 -0.02267
26.75 -0.01844
26.8 -0.01257
26.85 -0.0066
26.9 -0.00371
26.95 0.00127
27 0.00638
27.05 0.01128
27.1 0.00844
27.15 0.00099
27.2 -0.00258
27.25 -0.00605
27.3 -0.00976
27.35 -0.00743
27.4 -0.00322
27.45 -0.00164
27.5 -0.00017
27.55 0.00353
27.6 0.00385
27.65 0.00558
27.7 0.00489
27.75 0.00408
27.8 0.0028
27.85 0.00271
27.9 -0.00279
27.95 -0.00925
28 -0.01098
28.05 -0.01082
28.1 -0.01184
28.15 -0.01022
28.2 -0.00914
28.25 -0.00857
28.3 -0.00742
28.35 -0.00547
28.4 -0.00629
28.45 -0.01115
28.5 -0.01255
28.55 -0.00838
28.6 -0.00352
28.65 -0.00045
28.7 0.00514
28.75 0.00326
28.8 -0.00127
28.85 -0.00227
28.9 -0.00773
28.95 -0.0114
29 -0.00991
29.05 -0.00574
29.1 0.00024
29.15 0.00469
29.2 0.00375
29.25 0.00472
29.3 0.00701
29.35 0.00302
29.4 -0.00099
29.45 -0.00027
29.5 0.00264
29.55 0.00212
29.6 0.00545
29.65 0.00938
29.7 0.01376
29.75 0.01646
29.8 0.01588
29.85 0.00967
29.9 0.00789
29.95 0.003
30 0.00004
30.05 -0.0068
30.1 -0.01384
30.15 -0.01571
30.2 -0.01474
30.25 -0.01343
30.3 -0.01573
30.35 -0.01614
30.4 -0.01337
30.45 -0.0094
30.5 -0.00268
30.55 0.00357
30.6 0.00316
30.65 0.00445
30.7 0.00118
30.75 0.001
30.8 -0.00321
30.85 -0.00255
30.9 0.00197
30.95 0.00082
31 0.00163
31.05 0.00083
31.1 -0.00198
31.15 -0.00774
31.2 -0.0093
31.25 -0.0061
31.3 -0.00334
31.35 -0.00415
31.4 -0.00197
31.45 0.0024
31.5 0.00732
31.55 0.00704
31.6 0.00752
31.65 0.00484
31.7 0.00462
31.75 0.00421
31.8 0.00059
31.85 0.00138
31.9 -0.00224
31.95 -0.00869
32 -0.01412
32.05 -0.01516
32.1 -0.01699
32.15 -0.01601
32.2 -0.01445
32.25 -0.01354
32.3 -0.0084
32.35 -0.00763
32.4 -0.00574
32.45 -0.00352
32.5 -0.00402
32.55 -0.0061
32.6 -0.00909
32.65 -0.01501
32.7 -0.01789
32.75 -0.0154
32.8 -0.01735
32.85 -0.02012
32.9 -0.02303
32.95 -0.01991
33 -0.0167
33.05 -0.01718
33.1 -0.02
33.15 -0.02479
33.2 -0.02427
33.25 -0.01958
33.3 -0.01296
33.35 -0.00518
33.4 0.00117
33.45 0.0014
33.5 0.00019
33.55 0.00115
33.6 -0.00113
33.65 -0.00244
33.7 0.00121
33.75 0.00314
33.8 0.00465
33.85 0.00801
33.9 0.01296
33.95 0.01445
34 0.01569
34.05 0.01121
34.1 0.00517
34.15 -0.00192
34.2 -0.00552
34.25 -0.0034
34.3 -0.0025
34.35 0.00169
34.4 0.00234
34.45 0.00447
34.5 0.00928
34.55 0.01324
34.6 0.01904
34.65 0.01941
34.7 0.01803
34.75 0.01726
34.8 0.01405
34.85 0.01333
34.9 0.01587
34.95 0.0174
35 0.01572
35.05 0.01409
35.1 0.01068
35.15 0.00583
35.2 -0.00264
35.25 -0.00763
35.3 -0.00673
35.35 -0.00234
35.4 -0.00314
35.45 0.00031
35.5 0.00115
35.55 0.00119
35.6 0.00441
35.65 0.00129
35.7 0.00167
35.75 0.00336
35.8 0.00063
35.85 -0.00247
35.9 -0.00556
35.95 -0.00443
36 -0.00485
36.05 -0.0058
36.1 -0.00761
36.15 -0.01274
36.2 -0.01276
36.25 -0.01565
36.3 -0.0129
36.35 -0.00715
36.4 -0.00664
36.45 -0.00456
36.5 -0.00178
36.55 -0.00236
36.6 0.00042
36.65 -0.00231
36.7 -0.00141
36.75 0.00194
36.8 0.00301
36.85 0.00473
36.9 0.00791
36.95 0.01045
37 0.00951
37.05 0.00446
37.1 0.0049
37.15 0.00762
37.2 0.01292
37.25 0.01618
37.3 0.01906
37.35 0.01598
37.4 0.01246
37.45 0.00632
37.5 -0.00108
37.55 -0.0028
37.6 -0.00394
37.65 -0.00469
37.7 -0.00108
37.75 0.00276
37.8 0.00669
37.85 0.01231
37.9 0.01098
37.95 0.00429
38 0.00063
38.05 -0.00572
38.1 -0.01214
38.15 -0.0192
38.2 -0.02508
38.25 -0.02765
38.3 -0.03144
38.35 -0.03028
38.4 -0.03172
38.45 -0.03436
38.5 -0.02905
38.55 -0.01995
38.6 -0.00896
38.65 0.00038
38.7 0.0024
38.75 0.00644
38.8 0.00702
38.85 0.01116
38.9 0.01414
38.95 0.01855
39 0.01629
39.05 0.01657
39.1 0.01929
39.15 0.01845
39.2 0.01176
39.25 0.00172
39.3 -0.00548
39.35 -0.00591
39.4 -0.0088
39.45 -0.00902
39.5 -0.00562
39.55 -0.0011
39.6 0.00128
39.65 0.0012
39.7 0.00507
39.75 0.00632
39.8 0.00662
39.85 0.00918
39.9 0.01406
39.95 0.01454
40 0.01114
40.05 0.00789
40.1 0.00533
40.15 0.00203
40.2 -0.0006
40.25 -0.0004
40.3 -0.00195
40.35 -0.00547
40.4 -0.01224
40.45 -0.01637
40.5 -0.01748
40.55 -0.01333
40.6 -0.00699
40.65 -0.00352
40.7 0.00063
40.75 -0.0006
40.8 0.00248
40.85 0.00513
40.9 0.00856
40.95 0.00846
41 0.01157
41.05 0.01372
41.1 0.01702
41.15 0.01936
41.2 0.0175
41.25 0.01156
41.3 0.00509
41.35 0.00008
41.4 -0.00387
41.45 -0.00983
41.5 -0.01739
41.55 -0.02407
41.6 -0.0225
41.65 -0.01596
41.7 -0.00681
41.75 -0.00056
41.8 0.00427
41.85 0.0053
41.9 0.00683
41.95 0.00322
42 0.00174
42.05 0.00049
42.1 -0.00178
42.15 -0.00103
42.2 -0.00419
42.25 -0.00863
42.3 -0.00786
42.35 -0.00436
42.4 0.00188
42.45 0.00841
42.5 0.01519
42.55 0.01688
42.6 0.01776
42.65 0.0123
42.7 0.00641
42.75 0.00007
42.8 -0.00775
42.85 -0.01409
42.9 -0.02091
42.95 -0.02756
43 -0.02976
43.05 -0.03329
43.1 -0.03484
43.15 -0.03342
43.2 -0.02803
43.25 -0.01829
43.3 -0.01217
43.35 -0.00416
43.4 0.00131
43.45 0.00885
43.5 0.01695
43.55 0.02274
43.6 0.02172
43.65 0.02253
43.7 0.01988
43.75 0.01183
43.8 0.00414
43.85 -0.00104
43.9 -0.00651
43.95 -0.00541
44 -0.00407
44.05 -0.00604
44.1 -0.00886
44.15 -0.00858
44.2 -0.00811
44.25 -0.00933
44.3 -0.00515
44.35 -0.005
44.4 -0.00311
44.45 -0.00497
44.5 -0.00887
44.55 -0.01001
44.6 -0.01089
44.65 -0.01117
44.7 -0.01293
44.75 -0.0176
44.8 -0.01581
44.85 -0.00935
44.9 -0.0015
44.95 0.00361
45 0.00569
45.05 0.01043
45.1 0.01547
45.15 0.01406
45.2 0.01061
45.25 0.00832
45.3 0.009
45.35 0.00917
45.4 0.00745
45.45 0.00374
45.5 -0.00207
45.55 -0.00619
45.6 -0.00677
45.65 -0.0026
45.7 -0.0009
45.75 0.00367
45.8 0.00924
45.85 0.01249
45.9 0.00951
45.95 0.00505
46 -0.00146
46.05 -0.00448
46.1 -0.00968
46.15 -0.00916
46.2 -0.00479
46.25 -0.00623
46.3 -0.0101
46.35 -0.01507
46.4 -0.01666
46.45 -0.01859
46.5 -0.0194
46.55 -0.01786
46.6 -0.01968
46.65 -0.01976
46.7 -0.01571
46.75 -0.01128
46.8 -0.00797
46.85 -0.00299
46.9 0.00467
46.95 0.00839
47 0.00743
47.05 0.0066
47.1 0.00828
47.15 0.00653
47.2 0.00261
47.25 0.00375
47.3 0.00277
47.35 0.00536
47.4 0.00814
47.45 0.00792
47.5 0.00981
47.55 0.00669
47.6 0.00577
47.65 0.00313
47.7 0.00318
47.75 0.00497
47.8 0.00516
47.85 0.00892
47.9 0.01076
47.95 0.0095
48 0.01216
48.05 0.01436
48.1 0.01323
48.15 0.01249
48.2 0.0094
48.25 0.00766
48.3 0.00474
48.35 -0.0003
48.4 -0.00214
48.45 -0.00728
48.5 -0.01214
48.55 -0.01311
48.6 -0.01501
48.65 -0.01368
48.7 -0.01065
48.75 -0.00566
48.8 -0.005
48.85 -0.00416
48.9 -0.00672
48.95 -0.00474
49 -0.00122
49.05 -0.00294
49.1 -0.0023
49.15 0.00251
49.2 0.00875
49.25 0.00722
49.3 0.0083
49.35 0.00921
49.4 0.01105
49.45 0.00687
49.5 0.00779
49.55 0.01137
49.6 0.00854
49.65 0.00224
49.7 -0.00505
49.75 -0.00554
49.8 -0.00552
49.85 -0.00103
49.9 -0.00246
49.95 -0.00304
50 -0.00404
50.05 -0.00766
50.1 -0.01415
50.15 -0.016
50.2 -0.01721
50.25 -0.01972
50.3 -0.01712
50.35 -0.01002
50.4 -0.00359
50.45 -0.00268
50.5 0.00086
50.55 0.0071
50.6 0.00686
50.65 0.00235
50.7 -0.00533
50.75 -0.00663
50.8 -0.01085
50.85 -0.01664
50.9 -0.02036
50.95 -0.023
51 -0.02011
51.05 -0.02115
51.1 -0.0245
51.15 -0.02872
51.2 -0.03079
51.25 -0.02874
51.3 -0.02813
51.35 -0.02737
51.4 -0.02772
51.45 -0.0225
51.5 -0.01614
51.55 -0.01196
51.6 -0.01254
51.65 -0.01075
51.7 -0.00638
51.75 -0.00184
51.8 0.00378
51.85 0.00866
51.9 0.01242
51.95 0.0118
52 0.00934
52.05 0.00938
52.1 0.00424
52.15 -0.00285
52.2 -0.00816
52.25 -0.01474
52.3 -0.01955
52.35 -0.02213
52.4 -0.02149
52.45 -0.01747
52.5 -0.00976
52.55 -0.00799
52.6 -0.00301
52.65 -0.00343
52.7 -0.0028
52.75 -0.00582
52.8 -0.00498
52.85 -0.00463
52.9 -0.00184
52.95 0.00152
53 0.00674
53.05 0.00887
53.1 0.00982
53.15 0.00993
53.2 0.00915
53.25 0.00831
53.3 0.00695
53.35 0.00351
53.4 -0.00044
53.45 0.00063
53.5 0.00238
53.55 0.00184
53.6 0.00186
53.65 0.00318
53.7 0.00652
53.75 0.01252
53.8 0.01338
53.85 0.0107
53.9 0.01051
53.95 0.01253
54 0.01584
54.05 0.01832
54.1 0.02242
54.15 0.01867
54.2 0.01068
54.25 0.00601
54.3 -0.0009
54.35 -0.00096
54.4 -0.00278
54.45 -0.00179
54.5 0.00134
54.55 0.00499
54.6 0.00929
54.65 0.0144
54.7 0.01293
54.75 0.01293
54.8 0.01399
54.85 0.01285
54.9 0.0141
54.95 0.01657
55 0.01404
55.05 0.00868
55.1 0.00377
55.15 -0.00322
55.2 -0.00621
55.25 -0.00614
55.3 -0.00472
55.35 -0.00568
55.4 -0.00596
55.45 -0.00593
55.5 -0.0054
55.55 -0.00169
55.6 0.0039
55.65 0.00436
55.7 0.00033
55.75 0.00054
55.8 -0.00373
55.85 -0.00542
55.9 -0.00184
55.95 -0.00323
56 -0.00299
56.05 -0.00621
56.1 -0.00849
56.15 -0.00555
56.2 0.00046
56.25 0.00496
56.3 0.00575
56.35 0.00695
56.4 0.00325
56.45 -0.00176
56.5 -0.00397
56.55 -0.00722
56.6 -0.00696
56.65 -0.00559
56.7 -0.00447
56.75 -0.00363
56.8 -0.00079
56.85 0.00117
56.9 0.00424
56.95 0.00499
57 0.00085
57.05 0.00268
57.1 0.00519
57.15 0.01015
57.2 0.01408
57.25 0.01316
57.3 0.01534
57.35 0.0144
57.4 0.01665
57.45 0.0155
57.5 0.01573
57.55 0.01275
57.6 0.00976
57.65 0.00907
57.7 0.01143
57.75 0.01207
57.8 0.0074
57.85 -0.00099
57.9 -0.00848
57.95 -0.01606
58 -0.01755
58.05 -0.01727
58.1 -0.01787
58.15 -0.01409
58.2 -0.0148
58.25 -0.01008
58.3 -0.0075
58.35 -0.00493
58.4 -0.00021
58.45 0.00038
58.5 0.00114
58.55 -0.00154
58.6 -0.00591
58.65 -0.00595
58.7 -0.00339
58.75 -0.00165
58.8 0.00327
58.85 0.00678
58.9 0.00795
58.95 0.00475
59 0.00065
59.05 0.00013
59.1 -0.00473
59.15 -0.01076
59.2 -0.01483
59.25 -0.01751
59.3 -0.01643
59.35 -0.01767
59.4 -0.01659
59.45 -0.0166
59.5 -0.01506
59.55 -0.00853
59.6 -0.00138
59.65 0.0071
59.7 0.00949
59.75 0.01096
59.8 0.00676
59.85 0.00691
59.9 0.00995
59.95 0.01388
60 0.01625
60.05 0.01382
60.1 0.0125
60.15 0.01339
60.2 0.01368
60.25 0.01649
60.3 0.01515
60.35 0.00855
60.4 -0.00018
60.45 -0.00295
60.5 -0.003
60.55 -0.00532
60.6 -0.00198
60.65 -0.00113
60.7 -0.00017
60.75 -0.00171
60.8 -0.00437
60.85 -0.00204
60.9 0.00161
60.95 0.00119
61 0.00204
61.05 0.00208
61.1 -0.00062
61.15 -0.00289
61.2 -0.0073
61.25 -0.0126
61.3 -0.01201
61.35 -0.0092
61.4 -0.00827
61.45 -0.00461
61.5 -0.0064
61.55 -0.01025
61.6 -0.01137
61.65 -0.01452
61.7 -0.01446
61.75 -0.01516
61.8 -0.01344
61.85 -0.01019
61.9 -0.01064
61.95 -0.0095
62 -0.00671
62.05 -0.00028
62.1 0.00304
62.15 0.00235
62.2 -0.00111
62.25 -0.00728
62.3 -0.01323
62.35 -0.01668
62.4 -0.01469
62.45 -0.01502
62.5 -0.01321
62.55 -0.01384
62.6 -0.00922
62.65 -0.00987
62.7 -0.00535
62.75 0.00003
62.8 0.0031
62.85 0.00938
62.9 0.0163
62.95 0.01789
63 0.01648
63.05 0.0158
63.1 0.01408
63.15 0.01009
63.2 0.01031
63.25 0.00855
63.3 0.00515
63.35 0.00647
63.4 0.01045
63.45 0.01567
63.5 0.01401
63.55 0.00993
63.6 0.00814
63.65 0.01006
63.7 0.00989
63.75 0.01261
63.8 0.0092
63.85 0.00163
63.9 0.00035
63.95 -0.00365
64 -0.00632
64.05 -0.00465
64.1 -0.00065
64.15 0.00059
64.2 -0.00177
64.25 -0.0063
64.3 -0.0124
64.35 -0.01192
64.4 -0.01487
64.45 -0.01773
64.5 -0.01831
64.55 -0.0175
64.6 -0.01599
64.65 -0.01769
64.7 -0.01949
64.75 -0.01968
64.8 -0.02099
64.85 -0.01874
64.9 -0.01368
64.95 -0.01318
65 -0.01239
65.05 -0.01522
65.1 -0.01195
65.15 -0.00672
65.2 -0.00274
65.25 0.00076
65.3 0.00657
65.35 0.00955
65.4 0.00933
65.45 0.00751
65.5 0.0095
65.55 0.0099
65.6 0.00748
65.65 0.00537
65.7 0.00301
65.75 0.00298
65.8 0.00013
65.85 -0.00582
65.9 -0.00944
65.95 -0.00892
66 -0.00877
66.05 -0.00519
66.1 0.00087
66.15 0.00335
66.2 0.00848
66.25 0.00845
66.3 0.00735
66.35 0.01081
66.4 0.00837
66.45 0.00793
66.5 0.0051
66.55 0.00063
66.6 -0.00324
66.65 -0.00145
66.7 -0.00004
66.75 0.00178
66.8 0.00657
66.85 0.01136
66.9 0.0148
66.95 0.01834
67 0.01597
67.05 0.00924
67.1 0.0015
67.15 0.00077
67.2 0.00296
67.25 0.00305
67.3 0.00085
67.35 -0.00458
67.4 -0.00934
67.45 -0.01045
67.5 -0.01411
67.55 -0.01586
67.6 -0.01165
67.65 -0.00476
67.7 0.00142
67.75 0.0063
67.8 0.01135
67.85 0.01313
67.9 0.01295
67.95 0.00745
68 0.00061
68.05 -0.00325
68.1 -0.00708
68.15 -0.00991
68.2 -0.00882
68.25 -0.01186
68.3 -0.01433
68.35 -0.01386
68.4 -0.01575
68.45 -0.01323
68.5 -0.01068
68.55 -0.0122
68.6 -0.01295
68.65 -0.00915
68.7 -0.00586
68.75 -0.00032
68.8 0.00558
68.85 0.01311
68.9 0.01843
68.95 0.02127
69 0.02067
69.05 0.01586
69.1 0.00846
69.15 0.00588
69.2 0.00497
69.25 0.00303
69.3 0.00083
69.35 -0.00055
69.4 -0.00086
69.45 0.00334
69.5 0.00522
69.55 0.00473
69.6 0.00278
69.65 0.00427
69.7 0.00112
69.75 -0.00181
69.8 -0.00215
69.85 -0.00569
69.9 -0.00982
69.95 -0.00814
70 -0.00387
70.05 0.00349
70.1 0.01168
70.15 0.01747
70.2 0.02395
70.25 0.02602
70.3 0.02938
70.35 0.03068
70.4 0.03228
70.45 0.03294
70.5 0.02776
70.55 0.02173
70.6 0.01365
70.65 0.01132
70.7 0.01023
70.75 0.00748
70.8 0.00519
70.85 0.00048
70.9 -0.00463
70.95 -0.00941
71 -0.01394
71.05 -0.0141
71.1 -0.01104
71.15 -0.00986
71.2 -0.0128
71.25 -0.01663
71.3 -0.01852
71.35 -0.01399
71.4 -0.00973
71.45 -0.00407
71.5 -0.00399
71.55 -0.00732
71.6 -0.01287
71.65 -0.01303
71.7 -0.01034
71.75 -0.00973
71.8 -0.00816
71.85 -0.00518
71.9 -0.00144
71.95 -0.00277
72 -0.00726
72.05 -0.00581
72.1 -0.00791
72.15 -0.00778
72.2 -0.00341
72.25 0.00289
72.3 0.00675
72.35 0.00647
72.4 0.00809
72.45 0.00906
72.5 0.00467
72.55 -0.00144
72.6 -0.00241
72.65 -0.00265
72.7 0.00157
72.75 0.00615
72.8 0.00463
72.85 0.00222
72.9 0.00034
72.95 -0.00035
73 -0.00472
73.05 -0.00624
73.1 -0.0074
73.15 -0.0061
73.2 -0.00499
73.25 -0.00255
73.3 -0.00217
73.35 -0.00415
73.4 -0.00468
73.45 -0.00619
73.5 -0.00224
73.55 0.00339
73.6 0.00831
73.65 0.00838
73.7 0.008
73.75 0.00335
73.8 -0.00055
73.85 -0.00061
73.9 0.00218
73.95 0.00536
74 0.00683
74.05 0.01023
74.1 0.00838
74.15 0.00175
74.2 -0.00428
74.25 -0.00597
74.3 -0.00232
74.35 0.00265
74.4 0.00709
74.45 0.00645
74.5 0.0081
74.55 0.01088
74.6 0.01214
74.65 0.00981
74.7 0.00583
74.75 0.00718
74.8 0.00601
74.85 0.00635
74.9 0.00169
74.95 -0.00566
75 -0.01289
75.05 -0.0196
75.1 -0.02334
75.15 -0.02187
75.2 -0.02387
75.25 -0.02494
75.3 -0.02656
75.35 -0.02632
75.4 -0.02833
75.45 -0.02437
75.5 -0.02015
75.55 -0.0181
75.6 -0.01472
75.65 -0.00984
75.7 -0.00591
75.75 -0.00123
75.8 -0.00041
75.85 0.0006
75.9 -0.00001
75.95 0.0015
76 0.00264
76.05 0.00632
76.1 0.00849
76.15 0.01232
76.2 0.01422
76.25 0.0131
76.3 0.01353
76.35 0.01192
76.4 0.00609
76.45 -0.00129
76.5 -0.00416
76.55 -0.00652
76.6 -0.01174
76.65 -0.01263
76.7 -0.01212
76.75 -0.00869
76.8 -0.00818
76.85 -0.01029
76.9 -0.01239
76.95 -0.01483
77 -0.01853
77.05 -0.02369
77.1 -0.02024
77.15 -0.01889
77.2 -0.01259
77.25 -0.01073
77.3 -0.00553
77.35 -0.00039
77.4 -0.00002
77.45 -0.00115
77.5 -0.00594
77.55 -0.01098
77.6 -0.01471
77.65 -0.01565
77.7 -0.01874
77.75 -0.01969
77.8 -0.01629
77.85 -0.01193
77.9 -0.00526
77.95 -0.0046
78 -0.00606
78.05 -0.00703
78.1 -0.00933
78.15 -0.013
78.2 -0.01306
78.25 -0.00989
78.3 -0.00921
78.35 -0.01127
78.4 -0.01102
78.45 -0.00851
78.5 -0.00228
78.55 0.00002
78.6 0.00576
78.65 0.0063
78.7 0.00754
78.75 0.0041
78.8 0.003
78.85 0.00184
78.9 0.00541
78.95 0.00773
79 0.00636
79.05 0.00589
79.1 0.00149
79.15 -0.00102
79.2 -0.00254
79.25 -0.00517
79.3 -0.00387
79.35 -0.00094
79.4 0.00599
79.45 0.00778
79.5 0.0089
79.55 0.01306
79.6 0.0113
79.65 0.00538
79.7 -0.00029
79.75 -0.00183
79.8 -0.00473
79.85 -0.00655
79.9 -0.00813
79.95 -0.00362
80 -0.00245
80.05 0.00105
80.1 0.00698
80.15 0.00989
80.2 0.00778
80.25 0.01022
80.3 0.01103
80.35 0.00946
80.4 0.01248
80.45 0.01347
80.5 0.01637
80.55 0.01415
80.6 0.01302
80.65 0.00973
80.7 0.01086
80.75 0.00939
80.8 0.01246
80.85 0.01002
80.9 0.01153
80.95 0.01158
81 0.01444
81.05 0.01238
81.1 0.01414
81.15 0.01484
81.2 0.01528
81.25 0.01311
81.3 0.00734
81.35 0.00442
81.4 0.00206
81.45 -0.0013
81.5 -0.00502
81.55 -0.0105
81.6 -0.01134
81.65 -0.01016
81.7 -0.01238
81.75 -0.01494
81.8 -0.01083
81.85 -0.00937
81.9 -0.00879
81.95 -0.00563
82 0.00148
82.05 0.00204
82.1 -0.00056
82.15 0.00215
82.2 0.00386
82.25 0.00931
82.3 0.014
82.35 0.01554
82.4 0.01868
82.45 0.01818
82.5 0.01396
82.55 0.00734
82.6 -0.00068
82.65 -0.00396
82.7 -0.01025
82.75 -0.01174
82.8 -0.01432
82.85 -0.01032
82.9 -0.00647
82.95 -0.00197
83 -0.00071
83.05 -0.00041
83.1 -0.00352
83.15 -0.00163
83.2 0.00241
83.25 0.00108
83.3 0.00426
83.35 0.00814
83.4 0.00931
83.45 0.01365
83.5 0.01437
83.55 0.01174
83.6 0.01223
83.65 0.00778
83.7 0.00001
83.75 -0.00903
83.8 -0.01055
83.85 -0.01321
83.9 -0.00975
83.95 -0.00947
84 -0.0102
84.05 -0.01214
84.1 -0.01473
84.15 -0.01843
84.2 -0.01841
84.25 -0.01611
84.3 -0.01531
84.35 -0.0093
84.4 -0.00812
84.45 -0.0049
84.5 -0.00405
84.55 -0.00306
84.6 0.00133
84.65 -0.00042
84.7 0.00067
84.75 0.00183
84.8 0.00047
84.85 -0.00144
84.9 -0.00053
84.95 0.0036
85 0.00775
85.05 0.01089
85.1 0.00899
85.15 0.00481
85.2 0.00598
85.25 0.00245
85.3 0.00313
85.35 0.0023
85.4 -0.00285
85.45 -0.01008
85.5 -0.0155
85.55 -0.01845
85.6 -0.01757
85.65 -0.0149
85.7 -0.0163
85.75 -0.01238
85.8 -0.01163
85.85 -0.00639
85.9 -0.00292
85.95 -0.00118
86 0.00418
86.05 0.00888
86.1 0.01415
86.15 0.01565
86.2 0.01468
86.25 0.01057
86.3 0.0058
86.35 0.00499
86.4 0.00849
86.45 0.00653
86.5 0.00806
86.55 0.00648
86.6 0.00859
86.65 0.01053
86.7 0.01543
86.75 0.01783
86.8 0.01345
86.85 0.01378
86.9 0.01348
86.95 0.01175
87 0.01384
87.05 0.01227
87.1 0.01352
87.15 0.01306
87.2 0.00726
87.25 -0.00171
87.3 -0.00887
87.35 -0.01444
87.4 -0.01676
87.45 -0.01621
87.5 -0.01595
87.55 -0.01174
87.6 -0.00963
87.65 -0.00413
87.7 0.00266
87.75 0.00905
87.8 0.01237
87.85 0.01219
87.9 0.01041
87.95 0.00765
88 0.00407
88.05 -0.00027
88.1 -0.00062
88.15 -0.00347
88.2 -0.00825
88.25 -0.00856
88.3 -0.00776
88.35 -0.00974
88.4 -0.01016
88.45 -0.0132
88.5 -0.01533
88.55 -0.01374
88.6 -0.0129
88.65 -0.01125
88.7 -0.01024
88.75 -0.00424
88.8 -0.00428
88.85 -0.00449
88.9 -0.00023
88.95 0.00279
89 0.00272
89.05 0.00233
89.1 -0.00076
89.15 -0.00418
89.2 -0.0088
89.25 -0.00915
89.3 -0.00684
89.35 -0.00159
89.4 0.00094
89.45 0.00711
89.5 0.01094
89.55 0.01264
89.6 0.01311
89.65 0.01054
89.7 0.00939
89.75 0.00895
89.8 0.01075
89.85 0.0105
89.9 0.01067
89.95 0.0076
90 0.0022
90.05 -0.00001
90.1 -0.00541
90.15 -0.00567
90.2 -0.00548
90.25 -0.00518
90.3 -0.00888
90.35 -0.00603
90.4 -0.0014
90.45 0.00084
90.5 0.00662
90.55 0.00741
90.6 0.00568
90.65 0.00492
90.7 0.00831
90.75 0.01027
90.8 0.01261
90.85 0.01611
90.9 0.01748
90.95 0.0125
91 0.01002
91.05 0.0084
91.1 0.00773
91.15 0.00652
91.2 0.00131
91.25 0.00108
91.3 0.00188
91.35 0.00284
91.4 0.00609
91.45 0.00373
91.5 -0.00006
91.55 0.00051
91.6 -0.00256
91.65 -0.00038
91.7 -0.0005
91.75 0.00058
91.8 0.00178
91.85 0.00482
91.9 0.00317
91.95 -0.0013
92 -0.00277
92.05 -0.00743
92.1 -0.00568
92.15 -0.00788
92.2 -0.00881
92.25 -0.00839
92.3 -0.01162
92.35 -0.01134
92.4 -0.01417
92.45 -0.01471
92.5 -0.0173
92.55 -0.02087
92.6 -0.02256
92.65 -0.02262
92.7 -0.02043
92.75 -0.01438
92.8 -0.00824
92.85 -0.00116
92.9 0.00128
92.95 -0.00117
93 -0.00104
93.05 0.00232
93.1 0.00085
93.15 0.00073
93.2 0.00377
93.25 0.00417
93.3 0.00732
93.35 0.00516
93.4 0.00197
93.45 -0.0041
93.5 -0.00684
93.55 -0.00396
93.6 -0.00118
93.65 -0.00124
93.7 0.00017
93.75 0.0043
93.8 0.00425
93.85 0.0028
93.9 0.00017
93.95 0.00152
94 -0.00093
94.05 0.00044
94.1 0.00011
94.15 0.00416
94.2 0.00978
94.25 0.01158
94.3 0.01417
94.35 0.01556
94.4 0.01223
94.45 0.00875
94.5 0.00217
94.55 0.00018
94.6 -0.00448
94.65 -0.01109
94.7 -0.01205
94.75 -0.00796
94.8 -0.00473
94.85 -0.00361
94.9 -0.00133
94.95 -0.0007
95 0.00243
95.05 0.00658
95.1 0.01077
95.15 0.01403
95.2 0.01769
95.25 0.02149
95.3 0.02076
95.35 0.02193
95.4 0.01725
95.45 0.0128
95.5 0.00622
95.55 0.00583
95.6 0.00473
95.65 0.00178
95.7 0.00109
95.75 -0.00257
95.8 -0.0048
95.85 -0.0047
95.9 -0.00468
95.95 -0.00237
96 -0.00308
96.05 -0.00745
96.1 -0.00796
96.15 -0.01013
96.2 -0.00846
96.25 -0.01105
96.3 -0.00938
96.35 -0.01014
96.4 -0.00666
96.45 -0.00206
96.5 -0.00357
96.55 -0.00451
96.6 -0.00692
96.65 -0.00378
96.7 -0.00129
96.75 0.00045
96.8 0.0034
96.85 0.00162
96.9 0.00136
96.95 -0.00279
97 -0.00342
97.05 -0.00823
97.1 -0.01315
97.15 -0.01281
97.2 -0.0103
97.25 -0.01121
97.3 -0.01379
97.35 -0.01426
97.4 -0.0157
97.45 -0.01195
97.5 -0.00624
97.55 -0.00611
97.6 -0.00337
97.65 -0.00097
97.7 0.00209
97.75 0.00362
97.8 0.00104
97.85 0.00174
97.9 0.00441
97.95 0.00733
98 0.01249
98.05 0.01069
98.1 0.00792
98.15 0.00852
98.2 0.01094
98.25 0.01308
98.3 0.0097
98.35 0.00403
98.4 -0.00176
98.45 -0.00897
98.5 -0.01017
98.55 -0.00656
98.6 -0.00272
98.65 -0.00435
98.7 -0.00442
98.75 -0.00265
98.8 0.00029
98.85 0.00602
98.9 0.00867
98.95 0.01353
99 0.01576
99.05 0.01313
99.1 0.00637
99.15 0.00588
99.2 0.00239
99.25 -0.00325
99.3 -0.01006
99.35 -0.0149
99.4 -0.0138
99.45 -0.01634
99.5 -0.01608
99.55 -0.01233
99.6 -0.01132
99.65 -0.00789
99.7 -0.00347
99.75 -0.00123
99.8 0.00099
99.85 0.00001
99.9 -0.00515
99.95 -0.01063
