0 0
0.05 0.00213
0.1 0.01048
0.15 0.02224
0.2 0.03591
0.25 0.0439
0.3 0.04724
0.35 0.05044
0.4 0.05399
0.45 0.05831
0.5 0.05884
0.55 0.05692
0.6 0.05671
0.65 0.05315
0.7 0.0483
0.75 0.04693
0.8 0.0471
0.85 0.05181
0.9 0.05373
0.95 0.05401
1 0.05591
1.05 0.05272
1.1 0.05442
1.15 0.0568
1.2 0.05705
1.25 0.05587
1.3 0.05842
1.35 0.06122
1.4 0.05709
1.45 0.05262
1.5 0.05111
1.55 0.05058
1.6 0.04944
1.65 0.04625
1.7 0.04361
1.75 0.04289
1.8 0.041
1.85 0.04135
1.9 0.03974
1.95 0.04211
2 0.04319
2.05 0.04084
2.1 0.03525
2.15 0.03398
2.2 0.02963
2.25 0.02794
2.3 0.03123
2.35 0.02927
2.4 0.03237
2.45 0.03562
2.5 0.03374
2.55 0.0317
2.6 0.02933
2.65 0.02651
2.7 0.02074
2.75 0.01998
2.8 0.02364
2.85 0.02968
2.9 0.034
2.95 0.03811
3 0.04049
3.05 0.04254
3.1 0.04078
3.15 0.04104
3.2 0.04055
3.25 0.0371
3.3 0.03129
3.35 0.02735
3.4 0.02239
3.45 0.02306
3.5 0.01896
3.55 0.02037
3.6 0.01982
3.65 0.01755
3.7 0.01474
3.75 0.01609
3.8 0.01483
3.85 0.01378
3.9 0.01522
3.95 0.01928
4 0.02111
4.05 0.0182
4.1 0.01957
4.15 0.02227
4.2 0.02392
4.25 0.02539
4.3 0.02355
4.35 0.01643
4.4 0.0124
4.45 0.00857
4.5 0.00548
4.55 -0.00037
4.6 -0.0067
4.65 -0.01454
4.7 -0.02764
4.75 -0.04342
4.8 -0.06029
4.85 -0.086
4.9 -0.11588
4.95 -0.14761
5 -0.18035
5.05 -0.21683
5.1 -0.26378
5.15 -0.31378
5.2 -0.36308
5.25 -0.41899
5.3 -0.48148
5.35 -0.54332
5.4 -0.6058
5.45 -0.66628
5.5 -0.73197
5.55 -0.80011
5.6 -0.86265
5.65 -0.9187
5.7 -0.96743
5.75 -1.01441
5.8 -1.05505
5.85 -1.09194
5.9 -1.11685
5.95 -1.13356
6 -1.14421
6.05 -1.14244
6.1 -1.13316
6.15 -1.1208
6.2 -1.10561
6.25 -1.08098
6.3 -1.04701
6.35 -1.00501
6.4 -0.95807
6.45 -0.91151
6.5 -0.86065
6.55 -0.80707
6.6 -0.75456
6.65 -0.69937
6.7 -0.64323
6.75 -0.57671
6.8 -0.50677
6.85 -0.43494
6.9 -0.35523
6.95 -0.26798
7 -0.17899
7.05 -0.08683
7.1 0.00285
7.15 0.09107
7.2 0.18088
7.25 0.26906
7.3 0.35619
7.35 0.44246
7.4 0.53019
7.45 0.60993
7.5 0.69101
7.55 0.76953
7.6 0.84071
7.65 0.89802
7.7 0.94662
7.75 0.98919
7.8 1.02229
7.85 1.04548
7.9 1.0577
7.95 1.06402
8 1.0665
8.05 1.0661
8.1 1.05658
8.15 1.04439
8.2 1.02552
8.25 1.00424
8.3 0.98264
8.35 0.95415
8.4 0.92215
8.45 0.88902
8.5 0.85537
8.55 0.82448
8.6 0.79907
8.65 0.7694
8.7 0.74539
8.75 0.72368
8.8 0.69817
8.85 0.67435
8.9 0.65444
8.95 0.62819
9 0.59904
9.05 0.57364
9.1 0.55489
9.15 0.54076
9.2 0.52675
9.25 0.51408
9.3 0.49766
9.35 0.48163
9.4 0.46914
9.45 0.46003
9.5 0.44671
9.55 0.42917
9.6 0.41098
9.65 0.39396
9.7 0.38171
9.75 0.37124
9.8 0.36601
9.85 0.3564
9.9 0.34927
9.95 0.34329
10 0.34051
10.05 0.33342
10.1 0.32867
10.15 0.32152
10.2 0.30882
10.25 0.29777
10.3 0.2886
10.35 0.28052
10.4 0.27322
10.45 0.26619
10.5 0.25755
10.55 0.24502
10.6 0.23238
10.65 0.22129
10.7 0.21138
10.75 0.20221
10.8 0.19603
10.85 0.1824
10.9 0.17029
10.95 0.16252
11 0.15341
11.05 0.14043
11.1 0.12604
11.15 0.1089
11.2 0.08984
11.25 0.07354
11.3 0.05827
11.35 0.04944
11.4 0.03785
11.45 0.02891
11.5 0.02413
11.55 0.01686
11.6 0.00719
11.65 -0.00098
11.7 -0.00901
11.75 -0.0164
11.8 -0.0264
11.85 -0.03306
11.9 -0.04444
11.95 -0.05853
12 -0.07119
12.05 -0.07634
12.1 -0.07767
12.15 -0.07742
12.2 -0.08111
12.25 -0.08893
12.3 -0.09306
12.35 -0.09963
12.4 -0.10219
12.45 -0.10831
12.5 -0.11102
12.55 -0.11375
12.6 -0.11315
12.65 -0.1109
12.7 -0.11086
12.75 -0.11058
12.8 -0.10868
12.85 -0.11143
12.9 -0.11395
12.95 -0.12127
13 -0.12748
13.05 -0.12796
13.1 -0.13139
13.15 -0.13481
13.2 -0.13287
13.25 -0.12803
13.3 -0.12902
13.35 -0.1266
13.4 -0.12294
13.45 -0.12505
13.5 -0.12167
13.55 -0.12227
13.6 -0.12194
13.65 -0.12149
13.7 -0.12123
13.75 -0.1189
13.8 -0.11693
13.85 -0.11152
13.9 -0.11001
13.95 -0.10623
14 -0.10312
14.05 -0.10086
14.1 -0.10069
14.15 -0.09716
14.2 -0.09267
14.25 -0.09448
14.3 -0.09413
14.35 -0.09961
14.4 -0.10638
14.45 -0.11187
14.5 -0.11783
14.55 -0.11807
14.6 -0.1148
14.65 -0.10995
14.7 -0.10716
14.75 -0.10288
14.8 -0.09883
14.85 -0.0931
14.9 -0.087
14.95 -0.08677
15 -0.08439
15.05 -0.08709
15.1 -0.09312
15.15 -0.09583
15.2 -0.09968
15.25 -0.10423
15.3 -0.10436
15.35 -0.09942
15.4 -0.09262
15.45 -0.08579
15.5 -0.08091
15.55 -0.07302
15.6 -0.06943
15.65 -0.07014
15.7 -0.06771
15.75 -0.06927
15.8 -0.06834
15.85 -0.06878
15.9 -0.06811
15.95 -0.06662
16 -0.06068
16.05 -0.06141
16.1 -0.05786
16.15 -0.05523
16.2 -0.04999
16.25 -0.04872
16.3 -0.04765
16.35 -0.05145
16.4 -0.05671
16.45 -0.05565
16.5 -0.05278
16.55 -0.05104
16.6 -0.04934
16.65 -0.04555
16.7 -0.03906
16.75 -0.03924
16.8 -0.04421
16.85 -0.0465
16.9 -0.04634
16.95 -0.04824
17 -0.05294
17.05 -0.05207
17.1 -0.055
17.15 -0.05627
17.2 -0.06025
17.25 -0.06423
17.3 -0.06453
17.35 -0.06528
17.4 -0.06441
17.45 -0.06262
17.5 -0.06104
17.55 -0.06189
17.6 -0.0581
17.65 -0.0586
17.7 -0.05433
17.75 -0.04552
17.8 -0.04258
17.85 -0.03975
17.9 -0.03541
17.95 -0.03411
18 -0.03211
18.05 -0.02965
18.1 -0.03109
18.15 -0.02903
18.2 -0.02601
18.25 -0.0265
18.3 -0.02618
18.35 -0.02445
18.4 -0.02338
18.45 -0.0214
18.5 -0.01667
18.55 -0.0121
18.6 -0.0105
18.65 -0.01091
18.7 -0.01725
18.75 -0.02017
18.8 -0.01842
18.85 -0.02173
18.9 -0.02717
18.95 -0.03271
19 -0.03831
19.05 -0.03984
19.1 -0.04239
19.15 -0.03924
19.2 -0.03918
19.25 -0.04113
19.3 -0.04404
19.35 -0.04719
19.4 -0.049
19.45 -0.05112
19.5 -0.05333
19.55 -0.04879
19.6 -0.04728
19.65 -0.03941
19.7 -0.0335
19.75 -0.02915
19.8 -0.02855
19.85 -0.02744
19.9 -0.02352
19.95 -0.02018
20 -0.01638
20.05 -0.01861
20.1 -0.01781
20.15 -0.01707
20.2 -0.01349
20.25 -0.00874
20.3 -0.00532
20.35 -0.00027
20.4 0.00295
20.45 0.00268
20.5 0.00195
20.55 0.00057
20.6 -0.00319
20.65 -0.01095
20.7 -0.01531
20.75 -0.01704
20.8 -0.01644
20.85 -0.013
20.9 -0.00999
20.95 -0.00687
21 -0.00903
21.05 -0.00889
21.1 -0.00755
21.15 -0.00563
21.2 -0.00612
21.25 -0.00672
21.3 -0.01199
21.35 -0.01194
21.4 -0.01158
21.45 -0.01293
21.5 -0.01229
21.55 -0.00898
21.6 -0.00552
21.65 -0.00533
21.7 -0.01011
21.75 -0.01099
21.8 -0.0163
21.85 -0.01851
21.9 -0.01541
21.95 -0.01287
22 -0.01207
22.05 -0.00995
22.1 -0.00403
22.15 0.00174
22.2 0.00455
22.25 0.00452
22.3 0.00021
22.35 -0.00514
22.4 -0.00429
22.45 -0.00858
22.5 -0.01156
22.55 -0.01143
22.6 -0.01275
22.65 -0.01797
22.7 -0.02486
22.75 -0.03109
22.8 -0.0294
22.85 -0.02183
22.9 -0.01108
22.95 -0.00247
23 0.00471
23.05 0.0065
23.1 0.00695
23.15 0.00538
23.2 0.00301
23.25 -0.0003
23.3 -0.00692
23.35 -0.00822
23.4 -0.00481
23.45 -0.00443
23.5 -0.00773
23.55 -0.00704
23.6 -0.00861
23.65 -0.00597
23.7 -0.00599
23.75 -0.00489
23.8 -0.00258
23.85 -0.00554
23.9 -0.01045
23.95 -0.01087
24 -0.01136
24.05 -0.01072
24.1 -0.01159
24.15 -0.01378
24.2 -0.01875
24.25 -0.01788
24.3 -0.01996
24.35 -0.01537
24.4 -0.01046
24.45 -0.01066
24.5 -0.01305
24.55 -0.0127
24.6 -0.01356
24.65 -0.00982
24.7 -0.00729
24.75 -0.00567
24.8 -0.00858
24.85 -0.01314
24.9 -0.01253
24.95 -0.01009
25 -0.0109
25.05 -0.00716
25.1 -0.00593
25.15 -0.00885
25.2 -0.00929
25.25 -0.01284
25.3 -0.01046
25.35 -0.00726
25.4 -0.00263
25.45 -0.00392
25.5 -0.0024
25.55 -0.00284
25.6 -0.0076
25.65 -0.01219
25.7 -0.00938
25.75 -0.00984
25.8 -0.00939
25.85 -0.01303
25.9 -0.0099
25.95 -0.00934
26 -0.01041
26.05 -0.00595
26.1 0.00094
26.15 0.00182
26.2 -0.0024
26.25 -0.00665
26.3 -0.01121
26.35 -0.01202
26.4 -0.01071
26.45 -0.00968
26.5 -0.00541
26.55 -0.00284
26.6 -0.00025
26.65 0.00174
26.7 -0.00156
26.75 0.00131
26.8 0.00294
26.85 0.00171
26.9 0.00436
26.95 0.01036
27 0.01436
27.05 0.01827
27.1 0.01874
27.15 0.0177
27.2 0.01992
27.25 0.02161
27.3 0.01859
27.35 0.01295
27.4 0.01089
27.45 0.01016
27.5 0.00649
27.55 -0.0006
27.6 -0.00683
27.65 -0.01513
27.7 -0.01995
27.75 -0.02096
27.8 -0.02556
27.85 -0.03653
27.9 -0.0435
27.95 -0.05661
28 -0.07184
28.05 -0.08695
28.1 -0.09939
28.15 -0.11199
28.2 -0.12811
28.25 -0.14591
28.3 -0.16709
28.35 -0.19412
28.4 -0.2284
28.45 -0.26599
28.5 -0.30376
28.55 -0.34675
28.6 -0.38774
28.65 -0.42977
28.7 -0.47424
28.75 -0.52688
28.8 -0.58167
28.85 -0.64064
28.9 -0.70688
28.95 -0.77384
29 -0.84028
29.05 -0.90854
29.1 -0.97315
29.15 -1.04497
29.2 -1.11389
29.25 -1.18411
29.3 -1.25852
29.35 -1.33464
29.4 -1.41057
29.45 -1.47536
29.5 -1.53793
29.55 -1.59253
29.6 -1.64485
29.65 -1.69191
29.7 -1.73529
29.75 -1.76786
29.8 -1.78627
29.85 -1.79783
29.9 -1.80097
29.95 -1.79319
30 -1.77521
30.05 -1.74942
30.1 -1.71097
30.15 -1.66533
30.2 -1.60483
30.25 -1.53542
30.3 -1.4569
30.35 -1.37187
30.4 -1.27864
30.45 -1.17556
30.5 -1.05962
30.55 -0.93241
30.6 -0.79779
30.65 -0.65742
30.7 -0.51577
30.75 -0.3741
30.8 -0.23108
30.85 -0.09338
30.9 0.03867
30.95 0.1723
31 0.301
31.05 0.42844
31.1 0.55112
31.15 0.66437
31.2 0.77188
31.25 0.87528
31.3 0.97385
31.35 1.05754
31.4 1.13323
31.45 1.20074
31.5 1.26554
31.55 1.32407
31.6 1.37595
31.65 1.41769
31.7 1.45364
31.75 1.48223
31.8 1.50012
31.85 1.5151
31.9 1.5275
31.95 1.53301
32 1.53355
32.05 1.53668
32.1 1.5341
32.15 1.52951
32.2 1.52479
32.25 1.52134
32.3 1.52044
32.35 1.51774
32.4 1.51223
32.45 1.50758
32.5 1.49916
32.55 1.48476
32.6 1.46949
32.65 1.45015
32.7 1.43488
32.75 1.42124
32.8 1.40616
32.85 1.38395
32.9 1.36448
32.95 1.34638
33 1.32307
33.05 1.29464
33.1 1.26962
33.15 1.2444
33.2 1.21806
33.25 1.18826
33.3 1.16029
33.35 1.12652
33.4 1.08847
33.45 1.04639
33.5 1.00774
33.55 0.97302
33.6 0.93596
33.65 0.89738
33.7 0.85769
33.75 0.81743
33.8 0.7799
33.85 0.74807
33.9 0.71245
33.95 0.68371
34 0.65247
34.05 0.62596
34.1 0.60058
34.15 0.56811
34.2 0.53159
34.25 0.49261
34.3 0.46217
34.35 0.42835
34.4 0.39507
34.45 0.36648
34.5 0.34368
34.55 0.32207
34.6 0.298
34.65 0.27399
34.7 0.24541
34.75 0.22266
34.8 0.20057
34.85 0.17362
34.9 0.14546
34.95 0.11616
35 0.08669
35.05 0.06591
35.1 0.04342
35.15 0.02527
35.2 0.00764
35.25 -0.00609
35.3 -0.02105
35.35 -0.0394
35.4 -0.05515
35.45 -0.06475
35.5 -0.0779
35.55 -0.08906
35.6 -0.09923
35.65 -0.10605
35.7 -0.11014
35.75 -0.11863
35.8 -0.12575
35.85 -0.13609
35.9 -0.14907
35.95 -0.15848
36 -0.16547
36.05 -0.17708
36.1 -0.18377
36.15 -0.18705
36.2 -0.19192
36.25 -0.20156
36.3 -0.21265
36.35 -0.22192
36.4 -0.23159
36.45 -0.24301
36.5 -0.2502
36.55 -0.25747
36.6 -0.25945
36.65 -0.25628
36.7 -0.25805
36.75 -0.26258
36.8 -0.2672
36.85 -0.27177
36.9 -0.26866
36.95 -0.26632
37 -0.26335
37.05 -0.25504
37.1 -0.2486
37.15 -0.2402
37.2 -0.23846
37.25 -0.23515
37.3 -0.23597
37.35 -0.23406
37.4 -0.23729
37.45 -0.23999
37.5 -0.24065
37.55 -0.23872
37.6 -0.23258
37.65 -0.22698
37.7 -0.22674
37.75 -0.22704
37.8 -0.22213
37.85 -0.21883
37.9 -0.21129
37.95 -0.20399
38 -0.203
38.05 -0.19868
38.1 -0.19896
38.15 -0.19742
38.2 -0.193
38.25 -0.19091
38.3 -0.18806
38.35 -0.18485
38.4 -0.18545
38.45 -0.18075
38.5 -0.17951
38.55 -0.17478
38.6 -0.17175
38.65 -0.16865
38.7 -0.1671
38.75 -0.16357
38.8 -0.15664
38.85 -0.15098
38.9 -0.14958
38.95 -0.14687
39 -0.14904
39.05 -0.15539
39.1 -0.15694
39.15 -0.15768
39.2 -0.15647
39.25 -0.15794
39.3 -0.15737
39.35 -0.15881
39.4 -0.15963
39.45 -0.16238
39.5 -0.16081
39.55 -0.1578
39.6 -0.15355
39.65 -0.14593
39.7 -0.14327
39.75 -0.14466
39.8 -0.14372
39.85 -0.14152
39.9 -0.13844
39.95 -0.13404
40 -0.12958
40.05 -0.12497
40.1 -0.11724
40.15 -0.10974
40.2 -0.10644
40.25 -0.10693
40.3 -0.10747
40.35 -0.10733
40.4 -0.11113
40.45 -0.11287
40.5 -0.11572
40.55 -0.11335
40.6 -0.1103
40.65 -0.10761
40.7 -0.10164
40.75 -0.09812
40.8 -0.09683
40.85 -0.09153
40.9 -0.083
40.95 -0.07712
41 -0.0722
41.05 -0.07324
41.1 -0.07757
41.15 -0.07769
41.2 -0.08142
41.25 -0.08223
41.3 -0.08384
41.35 -0.08814
41.4 -0.08581
41.45 -0.08033
41.5 -0.08067
41.55 -0.07571
41.6 -0.07556
41.65 -0.07834
41.7 -0.07983
41.75 -0.08175
41.8 -0.08467
41.85 -0.08228
41.9 -0.08073
41.95 -0.08125
42 -0.08221
42.05 -0.07711
42.1 -0.06765
42.15 -0.06055
42.2 -0.05169
42.25 -0.0421
42.3 -0.03443
42.35 -0.03118
42.4 -0.03386
42.45 -0.03784
42.5 -0.04217
42.55 -0.04962
42.6 -0.05269
42.65 -0.05054
42.7 -0.04449
42.75 -0.04045
42.8 -0.03835
42.85 -0.04022
42.9 -0.04064
42.95 -0.03919
43 -0.04076
43.05 -0.04381
43.1 -0.04916
43.15 -0.05083
43.2 -0.05141
43.25 -0.04604
43.3 -0.04153
43.35 -0.03729
43.4 -0.03643
43.45 -0.03915
43.5 -0.03975
43.55 -0.03695
43.6 -0.03273
43.65 -0.02574
43.7 -0.02177
43.75 -0.0191
43.8 -0.01953
43.85 -0.01644
43.9 -0.01285
43.95 -0.01177
44 -0.00971
44.05 -0.00861
44.1 -0.00628
44.15 -0.0099
44.2 -0.01834
44.25 -0.02345
44.3 -0.03223
44.35 -0.04217
44.4 -0.04837
44.45 -0.05435
44.5 -0.05201
44.55 -0.04771
44.6 -0.04058
44.65 -0.03809
44.7 -0.03688
44.75 -0.03933
44.8 -0.04125
44.85 -0.0453
44.9 -0.04173
44.95 -0.03952
45 -0.0339
45.05 -0.03387
45.1 -0.0317
45.15 -0.02777
45.2 -0.02119
45.25 -0.02016
45.3 -0.02057
45.35 -0.01716
45.4 -0.01479
45.45 -0.01023
45.5 -0.00985
45.55 -0.01158
45.6 -0.0165
45.65 -0.02276
45.7 -0.02806
45.75 -0.026
45.8 -0.02051
45.85 -0.021
45.9 -0.02529
45.95 -0.02374
46 -0.02181
46.05 -0.02229
46.1 -0.02572
46.15 -0.02961
46.2 -0.03098
46.25 -0.03191
46.3 -0.02927
46.35 -0.02483
46.4 -0.02023
46.45 -0.02034
46.5 -0.01562
46.55 -0.00828
46.6 -0.00668
46.65 -0.00901
46.7 -0.01486
46.75 -0.01584
46.8 -0.01692
46.85 -0.01466
46.9 -0.01683
46.95 -0.01437
47 -0.01689
47.05 -0.01431
47.1 -0.01634
47.15 -0.01548
47.2 -0.01335
47.25 -0.00813
47.3 -0.00109
47.35 -0.0021
47.4 0.00025
47.45 0.00099
47.5 0.00229
47.55 -0.00217
47.6 -0.00602
47.65 -0.01187
47.7 -0.01904
47.75 -0.0248
47.8 -0.02423
47.85 -0.02447
47.9 -0.02425
47.95 -0.01826
48 -0.01091
48.05 -0.00855
48.1 -0.00864
48.15 -0.00945
48.2 -0.01428
48.25 -0.01243
48.3 -0.00853
48.35 -0.00614
48.4 -0.00662
48.45 -0.00642
48.5 -0.00203
48.55 0.00408
48.6 0.01094
48.65 0.01552
48.7 0.0212
48.75 0.01876
48.8 0.01441
48.85 0.00558
48.9 -0.00195
48.95 -0.00508
49 -0.0071
49.05 -0.00616
49.1 -0.00451
49.15 -0.00412
49.2 -0.0007
49.25 -0.0017
49.3 -0.00682
49.35 -0.01416
49.4 -0.02226
49.45 -0.03072
49.5 -0.03519
49.55 -0.03445
49.6 -0.03367
49.65 -0.0321
49.7 -0.0279
49.75 -0.02608
49.8 -0.0192
49.85 -0.01603
49.9 -0.01317
49.95 -0.00796
50 -0.00594
50.05 -0.00038
50.1 0.00639
50.15 0.00741
50.2 0.00777
50.25 0.01098
50.3 0.01399
50.35 0.01684
50.4 0.01602
50.45 0.01717
50.5 0.01167
50.55 0.00977
50.6 0.011
50.65 0.01382
50.7 0.0136
50.75 0.01081
50.8 0.0122
50.85 0.00984
50.9 0.00229
50.95 -0.00394
51 -0.00797
51.05 -0.01253
51.1 -0.01501
51.15 -0.019
51.2 -0.02018
51.25 -0.02135
51.3 -0.02417
51.35 -0.0268
51.4 -0.02752
51.45 -0.02723
51.5 -0.02456
51.55 -0.02296
51.6 -0.02187
51.65 -0.01501
51.7 -0.00868
51.75 -0.0037
51.8 -0.00088
51.85 -0.00339
51.9 -0.0002
51.95 0.00123
52 0.00409
52.05 0.00584
52.1 0.00467
52.15 0.008
52.2 0.00453
52.25 0.0016
52.3 -0.0009
52.35 -0.00237
52.4 -0.00529
52.45 -0.0054
52.5 -0.00528
52.55 -0.0037
52.6 -0.00561
52.65 -0.01052
52.7 -0.01538
52.75 -0.01907
52.8 -0.02
52.85 -0.01517
52.9 -0.00665
52.95 -0.00303
53 0.00386
53.05 0.00952
53.1 0.00789
53.15 0.00161
53.2 -0.00275
53.25 -0.00992
53.3 -0.01746
53.35 -0.02185
53.4 -0.02101
53.45 -0.01726
53.5 -0.01205
53.55 -0.00439
53.6 -0.00261
53.65 -0.00115
53.7 -0.0011
53.75 0.0035
53.8 0.00614
53.85 0.00463
53.9 0.0059
53.95 0.00154
54 -0.00073
54.05 0.00127
54.1 0.00505
54.15 0.01038
54.2 0.01286
54.25 0.01338
54.3 0.0157
54.35 0.01439
54.4 0.01271
54.45 0.00807
54.5 0.00318
54.55 -0.00018
54.6 -0.00722
54.65 -0.00961
54.7 -0.0084
54.75 -0.00287
54.8 0.00436
54.85 0.00703
54.9 0.0056
54.95 0.0026
55 -0.00353
55.05 -0.00711
55.1 -0.00941
55.15 -0.01188
55.2 -0.01396
55.25 -0.01771
55.3 -0.01953
55.35 -0.01722
55.4 -0.01686
55.45 -0.01705
55.5 -0.01387
55.55 -0.00669
55.6 0.00268
55.65 0.00638
55.7 0.00357
55.75 0.00228
55.8 0.0038
55.85 0.00538
55.9 0.00317
55.95 0.00521
56 0.00503
56.05 0.00538
56.1 0.00364
56.15 0.00233
56.2 0.00051
56.25 -0.00276
56.3 -0.00107
56.35 -0.00468
56.4 -0.00811
56.45 -0.01355
56.5 -0.01445
56.55 -0.01821
56.6 -0.01976
56.65 -0.01926
56.7 -0.01498
56.75 -0.01179
56.8 -0.00718
56.85 -0.00683
56.9 -0.00769
56.95 -0.0042
57 -0.00146
57.05 0.00113
57.1 0.00196
57.15 0.00499
57.2 0.0063
57.25 0.00864
57.3 0.01309
57.35 0.01454
57.4 0.00975
57.45 0.00756
57.5 0.007
57.55 0.00827
57.6 0.00733
57.65 0.00191
57.7 -0.00087
57.75 -0.00518
57.8 -0.01032
57.85 -0.01249
57.9 -0.01036
57.95 -0.00726
58 -0.00387
58.05 -0.00127
58.1 0.00418
58.15 0.00879
58.2 0.01426
58.25 0.01384
58.3 0.01303
58.35 0.00957
58.4 0.00976
58.45 0.00591
58.5 0.00595
58.55 0.00528
58.6 0.00191
58.65 0.00005
58.7 0.00202
58.75 0.00323
58.8 0.00658
58.85 0.01278
58.9 0.0127
58.95 0.01003
59 0.00504
59.05 0.0041
59.1 0.00123
59.15 -0.00408
59.2 -0.01172
59.25 -0.01183
59.3 -0.01305
59.35 -0.01391
59.4 -0.01443
59.45 -0.01696
59.5 -0.01269
59.55 -0.00617
59.6 -0.00219
59.65 -0.00018
59.7 0.00483
59.75 0.00773
59.8 0.01043
59.85 0.01017
59.9 0.0139
59.95 0.01723
60 0.01593
60.05 0.01282
60.1 0.01023
60.15 0.00428
60.2 0.00139
60.25 -0.005
60.3 -0.00682
60.35 -0.00574
60.4 -0.00815
60.45 -0.01063
60.5 -0.01432
60.55 -0.01488
60.6 -0.0126
60.65 -0.00989
60.7 -0.0093
60.75 -0.00939
60.8 -0.00608
60.85 -0.00027
60.9 0.00796
60.95 0.00871
61 0.00596
61.05 0.00724
61.1 0.00505
61.15 0.00148
61.2 -0.00081
61.25 0.00251
61.3 0.00575
61.35 0.0033
61.4 0.00019
61.45 0.00282
61.5 0.00601
61.55 0.01212
61.6 0.01521
61.65 0.01835
61.7 0.02037
61.75 0.01527
61.8 0.0144
61.85 0.01476
61.9 0.00877
61.95 0.00578
62 0.00282
62.05 0.00124
62.1 0.00075
62.15 0.00003
62.2 -0.00288
62.25 -0.00022
62.3 0.00408
62.35 0.0026
62.4 0.00585
62.45 0.00957
62.5 0.01116
62.55 0.01342
62.6 0.01517
62.65 0.01511
62.7 0.01359
62.75 0.01113
62.8 0.00361
62.85 -0.00104
62.9 -0.00855
62.95 -0.01673
63 -0.0175
63.05 -0.01235
63.1 -0.00643
63.15 -0.00442
63.2 -0.00159
63.25 -0.00397
63.3 -0.00595
63.35 -0.00766
63.4 -0.01038
63.45 -0.01555
63.5 -0.01672
63.55 -0.01627
63.6 -0.01043
63.65 -0.004
63.7 -0.0024
63.75 -0.00323
63.8 0.00031
63.85 0.00639
63.9 0.00939
63.95 0.01263
64 0.01124
64.05 0.01
64.1 0.00943
64.15 0.00343
64.2 0.00334
64.25 0.00568
64.3 0.00181
64.35 -0.0014
64.4 -0.0006
64.45 -0.00459
64.5 -0.01071
64.55 -0.0092
64.6 -0.00463
64.65 -0.00516
64.7 -0.00473
64.75 -0.0055
64.8 -0.00698
64.85 -0.00578
64.9 -0.00666
64.95 -0.00663
65 -0.00613
65.05 -0.00491
65.1 -0.00783
65.15 -0.0083
65.2 -0.00576
65.25 -0.00077
65.3 0.00589
65.35 0.00546
65.4 0.00166
65.45 -0.00149
65.5 -0.00538
65.55 -0.0097
65.6 -0.00692
65.65 -0.00496
65.7 -0.00561
65.75 -0.00738
65.8 -0.00793
65.85 -0.00441
65.9 0.00268
65.95 0.00917
66 0.01486
66.05 0.0144
66.1 0.01111
66.15 0.0081
66.2 0.00683
66.25 0.00283
66.3 0.00053
66.35 -0.00359
66.4 -0.00981
66.45 -0.01671
66.5 -0.02435
66.55 -0.02872
66.6 -0.03253
66.65 -0.03622
66.7 -0.03127
66.75 -0.02081
66.8 -0.00929
66.85 -0.00505
66.9 -0.0049
66.95 -0.00854
67 -0.00547
67.05 -0.00183
67.1 -0.00075
67.15 0.00484
67.2 0.00333
67.25 -0.00092
67.3 -0.00184
67.35 -0.00345
67.4 -0.00598
67.45 -0.00721
67.5 -0.01004
67.55 -0.00621
67.6 -0.00495
67.65 -0.00327
67.7 -0.00304
67.75 -0.00004
67.8 0.00022
67.85 -0.00041
67.9 -0.00162
67.95 -0.00375
68 -0.00538
68.05 -0.0081
68.1 -0.01112
68.15 -0.01658
68.2 -0.0179
68.25 -0.01491
68.3 -0.00798
68.35 -0.00076
68.4 0.00236
68.45 0.00198
68.5 -0.00227
68.55 -0.00772
68.6 -0.00649
68.65 -0.00534
68.7 -0.00824
68.75 -0.01354
68.8 -0.01359
68.85 -0.0102
68.9 -0.00882
68.95 -0.01135
69 -0.01545
69.05 -0.01692
69.1 -0.01846
69.15 -0.01292
69.2 -0.00936
69.25 -0.01003
69.3 -0.00443
69.35 -0.00283
69.4 0.00002
69.45 0.00377
69.5 0.00999
69.55 0.01596
69.6 0.01975
69.65 0.02089
69.7 0.0177
69.75 0.01168
69.8 0.01066
69.85 0.00975
69.9 0.00851
69.95 0.00602
70 0.00793
70.05 0.00436
70.1 -0.00104
70.15 -0.00068
70.2 -0.00216
70.25 -0.00515
70.3 -0.00475
70.35 -0.00452
70.4 -0.00624
70.45 -0.0091
70.5 -0.0115
70.55 -0.01192
70.6 -0.01351
70.65 -0.00828
70.7 -0.00386
70.75 0.00356
70.8 0.00589
70.85 0.0096
70.9 0.00838
70.95 0.00516
71 0.00502
71.05 0.00844
71.1 0.00635
71.15 0.00901
71.2 0.01115
71.25 0.01019
71.3 0.01044
71.35 0.01359
71.4 0.01237
71.45 0.01434
71.5 0.01128
71.55 0.00492
71.6 0.00008
71.65 -0.0061
71.7 -0.00739
71.75 -0.01125
71.8 -0.01438
71.85 -0.01027
71.9 -0.00254
71.95 -0.00016
72 -0.00172
72.05 -0.00462
72.1 -0.00938
72.15 -0.0115
72.2 -0.01236
72.25 -0.01008
72.3 -0.00431
72.35 0.0039
72.4 0.0063
72.45 0.01024
72.5 0.01293
72.55 0.0175
72.6 0.02207
72.65 0.02705
72.7 0.02989
72.75 0.0285
72.8 0.02222
72.85 0.01268
72.9 0.00095
72.95 -0.00864
73 -0.01257
73.05 -0.01162
73.1 -0.0133
73.15 -0.01079
73.2 -0.01177
73.25 -0.01342
73.3 -0.01432
73.35 -0.01112
73.4 -0.01042
73.45 -0.01212
73.5 -0.00725
73.55 0.00043
73.6 0.00112
73.65 -0.00299
73.7 -0.00802
73.75 -0.01458
73.8 -0.02109
73.85 -0.02473
73.9 -0.02708
73.95 -0.02356
74 -0.01537
74.05 -0.00949
74.1 -0.00798
74.15 -0.00707
74.2 -0.00853
74.25 -0.00504
74.3 -0.00309
74.35 0.00289
74.4 0.00486
74.45 0.00209
74.5 -0.00358
74.55 -0.00976
74.6 -0.01442
74.65 -0.01564
74.7 -0.01934
74.75 -0.02404
74.8 -0.02422
74.85 -0.02243
74.9 -0.01535
74.95 -0.01375
75 -0.014
75.05 -0.00987
75.1 -0.00418
75.15 -0.00194
75.2 0.00163
75.25 0.00047
75.3 -0.00257
75.35 -0.00548
75.4 -0.00392
75.45 -0.00089
75.5 0.0063
75.55 0.0151
75.6 0.0163
75.65 0.01961
75.7 0.01644
75.75 0.01651
75.8 0.0152
75.85 0.01677
75.9 0.02076
75.95 0.02389
76 0.02669
76.05 0.02839
76.1 0.02756
76.15 0.02271
76.2 0.01342
76.25 0.01005
76.3 0.00417
76.35 0.00024
76.4 -0.00596
76.45 -0.00827
76.5 -0.01202
76.55 -0.01525
76.6 -0.0124
76.65 -0.00981
76.7 -0.00393
76.75 -0.00261
76.8 -0.00584
76.85 -0.00828
76.9 -0.01027
76.95 -0.00989
77 -0.00817
77.05 -0.0082
77.1 -0.00584
77.15 0.00026
77.2 0.00103
77.25 0.00204
77.3 0.0067
77.35 0.00625
77.4 0.01031
77.45 0.01478
77.5 0.021
77.55 0.01934
77.6 0.01277
77.65 0.00322
77.7 0.00169
77.75 -0.00368
77.8 -0.00727
77.85 -0.0049
77.9 0.00068
77.95 0.00072
78 0.00453
78.05 0.00674
78.1 0.00769
78.15 0.00474
78.2 0.00448
78.25 0.00054
78.3 -0.0059
78.35 -0.00535
78.4 -0.00717
78.45 -0.01076
78.5 -0.00716
78.55 -0.0029
78.6 -0.00115
78.65 -0.00285
78.7 -0.00024
78.75 0.00191
78.8 0.00664
78.85 0.00962
78.9 0.01566
78.95 0.01602
79 0.01651
79.05 0.01517
79.1 0.01354
79.15 0.00961
79.2 0.0081
79.25 0.00858
79.3 0.00555
79.35 0.00467
79.4 0.00314
79.45 0.00391
79.5 0.00115
79.55 0.00086
79.6 0.0004
79.65 0.00258
79.7 0.0015
79.75 0.00394
79.8 0.00331
79.85 0.00439
79.9 0.00714
79.95 0.00784
80 0.01117
80.05 0.01334
80.1 0.0132
80.15 0.01244
80.2 0.01491
80.25 0.01267
80.3 0.01333
80.35 0.01713
80.4 0.01636
80.45 0.01277
80.5 0.00607
80.55 0.0007
80.6 0.00109
80.65 -0.00288
80.7 -0.00441
80.75 -0.00394
80.8 -0.00584
80.85 -0.00348
80.9 -0.00008
80.95 -0.00114
81 -0.00528
81.05 -0.00354
81.1 -0.00117
81.15 0.00413
81.2 0.0046
81.25 0.00137
81.3 -0.00171
81.35 -0.00427
81.4 -0.01024
81.45 -0.00909
81.5 -0.01188
81.55 -0.01417
81.6 -0.01575
81.65 -0.01711
81.7 -0.01965
81.75 -0.02089
81.8 -0.02273
81.85 -0.01875
81.9 -0.0134
81.95 -0.00762
82 -0.00002
82.05 0.0073
82.1 0.01247
82.15 0.01911
82.2 0.0262
82.25 0.0308
82.3 0.03361
82.35 0.03349
82.4 0.02987
82.45 0.02298
82.5 0.01288
82.55 0.00184
82.6 -0.00198
82.65 -0.00209
82.7 -0.00244
82.75 -0.00391
82.8 -0.00179
82.85 -0.00122
82.9 0.00324
82.95 0.00122
83 0.00231
83.05 0.00693
83.1 0.01001
83.15 0.01182
83.2 0.00759
83.25 0.00289
83.3 -0.00524
83.35 -0.01268
83.4 -0.01976
83.45 -0.02509
83.5 -0.02992
83.55 -0.03196
83.6 -0.02847
83.65 -0.02717
83.7 -0.02858
83.75 -0.03027
83.8 -0.03143
83.85 -0.03146
83.9 -0.02928
83.95 -0.02355
84 -0.01626
84.05 -0.01201
84.1 -0.00678
84.15 -0.00557
84.2 -0.00523
84.25 -0.00851
84.3 -0.00551
84.35 -0.00576
84.4 -0.00394
84.45 -0.00006
84.5 0.00374
84.55 0.00716
84.6 0.00597
84.65 0.00472
84.7 0.00793
84.75 0.01246
84.8 0.01725
84.85 0.01732
84.9 0.01947
84.95 0.0223
85 0.02325
85.05 0.02324
85.1 0.02433
85.15 0.01901
85.2 0.01786
85.25 0.0204
85.3 0.01638
85.35 0.0116
85.4 0.00393
85.45 -0.00067
85.5 -0.00698
85.55 -0.01497
85.6 -0.02052
85.65 -0.02579
85.7 -0.02336
85.75 -0.02356
85.8 -0.02106
85.85 -0.01325
85.9 -0.01144
85.95 -0.01142
86 -0.01399
86.05 -0.01845
86.1 -0.02324
86.15 -0.02638
86.2 -0.02131
86.25 -0.01387
86.3 -0.00655
86.35 0.00087
86.4 0.00673
86.45 0.01188
86.5 0.01396
86.55 0.01709
86.6 0.01635
86.65 0.01825
86.7 0.01534
86.75 0.01224
86.8 0.00733
86.85 0.00266
86.9 -0.00474
86.95 -0.00599
87 -0.01027
87.05 -0.01032
87.1 -0.01365
87.15 -0.01332
87.2 -0.0147
87.25 -0.01668
87.3 -0.01631
87.35 -0.01904
87.4 -0.02262
87.45 -0.02473
87.5 -0.02603
87.55 -0.02356
87.6 -0.01701
87.65 -0.01069
87.7 -0.00752
87.75 -0.00064
87.8 0.0046
87.85 0.00676
87.9 0.00712
87.95 0.01029
88 0.01545
88.05 0.01856
88.1 0.02015
88.15 0.02313
88.2 0.02584
88.25 0.02137
88.3 0.01417
88.35 0.00428
88.4 0.00065
88.45 -0.00419
88.5 -0.00515
88.55 -0.00596
88.6 -0.00397
88.65 -0.00086
88.7 0.00431
88.75 0.00752
88.8 0.00489
88.85 0.00201
88.9 0.00446
88.95 0.00983
89 0.01416
89.05 0.01816
89.1 0.02295
89.15 0.02797
89.2 0.03001
89.25 0.0322
89.3 0.03183
89.35 0.03277
89.4 0.03387
89.45 0.03436
89.5 0.03288
89.55 0.02836
89.6 0.02307
89.65 0.019
89.7 0.01277
89.75 0.00946
89.8 0.00443
89.85 0.00524
89.9 0.00112
89.95 -0.00385
90 -0.00927
90.05 -0.01432
90.1 -0.01793
90.15 -0.01669
90.2 -0.01691
90.25 -0.018
90.3 -0.01658
90.35 -0.0147
90.4 -0.01174
90.45 -0.01046
90.5 -0.01063
90.55 -0.01174
90.6 -0.01607
90.65 -0.01361
90.7 -0.01516
90.75 -0.01353
90.8 -0.00714
90.85 -0.00512
90.9 -0.00784
90.95 -0.01122
91 -0.01239
91.05 -0.01202
91.1 -0.00681
91.15 -0.00045
91.2 0.00363
91.25 0.00291
91.3 0.00372
91.35 0.00384
91.4 0.00434
91.45 0.0087
91.5 0.00766
91.55 0.00492
91.6 0.00688
91.65 0.01013
91.7 0.01315
91.75 0.01224
91.8 0.0118
91.85 0.009
91.9 0.00608
91.95 0.00667
92 0.00601
92.05 0.00556
92.1 0.00706
92.15 0.00578
92.2 0.00755
92.25 0.01092
92.3 0.01638
92.35 0.01402
92.4 0.00892
92.45 0.00492
92.5 -0.00191
92.55 -0.00304
92.6 -0.00678
92.65 -0.01307
92.7 -0.01969
92.75 -0.02322
92.8 -0.02232
92.85 -0.0196
92.9 -0.01745
92.95 -0.01633
93 -0.01549
93.05 -0.01033
93.1 -0.00632
93.15 -0.00189
93.2 0.00484
93.25 0.01326
93.3 0.02147
93.35 0.02693
93.4 0.03225
93.45 0.03629
93.5 0.03998
93.55 0.03776
93.6 0.03672
93.65 0.02969
93.7 0.02447
93.75 0.02236
93.8 0.01596
93.85 0.01048
93.9 0.01036
93.95 0.00939
94 0.00776
94.05 0.0053
94.1 -0.00105
94.15 -0.00176
94.2 -0.00554
94.25 -0.00429
94.3 -0.0025
94.35 -0.00521
94.4 -0.00592
94.45 -0.0036
94.5 -0.00549
94.55 -0.00926
94.6 -0.01395
94.65 -0.01684
94.7 -0.01485
94.75 -0.00833
94.8 -0.00848
94.85 -0.01044
94.9 -0.00663
94.95 -0.00306
95 -0.00493
95.05 -0.0036
95.1 -0.00021
95.15 -0.00295
95.2 -0.00852
95.25 -0.01229
95.3 -0.0104
95.35 -0.0129
95.4 -0.00931
95.45 -0.00983
95.5 -0.00909
95.55 -0.00979
95.6 -0.00933
95.65 -0.00978
95.7 -0.00844
95.75 -0.00351
95.8 -0.00177
95.85 0.0003
95.9 0.00183
95.95 0.00412
96 0.00222
96.05 0.00162
96.1 0.00461
96.15 0.00275
96.2 0.00588
96.25 0.01111
96.3 0.01662
96.35 0.02023
96.4 0.01594
96.45 0.00989
96.5 0.00581
96.55 -0.0002
96.6 -0.00813
96.65 -0.01055
96.7 -0.00684
96.75 -0.00907
96.8 -0.01142
96.85 -0.0169
96.9 -0.0146
96.95 -0.01657
97 -0.01429
97.05 -0.00729
97.1 0.00158
97.15 0.00525
97.2 0.00885
97.25 0.01373
97.3 0.01411
97.35 0.01311
97.4 0.00721
97.45 0.0032
97.5 0.00185
97.55 -0.00363
97.6 -0.00321
97.65 -0.00332
97.7 -0.00598
97.75 -0.00775
97.8 -0.00532
97.85 -0.0011
97.9 0.00556
97.95 0.00745
98 0.01016
98.05 0.01122
98.1 0.0132
98.15 0.00927
98.2 0.00998
98.25 0.00841
98.3 0.00433
98.35 0.00508
98.4 0.0095
98.45 0.01582
98.5 0.01463
98.55 0.01665
98.6 0.01857
98.65 0.02148
98.7 0.0191
98.75 0.01404
98.8 0.01378
98.85 0.00792
98.9 0.00069
98.95 -0.00844
99 -0.01045
99.05 -0.01144
99.1 -0.01366
99.15 -0.01901
99.2 -0.02081
99.25 -0.01588
99.3 -0.01101
99.35 -0.00887
99.4 -0.00859
99.45 -0.00573
99.5 -0.0033
99.55 -0.0038
99.6 -0.00126
99.65 0.00333
99.7 0.00411
99.75 0.00774
99.8 0.00835
99.85 0.00939
99.9 0.00963
99.95 0.01137
