0 0
0.05 0.0082
0.1 0.01836
0.15 0.029
0.2 0.0388
0.25 0.05006
0.3 0.05975
0.35 0.06456
0.4 0.06239
0.45 0.05907
0.5 0.05281
0.55 0.05005
0.6 0.04852
0.65 0.04378
0.7 0.03829
0.75 0.03986
0.8 0.04567
0.85 0.0536
0.9 0.05585
0.95 0.05723
1 0.05371
1.05 0.04753
1.1 0.04728
1.15 0.04615
1.2 0.04554
1.25 0.04512
1.3 0.03997
1.35 0.03359
1.4 0.0268
1.45 0.02795
1.5 0.02794
1.55 0.02876
1.6 0.02847
1.65 0.02987
1.7 0.03472
1.75 0.03923
1.8 0.04404
1.85 0.04666
1.9 0.04398
1.95 0.04013
2 0.03358
2.05 0.02582
2.1 0.02224
2.15 0.01804
2.2 0.01364
2.25 0.01212
2.3 0.01601
2.35 0.01999
2.4 0.02006
2.45 0.02046
2.5 0.01867
2.55 0.02243
2.6 0.02454
2.65 0.02364
2.7 0.02163
2.75 0.0217
2.8 0.02575
2.85 0.02796
2.9 0.02702
2.95 0.02976
3 0.03527
3.05 0.03318
3.1 0.02665
3.15 0.02598
3.2 0.02131
3.25 0.02317
3.3 0.02365
3.35 0.01927
3.4 0.01841
3.45 0.01836
3.5 0.01406
3.55 0.01628
3.6 0.02051
3.65 0.01867
3.7 0.0144
3.75 0.00975
3.8 0.00795
3.85 0.01044
3.9 0.00918
3.95 0.01104
4 0.0159
4.05 0.01782
4.1 0.02118
4.15 0.01839
4.2 0.01466
4.25 0.01054
4.3 0.00644
4.35 0.00558
4.4 0.00507
4.45 0.00156
4.5 -0.00584
4.55 -0.01621
4.6 -0.02906
4.65 -0.04339
4.7 -0.06341
4.75 -0.08855
4.8 -0.11649
4.85 -0.14702
4.9 -0.18011
4.95 -0.21707
5 -0.25593
5.05 -0.29413
5.1 -0.33659
5.15 -0.38081
5.2 -0.43671
5.25 -0.4963
5.3 -0.56091
5.35 -0.63072
5.4 -0.70488
5.45 -0.78313
5.5 -0.87015
5.55 -0.95783
5.6 -1.04878
5.65 -1.13953
5.7 -1.22633
5.75 -1.31381
5.8 -1.39915
5.85 -1.47756
5.9 -1.55057
5.95 -1.61698
6 -1.6744
6.05 -1.72787
6.1 -1.7758
6.15 -1.81571
6.2 -1.84713
6.25 -1.86958
6.3 -1.88488
6.35 -1.89608
6.4 -1.89969
6.45 -1.89773
6.5 -1.88652
6.55 -1.86417
6.6 -1.83606
6.65 -1.80551
6.7 -1.7627
6.75 -1.70621
6.8 -1.64264
6.85 -1.57158
6.9 -1.48566
6.95 -1.38579
7 -1.27276
7.05 -1.15515
7.1 -1.03035
7.15 -0.89892
7.2 -0.75394
7.25 -0.60395
7.3 -0.44897
7.35 -0.28931
7.4 -0.1302
7.45 0.02777
7.5 0.18512
7.55 0.34344
7.6 0.49651
7.65 0.64333
7.7 0.78104
7.75 0.91256
7.8 1.03027
7.85 1.14144
7.9 1.24229
7.95 1.33227
8 1.41184
8.05 1.47752
8.1 1.53287
8.15 1.57444
8.2 1.61325
8.25 1.64764
8.3 1.67668
8.35 1.70018
8.4 1.71505
8.45 1.7228
8.5 1.72525
8.55 1.72023
8.6 1.71498
8.65 1.70307
8.7 1.68756
8.75 1.66975
8.8 1.6564
8.85 1.64168
8.9 1.62376
8.95 1.60529
9 1.58415
9.05 1.55961
9.1 1.53953
9.15 1.52188
9.2 1.4998
9.25 1.47642
9.3 1.44894
9.35 1.42014
9.4 1.39487
9.45 1.37405
9.5 1.35268
9.55 1.329
9.6 1.30084
9.65 1.27105
9.7 1.24359
9.75 1.21444
9.8 1.18553
9.85 1.15581
9.9 1.1279
9.95 1.10239
10 1.07247
10.05 1.04115
10.1 1.01189
10.15 0.98372
10.2 0.95456
10.25 0.92664
10.3 0.90011
10.35 0.8732
10.4 0.84835
10.45 0.81798
10.5 0.787
10.55 0.75509
10.6 0.71731
10.65 0.67878
10.7 0.64309
10.75 0.60764
10.8 0.57029
10.85 0.53849
10.9 0.50483
10.95 0.47526
11 0.44952
11.05 0.42632
11.1 0.40477
11.15 0.37854
11.2 0.3553
11.25 0.33289
11.3 0.3076
11.35 0.28192
11.4 0.25207
11.45 0.22487
11.5 0.19436
11.55 0.16616
11.6 0.13849
11.65 0.11546
11.7 0.09524
11.75 0.07471
11.8 0.05801
11.85 0.03729
11.9 0.01301
11.95 -0.01337
12 -0.03651
12.05 -0.05898
12.1 -0.07975
12.15 -0.10039
12.2 -0.12137
12.25 -0.13729
12.3 -0.15169
12.35 -0.16642
12.4 -0.17259
12.45 -0.17495
12.5 -0.18201
12.55 -0.1915
12.6 -0.19704
12.65 -0.20364
12.7 -0.21164
12.75 -0.22112
12.8 -0.23007
12.85 -0.24102
12.9 -0.25112
12.95 -0.25658
13 -0.26134
13.05 -0.26034
13.1 -0.26295
13.15 -0.26127
13.2 -0.26144
13.25 -0.26625
13.3 -0.26462
13.35 -0.2641
13.4 -0.26018
13.45 -0.2624
13.5 -0.26772
13.55 -0.27556
13.6 -0.28017
13.65 -0.28554
13.7 -0.29083
13.75 -0.2888
13.8 -0.28529
13.85 -0.28267
13.9 -0.27892
13.95 -0.27496
14 -0.26663
14.05 -0.25846
14.1 -0.25591
14.15 -0.25018
14.2 -0.24433
14.25 -0.23555
14.3 -0.23405
14.35 -0.23011
14.4 -0.22832
14.45 -0.22932
14.5 -0.22896
14.55 -0.22467
14.6 -0.21809
14.65 -0.20966
14.7 -0.20365
14.75 -0.19966
14.8 -0.19639
14.85 -0.19782
14.9 -0.19907
14.95 -0.19729
15 -0.19509
15.05 -0.1913
15.1 -0.19337
15.15 -0.19642
15.2 -0.20115
15.25 -0.19959
15.3 -0.19492
15.35 -0.19341
15.4 -0.19357
15.45 -0.19006
15.5 -0.18214
15.55 -0.17526
15.6 -0.16855
15.65 -0.16542
15.7 -0.1674
15.75 -0.16413
15.8 -0.15917
15.85 -0.15128
15.9 -0.14252
15.95 -0.13383
16 -0.12775
16.05 -0.12767
16.1 -0.12955
16.15 -0.13319
16.2 -0.13963
16.25 -0.14657
16.3 -0.15039
16.35 -0.15239
16.4 -0.14843
16.45 -0.14624
16.5 -0.14774
16.55 -0.15068
16.6 -0.15443
16.65 -0.15063
16.7 -0.14248
16.75 -0.13686
16.8 -0.13331
16.85 -0.13018
16.9 -0.12266
16.95 -0.11707
17 -0.11133
17.05 -0.10513
17.1 -0.10112
17.15 -0.10163
17.2 -0.10566
17.25 -0.10849
17.3 -0.10892
17.35 -0.10416
17.4 -0.10471
17.45 -0.10535
17.5 -0.10159
17.55 -0.09876
17.6 -0.09186
17.65 -0.08713
17.7 -0.08657
17.75 -0.08203
17.8 -0.07604
17.85 -0.06968
17.9 -0.06522
17.95 -0.06513
18 -0.06882
18.05 -0.07408
18.1 -0.07569
18.15 -0.08012
18.2 -0.08118
18.25 -0.08036
18.3 -0.07517
18.35 -0.07372
18.4 -0.07186
18.45 -0.07191
18.5 -0.0756
18.55 -0.07745
18.6 -0.081
18.65 -0.08173
18.7 -0.07774
18.75 -0.07082
18.8 -0.07009
18.85 -0.06818
18.9 -0.06634
18.95 -0.06851
19 -0.06656
19.05 -0.06438
19.1 -0.06149
19.15 -0.06126
19.2 -0.0627
19.25 -0.06404
19.3 -0.0659
19.35 -0.06611
19.4 -0.06522
19.45 -0.05882
19.5 -0.05336
19.55 -0.05215
19.6 -0.05263
19.65 -0.04869
19.7 -0.04478
19.75 -0.04384
19.8 -0.0428
19.85 -0.04382
19.9 -0.04286
19.95 -0.04053
20 -0.03459
20.05 -0.0284
20.1 -0.0238
20.15 -0.02056
20.2 -0.02152
20.25 -0.02664
20.3 -0.03143
20.35 -0.03157
20.4 -0.02947
20.45 -0.03288
20.5 -0.03988
20.55 -0.0454
20.6 -0.05158
20.65 -0.04991
20.7 -0.0459
20.75 -0.04447
20.8 -0.04593
20.85 -0.04245
20.9 -0.0371
20.95 -0.03601
21 -0.03178
21.05 -0.02517
21.1 -0.01884
21.15 -0.01138
21.2 -0.01171
21.25 -0.01274
21.3 -0.01645
21.35 -0.02174
21.4 -0.02921
21.45 -0.03753
21.5 -0.03999
21.55 -0.04371
21.6 -0.041
21.65 -0.03501
21.7 -0.02981
21.75 -0.02165
21.8 -0.01873
21.85 -0.01658
21.9 -0.01833
21.95 -0.01937
22 -0.01708
22.05 -0.01798
22.1 -0.01563
22.15 -0.01236
22.2 -0.0107
22.25 -0.00896
22.3 -0.00953
22.35 -0.00756
22.4 -0.01155
22.45 -0.01624
22.5 -0.0187
22.55 -0.02263
22.6 -0.02933
22.65 -0.03175
22.7 -0.03667
22.75 -0.03852
22.8 -0.03943
22.85 -0.03727
22.9 -0.03167
22.95 -0.02427
23 -0.01798
23.05 -0.01364
23.1 -0.00711
23.15 -0.00342
23.2 -0.00637
23.25 -0.0069
23.3 -0.00595
23.35 -0.00212
23.4 0.00325
23.45 0.00534
23.5 0.00859
23.55 0.00762
23.6 0.00755
23.65 0.00623
23.7 0.00553
23.75 0.00617
23.8 0.00779
23.85 0.00812
23.9 0.00619
23.95 0.00364
24 -0.00246
24.05 -0.00365
24.1 -0.00976
24.15 -0.01386
24.2 -0.01538
24.25 -0.01562
24.3 -0.01593
24.35 -0.01558
24.4 -0.01094
24.45 -0.00761
24.5 -0.00662
24.55 -0.00375
24.6 -0.00696
24.65 -0.00682
24.7 -0.00871
24.75 -0.01432
24.8 -0.022
24.85 -0.03076
24.9 -0.038
24.95 -0.04289
25 -0.03885
25.05 -0.03695
25.1 -0.03039
25.15 -0.02207
25.2 -0.01702
25.25 -0.01633
25.3 -0.01859
25.35 -0.02043
25.4 -0.01727
25.45 -0.01526
25.5 -0.01449
25.55 -0.0179
25.6 -0.02009
25.65 -0.02105
25.7 -0.02505
25.75 -0.02429
25.8 -0.01783
25.85 -0.00978
25.9 -0.0081
25.95 -0.01065
26 -0.00715
26.05 -0.0088
26.1 -0.00755
26.15 -0.01071
26.2 -0.01089
26.25 -0.01418
26.3 -0.01502
26.35 -0.01847
26.4 -0.01599
26.45 -0.0157
26.5 -0.01733
26.55 -0.0178
26.6 -0.01336
26.65 -0.00756
26.7 -0.00526
26.75 -0.00124
26.8 -0.00184
26.85 -0.00047
26.9 0.00055
26.95 0.00207
27 0.00152
27.05 -0.00175
27.1 -0.0036
27.15 -0.00789
27.2 -0.01042
27.25 -0.0117
27.3 -0.0163
27.35 -0.01741
27.4 -0.01312
27.45 -0.01309
27.5 -0.01236
27.55 -0.00976
27.6 -0.00658
27.65 -0.00357
27.7 -0.00218
27.75 -0.00172
27.8 0.00243
27.85 0.00122
27.9 -0.00506
27.95 -0.0084
28 -0.00949
28.05 -0.01251
28.1 -0.01276
28.15 -0.01182
28.2 -0.01779
28.25 -0.02669
28.3 -0.03238
28.35 -0.04081
28.4 -0.05291
28.45 -0.06241
28.5 -0.07351
28.55 -0.08571
28.6 -0.10056
28.65 -0.11794
28.7 -0.13456
28.75 -0.14961
28.8 -0.16353
28.85 -0.17457
28.9 -0.19259
28.95 -0.21091
29 -0.23204
29.05 -0.25571
29.1 -0.28078
29.15 -0.31424
29.2 -0.35053
29.25 -0.38573
29.3 -0.42716
29.35 -0.46986
29.4 -0.50709
29.45 -0.54716
29.5 -0.58906
29.55 -0.62678
29.6 -0.66642
29.65 -0.7067
29.7 -0.74405
29.75 -0.77571
29.8 -0.80329
29.85 -0.82401
29.9 -0.84348
29.95 -0.85908
30 -0.87161
30.05 -0.87263
30.1 -0.87001
30.15 -0.86379
30.2 -0.85421
30.25 -0.83824
30.3 -0.81178
30.35 -0.77357
30.4 -0.73397
30.45 -0.68955
30.5 -0.63889
30.55 -0.58624
30.6 -0.52663
30.65 -0.4638
30.7 -0.39577
30.75 -0.32693
30.8 -0.25516
30.85 -0.18487
30.9 -0.11971
30.95 -0.05215
31 0.01244
31.05 0.07748
31.1 0.13561
31.15 0.18852
31.2 0.23979
31.25 0.29091
31.3 0.33638
31.35 0.37657
31.4 0.41155
31.45 0.44697
31.5 0.47858
31.55 0.50922
31.6 0.53071
31.65 0.54942
31.7 0.56021
31.75 0.56657
31.8 0.57022
31.85 0.57193
31.9 0.57538
31.95 0.58304
32 0.59281
32.05 0.59986
32.1 0.61002
32.15 0.62167
32.2 0.63447
32.25 0.64047
32.3 0.64805
32.35 0.6566
32.4 0.66012
32.45 0.66204
32.5 0.66537
32.55 0.66587
32.6 0.66211
32.65 0.65943
32.7 0.65749
32.75 0.653
32.8 0.65166
32.85 0.64965
32.9 0.64549
32.95 0.63772
33 0.62935
33.05 0.62046
33.1 0.61066
33.15 0.60099
33.2 0.592
33.25 0.58151
33.3 0.56557
33.35 0.55129
33.4 0.54101
33.45 0.53293
33.5 0.52113
33.55 0.5051
33.6 0.49314
33.65 0.47974
33.7 0.46759
33.75 0.44911
33.8 0.42885
33.85 0.40882
33.9 0.38545
33.95 0.36867
34 0.34864
34.05 0.32779
34.1 0.30689
34.15 0.2903
34.2 0.27397
34.25 0.25814
34.3 0.24188
34.35 0.2226
34.4 0.20925
34.45 0.19371
34.5 0.18089
34.55 0.17361
34.6 0.16875
34.65 0.1577
34.7 0.14313
34.75 0.12861
34.8 0.11611
34.85 0.10861
34.9 0.09942
34.95 0.0863
35 0.07544
35.05 0.06077
35.1 0.05113
35.15 0.03761
35.2 0.02942
35.25 0.02365
35.3 0.02138
35.35 0.01455
35.4 0.00734
35.45 0.00349
35.5 -0.00298
35.55 -0.01445
35.6 -0.02645
35.65 -0.03818
35.7 -0.05191
35.75 -0.06641
35.8 -0.07468
35.85 -0.0821
35.9 -0.08506
35.95 -0.08215
36 -0.07967
36.05 -0.07866
36.1 -0.07936
36.15 -0.08017
36.2 -0.07818
36.25 -0.07604
36.3 -0.08054
36.35 -0.08123
36.4 -0.08183
36.45 -0.07949
36.5 -0.07796
36.55 -0.08041
36.6 -0.08874
36.65 -0.092
36.7 -0.09764
36.75 -0.10581
36.8 -0.10937
36.85 -0.1091
36.9 -0.11106
36.95 -0.10887
37 -0.10502
37.05 -0.10689
37.1 -0.10967
37.15 -0.10858
37.2 -0.1036
37.25 -0.10044
37.3 -0.09819
37.35 -0.09529
37.4 -0.09554
37.45 -0.09386
37.5 -0.09241
37.55 -0.08899
37.6 -0.09024
37.65 -0.08841
37.7 -0.08749
37.75 -0.09296
37.8 -0.09591
37.85 -0.09559
37.9 -0.09292
37.95 -0.09564
38 -0.10108
38.05 -0.10121
38.1 -0.09719
38.15 -0.0908
38.2 -0.09026
38.25 -0.08781
38.3 -0.08572
38.35 -0.08237
38.4 -0.08075
38.45 -0.0796
38.5 -0.08293
38.55 -0.08309
38.6 -0.08662
38.65 -0.09244
38.7 -0.09339
38.75 -0.09453
38.8 -0.09414
38.85 -0.08794
38.9 -0.08645
38.95 -0.08246
39 -0.07733
39.05 -0.07633
39.1 -0.07933
39.15 -0.0786
39.2 -0.08047
39.25 -0.07932
39.3 -0.07984
39.35 -0.07853
39.4 -0.07921
39.45 -0.07451
39.5 -0.06874
39.55 -0.0634
39.6 -0.0612
39.65 -0.0591
39.7 -0.05369
39.75 -0.04759
39.8 -0.04179
39.85 -0.03949
39.9 -0.03708
39.95 -0.03305
40 -0.03658
40.05 -0.0395
40.1 -0.0383
40.15 -0.03821
40.2 -0.0396
40.25 -0.04523
40.3 -0.04692
40.35 -0.04886
40.4 -0.04676
40.45 -0.04923
40.5 -0.05101
40.55 -0.0546
40.6 -0.05351
40.65 -0.05636
40.7 -0.05295
40.75 -0.04985
40.8 -0.04518
40.85 -0.04383
40.9 -0.03943
40.95 -0.03294
41 -0.02576
41.05 -0.01804
41.1 -0.01952
41.15 -0.01918
41.2 -0.02067
41.25 -0.02156
41.3 -0.01929
41.35 -0.0236
41.4 -0.02929
41.45 -0.03329
41.5 -0.04034
41.55 -0.04302
41.6 -0.04408
41.65 -0.04228
41.7 -0.04182
41.75 -0.04232
41.8 -0.04581
41.85 -0.0432
41.9 -0.04364
41.95 -0.04666
42 -0.04327
42.05 -0.04447
42.1 -0.04089
42.15 -0.03523
42.2 -0.0287
42.25 -0.02035
42.3 -0.01639
42.35 -0.01328
42.4 -0.01039
42.45 -0.0114
42.5 -0.01061
42.55 -0.01306
42.6 -0.01464
42.65 -0.02061
42.7 -0.02355
42.75 -0.02991
42.8 -0.03404
42.85 -0.03385
42.9 -0.03144
42.95 -0.02783
43 -0.02927
43.05 -0.03164
43.1 -0.0321
43.15 -0.03033
43.2 -0.03228
43.25 -0.03448
43.3 -0.0347
43.35 -0.03623
43.4 -0.04056
43.45 -0.04121
43.5 -0.04241
43.55 -0.04138
43.6 -0.03522
43.65 -0.02679
43.7 -0.02485
43.75 -0.02444
43.8 -0.02293
43.85 -0.0191
43.9 -0.01369
43.95 -0.0064
44 -0.00179
44.05 0.00239
44.1 0.00163
44.15 -0.00413
44.2 -0.00596
44.25 -0.01229
44.3 -0.01408
44.35 -0.01724
44.4 -0.01485
44.45 -0.01357
44.5 -0.01659
44.55 -0.01746
44.6 -0.01376
44.65 -0.00754
44.7 -0.0038
44.75 -0.00556
44.8 -0.01098
44.85 -0.01224
44.9 -0.01273
44.95 -0.01272
45 -0.01486
45.05 -0.01651
45.1 -0.02088
45.15 -0.02674
45.2 -0.03291
45.25 -0.03724
45.3 -0.03383
45.35 -0.02752
45.4 -0.02499
45.45 -0.01864
45.5 -0.01181
45.55 -0.01076
45.6 -0.01477
45.65 -0.02086
45.7 -0.02197
45.75 -0.02457
45.8 -0.02673
45.85 -0.02212
45.9 -0.02169
45.95 -0.02458
46 -0.0294
46.05 -0.03318
46.1 -0.03152
46.15 -0.02521
46.2 -0.02343
46.25 -0.02334
46.3 -0.01967
46.35 -0.01814
46.4 -0.01961
46.45 -0.01556
46.5 -0.01189
46.55 -0.01206
46.6 -0.00964
46.65 -0.00565
46.7 0.00082
46.75 0.00365
46.8 0.00256
46.85 0.00403
46.9 0.00707
46.95 0.00482
47 -0.00058
47.05 -0.0005
47.1 0.0028
47.15 0.00867
47.2 0.01409
47.25 0.01769
47.3 0.02046
47.35 0.0179
47.4 0.01712
47.45 0.01233
47.5 0.00553
47.55 -0.00099
47.6 -0.00323
47.65 -0.00667
47.7 -0.00918
47.75 -0.00985
47.8 -0.01192
47.85 -0.01744
47.9 -0.02296
47.95 -0.02691
48 -0.02771
48.05 -0.02182
48.1 -0.01746
48.15 -0.01726
48.2 -0.01471
48.25 -0.01189
48.3 -0.01096
48.35 -0.01006
48.4 -0.00893
48.45 -0.00667
48.5 -0.00493
48.55 -0.00692
48.6 -0.01097
48.65 -0.0139
48.7 -0.01339
48.75 -0.00797
48.8 -0.00817
48.85 -0.01008
48.9 -0.01063
48.95 -0.00644
49 -0.00635
49.05 -0.00447
49.1 -0.00552
49.15 -0.0077
49.2 -0.01289
49.25 -0.01073
49.3 -0.00793
49.35 -0.00324
49.4 0.00453
49.45 0.00764
49.5 0.01231
49.55 0.01239
49.6 0.00743
49.65 0.0062
49.7 0.00452
49.75 0.00123
49.8 -0.00348
49.85 -0.01023
49.9 -0.01702
49.95 -0.01589
50 -0.01782
50.05 -0.02014
50.1 -0.02024
50.15 -0.01627
50.2 -0.01609
50.25 -0.01012
50.3 -0.00826
50.35 -0.00371
50.4 -0.00046
50.45 0.00196
50.5 -0.00087
50.55 0.00166
50.6 0.0026
50.65 0.00541
50.7 0.00531
50.75 0.0044
50.8 0.00779
50.85 0.00809
50.9 0.00339
50.95 0.00311
51 -0.00171
51.05 -0.0042
51.1 -0.0079
51.15 -0.01172
51.2 -0.0145
51.25 -0.01964
51.3 -0.01858
51.35 -0.01378
51.4 -0.00646
51.45 -0.00096
51.5 0.00309
51.55 0.00377
51.6 0.00122
51.65 -0.00428
51.7 -0.01095
51.75 -0.01103
51.8 -0.01224
51.85 -0.0096
51.9 -0.00422
51.95 0.00356
52 0.00394
52.05 0.00212
52.1 0.00463
52.15 0.00405
52.2 0.00437
52.25 0.00519
52.3 0.00358
52.35 0.00563
52.4 0.00234
52.45 0.00435
52.5 0.00873
52.55 0.0132
52.6 0.01503
52.65 0.01839
52.7 0.01618
52.75 0.00911
52.8 0.00338
52.85 0.00296
52.9 -0.0019
52.95 -0.00238
53 -0.00296
53.05 -0.0055
53.1 -0.00358
53.15 -0.00265
53.2 0.00263
53.25 0.00555
53.3 0.00638
53.35 0.00888
53.4 0.01205
53.45 0.01546
53.5 0.01387
53.55 0.00935
53.6 0.00749
53.65 0.00713
53.7 0.00382
53.75 0.00447
53.8 -0.00018
53.85 -0.00274
53.9 -0.00352
53.95 -0.00838
54 -0.0148
54.05 -0.01385
54.1 -0.01652
54.15 -0.01876
54.2 -0.01645
54.25 -0.00997
54.3 -0.00755
54.35 -0.00189
54.4 0.00445
54.45 0.01246
54.5 0.01835
54.55 0.02083
54.6 0.02451
54.65 0.02391
54.7 0.02124
54.75 0.01439
54.8 0.01104
54.85 0.01031
54.9 0.01313
54.95 0.01195
55 0.00732
55.05 0.00812
55.1 0.01051
55.15 0.0091
55.2 0.00918
55.25 0.00828
55.3 0.00982
55.35 0.01067
55.4 0.01411
55.45 0.01511
55.5 0.01835
55.55 0.01762
55.6 0.01921
55.65 0.01455
55.7 0.00821
55.75 0.00329
55.8 0.0012
55.85 0.0035
55.9 0.00722
55.95 0.00419
56 0.00364
56.05 0.00162
56.1 -0.00307
56.15 -0.01036
56.2 -0.01146
56.25 -0.00916
56.3 -0.00888
56.35 -0.00963
56.4 -0.00782
56.45 -0.00372
56.5 0.00135
56.55 0.00671
56.6 0.01234
56.65 0.01243
56.7 0.00713
56.75 0.00169
56.8 0.0013
56.85 -0.00162
56.9 -0.0016
56.95 -0.00399
57 -0.00843
57.05 -0.01235
57.1 -0.01512
57.15 -0.01196
57.2 -0.00735
57.25 -0.00808
57.3 -0.00544
57.35 -0.00348
57.4 -0.00201
57.45 0.00167
57.5 -0.00036
57.55 0.00105
57.6 0.00323
57.65 0.0012
57.7 0.00053
57.75 -0.00362
57.8 -0.01067
57.85 -0.01359
57.9 -0.0187
57.95 -0.02324
58 -0.02347
58.05 -0.02113
58.1 -0.02288
58.15 -0.02386
58.2 -0.0227
58.25 -0.01691
58.3 -0.01208
58.35 -0.01085
58.4 -0.01201
58.45 -0.0076
58.5 -0.00267
58.55 0.00401
58.6 0.00612
58.65 0.00585
58.7 0.00249
58.75 0.00332
58.8 0.00223
58.85 -0.00019
58.9 -0.00657
58.95 -0.01032
59 -0.01209
59.05 -0.01032
59.1 -0.00585
59.15 -0.00191
59.2 -0.00199
59.25 0.0017
59.3 0.00286
59.35 0.00546
59.4 0.00444
59.45 -0.00029
59.5 0.00036
59.55 0.00198
59.6 0.00641
59.65 0.00656
59.7 0.00476
59.75 0.00515
59.8 0.00237
59.85 0.00237
59.9 0.00298
59.95 0.0047
60 0.00742
60.05 0.00638
60.1 0.00399
60.15 0.00314
60.2 0.00423
60.25 0.00444
60.3 0.00234
60.35 0.00415
60.4 0.00169
60.45 0.004
60.5 0.00113
60.55 0.00297
60.6 0.00704
60.65 0.00859
60.7 0.00672
60.75 0.00221
60.8 0
60.85 -0.00323
60.9 -0.00521
60.95 -0.0066
61 -0.01158
61.05 -0.01056
61.1 -0.00873
61.15 -0.00263
61.2 0.00532
61.25 0.00809
61.3 0.00545
61.35 -0.00072
61.4 -0.00011
61.45 0.00164
61.5 -0.00184
61.55 -0.00018
61.6 0.00207
61.65 0.00176
61.7 -0.00004
61.75 -0.00314
61.8 -0.00746
61.85 -0.01297
61.9 -0.01234
61.95 -0.01082
62 -0.00681
62.05 -0.00586
62.1 -0.00552
62.15 -0.00797
62.2 -0.00965
62.25 -0.014
62.3 -0.01798
62.35 -0.01489
62.4 -0.01093
62.45 -0.00332
62.5 0.00338
62.55 0.00779
62.6 0.01196
62.65 0.01425
62.7 0.01498
62.75 0.00967
62.8 0.00655
62.85 0.0074
62.9 0.00392
62.95 -0.00149
63 -0.00467
63.05 -0.00867
63.1 -0.0101
63.15 -0.00972
63.2 -0.00689
63.25 -0.00707
63.3 -0.00418
63.35 -0.00099
63.4 0.00551
63.45 0.01255
63.5 0.01121
63.55 0.01169
63.6 0.00797
63.65 0.00214
63.7 -0.00406
63.75 -0.01009
63.8 -0.01779
63.85 -0.02318
63.9 -0.02908
63.95 -0.02585
64 -0.02357
64.05 -0.02473
64.1 -0.02782
64.15 -0.02425
64.2 -0.02384
64.25 -0.02434
64.3 -0.02105
64.35 -0.01838
64.4 -0.01806
64.45 -0.01624
64.5 -0.01501
64.55 -0.01014
64.6 -0.00446
64.65 -0.00264
64.7 -0.0042
64.75 -0.00618
64.8 -0.00407
64.85 -0.00623
64.9 -0.0058
64.95 -0.00158
65 -0.00119
65.05 0.00239
65.1 0.00243
65.15 0.00496
65.2 0.00713
65.25 0.00616
65.3 0.00799
65.35 0.0109
65.4 0.01009
65.45 0.01095
65.5 0.01325
65.55 0.01804
65.6 0.02042
65.65 0.01859
65.7 0.01941
65.75 0.01432
65.8 0.01277
65.85 0.00734
65.9 0.00342
65.95 0.0018
66 -0.00269
66.05 -0.00896
66.1 -0.01476
66.15 -0.02111
66.2 -0.02134
66.25 -0.02359
66.3 -0.01982
66.35 -0.01289
66.4 -0.00493
66.45 -0.00191
66.5 -0.00233
66.55 0.0011
66.6 0.00579
66.65 0.01088
66.7 0.01349
66.75 0.01055
66.8 0.00837
66.85 0.00482
66.9 0.0008
66.95 -0.00571
67 -0.00552
67.05 -0.00119
67.1 0.0008
67.15 -0.00126
67.2 -0.00339
67.25 0.00019
67.3 0.0046
67.35 0.0076
67.4 0.0081
67.45 0.0107
67.5 0.0138
67.55 0.01362
67.6 0.01492
67.65 0.01158
67.7 0.01191
67.75 0.01498
67.8 0.01268
67.85 0.01309
67.9 0.00903
67.95 0.00479
68 0.00292
68.05 0.00512
68.1 0.01017
68.15 0.01071
68.2 0.00936
68.25 0.00486
68.3 0.00497
68.35 0.00127
68.4 -0.00331
68.45 -0.00806
68.5 -0.00592
68.55 -0.00732
68.6 -0.00556
68.65 -0.00061
68.7 -0.00015
68.75 -0.00212
68.8 -0.00214
68.85 -0.00068
68.9 0.00216
68.95 0.00764
69 0.00999
69.05 0.00952
69.1 0.00454
69.15 -0.00261
69.2 -0.00726
69.25 -0.01304
69.3 -0.01124
69.35 -0.0077
69.4 -0.00202
69.45 -0.00148
69.5 -0.00094
69.55 0.00278
69.6 0.00889
69.65 0.01436
69.7 0.01234
69.75 0.00639
69.8 0.00516
69.85 0.00679
69.9 0.00589
69.95 0.00502
70 0.00584
70.05 0.00327
70.1 -0.00163
70.15 -0.00907
70.2 -0.01243
70.25 -0.00989
70.3 -0.008
70.35 -0.00771
70.4 -0.01133
70.45 -0.00971
70.5 -0.01191
70.55 -0.01492
70.6 -0.01188
70.65 -0.00503
70.7 0.0042
70.75 0.00887
70.8 0.0133
70.85 0.01088
70.9 0.0066
70.95 0.00582
71 0.00602
71.05 0.00922
71.1 0.00766
71.15 0.0063
71.2 0.00231
71.25 -0.00488
71.3 -0.00446
71.35 -0.00782
71.4 -0.01018
71.45 -0.0155
71.5 -0.02086
71.55 -0.02627
71.6 -0.02432
71.65 -0.01868
71.7 -0.00959
71.75 0.00089
71.8 0.01155
71.85 0.01606
71.9 0.01459
71.95 0.01597
72 0.01589
72.05 0.01444
72.1 0.00799
72.15 0.00124
72.2 -0.00138
72.25 -0.00315
72.3 -0.00793
72.35 -0.01115
72.4 -0.01614
72.45 -0.01679
72.5 -0.01768
72.55 -0.01876
72.6 -0.01701
72.65 -0.01619
72.7 -0.01773
72.75 -0.01803
72.8 -0.02023
72.85 -0.0177
72.9 -0.01212
72.95 -0.00362
73 0.0039
73.05 0.01275
73.1 0.02025
73.15 0.019
73.2 0.01707
73.25 0.01347
73.3 0.01262
73.35 0.01029
73.4 0.00377
73.45 -0.00513
73.5 -0.01019
73.55 -0.01486
73.6 -0.01518
73.65 -0.0186
73.7 -0.01599
73.75 -0.01532
73.8 -0.01089
73.85 -0.0042
73.9 0.00048
73.95 0.00469
74 0.00653
74.05 0.00489
74.1 0.00741
74.15 0.01154
74.2 0.00972
74.25 0.00535
74.3 0.00183
74.35 0.00399
74.4 0.00236
74.45 -0.00308
74.5 -0.00532
74.55 -0.0078
74.6 -0.00646
74.65 -0.00394
74.7 0.00158
74.75 0.00155
74.8 0.00048
74.85 0.00048
74.9 0.00119
74.95 -0.00169
75 -0.00491
75.05 -0.00675
75.1 -0.00281
75.15 -0.00058
75.2 -0.00188
75.25 -0.0052
75.3 -0.00219
75.35 -0.00148
75.4 -0.00423
75.45 -0.00098
75.5 0.00386
75.55 0.00976
75.6 0.01372
75.65 0.0159
75.7 0.01841
75.75 0.01984
75.8 0.01616
75.85 0.01693
75.9 0.01822
75.95 0.01867
76 0.01831
76.05 0.01422
76.1 0.00574
76.15 0.00143
76.2 -0.00571
76.25 -0.01239
76.3 -0.0125
76.35 -0.01177
76.4 -0.00648
76.45 -0.00192
76.5 -0.00253
76.55 -0.0036
76.6 -0.00092
76.65 0.00393
76.7 0.00362
76.75 0.00678
76.8 0.00736
76.85 0.00935
76.9 0.01417
76.95 0.01204
77 0.00728
77.05 0.00401
77.1 0.00173
77.15 -0.00132
77.2 -0.00685
77.25 -0.01318
77.3 -0.01584
77.35 -0.02027
77.4 -0.0219
77.45 -0.0191
77.5 -0.019
77.55 -0.02033
77.6 -0.02005
77.65 -0.01689
77.7 -0.00956
77.75 -0.0045
77.8 -0.0004
77.85 0.00671
77.9 0.00717
77.95 0.00501
78 0.00758
78.05 0.01268
78.1 0.01177
78.15 0.00765
78.2 0.00136
78.25 -0.00015
78.3 0.00172
78.35 0.00492
78.4 0.00273
78.45 0.00383
78.5 0.0087
78.55 0.01132
78.6 0.01426
78.65 0.01736
78.7 0.01408
78.75 0.01156
78.8 0.00734
78.85 0.00237
78.9 0.00019
78.95 -0.00439
79 -0.00471
79.05 -0.00798
79.1 -0.01336
79.15 -0.0142
79.2 -0.01097
79.25 -0.00644
79.3 -0.00764
79.35 -0.00895
79.4 -0.00681
79.45 -0.00229
79.5 0.00065
79.55 -0.0022
79.6 -0.00491
79.65 -0.0026
79.7 0.00086
79.75 0.00403
79.8 0.00658
79.85 0.00932
79.9 0.0112
79.95 0.00789
80 0.00136
80.05 0.0002
80.1 0.00396
80.15 0.00903
80.2 0.0086
80.25 0.00357
80.3 0.0007
80.35 -0.00025
80.4 0.00043
80.45 0.00061
80.5 0.00517
80.55 0.00793
80.6 0.01154
80.65 0.01019
80.7 0.01181
80.75 0.0101
80.8 0.01018
80.85 0.0106
80.9 0.01105
80.95 0.01048
81 0.00776
81.05 0.00596
81.1 0.00511
81.15 0.00523
81.2 0.00021
81.25 -0.00537
81.3 -0.00993
81.35 -0.01623
81.4 -0.02129
81.45 -0.02628
81.5 -0.0229
81.55 -0.02343
81.6 -0.02555
81.65 -0.02151
81.7 -0.02127
81.75 -0.02319
81.8 -0.0231
81.85 -0.01644
81.9 -0.00683
81.95 -0.00238
82 -0.00328
82.05 -0.00415
82.1 -0.00689
82.15 -0.00766
82.2 -0.01126
82.25 -0.0139
82.3 -0.01122
82.35 -0.01304
82.4 -0.01019
82.45 -0.00904
82.5 -0.00713
82.55 -0.00213
82.6 -0.00224
82.65 -0.00019
82.7 0.00526
82.75 0.00753
82.8 0.01175
82.85 0.01425
82.9 0.01364
82.95 0.01124
83 0.01262
83.05 0.014
83.1 0.01414
83.15 0.0086
83.2 0.00549
83.25 0.00454
83.3 -0.00117
83.35 -0.00492
83.4 -0.00426
83.45 -0.00816
83.5 -0.00933
83.55 -0.01062
83.6 -0.01416
83.65 -0.01883
83.7 -0.02428
83.75 -0.02466
83.8 -0.02482
83.85 -0.02154
83.9 -0.01665
83.95 -0.01074
84 -0.006
84.05 0.00213
84.1 0.00396
84.15 0.00683
84.2 0.00978
84.25 0.00999
84.3 0.01165
84.35 0.01251
84.4 0.01042
84.45 0.00532
84.5 0.00066
84.55 -0.0011
84.6 -0.00141
84.65 -0.00037
84.7 -0.00377
84.75 -0.00501
84.8 -0.00887
84.85 -0.01027
84.9 -0.01472
84.95 -0.01668
85 -0.01369
85.05 -0.00613
85.1 -0.005
85.15 -0.00713
85.2 -0.00585
85.25 -0.00404
85.3 0.0015
85.35 0.00929
85.4 0.01277
85.45 0.01393
85.5 0.01463
85.55 0.01844
85.6 0.01667
85.65 0.01495
85.7 0.00851
85.75 -0.0003
85.8 -0.00202
85.85 0.00127
85.9 0.0039
85.95 0.00563
86 0.00322
86.05 0.00621
86.1 0.01002
86.15 0.00999
86.2 0.01177
86.25 0.01151
86.3 0.01127
86.35 0.008
86.4 0.0069
86.45 0.00122
86.5 0.00154
86.55 0.00069
86.6 -0.0038
86.65 -0.00613
86.7 -0.00241
86.75 -0.00448
86.8 -0.00504
86.85 -0.0008
86.9 0.00428
86.95 0.00624
87 0.0095
87.05 0.01122
87.1 0.01523
87.15 0.01886
87.2 0.01795
87.25 0.01462
87.3 0.01239
87.35 0.01011
87.4 0.00767
87.45 0.00654
87.5 0.00745
87.55 0.00468
87.6 0.00036
87.65 -0.00503
87.7 -0.01172
87.75 -0.01844
87.8 -0.01808
87.85 -0.01893
87.9 -0.01376
87.95 -0.00663
88 -0.0007
88.05 0.00099
88.1 0.00109
88.15 0.00116
88.2 0.00206
88.25 -0.00234
88.3 -0.00571
88.35 -0.00669
88.4 -0.00457
88.45 -0.00494
88.5 -0.00671
88.55 -0.00626
88.6 -0.00239
88.65 0.0022
88.7 0.00234
88.75 0.00647
88.8 0.00968
88.85 0.012
88.9 0.00771
88.95 0.00736
89 0.00828
89.05 0.00586
89.1 0.00176
89.15 0.00091
89.2 0.0038
89.25 0.00515
89.3 0.00205
89.35 0.0002
89.4 -0.00189
89.45 -0.00531
89.5 -0.00903
89.55 -0.01013
89.6 -0.01026
89.65 -0.01284
89.7 -0.01242
89.75 -0.0087
89.8 -0.00212
89.85 0.00071
89.9 -0.00126
89.95 0.00042
90 0.00132
90.05 0.00521
90.1 0.00592
90.15 0.00424
90.2 0.0019
90.25 -0.00034
90.3 -0.00473
90.35 -0.0093
90.4 -0.00867
90.45 -0.00741
90.5 -0.0083
90.55 -0.0081
90.6 -0.00963
90.65 -0.00714
90.7 -0.00067
90.75 0.00811
90.8 0.01698
90.85 0.01663
90.9 0.01428
90.95 0.01416
91 0.01162
91.05 0.0053
91.1 -0.00277
91.15 -0.01222
91.2 -0.0183
91.25 -0.01602
91.3 -0.00944
91.35 -0.00678
91.4 -0.00254
91.45 -0.00025
91.5 0.00008
91.55 0.00054
91.6 -0.00206
91.65 -0.00547
91.7 -0.00743
91.75 -0.01127
91.8 -0.01582
91.85 -0.01802
91.9 -0.01416
91.95 -0.01516
92 -0.01539
92.05 -0.01406
92.1 -0.00849
92.15 -0.00017
92.2 0.00789
92.25 0.00896
92.3 0.01002
92.35 0.00679
92.4 0.00725
92.45 0.00536
92.5 0.0073
92.55 0.00524
92.6 0.00682
92.65 0.00981
92.7 0.00952
92.75 0.00435
92.8 -0.00031
92.85 -0.00355
92.9 -0.00984
92.95 -0.00943
93 -0.01179
93.05 -0.01114
93.1 -0.01397
93.15 -0.01731
93.2 -0.01542
93.25 -0.01121
93.3 -0.00512
93.35 -0.00209
93.4 -0.00149
93.45 -0.00199
93.5 -0.00019
93.55 -0.00333
93.6 -0.00067
93.65 0.00375
93.7 0.00506
93.75 0.00444
93.8 0.00122
93.85 -0.00098
93.9 0.00099
93.95 0.0049
94 0.00542
94.05 0.00964
94.1 0.00807
94.15 0.00941
94.2 0.01035
94.25 0.00703
94.3 0.00698
94.35 0.0076
94.4 0.00522
94.45 0.00506
94.5 0.00277
94.55 0.00577
94.6 0.00702
94.65 0.00676
94.7 0.00767
94.75 0.01091
94.8 0.00826
94.85 0.00109
94.9 -0.00774
94.95 -0.01732
95 -0.02133
95.05 -0.02555
95.1 -0.02856
95.15 -0.0314
95.2 -0.03281
95.25 -0.02665
95.3 -0.02196
95.35 -0.01573
95.4 -0.00873
95.45 -0.00266
95.5 0.00412
95.55 0.00735
95.6 0.01145
95.65 0.01371
95.7 0.01288
95.75 0.01517
95.8 0.01586
95.85 0.01892
95.9 0.02135
95.95 0.02331
96 0.02298
96.05 0.0217
96.1 0.01777
96.15 0.01517
96.2 0.01513
96.25 0.01647
96.3 0.02055
96.35 0.01959
96.4 0.01259
96.45 0.01078
96.5 0.00738
96.55 0.00389
96.6 -0.0008
96.65 0.00079
96.7 0.00387
96.75 0.00589
96.8 0.00238
96.85 -0.00356
96.9 -0.00673
96.95 -0.0078
97 -0.00988
97.05 -0.01144
97.1 -0.01455
97.15 -0.01528
97.2 -0.01567
97.25 -0.01768
97.3 -0.01977
97.35 -0.02269
97.4 -0.02095
97.45 -0.02149
97.5 -0.01609
97.55 -0.01108
97.6 -0.00558
97.65 -0.00125
97.7 0.00428
97.75 0.01038
97.8 0.01387
97.85 0.0196
97.9 0.0234
97.95 0.02613
98 0.02243
98.05 0.01857
98.1 0.01365
98.15 0.01212
98.2 0.00594
98.25 -0.00027
98.3 -0.00376
98.35 -0.00329
98.4 0.00122
98.45 0.00123
98.5 0.00074
98.55 -0.00332
98.6 -0.00324
98.65 -0.00663
98.7 -0.00441
98.75 -0.00176
98.8 -0.00369
98.85 -0.00075
98.9 -0.0008
98.95 0.00343
99 0.0019
99.05 0.00438
99.1 0.00783
99.15 0.012
99.2 0.01344
99.25 0.01036
99.3 0.00513
99.35 0.00569
99.4 0.00438
99.45 0.00327
99.5 0.00046
99.55 -0.00348
99.6 -0.00649
99.65 -0.0051
99.7 -0.00383
99.75 0.0017
99.8 0.00338
99.85 0.00289
99.9 0.006
99.95 0.00721
