0 0
0.05 0.00816
0.1 0.01864
0.15 0.02868
0.2 0.03736
0.25 0.04716
0.3 0.05151
0.35 0.05744
0.4 0.05747
0.45 0.05489
0.5 0.04888
0.55 0.04602
0.6 0.04578
0.65 0.04671
0.7 0.0491
0.75 0.05416
0.8 0.06089
0.85 0.06596
0.9 0.06916
0.95 0.06984
1 0.06796
1.05 0.0645
1.1 0.06122
1.15 0.05545
1.2 0.05286
1.25 0.04679
1.3 0.04656
1.35 0.04544
1.4 0.04302
1.45 0.04462
1.5 0.04217
1.55 0.04292
1.6 0.04393
1.65 0.04317
1.7 0.04267
1.75 0.03971
1.8 0.03831
1.85 0.03227
1.9 0.02809
1.95 0.02325
2 0.02349
2.05 0.02779
2.1 0.02729
2.15 0.02864
2.2 0.03071
2.25 0.03088
2.3 0.02749
2.35 0.02745
2.4 0.03112
2.45 0.0342
2.5 0.03214
2.55 0.0319
2.6 0.03559
2.65 0.03404
2.7 0.03361
2.75 0.03339
2.8 0.02812
2.85 0.02266
2.9 0.02303
2.95 0.02284
3 0.02399
3.05 0.02323
3.1 0.02351
3.15 0.01904
3.2 0.01829
3.25 0.01844
3.3 0.01391
3.35 0.00985
3.4 0.01203
3.45 0.01512
3.5 0.01817
3.55 0.02077
3.6 0.02296
3.65 0.0241
3.7 0.01954
3.75 0.0125
3.8 0.01271
3.85 0.01472
3.9 0.01607
3.95 0.01757
4 0.02066
4.05 0.01705
4.1 0.0118
4.15 0.00712
4.2 0.00481
4.25 0.00622
4.3 0.00638
4.35 0.00877
4.4 0.01175
4.45 0.01161
4.5 0.00723
4.55 -0.00551
4.6 -0.02254
4.65 -0.03839
4.7 -0.05582
4.75 -0.07596
4.8 -0.09993
4.85 -0.12568
4.9 -0.15223
4.95 -0.18563
5 -0.23059
5.05 -0.27651
5.1 -0.33288
5.15 -0.39833
5.2 -0.46603
5.25 -0.53999
5.3 -0.613
5.35 -0.68962
5.4 -0.77196
5.45 -0.85901
5.5 -0.95147
5.55 -1.04818
5.6 -1.14595
5.65 -1.24348
5.7 -1.3374
5.75 -1.43339
5.8 -1.53152
5.85 -1.62605
5.9 -1.71727
5.95 -1.80279
6 -1.88487
6.05 -1.96324
6.1 -2.03844
6.15 -2.1088
6.2 -2.17773
6.25 -2.24204
6.3 -2.30424
6.35 -2.3627
6.4 -2.41063
6.45 -2.45048
6.5 -2.47986
6.55 -2.49703
6.6 -2.50273
6.65 -2.50237
6.7 -2.48895
6.75 -2.46252
6.8 -2.423
6.85 -2.37099
6.9 -2.30173
6.95 -2.21826
7 -2.12288
7.05 -2.01331
7.1 -1.88343
7.15 -1.74136
7.2 -1.58114
7.25 -1.41067
7.3 -1.22868
7.35 -1.0394
7.4 -0.84625
7.45 -0.64739
7.5 -0.44335
7.55 -0.2378
7.6 -0.02847
7.65 0.17541
7.7 0.37037
7.75 0.56159
7.8 0.74075
7.85 0.90939
7.9 1.06965
7.95 1.22098
8 1.36468
8.05 1.49593
8.1 1.61741
8.15 1.72371
8.2 1.81789
8.25 1.90328
8.3 1.97681
8.35 2.03753
8.4 2.09165
8.45 2.13317
8.5 2.16147
8.55 2.18701
8.6 2.20945
8.65 2.22128
8.7 2.22539
8.75 2.22977
8.8 2.22831
8.85 2.22522
8.9 2.22101
8.95 2.21679
9 2.20637
9.05 2.19649
9.1 2.17848
9.15 2.15485
9.2 2.12942
9.25 2.10919
9.3 2.09057
9.35 2.06662
9.4 2.04006
9.45 2.01684
9.5 1.99584
9.55 1.97461
9.6 1.94871
9.65 1.92531
9.7 1.90179
9.75 1.87522
9.8 1.84748
9.85 1.81451
9.9 1.77724
9.95 1.74165
10 1.70365
10.05 1.66201
10.1 1.62399
10.15 1.58364
10.2 1.54375
10.25 1.49952
10.3 1.4563
10.35 1.40929
10.4 1.36233
10.45 1.32077
10.5 1.28094
10.55 1.23567
10.6 1.18951
10.65 1.13916
10.7 1.08893
10.75 1.0363
10.8 0.98405
10.85 0.93394
10.9 0.88429
10.95 0.83973
11 0.80005
11.05 0.76184
11.1 0.71899
11.15 0.67655
11.2 0.63237
11.25 0.59156
11.3 0.55322
11.35 0.51281
11.4 0.47604
11.45 0.43283
11.5 0.38961
11.55 0.34555
11.6 0.30635
11.65 0.2657
11.7 0.22754
11.75 0.19257
11.8 0.1578
11.85 0.12484
11.9 0.09346
11.95 0.06793
12 0.03759
12.05 0.0116
12.1 -0.01594
12.15 -0.04433
12.2 -0.07103
12.25 -0.09504
12.3 -0.11941
12.35 -0.14329
12.4 -0.16218
12.45 -0.18296
12.5 -0.20132
12.55 -0.21482
12.6 -0.22885
12.65 -0.24484
12.7 -0.25545
12.75 -0.26271
12.8 -0.26727
12.85 -0.27593
12.9 -0.29064
12.95 -0.30116
13 -0.31153
13.05 -0.32225
13.1 -0.32958
13.15 -0.33944
13.2 -0.3475
13.25 -0.35362
13.3 -0.36058
13.35 -0.36422
13.4 -0.3711
13.45 -0.38029
13.5 -0.38857
13.55 -0.39691
13.6 -0.3974
13.65 -0.40037
13.7 -0.40312
13.75 -0.4041
13.8 -0.3978
13.85 -0.39063
13.9 -0.38194
13.95 -0.3717
14 -0.36763
14.05 -0.36095
14.1 -0.35908
14.15 -0.35374
14.2 -0.34953
14.25 -0.3513
14.3 -0.34984
14.35 -0.34522
14.4 -0.34172
14.45 -0.34311
14.5 -0.34175
14.55 -0.34311
14.6 -0.34382
14.65 -0.34099
14.7 -0.34149
14.75 -0.34009
14.8 -0.33524
14.85 -0.32706
14.9 -0.31946
14.95 -0.31385
15 -0.3099
15.05 -0.30229
15.1 -0.299
15.15 -0.29595
15.2 -0.29384
15.25 -0.28751
15.3 -0.28484
15.35 -0.28424
15.4 -0.28199
15.45 -0.27543
15.5 -0.26679
15.55 -0.26375
15.6 -0.25647
15.65 -0.24748
15.7 -0.24519
15.75 -0.2389
15.8 -0.2318
15.85 -0.22998
15.9 -0.22851
15.95 -0.226
16 -0.22481
16.05 -0.22308
16.1 -0.21988
16.15 -0.21649
16.2 -0.21253
16.25 -0.20807
16.3 -0.20448
16.35 -0.20292
16.4 -0.20529
16.45 -0.20821
16.5 -0.20735
16.55 -0.20571
16.6 -0.20282
16.65 -0.19587
16.7 -0.18913
16.75 -0.1852
16.8 -0.18423
16.85 -0.18552
16.9 -0.18623
16.95 -0.18408
17 -0.17946
17.05 -0.17732
17.1 -0.16927
17.15 -0.16093
17.2 -0.15704
17.25 -0.15136
17.3 -0.1427
17.35 -0.13658
17.4 -0.136
17.45 -0.13866
17.5 -0.1442
17.55 -0.14362
17.6 -0.14138
17.65 -0.1382
17.7 -0.13634
17.75 -0.13725
17.8 -0.14001
17.85 -0.14201
17.9 -0.1393
17.95 -0.13332
18 -0.12381
18.05 -0.11905
18.1 -0.11917
18.15 -0.1207
18.2 -0.12289
18.25 -0.12622
18.3 -0.12356
18.35 -0.11651
18.4 -0.10706
18.45 -0.09886
18.5 -0.09585
18.55 -0.09185
18.6 -0.09119
18.65 -0.08741
18.7 -0.08125
18.75 -0.07417
18.8 -0.06744
18.85 -0.06745
18.9 -0.06859
18.95 -0.07052
19 -0.07017
19.05 -0.07418
19.1 -0.07659
19.15 -0.0827
19.2 -0.08953
19.25 -0.09685
19.3 -0.09526
19.35 -0.08956
19.4 -0.08374
19.45 -0.08103
19.5 -0.07813
19.55 -0.07617
19.6 -0.07818
19.65 -0.07878
19.7 -0.07903
19.75 -0.0736
19.8 -0.06957
19.85 -0.06967
19.9 -0.07038
19.95 -0.07141
20 -0.06737
20.05 -0.06349
20.1 -0.06517
20.15 -0.06172
20.2 -0.05995
20.25 -0.05995
20.3 -0.05871
20.35 -0.05402
20.4 -0.0468
20.45 -0.04204
20.5 -0.04127
20.55 -0.04594
20.6 -0.04667
20.65 -0.04928
20.7 -0.04747
20.75 -0.04911
20.8 -0.04676
20.85 -0.0414
20.9 -0.03901
20.95 -0.03557
21 -0.03433
21.05 -0.03347
21.1 -0.03527
21.15 -0.04
21.2 -0.04544
21.25 -0.04437
21.3 -0.03899
21.35 -0.03673
21.4 -0.03988
21.45 -0.04119
21.5 -0.03951
21.55 -0.04082
21.6 -0.0455
21.65 -0.05119
21.7 -0.04968
21.75 -0.04586
21.8 -0.04376
21.85 -0.03871
21.9 -0.03725
21.95 -0.04011
22 -0.04471
22.05 -0.04332
22.1 -0.03948
22.15 -0.036
22.2 -0.02898
22.25 -0.02427
22.3 -0.01737
22.35 -0.01209
22.4 -0.01319
22.45 -0.0155
22.5 -0.02121
22.55 -0.02324
22.6 -0.02508
22.65 -0.0257
22.7 -0.02702
22.75 -0.02383
22.8 -0.02561
22.85 -0.0312
22.9 -0.03338
22.95 -0.03539
23 -0.03154
23.05 -0.02742
23.1 -0.02157
23.15 -0.015
23.2 -0.01541
23.25 -0.01445
23.3 -0.01208
23.35 -0.01085
23.4 -0.01285
23.45 -0.01105
23.5 -0.00883
23.55 -0.0109
23.6 -0.01723
23.65 -0.02479
23.7 -0.02661
23.75 -0.02493
23.8 -0.02128
23.85 -0.01804
23.9 -0.01936
23.95 -0.02018
24 -0.01988
24.05 -0.02284
24.1 -0.0206
24.15 -0.02073
24.2 -0.0235
24.25 -0.02665
24.3 -0.02547
24.35 -0.02555
24.4 -0.02761
24.45 -0.03085
24.5 -0.0359
24.55 -0.03744
24.6 -0.0322
24.65 -0.02515
24.7 -0.02175
24.75 -0.02277
24.8 -0.02236
24.85 -0.0259
24.9 -0.02922
24.95 -0.03376
25 -0.03703
25.05 -0.03669
25.1 -0.03492
25.15 -0.03056
25.2 -0.03045
25.25 -0.03133
25.3 -0.02779
25.35 -0.01995
25.4 -0.01773
25.45 -0.01907
25.5 -0.02312
25.55 -0.02395
25.6 -0.0185
25.65 -0.01531
25.7 -0.00994
25.75 -0.00614
25.8 0.00057
25.85 -0.00023
25.9 -0.00552
25.95 -0.00931
26 -0.01325
26.05 -0.01669
26.1 -0.02257
26.15 -0.02901
26.2 -0.03394
26.25 -0.03515
26.3 -0.03288
26.35 -0.02784
26.4 -0.01916
26.45 -0.01114
26.5 -0.00317
26.55 0.00586
26.6 0.01283
26.65 0.0204
26.7 0.02129
26.75 0.01651
26.8 0.01574
26.85 0.01033
26.9 0.00382
26.95 -0.00235
27 -0.01089
27.05 -0.01853
27.1 -0.02612
27.15 -0.0296
27.2 -0.02936
27.25 -0.02634
27.3 -0.02174
27.35 -0.01654
27.4 -0.01554
27.45 -0.01836
27.5 -0.01599
27.55 -0.01078
27.6 -0.00249
27.65 -0.00054
27.7 -0.00237
27.75 -0.0076
27.8 -0.01418
27.85 -0.01882
27.9 -0.01844
27.95 -0.02103
28 -0.01747
28.05 -0.01141
28.1 -0.01048
28.15 -0.0098
28.2 -0.00958
28.25 -0.00877
28.3 -0.00853
28.35 -0.01124
28.4 -0.01286
28.45 -0.01168
28.5 -0.01004
28.55 -0.01166
28.6 -0.00696
28.65 -0.00725
28.7 -0.01083
28.75 -0.01314
28.8 -0.01347
28.85 -0.01085
28.9 -0.00978
28.95 -0.01233
29 -0.0149
29.05 -0.01489
29.1 -0.00938
29.15 -0.00625
29.2 -0.00581
29.25 -0.00259
29.3 0.0013
29.35 0.00519
29.4 0.00892
29.45 0.0105
29.5 0.01343
29.55 0.01321
29.6 0.00909
29.65 0.00256
29.7 0.0021
29.75 -0.00151
29.8 -0.00654
29.85 -0.00749
29.9 -0.01117
29.95 -0.01721
30 -0.02177
30.05 -0.02739
30.1 -0.02766
30.15 -0.02917
30.2 -0.02372
30.25 -0.02226
30.3 -0.02229
30.35 -0.02215
30.4 -0.01916
30.45 -0.01434
30.5 -0.01353
30.55 -0.01513
30.6 -0.01024
30.65 -0.00931
30.7 -0.00808
30.75 -0.00696
30.8 -0.00124
30.85 0.00515
30.9 0.0099
30.95 0.01542
31 0.0224
31.05 0.02137
31.1 0.019
31.15 0.01282
31.2 0.00603
31.25 0.00173
31.3 -0.00421
31.35 -0.01057
31.4 -0.01191
31.45 -0.00891
31.5 -0.00499
31.55 0.00072
31.6 0.003
31.65 0.00203
31.7 0.00325
31.75 0.00348
31.8 0.00136
31.85 0.00459
31.9 0.00469
31.95 0.00419
32 0.00514
32.05 0.00556
32.1 0.00387
32.15 0.00152
32.2 0.00322
32.25 0.00337
32.3 0.00356
32.35 0.00056
32.4 0.00132
32.45 0.0014
32.5 0.0069
32.55 0.00814
32.6 0.01142
32.65 0.01005
32.7 0.01007
32.75 0.01408
32.8 0.0149
32.85 0.01691
32.9 0.0158
32.95 0.01527
33 0.01052
33.05 0.0043
33.1 -0.00414
33.15 -0.00699
33.2 -0.00495
33.25 0.00123
33.3 0.00418
33.35 0.00488
33.4 0.008
33.45 0.01338
33.5 0.01742
33.55 0.01789
33.6 0.01743
33.65 0.01939
33.7 0.01665
33.75 0.01683
33.8 0.01943
33.85 0.02338
33.9 0.02012
33.95 0.01268
34 0.00709
34.05 0.00499
34.1 0.00702
34.15 0.00543
34.2 0.00277
34.25 0.00274
34.3 0.00193
34.35 -0.00111
34.4 -0.00682
34.45 -0.00584
34.5 -0.00778
34.55 -0.00387
34.6 -0.00578
34.65 -0.0038
34.7 -0.00682
34.75 -0.005
34.8 -0.00356
34.85 -0.0009
34.9 0.00379
34.95 0.00415
35 0.00391
35.05 0.00135
35.1 0.00359
35.15 0.0033
35.2 0.00529
35.25 0.00776
35.3 0.00456
35.35 0.0032
35.4 0.00262
35.45 0.00487
35.5 0.00796
35.55 0.01029
35.6 0.00663
35.65 0.00793
35.7 0.0125
35.75 0.01656
35.8 0.01585
35.85 0.01189
35.9 0.01278
35.95 0.01402
36 0.01711
36.05 0.01603
36.1 0.01134
36.15 0.00448
36.2 -0.00161
36.25 -0.00364
36.3 -0.00799
36.35 -0.01444
36.4 -0.02165
36.45 -0.02087
36.5 -0.01941
36.55 -0.02021
36.6 -0.01639
36.65 -0.01497
36.7 -0.01262
36.75 -0.00895
36.8 -0.00305
36.85 -0.00324
36.9 -0.00749
36.95 -0.01064
37 -0.0129
37.05 -0.01508
37.1 -0.0134
37.15 -0.0075
37.2 -0.00069
37.25 0.00335
37.3 0.00611
37.35 0.01213
37.4 0.01961
37.45 0.02709
37.5 0.02598
37.55 0.02493
37.6 0.02472
37.65 0.02075
37.7 0.0157
37.75 0.01244
37.8 0.00782
37.85 0.00509
37.9 0.0039
37.95 0.0023
38 0.00005
38.05 -0.00198
38.1 0.00042
38.15 -0.0027
38.2 -0.00222
38.25 -0.00649
38.3 -0.00553
38.35 -0.00672
38.4 -0.0028
38.45 -0.00053
38.5 0.0022
38.55 0.00137
38.6 -0.00137
38.65 -0.00349
38.7 -0.00854
38.75 -0.00861
38.8 -0.01157
38.85 -0.01008
38.9 -0.01151
38.95 -0.01261
39 -0.01445
39.05 -0.01021
39.1 -0.0027
39.15 0.00604
39.2 0.01391
39.25 0.01561
39.3 0.01085
39.35 0.00853
39.4 0.00913
39.45 0.01315
39.5 0.01767
39.55 0.02303
39.6 0.02465
39.65 0.01956
39.7 0.01499
39.75 0.01519
39.8 0.00975
39.85 0.00853
39.9 0.00556
39.95 0.00128
40 -0.00115
40.05 -0.0037
40.1 -0.00419
40.15 -0.0077
40.2 -0.01169
40.25 -0.01342
40.3 -0.01258
40.35 -0.01337
40.4 -0.01137
40.45 -0.00822
40.5 -0.007
40.55 -0.00138
40.6 0.00509
40.65 0.00545
40.7 0.0044
40.75 0.00066
40.8 -0.00517
40.85 -0.01204
40.9 -0.01751
40.95 -0.01703
41 -0.01152
41.05 -0.00885
41.1 -0.00935
41.15 -0.00899
41.2 -0.00785
41.25 -0.00712
41.3 -0.01076
41.35 -0.01642
41.4 -0.01828
41.45 -0.01377
41.5 -0.01247
41.55 -0.00882
41.6 -0.00982
41.65 -0.00735
41.7 -0.00631
41.75 -0.0021
41.8 0.00296
41.85 0.00942
41.9 0.0092
41.95 0.01158
42 0.01604
42.05 0.01929
42.1 0.016
42.15 0.0094
42.2 0.00516
42.25 0.00386
42.3 0.00616
42.35 0.00609
42.4 0.0081
42.45 0.00725
42.5 0.00881
42.55 0.00777
42.6 0.00422
42.65 0.00451
42.7 0.00096
42.75 -0.00429
42.8 -0.01131
42.85 -0.01534
42.9 -0.01955
42.95 -0.02456
43 -0.0297
43.05 -0.03257
43.1 -0.03489
43.15 -0.03423
43.2 -0.03369
43.25 -0.03158
43.3 -0.02311
43.35 -0.01732
43.4 -0.01436
43.45 -0.01086
43.5 -0.0093
43.55 -0.00288
43.6 0.00097
43.65 0.00408
43.7 0.00506
43.75 0.00261
43.8 -0.00206
43.85 -0.0047
43.9 -0.00702
43.95 -0.00449
44 -0.00333
44.05 -0.00417
44.1 -0.00065
44.15 0.00416
44.2 0.00359
44.25 0.00174
44.3 0.00219
44.35 0.00065
44.4 -0.00324
44.45 -0.00145
44.5 0.00193
44.55 0.00121
44.6 0.0024
44.65 0.00664
44.7 0.01155
44.75 0.00957
44.8 0.00833
44.85 0.00375
44.9 -0.00272
44.95 -0.00648
45 -0.00917
45.05 -0.01019
45.1 -0.00754
45.15 -0.00243
45.2 -0.00283
45.25 0.00082
45.3 0.0009
45.35 -0.00262
45.4 -0.00402
45.45 -0.00842
45.5 -0.00976
45.55 -0.00808
45.6 -0.007
45.65 -0.00533
45.7 -0.00617
45.75 -0.00811
45.8 -0.00456
45.85 -0.00157
45.9 0.00268
45.95 0.00609
46 0.0124
46.05 0.01268
46.1 0.00921
46.15 0.00314
46.2 0.00179
46.25 -0.00081
46.3 0.00134
46.35 0.00092
46.4 -0.00063
46.45 0.0026
46.5 0.0053
46.55 0.00983
46.6 0.01593
46.65 0.01918
46.7 0.01568
46.75 0.00848
46.8 0.00439
46.85 0.00447
46.9 0.00583
46.95 0.00963
47 0.0072
47.05 0.00672
47.1 0.00849
47.15 0.01317
47.2 0.01472
47.25 0.01715
47.3 0.02132
47.35 0.02508
47.4 0.02128
47.45 0.01364
47.5 0.00468
47.55 0.00265
47.6 -0.00295
47.65 -0.00715
47.7 -0.01216
47.75 -0.01733
47.8 -0.01547
47.85 -0.01438
47.9 -0.01608
47.95 -0.01993
48 -0.02294
48.05 -0.02748
48.1 -0.02731
48.15 -0.02435
48.2 -0.0234
48.25 -0.02072
48.3 -0.01775
48.35 -0.01298
48.4 -0.00828
48.45 -0.00201
48.5 -0.00045
48.55 0.00299
48.6 0.00595
48.65 0.00889
48.7 0.00805
48.75 0.0059
48.8 0.0085
48.85 0.01296
48.9 0.01665
48.95 0.01796
49 0.0219
49.05 0.02619
49.1 0.03131
49.15 0.0304
49.2 0.03033
49.25 0.02965
49.3 0.02294
49.35 0.01229
49.4 0.0038
49.45 -0.00638
49.5 -0.00834
49.55 -0.00955
49.6 -0.00659
49.65 -0.00246
49.7 0.00285
49.75 0.00965
49.8 0.01463
49.85 0.01293
49.9 0.00883
49.95 0.00562
50 -0.00118
50.05 -0.00822
50.1 -0.01294
50.15 -0.01085
50.2 -0.01319
50.25 -0.00948
50.3 -0.00446
50.35 0.00259
50.4 0.01065
50.45 0.01769
50.5 0.0172
50.55 0.01692
50.6 0.01348
50.65 0.00683
50.7 0.00053
50.75 -0.00143
50.8 -0.00631
50.85 -0.00659
50.9 -0.0071
50.95 -0.0106
51 -0.01033
51.05 -0.00734
51.1 -0.00283
51.15 -0.00195
51.2 0.00209
51.25 0.0018
51.3 -0.00063
51.35 0.00033
51.4 -0.00304
51.45 -0.00093
51.5 -0.00088
51.55 -0.00523
51.6 -0.00863
51.65 -0.01482
51.7 -0.01401
51.75 -0.01207
51.8 -0.00565
51.85 -0.00525
51.9 -0.00871
51.95 -0.00698
52 -0.00871
52.05 -0.00856
52.1 -0.00655
52.15 -0.00069
52.2 0.00308
52.25 0.003
52.3 0.00245
52.35 0.00332
52.4 0.0008
52.45 0.00056
52.5 -0.00139
52.55 -0.00599
52.6 -0.01036
52.65 -0.00997
52.7 -0.0113
52.75 -0.00876
52.8 -0.00884
52.85 -0.00489
52.9 0.00219
52.95 0.00636
53 0.0068
53.05 0.01034
53.1 0.01425
53.15 0.0154
53.2 0.01408
53.25 0.01389
53.3 0.01049
53.35 0.00762
53.4 0.00683
53.45 0.00115
53.5 -0.0025
53.55 -0.00681
53.6 -0.00907
53.65 -0.00954
53.7 -0.01225
53.75 -0.01019
53.8 -0.00796
53.85 -0.00313
53.9 -0.00141
53.95 0.00068
54 0.00612
54.05 0.01258
54.1 0.0136
54.15 0.01551
54.2 0.0174
54.25 0.02142
54.3 0.01944
54.35 0.0152
54.4 0.01358
54.45 0.00857
54.5 0.0085
54.55 0.01083
54.6 0.01496
54.65 0.01553
54.7 0.01533
54.75 0.01433
54.8 0.01091
54.85 0.00605
54.9 0.00414
54.95 0.00027
55 -0.00381
55.05 -0.00385
55.1 -0.00054
55.15 0.0002
55.2 0.00154
55.25 0.00413
55.3 0.0055
55.35 0.00355
55.4 0.00528
55.45 0.00397
55.5 0.00525
55.55 0.00085
55.6 -0.00468
55.65 -0.00614
55.7 -0.0092
55.75 -0.00844
55.8 -0.01052
55.85 -0.00799
55.9 -0.00735
55.95 -0.01096
56 -0.01181
56.05 -0.00709
56.1 -0.00312
56.15 0.00011
56.2 0.0039
56.25 0.0076
56.3 0.01019
56.35 0.01342
56.4 0.0178
56.45 0.01694
56.5 0.01411
56.55 0.00792
56.6 0.00274
56.65 0.002
56.7 0.00539
56.75 0.00603
56.8 0.00792
56.85 0.01258
56.9 0.01751
56.95 0.02214
57 0.01822
57.05 0.01146
57.1 0.00117
57.15 -0.00678
57.2 -0.01021
57.25 -0.01006
57.3 -0.00726
57.35 -0.00943
57.4 -0.00909
57.45 -0.00745
57.5 -0.00692
57.55 -0.00594
57.6 -0.0048
57.65 -0.00182
57.7 -0.00123
57.75 0.00119
57.8 0.00478
57.85 0.00298
57.9 -0.00148
57.95 -0.00742
58 -0.01097
58.05 -0.01237
58.1 -0.01086
58.15 -0.00941
58.2 -0.0074
58.25 -0.01012
58.3 -0.01011
58.35 -0.00785
58.4 -0.00322
58.45 -0.00137
58.5 -0.00313
58.55 -0.00214
58.6 -0.00058
58.65 -0.00438
58.7 -0.00293
58.75 -0.00098
58.8 -0.001
58.85 -0.00067
58.9 -0.00088
58.95 -0.00115
59 -0.0041
59.05 -0.00366
59.1 -0.00155
59.15 -0.00239
59.2 -0.0077
59.25 -0.01473
59.3 -0.01863
59.35 -0.01768
59.4 -0.01609
59.45 -0.01599
59.5 -0.01365
59.55 -0.01258
59.6 -0.00751
59.65 0.0006
59.7 0.00828
59.75 0.01206
59.8 0.01061
59.85 0.01016
59.9 0.009
59.95 0.0101
60 0.01238
60.05 0.00877
60.1 0.00549
60.15 -0.00041
60.2 -0.00373
60.25 -0.00635
60.3 -0.01087
60.35 -0.01304
60.4 -0.01435
60.45 -0.01765
60.5 -0.02281
60.55 -0.02481
60.6 -0.02223
60.65 -0.01735
60.7 -0.01196
60.75 -0.01203
60.8 -0.00892
60.85 -0.00243
60.9 0.00572
60.95 0.00721
61 0.01122
61.05 0.01441
61.1 0.01448
61.15 0.01414
61.2 0.01619
61.25 0.01361
61.3 0.01168
61.35 0.0122
61.4 0.00813
61.45 0.00736
61.5 0.00634
61.55 0.00299
61.6 -0.00074
61.65 -0.00524
61.7 -0.00499
61.75 -0.00666
61.8 -0.00386
61.85 -0.00256
61.9 -0.00452
61.95 -0.00326
62 0.00174
62.05 0.00691
62.1 0.01298
62.15 0.01821
62.2 0.01918
62.25 0.02004
62.3 0.01992
62.35 0.01521
62.4 0.00885
62.45 0.00161
62.5 -0.00013
62.55 -0.0028
62.6 -0.00411
62.65 -0.00674
62.7 -0.01028
62.75 -0.01181
62.8 -0.01191
62.85 -0.01076
62.9 -0.01331
62.95 -0.0165
63 -0.01429
63.05 -0.00861
63.1 -0.00619
63.15 -0.00572
63.2 -0.00222
63.25 -0.00046
63.3 0.00274
63.35 0.00873
63.4 0.016
63.45 0.02258
63.5 0.02553
63.55 0.02043
63.6 0.01147
63.65 0.00769
63.7 0.00628
63.75 0.00271
63.8 -0.00126
63.85 -0.00448
63.9 -0.00604
63.95 -0.00842
64 -0.01017
64.05 -0.00621
64.1 -0.00514
64.15 -0.0009
64.2 -0.00141
64.25 -0.00659
64.3 -0.00667
64.35 -0.00496
64.4 -0.0062
64.45 -0.00271
64.5 -0.00348
64.55 -0.00472
64.6 -0.00938
64.65 -0.01142
64.7 -0.01606
64.75 -0.01394
64.8 -0.01616
64.85 -0.01303
64.9 -0.01355
64.95 -0.01641
65 -0.01941
65.05 -0.01713
65.1 -0.01264
65.15 -0.01127
65.2 -0.00665
65.25 -0.00191
65.3 0.00419
65.35 0.00385
65.4 0.00267
65.45 0.00563
65.5 0.00887
65.55 0.0109
65.6 0.0138
65.65 0.01849
65.7 0.02129
65.75 0.01882
65.8 0.01982
65.85 0.01637
65.9 0.01714
65.95 0.01624
66 0.01405
66.05 0.01242
66.1 0.0057
66.15 -0.00318
66.2 -0.01342
66.25 -0.01611
66.3 -0.01677
66.35 -0.01181
66.4 -0.00424
66.45 -0.00102
66.5 0.00533
66.55 0.00414
66.6 0.00499
66.65 0.00643
66.7 0.00512
66.75 0.0017
66.8 -0.00528
66.85 -0.01115
66.9 -0.00995
66.95 -0.00984
67 -0.01324
67.05 -0.01351
67.1 -0.01
67.15 -0.00424
67.2 0.00383
67.25 0.00725
67.3 0.00489
67.35 0.00003
67.4 0.0004
67.45 -0.00131
67.5 -0.00306
67.55 -0.00106
67.6 0.00091
67.65 0.00473
67.7 0.00411
67.75 0.00259
67.8 -0.00023
67.85 -0.00387
67.9 -0.00857
67.95 -0.00669
68 -0.00928
68.05 -0.01351
68.1 -0.01359
68.15 -0.01656
68.2 -0.01917
68.25 -0.02168
68.3 -0.0246
68.35 -0.0214
68.4 -0.02124
68.45 -0.02142
68.5 -0.0218
68.55 -0.02046
68.6 -0.02186
68.65 -0.02359
68.7 -0.02057
68.75 -0.01534
68.8 -0.00841
68.85 -0.00304
68.9 0.00104
68.95 0.00707
69 0.00967
69.05 0.00922
69.1 0.00611
69.15 0.0076
69.2 0.0093
69.25 0.00952
69.3 0.00966
69.35 0.01155
69.4 0.01455
69.45 0.01915
69.5 0.01812
69.55 0.01907
69.6 0.01861
69.65 0.01657
69.7 0.01293
69.75 0.01241
69.8 0.01277
69.85 0.01004
69.9 0.00981
69.95 0.00736
70 0.00548
70.05 0.00539
70.1 0.00586
70.15 0.00194
70.2 0.00112
70.25 0.00441
70.3 0.0082
70.35 0.0142
70.4 0.01692
70.45 0.01673
70.5 0.01586
70.55 0.01277
70.6 0.00791
70.65 -0.00043
70.7 -0.00144
70.75 -0.00187
70.8 0.00185
70.85 0.00549
70.9 0.01007
70.95 0.01052
71 0.01197
71.05 0.01205
71.1 0.01267
71.15 0.01468
71.2 0.01086
71.25 0.00885
71.3 0.00962
71.35 0.00431
71.4 -0.00171
71.45 -0.00225
71.5 -0.00399
71.55 -0.00408
71.6 -0.00104
71.65 -0.00118
71.7 -0.00607
71.75 -0.0051
71.8 -0.00856
71.85 -0.01488
71.9 -0.01393
71.95 -0.01205
72 -0.01308
72.05 -0.01439
72.1 -0.01872
72.15 -0.01732
72.2 -0.01112
72.25 -0.00785
72.3 -0.00271
72.35 0.00382
72.4 0.00766
72.45 0.01335
72.5 0.01971
72.55 0.02276
72.6 0.02078
72.65 0.01616
72.7 0.00688
72.75 0.00403
72.8 0.001
72.85 -0.00444
72.9 -0.01116
72.95 -0.01807
73 -0.01927
73.05 -0.01737
73.1 -0.01294
73.15 -0.012
73.2 -0.0086
73.25 -0.00513
73.3 -0.00347
73.35 -0.00531
73.4 -0.00617
73.45 -0.00803
73.5 -0.00585
73.55 -0.00012
73.6 0.00705
73.65 0.01175
73.7 0.01041
73.75 0.00408
73.8 -0.00088
73.85 -0.00325
73.9 -0.00047
73.95 0.00211
74 0.00727
74.05 0.01364
74.1 0.01544
74.15 0.01423
74.2 0.01142
74.25 0.01274
74.3 0.00742
74.35 0.00166
74.4 0.00042
74.45 -0.00201
74.5 -0.00763
74.55 -0.01382
74.6 -0.01332
74.65 -0.01159
74.7 -0.01341
74.75 -0.0144
74.8 -0.01364
74.85 -0.00845
74.9 -0.00237
74.95 0.00452
75 0.01005
75.05 0.01152
75.1 0.00885
75.15 0.00799
75.2 0.00682
75.25 0.00706
75.3 0.00934
75.35 0.00719
75.4 0.00597
75.45 0.00565
75.5 0.00598
75.55 0.00681
75.6 0.00401
75.65 0.00045
75.7 0.00127
75.75 0.00461
75.8 0.00522
75.85 0.0014
75.9 -0.00069
75.95 -0.00389
76 -0.01068
76.05 -0.01014
76.1 -0.00932
76.15 -0.00916
76.2 -0.01016
76.25 -0.00747
76.3 -0.00295
76.35 -0.00156
76.4 -0.00556
76.45 -0.01081
76.5 -0.01713
76.55 -0.01747
76.6 -0.01639
76.65 -0.01322
76.7 -0.00918
76.75 -0.00342
76.8 -0.00405
76.85 -0.00023
76.9 0.00047
76.95 -0.00013
77 0.00014
77.05 -0.00026
77.1 0.00218
77.15 0.00489
77.2 0.00549
77.25 0.00368
77.3 -0.00243
77.35 -0.01077
77.4 -0.01445
77.45 -0.01547
77.5 -0.01467
77.55 -0.01574
77.6 -0.01691
77.65 -0.01704
77.7 -0.02013
77.75 -0.01827
77.8 -0.01398
77.85 -0.00672
77.9 -0.00205
77.95 -0.00144
78 0.00338
78.05 0.00764
78.1 0.00781
78.15 0.0056
78.2 0.00342
78.25 0.00454
78.3 0.00274
78.35 -0.00124
78.4 -0.00645
78.45 -0.00821
78.5 -0.00546
78.55 -0.0059
78.6 -0.00904
78.65 -0.00607
78.7 -0.00413
78.75 -0.00612
78.8 -0.00279
78.85 -0.00027
78.9 0.00333
78.95 0.00223
79 -0.00045
79.05 0.00147
79.1 0.00171
79.15 0.00347
79.2 0.00036
79.25 0.00032
79.3 -0.00424
79.35 -0.01079
79.4 -0.01487
79.45 -0.02047
79.5 -0.02436
79.55 -0.02852
79.6 -0.02582
79.65 -0.01741
79.7 -0.00963
79.75 -0.00794
79.8 -0.00794
79.85 -0.0055
79.9 -0.00678
79.95 -0.01125
80 -0.01094
80.05 -0.01088
80.1 -0.00563
80.15 -0.00612
80.2 -0.0102
80.25 -0.00764
80.3 -0.00881
80.35 -0.0083
80.4 -0.00844
80.45 -0.01162
80.5 -0.01346
80.55 -0.01656
80.6 -0.02046
80.65 -0.02267
80.7 -0.01765
80.75 -0.01372
80.8 -0.01327
80.85 -0.01328
80.9 -0.00981
80.95 -0.01053
81 -0.00568
81.05 0.0028
81.1 0.01157
81.15 0.01717
81.2 0.02144
81.25 0.02251
81.3 0.02374
81.35 0.02483
81.4 0.0259
81.45 0.02055
81.5 0.01661
81.55 0.01161
81.6 0.00587
81.65 0.00482
81.7 0.00303
81.75 -0.00085
81.8 -0.00249
81.85 -0.0039
81.9 -0.00412
81.95 0.00027
82 0.00379
82.05 0.00495
82.1 0.00658
82.15 0.01141
82.2 0.01094
82.25 0.01311
82.3 0.01402
82.35 0.0145
82.4 0.01534
82.45 0.01391
82.5 0.01375
82.55 0.00791
82.6 0.00622
82.65 0.00638
82.7 0.00665
82.75 0.00178
82.8 -0.00329
82.85 -0.00392
82.9 -0.0074
82.95 -0.00838
83 -0.00695
83.05 -0.00101
83.1 0.00542
83.15 0.01326
83.2 0.01505
83.25 0.01406
83.3 0.0104
83.35 0.01031
83.4 0.01083
83.45 0.00683
83.5 0.00519
83.55 0.0047
83.6 -0.00018
83.65 -0.00339
83.7 -0.00891
83.75 -0.00967
83.8 -0.01221
83.85 -0.01383
83.9 -0.0174
83.95 -0.01876
84 -0.01734
84.05 -0.0146
84.1 -0.0104
84.15 -0.01029
84.2 -0.01191
84.25 -0.01095
84.3 -0.01114
84.35 -0.00652
84.4 -0.00025
84.45 0.00361
84.5 0.00574
84.55 0.01007
84.6 0.01057
84.65 0.00721
84.7 0.00764
84.75 0.01026
84.8 0.00893
84.85 0.00825
84.9 0.00563
84.95 0.00243
85 0.00359
85.05 0.0027
85.1 0.00625
85.15 0.00426
85.2 0.00214
85.25 -0.00172
85.3 -0.0023
85.35 0.00021
85.4 -0.00274
85.45 -0.0024
85.5 0.0024
85.55 0.00077
85.6 -0.00026
85.65 -0.00418
85.7 -0.00978
85.75 -0.00825
85.8 -0.00265
85.85 -0.00317
85.9 -0.00654
85.95 -0.00936
86 -0.00635
86.05 -0.0043
86.1 -0.0031
86.15 -0.00083
86.2 -0.00237
86.25 0.00002
86.3 0.00318
86.35 0.00119
86.4 -0.00294
86.45 -0.00858
86.5 -0.01264
86.55 -0.01086
86.6 -0.00622
86.65 0.00072
86.7 0.00743
86.75 0.00992
86.8 0.00854
86.85 0.0042
86.9 0.00405
86.95 0.00002
87 -0.006
87.05 -0.00618
87.1 -0.00733
87.15 -0.01143
87.2 -0.01127
87.25 -0.00818
87.3 -0.00093
87.35 -0.00026
87.4 -0.00358
87.45 -0.00212
87.5 -0.00037
87.55 -0.00286
87.6 -0.00376
87.65 0.00014
87.7 0.00394
87.75 0.00758
87.8 0.00775
87.85 0.0068
87.9 0.00899
87.95 0.00754
88 0.00637
88.05 0.00777
88.1 0.00559
88.15 -0.00005
88.2 -0.00175
88.25 -0.00471
88.3 -0.00183
88.35 -0.00121
88.4 -0.00501
88.45 -0.0076
88.5 -0.01209
88.55 -0.01041
88.6 -0.00394
88.65 0.00135
88.7 0.00606
88.75 0.01018
88.8 0.01387
88.85 0.01925
88.9 0.02234
88.95 0.02669
89 0.02817
89.05 0.02454
89.1 0.02236
89.15 0.01851
89.2 0.01118
89.25 0.00228
89.3 0.00022
89.35 0.00121
89.4 0.00603
89.45 0.00509
89.5 0.00607
89.55 0.00671
89.6 0.00892
89.65 0.00558
89.7 0.00614
89.75 0.00457
89.8 0.0034
89.85 0.00247
89.9 -0.00147
89.95 -0.00268
90 -0.00299
90.05 -0.00046
90.1 -0.00067
90.15 -0.00177
90.2 0.00002
90.25 0.00087
90.3 0.00149
90.35 0.00039
90.4 0.00079
90.45 -0.00098
90.5 0.00059
90.55 0.00025
90.6 0.00152
90.65 -0.00118
90.7 -0.00579
90.75 -0.0059
90.8 -0.01042
90.85 -0.01565
90.9 -0.01392
90.95 -0.01327
91 -0.01132
91.05 -0.01287
91.1 -0.00911
91.15 -0.00442
91.2 -0.00404
91.25 -0.00268
91.3 -0.0014
91.35 -0.00303
91.4 0.00051
91.45 0.00467
91.5 0.00969
91.55 0.01222
91.6 0.0124
91.65 0.00957
91.7 0.0057
91.75 0.00126
91.8 -0.00324
91.85 -0.0028
91.9 -0.0002
91.95 0.00082
92 0.00087
92.05 0.003
92.1 0.00374
92.15 0.00546
92.2 0.00636
92.25 0.00471
92.3 0.00398
92.35 -0.00115
92.4 -0.00839
92.45 -0.00872
92.5 -0.00613
92.55 -0.00802
92.6 -0.00992
92.65 -0.01213
92.7 -0.00945
92.75 -0.00642
92.8 -0.00122
92.85 -0.00119
92.9 -0.00136
92.95 -0.00129
93 0.00142
93.05 -0.00111
93.1 -0.00228
93.15 -0.0062
93.2 -0.01223
93.25 -0.01159
93.3 -0.00748
93.35 -0.00004
93.4 0.00371
93.45 0.00118
93.5 -0.00123
93.55 -0.00356
93.6 -0.00423
93.65 -0.00259
93.7 -0.00519
93.75 -0.00609
93.8 -0.00641
93.85 -0.00841
93.9 -0.00569
93.95 -0.00133
94 0.00346
94.05 0.00571
94.1 0.00195
94.15 -0.00532
94.2 -0.01044
94.25 -0.0132
94.3 -0.011
94.35 -0.00625
94.4 -0.00136
94.45 0.00247
94.5 0.00654
94.55 0.01061
94.6 0.01294
94.65 0.01071
94.7 0.00497
94.75 -0.00353
94.8 -0.01026
94.85 -0.01651
94.9 -0.0204
94.95 -0.01819
95 -0.0199
95.05 -0.0231
95.1 -0.02084
95.15 -0.01436
95.2 -0.00704
95.25 -0.00367
95.3 0.00317
95.35 0.01106
95.4 0.01138
95.45 0.0144
95.5 0.01541
95.55 0.01809
95.6 0.01476
95.65 0.01286
95.7 0.00641
95.75 0.00351
95.8 0.00065
95.85 -0.00395
95.9 -0.01104
95.95 -0.01291
96 -0.01561
96.05 -0.01622
96.1 -0.01972
96.15 -0.01962
96.2 -0.01699
96.25 -0.01101
96.3 -0.00803
96.35 -0.00268
96.4 -0.00174
96.45 0.00322
96.5 0.00993
96.55 0.01515
96.6 0.01462
96.65 0.01473
96.7 0.01445
96.75 0.01272
96.8 0.00682
96.85 0.00648
96.9 0.00105
96.95 -0.00512
97 -0.00551
97.05 -0.00112
97.1 0.00027
97.15 -0.00004
97.2 -0.0013
97.25 0.00166
97.3 0.00372
97.35 0.00805
97.4 0.00852
97.45 0.00938
97.5 0.00494
97.55 0.00037
97.6 -0.00483
97.65 -0.00822
97.7 -0.01078
97.75 -0.00859
97.8 -0.00239
97.85 -0.00149
97.9 -0.00523
97.95 -0.01043
98 -0.01565
98.05 -0.02023
98.1 -0.02119
98.15 -0.01864
98.2 -0.01879
98.25 -0.02174
98.3 -0.0203
98.35 -0.01908
98.4 -0.01432
98.45 -0.00559
98.5 0.00163
98.55 0.00943
98.6 0.01654
98.65 0.01694
98.7 0.01226
98.75 0.01125
98.8 0.01106
98.85 0.00701
98.9 0.00023
98.95 -0.00777
99 -0.01022
99.05 -0.0063
99.1 -0.00292
99.15 -0.00196
99.2 0.00095
99.25 0.00176
99.3 0.0022
99.35 0.0012
99.4 0.00479
99.45 0.00575
99.5 0.01021
99.55 0.00879
99.6 0.00419
99.65 -0.00148
99.7 -0.00097
99.75 -0.00052
99.8 -0.00438
99.85 -0.0082
99.9 -0.0082
99.95 -0.00736
