0 0
0.05 0.00678
0.1 0.01506
0.15 0.02457
0.2 0.03101
0.25 0.03649
0.3 0.0384
0.35 0.04444
0.4 0.05176
0.45 0.05583
0.5 0.0555
0.55 0.05028
0.6 0.05063
0.65 0.05037
0.7 0.04941
0.75 0.04794
0.8 0.04264
0.85 0.04084
0.9 0.03787
0.95 0.03206
1 0.02696
1.05 0.02891
1.1 0.03115
1.15 0.03715
1.2 0.03708
1.25 0.03499
1.3 0.03067
1.35 0.02633
1.4 0.02678
1.45 0.02452
1.5 0.02771
1.55 0.03234
1.6 0.0341
1.65 0.03322
1.7 0.0309
1.75 0.03084
1.8 0.03302
1.85 0.03408
1.9 0.03842
1.95 0.03951
2 0.04304
2.05 0.04483
2.1 0.0434
2.15 0.03895
2.2 0.03835
2.25 0.03617
2.3 0.03193
2.35 0.02518
2.4 0.02233
2.45 0.01973
2.5 0.0201
2.55 0.0194
2.6 0.01846
2.65 0.01858
2.7 0.01704
2.75 0.01419
2.8 0.00899
2.85 0.00548
2.9 0.00318
2.95 -0.00021
3 0.00296
3.05 0.00872
3.1 0.01087
3.15 0.01034
3.2 0.01028
3.25 0.01492
3.3 0.01849
3.35 0.01917
3.4 0.02187
3.45 0.02265
3.5 0.01967
3.55 0.01962
3.6 0.01878
3.65 0.015
3.7 0.01478
3.75 0.01394
3.8 0.01393
3.85 0.01421
3.9 0.01432
3.95 0.01184
4 0.00799
4.05 0.01003
4.1 0.00847
4.15 0.00761
4.2 0.00819
4.25 0.00728
4.3 0.00484
4.35 0.00436
4.4 0.00499
4.45 0.00766
4.5 0.00688
4.55 -0.00015
4.6 -0.00687
4.65 -0.01321
4.7 -0.02392
4.75 -0.03573
4.8 -0.05386
4.85 -0.06882
4.9 -0.08393
4.95 -0.10697
5 -0.12791
5.05 -0.14945
5.1 -0.17792
5.15 -0.20986
5.2 -0.24307
5.25 -0.27555
5.3 -0.30572
5.35 -0.3333
5.4 -0.36451
5.45 -0.39488
5.5 -0.42346
5.55 -0.44903
5.6 -0.46496
5.65 -0.47372
5.7 -0.47483
5.75 -0.47232
5.8 -0.461
5.85 -0.44321
5.9 -0.41438
5.95 -0.37457
6 -0.3286
6.05 -0.27867
6.1 -0.22433
6.15 -0.16348
6.2 -0.10227
6.25 -0.04018
6.3 0.01988
6.35 0.07692
6.4 0.12565
6.45 0.1719
6.5 0.21707
6.55 0.2555
6.6 0.28547
6.65 0.3117
6.7 0.32985
6.75 0.3411
6.8 0.35374
6.85 0.36256
6.9 0.36923
6.95 0.37116
7 0.37037
7.05 0.36555
7.1 0.36034
7.15 0.35161
7.2 0.34091
7.25 0.32995
7.3 0.32543
7.35 0.32052
7.4 0.32129
7.45 0.32297
7.5 0.32521
7.55 0.32055
7.6 0.31181
7.65 0.30025
7.7 0.28852
7.75 0.27708
7.8 0.26666
7.85 0.2579
7.9 0.24609
7.95 0.23403
8 0.22194
8.05 0.20735
8.1 0.1937
8.15 0.18082
8.2 0.16699
8.25 0.15806
8.3 0.15145
8.35 0.14584
8.4 0.13474
8.45 0.1254
8.5 0.11785
8.55 0.10843
8.6 0.09684
8.65 0.08771
8.7 0.08057
8.75 0.07394
8.8 0.06996
8.85 0.06491
8.9 0.05337
8.95 0.04042
9 0.02779
9.05 0.0195
9.1 0.01093
9.15 0.00518
9.2 0.00081
9.25 -0.00419
9.3 -0.01106
9.35 -0.01208
9.4 -0.01297
9.45 -0.01555
9.5 -0.01768
9.55 -0.02288
9.6 -0.02134
9.65 -0.01815
9.7 -0.0127
9.75 -0.01244
9.8 -0.01467
9.85 -0.02009
9.9 -0.01969
9.95 -0.01506
10 -0.01129
10.05 -0.00728
10.1 -0.00259
10.15 -0.00427
10.2 -0.00599
10.25 -0.00979
10.3 -0.00787
10.35 -0.00357
10.4 -0.00523
10.45 -0.00844
10.5 -0.00992
10.55 -0.01327
10.6 -0.0122
10.65 -0.01386
10.7 -0.01059
10.75 -0.00455
10.8 0.00234
10.85 0.00532
10.9 0.00509
10.95 0.00624
11 0.00788
11.05 0.00644
11.1 0.00229
11.15 -0.0067
11.2 -0.01647
11.25 -0.01947
11.3 -0.02515
11.35 -0.03108
11.4 -0.03646
11.45 -0.03716
11.5 -0.03963
11.55 -0.04105
11.6 -0.04448
11.65 -0.04526
11.7 -0.04258
11.75 -0.03972
11.8 -0.03519
11.85 -0.03552
11.9 -0.03165
11.95 -0.0293
12 -0.02491
12.05 -0.02425
12.1 -0.02709
12.15 -0.03266
12.2 -0.03331
12.25 -0.03718
12.3 -0.03858
12.35 -0.03752
12.4 -0.03333
12.45 -0.03373
12.5 -0.0366
12.55 -0.03573
12.6 -0.03297
12.65 -0.03153
12.7 -0.03282
12.75 -0.03216
12.8 -0.03354
12.85 -0.03398
12.9 -0.03022
12.95 -0.02245
13 -0.01587
13.05 -0.01396
13.1 -0.01405
13.15 -0.01258
13.2 -0.00845
13.25 -0.00817
13.3 -0.01257
13.35 -0.01732
13.4 -0.02203
13.45 -0.02138
13.5 -0.02342
13.55 -0.02737
13.6 -0.02469
13.65 -0.02018
13.7 -0.01879
13.75 -0.01365
13.8 -0.00694
13.85 -0.00378
13.9 -0.00147
13.95 -0.00478
14 -0.01024
14.05 -0.0138
14.1 -0.01345
14.15 -0.00905
14.2 -0.0064
14.25 -0.00878
14.3 -0.01405
14.35 -0.0136
14.4 -0.01093
14.45 -0.00728
14.5 -0.00712
14.55 -0.00362
14.6 -0.00266
14.65 -0.00012
14.7 -0.00237
14.75 -0.00338
14.8 -0.0046
14.85 -0.01013
14.9 -0.0096
14.95 -0.01289
15 -0.01407
15.05 -0.0118
15.1 -0.00981
15.15 -0.00783
15.2 -0.00495
15.25 -0.00123
15.3 0.00042
15.35 0.00299
15.4 0.00061
15.45 -0.00346
15.5 -0.00896
15.55 -0.0167
15.6 -0.02325
15.65 -0.02886
15.7 -0.03193
15.75 -0.03081
15.8 -0.02896
15.85 -0.02673
15.9 -0.02677
15.95 -0.02448
16 -0.02173
16.05 -0.01731
16.1 -0.01022
16.15 -0.00946
16.2 -0.00553
16.25 0.00096
16.3 0.0017
16.35 0.00383
16.4 0.00404
16.45 0.00432
16.5 0.00641
16.55 0.00257
16.6 0.00298
16.65 0.00455
16.7 0.00371
16.75 -0.00068
16.8 0.00062
16.85 -0.00237
16.9 -0.00107
16.95 -0.0048
17 -0.00735
17.05 -0.0109
17.1 -0.01035
17.15 -0.00604
17.2 0.00109
17.25 0.002
17.3 -0.00159
17.35 -0.00132
17.4 0.00277
17.45 0.00043
17.5 0.00166
17.55 0.00139
17.6 0.00236
17.65 0.00088
17.7 0.00246
17.75 0.00054
17.8 0.00093
17.85 0.00238
17.9 -0.00099
17.95 0.00056
18 -0.00121
18.05 -0.00128
18.1 -0.003
18.15 -0.00343
18.2 0.00033
18.25 -0.00051
18.3 -0.00054
18.35 0.00074
18.4 0.00013
18.45 0.00369
18.5 0.0081
18.55 0.01191
18.6 0.0155
18.65 0.01311
18.7 0.01395
18.75 0.01031
18.8 0.00318
18.85 -0.00441
18.9 -0.0114
18.95 -0.01646
19 -0.01765
19.05 -0.01788
19.1 -0.01248
19.15 -0.00953
19.2 -0.0042
19.25 0.00126
19.3 0.008
19.35 0.00691
19.4 0.00318
19.45 0.00008
19.5 0.0012
19.55 -0.00067
19.6 -0.00278
19.65 -0.00719
19.7 -0.00659
19.75 -0.00513
19.8 -0.0047
19.85 -0.0003
19.9 0.00442
19.95 0.00859
20 0.0136
20.05 0.01132
20.1 0.00456
20.15 0.00215
20.2 0.00011
20.25 0.00217
20.3 0.00466
20.35 0.00129
20.4 0.00012
20.45 -0.00033
20.5 -0.00519
20.55 -0.00927
20.6 -0.00986
20.65 -0.01312
20.7 -0.01602
20.75 -0.01309
20.8 -0.01404
20.85 -0.0147
20.9 -0.01012
20.95 -0.00827
21 -0.00242
21.05 0.00257
21.1 0.00535
21.15 0.0103
21.2 0.00856
21.25 0.00707
21.3 0.00653
21.35 0.00443
21.4 0.00401
21.45 0.00503
21.5 0.00494
21.55 0.00715
21.6 0.00528
21.65 0.00692
21.7 0.01104
21.75 0.01259
21.8 0.00848
21.85 0.00406
21.9 -0.00053
21.95 -0.00256
22 -0.00743
22.05 -0.01278
22.1 -0.01536
22.15 -0.01997
22.2 -0.01863
22.25 -0.01475
22.3 -0.01123
22.35 -0.0094
22.4 -0.01101
22.45 -0.01272
22.5 -0.01061
22.55 -0.00618
22.6 0.00127
22.65 0.00984
22.7 0.01486
22.75 0.01912
22.8 0.01862
22.85 0.02073
22.9 0.02225
22.95 0.01964
23 0.01901
23.05 0.02066
23.1 0.01651
23.15 0.01069
23.2 0.00423
23.25 0.00018
23.3 -0.00642
23.35 -0.01093
23.4 -0.00957
23.45 -0.0057
23.5 -0.00608
23.55 -0.0063
23.6 -0.0057
23.65 -0.00088
23.7 -0.00115
23.75 0.00149
23.8 0.00489
23.85 0.00685
23.9 0.00704
23.95 0.00182
24 -0.00434
24.05 -0.00956
24.1 -0.01382
24.15 -0.01951
24.2 -0.02199
24.25 -0.02136
24.3 -0.01948
24.35 -0.01494
24.4 -0.01161
24.45 -0.00656
24.5 0.00076
24.55 0.00557
24.6 0.00474
24.65 0.00061
24.7 -0.00138
24.75 -0.00626
24.8 -0.00493
24.85 -0.00417
24.9 -0.00791
24.95 -0.01118
25 -0.01314
25.05 -0.00939
25.1 -0.00367
25.15 -0.00052
25.2 -0.00019
25.25 0.00171
25.3 0.00124
25.35 0.00316
25.4 0.0004
25.45 0.00019
25.5 0.00333
25.55 0.00558
25.6 0.00792
25.65 0.0076
25.7 0.00449
25.75 0.00335
25.8 0.0017
25.85 -0.0035
25.9 -0.00388
25.95 -0.0029
26 -0.00048
26.05 -0.00138
26.1 0.00128
26.15 0.00596
26.2 0.00769
26.25 0.00617
26.3 0.00379
26.35 0.00377
26.4 0.00529
26.45 0.00379
26.5 -0.0002
26.55 -0.0025
26.6 -0.00459
26.65 -0.00749
26.7 -0.00887
26.75 -0.0125
26.8 -0.01261
26.85 -0.01145
26.9 -0.01257
26.95 -0.01616
27 -0.01601
27.05 -0.0132
27.1 -0.00769
27.15 -0.00724
27.2 -0.00934
27.25 -0.01192
27.3 -0.01485
27.35 -0.01532
27.4 -0.01388
27.45 -0.00997
27.5 -0.0067
27.55 -0.00773
27.6 -0.01495
27.65 -0.01903
27.7 -0.02311
27.75 -0.03296
27.8 -0.04762
27.85 -0.06174
27.9 -0.07742
27.95 -0.08881
28 -0.10423
28.05 -0.12087
28.1 -0.13989
28.15 -0.16253
28.2 -0.18644
28.25 -0.21341
28.3 -0.24946
28.35 -0.2874
28.4 -0.32869
28.45 -0.37505
28.5 -0.42643
28.55 -0.48976
28.6 -0.55623
28.65 -0.63205
28.7 -0.70753
28.75 -0.78403
28.8 -0.87136
28.85 -0.95805
28.9 -1.04949
28.95 -1.14107
29 -1.24106
29.05 -1.33826
29.1 -1.43361
29.15 -1.53356
29.2 -1.6317
29.25 -1.72938
29.3 -1.82166
29.35 -1.90845
29.4 -1.98741
29.45 -2.05733
29.5 -2.11984
29.55 -2.17651
29.6 -2.21904
29.65 -2.25412
29.7 -2.27501
29.75 -2.28376
29.8 -2.2823
29.85 -2.26296
29.9 -2.22849
29.95 -2.18625
30 -2.13364
30.05 -2.06905
30.1 -1.99352
30.15 -1.89972
30.2 -1.79293
30.25 -1.67465
30.3 -1.55062
30.35 -1.41709
30.4 -1.2786
30.45 -1.14041
30.5 -1.00151
30.55 -0.85522
30.6 -0.70217
30.65 -0.54896
30.7 -0.39453
30.75 -0.24333
30.8 -0.093
30.85 0.05177
30.9 0.19892
30.95 0.34165
31 0.48245
31.05 0.61628
31.1 0.7388
31.15 0.85625
31.2 0.96895
31.25 1.07887
31.3 1.18193
31.35 1.27698
31.4 1.36088
31.45 1.43763
31.5 1.50368
31.55 1.56249
31.6 1.61243
31.65 1.65846
31.7 1.7006
31.75 1.74239
31.8 1.77914
31.85 1.80909
31.9 1.82965
31.95 1.85034
32 1.8662
32.05 1.87569
32.1 1.87859
32.15 1.87823
32.2 1.8821
32.25 1.88157
32.3 1.87673
32.35 1.87341
32.4 1.86902
32.45 1.8646
32.5 1.85844
32.55 1.85273
32.6 1.84522
32.65 1.83849
32.7 1.82786
32.75 1.81689
32.8 1.79906
32.85 1.77656
32.9 1.7542
32.95 1.73032
33 1.70195
33.05 1.67463
33.1 1.64903
33.15 1.61638
33.2 1.58081
33.25 1.54896
33.3 1.51435
33.35 1.48172
33.4 1.44358
33.45 1.40392
33.5 1.36088
33.55 1.31804
33.6 1.27252
33.65 1.23177
33.7 1.19145
33.75 1.14631
33.8 1.10487
33.85 1.06274
33.9 1.02119
33.95 0.98017
34 0.93503
34.05 0.88843
34.1 0.84272
34.15 0.79358
34.2 0.74949
34.25 0.70455
34.3 0.66337
34.35 0.62057
34.4 0.58007
34.45 0.53611
34.5 0.49376
34.55 0.45346
34.6 0.41142
34.65 0.36992
34.7 0.33283
34.75 0.29967
34.8 0.26522
34.85 0.23381
34.9 0.20383
34.95 0.17062
35 0.14004
35.05 0.11176
35.1 0.08725
35.15 0.06322
35.2 0.04333
35.25 0.02047
35.3 0.00068
35.35 -0.0181
35.4 -0.03907
35.45 -0.0581
35.5 -0.07757
35.55 -0.09448
35.6 -0.11119
35.65 -0.12876
35.7 -0.14736
35.75 -0.16462
35.8 -0.17757
35.85 -0.18989
35.9 -0.20465
35.95 -0.21685
36 -0.22834
36.05 -0.24083
36.1 -0.25457
36.15 -0.26907
36.2 -0.27862
36.25 -0.29033
36.3 -0.30288
36.35 -0.31473
36.4 -0.31818
36.45 -0.32292
36.5 -0.32817
36.55 -0.33287
36.6 -0.33498
36.65 -0.33982
36.7 -0.34427
36.75 -0.34721
36.8 -0.34592
36.85 -0.3426
36.9 -0.3393
36.95 -0.33899
37 -0.33616
37.05 -0.33041
37.1 -0.3258
37.15 -0.32497
37.2 -0.32034
37.25 -0.31327
37.3 -0.31051
37.35 -0.30931
37.4 -0.30978
37.45 -0.30646
37.5 -0.30842
37.55 -0.30947
37.6 -0.31211
37.65 -0.31519
37.7 -0.31425
37.75 -0.30725
37.8 -0.29773
37.85 -0.29394
37.9 -0.29176
37.95 -0.28857
38 -0.28941
38.05 -0.28565
38.1 -0.27875
38.15 -0.27519
38.2 -0.26793
38.25 -0.26047
38.3 -0.25666
38.35 -0.25619
38.4 -0.25678
38.45 -0.25878
38.5 -0.25711
38.55 -0.24988
38.6 -0.24092
38.65 -0.23314
38.7 -0.22695
38.75 -0.22563
38.8 -0.22824
38.85 -0.23139
38.9 -0.23066
38.95 -0.2253
39 -0.22435
39.05 -0.22392
39.1 -0.21868
39.15 -0.20932
39.2 -0.20395
39.25 -0.19691
39.3 -0.19261
39.35 -0.19173
39.4 -0.18825
39.45 -0.18449
39.5 -0.1822
39.55 -0.18046
39.6 -0.18218
39.65 -0.18641
39.7 -0.19022
39.75 -0.19012
39.8 -0.18467
39.85 -0.1799
39.9 -0.17765
39.95 -0.17172
40 -0.16293
40.05 -0.16044
40.1 -0.15448
40.15 -0.14796
40.2 -0.14114
40.25 -0.13471
40.3 -0.12911
40.35 -0.12641
40.4 -0.12329
40.45 -0.12574
40.5 -0.1251
40.55 -0.12388
40.6 -0.12294
40.65 -0.12171
40.7 -0.11978
40.75 -0.11575
40.8 -0.11451
40.85 -0.11083
40.9 -0.11311
40.95 -0.11351
41 -0.11474
41.05 -0.11706
41.1 -0.11747
41.15 -0.11713
41.2 -0.11202
41.25 -0.10586
41.3 -0.09926
41.35 -0.0944
41.4 -0.09308
41.45 -0.09462
41.5 -0.09643
41.55 -0.09334
41.6 -0.09233
41.65 -0.09032
41.7 -0.09301
41.75 -0.09017
41.8 -0.09114
41.85 -0.09493
41.9 -0.09258
41.95 -0.08744
42 -0.08013
42.05 -0.07319
42.1 -0.07261
42.15 -0.06936
42.2 -0.06948
42.25 -0.0739
42.3 -0.08046
42.35 -0.08488
42.4 -0.09038
42.45 -0.09565
42.5 -0.10119
42.55 -0.10494
42.6 -0.10293
42.65 -0.09723
42.7 -0.09011
42.75 -0.08507
42.8 -0.07779
42.85 -0.07605
42.9 -0.07731
42.95 -0.07274
43 -0.07129
43.05 -0.06896
43.1 -0.06677
43.15 -0.0655
43.2 -0.06773
43.25 -0.06795
43.3 -0.06397
43.35 -0.06395
43.4 -0.06416
43.45 -0.06666
43.5 -0.0669
43.55 -0.06509
43.6 -0.0589
43.65 -0.05251
43.7 -0.04365
43.75 -0.03495
43.8 -0.03321
43.85 -0.03021
43.9 -0.02925
43.95 -0.02603
44 -0.02152
44.05 -0.02238
44.1 -0.02164
44.15 -0.02606
44.2 -0.03157
44.25 -0.03663
44.3 -0.03714
44.35 -0.03322
44.4 -0.0298
44.45 -0.03123
44.5 -0.03508
44.55 -0.03838
44.6 -0.03864
44.65 -0.04197
44.7 -0.03921
44.75 -0.03478
44.8 -0.03252
44.85 -0.03375
44.9 -0.03284
44.95 -0.0312
45 -0.02871
45.05 -0.02797
45.1 -0.0246
45.15 -0.02587
45.2 -0.02851
45.25 -0.0269
45.3 -0.02467
45.35 -0.02195
45.4 -0.02142
45.45 -0.0179
45.5 -0.01293
45.55 -0.01238
45.6 -0.01573
45.65 -0.01531
45.7 -0.0135
45.75 -0.01511
45.8 -0.01752
45.85 -0.02281
45.9 -0.02401
45.95 -0.02727
46 -0.02936
46.05 -0.03272
46.1 -0.03208
46.15 -0.02778
46.2 -0.02157
46.25 -0.01469
46.3 -0.00906
46.35 -0.00422
46.4 -0.0057
46.45 -0.00832
46.5 -0.00761
46.55 -0.01034
46.6 -0.01108
46.65 -0.01085
46.7 -0.01046
46.75 -0.00867
46.8 -0.00665
46.85 -0.00636
46.9 -0.01012
46.95 -0.01053
47 -0.01463
47.05 -0.01805
47.1 -0.02075
47.15 -0.02672
47.2 -0.03105
47.25 -0.02855
47.3 -0.0261
47.35 -0.0222
47.4 -0.01536
47.45 -0.0108
47.5 -0.00894
47.55 -0.01109
47.6 -0.01055
47.65 -0.00985
47.7 -0.00813
47.75 -0.00404
47.8 0.00127
47.85 0.0049
47.9 0.00496
47.95 -0.00115
48 -0.0042
48.05 -0.0034
48.1 -0.00587
48.15 -0.01103
48.2 -0.01476
48.25 -0.0144
48.3 -0.01736
48.35 -0.02231
48.4 -0.02937
48.45 -0.02987
48.5 -0.02559
48.55 -0.02267
48.6 -0.01593
48.65 -0.01392
48.7 -0.01604
48.75 -0.02062
48.8 -0.02521
48.85 -0.0279
48.9 -0.02982
48.95 -0.03282
49 -0.03278
49.05 -0.03183
49.1 -0.02666
49.15 -0.02243
49.2 -0.02234
49.25 -0.01708
49.3 -0.01609
49.35 -0.01767
49.4 -0.01366
49.45 -0.01197
49.5 -0.01282
49.55 -0.0151
49.6 -0.01504
49.65 -0.01512
49.7 -0.01524
49.75 -0.0168
49.8 -0.01346
49.85 -0.01401
49.9 -0.01236
49.95 -0.01205
50 -0.01199
50.05 -0.01021
50.1 -0.01052
50.15 -0.01411
50.2 -0.01687
50.25 -0.01339
50.3 -0.01105
50.35 -0.00793
50.4 -0.00217
50.45 0.00407
50.5 0.00402
50.55 0.00275
50.6 0.00286
50.65 -0.00019
50.7 -0.00314
50.75 -0.00869
50.8 -0.01208
50.85 -0.01456
50.9 -0.01462
50.95 -0.01366
51 -0.00917
51.05 -0.01019
51.1 -0.00615
51.15 -0.00793
51.2 -0.00914
51.25 -0.01017
51.3 -0.01467
51.35 -0.01398
51.4 -0.01317
51.45 -0.01334
51.5 -0.01232
51.55 -0.00907
51.6 -0.00374
51.65 -0.00143
51.7 0.00057
51.75 0.00445
51.8 0.00464
51.85 0.00754
51.9 0.01105
51.95 0.01192
52 0.01208
52.05 0.01279
52.1 0.01096
52.15 0.01045
52.2 0.00633
52.25 -0.00154
52.3 -0.00736
52.35 -0.0124
52.4 -0.01681
52.45 -0.01592
52.5 -0.0117
52.55 -0.00666
52.6 -0.00465
52.65 -0.00349
52.7 -0.00677
52.75 -0.01159
52.8 -0.01073
52.85 -0.00704
52.9 -0.00365
52.95 -0.00144
53 -0.00194
53.05 0.00116
53.1 0.00659
53.15 0.01054
53.2 0.01445
53.25 0.01861
53.3 0.02194
53.35 0.02086
53.4 0.01403
53.45 0.00532
53.5 0.0004
53.55 0.00041
53.6 0.00387
53.65 0.00786
53.7 0.0088
53.75 0.01091
53.8 0.01283
53.85 0.00952
53.9 0.00787
53.95 0.00991
54 0.0067
54.05 0.00389
54.1 -0.00221
54.15 -0.00894
54.2 -0.01194
54.25 -0.01416
54.3 -0.01527
54.35 -0.01808
54.4 -0.02244
54.45 -0.02214
54.5 -0.02134
54.55 -0.01842
54.6 -0.01542
54.65 -0.01042
54.7 -0.00599
54.75 -0.00541
54.8 -0.00434
54.85 -0.00163
54.9 0.00224
54.95 0.00511
55 0.00259
55.05 -0.00284
55.1 -0.00785
55.15 -0.01455
55.2 -0.01918
55.25 -0.02074
55.3 -0.01582
55.35 -0.01459
55.4 -0.01253
55.45 -0.00761
55.5 -0.0058
55.55 -0.00296
55.6 -0.00307
55.65 -0.00424
55.7 -0.00408
55.75 -0.00413
55.8 -0.00035
55.85 0.00585
55.9 0.01349
55.95 0.01434
56 0.0105
56.05 0.01003
56.1 0.00978
56.15 0.00695
56.2 0.00364
56.25 -0.00282
56.3 -0.00385
56.35 -0.00355
56.4 -0.00109
56.45 0.00372
56.5 0.01048
56.55 0.01103
56.6 0.01127
56.65 0.00737
56.7 0.00617
56.75 0.00887
56.8 0.01224
56.85 0.01708
56.9 0.02266
56.95 0.02736
57 0.03012
57.05 0.02681
57.1 0.01958
57.15 0.01561
57.2 0.0157
57.25 0.01454
57.3 0.01371
57.35 0.00724
57.4 0.00141
57.45 -0.00312
57.5 -0.00375
57.55 -0.00306
57.6 -0.0053
57.65 -0.01117
57.7 -0.01279
57.75 -0.01391
57.8 -0.01348
57.85 -0.01268
57.9 -0.01572
57.95 -0.01347
58 -0.01094
58.05 -0.01029
58.1 -0.00626
58.15 -0.00096
58.2 0.00597
58.25 0.00894
58.3 0.01085
58.35 0.01223
58.4 0.01399
58.45 0.01765
58.5 0.01843
58.55 0.02122
58.6 0.02332
58.65 0.02454
58.7 0.02064
58.75 0.01338
58.8 0.00693
58.85 0.0005
58.9 -0.00737
58.95 -0.01408
59 -0.0171
59.05 -0.01598
59.1 -0.01868
59.15 -0.01523
59.2 -0.01553
59.25 -0.01354
59.3 -0.01592
59.35 -0.01829
59.4 -0.01892
59.45 -0.01909
59.5 -0.02249
59.55 -0.02582
59.6 -0.02937
59.65 -0.03223
59.7 -0.03438
59.75 -0.03696
59.8 -0.03706
59.85 -0.03562
59.9 -0.0281
59.95 -0.02113
60 -0.01584
60.05 -0.01191
60.1 -0.00978
60.15 -0.00349
60.2 0.00273
60.25 0.00671
60.3 0.00661
60.35 0.00798
60.4 0.01099
60.45 0.01261
60.5 0.00819
60.55 0.00384
60.6 -0.00119
60.65 -0.00795
60.7 -0.01599
60.75 -0.01879
60.8 -0.02131
60.85 -0.01705
60.9 -0.00942
60.95 -0.00803
61 -0.01006
61.05 -0.00962
61.1 -0.00486
61.15 -0.00525
61.2 -0.00682
61.25 -0.0034
61.3 0.00243
61.35 0.004
61.4 0.00156
61.45 0.00028
61.5 -0.00216
61.55 -0.00057
61.6 -0.00341
61.65 -0.002
61.7 -0.00451
61.75 -0.00502
61.8 -0.00632
61.85 -0.00284
61.9 -0.00014
61.95 -0.00169
62 -0.00491
62.05 -0.00665
62.1 -0.01133
62.15 -0.01591
62.2 -0.01469
62.25 -0.01646
62.3 -0.01758
62.35 -0.01811
62.4 -0.01664
62.45 -0.00972
62.5 -0.00314
62.55 0.00393
62.6 0.00483
62.65 0.00215
62.7 -0.00077
62.75 0.0011
62.8 0.00081
62.85 0.00464
62.9 0.01034
62.95 0.01765
63 0.02499
63.05 0.0246
63.1 0.01969
63.15 0.01877
63.2 0.0202
63.25 0.01663
63.3 0.01123
63.35 0.01006
63.4 0.0059
63.45 0.00699
63.5 0.0068
63.55 0.00516
63.6 0.00441
63.65 -0.00085
63.7 -0.00678
63.75 -0.00841
63.8 -0.0086
63.85 -0.01082
63.9 -0.01188
63.95 -0.00995
64 -0.00478
64.05 -0.00365
64.1 0.0017
64.15 0.00542
64.2 0.00993
64.25 0.0123
64.3 0.01407
64.35 0.01692
64.4 0.01424
64.45 0.00953
64.5 0.00587
64.55 -0.00081
64.6 -0.00706
64.65 -0.01344
64.7 -0.01407
64.75 -0.01716
64.8 -0.01368
64.85 -0.01406
64.9 -0.01419
64.95 -0.01313
65 -0.01523
65.05 -0.01793
65.1 -0.0165
65.15 -0.01708
65.2 -0.01796
65.25 -0.01994
65.3 -0.01749
65.35 -0.01329
65.4 -0.01172
65.45 -0.01333
65.5 -0.014
65.55 -0.01052
65.6 -0.00546
65.65 -0.00452
65.7 -0.00037
65.75 -0.0012
65.8 0.00271
65.85 0.0008
65.9 -0.00126
65.95 0.00138
66 0.00602
66.05 0.01159
66.1 0.01731
66.15 0.02314
66.2 0.02306
66.25 0.018
66.3 0.01275
66.35 0.01272
66.4 0.00982
66.45 0.00312
66.5 0.00216
66.55 -0.00043
66.6 -0.00324
66.65 -0.00482
66.7 -0.00099
66.75 0.00065
66.8 -0.00196
66.85 -0.00243
66.9 0.00155
66.95 0.00279
67 0.00347
67.05 0.00545
67.1 0.00919
67.15 0.00937
67.2 0.01171
67.25 0.0119
67.3 0.00695
67.35 0.00729
67.4 0.00423
67.45 -0.00097
67.5 -0.00622
67.55 -0.01126
67.6 -0.0179
67.65 -0.02231
67.7 -0.02416
67.75 -0.02046
67.8 -0.01319
67.85 -0.01103
67.9 -0.00966
67.95 -0.00864
68 -0.00777
68.05 -0.01041
68.1 -0.0148
68.15 -0.01175
68.2 -0.01141
68.25 -0.01076
68.3 -0.00481
68.35 -0.00207
68.4 0.00093
68.45 0.00427
68.5 0.00977
68.55 0.01698
68.6 0.01934
68.65 0.02352
68.7 0.02213
68.75 0.02288
68.8 0.02151
68.85 0.02324
68.9 0.02399
68.95 0.01885
69 0.01301
69.05 0.01219
69.1 0.00793
69.15 0.00666
69.2 0.00083
69.25 -0.00696
69.3 -0.01373
69.35 -0.01291
69.4 -0.00754
69.45 -0.00137
69.5 0.0031
69.55 0.00178
69.6 -0.00254
69.65 -0.00511
69.7 -0.00493
69.75 -0.00576
69.8 -0.00686
69.85 -0.0048
69.9 -0.00122
69.95 0.00244
70 0.0056
70.05 0.00554
70.1 0.00685
70.15 0.00827
70.2 0.00687
70.25 0.00546
70.3 0.00428
70.35 0.00149
70.4 0.00113
70.45 -0.00042
70.5 -0.00242
70.55 -0.00463
70.6 -0.00666
70.65 -0.00633
70.7 -0.00524
70.75 -0.00132
70.8 0.00435
70.85 0.00928
70.9 0.00805
70.95 0.00318
71 -0.00456
71.05 -0.00522
71.1 -0.00359
71.15 -0.00033
71.2 -0.00014
71.25 -0.00284
71.3 -0.00098
71.35 -0.00099
71.4 0.00231
71.45 0.00095
71.5 0.00015
71.55 -0.00437
71.6 -0.0025
71.65 0.00188
71.7 0.00507
71.75 0.00311
71.8 -0.00005
71.85 0.00034
71.9 0.00159
71.95 0.00358
72 0.00661
72.05 0.00949
72.1 0.00666
72.15 0.00496
72.2 -0.00018
72.25 -0.00585
72.3 -0.00682
72.35 -0.00662
72.4 -0.00411
72.45 -0.00498
72.5 -0.00151
72.55 -0.00297
72.6 0.00054
72.65 0.00083
72.7 0.003
72.75 0.00528
72.8 0.00339
72.85 0.00371
72.9 0.00597
72.95 0.01013
73 0.00991
73.05 0.00593
73.1 0.00167
73.15 0.00161
73.2 0.00249
73.25 0.00024
73.3 0.00143
73.35 0.004
73.4 0.00422
73.45 0.00215
73.5 0.00175
73.55 -0.0028
73.6 -0.00801
73.65 -0.01142
73.7 -0.01015
73.75 -0.00809
73.8 -0.00512
73.85 -0.00544
73.9 -0.00854
73.95 -0.00625
74 -0.00396
74.05 -0.00583
74.1 -0.0068
74.15 -0.01112
74.2 -0.01607
74.25 -0.0208
74.3 -0.02199
74.35 -0.02387
74.4 -0.01948
74.45 -0.0191
74.5 -0.0152
74.55 -0.01278
74.6 -0.00691
74.65 -0.00167
74.7 -0.00052
74.75 0.00344
74.8 0.00795
74.85 0.00764
74.9 0.00448
74.95 0.0022
75 -0.00159
75.05 -0.0053
75.1 -0.01109
75.15 -0.01789
75.2 -0.01651
75.25 -0.01187
75.3 -0.00396
75.35 0.0027
75.4 0.00967
75.45 0.01113
75.5 0.01537
75.55 0.01669
75.6 0.02032
75.65 0.01756
75.7 0.01417
75.75 0.00907
75.8 0.00579
75.85 0.0063
75.9 0.00617
75.95 0.00688
76 0.00286
76.05 -0.00126
76.1 -0.00635
76.15 -0.00577
76.2 -0.00502
76.25 -0.00152
76.3 0.00287
76.35 0.00775
76.4 0.00926
76.45 0.00846
76.5 0.00879
76.55 0.00698
76.6 0.00219
76.65 -0.00091
76.7 -0.00554
76.75 -0.01219
76.8 -0.01678
76.85 -0.01475
76.9 -0.01139
76.95 -0.01035
77 -0.0044
77.05 -0.00144
77.1 0.0029
77.15 0.00221
77.2 0.00076
77.25 0.00293
77.3 0.00563
77.35 0.00575
77.4 0.00613
77.45 0.00975
77.5 0.00773
77.55 0.00633
77.6 0.00742
77.65 0.00417
77.7 0.00513
77.75 0.00552
77.8 0.00216
77.85 0.00048
77.9 -0.00349
77.95 -0.00591
78 -0.00916
78.05 -0.00905
78.1 -0.00412
78.15 0.00264
78.2 0.00416
78.25 0.00134
78.3 -0.00448
78.35 -0.01069
78.4 -0.01815
78.45 -0.01752
78.5 -0.01742
78.55 -0.02013
78.6 -0.01625
78.65 -0.01337
78.7 -0.00688
78.75 -0.00469
78.8 -0.00252
78.85 0.0025
78.9 0.0049
78.95 0.00267
79 0.00215
79.05 -0.00167
79.1 -0.00025
79.15 0.00438
79.2 0.01038
79.25 0.0135
79.3 0.01749
79.35 0.02203
79.4 0.02296
79.45 0.0185
79.5 0.01595
79.55 0.01594
79.6 0.01568
79.65 0.017
79.7 0.01996
79.75 0.01615
79.8 0.01407
79.85 0.00871
79.9 0.00234
79.95 -0.00431
80 -0.00782
80.05 -0.00781
80.1 -0.00418
80.15 -0.00022
80.2 -0.00143
80.25 -0.00244
80.3 -0.00433
80.35 -0.00294
80.4 0.00128
80.45 0.00777
80.5 0.00975
80.55 0.00749
80.6 0.00273
80.65 -0.00511
80.7 -0.01106
80.75 -0.01112
80.8 -0.01207
80.85 -0.00854
80.9 -0.00866
80.95 -0.00546
81 -0.00162
81.05 -0.00042
81.1 0.00211
81.15 0.00377
81.2 0.00638
81.25 0.00755
81.3 0.00931
81.35 0.0095
81.4 0.01125
81.45 0.0089
81.5 0.00499
81.55 0.00615
81.6 0.00834
81.65 0.00484
81.7 0.00239
81.75 0.00181
81.8 -0.00203
81.85 -0.00852
81.9 -0.00879
81.95 -0.01083
82 -0.00977
82.05 -0.00718
82.1 -0.00636
82.15 -0.00128
82.2 0.00099
82.25 0.00117
82.3 0.00252
82.35 0.00329
82.4 0.00697
82.45 0.00983
82.5 0.01233
82.55 0.01238
82.6 0.01129
82.65 0.00688
82.7 0.00377
82.75 0.00033
82.8 -0.00496
82.85 -0.00935
82.9 -0.01158
82.95 -0.01064
83 -0.00979
83.05 -0.00474
83.1 -0.00434
83.15 -0.00334
83.2 -0.00054
83.25 -0.00061
83.3 -0.00055
83.35 0.00162
83.4 0.00419
83.45 0.00857
83.5 0.00786
83.55 0.00344
83.6 -0.0028
83.65 -0.00244
83.7 0.00072
83.75 0.00012
83.8 -0.00345
83.85 -0.00434
83.9 -0.00119
83.95 -0.00032
84 -0.0014
84.05 -0.00249
84.1 -0.00707
84.15 -0.00773
84.2 -0.00435
84.25 -0.00117
84.3 0.00104
84.35 0.00437
84.4 0.00872
84.45 0.00934
84.5 0.00684
84.55 0.00554
84.6 0.00544
84.65 0.00272
84.7 0.00348
84.75 0.00265
84.8 0.00354
84.85 0.00773
84.9 0.00949
84.95 0.0138
85 0.01207
85.05 0.00935
85.1 0.00842
85.15 0.00523
85.2 0.00505
85.25 0.00503
85.3 0.00086
85.35 -0.00082
85.4 -0.00391
85.45 -0.00654
85.5 -0.0091
85.55 -0.01174
85.6 -0.01481
85.65 -0.01629
85.7 -0.02053
85.75 -0.02159
85.8 -0.02323
85.85 -0.0243
85.9 -0.02739
85.95 -0.03014
86 -0.02789
86.05 -0.02357
86.1 -0.01489
86.15 -0.00623
86.2 0.00232
86.25 0.0102
86.3 0.0149
86.35 0.01357
86.4 0.01349
86.45 0.01393
86.5 0.01398
86.55 0.01504
86.6 0.01227
86.65 0.011
86.7 0.00604
86.75 -0.00133
86.8 -0.00178
86.85 0.00181
86.9 0.00153
86.95 -0.00203
87 -0.0047
87.05 -0.00543
87.1 -0.00749
87.15 -0.00801
87.2 -0.0045
87.25 0.00079
87.3 0.00729
87.35 0.01388
87.4 0.01657
87.45 0.01436
87.5 0.01547
87.55 0.01391
87.6 0.00965
87.65 0.0101
87.7 0.01079
87.75 0.01327
87.8 0.01182
87.85 0.00716
87.9 -0.00109
87.95 -0.0026
88 -0.00155
88.05 -0.00124
88.1 -0.00013
88.15 -0.00099
88.2 -0.00362
88.25 -0.0041
88.3 -0.00179
88.35 0.00346
88.4 0.01056
88.45 0.01671
88.5 0.02258
88.55 0.02545
88.6 0.02388
88.65 0.01925
88.7 0.0151
88.75 0.00831
88.8 0.00304
88.85 0.00124
88.9 -0.00095
88.95 -0.00069
89 -0.00315
89.05 -0.00084
89.1 -0.00009
89.15 0.00117
89.2 -0.00145
89.25 -0.00206
89.3 -0.00307
89.35 -0.00149
89.4 0.00125
89.45 -0.00035
89.5 -0.00005
89.55 0.00325
89.6 0.0002
89.65 -0.00502
89.7 -0.00997
89.75 -0.01241
89.8 -0.0098
89.85 -0.00548
89.9 -0.00113
89.95 -0.00048
90 -0.00421
90.05 -0.00918
90.1 -0.01014
90.15 -0.01382
90.2 -0.01413
90.25 -0.01043
90.3 -0.01075
90.35 -0.00699
90.4 -0.00228
90.45 0.00013
90.5 0.00508
90.55 0.00651
90.6 0.00263
90.65 -0.00121
90.7 0.00004
90.75 0.00341
90.8 0.00635
90.85 0.0048
90.9 -0.00072
90.95 -0.00329
91 -0.00298
91.05 -0.00402
91.1 -0.0013
91.15 0.00419
91.2 0.00805
91.25 0.00674
91.3 0.00193
91.35 -0.00177
91.4 -0.0074
91.45 -0.01309
91.5 -0.01812
91.55 -0.01899
91.6 -0.0151
91.65 -0.01402
91.7 -0.0121
91.75 -0.009
91.8 -0.00958
91.85 -0.00829
91.9 -0.01102
91.95 -0.01102
92 -0.01124
92.05 -0.01079
92.1 -0.01191
92.15 -0.00743
92.2 -0.00834
92.25 -0.00487
92.3 -0.00611
92.35 -0.00646
92.4 -0.00324
92.45 -0.00205
92.5 -0.00517
92.55 -0.00299
92.6 -0.00054
92.65 0.00326
92.7 0.00501
92.75 0.00808
92.8 0.00812
92.85 0.00658
92.9 0.00224
92.95 0.00347
93 0.00564
93.05 0.00698
93.1 0.00378
93.15 0.00342
93.2 0.00702
93.25 0.00825
93.3 0.00756
93.35 0.00258
93.4 -0.00103
93.45 -0.00143
93.5 -0.00333
93.55 -0.00208
93.6 -0.00398
93.65 -0.00608
93.7 -0.00566
93.75 -0.00689
93.8 -0.00533
93.85 -0.00534
93.9 -0.0058
93.95 -0.00421
94 0.00041
94.05 0.0073
94.1 0.00756
94.15 0.00741
94.2 0.01065
94.25 0.00925
94.3 0.00555
94.35 -0.00072
94.4 -0.00209
94.45 -0.00322
94.5 -0.006
94.55 -0.0046
94.6 -0.00513
94.65 -0.00519
94.7 -0.00789
94.75 -0.01002
94.8 -0.01486
94.85 -0.01705
94.9 -0.01753
94.95 -0.01426
95 -0.01504
95.05 -0.01152
95.1 -0.00602
95.15 0.00097
95.2 0.00421
95.25 0.00584
95.3 0.00544
95.35 0.00715
95.4 0.00558
95.45 0.0072
95.5 0.01185
95.55 0.00955
95.6 0.0077
95.65 0.00992
95.7 0.01263
95.75 0.01021
95.8 0.00895
95.85 0.00595
95.9 0.00455
95.95 0.00129
96 -0.00042
96.05 -0.00432
96.1 -0.00819
96.15 -0.01049
96.2 -0.0104
96.25 -0.01306
96.3 -0.01092
96.35 -0.01237
96.4 -0.01115
96.45 -0.00907
96.5 -0.00312
96.55 -0.00072
96.6 0.00201
96.65 0.00468
96.7 0.00215
96.75 0.0014
96.8 0.0021
96.85 -0.00159
96.9 -0.00091
96.95 0.0029
97 0.00725
97.05 0.00774
97.1 0.00533
97.15 0.00249
97.2 0.00454
97.25 0.00099
97.3 -0.00563
97.35 -0.00664
97.4 -0.00352
97.45 -0.0019
97.5 0.0033
97.55 0.00964
97.6 0.00832
97.65 0.00506
97.7 -0.00023
97.75 0.00038
97.8 0.00462
97.85 0.00395
97.9 0.00456
97.95 0.00148
98 0.00283
98.05 0.006
98.1 0.00296
98.15 -0.0024
98.2 -0.00782
98.25 -0.00938
98.3 -0.01196
98.35 -0.01216
98.4 -0.01197
98.45 -0.01051
98.5 -0.00698
98.55 -0.00357
98.6 0.00121
98.65 0.00457
98.7 0.00553
98.75 0.00548
98.8 0.00602
98.85 0.00999
98.9 0.01363
98.95 0.01706
99 0.01954
99.05 0.02258
99.1 0.02644
99.15 0.02964
99.2 0.03287
99.25 0.03142
99.3 0.02695
99.35 0.01842
99.4 0.01463
99.45 0.01355
99.5 0.00902
99.55 0.00159
99.6 -0.00778
99.65 -0.01445
99.7 -0.02055
99.75 -0.02111
99.8 -0.02264
99.85 -0.02611
99.9 -0.02918
99.95 -0.0297
