0 0
0.05 0.00421
0.1 0.00802
0.15 0.01017
0.2 0.01734
0.25 0.02377
0.3 0.02966
0.35 0.03576
0.4 0.03829
0.45 0.04331
0.5 0.04343
0.55 0.0452
0.6 0.0446
0.65 0.04827
0.7 0.04634
0.75 0.04379
0.8 0.04454
0.85 0.04807
0.9 0.04842
0.95 0.05128
1 0.04932
1.05 0.04721
1.1 0.04599
1.15 0.04669
1.2 0.04484
1.25 0.04531
1.3 0.04389
1.35 0.0439
1.4 0.04333
1.45 0.0421
1.5 0.04239
1.55 0.0404
1.6 0.03473
1.65 0.02732
1.7 0.02124
1.75 0.02185
1.8 0.02134
1.85 0.02416
1.9 0.02978
1.95 0.0294
2 0.02531
2.05 0.0231
2.1 0.01977
2.15 0.0156
2.2 0.01052
2.25 0.00749
2.3 0.00556
2.35 0.01025
2.4 0.01794
2.45 0.01983
2.5 0.02029
2.55 0.01793
2.6 0.01659
2.65 0.01984
2.7 0.02099
2.75 0.02357
2.8 0.02387
2.85 0.02314
2.9 0.02018
2.95 0.01685
3 0.01309
3.05 0.01271
3.1 0.00936
3.15 0.00914
3.2 0.01163
3.25 0.01517
3.3 0.01962
3.35 0.02422
3.4 0.02762
3.45 0.0329
3.5 0.03905
3.55 0.04356
3.6 0.04373
3.65 0.04467
3.7 0.0438
3.75 0.04303
3.8 0.03773
3.85 0.03437
3.9 0.02712
3.95 0.01804
4 0.01153
4.05 0.00918
4.1 0.00387
4.15 0.00276
4.2 0.00156
4.25 0.00387
4.3 0.00836
4.35 0.00937
4.4 0.01107
4.45 0.00748
4.5 0.00243
4.55 -0.00393
4.6 -0.01229
4.65 -0.01714
4.7 -0.02391
4.75 -0.0342
4.8 -0.04417
4.85 -0.05718
4.9 -0.06795
4.95 -0.07907
5 -0.09379
5.05 -0.10668
5.1 -0.12184
5.15 -0.13208
5.2 -0.14316
5.25 -0.15507
5.3 -0.16564
5.35 -0.17715
5.4 -0.19303
5.45 -0.20697
5.5 -0.2213
5.55 -0.23278
5.6 -0.24052
5.65 -0.23971
5.7 -0.23962
5.75 -0.23254
5.8 -0.22328
5.85 -0.21052
5.9 -0.18869
5.95 -0.16758
6 -0.14413
6.05 -0.11786
6.1 -0.08713
6.15 -0.05051
6.2 -0.01834
6.25 0.01047
6.3 0.04251
6.35 0.07547
6.4 0.10313
6.45 0.12359
6.5 0.13744
6.55 0.14821
6.6 0.16031
6.65 0.17173
6.7 0.1746
6.75 0.17225
6.8 0.17117
6.85 0.16353
6.9 0.15849
6.95 0.15055
7 0.14011
7.05 0.12847
7.1 0.11956
7.15 0.1113
7.2 0.10352
7.25 0.10068
7.3 0.09872
7.35 0.09717
7.4 0.09335
7.45 0.09307
7.5 0.09453
7.55 0.09623
7.6 0.10211
7.65 0.1103
7.7 0.11724
7.75 0.11978
7.8 0.11999
7.85 0.12122
7.9 0.12252
7.95 0.12338
8 0.1239
8.05 0.12658
8.1 0.13246
8.15 0.1344
8.2 0.13832
8.25 0.13806
8.3 0.13622
8.35 0.13666
8.4 0.13879
8.45 0.1382
8.5 0.13343
8.55 0.12622
8.6 0.11733
8.65 0.11205
8.7 0.11043
8.75 0.10857
8.8 0.10789
8.85 0.10354
8.9 0.09823
8.95 0.09505
9 0.09236
9.05 0.08404
9.1 0.07484
9.15 0.06225
9.2 0.05006
9.25 0.04272
9.3 0.03765
9.35 0.03444
9.4 0.03071
9.45 0.02767
9.5 0.01922
9.55 0.01008
9.6 0.0053
9.65 -0.00286
9.7 -0.01001
9.75 -0.01738
9.8 -0.02072
9.85 -0.02245
9.9 -0.02689
9.95 -0.02803
10 -0.02905
10.05 -0.03348
10.1 -0.03937
10.15 -0.03977
10.2 -0.0387
10.25 -0.03512
10.3 -0.03386
10.35 -0.02849
10.4 -0.02576
10.45 -0.02671
10.5 -0.02864
10.55 -0.03044
10.6 -0.03147
10.65 -0.03006
10.7 -0.02997
10.75 -0.02629
10.8 -0.02701
10.85 -0.02645
10.9 -0.02163
10.95 -0.01905
11 -0.01332
11.05 -0.01324
11.1 -0.0125
11.15 -0.01434
11.2 -0.01972
11.25 -0.02381
11.3 -0.02284
11.35 -0.0186
11.4 -0.01138
11.45 -0.00417
11.5 0.00324
11.55 0.0105
11.6 0.01444
11.65 0.01847
11.7 0.01564
11.75 0.01293
11.8 0.01035
11.85 0.01033
11.9 0.00837
11.95 0.00918
12 0.01059
12.05 0.00728
12.1 0.00095
12.15 -0.00391
12.2 -0.00804
12.25 -0.01253
12.3 -0.01797
12.35 -0.02539
12.4 -0.02932
12.45 -0.02674
12.5 -0.02675
12.55 -0.02724
12.6 -0.02459
12.65 -0.02071
12.7 -0.01971
12.75 -0.02133
12.8 -0.02034
12.85 -0.02144
12.9 -0.02507
12.95 -0.0272
13 -0.02399
13.05 -0.01699
13.1 -0.01141
13.15 -0.00918
13.2 -0.00994
13.25 -0.01246
13.3 -0.01252
13.35 -0.01583
13.4 -0.01926
13.45 -0.0175
13.5 -0.0191
13.55 -0.01567
13.6 -0.00997
13.65 -0.00723
13.7 -0.00292
13.75 -0.00378
13.8 -0.00452
13.85 -0.00529
13.9 -0.00929
13.95 -0.01537
14 -0.02011
14.05 -0.02452
14.1 -0.02354
14.15 -0.02522
14.2 -0.02386
14.25 -0.02396
14.3 -0.02037
14.35 -0.01707
14.4 -0.01429
14.45 -0.01422
14.5 -0.01642
14.55 -0.01762
14.6 -0.02056
14.65 -0.02083
14.7 -0.02076
14.75 -0.01971
14.8 -0.01507
14.85 -0.0083
14.9 0.0005
14.95 0.00724
15 0.01025
15.05 0.00959
15.1 0.01202
15.15 0.01414
15.2 0.01023
15.25 0.00891
15.3 0.01013
15.35 0.01059
15.4 0.00795
15.45 0.00423
15.5 0.00069
15.55 -0.00429
15.6 -0.01122
15.65 -0.0182
15.7 -0.01741
15.75 -0.01813
15.8 -0.017
15.85 -0.01361
15.9 -0.00727
15.95 0.00059
16 0.0031
16.05 0.00473
16.1 0.00547
16.15 0.00591
16.2 0.00574
16.25 0.00316
16.3 -0.00041
16.35 -0.00518
16.4 -0.00499
16.45 -0.00178
16.5 -0.00132
16.55 -0.00244
16.6 -0.00394
16.65 -0.00408
16.7 -0.00125
16.75 0.00346
16.8 0.00513
16.85 0.00193
16.9 0.00209
16.95 0.00209
17 0.0029
17.05 -0.00103
17.1 -0.00276
17.15 -0.00085
17.2 -0.00235
17.25 -0.00219
17.3 -0.00378
17.35 -0.00886
17.4 -0.01303
17.45 -0.01855
17.5 -0.0189
17.55 -0.01965
17.6 -0.01486
17.65 -0.00767
17.7 -0.00451
17.75 -0.00102
17.8 0.0024
17.85 0.00442
17.9 0.00377
17.95 0.00598
18 0.00851
18.05 0.01021
18.1 0.00934
18.15 0.00621
18.2 0.0049
18.25 0.00664
18.3 0.01026
18.35 0.01247
18.4 0.01405
18.45 0.0134
18.5 0.00971
18.55 0.00916
18.6 0.00626
18.65 -0.00034
18.7 -0.00563
18.75 -0.00473
18.8 -0.00334
18.85 -0.00482
18.9 -0.00219
18.95 0.00274
19 0.00343
19.05 0.00323
19.1 0.00479
19.15 0.00221
19.2 0.00274
19.25 0.00469
19.3 0.00161
19.35 -0.00219
19.4 -0.0088
19.45 -0.01377
19.5 -0.02
19.55 -0.01926
19.6 -0.01879
19.65 -0.01572
19.7 -0.0134
19.75 -0.01285
19.8 -0.01294
19.85 -0.01525
19.9 -0.01384
19.95 -0.0122
20 -0.01319
20.05 -0.01624
20.1 -0.01294
20.15 -0.01104
20.2 -0.01169
20.25 -0.01102
20.3 -0.00774
20.35 -0.00085
20.4 0.00695
20.45 0.01176
20.5 0.01119
20.55 0.01018
20.6 0.00638
20.65 0.00492
20.7 0.00525
20.75 0.00155
20.8 0.00094
20.85 0.0046
20.9 0.00953
20.95 0.01241
21 0.00993
21.05 0.00745
21.1 0.00388
21.15 0.00182
21.2 0.00119
21.25 -0.0028
21.3 -0.00554
21.35 -0.01027
21.4 -0.00982
21.45 -0.00513
21.5 -0.00227
21.55 0.00214
21.6 0.00655
21.65 0.00988
21.7 0.01305
21.75 0.01592
21.8 0.01696
21.85 0.01613
21.9 0.01558
21.95 0.01553
22 0.01448
22.05 0.01271
22.1 0.01242
22.15 0.01435
22.2 0.01676
22.25 0.01634
22.3 0.01084
22.35 0.00894
22.4 0.00993
22.45 0.01137
22.5 0.01114
22.55 0.00575
22.6 0.0008
22.65 -0.00527
22.7 -0.01257
22.75 -0.01569
22.8 -0.01445
22.85 -0.01564
22.9 -0.0115
22.95 -0.00806
23 -0.00481
23.05 0.00056
23.1 0.00219
23.15 0.00587
23.2 0.00434
23.25 0.0014
23.3 0.00294
23.35 0.0041
23.4 0.00117
23.45 -0.00107
23.5 -0.00084
23.55 0.00014
23.6 0.00284
23.65 0.0039
23.7 0.00445
23.75 0.00627
23.8 0.01006
23.85 0.01344
23.9 0.01346
23.95 0.01571
24 0.01719
24.05 0.01248
24.1 0.01063
24.15 0.01059
24.2 0.01028
24.25 0.0078
24.3 0.00742
24.35 0.00935
24.4 0.00591
24.45 -0.00064
24.5 -0.00512
24.55 -0.01044
24.6 -0.01474
24.65 -0.01288
24.7 -0.01285
24.75 -0.01626
24.8 -0.01747
24.85 -0.02085
24.9 -0.02508
24.95 -0.02404
25 -0.021
25.05 -0.01993
25.1 -0.01991
25.15 -0.01918
25.2 -0.01366
25.25 -0.00838
25.3 -0.00588
25.35 -0.00588
25.4 -0.00636
25.45 -0.00559
25.5 -0.00419
25.55 -0.00208
25.6 0.00306
25.65 0.00755
25.7 0.01056
25.75 0.0103
25.8 0.00714
25.85 0.0011
25.9 -0.00005
25.95 0.00168
26 0.00593
26.05 0.00578
26.1 0.00821
26.15 0.00542
26.2 0.00215
26.25 -0.00172
26.3 -0.00055
26.35 -0.00356
26.4 -0.00897
26.45 -0.00997
26.5 -0.0094
26.55 -0.00498
26.6 0.00172
26.65 0.0076
26.7 0.00908
26.75 0.01078
26.8 0.00721
26.85 0.00565
26.9 0.0017
26.95 -0.00544
27 -0.01262
27.05 -0.01617
27.1 -0.01978
27.15 -0.0184
27.2 -0.01968
27.25 -0.02215
27.3 -0.02311
27.35 -0.0191
27.4 -0.01595
27.45 -0.01595
27.5 -0.02048
27.55 -0.02352
27.6 -0.02371
27.65 -0.0261
27.7 -0.03071
27.75 -0.03262
27.8 -0.03874
27.85 -0.04696
27.9 -0.05422
27.95 -0.06718
28 -0.08311
28.05 -0.096
28.1 -0.10891
28.15 -0.12587
28.2 -0.15205
28.25 -0.17912
28.3 -0.20863
28.35 -0.24648
28.4 -0.28459
28.45 -0.33115
28.5 -0.37933
28.55 -0.42844
28.6 -0.4863
28.65 -0.55145
28.7 -0.61939
28.75 -0.69375
28.8 -0.77587
28.85 -0.8568
28.9 -0.94586
28.95 -1.03514
29 -1.13026
29.05 -1.22672
29.1 -1.32105
29.15 -1.41561
29.2 -1.50728
29.25 -1.60184
29.3 -1.69771
29.35 -1.78636
29.4 -1.87058
29.45 -1.94521
29.5 -2.01449
29.55 -2.07833
29.6 -2.12953
29.65 -2.17703
29.7 -2.20992
29.75 -2.23613
29.8 -2.24589
29.85 -2.24809
29.9 -2.23287
29.95 -2.20711
30 -2.16881
30.05 -2.1225
30.1 -2.05961
30.15 -1.98746
30.2 -1.90247
30.25 -1.80517
30.3 -1.70099
30.35 -1.58324
30.4 -1.46166
30.45 -1.33568
30.5 -1.20048
30.55 -1.06356
30.6 -0.9242
30.65 -0.78024
30.7 -0.63015
30.75 -0.47353
30.8 -0.31436
30.85 -0.15855
30.9 -0.00832
30.95 0.14071
31 0.28752
31.05 0.42951
31.1 0.56857
31.15 0.69778
31.2 0.82312
31.25 0.94239
31.3 1.05216
31.35 1.15605
31.4 1.24864
31.45 1.33407
31.5 1.40956
31.55 1.47544
31.6 1.53509
31.65 1.59316
31.7 1.64479
31.75 1.68944
31.8 1.7281
31.85 1.76279
31.9 1.79627
31.95 1.82435
32 1.84985
32.05 1.87342
32.1 1.89268
32.15 1.907
32.2 1.91449
32.25 1.91859
32.3 1.91982
32.35 1.92111
32.4 1.91974
32.45 1.91553
32.5 1.90889
32.55 1.8985
32.6 1.88528
32.65 1.86547
32.7 1.84905
32.75 1.83172
32.8 1.8148
32.85 1.79701
32.9 1.77623
32.95 1.75122
33 1.72203
33.05 1.69106
33.1 1.66317
33.15 1.63281
33.2 1.60587
33.25 1.57898
33.3 1.55186
33.35 1.51884
33.4 1.48034
33.45 1.4379
33.5 1.39505
33.55 1.3527
33.6 1.31071
33.65 1.26548
33.7 1.21799
33.75 1.17634
33.8 1.13879
33.85 1.09958
33.9 1.05839
33.95 1.01887
34 0.97291
34.05 0.92955
34.1 0.88509
34.15 0.83969
34.2 0.79148
34.25 0.74116
34.3 0.69119
34.35 0.64919
34.4 0.61021
34.45 0.57201
34.5 0.53389
34.55 0.49445
34.6 0.45601
34.65 0.41763
34.7 0.37706
34.75 0.34047
34.8 0.30747
34.85 0.27431
34.9 0.24062
34.95 0.20621
35 0.17593
35.05 0.14546
35.1 0.11486
35.15 0.08558
35.2 0.05715
35.25 0.03554
35.3 0.0179
35.35 -0.00271
35.4 -0.02104
35.45 -0.03607
35.5 -0.05277
35.55 -0.07207
35.6 -0.09363
35.65 -0.11414
35.7 -0.13608
35.75 -0.15213
35.8 -0.17128
35.85 -0.18642
35.9 -0.20377
35.95 -0.21563
36 -0.22229
36.05 -0.23366
36.1 -0.24437
36.15 -0.2529
36.2 -0.25774
36.25 -0.26701
36.3 -0.2717
36.35 -0.279
36.4 -0.28938
36.45 -0.29431
36.5 -0.30213
36.55 -0.30603
36.6 -0.3117
36.65 -0.31723
36.7 -0.3251
36.75 -0.32815
36.8 -0.33122
36.85 -0.32964
36.9 -0.33027
36.95 -0.32833
37 -0.32743
37.05 -0.33014
37.1 -0.3348
37.15 -0.33611
37.2 -0.33347
37.25 -0.33234
37.3 -0.3264
37.35 -0.31947
37.4 -0.31093
37.45 -0.30622
37.5 -0.3037
37.55 -0.30402
37.6 -0.30355
37.65 -0.29946
37.7 -0.29794
37.75 -0.29926
37.8 -0.29854
37.85 -0.29768
37.9 -0.29755
37.95 -0.29178
38 -0.28584
38.05 -0.2813
38.1 -0.28075
38.15 -0.27642
38.2 -0.27268
38.25 -0.27243
38.3 -0.27124
38.35 -0.26758
38.4 -0.26354
38.45 -0.26192
38.5 -0.26254
38.55 -0.26128
38.6 -0.25474
38.65 -0.24781
38.7 -0.2443
38.75 -0.24438
38.8 -0.24296
38.85 -0.24032
38.9 -0.23749
38.95 -0.23464
39 -0.22782
39.05 -0.21955
39.1 -0.21568
39.15 -0.21184
39.2 -0.20813
39.25 -0.20099
39.3 -0.19372
39.35 -0.18844
39.4 -0.18513
39.45 -0.1862
39.5 -0.18458
39.55 -0.18359
39.6 -0.18564
39.65 -0.18624
39.7 -0.18467
39.75 -0.17971
39.8 -0.17306
39.85 -0.16586
39.9 -0.1606
39.95 -0.15722
40 -0.15419
40.05 -0.15348
40.1 -0.15034
40.15 -0.15066
40.2 -0.15262
40.25 -0.1519
40.3 -0.15128
40.35 -0.15136
40.4 -0.15234
40.45 -0.1515
40.5 -0.14653
40.55 -0.14392
40.6 -0.14467
40.65 -0.14402
40.7 -0.14158
40.75 -0.13845
40.8 -0.13668
40.85 -0.13033
40.9 -0.12861
40.95 -0.12345
41 -0.11883
41.05 -0.11146
41.1 -0.10749
41.15 -0.10686
41.2 -0.10625
41.25 -0.10581
41.3 -0.10568
41.35 -0.10161
41.4 -0.09814
41.45 -0.09572
41.5 -0.09507
41.55 -0.09848
41.6 -0.09811
41.65 -0.09536
41.7 -0.09155
41.75 -0.08809
41.8 -0.08678
41.85 -0.08655
41.9 -0.09004
41.95 -0.09239
42 -0.09457
42.05 -0.09444
42.1 -0.08955
42.15 -0.08241
42.2 -0.07523
42.25 -0.06982
42.3 -0.06511
42.35 -0.05871
42.4 -0.05186
42.45 -0.04862
42.5 -0.0522
42.55 -0.05188
42.6 -0.05136
42.65 -0.05277
42.7 -0.05434
42.75 -0.05545
42.8 -0.0596
42.85 -0.06054
42.9 -0.06122
42.95 -0.05917
43 -0.06138
43.05 -0.0604
43.1 -0.05871
43.15 -0.05742
43.2 -0.05446
43.25 -0.05103
43.3 -0.05039
43.35 -0.05412
43.4 -0.05384
43.45 -0.05233
43.5 -0.05295
43.55 -0.05072
43.6 -0.04566
43.65 -0.04379
43.7 -0.04411
43.75 -0.0442
43.8 -0.04666
43.85 -0.05022
43.9 -0.05342
43.95 -0.05285
44 -0.0498
44.05 -0.04763
44.1 -0.04935
44.15 -0.04655
44.2 -0.04358
44.25 -0.04025
44.3 -0.03444
44.35 -0.03254
44.4 -0.03517
44.45 -0.03783
44.5 -0.03725
44.55 -0.04103
44.6 -0.03968
44.65 -0.03464
44.7 -0.0331
44.75 -0.03542
44.8 -0.03286
44.85 -0.03456
44.9 -0.03416
44.95 -0.0321
45 -0.02734
45.05 -0.02133
45.1 -0.01949
45.15 -0.0191
45.2 -0.02047
45.25 -0.02202
45.3 -0.02707
45.35 -0.03427
45.4 -0.03979
45.45 -0.04534
45.5 -0.04572
45.55 -0.04104
45.6 -0.03522
45.65 -0.02898
45.7 -0.02635
45.75 -0.02728
45.8 -0.02517
45.85 -0.02756
45.9 -0.02909
45.95 -0.03372
46 -0.03603
46.05 -0.03761
46.1 -0.04121
46.15 -0.03782
46.2 -0.0311
46.25 -0.02992
46.3 -0.0259
46.35 -0.02571
46.4 -0.02321
46.45 -0.02234
46.5 -0.02394
46.55 -0.02382
46.6 -0.02058
46.65 -0.02041
46.7 -0.01857
46.75 -0.01654
46.8 -0.01688
46.85 -0.0178
46.9 -0.01946
46.95 -0.01752
47 -0.0132
47.05 -0.01004
47.1 -0.00765
47.15 -0.00443
47.2 -0.00048
47.25 -0.00023
47.3 -0.0009
47.35 0.0012
47.4 -0.00099
47.45 -0.00753
47.5 -0.01416
47.55 -0.01647
47.6 -0.01796
47.65 -0.02237
47.7 -0.02095
47.75 -0.02222
47.8 -0.02208
47.85 -0.02523
47.9 -0.02778
47.95 -0.02936
48 -0.02504
48.05 -0.01936
48.1 -0.01832
48.15 -0.02034
48.2 -0.02144
48.25 -0.02357
48.3 -0.0227
48.35 -0.02068
48.4 -0.01613
48.45 -0.01567
48.5 -0.01607
48.55 -0.01205
48.6 -0.00871
48.65 -0.00422
48.7 -0.00592
48.75 -0.00557
48.8 -0.00724
48.85 -0.00842
48.9 -0.00743
48.95 -0.00366
49 0.00169
49.05 0.00287
49.1 -0.00145
49.15 -0.00481
49.2 -0.0073
49.25 -0.00567
49.3 -0.00126
49.35 0.00128
49.4 0.0015
49.45 0.00487
49.5 0.0034
49.55 0.00105
49.6 -0.00381
49.65 -0.00507
49.7 -0.01037
49.75 -0.01029
49.8 -0.00802
49.85 -0.01069
49.9 -0.01239
49.95 -0.01342
50 -0.01426
50.05 -0.01631
50.1 -0.02075
50.15 -0.02561
50.2 -0.02872
50.25 -0.02975
50.3 -0.02678
50.35 -0.02515
50.4 -0.01842
50.45 -0.01551
50.5 -0.01381
50.55 -0.01033
50.6 -0.0061
50.65 0.00054
50.7 0.00247
50.75 0.00466
50.8 0.00376
50.85 0.00312
50.9 0.00573
50.95 0.00353
51 -0.00275
51.05 -0.01081
51.1 -0.01814
51.15 -0.02555
51.2 -0.02765
51.25 -0.02891
51.3 -0.03053
51.35 -0.0284
51.4 -0.02563
51.45 -0.01858
51.5 -0.01371
51.55 -0.00556
51.6 -0.00285
51.65 0.00147
51.7 0.00062
51.75 -0.00412
51.8 -0.00839
51.85 -0.01351
51.9 -0.0184
51.95 -0.01755
52 -0.01824
52.05 -0.02014
52.1 -0.01807
52.15 -0.01403
52.2 -0.00893
52.25 -0.00818
52.3 -0.00746
52.35 -0.00351
52.4 0.00207
52.45 0.00852
52.5 0.01452
52.55 0.01392
52.6 0.0121
52.65 0.01251
52.7 0.01464
52.75 0.01557
52.8 0.014
52.85 0.00908
52.9 0.00129
52.95 -0.00544
53 -0.00916
53.05 -0.00738
53.1 -0.00234
53.15 0.00332
53.2 0.00673
53.25 0.01015
53.3 0.00987
53.35 0.01118
53.4 0.01415
53.45 0.01845
53.5 0.02308
53.55 0.02013
53.6 0.01854
53.65 0.0127
53.7 0.00694
53.75 0.00201
53.8 -0.0018
53.85 -0.00309
53.9 -0.00295
53.95 -0.00158
54 0.00126
54.05 0.00306
54.1 0.00231
54.15 0.00399
54.2 0.00118
54.25 -0.00493
54.3 -0.00748
54.35 -0.00543
54.4 -0.00301
54.45 0.00189
54.5 0.00101
54.55 0.00353
54.6 0.006
54.65 0.00934
54.7 0.01062
54.75 0.0074
54.8 0.00856
54.85 0.00804
54.9 0.00289
54.95 0.00186
55 -0.00218
55.05 -0.00843
55.1 -0.00952
55.15 -0.0126
55.2 -0.01555
55.25 -0.02021
55.3 -0.02353
55.35 -0.02503
55.4 -0.01997
55.45 -0.01508
55.5 -0.00743
55.55 -0.00402
55.6 0.00091
55.65 0.00503
55.7 0.00613
55.75 0.0038
55.8 0.00417
55.85 0.00317
55.9 0.00434
55.95 0.00419
56 0.00611
56.05 0.00928
56.1 0.01033
56.15 0.01295
56.2 0.01124
56.25 0.00662
56.3 0.00392
56.35 0.00556
56.4 0.00848
56.45 0.01163
56.5 0.00816
56.55 0.00836
56.6 0.00605
56.65 0.00547
56.7 0.00605
56.75 0.00808
56.8 0.00969
56.85 0.01351
56.9 0.0156
56.95 0.01569
57 0.01208
57.05 0.00973
57.1 0.01083
57.15 0.01246
57.2 0.01613
57.25 0.01989
57.3 0.01851
57.35 0.01684
57.4 0.01444
57.45 0.01331
57.5 0.01172
57.55 0.00908
57.6 0.00461
57.65 -0.00281
57.7 -0.00637
57.75 -0.01143
57.8 -0.01824
57.85 -0.02482
57.9 -0.02734
57.95 -0.02553
58 -0.01937
58.05 -0.01211
58.1 -0.0084
58.15 -0.00708
58.2 -0.00226
58.25 0.00145
58.3 0.00414
58.35 0.00662
58.4 0.00968
58.45 0.01139
58.5 0.0088
58.55 0.00754
58.6 0.00739
58.65 0.01028
58.7 0.01189
58.75 0.01495
58.8 0.01253
58.85 0.0087
58.9 0.00589
58.95 0.00428
59 0.00567
59.05 0.00413
59.1 -0.00022
59.15 -0.00015
59.2 0.00109
59.25 0.00219
59.3 0.00237
59.35 0.00293
59.4 0.00569
59.45 0.00609
59.5 0.00854
59.55 0.0121
59.6 0.00904
59.65 0.00427
59.7 0.00335
59.75 0.00333
59.8 0.00296
59.85 -0.00066
59.9 -0.00224
59.95 -0.00583
60 -0.00657
60.05 -0.00299
60.1 -0.00248
60.15 -0.00011
60.2 0.00057
60.25 0.00237
60.3 -0.00063
60.35 -0.00552
60.4 -0.01294
60.45 -0.01504
60.5 -0.01291
60.55 -0.01414
60.6 -0.01302
60.65 -0.01165
60.7 -0.01281
60.75 -0.01191
60.8 -0.01293
60.85 -0.01331
60.9 -0.01474
60.95 -0.01634
61 -0.01272
61.05 -0.01244
61.1 -0.01209
61.15 -0.00849
61.2 -0.00623
61.25 -0.00305
61.3 0.00044
61.35 0.00109
61.4 0.00164
61.45 0.00384
61.5 0.006
61.55 0.00727
61.6 0.00898
61.65 0.00676
61.7 0.00119
61.75 -0.00381
61.8 -0.00962
61.85 -0.01655
61.9 -0.02373
61.95 -0.02979
62 -0.02878
62.05 -0.03007
62.1 -0.02632
62.15 -0.01879
62.2 -0.01055
62.25 -0.0036
62.3 0.00332
62.35 0.00502
62.4 0.0095
62.45 0.00891
62.5 0.00698
62.55 0.00293
62.6 0.00249
62.65 0.00018
62.7 0.00033
62.75 -0.00145
62.8 -0.00444
62.85 -0.00833
62.9 -0.00704
62.95 -0.00278
63 -0.00158
63.05 0.00322
63.1 0.00846
63.15 0.01248
63.2 0.01029
63.25 0.01102
63.3 0.00785
63.35 0.00735
63.4 0.00923
63.45 0.01154
63.5 0.00888
63.55 0.00711
63.6 0.00208
63.65 -0.00237
63.7 -0.00248
63.75 -0.00591
63.8 -0.00505
63.85 -0.00797
63.9 -0.01317
63.95 -0.01379
64 -0.01132
64.05 -0.00605
64.1 0.00127
64.15 0.00525
64.2 0.00422
64.25 0.00246
64.3 -0.00111
64.35 -0.00038
64.4 0.00223
64.45 0.00467
64.5 0.00641
64.55 0.01032
64.6 0.01161
64.65 0.01194
64.7 0.01114
64.75 0.01225
64.8 0.01268
64.85 0.00842
64.9 0.0051
64.95 0.00445
65 -0.00061
65.05 -0.00512
65.1 -0.00426
65.15 -0.0004
65.2 -0.00072
65.25 0.002
65.3 0.00506
65.35 0.00608
65.4 0.00412
65.45 0.00417
65.5 0.00432
65.55 0.00445
65.6 0.00477
65.65 0.00657
65.7 0.00912
65.75 0.00674
65.8 0.00456
65.85 0.00171
65.9 -0.00488
65.95 -0.01181
66 -0.01671
66.05 -0.02161
66.1 -0.02474
66.15 -0.02801
66.2 -0.02604
66.25 -0.02309
66.3 -0.01738
66.35 -0.01383
66.4 -0.00761
66.45 -0.00234
66.5 0.00123
66.55 0.00218
66.6 0.00023
66.65 -0.00074
66.7 -0.00031
66.75 -0.00062
66.8 0.00154
66.85 -0.00028
66.9 -0.00289
66.95 -0.00687
67 -0.00918
67.05 -0.00946
67.1 -0.0106
67.15 -0.01302
67.2 -0.01258
67.25 -0.01498
67.3 -0.01466
67.35 -0.01513
67.4 -0.01519
67.45 -0.01577
67.5 -0.01173
67.55 -0.00742
67.6 -0.00675
67.65 -0.00767
67.7 -0.00821
67.75 -0.006
67.8 -0.00417
67.85 0.0006
67.9 0.00225
67.95 0.00318
68 0.00109
68.05 -0.00257
68.1 -0.00642
68.15 -0.01181
68.2 -0.01268
68.25 -0.01195
68.3 -0.00958
68.35 -0.0089
68.4 -0.00934
68.45 -0.00516
68.5 0.00206
68.55 0.0068
68.6 0.00676
68.65 0.00604
68.7 0.00461
68.75 0.00209
68.8 0.00038
68.85 -0.00483
68.9 -0.0064
68.95 -0.00975
69 -0.01198
69.05 -0.01282
69.1 -0.01047
69.15 -0.01092
69.2 -0.00818
69.25 -0.00586
69.3 -0.00003
69.35 0.0042
69.4 0.00342
69.45 0.00628
69.5 0.00986
69.55 0.01373
69.6 0.01564
69.65 0.01442
69.7 0.01117
69.75 0.00471
69.8 -0.00293
69.85 -0.00381
69.9 -0.00253
69.95 -0.00153
70 -0.00432
70.05 -0.00757
70.1 -0.00743
70.15 -0.00838
70.2 -0.00853
70.25 -0.00842
70.3 -0.00419
70.35 -0.00523
70.4 -0.00165
70.45 0.0039
70.5 0.00438
70.55 0.00431
70.6 0.00771
70.65 0.00554
70.7 0.00234
70.75 0.00129
70.8 0.0037
70.85 0.00409
70.9 0.00486
70.95 0.00477
71 0.00237
71.05 -0.00126
71.1 -0.00734
71.15 -0.01279
71.2 -0.01926
71.25 -0.02434
71.3 -0.02607
71.35 -0.02114
71.4 -0.01948
71.45 -0.0129
71.5 -0.0114
71.55 -0.00605
71.6 -0.00595
71.65 -0.0055
71.7 -0.00101
71.75 0.00616
71.8 0.0101
71.85 0.01499
71.9 0.02022
71.95 0.02212
72 0.02543
72.05 0.02911
72.1 0.03065
72.15 0.03051
72.2 0.02427
72.25 0.02096
72.3 0.01283
72.35 0.01043
72.4 0.00375
72.45 -0.00384
72.5 -0.01168
72.55 -0.0127
72.6 -0.01242
72.65 -0.01342
72.7 -0.00917
72.75 -0.00766
72.8 -0.00288
72.85 -0.00038
72.9 0.00181
72.95 0.00252
73 0.00141
73.05 0.00045
73.1 -0.00324
73.15 -0.00824
73.2 -0.01133
73.25 -0.00948
73.3 -0.0072
73.35 -0.0028
73.4 0.00309
73.45 0.0045
73.5 0.00605
73.55 0.00935
73.6 0.01078
73.65 0.01326
73.7 0.01654
73.75 0.01435
73.8 0.01076
73.85 0.01029
73.9 0.01299
73.95 0.01668
74 0.01784
74.05 0.02026
74.1 0.02181
74.15 0.01964
74.2 0.01317
74.25 0.00347
74.3 -0.00339
74.35 -0.00702
74.4 -0.01298
74.45 -0.01882
74.5 -0.02112
74.55 -0.01942
74.6 -0.01741
74.65 -0.01176
74.7 -0.01124
74.75 -0.01385
74.8 -0.01848
74.85 -0.02334
74.9 -0.02131
74.95 -0.02177
75 -0.02345
75.05 -0.02629
75.1 -0.02586
75.15 -0.02622
75.2 -0.02445
75.25 -0.01789
75.3 -0.01363
75.35 -0.01128
75.4 -0.0092
75.45 -0.00447
75.5 -0.0015
75.55 0.00319
75.6 0.00725
75.65 0.01118
75.7 0.00868
75.75 0.00247
75.8 -0.00283
75.85 -0.00983
75.9 -0.01339
75.95 -0.01602
76 -0.01768
76.05 -0.0206
76.1 -0.02299
76.15 -0.02256
76.2 -0.01782
76.25 -0.0126
76.3 -0.00518
76.35 0.00399
76.4 0.00839
76.45 0.01259
76.5 0.01213
76.55 0.00792
76.6 0.00498
76.65 0.00508
76.7 0.00367
76.75 0.00444
76.8 0.0061
76.85 0.00446
76.9 -0.00012
76.95 -0.00503
77 -0.00975
77.05 -0.01217
77.1 -0.01168
77.15 -0.00646
77.2 -0.00567
77.25 -0.00311
77.3 0.00173
77.35 0.00457
77.4 0.00718
77.45 0.01191
77.5 0.01541
77.55 0.01657
77.6 0.01549
77.65 0.01628
77.7 0.01766
77.75 0.02016
77.8 0.02178
77.85 0.0187
77.9 0.01463
77.95 0.01098
78 0.0059
78.05 0.00362
78.1 0.00102
78.15 0.00227
78.2 0.00587
78.25 0.00574
78.3 0.00938
78.35 0.01348
78.4 0.01347
78.45 0.01163
78.5 0.01278
78.55 0.00941
78.6 0.00266
78.65 -0.00413
78.7 -0.01174
78.75 -0.01369
78.8 -0.0127
78.85 -0.01428
78.9 -0.01232
78.95 -0.00984
79 -0.00985
79.05 -0.01047
79.1 -0.00845
79.15 -0.00331
79.2 0.00306
79.25 0.00754
79.3 0.00919
79.35 0.00563
79.4 0.00656
79.45 0.00315
79.5 0.00141
79.55 0.00304
79.6 0.00754
79.65 0.00897
79.7 0.01116
79.75 0.00889
79.8 0.0098
79.85 0.01036
79.9 0.00676
79.95 0.00177
80 0.00079
80.05 -0.00359
80.1 -0.00256
80.15 0.00076
80.2 0.00295
80.25 0.0023
80.3 0.00219
80.35 0.00151
80.4 -0.00103
80.45 -0.00332
80.5 -0.00563
80.55 -0.01055
80.6 -0.01546
80.65 -0.019
80.7 -0.01759
80.75 -0.01377
80.8 -0.01329
80.85 -0.01473
80.9 -0.01757
80.95 -0.01778
81 -0.0179
81.05 -0.0165
81.1 -0.01726
81.15 -0.01509
81.2 -0.01017
81.25 -0.00949
81.3 -0.01
81.35 -0.01046
81.4 -0.00823
81.45 -0.0045
81.5 -0.00273
81.55 0.00175
81.6 0.00278
81.65 0.0006
81.7 0.00228
81.75 0.00091
81.8 0.00356
81.85 0.00594
81.9 0.00868
81.95 0.00679
82 0.00207
82.05 0.00038
82.1 -0.0009
82.15 0.00155
82.2 0.00228
82.25 0.0042
82.3 0.00257
82.35 0.00533
82.4 0.00694
82.45 0.01152
82.5 0.01634
82.55 0.01652
82.6 0.01668
82.65 0.01648
82.7 0.01486
82.75 0.01452
82.8 0.01504
82.85 0.00998
82.9 0.00201
82.95 -0.00195
83 -0.0046
83.05 -0.00651
83.1 -0.00753
83.15 -0.00993
83.2 -0.01367
83.25 -0.01138
83.3 -0.00488
83.35 0.00081
83.4 0.00517
83.45 0.00636
83.5 0.00305
83.55 0.00179
83.6 -0.00091
83.65 -0.00035
83.7 0.00086
83.75 -0.0016
83.8 0.00038
83.85 0.0048
83.9 0.00645
83.95 0.01095
84 0.01339
84.05 0.01406
84.1 0.01388
84.15 0.01445
84.2 0.01729
84.25 0.01904
84.3 0.01758
84.35 0.01829
84.4 0.01373
84.45 0.00815
84.5 0.00641
84.55 0.00244
84.6 0.00013
84.65 -0.00346
84.7 -0.00961
84.75 -0.00927
84.8 -0.01115
84.85 -0.00926
84.9 -0.00467
84.95 0.00122
85 0.00067
85.05 0.00259
85.1 0.00641
85.15 0.0045
85.2 -0.00072
85.25 -0.00103
85.3 0.0004
85.35 0.00419
85.4 0.00671
85.45 0.01104
85.5 0.00959
85.55 0.01117
85.6 0.00883
85.65 0.00266
85.7 -0.00182
85.75 -0.00811
85.8 -0.00933
85.85 -0.01286
85.9 -0.01013
85.95 -0.00539
86 -0.00503
86.05 -0.0081
86.1 -0.01339
86.15 -0.01621
86.2 -0.01554
86.25 -0.01276
86.3 -0.01203
86.35 -0.00827
86.4 -0.0064
86.45 -0.00281
86.5 0.00163
86.55 0.00429
86.6 0.00658
86.65 0.01156
86.7 0.01098
86.75 0.00955
86.8 0.00788
86.85 0.00955
86.9 0.00969
86.95 0.01106
87 0.01495
87.05 0.01694
87.1 0.01921
87.15 0.02167
87.2 0.01867
87.25 0.01428
87.3 0.00701
87.35 0.0053
87.4 -0.00066
87.45 -0.00729
87.5 -0.00744
87.55 -0.00921
87.6 -0.01169
87.65 -0.01431
87.7 -0.01136
87.75 -0.0124
87.8 -0.01496
87.85 -0.01238
87.9 -0.01382
87.95 -0.01462
88 -0.01264
88.05 -0.00785
88.1 -0.00082
88.15 0.00001
88.2 -0.0023
88.25 -0.00678
88.3 -0.01186
88.35 -0.01242
88.4 -0.00795
88.45 -0.00491
88.5 -0.00415
88.55 -0.00595
88.6 -0.00677
88.65 -0.00987
88.7 -0.01266
88.75 -0.0102
88.8 -0.0095
88.85 -0.01023
88.9 -0.01254
88.95 -0.01441
89 -0.01242
89.05 -0.00706
89.1 -0.00652
89.15 -0.00234
89.2 -0.00086
89.25 0.00065
89.3 0.00526
89.35 0.00464
89.4 0.00164
89.45 -0.00142
89.5 -0.00567
89.55 -0.01176
89.6 -0.01673
89.65 -0.01513
89.7 -0.01165
89.75 -0.00721
89.8 -0.00487
89.85 0.00056
89.9 0.0002
89.95 -0.0004
90 -0.00363
90.05 -0.00298
90.1 -0.00538
90.15 -0.00606
90.2 -0.0051
90.25 -0.0023
90.3 0.00289
90.35 0.00772
90.4 0.00885
90.45 0.00838
90.5 0.00439
90.55 0.00089
90.6 -0.00218
90.65 -0.00183
90.7 -0.00486
90.75 -0.005
90.8 -0.00705
90.85 -0.00617
90.9 -0.00635
90.95 -0.00384
91 -0.00246
91.05 0.00241
91.1 0.00278
91.15 0.00434
91.2 0.00764
91.25 0.01065
91.3 0.01354
91.35 0.01157
91.4 0.00958
91.45 0.00505
91.5 0.00108
91.55 0.00046
91.6 -0.00133
91.65 -0.00498
91.7 -0.00453
91.75 -0.00235
91.8 -0.00011
91.85 0.00201
91.9 0.00138
91.95 -0.00191
92 -0.00718
92.05 -0.00909
92.1 -0.00923
92.15 -0.00935
92.2 -0.01053
92.25 -0.01059
92.3 -0.0099
92.35 -0.01244
92.4 -0.01152
92.45 -0.00846
92.5 -0.00796
92.55 -0.0086
92.6 -0.01096
92.65 -0.01225
92.7 -0.00957
92.75 -0.00832
92.8 -0.00843
92.85 -0.01158
92.9 -0.0146
92.95 -0.01853
93 -0.01709
93.05 -0.01835
93.1 -0.02122
93.15 -0.0205
93.2 -0.01535
93.25 -0.00884
93.3 -0.00267
93.35 0.00495
93.4 0.00857
93.45 0.00957
93.5 0.00852
93.55 0.00621
93.6 0.00568
93.65 0.00237
93.7 -0.00165
93.75 -0.00332
93.8 -0.00711
93.85 -0.01071
93.9 -0.00835
93.95 -0.00797
94 -0.00734
94.05 -0.00221
94.1 0.00278
94.15 0.00926
94.2 0.01009
94.25 0.01004
94.3 0.00686
94.35 0.00587
94.4 0.00696
94.45 0.00707
94.5 0.0071
94.55 0.00994
94.6 0.00861
94.65 0.00953
94.7 0.01043
94.75 0.01219
94.8 0.01308
94.85 0.01496
94.9 0.01268
94.95 0.01222
95 0.01214
95.05 0.01148
95.1 0.01082
95.15 0.01106
95.2 0.01255
95.25 0.0122
95.3 0.00796
95.35 0.00555
95.4 -0.00007
95.45 -0.0022
95.5 -0.00197
95.55 0.00029
95.6 0.00171
95.65 0.00521
95.7 0.01083
95.75 0.01741
95.8 0.01714
95.85 0.0196
95.9 0.01884
95.95 0.01854
96 0.01598
96.05 0.01674
96.1 0.01471
96.15 0.0091
96.2 0.00535
96.25 0.00211
96.3 0.00322
96.35 -0.00066
96.4 -0.00516
96.45 -0.00803
96.5 -0.00991
96.55 -0.01026
96.6 -0.01266
96.65 -0.00924
96.7 -0.01007
96.75 -0.01076
96.8 -0.00748
96.85 -0.00819
96.9 -0.00554
96.95 -0.0046
97 -0.00031
97.05 0.00442
97.1 0.00616
97.15 0.01044
97.2 0.01436
97.25 0.01298
97.3 0.01146
97.35 0.00762
97.4 0.0075
97.45 0.00286
97.5 0.00209
97.55 -0.00183
97.6 -0.00601
97.65 -0.00468
97.7 -0.00333
97.75 0.00075
97.8 -0.00062
97.85 0.00001
97.9 -0.0018
97.95 -0.00234
98 -0.00286
98.05 -0.00069
98.1 0.00219
98.15 0.00584
98.2 0.00723
98.25 0.00516
98.3 0.00583
98.35 0.00384
98.4 0.00483
98.45 0.00629
98.5 0.00861
98.55 0.00956
98.6 0.00823
98.65 0.0045
98.7 -0.00113
98.75 -0.00578
98.8 -0.00596
98.85 -0.00546
98.9 -0.00235
98.95 -0.00421
99 -0.0067
99.05 -0.00478
99.1 -0.00093
99.15 0.00006
99.2 0.00152
99.25 0.00276
99.3 0.00201
99.35 0.00361
99.4 0.00145
99.45 -0.00167
99.5 0.0005
99.55 0.00195
99.6 -0.00121
99.65 -0.00567
99.7 -0.00818
99.75 -0.00559
99.8 -0.00222
99.85 0.00118
99.9 -0.00106
99.95 -0.00149
