0 0
0.05 0.00015
0.1 0.00056
0.15 0.00111
0.2 0.00168
0.25 0.00231
0.3 0.00296
0.35 0.00358
0.4 0.00374
0.45 0.00369
0.5 0.00363
0.55 0.00332
0.6 0.00282
0.65 0.00246
0.7 0.00245
0.75 0.00224
0.8 0.00219
0.85 0.00213
0.9 0.00188
0.95 0.0019
1 0.00183
1.05 0.00188
1.1 0.00176
1.15 0.0018
1.2 0.00188
1.25 0.00174
1.3 0.00173
1.35 0.00196
1.4 0.00215
1.45 0.00233
1.5 0.00266
1.55 0.00299
1.6 0.00289
1.65 0.00255
1.7 0.00204
1.75 0.00185
1.8 0.00196
1.85 0.00225
1.9 0.00245
1.95 0.00262
2 0.00271
2.05 0.00259
2.1 0.00255
2.15 0.00263
2.2 0.00237
2.25 0.00227
2.3 0.00217
2.35 0.00197
2.4 0.00162
2.45 0.00114
2.5 0.0007
2.55 0.00048
2.6 0.00056
2.65 0.00061
2.7 0.00063
2.75 0.00093
2.8 0.00096
2.85 0.00103
2.9 0.00132
2.95 0.00134
3 0.00136
3.05 0.00154
3.1 0.0017
3.15 0.00191
3.2 0.0022
3.25 0.00211
3.3 0.00216
3.35 0.00225
3.4 0.00235
3.45 0.0023
3.5 0.0023
3.55 0.00227
3.6 0.00237
3.65 0.00222
3.7 0.0022
3.75 0.00221
3.8 0.00191
3.85 0.00178
3.9 0.0015
3.95 0.00102
4 0.00078
4.05 0.00052
4.1 0.0006
4.15 0.00044
4.2 0.00041
4.25 0.0004
4.3 0.0002
4.35 0.00006
4.4 -0.0002
4.45 -0.00048
4.5 -0.00047
4.55 -0.0002
4.6 0.00012
4.65 0.00032
4.7 0.0005
4.75 0.00051
4.8 0.0004
4.85 0.00033
4.9 0.00034
4.95 0.0002
5 0.00028
5.05 0.00041
5.1 0.00058
5.15 0.00044
5.2 0.00056
5.25 0.00077
5.3 0.00089
5.35 0.00099
5.4 0.00108
5.45 0.00091
5.5 0.00057
5.55 0.00028
5.6 0.00032
5.65 0.00044
5.7 0.00033
5.75 0.00017
5.8 0.00005
5.85 -0.00015
5.9 -0.00029
5.95 -0.00014
6 -0.00015
6.05 0.00001
6.1 0.00026
6.15 0.00022
6.2 0.00039
6.25 0.00037
6.3 0.00038
6.35 0.00042
6.4 0.00064
6.45 0.00096
6.5 0.0013
6.55 0.00134
6.6 0.00129
6.65 0.00112
6.7 0.00101
6.75 0.00098
6.8 0.00097
6.85 0.00108
6.9 0.00107
6.95 0.00113
7 0.00126
7.05 0.00101
7.1 0.00067
7.15 0.00043
7.2 0.00038
7.25 0.00052
7.3 0.00055
7.35 0.00046
7.4 0.00023
7.45 0.00014
7.5 0.00014
7.55 0.00029
7.6 0.0002
7.65 0.00026
7.7 0.00042
7.75 0.00033
7.8 0.00022
7.85 -0.0001
7.9 -0.00037
7.95 -0.00071
8 -0.00096
8.05 -0.00083
8.1 -0.00089
8.15 -0.00086
8.2 -0.00089
8.25 -0.00097
8.3 -0.001
8.35 -0.00101
8.4 -0.00098
8.45 -0.00096
8.5 -0.00091
8.55 -0.00058
8.6 -0.00019
8.65 0.00026
8.7 0.0005
8.75 0.00046
8.8 0.00052
8.85 0.00054
8.9 0.00057
8.95 0.00055
9 0.00039
9.05 0.00031
9.1 0.00021
9.15 -0.00003
9.2 -0.00003
9.25 -0.00005
9.3 0.00015
9.35 0.0005
9.4 0.00074
9.45 0.00077
9.5 0.00061
9.55 0.00047
9.6 0.00029
9.65 -0.00008
9.7 -0.00032
9.75 -0.00029
9.8 -0.00019
9.85 0.00007
9.9 0.00008
9.95 0.00003
10 -0.00015
10.05 -0.00029
10.1 -0.00022
10.15 -0.00008
10.2 -0.00013
10.25 0.00009
10.3 0.00037
10.35 0.00049
10.4 0.00045
10.45 0.00029
10.5 0.00007
10.55 -0.00018
10.6 -0.00015
10.65 0.00001
10.7 0.00002
10.75 0.00015
10.8 0.00005
10.85 0.00011
10.9 0.00015
10.95 0
11 -0.00021
11.05 -0.0005
11.1 -0.00088
11.15 -0.00101
11.2 -0.00092
11.25 -0.00096
11.3 -0.00097
11.35 -0.00099
11.4 -0.00073
11.45 -0.00039
11.5 0.00001
11.55 0.00023
11.6 0.00056
11.65 0.00076
11.7 0.00094
11.75 0.00105
11.8 0.00099
11.85 0.001
11.9 0.00097
11.95 0.00078
12 0.00045
12.05 0.00025
12.1 0.00026
12.15 0.00043
12.2 0.00052
12.25 0.00074
12.3 0.00074
12.35 0.00083
12.4 0.00077
12.45 0.00059
12.5 0.00046
12.55 0.00011
12.6 -0.00034
12.65 -0.00076
12.7 -0.00084
12.75 -0.00067
12.8 -0.0004
12.85 -0.00007
12.9 0.0003
12.95 0.00065
13 0.00103
13.05 0.00107
13.1 0.00085
13.15 0.00087
13.2 0.00079
13.25 0.00077
13.3 0.00079
13.35 0.00096
13.4 0.001
13.45 0.00104
13.5 0.00107
13.55 0.00078
13.6 0.00064
13.65 0.00056
13.7 0.0004
13.75 0.00041
13.8 0.00041
13.85 0.00049
13.9 0.00046
13.95 0.00051
14 0.00049
14.05 0.0006
14.1 0.00036
14.15 0.00011
14.2 -0.00001
14.25 -0.00028
14.3 -0.00044
14.35 -0.00035
14.4 -0.00016
14.45 0.00002
14.5 -0.00011
14.55 -0.00035
14.6 -0.00049
14.65 -0.0005
14.7 -0.00035
14.75 -0.00031
14.8 -0.0004
14.85 -0.00049
14.9 -0.00045
14.95 -0.00027
15 -0.00011
15.05 -0.00014
15.1 0.00005
15.15 0.00034
15.2 0.00063
15.25 0.00082
15.3 0.00075
15.35 0.0008
15.4 0.0009
15.45 0.00083
15.5 0.00065
15.55 0.00031
15.6 0.00009
15.65 -0.00024
15.7 -0.00041
15.75 -0.00039
15.8 -0.00052
15.85 -0.00046
15.9 -0.0003
15.95 -0.00017
16 0.00003
16.05 0.0001
16.1 0.00027
16.15 0.00012
16.2 -0.00017
16.25 -0.00018
16.3 -0.00005
16.35 0.00021
16.4 0.00056
16.45 0.00086
16.5 0.00076
16.55 0.00079
16.6 0.00074
16.65 0.00048
16.7 0.00041
16.75 0.00054
16.8 0.00076
16.85 0.00062
16.9 0.00058
16.95 0.0007
17 0.00063
17.05 0.00066
17.1 0.00062
17.15 0.00045
17.2 0.00045
17.25 0.0004
17.3 0.00026
17.35 0.00028
17.4 0.00002
17.45 -0.00038
17.5 -0.00084
17.55 -0.00102
17.6 -0.00112
17.65 -0.00091
17.7 -0.00084
17.75 -0.00087
17.8 -0.001
17.85 -0.00088
17.9 -0.00054
17.95 -0.00043
18 -0.00037
18.05 -0.00054
18.1 -0.00084
18.15 -0.00123
18.2 -0.00125
18.25 -0.00139
18.3 -0.00136
18.35 -0.0012
18.4 -0.00103
18.45 -0.00083
18.5 -0.00061
18.55 -0.00021
18.6 -0.00018
18.65 0.00003
18.7 0.00014
18.75 0.00018
18.8 0.00027
18.85 0.00017
18.9 0.00015
18.95 0
19 -0.00032
19.05 -0.0006
19.1 -0.00064
19.15 -0.00051
19.2 -0.00025
19.25 -0.00023
19.3 -0.00046
19.35 -0.00076
19.4 -0.00105
19.45 -0.00096
19.5 -0.00088
19.55 -0.0009
19.6 -0.00096
19.65 -0.00071
19.7 -0.00047
19.75 -0.00043
19.8 -0.00028
19.85 -0.00032
19.9 -0.00046
19.95 -0.00032
20 -0.00034
20.05 -0.00032
20.1 -0.00022
20.15 0.00006
20.2 0.0003
20.25 0.00026
20.3 0.00009
20.35 0.00005
20.4 -0.00011
20.45 0.00003
20.5 0.00017
20.55 0.00025
20.6 0.00023
20.65 0.00024
20.7 0.00019
20.75 0
20.8 0.00002
20.85 -0.00011
20.9 -0.00037
20.95 -0.00052
21 -0.0006
21.05 -0.00062
21.1 -0.00038
21.15 -0.00022
21.2 -0.00002
21.25 0.00024
21.3 0.00056
21.35 0.00052
21.4 0.0005
21.45 0.00031
21.5 0.00004
21.55 -0.00027
21.6 -0.0006
21.65 -0.00068
21.7 -0.00056
21.75 -0.00061
21.8 -0.00041
21.85 -0.00017
21.9 -0.00011
21.95 0.00015
22 0.00032
22.05 0.00036
22.1 0.00038
22.15 0.00013
22.2 -0.00004
22.25 -0.00031
22.3 -0.00052
22.35 -0.00046
22.4 -0.00055
22.45 -0.00041
22.5 -0.00008
22.55 0.0001
22.6 0.00045
22.65 0.00051
22.7 0.00032
22.75 0.0004
22.8 0.00057
22.85 0.0006
22.9 0.0007
22.95 0.00051
23 0.00052
23.05 0.00031
23.1 0.00004
23.15 -0.00017
23.2 -0.00016
23.25 -0.00021
23.3 -0.00008
23.35 -0.00002
23.4 -0.0002
23.45 -0.00009
23.5 -0.00002
23.55 0.00004
23.6 0.0003
23.65 0.00061
23.7 0.00082
23.75 0.00101
23.8 0.00109
23.85 0.00119
23.9 0.00131
23.95 0.00105
24 0.00089
24.05 0.00068
24.1 0.00049
24.15 0.00008
24.2 -0.00031
24.25 -0.0003
24.3 -0.00031
24.35 -0.00053
24.4 -0.00062
24.45 -0.00045
24.5 -0.0005
24.55 -0.00065
24.6 -0.00077
24.65 -0.00103
24.7 -0.00098
24.75 -0.0011
24.8 -0.00097
24.85 -0.00098
24.9 -0.00102
24.95 -0.00106
25 -0.00099
25.05 -0.00087
25.1 -0.00076
25.15 -0.00067
25.2 -0.00036
25.25 -0.00028
25.3 -0.00036
25.35 -0.00019
25.4 0.00011
25.45 0.00027
25.5 0.00034
25.55 0.0002
25.6 0.00022
25.65 0.00035
25.7 0.0002
25.75 -0.00011
25.8 -0.00046
25.85 -0.00064
25.9 -0.00057
25.95 -0.00044
26 -0.00029
26.05 -0.0001
26.1 0.00012
26.15 0.00021
26.2 0.00005
26.25 -0.00014
26.3 -0.00006
26.35 0
26.4 -0.00006
26.45 0.0001
26.5 0.00026
26.55 0.00039
26.6 0.00022
26.65 -0.00004
26.7 -0.00002
26.75 -0.00019
26.8 -0.00034
26.85 -0.00048
26.9 -0.00036
26.95 -0.00015
27 0.00001
27.05 -0.00007
27.1 -0.0001
27.15 -0.00025
27.2 -0.00025
27.25 -0.00042
27.3 -0.00039
27.35 -0.00018
27.4 0.00007
27.45 0.00041
27.5 0.00068
27.55 0.00066
27.6 0.00042
27.65 0.00034
27.7 0.00009
27.75 -0.00015
27.8 -0.00053
27.85 -0.00063
27.9 -0.00088
27.95 -0.00106
28 -0.0012
28.05 -0.00106
28.1 -0.00092
28.15 -0.00072
28.2 -0.00057
28.25 -0.00042
28.3 -0.00022
28.35 0.00004
28.4 0.00019
28.45 0.00026
28.5 0.0004
28.55 0.0006
28.6 0.00073
28.65 0.00057
28.7 0.00036
28.75 0.00015
28.8 0.00017
28.85 -0.00001
28.9 -0.00026
28.95 -0.00019
29 -0.00007
29.05 0.00012
29.1 0.00037
29.15 0.00033
29.2 0.00022
29.25 0.00011
29.3 -0.00012
29.35 -0.00069
29.4 -0.00135
29.45 -0.00199
29.5 -0.00253
29.55 -0.00301
29.6 -0.00338
29.65 -0.0037
29.7 -0.00434
29.75 -0.00494
29.8 -0.00568
29.85 -0.00641
29.9 -0.00738
29.95 -0.00875
30 -0.01042
30.05 -0.01247
30.1 -0.01438
30.15 -0.01646
30.2 -0.01882
30.25 -0.02148
30.3 -0.02437
30.35 -0.02739
30.4 -0.03093
30.45 -0.03486
30.5 -0.03919
30.55 -0.04346
30.6 -0.04809
30.65 -0.05287
30.7 -0.05808
30.75 -0.06334
30.8 -0.06878
30.85 -0.07448
30.9 -0.08021
30.95 -0.08586
31 -0.09165
31.05 -0.09745
31.1 -0.10298
31.15 -0.10844
31.2 -0.11354
31.25 -0.11843
31.3 -0.1232
31.35 -0.12738
31.4 -0.13094
31.45 -0.13419
31.5 -0.1365
31.55 -0.13832
31.6 -0.1395
31.65 -0.13972
31.7 -0.13879
31.75 -0.13684
31.8 -0.13398
31.85 -0.13027
31.9 -0.12594
31.95 -0.12091
32 -0.11529
32.05 -0.1093
32.1 -0.1027
32.15 -0.09574
32.2 -0.08828
32.25 -0.08024
32.3 -0.07193
32.35 -0.06321
32.4 -0.05415
32.45 -0.04489
32.5 -0.03584
32.55 -0.02685
32.6 -0.01775
32.65 -0.00861
32.7 0.0006
32.75 0.00952
32.8 0.01822
32.85 0.02678
32.9 0.03542
32.95 0.0439
33 0.05241
33.05 0.06072
33.1 0.06878
33.15 0.07664
33.2 0.08413
33.25 0.09124
33.3 0.09757
33.35 0.1033
33.4 0.10871
33.45 0.11359
33.5 0.11824
33.55 0.12207
33.6 0.12536
33.65 0.12796
33.7 0.13013
33.75 0.13195
33.8 0.13343
33.85 0.13437
33.9 0.1344
33.95 0.13375
34 0.13267
34.05 0.13134
34.1 0.12938
34.15 0.12725
34.2 0.12476
34.25 0.1217
34.3 0.11825
34.35 0.11457
34.4 0.11105
34.45 0.10733
34.5 0.1037
34.55 0.10021
34.6 0.09645
34.65 0.09277
34.7 0.08915
34.75 0.08553
34.8 0.08218
34.85 0.07892
34.9 0.07551
34.95 0.07218
35 0.06904
35.05 0.06601
35.1 0.06336
35.15 0.06103
35.2 0.05862
35.25 0.05622
35.3 0.05383
35.35 0.05199
35.4 0.05023
35.45 0.04865
35.5 0.04708
35.55 0.0455
35.6 0.04424
35.65 0.04319
35.7 0.04244
35.75 0.04158
35.8 0.04069
35.85 0.03969
35.9 0.03879
35.95 0.03767
36 0.03674
36.05 0.03586
36.1 0.03517
36.15 0.03464
36.2 0.034
36.25 0.03313
36.3 0.032
36.35 0.0308
36.4 0.0297
36.45 0.02867
36.5 0.02755
36.55 0.02644
36.6 0.02525
36.65 0.02399
36.7 0.02275
36.75 0.0215
36.8 0.02028
36.85 0.01915
36.9 0.0181
36.95 0.01717
37 0.01623
37.05 0.01514
37.1 0.01389
37.15 0.01268
37.2 0.01158
37.25 0.01047
37.3 0.00934
37.35 0.00799
37.4 0.00659
37.45 0.00505
37.5 0.00364
37.55 0.00239
37.6 0.00107
37.65 -0.00003
37.7 -0.00121
37.75 -0.00228
37.8 -0.00316
37.85 -0.00378
37.9 -0.0043
37.95 -0.00509
38 -0.00578
38.05 -0.00636
38.1 -0.00694
38.15 -0.00761
38.2 -0.00846
38.25 -0.00937
38.3 -0.01032
38.35 -0.01116
38.4 -0.01181
38.45 -0.01217
38.5 -0.01242
38.55 -0.0129
38.6 -0.01309
38.65 -0.01345
38.7 -0.01378
38.75 -0.01411
38.8 -0.01436
38.85 -0.01458
38.9 -0.01487
38.95 -0.01493
39 -0.01526
39.05 -0.01552
39.1 -0.01561
39.15 -0.01589
39.2 -0.01629
39.25 -0.01656
39.3 -0.01681
39.35 -0.01668
39.4 -0.01666
39.45 -0.01639
39.5 -0.01637
39.55 -0.01613
39.6 -0.01606
39.65 -0.01593
39.7 -0.01584
39.75 -0.01576
39.8 -0.01552
39.85 -0.01561
39.9 -0.01565
39.95 -0.01594
40 -0.01634
40.05 -0.01656
40.1 -0.01657
40.15 -0.01635
40.2 -0.01592
40.25 -0.01548
40.3 -0.015
40.35 -0.0146
40.4 -0.01442
40.45 -0.01415
40.5 -0.01422
40.55 -0.01428
40.6 -0.01456
40.65 -0.01475
40.7 -0.01481
40.75 -0.01477
40.8 -0.01487
40.85 -0.01483
40.9 -0.01454
40.95 -0.01422
41 -0.01398
41.05 -0.01391
41.1 -0.01357
41.15 -0.01323
41.2 -0.01304
41.25 -0.01302
41.3 -0.01308
41.35 -0.0129
41.4 -0.01284
41.45 -0.01254
41.5 -0.01212
41.55 -0.01156
41.6 -0.0111
41.65 -0.01087
41.7 -0.01057
41.75 -0.01013
41.8 -0.01007
41.85 -0.01014
41.9 -0.01039
41.95 -0.01056
42 -0.01049
42.05 -0.01037
42.1 -0.01021
42.15 -0.00978
42.2 -0.00931
42.25 -0.00912
42.3 -0.0088
42.35 -0.0086
42.4 -0.00829
42.45 -0.00792
42.5 -0.00761
42.55 -0.00726
42.6 -0.0071
42.65 -0.00706
42.7 -0.00719
42.75 -0.00739
42.8 -0.00742
42.85 -0.00757
42.9 -0.0076
42.95 -0.00756
43 -0.00762
43.05 -0.0075
43.1 -0.00761
43.15 -0.00785
43.2 -0.00767
43.25 -0.00728
43.3 -0.00686
43.35 -0.00675
43.4 -0.00662
43.45 -0.00658
43.5 -0.00644
43.55 -0.0064
43.6 -0.00612
43.65 -0.00602
43.7 -0.00583
43.75 -0.00578
43.8 -0.00563
43.85 -0.00548
43.9 -0.0056
43.95 -0.00584
44 -0.00577
44.05 -0.00583
44.1 -0.00561
44.15 -0.0056
44.2 -0.00541
44.25 -0.00547
44.3 -0.00536
44.35 -0.00508
44.4 -0.00507
44.45 -0.00495
44.5 -0.00495
44.55 -0.00506
44.6 -0.005
44.65 -0.00466
44.7 -0.0046
44.75 -0.00434
44.8 -0.00426
44.85 -0.00434
44.9 -0.0043
44.95 -0.00433
45 -0.00438
45.05 -0.00439
45.1 -0.00439
45.15 -0.00434
45.2 -0.00406
45.25 -0.00368
45.3 -0.00367
45.35 -0.0034
45.4 -0.00326
45.45 -0.0032
45.5 -0.00335
45.55 -0.00332
45.6 -0.00307
45.65 -0.00282
45.7 -0.00277
45.75 -0.00265
45.8 -0.00264
45.85 -0.00267
45.9 -0.00274
45.95 -0.00263
46 -0.00274
46.05 -0.00292
46.1 -0.00296
46.15 -0.00293
46.2 -0.00287
46.25 -0.00258
46.3 -0.00222
46.35 -0.00205
46.4 -0.00205
46.45 -0.00188
46.5 -0.00193
46.55 -0.00203
46.6 -0.00223
46.65 -0.00237
46.7 -0.00221
46.75 -0.00234
46.8 -0.0026
46.85 -0.00251
46.9 -0.00224
46.95 -0.00212
47 -0.0019
47.05 -0.00173
47.1 -0.00156
47.15 -0.0014
47.2 -0.00119
47.25 -0.00095
47.3 -0.00114
47.35 -0.00128
47.4 -0.00121
47.45 -0.00115
47.5 -0.00101
47.55 -0.00077
47.6 -0.00057
47.65 -0.00041
47.7 -0.00051
47.75 -0.00092
47.8 -0.00125
47.85 -0.00139
47.9 -0.00175
47.95 -0.00181
48 -0.0018
48.05 -0.00172
48.1 -0.0016
48.15 -0.00137
48.2 -0.00129
48.25 -0.00142
48.3 -0.00136
48.35 -0.00135
48.4 -0.0012
48.45 -0.00128
48.5 -0.00133
48.55 -0.00128
48.6 -0.00141
48.65 -0.00157
48.7 -0.00175
48.75 -0.00179
48.8 -0.00176
48.85 -0.00163
48.9 -0.00171
48.95 -0.00181
49 -0.0017
49.05 -0.00163
49.1 -0.00173
49.15 -0.00162
49.2 -0.00143
49.25 -0.00121
49.3 -0.00085
49.35 -0.00065
49.4 -0.0006
49.45 -0.0007
49.5 -0.00099
49.55 -0.00112
49.6 -0.00127
49.65 -0.00133
49.7 -0.00121
49.75 -0.00096
49.8 -0.00081
49.85 -0.00057
49.9 -0.00048
49.95 -0.00061
50 -0.00065
50.05 -0.00089
50.1 -0.00116
50.15 -0.00151
50.2 -0.00159
50.25 -0.00143
50.3 -0.0015
50.35 -0.00162
50.4 -0.0017
50.45 -0.00171
50.5 -0.00169
50.55 -0.00161
50.6 -0.00138
50.65 -0.00097
50.7 -0.00045
50.75 -0.00035
50.8 -0.00032
50.85 -0.00018
50.9 -0.00025
50.95 -0.00046
51 -0.00065
51.05 -0.00088
51.1 -0.00099
51.15 -0.00089
51.2 -0.00089
51.25 -0.00068
51.3 -0.00051
51.35 -0.00065
51.4 -0.00053
51.45 -0.00065
51.5 -0.00067
51.55 -0.00052
51.6 -0.00063
51.65 -0.00062
51.7 -0.00067
51.75 -0.00051
51.8 -0.00024
51.85 0.00009
51.9 0.00001
51.95 -0.00018
52 -0.00026
52.05 -0.0003
52.1 -0.00016
52.15 -0.00031
52.2 -0.00051
52.25 -0.00076
52.3 -0.00078
52.35 -0.00096
52.4 -0.00107
52.45 -0.0013
52.5 -0.00135
52.55 -0.00151
52.6 -0.00133
52.65 -0.00097
52.7 -0.00052
52.75 -0.00005
52.8 -0.00002
52.85 0.00001
52.9 -0.00016
52.95 -0.00038
53 -0.00038
53.05 -0.00041
53.1 -0.00053
53.15 -0.00056
53.2 -0.0004
53.25 -0.00037
53.3 -0.00052
53.35 -0.00079
53.4 -0.00091
53.45 -0.00116
53.5 -0.00132
53.55 -0.0011
53.6 -0.00093
53.65 -0.0006
53.7 -0.00037
53.75 -0.00005
53.8 0.00014
53.85 0.00011
53.9 0.00001
53.95 -0.00018
54 -0.00036
54.05 -0.0004
54.1 -0.0004
54.15 -0.00058
54.2 -0.00069
54.25 -0.00057
54.3 -0.00047
54.35 -0.00055
54.4 -0.00036
54.45 -0.00003
54.5 0.00019
54.55 0.00032
54.6 0.00018
54.65 0.00003
54.7 -0.00024
54.75 -0.00018
54.8 -0.0001
54.85 -0.00018
54.9 -0.00034
54.95 -0.00041
55 -0.00063
55.05 -0.00054
55.1 -0.00042
55.15 -0.00009
55.2 0.00021
55.25 0.00053
55.3 0.00066
55.35 0.00089
55.4 0.001
55.45 0.0011
55.5 0.00104
55.55 0.001
55.6 0.00081
55.65 0.00072
55.7 0.00034
55.75 0.0001
55.8 -0.00018
55.85 -0.00053
55.9 -0.00076
55.95 -0.00084
56 -0.00079
56.05 -0.00065
56.1 -0.00028
56.15 -0.00015
56.2 -0.00001
56.25 0.00011
56.3 0.00009
56.35 0.00015
56.4 -0.00003
56.45 -0.00026
56.5 -0.00044
56.55 -0.00053
56.6 -0.0004
56.65 -0.0004
56.7 -0.00061
56.75 -0.0006
56.8 -0.00062
56.85 -0.00055
56.9 -0.00042
56.95 -0.00022
57 -0.00002
57.05 0.00018
57.1 0.00033
57.15 0.00037
57.2 0.00019
57.25 0.00017
57.3 0.00005
57.35 -0.00007
57.4 -0.00011
57.45 -0.00008
57.5 -0.00011
57.55 -0.00027
57.6 -0.00056
57.65 -0.00079
57.7 -0.00093
57.75 -0.00087
57.8 -0.0008
57.85 -0.00083
57.9 -0.00092
57.95 -0.00073
58 -0.00064
58.05 -0.00072
58.1 -0.00052
58.15 -0.00039
58.2 -0.00031
58.25 -0.00011
58.3 0.00005
58.35 0.00035
58.4 0.0004
58.45 0.00045
58.5 0.00063
58.55 0.00047
58.6 0.00036
58.65 0.00038
58.7 0.00047
58.75 0.00059
58.8 0.00084
58.85 0.00089
58.9 0.00093
58.95 0.00069
59 0.00048
59.05 0.00025
59.1 0.00001
59.15 0
59.2 0.00001
59.25 0.00023
59.3 0.00025
59.35 0.00042
59.4 0.0003
59.45 0.00033
59.5 0.00031
59.55 0.00017
59.6 0.00025
59.65 0.00033
59.7 0.00054
59.75 0.00051
59.8 0.00023
59.85 0.00017
59.9 0.00004
59.95 -0.00019
60 -0.00035
60.05 -0.00021
60.1 -0.00019
60.15 -0.00018
60.2 -0.00029
60.25 -0.00038
60.3 -0.00065
60.35 -0.00078
60.4 -0.00063
60.45 -0.00062
60.5 -0.00041
60.55 -0.00046
60.6 -0.00034
60.65 -0.00013
60.7 0.00018
60.75 0.00046
60.8 0.0005
60.85 0.00048
60.9 0.00051
60.95 0.00049
61 0.00028
61.05 -0.00005
61.1 -0.00007
61.15 -0.00014
61.2 0.00005
61.25 0.0001
61.3 0.00025
61.35 0.00029
61.4 0.00031
61.45 0.0004
61.5 0.00046
61.55 0.00031
61.6 0.00033
61.65 0.00039
61.7 0.00033
61.75 0.00008
61.8 -0.00024
61.85 -0.00025
61.9 -0.00049
61.95 -0.0008
62 -0.0008
62.05 -0.00079
62.1 -0.00051
62.15 -0.00007
62.2 0.00014
62.25 0.00048
62.3 0.00084
62.35 0.00112
62.4 0.00142
62.45 0.00138
62.5 0.00114
62.55 0.00082
62.6 0.00056
62.65 0.00038
62.7 0.00023
62.75 0.00022
62.8 0.00001
62.85 0.00003
62.9 0.00001
62.95 0.00013
63 0.0002
63.05 0.00035
63.1 0.00036
63.15 0.00038
63.2 0.00045
63.25 0.00048
63.3 0.00061
63.35 0.00054
63.4 0.0006
63.45 0.00048
63.5 0.00045
63.55 0.00045
63.6 0.0004
63.65 0.00033
63.7 0.00002
63.75 -0.00024
63.8 -0.00022
63.85 -0.00035
63.9 -0.00051
63.95 -0.00082
64 -0.00085
64.05 -0.00098
64.1 -0.00122
64.15 -0.00125
64.2 -0.00125
64.25 -0.00119
64.3 -0.00083
64.35 -0.00045
64.4 -0.00012
64.45 -0.00012
64.5 -0.00011
64.55 -0.00032
64.6 -0.00053
64.65 -0.00068
64.7 -0.00053
64.75 -0.00018
64.8 -0.0001
64.85 -0.00019
64.9 -0.00008
64.95 0.00021
65 0.0002
65.05 0.00022
65.1 0.00012
65.15 0.00024
65.2 0.00014
65.25 -0.00007
65.3 -0.00033
65.35 -0.00068
65.4 -0.00091
65.45 -0.00098
65.5 -0.0008
65.55 -0.00087
65.6 -0.00094
65.65 -0.00115
65.7 -0.00144
65.75 -0.00141
65.8 -0.00148
65.85 -0.00135
65.9 -0.00119
65.95 -0.00104
66 -0.00065
66.05 -0.00034
66.1 -0.00034
66.15 -0.00044
66.2 -0.00035
66.25 -0.00022
66.3 -0.00031
66.35 -0.0001
66.4 -0.00007
66.45 0.00009
66.5 0.00027
66.55 0.0004
66.6 0.00022
66.65 -0.00006
66.7 -0.00005
66.75 -0.00019
66.8 -0.00013
66.85 -0.00015
66.9 -0.00014
66.95 -0.00007
67 -0.00015
67.05 -0.00011
67.1 0.00004
67.15 0.00028
67.2 0.00048
67.25 0.00063
67.3 0.00044
67.35 0.00017
67.4 0.00022
67.45 0.00036
67.5 0.00018
67.55 0.00012
67.6 0.00003
67.65 -0.00026
67.7 -0.00065
67.75 -0.0008
67.8 -0.00098
67.85 -0.00082
67.9 -0.00086
67.95 -0.00064
68 -0.0005
68.05 -0.00019
68.1 0.00012
68.15 0.0003
68.2 0.00042
68.25 0.00022
68.3 -0.00004
68.35 -0.00007
68.4 -0.0003
68.45 -0.00028
68.5 -0.00026
68.55 -0.00027
68.6 -0.00025
68.65 -0.00003
68.7 0.00024
68.75 0.00061
68.8 0.00062
68.85 0.00067
68.9 0.0007
68.95 0.00073
69 0.00064
69.05 0.00042
69.1 0.00028
69.15 0.00035
69.2 0.00025
69.25 0.00023
69.3 0.00041
69.35 0.00059
69.4 0.0005
69.45 0.00029
69.5 0.00012
69.55 -0.00006
69.6 -0.00027
69.65 -0.00018
69.7 -0.0003
69.75 -0.00058
69.8 -0.00094
69.85 -0.00134
69.9 -0.00139
69.95 -0.00135
70 -0.00121
70.05 -0.00097
70.1 -0.00059
70.15 -0.00052
70.2 -0.00047
70.25 -0.00049
70.3 -0.00058
70.35 -0.00079
70.4 -0.00101
70.45 -0.00117
70.5 -0.00112
70.55 -0.00076
70.6 -0.00071
70.65 -0.00082
70.7 -0.00083
70.75 -0.00092
70.8 -0.00112
70.85 -0.00104
70.9 -0.00088
70.95 -0.00054
71 -0.00007
71.05 0.00029
71.1 0.00044
71.15 0.00048
71.2 0.00028
71.25 0.00014
71.3 -0.00012
71.35 -0.00024
71.4 -0.00029
71.45 -0.00019
71.5 0.00015
71.55 0.00022
71.6 0.00009
71.65 -0.0002
71.7 -0.00027
71.75 -0.00033
71.8 -0.00037
71.85 -0.00012
71.9 -0.00002
71.95 -0.00008
72 -0.00003
72.05 -0.00013
72.1 -0.00004
72.15 -0.00003
72.2 -0.00004
72.25 0.00015
72.3 0.00041
72.35 0.00068
72.4 0.00089
72.45 0.00074
72.5 0.0008
72.55 0.00059
72.6 0.00022
72.65 0.00012
72.7 0.00029
72.75 0.00044
72.8 0.00051
72.85 0.00072
72.9 0.00073
72.95 0.00077
73 0.00068
73.05 0.00076
73.1 0.00082
73.15 0.00078
73.2 0.00069
73.25 0.0005
73.3 0.0002
73.35 0.00011
73.4 0.00009
73.45 0.00027
73.5 0.00045
73.55 0.00073
73.6 0.00107
73.65 0.00142
73.7 0.00127
73.75 0.00114
73.8 0.00117
73.85 0.00114
73.9 0.00116
73.95 0.00115
74 0.00111
74.05 0.00077
74.1 0.00064
74.15 0.00029
74.2 -0.00012
74.25 -0.00058
74.3 -0.00058
74.35 -0.00056
74.4 -0.00053
74.45 -0.00063
74.5 -0.0007
74.55 -0.00089
74.6 -0.00088
74.65 -0.00062
74.7 -0.00037
74.75 -0.00034
74.8 -0.00048
74.85 -0.00072
74.9 -0.00073
74.95 -0.00078
75 -0.00068
75.05 -0.00051
75.1 -0.00049
75.15 -0.0006
75.2 -0.00075
75.25 -0.00069
75.3 -0.00063
75.35 -0.00035
75.4 0.00003
75.45 0.00017
75.5 0.00027
75.55 0.00042
75.6 0.00061
75.65 0.00046
75.7 0.00025
75.75 -0.00008
75.8 -0.00011
75.85 0.00001
75.9 -0.00004
75.95 -0.00008
76 0.00009
76.05 0.00022
76.1 0.00035
76.15 0.00046
76.2 0.0006
76.25 0.00076
76.3 0.00091
76.35 0.0009
76.4 0.00066
76.45 0.00051
76.5 0.0004
76.55 0.00047
76.6 0.00058
76.65 0.00067
76.7 0.00064
76.75 0.00074
76.8 0.00085
76.85 0.00087
76.9 0.0006
76.95 0.00035
77 0.0001
77.05 0.00007
77.1 0.00018
77.15 0.00026
77.2 0.00021
77.25 0.00028
77.3 0.00028
77.35 0.00007
77.4 -0.00012
77.45 -0.00032
77.5 -0.00063
77.55 -0.00071
77.6 -0.00062
77.65 -0.00062
77.7 -0.00049
77.75 -0.00023
77.8 -0.00021
77.85 -0.00042
77.9 -0.00065
77.95 -0.00081
78 -0.00104
78.05 -0.00086
78.1 -0.00089
78.15 -0.00074
78.2 -0.00039
78.25 -0.00009
78.3 0.00011
78.35 0.00011
78.4 0.00008
78.45 -0.00004
78.5 -0.00015
78.55 -0.00028
78.6 -0.00015
78.65 -0.0002
78.7 -0.00037
78.75 -0.00059
78.8 -0.00044
78.85 -0.00034
78.9 -0.00026
78.95 0.00002
79 0.00042
79.05 0.00058
79.1 0.00074
79.15 0.00063
79.2 0.00039
79.25 0.00044
79.3 0.00035
79.35 0.00049
79.4 0.00044
79.45 0.00034
79.5 0.00027
79.55 0.00043
79.6 0.00032
79.65 0.00022
79.7 0.00022
79.75 0.00041
79.8 0.00049
79.85 0.0003
79.9 -0.0001
79.95 -0.00055
80 -0.00095
80.05 -0.00136
80.1 -0.00149
80.15 -0.00133
80.2 -0.00093
80.25 -0.00077
80.3 -0.00053
80.35 -0.0003
80.4 0.00009
80.45 0.00047
80.5 0.00086
80.55 0.00086
80.6 0.00068
80.65 0.00032
80.7 -0.00015
80.75 -0.00041
80.8 -0.00038
80.85 -0.0001
80.9 0.00013
80.95 0.00013
81 -0.00003
81.05 -0.00036
81.1 -0.00067
81.15 -0.00074
81.2 -0.00084
81.25 -0.00077
81.3 -0.00078
81.35 -0.00055
81.4 -0.00013
81.45 0.0001
81.5 0.00034
81.55 0.00039
81.6 0.0004
81.65 0.00025
81.7 0
81.75 -0.00011
81.8 0.00005
81.85 0.00024
81.9 0.0001
81.95 0.00004
82 -0.00007
82.05 -0.00019
82.1 -0.0003
82.15 -0.00042
82.2 -0.00047
82.25 -0.00049
82.3 -0.00047
82.35 -0.0003
82.4 -0.0003
82.45 -0.00048
82.5 -0.00069
82.55 -0.00055
82.6 -0.00027
82.65 -0.00005
82.7 0.00005
82.75 0.00014
82.8 0.00043
82.85 0.00073
82.9 0.00072
82.95 0.00065
83 0.00073
83.05 0.00094
83.1 0.00111
83.15 0.00135
83.2 0.00136
83.25 0.00112
83.3 0.001
83.35 0.00096
83.4 0.00078
83.45 0.00041
83.5 -0.00012
83.55 -0.00064
83.6 -0.00095
83.65 -0.00114
83.7 -0.00118
83.75 -0.00124
83.8 -0.00123
83.85 -0.00123
83.9 -0.00116
83.95 -0.001
84 -0.00099
84.05 -0.00093
84.1 -0.001
84.15 -0.00104
84.2 -0.001
84.25 -0.00069
84.3 -0.00059
84.35 -0.00046
84.4 -0.00043
84.45 -0.00022
84.5 0.00009
84.55 0.0005
84.6 0.00054
84.65 0.00042
84.7 0.00049
84.75 0.00033
84.8 0.0004
84.85 0.00045
84.9 0.00035
84.95 0.00016
85 -0.00008
85.05 -0.00032
85.1 -0.00051
85.15 -0.00052
85.2 -0.00025
85.25 -0.00017
85.3 -0.00014
85.35 -0.00013
85.4 -0.00001
85.45 -0.00015
85.5 -0.00022
85.55 -0.00027
85.6 -0.00036
85.65 -0.00025
85.7 -0.00018
85.75 -0.00017
85.8 -0.00006
85.85 -0.00012
85.9 -0.00012
85.95 0.00011
86 0.00036
86.05 0.00031
86.1 0.00002
86.15 -0.0003
86.2 -0.00041
86.25 -0.00061
86.3 -0.00083
86.35 -0.00089
86.4 -0.00075
86.45 -0.00036
86.5 -0.00019
86.55 0.00015
86.6 0.00057
86.65 0.00057
86.7 0.00042
86.75 0.0004
86.8 0.00058
86.85 0.00043
86.9 0.00046
86.95 0.00023
87 0.00027
87.05 0.00027
87.1 0.00022
87.15 0.00024
87.2 0.00004
87.25 0.00001
87.3 0.0001
87.35 0.00034
87.4 0.00023
87.45 0.00026
87.5 0.00013
87.55 -0.00005
87.6 -0.00012
87.65 0.00001
87.7 0.00006
87.75 0.00024
87.8 0.00054
87.85 0.00045
87.9 0.00052
87.95 0.00066
88 0.00088
88.05 0.00081
88.1 0.00055
88.15 0.00043
88.2 0.0003
88.25 0.00037
88.3 0.0006
88.35 0.00045
88.4 0.00042
88.45 0.00041
88.5 0.0006
88.55 0.00087
88.6 0.00112
88.65 0.00127
88.7 0.00139
88.75 0.00117
88.8 0.00075
88.85 0.00047
88.9 0.00047
88.95 0.0002
89 -0.00014
89.05 -0.00048
89.1 -0.0008
89.15 -0.00091
89.2 -0.00083
89.25 -0.00068
89.3 -0.00065
89.35 -0.00058
89.4 -0.00061
89.45 -0.00055
89.5 -0.0006
89.55 -0.0005
89.6 -0.00018
89.65 0.00011
89.7 0.0004
89.75 0.0004
89.8 0.00036
89.85 0.00052
89.9 0.00067
89.95 0.00069
90 0.00041
90.05 0.00014
90.1 0.00012
90.15 0.00025
90.2 0.0002
90.25 0.00002
90.3 -0.00002
90.35 -0.0001
90.4 -0.00004
90.45 -0.00003
90.5 0.00006
90.55 0.00031
90.6 0.00059
90.65 0.00081
90.7 0.00069
90.75 0.00077
90.8 0.0006
90.85 0.00058
90.9 0.00034
90.95 -0.00004
91 -0.00011
91.05 0.00003
91.1 0.00002
91.15 0.00023
91.2 0.00037
91.25 0.00051
91.3 0.00071
91.35 0.00086
91.4 0.00079
91.45 0.00065
91.5 0.00068
91.55 0.00069
91.6 0.0008
91.65 0.0006
91.7 0.00015
91.75 -0.00026
91.8 -0.00038
91.85 -0.00068
91.9 -0.00078
91.95 -0.00063
92 -0.00038
92.05 0.00003
92.1 0.00025
92.15 0.00025
92.2 0.00037
92.25 0.00062
92.3 0.00046
92.35 0.00008
92.4 0.00001
92.45 -0.00025
92.5 -0.00038
92.55 -0.00027
92.6 -0.00021
92.65 -0.00033
92.7 -0.00048
92.75 -0.00039
92.8 -0.00023
92.85 -0.00012
92.9 -0.00016
92.95 -0.0001
93 -0.00013
93.05 -0.00001
93.1 0.00006
93.15 0.00007
93.2 0.00015
93.25 -0.00001
93.3 -0.00038
93.35 -0.00076
93.4 -0.00077
93.45 -0.00062
93.5 -0.00035
93.55 -0.00038
93.6 -0.00037
93.65 -0.00053
93.7 -0.00072
93.75 -0.00105
93.8 -0.00113
93.85 -0.0009
93.9 -0.00071
93.95 -0.00077
94 -0.00086
94.05 -0.00099
94.1 -0.00088
94.15 -0.00059
94.2 -0.00059
94.25 -0.00047
94.3 -0.00046
94.35 -0.0004
94.4 -0.00041
94.45 -0.00048
94.5 -0.00051
94.55 -0.00044
94.6 -0.00035
94.65 -0.00029
94.7 -0.00005
94.75 -0.0001
94.8 0.00009
94.85 0.00018
94.9 0.00046
94.95 0.00071
95 0.00083
95.05 0.00105
95.1 0.00112
95.15 0.00129
95.2 0.00123
95.25 0.00123
95.3 0.00117
95.35 0.00084
95.4 0.00033
95.45 0.00016
95.5 0.00018
95.55 0.0001
95.6 -0.00011
95.65 -0.00008
95.7 -0.00026
95.75 -0.00044
95.8 -0.00035
95.85 -0.00016
95.9 -0.00003
95.95 -0.00012
96 -0.0002
96.05 -0.00032
96.1 -0.00045
96.15 -0.00032
96.2 -0.00042
96.25 -0.00026
96.3 -0.00026
96.35 -0.00045
96.4 -0.0004
96.45 -0.00019
96.5 -0.00012
96.55 -0.00024
96.6 -0.00022
96.65 -0.00014
96.7 -0.00025
96.75 -0.00051
96.8 -0.00041
96.85 -0.00024
96.9 -0.00011
96.95 0.00012
97 0.00011
97.05 -0.00007
97.1 -0.00005
97.15 -0.00008
97.2 -0.00035
97.25 -0.00073
97.3 -0.00094
97.35 -0.00099
97.4 -0.00082
97.45 -0.00073
97.5 -0.00052
97.55 -0.00017
97.6 -0.00002
97.65 0.00021
97.7 0.00054
97.75 0.00054
97.8 0.00072
97.85 0.00055
97.9 0.00032
97.95 0.00035
98 0.00013
98.05 -0.00021
98.1 -0.00062
98.15 -0.00107
98.2 -0.00147
98.25 -0.00168
98.3 -0.00158
98.35 -0.00128
98.4 -0.00113
98.45 -0.00095
98.5 -0.00091
98.55 -0.00063
98.6 -0.0002
98.65 0.00031
98.7 0.00042
98.75 0.00049
98.8 0.00041
98.85 0.00031
98.9 0.00041
98.95 0.0006
99 0.00073
99.05 0.00086
99.1 0.00095
99.15 0.00071
99.2 0.00054
99.25 0.00029
99.3 -0.00001
99.35 -0.00044
99.4 -0.00051
99.45 -0.00063
99.5 -0.0006
99.55 -0.00053
99.6 -0.00032
99.65 0.00002
99.7 0.00039
99.75 0.00082
99.8 0.00115
99.85 0.00112
99.9 0.00093
99.95 0.00068
