0 0
0.05 0.00125
0.1 0.00436
0.15 0.01489
0.2 0.02899
0.25 0.03961
0.3 0.04977
0.35 0.05308
0.4 0.05727
0.45 0.05962
0.5 0.06363
0.55 0.06279
0.6 0.05936
0.65 0.05996
0.7 0.0562
0.75 0.0534
0.8 0.05451
0.85 0.0558
0.9 0.05894
0.95 0.05783
1 0.05699
1.05 0.05394
1.1 0.05122
1.15 0.04933
1.2 0.04385
1.25 0.04453
1.3 0.04467
1.35 0.04097
1.4 0.04164
1.45 0.04325
1.5 0.04261
1.55 0.03985
1.6 0.03746
1.65 0.03626
1.7 0.03859
1.75 0.03908
1.8 0.04164
1.85 0.04118
1.9 0.04154
1.95 0.04392
2 0.04645
2.05 0.05032
2.1 0.04795
2.15 0.04787
2.2 0.0478
2.25 0.04699
2.3 0.04484
2.35 0.0423
2.4 0.04193
2.45 0.03688
2.5 0.0326
2.55 0.03162
2.6 0.0345
2.65 0.03816
2.7 0.04254
2.75 0.04578
2.8 0.04656
2.85 0.04555
2.9 0.0407
2.95 0.03815
3 0.03104
3.05 0.02766
3.1 0.02759
3.15 0.023
3.2 0.01752
3.25 0.0111
3.3 0.0059
3.35 0.0024
3.4 0.00122
3.45 0.00094
3.5 0.00039
3.55 -0.00127
3.6 -0.00263
3.65 0.00238
3.7 0.00228
3.75 0.00692
3.8 0.00647
3.85 0.00355
3.9 -0.00174
3.95 -0.00555
4 -0.00629
4.05 -0.00924
4.1 -0.01295
4.15 -0.00988
4.2 -0.00348
4.25 -0.00042
4.3 -0.00344
4.35 -0.00454
4.4 -0.00725
4.45 -0.01396
4.5 -0.01798
4.55 -0.02217
4.6 -0.02606
4.65 -0.03683
4.7 -0.0502
4.75 -0.06851
4.8 -0.09248
4.85 -0.12021
4.9 -0.15004
4.95 -0.18622
5 -0.2282
5.05 -0.27228
5.1 -0.32182
5.15 -0.38017
5.2 -0.4477
5.25 -0.52064
5.3 -0.60072
5.35 -0.68764
5.4 -0.77795
5.45 -0.86515
5.5 -0.95557
5.55 -1.04495
5.6 -1.14155
5.65 -1.24204
5.7 -1.34097
5.75 -1.43869
5.8 -1.5306
5.85 -1.61757
5.9 -1.70022
5.95 -1.78763
6 -1.87741
6.05 -1.96539
6.1 -2.04229
6.15 -2.11791
6.2 -2.1856
6.25 -2.24689
6.3 -2.30496
6.35 -2.35799
6.4 -2.4025
6.45 -2.44426
6.5 -2.48117
6.55 -2.50795
6.6 -2.52283
6.65 -2.5268
6.7 -2.5137
6.75 -2.48658
6.8 -2.44677
6.85 -2.38984
6.9 -2.3227
6.95 -2.2439
7 -2.14669
7.05 -2.03313
7.1 -1.9036
7.15 -1.75508
7.2 -1.5946
7.25 -1.4221
7.3 -1.23739
7.35 -1.04144
7.4 -0.83597
7.45 -0.63263
7.5 -0.42774
7.55 -0.22021
7.6 -0.0177
7.65 0.17818
7.7 0.37494
7.75 0.56123
7.8 0.74459
7.85 0.91447
7.9 1.07664
7.95 1.2283
8 1.3641
8.05 1.49028
8.1 1.60725
8.15 1.71249
8.2 1.80659
8.25 1.89127
8.3 1.96701
8.35 2.02969
8.4 2.08578
8.45 2.12608
8.5 2.15698
8.55 2.18498
8.6 2.20955
8.65 2.22948
8.7 2.23878
8.75 2.24461
8.8 2.24721
8.85 2.24776
8.9 2.24362
8.95 2.23607
9 2.22504
9.05 2.20783
9.1 2.1889
9.15 2.16603
9.2 2.14293
9.25 2.11665
9.3 2.08971
9.35 2.05995
9.4 2.03371
9.45 2.00628
9.5 1.98328
9.55 1.96005
9.6 1.93767
9.65 1.9146
9.7 1.89271
9.75 1.87011
9.8 1.845
9.85 1.81885
9.9 1.78924
9.95 1.75418
10 1.71656
10.05 1.67991
10.1 1.64492
10.15 1.60444
10.2 1.5641
10.25 1.5204
10.3 1.4752
10.35 1.42555
10.4 1.3775
10.45 1.32584
10.5 1.27285
10.55 1.22033
10.6 1.17227
10.65 1.12213
10.7 1.07802
10.75 1.03057
10.8 0.98263
10.85 0.93723
10.9 0.89479
10.95 0.85181
11 0.80576
11.05 0.76245
11.1 0.72141
11.15 0.67573
11.2 0.63444
11.25 0.59365
11.3 0.55441
11.35 0.51522
11.4 0.47179
11.45 0.42929
11.5 0.38617
11.55 0.34227
11.6 0.30087
11.65 0.25926
11.7 0.22595
11.75 0.19712
11.8 0.16799
11.85 0.14262
11.9 0.11783
11.95 0.09274
12 0.06539
12.05 0.0365
12.1 0.00922
12.15 -0.02184
12.2 -0.04891
12.25 -0.07778
12.3 -0.10776
12.35 -0.13524
12.4 -0.15612
12.45 -0.17503
12.5 -0.1904
12.55 -0.20559
12.6 -0.22383
12.65 -0.24069
12.7 -0.25559
12.75 -0.2664
12.8 -0.27562
12.85 -0.2842
12.9 -0.29081
12.95 -0.30309
13 -0.31548
13.05 -0.32829
13.1 -0.34121
13.15 -0.35358
13.2 -0.35803
13.25 -0.36555
13.3 -0.36621
13.35 -0.36258
13.4 -0.36057
13.45 -0.36076
13.5 -0.36247
13.55 -0.3615
13.6 -0.3627
13.65 -0.36062
13.7 -0.36499
13.75 -0.36603
13.8 -0.36868
13.85 -0.3683
13.9 -0.37103
13.95 -0.37135
14 -0.36839
14.05 -0.37016
14.1 -0.3707
14.15 -0.3717
14.2 -0.37242
14.25 -0.37075
14.3 -0.37146
14.35 -0.3719
14.4 -0.36617
14.45 -0.36349
14.5 -0.3636
14.55 -0.35909
14.6 -0.3551
14.65 -0.34627
14.7 -0.34128
14.75 -0.33756
14.8 -0.32871
14.85 -0.32281
14.9 -0.31412
14.95 -0.30269
15 -0.29376
15.05 -0.28384
15.1 -0.27635
15.15 -0.26996
15.2 -0.27093
15.25 -0.26932
15.3 -0.27026
15.35 -0.27376
15.4 -0.27892
15.45 -0.27811
15.5 -0.27783
15.55 -0.2775
15.6 -0.27502
15.65 -0.27355
15.7 -0.26663
15.75 -0.25601
15.8 -0.25182
15.85 -0.24855
15.9 -0.24886
15.95 -0.24654
16 -0.24433
16.05 -0.24466
16.1 -0.24228
16.15 -0.24233
16.2 -0.23979
16.25 -0.23152
16.3 -0.22021
16.35 -0.21144
16.4 -0.206
16.45 -0.19636
16.5 -0.19139
16.55 -0.18416
16.6 -0.17547
16.65 -0.16781
16.7 -0.15968
16.75 -0.15215
16.8 -0.14978
16.85 -0.15284
16.9 -0.15928
16.95 -0.16216
17 -0.1682
17.05 -0.17241
17.1 -0.17169
17.15 -0.1713
17.2 -0.17114
17.25 -0.1663
17.3 -0.16385
17.35 -0.15632
17.4 -0.14849
17.45 -0.13857
17.5 -0.12933
17.55 -0.12101
17.6 -0.11934
17.65 -0.11898
17.7 -0.12058
17.75 -0.1233
17.8 -0.1283
17.85 -0.13461
17.9 -0.13359
17.95 -0.12921
18 -0.12206
18.05 -0.11616
18.1 -0.10965
18.15 -0.10612
18.2 -0.10454
18.25 -0.10453
18.3 -0.10863
18.35 -0.11322
18.4 -0.11388
18.45 -0.11512
18.5 -0.11856
18.55 -0.12022
18.6 -0.11767
18.65 -0.11334
18.7 -0.10801
18.75 -0.09944
18.8 -0.09522
18.85 -0.08745
18.9 -0.08667
18.95 -0.08505
19 -0.07969
19.05 -0.0794
19.1 -0.08127
19.15 -0.08229
19.2 -0.08438
19.25 -0.08124
19.3 -0.07732
19.35 -0.07893
19.4 -0.07824
19.45 -0.0787
19.5 -0.07997
19.55 -0.07592
19.6 -0.07278
19.65 -0.07397
19.7 -0.07142
19.75 -0.06526
19.8 -0.06107
19.85 -0.05948
19.9 -0.06077
19.95 -0.0573
20 -0.05213
20.05 -0.04528
20.1 -0.03978
20.15 -0.03446
20.2 -0.03511
20.25 -0.03671
20.3 -0.03842
20.35 -0.04308
20.4 -0.04491
20.45 -0.05076
20.5 -0.05575
20.55 -0.05892
20.6 -0.0592
20.65 -0.05995
20.7 -0.05956
20.75 -0.05978
20.8 -0.05902
20.85 -0.05396
20.9 -0.05103
20.95 -0.04764
21 -0.04422
21.05 -0.04672
21.1 -0.04541
21.15 -0.04409
21.2 -0.04361
21.25 -0.04155
21.3 -0.04362
21.35 -0.0452
21.4 -0.04774
21.45 -0.05151
21.5 -0.05449
21.55 -0.05929
21.6 -0.06392
21.65 -0.06658
21.7 -0.07052
21.75 -0.07291
21.8 -0.07218
21.85 -0.07282
21.9 -0.07293
21.95 -0.06634
22 -0.06179
22.05 -0.05481
22.1 -0.05111
22.15 -0.04277
22.2 -0.04027
22.25 -0.03461
22.3 -0.03098
22.35 -0.02439
22.4 -0.02027
22.45 -0.01516
22.5 -0.01024
22.55 -0.00709
22.6 -0.00536
22.65 -0.00873
22.7 -0.01217
22.75 -0.01161
22.8 -0.00886
22.85 -0.01184
22.9 -0.01351
22.95 -0.01105
23 -0.00676
23.05 -0.00354
23.1 -0.00621
23.15 -0.00996
23.2 -0.01757
23.25 -0.02043
23.3 -0.025
23.35 -0.03228
23.4 -0.03518
23.45 -0.03307
23.5 -0.02859
23.55 -0.02452
23.6 -0.02008
23.65 -0.01477
23.7 -0.01315
23.75 -0.01151
23.8 -0.0091
23.85 -0.00455
23.9 -0.00576
23.95 -0.01087
24 -0.01125
24.05 -0.01352
24.1 -0.01096
24.15 -0.01195
24.2 -0.01463
24.25 -0.02112
24.3 -0.02844
24.35 -0.03635
24.4 -0.03846
24.45 -0.03365
24.5 -0.02478
24.55 -0.01829
24.6 -0.01235
24.65 -0.00538
24.7 0.00083
24.75 0.00254
24.8 0.00002
24.85 -0.00281
24.9 -0.00693
24.95 -0.01365
25 -0.01713
25.05 -0.01523
25.1 -0.01382
25.15 -0.01193
25.2 -0.00678
25.25 -0.00215
25.3 -0.00064
25.35 -0.00276
25.4 -0.00835
25.45 -0.01323
25.5 -0.01528
25.55 -0.01625
25.6 -0.01785
25.65 -0.01875
25.7 -0.01609
25.75 -0.0123
25.8 -0.01152
25.85 -0.01386
25.9 -0.01873
25.95 -0.02574
26 -0.02889
26.05 -0.02783
26.1 -0.02131
26.15 -0.01563
26.2 -0.01068
26.25 -0.00667
26.3 -0.00692
26.35 -0.01068
26.4 -0.01339
26.45 -0.01152
26.5 -0.00865
26.55 -0.00873
26.6 -0.00816
26.65 -0.00554
26.7 -0.00565
26.75 -0.00805
26.8 -0.00929
26.85 -0.00747
26.9 -0.0073
26.95 -0.00421
27 0.00191
27.05 0.00806
27.1 0.01375
27.15 0.01187
27.2 0.0076
27.25 0.00397
27.3 -0.00346
27.35 -0.01142
27.4 -0.01174
27.45 -0.00831
27.5 -0.00893
27.55 -0.01063
27.6 -0.01229
27.65 -0.01663
27.7 -0.01443
27.75 -0.01003
27.8 -0.01073
27.85 -0.00835
27.9 -0.00242
27.95 0.0009
28 0.00159
28.05 -0.00266
28.1 -0.01027
28.15 -0.01843
28.2 -0.0211
28.25 -0.02231
28.3 -0.01935
28.35 -0.02038
28.4 -0.02012
28.45 -0.02038
28.5 -0.01876
28.55 -0.01585
28.6 -0.01373
28.65 -0.013
28.7 -0.01367
28.75 -0.01697
28.8 -0.01635
28.85 -0.01237
28.9 -0.00863
28.95 -0.00169
29 0.00407
29.05 0.00776
29.1 0.00551
29.15 0.00693
29.2 0.0027
29.25 -0.00282
29.3 -0.00773
29.35 -0.00809
29.4 -0.01255
29.45 -0.01223
29.5 -0.01199
29.55 -0.0145
29.6 -0.01501
29.65 -0.01501
29.7 -0.01553
29.75 -0.01723
29.8 -0.01439
29.85 -0.0116
29.9 -0.00973
29.95 -0.01161
30 -0.01175
30.05 -0.01415
30.1 -0.01052
30.15 -0.00454
30.2 0.00174
30.25 0.00655
30.3 0.0122
30.35 0.0141
30.4 0.01488
30.45 0.01664
30.5 0.01216
30.55 0.01072
30.6 0.00526
30.65 0.00257
30.7 0.00136
30.75 0.00246
30.8 0.00443
30.85 0.00204
30.9 0.00228
30.95 0.00178
31 0.00393
31.05 0.00892
31.1 0.01438
31.15 0.01979
31.2 0.01967
31.25 0.01774
31.3 0.01446
31.35 0.00656
31.4 0.0036
31.45 -0.00301
31.5 -0.00385
31.55 -0.00071
31.6 0.00445
31.65 0.00489
31.7 0.00902
31.75 0.01305
31.8 0.01277
31.85 0.00948
31.9 0.00598
31.95 0.00763
32 0.00582
32.05 0.00653
32.1 0.01029
32.15 0.01138
32.2 0.00959
32.25 0.01104
32.3 0.01397
32.35 0.01591
32.4 0.01465
32.45 0.01059
32.5 0.01064
32.55 0.00942
32.6 0.00444
32.65 0.00213
32.7 -0.0014
32.75 -0.00718
32.8 -0.01105
32.85 -0.01212
32.9 -0.00865
32.95 -0.00144
33 0.00311
33.05 0.00528
33.1 0.01013
33.15 0.0148
33.2 0.01391
33.25 0.00835
33.3 0.00627
33.35 -0.00014
33.4 -0.00622
33.45 -0.00575
33.5 -0.00799
33.55 -0.01282
33.6 -0.01349
33.65 -0.01802
33.7 -0.02411
33.75 -0.02629
33.8 -0.02207
33.85 -0.01549
33.9 -0.01165
33.95 -0.01232
34 -0.00839
34.05 -0.00545
34.1 -0.00772
34.15 -0.00954
34.2 -0.01159
34.25 -0.01659
34.3 -0.01469
34.35 -0.00999
34.4 -0.00535
34.45 -0.00249
34.5 -0.00509
34.55 -0.0113
34.6 -0.01417
34.65 -0.01601
34.7 -0.01524
34.75 -0.01112
34.8 -0.00581
34.85 -0.00122
34.9 0.00512
34.95 0.01232
35 0.01823
35.05 0.02229
35.1 0.02164
35.15 0.01552
35.2 0.00913
35.25 0.00131
35.3 -0.00237
35.35 -0.00263
35.4 -0.00603
35.45 -0.0071
35.5 -0.00404
35.55 0.00184
35.6 0.00101
35.65 0.00178
35.7 -0.00158
35.75 -0.00264
35.8 -0.00803
35.85 -0.01538
35.9 -0.01554
35.95 -0.01402
36 -0.01188
36.05 -0.00634
36.1 -0.00605
36.15 -0.00491
36.2 -0.00782
36.25 -0.01266
36.3 -0.01238
36.35 -0.01247
36.4 -0.01413
36.45 -0.01252
36.5 -0.01494
36.55 -0.01097
36.6 -0.00705
36.65 -0.00416
36.7 -0.00167
36.75 -0.00432
36.8 -0.00457
36.85 -0.00532
36.9 -0.00369
36.95 -0.00542
37 -0.00497
37.05 -0.00233
37.1 -0.00403
37.15 -0.00618
37.2 -0.00503
37.25 -0.00219
37.3 0.00375
37.35 0.00631
37.4 0.00642
37.45 0.00368
37.5 0.002
37.55 0.00355
37.6 0.00665
37.65 0.00346
37.7 -0.00153
37.75 -0.00886
37.8 -0.01096
37.85 -0.01195
37.9 -0.01523
37.95 -0.01754
38 -0.01959
38.05 -0.02234
38.1 -0.01952
38.15 -0.01801
38.2 -0.01551
38.25 -0.01275
38.3 -0.00927
38.35 -0.01031
38.4 -0.00558
38.45 -0.00548
38.5 -0.00702
38.55 -0.00544
38.6 -0.00603
38.65 -0.00402
38.7 0.00091
38.75 0.00772
38.8 0.01068
38.85 0.00938
38.9 0.01016
38.95 0.00583
39 0.00385
39.05 0.00133
39.1 -0.00382
39.15 -0.00674
39.2 -0.01
39.25 -0.00912
39.3 -0.00551
39.35 -0.0018
39.4 0.00458
39.45 0.00429
39.5 -0.00077
39.55 -0.00178
39.6 -0.00041
39.65 0.0025
39.7 0.00398
39.75 0.0046
39.8 0.00483
39.85 0.00709
39.9 0.00523
39.95 0.00454
40 0.00779
40.05 0.00998
40.1 0.0107
40.15 0.00798
40.2 0.00338
40.25 0.00422
40.3 0.00037
40.35 -0.00079
40.4 -0.00164
40.45 -0.00524
40.5 -0.00575
40.55 -0.00707
40.6 -0.01144
40.65 -0.01712
40.7 -0.01755
40.75 -0.01286
40.8 -0.01095
40.85 -0.00461
40.9 -0.00067
40.95 -0.00179
41 -0.00139
41.05 0.00281
41.1 0.00589
41.15 0.01081
41.2 0.01302
41.25 0.01559
41.3 0.01213
41.35 0.01327
41.4 0.01702
41.45 0.02215
41.5 0.01915
41.55 0.01803
41.6 0.01623
41.65 0.00915
41.7 0.00155
41.75 -0.00385
41.8 -0.01008
41.85 -0.01035
41.9 -0.00635
41.95 -0.00734
42 -0.00552
42.05 -0.00785
42.1 -0.01207
42.15 -0.01462
42.2 -0.01615
42.25 -0.01686
42.3 -0.01281
42.35 -0.00837
42.4 -0.00355
42.45 0.00339
42.5 0.01188
42.55 0.01515
42.6 0.01922
42.65 0.02315
42.7 0.01973
42.75 0.01925
42.8 0.01413
42.85 0.01294
42.9 0.01219
42.95 0.00991
43 0.00437
43.05 -0.00239
43.1 -0.00548
43.15 -0.01111
43.2 -0.01366
43.25 -0.01548
43.3 -0.01884
43.35 -0.01958
43.4 -0.01946
43.45 -0.01389
43.5 -0.01018
43.55 -0.01123
43.6 -0.01444
43.65 -0.01543
43.7 -0.01842
43.75 -0.02334
43.8 -0.02103
43.85 -0.01888
43.9 -0.01589
43.95 -0.01722
44 -0.01479
44.05 -0.01454
44.1 -0.0124
44.15 -0.00777
44.2 -0.00826
44.25 -0.0072
44.3 -0.00454
44.35 -0.00523
44.4 -0.00892
44.45 -0.01078
44.5 -0.0095
44.55 -0.00541
44.6 -0.00266
44.65 -0.00069
44.7 -0.00357
44.75 -0.00604
44.8 -0.00756
44.85 -0.01051
44.9 -0.00687
44.95 -0.00703
45 -0.00336
45.05 0.00099
45.1 0.00057
45.15 -0.00343
45.2 -0.00893
45.25 -0.00827
45.3 -0.00289
45.35 0.0042
45.4 0.01165
45.45 0.01114
45.5 0.01459
45.55 0.01802
45.6 0.02262
45.65 0.02491
45.7 0.01999
45.75 0.01576
45.8 0.00779
45.85 0.00547
45.9 0.00777
45.95 0.00863
46 0.0057
46.05 0.00296
46.1 0.00528
46.15 0.01009
46.2 0.00822
46.25 0.01092
46.3 0.01064
46.35 0.00535
46.4 -0.00098
46.45 -0.00253
46.5 -0.00482
46.55 -0.00852
46.6 -0.00803
46.65 -0.01152
46.7 -0.01411
46.75 -0.01159
46.8 -0.0069
46.85 -0.00706
46.9 -0.00259
46.95 -0.00139
47 -0.00187
47.05 -0.00432
47.1 -0.00731
47.15 -0.00786
47.2 -0.01032
47.25 -0.01006
47.3 -0.00511
47.35 -0.00218
47.4 0.00372
47.45 0.01167
47.5 0.01638
47.55 0.02178
47.6 0.0192
47.65 0.0161
47.7 0.01538
47.75 0.0126
47.8 0.01128
47.85 0.00512
47.9 0.00508
47.95 0.00434
48 -0.0002
48.05 -0.00291
48.1 -0.00495
48.15 -0.00948
48.2 -0.01578
48.25 -0.01687
48.3 -0.01225
48.35 -0.00477
48.4 -0.00189
48.45 -0.00053
48.5 0.00491
48.55 0.00631
48.6 0.0048
48.65 0.00266
48.7 0.00335
48.75 0.00272
48.8 -0.00027
48.85 -0.00261
48.9 -0.00759
48.95 -0.01191
49 -0.01364
49.05 -0.01497
49.1 -0.01746
49.15 -0.01978
49.2 -0.0156
49.25 -0.01331
49.3 -0.00656
49.35 0.00005
49.4 0.00814
49.45 0.01646
49.5 0.01869
49.55 0.02082
49.6 0.01982
49.65 0.01983
49.7 0.01555
49.75 0.01343
49.8 0.01289
49.85 0.00938
49.9 0.00447
49.95 0.0037
50 -0.00072
50.05 -0.00652
50.1 -0.00937
50.15 -0.00922
50.2 -0.00771
50.25 -0.00271
50.3 0.00258
50.35 0.0079
50.4 0.00762
50.45 0.00788
50.5 0.00651
50.55 0.0005
50.6 -0.00138
50.65 -0.00258
50.7 -0.00486
50.75 -0.00283
50.8 -0.00275
50.85 -0.00581
50.9 -0.00767
50.95 -0.01236
51 -0.01611
51.05 -0.01979
51.1 -0.01886
51.15 -0.01616
51.2 -0.01726
51.25 -0.01737
51.3 -0.01458
51.35 -0.01209
51.4 -0.01067
51.45 -0.01306
51.5 -0.01073
51.55 -0.00992
51.6 -0.00493
51.65 -0.0053
51.7 -0.00367
51.75 -0.00595
51.8 -0.00596
51.85 -0.00221
51.9 0.00281
51.95 0.00203
52 0.00117
52.05 -0.00238
52.1 -0.00282
52.15 0.00144
52.2 0.00612
52.25 0.00621
52.3 0.00298
52.35 -0.00165
52.4 -0.00152
52.45 0.00141
52.5 0.00162
52.55 0.00314
52.6 0.00243
52.65 0.00031
52.7 0.00116
52.75 0.00168
52.8 0.00472
52.85 0.00476
52.9 0.00345
52.95 0.00404
53 0.00207
53.05 0.00055
53.1 0.00432
53.15 0.00993
53.2 0.01383
53.25 0.01645
53.3 0.01609
53.35 0.01363
53.4 0.01516
53.45 0.0149
53.5 0.01694
53.55 0.02028
53.6 0.02512
53.65 0.02642
53.7 0.02765
53.75 0.02204
53.8 0.01565
53.85 0.00618
53.9 0.00201
53.95 -0.00155
54 -0.00297
54.05 -0.00379
54.1 -0.00439
54.15 -0.00267
54.2 0.00107
54.25 -0.00026
54.3 -0.00144
54.35 -0.00319
54.4 -0.00634
54.45 -0.00688
54.5 -0.00584
54.55 -0.00674
54.6 -0.00677
54.65 -0.00594
54.7 -0.00324
54.75 -0.00225
54.8 -0.00153
54.85 -0.00532
54.9 -0.00485
54.95 -0.00875
55 -0.00994
55.05 -0.01025
55.1 -0.01276
55.15 -0.01265
55.2 -0.01108
55.25 -0.0076
55.3 -0.00503
55.35 -0.00589
55.4 -0.00696
55.45 -0.00259
55.5 -0.00141
55.55 -0.00225
55.6 -0.0053
55.65 -0.00645
55.7 -0.00941
55.75 -0.01336
55.8 -0.01537
55.85 -0.01938
55.9 -0.01998
55.95 -0.022
56 -0.0179
56.05 -0.01532
56.1 -0.01599
56.15 -0.01393
56.2 -0.01206
56.25 -0.00575
56.3 0.00083
56.35 0.0036
56.4 0.00656
56.45 0.01224
56.5 0.01238
56.55 0.00997
56.6 0.01045
56.65 0.00822
56.7 0.00683
56.75 0.00948
56.8 0.01022
56.85 0.00696
56.9 0.00641
56.95 0.00422
57 0.00619
57.05 0.00453
57.1 0.00611
57.15 0.00358
57.2 0.003
57.25 0.00296
57.3 0.00328
57.35 0.00332
57.4 0.00619
57.45 0.00564
57.5 0.0041
57.55 0.00265
57.6 -0.00279
57.65 -0.00797
57.7 -0.00965
57.75 -0.01107
57.8 -0.01382
57.85 -0.01397
57.9 -0.01534
57.95 -0.01188
58 -0.01211
58.05 -0.00863
58.1 -0.00955
58.15 -0.01344
58.2 -0.01069
58.25 -0.00845
58.3 -0.00224
58.35 0.00271
58.4 0.00535
58.45 0.01074
58.5 0.01698
58.55 0.02089
58.6 0.01811
58.65 0.01616
58.7 0.00943
58.75 0.00585
58.8 -0.00003
58.85 -0.00302
58.9 -0.00703
58.95 -0.00795
59 -0.00781
59.05 -0.00879
59.1 -0.00945
59.15 -0.00997
59.2 -0.00674
59.25 -0.00542
59.3 -0.00479
59.35 -0.00641
59.4 -0.00286
59.45 -0.00088
59.5 -0.00102
59.55 -0.00275
59.6 -0.00458
59.65 -0.00864
59.7 -0.00677
59.75 -0.00116
59.8 0.0072
59.85 0.01013
59.9 0.01
59.95 0.0125
60 0.01557
60.05 0.01939
60.1 0.02429
60.15 0.02195
60.2 0.0211
60.25 0.02292
60.3 0.02265
60.35 0.02437
60.4 0.02113
60.45 0.01265
60.5 0.00662
60.55 -0.00037
60.6 -0.00759
60.65 -0.0112
60.7 -0.01396
60.75 -0.01564
60.8 -0.01569
60.85 -0.01237
60.9 -0.01147
60.95 -0.0123
61 -0.01022
61.05 -0.00557
61.1 -0.00054
61.15 0.00021
61.2 0.00324
61.25 0.00561
61.3 0.00272
61.35 0.00119
61.4 0.00201
61.45 0.00363
61.5 0.00714
61.55 0.01259
61.6 0.01602
61.65 0.01984
61.7 0.02393
61.75 0.02094
61.8 0.02089
61.85 0.01972
61.9 0.01385
61.95 0.01327
62 0.01516
62.05 0.01056
62.1 0.009
62.15 0.00696
62.2 0.00626
62.25 0.00515
62.3 0.00799
62.35 0.00707
62.4 0.00885
62.45 0.01055
62.5 0.00916
62.55 0.01038
62.6 0.01428
62.65 0.01227
62.7 0.01036
62.75 0.00441
62.8 -0.00076
62.85 -0.00369
62.9 -0.00226
62.95 0.00099
63 0.00447
63.05 0.0034
63.1 0.00487
63.15 0.00052
63.2 0.00039
63.25 -0.00279
63.3 -0.00534
63.35 -0.00542
63.4 -0.00132
63.45 0.00135
63.5 0.00196
63.55 0.00092
63.6 0.00302
63.65 0.00084
63.7 -0.00021
63.75 0.00028
63.8 -0.00161
63.85 0.00102
63.9 -0.00092
63.95 -0.00506
64 -0.00966
64.05 -0.01316
64.1 -0.01188
64.15 -0.00732
64.2 -0.00457
64.25 -0.00436
64.3 -0.0067
64.35 -0.00537
64.4 -0.00632
64.45 -0.0051
64.5 -0.00503
64.55 -0.00178
64.6 -0.00394
64.65 -0.0037
64.7 -0.00224
64.75 -0.00517
64.8 -0.00484
64.85 -0.00797
64.9 -0.01194
64.95 -0.01658
65 -0.01389
65.05 -0.01062
65.1 -0.00507
65.15 -0.00483
65.2 -0.0038
65.25 -0.00595
65.3 -0.00251
65.35 -0.00311
65.4 -0.00327
65.45 -0.00483
65.5 -0.00216
65.55 0.00087
65.6 0.00062
65.65 -0.00287
65.7 -0.00876
65.75 -0.00892
65.8 -0.00545
65.85 -0.00131
65.9 -0.00166
65.95 0.00104
66 0.00243
66.05 -0.00151
66.1 -0.00634
66.15 -0.01183
66.2 -0.00988
66.25 -0.00758
66.3 -0.00493
66.35 -0.00192
66.4 -0.00256
66.45 -0.00423
66.5 -0.00305
66.55 -0.00123
66.6 -0.00152
66.65 -0.00048
66.7 -0.00039
66.75 0.00076
66.8 -0.00303
66.85 -0.00985
66.9 -0.01608
66.95 -0.02298
67 -0.02203
67.05 -0.01793
67.1 -0.01037
67.15 -0.00015
67.2 0.00489
67.25 0.01023
67.3 0.00897
67.35 0.01003
67.4 0.01418
67.45 0.01632
67.5 0.01297
67.55 0.00908
67.6 0.00948
67.65 0.00454
67.7 0.00485
67.75 0.00381
67.8 0.00615
67.85 0.00934
67.9 0.01013
67.95 0.01063
68 0.0081
68.05 0.00411
68.1 0.00403
68.15 0.00276
68.2 0.00038
68.25 -0.00089
68.3 0.00103
68.35 0.00028
68.4 0.00381
68.45 0.00331
68.5 -0.00126
68.55 -0.0073
68.6 -0.00766
68.65 -0.00757
68.7 -0.0112
68.75 -0.01481
68.8 -0.01291
68.85 -0.01393
68.9 -0.01795
68.95 -0.01507
69 -0.0125
69.05 -0.00908
69.1 -0.00198
69.15 0.00186
69.2 0.00853
69.25 0.01117
69.3 0.01566
69.35 0.0158
69.4 0.01404
69.45 0.00886
69.5 0.00549
69.55 -0.00147
69.6 -0.00466
69.65 -0.00673
69.7 -0.00599
69.75 -0.00657
69.8 -0.00645
69.85 -0.00144
69.9 -0.00104
69.95 -0.00375
70 -0.00697
70.05 -0.00596
70.1 -0.0044
70.15 -0.0041
70.2 -0.00294
70.25 0.00249
70.3 0.00858
70.35 0.00736
70.4 0.00489
70.45 0.00093
70.5 0.00174
70.55 0.00515
70.6 0.00362
70.65 -0.00237
70.7 -0.00271
70.75 -0.00363
70.8 -0.00058
70.85 -0.00048
70.9 0.00237
70.95 0.00422
71 0.00383
71.05 0.00414
71.1 0.00531
71.15 0.00424
71.2 0.00238
71.25 0.00198
71.3 0.00178
71.35 0.00513
71.4 0.00716
71.45 0.00857
71.5 0.0102
71.55 0.01162
71.6 0.00668
71.65 0.00201
71.7 -0.00191
71.75 -0.00541
71.8 -0.0107
71.85 -0.01165
71.9 -0.00866
71.95 -0.00534
72 -0.00401
72.05 -0.00407
72.1 -0.00861
72.15 -0.00835
72.2 -0.01016
72.25 -0.00878
72.3 -0.01182
72.35 -0.01354
72.4 -0.01167
72.45 -0.0065
72.5 -0.00101
72.55 0.00581
72.6 0.01337
72.65 0.01844
72.7 0.01725
72.75 0.01349
72.8 0.01108
72.85 0.01229
72.9 0.0076
72.95 0.00386
73 -0.00115
73.05 -0.00466
73.1 -0.00978
73.15 -0.00998
73.2 -0.00684
73.25 -0.00725
73.3 -0.00712
73.35 -0.01106
73.4 -0.01042
73.45 -0.01347
73.5 -0.01155
73.55 -0.01006
73.6 -0.00659
73.65 -0.00647
73.7 -0.00213
73.75 -0.00096
73.8 -0.00287
73.85 -0.00709
73.9 -0.01195
73.95 -0.01319
74 -0.01552
74.05 -0.0135
74.1 -0.00819
74.15 -0.00413
74.2 0.00253
74.25 0.00547
74.3 0.00319
74.35 -0.00193
74.4 -0.00666
74.45 -0.00685
74.5 -0.00498
74.55 -0.00231
74.6 -0.00375
74.65 -0.00124
74.7 0.00368
74.75 0.00649
74.8 0.00817
74.85 0.00962
74.9 0.0116
74.95 0.01474
75 0.01512
75.05 0.01445
75.1 0.01718
75.15 0.02157
75.2 0.02439
75.25 0.02749
75.3 0.02655
75.35 0.02082
75.4 0.01558
75.45 0.01353
75.5 0.01456
75.55 0.01091
75.6 0.00773
75.65 0.00383
75.7 0.00084
75.75 -0.00529
75.8 -0.01311
75.85 -0.01497
75.9 -0.01625
75.95 -0.01511
76 -0.01526
76.05 -0.01839
76.1 -0.02
76.15 -0.02168
76.2 -0.02177
76.25 -0.01607
76.3 -0.00865
76.35 -0.00346
76.4 0.00204
76.45 0.00273
76.5 0.00553
76.55 0.0098
76.6 0.00696
76.65 0.00795
76.7 0.00563
76.75 0.0025
76.8 0.00161
76.85 0.0015
76.9 -0.00253
76.95 -0.00538
77 -0.01006
77.05 -0.0118
77.1 -0.01207
77.15 -0.00746
77.2 -0.00574
77.25 -0.00854
77.3 -0.01098
77.35 -0.01528
77.4 -0.01745
77.45 -0.01689
77.5 -0.0166
77.55 -0.01141
77.6 -0.01134
77.65 -0.00649
77.7 0.0004
77.75 0.00755
77.8 0.01153
77.85 0.01132
77.9 0.01301
77.95 0.01629
78 0.01229
78.05 0.00892
78.1 0.00169
78.15 -0.00137
78.2 0.00055
78.25 0.00148
78.3 -0.00158
78.35 -0.00787
78.4 -0.01534
78.45 -0.01531
78.5 -0.01331
78.55 -0.00889
78.6 -0.00552
78.65 -0.00176
78.7 0.00341
78.75 0.00511
78.8 0.0014
78.85 -0.00408
78.9 -0.00645
78.95 -0.00635
79 -0.00929
79.05 -0.0098
79.1 -0.00637
79.15 -0.00549
79.2 -0.00119
79.25 -0.00099
79.3 -0.00214
79.35 0.00036
79.4 0.00083
79.45 -0.00234
79.5 -0.00299
79.55 -0.00424
79.6 -0.00661
79.65 -0.00296
79.7 -0.00239
79.75 0.00115
79.8 0.00687
79.85 0.00783
79.9 0.00712
79.95 0.00745
80 0.00743
80.05 0.0026
80.1 0.00117
80.15 0.00358
80.2 0.00538
80.25 0.00691
80.3 0.00965
80.35 0.01333
80.4 0.01524
80.45 0.01364
80.5 0.01339
80.55 0.00816
80.6 0.0023
80.65 0.00138
80.7 0.00296
80.75 0.00161
80.8 -0.0025
80.85 -0.00266
80.9 -0.00307
80.95 -0.00369
81 -0.00395
81.05 0.00014
81.1 0.0002
81.15 0.00323
81.2 0.00872
81.25 0.01091
81.3 0.0087
81.35 0.00228
81.4 -0.00326
81.45 -0.00544
81.5 -0.005
81.55 -0.00693
81.6 -0.0046
81.65 -0.00076
81.7 0.00121
81.75 0.00564
81.8 0.00786
81.85 0.01032
81.9 0.01145
81.95 0.00835
82 0.00195
82.05 -0.0065
82.1 -0.01131
82.15 -0.01232
82.2 -0.01225
82.25 -0.01233
82.3 -0.01535
82.35 -0.01304
82.4 -0.01207
82.45 -0.01042
82.5 -0.00673
82.55 -0.00142
82.6 0.00469
82.65 0.00879
82.7 0.01107
82.75 0.01337
82.8 0.0104
82.85 0.00925
82.9 0.01205
82.95 0.01176
83 0.01058
83.05 0.01035
83.1 0.00838
83.15 0.01002
83.2 0.00599
83.25 0.00603
83.3 0.00445
83.35 0.00646
83.4 0.00381
83.45 0.0009
83.5 0.00168
83.55 0.00194
83.6 -0.00189
83.65 -0.00847
83.7 -0.01551
83.75 -0.01954
83.8 -0.01686
83.85 -0.01799
83.9 -0.01557
83.95 -0.0175
84 -0.01833
84.05 -0.02059
84.1 -0.02002
84.15 -0.01698
84.2 -0.01819
84.25 -0.01871
84.3 -0.01984
84.35 -0.0143
84.4 -0.00693
84.45 -0.00418
84.5 0.00103
84.55 0.00057
84.6 -0.0028
84.65 -0.00254
84.7 -0.00659
84.75 -0.01174
84.8 -0.01617
84.85 -0.0148
84.9 -0.01515
84.95 -0.01251
85 -0.01381
85.05 -0.01521
85.1 -0.01876
85.15 -0.02273
85.2 -0.02099
85.25 -0.01577
85.3 -0.01071
85.35 -0.00778
85.4 -0.00595
85.45 -0.00285
85.5 0.00273
85.55 0.00906
85.6 0.01062
85.65 0.01418
85.7 0.01637
85.75 0.01669
85.8 0.01338
85.85 0.01069
85.9 0.01199
85.95 0.01127
86 0.00716
86.05 0.00405
86.1 -0.00004
86.15 0.00107
86.2 0.0001
86.25 -0.00413
86.3 -0.00637
86.35 -0.00956
86.4 -0.01425
86.45 -0.01371
86.5 -0.01129
86.55 -0.01281
86.6 -0.01217
86.65 -0.00669
86.7 -0.0023
86.75 0.00223
86.8 0.00384
86.85 0.00786
86.9 0.00584
86.95 0.00781
87 0.00639
87.05 0.00189
87.1 0.00025
87.15 -0.00349
87.2 -0.00795
87.25 -0.01245
87.3 -0.01766
87.35 -0.01555
87.4 -0.0105
87.45 -0.00234
87.5 0.00244
87.55 0.00814
87.6 0.01138
87.65 0.00907
87.7 0.0059
87.75 0.00428
87.8 0.00476
87.85 0.00063
87.9 0.00079
87.95 0.00497
88 0.00283
88.05 0.00013
88.1 -0.00389
88.15 -0.00164
88.2 -0.00232
88.25 -0.00409
88.3 -0.00802
88.35 -0.00543
88.4 -0.00323
88.45 -0.00137
88.5 0.00024
88.55 0.00007
88.6 0.00102
88.65 0.00307
88.7 0.00818
88.75 0.01073
88.8 0.01016
88.85 0.01135
88.9 0.013
88.95 0.01459
89 0.01831
89.05 0.02259
89.1 0.02423
89.15 0.02403
89.2 0.01812
89.25 0.01271
89.3 0.00481
89.35 0.00234
89.4 0.00124
89.45 -0.00387
89.5 -0.01006
89.55 -0.01369
89.6 -0.01654
89.65 -0.0146
89.7 -0.01341
89.75 -0.01224
89.8 -0.0082
89.85 -0.00505
89.9 0.00038
89.95 0.00316
90 0.00715
90.05 0.00824
90.1 0.00536
90.15 0.00111
90.2 0.00035
90.25 0.00381
90.3 0.00408
90.35 0.0072
90.4 0.00954
90.45 0.00697
90.5 0.00237
90.55 0.0021
90.6 0.00382
90.65 0.00422
90.7 -0.00032
90.75 0.00087
90.8 -0.00115
90.85 -0.00057
90.9 -0.0006
90.95 -0.00343
91 -0.00924
91.05 -0.01429
91.1 -0.01266
91.15 -0.00918
91.2 -0.00262
91.25 0.00214
91.3 0.00219
91.35 0.00599
91.4 0.00785
91.45 0.00559
91.5 0.00754
91.55 0.00771
91.6 0.00561
91.65 0.0016
91.7 -0.00286
91.75 -0.00925
91.8 -0.00836
91.85 -0.00494
91.9 -0.00182
91.95 -0.00231
92 0.00161
92.05 0.00202
92.1 -0.00004
92.15 -0.00157
92.2 -0.0054
92.25 -0.00327
92.3 -0.00371
92.35 -0.00169
92.4 -0.00453
92.45 -0.00572
92.5 -0.00973
92.55 -0.01191
92.6 -0.01533
92.65 -0.01731
92.7 -0.01907
92.75 -0.01836
92.8 -0.01338
92.85 -0.01089
92.9 -0.0051
92.95 -0.0049
93 0.00042
93.05 -0.00008
93.1 -0.00483
93.15 -0.00989
93.2 -0.01274
93.25 -0.01294
93.3 -0.00969
93.35 -0.01118
93.4 -0.01003
93.45 -0.01185
93.5 -0.00712
93.55 -0.00537
93.6 -0.00241
93.65 -0.00339
93.7 -0.00566
93.75 -0.00938
93.8 -0.01414
93.85 -0.01686
93.9 -0.01959
93.95 -0.01561
94 -0.00838
94.05 0.00041
94.1 0.01047
94.15 0.01232
94.2 0.01528
94.25 0.01569
94.3 0.01728
94.35 0.01989
94.4 0.0199
94.45 0.01563
94.5 0.01067
94.55 0.00566
94.6 -0.00027
94.65 -0.00055
94.7 0.00298
94.75 0.00678
94.8 0.00596
94.85 0.00413
94.9 0.00538
94.95 0.00339
95 -0.00103
95.05 0.00106
95.1 0.00248
95.15 0.0064
95.2 0.01269
95.25 0.01159
95.3 0.00979
95.35 0.00543
95.4 0.00075
95.45 -0.00146
95.5 -0.00176
95.55 -0.00394
95.6 -0.00599
95.65 -0.00971
95.7 -0.01013
95.75 -0.01331
95.8 -0.01699
95.85 -0.01987
95.9 -0.02125
95.95 -0.02463
96 -0.02169
96.05 -0.01391
96.1 -0.01028
96.15 -0.00754
96.2 -0.00653
96.25 -0.0096
96.3 -0.00765
96.35 -0.0021
96.4 0.00443
96.45 0.01246
96.5 0.01676
96.55 0.01707
96.6 0.01971
96.65 0.01685
96.7 0.0136
96.75 0.00974
96.8 0.00321
96.85 -0.00266
96.9 -0.00248
96.95 -0.00139
97 0.00217
97.05 0.00313
97.1 -0.00028
97.15 -0.00495
97.2 -0.00484
97.25 -0.00368
97.3 -0.00586
97.35 -0.01046
97.4 -0.01281
97.45 -0.00989
97.5 -0.00775
97.55 -0.00438
97.6 0.00103
97.65 0.00744
97.7 0.01278
97.75 0.01264
97.8 0.01154
97.85 0.01024
97.9 0.00439
97.95 -0.00073
98 -0.00245
98.05 -0.00193
98.1 0.00318
98.15 0.00229
98.2 0.00087
98.25 -0.00216
98.3 -0.00675
98.35 -0.01336
98.4 -0.01742
98.45 -0.01424
98.5 -0.01185
98.55 -0.00789
98.6 -0.00723
98.65 -0.00222
98.7 -0.00129
98.75 0.00387
98.8 0.00483
98.85 0.00629
98.9 0.00313
98.95 0.00132
99 0.00117
99.05 -0.0027
99.1 -0.00431
99.15 -0.0049
99.2 -0.00676
99.25 -0.00926
99.3 -0.00598
99.35 -0.00104
99.4 -0.00047
99.45 0.00423
99.5 0.0076
99.55 0.00582
99.6 0.00149
99.65 -0.00479
99.7 -0.0119
99.75 -0.0106
99.8 -0.0055
99.85 -0.00398
99.9 -0.00418
99.95 -0.00561
