0 0
0.05 0.00444
0.1 0.01307
0.15 0.01782
0.2 0.02545
0.25 0.0359
0.3 0.04211
0.35 0.04297
0.4 0.04665
0.45 0.05264
0.5 0.05807
0.55 0.05905
0.6 0.06131
0.65 0.06482
0.7 0.06342
0.75 0.05717
0.8 0.0529
0.85 0.04955
0.9 0.04504
0.95 0.03949
1 0.03675
1.05 0.03116
1.1 0.02596
1.15 0.02247
1.2 0.02387
1.25 0.02316
1.3 0.02566
1.35 0.02458
1.4 0.02558
1.45 0.02465
1.5 0.02838
1.55 0.03222
1.6 0.03102
1.65 0.03421
1.7 0.03521
1.75 0.0338
1.8 0.03643
1.85 0.03488
1.9 0.03073
1.95 0.02692
2 0.02651
2.05 0.02483
2.1 0.02358
2.15 0.02314
2.2 0.02155
2.25 0.01955
2.3 0.02193
2.35 0.02307
2.4 0.02028
2.45 0.01776
2.5 0.01287
2.55 0.01355
2.6 0.01134
2.65 0.00725
2.7 0.00514
2.75 0.00233
2.8 0.00397
2.85 0.01015
2.9 0.01579
2.95 0.02204
3 0.02718
3.05 0.03046
3.1 0.03285
3.15 0.0314
3.2 0.02702
3.25 0.02203
3.3 0.01874
3.35 0.01277
3.4 0.00875
3.45 0.00653
3.5 0.00725
3.55 0.01096
3.6 0.01224
3.65 0.0097
3.7 0.00688
3.75 0.00764
3.8 0.00838
3.85 0.01343
3.9 0.01959
3.95 0.02053
4 0.02098
4.05 0.01917
4.1 0.01959
4.15 0.0189
4.2 0.02085
4.25 0.02285
4.3 0.02401
4.35 0.02551
4.4 0.02646
4.45 0.02198
4.5 0.01857
4.55 0.01919
4.6 0.02121
4.65 0.02376
4.7 0.02283
4.75 0.01819
4.8 0.01177
4.85 0.00935
4.9 0.00716
4.95 0.00821
5 0.00948
5.05 0.01016
5.1 0.00689
5.15 0.00502
5.2 0.00034
5.25 -0.00412
5.3 -0.00922
5.35 -0.01278
5.4 -0.01313
5.45 -0.01183
5.5 -0.01228
5.55 -0.01411
5.6 -0.01347
5.65 -0.01242
5.7 -0.01373
5.75 -0.01541
5.8 -0.01395
5.85 -0.01189
5.9 -0.00796
5.95 -0.00942
6 -0.01435
6.05 -0.01654
6.1 -0.01764
6.15 -0.01937
6.2 -0.02499
6.25 -0.02778
6.3 -0.02559
6.35 -0.02119
6.4 -0.02218
6.45 -0.02548
6.5 -0.02976
6.55 -0.03357
6.6 -0.03534
6.65 -0.03055
6.7 -0.02806
6.75 -0.02453
6.8 -0.01625
6.85 -0.0091
6.9 -0.0041
6.95 0.00205
7 0.00839
7.05 0.01247
7.1 0.01606
7.15 0.02105
7.2 0.02294
7.25 0.02615
7.3 0.03243
7.35 0.03633
7.4 0.03677
7.45 0.04216
7.5 0.04555
7.55 0.04576
7.6 0.04291
7.65 0.03806
7.7 0.03239
7.75 0.0304
7.8 0.0276
7.85 0.02663
7.9 0.02523
7.95 0.02501
8 0.02598
8.05 0.03033
8.1 0.03708
8.15 0.04221
8.2 0.04558
8.25 0.04325
8.3 0.04395
8.35 0.04238
8.4 0.04236
8.45 0.04058
8.5 0.04091
8.55 0.04185
8.6 0.03928
8.65 0.03642
8.7 0.02938
8.75 0.02603
8.8 0.0197
8.85 0.01402
8.9 0.01046
8.95 0.0093
9 0.01129
9.05 0.01476
9.1 0.01632
9.15 0.01483
9.2 0.00866
9.25 0.00716
9.3 0.00912
9.35 0.00643
9.4 0.00115
9.45 -0.00271
9.5 -0.00353
9.55 -0.00412
9.6 -0.00048
9.65 -0.00139
9.7 -0.00546
9.75 -0.00836
9.8 -0.0068
9.85 -0.00758
9.9 -0.00893
9.95 -0.00782
10 -0.00857
10.05 -0.01142
10.1 -0.00933
10.15 -0.01059
10.2 -0.00928
10.25 -0.00834
10.3 -0.00641
10.35 -0.00276
10.4 0.00296
10.45 0.00782
10.5 0.00667
10.55 0.0053
10.6 0.00023
10.65 -0.00026
10.7 -0.00245
10.75 -0.00595
10.8 -0.00549
10.85 -0.00848
10.9 -0.00896
10.95 -0.00524
11 -0.00332
11.05 0.00132
11.1 0.00267
11.15 0.00506
11.2 0.00871
11.25 0.00769
11.3 0.00582
11.35 0.00425
11.4 0.00283
11.45 -0.00204
11.5 -0.00258
11.55 -0.00277
11.6 -0.00163
11.65 0.00074
11.7 -0.00096
11.75 -0.00464
11.8 -0.01035
11.85 -0.01387
11.9 -0.01438
11.95 -0.01188
12 -0.00803
12.05 -0.00499
12.1 -0.00235
12.15 -0.0041
12.2 -0.00812
12.25 -0.0119
12.3 -0.01141
12.35 -0.01383
12.4 -0.01419
12.45 -0.00939
12.5 -0.00239
12.55 0.00296
12.6 0.0079
12.65 0.01255
12.7 0.01307
12.75 0.01523
12.8 0.01215
12.85 0.00823
12.9 0.00792
12.95 0.00499
13 0.00678
13.05 0.00569
13.1 0.00099
13.15 0.00123
13.2 0.00472
13.25 0.00679
13.3 0.0062
13.35 0.00244
13.4 -0.00143
13.45 -0.00734
13.5 -0.00669
13.55 -0.00804
13.6 -0.01066
13.65 -0.01509
13.7 -0.0182
13.75 -0.01932
13.8 -0.01716
13.85 -0.01132
13.9 -0.00956
13.95 -0.0049
14 0.00185
14.05 0.00786
14.1 0.01166
14.15 0.01537
14.2 0.01881
14.25 0.01811
14.3 0.01275
14.35 0.00806
14.4 0.00277
14.45 0.00238
14.5 0.00357
14.55 0.00049
14.6 -0.00068
14.65 0.00158
14.7 0.00256
14.75 0.00111
14.8 0.00254
14.85 0.00516
14.9 0.00431
14.95 0.00214
15 -0.00231
15.05 -0.00795
15.1 -0.01463
15.15 -0.02084
15.2 -0.02051
15.25 -0.01546
15.3 -0.0076
15.35 0.00107
15.4 0.01052
15.45 0.01912
15.5 0.02705
15.55 0.02768
15.6 0.02651
15.65 0.02612
15.7 0.02421
15.75 0.01843
15.8 0.01615
15.85 0.01441
15.9 0.01127
15.95 0.00689
16 0.0027
16.05 -0.004
16.1 -0.01097
16.15 -0.01777
16.2 -0.01748
16.25 -0.01394
16.3 -0.01376
16.35 -0.01633
16.4 -0.01571
16.45 -0.01184
16.5 -0.00748
16.55 -0.00675
16.6 -0.00882
16.65 -0.00621
16.7 -0.0057
16.75 -0.0051
16.8 -0.00777
16.85 -0.00707
16.9 -0.00219
16.95 -0.00246
17 -0.00447
17.05 -0.00364
17.1 0.00033
17.15 0.00469
17.2 0.00697
17.25 0.00689
17.3 0.00707
17.35 0.01038
17.4 0.01352
17.45 0.01303
17.5 0.00866
17.55 0.00879
17.6 0.007
17.65 0.00718
17.7 0.00667
17.75 0.00842
17.8 0.00971
17.85 0.00709
17.9 0.00252
17.95 -0.00023
18 -0.00151
18.05 -0.00435
18.1 -0.00553
18.15 -0.0091
18.2 -0.00959
18.25 -0.00842
18.3 -0.00514
18.35 0.00027
18.4 0.00618
18.45 0.00972
18.5 0.00877
18.55 0.00511
18.6 0.00392
18.65 0.00069
18.7 -0.00324
18.75 -0.00918
18.8 -0.01117
18.85 -0.01153
18.9 -0.00712
18.95 -0.00617
19 -0.00277
19.05 0.00082
19.1 0.00482
19.15 0.00479
19.2 0.00405
19.25 0.00053
19.3 0.00204
19.35 0.00615
19.4 0.00864
19.45 0.01348
19.5 0.01654
19.55 0.01414
19.6 0.00784
19.65 0.00657
19.7 0.00796
19.75 0.01113
19.8 0.01222
19.85 0.00844
19.9 0.00209
19.95 -0.00124
20 -0.00468
20.05 -0.01049
20.1 -0.01144
20.15 -0.00905
20.2 -0.00701
20.25 -0.00671
20.3 -0.00314
20.35 0.00271
20.4 0.00388
20.45 0.0079
20.5 0.01136
20.55 0.01575
20.6 0.01734
20.65 0.01929
20.7 0.01786
20.75 0.01613
20.8 0.01212
20.85 0.01068
20.9 0.00842
20.95 0.00561
21 0.00595
21.05 0.00334
21.1 0.00289
21.15 0.00145
21.2 -0.00063
21.25 -0.00564
21.3 -0.00549
21.35 -0.00898
21.4 -0.01359
21.45 -0.01284
21.5 -0.01029
21.55 -0.00766
21.6 -0.00268
21.65 0.00436
21.7 0.00915
21.75 0.00781
21.8 0.00517
21.85 0.00466
21.9 0.00682
21.95 0.00342
22 0.00386
22.05 0.00024
22.1 0.00137
22.15 -0.00185
22.2 -0.00586
22.25 -0.00766
22.3 -0.00988
22.35 -0.01295
22.4 -0.01035
22.45 -0.00753
22.5 -0.00236
22.55 -0.00032
22.6 0.00065
22.65 -0.00239
22.7 -0.00585
22.75 -0.00468
22.8 -0.00249
22.85 0.00198
22.9 0.00401
22.95 0.00542
23 0.00718
23.05 0.00392
23.1 0.00429
23.15 0.00606
23.2 0.00407
23.25 0.00094
23.3 -0.00071
23.35 -0.00164
23.4 0.00154
23.45 0.00528
23.5 0.01031
23.55 0.00903
23.6 0.00448
23.65 0.00445
23.7 0.00376
23.75 0.00653
23.8 0.01124
23.85 0.01647
23.9 0.01523
23.95 0.01254
24 0.00553
24.05 -0.00072
24.1 -0.0064
24.15 -0.0136
24.2 -0.01367
24.25 -0.00992
24.3 -0.00994
24.35 -0.00781
24.4 -0.00386
24.45 -0.00268
24.5 -0.00598
24.55 -0.01163
24.6 -0.01269
24.65 -0.01546
24.7 -0.01439
24.75 -0.0097
24.8 -0.00374
24.85 -0.00269
24.9 -0.00484
24.95 -0.00354
25 0.00126
25.05 0.0077
25.1 0.0128
25.15 0.01483
25.2 0.013
25.25 0.01171
25.3 0.01065
25.35 0.012
25.4 0.01152
25.45 0.00881
25.5 0.0081
25.55 0.00869
25.6 0.00774
25.65 0.00842
25.7 0.00382
25.75 -0.00126
25.8 -0.00589
25.85 -0.00805
25.9 -0.01018
25.95 -0.00825
26 -0.01014
26.05 -0.01332
26.1 -0.01679
26.15 -0.01705
26.2 -0.02011
26.25 -0.02167
26.3 -0.02511
26.35 -0.02657
26.4 -0.02262
26.45 -0.01465
26.5 -0.00552
26.55 -0.00018
26.6 0.00618
26.65 0.00644
26.7 0.0064
26.75 0.00915
26.8 0.00816
26.85 0.00405
26.9 -0.00098
26.95 -0.0011
27 -0.00529
27.05 -0.00395
27.1 -0.00491
27.15 -0.00508
27.2 -0.00578
27.25 -0.00206
27.3 0.00427
27.35 0.00868
27.4 0.011
27.45 0.01036
27.5 0.00782
27.55 0.00406
27.6 0.00293
27.65 -0.00055
27.7 -0.00276
27.75 -0.00351
27.8 -0.00526
27.85 -0.00509
27.9 -0.00332
27.95 -0.00758
28 -0.01064
28.05 -0.0168
28.1 -0.02157
28.15 -0.02917
28.2 -0.03673
28.25 -0.04751
28.3 -0.06131
28.35 -0.08005
28.4 -0.10361
28.45 -0.13046
28.5 -0.15861
28.55 -0.18352
28.6 -0.21035
28.65 -0.24444
28.7 -0.28374
28.75 -0.32614
28.8 -0.37595
28.85 -0.42495
28.9 -0.48065
28.95 -0.54337
29 -0.6099
29.05 -0.68243
29.1 -0.75818
29.15 -0.84534
29.2 -0.93352
29.25 -1.03154
29.3 -1.13222
29.35 -1.23444
29.4 -1.33763
29.45 -1.44224
29.5 -1.55147
29.55 -1.6584
29.6 -1.76653
29.65 -1.87386
29.7 -1.97279
29.75 -2.06082
29.8 -2.14091
29.85 -2.21387
29.9 -2.28
29.95 -2.3328
30 -2.37564
30.05 -2.40074
30.1 -2.41515
30.15 -2.41696
30.2 -2.40311
30.25 -2.37485
30.3 -2.33103
30.35 -2.27287
30.4 -2.19944
30.45 -2.11254
30.5 -2.00719
30.55 -1.88834
30.6 -1.75477
30.65 -1.61297
30.7 -1.46644
30.75 -1.30886
30.8 -1.14522
30.85 -0.98142
30.9 -0.81426
30.95 -0.6436
31 -0.47523
31.05 -0.30926
31.1 -0.14357
31.15 0.0207
31.2 0.17705
31.25 0.32853
31.3 0.47938
31.35 0.62225
31.4 0.75556
31.45 0.88421
31.5 1.00578
31.55 1.11713
31.6 1.21876
31.65 1.3098
31.7 1.39585
31.75 1.47602
31.8 1.54682
31.85 1.61244
31.9 1.6714
31.95 1.72257
32 1.76892
32.05 1.80876
32.1 1.84343
32.15 1.87291
32.2 1.89333
32.25 1.90577
32.3 1.91651
32.35 1.91913
32.4 1.92025
32.45 1.91598
32.5 1.9131
32.55 1.90861
32.6 1.90566
32.65 1.90124
32.7 1.89357
32.75 1.88189
32.8 1.86833
32.85 1.85504
32.9 1.84276
32.95 1.82937
33 1.81486
33.05 1.79897
33.1 1.78581
33.15 1.76741
33.2 1.74912
33.25 1.72834
33.3 1.70393
33.35 1.67735
33.4 1.64777
33.45 1.62069
33.5 1.59244
33.55 1.56144
33.6 1.53092
33.65 1.49521
33.7 1.45755
33.75 1.42097
33.8 1.3824
33.85 1.33886
33.9 1.29289
33.95 1.24276
34 1.19815
34.05 1.15253
34.1 1.1038
34.15 1.05671
34.2 1.01021
34.25 0.96794
34.3 0.92478
34.35 0.87875
34.4 0.83343
34.45 0.79257
34.5 0.74745
34.55 0.70309
34.6 0.65919
34.65 0.61277
34.7 0.57287
34.75 0.53311
34.8 0.49786
34.85 0.4599
34.9 0.42104
34.95 0.38725
35 0.34881
35.05 0.31228
35.1 0.27533
35.15 0.24023
35.2 0.20435
35.25 0.17042
35.3 0.14129
35.35 0.11049
35.4 0.08425
35.45 0.06013
35.5 0.03536
35.55 0.01546
35.6 -0.00593
35.65 -0.02833
35.7 -0.05018
35.75 -0.07105
35.8 -0.09456
35.85 -0.11631
35.9 -0.13256
35.95 -0.14622
36 -0.16231
36.05 -0.17639
36.1 -0.19132
36.15 -0.20434
36.2 -0.21909
36.25 -0.22965
36.3 -0.23984
36.35 -0.25315
36.4 -0.26193
36.45 -0.26847
36.5 -0.27656
36.55 -0.287
36.6 -0.29681
36.65 -0.30545
36.7 -0.31532
36.75 -0.3244
36.8 -0.32685
36.85 -0.33121
36.9 -0.32938
36.95 -0.32395
37 -0.32188
37.05 -0.31736
37.1 -0.31231
37.15 -0.31081
37.2 -0.31173
37.25 -0.31718
37.3 -0.31834
37.35 -0.32254
37.4 -0.32799
37.45 -0.32922
37.5 -0.32706
37.55 -0.32759
37.6 -0.33009
37.65 -0.33387
37.7 -0.33659
37.75 -0.33594
37.8 -0.33002
37.85 -0.32633
37.9 -0.32408
37.95 -0.32189
38 -0.31462
38.05 -0.30844
38.1 -0.30406
38.15 -0.29942
38.2 -0.29468
38.25 -0.28581
38.3 -0.27558
38.35 -0.26715
38.4 -0.26355
38.45 -0.26367
38.5 -0.26561
38.55 -0.26399
38.6 -0.2614
38.65 -0.2602
38.7 -0.25529
38.75 -0.25299
38.8 -0.24607
38.85 -0.24093
38.9 -0.2392
38.95 -0.23645
39 -0.23186
39.05 -0.22643
39.1 -0.22532
39.15 -0.22191
39.2 -0.22236
39.25 -0.21845
39.3 -0.21261
39.35 -0.20464
39.4 -0.19477
39.45 -0.18617
39.5 -0.18082
39.55 -0.18087
39.6 -0.17915
39.65 -0.17429
39.7 -0.17038
39.75 -0.16996
39.8 -0.17081
39.85 -0.17353
39.9 -0.1713
39.95 -0.16604
40 -0.16469
40.05 -0.16356
40.1 -0.16352
40.15 -0.16339
40.2 -0.16574
40.25 -0.16293
40.3 -0.15625
40.35 -0.14828
40.4 -0.14532
40.45 -0.13954
40.5 -0.13927
40.55 -0.14221
40.6 -0.14422
40.65 -0.14406
40.7 -0.14336
40.75 -0.1436
40.8 -0.14636
40.85 -0.14561
40.9 -0.14725
40.95 -0.14484
41 -0.13728
41.05 -0.12913
41.1 -0.12263
41.15 -0.11706
41.2 -0.11646
41.25 -0.11948
41.3 -0.11975
41.35 -0.11736
41.4 -0.11525
41.45 -0.11195
41.5 -0.10586
41.55 -0.10114
41.6 -0.09603
41.65 -0.09094
41.7 -0.08416
41.75 -0.07903
41.8 -0.08026
41.85 -0.08495
41.9 -0.08484
41.95 -0.08731
42 -0.0909
42.05 -0.0903
42.1 -0.08592
42.15 -0.07974
42.2 -0.08001
42.25 -0.083
42.3 -0.08242
42.35 -0.08302
42.4 -0.08203
42.45 -0.08077
42.5 -0.07822
42.55 -0.07489
42.6 -0.07101
42.65 -0.07197
42.7 -0.07461
42.75 -0.07542
42.8 -0.07734
42.85 -0.0816
42.9 -0.08223
42.95 -0.07946
43 -0.07861
43.05 -0.07936
43.1 -0.07892
43.15 -0.07419
43.2 -0.06789
43.25 -0.06347
43.3 -0.06262
43.35 -0.06535
43.4 -0.06694
43.45 -0.0667
43.5 -0.06556
43.55 -0.06603
43.6 -0.06579
43.65 -0.06205
43.7 -0.0554
43.75 -0.04842
43.8 -0.04295
43.85 -0.04333
43.9 -0.04394
43.95 -0.04111
44 -0.03577
44.05 -0.03282
44.1 -0.03562
44.15 -0.04136
44.2 -0.04833
44.25 -0.0507
44.3 -0.04921
44.35 -0.04784
44.4 -0.04963
44.45 -0.05353
44.5 -0.05554
44.55 -0.0571
44.6 -0.05322
44.65 -0.04886
44.7 -0.04854
44.75 -0.04383
44.8 -0.04313
44.85 -0.04588
44.9 -0.04583
44.95 -0.0416
45 -0.03463
45.05 -0.03285
45.1 -0.0347
45.15 -0.03202
45.2 -0.02977
45.25 -0.02978
45.3 -0.02977
45.35 -0.02912
45.4 -0.02673
45.45 -0.02516
45.5 -0.02116
45.55 -0.0227
45.6 -0.02757
45.65 -0.02916
45.7 -0.03011
45.75 -0.02647
45.8 -0.02187
45.85 -0.02297
45.9 -0.02389
45.95 -0.02098
46 -0.0162
46.05 -0.01581
46.1 -0.02005
46.15 -0.02042
46.2 -0.02073
46.25 -0.02252
46.3 -0.02706
46.35 -0.03001
46.4 -0.03319
46.45 -0.03445
46.5 -0.03738
46.55 -0.03506
46.6 -0.03092
46.65 -0.02954
46.7 -0.0248
46.75 -0.01747
46.8 -0.01124
46.85 -0.00599
46.9 -0.00517
46.95 -0.00501
47 -0.00876
47.05 -0.01375
47.1 -0.01463
47.15 -0.01577
47.2 -0.02051
47.25 -0.02242
47.3 -0.02094
47.35 -0.02334
47.4 -0.02197
47.45 -0.01995
47.5 -0.01918
47.55 -0.01685
47.6 -0.01364
47.65 -0.00957
47.7 -0.01048
47.75 -0.01191
47.8 -0.01111
47.85 -0.01112
47.9 -0.00903
47.95 -0.0116
48 -0.01538
48.05 -0.01489
48.1 -0.0175
48.15 -0.02279
48.2 -0.02699
48.25 -0.03181
48.3 -0.03385
48.35 -0.03729
48.4 -0.04099
48.45 -0.03843
48.5 -0.03044
48.55 -0.02491
48.6 -0.02123
48.65 -0.01557
48.7 -0.01168
48.75 -0.01013
48.8 -0.00509
48.85 -0.00214
48.9 -0.00436
48.95 -0.00462
49 -0.00246
49.05 -0.00374
49.1 -0.00192
49.15 0.00101
49.2 0.00445
49.25 0.00886
49.3 0.011
49.35 0.00899
49.4 0.00816
49.45 0.00445
49.5 -0.00241
49.55 -0.00387
49.6 -0.00703
49.65 -0.00898
49.7 -0.00617
49.75 -0.00316
49.8 0.0011
49.85 0.00035
49.9 -0.00201
49.95 -0.00324
50 -0.00094
50.05 -0.00042
50.1 -0.00134
50.15 -0.00225
50.2 -0.00715
50.25 -0.00888
50.3 -0.00936
50.35 -0.00824
50.4 -0.01147
50.45 -0.01572
50.5 -0.01561
50.55 -0.01621
50.6 -0.01532
50.65 -0.01717
50.7 -0.01644
50.75 -0.01857
50.8 -0.01875
50.85 -0.01727
50.9 -0.01564
50.95 -0.01647
51 -0.01684
51.05 -0.01708
51.1 -0.01922
51.15 -0.02083
51.2 -0.02402
51.25 -0.02805
51.3 -0.0277
51.35 -0.02718
51.4 -0.02254
51.45 -0.0178
51.5 -0.01113
51.55 -0.00769
51.6 -0.00562
51.65 -0.00022
51.7 0.00112
51.75 -0.00012
51.8 0.00184
51.85 0.00205
51.9 0.00398
51.95 0.00364
52 0.00101
52.05 -0.00177
52.1 0.00012
52.15 0.00479
52.2 0.00534
52.25 0.00541
52.3 0.00784
52.35 0.01167
52.4 0.011
52.45 0.0123
52.5 0.01529
52.55 0.01466
52.6 0.01478
52.65 0.00947
52.7 0.00447
52.75 0.00306
52.8 0.00404
52.85 0.00803
52.9 0.00802
52.95 0.00722
53 0.00289
53.05 -0.00212
53.1 -0.00833
53.15 -0.00801
53.2 -0.00481
53.25 -0.00644
53.3 -0.00656
53.35 -0.0058
53.4 -0.00435
53.45 -0.0059
53.5 -0.00897
53.55 -0.01323
53.6 -0.01532
53.65 -0.01651
53.7 -0.01336
53.75 -0.00764
53.8 -0.00224
53.85 -0.0006
53.9 0.00241
53.95 0.00791
54 0.01246
54.05 0.01018
54.1 0.00945
54.15 0.01065
54.2 0.01104
54.25 0.01157
54.3 0.00703
54.35 0.00267
54.4 -0.00285
54.45 -0.00797
54.5 -0.01386
54.55 -0.01413
54.6 -0.01653
54.65 -0.01513
54.7 -0.01541
54.75 -0.01576
54.8 -0.01372
54.85 -0.01175
54.9 -0.00602
54.95 -0.00541
55 -0.00572
55.05 -0.00815
55.1 -0.00903
55.15 -0.01057
55.2 -0.00934
55.25 -0.00521
55.3 -0.0016
55.35 0.00242
55.4 0.00102
55.45 -0.00376
55.5 -0.00981
55.55 -0.01058
55.6 -0.01008
55.65 -0.00837
55.7 -0.00461
55.75 -0.0026
55.8 -0.00112
55.85 0.00262
55.9 0.00173
55.95 -0.00123
56 0.00024
56.05 0.00212
56.1 -0.00015
56.15 0.00203
56.2 0.00471
56.25 0.00342
56.3 0.00271
56.35 0.00462
56.4 0.00681
56.45 0.01038
56.5 0.01219
56.55 0.00862
56.6 0.0033
56.65 0.00314
56.7 0.00487
56.75 0.00789
56.8 0.00619
56.85 0.00711
56.9 0.0053
56.95 0.00674
57 0.00807
57.05 0.00569
57.1 0.00148
57.15 0.00045
57.2 0.00174
57.25 0.00408
57.3 0.00814
57.35 0.01019
57.4 0.01388
57.45 0.01112
57.5 0.00907
57.55 0.00286
57.6 0.00137
57.65 -0.00316
57.7 -0.00199
57.75 0.00267
57.8 0.00695
57.85 0.00954
57.9 0.01345
57.95 0.01556
58 0.01511
58.05 0.01451
58.1 0.01453
58.15 0.01365
58.2 0.01468
58.25 0.0105
58.3 0.00286
58.35 -0.00027
58.4 -0.00173
58.45 -0.00449
58.5 -0.00733
58.55 -0.00497
58.6 -0.00567
58.65 -0.00304
58.7 -0.00262
58.75 -0.0056
58.8 -0.00898
58.85 -0.01458
58.9 -0.0205
58.95 -0.02596
59 -0.02613
59.05 -0.02658
59.1 -0.02664
59.15 -0.02556
59.2 -0.02382
59.25 -0.0222
59.3 -0.02175
59.35 -0.01975
59.4 -0.01971
59.45 -0.02202
59.5 -0.02418
59.55 -0.02701
59.6 -0.02285
59.65 -0.01833
59.7 -0.01231
59.75 -0.01059
59.8 -0.00538
59.85 -0.00319
59.9 0.00192
59.95 0.00215
60 0.00391
60.05 0.00551
60.1 0.01005
60.15 0.013
60.2 0.01788
60.25 0.01591
60.3 0.01599
60.35 0.01812
60.4 0.02074
60.45 0.01855
60.5 0.01795
60.55 0.0162
60.6 0.01408
60.65 0.00946
60.7 0.00181
60.75 0.00047
60.8 -0.00347
60.85 -0.00516
60.9 -0.00256
60.95 0.0022
61 0.00457
61.05 0.00584
61.1 0.00524
61.15 0.00118
61.2 -0.00357
61.25 -0.00561
61.3 -0.00719
61.35 -0.01112
61.4 -0.01024
61.45 -0.01038
61.5 -0.01038
61.55 -0.01085
61.6 -0.00891
61.65 -0.00926
61.7 -0.00553
61.75 -0.00373
61.8 -0.00088
61.85 -0.00152
61.9 0.00139
61.95 -0.00039
62 -0.00118
62.05 -0.00117
62.1 -0.00174
62.15 -0.00547
62.2 -0.00884
62.25 -0.00817
62.3 -0.00867
62.35 -0.00472
62.4 -0.00223
62.45 -0.00279
62.5 -0.00317
62.55 -0.00638
62.6 -0.00834
62.65 -0.00963
62.7 -0.01306
62.75 -0.01598
62.8 -0.01259
62.85 -0.00785
62.9 -0.00797
62.95 -0.01108
63 -0.00891
63.05 -0.00554
63.1 -0.00576
63.15 -0.00354
63.2 -0.00295
63.25 -0.00543
63.3 -0.00638
63.35 -0.00758
63.4 -0.00447
63.45 0.00146
63.5 0.00703
63.55 0.01322
63.6 0.01807
63.65 0.02329
63.7 0.02315
63.75 0.02148
63.8 0.02146
63.85 0.01701
63.9 0.01613
63.95 0.01662
64 0.01903
64.05 0.01856
64.1 0.0133
64.15 0.00957
64.2 0.00369
64.25 -0.00144
64.3 -0.00279
64.35 -0.00294
64.4 -0.00315
64.45 0.00004
64.5 -0.00139
64.55 -0.00041
64.6 0.00188
64.65 0.00706
64.7 0.0104
64.75 0.01315
64.8 0.01226
64.85 0.01266
64.9 0.0082
64.95 0.00357
65 0.00196
65.05 -0.00314
65.1 -0.00666
65.15 -0.00651
65.2 -0.00211
65.25 0.00318
65.3 0.0081
65.35 0.00686
65.4 0.00555
65.45 0.00038
65.5 -0.00697
65.55 -0.01224
65.6 -0.01615
65.65 -0.01863
65.7 -0.01667
65.75 -0.01447
65.8 -0.01363
65.85 -0.0132
65.9 -0.00942
65.95 -0.01029
66 -0.0095
66.05 -0.01107
66.1 -0.01133
66.15 -0.00874
66.2 -0.0069
66.25 -0.00607
66.3 -0.00175
66.35 0.00176
66.4 0.00368
66.45 0.00095
66.5 -0.00215
66.55 -0.00702
66.6 -0.00784
66.65 -0.00551
66.7 -0.00137
66.75 -0.00183
66.8 -0.00309
66.85 0.00008
66.9 0.00144
66.95 0.00041
67 -0.0041
67.05 -0.00564
67.1 -0.00699
67.15 -0.0105
67.2 -0.0116
67.25 -0.00758
67.3 -0.00506
67.35 -0.00042
67.4 0.00215
67.45 0.00181
67.5 0.00252
67.55 -0.00109
67.6 -0.00375
67.65 -0.00396
67.7 -0.00542
67.75 -0.00963
67.8 -0.00797
67.85 -0.00826
67.9 -0.0067
67.95 -0.00674
68 -0.00522
68.05 -0.00075
68.1 0.00033
68.15 0.00409
68.2 0.0087
68.25 0.00905
68.3 0.00865
68.35 0.00861
68.4 0.01123
68.45 0.01322
68.5 0.01648
68.55 0.01782
68.6 0.01393
68.65 0.01114
68.7 0.01155
68.75 0.01062
68.8 0.01282
68.85 0.01561
68.9 0.01421
68.95 0.01215
69 0.00582
69.05 -0.00153
69.1 -0.00408
69.15 -0.00679
69.2 -0.00629
69.25 -0.00495
69.3 -0.00756
69.35 -0.01188
69.4 -0.01453
69.45 -0.01237
69.5 -0.00718
69.55 -0.00233
69.6 0.00013
69.65 0.00015
69.7 -0.00352
69.75 -0.00157
69.8 0.00254
69.85 0.00334
69.9 0.00442
69.95 0.00551
70 0.00548
70.05 0.0016
70.1 -0.00116
70.15 -0.00036
70.2 0.00295
70.25 0.00296
70.3 0.00062
70.35 0.00235
70.4 0.00063
70.45 0.00089
70.5 0.00192
70.55 -0.00122
70.6 -0.00579
70.65 -0.00748
70.7 -0.00716
70.75 -0.00965
70.8 -0.00675
70.85 -0.00606
70.9 -0.00775
70.95 -0.01117
71 -0.01482
71.05 -0.01987
71.1 -0.01969
71.15 -0.01718
71.2 -0.01236
71.25 -0.01183
71.3 -0.0106
71.35 -0.00933
71.4 -0.01067
71.45 -0.01129
71.5 -0.01167
71.55 -0.00811
71.6 -0.00334
71.65 -0.00371
71.7 -0.00363
71.75 -0.00631
71.8 -0.01013
71.85 -0.00928
71.9 -0.0111
71.95 -0.00966
72 -0.00635
72.05 -0.00355
72.1 -0.00033
72.15 0.00415
72.2 0.00341
72.25 0.00107
72.3 -0.0029
72.35 -0.00787
72.4 -0.01231
72.45 -0.01413
72.5 -0.0112
72.55 -0.00846
72.6 -0.00273
72.65 -0.00206
72.7 0.00183
72.75 0.00066
72.8 0.00362
72.85 0.00817
72.9 0.00974
72.95 0.01013
73 0.00783
73.05 0.00933
73.1 0.01213
73.15 0.01193
73.2 0.00955
73.25 0.00898
73.3 0.00656
73.35 0.00829
73.4 0.00694
73.45 0.00672
73.5 0.00312
73.55 -0.0018
73.6 -0.00133
73.65 -0.00033
73.7 0.00026
73.75 -0.00178
73.8 -0.00426
73.85 -0.00217
73.9 -0.00311
73.95 -0.00294
74 -0.00638
74.05 -0.00674
74.1 -0.00465
74.15 -0.00409
74.2 -0.0039
74.25 -0.00726
74.3 -0.00869
74.35 -0.00817
74.4 -0.00511
74.45 -0.00339
74.5 -0.00173
74.55 0.00267
74.6 0.00392
74.65 0.00575
74.7 0.00568
74.75 0.00759
74.8 0.00926
74.85 0.01312
74.9 0.01292
74.95 0.01271
75 0.01433
75.05 0.01527
75.1 0.01647
75.15 0.01595
75.2 0.01645
75.25 0.01172
75.3 0.01123
75.35 0.01207
75.4 0.01367
75.45 0.01161
75.5 0.00809
75.55 0.00543
75.6 0.00221
75.65 -0.00368
75.7 -0.00833
75.75 -0.00735
75.8 -0.00305
75.85 0.00307
75.9 0.00513
75.95 0.00716
76 0.00405
76.05 0.00184
76.1 -0.00003
76.15 0.00261
76.2 0.00118
76.25 0.00035
76.3 0.00365
76.35 0.00682
76.4 0.00621
76.45 0.00592
76.5 0.004
76.55 0.00366
76.6 -0.00085
76.65 -0.00119
76.7 -0.00043
76.75 -0.00308
76.8 -0.00851
76.85 -0.00981
76.9 -0.00714
76.95 -0.00291
77 -0.00046
77.05 0.00279
77.1 0.00852
77.15 0.01137
77.2 0.01083
77.25 0.01049
77.3 0.01077
77.35 0.00935
77.4 0.00485
77.45 0.0023
77.5 -0.00302
77.55 -0.00989
77.6 -0.01581
77.65 -0.01921
77.7 -0.02314
77.75 -0.02383
77.8 -0.02575
77.85 -0.02342
77.9 -0.02352
77.95 -0.02282
78 -0.02197
78.05 -0.02165
78.1 -0.02143
78.15 -0.01594
78.2 -0.00735
78.25 0.00178
78.3 0.01128
78.35 0.02019
78.4 0.02213
78.45 0.02381
78.5 0.01999
78.55 0.01535
78.6 0.01431
78.65 0.01398
78.7 0.01512
78.75 0.01326
78.8 0.01141
78.85 0.00723
78.9 0.00486
78.95 0.00511
79 0.00112
79.05 0.00023
79.1 -0.0033
79.15 -0.00596
79.2 -0.00674
79.25 -0.00925
79.3 -0.0066
79.35 -0.00758
79.4 -0.00634
79.45 -0.00444
79.5 -0.00626
79.55 -0.00546
79.6 -0.00483
79.65 -0.00009
79.7 0.00578
79.75 0.00897
79.8 0.00926
79.85 0.00924
79.9 0.0085
79.95 0.00829
80 0.01008
80.05 0.00886
80.1 0.01076
80.15 0.01048
80.2 0.00936
80.25 0.00858
80.3 0.01109
80.35 0.00769
80.4 0.00208
80.45 -0.00323
80.5 -0.00982
80.55 -0.01625
80.6 -0.0192
80.65 -0.01761
80.7 -0.01663
80.75 -0.01707
80.8 -0.01246
80.85 -0.00531
80.9 -0.00387
80.95 -0.00171
81 0.00275
81.05 0.00632
81.1 0.00596
81.15 0.00455
81.2 0.00404
81.25 0.00496
81.3 0.00685
81.35 0.00466
81.4 0.0039
81.45 0.00491
81.5 0.00262
81.55 0.00442
81.6 0.00441
81.65 0.00455
81.7 0.00024
81.75 -0.00228
81.8 -0.0045
81.85 -0.00955
81.9 -0.0125
81.95 -0.0141
82 -0.01014
82.05 -0.00671
82.1 -0.00589
82.15 -0.00874
82.2 -0.01226
82.25 -0.01354
82.3 -0.01656
82.35 -0.01478
82.4 -0.00983
82.45 -0.00626
82.5 -0.00657
82.55 -0.00861
82.6 -0.00946
82.65 -0.00621
82.7 -0.00433
82.75 -0.00185
82.8 0.00033
82.85 0.00078
82.9 -0.00292
82.95 -0.00112
83 0.00232
83.05 0.00154
83.1 0.00386
83.15 0.00665
83.2 0.00674
83.25 0.00804
83.3 0.00765
83.35 0.00652
83.4 0.00437
83.45 0.00624
83.5 0.007
83.55 0.00599
83.6 0.00754
83.65 0.01037
83.7 0.00773
83.75 0.00541
83.8 0.00299
83.85 0.0038
83.9 0.00699
83.95 0.01118
84 0.01235
84.05 0.00797
84.1 0.00466
84.15 0.00556
84.2 0.00583
84.25 0.00907
84.3 0.0083
84.35 0.00489
84.4 -0.00118
84.45 -0.00269
84.5 -0.00347
84.55 -0.007
84.6 -0.00488
84.65 0.00035
84.7 0.00113
84.75 0.0026
84.8 0.00411
84.85 0.00707
84.9 0.00753
84.95 0.00387
85 -0.00219
85.05 -0.00581
85.1 -0.00658
85.15 -0.00992
85.2 -0.01319
85.25 -0.01216
85.3 -0.0083
85.35 -0.0041
85.4 -0.00469
85.45 -0.00431
85.5 -0.00155
85.55 -0.00329
85.6 -0.00594
85.65 -0.00639
85.7 -0.00906
85.75 -0.0089
85.8 -0.0084
85.85 -0.00764
85.9 -0.00397
85.95 -0.00306
86 -0.00441
86.05 -0.00546
86.1 -0.00905
86.15 -0.00666
86.2 -0.00569
86.25 -0.00726
86.3 -0.01035
86.35 -0.00881
86.4 -0.00412
86.45 -0.00439
86.5 -0.00331
86.55 0.00141
86.6 0.00529
86.65 0.01036
86.7 0.01324
86.75 0.01467
86.8 0.01374
86.85 0.00846
86.9 0.00177
86.95 -0.00425
87 -0.00508
87.05 -0.00409
87.1 -0.00405
87.15 -0.00033
87.2 0.00423
87.25 0.01035
87.3 0.0171
87.35 0.02309
87.4 0.02857
87.45 0.0284
87.5 0.02229
87.55 0.01903
87.6 0.0174
87.65 0.01559
87.7 0.01014
87.75 0.00654
87.8 0.00531
87.85 0.00417
87.9 0.00111
87.95 0.00263
88 0.00532
88.05 0.00392
88.1 0.00135
88.15 0.00136
88.2 -0.00182
88.25 -0.00633
88.3 -0.00885
88.35 -0.00916
88.4 -0.01161
88.45 -0.01425
88.5 -0.01416
88.55 -0.01682
88.6 -0.01387
88.65 -0.01021
88.7 -0.00375
88.75 0.00367
88.8 0.00571
88.85 0.00675
88.9 0.0041
88.95 0.00051
89 -0.0023
89.05 -0.00251
89.1 0.0008
89.15 0.00295
89.2 -0.00012
89.25 0.0011
89.3 0.00276
89.35 0.0011
89.4 0.00264
89.45 0.00381
89.5 0.00459
89.55 0.00369
89.6 0.00368
89.65 0.00187
89.7 0.00063
89.75 -0.00124
89.8 -0.0063
89.85 -0.01147
89.9 -0.01099
89.95 -0.00858
90 -0.00673
90.05 -0.00199
90.1 0.00126
90.15 0.00255
90.2 0.00548
90.25 0.00462
90.3 0.00482
90.35 0.00717
90.4 0.00463
90.45 -0.00134
90.5 -0.00549
90.55 -0.01053
90.6 -0.01108
90.65 -0.00919
90.7 -0.00798
90.75 -0.00765
90.8 -0.00467
90.85 -0
90.9 -0.00107
90.95 -0.00539
91 -0.00465
91.05 -0.00119
91.1 0.00044
91.15 0.00471
91.2 0.00406
91.25 0.0055
91.3 0.00391
91.35 -0.00039
91.4 0.00033
91.45 0.00211
91.5 0.00658
91.55 0.00813
91.6 0.00533
91.65 0.00385
91.7 0.00063
91.75 -0.00172
91.8 -0.00529
91.85 -0.00684
91.9 -0.00753
91.95 -0.00643
92 -0.0062
92.05 -0.00382
92.1 -0.00208
92.15 -0.00467
92.2 -0.00386
92.25 0.00019
92.3 0.00005
92.35 0.00031
92.4 0.00248
92.45 0.00432
92.5 0.0063
92.55 0.00732
92.6 0.00338
92.65 0.00074
92.7 0.0027
92.75 0.00077
92.8 -0.00021
92.85 -0.0022
92.9 -0.0056
92.95 -0.01139
93 -0.01495
93.05 -0.01711
93.1 -0.02051
93.15 -0.0235
93.2 -0.02273
93.25 -0.01756
93.3 -0.00922
93.35 -0.00405
93.4 0.00029
93.45 0.00631
93.5 0.01224
93.55 0.01093
93.6 0.00833
93.65 0.00624
93.7 0.00688
93.75 0.00264
93.8 0.00241
93.85 0.00474
93.9 0.00215
93.95 0.00193
94 0.00536
94.05 0.00712
94.1 0.00727
94.15 0.00805
94.2 0.00723
94.25 0.0045
94.3 0.00223
94.35 -0.00338
94.4 -0.0032
94.45 -0.00072
94.5 -0.00311
94.55 -0.00509
94.6 -0.00545
94.65 -0.00842
94.7 -0.0065
94.75 -0.00255
94.8 -0.00316
94.85 -0.00316
94.9 -0.00155
94.95 -0.00051
95 -0.00095
95.05 -0.0013
95.1 0.00076
95.15 0.00386
95.2 0.00649
95.25 0.01141
95.3 0.01522
95.35 0.01907
95.4 0.02304
95.45 0.02371
95.5 0.0187
95.55 0.01253
95.6 0.00735
95.65 0.00055
95.7 -0.00264
95.75 -0.00485
95.8 -0.00662
95.85 -0.00883
95.9 -0.01203
95.95 -0.01312
96 -0.0104
96.05 -0.00819
96.1 -0.00395
96.15 -0.00379
96.2 -0.00654
96.25 -0.01011
96.3 -0.00829
96.35 -0.0058
96.4 -0.00684
96.45 -0.01031
96.5 -0.01497
96.55 -0.01624
96.6 -0.01935
96.65 -0.01581
96.7 -0.01257
96.75 -0.0131
96.8 -0.01581
96.85 -0.0154
96.9 -0.01227
96.95 -0.00797
97 -0.00671
97.05 -0.00378
97.1 0.00063
97.15 0.00419
97.2 0.00699
97.25 0.0057
97.3 0.00041
97.35 -0.00668
97.4 -0.00711
97.45 -0.00649
97.5 -0.00698
97.55 -0.00486
97.6 0.00065
97.65 0.00404
97.7 0.00353
97.75 0.00338
97.8 0.0039
97.85 0.00063
97.9 -0.0023
97.95 -0.00026
98 -0.00279
98.05 -0.00138
98.1 -0.00367
98.15 -0.00694
98.2 -0.01124
98.25 -0.0127
98.3 -0.011
98.35 -0.01124
98.4 -0.0097
98.45 -0.00796
98.5 -0.00311
98.55 0.00079
98.6 0.00112
98.65 0.00424
98.7 0.00483
98.75 0.00168
98.8 0.00304
98.85 0.00067
98.9 0.00286
98.95 0.00395
99 0.00091
99.05 -0.00294
99.1 -0.00756
99.15 -0.01336
99.2 -0.01569
99.25 -0.01425
99.3 -0.01148
99.35 -0.00615
99.4 0.00058
99.45 0.00131
99.5 0.00044
99.55 0.00109
99.6 0.00433
99.65 0.005
99.7 0.00667
99.75 0.0092
99.8 0.00963
99.85 0.01206
99.9 0.01492
99.95 0.01489
