0 0
0.05 0.00002
0.1 0.00038
0.15 0.00067
0.2 0.00122
0.25 0.00157
0.3 0.0021
0.35 0.0028
0.4 0.00305
0.45 0.00344
0.5 0.00398
0.55 0.00426
0.6 0.00461
0.65 0.00484
0.7 0.00481
0.75 0.00468
0.8 0.00478
0.85 0.00451
0.9 0.00444
0.95 0.00432
1 0.004
1.05 0.00374
1.1 0.00371
1.15 0.0036
1.2 0.00351
1.25 0.00323
1.3 0.00277
1.35 0.00271
1.4 0.00274
1.45 0.00265
1.5 0.00264
1.55 0.00248
1.6 0.00225
1.65 0.00206
1.7 0.00212
1.75 0.00236
1.8 0.00219
1.85 0.00189
1.9 0.00179
1.95 0.0015
2 0.0012
2.05 0.0008
2.1 0.00063
2.15 0.00073
2.2 0.00116
2.25 0.0013
2.3 0.00169
2.35 0.00194
2.4 0.00184
2.45 0.00195
2.5 0.00228
2.55 0.00248
2.6 0.00249
2.65 0.0024
2.7 0.00251
2.75 0.00283
2.8 0.00266
2.85 0.00232
2.9 0.00222
2.95 0.00217
3 0.00216
3.05 0.00203
3.1 0.00212
3.15 0.00197
3.2 0.00208
3.25 0.00183
3.3 0.00193
3.35 0.00186
3.4 0.00183
3.45 0.00199
3.5 0.00232
3.55 0.00224
3.6 0.00225
3.65 0.00237
3.7 0.00219
3.75 0.00206
3.8 0.00188
3.85 0.00201
3.9 0.00203
3.95 0.00223
4 0.00228
4.05 0.00189
4.1 0.0018
4.15 0.00195
4.2 0.00214
4.25 0.00236
4.3 0.00225
4.35 0.00176
4.4 0.00149
4.45 0.00106
4.5 0.001
4.55 0.00084
4.6 0.00078
4.65 0.00079
4.7 0.00099
4.75 0.00086
4.8 0.00067
4.85 0.00028
4.9 -0.00004
4.95 -0.00042
5 -0.00053
5.05 -0.00063
5.1 -0.00065
5.15 -0.0006
5.2 -0.00059
5.25 -0.00071
5.3 -0.00056
5.35 -0.00015
5.4 0.00035
5.45 0.00098
5.5 0.00109
5.55 0.00084
5.6 0.00051
5.65 0.00017
5.7 0.00001
5.75 0.00009
5.8 0.00048
5.85 0.00086
5.9 0.00105
5.95 0.00144
6 0.00149
6.05 0.00134
6.1 0.001
6.15 0.00056
6.2 0.00025
6.25 0.00001
6.3 -0.00003
6.35 0.00019
6.4 0.00037
6.45 0.00023
6.5 0.00032
6.55 0.00045
6.6 0.00078
6.65 0.00089
6.7 0.00085
6.75 0.00092
6.8 0.00066
6.85 0.0005
6.9 0.00039
6.95 0.00009
7 0.00008
7.05 0.0002
7.1 0.00018
7.15 0.00025
7.2 0.00052
7.25 0.0008
7.3 0.00085
7.35 0.00061
7.4 0.00021
7.45 0.00007
7.5 0.00027
7.55 0.00007
7.6 -0.00023
7.65 -0.00032
7.7 -0.00059
7.75 -0.00074
7.8 -0.00076
7.85 -0.00041
7.9 -0.00031
7.95 -0.00027
8 -0.00016
8.05 0.00012
8.1 0.00052
8.15 0.00093
8.2 0.00118
8.25 0.00116
8.3 0.00133
8.35 0.00151
8.4 0.00181
8.45 0.00178
8.5 0.00137
8.55 0.00081
8.6 0.00056
8.65 0.00006
8.7 -0.00049
8.75 -0.0011
8.8 -0.00145
8.85 -0.00164
8.9 -0.00133
8.95 -0.00112
9 -0.00112
9.05 -0.00102
9.1 -0.0011
9.15 -0.00129
9.2 -0.00159
9.25 -0.00168
9.3 -0.00125
9.35 -0.00092
9.4 -0.00061
9.45 -0.00061
9.5 -0.00074
9.55 -0.00099
9.6 -0.00111
9.65 -0.00114
9.7 -0.00123
9.75 -0.00135
9.8 -0.001
9.85 -0.00094
9.9 -0.00098
9.95 -0.0006
10 -0.00047
10.05 -0.0006
10.1 -0.00078
10.15 -0.0005
10.2 -0.0004
10.25 -0.0005
10.3 -0.0004
10.35 -0.00052
10.4 -0.00063
10.45 -0.00067
10.5 -0.00084
10.55 -0.00108
10.6 -0.0012
10.65 -0.00103
10.7 -0.00059
10.75 -0.00026
10.8 -0.00022
10.85 0.00017
10.9 0.00077
10.95 0.00136
11 0.00159
11.05 0.00141
11.1 0.00114
11.15 0.00085
11.2 0.00047
11.25 0.00037
11.3 0.00004
11.35 -0.00008
11.4 -0.00002
11.45 -0.00014
11.5 -0.00037
11.55 -0.00074
11.6 -0.00096
11.65 -0.00074
11.7 -0.00039
11.75 -0.00013
11.8 0.00039
11.85 0.00061
11.9 0.00093
11.95 0.00109
12 0.00122
12.05 0.00145
12.1 0.00174
12.15 0.00152
12.2 0.00113
12.25 0.00077
12.3 0.00074
12.35 0.00082
12.4 0.00055
12.45 0.0002
12.5 -0.00018
12.55 -0.00056
12.6 -0.0006
12.65 -0.00061
12.7 -0.00064
12.75 -0.0008
12.8 -0.00079
12.85 -0.00081
12.9 -0.00046
12.95 -0.00022
13 -0.00006
13.05 0.00025
13.1 0.00062
13.15 0.0008
13.2 0.00081
13.25 0.00051
13.3 0.00031
13.35 0.00044
13.4 0.00024
13.45 0.0002
13.5 0.00004
13.55 0.0001
13.6 0.00008
13.65 0.0004
13.7 0.0009
13.75 0.00147
13.8 0.00145
13.85 0.00155
13.9 0.00145
13.95 0.00098
14 0.00052
14.05 0.00046
14.1 0.00041
14.15 0.00022
14.2 0.00018
14.25 0.00003
14.3 -0.00009
14.35 -0.00024
14.4 -0.00009
14.45 0.00014
14.5 0.00037
14.55 0.00025
14.6 0.00016
14.65 -0.00017
14.7 -0.00031
14.75 -0.00041
14.8 -0.00064
14.85 -0.0005
14.9 -0.00043
14.95 -0.00007
15 0.00037
15.05 0.00053
15.1 0.00037
15.15 0.00019
15.2 -0.00005
15.25 0
15.3 0.00005
15.35 -0
15.4 -0.00014
15.45 -0.0003
15.5 -0.00065
15.55 -0.00057
15.6 -0.00049
15.65 -0.00014
15.7 0.00006
15.75 -0.00007
15.8 -0.00033
15.85 -0.00047
15.9 -0.0004
15.95 -0.0001
16 0.00001
16.05 -0.00019
16.1 -0.00011
16.15 0.00017
16.2 0.00062
16.25 0.00093
16.3 0.00127
16.35 0.00167
16.4 0.002
16.45 0.00234
16.5 0.00206
16.55 0.00145
16.6 0.00073
16.65 0.0005
16.7 0.00023
16.75 0.00012
16.8 0.00026
16.85 0.00054
16.9 0.00086
16.95 0.00092
17 0.00073
17.05 0.00043
17.1 0.00019
17.15 -0.00014
17.2 -0.0006
17.25 -0.00078
17.3 -0.00089
17.35 -0.00112
17.4 -0.00118
17.45 -0.00117
17.5 -0.00121
17.55 -0.00122
17.6 -0.00126
17.65 -0.00127
17.7 -0.00085
17.75 -0.00051
17.8 -0.00029
17.85 -0.00023
17.9 -0.00008
17.95 -0.00009
18 0.00025
18.05 0.00032
18.1 0.00018
18.15 0.0002
18.2 -0.00002
18.25 -0.00041
18.3 -0.00081
18.35 -0.00087
18.4 -0.00093
18.45 -0.00118
18.5 -0.00119
18.55 -0.0009
18.6 -0.00087
18.65 -0.00103
18.7 -0.00122
18.75 -0.00123
18.8 -0.00097
18.85 -0.00084
18.9 -0.0008
18.95 -0.00045
19 -0.00013
19.05 -0.00014
19.1 -0.0003
19.15 -0.00004
19.2 0.00039
19.25 0.00046
19.3 0.00074
19.35 0.00061
19.4 0.00035
19.45 0.00014
19.5 -0.00013
19.55 -0.00022
19.6 -0.00012
19.65 -0.0003
19.7 -0.00016
19.75 0.00019
19.8 0.0006
19.85 0.00059
19.9 0.00082
19.95 0.00062
20 0.00037
20.05 0.00008
20.1 -0.00018
20.15 -0.00031
20.2 -0.00032
20.25 -0.00057
20.3 -0.0005
20.35 -0.00035
20.4 -0.00033
20.45 -0.00027
20.5 -0.00048
20.55 -0.0008
20.6 -0.0011
20.65 -0.00144
20.7 -0.00173
20.75 -0.00167
20.8 -0.00156
20.85 -0.00143
20.9 -0.00145
20.95 -0.00107
21 -0.00064
21.05 0.00002
21.1 0.00079
21.15 0.00133
21.2 0.0018
21.25 0.0021
21.3 0.00189
21.35 0.00175
21.4 0.00184
21.45 0.00177
21.5 0.00189
21.55 0.00176
21.6 0.00162
21.65 0.00153
21.7 0.00114
21.75 0.0011
21.8 0.00114
21.85 0.00082
21.9 0.0008
21.95 0.00073
22 0.0005
22.05 0.00005
22.1 -0.00017
22.15 -0.00047
22.2 -0.00081
22.25 -0.00089
22.3 -0.00089
22.35 -0.00069
22.4 -0.00062
22.45 -0.00061
22.5 -0.00058
22.55 -0.00058
22.6 -0.00025
22.65 0.0002
22.7 0.00077
22.75 0.0008
22.8 0.00091
22.85 0.00096
22.9 0.00081
22.95 0.00096
23 0.00126
23.05 0.00163
23.1 0.00202
23.15 0.00196
23.2 0.00191
23.25 0.00173
23.3 0.00131
23.35 0.00077
23.4 0.00028
23.45 -0.00017
23.5 -0.00069
23.55 -0.00103
23.6 -0.00085
23.65 -0.00095
23.7 -0.00107
23.75 -0.00135
23.8 -0.00133
23.85 -0.0014
23.9 -0.00117
23.95 -0.00095
24 -0.00091
24.05 -0.0008
24.1 -0.00064
24.15 -0.00063
24.2 -0.00045
24.25 -0.00044
24.3 -0.0005
24.35 -0.00023
24.4 -0.0002
24.45 -0.0001
24.5 0.00005
24.55 0.00041
24.6 0.00067
24.65 0.00061
24.7 0.00043
24.75 0.00046
24.8 0.00045
24.85 0.00011
24.9 -0.00007
24.95 0.00004
25 -0.00018
25.05 -0.00061
25.1 -0.00072
25.15 -0.00103
25.2 -0.00084
25.25 -0.00087
25.3 -0.00104
25.35 -0.00103
25.4 -0.00076
25.45 -0.00062
25.5 -0.00063
25.55 -0.00076
25.6 -0.00088
25.65 -0.00061
25.7 -0.00034
25.75 -0.00011
25.8 0.00001
25.85 0
25.9 0.00017
25.95 0.00049
26 0.00074
26.05 0.00061
26.1 0.00022
26.15 0.00028
26.2 0.00041
26.25 0.00065
26.3 0.00056
26.35 0.00027
26.4 0
26.45 -0.00046
26.5 -0.00051
26.55 -0.00055
26.6 -0.00035
26.65 -0.00008
26.7 0
26.75 0.00007
26.8 0.00031
26.85 0.00028
26.9 0.00032
26.95 0.00014
27 0.00013
27.05 0.00013
27.1 -0.00017
27.15 -0.00019
27.2 -0.00006
27.25 0.00026
27.3 0.00031
27.35 0.00063
27.4 0.00108
27.45 0.00136
27.5 0.00119
27.55 0.00097
27.6 0.00047
27.65 -0.00002
27.7 -0.00058
27.75 -0.00088
27.8 -0.00117
27.85 -0.00143
27.9 -0.00114
27.95 -0.00082
28 -0.00078
28.05 -0.00035
28.1 -0.00017
28.15 0.0002
28.2 0.00073
28.25 0.00099
28.3 0.0014
28.35 0.00149
28.4 0.00125
28.45 0.00085
28.5 0.00061
28.55 0.0002
28.6 0.00001
28.65 -0.00015
28.7 -0.00013
28.75 -0.00022
28.8 -0.00027
28.85 -0.00023
28.9 -0.00029
28.95 0.00002
29 0.00041
29.05 0.00058
29.1 0.00056
29.15 0.00026
29.2 -0.00006
29.25 -0.00035
29.3 -0.00023
29.35 0.00016
29.4 0.00045
29.45 0.00038
29.5 0.00008
29.55 0.00015
29.6 0.00035
29.65 0.00035
29.7 0.00057
29.75 0.00085
29.8 0.00094
29.85 0.00068
29.9 0.00077
29.95 0.00107
30 0.00099
30.05 0.00071
30.1 0.0006
30.15 0.00039
30.2 0.00018
30.25 -0.00002
30.3 -0.00036
30.35 -0.00043
30.4 -0.00034
30.45 -0.00057
30.5 -0.00054
30.55 -0.00044
30.6 -0.00007
30.65 0.00048
30.7 0.00096
30.75 0.0012
30.8 0.0013
30.85 0.00126
30.9 0.0011
30.95 0.0012
31 0.00097
31.05 0.00068
31.1 0.00027
31.15 -0.00033
31.2 -0.00051
31.25 -0.00032
31.3 0.00011
31.35 0.00006
31.4 0.0003
31.45 0.00047
31.5 0.00027
31.55 0.00015
31.6 0.00018
31.65 0.00037
31.7 0.00046
31.75 0.00062
31.8 0.00044
31.85 0.00019
31.9 0.0003
31.95 0.00029
32 0.00035
32.05 0.00009
32.1 -0.00002
32.15 -0.00025
32.2 -0.00016
32.25 -0.00038
32.3 -0.00064
32.35 -0.00098
32.4 -0.00105
32.45 -0.00086
32.5 -0.00064
32.55 -0.0007
32.6 -0.00089
32.65 -0.00104
32.7 -0.00074
32.75 -0.00059
32.8 -0.00035
32.85 0.00002
32.9 0.00055
32.95 0.0008
33 0.00089
33.05 0.00076
33.1 0.00058
33.15 0.0004
33.2 0.00001
33.25 -0.00032
33.3 -0.00046
33.35 -0.00076
33.4 -0.00061
33.45 -0.00045
33.5 -0.00036
33.55 -0.00033
33.6 -0.00021
33.65 -0.00041
33.7 -0.00055
33.75 -0.00087
33.8 -0.00085
33.85 -0.00065
33.9 -0.00056
33.95 -0.0005
34 -0.00065
34.05 -0.00096
34.1 -0.00131
34.15 -0.00149
34.2 -0.00141
34.25 -0.00128
34.3 -0.00138
34.35 -0.0015
34.4 -0.00146
34.45 -0.00149
34.5 -0.00162
34.55 -0.00176
34.6 -0.00173
34.65 -0.00136
34.7 -0.00071
34.75 0.00009
34.8 0.0007
34.85 0.00099
34.9 0.00088
34.95 0.00046
35 0.00004
35.05 -0.00002
35.1 -0.00008
35.15 0.00006
35.2 0.00019
35.25 -0.00003
35.3 -0.00045
35.35 -0.00046
35.4 -0.00017
35.45 -0.00009
35.5 0.00012
35.55 0.00022
35.6 0.00024
35.65 -0.00001
35.7 0.00007
35.75 0.00023
35.8 0.00024
35.85 0.00005
35.9 -0.00013
35.95 -0.00039
36 -0.00029
36.05 0.0001
36.1 0.00006
36.15 0.00022
36.2 0.00032
36.25 0.00065
36.3 0.00097
36.35 0.00106
36.4 0.00084
36.45 0.00049
36.5 0.00021
36.55 0.00028
36.6 0.00022
36.65 0.00005
36.7 -0.00028
36.75 -0.0003
36.8 0.00004
36.85 -0.00004
36.9 -0.00024
36.95 -0.00048
37 -0.00061
37.05 -0.00033
37.1 -0.00004
37.15 0.00033
37.2 0.00042
37.25 0.00047
37.3 0.00076
37.35 0.00083
37.4 0.00075
37.45 0.00045
37.5 0.0004
37.55 0.00005
37.6 -0.00038
37.65 -0.0004
37.7 -0.00054
37.75 -0.00089
37.8 -0.00127
37.85 -0.00149
37.9 -0.00178
37.95 -0.00151
38 -0.00142
38.05 -0.00117
38.1 -0.00104
38.15 -0.00093
38.2 -0.00059
38.25 0
38.3 0.0003
38.35 0.00036
38.4 0.00061
38.45 0.0005
38.5 0.00055
38.55 0.00048
38.6 0.00047
38.65 0.00013
38.7 -0.00017
38.75 -0.00022
38.8 -0.00044
38.85 -0.00062
38.9 -0.00078
38.95 -0.00049
39 -0.0001
39.05 0.00021
39.1 0.00038
39.15 0.00029
39.2 -0
39.25 -0.00019
39.3 -0.00042
39.35 -0.00043
39.4 -0.00062
39.45 -0.00084
39.5 -0.00097
39.55 -0.00125
39.6 -0.00154
39.65 -0.00133
39.7 -0.00101
39.75 -0.00095
39.8 -0.00087
39.85 -0.00055
39.9 -0.00024
39.95 0.00002
40 0.00017
40.05 0.00041
40.1 0.00085
40.15 0.00118
40.2 0.00133
40.25 0.00149
40.3 0.00168
40.35 0.00167
40.4 0.0015
40.45 0.00148
40.5 0.00165
40.55 0.00168
40.6 0.00134
40.65 0.00102
40.7 0.00058
40.75 0.00023
40.8 -0.00012
40.85 -0.00049
40.9 -0.00065
40.95 -0.00074
41 -0.00074
41.05 -0.00097
41.1 -0.001
41.15 -0.00082
41.2 -0.00044
41.25 -0.00026
41.3 -0.00016
41.35 -0
41.4 0.00021
41.45 0.0004
41.5 0.00071
41.55 0.00077
41.6 0.00096
41.65 0.00084
41.7 0.00068
41.75 0.00022
41.8 0.00024
41.85 0.00026
41.9 0.00023
41.95 -0.00005
42 -0.00038
42.05 -0.00084
42.1 -0.00113
42.15 -0.0009
42.2 -0.00037
42.25 -0.00021
42.3 0.00004
42.35 -0.00007
42.4 -0.00035
42.45 -0.0004
42.5 -0.00061
42.55 -0.00061
42.6 -0.00055
42.65 -0.00019
42.7 0.00002
42.75 0.00019
42.8 0.00016
42.85 0.00046
42.9 0.00046
42.95 0.00035
43 0.00047
43.05 0.00027
43.1 0.00021
43.15 0.00037
43.2 0.00041
43.25 0.00014
43.3 -0.00008
43.35 -0.00008
43.4 -0.00028
43.45 -0.00059
43.5 -0.00068
43.55 -0.00091
43.6 -0.00121
43.65 -0.0011
43.7 -0.00088
43.75 -0.00077
43.8 -0.00088
43.85 -0.00067
43.9 -0.00046
43.95 -0.00027
44 -0.00041
44.05 -0.0004
44.1 -0.00079
44.15 -0.00116
44.2 -0.00172
44.25 -0.00195
44.3 -0.00201
44.35 -0.00222
44.4 -0.0024
44.45 -0.00251
44.5 -0.00303
44.55 -0.00385
44.6 -0.00468
44.65 -0.00589
44.7 -0.00703
44.75 -0.00856
44.8 -0.01012
44.85 -0.01174
44.9 -0.01378
44.95 -0.01617
45 -0.01883
45.05 -0.02189
45.1 -0.02509
45.15 -0.02846
45.2 -0.03222
45.25 -0.03649
45.3 -0.04127
45.35 -0.04646
45.4 -0.05177
45.45 -0.05734
45.5 -0.06276
45.55 -0.06808
45.6 -0.07373
45.65 -0.07987
45.7 -0.08614
45.75 -0.09266
45.8 -0.09895
45.85 -0.10496
45.9 -0.11097
45.95 -0.11679
46 -0.12197
46.05 -0.12659
46.1 -0.13099
46.15 -0.13503
46.2 -0.13859
46.25 -0.14187
46.3 -0.14485
46.35 -0.14692
46.4 -0.14843
46.45 -0.14953
46.5 -0.15008
46.55 -0.14967
46.6 -0.14849
46.65 -0.14701
46.7 -0.14478
46.75 -0.14195
46.8 -0.13894
46.85 -0.13592
46.9 -0.1327
46.95 -0.12919
47 -0.12493
47.05 -0.12011
47.1 -0.11536
47.15 -0.11059
47.2 -0.10552
47.25 -0.09999
47.3 -0.0941
47.35 -0.08761
47.4 -0.08079
47.45 -0.07328
47.5 -0.06514
47.55 -0.05685
47.6 -0.0479
47.65 -0.03835
47.7 -0.02836
47.75 -0.01789
47.8 -0.0066
47.85 0.00507
47.9 0.01743
47.95 0.03023
48 0.04285
48.05 0.05566
48.1 0.06878
48.15 0.08186
48.2 0.09454
48.25 0.1068
48.3 0.11882
48.35 0.1305
48.4 0.14126
48.45 0.15142
48.5 0.16097
48.55 0.16933
48.6 0.17649
48.65 0.18291
48.7 0.18838
48.75 0.19255
48.8 0.19545
48.85 0.19741
48.9 0.19864
48.95 0.19887
49 0.19834
49.05 0.19727
49.1 0.19532
49.15 0.1924
49.2 0.18903
49.25 0.18487
49.3 0.18016
49.35 0.17492
49.4 0.16906
49.45 0.16285
49.5 0.15671
49.55 0.15068
49.6 0.14485
49.65 0.13912
49.7 0.13301
49.75 0.12672
49.8 0.12074
49.85 0.11517
49.9 0.1095
49.95 0.10372
50 0.0983
50.05 0.09347
50.1 0.08877
50.15 0.0842
50.2 0.08011
50.25 0.07616
50.3 0.07227
50.35 0.06885
50.4 0.06572
50.45 0.06276
50.5 0.0598
50.55 0.05718
50.6 0.05487
50.65 0.05273
50.7 0.0503
50.75 0.04772
50.8 0.0451
50.85 0.04284
50.9 0.04089
50.95 0.03869
51 0.03663
51.05 0.0349
51.1 0.03318
51.15 0.03157
51.2 0.02991
51.25 0.02829
51.3 0.02638
51.35 0.02456
51.4 0.02283
51.45 0.02135
51.5 0.01963
51.55 0.01806
51.6 0.01661
51.65 0.01512
51.7 0.01346
51.75 0.01203
51.8 0.01093
51.85 0.01003
51.9 0.00873
51.95 0.00702
52 0.00561
52.05 0.00435
52.1 0.00311
52.15 0.00208
52.2 0.00083
52.25 -0.00051
52.3 -0.00207
52.35 -0.00343
52.4 -0.00473
52.45 -0.00588
52.5 -0.00675
52.55 -0.00746
52.6 -0.00857
52.65 -0.00972
52.7 -0.01111
52.75 -0.01212
52.8 -0.01287
52.85 -0.01386
52.9 -0.01489
52.95 -0.01552
53 -0.0159
53.05 -0.01668
53.1 -0.0177
53.15 -0.01841
53.2 -0.01875
53.25 -0.01936
53.3 -0.0198
53.35 -0.01994
53.4 -0.0204
53.45 -0.02071
53.5 -0.02098
53.55 -0.02116
53.6 -0.02119
53.65 -0.02123
53.7 -0.02114
53.75 -0.02093
53.8 -0.02082
53.85 -0.02063
53.9 -0.02068
53.95 -0.0208
54 -0.02091
54.05 -0.02127
54.1 -0.02172
54.15 -0.02211
54.2 -0.02223
54.25 -0.02197
54.3 -0.02152
54.35 -0.02125
54.4 -0.02081
54.45 -0.02035
54.5 -0.02023
54.55 -0.0203
54.6 -0.02012
54.65 -0.01995
54.7 -0.0197
54.75 -0.01975
54.8 -0.01977
54.85 -0.01999
54.9 -0.02029
54.95 -0.02061
55 -0.02092
55.05 -0.02114
55.1 -0.02108
55.15 -0.02097
55.2 -0.02101
55.25 -0.02059
55.3 -0.01981
55.35 -0.01903
55.4 -0.01871
55.45 -0.01808
55.5 -0.01784
55.55 -0.01776
55.6 -0.01761
55.65 -0.01735
55.7 -0.01685
55.75 -0.0162
55.8 -0.0157
55.85 -0.01538
55.9 -0.01503
55.95 -0.015
56 -0.01495
56.05 -0.01472
56.1 -0.01468
56.15 -0.01447
56.2 -0.01419
56.25 -0.01411
56.3 -0.01396
56.35 -0.01351
56.4 -0.01312
56.45 -0.01299
56.5 -0.0126
56.55 -0.01221
56.6 -0.01201
56.65 -0.01167
56.7 -0.01169
56.75 -0.01148
56.8 -0.01166
56.85 -0.01194
56.9 -0.01213
56.95 -0.01223
57 -0.01209
57.05 -0.01216
57.1 -0.01194
57.15 -0.01174
57.2 -0.01162
57.25 -0.01123
57.3 -0.0109
57.35 -0.01048
57.4 -0.0103
57.45 -0.0102
57.5 -0.01004
57.55 -0.00989
57.6 -0.00949
57.65 -0.00932
57.7 -0.00892
57.75 -0.00894
57.8 -0.00904
57.85 -0.00886
57.9 -0.00893
57.95 -0.00923
58 -0.00924
58.05 -0.0094
58.1 -0.00914
58.15 -0.00914
58.2 -0.00916
58.25 -0.00876
58.3 -0.00852
58.35 -0.00809
58.4 -0.00782
58.45 -0.00788
58.5 -0.00757
58.55 -0.00715
58.6 -0.00664
58.65 -0.00612
58.7 -0.00601
58.75 -0.00578
58.8 -0.00597
58.85 -0.00627
58.9 -0.00663
58.95 -0.0069
59 -0.00721
59.05 -0.00732
59.1 -0.00729
59.15 -0.00732
59.2 -0.00729
59.25 -0.00712
59.3 -0.00682
59.35 -0.00659
59.4 -0.00631
59.45 -0.00615
59.5 -0.0059
59.55 -0.00548
59.6 -0.00523
59.65 -0.00495
59.7 -0.00468
59.75 -0.00434
59.8 -0.00402
59.85 -0.00373
59.9 -0.00352
59.95 -0.00358
60 -0.00384
60.05 -0.00376
60.1 -0.00386
60.15 -0.00419
60.2 -0.00435
60.25 -0.0045
60.3 -0.00476
60.35 -0.00454
60.4 -0.00435
60.45 -0.00416
60.5 -0.00418
60.55 -0.00398
60.6 -0.00377
60.65 -0.00345
60.7 -0.00307
60.75 -0.00279
60.8 -0.00283
60.85 -0.00285
60.9 -0.00282
60.95 -0.00311
61 -0.00315
61.05 -0.00288
61.1 -0.00284
61.15 -0.00297
61.2 -0.0031
61.25 -0.00299
61.3 -0.00319
61.35 -0.00312
61.4 -0.00311
61.45 -0.00321
61.5 -0.00343
61.55 -0.00366
61.6 -0.00352
61.65 -0.00337
61.7 -0.00316
61.75 -0.00328
61.8 -0.00353
61.85 -0.00351
61.9 -0.00347
61.95 -0.00307
62 -0.00278
62.05 -0.00254
62.1 -0.00254
62.15 -0.00264
62.2 -0.00284
62.25 -0.00288
62.3 -0.00297
62.35 -0.00316
62.4 -0.00306
62.45 -0.00317
62.5 -0.0029
62.55 -0.00283
62.6 -0.003
62.65 -0.00295
62.7 -0.00293
62.75 -0.003
62.8 -0.00317
62.85 -0.00283
62.9 -0.00271
62.95 -0.00259
63 -0.00229
63.05 -0.00178
63.1 -0.00127
63.15 -0.00097
63.2 -0.00105
63.25 -0.00102
63.3 -0.00087
63.35 -0.00066
63.4 -0.00077
63.45 -0.00079
63.5 -0.00068
63.55 -0.00074
63.6 -0.00084
63.65 -0.00083
63.7 -0.00062
63.75 -0.00079
63.8 -0.00124
63.85 -0.00143
63.9 -0.00173
63.95 -0.00219
64 -0.00246
64.05 -0.00232
64.1 -0.00227
64.15 -0.00213
64.2 -0.00224
64.25 -0.00191
64.3 -0.0017
64.35 -0.00122
64.4 -0.00087
64.45 -0.00086
64.5 -0.00057
64.55 -0.00055
64.6 -0.00043
64.65 -0.00015
64.7 -0.00004
64.75 0.00016
64.8 0.00035
64.85 0.00037
64.9 0.00031
64.95 -0.0001
65 -0.00041
65.05 -0.00092
65.1 -0.00137
65.15 -0.00164
65.2 -0.00183
65.25 -0.00175
65.3 -0.00165
65.35 -0.0012
65.4 -0.00068
65.45 -0.00023
65.5 -0.00001
65.55 0.00011
65.6 0.00017
65.65 0.00001
65.7 -0.00035
65.75 -0.00038
65.8 -0.00055
65.85 -0.00054
65.9 -0.00027
65.95 -0.00041
66 -0.00024
66.05 0.00015
66.1 0.00057
66.15 0.00072
66.2 0.00042
66.25 0.00021
66.3 -0.00022
66.35 -0.00064
66.4 -0.00109
66.45 -0.00151
66.5 -0.00143
66.55 -0.00135
66.6 -0.00112
66.65 -0.00088
66.7 -0.00083
66.75 -0.00048
66.8 -0.00038
66.85 -0.00049
66.9 -0.00037
66.95 -0.00056
67 -0.0006
67.05 -0.00076
67.1 -0.00079
67.15 -0.001
67.2 -0.00107
67.25 -0.00106
67.3 -0.00107
67.35 -0.00127
67.4 -0.0013
67.45 -0.00132
67.5 -0.00093
67.55 -0.00046
67.6 -0.00012
67.65 -0.0001
67.7 -0.00006
67.75 -0.00021
67.8 -0.00025
67.85 -0.00041
67.9 -0.00077
67.95 -0.00076
68 -0.00081
68.05 -0.00086
68.1 -0.00055
68.15 -0.00042
68.2 -0.00044
68.25 -0.0005
68.3 -0.0007
68.35 -0.00086
68.4 -0.00109
68.45 -0.00136
68.5 -0.00132
68.55 -0.00138
68.6 -0.00152
68.65 -0.00157
68.7 -0.00164
68.75 -0.00163
68.8 -0.00119
68.85 -0.00077
68.9 -0.00024
68.95 0.00043
69 0.00089
69.05 0.00122
69.1 0.00119
69.15 0.00136
69.2 0.00123
69.25 0.00106
69.3 0.00082
69.35 0.00077
69.4 0.00067
69.45 0.00079
69.5 0.00111
69.55 0.00107
69.6 0.0007
69.65 0.00044
69.7 -0.00004
69.75 -0.00012
69.8 -0.00025
69.85 -0.00038
69.9 -0.00066
69.95 -0.00079
70 -0.00111
70.05 -0.00105
70.1 -0.00124
70.15 -0.00151
70.2 -0.00164
70.25 -0.00178
70.3 -0.00159
70.35 -0.00161
70.4 -0.00178
70.45 -0.00201
70.5 -0.00216
70.55 -0.00215
70.6 -0.00207
70.65 -0.00207
70.7 -0.00179
70.75 -0.00157
70.8 -0.00099
70.85 -0.00056
70.9 0.00008
70.95 0.00027
71 0.00037
71.05 0.00061
71.1 0.00068
71.15 0.00051
71.2 0.00023
71.25 0.00036
71.3 0.00036
71.35 0.00036
71.4 0.00058
71.45 0.00047
71.5 0.00019
71.55 -0.0002
71.6 -0.00027
71.65 -0.00041
71.7 -0.00019
71.75 -0.00018
71.8 -0.00022
71.85 -0.00046
71.9 -0.00028
71.95 -0.00033
72 -0.00046
72.05 -0.00053
72.1 -0.00071
72.15 -0.00059
72.2 -0.00032
72.25 0.00004
72.3 0.00049
72.35 0.00079
72.4 0.00095
72.45 0.00098
72.5 0.0012
72.55 0.00135
72.6 0.00123
72.65 0.00085
72.7 0.00085
72.75 0.00073
72.8 0.0009
72.85 0.001
72.9 0.00088
72.95 0.00065
73 0.00048
73.05 0.00028
73.1 0.00009
73.15 -0.00019
73.2 -0.00061
73.25 -0.00056
73.3 -0.00067
73.35 -0.00055
73.4 -0.00034
73.45 0.00007
73.5 0.00023
73.55 0.00024
73.6 0.00052
73.65 0.00064
73.7 0.0007
73.75 0.00088
73.8 0.00095
73.85 0.0007
73.9 0.00033
73.95 -0.0001
74 -0.00067
74.05 -0.00086
74.1 -0.00059
74.15 -0.00046
74.2 -0.00015
74.25 -0.00024
74.3 -0.00038
74.35 -0.00032
74.4 -0.00009
74.45 -0.00002
74.5 0.00013
74.55 0.00013
74.6 -0.00012
74.65 -0.0001
74.7 0.00009
74.75 0.00046
74.8 0.00046
74.85 0.00055
74.9 0.00029
74.95 -0.00005
75 -0.00034
75.05 -0.00068
75.1 -0.00073
75.15 -0.00087
75.2 -0.00077
75.25 -0.0007
75.3 -0.00043
75.35 -0.0001
75.4 -0.00014
75.45 0.00013
75.5 0.00027
75.55 0.00035
75.6 0.00017
75.65 -0.00011
75.7 -0.00017
75.75 0.00005
75.8 0.00025
75.85 0.00016
75.9 -0.00022
75.95 -0.00047
76 -0.00043
76.05 -0.00019
76.1 -0.00002
76.15 -0.00022
76.2 -0.00028
76.25 -0.00021
76.3 -0.0001
76.35 -0.00029
76.4 -0.00022
76.45 -0.00046
76.5 -0.00064
76.55 -0.00051
76.6 -0.00044
76.65 -0.00043
76.7 -0.00067
76.75 -0.00074
76.8 -0.0009
76.85 -0.00067
76.9 -0.00031
76.95 0.00024
77 0.00026
77.05 -0.00002
77.1 -0.00032
77.15 -0.00058
77.2 -0.0006
77.25 -0.00046
77.3 -0.0005
77.35 -0.00052
77.4 -0.00036
77.45 -0.00011
77.5 0.00035
77.55 0.00075
77.6 0.0007
77.65 0.00064
77.7 0.00079
77.75 0.00057
77.8 0.0006
77.85 0.00043
77.9 0.00052
77.95 0.00042
78 0.00063
78.05 0.00046
78.1 0.00016
78.15 -0.00028
78.2 -0.00038
78.25 -0.00051
78.3 -0.00059
78.35 -0.00045
78.4 -0.00029
78.45 -0.00014
78.5 0.00022
78.55 0.00021
78.6 0.00026
78.65 0.0005
78.7 0.00067
78.75 0.00095
78.8 0.00096
78.85 0.00095
78.9 0.00066
78.95 0.00011
79 -0.00006
79.05 -0.00023
79.1 -0.00036
79.15 -0.00064
79.2 -0.00059
79.25 -0.00038
79.3 -0.00044
79.35 -0.0002
79.4 -0.00002
79.45 0.00009
79.5 0.00011
79.55 0.00025
79.6 0.00033
79.65 0.00061
79.7 0.00051
79.75 0.00054
79.8 0.00083
79.85 0.00121
79.9 0.00114
79.95 0.00123
80 0.00101
80.05 0.0007
80.1 0.0004
80.15 0.00021
80.2 0
80.25 0.00007
80.3 0.00003
80.35 0.00022
80.4 0.00021
80.45 0.0003
80.5 0.00054
80.55 0.00039
80.6 0.0001
80.65 0.00019
80.7 0.0003
80.75 0.00045
80.8 0.00036
80.85 0.00054
80.9 0.00039
80.95 0.00018
81 -0.0002
81.05 -0.00014
81.1 0.00002
81.15 -0.00014
81.2 -0.00003
81.25 -0.00025
81.3 -0.0006
81.35 -0.0005
81.4 -0.00026
81.45 -0.00022
81.5 0.00006
81.55 0.00037
81.6 0.00079
81.65 0.00067
81.7 0.00075
81.75 0.00052
81.8 0.00047
81.85 0.00018
81.9 0.00019
81.95 0.00045
82 0.00044
82.05 0.00011
82.1 -0.00037
82.15 -0.00074
82.2 -0.00121
82.25 -0.00122
82.3 -0.00102
82.35 -0.001
82.4 -0.00117
82.45 -0.00091
82.5 -0.00079
82.55 -0.00089
82.6 -0.00092
82.65 -0.00088
82.7 -0.00096
82.75 -0.00075
82.8 -0.00052
82.85 -0.00038
82.9 -0.00037
82.95 -0.00035
83 -0.00051
83.05 -0.00041
83.1 -0.00022
83.15 0.00023
83.2 0.0003
83.25 0.00036
83.3 0.00049
83.35 0.00078
83.4 0.00112
83.45 0.00111
83.5 0.00114
83.55 0.00103
83.6 0.00058
83.65 0.00016
83.7 -0.00004
83.75 -0.00007
83.8 -0.00035
83.85 -0.00048
83.9 -0.00029
83.95 -0.00025
84 -0.00053
84.05 -0.00078
84.1 -0.00064
84.15 -0.00035
84.2 0.00014
84.25 0.00073
84.3 0.0013
84.35 0.00122
84.4 0.001
84.45 0.00076
84.5 0.0005
84.55 0.00057
84.6 0.00027
84.65 0.00013
84.7 -0.00013
84.75 -0.00012
84.8 0.00005
84.85 -0.00015
84.9 -0.00019
84.95 0.00007
85 -0.00006
85.05 -0.00017
85.1 -0.00047
85.15 -0.00041
85.2 -0.00023
85.25 0.00015
85.3 0.00011
85.35 -0.00004
85.4 -0
85.45 0.00007
85.5 -0.00004
85.55 0.00003
85.6 0.0003
85.65 0.00047
85.7 0.00062
85.75 0.0005
85.8 0.0006
85.85 0.00085
85.9 0.00078
85.95 0.00044
86 -0.00012
86.05 -0.00062
86.1 -0.00059
86.15 -0.0003
86.2 0.00009
86.25 0.00038
86.3 0.00021
86.35 0.00015
86.4 0.00014
86.45 -0.00009
86.5 -0.0001
86.55 0.00002
86.6 -0.00009
86.65 -0.00044
86.7 -0.00069
86.75 -0.00081
86.8 -0.00095
86.85 -0.00119
86.9 -0.00105
86.95 -0.00066
87 -0.00032
87.05 -0.0004
87.1 -0.00059
87.15 -0.00063
87.2 -0.00064
87.25 -0.00075
87.3 -0.00103
87.35 -0.0012
87.4 -0.0014
87.45 -0.00171
87.5 -0.00201
87.55 -0.00176
87.6 -0.00141
87.65 -0.00114
87.7 -0.00095
87.75 -0.00056
87.8 -0.00057
87.85 -0.00073
87.9 -0.0008
87.95 -0.00078
88 -0.00062
88.05 -0.00065
88.1 -0.00032
88.15 0.00002
88.2 0.00031
88.25 0.00063
88.3 0.00077
88.35 0.00069
88.4 0.00089
88.45 0.00095
88.5 0.00101
88.55 0.00093
88.6 0.00088
88.65 0.00088
88.7 0.00097
88.75 0.00071
88.8 0.00066
88.85 0.00074
88.9 0.00049
88.95 0.00007
89 -0.00047
89.05 -0.00087
89.1 -0.00131
89.15 -0.00122
89.2 -0.00094
89.25 -0.00073
89.3 -0.00064
89.35 -0.0004
89.4 -0.00051
89.45 -0.00058
89.5 -0.00066
89.55 -0.00095
89.6 -0.00107
89.65 -0.00078
89.7 -0.00025
89.75 0.00012
89.8 0.00043
89.85 0.00028
89.9 0.0004
89.95 0.00025
90 0.00026
90.05 -0.00001
90.1 0.00012
90.15 0.00004
90.2 -0.00011
90.25 -0.00015
90.3 -0.00033
90.35 -0.00022
90.4 -0.00015
90.45 0.00012
90.5 0.00051
90.55 0.00084
90.6 0.00091
90.65 0.00065
90.7 0.00016
90.75 -0.00036
90.8 -0.00043
90.85 -0.00048
90.9 -0.00027
90.95 -0.00003
91 0.00044
91.05 0.00097
91.1 0.00125
91.15 0.00111
91.2 0.00104
91.25 0.00079
91.3 0.00025
91.35 0.0001
91.4 -0.00014
91.45 -0.00054
91.5 -0.00051
91.55 -0.00076
91.6 -0.00057
91.65 -0.00062
91.7 -0.00087
91.75 -0.00094
91.8 -0.0009
91.85 -0.00085
91.9 -0.00073
91.95 -0.00071
92 -0.00067
92.05 -0.00047
92.1 -0.00062
92.15 -0.00077
92.2 -0.0007
92.25 -0.00059
92.3 -0.00068
92.35 -0.00063
92.4 -0.00024
92.45 0.0003
92.5 0.00073
92.55 0.00109
92.6 0.00146
92.65 0.00129
92.7 0.00141
92.75 0.00168
92.8 0.00197
92.85 0.00226
92.9 0.00231
92.95 0.00225
93 0.00211
93.05 0.00209
93.1 0.00173
93.15 0.00145
93.2 0.00096
93.25 0.0005
93.3 0.00036
93.35 0.00008
93.4 -0.00002
93.45 -0
93.5 -0.00023
93.55 -0.00065
93.6 -0.00058
93.65 -0.00065
93.7 -0.00038
93.75 -0.0005
93.8 -0.00086
93.85 -0.00133
93.9 -0.00156
93.95 -0.00151
94 -0.00116
94.05 -0.0007
94.1 -0.00062
94.15 -0.00068
94.2 -0.00041
94.25 -0.00022
94.3 -0.00034
94.35 -0.00026
94.4 -0.00019
94.45 -0.00044
94.5 -0.00054
94.55 -0.00056
94.6 -0.0006
94.65 -0.00062
94.7 -0.00067
94.75 -0.00055
94.8 -0.0001
94.85 0.00034
94.9 0.00055
94.95 0.0009
95 0.00104
95.05 0.00095
95.1 0.00101
95.15 0.00124
95.2 0.00148
95.25 0.00171
95.3 0.00187
95.35 0.00208
95.4 0.00221
95.45 0.00222
95.5 0.00221
95.55 0.00187
95.6 0.00154
95.65 0.0012
95.7 0.00058
95.75 -0.00013
95.8 -0.00066
95.85 -0.00074
95.9 -0.0007
95.95 -0.00092
96 -0.00104
96.05 -0.00107
96.1 -0.00131
96.15 -0.00132
96.2 -0.00093
96.25 -0.00084
96.3 -0.00055
96.35 -0.00047
96.4 -0.00019
96.45 -0.00022
96.5 -0.00023
96.55 -0.00028
96.6 -0.0001
96.65 0.00018
96.7 0.00008
96.75 -0.0002
96.8 -0.00034
96.85 -0.00032
96.9 -0.00012
96.95 -0.00019
97 0.00002
97.05 -0.00015
97.1 -0.00003
97.15 0.00014
97.2 0.00027
97.25 0.00024
97.3 0.00049
97.35 0.00053
97.4 0.00052
97.45 0.00067
97.5 0.00098
97.55 0.00128
97.6 0.0012
97.65 0.00098
97.7 0.00084
97.75 0.0005
97.8 0.00042
97.85 0.00003
97.9 -0.00006
97.95 -0.00034
98 -0.00043
98.05 -0.00064
98.1 -0.00079
98.15 -0.0008
98.2 -0.00081
98.25 -0.00058
98.3 -0.00037
98.35 -0.00017
98.4 -0
98.45 -0.00023
98.5 -0.00069
98.55 -0.00115
98.6 -0.0012
98.65 -0.00104
98.7 -0.00097
98.75 -0.00058
98.8 -0.00053
98.85 -0.00051
98.9 -0.00039
98.95 -0.00034
99 -0.00028
99.05 -0.00033
99.1 -0.00065
99.15 -0.00068
99.2 -0.00065
99.25 -0.00045
99.3 -0.00031
99.35 0.00002
99.4 0.00033
99.45 0.00049
99.5 0.00051
99.55 0.00057
99.6 0.00063
99.65 0.00036
99.7 0.00046
99.75 0.00042
99.8 0.00044
99.85 0.00066
99.9 0.00098
99.95 0.00135
