0 0
0.05 0.00028
0.1 0.00134
0.15 0.00195
0.2 0.00287
0.25 0.00357
0.3 0.00446
0.35 0.00497
0.4 0.00549
0.45 0.0059
0.5 0.00605
0.55 0.00586
0.6 0.00564
0.65 0.00562
0.7 0.00569
0.75 0.00595
0.8 0.00556
0.85 0.00556
0.9 0.00567
0.95 0.00594
1 0.00571
1.05 0.00499
1.1 0.00405
1.15 0.00375
1.2 0.00399
1.25 0.00385
1.3 0.00349
1.35 0.00318
1.4 0.00328
1.45 0.00347
1.5 0.00381
1.55 0.00394
1.6 0.00398
1.65 0.00354
1.7 0.00349
1.75 0.00327
1.8 0.0027
1.85 0.00262
1.9 0.00236
1.95 0.00191
2 0.0017
2.05 0.00173
2.1 0.00239
2.15 0.00262
2.2 0.00254
2.25 0.00289
2.3 0.00287
2.35 0.00244
2.4 0.00271
2.45 0.00322
2.5 0.00354
2.55 0.00342
2.6 0.00378
2.65 0.00445
2.7 0.00517
2.75 0.00512
2.8 0.00528
2.85 0.0053
2.9 0.00512
2.95 0.00516
3 0.00481
3.05 0.00427
3.1 0.00407
3.15 0.0041
3.2 0.00396
3.25 0.00365
3.3 0.00308
3.35 0.00268
3.4 0.00248
3.45 0.00216
3.5 0.00177
3.55 0.00163
3.6 0.00179
3.65 0.00173
3.7 0.0016
3.75 0.00123
3.8 0.00069
3.85 0.00064
3.9 0.00032
3.95 0.0007
4 0.00117
4.05 0.00138
4.1 0.002
4.15 0.00197
4.2 0.00242
4.25 0.0027
4.3 0.00238
4.35 0.00169
4.4 0.00117
4.45 0.00061
4.5 0.00026
4.55 0.00035
4.6 0.00069
4.65 0.00124
4.7 0.00119
4.75 0.00156
4.8 0.00183
4.85 0.00207
4.9 0.00221
4.95 0.00196
5 0.00184
5.05 0.00166
5.1 0.00108
5.15 0.00097
5.2 0.001
5.25 0.00113
5.3 0.00104
5.35 0.00129
5.4 0.00119
5.45 0.00064
5.5 0.00077
5.55 0.00136
5.6 0.00217
5.65 0.00234
5.7 0.00271
5.75 0.00251
5.8 0.00187
5.85 0.0009
5.9 0.00018
5.95 -0.00043
6 -0.00065
6.05 -0.00108
6.1 -0.00128
6.15 -0.00092
6.2 -0.00032
6.25 -0.00008
6.3 0.00043
6.35 0.00053
6.4 0.00021
6.45 0.00007
6.5 0.00009
6.55 0.00037
6.6 0.00024
6.65 0.00025
6.7 0.00003
6.75 -0.00014
6.8 -0.00034
6.85 -0.0004
6.9 -0.00039
6.95 -0.00015
7 0.00021
7.05 0.00059
7.1 0.00056
7.15 0.00084
7.2 0.00151
7.25 0.00162
7.3 0.00177
7.35 0.00134
7.4 0.00077
7.45 0.00005
7.5 0.00002
7.55 -0.00027
7.6 -0.00007
7.65 -0.00033
7.7 -0.00021
7.75 -0.00033
7.8 -0.00043
7.85 -0.00062
7.9 -0.00052
7.95 -0.00004
8 0.00045
8.05 0.00052
8.1 0.00065
8.15 0.00088
8.2 0.00053
8.25 0.00025
8.3 0.00013
8.35 0.00012
8.4 -0.00004
8.45 0.00043
8.5 0.00034
8.55 0.00034
8.6 0.00027
8.65 0.00049
8.7 0.00114
8.75 0.00111
8.8 0.00075
8.85 0.00009
8.9 -0.00048
8.95 -0.0003
9 0.00009
9.05 0.00039
9.1 0.0006
9.15 0.00091
9.2 0.00118
9.25 0.00146
9.3 0.00161
9.35 0.00131
9.4 0.00071
9.45 0.00006
9.5 0.00017
9.55 0.00021
9.6 0.00034
9.65 0.00047
9.7 0.00019
9.75 0.00033
9.8 0.0004
9.85 0.00006
9.9 0.00039
9.95 0.00087
10 0.00164
10.05 0.00198
10.1 0.00199
10.15 0.00138
10.2 0.00053
10.25 -0.00046
10.3 -0.00117
10.35 -0.00152
10.4 -0.00135
10.45 -0.00085
10.5 -0.00012
10.55 0.00013
10.6 0.00052
10.65 0.00036
10.7 0.00006
10.75 -0.00018
10.8 -0.00073
10.85 -0.00144
10.9 -0.00217
10.95 -0.0029
11 -0.00266
11.05 -0.00269
11.1 -0.00269
11.15 -0.00287
11.2 -0.00295
11.25 -0.00248
11.3 -0.00153
11.35 -0.00043
11.4 0.00031
11.45 0.00038
11.5 0.00061
11.55 0.00063
11.6 0.0005
11.65 0.00088
11.7 0.00125
11.75 0.00102
11.8 0.00039
11.85 0.0002
11.9 0.00009
11.95 0.00013
12 -0.00026
12.05 -0.00007
12.1 0.00034
12.15 0.00112
12.2 0.00132
12.25 0.00114
12.3 0.00095
12.35 0.0005
12.4 0.00059
12.45 0.00043
12.5 0.00077
12.55 0.00101
12.6 0.00064
12.65 0.00065
12.7 0.00033
12.75 0.00048
12.8 0.0001
12.85 0.00007
12.9 0.0003
12.95 0.00043
13 0.00102
13.05 0.00154
13.1 0.00155
13.15 0.00107
13.2 0.00054
13.25 0.00004
13.3 -0.00028
13.35 -0.00084
13.4 -0.0006
13.45 -0.00052
13.5 -0.00017
13.55 -0.00024
13.6 0.00018
13.65 0.00042
13.7 0.00104
13.75 0.00144
13.8 0.00122
13.85 0.00114
13.9 0.00146
13.95 0.00175
14 0.00174
14.05 0.00202
14.1 0.00217
14.15 0.00231
14.2 0.00245
14.25 0.00231
14.3 0.0024
14.35 0.00252
14.4 0.00191
14.45 0.00113
14.5 0.00038
14.55 -0.00057
14.6 -0.00068
14.65 -0.00111
14.7 -0.0012
14.75 -0.00091
14.8 -0.00042
14.85 -0.00009
14.9 -0.00036
14.95 0
15 0.00001
15.05 -0.00045
15.1 -0.00107
15.15 -0.0015
15.2 -0.00173
15.25 -0.00137
15.3 -0.00054
15.35 0.00032
15.4 0.0005
15.45 0.00083
15.5 0.00052
15.55 0.00009
15.6 -0.00023
15.65 -0.00034
15.7 0.00002
15.75 0.00014
15.8 0.00048
15.85 0.0007
15.9 0.00095
15.95 0.0009
16 0.001
16.05 0.00134
16.1 0.00096
16.15 0.00018
16.2 -0.00006
16.25 0.00031
16.3 0.00067
16.35 0.00079
16.4 0.00056
16.45 0.00031
16.5 0.00042
16.55 0.00081
16.6 0.00148
16.65 0.00213
16.7 0.00191
16.75 0.00199
16.8 0.00179
16.85 0.00192
16.9 0.00234
16.95 0.00207
17 0.00205
17.05 0.00176
17.1 0.0016
17.15 0.00128
17.2 0.00101
17.25 0.00043
17.3 -0.00024
17.35 -0.00065
17.4 -0.00124
17.45 -0.00104
17.5 -0.00063
17.55 -0.0002
17.6 0.00056
17.65 0.00064
17.7 0.00052
17.75 0.00081
17.8 0.00127
17.85 0.00105
17.9 0.00069
17.95 0.00061
18 0.00093
18.05 0.00081
18.1 0.00103
18.15 0.00115
18.2 0.00098
18.25 0.00118
18.3 0.00088
18.35 0.00073
18.4 0.00025
18.45 -0.00008
18.5 -0.00008
18.55 0.00001
18.6 -0.00046
18.65 -0.00046
18.7 -0.00057
18.75 -0.00113
18.8 -0.00168
18.85 -0.0022
18.9 -0.00275
18.95 -0.00295
19 -0.00298
19.05 -0.00306
19.1 -0.0031
19.15 -0.00289
19.2 -0.00253
19.25 -0.00218
19.3 -0.00138
19.35 -0.00072
19.4 0.00012
19.45 0.00069
19.5 0.00111
19.55 0.00124
19.6 0.0013
19.65 0.00165
19.7 0.0019
19.75 0.00229
19.8 0.00257
19.85 0.00288
19.9 0.00298
19.95 0.00307
20 0.00271
20.05 0.00201
20.1 0.00097
20.15 0.00063
20.2 -0.00013
20.25 -0.00077
20.3 -0.00074
20.35 -0.00023
20.4 -0.00036
20.45 -0.00086
20.5 -0.00093
20.55 -0.00092
20.6 -0.00067
20.65 -0.00011
20.7 0.00039
20.75 0.00018
20.8 -0.0005
20.85 -0.00085
20.9 -0.00152
20.95 -0.00208
21 -0.00241
21.05 -0.00245
21.1 -0.0018
21.15 -0.00154
21.2 -0.00115
21.25 -0.00106
21.3 -0.00102
21.35 -0.00099
21.4 -0.00117
21.45 -0.00153
21.5 -0.00166
21.55 -0.00144
21.6 -0.0008
21.65 -0.00043
21.7 -0.00025
21.75 -0.00058
21.8 -0.00123
21.85 -0.00174
21.9 -0.00145
21.95 -0.00133
22 -0.00148
22.05 -0.00094
22.1 -0.00046
22.15 0.00031
22.2 0.00102
22.25 0.00096
22.3 0.00062
22.35 0.00037
22.4 -0.00001
22.45 0.00016
22.5 -0.00009
22.55 0.00015
22.6 0.00068
22.65 0.00072
22.7 0.00067
22.75 0.00088
22.8 0.00068
22.85 0.00057
22.9 0.00031
22.95 0.00005
23 -0.00044
23.05 -0.00107
23.1 -0.00167
23.15 -0.00206
23.2 -0.00212
23.25 -0.00148
23.3 -0.0008
23.35 -0.00054
23.4 -0.00053
23.45 -0.00079
23.5 -0.00119
23.55 -0.00146
23.6 -0.00114
23.65 -0.00037
23.7 -0.00009
23.75 0.00036
23.8 0.00059
23.85 0.00098
23.9 0.00157
23.95 0.00145
24 0.00093
24.05 0.00097
24.1 0.00095
24.15 0.00074
24.2 0.0009
24.25 0.00105
24.3 0.00156
24.35 0.00133
24.4 0.00126
24.45 0.00078
24.5 -0.00001
24.55 -0.00074
24.6 -0.00105
24.65 -0.00075
24.7 -0.00099
24.75 -0.00146
24.8 -0.00157
24.85 -0.00152
24.9 -0.00182
24.95 -0.00157
25 -0.00141
25.05 -0.00095
25.1 -0.00059
25.15 -0.00069
25.2 -0.00052
25.25 -0.00079
25.3 -0.00119
25.35 -0.00137
25.4 -0.00178
25.45 -0.00182
25.5 -0.00187
25.55 -0.00171
25.6 -0.00141
25.65 -0.0011
25.7 -0.00086
25.75 -0.00102
25.8 -0.00126
25.85 -0.00166
25.9 -0.00203
25.95 -0.00247
26 -0.00218
26.05 -0.00195
26.1 -0.00118
26.15 -0.00049
26.2 0.00038
26.25 0.00109
26.3 0.00168
26.35 0.00188
26.4 0.00202
26.45 0.0018
26.5 0.00109
26.55 0.00056
26.6 0.00054
26.65 0.00007
26.7 -0.00037
26.75 -0.00016
26.8 0.00003
26.85 -0.00032
26.9 -0.00012
26.95 -0.0001
27 0.00004
27.05 0.00007
27.1 0.00057
27.15 0.00041
27.2 -0.00003
27.25 0.00013
27.3 0.00038
27.35 0.00024
27.4 -0.0002
27.45 0.00001
27.5 0.00041
27.55 0.00044
27.6 0.00091
27.65 0.00099
27.7 0.00125
27.75 0.00111
27.8 0.00112
27.85 0.00079
27.9 0.00024
27.95 -0.00054
28 -0.0007
28.05 -0.0012
28.1 -0.00167
28.15 -0.00132
28.2 -0.00075
28.25 0.00011
28.3 0.00093
28.35 0.0014
28.4 0.00123
28.45 0.00138
28.5 0.001
28.55 0.00066
28.6 0.0002
28.65 -0.00054
28.7 -0.00126
28.75 -0.0014
28.8 -0.0015
28.85 -0.00114
28.9 -0.00113
28.95 -0.00116
29 -0.00088
29.05 -0.00028
29.1 0.00008
29.15 -0.00001
29.2 0.0004
29.25 0.00115
29.3 0.00123
29.35 0.00099
29.4 0.00067
29.45 -0.00001
29.5 -0.00059
29.55 -0.0009
29.6 -0.00057
29.65 -0.00058
29.7 -0.00024
29.75 0.00043
29.8 0.00035
29.85 0.00013
29.9 -0.00032
29.95 -0.00097
30 -0.00098
30.05 -0.00138
30.1 -0.00104
30.15 -0.00049
30.2 0.0001
30.25 0.00022
30.3 0.00028
30.35 -0.00017
30.4 -0.00006
30.45 0.00028
30.5 0.00022
30.55 0.00021
30.6 -0.00013
30.65 -0.00045
30.7 -0.00101
30.75 -0.00169
30.8 -0.002
30.85 -0.00229
30.9 -0.00222
30.95 -0.00232
31 -0.00223
31.05 -0.00149
31.1 -0.00076
31.15 -0.0003
31.2 0.00013
31.25 0.00016
31.3 0.00069
31.35 0.00094
31.4 0.00107
31.45 0.00121
31.5 0.00142
31.55 0.00186
31.6 0.00176
31.65 0.0017
31.7 0.00135
31.75 0.00072
31.8 0.00027
31.85 -0.00003
31.9 0.00028
31.95 0.0004
32 0.00018
32.05 0.00006
32.1 -0.00006
32.15 -0.00034
32.2 -0.00042
32.25 -0.00043
32.3 -0.00063
32.35 -0.00097
32.4 -0.00096
32.45 -0.00042
32.5 0.00012
32.55 0.00085
32.6 0.00172
32.65 0.00226
32.7 0.00239
32.75 0.00254
32.8 0.00244
32.85 0.00245
32.9 0.00192
32.95 0.00095
33 0.00055
33.05 -0.00006
33.1 -0.00036
33.15 -0.00027
33.2 0.00026
33.25 0.00099
33.3 0.00119
33.35 0.00144
33.4 0.00107
33.45 0.0003
33.5 -0.00044
33.55 -0.00073
33.6 -0.00099
33.65 -0.00135
33.7 -0.00164
33.75 -0.00216
33.8 -0.00267
33.85 -0.00318
33.9 -0.00335
33.95 -0.00357
34 -0.00309
34.05 -0.00283
34.1 -0.00239
34.15 -0.00203
34.2 -0.00113
34.25 -0.00083
34.3 -0.00026
34.35 0.0004
34.4 0.00043
34.45 0.00077
34.5 0.00116
34.55 0.00143
34.6 0.0015
34.65 0.00118
34.7 0.00047
34.75 -0.00038
34.8 -0.00091
34.85 -0.0015
34.9 -0.0016
34.95 -0.00115
35 -0.00105
35.05 -0.00035
35.1 0.00033
35.15 0.00073
35.2 0.0007
35.25 0.00021
35.3 0.00038
35.35 0.00091
35.4 0.00107
35.45 0.00082
35.5 0.00032
35.55 0.00044
35.6 0.00071
35.65 0.00096
35.7 0.00094
35.75 0.00113
35.8 0.00117
35.85 0.00125
35.9 0.00117
35.95 0.00085
36 0.00079
36.05 0.00115
36.1 0.00119
36.15 0.00127
36.2 0.00167
36.25 0.00147
36.3 0.00101
36.35 0.00041
36.4 -0.00033
36.45 -0.00078
36.5 -0.00143
36.55 -0.00141
36.6 -0.00128
36.65 -0.00083
36.7 -0.00077
36.75 -0.00031
36.8 0.0004
36.85 0.00038
36.9 0.00087
36.95 0.00114
37 0.00085
37.05 0.00024
37.1 -0.00035
37.15 -0.00056
37.2 -0.00045
37.25 -0.00079
37.3 -0.00048
37.35 -0.00052
37.4 -0.00094
37.45 -0.00094
37.5 -0.00096
37.55 -0.00067
37.6 -0.00087
37.65 -0.0007
37.7 -0.00095
37.75 -0.00064
37.8 0.00008
37.85 0.00057
37.9 0.0009
37.95 0.00126
38 0.00118
38.05 0.00092
38.1 0.00085
38.15 0.00111
38.2 0.0017
38.25 0.00204
38.3 0.00195
38.35 0.00131
38.4 0.0009
38.45 0.00029
38.5 0.00028
38.55 -0.00015
38.6 -0.0008
38.65 -0.00075
38.7 -0.00103
38.75 -0.00093
38.8 -0.00097
38.85 -0.00101
38.9 -0.00048
38.95 0.00029
39 0.00064
39.05 0.00052
39.1 0.00055
39.15 0.00039
39.2 0.00025
39.25 -0.00003
39.3 -0.00035
39.35 -0.00001
39.4 0.00044
39.45 0.00021
39.5 0.00041
39.55 0.00082
39.6 0.00151
39.65 0.00133
39.7 0.00115
39.75 0.00052
39.8 -0.00024
39.85 -0.00034
39.9 0.00004
39.95 0.00006
40 0.00024
40.05 0.00059
40.1 0.00056
40.15 0.00004
40.2 -0.00037
40.25 -0.00105
40.3 -0.001
40.35 -0.00072
40.4 -0.00076
40.45 -0.00038
40.5 0.00035
40.55 0.00037
40.6 0.00027
40.65 -0.00001
40.7 0.00023
40.75 -0.00009
40.8 0.00008
40.85 0.00041
40.9 0.00095
40.95 0.00143
41 0.00143
41.05 0.00086
41.1 0.00051
41.15 0.00064
41.2 0.00104
41.25 0.00082
41.3 0.00073
41.35 0.0011
41.4 0.00151
41.45 0.00195
41.5 0.00247
41.55 0.00227
41.6 0.00238
41.65 0.00253
41.7 0.0027
41.75 0.00255
41.8 0.00234
41.85 0.00216
41.9 0.00147
41.95 0.00101
42 0.00028
42.05 -0.0006
42.1 -0.00136
42.15 -0.00143
42.2 -0.00129
42.25 -0.00075
42.3 -0.00069
42.35 -0.00085
42.4 -0.00044
42.45 -0.00002
42.5 0.00021
42.55 -0.00017
42.6 -0.00086
42.65 -0.00156
42.7 -0.00184
42.75 -0.00208
42.8 -0.00188
42.85 -0.00117
42.9 -0.00102
42.95 -0.00065
43 -0.00039
43.05 -0.0004
43.1 -0.00088
43.15 -0.00139
43.2 -0.00127
43.25 -0.00148
43.3 -0.00197
43.35 -0.00247
43.4 -0.00224
43.45 -0.00182
43.5 -0.00161
43.55 -0.00174
43.6 -0.00178
43.65 -0.00175
43.7 -0.0016
43.75 -0.00134
43.8 -0.00134
43.85 -0.00086
43.9 -0.00029
43.95 0.00047
44 0.00069
44.05 0.0005
44.1 -0.00014
44.15 -0.00024
44.2 -0.00032
44.25 -0.00072
44.3 -0.00117
44.35 -0.0009
44.4 -0.00087
44.45 -0.00065
44.5 -0.00052
44.55 -0.00046
44.6 -0.00069
44.65 -0.00091
44.7 -0.00142
44.75 -0.00147
44.8 -0.00109
44.85 -0.00092
44.9 -0.00061
44.95 -0.00013
45 -0.00016
45.05 0.00017
45.1 0.00039
45.15 0.00101
45.2 0.00095
45.25 0.00119
45.3 0.00139
45.35 0.00186
45.4 0.00179
45.45 0.00142
45.5 0.0006
45.55 0.00038
45.6 0.00042
45.65 0.00043
45.7 0.00083
45.75 0.00094
45.8 0.00052
45.85 0.00035
45.9 -0
45.95 0.00008
46 0.00037
46.05 0.00055
46.1 0.00041
46.15 0.0006
46.2 0.00039
46.25 -0.00024
46.3 -0.00034
46.35 -0.00086
46.4 -0.00116
46.45 -0.00171
46.5 -0.00157
46.55 -0.00093
46.6 -0.00068
46.65 -0.00061
46.7 -0.0002
46.75 0.00052
46.8 0.00087
46.85 0.00054
46.9 0.00006
46.95 -0.00031
47 -0.00062
47.05 -0.00111
47.1 -0.00112
47.15 -0.0009
47.2 -0.0004
47.25 0.00015
47.3 0.00042
47.35 0.00015
47.4 -0.00046
47.45 -0.00114
47.5 -0.00177
47.55 -0.0024
47.6 -0.00216
47.65 -0.00206
47.7 -0.00202
47.75 -0.00228
47.8 -0.00269
47.85 -0.00244
47.9 -0.00248
47.95 -0.00262
48 -0.00207
48.05 -0.00137
48.1 -0.00094
48.15 -0.00051
48.2 -0.00013
48.25 -0.00019
48.3 -0.00019
48.35 0.00036
48.4 0.00059
48.45 0.00045
48.5 0.00025
48.55 0.00009
48.6 -0.00043
48.65 -0.00031
48.7 0.00006
48.75 0.00015
48.8 -0.00018
48.85 -0.00081
48.9 -0.00159
48.95 -0.00158
49 -0.00144
49.05 -0.0014
49.1 -0.00128
49.15 -0.00114
49.2 -0.00132
49.25 -0.0013
49.3 -0.00124
49.35 -0.00082
49.4 -0.00088
49.45 -0.00069
49.5 -0.00083
49.55 -0.00039
49.6 -0.00038
49.65 0.0002
49.7 0.00112
49.75 0.00125
49.8 0.00176
49.85 0.00188
49.9 0.00202
49.95 0.00178
50 0.00123
50.05 0.00044
50.1 0.00013
50.15 -0.00035
50.2 -0.00097
50.25 -0.00116
50.3 -0.00105
50.35 -0.00091
50.4 -0.00033
50.45 0.00011
50.5 0.00078
50.55 0.00085
50.6 0.00049
50.65 0.00038
50.7 0.0004
50.75 0.00091
50.8 0.00165
50.85 0.00176
50.9 0.00212
50.95 0.00214
51 0.00223
51.05 0.00168
51.1 0.00171
51.15 0.00173
51.2 0.0019
51.25 0.00196
51.3 0.00156
51.35 0.00077
51.4 0.00053
51.45 0.00075
51.5 0.00063
51.55 0.00024
51.6 -0.00046
51.65 -0.00077
51.7 -0.00131
51.75 -0.00135
51.8 -0.00127
51.85 -0.00125
51.9 -0.00119
51.95 -0.00084
52 -0.00015
52.05 0.00025
52.1 0.00065
52.15 0.00132
52.2 0.00195
52.25 0.0026
52.3 0.00315
52.35 0.00337
52.4 0.00346
52.45 0.00331
52.5 0.00305
52.55 0.00228
52.6 0.00202
52.65 0.00208
52.7 0.00191
52.75 0.00158
52.8 0.00106
52.85 0.00095
52.9 0.00062
52.95 0.00022
53 -0.00051
53.05 -0.00051
53.1 -0.00091
53.15 -0.0009
53.2 -0.00067
53.25 -0.00006
53.3 0.00041
53.35 0.00102
53.4 0.00094
53.45 0.00102
53.5 0.00094
53.55 0.00046
53.6 0.00016
53.65 -0.00009
53.7 0.00006
53.75 -0.00012
53.8 -0.00047
53.85 -0.00076
53.9 -0.00053
53.95 -0.00037
54 -0.00003
54.05 -0.00014
54.1 -0.00054
54.15 -0.00104
54.2 -0.00123
54.25 -0.00135
54.3 -0.00162
54.35 -0.00192
54.4 -0.00243
54.45 -0.00239
54.5 -0.00223
54.55 -0.00154
54.6 -0.00095
54.65 -0.00081
54.7 -0.0011
54.75 -0.00097
54.8 -0.00075
54.85 -0.00081
54.9 -0.00103
54.95 -0.00138
55 -0.00157
55.05 -0.00148
55.1 -0.00103
55.15 -0.00039
55.2 0.00002
55.25 0.0006
55.3 0.00126
55.35 0.00187
55.4 0.00173
55.45 0.00156
55.5 0.00151
55.55 0.00126
55.6 0.00146
55.65 0.00146
55.7 0.00171
55.75 0.00159
55.8 0.0013
55.85 0.00131
55.9 0.0015
55.95 0.00154
56 0.00178
56.05 0.00163
56.1 0.0011
56.15 0.00066
56.2 0.00069
56.25 0.00015
56.3 -0.0007
56.35 -0.00148
56.4 -0.00213
56.45 -0.0028
56.5 -0.00309
56.55 -0.00321
56.6 -0.0032
56.65 -0.00334
56.7 -0.00269
56.75 -0.00191
56.8 -0.00095
56.85 -0.00014
56.9 0.00054
56.95 0.00081
57 0.0007
57.05 0.00083
57.1 0.00125
57.15 0.0011
57.2 0.00057
57.25 0.00057
57.3 0.00033
57.35 -0.00026
57.4 -0.0008
57.45 -0.00073
57.5 -0.00054
57.55 -0.00011
57.6 0.00041
57.65 0.00091
57.7 0.00083
57.75 0.00041
57.8 -0.00024
57.85 -0.00024
57.9 -0.00011
57.95 -0.00041
58 -0.00013
58.05 -0.00011
58.1 -0.00026
58.15 0.00016
58.2 0.00039
58.25 0.00014
58.3 0.00016
58.35 -0.00002
58.4 -0.00024
58.45 -0.00012
58.5 0.00024
58.55 0.0007
58.6 0.0007
58.65 0.00059
58.7 0.00031
58.75 0
58.8 0.00022
58.85 0.00008
58.9 0.00025
58.95 0.0001
59 -0.0002
59.05 -0.00005
59.1 -0.00014
59.15 0.00002
59.2 -0.00024
59.25 -0.00077
59.3 -0.00126
59.35 -0.00153
59.4 -0.00169
59.45 -0.002
59.5 -0.0023
59.55 -0.00219
59.6 -0.0022
59.65 -0.00215
59.7 -0.00154
59.75 -0.00112
59.8 -0.00033
59.85 0.00048
59.9 0.00138
59.95 0.00202
60 0.00256
60.05 0.00292
60.1 0.00259
60.15 0.00227
60.2 0.00172
60.25 0.00141
60.3 0.00126
60.35 0.00085
60.4 0.00016
60.45 0
60.5 -0.00012
60.55 0.0003
60.6 0.00053
60.65 0.00089
60.7 0.00081
60.75 0.00057
60.8 0.00072
60.85 0.00073
60.9 0.00058
60.95 0.00087
61 0.00098
61.05 0.0005
61.1 0.00015
61.15 0.00018
61.2 -0
61.25 -0.00023
61.3 -0.00026
61.35 -0.00023
61.4 -0.00028
61.45 0.00018
61.5 0.00049
61.55 0.00047
61.6 0.00056
61.65 0.00099
61.7 0.00142
61.75 0.00186
61.8 0.00166
61.85 0.00131
61.9 0.00087
61.95 0.00099
62 0.00132
62.05 0.00188
62.1 0.00193
62.15 0.0019
62.2 0.00193
62.25 0.00201
62.3 0.00192
62.35 0.00217
62.4 0.00245
62.45 0.00272
62.5 0.00264
62.55 0.00227
62.6 0.00188
62.65 0.00185
62.7 0.0021
62.75 0.00192
62.8 0.0013
62.85 0.00048
62.9 -0.00063
62.95 -0.00182
63 -0.00298
63.05 -0.00309
63.1 -0.00298
63.15 -0.00284
63.2 -0.00263
63.25 -0.00277
63.3 -0.00235
63.35 -0.00236
63.4 -0.00211
63.45 -0.00153
63.5 -0.00132
63.55 -0.00067
63.6 0.00026
63.65 0.00116
63.7 0.00204
63.75 0.00216
63.8 0.00234
63.85 0.00246
63.9 0.00244
63.95 0.00186
64 0.00149
64.05 0.00103
64.1 0.00094
64.15 0.00026
64.2 -0.00059
64.25 -0.00089
64.3 -0.0007
64.35 -0.00007
64.4 0.00017
64.45 -0.00016
64.5 -0.00082
64.55 -0.00168
64.6 -0.00206
64.65 -0.00261
64.7 -0.00253
64.75 -0.00272
64.8 -0.00293
64.85 -0.0025
64.9 -0.00154
64.95 -0.00069
65 -0.00011
65.05 0.00051
65.1 0.00081
65.15 0.00097
65.2 0.00115
65.25 0.00121
65.3 0.00093
65.35 0.00036
65.4 0.00024
65.45 -0.00006
65.5 -0.00054
65.55 -0.00086
65.6 -0.00149
65.65 -0.00206
65.7 -0.00261
65.75 -0.00293
65.8 -0.00245
65.85 -0.00169
65.9 -0.00141
65.95 -0.00146
66 -0.00138
66.05 -0.00102
66.1 -0.00119
66.15 -0.0012
66.2 -0.00064
66.25 -0
66.3 0.00086
66.35 0.00104
66.4 0.00142
66.45 0.00203
66.5 0.00209
66.55 0.00176
66.6 0.00131
66.65 0.00129
66.7 0.00142
66.75 0.00111
66.8 0.00106
66.85 0.0005
66.9 0.00041
66.95 0.00069
67 0.00089
67.05 0.00051
67.1 -0.00008
67.15 -0.00085
67.2 -0.0015
67.25 -0.00203
67.3 -0.0019
67.35 -0.00174
67.4 -0.00121
67.45 -0.00066
67.5 -0.00056
67.55 -0.00081
67.6 -0.00077
67.65 -0.00043
67.7 -0.00029
67.75 -0.00009
67.8 -0.00032
67.85 -0.0009
67.9 -0.00079
67.95 -0.00088
68 -0.00101
68.05 -0.00108
68.1 -0.00092
68.15 -0.00041
68.2 0.00026
68.25 0.00083
68.3 0.00076
68.35 0.0007
68.4 0.00038
68.45 -0.00005
68.5 -0.00033
68.55 -0.00005
68.6 0.00053
68.65 0.00125
68.7 0.00118
68.75 0.00063
68.8 0.00047
68.85 0.00049
68.9 0.00039
68.95 0.00038
69 0.00061
69.05 0.00068
69.1 0.00026
69.15 0.00009
69.2 -0.00008
69.25 -0.00002
69.3 -0.00029
69.35 -0.00044
69.4 -0.00025
69.45 0.0002
69.5 0.0006
69.55 0.00053
69.6 0.00051
69.65 0.00063
69.7 0.00106
69.75 0.00101
69.8 0.00136
69.85 0.00153
69.9 0.00122
69.95 0.00099
70 0.00096
70.05 0.00055
70.1 -0.0002
70.15 -0.00067
70.2 -0.00127
70.25 -0.00144
70.3 -0.00148
70.35 -0.00163
70.4 -0.00131
70.45 -0.00091
70.5 -0.00083
70.55 -0.00075
70.6 -0.00046
70.65 -0.00015
70.7 0.00017
70.75 0.00069
70.8 0.00135
70.85 0.00134
70.9 0.00141
70.95 0.00112
71 0.00109
71.05 0.0014
71.1 0.00154
71.15 0.00127
71.2 0.0005
71.25 0.00017
71.3 -0.00009
71.35 -0.00077
71.4 -0.00158
71.45 -0.00241
71.5 -0.00242
71.55 -0.00201
71.6 -0.00116
71.65 -0.00053
71.7 -0.0005
71.75 -0.00005
71.8 -0.00025
71.85 -0.00096
71.9 -0.00115
71.95 -0.00188
72 -0.00263
72.05 -0.00302
72.1 -0.00332
72.15 -0.00374
72.2 -0.00417
72.25 -0.00536
72.3 -0.00665
72.35 -0.00766
72.4 -0.00847
72.45 -0.00937
72.5 -0.01055
72.55 -0.01267
72.6 -0.01537
72.65 -0.01812
72.7 -0.02117
72.75 -0.02537
72.8 -0.03052
72.85 -0.03578
72.9 -0.04118
72.95 -0.04725
73 -0.05405
73.05 -0.06199
73.1 -0.07034
73.15 -0.07903
73.2 -0.08796
73.25 -0.09768
73.3 -0.10799
73.35 -0.11852
73.4 -0.12971
73.45 -0.14148
73.5 -0.15282
73.55 -0.16377
73.6 -0.1745
73.65 -0.18515
73.7 -0.19564
73.75 -0.20564
73.8 -0.21566
73.85 -0.22484
73.9 -0.23321
73.95 -0.24084
74 -0.24673
74.05 -0.25146
74.1 -0.2545
74.15 -0.25613
74.2 -0.25598
74.25 -0.25427
74.3 -0.25165
74.35 -0.24803
74.4 -0.2432
74.45 -0.23714
74.5 -0.23031
74.55 -0.22196
74.6 -0.21328
74.65 -0.20415
74.7 -0.1941
74.75 -0.18393
74.8 -0.17317
74.85 -0.16246
74.9 -0.15151
74.95 -0.14098
75 -0.13
75.05 -0.1192
75.1 -0.10856
75.15 -0.09744
75.2 -0.08582
75.25 -0.0739
75.3 -0.06175
75.35 -0.05001
75.4 -0.03804
75.45 -0.02566
75.5 -0.01391
75.55 -0.0022
75.6 0.01031
75.65 0.02317
75.7 0.03604
75.75 0.04992
75.8 0.06419
75.85 0.07885
75.9 0.09376
75.95 0.10851
76 0.12285
76.05 0.1373
76.1 0.15159
76.15 0.1652
76.2 0.17842
76.25 0.19093
76.3 0.20232
76.35 0.21309
76.4 0.22346
76.45 0.23304
76.5 0.24111
76.55 0.24877
76.6 0.25519
76.65 0.26022
76.7 0.2645
76.75 0.26801
76.8 0.26996
76.85 0.27149
76.9 0.27197
76.95 0.27142
77 0.27008
77.05 0.2682
77.1 0.26581
77.15 0.26232
77.2 0.2585
77.25 0.25395
77.3 0.24862
77.35 0.24314
77.4 0.23776
77.45 0.23172
77.5 0.22537
77.55 0.21883
77.6 0.21211
77.65 0.20527
77.7 0.19927
77.75 0.19379
77.8 0.18781
77.85 0.1819
77.9 0.17645
77.95 0.17127
78 0.16636
78.05 0.16066
78.1 0.15474
78.15 0.14885
78.2 0.14304
78.25 0.13761
78.3 0.13234
78.35 0.12684
78.4 0.12179
78.45 0.11668
78.5 0.11158
78.55 0.10677
78.6 0.10207
78.65 0.09737
78.7 0.09313
78.75 0.08911
78.8 0.08447
78.85 0.07992
78.9 0.07497
78.95 0.07023
79 0.06599
79.05 0.06177
79.1 0.05757
79.15 0.05414
79.2 0.05101
79.25 0.04756
79.3 0.04368
79.35 0.03969
79.4 0.0358
79.45 0.03192
79.5 0.02834
79.55 0.0248
79.6 0.02143
79.65 0.01809
79.7 0.01574
79.75 0.01327
79.8 0.01097
79.85 0.0092
79.9 0.00682
79.95 0.00415
80 0.00174
80.05 -0.0001
80.1 -0.00242
80.15 -0.00453
80.2 -0.00649
80.25 -0.00788
80.3 -0.00927
80.35 -0.01063
80.4 -0.01254
80.45 -0.01441
80.5 -0.01623
80.55 -0.01775
80.6 -0.019
80.65 -0.02089
80.7 -0.02265
80.75 -0.02445
80.8 -0.02577
80.85 -0.02697
80.9 -0.02841
80.95 -0.02981
81 -0.03101
81.05 -0.03198
81.1 -0.0328
81.15 -0.03304
81.2 -0.03335
81.25 -0.03401
81.3 -0.03438
81.35 -0.03513
81.4 -0.03539
81.45 -0.03564
81.5 -0.03642
81.55 -0.03755
81.6 -0.03821
81.65 -0.03866
81.7 -0.03865
81.75 -0.03912
81.8 -0.03917
81.85 -0.03902
81.9 -0.03915
81.95 -0.03903
82 -0.03872
82.05 -0.03812
82.1 -0.03799
82.15 -0.03777
82.2 -0.0379
82.25 -0.03748
82.3 -0.03672
82.35 -0.03654
82.4 -0.03668
82.45 -0.0372
82.5 -0.03762
82.55 -0.03808
82.6 -0.03843
82.65 -0.03837
82.7 -0.03769
82.75 -0.03735
82.8 -0.03632
82.85 -0.0352
82.9 -0.03448
82.95 -0.03379
83 -0.03292
83.05 -0.0326
83.1 -0.03229
83.15 -0.03169
83.2 -0.03096
83.25 -0.0306
83.3 -0.0304
83.35 -0.02987
83.4 -0.02946
83.45 -0.0289
83.5 -0.02848
83.55 -0.02819
83.6 -0.02837
83.65 -0.02825
83.7 -0.02844
83.75 -0.0281
83.8 -0.02814
83.85 -0.02805
83.9 -0.02752
83.95 -0.02646
84 -0.02578
84.05 -0.02563
84.1 -0.02562
84.15 -0.02514
84.2 -0.02507
84.25 -0.02458
84.3 -0.02378
84.35 -0.02257
84.4 -0.02169
84.45 -0.02148
84.5 -0.02153
84.55 -0.02158
84.6 -0.02183
84.65 -0.02215
84.7 -0.02223
84.75 -0.02204
84.8 -0.02196
84.85 -0.02171
84.9 -0.02139
84.95 -0.02074
85 -0.01965
85.05 -0.01902
85.1 -0.01888
85.15 -0.01871
85.2 -0.01842
85.25 -0.01788
85.3 -0.01777
85.35 -0.01715
85.4 -0.01642
85.45 -0.01575
85.5 -0.01474
85.55 -0.01424
85.6 -0.01349
85.65 -0.01269
85.7 -0.01195
85.75 -0.01121
85.8 -0.01121
85.85 -0.01164
85.9 -0.0118
85.95 -0.01148
86 -0.01129
86.05 -0.01095
86.1 -0.01066
86.15 -0.01054
86.2 -0.01034
86.25 -0.01009
86.3 -0.01025
86.35 -0.01037
86.4 -0.01036
86.45 -0.01044
86.5 -0.01033
86.55 -0.01078
86.6 -0.01097
86.65 -0.01063
86.7 -0.01012
86.75 -0.00978
86.8 -0.00928
86.85 -0.0094
86.9 -0.00968
86.95 -0.01032
87 -0.01027
87.05 -0.00996
87.1 -0.01018
87.15 -0.00978
87.2 -0.00953
87.25 -0.00889
87.3 -0.00869
87.35 -0.00888
87.4 -0.00853
87.45 -0.00873
87.5 -0.00838
87.55 -0.00831
87.6 -0.00864
87.65 -0.00834
87.7 -0.00773
87.75 -0.00685
87.8 -0.00599
87.85 -0.00601
87.9 -0.00592
87.95 -0.00561
88 -0.0055
88.05 -0.0052
88.1 -0.00563
88.15 -0.00627
88.2 -0.00715
88.25 -0.00769
88.3 -0.00812
88.35 -0.00785
88.4 -0.00805
88.45 -0.00848
88.5 -0.00865
88.55 -0.00835
88.6 -0.00801
88.65 -0.00733
88.7 -0.00726
88.75 -0.00667
88.8 -0.00657
88.85 -0.00654
88.9 -0.00619
88.95 -0.00591
89 -0.00591
89.05 -0.00541
89.1 -0.00491
89.15 -0.00446
89.2 -0.00471
89.25 -0.00502
89.3 -0.00568
89.35 -0.00586
89.4 -0.00604
89.45 -0.0057
89.5 -0.00561
89.55 -0.00548
89.6 -0.00502
89.65 -0.00472
89.7 -0.00456
89.75 -0.00462
89.8 -0.00509
89.85 -0.00479
89.9 -0.00406
89.95 -0.00384
90 -0.00354
90.05 -0.00374
90.1 -0.0036
90.15 -0.00383
90.2 -0.00375
90.25 -0.00323
90.3 -0.00327
90.35 -0.00316
90.4 -0.00348
90.45 -0.00353
90.5 -0.00401
90.55 -0.00393
90.6 -0.00417
90.65 -0.00428
90.7 -0.00401
90.75 -0.00364
90.8 -0.00317
90.85 -0.00297
90.9 -0.0028
90.95 -0.00278
91 -0.00224
91.05 -0.00217
91.1 -0.00183
91.15 -0.00155
91.2 -0.00133
91.25 -0.00084
91.3 -0.00096
91.35 -0.0012
91.4 -0.00099
91.45 -0.00081
91.5 -0.00055
91.55 -0.00064
91.6 -0.00059
91.65 -0.00027
91.7 -0.00023
91.75 -0.00058
91.8 -0.00088
91.85 -0.00159
91.9 -0.00245
91.95 -0.00337
92 -0.00388
92.05 -0.00405
92.1 -0.00365
92.15 -0.00339
92.2 -0.0029
92.25 -0.00253
92.3 -0.0024
92.35 -0.00179
92.4 -0.00163
92.45 -0.00154
92.5 -0.00168
92.55 -0.00141
92.6 -0.00151
92.65 -0.00164
92.7 -0.00182
92.75 -0.00209
92.8 -0.00233
92.85 -0.00219
92.9 -0.00197
92.95 -0.00138
93 -0.00124
93.05 -0.00073
93.1 -0.00092
93.15 -0.00154
93.2 -0.00155
93.25 -0.00162
93.3 -0.00154
93.35 -0.00129
93.4 -0.00072
93.45 -0.00015
93.5 0.0006
93.55 0.0005
93.6 0.00052
93.65 0.00015
93.7 -0.00061
93.75 -0.00081
93.8 -0.00061
93.85 -0.00025
93.9 -0.0006
93.95 -0.00065
94 -0.0006
94.05 -0.00065
94.1 -0.00063
94.15 -0.0008
94.2 -0.00048
94.25 -0.00031
94.3 -0.00017
94.35 -0.00029
94.4 -0.00053
94.45 -0.0008
94.5 -0.00096
94.55 -0.00089
94.6 -0.0011
94.65 -0.00108
94.7 -0.00075
94.75 -0.00073
94.8 -0.0008
94.85 -0.00095
94.9 -0.00057
94.95 -0.00039
95 0.00003
95.05 0.00066
95.1 0.00112
95.15 0.00167
95.2 0.00162
95.25 0.0011
95.3 0.00057
95.35 0.00043
95.4 0.0007
95.45 0.00111
95.5 0.00145
95.55 0.00145
95.6 0.00166
95.65 0.00154
95.7 0.00139
95.75 0.00097
95.8 0.00052
95.85 0.00008
95.9 -0.00074
95.95 -0.00125
96 -0.00175
96.05 -0.00237
96.1 -0.00302
96.15 -0.00302
96.2 -0.00265
96.25 -0.00234
96.3 -0.00172
96.35 -0.00173
96.4 -0.00184
96.45 -0.00173
96.5 -0.00203
96.55 -0.00219
96.6 -0.00206
96.65 -0.00177
96.7 -0.00126
96.75 -0.00111
96.8 -0.00077
96.85 -0.0007
96.9 -0.00088
96.95 -0.00066
97 -0.00101
97.05 -0.00161
97.1 -0.00163
97.15 -0.00181
97.2 -0.00221
97.25 -0.00209
97.3 -0.0023
97.35 -0.00264
97.4 -0.003
97.45 -0.00339
97.5 -0.00358
97.55 -0.00371
97.6 -0.00345
97.65 -0.00281
97.7 -0.0027
97.75 -0.00243
97.8 -0.00224
97.85 -0.00175
97.9 -0.0013
97.95 -0.00058
98 0.00007
98.05 0.00063
98.1 0.00111
98.15 0.00176
98.2 0.00201
98.25 0.00158
98.3 0.00092
98.35 0.00026
98.4 -0.00041
98.45 -0.00107
98.5 -0.00139
98.55 -0.002
98.6 -0.0019
98.65 -0.00121
98.7 -0.00021
98.75 0.0002
98.8 0.00024
98.85 -0.0001
98.9 -0.00069
98.95 -0.00104
99 -0.00091
99.05 -0.00116
99.1 -0.00089
99.15 -0.00017
99.2 -0.00007
99.25 -0.0002
99.3 0.00009
99.35 0.00008
99.4 0.00047
99.45 0.00047
99.5 0.00045
99.55 0.00079
99.6 0.00129
99.65 0.00157
99.7 0.00205
99.75 0.00239
99.8 0.00187
99.85 0.00092
99.9 0.00059
99.95 -0.00002
