0 0
0.05 0.00084
0.1 0.00245
0.15 0.00415
0.2 0.00551
0.25 0.00698
0.3 0.00736
0.35 0.00735
0.4 0.00689
0.45 0.00709
0.5 0.00769
0.55 0.00825
0.6 0.00877
0.65 0.00846
0.7 0.00853
0.75 0.00782
0.8 0.00675
0.85 0.00585
0.9 0.00516
0.95 0.00525
1 0.00519
1.05 0.00474
1.1 0.00476
1.15 0.005
1.2 0.00559
1.25 0.00555
1.3 0.00593
1.35 0.00619
1.4 0.00564
1.45 0.00581
1.5 0.00576
1.55 0.00619
1.6 0.00675
1.65 0.00661
1.7 0.00643
1.75 0.00673
1.8 0.00613
1.85 0.00558
1.9 0.00557
1.95 0.00546
2 0.00573
2.05 0.00614
2.1 0.00569
2.15 0.00499
2.2 0.00407
2.25 0.004
2.3 0.00336
2.35 0.00247
2.4 0.00186
2.45 0.00145
2.5 0.00073
2.55 0.0006
2.6 0.00014
2.65 0.00058
2.7 0.00165
2.75 0.00288
2.8 0.00426
2.85 0.00499
2.9 0.00589
2.95 0.00658
3 0.00616
3.05 0.0061
3.1 0.00599
3.15 0.00559
3.2 0.00548
3.25 0.00562
3.3 0.00492
3.35 0.00467
3.4 0.00382
3.45 0.00333
3.5 0.00327
3.55 0.00357
3.6 0.00422
3.65 0.00396
3.7 0.00356
3.75 0.00338
3.8 0.00265
3.85 0.00166
3.9 0.00052
3.95 0.00017
4 0.00042
4.05 0.00089
4.1 0.00116
4.15 0.00197
4.2 0.00196
4.25 0.00181
4.3 0.00149
4.35 0.00116
4.4 0.0012
4.45 0.00097
4.5 0.00056
4.55 0.00058
4.6 0.00038
4.65 -0.00017
4.7 -0.00071
4.75 -0.00058
4.8 -0.00016
4.85 0.00037
4.9 0.00122
4.95 0.00163
5 0.00168
5.05 0.00127
5.1 0.00091
5.15 0.00018
5.2 0
5.25 -0.00053
5.3 -0.00013
5.35 0.0006
5.4 0.00062
5.45 0.00059
5.5 0.00006
5.55 -0.00058
5.6 -0.00024
5.65 -0.00046
5.7 0.00014
5.75 0.00043
5.8 0.00074
5.85 0.00045
5.9 0.00083
5.95 0.00056
6 0.0001
6.05 -0.0001
6.1 -0.00039
6.15 -0.00029
6.2 -0.00007
6.25 -0.00006
6.3 0.00016
6.35 -0.00022
6.4 -0.00047
6.45 -0.00022
6.5 0.00004
6.55 0.00038
6.6 0.00027
6.65 0.00031
6.7 -0.00011
6.75 0.00027
6.8 0.00062
6.85 0.00126
6.9 0.00165
6.95 0.00162
7 0.0019
7.05 0.00237
7.1 0.00209
7.15 0.00162
7.2 0.00138
7.25 0.0018
7.3 0.00146
7.35 0.00093
7.4 0.00019
7.45 0.00037
7.5 0.00025
7.55 -0.00029
7.6 -0.0005
7.65 -0.00104
7.7 -0.00097
7.75 -0.0005
7.8 -0.00022
7.85 0.00026
7.9 0.0003
7.95 0.00094
8 0.00182
8.05 0.00228
8.1 0.00298
8.15 0.00264
8.2 0.00201
8.25 0.00205
8.3 0.00234
8.35 0.00297
8.4 0.00299
8.45 0.00301
8.5 0.0025
8.55 0.00169
8.6 0.00109
8.65 0.00048
8.7 0.00054
8.75 0.00026
8.8 -0.00047
8.85 -0.00147
8.9 -0.00239
8.95 -0.00322
9 -0.00311
9.05 -0.00241
9.1 -0.00211
9.15 -0.00181
9.2 -0.00153
9.25 -0.00159
9.3 -0.00158
9.35 -0.00098
9.4 -0.00046
9.45 -0.00056
9.5 -0.00035
9.55 0.00032
9.6 0.00046
9.65 0.00115
9.7 0.00117
9.75 0.00159
9.8 0.00174
9.85 0.00193
9.9 0.00193
9.95 0.00151
10 0.00163
10.05 0.00217
10.1 0.00269
10.15 0.00303
10.2 0.00297
10.25 0.0026
10.3 0.00242
10.35 0.00241
10.4 0.00256
10.45 0.00191
10.5 0.00173
10.55 0.00141
10.6 0.00113
10.65 0.00077
10.7 0.00019
10.75 -0.0005
10.8 -0.00142
10.85 -0.00196
10.9 -0.00174
10.95 -0.00204
11 -0.00224
11.05 -0.00174
11.1 -0.00151
11.15 -0.0008
11.2 -0.00009
11.25 0.00011
11.3 0.00072
11.35 0.00067
11.4 0.00056
11.45 0.00041
11.5 0.00005
11.55 -0.00015
11.6 0.00036
11.65 0.00108
11.7 0.00202
11.75 0.00282
11.8 0.00354
11.85 0.00413
11.9 0.00427
11.95 0.00379
12 0.00352
12.05 0.00289
12.1 0.00205
12.15 0.00075
12.2 0.00001
12.25 -0.0005
12.3 -0.00125
12.35 -0.00132
12.4 -0.00076
12.45 -0.00021
12.5 0.00061
12.55 0.00073
12.6 0.00016
12.65 0.0002
12.7 -0.00018
12.75 -0.00053
12.8 -0.00074
12.85 -0.00047
12.9 -0.00029
12.95 -0.00052
13 -0.00088
13.05 -0.00102
13.1 -0.00119
13.15 -0.00111
13.2 -0.00146
13.25 -0.00146
13.3 -0.00137
13.35 -0.00149
13.4 -0.00138
13.45 -0.00081
13.5 -0.00085
13.55 -0.00077
13.6 -0.00099
13.65 -0.001
13.7 -0.00129
13.75 -0.00087
13.8 -0.00108
13.85 -0.00108
13.9 -0.00072
13.95 -0.00088
14 -0.00088
14.05 -0.00086
14.1 -0.00033
14.15 -0.00035
14.2 -0.00019
14.25 0.00019
14.3 0.00024
14.35 0.00011
14.4 0.00024
14.45 -0.00027
14.5 -0.0006
14.55 -0.001
14.6 -0.00087
14.65 -0.00077
14.7 -0.00027
14.75 -0.0005
14.8 -0.00026
14.85 -0.00056
14.9 -0.00102
14.95 -0.00099
15 -0.00049
15.05 -0.0001
15.1 0.00045
15.15 0.00039
15.2 0.00015
15.25 0.00019
15.3 0.0008
15.35 0.00131
15.4 0.00183
15.45 0.00236
15.5 0.00282
15.55 0.00315
15.6 0.0036
15.65 0.00368
15.7 0.00348
15.75 0.00306
15.8 0.00237
15.85 0.00135
15.9 0.00082
15.95 0.00079
16 0.0003
16.05 -0.00026
16.1 -0.00017
16.15 0.00013
16.2 0.00085
16.25 0.00129
16.3 0.00168
16.35 0.00232
16.4 0.00262
16.45 0.00255
16.5 0.00197
16.55 0.00122
16.6 0.00049
16.65 -0.00035
16.7 -0.00128
16.75 -0.00216
16.8 -0.00218
16.85 -0.00158
16.9 -0.00097
16.95 -0.00107
17 -0.00056
17.05 -0.00079
17.1 -0.00067
17.15 -0.00032
17.2 -0.00062
17.25 -0.00129
17.3 -0.00125
17.35 -0.00148
17.4 -0.00142
17.45 -0.00176
17.5 -0.00213
17.55 -0.0022
17.6 -0.00159
17.65 -0.00148
17.7 -0.00181
17.75 -0.00131
17.8 -0.00071
17.85 -0.00031
17.9 0.00032
17.95 0.00036
18 0.00024
18.05 -0.00033
18.1 -0.00014
18.15 -0.00017
18.2 0.00022
18.25 -0.00014
18.3 -0.0006
18.35 -0.00078
18.4 -0.00141
18.45 -0.00193
18.5 -0.00185
18.55 -0.00105
18.6 -0.00015
18.65 0.0009
18.7 0.00165
18.75 0.00226
18.8 0.00269
18.85 0.00331
18.9 0.00307
18.95 0.00248
19 0.00173
19.05 0.00066
19.1 -0.00008
19.15 -0.0008
19.2 -0.00097
19.25 -0.00106
19.3 -0.00061
19.35 -0.0006
19.4 -0.00101
19.45 -0.00077
19.5 0
19.55 0.00086
19.6 0.00136
19.65 0.00191
19.7 0.00158
19.75 0.00172
19.8 0.00211
19.85 0.0026
19.9 0.00212
19.95 0.0014
20 0.00127
20.05 0.00145
20.1 0.0011
20.15 0.00062
20.2 -0.00028
20.25 -0.00131
20.3 -0.00158
20.35 -0.00115
20.4 -0.00112
20.45 -0.00051
20.5 -0.00059
20.55 -0.0002
20.6 0.00054
20.65 0.00062
20.7 0.00103
20.75 0.00083
20.8 0.0009
20.85 0.00044
20.9 0.00023
20.95 -0.00037
21 -0.00027
21.05 -0.0002
21.1 -0.00045
21.15 -0.00078
21.2 -0.00085
21.25 -0.00121
21.3 -0.001
21.35 -0.00054
21.4 -0.00027
21.45 0.0004
21.5 0.00096
21.55 0.00097
21.6 0.0012
21.65 0.00122
21.7 0.00105
21.75 0.00113
21.8 0.00133
21.85 0.00122
21.9 0.00135
21.95 0.00093
22 0.00012
22.05 -0.00033
22.1 -0.00038
22.15 -0.00017
22.2 0.00036
22.25 0.00122
22.3 0.00195
22.35 0.00186
22.4 0.00116
22.45 0.00037
22.5 0.00037
22.55 0.00053
22.6 0.00029
22.65 0.00033
22.7 -0.0002
22.75 -0.00101
22.8 -0.00181
22.85 -0.00199
22.9 -0.00247
22.95 -0.00206
23 -0.00149
23.05 -0.00116
23.1 -0.00122
23.15 -0.00105
23.2 -0.00073
23.25 -0.001
23.3 -0.00171
23.35 -0.0019
23.4 -0.00173
23.45 -0.0018
23.5 -0.00127
23.55 -0.0005
23.6 -0.00015
23.65 0.0003
23.7 0.00076
23.75 0.00089
23.8 0.00144
23.85 0.00148
23.9 0.00156
23.95 0.0018
24 0.00191
24.05 0.0013
24.1 0.00072
24.15 0.00017
24.2 -0.0001
24.25 -0.00007
24.3 0.00008
24.35 -0.00025
24.4 -0.0006
24.45 -0.00131
24.5 -0.00211
24.55 -0.00288
24.6 -0.0027
24.65 -0.00285
24.7 -0.00284
24.75 -0.00247
24.8 -0.00196
24.85 -0.00118
24.9 -0.00078
24.95 -0.00051
25 -0.00014
25.05 -0.00046
25.1 -0.0005
25.15 -0.00007
25.2 -0.00026
25.25 -0.00002
25.3 0.00044
25.35 0.00099
25.4 0.00072
25.45 0.00087
25.5 0.00077
25.55 0.00035
25.6 0.00037
25.65 -0.00009
25.7 -0.00025
25.75 -0.0009
25.8 -0.0017
25.85 -0.00211
25.9 -0.00229
25.95 -0.00204
26 -0.0016
26.05 -0.00171
26.1 -0.00157
26.15 -0.0012
26.2 -0.00072
26.25 0.00017
26.3 0.00062
26.35 0.00047
26.4 0.00029
26.45 -0.00036
26.5 -0.00081
26.55 -0.0006
26.6 -0.00078
26.65 -0.00059
26.7 -0.00061
26.75 -0.00043
26.8 0.00024
26.85 0.00124
26.9 0.00213
26.95 0.00235
27 0.00192
27.05 0.00137
27.1 0.00141
27.15 0.00176
27.2 0.00151
27.25 0.00106
27.3 0.00037
27.35 0.00048
27.4 0.00091
27.45 0.00156
27.5 0.00185
27.55 0.00172
27.6 0.00165
27.65 0.00144
27.7 0.00169
27.75 0.00208
27.8 0.00166
27.85 0.00143
27.9 0.00092
27.95 -0.00006
28 -0.00022
28.05 -0.00036
28.1 -0.0004
28.15 -0.00025
28.2 0
28.25 -0.00037
28.3 -0.00027
28.35 -0.00012
28.4 0.00035
28.45 0.00007
28.5 0.00034
28.55 0.00016
28.6 -0.00057
28.65 -0.00126
28.7 -0.00103
28.75 -0.00071
28.8 -0.0006
28.85 -0.00026
28.9 0.00054
28.95 0.00097
29 0.00167
29.05 0.00249
29.1 0.00272
29.15 0.0031
29.2 0.00304
29.25 0.00229
29.3 0.00193
29.35 0.00127
29.4 0.00058
29.45 -0.00015
29.5 -0.00072
29.55 -0.0009
29.6 -0.00107
29.65 -0.00112
29.7 -0.00108
29.75 -0.00069
29.8 -0.00058
29.85 -0.00088
29.9 -0.00077
29.95 -0.00123
30 -0.00089
30.05 -0.00017
30.1 0.00082
30.15 0.00078
30.2 0.00073
30.25 0.0007
30.3 0.00053
30.35 0.00053
30.4 -0.00005
30.45 -0.00064
30.5 -0.00045
30.55 0.00009
30.6 0.00096
30.65 0.00122
30.7 0.00165
30.75 0.00172
30.8 0.00142
30.85 0.00143
30.9 0.00134
30.95 0.00134
31 0.00137
31.05 0.00103
31.1 0.00034
31.15 0.00021
31.2 -0.00053
31.25 -0.00064
31.3 -0.00115
31.35 -0.00093
31.4 -0.00065
31.45 -0.00087
31.5 -0.00141
31.55 -0.00123
31.6 -0.00136
31.65 -0.00097
31.7 -0.00088
31.75 -0.00066
31.8 -0.0011
31.85 -0.00169
31.9 -0.00188
31.95 -0.00249
32 -0.00236
32.05 -0.00258
32.1 -0.00199
32.15 -0.00118
32.2 -0.0012
32.25 -0.00139
32.3 -0.0009
32.35 -0.00052
32.4 -0.00063
32.45 -0.001
32.5 -0.00176
32.55 -0.00163
32.6 -0.00123
32.65 -0.00124
32.7 -0.0016
32.75 -0.00197
32.8 -0.00181
32.85 -0.00214
32.9 -0.00187
32.95 -0.00125
33 -0.00122
33.05 -0.0008
33.1 -0.0003
33.15 -0.00007
33.2 0.0001
33.25 0.00048
33.3 0.00113
33.35 0.00096
33.4 0.00015
33.45 -0.00076
33.5 -0.00115
33.55 -0.00178
33.6 -0.00162
33.65 -0.0019
33.7 -0.00176
33.75 -0.002
33.8 -0.00247
33.85 -0.00254
33.9 -0.00225
33.95 -0.00224
34 -0.00242
34.05 -0.00194
34.1 -0.00105
34.15 -0.00004
34.2 0.00086
34.25 0.00123
34.3 0.00195
34.35 0.00268
34.4 0.00299
34.45 0.0025
34.5 0.00161
34.55 0.00053
34.6 -0.00024
34.65 -0.00012
34.7 0.00022
34.75 0.00085
34.8 0.0013
34.85 0.00203
34.9 0.00289
34.95 0.00259
35 0.00269
35.05 0.00211
35.1 0.00183
35.15 0.00097
35.2 -0.00018
35.25 -0.00094
35.3 -0.00194
35.35 -0.00301
35.4 -0.00398
35.45 -0.00418
35.5 -0.0039
35.55 -0.00363
35.6 -0.00286
35.65 -0.00252
35.7 -0.00226
35.75 -0.00148
35.8 -0.00084
35.85 -0.00056
35.9 -0.00058
35.95 -0.00085
36 -0.0005
36.05 0.00033
36.1 0.00135
36.15 0.00133
36.2 0.00085
36.25 0.00001
36.3 -0.00012
36.35 0.00002
36.4 -0.00046
36.45 -0.00054
36.5 -0.00083
36.55 -0.00079
36.6 -0.00046
36.65 -0.00067
36.7 -0.0012
36.75 -0.00082
36.8 -0.00028
36.85 0.00053
36.9 0.0009
36.95 0.00165
37 0.00191
37.05 0.00185
37.1 0.00201
37.15 0.00187
37.2 0.00181
37.25 0.00128
37.3 0.00125
37.35 0.00086
37.4 0.00069
37.45 -0.00009
37.5 -0.00091
37.55 -0.00078
37.6 -0.00044
37.65 0.00022
37.7 0.00054
37.75 0.00111
37.8 0.00151
37.85 0.00197
37.9 0.00191
37.95 0.00156
38 0.00138
38.05 0.00105
38.1 0.00029
38.15 -0.00007
38.2 -0.00019
38.25 -0.0005
38.3 -0.00087
38.35 -0.00121
38.4 -0.00175
38.45 -0.00202
38.5 -0.00239
38.55 -0.00266
38.6 -0.00242
38.65 -0.00231
38.7 -0.00249
38.75 -0.00259
38.8 -0.00257
38.85 -0.00267
38.9 -0.00234
38.95 -0.00213
39 -0.00127
39.05 -0.0008
39.1 -0.00045
39.15 -0.00006
39.2 0.00004
39.25 0.00051
39.3 0.00139
39.35 0.00239
39.4 0.00283
39.45 0.00286
39.5 0.00316
39.55 0.00327
39.6 0.00334
39.65 0.00272
39.7 0.00252
39.75 0.00173
39.8 0.00114
39.85 0.00074
39.9 -0.00017
39.95 -0.00126
40 -0.00148
40.05 -0.00104
40.1 -0.00083
40.15 -0.00006
40.2 0.00063
40.25 0.00115
40.3 0.00118
40.35 0.00117
40.4 0.00138
40.45 0.00129
40.5 0.00155
40.55 0.00184
40.6 0.00173
40.65 0.00113
40.7 0.00061
40.75 -0.0003
40.8 -0.00064
40.85 -0.00044
40.9 -0.00046
40.95 -0.00001
41 0.00002
41.05 -0.00038
41.1 -0.0001
41.15 -0.00012
41.2 -0.00055
41.25 -0.00127
41.3 -0.00147
41.35 -0.00121
41.4 -0.00108
41.45 -0.00054
41.5 -0.00004
41.55 0.0002
41.6 -0.00016
41.65 0.00022
41.7 0.00091
41.75 0.0012
41.8 0.00135
41.85 0.00111
41.9 0.00052
41.95 -0.00019
42 -0.00012
42.05 0.00005
42.1 -0.00014
42.15 -0.00026
42.2 -0.00068
42.25 -0.00096
42.3 -0.00165
42.35 -0.00186
42.4 -0.0013
42.45 -0.00128
42.5 -0.00159
42.55 -0.00118
42.6 -0.00082
42.65 -0.00083
42.7 -0.00085
42.75 -0.0011
42.8 -0.00172
42.85 -0.00246
42.9 -0.00302
42.95 -0.00257
43 -0.00184
43.05 -0.00095
43.1 -0.00019
43.15 0.00021
43.2 0.00078
43.25 0.00051
43.3 0.00033
43.35 -0.00032
43.4 -0.00064
43.45 -0.00068
43.5 -0.00118
43.55 -0.00139
43.6 -0.00157
43.65 -0.002
43.7 -0.00231
43.75 -0.00278
43.8 -0.00221
43.85 -0.00183
43.9 -0.0009
43.95 -0.00042
44 -0.00016
44.05 -0.00018
44.1 -0.00067
44.15 -0.00031
44.2 -0.00046
44.25 -0.00022
44.3 -0.00049
44.35 -0.00033
44.4 -0.00035
44.45 -0.00053
44.5 -0.00043
44.55 0.0002
44.6 0.00061
44.65 0.00116
44.7 0.00185
44.75 0.00185
44.8 0.00183
44.85 0.00109
44.9 0.00096
44.95 0.0007
45 0.00015
45.05 -0.00039
45.1 -0.00094
45.15 -0.00133
45.2 -0.00171
45.25 -0.00223
45.3 -0.00247
45.35 -0.00231
45.4 -0.00215
45.45 -0.00231
45.5 -0.0016
45.55 -0.00063
45.6 -0.00046
45.65 -0.00085
45.7 -0.0008
45.75 -0.0004
45.8 0.00022
45.85 0.00075
45.9 0.00125
45.95 0.00163
46 0.00119
46.05 0.00142
46.1 0.00191
46.15 0.00173
46.2 0.00176
46.25 0.0015
46.3 0.00089
46.35 0.00021
46.4 0.00031
46.45 0.00024
46.5 0.00026
46.55 0.00083
46.6 0.00058
46.65 0.0005
46.7 0.00036
46.75 0.00076
46.8 0.00084
46.85 0.00144
46.9 0.00183
46.95 0.00147
47 0.00143
47.05 0.00169
47.1 0.00152
47.15 0.0009
47.2 0.00045
47.25 0.0001
47.3 -0.00061
47.35 -0.00059
47.4 -0.00068
47.45 -0.00056
47.5 -0.00073
47.55 -0.00051
47.6 -0.00069
47.65 -0.00076
47.7 -0.00082
47.75 -0.00121
47.8 -0.00158
47.85 -0.00156
47.9 -0.00145
47.95 -0.00178
48 -0.00213
48.05 -0.00161
48.1 -0.00052
48.15 -0.00005
48.2 -0.00026
48.25 -0.00031
48.3 -0.00044
48.35 -0.00017
48.4 0.00026
48.45 0.0011
48.5 0.00153
48.55 0.00221
48.6 0.00237
48.65 0.00238
48.7 0.00265
48.75 0.00217
48.8 0.00137
48.85 0.00112
48.9 0.00098
48.95 0.00105
49 0.00046
49.05 -0.00045
49.1 -0.00098
49.15 -0.00171
49.2 -0.00174
49.25 -0.0013
49.3 -0.00064
49.35 -0.0007
49.4 -0.00106
49.45 -0.00108
49.5 -0.0012
49.55 -0.00112
49.6 -0.00053
49.65 0.00045
49.7 0.00154
49.75 0.00273
49.8 0.00377
49.85 0.00378
49.9 0.00363
49.95 0.00304
50 0.00245
50.05 0.00157
50.1 0.00035
50.15 -0.00084
50.2 -0.00119
50.25 -0.00103
50.3 -0.00024
50.35 0.00048
50.4 0.00144
50.45 0.00249
50.5 0.00289
50.55 0.00247
50.6 0.00178
50.65 0.00085
50.7 -0
50.75 -0.00117
50.8 -0.0013
50.85 -0.00092
50.9 -0.0005
50.95 -0.00075
51 -0.00039
51.05 0.00032
51.1 0.0012
51.15 0.00195
51.2 0.00175
51.25 0.00147
51.3 0.00111
51.35 0.00078
51.4 -0.00009
51.45 -0.00091
51.5 -0.00175
51.55 -0.0023
51.6 -0.00283
51.65 -0.00335
51.7 -0.00356
51.75 -0.00356
51.8 -0.00272
51.85 -0.00177
51.9 -0.0008
51.95 -0.00038
52 -0.00014
52.05 0.00027
52.1 -0.00006
52.15 0.00004
52.2 -0.00033
52.25 -0.00059
52.3 -0.0007
52.35 -0.00046
52.4 -0.0001
52.45 0.00022
52.5 0.00046
52.55 0.00098
52.6 0.00062
52.65 0.00021
52.7 -0.00035
52.75 -0.00055
52.8 -0.00045
52.85 -0.0006
52.9 -0.00054
52.95 -0.00039
53 -0.00073
53.05 -0.00138
53.1 -0.00185
53.15 -0.00214
53.2 -0.00224
53.25 -0.00208
53.3 -0.00134
53.35 -0.00042
53.4 0.00019
53.45 0.00058
53.5 0.00095
53.55 0.00115
53.6 0.00107
53.65 0.00129
53.7 0.00123
53.75 0.00162
53.8 0.00224
53.85 0.00189
53.9 0.00201
53.95 0.00236
54 0.00227
54.05 0.00259
54.1 0.00281
54.15 0.00327
54.2 0.00312
54.25 0.00214
54.3 0.0012
54.35 0.00101
54.4 0.00019
54.45 -0.00059
54.5 -0.00117
54.55 -0.00187
54.6 -0.00168
54.65 -0.00097
54.7 0.00007
54.75 0.00071
54.8 0.00067
54.85 0.00048
54.9 0.00005
54.95 -0.00054
55 -0.00094
55.05 -0.00132
55.1 -0.00109
55.15 -0.00077
55.2 -0.00034
55.25 0.00002
55.3 0.00052
55.35 0.00099
55.4 0.0017
55.45 0.00155
55.5 0.00147
55.55 0.00066
55.6 -0.00046
55.65 -0.00141
55.7 -0.00192
55.75 -0.00248
55.8 -0.00218
55.85 -0.00202
55.9 -0.00206
55.95 -0.00158
56 -0.00118
56.05 -0.00118
56.1 -0.0016
56.15 -0.00226
56.2 -0.00297
56.25 -0.00318
56.3 -0.00274
56.35 -0.00185
56.4 -0.00158
56.45 -0.0016
56.5 -0.00099
56.55 -0.00065
56.6 -0.00001
56.65 0.0005
56.7 0.00048
56.75 0.00018
56.8 0.00015
56.85 0.00042
56.9 0.00057
56.95 0.00055
57 0.00099
57.05 0.00173
57.1 0.00253
57.15 0.00254
57.2 0.00231
57.25 0.00225
57.3 0.00172
57.35 0.00079
57.4 -0.00006
57.45 -0.00035
57.5 -0.00099
57.55 -0.00185
57.6 -0.0028
57.65 -0.00313
57.7 -0.00261
57.75 -0.00155
57.8 -0.00049
57.85 -0.00033
57.9 -0.00056
57.95 -0.00059
58 -0.00043
58.05 -0.00006
58.1 0.00028
58.15 0.00062
58.2 0.00107
58.25 0.00121
58.3 0.00171
58.35 0.00165
58.4 0.00093
58.45 0.00025
58.5 -0.00055
58.55 -0.00144
58.6 -0.0014
58.65 -0.00183
58.7 -0.00219
58.75 -0.00233
58.8 -0.00216
58.85 -0.0022
58.9 -0.00238
58.95 -0.0026
59 -0.00231
59.05 -0.00214
59.1 -0.00215
59.15 -0.0022
59.2 -0.00153
59.25 -0.00107
59.3 -0.00088
59.35 -0.00096
59.4 -0.00109
59.45 -0.0016
59.5 -0.00196
59.55 -0.00161
59.6 -0.00113
59.65 -0.00074
59.7 -0.00018
59.75 0.00067
59.8 0.00143
59.85 0.00126
59.9 0.00059
59.95 0.00021
60 0.0005
60.05 0.00029
60.1 0
60.15 -0.00002
60.2 -0.00015
60.25 -0.00062
60.3 -0.00075
60.35 -0.00124
60.4 -0.00142
60.45 -0.0013
60.5 -0.00086
60.55 -0.00001
60.6 0.00027
60.65 0.00084
60.7 0.00152
60.75 0.00209
60.8 0.00274
60.85 0.00294
60.9 0.00326
60.95 0.00292
61 0.00206
61.05 0.00155
61.1 0.00163
61.15 0.00142
61.2 0.00104
61.25 0.00108
61.3 0.00121
61.35 0.00096
61.4 0.00047
61.45 -0.00018
61.5 -0.0002
61.55 0.00023
61.6 0.00063
61.65 0.00028
61.7 0.00001
61.75 -0.00074
61.8 -0.00104
61.85 -0.00167
61.9 -0.00236
61.95 -0.00279
62 -0.00309
62.05 -0.00272
62.1 -0.00217
62.15 -0.00127
62.2 -0.0003
62.25 -0.00021
62.3 0.00027
62.35 0.00057
62.4 0.00045
62.45 -0.00018
62.5 -0.00057
62.55 -0.00114
62.6 -0.00118
62.65 -0.00133
62.7 -0.00076
62.75 0.00027
62.8 0.00145
62.85 0.00211
62.9 0.0021
62.95 0.00183
63 0.00165
63.05 0.00116
63.1 0.00084
63.15 0.00117
63.2 0.00125
63.25 0.00148
63.3 0.00169
63.35 0.00226
63.4 0.00202
63.45 0.00202
63.5 0.0018
63.55 0.00123
63.6 0.00083
63.65 0.00039
63.7 -0.00044
63.75 -0.00068
63.8 -0.00039
63.85 0.0003
63.9 0.00107
63.95 0.00149
64 0.00113
64.05 0.0007
64.1 0.00093
64.15 0.00118
64.2 0.00066
64.25 0.00017
64.3 -0.00053
64.35 -0.00095
64.4 -0.00056
64.45 -0.00066
64.5 -0.00016
64.55 -0.00019
64.6 0.00013
64.65 -0.00007
64.7 -0.00034
64.75 -0.00016
64.8 -0.00018
64.85 0.00038
64.9 0.00016
64.95 -0.00015
65 0.00023
65.05 0.00091
65.1 0.0007
65.15 0.00019
65.2 -0.00018
65.25 0.00009
65.3 0.00048
65.35 0.00049
65.4 0.00045
65.45 0.00069
65.5 0.00035
65.55 0.00068
65.6 0.00044
65.65 0.00032
65.7 0.00078
65.75 0.00103
65.8 0.00122
65.85 0.00126
65.9 0.0011
65.95 0.00109
66 0.00155
66.05 0.0018
66.1 0.00143
66.15 0.00149
66.2 0.00167
66.25 0.00186
66.3 0.00126
66.35 0.00087
66.4 0.00089
66.45 0.0011
66.5 0.00168
66.55 0.00244
66.6 0.00231
66.65 0.00188
66.7 0.00111
66.75 0.00102
66.8 0.00035
66.85 -0.00052
66.9 -0.00127
66.95 -0.00168
67 -0.00189
67.05 -0.00147
67.1 -0.0016
67.15 -0.00148
67.2 -0.00083
67.25 -0.00092
67.3 -0.00078
67.35 -0.00033
67.4 0.00007
67.45 0.0003
67.5 0.00019
67.55 -0.00048
67.6 -0.00066
67.65 -0.00076
67.7 -0.00048
67.75 -0.00043
67.8 -0.00058
67.85 -0.00067
67.9 -0.00061
67.95 -0.00107
68 -0.00074
68.05 -0.00018
68.1 0.00061
68.15 0.00137
68.2 0.00208
68.25 0.0024
68.3 0.00295
68.35 0.00359
68.4 0.00407
68.45 0.0037
68.5 0.00358
68.55 0.00312
68.6 0.0028
68.65 0.00175
68.7 0.00135
68.75 0.00131
68.8 0.00158
68.85 0.00117
68.9 0.00055
68.95 0.00028
69 -0.00055
69.05 -0.00144
69.1 -0.00256
69.15 -0.00372
69.2 -0.0041
69.25 -0.00408
69.3 -0.00394
69.35 -0.00323
69.4 -0.00246
69.45 -0.00202
69.5 -0.00107
69.55 0.00013
69.6 0.00048
69.65 0.00028
69.7 0.00047
69.75 -0.00004
69.8 -0.001
69.85 -0.00097
69.9 -0.00065
69.95 -0.0003
70 -0.00043
70.05 -0.00032
70.1 0.0002
70.15 0.00074
70.2 0.00121
70.25 0.00166
70.3 0.0012
70.35 0.00078
70.4 0.00004
70.45 -0.00064
70.5 -0.00073
70.55 -0.00074
70.6 -0.00129
70.65 -0.0019
70.7 -0.00198
70.75 -0.00226
70.8 -0.00282
70.85 -0.00325
70.9 -0.0035
70.95 -0.00375
71 -0.00405
71.05 -0.00345
71.1 -0.0032
71.15 -0.00299
71.2 -0.00218
71.25 -0.00102
71.3 -0.00063
71.35 -0.00054
71.4 -0.00081
71.45 -0.00129
71.5 -0.00097
71.55 -0.00035
71.6 0.00059
71.65 0.00098
71.7 0.00108
71.75 0.00141
71.8 0.00096
71.85 0.0003
71.9 -0.00069
71.95 -0.00107
72 -0.00106
72.05 -0.00071
72.1 -0.00084
72.15 -0.00027
72.2 -0.00014
72.25 0.00045
72.3 0.0009
72.35 0.00069
72.4 0.00004
72.45 -0.00083
72.5 -0.00078
72.55 -0.00055
72.6 -0.00065
72.65 -0.00073
72.7 -0.00076
72.75 -0.00117
72.8 -0.00188
72.85 -0.00244
72.9 -0.00275
72.95 -0.0023
73 -0.0024
73.05 -0.00261
73.1 -0.00246
73.15 -0.00238
73.2 -0.00268
73.25 -0.00218
73.3 -0.00153
73.35 -0.001
73.4 -0.00054
73.45 -0.00053
73.5 -0.00073
73.55 -0.00075
73.6 -0.00103
73.65 -0.00166
73.7 -0.00156
73.75 -0.00167
73.8 -0.00138
73.85 -0.00104
73.9 -0.00115
73.95 -0.00187
74 -0.00281
74.05 -0.00352
74.1 -0.00433
74.15 -0.00519
74.2 -0.00599
74.25 -0.00746
74.3 -0.00866
74.35 -0.00987
74.4 -0.01102
74.45 -0.01319
74.5 -0.01615
74.55 -0.01902
74.6 -0.02224
74.65 -0.02627
74.7 -0.03074
74.75 -0.0362
74.8 -0.04247
74.85 -0.04965
74.9 -0.05747
74.95 -0.06653
75 -0.07663
75.05 -0.0875
75.1 -0.09834
75.15 -0.10955
75.2 -0.12224
75.25 -0.13621
75.3 -0.15007
75.35 -0.16442
75.4 -0.17905
75.45 -0.19415
75.5 -0.21017
75.55 -0.22646
75.6 -0.24232
75.65 -0.2581
75.7 -0.27385
75.75 -0.28829
75.8 -0.30146
75.85 -0.31415
75.9 -0.32563
75.95 -0.33633
76 -0.34551
76.05 -0.35229
76.1 -0.35713
76.15 -0.36032
76.2 -0.36185
76.25 -0.36107
76.3 -0.35796
76.35 -0.35205
76.4 -0.34429
76.45 -0.33369
76.5 -0.32069
76.55 -0.30579
76.6 -0.28903
76.65 -0.27126
76.7 -0.25199
76.75 -0.23142
76.8 -0.20967
76.85 -0.18735
76.9 -0.16432
76.95 -0.14124
77 -0.11703
77.05 -0.09297
77.1 -0.06882
77.15 -0.04514
77.2 -0.02147
77.25 0.00209
77.3 0.02512
77.35 0.04757
77.4 0.06841
77.45 0.08892
77.5 0.10863
77.55 0.12709
77.6 0.14488
77.65 0.16197
77.7 0.17806
77.75 0.19241
77.8 0.20525
77.85 0.21736
77.9 0.2282
77.95 0.23836
78 0.24723
78.05 0.25506
78.1 0.26249
78.15 0.27003
78.2 0.27686
78.25 0.28268
78.3 0.2885
78.35 0.29373
78.4 0.29853
78.45 0.30274
78.5 0.3064
78.55 0.30844
78.6 0.30937
78.65 0.31013
78.7 0.31016
78.75 0.30927
78.8 0.30855
78.85 0.30749
78.9 0.30574
78.95 0.30321
79 0.29988
79.05 0.29652
79.1 0.29327
79.15 0.28949
79.2 0.28553
79.25 0.28066
79.3 0.27561
79.35 0.27025
79.4 0.2645
79.45 0.25872
79.5 0.25234
79.55 0.24555
79.6 0.23924
79.65 0.23264
79.7 0.22537
79.75 0.21791
79.8 0.21088
79.85 0.2033
79.9 0.19563
79.95 0.18881
80 0.1821
80.05 0.17566
80.1 0.16845
80.15 0.16169
80.2 0.15539
80.25 0.14923
80.3 0.14224
80.35 0.13499
80.4 0.12842
80.45 0.12224
80.5 0.11639
80.55 0.10981
80.6 0.1035
80.65 0.09661
80.7 0.0905
80.75 0.08448
80.8 0.07835
80.85 0.07299
80.9 0.0675
80.95 0.06187
81 0.05697
81.05 0.05251
81.1 0.04831
81.15 0.04415
81.2 0.03942
81.25 0.03402
81.3 0.02943
81.35 0.02549
81.4 0.02133
81.45 0.01666
81.5 0.01263
81.55 0.00879
81.6 0.0054
81.65 0.00194
81.7 -0.00166
81.75 -0.00518
81.8 -0.00867
81.85 -0.01165
81.9 -0.01395
81.95 -0.01609
82 -0.01791
82.05 -0.01989
82.1 -0.02229
82.15 -0.02394
82.2 -0.02566
82.25 -0.02723
82.3 -0.02875
82.35 -0.03037
82.4 -0.03165
82.45 -0.03347
82.5 -0.03488
82.55 -0.03684
82.6 -0.03881
82.65 -0.04006
82.7 -0.04085
82.75 -0.04128
82.8 -0.04205
82.85 -0.04226
82.9 -0.04275
82.95 -0.04329
83 -0.04409
83.05 -0.0451
83.1 -0.04626
83.15 -0.04692
83.2 -0.04766
83.25 -0.04821
83.3 -0.0483
83.35 -0.04775
83.4 -0.04749
83.45 -0.04728
83.5 -0.04711
83.55 -0.04693
83.6 -0.04654
83.65 -0.04621
83.7 -0.04572
83.75 -0.0448
83.8 -0.04415
83.85 -0.04348
83.9 -0.0428
83.95 -0.04276
84 -0.04257
84.05 -0.04247
84.1 -0.04256
84.15 -0.04322
84.2 -0.04319
84.25 -0.04262
84.3 -0.04193
84.35 -0.04139
84.4 -0.04149
84.45 -0.04153
84.5 -0.04153
84.55 -0.0409
84.6 -0.04007
84.65 -0.03985
84.7 -0.03908
84.75 -0.03804
84.8 -0.03773
84.85 -0.03799
84.9 -0.0378
84.95 -0.03737
85 -0.0367
85.05 -0.03559
85.1 -0.03493
85.15 -0.03476
85.2 -0.03451
85.25 -0.03464
85.3 -0.03443
85.35 -0.03416
85.4 -0.03357
85.45 -0.03328
85.5 -0.03296
85.55 -0.033
85.6 -0.03301
85.65 -0.03228
85.7 -0.031
85.75 -0.03021
85.8 -0.02964
85.85 -0.02967
85.9 -0.02888
85.95 -0.02816
86 -0.02748
86.05 -0.02735
86.1 -0.02714
86.15 -0.02672
86.2 -0.02637
86.25 -0.02561
86.3 -0.02517
86.35 -0.0242
86.4 -0.02325
86.45 -0.02224
86.5 -0.02156
86.55 -0.02152
86.6 -0.02098
86.65 -0.02127
86.7 -0.02119
86.75 -0.02066
86.8 -0.01987
86.85 -0.01938
86.9 -0.0188
86.95 -0.01856
87 -0.01843
87.05 -0.01806
87.1 -0.0182
87.15 -0.0186
87.2 -0.01914
87.25 -0.01972
87.3 -0.02036
87.35 -0.02021
87.4 -0.02027
87.45 -0.01973
87.5 -0.01938
87.55 -0.01879
87.6 -0.01828
87.65 -0.01837
87.7 -0.01874
87.75 -0.01913
87.8 -0.01965
87.85 -0.02011
87.9 -0.01955
87.95 -0.01864
88 -0.01749
88.05 -0.01596
88.1 -0.01492
88.15 -0.01364
88.2 -0.01224
88.25 -0.01095
88.3 -0.01003
88.35 -0.0097
88.4 -0.00916
88.45 -0.00889
88.5 -0.00867
88.55 -0.00937
88.6 -0.01052
88.65 -0.01188
88.7 -0.01279
88.75 -0.01384
88.8 -0.01426
88.85 -0.01467
88.9 -0.01409
88.95 -0.01373
89 -0.01339
89.05 -0.0128
89.1 -0.01237
89.15 -0.0116
89.2 -0.01117
89.25 -0.01125
89.3 -0.01128
89.35 -0.01106
89.4 -0.01039
89.45 -0.00942
89.5 -0.00838
89.55 -0.00825
89.6 -0.00805
89.65 -0.00745
89.7 -0.00726
89.75 -0.00678
89.8 -0.00621
89.85 -0.00613
89.9 -0.00629
89.95 -0.00677
90 -0.00754
90.05 -0.00793
90.1 -0.00846
90.15 -0.00901
90.2 -0.00864
90.25 -0.00836
90.3 -0.00799
90.35 -0.00739
90.4 -0.00674
90.45 -0.00653
90.5 -0.00617
90.55 -0.00591
90.6 -0.00625
90.65 -0.0063
90.7 -0.0059
90.75 -0.00601
90.8 -0.00599
90.85 -0.00614
90.9 -0.00631
90.95 -0.00653
91 -0.00701
91.05 -0.00755
91.1 -0.0073
91.15 -0.00733
91.2 -0.00745
91.25 -0.00734
91.3 -0.00743
91.35 -0.00783
91.4 -0.00782
91.45 -0.00764
91.5 -0.00692
91.55 -0.00613
91.6 -0.00526
91.65 -0.00405
91.7 -0.00336
91.75 -0.00251
91.8 -0.00236
91.85 -0.00201
91.9 -0.00139
91.95 -0.0014
92 -0.00201
92.05 -0.00317
92.1 -0.0041
92.15 -0.00436
92.2 -0.00426
92.25 -0.00465
92.3 -0.00506
92.35 -0.0049
92.4 -0.00456
92.45 -0.00386
92.5 -0.004
92.55 -0.00363
92.6 -0.00296
92.65 -0.00319
92.7 -0.00377
92.75 -0.00423
92.8 -0.005
92.85 -0.00571
92.9 -0.00607
92.95 -0.00647
93 -0.00626
93.05 -0.00639
93.1 -0.00609
93.15 -0.00562
93.2 -0.00531
93.25 -0.0046
93.3 -0.00428
93.35 -0.00423
93.4 -0.00359
93.45 -0.00261
93.5 -0.00238
93.55 -0.00249
93.6 -0.00268
93.65 -0.00273
93.7 -0.00248
93.75 -0.00173
93.8 -0.00105
93.85 -0.00099
93.9 -0.00074
93.95 -0.00123
94 -0.00167
94.05 -0.00165
94.1 -0.00177
94.15 -0.00211
94.2 -0.00212
94.25 -0.00219
94.3 -0.00164
94.35 -0.00092
94.4 -0.00011
94.45 0.00032
94.5 0.00006
94.55 0.00012
94.6 -0.00028
94.65 -0.00117
94.7 -0.00123
94.75 -0.00071
94.8 -0.00032
94.85 0.00036
94.9 0.00001
94.95 -0.00087
95 -0.0018
95.05 -0.00273
95.1 -0.00314
95.15 -0.00268
95.2 -0.00287
95.25 -0.00347
95.3 -0.00402
95.35 -0.00363
95.4 -0.00284
95.45 -0.00198
95.5 -0.00115
95.55 -0.00053
95.6 -0.00036
95.65 -0.00045
95.7 -0.00116
95.75 -0.00131
95.8 -0.00152
95.85 -0.002
95.9 -0.00198
95.95 -0.00233
96 -0.00279
96.05 -0.00283
96.1 -0.00252
96.15 -0.00273
96.2 -0.00294
96.25 -0.00239
96.3 -0.00224
96.35 -0.00209
96.4 -0.00195
96.45 -0.00214
96.5 -0.0027
96.55 -0.00229
96.6 -0.00191
96.65 -0.00203
96.7 -0.00185
96.75 -0.00165
96.8 -0.00085
96.85 -0.00024
96.9 -0.00003
96.95 -0.00005
97 -0.00012
97.05 -0.00004
97.1 0.00014
97.15 0.00023
97.2 -0.00031
97.25 -0.0004
97.3 -0.00075
97.35 -0.00037
97.4 -0.00075
97.45 -0.00077
97.5 -0.00039
97.55 -0.0004
97.6 -0.00033
97.65 -0.00038
97.7 -0.00012
97.75 -0.00048
97.8 -0.00016
97.85 0.00008
97.9 0.00046
97.95 0.00026
98 -0.00006
98.05 0.00015
98.1 -0.00006
98.15 0.0002
98.2 0.00071
98.25 0.00079
98.3 0.00119
98.35 0.00146
98.4 0.00102
98.45 0.00036
98.5 -0.0005
98.55 -0.00127
98.6 -0.00197
98.65 -0.0021
98.7 -0.00202
98.75 -0.00239
98.8 -0.00206
98.85 -0.00168
98.9 -0.00085
98.95 -0.0003
99 -0.00054
99.05 -0.00086
99.1 -0.00117
99.15 -0.00126
99.2 -0.00081
99.25 -0.00091
99.3 -0.00146
99.35 -0.00206
99.4 -0.0025
99.45 -0.00207
99.5 -0.00118
99.55 -0.00062
99.6 0.00012
99.65 -0.00006
99.7 0.00027
99.75 0.00072
99.8 0.00121
99.85 0.00135
99.9 0.00145
99.95 0.0018
