0 0
0.05 0.00034
0.1 0.00069
0.15 0.00112
0.2 0.00135
0.25 0.00162
0.3 0.00207
0.35 0.00277
0.4 0.00311
0.45 0.0036
0.5 0.00383
0.55 0.00386
0.6 0.00372
0.65 0.0039
0.7 0.00371
0.75 0.00357
0.8 0.00333
0.85 0.00288
0.9 0.0024
0.95 0.00223
1 0.00236
1.05 0.00252
1.1 0.00239
1.15 0.00243
1.2 0.00244
1.25 0.00271
1.3 0.00267
1.35 0.00265
1.4 0.00248
1.45 0.00235
1.5 0.0025
1.55 0.00252
1.6 0.00229
1.65 0.00209
1.7 0.00219
1.75 0.00244
1.8 0.00275
1.85 0.00309
1.9 0.00324
1.95 0.0035
2 0.00339
2.05 0.00302
2.1 0.00247
2.15 0.00213
2.2 0.00207
2.25 0.0018
2.3 0.00139
2.35 0.00098
2.4 0.00055
2.45 0.00045
2.5 0.00061
2.55 0.00053
2.6 0.00058
2.65 0.00048
2.7 0.0008
2.75 0.00129
2.8 0.00183
2.85 0.00229
2.9 0.00276
2.95 0.00287
3 0.00312
3.05 0.00331
3.1 0.00343
3.15 0.00338
3.2 0.00341
3.25 0.00351
3.3 0.00311
3.35 0.00241
3.4 0.00169
3.45 0.00144
3.5 0.00151
3.55 0.00143
3.6 0.00158
3.65 0.00167
3.7 0.00152
3.75 0.00134
3.8 0.00134
3.85 0.00148
3.9 0.00138
3.95 0.00113
4 0.00089
4.05 0.00052
4.1 0.0005
4.15 0.00023
4.2 0.00021
4.25 0.00033
4.3 0.00035
4.35 0.00046
4.4 0.00032
4.45 0.00024
4.5 0.00047
4.55 0.0008
4.6 0.00088
4.65 0.00076
4.7 0.00063
4.75 0.00081
4.8 0.00065
4.85 0.00047
4.9 0.00052
4.95 0.00054
5 0.00071
5.05 0.00069
5.1 0.00048
5.15 0.00029
5.2 0.00031
5.25 0.00006
5.3 -0.00026
5.35 -0.00045
5.4 -0.00024
5.45 -0.00004
5.5 -0.00015
5.55 -0.00018
5.6 0.00007
5.65 0.0006
5.7 0.00096
5.75 0.00113
5.8 0.0015
5.85 0.00146
5.9 0.00157
5.95 0.00132
6 0.00119
6.05 0.00106
6.1 0.00104
6.15 0.00122
6.2 0.00133
6.25 0.00132
6.3 0.00156
6.35 0.00167
6.4 0.0014
6.45 0.00091
6.5 0.00067
6.55 0.00053
6.6 0.00037
6.65 0.00007
6.7 -0.00025
6.75 -0.00013
6.8 0.00013
6.85 0.00013
6.9 -0.00006
6.95 -0.00005
7 0.00004
7.05 -0.00014
7.1 -0.00049
7.15 -0.00063
7.2 -0.00059
7.25 -0.00064
7.3 -0.00059
7.35 -0.00024
7.4 0.00009
7.45 0.00041
7.5 0.00091
7.55 0.00091
7.6 0.00115
7.65 0.00111
7.7 0.00105
7.75 0.00091
7.8 0.0006
7.85 0.00043
7.9 0.00036
7.95 0.00035
8 0.00039
8.05 0.00032
8.1 0.00019
8.15 0.00036
8.2 0.00053
8.25 0.00067
8.3 0.00089
8.35 0.00107
8.4 0.00104
8.45 0.00113
8.5 0.00118
8.55 0.00115
8.6 0.0012
8.65 0.00124
8.7 0.00127
8.75 0.00139
8.8 0.00148
8.85 0.0015
8.9 0.00113
8.95 0.00057
9 -0.00008
9.05 -0.00043
9.1 -0.00088
9.15 -0.00092
9.2 -0.00108
9.25 -0.0012
9.3 -0.00146
9.35 -0.00121
9.4 -0.00071
9.45 -0.00032
9.5 0.00022
9.55 0.00084
9.6 0.00138
9.65 0.00192
9.7 0.00204
9.75 0.00175
9.8 0.00166
9.85 0.00171
9.9 0.00149
9.95 0.0014
10 0.00104
10.05 0.00068
10.1 0.00046
10.15 0.00036
10.2 0.0005
10.25 0.0008
10.3 0.00088
10.35 0.00056
10.4 0.00022
10.45 0.00001
10.5 -0.00003
10.55 0.00013
10.6 0.00003
10.65 -0.00018
10.7 -0.00002
10.75 0.00034
10.8 0.00059
10.85 0.00078
10.9 0.00072
10.95 0.00051
11 0.00038
11.05 0.00003
11.1 0.00002
11.15 -0.00008
11.2 0.0001
11.25 -0.00006
11.3 -0.00014
11.35 -0.00019
11.4 -0.00048
11.45 -0.00073
11.5 -0.00107
11.55 -0.00125
11.6 -0.00137
11.65 -0.0011
11.7 -0.00099
11.75 -0.00065
11.8 -0.00021
11.85 0.00005
11.9 -0.00001
11.95 -0.00011
12 -0.0003
12.05 -0.00015
12.1 -0.00027
12.15 -0.00028
12.2 -0.00029
12.25 -0.00057
12.3 -0.0008
12.35 -0.00087
12.4 -0.00066
12.45 -0.0003
12.5 -0.00016
12.55 -0.00003
12.6 0.0002
12.65 0.00021
12.7 0.0004
12.75 0.00059
12.8 0.00083
12.85 0.00079
12.9 0.00089
12.95 0.0007
13 0.00059
13.05 0.00021
13.1 0.00006
13.15 -0.00024
13.2 -0.00017
13.25 -0.00027
13.3 -0.00053
13.35 -0.00051
13.4 -0.00019
13.45 0.00007
13.5 0.0004
13.55 0.00079
13.6 0.00113
13.65 0.00098
13.7 0.00093
13.75 0.00054
13.8 0.00002
13.85 -0.00027
13.9 -0.00068
13.95 -0.00069
14 -0.00062
14.05 -0.00068
14.1 -0.00063
14.15 -0.00037
14.2 -0.00038
14.25 -0.0006
14.3 -0.00068
14.35 -0.00049
14.4 -0.00014
14.45 0.00016
14.5 0.00058
14.55 0.00077
14.6 0.00065
14.65 0.00039
14.7 -0.00011
14.75 -0.00033
14.8 -0.00019
14.85 -0.00009
14.9 -0.00023
14.95 -0.00037
15 -0.00039
15.05 -0.00045
15.1 -0.00015
15.15 0.00016
15.2 0.00047
15.25 0.00057
15.3 0.00086
15.35 0.00097
15.4 0.001
15.45 0.00071
15.5 0.00023
15.55 0.00015
15.6 -0.00008
15.65 -0.00038
15.7 -0.00046
15.75 -0.00034
15.8 0.00005
15.85 0.00036
15.9 0.00078
15.95 0.00072
16 0.00058
16.05 0.00045
16.1 0.00044
16.15 0.00042
16.2 0.00046
16.25 0.00051
16.3 0.00066
16.35 0.00082
16.4 0.00064
16.45 0.00044
16.5 0.00011
16.55 -0.0003
16.6 -0.00041
16.65 -0.00021
16.7 0.00002
16.75 0.00006
16.8 0.00027
16.85 0.00067
16.9 0.00114
16.95 0.00134
17 0.00136
17.05 0.00109
17.1 0.00058
17.15 -0.00003
17.2 -0.00033
17.25 -0.00034
17.3 -0.00017
17.35 0.0002
17.4 0.00018
17.45 0.00028
17.5 0.00033
17.55 0.00044
17.6 0.0002
17.65 -0.00024
17.7 -0.00052
17.75 -0.00095
17.8 -0.00089
17.85 -0.00056
17.9 -0.00061
17.95 -0.00056
18 -0.00046
18.05 -0.00016
18.1 0.00023
18.15 0.00015
18.2 0.00027
18.25 0.0004
18.3 0.00063
18.35 0.00078
18.4 0.00068
18.45 0.00045
18.5 -0.00001
18.55 -0.00004
18.6 -0.00034
18.65 -0.0007
18.7 -0.00068
18.75 -0.00077
18.8 -0.00065
18.85 -0.00052
18.9 -0.00033
18.95 0.00006
19 0.00036
19.05 0.00035
19.1 0.00059
19.15 0.00051
19.2 0.0004
19.25 0.00034
19.3 0.00046
19.35 0.00057
19.4 0.00063
19.45 0.00089
19.5 0.00116
19.55 0.00117
19.6 0.0011
19.65 0.00096
19.7 0.00053
19.75 0.00026
19.8 -0.00014
19.85 -0.00054
19.9 -0.0006
19.95 -0.0005
20 -0.00028
20.05 -0.00003
20.1 0.00013
20.15 -0.00004
20.2 -0.00024
20.25 -0.00035
20.3 -0.00041
20.35 -0.00053
20.4 -0.00053
20.45 -0.00035
20.5 -0.00025
20.55 0.00004
20.6 0.00028
20.65 0.0002
20.7 0.00016
20.75 0.00021
20.8 -0.0001
20.85 -0.00045
20.9 -0.00089
20.95 -0.00098
21 -0.00106
21.05 -0.00133
21.1 -0.00141
21.15 -0.00161
21.2 -0.00191
21.25 -0.00215
21.3 -0.00245
21.35 -0.00259
21.4 -0.00268
21.45 -0.00241
21.5 -0.00207
21.55 -0.00142
21.6 -0.00061
21.65 -0.00016
21.7 0.00011
21.75 0.00021
21.8 0.00005
21.85 0.00016
21.9 0.00025
21.95 0.0001
22 -0.00012
22.05 -0.00025
22.1 -0.00033
22.15 -0.00058
22.2 -0.00083
22.25 -0.00087
22.3 -0.00083
22.35 -0.00057
22.4 -0.00046
22.45 -0.00039
22.5 -0.00057
22.55 -0.00048
22.6 -0.00009
22.65 0.00039
22.7 0.00085
22.75 0.00079
22.8 0.00048
22.85 0
22.9 -0.00011
22.95 -0.00005
23 0.00028
23.05 0.00021
23.1 0.00044
23.15 0.00066
23.2 0.00075
23.25 0.00056
23.3 0.00024
23.35 0.00018
23.4 0.00041
23.45 0.00074
23.5 0.00082
23.55 0.00053
23.6 0.00007
23.65 -0.00052
23.7 -0.00103
23.75 -0.00115
23.8 -0.00134
23.85 -0.00161
23.9 -0.00146
23.95 -0.00146
24 -0.0013
24.05 -0.00113
24.1 -0.00068
24.15 -0.00046
24.2 -0.00042
24.25 -0.00027
24.3 -0.00016
24.35 0.00006
24.4 0.00039
24.45 0.00043
24.5 0.00051
24.55 0.00043
24.6 0.00029
24.65 0.00029
24.7 0.00037
24.75 0.00019
24.8 -0.00004
24.85 0.00008
24.9 -0.00013
24.95 0.00005
25 -0.00012
25.05 -0.00014
25.1 0.00014
25.15 0.00025
25.2 0.00033
25.25 0.00047
25.3 0.00065
25.35 0.00098
25.4 0.00118
25.45 0.00107
25.5 0.00078
25.55 0.00039
25.6 -0.00003
25.65 -0.00026
25.7 -0.00062
25.75 -0.00049
25.8 -0.00033
25.85 -0.00001
25.9 0
25.95 0.00029
26 0.00072
26.05 0.00105
26.1 0.0014
26.15 0.00157
26.2 0.00145
26.25 0.00115
26.3 0.00116
26.35 0.00078
26.4 0.00033
26.45 0.00022
26.5 0.00013
26.55 0.00011
26.6 -0.00009
26.65 -0.00034
26.7 -0.00044
26.75 -0.00069
26.8 -0.00079
26.85 -0.00074
26.9 -0.00079
26.95 -0.00059
27 -0.00019
27.05 -0.00021
27.1 -0.00001
27.15 0.00002
27.2 -0.00026
27.25 -0.00034
27.3 -0.00051
27.35 -0.00083
27.4 -0.00107
27.45 -0.00123
27.5 -0.00126
27.55 -0.00096
27.6 -0.00071
27.65 -0.00074
27.7 -0.00054
27.75 -0.00026
27.8 0.00014
27.85 0.00041
27.9 0.00031
27.95 0.00044
28 0.0005
28.05 0.00047
28.1 0.00068
28.15 0.00082
28.2 0.0007
28.25 0.00071
28.3 0.00049
28.35 0.00003
28.4 -0.00018
28.45 -0.00055
28.5 -0.00095
28.55 -0.00094
28.6 -0.00072
28.65 -0.00081
28.7 -0.00068
28.75 -0.00059
28.8 -0.00074
28.85 -0.00046
28.9 -0.0003
28.95 -0.00006
29 0.0004
29.05 0.00096
29.1 0.00095
29.15 0.00094
29.2 0.00071
29.25 0.0005
29.3 0.0003
29.35 -0.00001
29.4 -0.0005
29.45 -0.0007
29.5 -0.00081
29.55 -0.00066
29.6 -0.00042
29.65 -0.00051
29.7 -0.00063
29.75 -0.00087
29.8 -0.00112
29.85 -0.00113
29.9 -0.00123
29.95 -0.00141
30 -0.00166
30.05 -0.00195
30.1 -0.00175
30.15 -0.0012
30.2 -0.00095
30.25 -0.0006
30.3 -0.00024
30.35 0.00022
30.4 0.00042
30.45 0.00071
30.5 0.00056
30.55 0.00018
30.6 0.00019
30.65 -0.00003
30.7 -0.00017
30.75 0.00006
30.8 0.0001
30.85 0.00015
30.9 0.00008
30.95 0.00024
31 0.00055
31.05 0.00056
31.1 0.00048
31.15 0.00054
31.2 0.00046
31.25 0.00042
31.3 0.00018
31.35 -0.00012
31.4 -0.00046
31.45 -0.00053
31.5 -0.00072
31.55 -0.00056
31.6 -0.00067
31.65 -0.00055
31.7 -0.00011
31.75 -0.00005
31.8 0.00004
31.85 -0.00013
31.9 -0.00031
31.95 -0.00068
32 -0.00088
32.05 -0.00083
32.1 -0.00089
32.15 -0.00095
32.2 -0.00061
32.25 -0.00023
32.3 0.00026
32.35 0.00059
32.4 0.00065
32.45 0.0008
32.5 0.00066
32.55 0.00031
32.6 0.00003
32.65 -0.00025
32.7 -0.00022
32.75 0.00003
32.8 0.00005
32.85 0.00026
32.9 0.00014
32.95 0.00003
33 -0.00003
33.05 -0.0001
33.1 0.00012
33.15 0.00057
33.2 0.00077
33.25 0.00083
33.3 0.00088
33.35 0.00082
33.4 0.00097
33.45 0.00119
33.5 0.00117
33.55 0.00096
33.6 0.0007
33.65 0.00024
33.7 -0.00033
33.75 -0.00092
33.8 -0.00151
33.85 -0.00203
33.9 -0.00192
33.95 -0.00157
34 -0.00124
34.05 -0.00121
34.1 -0.00121
34.15 -0.00097
34.2 -0.0009
34.25 -0.00064
34.3 -0.00022
34.35 0.00027
34.4 0.00078
34.45 0.00126
34.5 0.00166
34.55 0.00202
34.6 0.0021
34.65 0.00215
34.7 0.00218
34.75 0.00183
34.8 0.0016
34.85 0.00116
34.9 0.00067
34.95 0.00022
35 -0.00024
35.05 -0.00086
35.1 -0.00156
35.15 -0.00211
35.2 -0.00259
35.25 -0.00311
35.3 -0.00347
35.35 -0.00347
35.4 -0.00326
35.45 -0.00288
35.5 -0.00284
35.55 -0.00306
35.6 -0.00354
35.65 -0.00409
35.7 -0.0045
35.75 -0.00503
35.8 -0.00564
35.85 -0.00659
35.9 -0.00825
35.95 -0.00995
36 -0.01165
36.05 -0.01378
36.1 -0.01628
36.15 -0.01929
36.2 -0.02257
36.25 -0.02629
36.3 -0.03017
36.35 -0.03434
36.4 -0.03857
36.45 -0.04311
36.5 -0.04796
36.55 -0.05358
36.6 -0.05952
36.65 -0.06604
36.7 -0.07315
36.75 -0.08105
36.8 -0.0891
36.85 -0.09733
36.9 -0.10593
36.95 -0.11446
37 -0.12344
37.05 -0.13218
37.1 -0.14087
37.15 -0.14914
37.2 -0.15724
37.25 -0.16523
37.3 -0.17274
37.35 -0.17939
37.4 -0.18528
37.45 -0.19038
37.5 -0.19458
37.55 -0.19746
37.6 -0.19909
37.65 -0.19935
37.7 -0.19823
37.75 -0.19551
37.8 -0.19154
37.85 -0.18632
37.9 -0.17969
37.95 -0.1715
38 -0.16175
38.05 -0.15048
38.1 -0.13806
38.15 -0.12453
38.2 -0.10982
38.25 -0.09453
38.3 -0.07847
38.35 -0.06164
38.4 -0.04431
38.45 -0.02718
38.5 -0.01028
38.55 0.00665
38.6 0.02358
38.65 0.04021
38.7 0.05646
38.75 0.07206
38.8 0.08681
38.85 0.10099
38.9 0.11398
38.95 0.12633
39 0.13778
39.05 0.14794
39.1 0.15682
39.15 0.16498
39.2 0.17222
39.25 0.17842
39.3 0.18371
39.35 0.18782
39.4 0.19078
39.45 0.19276
39.5 0.19413
39.55 0.19497
39.6 0.19505
39.65 0.19476
39.7 0.19388
39.75 0.19231
39.8 0.18998
39.85 0.18716
39.9 0.18365
39.95 0.17971
40 0.17522
40.05 0.17023
40.1 0.16511
40.15 0.15963
40.2 0.1542
40.25 0.14844
40.3 0.14282
40.35 0.13671
40.4 0.13069
40.45 0.12452
40.5 0.11865
40.55 0.11298
40.6 0.10717
40.65 0.10145
40.7 0.09552
40.75 0.08971
40.8 0.08433
40.85 0.07899
40.9 0.07409
40.95 0.06949
41 0.06523
41.05 0.0614
41.1 0.05735
41.15 0.05374
41.2 0.04993
41.25 0.04624
41.3 0.04285
41.35 0.03985
41.4 0.03678
41.45 0.03418
41.5 0.03154
41.55 0.02904
41.6 0.02654
41.65 0.02453
41.7 0.0225
41.75 0.02084
41.8 0.01918
41.85 0.01757
41.9 0.01635
41.95 0.01516
42 0.01374
42.05 0.01229
42.1 0.01122
42.15 0.00996
42.2 0.0089
42.25 0.00788
42.3 0.00724
42.35 0.00655
42.4 0.00616
42.45 0.00572
42.5 0.00518
42.55 0.00478
42.6 0.00428
42.65 0.00392
42.7 0.00353
42.75 0.00284
42.8 0.0023
42.85 0.00191
42.9 0.00125
42.95 0.00037
43 -0.00036
43.05 -0.00098
43.1 -0.00149
43.15 -0.00177
43.2 -0.0024
43.25 -0.00322
43.3 -0.00415
43.35 -0.00469
43.4 -0.00503
43.45 -0.00519
43.5 -0.00558
43.55 -0.00614
43.6 -0.00662
43.65 -0.0071
43.7 -0.00732
43.75 -0.00732
43.8 -0.00764
43.85 -0.00784
43.9 -0.00835
43.95 -0.00875
44 -0.00931
44.05 -0.00995
44.1 -0.01057
44.15 -0.01101
44.2 -0.01142
44.25 -0.01184
44.3 -0.012
44.35 -0.01246
44.4 -0.01303
44.45 -0.01337
44.5 -0.0136
44.55 -0.01357
44.6 -0.01363
44.65 -0.01405
44.7 -0.01436
44.75 -0.01444
44.8 -0.01432
44.85 -0.01435
44.9 -0.01428
44.95 -0.01442
45 -0.01494
45.05 -0.01514
45.1 -0.01558
45.15 -0.01573
45.2 -0.01568
45.25 -0.01577
45.3 -0.01588
45.35 -0.01597
45.4 -0.01602
45.45 -0.01624
45.5 -0.01665
45.55 -0.01696
45.6 -0.01722
45.65 -0.01754
45.7 -0.01778
45.75 -0.01757
45.8 -0.01726
45.85 -0.01707
45.9 -0.01683
45.95 -0.01666
46 -0.01655
46.05 -0.01634
46.1 -0.01647
46.15 -0.01672
46.2 -0.01684
46.25 -0.0169
46.3 -0.01682
46.35 -0.01686
46.4 -0.01702
46.45 -0.01709
46.5 -0.01717
46.55 -0.01677
46.6 -0.01655
46.65 -0.01598
46.7 -0.01543
46.75 -0.01501
46.8 -0.01472
46.85 -0.01428
46.9 -0.01418
46.95 -0.01371
47 -0.01315
47.05 -0.01302
47.1 -0.01314
47.15 -0.0129
47.2 -0.01295
47.25 -0.0131
47.3 -0.0132
47.35 -0.01343
47.4 -0.01368
47.45 -0.01376
47.5 -0.01329
47.55 -0.01253
47.6 -0.01194
47.65 -0.01122
47.7 -0.01075
47.75 -0.01029
47.8 -0.01009
47.85 -0.01018
47.9 -0.01019
47.95 -0.01016
48 -0.0102
48.05 -0.01044
48.1 -0.01059
48.15 -0.01039
48.2 -0.01019
48.25 -0.01001
48.3 -0.00963
48.35 -0.00905
48.4 -0.00844
48.45 -0.00789
48.5 -0.00739
48.55 -0.00725
48.6 -0.00751
48.65 -0.00764
48.7 -0.00751
48.75 -0.00744
48.8 -0.00748
48.85 -0.00755
48.9 -0.00769
48.95 -0.0077
49 -0.00766
49.05 -0.00744
49.1 -0.00739
49.15 -0.00712
49.2 -0.00672
49.25 -0.00615
49.3 -0.00574
49.35 -0.00533
49.4 -0.00509
49.45 -0.00477
49.5 -0.00441
49.55 -0.00415
49.6 -0.00423
49.65 -0.00463
49.7 -0.00473
49.75 -0.00471
49.8 -0.00487
49.85 -0.00506
49.9 -0.00532
49.95 -0.00564
50 -0.0061
50.05 -0.00602
50.1 -0.00605
50.15 -0.0058
50.2 -0.00549
50.25 -0.00545
50.3 -0.00559
50.35 -0.00548
50.4 -0.00526
50.45 -0.00476
50.5 -0.00455
50.55 -0.00441
50.6 -0.00462
50.65 -0.00477
50.7 -0.00463
50.75 -0.00444
50.8 -0.00424
50.85 -0.00386
50.9 -0.00375
50.95 -0.00364
51 -0.00328
51.05 -0.00297
51.1 -0.0029
51.15 -0.00283
51.2 -0.00294
51.25 -0.00337
51.3 -0.00393
51.35 -0.00401
51.4 -0.00399
51.45 -0.00424
51.5 -0.00429
51.55 -0.00394
51.6 -0.0039
51.65 -0.0039
51.7 -0.00371
51.75 -0.00352
51.8 -0.00318
51.85 -0.0029
51.9 -0.00302
51.95 -0.00314
52 -0.00311
52.05 -0.00335
52.1 -0.00351
52.15 -0.00372
52.2 -0.004
52.25 -0.00436
52.3 -0.00428
52.35 -0.00411
52.4 -0.00396
52.45 -0.00353
52.5 -0.00288
52.55 -0.00258
52.6 -0.00211
52.65 -0.00168
52.7 -0.00124
52.75 -0.00097
52.8 -0.0007
52.85 -0.00043
52.9 -0.00047
52.95 -0.00059
53 -0.00094
53.05 -0.00127
53.1 -0.00157
53.15 -0.0016
53.2 -0.00184
53.25 -0.0019
53.3 -0.00178
53.35 -0.0016
53.4 -0.00154
53.45 -0.00122
53.5 -0.00135
53.55 -0.00152
53.6 -0.00171
53.65 -0.00202
53.7 -0.00212
53.75 -0.00239
53.8 -0.00236
53.85 -0.00218
53.9 -0.00204
53.95 -0.00207
54 -0.00198
54.05 -0.00193
54.1 -0.00199
54.15 -0.00216
54.2 -0.00197
54.25 -0.00165
54.3 -0.0015
54.35 -0.00168
54.4 -0.00208
54.45 -0.00208
54.5 -0.00199
54.55 -0.0019
54.6 -0.00174
54.65 -0.00139
54.7 -0.00123
54.75 -0.00099
54.8 -0.00075
54.85 -0.00066
54.9 -0.00068
54.95 -0.00064
55 -0.00062
55.05 -0.00075
55.1 -0.00055
55.15 -0.00057
55.2 -0.00045
55.25 -0.00065
55.3 -0.00087
55.35 -0.00125
55.4 -0.0012
55.45 -0.00134
55.5 -0.00123
55.55 -0.00123
55.6 -0.00115
55.65 -0.00125
55.7 -0.00106
55.75 -0.00065
55.8 -0.00043
55.85 -0.00053
55.9 -0.00054
55.95 -0.00043
56 -0.00065
56.05 -0.00103
56.1 -0.00094
56.15 -0.0011
56.2 -0.00135
56.25 -0.00143
56.3 -0.00159
56.35 -0.00177
56.4 -0.00198
56.45 -0.00218
56.5 -0.00236
56.55 -0.00249
56.6 -0.00254
56.65 -0.00228
56.7 -0.00187
56.75 -0.0014
56.8 -0.00086
56.85 -0.00039
56.9 0.00012
56.95 0.0007
57 0.00101
57.05 0.00099
57.1 0.00107
57.15 0.00104
57.2 0.00113
57.25 0.00101
57.3 0.00101
57.35 0.00082
57.4 0.00045
57.45 -0.00016
57.5 -0.0008
57.55 -0.00109
57.6 -0.00139
57.65 -0.00127
57.7 -0.00126
57.75 -0.00119
57.8 -0.00136
57.85 -0.00149
57.9 -0.00141
57.95 -0.00097
58 -0.00071
58.05 -0.00049
58.1 -0.0002
58.15 0.00023
58.2 0.00072
58.25 0.00074
58.3 0.00036
58.35 0.00036
58.4 0.00032
58.45 0.00031
58.5 0.00044
58.55 0.00025
58.6 -0.00011
58.65 -0.00041
58.7 -0.00042
58.75 -0.00059
58.8 -0.0005
58.85 -0.00027
58.9 -0.00037
58.95 -0.00054
59 -0.00081
59.05 -0.00103
59.1 -0.0013
59.15 -0.00123
59.2 -0.00135
59.25 -0.00138
59.3 -0.00132
59.35 -0.00116
59.4 -0.00085
59.45 -0.00062
59.5 -0.00035
59.55 -0.00032
59.6 -0.00027
59.65 0.00003
59.7 0.00007
59.75 0.00021
59.8 0.00037
59.85 0.00054
59.9 0.00069
59.95 0.00082
60 0.00077
60.05 0.00068
60.1 0.00062
60.15 0.00061
60.2 0.00044
60.25 -0.00004
60.3 -0.00045
60.35 -0.00074
60.4 -0.00083
60.45 -0.00066
60.5 -0.00038
60.55 -0.00027
60.6 -0.00047
60.65 -0.00036
60.7 -0.0001
60.75 -0.0001
60.8 -0.0001
60.85 0.00004
60.9 0.00017
60.95 0.00037
61 0.00036
61.05 0.00005
61.1 -0.00028
61.15 -0.00066
61.2 -0.00081
61.25 -0.00094
61.3 -0.0007
61.35 -0.00026
61.4 0.00023
61.45 0.00042
61.5 0.0004
61.55 0.00042
61.6 0.00025
61.65 -0.00019
61.7 -0.00036
61.75 -0.00057
61.8 -0.00091
61.85 -0.00136
61.9 -0.00141
61.95 -0.00109
62 -0.00099
62.05 -0.00099
62.1 -0.00102
62.15 -0.00083
62.2 -0.00079
62.25 -0.00058
62.3 -0.00019
62.35 -0.00023
62.4 -0.00025
62.45 -0.00032
62.5 -0.00009
62.55 -0.00021
62.6 -0.0001
62.65 -0.00033
62.7 -0.00065
62.75 -0.00108
62.8 -0.00131
62.85 -0.00131
62.9 -0.00109
62.95 -0.00103
63 -0.00105
63.05 -0.00127
63.1 -0.00111
63.15 -0.00096
63.2 -0.00048
63.25 0.00011
63.3 0.00058
63.35 0.00064
63.4 0.00076
63.45 0.0005
63.5 0.00054
63.55 0.00064
63.6 0.00041
63.65 -0.00005
63.7 -0.0006
63.75 -0.00068
63.8 -0.00038
63.85 -0.00001
63.9 0.00042
63.95 0.00053
64 0.00042
64.05 0.00021
64.1 0.00014
64.15 0.00025
64.2 0.00058
64.25 0.00072
64.3 0.00104
64.35 0.00113
64.4 0.00103
64.45 0.00076
64.5 0.00077
64.55 0.00062
64.6 0.00076
64.65 0.00095
64.7 0.00069
64.75 0.00042
64.8 0.00011
64.85 -0.00035
64.9 -0.00059
64.95 -0.00071
65 -0.00066
65.05 -0.00037
65.1 0.00011
65.15 0.00034
65.2 0.00042
65.25 0.00051
65.3 0.00068
65.35 0.00076
65.4 0.00063
65.45 0.0006
65.5 0.00037
65.55 0.00027
65.6 0.00046
65.65 0.00051
65.7 0.00058
65.75 0.0004
65.8 0.00016
65.85 -0.00004
65.9 0.00001
65.95 0.00004
66 -0.00022
66.05 -0.00012
66.1 -0.00028
66.15 -0.00034
66.2 -0.00058
66.25 -0.00086
66.3 -0.00101
66.35 -0.00089
66.4 -0.00098
66.45 -0.00108
66.5 -0.00103
66.55 -0.00108
66.6 -0.00094
66.65 -0.00092
66.7 -0.00062
66.75 -0.00038
66.8 -0.00021
66.85 0.00014
66.9 0.00012
66.95 -0.00004
67 -0.0004
67.05 -0.00032
67.1 0.00005
67.15 0.00007
67.2 -0.00016
67.25 -0.00006
67.3 -0.00027
67.35 -0.00065
67.4 -0.00111
67.45 -0.00151
67.5 -0.00168
67.55 -0.00158
67.6 -0.00155
67.65 -0.00156
67.7 -0.00114
67.75 -0.00073
67.8 -0.00056
67.85 -0.0004
67.9 -0.00005
67.95 0.00018
68 0.00031
68.05 0.00034
68.1 0.00026
68.15 0.00047
68.2 0.0006
68.25 0.00043
68.3 0.00014
68.35 -0.00031
68.4 -0.00081
68.45 -0.00128
68.5 -0.00151
68.55 -0.00146
68.6 -0.00148
68.65 -0.00142
68.7 -0.00141
68.75 -0.00107
68.8 -0.00057
68.85 0
68.9 0.00015
68.95 0.00012
69 0.00022
69.05 0.00029
69.1 0.00048
69.15 0.00066
69.2 0.0005
69.25 0.00042
69.3 0.0002
69.35 0.00021
69.4 0.00012
69.45 0.0003
69.5 0.0006
69.55 0.00072
69.6 0.00063
69.65 0.00059
69.7 0.00072
69.75 0.00071
69.8 0.00077
69.85 0.00091
69.9 0.00115
69.95 0.00121
70 0.00132
70.05 0.00099
70.1 0.00056
70.15 0.00054
70.2 0.00027
70.25 -0.00002
70.3 -0.00037
70.35 -0.00067
70.4 -0.00079
70.45 -0.00082
70.5 -0.00089
70.55 -0.00103
70.6 -0.00084
70.65 -0.00088
70.7 -0.00065
70.75 -0.0004
70.8 -0.00049
70.85 -0.00072
70.9 -0.00071
70.95 -0.00063
71 -0.00081
71.05 -0.00085
71.1 -0.00091
71.15 -0.00059
71.2 -0.00046
71.25 -0.0005
71.3 -0.00051
71.35 -0.00059
71.4 -0.00082
71.45 -0.00107
71.5 -0.00102
71.55 -0.0007
71.6 -0.00023
71.65 0.00006
71.7 0.00043
71.75 0.00094
71.8 0.00089
71.85 0.00063
71.9 0.00062
71.95 0.0008
72 0.00061
72.05 0.00053
72.1 0.00063
72.15 0.00039
72.2 0.00032
72.25 0.00028
72.3 0.0003
72.35 0.00012
72.4 -0.00027
72.45 -0.00048
72.5 -0.00068
72.55 -0.00045
72.6 -0.00052
72.65 -0.00064
72.7 -0.00054
72.75 -0.00034
72.8 0.00006
72.85 0.00027
72.9 0.0005
72.95 0.00045
73 0.00045
73.05 0.00031
73.1 0.00039
73.15 0.00064
73.2 0.00076
73.25 0.00091
73.3 0.00115
73.35 0.00105
73.4 0.00067
73.45 0.00059
73.5 0.00054
73.55 0.00045
73.6 0.00063
73.65 0.00084
73.7 0.00068
73.75 0.0003
73.8 0.00026
73.85 0.00035
73.9 0.00038
73.95 0.00022
74 0.00037
74.05 0.00051
74.1 0.00073
74.15 0.00104
74.2 0.00129
74.25 0.00124
74.3 0.00107
74.35 0.00071
74.4 0.00045
74.45 0.0004
74.5 0.0001
74.55 0.00006
74.6 -0.00011
74.65 -0.00005
74.7 -0.0001
74.75 -0.00035
74.8 -0.0002
74.85 -0.00034
74.9 -0.00025
74.95 -0.00026
75 -0.00008
75.05 0.00007
75.1 -0.00016
75.15 -0.00037
75.2 -0.00058
75.25 -0.00092
75.3 -0.00133
75.35 -0.00163
75.4 -0.0017
75.45 -0.00154
75.5 -0.00105
75.55 -0.00069
75.6 -0.00034
75.65 0.00006
75.7 0.00021
75.75 0.00045
75.8 0.00042
75.85 0.00017
75.9 -0.00016
75.95 -0.00022
76 -0.00016
76.05 0.00018
76.1 0.00012
76.15 -0.00004
76.2 -0.00017
76.25 -0.00038
76.3 -0.00037
76.35 -0.00031
76.4 -0.00054
76.45 -0.00069
76.5 -0.00096
76.55 -0.00105
76.6 -0.00106
76.65 -0.00117
76.7 -0.00141
76.75 -0.00131
76.8 -0.00114
76.85 -0.00096
76.9 -0.00057
76.95 -0.00045
77 -0.00027
77.05 -0.0004
77.1 -0.00015
77.15 -0.00026
77.2 -0.00032
77.25 -0.00012
77.3 -0.00008
77.35 -0.00011
77.4 -0.00025
77.45 -0.00014
77.5 0.00013
77.55 0.00022
77.6 0.00044
77.65 0.0004
77.7 0.00015
77.75 -0.00014
77.8 -0.00041
77.85 -0.00079
77.9 -0.00083
77.95 -0.0008
78 -0.00092
78.05 -0.00113
78.1 -0.00099
78.15 -0.0009
78.2 -0.00059
78.25 -0.00036
78.3 0.00003
78.35 0.00028
78.4 0.00064
78.45 0.001
78.5 0.00102
78.55 0.00103
78.6 0.00112
78.65 0.00138
78.7 0.00148
78.75 0.00156
78.8 0.00131
78.85 0.00078
78.9 0.00068
78.95 0.00041
79 0.00048
79.05 0.00036
79.1 0.00012
79.15 0.00004
79.2 -0.00015
79.25 -0.0002
79.3 -0.0002
79.35 -0.00007
79.4 -0.00006
79.45 -0.00034
79.5 -0.00043
79.55 -0.00056
79.6 -0.00028
79.65 -0.00009
79.7 -0.00014
79.75 -0.00013
79.8 -0.00014
79.85 -0.00008
79.9 0.00001
79.95 0.00018
80 0.00002
80.05 -0.00023
80.1 -0.00015
80.15 -0.00025
80.2 -0.00013
80.25 0.00024
80.3 0.00059
80.35 0.00078
80.4 0.00111
80.45 0.00142
80.5 0.00135
80.55 0.00136
80.6 0.001
80.65 0.00068
80.7 0.00019
80.75 0.00002
80.8 -0.00021
80.85 -0.00038
80.9 -0.00073
80.95 -0.0008
81 -0.00052
81.05 -0.00046
81.1 -0.00016
81.15 -0.0002
81.2 -0.00046
81.25 -0.00033
81.3 -0.00037
81.35 -0.00056
81.4 -0.00042
81.45 -0.00051
81.5 -0.0008
81.55 -0.0007
81.6 -0.00035
81.65 -0.00008
81.7 -0.00001
81.75 -0.00025
81.8 -0.00007
81.85 0.00018
81.9 0.00012
81.95 -0.00019
82 -0.00048
82.05 -0.00058
82.1 -0.00072
82.15 -0.00094
82.2 -0.00092
82.25 -0.00109
82.3 -0.00093
82.35 -0.00047
82.4 -0.00005
82.45 0.00025
82.5 0.00069
82.55 0.00105
82.6 0.00132
82.65 0.00156
82.7 0.00155
82.75 0.00122
82.8 0.00102
82.85 0.001
82.9 0.00111
82.95 0.00115
83 0.00136
83.05 0.00125
83.1 0.00129
83.15 0.00131
83.2 0.00096
83.25 0.00051
83.3 0.00045
83.35 0.00064
83.4 0.00077
83.45 0.00055
83.5 0.00011
83.55 -0.00045
83.6 -0.00105
83.65 -0.00141
83.7 -0.00152
83.75 -0.00171
83.8 -0.00195
83.85 -0.0019
83.9 -0.00159
83.95 -0.00117
84 -0.00102
84.05 -0.00106
84.1 -0.00107
84.15 -0.00086
84.2 -0.00041
84.25 0.0002
84.3 0.00032
84.35 0.0004
84.4 0.00055
84.45 0.00063
84.5 0.00033
84.55 0.00004
84.6 0.00012
84.65 0.00043
84.7 0.00047
84.75 0.00015
84.8 -0.00014
84.85 -0.00005
84.9 0.0003
84.95 0.0006
85 0.00058
85.05 0.00048
85.1 0.00026
85.15 -0.00011
85.2 -0.00014
85.25 -0.00016
85.3 -0.00002
85.35 -0.00014
85.4 -0.00005
85.45 -0.00014
85.5 0.00012
85.55 0.00002
85.6 -0.00018
85.65 -0.00035
85.7 -0.00031
85.75 -0.00028
85.8 -0.00028
85.85 -0.00042
85.9 -0.00072
85.95 -0.00104
86 -0.00119
86.05 -0.00118
86.1 -0.0011
86.15 -0.00089
86.2 -0.00073
86.25 -0.00058
86.3 -0.00052
86.35 -0.00016
86.4 0.00016
86.45 0.00054
86.5 0.00044
86.55 0.00058
86.6 0.00071
86.65 0.00081
86.7 0.00072
86.75 0.00079
86.8 0.00053
86.85 0.00054
86.9 0.0007
86.95 0.00099
87 0.00116
87.05 0.00111
87.1 0.00119
87.15 0.00091
87.2 0.00038
87.25 -0.00027
87.3 -0.00066
87.35 -0.00087
87.4 -0.001
87.45 -0.00117
87.5 -0.0013
87.55 -0.0012
87.6 -0.00075
87.65 -0.00027
87.7 0.0003
87.75 0.00063
87.8 0.00076
87.85 0.00086
87.9 0.00105
87.95 0.00102
88 0.00069
88.05 0.00021
88.1 -0.00019
88.15 -0.00056
88.2 -0.001
88.25 -0.00148
88.3 -0.00178
88.35 -0.0018
88.4 -0.00161
88.45 -0.00129
88.5 -0.00119
88.55 -0.00081
88.6 -0.00018
88.65 0.00038
88.7 0.00063
88.75 0.00069
88.8 0.00087
88.85 0.00068
88.9 0.00045
88.95 0.00044
89 0.00058
89.05 0.00035
89.1 -0.00002
89.15 -0.00004
89.2 -0.00028
89.25 -0.00042
89.3 -0.00076
89.35 -0.00112
89.4 -0.00125
89.45 -0.00118
89.5 -0.0013
89.55 -0.00113
89.6 -0.00073
89.65 -0.00014
89.7 0.00047
89.75 0.00091
89.8 0.00117
89.85 0.00121
89.9 0.00108
89.95 0.00099
90 0.00086
90.05 0.00057
90.1 0.00051
90.15 0.0002
90.2 -0.00026
90.25 -0.00072
90.3 -0.00068
90.35 -0.00062
90.4 -0.00022
90.45 -0.00006
90.5 0.0001
90.55 0.00008
90.6 0.00005
90.65 0.00028
90.7 0.00024
90.75 0.0002
90.8 0.00023
90.85 0.00013
90.9 0.00014
90.95 0.00018
91 0.00029
91.05 0.00022
91.1 0.00012
91.15 0.0001
91.2 0.00002
91.25 -0.00008
91.3 -0.00027
91.35 -0.00055
91.4 -0.00071
91.45 -0.00101
91.5 -0.00129
91.55 -0.00126
91.6 -0.00104
91.65 -0.001
91.7 -0.00089
91.75 -0.00045
91.8 0.0001
91.85 0.00071
91.9 0.00094
91.95 0.00099
92 0.00078
92.05 0.00046
92.1 0.00049
92.15 0.00036
92.2 0.00021
92.25 0.00028
92.3 0.00052
92.35 0.00042
92.4 0.0003
92.45 0.00002
92.5 0.0001
92.55 0.00039
92.6 0.00046
92.65 0.00029
92.7 0.00022
92.75 0.00003
92.8 -0.00009
92.85 -0.00032
92.9 -0.0006
92.95 -0.00099
93 -0.00134
93.05 -0.0016
93.1 -0.00142
93.15 -0.0011
93.2 -0.00103
93.25 -0.00086
93.3 -0.00065
93.35 -0.00038
93.4 -0.00028
93.45 -0.00013
93.5 -0.00004
93.55 0.00032
93.6 0.00064
93.65 0.00064
93.7 0.0005
93.75 0.00014
93.8 -0.00023
93.85 -0.00041
93.9 -0.00071
93.95 -0.00112
94 -0.00127
94.05 -0.00152
94.1 -0.00125
94.15 -0.0012
94.2 -0.00134
94.25 -0.00098
94.3 -0.00069
94.35 -0.00056
94.4 -0.00063
94.45 -0.00043
94.5 -0.00008
94.55 0.00016
94.6 0.00044
94.65 0.00076
94.7 0.001
94.75 0.00087
94.8 0.00092
94.85 0.00084
94.9 0.00097
94.95 0.00106
95 0.00126
95.05 0.00139
95.1 0.00122
95.15 0.00073
95.2 0.00037
95.25 0.00039
95.3 0.00021
95.35 0.00036
95.4 0.00069
95.45 0.00071
95.5 0.00097
95.55 0.00126
95.6 0.00131
95.65 0.00112
95.7 0.00109
95.75 0.00102
95.8 0.00072
95.85 0.00061
95.9 0.00073
95.95 0.00075
96 0.00062
96.05 0.00043
96.1 0.00044
96.15 0.00031
96.2 0.00017
96.25 -0.00023
96.3 -0.00028
96.35 -0.00059
96.4 -0.00059
96.45 -0.0003
96.5 0.00011
96.55 0.00006
96.6 0.0003
96.65 0.00035
96.7 0.0005
96.75 0.00051
96.8 0.00065
96.85 0.00089
96.9 0.00076
96.95 0.00053
97 0.00041
97.05 0.00047
97.1 0.00064
97.15 0.00088
97.2 0.00119
97.25 0.00102
97.3 0.0007
97.35 0.0003
97.4 0.00019
97.45 -0.00007
97.5 -0.00024
97.55 -0.00023
97.6 -0.00023
97.65 -0.00013
97.7 -0.00026
97.75 -0.00052
97.8 -0.0008
97.85 -0.00106
97.9 -0.00105
97.95 -0.00069
98 -0.00015
98.05 -0.00006
98.1 -0.00001
98.15 -0.00012
98.2 -0.00044
98.25 -0.00051
98.3 -0.00057
98.35 -0.00064
98.4 -0.00051
98.45 -0.00048
98.5 -0.00061
98.55 -0.00054
98.6 -0.00065
98.65 -0.00068
98.7 -0.00042
98.75 -0.00031
98.8 -0.00004
98.85 -0.00004
98.9 0.00008
98.95 -0.0001
99 -0.00013
99.05 0.00003
99.1 0.00006
99.15 0.00004
99.2 0.00011
99.25 0.00039
99.3 0.00072
99.35 0.00069
99.4 0.00031
99.45 0.00023
99.5 0.00036
99.55 0.00041
99.6 0.00035
99.65 0.00029
99.7 0.00048
99.75 0.00027
99.8 0.00034
99.85 0.00021
99.9 0.00038
99.95 0.00022
