0 0
0.05 0.00048
0.1 0.00087
0.15 0.00196
0.2 0.00388
0.25 0.00514
0.3 0.0055
0.35 0.00663
0.4 0.00735
0.45 0.00858
0.5 0.00905
0.55 0.00985
0.6 0.01064
0.65 0.01079
0.7 0.01104
0.75 0.01096
0.8 0.01125
0.85 0.01089
0.9 0.01017
0.95 0.00953
1 0.00854
1.05 0.00835
1.1 0.00815
1.15 0.00717
1.2 0.00645
1.25 0.00558
1.3 0.0045
1.35 0.00461
1.4 0.00418
1.45 0.0038
1.5 0.00435
1.55 0.00416
1.6 0.00447
1.65 0.00448
1.7 0.0053
1.75 0.0052
1.8 0.00487
1.85 0.00417
1.9 0.0035
1.95 0.00321
2 0.00251
2.05 0.00215
2.1 0.00175
2.15 0.00208
2.2 0.00216
2.25 0.00257
2.3 0.00369
2.35 0.00517
2.4 0.00584
2.45 0.00558
2.5 0.00463
2.55 0.00431
2.6 0.00361
2.65 0.00374
2.7 0.00327
2.75 0.00239
2.8 0.0023
2.85 0.00298
2.9 0.00355
2.95 0.00459
3 0.00463
3.05 0.00485
3.1 0.00553
3.15 0.00605
3.2 0.0069
3.25 0.00743
3.3 0.00817
3.35 0.00877
3.4 0.00817
3.45 0.00679
3.5 0.00613
3.55 0.00571
3.6 0.00466
3.65 0.00325
3.7 0.00269
3.75 0.00281
3.8 0.0028
3.85 0.0026
3.9 0.00233
3.95 0.00289
4 0.00316
4.05 0.00387
4.1 0.00413
4.15 0.00346
4.2 0.00271
4.25 0.00283
4.3 0.00234
4.35 0.00167
4.4 0.00165
4.45 0.00156
4.5 0.0014
4.55 0.00145
4.6 0.00135
4.65 0.00204
4.7 0.00204
4.75 0.00209
4.8 0.00142
4.85 0.00035
4.9 0.00047
4.95 0.00032
5 0.00042
5.05 0.00046
5.1 0.00094
5.15 0.00069
5.2 0.00021
5.25 0.00061
5.3 0.00085
5.35 0.00116
5.4 0.00172
5.45 0.00242
5.5 0.0028
5.55 0.00241
5.6 0.00243
5.65 0.0022
5.7 0.00264
5.75 0.00309
5.8 0.00336
5.85 0.00319
5.9 0.0033
5.95 0.00376
6 0.00368
6.05 0.00315
6.1 0.00193
6.15 0.00141
6.2 0.00154
6.25 0.00165
6.3 0.00186
6.35 0.00138
6.4 0.00158
6.45 0.00162
6.5 0.00096
6.55 0.0004
6.6 -0.0002
6.65 -0.00046
6.7 0.00012
6.75 -0
6.8 0.00047
6.85 0.00045
6.9 0.00119
6.95 0.00186
7 0.00203
7.05 0.00131
7.1 0.00039
7.15 -0.00075
7.2 -0.00201
7.25 -0.00266
7.3 -0.00292
7.35 -0.00292
7.4 -0.00218
7.45 -0.0021
7.5 -0.00229
7.55 -0.00188
7.6 -0.00071
7.65 -0.00004
7.7 0.00036
7.75 0.00118
7.8 0.00182
7.85 0.00212
7.9 0.00295
7.95 0.00286
8 0.00229
8.05 0.00245
8.1 0.00308
8.15 0.0036
8.2 0.00322
8.25 0.00325
8.3 0.00269
8.35 0.00217
8.4 0.00214
8.45 0.00198
8.5 0.0022
8.55 0.00231
8.6 0.00203
8.65 0.00189
8.7 0.00105
8.75 0.00107
8.8 0.0012
8.85 0.00079
8.9 0.00003
8.95 -0.00011
9 0.0004
9.05 0.00137
9.1 0.00138
9.15 0.00072
9.2 -0.00012
9.25 -0.00068
9.3 -0.00107
9.35 -0.00191
9.4 -0.00291
9.45 -0.0026
9.5 -0.00187
9.55 -0.00104
9.6 -0.00099
9.65 -0.00036
9.7 0.00066
9.75 0.00154
9.8 0.00174
9.85 0.0022
9.9 0.0018
9.95 0.00184
10 0.00238
10.05 0.00214
10.1 0.00167
10.15 0.00052
10.2 0.00041
10.25 0.00091
10.3 0.00118
10.35 0.00109
10.4 0.0015
10.45 0.00149
10.5 0.00192
10.55 0.00178
10.6 0.00223
10.65 0.00274
10.7 0.003
10.75 0.003
10.8 0.00319
10.85 0.00353
10.9 0.0038
10.95 0.00434
11 0.00411
11.05 0.00396
11.1 0.00351
11.15 0.00298
11.2 0.00286
11.25 0.00322
11.3 0.00283
11.35 0.00275
11.4 0.00176
11.45 0.00048
11.5 0.00011
11.55 -0.00058
11.6 -0.00035
11.65 -0.00095
11.7 -0.00157
11.75 -0.0017
11.8 -0.00129
11.85 -0.00138
11.9 -0.00175
11.95 -0.00147
12 -0.00105
12.05 -0.00045
12.1 -0.00005
12.15 0.00034
12.2 0.00063
12.25 0.00142
12.3 0.00155
12.35 0.00189
12.4 0.00189
12.45 0.00125
12.5 0.00078
12.55 0.00059
12.6 -0.00023
12.65 -0.00016
12.7 0.0003
12.75 0.00076
12.8 0.00097
12.85 0.00134
12.9 0.00166
12.95 0.00221
13 0.0028
13.05 0.00309
13.1 0.00225
13.15 0.00081
13.2 -0.00019
13.25 -0.00098
13.3 -0.00183
13.35 -0.00268
13.4 -0.0034
13.45 -0.00386
13.5 -0.00444
13.55 -0.00401
13.6 -0.00345
13.65 -0.00252
13.7 -0.00108
13.75 0.00002
13.8 0.00049
13.85 0.00125
13.9 0.00107
13.95 0.00118
14 0.00067
14.05 0.00023
14.1 -0.00064
14.15 -0.00085
14.2 -0.00158
14.25 -0.00145
14.3 -0.00068
14.35 0.00017
14.4 0.00089
14.45 0.00112
14.5 0.00104
14.55 0.00065
14.6 0.00026
14.65 -0.00007
14.7 -0.00081
14.75 -0.00099
14.8 -0.00068
14.85 -0.00096
14.9 -0.00134
14.95 -0.00087
15 -0.00124
15.05 -0.00205
15.1 -0.00307
15.15 -0.003
15.2 -0.00233
15.25 -0.0012
15.3 -0.0003
15.35 0.00087
15.4 0.00219
15.45 0.00214
15.5 0.00125
15.55 0.00054
15.6 0.00052
15.65 0.00054
15.7 0.00099
15.75 0.00133
15.8 0.00161
15.85 0.00149
15.9 0.00147
15.95 0.00126
16 0.00119
16.05 0.00152
16.1 0.00131
16.15 0.00053
16.2 0.00016
16.25 0.00024
16.3 0.00055
16.35 0.00053
16.4 0.00076
16.45 0.00088
16.5 0.00117
16.55 0.00151
16.6 0.00187
16.65 0.00116
16.7 0.00026
16.75 -0.00089
16.8 -0.00209
16.85 -0.00251
16.9 -0.00324
16.95 -0.00389
17 -0.00474
17.05 -0.00557
17.1 -0.00499
17.15 -0.00414
17.2 -0.00301
17.25 -0.00222
17.3 -0.00174
17.35 -0.00114
17.4 -0.00133
17.45 -0.00127
17.5 -0.00142
17.55 -0.0013
17.6 -0.00133
17.65 -0.00145
17.7 -0.00085
17.75 -0.00017
17.8 0.0004
17.85 0.00077
17.9 0.00058
17.95 0.0002
18 -0.00011
18.05 -0.00064
18.1 -0.00093
18.15 -0.00141
18.2 -0.00219
18.25 -0.00202
18.3 -0.0011
18.35 0.00019
18.4 0.00042
18.45 0.00019
18.5 0.0004
18.55 0.00103
18.6 0.00146
18.65 0.00147
18.7 0.0012
18.75 0.00079
18.8 0.00088
18.85 0.00058
18.9 -0.00014
18.95 -0.00094
19 -0.00193
19.05 -0.0017
19.1 -0.00115
19.15 -0.00136
19.2 -0.00078
19.25 0.00027
19.3 0.00047
19.35 0.001
19.4 0.00067
19.45 0.00038
19.5 0.00062
19.55 0.00072
19.6 0.00001
19.65 -0.0008
19.7 -0.001
19.75 -0.00046
19.8 -0.00041
19.85 -0.00034
19.9 -0.00011
19.95 0.00065
20 0.00063
20.05 0.00025
20.1 0.00042
20.15 0.00064
20.2 0.00112
20.25 0.00151
20.3 0.0018
20.35 0.0013
20.4 0.00132
20.45 0.00146
20.5 0.00098
20.55 -0.00006
20.6 -0.00125
20.65 -0.00248
20.7 -0.00302
20.75 -0.00268
20.8 -0.00182
20.85 -0.00116
20.9 -0.00133
20.95 -0.00107
21 -0.00035
21.05 0.00035
21.1 0.00098
21.15 0.00071
21.2 0.00111
21.25 0.0019
21.3 0.00239
21.35 0.0018
21.4 0.00095
21.45 -0.00038
21.5 -0.00114
21.55 -0.00106
21.6 -0.00036
21.65 0.00041
21.7 0.00022
21.75 0.00046
21.8 0.00065
21.85 0.00111
21.9 0.0019
21.95 0.00233
22 0.00171
22.05 0.00133
22.1 0.0015
22.15 0.00127
22.2 0.00043
22.25 -0.00032
22.3 -0.00131
22.35 -0.00205
22.4 -0.00285
22.45 -0.00289
22.5 -0.00341
22.55 -0.00384
22.6 -0.00371
22.65 -0.0033
22.7 -0.00322
22.75 -0.00315
22.8 -0.00244
22.85 -0.00148
22.9 -0.00063
22.95 0.00001
23 0.00101
23.05 0.00105
23.1 0.00145
23.15 0.00179
23.2 0.00179
23.25 0.00127
23.3 0.0014
23.35 0.00155
23.4 0.0021
23.45 0.00167
23.5 0.00067
23.55 -0.00009
23.6 -0.00043
23.65 -0.00104
23.7 -0.00171
23.75 -0.00192
23.8 -0.00252
23.85 -0.00229
23.9 -0.0024
23.95 -0.0028
24 -0.00288
24.05 -0.00244
24.1 -0.00241
24.15 -0.00256
24.2 -0.00281
24.25 -0.003
24.3 -0.00332
24.35 -0.00376
24.4 -0.00427
24.45 -0.00401
24.5 -0.00335
24.55 -0.00249
24.6 -0.00151
24.65 -0.0005
24.7 0.0006
24.75 0.00114
24.8 0.0009
24.85 0.00121
24.9 0.00093
24.95 0.00142
25 0.00104
25.05 0.00137
25.1 0.00143
25.15 0.00208
25.2 0.00162
25.25 0.00159
25.3 0.00157
25.35 0.00131
25.4 0.00153
25.45 0.00138
25.5 0.00183
25.55 0.00199
25.6 0.0014
25.65 0.00066
25.7 0.00063
25.75 0.00047
25.8 0.00063
25.85 0.00073
25.9 0.00014
25.95 -0.00039
26 -0.00056
26.05 -0.0008
26.1 -0.0009
26.15 -0.00051
26.2 -0.00092
26.25 -0.00101
26.3 -0.0005
26.35 -0.00081
26.4 -0.00064
26.45 -0.00063
26.5 -0.00115
26.55 -0.0007
26.6 -0.00059
26.65 0.00013
26.7 0.00074
26.75 0.00113
26.8 0.00189
26.85 0.00197
26.9 0.00244
26.95 0.00296
27 0.00351
27.05 0.00366
27.1 0.00339
27.15 0.00302
27.2 0.00302
27.25 0.00294
27.3 0.00246
27.35 0.00137
27.4 -0.00017
27.45 -0.00073
27.5 -0.00049
27.55 -0.00064
27.6 -0.00093
27.65 -0.00116
27.7 -0.00149
27.75 -0.00203
27.8 -0.0026
27.85 -0.00225
27.9 -0.00185
27.95 -0.00116
28 0.00007
28.05 0.00132
28.1 0.00166
28.15 0.00123
28.2 0.00114
28.25 0.00074
28.3 -0.00031
28.35 -0.00061
28.4 -0.00138
28.45 -0.00145
28.5 -0.00196
28.55 -0.002
28.6 -0.00208
28.65 -0.00248
28.7 -0.00255
28.75 -0.00191
28.8 -0.00106
28.85 -0.00074
28.9 0.0001
28.95 0.00108
29 0.00233
29.05 0.00341
29.1 0.00433
29.15 0.00512
29.2 0.00545
29.25 0.00532
29.3 0.00534
29.35 0.00459
29.4 0.0042
29.45 0.00326
29.5 0.00247
29.55 0.00113
29.6 -0.0006
29.65 -0.00186
29.7 -0.0031
29.75 -0.00436
29.8 -0.00536
29.85 -0.00631
29.9 -0.00653
29.95 -0.00593
30 -0.00465
30.05 -0.00363
30.1 -0.00318
30.15 -0.00216
30.2 -0.00204
30.25 -0.00123
30.3 -0.0013
30.35 -0.00142
30.4 -0.00085
30.45 -0.00017
30.5 0.00004
30.55 -0.0002
30.6 0.00013
30.65 0.00083
30.7 0.00186
30.75 0.0018
30.8 0.00219
30.85 0.00245
30.9 0.0026
30.95 0.00228
31 0.00234
31.05 0.00227
31.1 0.00233
31.15 0.00178
31.2 0.00061
31.25 -0.00083
31.3 -0.00127
31.35 -0.00161
31.4 -0.00116
31.45 -0.0002
31.5 0.00075
31.55 0.00096
31.6 0.00048
31.65 0.00071
31.7 0.00077
31.75 0.00014
31.8 -0.00064
31.85 -0.00154
31.9 -0.00167
31.95 -0.00223
32 -0.00258
32.05 -0.00207
32.1 -0.00145
32.15 -0.00084
32.2 -0.00099
32.25 -0.00171
32.3 -0.00132
32.35 -0.0005
32.4 -0.00008
32.45 -0.00013
32.5 0.00006
32.55 0.00047
32.6 0.00122
32.65 0.00173
32.7 0.0012
32.75 0.00051
32.8 -0.0004
32.85 -0.00099
32.9 -0.00121
32.95 -0.00146
33 -0.00083
33.05 -0.0002
33.1 0.00093
33.15 0.00142
33.2 0.00091
33.25 0.00044
33.3 0.00046
33.35 0.00008
33.4 -0.00026
33.45 -0.00093
33.5 -0.00199
33.55 -0.0027
33.6 -0.00327
33.65 -0.0038
33.7 -0.00408
33.75 -0.00338
33.8 -0.0032
33.85 -0.003
33.9 -0.00253
33.95 -0.00252
34 -0.00271
34.05 -0.00268
34.1 -0.00295
34.15 -0.00229
34.2 -0.00094
34.25 -0.00041
34.3 -0.00038
34.35 -0.00098
34.4 -0.00054
34.45 0.00022
34.5 0.00081
34.55 0.00097
34.6 0.00064
34.65 0.00049
34.7 0.00077
34.75 0.00089
34.8 0.00159
34.85 0.00229
34.9 0.00295
34.95 0.00281
35 0.00307
35.05 0.0035
35.1 0.00415
35.15 0.00454
35.2 0.00484
35.25 0.00505
35.3 0.00452
35.35 0.0042
35.4 0.00332
35.45 0.00272
35.5 0.00263
35.55 0.00185
35.6 0.00115
35.65 0.00066
35.7 0.0008
35.75 0.00049
35.8 -0.00024
35.85 -0.00005
35.9 0.00058
35.95 0.00137
36 0.00139
36.05 0.00052
36.1 0.00012
36.15 -0.00004
36.2 -0.00042
36.25 -0.00027
36.3 0.00005
36.35 0.00084
36.4 0.00114
36.45 0.00047
36.5 0.00034
36.55 0.00004
36.6 -0.00044
36.65 -0.00062
36.7 -0.00017
36.75 -0.00062
36.8 -0.00151
36.85 -0.00201
36.9 -0.00278
36.95 -0.00288
37 -0.00227
37.05 -0.00101
37.1 0.00041
37.15 0.00178
37.2 0.0024
37.25 0.00258
37.3 0.00193
37.35 0.002
37.4 0.0021
37.45 0.00159
37.5 0.00142
37.55 0.00156
37.6 0.00169
37.65 0.00177
37.7 0.00176
37.75 0.00155
37.8 0.00064
37.85 0.00049
37.9 -0.00021
37.95 -0.00035
38 -0.0005
38.05 -0.00076
38.1 -0.00041
38.15 -0.00001
38.2 0.00048
38.25 0.00136
38.3 0.00207
38.35 0.00268
38.4 0.00341
38.45 0.0028
38.5 0.00206
38.55 0.0014
38.6 0.00122
38.65 0.0016
38.7 0.00217
38.75 0.00164
38.8 0.00118
38.85 0.00055
38.9 0.00051
38.95 0.00038
39 0.00091
39.05 0.0015
39.1 0.00185
39.15 0.00177
39.2 0.00176
39.25 0.00108
39.3 0.00032
39.35 0.00001
39.4 -0.00076
39.45 -0.00191
39.5 -0.00233
39.55 -0.00318
39.6 -0.00382
39.65 -0.00394
39.7 -0.00346
39.75 -0.00316
39.8 -0.00226
39.85 -0.00143
39.9 -0.00119
39.95 -0.00081
40 0.00005
40.05 0.00025
40.1 0.00073
40.15 0.00146
40.2 0.00158
40.25 0.00191
40.3 0.00253
40.35 0.00197
40.4 0.00187
40.45 0.00203
40.5 0.00211
40.55 0.00196
40.6 0.00183
40.65 0.0008
40.7 -0.00002
40.75 -0.00121
40.8 -0.00156
40.85 -0.00173
40.9 -0.00244
40.95 -0.00338
41 -0.00326
41.05 -0.00253
41.1 -0.00147
41.15 -0.00109
41.2 -0.00095
41.25 -0.00106
41.3 -0.00099
41.35 -0.00137
41.4 -0.00103
41.45 -0.00069
41.5 -0.00002
41.55 0.00004
41.6 0.00026
41.65 -0.00001
41.7 -0.00074
41.75 -0.00178
41.8 -0.00262
41.85 -0.0033
41.9 -0.00406
41.95 -0.00359
42 -0.00297
42.05 -0.00264
42.1 -0.00167
42.15 -0.00163
42.2 -0.00094
42.25 -0.00094
42.3 -0.00095
42.35 -0.00152
42.4 -0.00115
42.45 -0.00048
42.5 -0.0003
42.55 -0.00073
42.6 -0.00145
42.65 -0.00215
42.7 -0.00314
42.75 -0.00372
42.8 -0.00335
42.85 -0.00327
42.9 -0.00301
42.95 -0.00295
43 -0.00276
43.05 -0.00207
43.1 -0.00214
43.15 -0.00201
43.2 -0.00178
43.25 -0.00135
43.3 -0.0004
43.35 0.00049
43.4 0.00105
43.45 0.00064
43.5 0.00028
43.55 0.00052
43.6 -0.00001
43.65 -0.00091
43.7 -0.00191
43.75 -0.00269
43.8 -0.00256
43.85 -0.00266
43.9 -0.00246
43.95 -0.00195
44 -0.00195
44.05 -0.00235
44.1 -0.00303
44.15 -0.00313
44.2 -0.00318
44.25 -0.00309
44.3 -0.00299
44.35 -0.00302
44.4 -0.00272
44.45 -0.00275
44.5 -0.00239
44.55 -0.0019
44.6 -0.00134
44.65 -0.0007
44.7 -0.00077
44.75 -0.0009
44.8 -0.00139
44.85 -0.00102
44.9 -0.00088
44.95 -0.00113
45 -0.00144
45.05 -0.00211
45.1 -0.0023
45.15 -0.00191
45.2 -0.00212
45.25 -0.00271
45.3 -0.00289
45.35 -0.00217
45.4 -0.00163
45.45 -0.00126
45.5 -0.00137
45.55 -0.00107
45.6 -0.00027
45.65 0.0003
45.7 0.00063
45.75 0.0016
45.8 0.00164
45.85 0.00229
45.9 0.00249
45.95 0.00256
46 0.00228
46.05 0.0021
46.1 0.00122
46.15 0.00049
46.2 -0.00029
46.25 -0.00118
46.3 -0.00225
46.35 -0.00196
46.4 -0.00092
46.45 -0.00083
46.5 0.00004
46.55 0.00137
46.6 0.00194
46.65 0.00234
46.7 0.00301
46.75 0.00375
46.8 0.00427
46.85 0.00455
46.9 0.00444
46.95 0.00452
47 0.00418
47.05 0.00381
47.1 0.003
47.15 0.00158
47.2 0.00015
47.25 -0.00072
47.3 -0.00089
47.35 -0.00104
47.4 -0.00154
47.45 -0.00217
47.5 -0.00168
47.55 -0.0008
47.6 0.0006
47.65 0.00219
47.7 0.00376
47.75 0.00498
47.8 0.00491
47.85 0.00426
47.9 0.00335
47.95 0.00209
48 0.00049
48.05 -0.00125
48.1 -0.00218
48.15 -0.0021
48.2 -0.002
48.25 -0.00228
48.3 -0.00241
48.35 -0.00201
48.4 -0.00132
48.45 -0.00002
48.5 0.00099
48.55 0.0015
48.6 0.00125
48.65 0.00112
48.7 0.00143
48.75 0.00107
48.8 0.00125
48.85 0.00192
48.9 0.00157
48.95 0.00067
49 0.00003
49.05 -0.00081
49.1 -0.00179
49.15 -0.00248
49.2 -0.00324
49.25 -0.00397
49.3 -0.00392
49.35 -0.00377
49.4 -0.00316
49.45 -0.00268
49.5 -0.00273
49.55 -0.00208
49.6 -0.00185
49.65 -0.00115
49.7 -0.0002
49.75 0.00102
49.8 0.00235
49.85 0.00347
49.9 0.00339
49.95 0.00294
50 0.00264
50.05 0.00288
50.1 0.00215
50.15 0.00207
50.2 0.00135
50.25 0.0011
50.3 0.00124
50.35 0.00122
50.4 0.00078
50.45 -0.00027
50.5 -0.00037
50.55 -0.00016
50.6 -0.00025
50.65 -0.00078
50.7 -0.00104
50.75 -0.00142
50.8 -0.00225
50.85 -0.00277
50.9 -0.00258
50.95 -0.00238
51 -0.00235
51.05 -0.00223
51.1 -0.00196
51.15 -0.00153
51.2 -0.00133
51.25 -0.00033
51.3 0.00097
51.35 0.0023
51.4 0.00369
51.45 0.00463
51.5 0.00537
51.55 0.005
51.6 0.00455
51.65 0.0036
51.7 0.00269
51.75 0.0013
51.8 0.00066
51.85 0.00028
51.9 -0.0005
51.95 -0.0011
52 -0.00095
52.05 -0.00111
52.1 -0.00053
52.15 -0.00029
52.2 -0.00002
52.25 -0.00022
52.3 0.00036
52.35 0.00119
52.4 0.00132
52.45 0.00069
52.5 -0.00003
52.55 -0.00099
52.6 -0.0018
52.65 -0.0017
52.7 -0.00097
52.75 -0.00108
52.8 -0.00076
52.85 -0.00113
52.9 -0.00197
52.95 -0.00208
53 -0.00175
53.05 -0.00201
53.1 -0.0017
53.15 -0.00103
53.2 -0.00065
53.25 -0.00086
53.3 -0.0013
53.35 -0.00158
53.4 -0.00142
53.45 -0.00127
53.5 -0.0016
53.55 -0.00153
53.6 -0.00197
53.65 -0.00184
53.7 -0.00204
53.75 -0.00154
53.8 -0.00105
53.85 -0.00098
53.9 -0.00128
53.95 -0.00121
54 -0.00035
54.05 0.0007
54.1 0.00195
54.15 0.00242
54.2 0.00237
54.25 0.0016
54.3 0.00165
54.35 0.00154
54.4 0.00104
54.45 0.00038
54.5 -0.00072
54.55 -0.00072
54.6 -0.00083
54.65 -0.00024
54.7 -0.00023
54.75 -0.00024
54.8 0.00052
54.85 0.00038
54.9 0.00071
54.95 0.00134
55 0.00173
55.05 0.00156
55.1 0.00207
55.15 0.00207
55.2 0.00119
55.25 0.00073
55.3 0.00079
55.35 0.00106
55.4 0.00061
55.45 -0.00025
55.5 -0.00139
55.55 -0.0019
55.6 -0.00187
55.65 -0.00104
55.7 -0.00071
55.75 -0.0004
55.8 -0.00074
55.85 -0.00068
55.9 -0.00013
55.95 0.0003
56 0.00026
56.05 -0.00044
56.1 -0.00096
56.15 -0.00184
56.2 -0.00194
56.25 -0.00177
56.3 -0.00163
56.35 -0.00073
56.4 0.00018
56.45 0.00014
56.5 0.0005
56.55 0.00119
56.6 0.00149
56.65 0.00199
56.7 0.00274
56.75 0.00304
56.8 0.0024
56.85 0.00234
56.9 0.00278
56.95 0.00349
57 0.00348
57.05 0.00247
57.1 0.00179
57.15 0.00185
57.2 0.00244
57.25 0.00249
57.3 0.00205
57.35 0.00114
57.4 0.00078
57.45 0.00007
57.5 -0.00111
57.55 -0.00121
57.6 -0.00184
57.65 -0.00184
57.7 -0.00117
57.75 -0.00061
57.8 -0.00049
57.85 -0.00084
57.9 -0.00136
57.95 -0.00142
58 -0.00195
58.05 -0.00237
58.1 -0.00194
58.15 -0.00137
58.2 -0.0007
58.25 0.00001
58.3 0.00036
58.35 0.00129
58.4 0.00214
58.45 0.00311
58.5 0.00362
58.55 0.00324
58.6 0.00309
58.65 0.00248
58.7 0.00253
58.75 0.00253
58.8 0.0026
58.85 0.00186
58.9 0.00116
58.95 0.00115
59 0.00034
59.05 -0.00064
59.1 -0.00195
59.15 -0.00235
59.2 -0.0031
59.25 -0.00389
59.3 -0.00422
59.35 -0.00441
59.4 -0.00449
59.45 -0.00392
59.5 -0.00345
59.55 -0.00303
59.6 -0.00233
59.65 -0.00156
59.7 -0.00122
59.75 -0.0015
59.8 -0.00169
59.85 -0.00181
59.9 -0.00139
59.95 -0.00124
60 -0.00167
60.05 -0.00215
60.1 -0.00156
60.15 -0.00154
60.2 -0.00184
60.25 -0.00214
60.3 -0.00191
60.35 -0.00171
60.4 -0.00166
60.45 -0.00113
60.5 -0.0001
60.55 0.00087
60.6 0.00158
60.65 0.00222
60.7 0.00274
60.75 0.00279
60.8 0.00217
60.85 0.00162
60.9 0.00135
60.95 0.001
61 0.00066
61.05 0.00034
61.1 0.00075
61.15 0.00042
61.2 -0.00049
61.25 -0.00103
61.3 -0.00131
61.35 -0.00112
61.4 -0.00039
61.45 -0.00057
61.5 -0.00039
61.55 0.00045
61.6 0.00129
61.65 0.00175
61.7 0.00173
61.75 0.00175
61.8 0.00112
61.85 0.00062
61.9 -0.00004
61.95 -0.00117
62 -0.00172
62.05 -0.00151
62.1 -0.00122
62.15 -0.00069
62.2 0.00045
62.25 0.00179
62.3 0.00209
62.35 0.00282
62.4 0.00304
62.45 0.00353
62.5 0.00314
62.55 0.00233
62.6 0.00128
62.65 -0.00022
62.7 -0.00061
62.75 -0.00054
62.8 -0.00069
62.85 -0.00096
62.9 -0.00091
62.95 -0.00027
63 0.00063
63.05 0.00087
63.1 0.00065
63.15 0.00117
63.2 0.00099
63.25 0.00019
63.3 -0.00029
63.35 -0.00074
63.4 -0.00168
63.45 -0.00158
63.5 -0.00169
63.55 -0.00116
63.6 -0.0004
63.65 -0.00051
63.7 -0.00026
63.75 -0.00067
63.8 -0.00055
63.85 -0.00087
63.9 -0.00123
63.95 -0.00085
64 -0.00005
64.05 0.0007
64.1 0.00148
64.15 0.00199
64.2 0.0024
64.25 0.00221
64.3 0.00166
64.35 0.00171
64.4 0.00232
64.45 0.00189
64.5 0.00212
64.55 0.00202
64.6 0.00156
64.65 0.00041
64.7 0.00008
64.75 -0.00081
64.8 -0.00154
64.85 -0.00138
64.9 -0.0006
64.95 -0.00082
65 -0.00067
65.05 0.00013
65.1 0.00124
65.15 0.00181
65.2 0.00235
65.25 0.00207
65.3 0.00205
65.35 0.00155
65.4 0.00169
65.45 0.00193
65.5 0.00197
65.55 0.0023
65.6 0.00157
65.65 0.00112
65.7 0.00086
65.75 0.00105
65.8 0.00068
65.85 0.00047
65.9 -0.00034
65.95 -0.00063
66 -0.00167
66.05 -0.00289
66.1 -0.00462
66.15 -0.00587
66.2 -0.00781
66.25 -0.00948
66.3 -0.01149
66.35 -0.01337
66.4 -0.01489
66.45 -0.01746
66.5 -0.02064
66.55 -0.02361
66.6 -0.02746
66.65 -0.03231
66.7 -0.03727
66.75 -0.04354
66.8 -0.0497
66.85 -0.05671
66.9 -0.06537
66.95 -0.07483
67 -0.08479
67.05 -0.0952
67.1 -0.10638
67.15 -0.11857
67.2 -0.13287
67.25 -0.14922
67.3 -0.16626
67.35 -0.18441
67.4 -0.20354
67.45 -0.22273
67.5 -0.24267
67.55 -0.26393
67.6 -0.28524
67.65 -0.30691
67.7 -0.32799
67.75 -0.34834
67.8 -0.36917
67.85 -0.38986
67.9 -0.40969
67.95 -0.42787
68 -0.44378
68.05 -0.45764
68.1 -0.4679
68.15 -0.47549
68.2 -0.47972
68.25 -0.48068
68.3 -0.47804
68.35 -0.47289
68.4 -0.46464
68.45 -0.45207
68.5 -0.43666
68.55 -0.41745
68.6 -0.39506
68.65 -0.36901
68.7 -0.34007
68.75 -0.30951
68.8 -0.2767
68.85 -0.24247
68.9 -0.20692
68.95 -0.16914
69 -0.13025
69.05 -0.09141
69.1 -0.05343
69.15 -0.01537
69.2 0.02153
69.25 0.05657
69.3 0.09018
69.35 0.12193
69.4 0.15268
69.45 0.18188
69.5 0.20803
69.55 0.23172
69.6 0.25327
69.65 0.27181
69.7 0.2877
69.75 0.3023
69.8 0.31433
69.85 0.32503
69.9 0.33438
69.95 0.34117
70 0.34687
70.05 0.35066
70.1 0.35264
70.15 0.35373
70.2 0.35386
70.25 0.35416
70.3 0.35373
70.35 0.35289
70.4 0.35089
70.45 0.3482
70.5 0.34595
70.55 0.34247
70.6 0.33872
70.65 0.33537
70.7 0.33106
70.75 0.32642
70.8 0.32255
70.85 0.31844
70.9 0.3137
70.95 0.30948
71 0.30461
71.05 0.29929
71.1 0.29414
71.15 0.28975
71.2 0.2848
71.25 0.28054
71.3 0.27643
71.35 0.27199
71.4 0.26795
71.45 0.26315
71.5 0.25822
71.55 0.25362
71.6 0.24811
71.65 0.24267
71.7 0.2377
71.75 0.23279
71.8 0.22816
71.85 0.22285
71.9 0.21704
71.95 0.21137
72 0.20507
72.05 0.1997
72.1 0.19423
72.15 0.18858
72.2 0.18266
72.25 0.17702
72.3 0.17141
72.35 0.16624
72.4 0.16022
72.45 0.1538
72.5 0.14714
72.55 0.14036
72.6 0.13313
72.65 0.12634
72.7 0.1197
72.75 0.11329
72.8 0.10659
72.85 0.10044
72.9 0.09411
72.95 0.08813
73 0.08294
73.05 0.07744
73.1 0.07247
73.15 0.0671
73.2 0.06124
73.25 0.05573
73.3 0.04972
73.35 0.04471
73.4 0.03927
73.45 0.03396
73.5 0.02943
73.55 0.02558
73.6 0.02147
73.65 0.01724
73.7 0.01367
73.75 0.00919
73.8 0.00489
73.85 0.00126
73.9 -0.00269
73.95 -0.00612
74 -0.0099
74.05 -0.01334
74.1 -0.01682
74.15 -0.0195
74.2 -0.02207
74.25 -0.02551
74.3 -0.02928
74.35 -0.03278
74.4 -0.03562
74.45 -0.03822
74.5 -0.041
74.55 -0.04268
74.6 -0.04383
74.65 -0.04511
74.7 -0.04612
74.75 -0.04766
74.8 -0.04883
74.85 -0.0503
74.9 -0.05152
74.95 -0.05317
75 -0.05495
75.05 -0.05555
75.1 -0.05594
75.15 -0.05679
75.2 -0.05723
75.25 -0.05719
75.3 -0.05652
75.35 -0.05579
75.4 -0.05588
75.45 -0.05581
75.5 -0.05524
75.55 -0.05483
75.6 -0.05487
75.65 -0.05505
75.7 -0.05523
75.75 -0.05467
75.8 -0.05498
75.85 -0.05568
75.9 -0.05578
75.95 -0.05538
76 -0.0545
76.05 -0.05422
76.1 -0.05393
76.15 -0.05418
76.2 -0.05483
76.25 -0.05446
76.3 -0.0543
76.35 -0.05386
76.4 -0.05264
76.45 -0.05201
76.5 -0.05079
76.55 -0.04943
76.6 -0.04803
76.65 -0.04701
76.7 -0.04662
76.75 -0.04595
76.8 -0.04472
76.85 -0.04371
76.9 -0.04242
76.95 -0.04188
77 -0.04102
77.05 -0.03984
77.1 -0.03919
77.15 -0.03958
77.2 -0.03917
77.25 -0.03826
77.3 -0.03833
77.35 -0.039
77.4 -0.03925
77.45 -0.03989
77.5 -0.03946
77.55 -0.03876
77.6 -0.03759
77.65 -0.03677
77.7 -0.03675
77.75 -0.03578
77.8 -0.0353
77.85 -0.03492
77.9 -0.03399
77.95 -0.03323
78 -0.0324
78.05 -0.032
78.1 -0.03185
78.15 -0.03173
78.2 -0.03081
78.25 -0.02999
78.3 -0.02924
78.35 -0.02796
78.4 -0.02658
78.45 -0.02636
78.5 -0.02589
78.55 -0.02557
78.6 -0.02493
78.65 -0.0242
78.7 -0.02337
78.75 -0.02322
78.8 -0.02301
78.85 -0.02235
78.9 -0.02274
78.95 -0.02251
79 -0.02237
79.05 -0.02207
79.1 -0.02161
79.15 -0.02137
79.2 -0.0217
79.25 -0.02252
79.3 -0.02327
79.35 -0.02412
79.4 -0.02443
79.45 -0.024
79.5 -0.02323
79.55 -0.02313
79.6 -0.02294
79.65 -0.02306
79.7 -0.02327
79.75 -0.02358
79.8 -0.0239
79.85 -0.02327
79.9 -0.02224
79.95 -0.02189
80 -0.02136
80.05 -0.02075
80.1 -0.01976
80.15 -0.01885
80.2 -0.01804
80.25 -0.01691
80.3 -0.01559
80.35 -0.0141
80.4 -0.01309
80.45 -0.01303
80.5 -0.01256
80.55 -0.01265
80.6 -0.01307
80.65 -0.01351
80.7 -0.014
80.75 -0.01396
80.8 -0.0143
80.85 -0.01458
80.9 -0.01497
80.95 -0.01567
81 -0.01536
81.05 -0.01538
81.1 -0.01448
81.15 -0.01371
81.2 -0.01326
81.25 -0.0131
81.3 -0.01301
81.35 -0.01216
81.4 -0.01204
81.45 -0.01239
81.5 -0.01222
81.55 -0.01209
81.6 -0.01243
81.65 -0.01306
81.7 -0.01287
81.75 -0.01251
81.8 -0.0113
81.85 -0.0101
81.9 -0.00868
81.95 -0.0071
82 -0.00667
82.05 -0.00726
82.1 -0.00768
82.15 -0.00816
82.2 -0.00782
82.25 -0.00818
82.3 -0.00822
82.35 -0.00777
82.4 -0.00728
82.45 -0.00665
82.5 -0.00615
82.55 -0.00548
82.6 -0.00564
82.65 -0.00627
82.7 -0.00738
82.75 -0.0084
82.8 -0.00954
82.85 -0.01028
82.9 -0.01059
82.95 -0.01009
83 -0.00977
83.05 -0.00967
83.1 -0.00926
83.15 -0.00828
83.2 -0.00712
83.25 -0.00699
83.3 -0.00641
83.35 -0.00596
83.4 -0.00588
83.45 -0.00517
83.5 -0.00498
83.55 -0.00426
83.6 -0.00371
83.65 -0.00358
83.7 -0.00342
83.75 -0.00376
83.8 -0.00396
83.85 -0.00396
83.9 -0.00355
83.95 -0.00283
84 -0.00247
84.05 -0.00174
84.1 -0.00207
84.15 -0.00184
84.2 -0.00144
84.25 -0.00145
84.3 -0.00169
84.35 -0.00167
84.4 -0.00222
84.45 -0.0035
84.5 -0.00389
84.55 -0.00362
84.6 -0.00412
84.65 -0.00385
84.7 -0.00324
84.75 -0.00296
84.8 -0.00288
84.85 -0.00358
84.9 -0.00419
84.95 -0.00432
85 -0.0042
85.05 -0.00428
85.1 -0.00491
85.15 -0.00506
85.2 -0.00453
85.25 -0.00454
85.3 -0.00411
85.35 -0.00361
85.4 -0.00385
85.45 -0.00417
85.5 -0.00392
85.55 -0.00361
85.6 -0.00289
85.65 -0.00312
85.7 -0.00357
85.75 -0.00388
85.8 -0.00329
85.85 -0.00341
85.9 -0.00401
85.95 -0.00463
86 -0.00458
86.05 -0.00479
86.1 -0.00495
86.15 -0.00428
86.2 -0.00376
86.25 -0.0033
86.3 -0.00286
86.35 -0.00319
86.4 -0.00368
86.45 -0.00387
86.5 -0.00418
86.55 -0.00383
86.6 -0.00361
86.65 -0.00342
86.7 -0.00313
86.75 -0.00213
86.8 -0.00152
86.85 -0.00126
86.9 -0.0005
86.95 0.00055
87 0.00162
87.05 0.0013
87.1 0.0014
87.15 0.00119
87.2 0.00038
87.25 -0.00031
87.3 -0.00128
87.35 -0.00236
87.4 -0.00339
87.45 -0.0038
87.5 -0.00365
87.55 -0.00397
87.6 -0.00399
87.65 -0.00431
87.7 -0.00362
87.75 -0.00255
87.8 -0.00223
87.85 -0.00197
87.9 -0.00245
87.95 -0.0025
88 -0.00295
88.05 -0.00242
88.1 -0.00195
88.15 -0.00176
88.2 -0.00154
88.25 -0.00166
88.3 -0.00117
88.35 -0.00014
88.4 0.00057
88.45 0.00035
88.5 0.00042
88.55 0.00055
88.6 0.001
88.65 0.00174
88.7 0.00256
88.75 0.00208
88.8 0.0014
88.85 0.00135
88.9 0.00164
88.95 0.00172
89 0.00183
89.05 0.00149
89.1 0.00138
89.15 0.00082
89.2 0.0006
89.25 0.00026
89.3 -0.00032
89.35 -0.00071
89.4 -0.00091
89.45 -0.00169
89.5 -0.00145
89.55 -0.00202
89.6 -0.00253
89.65 -0.00257
89.7 -0.00223
89.75 -0.00251
89.8 -0.00312
89.85 -0.00333
89.9 -0.00355
89.95 -0.00325
90 -0.00227
90.05 -0.00182
90.1 -0.00213
90.15 -0.00174
90.2 -0.00132
90.25 -0.00134
90.3 -0.00143
90.35 -0.0019
90.4 -0.00185
90.45 -0.00151
90.5 -0.00154
90.55 -0.00185
90.6 -0.00154
90.65 -0.00116
90.7 -0.0005
90.75 -0.00035
90.8 -0.00093
90.85 -0.00198
90.9 -0.00208
90.95 -0.00194
91 -0.00205
91.05 -0.00229
91.1 -0.00165
91.15 -0.00123
91.2 -0.00126
91.25 -0.00109
91.3 -0.00079
91.35 0.0001
91.4 0.001
91.45 0.00182
91.5 0.00148
91.55 0.00115
91.6 0.00019
91.65 -0.00105
91.7 -0.00155
91.75 -0.00145
91.8 -0.00185
91.85 -0.00167
91.9 -0.00217
91.95 -0.0019
92 -0.00187
92.05 -0.00111
92.1 -0.0006
92.15 -0.00062
92.2 -0.0001
92.25 0.00071
92.3 0.00079
92.35 0.0014
92.4 0.00215
92.45 0.00256
92.5 0.00186
92.55 0.00151
92.6 0.00134
92.65 0.0006
92.7 0.00051
92.75 0.00006
92.8 0.00002
92.85 -0.00007
92.9 0.00024
92.95 -0.00015
93 0.0002
93.05 -0.00037
93.1 -0.00017
93.15 -0.00038
93.2 -0.00059
93.25 -0.0011
93.3 -0.001
93.35 -0.00139
93.4 -0.00128
93.45 -0.0015
93.5 -0.00162
93.55 -0.00231
93.6 -0.00211
93.65 -0.00252
93.7 -0.00318
93.75 -0.00347
93.8 -0.00339
93.85 -0.00326
93.9 -0.00292
93.95 -0.00225
94 -0.00184
94.05 -0.00208
94.1 -0.00229
94.15 -0.0023
94.2 -0.00142
94.25 -0.00111
94.3 -0.00027
94.35 -0.00027
94.4 -0.0001
94.45 -0.00008
94.5 0.00058
94.55 0.00167
94.6 0.00279
94.65 0.00353
94.7 0.00396
94.75 0.00401
94.8 0.00424
94.85 0.00442
94.9 0.00447
94.95 0.00393
95 0.00342
95.05 0.00265
95.1 0.00143
95.15 0.00116
95.2 0.00011
95.25 0.00002
95.3 0.00034
95.35 0.00111
95.4 0.00192
95.45 0.00261
95.5 0.00237
95.55 0.00132
95.6 0.00023
95.65 -0.00034
95.7 -0.00106
95.75 -0.00174
95.8 -0.00244
95.85 -0.00301
95.9 -0.0029
95.95 -0.00324
96 -0.0029
96.05 -0.00303
96.1 -0.00266
96.15 -0.00262
96.2 -0.00241
96.25 -0.00241
96.3 -0.00207
96.35 -0.00215
96.4 -0.00154
96.45 -0.00174
96.5 -0.00195
96.55 -0.0026
96.6 -0.00236
96.65 -0.00197
96.7 -0.00218
96.75 -0.0019
96.8 -0.00172
96.85 -0.00082
96.9 -0.00029
96.95 -0.00036
97 -0.00105
97.05 -0.00189
97.1 -0.00188
97.15 -0.00135
97.2 -0.00069
97.25 -0.00016
97.3 -0.00029
97.35 -0.00034
97.4 -0.00094
97.45 -0.00135
97.5 -0.00124
97.55 -0.00116
97.6 -0.00046
97.65 -0.00031
97.7 -0.00006
97.75 0.00009
97.8 0.00026
97.85 -0.00004
97.9 0.00047
97.95 0.0007
98 0.00141
98.05 0.00219
98.1 0.00187
98.15 0.00162
98.2 0.00071
98.25 -0.00008
98.3 -0.00058
98.35 -0.00118
98.4 -0.00211
98.45 -0.00209
98.5 -0.00131
98.55 -0.00011
98.6 0.00051
98.65 0.00114
98.7 0.00116
98.75 0.00058
98.8 0.00003
98.85 0.00009
98.9 -0.00034
98.95 -0.00024
99 0.00034
99.05 0.00004
99.1 0.00005
99.15 -0.00023
99.2 -0.00106
99.25 -0.00191
99.3 -0.00223
99.35 -0.00175
99.4 -0.00169
99.45 -0.0011
99.5 -0.00133
99.55 -0.00094
99.6 -0.00082
99.65 -0.00017
99.7 0.00037
99.75 0.00084
99.8 0.00061
99.85 -0.00017
99.9 -0.00077
99.95 -0.00105
