0 0
0.05 0.0005
0.1 0.00122
0.15 0.00176
0.2 0.00241
0.25 0.00309
0.3 0.00342
0.35 0.00381
0.4 0.00409
0.45 0.00399
0.5 0.0041
0.55 0.00404
0.6 0.00411
0.65 0.00387
0.7 0.00381
0.75 0.00383
0.8 0.00353
0.85 0.00339
0.9 0.00317
0.95 0.00286
1 0.00238
1.05 0.00218
1.1 0.00208
1.15 0.00198
1.2 0.00172
1.25 0.00184
1.3 0.00186
1.35 0.00199
1.4 0.00205
1.45 0.00223
1.5 0.0026
1.55 0.00276
1.6 0.00292
1.65 0.00302
1.7 0.00277
1.75 0.00279
1.8 0.00292
1.85 0.00281
1.9 0.00288
1.95 0.0026
2 0.00226
2.05 0.00205
2.1 0.00202
2.15 0.00182
2.2 0.00141
2.25 0.00114
2.3 0.00121
2.35 0.00117
2.4 0.00138
2.45 0.00135
2.5 0.00162
2.55 0.00188
2.6 0.00188
2.65 0.00214
2.7 0.002
2.75 0.00171
2.8 0.0016
2.85 0.00174
2.9 0.00172
2.95 0.00178
3 0.00165
3.05 0.00164
3.1 0.00159
3.15 0.00159
3.2 0.00149
3.25 0.0016
3.3 0.00137
3.35 0.00135
3.4 0.00131
3.45 0.00112
3.5 0.00086
3.55 0.00072
3.6 0.00076
3.65 0.00074
3.7 0.00079
3.75 0.00082
3.8 0.00089
3.85 0.00083
3.9 0.00064
3.95 0.00055
4 0.00054
4.05 0.00032
4.1 0.00048
4.15 0.00078
4.2 0.00124
4.25 0.00133
4.3 0.00112
4.35 0.00091
4.4 0.001
4.45 0.00123
4.5 0.00112
4.55 0.00094
4.6 0.00055
4.65 0.00039
4.7 0.00038
4.75 0.00027
4.8 0.00003
4.85 -0.00004
4.9 0.00007
4.95 0.00022
5 0.00043
5.05 0.00063
5.1 0.00059
5.15 0.00083
5.2 0.00109
5.25 0.00117
5.3 0.00098
5.35 0.00069
5.4 0.00037
5.45 0.0001
5.5 -0.00001
5.55 0.00003
5.6 0.00031
5.65 0.00054
5.7 0.00055
5.75 0.00047
5.8 0.00069
5.85 0.00069
5.9 0.00061
5.95 0.0003
6 0.00037
6.05 0.00051
6.1 0.00081
6.15 0.00124
6.2 0.00123
6.25 0.00117
6.3 0.00102
6.35 0.0009
6.4 0.0008
6.45 0.00068
6.5 0.00051
6.55 0.00054
6.6 0.00034
6.65 -0.00003
6.7 -0.00002
6.75 0.0001
6.8 0.00011
6.85 -0.00013
6.9 -0.00009
6.95 -0.0002
7 -0.00027
7.05 -0.00043
7.1 -0.00069
7.15 -0.00091
7.2 -0.00086
7.25 -0.00091
7.3 -0.00082
7.35 -0.00046
7.4 0.00002
7.45 0.00031
7.5 0.00072
7.55 0.00117
7.6 0.00151
7.65 0.00144
7.7 0.00134
7.75 0.00141
7.8 0.00143
7.85 0.00142
7.9 0.00137
7.95 0.00128
8 0.00121
8.05 0.00087
8.1 0.00056
8.15 0.00046
8.2 0.00038
8.25 0.00047
8.3 0.00064
8.35 0.00064
8.4 0.00041
8.45 0.00041
8.5 0.00059
8.55 0.00058
8.6 0.00053
8.65 0.00061
8.7 0.0005
8.75 0.00033
8.8 0.00035
8.85 0.00043
8.9 0.00039
8.95 0.00036
9 0.0005
9.05 0.00083
9.1 0.0009
9.15 0.00104
9.2 0.00128
9.25 0.00142
9.3 0.0012
9.35 0.00073
9.4 0.00046
9.45 0.00017
9.5 -0.00006
9.55 0.00001
9.6 0
9.65 -0.0001
9.7 -0.00036
9.75 -0.00076
9.8 -0.00101
9.85 -0.00092
9.9 -0.00067
9.95 -0.00026
10 -0.00018
10.05 -0.0001
10.1 0.00023
10.15 0.00035
10.2 0.00021
10.25 0.00025
10.3 0.00047
10.35 0.00048
10.4 0.00031
10.45 0.00029
10.5 -0.00002
10.55 -0.00029
10.6 -0.00056
10.65 -0.00039
10.7 -0.00054
10.75 -0.00085
10.8 -0.00095
10.85 -0.00092
10.9 -0.00109
10.95 -0.00134
11 -0.00163
11.05 -0.00164
11.1 -0.00127
11.15 -0.0011
11.2 -0.00079
11.25 -0.00047
11.3 -0.00005
11.35 0.00014
11.4 0.00033
11.45 0.00029
11.5 0.00024
11.55 0.0005
11.6 0.00078
11.65 0.00117
11.7 0.00139
11.75 0.00118
11.8 0.00103
11.85 0.00092
11.9 0.00087
11.95 0.00065
12 0.00068
12.05 0.00051
12.1 0.00023
12.15 -0.00008
12.2 -0.00051
12.25 -0.00059
12.3 -0.0006
12.35 -0.00076
12.4 -0.00072
12.45 -0.00068
12.5 -0.0007
12.55 -0.00036
12.6 -0.00031
12.65 -0.00013
12.7 0.00011
12.75 0.00026
12.8 0.00053
12.85 0.00093
12.9 0.00102
12.95 0.00077
13 0.0004
13.05 0.00015
13.1 -0.00017
13.15 -0.00059
13.2 -0.00092
13.25 -0.00121
13.3 -0.00128
13.35 -0.00143
13.4 -0.00116
13.45 -0.00092
13.5 -0.00064
13.55 -0.00025
13.6 -0.00001
13.65 -0.00008
13.7 -0.00025
13.75 -0.00014
13.8 -0.00008
13.85 -0
13.9 -0.00012
13.95 -0.00018
14 -0.00041
14.05 -0.00057
14.1 -0.00075
14.15 -0.00064
14.2 -0.00028
14.25 0.00017
14.3 0.00024
14.35 0.00009
14.4 -0.00005
14.45 -0.00029
14.5 -0.00065
14.55 -0.00066
14.6 -0.00078
14.65 -0.00066
14.7 -0.00053
14.75 -0.00034
14.8 -0.0002
14.85 0.00006
14.9 0.0001
14.95 -0.00013
15 -0.00013
15.05 -0.00021
15.1 -0.00012
15.15 0.00006
15.2 0.00042
15.25 0.00052
15.3 0.00038
15.35 0.00045
15.4 0.00071
15.45 0.00113
15.5 0.0014
15.55 0.00118
15.6 0.00076
15.65 0.00045
15.7 -0.00003
15.75 -0.00008
15.8 -0.00028
15.85 -0.00051
15.9 -0.00047
15.95 -0.00033
16 -0.00025
16.05 -0.00042
16.1 -0.00045
16.15 -0.00054
16.2 -0.00048
16.25 -0.00046
16.3 -0.00067
16.35 -0.00067
16.4 -0.00083
16.45 -0.00091
16.5 -0.00112
16.55 -0.00122
16.6 -0.00127
16.65 -0.00095
16.7 -0.00049
16.75 -0.00028
16.8 -0.00007
16.85 0.00003
16.9 0.00021
16.95 0.00026
17 0.00049
17.05 0.00048
17.1 0.00042
17.15 0.00015
17.2 -0.00007
17.25 -0.0001
17.3 -0.00018
17.35 -0.00023
17.4 -0.00018
17.45 0.00013
17.5 0.00028
17.55 0.00057
17.6 0.00053
17.65 0.00069
17.7 0.00089
17.75 0.00107
17.8 0.00086
17.85 0.00076
17.9 0.00072
17.95 0.00057
18 0.0004
18.05 0.00054
18.1 0.00072
18.15 0.00057
18.2 0.00068
18.25 0.00055
18.3 0.00065
18.35 0.00076
18.4 0.0006
18.45 0.00045
18.5 0.00042
18.55 0.00034
18.6 0.00043
18.65 0.00052
18.7 0.00026
18.75 0.00031
18.8 0.00052
18.85 0.00053
18.9 0.00072
18.95 0.00088
19 0.00121
19.05 0.00142
19.1 0.00152
19.15 0.00158
19.2 0.00129
19.25 0.0009
19.3 0.00072
19.35 0.00027
19.4 -0.00005
19.45 -0.00033
19.5 -0.0006
19.55 -0.00093
19.6 -0.0012
19.65 -0.00117
19.7 -0.00083
19.75 -0.00044
19.8 -0.00042
19.85 -0.00023
19.9 -0.00016
19.95 -0.00014
20 0.00017
20.05 0.00048
20.1 0.00062
20.15 0.00095
20.2 0.00095
20.25 0.00084
20.3 0.00047
20.35 0.00018
20.4 0.00015
20.45 -0
20.5 -0.00013
20.55 0.00002
20.6 0.00039
20.65 0.00038
20.7 0.00016
20.75 0.00028
20.8 0.0004
20.85 0.00059
20.9 0.00046
20.95 0.00033
21 0.00044
21.05 0.00044
21.1 0.00041
21.15 0.0002
21.2 0.00007
21.25 -0.00016
21.3 -0.00016
21.35 -0.00012
21.4 -0.00022
21.45 -0.00023
21.5 -0.00044
21.55 -0.00058
21.6 -0.00079
21.65 -0.00115
21.7 -0.00137
21.75 -0.00165
21.8 -0.00197
21.85 -0.00208
21.9 -0.00223
21.95 -0.00191
22 -0.0013
22.05 -0.00068
22.1 0.00007
22.15 0.00068
22.2 0.00127
22.25 0.00147
22.3 0.00168
22.35 0.0019
22.4 0.00203
22.45 0.00176
22.5 0.00139
22.55 0.00127
22.6 0.0012
22.65 0.0013
22.7 0.00099
22.75 0.00056
22.8 0.00018
22.85 0.00014
22.9 0.00014
22.95 0.00028
23 0.00019
23.05 -0.00011
23.1 -0.00014
23.15 -0.00042
23.2 -0.00062
23.25 -0.00042
23.3 -0.00019
23.35 0.00004
23.4 0.00045
23.45 0.00063
23.5 0.00081
23.55 0.00101
23.6 0.00122
23.65 0.00104
23.7 0.00109
23.75 0.0008
23.8 0.00069
23.85 0.00042
23.9 0.00013
23.95 0.00017
24 0.00019
24.05 -0.00006
24.1 -0.00019
24.15 -0.00039
24.2 -0.00031
24.25 -0.00016
24.3 -0.00005
24.35 0.00017
24.4 0.00048
24.45 0.00075
24.5 0.00113
24.55 0.00107
24.6 0.00116
24.65 0.0013
24.7 0.00134
24.75 0.00114
24.8 0.00113
24.85 0.00084
24.9 0.00028
24.95 -0.00038
25 -0.00103
25.05 -0.00113
25.1 -0.00122
25.15 -0.00098
25.2 -0.00067
25.25 -0.00043
25.3 -0.00049
25.35 -0.00058
25.4 -0.00044
25.45 -0.00008
25.5 -0.00015
25.55 0.00002
25.6 0.00036
25.65 0.00038
25.7 0.00018
25.75 0.00026
25.8 0.00051
25.85 0.0007
25.9 0.00098
25.95 0.00089
26 0.00068
26.05 0.00049
26.1 0.00002
26.15 -0.00037
26.2 -0.00037
26.25 -0.00045
26.3 -0.0005
26.35 -0.00078
26.4 -0.00108
26.45 -0.00112
26.5 -0.00113
26.55 -0.00112
26.6 -0.00129
26.65 -0.00158
26.7 -0.00141
26.75 -0.00139
26.8 -0.00142
26.85 -0.00138
26.9 -0.00142
26.95 -0.00131
27 -0.00097
27.05 -0.00083
27.1 -0.00043
27.15 0.00011
27.2 0.00066
27.25 0.00107
27.3 0.00144
27.35 0.00138
27.4 0.00132
27.45 0.00128
27.5 0.00116
27.55 0.00103
27.6 0.00095
27.65 0.00083
27.7 0.00083
27.75 0.00076
27.8 0.00062
27.85 0.00053
27.9 0.00058
27.95 0.00026
28 -0.00017
28.05 -0.00058
28.1 -0.00088
28.15 -0.00101
28.2 -0.00122
28.25 -0.00144
28.3 -0.00146
28.35 -0.00123
28.4 -0.00122
28.45 -0.00116
28.5 -0.0011
28.55 -0.00072
28.6 -0.00052
28.65 -0.00011
28.7 -0.00012
28.75 -0.00023
28.8 -0.00056
28.85 -0.00091
28.9 -0.00128
28.95 -0.00141
29 -0.00142
29.05 -0.00105
29.1 -0.001
29.15 -0.001
29.2 -0.00066
29.25 -0.00034
29.3 -0.00026
29.35 -0.00013
29.4 -0.00017
29.45 -0.0001
29.5 -0.00022
29.55 -0.00013
29.6 0.00017
29.65 0.00017
29.7 0.00022
29.75 0.00038
29.8 0.00069
29.85 0.00068
29.9 0.00051
29.95 0.00048
30 0.00063
30.05 0.00056
30.1 0.0004
30.15 0.00007
30.2 -0.00016
30.25 -0.0002
30.3 -0.00048
30.35 -0.00089
30.4 -0.00116
30.45 -0.00113
30.5 -0.00095
30.55 -0.00079
30.6 -0.00072
30.65 -0.00043
30.7 0.00001
30.75 0.00017
30.8 0.00022
30.85 0.00027
30.9 0.00007
30.95 0.00018
31 0.00032
31.05 0.00016
31.1 -0.00019
31.15 -0.00037
31.2 -0.00062
31.25 -0.00059
31.3 -0.00081
31.35 -0.00089
31.4 -0.00099
31.45 -0.00117
31.5 -0.00132
31.55 -0.00136
31.6 -0.00146
31.65 -0.00138
31.7 -0.00128
31.75 -0.00085
31.8 -0.00047
31.85 -0.00015
31.9 0.00025
31.95 0.00068
32 0.00077
32.05 0.0006
32.1 0.00019
32.15 0.00015
32.2 -0.00002
32.25 -0.0001
32.3 0.00013
32.35 -0
32.4 0
32.45 -0.00026
32.5 -0.00047
32.55 -0.00034
32.6 -0.0004
32.65 -0.00031
32.7 -0.00013
32.75 -0.00022
32.8 -0.00029
32.85 -0.00005
32.9 0.00003
32.95 0.0001
33 0.00027
33.05 0.00056
33.1 0.00071
33.15 0.00091
33.2 0.00092
33.25 0.00108
33.3 0.00114
33.35 0.00119
33.4 0.001
33.45 0.00089
33.5 0.00095
33.55 0.00085
33.6 0.00089
33.65 0.00113
33.7 0.00091
33.75 0.00058
33.8 0.00025
33.85 -0.00012
33.9 -0.00043
33.95 -0.00052
34 -0.00039
34.05 -0.00052
34.1 -0.00056
34.15 -0.00038
34.2 -0.00032
34.25 -0.00002
34.3 0.00044
34.35 0.00075
34.4 0.00115
34.45 0.00116
34.5 0.00089
34.55 0.00091
34.6 0.00109
34.65 0.00103
34.7 0.00116
34.75 0.00089
34.8 0.00042
34.85 0.00029
34.9 0.00034
34.95 0.00005
35 -0.00034
35.05 -0.00077
35.1 -0.00116
35.15 -0.00156
35.2 -0.00187
35.25 -0.00177
35.3 -0.00127
35.35 -0.00058
35.4 0.00003
35.45 0.00026
35.5 0.00045
35.55 0.00028
35.6 0.00025
35.65 0.00024
35.7 0.00023
35.75 0.00007
35.8 -0
35.85 -0.00019
35.9 -0.00028
35.95 -0.00025
36 -0.00005
36.05 0.00009
36.1 0.00042
36.15 0.00042
36.2 0.00043
36.25 0.00022
36.3 0.00025
36.35 0.00052
36.4 0.00054
36.45 0.0005
36.5 0.00043
36.55 0.00044
36.6 0.00014
36.65 -0.00015
36.7 -0.00035
36.75 -0.0005
36.8 -0.00052
36.85 -0.00061
36.9 -0.00055
36.95 -0.00036
37 -0.00037
37.05 -0.00042
37.1 -0.00069
37.15 -0.00063
37.2 -0.00026
37.25 -0.00006
37.3 0.0003
37.35 0.00058
37.4 0.00063
37.45 0.00063
37.5 0.00078
37.55 0.0009
37.6 0.00089
37.65 0.00066
37.7 0.00019
37.75 -0.00031
37.8 -0.00063
37.85 -0.00059
37.9 -0.00031
37.95 -0.00014
38 -0.0002
38.05 -0.00034
38.1 -0.00031
38.15 -0.00028
38.2 -0.00053
38.25 -0.00084
38.3 -0.00123
38.35 -0.00152
38.4 -0.00183
38.45 -0.00199
38.5 -0.00167
38.55 -0.00118
38.6 -0.00059
38.65 -0.00001
38.7 0.0002
38.75 0.00041
38.8 0.00035
38.85 0.0002
38.9 0.00025
38.95 0.00034
39 0.0006
39.05 0.00053
39.1 0.0004
39.15 0.00043
39.2 0.00025
39.25 0.00035
39.3 0.00058
39.35 0.00041
39.4 0.00021
39.45 0.00024
39.5 0.00018
39.55 0.00014
39.6 -0.00012
39.65 -0.00023
39.7 -0.00022
39.75 -0.00001
39.8 0.0001
39.85 0.00029
39.9 0.00059
39.95 0.00097
40 0.0014
40.05 0.00153
40.1 0.00143
40.15 0.00151
40.2 0.0016
40.25 0.0018
40.3 0.00154
40.35 0.00134
40.4 0.00112
40.45 0.00095
40.5 0.00081
40.55 0.00059
40.6 0.00043
40.65 0.00018
40.7 0.00022
40.75 0.00004
40.8 -0.00018
40.85 -0.00023
40.9 -0.00046
40.95 -0.00045
41 -0.00049
41.05 -0.00048
41.1 -0.0002
41.15 0.00011
41.2 0.00042
41.25 0.00027
41.3 -0.0001
41.35 -0.00056
41.4 -0.00083
41.45 -0.001
41.5 -0.00078
41.55 -0.0004
41.6 -0.00024
41.65 0.00005
41.7 0.00025
41.75 0.00022
41.8 0.00023
41.85 -0.00007
41.9 -0.00051
41.95 -0.00068
42 -0.00067
42.05 -0.00063
42.1 -0.00033
42.15 0.00001
42.2 0.00013
42.25 0.00024
42.3 0.00034
42.35 0.00063
42.4 0.0009
42.45 0.00099
42.5 0.001
42.55 0.00075
42.6 0.00067
42.65 0.00081
42.7 0.00105
42.75 0.00093
42.8 0.00084
42.85 0.00055
42.9 0.00047
42.95 0.0006
43 0.00056
43.05 0.00019
43.1 0.00003
43.15 -0.00025
43.2 -0.00035
43.25 -0.00053
43.3 -0.00058
43.35 -0.00074
43.4 -0.00069
43.45 -0.00081
43.5 -0.00108
43.55 -0.00113
43.6 -0.00108
43.65 -0.00117
43.7 -0.0013
43.75 -0.0013
43.8 -0.00118
43.85 -0.00086
43.9 -0.00084
43.95 -0.00064
44 -0.00066
44.05 -0.00073
44.1 -0.00061
44.15 -0.00037
44.2 0.00001
44.25 -0.00004
44.3 0.00003
44.35 0.00027
44.4 0.00055
44.45 0.00051
44.5 0.00016
44.55 -0.00002
44.6 0.00008
44.65 -0.00012
44.7 -0.00046
44.75 -0.00088
44.8 -0.00082
44.85 -0.0007
44.9 -0.00065
44.95 -0.00086
45 -0.00085
45.05 -0.00093
45.1 -0.00086
45.15 -0.00069
45.2 -0.00075
45.25 -0.00052
45.3 -0.00032
45.35 -0.00026
45.4 -0.00015
45.45 0.00014
45.5 0.0001
45.55 0.00026
45.6 0.00043
45.65 0.00043
45.7 0.00047
45.75 0.00022
45.8 0.00016
45.85 0.0001
45.9 0.00016
45.95 0.00031
46 0.00043
46.05 0.00021
46.1 0.00004
46.15 -0.00027
46.2 -0.00043
46.25 -0.00041
46.3 -0.00044
46.35 -0.00047
46.4 -0.00073
46.45 -0.00106
46.5 -0.00113
46.55 -0.00109
46.6 -0.00086
46.65 -0.00036
46.7 -0.00017
46.75 0.0002
46.8 0.00056
46.85 0.00069
46.9 0.00074
46.95 0.00092
47 0.00105
47.05 0.00099
47.1 0.00111
47.15 0.00081
47.2 0.00069
47.25 0.00082
47.3 0.00061
47.35 0.00062
47.4 0.00034
47.45 -0.00005
47.5 -0.00054
47.55 -0.00069
47.6 -0.00088
47.65 -0.00071
47.7 -0.00058
47.75 -0.00047
47.8 -0.0002
47.85 -0.00019
47.9 -0.00017
47.95 0.00009
48 0.00046
48.05 0.00072
48.1 0.00074
48.15 0.00082
48.2 0.00071
48.25 0.00032
48.3 -0.0002
48.35 -0.00076
48.4 -0.00081
48.45 -0.00072
48.5 -0.00047
48.55 -0.00026
48.6 0.00006
48.65 -0.00003
48.7 -0.00005
48.75 -0.00013
48.8 -0.00016
48.85 -0.00018
48.9 -0.00029
48.95 -0.00059
49 -0.00046
49.05 -0.00047
49.1 -0.00049
49.15 -0.00042
49.2 -0.00008
49.25 0.00011
49.3 0.0001
49.35 -0.00003
49.4 -0.00024
49.45 -0.00024
49.5 -0.0001
49.55 -0.00004
49.6 0.00007
49.65 0.00012
49.7 0.00035
49.75 0.00057
49.8 0.00051
49.85 0.00063
49.9 0.00088
49.95 0.00118
50 0.00125
50.05 0.00117
50.1 0.00089
50.15 0.00055
50.2 0.0005
50.25 0.0003
50.3 0.00017
50.35 -0.00014
50.4 -0.00015
50.45 -0.00012
50.5 -0.0002
50.55 -0.00013
50.6 0.00006
50.65 0.00041
50.7 0.00061
50.75 0.00046
50.8 0.00042
50.85 0.00019
50.9 -0.00026
50.95 -0.00062
51 -0.00073
51.05 -0.00089
51.1 -0.00096
51.15 -0.00107
51.2 -0.00115
51.25 -0.001
51.3 -0.00097
51.35 -0.00063
51.4 -0.00041
51.45 -0.00011
51.5 0.00027
51.55 0.00061
51.6 0.00098
51.65 0.00139
51.7 0.00139
51.75 0.00135
51.8 0.0011
51.85 0.00096
51.9 0.00105
51.95 0.00127
52 0.00105
52.05 0.00084
52.1 0.00074
52.15 0.00036
52.2 0.00003
52.25 -0.00047
52.3 -0.00098
52.35 -0.00121
52.4 -0.00142
52.45 -0.00138
52.5 -0.0014
52.55 -0.00123
52.6 -0.0009
52.65 -0.00058
52.7 -0.00055
52.75 -0.00068
52.8 -0.00068
52.85 -0.00043
52.9 0.00001
52.95 0.00001
53 0.00012
53.05 0.00019
53.1 0.00005
53.15 -0.00033
53.2 -0.00042
53.25 -0.00028
53.3 -0.00029
53.35 -0.0001
53.4 0.00017
53.45 0.0006
53.5 0.00079
53.55 0.00108
53.6 0.00097
53.65 0.00065
53.7 0.00031
53.75 0.00023
53.8 0.00003
53.85 -0.00003
53.9 0.00009
53.95 0
54 -0.00016
54.05 -0.00025
54.1 -0.00045
54.15 -0.00077
54.2 -0.0007
54.25 -0.00086
54.3 -0.00072
54.35 -0.0008
54.4 -0.00081
54.45 -0.00068
54.5 -0.00081
54.55 -0.00064
54.6 -0.00061
54.65 -0.0006
54.7 -0.00037
54.75 -0.00027
54.8 -0.00008
54.85 0.00019
54.9 0.00018
54.95 0.00027
55 0.00001
55.05 -0.0001
55.1 0.00002
55.15 0.00017
55.2 0.00023
55.25 0.00034
55.3 0.00043
55.35 0.00052
55.4 0.00054
55.45 0.00073
55.5 0.0006
55.55 0.00055
55.6 0.00024
55.65 -0.00025
55.7 -0.00058
55.75 -0.00079
55.8 -0.00074
55.85 -0.00049
55.9 -0.00038
55.95 -0.00012
56 0.0003
56.05 0.00037
56.1 0.00018
56.15 -0.00021
56.2 -0.00025
56.25 -0.0002
56.3 -0.0004
56.35 -0.00074
56.4 -0.00084
56.45 -0.00066
56.5 -0.00063
56.55 -0.00083
56.6 -0.00104
56.65 -0.00096
56.7 -0.0008
56.75 -0.0005
56.8 -0.00042
56.85 -0.00022
56.9 -0.00013
56.95 0.00014
57 0.00029
57.05 0.00011
57.1 0.00012
57.15 0.00014
57.2 0.00029
57.25 0.00044
57.3 0.00027
57.35 -0.00011
57.4 -0.00025
57.45 -0.0005
57.5 -0.00051
57.55 -0.00032
57.6 -0.00021
57.65 -0.00031
57.7 -0.00051
57.75 -0.0006
57.8 -0.0006
57.85 -0.00031
57.9 0.00008
57.95 0.00016
58 0.00023
58.05 0.00004
58.1 -0.00031
58.15 -0.00066
58.2 -0.00077
58.25 -0.001
58.3 -0.00083
58.35 -0.00076
58.4 -0.00071
58.45 -0.00033
58.5 -0.0002
58.55 0.00011
58.6 0.00039
58.65 0.0003
58.7 -0.00003
58.75 -0.00031
58.8 -0.00041
58.85 -0.0006
58.9 -0.00088
58.95 -0.00082
59 -0.00077
59.05 -0.00069
59.1 -0.00063
59.15 -0.00041
59.2 -0.00038
59.25 -0.0002
59.3 0.00007
59.35 0.00043
59.4 0.00053
59.45 0.00033
59.5 0.00047
59.55 0.00046
59.6 0.00057
59.65 0.00067
59.7 0.00076
59.75 0.00059
59.8 0.00061
59.85 0.00056
59.9 0.00075
59.95 0.00104
60 0.00104
60.05 0.00073
60.1 0.00056
60.15 0.00058
60.2 0.00063
60.25 0.00083
60.3 0.00082
60.35 0.00099
60.4 0.00081
60.45 0.00078
60.5 0.00052
60.55 0.00004
60.6 -0.00001
60.65 0.00006
60.7 0.00009
60.75 0.0003
60.8 0.00013
60.85 0.00007
60.9 -0.00007
60.95 -0.00033
61 -0.00075
61.05 -0.00094
61.1 -0.00127
61.15 -0.00156
61.2 -0.00178
61.25 -0.0019
61.3 -0.00178
61.35 -0.00141
61.4 -0.00126
61.45 -0.00129
61.5 -0.0014
61.55 -0.00122
61.6 -0.00074
61.65 -0.00051
61.7 -0.0003
61.75 0.00003
61.8 0.00027
61.85 0.00047
61.9 0.00046
61.95 0.00048
62 0.00054
62.05 0.00039
62.1 0.00018
62.15 -0.00024
62.2 -0.00046
62.25 -0.00083
62.3 -0.00099
62.35 -0.00081
62.4 -0.00052
62.45 -0.00039
62.5 -0.00026
62.55 0.00011
62.6 0.00058
62.65 0.00073
62.7 0.00104
62.75 0.00133
62.8 0.0016
62.85 0.00169
62.9 0.00163
62.95 0.0017
63 0.0018
63.05 0.0017
63.1 0.00174
63.15 0.00176
63.2 0.00145
63.25 0.00118
63.3 0.00076
63.35 0.00014
63.4 -0.00038
63.45 -0.00081
63.5 -0.00085
63.55 -0.00103
63.6 -0.00095
63.65 -0.00101
63.7 -0.00099
63.75 -0.00087
63.8 -0.00094
63.85 -0.0007
63.9 -0.00044
63.95 -0.00025
64 -0.00044
64.05 -0.00075
64.1 -0.00112
64.15 -0.00151
64.2 -0.00161
64.25 -0.00183
64.3 -0.00223
64.35 -0.00249
64.4 -0.00268
64.45 -0.00277
64.5 -0.00315
64.55 -0.00359
64.6 -0.00435
64.65 -0.00528
64.7 -0.00629
64.75 -0.00736
64.8 -0.00857
64.85 -0.01
64.9 -0.01167
64.95 -0.01364
65 -0.01573
65.05 -0.01793
65.1 -0.02053
65.15 -0.02358
65.2 -0.02692
65.25 -0.03046
65.3 -0.03437
65.35 -0.0383
65.4 -0.04219
65.45 -0.04613
65.5 -0.05033
65.55 -0.05481
65.6 -0.05963
65.65 -0.06481
65.7 -0.07055
65.75 -0.07607
65.8 -0.08198
65.85 -0.08792
65.9 -0.09361
65.95 -0.09882
66 -0.10367
66.05 -0.10816
66.1 -0.11239
66.15 -0.11662
66.2 -0.12067
66.25 -0.12413
66.3 -0.12699
66.35 -0.12928
66.4 -0.13122
66.45 -0.13244
66.5 -0.13343
66.55 -0.13385
66.6 -0.13379
66.65 -0.13294
66.7 -0.13134
66.75 -0.12935
66.8 -0.12716
66.85 -0.12446
66.9 -0.12151
66.95 -0.11837
67 -0.11475
67.05 -0.11048
67.1 -0.10577
67.15 -0.10118
67.2 -0.09619
67.25 -0.09101
67.3 -0.0859
67.35 -0.08033
67.4 -0.0747
67.45 -0.06883
67.5 -0.06249
67.55 -0.05604
67.6 -0.0491
67.65 -0.04202
67.7 -0.03442
67.75 -0.02626
67.8 -0.01794
67.85 -0.00948
67.9 -0.00047
67.95 0.00908
68 0.01888
68.05 0.02892
68.1 0.03968
68.15 0.05045
68.2 0.06171
68.25 0.07286
68.3 0.08429
68.35 0.09531
68.4 0.10637
68.45 0.11713
68.5 0.12759
68.55 0.13789
68.6 0.14734
68.65 0.15622
68.7 0.16464
68.75 0.17254
68.8 0.17935
68.85 0.18504
68.9 0.18978
68.95 0.19362
69 0.19648
69.05 0.19866
69.1 0.20011
69.15 0.20075
69.2 0.20059
69.25 0.19972
69.3 0.19803
69.35 0.19532
69.4 0.19214
69.45 0.18792
69.5 0.18283
69.55 0.17758
69.6 0.17202
69.65 0.16584
69.7 0.15916
69.75 0.15203
69.8 0.14495
69.85 0.13796
69.9 0.13095
69.95 0.12391
70 0.1166
70.05 0.10913
70.1 0.10157
70.15 0.09406
70.2 0.08677
70.25 0.07974
70.3 0.07311
70.35 0.06714
70.4 0.06166
70.45 0.05601
70.5 0.05052
70.55 0.04554
70.6 0.04052
70.65 0.03588
70.7 0.03118
70.75 0.02661
70.8 0.02259
70.85 0.01862
70.9 0.01485
70.95 0.01179
71 0.00879
71.05 0.00626
71.1 0.00411
71.15 0.00233
71.2 0.00057
71.25 -0.00102
71.3 -0.0027
71.35 -0.00436
71.4 -0.00597
71.45 -0.00714
71.5 -0.00805
71.55 -0.00891
71.6 -0.00974
71.65 -0.01035
71.7 -0.01086
71.75 -0.01156
71.8 -0.01249
71.85 -0.01301
71.9 -0.01349
71.95 -0.01382
72 -0.01413
72.05 -0.01446
72.1 -0.01463
72.15 -0.01478
72.2 -0.01513
72.25 -0.01519
72.3 -0.0154
72.35 -0.01564
72.4 -0.01551
72.45 -0.01557
72.5 -0.01542
72.55 -0.01529
72.6 -0.01508
72.65 -0.01514
72.7 -0.01512
72.75 -0.01521
72.8 -0.01531
72.85 -0.01534
72.9 -0.01531
72.95 -0.01547
73 -0.01578
73.05 -0.01626
73.1 -0.01654
73.15 -0.01697
73.2 -0.01714
73.25 -0.01702
73.3 -0.01683
73.35 -0.01693
73.4 -0.01707
73.45 -0.01708
73.5 -0.01687
73.55 -0.01685
73.6 -0.01654
73.65 -0.01622
73.7 -0.01629
73.75 -0.01621
73.8 -0.01601
73.85 -0.01599
73.9 -0.01586
73.95 -0.01611
74 -0.01621
74.05 -0.01656
74.1 -0.01674
74.15 -0.0168
74.2 -0.01685
74.25 -0.01671
74.3 -0.01667
74.35 -0.01643
74.4 -0.01631
74.45 -0.01628
74.5 -0.01622
74.55 -0.01631
74.6 -0.01643
74.65 -0.01639
74.7 -0.01646
74.75 -0.01614
74.8 -0.01598
74.85 -0.01602
74.9 -0.01625
74.95 -0.01644
75 -0.01649
75.05 -0.0163
75.1 -0.01575
75.15 -0.01538
75.2 -0.01488
75.25 -0.01451
75.3 -0.01446
75.35 -0.01433
75.4 -0.01402
75.45 -0.01374
75.5 -0.01334
75.55 -0.01321
75.6 -0.01309
75.65 -0.01297
75.7 -0.01297
75.75 -0.01314
75.8 -0.01329
75.85 -0.01356
75.9 -0.01339
75.95 -0.01324
76 -0.01328
76.05 -0.01293
76.1 -0.01256
76.15 -0.0125
76.2 -0.01209
76.25 -0.01153
76.3 -0.01097
76.35 -0.01053
76.4 -0.01002
76.45 -0.00991
76.5 -0.0098
76.55 -0.00996
76.6 -0.00996
76.65 -0.00999
76.7 -0.01023
76.75 -0.01005
76.8 -0.00986
76.85 -0.00984
76.9 -0.00966
76.95 -0.00961
77 -0.00934
77.05 -0.00925
77.1 -0.0089
77.15 -0.00843
77.2 -0.00826
77.25 -0.00837
77.3 -0.00841
77.35 -0.00833
77.4 -0.00805
77.45 -0.00765
77.5 -0.00725
77.55 -0.00722
77.6 -0.007
77.65 -0.00708
77.7 -0.00724
77.75 -0.00735
77.8 -0.00741
77.85 -0.00724
77.9 -0.00709
77.95 -0.00693
78 -0.00691
78.05 -0.00692
78.1 -0.00663
78.15 -0.00667
78.2 -0.00678
78.25 -0.00668
78.3 -0.00631
78.35 -0.0059
78.4 -0.00569
78.45 -0.00565
78.5 -0.00562
78.55 -0.00548
78.6 -0.00509
78.65 -0.00474
78.7 -0.00445
78.75 -0.0042
78.8 -0.00395
78.85 -0.00399
78.9 -0.00418
78.95 -0.00411
79 -0.0043
79.05 -0.00432
79.1 -0.00456
79.15 -0.00471
79.2 -0.00505
79.25 -0.00496
79.3 -0.00503
79.35 -0.00525
79.4 -0.00528
79.45 -0.00544
79.5 -0.00514
79.55 -0.00474
79.6 -0.00428
79.65 -0.00419
79.7 -0.00395
79.75 -0.00369
79.8 -0.00346
79.85 -0.00322
79.9 -0.00339
79.95 -0.00351
80 -0.00362
80.05 -0.00358
80.1 -0.00362
80.15 -0.00367
80.2 -0.00353
80.25 -0.00355
80.3 -0.00371
80.35 -0.00347
80.4 -0.00335
80.45 -0.00299
80.5 -0.00302
80.55 -0.00332
80.6 -0.00336
80.65 -0.00354
80.7 -0.00375
80.75 -0.00371
80.8 -0.00359
80.85 -0.00334
80.9 -0.00315
80.95 -0.00302
81 -0.00305
81.05 -0.00289
81.1 -0.00267
81.15 -0.00271
81.2 -0.00297
81.25 -0.00322
81.3 -0.00331
81.35 -0.0035
81.4 -0.00324
81.45 -0.0031
81.5 -0.00285
81.55 -0.00235
81.6 -0.00188
81.65 -0.00139
81.7 -0.00139
81.75 -0.0013
81.8 -0.00134
81.85 -0.00154
81.9 -0.00187
81.95 -0.00196
82 -0.00193
82.05 -0.00186
82.1 -0.00191
82.15 -0.00202
82.2 -0.00202
82.25 -0.00181
82.3 -0.00144
82.35 -0.00113
82.4 -0.00114
82.45 -0.00104
82.5 -0.00103
82.55 -0.00082
82.6 -0.00074
82.65 -0.00086
82.7 -0.00094
82.75 -0.00115
82.8 -0.00144
82.85 -0.00169
82.9 -0.00176
82.95 -0.00159
83 -0.0016
83.05 -0.00162
83.1 -0.00133
83.15 -0.00097
83.2 -0.00052
83.25 -0.00041
83.3 -0.00067
83.35 -0.00102
83.4 -0.00116
83.45 -0.00133
83.5 -0.00137
83.55 -0.00136
83.6 -0.00126
83.65 -0.00094
83.7 -0.00101
83.75 -0.00107
83.8 -0.00097
83.85 -0.00067
83.9 -0.00045
83.95 -0.00052
84 -0.00032
84.05 -0.00003
84.1 0.00006
84.15 0.00015
84.2 -0.00002
84.25 -0.00045
84.3 -0.00098
84.35 -0.00141
84.4 -0.00144
84.45 -0.00126
84.5 -0.00085
84.55 -0.00087
84.6 -0.00099
84.65 -0.00095
84.7 -0.00066
84.75 -0.00032
84.8 0.00008
84.85 0.00013
84.9 0.00035
84.95 0.0003
85 0.00031
85.05 -0.00006
85.1 -0.00031
85.15 -0.00027
85.2 -0.00014
85.25 -0.00033
85.3 -0.00043
85.35 -0.00064
85.4 -0.00087
85.45 -0.00098
85.5 -0.00086
85.55 -0.00068
85.6 -0.00071
85.65 -0.00048
85.7 -0.00045
85.75 -0.00053
85.8 -0.00082
85.85 -0.00121
85.9 -0.00165
85.95 -0.00211
86 -0.00224
86.05 -0.00233
86.1 -0.00224
86.15 -0.00208
86.2 -0.00214
86.25 -0.00211
86.3 -0.00178
86.35 -0.0015
86.4 -0.00149
86.45 -0.0016
86.5 -0.00185
86.55 -0.00201
86.6 -0.0021
86.65 -0.00221
86.7 -0.00202
86.75 -0.00184
86.8 -0.00161
86.85 -0.0013
86.9 -0.00085
86.95 -0.00027
87 -0.00014
87.05 -0.00035
87.1 -0.00069
87.15 -0.00063
87.2 -0.00064
87.25 -0.00048
87.3 -0.00023
87.35 0.00016
87.4 0.00059
87.45 0.00082
87.5 0.00098
87.55 0.00103
87.6 0.00076
87.65 0.00066
87.7 0.00078
87.75 0.001
87.8 0.00075
87.85 0.00059
87.9 0.00026
87.95 0.00011
88 -0.00026
88.05 -0.00075
88.1 -0.00103
88.15 -0.00135
88.2 -0.0017
88.25 -0.00196
88.3 -0.00171
88.35 -0.00116
88.4 -0.00091
88.45 -0.00071
88.5 -0.00045
88.55 -0.0003
88.6 0.00001
88.65 0.00037
88.7 0.00035
88.75 0.00046
88.8 0.00061
88.85 0.00053
88.9 0.00023
88.95 -0.00027
89 -0.0003
89.05 -0.00053
89.1 -0.00073
89.15 -0.00068
89.2 -0.00036
89.25 -0.00022
89.3 -0.00018
89.35 -0.00016
89.4 -0.00002
89.45 0.00023
89.5 0.00049
89.55 0.00079
89.6 0.00067
89.65 0.00061
89.7 0.00024
89.75 -0.00007
89.8 -0.00029
89.85 -0.00048
89.9 -0.00035
89.95 -0.00036
90 -0.00017
90.05 -0.00011
90.1 0.00017
90.15 0.00027
90.2 0.0005
90.25 0.00063
90.3 0.00058
90.35 0.00076
90.4 0.00084
90.45 0.00083
90.5 0.00049
90.55 0.00037
90.6 0.00015
90.65 -0.00013
90.7 -0.00047
90.75 -0.0008
90.8 -0.00078
90.85 -0.00066
90.9 -0.00077
90.95 -0.00099
91 -0.00129
91.05 -0.00157
91.1 -0.00189
91.15 -0.00167
91.2 -0.00123
91.25 -0.00098
91.3 -0.00068
91.35 -0.00036
91.4 -0.00014
91.45 -0.00023
91.5 -0.00053
91.55 -0.0007
91.6 -0.00086
91.65 -0.00105
91.7 -0.00105
91.75 -0.00118
91.8 -0.00094
91.85 -0.0007
91.9 -0.00055
91.95 -0.00035
92 0.00009
92.05 0.00043
92.1 0.00045
92.15 0.00029
92.2 0.00011
92.25 -0.00017
92.3 -0.00037
92.35 -0.00022
92.4 -0.00014
92.45 -0.00036
92.5 -0.00025
92.55 0.0001
92.6 0.00024
92.65 0.00055
92.7 0.00053
92.75 0.00036
92.8 -0.00005
92.85 -0.00042
92.9 -0.00083
92.95 -0.00116
93 -0.00113
93.05 -0.00087
93.1 -0.00073
93.15 -0.00068
93.2 -0.00063
93.25 -0.00066
93.3 -0.00065
93.35 -0.00057
93.4 -0.00043
93.45 -0.00013
93.5 -0.00006
93.55 -0.00005
93.6 0.00013
93.65 0.00001
93.7 -0.00033
93.75 -0.00041
93.8 -0.0005
93.85 -0.00076
93.9 -0.00061
93.95 -0.00019
94 0.0002
94.05 0.00065
94.1 0.0007
94.15 0.00045
94.2 0.00016
94.25 -0.0002
94.3 -0.00051
94.35 -0.0009
94.4 -0.00109
94.45 -0.00108
94.5 -0.00118
94.55 -0.00102
94.6 -0.00098
94.65 -0.00075
94.7 -0.00069
94.75 -0.00074
94.8 -0.00053
94.85 -0.00016
94.9 0.00005
94.95 0.00038
95 0.00053
95.05 0.00057
95.1 0.00045
95.15 0.00021
95.2 -0.0002
95.25 -0.00064
95.3 -0.00065
95.35 -0.00054
95.4 -0.00024
95.45 0.00006
95.5 0.00023
95.55 0.00041
95.6 0.00039
95.65 0.00016
95.7 0.0003
95.75 0.00011
95.8 -0.00006
95.85 -0.00004
95.9 0.00029
95.95 0.00041
96 0.00061
96.05 0.00061
96.1 0.00067
96.15 0.00041
96.2 0.00024
96.25 0.00011
96.3 0.00007
96.35 0.00012
96.4 0.00002
96.45 -0.00007
96.5 -0.00009
96.55 -0.00022
96.6 -0.00029
96.65 -0.00032
96.7 -0.00011
96.75 0.00016
96.8 0.00047
96.85 0.00089
96.9 0.0011
96.95 0.00111
97 0.001
97.05 0.00076
97.1 0.00074
97.15 0.00068
97.2 0.0008
97.25 0.00109
97.3 0.0013
97.35 0.00149
97.4 0.00153
97.45 0.00124
97.5 0.00123
97.55 0.00117
97.6 0.00114
97.65 0.00097
97.7 0.0008
97.75 0.00059
97.8 0.00025
97.85 -0.00007
97.9 -0.00039
97.95 -0.00064
98 -0.00073
98.05 -0.00088
98.1 -0.00078
98.15 -0.00093
98.2 -0.00071
98.25 -0.0003
98.3 0.00008
98.35 0.00044
98.4 0.0007
98.45 0.00076
98.5 0.0006
98.55 0.00041
98.6 0.00007
98.65 -0.00032
98.7 -0.00057
98.75 -0.00085
98.8 -0.00118
98.85 -0.00105
98.9 -0.00108
98.95 -0.00101
99 -0.00062
99.05 -0.0003
99.1 0.00014
99.15 0.00057
99.2 0.00094
99.25 0.00103
99.3 0.00126
99.35 0.00113
99.4 0.00103
99.45 0.00061
99.5 0.00041
99.55 0.00044
99.6 0.00067
99.65 0.00093
99.7 0.00101
99.75 0.00094
99.8 0.00056
99.85 0.00034
99.9 0
99.95 -0.0004
