0 0
0.05 0.00043
0.1 0.00134
0.15 0.00299
0.2 0.00461
0.25 0.00625
0.3 0.00804
0.35 0.00903
0.4 0.00978
0.45 0.00988
0.5 0.00956
0.55 0.00883
0.6 0.00777
0.65 0.00727
0.7 0.00748
0.75 0.00746
0.8 0.00815
0.85 0.00862
0.9 0.00974
0.95 0.00951
1 0.0085
1.05 0.00816
1.1 0.00739
1.15 0.00671
1.2 0.00564
1.25 0.00487
1.3 0.00427
1.35 0.00377
1.4 0.00424
1.45 0.00524
1.5 0.0069
1.55 0.00845
1.6 0.00924
1.65 0.00907
1.7 0.00838
1.75 0.00792
1.8 0.00734
1.85 0.00632
1.9 0.00539
1.95 0.00452
2 0.00384
2.05 0.00334
2.1 0.004
2.15 0.0052
2.2 0.00687
2.25 0.00853
2.3 0.00945
2.35 0.00937
2.4 0.00958
2.45 0.00964
2.5 0.00902
2.55 0.00894
2.6 0.00814
2.65 0.00796
2.7 0.0069
2.75 0.0052
2.8 0.0046
2.85 0.00413
2.9 0.00303
2.95 0.00315
3 0.00385
3.05 0.005
3.1 0.0059
3.15 0.00657
3.2 0.00612
3.25 0.00598
3.3 0.00657
3.35 0.00707
3.4 0.00794
3.45 0.0083
3.5 0.00806
3.55 0.00692
3.6 0.00538
3.65 0.00382
3.7 0.00277
3.75 0.00217
3.8 0.00155
3.85 0.00217
3.9 0.00329
3.95 0.00333
4 0.00381
4.05 0.00486
4.1 0.00558
4.15 0.00624
4.2 0.00595
4.25 0.00497
4.3 0.00459
4.35 0.00489
4.4 0.00542
4.45 0.00538
4.5 0.00552
4.55 0.00545
4.6 0.00441
4.65 0.00354
4.7 0.00307
4.75 0.00335
4.8 0.00422
4.85 0.00492
4.9 0.00496
4.95 0.00509
5 0.00555
5.05 0.00524
5.1 0.00437
5.15 0.00434
5.2 0.00462
5.25 0.00379
5.3 0.00221
5.35 0.00196
5.4 0.0018
5.45 0.00176
5.5 0.00144
5.55 0.00043
5.6 0.00038
5.65 0.00019
5.7 -0.00026
5.75 -0.00058
5.8 -0.00087
5.85 -0.00129
5.9 -0.00143
5.95 -0.00076
6 0.00038
6.05 0.00146
6.1 0.00286
6.15 0.003
6.2 0.00335
6.25 0.00339
6.3 0.004
6.35 0.00343
6.4 0.003
6.45 0.00209
6.5 0.0011
6.55 0.00008
6.6 -0.0003
6.65 0.00018
6.7 0.00071
6.75 0.00111
6.8 0.0013
6.85 0.00151
6.9 0.00134
6.95 0.00077
7 0.00006
7.05 -0.00094
7.1 -0.00216
7.15 -0.00325
7.2 -0.00362
7.25 -0.00281
7.3 -0.00243
7.35 -0.00134
7.4 -0.00038
7.45 -0.00007
7.5 0.00065
7.55 0.00126
7.6 0.00089
7.65 0.00026
7.7 0.00058
7.75 0.00066
7.8 0.00094
7.85 0.00108
7.9 0.00144
7.95 0.00144
8 0.0016
8.05 0.00127
8.1 0.00015
8.15 -0.00068
8.2 -0.00104
8.25 -0.00025
8.3 -0.00029
8.35 0.00054
8.4 0.00089
8.45 0.00049
8.5 0.00008
8.55 0.00037
8.6 0.00144
8.65 0.00219
8.7 0.00202
8.75 0.00167
8.8 0.00107
8.85 0.00025
8.9 -0.00028
8.95 -0.0013
9 -0.00263
9.05 -0.00331
9.1 -0.00364
9.15 -0.00283
9.2 -0.00242
9.25 -0.00134
9.3 -0.0007
9.35 0.00015
9.4 0.00055
9.45 0.00108
9.5 0.00096
9.55 0.00147
9.6 0.00238
9.65 0.00232
9.7 0.00203
9.75 0.0022
9.8 0.00301
9.85 0.00405
9.9 0.00437
9.95 0.00424
10 0.00451
10.05 0.00373
10.1 0.00263
10.15 0.00177
10.2 0.00035
10.25 -0.00056
10.3 -0.00031
10.35 0.00034
10.4 0.00065
10.45 0.00022
10.5 -0.00006
10.55 -0.00033
10.6 -0.00097
10.65 -0.00154
10.7 -0.00156
10.75 -0.00202
10.8 -0.00235
10.85 -0.00149
10.9 -0.00048
10.95 0.00071
11 0.00169
11.05 0.00141
11.1 0.00072
11.15 -0.00004
11.2 -0.00044
11.25 -0.00078
11.3 -0.00101
11.35 -0.0009
11.4 -0.00006
11.45 -0.0002
11.5 0.00019
11.55 0.0007
11.6 0.00041
11.65 -0.00027
11.7 -0.0011
11.75 -0.00118
11.8 -0.00183
11.85 -0.00241
11.9 -0.00195
11.95 -0.00135
12 -0.00075
12.05 -0.00073
12.1 -0.00082
12.15 -0.00032
12.2 0.00051
12.25 0.00139
12.3 0.00243
12.35 0.00213
12.4 0.0009
12.45 0.00061
12.5 0.00084
12.55 0.00039
12.6 -0.00026
12.65 -0.00112
12.7 -0.00216
12.75 -0.00218
12.8 -0.0014
12.85 -0.00119
12.9 -0.00116
12.95 -0.00105
13 -0.00092
13.05 -0.0004
13.1 0.00083
13.15 0.00199
13.2 0.00205
13.25 0.00121
13.3 -0.00014
13.35 -0.0011
13.4 -0.00152
13.45 -0.0021
13.5 -0.00257
13.55 -0.00274
13.6 -0.00335
13.65 -0.00282
13.7 -0.00155
13.75 -0.00136
13.8 -0.00042
13.85 -0.00027
13.9 -0.00051
13.95 -0.00022
14 0.00082
14.05 0.00222
14.1 0.00328
14.15 0.00368
14.2 0.00331
14.25 0.00318
14.3 0.00277
14.35 0.00157
14.4 0.0013
14.45 0.0005
14.5 0.00033
14.55 0.00077
14.6 0.00039
14.65 0.00089
14.7 0.00109
14.75 0.00052
14.8 0.00061
14.85 0.00054
14.9 0.00055
14.95 0.00114
15 0.00099
15.05 0.00122
15.1 0.00104
15.15 -0.00001
15.2 -0.00027
15.25 -0.00021
15.3 0.00031
15.35 0.00033
15.4 -0.0005
15.45 -0.00067
15.5 -0.00123
15.55 -0.00134
15.6 -0.00059
15.65 -0.00057
15.7 -0.00061
15.75 0.00019
15.8 0.00071
15.85 0.00041
15.9 -0.00052
15.95 -0.0016
16 -0.00206
16.05 -0.00275
16.1 -0.00345
16.15 -0.0044
16.2 -0.00393
16.25 -0.00393
16.3 -0.00365
16.35 -0.00266
16.4 -0.00099
16.45 -0.00023
16.5 0.00052
16.55 0.00075
16.6 0.00168
16.65 0.00129
16.7 0.00106
16.75 0.00047
16.8 -0.00057
16.85 -0.00082
16.9 -0.00072
16.95 -0.00016
17 0.00073
17.05 0.00141
17.1 0.00112
17.15 0.00096
17.2 0.0007
17.25 0.00058
17.3 0.00111
17.35 0.00127
17.4 0.00205
17.45 0.00272
17.5 0.00218
17.55 0.00171
17.6 0.00071
17.65 -0.00042
17.7 -0.00162
17.75 -0.0022
17.8 -0.0023
17.85 -0.00198
17.9 -0.00227
17.95 -0.00231
18 -0.0018
18.05 -0.00194
18.1 -0.00272
18.15 -0.00347
18.2 -0.00276
18.25 -0.00289
18.3 -0.00316
18.35 -0.00229
18.4 -0.00104
18.45 0.00045
18.5 0.00144
18.55 0.00252
18.6 0.00352
18.65 0.0042
18.7 0.00415
18.75 0.003
18.8 0.00184
18.85 0.00173
18.9 0.00202
18.95 0.00249
19 0.00176
19.05 0.00041
19.1 -0.00081
19.15 -0.00209
19.2 -0.00219
19.25 -0.00203
19.3 -0.00088
19.35 -0.00016
19.4 0.00071
19.45 0.00206
19.5 0.00303
19.55 0.00274
19.6 0.00271
19.65 0.00171
19.7 0.00019
19.75 -0.00137
19.8 -0.00238
19.85 -0.00286
19.9 -0.00356
19.95 -0.00454
20 -0.00531
20.05 -0.00451
20.1 -0.00355
20.15 -0.00321
20.2 -0.00311
20.25 -0.00206
20.3 -0.00034
20.35 0.00108
20.4 0.00135
20.45 0.00207
20.5 0.00254
20.55 0.00311
20.6 0.00328
20.65 0.00362
20.7 0.00395
20.75 0.00339
20.8 0.002
20.85 0.00053
20.9 -0.00001
20.95 -0.0011
21 -0.00134
21.05 -0.00086
21.1 0.00012
21.15 0.00104
21.2 0.00191
21.25 0.00215
21.3 0.00284
21.35 0.00343
21.4 0.00314
21.45 0.00225
21.5 0.00066
21.55 -0.00114
21.6 -0.00218
21.65 -0.00347
21.7 -0.00358
21.75 -0.00362
21.8 -0.00312
21.85 -0.00246
21.9 -0.00177
21.95 -0.00074
22 0.00046
22.05 0.00175
22.1 0.00313
22.15 0.00334
22.2 0.00265
22.25 0.00246
22.3 0.00244
22.35 0.00205
22.4 0.00148
22.45 0.00061
22.5 -0.00002
22.55 -0.00092
22.6 -0.00118
22.65 -0.00167
22.7 -0.00168
22.75 -0.00157
22.8 -0.00116
22.85 -0.00164
22.9 -0.00156
22.95 -0.00189
23 -0.00248
23.05 -0.00352
23.1 -0.00341
23.15 -0.00365
23.2 -0.00435
23.25 -0.00354
23.3 -0.0034
23.35 -0.00228
23.4 -0.00191
23.45 -0.00096
23.5 0.00022
23.55 0.0012
23.6 0.00186
23.65 0.00163
23.7 0.00143
23.75 0.00185
23.8 0.00131
23.85 0.00149
23.9 0.00161
23.95 0.00188
24 0.00155
24.05 0.00154
24.1 0.00124
24.15 0.00179
24.2 0.00132
24.25 0.0007
24.3 0.00115
24.35 0.00059
24.4 -0.00004
24.45 0.00017
24.5 -0.00048
24.55 -0.00087
24.6 -0.00186
24.65 -0.00315
24.7 -0.00374
24.75 -0.0042
24.8 -0.00466
24.85 -0.00375
24.9 -0.00303
24.95 -0.00197
25 -0.00121
25.05 -0.00108
25.1 -0.00008
25.15 0.00092
25.2 0.00185
25.25 0.00205
25.3 0.00241
25.35 0.00169
25.4 0.00036
25.45 -0.00127
25.5 -0.00184
25.55 -0.00195
25.6 -0.00135
25.65 -0.0007
25.7 -0.00058
25.75 -0.00017
25.8 0.0007
25.85 0.00056
25.9 0.0004
25.95 0.00095
26 0.00158
26.05 0.00177
26.1 0.00172
26.15 0.00175
26.2 0.00099
26.25 0.00019
26.3 -0.00094
26.35 -0.00218
26.4 -0.002
26.45 -0.00109
26.5 -0.00092
26.55 -0.0007
26.6 -0.00088
26.65 -0.00017
26.7 0.00069
26.75 0.00198
26.8 0.00274
26.85 0.00368
26.9 0.00409
26.95 0.00444
27 0.00375
27.05 0.00305
27.1 0.00208
27.15 0.0008
27.2 -0.00035
27.25 -0.00125
27.3 -0.00185
27.35 -0.00118
27.4 -0.00058
27.45 -0.00085
27.5 -0.00159
27.55 -0.0021
27.6 -0.0026
27.65 -0.00336
27.7 -0.00315
27.75 -0.00201
27.8 -0.00123
27.85 -0.00127
27.9 -0.00153
27.95 -0.00212
28 -0.0016
28.05 -0.00168
28.1 -0.00163
28.15 -0.00056
28.2 0.00053
28.25 0.00108
28.3 0.00072
28.35 0.00099
28.4 0.00114
28.45 0.0008
28.5 0.001
28.55 0.00158
28.6 0.00254
28.65 0.0027
28.7 0.00221
28.75 0.00135
28.8 -0.00004
28.85 -0.00148
28.9 -0.00215
28.95 -0.00186
29 -0.00164
29.05 -0.00166
29.1 -0.00134
29.15 -0.00066
29.2 -0.00057
29.25 -0.00123
29.3 -0.00133
29.35 -0.00157
29.4 -0.00226
29.45 -0.00291
29.5 -0.00218
29.55 -0.00139
29.6 -0.00113
29.65 0.00007
29.7 0.00006
29.75 0.00034
29.8 0.00067
29.85 0.00076
29.9 0
29.95 -0.00121
30 -0.00096
30.05 -0.00015
30.1 0.00059
30.15 0.00021
30.2 -0.00078
30.25 -0.00054
30.3 -0.00078
30.35 -0.00093
30.4 -0.00033
30.45 -0.00023
30.5 -0.00068
30.55 -0.00106
30.6 -0.00138
30.65 -0.0019
30.7 -0.00146
30.75 -0.00036
30.8 0.00071
30.85 0.00179
30.9 0.00224
30.95 0.00302
31 0.00301
31.05 0.00227
31.1 0.00095
31.15 0.00055
31.2 0.00082
31.25 0.00041
31.3 0.0005
31.35 0.00007
31.4 0.00045
31.45 0.00029
31.5 0.0004
31.55 -0.00018
31.6 -0.00014
31.65 -0.00031
31.7 -0.00103
31.75 -0.00161
31.8 -0.0019
31.85 -0.00217
31.9 -0.00154
31.95 -0.00081
32 0.00045
32.05 0.00092
32.1 0.00035
32.15 0.00056
32.2 0.00145
32.25 0.00282
32.3 0.00313
32.35 0.00228
32.4 0.00146
32.45 0.00124
32.5 0.00163
32.55 0.00159
32.6 0.00123
32.65 0.00031
32.7 0.00031
32.75 -0.00017
32.8 0.00011
32.85 0.00119
32.9 0.00116
32.95 0.00077
33 0.00104
33.05 0.00182
33.1 0.00135
33.15 0.00113
33.2 0.00018
33.25 -0.00116
33.3 -0.00172
33.35 -0.00255
33.4 -0.00321
33.45 -0.00398
33.5 -0.00386
33.55 -0.00414
33.6 -0.00361
33.65 -0.00391
33.7 -0.00322
33.75 -0.00203
33.8 -0.00223
33.85 -0.00325
33.9 -0.00408
33.95 -0.005
34 -0.00586
34.05 -0.00664
34.1 -0.00674
34.15 -0.00683
34.2 -0.00708
34.25 -0.00825
34.3 -0.01004
34.35 -0.01233
34.4 -0.01402
34.45 -0.01527
34.5 -0.01666
34.55 -0.01865
34.6 -0.0199
34.65 -0.02197
34.7 -0.02297
34.75 -0.02283
34.8 -0.02307
34.85 -0.02235
34.9 -0.02168
34.95 -0.02135
35 -0.02016
35.05 -0.01798
35.1 -0.01427
35.15 -0.00972
35.2 -0.00511
35.25 -0.00066
35.3 0.00495
35.35 0.00986
35.4 0.0155
35.45 0.02106
35.5 0.02741
35.55 0.03416
35.6 0.0402
35.65 0.04502
35.7 0.04994
35.75 0.0535
35.8 0.05586
35.85 0.05856
35.9 0.05966
35.95 0.06015
36 0.05917
36.05 0.05703
36.1 0.05398
36.15 0.04985
36.2 0.04635
36.25 0.04248
36.3 0.03839
36.35 0.03349
36.4 0.02837
36.45 0.02318
36.5 0.01714
36.55 0.01086
36.6 0.00388
36.65 -0.00333
36.7 -0.00986
36.75 -0.0152
36.8 -0.02042
36.85 -0.02439
36.9 -0.0286
36.95 -0.03221
37 -0.03455
37.05 -0.03655
37.1 -0.03698
37.15 -0.03597
37.2 -0.03495
37.25 -0.03334
37.3 -0.03196
37.35 -0.02941
37.4 -0.0274
37.45 -0.02449
37.5 -0.02228
37.55 -0.02
37.6 -0.01752
37.65 -0.0147
37.7 -0.01299
37.75 -0.01069
37.8 -0.00931
37.85 -0.00789
37.9 -0.00579
37.95 -0.00347
38 -0.00251
38.05 -0.00221
38.1 -0.00214
38.15 -0.00148
38.2 -0.00164
38.25 -0.00209
38.3 -0.00221
38.35 -0.00173
38.4 -0.00198
38.45 -0.00116
38.5 -0.00031
38.55 -0.00059
38.6 0.00009
38.65 0.00137
38.7 0.00136
38.75 0.00162
38.8 0.00231
38.85 0.00189
38.9 0.00101
38.95 0.00101
39 0.00074
39.05 0.00139
39.1 0.00178
39.15 0.00277
39.2 0.00369
39.25 0.00474
39.3 0.0057
39.35 0.00643
39.4 0.0058
39.45 0.00515
39.5 0.0038
39.55 0.00226
39.6 0.0005
39.65 0.00004
39.7 0.00052
39.75 -0.00007
39.8 -0.00096
39.85 -0.00153
39.9 -0.00144
39.95 -0.00174
40 -0.00158
40.05 -0.00145
40.1 -0.00135
40.15 -0.00064
40.2 0.00013
40.25 0.0014
40.3 0.00221
40.35 0.00181
40.4 0.00103
40.45 0.00069
40.5 0.00009
40.55 -0.0002
40.6 -0.00082
40.65 -0.00194
40.7 -0.00225
40.75 -0.0031
40.8 -0.00284
40.85 -0.00171
40.9 -0.00146
40.95 -0.0015
41 -0.00215
41.05 -0.00252
41.1 -0.00305
41.15 -0.00351
41.2 -0.00312
41.25 -0.00316
41.3 -0.00305
41.35 -0.00331
41.4 -0.00353
41.45 -0.00291
41.5 -0.00232
41.55 -0.00088
41.6 0.00059
41.65 0.00198
41.7 0.00195
41.75 0.00258
41.8 0.00346
41.85 0.00313
41.9 0.00353
41.95 0.00376
42 0.00373
42.05 0.00422
42.1 0.00335
42.15 0.00317
42.2 0.00253
42.25 0.00111
42.3 -0.00078
42.35 -0.00195
42.4 -0.00272
42.45 -0.00364
42.5 -0.00474
42.55 -0.00488
42.6 -0.00544
42.65 -0.00606
42.7 -0.00514
42.75 -0.00338
42.8 -0.00138
42.85 0.00086
42.9 0.00197
42.95 0.002
43 0.00271
43.05 0.00233
43.1 0.00117
43.15 -0.00016
43.2 -0.0004
43.25 0.00016
43.3 0.00132
43.35 0.00131
43.4 0.00107
43.45 0.00073
43.5 0.00111
43.55 0.00213
43.6 0.00291
43.65 0.00359
43.7 0.00293
43.75 0.00288
43.8 0.00264
43.85 0.00186
43.9 0.00174
43.95 0.00221
44 0.00184
44.05 0.00214
44.1 0.00233
44.15 0.00291
44.2 0.00373
44.25 0.00454
44.3 0.00401
44.35 0.00403
44.4 0.00439
44.45 0.00425
44.5 0.00424
44.55 0.00395
44.6 0.00256
44.65 0.00108
44.7 0.00045
44.75 0.00075
44.8 0.00026
44.85 -0.00095
44.9 -0.00235
44.95 -0.00302
45 -0.00332
45.05 -0.00263
45.1 -0.00142
45.15 -0.00009
45.2 0.00079
45.25 0.0011
45.3 0.00048
45.35 0.00056
45.4 0.00128
45.45 0.00196
45.5 0.00213
45.55 0.00175
45.6 0.00093
45.65 -0.00053
45.7 -0.00194
45.75 -0.00346
45.8 -0.00334
45.85 -0.00388
45.9 -0.00454
45.95 -0.00516
46 -0.00551
46.05 -0.00458
46.1 -0.00321
46.15 -0.00215
46.2 -0.00183
46.25 -0.00168
46.3 -0.00118
46.35 -0.00108
46.4 -0.00172
46.45 -0.00265
46.5 -0.00231
46.55 -0.0028
46.6 -0.00269
46.65 -0.00283
46.7 -0.00354
46.75 -0.00305
46.8 -0.00276
46.85 -0.00303
46.9 -0.00345
46.95 -0.00376
47 -0.00351
47.05 -0.00336
47.1 -0.00286
47.15 -0.00248
47.2 -0.00237
47.25 -0.00166
47.3 -0.00027
47.35 0.00076
47.4 0.00101
47.45 0.00035
47.5 -0.00093
47.55 -0.0014
47.6 -0.0007
47.65 -0.00006
47.7 0.00117
47.75 0.00198
47.8 0.00152
47.85 0.00171
47.9 0.00139
47.95 0.00035
48 -0.00019
48.05 0.00009
48.1 0.00095
48.15 0.00128
48.2 0.00062
48.25 0.00082
48.3 0.00109
48.35 0.00138
48.4 0.00169
48.45 0.00219
48.5 0.00282
48.55 0.00262
48.6 0.00235
48.65 0.00221
48.7 0.00191
48.75 0.00092
48.8 -0.00008
48.85 -0.00093
48.9 -0.00059
48.95 -0.00085
49 -0.00087
49.05 -0.00155
49.1 -0.0016
49.15 -0.00068
49.2 0.00009
49.25 -0.00018
49.3 0.00007
49.35 0.00078
49.4 0.00198
49.45 0.00292
49.5 0.00283
49.55 0.0023
49.6 0.00098
49.65 -0.00017
49.7 -0.00139
49.75 -0.00195
49.8 -0.00286
49.85 -0.00311
49.9 -0.00223
49.95 -0.00142
50 -0.0014
50.05 -0.00102
50.1 -0.00093
50.15 -0.0002
50.2 -0.0005
50.25 -0.00035
50.3 -0.00102
50.35 -0.00073
50.4 0.0003
50.45 0.00008
50.5 0.00044
50.55 0.00139
50.6 0.00148
50.65 0.00146
50.7 0.00136
50.75 0.00066
50.8 0.00047
50.85 0.00011
50.9 -0.00043
50.95 -0.00025
51 0.00063
51.05 0.00066
51.1 0.00123
51.15 0.00223
51.2 0.0031
51.25 0.00331
51.3 0.00275
51.35 0.0013
51.4 0.00087
51.45 -0.00027
51.5 -0.00078
51.55 -0.00156
51.6 -0.00154
51.65 -0.00205
51.7 -0.00222
51.75 -0.00165
51.8 -0.00136
51.85 -0.00189
51.9 -0.0016
51.95 -0.00125
52 -0.00148
52.05 -0.00101
52.1 -0.00103
52.15 -0.00172
52.2 -0.00256
52.25 -0.00367
52.3 -0.00409
52.35 -0.0048
52.4 -0.00517
52.45 -0.00581
52.5 -0.00603
52.55 -0.00491
52.6 -0.00309
52.65 -0.00161
52.7 -0.00057
52.75 -0.00021
52.8 0
52.85 -0.00006
52.9 -0.00053
52.95 -0.0008
53 -0.00132
53.05 -0.00141
53.1 -0.00051
53.15 -0.00002
53.2 -0
53.25 0.00025
53.3 0.00083
53.35 0.00185
53.4 0.00183
53.45 0.00132
53.5 0.00126
53.55 0.00186
53.6 0.00159
53.65 0.00161
53.7 0.00067
53.75 -0.00009
53.8 -0.00009
53.85 0.00041
53.9 0.00113
53.95 0.00177
54 0.00247
54.05 0.00305
54.1 0.00279
54.15 0.00197
54.2 0.0018
54.25 0.00146
54.3 0.00166
54.35 0.00146
54.4 0.00166
54.45 0.00134
54.5 0.00051
54.55 -0.0009
54.6 -0.0022
54.65 -0.00306
54.7 -0.00315
54.75 -0.00311
54.8 -0.00298
54.85 -0.00248
54.9 -0.00116
54.95 0.00064
55 0.00086
55.05 0.00093
55.1 0.00063
55.15 0.00056
55.2 0.00103
55.25 0.00139
55.3 0.00238
55.35 0.00228
55.4 0.0012
55.45 0.00055
55.5 -0.00048
55.55 -0.0009
55.6 -0.00128
55.65 -0.00205
55.7 -0.0017
55.75 -0.00156
55.8 -0.00088
55.85 -0.0012
55.9 -0.0012
55.95 -0.00121
56 -0.00154
56.05 -0.00214
56.1 -0.0022
56.15 -0.00273
56.2 -0.0032
56.25 -0.00369
56.3 -0.00345
56.35 -0.00264
56.4 -0.00139
56.45 -0.00081
56.5 -0.00112
56.55 -0.00098
56.6 -0.00145
56.65 -0.00213
56.7 -0.00317
56.75 -0.00335
56.8 -0.00308
56.85 -0.00245
56.9 -0.00178
56.95 -0.00122
57 -0.00008
57.05 0.00152
57.1 0.00333
57.15 0.00382
57.2 0.00342
57.25 0.0025
57.3 0.00253
57.35 0.00236
57.4 0.00206
57.45 0.00233
57.5 0.0019
57.55 0.00214
57.6 0.00152
57.65 0.00077
57.7 -0.00011
57.75 -0.00115
57.8 -0.00253
57.85 -0.0038
57.9 -0.00462
57.95 -0.00461
58 -0.00532
58.05 -0.00624
58.1 -0.00663
58.15 -0.00675
58.2 -0.00731
58.25 -0.00856
58.3 -0.0106
58.35 -0.01221
58.4 -0.01403
58.45 -0.01686
58.5 -0.0207
58.55 -0.02482
58.6 -0.03035
58.65 -0.03579
58.7 -0.04216
58.75 -0.04992
58.8 -0.05867
58.85 -0.06818
58.9 -0.07913
58.95 -0.08978
59 -0.10074
59.05 -0.11273
59.1 -0.12654
59.15 -0.1414
59.2 -0.15848
59.25 -0.17603
59.3 -0.19569
59.35 -0.21615
59.4 -0.23717
59.45 -0.25845
59.5 -0.28058
59.55 -0.30376
59.6 -0.32735
59.65 -0.3511
59.7 -0.37476
59.75 -0.39905
59.8 -0.42251
59.85 -0.44508
59.9 -0.46519
59.95 -0.48305
60 -0.49903
60.05 -0.51255
60.1 -0.52356
60.15 -0.53079
60.2 -0.53455
60.25 -0.53426
60.3 -0.52966
60.35 -0.52102
60.4 -0.50976
60.45 -0.4943
60.5 -0.47617
60.55 -0.45416
60.6 -0.42965
60.65 -0.40104
60.7 -0.36918
60.75 -0.33558
60.8 -0.30012
60.85 -0.26233
60.9 -0.22448
60.95 -0.18646
61 -0.14751
61.05 -0.10832
61.1 -0.06964
61.15 -0.03231
61.2 0.00494
61.25 0.04105
61.3 0.07526
61.35 0.10754
61.4 0.13707
61.45 0.16515
61.5 0.19131
61.55 0.21534
61.6 0.23709
61.65 0.25699
61.7 0.27519
61.75 0.29029
61.8 0.30397
61.85 0.31486
61.9 0.32368
61.95 0.33233
62 0.33988
62.05 0.34738
62.1 0.35428
62.15 0.3604
62.2 0.36602
62.25 0.37057
62.3 0.37489
62.35 0.37987
62.4 0.38386
62.45 0.38739
62.5 0.39021
62.55 0.39304
62.6 0.39531
62.65 0.39768
62.7 0.39983
62.75 0.40162
62.8 0.40404
62.85 0.40521
62.9 0.40555
62.95 0.40526
63 0.40444
63.05 0.40339
63.1 0.40185
63.15 0.39959
63.2 0.39774
63.25 0.39541
63.3 0.3923
63.35 0.38835
63.4 0.38301
63.45 0.37672
63.5 0.37061
63.55 0.36427
63.6 0.35691
63.65 0.34884
63.7 0.33987
63.75 0.33099
63.8 0.32131
63.85 0.3107
63.9 0.30055
63.95 0.29056
64 0.28061
64.05 0.27003
64.1 0.25918
64.15 0.24833
64.2 0.23688
64.25 0.22644
64.3 0.21619
64.35 0.2055
64.4 0.19458
64.45 0.18428
64.5 0.17437
64.55 0.16422
64.6 0.15456
64.65 0.14399
64.7 0.13435
64.75 0.12412
64.8 0.11459
64.85 0.10474
64.9 0.09616
64.95 0.08778
65 0.07917
65.05 0.0706
65.1 0.06302
65.15 0.05508
65.2 0.04726
65.25 0.03945
65.3 0.0318
65.35 0.02429
65.4 0.01676
65.45 0.00985
65.5 0.00342
65.55 -0.00258
65.6 -0.00755
65.65 -0.0126
65.7 -0.01725
65.75 -0.0213
65.8 -0.025
65.85 -0.0284
65.9 -0.03235
65.95 -0.03626
66 -0.03905
66.05 -0.0414
66.1 -0.04388
66.15 -0.04674
66.2 -0.05003
66.25 -0.05345
66.3 -0.05637
66.35 -0.05795
66.4 -0.05901
66.45 -0.06035
66.5 -0.06185
66.55 -0.06284
66.6 -0.06351
66.65 -0.06497
66.7 -0.06595
66.75 -0.06712
66.8 -0.06761
66.85 -0.06793
66.9 -0.06848
66.95 -0.06879
67 -0.06858
67.05 -0.06923
67.1 -0.07033
67.15 -0.07115
67.2 -0.07208
67.25 -0.07293
67.3 -0.0729
67.35 -0.07188
67.4 -0.07043
67.45 -0.06959
67.5 -0.06952
67.55 -0.06933
67.6 -0.06941
67.65 -0.06904
67.7 -0.06855
67.75 -0.06887
67.8 -0.0683
67.85 -0.06804
67.9 -0.06762
67.95 -0.06737
68 -0.06626
68.05 -0.06439
68.1 -0.06279
68.15 -0.06166
68.2 -0.06141
68.25 -0.06086
68.3 -0.05965
68.35 -0.05871
68.4 -0.05843
68.45 -0.05813
68.5 -0.05823
68.55 -0.0583
68.6 -0.0588
68.65 -0.05785
68.7 -0.05715
68.75 -0.05604
68.8 -0.05544
68.85 -0.05423
68.9 -0.05339
68.95 -0.05152
69 -0.05065
69.05 -0.05027
69.1 -0.05022
69.15 -0.04938
69.2 -0.04928
69.25 -0.04849
69.3 -0.04689
69.35 -0.04468
69.4 -0.04352
69.45 -0.04261
69.5 -0.04229
69.55 -0.04097
69.6 -0.04063
69.65 -0.03933
69.7 -0.03776
69.75 -0.03586
69.8 -0.03539
69.85 -0.0348
69.9 -0.03386
69.95 -0.03271
70 -0.03128
70.05 -0.03063
70.1 -0.03132
70.15 -0.03183
70.2 -0.03144
70.25 -0.03168
70.3 -0.03242
70.35 -0.0323
70.4 -0.03253
70.45 -0.03318
70.5 -0.03417
70.55 -0.03515
70.6 -0.03551
70.65 -0.03493
70.7 -0.0344
70.75 -0.03345
70.8 -0.03253
70.85 -0.03099
70.9 -0.02902
70.95 -0.02828
71 -0.02828
71.05 -0.02857
71.1 -0.02891
71.15 -0.02904
71.2 -0.02904
71.25 -0.02851
71.3 -0.02825
71.35 -0.02728
71.4 -0.02696
71.45 -0.02663
71.5 -0.02577
71.55 -0.02559
71.6 -0.02505
71.65 -0.02395
71.7 -0.02228
71.75 -0.02167
71.8 -0.02084
71.85 -0.02062
71.9 -0.02016
71.95 -0.01982
72 -0.01943
72.05 -0.01953
72.1 -0.01921
72.15 -0.01831
72.2 -0.01723
72.25 -0.01568
72.3 -0.01542
72.35 -0.01449
72.4 -0.01457
72.45 -0.01544
72.5 -0.01596
72.55 -0.0168
72.6 -0.01729
72.65 -0.01709
72.7 -0.01623
72.75 -0.01633
72.8 -0.01557
72.85 -0.01569
72.9 -0.01524
72.95 -0.014
73 -0.01234
73.05 -0.01167
73.1 -0.01101
73.15 -0.01066
73.2 -0.00967
73.25 -0.00908
73.3 -0.00859
73.35 -0.00819
73.4 -0.00818
73.45 -0.00757
73.5 -0.00766
73.55 -0.00789
73.6 -0.00746
73.65 -0.00701
73.7 -0.00711
73.75 -0.00766
73.8 -0.00798
73.85 -0.00792
73.9 -0.00804
73.95 -0.00815
74 -0.00764
74.05 -0.0068
74.1 -0.00577
74.15 -0.00606
74.2 -0.00705
74.25 -0.00768
74.3 -0.0085
74.35 -0.00877
74.4 -0.00809
74.45 -0.00707
74.5 -0.00716
74.55 -0.00757
74.6 -0.0087
74.65 -0.01024
74.7 -0.01102
74.75 -0.01065
74.8 -0.00994
74.85 -0.00963
74.9 -0.00887
74.95 -0.00912
75 -0.0086
75.05 -0.00859
75.1 -0.0083
75.15 -0.00746
75.2 -0.0074
75.25 -0.00729
75.3 -0.00794
75.35 -0.00797
75.4 -0.00792
75.45 -0.00846
75.5 -0.00894
75.55 -0.00944
75.6 -0.00955
75.65 -0.00983
75.7 -0.00937
75.75 -0.00861
75.8 -0.00845
75.85 -0.00884
75.9 -0.00868
75.95 -0.00747
76 -0.00643
76.05 -0.00631
76.1 -0.00668
76.15 -0.00743
76.2 -0.00796
76.25 -0.00888
76.3 -0.00972
76.35 -0.0091
76.4 -0.00788
76.45 -0.00649
76.5 -0.00549
76.55 -0.00403
76.6 -0.00254
76.65 -0.00147
76.7 -0.0003
76.75 -0.00008
76.8 0.00033
76.85 0.00101
76.9 0.00103
76.95 0.001
77 0.00142
77.05 0.00158
77.1 0.00134
77.15 0.00153
77.2 0.0019
77.25 0.00134
77.3 0.00097
77.35 0.00005
77.4 -0.00027
77.45 -0.00089
77.5 -0.00108
77.55 -0.0016
77.6 -0.00297
77.65 -0.00413
77.7 -0.00395
77.75 -0.00411
77.8 -0.0042
77.85 -0.00371
77.9 -0.00291
77.95 -0.00292
78 -0.00356
78.05 -0.00438
78.1 -0.00552
78.15 -0.00593
78.2 -0.00591
78.25 -0.00583
78.3 -0.00486
78.35 -0.00438
78.4 -0.00451
78.45 -0.0047
78.5 -0.00532
78.55 -0.00593
78.6 -0.00615
78.65 -0.00604
78.7 -0.00492
78.75 -0.00343
78.8 -0.00208
78.85 -0.00052
78.9 0.00047
78.95 0.00137
79 0.00205
79.05 0.00277
79.1 0.00321
79.15 0.00272
79.2 0.0015
79.25 0.00021
79.3 -0.00152
79.35 -0.00322
79.4 -0.0039
79.45 -0.0048
79.5 -0.00431
79.55 -0.00465
79.6 -0.00499
79.65 -0.00531
79.7 -0.00534
79.75 -0.00503
79.8 -0.00415
79.85 -0.00334
79.9 -0.00258
79.95 -0.00238
80 -0.00192
80.05 -0.00162
80.1 -0.00102
80.15 -0.00132
80.2 -0.00078
80.25 -0.0006
80.3 -0.00062
80.35 -0.00029
80.4 -0.00101
80.45 -0.00211
80.5 -0.00273
80.55 -0.00223
80.6 -0.00256
80.65 -0.0019
80.7 -0.001
80.75 -0.00128
80.8 -0.00075
80.85 -0.00106
80.9 -0.00056
80.95 0.00038
81 0.00076
81.05 0.00107
81.1 0.00019
81.15 0.00034
81.2 0.00105
81.25 0.00105
81.3 0.00123
81.35 0.00079
81.4 -0.00055
81.45 -0.00076
81.5 -0.00041
81.55 -0.00088
81.6 -0.00068
81.65 0.00021
81.7 0.00107
81.75 0.0006
81.8 0.00048
81.85 0.00067
81.9 0.00066
81.95 0.001
82 0.00118
82.05 0.00068
82.1 -0.00027
82.15 -0.00157
82.2 -0.00235
82.25 -0.00286
82.3 -0.00257
82.35 -0.00267
82.4 -0.00243
82.45 -0.00271
82.5 -0.00279
82.55 -0.00357
82.6 -0.00337
82.65 -0.00391
82.7 -0.00433
82.75 -0.00427
82.8 -0.004
82.85 -0.00367
82.9 -0.00262
82.95 -0.00142
83 -0.00108
83.05 -0.00035
83.1 -0.00031
83.15 -0.0009
83.2 -0.00207
83.25 -0.00312
83.3 -0.00309
83.35 -0.00307
83.4 -0.00199
83.45 -0.00053
83.5 0.00108
83.55 0.00146
83.6 0.00117
83.65 0.00022
83.7 0.00002
83.75 0.00039
83.8 -0.00024
83.85 -0.00052
83.9 0.00015
83.95 0.00127
84 0.00101
84.05 0.0016
84.1 0.0025
84.15 0.00223
84.2 0.00156
84.25 0.00079
84.3 0.00001
84.35 -0.00056
84.4 -0.00075
84.45 -0.00117
84.5 -0.00073
84.55 -0.00101
84.6 -0.00161
84.65 -0.00178
84.7 -0.0016
84.75 -0.00181
84.8 -0.00192
84.85 -0.00129
84.9 -0.00101
84.95 -0.00055
85 0.00052
85.05 0.0008
85.1 0.00036
85.15 0.00009
85.2 -0.00021
85.25 -0.0007
85.3 -0.00118
85.35 -0.00175
85.4 -0.00192
85.45 -0.00236
85.5 -0.00249
85.55 -0.00172
85.6 -0.00125
85.65 -0.00029
85.7 0.00037
85.75 0.0013
85.8 0.00146
85.85 0.0012
85.9 0.00146
85.95 0.00181
86 0.00267
86.05 0.00233
86.1 0.00236
86.15 0.0021
86.2 0.00212
86.25 0.00251
86.3 0.00281
86.35 0.00299
86.4 0.00336
86.45 0.00333
86.5 0.00241
86.55 0.00198
86.6 0.00217
86.65 0.00173
86.7 0.00177
86.75 0.00233
86.8 0.00196
86.85 0.0011
86.9 -0.00018
86.95 -0.00107
87 -0.00236
87.05 -0.00273
87.1 -0.00302
87.15 -0.00336
87.2 -0.00389
87.25 -0.00342
87.3 -0.00254
87.35 -0.00214
87.4 -0.00246
87.45 -0.00274
87.5 -0.00273
87.55 -0.00336
87.6 -0.00414
87.65 -0.00476
87.7 -0.00518
87.75 -0.00486
87.8 -0.00442
87.85 -0.00378
87.9 -0.00343
87.95 -0.00273
88 -0.00122
88.05 -0.00052
88.1 0.00082
88.15 0.00224
88.2 0.00351
88.25 0.00482
88.3 0.0051
88.35 0.00541
88.4 0.00475
88.45 0.00433
88.5 0.00355
88.55 0.00194
88.6 0.00141
88.65 0.00065
88.7 0.00085
88.75 0.00016
88.8 -0.00122
88.85 -0.00276
88.9 -0.0033
88.95 -0.00363
89 -0.00369
89.05 -0.00372
89.1 -0.00365
89.15 -0.00286
89.2 -0.00302
89.25 -0.00335
89.3 -0.00376
89.35 -0.00298
89.4 -0.00225
89.45 -0.00189
89.5 -0.00227
89.55 -0.00227
89.6 -0.00225
89.65 -0.00131
89.7 -0.00076
89.75 -0.00056
89.8 -0.00116
89.85 -0.00168
89.9 -0.00171
89.95 -0.00097
90 -0.00034
90.05 0.0001
90.1 0.00053
90.15 0.00063
90.2 0.00028
90.25 -0.00078
90.3 -0.00206
90.35 -0.00262
90.4 -0.00213
90.45 -0.00171
90.5 -0.00115
90.55 -0.00055
90.6 0.00032
90.65 0.00142
90.7 0.00142
90.75 0.00198
90.8 0.00154
90.85 0.00085
90.9 0.00117
90.95 0.0015
91 0.00118
91.05 0.00126
91.1 0.00124
91.15 0.00071
91.2 -0.00056
91.25 -0.00168
91.3 -0.00192
91.35 -0.00276
91.4 -0.00331
91.45 -0.00361
91.5 -0.0028
91.55 -0.00136
91.6 -0.00045
91.65 -0.00009
91.7 -0.00021
91.75 0.00008
91.8 -0.00053
91.85 -0.0014
91.9 -0.00216
91.95 -0.003
92 -0.00315
92.05 -0.00383
92.1 -0.00442
92.15 -0.00492
92.2 -0.0042
92.25 -0.00265
92.3 -0.00177
92.35 -0.00189
92.4 -0.00149
92.45 -0.00027
92.5 -0.00027
92.55 -0.00048
92.6 -0.00124
92.65 -0.00141
92.7 -0.00148
92.75 -0.00097
92.8 -0.00096
92.85 -0.0003
92.9 0.00042
92.95 0.0008
93 0.00191
93.05 0.0021
93.1 0.00261
93.15 0.0028
93.2 0.00228
93.25 0.00139
93.3 0.00122
93.35 0.00193
93.4 0.00294
93.45 0.00351
93.5 0.00334
93.55 0.0024
93.6 0.0017
93.65 0.00071
93.7 -0.00031
93.75 -0.00105
93.8 -0.00115
93.85 -0.00057
93.9 -0.0003
93.95 -0.00036
94 -0.0009
94.05 -0.00116
94.1 -0.00181
94.15 -0.00278
94.2 -0.00309
94.25 -0.0026
94.3 -0.00206
94.35 -0.00139
94.4 -0.00099
94.45 0.00006
94.5 0.00149
94.55 0.00301
94.6 0.0035
94.65 0.00424
94.7 0.00433
94.75 0.00427
94.8 0.0044
94.85 0.00486
94.9 0.00447
94.95 0.00301
95 0.00148
95.05 -0.00028
95.1 -0.00088
95.15 -0.00104
95.2 -0.00085
95.25 -0.00082
95.3 -0.00057
95.35 -0.00023
95.4 -0.00013
95.45 -0.00002
95.5 0.00063
95.55 0.0017
95.6 0.00165
95.65 0.00151
95.7 0.00138
95.75 0.00099
95.8 0.0011
95.85 0.00059
95.9 -0.00036
95.95 -0.00101
96 -0.00187
96.05 -0.00304
96.1 -0.00326
96.15 -0.00362
96.2 -0.00332
96.25 -0.00221
96.3 -0.00206
96.35 -0.00221
96.4 -0.00254
96.45 -0.00288
96.5 -0.00303
96.55 -0.00234
96.6 -0.00149
96.65 -0.00162
96.7 -0.0019
96.75 -0.0025
96.8 -0.00285
96.85 -0.0023
96.9 -0.00083
96.95 0.00075
97 0.00095
97.05 0.00143
97.1 0.00143
97.15 0.00058
97.2 -0.00022
97.25 -0.00152
97.3 -0.00265
97.35 -0.0026
97.4 -0.00272
97.45 -0.00291
97.5 -0.00207
97.55 -0.00174
97.6 -0.00109
97.65 0.00036
97.7 0.00067
97.75 0.00007
97.8 0.00026
97.85 -0.00016
97.9 -0.00099
97.95 -0.00087
98 -0.0009
98.05 -0.0003
98.1 -0.00017
98.15 0.00028
98.2 0.00008
98.25 -0.00059
98.3 -0.00085
98.35 -0.00132
98.4 -0.00151
98.45 -0.00112
98.5 0.00011
98.55 0.00161
98.6 0.00278
98.65 0.00416
98.7 0.00459
98.75 0.00417
98.8 0.00367
98.85 0.00395
98.9 0.00446
98.95 0.00411
99 0.00409
99.05 0.00295
99.1 0.00151
99.15 0.00064
99.2 0.00094
99.25 0.00171
99.3 0.00281
99.35 0.00291
99.4 0.00333
99.45 0.00251
99.5 0.00124
99.55 -0.00007
99.6 -0.00043
99.65 -0.00116
99.7 -0.0007
99.75 -0
99.8 -0.00018
99.85 -0.00009
99.9 -0.00084
99.95 -0.00212
