0 0
0.05 0.00076
0.1 0.0025
0.15 0.00358
0.2 0.00398
0.25 0.00394
0.3 0.00421
0.35 0.00498
0.4 0.00655
0.45 0.00832
0.5 0.00875
0.55 0.00948
0.6 0.01017
0.65 0.01002
0.7 0.00968
0.75 0.0086
0.8 0.00758
0.85 0.00757
0.9 0.00692
0.95 0.0058
1 0.00464
1.05 0.00469
1.1 0.00546
1.15 0.00678
1.2 0.00704
1.25 0.00666
1.3 0.00669
1.35 0.00596
1.4 0.00501
1.45 0.00468
1.5 0.00452
1.55 0.00514
1.6 0.00546
1.65 0.00547
1.7 0.00554
1.75 0.00614
1.8 0.00584
1.85 0.00589
1.9 0.00665
1.95 0.0077
2 0.00859
2.05 0.00949
2.1 0.01038
2.15 0.00986
2.2 0.00938
2.25 0.0093
2.3 0.00959
2.35 0.00925
2.4 0.00881
2.45 0.00862
2.5 0.00818
2.55 0.00709
2.6 0.00601
2.65 0.00539
2.7 0.00481
2.75 0.004
2.8 0.00406
2.85 0.00469
2.9 0.00491
2.95 0.00506
3 0.00557
3.05 0.00603
3.1 0.0066
3.15 0.00712
3.2 0.00772
3.25 0.00833
3.3 0.00829
3.35 0.00762
3.4 0.00649
3.45 0.00612
3.5 0.00583
3.55 0.00466
3.6 0.0036
3.65 0.00294
3.7 0.00297
3.75 0.00247
3.8 0.00287
3.85 0.00236
3.9 0.00153
3.95 0.0004
4 -0.00068
4.05 -0.00188
4.1 -0.00194
4.15 -0.0013
4.2 -0.00002
4.25 0.00122
4.3 0.00132
4.35 0.00195
4.4 0.00222
4.45 0.00161
4.5 0.00175
4.55 0.00213
4.6 0.00193
4.65 0.00187
4.7 0.00128
4.75 0.00168
4.8 0.00267
4.85 0.00375
4.9 0.00376
4.95 0.00391
5 0.00315
5.05 0.003
5.1 0.00262
5.15 0.00211
5.2 0.0017
5.25 0.00216
5.3 0.00184
5.35 0.00081
5.4 0.00043
5.45 -0.00009
5.5 0.00019
5.55 0.00013
5.6 -0.00025
5.65 -0.00035
5.7 -0.00062
5.75 -0.00024
5.8 -0.00006
5.85 0.00027
5.9 0.00068
5.95 0.00093
6 0.00152
6.05 0.00173
6.1 0.00107
6.15 0.0001
6.2 -0.00036
6.25 -0.00066
6.3 -0.0006
6.35 -0.0002
6.4 0.00079
6.45 0.00214
6.5 0.00311
6.55 0.00393
6.6 0.00391
6.65 0.00309
6.7 0.00269
6.75 0.0019
6.8 0.00194
6.85 0.00207
6.9 0.00184
6.95 0.00116
7 0.00048
7.05 0.00028
7.1 0.00025
7.15 -0.00028
7.2 -0.00089
7.25 -0.00085
7.3 -0.00053
7.35 -0.00064
7.4 -0.00053
7.45 -0.00096
7.5 -0.00066
7.55 0.00009
7.6 0.00114
7.65 0.00109
7.7 0.00132
7.75 0.00097
7.8 0.00143
7.85 0.0014
7.9 0.0015
7.95 0.00121
8 0.00111
8.05 0.0004
8.1 0.0004
8.15 0.00024
8.2 0.00062
8.25 0.00055
8.3 0.0003
8.35 -0.00047
8.4 -0.00083
8.45 -0.00049
8.5 0.00005
8.55 0.0011
8.6 0.00182
8.65 0.00218
8.7 0.00229
8.75 0.00285
8.8 0.00312
8.85 0.00371
8.9 0.00385
8.95 0.00377
9 0.00354
9.05 0.00273
9.1 0.00136
9.15 -0.0001
9.2 -0.00116
9.25 -0.00152
9.3 -0.00203
9.35 -0.00185
9.4 -0.00084
9.45 -0
9.5 0.00019
9.55 -0.00041
9.6 -0.00075
9.65 -0.00113
9.7 -0.00162
9.75 -0.00126
9.8 -0.00099
9.85 -0.00001
9.9 0.00055
9.95 0.00151
10 0.00263
10.05 0.00369
10.1 0.00437
10.15 0.004
10.2 0.0035
10.25 0.0032
10.3 0.00213
10.35 0.00197
10.4 0.00196
10.45 0.00139
10.5 0.00143
10.55 0.00163
10.6 0.00123
10.65 0.00092
10.7 0.00051
10.75 0.00052
10.8 0.00059
10.85 0.00074
10.9 0.0002
10.95 -0.00074
11 -0.00162
11.05 -0.00244
11.1 -0.00303
11.15 -0.00295
11.2 -0.00206
11.25 -0.00182
11.3 -0.00115
11.35 -0.00115
11.4 -0.00039
11.45 0.00085
11.5 0.00143
11.55 0.00094
11.6 0.00032
11.65 0.00064
11.7 0.00123
11.75 0.00209
11.8 0.00304
11.85 0.00361
11.9 0.0043
11.95 0.00451
12 0.00376
12.05 0.00266
12.1 0.00132
12.15 -0.00043
12.2 -0.00208
12.25 -0.00256
12.3 -0.00205
12.35 -0.00135
12.4 -0.00095
12.45 -0.00053
12.5 0.00028
12.55 0.00027
12.6 0.00068
12.65 0.00059
12.7 -0.00025
12.75 -0.00076
12.8 -0.00126
12.85 -0.00194
12.9 -0.00226
12.95 -0.00298
13 -0.00309
13.05 -0.00252
13.1 -0.00182
13.15 -0.00053
13.2 -0.0002
13.25 -0.00076
13.3 -0.00151
13.35 -0.00155
13.4 -0.00192
13.45 -0.0026
13.5 -0.00343
13.55 -0.00372
13.6 -0.00283
13.65 -0.00183
13.7 -0.00103
13.75 0.00026
13.8 0.00043
13.85 0.00097
13.9 0.00054
13.95 0.0008
14 0.0014
14.05 0.00191
14.1 0.00224
14.15 0.00229
14.2 0.00137
14.25 0.00103
14.3 0.00146
14.35 0.00154
14.4 0.0012
14.45 0.00161
14.5 0.00111
14.55 0.00124
14.6 0.00109
14.65 0.00113
14.7 0.00167
14.75 0.00211
14.8 0.00163
14.85 0.00125
14.9 0.00127
14.95 0.00142
15 0.00201
15.05 0.00268
15.1 0.00313
15.15 0.00235
15.2 0.00151
15.25 0.00005
15.3 -0.00044
15.35 -0.00054
15.4 0.00005
15.45 0.00064
15.5 0.00148
15.55 0.00221
15.6 0.00275
15.65 0.00261
15.7 0.00267
15.75 0.00261
15.8 0.00217
15.85 0.00219
15.9 0.00146
15.95 0.00117
16 0.0004
16.05 -0.00095
16.1 -0.00167
16.15 -0.00137
16.2 -0.00093
16.25 -0.00024
16.3 0.00055
16.35 0.00168
16.4 0.002
16.45 0.00202
16.5 0.00208
16.55 0.0021
16.6 0.00208
16.65 0.00213
16.7 0.00198
16.75 0.00115
16.8 0.00117
16.85 0.00067
16.9 0.00028
16.95 0.00038
17 0.00036
17.05 -0.00046
17.1 -0.00077
17.15 -0.00138
17.2 -0.00196
17.25 -0.00206
17.3 -0.0024
17.35 -0.00297
17.4 -0.00316
17.45 -0.0036
17.5 -0.00359
17.55 -0.00327
17.6 -0.00277
17.65 -0.00275
17.7 -0.0024
17.75 -0.00254
17.8 -0.00309
17.85 -0.00257
17.9 -0.00247
17.95 -0.00248
18 -0.00264
18.05 -0.00222
18.1 -0.00139
18.15 -0.00119
18.2 -0.00108
18.25 -0.00161
18.3 -0.00217
18.35 -0.00223
18.4 -0.00272
18.45 -0.00312
18.5 -0.00374
18.55 -0.00323
18.6 -0.00339
18.65 -0.0028
18.7 -0.00181
18.75 -0.00144
18.8 -0.00168
18.85 -0.00238
18.9 -0.003
18.95 -0.0031
19 -0.00273
19.05 -0.00265
19.1 -0.00248
19.15 -0.00192
19.2 -0.00143
19.25 -0.00121
19.3 -0.00152
19.35 -0.00128
19.4 -0.00134
19.45 -0.00051
19.5 0.00023
19.55 0.00098
19.6 0.00196
19.65 0.00269
19.7 0.0031
19.75 0.00368
19.8 0.00384
19.85 0.0032
19.9 0.00252
19.95 0.00208
20 0.00119
20.05 -0.00007
20.1 -0.00148
20.15 -0.0022
20.2 -0.00286
20.25 -0.00265
20.3 -0.00235
20.35 -0.00265
20.4 -0.003
20.45 -0.00309
20.5 -0.00336
20.55 -0.0036
20.6 -0.00363
20.65 -0.00282
20.7 -0.00196
20.75 -0.00165
20.8 -0.00157
20.85 -0.00193
20.9 -0.0012
20.95 -0.0013
21 -0.00147
21.05 -0.00188
21.1 -0.00135
21.15 -0.00057
21.2 -0.00049
21.25 0.00021
21.3 0.00029
21.35 -0.00017
21.4 -0.00061
21.45 -0.00112
21.5 -0.00167
21.55 -0.00251
21.6 -0.00327
21.65 -0.00355
21.7 -0.00301
21.75 -0.00277
21.8 -0.00227
21.85 -0.0023
21.9 -0.00196
21.95 -0.00178
22 -0.00208
22.05 -0.00196
22.1 -0.00095
22.15 -0.00033
22.2 -0.00031
22.25 -0.00035
22.3 -0.00088
22.35 -0.00176
22.4 -0.00172
22.45 -0.00072
22.5 -0.0004
22.55 -0.00025
22.6 -0.00003
22.65 -0.00041
22.7 0.00019
22.75 0.00016
22.8 -0.00028
22.85 -0.00097
22.9 -0.00185
22.95 -0.0022
23 -0.00213
23.05 -0.00224
23.1 -0.00129
23.15 -0.00014
23.2 0.00106
23.25 0.00154
23.3 0.00185
23.35 0.00157
23.4 0.00162
23.45 0.0016
23.5 0.00198
23.55 0.00145
23.6 0.00101
23.65 0.00027
23.7 -0.00021
23.75 -0.00052
23.8 -0.00125
23.85 -0.00115
23.9 -0.00146
23.95 -0.00096
24 0.00008
24.05 0.00103
24.1 0.00241
24.15 0.00255
24.2 0.00285
24.25 0.00278
24.3 0.00279
24.35 0.00332
24.4 0.00377
24.45 0.00363
24.5 0.00394
24.55 0.00448
24.6 0.0043
24.65 0.00332
24.7 0.00216
24.75 0.00152
24.8 0.0009
24.85 0.00012
24.9 -0.00087
24.95 -0.00108
25 -0.00161
25.05 -0.0013
25.1 -0.00077
25.15 0.00036
25.2 0.00075
25.25 0.00101
25.3 0.00066
25.35 0.00118
25.4 0.00172
25.45 0.00265
25.5 0.00261
25.55 0.003
25.6 0.00329
25.65 0.00341
25.7 0.00327
25.75 0.00301
25.8 0.00245
25.85 0.00178
25.9 0.00063
25.95 -0.00011
26 -0.00012
26.05 -0.00043
26.1 -0.00096
26.15 -0.00156
26.2 -0.00149
26.25 -0.00067
26.3 -0.00024
26.35 -0.00038
26.4 -0.00018
26.45 -0.00029
26.5 -0.00007
26.55 -0.00038
26.6 -0.00025
26.65 0.00059
26.7 0.001
26.75 0.00193
26.8 0.00243
26.85 0.00241
26.9 0.00202
26.95 0.00156
27 0.00128
27.05 0.00121
27.1 0.00069
27.15 -0.00033
27.2 -0.00045
27.25 -0.00112
27.3 -0.00129
27.35 -0.00186
27.4 -0.0018
27.45 -0.00201
27.5 -0.0016
27.55 -0.00117
27.6 -0.00141
27.65 -0.00117
27.7 -0.00166
27.75 -0.00185
27.8 -0.00166
27.85 -0.00067
27.9 0.00001
27.95 0.00074
28 0.00048
28.05 0.00038
28.1 0.00082
28.15 0.00073
28.2 0.0012
28.25 0.0008
28.3 0.00089
28.35 0.00054
28.4 0.00003
28.45 -0.00045
28.5 -0.00135
28.55 -0.0011
28.6 -0.00019
28.65 -0.00003
28.7 0.00026
28.75 0.00078
28.8 0.00085
28.85 0.00121
28.9 0.00123
28.95 0.00073
29 0.00007
29.05 -0.00061
29.1 -0.00127
29.15 -0.00326
29.2 -0.005
29.25 -0.00665
29.3 -0.00913
29.35 -0.01234
29.4 -0.01542
29.45 -0.01911
29.5 -0.02287
29.55 -0.02764
29.6 -0.03181
29.65 -0.03619
29.7 -0.04089
29.75 -0.04686
29.8 -0.05437
29.85 -0.06233
29.9 -0.07108
29.95 -0.08201
30 -0.09424
30.05 -0.1073
30.1 -0.12114
30.15 -0.13605
30.2 -0.15275
30.25 -0.16976
30.3 -0.18739
30.35 -0.2061
30.4 -0.22557
30.45 -0.24658
30.5 -0.26865
30.55 -0.29101
30.6 -0.31364
30.65 -0.33542
30.7 -0.35715
30.75 -0.3779
30.8 -0.39719
30.85 -0.41403
30.9 -0.42931
30.95 -0.44245
31 -0.45373
31.05 -0.46212
31.1 -0.46799
31.15 -0.47027
31.2 -0.46984
31.25 -0.46627
31.3 -0.45966
31.35 -0.45005
31.4 -0.43702
31.45 -0.42155
31.5 -0.40302
31.55 -0.38228
31.6 -0.35883
31.65 -0.33353
31.7 -0.3057
31.75 -0.2755
31.8 -0.2438
31.85 -0.21245
31.9 -0.18081
31.95 -0.14921
32 -0.11751
32.05 -0.08667
32.1 -0.05736
32.15 -0.02826
32.2 -0.00037
32.25 0.02616
32.3 0.05178
32.35 0.07657
32.4 0.09983
32.45 0.12199
32.5 0.143
32.55 0.16311
32.6 0.18242
32.65 0.20082
32.7 0.21871
32.75 0.23603
32.8 0.25154
32.85 0.26619
32.9 0.28039
32.95 0.29364
33 0.3064
33.05 0.3195
33.1 0.33156
33.15 0.34299
33.2 0.35439
33.25 0.36523
33.3 0.37567
33.35 0.38606
33.4 0.39569
33.45 0.40373
33.5 0.41137
33.55 0.41709
33.6 0.42211
33.65 0.42639
33.7 0.42922
33.75 0.43118
33.8 0.43123
33.85 0.4291
33.9 0.42563
33.95 0.42087
34 0.41551
34.05 0.40934
34.1 0.40347
34.15 0.39655
34.2 0.38909
34.25 0.38145
34.3 0.37277
34.35 0.36423
34.4 0.35517
34.45 0.34625
34.5 0.33711
34.55 0.32628
34.6 0.31564
34.65 0.30493
34.7 0.29438
34.75 0.28251
34.8 0.27113
34.85 0.25885
34.9 0.24605
34.95 0.2335
35 0.22098
35.05 0.20975
35.1 0.19945
35.15 0.18843
35.2 0.17847
35.25 0.16835
35.3 0.15819
35.35 0.14845
35.4 0.13933
35.45 0.13054
35.5 0.12198
35.55 0.1137
35.6 0.10572
35.65 0.09805
35.7 0.09037
35.75 0.08294
35.8 0.0756
35.85 0.06833
35.9 0.06034
35.95 0.05183
36 0.04349
36.05 0.0358
36.1 0.02839
36.15 0.02174
36.2 0.01585
36.25 0.01093
36.3 0.00536
36.35 0.0002
36.4 -0.00482
36.45 -0.00982
36.5 -0.01386
36.55 -0.01737
36.6 -0.02027
36.65 -0.0239
36.7 -0.02668
36.75 -0.02987
36.8 -0.03308
36.85 -0.0361
36.9 -0.03888
36.95 -0.04168
37 -0.04466
37.05 -0.04796
37.1 -0.05023
37.15 -0.05149
37.2 -0.05241
37.25 -0.05407
37.3 -0.05489
37.35 -0.05528
37.4 -0.05611
37.45 -0.05681
37.5 -0.05846
37.55 -0.06026
37.6 -0.06234
37.65 -0.06446
37.7 -0.06548
37.75 -0.066
37.8 -0.06637
37.85 -0.06586
37.9 -0.06537
37.95 -0.06499
38 -0.06529
38.05 -0.0657
38.1 -0.06547
38.15 -0.06544
38.2 -0.06511
38.25 -0.06517
38.3 -0.06523
38.35 -0.06536
38.4 -0.06574
38.45 -0.06538
38.5 -0.06472
38.55 -0.06449
38.6 -0.06377
38.65 -0.06251
38.7 -0.06117
38.75 -0.05937
38.8 -0.05729
38.85 -0.05623
38.9 -0.05554
38.95 -0.05458
39 -0.05395
39.05 -0.05405
39.1 -0.05467
39.15 -0.05539
39.2 -0.05607
39.25 -0.05531
39.3 -0.05405
39.35 -0.05307
39.4 -0.05143
39.45 -0.05
39.5 -0.04812
39.55 -0.04613
39.6 -0.04499
39.65 -0.04392
39.7 -0.04368
39.75 -0.04415
39.8 -0.0446
39.85 -0.04543
39.9 -0.04548
39.95 -0.04519
40 -0.04387
40.05 -0.04304
40.1 -0.04224
40.15 -0.04077
40.2 -0.03993
40.25 -0.039
40.3 -0.03847
40.35 -0.0376
40.4 -0.03705
40.45 -0.03726
40.5 -0.03711
40.55 -0.03711
40.6 -0.03623
40.65 -0.03476
40.7 -0.03299
40.75 -0.03152
40.8 -0.03049
40.85 -0.03013
40.9 -0.0292
40.95 -0.02827
41 -0.02723
41.05 -0.02625
41.1 -0.02574
41.15 -0.0259
41.2 -0.02568
41.25 -0.02518
41.3 -0.0252
41.35 -0.0253
41.4 -0.02612
41.45 -0.02738
41.5 -0.0275
41.55 -0.02761
41.6 -0.02754
41.65 -0.0272
41.7 -0.02643
41.75 -0.0253
41.8 -0.02402
41.85 -0.02363
41.9 -0.02319
41.95 -0.02275
42 -0.0224
42.05 -0.02157
42.1 -0.02108
42.15 -0.02072
42.2 -0.02039
42.25 -0.01954
42.3 -0.01965
42.35 -0.01959
42.4 -0.01879
42.45 -0.01787
42.5 -0.01678
42.55 -0.01554
42.6 -0.01447
42.65 -0.01455
42.7 -0.01427
42.75 -0.01499
42.8 -0.01521
42.85 -0.015
42.9 -0.01515
42.95 -0.01607
43 -0.01672
43.05 -0.01687
43.1 -0.01742
43.15 -0.0177
43.2 -0.01807
43.25 -0.01834
43.3 -0.01793
43.35 -0.01701
43.4 -0.01546
43.45 -0.01425
43.5 -0.01312
43.55 -0.01278
43.6 -0.01271
43.65 -0.01269
43.7 -0.01262
43.75 -0.013
43.8 -0.01277
43.85 -0.0127
43.9 -0.01204
43.95 -0.01176
44 -0.01197
44.05 -0.01223
44.1 -0.01237
44.15 -0.0124
44.2 -0.01244
44.25 -0.01249
44.3 -0.01225
44.35 -0.01166
44.4 -0.01194
44.45 -0.0127
44.5 -0.0131
44.55 -0.01334
44.6 -0.01387
44.65 -0.01401
44.7 -0.0143
44.75 -0.0147
44.8 -0.01503
44.85 -0.01405
44.9 -0.0125
44.95 -0.01188
45 -0.01138
45.05 -0.01004
45.1 -0.00911
45.15 -0.00823
45.2 -0.00795
45.25 -0.00844
45.3 -0.0084
45.35 -0.00809
45.4 -0.0073
45.45 -0.00644
45.5 -0.00564
45.55 -0.00492
45.6 -0.00444
45.65 -0.00366
45.7 -0.00329
45.75 -0.00284
45.8 -0.00235
45.85 -0.00297
45.9 -0.00373
45.95 -0.00472
46 -0.00552
46.05 -0.00618
46.1 -0.00697
46.15 -0.00788
46.2 -0.00854
46.25 -0.00804
46.3 -0.00712
46.35 -0.00697
46.4 -0.00687
46.45 -0.00605
46.5 -0.00484
46.55 -0.00363
46.6 -0.0025
46.65 -0.00138
46.7 -0.00139
46.75 -0.00228
46.8 -0.00314
46.85 -0.00335
46.9 -0.00352
46.95 -0.00335
47 -0.00281
47.05 -0.00228
47.1 -0.00221
47.15 -0.00236
47.2 -0.00193
47.25 -0.00232
47.3 -0.00329
47.35 -0.00332
47.4 -0.00337
47.45 -0.00402
47.5 -0.00411
47.55 -0.00413
47.6 -0.00406
47.65 -0.00411
47.7 -0.00353
47.75 -0.00341
47.8 -0.00346
47.85 -0.00341
47.9 -0.00312
47.95 -0.00327
48 -0.0042
48.05 -0.00535
48.1 -0.0059
48.15 -0.0059
48.2 -0.00626
48.25 -0.00687
48.3 -0.00697
48.35 -0.0063
48.4 -0.00542
48.45 -0.00539
48.5 -0.00594
48.55 -0.00652
48.6 -0.00702
48.65 -0.00738
48.7 -0.00719
48.75 -0.00701
48.8 -0.00655
48.85 -0.00523
48.9 -0.00481
48.95 -0.00455
49 -0.00443
49.05 -0.00355
49.1 -0.00252
49.15 -0.00163
49.2 -0.00114
49.25 -0.0002
49.3 0.00078
49.35 0.00191
49.4 0.00151
49.45 0.00159
49.5 0.00126
49.55 0.00083
49.6 0.00034
49.65 -0.00087
49.7 -0.00238
49.75 -0.00274
49.8 -0.00269
49.85 -0.00269
49.9 -0.00239
49.95 -0.00195
50 -0.00138
50.05 -0.00131
50.1 -0.0011
50.15 -0.00047
50.2 0.00015
50.25 -0.00014
50.3 -0.00046
50.35 -0.00042
50.4 -0.00058
50.45 -0.00058
50.5 -0.00004
50.55 -0.00039
50.6 -0.00069
50.65 -0.00047
50.7 -0.00026
50.75 0.00003
50.8 0.00058
50.85 0.00086
50.9 0.00132
50.95 0.00183
51 0.00107
51.05 0.00074
51.1 -0.00027
51.15 -0.00117
51.2 -0.00114
51.25 -0.00116
51.3 -0.0014
51.35 -0.00121
51.4 -0.00188
51.45 -0.00268
51.5 -0.00294
51.55 -0.00254
51.6 -0.003
51.65 -0.00282
51.7 -0.00261
51.75 -0.00287
51.8 -0.00299
51.85 -0.0036
51.9 -0.0035
51.95 -0.00371
52 -0.00388
52.05 -0.00329
52.1 -0.00311
52.15 -0.00285
52.2 -0.00266
52.25 -0.00244
52.3 -0.00222
52.35 -0.00225
52.4 -0.00194
52.45 -0.00206
52.5 -0.00158
52.55 -0.00171
52.6 -0.00204
52.65 -0.00228
52.7 -0.00269
52.75 -0.00303
52.8 -0.00367
52.85 -0.00398
52.9 -0.0038
52.95 -0.00404
53 -0.00403
53.05 -0.00329
53.1 -0.00264
53.15 -0.00195
53.2 -0.00071
53.25 0.00041
53.3 0.00114
53.35 0.00122
53.4 0.00136
53.45 0.00058
53.5 -0.00003
53.55 -0.00103
53.6 -0.0021
53.65 -0.00264
53.7 -0.00207
53.75 -0.00191
53.8 -0.00221
53.85 -0.00225
53.9 -0.0019
53.95 -0.00161
54 -0.00153
54.05 -0.00077
54.1 -0.00074
54.15 -0.00016
54.2 -0.00048
54.25 -0.00142
54.3 -0.00268
54.35 -0.00323
54.4 -0.00289
54.45 -0.00198
54.5 -0.00057
54.55 0.00084
54.6 0.00224
54.65 0.00359
54.7 0.00404
54.75 0.00466
54.8 0.0049
54.85 0.00491
54.9 0.00453
54.95 0.00456
55 0.00468
55.05 0.00457
55.1 0.00341
55.15 0.00279
55.2 0.00141
55.25 0.00098
55.3 0.00123
55.35 0.00052
55.4 0.00003
55.45 -0.00108
55.5 -0.00215
55.55 -0.00293
55.6 -0.00351
55.65 -0.00355
55.7 -0.00366
55.75 -0.00388
55.8 -0.00365
55.85 -0.0037
55.9 -0.00357
55.95 -0.00345
56 -0.00254
56.05 -0.00207
56.1 -0.00175
56.15 -0.00163
56.2 -0.00086
56.25 -0.00068
56.3 -0.00122
56.35 -0.0017
56.4 -0.00242
56.45 -0.00243
56.5 -0.00292
56.55 -0.00234
56.6 -0.00204
56.65 -0.00174
56.7 -0.00126
56.75 -0.00099
56.8 0.00002
56.85 0.00061
56.9 0.00161
56.95 0.00156
57 0.0013
57.05 0.00085
57.1 -0.00019
57.15 -0.00156
57.2 -0.0024
57.25 -0.00249
57.3 -0.00293
57.35 -0.0037
57.4 -0.0042
57.45 -0.00466
57.5 -0.00491
57.55 -0.00524
57.6 -0.00442
57.65 -0.00323
57.7 -0.00143
57.75 -0.00001
57.8 0.00052
57.85 0.00053
57.9 0.00063
57.95 0.00069
58 0.00055
58.05 -0.00019
58.1 0.00009
58.15 0.0004
58.2 0.00112
58.25 0.0012
58.3 0.00085
58.35 0.00027
58.4 -0.00074
58.45 -0.00059
58.5 0.00014
58.55 0.00007
58.6 -0.00046
58.65 -0.0002
58.7 0.00012
58.75 0.00067
58.8 0.00022
58.85 -0.00012
58.9 -0.00066
58.95 -0.00058
59 -0.00095
59.05 -0.00072
59.1 -0.00025
59.15 0.00052
59.2 0.00097
59.25 0.00137
59.3 0.00148
59.35 0.00181
59.4 0.00141
59.45 0.00161
59.5 0.002
59.55 0.00233
59.6 0.00168
59.65 0.00189
59.7 0.00248
59.75 0.00326
59.8 0.00339
59.85 0.00288
59.9 0.00155
59.95 0.00041
60 0.00001
60.05 -0.00102
60.1 -0.00231
60.15 -0.00288
60.2 -0.0034
60.25 -0.00292
60.3 -0.00278
60.35 -0.00198
60.4 -0.00071
60.45 0.00078
60.5 0.00117
60.55 0.00173
60.6 0.00153
60.65 0.00179
60.7 0.00155
60.75 0.00092
60.8 0.00079
60.85 0.00118
60.9 0.00155
60.95 0.00201
61 0.00259
61.05 0.00203
61.1 0.00178
61.15 0.00079
61.2 -0.00054
61.25 -0.00137
61.3 -0.00222
61.35 -0.00288
61.4 -0.0027
61.45 -0.00181
61.5 -0.00033
61.55 0.00007
61.6 0.00002
61.65 0.00048
61.7 0.00141
61.75 0.00208
61.8 0.00217
61.85 0.0017
61.9 0.00068
61.95 0.00047
62 0.00097
62.05 0.00143
62.1 0.00175
62.15 0.0021
62.2 0.00176
62.25 0.00089
62.3 -0.00045
62.35 -0.0009
62.4 -0.00188
62.45 -0.00224
62.5 -0.00235
62.55 -0.00177
62.6 -0.00116
62.65 -0.00142
62.7 -0.00208
62.75 -0.00211
62.8 -0.00136
62.85 -0.00103
62.9 -0.00142
62.95 -0.00177
63 -0.00213
63.05 -0.00292
63.1 -0.00255
63.15 -0.00234
63.2 -0.00133
63.25 -0.00107
63.3 -0.00131
63.35 -0.00103
63.4 -0.00021
63.45 -0.00009
63.5 0.00031
63.55 0.00111
63.6 0.00176
63.65 0.00175
63.7 0.00144
63.75 0.0014
63.8 0.00053
63.85 -0.0005
63.9 -0.00161
63.95 -0.00252
64 -0.00258
64.05 -0.00174
64.1 -0.00086
64.15 -0.00071
64.2 -0.0009
64.25 -0.00107
64.3 -0.00073
64.35 0.00032
64.4 0.00091
64.45 0.00183
64.5 0.00246
64.55 0.00339
64.6 0.00345
64.65 0.00384
64.7 0.00452
64.75 0.00463
64.8 0.00445
64.85 0.00401
64.9 0.0033
64.95 0.00249
65 0.00208
65.05 0.00185
65.1 0.00209
65.15 0.00131
65.2 0.00133
65.25 0.00045
65.3 -0.00048
65.35 -0.00156
65.4 -0.00232
65.45 -0.003
65.5 -0.00321
65.55 -0.0028
65.6 -0.00198
65.65 -0.00079
65.7 -0.00029
65.75 -0.00046
65.8 -0.00128
65.85 -0.00144
65.9 -0.0022
65.95 -0.00253
66 -0.00179
66.05 -0.00159
66.1 -0.00075
66.15 0.00014
66.2 0.00083
66.25 0.00144
66.3 0.002
66.35 0.00212
66.4 0.00193
66.45 0.00187
66.5 0.00116
66.55 0.00087
66.6 0.00104
66.65 0.00142
66.7 0.00131
66.75 0.00089
66.8 0.00042
66.85 -0.0005
66.9 -0.00116
66.95 -0.00228
67 -0.00353
67.05 -0.00479
67.1 -0.00516
67.15 -0.0045
67.2 -0.00349
67.25 -0.00292
67.3 -0.00268
67.35 -0.00228
67.4 -0.00135
67.45 0.00007
67.5 0.00027
67.55 0.00089
67.6 0.00141
67.65 0.00174
67.7 0.00162
67.75 0.00123
67.8 0.00099
67.85 0.00067
67.9 0.0002
67.95 0.00033
68 0.00031
68.05 -0.00026
68.1 -0.0013
68.15 -0.00239
68.2 -0.00282
68.25 -0.00342
68.3 -0.00393
68.35 -0.00331
68.4 -0.00215
68.45 -0.00139
68.5 -0.00071
68.55 -0.00022
68.6 -0.0004
68.65 -0.00097
68.7 -0.00093
68.75 -0.00046
68.8 0.00028
68.85 0.00045
68.9 -0.0001
68.95 0.00008
69 0.00086
69.05 0.0006
69.1 0.00087
69.15 0.00129
69.2 0.00143
69.25 0.00207
69.3 0.00197
69.35 0.00249
69.4 0.00329
69.45 0.00386
69.5 0.00346
69.55 0.00249
69.6 0.00108
69.65 0.00023
69.7 0.00032
69.75 0.00076
69.8 0.00071
69.85 0.00062
69.9 0.00077
69.95 0.00144
70 0.00161
70.05 0.00089
70.1 0.00083
70.15 -0.00005
70.2 -0.00056
70.25 -0.00105
70.3 -0.00192
70.35 -0.00232
70.4 -0.00227
70.45 -0.00136
70.5 -0.0003
70.55 0.00027
70.6 0.00124
70.65 0.00186
70.7 0.00212
70.75 0.0024
70.8 0.00292
70.85 0.00373
70.9 0.00436
70.95 0.00468
71 0.00396
71.05 0.00372
71.1 0.00346
71.15 0.00319
71.2 0.003
71.25 0.00276
71.3 0.00166
71.35 0.00013
71.4 -0.00025
71.45 -0.00034
71.5 -0.00093
71.55 -0.00102
71.6 -0.00149
71.65 -0.00166
71.7 -0.00106
71.75 -0.00039
71.8 0.0006
71.85 0.00103
71.9 0.00086
71.95 -0.00006
72 -0.0005
72.05 -0.00012
72.1 -0.00016
72.15 -0.00027
72.2 -0.00011
72.25 0.00013
72.3 0.00016
72.35 0.00025
72.4 0.00083
72.45 0.00077
72.5 0.00101
72.55 0.0008
72.6 0.00066
72.65 -0.00029
72.7 -0.00052
72.75 -0.00025
72.8 -0.00024
72.85 -0.00028
72.9 -0.00036
72.95 0.0001
73 -0.00007
73.05 -0.00059
73.1 -0.00054
73.15 -0.00124
73.2 -0.00107
73.25 -0.00147
73.3 -0.00239
73.35 -0.00301
73.4 -0.00346
73.45 -0.0031
73.5 -0.00253
73.55 -0.00235
73.6 -0.0024
73.65 -0.00193
73.7 -0.00191
73.75 -0.00239
73.8 -0.00196
73.85 -0.0018
73.9 -0.00111
73.95 -0.0003
74 -0.00027
74.05 0.00003
74.1 0.00015
74.15 0.00084
74.2 0.00098
74.25 0.00166
74.3 0.00122
74.35 0.00129
74.4 0.00066
74.45 0.00055
74.5 0.0006
74.55 -0.00014
74.6 -0.00098
74.65 -0.00109
74.7 -0.00107
74.75 -0.00067
74.8 -0.00084
74.85 -0.00155
74.9 -0.00183
74.95 -0.0012
75 -0.00105
75.05 -0.00019
75.1 -0.00012
75.15 -0.00024
75.2 -0.00095
75.25 -0.00077
75.3 -0.00106
75.35 -0.00183
75.4 -0.00228
75.45 -0.00311
75.5 -0.00287
75.55 -0.00228
75.6 -0.00109
75.65 0.00022
75.7 0.00143
75.75 0.00202
75.8 0.00161
75.85 0.00142
75.9 0.00102
75.95 0.00061
76 -0.00026
76.05 -0.00129
76.1 -0.00217
76.15 -0.00191
76.2 -0.00175
76.25 -0.00161
76.3 -0.00132
76.35 -0.00105
76.4 -0.00032
76.45 0.00055
76.5 0.00127
76.55 0.00187
76.6 0.00199
76.65 0.00248
76.7 0.00183
76.75 0.00161
76.8 0.00065
76.85 0.00034
76.9 -0.00056
76.95 -0.001
77 -0.00114
77.05 -0.00133
77.1 -0.00151
77.15 -0.00183
77.2 -0.00261
77.25 -0.00333
77.3 -0.00366
77.35 -0.00403
77.4 -0.00401
77.45 -0.00348
77.5 -0.00291
77.55 -0.00267
77.6 -0.00269
77.65 -0.00312
77.7 -0.0027
77.75 -0.00213
77.8 -0.00102
77.85 0.00008
77.9 0.00142
77.95 0.00271
78 0.00399
78.05 0.0042
78.1 0.0037
78.15 0.00238
78.2 0.00072
78.25 0.00002
78.3 -0.00043
78.35 -0.00079
78.4 -0.00078
78.45 -0.00124
78.5 -0.00145
78.55 -0.00195
78.6 -0.00183
78.65 -0.00089
78.7 -0.00002
78.75 0.00122
78.8 0.00251
78.85 0.00289
78.9 0.00314
78.95 0.00356
79 0.00429
79.05 0.00494
79.1 0.00568
79.15 0.00494
79.2 0.00331
79.25 0.00218
79.3 0.0009
79.35 -0.00024
79.4 -0.00105
79.45 -0.00085
79.5 -0.00143
79.55 -0.00132
79.6 -0.00093
79.65 -0.00078
79.7 -0.00059
79.75 -0.00015
79.8 0.00041
79.85 0.00086
79.9 0.00139
79.95 0.00181
80 0.00156
80.05 0.00145
80.1 0.00179
80.15 0.00137
80.2 0.00167
80.25 0.00232
80.3 0.00296
80.35 0.00349
80.4 0.00408
80.45 0.00335
80.5 0.00203
80.55 0.00061
80.6 -0.00039
80.65 -0.00045
80.7 -0.00014
80.75 0.00032
80.8 0.0007
80.85 0.00123
80.9 0.00153
80.95 0.00106
81 0.00074
81.05 -0.00023
81.1 -0.0015
81.15 -0.0018
81.2 -0.00227
81.25 -0.0029
81.3 -0.00254
81.35 -0.00193
81.4 -0.00115
81.45 0.0001
81.5 0.00132
81.55 0.00124
81.6 0.00045
81.65 0.00015
81.7 0.00044
81.75 0.0002
81.8 0.00057
81.85 0
81.9 -0.00014
81.95 -0.0002
82 -0.00009
82.05 -0.00063
82.1 -0.00022
82.15 -0.00028
82.2 -0.00061
82.25 -0.00157
82.3 -0.00225
82.35 -0.00293
82.4 -0.00335
82.45 -0.00268
82.5 -0.0028
82.55 -0.00283
82.6 -0.00269
82.65 -0.00297
82.7 -0.00337
82.75 -0.0035
82.8 -0.00269
82.85 -0.00169
82.9 -0.00161
82.95 -0.0009
83 -0.00038
83.05 0.00043
83.1 0.00107
83.15 0.00103
83.2 0.00027
83.25 -0.00043
83.3 -0.00053
83.35 -0.00122
83.4 -0.00227
83.45 -0.00351
83.5 -0.0036
83.55 -0.00321
83.6 -0.00341
83.65 -0.00337
83.7 -0.00375
83.75 -0.00303
83.8 -0.00296
83.85 -0.00204
83.9 -0.00074
83.95 0.00094
84 0.0027
84.05 0.00371
84.1 0.00405
84.15 0.00355
84.2 0.00316
84.25 0.00191
84.3 0.00032
84.35 -0.00061
84.4 -0.00117
84.45 -0.00186
84.5 -0.00289
84.55 -0.00279
84.6 -0.00192
84.65 -0.00086
84.7 -0.00022
84.75 0.00094
84.8 0.00192
84.85 0.00191
84.9 0.00118
84.95 0.00041
85 -0.00043
85.05 -0.00045
85.1 -0.00096
85.15 -0.00051
85.2 0.00056
85.25 0.00155
85.3 0.00221
85.35 0.00236
85.4 0.00224
85.45 0.00182
85.5 0.00168
85.55 0.00091
85.6 0.00086
85.65 0.00037
85.7 0.00078
85.75 0.00112
85.8 0.00146
85.85 0.00191
85.9 0.00213
85.95 0.00212
86 0.00234
86.05 0.00184
86.1 0.00074
86.15 0.00023
86.2 -0.00029
86.25 -0.00083
86.3 -0.00146
86.35 -0.00126
86.4 -0.00168
86.45 -0.00239
86.5 -0.00298
86.55 -0.00336
86.6 -0.00387
86.65 -0.00378
86.7 -0.00366
86.75 -0.00274
86.8 -0.0026
86.85 -0.00249
86.9 -0.00261
86.95 -0.00273
87 -0.0022
87.05 -0.00146
87.1 -0.00016
87.15 0.00072
87.2 0.00134
87.25 0.00193
87.3 0.00177
87.35 0.0021
87.4 0.00155
87.45 0.00155
87.5 0.00097
87.55 0.00117
87.6 0.00183
87.65 0.00183
87.7 0.0018
87.75 0.00145
87.8 0.00091
87.85 -0.00013
87.9 -0.0011
87.95 -0.00236
88 -0.00352
88.05 -0.00464
88.1 -0.00544
88.15 -0.00598
88.2 -0.006
88.25 -0.00544
88.3 -0.00454
88.35 -0.00366
88.4 -0.00271
88.45 -0.00138
88.5 0.00011
88.55 0.00168
88.6 0.00292
88.65 0.00311
88.7 0.00253
88.75 0.00203
88.8 0.00225
88.85 0.00229
88.9 0.00231
88.95 0.0016
89 0.00164
89.05 0.00192
89.1 0.00264
89.15 0.00228
89.2 0.00247
89.25 0.00243
89.3 0.00196
89.35 0.00099
89.4 0.00072
89.45 0.00123
89.5 0.00101
89.55 0.0013
89.6 0.00207
89.65 0.00196
89.7 0.00108
89.75 0.00076
89.8 0.001
89.85 0.00067
89.9 -0.00028
89.95 -0.00065
90 -0.00061
90.05 -0.00055
90.1 0.00022
90.15 0.00064
90.2 0.00138
90.25 0.00244
90.3 0.00308
90.35 0.00328
90.4 0.00364
90.45 0.0038
90.5 0.00311
90.55 0.00252
90.6 0.00212
90.65 0.00094
90.7 -0.00016
90.75 -0.00059
90.8 -0.00072
90.85 -0.00032
90.9 0.00042
90.95 0.00052
91 0.00068
91.05 0.00135
91.1 0.00143
91.15 0.00139
91.2 0.0014
91.25 0.00084
91.3 0.00012
91.35 -0.00012
91.4 -0.00009
91.45 -0.00065
91.5 -0.00023
91.55 -0.00003
91.6 -0.00042
91.65 -0.00124
91.7 -0.00165
91.75 -0.00131
91.8 -0.00047
91.85 0.00008
91.9 0.00074
91.95 0.00077
92 0.00108
92.05 0.00135
92.1 0.0012
92.15 0.00057
92.2 0.0001
92.25 -0.00066
92.3 -0.00068
92.35 -0.00079
92.4 -0.00029
92.45 0.00056
92.5 0.00078
92.55 0.00023
92.6 -0.00022
92.65 -0.00105
92.7 -0.00101
92.75 -0.00083
92.8 -0.00128
92.85 -0.00223
92.9 -0.00274
92.95 -0.00239
93 -0.00204
93.05 -0.002
93.1 -0.00234
93.15 -0.00246
93.2 -0.00283
93.25 -0.00215
93.3 -0.00139
93.35 -0.00062
93.4 -0.00065
93.45 -0.0006
93.5 0.00019
93.55 0.00106
93.6 0.00109
93.65 0.00076
93.7 0.00034
93.75 0.00041
93.8 -0.00013
93.85 -0.00072
93.9 -0.00164
93.95 -0.00249
94 -0.00219
94.05 -0.00228
94.1 -0.00221
94.15 -0.0025
94.2 -0.00274
94.25 -0.00215
94.3 -0.00125
94.35 -0.00004
94.4 0.00072
94.45 0.00074
94.5 0.0005
94.55 0.00034
94.6 -0.00018
94.65 -0.00087
94.7 -0.00144
94.75 -0.00208
94.8 -0.00161
94.85 -0.0012
94.9 -0.00086
94.95 -0.00073
95 0.00017
95.05 0.00138
95.1 0.00248
95.15 0.00221
95.2 0.00214
95.25 0.00131
95.3 0.00029
95.35 -0.00014
95.4 0.00025
95.45 0.00032
95.5 0.00017
95.55 0.00013
95.6 -0.00065
95.65 -0.00137
95.7 -0.0013
95.75 -0.00082
95.8 -0.00042
95.85 -0.00078
95.9 -0.00044
95.95 -0.0002
96 -0.00021
96.05 0.00033
96.1 0.00131
96.15 0.00196
96.2 0.00283
96.25 0.00316
96.3 0.00341
96.35 0.00348
96.4 0.00305
96.45 0.00228
96.5 0.00082
96.55 -0.00004
96.6 -0.00073
96.65 -0.00109
96.7 -0.00071
96.75 -0.00033
96.8 0.00015
96.85 0.00077
96.9 0.00156
96.95 0.00241
97 0.00258
97.05 0.00229
97.1 0.00261
97.15 0.00312
97.2 0.00286
97.25 0.00206
97.3 0.00185
97.35 0.00152
97.4 0.00065
97.45 -0.00073
97.5 -0.00144
97.55 -0.00167
97.6 -0.00138
97.65 -0.00047
97.7 0.00049
97.75 0.00071
97.8 0.00094
97.85 0.0015
97.9 0.00152
97.95 0.00185
98 0.00181
98.05 0.00157
98.1 0.0009
98.15 -0.0004
98.2 -0.00198
98.25 -0.00246
98.3 -0.00248
98.35 -0.00311
98.4 -0.00262
98.45 -0.00271
98.5 -0.00269
98.55 -0.00322
98.6 -0.00381
98.65 -0.00407
98.7 -0.00331
98.75 -0.00241
98.8 -0.00234
98.85 -0.00215
98.9 -0.00192
98.95 -0.00127
99 -0.00047
99.05 -0.00002
99.1 -0.00029
99.15 -0.00039
99.2 -0.00021
99.25 0.00044
99.3 0.00037
99.35 0.00061
99.4 0.00009
99.45 -0.00077
99.5 -0.00102
99.55 -0.00073
99.6 -0.00123
99.65 -0.0013
99.7 -0.00137
99.75 -0.0016
99.8 -0.00211
99.85 -0.00178
99.9 -0.00075
99.95 -0.00001
