0 0
0.05 0.00636
0.1 0.0147
0.15 0.01954
0.2 0.02675
0.25 0.02968
0.3 0.03638
0.35 0.04412
0.4 0.0489
0.45 0.05177
0.5 0.05422
0.55 0.05318
0.6 0.05038
0.65 0.04597
0.7 0.04396
0.75 0.03855
0.8 0.03927
0.85 0.0404
0.9 0.04494
0.95 0.04459
1 0.04001
1.05 0.04008
1.1 0.03633
1.15 0.03819
1.2 0.04193
1.25 0.04487
1.3 0.04767
1.35 0.04859
1.4 0.04575
1.45 0.04642
1.5 0.04683
1.55 0.04543
1.6 0.04078
1.65 0.0355
1.7 0.02999
1.75 0.02578
1.8 0.0261
1.85 0.02901
1.9 0.02967
1.95 0.02855
2 0.02914
2.05 0.03242
2.1 0.03296
2.15 0.03332
2.2 0.03329
2.25 0.02869
2.3 0.02253
2.35 0.01973
2.4 0.01531
2.45 0.01019
2.5 0.01104
2.55 0.01277
2.6 0.01682
2.65 0.01866
2.7 0.02255
2.75 0.02432
2.8 0.02799
2.85 0.03158
2.9 0.03681
2.95 0.0375
3 0.03414
3.05 0.02801
3.1 0.02464
3.15 0.0262
3.2 0.02906
3.25 0.03221
3.3 0.03529
3.35 0.03377
3.4 0.03106
3.45 0.0248
3.5 0.0243
3.55 0.02074
3.6 0.01419
3.65 0.01304
3.7 0.01541
3.75 0.01547
3.8 0.01727
3.85 0.01523
3.9 0.01041
3.95 0.00875
4 0.0114
4.05 0.01618
4.1 0.02053
4.15 0.01834
4.2 0.01584
4.25 0.01279
4.3 0.0114
4.35 0.01081
4.4 0.00822
4.45 0.00115
4.5 -0.00484
4.55 -0.0094
4.6 -0.01472
4.65 -0.01705
4.7 -0.02154
4.75 -0.02557
4.8 -0.0301
4.85 -0.03984
4.9 -0.04868
4.95 -0.05529
5 -0.06392
5.05 -0.0729
5.1 -0.08467
5.15 -0.09653
5.2 -0.10831
5.25 -0.12607
5.3 -0.14328
5.35 -0.15912
5.4 -0.17363
5.45 -0.18668
5.5 -0.19393
5.55 -0.19966
5.6 -0.20015
5.65 -0.20277
5.7 -0.19963
5.75 -0.19275
5.8 -0.18102
5.85 -0.16781
5.9 -0.1527
5.95 -0.13078
6 -0.10462
6.05 -0.07214
6.1 -0.03912
6.15 -0.01092
6.2 0.02016
6.25 0.04958
6.3 0.07358
6.35 0.09726
6.4 0.11655
6.45 0.13381
6.5 0.14858
6.55 0.1537
6.6 0.15388
6.65 0.15235
6.7 0.14812
6.75 0.13962
6.8 0.12716
6.85 0.11246
6.9 0.10125
6.95 0.09103
7 0.08668
7.05 0.0868
7.1 0.08468
7.15 0.08078
7.2 0.07708
7.25 0.07649
7.3 0.07713
7.35 0.08403
7.4 0.09166
7.45 0.10329
7.5 0.11602
7.55 0.1246
7.6 0.13386
7.65 0.14054
7.7 0.14561
7.75 0.15272
7.8 0.15763
7.85 0.15779
7.9 0.15578
7.95 0.15499
8 0.15565
8.05 0.15086
8.1 0.14789
8.15 0.14663
8.2 0.14498
8.25 0.14355
8.3 0.13874
8.35 0.13368
8.4 0.12239
8.45 0.1153
8.5 0.10964
8.55 0.10581
8.6 0.09927
8.65 0.08956
8.7 0.08128
8.75 0.06844
8.8 0.05784
8.85 0.04993
8.9 0.0441
8.95 0.03445
9 0.02432
9.05 0.01222
9.1 0.00226
9.15 -0.00799
9.2 -0.01533
9.25 -0.02028
9.3 -0.02093
9.35 -0.01927
9.4 -0.02203
9.45 -0.02363
9.5 -0.02722
9.55 -0.02851
9.6 -0.03065
9.65 -0.03007
9.7 -0.03021
9.75 -0.03199
9.8 -0.03495
9.85 -0.03572
9.9 -0.03316
9.95 -0.02787
10 -0.02221
10.05 -0.01575
10.1 -0.01132
10.15 -0.00695
10.2 -0.00646
10.25 -0.01029
10.3 -0.01317
10.35 -0.01623
10.4 -0.0161
10.45 -0.01773
10.5 -0.01827
10.55 -0.01895
10.6 -0.02249
10.65 -0.02394
10.7 -0.02795
10.75 -0.02954
10.8 -0.02844
10.85 -0.02692
10.9 -0.02669
10.95 -0.02209
11 -0.02238
11.05 -0.02601
11.1 -0.02498
11.15 -0.02628
11.2 -0.02912
11.25 -0.02789
11.3 -0.02542
11.35 -0.02692
11.4 -0.02898
11.45 -0.02795
11.5 -0.02959
11.55 -0.0325
11.6 -0.03227
11.65 -0.02937
11.7 -0.02579
11.75 -0.02571
11.8 -0.02508
11.85 -0.02669
11.9 -0.02896
11.95 -0.02573
12 -0.01892
12.05 -0.01395
12.1 -0.01278
12.15 -0.01214
12.2 -0.00895
12.25 -0.00979
12.3 -0.00736
12.35 -0.00358
12.4 -0.00539
12.45 -0.00532
12.5 -0.00397
12.55 0.00008
12.6 -0.00138
12.65 0.00089
12.7 -0.0015
12.75 -0.00572
12.8 -0.01098
12.85 -0.01042
12.9 -0.01069
12.95 -0.00848
13 -0.00847
13.05 -0.00553
13.1 -0.00139
13.15 0.00495
13.2 0.00708
13.25 0.00702
13.3 0.0049
13.35 -0.00109
13.4 -0.00609
13.45 -0.00906
13.5 -0.00708
13.55 -0.0058
13.6 -0.00619
13.65 -0.00813
13.7 -0.01264
13.75 -0.01342
13.8 -0.01156
13.85 -0.00635
13.9 0.00102
13.95 0.00606
14 0.00974
14.05 0.00921
14.1 0.01057
14.15 0.00663
14.2 0.00641
14.25 0.00675
14.3 0.00339
14.35 -0.00235
14.4 -0.00866
14.45 -0.01629
14.5 -0.01873
14.55 -0.01672
14.6 -0.01145
14.65 -0.01064
14.7 -0.01215
14.75 -0.01533
14.8 -0.01973
14.85 -0.02489
14.9 -0.02513
14.95 -0.02496
15 -0.02165
15.05 -0.02142
15.1 -0.02143
15.15 -0.01914
15.2 -0.02056
15.25 -0.02002
15.3 -0.01438
15.35 -0.00788
15.4 -0.00383
15.45 -0.00037
15.5 0.00122
15.55 -0.00081
15.6 -0.00639
15.65 -0.01358
15.7 -0.01627
15.75 -0.01928
15.8 -0.02333
15.85 -0.02196
15.9 -0.0201
15.95 -0.01683
16 -0.00925
16.05 -0.00383
16.1 -0.00166
16.15 -0.00233
16.2 0.0012
16.25 0.00128
16.3 -0.00176
16.35 -0.00173
16.4 0.00112
16.45 0.0063
16.5 0.01303
16.55 0.01682
16.6 0.01394
16.65 0.00757
16.7 0.00437
16.75 0.00221
16.8 0.00237
16.85 0.00165
16.9 0.00304
16.95 0.0037
17 0.00039
17.05 -0.00121
17.1 0.00102
17.15 0.00606
17.2 0.00451
17.25 0.0044
17.3 0.00611
17.35 0.00794
17.4 0.01147
17.45 0.01406
17.5 0.01014
17.55 0.00284
17.6 0.00111
17.65 -0.00189
17.7 -0.00001
17.75 -0.00182
17.8 -0.00291
17.85 -0.00339
17.9 -0.00101
17.95 0.00424
18 0.00985
18.05 0.0099
18.1 0.00778
18.15 0.00787
18.2 0.00772
18.25 0.00485
18.3 0.00445
18.35 0.00434
18.4 0.00676
18.45 0.01161
18.5 0.01071
18.55 0.00889
18.6 0.00601
18.65 0.00538
18.7 0.00346
18.75 0.00074
18.8 0.0023
18.85 -0.00084
18.9 -0.00586
18.95 -0.00769
19 -0.00743
19.05 -0.00568
19.1 -0.00684
19.15 -0.00534
19.2 -0.00091
19.25 0.00306
19.3 0.00314
19.35 0.00232
19.4 -0.00255
19.45 -0.00762
19.5 -0.01331
19.55 -0.01513
19.6 -0.01113
19.65 -0.01137
19.7 -0.00918
19.75 -0.00528
19.8 -0.00309
19.85 0.00166
19.9 0.00058
19.95 0.00209
20 0.00531
20.05 0.00671
20.1 0.00649
20.15 0.00936
20.2 0.01297
20.25 0.01199
20.3 0.0098
20.35 0.00776
20.4 0.00188
20.45 0.0002
20.5 -0.00017
20.55 -0.00457
20.6 -0.01044
20.65 -0.01656
20.7 -0.02029
20.75 -0.02009
20.8 -0.01708
20.85 -0.01493
20.9 -0.01431
20.95 -0.01115
21 -0.00969
21.05 -0.00956
21.1 -0.00943
21.15 -0.01225
21.2 -0.01681
21.25 -0.02237
21.3 -0.0257
21.35 -0.02289
21.4 -0.02343
21.45 -0.02513
21.5 -0.021
21.55 -0.02004
21.6 -0.01635
21.65 -0.00848
21.7 -0.00436
21.75 -0.00077
21.8 -0.00234
21.85 -0.00049
21.9 0.00485
21.95 0.00439
22 0.00671
22.05 0.00465
22.1 0.0009
22.15 0.00226
22.2 0.00219
22.25 0.005
22.3 0.00603
22.35 0.00602
22.4 0.00147
22.45 0.00107
22.5 0.00444
22.55 0.00504
22.6 0.00593
22.65 0.0079
22.7 0.01124
22.75 0.00853
22.8 0.00594
22.85 0.00348
22.9 0.00561
22.95 0.01065
23 0.01056
23.05 0.00921
23.1 0.00498
23.15 0.00379
23.2 0.00079
23.25 -0.00027
23.3 -0.00437
23.35 -0.00952
23.4 -0.01201
23.45 -0.0104
23.5 -0.00665
23.55 -0.00466
23.6 -0.00572
23.65 -0.00666
23.7 -0.00259
23.75 -0.00251
23.8 -0.00014
23.85 0.00469
23.9 0.00831
23.95 0.01157
24 0.0124
24.05 0.01493
24.1 0.01907
24.15 0.01715
24.2 0.01599
24.25 0.01565
24.3 0.01484
24.35 0.01115
24.4 0.00609
24.45 0.00427
24.5 -0.00125
24.55 -0.00118
24.6 -0.00308
24.65 -0.00204
24.7 -0.00417
24.75 -0.00162
24.8 0.00109
24.85 0.00221
24.9 0.0022
24.95 0.00462
25 0.00668
25.05 0.00362
25.1 0.00529
25.15 0.00303
25.2 -0.00229
25.25 -0.00538
25.3 -0.00743
25.35 -0.01074
25.4 -0.00827
25.45 -0.0081
25.5 -0.00909
25.55 -0.0069
25.6 -0.00682
25.65 -0.00633
25.7 -0.00973
25.75 -0.00826
25.8 -0.00485
25.85 -0.00592
25.9 -0.00788
25.95 -0.00579
26 -0.00443
26.05 -0.00504
26.1 -0.00198
26.15 0.00123
26.2 0.00261
26.25 -0.00001
26.3 -0.00099
26.35 0.00074
26.4 -0.00007
26.45 -0.0011
26.5 0.00178
26.55 0.00083
26.6 0.00226
26.65 0.00673
26.7 0.00842
26.75 0.00528
26.8 0.00282
26.85 0.0032
26.9 0.00662
26.95 0.00603
27 0.00752
27.05 0.00805
27.1 0.00664
27.15 0.00596
27.2 0.00488
27.25 0.00065
27.3 -0.00703
27.35 -0.0159
27.4 -0.01799
27.45 -0.01876
27.5 -0.02147
27.55 -0.02618
27.6 -0.0325
27.65 -0.03297
27.7 -0.03468
27.75 -0.04059
27.8 -0.04927
27.85 -0.05925
27.9 -0.06669
27.95 -0.07713
28 -0.09169
28.05 -0.10617
28.1 -0.11895
28.15 -0.13199
28.2 -0.14958
28.25 -0.17661
28.3 -0.20986
28.35 -0.24522
28.4 -0.28629
28.45 -0.32925
28.5 -0.3767
28.55 -0.42925
28.6 -0.48583
28.65 -0.54727
28.7 -0.61519
28.75 -0.68982
28.8 -0.77096
28.85 -0.8548
28.9 -0.94282
28.95 -1.03614
29 -1.13371
29.05 -1.23306
29.1 -1.33566
29.15 -1.43438
29.2 -1.53289
29.25 -1.62855
29.3 -1.72386
29.35 -1.81684
29.4 -1.90466
29.45 -1.98901
29.5 -2.06453
29.55 -2.1264
29.6 -2.17904
29.65 -2.22267
29.7 -2.25925
29.75 -2.28067
29.8 -2.29127
29.85 -2.29103
29.9 -2.27449
29.95 -2.24264
30 -2.19358
30.05 -2.13013
30.1 -2.05864
30.15 -1.97842
30.2 -1.89079
30.25 -1.79014
30.3 -1.6815
30.35 -1.56687
30.4 -1.4438
30.45 -1.30906
30.5 -1.16737
30.55 -1.02194
30.6 -0.87521
30.65 -0.72475
30.7 -0.57591
30.75 -0.42216
30.8 -0.27194
30.85 -0.11893
30.9 0.0287
30.95 0.17658
31 0.32224
31.05 0.46389
31.1 0.59951
31.15 0.72557
31.2 0.84528
31.25 0.96105
31.3 1.06864
31.35 1.17243
31.4 1.26679
31.45 1.35655
31.5 1.43331
31.55 1.50037
31.6 1.56241
31.65 1.62065
31.7 1.66962
31.75 1.71009
31.8 1.74412
31.85 1.77388
31.9 1.80034
31.95 1.82411
32 1.84187
32.05 1.85838
32.1 1.86984
32.15 1.87853
32.2 1.89
32.25 1.89948
32.3 1.90789
32.35 1.91047
32.4 1.90673
32.45 1.90035
32.5 1.89053
32.55 1.87843
32.6 1.86393
32.65 1.846
32.7 1.82893
32.75 1.814
32.8 1.79655
32.85 1.78227
32.9 1.76827
32.95 1.75091
33 1.73033
33.05 1.71104
33.1 1.68989
33.15 1.66732
33.2 1.63627
33.25 1.60469
33.3 1.56981
33.35 1.52907
33.4 1.48718
33.45 1.44222
33.5 1.39647
33.55 1.35439
33.6 1.31286
33.65 1.27104
33.7 1.23035
33.75 1.18864
33.8 1.14997
33.85 1.10926
33.9 1.06303
33.95 1.01671
34 0.97275
34.05 0.92621
34.1 0.88428
34.15 0.83949
34.2 0.79341
34.25 0.7472
34.3 0.70042
34.35 0.6558
34.4 0.61616
34.45 0.5733
34.5 0.5349
34.55 0.4999
34.6 0.46101
34.65 0.41927
34.7 0.37932
34.75 0.34252
34.8 0.30834
34.85 0.27663
34.9 0.24454
34.95 0.21583
35 0.19023
35.05 0.16572
35.1 0.14163
35.15 0.11199
35.2 0.08662
35.25 0.06301
35.3 0.03842
35.35 0.01645
35.4 -0.00494
35.45 -0.02887
35.5 -0.05077
35.55 -0.07594
35.6 -0.09991
35.65 -0.12076
35.7 -0.13968
35.75 -0.15454
35.8 -0.17137
35.85 -0.18922
35.9 -0.20725
35.95 -0.21884
36 -0.22799
36.05 -0.24055
36.1 -0.25487
36.15 -0.26804
36.2 -0.27611
36.25 -0.27895
36.3 -0.28164
36.35 -0.28525
36.4 -0.29273
36.45 -0.30027
36.5 -0.30859
36.55 -0.31624
36.6 -0.31869
36.65 -0.31777
36.7 -0.31618
36.75 -0.3148
36.8 -0.31317
36.85 -0.31709
36.9 -0.31757
36.95 -0.32208
37 -0.32214
37.05 -0.3229
37.1 -0.32174
37.15 -0.32446
37.2 -0.3289
37.25 -0.32777
37.3 -0.32951
37.35 -0.32893
37.4 -0.32895
37.45 -0.32507
37.5 -0.31803
37.55 -0.3085
37.6 -0.30438
37.65 -0.30519
37.7 -0.30837
37.75 -0.30867
37.8 -0.30537
37.85 -0.2988
37.9 -0.2926
37.95 -0.2849
38 -0.27864
38.05 -0.27297
38.1 -0.27162
38.15 -0.27283
38.2 -0.27059
38.25 -0.27224
38.3 -0.27311
38.35 -0.27246
38.4 -0.26731
38.45 -0.26405
38.5 -0.26292
38.55 -0.25652
38.6 -0.25013
38.65 -0.24401
38.7 -0.24095
38.75 -0.2346
38.8 -0.23148
38.85 -0.22705
38.9 -0.2271
38.95 -0.22759
39 -0.22439
39.05 -0.21679
39.1 -0.21426
39.15 -0.20926
39.2 -0.20325
39.25 -0.19649
39.3 -0.19535
39.35 -0.19489
39.4 -0.19737
39.45 -0.19932
39.5 -0.20247
39.55 -0.20378
39.6 -0.20159
39.65 -0.19377
39.7 -0.18572
39.75 -0.17687
39.8 -0.17186
39.85 -0.16878
39.9 -0.16727
39.95 -0.16644
40 -0.16421
40.05 -0.16496
40.1 -0.16477
40.15 -0.16146
40.2 -0.15667
40.25 -0.15143
40.3 -0.14652
40.35 -0.14499
40.4 -0.14487
40.45 -0.14411
40.5 -0.13954
40.55 -0.13287
40.6 -0.13141
40.65 -0.13384
40.7 -0.13134
40.75 -0.12845
40.8 -0.1288
40.85 -0.12406
40.9 -0.12384
40.95 -0.12621
41 -0.12494
41.05 -0.12349
41.1 -0.12188
41.15 -0.1206
41.2 -0.11954
41.25 -0.11807
41.3 -0.11919
41.35 -0.12051
41.4 -0.11766
41.45 -0.11074
41.5 -0.10418
41.55 -0.09737
41.6 -0.09204
41.65 -0.09059
41.7 -0.09292
41.75 -0.09741
41.8 -0.09942
41.85 -0.10175
41.9 -0.10161
41.95 -0.09838
42 -0.09517
42.05 -0.09487
42.1 -0.08964
42.15 -0.08196
42.2 -0.07656
42.25 -0.0701
42.3 -0.06734
42.35 -0.06877
42.4 -0.07361
42.45 -0.07432
42.5 -0.07731
42.55 -0.08081
42.6 -0.08575
42.65 -0.08992
42.7 -0.0945
42.75 -0.0978
42.8 -0.09768
42.85 -0.09737
42.9 -0.09721
42.95 -0.09309
43 -0.09128
43.05 -0.08427
43.1 -0.07884
43.15 -0.07555
43.2 -0.07072
43.25 -0.06369
43.3 -0.05927
43.35 -0.05328
43.4 -0.04986
43.45 -0.0445
43.5 -0.04035
43.55 -0.0391
43.6 -0.03712
43.65 -0.03321
43.7 -0.02918
43.75 -0.02952
43.8 -0.03384
43.85 -0.03437
43.9 -0.03741
43.95 -0.03853
44 -0.03619
44.05 -0.03769
44.1 -0.03668
44.15 -0.03497
44.2 -0.03735
44.25 -0.04296
44.3 -0.04328
44.35 -0.03876
44.4 -0.03401
44.45 -0.02921
44.5 -0.02395
44.55 -0.02396
44.6 -0.02722
44.65 -0.0331
44.7 -0.03464
44.75 -0.03622
44.8 -0.0378
44.85 -0.0396
44.9 -0.03607
44.95 -0.0293
45 -0.02815
45.05 -0.02372
45.1 -0.02288
45.15 -0.02557
45.2 -0.02425
45.25 -0.02444
45.3 -0.02503
45.35 -0.02494
45.4 -0.02638
45.45 -0.03038
45.5 -0.03473
45.55 -0.04037
45.6 -0.04238
45.65 -0.04243
45.7 -0.04
45.75 -0.03298
45.8 -0.0262
45.85 -0.01882
45.9 -0.01496
45.95 -0.01462
46 -0.01206
46.05 -0.01488
46.1 -0.02056
46.15 -0.02693
46.2 -0.0289
46.25 -0.03324
46.3 -0.03401
46.35 -0.03693
46.4 -0.03342
46.45 -0.02625
46.5 -0.01832
46.55 -0.01296
46.6 -0.00782
46.65 -0.00448
46.7 -0.00257
46.75 0.001
46.8 0.00038
46.85 -0.00275
46.9 -0.008
46.95 -0.01075
47 -0.01222
47.05 -0.01163
47.1 -0.01585
47.15 -0.01563
47.2 -0.01876
47.25 -0.02434
47.3 -0.02611
47.35 -0.03038
47.4 -0.03104
47.45 -0.03405
47.5 -0.03771
47.55 -0.03895
47.6 -0.04142
47.65 -0.04136
47.7 -0.03626
47.75 -0.03098
47.8 -0.02957
47.85 -0.02915
47.9 -0.02942
47.95 -0.02374
48 -0.01645
48.05 -0.01034
48.1 -0.00724
48.15 -0.00205
48.2 0.00175
48.25 0.00027
48.3 -0.0007
48.35 -0.00522
48.4 -0.00883
48.45 -0.00808
48.5 -0.00781
48.55 -0.00502
48.6 -0.00009
48.65 -0.00075
48.7 -0.00475
48.75 -0.00351
48.8 0.00091
48.85 -0.00058
48.9 -0.00557
48.95 -0.00871
49 -0.01024
49.05 -0.00774
49.1 -0.00969
49.15 -0.01013
49.2 -0.01119
49.25 -0.01085
49.3 -0.01164
49.35 -0.00935
49.4 -0.01033
49.45 -0.00774
49.5 -0.00528
49.55 -0.00752
49.6 -0.00758
49.65 -0.00696
49.7 -0.00504
49.75 -0.00239
49.8 0.00122
49.85 0.00049
49.9 0.00053
49.95 0.00122
50 0.00257
50.05 0.0034
50.1 0.00559
50.15 0.00978
50.2 0.0108
50.25 0.00732
50.3 0.00462
50.35 0.00406
50.4 0.00679
50.45 0.00497
50.5 0.00045
50.55 -0.00417
50.6 -0.01136
50.65 -0.01764
50.7 -0.02154
50.75 -0.0198
50.8 -0.01738
50.85 -0.01409
50.9 -0.01168
50.95 -0.01294
51 -0.01475
51.05 -0.01181
51.1 -0.00557
51.15 -0.00203
51.2 -0.001
51.25 0.00024
51.3 -0.00138
51.35 -0.00429
51.4 -0.00706
51.45 -0.01243
51.5 -0.0144
51.55 -0.0109
51.6 -0.00526
51.65 0.00111
51.7 0.00519
51.75 0.0035
51.8 0.00176
51.85 -0.00319
51.9 -0.00974
51.95 -0.01239
52 -0.01732
52.05 -0.0191
52.1 -0.01604
52.15 -0.01092
52.2 -0.00758
52.25 -0.00637
52.3 -0.00408
52.35 -0.0028
52.4 -0.00205
52.45 -0.0026
52.5 -0.00487
52.55 -0.00941
52.6 -0.0106
52.65 -0.01409
52.7 -0.01686
52.75 -0.02004
52.8 -0.02341
52.85 -0.0224
52.9 -0.01803
52.95 -0.01023
53 -0.00247
53.05 0.00618
53.1 0.0097
53.15 0.00997
53.2 0.00896
53.25 0.01095
53.3 0.01117
53.35 0.00666
53.4 0.00212
53.45 0.00156
53.5 -0.00153
53.55 -0.00444
53.6 -0.00293
53.65 0.00014
53.7 0.00116
53.75 0.00424
53.8 0.00652
53.85 0.01117
53.9 0.01001
53.95 0.01178
54 0.01418
54.05 0.01728
54.1 0.01841
54.15 0.01617
54.2 0.00951
54.25 0.00624
54.3 0.0051
54.35 0.00719
54.4 0.01003
54.45 0.01167
54.5 0.00895
54.55 0.007
54.6 0.00158
54.65 0.00167
54.7 0.00116
54.75 0.00131
54.8 0.00162
54.85 0.00474
54.9 0.00701
54.95 0.0084
55 0.00423
55.05 0.00096
55.1 -0.00445
55.15 -0.00741
55.2 -0.01248
55.25 -0.01308
55.3 -0.01522
55.35 -0.01643
55.4 -0.01709
55.45 -0.01382
55.5 -0.0124
55.55 -0.01368
55.6 -0.01179
55.65 -0.01256
55.7 -0.01254
55.75 -0.00755
55.8 -0.00646
55.85 -0.00214
55.9 0.00448
55.95 0.01184
56 0.01494
56.05 0.01549
56.1 0.01228
56.15 0.01087
56.2 0.00624
56.25 -0.0005
56.3 -0.00533
56.35 -0.00658
56.4 -0.00573
56.45 -0.00518
56.5 -0.00522
56.55 -0.0053
56.6 -0.00499
56.65 -0.0047
56.7 -0.00572
56.75 -0.01022
56.8 -0.01311
56.85 -0.01634
56.9 -0.01434
56.95 -0.01508
57 -0.01287
57.05 -0.0137
57.1 -0.01429
57.15 -0.01761
57.2 -0.01443
57.25 -0.01281
57.3 -0.0074
57.35 -0.00301
57.4 0.00044
57.45 0.00533
57.5 0.00914
57.55 0.01034
57.6 0.0108
57.65 0.01231
57.7 0.01618
57.75 0.01896
57.8 0.01994
57.85 0.01837
57.9 0.01723
57.95 0.01906
58 0.02123
58.05 0.01701
58.1 0.01076
58.15 0.00979
58.2 0.01177
58.25 0.0091
58.3 0.00878
58.35 0.01074
58.4 0.00852
58.45 0.00839
58.5 0.01135
58.55 0.01357
58.6 0.01398
58.65 0.01355
58.7 0.00852
58.75 0.00837
58.8 0.00681
58.85 0.00753
58.9 0.00278
58.95 -0.00436
59 -0.01256
59.05 -0.01512
59.1 -0.01809
59.15 -0.02258
59.2 -0.02021
59.25 -0.01441
59.3 -0.01109
59.35 -0.00494
59.4 0.00108
59.45 0.00479
59.5 0.00363
59.55 0.00298
59.6 0.00089
59.65 -0.00206
59.7 -0.00779
59.75 -0.00837
59.8 -0.00798
59.85 -0.00721
59.9 -0.01002
59.95 -0.00937
60 -0.00956
60.05 -0.01329
60.1 -0.01599
60.15 -0.01745
60.2 -0.01524
60.25 -0.01273
60.3 -0.01294
60.35 -0.01517
60.4 -0.01554
60.45 -0.01154
60.5 -0.01023
60.55 -0.00789
60.6 -0.00254
60.65 0.00234
60.7 0.00629
60.75 0.00885
60.8 0.00676
60.85 0.00192
60.9 0.00171
60.95 0.00378
61 0.00697
61.05 0.00714
61.1 0.00423
61.15 0.00438
61.2 0.00281
61.25 0.00413
61.3 0.00173
61.35 0.0032
61.4 0.00026
61.45 -0.00217
61.5 -0.00531
61.55 -0.00386
61.6 -0.00606
61.65 -0.01088
61.7 -0.00966
61.75 -0.00429
61.8 -0.00343
61.85 -0.00688
61.9 -0.01002
61.95 -0.01312
62 -0.01009
62.05 -0.00731
62.1 -0.00103
62.15 0.00305
62.2 0.00379
62.25 0.00541
62.3 0.00835
62.35 0.00575
62.4 0.0017
62.45 -0.0051
62.5 -0.01019
62.55 -0.01378
62.6 -0.01896
62.65 -0.02281
62.7 -0.02329
62.75 -0.02522
62.8 -0.02233
62.85 -0.01649
62.9 -0.01021
62.95 -0.00384
63 0.00054
63.05 0.00591
63.1 0.00919
63.15 0.0075
63.2 0.00585
63.25 0.0027
63.3 -0.00034
63.35 -0.00122
63.4 -0.0045
63.45 -0.00305
63.5 -0.00475
63.55 -0.00545
63.6 -0.00862
63.65 -0.01169
63.7 -0.01497
63.75 -0.014
63.8 -0.01562
63.85 -0.01626
63.9 -0.01343
63.95 -0.01433
64 -0.01167
64.05 -0.01197
64.1 -0.01402
64.15 -0.0109
64.2 -0.00802
64.25 -0.00852
64.3 -0.00999
64.35 -0.01355
64.4 -0.01507
64.45 -0.01585
64.5 -0.01458
64.55 -0.01089
64.6 -0.00586
64.65 -0.00338
64.7 -0.00318
64.75 -0.00123
64.8 0.00334
64.85 0.00527
64.9 0.01059
64.95 0.01196
65 0.01092
65.05 0.00806
65.1 0.00933
65.15 0.01215
65.2 0.01067
65.25 0.01247
65.3 0.01485
65.35 0.01516
65.4 0.017
65.45 0.01673
65.5 0.01616
65.55 0.01045
65.6 0.00503
65.65 -0.00225
65.7 -0.0084
65.75 -0.01017
65.8 -0.00955
65.85 -0.00408
65.9 0.00221
65.95 0.00942
66 0.01616
66.05 0.01595
66.1 0.01548
66.15 0.01055
66.2 0.00813
66.25 0.00997
66.3 0.00861
66.35 0.003
66.4 -0.00074
66.45 -0.00433
66.5 -0.00714
66.55 -0.00899
66.6 -0.01102
66.65 -0.01458
66.7 -0.01378
66.75 -0.01511
66.8 -0.01269
66.85 -0.01098
66.9 -0.00998
66.95 -0.01238
67 -0.0097
67.05 -0.00398
67.1 -0.00075
67.15 -0.00002
67.2 -0.00298
67.25 -0.00638
67.3 -0.00915
67.35 -0.01041
67.4 -0.0109
67.45 -0.00777
67.5 -0.00643
67.55 -0.00196
67.6 0.00238
67.65 0.00624
67.7 0.00716
67.75 0.01144
67.8 0.00993
67.85 0.00902
67.9 0.01063
67.95 0.0132
68 0.01746
68.05 0.01626
68.1 0.01786
68.15 0.016
68.2 0.01011
68.25 0.00168
68.3 -0.00066
68.35 -0.00166
68.4 -0.00037
68.45 -0.00141
68.5 -0.00227
68.55 0.00137
68.6 0.00076
68.65 0.00215
68.7 0.00192
68.75 -0.00193
68.8 -0.00672
68.85 -0.00518
68.9 -0.00687
68.95 -0.00574
69 -0.00192
69.05 -0.00152
69.1 0.00272
69.15 0.00195
69.2 0.00225
69.25 0.00082
69.3 -0.00414
69.35 -0.00834
69.4 -0.00941
69.45 -0.00874
69.5 -0.00531
69.55 0.00113
69.6 0.0087
69.65 0.0134
69.7 0.01248
69.75 0.01246
69.8 0.00964
69.85 0.00636
69.9 0.00424
69.95 0.00388
70 0.00157
70.05 -0.00247
70.1 -0.00269
70.15 -0.00433
70.2 -0.00396
70.25 0.00056
70.3 0.00092
70.35 0.00077
70.4 0.00148
70.45 0.00334
70.5 0.00705
70.55 0.00677
70.6 0.00252
70.65 -0.00245
70.7 -0.00197
70.75 0.00197
70.8 0.00807
70.85 0.01307
70.9 0.01157
70.95 0.0103
71 0.01196
71.05 0.008
71.1 0.0027
71.15 0.00322
71.2 0.00036
71.25 0.00024
71.3 0.00027
71.35 0.00101
71.4 -0.00188
71.45 -0.00727
71.5 -0.00855
71.55 -0.0098
71.6 -0.00911
71.65 -0.00633
71.7 -0.00485
71.75 -0.00441
71.8 -0.00349
71.85 -0.00672
71.9 -0.0122
71.95 -0.01664
72 -0.01586
72.05 -0.01214
72.1 -0.00952
72.15 -0.00795
72.2 -0.00397
72.25 -0.00224
72.3 -0.00447
72.35 -0.00261
72.4 0.0007
72.45 0.00553
72.5 0.01179
72.55 0.01442
72.6 0.01774
72.65 0.01534
72.7 0.01337
72.75 0.01496
72.8 0.01066
72.85 0.00905
72.9 0.00605
72.95 0.00129
73 0.00176
73.05 0.00109
73.1 -0.00308
73.15 -0.00274
73.2 -0.00016
73.25 -0.00148
73.3 -0.00407
73.35 -0.00539
73.4 -0.00704
73.45 -0.00644
73.5 -0.00138
73.55 0.00289
73.6 0.00253
73.65 -0.00135
73.7 -0.00688
73.75 -0.00691
73.8 -0.00487
73.85 -0.00363
73.9 -0.0004
73.95 0.00067
74 0.00151
74.05 0.00427
74.1 0.00796
74.15 0.01239
74.2 0.01593
74.25 0.01757
74.3 0.01487
74.35 0.01489
74.4 0.01388
74.45 0.00834
74.5 0.00077
74.55 -0.00383
74.6 -0.00365
74.65 -0.00057
74.7 0.00351
74.75 0.00675
74.8 0.00706
74.85 0.00393
74.9 0.00127
74.95 -0.00278
75 -0.00377
75.05 -0.00697
75.1 -0.00467
75.15 -0.00677
75.2 -0.01186
75.25 -0.01362
75.3 -0.01385
75.35 -0.01417
75.4 -0.0156
75.45 -0.01258
75.5 -0.00809
75.55 -0.00172
75.6 0.00267
75.65 0.00772
75.7 0.0129
75.75 0.01142
75.8 0.01358
75.85 0.01386
75.9 0.00978
75.95 0.00453
76 0.00278
76.05 -0.00157
76.1 -0.00138
76.15 -0.00179
76.2 -0.00036
76.25 -0.00086
76.3 0.00079
76.35 -0.0003
76.4 0.003
76.45 0.00178
76.5 -0.00231
76.55 -0.00429
76.6 -0.00523
76.65 -0.00939
76.7 -0.01222
76.75 -0.01111
76.8 -0.01367
76.85 -0.01808
76.9 -0.02121
76.95 -0.02344
77 -0.01894
77.05 -0.01529
77.1 -0.01334
77.15 -0.01211
77.2 -0.00913
77.25 -0.00804
77.3 -0.00518
77.35 -0.00333
77.4 -0.0052
77.45 -0.00594
77.5 -0.00707
77.55 -0.00811
77.6 -0.0108
77.65 -0.01162
77.7 -0.00721
77.75 0.00025
77.8 0.00292
77.85 0.004
77.9 0.0067
77.95 0.01101
78 0.01684
78.05 0.02248
78.1 0.02424
78.15 0.02564
78.2 0.02647
78.25 0.02327
78.3 0.02017
78.35 0.01247
78.4 0.00806
78.45 0.00131
78.5 0.00103
78.55 0.00058
78.6 -0.00026
78.65 -0.00262
78.7 -0.00629
78.75 -0.01026
78.8 -0.00814
78.85 -0.00756
78.9 -0.00245
78.95 0.00437
79 0.0088
79.05 0.01384
79.1 0.01828
79.15 0.02265
79.2 0.02411
79.25 0.02492
79.3 0.01998
79.35 0.01865
79.4 0.01639
79.45 0.01101
79.5 0.0066
79.55 -0.00057
79.6 -0.00448
79.65 -0.00433
79.7 -0.00694
79.75 -0.00452
79.8 0.00067
79.85 0.00602
79.9 0.00601
79.95 0.00279
80 0.00148
80.05 0.0043
80.1 0.00431
80.15 0.00521
80.2 0.00271
80.25 0.00029
80.3 -0.00521
80.35 -0.00763
80.4 -0.00835
80.45 -0.01063
80.5 -0.01155
80.55 -0.01487
80.6 -0.01645
80.65 -0.01747
80.7 -0.0176
80.75 -0.01526
80.8 -0.01579
80.85 -0.01591
80.9 -0.01386
80.95 -0.00975
81 -0.00451
81.05 0.00176
81.1 0.0016
81.15 0.00036
81.2 -0.0009
81.25 -0.0047
81.3 -0.00525
81.35 -0.00466
81.4 -0.0063
81.45 -0.01066
81.5 -0.01067
81.55 -0.00938
81.6 -0.0094
81.65 -0.00875
81.7 -0.00961
81.75 -0.0079
81.8 -0.00886
81.85 -0.00599
81.9 -0.00443
81.95 -0.00609
82 -0.00758
82.05 -0.00751
82.1 -0.00273
82.15 0.00069
82.2 0.0059
82.25 0.01177
82.3 0.01386
82.35 0.01112
82.4 0.00832
82.45 0.00383
82.5 0.00225
82.55 -0.00119
82.6 -0.00026
82.65 0.00423
82.7 0.00484
82.75 0.00481
82.8 0.00803
82.85 0.00965
82.9 0.00814
82.95 0.00509
83 0.00447
83.05 -0.00035
83.1 -0.00144
83.15 -0.00168
83.2 0.0006
83.25 0.00188
83.3 0.00497
83.35 0.00313
83.4 -0.00171
83.45 -0.00533
83.5 -0.01079
83.55 -0.01583
83.6 -0.01767
83.65 -0.02036
83.7 -0.01692
83.75 -0.01672
83.8 -0.01142
83.85 -0.00726
83.9 -0.00033
83.95 0.00441
84 0.00675
84.05 0.00884
84.1 0.00856
84.15 0.0065
84.2 0.00166
84.25 0.00195
84.3 -0.0017
84.35 -0.0076
84.4 -0.01369
84.45 -0.01424
84.5 -0.01724
84.55 -0.01911
84.6 -0.01569
84.65 -0.01116
84.7 -0.00406
84.75 0.0004
84.8 -0.00074
84.85 -0.00135
84.9 0
84.95 0.00032
85 0.00054
85.05 -0.0034
85.1 -0.00408
85.15 -0.00626
85.2 -0.0063
85.25 -0.00371
85.3 0.00213
85.35 0.00905
85.4 0.01628
85.45 0.02278
85.5 0.0273
85.55 0.02893
85.6 0.02973
85.65 0.02705
85.7 0.02307
85.75 0.01756
85.8 0.01136
85.85 0.00689
85.9 0.00071
85.95 -0.00255
86 -0.0008
86.05 0.00257
86.1 0.0082
86.15 0.00932
86.2 0.00661
86.25 0.00534
86.3 0.00299
86.35 -0.003
86.4 -0.00907
86.45 -0.01304
86.5 -0.01206
86.55 -0.00652
86.6 -0.00183
86.65 0.00287
86.7 0.00357
86.75 0.00116
86.8 -0.00023
86.85 -0.00212
86.9 0.00045
86.95 -0.00175
87 -0.00346
87.05 -0.00144
87.1 -0.00009
87.15 -0.00038
87.2 0.00352
87.25 0.00655
87.3 0.00992
87.35 0.01409
87.4 0.01597
87.45 0.01829
87.5 0.02059
87.55 0.02262
87.6 0.02046
87.65 0.01345
87.7 0.00962
87.75 0.00533
87.8 0.00182
87.85 -0.00467
87.9 -0.00619
87.95 -0.00626
88 -0.00616
88.05 -0.00363
88.1 -0.00512
88.15 -0.00564
88.2 -0.00384
88.25 -0.00596
88.3 -0.00675
88.35 -0.00633
88.4 -0.00494
88.45 -0.00319
88.5 -0.00552
88.55 -0.00965
88.6 -0.01276
88.65 -0.0171
88.7 -0.01553
88.75 -0.013
88.8 -0.01468
88.85 -0.01825
88.9 -0.02032
88.95 -0.01885
89 -0.02052
89.05 -0.02211
89.1 -0.02457
89.15 -0.02079
89.2 -0.02026
89.25 -0.02156
89.3 -0.02093
89.35 -0.01486
89.4 -0.00707
89.45 -0.00257
89.5 0.00375
89.55 0.0058
89.6 0.00886
89.65 0.01419
89.7 0.01886
89.75 0.02343
89.8 0.02752
89.85 0.02763
89.9 0.02866
89.95 0.02503
90 0.02008
90.05 0.01317
90.1 0.00619
90.15 0.00159
90.2 -0.00238
90.25 -0.0056
90.3 -0.00969
90.35 -0.01112
90.4 -0.01279
90.45 -0.01349
90.5 -0.01135
90.55 -0.01171
90.6 -0.01262
90.65 -0.00864
90.7 -0.00831
90.75 -0.00845
90.8 -0.00886
90.85 -0.01126
90.9 -0.01113
90.95 -0.00948
91 -0.01095
91.05 -0.01213
91.1 -0.00917
91.15 -0.0055
91.2 0.00052
91.25 0.00829
91.3 0.01178
91.35 0.01526
91.4 0.01547
91.45 0.01234
91.5 0.00579
91.55 -0.00185
91.6 -0.00489
91.65 -0.00812
91.7 -0.01313
91.75 -0.01746
91.8 -0.0194
91.85 -0.01664
91.9 -0.01386
91.95 -0.00978
92 -0.0022
92.05 0.00165
92.1 0.0023
92.15 -0.0005
92.2 0.00131
92.25 0.00338
92.3 0.0008
92.35 -0.00491
92.4 -0.01057
92.45 -0.01423
92.5 -0.01622
92.55 -0.01532
92.6 -0.00948
92.65 -0.00071
92.7 0.00687
92.75 0.00824
92.8 0.00524
92.85 -0.00097
92.9 -0.00246
92.95 -0.00622
93 -0.00994
93.05 -0.00829
93.1 -0.00297
93.15 -0.00013
93.2 0.0031
93.25 0.002
93.3 -0.00289
93.35 -0.0036
93.4 -0.00185
93.45 -0.0033
93.5 -0.00769
93.55 -0.0121
93.6 -0.01275
93.65 -0.01588
93.7 -0.01943
93.75 -0.02378
93.8 -0.02215
93.85 -0.02233
93.9 -0.02168
93.95 -0.01506
94 -0.00995
94.05 -0.00138
94.1 0.00331
94.15 0.00698
94.2 0.00964
94.25 0.01203
94.3 0.01079
94.35 0.01018
94.4 0.01079
94.45 0.01376
94.5 0.0156
94.55 0.01532
94.6 0.01095
94.65 0.00836
94.7 0.0043
94.75 0.00183
94.8 -0.00208
94.85 -0.0023
94.9 -0.00299
94.95 -0.00349
95 -0.00187
95.05 -0.003
95.1 -0.00459
95.15 -0.00416
95.2 -0.00266
95.25 0.00156
95.3 0.00023
95.35 -0.00063
95.4 -0.00332
95.45 -0.0017
95.5 0.00014
95.55 0.00048
95.6 0.00106
95.65 0.0052
95.7 0.00403
95.75 0.00162
95.8 0.00426
95.85 0.00566
95.9 0.00745
95.95 0.00445
96 0.00481
96.05 0.00133
96.1 0.00129
96.15 0.00132
96.2 -0.00204
96.25 -0.00773
96.3 -0.01132
96.35 -0.01315
96.4 -0.016
96.45 -0.01505
96.5 -0.01384
96.55 -0.01571
96.6 -0.01398
96.65 -0.01296
96.7 -0.01321
96.75 -0.00897
96.8 -0.00412
96.85 -0.00138
96.9 -0.00018
96.95 -0.00018
97 -0.00165
97.05 0.00064
97.1 0.00028
97.15 0.00371
97.2 0.00511
97.25 0.00639
97.3 0.0048
97.35 0.00654
97.4 0.00856
97.45 0.0074
97.5 0.00914
97.55 0.01055
97.6 0.01226
97.65 0.01333
97.7 0.0131
97.75 0.00955
97.8 0.00607
97.85 0.00277
97.9 -0.00017
97.95 -0.00106
98 -0.00135
98.05 -0.00089
98.1 0.00228
98.15 0.00174
98.2 -0.00199
98.25 -0.00797
98.3 -0.00787
98.35 -0.00336
98.4 0.001
98.45 0.00535
98.5 0.00588
98.55 0.00568
98.6 0.00119
98.65 0.00057
98.7 -0.00359
98.75 -0.00307
98.8 -0.00251
98.85 0.00008
98.9 0.00568
98.95 0.01145
99 0.01053
99.05 0.0063
99.1 0.00723
99.15 0.01084
99.2 0.00858
99.25 0.00738
99.3 0.00337
99.35 0.00357
99.4 0.00458
99.45 0.00431
99.5 0.00803
99.55 0.01273
99.6 0.01358
99.65 0.01554
99.7 0.01917
99.75 0.02188
99.8 0.0247
99.85 0.0243
99.9 0.0243
99.95 0.01851
