0 0
0.05 0.0007
0.1 0.00136
0.15 0.00168
0.2 0.00324
0.25 0.00502
0.3 0.00684
0.35 0.00893
0.4 0.01064
0.45 0.01142
0.5 0.01211
0.55 0.01229
0.6 0.01225
0.65 0.01262
0.7 0.01303
0.75 0.0123
0.8 0.01071
0.85 0.00984
0.9 0.0088
0.95 0.00775
1 0.00722
1.05 0.00668
1.1 0.00652
1.15 0.00642
1.2 0.00694
1.25 0.00767
1.3 0.00782
1.35 0.00779
1.4 0.00715
1.45 0.00703
1.5 0.00621
1.55 0.00541
1.6 0.0055
1.65 0.00532
1.7 0.00464
1.75 0.00399
1.8 0.00388
1.85 0.00409
1.9 0.00476
1.95 0.00519
2 0.00548
2.05 0.00527
2.1 0.00585
2.15 0.00646
2.2 0.00635
2.25 0.00622
2.3 0.00648
2.35 0.00629
2.4 0.00678
2.45 0.00662
2.5 0.00714
2.55 0.00706
2.6 0.00683
2.65 0.00653
2.7 0.00583
2.75 0.0059
2.8 0.0065
2.85 0.00746
2.9 0.00712
2.95 0.00639
3 0.00562
3.05 0.00473
3.1 0.00353
3.15 0.00202
3.2 0.00039
3.25 -0.00072
3.3 -0.00131
3.35 -0.00175
3.4 -0.00228
3.45 -0.00139
3.5 -0.00066
3.55 0.00087
3.6 0.00141
3.65 0.00149
3.7 0.00217
3.75 0.00235
3.8 0.00265
3.85 0.00211
3.9 0.00245
3.95 0.00244
4 0.00202
4.05 0.00231
4.1 0.00238
4.15 0.00292
4.2 0.00386
4.25 0.00358
4.3 0.00302
4.35 0.00203
4.4 0.00207
4.45 0.00196
4.5 0.00123
4.55 0.00042
4.6 0.00047
4.65 0.00108
4.7 0.00238
4.75 0.00286
4.8 0.00327
4.85 0.00311
4.9 0.00287
4.95 0.00317
5 0.00332
5.05 0.00267
5.1 0.00218
5.15 0.00175
5.2 0.00105
5.25 0.00072
5.3 0.00103
5.35 0.00188
5.4 0.00298
5.45 0.00302
5.5 0.00368
5.55 0.00474
5.6 0.00501
5.65 0.00412
5.7 0.00372
5.75 0.00405
5.8 0.00348
5.85 0.00289
5.9 0.00256
5.95 0.00288
6 0.00254
6.05 0.00173
6.1 0.00163
6.15 0.00215
6.2 0.00279
6.25 0.00359
6.3 0.00351
6.35 0.00279
6.4 0.00259
6.45 0.00197
6.5 0.00176
6.55 0.00113
6.6 0.00129
6.65 0.00171
6.7 0.00208
6.75 0.00279
6.8 0.00237
6.85 0.00254
6.9 0.0021
6.95 0.00142
7 0.00132
7.05 0.00117
7.1 0.00174
7.15 0.00124
7.2 0.00031
7.25 0.00001
7.3 -0.00021
7.35 0.00052
7.4 0.0016
7.45 0.00281
7.5 0.003
7.55 0.00328
7.6 0.00358
7.65 0.00349
7.7 0.00244
7.75 0.00083
7.8 0.00036
7.85 0.00021
7.9 -0.00064
7.95 -0.00155
8 -0.00204
8.05 -0.00181
8.1 -0.00178
8.15 -0.00155
8.2 -0.00115
8.25 -0.00067
8.3 -0.00088
8.35 -0.00087
8.4 -0.00031
8.45 0.00073
8.5 0.00124
8.55 0.00161
8.6 0.00152
8.65 0.00155
8.7 0.00163
8.75 0.00194
8.8 0.00242
8.85 0.00241
8.9 0.00152
8.95 0.00152
9 0.0022
9.05 0.00261
9.1 0.00245
9.15 0.00259
9.2 0.00172
9.25 0.00042
9.3 0.00036
9.35 -0.00014
9.4 0.00029
9.45 0.00107
9.5 0.00223
9.55 0.00299
9.6 0.00338
9.65 0.00299
9.7 0.00195
9.75 0.00135
9.8 0.00097
9.85 0.0012
9.9 0.00189
9.95 0.00195
10 0.00254
10.05 0.00294
10.1 0.00334
10.15 0.00301
10.2 0.00241
10.25 0.00192
10.3 0.00125
10.35 0.00053
10.4 -0.00066
10.45 -0.00184
10.5 -0.00284
10.55 -0.00333
10.6 -0.00379
10.65 -0.00385
10.7 -0.00381
10.75 -0.00307
10.8 -0.00294
10.85 -0.00218
10.9 -0.0015
10.95 -0.0007
11 -0.00095
11.05 -0.00144
11.1 -0.00091
11.15 -0.00034
11.2 0.00013
11.25 0.00103
11.3 0.00102
11.35 0.00147
11.4 0.00166
11.45 0.00123
11.5 0.00051
11.55 0.00055
11.6 0.00057
11.65 0.00042
11.7 -0.00015
11.75 -0.00081
11.8 -0.00065
11.85 -0.0004
11.9 0.00029
11.95 0.00121
12 0.00212
12.05 0.00322
12.1 0.00331
12.15 0.00387
12.2 0.00336
12.25 0.0027
12.3 0.00194
12.35 0.00122
12.4 0.00094
12.45 0.00067
12.5 0.00115
12.55 0.00152
12.6 0.00144
12.65 0.00163
12.7 0.00214
12.75 0.00176
12.8 0.00208
12.85 0.00256
12.9 0.00262
12.95 0.00183
13 0.00036
13.05 0.00008
13.1 -0.00079
13.15 -0.00106
13.2 -0.00068
13.25 -0.00016
13.3 0.00021
13.35 0.00037
13.4 0.00001
13.45 0.0003
13.5 0.00066
13.55 -0.00002
13.6 -0.00053
13.65 -0.00135
13.7 -0.00177
13.75 -0.00168
13.8 -0.00229
13.85 -0.00267
13.9 -0.00278
13.95 -0.00309
14 -0.0026
14.05 -0.0024
14.1 -0.00285
14.15 -0.00257
14.2 -0.00255
14.25 -0.00308
14.3 -0.00291
14.35 -0.00194
14.4 -0.00066
14.45 -0.00021
14.5 0.00041
14.55 0.00028
14.6 0.00026
14.65 -0.0004
14.7 -0.00133
14.75 -0.00227
14.8 -0.00198
14.85 -0.00186
14.9 -0.00127
14.95 -0.00024
15 0.00029
15.05 -0.00019
15.1 0.00018
15.15 -0.00002
15.2 0.00026
15.25 0.0003
15.3 -0.00002
15.35 0.00033
15.4 -0.00005
15.45 0.00039
15.5 0.00117
15.55 0.00201
15.6 0.00303
15.65 0.00271
15.7 0.00304
15.75 0.00373
15.8 0.00319
15.85 0.00238
15.9 0.00213
15.95 0.00115
16 0.00061
16.05 -0.00062
16.1 -0.00182
16.15 -0.00284
16.2 -0.00368
16.25 -0.00405
16.3 -0.00344
16.35 -0.00218
16.4 -0.00156
16.45 -0.00094
16.5 0.00003
16.55 -0.00003
16.6 -0.00087
16.65 -0.00164
16.7 -0.0019
16.75 -0.00215
16.8 -0.00172
16.85 -0.00163
16.9 -0.00206
16.95 -0.00168
17 -0.00129
17.05 -0.00059
17.1 0.00046
17.15 0.00083
17.2 0.00043
17.25 0.00043
17.3 0.00118
17.35 0.0013
17.4 0.00132
17.45 0.00166
17.5 0.00198
17.55 0.00156
17.6 0.00039
17.65 -0.00042
17.7 -0.00149
17.75 -0.00193
17.8 -0.00269
17.85 -0.00371
17.9 -0.00339
17.95 -0.00242
18 -0.00162
18.05 -0.00148
18.1 -0.00198
18.15 -0.00152
18.2 -0.00115
18.25 -0.0009
18.3 -0.00004
18.35 0.00009
18.4 0.00023
18.45 -0.00009
18.5 0.00035
18.55 0.00078
18.6 0.00106
18.65 0.00054
18.7 -0.00039
18.75 -0.00019
18.8 0.00021
18.85 0.00046
18.9 0.0012
18.95 0.00158
19 0.00186
19.05 0.00126
19.1 0.0007
19.15 0.0004
19.2 0.00025
19.25 0.00074
19.3 0.0004
19.35 0.00073
19.4 0.00085
19.45 0.00102
19.5 0.00159
19.55 0.00233
19.6 0.00249
19.65 0.00308
19.7 0.00249
19.75 0.00127
19.8 0.00038
19.85 -0.00025
19.9 -0.00016
19.95 0.00003
20 -0.0001
20.05 -0.00044
20.1 -0.00046
20.15 -0.00069
20.2 -0.00134
20.25 -0.00115
20.3 -0.00094
20.35 -0.00136
20.4 -0.00174
20.45 -0.00257
20.5 -0.00213
20.55 -0.00121
20.6 -0.00124
20.65 -0.00056
20.7 -0.00038
20.75 0.00052
20.8 0.00122
20.85 0.00186
20.9 0.00247
20.95 0.00211
21 0.00205
21.05 0.00233
21.1 0.00156
21.15 0.0013
21.2 0.00118
21.25 0.00146
21.3 0.00143
21.35 0.00148
21.4 0.00102
21.45 -0.00013
21.5 -0.00051
21.55 0.00005
21.6 0.00018
21.65 0.00014
21.7 -0.00038
21.75 -0.00062
21.8 -0.00135
21.85 -0.00118
21.9 -0.00036
21.95 0.00014
22 -0.00039
22.05 -0.00022
22.1 -0.00037
22.15 -0.00053
22.2 0.00017
22.25 0.00125
22.3 0.00196
22.35 0.00195
22.4 0.00229
22.45 0.00217
22.5 0.00231
22.55 0.00283
22.6 0.00224
22.65 0.00226
22.7 0.0021
22.75 0.00205
22.8 0.00217
22.85 0.00177
22.9 0.00148
22.95 0.00032
23 -0.00043
23.05 -0.00059
23.1 -0.00094
23.15 -0.00173
23.2 -0.002
23.25 -0.00211
23.3 -0.00182
23.35 -0.00101
23.4 -0.00037
23.45 0.00055
23.5 0.0013
23.55 0.00096
23.6 0.00017
23.65 -0.00045
23.7 -0.00136
23.75 -0.00242
23.8 -0.00268
23.85 -0.00258
23.9 -0.00245
23.95 -0.00217
24 -0.0017
24.05 -0.00118
24.1 -0.00133
24.15 -0.00193
24.2 -0.00292
24.25 -0.00328
24.3 -0.00263
24.35 -0.00144
24.4 -0.00049
24.45 0.00052
24.5 0.00136
24.55 0.00201
24.6 0.00167
24.65 0.00176
24.7 0.00239
24.75 0.00232
24.8 0.00267
24.85 0.00185
24.9 0.00073
24.95 0.00044
25 0.00057
25.05 0.00068
25.1 -0
25.15 -0.00029
25.2 -0.00106
25.25 -0.00178
25.3 -0.00218
25.35 -0.00195
25.4 -0.00134
25.45 -0.0004
25.5 0.00035
25.55 0.00079
25.6 0.00131
25.65 0.00201
25.7 0.00277
25.75 0.00236
25.8 0.00185
25.85 0.00054
25.9 -0.00073
25.95 -0.0014
26 -0.00098
26.05 -0.00056
26.1 0.00038
26.15 0.00049
26.2 0.00101
26.25 0.00073
26.3 0.00099
26.35 0.00085
26.4 0.00072
26.45 0.0001
26.5 -0.00062
26.55 -0.00126
26.6 -0.00202
26.65 -0.00207
26.7 -0.00256
26.75 -0.00195
26.8 -0.00219
26.85 -0.00153
26.9 -0.00041
26.95 -0.00046
27 -0.00051
27.05 0.00025
27.1 0.00076
27.15 0.00152
27.2 0.00194
27.25 0.00208
27.3 0.00269
27.35 0.00224
27.4 0.002
27.45 0.00175
27.5 0.00213
27.55 0.00186
27.6 0.00124
27.65 0.00038
27.7 -0.00065
27.75 -0.00161
27.8 -0.00269
27.85 -0.00288
27.9 -0.00207
27.95 -0.00156
28 -0.00056
28.05 0.00073
28.1 0.00078
28.15 -0.00011
28.2 -0.00125
28.25 -0.0016
28.3 -0.00179
28.35 -0.0024
28.4 -0.00302
28.45 -0.00246
28.5 -0.00273
28.55 -0.00282
28.6 -0.00258
28.65 -0.00216
28.7 -0.00148
28.75 -0.00177
28.8 -0.00247
28.85 -0.00307
28.9 -0.00372
28.95 -0.0043
29 -0.00433
29.05 -0.00558
29.1 -0.00643
29.15 -0.00797
29.2 -0.01039
29.25 -0.01252
29.3 -0.01568
29.35 -0.01958
29.4 -0.0228
29.45 -0.02674
29.5 -0.03024
29.55 -0.03483
29.6 -0.04094
29.65 -0.04707
29.7 -0.05385
29.75 -0.06181
29.8 -0.07057
29.85 -0.08106
29.9 -0.09235
29.95 -0.10537
30 -0.11947
30.05 -0.13474
30.1 -0.15084
30.15 -0.16886
30.2 -0.18712
30.25 -0.20672
30.3 -0.22752
30.35 -0.24964
30.4 -0.2722
30.45 -0.29429
30.5 -0.31619
30.55 -0.33904
30.6 -0.36223
30.65 -0.38402
30.7 -0.40508
30.75 -0.42523
30.8 -0.44331
30.85 -0.45916
30.9 -0.47356
30.95 -0.4852
31 -0.49454
31.05 -0.49997
31.1 -0.50251
31.15 -0.50209
31.2 -0.49838
31.25 -0.49125
31.3 -0.48038
31.35 -0.46536
31.4 -0.44793
31.45 -0.42694
31.5 -0.40219
31.55 -0.3744
31.6 -0.34508
31.65 -0.31433
31.7 -0.28141
31.75 -0.24696
31.8 -0.21177
31.85 -0.17628
31.9 -0.14028
31.95 -0.10434
32 -0.06916
32.05 -0.03522
32.1 -0.0019
32.15 0.02962
32.2 0.05972
32.25 0.08844
32.3 0.11566
32.35 0.14006
32.4 0.16244
32.45 0.18303
32.5 0.20149
32.55 0.21813
32.6 0.23436
32.65 0.24931
32.7 0.26387
32.75 0.27663
32.8 0.28811
32.85 0.29804
32.9 0.30797
32.95 0.31695
33 0.32463
33.05 0.33178
33.1 0.33866
33.15 0.34568
33.2 0.35234
33.25 0.35838
33.3 0.36314
33.35 0.36815
33.4 0.37265
33.45 0.37628
33.5 0.37901
33.55 0.38169
33.6 0.38404
33.65 0.38509
33.7 0.3854
33.75 0.38608
33.8 0.38632
33.85 0.38632
33.9 0.38503
33.95 0.38282
34 0.3803
34.05 0.37641
34.1 0.37243
34.15 0.36779
34.2 0.36264
34.25 0.35717
34.3 0.35083
34.35 0.34374
34.4 0.33557
34.45 0.32741
34.5 0.31823
34.55 0.30948
34.6 0.30082
34.65 0.29251
34.7 0.28318
34.75 0.27406
34.8 0.26425
34.85 0.2551
34.9 0.24575
34.95 0.23648
35 0.22631
35.05 0.21585
35.1 0.20587
35.15 0.19649
35.2 0.18766
35.25 0.17888
35.3 0.17065
35.35 0.16277
35.4 0.15498
35.45 0.14743
35.5 0.14074
35.55 0.1345
35.6 0.12803
35.65 0.12166
35.7 0.11478
35.75 0.10841
35.8 0.10168
35.85 0.09503
35.9 0.08904
35.95 0.08273
36 0.0767
36.05 0.07016
36.1 0.06337
36.15 0.05727
36.2 0.05213
36.25 0.04753
36.3 0.04361
36.35 0.03878
36.4 0.03339
36.45 0.02788
36.5 0.02239
36.55 0.01757
36.6 0.0129
36.65 0.00946
36.7 0.00625
36.75 0.00263
36.8 -0.00066
36.85 -0.00367
36.9 -0.00658
36.95 -0.00927
37 -0.01268
37.05 -0.01534
37.1 -0.01856
37.15 -0.02117
37.2 -0.02438
37.25 -0.02789
37.3 -0.03035
37.35 -0.03314
37.4 -0.03555
37.45 -0.03828
37.5 -0.04026
37.55 -0.04143
37.6 -0.04283
37.65 -0.04519
37.7 -0.04807
37.75 -0.04986
37.8 -0.05186
37.85 -0.05338
37.9 -0.05432
37.95 -0.05486
38 -0.0556
38.05 -0.05697
38.1 -0.05832
38.15 -0.05873
38.2 -0.05861
38.25 -0.05934
38.3 -0.0607
38.35 -0.06094
38.4 -0.06123
38.45 -0.06176
38.5 -0.06178
38.55 -0.06248
38.6 -0.06233
38.65 -0.06204
38.7 -0.06164
38.75 -0.06158
38.8 -0.06085
38.85 -0.05989
38.9 -0.05991
38.95 -0.0597
39 -0.05891
39.05 -0.05778
39.1 -0.05645
39.15 -0.05616
39.2 -0.0557
39.25 -0.0555
39.3 -0.05605
39.35 -0.05606
39.4 -0.05543
39.45 -0.05511
39.5 -0.05452
39.55 -0.054
39.6 -0.05313
39.65 -0.05274
39.7 -0.05195
39.75 -0.05117
39.8 -0.05095
39.85 -0.05108
39.9 -0.05058
39.95 -0.0499
40 -0.0487
40.05 -0.04804
40.1 -0.04726
40.15 -0.04744
40.2 -0.04776
40.25 -0.04802
40.3 -0.04781
40.35 -0.04735
40.4 -0.04727
40.45 -0.04652
40.5 -0.04538
40.55 -0.04465
40.6 -0.0437
40.65 -0.04238
40.7 -0.04191
40.75 -0.04131
40.8 -0.04128
40.85 -0.04015
40.9 -0.03966
40.95 -0.03982
41 -0.0399
41.05 -0.03878
41.1 -0.03769
41.15 -0.0373
41.2 -0.03737
41.25 -0.03674
41.3 -0.03658
41.35 -0.03592
41.4 -0.03555
41.45 -0.03525
41.5 -0.03532
41.55 -0.03494
41.6 -0.03431
41.65 -0.03293
41.7 -0.0314
41.75 -0.03051
41.8 -0.029
41.85 -0.02808
41.9 -0.02769
41.95 -0.02721
42 -0.02728
42.05 -0.02689
42.1 -0.02582
42.15 -0.02544
42.2 -0.02575
42.25 -0.0253
42.3 -0.02503
42.35 -0.02543
42.4 -0.02527
42.45 -0.02471
42.5 -0.02366
42.55 -0.02293
42.6 -0.02188
42.65 -0.02182
42.7 -0.02249
42.75 -0.0223
42.8 -0.02192
42.85 -0.02138
42.9 -0.02045
42.95 -0.01986
43 -0.01945
43.05 -0.01842
43.1 -0.01768
43.15 -0.01657
43.2 -0.01623
43.25 -0.01549
43.3 -0.01548
43.35 -0.01593
43.4 -0.01698
43.45 -0.01747
43.5 -0.01715
43.55 -0.0176
43.6 -0.01704
43.65 -0.01733
43.7 -0.01792
43.75 -0.0184
43.8 -0.01846
43.85 -0.01803
43.9 -0.01769
43.95 -0.01722
44 -0.01652
44.05 -0.01659
44.1 -0.01603
44.15 -0.01588
44.2 -0.01474
44.25 -0.01418
44.3 -0.0137
44.35 -0.01247
44.4 -0.01117
44.45 -0.01034
44.5 -0.01013
44.55 -0.01038
44.6 -0.0112
44.65 -0.01095
44.7 -0.01031
44.75 -0.00959
44.8 -0.00991
44.85 -0.01064
44.9 -0.01119
44.95 -0.01067
45 -0.01069
45.05 -0.01078
45.1 -0.01017
45.15 -0.00995
45.2 -0.01057
45.25 -0.01099
45.3 -0.01075
45.35 -0.01081
45.4 -0.00989
45.45 -0.00988
45.5 -0.00994
45.55 -0.00972
45.6 -0.00872
45.65 -0.00731
45.7 -0.00653
45.75 -0.00619
45.8 -0.00688
45.85 -0.00725
45.9 -0.00723
45.95 -0.00793
46 -0.00791
46.05 -0.00739
46.1 -0.00638
46.15 -0.0066
46.2 -0.00752
46.25 -0.00742
46.3 -0.00724
46.35 -0.00711
46.4 -0.00691
46.45 -0.00715
46.5 -0.00726
46.55 -0.00753
46.6 -0.00681
46.65 -0.0065
46.7 -0.00655
46.75 -0.00685
46.8 -0.00761
46.85 -0.00823
46.9 -0.00808
46.95 -0.00725
47 -0.0068
47.05 -0.00572
47.1 -0.00485
47.15 -0.00452
47.2 -0.00491
47.25 -0.00511
47.3 -0.00559
47.35 -0.00567
47.4 -0.00518
47.45 -0.00497
47.5 -0.00457
47.55 -0.00382
47.6 -0.0033
47.65 -0.00366
47.7 -0.00354
47.75 -0.0029
47.8 -0.003
47.85 -0.00309
47.9 -0.00257
47.95 -0.00294
48 -0.00361
48.05 -0.00469
48.1 -0.00468
48.15 -0.00464
48.2 -0.00427
48.25 -0.00382
48.3 -0.00277
48.35 -0.0026
48.4 -0.00249
48.45 -0.00266
48.5 -0.00267
48.55 -0.00345
48.6 -0.00347
48.65 -0.00312
48.7 -0.00281
48.75 -0.00302
48.8 -0.0028
48.85 -0.00263
48.9 -0.00337
48.95 -0.00323
49 -0.00314
49.05 -0.0025
49.1 -0.00286
49.15 -0.00284
49.2 -0.00244
49.25 -0.00281
49.3 -0.00376
49.35 -0.00401
49.4 -0.00479
49.45 -0.00539
49.5 -0.00623
49.55 -0.00566
49.6 -0.00583
49.65 -0.00578
49.7 -0.00486
49.75 -0.00471
49.8 -0.00389
49.85 -0.00271
49.9 -0.00228
49.95 -0.00271
50 -0.00335
50.05 -0.00364
50.1 -0.00373
50.15 -0.00301
50.2 -0.00229
50.25 -0.00103
50.3 0.00003
50.35 0.00082
50.4 0.00146
50.45 0.00086
50.5 0.0005
50.55 0.00002
50.6 -0.00044
50.65 -0.00125
50.7 -0.00146
50.75 -0.00228
50.8 -0.00235
50.85 -0.00225
50.9 -0.00209
50.95 -0.00276
51 -0.00239
51.05 -0.00211
51.1 -0.00116
51.15 -0.0002
51.2 0.00006
51.25 0.00025
51.3 -0.00003
51.35 0.00031
51.4 0.00019
51.45 -0.00026
51.5 -0.00054
51.55 -0.00014
51.6 0.00013
51.65 0.0001
51.7 -0.00073
51.75 -0.00176
51.8 -0.00175
51.85 -0.00124
51.9 -0.00085
51.95 -0.00029
52 0.00063
52.05 0.00053
52.1 0.00097
52.15 0.00114
52.2 0.0008
52.25 0.0009
52.3 0.00048
52.35 -0.00058
52.4 -0.00117
52.45 -0.00081
52.5 -0.00104
52.55 -0.00124
52.6 -0.002
52.65 -0.00226
52.7 -0.00242
52.75 -0.00169
52.8 -0.00046
52.85 -0.00003
52.9 -0.00033
52.95 -0.00071
53 -0.0009
53.05 -0.0008
53.1 -0.00095
53.15 -0.00086
53.2 -0.00009
53.25 0.00038
53.3 0.00077
53.35 0.00113
53.4 0.00131
53.45 0.00082
53.5 0.00052
53.55 -0.00011
53.6 -0.00044
53.65 -0.00096
53.7 -0.00209
53.75 -0.0022
53.8 -0.00282
53.85 -0.00258
53.9 -0.00237
53.95 -0.00274
54 -0.00216
54.05 -0.00137
54.1 -0.00016
54.15 0.00124
54.2 0.00125
54.25 0.00113
54.3 0.00113
54.35 0.00126
54.4 0.00153
54.45 0.00111
54.5 0.0012
54.55 0.00043
54.6 0.00012
54.65 0.00024
54.7 -0.00026
54.75 -0.00144
54.8 -0.0025
54.85 -0.00232
54.9 -0.00218
54.95 -0.00218
55 -0.00177
55.05 -0.00108
55.1 -0.00104
55.15 -0.00115
55.2 -0.00134
55.25 -0.00143
55.3 -0.00085
55.35 -0.0012
55.4 -0.00076
55.45 -0.00028
55.5 0.00063
55.55 0.00032
55.6 -0.00062
55.65 -0.00202
55.7 -0.00322
55.75 -0.0032
55.8 -0.0031
55.85 -0.00299
55.9 -0.00276
55.95 -0.00259
56 -0.00255
56.05 -0.00307
56.1 -0.0028
56.15 -0.00229
56.2 -0.002
56.25 -0.00193
56.3 -0.00217
56.35 -0.00199
56.4 -0.00123
56.45 -0.00055
56.5 -0.00088
56.55 -0.00161
56.6 -0.00158
56.65 -0.00122
56.7 -0.00034
56.75 0.00018
56.8 0.00051
56.85 0.001
56.9 0.00101
56.95 0.00029
57 0.00012
57.05 -0.00014
57.1 -0.00096
57.15 -0.00132
57.2 -0.00101
57.25 -0.00085
57.3 -0.00058
57.35 -0.00089
57.4 -0.00171
57.45 -0.00143
57.5 -0.00128
57.55 -0.00179
57.6 -0.0027
57.65 -0.00308
57.7 -0.00286
57.75 -0.00291
57.8 -0.00344
57.85 -0.00313
57.9 -0.00252
57.95 -0.00158
58 -0.00124
58.05 -0.00163
58.1 -0.00206
58.15 -0.00169
58.2 -0.00118
58.25 -0.00091
58.3 -0.00089
58.35 -0.00107
58.4 -0.00186
58.45 -0.00278
58.5 -0.00376
58.55 -0.0047
58.6 -0.00487
58.65 -0.00405
58.7 -0.00247
58.75 -0.0007
58.8 0.00068
58.85 0.00157
58.9 0.00267
58.95 0.00282
59 0.00281
59.05 0.00335
59.1 0.00379
59.15 0.0039
59.2 0.00394
59.25 0.00446
59.3 0.00458
59.35 0.00506
59.4 0.00486
59.45 0.00399
59.5 0.00333
59.55 0.00256
59.6 0.00122
59.65 -0.00049
59.7 -0.0019
59.75 -0.00228
59.8 -0.00261
59.85 -0.00252
59.9 -0.00172
59.95 -0.00171
60 -0.00152
60.05 -0.00056
60.1 0.00088
60.15 0.00213
60.2 0.00258
60.25 0.0032
60.3 0.00363
60.35 0.003
60.4 0.00165
60.45 0.00093
60.5 0.00099
60.55 0.0003
60.6 0.00011
60.65 -0.00024
60.7 -0.00026
60.75 -0.00043
60.8 0.00011
60.85 0.00032
60.9 0.00052
60.95 0.00036
61 0.00069
61.05 0.00022
61.1 0.00029
61.15 0.00013
61.2 -0.00035
61.25 -0.00024
61.3 0.00029
61.35 0.00127
61.4 0.0021
61.45 0.00209
61.5 0.00206
61.55 0.00199
61.6 0.00127
61.65 0.00124
61.7 0.00139
61.75 0.00088
61.8 0.00035
61.85 -0.00028
61.9 -0.00072
61.95 -0.00148
62 -0.0012
62.05 -0.00112
62.1 -0.00103
62.15 -0.00033
62.2 -0.00005
62.25 -0.00053
62.3 -0.00163
62.35 -0.00225
62.4 -0.00191
62.45 -0.00079
62.5 -0.0006
62.55 0.00001
62.6 0.00094
62.65 0.00205
62.7 0.00188
62.75 0.001
62.8 0.00098
62.85 0.00133
62.9 0.0014
62.95 0.00199
63 0.0021
63.05 0.00131
63.1 0.00037
63.15 0
63.2 0.00025
63.25 0.00049
63.3 0.00094
63.35 0.0017
63.4 0.00152
63.45 0.00107
63.5 0.00077
63.55 0.00008
63.6 -0.00048
63.65 -0.00063
63.7 -0.0008
63.75 -0.00075
63.8 -0.00002
63.85 0.00029
63.9 -0.00019
63.95 -0.0007
64 -0.00049
64.05 -0.00057
64.1 -0.00063
64.15 -0.0012
64.2 -0.00182
64.25 -0.00132
64.3 -0.00062
64.35 -0.00043
64.4 -0.00049
64.45 -0.0011
64.5 -0.0019
64.55 -0.00262
64.6 -0.00353
64.65 -0.0035
64.7 -0.00338
64.75 -0.00351
64.8 -0.00383
64.85 -0.00323
64.9 -0.00306
64.95 -0.00262
65 -0.00137
65.05 -0.00127
65.1 -0.00149
65.15 -0.00087
65.2 -0.00066
65.25 -0.00055
65.3 -0.00074
65.35 -0.00132
65.4 -0.00218
65.45 -0.00243
65.5 -0.00187
65.55 -0.00105
65.6 -0.00077
65.65 -0.00061
65.7 -0.00034
65.75 0.00009
65.8 0.00048
65.85 0.00124
65.9 0.00097
65.95 0.00132
66 0.00201
66.05 0.00219
66.1 0.00206
66.15 0.00117
66.2 0.00122
66.25 0.00083
66.3 0.00101
66.35 0.00165
66.4 0.00235
66.45 0.00202
66.5 0.00176
66.55 0.0022
66.6 0.00304
66.65 0.00283
66.7 0.00289
66.75 0.00298
66.8 0.00275
66.85 0.00306
66.9 0.00297
66.95 0.00292
67 0.00188
67.05 0.001
67.1 0.00056
67.15 0.00031
67.2 -0.00037
67.25 -0.00042
67.3 -0.00024
67.35 0.00005
67.4 0.00039
67.45 0.00073
67.5 0.00109
67.55 0.00088
67.6 0.00083
67.65 0.00072
67.7 0.00014
67.75 0.0004
67.8 0.00024
67.85 0.00069
67.9 0.00164
67.95 0.00225
68 0.00267
68.05 0.00281
68.1 0.00317
68.15 0.00287
68.2 0.00161
68.25 0.00026
68.3 -0.00035
68.35 -0.00093
68.4 -0.00149
68.45 -0.0019
68.5 -0.00148
68.55 -0.00079
68.6 0.0004
68.65 0.00024
68.7 0.00032
68.75 0.00084
68.8 0.00118
68.85 0.00141
68.9 0.00061
68.95 -0.00048
69 -0.00153
69.05 -0.00275
69.1 -0.00301
69.15 -0.00272
69.2 -0.00293
69.25 -0.00323
69.3 -0.0038
69.35 -0.00321
69.4 -0.00308
69.45 -0.00341
69.5 -0.00418
69.55 -0.00499
69.6 -0.00476
69.65 -0.00485
69.7 -0.00384
69.75 -0.00286
69.8 -0.00237
69.85 -0.00222
69.9 -0.00215
69.95 -0.00232
70 -0.00234
70.05 -0.00163
70.1 -0.00144
70.15 -0.00151
70.2 -0.00165
70.25 -0.00236
70.3 -0.00319
70.35 -0.0027
70.4 -0.0026
70.45 -0.00259
70.5 -0.00301
70.55 -0.00283
70.6 -0.0023
70.65 -0.00123
70.7 -0.00032
70.75 -0.00002
70.8 -0.00051
70.85 -0.00064
70.9 -0.00065
70.95 -0.00112
71 -0.00098
71.05 -0.0014
71.1 -0.00224
71.15 -0.00264
71.2 -0.002
71.25 -0.00143
71.3 -0.00157
71.35 -0.00098
71.4 -0.00081
71.45 -0.0002
71.5 0.00047
71.55 0.00096
71.6 0.00171
71.65 0.00177
71.7 0.0016
71.75 0.00177
71.8 0.00145
71.85 0.0007
71.9 0.00033
71.95 0.00005
72 0.00015
72.05 0.00042
72.1 0.00032
72.15 0.00106
72.2 0.00137
72.25 0.00117
72.3 0.00159
72.35 0.00112
72.4 0.00069
72.45 0.00052
72.5 -0.00031
72.55 -0.0012
72.6 -0.00211
72.65 -0.00208
72.7 -0.00251
72.75 -0.00288
72.8 -0.0021
72.85 -0.00177
72.9 -0.00211
72.95 -0.00178
73 -0.00165
73.05 -0.00105
73.1 0.00016
73.15 0.00082
73.2 0.0008
73.25 0.0003
73.3 -0.00027
73.35 0.00004
73.4 -0.00028
73.45 -0.00006
73.5 -0.00038
73.55 -0.00024
73.6 0.00006
73.65 0.00012
73.7 -0.00049
73.75 -0.00068
73.8 -0.00052
73.85 0.00034
73.9 0.00076
73.95 0.00031
74 0.00023
74.05 0.00005
74.1 0.0004
74.15 0.00015
74.2 0.00043
74.25 0.00139
74.3 0.00262
74.35 0.0025
74.4 0.00209
74.45 0.00157
74.5 0.00174
74.55 0.00164
74.6 0.00223
74.65 0.00167
74.7 0.00118
74.75 0.0001
74.8 -0.00066
74.85 -0.00146
74.9 -0.00201
74.95 -0.00188
75 -0.00181
75.05 -0.00193
75.1 -0.00204
75.15 -0.00196
75.2 -0.00193
75.25 -0.00143
75.3 -0.00163
75.35 -0.00104
75.4 0.00012
75.45 0.00106
75.5 0.00204
75.55 0.00314
75.6 0.00397
75.65 0.00455
75.7 0.00491
75.75 0.00488
75.8 0.00415
75.85 0.00362
75.9 0.00265
75.95 0.00173
76 0.00112
76.05 0.00092
76.1 0.00067
76.15 0.00119
76.2 0.00202
76.25 0.0028
76.3 0.0037
76.35 0.00467
76.4 0.00472
76.45 0.00499
76.5 0.00424
76.55 0.00401
76.6 0.00376
76.65 0.00338
76.7 0.0028
76.75 0.00229
76.8 0.00199
76.85 0.0022
76.9 0.00211
76.95 0.00129
77 0.00076
77.05 -0.0004
77.1 -0.00088
77.15 -0.00048
77.2 -0.00102
77.25 -0.00067
77.3 -0.00036
77.35 0.00032
77.4 0.00085
77.45 0.00094
77.5 0.00047
77.55 -0.00029
77.6 -0.0015
77.65 -0.0023
77.7 -0.00323
77.75 -0.00435
77.8 -0.00421
77.85 -0.00448
77.9 -0.00376
77.95 -0.00313
78 -0.00296
78.05 -0.00342
78.1 -0.0033
78.15 -0.00365
78.2 -0.00386
78.25 -0.00326
78.3 -0.00322
78.35 -0.00227
78.4 -0.00119
78.45 -0.00082
78.5 -0.00089
78.55 -0.00061
78.6 -0.001
78.65 -0.0018
78.7 -0.00249
78.75 -0.00266
78.8 -0.00309
78.85 -0.00336
78.9 -0.00246
78.95 -0.00106
79 -0.00052
79.05 0.0005
79.1 0.00053
79.15 0.00036
79.2 0.00013
79.25 0.00075
79.3 0.00102
79.35 0.00154
79.4 0.00114
79.45 0.00025
79.5 -0.001
79.55 -0.00146
79.6 -0.0009
79.65 0.00003
79.7 0.00074
79.75 0.00158
79.8 0.00268
79.85 0.00272
79.9 0.00206
79.95 0.00087
80 -0.00034
80.05 -0.00097
80.1 -0.00154
80.15 -0.00251
80.2 -0.00219
80.25 -0.0021
80.3 -0.00136
80.35 -0.00103
80.4 -0.00035
80.45 0.0006
80.5 0.00117
80.55 0.00071
80.6 0.0006
80.65 -0.00027
80.7 -0.0013
80.75 -0.00253
80.8 -0.00231
80.85 -0.00178
80.9 -0.00161
80.95 -0.0019
81 -0.00268
81.05 -0.00308
81.1 -0.00263
81.15 -0.00216
81.2 -0.00096
81.25 0.00059
81.3 0.00222
81.35 0.00241
81.4 0.00169
81.45 0.00158
81.5 0.00172
81.55 0.00189
81.6 0.00187
81.65 0.00118
81.7 0.00089
81.75 0.00002
81.8 0.00008
81.85 0.00072
81.9 0.00098
81.95 0.0004
82 -0.00054
82.05 -0.00117
82.1 -0.0014
82.15 -0.00201
82.2 -0.00155
82.25 -0.0019
82.3 -0.00117
82.35 -0.00077
82.4 -0.00119
82.45 -0.00137
82.5 -0.00168
82.55 -0.00222
82.6 -0.00215
82.65 -0.00256
82.7 -0.00191
82.75 -0.00062
82.8 -0.00018
82.85 0.00089
82.9 0.00193
82.95 0.00215
83 0.00246
83.05 0.00307
83.1 0.00304
83.15 0.0031
83.2 0.00294
83.25 0.00206
83.3 0.002
83.35 0.00141
83.4 0.00067
83.45 0.00059
83.5 0.00045
83.55 0.00038
83.6 0.00074
83.65 0.00125
83.7 0.00172
83.75 0.00229
83.8 0.0022
83.85 0.00117
83.9 0.00089
83.95 0.00005
84 -0.0009
84.05 -0.00181
84.1 -0.00239
84.15 -0.00205
84.2 -0.00094
84.25 0.00062
84.3 0.00107
84.35 0.0018
84.4 0.00168
84.45 0.00074
84.5 0.0001
84.55 -0.00101
84.6 -0.0021
84.65 -0.00306
84.7 -0.0027
84.75 -0.00168
84.8 -0.0009
84.85 0.00023
84.9 0.00017
84.95 -0.00035
85 -0.00109
85.05 -0.00207
85.1 -0.00215
85.15 -0.00174
85.2 -0.00189
85.25 -0.00155
85.3 -0.00168
85.35 -0.00236
85.4 -0.0026
85.45 -0.00256
85.5 -0.00256
85.55 -0.0019
85.6 -0.0015
85.65 -0.00134
85.7 -0.00064
85.75 0.00002
85.8 -0.00001
85.85 -0.00006
85.9 0.00069
85.95 0.00117
86 0.00197
86.05 0.00285
86.1 0.00256
86.15 0.00208
86.2 0.00136
86.25 0.00099
86.3 0.00038
86.35 0.00002
86.4 0.00046
86.45 0.00073
86.5 0.00074
86.55 0.00013
86.6 0.00008
86.65 0.00054
86.7 0.00017
86.75 -0.00054
86.8 -0.00061
86.85 -0.0006
86.9 0.00025
86.95 0.00057
87 0.00054
87.05 0.0005
87.1 0.00068
87.15 0.00092
87.2 0.00027
87.25 -0.00072
87.3 -0.00075
87.35 -0.00128
87.4 -0.00178
87.45 -0.00169
87.5 -0.00157
87.55 -0.00061
87.6 0.00006
87.65 0.00047
87.7 0.00038
87.75 0.00024
87.8 0.00071
87.85 0.00163
87.9 0.00163
87.95 0.0022
88 0.00171
88.05 0.00104
88.1 0.00111
88.15 0.00185
88.2 0.00209
88.25 0.00186
88.3 0.00167
88.35 0.00097
88.4 0.00049
88.45 -0.00015
88.5 -0.00067
88.55 -0.00073
88.6 -0.00139
88.65 -0.00148
88.7 -0.00169
88.75 -0.00158
88.8 -0.00061
88.85 0.0004
88.9 0.00119
88.95 0.00123
89 0.00169
89.05 0.00108
89.1 0.00033
89.15 -0.00084
89.2 -0.00118
89.25 -0.00159
89.3 -0.00182
89.35 -0.00118
89.4 -0.00027
89.45 0.00033
89.5 -0.0001
89.55 -0.0008
89.6 -0.00195
89.65 -0.0021
89.7 -0.00226
89.75 -0.0015
89.8 -0.00152
89.85 -0.00195
89.9 -0.00249
89.95 -0.00308
90 -0.00319
90.05 -0.00335
90.1 -0.00273
90.15 -0.00207
90.2 -0.00164
90.25 -0.00091
90.3 -0.00111
90.35 -0.00079
90.4 -0.00064
90.45 -0.00031
90.5 -0.00009
90.55 -0.00064
90.6 -0.00026
90.65 -0.00054
90.7 -0.00064
90.75 -0.00069
90.8 -0.00018
90.85 -0.0001
90.9 -0.00026
90.95 -0.00076
91 -0.00075
91.05 -0.00028
91.1 0.00054
91.15 0.00174
91.2 0.0021
91.25 0.0025
91.3 0.0025
91.35 0.00184
91.4 0.00197
91.45 0.00212
91.5 0.00241
91.55 0.00187
91.6 0.0015
91.65 0.00138
91.7 0.00147
91.75 0.00065
91.8 0.00062
91.85 0.00135
91.9 0.00099
91.95 0.0004
92 0.00031
92.05 0.00083
92.1 0.00158
92.15 0.00143
92.2 0.00136
92.25 0.0013
92.3 0.00039
92.35 0.00048
92.4 0.00087
92.45 0.00036
92.5 -0.00011
92.55 0.00012
92.6 -0.00009
92.65 0.00023
92.7 0.00058
92.75 0.00075
92.8 0.00089
92.85 0.00087
92.9 0.00119
92.95 0.00087
93 0.00088
93.05 0.00015
93.1 0.00028
93.15 -0.00026
93.2 -0.0007
93.25 -0.00076
93.3 -0
93.35 0.00061
93.4 0.00163
93.45 0.00271
93.5 0.00305
93.55 0.00268
93.6 0.00175
93.65 0.00121
93.7 0.00034
93.75 0.0003
93.8 0.0002
93.85 -0.00031
93.9 -0.00066
93.95 -0.0002
94 0.00028
94.05 0.00126
94.1 0.00132
94.15 0.00133
94.2 0.00134
94.25 0.00162
94.3 0.00112
94.35 0.00039
94.4 0.0003
94.45 0.00067
94.5 0.00088
94.55 0.00154
94.6 0.00253
94.65 0.00291
94.7 0.00306
94.75 0.00354
94.8 0.00319
94.85 0.00321
94.9 0.00331
94.95 0.00374
95 0.00395
95.05 0.00331
95.1 0.0018
95.15 0.00069
95.2 0.00003
95.25 -0.00059
95.3 -0.00176
95.35 -0.00247
95.4 -0.00282
95.45 -0.00214
95.5 -0.00177
95.55 -0.00134
95.6 -0.00041
95.65 0.00016
95.7 0.00124
95.75 0.00168
95.8 0.00195
95.85 0.00263
95.9 0.00306
95.95 0.0034
96 0.00283
96.05 0.0027
96.1 0.00285
96.15 0.00341
96.2 0.00338
96.25 0.00315
96.3 0.00195
96.35 0.00014
96.4 -0.00184
96.45 -0.00268
96.5 -0.00282
96.55 -0.00261
96.6 -0.00255
96.65 -0.00196
96.7 -0.00231
96.75 -0.00198
96.8 -0.00239
96.85 -0.00299
96.9 -0.00314
96.95 -0.00228
97 -0.00108
97.05 -0.00102
97.1 -0.00169
97.15 -0.00202
97.2 -0.00277
97.25 -0.00362
97.3 -0.00375
97.35 -0.0033
97.4 -0.00351
97.45 -0.0034
97.5 -0.00274
97.55 -0.00195
97.6 -0.00131
97.65 -0.00027
97.7 0.00054
97.75 0.00044
97.8 0.00092
97.85 0.00091
97.9 0.00147
97.95 0.0021
98 0.0023
98.05 0.00205
98.1 0.0015
98.15 0.00093
98.2 0.00037
98.25 0.00021
98.3 0.00016
98.35 0.0001
98.4 -0.00072
98.45 -0.00132
98.5 -0.0022
98.55 -0.00307
98.6 -0.00346
98.65 -0.00351
98.7 -0.00328
98.75 -0.00286
98.8 -0.00319
98.85 -0.00385
98.9 -0.00358
98.95 -0.00265
99 -0.00152
99.05 -0.00141
99.1 -0.00078
99.15 0.0001
99.2 0.00093
99.25 0.00181
99.3 0.00177
99.35 0.00219
99.4 0.00228
99.45 0.00221
99.5 0.00134
99.55 0.00141
99.6 0.00058
99.65 0.00013
99.7 -0.0002
99.75 -0.00016
99.8 0.00045
99.85 0.00087
99.9 0.00164
99.95 0.0019
