0 0
0.05 0.00578
0.1 0.01464
0.15 0.0193
0.2 0.02224
0.25 0.0223
0.3 0.02245
0.35 0.02154
0.4 0.02127
0.45 0.02246
0.5 0.02205
0.55 0.02444
0.6 0.02932
0.65 0.03474
0.7 0.03675
0.75 0.03736
0.8 0.03822
0.85 0.03802
0.9 0.03448
0.95 0.02944
1 0.02662
1.05 0.02451
1.1 0.0224
1.15 0.02178
1.2 0.02397
1.25 0.02397
1.3 0.02544
1.35 0.0249
1.4 0.02438
1.45 0.0236
1.5 0.02547
1.55 0.0244
1.6 0.02083
1.65 0.02184
1.7 0.02581
1.75 0.02554
1.8 0.02318
1.85 0.02149
1.9 0.01911
1.95 0.01797
2 0.01928
2.05 0.0208
2.1 0.02034
2.15 0.02174
2.2 0.02482
2.25 0.02365
2.3 0.02295
2.35 0.025
2.4 0.02799
2.45 0.03137
2.5 0.0319
2.55 0.03006
2.6 0.02851
2.65 0.026
2.7 0.02258
2.75 0.02059
2.8 0.01735
2.85 0.01218
2.9 0.01148
2.95 0.01155
3 0.01389
3.05 0.0162
3.1 0.01464
3.15 0.01544
3.2 0.0131
3.25 0.01488
3.3 0.01859
3.35 0.02326
3.4 0.02275
3.45 0.01897
3.5 0.01575
3.55 0.01489
3.6 0.01658
3.65 0.01533
3.7 0.01134
3.75 0.00609
3.8 0.00506
3.85 0.00428
3.9 0.00538
3.95 0.00382
4 0.00282
4.05 0.00442
4.1 0.00447
4.15 0.0036
4.2 0.00459
4.25 0.00545
4.3 0.00654
4.35 0.00709
4.4 0.00484
4.45 0.00326
4.5 0.0045
4.55 0.00346
4.6 0.00519
4.65 0.00674
4.7 0.01098
4.75 0.01373
4.8 0.01808
4.85 0.02039
4.9 0.02004
4.95 0.01634
5 0.01144
5.05 0.00668
5.1 0.00601
5.15 0.00339
5.2 0.00328
5.25 0.0068
5.3 0.00787
5.35 0.00778
5.4 0.00751
5.45 0.00735
5.5 0.01016
5.55 0.0112
5.6 0.00869
5.65 0.00801
5.7 0.00903
5.75 0.00861
5.8 0.00688
5.85 0.00516
5.9 0.00542
5.95 0.00794
6 0.01012
6.05 0.00837
6.1 0.00865
6.15 0.0059
6.2 0.00198
6.25 0.00306
6.3 0.00335
6.35 0.00339
6.4 0.00275
6.45 0.00195
6.5 0.00316
6.55 0.00385
6.6 0.00154
6.65 -0.0006
6.7 -0.00344
6.75 -0.00143
6.8 -0.00002
6.85 0.00301
6.9 0.00552
6.95 0.00692
7 0.00625
7.05 0.00758
7.1 0.01147
7.15 0.01574
7.2 0.01642
7.25 0.01511
7.3 0.01638
7.35 0.01498
7.4 0.0142
7.45 0.01221
7.5 0.00843
7.55 0.00479
7.6 0.00379
7.65 0.00137
7.7 0.00156
7.75 0.00025
7.8 0.00067
7.85 0.00217
7.9 0.00477
7.95 0.00584
8 0.0086
8.05 0.00923
8.1 0.01172
8.15 0.01474
8.2 0.01358
8.25 0.00939
8.3 0.00823
8.35 0.00752
8.4 0.00419
8.45 0.0049
8.5 0.00248
8.55 0.00162
8.6 -0.0005
8.65 0.00096
8.7 0.00407
8.75 0.00532
8.8 0.00424
8.85 0.00203
8.9 0.0001
8.95 -0.00223
9 -0.00186
9.05 -0.00332
9.1 -0.00369
9.15 -0.00284
9.2 -0.00194
9.25 0.00125
9.3 0.00623
9.35 0.00877
9.4 0.01105
9.45 0.01253
9.5 0.01565
9.55 0.01696
9.6 0.01584
9.65 0.01329
9.7 0.00979
9.75 0.00938
9.8 0.00615
9.85 0.00581
9.9 0.00823
9.95 0.00857
10 0.00533
10.05 0.00395
10.1 0.00112
10.15 -0.0026
10.2 -0.00556
10.25 -0.00737
10.3 -0.00864
10.35 -0.01054
10.4 -0.01217
10.45 -0.01492
10.5 -0.01511
10.55 -0.01425
10.6 -0.00954
10.65 -0.00486
10.7 0.00129
10.75 0.00369
10.8 0.00605
10.85 0.00472
10.9 0.00553
10.95 0.00691
11 0.00551
11.05 0.00199
11.1 0.00126
11.15 0.00357
11.2 0.00649
11.25 0.00845
11.3 0.00776
11.35 0.00449
11.4 0.00357
11.45 0.0026
11.5 -0.00062
11.55 -0.00135
11.6 0.00031
11.65 0.00156
11.7 -0.00049
11.75 -0.00041
11.8 -0.00297
11.85 -0.00201
11.9 -0.00259
11.95 -0.00034
12 0.00125
12.05 0.00203
12.1 0.00347
12.15 0.00402
12.2 0.00105
12.25 -0.00078
12.3 -0.0008
12.35 -0.00229
12.4 -0.00568
12.45 -0.00422
12.5 -0.00519
12.55 -0.00452
12.6 -0.0015
12.65 -0.00242
12.7 -0.00181
12.75 -0.00213
12.8 -0.00255
12.85 0.00012
12.9 -0.00003
12.95 -0.0014
13 -0.0029
13.05 -0.00084
13.1 0.00095
13.15 -0.00069
13.2 -0.00354
13.25 -0.00736
13.3 -0.01178
13.35 -0.0122
13.4 -0.01424
13.45 -0.0122
13.5 -0.00787
13.55 -0.00722
13.6 -0.00884
13.65 -0.0083
13.7 -0.00916
13.75 -0.00711
13.8 -0.00789
13.85 -0.007
13.9 -0.0075
13.95 -0.00398
14 -0.00166
14.05 -0.00114
14.1 0.00053
14.15 0.00115
14.2 0.00041
14.25 0.00056
14.3 0.00346
14.35 0.0064
14.4 0.00847
14.45 0.01175
14.5 0.01389
14.55 0.01637
14.6 0.01922
14.65 0.02143
14.7 0.02111
14.75 0.01993
14.8 0.01917
14.85 0.01733
14.9 0.01371
14.95 0.00958
15 0.00428
15.05 0.00076
15.1 -0.00412
15.15 -0.009
15.2 -0.00963
15.25 -0.01144
15.3 -0.00974
15.35 -0.00839
15.4 -0.00468
15.45 -0.00007
15.5 0.00444
15.55 0.01009
15.6 0.01132
15.65 0.01324
15.7 0.01435
15.75 0.01475
15.8 0.01098
15.85 0.00845
15.9 0.00446
15.95 -0.00015
16 -0.00323
16.05 -0.0045
16.1 -0.00679
16.15 -0.00499
16.2 -0.0035
16.25 -0.00356
16.3 -0.0057
16.35 -0.00912
16.4 -0.01147
16.45 -0.01414
16.5 -0.01246
16.55 -0.01248
16.6 -0.01422
16.65 -0.01355
16.7 -0.01081
16.75 -0.00768
16.8 -0.00697
16.85 -0.00834
16.9 -0.00936
16.95 -0.00692
17 -0.00455
17.05 -0.00007
17.1 0.00011
17.15 0.00298
17.2 0.00287
17.25 0.00501
17.3 0.00885
17.35 0.01227
17.4 0.01206
17.45 0.0141
17.5 0.01687
17.55 0.01681
17.6 0.01843
17.65 0.02013
17.7 0.02202
17.75 0.02084
17.8 0.02116
17.85 0.01894
17.9 0.013
17.95 0.00789
18 0.00095
18.05 -0.00179
18.1 -0.00649
18.15 -0.00888
18.2 -0.01192
18.25 -0.0108
18.3 -0.01141
18.35 -0.00942
18.4 -0.00634
18.45 -0.00324
18.5 -0.00075
18.55 0.00041
18.6 0.00028
18.65 -0.00194
18.7 -0.00319
18.75 -0.00416
18.8 -0.00426
18.85 -0.0022
18.9 -0.00366
18.95 -0.00498
19 -0.00315
19.05 0.00099
19.1 0.001
19.15 0.0023
19.2 0.00191
19.25 0.00407
19.3 0.00491
19.35 0.00307
19.4 -0.00105
19.45 -0.00509
19.5 -0.00429
19.55 -0.00301
19.6 -0.00399
19.65 -0.00167
19.7 0.00072
19.75 0.00064
19.8 0.00324
19.85 0.00602
19.9 0.00561
19.95 0.0074
20 0.0105
20.05 0.00903
20.1 0.00546
20.15 0.00253
20.2 0.00316
20.25 0.0035
20.3 0.00238
20.35 0.00315
20.4 0.00516
20.45 0.00315
20.5 0.00249
20.55 0.00042
20.6 0.002
20.65 0.00031
20.7 -0.00045
20.75 0.00083
20.8 0.0003
20.85 -0.00317
20.9 -0.00612
20.95 -0.00588
21 -0.00573
21.05 -0.00309
21.1 -0.00071
21.15 -0.00165
21.2 -0.00012
21.25 -0.0006
21.3 0.00055
21.35 0.00297
21.4 0.00526
21.45 0.00714
21.5 0.01019
21.55 0.0131
21.6 0.01408
21.65 0.01457
21.7 0.01405
21.75 0.01184
21.8 0.00802
21.85 0.00654
21.9 0.00344
21.95 -0.00054
22 -0.0005
22.05 -0.00102
22.1 -0.00231
22.15 -0.0049
22.2 -0.00536
22.25 -0.00446
22.3 -0.00416
22.35 -0.00087
22.4 0.00062
22.45 0.00158
22.5 0.00217
22.55 -0.00027
22.6 -0.0031
22.65 -0.00256
22.7 -0.00045
22.75 -0.00249
22.8 -0.0048
22.85 -0.00463
22.9 -0.00652
22.95 -0.00526
23 -0.00201
23.05 0.0017
23.1 0.00653
23.15 0.01059
23.2 0.00982
23.25 0.00999
23.3 0.00603
23.35 0.00142
23.4 -0.00018
23.45 -0.00401
23.5 -0.00809
23.55 -0.01229
23.6 -0.01447
23.65 -0.01564
23.7 -0.01475
23.75 -0.01414
23.8 -0.01169
23.85 -0.00957
23.9 -0.00871
23.95 -0.00508
24 -0.00216
24.05 -0.00253
24.1 0.00028
24.15 0.00352
24.2 0.00818
24.25 0.01308
24.3 0.01195
24.35 0.01128
24.4 0.0081
24.45 0.00364
24.5 0.00304
24.55 0.00101
24.6 0.00007
24.65 0.00187
24.7 0.00367
24.75 0.00116
24.8 -0.00186
24.85 -0.0012
24.9 0.00134
24.95 0.00201
25 0.00277
25.05 0.00504
25.1 0.00499
25.15 0.00681
25.2 0.00984
25.25 0.01203
25.3 0.01345
25.35 0.01366
25.4 0.01369
25.45 0.01453
25.5 0.01479
25.55 0.01308
25.6 0.01181
25.65 0.00847
25.7 0.00771
25.75 0.00341
25.8 -0.003
25.85 -0.01031
25.9 -0.01721
25.95 -0.0233
26 -0.02639
26.05 -0.02773
26.1 -0.02836
26.15 -0.02678
26.2 -0.02357
26.25 -0.0175
26.3 -0.01011
26.35 -0.00718
26.4 -0.00644
26.45 -0.00868
26.5 -0.00939
26.55 -0.01004
26.6 -0.01128
26.65 -0.00987
26.7 -0.00837
26.75 -0.00835
26.8 -0.00587
26.85 -0.00283
26.9 0.0002
26.95 0.00315
27 0.00673
27.05 0.00803
27.1 0.00828
27.15 0.01066
27.2 0.00877
27.25 0.00469
27.3 0.00333
27.35 0.00451
27.4 0.003
27.45 0.00474
27.5 0.00731
27.55 0.00694
27.6 0.00426
27.65 0.00129
27.7 -0.00199
27.75 -0.00513
27.8 -0.00521
27.85 -0.00322
27.9 -0.00455
27.95 -0.00224
28 -0.00212
28.05 -0.00166
28.1 0.001
28.15 -0.00019
28.2 -0.00198
28.25 -0.0024
28.3 -0.00485
28.35 -0.01061
28.4 -0.01753
28.45 -0.02083
28.5 -0.02543
28.55 -0.02912
28.6 -0.03786
28.65 -0.04917
28.7 -0.06304
28.75 -0.07518
28.8 -0.08728
28.85 -0.1011
28.9 -0.11827
28.95 -0.13779
29 -0.15964
29.05 -0.18275
29.1 -0.20901
29.15 -0.24112
29.2 -0.27617
29.25 -0.31369
29.3 -0.35985
29.35 -0.41232
29.4 -0.47108
29.45 -0.53044
29.5 -0.59794
29.55 -0.6681
29.6 -0.74618
29.65 -0.82693
29.7 -0.91285
29.75 -0.99896
29.8 -1.09014
29.85 -1.18437
29.9 -1.28325
29.95 -1.38182
30 -1.47675
30.05 -1.57022
30.1 -1.66072
30.15 -1.74766
30.2 -1.82916
30.25 -1.90012
30.3 -1.95797
30.35 -2.0085
30.4 -2.04442
30.45 -2.0675
30.5 -2.07877
30.55 -2.07878
30.6 -2.06071
30.65 -2.02434
30.7 -1.97451
30.75 -1.90826
30.8 -1.8278
30.85 -1.73096
30.9 -1.62385
30.95 -1.50321
31 -1.37065
31.05 -1.22897
31.1 -1.08175
31.15 -0.93254
31.2 -0.78036
31.25 -0.62694
31.3 -0.4698
31.35 -0.31436
31.4 -0.15999
31.45 -0.00732
31.5 0.14371
31.55 0.29019
31.6 0.42511
31.65 0.55069
31.7 0.67072
31.75 0.7814
31.8 0.88081
31.85 0.97404
31.9 1.05947
31.95 1.13577
32 1.20463
32.05 1.26506
32.1 1.3138
32.15 1.35301
32.2 1.3855
32.25 1.41159
32.3 1.43651
32.35 1.4585
32.4 1.47575
32.45 1.48946
32.5 1.50385
32.55 1.51381
32.6 1.52046
32.65 1.52281
32.7 1.5225
32.75 1.51965
32.8 1.51911
32.85 1.51894
32.9 1.51689
32.95 1.51179
33 1.50706
33.05 1.50011
33.1 1.49047
33.15 1.48303
33.2 1.47355
33.25 1.4635
33.3 1.44938
33.35 1.43408
33.4 1.41694
33.45 1.40052
33.5 1.37982
33.55 1.35984
33.6 1.34069
33.65 1.3185
33.7 1.291
33.75 1.26517
33.8 1.24049
33.85 1.2123
33.9 1.18076
33.95 1.1451
34 1.11047
34.05 1.07346
34.1 1.03736
34.15 1.00142
34.2 0.9678
34.25 0.93238
34.3 0.89864
34.35 0.86367
34.4 0.82819
34.45 0.791
34.5 0.75409
34.55 0.72145
34.6 0.69145
34.65 0.66175
34.7 0.63123
34.75 0.60102
34.8 0.56938
34.85 0.53681
34.9 0.5026
34.95 0.46888
35 0.43575
35.05 0.40712
35.1 0.37796
35.15 0.35001
35.2 0.32116
35.25 0.29213
35.3 0.26643
35.35 0.23948
35.4 0.21103
35.45 0.18494
35.5 0.16159
35.55 0.14117
35.6 0.12222
35.65 0.10116
35.7 0.07713
35.75 0.05433
35.8 0.03496
35.85 0.01425
35.9 -0.00551
35.95 -0.02315
36 -0.0393
36.05 -0.05782
36.1 -0.07535
36.15 -0.09077
36.2 -0.10695
36.25 -0.12072
36.3 -0.13383
36.35 -0.14506
36.4 -0.15719
36.45 -0.16653
36.5 -0.17722
36.55 -0.18433
36.6 -0.19078
36.65 -0.1983
36.7 -0.20202
36.75 -0.20493
36.8 -0.20714
36.85 -0.20921
36.9 -0.2109
36.95 -0.2173
37 -0.22602
37.05 -0.2353
37.1 -0.2441
37.15 -0.25218
37.2 -0.25837
37.25 -0.26055
37.3 -0.2605
37.35 -0.26097
37.4 -0.26156
37.45 -0.26018
37.5 -0.25952
37.55 -0.26066
37.6 -0.26024
37.65 -0.26143
37.7 -0.25916
37.75 -0.25754
37.8 -0.25793
37.85 -0.25915
37.9 -0.25858
37.95 -0.25664
38 -0.25274
38.05 -0.25038
38.1 -0.24668
38.15 -0.2452
38.2 -0.24397
38.25 -0.23999
38.3 -0.234
38.35 -0.23099
38.4 -0.22784
38.45 -0.22191
38.5 -0.21554
38.55 -0.21116
38.6 -0.20799
38.65 -0.20627
38.7 -0.20373
38.75 -0.20325
38.8 -0.20124
38.85 -0.1977
38.9 -0.1935
38.95 -0.1928
39 -0.1908
39.05 -0.18733
39.1 -0.1842
39.15 -0.17964
39.2 -0.17821
39.25 -0.1775
39.3 -0.17351
39.35 -0.17
39.4 -0.16841
39.45 -0.16722
39.5 -0.16332
39.55 -0.16222
39.6 -0.1579
39.65 -0.15652
39.7 -0.15421
39.75 -0.14917
39.8 -0.1427
39.85 -0.13761
39.9 -0.13456
39.95 -0.13507
40 -0.13427
40.05 -0.13069
40.1 -0.12584
40.15 -0.12597
40.2 -0.12433
40.25 -0.12162
40.3 -0.11979
40.35 -0.11739
40.4 -0.11832
40.45 -0.11743
40.5 -0.11571
40.55 -0.11171
40.6 -0.10762
40.65 -0.10314
40.7 -0.09954
40.75 -0.10002
40.8 -0.10247
40.85 -0.10404
40.9 -0.10341
40.95 -0.10364
41 -0.10379
41.05 -0.10638
41.1 -0.10468
41.15 -0.10505
41.2 -0.10232
41.25 -0.09976
41.3 -0.0952
41.35 -0.0919
41.4 -0.08751
41.45 -0.08586
41.5 -0.08359
41.55 -0.08531
41.6 -0.08677
41.65 -0.08703
41.7 -0.08531
41.75 -0.08513
41.8 -0.08531
41.85 -0.08728
41.9 -0.09005
41.95 -0.08848
42 -0.08695
42.05 -0.08577
42.1 -0.08671
42.15 -0.08549
42.2 -0.08087
42.25 -0.07737
42.3 -0.07269
42.35 -0.06843
42.4 -0.06782
42.45 -0.06547
42.5 -0.06378
42.55 -0.06079
42.6 -0.06175
42.65 -0.06496
42.7 -0.06832
42.75 -0.06754
42.8 -0.06857
42.85 -0.06674
42.9 -0.0632
42.95 -0.06281
43 -0.06241
43.05 -0.06061
43.1 -0.05984
43.15 -0.06124
43.2 -0.06209
43.25 -0.06349
43.3 -0.06534
43.35 -0.06393
43.4 -0.06129
43.45 -0.05908
43.5 -0.05558
43.55 -0.05133
43.6 -0.05068
43.65 -0.04876
43.7 -0.04439
43.75 -0.04425
43.8 -0.04333
43.85 -0.04173
43.9 -0.04231
43.95 -0.04332
44 -0.04098
44.05 -0.04022
44.1 -0.03964
44.15 -0.0367
44.2 -0.03718
44.25 -0.03665
44.3 -0.03519
44.35 -0.03433
44.4 -0.03586
44.45 -0.03632
44.5 -0.03627
44.55 -0.03512
44.6 -0.03499
44.65 -0.03518
44.7 -0.03253
44.75 -0.03085
44.8 -0.02989
44.85 -0.02737
44.9 -0.02806
44.95 -0.0316
45 -0.036
45.05 -0.03889
45.1 -0.04168
45.15 -0.04468
45.2 -0.04738
45.25 -0.04769
45.3 -0.04359
45.35 -0.04226
45.4 -0.03827
45.45 -0.03287
45.5 -0.0287
45.55 -0.02729
45.6 -0.02296
45.65 -0.01701
45.7 -0.01498
45.75 -0.01692
45.8 -0.01896
45.85 -0.02353
45.9 -0.02467
45.95 -0.02323
46 -0.02128
46.05 -0.01772
46.1 -0.01309
46.15 -0.01125
46.2 -0.01334
46.25 -0.0147
46.3 -0.01805
46.35 -0.02082
46.4 -0.02419
46.45 -0.02609
46.5 -0.02596
46.55 -0.0274
46.6 -0.02978
46.65 -0.03145
46.7 -0.03071
46.75 -0.02747
46.8 -0.02643
46.85 -0.02189
46.9 -0.02064
46.95 -0.0209
47 -0.01948
47.05 -0.0165
47.1 -0.01151
47.15 -0.00905
47.2 -0.00689
47.25 -0.00826
47.3 -0.01133
47.35 -0.01475
47.4 -0.01505
47.45 -0.01792
47.5 -0.02181
47.55 -0.02452
47.6 -0.0256
47.65 -0.02285
47.7 -0.0191
47.75 -0.01832
47.8 -0.01862
47.85 -0.01512
47.9 -0.01549
47.95 -0.01496
48 -0.01276
48.05 -0.01188
48.1 -0.01376
48.15 -0.01379
48.2 -0.0116
48.25 -0.00902
48.3 -0.00758
48.35 -0.00914
48.4 -0.01278
48.45 -0.01418
48.5 -0.01275
48.55 -0.00861
48.6 -0.00809
48.65 -0.00572
48.7 -0.00442
48.75 -0.00376
48.8 -0.00621
48.85 -0.00695
48.9 -0.00548
48.95 -0.00587
49 -0.00579
49.05 -0.00581
49.1 -0.00715
49.15 -0.00793
49.2 -0.01094
49.25 -0.01191
49.3 -0.01153
49.35 -0.01287
49.4 -0.01111
49.45 -0.00699
49.5 -0.00399
49.55 -0.00077
49.6 0.00077
49.65 -0.00069
49.7 -0.00314
49.75 -0.00225
49.8 -0.00081
49.85 -0.00066
49.9 0.00109
49.95 0.00013
50 0.00091
50.05 0.00331
50.1 0.00313
50.15 0.00516
50.2 0.00398
50.25 0.00203
50.3 -0.00165
50.35 -0.00228
50.4 -0.00285
50.45 -0.00318
50.5 -0.00149
50.55 -0.00017
50.6 0.00161
50.65 0.00504
50.7 0.00887
50.75 0.01086
50.8 0.00826
50.85 0.0058
50.9 0.00444
50.95 0.00009
51 -0.00611
51.05 -0.00915
51.1 -0.01163
51.15 -0.01039
51.2 -0.01193
51.25 -0.01243
51.3 -0.01119
51.35 -0.0087
51.4 -0.00811
51.45 -0.00704
51.5 -0.00545
51.55 -0.00525
51.6 -0.00439
51.65 -0.00678
51.7 -0.00688
51.75 -0.00502
51.8 -0.00139
51.85 0.00149
51.9 0.00243
51.95 0.005
52 0.00665
52.05 0.00567
52.1 0.00328
52.15 -0.00099
52.2 -0.00277
52.25 -0.00212
52.3 -0.00046
52.35 -0.00108
52.4 0.00032
52.45 0.00209
52.5 0.0038
52.55 0.0035
52.6 0.00574
52.65 0.00486
52.7 0.0022
52.75 -0.00243
52.8 -0.00733
52.85 -0.01038
52.9 -0.01027
52.95 -0.01034
53 -0.00888
53.05 -0.0077
53.1 -0.00558
53.15 -0.00209
53.2 -0.00074
53.25 -0.00146
53.3 -0.00501
53.35 -0.00432
53.4 -0.00122
53.45 -0.00026
53.5 0.00263
53.55 0.00317
53.6 0.00156
53.65 -0.00163
53.7 -0.00592
53.75 -0.00622
53.8 -0.00405
53.85 -0.00248
53.9 -0.00212
53.95 0.00102
54 0.00155
54.05 0.00193
54.1 0.00255
54.15 0.003
54.2 0.00075
54.25 0.0012
54.3 -0.00118
54.35 -0.00388
54.4 -0.00778
54.45 -0.01278
54.5 -0.01417
54.55 -0.01663
54.6 -0.01799
54.65 -0.02014
54.7 -0.01767
54.75 -0.01527
54.8 -0.01416
54.85 -0.01016
54.9 -0.00816
54.95 -0.00473
55 -0.00254
55.05 -0.00203
55.1 -0.00291
55.15 -0.00026
55.2 0.00098
55.25 0.00392
55.3 0.00469
55.35 0.00613
55.4 0.0096
55.45 0.00933
55.5 0.00632
55.55 0.00652
55.6 0.00741
55.65 0.00898
55.7 0.01184
55.75 0.01203
55.8 0.01065
55.85 0.00988
55.9 0.0106
55.95 0.01132
56 0.00809
56.05 0.00212
56.1 -0.00489
56.15 -0.00873
56.2 -0.00946
56.25 -0.00653
56.3 -0.00387
56.35 0.00044
56.4 0.00259
56.45 0.00618
56.5 0.00873
56.55 0.0065
56.6 0.00343
56.65 0.00345
56.7 0.00558
56.75 0.00845
56.8 0.00833
56.85 0.00507
56.9 0.0017
56.95 0.00125
57 -0.00025
57.05 -0.00117
57.1 0.00104
57.15 0.00067
57.2 0.00122
57.25 0.00235
57.3 0.00279
57.35 0.00212
57.4 -0.00125
57.45 -0.00053
57.5 0.00203
57.55 0.00463
57.6 0.00361
57.65 0.00349
57.7 0.00462
57.75 0.00525
57.8 0.00323
57.85 0.00218
57.9 -0.00028
57.95 -0.00153
58 -0.00278
58.05 -0.00678
58.1 -0.00964
58.15 -0.01128
58.2 -0.01472
58.25 -0.0173
58.3 -0.01631
58.35 -0.01699
58.4 -0.01331
58.45 -0.01079
58.5 -0.00576
58.55 -0.00461
58.6 -0.00344
58.65 -0.00307
58.7 -0.00217
58.75 -0.00248
58.8 -0.00521
58.85 -0.00759
58.9 -0.00972
58.95 -0.00936
59 -0.00926
59.05 -0.00753
59.1 -0.00459
59.15 -0.00352
59.2 -0.00334
59.25 -0.00326
59.3 -0.00249
59.35 -0.00117
59.4 -0.00041
59.45 -0.00052
59.5 0.00002
59.55 0.00038
59.6 -0.00026
59.65 -0.00064
59.7 0.00222
59.75 0.00514
59.8 0.00569
59.85 0.00317
59.9 0.00137
59.95 0.00087
60 0.0013
60.05 0.0024
60.1 0.00264
60.15 0.00374
60.2 0.00637
60.25 0.00831
60.3 0.00795
60.35 0.00614
60.4 0.00213
60.45 0.00068
60.5 0.00198
60.55 0.00403
60.6 0.00166
60.65 -0.0003
60.7 0.00046
60.75 -0.00031
60.8 0.00177
60.85 -0.00033
60.9 -0.00422
60.95 -0.00664
61 -0.00579
61.05 -0.00687
61.1 -0.00849
61.15 -0.00875
61.2 -0.008
61.25 -0.0067
61.3 -0.00629
61.35 -0.0061
61.4 -0.0073
61.45 -0.00961
61.5 -0.01055
61.55 -0.01272
61.6 -0.01561
61.65 -0.01619
61.7 -0.01246
61.75 -0.01083
61.8 -0.0114
61.85 -0.01218
61.9 -0.00871
61.95 -0.00731
62 -0.00533
62.05 -0.00621
62.1 -0.0066
62.15 -0.00849
62.2 -0.01083
62.25 -0.01216
62.3 -0.01011
62.35 -0.01005
62.4 -0.00722
62.45 -0.00523
62.5 -0.00506
62.55 -0.00377
62.6 -0.00096
62.65 0.00185
62.7 0.00547
62.75 0.00986
62.8 0.01137
62.85 0.0145
62.9 0.01565
62.95 0.01699
63 0.01788
63.05 0.015
63.1 0.01375
63.15 0.0111
63.2 0.00879
63.25 0.00769
63.3 0.00626
63.35 0.00576
63.4 0.00256
63.45 -0.00015
63.5 -0.00331
63.55 -0.00365
63.6 -0.00645
63.65 -0.00633
63.7 -0.00889
63.75 -0.00883
63.8 -0.00646
63.85 -0.00741
63.9 -0.00765
63.95 -0.00618
64 -0.00454
64.05 -0.00172
64.1 0.0001
64.15 -0.00042
64.2 -0.00162
64.25 -0.00187
64.3 0.00061
64.35 0.00475
64.4 0.0078
64.45 0.01075
64.5 0.01138
64.55 0.01333
64.6 0.01129
64.65 0.00745
64.7 0.00597
64.75 0.00716
64.8 0.0051
64.85 0.00287
64.9 0.00265
64.95 0.00037
65 -0.00336
65.05 -0.00653
65.1 -0.00561
65.15 -0.0031
65.2 -0.00404
65.25 -0.00181
65.3 0.00228
65.35 0.00283
65.4 0.0028
65.45 0.00433
65.5 0.00693
65.55 0.00721
65.6 0.00583
65.65 0.00544
65.7 0.00692
65.75 0.00466
65.8 -0.00017
65.85 -0.0023
65.9 -0.00306
65.95 -0.00622
66 -0.00789
66.05 -0.00825
66.1 -0.00496
66.15 -0.00542
66.2 -0.00831
66.25 -0.01124
66.3 -0.00932
66.35 -0.0061
66.4 -0.00194
66.45 0.00266
66.5 0.00279
66.55 0.00304
66.6 -0.00018
66.65 -0.0015
66.7 -0.00201
66.75 -0.00509
66.8 -0.00436
66.85 -0.00636
66.9 -0.00745
66.95 -0.00491
67 -0.0006
67.05 0.00354
67.1 0.00711
67.15 0.00566
67.2 0.00394
67.25 0.00402
67.3 0.00598
67.35 0.00486
67.4 0.00351
67.45 0.00164
67.5 -0.00113
67.55 -0.00545
67.6 -0.00787
67.65 -0.00979
67.7 -0.01161
67.75 -0.01238
67.8 -0.01342
67.85 -0.01327
67.9 -0.0106
67.95 -0.00981
68 -0.00689
68.05 -0.00617
68.1 -0.00547
68.15 -0.00561
68.2 -0.00361
68.25 0.0001
68.3 0.00512
68.35 0.00514
68.4 0.00583
68.45 0.00394
68.5 0.00462
68.55 0.00309
68.6 0.00449
68.65 0.00771
68.7 0.01153
68.75 0.01572
68.8 0.01687
68.85 0.01531
68.9 0.01428
68.95 0.01504
69 0.01595
69.05 0.01263
69.1 0.00761
69.15 0.00436
69.2 0.00003
69.25 -0.00062
69.3 -0.0014
69.35 0.00084
69.4 0.00351
69.45 0.0062
69.5 0.00986
69.55 0.01291
69.6 0.0121
69.65 0.0104
69.7 0.0112
69.75 0.01179
69.8 0.01067
69.85 0.00707
69.9 0.00532
69.95 0.00655
70 0.00471
70.05 0.00377
70.1 0.0022
70.15 0.00153
70.2 -0.00021
70.25 -0.00347
70.3 -0.00554
70.35 -0.00814
70.4 -0.00993
70.45 -0.01083
70.5 -0.00854
70.55 -0.00792
70.6 -0.00987
70.65 -0.01057
70.7 -0.01259
70.75 -0.01129
70.8 -0.00968
70.85 -0.0078
70.9 -0.00772
70.95 -0.00731
71 -0.00879
71.05 -0.0088
71.1 -0.00601
71.15 -0.00645
71.2 -0.00521
71.25 -0.00186
71.3 -0.00067
71.35 -0.00006
71.4 -0.00039
71.45 0.00144
71.5 0.00516
71.55 0.00496
71.6 0.00431
71.65 0.00618
71.7 0.00468
71.75 0.00133
71.8 -0.00373
71.85 -0.00445
71.9 -0.00384
71.95 -0.00638
72 -0.00662
72.05 -0.00874
72.1 -0.00766
72.15 -0.00533
72.2 -0.00625
72.25 -0.00824
72.3 -0.01088
72.35 -0.01303
72.4 -0.01176
72.45 -0.01125
72.5 -0.012
72.55 -0.01333
72.6 -0.01012
72.65 -0.00675
72.7 -0.00369
72.75 -0.00428
72.8 -0.00622
72.85 -0.00797
72.9 -0.0108
72.95 -0.01295
73 -0.01428
73.05 -0.01251
73.1 -0.01069
73.15 -0.00679
73.2 -0.00202
73.25 -0.00149
73.3 -0.00241
73.35 -0.00053
73.4 0.00198
73.45 0.00569
73.5 0.00546
73.55 0.00459
73.6 0.0022
73.65 0.00221
73.7 -0.00097
73.75 -0.00264
73.8 -0.00545
73.85 -0.00453
73.9 -0.00613
73.95 -0.0055
74 -0.00404
74.05 -0.00388
74.1 -0.00082
74.15 -0.00028
74.2 0.00141
74.25 0.00149
74.3 0.00013
74.35 0.00101
74.4 0.00389
74.45 0.00499
74.5 0.00419
74.55 0.00629
74.6 0.00427
74.65 0.00259
74.7 0.00234
74.75 0.00215
74.8 0.00319
74.85 0.00585
74.9 0.00477
74.95 0.003
75 0.00159
75.05 -0.00242
75.1 -0.00258
75.15 -0.00033
75.2 0.00136
75.25 0.00047
75.3 -0.00127
75.35 -0.00224
75.4 -0.00194
75.45 0.00169
75.5 0.00419
75.55 0.00649
75.6 0.00859
75.65 0.01237
75.7 0.01487
75.75 0.01562
75.8 0.01445
75.85 0.01081
75.9 0.00549
75.95 0.00394
76 0.00398
76.05 0.00653
76.1 0.00661
76.15 0.00455
76.2 0.00149
76.25 -0.00301
76.3 -0.0041
76.35 -0.00211
76.4 -0.00361
76.45 -0.00306
76.5 -0.00158
76.55 -0.00243
76.6 -0.00217
76.65 0.00037
76.7 0.00325
76.75 0.00376
76.8 0.00592
76.85 0.00543
76.9 0.00322
76.95 0.00315
77 0.0053
77.05 0.00815
77.1 0.01226
77.15 0.01112
77.2 0.01234
77.25 0.01169
77.3 0.00906
77.35 0.00414
77.4 0.00195
77.45 0.00178
77.5 0.0001
77.55 -0.00357
77.6 -0.00735
77.65 -0.01086
77.7 -0.01422
77.75 -0.01245
77.8 -0.00819
77.85 -0.00784
77.9 -0.00477
77.95 -0.00259
78 -0.00268
78.05 -0.00237
78.1 -0.00165
78.15 0.00194
78.2 0.00334
78.25 0.0021
78.3 0.00237
78.35 0.00066
78.4 0.00077
78.45 0.00163
78.5 -0.00072
78.55 -0.00133
78.6 -0.00087
78.65 -0.00052
78.7 -0.00094
78.75 0.0004
78.8 0.00399
78.85 0.00888
78.9 0.00935
78.95 0.00757
79 0.0052
79.05 0.00569
79.1 0.00784
79.15 0.00608
79.2 0.00132
79.25 -0.00235
79.3 -0.00334
79.35 -0.00164
79.4 0.00147
79.45 0.00179
79.5 0.00254
79.55 0.00365
79.6 0.00385
79.65 0.00638
79.7 0.00543
79.75 0.00541
79.8 0.00239
79.85 0.0001
79.9 -0.0019
79.95 -0.00447
80 -0.00882
80.05 -0.01036
80.1 -0.01108
80.15 -0.01153
80.2 -0.01196
80.25 -0.01217
80.3 -0.01114
80.35 -0.00829
80.4 -0.00705
80.45 -0.00353
80.5 -0.00026
80.55 0.00182
80.6 0.00042
80.65 -0.00356
80.7 -0.00421
80.75 -0.00442
80.8 -0.00294
80.85 -0.00414
80.9 -0.00598
80.95 -0.0074
81 -0.0092
81.05 -0.01181
81.1 -0.01549
81.15 -0.01775
81.2 -0.01483
81.25 -0.01037
81.3 -0.00698
81.35 -0.00185
81.4 0.00356
81.45 0.0095
81.5 0.01177
81.55 0.01191
81.6 0.01251
81.65 0.01193
81.7 0.01308
81.75 0.01107
81.8 0.01082
81.85 0.01209
81.9 0.01067
81.95 0.01048
82 0.01137
82.05 0.01052
82.1 0.0077
82.15 0.00236
82.2 -0.00101
82.25 -0.00204
82.3 -0.00521
82.35 -0.00387
82.4 -0.00494
82.45 -0.00658
82.5 -0.00538
82.55 -0.00571
82.6 -0.00859
82.65 -0.00712
82.7 -0.00669
82.75 -0.00891
82.8 -0.01115
82.85 -0.01251
82.9 -0.01013
82.95 -0.00984
83 -0.00937
83.05 -0.01004
83.1 -0.01166
83.15 -0.01015
83.2 -0.00823
83.25 -0.00793
83.3 -0.0076
83.35 -0.00434
83.4 -0.002
83.45 -0.00261
83.5 -0.0026
83.55 -0.00438
83.6 -0.0056
83.65 -0.00568
83.7 -0.00663
83.75 -0.00743
83.8 -0.00701
83.85 -0.00341
83.9 -0.00131
83.95 -0.00149
84 0.00146
84.05 0.0027
84.1 0.00422
84.15 0.00475
84.2 0.00665
84.25 0.01009
84.3 0.01181
84.35 0.01204
84.4 0.00991
84.45 0.00639
84.5 0.00181
84.55 -0.00353
84.6 -0.00805
84.65 -0.011
84.7 -0.0134
84.75 -0.01347
84.8 -0.00957
84.85 -0.00357
84.9 0.00367
84.95 0.01027
85 0.01148
85.05 0.01146
85.1 0.01158
85.15 0.01177
85.2 0.01184
85.25 0.01285
85.3 0.01531
85.35 0.01439
85.4 0.01455
85.45 0.01475
85.5 0.01536
85.55 0.01381
85.6 0.01444
85.65 0.01501
85.7 0.0122
85.75 0.00851
85.8 0.00547
85.85 0.00497
85.9 0.00591
85.95 0.0033
86 -0.00116
86.05 -0.00246
86.1 -0.0055
86.15 -0.00943
86.2 -0.01025
86.25 -0.00825
86.3 -0.00502
86.35 -0.0002
86.4 0.00411
86.45 0.00917
86.5 0.01319
86.55 0.01471
86.6 0.01132
86.65 0.00859
86.7 0.00425
86.75 0.00208
86.8 -0.0015
86.85 -0.00189
86.9 -0.00228
86.95 -0
87 0.00105
87.05 0.00302
87.1 0.0028
87.15 0.00146
87.2 -0.00044
87.25 -0.0042
87.3 -0.00628
87.35 -0.00825
87.4 -0.00612
87.45 -0.00681
87.5 -0.00858
87.55 -0.00794
87.6 -0.00804
87.65 -0.00747
87.7 -0.00879
87.75 -0.00732
87.8 -0.00383
87.85 -0.0005
87.9 0.00102
87.95 0.00033
88 -0.0013
88.05 -0.00385
88.1 -0.00625
88.15 -0.0095
88.2 -0.00847
88.25 -0.00864
88.3 -0.01092
88.35 -0.00925
88.4 -0.0049
88.45 0.00072
88.5 0.00255
88.55 0.00131
88.6 -0.00023
88.65 -0.00221
88.7 -0.00648
88.75 -0.0059
88.8 -0.00243
88.85 0.00143
88.9 0.00081
88.95 -0.00088
89 -0.00204
89.05 -0.00576
89.1 -0.01065
89.15 -0.01068
89.2 -0.01007
89.25 -0.00952
89.3 -0.00675
89.35 -0.00574
89.4 -0.00759
89.45 -0.00828
89.5 -0.00918
89.55 -0.00931
89.6 -0.00682
89.65 -0.00254
89.7 -0.00192
89.75 -0.00362
89.8 -0.00443
89.85 -0.00608
89.9 -0.00353
89.95 0.00016
90 0.00377
90.05 0.0064
90.1 0.00906
90.15 0.00863
90.2 0.00517
90.25 0.00378
90.3 0.00212
90.35 0.00022
90.4 -0.00331
90.45 -0.0067
90.5 -0.0059
90.55 -0.00289
90.6 -0.00246
90.65 -0.00306
90.7 -0.00196
90.75 -0.0033
90.8 -0.00244
90.85 -0.0032
90.9 -0.00064
90.95 0.00047
91 0.00423
91.05 0.00931
91.1 0.00911
91.15 0.0093
91.2 0.00946
91.25 0.00808
91.3 0.00485
91.35 0.00335
91.4 0.00139
91.45 0.00071
91.5 0.00198
91.55 0.00506
91.6 0.0039
91.65 0.00056
91.7 -0.00097
91.75 0.00107
91.8 0.00336
91.85 0.00321
91.9 0.00128
91.95 -0.00131
92 -0.00486
92.05 -0.00817
92.1 -0.01199
92.15 -0.01558
92.2 -0.01729
92.25 -0.01449
92.3 -0.01101
92.35 -0.00607
92.4 -0.00514
92.45 -0.00606
92.5 -0.00385
92.55 -0.0035
92.6 -0.00277
92.65 -0.00398
92.7 -0.0014
92.75 -0.00185
92.8 -0.00266
92.85 -0.00298
92.9 -0.00312
92.95 -0.00275
93 0.00006
93.05 0.00374
93.1 0.00501
93.15 0.00786
93.2 0.01074
93.25 0.01084
93.3 0.00712
93.35 0.00219
93.4 -0.00322
93.45 -0.00455
93.5 -0.00405
93.55 -0.00235
93.6 0.00084
93.65 0.0049
93.7 0.00759
93.75 0.01129
93.8 0.01489
93.85 0.01292
93.9 0.01197
93.95 0.0102
94 0.0076
94.05 0.00826
94.1 0.00996
94.15 0.0122
94.2 0.01248
94.25 0.01322
94.3 0.01507
94.35 0.01579
94.4 0.01783
94.45 0.01866
94.5 0.01751
94.55 0.01337
94.6 0.00683
94.65 0.00317
94.7 -0.00181
94.75 -0.00803
94.8 -0.01162
94.85 -0.01211
94.9 -0.01312
94.95 -0.01007
95 -0.00434
95.05 0.00121
95.1 0.00702
95.15 0.00705
95.2 0.00542
95.25 0.00314
95.3 0.00147
95.35 0.00066
95.4 0.00301
95.45 0.00321
95.5 0.00514
95.55 0.00604
95.6 0.0034
95.65 0.00288
95.7 0.00195
95.75 -0.00061
95.8 0.00021
95.85 0.00142
95.9 0.00434
95.95 0.00567
96 0.0069
96.05 0.00469
96.1 0.00319
96.15 0.00049
96.2 -0.00028
96.25 -0.00295
96.3 -0.00286
96.35 -0.00576
96.4 -0.00947
96.45 -0.01181
96.5 -0.01296
96.55 -0.01261
96.6 -0.00918
96.65 -0.00835
96.7 -0.00686
96.75 -0.00683
96.8 -0.00664
96.85 -0.00298
96.9 0.00256
96.95 0.00648
97 0.01035
97.05 0.01409
97.1 0.01663
97.15 0.0155
97.2 0.01475
97.25 0.00976
97.3 0.00396
97.35 0.00134
97.4 -0.00148
97.45 -0.00126
97.5 -0.00101
97.55 0.00057
97.6 -0.00172
97.65 -0.00438
97.7 -0.00865
97.75 -0.00838
97.8 -0.00842
97.85 -0.00699
97.9 -0.00267
97.95 0.00306
98 0.00475
98.05 0.00504
98.1 0.00563
98.15 0.00761
98.2 0.00922
98.25 0.01041
98.3 0.01046
98.35 0.00758
98.4 0.00473
98.45 0.00223
98.5 -0.00295
98.55 -0.00587
98.6 -0.00887
98.65 -0.01284
98.7 -0.01356
98.75 -0.01205
98.8 -0.01317
98.85 -0.01166
98.9 -0.01291
98.95 -0.01199
99 -0.00947
99.05 -0.00691
99.1 -0.00192
99.15 0.00133
99.2 0.0015
99.25 0.00414
99.3 0.00589
99.35 0.00674
99.4 0.00956
99.45 0.01325
99.5 0.0161
99.55 0.01652
99.6 0.01465
99.65 0.00901
99.7 0.0037
99.75 -0.00247
99.8 -0.00394
99.85 -0.00565
99.9 -0.00502
99.95 -0.00304
