0 0
0.05 0.00625
0.1 0.01374
0.15 0.02201
0.2 0.02783
0.25 0.03676
0.3 0.0428
0.35 0.04982
0.4 0.05108
0.45 0.0522
0.5 0.05277
0.55 0.0556
0.6 0.05678
0.65 0.05519
0.7 0.04994
0.75 0.0496
0.8 0.05148
0.85 0.0527
0.9 0.05249
0.95 0.05342
1 0.056
1.05 0.05975
1.1 0.0593
1.15 0.05339
1.2 0.04448
1.25 0.04094
1.3 0.03551
1.35 0.02809
1.4 0.02549
1.45 0.02298
1.5 0.02499
1.55 0.03183
1.6 0.04084
1.65 0.04435
1.7 0.04364
1.75 0.0382
1.8 0.03862
1.85 0.04008
1.9 0.04003
1.95 0.04387
2 0.04827
2.05 0.0503
2.1 0.05221
2.15 0.04953
2.2 0.04296
2.25 0.03593
2.3 0.03421
2.35 0.02822
2.4 0.01999
2.45 0.01217
2.5 0.01019
2.55 0.00925
2.6 0.01268
2.65 0.01687
2.7 0.02314
2.75 0.02394
2.8 0.02408
2.85 0.02366
2.9 0.02049
2.95 0.01426
3 0.01123
3.05 0.01452
3.1 0.01324
3.15 0.01513
3.2 0.01478
3.25 0.01404
3.3 0.01734
3.35 0.01928
3.4 0.01828
3.45 0.01343
3.5 0.00671
3.55 0.00667
3.6 0.00635
3.65 0.01012
3.7 0.01296
3.75 0.01101
3.8 0.00678
3.85 0.00507
3.9 0.0096
3.95 0.01306
4 0.01815
4.05 0.02045
4.1 0.02526
4.15 0.02608
4.2 0.0243
4.25 0.02024
4.3 0.0121
4.35 0.00823
4.4 0.00081
4.45 -0.00866
4.5 -0.02135
4.55 -0.02843
4.6 -0.03681
4.65 -0.04817
4.7 -0.06134
4.75 -0.08142
4.8 -0.10458
4.85 -0.13312
4.9 -0.16363
4.95 -0.19936
5 -0.23797
5.05 -0.27844
5.1 -0.31908
5.15 -0.37133
5.2 -0.42852
5.25 -0.49128
5.3 -0.55763
5.35 -0.6242
5.4 -0.69362
5.45 -0.76668
5.5 -0.84186
5.55 -0.9217
5.6 -1.00089
5.65 -1.08415
5.7 -1.16225
5.75 -1.24346
5.8 -1.32362
5.85 -1.39461
5.9 -1.45976
5.95 -1.52092
6 -1.57139
6.05 -1.61602
6.1 -1.65072
6.15 -1.68107
6.2 -1.70929
6.25 -1.72591
6.3 -1.73774
6.35 -1.74277
6.4 -1.73971
6.45 -1.73011
6.5 -1.71305
6.55 -1.68971
6.6 -1.66004
6.65 -1.62089
6.7 -1.57734
6.75 -1.52872
6.8 -1.46988
6.85 -1.40354
6.9 -1.32407
6.95 -1.23173
7 -1.1286
7.05 -1.02068
7.1 -0.9019
7.15 -0.77423
7.2 -0.63993
7.25 -0.49946
7.3 -0.35876
7.35 -0.21396
7.4 -0.06957
7.45 0.07204
7.5 0.20869
7.55 0.34562
7.6 0.48175
7.65 0.61181
7.7 0.73149
7.75 0.83923
7.8 0.93842
7.85 1.03578
7.9 1.12414
7.95 1.20398
8 1.27723
8.05 1.34434
8.1 1.40276
8.15 1.45162
8.2 1.49858
8.25 1.53933
8.3 1.57318
8.35 1.60185
8.4 1.62073
8.45 1.63343
8.5 1.63766
8.55 1.63772
8.6 1.63807
8.65 1.63051
8.7 1.61997
8.75 1.61147
8.8 1.60172
8.85 1.59345
8.9 1.57832
8.95 1.56374
9 1.54371
9.05 1.5235
9.1 1.4983
9.15 1.47277
9.2 1.44226
9.25 1.41327
9.3 1.37976
9.35 1.34481
9.4 1.31155
9.45 1.27637
9.5 1.24138
9.55 1.20868
9.6 1.18393
9.65 1.15812
9.7 1.13511
9.75 1.11365
9.8 1.09154
9.85 1.06499
9.9 1.03365
9.95 1.00062
10 0.97156
10.05 0.94309
10.1 0.91034
10.15 0.88114
10.2 0.85593
10.25 0.83407
10.3 0.80928
10.35 0.78377
10.4 0.75897
10.45 0.73667
10.5 0.71546
10.55 0.68646
10.6 0.65779
10.65 0.63123
10.7 0.60023
10.75 0.56882
10.8 0.54062
10.85 0.50767
10.9 0.47793
10.95 0.44706
11 0.41934
11.05 0.39474
11.1 0.36846
11.15 0.33849
11.2 0.30745
11.25 0.27508
11.3 0.2501
11.35 0.22191
11.4 0.19932
11.45 0.17865
11.5 0.15865
11.55 0.13925
11.6 0.11666
11.65 0.0904
11.7 0.0674
11.75 0.04264
11.8 0.02117
11.85 0.00042
11.9 -0.02211
11.95 -0.04182
12 -0.05679
12.05 -0.06995
12.1 -0.08296
12.15 -0.09261
12.2 -0.10807
12.25 -0.12507
12.3 -0.14422
12.35 -0.16317
12.4 -0.17577
12.45 -0.18865
12.5 -0.19872
12.55 -0.21197
12.6 -0.21978
12.65 -0.22822
12.7 -0.23575
12.75 -0.24364
12.8 -0.24552
12.85 -0.24413
12.9 -0.24595
12.95 -0.2528
13 -0.26212
13.05 -0.26483
13.1 -0.26371
13.15 -0.25982
13.2 -0.25855
13.25 -0.2561
13.3 -0.2584
13.35 -0.26511
13.4 -0.26582
13.45 -0.26992
13.5 -0.27397
13.55 -0.27612
13.6 -0.27335
13.65 -0.27077
13.7 -0.26888
13.75 -0.26942
13.8 -0.26792
13.85 -0.2645
13.9 -0.25758
13.95 -0.25522
14 -0.24845
14.05 -0.24236
14.1 -0.23706
14.15 -0.23264
14.2 -0.2336
14.25 -0.23838
14.3 -0.23646
14.35 -0.23491
14.4 -0.2355
14.45 -0.23789
14.5 -0.23855
14.55 -0.23324
14.6 -0.22566
14.65 -0.22363
14.7 -0.22432
14.75 -0.22617
14.8 -0.226
14.85 -0.22286
14.9 -0.21567
14.95 -0.20832
15 -0.19885
15.05 -0.19403
15.1 -0.18832
15.15 -0.18706
15.2 -0.18896
15.25 -0.18469
15.3 -0.18084
15.35 -0.17774
15.4 -0.17833
15.45 -0.17325
15.5 -0.16402
15.55 -0.15568
15.6 -0.14782
15.65 -0.13875
15.7 -0.1289
15.75 -0.12821
15.8 -0.13058
15.85 -0.13652
15.9 -0.14292
15.95 -0.14595
16 -0.14589
16.05 -0.14086
16.1 -0.13206
16.15 -0.12776
16.2 -0.12888
16.25 -0.13271
16.3 -0.13463
16.35 -0.13191
16.4 -0.12592
16.45 -0.11942
16.5 -0.1171
16.55 -0.11343
16.6 -0.11244
16.65 -0.11322
16.7 -0.11691
16.75 -0.11565
16.8 -0.11459
16.85 -0.11487
16.9 -0.11199
16.95 -0.10872
17 -0.10321
17.05 -0.10041
17.1 -0.1023
17.15 -0.10548
17.2 -0.10563
17.25 -0.10825
17.3 -0.10454
17.35 -0.09832
17.4 -0.09594
17.45 -0.09107
17.5 -0.0831
17.55 -0.08084
17.6 -0.07703
17.65 -0.07812
17.7 -0.07442
17.75 -0.07232
17.8 -0.06756
17.85 -0.06636
17.9 -0.06286
17.95 -0.06089
18 -0.06062
18.05 -0.06436
18.1 -0.07053
18.15 -0.07305
18.2 -0.07428
18.25 -0.073
18.3 -0.07106
18.35 -0.07251
18.4 -0.06912
18.45 -0.06319
18.5 -0.05439
18.55 -0.04952
18.6 -0.05157
18.65 -0.05525
18.7 -0.05525
18.75 -0.05599
18.8 -0.05241
18.85 -0.04764
18.9 -0.04463
18.95 -0.04136
19 -0.04147
19.05 -0.03855
19.1 -0.03999
19.15 -0.03702
19.2 -0.03476
19.25 -0.03628
19.3 -0.0409
19.35 -0.04266
19.4 -0.04593
19.45 -0.04649
19.5 -0.045
19.55 -0.04182
19.6 -0.04146
19.65 -0.03921
19.7 -0.0349
19.75 -0.03455
19.8 -0.03809
19.85 -0.04348
19.9 -0.04733
19.95 -0.04886
20 -0.05077
20.05 -0.04833
20.1 -0.04974
20.15 -0.04919
20.2 -0.05225
20.25 -0.05556
20.3 -0.0516
20.35 -0.04302
20.4 -0.03868
20.45 -0.03438
20.5 -0.02998
20.55 -0.02339
20.6 -0.01615
20.65 -0.01461
20.7 -0.0154
20.75 -0.01657
20.8 -0.02183
20.85 -0.02767
20.9 -0.03138
20.95 -0.03176
21 -0.02813
21.05 -0.0266
21.1 -0.02462
21.15 -0.02015
21.2 -0.018
21.25 -0.01435
21.3 -0.00962
21.35 -0.00698
21.4 -0.00524
21.45 -0.00663
21.5 -0.00483
21.55 -0.008
21.6 -0.0105
21.65 -0.00968
21.7 -0.00892
21.75 -0.0117
21.8 -0.017
21.85 -0.02471
21.9 -0.03373
21.95 -0.03638
22 -0.03642
22.05 -0.0373
22.1 -0.034
22.15 -0.02745
22.2 -0.02351
22.25 -0.02024
22.3 -0.01829
22.35 -0.01913
22.4 -0.02083
22.45 -0.02239
22.5 -0.02617
22.55 -0.03185
22.6 -0.03122
22.65 -0.03014
22.7 -0.02867
22.75 -0.02701
22.8 -0.0207
22.85 -0.01797
22.9 -0.01312
22.95 -0.01114
23 -0.01243
23.05 -0.00923
23.1 -0.009
23.15 -0.01276
23.2 -0.01294
23.25 -0.01648
23.3 -0.01421
23.35 -0.01229
23.4 -0.011
23.45 -0.0132
23.5 -0.01323
23.55 -0.0163
23.6 -0.01772
23.65 -0.02105
23.7 -0.02551
23.75 -0.02735
23.8 -0.02904
23.85 -0.02761
23.9 -0.02987
23.95 -0.02685
24 -0.01997
24.05 -0.01139
24.1 -0.00795
24.15 -0.01069
24.2 -0.01102
24.25 -0.0127
24.3 -0.01266
24.35 -0.01494
24.4 -0.01972
24.45 -0.01874
24.5 -0.01358
24.55 -0.01273
24.6 -0.01609
24.65 -0.01527
24.7 -0.01401
24.75 -0.01086
24.8 -0.00834
24.85 -0.00404
24.9 -0.00184
24.95 0.00105
25 -0.00044
25.05 0.00077
25.1 0.00026
25.15 -0.00347
25.2 -0.00279
25.25 -0.0055
25.3 -0.00365
25.35 -0.00509
25.4 -0.00929
25.45 -0.01211
25.5 -0.01284
25.55 -0.01402
25.6 -0.01316
25.65 -0.0153
25.7 -0.01148
25.75 -0.00412
25.8 0.00391
25.85 0.01119
25.9 0.01241
25.95 0.00896
26 0.00884
26.05 0.01189
26.1 0.0125
26.15 0.01378
26.2 0.00875
26.25 0.00251
26.3 -0.00036
26.35 0.00164
26.4 -0.00081
26.45 -0.0038
26.5 -0.00209
26.55 -0.00356
26.6 -0.00372
26.65 -0.00588
26.7 -0.00905
26.75 -0.01533
26.8 -0.02266
26.85 -0.02448
26.9 -0.02881
26.95 -0.02941
27 -0.02673
27.05 -0.02712
27.1 -0.02102
27.15 -0.01365
27.2 -0.00948
27.25 -0.00981
27.3 -0.01345
27.35 -0.01769
27.4 -0.02194
27.45 -0.02154
27.5 -0.0183
27.55 -0.01451
27.6 -0.01
27.65 -0.01059
27.7 -0.01278
27.75 -0.01703
27.8 -0.01744
27.85 -0.01888
27.9 -0.01768
27.95 -0.02135
28 -0.02427
28.05 -0.02638
28.1 -0.02954
28.15 -0.03136
28.2 -0.03383
28.25 -0.03546
28.3 -0.03739
28.35 -0.04438
28.4 -0.05026
28.45 -0.05866
28.5 -0.0746
28.55 -0.09554
28.6 -0.11916
28.65 -0.14101
28.7 -0.16692
28.75 -0.19621
28.8 -0.22388
28.85 -0.25579
28.9 -0.29075
28.95 -0.31928
29 -0.34613
29.05 -0.37475
29.1 -0.40601
29.15 -0.44263
29.2 -0.48342
29.25 -0.52682
29.3 -0.5733
29.35 -0.6218
29.4 -0.66825
29.45 -0.71038
29.5 -0.75211
29.55 -0.78689
29.6 -0.82403
29.65 -0.85814
29.7 -0.89127
29.75 -0.91971
29.8 -0.94063
29.85 -0.95618
29.9 -0.96457
29.95 -0.97194
30 -0.97616
30.05 -0.96863
30.1 -0.95441
30.15 -0.93284
30.2 -0.89984
30.25 -0.85808
30.3 -0.80896
30.35 -0.75855
30.4 -0.70203
30.45 -0.64167
30.5 -0.57699
30.55 -0.51553
30.6 -0.44953
30.65 -0.38107
30.7 -0.30814
30.75 -0.23844
30.8 -0.17325
30.85 -0.10861
30.9 -0.04135
30.95 0.02088
31 0.07968
31.05 0.14054
31.1 0.19793
31.15 0.24576
31.2 0.28715
31.25 0.33179
31.3 0.36839
31.35 0.40044
31.4 0.42772
31.45 0.45795
31.5 0.48958
31.55 0.51763
31.6 0.5439
31.65 0.56556
31.7 0.58142
31.75 0.59228
31.8 0.60076
31.85 0.61431
31.9 0.62529
31.95 0.64033
32 0.65477
32.05 0.6666
32.1 0.67737
32.15 0.68592
32.2 0.68934
32.25 0.69448
32.3 0.69859
32.35 0.70002
32.4 0.70679
32.45 0.71526
32.5 0.72278
32.55 0.72544
32.6 0.73134
32.65 0.73514
32.7 0.74204
32.75 0.74581
32.8 0.74637
32.85 0.74646
32.9 0.74333
32.95 0.73955
33 0.73163
33.05 0.72009
33.1 0.70941
33.15 0.69305
33.2 0.67356
33.25 0.65742
33.3 0.64663
33.35 0.63811
33.4 0.6245
33.45 0.60544
33.5 0.58282
33.55 0.56612
33.6 0.54703
33.65 0.52936
33.7 0.5144
33.75 0.49432
33.8 0.4727
33.85 0.44981
33.9 0.42513
33.95 0.40066
34 0.37578
34.05 0.35529
34.1 0.33494
34.15 0.31742
34.2 0.30541
34.25 0.29655
34.3 0.28774
34.35 0.27637
34.4 0.26037
34.45 0.24272
34.5 0.22628
34.55 0.21276
34.6 0.19823
34.65 0.18696
34.7 0.17546
34.75 0.16083
34.8 0.14201
34.85 0.12242
34.9 0.10981
34.95 0.10023
35 0.0917
35.05 0.07998
35.1 0.06637
35.15 0.05714
35.2 0.0514
35.25 0.04893
35.3 0.04794
35.35 0.04061
35.4 0.03498
35.45 0.0306
35.5 0.02679
35.55 0.02392
35.6 0.0165
35.65 0.00462
35.7 -0.00801
35.75 -0.02408
35.8 -0.03748
35.85 -0.04764
35.9 -0.05433
35.95 -0.06001
36 -0.06606
36.05 -0.07399
36.1 -0.08143
36.15 -0.08551
36.2 -0.08631
36.25 -0.09135
36.3 -0.0984
36.35 -0.09917
36.4 -0.09866
36.45 -0.09982
36.5 -0.0998
36.55 -0.10475
36.6 -0.10813
36.65 -0.10664
36.7 -0.1023
36.75 -0.10522
36.8 -0.10677
36.85 -0.10735
36.9 -0.1086
36.95 -0.11348
37 -0.12044
37.05 -0.1236
37.1 -0.12998
37.15 -0.13173
37.2 -0.13163
37.25 -0.13226
37.3 -0.12909
37.35 -0.12855
37.4 -0.12602
37.45 -0.11948
37.5 -0.11887
37.55 -0.12152
37.6 -0.12328
37.65 -0.12759
37.7 -0.12897
37.75 -0.13265
37.8 -0.13604
37.85 -0.13705
37.9 -0.1354
37.95 -0.13525
38 -0.13572
38.05 -0.1368
38.1 -0.13124
38.15 -0.12259
38.2 -0.11501
38.25 -0.10904
38.3 -0.10886
38.35 -0.11032
38.4 -0.10587
38.45 -0.10527
38.5 -0.10665
38.55 -0.10647
38.6 -0.10467
38.65 -0.10398
38.7 -0.10363
38.75 -0.10644
38.8 -0.10427
38.85 -0.09835
38.9 -0.09106
38.95 -0.09013
39 -0.08754
39.05 -0.08146
39.1 -0.07577
39.15 -0.07613
39.2 -0.07419
39.25 -0.07579
39.3 -0.08122
39.35 -0.08417
39.4 -0.08674
39.45 -0.08748
39.5 -0.08799
39.55 -0.08729
39.6 -0.08339
39.65 -0.08349
39.7 -0.08106
39.75 -0.07711
39.8 -0.0768
39.85 -0.0735
39.9 -0.07316
39.95 -0.07151
40 -0.07356
40.05 -0.07743
40.1 -0.08025
40.15 -0.07757
40.2 -0.06993
40.25 -0.06183
40.3 -0.05534
40.35 -0.05127
40.4 -0.04799
40.45 -0.04308
40.5 -0.04183
40.55 -0.04162
40.6 -0.03768
40.65 -0.03184
40.7 -0.03339
40.75 -0.03835
40.8 -0.04304
40.85 -0.04649
40.9 -0.05275
40.95 -0.05446
41 -0.05285
41.05 -0.05027
41.1 -0.05224
41.15 -0.05435
41.2 -0.05817
41.25 -0.05503
41.3 -0.04872
41.35 -0.04286
41.4 -0.03582
41.45 -0.03589
41.5 -0.03344
41.55 -0.03043
41.6 -0.02435
41.65 -0.02548
41.7 -0.02885
41.75 -0.02705
41.8 -0.03047
41.85 -0.03256
41.9 -0.03726
41.95 -0.03656
42 -0.03465
42.05 -0.03429
42.1 -0.03574
42.15 -0.03868
42.2 -0.04344
42.25 -0.04858
42.3 -0.05017
42.35 -0.05223
42.4 -0.05036
42.45 -0.05012
42.5 -0.04659
42.55 -0.03994
42.6 -0.03028
42.65 -0.02537
42.7 -0.02369
42.75 -0.02698
42.8 -0.02428
42.85 -0.0266
42.9 -0.03011
42.95 -0.03445
43 -0.03866
43.05 -0.04309
43.1 -0.04269
43.15 -0.04193
43.2 -0.04016
43.25 -0.03896
43.3 -0.03729
43.35 -0.03659
43.4 -0.03662
43.45 -0.03137
43.5 -0.0243
43.55 -0.01716
43.6 -0.00976
43.65 -0.00431
43.7 -0.00344
43.75 -0.00135
43.8 -0.00248
43.85 -0.00727
43.9 -0.01448
43.95 -0.01829
44 -0.02403
44.05 -0.03082
44.1 -0.03509
44.15 -0.03414
44.2 -0.02748
44.25 -0.02338
44.3 -0.02281
44.35 -0.02411
44.4 -0.02667
44.45 -0.02953
44.5 -0.0308
44.55 -0.03261
44.6 -0.02896
44.65 -0.02437
44.7 -0.02025
44.75 -0.01527
44.8 -0.00801
44.85 -0.00697
44.9 -0.00566
44.95 -0.00105
45 -0.00273
45.05 -0.00361
45.1 -0.00246
45.15 -0.00227
45.2 0.00016
45.25 -0.00177
45.3 -0.00821
45.35 -0.01429
45.4 -0.01362
45.45 -0.0116
45.5 -0.00538
45.55 0.00098
45.6 0.00877
45.65 0.01212
45.7 0.00998
45.75 0.00742
45.8 0.00202
45.85 -0.00118
45.9 0.00029
45.95 0.00359
46 0.00197
46.05 0.00128
46.1 0.00316
46.15 0.00071
46.2 -0.00246
46.25 -0.00423
46.3 -0.00803
46.35 -0.00677
46.4 -0.01067
46.45 -0.01058
46.5 -0.01257
46.55 -0.01476
46.6 -0.01667
46.65 -0.01272
46.7 -0.00746
46.75 -0.00695
46.8 -0.00341
46.85 0.00243
46.9 0.00602
46.95 0.00873
47 0.0074
47.05 0.00555
47.1 -0.00074
47.15 -0.00535
47.2 -0.00674
47.25 -0.00462
47.3 -0.00753
47.35 -0.00975
47.4 -0.00951
47.45 -0.00771
47.5 -0.00473
47.55 -0.00465
47.6 -0.00722
47.65 -0.01194
47.7 -0.0119
47.75 -0.01432
47.8 -0.01643
47.85 -0.01725
47.9 -0.01436
47.95 -0.01078
48 -0.00903
48.05 -0.00782
48.1 -0.00946
48.15 -0.00807
48.2 -0.00458
48.25 0.00213
48.3 0.01032
48.35 0.01105
48.4 0.01111
48.45 0.01123
48.5 0.00656
48.55 0.00441
48.6 0.00685
48.65 0.00513
48.7 0.00387
48.75 0.00123
48.8 -0.00256
48.85 -0.00647
48.9 -0.00505
48.95 -0.00187
49 -0.00168
49.05 -0.00381
49.1 -0.00105
49.15 -0.0025
49.2 0.00054
49.25 -0.00264
49.3 -0.00188
49.35 -0.00308
49.4 -0.00207
49.45 0.0023
49.5 0.00673
49.55 0.01147
49.6 0.01158
49.65 0.00559
49.7 0.00238
49.75 -0.00041
49.8 0.00161
49.85 0.00053
49.9 -0.00286
49.95 -0.00827
50 -0.01217
50.05 -0.01348
50.1 -0.01751
50.15 -0.0185
50.2 -0.02087
50.25 -0.02034
50.3 -0.01817
50.35 -0.01103
50.4 -0.00825
50.45 -0.00943
50.5 -0.00767
50.55 -0.01009
50.6 -0.0072
50.65 -0.00499
50.7 -0.00318
50.75 -0.00078
50.8 -0.00171
50.85 -0.00356
50.9 -0.00895
50.95 -0.01377
51 -0.0142
51.05 -0.01059
51.1 -0.01207
51.15 -0.0116
51.2 -0.01431
51.25 -0.01923
51.3 -0.02002
51.35 -0.01943
51.4 -0.0148
51.45 -0.00613
51.5 0.00123
51.55 0.00868
51.6 0.01579
51.65 0.01831
51.7 0.02058
51.75 0.02095
51.8 0.01546
51.85 0.01393
51.9 0.01344
51.95 0.01453
52 0.01567
52.05 0.0123
52.1 0.00799
52.15 0.00072
52.2 -0.00075
52.25 -0.00165
52.3 -0.00105
52.35 -0.0011
52.4 -0.0017
52.45 -0.00166
52.5 -0.00387
52.55 -0.00679
52.6 -0.00855
52.65 -0.01386
52.7 -0.01211
52.75 -0.00864
52.8 -0.00869
52.85 -0.01167
52.9 -0.01384
52.95 -0.01133
53 -0.01235
53.05 -0.01631
53.1 -0.02099
53.15 -0.02699
53.2 -0.03127
53.25 -0.03238
53.3 -0.0321
53.35 -0.03169
53.4 -0.0319
53.45 -0.02636
53.5 -0.02121
53.55 -0.01416
53.6 -0.00418
53.65 -0.00048
53.7 -0.00202
53.75 -0.00508
53.8 -0.00826
53.85 -0.01177
53.9 -0.01435
53.95 -0.01513
54 -0.01395
54.05 -0.01445
54.1 -0.01207
54.15 -0.01277
54.2 -0.01431
54.25 -0.0122
54.3 -0.01346
54.35 -0.01029
54.4 -0.00973
54.45 -0.00585
54.5 -0.00067
54.55 0.00459
54.6 0.00587
54.65 0.00789
54.7 0.01083
54.75 0.01544
54.8 0.01988
54.85 0.02387
54.9 0.02024
54.95 0.01497
55 0.01316
55.05 0.00781
55.1 0.00127
55.15 -0.00151
55.2 -0.00294
55.25 -0.00139
55.3 -0.00093
55.35 0.00117
55.4 0.00548
55.45 0.01105
55.5 0.01003
55.55 0.00933
55.6 0.00994
55.65 0.0134
55.7 0.01273
55.75 0.01169
55.8 0.00824
55.85 0.00669
55.9 0.00224
55.95 -0.00025
56 -0.00156
56.05 -0.00053
56.1 0.00039
56.15 0.00256
56.2 0.00321
56.25 0.00043
56.3 -0.00048
56.35 0.00148
56.4 0.00494
56.45 0.00473
56.5 0.00491
56.55 0.00527
56.6 0.00122
56.65 0.00095
56.7 -0.00258
56.75 -0.00504
56.8 -0.00426
56.85 -0.00038
56.9 0.00267
56.95 0.00639
57 0.00999
57.05 0.01255
57.1 0.01557
57.15 0.02022
57.2 0.01979
57.25 0.0212
57.3 0.0215
57.35 0.02213
57.4 0.02225
57.45 0.01688
57.5 0.01092
57.55 0.00428
57.6 0.00003
57.65 -0.00203
57.7 -0.00287
57.75 0.00083
57.8 0.00379
57.85 0.00928
57.9 0.01407
57.95 0.01781
58 0.02237
58.05 0.02274
58.1 0.02314
58.15 0.01836
58.2 0.01053
58.25 0.00859
58.3 0.00887
58.35 0.00397
58.4 -0.00044
58.45 -0.00039
58.5 0.00365
58.55 0.00426
58.6 0.00277
58.65 -0.00139
58.7 -0.00303
58.75 -0.00318
58.8 -0.00764
58.85 -0.01425
58.9 -0.01862
58.95 -0.01886
59 -0.01436
59.05 -0.00826
59.1 -0.00221
59.15 0.00364
59.2 0.00387
59.25 0.00712
59.3 0.01149
59.35 0.0111
59.4 0.01022
59.45 0.01079
59.5 0.01163
59.55 0.015
59.6 0.01359
59.65 0.00923
59.7 0.00464
59.75 -0.0026
59.8 -0.00795
59.85 -0.01478
59.9 -0.02124
59.95 -0.0199
60 -0.02034
60.05 -0.0237
60.1 -0.02222
60.15 -0.02346
60.2 -0.02577
60.25 -0.02098
60.3 -0.0126
60.35 -0.00286
60.4 -0.00128
60.45 -0.00026
60.5 -0.00149
60.55 -0.00342
60.6 -0.00217
60.65 -0.0007
60.7 0.00094
60.75 0.00495
60.8 0.00601
60.85 0.00938
60.9 0.01149
60.95 0.01276
61 0.01039
61.05 0.00334
61.1 -0.00233
61.15 -0.00463
61.2 -0.00984
61.25 -0.01584
61.3 -0.01686
61.35 -0.02075
61.4 -0.02537
61.45 -0.02716
61.5 -0.02808
61.55 -0.02627
61.6 -0.02343
61.65 -0.02225
61.7 -0.01577
61.75 -0.00674
61.8 -0.0049
61.85 -0.00408
61.9 -0.00555
61.95 -0.00432
62 -0.00316
62.05 -0.00013
62.1 0.00566
62.15 0.00718
62.2 0.01166
62.25 0.01499
62.3 0.01176
62.35 0.0075
62.4 0.00072
62.45 0.00029
62.5 -0.00171
62.55 -0.0025
62.6 -0.00349
62.65 -0.0083
62.7 -0.00804
62.75 -0.01059
62.8 -0.00774
62.85 -0.00142
62.9 -0.00026
62.95 0.00433
63 0.00428
63.05 0.00816
63.1 0.00952
63.15 0.00824
63.2 0.01061
63.25 0.01469
63.3 0.01621
63.35 0.01578
63.4 0.01823
63.45 0.01694
63.5 0.01676
63.55 0.01311
63.6 0.01237
63.65 0.01091
63.7 0.00857
63.75 0.00196
63.8 -0.00558
63.85 -0.00806
63.9 -0.00637
63.95 -0.00793
64 -0.00878
64.05 -0.01067
64.1 -0.01462
64.15 -0.01708
64.2 -0.02129
64.25 -0.02386
64.3 -0.02024
64.35 -0.01914
64.4 -0.01998
64.45 -0.01967
64.5 -0.01365
64.55 -0.00554
64.6 0.00225
64.65 0.0029
64.7 0.00101
64.75 -0.00353
64.8 -0.00518
64.85 -0.00858
64.9 -0.01213
64.95 -0.01675
65 -0.02071
65.05 -0.01743
65.1 -0.00944
65.15 -0.00482
65.2 -0.00338
65.25 -0.00497
65.3 -0.0062
65.35 -0.003
65.4 -0.00342
65.45 -0.00721
65.5 -0.00795
65.55 -0.0111
65.6 -0.01625
65.65 -0.01456
65.7 -0.01287
65.75 -0.01161
65.8 -0.00534
65.85 0.00058
65.9 0.00772
65.95 0.01293
66 0.01102
66.05 0.00537
66.1 -0.00149
66.15 -0.00157
66.2 0.00191
66.25 0.00747
66.3 0.01238
66.35 0.01108
66.4 0.01141
66.45 0.01289
66.5 0.0166
66.55 0.01402
66.6 0.00932
66.65 0.00885
66.7 0.00745
66.75 0.00161
66.8 0.00007
66.85 -0.00011
66.9 0.00274
66.95 0.00181
67 0.00206
67.05 0.0054
67.1 0.00326
67.15 0.00629
67.2 0.00965
67.25 0.0082
67.3 0.00801
67.35 0.01191
67.4 0.01439
67.45 0.01673
67.5 0.0214
67.55 0.01808
67.6 0.01075
67.65 0.00919
67.7 0.00707
67.75 0.00538
67.8 0.00511
67.85 0.00009
67.9 -0.00527
67.95 -0.00639
68 -0.00262
68.05 0.0041
68.1 0.00922
68.15 0.00685
68.2 0.00449
68.25 -0.00006
68.3 -0.00524
68.35 -0.00851
68.4 -0.00584
68.45 -0.00128
68.5 -0.0018
68.55 0.00083
68.6 -0.00065
68.65 -0.00276
68.7 -0.00196
68.75 0.00157
68.8 0.00256
68.85 -0.00182
68.9 -0.00425
68.95 -0.00361
69 -0.0073
69.05 -0.00714
69.1 -0.00263
69.15 -0.00405
69.2 -0.00173
69.25 0.00019
69.3 -0.00102
69.35 0.00165
69.4 -0.00136
69.45 -0.00758
69.5 -0.00753
69.55 -0.00754
69.6 -0.01153
69.65 -0.0142
69.7 -0.01944
69.75 -0.01739
69.8 -0.01569
69.85 -0.01419
69.9 -0.00793
69.95 -0.00306
70 0.0009
70.05 0.00631
70.1 0.00832
70.15 0.00882
70.2 0.00774
70.25 0.01074
70.3 0.01529
70.35 0.01605
70.4 0.01341
70.45 0.01178
70.5 0.00805
70.55 0.00844
70.6 0.00783
70.65 0.00793
70.7 0.0032
70.75 -0.00037
70.8 0.00014
70.85 0.00179
70.9 0.00161
70.95 0.00192
71 0.00394
71.05 0.00222
71.1 -0.00101
71.15 -0.0071
71.2 -0.0107
71.25 -0.01014
71.3 -0.00762
71.35 -0.00099
71.4 0.00006
71.45 0.00523
71.5 0.00829
71.55 0.01131
71.6 0.00909
71.65 0.00936
71.7 0.00722
71.75 0.00717
71.8 0.0036
71.85 0.003
71.9 0.00143
71.95 -0.00358
72 -0.00829
72.05 -0.00634
72.1 -0.00517
72.15 -0.00014
72.2 0.00276
72.25 0.00032
72.3 -0.00111
72.35 -0.00596
72.4 -0.00703
72.45 -0.00491
72.5 -0.00628
72.55 -0.00365
72.6 0.00063
72.65 0.00384
72.7 0.00633
72.75 0.00273
72.8 0.00168
72.85 -0.00102
72.9 -0.00062
72.95 -0.0024
73 -0.00544
73.05 -0.00858
73.1 -0.01341
73.15 -0.01658
73.2 -0.0158
73.25 -0.01864
73.3 -0.02286
73.35 -0.02652
73.4 -0.02365
73.45 -0.01608
73.5 -0.01164
73.55 -0.00523
73.6 0.00021
73.65 0.00407
73.7 0.00511
73.75 0.00827
73.8 0.00646
73.85 0.00303
73.9 -0.00404
73.95 -0.01044
74 -0.00911
74.05 -0.00316
74.1 0.00046
74.15 0.00328
74.2 0.00035
74.25 -0.00241
74.3 -0.00679
74.35 -0.00466
74.4 -0.00692
74.45 -0.00365
74.5 -0.00304
74.55 0.00076
74.6 0.00281
74.65 0.00045
74.7 -0.00197
74.75 -0.00549
74.8 -0.00475
74.85 -0.00161
74.9 0.00328
74.95 0.00785
75 0.00748
75.05 0.00382
75.1 0.00251
75.15 -0.00205
75.2 -0.00451
75.25 -0.00243
75.3 0.00103
75.35 0.00432
75.4 0.00922
75.45 0.01074
75.5 0.00685
75.55 0.00062
75.6 -0.00463
75.65 -0.01003
75.7 -0.01706
75.75 -0.01636
75.8 -0.01771
75.85 -0.0171
75.9 -0.01458
75.95 -0.0095
76 -0.00283
76.05 0.00366
76.1 0.00367
76.15 0.00637
76.2 0.0104
76.25 0.01004
76.3 0.00886
76.35 0.00348
76.4 0.00394
76.45 0.00631
76.5 0.01043
76.55 0.00869
76.6 0.0071
76.65 0.00583
76.7 0.00662
76.75 0.00364
76.8 0.00484
76.85 0.00937
76.9 0.0114
76.95 0.01253
77 0.01476
77.05 0.01837
77.1 0.02148
77.15 0.01754
77.2 0.00986
77.25 0.00663
77.3 0.00267
77.35 0.00396
77.4 0.00599
77.45 0.00548
77.5 0.00021
77.55 -0.00315
77.6 -0.00713
77.65 -0.01061
77.7 -0.01275
77.75 -0.01578
77.8 -0.01883
77.85 -0.02379
77.9 -0.02814
77.95 -0.02819
78 -0.02636
78.05 -0.02262
78.1 -0.0228
78.15 -0.02515
78.2 -0.02209
78.25 -0.01382
78.3 -0.00586
78.35 -0.00366
78.4 -0.00511
78.45 -0.00688
78.5 -0.00299
78.55 -0.00289
78.6 -0.00412
78.65 -0.00607
78.7 -0.0092
78.75 -0.00579
78.8 0.00017
78.85 0.00567
78.9 0.00924
78.95 0.01363
79 0.01421
79.05 0.01774
79.1 0.02226
79.15 0.02069
79.2 0.01901
79.25 0.01807
79.3 0.01658
79.35 0.01601
79.4 0.01283
79.45 0.00846
79.5 0.00277
79.55 -0.00034
79.6 -0.00027
79.65 -0.00002
79.7 -0.00287
79.75 -0.00787
79.8 -0.0074
79.85 -0.00287
79.9 0.00445
79.95 0.00621
80 0.00532
80.05 0.00018
80.1 -0.00584
80.15 -0.00758
80.2 -0.01163
80.25 -0.01315
80.3 -0.01004
80.35 -0.00883
80.4 -0.0084
80.45 -0.00468
80.5 -0.00367
80.55 -0.00091
80.6 0.00426
80.65 0.00447
80.7 0.00532
80.75 0.0014
80.8 -0.00227
80.85 -0.00666
80.9 -0.01294
80.95 -0.01654
81 -0.0217
81.05 -0.02165
81.1 -0.02208
81.15 -0.01788
81.2 -0.00991
81.25 -0.00286
81.3 0.00593
81.35 0.00747
81.4 0.01088
81.45 0.01193
81.5 0.01191
81.55 0.00823
81.6 0.00762
81.65 0.01135
81.7 0.01253
81.75 0.01306
81.8 0.01484
81.85 0.01566
81.9 0.01331
81.95 0.00831
82 0.0012
82.05 -0.00802
82.1 -0.01196
82.15 -0.01255
82.2 -0.01176
82.25 -0.01117
82.3 -0.00925
82.35 -0.0063
82.4 -0.00318
82.45 -0.00143
82.5 0.00076
82.55 0.00311
82.6 0.00876
82.65 0.0113
82.7 0.00827
82.75 0.00132
82.8 -0.00134
82.85 0.00137
82.9 0.00455
82.95 0.00929
83 0.01081
83.05 0.00926
83.1 0.01074
83.15 0.01201
83.2 0.00819
83.25 0.005
83.3 0.001
83.35 0.00144
83.4 0.00184
83.45 0.00312
83.5 0.00382
83.55 0.00614
83.6 0.00692
83.65 0.00729
83.7 0.00453
83.75 0.00594
83.8 0.007
83.85 0.005
83.9 0.00534
83.95 0.00686
84 0.00364
84.05 0.00178
84.1 0.00386
84.15 0.00845
84.2 0.01364
84.25 0.01803
84.3 0.01934
84.35 0.0197
84.4 0.01824
84.45 0.01108
84.5 0.00064
84.55 -0.00457
84.6 -0.00512
84.65 -0.00507
84.7 -0.00533
84.75 -0.00207
84.8 -0.00357
84.85 -0.00685
84.9 -0.0089
84.95 -0.0068
85 -0.00521
85.05 -0.00565
85.1 -0.0023
85.15 -0.00148
85.2 -0.00178
85.25 -0.00004
85.3 0.00279
85.35 0.00278
85.4 0.00277
85.45 0.00464
85.5 0.00843
85.55 0.0061
85.6 -0.00003
85.65 -0.00476
85.7 -0.00351
85.75 -0.00477
85.8 -0.00871
85.85 -0.01308
85.9 -0.01709
85.95 -0.01936
86 -0.01665
86.05 -0.01002
86.1 -0.00825
86.15 -0.00952
86.2 -0.0108
86.25 -0.00887
86.3 -0.00602
86.35 -0.0004
86.4 0.00763
86.45 0.0106
86.5 0.01032
86.55 0.01213
86.6 0.01488
86.65 0.01089
86.7 0.00766
86.75 0.00029
86.8 -0.00334
86.85 -0.00368
86.9 -0.0046
86.95 -0.00541
87 -0.00337
87.05 -0.0014
87.1 0.00158
87.15 0.00734
87.2 0.01294
87.25 0.0108
87.3 0.00897
87.35 0.00257
87.4 -0.00572
87.45 -0.01524
87.5 -0.01731
87.55 -0.02146
87.6 -0.02253
87.65 -0.0193
87.7 -0.01212
87.75 -0.00348
87.8 0.0008
87.85 0.00387
87.9 0.00306
87.95 0.00397
88 0.00246
88.05 0.00285
88.1 0.00344
88.15 0.00572
88.2 0.00403
88.25 -0.00169
88.3 -0.00282
88.35 -0.0078
88.4 -0.00889
88.45 -0.00569
88.5 -0.00677
88.55 -0.00449
88.6 -0.00536
88.65 -0.00559
88.7 -0.00365
88.75 -0.00004
88.8 0.00193
88.85 0.00293
88.9 -0.00073
88.95 -0.00625
89 -0.00677
89.05 -0.00747
89.1 -0.01037
89.15 -0.01499
89.2 -0.02059
89.25 -0.0212
89.3 -0.02095
89.35 -0.02131
89.4 -0.01524
89.45 -0.00998
89.5 -0.00833
89.55 -0.00326
89.6 -0.00071
89.65 0.00057
89.7 0.00527
89.75 0.0033
89.8 -0.00236
89.85 -0.00975
89.9 -0.01603
89.95 -0.01839
90 -0.01928
90.05 -0.02258
90.1 -0.02139
90.15 -0.01615
90.2 -0.00738
90.25 0.00022
90.3 0.00695
90.35 0.01023
90.4 0.01632
90.45 0.01775
90.5 0.01516
90.55 0.01505
90.6 0.01471
90.65 0.01017
90.7 0.00358
90.75 0.00097
90.8 -0.00023
90.85 0.00037
90.9 0.00244
90.95 0.00376
91 0.00337
91.05 0.00451
91.1 0.00672
91.15 0.00399
91.2 0.00132
91.25 -0.00413
91.3 -0.01016
91.35 -0.01104
91.4 -0.01519
91.45 -0.01235
91.5 -0.00556
91.55 0.00321
91.6 0.0107
91.65 0.01233
91.7 0.01323
91.75 0.01553
91.8 0.01989
91.85 0.02476
91.9 0.0219
91.95 0.02212
92 0.02395
92.05 0.01847
92.1 0.01474
92.15 0.00694
92.2 0.00583
92.25 0.00703
92.3 0.00912
92.35 0.01196
92.4 0.01467
92.45 0.01031
92.5 0.00324
92.55 0.00089
92.6 0.00044
92.65 -0.00464
92.7 -0.0043
92.75 -0.00313
92.8 -0.00396
92.85 -0.00523
92.9 -0.00115
92.95 -0.00261
93 -0.00169
93.05 0.00088
93.1 -0.00196
93.15 -0.00031
93.2 0.00157
93.25 0.00418
93.3 0.00792
93.35 0.0076
93.4 0.00463
93.45 0.00624
93.5 0.00328
93.55 0.00137
93.6 0.00096
93.65 -0.00046
93.7 0.00258
93.75 0.00147
93.8 -0.00124
93.85 -0.00643
93.9 -0.00977
93.95 -0.0099
94 -0.00526
94.05 0.00063
94.1 0.00263
94.15 0.00033
94.2 0.00212
94.25 0.00615
94.3 0.01192
94.35 0.01825
94.4 0.02086
94.45 0.023
94.5 0.0256
94.55 0.02136
94.6 0.01246
94.65 0.00905
94.7 0.0054
94.75 0.00026
94.8 -0.00628
94.85 -0.00834
94.9 -0.00933
94.95 -0.01087
95 -0.00962
95.05 -0.01193
95.1 -0.01206
95.15 -0.01473
95.2 -0.01854
95.25 -0.02376
95.3 -0.02245
95.35 -0.01685
95.4 -0.01561
95.45 -0.01401
95.5 -0.01001
95.55 -0.00505
95.6 0.00123
95.65 0.00573
95.7 0.01225
95.75 0.01853
95.8 0.02417
95.85 0.02517
95.9 0.02123
95.95 0.01993
96 0.01467
96.05 0.01322
96.1 0.01178
96.15 0.01081
96.2 0.00693
96.25 0.00696
96.3 0.01065
96.35 0.0134
96.4 0.01212
96.45 0.00872
96.5 0.00264
96.55 -0.0033
96.6 -0.00599
96.65 -0.0037
96.7 -0.00452
96.75 -0.00895
96.8 -0.00899
96.85 -0.01074
96.9 -0.00838
96.95 -0.00787
97 -0.00763
97.05 -0.00879
97.1 -0.00851
97.15 -0.01078
97.2 -0.01306
97.25 -0.01305
97.3 -0.01515
97.35 -0.01586
97.4 -0.01274
97.45 -0.01352
97.5 -0.0093
97.55 -0.00162
97.6 0.0049
97.65 0.00818
97.7 0.01255
97.75 0.01145
97.8 0.01207
97.85 0.01364
97.9 0.01155
97.95 0.01118
98 0.00798
98.05 0.00103
98.1 -0.00413
98.15 -0.00272
98.2 0.00189
98.25 0.0035
98.3 0.00422
98.35 0.00584
98.4 0.0095
98.45 0.01159
98.5 0.01332
98.55 0.00821
98.6 0.00532
98.65 -0.00097
98.7 -0.00723
98.75 -0.00902
98.8 -0.01151
98.85 -0.00948
98.9 -0.01001
98.95 -0.00868
99 -0.01127
99.05 -0.01505
99.1 -0.01931
99.15 -0.01801
99.2 -0.01186
99.25 -0.00628
99.3 0.00217
99.35 0.01078
99.4 0.01487
99.45 0.01485
99.5 0.01766
99.55 0.01448
99.6 0.01332
99.65 0.01065
99.7 0.00387
99.75 -0.00021
99.8 -0.00696
99.85 -0.01416
99.9 -0.01988
99.95 -0.01822
