0 0
0.05 0.00603
0.1 0.01383
0.15 0.02187
0.2 0.03095
0.25 0.03436
0.3 0.03624
0.35 0.03669
0.4 0.04109
0.45 0.0412
0.5 0.04618
0.55 0.0522
0.6 0.06045
0.65 0.0622
0.7 0.0647
0.75 0.06514
0.8 0.05947
0.85 0.05287
0.9 0.04607
0.95 0.03966
1 0.03892
1.05 0.04051
1.1 0.04326
1.15 0.04887
1.2 0.05221
1.25 0.05285
1.3 0.05155
1.35 0.04607
1.4 0.03757
1.45 0.02874
1.5 0.02824
1.55 0.02767
1.6 0.02854
1.65 0.02708
1.7 0.03003
1.75 0.03578
1.8 0.0388
1.85 0.04305
1.9 0.04471
1.95 0.0465
2 0.04784
2.05 0.04464
2.1 0.04053
2.15 0.03364
2.2 0.03086
2.25 0.02741
2.3 0.02488
2.35 0.02115
2.4 0.02118
2.45 0.01962
2.5 0.01812
2.55 0.02191
2.6 0.02744
2.65 0.03432
2.7 0.04152
2.75 0.04097
2.8 0.04135
2.85 0.04319
2.9 0.04678
2.95 0.04866
3 0.04747
3.05 0.04678
3.1 0.04814
3.15 0.04908
3.2 0.04414
3.25 0.04066
3.3 0.03702
3.35 0.03441
3.4 0.03255
3.45 0.02794
3.5 0.01962
3.55 0.01438
3.6 0.01362
3.65 0.00934
3.7 0.00571
3.75 0.00551
3.8 0.00435
3.85 0.00715
3.9 0.01078
3.95 0.00868
4 0.00923
4.05 0.01178
4.1 0.01708
4.15 0.01845
4.2 0.01407
4.25 0.00843
4.3 0.00388
4.35 -0.00074
4.4 -0.00911
4.45 -0.01805
4.5 -0.02775
4.55 -0.0408
4.6 -0.0563
4.65 -0.07209
4.7 -0.0892
4.75 -0.10616
4.8 -0.12578
4.85 -0.14307
4.9 -0.16605
4.95 -0.19092
5 -0.22212
5.05 -0.26002
5.1 -0.30724
5.15 -0.35628
5.2 -0.41404
5.25 -0.47744
5.3 -0.54807
5.35 -0.62689
5.4 -0.70349
5.45 -0.77956
5.5 -0.85953
5.55 -0.94295
5.6 -1.02662
5.65 -1.10958
5.7 -1.1941
5.75 -1.26938
5.8 -1.34164
5.85 -1.40814
5.9 -1.47184
5.95 -1.53297
6 -1.59004
6.05 -1.64054
6.1 -1.68584
6.15 -1.72402
6.2 -1.75242
6.25 -1.76782
6.3 -1.77612
6.35 -1.77876
6.4 -1.77444
6.45 -1.76129
6.5 -1.74193
6.55 -1.71932
6.6 -1.68654
6.65 -1.64607
6.7 -1.60059
6.75 -1.54437
6.8 -1.48201
6.85 -1.40446
6.9 -1.31465
6.95 -1.21938
7 -1.11403
7.05 -1.00288
7.1 -0.87937
7.15 -0.7508
7.2 -0.61898
7.25 -0.48125
7.3 -0.33497
7.35 -0.18534
7.4 -0.03918
7.45 0.1006
7.5 0.24248
7.55 0.38318
7.6 0.52056
7.65 0.65225
7.7 0.77353
7.75 0.8863
7.8 0.98837
7.85 1.08403
7.9 1.17028
7.95 1.24796
8 1.31213
8.05 1.36427
8.1 1.41269
8.15 1.45264
8.2 1.49143
8.25 1.52047
8.3 1.53933
8.35 1.55575
8.4 1.56611
8.45 1.57136
8.5 1.57139
8.55 1.56904
8.6 1.56639
8.65 1.56071
8.7 1.55683
8.75 1.5513
8.8 1.54029
8.85 1.52783
8.9 1.51807
8.95 1.50303
9 1.48311
9.05 1.46565
9.1 1.44375
9.15 1.42277
9.2 1.40228
9.25 1.37852
9.3 1.35482
9.35 1.32872
9.4 1.30283
9.45 1.27348
9.5 1.24939
9.55 1.22173
9.6 1.199
9.65 1.17999
9.7 1.15451
9.75 1.1248
9.8 1.09282
9.85 1.06224
9.9 1.03763
9.95 1.01673
10 0.9931
10.05 0.96828
10.1 0.94629
10.15 0.92101
10.2 0.8984
10.25 0.87637
10.3 0.84983
10.35 0.82281
10.4 0.79567
10.45 0.76164
10.5 0.72386
10.55 0.68452
10.6 0.65102
10.65 0.61738
10.7 0.58411
10.75 0.55137
10.8 0.51988
10.85 0.48715
10.9 0.45604
10.95 0.4292
11 0.4023
11.05 0.37981
11.1 0.35561
11.15 0.33151
11.2 0.30954
11.25 0.28835
11.3 0.26755
11.35 0.24227
11.4 0.21806
11.45 0.19685
11.5 0.17777
11.55 0.1589
11.6 0.1382
11.65 0.11699
11.7 0.09791
11.75 0.07195
11.8 0.04684
11.85 0.02569
11.9 0.00789
11.95 -0.00839
12 -0.03075
12.05 -0.05252
12.1 -0.07009
12.15 -0.08592
12.2 -0.10095
12.25 -0.11481
12.3 -0.12701
12.35 -0.14237
12.4 -0.15274
12.45 -0.16146
12.5 -0.17141
12.55 -0.17955
12.6 -0.18488
12.65 -0.19434
12.7 -0.20142
12.75 -0.20935
12.8 -0.21308
12.85 -0.21459
12.9 -0.2203
12.95 -0.22451
13 -0.2327
13.05 -0.24056
13.1 -0.2449
13.15 -0.25086
13.2 -0.25223
13.25 -0.25377
13.3 -0.25838
13.35 -0.26399
13.4 -0.26325
13.45 -0.26611
13.5 -0.26459
13.55 -0.26167
13.6 -0.25852
13.65 -0.25418
13.7 -0.25613
13.75 -0.25886
13.8 -0.25919
13.85 -0.25413
13.9 -0.25192
13.95 -0.25202
14 -0.25091
14.05 -0.2524
14.1 -0.25415
14.15 -0.25259
14.2 -0.25401
14.25 -0.25325
14.3 -0.25063
14.35 -0.24407
14.4 -0.24242
14.45 -0.23849
14.5 -0.2336
14.55 -0.22474
14.6 -0.21431
14.65 -0.20489
14.7 -0.20267
14.75 -0.19856
14.8 -0.19825
14.85 -0.19374
14.9 -0.18687
14.95 -0.17809
15 -0.16914
15.05 -0.1654
15.1 -0.16212
15.15 -0.16075
15.2 -0.15858
15.25 -0.15476
15.3 -0.15534
15.35 -0.16001
15.4 -0.16244
15.45 -0.16643
15.5 -0.16988
15.55 -0.17048
15.6 -0.1664
15.65 -0.16618
15.7 -0.16784
15.75 -0.17095
15.8 -0.17282
15.85 -0.16801
15.9 -0.16414
15.95 -0.16342
16 -0.1609
16.05 -0.1572
16.1 -0.15564
16.15 -0.15178
16.2 -0.14826
16.25 -0.14448
16.3 -0.1437
16.35 -0.14168
16.4 -0.13448
16.45 -0.13296
16.5 -0.13457
16.55 -0.13768
16.6 -0.13324
16.65 -0.13285
16.7 -0.12664
16.75 -0.1186
16.8 -0.11599
16.85 -0.10881
16.9 -0.10715
16.95 -0.10076
17 -0.09324
17.05 -0.0901
17.1 -0.08722
17.15 -0.08921
17.2 -0.08651
17.25 -0.08575
17.3 -0.08278
17.35 -0.08416
17.4 -0.08481
17.45 -0.0894
17.5 -0.0888
17.55 -0.09176
17.6 -0.08995
17.65 -0.08571
17.7 -0.07776
17.75 -0.07256
17.8 -0.06601
17.85 -0.0658
17.9 -0.06643
17.95 -0.06721
18 -0.0693
18.05 -0.06874
18.1 -0.06886
18.15 -0.06873
18.2 -0.06412
18.25 -0.06351
18.3 -0.06515
18.35 -0.06187
18.4 -0.05669
18.45 -0.05689
18.5 -0.05564
18.55 -0.05712
18.6 -0.0559
18.65 -0.059
18.7 -0.0563
18.75 -0.05693
18.8 -0.06136
18.85 -0.0614
18.9 -0.06382
18.95 -0.0641
19 -0.06357
19.05 -0.0657
19.1 -0.06711
19.15 -0.06894
19.2 -0.0723
19.25 -0.07481
19.3 -0.07013
19.35 -0.06316
19.4 -0.06161
19.45 -0.06072
19.5 -0.05777
19.55 -0.05482
19.6 -0.05322
19.65 -0.04848
19.7 -0.04626
19.75 -0.04495
19.8 -0.04593
19.85 -0.04452
19.9 -0.04221
19.95 -0.03567
20 -0.03325
20.05 -0.03561
20.1 -0.03783
20.15 -0.04136
20.2 -0.04485
20.25 -0.04702
20.3 -0.04691
20.35 -0.04309
20.4 -0.04077
20.45 -0.03733
20.5 -0.03606
20.55 -0.03615
20.6 -0.03189
20.65 -0.02645
20.7 -0.02694
20.75 -0.03104
20.8 -0.03551
20.85 -0.03772
20.9 -0.04262
20.95 -0.03991
21 -0.04142
21.05 -0.04398
21.1 -0.04132
21.15 -0.03966
21.2 -0.03864
21.25 -0.03626
21.3 -0.03307
21.35 -0.02993
21.4 -0.02921
21.45 -0.03085
21.5 -0.03316
21.55 -0.03389
21.6 -0.0325
21.65 -0.02673
21.7 -0.02669
21.75 -0.02391
21.8 -0.02557
21.85 -0.02834
21.9 -0.03316
21.95 -0.03375
22 -0.0293
22.05 -0.02462
22.1 -0.01831
22.15 -0.01639
22.2 -0.01668
22.25 -0.02016
22.3 -0.0211
22.35 -0.02012
22.4 -0.0213
22.45 -0.02145
22.5 -0.02153
22.55 -0.01911
22.6 -0.01847
22.65 -0.01763
22.7 -0.0183
22.75 -0.01575
22.8 -0.01718
22.85 -0.01684
22.9 -0.01339
22.95 -0.00914
23 -0.01031
23.05 -0.01252
23.1 -0.01629
23.15 -0.01521
23.2 -0.01619
23.25 -0.01168
23.3 -0.01007
23.35 -0.00537
23.4 -0.00723
23.45 -0.00892
23.5 -0.00536
23.55 -0.00083
23.6 0.0017
23.65 0.00302
23.7 0.00305
23.75 0.0035
23.8 0.00688
23.85 0.00609
23.9 0.00837
23.95 0.01112
24 0.01164
24.05 0.00625
24.1 0.00197
24.15 0.00268
24.2 -0.00214
24.25 -0.00293
24.3 0.00022
24.35 0.00182
24.4 0.00369
24.45 0.00737
24.5 0.00574
24.55 -0.00134
24.6 -0.00355
24.65 -0.00285
24.7 -0.00363
24.75 -0.00283
24.8 -0.00758
24.85 -0.00626
24.9 -0.00995
24.95 -0.00854
25 -0.01056
25.05 -0.01228
25.1 -0.01533
25.15 -0.01799
25.2 -0.02269
25.25 -0.0227
25.3 -0.02284
25.35 -0.02405
25.4 -0.02123
25.45 -0.01361
25.5 -0.01087
25.55 -0.00606
25.6 -0.00655
25.65 -0.00767
25.7 -0.00656
25.75 -0.00129
25.8 -0.0006
25.85 0.00278
25.9 0.00384
25.95 0.00324
26 0.00028
26.05 -0.00535
26.1 -0.01034
26.15 -0.01114
26.2 -0.01216
26.25 -0.00986
26.3 -0.00392
26.35 -0.00061
26.4 0.00204
26.45 0.00559
26.5 0.01106
26.55 0.01608
26.6 0.02157
26.65 0.01954
26.7 0.01852
26.75 0.02037
26.8 0.01969
26.85 0.01338
26.9 0.00499
26.95 0.00121
27 0.00187
27.05 -0.00229
27.1 -0.0097
27.15 -0.01037
27.2 -0.01156
27.25 -0.00998
27.3 -0.00679
27.35 -0.00475
27.4 -0.00046
27.45 -0.00118
27.5 -0.00054
27.55 -0.00471
27.6 -0.0036
27.65 -0.00511
27.7 -0.01172
27.75 -0.01376
27.8 -0.01371
27.85 -0.01425
27.9 -0.01926
27.95 -0.02776
28 -0.02994
28.05 -0.02815
28.1 -0.03057
28.15 -0.03046
28.2 -0.03598
28.25 -0.0423
28.3 -0.04666
28.35 -0.05441
28.4 -0.06609
28.45 -0.07987
28.5 -0.0895
28.55 -0.10567
28.6 -0.12196
28.65 -0.14305
28.7 -0.1649
28.75 -0.19037
28.8 -0.21462
28.85 -0.24153
28.9 -0.27218
28.95 -0.29977
29 -0.33025
29.05 -0.36614
29.1 -0.40169
29.15 -0.44132
29.2 -0.47793
29.25 -0.51734
29.3 -0.55771
29.35 -0.6013
29.4 -0.64449
29.45 -0.69371
29.5 -0.74563
29.55 -0.79085
29.6 -0.83288
29.65 -0.87456
29.7 -0.91337
29.75 -0.94393
29.8 -0.96614
29.85 -0.9835
29.9 -0.99384
29.95 -1.00423
30 -1.01263
30.05 -1.01334
30.1 -1.00874
30.15 -0.99644
30.2 -0.97382
30.25 -0.94348
30.3 -0.90051
30.35 -0.8477
30.4 -0.79235
30.45 -0.72808
30.5 -0.66052
30.55 -0.58763
30.6 -0.51234
30.65 -0.43155
30.7 -0.34791
30.75 -0.26828
30.8 -0.18864
30.85 -0.1082
30.9 -0.03485
30.95 0.03249
31 0.09511
31.05 0.15234
31.1 0.21005
31.15 0.26385
31.2 0.31667
31.25 0.37058
31.3 0.41996
31.35 0.46697
31.4 0.50646
31.45 0.53846
31.5 0.57018
31.55 0.59408
31.6 0.61153
31.65 0.62331
31.7 0.63545
31.75 0.64596
31.8 0.65615
31.85 0.66405
31.9 0.67329
31.95 0.68092
32 0.69356
32.05 0.7059
32.1 0.7137
32.15 0.72276
32.2 0.73519
32.25 0.74837
32.3 0.75447
32.35 0.7538
32.4 0.75755
32.45 0.75513
32.5 0.7528
32.55 0.7526
32.6 0.74891
32.65 0.74131
32.7 0.73682
32.75 0.73738
32.8 0.73142
32.85 0.72128
32.9 0.71004
32.95 0.69724
33 0.68824
33.05 0.6835
33.1 0.67288
33.15 0.66348
33.2 0.65012
33.25 0.63205
33.3 0.61154
33.35 0.59757
33.4 0.58306
33.45 0.57166
33.5 0.55718
33.55 0.5431
33.6 0.52927
33.65 0.51684
33.7 0.5016
33.75 0.47949
33.8 0.46263
33.85 0.447
33.9 0.43195
33.95 0.41427
34 0.39221
34.05 0.37309
34.1 0.35362
34.15 0.33459
34.2 0.31566
34.25 0.29355
34.3 0.2715
34.35 0.2487
34.4 0.23141
34.45 0.21975
34.5 0.20707
34.55 0.19664
34.6 0.18513
34.65 0.1767
34.7 0.16212
34.75 0.15122
34.8 0.13472
34.85 0.12321
34.9 0.10919
34.95 0.09483
35 0.08359
35.05 0.07271
35.1 0.0626
35.15 0.05516
35.2 0.05127
35.25 0.04222
35.3 0.0324
35.35 0.01854
35.4 0.00804
35.45 0.0017
35.5 -0.00129
35.55 -0.00736
35.6 -0.01771
35.65 -0.02627
35.7 -0.03067
35.75 -0.03495
35.8 -0.04071
35.85 -0.04813
35.9 -0.05428
35.95 -0.05628
36 -0.06304
36.05 -0.06797
36.1 -0.07657
36.15 -0.08597
36.2 -0.09307
36.25 -0.09826
36.3 -0.10519
36.35 -0.1053
36.4 -0.10803
36.45 -0.10536
36.5 -0.10466
36.55 -0.10157
36.6 -0.10541
36.65 -0.11264
36.7 -0.11747
36.75 -0.117
36.8 -0.11953
36.85 -0.12453
36.9 -0.12674
36.95 -0.12652
37 -0.12714
37.05 -0.12718
37.1 -0.12425
37.15 -0.12211
37.2 -0.11899
37.25 -0.11257
37.3 -0.11205
37.35 -0.11629
37.4 -0.11609
37.45 -0.12058
37.5 -0.12183
37.55 -0.12423
37.6 -0.12485
37.65 -0.12032
37.7 -0.11666
37.75 -0.11766
37.8 -0.11995
37.85 -0.1168
37.9 -0.11189
37.95 -0.1104
38 -0.11139
38.05 -0.11144
38.1 -0.11156
38.15 -0.1148
38.2 -0.11641
38.25 -0.11191
38.3 -0.10643
38.35 -0.09884
38.4 -0.09012
38.45 -0.08481
38.5 -0.08412
38.55 -0.08781
38.6 -0.09147
38.65 -0.09237
38.7 -0.08867
38.75 -0.08708
38.8 -0.08163
38.85 -0.0768
38.9 -0.0702
38.95 -0.067
39 -0.06717
39.05 -0.06738
39.1 -0.06961
39.15 -0.07493
39.2 -0.07842
39.25 -0.07991
39.3 -0.07717
39.35 -0.07729
39.4 -0.07858
39.45 -0.08245
39.5 -0.0852
39.55 -0.08575
39.6 -0.08293
39.65 -0.08324
39.7 -0.08029
39.75 -0.07344
39.8 -0.06989
39.85 -0.06748
39.9 -0.06388
39.95 -0.06513
40 -0.06719
40.05 -0.06951
40.1 -0.06662
40.15 -0.06489
40.2 -0.06389
40.25 -0.06422
40.3 -0.06473
40.35 -0.06362
40.4 -0.05834
40.45 -0.057
40.5 -0.05436
40.55 -0.0537
40.6 -0.05637
40.65 -0.05741
40.7 -0.06166
40.75 -0.06227
40.8 -0.06189
40.85 -0.06341
40.9 -0.06741
40.95 -0.06727
41 -0.06431
41.05 -0.06142
41.1 -0.05832
41.15 -0.0568
41.2 -0.05432
41.25 -0.05183
41.3 -0.05126
41.35 -0.05037
41.4 -0.05091
41.45 -0.0514
41.5 -0.04998
41.55 -0.05124
41.6 -0.0538
41.65 -0.0522
41.7 -0.05243
41.75 -0.05227
41.8 -0.04938
41.85 -0.04506
41.9 -0.03974
41.95 -0.03658
42 -0.03312
42.05 -0.02776
42.1 -0.02858
42.15 -0.02911
42.2 -0.03081
42.25 -0.03109
42.3 -0.03218
42.35 -0.03247
42.4 -0.02812
42.45 -0.02373
42.5 -0.02557
42.55 -0.03132
42.6 -0.03193
42.65 -0.03008
42.7 -0.0242
42.75 -0.02263
42.8 -0.02419
42.85 -0.02754
42.9 -0.0283
42.95 -0.03024
43 -0.02901
43.05 -0.02399
43.1 -0.0201
43.15 -0.0209
43.2 -0.01831
43.25 -0.01245
43.3 -0.01258
43.35 -0.01763
43.4 -0.01854
43.45 -0.01757
43.5 -0.02081
43.55 -0.01912
43.6 -0.01978
43.65 -0.02295
43.7 -0.02163
43.75 -0.02404
43.8 -0.02776
43.85 -0.03313
43.9 -0.03504
43.95 -0.03864
44 -0.0424
44.05 -0.04609
44.1 -0.04112
44.15 -0.03511
44.2 -0.0312
44.25 -0.02919
44.3 -0.02753
44.35 -0.02076
44.4 -0.01648
44.45 -0.01633
44.5 -0.01393
44.55 -0.01604
44.6 -0.0195
44.65 -0.0209
44.7 -0.01901
44.75 -0.02128
44.8 -0.02301
44.85 -0.02235
44.9 -0.02424
44.95 -0.02792
45 -0.02575
45.05 -0.02402
45.1 -0.01858
45.15 -0.01616
45.2 -0.01273
45.25 -0.01212
45.3 -0.01391
45.35 -0.00988
45.4 -0.00559
45.45 -0.00614
45.5 -0.00179
45.55 0
45.6 -0.0014
45.65 -0.00697
45.7 -0.01263
45.75 -0.01879
45.8 -0.02072
45.85 -0.02339
45.9 -0.02536
45.95 -0.02619
46 -0.02527
46.05 -0.01886
46.1 -0.01159
46.15 -0.00847
46.2 -0.00992
46.25 -0.00798
46.3 -0.00799
46.35 -0.00713
46.4 -0.00577
46.45 -0.00536
46.5 -0.00228
46.55 -0.00229
46.6 -0.00199
46.65 0.00131
46.7 0.00177
46.75 -0.00147
46.8 -0.00144
46.85 -0.00156
46.9 -0.00269
46.95 -0.00135
47 -0.00232
47.05 -0.0073
47.1 -0.00597
47.15 -0.00665
47.2 -0.00894
47.25 -0.00849
47.3 -0.0049
47.35 0.00112
47.4 0.00077
47.45 -0.0026
47.5 -0.00327
47.55 -0.00479
47.6 -0.00508
47.65 -0.00806
47.7 -0.00911
47.75 -0.013
47.8 -0.01283
47.85 -0.01392
47.9 -0.00952
47.95 -0.00468
48 -0.00475
48.05 -0.00775
48.1 -0.00437
48.15 -0.00334
48.2 -0.00185
48.25 -0.00244
48.3 -0.00698
48.35 -0.00894
48.4 -0.01297
48.45 -0.0129
48.5 -0.01141
48.55 -0.00942
48.6 -0.00414
48.65 0.00318
48.7 0.00739
48.75 0.00582
48.8 0.00516
48.85 0.00402
48.9 0.00559
48.95 0.00452
49 -0.00065
49.05 -0.00539
49.1 -0.00659
49.15 -0.00419
49.2 0.00164
49.25 0.00182
49.3 0.00462
49.35 0.00961
49.4 0.01185
49.45 0.00978
49.5 0.00548
49.55 0.00015
49.6 -0.00388
49.65 -0.00871
49.7 -0.01346
49.75 -0.01996
49.8 -0.02221
49.85 -0.02202
49.9 -0.02229
49.95 -0.02102
50 -0.01898
50.05 -0.02001
50.1 -0.01877
50.15 -0.01174
50.2 -0.00724
50.25 -0.0013
50.3 0.0038
50.35 0.0049
50.4 0.00602
50.45 0.0047
50.5 0.00409
50.55 0.00336
50.6 0.00178
50.65 0.00449
50.7 0.00887
50.75 0.00921
50.8 0.0076
50.85 0.00388
50.9 -0.00272
50.95 -0.00566
51 -0.0088
51.05 -0.00618
51.1 -0.00127
51.15 -0.00024
51.2 -0.00286
51.25 -0.00372
51.3 -0.00832
51.35 -0.0113
51.4 -0.01179
51.45 -0.00959
51.5 -0.00987
51.55 -0.00749
51.6 -0.00476
51.65 0.00032
51.7 0.00522
51.75 0.00657
51.8 0.00626
51.85 0.00836
51.9 0.00511
51.95 0.00571
52 0.00836
52.05 0.00813
52.1 0.00934
52.15 0.00966
52.2 0.01048
52.25 0.00805
52.3 0.00363
52.35 -0.00395
52.4 -0.00367
52.45 -0.00648
52.5 -0.00977
52.55 -0.01048
52.6 -0.00963
52.65 -0.00874
52.7 -0.01133
52.75 -0.01252
52.8 -0.0135
52.85 -0.01632
52.9 -0.01535
52.95 -0.01236
53 -0.00512
53.05 0.00125
53.1 0.00853
53.15 0.01429
53.2 0.02147
53.25 0.02188
53.3 0.02446
53.35 0.0268
53.4 0.02839
53.45 0.02926
53.5 0.02841
53.55 0.03025
53.6 0.03063
53.65 0.02805
53.7 0.02396
53.75 0.01553
53.8 0.00781
53.85 0.00057
53.9 -0.00666
53.95 -0.00719
54 -0.01037
54.05 -0.0098
54.1 -0.00966
54.15 -0.00929
54.2 -0.0043
54.25 -0.00486
54.3 -0.00112
54.35 -0.0023
54.4 0.00089
54.45 -0.00043
54.5 -0.00434
54.55 -0.0071
54.6 -0.0108
54.65 -0.0123
54.7 -0.00861
54.75 -0.00151
54.8 0.00336
54.85 0.01051
54.9 0.0105
54.95 0.00589
55 0.00495
55.05 0.00522
55.1 0.00463
55.15 0.00486
55.2 0.00598
55.25 0.01057
55.3 0.01242
55.35 0.01543
55.4 0.0197
55.45 0.02497
55.5 0.03023
55.55 0.03282
55.6 0.03393
55.65 0.03306
55.7 0.02942
55.75 0.02631
55.8 0.02147
55.85 0.01557
55.9 0.00729
55.95 0.00394
56 0.00539
56.05 0.00301
56.1 0.00447
56.15 0.00619
56.2 0.00481
56.25 0.00651
56.3 0.00637
56.35 0.00377
56.4 -0.00228
56.45 -0.00356
56.5 -0.00423
56.55 -0.00314
56.6 -0.00678
56.65 -0.00572
56.7 -0.00848
56.75 -0.01389
56.8 -0.02069
56.85 -0.02481
56.9 -0.02643
56.95 -0.02214
57 -0.01465
57.05 -0.00612
57.1 -0.00016
57.15 0.00054
57.2 0.00334
57.25 0.00231
57.3 0.00423
57.35 0.00854
57.4 0.01014
57.45 0.00631
57.5 0.00279
57.55 -0.0042
57.6 -0.0061
57.65 -0.00336
57.7 -0.001
57.75 -0.00225
57.8 -0.00762
57.85 -0.01348
57.9 -0.01472
57.95 -0.01915
58 -0.01664
58.05 -0.01764
58.1 -0.01446
58.15 -0.01155
58.2 -0.0126
58.25 -0.01538
58.3 -0.01807
58.35 -0.02196
58.4 -0.01987
58.45 -0.01585
58.5 -0.01333
58.55 -0.01483
58.6 -0.01464
58.65 -0.01485
58.7 -0.01416
58.75 -0.01393
58.8 -0.00822
58.85 -0.00729
58.9 -0.00777
58.95 -0.00685
59 -0.00924
59.05 -0.00947
59.1 -0.00979
59.15 -0.00759
59.2 -0.00324
59.25 -0.002
59.3 -0.00199
59.35 0.00149
59.4 0.00482
59.45 0.00706
59.5 0.00713
59.55 0.00399
59.6 0.00399
59.65 0.00224
59.7 0.00367
59.75 0.00551
59.8 0.00468
59.85 0.00341
59.9 -0.00216
59.95 -0.00554
60 -0.00348
60.05 -0.00291
60.1 -0.00621
60.15 -0.00317
60.2 -0.00564
60.25 -0.01019
60.3 -0.00796
60.35 -0.01025
60.4 -0.00783
60.45 -0.00515
60.5 -0.00497
60.55 -0.00719
60.6 -0.00412
60.65 -0.00545
60.7 -0.00459
60.75 -0.00725
60.8 -0.00574
60.85 -0.00604
60.9 -0.00204
60.95 0.0038
61 0.00262
61.05 0.00071
61.1 0.00139
61.15 0.00323
61.2 0.00535
61.25 0.01029
61.3 0.01001
61.35 0.01251
61.4 0.01195
61.45 0.00769
61.5 0.00326
61.55 -0.00381
61.6 -0.00817
61.65 -0.00774
61.7 -0.00499
61.75 -0.0029
61.8 -0.00586
61.85 -0.00827
61.9 -0.00566
61.95 0.00005
62 0.00721
62.05 0.01395
62.1 0.01579
62.15 0.01653
62.2 0.01768
62.25 0.01627
62.3 0.01852
62.35 0.01584
62.4 0.01523
62.45 0.01518
62.5 0.01098
62.55 0.00451
62.6 0.00269
62.65 0.00441
62.7 0.00955
62.75 0.01575
62.8 0.02024
62.85 0.01867
62.9 0.01122
62.95 0.00614
63 0.00356
63.05 0.0018
63.1 -0.00408
63.15 -0.01109
63.2 -0.01048
63.25 -0.01326
63.3 -0.01378
63.35 -0.01433
63.4 -0.01359
63.45 -0.00988
63.5 -0.00495
63.55 -0.00261
63.6 -0.00382
63.65 -0.00012
63.7 0.00409
63.75 0.00417
63.8 0.00788
63.85 0.00523
63.9 0.00539
63.95 0.00181
64 -0.0007
64.05 -0.00092
64.1 0.0006
64.15 -0.00272
64.2 -0.00145
64.25 -0.00466
64.3 -0.0026
64.35 -0.00345
64.4 -0.00425
64.45 -0.00918
64.5 -0.01492
64.55 -0.0134
64.6 -0.01536
64.65 -0.01423
64.7 -0.01426
64.75 -0.00878
64.8 -0.00474
64.85 -0.00504
64.9 -0.00624
64.95 -0.00767
65 -0.00432
65.05 -0.00366
65.1 0.00116
65.15 0.00246
65.2 -0.00005
65.25 0.00116
65.3 0.00168
65.35 0.00032
65.4 0.00257
65.45 0.00131
65.5 -0.00107
65.55 -0.00243
65.6 -0.00145
65.65 0.00055
65.7 0.00229
65.75 -0.00058
65.8 0.00198
65.85 0.00772
65.9 0.00734
65.95 0.00734
66 0.01004
66.05 0.01421
66.1 0.01899
66.15 0.01726
66.2 0.01164
66.25 0.01057
66.3 0.00746
66.35 0.00528
66.4 0.00422
66.45 0.003
66.5 0.00297
66.55 0.00106
66.6 -0.00214
66.65 -0.00013
66.7 0.00102
66.75 -0.0006
66.8 -0.00301
66.85 0.00004
66.9 0.00177
66.95 0.00174
67 -0.00137
67.05 -0.00746
67.1 -0.01492
67.15 -0.01652
67.2 -0.01961
67.25 -0.02268
67.3 -0.0184
67.35 -0.01483
67.4 -0.0084
67.45 0.00057
67.5 0.00715
67.55 0.01227
67.6 0.01137
67.65 0.00591
67.7 0.0049
67.75 0.00282
67.8 -0.00074
67.85 0.00047
67.9 0.00298
67.95 0.00681
68 0.00542
68.05 0
68.1 -0.00603
68.15 -0.00731
68.2 -0.00928
68.25 -0.00758
68.3 -0.00463
68.35 -0.00186
68.4 0.00403
68.45 0.00712
68.5 0.00559
68.55 0.0087
68.6 0.00806
68.65 0.00978
68.7 0.00818
68.75 0.00944
68.8 0.01015
68.85 0.00915
68.9 0.00529
68.95 0.00458
69 0.001
69.05 -0.00341
69.1 -0.00279
69.15 -0.00114
69.2 0.00252
69.25 0.00709
69.3 0.01187
69.35 0.01244
69.4 0.00793
69.45 0.00151
69.5 0.00123
69.55 0.00141
69.6 0.002
69.65 -0.00125
69.7 -0.0048
69.75 -0.00922
69.8 -0.01036
69.85 -0.00626
69.9 0.00044
69.95 0.00269
70 0.00837
70.05 0.0092
70.1 0.01221
70.15 0.01658
70.2 0.01301
70.25 0.00934
70.3 0.0095
70.35 0.00737
70.4 0.00267
70.45 -0.00235
70.5 -0.00601
70.55 -0.00743
70.6 -0.00718
70.65 -0.00735
70.7 -0.00471
70.75 -0.00098
70.8 -0.00084
70.85 -0.00466
70.9 -0.00779
70.95 -0.00783
71 -0.00738
71.05 -0.00362
71.1 0.00086
71.15 0.00424
71.2 0.00313
71.25 0.00116
71.3 0.0003
71.35 0.00332
71.4 0.00188
71.45 0.00388
71.5 0.00423
71.55 0.00737
71.6 0.00818
71.65 0.00705
71.7 0.0013
71.75 -0.00668
71.8 -0.01484
71.85 -0.01628
71.9 -0.01548
71.95 -0.01331
72 -0.00643
72.05 -0.00093
72.1 -0.0016
72.15 0.00167
72.2 0.00424
72.25 0.00639
72.3 0.00646
72.35 0.00327
72.4 0.00428
72.45 0.00796
72.5 0.00773
72.55 0.00307
72.6 -0.00048
72.65 -0.00391
72.7 -0.00159
72.75 0.00389
72.8 0.00255
72.85 -0.00019
72.9 -0.00399
72.95 -0.00972
73 -0.01084
73.05 -0.01398
73.1 -0.0133
73.15 -0.01307
73.2 -0.01668
73.25 -0.0132
73.3 -0.01194
73.35 -0.00889
73.4 -0.00882
73.45 -0.0121
73.5 -0.01739
73.55 -0.01776
73.6 -0.01493
73.65 -0.01081
73.7 -0.01138
73.75 -0.01557
73.8 -0.01974
73.85 -0.01719
73.9 -0.01468
73.95 -0.00812
74 0.00132
74.05 0.00644
74.1 0.00881
74.15 0.00885
74.2 0.00864
74.25 0.00397
74.3 -0.00019
74.35 -0.00506
74.4 -0.00617
74.45 -0.00283
74.5 -0.00143
74.55 -0.00214
74.6 0.00208
74.65 0.00493
74.7 0.00974
74.75 0.01341
74.8 0.01243
74.85 0.01254
74.9 0.00736
74.95 -0.00024
75 -0.00622
75.05 -0.0065
75.1 -0.01057
75.15 -0.00983
75.2 -0.00722
75.25 -0.00187
75.3 -0.00156
75.35 -0.00129
75.4 0.00233
75.45 0.00108
75.5 -0.00366
75.55 -0.00958
75.6 -0.01595
75.65 -0.01835
75.7 -0.0173
75.75 -0.01953
75.8 -0.02254
75.85 -0.02197
75.9 -0.02221
75.95 -0.02493
76 -0.02557
76.05 -0.02623
76.1 -0.02858
76.15 -0.02816
76.2 -0.02132
76.25 -0.01686
76.3 -0.01406
76.35 -0.01274
76.4 -0.01116
76.45 -0.0081
76.5 -0.00112
76.55 0.00773
76.6 0.01164
76.65 0.01009
76.7 0.00838
76.75 0.00786
76.8 0.00783
76.85 0.00354
76.9 -0.0011
76.95 -0.00141
77 0.00306
77.05 0.00785
77.1 0.00815
77.15 0.0041
77.2 -0.00256
77.25 -0.0023
77.3 -0.00388
77.35 -0.0058
77.4 -0.00618
77.45 -0.00936
77.5 -0.01377
77.55 -0.01934
77.6 -0.01884
77.65 -0.02052
77.7 -0.01581
77.75 -0.01558
77.8 -0.01294
77.85 -0.0094
77.9 -0.00459
77.95 -0.00506
78 -0.00084
78.05 0.00607
78.1 0.00621
78.15 0.00364
78.2 -0.00203
78.25 -0.0034
78.3 -0.00526
78.35 -0.00267
78.4 -0.00045
78.45 0.00106
78.5 0.00179
78.55 0.00086
78.6 0.00093
78.65 0.00409
78.7 0.00301
78.75 0.00051
78.8 -0.00426
78.85 -0.00459
78.9 -0.00216
78.95 -0.00455
79 -0.00407
79.05 -0.0056
79.1 -0.0056
79.15 -0.00572
79.2 -0.00874
79.25 -0.00521
79.3 -0.00228
79.35 0.00016
79.4 0.00227
79.45 0.00305
79.5 0.00187
79.55 0.00065
79.6 -0.00157
79.65 -0.00407
79.7 -0.00096
79.75 0.00539
79.8 0.00638
79.85 0.00856
79.9 0.00781
79.95 0.00543
80 0.00066
80.05 -0.00395
80.1 -0.0053
80.15 -0.00072
80.2 0.00059
80.25 0.00244
80.3 0.00553
80.35 0.0041
80.4 0.00635
80.45 0.00507
80.5 0.00201
80.55 0.00231
80.6 0.00347
80.65 0.00227
80.7 0.00599
80.75 0.00628
80.8 0.00823
80.85 0.0118
80.9 0.01646
80.95 0.01775
81 0.01577
81.05 0.01462
81.1 0.01175
81.15 0.00981
81.2 0.01111
81.25 0.01033
81.3 0.00598
81.35 0.0062
81.4 0.0019
81.45 -0.00193
81.5 -0.00807
81.55 -0.01526
81.6 -0.01781
81.65 -0.01878
81.7 -0.02214
81.75 -0.02073
81.8 -0.01568
81.85 -0.01326
81.9 -0.00896
81.95 -0.00669
82 -0.00129
82.05 -0.00056
82.1 -0.0043
82.15 -0.002
82.2 -0.00427
82.25 -0.00481
82.3 0.00039
82.35 0.00458
82.4 0.00989
82.45 0.0163
82.5 0.01787
82.55 0.01698
82.6 0.0161
82.65 0.01201
82.7 0.00992
82.75 0.00688
82.8 0.00563
82.85 0.00237
82.9 0.00423
82.95 0.00468
83 0.00853
83.05 0.01113
83.1 0.01222
83.15 0.01514
83.2 0.01807
83.25 0.01897
83.3 0.02096
83.35 0.0231
83.4 0.02451
83.45 0.02347
83.5 0.02138
83.55 0.01878
83.6 0.01971
83.65 0.0215
83.7 0.02046
83.75 0.01444
83.8 0.00513
83.85 -0.00382
83.9 -0.01323
83.95 -0.02226
84 -0.02174
84.05 -0.01519
84.1 -0.00538
84.15 0.00543
84.2 0.01488
84.25 0.0217
84.3 0.027
84.35 0.03124
84.4 0.03123
84.45 0.02848
84.5 0.02084
84.55 0.01269
84.6 0.00229
84.65 -0.00517
84.7 -0.01046
84.75 -0.0129
84.8 -0.01024
84.85 -0.00961
84.9 -0.00768
84.95 -0.00212
85 -0.00258
85.05 -0.00589
85.1 -0.00739
85.15 -0.00786
85.2 -0.00667
85.25 -0.00416
85.3 0.00002
85.35 -0.00022
85.4 -0.00466
85.45 -0.00911
85.5 -0.00883
85.55 -0.0072
85.6 -0.01005
85.65 -0.00934
85.7 -0.00763
85.75 -0.00496
85.8 0.00166
85.85 0.00319
85.9 0.00067
85.95 0.00076
86 -0.00262
86.05 -0.0051
86.1 -0.00682
86.15 -0.00639
86.2 -0.00166
86.25 0.00367
86.3 0.00456
86.35 0.00538
86.4 0.00566
86.45 0.00081
86.5 -0.00133
86.55 -0.00167
86.6 0.00023
86.65 -0.00229
86.7 -0.00442
86.75 -0.0089
86.8 -0.01171
86.85 -0.0156
86.9 -0.01325
86.95 -0.01441
87 -0.01698
87.05 -0.01374
87.1 -0.01295
87.15 -0.00811
87.2 -0.00151
87.25 -0.00102
87.3 -0.00047
87.35 0.00104
87.4 0.00585
87.45 0.00514
87.5 0.00224
87.55 -0.00235
87.6 -0.00851
87.65 -0.01119
87.7 -0.00817
87.75 -0.00306
87.8 0.00047
87.85 -0.0019
87.9 -0.00402
87.95 -0.0044
88 -0.0057
88.05 -0.0016
88.1 0.00507
88.15 0.00785
88.2 0.01073
88.25 0.0107
88.3 0.00794
88.35 0.00215
88.4 -0.00533
88.45 -0.00508
88.5 -0.00615
88.55 -0.00483
88.6 -0.0013
88.65 -0.00052
88.7 -0.00402
88.75 -0.00328
88.8 -0.00425
88.85 -0.00349
88.9 -0.00116
88.95 -0.00014
89 -0.00183
89.05 0.0003
89.1 -0.00232
89.15 -0.00428
89.2 -0.00504
89.25 -0.00896
89.3 -0.01227
89.35 -0.01343
89.4 -0.00984
89.45 -0.00863
89.5 -0.00865
89.55 -0.01082
89.6 -0.0096
89.65 -0.00355
89.7 0.00436
89.75 0.00595
89.8 0.00857
89.85 0.01146
89.9 0.00787
89.95 0.00667
90 0.00572
90.05 0.00022
90.1 0.00025
90.15 0.00306
90.2 0.00051
90.25 -0.00042
90.3 -0.00455
90.35 -0.01014
90.4 -0.01462
90.45 -0.01957
90.5 -0.02168
90.55 -0.01818
90.6 -0.01428
90.65 -0.00894
90.7 -0.00817
90.75 -0.00761
90.8 -0.00563
90.85 -0.00739
90.9 -0.00543
90.95 -0.00528
91 -0.00658
91.05 -0.00268
91.1 -0.00127
91.15 -0.00071
91.2 0.00225
91.25 0.00039
91.3 -0.00468
91.35 -0.00457
91.4 0.00019
91.45 0.00786
91.5 0.00974
91.55 0.00908
91.6 0.00469
91.65 -0.0007
91.7 -0.00227
91.75 0.00105
91.8 0.00296
91.85 0.00324
91.9 0.00639
91.95 0.00582
92 0.00838
92.05 0.00901
92.1 0.00571
92.15 0.00707
92.2 0.00665
92.25 0.00511
92.3 0.00091
92.35 0.00196
92.4 0.00604
92.45 0.00953
92.5 0.00651
92.55 0.00583
92.6 0.00227
92.65 0.00119
92.7 -0.00053
92.75 -0.00611
92.8 -0.00453
92.85 -0.00079
92.9 -0.00221
92.95 0.00078
93 0.00577
93.05 0.00735
93.1 0.00804
93.15 0.00833
93.2 0.00857
93.25 0.00666
93.3 0.00566
93.35 0.00507
93.4 0.00505
93.45 0.00314
93.5 0.00345
93.55 0.0001
93.6 -0.00384
93.65 -0.00297
93.7 0.00143
93.75 0.00714
93.8 0.01032
93.85 0.01303
93.9 0.0092
93.95 0.00269
94 -0.00308
94.05 -0.01022
94.1 -0.01022
94.15 -0.01248
94.2 -0.00924
94.25 -0.00221
94.3 -0.00041
94.35 -0.00372
94.4 -0.00543
94.45 -0.00344
94.5 0.00262
94.55 0.01049
94.6 0.01418
94.65 0.01444
94.7 0.01657
94.75 0.01885
94.8 0.0191
94.85 0.02153
94.9 0.02331
94.95 0.01989
95 0.01913
95.05 0.01708
95.1 0.01865
95.15 0.02008
95.2 0.01946
95.25 0.02073
95.3 0.015
95.35 0.00783
95.4 -0.00228
95.45 -0.00712
95.5 -0.01052
95.55 -0.01534
95.6 -0.01284
95.65 -0.01479
95.7 -0.01882
95.75 -0.02413
95.8 -0.02454
95.85 -0.02105
95.9 -0.01645
95.95 -0.00866
96 0.00146
96.05 0.00403
96.1 0.0069
96.15 0.00962
96.2 0.01429
96.25 0.0142
96.3 0.00932
96.35 0.00463
96.4 0.00528
96.45 0.00668
96.5 0.00542
96.55 0.00563
96.6 0.00315
96.65 0.00553
96.7 0.00843
96.75 0.00894
96.8 0.00643
96.85 0.00655
96.9 0.00761
96.95 0.00833
97 0.01082
97.05 0.01012
97.1 0.00865
97.15 0.01017
97.2 0.00932
97.25 0.00309
97.3 0.0021
97.35 -0.00297
97.4 -0.00917
97.45 -0.00841
97.5 -0.0114
97.55 -0.01252
97.6 -0.01065
97.65 -0.00904
97.7 -0.00474
97.75 -0.00178
97.8 -0.00427
97.85 -0.0029
97.9 -0.00384
97.95 0.00012
98 -0.00039
98.05 -0.00488
98.1 -0.0042
98.15 -0.00721
98.2 -0.00767
98.25 -0.01179
98.3 -0.00945
98.35 -0.01146
98.4 -0.00777
98.45 -0.00494
98.5 0.00174
98.55 0.00893
98.6 0.01682
98.65 0.022
98.7 0.02087
98.75 0.02198
98.8 0.01658
98.85 0.01469
98.9 0.01323
98.95 0.01021
99 0.00696
99.05 -0.0002
99.1 -0.00185
99.15 -0.00081
99.2 0.00234
99.25 0.00243
99.3 0.00287
99.35 0.003
99.4 0.00183
99.45 0.00399
99.5 0.00353
99.55 0.00661
99.6 0.01197
99.65 0.01068
99.7 0.00521
99.75 -0.0035
99.8 -0.01036
99.85 -0.01714
99.9 -0.02384
99.95 -0.02499
