0 0
0.05 0.00313
0.1 0.01022
0.15 0.01998
0.2 0.02595
0.25 0.02822
0.3 0.02809
0.35 0.03418
0.4 0.0363
0.45 0.03622
0.5 0.04043
0.55 0.03967
0.6 0.03806
0.65 0.0398
0.7 0.04033
0.75 0.0432
0.8 0.04112
0.85 0.0399
0.9 0.0371
0.95 0.03862
1 0.04006
1.05 0.04035
1.1 0.04253
1.15 0.04701
1.2 0.04599
1.25 0.0435
1.3 0.04157
1.35 0.04455
1.4 0.0497
1.45 0.05327
1.5 0.05002
1.55 0.04876
1.6 0.05007
1.65 0.04704
1.7 0.04054
1.75 0.03667
1.8 0.02955
1.85 0.02362
1.9 0.01896
1.95 0.0197
2 0.01859
2.05 0.01722
2.1 0.01437
2.15 0.01632
2.2 0.0172
2.25 0.02016
2.3 0.02265
2.35 0.0212
2.4 0.01755
2.45 0.01601
2.5 0.01664
2.55 0.01982
2.6 0.01886
2.65 0.02136
2.7 0.0253
2.75 0.0303
2.8 0.03228
2.85 0.03742
2.9 0.04033
2.95 0.04273
3 0.04426
3.05 0.04427
3.1 0.03813
3.15 0.03177
3.2 0.028
3.25 0.02706
3.3 0.02269
3.35 0.02399
3.4 0.02072
3.45 0.01436
3.5 0.01332
3.55 0.01685
3.6 0.02333
3.65 0.02647
3.7 0.02694
3.75 0.03072
3.8 0.03541
3.85 0.0387
3.9 0.04085
3.95 0.03743
4 0.03487
4.05 0.03371
4.1 0.0321
4.15 0.03083
4.2 0.02502
4.25 0.01944
4.3 0.01586
4.35 0.00989
4.4 0.00109
4.45 -0.00914
4.5 -0.01973
4.55 -0.03146
4.6 -0.03725
4.65 -0.038
4.7 -0.04424
4.75 -0.04719
4.8 -0.05761
4.85 -0.07371
4.9 -0.08942
4.95 -0.10969
5 -0.13087
5.05 -0.15432
5.1 -0.18158
5.15 -0.20644
5.2 -0.22893
5.25 -0.24945
5.3 -0.27592
5.35 -0.30893
5.4 -0.3402
5.45 -0.36687
5.5 -0.39014
5.55 -0.41672
5.6 -0.43962
5.65 -0.45737
5.7 -0.47688
5.75 -0.49142
5.8 -0.50698
5.85 -0.51458
5.9 -0.5177
5.95 -0.51567
6 -0.50392
6.05 -0.49266
6.1 -0.47917
6.15 -0.46316
6.2 -0.43771
6.25 -0.40551
6.3 -0.36826
6.35 -0.32945
6.4 -0.29165
6.45 -0.25434
6.5 -0.21806
6.55 -0.18951
6.6 -0.16066
6.65 -0.13741
6.7 -0.1108
6.75 -0.08735
6.8 -0.06423
6.85 -0.04026
6.9 -0.01403
6.95 0.01337
7 0.04389
7.05 0.06874
7.1 0.09873
7.15 0.1272
7.2 0.15571
7.25 0.18533
7.3 0.21999
7.35 0.25391
7.4 0.28647
7.45 0.32185
7.5 0.35719
7.55 0.38754
7.6 0.41617
7.65 0.44625
7.7 0.46956
7.75 0.48807
7.8 0.50035
7.85 0.51509
7.9 0.53048
7.95 0.54193
8 0.54902
8.05 0.55669
8.1 0.56219
8.15 0.56049
8.2 0.55022
8.25 0.54129
8.3 0.53297
8.35 0.52498
8.4 0.51404
8.45 0.49527
8.5 0.47109
8.55 0.44567
8.6 0.42036
8.65 0.39467
8.7 0.37359
8.75 0.35862
8.8 0.34535
8.85 0.32988
8.9 0.31221
8.95 0.29889
9 0.28718
9.05 0.27543
9.1 0.26208
9.15 0.24223
9.2 0.21852
9.25 0.19385
9.3 0.17154
9.35 0.15463
9.4 0.14293
9.45 0.13297
9.5 0.11931
9.55 0.11238
9.6 0.10402
9.65 0.09916
9.7 0.09318
9.75 0.08515
9.8 0.07399
9.85 0.06133
9.9 0.04992
9.95 0.04375
10 0.0428
10.05 0.03905
10.1 0.04025
10.15 0.04289
10.2 0.04004
10.25 0.0392
10.3 0.03883
10.35 0.03954
10.4 0.03788
10.45 0.03217
10.5 0.03109
10.55 0.03287
10.6 0.02918
10.65 0.02834
10.7 0.02379
10.75 0.02072
10.8 0.01675
10.85 0.01411
10.9 0.0099
10.95 0.0094
11 0.00367
11.05 0.00232
11.1 -0.00315
11.15 -0.00703
11.2 -0.01222
11.25 -0.01589
11.3 -0.02365
11.35 -0.0338
11.4 -0.03659
11.45 -0.04011
11.5 -0.03875
11.55 -0.03695
11.6 -0.041
11.65 -0.0482
11.7 -0.05496
11.75 -0.0555
11.8 -0.05349
11.85 -0.05094
11.9 -0.0467
11.95 -0.04392
12 -0.04454
12.05 -0.04533
12.1 -0.04557
12.15 -0.04366
12.2 -0.04667
12.25 -0.04984
12.3 -0.05156
12.35 -0.05256
12.4 -0.04958
12.45 -0.04831
12.5 -0.04375
12.55 -0.03747
12.6 -0.03406
12.65 -0.03312
12.7 -0.03333
12.75 -0.03231
12.8 -0.03425
12.85 -0.03582
12.9 -0.04081
12.95 -0.04759
13 -0.05027
13.05 -0.05516
13.1 -0.05488
13.15 -0.05584
13.2 -0.05833
13.25 -0.05654
13.3 -0.05115
13.35 -0.04811
13.4 -0.04629
13.45 -0.04294
13.5 -0.04415
13.55 -0.04359
13.6 -0.0459
13.65 -0.05104
13.7 -0.04975
13.75 -0.05248
13.8 -0.05085
13.85 -0.04665
13.9 -0.04732
13.95 -0.04342
14 -0.03782
14.05 -0.0356
14.1 -0.03655
14.15 -0.04006
14.2 -0.0462
14.25 -0.05306
14.3 -0.05264
14.35 -0.04814
14.4 -0.04844
14.45 -0.04633
14.5 -0.04786
14.55 -0.05086
14.6 -0.0501
14.65 -0.04392
14.7 -0.03585
14.75 -0.03464
14.8 -0.0344
14.85 -0.03617
14.9 -0.03524
14.95 -0.03002
15 -0.02577
15.05 -0.02127
15.1 -0.0198
15.15 -0.02041
15.2 -0.02271
15.25 -0.02059
15.3 -0.01827
15.35 -0.01791
15.4 -0.01814
15.45 -0.01533
15.5 -0.01092
15.55 -0.00681
15.6 -0.00962
15.65 -0.01495
15.7 -0.01627
15.75 -0.0226
15.8 -0.02766
15.85 -0.03393
15.9 -0.03888
15.95 -0.04062
16 -0.03833
16.05 -0.03733
16.1 -0.03601
16.15 -0.03475
16.2 -0.03383
16.25 -0.03558
16.3 -0.0331
16.35 -0.02728
16.4 -0.02579
16.45 -0.02057
16.5 -0.01687
16.55 -0.01406
16.6 -0.01314
16.65 -0.01188
16.7 -0.00759
16.75 -0.00326
16.8 -0.00255
16.85 -0.00517
16.9 -0.01197
16.95 -0.01273
17 -0.00952
17.05 -0.01221
17.1 -0.01893
17.15 -0.02688
17.2 -0.0318
17.25 -0.03461
17.3 -0.03177
17.35 -0.03044
17.4 -0.02648
17.45 -0.02351
17.5 -0.01878
17.55 -0.01447
17.6 -0.01046
17.65 -0.00572
17.7 -0.00766
17.75 -0.00745
17.8 -0.01219
17.85 -0.0151
17.9 -0.01372
17.95 -0.01727
18 -0.01846
18.05 -0.02064
18.1 -0.02324
18.15 -0.02014
18.2 -0.01398
18.25 -0.0112
18.3 -0.00652
18.35 -0.00344
18.4 -0.00278
18.45 -0.00013
18.5 0.00423
18.55 0.00289
18.6 -0.00169
18.65 -0.00212
18.7 -0.0024
18.75 -0.00177
18.8 -0.00258
18.85 -0.0044
18.9 -0.00507
18.95 -0.00941
19 -0.00898
19.05 -0.00515
19.1 0.00064
19.15 0.00138
19.2 -0.00263
19.25 -0.00824
19.3 -0.01658
19.35 -0.01783
19.4 -0.01573
19.45 -0.0179
19.5 -0.01901
19.55 -0.02073
19.6 -0.02186
19.65 -0.02166
19.7 -0.0219
19.75 -0.01702
19.8 -0.01428
19.85 -0.01605
19.9 -0.01482
19.95 -0.01254
20 -0.00958
20.05 -0.00479
20.1 -0.00108
20.15 -0.00102
20.2 -0.00004
20.25 0.00003
20.3 -0.0035
20.35 -0.00673
20.4 -0.00488
20.45 -0.00293
20.5 0.00168
20.55 0.00744
20.6 0.0102
20.65 0.01128
20.7 0.00728
20.75 0.00043
20.8 -0.00835
20.85 -0.01817
20.9 -0.0226
20.95 -0.02647
21 -0.03016
21.05 -0.02929
21.1 -0.02282
21.15 -0.01493
21.2 -0.0123
21.25 -0.00619
21.3 -0.00036
21.35 0.00708
21.4 0.01113
21.45 0.015
21.5 0.01934
21.55 0.01811
21.6 0.01567
21.65 0.01552
21.7 0.01375
21.75 0.01264
21.8 0.01057
21.85 0.00602
21.9 -0.00097
21.95 -0.00565
22 -0.01187
22.05 -0.01945
22.1 -0.02239
22.15 -0.02566
22.2 -0.02862
22.25 -0.03295
22.3 -0.03761
22.35 -0.03895
22.4 -0.03394
22.45 -0.02593
22.5 -0.02183
22.55 -0.02142
22.6 -0.01729
22.65 -0.01665
22.7 -0.01331
22.75 -0.00919
22.8 -0.00917
22.85 -0.00937
22.9 -0.01043
22.95 -0.01386
23 -0.01191
23.05 -0.01006
23.1 -0.01223
23.15 -0.01381
23.2 -0.01382
23.25 -0.01052
23.3 -0.00674
23.35 -0.00607
23.4 -0.00882
23.45 -0.01055
23.5 -0.00976
23.55 -0.01228
23.6 -0.01069
23.65 -0.00815
23.7 -0.00532
23.75 0.0001
23.8 0.00466
23.85 0.00991
23.9 0.01285
23.95 0.01815
24 0.01585
24.05 0.01612
24.1 0.01478
24.15 0.01307
24.2 0.00985
24.25 0.01144
24.3 0.0126
24.35 0.01243
24.4 0.01373
24.45 0.01247
24.5 0.01151
24.55 0.01361
24.6 0.01462
24.65 0.0097
24.7 0.00674
24.75 0.00783
24.8 0.00447
24.85 0.00127
24.9 -0.00411
24.95 -0.00444
25 -0.00045
25.05 0.00511
25.1 0.00495
25.15 0.00783
25.2 0.0088
25.25 0.00771
25.3 0.00995
25.35 0.00581
25.4 0.00029
25.45 -0.00476
25.5 -0.00877
25.55 -0.00937
25.6 -0.01239
25.65 -0.01637
25.7 -0.02223
25.75 -0.02353
25.8 -0.02282
25.85 -0.01939
25.9 -0.01311
25.95 -0.01248
26 -0.01432
26.05 -0.01345
26.1 -0.01423
26.15 -0.01693
26.2 -0.01884
26.25 -0.01398
26.3 -0.00545
26.35 0.00141
26.4 0.00594
26.45 0.009
26.5 0.00682
26.55 0.00807
26.6 0.00846
26.65 0.01014
26.7 0.00997
26.75 0.01034
26.8 0.01245
26.85 0.01374
26.9 0.01268
26.95 0.01382
27 0.01255
27.05 0.00689
27.1 0.00339
27.15 0.00066
27.2 0.00073
27.25 -0.00267
27.3 -0.00243
27.35 -0.00479
27.4 -0.00292
27.45 -0.00353
27.5 -0.00858
27.55 -0.01637
27.6 -0.01951
27.65 -0.02287
27.7 -0.03097
27.75 -0.03589
27.8 -0.04717
27.85 -0.05474
27.9 -0.0653
27.95 -0.08016
28 -0.10079
28.05 -0.11822
28.1 -0.14064
28.15 -0.16693
28.2 -0.1995
28.25 -0.22958
28.3 -0.26253
28.35 -0.30237
28.4 -0.34126
28.45 -0.3877
28.5 -0.44168
28.55 -0.50285
28.6 -0.56848
28.65 -0.63366
28.7 -0.70343
28.75 -0.77761
28.8 -0.85418
28.85 -0.93778
28.9 -1.02136
28.95 -1.10506
29 -1.19531
29.05 -1.28896
29.1 -1.38377
29.15 -1.47169
29.2 -1.55778
29.25 -1.64324
29.3 -1.72756
29.35 -1.8081
29.4 -1.88142
29.45 -1.94287
29.5 -1.99977
29.55 -2.04328
29.6 -2.08148
29.65 -2.11105
29.7 -2.12578
29.75 -2.12682
29.8 -2.12109
29.85 -2.10738
29.9 -2.08171
29.95 -2.04065
30 -1.98858
30.05 -1.93149
30.1 -1.86609
30.15 -1.79393
30.2 -1.70632
30.25 -1.60877
30.3 -1.4993
30.35 -1.38087
30.4 -1.26273
30.45 -1.13475
30.5 -1.00217
30.55 -0.8637
30.6 -0.72668
30.65 -0.59005
30.7 -0.45514
30.75 -0.32165
30.8 -0.18247
30.85 -0.04611
30.9 0.09017
30.95 0.22876
31 0.36552
31.05 0.49547
31.1 0.62284
31.15 0.74565
31.2 0.85942
31.25 0.96648
31.3 1.06555
31.35 1.15657
31.4 1.23927
31.45 1.31665
31.5 1.39281
31.55 1.45857
31.6 1.52073
31.65 1.57854
31.7 1.62869
31.75 1.66814
31.8 1.70336
31.85 1.73691
31.9 1.76178
31.95 1.78303
32 1.79871
32.05 1.80859
32.1 1.81863
32.15 1.83125
32.2 1.83853
32.25 1.84147
32.3 1.84018
32.35 1.83984
32.4 1.83255
32.45 1.82496
32.5 1.81352
32.55 1.80417
32.6 1.79653
32.65 1.78806
32.7 1.77989
32.75 1.77145
32.8 1.75329
32.85 1.72916
32.9 1.69962
32.95 1.66895
33 1.6388
33.05 1.61018
33.1 1.58185
33.15 1.55302
33.2 1.52125
33.25 1.48859
33.3 1.45216
33.35 1.41832
33.4 1.3879
33.45 1.35158
33.5 1.30974
33.55 1.26628
33.6 1.22859
33.65 1.19091
33.7 1.14772
33.75 1.10666
33.8 1.06495
33.85 1.02007
33.9 0.97586
33.95 0.93038
34 0.88413
34.05 0.84064
34.1 0.80055
34.15 0.75853
34.2 0.71315
34.25 0.66661
34.3 0.61953
34.35 0.57411
34.4 0.52941
34.45 0.49184
34.5 0.45809
34.55 0.42179
34.6 0.39086
34.65 0.36352
34.7 0.33237
34.75 0.30422
34.8 0.27147
34.85 0.24268
34.9 0.2112
34.95 0.18321
35 0.15889
35.05 0.13408
35.1 0.10816
35.15 0.0851
35.2 0.06198
35.25 0.0398
35.3 0.01799
35.35 -0.00659
35.4 -0.03136
35.45 -0.05846
35.5 -0.07809
35.55 -0.09995
35.6 -0.12069
35.65 -0.13808
35.7 -0.15652
35.75 -0.17491
35.8 -0.18654
35.85 -0.19865
35.9 -0.20742
35.95 -0.21581
36 -0.2274
36.05 -0.23574
36.1 -0.24324
36.15 -0.25424
36.2 -0.25898
36.25 -0.26373
36.3 -0.26757
36.35 -0.2729
36.4 -0.27488
36.45 -0.2795
36.5 -0.28851
36.55 -0.29113
36.6 -0.2978
36.65 -0.30398
36.7 -0.30984
36.75 -0.30878
36.8 -0.31133
36.85 -0.30806
36.9 -0.30144
36.95 -0.30119
37 -0.30071
37.05 -0.3005
37.1 -0.30194
37.15 -0.30098
37.2 -0.2978
37.25 -0.29631
37.3 -0.29913
37.35 -0.30509
37.4 -0.30931
37.45 -0.30974
37.5 -0.30656
37.55 -0.30285
37.6 -0.2984
37.65 -0.29476
37.7 -0.29353
37.75 -0.28859
37.8 -0.27955
37.85 -0.27235
37.9 -0.27163
37.95 -0.26605
38 -0.26509
38.05 -0.26562
38.1 -0.26605
38.15 -0.26497
38.2 -0.26564
38.25 -0.26553
38.3 -0.26077
38.35 -0.25742
38.4 -0.25285
38.45 -0.24667
38.5 -0.24018
38.55 -0.23046
38.6 -0.22208
38.65 -0.21717
38.7 -0.21135
38.75 -0.2115
38.8 -0.20988
38.85 -0.20498
38.9 -0.19776
38.95 -0.1911
39 -0.18393
39.05 -0.18234
39.1 -0.18254
39.15 -0.18204
39.2 -0.1839
39.25 -0.18138
39.3 -0.17762
39.35 -0.17183
39.4 -0.1677
39.45 -0.16812
39.5 -0.16586
39.55 -0.1619
39.6 -0.15606
39.65 -0.14878
39.7 -0.14867
39.75 -0.15111
39.8 -0.1528
39.85 -0.15088
39.9 -0.14554
39.95 -0.13859
40 -0.13766
40.05 -0.13383
40.1 -0.13454
40.15 -0.13979
40.2 -0.14595
40.25 -0.14977
40.3 -0.15348
40.35 -0.15457
40.4 -0.15584
40.45 -0.15339
40.5 -0.14864
40.55 -0.14326
40.6 -0.13999
40.65 -0.13699
40.7 -0.12899
40.75 -0.12219
40.8 -0.11343
40.85 -0.10417
40.9 -0.09707
40.95 -0.08992
41 -0.08723
41.05 -0.08882
41.1 -0.08825
41.15 -0.08575
41.2 -0.08489
41.25 -0.08138
41.3 -0.07852
41.35 -0.07449
41.4 -0.07604
41.45 -0.07511
41.5 -0.07436
41.55 -0.07266
41.6 -0.07104
41.65 -0.07019
41.7 -0.07444
41.75 -0.07581
41.8 -0.07896
41.85 -0.08162
41.9 -0.08732
41.95 -0.09236
42 -0.09801
42.05 -0.0975
42.1 -0.09947
42.15 -0.10136
42.2 -0.09749
42.25 -0.09078
42.3 -0.08548
42.35 -0.08433
42.4 -0.08647
42.45 -0.09014
42.5 -0.09378
42.55 -0.09342
42.6 -0.08987
42.65 -0.08886
42.7 -0.08835
42.75 -0.08434
42.8 -0.08371
42.85 -0.08553
42.9 -0.08641
42.95 -0.08544
43 -0.08065
43.05 -0.07131
43.1 -0.06278
43.15 -0.06014
43.2 -0.062
43.25 -0.06071
43.3 -0.06201
43.35 -0.06153
43.4 -0.05949
43.45 -0.06145
43.5 -0.06247
43.55 -0.06111
43.6 -0.05593
43.65 -0.05438
43.7 -0.04926
43.75 -0.04114
43.8 -0.03985
43.85 -0.03523
43.9 -0.02967
43.95 -0.02919
44 -0.03262
44.05 -0.03891
44.1 -0.04391
44.15 -0.05039
44.2 -0.05276
44.25 -0.05395
44.3 -0.05237
44.35 -0.04664
44.4 -0.04047
44.45 -0.03301
44.5 -0.02791
44.55 -0.02418
44.6 -0.01847
44.65 -0.01469
44.7 -0.01369
44.75 -0.01193
44.8 -0.0125
44.85 -0.01525
44.9 -0.02106
44.95 -0.02482
45 -0.02914
45.05 -0.03139
45.1 -0.03398
45.15 -0.03117
45.2 -0.02552
45.25 -0.0205
45.3 -0.01702
45.35 -0.01158
45.4 -0.01241
45.45 -0.01158
45.5 -0.00955
45.55 -0.0127
45.6 -0.01779
45.65 -0.01914
45.7 -0.01703
45.75 -0.01244
45.8 -0.00691
45.85 -0.00586
45.9 -0.00372
45.95 -0.00475
46 -0.01058
46.05 -0.0191
46.1 -0.02541
46.15 -0.02802
46.2 -0.02653
46.25 -0.02264
46.3 -0.01767
46.35 -0.01469
46.4 -0.01289
46.45 -0.01685
46.5 -0.02449
46.55 -0.02886
46.6 -0.03073
46.65 -0.02993
46.7 -0.02933
46.75 -0.02577
46.8 -0.02597
46.85 -0.02993
46.9 -0.03241
46.95 -0.03154
47 -0.03139
47.05 -0.03268
47.1 -0.03651
47.15 -0.04159
47.2 -0.04538
47.25 -0.04201
47.3 -0.03414
47.35 -0.02537
47.4 -0.02219
47.45 -0.01737
47.5 -0.0174
47.55 -0.02113
47.6 -0.02489
47.65 -0.02921
47.7 -0.02807
47.75 -0.02437
47.8 -0.01748
47.85 -0.00953
47.9 -0.00514
47.95 0.00084
48 0.00414
48.05 0.00571
48.1 0.00167
48.15 0.00083
48.2 0.00204
48.25 0.00582
48.3 0.00531
48.35 0.00736
48.4 0.00877
48.45 0.01221
48.5 0.01647
48.55 0.01325
48.6 0.01009
48.65 0.00236
48.7 -0.00302
48.75 -0.00593
48.8 -0.0041
48.85 -0.00092
48.9 0.00323
48.95 0.00372
49 0.00469
49.05 0.00684
49.1 0.00567
49.15 0.00422
49.2 0.00352
49.25 0.00205
49.3 -0.00476
49.35 -0.00657
49.4 -0.00441
49.45 -0.00559
49.5 -0.01084
49.55 -0.0123
49.6 -0.01207
49.65 -0.01231
49.7 -0.01569
49.75 -0.01782
49.8 -0.02103
49.85 -0.01996
49.9 -0.01843
49.95 -0.02154
50 -0.02702
50.05 -0.02915
50.1 -0.03259
50.15 -0.03142
50.2 -0.02533
50.25 -0.0219
50.3 -0.01733
50.35 -0.01368
50.4 -0.0115
50.45 -0.00634
50.5 -0.00445
50.55 -0.00205
50.6 -0.00213
50.65 -0.0063
50.7 -0.00936
50.75 -0.0157
50.8 -0.01789
50.85 -0.01567
50.9 -0.01312
50.95 -0.01051
51 -0.00875
51.05 -0.00587
51.1 -0.00704
51.15 -0.00581
51.2 -0.0088
51.25 -0.01354
51.3 -0.01826
51.35 -0.0224
51.4 -0.02497
51.45 -0.02571
51.5 -0.02259
51.55 -0.01639
51.6 -0.00763
51.65 -0.00307
51.7 0.00119
51.75 0.00466
51.8 0.00234
51.85 -0.00036
51.9 -0.00298
51.95 -0.00889
52 -0.01457
52.05 -0.01676
52.1 -0.01906
52.15 -0.01821
52.2 -0.01495
52.25 -0.01525
52.3 -0.01685
52.35 -0.01775
52.4 -0.01901
52.45 -0.0156
52.5 -0.01542
52.55 -0.01044
52.6 -0.00417
52.65 -0.00048
52.7 0.0042
52.75 0.00574
52.8 0.00996
52.85 0.00924
52.9 0.01029
52.95 0.01369
53 0.01163
53.05 0.00788
53.1 0.00792
53.15 0.0031
53.2 -0.00365
53.25 -0.00433
53.3 -0.00484
53.35 -0.00399
53.4 -0.00115
53.45 -0.0019
53.5 -0.0028
53.55 -0.00627
53.6 -0.0043
53.65 -0.00721
53.7 -0.01305
53.75 -0.01375
53.8 -0.0108
53.85 -0.01084
53.9 -0.01239
53.95 -0.01421
54 -0.01654
54.05 -0.02036
54.1 -0.02046
54.15 -0.01878
54.2 -0.0137
54.25 -0.00984
54.3 -0.00958
54.35 -0.0107
54.4 -0.01002
54.45 -0.00852
54.5 -0.00829
54.55 -0.00555
54.6 -0.00025
54.65 0.00023
54.7 -0.00113
54.75 -0.00289
54.8 -0.00329
54.85 0.00126
54.9 0.00565
54.95 0.00992
55 0.01337
55.05 0.01662
55.1 0.02104
55.15 0.01805
55.2 0.01283
55.25 0.00508
55.3 -0.00314
55.35 -0.01232
55.4 -0.01647
55.45 -0.02166
55.5 -0.02355
55.55 -0.02329
55.6 -0.02374
55.65 -0.02138
55.7 -0.01845
55.75 -0.01567
55.8 -0.01095
55.85 -0.00782
55.9 -0.00836
55.95 -0.01103
56 -0.00803
56.05 -0.00422
56.1 -0.00544
56.15 -0.00791
56.2 -0.01254
56.25 -0.01873
56.3 -0.02431
56.35 -0.02625
56.4 -0.02602
56.45 -0.02358
56.5 -0.02223
56.55 -0.02151
56.6 -0.02328
56.65 -0.02357
56.7 -0.02222
56.75 -0.02265
56.8 -0.02326
56.85 -0.02183
56.9 -0.0188
56.95 -0.01448
57 -0.00546
57.05 0.00505
57.1 0.00906
57.15 0.00986
57.2 0.01411
57.25 0.01444
57.3 0.01435
57.35 0.01273
57.4 0.01005
57.45 0.01027
57.5 0.00658
57.55 0.00745
57.6 0.0089
57.65 0.01043
57.7 0.01475
57.75 0.01709
57.8 0.01567
57.85 0.01066
57.9 0.00893
57.95 0.00634
58 0.00882
58.05 0.01066
58.1 0.01358
58.15 0.01492
58.2 0.01459
58.25 0.01119
58.3 0.01193
58.35 0.00932
58.4 0.00501
58.45 0.00209
58.5 0.002
58.55 0.00471
58.6 0.00593
58.65 0.00756
58.7 0.00779
58.75 0.00744
58.8 0.00634
58.85 0.00863
58.9 0.00568
58.95 0.00255
59 0.00049
59.05 0.00108
59.1 0.00511
59.15 0.00365
59.2 0.00408
59.25 -0.00036
59.3 -0.00154
59.35 -0.00374
59.4 -0.00258
59.45 0.00292
59.5 0.00905
59.55 0.01408
59.6 0.01577
59.65 0.01755
59.7 0.0178
59.75 0.01279
59.8 0.01136
59.85 0.00758
59.9 0.00826
59.95 0.00786
60 0.00418
60.05 0.00269
60.1 -0.00142
60.15 -0.00815
60.2 -0.00861
60.25 -0.00968
60.3 -0.00999
60.35 -0.00662
60.4 -0.00329
60.45 -0.00014
60.5 0.00194
60.55 0.00119
60.6 -0.00045
60.65 -0.00073
60.7 -0.00218
60.75 -0.00204
60.8 -0.00569
60.85 -0.01151
60.9 -0.01268
60.95 -0.01233
61 -0.00782
61.05 -0.00823
61.1 -0.00777
61.15 -0.01103
61.2 -0.00786
61.25 -0.00442
61.3 0.0021
61.35 0.01001
61.4 0.01487
61.45 0.01848
61.5 0.02367
61.55 0.02637
61.6 0.02224
61.65 0.01871
61.7 0.0142
61.75 0.00705
61.8 0.00094
61.85 -0.00641
61.9 -0.0125
61.95 -0.01097
62 -0.00865
62.05 -0.00845
62.1 -0.00912
62.15 -0.00536
62.2 -0.00218
62.25 -0.00118
62.3 0.00037
62.35 0.0015
62.4 0.00608
62.45 0.005
62.5 0.00111
62.55 -0.00512
62.6 -0.01273
62.65 -0.01638
62.7 -0.0156
62.75 -0.01442
62.8 -0.00886
62.85 -0.00581
62.9 -0.00204
62.95 -0.00242
63 -0.00592
63.05 -0.00878
63.1 -0.01105
63.15 -0.01238
63.2 -0.01523
63.25 -0.0128
63.3 -0.00676
63.35 -0.00423
63.4 -0.00538
63.45 -0.00935
63.5 -0.0149
63.55 -0.01678
63.6 -0.01998
63.65 -0.02284
63.7 -0.02383
63.75 -0.02567
63.8 -0.0267
63.85 -0.02434
63.9 -0.02285
63.95 -0.02316
64 -0.01871
64.05 -0.01436
64.1 -0.0063
64.15 -0.00272
64.2 0.00128
64.25 0.00547
64.3 0.01006
64.35 0.01548
64.4 0.01847
64.45 0.01788
64.5 0.0195
64.55 0.02362
64.6 0.02785
64.65 0.02728
64.7 0.02893
64.75 0.02792
64.8 0.02537
64.85 0.02263
64.9 0.01473
64.95 0.00693
65 0.00064
65.05 -0.00363
65.1 -0.00992
65.15 -0.01103
65.2 -0.01004
65.25 -0.01215
65.3 -0.01675
65.35 -0.01707
65.4 -0.01649
65.45 -0.01794
65.5 -0.02156
65.55 -0.02124
65.6 -0.01548
65.65 -0.01361
65.7 -0.01079
65.75 -0.00894
65.8 -0.00347
65.85 0.0038
65.9 0.00578
65.95 0.00862
66 0.01408
66.05 0.01817
66.1 0.02392
66.15 0.02665
66.2 0.02859
66.25 0.0278
66.3 0.02497
66.35 0.02034
66.4 0.01582
66.45 0.01491
66.5 0.01641
66.55 0.02034
66.6 0.02214
66.65 0.01965
66.7 0.01469
66.75 0.01473
66.8 0.01268
66.85 0.01206
66.9 0.00718
66.95 0.00197
67 0.00025
67.05 0.00354
67.1 0.00589
67.15 0.00387
67.2 0.0012
67.25 -0.00219
67.3 -0.00065
67.35 0.00476
67.4 0.00838
67.45 0.0119
67.5 0.01097
67.55 0.0054
67.6 0.00509
67.65 0.00259
67.7 -0.00215
67.75 -0.00299
67.8 -0.0079
67.85 -0.01137
67.9 -0.01686
67.95 -0.01556
68 -0.00982
68.05 -0.00189
68.1 0.00225
68.15 0.00832
68.2 0.01018
68.25 0.00702
68.3 0.0028
68.35 -0.00003
68.4 0.00203
68.45 0.00194
68.5 0.00417
68.55 0.00676
68.6 0.01166
68.65 0.0134
68.7 0.01393
68.75 0.01574
68.8 0.01126
68.85 0.00993
68.9 0.00521
68.95 -0.00021
69 -0.00129
69.05 -0.00241
69.1 0.00019
69.15 0.00375
69.2 0.00521
69.25 0.00529
69.3 0.00756
69.35 0.0056
69.4 0.00085
69.45 -0.00204
69.5 -0.00187
69.55 -0.00462
69.6 -0.00377
69.65 -0.00283
69.7 -0.00168
69.75 -0.00414
69.8 -0.003
69.85 0.00182
69.9 0.00132
69.95 -0.00347
70 -0.00891
70.05 -0.01609
70.1 -0.01951
70.15 -0.01923
70.2 -0.01601
70.25 -0.01596
70.3 -0.01913
70.35 -0.02036
70.4 -0.01863
70.45 -0.01614
70.5 -0.01452
70.55 -0.0138
70.6 -0.01173
70.65 -0.00974
70.7 -0.0086
70.75 -0.00571
70.8 -0.00467
70.85 -0.00746
70.9 -0.0116
70.95 -0.01013
71 -0.00949
71.05 -0.00497
71.1 -0.00107
71.15 -0.00028
71.2 -0.00245
71.25 -0.00397
71.3 -0.00646
71.35 -0.00447
71.4 0.0017
71.45 0.00574
71.5 0.00856
71.55 0.01386
71.6 0.01526
71.65 0.01271
71.7 0.01147
71.75 0.00711
71.8 0.00027
71.85 -0.00017
71.9 0.00213
71.95 -0.00073
72 -0.00433
72.05 -0.00473
72.1 -0.00091
72.15 -0.00105
72.2 -0.00313
72.25 -0.00667
72.3 -0.00689
72.35 -0.00456
72.4 0.00098
72.45 0.00429
72.5 0.00686
72.55 0.00697
72.6 0.00755
72.65 0.00545
72.7 0.00581
72.75 0.00397
72.8 0.00281
72.85 0.00404
72.9 0.00772
72.95 0.01338
73 0.01995
73.05 0.02562
73.1 0.02832
73.15 0.02834
73.2 0.02168
73.25 0.01773
73.3 0.0103
73.35 0.00369
73.4 -0.00383
73.45 -0.01005
73.5 -0.01353
73.55 -0.01109
73.6 -0.00705
73.65 -0.00849
73.7 -0.00604
73.75 -0.00219
73.8 -0.0039
73.85 -0.0052
73.9 -0.00174
73.95 0.00151
74 -0.00023
74.05 -0.00028
74.1 0.002
74.15 0.00008
74.2 0.0017
74.25 0.00575
74.3 0.00367
74.35 0.00126
74.4 0.00218
74.45 0.00539
74.5 0.00722
74.55 0.00975
74.6 0.01123
74.65 0.01541
74.7 0.01655
74.75 0.01912
74.8 0.02281
74.85 0.0273
74.9 0.02591
74.95 0.02675
75 0.02898
75.05 0.0239
75.1 0.01865
75.15 0.01622
75.2 0.01426
75.25 0.00859
75.3 0.00682
75.35 0.00101
75.4 -0.00432
75.45 -0.00792
75.5 -0.01068
75.55 -0.0147
75.6 -0.0207
75.65 -0.02543
75.7 -0.02894
75.75 -0.02942
75.8 -0.02628
75.85 -0.0201
75.9 -0.01335
75.95 -0.00587
76 -0.00297
76.05 -0.00101
76.1 -0.00039
76.15 -0.00464
76.2 -0.0115
76.25 -0.01121
76.3 -0.01212
76.35 -0.01514
76.4 -0.02054
76.45 -0.02609
76.5 -0.03074
76.55 -0.02931
76.6 -0.02817
76.65 -0.02957
76.7 -0.02776
76.75 -0.02118
76.8 -0.01376
76.85 -0.00759
76.9 0.00119
76.95 0.00355
77 0.0018
77.05 0.0042
77.1 0.00872
77.15 0.01388
77.2 0.01446
77.25 0.01339
77.3 0.00965
77.35 0.00672
77.4 0.00672
77.45 0.00907
77.5 0.01357
77.55 0.01749
77.6 0.01839
77.65 0.01617
77.7 0.01436
77.75 0.01504
77.8 0.01092
77.85 0.00277
77.9 -0.00237
77.95 -0.00847
78 -0.01106
78.05 -0.01552
78.1 -0.01602
78.15 -0.01931
78.2 -0.01989
78.25 -0.01479
78.3 -0.00874
78.35 -0.00742
78.4 -0.00794
78.45 -0.00346
78.5 -0.00393
78.55 -0.00442
78.6 -0.00182
78.65 -0.00154
78.7 -0.00252
78.75 -0.00701
78.8 -0.01308
78.85 -0.01566
78.9 -0.01334
78.95 -0.0099
79 -0.00796
79.05 -0.00821
79.1 -0.00608
79.15 -0.00303
79.2 -0.00244
79.25 -0.00358
79.3 -0.00514
79.35 -0.00593
79.4 -0.00607
79.45 -0.00734
79.5 -0.00696
79.55 -0.00506
79.6 -0.00037
79.65 0.00046
79.7 0.00055
79.75 0.00208
79.8 0.00598
79.85 0.00438
79.9 0.0058
79.95 0.00377
80 -0.00195
80.05 -0.00709
80.1 -0.01272
80.15 -0.01116
80.2 -0.00841
80.25 -0.00363
80.3 0.00098
80.35 0.00548
80.4 0.01208
80.45 0.0181
80.5 0.02227
80.55 0.02119
80.6 0.02291
80.65 0.02245
80.7 0.02173
80.75 0.01647
80.8 0.01049
80.85 0.00487
80.9 0.00464
80.95 0.00388
81 -0.00055
81.05 -0.00417
81.1 -0.00871
81.15 -0.0118
81.2 -0.01334
81.25 -0.01157
81.3 -0.00574
81.35 -0.0014
81.4 0.00169
81.45 0.00587
81.5 0.00577
81.55 0.00224
81.6 -0.00169
81.65 -0.00211
81.7 -0.00533
81.75 -0.00487
81.8 -0.00363
81.85 -0.00119
81.9 -0.00149
81.95 0.00162
82 0.00294
82.05 0.00081
82.1 -0.00062
82.15 -0.00366
82.2 -0.00786
82.25 -0.00882
82.3 -0.01092
82.35 -0.00865
82.4 -0.00471
82.45 -0.00585
82.5 -0.00825
82.55 -0.01088
82.6 -0.01448
82.65 -0.01562
82.7 -0.01866
82.75 -0.01605
82.8 -0.0112
82.85 -0.00803
82.9 -0.00841
82.95 -0.01081
83 -0.01031
83.05 -0.00476
83.1 -0.00168
83.15 0.00042
83.2 0.00489
83.25 0.00667
83.3 0.01018
83.35 0.00883
83.4 0.00581
83.45 0.00695
83.5 0.00792
83.55 0.00936
83.6 0.01048
83.65 0.01146
83.7 0.00695
83.75 -0.00074
83.8 -0.00611
83.85 -0.01014
83.9 -0.01281
83.95 -0.01126
84 -0.00776
84.05 -0.00654
84.1 -0.00752
84.15 -0.00482
84.2 -0.00438
84.25 -0.00409
84.3 -0.003
84.35 -0.003
84.4 -0.00224
84.45 -0.00272
84.5 -0.00294
84.55 -0.00615
84.6 -0.00597
84.65 -0.00448
84.7 -0.00738
84.75 -0.0057
84.8 -0.00047
84.85 0.00437
84.9 0.00419
84.95 0.00092
85 -0.00355
85.05 -0.0074
85.1 -0.012
85.15 -0.01197
85.2 -0.0088
85.25 -0.00404
85.3 -0.00034
85.35 -0.00174
85.4 0.0008
85.45 0.00053
85.5 0.00262
85.55 0.00484
85.6 0.00246
85.65 0.00023
85.7 0.00271
85.75 0.00136
85.8 -0.00013
85.85 -0.00068
85.9 -0.0021
85.95 -0.0046
86 -0.00852
86.05 -0.00607
86.1 -0.00782
86.15 -0.00658
86.2 -0.00907
86.25 -0.00797
86.3 -0.00818
86.35 -0.0105
86.4 -0.01174
86.45 -0.00746
86.5 -0.00207
86.55 0.00299
86.6 0.00913
86.65 0.01015
86.7 0.00911
86.75 0.00437
86.8 0.00152
86.85 0.0038
86.9 0.00823
86.95 0.00793
87 0.00676
87.05 0.0047
87.1 0.00026
87.15 -0.00517
87.2 -0.00582
87.25 -0.00316
87.3 -0.00417
87.35 -0.00574
87.4 -0.00258
87.45 0.00419
87.5 0.00775
87.55 0.01353
87.6 0.01819
87.65 0.02039
87.7 0.02398
87.75 0.02737
87.8 0.02456
87.85 0.01703
87.9 0.01359
87.95 0.00881
88 0.00792
88.05 0.00638
88.1 0.00419
88.15 0.00129
88.2 -0.00027
88.25 -0.00188
88.3 -0.003
88.35 -0.0008
88.4 0.00076
88.45 0.00551
88.5 0.00457
88.55 0.00136
88.6 -0.00522
88.65 -0.00899
88.7 -0.01023
88.75 -0.01063
88.8 -0.00737
88.85 -0.00132
88.9 0.00304
88.95 0.00152
89 0.00231
89.05 -0.00071
89.1 0.00072
89.15 0.00433
89.2 0.00294
89.25 0.00303
89.3 0.00721
89.35 0.01054
89.4 0.00947
89.45 0.00494
89.5 0.00432
89.55 0.00376
89.6 0.00201
89.65 0.00512
89.7 0.00646
89.75 0.00354
89.8 0.00291
89.85 -0.00216
89.9 -0.0063
89.95 -0.00553
90 -0.00476
90.05 -0.00031
90.1 0.00261
90.15 0.00716
90.2 0.00779
90.25 0.00807
90.3 0.00748
90.35 0.00881
90.4 0.01275
90.45 0.01706
90.5 0.01765
90.55 0.01958
90.6 0.01621
90.65 0.01372
90.7 0.00729
90.75 0.00238
90.8 -0.00071
90.85 -0.00129
90.9 -0.00084
90.95 0.00021
91 0.00484
91.05 0.01104
91.1 0.0174
91.15 0.01698
91.2 0.01719
91.25 0.0165
91.3 0.01707
91.35 0.01973
91.4 0.01919
91.45 0.01493
91.5 0.01108
91.55 0.0043
91.6 -0.00129
91.65 -0.00486
91.7 -0.0097
91.75 -0.01259
91.8 -0.01258
91.85 -0.01224
91.9 -0.00888
91.95 -0.00641
92 -0.00534
92.05 -0.00126
92.1 -0.00047
92.15 0.00254
92.2 0.00586
92.25 0.01085
92.3 0.014
92.35 0.01096
92.4 0.00877
92.45 0.00848
92.5 0.00421
92.55 -0.00005
92.6 -0.00045
92.65 -0.00273
92.7 -0.00133
92.75 -0.00265
92.8 -0.00264
92.85 -0.00657
92.9 -0.01273
92.95 -0.01576
93 -0.01515
93.05 -0.01121
93.1 -0.01191
93.15 -0.00992
93.2 -0.00675
93.25 -0.00027
93.3 0.00626
93.35 0.00559
93.4 0.00381
93.45 0.00546
93.5 0.00679
93.55 0.00883
93.6 0.00918
93.65 0.00528
93.7 0.00174
93.75 0.00184
93.8 0.00367
93.85 -0.00055
93.9 -0.0031
93.95 -0.00201
94 -0.00348
94.05 -0.00783
94.1 -0.01424
94.15 -0.02205
94.2 -0.02722
94.25 -0.02566
94.3 -0.02242
94.35 -0.01825
94.4 -0.01044
94.45 -0.00621
94.5 -0.00697
94.55 -0.00967
94.6 -0.01438
94.65 -0.01411
94.7 -0.01633
94.75 -0.01834
94.8 -0.02283
94.85 -0.02767
94.9 -0.0265
94.95 -0.02465
95 -0.02141
95.05 -0.01752
95.1 -0.01365
95.15 -0.01167
95.2 -0.0131
95.25 -0.01697
95.3 -0.01588
95.35 -0.0097
95.4 -0.0073
95.45 -0.00551
95.5 -0.00214
95.55 0.00136
95.6 0.00606
95.65 0.0062
95.7 0.0085
95.75 0.01128
95.8 0.01454
95.85 0.01273
95.9 0.01052
95.95 0.00586
96 -0.00201
96.05 -0.01007
96.1 -0.01826
96.15 -0.02626
96.2 -0.02754
96.25 -0.02443
96.3 -0.02023
96.35 -0.0164
96.4 -0.01204
96.45 -0.01207
96.5 -0.01426
96.55 -0.00984
96.6 -0.01005
96.65 -0.00899
96.7 -0.0118
96.75 -0.01579
96.8 -0.01598
96.85 -0.0173
96.9 -0.01502
96.95 -0.01517
97 -0.01754
97.05 -0.01535
97.1 -0.00931
97.15 -0.00392
97.2 0.00229
97.25 0.00815
97.3 0.01058
97.35 0.01476
97.4 0.02088
97.45 0.02499
97.5 0.02358
97.55 0.02507
97.6 0.02119
97.65 0.01286
97.7 0.00654
97.75 0.00527
97.8 0.00413
97.85 0.00081
97.9 -0.0001
97.95 0.00169
98 0.0021
98.05 -0.00086
98.1 0.00139
98.15 0.0011
98.2 -0.00066
98.25 -0.00433
98.3 -0.00927
98.35 -0.01111
98.4 -0.01478
98.45 -0.01712
98.5 -0.01347
98.55 -0.01254
98.6 -0.00616
98.65 -0.00149
98.7 -0.00027
98.75 0.00454
98.8 0.00974
98.85 0.01567
98.9 0.01538
98.95 0.01277
99 0.01031
99.05 0.00495
99.1 -0.00021
99.15 -0.00025
99.2 -0.00041
99.25 0.00087
99.3 -0.0025
99.35 -0.00809
99.4 -0.0116
99.45 -0.01317
99.5 -0.01223
99.55 -0.01398
99.6 -0.01026
99.65 -0.00494
99.7 -0.00521
99.75 -0.00848
99.8 -0.01188
99.85 -0.00846
99.9 -0.00326
99.95 -0.00121
