0 0
0.05 0.00508
0.1 0.015
0.15 0.02809
0.2 0.04157
0.25 0.05238
0.3 0.06196
0.35 0.07111
0.4 0.07983
0.45 0.08736
0.5 0.09139
0.55 0.09024
0.6 0.08845
0.65 0.08103
0.7 0.07579
0.75 0.06875
0.8 0.05749
0.85 0.04437
0.9 0.03327
0.95 0.02254
1 0.02098
1.05 0.02125
1.1 0.01971
1.15 0.01644
1.2 0.01732
1.25 0.01519
1.3 0.016
1.35 0.01656
1.4 0.02251
1.45 0.02907
1.5 0.03811
1.55 0.0464
1.6 0.04686
1.65 0.04416
1.7 0.04157
1.75 0.03756
1.8 0.03472
1.85 0.02838
1.9 0.02152
1.95 0.02102
2 0.02226
2.05 0.02373
2.1 0.02455
2.15 0.02941
2.2 0.03702
2.25 0.03789
2.3 0.03698
2.35 0.03838
2.4 0.03802
2.45 0.04038
2.5 0.03736
2.55 0.03243
2.6 0.03268
2.65 0.03651
2.7 0.03394
2.75 0.02973
2.8 0.02333
2.85 0.02343
2.9 0.02059
2.95 0.01512
3 0.01543
3.05 0.01602
3.1 0.0143
3.15 0.0165
3.2 0.01822
3.25 0.021
3.3 0.02013
3.35 0.01584
3.4 0.01383
3.45 0.01151
3.5 0.01087
3.55 0.01435
3.6 0.01568
3.65 0.01855
3.7 0.02385
3.75 0.02563
3.8 0.02566
3.85 0.02541
3.9 0.02519
3.95 0.02155
4 0.0175
4.05 0.01878
4.1 0.02205
4.15 0.02392
4.2 0.02217
4.25 0.01827
4.3 0.01321
4.35 0.00429
4.4 -0.00278
4.45 -0.007
4.5 -0.01729
4.55 -0.03201
4.6 -0.04787
4.65 -0.06436
4.7 -0.08134
4.75 -0.10026
4.8 -0.11895
4.85 -0.14209
4.9 -0.16448
4.95 -0.18738
5 -0.21346
5.05 -0.24674
5.1 -0.28546
5.15 -0.33619
5.2 -0.39384
5.25 -0.45838
5.3 -0.52517
5.35 -0.59096
5.4 -0.65551
5.45 -0.72509
5.5 -0.79725
5.55 -0.86475
5.6 -0.93663
5.65 -1.00258
5.7 -1.06653
5.75 -1.12402
5.8 -1.17925
5.85 -1.23187
5.9 -1.2729
5.95 -1.30501
6 -1.32695
6.05 -1.34262
6.1 -1.35743
6.15 -1.36173
6.2 -1.36125
6.25 -1.35274
6.3 -1.34107
6.35 -1.32544
6.4 -1.29596
6.45 -1.25833
6.5 -1.21995
6.55 -1.17042
6.6 -1.11199
6.65 -1.05076
6.7 -0.98945
6.75 -0.91978
6.8 -0.84282
6.85 -0.76203
6.9 -0.67855
6.95 -0.59205
7 -0.4975
7.05 -0.40226
7.1 -0.30826
7.15 -0.21166
7.2 -0.11383
7.25 -0.00898
7.3 0.09863
7.35 0.1988
7.4 0.29615
7.45 0.38725
7.5 0.47469
7.55 0.56243
7.6 0.64984
7.65 0.73265
7.7 0.80628
7.75 0.87171
7.8 0.9284
7.85 0.98304
7.9 1.03336
7.95 1.07042
8 1.09871
8.05 1.12018
8.1 1.13975
8.15 1.15867
8.2 1.16889
8.25 1.1714
8.3 1.17319
8.35 1.17758
8.4 1.1827
8.45 1.17966
8.5 1.17122
8.55 1.16563
8.6 1.15828
8.65 1.14919
8.7 1.13519
8.75 1.12193
8.8 1.10115
8.85 1.07962
8.9 1.0595
8.95 1.03637
9 1.0179
9.05 0.99323
9.1 0.97203
9.15 0.95068
9.2 0.92622
9.25 0.90084
9.3 0.88111
9.35 0.85918
9.4 0.83547
9.45 0.81387
9.5 0.78908
9.55 0.76814
9.6 0.75219
9.65 0.73829
9.7 0.72098
9.75 0.69766
9.8 0.67266
9.85 0.64545
9.9 0.62109
9.95 0.59972
10 0.57993
10.05 0.56113
10.1 0.54701
10.15 0.53137
10.2 0.51951
10.25 0.50529
10.3 0.48667
10.35 0.47056
10.4 0.45945
10.45 0.44746
10.5 0.43785
10.55 0.42724
10.6 0.41516
10.65 0.39975
10.7 0.38691
10.75 0.37386
10.8 0.35585
10.85 0.33865
10.9 0.31664
10.95 0.29793
11 0.27874
11.05 0.25956
11.1 0.2393
11.15 0.2224
11.2 0.20138
11.25 0.18124
11.3 0.16594
11.35 0.14806
11.4 0.13134
11.45 0.11742
11.5 0.10611
11.55 0.09509
11.6 0.08062
11.65 0.06904
11.7 0.05481
11.75 0.03624
11.8 0.02182
11.85 0.00444
11.9 -0.01563
11.95 -0.03409
12 -0.0475
12.05 -0.05679
12.1 -0.06524
12.15 -0.07349
12.2 -0.0855
12.25 -0.09686
12.3 -0.10964
12.35 -0.12317
12.4 -0.12877
12.45 -0.13298
12.5 -0.13261
12.55 -0.13583
12.6 -0.13719
12.65 -0.14181
12.7 -0.14696
12.75 -0.15352
12.8 -0.1559
12.85 -0.15803
12.9 -0.16374
12.95 -0.16466
13 -0.1656
13.05 -0.16833
13.1 -0.16846
13.15 -0.1653
13.2 -0.16112
13.25 -0.15845
13.3 -0.15764
13.35 -0.15494
13.4 -0.15188
13.45 -0.15101
13.5 -0.15767
13.55 -0.16289
13.6 -0.16694
13.65 -0.17112
13.7 -0.17618
13.75 -0.17776
13.8 -0.18208
13.85 -0.181
13.9 -0.17958
13.95 -0.17963
14 -0.17438
14.05 -0.16788
14.1 -0.1623
14.15 -0.1612
14.2 -0.15745
14.25 -0.15529
14.3 -0.15421
14.35 -0.15263
14.4 -0.15015
14.45 -0.14574
14.5 -0.14091
14.55 -0.14066
14.6 -0.13896
14.65 -0.14063
14.7 -0.14227
14.75 -0.14674
14.8 -0.15225
14.85 -0.15287
14.9 -0.15309
14.95 -0.15248
15 -0.15266
15.05 -0.14952
15.1 -0.14732
15.15 -0.14085
15.2 -0.13212
15.25 -0.12873
15.3 -0.12919
15.35 -0.12766
15.4 -0.12189
15.45 -0.12109
15.5 -0.11734
15.55 -0.11242
15.6 -0.11103
15.65 -0.11306
15.7 -0.11807
15.75 -0.12023
15.8 -0.12482
15.85 -0.12411
15.9 -0.1248
15.95 -0.12662
16 -0.12395
16.05 -0.1192
16.1 -0.11574
16.15 -0.11622
16.2 -0.11057
16.25 -0.10527
16.3 -0.0977
16.35 -0.09169
16.4 -0.08427
16.45 -0.08062
16.5 -0.07667
16.55 -0.07845
16.6 -0.07724
16.65 -0.07341
16.7 -0.07222
16.75 -0.07398
16.8 -0.07502
16.85 -0.07583
16.9 -0.07739
16.95 -0.08079
17 -0.08322
17.05 -0.08353
17.1 -0.08325
17.15 -0.0829
17.2 -0.07875
17.25 -0.07365
17.3 -0.06786
17.35 -0.06783
17.4 -0.0658
17.45 -0.06131
17.5 -0.06307
17.55 -0.06207
17.6 -0.061
17.65 -0.06132
17.7 -0.06118
17.75 -0.05946
17.8 -0.05642
17.85 -0.05592
17.9 -0.05934
17.95 -0.05707
18 -0.05281
18.05 -0.05207
18.1 -0.04985
18.15 -0.05077
18.2 -0.05091
18.25 -0.05438
18.3 -0.06003
18.35 -0.06521
18.4 -0.07136
18.45 -0.07496
18.5 -0.07572
18.55 -0.07036
18.6 -0.06445
18.65 -0.05774
18.7 -0.05091
18.75 -0.04522
18.8 -0.04358
18.85 -0.03958
18.9 -0.0325
18.95 -0.03232
19 -0.02786
19.05 -0.02461
19.1 -0.02019
19.15 -0.01561
19.2 -0.01657
19.25 -0.02083
19.3 -0.025
19.35 -0.03049
19.4 -0.03654
19.45 -0.04073
19.5 -0.03918
19.55 -0.03677
19.6 -0.03253
19.65 -0.02628
19.7 -0.02435
19.75 -0.02604
19.8 -0.02995
19.85 -0.03307
19.9 -0.03481
19.95 -0.03236
20 -0.02665
20.05 -0.02029
20.1 -0.01489
20.15 -0.01471
20.2 -0.01347
20.25 -0.01799
20.3 -0.02287
20.35 -0.0307
20.4 -0.03498
20.45 -0.03976
20.5 -0.04249
20.55 -0.04348
20.6 -0.04079
20.65 -0.04222
20.7 -0.0445
20.75 -0.04146
20.8 -0.03987
20.85 -0.04144
20.9 -0.04199
20.95 -0.04321
21 -0.04254
21.05 -0.03644
21.1 -0.03137
21.15 -0.02884
21.2 -0.03069
21.25 -0.02913
21.3 -0.02868
21.35 -0.02463
21.4 -0.02336
21.45 -0.01953
21.5 -0.02046
21.55 -0.01722
21.6 -0.01194
21.65 -0.01112
21.7 -0.01488
21.75 -0.01282
21.8 -0.01168
21.85 -0.01306
21.9 -0.01154
21.95 -0.00759
22 -0.00294
22.05 -0.00177
22.1 -0.00565
22.15 -0.00584
22.2 -0.00409
22.25 -0.00269
22.3 -0.00057
22.35 -0.00454
22.4 -0.01227
22.45 -0.01517
22.5 -0.02063
22.55 -0.02193
22.6 -0.01893
22.65 -0.01441
22.7 -0.00761
22.75 -0.00335
22.8 -0.00395
22.85 -0.00428
22.9 -0.0084
22.95 -0.0095
23 -0.01118
23.05 -0.01385
23.1 -0.0115
23.15 -0.00787
23.2 -0.004
23.25 -0.0059
23.3 -0.00443
23.35 -0.0043
23.4 -0.00794
23.45 -0.00965
23.5 -0.00998
23.55 -0.01458
23.6 -0.01349
23.65 -0.01133
23.7 -0.00973
23.75 -0.01231
23.8 -0.01017
23.85 -0.0072
23.9 -0.00683
23.95 -0.0109
24 -0.01089
24.05 -0.01281
24.1 -0.01469
24.15 -0.01121
24.2 -0.01058
24.25 -0.00977
24.3 -0.01244
24.35 -0.00923
24.4 -0.0074
24.45 -0.00655
24.5 -0.00707
24.55 -0.00505
24.6 -0.00404
24.65 -0.00653
24.7 -0.00405
24.75 0.00057
24.8 0.00015
24.85 -0.00132
24.9 -0.00146
24.95 -0.00462
25 -0.01031
25.05 -0.01489
25.1 -0.02052
25.15 -0.01887
25.2 -0.01849
25.25 -0.02105
25.3 -0.02316
25.35 -0.0192
25.4 -0.0142
25.45 -0.01331
25.5 -0.01443
25.55 -0.01765
25.6 -0.0161
25.65 -0.01105
25.7 -0.01109
25.75 -0.00712
25.8 -0.00083
25.85 0.00261
25.9 0.00507
25.95 0.00484
26 0.00701
26.05 0.00339
26.1 -0.00006
26.15 0.00208
26.2 0.00375
26.25 0.00815
26.3 0.00597
26.35 0.00157
26.4 -0.00122
26.45 -0.00159
26.5 -0.00301
26.55 -0.00374
26.6 -0.00707
26.65 -0.00594
26.7 -0.00706
26.75 -0.00802
26.8 -0.01152
26.85 -0.01288
26.9 -0.01059
26.95 -0.01112
27 -0.01188
27.05 -0.0136
27.1 -0.0164
27.15 -0.01496
27.2 -0.0122
27.25 -0.00689
27.3 -0.00164
27.35 -0.00071
27.4 -0.00028
27.45 -0.00122
27.5 -0.00089
27.55 -0.00145
27.6 0.00116
27.65 0.00577
27.7 0.00396
27.75 -0.00453
27.8 -0.01479
27.85 -0.02233
27.9 -0.03374
27.95 -0.04387
28 -0.05425
28.05 -0.06387
28.1 -0.07364
28.15 -0.08034
28.2 -0.09169
28.25 -0.1023
28.3 -0.112
28.35 -0.1231
28.4 -0.14062
28.45 -0.15914
28.5 -0.18674
28.55 -0.21551
28.6 -0.25215
28.65 -0.28651
28.7 -0.32525
28.75 -0.36481
28.8 -0.40709
28.85 -0.45422
28.9 -0.50992
28.95 -0.5726
29 -0.63404
29.05 -0.69622
29.1 -0.75566
29.15 -0.81829
29.2 -0.87861
29.25 -0.94505
29.3 -1.01152
29.35 -1.07545
29.4 -1.14248
29.45 -1.20862
29.5 -1.26827
29.55 -1.32501
29.6 -1.37242
29.65 -1.41205
29.7 -1.44326
29.75 -1.46361
29.8 -1.47577
29.85 -1.48483
29.9 -1.49046
29.95 -1.48739
30 -1.47446
30.05 -1.45288
30.1 -1.41937
30.15 -1.37025
30.2 -1.3107
30.25 -1.2396
30.3 -1.162
30.35 -1.07472
30.4 -0.98229
30.45 -0.88766
30.5 -0.78328
30.55 -0.67065
30.6 -0.5586
30.65 -0.44373
30.7 -0.33366
30.75 -0.22665
30.8 -0.11754
30.85 -0.01065
30.9 0.08982
30.95 0.18646
31 0.283
31.05 0.37983
31.1 0.46748
31.15 0.54983
31.2 0.62332
31.25 0.68797
31.3 0.75269
31.35 0.81041
31.4 0.86488
31.45 0.91581
31.5 0.95816
31.55 0.99437
31.6 1.02379
31.65 1.05042
31.7 1.06792
31.75 1.08013
31.8 1.09159
31.85 1.10481
31.9 1.11538
31.95 1.12684
32 1.13602
32.05 1.13954
32.1 1.14832
32.15 1.15417
32.2 1.15754
32.25 1.16308
32.3 1.16842
32.35 1.16817
32.4 1.17163
32.45 1.17094
32.5 1.16753
32.55 1.16051
32.6 1.15352
32.65 1.14344
32.7 1.13733
32.75 1.13189
32.8 1.12087
32.85 1.10626
32.9 1.08884
32.95 1.07649
33 1.06147
33.05 1.04442
33.1 1.02304
33.15 0.99834
33.2 0.97637
33.25 0.95107
33.3 0.92274
33.35 0.89256
33.4 0.86172
33.45 0.83604
33.5 0.80822
33.55 0.78584
33.6 0.75981
33.65 0.73067
33.7 0.69954
33.75 0.67101
33.8 0.64633
33.85 0.62005
33.9 0.59211
33.95 0.56411
34 0.53353
34.05 0.50066
34.1 0.46884
34.15 0.44269
34.2 0.41305
34.25 0.3825
34.3 0.35464
34.35 0.33463
34.4 0.31333
34.45 0.29043
34.5 0.27202
34.55 0.25325
34.6 0.23498
34.65 0.21972
34.7 0.20466
34.75 0.1881
34.8 0.16634
34.85 0.14317
34.9 0.12106
34.95 0.10344
35 0.08363
35.05 0.06886
35.1 0.05333
35.15 0.03451
35.2 0.0189
35.25 0.00639
35.3 -0.01005
35.35 -0.02185
35.4 -0.03037
35.45 -0.03585
35.5 -0.04428
35.55 -0.05672
35.6 -0.06776
35.65 -0.08031
35.7 -0.09113
35.75 -0.09747
35.8 -0.10125
35.85 -0.10712
35.9 -0.11083
35.95 -0.11795
36 -0.12123
36.05 -0.12653
36.1 -0.13278
36.15 -0.13954
36.2 -0.14628
36.25 -0.14952
36.3 -0.15663
36.35 -0.15875
36.4 -0.16478
36.45 -0.16869
36.5 -0.1734
36.55 -0.18088
36.6 -0.18504
36.65 -0.19136
36.7 -0.19784
36.75 -0.19892
36.8 -0.20173
36.85 -0.20529
36.9 -0.20604
36.95 -0.20749
37 -0.20547
37.05 -0.20129
37.1 -0.19674
37.15 -0.19023
37.2 -0.19045
37.25 -0.19244
37.3 -0.19071
37.35 -0.18665
37.4 -0.18798
37.45 -0.18569
37.5 -0.18675
37.55 -0.18906
37.6 -0.18926
37.65 -0.18431
37.7 -0.18071
37.75 -0.17311
37.8 -0.17093
37.85 -0.16886
37.9 -0.16593
37.95 -0.16312
38 -0.15743
38.05 -0.15377
38.1 -0.15281
38.15 -0.15624
38.2 -0.15687
38.25 -0.1589
38.3 -0.1553
38.35 -0.14962
38.4 -0.14873
38.45 -0.14692
38.5 -0.14208
38.55 -0.13778
38.6 -0.133
38.65 -0.13387
38.7 -0.13402
38.75 -0.1304
38.8 -0.12834
38.85 -0.12369
38.9 -0.12444
38.95 -0.12714
39 -0.12976
39.05 -0.13483
39.1 -0.13846
39.15 -0.13947
39.2 -0.13571
39.25 -0.13549
39.3 -0.13463
39.35 -0.13005
39.4 -0.12074
39.45 -0.11456
39.5 -0.11199
39.55 -0.10899
39.6 -0.11028
39.65 -0.11104
39.7 -0.11397
39.75 -0.11444
39.8 -0.11081
39.85 -0.11033
39.9 -0.10622
39.95 -0.09794
40 -0.0893
40.05 -0.08512
40.1 -0.08433
40.15 -0.08459
40.2 -0.08589
40.25 -0.08181
40.3 -0.07738
40.35 -0.07716
40.4 -0.07417
40.45 -0.07045
40.5 -0.06952
40.55 -0.07112
40.6 -0.072
40.65 -0.07722
40.7 -0.08353
40.75 -0.08343
40.8 -0.08133
40.85 -0.08238
40.9 -0.07867
40.95 -0.07464
41 -0.07254
41.05 -0.07463
41.1 -0.07121
41.15 -0.06815
41.2 -0.06272
41.25 -0.05545
41.3 -0.05327
41.35 -0.0554
41.4 -0.05639
41.45 -0.05717
41.5 -0.05993
41.55 -0.0637
41.6 -0.06159
41.65 -0.06221
41.7 -0.06613
41.75 -0.07057
41.8 -0.07379
41.85 -0.07137
41.9 -0.07191
41.95 -0.07294
42 -0.07056
42.05 -0.06642
42.1 -0.05898
42.15 -0.05299
42.2 -0.04516
42.25 -0.04347
42.3 -0.04041
42.35 -0.03958
42.4 -0.04065
42.45 -0.03792
42.5 -0.03589
42.55 -0.03097
42.6 -0.02727
42.65 -0.028
42.7 -0.03017
42.75 -0.03372
42.8 -0.03446
42.85 -0.03559
42.9 -0.04019
42.95 -0.04509
43 -0.04281
43.05 -0.0387
43.1 -0.03677
43.15 -0.03469
43.2 -0.02976
43.25 -0.02315
43.3 -0.01507
43.35 -0.01362
43.4 -0.01036
43.45 -0.01197
43.5 -0.01361
43.55 -0.02023
43.6 -0.02804
43.65 -0.03116
43.7 -0.03229
43.75 -0.03715
43.8 -0.03593
43.85 -0.03705
43.9 -0.03439
43.95 -0.03042
44 -0.03114
44.05 -0.03518
44.1 -0.04136
44.15 -0.0455
44.2 -0.05059
44.25 -0.0539
44.3 -0.05297
44.35 -0.05092
44.4 -0.04468
44.45 -0.0362
44.5 -0.03095
44.55 -0.02578
44.6 -0.02099
44.65 -0.01303
44.7 -0.00877
44.75 -0.00506
44.8 -0.00323
44.85 -0.00782
44.9 -0.01399
44.95 -0.01857
45 -0.0241
45.05 -0.02405
45.1 -0.02401
45.15 -0.02015
45.2 -0.01888
45.25 -0.02203
45.3 -0.02455
45.35 -0.02123
45.4 -0.01694
45.45 -0.01632
45.5 -0.01465
45.55 -0.01537
45.6 -0.01423
45.65 -0.01472
45.7 -0.01434
45.75 -0.01265
45.8 -0.01364
45.85 -0.01635
45.9 -0.02161
45.95 -0.02036
46 -0.01866
46.05 -0.01992
46.1 -0.01849
46.15 -0.01467
46.2 -0.01235
46.25 -0.00791
46.3 -0.00363
46.35 -0.00092
46.4 0.00257
46.45 0.00443
46.5 0.00506
46.55 0.00406
46.6 0.00409
46.65 -0.00082
46.7 -0.00222
46.75 -0.00471
46.8 -0.00568
46.85 -0.01066
46.9 -0.01498
46.95 -0.0173
47 -0.01356
47.05 -0.01314
47.1 -0.00799
47.15 -0.00175
47.2 -0.00134
47.25 0.00262
47.3 0.00283
47.35 -0.00113
47.4 0.00034
47.45 0.00029
47.5 -0.00409
47.55 -0.00576
47.6 -0.01009
47.65 -0.01332
47.7 -0.01093
47.75 -0.00559
47.8 0.00132
47.85 0.00331
47.9 0.0051
47.95 0.00624
48 0.00819
48.05 0.00651
48.1 0.00169
48.15 0.00123
48.2 0.00147
48.25 0.00485
48.3 0.00787
48.35 0.00974
48.4 0.00899
48.45 0.0045
48.5 -0.0029
48.55 -0.00441
48.6 -0.00268
48.65 -0.00085
48.7 -0.0016
48.75 0.0001
48.8 0.00245
48.85 0.00666
48.9 0.01248
48.95 0.01132
49 0.01061
49.05 0.01264
49.1 0.01309
49.15 0.01445
49.2 0.01032
49.25 0.00677
49.3 -0.00101
49.35 -0.00979
49.4 -0.01236
49.45 -0.01333
49.5 -0.01465
49.55 -0.01411
49.6 -0.01699
49.65 -0.01634
49.7 -0.01068
49.75 -0.0112
49.8 -0.01057
49.85 -0.00768
49.9 -0.00541
49.95 -0.00854
50 -0.01241
50.05 -0.01419
50.1 -0.01814
50.15 -0.02315
50.2 -0.02677
50.25 -0.0259
50.3 -0.02338
50.35 -0.02407
50.4 -0.02351
50.45 -0.02253
50.5 -0.01605
50.55 -0.00965
50.6 -0.00179
50.65 0.00745
50.7 0.00979
50.75 0.00635
50.8 -0.00126
50.85 -0.00835
50.9 -0.00812
50.95 -0.0097
51 -0.01437
51.05 -0.01909
51.1 -0.0221
51.15 -0.02287
51.2 -0.01854
51.25 -0.01296
51.3 -0.00925
51.35 -0.00381
51.4 -0.00444
51.45 -0.00357
51.5 -0.00631
51.55 -0.00859
51.6 -0.00562
51.65 -0.00452
51.7 -0.00549
51.75 -0.00799
51.8 -0.0073
51.85 -0.0092
51.9 -0.01188
51.95 -0.01213
52 -0.01142
52.05 -0.00891
52.1 -0.00363
52.15 -0.00264
52.2 -0.00309
52.25 -0.00114
52.3 -0.00022
52.35 -0.00263
52.4 -0.0067
52.45 -0.01108
52.5 -0.01032
52.55 -0.01168
52.6 -0.01517
52.65 -0.01759
52.7 -0.0137
52.75 -0.00944
52.8 -0.00419
52.85 -0.00321
52.9 -0.0024
52.95 0.0001
53 0.003
53.05 0.0041
53.1 0.00575
53.15 0.01039
53.2 0.00919
53.25 0.00981
53.3 0.0126
53.35 0.01577
53.4 0.01801
53.45 0.02052
53.5 0.01951
53.55 0.01938
53.6 0.02143
53.65 0.02056
53.7 0.01463
53.75 0.00972
53.8 0.00131
53.85 -0.00038
53.9 0.00195
53.95 0.00147
54 0.00199
54.05 0.00629
54.1 0.00682
54.15 0.00485
54.2 -0.00122
54.25 -0.00287
54.3 0.00015
54.35 -0.00098
54.4 0.00057
54.45 0.00355
54.5 0.00252
54.55 -0.00137
54.6 -0.0074
54.65 -0.01207
54.7 -0.01487
54.75 -0.01625
54.8 -0.01334
54.85 -0.0122
54.9 -0.01142
54.95 -0.01285
55 -0.0083
55.05 -0.00225
55.1 -0.00225
55.15 -0.0065
55.2 -0.00569
55.25 -0.0018
55.3 0.00534
55.35 0.00981
55.4 0.0123
55.45 0.00846
55.5 0.00756
55.55 0.00434
55.6 0.00624
55.65 0.00811
55.7 0.01275
55.75 0.01635
55.8 0.01898
55.85 0.02348
55.9 0.02574
55.95 0.0223
56 0.01651
56.05 0.01526
56.1 0.00817
56.15 0.00385
56.2 -0.00307
56.25 -0.00759
56.3 -0.01127
56.35 -0.00929
56.4 -0.00612
56.45 -0.00463
56.5 -0.0042
56.55 -0.00626
56.6 -0.01047
56.65 -0.00829
56.7 -0.00898
56.75 -0.01326
56.8 -0.01088
56.85 -0.00514
56.9 0.00056
56.95 0.00376
57 0.00597
57.05 0.00738
57.1 0.0108
57.15 0.01164
57.2 0.01207
57.25 0.011
57.3 0.00743
57.35 0.00499
57.4 -0.00107
57.45 -0.00514
57.5 -0.00329
57.55 -0.00589
57.6 -0.01181
57.65 -0.01254
57.7 -0.012
57.75 -0.01085
57.8 -0.00768
57.85 -0.0022
57.9 -0.00137
57.95 -0.00355
58 -0.0081
58.05 -0.00995
58.1 -0.00835
58.15 -0.00458
58.2 -0.00043
58.25 -0.00061
58.3 -0.00188
58.35 -0.00672
58.4 -0.01133
58.45 -0.00953
58.5 -0.00636
58.55 -0.00253
58.6 -0.00386
58.65 -0.00375
58.7 -0.00269
58.75 -0.00366
58.8 -0.00316
58.85 -0.00577
58.9 -0.00412
58.95 -0.00496
59 -0.00846
59.05 -0.0062
59.1 -0.00409
59.15 0.00209
59.2 0.01021
59.25 0.01626
59.3 0.01977
59.35 0.01788
59.4 0.0141
59.45 0.00983
59.5 0.00424
59.55 -0.00183
59.6 -0.00306
59.65 -0.00214
59.7 -0.00316
59.75 -0.00659
59.8 -0.01204
59.85 -0.0135
59.9 -0.01181
59.95 -0.01408
60 -0.01796
60.05 -0.02258
60.1 -0.02359
60.15 -0.01983
60.2 -0.01982
60.25 -0.01797
60.3 -0.01797
60.35 -0.01263
60.4 -0.00462
60.45 0.00086
60.5 0.00838
60.55 0.00941
60.6 0.01025
60.65 0.01221
60.7 0.01423
60.75 0.01248
60.8 0.0113
60.85 0.00894
60.9 0.01078
60.95 0.00633
61 0.00371
61.05 0.00604
61.1 0.00682
61.15 0.00346
61.2 -0.00277
61.25 -0.00697
61.3 -0.00779
61.35 -0.00817
61.4 -0.00422
61.45 -0.00039
61.5 -0.00227
61.55 -0.00259
61.6 -0.00556
61.65 -0.00449
61.7 -0.00211
61.75 -0.00132
61.8 -0.0024
61.85 -0.00453
61.9 -0.00534
61.95 -0.00144
62 0.00483
62.05 0.00765
62.1 0.00458
62.15 -0.00209
62.2 -0.00926
62.25 -0.01545
62.3 -0.02085
62.35 -0.02344
62.4 -0.02446
62.45 -0.02319
62.5 -0.01594
62.55 -0.00766
62.6 0.00119
62.65 0.00415
62.7 0.00504
62.75 0.00678
62.8 0.01107
62.85 0.01716
62.9 0.02204
62.95 0.02425
63 0.02753
63.05 0.02759
63.1 0.02855
63.15 0.02409
63.2 0.01592
63.25 0.01072
63.3 0.00902
63.35 0.00986
63.4 0.01038
63.45 0.0118
63.5 0.01242
63.55 0.01417
63.6 0.01248
63.65 0.00813
63.7 0.00354
63.75 0.00086
63.8 -0.00549
63.85 -0.00882
63.9 -0.01113
63.95 -0.01183
64 -0.00859
64.05 -0.00792
64.1 -0.00806
64.15 -0.00634
64.2 -0.00382
64.25 -0.00486
64.3 -0.00137
64.35 -0.00289
64.4 -0.00366
64.45 -0.00507
64.5 -0.00967
64.55 -0.01525
64.6 -0.01493
64.65 -0.01463
64.7 -0.01288
64.75 -0.01383
64.8 -0.0146
64.85 -0.01175
64.9 -0.00508
64.95 0.00187
65 0.00155
65.05 0.00396
65.1 0.00915
65.15 0.01611
65.2 0.01656
65.25 0.01312
65.3 0.00768
65.35 0.00101
65.4 -0.00338
65.45 -0.01025
65.5 -0.01209
65.55 -0.00807
65.6 -0.00913
65.65 -0.00838
65.7 -0.00644
65.75 -0.0027
65.8 0.00048
65.85 0.0004
65.9 0.00215
65.95 0.0019
66 0.0027
66.05 0.00114
66.1 -0.003
66.15 -0.00567
66.2 -0.01168
66.25 -0.01117
66.3 -0.00762
66.35 -0.00919
66.4 -0.00683
66.45 -0.00913
66.5 -0.00964
66.55 -0.00522
66.6 -0.00086
66.65 0.00461
66.7 0.00969
66.75 0.01494
66.8 0.01285
66.85 0.00644
66.9 0.00232
66.95 -0.00305
67 -0.00246
67.05 -0.00663
67.1 -0.00468
67.15 -0.00192
67.2 -0.00261
67.25 -0.00054
67.3 0.00025
67.35 0.00212
67.4 0.00253
67.45 0.00364
67.5 0.00252
67.55 -0.00194
67.6 -0.00903
67.65 -0.00904
67.7 -0.00443
67.75 -0.00132
67.8 0.0011
67.85 0.0027
67.9 0.0031
67.95 0.00667
68 0.00531
68.05 0.00728
68.1 0.01166
68.15 0.01146
68.2 0.00827
68.25 0.0023
68.3 -0.00237
68.35 -0.00826
68.4 -0.01174
68.45 -0.01763
68.5 -0.02105
68.55 -0.01792
68.6 -0.01137
68.65 -0.00688
68.7 -0.00235
68.75 0.00225
68.8 0.00394
68.85 0.00727
68.9 0.00769
68.95 0.01135
69 0.01496
69.05 0.01913
69.1 0.01963
69.15 0.01669
69.2 0.01672
69.25 0.01588
69.3 0.0161
69.35 0.01513
69.4 0.01495
69.45 0.01225
69.5 0.0104
69.55 0.00967
69.6 0.00975
69.65 0.00499
69.7 0.00536
69.75 0.00914
69.8 0.01371
69.85 0.01972
69.9 0.02338
69.95 0.0265
70 0.0298
70.05 0.02517
70.1 0.01681
70.15 0.00624
70.2 -0.00105
70.25 -0.0081
70.3 -0.00923
70.35 -0.01027
70.4 -0.00958
70.45 -0.01151
70.5 -0.01042
70.55 -0.01211
70.6 -0.01293
70.65 -0.0172
70.7 -0.02223
70.75 -0.02783
70.8 -0.02502
70.85 -0.01818
70.9 -0.0139
70.95 -0.00886
71 -0.00855
71.05 -0.00668
71.1 -0.00212
71.15 0.00285
71.2 0.0043
71.25 0.00017
71.3 0.00135
71.35 -0.00273
71.4 -0.00578
71.45 -0.0082
71.5 -0.01119
71.55 -0.01051
71.6 -0.00644
71.65 -0.00248
71.7 0.00418
71.75 0.00703
71.8 0.00967
71.85 0.01254
71.9 0.01505
71.95 0.01733
72 0.01495
72.05 0.01164
72.1 0.0037
72.15 0.00172
72.2 -0.00401
72.25 -0.00384
72.3 -0.00169
72.35 0.00003
72.4 0.00139
72.45 0.00121
72.5 0.00153
72.55 0.00481
72.6 0.00321
72.65 0.0028
72.7 0.00085
72.75 0.00085
72.8 -0.00072
72.85 -0.00584
72.9 -0.00576
72.95 -0.00143
73 -0.00175
73.05 -0.0015
73.1 -0.00118
73.15 -0.00084
73.2 0.00099
73.25 0.00435
73.3 0.00623
73.35 0.00748
73.4 0.00385
73.45 0.00462
73.5 -0.00001
73.55 -0.0057
73.6 -0.00673
73.65 -0.00851
73.7 -0.01216
73.75 -0.01792
73.8 -0.01792
73.85 -0.01932
73.9 -0.01759
73.95 -0.01687
74 -0.01834
74.05 -0.01719
74.1 -0.01602
74.15 -0.01869
74.2 -0.01997
74.25 -0.02221
74.3 -0.02143
74.35 -0.01979
74.4 -0.01252
74.45 -0.01029
74.5 -0.00671
74.55 0.00008
74.6 -0.0004
74.65 -0.00028
74.7 0.00289
74.75 0.00807
74.8 0.01366
74.85 0.01848
74.9 0.02147
74.95 0.02041
75 0.01625
75.05 0.01352
75.1 0.00731
75.15 0.00012
75.2 -0.00767
75.25 -0.00868
75.3 -0.01077
75.35 -0.01104
75.4 -0.00632
75.45 -0.00264
75.5 0.00165
75.55 0.00767
75.6 0.01278
75.65 0.01636
75.7 0.01595
75.75 0.01456
75.8 0.01083
75.85 0.00303
75.9 -0.00671
75.95 -0.01134
76 -0.01652
76.05 -0.01557
76.1 -0.0181
76.15 -0.01615
76.2 -0.01192
76.25 -0.00569
76.3 -0.0016
76.35 -0.00306
76.4 -0.00001
76.45 0.00545
76.5 0.00968
76.55 0.01442
76.6 0.0165
76.65 0.01895
76.7 0.01514
76.75 0.01161
76.8 0.00826
76.85 0.00241
76.9 0.00172
76.95 -0.0015
77 0.0008
77.05 -0.00218
77.1 -0.00405
77.15 -0.00647
77.2 -0.00305
77.25 -0.00495
77.3 -0.00879
77.35 -0.00816
77.4 -0.00488
77.45 -0.0013
77.5 0.00384
77.55 0.00267
77.6 -0.00043
77.65 -0.00503
77.7 -0.00879
77.75 -0.00924
77.8 -0.00956
77.85 -0.0079
77.9 -0.00355
77.95 0.00226
78 0.0027
78.05 -0.00121
78.1 -0.00124
78.15 -0.00521
78.2 -0.00542
78.25 -0.00624
78.3 -0.01074
78.35 -0.01061
78.4 -0.00541
78.45 -0.00567
78.5 -0.00479
78.55 -0.00042
78.6 -0.00041
78.65 0.00377
78.7 0.00277
78.75 0.00285
78.8 0.00016
78.85 -0.00413
78.9 -0.00568
78.95 -0.00835
79 -0.00743
79.05 -0.00985
79.1 -0.01468
79.15 -0.01413
79.2 -0.01707
79.25 -0.01421
79.3 -0.00841
79.35 -0.00219
79.4 0.00022
79.45 -0.00182
79.5 -0.00375
79.55 -0.00286
79.6 -0.00015
79.65 0.00343
79.7 0.00755
79.75 0.01032
79.8 0.00899
79.85 0.00727
79.9 0.00792
79.95 0.00887
80 0.00903
80.05 0.00627
80.1 0.00764
80.15 0.00954
80.2 0.00718
80.25 0.00653
80.3 0.00264
80.35 -0.00062
80.4 -0.00612
80.45 -0.0132
80.5 -0.01734
80.55 -0.01759
80.6 -0.01826
80.65 -0.01632
80.7 -0.01366
80.75 -0.00857
80.8 -0.00323
80.85 0.00199
80.9 0.00644
80.95 0.00562
81 0.00216
81.05 -0.00416
81.1 -0.00459
81.15 -0.00808
81.2 -0.00712
81.25 -0.00766
81.3 -0.00853
81.35 -0.01104
81.4 -0.01301
81.45 -0.0095
81.5 -0.00444
81.55 0.00358
81.6 0.01194
81.65 0.01513
81.7 0.01332
81.75 0.01268
81.8 0.00876
81.85 0.00752
81.9 0.00915
81.95 0.00636
82 0.0076
82.05 0.0077
82.1 0.00253
82.15 -0.00429
82.2 -0.00968
82.25 -0.01131
82.3 -0.00809
82.35 -0.00412
82.4 -0.0018
82.45 0.00092
82.5 -0.0007
82.55 -0.00319
82.6 -0.00914
82.65 -0.01287
82.7 -0.01585
82.75 -0.01666
82.8 -0.01291
82.85 -0.01283
82.9 -0.01002
82.95 -0.00336
83 -0.0007
83.05 -0.00055
83.1 -0.00409
83.15 -0.0073
83.2 -0.0101
83.25 -0.00785
83.3 -0.00903
83.35 -0.00529
83.4 0.00229
83.45 0.00759
83.5 0.00878
83.55 0.00748
83.6 0.00722
83.65 0.00485
83.7 0.00574
83.75 0.00465
83.8 0.00432
83.85 0.008
83.9 0.01073
83.95 0.00812
84 0.00539
84.05 0.00089
84.1 -0.00293
84.15 -0.00549
84.2 -0.00433
84.25 -0.00105
84.3 0.00459
84.35 0.00769
84.4 0.00769
84.45 0.00579
84.5 0.00834
84.55 0.00946
84.6 0.0068
84.65 0.00795
84.7 0.00552
84.75 0.00338
84.8 0.00062
84.85 -0.00379
84.9 -0.00192
84.95 -0.00467
85 -0.00459
85.05 -0.00089
85.1 0.00423
85.15 0.0098
85.2 0.00866
85.25 0.00547
85.3 -0.00092
85.35 -0.00793
85.4 -0.00905
85.45 -0.00811
85.5 -0.01099
85.55 -0.00893
85.6 -0.00767
85.65 -0.0052
85.7 -0.00409
85.75 0.00147
85.8 0.00466
85.85 0.0021
85.9 0.00153
85.95 0.0049
86 0.00546
86.05 0.00959
86.1 0.01019
86.15 0.01187
86.2 0.00781
86.25 0.00461
86.3 -0.00054
86.35 -0.00243
86.4 -0.00719
86.45 -0.00611
86.5 -0.00457
86.55 -0.00288
86.6 -0.00546
86.65 -0.00357
86.7 -0.00622
86.75 -0.00378
86.8 -0.00108
86.85 0.00178
86.9 0.00188
86.95 0.00351
87 0.00458
87.05 0.00058
87.1 -0.00133
87.15 -0.00439
87.2 -0.01053
87.25 -0.01423
87.3 -0.01447
87.35 -0.01728
87.4 -0.02189
87.45 -0.02751
87.5 -0.02916
87.55 -0.0287
87.6 -0.0237
87.65 -0.01765
87.7 -0.01038
87.75 -0.00482
87.8 0.00107
87.85 0.00098
87.9 0.00371
87.95 0.00384
88 0.00025
88.05 -0.00145
88.1 -0.00405
88.15 -0.00729
88.2 -0.00975
88.25 -0.01451
88.3 -0.01197
88.35 -0.013
88.4 -0.01681
88.45 -0.01984
88.5 -0.02123
88.55 -0.02428
88.6 -0.02014
88.65 -0.01314
88.7 -0.01124
88.75 -0.00874
88.8 -0.00767
88.85 -0.00577
88.9 -0.00389
88.95 -0.00287
89 -0.00457
89.05 -0.00882
89.1 -0.00866
89.15 -0.00627
89.2 0.0008
89.25 0.00911
89.3 0.01105
89.35 0.01165
89.4 0.01003
89.45 0.00724
89.5 0.00506
89.55 0.00182
89.6 0.00129
89.65 0.00116
89.7 0.0017
89.75 0.0001
89.8 -0.00054
89.85 -0.00249
89.9 -0.00226
89.95 0.00014
90 0.00074
90.05 -0.00281
90.1 -0.00028
90.15 0.00339
90.2 0.00555
90.25 0.0104
90.3 0.01584
90.35 0.01596
90.4 0.01508
90.45 0.01291
90.5 0.01081
90.55 0.01321
90.6 0.01773
90.65 0.01593
90.7 0.01138
90.75 0.00988
90.8 0.00782
90.85 0.00932
90.9 0.01364
90.95 0.01981
91 0.02099
91.05 0.0195
91.1 0.01245
91.15 0.00882
91.2 0.00847
91.25 0.01033
91.3 0.0148
91.35 0.01338
91.4 0.01066
91.45 0.01062
91.5 0.00796
91.55 0.00838
91.6 0.00616
91.65 0.00594
91.7 0.00817
91.75 0.01055
91.8 0.0139
91.85 0.01358
91.9 0.0109
91.95 0.00491
92 0.00353
92.05 0.00107
92.1 -0.0024
92.15 -0.00455
92.2 -0.00878
92.25 -0.01221
92.3 -0.01769
92.35 -0.01564
92.4 -0.01373
92.45 -0.00945
92.5 -0.00831
92.55 -0.00389
92.6 -0.00439
92.65 -0.00542
92.7 -0.00144
92.75 0.00155
92.8 0.0007
92.85 0.00333
92.9 0.00399
92.95 0.001
93 -0.00297
93.05 -0.00427
93.1 -0.00521
93.15 -0.00321
93.2 -0.00455
93.25 -0.00885
93.3 -0.00959
93.35 -0.00887
93.4 -0.00446
93.45 -0.00442
93.5 0.00049
93.55 0.00477
93.6 0.00987
93.65 0.01133
93.7 0.00779
93.75 0.00866
93.8 0.01013
93.85 0.00738
93.9 0.00431
93.95 0.00165
94 0.00266
94.05 0.0054
94.1 0.00683
94.15 0.01024
94.2 0.00788
94.25 0.0021
94.3 -0.00165
94.35 -0.00409
94.4 -0.01002
94.45 -0.01612
94.5 -0.02187
94.55 -0.02792
94.6 -0.02547
94.65 -0.02219
94.7 -0.01743
94.75 -0.01382
94.8 -0.01406
94.85 -0.01759
94.9 -0.01914
94.95 -0.02308
95 -0.02051
95.05 -0.01533
95.1 -0.0063
95.15 -0.0022
95.2 0.0031
95.25 0.00881
95.3 0.01062
95.35 0.01537
95.4 0.01305
95.45 0.01332
95.5 0.00843
95.55 0.00616
95.6 0.00655
95.65 0.00749
95.7 0.0032
95.75 -0.00181
95.8 -0.00434
95.85 -0.00521
95.9 -0.00212
95.95 0.00212
96 0.00582
96.05 0.0072
96.1 0.01083
96.15 0.01318
96.2 0.01426
96.25 0.01381
96.3 0.0077
96.35 -0.00001
96.4 -0.00683
96.45 -0.00744
96.5 -0.01126
96.55 -0.01478
96.6 -0.01801
96.65 -0.0177
96.7 -0.01581
96.75 -0.0146
96.8 -0.0131
96.85 -0.00999
96.9 -0.00575
96.95 -0.00386
97 -0.00513
97.05 -0.00624
97.1 -0.01068
97.15 -0.01388
97.2 -0.01223
97.25 -0.00753
97.3 -0.00535
97.35 -0.00175
97.4 0.0043
97.45 0.01108
97.5 0.01185
97.55 0.00826
97.6 0.004
97.65 0.00363
97.7 0.00116
97.75 -0.00325
97.8 -0.00166
97.85 0.00092
97.9 0.00158
97.95 0.00473
98 0.00991
98.05 0.01483
98.1 0.01544
98.15 0.01456
98.2 0.01118
98.25 0.01129
98.3 0.01288
98.35 0.01602
98.4 0.01265
98.45 0.01304
98.5 0.0157
98.55 0.01967
98.6 0.02395
98.65 0.02347
98.7 0.01743
98.75 0.01279
98.8 0.01313
98.85 0.00886
98.9 0.00622
98.95 0.00728
99 0.00997
99.05 0.00817
99.1 0.00933
99.15 0.01324
99.2 0.01774
99.25 0.01624
99.3 0.01007
99.35 0.00678
99.4 0.00225
99.45 0.00241
99.5 0.00462
99.55 0.00796
99.6 0.01044
99.65 0.00653
99.7 0.00685
99.75 0.0043
99.8 0.00047
99.85 0.00112
99.9 0.00524
99.95 0.00489
