0 0
0.05 0.00222
0.1 0.0109
0.15 0.02055
0.2 0.03368
0.25 0.03956
0.3 0.04417
0.35 0.04574
0.4 0.04585
0.45 0.05082
0.5 0.05216
0.55 0.05628
0.6 0.05749
0.65 0.06066
0.7 0.06204
0.75 0.05957
0.8 0.05763
0.85 0.05539
0.9 0.05655
0.95 0.0529
1 0.0542
1.05 0.05018
1.1 0.04463
1.15 0.04144
1.2 0.04359
1.25 0.04362
1.3 0.044
1.35 0.04748
1.4 0.04502
1.45 0.04473
1.5 0.04519
1.55 0.04136
1.6 0.03384
1.65 0.02954
1.7 0.02566
1.75 0.02789
1.8 0.02627
1.85 0.02184
1.9 0.0169
1.95 0.01735
2 0.02077
2.05 0.02329
2.1 0.02169
2.15 0.02381
2.2 0.02791
2.25 0.03329
2.3 0.03353
2.35 0.03328
2.4 0.0322
2.45 0.03413
2.5 0.03365
2.55 0.03664
2.6 0.03407
2.65 0.0312
2.7 0.02652
2.75 0.02812
2.8 0.03363
2.85 0.04037
2.9 0.04798
2.95 0.04836
3 0.05042
3.05 0.05198
3.1 0.0472
3.15 0.04311
3.2 0.04317
3.25 0.04164
3.3 0.03561
3.35 0.02819
3.4 0.02171
3.45 0.01654
3.5 0.01513
3.55 0.01232
3.6 0.00638
3.65 0.00131
3.7 0.00066
3.75 0.0015
3.8 0.00586
3.85 0.00989
3.9 0.01432
3.95 0.01247
4 0.01055
4.05 0.0099
4.1 0.00749
4.15 0.00769
4.2 0.00919
4.25 0.0132
4.3 0.0115
4.35 0.01224
4.4 0.00873
4.45 0.00666
4.5 0.00279
4.55 -0.00375
4.6 -0.01729
4.65 -0.03176
4.7 -0.04611
4.75 -0.0624
4.8 -0.0826
4.85 -0.10412
4.9 -0.13384
4.95 -0.16944
5 -0.20588
5.05 -0.24574
5.1 -0.28408
5.15 -0.33111
5.2 -0.37956
5.25 -0.43281
5.3 -0.48959
5.35 -0.54878
5.4 -0.60942
5.45 -0.6729
5.5 -0.73918
5.55 -0.80067
5.6 -0.86028
5.65 -0.91168
5.7 -0.9566
5.75 -1.00051
5.8 -1.03941
5.85 -1.07243
5.9 -1.09539
5.95 -1.10733
6 -1.10946
6.05 -1.10181
6.1 -1.0913
6.15 -1.07044
6.2 -1.04856
6.25 -1.01847
6.3 -0.98277
6.35 -0.94349
6.4 -0.90258
6.45 -0.8568
6.5 -0.8072
6.55 -0.75286
6.6 -0.69941
6.65 -0.64344
6.7 -0.58254
6.75 -0.51341
6.8 -0.43943
6.85 -0.36561
6.9 -0.28702
6.95 -0.21104
7 -0.13445
7.05 -0.06015
7.1 0.01855
7.15 0.09733
7.2 0.17644
7.25 0.25391
7.3 0.3312
7.35 0.40823
7.4 0.47851
7.45 0.54653
7.5 0.60942
7.55 0.66788
7.6 0.72986
7.65 0.7835
7.7 0.82877
7.75 0.86851
7.8 0.90534
7.85 0.93572
7.9 0.95983
7.95 0.97711
8 0.99496
8.05 1.01239
8.1 1.01919
8.15 1.01991
8.2 1.02075
8.25 1.01593
8.3 1.00735
8.35 0.99427
8.4 0.97287
8.45 0.94545
8.5 0.91992
8.55 0.88852
8.6 0.85565
8.65 0.82701
8.7 0.79704
8.75 0.76865
8.8 0.74241
8.85 0.7154
8.9 0.68805
8.95 0.65945
9 0.62973
9.05 0.60368
9.1 0.57778
9.15 0.54953
9.2 0.52208
9.25 0.49737
9.3 0.47721
9.35 0.45719
9.4 0.44291
9.45 0.42795
9.5 0.41376
9.55 0.40381
9.6 0.39222
9.65 0.38623
9.7 0.37836
9.75 0.36916
9.8 0.36174
9.85 0.35263
9.9 0.34558
9.95 0.34218
10 0.33426
10.05 0.32351
10.1 0.31727
10.15 0.31433
10.2 0.31436
10.25 0.31185
10.3 0.30324
10.35 0.28949
10.4 0.27771
10.45 0.2617
10.5 0.24405
10.55 0.23427
10.6 0.22556
10.65 0.2155
10.7 0.20559
10.75 0.19144
10.8 0.17439
10.85 0.16042
10.9 0.15085
10.95 0.13763
11 0.12497
11.05 0.11812
11.1 0.10574
11.15 0.09231
11.2 0.07989
11.25 0.06694
11.3 0.0558
11.35 0.04329
11.4 0.03159
11.45 0.0189
11.5 0.01285
11.55 0.00656
11.6 0.00089
11.65 -0.00579
11.7 -0.01366
11.75 -0.02382
11.8 -0.03708
11.85 -0.0453
11.9 -0.04979
11.95 -0.05235
12 -0.0525
12.05 -0.05582
12.1 -0.05677
12.15 -0.05664
12.2 -0.06432
12.25 -0.07301
12.3 -0.07723
12.35 -0.08119
12.4 -0.0852
12.45 -0.0886
12.5 -0.09254
12.55 -0.1018
12.6 -0.10964
12.65 -0.11118
12.7 -0.11334
12.75 -0.11139
12.8 -0.11094
12.85 -0.10851
12.9 -0.11094
12.95 -0.11471
13 -0.11371
13.05 -0.11644
13.1 -0.11994
13.15 -0.12179
13.2 -0.12601
13.25 -0.12738
13.3 -0.12506
13.35 -0.12669
13.4 -0.1318
13.45 -0.13326
13.5 -0.12878
13.55 -0.1262
13.6 -0.11948
13.65 -0.11213
13.7 -0.11086
13.75 -0.11133
13.8 -0.10882
13.85 -0.11058
13.9 -0.10783
13.95 -0.1082
14 -0.10615
14.05 -0.10242
14.1 -0.09754
14.15 -0.09238
14.2 -0.09193
14.25 -0.09463
14.3 -0.10101
14.35 -0.10174
14.4 -0.10335
14.45 -0.10232
14.5 -0.0996
14.55 -0.10088
14.6 -0.10386
14.65 -0.10754
14.7 -0.11324
14.75 -0.11782
14.8 -0.11728
14.85 -0.11575
14.9 -0.11195
14.95 -0.10866
15 -0.10498
15.05 -0.09788
15.1 -0.09645
15.15 -0.08988
15.2 -0.08635
15.25 -0.08487
15.3 -0.07995
15.35 -0.07275
15.4 -0.06353
15.45 -0.06256
15.5 -0.05867
15.55 -0.05724
15.6 -0.05638
15.65 -0.06119
15.7 -0.0644
15.75 -0.07091
15.8 -0.07933
15.85 -0.08351
15.9 -0.0804
15.95 -0.0739
16 -0.06974
16.05 -0.06692
16.1 -0.069
16.15 -0.06666
16.2 -0.05982
16.25 -0.05319
16.3 -0.0456
16.35 -0.03892
16.4 -0.03702
16.45 -0.03759
16.5 -0.03945
16.55 -0.04515
16.6 -0.04977
16.65 -0.05094
16.7 -0.0511
16.75 -0.05289
16.8 -0.04932
16.85 -0.04236
16.9 -0.03764
16.95 -0.03749
17 -0.03561
17.05 -0.03082
17.1 -0.02674
17.15 -0.02715
17.2 -0.02998
17.25 -0.03407
17.3 -0.03736
17.35 -0.0394
17.4 -0.03952
17.45 -0.04417
17.5 -0.04763
17.55 -0.05376
17.6 -0.05328
17.65 -0.05028
17.7 -0.04803
17.75 -0.04404
17.8 -0.03895
17.85 -0.03641
17.9 -0.03768
17.95 -0.03602
18 -0.03315
18.05 -0.02749
18.1 -0.01982
18.15 -0.0171
18.2 -0.02067
18.25 -0.02304
18.3 -0.02247
18.35 -0.01857
18.4 -0.02047
18.45 -0.02266
18.5 -0.02475
18.55 -0.03092
18.6 -0.03082
18.65 -0.03326
18.7 -0.03667
18.75 -0.04297
18.8 -0.04554
18.85 -0.04844
18.9 -0.04378
18.95 -0.03634
19 -0.03327
19.05 -0.03449
19.1 -0.03658
19.15 -0.04098
19.2 -0.04656
19.25 -0.04979
19.3 -0.05383
19.35 -0.05128
19.4 -0.04605
19.45 -0.03991
19.5 -0.03431
19.55 -0.03179
19.6 -0.0265
19.65 -0.02427
19.7 -0.02479
19.75 -0.02225
19.8 -0.01984
19.85 -0.01364
19.9 -0.01278
19.95 -0.01342
20 -0.01375
20.05 -0.0137
20.1 -0.01216
20.15 -0.01624
20.2 -0.01979
20.25 -0.01968
20.3 -0.02097
20.35 -0.01696
20.4 -0.01022
20.45 -0.00681
20.5 -0.00279
20.55 0.00283
20.6 0.00547
20.65 0.00396
20.7 0.00284
20.75 -0.00271
20.8 -0.01013
20.85 -0.0135
20.9 -0.01694
20.95 -0.02284
21 -0.0222
21.05 -0.01894
21.1 -0.01989
21.15 -0.02146
21.2 -0.02579
21.25 -0.02774
21.3 -0.02355
21.35 -0.01543
21.4 -0.00768
21.45 0.00145
21.5 0.00351
21.55 0.00024
21.6 -0.00567
21.65 -0.01274
21.7 -0.02049
21.75 -0.02286
21.8 -0.02577
21.85 -0.03032
21.9 -0.02982
21.95 -0.02541
22 -0.02107
22.05 -0.01486
22.1 -0.01181
22.15 -0.00878
22.2 -0.00791
22.25 -0.01088
22.3 -0.01237
22.35 -0.01247
22.4 -0.00742
22.45 -0.00659
22.5 -0.00355
22.55 0.00086
22.6 -0.00001
22.65 -0.00001
22.7 0.00365
22.75 0.00084
22.8 -0.00387
22.85 -0.0094
22.9 -0.01683
22.95 -0.0178
23 -0.02042
23.05 -0.02287
23.1 -0.02481
23.15 -0.02224
23.2 -0.02104
23.25 -0.01829
23.3 -0.01941
23.35 -0.01584
23.4 -0.01025
23.45 -0.0063
23.5 -0.00362
23.55 0.00201
23.6 0.00137
23.65 -0.00389
23.7 -0.00647
23.75 -0.00788
23.8 -0.0037
23.85 0.00325
23.9 0.00614
23.95 0.00631
24 0.0098
24.05 0.00842
24.1 0.00519
24.15 -0.00066
24.2 -0.00435
24.25 -0.00671
24.3 -0.00979
24.35 -0.01431
24.4 -0.01377
24.45 -0.00942
24.5 -0.00898
24.55 -0.00518
24.6 -0.00638
24.65 -0.01046
24.7 -0.01452
24.75 -0.01968
24.8 -0.01865
24.85 -0.01373
24.9 -0.0115
24.95 -0.01264
25 -0.00914
25.05 -0.00744
25.1 -0.00166
25.15 -0.00145
25.2 -0.00217
25.25 -0.0051
25.3 -0.0085
25.35 -0.00591
25.4 -0.00051
25.45 -0.00151
25.5 -0.00409
25.55 -0.00333
25.6 -0.00094
25.65 -0.00372
25.7 -0.00932
25.75 -0.01528
25.8 -0.0206
25.85 -0.02199
25.9 -0.02244
25.95 -0.01681
26 -0.01278
26.05 -0.0053
26.1 0.0026
26.15 0.0091
26.2 0.01443
26.25 0.01656
26.3 0.01945
26.35 0.01839
26.4 0.01509
26.45 0.00934
26.5 0.00898
26.55 0.00717
26.6 0.00797
26.65 0.0086
26.7 0.01266
26.75 0.0158
26.8 0.01482
26.85 0.01067
26.9 0.00649
26.95 0.0035
27 0.00187
27.05 -0.00104
27.1 -0.00062
27.15 -0.00046
27.2 -0.00009
27.25 -0.00431
27.3 -0.00295
27.35 0.00114
27.4 -0.00097
27.45 -0.0029
27.5 -0.0062
27.55 -0.01424
27.6 -0.0219
27.65 -0.02825
27.7 -0.03074
27.75 -0.03306
27.8 -0.03343
27.85 -0.03374
27.9 -0.04028
27.95 -0.04978
28 -0.05774
28.05 -0.06463
28.1 -0.07774
28.15 -0.09267
28.2 -0.10671
28.25 -0.12415
28.3 -0.14733
28.35 -0.17941
28.4 -0.21282
28.45 -0.25051
28.5 -0.29325
28.55 -0.33813
28.6 -0.38823
28.65 -0.43843
28.7 -0.49208
28.75 -0.54922
28.8 -0.60832
28.85 -0.66732
28.9 -0.72893
28.95 -0.79465
29 -0.8673
29.05 -0.94701
29.1 -1.02383
29.15 -1.10634
29.2 -1.18885
29.25 -1.26805
29.3 -1.34375
29.35 -1.41209
29.4 -1.47573
29.45 -1.53675
29.5 -1.59268
29.55 -1.64697
29.6 -1.69544
29.65 -1.73838
29.7 -1.77205
29.75 -1.79276
29.8 -1.80517
29.85 -1.8043
29.9 -1.79094
29.95 -1.77254
30 -1.7421
30.05 -1.70057
30.1 -1.64611
30.15 -1.58151
30.2 -1.50905
30.25 -1.42496
30.3 -1.33438
30.35 -1.24011
30.4 -1.14016
30.45 -1.03623
30.5 -0.92381
30.55 -0.80298
30.6 -0.67902
30.65 -0.55537
30.7 -0.4282
30.75 -0.29873
30.8 -0.16778
30.85 -0.04161
30.9 0.08551
30.95 0.20461
31 0.31713
31.05 0.4249
31.1 0.52511
31.15 0.61963
31.2 0.7132
31.25 0.80528
31.3 0.89537
31.35 0.98265
31.4 1.05911
31.45 1.13023
31.5 1.19642
31.55 1.25606
31.6 1.30366
31.65 1.34317
31.7 1.38042
31.75 1.41234
31.8 1.44412
31.85 1.46629
31.9 1.4818
31.95 1.49432
32 1.49995
32.05 1.50325
32.1 1.50975
32.15 1.50979
32.2 1.50562
32.25 1.50006
32.3 1.49804
32.35 1.49576
32.4 1.49225
32.45 1.484
32.5 1.47094
32.55 1.46092
32.6 1.4464
32.65 1.43178
32.7 1.41257
32.75 1.39365
32.8 1.37118
32.85 1.34894
32.9 1.33126
32.95 1.30935
33 1.29006
33.05 1.27348
33.1 1.25217
33.15 1.23055
33.2 1.20189
33.25 1.17241
33.3 1.13957
33.35 1.10642
33.4 1.07324
33.45 1.03663
33.5 0.99762
33.55 0.96202
33.6 0.93195
33.65 0.9019
33.7 0.87454
33.75 0.84505
33.8 0.81527
33.85 0.78226
33.9 0.75117
33.95 0.71875
34 0.68099
34.05 0.64944
34.1 0.61471
34.15 0.57785
34.2 0.54366
34.25 0.50657
34.3 0.47415
34.35 0.44277
34.4 0.41147
34.45 0.38103
34.5 0.35301
34.55 0.32563
34.6 0.29679
34.65 0.27207
34.7 0.24703
34.75 0.22459
34.8 0.19819
34.85 0.17119
34.9 0.14772
34.95 0.12561
35 0.10642
35.05 0.08761
35.1 0.07376
35.15 0.05586
35.2 0.03398
35.25 0.01425
35.3 -0.00818
35.35 -0.02234
35.4 -0.03993
35.45 -0.05589
35.5 -0.07229
35.55 -0.08638
35.6 -0.10275
35.65 -0.11973
35.7 -0.13365
35.75 -0.14839
35.8 -0.15423
35.85 -0.15476
35.9 -0.16046
35.95 -0.1682
36 -0.17409
36.05 -0.18109
36.1 -0.187
36.15 -0.18909
36.2 -0.1942
36.25 -0.20266
36.3 -0.20832
36.35 -0.2173
36.4 -0.22218
36.45 -0.22661
36.5 -0.23314
36.55 -0.24211
36.6 -0.2486
36.65 -0.25254
36.7 -0.25124
36.75 -0.25312
36.8 -0.25238
36.85 -0.24642
36.9 -0.24585
36.95 -0.24281
37 -0.23756
37.05 -0.23331
37.1 -0.23496
37.15 -0.23686
37.2 -0.23772
37.25 -0.24105
37.3 -0.24621
37.35 -0.2495
37.4 -0.25089
37.45 -0.25375
37.5 -0.25217
37.55 -0.24761
37.6 -0.23757
37.65 -0.22911
37.7 -0.21983
37.75 -0.20965
37.8 -0.2005
37.85 -0.19259
37.9 -0.18426
37.95 -0.18169
38 -0.18494
38.05 -0.18908
38.1 -0.18991
38.15 -0.18671
38.2 -0.18525
38.25 -0.18763
38.3 -0.19247
38.35 -0.19548
38.4 -0.19711
38.45 -0.1977
38.5 -0.20001
38.55 -0.19901
38.6 -0.19451
38.65 -0.18873
38.7 -0.18191
38.75 -0.17996
38.8 -0.18064
38.85 -0.17976
38.9 -0.17349
38.95 -0.1651
39 -0.15971
39.05 -0.15835
39.1 -0.15927
39.15 -0.15519
39.2 -0.15331
39.25 -0.14806
39.3 -0.14836
39.35 -0.1427
39.4 -0.13595
39.45 -0.13503
39.5 -0.1314
39.55 -0.12575
39.6 -0.12383
39.65 -0.1243
39.7 -0.12803
39.75 -0.12503
39.8 -0.12108
39.85 -0.11392
39.9 -0.10812
39.95 -0.10553
40 -0.10662
40.05 -0.10459
40.1 -0.10021
40.15 -0.09606
40.2 -0.09564
40.25 -0.095
40.3 -0.09606
40.35 -0.09981
40.4 -0.1022
40.45 -0.10395
40.5 -0.10034
40.55 -0.09972
40.6 -0.09405
40.65 -0.08702
40.7 -0.0851
40.75 -0.08544
40.8 -0.08715
40.85 -0.09011
40.9 -0.08725
40.95 -0.08816
41 -0.08528
41.05 -0.08556
41.1 -0.08742
41.15 -0.08946
41.2 -0.09194
41.25 -0.09014
41.3 -0.08771
41.35 -0.08848
41.4 -0.08625
41.45 -0.07906
41.5 -0.07659
41.55 -0.07153
41.6 -0.0686
41.65 -0.06302
41.7 -0.06059
41.75 -0.05655
41.8 -0.05063
41.85 -0.04955
41.9 -0.04793
41.95 -0.04572
42 -0.04867
42.05 -0.04839
42.1 -0.04524
42.15 -0.04294
42.2 -0.04377
42.25 -0.04085
42.3 -0.04423
42.35 -0.04791
42.4 -0.05098
42.45 -0.05765
42.5 -0.06358
42.55 -0.06733
42.6 -0.07152
42.65 -0.07293
42.7 -0.06837
42.75 -0.06372
42.8 -0.06257
42.85 -0.05633
42.9 -0.05553
42.95 -0.05123
43 -0.04501
43.05 -0.04452
43.1 -0.04067
43.15 -0.03871
43.2 -0.03334
43.25 -0.03366
43.3 -0.03917
43.35 -0.03954
43.4 -0.03936
43.45 -0.04352
43.5 -0.04455
43.55 -0.04569
43.6 -0.04845
43.65 -0.04854
43.7 -0.05062
43.75 -0.04977
43.8 -0.05241
43.85 -0.05711
43.9 -0.05929
43.95 -0.05706
44 -0.05594
44.05 -0.04965
44.1 -0.04617
44.15 -0.04414
44.2 -0.0462
44.25 -0.0417
44.3 -0.03609
44.35 -0.02991
44.4 -0.02727
44.45 -0.02152
44.5 -0.01604
44.55 -0.0134
44.6 -0.00994
44.65 -0.00926
44.7 -0.00922
44.75 -0.00975
44.8 -0.00706
44.85 -0.00333
44.9 -0.00665
44.95 -0.00857
45 -0.01034
45.05 -0.01542
45.1 -0.02151
45.15 -0.02577
45.2 -0.02586
45.25 -0.02763
45.3 -0.03182
45.35 -0.03028
45.4 -0.02401
45.45 -0.02341
45.5 -0.02106
45.55 -0.02
45.6 -0.01991
45.65 -0.01873
45.7 -0.01934
45.75 -0.02074
45.8 -0.0249
45.85 -0.0314
45.9 -0.03555
45.95 -0.03754
46 -0.03731
46.05 -0.03909
46.1 -0.04299
46.15 -0.04248
46.2 -0.04021
46.25 -0.03987
46.3 -0.03714
46.35 -0.03161
46.4 -0.0294
46.45 -0.02793
46.5 -0.02461
46.55 -0.02019
46.6 -0.01393
46.65 -0.01392
46.7 -0.01594
46.75 -0.01263
46.8 -0.00573
46.85 0.00216
46.9 0.00936
46.95 0.01417
47 0.01494
47.05 0.01559
47.1 0.01189
47.15 0.00427
47.2 -0.0031
47.25 -0.0073
47.3 -0.01337
47.35 -0.02136
47.4 -0.02145
47.45 -0.02081
47.5 -0.01988
47.55 -0.0224
47.6 -0.02453
47.65 -0.02108
47.7 -0.01814
47.75 -0.01657
47.8 -0.01795
47.85 -0.01681
47.9 -0.01663
47.95 -0.01759
48 -0.02092
48.05 -0.02174
48.1 -0.01968
48.15 -0.0181
48.2 -0.01223
48.25 -0.00588
48.3 -0.0024
48.35 0.00093
48.4 0.00122
48.45 0.00083
48.5 0.0043
48.55 0.00712
48.6 0.01112
48.65 0.01129
48.7 0.00748
48.75 0.00781
48.8 0.005
48.85 0.00059
48.9 -0.00102
48.95 -0.00457
49 -0.00769
49.05 -0.01417
49.1 -0.0184
49.15 -0.01569
49.2 -0.01384
49.25 -0.00907
49.3 -0.00913
49.35 -0.00784
49.4 -0.00945
49.45 -0.01491
49.5 -0.02229
49.55 -0.02439
49.6 -0.02094
49.65 -0.01357
49.7 -0.0112
49.75 -0.01131
49.8 -0.01143
49.85 -0.01238
49.9 -0.00845
49.95 -0.01034
50 -0.01531
50.05 -0.01768
50.1 -0.01496
50.15 -0.01291
50.2 -0.01052
50.25 -0.00589
50.3 -0.00203
50.35 -0.00289
50.4 -0.0054
50.45 -0.00858
50.5 -0.00818
50.55 -0.008
50.6 -0.00436
50.65 -0.00356
50.7 -0.00348
50.75 -0.00585
50.8 -0.01008
50.85 -0.01037
50.9 -0.01154
50.95 -0.00865
51 -0.00589
51.05 -0.00128
51.1 0.00184
51.15 0.00307
51.2 0.00327
51.25 0.00166
51.3 -0.00206
51.35 -0.00584
51.4 -0.00678
51.45 -0.00608
51.5 -0.00876
51.55 -0.00843
51.6 -0.00764
51.65 -0.0028
51.7 0.00406
51.75 0.00432
51.8 0.00326
51.85 0.00532
51.9 0.00973
51.95 0.00874
52 0.00285
52.05 -0.00228
52.1 -0.00543
52.15 -0.01045
52.2 -0.01763
52.25 -0.02553
52.3 -0.03094
52.35 -0.03143
52.4 -0.03256
52.45 -0.03247
52.5 -0.02953
52.55 -0.02792
52.6 -0.02308
52.65 -0.01667
52.7 -0.01303
52.75 -0.00904
52.8 -0.00121
52.85 0.00733
52.9 0.00917
52.95 0.00839
53 0.00986
53.05 0.00888
53.1 0.00859
53.15 0.00867
53.2 0.00829
53.25 0.00416
53.3 -0.00021
53.35 -0.001
53.4 -0.00119
53.45 -0.00037
53.5 -0.00267
53.55 -0.00781
53.6 -0.01234
53.65 -0.01731
53.7 -0.01522
53.75 -0.01079
53.8 -0.00625
53.85 -0.00737
53.9 -0.01037
53.95 -0.01036
54 -0.0081
54.05 -0.00254
54.1 0.00408
54.15 0.01227
54.2 0.02064
54.25 0.02694
54.3 0.02819
54.35 0.02212
54.4 0.01837
54.45 0.01421
54.5 0.00764
54.55 0.0027
54.6 0.00182
54.65 0.00418
54.7 0.00431
54.75 0.00383
54.8 0.00205
54.85 0.00392
54.9 0.00947
54.95 0.01389
55 0.01724
55.05 0.0198
55.1 0.02345
55.15 0.02547
55.2 0.02177
55.25 0.01834
55.3 0.01213
55.35 0.00602
55.4 0.00525
55.45 0.00132
55.5 -0.00057
55.55 -0.0058
55.6 -0.00905
55.65 -0.01225
55.7 -0.01618
55.75 -0.02044
55.8 -0.02596
55.85 -0.03079
55.9 -0.03162
55.95 -0.03308
56 -0.0281
56.05 -0.01938
56.1 -0.01381
56.15 -0.00906
56.2 -0.00197
56.25 0.00282
56.3 0.00354
56.35 0.00051
56.4 -0.00354
56.45 -0.00256
56.5 -0.00259
56.55 -0.00575
56.6 -0.00416
56.65 -0.00134
56.7 -0.00306
56.75 -0.0073
56.8 -0.0116
56.85 -0.01746
56.9 -0.02257
56.95 -0.02275
57 -0.01984
57.05 -0.01853
57.1 -0.01628
57.15 -0.00855
57.2 -0.00595
57.25 -0.0046
57.3 -0.00114
57.35 0.00558
57.4 0.01139
57.45 0.01194
57.5 0.00915
57.55 0.00455
57.6 0.00211
57.65 0.00159
57.7 -0.00017
57.75 -0.00388
57.8 -0.00425
57.85 0.00017
57.9 0.00667
57.95 0.01027
58 0.01662
58.05 0.02198
58.1 0.02161
58.15 0.02321
58.2 0.01884
58.25 0.01828
58.3 0.01375
58.35 0.0085
58.4 0.00006
58.45 -0.00561
58.5 -0.01322
58.55 -0.01695
58.6 -0.02126
58.65 -0.02077
58.7 -0.02161
58.75 -0.01732
58.8 -0.01746
58.85 -0.01806
58.9 -0.01246
58.95 -0.00615
59 -0.00136
59.05 0.00627
59.1 0.00707
59.15 0.00365
59.2 0.0041
59.25 0.00229
59.3 -0.00215
59.35 -0.00916
59.4 -0.01289
59.45 -0.01682
59.5 -0.02101
59.55 -0.02322
59.6 -0.01878
59.65 -0.01336
59.7 -0.01199
59.75 -0.00654
59.8 0.00043
59.85 0.00507
59.9 0.00909
59.95 0.00666
60 0.00641
60.05 0.0081
60.1 0.01272
60.15 0.01439
60.2 0.01711
60.25 0.01402
60.3 0.01349
60.35 0.0109
60.4 0.01278
60.45 0.00918
60.5 0.00834
60.55 0.00731
60.6 0.00485
60.65 0.00483
60.7 0.0027
60.75 -0.00044
60.8 0.00179
60.85 0.00209
60.9 0.0013
60.95 0.00492
61 0.00968
61.05 0.00788
61.1 0.00318
61.15 0.0045
61.2 0.00948
61.25 0.0111
61.3 0.00765
61.35 0.00907
61.4 0.01082
61.45 0.01473
61.5 0.01915
61.55 0.02085
61.6 0.01712
61.65 0.01251
61.7 0.01252
61.75 0.0121
61.8 0.0122
61.85 0.00861
61.9 0.00109
61.95 -0.00185
62 0.00111
62.05 0.00101
62.1 -0.0007
62.15 -0.00108
62.2 0.00096
62.25 0.00573
62.3 0.0097
62.35 0.01595
62.4 0.01461
62.45 0.01319
62.5 0.00858
62.55 0.00555
62.6 -0.00131
62.65 -0.00947
62.7 -0.01776
62.75 -0.0215
62.8 -0.02256
62.85 -0.01884
62.9 -0.01765
62.95 -0.01171
63 -0.00632
63.05 0.00127
63.1 0.00811
63.15 0.01243
63.2 0.01292
63.25 0.01495
63.3 0.01555
63.35 0.0139
63.4 0.00952
63.45 0.003
63.5 -0.00158
63.55 -0.00637
63.6 -0.00734
63.65 -0.00692
63.7 -0.0056
63.75 -0.00391
63.8 -0.00223
63.85 -0.00019
63.9 0.00118
63.95 0.00546
64 0.00756
64.05 0.00758
64.1 0.00649
64.15 0.00735
64.2 0.00926
64.25 0.0067
64.3 0.00299
64.35 0.00359
64.4 0.00277
64.45 0.00543
64.5 0.00765
64.55 0.00841
64.6 0.00788
64.65 0.00203
64.7 -0.00548
64.75 -0.0099
64.8 -0.00983
64.85 -0.00506
64.9 -0.00203
64.95 -0.00377
65 -0.00805
65.05 -0.01489
65.1 -0.01406
65.15 -0.01331
65.2 -0.01587
65.25 -0.01573
65.3 -0.01519
65.35 -0.01384
65.4 -0.00723
65.45 -0.00324
65.5 0.00306
65.55 0.00712
65.6 0.01342
65.65 0.01278
65.7 0.01376
65.75 0.01653
65.8 0.01707
65.85 0.01369
65.9 0.0069
65.95 0.00261
66 0.00113
66.05 -0.00204
66.1 -0.00565
66.15 -0.01106
66.2 -0.01677
66.25 -0.02386
66.3 -0.02544
66.35 -0.02523
66.4 -0.02135
66.45 -0.02075
66.5 -0.02022
66.55 -0.01845
66.6 -0.01464
66.65 -0.00843
66.7 -0.00245
66.75 0.00466
66.8 0.00922
66.85 0.01077
66.9 0.01186
66.95 0.01528
67 0.01952
67.05 0.02224
67.1 0.02506
67.15 0.02779
67.2 0.03065
67.25 0.03046
67.3 0.02629
67.35 0.01694
67.4 0.00465
67.45 -0.00615
67.5 -0.01547
67.55 -0.0216
67.6 -0.01929
67.65 -0.01324
67.7 -0.01243
67.75 -0.01285
67.8 -0.01649
67.85 -0.01666
67.9 -0.01619
67.95 -0.01827
68 -0.02204
68.05 -0.02098
68.1 -0.02249
68.15 -0.02035
68.2 -0.02135
68.25 -0.02243
68.3 -0.01857
68.35 -0.01239
68.4 -0.00828
68.45 -0.00761
68.5 -0.0023
68.55 -0.00246
68.6 0.00196
68.65 0.0075
68.7 0.00752
68.75 0.00832
68.8 0.00636
68.85 0.0062
68.9 0.00862
68.95 0.00645
69 0.00244
69.05 -0.00234
69.1 -0.00257
69.15 -0.00255
69.2 -0.00202
69.25 -0.00001
69.3 0.00117
69.35 0.00453
69.4 0.00365
69.45 0.00347
69.5 0.00756
69.55 0.01038
69.6 0.00705
69.65 0.00686
69.7 0.00533
69.75 0.00659
69.8 0.00558
69.85 0.00801
69.9 0.01301
69.95 0.01898
70 0.01712
70.05 0.01482
70.1 0.00841
70.15 0.00668
70.2 0.00755
70.25 0.01184
70.3 0.01349
70.35 0.01699
70.4 0.01614
70.45 0.0178
70.5 0.01289
70.55 0.00636
70.6 -0.00282
70.65 -0.01128
70.7 -0.01352
70.75 -0.0127
70.8 -0.01082
70.85 -0.00743
70.9 -0.0062
70.95 -0.00341
71 0.0021
71.05 0.00078
71.1 -0.00332
71.15 -0.00561
71.2 -0.00352
71.25 -0.00047
71.3 0.00016
71.35 -0.00241
71.4 -0.00458
71.45 -0.00451
71.5 -0.00867
71.55 -0.01318
71.6 -0.01602
71.65 -0.01435
71.7 -0.00925
71.75 -0.01002
71.8 -0.00867
71.85 -0.01076
71.9 -0.01465
71.95 -0.01304
72 -0.00841
72.05 -0.00766
72.1 -0.00365
72.15 -0.00372
72.2 0.00108
72.25 0.00277
72.3 0.00199
72.35 0.00586
72.4 0.00624
72.45 0.00239
72.5 -0.00069
72.55 -0.0073
72.6 -0.00724
72.65 -0.00192
72.7 0.00119
72.75 0.00055
72.8 -0.00311
72.85 -0.00784
72.9 -0.01073
72.95 -0.01113
73 -0.01308
73.05 -0.01253
73.1 -0.01191
73.15 -0.01278
73.2 -0.01584
73.25 -0.02105
73.3 -0.01963
73.35 -0.01326
73.4 -0.00692
73.45 -0.00688
73.5 -0.004
73.55 -0.00338
73.6 0.00089
73.65 0.00827
73.7 0.00817
73.75 0.00735
73.8 0.00228
73.85 -0.00182
73.9 -0.0032
73.95 -0.00447
74 -0.00631
74.05 -0.00583
74.1 -0.00704
74.15 -0.00859
74.2 -0.00808
74.25 -0.01106
74.3 -0.01096
74.35 -0.00705
74.4 -0.00194
74.45 0.00134
74.5 0.00466
74.55 0.00485
74.6 0.00768
74.65 0.00751
74.7 0.00374
74.75 -0.00223
74.8 -0.0032
74.85 0.00135
74.9 0.005
74.95 0.00541
75 0.00356
75.05 0.00364
75.1 0.0064
75.15 0.01169
75.2 0.01489
75.25 0.01495
75.3 0.01816
75.35 0.01898
75.4 0.01876
75.45 0.0186
75.5 0.0175
75.55 0.01242
75.6 0.0095
75.65 0.01142
75.7 0.00904
75.75 0.00902
75.8 0.01152
75.85 0.01277
75.9 0.00875
75.95 0.00324
76 0.00178
76.05 0.00173
76.1 0.00561
76.15 0.00885
76.2 0.01311
76.25 0.01019
76.3 0.0098
76.35 0.01215
76.4 0.01381
76.45 0.01323
76.5 0.00749
76.55 0.00224
76.6 -0.00288
76.65 -0.00158
76.7 0.00187
76.75 0.00382
76.8 0.00821
76.85 0.00575
76.9 0.00666
76.95 0.01105
77 0.01708
77.05 0.01936
77.1 0.01767
77.15 0.01643
77.2 0.01548
77.25 0.01741
77.3 0.01234
77.35 0.00318
77.4 -0.00237
77.45 -0.00297
77.5 0
77.55 0.00195
77.6 0.00141
77.65 -0.00169
77.7 -0.00732
77.75 -0.01211
77.8 -0.01804
77.85 -0.02225
77.9 -0.01933
77.95 -0.01425
78 -0.01245
78.05 -0.01138
78.1 -0.00797
78.15 -0.00722
78.2 -0.00673
78.25 -0.00335
78.3 -0.00486
78.35 -0.00257
78.4 -0.00171
78.45 -0.00003
78.5 0.0017
78.55 0.00154
78.6 -0.00192
78.65 -0.00663
78.7 -0.00593
78.75 -0.0064
78.8 -0.01048
78.85 -0.01192
78.9 -0.01342
78.95 -0.01627
79 -0.01988
79.05 -0.01939
79.1 -0.01529
79.15 -0.01625
79.2 -0.01539
79.25 -0.01065
79.3 -0.00524
79.35 -0.00447
79.4 -0.00178
79.45 0.00264
79.5 0.00731
79.55 0.01223
79.6 0.01673
79.65 0.01531
79.7 0.01412
79.75 0.01003
79.8 0.00779
79.85 0.00916
79.9 0.01064
79.95 0.01264
80 0.01156
80.05 0.00611
80.1 -0.00063
80.15 -0.00863
80.2 -0.01554
80.25 -0.0154
80.3 -0.01755
80.35 -0.01941
80.4 -0.01468
80.45 -0.01399
80.5 -0.01091
80.55 -0.01145
80.6 -0.01235
80.65 -0.01581
80.7 -0.01443
80.75 -0.01027
80.8 -0.00616
80.85 -0.00655
80.9 -0.00362
80.95 -0.00295
81 0
81.05 0.00112
81.1 0.00566
81.15 0.00402
81.2 0.00539
81.25 0.00268
81.3 -0.00275
81.35 -0.0099
81.4 -0.01251
81.45 -0.0139
81.5 -0.01453
81.55 -0.01782
81.6 -0.01818
81.65 -0.02085
81.7 -0.01906
81.75 -0.01715
81.8 -0.01
81.85 -0.00538
81.9 0.00076
81.95 0.00469
82 0.00503
82.05 0.0046
82.1 0.00313
82.15 0.00333
82.2 0.00109
82.25 0.00125
82.3 -0.00061
82.35 0.00139
82.4 -0.00143
82.45 -0.00227
82.5 -0.00658
82.55 -0.01091
82.6 -0.01589
82.65 -0.01575
82.7 -0.01374
82.75 -0.00994
82.8 -0.006
82.85 -0.00464
82.9 -0.00176
82.95 0.00055
83 0.00315
83.05 0.00647
83.1 0.00668
83.15 0.00791
83.2 0.00967
83.25 0.00686
83.3 0.00809
83.35 0.01147
83.4 0.0171
83.45 0.01877
83.5 0.02126
83.55 0.02381
83.6 0.02454
83.65 0.01833
83.7 0.01144
83.75 0.00551
83.8 0.00524
83.85 0.00346
83.9 0.00467
83.95 0.00083
84 0.00079
84.05 -0.00331
84.1 -0.0088
84.15 -0.01058
84.2 -0.01414
84.25 -0.0159
84.3 -0.01231
84.35 -0.00554
84.4 -0.00436
84.45 -0.00515
84.5 -0.00499
84.55 -0.00693
84.6 -0.01005
84.65 -0.00727
84.7 -0.0032
84.75 -0.00068
84.8 -0.00145
84.85 0.00286
84.9 0.00125
84.95 0.00469
85 0.01125
85.05 0.01658
85.1 0.01745
85.15 0.02034
85.2 0.02431
85.25 0.02701
85.3 0.02446
85.35 0.02449
85.4 0.02375
85.45 0.0209
85.5 0.01548
85.55 0.01327
85.6 0.01323
85.65 0.01397
85.7 0.01456
85.75 0.01402
85.8 0.00922
85.85 0.00322
85.9 -0.00283
85.95 -0.00799
86 -0.01561
86.05 -0.01666
86.1 -0.01708
86.15 -0.01221
86.2 -0.00544
86.25 -0.00121
86.3 -0.00138
86.35 -0.00496
86.4 -0.00948
86.45 -0.0147
86.5 -0.01712
86.55 -0.01955
86.6 -0.01969
86.65 -0.02122
86.7 -0.02109
86.75 -0.01693
86.8 -0.00943
86.85 -0.00064
86.9 0.00873
86.95 0.01449
87 0.0125
87.05 0.00634
87.1 0.00519
87.15 0.00789
87.2 0.00592
87.25 0.00204
87.3 -0.00269
87.35 -0.00685
87.4 -0.01319
87.45 -0.01747
87.5 -0.02279
87.55 -0.02165
87.6 -0.01504
87.65 -0.00618
87.7 0.00235
87.75 0.00746
87.8 0.01198
87.85 0.01217
87.9 0.0072
87.95 0.00618
88 0.0027
88.05 0.00269
88.1 -0.00196
88.15 -0.00772
88.2 -0.0129
88.25 -0.01775
88.3 -0.01758
88.35 -0.01141
88.4 -0.00846
88.45 -0.00124
88.5 0.00644
88.55 0.00774
88.6 0.01271
88.65 0.01384
88.7 0.01212
88.75 0.00904
88.8 0.00846
88.85 0.00551
88.9 0.00248
88.95 -0.00406
89 -0.00898
89.05 -0.00744
89.1 -0.00622
89.15 -0.00079
89.2 0.0067
89.25 0.01372
89.3 0.01736
89.35 0.02098
89.4 0.01807
89.45 0.01579
89.5 0.0134
89.55 0.01402
89.6 0.01686
89.65 0.01753
89.7 0.0161
89.75 0.01452
89.8 0.0133
89.85 0.00711
89.9 0.00536
89.95 0.00601
90 0.00832
90.05 0.00962
90.1 0.00562
90.15 0.00588
90.2 0.00097
90.25 -0.00003
90.3 -0.00087
90.35 0.00124
90.4 0.0046
90.45 0.0032
90.5 0.00426
90.55 0.00388
90.6 -0.00001
90.65 -0.00202
90.7 0.00049
90.75 0.00025
90.8 0.00083
90.85 -0.0029
90.9 -0.00695
90.95 -0.01042
91 -0.01524
91.05 -0.01601
91.1 -0.01716
91.15 -0.01705
91.2 -0.01701
91.25 -0.01906
91.3 -0.01732
91.35 -0.01588
91.4 -0.01318
91.45 -0.00946
91.5 -0.01094
91.55 -0.00774
91.6 -0.00387
91.65 -0.00089
91.7 0.00483
91.75 0.00917
91.8 0.00628
91.85 0.00277
91.9 -0.00122
91.95 -0.00695
92 -0.00933
92.05 -0.00772
92.1 -0.00847
92.15 -0.00756
92.2 -0.00312
92.25 0.0019
92.3 0.00059
92.35 0.00307
92.4 0.00722
92.45 0.01171
92.5 0.01353
92.55 0.01423
92.6 0.01604
92.65 0.01985
92.7 0.02373
92.75 0.02745
92.8 0.02654
92.85 0.02785
92.9 0.0232
92.95 0.01793
93 0.01134
93.05 0.00373
93.1 0.00043
93.15 0.00167
93.2 -0.002
93.25 -0.0093
93.3 -0.01616
93.35 -0.01484
93.4 -0.01097
93.45 -0.01201
93.5 -0.01275
93.55 -0.01597
93.6 -0.01321
93.65 -0.00812
93.7 -0.00611
93.75 -0.00001
93.8 0.0009
93.85 0.00524
93.9 0.00319
93.95 0.00187
94 -0.00161
94.05 -0.00215
94.1 0.00016
94.15 0.00506
94.2 0.00739
94.25 0.01072
94.3 0.00735
94.35 0.00118
94.4 -0.00411
94.45 -0.00809
94.5 -0.01306
94.55 -0.01209
94.6 -0.0126
94.65 -0.01366
94.7 -0.0132
94.75 -0.00754
94.8 -0.00141
94.85 0.00348
94.9 0.00285
94.95 -0.00268
95 -0.00837
95.05 -0.01415
95.1 -0.02147
95.15 -0.02644
95.2 -0.02715
95.25 -0.03004
95.3 -0.03109
95.35 -0.028
95.4 -0.02783
95.45 -0.02068
95.5 -0.01631
95.55 -0.00775
95.6 0.00126
95.65 0.00726
95.7 0.01519
95.75 0.01887
95.8 0.02435
95.85 0.0288
95.9 0.02675
95.95 0.02193
96 0.01821
96.05 0.01633
96.1 0.01273
96.15 0.01329
96.2 0.01513
96.25 0.01323
96.3 0.01014
96.35 0.00622
96.4 -0.00047
96.45 -0.00185
96.5 -0.00491
96.55 -0.00687
96.6 -0.01052
96.65 -0.01554
96.7 -0.01538
96.75 -0.01111
96.8 -0.00756
96.85 -0.00498
96.9 -0.0059
96.95 -0.00232
97 0.00191
97.05 0.00808
97.1 0.00714
97.15 0.00531
97.2 0.00401
97.25 0.00449
97.3 -0.00007
97.35 -0.00677
97.4 -0.01421
97.45 -0.01394
97.5 -0.0149
97.55 -0.01405
97.6 -0.01643
97.65 -0.01699
97.7 -0.01614
97.75 -0.01589
97.8 -0.01424
97.85 -0.00908
97.9 -0.00585
97.95 -0.0003
98 0.00713
98.05 0.01118
98.1 0.00993
98.15 0.00693
98.2 0.00178
98.25 -0.0006
98.3 -0.0042
98.35 -0.00788
98.4 -0.01251
98.45 -0.01213
98.5 -0.01086
98.55 -0.00575
98.6 0.00151
98.65 0.00348
98.7 0.00813
98.75 0.01477
98.8 0.01827
98.85 0.01912
98.9 0.01591
98.95 0.00913
99 0.00027
99.05 -0.0064
99.1 -0.00581
99.15 -0.00668
99.2 -0.00964
99.25 -0.00738
99.3 -0.00417
99.35 0.00023
99.4 -0.00102
99.45 -0.00379
99.5 -0.00965
99.55 -0.01349
99.6 -0.01239
99.65 -0.00711
99.7 -0.00273
99.75 0.00036
99.8 0.00648
99.85 0.01083
99.9 0.0127
99.95 0.01712
