0 0
0.05 0.00254
0.1 0.0054
0.15 0.01186
0.2 0.02227
0.25 0.0334
0.3 0.04213
0.35 0.05028
0.4 0.05435
0.45 0.05373
0.5 0.05163
0.55 0.0482
0.6 0.04868
0.65 0.05136
0.7 0.0553
0.75 0.05564
0.8 0.05263
0.85 0.05195
0.9 0.04717
0.95 0.0397
1 0.03349
1.05 0.02681
1.1 0.02176
1.15 0.02128
1.2 0.02017
1.25 0.01688
1.3 0.0182
1.35 0.02417
1.4 0.03232
1.45 0.0381
1.5 0.03826
1.55 0.03719
1.6 0.03929
1.65 0.04386
1.7 0.04841
1.75 0.05141
1.8 0.05123
1.85 0.05274
1.9 0.05259
1.95 0.05159
2 0.04804
2.05 0.04409
2.1 0.04034
2.15 0.03425
2.2 0.02615
2.25 0.02058
2.3 0.01428
2.35 0.00808
2.4 0.00335
2.45 0.00018
2.5 -0.00351
2.55 -0.00206
2.6 -0.00006
2.65 0.00674
2.7 0.01292
2.75 0.01453
2.8 0.01318
2.85 0.0163
2.9 0.01933
2.95 0.02333
3 0.02617
3.05 0.02787
3.1 0.02839
3.15 0.02912
3.2 0.0311
3.25 0.03053
3.3 0.03276
3.35 0.03401
3.4 0.03557
3.45 0.03852
3.5 0.04019
3.55 0.03523
3.6 0.03292
3.65 0.03208
3.7 0.03382
3.75 0.03513
3.8 0.03229
3.85 0.02999
3.9 0.02772
3.95 0.02579
4 0.02269
4.05 0.01943
4.1 0.01401
4.15 0.00966
4.2 0.00537
4.25 0.00317
4.3 0.00003
4.35 -0.00105
4.4 0.00164
4.45 0.00266
4.5 0.00372
4.55 0.00664
4.6 0.00907
4.65 0.01345
4.7 0.01731
4.75 0.01891
4.8 0.02011
4.85 0.01597
4.9 0.00913
4.95 0.00792
5 0.00771
5.05 0.00862
5.1 0.01276
5.15 0.01318
5.2 0.01359
5.25 0.01711
5.3 0.01667
5.35 0.01587
5.4 0.0176
5.45 0.01955
5.5 0.02051
5.55 0.01912
5.6 0.01499
5.65 0.013
5.7 0.01206
5.75 0.01339
5.8 0.01086
5.85 0.00643
5.9 -0.00043
5.95 -0.00275
6 -0.00251
6.05 -0.00106
6.1 0.00344
6.15 0.00279
6.2 -0.00066
6.25 -0.00617
6.3 -0.01354
6.35 -0.01726
6.4 -0.0203
6.45 -0.02471
6.5 -0.02825
6.55 -0.02503
6.6 -0.01935
6.65 -0.01232
6.7 -0.00774
6.75 -0.00178
6.8 0.00567
6.85 0.00971
6.9 0.01481
6.95 0.01345
7 0.01267
7.05 0.01177
7.1 0.00986
7.15 0.00879
7.2 0.01126
7.25 0.01149
7.3 0.00858
7.35 0.00852
7.4 0.00653
7.45 0.00361
7.5 0.00202
7.55 0.00161
7.6 0.00057
7.65 -0.00194
7.7 0.00143
7.75 0.00091
7.8 -0.00104
7.85 -0.00129
7.9 0.00196
7.95 0.00383
8 0.00272
8.05 0.00348
8.1 0.00887
8.15 0.009
8.2 0.00725
8.25 0.01048
8.3 0.01063
8.35 0.00755
8.4 0.00249
8.45 0.00135
8.5 0.00055
8.55 -0.002
8.6 -0.00116
8.65 0.00369
8.7 0.00534
8.75 0.00471
8.8 0.00041
8.85 -0.00333
8.9 -0.00669
8.95 -0.01074
9 -0.01626
9.05 -0.01809
9.1 -0.01567
9.15 -0.01163
9.2 -0.0108
9.25 -0.01225
9.3 -0.01178
9.35 -0.01163
9.4 -0.01331
9.45 -0.01265
9.5 -0.01415
9.55 -0.01736
9.6 -0.01876
9.65 -0.01537
9.7 -0.00806
9.75 -0.00213
9.8 0.0016
9.85 0.00105
9.9 -0.0006
9.95 -0.00191
10 -0.0051
10.05 -0.00719
10.1 -0.00937
10.15 -0.01115
10.2 -0.00926
10.25 -0.00881
10.3 -0.00365
10.35 0.00368
10.4 0.00695
10.45 0.00763
10.5 0.005
10.55 0.00761
10.6 0.01312
10.65 0.01589
10.7 0.01362
10.75 0.01114
10.8 0.00672
10.85 0.00433
10.9 0.00608
10.95 0.00429
11 0.0057
11.05 0.00333
11.1 -0.00068
11.15 0.0006
11.2 0.00409
11.25 0.00381
11.3 0.00318
11.35 0.00328
11.4 0.00768
11.45 0.01342
11.5 0.01278
11.55 0.01443
11.6 0.01522
11.65 0.01247
11.7 0.0124
11.75 0.01286
11.8 0.01027
11.85 0.00583
11.9 -0.00038
11.95 -0.00011
12 0.00233
12.05 0.00575
12.1 0.00928
12.15 0.00894
12.2 0.00573
12.25 0.00259
12.3 -0.00229
12.35 -0.00105
12.4 0.0017
12.45 0.00041
12.5 -0.00401
12.55 -0.00472
12.6 -0.00538
12.65 -0.00267
12.7 0.00239
12.75 0.00839
12.8 0.01452
12.85 0.01704
12.9 0.02114
12.95 0.01882
13 0.01412
13.05 0.00902
13.1 0.00392
13.15 -0.00282
13.2 -0.00705
13.25 -0.01146
13.3 -0.01443
13.35 -0.01266
13.4 -0.01161
13.45 -0.01364
13.5 -0.01535
13.55 -0.01263
13.6 -0.00678
13.65 -0.00186
13.7 0
13.75 0.00514
13.8 0.0057
13.85 0.00576
13.9 0.00429
13.95 0.00539
14 0.00394
14.05 0.00219
14.1 0.00064
14.15 -0.00087
14.2 -0.00214
14.25 -0.00222
14.3 0.00023
14.35 0.00401
14.4 0.00297
14.45 0.00326
14.5 -0.00048
14.55 -0.00077
14.6 0.00127
14.65 0.00149
14.7 -0.0021
14.75 -0.00634
14.8 -0.00837
14.85 -0.00532
14.9 -0.00013
14.95 0.00242
15 0.00628
15.05 0.01153
15.1 0.01187
15.15 0.00844
15.2 0.00513
15.25 0.00643
15.3 0.00925
15.35 0.01108
15.4 0.01132
15.45 0.00835
15.5 0.00618
15.55 0.00228
15.6 0.00083
15.65 -0.00366
15.7 -0.00479
15.75 -0.00259
15.8 -0.00378
15.85 -0.00608
15.9 -0.00447
15.95 -0.00023
16 0.00044
16.05 0.00338
16.1 0.00875
16.15 0.00988
16.2 0.00743
16.25 0.00497
16.3 0.00103
16.35 0.0019
16.4 0.00431
16.45 0.0058
16.5 0.00462
16.55 0.00103
16.6 -0.00011
16.65 -0.00309
16.7 -0.00284
16.75 0.00116
16.8 0.00688
16.85 0.00781
16.9 0.00976
16.95 0.01241
17 0.01345
17.05 0.01061
17.1 0.00519
17.15 -0.00166
17.2 -0.00541
17.25 -0.00673
17.3 -0.00498
17.35 -0.00606
17.4 -0.00255
17.45 0.00282
17.5 0.00933
17.55 0.01513
17.6 0.01614
17.65 0.01159
17.7 0.01029
17.75 0.00887
17.8 0.00603
17.85 0.00489
17.9 0.00238
17.95 0.00136
18 -0.00323
18.05 -0.00811
18.1 -0.00696
18.15 -0.00702
18.2 -0.00794
18.25 -0.00446
18.3 0.00035
18.35 0.0056
18.4 0.0122
18.45 0.01231
18.5 0.01251
18.55 0.01179
18.6 0.00671
18.65 0.00287
18.7 0.00176
18.75 -0.00324
18.8 -0.00582
18.85 -0.00674
18.9 -0.0039
18.95 -0.00091
19 -0.00296
19.05 -0.00628
19.1 -0.00591
19.15 -0.00786
19.2 -0.00526
19.25 -0.00618
19.3 -0.00861
19.35 -0.00699
19.4 -0.0035
19.45 -0.00388
19.5 -0.00077
19.55 0.0005
19.6 0.00054
19.65 -0.00348
19.7 -0.00681
19.75 -0.00523
19.8 -0.00265
19.85 -0.00382
19.9 -0.00057
19.95 0.00535
20 0.00759
20.05 0.00709
20.1 0.0062
20.15 0.00546
20.2 0.00351
20.25 0.00564
20.3 0.00562
20.35 0.00843
20.4 0.00634
20.45 0.00713
20.5 0.00363
20.55 -0.00221
20.6 -0.00241
20.65 -0.00352
20.7 -0.00257
20.75 0.00064
20.8 0.00175
20.85 0.00513
20.9 0.00624
20.95 0.00227
21 0.00115
21.05 -0.00103
21.1 0.00119
21.15 0.00311
21.2 0.0071
21.25 0.00922
21.3 0.01288
21.35 0.01445
21.4 0.01215
21.45 0.01244
21.5 0.01513
21.55 0.01652
21.6 0.01915
21.65 0.01699
21.7 0.01403
21.75 0.01253
21.8 0.00803
21.85 0.00714
21.9 0.00211
21.95 -0.00169
22 -0.00809
22.05 -0.01382
22.1 -0.0168
22.15 -0.0148
22.2 -0.01016
22.25 -0.00331
22.3 0.00491
22.35 0.01116
22.4 0.01683
22.45 0.01665
22.5 0.0178
22.55 0.01882
22.6 0.02033
22.65 0.01639
22.7 0.01369
22.75 0.00754
22.8 0.00208
22.85 -0.00272
22.9 -0.00674
22.95 -0.00699
23 -0.00843
23.05 -0.01062
23.1 -0.01119
23.15 -0.01344
23.2 -0.01125
23.25 -0.0056
23.3 -0.00488
23.35 -0.00771
23.4 -0.00762
23.45 -0.00416
23.5 -0.00316
23.55 -0.00613
23.6 -0.01173
23.65 -0.0166
23.7 -0.01924
23.75 -0.0234
23.8 -0.0239
23.85 -0.01937
23.9 -0.01614
23.95 -0.01603
24 -0.01185
24.05 -0.01045
24.1 -0.00793
24.15 -0.0019
24.2 0.00234
24.25 0.00496
24.3 0.00297
24.35 0.0026
24.4 -0.00006
24.45 -0.00159
24.5 -0.00511
24.55 -0.00385
24.6 -0.00392
24.65 -0.00754
24.7 -0.00893
24.75 -0.00528
24.8 -0.00352
24.85 -0.00224
24.9 -0.00277
24.95 -0.0006
25 0.00013
25.05 -0.00182
25.1 -0.00595
25.15 -0.01021
25.2 -0.01133
25.25 -0.0142
25.3 -0.01738
25.35 -0.01702
25.4 -0.01625
25.45 -0.0137
25.5 -0.0094
25.55 -0.00411
25.6 0.00113
25.65 0.00525
25.7 0.0063
25.75 0.00617
25.8 0.0082
25.85 0.00692
25.9 0.00234
25.95 -0.00125
26 -0.00586
26.05 -0.0054
26.1 -0.00716
26.15 -0.00514
26.2 -0.00356
26.25 -0.00095
26.3 -0.0007
26.35 -0.00265
26.4 -0.00366
26.45 -0.00498
26.5 -0.0089
26.55 -0.0104
26.6 -0.01374
26.65 -0.01077
26.7 -0.01068
26.75 -0.00861
26.8 -0.00866
26.85 -0.01011
26.9 -0.00785
26.95 -0.00504
27 -0.00171
27.05 0.00394
27.1 0.01068
27.15 0.01258
27.2 0.01506
27.25 0.01172
27.3 0.00917
27.35 0.0099
27.4 0.00888
27.45 0.00329
27.5 0.00114
27.55 0.00204
27.6 0.00292
27.65 0.00063
27.7 -0.00242
27.75 -0.00463
27.8 -0.00612
27.85 -0.00758
27.9 -0.01294
27.95 -0.02159
28 -0.03411
28.05 -0.04651
28.1 -0.06064
28.15 -0.07679
28.2 -0.09383
28.25 -0.10525
28.3 -0.11383
28.35 -0.12395
28.4 -0.13805
28.45 -0.15739
28.5 -0.17886
28.55 -0.21005
28.6 -0.24549
28.65 -0.28509
28.7 -0.33231
28.75 -0.3855
28.8 -0.44518
28.85 -0.50997
28.9 -0.5778
28.95 -0.65589
29 -0.74072
29.05 -0.82845
29.1 -0.91667
29.15 -1.01386
29.2 -1.11439
29.25 -1.21332
29.3 -1.31246
29.35 -1.41288
29.4 -1.51517
29.45 -1.61834
29.5 -1.71959
29.55 -1.81888
29.6 -1.91291
29.65 -2.00573
29.7 -2.09596
29.75 -2.17243
29.8 -2.23865
29.85 -2.29605
29.9 -2.34366
29.95 -2.37658
30 -2.39406
30.05 -2.39505
30.1 -2.38023
30.15 -2.34877
30.2 -2.30529
30.25 -2.24609
30.3 -2.1759
30.35 -2.08959
30.4 -1.99071
30.45 -1.88501
30.5 -1.76829
30.55 -1.64294
30.6 -1.50609
30.65 -1.36177
30.7 -1.20713
30.75 -1.04822
30.8 -0.88232
30.85 -0.71623
30.9 -0.55448
30.95 -0.39445
31 -0.23388
31.05 -0.0763
31.1 0.07803
31.15 0.23046
31.2 0.38169
31.25 0.52829
31.3 0.66742
31.35 0.79574
31.4 0.91956
31.45 1.0325
31.5 1.14072
31.55 1.24031
31.6 1.33243
31.65 1.4189
31.7 1.49779
31.75 1.57059
31.8 1.6354
31.85 1.69112
31.9 1.73928
31.95 1.77855
32 1.81332
32.05 1.84241
32.1 1.86709
32.15 1.88458
32.2 1.90136
32.25 1.91466
32.3 1.92589
32.35 1.93441
32.4 1.93545
32.45 1.93814
32.5 1.93677
32.55 1.93595
32.6 1.92749
32.65 1.91586
32.7 1.90371
32.75 1.89217
32.8 1.88192
32.85 1.87083
32.9 1.8555
32.95 1.83451
33 1.81356
33.05 1.78728
33.1 1.75958
33.15 1.72827
33.2 1.69833
33.25 1.66707
33.3 1.63656
33.35 1.60983
33.4 1.58064
33.45 1.55136
33.5 1.52279
33.55 1.49282
33.6 1.45698
33.65 1.41559
33.7 1.37451
33.75 1.33126
33.8 1.29166
33.85 1.24834
33.9 1.20825
33.95 1.16767
34 1.12294
34.05 1.07743
34.1 1.02799
34.15 0.98228
34.2 0.93409
34.25 0.88629
34.3 0.84014
34.35 0.79619
34.4 0.7497
34.45 0.70949
34.5 0.67104
34.55 0.63103
34.6 0.58935
34.65 0.5468
34.7 0.50488
34.75 0.46227
34.8 0.42317
34.85 0.38992
34.9 0.3558
34.95 0.3213
35 0.28708
35.05 0.2556
35.1 0.22841
35.15 0.20367
35.2 0.17704
35.25 0.14852
35.3 0.1231
35.35 0.09435
35.4 0.06976
35.45 0.04839
35.5 0.02139
35.55 -0.00345
35.6 -0.03058
35.65 -0.0533
35.7 -0.07191
35.75 -0.09142
35.8 -0.11193
35.85 -0.12997
35.9 -0.14599
35.95 -0.15851
36 -0.16959
36.05 -0.17879
36.1 -0.18693
36.15 -0.20023
36.2 -0.21793
36.25 -0.23038
36.3 -0.24074
36.35 -0.25006
36.4 -0.2626
36.45 -0.27509
36.5 -0.2829
36.55 -0.28779
36.6 -0.29208
36.65 -0.29997
36.7 -0.30315
36.75 -0.30852
36.8 -0.31147
36.85 -0.31595
36.9 -0.3219
36.95 -0.32238
37 -0.3208
37.05 -0.32155
37.1 -0.32364
37.15 -0.32829
37.2 -0.33024
37.25 -0.3313
37.3 -0.33426
37.35 -0.33234
37.4 -0.32695
37.45 -0.31917
37.5 -0.31073
37.55 -0.30889
37.6 -0.30939
37.65 -0.30888
37.7 -0.30715
37.75 -0.30797
37.8 -0.30472
37.85 -0.30337
37.9 -0.30406
37.95 -0.30128
38 -0.29768
38.05 -0.29609
38.1 -0.29049
38.15 -0.28246
38.2 -0.2743
38.25 -0.26481
38.3 -0.26208
38.35 -0.26126
38.4 -0.26082
38.45 -0.25939
38.5 -0.25426
38.55 -0.25362
38.6 -0.25023
38.65 -0.2438
38.7 -0.23928
38.75 -0.2397
38.8 -0.23575
38.85 -0.23233
38.9 -0.23339
38.95 -0.2339
39 -0.23129
39.05 -0.22762
39.1 -0.22713
39.15 -0.22408
39.2 -0.21749
39.25 -0.21365
39.3 -0.21073
39.35 -0.21156
39.4 -0.21045
39.45 -0.2047
39.5 -0.1977
39.55 -0.19157
39.6 -0.18974
39.65 -0.18892
39.7 -0.19074
39.75 -0.18886
39.8 -0.19017
39.85 -0.18774
39.9 -0.18134
39.95 -0.17646
40 -0.17485
40.05 -0.17534
40.1 -0.17368
40.15 -0.17457
40.2 -0.16981
40.25 -0.16307
40.3 -0.15518
40.35 -0.14785
40.4 -0.14526
40.45 -0.1412
40.5 -0.13658
40.55 -0.13651
40.6 -0.13993
40.65 -0.13928
40.7 -0.13933
40.75 -0.13674
40.8 -0.13594
40.85 -0.13221
40.9 -0.12672
40.95 -0.12596
41 -0.12774
41.05 -0.13109
41.1 -0.13187
41.15 -0.13341
41.2 -0.13325
41.25 -0.13221
41.3 -0.13173
41.35 -0.1283
41.4 -0.12244
41.45 -0.11823
41.5 -0.11181
41.55 -0.10502
41.6 -0.10106
41.65 -0.10106
41.7 -0.1
41.75 -0.09691
41.8 -0.09191
41.85 -0.09253
41.9 -0.09306
41.95 -0.09167
42 -0.08959
42.05 -0.08902
42.1 -0.08735
42.15 -0.08707
42.2 -0.08391
42.25 -0.08316
42.3 -0.08408
42.35 -0.08707
42.4 -0.08625
42.45 -0.08217
42.5 -0.08244
42.55 -0.08293
42.6 -0.08394
42.65 -0.07956
42.7 -0.07309
42.75 -0.06767
42.8 -0.06232
42.85 -0.06306
42.9 -0.06117
42.95 -0.06266
43 -0.0608
43.05 -0.05869
43.1 -0.05364
43.15 -0.04793
43.2 -0.04172
43.25 -0.03776
43.3 -0.03762
43.35 -0.04049
43.4 -0.04348
43.45 -0.04243
43.5 -0.04165
43.55 -0.04518
43.6 -0.05114
43.65 -0.05247
43.7 -0.05371
43.75 -0.05769
43.8 -0.05809
43.85 -0.06036
43.9 -0.06062
43.95 -0.06057
44 -0.05815
44.05 -0.05297
44.1 -0.04721
44.15 -0.044
44.2 -0.04449
44.25 -0.04365
44.3 -0.03926
44.35 -0.03569
44.4 -0.03565
44.45 -0.0387
44.5 -0.03925
44.55 -0.04283
44.6 -0.04376
44.65 -0.04219
44.7 -0.04366
44.75 -0.046
44.8 -0.04945
44.85 -0.04794
44.9 -0.04716
44.95 -0.04931
45 -0.0507
45.05 -0.04795
45.1 -0.04468
45.15 -0.03828
45.2 -0.02972
45.25 -0.02447
45.3 -0.02059
45.35 -0.01762
45.4 -0.01817
45.45 -0.02278
45.5 -0.02999
45.55 -0.0342
45.6 -0.03562
45.65 -0.03782
45.7 -0.04206
45.75 -0.03967
45.8 -0.03916
45.85 -0.03699
45.9 -0.03456
45.95 -0.03317
46 -0.03394
46.05 -0.03668
46.1 -0.03442
46.15 -0.03391
46.2 -0.03516
46.25 -0.03423
46.3 -0.03372
46.35 -0.03359
46.4 -0.0348
46.45 -0.03368
46.5 -0.03193
46.55 -0.02669
46.6 -0.0196
46.65 -0.01755
46.7 -0.01693
46.75 -0.01515
46.8 -0.01611
46.85 -0.0171
46.9 -0.01771
46.95 -0.01874
47 -0.01846
47.05 -0.01929
47.1 -0.01913
47.15 -0.02114
47.2 -0.02562
47.25 -0.02924
47.3 -0.02953
47.35 -0.0308
47.4 -0.02916
47.45 -0.0279
47.5 -0.02676
47.55 -0.02642
47.6 -0.02256
47.65 -0.02276
47.7 -0.02234
47.75 -0.02405
47.8 -0.02344
47.85 -0.02337
47.9 -0.02405
47.95 -0.02273
48 -0.01867
48.05 -0.0167
48.1 -0.01726
48.15 -0.01334
48.2 -0.01095
48.25 -0.01204
48.3 -0.01319
48.35 -0.01174
48.4 -0.00685
48.45 -0.00144
48.5 -0.00183
48.55 -0.00151
48.6 -0.00332
48.65 -0.0018
48.7 -0.00086
48.75 -0.00362
48.8 -0.00267
48.85 0.00074
48.9 0.00196
48.95 0.00389
49 0.00294
49.05 0.00078
49.1 -0.00497
49.15 -0.00921
49.2 -0.01321
49.25 -0.01899
49.3 -0.02449
49.35 -0.02675
49.4 -0.02966
49.45 -0.0332
49.5 -0.03147
49.55 -0.02872
49.6 -0.02866
49.65 -0.027
49.7 -0.02153
49.75 -0.01335
49.8 -0.00718
49.85 -0.00519
49.9 -0.00676
49.95 -0.00572
50 -0.00703
50.05 -0.00363
50.1 -0.00458
50.15 -0.00135
50.2 -0.00213
50.25 -0.00174
50.3 -0.00267
50.35 0.00022
50.4 0.00501
50.45 0.00414
50.5 0.00258
50.55 0.00279
50.6 0.00189
50.65 -0.0005
50.7 0.00056
50.75 0.00453
50.8 0.00826
50.85 0.01295
50.9 0.01631
50.95 0.01384
51 0.01366
51.05 0.01366
51.1 0.01063
51.15 0.00944
51.2 0.01069
51.25 0.00782
51.3 0.00453
51.35 0.00292
51.4 0.00331
51.45 0.00167
51.5 0.00284
51.55 0.00618
51.6 0.01064
51.65 0.01303
51.7 0.00973
51.75 0.00893
51.8 0.00972
51.85 0.00593
51.9 0.00221
51.95 0.00135
52 0.00134
52.05 0.00012
52.1 -0.00097
52.15 -0.00583
52.2 -0.01002
52.25 -0.01494
52.3 -0.01522
52.35 -0.0128
52.4 -0.00739
52.45 -0.00191
52.5 0.00415
52.55 0.00576
52.6 0.00542
52.65 0.00347
52.7 0.00204
52.75 -0.00182
52.8 -0.00622
52.85 -0.00598
52.9 -0.00832
52.95 -0.01082
53 -0.0083
53.05 -0.00294
53.1 0.0019
53.15 0.00386
53.2 0.00233
53.25 -0.00057
53.3 0.00051
53.35 -0.00135
53.4 -0.0041
53.45 -0.00644
53.5 -0.01075
53.55 -0.01064
53.6 -0.01059
53.65 -0.00815
53.7 -0.00471
53.75 -0.00578
53.8 -0.00355
53.85 -0.00423
53.9 -0.0067
53.95 -0.00781
54 -0.00453
54.05 -0.00397
54.1 -0.00562
54.15 -0.00331
54.2 -0.00533
54.25 -0.00363
54.3 -0.00637
54.35 -0.0101
54.4 -0.00789
54.45 -0.00931
54.5 -0.0103
54.55 -0.01033
54.6 -0.01026
54.65 -0.0128
54.7 -0.01524
54.75 -0.01201
54.8 -0.00605
54.85 -0.00564
54.9 -0.00586
54.95 -0.00284
55 0.0022
55.05 0.00191
55.1 -0.00015
55.15 -0.00231
55.2 -0.00205
55.25 -0.00455
55.3 -0.00233
55.35 -0.00108
55.4 0.0016
55.45 0.00624
55.5 0.00818
55.55 0.00577
55.6 0.00657
55.65 0.01008
55.7 0.01449
55.75 0.01234
55.8 0.01192
55.85 0.00716
55.9 0.00546
55.95 0.00687
56 0.00678
56.05 0.00664
56.1 0.00607
56.15 0.0053
56.2 0.00532
56.25 0.00244
56.3 -0.00051
56.35 -0.0025
56.4 -0.00691
56.45 -0.01103
56.5 -0.01397
56.55 -0.01777
56.6 -0.01882
56.65 -0.01703
56.7 -0.01337
56.75 -0.01388
56.8 -0.0131
56.85 -0.0124
56.9 -0.01096
56.95 -0.01244
57 -0.01411
57.05 -0.01204
57.1 -0.00857
57.15 -0.00236
57.2 0.00076
57.25 0.00408
57.3 0.00753
57.35 0.00696
57.4 0.00979
57.45 0.01028
57.5 0.00689
57.55 0.00328
57.6 -0.00228
57.65 -0.00231
57.7 0.00003
57.75 0.00142
57.8 -0.00182
57.85 -0.00157
57.9 -0.00383
57.95 -0.0038
58 -0.0044
58.05 -0.00802
58.1 -0.00733
58.15 -0.01018
58.2 -0.01161
58.25 -0.01556
58.3 -0.01286
58.35 -0.00628
58.4 -0.00214
58.45 -0.00158
58.5 -0.00179
58.55 -0.00121
58.6 -0.00004
58.65 -0.0027
58.7 -0.00139
58.75 -0.00107
58.8 -0.00406
58.85 -0.00651
58.9 -0.00894
58.95 -0.01163
59 -0.01419
59.05 -0.01221
59.1 -0.00733
59.15 -0.00359
59.2 0.00079
59.25 0.00525
59.3 0.00674
59.35 0.01058
59.4 0.01598
59.45 0.01624
59.5 0.01336
59.55 0.01258
59.6 0.00752
59.65 0.00456
59.7 0.00001
59.75 -0.00244
59.8 -0.00459
59.85 -0.00508
59.9 -0.00262
59.95 0.00017
60 0.00228
60.05 0.00082
60.1 -0.00254
60.15 -0.00289
60.2 -0.00465
60.25 -0.00555
60.3 -0.00375
60.35 -0.00211
60.4 0.0018
60.45 0.00412
60.5 0.00227
60.55 0.00237
60.6 0.00149
60.65 0.00453
60.7 0.00883
60.75 0.00934
60.8 0.01231
60.85 0.01689
60.9 0.02194
60.95 0.02004
61 0.01593
61.05 0.01269
61.1 0.00924
61.15 0.008
61.2 0.00525
61.25 0.00468
61.3 0.00373
61.35 0.00657
61.4 0.00571
61.45 0.00128
61.5 -0.00467
61.55 -0.00496
61.6 -0.00277
61.65 -0.0001
61.7 0.00534
61.75 0.0072
61.8 0.0079
61.85 0.00982
61.9 0.01314
61.95 0.01453
62 0.01245
62.05 0.01198
62.1 0.01193
62.15 0.01059
62.2 0.00961
62.25 0.00818
62.3 0.00478
62.35 0.00163
62.4 -0.0005
62.45 0.00003
62.5 -0.00282
62.55 -0.00413
62.6 -0.00895
62.65 -0.01084
62.7 -0.01182
62.75 -0.00958
62.8 -0.00634
62.85 -0.00695
62.9 -0.00495
62.95 -0.00727
63 -0.00444
63.05 -0.00478
63.1 -0.00239
63.15 0.00236
63.2 0.00428
63.25 0.00182
63.3 0.00124
63.35 0.0021
63.4 0.00059
63.45 -0.00264
63.5 -0.00755
63.55 -0.00668
63.6 -0.00207
63.65 -0.00039
63.7 -0.00164
63.75 -0.00633
63.8 -0.01166
63.85 -0.01188
63.9 -0.01519
63.95 -0.01796
64 -0.01908
64.05 -0.02154
64.1 -0.02125
64.15 -0.01724
64.2 -0.01301
64.25 -0.00734
64.3 -0.00019
64.35 0.0047
64.4 0.00328
64.45 0.00008
64.5 -0.00147
64.55 -0.00329
64.6 -0.00203
64.65 0.00226
64.7 0.00522
64.75 0.00941
64.8 0.00743
64.85 0.00638
64.9 0.005
64.95 0.0011
65 -0.00005
65.05 0.00239
65.1 0.00193
65.15 0.00301
65.2 -0.00005
65.25 -0.00519
65.3 -0.00781
65.35 -0.0127
65.4 -0.01873
65.45 -0.01765
65.5 -0.01655
65.55 -0.01536
65.6 -0.00939
65.65 -0.0009
65.7 0.00594
65.75 0.0057
65.8 0.00526
65.85 0.00295
65.9 0.00225
65.95 0.0021
66 0.00387
66.05 0.00095
66.1 -0.00188
66.15 -0.00371
66.2 -0.00523
66.25 -0.00621
66.3 -0.00358
66.35 -0.00376
66.4 -0.00441
66.45 -0.00444
66.5 -0.00199
66.55 -0.00045
66.6 0.00262
66.65 0.00237
66.7 0.00567
66.75 0.00851
66.8 0.00691
66.85 0.0028
66.9 0.00347
66.95 0.00048
67 0.0022
67.05 0.00298
67.1 0.00544
67.15 0.00677
67.2 0.01089
67.25 0.01571
67.3 0.01852
67.35 0.01985
67.4 0.02094
67.45 0.01988
67.5 0.01654
67.55 0.01464
67.6 0.01388
67.65 0.01005
67.7 0.00497
67.75 0.00119
67.8 -0.00535
67.85 -0.0102
67.9 -0.0121
67.95 -0.01421
68 -0.01156
68.05 -0.00914
68.1 -0.00382
68.15 -0.00355
68.2 -0.00366
68.25 -0.0061
68.3 -0.00475
68.35 -0.00326
68.4 -0.0014
68.45 0.00226
68.5 0.00603
68.55 0.00694
68.6 0.00979
68.65 0.00814
68.7 0.00212
68.75 -0.00129
68.8 -0.00501
68.85 -0.00839
68.9 -0.0096
68.95 -0.00831
69 -0.00396
69.05 -0.00337
69.1 -0.00323
69.15 -0.00499
69.2 -0.0071
69.25 -0.00483
69.3 0.0004
69.35 0.00546
69.4 0.01113
69.45 0.00989
69.5 0.00635
69.55 0.0045
69.6 0.00668
69.65 0.01055
69.7 0.01346
69.75 0.01459
69.8 0.0165
69.85 0.01315
69.9 0.00573
69.95 0.00112
70 -0.00248
70.05 -0.00564
70.1 -0.00608
70.15 -0.00694
70.2 -0.00916
70.25 -0.00742
70.3 -0.00278
70.35 0.00345
70.4 0.00516
70.45 0.00793
70.5 0.00844
70.55 0.00591
70.6 0.00127
70.65 -0.00186
70.7 -0.00234
70.75 -0.00039
70.8 -0.00244
70.85 -0.00105
70.9 0.00102
70.95 0.00571
71 0.00873
71.05 0.01345
71.1 0.01471
71.15 0.01167
71.2 0.00587
71.25 -0.0017
71.3 -0.00435
71.35 -0.00388
71.4 -0.00348
71.45 -0.00337
71.5 -0.00115
71.55 -0.0023
71.6 -0.00168
71.65 0.00114
71.7 0.0055
71.75 0.00466
71.8 0.00697
71.85 0.00731
71.9 0.00644
71.95 0.00764
72 0.0035
72.05 0.00247
72.1 0.00163
72.15 0.0031
72.2 0.00647
72.25 0.01157
72.3 0.01708
72.35 0.02058
72.4 0.02051
72.45 0.02126
72.5 0.01613
72.55 0.00963
72.6 0.00459
72.65 0.00397
72.7 0.00012
72.75 -0.00307
72.8 -0.00204
72.85 -0.00257
72.9 -0.00339
72.95 -0.00494
73 -0.00664
73.05 -0.00987
73.1 -0.01245
73.15 -0.01
73.2 -0.00878
73.25 -0.01155
73.3 -0.01015
73.35 -0.00769
73.4 -0.0081
73.45 -0.01191
73.5 -0.01697
73.55 -0.01914
73.6 -0.02228
73.65 -0.02456
73.7 -0.02443
73.75 -0.02551
73.8 -0.0276
73.85 -0.02451
73.9 -0.0206
73.95 -0.01353
74 -0.00627
74.05 0.00103
74.1 0.00685
74.15 0.00832
74.2 0.00828
74.25 0.01048
74.3 0.01406
74.35 0.01727
74.4 0.02135
74.45 0.02478
74.5 0.02627
74.55 0.02061
74.6 0.01682
74.65 0.01575
74.7 0.01229
74.75 0.01093
74.8 0.0099
74.85 0.01048
74.9 0.01165
74.95 0.01051
75 0.00507
75.05 0.00377
75.1 0.00528
75.15 0.00878
75.2 0.01126
75.25 0.01007
75.3 0.00423
75.35 0.00307
75.4 0.0037
75.45 0.00185
75.5 0.00334
75.55 0.00168
75.6 -0.00216
75.65 -0.00166
75.7 0.00057
75.75 -0.00232
75.8 -0.00473
75.85 -0.00737
75.9 -0.0077
75.95 -0.01081
76 -0.00855
76.05 -0.00516
76.1 -0.00449
76.15 -0.00142
76.2 -0.00336
76.25 -0.00351
76.3 -0.00134
76.35 0.00063
76.4 -0.00219
76.45 -0.00101
76.5 -0.00317
76.55 -0.00406
76.6 -0.00331
76.65 0.00016
76.7 0.00239
76.75 0.00146
76.8 -0.00069
76.85 -0.00658
76.9 -0.01409
76.95 -0.01851
77 -0.02116
77.05 -0.0177
77.1 -0.01822
77.15 -0.01857
77.2 -0.02123
77.25 -0.01969
77.3 -0.01483
77.35 -0.00874
77.4 -0.00835
77.45 -0.0103
77.5 -0.01229
77.55 -0.00884
77.6 -0.00783
77.65 -0.00418
77.7 -0.00088
77.75 0.00051
77.8 -0.00283
77.85 -0.00204
77.9 -0.00456
77.95 -0.00997
78 -0.01518
78.05 -0.01897
78.1 -0.01793
78.15 -0.01404
78.2 -0.01284
78.25 -0.0097
78.3 -0.00809
78.35 -0.00673
78.4 -0.00174
78.45 0.00012
78.5 0.00018
78.55 0.00035
78.6 -0.00334
78.65 -0.00861
78.7 -0.01288
78.75 -0.01655
78.8 -0.0173
78.85 -0.01356
78.9 -0.00876
78.95 -0.00393
79 -0.00071
79.05 -0.00222
79.1 -0.00447
79.15 -0.0048
79.2 -0.00073
79.25 0.00097
79.3 -0.00191
79.35 0.00017
79.4 0.00379
79.45 0.00603
79.5 0.01073
79.55 0.0095
79.6 0.01019
79.65 0.01221
79.7 0.01067
79.75 0.00921
79.8 0.0106
79.85 0.01429
79.9 0.01366
79.95 0.0148
80 0.01727
80.05 0.02075
80.1 0.02167
80.15 0.02196
80.2 0.02273
80.25 0.02065
80.3 0.01593
80.35 0.01104
80.4 0.00605
80.45 -0.00014
80.5 -0.00493
80.55 -0.00579
80.6 -0.00426
80.65 0.0002
80.7 0.00142
80.75 -0.00018
80.8 -0.00416
80.85 -0.00275
80.9 -0.00422
80.95 -0.00746
81 -0.01129
81.05 -0.01377
81.1 -0.01582
81.15 -0.01265
81.2 -0.01087
81.25 -0.00622
81.3 -0.00581
81.35 -0.00608
81.4 -0.00816
81.45 -0.00939
81.5 -0.0088
81.55 -0.00876
81.6 -0.00936
81.65 -0.00929
81.7 -0.01023
81.75 -0.00782
81.8 -0.00653
81.85 -0.005
81.9 -0.0026
81.95 0.00073
82 -0.00085
82.05 -0.00132
82.1 -0.00251
82.15 -0.00359
82.2 -0.00744
82.25 -0.01158
82.3 -0.01235
82.35 -0.01457
82.4 -0.01394
82.45 -0.00953
82.5 -0.00727
82.55 -0.00436
82.6 -0.00582
82.65 -0.00982
82.7 -0.01527
82.75 -0.01411
82.8 -0.01442
82.85 -0.01256
82.9 -0.00774
82.95 -0.0067
83 -0.00486
83.05 -0.00187
83.1 0.00031
83.15 0.00515
83.2 0.00682
83.25 0.00823
83.3 0.00657
83.35 0.00435
83.4 0.00532
83.45 0.00587
83.5 0.00782
83.55 0.00458
83.6 0.00548
83.65 0.00192
83.7 -0.00327
83.75 -0.00448
83.8 -0.00597
83.85 -0.00703
83.9 -0.00996
83.95 -0.01343
84 -0.01476
84.05 -0.01541
84.1 -0.01455
84.15 -0.01196
84.2 -0.01174
84.25 -0.01234
84.3 -0.01266
84.35 -0.01119
84.4 -0.0099
84.45 -0.01048
84.5 -0.00845
84.55 -0.00674
84.6 -0.0019
84.65 -0.00037
84.7 -0.00153
84.75 -0.00035
84.8 -0.00127
84.85 -0.0049
84.9 -0.00752
84.95 -0.01101
85 -0.01058
85.05 -0.01073
85.1 -0.00994
85.15 -0.01141
85.2 -0.01302
85.25 -0.01504
85.3 -0.01756
85.35 -0.02051
85.4 -0.0211
85.45 -0.01572
85.5 -0.01189
85.55 -0.01097
85.6 -0.01003
85.65 -0.00616
85.7 -0.00276
85.75 -0.00284
85.8 -0.001
85.85 0.00268
85.9 0.0092
85.95 0.01265
86 0.01177
86.05 0.00999
86.1 0.00508
86.15 0.00546
86.2 0.00754
86.25 0.00832
86.3 0.00505
86.35 0.00027
86.4 -0.00376
86.45 -0.00849
86.5 -0.013
86.55 -0.01301
86.6 -0.01268
86.65 -0.01003
86.7 -0.00815
86.75 -0.00964
86.8 -0.01131
86.85 -0.01336
86.9 -0.01467
86.95 -0.01266
87 -0.00872
87.05 -0.00698
87.1 -0.00148
87.15 -0.00018
87.2 0.00353
87.25 0.00338
87.3 0.00727
87.35 0.01081
87.4 0.01186
87.45 0.00799
87.5 0.00263
87.55 -0.00022
87.6 -0.00012
87.65 -0.00032
87.7 0.00228
87.75 0.00093
87.8 0.0019
87.85 0.00516
87.9 0.00448
87.95 0.00079
88 0.00121
88.05 -0.0009
88.1 -0.00266
88.15 -0.00632
88.2 -0.00605
88.25 -0.00283
88.3 0.00142
88.35 0.00805
88.4 0.00901
88.45 0.00709
88.5 0.00968
88.55 0.00806
88.6 0.00307
88.65 -0.00256
88.7 -0.00203
88.75 -0.00207
88.8 -0.00151
88.85 0.00262
88.9 0.00538
88.95 0.00303
89 0.00268
89.05 0.0028
89.1 -0.00034
89.15 -0.00162
89.2 -0.00102
89.25 0.00229
89.3 0.00346
89.35 0.00024
89.4 -0.00018
89.45 -0.00373
89.5 -0.00202
89.55 0.00168
89.6 0.00802
89.65 0.0117
89.7 0.01624
89.75 0.02115
89.8 0.02538
89.85 0.02443
89.9 0.02043
89.95 0.01527
90 0.01264
90.05 0.0076
90.1 0.0021
90.15 0.00063
90.2 -0.0021
90.25 -0.00331
90.3 -0.00585
90.35 -0.00319
90.4 -0.00146
90.45 0.00342
90.5 0.00415
90.55 0.00761
90.6 0.00641
90.65 0.00276
90.7 0.00129
90.75 0.00253
90.8 0.00387
90.85 0.0008
90.9 -0.00374
90.95 -0.00601
91 -0.00395
91.05 -0.00213
91.1 -0.00338
91.15 -0.00274
91.2 -0.00031
91.25 0.00253
91.3 0.0058
91.35 0.00865
91.4 0.00747
91.45 0.00255
91.5 -0.00442
91.55 -0.00929
91.6 -0.01404
91.65 -0.01438
91.7 -0.01503
91.75 -0.01263
91.8 -0.01366
91.85 -0.00946
91.9 -0.00216
91.95 -0.00065
92 0.00317
92.05 0.00646
92.1 0.00875
92.15 0.00917
92.2 0.00612
92.25 0.00723
92.3 0.005
92.35 -0.00011
92.4 -0.00447
92.45 -0.00361
92.5 -0.00393
92.55 -0.002
92.6 0.00129
92.65 0.00298
92.7 0.00293
92.75 -0.0008
92.8 -0.00633
92.85 -0.00842
92.9 -0.00773
92.95 -0.00717
93 -0.0098
93.05 -0.01039
93.1 -0.01207
93.15 -0.01267
93.2 -0.01552
93.25 -0.01895
93.3 -0.0155
93.35 -0.01409
93.4 -0.00924
93.45 -0.0012
93.5 0.00411
93.55 0.0075
93.6 0.0078
93.65 0.00956
93.7 0.00818
93.75 0.01066
93.8 0.00952
93.85 0.00902
93.9 0.01195
93.95 0.00974
94 0.00737
94.05 0.00385
94.1 -0.00159
94.15 -0.00521
94.2 -0.00927
94.25 -0.00832
94.3 -0.01011
94.35 -0.0111
94.4 -0.01212
94.45 -0.01169
94.5 -0.00841
94.55 -0.00849
94.6 -0.00532
94.65 -0.0045
94.7 -0.00393
94.75 0.00056
94.8 0.00248
94.85 0.00166
94.9 -0.0023
94.95 -0.0081
95 -0.00916
95.05 -0.00879
95.1 -0.00775
95.15 -0.00797
95.2 -0.00541
95.25 -0.00096
95.3 0.00282
95.35 0.00244
95.4 0.00228
95.45 0.00001
95.5 -0.00298
95.55 -0.00236
95.6 -0.0042
95.65 -0.00474
95.7 -0.00454
95.75 -0.00522
95.8 -0.00611
95.85 -0.00795
95.9 -0.00653
95.95 -0.00671
96 -0.00222
96.05 0.0008
96.1 -0.00007
96.15 -0.0025
96.2 -0.00697
96.25 -0.00628
96.3 -0.00388
96.35 0.00021
96.4 0.00168
96.45 0.00531
96.5 0.00512
96.55 0.00659
96.6 0.0082
96.65 0.00639
96.7 0.00313
96.75 0.00116
96.8 0.00186
96.85 0.00084
96.9 0.00349
96.95 0.00333
97 -0.00028
97.05 -0.0038
97.1 -0.00764
97.15 -0.00551
97.2 -0.00352
97.25 -0.00393
97.3 -0.00032
97.35 0.0047
97.4 0.00385
97.45 0.00103
97.5 -0.00153
97.55 -0.00581
97.6 -0.00883
97.65 -0.00706
97.7 -0.00653
97.75 -0.00317
97.8 0.00137
97.85 0.00558
97.9 0.00724
97.95 0.00512
98 0.00694
98.05 0.0077
98.1 0.00766
98.15 0.0069
98.2 0.00706
98.25 0.0068
98.3 0.00598
98.35 0.00659
98.4 0.01043
98.45 0.01562
98.5 0.01688
98.55 0.01957
98.6 0.02235
98.65 0.02304
98.7 0.02335
98.75 0.02281
98.8 0.02165
98.85 0.01796
98.9 0.0139
98.95 0.01109
99 0.01176
99.05 0.01224
99.1 0.0103
99.15 0.00461
99.2 -0.00101
99.25 -0.00529
99.3 -0.00778
99.35 -0.00866
99.4 -0.01118
99.45 -0.01253
99.5 -0.0128
99.55 -0.01006
99.6 -0.00398
99.65 -0.00323
99.7 -0.00595
99.75 -0.00984
99.8 -0.01015
99.85 -0.00818
99.9 -0.00395
99.95 0.00318
