0 0
0.05 0.00902
0.1 0.01689
0.15 0.02079
0.2 0.02579
0.25 0.0315
0.3 0.03344
0.35 0.04004
0.4 0.04116
0.45 0.04696
0.5 0.05406
0.55 0.06261
0.6 0.06358
0.65 0.06528
0.7 0.06731
0.75 0.06272
0.8 0.06294
0.85 0.06187
0.9 0.06221
0.95 0.0649
1 0.06339
1.05 0.06162
1.1 0.05929
1.15 0.05636
1.2 0.0561
1.25 0.05543
1.3 0.05144
1.35 0.05072
1.4 0.05344
1.45 0.05676
1.5 0.05601
1.55 0.05773
1.6 0.06028
1.65 0.0635
1.7 0.06484
1.75 0.06177
1.8 0.05276
1.85 0.04613
1.9 0.03848
1.95 0.0303
2 0.02858
2.05 0.02865
2.1 0.03
2.15 0.03182
2.2 0.02933
2.25 0.02662
2.3 0.0259
2.35 0.02876
2.4 0.02898
2.45 0.02878
2.5 0.02554
2.55 0.02399
2.6 0.02173
2.65 0.01601
2.7 0.00917
2.75 0.00636
2.8 0.00664
2.85 0.00936
2.9 0.01609
2.95 0.01969
3 0.02057
3.05 0.01903
3.1 0.01854
3.15 0.01616
3.2 0.01299
3.25 0.01407
3.3 0.01055
3.35 0.00902
3.4 0.01082
3.45 0.0171
3.5 0.02301
3.55 0.0269
3.6 0.02453
3.65 0.02299
3.7 0.0221
3.75 0.01822
3.8 0.0116
3.85 0.00672
3.9 0.0049
3.95 0.00366
4 0.0044
4.05 0.00344
4.1 0.00081
4.15 0.00034
4.2 -0.00006
4.25 0.00404
4.3 0.01025
4.35 0.00864
4.4 0.00437
4.45 -0.00643
4.5 -0.01947
4.55 -0.03497
4.6 -0.04757
4.65 -0.06261
4.7 -0.07903
4.75 -0.1004
4.8 -0.12468
4.85 -0.14604
4.9 -0.16959
4.95 -0.2008
5 -0.23562
5.05 -0.27656
5.1 -0.32529
5.15 -0.37928
5.2 -0.44231
5.25 -0.50655
5.3 -0.57962
5.35 -0.658
5.4 -0.73507
5.45 -0.81656
5.5 -0.90231
5.55 -0.99415
5.6 -1.08202
5.65 -1.17029
5.7 -1.26325
5.75 -1.35589
5.8 -1.44227
5.85 -1.52939
5.9 -1.60844
5.95 -1.68206
6 -1.75179
6.05 -1.81197
6.1 -1.86541
6.15 -1.91452
6.2 -1.95903
6.25 -1.99918
6.3 -2.03246
6.35 -2.06623
6.4 -2.0933
6.45 -2.11529
6.5 -2.13136
6.55 -2.14004
6.6 -2.13461
6.65 -2.11932
6.7 -2.09424
6.75 -2.0565
6.8 -2.00516
6.85 -1.94557
6.9 -1.87545
6.95 -1.7865
7 -1.68096
7.05 -1.56544
7.1 -1.44012
7.15 -1.30252
7.2 -1.1577
7.25 -1.00362
7.3 -0.83747
7.35 -0.66779
7.4 -0.49604
7.45 -0.31808
7.5 -0.13468
7.55 0.04747
7.6 0.2257
7.65 0.39306
7.7 0.55724
7.75 0.71699
7.8 0.86244
7.85 0.99775
7.9 1.12181
7.95 1.23844
8 1.3487
8.05 1.44656
8.1 1.52932
8.15 1.60341
8.2 1.66622
8.25 1.71727
8.3 1.75851
8.35 1.79025
8.4 1.82043
8.45 1.8478
8.5 1.87226
8.55 1.89156
8.6 1.90475
8.65 1.91183
8.7 1.91428
8.75 1.91113
8.8 1.90591
8.85 1.90177
8.9 1.89798
8.95 1.88555
9 1.87397
9.05 1.86049
9.1 1.8429
9.15 1.82162
9.2 1.8014
9.25 1.7838
9.3 1.76785
9.35 1.7553
9.4 1.73692
9.45 1.71405
9.5 1.69376
9.55 1.67338
9.6 1.65341
9.65 1.63503
9.7 1.61483
9.75 1.58874
9.8 1.55682
9.85 1.52542
9.9 1.49432
9.95 1.45914
10 1.42684
10.05 1.39774
10.1 1.36782
10.15 1.33096
10.2 1.28881
10.25 1.25166
10.3 1.21388
10.35 1.17805
10.4 1.14273
10.45 1.10417
10.5 1.05986
10.55 1.01085
10.6 0.96465
10.65 0.92031
10.7 0.87878
10.75 0.8334
10.8 0.79151
10.85 0.74959
10.9 0.70443
10.95 0.65751
11 0.61461
11.05 0.57436
11.1 0.53601
11.15 0.50183
11.2 0.46114
11.25 0.4203
11.3 0.38281
11.35 0.34581
11.4 0.31035
11.45 0.27529
11.5 0.24146
11.55 0.2097
11.6 0.18036
11.65 0.1502
11.7 0.11864
11.75 0.0845
11.8 0.05073
11.85 0.01945
11.9 -0.0052
11.95 -0.02597
12 -0.04532
12.05 -0.06702
12.1 -0.08933
12.15 -0.11221
12.2 -0.13392
12.25 -0.14849
12.3 -0.16247
12.35 -0.17729
12.4 -0.1926
12.45 -0.20286
12.5 -0.21145
12.55 -0.22274
12.6 -0.22982
12.65 -0.2361
12.7 -0.24179
12.75 -0.24821
12.8 -0.25868
12.85 -0.27071
12.9 -0.27855
12.95 -0.28868
13 -0.29503
13.05 -0.30045
13.1 -0.30483
13.15 -0.30785
13.2 -0.31008
13.25 -0.31382
13.3 -0.31221
13.35 -0.31055
13.4 -0.31032
13.45 -0.31158
13.5 -0.31597
13.55 -0.31995
13.6 -0.32524
13.65 -0.33004
13.7 -0.32635
13.75 -0.32436
13.8 -0.32367
13.85 -0.32473
13.9 -0.32537
13.95 -0.32073
14 -0.3143
14.05 -0.30883
14.1 -0.30516
14.15 -0.30447
14.2 -0.30305
14.25 -0.30144
14.3 -0.3022
14.35 -0.30283
14.4 -0.30253
14.45 -0.29598
14.5 -0.29308
14.55 -0.2842
14.6 -0.28025
14.65 -0.2751
14.7 -0.26868
14.75 -0.25951
14.8 -0.25434
14.85 -0.24838
14.9 -0.24509
14.95 -0.24656
15 -0.24302
15.05 -0.23863
15.1 -0.23156
15.15 -0.2258
15.2 -0.22466
15.25 -0.22166
15.3 -0.22203
15.35 -0.21812
15.4 -0.21632
15.45 -0.21649
15.5 -0.21875
15.55 -0.21491
15.6 -0.21166
15.65 -0.20662
15.7 -0.20032
15.75 -0.19174
15.8 -0.18153
15.85 -0.17331
15.9 -0.17195
15.95 -0.16718
16 -0.16545
16.05 -0.16067
16.1 -0.16122
16.15 -0.15934
16.2 -0.16084
16.25 -0.16503
16.3 -0.16879
16.35 -0.17256
16.4 -0.17106
16.45 -0.16729
16.5 -0.16698
16.55 -0.16176
16.6 -0.15561
16.65 -0.14996
16.7 -0.14386
16.75 -0.13935
16.8 -0.13236
16.85 -0.1259
16.9 -0.12117
16.95 -0.12001
17 -0.12297
17.05 -0.12849
17.1 -0.13421
17.15 -0.13653
17.2 -0.13864
17.25 -0.1382
17.3 -0.13564
17.35 -0.1342
17.4 -0.129
17.45 -0.12213
17.5 -0.11694
17.55 -0.11578
17.6 -0.1186
17.65 -0.11707
17.7 -0.11791
17.75 -0.11863
17.8 -0.11947
17.85 -0.11902
17.9 -0.11243
17.95 -0.1104
18 -0.10378
18.05 -0.10044
18.1 -0.09626
18.15 -0.09356
18.2 -0.09574
18.25 -0.0975
18.3 -0.09848
18.35 -0.10173
18.4 -0.10215
18.45 -0.09662
18.5 -0.09469
18.55 -0.09392
18.6 -0.09051
18.65 -0.08967
18.7 -0.09187
18.75 -0.08976
18.8 -0.09069
18.85 -0.08941
18.9 -0.08577
18.95 -0.0858
19 -0.08224
19.05 -0.08078
19.1 -0.07683
19.15 -0.07678
19.2 -0.07633
19.25 -0.07528
19.3 -0.07307
19.35 -0.06692
19.4 -0.06594
19.45 -0.06565
19.5 -0.06289
19.55 -0.05804
19.6 -0.05114
19.65 -0.05096
19.7 -0.05505
19.75 -0.05818
19.8 -0.06111
19.85 -0.0616
19.9 -0.05906
19.95 -0.05603
20 -0.04941
20.05 -0.04957
20.1 -0.04821
20.15 -0.043
20.2 -0.04193
20.25 -0.04544
20.3 -0.04644
20.35 -0.04376
20.4 -0.03843
20.45 -0.03969
20.5 -0.03994
20.55 -0.03986
20.6 -0.03705
20.65 -0.03861
20.7 -0.03839
20.75 -0.03428
20.8 -0.03586
20.85 -0.03548
20.9 -0.03349
20.95 -0.02779
21 -0.02462
21.05 -0.02422
21.1 -0.02785
21.15 -0.03056
21.2 -0.03208
21.25 -0.03027
21.3 -0.03091
21.35 -0.03341
21.4 -0.03418
21.45 -0.03663
21.5 -0.03869
21.55 -0.03734
21.6 -0.03856
21.65 -0.0427
21.7 -0.04778
21.75 -0.05324
21.8 -0.0589
21.85 -0.06019
21.9 -0.0549
21.95 -0.04728
22 -0.04113
22.05 -0.03766
22.1 -0.03096
22.15 -0.02307
22.2 -0.01864
22.25 -0.01855
22.3 -0.01932
22.35 -0.0199
22.4 -0.01943
22.45 -0.02368
22.5 -0.02958
22.55 -0.03192
22.6 -0.03047
22.65 -0.02623
22.7 -0.01969
22.75 -0.01884
22.8 -0.0159
22.85 -0.01527
22.9 -0.01637
22.95 -0.01918
23 -0.02425
23.05 -0.02484
23.1 -0.0212
23.15 -0.01401
23.2 -0.00793
23.25 -0.00251
23.3 0.00103
23.35 0.00186
23.4 -0.00033
23.45 -0.00303
23.5 -0.00662
23.55 -0.01022
23.6 -0.00909
23.65 -0.00924
23.7 -0.01012
23.75 -0.01182
23.8 -0.01156
23.85 -0.0145
23.9 -0.01771
23.95 -0.02215
24 -0.02455
24.05 -0.02873
24.1 -0.03172
24.15 -0.02774
24.2 -0.02215
24.25 -0.02008
24.3 -0.02206
24.35 -0.02302
24.4 -0.0233
24.45 -0.02418
24.5 -0.02346
24.55 -0.02384
24.6 -0.02195
24.65 -0.01797
24.7 -0.0143
24.75 -0.00785
24.8 -0.00323
24.85 0.00242
24.9 0.00813
24.95 0.01333
25 0.01399
25.05 0.00869
25.1 0.00442
25.15 0.00329
25.2 0.00328
25.25 0.00615
25.3 0.00285
25.35 0.00213
25.4 0.00302
25.45 0.00618
25.5 0.00264
25.55 0.0033
25.6 0.00131
25.65 0.00021
25.7 -0.00304
25.75 -0.00482
25.8 -0.00795
25.85 -0.00996
25.9 -0.00855
25.95 -0.01064
26 -0.01481
26.05 -0.0145
26.1 -0.01528
26.15 -0.01767
26.2 -0.02246
26.25 -0.02449
26.3 -0.02005
26.35 -0.01344
26.4 -0.00557
26.45 -0.00494
26.5 -0.00906
26.55 -0.01
26.6 -0.01026
26.65 -0.00898
26.7 -0.00917
26.75 -0.00806
26.8 -0.00677
26.85 -0.00182
26.9 0.00007
26.95 -0.00259
27 -0.00067
27.05 0.00335
27.1 0.00168
27.15 -0.00069
27.2 -0.00193
27.25 -0.001
27.3 -0.00253
27.35 -0.00283
27.4 -0.00464
27.45 -0.00889
27.5 -0.01315
27.55 -0.01749
27.6 -0.02327
27.65 -0.02279
27.7 -0.02049
27.75 -0.01701
27.8 -0.01449
27.85 -0.01697
27.9 -0.01549
27.95 -0.01149
28 -0.01081
28.05 -0.00637
28.1 -0.00393
28.15 0.00037
28.2 0.00466
28.25 0.00825
28.3 0.00408
28.35 -0.0009
28.4 -0.01156
28.45 -0.02179
28.5 -0.02912
28.55 -0.03271
28.6 -0.03861
28.65 -0.0509
28.7 -0.05864
28.75 -0.06335
28.8 -0.06876
28.85 -0.07519
28.9 -0.08459
28.95 -0.09419
29 -0.10558
29.05 -0.12141
29.1 -0.14123
29.15 -0.1673
29.2 -0.19126
29.25 -0.21215
29.3 -0.23547
29.35 -0.26087
29.4 -0.28681
29.45 -0.31314
29.5 -0.33974
29.55 -0.36745
29.6 -0.38557
29.65 -0.40205
29.7 -0.41898
29.75 -0.43252
29.8 -0.44163
29.85 -0.45161
29.9 -0.46144
29.95 -0.46795
30 -0.47283
30.05 -0.47569
30.1 -0.47044
30.15 -0.46697
30.2 -0.46177
30.25 -0.44898
30.3 -0.43293
30.35 -0.41654
30.4 -0.39122
30.45 -0.3654
30.5 -0.33359
30.55 -0.3028
30.6 -0.27003
30.65 -0.23926
30.7 -0.20473
30.75 -0.17413
30.8 -0.1443
30.85 -0.11373
30.9 -0.07905
30.95 -0.04357
31 -0.00694
31.05 0.03083
31.1 0.06666
31.15 0.10326
31.2 0.13621
31.25 0.16132
31.3 0.18224
31.35 0.19967
31.4 0.21641
31.45 0.23094
31.5 0.24898
31.55 0.26072
31.6 0.27383
31.65 0.2835
31.7 0.28977
31.75 0.29522
31.8 0.30165
31.85 0.31205
31.9 0.32092
31.95 0.32964
32 0.33515
32.05 0.34209
32.1 0.34254
32.15 0.33845
32.2 0.33305
32.25 0.32752
32.3 0.31894
32.35 0.31555
32.4 0.31064
32.45 0.30946
32.5 0.30518
32.55 0.3007
32.6 0.29461
32.65 0.29276
32.7 0.2919
32.75 0.28948
32.8 0.28899
32.85 0.28584
32.9 0.28159
32.95 0.28078
33 0.27666
33.05 0.27152
33.1 0.26755
33.15 0.26912
33.2 0.26644
33.25 0.26164
33.3 0.25492
33.35 0.24766
33.4 0.23955
33.45 0.23071
33.5 0.22175
33.55 0.21878
33.6 0.21444
33.65 0.20925
33.7 0.20644
33.75 0.20206
33.8 0.20265
33.85 0.19994
33.9 0.19922
33.95 0.20294
34 0.2035
34.05 0.20571
34.1 0.20906
34.15 0.21189
34.2 0.21037
34.25 0.2063
34.3 0.19893
34.35 0.19183
34.4 0.18624
34.45 0.17553
34.5 0.16158
34.55 0.15048
34.6 0.13594
34.65 0.12674
34.7 0.11926
34.75 0.11629
34.8 0.11056
34.85 0.10108
34.9 0.09187
34.95 0.08567
35 0.08266
35.05 0.07324
35.1 0.06324
35.15 0.05571
35.2 0.05191
35.25 0.04653
35.3 0.03878
35.35 0.03403
35.4 0.02993
35.45 0.02722
35.5 0.0247
35.55 0.0157
35.6 0.00752
35.65 -0.00136
35.7 -0.01121
35.75 -0.01642
35.8 -0.01944
35.85 -0.02191
35.9 -0.02053
35.95 -0.02121
36 -0.0215
36.05 -0.02827
36.1 -0.03247
36.15 -0.03962
36.2 -0.04677
36.25 -0.04745
36.3 -0.04588
36.35 -0.04257
36.4 -0.0464
36.45 -0.05148
36.5 -0.05478
36.55 -0.0603
36.6 -0.06605
36.65 -0.07414
36.7 -0.07748
36.75 -0.07541
36.8 -0.07176
36.85 -0.06545
36.9 -0.06405
36.95 -0.06495
37 -0.06361
37.05 -0.05973
37.1 -0.0594
37.15 -0.06079
37.2 -0.06185
37.25 -0.06682
37.3 -0.07182
37.35 -0.07676
37.4 -0.07687
37.45 -0.07257
37.5 -0.07021
37.55 -0.0689
37.6 -0.0649
37.65 -0.06221
37.7 -0.06448
37.75 -0.06277
37.8 -0.06196
37.85 -0.05801
37.9 -0.05719
37.95 -0.05356
38 -0.0484
38.05 -0.04445
38.1 -0.04446
38.15 -0.04967
38.2 -0.05524
38.25 -0.06021
38.3 -0.06425
38.35 -0.06465
38.4 -0.06481
38.45 -0.0613
38.5 -0.05845
38.55 -0.05171
38.6 -0.04665
38.65 -0.04536
38.7 -0.04328
38.75 -0.03933
38.8 -0.03713
38.85 -0.03583
38.9 -0.03534
38.95 -0.03706
39 -0.0427
39.05 -0.04622
39.1 -0.04875
39.15 -0.047
39.2 -0.04715
39.25 -0.04318
39.3 -0.03788
39.35 -0.02969
39.4 -0.02896
39.45 -0.02922
39.5 -0.02564
39.55 -0.02484
39.6 -0.02671
39.65 -0.0266
39.7 -0.02859
39.75 -0.02637
39.8 -0.02736
39.85 -0.0249
39.9 -0.02835
39.95 -0.0285
40 -0.03264
40.05 -0.03867
40.1 -0.04024
40.15 -0.04234
40.2 -0.0431
40.25 -0.04289
40.3 -0.03993
40.35 -0.04062
40.4 -0.04406
40.45 -0.04176
40.5 -0.04048
40.55 -0.03468
40.6 -0.03215
40.65 -0.03345
40.7 -0.02924
40.75 -0.02736
40.8 -0.02096
40.85 -0.0166
40.9 -0.01391
40.95 -0.01213
41 -0.00797
41.05 -0.01081
41.1 -0.01445
41.15 -0.01926
41.2 -0.0264
41.25 -0.02839
41.3 -0.02578
41.35 -0.02721
41.4 -0.0289
41.45 -0.03256
41.5 -0.03758
41.55 -0.0414
41.6 -0.04594
41.65 -0.04561
41.7 -0.0467
41.75 -0.04174
41.8 -0.04024
41.85 -0.03328
41.9 -0.0261
41.95 -0.0164
42 -0.00968
42.05 -0.009
42.1 -0.00984
42.15 -0.00976
42.2 -0.01342
42.25 -0.01613
42.3 -0.01694
42.35 -0.01622
42.4 -0.01405
42.45 -0.0123
42.5 -0.01477
42.55 -0.01939
42.6 -0.02176
42.65 -0.02004
42.7 -0.01455
42.75 -0.01416
42.8 -0.0155
42.85 -0.01648
42.9 -0.01799
42.95 -0.01579
43 -0.01581
43.05 -0.01084
43.1 -0.00594
43.15 -0.00691
43.2 -0.00721
43.25 -0.01126
43.3 -0.01294
43.35 -0.01031
43.4 -0.00393
43.45 -0.00267
43.5 -0.00644
43.55 -0.01188
43.6 -0.01695
43.65 -0.01813
43.7 -0.02151
43.75 -0.0183
43.8 -0.01772
43.85 -0.01288
43.9 -0.013
43.95 -0.00808
44 -0.0062
44.05 -0.0025
44.1 0.00222
44.15 0.00029
44.2 -0.00144
44.25 -0.0032
44.3 -0.00743
44.35 -0.00531
44.4 -0.00115
44.45 0.0015
44.5 0.00548
44.55 0.00762
44.6 0.00691
44.65 0.01011
44.7 0.00646
44.75 0.00076
44.8 -0.00712
44.85 -0.01529
44.9 -0.01555
44.95 -0.01902
45 -0.02088
45.05 -0.01608
45.1 -0.01231
45.15 -0.00528
45.2 -0.00407
45.25 -0.00607
45.3 -0.00849
45.35 -0.00884
45.4 -0.00909
45.45 -0.01021
45.5 -0.00961
45.55 -0.00558
45.6 -0.00161
45.65 -0.00277
45.7 -0.00238
45.75 -0.00228
45.8 -0.004
45.85 -0.00657
45.9 -0.00534
45.95 -0.0014
46 -0.00213
46.05 -0.00474
46.1 -0.0015
46.15 0.00259
46.2 0.00166
46.25 -0.00346
46.3 -0.00186
46.35 -0.00448
46.4 -0.00158
46.45 -0.00294
46.5 -0.00104
46.55 -0.00246
46.6 -0.00335
46.65 -0.00734
46.7 -0.01227
46.75 -0.01339
46.8 -0.01554
46.85 -0.01237
46.9 -0.01004
46.95 -0.00448
47 -0.00353
47.05 -0.00273
47.1 -0.00345
47.15 -0.00581
47.2 -0.00746
47.25 -0.00987
47.3 -0.00871
47.35 -0.00363
47.4 0.00171
47.45 0.00688
47.5 0.00769
47.55 0.00431
47.6 -0.00205
47.65 -0.00819
47.7 -0.01503
47.75 -0.02114
47.8 -0.02426
47.85 -0.0203
47.9 -0.01329
47.95 -0.01186
48 -0.00646
48.05 -0.00511
48.1 -0.00536
48.15 -0.00672
48.2 -0.00562
48.25 -0.00462
48.3 -0.00457
48.35 -0.00444
48.4 -0.00827
48.45 -0.01324
48.5 -0.01651
48.55 -0.01615
48.6 -0.01731
48.65 -0.02061
48.7 -0.02109
48.75 -0.02074
48.8 -0.01869
48.85 -0.01878
48.9 -0.01549
48.95 -0.01183
49 -0.00526
49.05 -0.00115
49.1 0.00001
49.15 -0.00129
49.2 -0.00554
49.25 -0.00631
49.3 -0.00528
49.35 0.00001
49.4 0.00315
49.45 0.0041
49.5 0.00893
49.55 0.00882
49.6 0.01206
49.65 0.01671
49.7 0.019
49.75 0.01973
49.8 0.01484
49.85 0.01202
49.9 0.00854
49.95 0.01057
50 0.0115
50.05 0.01421
50.1 0.01263
50.15 0.00751
50.2 0.00233
50.25 -0.00196
50.3 -0.00634
50.35 -0.00774
50.4 -0.00492
50.45 -0.00488
50.5 -0.00469
50.55 -0.00676
50.6 -0.00774
50.65 -0.0115
50.7 -0.01657
50.75 -0.02074
50.8 -0.0229
50.85 -0.02412
50.9 -0.02567
50.95 -0.02207
51 -0.01454
51.05 -0.00876
51.1 -0.00264
51.15 0.00267
51.2 0.00885
51.25 0.01079
51.3 0.01304
51.35 0.00984
51.4 0.01
51.45 0.01429
51.5 0.01479
51.55 0.01077
51.6 0.01154
51.65 0.01499
51.7 0.01327
51.75 0.01356
51.8 0.0174
51.85 0.01887
51.9 0.01776
51.95 0.01639
52 0.01611
52.05 0.01592
52.1 0.01427
52.15 0.01443
52.2 0.01401
52.25 0.01643
52.3 0.01218
52.35 0.01036
52.4 0.01221
52.45 0.01362
52.5 0.01279
52.55 0.00771
52.6 -0.00043
52.65 -0.00236
52.7 -0.00626
52.75 -0.00865
52.8 -0.01093
52.85 -0.007
52.9 -0.00132
52.95 0.00286
53 0.00632
53.05 0.0042
53.1 0.00676
53.15 0.0043
53.2 -0.00003
53.25 0.00043
53.3 -0.00333
53.35 -0.00117
53.4 -0.00167
53.45 -0.00511
53.5 -0.00344
53.55 -0.00597
53.6 -0.00539
53.65 -0.00133
53.7 0.00374
53.75 0.00214
53.8 0.00544
53.85 0.00837
53.9 0.01359
53.95 0.01578
54 0.01236
54.05 0.00774
54.1 0.00186
54.15 -0.00188
54.2 -0.00322
54.25 -0.00062
54.3 0.0041
54.35 0.00984
54.4 0.00976
54.45 0.01259
54.5 0.01607
54.55 0.01424
54.6 0.01305
54.65 0.00752
54.7 0.00398
54.75 -0.00249
54.8 -0.00661
54.85 -0.01285
54.9 -0.01189
54.95 -0.00931
55 -0.00306
55.05 -0.0032
55.1 -0.00473
55.15 -0.00852
55.2 -0.00608
55.25 -0.0063
55.3 -0.00486
55.35 -0.00196
55.4 -0.00069
55.45 0.00168
55.5 0.00604
55.55 0.01012
55.6 0.00913
55.65 0.00747
55.7 0.00726
55.75 0.00757
55.8 0.00545
55.85 0.00059
55.9 -0.00087
55.95 -0.00262
56 -0.00137
56.05 0.00284
56.1 0.00624
56.15 0.00454
56.2 0.00565
56.25 0.00849
56.3 0.01015
56.35 0.01154
56.4 0.0146
56.45 0.01606
56.5 0.01415
56.55 0.01402
56.6 0.00816
56.65 0.00558
56.7 0.00715
56.75 0.00842
56.8 0.01213
56.85 0.01391
56.9 0.01242
56.95 0.00593
57 0.00339
57.05 0.00153
57.1 0.00279
57.15 0.00653
57.2 0.00531
57.25 0.00652
57.3 0.00191
57.35 -0.00482
57.4 -0.00467
57.45 -0.00596
57.5 -0.01045
57.55 -0.01216
57.6 -0.01391
57.65 -0.01463
57.7 -0.01423
57.75 -0.0112
57.8 -0.00658
57.85 -0.00421
57.9 0.00093
57.95 0.00586
58 0.00613
58.05 0.00192
58.1 -0.00294
58.15 -0.00132
58.2 -0.00152
58.25 -0.00378
58.3 -0.00933
58.35 -0.01002
58.4 -0.01409
58.45 -0.01455
58.5 -0.01457
58.55 -0.01627
58.6 -0.01658
58.65 -0.0144
58.7 -0.0136
58.75 -0.01071
58.8 -0.01154
58.85 -0.01191
58.9 -0.01293
58.95 -0.0105
59 -0.00402
59.05 -0.00342
59.1 -0.00713
59.15 -0.0069
59.2 -0.00285
59.25 -0.00028
59.3 0.00376
59.35 0.00361
59.4 0.00717
59.45 0.00551
59.5 0.00671
59.55 0.00948
59.6 0.00742
59.65 0.00188
59.7 0.0027
59.75 -0.00134
59.8 -0.00078
59.85 0.00024
59.9 0.00097
59.95 -0.00105
60 0.00184
60.05 0.0023
60.1 0.00234
60.15 0.00066
60.2 -0.00169
60.25 -0.00727
60.3 -0.00967
60.35 -0.01118
60.4 -0.01269
60.45 -0.01136
60.5 -0.00673
60.55 -0.00723
60.6 -0.00756
60.65 -0.01009
60.7 -0.00636
60.75 0.00045
60.8 0.00247
60.85 0.00511
60.9 0.00853
60.95 0.00716
61 0.00232
61.05 0.00044
61.1 -0.00456
61.15 -0.01002
61.2 -0.01204
61.25 -0.01273
61.3 -0.01529
61.35 -0.01576
61.4 -0.01026
61.45 -0.00558
61.5 0.00201
61.55 0.00662
61.6 0.01128
61.65 0.01128
61.7 0.00841
61.75 0.005
61.8 0.00492
61.85 0.00849
61.9 0.00739
61.95 0.00555
62 0.00177
62.05 0.00389
62.1 0.00837
62.15 0.01003
62.2 0.01213
62.25 0.01143
62.3 0.01328
62.35 0.01512
62.4 0.01651
62.45 0.01639
62.5 0.01828
62.55 0.01529
62.6 0.01576
62.65 0.0176
62.7 0.01566
62.75 0.01692
62.8 0.01343
62.85 0.01444
62.9 0.01424
62.95 0.01619
63 0.01214
63.05 0.01134
63.1 0.00822
63.15 0.00905
63.2 0.00957
63.25 0.0109
63.3 0.00708
63.35 0.00737
63.4 0.00626
63.45 0.00698
63.5 0.00517
63.55 -0.00106
63.6 -0.00787
63.65 -0.01
63.7 -0.01467
63.75 -0.01854
63.8 -0.01854
63.85 -0.01465
63.9 -0.01309
63.95 -0.0149
64 -0.01436
64.05 -0.01188
64.1 -0.01228
64.15 -0.00923
64.2 -0.0066
64.25 -0.00043
64.3 0.00308
64.35 0.00312
64.4 0.00079
64.45 0.00039
64.5 0.00217
64.55 -0.00107
64.6 -0.00401
64.65 -0.00304
64.7 -0.0055
64.75 -0.00417
64.8 -0.00123
64.85 0.00466
64.9 0.0047
64.95 0.0004
65 -0.00281
65.05 -0.00825
65.1 -0.00897
65.15 -0.01181
65.2 -0.01148
65.25 -0.01349
65.3 -0.01233
65.35 -0.0132
65.4 -0.01225
65.45 -0.01355
65.5 -0.01579
65.55 -0.01953
65.6 -0.0224
65.65 -0.01965
65.7 -0.02079
65.75 -0.01752
65.8 -0.01785
65.85 -0.01239
65.9 -0.00677
65.95 -0.00404
66 -0.00573
66.05 -0.00569
66.1 -0.00117
66.15 0.00367
66.2 0.00546
66.25 0.00586
66.3 0.00301
66.35 -0.00245
66.4 -0.00878
66.45 -0.00823
66.5 -0.00673
66.55 -0.00661
66.6 -0.00475
66.65 -0.00117
66.7 -0.00212
66.75 -0.00524
66.8 -0.00748
66.85 -0.00442
66.9 0.00181
66.95 0.00202
67 0.00015
67.05 0.00361
67.1 0.00603
67.15 0.00347
67.2 0.00249
67.25 0.00607
67.3 0.00987
67.35 0.01189
67.4 0.01614
67.45 0.02179
67.5 0.02017
67.55 0.02174
67.6 0.0164
67.65 0.01233
67.7 0.00663
67.75 0.0068
67.8 0.00623
67.85 0.00073
67.9 -0.00576
67.95 -0.0055
68 -0.00535
68.05 -0.00315
68.1 0.00285
68.15 0.00763
68.2 0.01094
68.25 0.0105
68.3 0.00545
68.35 0.00469
68.4 0.00431
68.45 0.00384
68.5 0.00067
68.55 -0.00124
68.6 -0.0029
68.65 -0.00798
68.7 -0.01398
68.75 -0.01425
68.8 -0.01026
68.85 -0.01147
68.9 -0.01563
68.95 -0.01901
69 -0.0226
69.05 -0.02581
69.1 -0.0302
69.15 -0.02789
69.2 -0.0198
69.25 -0.01753
69.3 -0.01492
69.35 -0.00887
69.4 -0.00728
69.45 -0.00651
69.5 -0.00711
69.55 -0.00569
69.6 -0.00829
69.65 -0.01353
69.7 -0.01459
69.75 -0.01298
69.8 -0.01289
69.85 -0.01076
69.9 -0.00442
69.95 0.00008
70 0.00032
70.05 -0.00164
70.1 -0.00524
70.15 -0.00639
70.2 -0.0104
70.25 -0.01546
70.3 -0.01961
70.35 -0.02317
70.4 -0.02742
70.45 -0.02321
70.5 -0.01816
70.55 -0.01481
70.6 -0.009
70.65 0.00025
70.7 0.00553
70.75 0.0125
70.8 0.01834
70.85 0.02146
70.9 0.01958
70.95 0.01354
71 0.01282
71.05 0.00857
71.1 0.00199
71.15 0.00018
71.2 -0.00365
71.25 -0.00989
71.3 -0.00859
71.35 -0.00724
71.4 -0.00092
71.45 0.00202
71.5 0.00671
71.55 0.01217
71.6 0.01544
71.65 0.0151
71.7 0.01704
71.75 0.01704
71.8 0.01367
71.85 0.00707
71.9 0.0051
71.95 0.00033
72 -0.00327
72.05 -0.00704
72.1 -0.00399
72.15 0.00205
72.2 0.00314
72.25 -0.00071
72.3 -0.00384
72.35 -0.00878
72.4 -0.00735
72.45 -0.00492
72.5 -0.00207
72.55 -0.00236
72.6 0.00097
72.65 0.00506
72.7 0.00961
72.75 0.01612
72.8 0.02326
72.85 0.0239
72.9 0.02012
72.95 0.01614
73 0.01299
73.05 0.01314
73.1 0.01026
73.15 0.00605
73.2 0.00317
73.25 -0.00259
73.3 -0.00791
73.35 -0.0129
73.4 -0.01505
73.45 -0.01842
73.5 -0.02039
73.55 -0.01781
73.6 -0.01852
73.65 -0.01509
73.7 -0.00907
73.75 -0.00682
73.8 -0.0045
73.85 -0.00627
73.9 -0.00923
73.95 -0.01158
74 -0.0092
74.05 -0.00654
74.1 -0.00136
74.15 0.0058
74.2 0.00752
74.25 0.00785
74.3 0.00421
74.35 -0.00079
74.4 -0.00183
74.45 -0.00588
74.5 -0.01192
74.55 -0.01266
74.6 -0.01527
74.65 -0.01264
74.7 -0.01356
74.75 -0.01109
74.8 -0.01085
74.85 -0.00632
74.9 -0.00076
74.95 0.00424
75 0.00897
75.05 0.00945
75.1 0.00486
75.15 -0.00183
75.2 -0.00124
75.25 -0.00422
75.3 -0.00518
75.35 -0.00277
75.4 -0.00218
75.45 0.00096
75.5 0.00279
75.55 0.00062
75.6 0.00233
75.65 0.00515
75.7 0.0029
75.75 -0.00186
75.8 -0.00366
75.85 -0.00201
75.9 0.00284
75.95 0.00378
76 0.005
76.05 0.00166
76.1 0.00336
76.15 0.00452
76.2 0.00418
76.25 0.00734
76.3 0.01188
76.35 0.01539
76.4 0.02052
76.45 0.02041
76.5 0.0164
76.55 0.00817
76.6 0.00599
76.65 0.00831
76.7 0.01169
76.75 0.015
76.8 0.0126
76.85 0.00956
76.9 0.01115
76.95 0.0111
77 0.00615
77.05 0.00177
77.1 0.00032
77.15 0.00126
77.2 0.00542
77.25 0.00438
77.3 0.00084
77.35 0.00082
77.4 0.00291
77.45 0.00352
77.5 0.00712
77.55 0.00659
77.6 0.00443
77.65 0.00593
77.7 0.0059
77.75 0.00094
77.8 -0.00526
77.85 -0.00996
77.9 -0.0132
77.95 -0.01073
78 -0.01091
78.05 -0.01237
78.1 -0.01178
78.15 -0.0112
78.2 -0.01364
78.25 -0.01538
78.3 -0.01185
78.35 -0.00836
78.4 -0.00836
78.45 -0.00749
78.5 -0.0081
78.55 -0.00383
78.6 0.00291
78.65 0.00945
78.7 0.00974
78.75 0.01389
78.8 0.01422
78.85 0.00941
78.9 0.00657
78.95 0.00597
79 0.0034
79.05 -0.00013
79.1 -0.00017
79.15 0.00302
79.2 0.006
79.25 0.00439
79.3 0.00567
79.35 0.00448
79.4 0.00021
79.45 -0.00553
79.5 -0.00993
79.55 -0.01194
79.6 -0.01322
79.65 -0.01453
79.7 -0.01612
79.75 -0.01585
79.8 -0.01655
79.85 -0.01721
79.9 -0.01454
79.95 -0.01073
80 -0.00346
80.05 0.00032
80.1 0.00092
80.15 0.00512
80.2 0.00448
80.25 0.00085
80.3 -0.00434
80.35 -0.01031
80.4 -0.00915
80.45 -0.01123
80.5 -0.01273
80.55 -0.00829
80.6 -0.00537
80.65 -0.00529
80.7 -0.0008
80.75 -0.00008
80.8 0.00509
80.85 0.00508
80.9 0.00839
80.95 0.00656
81 0.00809
81.05 0.01253
81.1 0.01622
81.15 0.01498
81.2 0.00936
81.25 0.00124
81.3 0.00065
81.35 -0.00381
81.4 -0.00534
81.45 -0.0084
81.5 -0.00759
81.55 -0.00219
81.6 0.00058
81.65 0.00077
81.7 -0.00015
81.75 0.00349
81.8 0.0021
81.85 0.00272
81.9 -0.00053
81.95 -0.00644
82 -0.00583
82.05 -0.00889
82.1 -0.00559
82.15 -0.00199
82.2 0.00102
82.25 0.00652
82.3 0.00946
82.35 0.01355
82.4 0.01719
82.45 0.02165
82.5 0.02229
82.55 0.02167
82.6 0.02196
82.65 0.02017
82.7 0.01839
82.75 0.01754
82.8 0.01337
82.85 0.0088
82.9 0.00239
82.95 0.00054
83 -0.00371
83.05 -0.00854
83.1 -0.00757
83.15 -0.00474
83.2 -0.006
83.25 -0.01009
83.3 -0.01583
83.35 -0.01682
83.4 -0.0153
83.45 -0.00954
83.5 -0.00844
83.55 -0.00844
83.6 -0.00461
83.65 -0.00601
83.7 -0.00262
83.75 -0.00399
83.8 -0.00171
83.85 0.00089
83.9 -0.0018
83.95 -0.00152
84 0.0004
84.05 -0.0027
84.1 0.00031
84.15 0.00177
84.2 -0.00068
84.25 -0.00098
84.3 0.00293
84.35 0.00786
84.4 0.00815
84.45 0.00439
84.5 0.00504
84.55 0.00065
84.6 0.00026
84.65 0.00433
84.7 0.01051
84.75 0.01115
84.8 0.01101
84.85 0.00743
84.9 0.00613
84.95 0.00482
85 0.00103
85.05 -0.00213
85.1 -0.00854
85.15 -0.01246
85.2 -0.0163
85.25 -0.01701
85.3 -0.01469
85.35 -0.00897
85.4 -0.00642
85.45 -0.00347
85.5 0.00101
85.55 0.00654
85.6 0.00709
85.65 0.00349
85.7 -0.00284
85.75 -0.00717
85.8 -0.00946
85.85 -0.00589
85.9 -0.0042
85.95 -0.00209
86 -0.00301
86.05 -0.00038
86.1 0.00421
86.15 0.00352
86.2 0.00528
86.25 0.01066
86.3 0.01154
86.35 0.00694
86.4 0.00469
86.45 0.00489
86.5 0.00131
86.55 0.00228
86.6 0.00642
86.65 0.00836
86.7 0.00569
86.75 -0.0008
86.8 -0.0037
86.85 -0.00116
86.9 0.0043
86.95 0.01105
87 0.01797
87.05 0.01768
87.1 0.01872
87.15 0.02225
87.2 0.02532
87.25 0.02668
87.3 0.02879
87.35 0.03039
87.4 0.02939
87.45 0.02246
87.5 0.01502
87.55 0.00647
87.6 0.00328
87.65 0.00364
87.7 0.00522
87.75 0.00818
87.8 0.01036
87.85 0.00662
87.9 0.00007
87.95 -0.00646
88 -0.01498
88.05 -0.01525
88.1 -0.01625
88.15 -0.01936
88.2 -0.02261
88.25 -0.0226
88.3 -0.01632
88.35 -0.00944
88.4 -0.00222
88.45 0.00004
88.5 -0.00231
88.55 -0.00651
88.6 -0.01308
88.65 -0.01605
88.7 -0.02109
88.75 -0.02203
88.8 -0.02303
88.85 -0.01949
88.9 -0.01116
88.95 -0.00704
89 -0.00044
89.05 0.00159
89.1 -0.00137
89.15 -0.00323
89.2 -0.00791
89.25 -0.00744
89.3 -0.00922
89.35 -0.00784
89.4 -0.00662
89.45 -0.00714
89.5 -0.00721
89.55 -0.01095
89.6 -0.01605
89.65 -0.0142
89.7 -0.01389
89.75 -0.01419
89.8 -0.01308
89.85 -0.01063
89.9 -0.00781
89.95 -0.00289
90 -0.00224
90.05 -0.00512
90.1 -0.00955
90.15 -0.00899
90.2 -0.01167
90.25 -0.01179
90.3 -0.00769
90.35 0.00012
90.4 0.00922
90.45 0.01687
90.5 0.01955
90.55 0.01606
90.6 0.01557
90.65 0.01612
90.7 0.01268
90.75 0.01288
90.8 0.01283
90.85 0.00863
90.9 0.0023
90.95 -0.00214
91 -0.00325
91.05 -0.0028
91.1 -0.00012
91.15 0.00233
91.2 0.0045
91.25 0.00499
91.3 0.0008
91.35 0.00049
91.4 0.00327
91.45 0.00186
91.5 -0.0027
91.55 -0.00551
91.6 -0.0104
91.65 -0.00858
91.7 -0.00832
91.75 -0.01061
91.8 -0.01053
91.85 -0.00579
91.9 -0.00509
91.95 -0.00214
92 0.00021
92.05 0.002
92.1 0.00685
92.15 0.00865
92.2 0.01106
92.25 0.01533
92.3 0.01262
92.35 0.01125
92.4 0.01233
92.45 0.01637
92.5 0.01648
92.55 0.01916
92.6 0.01552
92.65 0.01181
92.7 0.00968
92.75 0.01179
92.8 0.00844
92.85 0.00193
92.9 -0.00187
92.95 -0.00812
93 -0.01212
93.05 -0.01453
93.1 -0.01374
93.15 -0.0126
93.2 -0.01306
93.25 -0.01283
93.3 -0.01094
93.35 -0.00918
93.4 -0.01171
93.45 -0.01229
93.5 -0.01403
93.55 -0.01281
93.6 -0.00975
93.65 -0.00691
93.7 -0.00388
93.75 0.00222
93.8 0.00744
93.85 0.01032
93.9 0.01284
93.95 0.01696
94 0.02139
94.05 0.0182
94.1 0.0133
94.15 0.00836
94.2 0.00407
94.25 -0.00196
94.3 -0.00937
94.35 -0.00949
94.4 -0.01053
94.45 -0.00589
94.5 -0.00046
94.55 0.00285
94.6 0.00348
94.65 0.00218
94.7 0.00295
94.75 0.00054
94.8 -0.00287
94.85 -0.00579
94.9 -0.01162
94.95 -0.01676
95 -0.01504
95.05 -0.01648
95.1 -0.01359
95.15 -0.01274
95.2 -0.01384
95.25 -0.01438
95.3 -0.01332
95.35 -0.01011
95.4 -0.00391
95.45 -0.0033
95.5 -0.00612
95.55 -0.00627
95.6 -0.00759
95.65 -0.00941
95.7 -0.00997
95.75 -0.009
95.8 -0.00578
95.85 -0.00125
95.9 0.00199
95.95 0.00682
96 0.01378
96.05 0.0198
96.1 0.02566
96.15 0.0244
96.2 0.02
96.25 0.01369
96.3 0.00701
96.35 -0.00073
96.4 -0.00746
96.45 -0.0108
96.5 -0.01071
96.55 -0.00662
96.6 -0.00242
96.65 -0.003
96.7 -0.00669
96.75 -0.00648
96.8 -0.00607
96.85 -0.00206
96.9 -0.00378
96.95 -0.00741
97 -0.00434
97.05 -0.00137
97.1 0.00143
97.15 0.00196
97.2 0.00118
97.25 -0.00056
97.3 -0.00366
97.35 -0.00985
97.4 -0.00935
97.45 -0.00878
97.5 -0.00993
97.55 -0.01383
97.6 -0.01529
97.65 -0.01593
97.7 -0.01437
97.75 -0.01493
97.8 -0.01146
97.85 -0.01229
97.9 -0.00931
97.95 -0.00412
98 -0.00038
98.05 0.00493
98.1 0.00571
98.15 0.00994
98.2 0.00906
98.25 0.0117
98.3 0.01157
98.35 0.00974
98.4 0.01211
98.45 0.01343
98.5 0.01574
98.55 0.0203
98.6 0.01843
98.65 0.01329
98.7 0.01185
98.75 0.00562
98.8 0.00037
98.85 -0.00409
98.9 -0.00957
98.95 -0.00832
99 -0.00844
99.05 -0.00372
99.1 -0.0008
99.15 0.00343
99.2 0.00666
99.25 0.00709
99.3 0.00429
99.35 -0.0002
99.4 -0.00509
99.45 -0.00775
99.5 -0.00973
99.55 -0.00813
99.6 -0.00769
99.65 -0.00385
99.7 0.00131
99.75 0.00324
99.8 0.00679
99.85 0.0127
99.9 0.01816
99.95 0.01954
