0 0
0.05 0.00806
0.1 0.01605
0.15 0.02114
0.2 0.02426
0.25 0.02683
0.3 0.02714
0.35 0.02737
0.4 0.02785
0.45 0.02796
0.5 0.02873
0.55 0.02757
0.6 0.02894
0.65 0.03298
0.7 0.0353
0.75 0.03405
0.8 0.03701
0.85 0.04195
0.9 0.04107
0.95 0.03841
1 0.04018
1.05 0.04275
1.1 0.04662
1.15 0.05135
1.2 0.05322
1.25 0.04926
1.3 0.04623
1.35 0.04691
1.4 0.04715
1.45 0.04682
1.5 0.04542
1.55 0.04122
1.6 0.03966
1.65 0.03398
1.7 0.02772
1.75 0.02254
1.8 0.02033
1.85 0.01706
1.9 0.01912
1.95 0.02297
2 0.02205
2.05 0.02129
2.1 0.02116
2.15 0.0204
2.2 0.01703
2.25 0.01956
2.3 0.0198
2.35 0.01798
2.4 0.01761
2.45 0.01576
2.5 0.01582
2.55 0.0181
2.6 0.01798
2.65 0.01901
2.7 0.0204
2.75 0.02277
2.8 0.02089
2.85 0.01821
2.9 0.01596
2.95 0.01733
3 0.01494
3.05 0.01496
3.1 0.01165
3.15 0.01203
3.2 0.01651
3.25 0.01812
3.3 0.0219
3.35 0.02669
3.4 0.03311
3.45 0.03588
3.5 0.03557
3.55 0.03721
3.6 0.04046
3.65 0.03956
3.7 0.03923
3.75 0.03554
3.8 0.02786
3.85 0.02345
3.9 0.02402
3.95 0.02332
4 0.02179
4.05 0.01964
4.1 0.02009
4.15 0.02084
4.2 0.01843
4.25 0.01747
4.3 0.01843
4.35 0.0156
4.4 0.01574
4.45 0.01358
4.5 0.01313
4.55 0.01443
4.6 0.0118
4.65 0.00845
4.7 0.00855
4.75 0.00648
4.8 0.00433
4.85 0.00397
4.9 0.00575
4.95 0.0089
5 0.00672
5.05 0.00079
5.1 -0.00232
5.15 -0.00718
5.2 -0.01176
5.25 -0.01851
5.3 -0.02858
5.35 -0.0394
5.4 -0.04734
5.45 -0.05168
5.5 -0.05411
5.55 -0.05589
5.6 -0.05925
5.65 -0.05957
5.7 -0.05665
5.75 -0.05348
5.8 -0.05348
5.85 -0.04973
5.9 -0.04644
5.95 -0.04298
6 -0.0353
6.05 -0.02866
6.1 -0.02031
6.15 -0.01327
6.2 -0.00621
6.25 0.00633
6.3 0.02211
6.35 0.03564
6.4 0.04434
6.45 0.04995
6.5 0.05233
6.55 0.05864
6.6 0.06643
6.65 0.06856
6.7 0.07401
6.75 0.07503
6.8 0.0716
6.85 0.06618
6.9 0.05926
6.95 0.05264
7 0.04653
7.05 0.0448
7.1 0.04615
7.15 0.04175
7.2 0.03502
7.25 0.02838
7.3 0.02344
7.35 0.02002
7.4 0.01564
7.45 0.01279
7.5 0.01201
7.55 0.01127
7.6 0.01176
7.65 0.01465
7.7 0.01593
7.75 0.015
7.8 0.01154
7.85 0.00462
7.9 0.0017
7.95 0.00139
8 0.00123
8.05 0.00392
8.1 0.00919
8.15 0.0145
8.2 0.02056
8.25 0.02106
8.3 0.01672
8.35 0.01236
8.4 0.00712
8.45 0.00574
8.5 0.00245
8.55 0.00266
8.6 -0.00022
8.65 -0.00398
8.7 -0.00786
8.75 -0.00751
8.8 -0.00209
8.85 -0.00161
8.9 -0.00125
8.95 0.00088
9 0.00373
9.05 0.00477
9.1 0.00575
9.15 0.00391
9.2 0.00406
9.25 0.00827
9.3 0.01389
9.35 0.01977
9.4 0.01982
9.45 0.02085
9.5 0.01807
9.55 0.01964
9.6 0.01689
9.65 0.01553
9.7 0.01407
9.75 0.01317
9.8 0.00943
9.85 0.00711
9.9 0.00178
9.95 0.00123
10 -0.0002
10.05 0.00307
10.1 0.00292
10.15 0.00496
10.2 0.00992
10.25 0.01651
10.3 0.02164
10.35 0.01974
10.4 0.01422
10.45 0.00892
10.5 0.00176
10.55 0.00056
10.6 -0.0025
10.65 -0.00141
10.7 0.00082
10.75 0.0005
10.8 0.00208
10.85 -0.00063
10.9 0.0017
10.95 0.00668
11 0.00808
11.05 0.00512
11.1 0.00038
11.15 -0.00185
11.2 -0.00029
11.25 0.00435
11.3 0.00513
11.35 0.00789
11.4 0.00791
11.45 0.00453
11.5 -0.00137
11.55 -0.00909
11.6 -0.01729
11.65 -0.0223
11.7 -0.02101
11.75 -0.01736
11.8 -0.01735
11.85 -0.01814
11.9 -0.01388
11.95 -0.00625
12 -0.00415
12.05 0.00006
12.1 0.00556
12.15 0.00961
12.2 0.01267
12.25 0.01531
12.3 0.01816
12.35 0.01502
12.4 0.01486
12.45 0.01066
12.5 0.00879
12.55 0.00417
12.6 0.00438
12.65 0.00366
12.7 -0.00081
12.75 -0.00141
12.8 -0.00464
12.85 -0.00515
12.9 -0.00618
12.95 -0.00317
13 -0.00133
13.05 -0.00243
13.1 -0.00415
13.15 -0.00605
13.2 -0.00507
13.25 -0.00036
13.3 0.00209
13.35 0.00714
13.4 0.01208
13.45 0.01202
13.5 0.00791
13.55 0.00794
13.6 0.00456
13.65 0.00336
13.7 0.00266
13.75 0.00398
13.8 0.00315
13.85 0.00558
13.9 0.00654
13.95 0.00917
14 0.01251
14.05 0.01454
14.1 0.0135
14.15 0.01002
14.2 0.00693
14.25 0.00376
14.3 -0.00025
14.35 -0.0071
14.4 -0.0146
14.45 -0.02053
14.5 -0.0249
14.55 -0.02938
14.6 -0.02867
14.65 -0.02612
14.7 -0.02107
14.75 -0.01339
14.8 -0.00769
14.85 -0.00527
14.9 -0.00416
14.95 -0.00052
15 0.00454
15.05 0.00939
15.1 0.01252
15.15 0.01704
15.2 0.01534
15.25 0.01253
15.3 0.0102
15.35 0.00686
15.4 0.00584
15.45 0.00438
15.5 0.00055
15.55 -0.00034
15.6 0.00258
15.65 0.0014
15.7 0.00431
15.75 0.007
15.8 0.00946
15.85 0.0129
15.9 0.01717
15.95 0.01682
16 0.01253
16.05 0.00717
16.1 -0.00089
16.15 -0.00648
16.2 -0.01252
16.25 -0.01185
16.3 -0.01427
16.35 -0.01696
16.4 -0.01894
16.45 -0.01828
16.5 -0.01567
16.55 -0.01283
16.6 -0.00688
16.65 0.00129
16.7 0.00897
16.75 0.01368
16.8 0.01698
16.85 0.01885
16.9 0.01805
16.95 0.01204
17 0.00722
17.05 0.00346
17.1 -0.00195
17.15 -0.00539
17.2 -0.00891
17.25 -0.0106
17.3 -0.01278
17.35 -0.01547
17.4 -0.01503
17.45 -0.01571
17.5 -0.01551
17.55 -0.01745
17.6 -0.01351
17.65 -0.01018
17.7 -0.011
17.75 -0.01314
17.8 -0.0162
17.85 -0.01714
17.9 -0.01719
17.95 -0.01478
18 -0.00903
18.05 -0.00553
18.1 -0.00448
18.15 -0.00471
18.2 -0.00774
18.25 -0.01169
18.3 -0.01205
18.35 -0.01382
18.4 -0.01277
18.45 -0.01247
18.5 -0.01361
18.55 -0.01413
18.6 -0.01382
18.65 -0.01231
18.7 -0.00711
18.75 -0.00091
18.8 0.00587
18.85 0.01146
18.9 0.0121
18.95 0.00919
19 0.00278
19.05 -0.00432
19.1 -0.00661
19.15 -0.00507
19.2 -0.00631
19.25 -0.01034
19.3 -0.01227
19.35 -0.01214
19.4 -0.00696
19.45 -0.00297
19.5 -0.00205
19.55 -0.00432
19.6 -0.00761
19.65 -0.00959
19.7 -0.01312
19.75 -0.01135
19.8 -0.00976
19.85 -0.01056
19.9 -0.01138
19.95 -0.01193
20 -0.00973
20.05 -0.00802
20.1 -0.00692
20.15 -0.00823
20.2 -0.00621
20.25 -0.00209
20.3 -0.00074
20.35 -0.00267
20.4 -0.00154
20.45 -0.0001
20.5 0.0028
20.55 0.0064
20.6 0.0052
20.65 0.00233
20.7 0.00187
20.75 -0.00124
20.8 -0.00147
20.85 -0.00233
20.9 -0.00423
20.95 -0.00513
21 -0.00488
21.05 -0.00507
21.1 -0.00814
21.15 -0.00737
21.2 -0.00275
21.25 0
21.3 0.00032
21.35 0.00483
21.4 0.00742
21.45 0.00814
21.5 0.00545
21.55 0.00617
21.6 0.00323
21.65 0.00436
21.7 0.00901
21.75 0.01026
21.8 0.01095
21.85 0.00801
21.9 0.00835
21.95 0.01056
22 0.00948
22.05 0.00513
22.1 0.0005
22.15 0.00029
22.2 -0.00288
22.25 -0.00741
22.3 -0.01091
22.35 -0.01128
22.4 -0.00988
22.45 -0.00823
22.5 -0.0053
22.55 -0.00211
22.6 0.00333
22.65 0.00755
22.7 0.0093
22.75 0.01113
22.8 0.01072
22.85 0.01045
22.9 0.00853
22.95 0.01076
23 0.0116
23.05 0.00958
23.1 0.00417
23.15 -0.00011
23.2 -0.00353
23.25 -0.00432
23.3 -0.00695
23.35 -0.00653
23.4 -0.00897
23.45 -0.01134
23.5 -0.01323
23.55 -0.0121
23.6 -0.00803
23.65 -0.00165
23.7 0.00355
23.75 0.00884
23.8 0.01444
23.85 0.0204
23.9 0.02052
23.95 0.02244
24 0.02074
24.05 0.0183
24.1 0.0127
24.15 0.00477
24.2 -0.0014
24.25 -0.00485
24.3 -0.00287
24.35 0.00099
24.4 0.00429
24.45 0.00269
24.5 0.00448
24.55 0.00924
24.6 0.01271
24.65 0.01193
24.7 0.0112
24.75 0.00853
24.8 0.01014
24.85 0.01352
24.9 0.01311
24.95 0.00861
25 0.00149
25.05 -0.00333
25.1 -0.0084
25.15 -0.00772
25.2 -0.00522
25.25 -0.00247
25.3 0.00007
25.35 0.00089
25.4 0.00203
25.45 0.00229
25.5 0.00618
25.55 0.00512
25.6 0.00428
25.65 -0.00052
25.7 -0.00004
25.75 -0.00339
25.8 -0.00288
25.85 -0.00457
25.9 -0.002
25.95 -0.00218
26 -0.00013
26.05 0.00339
26.1 0.00416
26.15 0.00241
26.2 -0.00031
26.25 0.00055
26.3 -0.00254
26.35 -0.00287
26.4 -0.00206
26.45 0.00197
26.5 0.00447
26.55 0.00169
26.6 0.00181
26.65 0.00191
26.7 -0.00059
26.75 0.00089
26.8 -0.00057
26.85 -0.00547
26.9 -0.01023
26.95 -0.01604
27 -0.02079
27.05 -0.02122
27.1 -0.02348
27.15 -0.02208
27.2 -0.02054
27.25 -0.01505
27.3 -0.01293
27.35 -0.014
27.4 -0.01298
27.45 -0.01083
27.5 -0.00906
27.55 -0.00729
27.6 -0.00707
27.65 -0.00875
27.7 -0.00834
27.75 -0.0083
27.8 -0.01271
27.85 -0.01885
27.9 -0.0283
27.95 -0.03895
28 -0.04801
28.05 -0.05514
28.1 -0.06682
28.15 -0.08144
28.2 -0.09254
28.25 -0.10717
28.3 -0.12064
28.35 -0.13964
28.4 -0.15834
28.45 -0.18417
28.5 -0.21416
28.55 -0.25042
28.6 -0.29138
28.65 -0.33524
28.7 -0.38286
28.75 -0.43763
28.8 -0.49649
28.85 -0.56001
28.9 -0.62987
28.95 -0.70352
29 -0.78332
29.05 -0.86919
29.1 -0.96453
29.15 -1.06307
29.2 -1.16186
29.25 -1.26479
29.3 -1.36656
29.35 -1.46748
29.4 -1.56762
29.45 -1.67126
29.5 -1.77518
29.55 -1.87528
29.6 -1.97021
29.65 -2.05195
29.7 -2.12714
29.75 -2.19573
29.8 -2.2487
29.85 -2.28812
29.9 -2.31481
29.95 -2.33302
30 -2.33537
30.05 -2.32904
30.1 -2.30709
30.15 -2.27062
30.2 -2.21806
30.25 -2.15221
30.3 -2.072
30.35 -1.98375
30.4 -1.88133
30.45 -1.77057
30.5 -1.65323
30.55 -1.52364
30.6 -1.38496
30.65 -1.24026
30.7 -1.09167
30.75 -0.93981
30.8 -0.78126
30.85 -0.62205
30.9 -0.4643
30.95 -0.30319
31 -0.14552
31.05 0.00825
31.1 0.16162
31.15 0.30958
31.2 0.45261
31.25 0.59401
31.3 0.73057
31.35 0.85462
31.4 0.97341
31.45 1.08286
31.5 1.18488
31.55 1.2753
31.6 1.35918
31.65 1.43701
31.7 1.5057
31.75 1.56635
31.8 1.61911
31.85 1.66947
31.9 1.71812
31.95 1.76338
32 1.8001
32.05 1.83294
32.1 1.85721
32.15 1.87617
32.2 1.89117
32.25 1.90468
32.3 1.9124
32.35 1.91598
32.4 1.91399
32.45 1.91512
32.5 1.91025
32.55 1.90465
32.6 1.8992
32.65 1.895
32.7 1.88739
32.75 1.87593
32.8 1.86126
32.85 1.8464
32.9 1.83351
32.95 1.82052
33 1.80349
33.05 1.78211
33.1 1.76087
33.15 1.7327
33.2 1.70216
33.25 1.67393
33.3 1.64801
33.35 1.61733
33.4 1.58542
33.45 1.55242
33.5 1.52052
33.55 1.48555
33.6 1.4447
33.65 1.40598
33.7 1.36195
33.75 1.31996
33.8 1.27531
33.85 1.22675
33.9 1.17765
33.95 1.13399
34 1.09205
34.05 1.04674
34.1 1.0032
34.15 0.95685
34.2 0.90965
34.25 0.86156
34.3 0.81499
34.35 0.76893
34.4 0.72522
34.45 0.68321
34.5 0.64521
34.55 0.60922
34.6 0.57143
34.65 0.53465
34.7 0.49688
34.75 0.46031
34.8 0.42578
34.85 0.39249
34.9 0.35454
34.95 0.31435
35 0.27873
35.05 0.24071
35.1 0.20182
35.15 0.1673
35.2 0.13729
35.25 0.11331
35.3 0.09202
35.35 0.07067
35.4 0.05051
35.45 0.03245
35.5 0.01173
35.55 -0.00756
35.6 -0.03124
35.65 -0.05264
35.7 -0.07269
35.75 -0.09599
35.8 -0.12035
35.85 -0.13984
35.9 -0.15542
35.95 -0.17073
36 -0.18139
36.05 -0.18965
36.1 -0.19744
36.15 -0.21039
36.2 -0.22547
36.25 -0.23713
36.3 -0.24486
36.35 -0.25298
36.4 -0.25805
36.45 -0.26245
36.5 -0.26617
36.55 -0.2704
36.6 -0.27728
36.65 -0.28632
36.7 -0.29783
36.75 -0.30837
36.8 -0.31322
36.85 -0.31809
36.9 -0.32558
36.95 -0.32666
37 -0.32738
37.05 -0.32948
37.1 -0.3292
37.15 -0.3275
37.2 -0.3263
37.25 -0.32268
37.3 -0.32054
37.35 -0.31666
37.4 -0.31505
37.45 -0.31747
37.5 -0.32007
37.55 -0.31752
37.6 -0.31662
37.65 -0.31482
37.7 -0.31295
37.75 -0.3122
37.8 -0.31441
37.85 -0.31666
37.9 -0.31589
37.95 -0.31145
38 -0.30362
38.05 -0.30063
38.1 -0.2986
38.15 -0.29198
38.2 -0.29
38.25 -0.28848
38.3 -0.28957
38.35 -0.29039
38.4 -0.29042
38.45 -0.28665
38.5 -0.28114
38.55 -0.27826
38.6 -0.27098
38.65 -0.26414
38.7 -0.26036
38.75 -0.25464
38.8 -0.24928
38.85 -0.24424
38.9 -0.23827
38.95 -0.23244
39 -0.22906
39.05 -0.22868
39.1 -0.23059
39.15 -0.22857
39.2 -0.22643
39.25 -0.22166
39.3 -0.21396
39.35 -0.20961
39.4 -0.20437
39.45 -0.1967
39.5 -0.18888
39.55 -0.18269
39.6 -0.17472
39.65 -0.16774
39.7 -0.16035
39.75 -0.15463
39.8 -0.15281
39.85 -0.15505
39.9 -0.1552
39.95 -0.15519
40 -0.15287
40.05 -0.15489
40.1 -0.15962
40.15 -0.16594
40.2 -0.17027
40.25 -0.16969
40.3 -0.16957
40.35 -0.17133
40.4 -0.17393
40.45 -0.17068
40.5 -0.16688
40.55 -0.16526
40.6 -0.16452
40.65 -0.16466
40.7 -0.16032
40.75 -0.15588
40.8 -0.14936
40.85 -0.13895
40.9 -0.1279
40.95 -0.11948
41 -0.1117
41.05 -0.10495
41.1 -0.10446
41.15 -0.10247
41.2 -0.09923
41.25 -0.0939
41.3 -0.09153
41.35 -0.09089
41.4 -0.09174
41.45 -0.09347
41.5 -0.09855
41.55 -0.10547
41.6 -0.10539
41.65 -0.106
41.7 -0.10151
41.75 -0.09691
41.8 -0.09298
41.85 -0.08998
41.9 -0.08656
41.95 -0.08652
42 -0.08586
42.05 -0.08822
42.1 -0.09123
42.15 -0.09564
42.2 -0.09828
42.25 -0.09541
42.3 -0.09127
42.35 -0.08603
42.4 -0.08347
42.45 -0.0846
42.5 -0.08378
42.55 -0.08291
42.6 -0.08084
42.65 -0.08236
42.7 -0.08458
42.75 -0.08152
42.8 -0.08196
42.85 -0.08094
42.9 -0.08098
42.95 -0.08244
43 -0.0814
43.05 -0.08064
43.1 -0.07813
43.15 -0.07377
43.2 -0.07275
43.25 -0.06707
43.3 -0.0642
43.35 -0.06238
43.4 -0.06379
43.45 -0.06442
43.5 -0.06576
43.55 -0.06618
43.6 -0.06407
43.65 -0.06534
43.7 -0.06148
43.75 -0.05952
43.8 -0.05451
43.85 -0.05057
43.9 -0.04521
43.95 -0.04242
44 -0.03728
44.05 -0.03486
44.1 -0.0372
44.15 -0.03608
44.2 -0.03199
44.25 -0.0312
44.3 -0.02774
44.35 -0.02582
44.4 -0.0244
44.45 -0.02165
44.5 -0.02279
44.55 -0.02504
44.6 -0.02823
44.65 -0.03467
44.7 -0.04186
44.75 -0.04253
44.8 -0.04159
44.85 -0.04286
44.9 -0.04175
44.95 -0.0373
45 -0.03471
45.05 -0.03288
45.1 -0.03068
45.15 -0.02673
45.2 -0.02479
45.25 -0.02524
45.3 -0.02273
45.35 -0.0239
45.4 -0.02839
45.45 -0.03004
45.5 -0.02868
45.55 -0.02436
45.6 -0.02159
45.65 -0.02221
45.7 -0.01996
45.75 -0.01651
45.8 -0.01486
45.85 -0.0167
45.9 -0.02193
45.95 -0.02166
46 -0.02272
46.05 -0.02703
46.1 -0.02992
46.15 -0.0337
46.2 -0.03542
46.25 -0.03697
46.3 -0.03929
46.35 -0.04277
46.4 -0.04458
46.45 -0.04048
46.5 -0.03791
46.55 -0.03701
46.6 -0.03337
46.65 -0.02664
46.7 -0.02143
46.75 -0.0201
46.8 -0.01921
46.85 -0.01532
46.9 -0.01444
46.95 -0.0107
47 -0.00977
47.05 -0.00775
47.1 -0.00827
47.15 -0.01299
47.2 -0.01885
47.25 -0.025
47.3 -0.02849
47.35 -0.03088
47.4 -0.03037
47.45 -0.02487
47.5 -0.01679
47.55 -0.01437
47.6 -0.01293
47.65 -0.00851
47.7 -0.00291
47.75 0.00191
47.8 -0.00013
47.85 -0.00162
47.9 -0.00474
47.95 -0.00902
48 -0.00924
48.05 -0.01355
48.1 -0.01836
48.15 -0.0172
48.2 -0.01843
48.25 -0.01483
48.3 -0.01497
48.35 -0.01268
48.4 -0.01288
48.45 -0.01409
48.5 -0.01757
48.55 -0.02089
48.6 -0.02234
48.65 -0.02576
48.7 -0.0293
48.75 -0.02586
48.8 -0.02271
48.85 -0.02086
48.9 -0.02106
48.95 -0.01648
49 -0.01364
49.05 -0.01208
49.1 -0.01088
49.15 -0.00633
49.2 -0.00246
49.25 -0.00306
49.3 -0.00363
49.35 -0.00361
49.4 -0.00093
49.45 -0.00294
49.5 -0.00098
49.55 -0.00071
49.6 -0.00043
49.65 -0.00219
49.7 -0.0016
49.75 -0.00537
49.8 -0.00866
49.85 -0.00655
49.9 -0.00295
49.95 -0.0006
50 -0.00017
50.05 0.00323
50.1 0.00847
50.15 0.00734
50.2 0.00893
50.25 0.00618
50.3 0.00405
50.35 0.00355
50.4 0.00196
50.45 0.00338
50.5 0.00325
50.55 0.00114
50.6 0.00218
50.65 0.0013
50.7 -0.00037
50.75 -0.0049
50.8 -0.0103
50.85 -0.01355
50.9 -0.01682
50.95 -0.01769
51 -0.01951
51.05 -0.01762
51.1 -0.01516
51.15 -0.0096
51.2 -0.00698
51.25 -0.00585
51.3 -0.00788
51.35 -0.01163
51.4 -0.01701
51.45 -0.02325
51.5 -0.02496
51.55 -0.02537
51.6 -0.02603
51.65 -0.02653
51.7 -0.02643
51.75 -0.02769
51.8 -0.02494
51.85 -0.01908
51.9 -0.01736
51.95 -0.01599
52 -0.0101
52.05 -0.00586
52.1 -0.00671
52.15 -0.00765
52.2 -0.00932
52.25 -0.01145
52.3 -0.01552
52.35 -0.01443
52.4 -0.01071
52.45 -0.01124
52.5 -0.00736
52.55 -0.00201
52.6 0.00465
52.65 0.00886
52.7 0.0131
52.75 0.01692
52.8 0.01558
52.85 0.01686
52.9 0.01784
52.95 0.01548
53 0.01435
53.05 0.00851
53.1 0.0072
53.15 0.00662
53.2 0.00813
53.25 0.0055
53.3 0.00388
53.35 0.00049
53.4 -0.00042
53.45 -0.00231
53.5 -0.00333
53.55 -0.00718
53.6 -0.00656
53.65 -0.00933
53.7 -0.01091
53.75 -0.01397
53.8 -0.01596
53.85 -0.0159
53.9 -0.01391
53.95 -0.0098
54 -0.00609
54.05 -0.00708
54.1 -0.00505
54.15 -0.00238
54.2 -0.00052
54.25 -0.00182
54.3 -0.00255
54.35 -0.00471
54.4 -0.00615
54.45 -0.00257
54.5 0.00306
54.55 0.00714
54.6 0.0079
54.65 0.00596
54.7 0.00453
54.75 0.00347
54.8 0.0027
54.85 -0.00051
54.9 0.00056
54.95 0.00187
55 0.00628
55.05 0.00988
55.1 0.01499
55.15 0.01316
55.2 0.01121
55.25 0.00594
55.3 -0.00027
55.35 -0.00467
55.4 -0.00673
55.45 -0.00508
55.5 -0.00344
55.55 -0.00311
55.6 0.00002
55.65 0.00355
55.7 0.00191
55.75 0.0035
55.8 0.00239
55.85 0.00389
55.9 0.00797
55.95 0.0082
56 0.01006
56.05 0.01418
56.1 0.01873
56.15 0.01746
56.2 0.01355
56.25 0.01369
56.3 0.01193
56.35 0.01046
56.4 0.00798
56.45 0.002
56.5 -0.00085
56.55 -0.00045
56.6 0.00271
56.65 0.00047
56.7 -0.00077
56.75 -0.00051
56.8 -0.00215
56.85 0.00037
56.9 0.00338
56.95 0.00474
57 0.0063
57.05 0.00515
57.1 0.00591
57.15 0.00178
57.2 0.00149
57.25 0.00041
57.3 -0.00222
57.35 -0.00633
57.4 -0.00587
57.45 -0.00883
57.5 -0.01056
57.55 -0.01128
57.6 -0.0139
57.65 -0.01477
57.7 -0.01523
57.75 -0.01193
57.8 -0.00857
57.85 -0.00877
57.9 -0.00776
57.95 -0.00779
58 -0.00894
58.05 -0.00949
58.1 -0.0064
58.15 -0.00371
58.2 -0.00109
58.25 -0.00304
58.3 -0.00184
58.35 -0.00357
58.4 -0.00839
58.45 -0.01312
58.5 -0.01465
58.55 -0.01184
58.6 -0.0081
58.65 -0.0073
58.7 -0.00925
58.75 -0.00637
58.8 -0.00582
58.85 -0.00746
58.9 -0.00493
58.95 -0.00623
59 -0.00795
59.05 -0.00835
59.1 -0.0098
59.15 -0.01292
59.2 -0.01721
59.25 -0.0184
59.3 -0.01867
59.35 -0.02043
59.4 -0.01574
59.45 -0.00968
59.5 -0.00863
59.55 -0.00923
59.6 -0.00872
59.65 -0.00355
59.7 -0.00356
59.75 -0.00118
59.8 0.00288
59.85 0.00582
59.9 0.01028
59.95 0.012
60 0.01446
60.05 0.01798
60.1 0.01674
60.15 0.01412
60.2 0.0116
60.25 0.00773
60.3 0.00139
60.35 0.00124
60.4 -0.00226
60.45 -0.00706
60.5 -0.00549
60.55 -0.00338
60.6 0.00011
60.65 -0.00148
60.7 -0.00219
60.75 -0.00013
60.8 -0.00225
60.85 0.00029
60.9 0.00195
60.95 0.00302
61 0.00125
61.05 0.00339
61.1 0.00439
61.15 0.00749
61.2 0.00873
61.25 0.00977
61.3 0.00667
61.35 0.00145
61.4 -0.00033
61.45 0.00073
61.5 0.00102
61.55 0.00391
61.6 0.0054
61.65 0.00367
61.7 0.00631
61.75 0.00539
61.8 0.00815
61.85 0.00682
61.9 0.00838
61.95 0.00974
62 0.00877
62.05 0.00832
62.1 0.01071
62.15 0.01231
62.2 0.01292
62.25 0.01456
62.3 0.01536
62.35 0.01686
62.4 0.01793
62.45 0.01573
62.5 0.01375
62.55 0.0101
62.6 0.00651
62.65 0.00719
62.7 0.00874
62.75 0.00805
62.8 0.00556
62.85 -0.00006
62.9 -0.00711
62.95 -0.01229
63 -0.01557
63.05 -0.01415
63.1 -0.0109
63.15 -0.00695
63.2 -0.00138
63.25 0.0003
63.3 0.00426
63.35 0.00859
63.4 0.01122
63.45 0.01104
63.5 0.01097
63.55 0.01258
63.6 0.01384
63.65 0.01105
63.7 0.00695
63.75 0.00469
63.8 0.00545
63.85 0.00363
63.9 0.00541
63.95 0.0038
64 0.00015
64.05 0.00046
64.1 -0.00082
64.15 -0.00473
64.2 -0.00481
64.25 -0.00153
64.3 0.00213
64.35 0.00402
64.4 0.00625
64.45 0.00896
64.5 0.00566
64.55 0.00489
64.6 0.00148
64.65 -0.00257
64.7 -0.00761
64.75 -0.01035
64.8 -0.01304
64.85 -0.01498
64.9 -0.01798
64.95 -0.02167
65 -0.01882
65.05 -0.01975
65.1 -0.0223
65.15 -0.02224
65.2 -0.02117
65.25 -0.02015
65.3 -0.0213
65.35 -0.02318
65.4 -0.01866
65.45 -0.01316
65.5 -0.00949
65.55 -0.00968
65.6 -0.01001
65.65 -0.00977
65.7 -0.01081
65.75 -0.01444
65.8 -0.01604
65.85 -0.01393
65.9 -0.01118
65.95 -0.00468
66 0.00127
66.05 0.00616
66.1 0.00764
66.15 0.01185
66.2 0.01426
66.25 0.01461
66.3 0.01631
66.35 0.01424
66.4 0.01389
66.45 0.01632
66.5 0.01955
66.55 0.02386
66.6 0.02407
66.65 0.01989
66.7 0.01191
66.75 0.00924
66.8 0.00682
66.85 0.00576
66.9 0.00759
66.95 0.01003
67 0.00862
67.05 0.0032
67.1 0.00099
67.15 -0.00074
67.2 -0.00454
67.25 -0.00787
67.3 -0.00685
67.35 -0.00467
67.4 -0.00243
67.45 0.00069
67.5 0.00506
67.55 0.00392
67.6 0.00082
67.65 -0.00046
67.7 -0.00118
67.75 -0.00209
67.8 0.00025
67.85 -0.00131
67.9 -0.00609
67.95 -0.00555
68 -0.00147
68.05 0.00352
68.1 0.00812
68.15 0.00815
68.2 0.00944
68.25 0.01028
68.3 0.01169
68.35 0.01399
68.4 0.01426
68.45 0.01023
68.5 0.0088
68.55 0.00683
68.6 0.00515
68.65 0.00608
68.7 0.00746
68.75 0.0079
68.8 0.00759
68.85 0.00957
68.9 0.00747
68.95 0.00329
69 -0.00163
69.05 -0.00758
69.1 -0.01047
69.15 -0.01429
69.2 -0.01933
69.25 -0.0246
69.3 -0.02439
69.35 -0.02342
69.4 -0.0187
69.45 -0.01625
69.5 -0.01689
69.55 -0.01341
69.6 -0.011
69.65 -0.01108
69.7 -0.01272
69.75 -0.01212
69.8 -0.01179
69.85 -0.01298
69.9 -0.01029
69.95 -0.00994
70 -0.00716
70.05 -0.00624
70.1 -0.00642
70.15 -0.00829
70.2 -0.0123
70.25 -0.01513
70.3 -0.01304
70.35 -0.01296
70.4 -0.01102
70.45 -0.0103
70.5 -0.00609
70.55 0.00111
70.6 0.007
70.65 0.00823
70.7 0.01085
70.75 0.00905
70.8 0.01083
70.85 0.01234
70.9 0.01523
70.95 0.01776
71 0.0208
71.05 0.02212
71.1 0.01772
71.15 0.01306
71.2 0.01123
71.25 0.01066
71.3 0.01212
71.35 0.01103
71.4 0.00803
71.45 0.0014
71.5 0.00036
71.55 0.00312
71.6 0.0052
71.65 0.00549
71.7 0.00471
71.75 0.0026
71.8 0.00082
71.85 -0.00235
71.9 -0.00839
71.95 -0.01367
72 -0.01625
72.05 -0.01972
72.1 -0.02165
72.15 -0.02278
72.2 -0.02373
72.25 -0.0261
72.3 -0.02292
72.35 -0.01815
72.4 -0.01582
72.45 -0.01509
72.5 -0.01734
72.55 -0.01558
72.6 -0.01633
72.65 -0.01248
72.7 -0.00837
72.75 -0.00138
72.8 -0.00024
72.85 0.00374
72.9 0.00201
72.95 0.00482
73 0.0056
73.05 0.00833
73.1 0.01044
73.15 0.00762
73.2 0.00632
73.25 0.00393
73.3 -0.00025
73.35 -0.00676
73.4 -0.0107
73.45 -0.01327
73.5 -0.01178
73.55 -0.00641
73.6 -0.00296
73.65 -0.00025
73.7 0.00471
73.75 0.01106
73.8 0.0164
73.85 0.01451
73.9 0.01252
73.95 0.01307
74 0.0163
74.05 0.0155
74.1 0.01593
74.15 0.01268
74.2 0.0058
74.25 0.00016
74.3 -0.00702
74.35 -0.01378
74.4 -0.01871
74.45 -0.02049
74.5 -0.01978
74.55 -0.02165
74.6 -0.02287
74.65 -0.02432
74.7 -0.02567
74.75 -0.02115
74.8 -0.019
74.85 -0.01737
74.9 -0.01872
74.95 -0.01393
75 -0.00567
75.05 -0.00327
75.1 -0.00213
75.15 -0.00225
75.2 -0.00571
75.25 -0.01035
75.3 -0.01136
75.35 -0.00784
75.4 -0.00835
75.45 -0.00691
75.5 -0.00737
75.55 -0.0063
75.6 -0.00329
75.65 -0.0011
75.7 -0.0012
75.75 0.00282
75.8 0.00155
75.85 -0.00123
75.9 -0.00535
75.95 -0.01087
76 -0.01367
76.05 -0.01232
76.1 -0.00622
76.15 -0.00473
76.2 -0.00592
76.25 -0.00472
76.3 0.00064
76.35 0.007
76.4 0.01264
76.45 0.01274
76.5 0.00861
76.55 0.00518
76.6 0.00317
76.65 0.00329
76.7 0.00568
76.75 0.00782
76.8 0.01066
76.85 0.01484
76.9 0.01509
76.95 0.01531
77 0.01178
77.05 0.00566
77.1 -0.00067
77.15 -0.00552
77.2 -0.0042
77.25 -0.00569
77.3 -0.00199
77.35 -0.00122
77.4 0.00056
77.45 0.00056
77.5 0.00171
77.55 -0.00104
77.6 -0.00151
77.65 0.00161
77.7 0.00765
77.75 0.0138
77.8 0.0176
77.85 0.01705
77.9 0.01899
77.95 0.02243
78 0.02174
78.05 0.02147
78.1 0.01612
78.15 0.01251
78.2 0.00554
78.25 0.00175
78.3 -0.00474
78.35 -0.00632
78.4 -0.00566
78.45 -0.00538
78.5 -0.00393
78.55 0.00068
78.6 0.00736
78.65 0.01397
78.7 0.01506
78.75 0.01735
78.8 0.01944
78.85 0.02112
78.9 0.01819
78.95 0.01622
79 0.01313
79.05 0.01221
79.1 0.01366
79.15 0.00924
79.2 0.00515
79.25 0.00017
79.3 -0.0006
79.35 0.00234
79.4 0.00496
79.45 0.00619
79.5 0.00527
79.55 0.00362
79.6 0.00192
79.65 0.00104
79.7 -0.00342
79.75 -0.00374
79.8 -0.00537
79.85 -0.00893
79.9 -0.01034
79.95 -0.01184
80 -0.01161
80.05 -0.01097
80.1 -0.00679
80.15 -0.00543
80.2 -0.0031
80.25 -0.00114
80.3 0.00183
80.35 0.00569
80.4 0.00894
80.45 0.01338
80.5 0.01563
80.55 0.01584
80.6 0.01165
80.65 0.01053
80.7 0.01107
80.75 0.00624
80.8 0.00432
80.85 0.00017
80.9 -0.00494
80.95 -0.00691
81 -0.00435
81.05 0.00123
81.1 0.00797
81.15 0.01112
81.2 0.01396
81.25 0.01631
81.3 0.01689
81.35 0.01545
81.4 0.01371
81.45 0.01489
81.5 0.01398
81.55 0.01517
81.6 0.01183
81.65 0.00827
81.7 0.00087
81.75 -0.00578
81.8 -0.00801
81.85 -0.00653
81.9 -0.00696
81.95 -0.00711
82 -0.00698
82.05 -0.00295
82.1 0.00132
82.15 0.0052
82.2 0.00768
82.25 0.00781
82.3 0.00615
82.35 0.00665
82.4 0.00439
82.45 0.00113
82.5 -0.00072
82.55 -0.00327
82.6 -0.0057
82.65 -0.00443
82.7 -0.00055
82.75 -0.00041
82.8 -0.00212
82.85 -0.00668
82.9 -0.01163
82.95 -0.01816
83 -0.02084
83.05 -0.0219
83.1 -0.02284
83.15 -0.02576
83.2 -0.0229
83.25 -0.01688
83.3 -0.00801
83.35 0.00076
83.4 0.00454
83.45 0.00465
83.5 0.00005
83.55 -0.00172
83.6 -0.00599
83.65 -0.00578
83.7 -0.00557
83.75 -0.00235
83.8 -0.00064
83.85 0.00387
83.9 0.00537
83.95 0.00392
84 0.00032
84.05 -0.00259
84.1 -0.00634
84.15 -0.00627
84.2 -0.00879
84.25 -0.01102
84.3 -0.01068
84.35 -0.01036
84.4 -0.01095
84.45 -0.00979
84.5 -0.01145
84.55 -0.01434
84.6 -0.0172
84.65 -0.01573
84.7 -0.01465
84.75 -0.01445
84.8 -0.00916
84.85 -0.00327
84.9 0.00398
84.95 0.0082
85 0.00931
85.05 0.00934
85.1 0.00502
85.15 -0.00011
85.2 -0.00297
85.25 -0.00096
85.3 -0.00316
85.35 -0.00276
85.4 0.00068
85.45 0.00612
85.5 0.00758
85.55 0.00545
85.6 0.00137
85.65 0.00247
85.7 0.00011
85.75 0.00021
85.8 -0.00167
85.85 -0.00243
85.9 -0.00324
85.95 -0.00315
86 -0.00289
86.05 -0.00647
86.1 -0.00435
86.15 -0.00449
86.2 -0.00308
86.25 -0.00017
86.3 0.00057
86.35 0.00422
86.4 0.00561
86.45 0.00994
86.5 0.00959
86.55 0.0092
86.6 0.00908
86.65 0.00804
86.7 0.00705
86.75 0.00743
86.8 0.00551
86.85 0.00503
86.9 0.00596
86.95 0.00741
87 0.00749
87.05 0.00668
87.1 0.00497
87.15 0.00146
87.2 -0.00307
87.25 -0.00656
87.3 -0.00738
87.35 -0.0044
87.4 -0.00299
87.45 -0.00404
87.5 -0.00417
87.55 -0.00771
87.6 -0.01104
87.65 -0.00941
87.7 -0.00982
87.75 -0.01024
87.8 -0.01229
87.85 -0.01316
87.9 -0.01345
87.95 -0.01536
88 -0.0149
88.05 -0.01244
88.1 -0.01202
88.15 -0.01425
88.2 -0.01667
88.25 -0.01916
88.3 -0.01583
88.35 -0.01307
88.4 -0.01368
88.45 -0.01126
88.5 -0.00919
88.55 -0.00414
88.6 0.00149
88.65 0.00681
88.7 0.01067
88.75 0.01129
88.8 0.01063
88.85 0.00952
88.9 0.0086
88.95 0.00623
89 0.00194
89.05 -0.00201
89.1 -0.00587
89.15 -0.01005
89.2 -0.00778
89.25 -0.0054
89.3 -0.00369
89.35 0.00005
89.4 0.00355
89.45 0.00418
89.5 0.00543
89.55 0.00496
89.6 0.00692
89.65 0.00972
89.7 0.01276
89.75 0.01667
89.8 0.01516
89.85 0.01353
89.9 0.0137
89.95 0.01169
90 0.00777
90.05 0.00801
90.1 0.00338
90.15 0.00329
90.2 0.00094
90.25 -0.00253
90.3 -0.00449
90.35 -0.0087
90.4 -0.01168
90.45 -0.00936
90.5 -0.00522
90.55 -0.00152
90.6 -0.0024
90.65 -0.00418
90.7 -0.00282
90.75 -0.00119
90.8 -0.00279
90.85 -0.00223
90.9 -0.00577
90.95 -0.00612
91 -0.00821
91.05 -0.00845
91.1 -0.01102
91.15 -0.01449
91.2 -0.01461
91.25 -0.00953
91.3 -0.00818
91.35 -0.00665
91.4 -0.00382
91.45 -0.0013
91.5 -0.00088
91.55 -0.0021
91.6 -0.00174
91.65 -0.00142
91.7 -0.00238
91.75 -0.00206
91.8 0.00013
91.85 0.00098
91.9 -0.00193
91.95 -0.00325
92 -0.0061
92.05 -0.00353
92.1 -0.00191
92.15 -0.00043
92.2 -0.00035
92.25 0.00333
92.3 0.00501
92.35 0.0053
92.4 0.00466
92.45 0.00739
92.5 0.01219
92.55 0.01243
92.6 0.01549
92.65 0.01628
92.7 0.01805
92.75 0.01828
92.8 0.01411
92.85 0.0121
92.9 0.01074
92.95 0.01066
93 0.01117
93.05 0.01009
93.1 0.00778
93.15 0.00642
93.2 0.00818
93.25 0.01232
93.3 0.0176
93.35 0.01793
93.4 0.01828
93.45 0.0142
93.5 0.00767
93.55 0.00077
93.6 -0.00337
93.65 -0.00286
93.7 -0.00396
93.75 -0.00794
93.8 -0.00947
93.85 -0.01181
93.9 -0.01431
93.95 -0.01241
94 -0.01081
94.05 -0.00679
94.1 -0.00561
94.15 -0.0009
94.2 0.00188
94.25 0.00505
94.3 0.00293
94.35 -0.0027
94.4 -0.00258
94.45 -0.00612
94.5 -0.00773
94.55 -0.00623
94.6 -0.00771
94.65 -0.00636
94.7 -0.00602
94.75 -0.00892
94.8 -0.01346
94.85 -0.01879
94.9 -0.017
94.95 -0.01758
95 -0.01895
95.05 -0.01587
95.1 -0.01114
95.15 -0.00589
95.2 -0.00293
95.25 -0.00444
95.3 -0.00518
95.35 -0.00257
95.4 0.00276
95.45 0.00992
95.5 0.01736
95.55 0.01948
95.6 0.01532
95.65 0.01346
95.7 0.00946
95.75 0.00838
95.8 0.00755
95.85 0.00872
95.9 0.01239
95.95 0.01739
96 0.01605
96.05 0.01412
96.1 0.00981
96.15 0.0059
96.2 0.00583
96.25 0.00638
96.3 0.00911
96.35 0.00909
96.4 0.01058
96.45 0.00825
96.5 0.00779
96.55 0.00692
96.6 0.00739
96.65 0.00586
96.7 0.00382
96.75 0.00089
96.8 -0.00507
96.85 -0.00778
96.9 -0.00654
96.95 -0.00279
97 -0.00255
97.05 0.00063
97.1 0.00146
97.15 0.00443
97.2 0.00723
97.25 0.01057
97.3 0.00947
97.35 0.00569
97.4 0.00303
97.45 0.00379
97.5 0.00242
97.55 -0.00139
97.6 -0.00487
97.65 -0.00574
97.7 -0.00829
97.75 -0.01345
97.8 -0.01866
97.85 -0.0195
97.9 -0.02244
97.95 -0.0243
98 -0.02259
98.05 -0.01722
98.1 -0.01156
98.15 -0.00944
98.2 -0.00798
98.25 -0.00298
98.3 -0.00348
98.35 -0.00666
98.4 -0.00637
98.45 -0.00683
98.5 -0.00494
98.55 0.00034
98.6 0.00718
98.65 0.01096
98.7 0.01227
98.75 0.01342
98.8 0.01197
98.85 0.01374
98.9 0.01204
98.95 0.00787
99 0.00508
99.05 -0.00065
99.1 -0.00197
99.15 -0.00576
99.2 -0.00461
99.25 -0.0074
99.3 -0.0052
99.35 -0.00337
99.4 -0.00314
99.45 -0.003
99.5 -0.00058
99.55 0.00133
99.6 0.00092
99.65 -0.00115
99.7 -0.00505
99.75 -0.00814
99.8 -0.00651
99.85 -0.00539
99.9 -0.00736
99.95 -0.00636
