0 0
0.05 0.00843
0.1 0.0219
0.15 0.03033
0.2 0.04066
0.25 0.05219
0.3 0.05818
0.35 0.05782
0.4 0.05732
0.45 0.05282
0.5 0.04941
0.55 0.05177
0.6 0.05345
0.65 0.05184
0.7 0.05042
0.75 0.0459
0.8 0.04671
0.85 0.0463
0.9 0.04159
0.95 0.04129
1 0.04254
1.05 0.03965
1.1 0.03827
1.15 0.03793
1.2 0.04204
1.25 0.04614
1.3 0.04444
1.35 0.04235
1.4 0.04003
1.45 0.04046
1.5 0.04448
1.55 0.0498
1.6 0.04906
1.65 0.04714
1.7 0.04884
1.75 0.05025
1.8 0.048
1.85 0.04761
1.9 0.04549
1.95 0.04368
2 0.03888
2.05 0.03245
2.1 0.02649
2.15 0.02367
2.2 0.01819
2.25 0.01397
2.3 0.01024
2.35 0.00868
2.4 0.01225
2.45 0.01454
2.5 0.01788
2.55 0.0182
2.6 0.02313
2.65 0.0277
2.7 0.03127
2.75 0.03721
2.8 0.04088
2.85 0.03762
2.9 0.03861
2.95 0.04022
3 0.04117
3.05 0.04321
3.1 0.03801
3.15 0.02924
3.2 0.02656
3.25 0.02809
3.3 0.02919
3.35 0.02546
3.4 0.02699
3.45 0.03027
3.5 0.03097
3.55 0.03043
3.6 0.02662
3.65 0.01984
3.7 0.01772
3.75 0.01897
3.8 0.01888
3.85 0.01692
3.9 0.01352
3.95 0.00794
4 0.00652
4.05 0.00809
4.1 0.01188
4.15 0.0167
4.2 0.01926
4.25 0.01533
4.3 0.00791
4.35 0.00523
4.4 0.00357
4.45 0.00274
4.5 0.00158
4.55 -0.00929
4.6 -0.02098
4.65 -0.03648
4.7 -0.05934
4.75 -0.0834
4.8 -0.10542
4.85 -0.13187
4.9 -0.16597
4.95 -0.20182
5 -0.24621
5.05 -0.2936
5.1 -0.34346
5.15 -0.39964
5.2 -0.45958
5.25 -0.52738
5.3 -0.59863
5.35 -0.6801
5.4 -0.7639
5.45 -0.8535
5.5 -0.95069
5.55 -1.04893
5.6 -1.15131
5.65 -1.25421
5.7 -1.34938
5.75 -1.4393
5.8 -1.52912
5.85 -1.62075
5.9 -1.7109
5.95 -1.79853
6 -1.88382
6.05 -1.96481
6.1 -2.04449
6.15 -2.11541
6.2 -2.18533
6.25 -2.24957
6.3 -2.30982
6.35 -2.36393
6.4 -2.41076
6.45 -2.44924
6.5 -2.48072
6.55 -2.50095
6.6 -2.50999
6.65 -2.50881
6.7 -2.49778
6.75 -2.47483
6.8 -2.44152
6.85 -2.39651
6.9 -2.32915
6.95 -2.2435
7 -2.14323
7.05 -2.02458
7.1 -1.89575
7.15 -1.74878
7.2 -1.59055
7.25 -1.41811
7.3 -1.23439
7.35 -1.03939
7.4 -0.83599
7.45 -0.62622
7.5 -0.41421
7.55 -0.20581
7.6 0.00068
7.65 0.19897
7.7 0.39475
7.75 0.58442
7.8 0.76262
7.85 0.93525
7.9 1.09133
7.95 1.23694
8 1.37491
8.05 1.50263
8.1 1.61557
8.15 1.72048
8.2 1.81253
8.25 1.88944
8.3 1.95996
8.35 2.02237
8.4 2.07711
8.45 2.12158
8.5 2.15577
8.55 2.17887
8.6 2.19562
8.65 2.21013
8.7 2.22401
8.75 2.23226
8.8 2.23751
8.85 2.23568
8.9 2.23436
8.95 2.22609
9 2.21808
9.05 2.20825
9.1 2.19729
9.15 2.17793
9.2 2.15929
9.25 2.13828
9.3 2.12008
9.35 2.09743
9.4 2.071
9.45 2.0479
9.5 2.02269
9.55 1.9969
9.6 1.967
9.65 1.94003
9.7 1.91232
9.75 1.88474
9.8 1.85671
9.85 1.82528
9.9 1.79012
9.95 1.75342
10 1.71693
10.05 1.68044
10.1 1.63692
10.15 1.59256
10.2 1.54468
10.25 1.50008
10.3 1.45248
10.35 1.40567
10.4 1.35974
10.45 1.31908
10.5 1.28077
10.55 1.23482
10.6 1.18614
10.65 1.1365
10.7 1.08896
10.75 1.04571
10.8 0.99785
10.85 0.94913
10.9 0.90018
10.95 0.85669
11 0.81375
11.05 0.76845
11.1 0.72152
11.15 0.67795
11.2 0.63468
11.25 0.58707
11.3 0.54036
11.35 0.49964
11.4 0.45906
11.45 0.41821
11.5 0.37398
11.55 0.33486
11.6 0.30059
11.65 0.26592
11.7 0.23337
11.75 0.19635
11.8 0.16264
11.85 0.12659
11.9 0.09436
11.95 0.0654
12 0.03931
12.05 0.01226
12.1 -0.01093
12.15 -0.03314
12.2 -0.05387
12.25 -0.073
12.3 -0.09455
12.35 -0.12113
12.4 -0.14801
12.45 -0.17246
12.5 -0.1971
12.55 -0.21601
12.6 -0.23696
12.65 -0.25423
12.7 -0.26526
12.75 -0.28011
12.8 -0.29448
12.85 -0.3039
12.9 -0.31349
12.95 -0.32098
13 -0.32919
13.05 -0.335
13.1 -0.34184
13.15 -0.34408
13.2 -0.34799
13.25 -0.35077
13.3 -0.35286
13.35 -0.35787
13.4 -0.36443
13.45 -0.37172
13.5 -0.37975
13.55 -0.38192
13.6 -0.38493
13.65 -0.39073
13.7 -0.39115
13.75 -0.39056
13.8 -0.39041
13.85 -0.39061
13.9 -0.38477
13.95 -0.3776
14 -0.37092
14.05 -0.36191
14.1 -0.3597
14.15 -0.35394
14.2 -0.35168
14.25 -0.34642
14.3 -0.3416
14.35 -0.34037
14.4 -0.33578
14.45 -0.33506
14.5 -0.33597
14.55 -0.33807
14.6 -0.34248
14.65 -0.34229
14.7 -0.34323
14.75 -0.34446
14.8 -0.34456
14.85 -0.34215
14.9 -0.33723
14.95 -0.32739
15 -0.32089
15.05 -0.31316
15.1 -0.30995
15.15 -0.30862
15.2 -0.30763
15.25 -0.30141
15.3 -0.29354
15.35 -0.28373
15.4 -0.27586
15.45 -0.26842
15.5 -0.26202
15.55 -0.25655
15.6 -0.25649
15.65 -0.2554
15.7 -0.25536
15.75 -0.2519
15.8 -0.24807
15.85 -0.24508
15.9 -0.24001
15.95 -0.23357
16 -0.22847
16.05 -0.2221
16.1 -0.21923
16.15 -0.21852
16.2 -0.21663
16.25 -0.21594
16.3 -0.21028
16.35 -0.2069
16.4 -0.20739
16.45 -0.21085
16.5 -0.21378
16.55 -0.20981
16.6 -0.20393
16.65 -0.19408
16.7 -0.18788
16.75 -0.18382
16.8 -0.17727
16.85 -0.17334
16.9 -0.17158
16.95 -0.17204
17 -0.16765
17.05 -0.16533
17.1 -0.16466
17.15 -0.1603
17.2 -0.15338
17.25 -0.15255
17.3 -0.15482
17.35 -0.15623
17.4 -0.15806
17.45 -0.1564
17.5 -0.14926
17.55 -0.14763
17.6 -0.14278
17.65 -0.14142
17.7 -0.14147
17.75 -0.13652
17.8 -0.13005
17.85 -0.12808
17.9 -0.12472
17.95 -0.12234
18 -0.11735
18.05 -0.11131
18.1 -0.11164
18.15 -0.11192
18.2 -0.11186
18.25 -0.11375
18.3 -0.11014
18.35 -0.10707
18.4 -0.10917
18.45 -0.10622
18.5 -0.10278
18.55 -0.10208
18.6 -0.09969
18.65 -0.09592
18.7 -0.09378
18.75 -0.09183
18.8 -0.08756
18.85 -0.08394
18.9 -0.08652
18.95 -0.08891
19 -0.08655
19.05 -0.08184
19.1 -0.07551
19.15 -0.07346
19.2 -0.06988
19.25 -0.06775
19.3 -0.06573
19.35 -0.06176
19.4 -0.05785
19.45 -0.0613
19.5 -0.06542
19.55 -0.06747
19.6 -0.07059
19.65 -0.07028
19.7 -0.07262
19.75 -0.07453
19.8 -0.07683
19.85 -0.08064
19.9 -0.08201
19.95 -0.07773
20 -0.07153
20.05 -0.07061
20.1 -0.06541
20.15 -0.06435
20.2 -0.05911
20.25 -0.0567
20.3 -0.05859
20.35 -0.0553
20.4 -0.05388
20.45 -0.05702
20.5 -0.0611
20.55 -0.05974
20.6 -0.06218
20.65 -0.06217
20.7 -0.05768
20.75 -0.05282
20.8 -0.05068
20.85 -0.05203
20.9 -0.05406
20.95 -0.05794
21 -0.06267
21.05 -0.06494
21.1 -0.06388
21.15 -0.06529
21.2 -0.06468
21.25 -0.06591
21.3 -0.06661
21.35 -0.0673
21.4 -0.06648
21.45 -0.06545
21.5 -0.05969
21.55 -0.05176
21.6 -0.04174
21.65 -0.03094
21.7 -0.02512
21.75 -0.02305
21.8 -0.0186
21.85 -0.02004
21.9 -0.02045
21.95 -0.0251
22 -0.02829
22.05 -0.02952
22.1 -0.03145
22.15 -0.03142
22.2 -0.03421
22.25 -0.04012
22.3 -0.0456
22.35 -0.04594
22.4 -0.04147
22.45 -0.03348
22.5 -0.03028
22.55 -0.02811
22.6 -0.02937
22.65 -0.02662
22.7 -0.02331
22.75 -0.0219
22.8 -0.01709
22.85 -0.01824
22.9 -0.02321
22.95 -0.03104
23 -0.03393
23.05 -0.03814
23.1 -0.04328
23.15 -0.04539
23.2 -0.04122
23.25 -0.04112
23.3 -0.04293
23.35 -0.03864
23.4 -0.03083
23.45 -0.02694
23.5 -0.02167
23.55 -0.01474
23.6 -0.01496
23.65 -0.01895
23.7 -0.01953
23.75 -0.01713
23.8 -0.01421
23.85 -0.01501
23.9 -0.0165
23.95 -0.01702
24 -0.01823
24.05 -0.01835
24.1 -0.02026
24.15 -0.01827
24.2 -0.01233
24.25 -0.00565
24.3 -0.00493
24.35 -0.00752
24.4 -0.01327
24.45 -0.0197
24.5 -0.02784
24.55 -0.03297
24.6 -0.03013
24.65 -0.03085
24.7 -0.0322
24.75 -0.02878
24.8 -0.02583
24.85 -0.01895
24.9 -0.01598
24.95 -0.01775
25 -0.01746
25.05 -0.01782
25.1 -0.02143
25.15 -0.01911
25.2 -0.02138
25.25 -0.01786
25.3 -0.01113
25.35 -0.01064
25.4 -0.00791
25.45 -0.00204
25.5 -0.00098
25.55 0.00083
25.6 -0.00058
25.65 -0.00481
25.7 -0.00944
25.75 -0.01193
25.8 -0.01577
25.85 -0.0179
25.9 -0.02204
25.95 -0.02017
26 -0.01853
26.05 -0.01714
26.1 -0.01826
26.15 -0.01589
26.2 -0.01518
26.25 -0.01279
26.3 -0.01268
26.35 -0.01005
26.4 -0.00743
26.45 -0.00191
26.5 -0.00106
26.55 0.00187
26.6 -0.00086
26.65 -0.00166
26.7 -0.00402
26.75 -0.00669
26.8 -0.01245
26.85 -0.01143
26.9 -0.01223
26.95 -0.00877
27 -0.0058
27.05 -0.00453
27.1 -0.00776
27.15 -0.01209
27.2 -0.01295
27.25 -0.01403
27.3 -0.01293
27.35 -0.01346
27.4 -0.01143
27.45 -0.01347
27.5 -0.01797
27.55 -0.02088
27.6 -0.02154
27.65 -0.02451
27.7 -0.02637
27.75 -0.02427
27.8 -0.02164
27.85 -0.02234
27.9 -0.0229
27.95 -0.02496
28 -0.02117
28.05 -0.01446
28.1 -0.01101
28.15 -0.00648
28.2 -0.00378
28.25 -0.00545
28.3 -0.00874
28.35 -0.00974
28.4 -0.00701
28.45 -0.00216
28.5 0.00452
28.55 0.00506
28.6 0.00188
28.65 0.00074
28.7 0.00369
28.75 0.00375
28.8 -0.00067
28.85 -0.00093
28.9 -0.00334
28.95 -0.00283
29 -0.00168
29.05 -0.00299
29.1 -0.00542
29.15 -0.01094
29.2 -0.01734
29.25 -0.02055
29.3 -0.02206
29.35 -0.02026
29.4 -0.01621
29.45 -0.01556
29.5 -0.01509
29.55 -0.0094
29.6 -0.00201
29.65 0.00183
29.7 0.00726
29.75 0.00913
29.8 0.01409
29.85 0.01359
29.9 0.01414
29.95 0.01344
30 0.01323
30.05 0.01009
30.1 0.0114
30.15 0.01467
30.2 0.0122
30.25 0.01009
30.3 0.00703
30.35 0.00035
30.4 0.00046
30.45 0.00329
30.5 0.00103
30.55 0.00007
30.6 -0.00126
30.65 -0.00581
30.7 -0.00787
30.75 -0.00654
30.8 -0.00179
30.85 -0.00219
30.9 0.00136
30.95 0.00734
31 0.01384
31.05 0.01311
31.1 0.01474
31.15 0.01454
31.2 0.01629
31.25 0.01609
31.3 0.01807
31.35 0.01962
31.4 0.02062
31.45 0.02171
31.5 0.02324
31.55 0.02299
31.6 0.01618
31.65 0.00888
31.7 0.00641
31.75 0.00445
31.8 0.00008
31.85 -0.00699
31.9 -0.00982
31.95 -0.0136
32 -0.01109
32.05 -0.01286
32.1 -0.01044
32.15 -0.00989
32.2 -0.01264
32.25 -0.01304
32.3 -0.01464
32.35 -0.01178
32.4 -0.0063
32.45 -0.00427
32.5 -0.00455
32.55 -0.00869
32.6 -0.01358
32.65 -0.01943
32.7 -0.02537
32.75 -0.02902
32.8 -0.03272
32.85 -0.03428
32.9 -0.02915
32.95 -0.02399
33 -0.01489
33.05 -0.00395
33.1 0.00242
33.15 0.00901
33.2 0.01303
33.25 0.01833
33.3 0.01584
33.35 0.00996
33.4 0.00473
33.45 0.00318
33.5 0.00082
33.55 0.00266
33.6 0.0017
33.65 -0.00143
33.7 -0.00612
33.75 -0.00664
33.8 -0.01001
33.85 -0.01224
33.9 -0.01499
33.95 -0.01777
34 -0.01948
34.05 -0.01892
34.1 -0.0155
34.15 -0.00722
34.2 -0.00296
34.25 0.0013
34.3 0.00043
34.35 0.00166
34.4 0.00509
34.45 0.00663
34.5 0.00611
34.55 0.00681
34.6 0.00355
34.65 0.00279
34.7 0.00011
34.75 -0.00371
34.8 -0.00408
34.85 -0.00711
34.9 -0.01066
34.95 -0.01497
35 -0.01143
35.05 -0.00437
35.1 -0.00091
35.15 0.00123
35.2 0.00684
35.25 0.01495
35.3 0.02146
35.35 0.02373
35.4 0.02788
35.45 0.03187
35.5 0.02819
35.55 0.02514
35.6 0.01895
35.65 0.01012
35.7 0.00094
35.75 -0.00117
35.8 -0.00487
35.85 -0.00942
35.9 -0.01169
35.95 -0.0081
36 -0.00504
36.05 0.00182
36.1 0.00572
36.15 0.00389
36.2 -0.00061
36.25 -0.00664
36.3 -0.01078
36.35 -0.01463
36.4 -0.0182
36.45 -0.01516
36.5 -0.00784
36.55 -0.00127
36.6 -0.0009
36.65 -0.00444
36.7 -0.00308
36.75 0.00029
36.8 0.00207
36.85 0.00286
36.9 0.00271
36.95 0.00364
37 0.00084
37.05 -0.00424
37.1 -0.00786
37.15 -0.01316
37.2 -0.01637
37.25 -0.01232
37.3 -0.00517
37.35 -0.00363
37.4 -0.00165
37.45 0.00109
37.5 0.00621
37.55 0.01187
37.6 0.01193
37.65 0.00832
37.7 0.00164
37.75 -0.00575
37.8 -0.00879
37.85 -0.00648
37.9 -0.00192
37.95 0.00185
38 0.00803
38.05 0.01304
38.1 0.01336
38.15 0.01007
38.2 0.00557
38.25 0.00538
38.3 0.00955
38.35 0.01437
38.4 0.01741
38.45 0.01988
38.5 0.02367
38.55 0.02829
38.6 0.02483
38.65 0.0226
38.7 0.02355
38.75 0.02477
38.8 0.02091
38.85 0.01663
38.9 0.01298
38.95 0.00907
39 0.00888
39.05 0.00449
39.1 0.00128
39.15 -0.00511
39.2 -0.0121
39.25 -0.01145
39.3 -0.00671
39.35 0.00042
39.4 0.00494
39.45 0.00802
39.5 0.00546
39.55 0.00489
39.6 0.00216
39.65 0.00008
39.7 -0.00508
39.75 -0.00504
39.8 -0.00929
39.85 -0.01113
39.9 -0.0098
39.95 -0.00966
40 -0.00467
40.05 0.00027
40.1 0.00554
40.15 0.00867
40.2 0.00858
40.25 0.00512
40.3 -0.00011
40.35 -0.00599
40.4 -0.00554
40.45 -0.00634
40.5 -0.00401
40.55 -0.00117
40.6 -0.00305
40.65 -0.00867
40.7 -0.016
40.75 -0.02077
40.8 -0.02602
40.85 -0.03179
40.9 -0.03725
40.95 -0.04047
41 -0.04115
41.05 -0.03601
41.1 -0.03409
41.15 -0.0288
41.2 -0.02246
41.25 -0.01937
41.3 -0.01095
41.35 -0.00366
41.4 -0.00194
41.45 -0.00036
41.5 0.00505
41.55 0.01283
41.6 0.01749
41.65 0.01533
41.7 0.01755
41.75 0.01928
41.8 0.01819
41.85 0.01384
41.9 0.00565
41.95 -0.00076
42 -0.007
42.05 -0.01193
42.1 -0.01504
42.15 -0.01258
42.2 -0.00858
42.25 -0.00747
42.3 -0.00749
42.35 -0.00892
42.4 -0.0069
42.45 -0.00318
42.5 -0.00122
42.55 -0.00216
42.6 -0.00084
42.65 0.00378
42.7 0.00452
42.75 0.00667
42.8 0.0033
42.85 0.0034
42.9 0.00758
42.95 0.00759
43 0.01001
43.05 0.01062
43.1 0.01195
43.15 0.00824
43.2 0.00286
43.25 0.00275
43.3 -0.00156
43.35 0.00021
43.4 -0.00247
43.45 -0.00239
43.5 -0.00211
43.55 -0.00322
43.6 -0.00578
43.65 -0.00725
43.7 -0.00354
43.75 0.00202
43.8 0.00204
43.85 0.00384
43.9 0.00071
43.95 0.00077
44 0.00122
44.05 0.00492
44.1 0.00383
44.15 0.00215
44.2 -0.00006
44.25 0.0012
44.3 0.00201
44.35 0.00599
44.4 0.00889
44.45 0.00884
44.5 0.00472
44.55 0.00548
44.6 0.00239
44.65 -0.00227
44.7 -0.00378
44.75 -0.00118
44.8 0.00428
44.85 0.00934
44.9 0.01364
44.95 0.01804
45 0.02187
45.05 0.01817
45.1 0.01353
45.15 0.01351
45.2 0.0159
45.25 0.01556
45.3 0.01787
45.35 0.01352
45.4 0.00535
45.45 -0.00219
45.5 -0.01095
45.55 -0.01459
45.6 -0.01294
45.65 -0.0135
45.7 -0.01436
45.75 -0.01561
45.8 -0.0137
45.85 -0.01303
45.9 -0.00698
45.95 -0.00639
46 -0.00327
46.05 -0.00373
46.1 -0.00064
46.15 0.00196
46.2 0.00015
46.25 -0.00094
46.3 -0.00181
46.35 -0.00372
46.4 -0.0075
46.45 -0.00623
46.5 -0.0052
46.55 0.00048
46.6 0.00642
46.65 0.00919
46.7 0.0117
46.75 0.00862
46.8 0.00955
46.85 0.00754
46.9 0.00603
46.95 0.0023
47 -0.00296
47.05 -0.00439
47.1 -0.00751
47.15 -0.00688
47.2 -0.00339
47.25 -0.00017
47.3 0.00491
47.35 0.01135
47.4 0.01109
47.45 0.01426
47.5 0.01817
47.55 0.02305
47.6 0.02194
47.65 0.02172
47.7 0.02226
47.75 0.02039
47.8 0.02061
47.85 0.01612
47.9 0.00971
47.95 0.00172
48 -0.00519
48.05 -0.01318
48.1 -0.02027
48.15 -0.02215
48.2 -0.02055
48.25 -0.01919
48.3 -0.01331
48.35 -0.00494
48.4 -0.00387
48.45 -0.00628
48.5 -0.00777
48.55 -0.0126
48.6 -0.01392
48.65 -0.01044
48.7 -0.00762
48.75 -0.00375
48.8 -0.00401
48.85 -0.00234
48.9 -0.00011
48.95 -0.00189
49 -0.00685
49.05 -0.01151
49.1 -0.01553
49.15 -0.01565
49.2 -0.01889
49.25 -0.0208
49.3 -0.01872
49.35 -0.01709
49.4 -0.01036
49.45 -0.00262
49.5 -0.00013
49.55 -0.00091
49.6 -0.00294
49.65 -0.00556
49.7 -0.00355
49.75 -0.00439
49.8 -0.00804
49.85 -0.00538
49.9 -0.0027
49.95 -0.00339
50 -0.00368
50.05 -0.0045
50.1 -0.00903
50.15 -0.00826
50.2 -0.00761
50.25 -0.00817
50.3 -0.01108
50.35 -0.01235
50.4 -0.01632
50.45 -0.02163
50.5 -0.02597
50.55 -0.02353
50.6 -0.01795
50.65 -0.00958
50.7 -0.00498
50.75 -0.00464
50.8 0.00057
50.85 0.00705
50.9 0.01377
50.95 0.02131
51 0.02326
51.05 0.02578
51.1 0.02385
51.15 0.02067
51.2 0.0137
51.25 0.01136
51.3 0.00971
51.35 0.00497
51.4 -0.00197
51.45 -0.00666
51.5 -0.01251
51.55 -0.01528
51.6 -0.01493
51.65 -0.017
51.7 -0.01608
51.75 -0.0177
51.8 -0.01617
51.85 -0.01543
51.9 -0.01464
51.95 -0.00869
52 -0.00358
52.05 -0.00243
52.1 -0.00407
52.15 -0.00678
52.2 -0.00431
52.25 -0.00442
52.3 -0.00394
52.35 -0.00137
52.4 0.0007
52.45 0.00336
52.5 0.00318
52.55 0.00676
52.6 0.00649
52.65 0.00238
52.7 0.00345
52.75 0.00322
52.8 0.00343
52.85 0.00151
52.9 -0.00329
52.95 -0.00753
53 -0.00528
53.05 0.00094
53.1 0.00576
53.15 0.01126
53.2 0.01595
53.25 0.01932
53.3 0.01724
53.35 0.01899
53.4 0.0154
53.45 0.01075
53.5 0.00316
53.55 0.00093
53.6 -0.00105
53.65 -0.00445
53.7 -0.00586
53.75 -0.00152
53.8 0.00597
53.85 0.01137
53.9 0.01057
53.95 0.0073
54 0.00052
54.05 -0.0081
54.1 -0.01601
54.15 -0.01655
54.2 -0.01722
54.25 -0.01484
54.3 -0.0102
54.35 -0.00722
54.4 -0.00123
54.45 0.00489
54.5 0.00597
54.55 0.00973
54.6 0.01502
54.65 0.0163
54.7 0.01253
54.75 0.00624
54.8 0.00179
54.85 0.00004
54.9 -0.00067
54.95 0.00081
55 -0.00107
55.05 -0.00572
55.1 -0.00438
55.15 -0.00215
55.2 -0.00116
55.25 -0.00222
55.3 -0.00358
55.35 -0.00811
55.4 -0.01304
55.45 -0.01933
55.5 -0.02039
55.55 -0.01589
55.6 -0.00872
55.65 -0.00191
55.7 0.00637
55.75 0.01282
55.8 0.01209
55.85 0.00727
55.9 0.00616
55.95 0.00537
56 0.001
56.05 0.00227
56.1 0.00479
56.15 0.007
56.2 0.01252
56.25 0.01774
56.3 0.01722
56.35 0.0124
56.4 0.00603
56.45 0.00451
56.5 0.00707
56.55 0.01043
56.6 0.01607
56.65 0.01595
56.7 0.01436
56.75 0.0091
56.8 0.00911
56.85 0.00948
56.9 0.01187
56.95 0.01479
57 0.01699
57.05 0.01645
57.1 0.01921
57.15 0.01673
57.2 0.01674
57.25 0.012
57.3 0.00575
57.35 -0.0013
57.4 -0.00301
57.45 -0.00295
57.5 -0.00497
57.55 -0.00575
57.6 -0.00679
57.65 -0.00289
57.7 -0.00279
57.75 -0.00575
57.8 -0.01131
57.85 -0.01304
57.9 -0.01086
57.95 -0.00831
58 -0.00497
58.05 0.00017
58.1 0.00591
58.15 0.00436
58.2 0.00009
58.25 0.00098
58.3 -0.00269
58.35 -0.00756
58.4 -0.01316
58.45 -0.01301
58.5 -0.01316
58.55 -0.00948
58.6 -0.007
58.65 -0.0015
58.7 0.00525
58.75 0.01084
58.8 0.0126
58.85 0.01126
58.9 0.00793
58.95 0.00131
59 -0.00448
59.05 -0.00835
59.1 -0.00801
59.15 -0.01144
59.2 -0.01227
59.25 -0.00763
59.3 0.00013
59.35 0.00797
59.4 0.01655
59.45 0.02152
59.5 0.02272
59.55 0.02121
59.6 0.01934
59.65 0.0154
59.7 0.00969
59.75 0.0024
59.8 -0.00123
59.85 -0.00708
59.9 -0.01256
59.95 -0.01833
60 -0.02292
60.05 -0.02807
60.1 -0.03347
60.15 -0.03484
60.2 -0.03669
60.25 -0.03439
60.3 -0.03107
60.35 -0.02536
60.4 -0.01945
60.45 -0.01515
60.5 -0.00982
60.55 -0.00466
60.6 -0.00203
60.65 -0.00148
60.7 -0.00198
60.75 -0.0058
60.8 -0.00382
60.85 -0.00431
60.9 -0.00096
60.95 -0.00075
61 -0.00371
61.05 -0.00269
61.1 0.00247
61.15 0.00806
61.2 0.01245
61.25 0.01588
61.3 0.015
61.35 0.01486
61.4 0.00919
61.45 0.00675
61.5 0.00105
61.55 -0.00441
61.6 -0.00455
61.65 -0.00736
61.7 -0.00856
61.75 -0.01257
61.8 -0.01798
61.85 -0.01808
61.9 -0.01335
61.95 -0.01075
62 -0.00667
62.05 -0.0063
62.1 -0.00336
62.15 -0.00375
62.2 -0.00029
62.25 0.00551
62.3 0.01198
62.35 0.01805
62.4 0.02078
62.45 0.02253
62.5 0.02268
62.55 0.02365
62.6 0.02106
62.65 0.01727
62.7 0.01066
62.75 0.00437
62.8 -0.00368
62.85 -0.00422
62.9 -0.00614
62.95 -0.00971
63 -0.00668
63.05 -0.00766
63.1 -0.00944
63.15 -0.01307
63.2 -0.01256
63.25 -0.01466
63.3 -0.01452
63.35 -0.00852
63.4 -0.00831
63.45 -0.00964
63.5 -0.01402
63.55 -0.01636
63.6 -0.01207
63.65 -0.00937
63.7 -0.00235
63.75 -0.00069
63.8 0.00289
63.85 0.00111
63.9 -0.00401
63.95 -0.00708
64 -0.0078
64.05 -0.01142
64.1 -0.01029
64.15 -0.0066
64.2 -0.00052
64.25 -0.00084
64.3 -0.00299
64.35 -0.00566
64.4 -0.00252
64.45 -0.00155
64.5 0.00404
64.55 0.00604
64.6 0.00759
64.65 0.01265
64.7 0.01823
64.75 0.01597
64.8 0.01731
64.85 0.01755
64.9 0.01848
64.95 0.01721
65 0.01499
65.05 0.00882
65.1 0.00143
65.15 -0.00756
65.2 -0.0127
65.25 -0.01813
65.3 -0.01917
65.35 -0.02069
65.4 -0.02409
65.45 -0.02482
65.5 -0.02293
65.55 -0.01784
65.6 -0.01042
65.65 -0.00769
65.7 -0.00082
65.75 0.0081
65.8 0.01196
65.85 0.01283
65.9 0.01211
65.95 0.01182
66 0.01248
66.05 0.00938
66.1 0.01043
66.15 0.01391
66.2 0.01693
66.25 0.01676
66.3 0.01783
66.35 0.02144
66.4 0.01801
66.45 0.01102
66.5 0.00553
66.55 0.0048
66.6 0.00636
66.65 0.00513
66.7 0.00133
66.75 0.00064
66.8 0.00237
66.85 0.00378
66.9 0.00723
66.95 0.01155
67 0.01659
67.05 0.02232
67.1 0.02441
67.15 0.02778
67.2 0.02797
67.25 0.02692
67.3 0.02474
67.35 0.01682
67.4 0.01476
67.45 0.00917
67.5 0.00198
67.55 -0.00163
67.6 -0.00383
67.65 -0.00816
67.7 -0.01389
67.75 -0.01709
67.8 -0.02147
67.85 -0.01876
67.9 -0.01865
67.95 -0.01414
68 -0.0093
68.05 -0.00917
68.1 -0.01211
68.15 -0.01514
68.2 -0.02007
68.25 -0.01922
68.3 -0.01388
68.35 -0.01335
68.4 -0.01172
68.45 -0.01379
68.5 -0.01397
68.55 -0.01495
68.6 -0.01864
68.65 -0.01832
68.7 -0.02002
68.75 -0.02101
68.8 -0.01543
68.85 -0.01108
68.9 -0.00644
68.95 -0.00608
69 -0.00274
69.05 0.00253
69.1 0.00173
69.15 0.00353
69.2 0.00806
69.25 0.00766
69.3 0.00875
69.35 0.0094
69.4 0.00819
69.45 0.00615
69.5 0.00526
69.55 0.00553
69.6 0.00748
69.65 0.00772
69.7 0.00593
69.75 0.00302
69.8 0.00478
69.85 0.00994
69.9 0.01135
69.95 0.00908
70 0.01127
70.05 0.00908
70.1 0.00999
70.15 0.01055
70.2 0.0121
70.25 0.0083
70.3 0.00677
70.35 0.0043
70.4 -0.00148
70.45 -0.00709
70.5 -0.01088
70.55 -0.01215
70.6 -0.01061
70.65 -0.00493
70.7 0.00148
70.75 0.00892
70.8 0.01706
70.85 0.02492
70.9 0.03
70.95 0.03316
71 0.03052
71.05 0.02611
71.1 0.02017
71.15 0.01132
71.2 0.00311
71.25 0.00118
71.3 -0.00439
71.35 -0.01089
71.4 -0.01096
71.45 -0.01227
71.5 -0.01241
71.55 -0.01473
71.6 -0.01171
71.65 -0.00705
71.7 -0.00498
71.75 -0.0075
71.8 -0.00883
71.85 -0.00843
71.9 -0.00926
71.95 -0.00759
72 -0.00415
72.05 -0.001
72.1 0.00129
72.15 -0.0004
72.2 0.00245
72.25 0.00215
72.3 0.00548
72.35 0.00991
72.4 0.01407
72.45 0.01498
72.5 0.01208
72.55 0.00633
72.6 0.00144
72.65 0.00241
72.7 0.00566
72.75 0.01062
72.8 0.01089
72.85 0.01011
72.9 0.00567
72.95 0.00291
73 -0.00089
73.05 -0.00687
73.1 -0.01188
73.15 -0.01683
73.2 -0.02125
73.25 -0.02123
73.3 -0.02182
73.35 -0.02069
73.4 -0.01967
73.45 -0.01357
73.5 -0.01083
73.55 -0.00502
73.6 -0.00453
73.65 -0.00457
73.7 -0.00054
73.75 0.00416
73.8 0.00862
73.85 0.0128
73.9 0.01521
73.95 0.01406
74 0.00948
74.05 0.01011
74.1 0.0051
74.15 -0.00173
74.2 -0.00158
74.25 0.00004
74.3 0.00308
74.35 0.0003
74.4 0.0024
74.45 0.00133
74.5 0.00413
74.55 0.00781
74.6 0.01176
74.65 0.01441
74.7 0.01863
74.75 0.01742
74.8 0.01092
74.85 0.00981
74.9 0.01121
74.95 0.0104
75 0.00846
75.05 0.00315
75.1 -0.00115
75.15 -0.0018
75.2 -0.004
75.25 -0.00126
75.3 0.00306
75.35 0.00578
75.4 0.00793
75.45 0.00528
75.5 0.00197
75.55 0.00343
75.6 0.00575
75.65 0.00304
75.7 0.00125
75.75 -0.00336
75.8 -0.00299
75.85 -0.00336
75.9 -0.00727
75.95 -0.00522
76 -0.00175
76.05 -0.00365
76.1 -0.00843
76.15 -0.00723
76.2 -0.0103
76.25 -0.01147
76.3 -0.00932
76.35 -0.00502
76.4 -0.0024
76.45 -0.00284
76.5 -0.00484
76.55 -0.00178
76.6 0.00148
76.65 -0.00053
76.7 -0.00162
76.75 -0.0054
76.8 -0.00898
76.85 -0.00753
76.9 -0.0022
76.95 -0.00146
77 -0.0057
77.05 -0.00973
77.1 -0.01029
77.15 -0.01102
77.2 -0.00919
77.25 -0.00929
77.3 -0.00668
77.35 -0.00794
77.4 -0.01215
77.45 -0.01383
77.5 -0.01348
77.55 -0.00981
77.6 -0.0079
77.65 -0.00231
77.7 -0.00196
77.75 -0.00307
77.8 -0.00645
77.85 -0.01147
77.9 -0.01333
77.95 -0.01638
78 -0.01283
78.05 -0.00585
78.1 0.00177
78.15 0.00358
78.2 0.00398
78.25 0.00118
78.3 0.00382
78.35 0.00278
78.4 0.00538
78.45 0.00432
78.5 0.0054
78.55 0.0017
78.6 0.00362
78.65 0.00273
78.7 0.00506
78.75 0.00149
78.8 -0.00084
78.85 -0.00508
78.9 -0.00984
78.95 -0.00894
79 -0.00983
79.05 -0.00566
79.1 -0.00717
79.15 -0.01076
79.2 -0.0164
79.25 -0.02041
79.3 -0.01952
79.35 -0.01533
79.4 -0.01446
79.45 -0.00934
79.5 -0.00487
79.55 0.00046
79.6 0.00781
79.65 0.01622
79.7 0.02093
79.75 0.02385
79.8 0.02208
79.85 0.02216
79.9 0.02068
79.95 0.0207
80 0.01552
80.05 0.0135
80.1 0.01504
80.15 0.01187
80.2 0.00556
80.25 0.00232
80.3 -0.00061
80.35 0.00078
80.4 0.00501
80.45 0.01009
80.5 0.0131
80.55 0.01455
80.6 0.01474
80.65 0.01253
80.7 0.0137
80.75 0.0136
80.8 0.01479
80.85 0.00943
80.9 0.00934
80.95 0.00838
81 0.00304
81.05 0.00045
81.1 0.00008
81.15 -0.00337
81.2 -0.00472
81.25 -0.00946
81.3 -0.01081
81.35 -0.01064
81.4 -0.01356
81.45 -0.01398
81.5 -0.00998
81.55 -0.00979
81.6 -0.00453
81.65 0.00188
81.7 0.00484
81.75 0.0062
81.8 0.00461
81.85 0.00278
81.9 0.00414
81.95 0.00281
82 -0.00259
82.05 -0.00567
82.1 -0.0103
82.15 -0.01493
82.2 -0.01464
82.25 -0.01478
82.3 -0.0144
82.35 -0.01299
82.4 -0.01215
82.45 -0.00658
82.5 -0.00452
82.55 0.00126
82.6 0.00653
82.65 0.01344
82.7 0.01479
82.75 0.01188
82.8 0.01333
82.85 0.01727
82.9 0.01705
82.95 0.01212
83 0.01018
83.05 0.01191
83.1 0.0116
83.15 0.00792
83.2 0.00332
83.25 -0.00372
83.3 -0.01017
83.35 -0.01663
83.4 -0.01981
83.45 -0.02453
83.5 -0.02557
83.55 -0.02043
83.6 -0.01449
83.65 -0.00987
83.7 -0.00409
83.75 -0.0012
83.8 -0.00033
83.85 -0.00303
83.9 -0.00923
83.95 -0.01492
84 -0.01916
84.05 -0.02096
84.1 -0.01914
84.15 -0.01323
84.2 -0.005
84.25 0.00312
84.3 0.00356
84.35 0.00594
84.4 0.0044
84.45 0.00369
84.5 0.00517
84.55 0.00972
84.6 0.00988
84.65 0.00754
84.7 0.0096
84.75 0.01087
84.8 0.01341
84.85 0.01487
84.9 0.01107
84.95 0.00549
85 -0.00189
85.05 -0.00705
85.1 -0.00828
85.15 -0.01041
85.2 -0.01178
85.25 -0.01486
85.3 -0.01216
85.35 -0.00676
85.4 -0.00057
85.45 0.00527
85.5 0.00488
85.55 0.00433
85.6 0.00732
85.65 0.00889
85.7 0.01038
85.75 0.01454
85.8 0.01683
85.85 0.02114
85.9 0.02405
85.95 0.02392
86 0.01842
86.05 0.0106
86.1 0.00279
86.15 -0.0033
86.2 -0.01167
86.25 -0.01993
86.3 -0.02596
86.35 -0.02346
86.4 -0.02124
86.45 -0.01814
86.5 -0.01276
86.55 -0.00719
86.6 0.00036
86.65 0.00506
86.7 0.01049
86.75 0.01389
86.8 0.01665
86.85 0.01583
86.9 0.0099
86.95 0.00159
87 -0.00574
87.05 -0.01292
87.1 -0.01742
87.15 -0.01586
87.2 -0.01827
87.25 -0.01479
87.3 -0.00829
87.35 -0.00353
87.4 -0.00305
87.45 0.00179
87.5 0.0005
87.55 -0.00339
87.6 -0.00935
87.65 -0.01512
87.7 -0.01339
87.75 -0.00987
87.8 -0.00271
87.85 -0.00242
87.9 -0.00224
87.95 -0.0053
88 -0.00373
88.05 -0.00212
88.1 0.00093
88.15 -0.0014
88.2 -0.00705
88.25 -0.01346
88.3 -0.01322
88.35 -0.01635
88.4 -0.01557
88.45 -0.01508
88.5 -0.01096
88.55 -0.00389
88.6 -0.00294
88.65 -0.00535
88.7 -0.00249
88.75 0.00151
88.8 0.0048
88.85 0.00662
88.9 0.00333
88.95 0.00521
89 0.00697
89.05 0.00751
89.1 0.01127
89.15 0.0116
89.2 0.01495
89.25 0.01558
89.3 0.01472
89.35 0.01435
89.4 0.01393
89.45 0.01649
89.5 0.01889
89.55 0.02144
89.6 0.02481
89.65 0.02539
89.7 0.02587
89.75 0.02505
89.8 0.025
89.85 0.02432
89.9 0.01845
89.95 0.01324
90 0.01241
90.05 0.00604
90.1 0.0032
90.15 0.00202
90.2 0.0036
90.25 0.00557
90.3 0.00711
90.35 0.00517
90.4 0.00581
90.45 0.00127
90.5 -0.00512
90.55 -0.00481
90.6 -0.0087
90.65 -0.00868
90.7 -0.00896
90.75 -0.01147
90.8 -0.01317
90.85 -0.01191
90.9 -0.00734
90.95 -0.00504
91 0.00066
91.05 0.00545
91.1 0.00634
91.15 0.00889
91.2 0.01357
91.25 0.01461
91.3 0.0175
91.35 0.01728
91.4 0.01524
91.45 0.01474
91.5 0.01092
91.55 0.00275
91.6 -0.00095
91.65 -0.00107
91.7 0.00042
91.75 0.00087
91.8 0.00229
91.85 -0.00102
91.9 -0.00551
91.95 -0.01011
92 -0.01535
92.05 -0.01953
92.1 -0.01646
92.15 -0.01096
92.2 -0.01092
92.25 -0.00867
92.3 -0.00299
92.35 0.00422
92.4 0.01011
92.45 0.01167
92.5 0.00751
92.55 0.00677
92.6 0.00569
92.65 0.00123
92.7 -0.00443
92.75 -0.00586
92.8 -0.00316
92.85 -0.00604
92.9 -0.01152
92.95 -0.01402
93 -0.01873
93.05 -0.02358
93.1 -0.0245
93.15 -0.02293
93.2 -0.01622
93.25 -0.01258
93.3 -0.0106
93.35 -0.00591
93.4 -0.0067
93.45 -0.00503
93.5 -0.00444
93.55 -0.00763
93.6 -0.01093
93.65 -0.00969
93.7 -0.00831
93.75 -0.00573
93.8 -0.00363
93.85 -0.00006
93.9 0.00096
93.95 0.00353
94 0.00243
94.05 0.0032
94.1 0.00048
94.15 -0.00508
94.2 -0.01217
94.25 -0.02026
94.3 -0.02245
94.35 -0.02163
94.4 -0.02202
94.45 -0.02089
94.5 -0.0142
94.55 -0.00602
94.6 0.00355
94.65 0.00537
94.7 0.01052
94.75 0.01628
94.8 0.01863
94.85 0.02055
94.9 0.01878
94.95 0.01168
95 0.00749
95.05 0.00529
95.1 0.00493
95.15 0.00861
95.2 0.00786
95.25 0.00827
95.3 0.00582
95.35 0.00421
95.4 -0.00169
95.45 -0.00555
95.5 -0.01215
95.55 -0.01832
95.6 -0.01884
95.65 -0.01484
95.7 -0.00992
95.75 -0.00724
95.8 -0.0087
95.85 -0.00542
95.9 0.00121
95.95 0.00614
96 0.00844
96.05 0.01211
96.1 0.01783
96.15 0.02106
96.2 0.02457
96.25 0.02527
96.3 0.0248
96.35 0.02047
96.4 0.01311
96.45 0.01069
96.5 0.01034
96.55 0.00526
96.6 0.00395
96.65 0.00152
96.7 -0.00255
96.75 -0.00123
96.8 0.00272
96.85 0.00151
96.9 -0.00122
96.95 -0.00343
97 -0.00295
97.05 0.00147
97.1 0.00041
97.15 -0.00127
97.2 -0.00331
97.25 -0.00745
97.3 -0.01026
97.35 -0.01207
97.4 -0.00865
97.45 -0.0046
97.5 0.00229
97.55 0.00997
97.6 0.01665
97.65 0.0232
97.7 0.02778
97.75 0.02791
97.8 0.02498
97.85 0.01944
97.9 0.01036
97.95 0.00599
98 0.00259
98.05 -0.00347
98.1 -0.00635
98.15 -0.00573
98.2 -0.00933
98.25 -0.01329
98.3 -0.01131
98.35 -0.01066
98.4 -0.00673
98.45 -0.00239
98.5 0.00288
98.55 0.00399
98.6 0.00826
98.65 0.01239
98.7 0.01088
98.75 0.01253
98.8 0.01511
98.85 0.01756
98.9 0.0171
98.95 0.01861
99 0.02065
99.05 0.01946
99.1 0.01407
99.15 0.01
99.2 0.00963
99.25 0.00668
99.3 0.0055
99.35 0.00611
99.4 0.00586
99.45 0.00681
99.5 0.003
99.55 -0.00417
99.6 -0.00549
99.65 -0.00977
99.7 -0.01703
99.75 -0.02256
99.8 -0.02788
99.85 -0.03269
99.9 -0.03143
99.95 -0.02984
