0 0
0.05 0.00123
0.1 0.00345
0.15 0.00628
0.2 0.00946
0.25 0.01172
0.3 0.01226
0.35 0.01303
0.4 0.01345
0.45 0.0139
0.5 0.01424
0.55 0.01432
0.6 0.01371
0.65 0.0128
0.7 0.01254
0.75 0.01314
0.8 0.01262
0.85 0.01234
0.9 0.01234
0.95 0.01251
1 0.01219
1.05 0.01161
1.1 0.01082
1.15 0.01108
1.2 0.01097
1.25 0.0108
1.3 0.01053
1.35 0.0106
1.4 0.01012
1.45 0.00955
1.5 0.00868
1.55 0.00801
1.6 0.00801
1.65 0.00773
1.7 0.00716
1.75 0.00745
1.8 0.00768
1.85 0.00759
1.9 0.0084
1.95 0.00794
2 0.00654
2.05 0.00483
2.1 0.00319
2.15 0.00219
2.2 0.00132
2.25 0.00014
2.3 -0.0003
2.35 0.00068
2.4 0.00222
2.45 0.00277
2.5 0.00437
2.55 0.00618
2.6 0.00813
2.65 0.00852
2.7 0.00948
2.75 0.00877
2.8 0.00871
2.85 0.00852
2.9 0.00829
2.95 0.00786
3 0.00793
3.05 0.00855
3.1 0.00889
3.15 0.00859
3.2 0.00747
3.25 0.00629
3.3 0.00468
3.35 0.00286
3.4 0.00194
3.45 0.00158
3.5 0.00141
3.55 0.00145
3.6 0.0011
3.65 0.00107
3.7 0.00202
3.75 0.00217
3.8 0.00305
3.85 0.0042
3.9 0.00582
3.95 0.00713
4 0.00794
4.05 0.00776
4.1 0.00797
4.15 0.00702
4.2 0.00603
4.25 0.00555
4.3 0.00433
4.35 0.00384
4.4 0.00313
4.45 0.00345
4.5 0.00353
4.55 0.00277
4.6 0.00235
4.65 0.00172
4.7 0.00126
4.75 0.00072
4.8 0.00038
4.85 0.00043
4.9 0.00107
4.95 0.00069
5 -0.0001
5.05 -0.00122
5.1 -0.00232
5.15 -0.0036
5.2 -0.00365
5.25 -0.00323
5.3 -0.00158
5.35 0.00078
5.4 0.00331
5.45 0.00526
5.5 0.00703
5.55 0.00816
5.6 0.00826
5.65 0.00861
5.7 0.00867
5.75 0.00718
5.8 0.00671
5.85 0.006
5.9 0.00421
5.95 0.00341
6 0.00182
6.05 0.00134
6.1 0.00199
6.15 0.00209
6.2 0.00265
6.25 0.00308
6.3 0.00352
6.35 0.00283
6.4 0.00127
6.45 -0.00058
6.5 -0.002
6.55 -0.00327
6.6 -0.00364
6.65 -0.00319
6.7 -0.00198
6.75 -0.00083
6.8 -0.00004
6.85 0.0007
6.9 0.00141
6.95 0.00149
7 0.00246
7.05 0.00319
7.1 0.00285
7.15 0.00253
7.2 0.00124
7.25 -0.00051
7.3 -0.00175
7.35 -0.00277
7.4 -0.00242
7.45 -0.00245
7.5 -0.00177
7.55 -0.0009
7.6 -0.00112
7.65 -0.00185
7.7 -0.0029
7.75 -0.00276
7.8 -0.00332
7.85 -0.00275
7.9 -0.00174
7.95 -0.00125
8 -0.00079
8.05 -0.00119
8.1 -0.0011
8.15 -0.0006
8.2 -0.00025
8.25 -0.00011
8.3 0.00016
8.35 0.00014
8.4 0.00054
8.45 0.0009
8.5 0.00168
8.55 0.00231
8.6 0.00289
8.65 0.00278
8.7 0.00251
8.75 0.00161
8.8 0.00011
8.85 -0.00008
8.9 -0.00058
8.95 -0.00146
9 -0.00218
9.05 -0.0022
9.1 -0.00144
9.15 -0.00071
9.2 -0.0005
9.25 -0.00056
9.3 -0.00048
9.35 -0.00083
9.4 -0.00094
9.45 -0.00057
9.5 0.00047
9.55 0.00029
9.6 -0.00012
9.65 -0.00103
9.7 -0.00192
9.75 -0.00208
9.8 -0.00111
9.85 0.00038
9.9 0.00073
9.95 0.00002
10 -0.00047
10.05 0.00002
10.1 -0.00008
10.15 -0.00051
10.2 -0.00154
10.25 -0.00254
10.3 -0.00361
10.35 -0.00342
10.4 -0.00249
10.45 -0.00162
10.5 -0.00035
10.55 0.00072
10.6 0.00185
10.65 0.00273
10.7 0.00347
10.75 0.00375
10.8 0.00393
10.85 0.00421
10.9 0.00357
10.95 0.003
11 0.00293
11.05 0.00368
11.1 0.00384
11.15 0.00416
11.2 0.0037
11.25 0.00311
11.3 0.00197
11.35 0.00059
11.4 -0.00101
11.45 -0.00136
11.5 -0.00221
11.55 -0.00189
11.6 -0.00093
11.65 -0.0001
11.7 -0.00036
11.75 -0.00006
11.8 0.00117
11.85 0.00251
11.9 0.00393
11.95 0.00397
12 0.00371
12.05 0.00429
12.1 0.00476
12.15 0.00467
12.2 0.00516
12.25 0.0047
12.3 0.00423
12.35 0.00454
12.4 0.00511
12.45 0.00528
12.5 0.0053
12.55 0.00393
12.6 0.003
12.65 0.00296
12.7 0.00332
12.75 0.00324
12.8 0.00207
12.85 0.00041
12.9 -0.00026
12.95 -0.00009
13 0.00064
13.05 0.00068
13.1 0.00127
13.15 0.00074
13.2 -0.00005
13.25 -0.00078
13.3 -0.00215
13.35 -0.00222
13.4 -0.00228
13.45 -0.0014
13.5 -0.00095
13.55 -0.0014
13.6 -0.00138
13.65 -0.00213
13.7 -0.00215
13.75 -0.00155
13.8 -0.00091
13.85 -0.00058
13.9 -0.00018
13.95 0.00103
14 0.00182
14.05 0.00207
14.1 0.00251
14.15 0.00283
14.2 0.00273
14.25 0.00225
14.3 0.00191
14.35 0.00104
14.4 0.00127
14.45 0.00131
14.5 0.00202
14.55 0.00304
14.6 0.00352
14.65 0.00357
14.7 0.00353
14.75 0.00259
14.8 0.00185
14.85 0.00039
14.9 -0.00063
14.95 -0.00119
15 -0.00196
15.05 -0.00203
15.1 -0.00206
15.15 -0.00127
15.2 -0.00133
15.25 -0.00186
15.3 -0.00194
15.35 -0.00124
15.4 -0.00038
15.45 -0.00012
15.5 0.00032
15.55 0.0005
15.6 0.00048
15.65 0.00023
15.7 -0.00044
15.75 -0.00135
15.8 -0.00217
15.85 -0.00297
15.9 -0.00356
15.95 -0.00289
16 -0.00153
16.05 -0.00145
16.1 -0.00112
16.15 -0.00172
16.2 -0.0019
16.25 -0.00114
16.3 -0.0006
16.35 -0.00082
16.4 -0.00164
16.45 -0.0012
16.5 -0.00081
16.55 0.00034
16.6 0.00098
16.65 0.00076
16.7 0.00149
16.75 0.0019
16.8 0.00129
16.85 0.00002
16.9 -0.0007
16.95 -0.00153
17 -0.00238
17.05 -0.00251
17.1 -0.00243
17.15 -0.0031
17.2 -0.00277
17.25 -0.00186
17.3 -0.00042
17.35 -0.00045
17.4 0.0002
17.45 -0.00015
17.5 -0.0003
17.55 -0.00027
17.6 0.00046
17.65 0.00059
17.7 0.00003
17.75 -0
17.8 0.00005
17.85 -0.00062
17.9 -0.00159
17.95 -0.00254
18 -0.003
18.05 -0.0032
18.1 -0.00384
18.15 -0.0031
18.2 -0.00286
18.25 -0.00279
18.3 -0.00221
18.35 -0.00239
18.4 -0.00323
18.45 -0.0039
18.5 -0.00438
18.55 -0.00511
18.6 -0.0061
18.65 -0.00681
18.7 -0.00735
18.75 -0.00676
18.8 -0.00658
18.85 -0.00657
18.9 -0.00567
18.95 -0.00464
19 -0.0028
19.05 -0.00076
19.1 0.00065
19.15 0.00153
19.2 0.00208
19.25 0.00193
19.3 0.00116
19.35 0.00146
19.4 0.00095
19.45 0.00124
19.5 0.00213
19.55 0.00199
19.6 0.00213
19.65 0.00237
19.7 0.00317
19.75 0.00298
19.8 0.00282
19.85 0.00209
19.9 0.00164
19.95 0.00146
20 0.00061
20.05 0.00089
20.1 0.00005
20.15 -0.00086
20.2 -0.00078
20.25 -0.00069
20.3 -0.00125
20.35 -0.00095
20.4 -0.00111
20.45 -0.00107
20.5 -0.00074
20.55 -0.00135
20.6 -0.00072
20.65 0.00046
20.7 0.00184
20.75 0.00327
20.8 0.0046
20.85 0.00542
20.9 0.00525
20.95 0.00412
21 0.0026
21.05 0.00078
21.1 -0.00046
21.15 -0.00203
21.2 -0.00263
21.25 -0.0032
21.3 -0.00258
21.35 -0.00175
21.4 -0.00202
21.45 -0.00258
21.5 -0.00316
21.55 -0.00303
21.6 -0.00327
21.65 -0.00409
21.7 -0.004
21.75 -0.00449
21.8 -0.00532
21.85 -0.00591
21.9 -0.00527
21.95 -0.00368
22 -0.00156
22.05 0.00067
22.1 0.00308
22.15 0.00531
22.2 0.0063
22.25 0.00662
22.3 0.0054
22.35 0.00509
22.4 0.00398
22.45 0.00363
22.5 0.00371
22.55 0.004
22.6 0.0042
22.65 0.00348
22.7 0.00362
22.75 0.00305
22.8 0.00212
22.85 0.00129
22.9 0.00052
22.95 0.00084
23 0.00153
23.05 0.00191
23.1 0.00292
23.15 0.00269
23.2 0.00268
23.25 0.0031
23.3 0.00215
23.35 0.00196
23.4 0.00266
23.45 0.00358
23.5 0.00371
23.55 0.00408
23.6 0.00354
23.65 0.00279
23.7 0.00119
23.75 -0.00077
23.8 -0.00197
23.85 -0.00355
23.9 -0.00444
23.95 -0.00441
24 -0.00318
24.05 -0.00163
24.1 -0.0001
24.15 0.00068
24.2 0.00043
24.25 0.00025
24.3 -0.00062
24.35 -0.00041
24.4 0.00014
24.45 0.00015
24.5 0.00094
24.55 0.00064
24.6 0.00125
24.65 0.00197
24.7 0.00319
24.75 0.00463
24.8 0.00429
24.85 0.00356
24.9 0.00363
24.95 0.00397
25 0.00349
25.05 0.0019
25.1 0.00154
25.15 0.00019
25.2 -0.00163
25.25 -0.00278
25.3 -0.00429
25.35 -0.00507
25.4 -0.00508
25.45 -0.00506
25.5 -0.00552
25.55 -0.0063
25.6 -0.00641
25.65 -0.00619
25.7 -0.00471
25.75 -0.00293
25.8 -0.00111
25.85 -0.00041
25.9 0.00001
25.95 0.00071
26 0.00047
26.05 -0.00006
26.1 0.00041
26.15 -0.0001
26.2 0.00053
26.25 0.00036
26.3 0.00031
26.35 -0.00013
26.4 0.00055
26.45 0.00117
26.5 0.00161
26.55 0.00231
26.6 0.00346
26.65 0.00364
26.7 0.00434
26.75 0.00408
26.8 0.00288
26.85 0.00154
26.9 -0.00023
26.95 -0.00153
27 -0.00174
27.05 -0.0022
27.1 -0.00274
27.15 -0.00299
27.2 -0.0031
27.25 -0.00212
27.3 -0.00207
27.35 -0.00236
27.4 -0.0015
27.45 -0.00048
27.5 -0.00005
27.55 0.00052
27.6 -0.00005
27.65 -0.00084
27.7 -0.00182
27.75 -0.00212
27.8 -0.00199
27.85 -0.00131
27.9 -0.00033
27.95 0.00112
28 0.0016
28.05 0.00082
28.1 0.00102
28.15 0.00163
28.2 0.00092
28.25 0.00049
28.3 0.00051
28.35 0.00032
28.4 0.0011
28.45 0.00053
28.5 -0.00046
28.55 -0.00055
28.6 -0.00101
28.65 -0.00188
28.7 -0.00306
28.75 -0.00403
28.8 -0.00436
28.85 -0.00431
28.9 -0.00377
28.95 -0.00441
29 -0.00493
29.05 -0.00499
29.1 -0.00613
29.15 -0.00843
29.2 -0.01049
29.25 -0.01366
29.3 -0.01604
29.35 -0.0186
29.4 -0.02182
29.45 -0.02606
29.5 -0.03098
29.55 -0.03675
29.6 -0.04385
29.65 -0.05198
29.7 -0.06029
29.75 -0.0699
29.8 -0.08109
29.85 -0.09369
29.9 -0.10833
29.95 -0.12421
30 -0.14216
30.05 -0.16013
30.1 -0.1797
30.15 -0.20059
30.2 -0.22364
30.25 -0.24839
30.3 -0.27379
30.35 -0.30056
30.4 -0.328
30.45 -0.35665
30.5 -0.3858
30.55 -0.41551
30.6 -0.44526
30.65 -0.47362
30.7 -0.50186
30.75 -0.52787
30.8 -0.55272
30.85 -0.57493
30.9 -0.5945
30.95 -0.6111
31 -0.62519
31.05 -0.63669
31.1 -0.64555
31.15 -0.65007
31.2 -0.6499
31.25 -0.64442
31.3 -0.63428
31.35 -0.62039
31.4 -0.6015
31.45 -0.57833
31.5 -0.55005
31.55 -0.51603
31.6 -0.47765
31.65 -0.43566
31.7 -0.39147
31.75 -0.34463
31.8 -0.29483
31.85 -0.24404
31.9 -0.19284
31.95 -0.14157
32 -0.08952
32.05 -0.03729
32.1 0.01355
32.15 0.06376
32.2 0.11256
32.25 0.16008
32.3 0.20427
32.35 0.24657
32.4 0.2866
32.45 0.32248
32.5 0.3554
32.55 0.38434
32.6 0.41085
32.65 0.43391
32.7 0.45473
32.75 0.47133
32.8 0.48494
32.85 0.49573
32.9 0.50374
32.95 0.51069
33 0.51535
33.05 0.51942
33.1 0.52143
33.15 0.52343
33.2 0.52345
33.25 0.52232
33.3 0.52007
33.35 0.51684
33.4 0.51368
33.45 0.51101
33.5 0.50728
33.55 0.50326
33.6 0.49885
33.65 0.49306
33.7 0.48717
33.75 0.47997
33.8 0.47159
33.85 0.46395
33.9 0.45676
33.95 0.4483
34 0.44022
34.05 0.43114
34.1 0.42132
34.15 0.41236
34.2 0.40311
34.25 0.39329
34.3 0.38325
34.35 0.3717
34.4 0.35971
34.45 0.3476
34.5 0.33654
34.55 0.32443
34.6 0.3119
34.65 0.30037
34.7 0.28826
34.75 0.27623
34.8 0.26477
34.85 0.25473
34.9 0.24433
34.95 0.23405
35 0.22479
35.05 0.21476
35.1 0.20545
35.15 0.19488
35.2 0.18432
35.25 0.1749
35.3 0.16538
35.35 0.1562
35.4 0.14694
35.45 0.13794
35.5 0.12842
35.55 0.11937
35.6 0.11153
35.65 0.10481
35.7 0.09797
35.75 0.09166
35.8 0.08396
35.85 0.07624
35.9 0.06972
35.95 0.06366
36 0.05664
36.05 0.05002
36.1 0.04312
36.15 0.03649
36.2 0.03015
36.25 0.02531
36.3 0.02085
36.35 0.01549
36.4 0.01034
36.45 0.00494
36.5 0.00045
36.55 -0.00296
36.6 -0.00712
36.65 -0.01016
36.7 -0.01302
36.75 -0.01552
36.8 -0.01942
36.85 -0.02302
36.9 -0.02578
36.95 -0.02827
37 -0.03036
37.05 -0.03266
37.1 -0.0358
37.15 -0.03859
37.2 -0.0414
37.25 -0.04325
37.3 -0.04464
37.35 -0.04594
37.4 -0.04847
37.45 -0.0507
37.5 -0.05294
37.55 -0.05503
37.6 -0.05618
37.65 -0.05816
37.7 -0.06061
37.75 -0.06289
37.8 -0.06406
37.85 -0.06615
37.9 -0.06748
37.95 -0.06777
38 -0.06756
38.05 -0.06688
38.1 -0.06609
38.15 -0.06531
38.2 -0.06623
38.25 -0.06796
38.3 -0.06962
38.35 -0.07136
38.4 -0.07204
38.45 -0.073
38.5 -0.07266
38.55 -0.07208
38.6 -0.07204
38.65 -0.07173
38.7 -0.07193
38.75 -0.07145
38.8 -0.06999
38.85 -0.06877
38.9 -0.06789
38.95 -0.06681
39 -0.06515
39.05 -0.06344
39.1 -0.06334
39.15 -0.06407
39.2 -0.0642
39.25 -0.0637
39.3 -0.06254
39.35 -0.0625
39.4 -0.06174
39.45 -0.06036
39.5 -0.05951
39.55 -0.05855
39.6 -0.05865
39.65 -0.05915
39.7 -0.0592
39.75 -0.06001
39.8 -0.05992
39.85 -0.06037
39.9 -0.05939
39.95 -0.05856
40 -0.05777
40.05 -0.05722
40.1 -0.05574
40.15 -0.05503
40.2 -0.05481
40.25 -0.05449
40.3 -0.05379
40.35 -0.05354
40.4 -0.05369
40.45 -0.05375
40.5 -0.05305
40.55 -0.05149
40.6 -0.04955
40.65 -0.04804
40.7 -0.04603
40.75 -0.04374
40.8 -0.04129
40.85 -0.04042
40.9 -0.0392
40.95 -0.03836
41 -0.03805
41.05 -0.03731
41.1 -0.03729
41.15 -0.03762
41.2 -0.03845
41.25 -0.03947
41.3 -0.0399
41.35 -0.04047
41.4 -0.04128
41.45 -0.04042
41.5 -0.03895
41.55 -0.03678
41.6 -0.03495
41.65 -0.0337
41.7 -0.03244
41.75 -0.0313
41.8 -0.03149
41.85 -0.0305
41.9 -0.02886
41.95 -0.02822
42 -0.02719
42.05 -0.02591
42.1 -0.02458
42.15 -0.02425
42.2 -0.02349
42.25 -0.02407
42.3 -0.02407
42.35 -0.02433
42.4 -0.02363
42.45 -0.02293
42.5 -0.02191
42.55 -0.02074
42.6 -0.02104
42.65 -0.02165
42.7 -0.02229
42.75 -0.02213
42.8 -0.02163
42.85 -0.02116
42.9 -0.02195
42.95 -0.02227
43 -0.02289
43.05 -0.02349
43.1 -0.02334
43.15 -0.02292
43.2 -0.02225
43.25 -0.02203
43.3 -0.02228
43.35 -0.02297
43.4 -0.0235
43.45 -0.02366
43.5 -0.02427
43.55 -0.02442
43.6 -0.023
43.65 -0.02075
43.7 -0.0188
43.75 -0.01735
43.8 -0.01717
43.85 -0.01769
43.9 -0.01762
43.95 -0.01741
44 -0.01629
44.05 -0.01515
44.1 -0.01382
44.15 -0.01373
44.2 -0.01371
44.25 -0.01328
44.3 -0.01308
44.35 -0.01286
44.4 -0.01298
44.45 -0.01365
44.5 -0.01375
44.55 -0.0139
44.6 -0.01439
44.65 -0.01373
44.7 -0.01321
44.75 -0.01347
44.8 -0.01336
44.85 -0.01383
44.9 -0.01376
44.95 -0.0141
45 -0.01351
45.05 -0.01256
45.1 -0.01263
45.15 -0.01172
45.2 -0.01024
45.25 -0.0095
45.3 -0.00863
45.35 -0.0089
45.4 -0.00826
45.45 -0.00742
45.5 -0.00795
45.55 -0.00858
45.6 -0.00923
45.65 -0.01047
45.7 -0.01206
45.75 -0.01196
45.8 -0.01073
45.85 -0.0096
45.9 -0.00956
45.95 -0.0097
46 -0.00927
46.05 -0.00818
46.1 -0.00698
46.15 -0.00726
46.2 -0.00666
46.25 -0.00637
46.3 -0.00576
46.35 -0.00607
46.4 -0.00569
46.45 -0.00634
46.5 -0.00686
46.55 -0.0064
46.6 -0.00718
46.65 -0.00762
46.7 -0.00841
46.75 -0.00836
46.8 -0.00775
46.85 -0.0082
46.9 -0.00787
46.95 -0.0076
47 -0.00799
47.05 -0.00766
47.1 -0.00634
47.15 -0.00628
47.2 -0.00625
47.25 -0.0054
47.3 -0.00392
47.35 -0.004
47.4 -0.00368
47.45 -0.00297
47.5 -0.00282
47.55 -0.00256
47.6 -0.00177
47.65 -0.00147
47.7 -0.00215
47.75 -0.00234
47.8 -0.0027
47.85 -0.00375
47.9 -0.00422
47.95 -0.00521
48 -0.00655
48.05 -0.00824
48.1 -0.00811
48.15 -0.00811
48.2 -0.00708
48.25 -0.0058
48.3 -0.00389
48.35 -0.0024
48.4 -0.0013
48.45 0.00004
48.5 0.0011
48.55 0.0009
48.6 0.00035
48.65 -0.00044
48.7 -0.00112
48.75 -0.00145
48.8 -0.00098
48.85 -0.00143
48.9 -0.00259
48.95 -0.00419
49 -0.00531
49.05 -0.0059
49.1 -0.00591
49.15 -0.00596
49.2 -0.00656
49.25 -0.00619
49.3 -0.00655
49.35 -0.00735
49.4 -0.00784
49.45 -0.00792
49.5 -0.00698
49.55 -0.00528
49.6 -0.00315
49.65 -0.00217
49.7 -0.00158
49.75 -0.00127
49.8 -0.00078
49.85 -0.00127
49.9 -0.00123
49.95 -0.00225
50 -0.00258
50.05 -0.00284
50.1 -0.00389
50.15 -0.00388
50.2 -0.00463
50.25 -0.00548
50.3 -0.00495
50.35 -0.00415
50.4 -0.00336
50.45 -0.00309
50.5 -0.00359
50.55 -0.00323
50.6 -0.00302
50.65 -0.00284
50.7 -0.00271
50.75 -0.00249
50.8 -0.00252
50.85 -0.00203
50.9 -0.00158
50.95 -0.00067
51 0.00023
51.05 0.00024
51.1 -0.00022
51.15 -0.00112
51.2 -0.00083
51.25 -0.00077
51.3 -0.00106
51.35 -0.00103
51.4 -0.00109
51.45 -0.00182
51.5 -0.00135
51.55 -0.00012
51.6 0.00025
51.65 -0.00016
51.7 -0.00097
51.75 -0.00203
51.8 -0.00199
51.85 -0.00157
51.9 -0.00107
51.95 -0.00171
52 -0.00307
52.05 -0.00475
52.1 -0.00626
52.15 -0.00704
52.2 -0.00627
52.25 -0.00601
52.3 -0.00481
52.35 -0.0037
52.4 -0.00312
52.45 -0.00305
52.5 -0.00355
52.55 -0.00344
52.6 -0.00219
52.65 -0.00183
52.7 -0.00162
52.75 -0.00202
52.8 -0.00305
52.85 -0.00363
52.9 -0.00287
52.95 -0.00292
53 -0.00327
53.05 -0.00308
53.1 -0.00183
53.15 -0.00147
53.2 -0.00213
53.25 -0.00244
53.3 -0.00216
53.35 -0.00209
53.4 -0.00201
53.45 -0.00209
53.5 -0.00114
53.55 -0.00109
53.6 -0.00094
53.65 -0.00143
53.7 -0.00184
53.75 -0.00264
53.8 -0.00263
53.85 -0.00215
53.9 -0.00175
53.95 -0.00149
54 -0.00064
54.05 0.00018
54.1 -0.00008
54.15 0.00013
54.2 -0.00068
54.25 -0.00077
54.3 -0.00041
54.35 0.00041
54.4 0.00025
54.45 -0.00027
54.5 -0.00049
54.55 -0.00068
54.6 -0.00014
54.65 0.0005
54.7 0.0014
54.75 0.00106
54.8 -0.0002
54.85 -0.00095
54.9 -0.0009
54.95 -0.00077
55 -0.00129
55.05 -0.00245
55.1 -0.00239
55.15 -0.00254
55.2 -0.00266
55.25 -0.00164
55.3 -0.00101
55.35 -0.00105
55.4 -0.00047
55.45 0.00048
55.5 0.00195
55.55 0.00305
55.6 0.00423
55.65 0.00502
55.7 0.00461
55.75 0.00296
55.8 0.00244
55.85 0.00173
55.9 0.00012
55.95 -0.00058
56 -0.00049
56.05 -0.00062
56.1 -0.00059
56.15 0.00002
56.2 0.00094
56.25 0.00209
56.3 0.00231
56.35 0.00281
56.4 0.00296
56.45 0.00311
56.5 0.00378
56.55 0.00373
56.6 0.00287
56.65 0.00197
56.7 0.00115
56.75 0.00077
56.8 -0.00059
56.85 -0.00173
56.9 -0.00202
56.95 -0.00279
57 -0.00223
57.05 -0.00087
57.1 -0.0005
57.15 0.00027
57.2 0.0001
57.25 -0.00003
57.3 0.00038
57.35 0.00028
57.4 0.00047
57.45 0.00094
57.5 0.00194
57.55 0.00298
57.6 0.00271
57.65 0.00231
57.7 0.00176
57.75 0.0006
57.8 0.00024
57.85 -0.00092
57.9 -0.00072
57.95 -0.00007
58 -0.00012
58.05 -0.00057
58.1 -0.00174
58.15 -0.00303
58.2 -0.00374
58.25 -0.00413
58.3 -0.00459
58.35 -0.00392
58.4 -0.00412
58.45 -0.0042
58.5 -0.00403
58.55 -0.00343
58.6 -0.00281
58.65 -0.00181
58.7 -0.00035
58.75 0.00081
58.8 0.00129
58.85 0.00221
58.9 0.00252
58.95 0.00156
59 0.00107
59.05 -0.00023
59.1 -0.00068
59.15 -0.00129
59.2 -0.00107
59.25 -0.00095
59.3 -0.00044
59.35 0.00088
59.4 0.00208
59.45 0.00186
59.5 0.00229
59.55 0.00251
59.6 0.00287
59.65 0.0022
59.7 0.00073
59.75 -0.00094
59.8 -0.00149
59.85 -0.00126
59.9 -0.00139
59.95 -0.00186
60 -0.0013
60.05 -0.0003
60.1 -0.00061
60.15 -0.00116
60.2 -0.0017
60.25 -0.00117
60.3 -0.00172
60.35 -0.00155
60.4 -0.00063
60.45 -0.00039
60.5 -0.00071
60.55 -0.00088
60.6 -0.00043
60.65 0.00074
60.7 0.00054
60.75 0.0008
60.8 0.00104
60.85 0.00146
60.9 0.00258
60.95 0.00242
61 0.00297
61.05 0.00235
61.1 0.00127
61.15 0.00119
61.2 0.00074
61.25 0.00121
61.3 0.00091
61.35 0.00095
61.4 0.00061
61.45 -0.00053
61.5 -0.00191
61.55 -0.00333
61.6 -0.0046
61.65 -0.00449
61.7 -0.00496
61.75 -0.00513
61.8 -0.0048
61.85 -0.00352
61.9 -0.00259
61.95 -0.00122
62 0.00003
62.05 0.00041
62.1 0.00127
62.15 0.00157
62.2 0.00102
62.25 0.00148
62.3 0.00081
62.35 -0.00002
62.4 0.00039
62.45 0.00053
62.5 0.00107
62.55 0.00126
62.6 0.00167
62.65 0.00244
62.7 0.00258
62.75 0.00244
62.8 0.00206
62.85 0.00248
62.9 0.00243
62.95 0.00194
63 0.00088
63.05 -0.00012
63.1 0.00008
63.15 -0.00001
63.2 -0.00096
63.25 -0.00157
63.3 -0.00256
63.35 -0.00285
63.4 -0.00298
63.45 -0.00381
63.5 -0.00349
63.55 -0.00245
63.6 -0.00082
63.65 0.00057
63.7 0.00158
63.75 0.00115
63.8 0.00047
63.85 -0.00069
63.9 -0.00201
63.95 -0.00181
64 -0.00254
64.05 -0.00182
64.1 -0.00201
64.15 -0.00256
64.2 -0.00233
64.25 -0.00231
64.3 -0.00288
64.35 -0.00365
64.4 -0.00308
64.45 -0.00266
64.5 -0.0018
64.55 -0.00133
64.6 -0.00149
64.65 -0.00045
64.7 -0.0004
64.75 0.00052
64.8 0.0002
64.85 0.00061
64.9 0.00154
64.95 0.00139
65 0.0003
65.05 -0.00001
65.1 -0.00111
65.15 -0.00105
65.2 -0.00153
65.25 -0.00211
65.3 -0.00148
65.35 -0.00086
65.4 0.00045
65.45 0.0017
65.5 0.00252
65.55 0.0033
65.6 0.00316
65.65 0.00379
65.7 0.00385
65.75 0.00416
65.8 0.0037
65.85 0.00375
65.9 0.00296
65.95 0.00131
66 -0.00062
66.05 -0.00153
66.1 -0.00108
66.15 -0.00136
66.2 -0.00213
66.25 -0.00189
66.3 -0.00083
66.35 -0.00073
66.4 -0.00035
66.45 0.00028
66.5 0.00104
66.55 0.00217
66.6 0.00339
66.65 0.00298
66.7 0.00272
66.75 0.00261
66.8 0.00203
66.85 0.00066
66.9 -0.00039
66.95 -0.00022
67 -0.00054
67.05 -0.0004
67.1 0.00032
67.15 0.00065
67.2 0.00008
67.25 -0.00052
67.3 -0.00107
67.35 -0.00192
67.4 -0.00186
67.45 -0.00252
67.5 -0.002
67.55 -0.00077
67.6 0.00071
67.65 0.00195
67.7 0.0023
67.75 0.00184
67.8 0.00186
67.85 0.00217
67.9 0.00248
67.95 0.00168
68 0.00175
68.05 0.00136
68.1 0.00127
68.15 0.00192
68.2 0.00136
68.25 0.00082
68.3 0.00132
68.35 0.00096
68.4 0.00061
68.45 -0.00039
68.5 -0.00189
68.55 -0.00179
68.6 -0.002
68.65 -0.0029
68.7 -0.00287
68.75 -0.00175
68.8 -0.00056
68.85 0.00013
68.9 0.00038
68.95 0.0014
69 0.00151
69.05 0.00129
69.1 0.00054
69.15 -0.00088
69.2 -0.00211
69.25 -0.00359
69.3 -0.00437
69.35 -0.00431
69.4 -0.00315
69.45 -0.002
69.5 -0.00155
69.55 -0.00204
69.6 -0.0023
69.65 -0.00307
69.7 -0.00285
69.75 -0.00198
69.8 -0.00105
69.85 -0.00127
69.9 -0.00165
69.95 -0.00145
70 -0.00193
70.05 -0.0026
70.1 -0.00262
70.15 -0.0022
70.2 -0.00259
70.25 -0.00297
70.3 -0.00325
70.35 -0.00282
70.4 -0.00213
70.45 -0.00073
70.5 0.00024
70.55 -0.00016
70.6 -0.00074
70.65 -0.00015
70.7 0.00007
70.75 -0.0001
70.8 -0.00017
70.85 0.00067
70.9 0.00143
70.95 0.00206
71 0.00168
71.05 0.002
71.1 0.00172
71.15 0.00059
71.2 0.00028
71.25 0.00102
71.3 0.00218
71.35 0.00272
71.4 0.00256
71.45 0.00197
71.5 0.00197
71.55 0.00109
71.6 0.00101
71.65 0.00062
71.7 -0.00056
71.75 -0.00171
71.8 -0.00305
71.85 -0.00299
71.9 -0.00255
71.95 -0.00176
72 -0.00049
72.05 0.00011
72.1 0.0002
72.15 -0.00042
72.2 -0.00156
72.25 -0.0017
72.3 -0.00148
72.35 -0.00154
72.4 -0.00052
72.45 -0.00041
72.5 -0.0009
72.55 -0.00151
72.6 -0.00134
72.65 -0.00018
72.7 0.00004
72.75 0.00033
72.8 0.00003
72.85 -0.0011
72.9 -0.00247
72.95 -0.00393
73 -0.00397
73.05 -0.00355
73.1 -0.00283
73.15 -0.00204
73.2 -0.00093
73.25 0.00075
73.3 0.00123
73.35 0.00223
73.4 0.00337
73.45 0.00436
73.5 0.00462
73.55 0.00502
73.6 0.00522
73.65 0.00485
73.7 0.00398
73.75 0.00364
73.8 0.00405
73.85 0.00443
73.9 0.004
73.95 0.00378
74 0.00296
74.05 0.00199
74.1 0.00077
74.15 0.00013
74.2 -0.00122
74.25 -0.00128
74.3 -0.0013
74.35 -0.00028
74.4 0.00031
74.45 0.00101
74.5 0.00222
74.55 0.00256
74.6 0.00345
74.65 0.00377
74.7 0.00389
74.75 0.0042
74.8 0.00472
74.85 0.00494
74.9 0.00402
74.95 0.00328
75 0.0016
75.05 -0.00026
75.1 -0.00183
75.15 -0.00336
75.2 -0.00478
75.25 -0.00554
75.3 -0.00543
75.35 -0.00521
75.4 -0.00566
75.45 -0.00533
75.5 -0.00416
75.55 -0.00358
75.6 -0.00197
75.65 -0.00121
75.7 -0.00115
75.75 -0.00173
75.8 -0.00175
75.85 -0.00132
75.9 -0.00179
75.95 -0.00107
76 -0.00042
76.05 -0.00017
76.1 0.00085
76.15 0.00186
76.2 0.00209
76.25 0.00243
76.3 0.00229
76.35 0.00103
76.4 -0.00046
76.45 -0.00169
76.5 -0.0024
76.55 -0.00281
76.6 -0.00356
76.65 -0.00371
76.7 -0.00326
76.75 -0.00208
76.8 -0.00114
76.85 -0.00047
76.9 0.00077
76.95 0.0023
77 0.003
77.05 0.00372
77.1 0.00419
77.15 0.00424
77.2 0.00455
77.25 0.00524
77.3 0.00461
77.35 0.00282
77.4 0.0006
77.45 -0.00075
77.5 -0.00176
77.55 -0.0023
77.6 -0.00207
77.65 -0.00189
77.7 -0.0013
77.75 -0.00094
77.8 -0.00044
77.85 -0.0002
77.9 0.00077
77.95 0.00103
78 0.00037
78.05 -0.00061
78.1 -0.00221
78.15 -0.0033
78.2 -0.00299
78.25 -0.00177
78.3 -0.00093
78.35 -0.00046
78.4 0.00076
78.45 0.00155
78.5 0.002
78.55 0.00107
78.6 -0.00053
78.65 -0.00058
78.7 -0.00069
78.75 -0.00066
78.8 -0.0007
78.85 -0.00142
78.9 -0.00108
78.95 0.00016
79 0.00053
79.05 0.00019
79.1 -0.00105
79.15 -0.00128
79.2 -0.00136
79.25 -0.00205
79.3 -0.00159
79.35 -0.00198
79.4 -0.00214
79.45 -0.00207
79.5 -0.00114
79.55 -0.00028
79.6 -0.00012
79.65 -0.00052
79.7 -0.00022
79.75 0.00003
79.8 -0.00072
79.85 -0.00167
79.9 -0.00265
79.95 -0.00229
80 -0.00123
80.05 -0.00003
80.1 -0.00019
80.15 -0.00017
80.2 0.00038
80.25 0.00145
80.3 0.00286
80.35 0.00369
80.4 0.00392
80.45 0.00442
80.5 0.00454
80.55 0.00491
80.6 0.00411
80.65 0.00245
80.7 0.0021
80.75 0.00173
80.8 0.00148
80.85 0.00042
80.9 0.00016
80.95 -0.00022
81 -0.00078
81.05 -0.00023
81.1 -0.00005
81.15 0.00007
81.2 0.00008
81.25 0.00089
81.3 0.00107
81.35 0.00177
81.4 0.00116
81.45 0.00011
81.5 -0.00095
81.55 -0.00194
81.6 -0.00169
81.65 -0.00173
81.7 -0.00264
81.75 -0.00288
81.8 -0.00225
81.85 -0.00076
81.9 0.00025
81.95 0.00139
82 0.00158
82.05 0.0008
82.1 0.00085
82.15 0.00006
82.2 -0.00126
82.25 -0.0026
82.3 -0.00366
82.35 -0.00384
82.4 -0.00326
82.45 -0.00336
82.5 -0.00285
82.55 -0.00139
82.6 0.00031
82.65 0.00215
82.7 0.004
82.75 0.00388
82.8 0.00249
82.85 0.00048
82.9 -0.00151
82.95 -0.00236
83 -0.00199
83.05 -0.0011
83.1 -0.00077
83.15 -0.00131
83.2 -0.0009
83.25 -0.00069
83.3 -0.00048
83.35 -0.00075
83.4 -0.00027
83.45 0.00046
83.5 0.0013
83.55 0.00125
83.6 0.0016
83.65 0.001
83.7 0.00052
83.75 -0.00086
83.8 -0.00207
83.85 -0.00345
83.9 -0.00347
83.95 -0.00256
84 -0.00126
84.05 0.00016
84.1 0.00008
84.15 0.00033
84.2 0.00046
84.25 0.00016
84.3 0.00078
84.35 0.00028
84.4 -0.00083
84.45 -0.00193
84.5 -0.00301
84.55 -0.00261
84.6 -0.00313
84.65 -0.00343
84.7 -0.00349
84.75 -0.0031
84.8 -0.00326
84.85 -0.00208
84.9 -0.00094
84.95 -0.0003
85 -0.00016
85.05 0.00093
85.1 0.00192
85.15 0.00177
85.2 0.00127
85.25 0.00094
85.3 -0.00032
85.35 -0.00156
85.4 -0.00163
85.45 -0.00219
85.5 -0.00168
85.55 -0.00063
85.6 -0.0002
85.65 0.00021
85.7 0.00034
85.75 0.00128
85.8 0.00087
85.85 0.0015
85.9 0.00157
85.95 0.0008
86 0.00076
86.05 -0.00027
86.1 0.00002
86.15 -0.00039
86.2 -0.00129
86.25 -0.00213
86.3 -0.00177
86.35 -0.00196
86.4 -0.00247
86.45 -0.00199
86.5 -0.00249
86.55 -0.00197
86.6 -0.00133
86.65 -0.00026
86.7 -0.0002
86.75 -0.00017
86.8 0.0004
86.85 0.00147
86.9 0.00139
86.95 0.00213
87 0.00199
87.05 0.0026
87.1 0.00338
87.15 0.00378
87.2 0.0034
87.25 0.00301
87.3 0.00159
87.35 0.00113
87.4 0.0009
87.45 0.00107
87.5 0.00093
87.55 0.00129
87.6 0.00148
87.65 0.00202
87.7 0.0026
87.75 0.00296
87.8 0.00329
87.85 0.00305
87.9 0.00341
87.95 0.00281
88 0.00201
88.05 0.00121
88.1 -0.00005
88.15 -0.00142
88.2 -0.00279
88.25 -0.00257
88.3 -0.00172
88.35 -0.00163
88.4 -0.00214
88.45 -0.00225
88.5 -0.00185
88.55 -0.00086
88.6 -0.00014
88.65 0.00117
88.7 0.00172
88.75 0.00268
88.8 0.00386
88.85 0.00492
88.9 0.00452
88.95 0.00342
89 0.00194
89.05 -0.00015
89.1 -0.00062
89.15 -0.00108
89.2 -0.00218
89.25 -0.00287
89.3 -0.00248
89.35 -0.0029
89.4 -0.00277
89.45 -0.00217
89.5 -0.00069
89.55 -0.00049
89.6 0.00062
89.65 0.0016
89.7 0.00232
89.75 0.00258
89.8 0.00314
89.85 0.00341
89.9 0.00271
89.95 0.00125
90 -0.00004
90.05 -0.00015
90.1 -0.00033
90.15 -0.00084
90.2 -0.00048
90.25 0.00008
90.3 0.00054
90.35 0.00015
90.4 0.00022
90.45 -0.00019
90.5 -0.00083
90.55 -0.00156
90.6 -0.0026
90.65 -0.00222
90.7 -0.00137
90.75 -0.00039
90.8 0.00004
90.85 -0.00068
90.9 -0.00072
90.95 0.00007
91 0.00088
91.05 0.00146
91.1 0.00251
91.15 0.00304
91.2 0.00317
91.25 0.00337
91.3 0.00274
91.35 0.00271
91.4 0.00182
91.45 0.00079
91.5 -0.00058
91.55 -0.00199
91.6 -0.00196
91.65 -0.00203
91.7 -0.00131
91.75 -0.00026
91.8 0.00101
91.85 0.0022
91.9 0.00224
91.95 0.002
92 0.00095
92.05 0.0011
92.1 0.00032
92.15 -0.00026
92.2 -0.00114
92.25 -0.001
92.3 -0.00036
92.35 0.00017
92.4 0.00091
92.45 0.00163
92.5 0.00166
92.55 0.00135
92.6 0.00174
92.65 0.00135
92.7 0.00125
92.75 0.00135
92.8 0.001
92.85 -0.00009
92.9 -0.00108
92.95 -0.00216
93 -0.00342
93.05 -0.00486
93.1 -0.00619
93.15 -0.00571
93.2 -0.00563
93.25 -0.00534
93.3 -0.00526
93.35 -0.00447
93.4 -0.0037
93.45 -0.00293
93.5 -0.0016
93.55 0.00013
93.6 0.00106
93.65 0.00107
93.7 0.0018
93.75 0.00186
93.8 0.00249
93.85 0.00351
93.9 0.0043
93.95 0.00373
94 0.00301
94.05 0.00292
94.1 0.00198
94.15 0.00065
94.2 -0.00122
94.25 -0.00255
94.3 -0.00408
94.35 -0.0049
94.4 -0.0048
94.45 -0.00359
94.5 -0.00269
94.55 -0.00145
94.6 -0.00075
94.65 -0.00001
94.7 0.00023
94.75 -0.00037
94.8 -0.00102
94.85 -0.00084
94.9 -0.00004
94.95 0.00021
95 0.00007
95.05 -0.00006
95.1 -0.00045
95.15 -0.00003
95.2 -0.00067
95.25 -0.00075
95.3 -0.00139
95.35 -0.00077
95.4 -0.00092
95.45 -0.0005
95.5 0.00049
95.55 0.00088
95.6 0.00104
95.65 0.00115
95.7 0.00146
95.75 0.00099
95.8 0.00095
95.85 0.00087
95.9 -0.00023
95.95 -0.00139
96 -0.00135
96.05 -0.0014
96.1 -0.00136
96.15 -0.0003
96.2 0.00105
96.25 0.00139
96.3 0.00204
96.35 0.00311
96.4 0.00273
96.45 0.00321
96.5 0.00387
96.55 0.003
96.6 0.00179
96.65 0.00123
96.7 0.00098
96.75 0.00026
96.8 -0.00063
96.85 -0.00118
96.9 -0.0012
96.95 -0.00155
97 -0.00227
97.05 -0.00202
97.1 -0.00099
97.15 -0.00068
97.2 -0.00035
97.25 -0.00038
97.3 0.00015
97.35 0.00004
97.4 -0.00058
97.45 -0.00039
97.5 0.00033
97.55 -0.00005
97.6 0.00039
97.65 0.00028
97.7 0.00043
97.75 0.00123
97.8 0.00257
97.85 0.00412
97.9 0.00398
97.95 0.00264
98 0.00207
98.05 0.00167
98.1 0.00131
98.15 0.00129
98.2 0.00012
98.25 -0.00042
98.3 -0.00006
98.35 -0.00011
98.4 0.00002
98.45 -0.00035
98.5 -0.00115
98.55 -0.00141
98.6 -0.00124
98.65 -0.00051
98.7 -0.00023
98.75 -0.00056
98.8 -0.0016
98.85 -0.00277
98.9 -0.00361
98.95 -0.00291
99 -0.00232
99.05 -0.0014
99.1 -0.00042
99.15 0.00019
99.2 0.00114
99.25 0.00074
99.3 0.00102
99.35 0.00052
99.4 0.00049
99.45 0.00135
99.5 0.00119
99.55 0.00036
99.6 0.00008
99.65 0.00011
99.7 -0.00025
99.75 -0.00018
99.8 -0.00093
99.85 -0.00069
99.9 -0.00136
99.95 -0.00235
