0 0
0.05 0.00039
0.1 0.00061
0.15 0.00113
0.2 0.00174
0.25 0.00209
0.3 0.00232
0.35 0.00281
0.4 0.00323
0.45 0.0033
0.5 0.00347
0.55 0.00335
0.6 0.00311
0.65 0.00315
0.7 0.00328
0.75 0.00322
0.8 0.00333
0.85 0.00334
0.9 0.00337
0.95 0.0033
1 0.00324
1.05 0.0033
1.1 0.00348
1.15 0.00323
1.2 0.00303
1.25 0.00288
1.3 0.00255
1.35 0.00236
1.4 0.00228
1.45 0.00212
1.5 0.00179
1.55 0.00158
1.6 0.00153
1.65 0.00131
1.7 0.00134
1.75 0.00114
1.8 0.00082
1.85 0.00056
1.9 0.00063
1.95 0.00061
2 0.00062
2.05 0.00062
2.1 0.00065
2.15 0.00084
2.2 0.00095
2.25 0.00097
2.3 0.00089
2.35 0.00094
2.4 0.00117
2.45 0.00127
2.5 0.0013
2.55 0.00121
2.6 0.00104
2.65 0.00118
2.7 0.00121
2.75 0.00109
2.8 0.00116
2.85 0.00145
2.9 0.00165
2.95 0.00177
3 0.00203
3.05 0.00199
3.1 0.00211
3.15 0.0019
3.2 0.00175
3.25 0.00165
3.3 0.00162
3.35 0.0015
3.4 0.00157
3.45 0.00163
3.5 0.00157
3.55 0.00156
3.6 0.00129
3.65 0.00136
3.7 0.00142
3.75 0.00136
3.8 0.00139
3.85 0.0013
3.9 0.00139
3.95 0.00166
4 0.00176
4.05 0.00162
4.1 0.00176
4.15 0.00192
4.2 0.00217
4.25 0.00244
4.3 0.00249
4.35 0.00238
4.4 0.00201
4.45 0.00154
4.5 0.00135
4.55 0.00116
4.6 0.00081
4.65 0.00045
4.7 0.00004
4.75 -0.00012
4.8 -0.00041
4.85 -0.00066
4.9 -0.00056
4.95 -0.00015
5 0.00032
5.05 0.00093
5.1 0.00154
5.15 0.00173
5.2 0.00161
5.25 0.0015
5.3 0.00143
5.35 0.00145
5.4 0.00122
5.45 0.00091
5.5 0.00043
5.55 0.00001
5.6 -0.00005
5.65 0.0001
5.7 0.00042
5.75 0.00057
5.8 0.00072
5.85 0.00087
5.9 0.00087
5.95 0.00101
6 0.00095
6.05 0.00105
6.1 0.00121
6.15 0.0013
6.2 0.00119
6.25 0.00111
6.3 0.00086
6.35 0.00081
6.4 0.00052
6.45 0.00036
6.5 0.00043
6.55 0.00073
6.6 0.0011
6.65 0.00116
6.7 0.00136
6.75 0.00165
6.8 0.0018
6.85 0.00157
6.9 0.0014
6.95 0.00106
7 0.00081
7.05 0.00068
7.1 0.0007
7.15 0.00083
7.2 0.00081
7.25 0.00069
7.3 0.00051
7.35 0.0006
7.4 0.00044
7.45 0.00048
7.5 0.00061
7.55 0.00087
7.6 0.00082
7.65 0.0005
7.7 0.00017
7.75 -0.00016
7.8 -0.00012
7.85 0.00015
7.9 0.00056
7.95 0.00095
8 0.00115
8.05 0.00116
8.1 0.00113
8.15 0.00096
8.2 0.00051
8.25 0.00005
8.3 -0.00039
8.35 -0.00074
8.4 -0.00068
8.45 -0.00046
8.5 -0.00027
8.55 0.00004
8.6 0.00013
8.65 0.00026
8.7 0.0003
8.75 0.00008
8.8 0.00009
8.85 0.00029
8.9 0.00016
8.95 0.00024
9 0.00038
9.05 0.00046
9.1 0.00023
9.15 -0.00016
9.2 -0.00065
9.25 -0.0011
9.3 -0.00146
9.35 -0.00159
9.4 -0.00146
9.45 -0.00113
9.5 -0.001
9.55 -0.00069
9.6 -0.00053
9.65 -0.00025
9.7 -0.00006
9.75 0.00015
9.8 0.00049
9.85 0.00054
9.9 0.00063
9.95 0.00041
10 0.0004
10.05 0.00032
10.1 0.00013
10.15 -0.00001
10.2 0.00011
10.25 -0.00008
10.3 0.00001
10.35 0.00023
10.4 0.00013
10.45 0.00028
10.5 0.00025
10.55 0.00037
10.6 0.0002
10.65 0.0003
10.7 0.00061
10.75 0.00055
10.8 0.00063
10.85 0.00051
10.9 0.0006
10.95 0.00061
11 0.00052
11.05 0.0004
11.1 0.00013
11.15 -0.00029
11.2 -0.00035
11.25 -0.00019
11.3 -0.00023
11.35 -0.00011
11.4 -0.00016
11.45 -0.00006
11.5 -0.00019
11.55 -0.00028
11.6 -0.00036
11.65 -0.0005
11.7 -0.00045
11.75 -0.0005
11.8 -0.00052
11.85 -0.00029
11.9 -0.00016
11.95 -0.0002
12 -0.0003
12.05 -0.00009
12.1 0.00027
12.15 0.00035
12.2 0.00061
12.25 0.00081
12.3 0.00095
12.35 0.00078
12.4 0.00052
12.45 0.0003
12.5 0.00034
12.55 0.00012
12.6 -0.00002
12.65 -0.00023
12.7 -0.00059
12.75 -0.00064
12.8 -0.00087
12.85 -0.00118
12.9 -0.00113
12.95 -0.00092
13 -0.00067
13.05 -0.00062
13.1 -0.00053
13.15 -0.00069
13.2 -0.00092
13.25 -0.00085
13.3 -0.00095
13.35 -0.00097
13.4 -0.00093
13.45 -0.00104
13.5 -0.00101
13.55 -0.00071
13.6 -0.00026
13.65 0.00002
13.7 0.00044
13.75 0.00076
13.8 0.00094
13.85 0.00084
13.9 0.00086
13.95 0.00076
14 0.0008
14.05 0.00074
14.1 0.00044
14.15 0.00042
14.2 0.00061
14.25 0.00085
14.3 0.00118
14.35 0.00121
14.4 0.00103
14.45 0.00085
14.5 0.00093
14.55 0.0011
14.6 0.00106
14.65 0.00089
14.7 0.00056
14.75 0.00036
14.8 -0.00001
14.85 -0.00047
14.9 -0.00075
14.95 -0.00081
15 -0.00064
15.05 -0.00043
15.1 -0.00023
15.15 0.00012
15.2 0.00056
15.25 0.00054
15.3 0.00033
15.35 -0.00001
15.4 -0.00028
15.45 -0.00062
15.5 -0.00091
15.55 -0.00107
15.6 -0.00104
15.65 -0.00072
15.7 -0.00037
15.75 -0.00022
15.8 0.00013
15.85 0.00025
15.9 0.00022
15.95 0.00018
16 0.00034
16.05 0.00015
16.1 0.00005
16.15 -0.00018
16.2 -0.00021
16.25 -0.00004
16.3 0.00029
16.35 0.00054
16.4 0.00076
16.45 0.00081
16.5 0.00087
16.55 0.00101
16.6 0.00126
16.65 0.0012
16.7 0.00107
16.75 0.001
16.8 0.00105
16.85 0.00095
16.9 0.00104
16.95 0.00114
17 0.00117
17.05 0.00105
17.1 0.00066
17.15 0.00019
17.2 0.00001
17.25 0
17.3 0.00009
17.35 -0.00003
17.4 -0.00027
17.45 -0.00016
17.5 -0.00037
17.55 -0.00053
17.6 -0.00071
17.65 -0.00093
17.7 -0.00107
17.75 -0.00086
17.8 -0.00055
17.85 -0.00006
17.9 0.00017
17.95 0.00024
18 0.00026
18.05 0.00031
18.1 0.00016
18.15 -0.00019
18.2 -0.00027
18.25 -0.0001
18.3 0.00011
18.35 0.00041
18.4 0.00078
18.45 0.00072
18.5 0.00063
18.55 0.00045
18.6 0.00048
18.65 0.0005
18.7 0.00031
18.75 0.00003
18.8 -0.00012
18.85 -0.00047
18.9 -0.00057
18.95 -0.00079
19 -0.0007
19.05 -0.00057
19.1 -0.00064
19.15 -0.00081
19.2 -0.00096
19.25 -0.00104
19.3 -0.00078
19.35 -0.00081
19.4 -0.00061
19.45 -0.00021
19.5 0.00006
19.55 0.00002
19.6 -0.00002
19.65 0.00001
19.7 0.00027
19.75 0.00043
19.8 0.00073
19.85 0.00062
19.9 0.00054
19.95 0.00055
20 0.00026
20.05 0.00003
20.1 0
20.15 -0.00014
20.2 -0.00028
20.25 -0.00046
20.3 -0.00081
20.35 -0.00077
20.4 -0.00094
20.45 -0.00079
20.5 -0.00048
20.55 -0.00046
20.6 -0.0003
20.65 -0.00034
20.7 -0.00039
20.75 -0.00041
20.8 -0.00016
20.85 -0.00026
20.9 -0.00049
20.95 -0.00036
21 -0.00009
21.05 0.00023
21.1 0.00025
21.15 0.00034
21.2 0.00022
21.25 -0.00015
21.3 -0.00061
21.35 -0.00103
21.4 -0.00135
21.45 -0.0016
21.5 -0.00176
21.55 -0.00183
21.6 -0.00177
21.65 -0.00171
21.7 -0.00169
21.75 -0.00128
21.8 -0.00091
21.85 -0.00081
21.9 -0.00062
21.95 -0.00028
22 0.00023
22.05 0.00046
22.1 0.00067
22.15 0.0009
22.2 0.00084
22.25 0.00075
22.3 0.0006
22.35 0.00037
22.4 0.00025
22.45 0.00029
22.5 0.00026
22.55 0.00006
22.6 -0.00023
22.65 -0.00027
22.7 -0.00032
22.75 -0.00011
22.8 0.00015
22.85 0.00057
22.9 0.00083
22.95 0.0007
23 0.00066
23.05 0.00076
23.1 0.00088
23.15 0.00075
23.2 0.00043
23.25 0.00002
23.3 -0.00005
23.35 0.00003
23.4 0.00029
23.45 0.00048
23.5 0.00072
23.55 0.00058
23.6 0.00036
23.65 0.00011
23.7 -0.00016
23.75 -0.00035
23.8 -0.0006
23.85 -0.00096
23.9 -0.00087
23.95 -0.00064
24 -0.00023
24.05 0.00022
24.1 0.00065
24.15 0.00091
24.2 0.00091
24.25 0.00058
24.3 0.0004
24.35 0
24.4 0.00001
24.45 -0.00015
24.5 -0.00008
24.55 -0.00002
24.6 -0.00018
24.65 -0.00014
24.7 -0.00002
24.75 -0.00008
24.8 -0.00036
24.85 -0.00035
24.9 -0.00059
24.95 -0.00072
25 -0.00056
25.05 -0.00045
25.1 -0.0005
25.15 -0.00059
25.2 -0.00048
25.25 -0.00063
25.3 -0.00073
25.35 -0.0005
25.4 -0.00058
25.45 -0.0005
25.5 -0.00046
25.55 -0.00051
25.6 -0.00055
25.65 -0.00061
25.7 -0.00056
25.75 -0.00044
25.8 -0.00015
25.85 0.00017
25.9 0.00042
25.95 0.0007
26 0.00081
26.05 0.00069
26.1 0.00044
26.15 0.00008
26.2 -0.00041
26.25 -0.00084
26.3 -0.00103
26.35 -0.00103
26.4 -0.00101
26.45 -0.00085
26.5 -0.00076
26.55 -0.0006
26.6 -0.0007
26.65 -0.00083
26.7 -0.00085
26.75 -0.00064
26.8 -0.00021
26.85 0.00026
26.9 0.00053
26.95 0.00043
27 0.00058
27.05 0.00065
27.1 0.00055
27.15 0.00069
27.2 0.00075
27.25 0.00063
27.3 0.00076
27.35 0.0009
27.4 0.00074
27.45 0.00084
27.5 0.00062
27.55 0.00059
27.6 0.0004
27.65 0.0001
27.7 -0
27.75 -0.00014
27.8 -0.00023
27.85 -0.00032
27.9 -0.00026
27.95 -0.00017
28 -0.00033
28.05 -0.00044
28.1 -0.00051
28.15 -0.00077
28.2 -0.00064
28.25 -0.00073
28.3 -0.00066
28.35 -0.00072
28.4 -0.00086
28.45 -0.00087
28.5 -0.00054
28.55 -0.00009
28.6 0.0004
28.65 0.0006
28.7 0.00053
28.75 0.00067
28.8 0.00047
28.85 0.00024
28.9 -0.00004
28.95 -0.00016
29 -0.00046
29.05 -0.00079
29.1 -0.00103
29.15 -0.00121
29.2 -0.00107
29.25 -0.00098
29.3 -0.00091
29.35 -0.00064
29.4 -0.00046
29.45 -0.00045
29.5 -0.00022
29.55 -0.0002
29.6 -0.00021
29.65 -0.00038
29.7 -0.00055
29.75 -0.00086
29.8 -0.00099
29.85 -0.00084
29.9 -0.00083
29.95 -0.00071
30 -0.00064
30.05 -0.00032
30.1 0.00019
30.15 0.00059
30.2 0.00064
30.25 0.00062
30.3 0.00068
30.35 0.00073
30.4 0.00074
30.45 0.00058
30.5 0.00067
30.55 0.00095
30.6 0.00085
30.65 0.00048
30.7 0.00049
30.75 0.00039
30.8 0.00031
30.85 0.00009
30.9 0.00003
30.95 -0.0001
31 -0.00032
31.05 -0.00064
31.1 -0.00058
31.15 -0.00068
31.2 -0.00086
31.25 -0.00091
31.3 -0.00102
31.35 -0.00088
31.4 -0.00054
31.45 -0.00018
31.5 -0.00018
31.55 -0.00025
31.6 -0.00043
31.65 -0.00063
31.7 -0.0007
31.75 -0.00058
31.8 -0.00066
31.85 -0.00064
31.9 -0.0003
31.95 -0.00012
32 -0.00011
32.05 -0.00024
32.1 -0.00046
32.15 -0.00029
32.2 0.00004
32.25 0.00001
32.3 -0
32.35 0.00015
32.4 0.00019
32.45 0.00004
32.5 -0.00031
32.55 -0.00057
32.6 -0.00064
32.65 -0.00064
32.7 -0.0004
32.75 -0.00041
32.8 -0.00047
32.85 -0.00071
32.9 -0.00102
32.95 -0.00093
33 -0.00077
33.05 -0.00031
33.1 0.00015
33.15 0.00049
33.2 0.00066
33.25 0.00072
33.3 0.00087
33.35 0.00116
33.4 0.00135
33.45 0.0013
33.5 0.00099
33.55 0.00095
33.6 0.00064
33.65 0.00047
33.7 0.00052
33.75 0.00062
33.8 0.00084
33.85 0.00067
33.9 0.00035
33.95 0.00038
34 0.00058
34.05 0.00076
34.1 0.00099
34.15 0.0013
34.2 0.00126
34.25 0.00133
34.3 0.00101
34.35 0.00098
34.4 0.00079
34.45 0.0008
34.5 0.00076
34.55 0.00056
34.6 0.00052
34.65 0.00061
34.7 0.00034
34.75 0.00035
34.8 0.00036
34.85 0.00014
34.9 -0.0002
34.95 -0.00057
35 -0.00063
35.05 -0.0008
35.1 -0.00088
35.15 -0.00085
35.2 -0.00103
35.25 -0.00114
35.3 -0.00131
35.35 -0.00151
35.4 -0.00158
35.45 -0.00166
35.5 -0.00173
35.55 -0.00174
35.6 -0.00144
35.65 -0.00126
35.7 -0.00083
35.75 -0.00037
35.8 0.00007
35.85 0.00015
35.9 0.0003
35.95 0.00049
36 0.00058
36.05 0.00037
36.1 0.00042
36.15 0.00043
36.2 0.00019
36.25 0.00012
36.3 0.0002
36.35 0.00051
36.4 0.00052
36.45 0.00022
36.5 -0.00021
36.55 -0.00019
36.6 0.00005
36.65 0.00035
36.7 0.00078
36.75 0.00119
36.8 0.00138
36.85 0.00146
36.9 0.00125
36.95 0.00088
37 0.00079
37.05 0.0005
37.1 0.00018
37.15 -0.00007
37.2 -0.00045
37.25 -0.00066
37.3 -0.00054
37.35 -0.00044
37.4 -0.00046
37.45 -0.0002
37.5 0.00001
37.55 0.00018
37.6 0.00047
37.65 0.00062
37.7 0.00075
37.75 0.00104
37.8 0.00091
37.85 0.00071
37.9 0.00065
37.95 0.00029
38 -0
38.05 -0.00011
38.1 0.00007
38.15 0.00019
38.2 0.00015
38.25 -0.00011
38.3 -0.00036
38.35 -0.00031
38.4 -0.00021
38.45 0.00004
38.5 0.00022
38.55 0.00013
38.6 -0.00013
38.65 -0.00025
38.7 -0.00057
38.75 -0.00084
38.8 -0.00122
38.85 -0.00137
38.9 -0.00151
38.95 -0.00145
39 -0.00148
39.05 -0.00154
39.1 -0.0013
39.15 -0.00091
39.2 -0.00062
39.25 -0.00071
39.3 -0.00112
39.35 -0.0015
39.4 -0.00181
39.45 -0.00226
39.5 -0.00281
39.55 -0.00316
39.6 -0.00346
39.65 -0.00393
39.7 -0.00476
39.75 -0.00577
39.8 -0.00676
39.85 -0.00785
39.9 -0.00922
39.95 -0.01041
40 -0.01172
40.05 -0.01345
40.1 -0.01523
40.15 -0.01689
40.2 -0.01887
40.25 -0.02113
40.3 -0.02381
40.35 -0.02654
40.4 -0.02954
40.45 -0.03292
40.5 -0.03656
40.55 -0.04041
40.6 -0.04435
40.65 -0.0482
40.7 -0.05217
40.75 -0.05635
40.8 -0.06105
40.85 -0.066
40.9 -0.07119
40.95 -0.07606
41 -0.08071
41.05 -0.08521
41.1 -0.08987
41.15 -0.09459
41.2 -0.0991
41.25 -0.10339
41.3 -0.10741
41.35 -0.11122
41.4 -0.11479
41.45 -0.11808
41.5 -0.1211
41.55 -0.12366
41.6 -0.12609
41.65 -0.12836
41.7 -0.13
41.75 -0.13133
41.8 -0.13195
41.85 -0.13217
41.9 -0.13192
41.95 -0.1313
42 -0.12998
42.05 -0.12799
42.1 -0.12538
42.15 -0.12223
42.2 -0.11849
42.25 -0.11446
42.3 -0.10973
42.35 -0.10424
42.4 -0.0983
42.45 -0.09193
42.5 -0.08487
42.55 -0.07731
42.6 -0.069
42.65 -0.06019
42.7 -0.05102
42.75 -0.04137
42.8 -0.03088
42.85 -0.02002
42.9 -0.00904
42.95 0.00226
43 0.01356
43.05 0.02493
43.1 0.03658
43.15 0.04857
43.2 0.06049
43.25 0.07195
43.3 0.08294
43.35 0.09365
43.4 0.10379
43.45 0.11345
43.5 0.12242
43.55 0.13083
43.6 0.13864
43.65 0.14551
43.7 0.15141
43.75 0.15632
43.8 0.16029
43.85 0.16343
43.9 0.16593
43.95 0.16745
44 0.16836
44.05 0.16841
44.1 0.1678
44.15 0.16681
44.2 0.1651
44.25 0.16272
44.3 0.16004
44.35 0.15656
44.4 0.1528
44.45 0.1487
44.5 0.1442
44.55 0.13961
44.6 0.13476
44.65 0.12979
44.7 0.12479
44.75 0.1197
44.8 0.11495
44.85 0.11037
44.9 0.1059
44.95 0.10143
45 0.09688
45.05 0.09233
45.1 0.08791
45.15 0.08351
45.2 0.07952
45.25 0.07575
45.3 0.07203
45.35 0.06845
45.4 0.06527
45.45 0.06248
45.5 0.05961
45.55 0.05672
45.6 0.05402
45.65 0.0515
45.7 0.04904
45.75 0.04678
45.8 0.04463
45.85 0.04261
45.9 0.04045
45.95 0.038
46 0.03597
46.05 0.03409
46.1 0.03213
46.15 0.03014
46.2 0.02828
46.25 0.02637
46.3 0.02467
46.35 0.0229
46.4 0.02122
46.45 0.01947
46.5 0.01774
46.55 0.01586
46.6 0.01437
46.65 0.01276
46.7 0.01113
46.75 0.00965
46.8 0.00816
46.85 0.00668
46.9 0.00538
46.95 0.00402
47 0.00291
47.05 0.00166
47.1 0.00072
47.15 -0.00039
47.2 -0.00114
47.25 -0.00168
47.3 -0.00252
47.35 -0.00352
47.4 -0.00451
47.45 -0.00539
47.5 -0.0061
47.55 -0.00669
47.6 -0.00711
47.65 -0.00759
47.7 -0.00815
47.75 -0.00905
47.8 -0.00993
47.85 -0.01084
47.9 -0.01168
47.95 -0.01233
48 -0.01297
48.05 -0.0135
48.1 -0.01381
48.15 -0.01423
48.2 -0.01434
48.25 -0.0147
48.3 -0.01521
48.35 -0.01574
48.4 -0.01623
48.45 -0.01669
48.5 -0.0168
48.55 -0.01695
48.6 -0.01688
48.65 -0.01704
48.7 -0.01712
48.75 -0.01729
48.8 -0.01724
48.85 -0.017
48.9 -0.01662
48.95 -0.01669
49 -0.01671
49.05 -0.01678
49.1 -0.01688
49.15 -0.01673
49.2 -0.01674
49.25 -0.01706
49.3 -0.01751
49.35 -0.01773
49.4 -0.01787
49.45 -0.018
49.5 -0.01811
49.55 -0.01816
49.6 -0.01832
49.65 -0.0182
49.7 -0.01806
49.75 -0.01797
49.8 -0.01752
49.85 -0.01726
49.9 -0.01676
49.95 -0.0163
50 -0.01612
50.05 -0.01613
50.1 -0.01587
50.15 -0.01567
50.2 -0.01535
50.25 -0.01538
50.3 -0.01561
50.35 -0.01591
50.4 -0.01608
50.45 -0.01627
50.5 -0.01619
50.55 -0.01579
50.6 -0.0155
50.65 -0.01541
50.7 -0.01507
50.75 -0.01454
50.8 -0.01431
50.85 -0.01417
50.9 -0.01405
50.95 -0.01359
51 -0.01305
51.05 -0.01236
51.1 -0.01202
51.15 -0.012
51.2 -0.0122
51.25 -0.01214
51.3 -0.01187
51.35 -0.01173
51.4 -0.01156
51.45 -0.01163
51.5 -0.01154
51.55 -0.0116
51.6 -0.01178
51.65 -0.01151
51.7 -0.01149
51.75 -0.01159
51.8 -0.01151
51.85 -0.01111
51.9 -0.01082
51.95 -0.0107
52 -0.01046
52.05 -0.01033
52.1 -0.01024
52.15 -0.00986
52.2 -0.00976
52.25 -0.00981
52.3 -0.00994
52.35 -0.00969
52.4 -0.00929
52.45 -0.00912
52.5 -0.00876
52.55 -0.00843
52.6 -0.00795
52.65 -0.00756
52.7 -0.00716
52.75 -0.00716
52.8 -0.00726
52.85 -0.00738
52.9 -0.00739
52.95 -0.00745
53 -0.00737
53.05 -0.00707
53.1 -0.00708
53.15 -0.00717
53.2 -0.00728
53.25 -0.00703
53.3 -0.00657
53.35 -0.00624
53.4 -0.00583
53.45 -0.00575
53.5 -0.00545
53.55 -0.00535
53.6 -0.00507
53.65 -0.00498
53.7 -0.00487
53.75 -0.00482
53.8 -0.00506
53.85 -0.00518
53.9 -0.00523
53.95 -0.00501
54 -0.00492
54.05 -0.00471
54.1 -0.00441
54.15 -0.00401
54.2 -0.00402
54.25 -0.00415
54.3 -0.00412
54.35 -0.00407
54.4 -0.0043
54.45 -0.00422
54.5 -0.0043
54.55 -0.00452
54.6 -0.00464
54.65 -0.00461
54.7 -0.00429
54.75 -0.00397
54.8 -0.00371
54.85 -0.00346
54.9 -0.00306
54.95 -0.00264
55 -0.00223
55.05 -0.00194
55.1 -0.00182
55.15 -0.00176
55.2 -0.00208
55.25 -0.00231
55.3 -0.00243
55.35 -0.00249
55.4 -0.00274
55.45 -0.00283
55.5 -0.00316
55.55 -0.00363
55.6 -0.00373
55.65 -0.00381
55.7 -0.00359
55.75 -0.00328
55.8 -0.00281
55.85 -0.00231
55.9 -0.00213
55.95 -0.00221
56 -0.00236
56.05 -0.00224
56.1 -0.00237
56.15 -0.00247
56.2 -0.00276
56.25 -0.00299
56.3 -0.00305
56.35 -0.00281
56.4 -0.0024
56.45 -0.00218
56.5 -0.00231
56.55 -0.00266
56.6 -0.00308
56.65 -0.00322
56.7 -0.00348
56.75 -0.00337
56.8 -0.0032
56.85 -0.0032
56.9 -0.00328
56.95 -0.00331
57 -0.00335
57.05 -0.00349
57.1 -0.00328
57.15 -0.00306
57.2 -0.00276
57.25 -0.00231
57.3 -0.00203
57.35 -0.00175
57.4 -0.0013
57.45 -0.00095
57.5 -0.00068
57.55 -0.0007
57.6 -0.00105
57.65 -0.00125
57.7 -0.00139
57.75 -0.00143
57.8 -0.00136
57.85 -0.00135
57.9 -0.00146
57.95 -0.00177
58 -0.00196
58.05 -0.00229
58.1 -0.00268
58.15 -0.00291
58.2 -0.00317
58.25 -0.0033
58.3 -0.00325
58.35 -0.00316
58.4 -0.00302
58.45 -0.00252
58.5 -0.00217
58.55 -0.00173
58.6 -0.00137
58.65 -0.00115
58.7 -0.00116
58.75 -0.00092
58.8 -0.0009
58.85 -0.00085
58.9 -0.0009
58.95 -0.00098
59 -0.00117
59.05 -0.00154
59.1 -0.0016
59.15 -0.00177
59.2 -0.00198
59.25 -0.00206
59.3 -0.00223
59.35 -0.00244
59.4 -0.00265
59.45 -0.00283
59.5 -0.00283
59.55 -0.00264
59.6 -0.00208
59.65 -0.00159
59.7 -0.00134
59.75 -0.00121
59.8 -0.00117
59.85 -0.00136
59.9 -0.00148
59.95 -0.00142
60 -0.00126
60.05 -0.00097
60.1 -0.00069
60.15 -0.00056
60.2 -0.00034
60.25 0.00006
60.3 0.00041
60.35 0.00053
60.4 0.0008
60.45 0.00108
60.5 0.0014
60.55 0.00162
60.6 0.00183
60.65 0.00203
60.7 0.00219
60.75 0.00214
60.8 0.00168
60.85 0.00103
60.9 0.00045
60.95 0.00011
61 0.0001
61.05 0.00004
61.1 -0.00019
61.15 -0.00038
61.2 -0.00057
61.25 -0.00085
61.3 -0.00112
61.35 -0.00134
61.4 -0.00152
61.45 -0.00139
61.5 -0.00111
61.55 -0.00109
61.6 -0.00093
61.65 -0.00103
61.7 -0.00129
61.75 -0.00137
61.8 -0.00155
61.85 -0.00176
61.9 -0.0018
61.95 -0.00194
62 -0.00216
62.05 -0.00228
62.1 -0.00208
62.15 -0.00158
62.2 -0.00118
62.25 -0.00061
62.3 -0.00009
62.35 0.00038
62.4 0.00076
62.45 0.00083
62.5 0.00066
62.55 0.0005
62.6 0.00009
62.65 0.00002
62.7 0.00022
62.75 0.00029
62.8 0.00048
62.85 0.00054
62.9 0.00033
62.95 0.00004
63 -0.00043
63.05 -0.00083
63.1 -0.00088
63.15 -0.00084
63.2 -0.00051
63.25 -0.00023
63.3 -0.00005
63.35 -0.00018
63.4 -0.00021
63.45 -0.00043
63.5 -0.00063
63.55 -0.00045
63.6 -0.00053
63.65 -0.00077
63.7 -0.00097
63.75 -0.00097
63.8 -0.00104
63.85 -0.00127
63.9 -0.00133
63.95 -0.00118
64 -0.00118
64.05 -0.00113
64.1 -0.00092
64.15 -0.00086
64.2 -0.0008
64.25 -0.00044
64.3 0.00007
64.35 0.00052
64.4 0.00088
64.45 0.00093
64.5 0.00098
64.55 0.00068
64.6 0.00053
64.65 0.00057
64.7 0.00029
64.75 -0.0001
64.8 -0.00007
64.85 0.0002
64.9 0.00027
64.95 0.00022
65 0.00032
65.05 0.00061
65.1 0.00067
65.15 0.00038
65.2 0.00005
65.25 -0.00005
65.3 -0.00013
65.35 -0.00021
65.4 -0.00023
65.45 -0.00048
65.5 -0.00072
65.55 -0.0007
65.6 -0.00044
65.65 -0.00004
65.7 -0.00004
65.75 0
65.8 -0.00002
65.85 -0.00003
65.9 0.00006
65.95 0.0002
66 0.00048
66.05 0.0007
66.1 0.00089
66.15 0.00096
66.2 0.0011
66.25 0.0009
66.3 0.00067
66.35 0.0002
66.4 -0.00035
66.45 -0.00073
66.5 -0.00106
66.55 -0.00125
66.6 -0.00143
66.65 -0.00168
66.7 -0.00191
66.75 -0.00214
66.8 -0.0019
66.85 -0.0016
66.9 -0.00128
66.95 -0.00098
67 -0.00053
67.05 -0.00018
67.1 0.00029
67.15 0.00082
67.2 0.00089
67.25 0.00062
67.3 0.00016
67.35 -0.00018
67.4 -0.00035
67.45 -0.00045
67.5 -0.00022
67.55 0.0001
67.6 0.00035
67.65 0.00042
67.7 0.00048
67.75 0.00055
67.8 0.0006
67.85 0.00034
67.9 0.00041
67.95 0.00052
68 0.00056
68.05 0.00036
68.1 0.0002
68.15 -0.00003
68.2 -0.00041
68.25 -0.00074
68.3 -0.00085
68.35 -0.00108
68.4 -0.00108
68.45 -0.00108
68.5 -0.00075
68.55 -0.00033
68.6 0.00007
68.65 0.00018
68.7 0.00031
68.75 0.00056
68.8 0.00067
68.85 0.00059
68.9 0.00077
68.95 0.00089
69 0.00097
69.05 0.00111
69.1 0.00109
69.15 0.00081
69.2 0.00036
69.25 -0.00007
69.3 -0.00037
69.35 -0.00034
69.4 -0.00049
69.45 -0.00069
69.5 -0.00092
69.55 -0.0009
69.6 -0.0008
69.65 -0.00069
69.7 -0.00076
69.75 -0.00096
69.8 -0.00076
69.85 -0.00074
69.9 -0.00087
69.95 -0.00106
70 -0.0012
70.05 -0.00129
70.1 -0.00137
70.15 -0.00117
70.2 -0.0011
70.25 -0.00099
70.3 -0.0006
70.35 -0.00052
70.4 -0.00039
70.45 -0.00011
70.5 -0.00009
70.55 -0.00002
70.6 -0.00005
70.65 -0.00015
70.7 -0.00032
70.75 -0.00038
70.8 -0.00013
70.85 0.00006
70.9 0.00007
70.95 0.00019
71 0.00035
71.05 0.00054
71.1 0.00059
71.15 0.00084
71.2 0.00111
71.25 0.00126
71.3 0.00152
71.35 0.00158
71.4 0.00123
71.45 0.00108
71.5 0.00116
71.55 0.0013
71.6 0.00129
71.65 0.00124
71.7 0.00137
71.75 0.00157
71.8 0.00131
71.85 0.00082
71.9 0.00052
71.95 0.00051
72 0.00069
72.05 0.00092
72.1 0.0011
72.15 0.00111
72.2 0.00118
72.25 0.00132
72.3 0.00139
72.35 0.00142
72.4 0.00111
72.45 0.00103
72.5 0.00106
72.55 0.00117
72.6 0.0009
72.65 0.00037
72.7 0.00019
72.75 0.0002
72.8 -0.00001
72.85 -0.00021
72.9 -0.00008
72.95 -0.00005
73 -0.00018
73.05 -0.00002
73.1 0.00011
73.15 0.00033
73.2 0.00044
73.25 0.00064
73.3 0.00071
73.35 0.0005
73.4 0.00021
73.45 0.00017
73.5 0.00008
73.55 -0.00005
73.6 0.00005
73.65 0.00001
73.7 0.00001
73.75 0.00005
73.8 0.00023
73.85 0.00036
73.9 0.00056
73.95 0.00055
74 0.00023
74.05 -0.00023
74.1 -0.00071
74.15 -0.00124
74.2 -0.00136
74.25 -0.00141
74.3 -0.00156
74.35 -0.00136
74.4 -0.00112
74.45 -0.00071
74.5 -0.00016
74.55 -0
74.6 -0.00012
74.65 0.00001
74.7 0.00008
74.75 0.00024
74.8 0.00042
74.85 0.00039
74.9 0.00011
74.95 0.00003
75 0.00003
75.05 -0.00016
75.1 -0.00035
75.15 -0.00058
75.2 -0.00066
75.25 -0.00048
75.3 -0.00012
75.35 -0.00013
75.4 0.00001
75.45 -0.00015
75.5 -0.00029
75.55 -0.00046
75.6 -0.00075
75.65 -0.00096
75.7 -0.0008
75.75 -0.00053
75.8 -0.00029
75.85 -0.00029
75.9 -0.00008
75.95 -0.00007
76 -0.00032
76.05 -0.00029
76.1 -0.00032
76.15 -0.00053
76.2 -0.00067
76.25 -0.00047
76.3 -0.00039
76.35 -0.00033
76.4 -0.00013
76.45 0.00024
76.5 0.00063
76.55 0.00102
76.6 0.00129
76.65 0.00126
76.7 0.00113
76.75 0.00102
76.8 0.0011
76.85 0.00128
76.9 0.0012
76.95 0.00081
77 0.00039
77.05 0.00004
77.1 -0.00044
77.15 -0.00093
77.2 -0.00097
77.25 -0.00118
77.3 -0.00131
77.35 -0.00139
77.4 -0.00161
77.45 -0.00159
77.5 -0.00122
77.55 -0.00087
77.6 -0.00058
77.65 -0.00043
77.7 -0.00022
77.75 0.00014
77.8 0.00023
77.85 0.00036
77.9 0.00024
77.95 -0.00007
78 -0.00012
78.05 0.00003
78.1 0.00005
78.15 0.00009
78.2 0.00007
78.25 0.00026
78.3 0.00033
78.35 0.0003
78.4 0.00045
78.45 0.00032
78.5 -0.00004
78.55 -0.00004
78.6 0.00021
78.65 0.0003
78.7 0.00044
78.75 0.00034
78.8 0.00029
78.85 -0.00002
78.9 -0.00027
78.95 -0.00029
79 -0.00003
79.05 0.00024
79.1 0.00035
79.15 0.00013
79.2 -0.00023
79.25 -0.00069
79.3 -0.00104
79.35 -0.0012
79.4 -0.00116
79.45 -0.00127
79.5 -0.00147
79.55 -0.00174
79.6 -0.00153
79.65 -0.00105
79.7 -0.00066
79.75 -0.00028
79.8 -0.00027
79.85 -0.00048
79.9 -0.0007
79.95 -0.00076
80 -0.00078
80.05 -0.00099
80.1 -0.00107
80.15 -0.00109
80.2 -0.00121
80.25 -0.00091
80.3 -0.00083
80.35 -0.00084
80.4 -0.00069
80.45 -0.00038
80.5 0.0001
80.55 0.00056
80.6 0.00072
80.65 0.00083
80.7 0.00076
80.75 0.00052
80.8 0.0003
80.85 0.00019
80.9 0.00026
80.95 0.00035
81 0.00042
81.05 0.00027
81.1 0.00031
81.15 0.00022
81.2 -0.00007
81.25 -0.0005
81.3 -0.00097
81.35 -0.00093
81.4 -0.00102
81.45 -0.00075
81.5 -0.00055
81.55 -0.00023
81.6 -0.0001
81.65 -0.00023
81.7 -0.00021
81.75 -0.0004
81.8 -0.00062
81.85 -0.00064
81.9 -0.00076
81.95 -0.00089
82 -0.00088
82.05 -0.00054
82.1 -0.00031
82.15 -0.00032
82.2 -0.00045
82.25 -0.00074
82.3 -0.00104
82.35 -0.00091
82.4 -0.00077
82.45 -0.00053
82.5 -0.00044
82.55 -0.00029
82.6 -0.00011
82.65 0.00018
82.7 0.00057
82.75 0.00072
82.8 0.00102
82.85 0.0013
82.9 0.00123
82.95 0.00131
83 0.00105
83.05 0.00053
83.1 0.00012
83.15 -0.00013
83.2 -0.00004
83.25 0.00015
83.3 0.00048
83.35 0.00077
83.4 0.00083
83.45 0.00088
83.5 0.00082
83.55 0.00089
83.6 0.00104
83.65 0.00098
83.7 0.00087
83.75 0.00082
83.8 0.00088
83.85 0.00098
83.9 0.00115
83.95 0.00125
84 0.00094
84.05 0.00041
84.1 0.00021
84.15 -0.00017
84.2 -0.00052
84.25 -0.00076
84.3 -0.00111
84.35 -0.00108
84.4 -0.00073
84.45 -0.00043
84.5 0.00001
84.55 0.00014
84.6 -0.00002
84.65 -0.00028
84.7 -0.00064
84.75 -0.00098
84.8 -0.00131
84.85 -0.00135
84.9 -0.00126
84.95 -0.00105
85 -0.00064
85.05 -0.00056
85.1 -0.00057
85.15 -0.00045
85.2 -0.00012
85.25 0.00037
85.3 0.00066
85.35 0.00084
85.4 0.00088
85.45 0.00064
85.5 0.00029
85.55 0.00029
85.6 0.0004
85.65 0.00026
85.7 0.00035
85.75 0.00041
85.8 0.00063
85.85 0.00093
85.9 0.00106
85.95 0.00094
86 0.00068
86.05 0.00042
86.1 0.00021
86.15 -0.00018
86.2 -0.00015
86.25 0.00008
86.3 0.00038
86.35 0.00048
86.4 0.0007
86.45 0.00102
86.5 0.00117
86.55 0.00119
86.6 0.00092
86.65 0.00052
86.7 0.00045
86.75 0.00012
86.8 -0.00031
86.85 -0.0003
86.9 -0.00034
86.95 -0.00052
87 -0.00081
87.05 -0.00088
87.1 -0.00096
87.15 -0.00076
87.2 -0.00049
87.25 -0.00025
87.3 -0.00001
87.35 0.00017
87.4 0.00043
87.45 0.0006
87.5 0.00045
87.55 0.00031
87.6 -0.00001
87.65 -0.00047
87.7 -0.00063
87.75 -0.00084
87.8 -0.0011
87.85 -0.00136
87.9 -0.00158
87.95 -0.00142
88 -0.00123
88.05 -0.00099
88.1 -0.00072
88.15 -0.00073
88.2 -0.00072
88.25 -0.00078
88.3 -0.00053
88.35 -0.00032
88.4 -0.00039
88.45 -0.00019
88.5 -0.00003
88.55 0.00025
88.6 0.00037
88.65 0.00062
88.7 0.0005
88.75 0.00037
88.8 0.00034
88.85 0.00043
88.9 0.00032
88.95 0.00021
89 0.00011
89.05 -0.00003
89.1 -0.00038
89.15 -0.00031
89.2 -0.00043
89.25 -0.00029
89.3 0.00003
89.35 0.00025
89.4 0.00048
89.45 0.00065
89.5 0.00084
89.55 0.00115
89.6 0.00125
89.65 0.00119
89.7 0.00103
89.75 0.0008
89.8 0.00053
89.85 0.00017
89.9 -0.00003
89.95 -0.00037
90 -0.00061
90.05 -0.00062
90.1 -0.00067
90.15 -0.00043
90.2 -0.00002
90.25 0.0005
90.3 0.00075
90.35 0.00092
90.4 0.001
90.45 0.00093
90.5 0.00092
90.55 0.00083
90.6 0.00067
90.65 0.00047
90.7 0.00012
90.75 -0.00003
90.8 -0.00033
90.85 -0.00064
90.9 -0.0008
90.95 -0.00065
91 -0.00037
91.05 0.00006
91.1 0.00029
91.15 0.00043
91.2 0.0002
91.25 0.00013
91.3 0.00027
91.35 0.00037
91.4 0.00051
91.45 0.00077
91.5 0.00083
91.55 0.00095
91.6 0.00086
91.65 0.00077
91.7 0.00069
91.75 0.00054
91.8 0.00053
91.85 0.0007
91.9 0.00075
91.95 0.0007
92 0.00051
92.05 0.00057
92.1 0.00047
92.15 0.00056
92.2 0.00069
92.25 0.00089
92.3 0.00113
92.35 0.00121
92.4 0.00096
92.45 0.00093
92.5 0.00088
92.55 0.00047
92.6 -0.00002
92.65 -0.0005
92.7 -0.00083
92.75 -0.00088
92.8 -0.00082
92.85 -0.00094
92.9 -0.00075
92.95 -0.00053
93 -0.00037
93.05 -0.00013
93.1 0.00018
93.15 0.00036
93.2 0.00036
93.25 0.00047
93.3 0.00052
93.35 0.00054
93.4 0.00039
93.45 0.00011
93.5 -0.0003
93.55 -0.00047
93.6 -0.00055
93.65 -0.00051
93.7 -0.00042
93.75 -0.00048
93.8 -0.00052
93.85 -0.00079
93.9 -0.0009
93.95 -0.00092
94 -0.00069
94.05 -0.00073
94.1 -0.00089
94.15 -0.00069
94.2 -0.00046
94.25 -0.0004
94.3 -0.00046
94.35 -0.0003
94.4 -0.00039
94.45 -0.0007
94.5 -0.00098
94.55 -0.00124
94.6 -0.00122
94.65 -0.00088
94.7 -0.00053
94.75 -0.00015
94.8 0.00036
94.85 0.00063
94.9 0.00087
94.95 0.001
95 0.00092
95.05 0.00061
95.1 0.0003
95.15 0.00005
95.2 -0.00002
95.25 -0.00034
95.3 -0.00051
95.35 -0.00058
95.4 -0.00057
95.45 -0.00066
95.5 -0.00059
95.55 -0.00068
95.6 -0.00067
95.65 -0.00076
95.7 -0.00058
95.75 -0.00044
95.8 -0.00045
95.85 -0.00057
95.9 -0.00072
95.95 -0.00083
96 -0.00081
96.05 -0.00097
96.1 -0.00118
96.15 -0.00113
96.2 -0.00099
96.25 -0.00063
96.3 -0.00015
96.35 -0.00006
96.4 0.00018
96.45 0.00009
96.5 0.00005
96.55 0.00022
96.6 0.00011
96.65 0.00007
96.7 0.00027
96.75 0.00044
96.8 0.00068
96.85 0.0009
96.9 0.00092
96.95 0.0009
97 0.00103
97.05 0.00084
97.1 0.00048
97.15 0.00033
97.2 0.0002
97.25 -0.00016
97.3 -0.00025
97.35 -0.00017
97.4 0.00004
97.45 -0.00002
97.5 -0.00031
97.55 -0.00065
97.6 -0.00068
97.65 -0.00053
97.7 -0.00032
97.75 -0.00009
97.8 -0.00008
97.85 0.00006
97.9 0.0002
97.95 0.00025
98 0.00003
98.05 -0.00032
98.1 -0.00059
98.15 -0.00077
98.2 -0.00101
98.25 -0.00101
98.3 -0.00073
98.35 -0.0003
98.4 0.00022
98.45 0.0003
98.5 0.00045
98.55 0.00069
98.6 0.00097
98.65 0.00114
98.7 0.00097
98.75 0.00058
98.8 0.00034
98.85 0.00021
98.9 -0.00015
98.95 -0.00034
99 -0.00047
99.05 -0.00048
99.1 -0.00051
99.15 -0.00036
99.2 -0.00044
99.25 -0.00033
99.3 -0.00005
99.35 -0.00011
99.4 -0.00042
99.45 -0.0005
99.5 -0.00071
99.55 -0.0009
99.6 -0.00111
99.65 -0.00103
99.7 -0.00113
99.75 -0.00104
99.8 -0.00086
99.85 -0.00059
99.9 -0.00041
99.95 -0.00046
