0 0
0.05 0.00008
0.1 0.00019
0.15 0.00033
0.2 0.00041
0.25 0.00053
0.3 0.0006
0.35 0.00067
0.4 0.00072
0.45 0.00076
0.5 0.00074
0.55 0.0007
0.6 0.0007
0.65 0.0007
0.7 0.00071
0.75 0.00073
0.8 0.00077
0.85 0.00071
0.9 0.00067
0.95 0.00062
1 0.00056
1.05 0.00053
1.1 0.00048
1.15 0.00048
1.2 0.00045
1.25 0.00043
1.3 0.00037
1.35 0.00033
1.4 0.0003
1.45 0.00028
1.5 0.0003
1.55 0.00031
1.6 0.00036
1.65 0.00034
1.7 0.00038
1.75 0.00042
1.8 0.00044
1.85 0.00049
1.9 0.00047
1.95 0.00044
2 0.00041
2.05 0.00037
2.1 0.00032
2.15 0.00031
2.2 0.00036
2.25 0.00036
2.3 0.00038
2.35 0.00043
2.4 0.0005
2.45 0.00053
2.5 0.00056
2.55 0.00051
2.6 0.00043
2.65 0.00037
2.7 0.00029
2.75 0.00024
2.8 0.00022
2.85 0.00022
2.9 0.00018
2.95 0.00013
3 0.0001
3.05 0.00008
3.1 0.00006
3.15 0.00005
3.2 0.00009
3.25 0.00016
3.3 0.00023
3.35 0.00028
3.4 0.00028
3.45 0.00028
3.5 0.00027
3.55 0.0003
3.6 0.00036
3.65 0.00041
3.7 0.00044
3.75 0.00039
3.8 0.00037
3.85 0.00029
3.9 0.00023
3.95 0.00021
4 0.00017
4.05 0.0001
4.1 0.00002
4.15 0
4.2 -0.00004
4.25 -0.0001
4.3 -0.00014
4.35 -0.00009
4.4 0.00001
4.45 0.00012
4.5 0.00021
4.55 0.00031
4.6 0.00034
4.65 0.00037
4.7 0.00039
4.75 0.0004
4.8 0.00035
4.85 0.00026
4.9 0.00023
4.95 0.00024
5 0.0002
5.05 0.00014
5.1 0.00013
5.15 0.00013
5.2 0.0001
5.25 0.00003
5.3 0.00002
5.35 0.00006
5.4 0.00006
5.45 0.00002
5.5 -0.00003
5.55 -0.00007
5.6 -0.00009
5.65 -0.00008
5.7 -0.00007
5.75 -0.00007
5.8 -0.00004
5.85 0.00003
5.9 0.00004
5.95 0.00002
6 -0.00001
6.05 0
6.1 0.00007
6.15 0.00015
6.2 0.00016
6.25 0.00016
6.3 0.00015
6.35 0.00011
6.4 0.0001
6.45 0.00011
6.5 0.00015
6.55 0.00022
6.6 0.00025
6.65 0.00022
6.7 0.00014
6.75 0.00006
6.8 0
6.85 -0.00004
6.9 -0.00005
6.95 -0.00003
7 -0.00002
7.05 -0.00002
7.1 0.00003
7.15 0.00008
7.2 0.00007
7.25 0.00009
7.3 0.0001
7.35 0.00007
7.4 -0
7.45 0
7.5 -0.00001
7.55 -0.00004
7.6 -0.00004
7.65 -0.00004
7.7 0.00001
7.75 -0.00001
7.8 -0
7.85 -0
7.9 0.00003
7.95 0.00006
8 0.00009
8.05 0.00006
8.1 0
8.15 -0.00006
8.2 -0.00008
8.25 -0.00007
8.3 -0.00002
8.35 0.00003
8.4 0.00003
8.45 0.00003
8.5 0.00008
8.55 0.00009
8.6 0.00007
8.65 0.00002
8.7 0.00003
8.75 0.00006
8.8 0.00007
8.85 0.00005
8.9 0.00003
8.95 0.00006
9 0.00009
9.05 0.00015
9.1 0.00018
9.15 0.00017
9.2 0.00019
9.25 0.00018
9.3 0.00017
9.35 0.00018
9.4 0.00018
9.45 0.00012
9.5 0.00003
9.55 -0
9.6 -0.00003
9.65 -0.00003
9.7 0
9.75 -0
9.8 -0.00001
9.85 -0.00003
9.9 -0.00006
9.95 -0.00007
10 -0.00003
10.05 0.00002
10.1 0.00007
10.15 0.00013
10.2 0.00012
10.25 0.00013
10.3 0.00008
10.35 0.00009
10.4 0.00013
10.45 0.00016
10.5 0.00013
10.55 0.0001
10.6 0.00002
10.65 0.00002
10.7 0.00001
10.75 -0.00001
10.8 -0.00005
10.85 -0.0001
10.9 -0.00007
10.95 -0.00008
11 -0.00011
11.05 -0.00008
11.1 -0.0001
11.15 -0.00011
11.2 -0.00007
11.25 -0.00006
11.3 -0.00009
11.35 -0.00012
11.4 -0.00016
11.45 -0.00015
11.5 -0.00012
11.55 -0.00009
11.6 -0.00004
11.65 0.00001
11.7 -0.00001
11.75 -0
11.8 0
11.85 0.00002
11.9 0.00004
11.95 0.00009
12 0.00008
12.05 0.00007
12.1 0.00005
12.15 0.00003
12.2 0.00002
12.25 0.00001
12.3 -0.00004
12.35 -0.0001
12.4 -0.00013
12.45 -0.00016
12.5 -0.00017
12.55 -0.00017
12.6 -0.00021
12.65 -0.00019
12.7 -0.00012
12.75 -0.0001
12.8 -0.00011
12.85 -0.00005
12.9 0.00002
12.95 0.00004
13 0.00008
13.05 0.00009
13.1 0.00012
13.15 0.00012
13.2 0.00009
13.25 0.00003
13.3 0.00005
13.35 0.00008
13.4 0.00011
13.45 0.00011
13.5 0.00007
13.55 0.00004
13.6 0.00005
13.65 0.00008
13.7 0.00004
13.75 0.00001
13.8 0.00001
13.85 0.00006
13.9 0.00013
13.95 0.00022
14 0.00023
14.05 0.0002
14.1 0.00012
14.15 0.00011
14.2 0.00008
14.25 0.00006
14.3 -0
14.35 -0.00004
14.4 -0.00009
14.45 -0.00016
14.5 -0.00015
14.55 -0.00017
14.6 -0.00013
14.65 -0.00006
14.7 0.00003
14.75 0.00011
14.8 0.0002
14.85 0.00025
14.9 0.00026
14.95 0.00024
15 0.00017
15.05 0.00007
15.1 -0.00002
15.15 -0.00008
15.2 -0.00011
15.25 -0.0001
15.3 -0.00008
15.35 -0.00008
15.4 -0.00003
15.45 0.00002
15.5 0.00003
15.55 -0.00001
15.6 -0
15.65 0.00005
15.7 0.00008
15.75 0.00007
15.8 0.00001
15.85 -0.00003
15.9 -0.00006
15.95 -0.00013
16 -0.00019
16.05 -0.0002
16.1 -0.00018
16.15 -0.00017
16.2 -0.00019
16.25 -0.00022
16.3 -0.00019
16.35 -0.00017
16.4 -0.00011
16.45 -0.00002
16.5 0.00002
16.55 0.00005
16.6 0.00007
16.65 0.00002
16.7 -0.00004
16.75 -0.00004
16.8 0.00001
16.85 0
16.9 -0.00002
16.95 -0.00001
17 0.00004
17.05 0.00012
17.1 0.00021
17.15 0.00023
17.2 0.0002
17.25 0.00017
17.3 0.00015
17.35 0.00012
17.4 0.00008
17.45 0.00002
17.5 -0.00007
17.55 -0.00014
17.6 -0.00021
17.65 -0.00026
17.7 -0.00022
17.75 -0.00016
17.8 -0.00013
17.85 -0.00006
17.9 0.00002
17.95 0.0001
18 0.00017
18.05 0.00025
18.1 0.00024
18.15 0.00024
18.2 0.00023
18.25 0.00024
18.3 0.00027
18.35 0.00022
18.4 0.00013
18.45 0.00004
18.5 -0.00001
18.55 -0.00003
18.6 -0.00007
18.65 -0.00013
18.7 -0.00011
18.75 -0.00007
18.8 -0.00005
18.85 0.00001
18.9 -0
18.95 0
19 0
19.05 0
19.1 -0.00003
19.15 -0.00008
19.2 -0.00016
19.25 -0.00019
19.3 -0.00022
19.35 -0.00024
19.4 -0.00026
19.45 -0.00025
19.5 -0.0002
19.55 -0.00016
19.6 -0.00008
19.65 -0.00006
19.7 -0.00004
19.75 -0.00005
19.8 -0.00002
19.85 0.00004
19.9 0.0001
19.95 0.00009
20 0.00004
20.05 -0
20.1 -0.00001
20.15 -0.00001
20.2 0.00003
20.25 0.0001
20.3 0.0001
20.35 0.00007
20.4 0.00008
20.45 0.00011
20.5 0.00015
20.55 0.0002
20.6 0.00016
20.65 0.00013
20.7 0.00012
20.75 0.00013
20.8 0.00013
20.85 0.00013
20.9 0.0001
20.95 0.00006
21 0.00005
21.05 0.00001
21.1 0.00002
21.15 0.00006
21.2 0.00007
21.25 0.00003
21.3 0
21.35 0.00001
21.4 0
21.45 -0.00003
21.5 -0.00004
21.55 -0.00008
21.6 -0.0001
21.65 -0.0001
21.7 -0.00006
21.75 0
21.8 0.00004
21.85 0.00003
21.9 0
21.95 -0.00005
22 -0.00012
22.05 -0.0002
22.1 -0.00027
22.15 -0.00031
22.2 -0.00034
22.25 -0.00033
22.3 -0.00032
22.35 -0.00028
22.4 -0.00019
22.45 -0.00013
22.5 -0.0001
22.55 -0.00006
22.6 0.00002
22.65 0.0001
22.7 0.00015
22.75 0.00019
22.8 0.00023
22.85 0.00028
22.9 0.00027
22.95 0.0002
23 0.00011
23.05 0.00007
23.1 -0
23.15 -0.00006
23.2 -0.00014
23.25 -0.00016
23.3 -0.00012
23.35 -0.00008
23.4 -0.00005
23.45 -0.00004
23.5 -0.00007
23.55 -0.00011
23.6 -0.00009
23.65 -0.00001
23.7 0.00001
23.75 0.00003
23.8 0.00006
23.85 0.00007
23.9 0.00007
23.95 0.00004
24 0.00006
24.05 0.00008
24.1 0.00004
24.15 0.00002
24.2 0.00001
24.25 -0.00004
24.3 -0.00005
24.35 -0
24.4 0.00004
24.45 0.0001
24.5 0.00017
24.55 0.00016
24.6 0.00017
24.65 0.00012
24.7 0.0001
24.75 0.0001
24.8 0.00011
24.85 0.00014
24.9 0.0001
24.95 0.00007
25 0.00003
25.05 0.00004
25.1 0.00001
25.15 0.00004
25.2 0.00006
25.25 0.00003
25.3 0.00003
25.35 -0
25.4 0
25.45 -0.00001
25.5 0.00003
25.55 0.00005
25.6 0.00011
25.65 0.00011
25.7 0.0001
25.75 0.00004
25.8 0.00002
25.85 0.00004
25.9 0.00004
25.95 0.00008
26 0.0001
26.05 0.00008
26.1 0.00002
26.15 0.00003
26.2 -0
26.25 -0
26.3 0.00004
26.35 0.00002
26.4 0
26.45 -0
26.5 -0.00005
26.55 -0.00006
26.6 -0.00007
26.65 -0.00005
26.7 0.00001
26.75 0.00004
26.8 0.00011
26.85 0.00014
26.9 0.00018
26.95 0.00022
27 0.00021
27.05 0.00022
27.1 0.00021
27.15 0.00022
27.2 0.00019
27.25 0.00009
27.3 -0.00002
27.35 -0.00007
27.4 -0.00007
27.45 -0.00011
27.5 -0.0001
27.55 -0.00008
27.6 -0.00004
27.65 -0.00006
27.7 -0.00006
27.75 -0.00004
27.8 -0
27.85 0.00003
27.9 0.00008
27.95 0.00014
28 0.00012
28.05 0.00015
28.1 0.00013
28.15 0.00012
28.2 0.00008
28.25 -0.00001
28.3 -0.00003
28.35 -0.00004
28.4 -0.00008
28.45 -0.00006
28.5 -0.00001
28.55 -0.00002
28.6 0.00002
28.65 0.00002
28.7 -0.00004
28.75 -0.00004
28.8 -0.00004
28.85 -0.00005
28.9 -0.00006
28.95 -0.0001
29 -0.00011
29.05 -0.00009
29.1 -0.00007
29.15 -0.00008
29.2 -0.00006
29.25 -0
29.3 0.00005
29.35 0.00003
29.4 -0.00002
29.45 -0.00007
29.5 -0.0001
29.55 -0.00009
29.6 -0.00005
29.65 -0.00005
29.7 -0.00009
29.75 -0.00007
29.8 -0.00003
29.85 -0.00001
29.9 0.00004
29.95 0.00012
30 0.00013
30.05 0.00015
30.1 0.00012
30.15 0.0001
30.2 0.00009
30.25 0.00009
30.3 0.00008
30.35 0.00002
30.4 -0
30.45 -0.00002
30.5 -0.00002
30.55 -0.00006
30.6 -0.00003
30.65 0.00002
30.7 0.00008
30.75 0.00011
30.8 0.00008
30.85 0.00006
30.9 0.00005
30.95 0.00003
31 -0.00003
31.05 -0.00007
31.1 -0.00013
31.15 -0.00016
31.2 -0.00015
31.25 -0.00017
31.3 -0.00022
31.35 -0.00019
31.4 -0.00016
31.45 -0.00016
31.5 -0.0001
31.55 -0.00008
31.6 -0.00008
31.65 -0.00013
31.7 -0.00016
31.75 -0.00021
31.8 -0.0002
31.85 -0.00013
31.9 -0.00011
31.95 -0.00008
32 -0.00005
32.05 -0
32.1 -0.00003
32.15 -0.00004
32.2 -0.00009
32.25 -0.00009
32.3 -0.00004
32.35 -0.00005
32.4 -0.00004
32.45 -0.00006
32.5 -0.00006
32.55 -0.00006
32.6 -0.00012
32.65 -0.0001
32.7 -0.00009
32.75 -0.00004
32.8 -0.00005
32.85 -0.00001
32.9 0
32.95 0.00004
33 0.0001
33.05 0.00008
33.1 0.00006
33.15 0.00007
33.2 0.00006
33.25 0.00007
33.3 0.00005
33.35 -0.00002
33.4 -0.00005
33.45 -0.00003
33.5 0.00001
33.55 0.00001
33.6 0
33.65 -0.00001
33.7 0.00003
33.75 0.00002
33.8 0.00003
33.85 0.00006
33.9 0.00011
33.95 0.00012
34 0.00011
34.05 0.00014
34.1 0.00018
34.15 0.00015
34.2 0.00008
34.25 0.00002
34.3 -0.00006
34.35 -0.00014
34.4 -0.00017
34.45 -0.00022
34.5 -0.0002
34.55 -0.00017
34.6 -0.00015
34.65 -0.00013
34.7 -0.00014
34.75 -0.00015
34.8 -0.0001
34.85 -0.00004
34.9 -0.00001
34.95 -0
35 -0
35.05 -0.00002
35.1 -0.00007
35.15 -0.0001
35.2 -0.00006
35.25 -0.00002
35.3 -0.00003
35.35 -0.00003
35.4 -0.00007
35.45 -0.00006
35.5 -0.00008
35.55 -0.00013
35.6 -0.00016
35.65 -0.00022
35.7 -0.00021
35.75 -0.00017
35.8 -0.00016
35.85 -0.00014
35.9 -0.00012
35.95 -0.00005
36 -0.00002
36.05 0.00003
36.1 0.00005
36.15 0.00002
36.2 0.00003
36.25 0.00005
36.3 0.00004
36.35 0.00004
36.4 0.00004
36.45 0.00005
36.5 0.00007
36.55 0.00005
36.6 0.00008
36.65 0.00011
36.7 0.00008
36.75 0.00008
36.8 0.0001
36.85 0.00006
36.9 0.00001
36.95 -0.00006
37 -0.00007
37.05 -0.00007
37.1 -0.00004
37.15 -0.00003
37.2 -0.00001
37.25 -0.00002
37.3 -0.00003
37.35 -0.00008
37.4 -0.00006
37.45 -0.00003
37.5 0.00003
37.55 0.00004
37.6 0.00001
37.65 0.00001
37.7 -0.00004
37.75 -0.00005
37.8 -0.00003
37.85 0.00002
37.9 0.00006
37.95 0.00003
38 -0.00002
38.05 -0.00012
38.1 -0.00025
38.15 -0.00034
38.2 -0.00045
38.25 -0.0006
38.3 -0.0008
38.35 -0.00101
38.4 -0.00127
38.45 -0.0015
38.5 -0.00169
38.55 -0.00188
38.6 -0.00218
38.65 -0.00255
38.7 -0.00303
38.75 -0.00352
38.8 -0.00411
38.85 -0.00477
38.9 -0.00548
38.95 -0.00629
39 -0.00718
39.05 -0.00817
39.1 -0.00928
39.15 -0.01048
39.2 -0.01172
39.25 -0.01305
39.3 -0.01437
39.35 -0.01577
39.4 -0.01713
39.45 -0.01846
39.5 -0.01982
39.55 -0.02115
39.6 -0.0224
39.65 -0.02356
39.7 -0.02453
39.75 -0.02532
39.8 -0.02595
39.85 -0.02639
39.9 -0.0266
39.95 -0.02647
40 -0.02607
40.05 -0.02539
40.1 -0.02441
40.15 -0.02318
40.2 -0.02165
40.25 -0.01982
40.3 -0.01774
40.35 -0.01551
40.4 -0.01321
40.45 -0.01079
40.5 -0.00836
40.55 -0.00602
40.6 -0.00378
40.65 -0.00167
40.7 0.00026
40.75 0.00193
40.8 0.00325
40.85 0.00416
40.9 0.0047
40.95 0.0049
41 0.00472
41.05 0.00424
41.1 0.00343
41.15 0.00232
41.2 0.0009
41.25 -0.00071
41.3 -0.00253
41.35 -0.00435
41.4 -0.00614
41.45 -0.0079
41.5 -0.00955
41.55 -0.01102
41.6 -0.01222
41.65 -0.01303
41.7 -0.01342
41.75 -0.01344
41.8 -0.01306
41.85 -0.01223
41.9 -0.01093
41.95 -0.0092
42 -0.00706
42.05 -0.00453
42.1 -0.00166
42.15 0.0015
42.2 0.00486
42.25 0.00837
42.3 0.01192
42.35 0.01546
42.4 0.01901
42.45 0.0225
42.5 0.02581
42.55 0.02899
42.6 0.03196
42.65 0.03467
42.7 0.03708
42.75 0.03919
42.8 0.04094
42.85 0.04237
42.9 0.04345
42.95 0.04419
43 0.0446
43.05 0.04465
43.1 0.04436
43.15 0.04379
43.2 0.043
43.25 0.04193
43.3 0.0407
43.35 0.03923
43.4 0.03765
43.45 0.03597
43.5 0.03414
43.55 0.03227
43.6 0.03031
43.65 0.02834
43.7 0.02641
43.75 0.02446
43.8 0.02254
43.85 0.02072
43.9 0.01896
43.95 0.01731
44 0.01568
44.05 0.01417
44.1 0.01266
44.15 0.01125
44.2 0.0099
44.25 0.00869
44.3 0.00759
44.35 0.00653
44.4 0.00552
44.45 0.00461
44.5 0.00377
44.55 0.00296
44.6 0.00223
44.65 0.00156
44.7 0.0009
44.75 0.00034
44.8 -0.00015
44.85 -0.0006
44.9 -0.00107
44.95 -0.00151
45 -0.00197
45.05 -0.00239
45.1 -0.00272
45.15 -0.00307
45.2 -0.0034
45.25 -0.00373
45.3 -0.00402
45.35 -0.00432
45.4 -0.00456
45.45 -0.00473
45.5 -0.00487
45.55 -0.00507
45.6 -0.0053
45.65 -0.00548
45.7 -0.0057
45.75 -0.00592
45.8 -0.00609
45.85 -0.00625
45.9 -0.00635
45.95 -0.00643
46 -0.00655
46.05 -0.00663
46.1 -0.00674
46.15 -0.00678
46.2 -0.00685
46.25 -0.00689
46.3 -0.00692
46.35 -0.00691
46.4 -0.00686
46.45 -0.00683
46.5 -0.00681
46.55 -0.00674
46.6 -0.00662
46.65 -0.00649
46.7 -0.00639
46.75 -0.00626
46.8 -0.00612
46.85 -0.00602
46.9 -0.00591
46.95 -0.0058
47 -0.00571
47.05 -0.00559
47.1 -0.00543
47.15 -0.00532
47.2 -0.0052
47.25 -0.0051
47.3 -0.005
47.35 -0.00488
47.4 -0.00479
47.45 -0.00465
47.5 -0.00452
47.55 -0.00443
47.6 -0.00431
47.65 -0.00418
47.7 -0.00398
47.75 -0.00378
47.8 -0.00355
47.85 -0.00338
47.9 -0.00329
47.95 -0.00323
48 -0.0032
48.05 -0.00313
48.1 -0.003
48.15 -0.00293
48.2 -0.00286
48.25 -0.00275
48.3 -0.00265
48.35 -0.00251
48.4 -0.0024
48.45 -0.0023
48.5 -0.00219
48.55 -0.00206
48.6 -0.00193
48.65 -0.00189
48.7 -0.00187
48.75 -0.00191
48.8 -0.00189
48.85 -0.00192
48.9 -0.00197
48.95 -0.00203
49 -0.00205
49.05 -0.002
49.1 -0.00193
49.15 -0.00184
49.2 -0.00178
49.25 -0.00168
49.3 -0.00161
49.35 -0.00155
49.4 -0.00151
49.45 -0.00153
49.5 -0.00155
49.55 -0.0016
49.6 -0.00159
49.65 -0.00154
49.7 -0.00147
49.75 -0.00139
49.8 -0.00136
49.85 -0.0013
49.9 -0.00124
49.95 -0.00122
50 -0.00123
50.05 -0.00124
50.1 -0.00127
50.15 -0.00131
50.2 -0.00131
50.25 -0.00135
50.3 -0.00133
50.35 -0.00134
50.4 -0.00133
50.45 -0.00133
50.5 -0.00132
50.55 -0.00131
50.6 -0.00124
50.65 -0.00117
50.7 -0.00115
50.75 -0.00113
50.8 -0.00108
50.85 -0.001
50.9 -0.00092
50.95 -0.00083
51 -0.00079
51.05 -0.00081
51.1 -0.00082
51.15 -0.00085
51.2 -0.00091
51.25 -0.00098
51.3 -0.00107
51.35 -0.00111
51.4 -0.00114
51.45 -0.00118
51.5 -0.0012
51.55 -0.0012
51.6 -0.00113
51.65 -0.00106
51.7 -0.00101
51.75 -0.00095
51.8 -0.00089
51.85 -0.00087
51.9 -0.00088
51.95 -0.00089
52 -0.00089
52.05 -0.00089
52.1 -0.00082
52.15 -0.00079
52.2 -0.00078
52.25 -0.00079
52.3 -0.00083
52.35 -0.00084
52.4 -0.00079
52.45 -0.00071
52.5 -0.0006
52.55 -0.00054
52.6 -0.00045
52.65 -0.0004
52.7 -0.00035
52.75 -0.00038
52.8 -0.00037
52.85 -0.00042
52.9 -0.00041
52.95 -0.00046
53 -0.00046
53.05 -0.00043
53.1 -0.00046
53.15 -0.00045
53.2 -0.00041
53.25 -0.00038
53.3 -0.00032
53.35 -0.00032
53.4 -0.00029
53.45 -0.00029
53.5 -0.00035
53.55 -0.00036
53.6 -0.00038
53.65 -0.00039
53.7 -0.00042
53.75 -0.00044
53.8 -0.00041
53.85 -0.00044
53.9 -0.00049
53.95 -0.00048
54 -0.00049
54.05 -0.00051
54.1 -0.00056
54.15 -0.00056
54.2 -0.0005
54.25 -0.00042
54.3 -0.00042
54.35 -0.00047
54.4 -0.00053
54.45 -0.00054
54.5 -0.00056
54.55 -0.00054
54.6 -0.00052
54.65 -0.00047
54.7 -0.0004
54.75 -0.00038
54.8 -0.0004
54.85 -0.00037
54.9 -0.00033
54.95 -0.00033
55 -0.00029
55.05 -0.0003
55.1 -0.0003
55.15 -0.00027
55.2 -0.00024
55.25 -0.00025
55.3 -0.00026
55.35 -0.00026
55.4 -0.00022
55.45 -0.00015
55.5 -0.00016
55.55 -0.00012
55.6 -0.00006
55.65 -0.00002
55.7 0.00001
55.75 0.00002
55.8 -0
55.85 -0.00004
55.9 -0.00004
55.95 -0.0001
56 -0.00019
56.05 -0.00022
56.1 -0.00024
56.15 -0.00025
56.2 -0.00025
56.25 -0.00026
56.3 -0.00023
56.35 -0.00026
56.4 -0.00025
56.45 -0.00025
56.5 -0.00021
56.55 -0.00022
56.6 -0.00026
56.65 -0.00023
56.7 -0.00021
56.75 -0.00015
56.8 -0.00016
56.85 -0.00015
56.9 -0.00015
56.95 -0.00019
57 -0.00023
57.05 -0.0002
57.1 -0.00017
57.15 -0.0001
57.2 -0.00005
57.25 0.00001
57.3 0.00003
57.35 0.00006
57.4 0.00006
57.45 0.00002
57.5 -0.00007
57.55 -0.0001
57.6 -0.00006
57.65 -0.00003
57.7 -0.00001
57.75 0.00002
57.8 0.00005
57.85 -0
57.9 -0.00004
57.95 -0.00002
58 -0.00004
58.05 -0.00005
58.1 -0.00008
58.15 -0.00011
58.2 -0.00014
58.25 -0.00015
58.3 -0.00019
58.35 -0.00018
58.4 -0.00014
58.45 -0.00015
58.5 -0.00018
58.55 -0.00023
58.6 -0.00029
58.65 -0.00027
58.7 -0.00024
58.75 -0.00018
58.8 -0.00014
58.85 -0.00008
58.9 -0
58.95 -0.00001
59 -0.00007
59.05 -0.00006
59.1 -0.00004
59.15 -0.00005
59.2 -0.00005
59.25 -0.00002
59.3 -0.00003
59.35 -0.00001
59.4 -0.00004
59.45 -0.00005
59.5 -0.00011
59.55 -0.00012
59.6 -0.00012
59.65 -0.00008
59.7 -0.00008
59.75 -0.00011
59.8 -0.00007
59.85 -0.00001
59.9 0.00004
59.95 0.00005
60 0.00003
60.05 -0.00004
60.1 -0.00006
60.15 -0.00009
60.2 -0.00007
60.25 -0.00008
60.3 -0.00011
60.35 -0.00008
60.4 -0.0001
60.45 -0.00014
60.5 -0.00017
60.55 -0.00023
60.6 -0.0003
60.65 -0.00028
60.7 -0.00028
60.75 -0.00029
60.8 -0.00023
60.85 -0.00017
60.9 -0.00017
60.95 -0.00015
61 -0.00011
61.05 -0.00011
61.1 -0.00012
61.15 -0.00011
61.2 -0.00013
61.25 -0.00017
61.3 -0.00024
61.35 -0.00031
61.4 -0.00033
61.45 -0.00027
61.5 -0.00021
61.55 -0.00011
61.6 -0.00004
61.65 0
61.7 0.00002
61.75 0.00008
61.8 0.00014
61.85 0.00018
61.9 0.00019
61.95 0.00013
62 0.00007
62.05 0.00001
62.1 -0.00004
62.15 -0.0001
62.2 -0.00017
62.25 -0.00017
62.3 -0.00012
62.35 -0.00007
62.4 -0.00001
62.45 0
62.5 -0.00001
62.55 -0.00001
62.6 -0.00004
62.65 -0.00009
62.7 -0.0001
62.75 -0.00007
62.8 -0.00002
62.85 0.00004
62.9 0.00006
62.95 0.0001
63 0.00006
63.05 0.00006
63.1 0.00006
63.15 0.00003
63.2 -0.00002
63.25 -0.0001
63.3 -0.00016
63.35 -0.00018
63.4 -0.00021
63.45 -0.00024
63.5 -0.0002
63.55 -0.00016
63.6 -0.00012
63.65 -0.00005
63.7 0
63.75 0.00002
63.8 0.00006
63.85 0.0001
63.9 0.00017
63.95 0.00018
64 0.00018
64.05 0.00018
64.1 0.00018
64.15 0.00021
64.2 0.00025
64.25 0.00023
64.3 0.00018
64.35 0.0001
64.4 0.00003
64.45 -0.00002
64.5 -0.00004
64.55 -0.00001
64.6 0.00002
64.65 0.00007
64.7 0.00006
64.75 0.00003
64.8 -0.00003
64.85 -0.00005
64.9 -0.00006
64.95 -0.00009
65 -0.00015
65.05 -0.00019
65.1 -0.0002
65.15 -0.00015
65.2 -0.00014
65.25 -0.00016
65.3 -0.00013
65.35 -0.00009
65.4 -0.00001
65.45 0.00001
65.5 -0.00003
65.55 -0.00007
65.6 -0.00005
65.65 -0.00005
65.7 -0.00003
65.75 -0.00002
65.8 -0.00003
65.85 -0
65.9 0.00006
65.95 0.0001
66 0.00016
66.05 0.00016
66.1 0.0001
66.15 0.00004
66.2 -0.00002
66.25 -0.00009
66.3 -0.00015
66.35 -0.00017
66.4 -0.00022
66.45 -0.00029
66.5 -0.00026
66.55 -0.00026
66.6 -0.00026
66.65 -0.00022
66.7 -0.00018
66.75 -0.00019
66.8 -0.0002
66.85 -0.00024
66.9 -0.00028
66.95 -0.00028
67 -0.00023
67.05 -0.00014
67.1 -0.00007
67.15 -0.00005
67.2 -0.00006
67.25 -0.00004
67.3 0.00001
67.35 0.00004
67.4 0.00001
67.45 -0.00001
67.5 -0.00006
67.55 -0.00006
67.6 -0.0001
67.65 -0.00011
67.7 -0.00016
67.75 -0.00021
67.8 -0.00023
67.85 -0.00024
67.9 -0.00022
67.95 -0.00022
68 -0.00022
68.05 -0.00022
68.1 -0.00018
68.15 -0.0001
68.2 -0.00007
68.25 -0.00006
68.3 -0.00002
68.35 0.00006
68.4 0.00009
68.45 0.00014
68.5 0.00015
68.55 0.00018
68.6 0.00016
68.65 0.00009
68.7 0.00004
68.75 0.00001
68.8 -0.00001
68.85 0
68.9 0.00002
68.95 0.00002
69 -0.00001
69.05 -0.00005
69.1 -0.00009
69.15 -0.00008
69.2 -0.00006
69.25 -0.00009
69.3 -0.00013
69.35 -0.00016
69.4 -0.00015
69.45 -0.00013
69.5 -0.00005
69.55 -0.00004
69.6 0.00001
69.65 0.00001
69.7 0.00001
69.75 0.00002
69.8 0.00005
69.85 0.00005
69.9 0.0001
69.95 0.00015
70 0.00017
70.05 0.00019
70.1 0.00023
70.15 0.0002
70.2 0.00017
70.25 0.00018
70.3 0.00012
70.35 0.00005
70.4 -0.00001
70.45 -0.00004
70.5 -0.00006
70.55 -0.00005
70.6 0.00001
70.65 0.00002
70.7 -0.00002
70.75 -0.00009
70.8 -0.00011
70.85 -0.00017
70.9 -0.00023
70.95 -0.00023
71 -0.00024
71.05 -0.00024
71.1 -0.00025
71.15 -0.00025
71.2 -0.00022
71.25 -0.00017
71.3 -0.00014
71.35 -0.00014
71.4 -0.00017
71.45 -0.00014
71.5 -0.00014
71.55 -0.00015
71.6 -0.00009
71.65 -0.00001
71.7 0.00008
71.75 0.00013
71.8 0.00019
71.85 0.0002
71.9 0.00021
71.95 0.00025
72 0.00025
72.05 0.0002
72.1 0.00012
72.15 0.0001
72.2 0.00012
72.25 0.00012
72.3 0.00015
72.35 0.0002
72.4 0.00018
72.45 0.00014
72.5 0.00013
72.55 0.00014
72.6 0.00008
72.65 0.00005
72.7 0.00002
72.75 0.00003
72.8 0.00004
72.85 0.00004
72.9 0.00002
72.95 0.00004
73 0.00002
73.05 -0.00003
73.1 -0.00005
73.15 -0.00007
73.2 -0.00004
73.25 -0.00001
73.3 -0.00002
73.35 -0.00005
73.4 -0.00007
73.45 -0.00007
73.5 -0.00006
73.55 -0.00007
73.6 -0.00002
73.65 0.00002
73.7 0.00002
73.75 0.00005
73.8 0.00011
73.85 0.00017
73.9 0.00016
73.95 0.00019
74 0.00023
74.05 0.00019
74.1 0.00013
74.15 0.00013
74.2 0.00014
74.25 0.00016
74.3 0.00013
74.35 0.00009
74.4 0.00001
74.45 0.00001
74.5 0.00005
74.55 0.00003
74.6 -0.00001
74.65 -0.00008
74.7 -0.00012
74.75 -0.00011
74.8 -0.00012
74.85 -0.0001
74.9 -0.00005
74.95 0.00004
75 0.00014
75.05 0.00019
75.1 0.00017
75.15 0.00017
75.2 0.00016
75.25 0.00016
75.3 0.0001
75.35 0.00008
75.4 0.00007
75.45 0.00004
75.5 0.00001
75.55 -0
75.6 -0.00001
75.65 -0.00005
75.7 -0.00007
75.75 -0.00003
75.8 -0.00002
75.85 0.00001
75.9 0.00006
75.95 0.00012
76 0.00015
76.05 0.00014
76.1 0.00008
76.15 0.00008
76.2 0.00004
76.25 0.00003
76.3 0.00007
76.35 0.00003
76.4 0.00003
76.45 0.00004
76.5 0.00001
76.55 -0.00002
76.6 -0.00001
76.65 -0.00001
76.7 -0.00002
76.75 -0.00006
76.8 -0.0001
76.85 -0.00014
76.9 -0.00011
76.95 -0.00011
77 -0.00006
77.05 -0.00006
77.1 -0.00005
77.15 -0.00008
77.2 -0.00013
77.25 -0.00018
77.3 -0.00015
77.35 -0.00012
77.4 -0.00012
77.45 -0.00016
77.5 -0.00018
77.55 -0.00018
77.6 -0.00018
77.65 -0.00019
77.7 -0.00021
77.75 -0.00025
77.8 -0.00021
77.85 -0.00019
77.9 -0.00011
77.95 -0.00007
78 -0.00007
78.05 -0.0001
78.1 -0.00013
78.15 -0.00011
78.2 -0.00005
78.25 -0
78.3 0.00002
78.35 0.00004
78.4 0.00003
78.45 -0.00003
78.5 -0.00007
78.55 -0.00004
78.6 0.00002
78.65 0.00005
78.7 0.00004
78.75 0.00004
78.8 0.00003
78.85 -0.00001
78.9 0.00001
78.95 0.00003
79 0.00008
79.05 0.00017
79.1 0.00018
79.15 0.00013
79.2 0.00012
79.25 0.00007
79.3 -0.00001
79.35 -0.00005
79.4 -0.00012
79.45 -0.00018
79.5 -0.00025
79.55 -0.00031
79.6 -0.00033
79.65 -0.0003
79.7 -0.00024
79.75 -0.00022
79.8 -0.00013
79.85 -0.00005
79.9 -0.00002
79.95 0.00005
80 0.0001
80.05 0.00013
80.1 0.00014
80.15 0.00019
80.2 0.00023
80.25 0.0002
80.3 0.00019
80.35 0.00016
80.4 0.00011
80.45 0.00004
80.5 0.00005
80.55 0.00007
80.6 0.0001
80.65 0.00011
80.7 0.00011
80.75 0.00008
80.8 0.00009
80.85 0.00006
80.9 0.00001
80.95 0.00002
81 0.00006
81.05 0.00011
81.1 0.00018
81.15 0.00017
81.2 0.00016
81.25 0.00015
81.3 0.00015
81.35 0.0001
81.4 0.00007
81.45 0.00009
81.5 0.00007
81.55 0.00007
81.6 0.00002
81.65 0.00003
81.7 0
81.75 0.00003
81.8 0.00002
81.85 -0.00001
81.9 -0.00003
81.95 -0.00003
82 0.00001
82.05 0.00003
82.1 0.00002
82.15 -0.00002
82.2 -0.00006
82.25 -0.00006
82.3 -0.00009
82.35 -0.00011
82.4 -0.0001
82.45 -0.00003
82.5 0.00003
82.55 0.00007
82.6 0.00013
82.65 0.00017
82.7 0.00023
82.75 0.00021
82.8 0.0002
82.85 0.00021
82.9 0.00016
82.95 0.00009
83 0.00008
83.05 0.00005
83.1 -0.00001
83.15 -0.00005
83.2 -0.00003
83.25 -0.00002
83.3 -0.00001
83.35 0.00001
83.4 0.00003
83.45 0.00006
83.5 0.00007
83.55 0.00002
83.6 -0.00005
83.65 -0.00007
83.7 -0.00004
83.75 -0.00005
83.8 -0.00011
83.85 -0.00015
83.9 -0.00018
83.95 -0.00019
84 -0.00015
84.05 -0.00011
84.1 -0.00007
84.15 0
84.2 0.00008
84.25 0.00012
84.3 0.0001
84.35 0.00012
84.4 0.0001
84.45 0.00013
84.5 0.00017
84.55 0.00017
84.6 0.00012
84.65 0.00006
84.7 0.00004
84.75 -0.00002
84.8 -0.00009
84.85 -0.00014
84.9 -0.00017
84.95 -0.00017
85 -0.00012
85.05 -0.00004
85.1 -0
85.15 -0
85.2 -0.00003
85.25 -0.00008
85.3 -0.00012
85.35 -0.00016
85.4 -0.00019
85.45 -0.00024
85.5 -0.00027
85.55 -0.00024
85.6 -0.00019
85.65 -0.00013
85.7 -0.00013
85.75 -0.00016
85.8 -0.00014
85.85 -0.0001
85.9 -0.00002
85.95 0.00002
86 0.00007
86.05 0.00012
86.1 0.00014
86.15 0.00013
86.2 0.00006
86.25 0.00001
86.3 0.00002
86.35 0.00003
86.4 0.00001
86.45 0.00004
86.5 0.00008
86.55 0.00013
86.6 0.00019
86.65 0.00019
86.7 0.00016
86.75 0.00015
86.8 0.00017
86.85 0.0002
86.9 0.00021
86.95 0.00022
87 0.0002
87.05 0.00018
87.1 0.00019
87.15 0.00014
87.2 0.00014
87.25 0.00011
87.3 0.00013
87.35 0.00017
87.4 0.00016
87.45 0.00016
87.5 0.00013
87.55 0.00008
87.6 0.00005
87.65 -0.00002
87.7 -0.00007
87.75 -0.00006
87.8 -0.00007
87.85 -0.00003
87.9 -0.00003
87.95 -0.00007
88 -0.00008
88.05 -0.0001
88.1 -0.00014
88.15 -0.00014
88.2 -0.00017
88.25 -0.0002
88.3 -0.00023
88.35 -0.00019
88.4 -0.00011
88.45 -0.00003
88.5 -0.00002
88.55 0.00003
88.6 0.00002
88.65 -0.00001
88.7 -0.00002
88.75 -0.00007
88.8 -0.00009
88.85 -0.00013
88.9 -0.00016
88.95 -0.00018
89 -0.00019
89.05 -0.00013
89.1 -0.00005
89.15 0.00005
89.2 0.00007
89.25 0.00011
89.3 0.00017
89.35 0.00019
89.4 0.00021
89.45 0.00022
89.5 0.00018
89.55 0.00017
89.6 0.0001
89.65 0.00008
89.7 0.00009
89.75 0.00005
89.8 0.00002
89.85 -0.00003
89.9 -0.00006
89.95 -0.0001
90 -0.0001
90.05 -0.00014
90.1 -0.0001
90.15 -0.00008
90.2 -0.00009
90.25 -0.0001
90.3 -0.00007
90.35 -0.00005
90.4 -0.00004
90.45 0.00002
90.5 0.00007
90.55 0.00005
90.6 0.00008
90.65 0.00006
90.7 0.00005
90.75 0.00002
90.8 -0.00005
90.85 -0.00004
90.9 -0.00004
90.95 -0.00002
91 0.00003
91.05 0.00009
91.1 0.00013
91.15 0.00018
91.2 0.00022
91.25 0.0002
91.3 0.00019
91.35 0.00015
91.4 0.0001
91.45 0.00006
91.5 0.00002
91.55 0.00003
91.6 -0
91.65 -0.00005
91.7 -0.0001
91.75 -0.00008
91.8 -0.00005
91.85 -0.00004
91.9 -0
91.95 0.00004
92 0.00008
92.05 0.00007
92.1 0.00004
92.15 0.00004
92.2 0.00002
92.25 -0.00005
92.3 -0.00014
92.35 -0.0002
92.4 -0.00024
92.45 -0.00027
92.5 -0.00027
92.55 -0.00026
92.6 -0.00023
92.65 -0.00019
92.7 -0.0001
92.75 -0.00002
92.8 0.00003
92.85 0.0001
92.9 0.00015
92.95 0.00016
93 0.00019
93.05 0.0002
93.1 0.0002
93.15 0.00014
93.2 0.0001
93.25 0.00008
93.3 0.0001
93.35 0.00011
93.4 0.00007
93.45 0.00005
93.5 0.00006
93.55 0.00007
93.6 0.00002
93.65 -0.00004
93.7 -0.00004
93.75 -0.00007
93.8 -0.00013
93.85 -0.00017
93.9 -0.00023
93.95 -0.00023
94 -0.00025
94.05 -0.00026
94.1 -0.00028
94.15 -0.00023
94.2 -0.00021
94.25 -0.00019
94.3 -0.0002
94.35 -0.00019
94.4 -0.00019
94.45 -0.00021
94.5 -0.00022
94.55 -0.00018
94.6 -0.00013
94.65 -0.00007
94.7 -0.00003
94.75 -0.00001
94.8 -0
94.85 0.00002
94.9 0.00007
94.95 0.00014
95 0.00014
95.05 0.00017
95.1 0.00017
95.15 0.00021
95.2 0.00024
95.25 0.00019
95.3 0.00012
95.35 0.00005
95.4 0.00003
95.45 0.00004
95.5 0.00004
95.55 0.00003
95.6 -0.00002
95.65 -0.00003
95.7 -0.00001
95.75 -0.00003
95.8 -0.00004
95.85 -0.00008
95.9 -0.00008
95.95 -0.00007
96 -0.00007
96.05 -0.00004
96.1 -0.00003
96.15 0.00003
96.2 0.00005
96.25 0.00008
96.3 0.00005
96.35 0.00007
96.4 0.0001
96.45 0.00008
96.5 0.00011
96.55 0.00013
96.6 0.00018
96.65 0.00016
96.7 0.00016
96.75 0.00014
96.8 0.00016
96.85 0.00017
96.9 0.00011
96.95 0.00007
97 0.00001
97.05 -0.00004
97.1 -0.00011
97.15 -0.00012
97.2 -0.00016
97.25 -0.00023
97.3 -0.00031
97.35 -0.00034
97.4 -0.00034
97.45 -0.00032
97.5 -0.00027
97.55 -0.00026
97.6 -0.00024
97.65 -0.00019
97.7 -0.00012
97.75 -0.00009
97.8 -0.00007
97.85 -0
97.9 0.00003
97.95 0.00003
98 0.00005
98.05 0.00004
98.1 0.00004
98.15 -0.00001
98.2 -0.00003
98.25 -0.00002
98.3 -0
98.35 0.00005
98.4 0.00011
98.45 0.00012
98.5 0.00013
98.55 0.00011
98.6 0.0001
98.65 0.00011
98.7 0.00012
98.75 0.00008
98.8 0
98.85 -0.00006
98.9 -0.00007
98.95 -0.00004
99 0.00002
99.05 0.00006
99.1 0.00006
99.15 0.00003
99.2 0.00004
99.25 0.00005
99.3 0.00006
99.35 0.00004
99.4 0.00006
99.45 0.00009
99.5 0.0001
99.55 0.00011
99.6 0.00012
99.65 0.00017
99.7 0.00019
99.75 0.00016
99.8 0.00014
99.85 0.0001
99.9 0.00007
99.95 0.00001
