0 0
0.05 0.00053
0.1 0.00125
0.15 0.00183
0.2 0.00385
0.25 0.00606
0.3 0.00717
0.35 0.00747
0.4 0.00745
0.45 0.00706
0.5 0.00618
0.55 0.00706
0.6 0.00906
0.65 0.01072
0.7 0.012
0.75 0.01339
0.8 0.01387
0.85 0.01344
0.9 0.01367
0.95 0.01443
1 0.01441
1.05 0.01416
1.1 0.01262
1.15 0.01244
1.2 0.01128
1.25 0.01071
1.3 0.01125
1.35 0.01234
1.4 0.01235
1.45 0.01199
1.5 0.01143
1.55 0.0111
1.6 0.01032
1.65 0.00937
1.7 0.00789
1.75 0.00793
1.8 0.00721
1.85 0.00667
1.9 0.00666
1.95 0.00623
2 0.00592
2.05 0.00551
2.1 0.00619
2.15 0.00677
2.2 0.00682
2.25 0.00651
2.3 0.00539
2.35 0.0055
2.4 0.00505
2.45 0.00549
2.5 0.00591
2.55 0.00518
2.6 0.00563
2.65 0.00613
2.7 0.00563
2.75 0.00433
2.8 0.00446
2.85 0.00565
2.9 0.00598
2.95 0.00536
3 0.00429
3.05 0.00293
3.1 0.00276
3.15 0.0019
3.2 0.00124
3.25 0.00037
3.3 0.00091
3.35 0.0007
3.4 0.00172
3.45 0.00199
3.5 0.0021
3.55 0.00257
3.6 0.00314
3.65 0.00318
3.7 0.0031
3.75 0.00271
3.8 0.0036
3.85 0.005
3.9 0.0052
3.95 0.0054
4 0.00656
4.05 0.00609
4.1 0.00531
4.15 0.00451
4.2 0.00495
4.25 0.00604
4.3 0.00695
4.35 0.0078
4.4 0.00743
4.45 0.00645
4.5 0.00571
4.55 0.00468
4.6 0.00448
4.65 0.00481
4.7 0.00424
4.75 0.00309
4.8 0.00309
4.85 0.0025
4.9 0.00158
4.95 0.00055
5 -0.00071
5.05 -0.00099
5.1 -0.00024
5.15 0.00054
5.2 0.00217
5.25 0.00295
5.3 0.00396
5.35 0.00532
5.4 0.0058
5.45 0.00613
5.5 0.00682
5.55 0.00791
5.6 0.00871
5.65 0.00835
5.7 0.00869
5.75 0.00873
5.8 0.00894
5.85 0.00788
5.9 0.00669
5.95 0.00463
6 0.0032
6.05 0.00266
6.1 0.00192
6.15 0.00146
6.2 0.00044
6.25 0.00055
6.3 0.00109
6.35 0.0018
6.4 0.00186
6.45 0.00116
6.5 0.00077
6.55 0.00165
6.6 0.00299
6.65 0.00282
6.7 0.00264
6.75 0.0023
6.8 0.00308
6.85 0.00341
6.9 0.00363
6.95 0.00374
7 0.00276
7.05 0.00119
7.1 0.0002
7.15 0.00011
7.2 0.00123
7.25 0.00177
7.3 0.00175
7.35 0.00109
7.4 0.00172
7.45 0.00304
7.5 0.00298
7.55 0.00282
7.6 0.00246
7.65 0.00258
7.7 0.00258
7.75 0.00154
7.8 0.00159
7.85 0.00049
7.9 0.00045
7.95 0.00011
8 -0.00055
8.05 -0.00149
8.1 -0.00233
8.15 -0.00289
8.2 -0.004
8.25 -0.00399
8.3 -0.00264
8.35 -0.00124
8.4 0.00084
8.45 0.00289
8.5 0.00443
8.55 0.00555
8.6 0.00613
8.65 0.00534
8.7 0.00552
8.75 0.00627
8.8 0.00533
8.85 0.00501
8.9 0.00421
8.95 0.00337
9 0.00337
9.05 0.00322
9.1 0.00217
9.15 0.00158
9.2 0.00068
9.25 0.00001
9.3 -0.00095
9.35 -0.00057
9.4 0.00027
9.45 0.0008
9.5 0.00073
9.55 0.00121
9.6 0.00243
9.65 0.00261
9.7 0.00184
9.75 0.00177
9.8 0.00247
9.85 0.00292
9.9 0.00338
9.95 0.00312
10 0.00176
10.05 0.00069
10.1 0.0005
10.15 -0.00026
10.2 -0.00055
10.25 -0.00016
10.3 0.00018
10.35 0.00046
10.4 0.00069
10.45 0.00079
10.5 0.00048
10.55 -0.00012
10.6 -0.0011
10.65 -0.00254
10.7 -0.00384
10.75 -0.00337
10.8 -0.00367
10.85 -0.00393
10.9 -0.00359
10.95 -0.00284
11 -0.00157
11.05 -0.00134
11.1 -0.00207
11.15 -0.00164
11.2 -0.00077
11.25 -0.00001
11.3 0.00081
11.35 0.0003
11.4 -0.00052
11.45 0.00004
11.5 0.00134
11.55 0.00285
11.6 0.00261
11.65 0.00269
11.7 0.0029
11.75 0.00349
11.8 0.00431
11.85 0.00353
11.9 0.00184
11.95 -0.00007
12 -0.00227
12.05 -0.00456
12.1 -0.0063
12.15 -0.00796
12.2 -0.00843
12.25 -0.00886
12.3 -0.00757
12.35 -0.00643
12.4 -0.00522
12.45 -0.0038
12.5 -0.00306
12.55 -0.00299
12.6 -0.00275
12.65 -0.00261
12.7 -0.0024
12.75 -0.00133
12.8 -0.00118
12.85 -0.0007
12.9 -0.00123
12.95 -0.00244
13 -0.00385
13.05 -0.00351
13.1 -0.00328
13.15 -0.00244
13.2 -0.00103
13.25 -0.00032
13.3 0.00085
13.35 0.00057
13.4 0.00093
13.45 0.0019
13.5 0.0031
13.55 0.0032
13.6 0.00242
13.65 0.00154
13.7 0.00045
13.75 0.00083
13.8 0.00044
13.85 0.00076
13.9 0.00058
13.95 -0.00013
14 0.00052
14.05 0.00087
14.1 0.00149
14.15 0.00246
14.2 0.00203
14.25 0.00218
14.3 0.00107
14.35 0.00061
14.4 -0.00072
14.45 -0.00129
14.5 -0.00249
14.55 -0.00197
14.6 -0.00056
14.65 -0.00003
14.7 0.00081
14.75 0.00229
14.8 0.00237
14.85 0.00188
14.9 0.00167
14.95 0.00187
15 0.00226
15.05 0.00298
15.1 0.00403
15.15 0.00472
15.2 0.00563
15.25 0.00644
15.3 0.00618
15.35 0.00519
15.4 0.0038
15.45 0.00163
15.5 0.00041
15.55 -0.00078
15.6 -0.00094
15.65 -0.00118
15.7 -0.00188
15.75 -0.00119
15.8 -0.00007
15.85 0.00077
15.9 0.00162
15.95 0.00164
16 0.00204
16.05 0.00132
16.1 -0.00026
16.15 -0.00089
16.2 -0.0014
16.25 -0.00057
16.3 0.00035
16.35 0.00149
16.4 0.00203
16.45 0.00262
16.5 0.00308
16.55 0.00366
16.6 0.00278
16.65 0.0019
16.7 0.00132
16.75 0.00128
16.8 0.00174
16.85 0.00134
16.9 0.00168
16.95 0.0014
17 0.00017
17.05 -0.00044
17.1 -0.00186
17.15 -0.0023
17.2 -0.00298
17.25 -0.0031
17.3 -0.00274
17.35 -0.00179
17.4 -0.00009
17.45 0.00196
17.5 0.00288
17.55 0.00384
17.6 0.00485
17.65 0.00563
17.7 0.00488
17.75 0.00381
17.8 0.0022
17.85 0.00158
17.9 0.00134
17.95 0.00127
18 0.00138
18.05 0.00158
18.1 0.00191
18.15 0.00109
18.2 0.00012
18.25 -0.00098
18.3 -0.00151
18.35 -0.00105
18.4 -0.00171
18.45 -0.00225
18.5 -0.00349
18.55 -0.00506
18.6 -0.00587
18.65 -0.00625
18.7 -0.00613
18.75 -0.0053
18.8 -0.0048
18.85 -0.00414
18.9 -0.0026
18.95 -0.00152
19 -0.0016
19.05 -0.00109
19.1 -0.00135
19.15 -0.00084
19.2 -0.00114
19.25 -0.00149
19.3 -0.00219
19.35 -0.00219
19.4 -0.00118
19.45 -0.00134
19.5 -0.00209
19.55 -0.00304
19.6 -0.00231
19.65 -0.00073
19.7 0.00139
19.75 0.00359
19.8 0.00438
19.85 0.00531
19.9 0.00531
19.95 0.00582
20 0.00537
20.05 0.0053
20.1 0.0038
20.15 0.00222
20.2 0.00141
20.25 0.00127
20.3 0.00102
20.35 0.00071
20.4 0.00032
20.45 -0.0005
20.5 -0.00158
20.55 -0.00233
20.6 -0.00212
20.65 -0.00289
20.7 -0.00397
20.75 -0.00532
20.8 -0.00561
20.85 -0.00625
20.9 -0.00702
20.95 -0.00772
21 -0.00849
21.05 -0.00836
21.1 -0.0084
21.15 -0.00773
21.2 -0.00735
21.25 -0.00655
21.3 -0.00649
21.35 -0.00476
21.4 -0.00254
21.45 -0.00113
21.5 -0.00019
21.55 0.00021
21.6 -0.00017
21.65 -0.00049
21.7 -0.00021
21.75 0.00007
21.8 0.00057
21.85 -0.00016
21.9 -0.00053
21.95 -0.0017
22 -0.00214
22.05 -0.00174
22.1 -0.00141
22.15 -0.00188
22.2 -0.00164
22.25 -0.00049
22.3 0.00129
22.35 0.00144
22.4 0.00184
22.45 0.00158
22.5 0.00082
22.55 0.00026
22.6 -0.00069
22.65 -0.00078
22.7 0
22.75 -0.0005
22.8 -0.00107
22.85 -0.00181
22.9 -0.00237
22.95 -0.00256
23 -0.00282
23.05 -0.00259
23.1 -0.00188
23.15 -0.00011
23.2 0.00035
23.25 0.00002
23.3 0.00001
23.35 -0.00048
23.4 -0.00099
23.45 -0.00046
23.5 0.00078
23.55 0.00143
23.6 0.0016
23.65 0.00217
23.7 0.00166
23.75 0.00095
23.8 -0.00014
23.85 -0.00142
23.9 -0.00199
23.95 -0.00213
24 -0.00284
24.05 -0.00399
24.1 -0.004
24.15 -0.00314
24.2 -0.00269
24.25 -0.00314
24.3 -0.00258
24.35 -0.00195
24.4 -0.00109
24.45 -0.00038
24.5 0.00084
24.55 0.00233
24.6 0.00276
24.65 0.00302
24.7 0.00206
24.75 0.00158
24.8 0.00224
24.85 0.00162
24.9 0.00156
24.95 0.00226
25 0.00343
25.05 0.00309
25.1 0.00307
25.15 0.00302
25.2 0.00184
25.25 0.00077
25.3 0.00084
25.35 0.00003
25.4 -0.00088
25.45 -0.00075
25.5 0.00056
25.55 0.00105
25.6 0.00209
25.65 0.00253
25.7 0.00311
25.75 0.00225
25.8 0.00227
25.85 0.00236
25.9 0.00282
25.95 0.0029
26 0.00313
26.05 0.00397
26.1 0.00467
26.15 0.00394
26.2 0.00326
26.25 0.00241
26.3 0.00147
26.35 0.00066
26.4 -0.00035
26.45 -0.00164
26.5 -0.00329
26.55 -0.0049
26.6 -0.00486
26.65 -0.00516
26.7 -0.00472
26.75 -0.00435
26.8 -0.00275
26.85 -0.00124
26.9 0.00046
26.95 0.0008
27 0.00021
27.05 0.00083
27.1 0.00192
27.15 0.00172
27.2 0.00228
27.25 0.00306
27.3 0.0039
27.35 0.00383
27.4 0.00258
27.45 0.00105
27.5 0.00067
27.55 0.00076
27.6 0.0016
27.65 0.00211
27.7 0.00291
27.75 0.00307
27.8 0.00307
27.85 0.00272
27.9 0.00279
27.95 0.00206
28 0.00046
28.05 -0.00106
28.1 -0.00156
28.15 -0.00177
28.2 -0.00283
28.25 -0.00217
28.3 -0.00074
28.35 -0.00005
28.4 0.00042
28.45 0.00085
28.5 0.00046
28.55 -0.00041
28.6 -0.00077
28.65 0.00003
28.7 -0.00014
28.75 -0.00024
28.8 0.00062
28.85 0.00046
28.9 0.0004
28.95 -0.00039
29 -0.00032
29.05 -0.00061
29.1 -0.0009
29.15 -0.00019
29.2 -0.00023
29.25 -0.00046
29.3 0.00012
29.35 0.00053
29.4 0.00096
29.45 0.00024
29.5 -0.00013
29.55 -0.0011
29.6 -0.00069
29.65 -0.00049
29.7 0.00016
29.75 0.00114
29.8 0.00079
29.85 0.00156
29.9 0.00276
29.95 0.00425
30 0.00378
30.05 0.00262
30.1 0.00062
30.15 -0.00105
30.2 -0.00209
30.25 -0.0033
30.3 -0.0034
30.35 -0.00267
30.4 -0.00149
30.45 -0.00089
30.5 -0.00151
30.55 -0.00137
30.6 -0.00096
30.65 -0.0015
30.7 -0.00096
30.75 0.0002
30.8 -0.00004
30.85 0.00033
30.9 0.00129
30.95 0.00237
31 0.00313
31.05 0.00413
31.1 0.00342
31.15 0.00197
31.2 -0.00012
31.25 -0.00042
31.3 0.00046
31.35 0.0015
31.4 0.00217
31.45 0.00259
31.5 0.0027
31.55 0.00178
31.6 0.00123
31.65 -0.0002
31.7 -0.00149
31.75 -0.0025
31.8 -0.00291
31.85 -0.00202
31.9 -0.00181
31.95 -0.00052
32 0.00003
32.05 0.00114
32.1 0.00167
32.15 0.00139
32.2 0.00119
32.25 -0.00001
32.3 -0.00154
32.35 -0.00147
32.4 -0.00168
32.45 -0.00182
32.5 -0.00156
32.55 -0.00131
32.6 -0.00057
32.65 0.0006
32.7 0.00173
32.75 0.00298
32.8 0.00247
32.85 0.00218
32.9 0.00202
32.95 0.00126
33 0.00085
33.05 0.00063
33.1 -0.00017
33.15 -0.00091
33.2 -0.00126
33.25 -0.00041
33.3 0.00032
33.35 0.00156
33.4 0.00133
33.45 0.0006
33.5 -0.00015
33.55 -0.00109
33.6 -0.00087
33.65 0.0003
33.7 0.00183
33.75 0.00185
33.8 0.00272
33.85 0.00365
33.9 0.00465
33.95 0.00414
34 0.00238
34.05 0.00117
34.1 -0.00057
34.15 -0.00214
34.2 -0.00261
34.25 -0.00189
34.3 -0.00226
34.35 -0.00145
34.4 -0.00142
34.45 -0.00231
34.5 -0.00167
34.55 -0.00097
34.6 0.00027
34.65 0.00051
34.7 0.00158
34.75 0.00308
34.8 0.00455
34.85 0.00531
34.9 0.00609
34.95 0.00544
35 0.00475
35.05 0.00347
35.1 0.00223
35.15 0.00074
35.2 0.00072
35.25 0.00127
35.3 0.00126
35.35 0.00023
35.4 -0.00121
35.45 -0.0013
35.5 -0.00134
35.55 -0.00105
35.6 0.0002
35.65 0.00053
35.7 0.00086
35.75 0.00167
35.8 0.00265
35.85 0.00366
35.9 0.00454
35.95 0.00513
36 0.0045
36.05 0.00357
36.1 0.00152
36.15 0.00037
36.2 -0.00002
36.25 -0.00079
36.3 -0.00106
36.35 -0.00231
36.4 -0.00364
36.45 -0.00535
36.5 -0.00644
36.55 -0.00583
36.6 -0.00436
36.65 -0.00329
36.7 -0.0025
36.75 -0.00124
36.8 -0.00021
36.85 0.00095
36.9 0.0011
36.95 0.00179
37 0.00143
37.05 0.00009
37.1 -0.0003
37.15 0.00026
37.2 0.0006
37.25 -0.00011
37.3 -0.00034
37.35 0.00015
37.4 -0.00056
37.45 -0.00182
37.5 -0.00164
37.55 -0.00172
37.6 -0.00123
37.65 -0.00054
37.7 -0.00005
37.75 -0.00041
37.8 -0.00024
37.85 -0.00064
37.9 -0.00047
37.95 0.00019
38 0.00106
38.05 0.0006
38.1 -0.0009
38.15 -0.00288
38.2 -0.00365
38.25 -0.00483
38.3 -0.00445
38.35 -0.0032
38.4 -0.0017
38.45 -0.00004
38.5 0.00176
38.55 0.00221
38.6 0.00321
38.65 0.0044
38.7 0.00497
38.75 0.00567
38.8 0.0047
38.85 0.00255
38.9 0.00072
38.95 -0.0015
39 -0.00318
39.05 -0.00421
39.1 -0.00475
39.15 -0.00502
39.2 -0.00578
39.25 -0.00675
39.3 -0.00578
39.35 -0.00469
39.4 -0.00471
39.45 -0.00329
39.5 -0.0031
39.55 -0.00189
39.6 -0.0008
39.65 0.00082
39.7 0.00235
39.75 0.00265
39.8 0.00183
39.85 0.00133
39.9 0.00164
39.95 0.00243
40 0.0026
40.05 0.00225
40.1 0.00273
40.15 0.00197
40.2 0.00052
40.25 -0.00096
40.3 -0.00111
40.35 -0.00025
40.4 -0.00057
40.45 -0.00133
40.5 -0.00156
40.55 -0.00238
40.6 -0.00356
40.65 -0.0032
40.7 -0.00371
40.75 -0.00365
40.8 -0.0042
40.85 -0.00455
40.9 -0.00461
40.95 -0.00366
41 -0.00272
41.05 -0.00141
41.1 -0.00142
41.15 -0.00197
41.2 -0.00255
41.25 -0.00228
41.3 -0.00153
41.35 -0.00194
41.4 -0.00165
41.45 -0.00133
41.5 -0.00051
41.55 -0.00031
41.6 0.00011
41.65 0.00104
41.7 0.00109
41.75 0.00209
41.8 0.00216
41.85 0.00205
41.9 0.00238
41.95 0.00141
42 0.00016
42.05 -0.00127
42.1 -0.00102
42.15 0.00018
42.2 0.00039
42.25 -0.00034
42.3 -0.00117
42.35 -0.00245
42.4 -0.00353
42.45 -0.00293
42.5 -0.00208
42.55 -0.00101
42.6 0.00064
42.65 0.00247
42.7 0.00439
42.75 0.00538
42.8 0.00622
42.85 0.00623
42.9 0.00548
42.95 0.00445
43 0.0031
43.05 0.00251
43.1 0.00197
43.15 0.0011
43.2 0.00147
43.25 0.00262
43.3 0.00336
43.35 0.00296
43.4 0.00174
43.45 0.00084
43.5 -0.0006
43.55 -0.00143
43.6 -0.00108
43.65 -0.00064
43.7 0.00033
43.75 0.00124
43.8 0.00077
43.85 -0.00038
43.9 -0.00051
43.95 -0.00157
44 -0.00209
44.05 -0.00303
44.1 -0.00317
44.15 -0.00199
44.2 -0.00209
44.25 -0.00138
44.3 -0.00107
44.35 -0.00165
44.4 -0.00238
44.45 -0.00173
44.5 -0.00218
44.55 -0.00262
44.6 -0.0019
44.65 -0.00123
44.7 -0.00174
44.75 -0.00149
44.8 -0.00089
44.85 -0.00038
44.9 0.00005
44.95 0.00072
45 0.00207
45.05 0.00245
45.1 0.00268
45.15 0.00307
45.2 0.00332
45.25 0.00345
45.3 0.00231
45.35 0.00054
45.4 0.00004
45.45 0.0003
45.5 0.00076
45.55 0.00153
45.6 0.00135
45.65 0.00047
45.7 -0.0003
45.75 -0.0001
45.8 0.00045
45.85 0.00153
45.9 0.00194
45.95 0.00235
46 0.00263
46.05 0.00168
46.1 0.00014
46.15 -0.00012
46.2 -0.00077
46.25 -0.00209
46.3 -0.00211
46.35 -0.00288
46.4 -0.0029
46.45 -0.00325
46.5 -0.00244
46.55 -0.00282
46.6 -0.00306
46.65 -0.00215
46.7 -0.00063
46.75 -0.00064
46.8 -0.00064
46.85 0.00027
46.9 0.00008
46.95 -0.00104
47 -0.00267
47.05 -0.00242
47.1 -0.00191
47.15 -0.00059
47.2 0.00045
47.25 0.00177
47.3 0.00334
47.35 0.00459
47.4 0.00473
47.45 0.00527
47.5 0.00532
47.55 0.00454
47.6 0.00449
47.65 0.00507
47.7 0.00588
47.75 0.0059
47.8 0.00527
47.85 0.00517
47.9 0.00518
47.95 0.00491
48 0.00471
48.05 0.00378
48.1 0.00231
48.15 0.00162
48.2 0.00104
48.25 0.00093
48.3 0.00103
48.35 0.00054
48.4 0.00088
48.45 0.00002
48.5 -0.00012
48.55 0.00063
48.6 0.00122
48.65 0.00213
48.7 0.00262
48.75 0.00237
48.8 0.00248
48.85 0.00283
48.9 0.00158
48.95 0.00016
49 -0.00085
49.05 -0.00115
49.1 -0.00241
49.15 -0.00294
49.2 -0.00371
49.25 -0.00346
49.3 -0.0025
49.35 -0.0013
49.4 -0.00095
49.45 -0.00171
49.5 -0.00162
49.55 -0.00155
49.6 -0.00108
49.65 -0.00028
49.7 -0.00069
49.75 -0.00107
49.8 -0.0017
49.85 -0.00203
49.9 -0.00173
49.95 -0.00172
50 -0.00249
50.05 -0.00362
50.1 -0.00322
50.15 -0.00191
50.2 -0.00036
50.25 0.00058
50.3 0.00114
50.35 0.00034
50.4 -0.00112
50.45 -0.00104
50.5 -0.00174
50.55 -0.0012
50.6 -0.00006
50.65 0.00135
50.7 0.00188
50.75 0.0015
50.8 0.00181
50.85 0.00226
50.9 0.00148
50.95 0.00005
51 -0.00057
51.05 -0.00185
51.1 -0.00272
51.15 -0.00399
51.2 -0.00443
51.25 -0.00434
51.3 -0.00417
51.35 -0.00472
51.4 -0.00426
51.45 -0.00382
51.5 -0.00265
51.55 -0.00108
51.6 -0.0009
51.65 -0.00033
51.7 0.00025
51.75 0.00154
51.8 0.00207
51.85 0.00209
51.9 0.00198
51.95 0.00254
52 0.00329
52.05 0.00336
52.1 0.00215
52.15 0.00156
52.2 0.00013
52.25 -0.00194
52.3 -0.00277
52.35 -0.00387
52.4 -0.00471
52.45 -0.00547
52.5 -0.00593
52.55 -0.00521
52.6 -0.00504
52.65 -0.00412
52.7 -0.00303
52.75 -0.00278
52.8 -0.00296
52.85 -0.00183
52.9 -0.00146
52.95 -0.00105
53 0.00021
53.05 0.00169
53.1 0.00226
53.15 0.00332
53.2 0.00317
53.25 0.00306
53.3 0.00205
53.35 0.001
53.4 0.00089
53.45 -0.00015
53.5 -0.00014
53.55 -0.00081
53.6 -0.00172
53.65 -0.00299
53.7 -0.00315
53.75 -0.0022
53.8 -0.00061
53.85 -0.00066
53.9 -0.00168
53.95 -0.00208
54 -0.00292
54.05 -0.00221
54.1 -0.0006
54.15 0.0008
54.2 0.00174
54.25 0.00302
54.3 0.0033
54.35 0.00283
54.4 0.00232
54.45 0.0015
54.5 0.00065
54.55 0.00058
54.6 0.00146
54.65 0.00131
54.7 0.0009
54.75 -0.00009
54.8 -0.00029
54.85 0.00063
54.9 0.00086
54.95 0.0012
55 0.00053
55.05 0.00014
55.1 0.00024
55.15 0.00041
55.2 0.00056
55.25 -0.00017
55.3 -0.00125
55.35 -0.0023
55.4 -0.00216
55.45 -0.00165
55.5 -0.00132
55.55 -0.0016
55.6 -0.00122
55.65 -0.00118
55.7 -0.00135
55.75 -0.00099
55.8 -0.0018
55.85 -0.00203
55.9 -0.00283
55.95 -0.00258
56 -0.00329
56.05 -0.00335
56.1 -0.00415
56.15 -0.0039
56.2 -0.00358
56.25 -0.00273
56.3 -0.00295
56.35 -0.00204
56.4 -0.00086
56.45 -0.00082
56.5 -0.00102
56.55 -0.00213
56.6 -0.0036
56.65 -0.00394
56.7 -0.00288
56.75 -0.00236
56.8 -0.00236
56.85 -0.00302
56.9 -0.00246
56.95 -0.00258
57 -0.00145
57.05 -0.00083
57.1 -0.00088
57.15 -0.00037
57.2 -0.00087
57.25 -0.001
57.3 -0.001
57.35 -0.00025
57.4 0.00127
57.45 0.00125
57.5 0.00054
57.55 -0.0006
57.6 -0.0009
57.65 -0.00129
57.7 -0.00072
57.75 0.00035
57.8 0.00108
57.85 0.00232
57.9 0.00211
57.95 0.00177
58 0.00103
58.05 -0.0004
58.1 -0.00191
58.15 -0.00364
58.2 -0.00419
58.25 -0.00493
58.3 -0.00543
58.35 -0.0042
58.4 -0.00348
58.45 -0.00159
58.5 -0.00114
58.55 -0.00162
58.6 -0.00187
58.65 -0.00152
58.7 -0.00034
58.75 0.00038
58.8 0.00098
58.85 0.00042
58.9 0.00041
58.95 0.0015
59 0.00115
59.05 0.00006
59.1 -0.00129
59.15 -0.0025
59.2 -0.00351
59.25 -0.00394
59.3 -0.00424
59.35 -0.00385
59.4 -0.0036
59.45 -0.00331
59.5 -0.00276
59.55 -0.00283
59.6 -0.00279
59.65 -0.00319
59.7 -0.00324
59.75 -0.00394
59.8 -0.00502
59.85 -0.00524
59.9 -0.00536
59.95 -0.00525
60 -0.00494
60.05 -0.00332
60.1 -0.0027
60.15 -0.00249
60.2 -0.00215
60.25 -0.00074
60.3 -0.00067
60.35 0.00024
60.4 -0.00005
60.45 -0.00013
60.5 -0.00095
60.55 -0.00147
60.6 -0.00184
60.65 -0.00084
60.7 -0.00059
60.75 0.00062
60.8 0.00139
60.85 0.00155
60.9 0.0017
60.95 0.00209
61 0.00187
61.05 0.00101
61.1 0.00141
61.15 0.00257
61.2 0.00359
61.25 0.00483
61.3 0.00428
61.35 0.00365
61.4 0.00309
61.45 0.00221
61.5 0.00081
61.55 -0.00031
61.6 -0.0014
61.65 -0.00189
61.7 -0.00134
61.75 -0.00163
61.8 -0.0022
61.85 -0.00222
61.9 -0.00269
61.95 -0.00209
62 -0.00245
62.05 -0.00226
62.1 -0.00236
62.15 -0.00199
62.2 -0.00084
62.25 0.00048
62.3 0.00219
62.35 0.00224
62.4 0.0027
62.45 0.00373
62.5 0.00451
62.55 0.00514
62.6 0.00444
62.65 0.00287
62.7 0.00242
62.75 0.00098
62.8 -0.0003
62.85 0.00006
62.9 0.00025
62.95 0.00008
63 -0.00009
63.05 0.00053
63.1 0.00073
63.15 0.00153
63.2 0.00262
63.25 0.00223
63.3 0.00285
63.35 0.00204
63.4 0.00165
63.45 0.00122
63.5 0.00171
63.55 0.0012
63.6 0.00086
63.65 -0.00006
63.7 -0.00003
63.75 -0.00097
63.8 -0.00063
63.85 -0.001
63.9 -0.00042
63.95 0.0006
64 0.00205
64.05 0.0032
64.1 0.00326
64.15 0.00414
64.2 0.00497
64.25 0.00463
64.3 0.00454
64.35 0.00306
64.4 0.00202
64.45 0.00025
64.5 -0.00173
64.55 -0.00379
64.6 -0.00479
64.65 -0.0048
64.7 -0.00536
64.75 -0.00517
64.8 -0.0043
64.85 -0.00287
64.9 -0.00184
64.95 -0.00133
65 -0.00052
65.05 -0.00018
65.1 0.00101
65.15 0.00103
65.2 0.00072
65.25 0.00033
65.3 -0.00054
65.35 -0.00148
65.4 -0.00152
65.45 -0.00087
65.5 -0.00106
65.55 -0.00144
65.6 -0.00143
65.65 -0.00047
65.7 0.00056
65.75 0.00018
65.8 0.00009
65.85 0.00075
65.9 0.00142
65.95 0.00201
66 0.0024
66.05 0.00337
66.1 0.0047
66.15 0.00423
66.2 0.00342
66.25 0.00295
66.3 0.00267
66.35 0.0025
66.4 0.0025
66.45 0.00285
66.5 0.00341
66.55 0.00374
66.6 0.00357
66.65 0.00227
66.7 0.00068
66.75 0.00053
66.8 0.00128
66.85 0.00184
66.9 0.00222
66.95 0.00259
67 0.00163
67.05 0.00043
67.1 0.00039
67.15 0.0009
67.2 0.0004
67.25 -0.00031
67.3 -0.00151
67.35 -0.00249
67.4 -0.00207
67.45 -0.00103
67.5 0.00026
67.55 0.00004
67.6 0.00034
67.65 0.00056
67.7 0.00032
67.75 0.00009
67.8 0.00055
67.85 0.00152
67.9 0.00105
67.95 0.00019
68 -0.00071
68.05 -0.0014
68.1 -0.00178
68.15 -0.00254
68.2 -0.0029
68.25 -0.00391
68.3 -0.00458
68.35 -0.00477
68.4 -0.00407
68.45 -0.00233
68.5 -0.00049
68.55 0.00138
68.6 0.00164
68.65 0.00271
68.7 0.00262
68.75 0.00286
68.8 0.00185
68.85 0.00212
68.9 0.00172
68.95 0.00186
69 0.00077
69.05 0.00001
69.1 -0.00035
69.15 -0.00018
69.2 0.00099
69.25 0.00124
69.3 0.00087
69.35 -0.00024
69.4 -0.00168
69.45 -0.00332
69.5 -0.00474
69.55 -0.00525
69.6 -0.00466
69.65 -0.00308
69.7 -0.00168
69.75 0.00036
69.8 0.002
69.85 0.00227
69.9 0.00315
69.95 0.00407
70 0.00443
70.05 0.00383
70.1 0.00232
70.15 0.00055
70.2 0.00028
70.25 0.00024
70.3 -0.00062
70.35 -0.00158
70.4 -0.00132
70.45 -0.00166
70.5 -0.00119
70.55 -0.00039
70.6 0.00125
70.65 0.00308
70.7 0.0049
70.75 0.00608
70.8 0.00669
70.85 0.00609
70.9 0.00571
70.95 0.00531
71 0.0042
71.05 0.00339
71.1 0.00163
71.15 -0.0001
71.2 -0.00212
71.25 -0.00379
71.3 -0.00543
71.35 -0.00651
71.4 -0.00674
71.45 -0.00693
71.5 -0.00617
71.55 -0.0051
71.6 -0.00318
71.65 -0.00282
71.7 -0.00196
71.75 -0.00254
71.8 -0.00341
71.85 -0.00411
71.9 -0.00419
71.95 -0.00536
72 -0.00581
72.05 -0.0062
72.1 -0.00742
72.15 -0.00868
72.2 -0.00997
72.25 -0.01287
72.3 -0.0164
72.35 -0.02147
72.4 -0.02768
72.45 -0.03344
72.5 -0.04087
72.55 -0.05002
72.6 -0.05854
72.65 -0.06821
72.7 -0.07824
72.75 -0.08916
72.8 -0.10217
72.85 -0.11769
72.9 -0.13535
72.95 -0.15465
73 -0.17562
73.05 -0.19766
73.1 -0.22155
73.15 -0.24685
73.2 -0.27373
73.25 -0.30168
73.3 -0.33052
73.35 -0.36117
73.4 -0.39245
73.45 -0.42508
73.5 -0.45746
73.55 -0.48955
73.6 -0.5213
73.65 -0.55317
73.7 -0.58273
73.75 -0.61121
73.8 -0.63647
73.85 -0.65854
73.9 -0.67794
73.95 -0.69288
74 -0.70323
74.05 -0.70884
74.1 -0.70981
74.15 -0.70683
74.2 -0.69894
74.25 -0.68637
74.3 -0.66944
74.35 -0.64655
74.4 -0.61908
74.45 -0.58549
74.5 -0.54697
74.55 -0.50548
74.6 -0.45983
74.65 -0.4101
74.7 -0.35753
74.75 -0.30251
74.8 -0.24545
74.85 -0.18724
74.9 -0.12942
74.95 -0.07286
75 -0.01679
75.05 0.03771
75.1 0.09151
75.15 0.14349
75.2 0.19368
75.25 0.23985
75.3 0.28327
75.35 0.32445
75.4 0.36229
75.45 0.39567
75.5 0.42678
75.55 0.4542
75.6 0.47935
75.65 0.50181
75.7 0.51929
75.75 0.53377
75.8 0.54475
75.85 0.5534
75.9 0.55963
75.95 0.56382
76 0.56544
76.05 0.56688
76.1 0.56636
76.15 0.56486
76.2 0.56194
76.25 0.55689
76.3 0.55144
76.35 0.54447
76.4 0.53762
76.45 0.53008
76.5 0.52207
76.55 0.51346
76.6 0.50608
76.65 0.49933
76.7 0.49182
76.75 0.48466
76.8 0.47763
76.85 0.47038
76.9 0.46168
76.95 0.45255
77 0.4436
77.05 0.43462
77.1 0.4243
77.15 0.41418
77.2 0.40258
77.25 0.39
77.3 0.37843
77.35 0.36785
77.4 0.35687
77.45 0.34557
77.5 0.33504
77.55 0.32452
77.6 0.3139
77.65 0.30257
77.7 0.29093
77.75 0.27965
77.8 0.26911
77.85 0.25964
77.9 0.25101
77.95 0.24243
78 0.2342
78.05 0.22474
78.1 0.21461
78.15 0.20546
78.2 0.19588
78.25 0.18676
78.3 0.17726
78.35 0.1693
78.4 0.16096
78.45 0.15248
78.5 0.14504
78.55 0.13674
78.6 0.1285
78.65 0.12055
78.7 0.11209
78.75 0.10427
78.8 0.09796
78.85 0.09067
78.9 0.08287
78.95 0.07465
79 0.06839
79.05 0.062
79.1 0.05596
79.15 0.0506
79.2 0.04422
79.25 0.03752
79.3 0.03209
79.35 0.02784
79.4 0.02407
79.45 0.0199
79.5 0.0154
79.55 0.01031
79.6 0.0043
79.65 -0.00113
79.7 -0.00725
79.75 -0.01243
79.8 -0.01777
79.85 -0.02306
79.9 -0.02802
79.95 -0.03227
80 -0.03531
80.05 -0.03712
80.1 -0.0389
80.15 -0.0407
80.2 -0.04298
80.25 -0.04525
80.3 -0.04771
80.35 -0.04987
80.4 -0.05337
80.45 -0.05662
80.5 -0.06026
80.55 -0.0635
80.6 -0.06543
80.65 -0.06668
80.7 -0.06832
80.75 -0.06974
80.8 -0.07014
80.85 -0.06991
80.9 -0.07112
80.95 -0.07143
81 -0.07166
81.05 -0.07289
81.1 -0.07325
81.15 -0.07471
81.2 -0.0762
81.25 -0.07833
81.3 -0.08032
81.35 -0.08103
81.4 -0.08089
81.45 -0.08033
81.5 -0.0807
81.55 -0.08016
81.6 -0.08044
81.65 -0.08135
81.7 -0.0814
81.75 -0.08142
81.8 -0.07996
81.85 -0.07877
81.9 -0.07826
81.95 -0.07769
82 -0.07608
82.05 -0.07385
82.1 -0.07228
82.15 -0.07107
82.2 -0.07075
82.25 -0.06973
82.3 -0.06828
82.35 -0.06673
82.4 -0.06636
82.45 -0.06624
82.5 -0.06542
82.55 -0.06572
82.6 -0.06482
82.65 -0.06409
82.7 -0.06302
82.75 -0.06133
82.8 -0.05917
82.85 -0.0579
82.9 -0.05714
82.95 -0.0571
83 -0.05786
83.05 -0.05848
83.1 -0.05839
83.15 -0.05795
83.2 -0.0575
83.25 -0.05604
83.3 -0.05405
83.35 -0.05219
83.4 -0.0511
83.45 -0.05109
83.5 -0.05035
83.55 -0.04948
83.6 -0.04826
83.65 -0.04688
83.7 -0.0458
83.75 -0.04521
83.8 -0.04471
83.85 -0.0445
83.9 -0.04516
83.95 -0.04593
84 -0.04623
84.05 -0.04669
84.1 -0.04728
84.15 -0.04621
84.2 -0.04436
84.25 -0.04281
84.3 -0.04113
84.35 -0.03968
84.4 -0.03913
84.45 -0.0389
84.5 -0.03859
84.55 -0.0389
84.6 -0.03841
84.65 -0.03878
84.7 -0.03804
84.75 -0.03789
84.8 -0.0372
84.85 -0.03578
84.9 -0.03358
84.95 -0.03297
85 -0.03141
85.05 -0.03049
85.1 -0.02914
85.15 -0.02764
85.2 -0.02642
85.25 -0.02513
85.3 -0.02373
85.35 -0.02374
85.4 -0.02357
85.45 -0.02336
85.5 -0.02466
85.55 -0.02676
85.6 -0.02726
85.65 -0.02858
85.7 -0.02965
85.75 -0.03106
85.8 -0.03202
85.85 -0.03265
85.9 -0.03208
85.95 -0.03049
86 -0.02911
86.05 -0.02819
86.1 -0.02665
86.15 -0.02565
86.2 -0.02508
86.25 -0.02481
86.3 -0.02355
86.35 -0.02316
86.4 -0.02321
86.45 -0.02196
86.5 -0.02001
86.55 -0.01772
86.6 -0.01631
86.65 -0.01668
86.7 -0.01711
86.75 -0.01825
86.8 -0.01872
86.85 -0.01948
86.9 -0.02012
86.95 -0.01987
87 -0.0202
87.05 -0.0201
87.1 -0.01937
87.15 -0.01764
87.2 -0.01577
87.25 -0.01534
87.3 -0.01583
87.35 -0.01637
87.4 -0.0163
87.45 -0.01516
87.5 -0.0141
87.55 -0.01352
87.6 -0.01226
87.65 -0.01246
87.7 -0.0132
87.75 -0.0132
87.8 -0.0136
87.85 -0.01411
87.9 -0.01522
87.95 -0.01476
88 -0.01351
88.05 -0.01157
88.1 -0.01092
88.15 -0.01089
88.2 -0.01065
88.25 -0.0095
88.3 -0.00958
88.35 -0.00891
88.4 -0.00823
88.45 -0.00822
88.5 -0.00831
88.55 -0.00935
88.6 -0.00962
88.65 -0.00943
88.7 -0.01015
88.75 -0.01035
88.8 -0.01067
88.85 -0.01029
88.9 -0.01104
88.95 -0.01175
89 -0.01217
89.05 -0.01273
89.1 -0.01225
89.15 -0.01167
89.2 -0.0101
89.25 -0.00806
89.3 -0.0068
89.35 -0.00603
89.4 -0.00665
89.45 -0.007
89.5 -0.00689
89.55 -0.0066
89.6 -0.00735
89.65 -0.00843
89.7 -0.00808
89.75 -0.00851
89.8 -0.00868
89.85 -0.00897
89.9 -0.00943
89.95 -0.00976
90 -0.01026
90.05 -0.01012
90.1 -0.01008
90.15 -0.00889
90.2 -0.00848
90.25 -0.00814
90.3 -0.007
90.35 -0.00603
90.4 -0.0047
90.45 -0.00342
90.5 -0.00333
90.55 -0.00337
90.6 -0.00315
90.65 -0.00431
90.7 -0.00441
90.75 -0.00403
90.8 -0.00428
90.85 -0.00554
90.9 -0.0073
90.95 -0.00875
91 -0.00838
91.05 -0.00792
91.1 -0.00643
91.15 -0.00489
91.2 -0.00367
91.25 -0.00224
91.3 -0.00066
91.35 0.00073
91.4 0.00077
91.45 0.00076
91.5 -0.00022
91.55 -0.00226
91.6 -0.00388
91.65 -0.00528
91.7 -0.00666
91.75 -0.0072
91.8 -0.00628
91.85 -0.00527
91.9 -0.00499
91.95 -0.00506
92 -0.00548
92.05 -0.00577
92.1 -0.00649
92.15 -0.0074
92.2 -0.0085
92.25 -0.00838
92.3 -0.00747
92.35 -0.0057
92.4 -0.00462
92.45 -0.00464
92.5 -0.00541
92.55 -0.00559
92.6 -0.00535
92.65 -0.00441
92.7 -0.00343
92.75 -0.00365
92.8 -0.00353
92.85 -0.00305
92.9 -0.00285
92.95 -0.00344
93 -0.00322
93.05 -0.0039
93.1 -0.00427
93.15 -0.00435
93.2 -0.00403
93.25 -0.00332
93.3 -0.0029
93.35 -0.00203
93.4 -0.00155
93.45 -0.00094
93.5 -0.00132
93.55 -0.00154
93.6 -0.00145
93.65 -0.00241
93.7 -0.0034
93.75 -0.00386
93.8 -0.00506
93.85 -0.00643
93.9 -0.00728
93.95 -0.00768
94 -0.00725
94.05 -0.00578
94.1 -0.00369
94.15 -0.00173
94.2 -0.00115
94.25 0.00003
94.3 0.00107
94.35 0.00065
94.4 -0.00054
94.45 -0.00115
94.5 -0.00239
94.55 -0.00293
94.6 -0.00278
94.65 -0.00264
94.7 -0.00293
94.75 -0.00301
94.8 -0.00269
94.85 -0.00168
94.9 -0.00006
94.95 -0.00004
95 0.00033
95.05 0.00068
95.1 0.00132
95.15 0.00077
95.2 -0.00071
95.25 -0.00088
95.3 -0.0004
95.35 0.00026
95.4 0.00136
95.45 0.00096
95.5 0.00094
95.55 0.00056
95.6 0.00047
95.65 0.00027
95.7 -0.00015
95.75 -0.00117
95.8 -0.00174
95.85 -0.00198
95.9 -0.00265
95.95 -0.00327
96 -0.00319
96.05 -0.00352
96.1 -0.00279
96.15 -0.00231
96.2 -0.00238
96.25 -0.00136
96.3 -0.00146
96.35 -0.00193
96.4 -0.00194
96.45 -0.00097
96.5 0.00036
96.55 0.00077
96.6 0.00056
96.65 0.00006
96.7 -0.001
96.75 -0.00218
96.8 -0.00356
96.85 -0.00481
96.9 -0.00619
96.95 -0.00611
97 -0.00472
97.05 -0.00287
97.1 -0.00171
97.15 -0.00034
97.2 0.00126
97.25 0.00137
97.3 0.00161
97.35 0.00163
97.4 0.00189
97.45 0.0023
97.5 0.00245
97.55 0.00136
97.6 -0.00019
97.65 -0.00097
97.7 -0.00216
97.75 -0.0023
97.8 -0.00258
97.85 -0.0023
97.9 -0.00271
97.95 -0.00376
98 -0.00326
98.05 -0.00279
98.1 -0.00318
98.15 -0.0021
98.2 -0.00139
98.25 -0.0013
98.3 -0.00102
98.35 -0.0001
98.4 -0.00034
98.45 -0.00146
98.5 -0.00104
98.55 -0.00012
98.6 -0.00058
98.65 -0.00018
98.7 0.00108
98.75 0.0028
98.8 0.00386
98.85 0.00476
98.9 0.00496
98.95 0.00415
99 0.00288
99.05 0.00236
99.1 0.00224
99.15 0.00193
99.2 0.00184
99.25 0.00103
99.3 0.0012
99.35 0.00206
99.4 0.00281
99.45 0.00324
99.5 0.00384
99.55 0.00472
99.6 0.00422
99.65 0.00303
99.7 0.00164
99.75 0.00132
99.8 0.00018
99.85 0.00014
99.9 0.00056
99.95 0.00133
