0 0
0.05 0.00016
0.1 0.00061
0.15 0.00099
0.2 0.00185
0.25 0.00314
0.3 0.00389
0.35 0.0041
0.4 0.00411
0.45 0.00427
0.5 0.00461
0.55 0.00443
0.6 0.00427
0.65 0.00435
0.7 0.0044
0.75 0.00447
0.8 0.00433
0.85 0.00426
0.9 0.00403
0.95 0.0036
1 0.00346
1.05 0.00374
1.1 0.00388
1.15 0.00444
1.2 0.00462
1.25 0.00445
1.3 0.00434
1.35 0.00425
1.4 0.00423
1.45 0.0039
1.5 0.00375
1.55 0.0034
1.6 0.00299
1.65 0.00309
1.7 0.00355
1.75 0.00343
1.8 0.00292
1.85 0.00262
1.9 0.00249
1.95 0.00288
2 0.00344
2.05 0.00415
2.1 0.00428
2.15 0.00401
2.2 0.00367
2.25 0.00367
2.3 0.00333
2.35 0.00337
2.4 0.00365
2.45 0.00353
2.5 0.0036
2.55 0.00383
2.6 0.004
2.65 0.00365
2.7 0.0031
2.75 0.00323
2.8 0.00302
2.85 0.00239
2.9 0.00171
2.95 0.00112
3 0.00054
3.05 0.00076
3.1 0.00135
3.15 0.00171
3.2 0.00252
3.25 0.00293
3.3 0.00352
3.35 0.00381
3.4 0.00348
3.45 0.00356
3.5 0.00309
3.55 0.00234
3.6 0.00234
3.65 0.00272
3.7 0.00294
3.75 0.00336
3.8 0.00347
3.85 0.0034
3.9 0.00353
3.95 0.0036
4 0.00329
4.05 0.00307
4.1 0.00272
4.15 0.00264
4.2 0.00273
4.25 0.00256
4.3 0.0021
4.35 0.00189
4.4 0.00195
4.45 0.00172
4.5 0.00125
4.55 0.00098
4.6 0.00041
4.65 0.00035
4.7 0.00039
4.75 0.00094
4.8 0.00159
4.85 0.00198
4.9 0.00223
4.95 0.00185
5 0.00143
5.05 0.00118
5.1 0.0013
5.15 0.00139
5.2 0.00189
5.25 0.00243
5.3 0.00257
5.35 0.00302
5.4 0.00308
5.45 0.0028
5.5 0.0028
5.55 0.0029
5.6 0.00287
5.65 0.00272
5.7 0.00199
5.75 0.00158
5.8 0.00154
5.85 0.00153
5.9 0.00183
5.95 0.00153
6 0.00139
6.05 0.00139
6.1 0.00167
6.15 0.00196
6.2 0.00166
6.25 0.00188
6.3 0.00205
6.35 0.00205
6.4 0.00216
6.45 0.00197
6.5 0.00222
6.55 0.0021
6.6 0.00149
6.65 0.00081
6.7 0.00042
6.75 -0.00024
6.8 -0.00037
6.85 -0.00059
6.9 -0.00077
6.95 -0.00046
7 -0.00054
7.05 -0.00011
7.1 0.00053
7.15 0.0007
7.2 0.00059
7.25 0.00073
7.3 0.00109
7.35 0.0014
7.4 0.00143
7.45 0.00093
7.5 0.0001
7.55 -0.00067
7.6 -0.00089
7.65 -0.00054
7.7 -0.00042
7.75 0.00012
7.8 0.00025
7.85 -0.00002
7.9 0.00033
7.95 0.00026
8 -0.0001
8.05 -0.00002
8.1 0.00035
8.15 0.00025
8.2 0.00027
8.25 0.00042
8.3 0.00028
8.35 0.00001
8.4 -0.00022
8.45 -0.00035
8.5 -0.00053
8.55 -0.00081
8.6 -0.0004
8.65 -0.00025
8.7 -0.00054
8.75 -0.00053
8.8 -0.00054
8.85 -0.00091
8.9 -0.00097
8.95 -0.00061
9 0.00014
9.05 0.00071
9.1 0.00073
9.15 0.0011
9.2 0.00099
9.25 0.00136
9.3 0.00196
9.35 0.00249
9.4 0.00289
9.45 0.00302
9.5 0.00272
9.55 0.00185
9.6 0.00073
9.65 -0.00045
9.7 -0.00112
9.75 -0.00114
9.8 -0.00093
9.85 -0.00088
9.9 -0.00102
9.95 -0.00125
10 -0.00138
10.05 -0.00147
10.1 -0.00142
10.15 -0.0012
10.2 -0.0007
10.25 -0.00061
10.3 -0.00039
10.35 -0.00009
10.4 0.00016
10.45 0.00005
10.5 0.0004
10.55 0.00067
10.6 0.00074
10.65 0.00123
10.7 0.0015
10.75 0.00115
10.8 0.00106
10.85 0.00119
10.9 0.00142
10.95 0.00185
11 0.00216
11.05 0.00202
11.1 0.00158
11.15 0.0014
11.2 0.00104
11.25 0.00076
11.3 0.00073
11.35 0.00071
11.4 0.00056
11.45 0.00067
11.5 0.00051
11.55 0.00021
11.6 0.00011
11.65 -0.00008
11.7 -0.00046
11.75 -0.00091
11.8 -0.00098
11.85 -0.00091
11.9 -0.00079
11.95 -0.00031
12 0.00028
12.05 0.00082
12.1 0.00124
12.15 0.00158
12.2 0.00133
12.25 0.00067
12.3 0.00057
12.35 -0.00001
12.4 -0.00081
12.45 -0.00127
12.5 -0.00194
12.55 -0.00231
12.6 -0.00226
12.65 -0.00208
12.7 -0.0021
12.75 -0.00179
12.8 -0.0016
12.85 -0.00092
12.9 -0.00021
12.95 -0.00017
13 -0.00006
13.05 0.00001
13.1 -0.00034
13.15 -0.00002
13.2 0.00016
13.25 0.00031
13.3 0.00081
13.35 0.00109
13.4 0.00151
13.45 0.00123
13.5 0.00101
13.55 0.0006
13.6 0.00044
13.65 0.00081
13.7 0.00103
13.75 0.00066
13.8 0.00021
13.85 0.00025
13.9 -0
13.95 -0.00002
14 0.00032
14.05 0.00004
14.1 -0
14.15 0.00023
14.2 0.00036
14.25 0.00013
14.3 -0.00043
14.35 -0.00115
14.4 -0.00188
14.45 -0.00237
14.5 -0.00287
14.55 -0.00259
14.6 -0.00243
14.65 -0.00183
14.7 -0.00138
14.75 -0.00072
14.8 -0.00019
14.85 -0.00021
14.9 -0.00048
14.95 -0.00064
15 -0.00038
15.05 0.00014
15.1 0.00089
15.15 0.00103
15.2 0.00103
15.25 0.00048
15.3 -0.00008
15.35 -0.0008
15.4 -0.0008
15.45 -0.0008
15.5 -0.00106
15.55 -0.00146
15.6 -0.00129
15.65 -0.00149
15.7 -0.00185
15.75 -0.00149
15.8 -0.00147
15.85 -0.00172
15.9 -0.00173
15.95 -0.00127
16 -0.00059
16.05 -0.00046
16.1 -0.00038
16.15 -0.00043
16.2 0.00004
16.25 0.00067
16.3 0.00153
16.35 0.00203
16.4 0.00262
16.45 0.00281
16.5 0.00228
16.55 0.00214
16.6 0.00171
16.65 0.00157
16.7 0.00106
16.75 0.00038
16.8 0.00013
16.85 0.00027
16.9 0.00046
16.95 0.00029
17 0.00026
17.05 -0.00012
17.1 0.00003
17.15 -0.00026
17.2 -0.00026
17.25 -0.00022
17.3 -0.00051
17.35 -0.0006
17.4 -0.00071
17.45 -0.00106
17.5 -0.00099
17.55 -0.00078
17.6 -0.00101
17.65 -0.00107
17.7 -0.00075
17.75 -0.00009
17.8 0.00081
17.85 0.00148
17.9 0.00187
17.95 0.00176
18 0.00167
18.05 0.00139
18.1 0.00146
18.15 0.00116
18.2 0.0009
18.25 0.00023
18.3 0.00004
18.35 0
18.4 0.00024
18.45 0.00027
18.5 0.00051
18.55 0.00079
18.6 0.00107
18.65 0.00077
18.7 0.00011
18.75 -0.00035
18.8 -0.0008
18.85 -0.00111
18.9 -0.00129
18.95 -0.00107
19 -0.0004
19.05 0.00041
19.1 0.00138
19.15 0.00176
19.2 0.00164
19.25 0.00167
19.3 0.00197
19.35 0.00177
19.4 0.00169
19.45 0.00196
19.5 0.00146
19.55 0.00116
19.6 0.00051
19.65 -0.00029
19.7 -0.00047
19.75 -0.00009
19.8 -0.00009
19.85 -0.00042
19.9 -0.00085
19.95 -0.00058
20 -0.00085
20.05 -0.00127
20.1 -0.00176
20.15 -0.00201
20.2 -0.00229
20.25 -0.00238
20.3 -0.00199
20.35 -0.00198
20.4 -0.00229
20.45 -0.00195
20.5 -0.00152
20.55 -0.00088
20.6 -0.00051
20.65 0.00016
20.7 0.00072
20.75 0.0011
20.8 0.00129
20.85 0.00115
20.9 0.00133
20.95 0.0012
21 0.00129
21.05 0.00135
21.1 0.00161
21.15 0.00122
21.2 0.00104
21.25 0.0007
21.3 0.00054
21.35 0.00057
21.4 0.00067
21.45 0.00069
21.5 0.00056
21.55 0.00027
21.6 -0.00041
21.65 -0.00107
21.7 -0.00131
21.75 -0.00129
21.8 -0.00139
21.85 -0.0015
21.9 -0.00181
21.95 -0.00194
22 -0.00139
22.05 -0.00125
22.1 -0.00109
22.15 -0.00133
22.2 -0.00152
22.25 -0.00175
22.3 -0.00185
22.35 -0.00189
22.4 -0.00155
22.45 -0.00081
22.5 -0.00073
22.55 -0.00024
22.6 0.00023
22.65 0.0006
22.7 0.00125
22.75 0.00126
22.8 0.00158
22.85 0.00201
22.9 0.00186
22.95 0.00122
23 0.0011
23.05 0.00057
23.1 -0.00012
23.15 -0.00021
23.2 -0.00067
23.25 -0.00044
23.3 -0.00068
23.35 -0.00047
23.4 0.0001
23.45 0.00017
23.5 -0.00003
23.55 -0.00035
23.6 -0.00085
23.65 -0.00098
23.7 -0.00066
23.75 -0.00003
23.8 0.00081
23.85 0.00162
23.9 0.00158
23.95 0.00143
24 0.00129
24.05 0.00096
24.1 0.00059
24.15 0.0004
24.2 0.00001
24.25 -0.00046
24.3 -0.0006
24.35 -0.00092
24.4 -0.00075
24.45 -0.00045
24.5 -0.00055
24.55 -0.00012
24.6 0.00009
24.65 0.00055
24.7 0.0011
24.75 0.00119
24.8 0.00148
24.85 0.00116
24.9 0.00083
24.95 0.00022
25 -0.00015
25.05 0.00008
25.1 0.00015
25.15 0.00001
25.2 -0.00022
25.25 0.0001
25.3 0.0005
25.35 0.0007
25.4 0.00077
25.45 0.00117
25.5 0.00144
25.55 0.00137
25.6 0.00096
25.65 0.00097
25.7 0.00089
25.75 0.0011
25.8 0.0009
25.85 0.00026
25.9 0.00001
25.95 0.00019
26 -0.00014
26.05 -0.00037
26.1 -0.00026
26.15 -0.00055
26.2 -0.00092
26.25 -0.00119
26.3 -0.00119
26.35 -0.00157
26.4 -0.00173
26.45 -0.0012
26.5 -0.00103
26.55 -0.00122
26.6 -0.00099
26.65 -0.00081
26.7 -0.00098
26.75 -0.00135
26.8 -0.00146
26.85 -0.00136
26.9 -0.00078
26.95 -0.00057
27 -0.00027
27.05 -0.0003
27.1 -0.00069
27.15 -0.00113
27.2 -0.00105
27.25 -0.00114
27.3 -0.00094
27.35 -0.00118
27.4 -0.00153
27.45 -0.00125
27.5 -0.00135
27.55 -0.00139
27.6 -0.00152
27.65 -0.00149
27.7 -0.001
27.75 -0.00086
27.8 -0.00056
27.85 -0.00057
27.9 -0.00046
27.95 -0.00053
28 -0.00023
28.05 0.00036
28.1 0.00052
28.15 0.00085
28.2 0.00061
28.25 0.00063
28.3 0.00036
28.35 -0.00018
28.4 -0.00077
28.45 -0.00092
28.5 -0.0006
28.55 -0.00014
28.6 -0.00006
28.65 0.00049
28.7 0.00061
28.75 0.00071
28.8 0.00108
28.85 0.00109
28.9 0.00116
28.95 0.0012
29 0.00152
29.05 0.00128
29.1 0.0011
29.15 0.00124
29.2 0.00145
29.25 0.0017
29.3 0.00174
29.35 0.00113
29.4 0.00054
29.45 0.00031
29.5 -0.00008
29.55 -0.00048
29.6 -0.00088
29.65 -0.00144
29.7 -0.00263
29.75 -0.00413
29.8 -0.00582
29.85 -0.00749
29.9 -0.00958
29.95 -0.01165
30 -0.01361
30.05 -0.01551
30.1 -0.01795
30.15 -0.02056
30.2 -0.02385
30.25 -0.0277
30.3 -0.03219
30.35 -0.03652
30.4 -0.04177
30.45 -0.04787
30.5 -0.05442
30.55 -0.06095
30.6 -0.06832
30.65 -0.07668
30.7 -0.08561
30.75 -0.09509
30.8 -0.10544
30.85 -0.11597
30.9 -0.12686
30.95 -0.13896
31 -0.15175
31.05 -0.16475
31.1 -0.17789
31.15 -0.1911
31.2 -0.20445
31.25 -0.21722
31.3 -0.22955
31.35 -0.24197
31.4 -0.25346
31.45 -0.26423
31.5 -0.27385
31.55 -0.28162
31.6 -0.28823
31.65 -0.29333
31.7 -0.29708
31.75 -0.29932
31.8 -0.29884
31.85 -0.29596
31.9 -0.29174
31.95 -0.28507
32 -0.2765
32.05 -0.26634
32.1 -0.25461
32.15 -0.24137
32.2 -0.22696
32.25 -0.2108
32.3 -0.19325
32.35 -0.17495
32.4 -0.15641
32.45 -0.13734
32.5 -0.11772
32.55 -0.09811
32.6 -0.0781
32.65 -0.0586
32.7 -0.03938
32.75 -0.02036
32.8 -0.00177
32.85 0.01661
32.9 0.03401
32.95 0.05019
33 0.06561
33.05 0.08
33.1 0.09422
33.15 0.108
33.2 0.12115
33.25 0.13316
33.3 0.14392
33.35 0.15406
33.4 0.16348
33.45 0.17199
33.5 0.18018
33.55 0.18802
33.6 0.19516
33.65 0.20228
33.7 0.20922
33.75 0.21547
33.8 0.22185
33.85 0.22746
33.9 0.23224
33.95 0.23623
34 0.24015
34.05 0.24361
34.1 0.24674
34.15 0.2498
34.2 0.25183
34.25 0.25395
34.3 0.25544
34.35 0.25663
34.4 0.25742
34.45 0.25669
34.5 0.25516
34.55 0.25342
34.6 0.25068
34.65 0.24733
34.7 0.24361
34.75 0.23951
34.8 0.23473
34.85 0.22906
34.9 0.2237
34.95 0.21769
35 0.21156
35.05 0.20482
35.1 0.19778
35.15 0.19082
35.2 0.18388
35.25 0.17667
35.3 0.16962
35.35 0.16325
35.4 0.15698
35.45 0.15063
35.5 0.14474
35.55 0.13896
35.6 0.13348
35.65 0.12795
35.7 0.12216
35.75 0.11637
35.8 0.11012
35.85 0.10401
35.9 0.09778
35.95 0.09251
36 0.08781
36.05 0.0828
36.1 0.07805
36.15 0.0739
36.2 0.06954
36.25 0.06524
36.3 0.06107
36.35 0.05718
36.4 0.05423
36.45 0.05097
36.5 0.04795
36.55 0.0455
36.6 0.04282
36.65 0.04043
36.7 0.03841
36.75 0.03651
36.8 0.03457
36.85 0.03251
36.9 0.03055
36.95 0.02878
37 0.02681
37.05 0.02491
37.1 0.02281
37.15 0.02
37.2 0.0177
37.25 0.01545
37.3 0.01353
37.35 0.01163
37.4 0.00916
37.45 0.00632
37.5 0.0042
37.55 0.00246
37.6 0.00091
37.65 -0.00123
37.7 -0.00293
37.75 -0.00506
37.8 -0.00743
37.85 -0.00941
37.9 -0.0116
37.95 -0.01313
38 -0.01502
38.05 -0.01622
38.1 -0.01765
38.15 -0.01936
38.2 -0.02098
38.25 -0.02229
38.3 -0.0232
38.35 -0.02448
38.4 -0.02536
38.45 -0.02586
38.5 -0.02673
38.55 -0.02747
38.6 -0.02816
38.65 -0.0294
38.7 -0.03079
38.75 -0.03216
38.8 -0.03326
38.85 -0.03368
38.9 -0.03359
38.95 -0.03393
39 -0.03472
39.05 -0.03544
39.1 -0.03639
39.15 -0.03695
39.2 -0.03701
39.25 -0.03673
39.3 -0.03613
39.35 -0.03566
39.4 -0.03549
39.45 -0.03591
39.5 -0.03634
39.55 -0.03683
39.6 -0.03663
39.65 -0.03687
39.7 -0.03641
39.75 -0.0357
39.8 -0.03477
39.85 -0.03428
39.9 -0.03357
39.95 -0.03362
40 -0.03387
40.05 -0.03356
40.1 -0.03305
40.15 -0.0326
40.2 -0.03276
40.25 -0.03254
40.3 -0.03244
40.35 -0.0323
40.4 -0.0321
40.45 -0.03189
40.5 -0.03177
40.55 -0.0317
40.6 -0.0317
40.65 -0.03188
40.7 -0.03135
40.75 -0.0307
40.8 -0.02999
40.85 -0.02907
40.9 -0.02859
40.95 -0.02864
41 -0.02826
41.05 -0.02802
41.1 -0.02754
41.15 -0.02738
41.2 -0.02687
41.25 -0.02654
41.3 -0.02591
41.35 -0.02571
41.4 -0.02504
41.45 -0.02458
41.5 -0.02454
41.55 -0.02469
41.6 -0.02439
41.65 -0.02414
41.7 -0.02409
41.75 -0.02371
41.8 -0.02352
41.85 -0.02328
41.9 -0.02252
41.95 -0.02187
42 -0.02181
42.05 -0.02115
42.1 -0.02046
42.15 -0.01982
42.2 -0.01949
42.25 -0.01955
42.3 -0.01938
42.35 -0.01949
42.4 -0.01901
42.45 -0.01861
42.5 -0.01829
42.55 -0.01751
42.6 -0.01681
42.65 -0.01648
42.7 -0.01621
42.75 -0.01573
42.8 -0.01505
42.85 -0.01483
42.9 -0.01489
42.95 -0.01484
43 -0.01434
43.05 -0.01439
43.1 -0.01394
43.15 -0.01402
43.2 -0.01432
43.25 -0.01461
43.3 -0.01494
43.35 -0.01476
43.4 -0.01427
43.45 -0.01372
43.5 -0.01306
43.55 -0.01278
43.6 -0.01288
43.65 -0.0125
43.7 -0.01214
43.75 -0.01217
43.8 -0.01245
43.85 -0.01239
43.9 -0.01236
43.95 -0.01206
44 -0.01148
44.05 -0.01063
44.1 -0.01027
44.15 -0.00967
44.2 -0.00971
44.25 -0.01025
44.3 -0.01071
44.35 -0.01122
44.4 -0.01136
44.45 -0.01127
44.5 -0.01108
44.55 -0.0111
44.6 -0.0114
44.65 -0.01091
44.7 -0.01041
44.75 -0.00992
44.8 -0.00965
44.85 -0.00941
44.9 -0.00901
44.95 -0.00847
45 -0.00795
45.05 -0.00778
45.1 -0.00722
45.15 -0.00648
45.2 -0.00653
45.25 -0.00635
45.3 -0.00662
45.35 -0.00654
45.4 -0.00687
45.45 -0.0067
45.5 -0.00644
45.55 -0.00598
45.6 -0.00578
45.65 -0.00544
45.7 -0.00547
45.75 -0.00558
45.8 -0.0054
45.85 -0.00489
45.9 -0.00457
45.95 -0.00456
46 -0.00474
46.05 -0.00482
46.1 -0.00523
46.15 -0.00544
46.2 -0.00576
46.25 -0.00635
46.3 -0.00663
46.35 -0.00716
46.4 -0.00745
46.45 -0.00758
46.5 -0.00769
46.55 -0.00741
46.6 -0.00681
46.65 -0.00662
46.7 -0.00595
46.75 -0.00517
46.8 -0.00501
46.85 -0.00499
46.9 -0.00529
46.95 -0.00537
47 -0.00558
47.05 -0.00552
47.1 -0.00532
47.15 -0.00521
47.2 -0.00535
47.25 -0.00539
47.3 -0.00545
47.35 -0.005
47.4 -0.00451
47.45 -0.00394
47.5 -0.00331
47.55 -0.00258
47.6 -0.00261
47.65 -0.0024
47.7 -0.00278
47.75 -0.00355
47.8 -0.00389
47.85 -0.0038
47.9 -0.00415
47.95 -0.00457
48 -0.00468
48.05 -0.00503
48.1 -0.00468
48.15 -0.00385
48.2 -0.00371
48.25 -0.00351
48.3 -0.00374
48.35 -0.00405
48.4 -0.00416
48.45 -0.00386
48.5 -0.00347
48.55 -0.0036
48.6 -0.00406
48.65 -0.00398
48.7 -0.00423
48.75 -0.00454
48.8 -0.0041
48.85 -0.00348
48.9 -0.00276
48.95 -0.00177
49 -0.00082
49.05 -0.00073
49.1 -0.00057
49.15 -0.00102
49.2 -0.00109
49.25 -0.00072
49.3 -0.00069
49.35 -0.00065
49.4 -0.00062
49.45 -0.00076
49.5 -0.00059
49.55 -0.00016
49.6 0.00016
49.65 -0.00029
49.7 -0.00024
49.75 -0.00036
49.8 -0.00044
49.85 -0.00021
49.9 0.00025
49.95 0.00023
50 -0.00019
50.05 -0.00081
50.1 -0.00142
50.15 -0.00217
50.2 -0.00237
50.25 -0.00232
50.3 -0.00247
50.35 -0.00235
50.4 -0.00268
50.45 -0.00253
50.5 -0.00195
50.55 -0.00151
50.6 -0.0009
50.65 -0.00064
50.7 -0.00064
50.75 -0.00095
50.8 -0.00113
50.85 -0.0009
50.9 -0.00095
50.95 -0.00142
51 -0.00158
51.05 -0.00136
51.1 -0.0012
51.15 -0.00115
51.2 -0.00153
51.25 -0.00149
51.3 -0.00136
51.35 -0.00098
51.4 -0.00062
51.45 -0.00084
51.5 -0.00114
51.55 -0.00153
51.6 -0.00173
51.65 -0.00217
51.7 -0.00244
51.75 -0.00263
51.8 -0.00245
51.85 -0.00257
51.9 -0.00201
51.95 -0.00177
52 -0.00184
52.05 -0.00175
52.1 -0.00201
52.15 -0.00161
52.2 -0.00141
52.25 -0.00136
52.3 -0.00111
52.35 -0.00093
52.4 -0.00076
52.45 -0.0004
52.5 0.00012
52.55 0.00034
52.6 0.00067
52.65 0.00062
52.7 0.00049
52.75 0.0006
52.8 0.00086
52.85 0.0012
52.9 0.00173
52.95 0.00226
53 0.0024
53.05 0.00191
53.1 0.00178
53.15 0.00163
53.2 0.0017
53.25 0.00187
53.3 0.00161
53.35 0.00078
53.4 0.00028
53.45 -0.00036
53.5 -0.00082
53.55 -0.00098
53.6 -0.00075
53.65 -0.00021
53.7 -0.00026
53.75 -0.00019
53.8 0
53.85 -0.00008
53.9 -0.00042
53.95 -0.00075
54 -0.00098
54.05 -0.00076
54.1 -0.0005
54.15 -0.00066
54.2 -0.00035
54.25 0.00007
54.3 0.00039
54.35 -0
54.4 -0.00019
54.45 -0.00027
54.5 0.00012
54.55 0.00002
54.6 0.00006
54.65 -0.00008
54.7 -0.00004
54.75 0.00004
54.8 0.00043
54.85 0.00031
54.9 0.00007
54.95 -0.00032
55 -0.00108
55.05 -0.00204
55.1 -0.00252
55.15 -0.00287
55.2 -0.003
55.25 -0.00289
55.3 -0.00228
55.35 -0.00175
55.4 -0.00112
55.45 -0.00094
55.5 -0.00089
55.55 -0.0011
55.6 -0.00102
55.65 -0.00058
55.7 -0.0006
55.75 -0.00053
55.8 -0.00068
55.85 -0.00102
55.9 -0.00099
55.95 -0.00131
56 -0.00174
56.05 -0.00147
56.1 -0.00083
56.15 -0.00025
56.2 -0.0004
56.25 -0.00063
56.3 -0.00097
56.35 -0.001
56.4 -0.00088
56.45 -0.00081
56.5 -0.00064
56.55 -0.00002
56.6 0.00047
56.65 0.00033
56.7 0.00036
56.75 0.00022
56.8 -0.00009
56.85 -0.00019
56.9 -0.00053
56.95 -0.00052
57 -0.00081
57.05 -0.00048
57.1 -0.0006
57.15 -0.00041
57.2 0.00002
57.25 0.00031
57.3 0.00007
57.35 -0.00046
57.4 -0.00108
57.45 -0.00179
57.5 -0.00217
57.55 -0.0018
57.6 -0.00154
57.65 -0.00131
57.7 -0.0011
57.75 -0.00051
57.8 -0.00048
57.85 -0.00044
57.9 -0.00089
57.95 -0.00148
58 -0.00151
58.05 -0.00144
58.1 -0.00088
58.15 -0.00034
58.2 -0.00035
58.25 -0.00008
58.3 0.00046
58.35 0.00033
58.4 0.00055
58.45 0.00057
58.5 0.0005
58.55 0.00062
58.6 0.0008
58.65 0.00126
58.7 0.00132
58.75 0.00074
58.8 0.00025
58.85 0.00033
58.9 0.0002
58.95 0.00029
59 0.0007
59.05 0.00126
59.1 0.00164
59.15 0.00171
59.2 0.00201
59.25 0.00198
59.3 0.00172
59.35 0.00106
59.4 0.00071
59.45 0.00074
59.5 0.00053
59.55 0.00036
59.6 -0.00006
59.65 -0.00023
59.7 -0.00064
59.75 -0.0012
59.8 -0.00126
59.85 -0.00098
59.9 -0.00109
59.95 -0.00111
60 -0.00124
60.05 -0.0013
60.1 -0.00112
60.15 -0.00085
60.2 -0.00094
60.25 -0.00136
60.3 -0.00111
60.35 -0.00061
60.4 -0.0002
60.45 -0.00001
60.5 -0.00005
60.55 -0.00031
60.6 -0.00006
60.65 -0.0002
60.7 -0.00009
60.75 -0.00025
60.8 -0.00062
60.85 -0.00124
60.9 -0.00115
60.95 -0.00123
61 -0.00098
61.05 -0.00125
61.1 -0.001
61.15 -0.00053
61.2 -0.0006
61.25 -0.00052
61.3 0.00004
61.35 0.00053
61.4 0.00117
61.45 0.00152
61.5 0.00191
61.55 0.00228
61.6 0.0026
61.65 0.00223
61.7 0.00133
61.75 0.00056
61.8 0.00005
61.85 -0.00015
61.9 0.00009
61.95 0.00024
62 0.00008
62.05 -0.00013
62.1 -0.00016
62.15 -0.00014
62.2 -0.00022
62.25 -0.00025
62.3 -0.00072
62.35 -0.00121
62.4 -0.0014
62.45 -0.00149
62.5 -0.00175
62.55 -0.00189
62.6 -0.0018
62.65 -0.00176
62.7 -0.00136
62.75 -0.00107
62.8 -0.00045
62.85 -0.00019
62.9 -0.00005
62.95 0.00053
63 0.00082
63.05 0.00057
63.1 0.00043
63.15 0.00042
63.2 0.00052
63.25 0.00004
63.3 -0.00014
63.35 -0.00051
63.4 -0.00061
63.45 -0.00108
63.5 -0.00164
63.55 -0.00161
63.6 -0.00097
63.65 -0.00003
63.7 0.00059
63.75 0.00073
63.8 0.00034
63.85 0.00008
63.9 -0.00027
63.95 -0.00031
64 -0.00043
64.05 -0.00066
64.1 -0.00124
64.15 -0.00122
64.2 -0.00085
64.25 -0.00057
64.3 -0.00022
64.35 -0.0004
64.4 -0.00065
64.45 -0.00051
64.5 -0.00075
64.55 -0.00099
64.6 -0.00144
64.65 -0.00165
64.7 -0.00196
64.75 -0.00181
64.8 -0.00145
64.85 -0.00099
64.9 -0.0004
64.95 0.00041
65 0.0004
65.05 0.00069
65.1 0.0008
65.15 0.00047
65.2 0.00037
65.25 0.00059
65.3 0.00044
65.35 0.00021
65.4 0.00044
65.45 0.00021
65.5 -0.00004
65.55 -0.00043
65.6 -0.00106
65.65 -0.00185
65.7 -0.002
65.75 -0.00214
65.8 -0.00198
65.85 -0.00218
65.9 -0.00199
65.95 -0.00128
66 -0.00072
66.05 -0.00073
66.1 -0.00097
66.15 -0.00097
66.2 -0.00063
66.25 -0.0001
66.3 0
66.35 0.00007
66.4 -0.00033
66.45 -0.00091
66.5 -0.00091
66.55 -0.0009
66.6 -0.00121
66.65 -0.00172
66.7 -0.00199
66.75 -0.00199
66.8 -0.00198
66.85 -0.0016
66.9 -0.00164
66.95 -0.00121
67 -0.00087
67.05 -0.00028
67.1 0.00049
67.15 0.00142
67.2 0.00206
67.25 0.00207
67.3 0.00228
67.35 0.00192
67.4 0.00125
67.45 0.00075
67.5 0.00012
67.55 -0.0006
67.6 -0.00078
67.65 -0.0005
67.7 -0.00018
67.75 0.00029
67.8 0.00053
67.85 0.00069
67.9 0.00045
67.95 0.0004
68 0.00028
68.05 0.00069
68.1 0.00133
68.15 0.00159
68.2 0.0021
68.25 0.00183
68.3 0.00157
68.35 0.00118
68.4 0.00134
68.45 0.00155
68.5 0.00187
68.55 0.00224
68.6 0.0021
68.65 0.00184
68.7 0.00155
68.75 0.00108
68.8 0.00108
68.85 0.00113
68.9 0.00064
68.95 0.00022
69 0.00019
69.05 0.00027
69.1 0.00006
69.15 0.00014
69.2 -0.00022
69.25 0.00003
69.3 -0.00026
69.35 -0.00055
69.4 -0.00061
69.45 -0.00058
69.5 -0.00039
69.55 -0.00067
69.6 -0.00124
69.65 -0.00109
69.7 -0.0013
69.75 -0.00169
69.8 -0.00228
69.85 -0.00286
69.9 -0.00295
69.95 -0.00255
70 -0.00187
70.05 -0.00148
70.1 -0.00081
70.15 0.00012
70.2 0.00119
70.25 0.00131
70.3 0.00144
70.35 0.00184
70.4 0.00236
70.45 0.00228
70.5 0.0017
70.55 0.00086
70.6 0.00007
70.65 -0.00016
70.7 -0.0006
70.75 -0.00042
70.8 -0.00037
70.85 -0.00047
70.9 -0.00034
70.95 -0.00021
71 -0.00048
71.05 -0.00107
71.1 -0.00099
71.15 -0.00051
71.2 -0.00052
71.25 -0.00003
71.3 0.00078
71.35 0.00081
71.4 0.00076
71.45 0.00072
71.5 0.00063
71.55 0.00076
71.6 0.00097
71.65 0.00058
71.7 0.00038
71.75 0.00005
71.8 -0.00009
71.85 -0.00034
71.9 -0.00012
71.95 -0.00032
72 -0.00034
72.05 -0.00048
72.1 -0.0007
72.15 -0.00127
72.2 -0.00197
72.25 -0.00209
72.3 -0.00202
72.35 -0.00184
72.4 -0.00144
72.45 -0.00141
72.5 -0.0016
72.55 -0.00192
72.6 -0.00222
72.65 -0.00235
72.7 -0.00202
72.75 -0.0014
72.8 -0.0004
72.85 -0.00016
72.9 0.00031
72.95 0.00068
73 0.00082
73.05 0.00061
73.1 0.00035
73.15 -0.0003
73.2 -0.00101
73.25 -0.00183
73.3 -0.00209
73.35 -0.00236
73.4 -0.00259
73.45 -0.00296
73.5 -0.00282
73.55 -0.00195
73.6 -0.00124
73.65 -0.00073
73.7 0.00004
73.75 0.00037
73.8 0.00093
73.85 0.00114
73.9 0.00103
73.95 0.00137
74 0.00147
74.05 0.00184
74.1 0.00169
74.15 0.00191
74.2 0.0015
74.25 0.00126
74.3 0.001
74.35 0.00083
74.4 0.00059
74.45 0.00058
74.5 0.00052
74.55 0.00018
74.6 0.00026
74.65 -0.00013
74.7 -0.00055
74.75 -0.00101
74.8 -0.00082
74.85 -0.00085
74.9 -0.00116
74.95 -0.00076
75 -0.0005
75.05 -0.0002
75.1 0.00045
75.15 0.00104
75.2 0.00179
75.25 0.00227
75.3 0.00269
75.35 0.00231
75.4 0.0015
75.45 0.00093
75.5 0.00079
75.55 0.00036
75.6 0.00022
75.65 0.00022
75.7 0.00003
75.75 -0.00039
75.8 -0.00015
75.85 0.00043
75.9 0.0006
75.95 0.00065
76 0.00084
76.05 0.0012
76.1 0.00114
76.15 0.00109
76.2 0.00134
76.25 0.00163
76.3 0.00216
76.35 0.00217
76.4 0.00192
76.45 0.00162
76.5 0.00138
76.55 0.00154
76.6 0.00185
76.65 0.00149
76.7 0.00089
76.75 0.00065
76.8 0.0005
76.85 0.00017
76.9 -0.00033
76.95 -0.0007
77 -0.00068
77.05 -0.00027
77.1 0.0004
77.15 0.0005
77.2 0.00063
77.25 0.00021
77.3 -0.00044
77.35 -0.00116
77.4 -0.00139
77.45 -0.00153
77.5 -0.00115
77.55 -0.00071
77.6 -0.00047
77.65 -0.0007
77.7 -0.00081
77.75 -0.00104
77.8 -0.00062
77.85 -0.00072
77.9 -0.0004
77.95 -0.00053
78 -0.00069
78.05 -0.00087
78.1 -0.00111
78.15 -0.0016
78.2 -0.00199
78.25 -0.00223
78.3 -0.00196
78.35 -0.00204
78.4 -0.00165
78.45 -0.00093
78.5 -0.00037
78.55 -0.00011
78.6 -0.00006
78.65 0.00025
78.7 0.0001
78.75 -0.00032
78.8 -0.00054
78.85 -0.00054
78.9 -0.00056
78.95 -0.00065
79 -0.00019
79.05 -0.00034
79.1 -0.00012
79.15 0.00044
79.2 0.00098
79.25 0.00107
79.3 0.00061
79.35 0.00008
79.4 -0.00042
79.45 -0.00096
79.5 -0.00083
79.55 -0.00042
79.6 0.00031
79.65 0.00053
79.7 0.00089
79.75 0.00065
79.8 0.00076
79.85 0.00087
79.9 0.0008
79.95 0.00085
80 0.00089
80.05 0.00088
80.1 0.00103
80.15 0.00098
80.2 0.00043
80.25 -0.00004
80.3 -0.00053
80.35 -0.00064
80.4 -0.00092
80.45 -0.00076
80.5 -0.00051
80.55 -0.00053
80.6 -0.00039
80.65 -0.00058
80.7 -0.00016
80.75 -0.00019
80.8 0.00016
80.85 -0.00007
80.9 -0.0005
80.95 -0.00082
81 -0.00129
81.05 -0.00181
81.1 -0.00217
81.15 -0.00206
81.2 -0.00165
81.25 -0.00152
81.3 -0.00162
81.35 -0.00121
81.4 -0.00104
81.45 -0.001
81.5 -0.00118
81.55 -0.00156
81.6 -0.00127
81.65 -0.00123
81.7 -0.00089
81.75 -0.00099
81.8 -0.00056
81.85 0.00027
81.9 0.00051
81.95 0.00049
82 0.00006
82.05 -0.00005
82.1 -0.00053
82.15 -0.00083
82.2 -0.00111
82.25 -0.00087
82.3 -0.00017
82.35 0.00049
82.4 0.00129
82.45 0.00189
82.5 0.00226
82.55 0.0028
82.6 0.00259
82.65 0.00254
82.7 0.00262
82.75 0.00285
82.8 0.00289
82.85 0.00266
82.9 0.00199
82.95 0.00167
83 0.00091
83.05 0.0006
83.1 0.0003
83.15 0.00036
83.2 0.00057
83.25 0.00075
83.3 0.0012
83.35 0.00177
83.4 0.00152
83.45 0.00076
83.5 -0.00009
83.55 -0.0004
83.6 -0.00085
83.65 -0.00137
83.7 -0.00161
83.75 -0.00158
83.8 -0.00186
83.85 -0.00183
83.9 -0.00197
83.95 -0.00201
84 -0.00159
84.05 -0.00125
84.1 -0.00116
84.15 -0.00149
84.2 -0.00193
84.25 -0.00172
84.3 -0.00124
84.35 -0.00091
84.4 -0.00044
84.45 -0.00003
84.5 0.00075
84.55 0.00165
84.6 0.00163
84.65 0.00174
84.7 0.00164
84.75 0.00189
84.8 0.00232
84.85 0.00207
84.9 0.00223
84.95 0.00199
85 0.00136
85.05 0.00064
85.1 0.00017
85.15 -0.00044
85.2 -0.00054
85.25 -0.00025
85.3 0.00006
85.35 0.00071
85.4 0.00141
85.45 0.00183
85.5 0.00242
85.55 0.00231
85.6 0.00201
85.65 0.0012
85.7 0.0003
85.75 -0.00038
85.8 -0.00039
85.85 -0.00066
85.9 -0.00046
85.95 0.00002
86 0.00075
86.05 0.00111
86.1 0.00122
86.15 0.00167
86.2 0.00192
86.25 0.00145
86.3 0.00119
86.35 0.00072
86.4 -0.00013
86.45 -0.00097
86.5 -0.00177
86.55 -0.00199
86.6 -0.00164
86.65 -0.00115
86.7 -0.00116
86.75 -0.0013
86.8 -0.0009
86.85 -0.00085
86.9 -0.00034
86.95 -0.00008
87 -0.00009
87.05 -0.00048
87.1 -0.00056
87.15 -0.00016
87.2 0.00019
87.25 0.00019
87.3 -0.00027
87.35 -0.00048
87.4 -0.00063
87.45 -0.00035
87.5 -0.00056
87.55 -0.00083
87.6 -0.00067
87.65 -0.00075
87.7 -0.00038
87.75 -0.00017
87.8 0.00003
87.85 0.00027
87.9 0.00035
87.95 0.00063
88 0.00063
88.05 0.00029
88.1 -0.00033
88.15 -0.00025
88.2 -0.00038
88.25 -0.00064
88.3 -0.00087
88.35 -0.00115
88.4 -0.00141
88.45 -0.00123
88.5 -0.00055
88.55 0.00033
88.6 0.00043
88.65 0.00045
88.7 0.00047
88.75 0.00042
88.8 0.00085
88.85 0.00153
88.9 0.00145
88.95 0.00169
89 0.00153
89.05 0.00092
89.1 0.00088
89.15 0.00101
89.2 0.00115
89.25 0.00137
89.3 0.00118
89.35 0.00079
89.4 0.00029
89.45 -0.00023
89.5 -0.00016
89.55 -0.00026
89.6 -0.00044
89.65 -0.00064
89.7 -0.00116
89.75 -0.00129
89.8 -0.00124
89.85 -0.0013
89.9 -0.00102
89.95 -0.00122
90 -0.00079
90.05 -0.00056
90.1 -0.00027
90.15 0.00041
90.2 0.00109
90.25 0.00151
90.3 0.00196
90.35 0.00236
90.4 0.00281
90.45 0.00245
90.5 0.00182
90.55 0.00093
90.6 0.00009
90.65 -0.00056
90.7 -0.00125
90.75 -0.00197
90.8 -0.00212
90.85 -0.00209
90.9 -0.00236
90.95 -0.00275
91 -0.00298
91.05 -0.0025
91.1 -0.00235
91.15 -0.00206
91.2 -0.00185
91.25 -0.00164
91.3 -0.00178
91.35 -0.00219
91.4 -0.0022
91.45 -0.0022
91.5 -0.00171
91.55 -0.00076
91.6 0.00027
91.65 0.00129
91.7 0.00207
91.75 0.00208
91.8 0.00148
91.85 0.00068
91.9 -0.00017
91.95 -0.00075
92 -0.00142
92.05 -0.00184
92.1 -0.00238
92.15 -0.00244
92.2 -0.00247
92.25 -0.00265
92.3 -0.00269
92.35 -0.00261
92.4 -0.00192
92.45 -0.00173
92.5 -0.0013
92.55 -0.00086
92.6 -0.0001
92.65 0.00085
92.7 0.00158
92.75 0.00195
92.8 0.00175
92.85 0.00166
92.9 0.00165
92.95 0.00137
93 0.00152
93.05 0.0014
93.1 0.00109
93.15 0.0007
93.2 0.00027
93.25 -0.00037
93.3 -0.00108
93.35 -0.00123
93.4 -0.00074
93.45 0.0001
93.5 0.00101
93.55 0.00193
93.6 0.00231
93.65 0.00268
93.7 0.00261
93.75 0.00212
93.8 0.00153
93.85 0.00089
93.9 0.00053
93.95 -0.00018
94 -0.00081
94.05 -0.00095
94.1 -0.00108
94.15 -0.00134
94.2 -0.00095
94.25 -0.00059
94.3 -0.00078
94.35 -0.00099
94.4 -0.00093
94.45 -0.001
94.5 -0.00084
94.55 -0.00048
94.6 -0.00019
94.65 -0.00001
94.7 -0.0002
94.75 0.0002
94.8 0.00057
94.85 0.00093
94.9 0.00127
94.95 0.00129
95 0.00108
95.05 0.00061
95.1 0.00073
95.15 0.00109
95.2 0.0013
95.25 0.00157
95.3 0.00171
95.35 0.00138
95.4 0.00104
95.45 0.00112
95.5 0.00145
95.55 0.00184
95.6 0.00228
95.65 0.0026
95.7 0.00229
95.75 0.00151
95.8 0.001
95.85 0.00088
95.9 0.00093
95.95 0.00089
96 0.00072
96.05 0.00012
96.1 -0.00078
96.15 -0.00122
96.2 -0.00136
96.25 -0.00126
96.3 -0.00127
96.35 -0.00086
96.4 -0.00087
96.45 -0.00047
96.5 -0.0001
96.55 0.00062
96.6 0.0007
96.65 0.00081
96.7 0.00123
96.75 0.00164
96.8 0.00217
96.85 0.00181
96.9 0.0016
96.95 0.001
97 0.00076
97.05 0.00013
97.1 -0.0005
97.15 -0.00086
97.2 -0.00082
97.25 -0.00124
97.3 -0.00129
97.35 -0.0014
97.4 -0.00159
97.45 -0.00131
97.5 -0.00105
97.55 -0.00083
97.6 -0.00079
97.65 -0.00112
97.7 -0.00112
97.75 -0.00093
97.8 -0.00034
97.85 0.00042
97.9 0.001
97.95 0.00094
98 0.00032
98.05 -0.00003
98.1 -0.00056
98.15 -0.00085
98.2 -0.00051
98.25 -0.00049
98.3 -0.00043
98.35 -0.00002
98.4 -0.0002
98.45 -0.00045
98.5 -0.00052
98.55 -0.00004
98.6 0.00036
98.65 0.00053
98.7 0.00063
98.75 0.00033
98.8 0.00051
98.85 0.00081
98.9 0.00043
98.95 -0.00012
99 -0.00037
99.05 -0.00029
99.1 -0.00021
99.15 0.00033
99.2 0.00072
99.25 0.00105
99.3 0.00116
99.35 0.0008
99.4 0.00056
99.45 0.0001
99.5 -0.00029
99.55 -0.00014
99.6 0.00005
99.65 -0.00018
99.7 -0.00006
99.75 -0.00049
99.8 -0.00052
99.85 -0.00028
99.9 0.00002
99.95 -0.00019
