0 0
0.05 0.00047
0.1 0.0009
0.15 0.00177
0.2 0.00267
0.25 0.00374
0.3 0.00423
0.35 0.00436
0.4 0.00483
0.45 0.00563
0.5 0.00586
0.55 0.0064
0.6 0.00634
0.65 0.00645
0.7 0.00619
0.75 0.00561
0.8 0.00481
0.85 0.00473
0.9 0.00475
0.95 0.00447
1 0.00404
1.05 0.00413
1.1 0.00464
1.15 0.00533
1.2 0.00574
1.25 0.00603
1.3 0.00604
1.35 0.00628
1.4 0.00666
1.45 0.00659
1.5 0.00598
1.55 0.00518
1.6 0.00504
1.65 0.00472
1.7 0.00404
1.75 0.00349
1.8 0.00346
1.85 0.00327
1.9 0.00276
1.95 0.00231
2 0.00193
2.05 0.00192
2.1 0.00153
2.15 0.00105
2.2 0.00145
2.25 0.00159
2.3 0.00141
2.35 0.00124
2.4 0.00134
2.45 0.00144
2.5 0.00142
2.55 0.00117
2.6 0.0011
2.65 0.00087
2.7 0.00088
2.75 0.00127
2.8 0.00177
2.85 0.00241
2.9 0.00288
2.95 0.00313
3 0.00322
3.05 0.00293
3.1 0.00252
3.15 0.00201
3.2 0.00137
3.25 0.00109
3.3 0.00071
3.35 0.00089
3.4 0.00092
3.45 0.00155
3.5 0.00182
3.55 0.00183
3.6 0.00155
3.65 0.00098
3.7 0.00083
3.75 0.00126
3.8 0.00123
3.85 0.00166
3.9 0.00204
3.95 0.00283
4 0.00377
4.05 0.00412
4.1 0.00404
4.15 0.00372
4.2 0.00347
4.25 0.00346
4.3 0.00295
4.35 0.00268
4.4 0.00244
4.45 0.00243
4.5 0.00247
4.55 0.00265
4.6 0.00314
4.65 0.00308
4.7 0.00244
4.75 0.00211
4.8 0.00217
4.85 0.00176
4.9 0.0012
4.95 0.00081
5 0.00078
5.05 0.00118
5.1 0.00102
5.15 0.00084
5.2 0.00028
5.25 0.0001
5.3 0.00004
5.35 -0.00023
5.4 -0.00003
5.45 0.00003
5.5 0.00025
5.55 0.00076
5.6 0.0009
5.65 0.0015
5.7 0.00225
5.75 0.00292
5.8 0.0035
5.85 0.00326
5.9 0.00332
5.95 0.00351
6 0.00355
6.05 0.00318
6.1 0.00234
6.15 0.00217
6.2 0.00211
6.25 0.00239
6.3 0.00217
6.35 0.00202
6.4 0.00147
6.45 0.0008
6.5 0.00055
6.55 0.00047
6.6 0.0001
6.65 0.00002
6.7 0.00005
6.75 -0.00014
6.8 0.00015
6.85 0
6.9 0.00035
6.95 0.00091
7 0.00096
7.05 0.001
7.1 0.00114
7.15 0.00114
7.2 0.0009
7.25 0.00085
7.3 0.0006
7.35 0.00075
7.4 0.0008
7.45 0.00033
7.5 0.00043
7.55 0.0009
7.6 0.00101
7.65 0.00144
7.7 0.00186
7.75 0.0022
7.8 0.00187
7.85 0.00197
7.9 0.00177
7.95 0.00178
8 0.00142
8.05 0.00135
8.1 0.00121
8.15 0.00078
8.2 0.00058
8.25 -0.00007
8.3 -0.00038
8.35 -0.00009
8.4 0.00001
8.45 0.00058
8.5 0.00066
8.55 0.0002
8.6 -0.00017
8.65 -0.00084
8.7 -0.00149
8.75 -0.00185
8.8 -0.00148
8.85 -0.00065
8.9 -0.00039
8.95 -0.00043
9 -0.00084
9.05 -0.00112
9.1 -0.00153
9.15 -0.00136
9.2 -0.00144
9.25 -0.00124
9.3 -0.00099
9.35 -0.00036
9.4 0.00047
9.45 0.00142
9.5 0.00195
9.55 0.00258
9.6 0.00284
9.65 0.00286
9.7 0.00259
9.75 0.00254
9.8 0.00232
9.85 0.00184
9.9 0.00129
9.95 0.00087
10 0.0003
10.05 0.00014
10.1 0.00023
10.15 0.00018
10.2 -0.00018
10.25 -0.00081
10.3 -0.00126
10.35 -0.00124
10.4 -0.00157
10.45 -0.00178
10.5 -0.00138
10.55 -0.00073
10.6 0.0001
10.65 0.00078
10.7 0.0014
10.75 0.00207
10.8 0.00203
10.85 0.00168
10.9 0.00162
10.95 0.00128
11 0.00118
11.05 0.00137
11.1 0.00171
11.15 0.00135
11.2 0.00111
11.25 0.00061
11.3 0.00034
11.35 -0.00036
11.4 -0.00067
11.45 -0.00072
11.5 -0.00107
11.55 -0.00082
11.6 -0.00024
11.65 0.00034
11.7 0.001
11.75 0.00175
11.8 0.00167
11.85 0.00183
11.9 0.00226
11.95 0.00253
12 0.00225
12.05 0.00178
12.1 0.00168
12.15 0.00187
12.2 0.00224
12.25 0.00177
12.3 0.00168
12.35 0.00137
12.4 0.00151
12.45 0.0015
12.5 0.00182
12.55 0.00217
12.6 0.00176
12.65 0.00174
12.7 0.00113
12.75 0.00056
12.8 -0.00004
12.85 -0.00031
12.9 -0.00084
12.95 -0.0009
13 -0.00085
13.05 -0.00105
13.1 -0.00081
13.15 -0.00064
13.2 -0.00027
13.25 -0
13.3 0.00045
13.35 0.00055
13.4 0.00061
13.45 0.00098
13.5 0.00132
13.55 0.00175
13.6 0.00178
13.65 0.00112
13.7 0.0001
13.75 -0.0008
13.8 -0.00111
13.85 -0.00098
13.9 -0.00074
13.95 -0.00103
14 -0.00131
14.05 -0.0014
14.1 -0.0009
14.15 -0.00025
14.2 0.00035
14.25 0.00093
14.3 0.00131
14.35 0.00191
14.4 0.00189
14.45 0.00213
14.5 0.00198
14.55 0.0019
14.6 0.0021
14.65 0.00167
14.7 0.00115
14.75 0.00105
14.8 0.00079
14.85 0.00101
14.9 0.00138
14.95 0.00112
15 0.0004
15.05 0.00027
15.1 0.00038
15.15 0.00067
15.2 0.00081
15.25 0.00049
15.3 0.00009
15.35 -0.0006
15.4 -0.00101
15.45 -0.00106
15.5 -0.00099
15.55 -0.00064
15.6 -0.00004
15.65 0.00048
15.7 0.00044
15.75 0.00052
15.8 0.00038
15.85 0.00032
15.9 -0.00003
15.95 -0.00074
16 -0.00164
16.05 -0.0017
16.1 -0.00114
16.15 -0.00049
16.2 -0.00018
16.25 0.00032
16.3 0.00057
16.35 0.0011
16.4 0.00095
16.45 0.00116
16.5 0.00121
16.55 0.00064
16.6 0.00045
16.65 0.00039
16.7 0.00008
16.75 -0.00004
16.8 -0.00063
16.85 -0.00054
16.9 -0.0001
16.95 0.00047
17 0.0005
17.05 0.00083
17.1 0.00043
17.15 0.00048
17.2 0.00012
17.25 -0.00025
17.3 -0.00096
17.35 -0.00132
17.4 -0.00151
17.45 -0.002
17.5 -0.00175
17.55 -0.00163
17.6 -0.00181
17.65 -0.00183
17.7 -0.00184
17.75 -0.00132
17.8 -0.00123
17.85 -0.00108
17.9 -0.00077
17.95 -0.00014
18 0.00067
18.05 0.00131
18.1 0.002
18.15 0.00202
18.2 0.00135
18.25 0.00046
18.3 0.00011
18.35 -0.00026
18.4 -0.0009
18.45 -0.00155
18.5 -0.00188
18.55 -0.00247
18.6 -0.00251
18.65 -0.00191
18.7 -0.00176
18.75 -0.00147
18.8 -0.00081
18.85 -0.00085
18.9 -0.00043
18.95 0.00015
19 0.00089
19.05 0.00158
19.1 0.00133
19.15 0.00058
19.2 -0.00026
19.25 -0.00094
19.3 -0.00103
19.35 -0.00137
19.4 -0.00116
19.45 -0.00115
19.5 -0.0011
19.55 -0.0005
19.6 0.00039
19.65 0.0012
19.7 0.00131
19.75 0.00085
19.8 0.00078
19.85 0.00058
19.9 0.0007
19.95 0.00018
20 -0.00014
20.05 -0.00036
20.1 -0.00022
20.15 0.0001
20.2 0.00028
20.25 0.00081
20.3 0.00115
20.35 0.0011
20.4 0.00069
20.45 0.00057
20.5 -0.00006
20.55 -0.0009
20.6 -0.00192
20.65 -0.00209
20.7 -0.00226
20.75 -0.00246
20.8 -0.00284
20.85 -0.00322
20.9 -0.00272
20.95 -0.00246
21 -0.00251
21.05 -0.00221
21.1 -0.00147
21.15 -0.00045
21.2 0.00017
21.25 0.00046
21.3 0.00074
21.35 0.00063
21.4 0.00066
21.45 0.00085
21.5 0.00134
21.55 0.00122
21.6 0.00098
21.65 0.00056
21.7 0.00009
21.75 0.0002
21.8 0.00011
21.85 -0.00013
21.9 -0.00051
21.95 -0.00122
22 -0.00119
22.05 -0.00122
22.1 -0.00092
22.15 -0.00033
22.2 0.00001
22.25 0.00037
22.3 0.00027
22.35 0.00033
22.4 0.00034
22.45 0.00038
22.5 0.00051
22.55 0.00076
22.6 0.00057
22.65 0.00058
22.7 0.00029
22.75 -0.00007
22.8 -0.00072
22.85 -0.00075
22.9 -0.00075
22.95 -0.0011
23 -0.00139
23.05 -0.00101
23.1 -0.00099
23.15 -0.00053
23.2 -0.00003
23.25 -0.00003
23.3 0.00036
23.35 0.00016
23.4 -0.00019
23.45 -0.00046
23.5 -0.00069
23.55 -0.00057
23.6 -0.0001
23.65 0.00061
23.7 0.00069
23.75 0.00064
23.8 0.00043
23.85 -0.00027
23.9 -0.00119
23.95 -0.00169
24 -0.00141
24.05 -0.00066
24.1 0.00031
24.15 0.00066
24.2 0.00076
24.25 0.00102
24.3 0.00109
24.35 0.00109
24.4 0.0011
24.45 0.00098
24.5 0.00054
24.55 0.00017
24.6 0.00014
24.65 0.00024
24.7 0.00001
24.75 -0.00003
24.8 -0.00056
24.85 -0.00065
24.9 -0.00098
24.95 -0.00135
25 -0.00195
25.05 -0.00201
25.1 -0.0016
25.15 -0.00141
25.2 -0.001
25.25 -0.00073
25.3 -0.00077
25.35 -0.00082
25.4 -0.00051
25.45 -0.00011
25.5 0.00009
25.55 0.00043
25.6 0.00071
25.65 0.00128
25.7 0.00123
25.75 0.00093
25.8 0.00068
25.85 0.00091
25.9 0.00096
25.95 0.00082
26 0.00094
26.05 0.00111
26.1 0.00127
26.15 0.00102
26.2 0.00084
26.25 0.0007
26.3 0.00043
26.35 0.00032
26.4 -0.00019
26.45 -0.00009
26.5 0.00007
26.55 -0.00009
26.6 -0.00042
26.65 -0.00047
26.7 -0.00061
26.75 -0.00111
26.8 -0.00169
26.85 -0.00202
26.9 -0.00177
26.95 -0.00097
27 -0.0008
27.05 -0.00063
27.1 -0.00039
27.15 -0.00031
27.2 -0.00005
27.25 0.00028
27.3 0.00091
27.35 0.00171
27.4 0.00252
27.45 0.0032
27.5 0.0035
27.55 0.00361
27.6 0.00315
27.65 0.0024
27.7 0.00212
27.75 0.00133
27.8 0.0002
27.85 -0.00071
27.9 -0.00148
27.95 -0.00188
28 -0.00228
28.05 -0.00189
28.1 -0.00135
28.15 -0.00136
28.2 -0.00152
28.25 -0.00104
28.3 -0.00112
28.35 -0.00121
28.4 -0.00084
28.45 -0.00105
28.5 -0.00062
28.55 -0.00005
28.6 0.00006
28.65 0.00059
28.7 0.00034
28.75 0.00006
28.8 -0.00058
28.85 -0.00063
28.9 -0.00099
28.95 -0.00085
29 -0.0012
29.05 -0.00171
29.1 -0.00225
29.15 -0.00229
29.2 -0.00211
29.25 -0.00224
29.3 -0.00227
29.35 -0.00251
29.4 -0.00292
29.45 -0.00283
29.5 -0.00254
29.55 -0.00176
29.6 -0.00108
29.65 -0.00106
29.7 -0.00051
29.75 0.00003
29.8 0.00059
29.85 0.00116
29.9 0.00168
29.95 0.00146
30 0.00091
30.05 0.00089
30.1 0.00061
30.15 0.00086
30.2 0.00119
30.25 0.00132
30.3 0.00084
30.35 0.0004
30.4 -0.0004
30.45 -0.00114
30.5 -0.00122
30.55 -0.00119
30.6 -0.00125
30.65 -0.00117
30.7 -0.00086
30.75 -0.00077
30.8 -0.00049
30.85 -0.00015
30.9 -0.00016
30.95 -0.00059
31 -0.00112
31.05 -0.00097
31.1 -0.00073
31.15 -0.0003
31.2 -0.00012
31.25 -0.00021
31.3 -0.00057
31.35 -0.00053
31.4 -0.0002
31.45 0.00036
31.5 0.00074
31.55 0.00104
31.6 0.00134
31.65 0.00099
31.7 0.00021
31.75 -0.00043
31.8 -0.00036
31.85 -0.00023
31.9 -0.00009
31.95 0.00049
32 0.00062
32.05 0.00082
32.1 0.00093
32.15 0.00069
32.2 0.00039
32.25 0.00038
32.3 -0.00003
32.35 -0.00062
32.4 -0.0014
32.45 -0.00218
32.5 -0.00217
32.55 -0.00149
32.6 -0.00075
32.65 -0.00031
32.7 -0.0003
32.75 -0.00057
32.8 -0.00095
32.85 -0.00111
32.9 -0.00078
32.95 -0.00085
33 -0.00089
33.05 -0.00035
33.1 -0.00004
33.15 0.00038
33.2 0.00066
33.25 0.00051
33.3 0.00084
33.35 0.00073
33.4 0.001
33.45 0.00111
33.5 0.00108
33.55 0.00135
33.6 0.00138
33.65 0.00152
33.7 0.00188
33.75 0.00223
33.8 0.0027
33.85 0.00241
33.9 0.00177
33.95 0.00156
34 0.0017
34.05 0.00134
34.1 0.00109
34.15 0.00081
34.2 0.00064
34.25 0.00066
34.3 0.00098
34.35 0.0014
34.4 0.00143
34.45 0.00134
34.5 0.00102
34.55 0.00063
34.6 -0.00004
34.65 -0.00056
34.7 -0.00036
34.75 -0.00046
34.8 -0.00093
34.85 -0.00068
34.9 -0.00072
34.95 -0.00055
35 -0.00073
35.05 -0.00112
35.1 -0.00142
35.15 -0.00199
35.2 -0.00232
35.25 -0.00264
35.3 -0.00288
35.35 -0.0032
35.4 -0.00303
35.45 -0.00279
35.5 -0.00234
35.55 -0.00157
35.6 -0.00134
35.65 -0.00151
35.7 -0.00188
35.75 -0.00153
35.8 -0.00111
35.85 -0.0007
35.9 -0.00053
35.95 -0.00025
36 -0.0002
36.05 -0.00043
36.1 -0.00037
36.15 -0.00064
36.2 -0.00052
36.25 -0.00009
36.3 0.00016
36.35 0.00043
36.4 0.00038
36.45 0.0006
36.5 0.00118
36.55 0.00194
36.6 0.00189
36.65 0.00164
36.7 0.00121
36.75 0.00067
36.8 -0.00008
36.85 -0.00046
36.9 -0.00047
36.95 -0.00072
37 -0.00039
37.05 -0.0004
37.1 -0.00061
37.15 -0.00114
37.2 -0.00153
37.25 -0.00153
37.3 -0.00137
37.35 -0.00129
37.4 -0.00126
37.45 -0.00146
37.5 -0.00109
37.55 -0.00049
37.6 0.00044
37.65 0.00105
37.7 0.00141
37.75 0.00123
37.8 0.00067
37.85 0.00063
37.9 0.00007
37.95 -0.00028
38 -0.00052
38.05 -0.00048
38.1 0.00009
38.15 0.00057
38.2 0.00034
38.25 0.00052
38.3 0.00107
38.35 0.00157
38.4 0.00128
38.45 0.00115
38.5 0.0009
38.55 0.0006
38.6 0.00052
38.65 0.00058
38.7 0.00021
38.75 -0.00029
38.8 -0.00062
38.85 -0.00123
38.9 -0.00117
38.95 -0.00143
39 -0.00197
39.05 -0.00173
39.1 -0.00178
39.15 -0.0018
39.2 -0.00165
39.25 -0.00093
39.3 -0.00018
39.35 0.00067
39.4 0.00094
39.45 0.0006
39.5 0.00019
39.55 -0.00048
39.6 -0.00124
39.65 -0.00159
39.7 -0.00201
39.75 -0.00248
39.8 -0.00209
39.85 -0.0012
39.9 -0.00009
39.95 0.00082
40 0.00173
40.05 0.00238
40.1 0.00217
40.15 0.0017
40.2 0.0018
40.25 0.00165
40.3 0.0017
40.35 0.00183
40.4 0.0014
40.45 0.00141
40.5 0.00094
40.55 0.00036
40.6 -0.00042
40.65 -0.00077
40.7 -0.00123
40.75 -0.00143
40.8 -0.00168
40.85 -0.00209
40.9 -0.0017
40.95 -0.0016
41 -0.00174
41.05 -0.00214
41.1 -0.0023
41.15 -0.00204
41.2 -0.00163
41.25 -0.00109
41.3 -0.00109
41.35 -0.00105
41.4 -0.00081
41.45 -0.00048
41.5 -0.00049
41.55 0.00004
41.6 0.00041
41.65 0.00082
41.7 0.00131
41.75 0.00184
41.8 0.00223
41.85 0.00241
41.9 0.00261
41.95 0.00214
42 0.00195
42.05 0.00192
42.1 0.00156
42.15 0.00144
42.2 0.00107
42.25 0.00119
42.3 0.00139
42.35 0.00141
42.4 0.00173
42.45 0.0019
42.5 0.00172
42.55 0.00098
42.6 -0.00005
42.65 -0.00099
42.7 -0.0015
42.75 -0.00159
42.8 -0.00102
42.85 -0.00091
42.9 -0.00107
42.95 -0.00129
43 -0.00132
43.05 -0.00129
43.1 -0.00105
43.15 -0.00089
43.2 -0.00042
43.25 0.00012
43.3 0.00068
43.35 0.00086
43.4 0.00083
43.45 0.00089
43.5 0.001
43.55 0.0006
43.6 0.0002
43.65 0.00033
43.7 0.00055
43.75 0.00025
43.8 -0.0004
43.85 -0.00093
43.9 -0.00144
43.95 -0.00152
44 -0.00103
44.05 -0.00086
44.1 -0.00087
44.15 -0.00071
44.2 -0.00067
44.25 -0.00101
44.3 -0.00106
44.35 -0.0014
44.4 -0.00145
44.45 -0.0015
44.5 -0.00135
44.55 -0.00142
44.6 -0.00149
44.65 -0.00092
44.7 -0.00097
44.75 -0.0011
44.8 -0.00113
44.85 -0.00071
44.9 -0.00086
44.95 -0.0005
45 0.00005
45.05 0.0002
45.1 0.00047
45.15 0.00049
45.2 0.00041
45.25 0.00058
45.3 0.00027
45.35 0.00001
45.4 0.00011
45.45 0.00043
45.5 0.00052
45.55 0.00072
45.6 0.00041
45.65 0.0001
45.7 0.00022
45.75 0.00065
45.8 0.00055
45.85 0.00026
45.9 0.00029
45.95 0.00021
46 -0.00022
46.05 -0.00053
46.1 -0.00109
46.15 -0.00153
46.2 -0.00147
46.25 -0.00144
46.3 -0.00124
46.35 -0.00095
46.4 -0.00063
46.45 0.00016
46.5 0.00073
46.55 0.00061
46.6 0.00083
46.65 0.00075
46.7 0.00114
46.75 0.0016
46.8 0.00221
46.85 0.00244
46.9 0.0025
46.95 0.00238
47 0.0024
47.05 0.00174
47.1 0.00095
47.15 -0.00002
47.2 -0.00024
47.25 -0.00041
47.3 -0.0008
47.35 -0.00146
47.4 -0.00163
47.45 -0.00174
47.5 -0.00118
47.55 -0.00027
47.6 0.00061
47.65 0.00088
47.7 0.00147
47.75 0.00187
47.8 0.00231
47.85 0.0019
47.9 0.00149
47.95 0.00114
48 0.00122
48.05 0.00106
48.1 0.00077
48.15 0.00102
48.2 0.00136
48.25 0.00182
48.3 0.00247
48.35 0.00216
48.4 0.00191
48.45 0.0017
48.5 0.00134
48.55 0.00058
48.6 -0.00012
48.65 -0.00082
48.7 -0.00149
48.75 -0.00179
48.8 -0.00233
48.85 -0.00205
48.9 -0.00217
48.95 -0.00232
49 -0.00184
49.05 -0.00163
49.1 -0.00147
49.15 -0.0015
49.2 -0.00089
49.25 0.00009
49.3 0.0007
49.35 0.00133
49.4 0.00209
49.45 0.00205
49.5 0.00216
49.55 0.00157
49.6 0.00055
49.65 0.00029
49.7 -0.00023
49.75 -0.00093
49.8 -0.0017
49.85 -0.00195
49.9 -0.00218
49.95 -0.00246
50 -0.00281
50.05 -0.00258
50.1 -0.00237
50.15 -0.00174
50.2 -0.00161
50.25 -0.00117
50.3 -0.00037
50.35 0.00059
50.4 0.00113
50.45 0.00141
50.5 0.00132
50.55 0.0012
50.6 0.00074
50.65 0.00057
50.7 0.00031
50.75 0.00015
50.8 0.00025
50.85 0.00076
50.9 0.00132
50.95 0.00161
51 0.00179
51.05 0.0018
51.1 0.00174
51.15 0.00138
51.2 0.00061
51.25 0.00047
51.3 0.0008
51.35 0.00046
51.4 0.00017
51.45 0.00009
51.5 -0.00028
51.55 -0.00012
51.6 -0.00042
51.65 -0.00076
51.7 -0.00099
51.75 -0.00105
51.8 -0.00146
51.85 -0.00168
51.9 -0.00186
51.95 -0.00167
52 -0.00112
52.05 -0.00077
52.1 -0.00024
52.15 0.00052
52.2 0.00083
52.25 0.00049
52.3 -0.0001
52.35 -0.00092
52.4 -0.00179
52.45 -0.00181
52.5 -0.00189
52.55 -0.00131
52.6 -0.00103
52.65 -0.00058
52.7 0.00025
52.75 0.00095
52.8 0.00115
52.85 0.00073
52.9 0.00009
52.95 -0.00068
53 -0.00108
53.05 -0.00146
53.1 -0.00182
53.15 -0.00204
53.2 -0.00244
53.25 -0.00223
53.3 -0.00186
53.35 -0.00168
53.4 -0.00181
53.45 -0.00123
53.5 -0.00068
53.55 -0.00021
53.6 -0.00022
53.65 -0.00067
53.7 -0.00115
53.75 -0.00094
53.8 -0.00127
53.85 -0.00161
53.9 -0.00175
53.95 -0.00218
54 -0.00212
54.05 -0.00241
54.1 -0.00242
54.15 -0.00257
54.2 -0.00322
54.25 -0.00441
54.3 -0.00581
54.35 -0.0067
54.4 -0.00787
54.45 -0.00889
54.5 -0.00991
54.55 -0.01123
54.6 -0.01363
54.65 -0.01682
54.7 -0.02054
54.75 -0.02511
54.8 -0.03031
54.85 -0.03519
54.9 -0.04034
54.95 -0.0458
55 -0.05235
55.05 -0.05996
55.1 -0.06854
55.15 -0.07824
55.2 -0.0883
55.25 -0.09861
55.3 -0.10995
55.35 -0.1219
55.4 -0.13411
55.45 -0.14674
55.5 -0.1604
55.55 -0.17441
55.6 -0.18821
55.65 -0.20237
55.7 -0.2162
55.75 -0.23025
55.8 -0.24327
55.85 -0.25618
55.9 -0.26826
55.95 -0.27901
56 -0.28824
56.05 -0.2964
56.1 -0.30263
56.15 -0.30656
56.2 -0.30897
56.25 -0.30975
56.3 -0.30807
56.35 -0.30448
56.4 -0.29917
56.45 -0.29208
56.5 -0.28301
56.55 -0.27217
56.6 -0.25994
56.65 -0.24623
56.7 -0.23042
56.75 -0.21295
56.8 -0.19477
56.85 -0.17604
56.9 -0.1569
56.95 -0.13724
57 -0.11773
57.05 -0.09799
57.1 -0.07838
57.15 -0.0584
57.2 -0.03855
57.25 -0.01908
57.3 -0.00012
57.35 0.01785
57.4 0.03519
57.45 0.05228
57.5 0.06893
57.55 0.08593
57.6 0.10268
57.65 0.11911
57.7 0.13516
57.75 0.1505
57.8 0.16518
57.85 0.17944
57.9 0.194
57.95 0.20855
58 0.22238
58.05 0.23533
58.1 0.24797
58.15 0.25994
58.2 0.27068
58.25 0.28013
58.3 0.28868
58.35 0.29655
58.4 0.30349
58.45 0.30957
58.5 0.3139
58.55 0.31721
58.6 0.31875
58.65 0.3195
58.7 0.31899
58.75 0.31767
58.8 0.31565
58.85 0.31238
58.9 0.30789
58.95 0.30277
59 0.29708
59.05 0.29039
59.1 0.28329
59.15 0.27516
59.2 0.26658
59.25 0.25788
59.3 0.24911
59.35 0.24035
59.4 0.23191
59.45 0.22307
59.5 0.21441
59.55 0.2057
59.6 0.1968
59.65 0.18781
59.7 0.17848
59.75 0.16956
59.8 0.16038
59.85 0.1515
59.9 0.14356
59.95 0.13606
60 0.12888
60.05 0.12214
60.1 0.11547
60.15 0.10838
60.2 0.10102
60.25 0.09375
60.3 0.08681
60.35 0.07973
60.4 0.07339
60.45 0.06697
60.5 0.06126
60.55 0.05573
60.6 0.05047
60.65 0.04514
60.7 0.04053
60.75 0.03597
60.8 0.03179
60.85 0.0273
60.9 0.02297
60.95 0.01915
61 0.01533
61.05 0.01231
61.1 0.00882
61.15 0.00508
61.2 0.00221
61.25 -0.00042
61.3 -0.00312
61.35 -0.00589
61.4 -0.0083
61.45 -0.01105
61.5 -0.01307
61.55 -0.01457
61.6 -0.0162
61.65 -0.01759
61.7 -0.01956
61.75 -0.02201
61.8 -0.02371
61.85 -0.02578
61.9 -0.02773
61.95 -0.0298
62 -0.03173
62.05 -0.03301
62.1 -0.0341
62.15 -0.03531
62.2 -0.03643
62.25 -0.03698
62.3 -0.0379
62.35 -0.03826
62.4 -0.03879
62.45 -0.03883
62.5 -0.03843
62.55 -0.03818
62.6 -0.03812
62.65 -0.03784
62.7 -0.03825
62.75 -0.03865
62.8 -0.03853
62.85 -0.03863
62.9 -0.03872
62.95 -0.03912
63 -0.03953
63.05 -0.03927
63.1 -0.03942
63.15 -0.03931
63.2 -0.03901
63.25 -0.03897
63.3 -0.03923
63.35 -0.03939
63.4 -0.03923
63.45 -0.03874
63.5 -0.03838
63.55 -0.03785
63.6 -0.03714
63.65 -0.03686
63.7 -0.03669
63.75 -0.03635
63.8 -0.03572
63.85 -0.0353
63.9 -0.03452
63.95 -0.03425
64 -0.03442
64.05 -0.03403
64.1 -0.03408
64.15 -0.03393
64.2 -0.03327
64.25 -0.03252
64.3 -0.03163
64.35 -0.03052
64.4 -0.02929
64.45 -0.02892
64.5 -0.02848
64.55 -0.02834
64.6 -0.02855
64.65 -0.02888
64.7 -0.02855
64.75 -0.02792
64.8 -0.02692
64.85 -0.02616
64.9 -0.02584
64.95 -0.02553
65 -0.02521
65.05 -0.02534
65.1 -0.0257
65.15 -0.02573
65.2 -0.02527
65.25 -0.02475
65.3 -0.02424
65.35 -0.02377
65.4 -0.02321
65.45 -0.02234
65.5 -0.02142
65.55 -0.02134
65.6 -0.02124
65.65 -0.02086
65.7 -0.02024
65.75 -0.02034
65.8 -0.02057
65.85 -0.02075
65.9 -0.02095
65.95 -0.02058
66 -0.01967
66.05 -0.01945
66.1 -0.01953
66.15 -0.01906
66.2 -0.01813
66.25 -0.01762
66.3 -0.01773
66.35 -0.01804
66.4 -0.01831
66.45 -0.01864
66.5 -0.01843
66.55 -0.01762
66.6 -0.01734
66.65 -0.0165
66.7 -0.01613
66.75 -0.01569
66.8 -0.01521
66.85 -0.0144
66.9 -0.01356
66.95 -0.01302
67 -0.0126
67.05 -0.01204
67.1 -0.01211
67.15 -0.01221
67.2 -0.0118
67.25 -0.0112
67.3 -0.01132
67.35 -0.01157
67.4 -0.01137
67.45 -0.0109
67.5 -0.01034
67.55 -0.00981
67.6 -0.00925
67.65 -0.00859
67.7 -0.0087
67.75 -0.00862
67.8 -0.00904
67.85 -0.00901
67.9 -0.00961
67.95 -0.00985
68 -0.00968
68.05 -0.0095
68.1 -0.00929
68.15 -0.00899
68.2 -0.0085
68.25 -0.00854
68.3 -0.00904
68.35 -0.00931
68.4 -0.00978
68.45 -0.00998
68.5 -0.01035
68.55 -0.01055
68.6 -0.01026
68.65 -0.01013
68.7 -0.00962
68.75 -0.00964
68.8 -0.00921
68.85 -0.00846
68.9 -0.00834
68.95 -0.00778
69 -0.00778
69.05 -0.0082
69.1 -0.0079
69.15 -0.0079
69.2 -0.00834
69.25 -0.00879
69.3 -0.00861
69.35 -0.00813
69.4 -0.00758
69.45 -0.00746
69.5 -0.00686
69.55 -0.00597
69.6 -0.00538
69.65 -0.00479
69.7 -0.00493
69.75 -0.00552
69.8 -0.00611
69.85 -0.00626
69.9 -0.00596
69.95 -0.00539
70 -0.00494
70.05 -0.00435
70.1 -0.00417
70.15 -0.00368
70.2 -0.00326
70.25 -0.00299
70.3 -0.00312
70.35 -0.00378
70.4 -0.00467
70.45 -0.00554
70.5 -0.00649
70.55 -0.0071
70.6 -0.007
70.65 -0.00664
70.7 -0.00586
70.75 -0.00521
70.8 -0.00516
70.85 -0.00513
70.9 -0.00481
70.95 -0.00463
71 -0.00478
71.05 -0.00507
71.1 -0.00524
71.15 -0.00478
71.2 -0.00421
71.25 -0.0043
71.3 -0.00391
71.35 -0.00388
71.4 -0.00336
71.45 -0.00283
71.5 -0.00292
71.55 -0.00279
71.6 -0.00279
71.65 -0.00303
71.7 -0.00328
71.75 -0.00294
71.8 -0.0027
71.85 -0.0024
71.9 -0.0022
71.95 -0.00187
72 -0.00184
72.05 -0.00177
72.1 -0.00211
72.15 -0.00191
72.2 -0.00173
72.25 -0.00135
72.3 -0.00157
72.35 -0.00135
72.4 -0.0014
72.45 -0.00191
72.5 -0.00189
72.55 -0.00228
72.6 -0.00243
72.65 -0.00218
72.7 -0.00206
72.75 -0.00235
72.8 -0.00208
72.85 -0.00244
72.9 -0.00289
72.95 -0.00266
73 -0.00215
73.05 -0.00225
73.1 -0.00233
73.15 -0.00245
73.2 -0.00247
73.25 -0.00284
73.3 -0.00302
73.35 -0.00303
73.4 -0.00311
73.45 -0.0027
73.5 -0.002
73.55 -0.00174
73.6 -0.00121
73.65 -0.00045
73.7 -0.00038
73.75 -0.00054
73.8 -0.00028
73.85 -0.00074
73.9 -0.001
73.95 -0.0013
74 -0.00201
74.05 -0.00287
74.1 -0.00285
74.15 -0.00295
74.2 -0.00273
74.25 -0.00259
74.3 -0.00284
74.35 -0.00334
74.4 -0.00347
74.45 -0.00338
74.5 -0.00356
74.55 -0.00383
74.6 -0.00381
74.65 -0.00323
74.7 -0.00315
74.75 -0.00317
74.8 -0.00345
74.85 -0.00309
74.9 -0.00286
74.95 -0.00257
75 -0.00203
75.05 -0.00202
75.1 -0.00232
75.15 -0.00257
75.2 -0.00284
75.25 -0.00243
75.3 -0.00203
75.35 -0.00195
75.4 -0.00143
75.45 -0.00096
75.5 -0.00046
75.55 -0.00048
75.6 -0.0004
75.65 -0.00052
75.7 -0.00108
75.75 -0.00149
75.8 -0.00217
75.85 -0.00277
75.9 -0.00343
75.95 -0.0038
76 -0.00367
76.05 -0.00329
76.1 -0.00268
76.15 -0.00255
76.2 -0.00281
76.25 -0.00323
76.3 -0.0037
76.35 -0.00332
76.4 -0.00272
76.45 -0.00239
76.5 -0.00196
76.55 -0.0017
76.6 -0.00096
76.65 -0.00048
76.7 0.00035
76.75 0.00101
76.8 0.00087
76.85 0.0008
76.9 0.00025
76.95 -0.00034
77 -0.00021
77.05 0.00026
77.1 0.0004
77.15 0.00069
77.2 0.00129
77.25 0.00104
77.3 0.00121
77.35 0.0015
77.4 0.00127
77.45 0.00138
77.5 0.00123
77.55 0.0013
77.6 0.00165
77.65 0.00187
77.7 0.00143
77.75 0.00069
77.8 -0.00007
77.85 -0.00078
77.9 -0.00154
77.95 -0.0015
78 -0.00099
78.05 -0.00049
78.1 -0.00035
78.15 -0.00073
78.2 -0.0007
78.25 -0.00096
78.3 -0.00058
78.35 0.00016
78.4 0.00071
78.45 0.00128
78.5 0.00159
78.55 0.00184
78.6 0.00176
78.65 0.0011
78.7 0.00062
78.75 -0.0002
78.8 -0.00056
78.85 -0.00037
78.9 -0.00052
78.95 -0.0011
79 -0.00175
79.05 -0.00252
79.1 -0.00247
79.15 -0.00213
79.2 -0.00134
79.25 -0.00042
79.3 0.00004
79.35 -0.00017
79.4 0.00005
79.45 -0.00017
79.5 -0.00035
79.55 -0.00005
79.6 -0.00017
79.65 -0.0006
79.7 -0.00085
79.75 -0.00094
79.8 -0.0013
79.85 -0.00155
79.9 -0.0017
79.95 -0.00178
80 -0.00129
80.05 -0.00139
80.1 -0.00133
80.15 -0.00075
80.2 -0.00062
80.25 -0.00059
80.3 -0.00074
80.35 -0.00101
80.4 -0.00071
80.45 -0.0002
80.5 -0.00015
80.55 0.00032
80.6 0.00042
80.65 0.00038
80.7 0.00025
80.75 0.00009
80.8 0.0002
80.85 -0.00026
80.9 -0.00032
80.95 -0.00024
81 -0.00031
81.05 -0.00078
81.1 -0.00109
81.15 -0.00137
81.2 -0.001
81.25 -0.00046
81.3 -0
81.35 -0.00018
81.4 -0.00009
81.45 -0.00028
81.5 -0.00007
81.55 0.00005
81.6 -0.00028
81.65 -0.00092
81.7 -0.001
81.75 -0.00143
81.8 -0.00173
81.85 -0.00184
81.9 -0.00178
81.95 -0.00194
82 -0.00189
82.05 -0.00171
82.1 -0.00157
82.15 -0.00116
82.2 -0.00045
82.25 -0.00043
82.3 -0.00026
82.35 0.00038
82.4 0.00099
82.45 0.0013
82.5 0.00096
82.55 0.00056
82.6 -0.00021
82.65 -0.00101
82.7 -0.00177
82.75 -0.00249
82.8 -0.00319
82.85 -0.00319
82.9 -0.00305
82.95 -0.00314
83 -0.00267
83.05 -0.00254
83.1 -0.00212
83.15 -0.00185
83.2 -0.001
83.25 -0.00009
83.3 0.00037
83.35 0.00052
83.4 0.00105
83.45 0.00161
83.5 0.00225
83.55 0.00223
83.6 0.00202
83.65 0.00198
83.7 0.00194
83.75 0.00145
83.8 0.00082
83.85 0.00036
83.9 -0.00006
83.95 0.00001
84 -0.0003
84.05 -0.00073
84.1 -0.00111
84.15 -0.00101
84.2 -0.0006
84.25 -0.00001
84.3 -0.00007
84.35 0.00044
84.4 0.00065
84.45 0.00031
84.5 0.00009
84.55 -0.00045
84.6 -0.00104
84.65 -0.00139
84.7 -0.00118
84.75 -0.00047
84.8 0.0003
84.85 0.00029
84.9 0.00023
84.95 -0.0001
85 0.00008
85.05 0.00074
85.1 0.00077
85.15 0.00032
85.2 0.00004
85.25 0.00008
85.3 0.00025
85.35 0.00065
85.4 0.00045
85.45 0.00083
85.5 0.0014
85.55 0.00159
85.6 0.00112
85.65 0.00065
85.7 0.0008
85.75 0.00039
85.8 0.00032
85.85 0.00055
85.9 0.00064
85.95 0.00082
86 0.0012
86.05 0.00114
86.1 0.00103
86.15 0.00062
86.2 0.00026
86.25 -0.00024
86.3 -0.0008
86.35 -0.0014
86.4 -0.00212
86.45 -0.00282
86.5 -0.00281
86.55 -0.00295
86.6 -0.00315
86.65 -0.00256
86.7 -0.00203
86.75 -0.00129
86.8 -0.00023
86.85 0.00019
86.9 0.00029
86.95 -0.00002
87 -0.00063
87.05 -0.00131
87.1 -0.00109
87.15 -0.00071
87.2 -0.00036
87.25 -0.00021
87.3 -0.00043
87.35 -0.00022
87.4 -0.00016
87.45 0.00008
87.5 0.00064
87.55 0.00115
87.6 0.0015
87.65 0.00165
87.7 0.00115
87.75 0.00077
87.8 0.00038
87.85 0.00042
87.9 0.00089
87.95 0.00106
88 0.00114
88.05 0.00159
88.1 0.00188
88.15 0.00151
88.2 0.00102
88.25 0.0009
88.3 0.00106
88.35 0.0009
88.4 0.00102
88.45 0.00057
88.5 0.0006
88.55 0.00032
88.6 -0.00023
88.65 -0.00098
88.7 -0.00139
88.75 -0.00112
88.8 -0.00129
88.85 -0.00101
88.9 -0.00072
88.95 -0.00089
89 -0.00096
89.05 -0.00123
89.1 -0.00177
89.15 -0.00152
89.2 -0.00143
89.25 -0.00096
89.3 -0.00095
89.35 -0.00074
89.4 -0.00004
89.45 0.00009
89.5 0.00033
89.55 0.00075
89.6 0.00048
89.65 0.00003
89.7 -0.00027
89.75 -0.00079
89.8 -0.00108
89.85 -0.00166
89.9 -0.002
89.95 -0.00213
90 -0.00242
90.05 -0.00229
90.1 -0.00202
90.15 -0.00207
90.2 -0.002
90.25 -0.00197
90.3 -0.00224
90.35 -0.00231
90.4 -0.00226
90.45 -0.0016
90.5 -0.00063
90.55 -0.00007
90.6 0.00005
90.65 0.00068
90.7 0.00123
90.75 0.0012
90.8 0.00137
90.85 0.00093
90.9 0.00027
90.95 0.00038
91 0.00071
91.05 0.00106
91.1 0.00141
91.15 0.00163
91.2 0.00188
91.25 0.00151
91.3 0.00084
91.35 0.00009
91.4 -0.00037
91.45 -0.00083
91.5 -0.00113
91.55 -0.0009
91.6 -0.00041
91.65 -0.00019
91.7 -0.00049
91.75 -0.0001
91.8 0.00004
91.85 0.00053
91.9 0.00122
91.95 0.00191
92 0.00175
92.05 0.00136
92.1 0.00113
92.15 0.00076
92.2 0.00016
92.25 0.00024
92.3 -0.00007
92.35 -0.0007
92.4 -0.00134
92.45 -0.00125
92.5 -0.00097
92.55 -0.00098
92.6 -0.00057
92.65 0.00018
92.7 0.00024
92.75 -0.00015
92.8 -0.00004
92.85 0.00011
92.9 0.00034
92.95 0.00022
93 -0.00029
93.05 -0.00064
93.1 -0.0006
93.15 -0.00072
93.2 -0.00115
93.25 -0.00139
93.3 -0.00145
93.35 -0.00107
93.4 -0.00075
93.45 -0.00004
93.5 0.00046
93.55 0.00117
93.6 0.00115
93.65 0.00147
93.7 0.00184
93.75 0.00162
93.8 0.00177
93.85 0.00224
93.9 0.00252
93.95 0.00301
94 0.0035
94.05 0.00389
94.1 0.00357
94.15 0.00289
94.2 0.00267
94.25 0.00242
94.3 0.00258
94.35 0.00223
94.4 0.00167
94.45 0.00155
94.5 0.00105
94.55 0.00052
94.6 0.00037
94.65 0.00073
94.7 0.0006
94.75 0.00035
94.8 -0.0002
94.85 -0.00055
94.9 -0.00062
94.95 -0.00049
95 0.00009
95.05 0.00038
95.1 0.00062
95.15 0.00098
95.2 0.00074
95.25 0.00059
95.3 -0.00004
95.35 -0.00089
95.4 -0.00186
95.45 -0.00266
95.5 -0.00316
95.55 -0.00298
95.6 -0.00219
95.65 -0.00124
95.7 -0.00021
95.75 0.00064
95.8 0.0007
95.85 0.00053
95.9 0.00011
95.95 -0.00043
96 -0.00099
96.05 -0.00126
96.1 -0.00116
96.15 -0.00069
96.2 -0.00018
96.25 0.00056
96.3 0.00074
96.35 0.00055
96.4 0.00012
96.45 0
96.5 -0.00017
96.55 0.00011
96.6 0.00065
96.65 0.00056
96.7 0.00024
96.75 0.00047
96.8 0.00021
96.85 -0.00025
96.9 -0.00074
96.95 -0.00076
97 -0.00045
97.05 -0.0007
97.1 -0.00044
97.15 0.0002
97.2 0.00106
97.25 0.00163
97.3 0.00183
97.35 0.00232
97.4 0.00284
97.45 0.00312
97.5 0.00265
97.55 0.00198
97.6 0.00144
97.65 0.00141
97.7 0.00156
97.75 0.00129
97.8 0.00108
97.85 0.00062
97.9 0.00002
97.95 0.00004
98 -0.00036
98.05 -0.0011
98.1 -0.002
98.15 -0.00273
98.2 -0.00327
98.25 -0.00307
98.3 -0.00255
98.35 -0.00233
98.4 -0.00208
98.45 -0.0014
98.5 -0.00132
98.55 -0.00102
98.6 -0.00098
98.65 -0.00044
98.7 -0.00014
98.75 0.00043
98.8 0.00102
98.85 0.00095
98.9 0.00119
98.95 0.00134
99 0.00152
99.05 0.0015
99.1 0.00152
99.15 0.00107
99.2 0.00025
99.25 -0.00075
99.3 -0.00177
99.35 -0.00228
99.4 -0.00271
99.45 -0.00248
99.5 -0.00214
99.55 -0.00144
99.6 -0.00109
99.65 -0.00039
99.7 0.00017
99.75 0.00093
99.8 0.0015
99.85 0.00168
99.9 0.00153
99.95 0.00082
