0 0
0.05 0.00097
0.1 0.0019
0.15 0.00238
0.2 0.00265
0.25 0.00358
0.3 0.00422
0.35 0.00449
0.4 0.00442
0.45 0.0045
0.5 0.00479
0.55 0.00532
0.6 0.00556
0.65 0.00581
0.7 0.00624
0.75 0.00623
0.8 0.00639
0.85 0.00598
0.9 0.00537
0.95 0.00494
1 0.00444
1.05 0.00381
1.1 0.00371
1.15 0.00329
1.2 0.00313
1.25 0.00319
1.3 0.00287
1.35 0.00288
1.4 0.00319
1.45 0.0035
1.5 0.00328
1.55 0.00338
1.6 0.00328
1.65 0.00356
1.7 0.00344
1.75 0.00378
1.8 0.0038
1.85 0.00426
1.9 0.00473
1.95 0.00535
2 0.00598
2.05 0.0058
2.1 0.00549
2.15 0.00527
2.2 0.00517
2.25 0.0051
2.3 0.00507
2.35 0.00496
2.4 0.00494
2.45 0.00449
2.5 0.00451
2.55 0.00393
2.6 0.00307
2.65 0.00201
2.7 0.00109
2.75 0.00064
2.8 0.00057
2.85 0.00111
2.9 0.00124
2.95 0.00145
3 0.00154
3.05 0.00178
3.1 0.00153
3.15 0.00106
3.2 0.00128
3.25 0.00183
3.3 0.00249
3.35 0.00258
3.4 0.00265
3.45 0.00223
3.5 0.00191
3.55 0.0014
3.6 0.00091
3.65 0.00033
3.7 -0.0003
3.75 -0.00096
3.8 -0.00068
3.85 -0.00034
3.9 0.00043
3.95 0.00112
4 0.00199
4.05 0.00216
4.1 0.00273
4.15 0.00318
4.2 0.00384
4.25 0.0046
4.3 0.00445
4.35 0.00455
4.4 0.00406
4.45 0.0039
4.5 0.00409
4.55 0.00428
4.6 0.00398
4.65 0.0039
4.7 0.0035
4.75 0.00278
4.8 0.00262
4.85 0.00231
4.9 0.00214
4.95 0.00196
5 0.00147
5.05 0.00103
5.1 0.00097
5.15 0.00072
5.2 0.00045
5.25 -0
5.3 0.0002
5.35 0.00061
5.4 0.00135
5.45 0.00175
5.5 0.00202
5.55 0.00194
5.6 0.00135
5.65 0.00057
5.7 0.00041
5.75 0.00028
5.8 0.00037
5.85 0.00062
5.9 0.0009
5.95 0.00147
6 0.00145
6.05 0.00114
6.1 0.00067
6.15 -0
6.2 -0.00016
6.25 -0.00062
6.3 -0.0004
6.35 -0.00044
6.4 -0.00058
6.45 -0.00093
6.5 -0.00147
6.55 -0.00141
6.6 -0.00163
6.65 -0.00165
6.7 -0.00162
6.75 -0.00181
6.8 -0.00179
6.85 -0.00187
6.9 -0.00141
6.95 -0.00093
7 -0.00032
7.05 0.00019
7.1 0.00056
7.15 0.00092
7.2 0.00149
7.25 0.00171
7.3 0.00146
7.35 0.00166
7.4 0.00157
7.45 0.00099
7.5 0.00074
7.55 0.00041
7.6 -0.00003
7.65 -0.00047
7.7 -0.00072
7.75 -0.00091
7.8 -0.00055
7.85 0.00004
7.9 0.00059
7.95 0.00074
8 0.0009
8.05 0.00086
8.1 0.00081
8.15 0.00091
8.2 0.00094
8.25 0.0012
8.3 0.00122
8.35 0.00072
8.4 0.00068
8.45 0.00107
8.5 0.00137
8.55 0.00171
8.6 0.0019
8.65 0.00224
8.7 0.00204
8.75 0.00139
8.8 0.00069
8.85 0.00064
8.9 0.00012
8.95 0.00028
9 0.00035
9.05 0.00088
9.1 0.00161
9.15 0.00232
9.2 0.00269
9.25 0.00244
9.3 0.00201
9.35 0.00213
9.4 0.00183
9.45 0.00166
9.5 0.00177
9.55 0.00215
9.6 0.00209
9.65 0.00178
9.7 0.00172
9.75 0.00192
9.8 0.00216
9.85 0.00167
9.9 0.00137
9.95 0.00096
10 0.00098
10.05 0.00106
10.1 0.00137
10.15 0.00172
10.2 0.00178
10.25 0.00199
10.3 0.0019
10.35 0.00214
10.4 0.00236
10.45 0.0019
10.5 0.00132
10.55 0.00066
10.6 0.00011
10.65 -0.00063
10.7 -0.00133
10.75 -0.00155
10.8 -0.00162
10.85 -0.00192
10.9 -0.00219
10.95 -0.0019
11 -0.00174
11.05 -0.00169
11.1 -0.00119
11.15 -0.00077
11.2 -0.00021
11.25 0.0001
11.3 -0.0002
11.35 -0.00014
11.4 0.00032
11.45 0.0001
11.5 -0.00008
11.55 -0.0001
11.6 -0.00004
11.65 -0.0002
11.7 0.00001
11.75 0.00061
11.8 0.0009
11.85 0.00059
11.9 0.0008
11.95 0.00096
12 0.00062
12.05 0.00086
12.1 0.00134
12.15 0.00136
12.2 0.00098
12.25 0.00049
12.3 0.00055
12.35 0.00061
12.4 0.00033
12.45 -0.00004
12.5 0.00001
12.55 0.00037
12.6 0.00042
12.65 0.00056
12.7 0.00062
12.75 0.00028
12.8 -0.0004
12.85 -0.00108
12.9 -0.00138
12.95 -0.00135
13 -0.00133
13.05 -0.00084
13.1 -0
13.15 0.00102
13.2 0.00185
13.25 0.00236
13.3 0.00257
13.35 0.00251
13.4 0.00274
13.45 0.00265
13.5 0.00188
13.55 0.00113
13.6 0.0001
13.65 -0.00036
13.7 -0.00088
13.75 -0.00112
13.8 -0.00095
13.85 -0.00126
13.9 -0.00148
13.95 -0.00157
14 -0.00142
14.05 -0.00137
14.1 -0.00153
14.15 -0.00143
14.2 -0.0009
14.25 -0.00041
14.3 0.00003
14.35 -0.0001
14.4 0.00021
14.45 0.00053
14.5 0.00117
14.55 0.00137
14.6 0.00137
14.65 0.00144
14.7 0.00111
14.75 0.00098
14.8 0.00048
14.85 0.00028
14.9 0.00062
14.95 0.00031
15 0.00006
15.05 -0.00003
15.1 -0.00028
15.15 -0.00038
15.2 -0.00015
15.25 -0.00023
15.3 -0.0006
15.35 -0.00124
15.4 -0.00144
15.45 -0.00115
15.5 -0.00095
15.55 -0.00071
15.6 -0.00027
15.65 0.00049
15.7 0.00102
15.75 0.00141
15.8 0.0014
15.85 0.00092
15.9 0.00077
15.95 0.00068
16 0.00031
16.05 0.00018
16.1 0.00031
16.15 0.00019
16.2 0.00009
16.25 0.00008
16.3 -0.00018
16.35 -0.00001
16.4 -0.00006
16.45 -0.00007
16.5 0.00031
16.55 0.00001
16.6 -0.00064
16.65 -0.00133
16.7 -0.00164
16.75 -0.00149
16.8 -0.00122
16.85 -0.0005
16.9 -0.00021
16.95 -0.00051
17 -0.00093
17.05 -0.00094
17.1 -0.00117
17.15 -0.00132
17.2 -0.00145
17.25 -0.0013
17.3 -0.0016
17.35 -0.00211
17.4 -0.00274
17.45 -0.00258
17.5 -0.00251
17.55 -0.00193
17.6 -0.00173
17.65 -0.00147
17.7 -0.00085
17.75 0.00014
17.8 0.00079
17.85 0.00121
17.9 0.00122
17.95 0.00161
18 0.00124
18.05 0.0009
18.1 0.0006
18.15 0.00044
18.2 0.00026
18.25 0.00012
18.3 0.0002
18.35 0.0003
18.4 0.00033
18.45 -0.00011
18.5 -0.00026
18.55 -0.00083
18.6 -0.00152
18.65 -0.00231
18.7 -0.00227
18.75 -0.00155
18.8 -0.00104
18.85 -0.00099
18.9 -0.00104
18.95 -0.00077
19 -0.00008
19.05 0.00083
19.1 0.00163
19.15 0.00226
19.2 0.00243
19.25 0.00195
19.3 0.0016
19.35 0.00126
19.4 0.00067
19.45 0.00075
19.5 0.0007
19.55 0.00078
19.6 0.00091
19.65 0.0005
19.7 0.00016
19.75 0.00016
19.8 -0.00025
19.85 -0.00099
19.9 -0.00135
19.95 -0.00186
20 -0.0024
20.05 -0.00288
20.1 -0.00342
20.15 -0.00387
20.2 -0.00408
20.25 -0.00399
20.3 -0.00406
20.35 -0.00343
20.4 -0.00293
20.45 -0.00229
20.5 -0.00115
20.55 0.00017
20.6 0.00064
20.65 0.001
20.7 0.00105
20.75 0.00069
20.8 0.00042
20.85 0.00073
20.9 0.00062
20.95 0.00019
21 -0.00034
21.05 -0.00099
21.1 -0.0011
21.15 -0.00095
21.2 -0.00104
21.25 -0.00066
21.3 -0.00022
21.35 0.0002
21.4 0.00094
21.45 0.00102
21.5 0.00081
21.55 0.00068
21.6 0.0009
21.65 0.00074
21.7 0.00029
21.75 0.00053
21.8 0.00021
21.85 0.0002
21.9 -0.00007
21.95 -0.00009
22 -0.00019
22.05 -0.00064
22.1 -0.00112
22.15 -0.00098
22.2 -0.00063
22.25 -0.00018
22.3 0.00047
22.35 0.00048
22.4 0.0008
22.45 0.00126
22.5 0.00187
22.55 0.00178
22.6 0.00135
22.65 0.00052
22.7 0.00005
22.75 -0.00017
22.8 -0.00043
22.85 -0.00042
22.9 -0.00041
22.95 0.00017
23 0.00077
23.05 0.00144
23.1 0.0017
23.15 0.00134
23.2 0.00141
23.25 0.00121
23.3 0.00102
23.35 0.00072
23.4 0.0003
23.45 0.00036
23.5 0.00062
23.55 0.00039
23.6 0.00034
23.65 0.00062
23.7 0.00064
23.75 0.00109
23.8 0.00168
23.85 0.0024
23.9 0.00225
23.95 0.00193
24 0.00126
24.05 0.00115
24.1 0.00104
24.15 0.00099
24.2 0.00132
24.25 0.00156
24.3 0.00129
24.35 0.00151
24.4 0.00157
24.45 0.00115
24.5 0.00059
24.55 0.00006
24.6 -0.00055
24.65 -0.00116
24.7 -0.00095
24.75 -0.0008
24.8 -0.00082
24.85 -0.00081
24.9 -0.00063
24.95 -0.00036
25 -0.00018
25.05 -0.00018
25.1 -0.00057
25.15 -0.001
25.2 -0.00124
25.25 -0.00174
25.3 -0.00175
25.35 -0.00181
25.4 -0.0021
25.45 -0.00258
25.5 -0.0028
25.55 -0.00249
25.6 -0.00157
25.65 -0.00073
25.7 -0.00056
25.75 -0.00009
25.8 0.00039
25.85 0.00025
25.9 -0.00009
25.95 -0.00011
26 0.00027
26.05 0.00005
26.1 0.00012
26.15 0.00048
26.2 0.00079
26.25 0.00074
26.3 0.00103
26.35 0.0007
26.4 0.00077
26.45 0.00067
26.5 0.00083
26.55 0.00092
26.6 0.00059
26.65 0.00032
26.7 -0.00021
26.75 -0.00095
26.8 -0.00169
26.85 -0.00209
26.9 -0.00181
26.95 -0.00133
27 -0.00098
27.05 -0.00043
27.1 0.00019
27.15 0.0003
27.2 0.00018
27.25 0.00055
27.3 0.00042
27.35 0.00054
27.4 0.00086
27.45 0.0008
27.5 0.00045
27.55 0.00021
27.6 0.00007
27.65 -0.00042
27.7 -0.00066
27.75 -0.001
27.8 -0.00123
27.85 -0.00089
27.9 -0.00059
27.95 -0.00081
28 -0.00079
28.05 -0.00085
28.1 -0.0005
28.15 0.00005
28.2 -0.00005
28.25 -0.00049
28.3 -0.00056
28.35 -0.00036
28.4 -0.00066
28.45 -0.0005
28.5 -0.00028
28.55 0
28.6 0.00047
28.65 0.00045
28.7 0.00064
28.75 0.0008
28.8 0.0005
28.85 0.00029
28.9 0.00068
28.95 0.00127
29 0.00197
29.05 0.00273
29.1 0.00275
29.15 0.00293
29.2 0.00245
29.25 0.00178
29.3 0.00089
29.35 0.00006
29.4 -0.0003
29.45 -0.00071
29.5 -0.00046
29.55 0.00022
29.6 0.00111
29.65 0.00127
29.7 0.00085
29.75 0.00093
29.8 0.00108
29.85 0.00113
29.9 0.00121
29.95 0.00141
30 0.00123
30.05 0.00122
30.1 0.00128
30.15 0.00157
30.2 0.00134
30.25 0.00099
30.3 0.00102
30.35 0.00042
30.4 -0.00039
30.45 -0.00059
30.5 -0.00033
30.55 -0.00044
30.6 -0.00027
30.65 -0.00029
30.7 0
30.75 0.00063
30.8 0.00049
30.85 0.00074
30.9 0.00076
30.95 0.00113
31 0.00157
31.05 0.00187
31.1 0.00219
31.15 0.00201
31.2 0.00218
31.25 0.00214
31.3 0.00148
31.35 0.00074
31.4 0.00065
31.45 0.00011
31.5 -0.00078
31.55 -0.00093
31.6 -0.0015
31.65 -0.00203
31.7 -0.00188
31.75 -0.00145
31.8 -0.00077
31.85 -0.00028
31.9 -0.00021
31.95 -0.00013
32 0.00025
32.05 0.00046
32.1 0.00005
32.15 -0.00019
32.2 -0.00014
32.25 -0.00053
32.3 -0.00048
32.35 -0.00054
32.4 -0.00039
32.45 -0.00048
32.5 -0.00045
32.55 -0.00036
32.6 -0.00004
32.65 0.00035
32.7 0.00089
32.75 0.00156
32.8 0.00145
32.85 0.00149
32.9 0.00147
32.95 0.00092
33 0.00053
33.05 -0.00014
33.1 -0.0009
33.15 -0.00124
33.2 -0.00088
33.25 -0.00051
33.3 -0.00031
33.35 -0.00012
33.4 -0.00054
33.45 -0.00065
33.5 -0.00017
33.55 0.00053
33.6 0.00069
33.65 0.00059
33.7 0.00014
33.75 0.00021
33.8 0.00014
33.85 -0.00009
33.9 -0.00076
33.95 -0.0013
34 -0.00155
34.05 -0.00211
34.1 -0.00274
34.15 -0.00303
34.2 -0.00302
34.25 -0.00308
34.3 -0.0028
34.35 -0.00242
34.4 -0.00178
34.45 -0.00166
34.5 -0.00107
34.55 -0.00113
34.6 -0.00075
34.65 -0.00071
34.7 -0.00113
34.75 -0.00168
34.8 -0.00175
34.85 -0.00184
34.9 -0.00145
34.95 -0.00147
35 -0.00175
35.05 -0.00127
35.1 -0.00134
35.15 -0.00078
35.2 -0.00007
35.25 0.00091
35.3 0.00165
35.35 0.0018
35.4 0.00221
35.45 0.00272
35.5 0.00313
35.55 0.00314
35.6 0.00255
35.65 0.00151
35.7 0.00058
35.75 -0.00046
35.8 -0.00096
35.85 -0.00087
35.9 -0.0011
35.95 -0.00075
36 -0.00006
36.05 0.00033
36.1 0.00054
36.15 0.00104
36.2 0.0013
36.25 0.00149
36.3 0.00106
36.35 0.00022
36.4 -0.00054
36.45 -0.00076
36.5 -0.00105
36.55 -0.00129
36.6 -0.00134
36.65 -0.00173
36.7 -0.00137
36.75 -0.00119
36.8 -0.00083
36.85 -0.00103
36.9 -0.00143
36.95 -0.00203
37 -0.00249
37.05 -0.00286
37.1 -0.00269
37.15 -0.00221
37.2 -0.00158
37.25 -0.00136
37.3 -0.00091
37.35 -0.0005
37.4 -0.00004
37.45 0.00062
37.5 0.00114
37.55 0.00113
37.6 0.0012
37.65 0.00087
37.7 0.00093
37.75 0.001
37.8 0.00102
37.85 0.00045
37.9 -0.00018
37.95 -0.00065
38 -0.00091
38.05 -0.00099
38.1 -0.00104
38.15 -0.00121
38.2 -0.00156
38.25 -0.00189
38.3 -0.00158
38.35 -0.00151
38.4 -0.00095
38.45 -0.0003
38.5 0.00045
38.55 0.00102
38.6 0.00133
38.65 0.00162
38.7 0.00177
38.75 0.00138
38.8 0.0013
38.85 0.00166
38.9 0.00174
38.95 0.00194
39 0.00222
39.05 0.00215
39.1 0.00167
39.15 0.00112
39.2 0.00061
39.25 -0.00015
39.3 -0.0006
39.35 -0.00082
39.4 -0.00138
39.45 -0.00164
39.5 -0.00195
39.55 -0.00244
39.6 -0.0023
39.65 -0.00193
39.7 -0.00176
39.75 -0.00175
39.8 -0.0015
39.85 -0.0011
39.9 -0.00112
39.95 -0.00092
40 -0.00105
40.05 -0.00106
40.1 -0.00125
40.15 -0.00134
40.2 -0.00082
40.25 -0.00056
40.3 -0.00054
40.35 -0.00089
40.4 -0.00137
40.45 -0.00169
40.5 -0.00147
40.55 -0.00128
40.6 -0.00099
40.65 -0.00154
40.7 -0.00242
40.75 -0.00302
40.8 -0.00393
40.85 -0.00453
40.9 -0.0055
40.95 -0.00614
41 -0.00732
41.05 -0.00858
41.1 -0.01008
41.15 -0.01246
41.2 -0.01529
41.25 -0.01858
41.3 -0.02155
41.35 -0.02518
41.4 -0.02885
41.45 -0.03278
41.5 -0.038
41.55 -0.04375
41.6 -0.05049
41.65 -0.05712
41.7 -0.06481
41.75 -0.07299
41.8 -0.08191
41.85 -0.09101
41.9 -0.10123
41.95 -0.11183
42 -0.12277
42.05 -0.13379
42.1 -0.14536
42.15 -0.15795
42.2 -0.17075
42.25 -0.18322
42.3 -0.19572
42.35 -0.20876
42.4 -0.22156
42.45 -0.23413
42.5 -0.24604
42.55 -0.25696
42.6 -0.26714
42.65 -0.2759
42.7 -0.28339
42.75 -0.28907
42.8 -0.29306
42.85 -0.29555
42.9 -0.29631
42.95 -0.29604
43 -0.29363
43.05 -0.28951
43.1 -0.28339
43.15 -0.27585
43.2 -0.26666
43.25 -0.25653
43.3 -0.24451
43.35 -0.23117
43.4 -0.21654
43.45 -0.20146
43.5 -0.18565
43.55 -0.16873
43.6 -0.15087
43.65 -0.13213
43.7 -0.11282
43.75 -0.09354
43.8 -0.07374
43.85 -0.054
43.9 -0.03417
43.95 -0.01505
44 0.00414
44.05 0.02313
44.1 0.04142
44.15 0.05971
44.2 0.07782
44.25 0.09579
44.3 0.11363
44.35 0.13089
44.4 0.14683
44.45 0.16196
44.5 0.17635
44.55 0.19066
44.6 0.2044
44.65 0.21742
44.7 0.22996
44.75 0.24157
44.8 0.25242
44.85 0.26304
44.9 0.2729
44.95 0.28157
45 0.28885
45.05 0.29471
45.1 0.29964
45.15 0.30332
45.2 0.30608
45.25 0.30818
45.3 0.30973
45.35 0.31003
45.4 0.30964
45.45 0.3084
45.5 0.30624
45.55 0.30284
45.6 0.29805
45.65 0.29199
45.7 0.2851
45.75 0.27787
45.8 0.27055
45.85 0.2628
45.9 0.25401
45.95 0.24504
46 0.23552
46.05 0.22613
46.1 0.21626
46.15 0.2067
46.2 0.19679
46.25 0.18681
46.3 0.17702
46.35 0.16742
46.4 0.15802
46.45 0.14891
46.5 0.14002
46.55 0.13099
46.6 0.12219
46.65 0.11387
46.7 0.10674
46.75 0.09956
46.8 0.093
46.85 0.08653
46.9 0.08112
46.95 0.07629
47 0.07137
47.05 0.06652
47.1 0.06201
47.15 0.05737
47.2 0.05278
47.25 0.04917
47.3 0.04571
47.35 0.0426
47.4 0.04009
47.45 0.03792
47.5 0.03617
47.55 0.03419
47.6 0.0322
47.65 0.02987
47.7 0.02706
47.75 0.02403
47.8 0.02166
47.85 0.01956
47.9 0.01793
47.95 0.01599
48 0.01432
48.05 0.01272
48.1 0.0108
48.15 0.00913
48.2 0.00752
48.25 0.00587
48.3 0.00439
48.35 0.0027
48.4 0.00123
48.45 0.00002
48.5 -0.00179
48.55 -0.00372
48.6 -0.00542
48.65 -0.00684
48.7 -0.00842
48.75 -0.01016
48.8 -0.0123
48.85 -0.01395
48.9 -0.0152
48.95 -0.01628
49 -0.01789
49.05 -0.01909
49.1 -0.02068
49.15 -0.0227
49.2 -0.02418
49.25 -0.02515
49.3 -0.02569
49.35 -0.02683
49.4 -0.02756
49.45 -0.02856
49.5 -0.02956
49.55 -0.03078
49.6 -0.03141
49.65 -0.03193
49.7 -0.0325
49.75 -0.03357
49.8 -0.03396
49.85 -0.03479
49.9 -0.03533
49.95 -0.03567
50 -0.03623
50.05 -0.0371
50.1 -0.03741
50.15 -0.03711
50.2 -0.03641
50.25 -0.03647
50.3 -0.03617
50.35 -0.03585
50.4 -0.03604
50.45 -0.03658
50.5 -0.03641
50.55 -0.03671
50.6 -0.03723
50.65 -0.03759
50.7 -0.03724
50.75 -0.03634
50.8 -0.03529
50.85 -0.0343
50.9 -0.0336
50.95 -0.03332
51 -0.03331
51.05 -0.03332
51.1 -0.03333
51.15 -0.03299
51.2 -0.03265
51.25 -0.03279
51.3 -0.03272
51.35 -0.03279
51.4 -0.03227
51.45 -0.03216
51.5 -0.03162
51.55 -0.03156
51.6 -0.03118
51.65 -0.03064
51.7 -0.0299
51.75 -0.02891
51.8 -0.02822
51.85 -0.02742
51.9 -0.02647
51.95 -0.02611
52 -0.02614
52.05 -0.02579
52.1 -0.02561
52.15 -0.02525
52.2 -0.02441
52.25 -0.0239
52.3 -0.0237
52.35 -0.02398
52.4 -0.02385
52.45 -0.02358
52.5 -0.02374
52.55 -0.02408
52.6 -0.02377
52.65 -0.02346
52.7 -0.02341
52.75 -0.02307
52.8 -0.02239
52.85 -0.02217
52.9 -0.02173
52.95 -0.02141
53 -0.02129
53.05 -0.02056
53.1 -0.01953
53.15 -0.01904
53.2 -0.01841
53.25 -0.0175
53.3 -0.01723
53.35 -0.01665
53.4 -0.01618
53.45 -0.01622
53.5 -0.01647
53.55 -0.01702
53.6 -0.01776
53.65 -0.01839
53.7 -0.01828
53.75 -0.01755
53.8 -0.01645
53.85 -0.01511
53.9 -0.01466
53.95 -0.01394
54 -0.01363
54.05 -0.01354
54.1 -0.01314
54.15 -0.01333
54.2 -0.01362
54.25 -0.01354
54.3 -0.01362
54.35 -0.01354
54.4 -0.01357
54.45 -0.01332
54.5 -0.0128
54.55 -0.01258
54.6 -0.01205
54.65 -0.0119
54.7 -0.01125
54.75 -0.01035
54.8 -0.00959
54.85 -0.00889
54.9 -0.00816
54.95 -0.00751
55 -0.00691
55.05 -0.0063
55.1 -0.00663
55.15 -0.007
55.2 -0.00766
55.25 -0.00822
55.3 -0.00885
55.35 -0.0093
55.4 -0.00991
55.45 -0.0102
55.5 -0.01047
55.55 -0.01056
55.6 -0.01051
55.65 -0.01079
55.7 -0.01071
55.75 -0.01069
55.8 -0.01042
55.85 -0.01039
55.9 -0.01049
55.95 -0.01072
56 -0.01018
56.05 -0.0096
56.1 -0.00918
56.15 -0.00837
56.2 -0.00745
56.25 -0.00714
56.3 -0.00726
56.35 -0.00717
56.4 -0.00711
56.45 -0.00741
56.5 -0.00798
56.55 -0.00845
56.6 -0.00856
56.65 -0.00809
56.7 -0.00742
56.75 -0.0065
56.8 -0.00582
56.85 -0.00496
56.9 -0.00414
56.95 -0.00386
57 -0.00423
57.05 -0.0046
57.1 -0.00535
57.15 -0.00583
57.2 -0.00602
57.25 -0.00572
57.3 -0.00596
57.35 -0.0059
57.4 -0.00577
57.45 -0.00569
57.5 -0.00552
57.55 -0.00555
57.6 -0.00504
57.65 -0.00422
57.7 -0.0042
57.75 -0.00373
57.8 -0.00325
57.85 -0.00306
57.9 -0.0028
57.95 -0.00224
58 -0.00165
58.05 -0.00172
58.1 -0.00181
58.15 -0.00226
58.2 -0.00263
58.25 -0.0028
58.3 -0.00343
58.35 -0.00339
58.4 -0.00336
58.45 -0.00284
58.5 -0.00271
58.55 -0.00294
58.6 -0.00363
58.65 -0.00395
58.7 -0.00436
58.75 -0.00454
58.8 -0.00402
58.85 -0.00385
58.9 -0.00324
58.95 -0.00283
59 -0.00294
59.05 -0.00287
59.1 -0.00282
59.15 -0.00272
59.2 -0.00297
59.25 -0.00356
59.3 -0.00351
59.35 -0.00291
59.4 -0.00239
59.45 -0.00254
59.5 -0.00264
59.55 -0.0032
59.6 -0.00311
59.65 -0.00295
59.7 -0.00325
59.75 -0.00354
59.8 -0.00337
59.85 -0.00352
59.9 -0.00308
59.95 -0.00227
60 -0.00144
60.05 -0.00066
60.1 -0.00002
60.15 -0.00021
60.2 -0.00057
60.25 -0.00083
60.3 -0.0014
60.35 -0.00179
60.4 -0.00203
60.45 -0.00219
60.5 -0.00175
60.55 -0.00101
60.6 -0.00034
60.65 0.00011
60.7 -0.00018
60.75 -0.00052
60.8 -0.00056
60.85 -0.00105
60.9 -0.0011
60.95 -0.0008
61 -0.0008
61.05 -0.0012
61.1 -0.00154
61.15 -0.00211
61.2 -0.00251
61.25 -0.00315
61.3 -0.00312
61.35 -0.00296
61.4 -0.0023
61.45 -0.00196
61.5 -0.00208
61.55 -0.0019
61.6 -0.00137
61.65 -0.00073
61.7 -0.00048
61.75 -0.00071
61.8 -0.00055
61.85 -0.00063
61.9 -0.00062
61.95 -0.00041
62 0.00005
62.05 0
62.1 -0.00018
62.15 -0.00025
62.2 -0.00085
62.25 -0.00161
62.3 -0.002
62.35 -0.00259
62.4 -0.00256
62.45 -0.00236
62.5 -0.00209
62.55 -0.0014
62.6 -0.00092
62.65 -0.00088
62.7 -0.00071
62.75 -0.00039
62.8 0.00012
62.85 0.00043
62.9 0.00045
62.95 0.00029
63 -0.00035
63.05 -0.00073
63.1 -0.00123
63.15 -0.00183
63.2 -0.00179
63.25 -0.00217
63.3 -0.00215
63.35 -0.00245
63.4 -0.00286
63.45 -0.00246
63.5 -0.00251
63.55 -0.00216
63.6 -0.00147
63.65 -0.00049
63.7 0.00022
63.75 0.00052
63.8 0.00094
63.85 0.00094
63.9 0.00054
63.95 0.00064
64 0.00085
64.05 0.00059
64.1 0.00004
64.15 -0.00083
64.2 -0.00095
64.25 -0.00126
64.3 -0.00177
64.35 -0.00196
64.4 -0.00214
64.45 -0.00172
64.5 -0.0009
64.55 -0.00039
64.6 0.00004
64.65 0.0003
64.7 0.00067
64.75 0.00034
64.8 -0.00015
64.85 -0.00085
64.9 -0.00145
64.95 -0.00192
65 -0.0025
65.05 -0.00295
65.1 -0.00272
65.15 -0.00231
65.2 -0.00216
65.25 -0.00229
65.3 -0.00199
65.35 -0.00209
65.4 -0.00159
65.45 -0.00098
65.5 -0.00038
65.55 -0.00044
65.6 -0.00082
65.65 -0.00098
65.7 -0.00068
65.75 -0.00046
65.8 -0.00075
65.85 -0.00103
65.9 -0.00102
65.95 -0.00057
66 0.00007
66.05 0.00019
66.1 -0.00007
66.15 0.00003
66.2 0.00032
66.25 0.00078
66.3 0.00126
66.35 0.00107
66.4 0.00084
66.45 0.0007
66.5 0.00065
66.55 0.00074
66.6 0.00027
66.65 -0.00018
66.7 -0.00028
66.75 -0.00033
66.8 -0.00027
66.85 0.0002
66.9 0.0001
66.95 -0.00026
67 -0.00093
67.05 -0.00107
67.1 -0.00086
67.15 -0.00071
67.2 -0.00106
67.25 -0.00076
67.3 -0.00051
67.35 -0.00051
67.4 -0.00046
67.45 -0.0001
67.5 0.0003
67.55 0.00066
67.6 0.00127
67.65 0.00117
67.7 0.0012
67.75 0.00072
67.8 0.00001
67.85 -0.00049
67.9 -0.00036
67.95 -0.00011
68 0.00013
68.05 -0
68.1 -0.0005
68.15 -0.00091
68.2 -0.00147
68.25 -0.00205
68.3 -0.00234
68.35 -0.00205
68.4 -0.00163
68.45 -0.00152
68.5 -0.001
68.55 -0.00055
68.6 -0.00014
68.65 0.00035
68.7 0.00052
68.75 0.00072
68.8 0.00037
68.85 0.00005
68.9 -0.00028
68.95 -0.00027
69 -0.00028
69.05 0.00013
69.1 0.00084
69.15 0.00161
69.2 0.00195
69.25 0.00186
69.3 0.00174
69.35 0.00177
69.4 0.0014
69.45 0.00052
69.5 -0.00002
69.55 -0.00048
69.6 -0.00089
69.65 -0.00126
69.7 -0.00176
69.75 -0.00144
69.8 -0.00128
69.85 -0.00074
69.9 -0.0008
69.95 -0.00069
70 -0.00093
70.05 -0.00107
70.1 -0.00082
70.15 -0.00093
70.2 -0.00085
70.25 -0.00023
70.3 0.00004
70.35 0.0002
70.4 0.00077
70.45 0.0015
70.5 0.00173
70.55 0.0012
70.6 0.00091
70.65 0.0006
70.7 -0.00002
70.75 -0.00063
70.8 -0.00055
70.85 -0.00083
70.9 -0.00144
70.95 -0.00195
71 -0.00261
71.05 -0.0028
71.1 -0.0029
71.15 -0.00303
71.2 -0.00324
71.25 -0.00332
71.3 -0.00318
71.35 -0.00317
71.4 -0.00321
71.45 -0.00248
71.5 -0.00153
71.55 -0.00084
71.6 -0.00014
71.65 0.00017
71.7 0.0009
71.75 0.00139
71.8 0.00114
71.85 0.00114
71.9 0.00072
71.95 0.00037
72 0.00027
72.05 0.00054
72.1 0.0008
72.15 0.00083
72.2 0.00085
72.25 0.00074
72.3 0.00044
72.35 0.00007
72.4 0.00035
72.45 0.0008
72.5 0.00106
72.55 0.00071
72.6 0.0006
72.65 0.00001
72.7 -0.00043
72.75 -0.00052
72.8 -0.00031
72.85 -0.00036
72.9 -0.00024
72.95 0.00012
73 0.0003
73.05 0.00059
73.1 0.00088
73.15 0.00117
73.2 0.001
73.25 0.00041
73.3 0.00029
73.35 0.00001
73.4 0.00024
73.45 -0.00014
73.5 -0.00047
73.55 -0.00029
73.6 -0.00054
73.65 -0.00104
73.7 -0.0012
73.75 -0.00103
73.8 -0.00056
73.85 -0.00007
73.9 0.00029
73.95 0.00023
74 -0.00018
74.05 -0.00066
74.1 -0.00056
74.15 0.00007
74.2 0.0003
74.25 0.00017
74.3 -0.00041
74.35 -0.00115
74.4 -0.00103
74.45 -0.0007
74.5 -0.00011
74.55 0.00013
74.6 -0.00005
74.65 -0.00031
74.7 -0.00077
74.75 -0.00118
74.8 -0.00126
74.85 -0.00081
74.9 -0.00007
74.95 0.00029
75 0.00025
75.05 -0.00016
75.1 -0.00049
75.15 -0.0008
75.2 -0.00067
75.25 -0.00053
75.3 -0.00087
75.35 -0.00148
75.4 -0.00158
75.45 -0.00105
75.5 -0.00035
75.55 0.00016
75.6 0.00055
75.65 0.00068
75.7 0.00115
75.75 0.0009
75.8 0.00021
75.85 -0.00026
75.9 -0.00097
75.95 -0.00083
76 -0.00084
76.05 -0.00048
76.1 -0.00019
76.15 0.00037
76.2 0.00025
76.25 0.00062
76.3 0.00092
76.35 0.00061
76.4 0.0006
76.45 0.00022
76.5 -0.00031
76.55 -0.00051
76.6 -0.00101
76.65 -0.00161
76.7 -0.00141
76.75 -0.00149
76.8 -0.00186
76.85 -0.00167
76.9 -0.00092
76.95 -0.00011
77 0.00012
77.05 0.00034
77.1 0.00083
77.15 0.00129
77.2 0.00178
77.25 0.00147
77.3 0.00087
77.35 0.00048
77.4 0.00066
77.45 0.00089
77.5 0.00131
77.55 0.00112
77.6 0.00109
77.65 0.00056
77.7 0.00007
77.75 -0.00051
77.8 -0.00055
77.85 -0.00071
77.9 -0.00069
77.95 -0.00039
78 -0.00024
78.05 0.00039
78.1 0.00118
78.15 0.0014
78.2 0.00097
78.25 0.00067
78.3 0.00006
78.35 0.00008
78.4 0.00011
78.45 0.00019
78.5 0.0004
78.55 0.00018
78.6 -0.00012
78.65 -0.00007
78.7 -0.00046
78.75 -0.00109
78.8 -0.00134
78.85 -0.00141
78.9 -0.00168
78.95 -0.00179
79 -0.00149
79.05 -0.00075
79.1 -0.00012
79.15 0.00061
79.2 0.00102
79.25 0.00118
79.3 0.00072
79.35 0.00087
79.4 0.00137
79.45 0.00134
79.5 0.00097
79.55 0.00064
79.6 0.00037
79.65 0.00038
79.7 0.00002
79.75 -0.00023
79.8 -0.00031
79.85 -0.00036
79.9 -0.00071
79.95 -0.00043
80 -0.00048
80.05 -0.00055
80.1 -0.00074
80.15 -0.00122
80.2 -0.00171
80.25 -0.00192
80.3 -0.00173
80.35 -0.00184
80.4 -0.00133
80.45 -0.001
80.5 -0.00024
80.55 0.0006
80.6 0.00091
80.65 0.00066
80.7 0.0005
80.75 0.00009
80.8 -0.00045
80.85 -0.00042
80.9 -0.0008
80.95 -0.00127
81 -0.00182
81.05 -0.00242
81.1 -0.00248
81.15 -0.00276
81.2 -0.00273
81.25 -0.00226
81.3 -0.00134
81.35 -0.00042
81.4 -0.00017
81.45 0.00041
81.5 0.0006
81.55 0.00034
81.6 0.0006
81.65 0.00102
81.7 0.00128
81.75 0.00111
81.8 0.00119
81.85 0.00139
81.9 0.00141
81.95 0.00156
82 0.0014
82.05 0.00137
82.1 0.00125
82.15 0.00156
82.2 0.00214
82.25 0.00282
82.3 0.00346
82.35 0.00339
82.4 0.00345
82.45 0.00343
82.5 0.00306
82.55 0.00247
82.6 0.00241
82.65 0.00188
82.7 0.0015
82.75 0.00106
82.8 0.00069
82.85 0.00063
82.9 0.00015
82.95 0.00003
83 0.0004
83.05 0.00008
83.1 -0.00054
83.15 -0.00066
83.2 -0.00117
83.25 -0.00144
83.3 -0.00154
83.35 -0.00109
83.4 -0.00046
83.45 0.00019
83.5 0.00052
83.55 0.00109
83.6 0.00145
83.65 0.00182
83.7 0.00222
83.75 0.00189
83.8 0.00137
83.85 0.00129
83.9 0.00108
83.95 0.0012
84 0.00156
84.05 0.00189
84.1 0.0024
84.15 0.00245
84.2 0.00273
84.25 0.00247
84.3 0.0019
84.35 0.0013
84.4 0.00105
84.45 0.00033
84.5 -0.00051
84.55 -0.0013
84.6 -0.00141
84.65 -0.00145
84.7 -0.00168
84.75 -0.00195
84.8 -0.00187
84.85 -0.00169
84.9 -0.00102
84.95 -0.00088
85 -0.00026
85.05 0.00019
85.1 0.00061
85.15 0.00114
85.2 0.00107
85.25 0.00061
85.3 0.00018
85.35 -0.0005
85.4 -0.00132
85.45 -0.00163
85.5 -0.00211
85.55 -0.00244
85.6 -0.0026
85.65 -0.00242
85.7 -0.00231
85.75 -0.002
85.8 -0.00118
85.85 -0.00064
85.9 -0.00011
85.95 -0.00013
86 -0.00002
86.05 0
86.1 0.00006
86.15 0.00046
86.2 0.00024
86.25 0.00044
86.3 0.00081
86.35 0.00064
86.4 0.00059
86.45 0.00097
86.5 0.00145
86.55 0.00113
86.6 0.00079
86.65 0.00005
86.7 -0.00081
86.75 -0.00091
86.8 -0.00053
86.85 -0.00046
86.9 -0.0007
86.95 -0.00046
87 -0.00034
87.05 0.00017
87.1 0.00085
87.15 0.00165
87.2 0.00177
87.25 0.00184
87.3 0.0021
87.35 0.00237
87.4 0.00216
87.45 0.00172
87.5 0.0013
87.55 0.00105
87.6 0.00065
87.65 0.00033
87.7 -0.00009
87.75 -0.00081
87.8 -0.00158
87.85 -0.00208
87.9 -0.00181
87.95 -0.00179
88 -0.00201
88.05 -0.00242
88.1 -0.00205
88.15 -0.00212
88.2 -0.00215
88.25 -0.00162
88.3 -0.00114
88.35 -0.0011
88.4 -0.00113
88.45 -0.00142
88.5 -0.00175
88.55 -0.00143
88.6 -0.00138
88.65 -0.00148
88.7 -0.00096
88.75 -0.00024
88.8 -0.00012
88.85 -0.00054
88.9 -0.00105
88.95 -0.00111
89 -0.00115
89.05 -0.00088
89.1 -0.00044
89.15 -0.00049
89.2 -0.00058
89.25 -0.00068
89.3 -0.00113
89.35 -0.00177
89.4 -0.00158
89.45 -0.00157
89.5 -0.00129
89.55 -0.001
89.6 -0.00048
89.65 0.00033
89.7 0.0011
89.75 0.00196
89.8 0.00244
89.85 0.00283
89.9 0.00267
89.95 0.00195
90 0.00131
90.05 0.00127
90.1 0.0009
90.15 0.00107
90.2 0.00074
90.25 0.00019
90.3 -0.00042
90.35 -0.00085
90.4 -0.00154
90.45 -0.00211
90.5 -0.00216
90.55 -0.00246
90.6 -0.00229
90.65 -0.00216
90.7 -0.00238
90.75 -0.0025
90.8 -0.00283
90.85 -0.00261
90.9 -0.00242
90.95 -0.00255
91 -0.00217
91.05 -0.00177
91.1 -0.0012
91.15 -0.00081
91.2 -0.00036
91.25 0.00029
91.3 0.00102
91.35 0.00172
91.4 0.00177
91.45 0.00146
91.5 0.00093
91.55 0.00052
91.6 0.00033
91.65 0.00015
91.7 -0.00034
91.75 -0.00111
91.8 -0.00176
91.85 -0.00168
91.9 -0.00189
91.95 -0.00182
92 -0.00166
92.05 -0.00086
92.1 0.00018
92.15 0.00076
92.2 0.00131
92.25 0.00118
92.3 0.00146
92.35 0.00181
92.4 0.00163
92.45 0.00135
92.5 0.0006
92.55 0.00018
92.6 -0.00026
92.65 -0.00015
92.7 0.00039
92.75 0.00032
92.8 0.00048
92.85 0.0005
92.9 0.00095
92.95 0.00079
93 0.0009
93.05 0.00103
93.1 0.00136
93.15 0.00143
93.2 0.0017
93.25 0.00193
93.3 0.00188
93.35 0.00208
93.4 0.00192
93.45 0.00217
93.5 0.00259
93.55 0.003
93.6 0.00341
93.65 0.00321
93.7 0.00282
93.75 0.00279
93.8 0.00239
93.85 0.0015
93.9 0.00045
93.95 0.00013
94 -0.00051
94.05 -0.00065
94.1 -0.00029
94.15 -0.00008
94.2 -0.00007
94.25 -0.0002
94.3 -0.00071
94.35 -0.00133
94.4 -0.00162
94.45 -0.00212
94.5 -0.00255
94.55 -0.00239
94.6 -0.0018
94.65 -0.00118
94.7 -0.00113
94.75 -0.00137
94.8 -0.00156
94.85 -0.00202
94.9 -0.0018
94.95 -0.00197
95 -0.00179
95.05 -0.00113
95.1 -0.00042
95.15 0.0003
95.2 0.00065
95.25 0.00109
95.3 0.0016
95.35 0.00189
95.4 0.00226
95.45 0.00213
95.5 0.0021
95.55 0.00237
95.6 0.00183
95.65 0.00094
95.7 0.00071
95.75 0.00051
95.8 -0.00015
95.85 -0.0003
95.9 -0.00063
95.95 -0.00095
96 -0.0012
96.05 -0.00086
96.1 -0.00025
96.15 0.00061
96.2 0.00057
96.25 0.0002
96.3 0.00039
96.35 0.00022
96.4 0.00054
96.45 0.00071
96.5 0.00119
96.55 0.0018
96.6 0.00155
96.65 0.0014
96.7 0.00083
96.75 0.00003
96.8 -0.00049
96.85 -0.00123
96.9 -0.00142
96.95 -0.00135
97 -0.0015
97.05 -0.00119
97.1 -0.00117
97.15 -0.00129
97.2 -0.00119
97.25 -0.0009
97.3 -0.00089
97.35 -0.00037
97.4 0.00006
97.45 -0.00015
97.5 -0.00074
97.55 -0.00078
97.6 -0.00027
97.65 0.00031
97.7 0.00019
97.75 -0.00011
97.8 -0.00063
97.85 -0.00138
97.9 -0.0019
97.95 -0.00158
98 -0.00102
98.05 -0.00091
98.1 -0.00123
98.15 -0.00092
98.2 -0.00065
98.25 -0.00086
98.3 -0.00071
98.35 -0.00016
98.4 -0.00007
98.45 0.00039
98.5 0.00055
98.55 0.00097
98.6 0.001
98.65 0.00111
98.7 0.00072
98.75 0.00087
98.8 0.00061
98.85 0.0007
98.9 0.00079
98.95 0.00081
99 0.00093
99.05 0.0013
99.1 0.00185
99.15 0.00171
99.2 0.00196
99.25 0.00147
99.3 0.00056
99.35 -0.0004
99.4 -0.0008
99.45 -0.00132
99.5 -0.00204
99.55 -0.00276
99.6 -0.00317
99.65 -0.00274
99.7 -0.00181
99.75 -0.00143
99.8 -0.00146
99.85 -0.00172
99.9 -0.00126
99.95 -0.00117
