0 0
0.05 0.00044
0.1 0.00132
0.15 0.00197
0.2 0.0027
0.25 0.00374
0.3 0.00514
0.35 0.00616
0.4 0.00738
0.45 0.00802
0.5 0.0078
0.55 0.00726
0.6 0.00631
0.65 0.00598
0.7 0.00554
0.75 0.00483
0.8 0.00442
0.85 0.00396
0.9 0.00447
0.95 0.0046
1 0.00502
1.05 0.00487
1.1 0.00558
1.15 0.00617
1.2 0.00634
1.25 0.00712
1.3 0.00718
1.35 0.00688
1.4 0.00608
1.45 0.00518
1.5 0.0046
1.55 0.00374
1.6 0.00397
1.65 0.00431
1.7 0.0044
1.75 0.0044
1.8 0.00476
1.85 0.00478
1.9 0.00461
1.95 0.00432
2 0.00376
2.05 0.00319
2.1 0.00276
2.15 0.00303
2.2 0.00343
2.25 0.00335
2.3 0.00407
2.35 0.0044
2.4 0.00401
2.45 0.00411
2.5 0.00384
2.55 0.00313
2.6 0.00321
2.65 0.00375
2.7 0.00388
2.75 0.00459
2.8 0.00522
2.85 0.005
2.9 0.00515
2.95 0.00549
3 0.0062
3.05 0.00631
3.1 0.00652
3.15 0.00681
3.2 0.00645
3.25 0.00541
3.3 0.00527
3.35 0.0049
3.4 0.00436
3.45 0.00326
3.5 0.00228
3.55 0.00139
3.6 0.00066
3.65 0.00007
3.7 -0.00019
3.75 -0.00068
3.8 -0.00086
3.85 -0.00089
3.9 -0.00083
3.95 -0.00073
4 -0.00061
4.05 -0.00042
4.1 0.00038
4.15 0.00159
4.2 0.0023
4.25 0.00278
4.3 0.00258
4.35 0.00196
4.4 0.00225
4.45 0.00255
4.5 0.00295
4.55 0.00297
4.6 0.00362
4.65 0.00351
4.7 0.00313
4.75 0.00281
4.8 0.00194
4.85 0.00172
4.9 0.00148
4.95 0.00182
5 0.00268
5.05 0.00261
5.1 0.00219
5.15 0.00231
5.2 0.00205
5.25 0.00182
5.3 0.00216
5.35 0.0021
5.4 0.00194
5.45 0.00149
5.5 0.00082
5.55 0.00045
5.6 0.00039
5.65 0.00013
5.7 0.0005
5.75 0.00126
5.8 0.00239
5.85 0.00317
5.9 0.00317
5.95 0.00245
6 0.00168
6.05 0.00059
6.1 0.00005
6.15 -0.0006
6.2 -0.00132
6.25 -0.00209
6.3 -0.0017
6.35 -0.00173
6.4 -0.00144
6.45 -0.00144
6.5 -0.00078
6.55 -0.00072
6.6 0.00006
6.65 0.00063
6.7 0.00154
6.75 0.00251
6.8 0.00304
6.85 0.00282
6.9 0.00206
6.95 0.00098
7 0.00049
7.05 0.00034
7.1 -0.00015
7.15 -0.00072
7.2 -0.00151
7.25 -0.00194
7.3 -0.00236
7.35 -0.00249
7.4 -0.00174
7.45 -0.00091
7.5 -0.00029
7.55 0.00094
7.6 0.00217
7.65 0.00348
7.7 0.00364
7.75 0.00408
7.8 0.00405
7.85 0.00434
7.9 0.00425
7.95 0.00366
8 0.00248
8.05 0.00193
8.1 0.00217
8.15 0.00177
8.2 0.00163
8.25 0.00127
8.3 0.00167
8.35 0.00155
8.4 0.00104
8.45 0.00066
8.5 -0.00014
8.55 -0.0004
8.6 -0.00074
8.65 -0.00063
8.7 0.00012
8.75 0.00042
8.8 0.00025
8.85 0.00055
8.9 0.00062
8.95 0.0004
9 0.00087
9.05 0.00176
9.1 0.00211
9.15 0.00281
9.2 0.00322
9.25 0.00275
9.3 0.00298
9.35 0.00304
9.4 0.00343
9.45 0.00348
9.5 0.00322
9.55 0.00318
9.6 0.00279
9.65 0.00171
9.7 0.00103
9.75 0.00115
9.8 0.00156
9.85 0.00205
9.9 0.0021
9.95 0.00184
10 0.00158
10.05 0.00159
10.1 0.00143
10.15 0.0007
10.2 0.00057
10.25 0.00011
10.3 -0.00062
10.35 -0.00041
10.4 -0.00001
10.45 0.00084
10.5 0.0011
10.55 0.00173
10.6 0.00162
10.65 0.00178
10.7 0.00222
10.75 0.00202
10.8 0.00207
10.85 0.00177
10.9 0.00092
10.95 0.00076
11 0.0011
11.05 0.00083
11.1 0.00009
11.15 -0.00027
11.2 -0.00022
11.25 -0.00062
11.3 -0.00073
11.35 -0.00101
11.4 -0.00075
11.45 -0.0004
11.5 -0.00027
11.55 0.00023
11.6 0.00064
11.65 0.0008
11.7 0.00146
11.75 0.00191
11.8 0.00164
11.85 0.00091
11.9 0.00065
11.95 0.00061
12 0.00094
12.05 0.00122
12.1 0.00137
12.15 0.00145
12.2 0.00121
12.25 0.00043
12.3 0.00033
12.35 0.00061
12.4 0.00123
12.45 0.00203
12.5 0.00182
12.55 0.00097
12.6 0.00011
12.65 0.00009
12.7 -0.00031
12.75 -0.00103
12.8 -0.00137
12.85 -0.00087
12.9 -0.00094
12.95 -0.00148
13 -0.00177
13.05 -0.00135
13.1 -0.00073
13.15 -0.00079
13.2 -0.00016
13.25 0.00048
13.3 0.00038
13.35 0.00079
13.4 0.00118
13.45 0.00128
13.5 0.00128
13.55 0.00148
13.6 0.00157
13.65 0.00167
13.7 0.00185
13.75 0.00191
13.8 0.00227
13.85 0.00294
13.9 0.00288
13.95 0.00286
14 0.00215
14.05 0.00205
14.1 0.00134
14.15 0.00036
14.2 0
14.25 0.0003
14.3 -0.00024
14.35 -0.00003
14.4 -0.00004
14.45 -0.00001
14.5 0.00046
14.55 0.00089
14.6 0.00082
14.65 0.00006
14.7 -0.00016
14.75 0.00016
14.8 0.00016
14.85 0.00069
14.9 0.00039
14.95 0.0002
15 -0.00008
15.05 -0.00034
15.1 -0.00041
15.15 -0.00114
15.2 -0.00169
15.25 -0.00242
15.3 -0.00311
15.35 -0.00265
15.4 -0.00187
15.45 -0.00143
15.5 -0.00145
15.55 -0.00168
15.6 -0.00114
15.65 -0.00026
15.7 -0.00032
15.75 -0.00059
15.8 -0.00015
15.85 0.00063
15.9 0.00069
15.95 0.00117
16 0.00107
16.05 0.00052
16.1 0.00046
16.15 0.00029
16.2 0.0004
16.25 -0.00026
16.3 -0.00105
16.35 -0.00167
16.4 -0.00168
16.45 -0.00192
16.5 -0.00153
16.55 -0.00086
16.6 -0.00012
16.65 0.00041
16.7 0.00053
16.75 0.0005
16.8 0.00034
16.85 -0.00039
16.9 -0.0012
16.95 -0.00222
17 -0.00287
17.05 -0.00288
17.1 -0.00312
17.15 -0.00331
17.2 -0.00278
17.25 -0.00228
17.3 -0.0021
17.35 -0.00134
17.4 -0.00095
17.45 -0.00016
17.5 0.00068
17.55 0.00171
17.6 0.00215
17.65 0.00217
17.7 0.00156
17.75 0.00156
17.8 0.00101
17.85 0.00093
17.9 0.00122
17.95 0.00082
18 0.00111
18.05 0.00156
18.1 0.00125
18.15 0.00101
18.2 0.00047
18.25 0.00057
18.3 0.00013
18.35 -0.00017
18.4 -0.00078
18.45 -0.00077
18.5 -0.00017
18.55 0.00046
18.6 0.00132
18.65 0.00111
18.7 0.00048
18.75 -0.00051
18.8 -0.00068
18.85 -0.00093
18.9 -0.00082
18.95 -0.00015
19 0.00026
19.05 0.00079
19.1 0.00038
19.15 0.00006
19.2 0.00006
19.25 -0.00039
19.3 -0.00082
19.35 -0.00101
19.4 -0.00091
19.45 -0.00034
19.5 -0.0006
19.55 -0.00075
19.6 -0.00021
19.65 -0.00043
19.7 -0.001
19.75 -0.00163
19.8 -0.00143
19.85 -0.0015
19.9 -0.00181
19.95 -0.00213
20 -0.00277
20.05 -0.00231
20.1 -0.0015
20.15 -0.00129
20.2 -0.00135
20.25 -0.00092
20.3 -0.00089
20.35 -0.00033
20.4 -0.00001
20.45 0.00077
20.5 0.00075
20.55 0.00116
20.6 0.00162
20.65 0.00246
20.7 0.00235
20.75 0.00254
20.8 0.00251
20.85 0.00234
20.9 0.00244
20.95 0.00222
21 0.00245
21.05 0.00263
21.1 0.00262
21.15 0.00187
21.2 0.00161
21.25 0.00122
21.3 0.00043
21.35 -0.00042
21.4 -0.00148
21.45 -0.00171
21.5 -0.00203
21.55 -0.00232
21.6 -0.00234
21.65 -0.00281
21.7 -0.00309
21.75 -0.00326
21.8 -0.00343
21.85 -0.00291
21.9 -0.00175
21.95 -0.00059
22 0.00062
22.05 0.002
22.1 0.00311
22.15 0.00311
22.2 0.00224
22.25 0.00154
22.3 0.00043
22.35 0.00036
22.4 -0.00014
22.45 -0.00049
22.5 -0.00101
22.55 -0.00066
22.6 -0.00039
22.65 -0.0002
22.7 0.00035
22.75 0.00061
22.8 0.00004
22.85 -0.00028
22.9 -0.00019
22.95 0.0004
23 0.00076
23.05 0.00148
23.1 0.00174
23.15 0.00155
23.2 0.00086
23.25 0.00012
23.3 -0.00051
23.35 -0.00074
23.4 -0.00141
23.45 -0.00199
23.5 -0.0019
23.55 -0.0013
23.6 -0.00115
23.65 -0.00101
23.7 -0.00028
23.75 0.0002
23.8 0.00059
23.85 0.0012
23.9 0.00199
23.95 0.00222
24 0.00153
24.05 0.00154
24.1 0.00144
24.15 0.00105
24.2 0.00104
24.25 0.00027
24.3 -0.00035
24.35 -0.00043
24.4 -0.00038
24.45 -0.00073
24.5 -0.00143
24.55 -0.00153
24.6 -0.00201
24.65 -0.00185
24.7 -0.00201
24.75 -0.00199
24.8 -0.0017
24.85 -0.00072
24.9 0.00034
24.95 0.00135
25 0.00211
25.05 0.00246
25.1 0.00221
25.15 0.00238
25.2 0.00195
25.25 0.00155
25.3 0.00154
25.35 0.00197
25.4 0.00241
25.45 0.00223
25.5 0.00181
25.55 0.00161
25.6 0.0019
25.65 0.00142
25.7 0.0006
25.75 -0.00032
25.8 -0.00052
25.85 -0.00009
25.9 0.00015
25.95 0.00039
26 0.0003
26.05 0.00051
26.1 0.00113
26.15 0.00164
26.2 0.00178
26.25 0.0018
26.3 0.00185
26.35 0.00161
26.4 0.00141
26.45 0.00143
26.5 0.00072
26.55 0.00025
26.6 -0.00064
26.65 -0.00152
26.7 -0.00244
26.75 -0.0025
26.8 -0.00257
26.85 -0.0023
26.9 -0.0023
26.95 -0.00185
27 -0.00178
27.05 -0.00198
27.1 -0.002
27.15 -0.00195
27.2 -0.00163
27.25 -0.0017
27.3 -0.00108
27.35 -0.00018
27.4 0.00042
27.45 0.0003
27.5 0.00039
27.55 -0.00028
27.6 -0.00007
27.65 -0.00039
27.7 -0.00112
27.75 -0.00146
27.8 -0.00181
27.85 -0.00169
27.9 -0.00189
27.95 -0.002
28 -0.00169
28.05 -0.0018
28.1 -0.00192
28.15 -0.00148
28.2 -0.00143
28.25 -0.00187
28.3 -0.00197
28.35 -0.00184
28.4 -0.00153
28.45 -0.00154
28.5 -0.00095
28.55 0.00017
28.6 0.00131
28.65 0.00159
28.7 0.00193
28.75 0.00227
28.8 0.00197
28.85 0.00213
28.9 0.0017
28.95 0.00127
29 0.00146
29.05 0.00195
29.1 0.00224
29.15 0.00175
29.2 0.00119
29.25 0.00125
29.3 0.00153
29.35 0.00209
29.4 0.00265
29.45 0.00245
29.5 0.0016
29.55 0.00107
29.6 0.00117
29.65 0.00077
29.7 0.00095
29.75 0.00086
29.8 0.00072
29.85 0.00083
29.9 0.00042
29.95 -0.00023
30 -0.00023
30.05 -0.00036
30.1 0.00013
30.15 0.0009
30.2 0.00134
30.25 0.00197
30.3 0.00166
30.35 0.00105
30.4 0.00034
30.45 -0
30.5 0.0001
30.55 0.00058
30.6 0.00084
30.65 0.00031
30.7 0.0004
30.75 0.0008
30.8 0.00111
30.85 0.00121
30.9 0.00049
30.95 -0.00049
31 -0.00109
31.05 -0.00091
31.1 -0.00025
31.15 0.0004
31.2 0.00104
31.25 0.00179
31.3 0.00218
31.35 0.00217
31.4 0.0016
31.45 0.00133
31.5 0.00082
31.55 -0.00016
31.6 -0.00019
31.65 -0.00095
31.7 -0.00157
31.75 -0.00143
31.8 -0.00147
31.85 -0.00114
31.9 -0.00044
31.95 0.00031
32 0.00118
32.05 0.00095
32.1 0.00082
32.15 0.00101
32.2 0.00071
32.25 -0.00005
32.3 -0.00035
32.35 0.00004
32.4 0.00028
32.45 -0.00006
32.5 -0.00086
32.55 -0.00123
32.6 -0.00124
32.65 -0.00056
32.7 -0.0006
32.75 -0.00013
32.8 0.0001
32.85 0.00063
32.9 0.00065
32.95 0.00041
33 -0.00049
33.05 -0.00157
33.1 -0.00182
33.15 -0.00216
33.2 -0.00206
33.25 -0.00179
33.3 -0.00195
33.35 -0.00219
33.4 -0.00198
33.45 -0.00211
33.5 -0.00157
33.55 -0.00059
33.6 0.00009
33.65 0.00018
33.7 0.00029
33.75 0.0009
33.8 0.00117
33.85 0.00083
33.9 0.0003
33.95 -0.0002
34 -0.00115
34.05 -0.00141
34.1 -0.00109
34.15 -0.00126
34.2 -0.00186
34.25 -0.00225
34.3 -0.00219
34.35 -0.00175
34.4 -0.00135
34.45 -0.0015
34.5 -0.00116
34.55 -0.00114
34.6 -0.00149
34.65 -0.00125
34.7 -0.00063
34.75 -0.00007
34.8 0.00046
34.85 0.00058
34.9 0.00066
34.95 0.00049
35 0.00016
35.05 -0.00003
35.1 -0.00039
35.15 -0.00043
35.2 -0.00029
35.25 0.00041
35.3 0.00083
35.35 0.00061
35.4 -0.00011
35.45 -0.00014
35.5 0
35.55 -0.00044
35.6 -0.00029
35.65 -0.00047
35.7 -0.0012
35.75 -0.00166
35.8 -0.00212
35.85 -0.00167
35.9 -0.00124
35.95 -0.00048
36 -0.00019
36.05 -0.00024
36.1 -0.00093
36.15 -0.00176
36.2 -0.00154
36.25 -0.00139
36.3 -0.00119
36.35 -0.00157
36.4 -0.00163
36.45 -0.00137
36.5 -0.00158
36.55 -0.00214
36.6 -0.00284
36.65 -0.00274
36.7 -0.00311
36.75 -0.00243
36.8 -0.00164
36.85 -0.00141
36.9 -0.00063
36.95 0.00031
37 0.00071
37.05 0.00149
37.1 0.0019
37.15 0.00164
37.2 0.00128
37.25 0.00092
37.3 0.00105
37.35 0.00163
37.4 0.00242
37.45 0.00339
37.5 0.00425
37.55 0.00394
37.6 0.00312
37.65 0.00187
37.7 0.00053
37.75 -0.00055
37.8 -0.00128
37.85 -0.00159
37.9 -0.00226
37.95 -0.002
38 -0.00181
38.05 -0.00097
38.1 -0.00028
38.15 0.0002
38.2 0.00065
38.25 0.00035
38.3 0.00046
38.35 -0.00012
38.4 -0.00051
38.45 -0.00014
38.5 0.00003
38.55 -0.00031
38.6 -0.00068
38.65 -0.0013
38.7 -0.00201
38.75 -0.002
38.8 -0.00244
38.85 -0.00297
38.9 -0.00329
38.95 -0.00354
39 -0.00406
39.05 -0.0037
39.1 -0.00274
39.15 -0.00222
39.2 -0.00225
39.25 -0.00182
39.3 -0.00103
39.35 -0.00038
39.4 -0.00045
39.45 -0.00093
39.5 -0.00145
39.55 -0.00151
39.6 -0.00079
39.65 -0.00075
39.7 -0.00106
39.75 -0.00099
39.8 -0.00071
39.85 -0.00108
39.9 -0.00102
39.95 -0.0015
40 -0.00229
40.05 -0.0025
40.1 -0.00224
40.15 -0.00145
40.2 -0.00102
40.25 -0.0008
40.3 -0.00085
40.35 -0.00101
40.4 -0.00065
40.45 -0.00083
40.5 -0.00102
40.55 -0.00127
40.6 -0.00148
40.65 -0.00161
40.7 -0.00106
40.75 -0.00001
40.8 0.0013
40.85 0.00173
40.9 0.00255
40.95 0.00273
41 0.00251
41.05 0.00242
41.1 0.0021
41.15 0.00175
41.2 0.00177
41.25 0.00129
41.3 0.00036
41.35 0.00019
41.4 0.00009
41.45 0.00017
41.5 0.00092
41.55 0.00098
41.6 0.00087
41.65 0.00084
41.7 0.00073
41.75 0.00041
41.8 0.0004
41.85 -0.00016
41.9 -0.00074
41.95 -0.00122
42 -0.00111
42.05 -0.00097
42.1 -0.00029
42.15 0.00043
42.2 0.0015
42.25 0.00213
42.3 0.00293
42.35 0.00388
42.4 0.00452
42.45 0.004
42.5 0.00294
42.55 0.00152
42.6 0.00067
42.65 0.00022
42.7 -0.00014
42.75 -0.00052
42.8 -0.00021
42.85 0.00031
42.9 0.00045
42.95 0.00019
43 0.00056
43.05 0.0001
43.1 0.00035
43.15 0.00095
43.2 0.00084
43.25 0.00112
43.3 0.00134
43.35 0.00189
43.4 0.00225
43.45 0.00272
43.5 0.00271
43.55 0.00208
43.6 0.00129
43.65 0.00084
43.7 0.00109
43.75 0.00096
43.8 0.00016
43.85 -0.00064
43.9 -0.00122
43.95 -0.00142
44 -0.00117
44.05 -0.0003
44.1 0.00082
44.15 0.00076
44.2 0.00025
44.25 0.00052
44.3 0.00037
44.35 0.00001
44.4 0
44.45 -0.00062
44.5 -0.00073
44.55 -0.00126
44.6 -0.00093
44.65 -0.00004
44.7 0.00096
44.75 0.00145
44.8 0.00134
44.85 0.00145
44.9 0.00171
44.95 0.00107
45 0.00002
45.05 -0.00127
45.1 -0.00195
45.15 -0.00177
45.2 -0.00122
45.25 -0.00075
45.3 0.00025
45.35 0.00128
45.4 0.00119
45.45 0.00047
45.5 -0.0002
45.55 -0.00087
45.6 -0.00078
45.65 -0.00118
45.7 -0.00178
45.75 -0.00136
45.8 -0.00036
45.85 -0.00021
45.9 -0.00015
45.95 -0.00066
46 -0.00048
46.05 -0.00048
46.1 0.00012
46.15 -0.00005
46.2 0.0004
46.25 0.00014
46.3 -0.00001
46.35 -0.00048
46.4 -0.00084
46.45 -0.00046
46.5 0.00046
46.55 0.00048
46.6 0.00055
46.65 0.00098
46.7 0.00078
46.75 0.00061
46.8 0.00007
46.85 0.00017
46.9 0.00077
46.95 0.00042
47 0.00076
47.05 0.00149
47.1 0.00129
47.15 0.00048
47.2 -0.00049
47.25 -0.00111
47.3 -0.0016
47.35 -0.00136
47.4 -0.00062
47.45 0.00048
47.5 0.00166
47.55 0.00196
47.6 0.00222
47.65 0.00233
47.7 0.00187
47.75 0.00121
47.8 0.00054
47.85 -0.00023
47.9 -0.00106
47.95 -0.00095
48 -0.00044
48.05 0.00044
48.1 0.00154
48.15 0.00154
48.2 0.00125
48.25 0.0008
48.3 0.00043
48.35 0.00075
48.4 0.00086
48.45 0.0011
48.5 0.00178
48.55 0.00137
48.6 0.00154
48.65 0.00089
48.7 0.00092
48.75 0.0012
48.8 0.00064
48.85 -0.00049
48.9 -0.00175
48.95 -0.00271
49 -0.00274
49.05 -0.00309
49.1 -0.00366
49.15 -0.00412
49.2 -0.00374
49.25 -0.0031
49.3 -0.00247
49.35 -0.00184
49.4 -0.00146
49.45 -0.00127
49.5 -0.00153
49.55 -0.00145
49.6 -0.0009
49.65 -0.00069
49.7 -0.00045
49.75 -0.00057
49.8 -0.00076
49.85 -0.00111
49.9 -0.00126
49.95 -0.00117
50 -0.00077
50.05 -0.00035
50.1 0.00008
50.15 0.0005
50.2 0.00028
50.25 0.00038
50.3 -0.00006
50.35 -0.00032
50.4 -0.0007
50.45 -0.00085
50.5 -0.00096
50.55 -0.00055
50.6 0.0003
50.65 0.00113
50.7 0.00146
50.75 0.00198
50.8 0.00226
50.85 0.00244
50.9 0.00221
50.95 0.00127
51 0.00089
51.05 0.00107
51.1 0.00164
51.15 0.00145
51.2 0.0009
51.25 0.00009
51.3 -0.00032
51.35 -0.00057
51.4 -0.00067
51.45 -0.00078
51.5 -0.00113
51.55 -0.00062
51.6 0.00008
51.65 0.00033
51.7 0.00034
51.75 0.00009
51.8 0.00045
51.85 0.00001
51.9 -0.00015
51.95 0.0002
52 0.00021
52.05 0.0003
52.1 0.00006
52.15 -0.00079
52.2 -0.00084
52.25 -0.00122
52.3 -0.00091
52.35 -0.00038
52.4 0.00042
52.45 0.00069
52.5 0.00099
52.55 0.00155
52.6 0.00236
52.65 0.00274
52.7 0.00302
52.75 0.00315
52.8 0.00355
52.85 0.00337
52.9 0.00242
52.95 0.00169
53 0.00044
53.05 -0.00018
53.1 -0.00093
53.15 -0.00072
53.2 -0.00083
53.25 -0.00046
53.3 0.00026
53.35 0.00086
53.4 0.00155
53.45 0.00201
53.5 0.00265
53.55 0.00285
53.6 0.00202
53.65 0.0015
53.7 0.00076
53.75 -0.00053
53.8 -0.00143
53.85 -0.00223
53.9 -0.00244
53.95 -0.00214
54 -0.00184
54.05 -0.00149
54.1 -0.00083
54.15 -0.00106
54.2 -0.00175
54.25 -0.00233
54.3 -0.00263
54.35 -0.00322
54.4 -0.00293
54.45 -0.00234
54.5 -0.00181
54.55 -0.0008
54.6 0.0002
54.65 0.00088
54.7 0.00143
54.75 0.00147
54.8 0.00126
54.85 0.00047
54.9 0.00001
54.95 -0.00047
55 -0.00056
55.05 -0.00014
55.1 0.00007
55.15 0.00004
55.2 0.00038
55.25 0.00071
55.3 0.00094
55.35 0.00089
55.4 0.00113
55.45 0.00112
55.5 0.00099
55.55 0.00085
55.6 0.00068
55.65 0.00048
55.7 0.00004
55.75 -0.00092
55.8 -0.00092
55.85 -0.00101
55.9 -0.00038
55.95 -0.00052
56 -0.00094
56.05 -0.00141
56.1 -0.00217
56.15 -0.0027
56.2 -0.00304
56.25 -0.00346
56.3 -0.00395
56.35 -0.00395
56.4 -0.00309
56.45 -0.00186
56.5 -0.00093
56.55 -0.00036
56.6 -0.00064
56.65 -0.00067
56.7 -0.00077
56.75 -0.00102
56.8 -0.00128
56.85 -0.00146
56.9 -0.00086
56.95 -0.0008
57 -0.00127
57.05 -0.00134
57.1 -0.00181
57.15 -0.00167
57.2 -0.00126
57.25 -0.0008
57.3 -0.00032
57.35 -0.00064
57.4 -0.00057
57.45 -0.00011
57.5 0.00085
57.55 0.00205
57.6 0.00325
57.65 0.0032
57.7 0.00243
57.75 0.00161
57.8 0.00098
57.85 0.00048
57.9 0.00061
57.95 0.00066
58 0.00082
58.05 0.00145
58.1 0.0022
58.15 0.00287
58.2 0.00293
58.25 0.00269
58.3 0.00277
58.35 0.00277
58.4 0.00234
58.45 0.00243
58.5 0.00217
58.55 0.00118
58.6 0.00016
58.65 -0.00044
58.7 -0.00092
58.75 -0.00105
58.8 -0.00128
58.85 -0.00097
58.9 -0.00124
58.95 -0.00157
59 -0.00195
59.05 -0.00171
59.1 -0.00109
59.15 -0.00106
59.2 -0.00105
59.25 -0.00127
59.3 -0.00102
59.35 -0.00065
59.4 -0.00015
59.45 0.00054
59.5 0.00113
59.55 0.00138
59.6 0.00119
59.65 0.00076
59.7 0.00057
59.75 0.0006
59.8 0.00086
59.85 0.00042
59.9 0.00022
59.95 0.00059
60 0.00058
60.05 0.00029
60.1 -0.0005
60.15 -0.00077
60.2 -0.00059
60.25 -0.00016
60.3 0.00048
60.35 0.00028
60.4 -0.00011
60.45 0.00028
60.5 0.00109
60.55 0.00139
60.6 0.00199
60.65 0.0015
60.7 0.00101
60.75 0.0011
60.8 0.00123
60.85 0.00146
60.9 0.00096
60.95 0.00007
61 -0.00071
61.05 -0.00136
61.1 -0.00154
61.15 -0.00191
61.2 -0.00203
61.25 -0.00209
61.3 -0.00245
61.35 -0.00316
61.4 -0.00311
61.45 -0.00281
61.5 -0.00203
61.55 -0.00132
61.6 -0.00133
61.65 -0.0013
61.7 -0.00096
61.75 -0.00004
61.8 0.00103
61.85 0.00211
61.9 0.00318
61.95 0.00304
62 0.00325
62.05 0.00242
62.1 0.00202
62.15 0.00215
62.2 0.00221
62.25 0.00223
62.3 0.00206
62.35 0.00159
62.4 0.00142
62.45 0.00158
62.5 0.00152
62.55 0.00176
62.6 0.00226
62.65 0.00241
62.7 0.00251
62.75 0.00263
62.8 0.00241
62.85 0.00242
62.9 0.00156
62.95 0.00041
63 -0.00009
63.05 0.00019
63.1 0.00086
63.15 0.00063
63.2 0.00092
63.25 0.00079
63.3 -0.00005
63.35 -0.0005
63.4 -0.00067
63.45 -0.00133
63.5 -0.00194
63.55 -0.00224
63.6 -0.00175
63.65 -0.00183
63.7 -0.00208
63.75 -0.00171
63.8 -0.00192
63.85 -0.00199
63.9 -0.00269
63.95 -0.00294
64 -0.00377
64.05 -0.00411
64.1 -0.00466
64.15 -0.00614
64.2 -0.00717
64.25 -0.00795
64.3 -0.00894
64.35 -0.01052
64.4 -0.01328
64.45 -0.01609
64.5 -0.01961
64.55 -0.02296
64.6 -0.02746
64.65 -0.03303
64.7 -0.03913
64.75 -0.04546
64.8 -0.05211
64.85 -0.05954
64.9 -0.06774
64.95 -0.07661
65 -0.08649
65.05 -0.09748
65.1 -0.1093
65.15 -0.12267
65.2 -0.13688
65.25 -0.15269
65.3 -0.16939
65.35 -0.18679
65.4 -0.20442
65.45 -0.22281
65.5 -0.24176
65.55 -0.26169
65.6 -0.28165
65.65 -0.30112
65.7 -0.32003
65.75 -0.33861
65.8 -0.35655
65.85 -0.37309
65.9 -0.38781
65.95 -0.40056
66 -0.41227
66.05 -0.42216
66.1 -0.42908
66.15 -0.43325
66.2 -0.43466
66.25 -0.4337
66.3 -0.42921
66.35 -0.42198
66.4 -0.411
66.45 -0.39631
66.5 -0.37815
66.55 -0.35802
66.6 -0.33573
66.65 -0.3105
66.7 -0.28304
66.75 -0.25378
66.8 -0.22272
66.85 -0.19117
66.9 -0.15922
66.95 -0.12688
67 -0.09444
67.05 -0.06166
67.1 -0.02958
67.15 0.0024
67.2 0.0334
67.25 0.0634
67.3 0.09202
67.35 0.11887
67.4 0.14394
67.45 0.16741
67.5 0.18917
67.55 0.20875
67.6 0.22636
67.65 0.2415
67.7 0.25541
67.75 0.26795
67.8 0.27957
67.85 0.28921
67.9 0.29747
67.95 0.30486
68 0.31173
68.05 0.31704
68.1 0.32202
68.15 0.32713
68.2 0.33132
68.25 0.33428
68.3 0.3371
68.35 0.33944
68.4 0.34087
68.45 0.3426
68.5 0.34391
68.55 0.34438
68.6 0.3443
68.65 0.34381
68.7 0.34311
68.75 0.34168
68.8 0.3395
68.85 0.33659
68.9 0.33335
68.95 0.32958
69 0.32422
69.05 0.31881
69.1 0.31223
69.15 0.30533
69.2 0.29743
69.25 0.29009
69.3 0.28224
69.35 0.27481
69.4 0.26628
69.45 0.25777
69.5 0.24861
69.55 0.24011
69.6 0.23206
69.65 0.22367
69.7 0.21551
69.75 0.20678
69.8 0.19812
69.85 0.18985
69.9 0.18138
69.95 0.17334
70 0.16497
70.05 0.15675
70.1 0.1482
70.15 0.13942
70.2 0.13114
70.25 0.12415
70.3 0.118
70.35 0.11162
70.4 0.10568
70.45 0.09925
70.5 0.09287
70.55 0.08695
70.6 0.08128
70.65 0.07676
70.7 0.07236
70.75 0.06745
70.8 0.06264
70.85 0.05805
70.9 0.05442
70.95 0.05094
71 0.04749
71.05 0.044
71.1 0.04006
71.15 0.0366
71.2 0.03293
71.25 0.02924
71.3 0.02583
71.35 0.02333
71.4 0.0208
71.45 0.0186
71.5 0.01585
71.55 0.01367
71.6 0.01095
71.65 0.00765
71.7 0.00476
71.75 0.00162
71.8 -0.00182
71.85 -0.00474
71.9 -0.00703
71.95 -0.00869
72 -0.01035
72.05 -0.01246
72.1 -0.01445
72.15 -0.01678
72.2 -0.01886
72.25 -0.02037
72.3 -0.02175
72.35 -0.02392
72.4 -0.02632
72.45 -0.02811
72.5 -0.03039
72.55 -0.03275
72.6 -0.03426
72.65 -0.036
72.7 -0.03755
72.75 -0.0392
72.8 -0.04037
72.85 -0.04195
72.9 -0.04268
72.95 -0.04286
73 -0.04302
73.05 -0.04278
73.1 -0.04285
73.15 -0.04376
73.2 -0.04417
73.25 -0.04445
73.3 -0.04461
73.35 -0.04551
73.4 -0.04694
73.45 -0.04825
73.5 -0.04946
73.55 -0.05056
73.6 -0.05181
73.65 -0.052
73.7 -0.05146
73.75 -0.05131
73.8 -0.05101
73.85 -0.05083
73.9 -0.05017
73.95 -0.04888
74 -0.04859
74.05 -0.04889
74.1 -0.04922
74.15 -0.04975
74.2 -0.05029
74.25 -0.05087
74.3 -0.05032
74.35 -0.0501
74.4 -0.0501
74.45 -0.04922
74.5 -0.04772
74.55 -0.04655
74.6 -0.04501
74.65 -0.04356
74.7 -0.04291
74.75 -0.04263
74.8 -0.04163
74.85 -0.04079
74.9 -0.03959
74.95 -0.03851
75 -0.03783
75.05 -0.0368
75.1 -0.0355
75.15 -0.0352
75.2 -0.0351
75.25 -0.03443
75.3 -0.03345
75.35 -0.03276
75.4 -0.03257
75.45 -0.03232
75.5 -0.03269
75.55 -0.03294
75.6 -0.0337
75.65 -0.03412
75.7 -0.03352
75.75 -0.03313
75.8 -0.03209
75.85 -0.03122
75.9 -0.03014
75.95 -0.02962
76 -0.02965
76.05 -0.03015
76.1 -0.02982
76.15 -0.02916
76.2 -0.02855
76.25 -0.02837
76.3 -0.02833
76.35 -0.02811
76.4 -0.02783
76.45 -0.02787
76.5 -0.02742
76.55 -0.02646
76.6 -0.02531
76.65 -0.02498
76.7 -0.02455
76.75 -0.02433
76.8 -0.02449
76.85 -0.02387
76.9 -0.02337
76.95 -0.02219
77 -0.02135
77.05 -0.02088
77.1 -0.02054
77.15 -0.02025
77.2 -0.01986
77.25 -0.01932
77.3 -0.01914
77.35 -0.0193
77.4 -0.01953
77.45 -0.01889
77.5 -0.01775
77.55 -0.0167
77.6 -0.01659
77.65 -0.01644
77.7 -0.01643
77.75 -0.01609
77.8 -0.01619
77.85 -0.0157
77.9 -0.01519
77.95 -0.01474
78 -0.01478
78.05 -0.01464
78.1 -0.01425
78.15 -0.01428
78.2 -0.01437
78.25 -0.01455
78.3 -0.01413
78.35 -0.01439
78.4 -0.01408
78.45 -0.01387
78.5 -0.01312
78.55 -0.01197
78.6 -0.01128
78.65 -0.01092
78.7 -0.01135
78.75 -0.01122
78.8 -0.01101
78.85 -0.0109
78.9 -0.01101
78.95 -0.01128
79 -0.01154
79.05 -0.01158
79.1 -0.01142
79.15 -0.01065
79.2 -0.01036
79.25 -0.00961
79.3 -0.00975
79.35 -0.01034
79.4 -0.01096
79.45 -0.01079
79.5 -0.0101
79.55 -0.00963
79.6 -0.00891
79.65 -0.00872
79.7 -0.00807
79.75 -0.00753
79.8 -0.00764
79.85 -0.00816
79.9 -0.00891
79.95 -0.00888
80 -0.00859
80.05 -0.0083
80.1 -0.00777
80.15 -0.0079
80.2 -0.00818
80.25 -0.0087
80.3 -0.00832
80.35 -0.0083
80.4 -0.00823
80.45 -0.00842
80.5 -0.00815
80.55 -0.00726
80.6 -0.00642
80.65 -0.00544
80.7 -0.00513
80.75 -0.00503
80.8 -0.00578
80.85 -0.00676
80.9 -0.00685
80.95 -0.00687
81 -0.00706
81.05 -0.00698
81.1 -0.00647
81.15 -0.00593
81.2 -0.00605
81.25 -0.00661
81.3 -0.00722
81.35 -0.007
81.4 -0.00609
81.45 -0.00498
81.5 -0.00406
81.55 -0.00357
81.6 -0.00383
81.65 -0.00356
81.7 -0.00358
81.75 -0.00441
81.8 -0.00534
81.85 -0.00531
81.9 -0.0057
81.95 -0.00545
82 -0.00573
82.05 -0.00573
82.1 -0.00602
82.15 -0.00588
82.2 -0.00509
82.25 -0.00437
82.3 -0.00412
82.35 -0.00345
82.4 -0.00334
82.45 -0.00332
82.5 -0.00284
82.55 -0.00225
82.6 -0.00149
82.65 -0.00126
82.7 -0.00098
82.75 -0.00152
82.8 -0.0024
82.85 -0.00374
82.9 -0.00443
82.95 -0.00429
83 -0.00456
83.05 -0.00431
83.1 -0.00379
83.15 -0.00385
83.2 -0.00443
83.25 -0.0048
83.3 -0.00489
83.35 -0.00442
83.4 -0.00373
83.45 -0.00333
83.5 -0.00374
83.55 -0.00432
83.6 -0.00441
83.65 -0.00419
83.7 -0.00411
83.75 -0.00398
83.8 -0.004
83.85 -0.00345
83.9 -0.00321
83.95 -0.0026
84 -0.00233
84.05 -0.00253
84.1 -0.00249
84.15 -0.00275
84.2 -0.00281
84.25 -0.00265
84.3 -0.00278
84.35 -0.00219
84.4 -0.00152
84.45 -0.00079
84.5 -0.00049
84.55 -0.00061
84.6 -0.00032
84.65 -0.00035
84.7 -0.00094
84.75 -0.00182
84.8 -0.00188
84.85 -0.00152
84.9 -0.00121
84.95 -0.00143
85 -0.00144
85.05 -0.00156
85.1 -0.00217
85.15 -0.00201
85.2 -0.00153
85.25 -0.00115
85.3 -0.00077
85.35 -0.00124
85.4 -0.00098
85.45 -0.00158
85.5 -0.00181
85.55 -0.00134
85.6 -0.00129
85.65 -0.00076
85.7 -0.0003
85.75 -0.00003
85.8 0.00029
85.85 -0.00037
85.9 -0.00029
85.95 -0.0008
86 -0.00144
86.05 -0.00247
86.1 -0.00256
86.15 -0.00279
86.2 -0.00302
86.25 -0.00322
86.3 -0.00329
86.35 -0.00337
86.4 -0.00334
86.45 -0.00334
86.5 -0.0029
86.55 -0.00301
86.6 -0.00307
86.65 -0.00322
86.7 -0.00357
86.75 -0.00307
86.8 -0.0031
86.85 -0.00338
86.9 -0.00397
86.95 -0.00472
87 -0.0055
87.05 -0.00534
87.1 -0.00512
87.15 -0.00411
87.2 -0.0035
87.25 -0.00243
87.3 -0.0014
87.35 -0.00035
87.4 0.00027
87.45 0.00096
87.5 0.00097
87.55 0.00135
87.6 0.0013
87.65 0.00129
87.7 0.00144
87.75 0.00097
87.8 0.00078
87.85 0.0011
87.9 0.00162
87.95 0.00159
88 0.00184
88.05 0.00118
88.1 0.00116
88.15 0.00163
88.2 0.00182
88.25 0.00225
88.3 0.00208
88.35 0.00128
88.4 0.00005
88.45 -0.00073
88.5 -0.00189
88.55 -0.00205
88.6 -0.00257
88.65 -0.00301
88.7 -0.00275
88.75 -0.00177
88.8 -0.00051
88.85 0.00057
88.9 0.00112
88.95 0.00187
89 0.00246
89.05 0.00312
89.1 0.00301
89.15 0.00311
89.2 0.0032
89.25 0.00335
89.3 0.00289
89.35 0.00209
89.4 0.00176
89.45 0.00196
89.5 0.00157
89.55 0.00139
89.6 0.00101
89.65 0.00104
89.7 0.00029
89.75 -0.00034
89.8 -0.00078
89.85 -0.00049
89.9 -0.00036
89.95 -0.00065
90 -0.00101
90.05 -0.00135
90.1 -0.00136
90.15 -0.00118
90.2 -0.00043
90.25 -0.00051
90.3 -0.00024
90.35 0.00045
90.4 0.00071
90.45 0.00092
90.5 0.00126
90.55 0.00072
90.6 0.00048
90.65 -0.00048
90.7 -0.00136
90.75 -0.00256
90.8 -0.00285
90.85 -0.00311
90.9 -0.00354
90.95 -0.00357
91 -0.00313
91.05 -0.0026
91.1 -0.00231
91.15 -0.00207
91.2 -0.00183
91.25 -0.002
91.3 -0.00139
91.35 -0.00067
91.4 -0.00008
91.45 0.00021
91.5 -0.00002
91.55 -0.00088
91.6 -0.00101
91.65 -0.00112
91.7 -0.00052
91.75 -0.00034
91.8 0.0004
91.85 0.00092
91.9 0.00059
91.95 0.00004
92 -0.00043
92.05 -0.00108
92.1 -0.00141
92.15 -0.00208
92.2 -0.00257
92.25 -0.00281
92.3 -0.00307
92.35 -0.00289
92.4 -0.00256
92.45 -0.00258
92.5 -0.00203
92.55 -0.00138
92.6 -0.00045
92.65 0.00034
92.7 0.00037
92.75 0.00048
92.8 0.00027
92.85 -0.00057
92.9 -0.00102
92.95 -0.00083
93 -0.00091
93.05 -0.0009
93.1 -0.00071
93.15 -0.00049
93.2 0.00024
93.25 0.00123
93.3 0.00194
93.35 0.0022
93.4 0.0025
93.45 0.00294
93.5 0.0026
93.55 0.00213
93.6 0.00094
93.65 -0.00041
93.7 -0.0018
93.75 -0.00198
93.8 -0.00181
93.85 -0.00147
93.9 -0.00147
93.95 -0.00205
94 -0.00226
94.05 -0.00277
94.1 -0.00337
94.15 -0.00286
94.2 -0.00189
94.25 -0.00116
94.3 -0.00114
94.35 -0.00088
94.4 -0.00032
94.45 0.00018
94.5 0.00063
94.55 0.00142
94.6 0.00235
94.65 0.00209
94.7 0.00186
94.75 0.00178
94.8 0.00173
94.85 0.0015
94.9 0.00178
94.95 0.00181
95 0.00224
95.05 0.00234
95.1 0.00218
95.15 0.00207
95.2 0.0016
95.25 0.00132
95.3 0.00088
95.35 0.00001
95.4 -0.00091
95.45 -0.00128
95.5 -0.00106
95.55 -0.00069
95.6 -0.00046
95.65 0.00009
95.7 -0
95.75 -0.00013
95.8 -0.00004
95.85 0.00048
95.9 0.00038
95.95 -0.00036
96 -0.00058
96.05 -0.00008
96.1 0.00033
96.15 0.00026
96.2 -0.00036
96.25 -0.0011
96.3 -0.00178
96.35 -0.00214
96.4 -0.00261
96.45 -0.00276
96.5 -0.00252
96.55 -0.00156
96.6 -0.00112
96.65 -0.0004
96.7 -0.0002
96.75 -0.00047
96.8 -0.00041
96.85 -0.00012
96.9 -0.00009
96.95 0.00028
97 0.00044
97.05 0.00008
97.1 -0.00043
97.15 -0.00126
97.2 -0.0019
97.25 -0.00153
97.3 -0.00108
97.35 -0.00092
97.4 -0.00077
97.45 -0.00013
97.5 0.00016
97.55 0.00048
97.6 0.00117
97.65 0.00151
97.7 0.0017
97.75 0.00197
97.8 0.00155
97.85 0.00057
97.9 -0.00074
97.95 -0.00089
98 -0.00117
98.05 -0.00177
98.1 -0.00194
98.15 -0.00177
98.2 -0.00206
98.25 -0.00203
98.3 -0.00163
98.35 -0.00129
98.4 -0.00049
98.45 -0.00061
98.5 -0.00045
98.55 -0.00065
98.6 -0.00083
98.65 -0.00074
98.7 -0.00108
98.75 -0.00094
98.8 -0.00063
98.85 -0.0009
98.9 -0.00092
98.95 -0.00039
99 0.0001
99.05 0.00067
99.1 0.0008
99.15 0.00064
99.2 0.00039
99.25 0.00052
99.3 0.00085
99.35 0.00049
99.4 -0.00017
99.45 -0.00017
99.5 0.00042
99.55 0.00047
99.6 0.00075
99.65 0.00063
99.7 0.0003
99.75 0.00065
99.8 0.00107
99.85 0.0007
99.9 -0.00012
99.95 -0.00077
