0 0
0.05 0.00325
0.1 0.0069
0.15 0.01324
0.2 0.01618
0.25 0.01837
0.3 0.01912
0.35 0.02119
0.4 0.02468
0.45 0.02521
0.5 0.02663
0.55 0.03438
0.6 0.03972
0.65 0.04358
0.7 0.04535
0.75 0.04727
0.8 0.04857
0.85 0.05115
0.9 0.05243
0.95 0.05403
1 0.05917
1.05 0.06105
1.1 0.05827
1.15 0.05607
1.2 0.05749
1.25 0.05464
1.3 0.04806
1.35 0.04406
1.4 0.04212
1.45 0.04297
1.5 0.04231
1.55 0.03876
1.6 0.04011
1.65 0.04514
1.7 0.04768
1.75 0.04572
1.8 0.04643
1.85 0.04302
1.9 0.0363
1.95 0.03094
2 0.03056
2.05 0.03353
2.1 0.03724
2.15 0.03807
2.2 0.03704
2.25 0.03348
2.3 0.03085
2.35 0.02772
2.4 0.02711
2.45 0.02626
2.5 0.03016
2.55 0.03123
2.6 0.02948
2.65 0.02767
2.7 0.03085
2.75 0.03418
2.8 0.0381
2.85 0.03764
2.9 0.03764
2.95 0.03443
3 0.02956
3.05 0.02216
3.1 0.01624
3.15 0.01081
3.2 0.0045
3.25 -0.00251
3.3 -0.00049
3.35 0.00134
3.4 0.00567
3.45 0.00932
3.5 0.01015
3.55 0.01528
3.6 0.01941
3.65 0.0252
3.7 0.02888
3.75 0.02907
3.8 0.02805
3.85 0.02357
3.9 0.01738
3.95 0.01176
4 0.00828
4.05 0.00915
4.1 0.00531
4.15 -0.00073
4.2 -0.00299
4.25 -0.00673
4.3 -0.00748
4.35 -0.00508
4.4 -0.00419
4.45 -0.00681
4.5 -0.01351
4.55 -0.01898
4.6 -0.03174
4.65 -0.04758
4.7 -0.0657
4.75 -0.09014
4.8 -0.11928
4.85 -0.14745
4.9 -0.18177
4.95 -0.22121
5 -0.26115
5.05 -0.29899
5.1 -0.34401
5.15 -0.3944
5.2 -0.45186
5.25 -0.51296
5.3 -0.57681
5.35 -0.64678
5.4 -0.72812
5.45 -0.81083
5.5 -0.89735
5.55 -0.99025
5.6 -1.08751
5.65 -1.18498
5.7 -1.28353
5.75 -1.38017
5.8 -1.47521
5.85 -1.56773
5.9 -1.65282
5.95 -1.73787
6 -1.81543
6.05 -1.89048
6.1 -1.95896
6.15 -2.02272
6.2 -2.08211
6.25 -2.13055
6.3 -2.16868
6.35 -2.20231
6.4 -2.22639
6.45 -2.24254
6.5 -2.24973
6.55 -2.24945
6.6 -2.24403
6.65 -2.23009
6.7 -2.20931
6.75 -2.17454
6.8 -2.12795
6.85 -2.06963
6.9 -1.99513
6.95 -1.90086
7 -1.79238
7.05 -1.67349
7.1 -1.54176
7.15 -1.39091
7.2 -1.22547
7.25 -1.05568
7.3 -0.87584
7.35 -0.6869
7.4 -0.49362
7.45 -0.2973
7.5 -0.10557
7.55 0.08438
7.6 0.27044
7.65 0.4496
7.7 0.61957
7.75 0.78648
7.8 0.9438
7.85 1.08996
7.9 1.23216
7.95 1.36263
8 1.48014
8.05 1.58439
8.1 1.67538
8.15 1.75615
8.2 1.82357
8.25 1.8851
8.3 1.93946
8.35 1.9887
8.4 2.03105
8.45 2.06492
8.5 2.09116
8.55 2.10309
8.6 2.10535
8.65 2.09711
8.7 2.08647
8.75 2.06785
8.8 2.04494
8.85 2.02611
8.9 2.00513
8.95 1.98051
9 1.95161
9.05 1.92145
9.1 1.89151
9.15 1.86061
9.2 1.82963
9.25 1.80447
9.3 1.77446
9.35 1.74244
9.4 1.71427
9.45 1.68936
9.5 1.66056
9.55 1.63252
9.6 1.60293
9.65 1.57485
9.7 1.54582
9.75 1.51485
9.8 1.48845
9.85 1.46268
9.9 1.43578
9.95 1.40579
10 1.37642
10.05 1.35021
10.1 1.32315
10.15 1.28831
10.2 1.24928
10.25 1.20991
10.3 1.17476
10.35 1.143
10.4 1.10971
10.45 1.07562
10.5 1.03894
10.55 1.0027
10.6 0.96761
10.65 0.93489
10.7 0.90118
10.75 0.86696
10.8 0.82533
10.85 0.7841
10.9 0.74301
10.95 0.69984
11 0.65653
11.05 0.61777
11.1 0.57917
11.15 0.53637
11.2 0.49504
11.25 0.457
11.3 0.4221
11.35 0.38688
11.4 0.35631
11.45 0.32795
11.5 0.29298
11.55 0.26204
11.6 0.2296
11.65 0.19681
11.7 0.16416
11.75 0.1328
11.8 0.10153
11.85 0.07405
11.9 0.05018
11.95 0.02298
12 0.00013
12.05 -0.02073
12.1 -0.04606
12.15 -0.06742
12.2 -0.08421
12.25 -0.09896
12.3 -0.11821
12.35 -0.14141
12.4 -0.16639
12.45 -0.1852
12.5 -0.20231
12.55 -0.21547
12.6 -0.22817
12.65 -0.23691
12.7 -0.24991
12.75 -0.26289
12.8 -0.26925
12.85 -0.27381
12.9 -0.28285
12.95 -0.29176
13 -0.29691
13.05 -0.30496
13.1 -0.30901
13.15 -0.31096
13.2 -0.3154
13.25 -0.31885
13.3 -0.32337
13.35 -0.32505
13.4 -0.32258
13.45 -0.32398
13.5 -0.32236
13.55 -0.3224
13.6 -0.32094
13.65 -0.32101
13.7 -0.32514
13.75 -0.33241
13.8 -0.34076
13.85 -0.34799
13.9 -0.34789
13.95 -0.34285
14 -0.33597
14.05 -0.33189
14.1 -0.32803
14.15 -0.32812
14.2 -0.32156
14.25 -0.3135
14.3 -0.30629
14.35 -0.30251
14.4 -0.29578
14.45 -0.29533
14.5 -0.29681
14.55 -0.29913
14.6 -0.29524
14.65 -0.29255
14.7 -0.2893
14.75 -0.28479
14.8 -0.28229
14.85 -0.27782
14.9 -0.26995
14.95 -0.26185
15 -0.25447
15.05 -0.25034
15.1 -0.25163
15.15 -0.25569
15.2 -0.25197
15.25 -0.25093
15.3 -0.24633
15.35 -0.24144
15.4 -0.23271
15.45 -0.22723
15.5 -0.21976
15.55 -0.21265
15.6 -0.2088
15.65 -0.20506
15.7 -0.19856
15.75 -0.19031
15.8 -0.18381
15.85 -0.1786
15.9 -0.17386
15.95 -0.17431
16 -0.17825
16.05 -0.18113
16.1 -0.18659
16.15 -0.19299
16.2 -0.1932
16.25 -0.193
16.3 -0.18624
16.35 -0.18156
16.4 -0.17616
16.45 -0.17421
16.5 -0.17403
16.55 -0.17195
16.6 -0.17193
16.65 -0.16913
16.7 -0.16616
16.75 -0.16369
16.8 -0.15858
16.85 -0.15775
16.9 -0.15397
16.95 -0.14992
17 -0.14309
17.05 -0.1341
17.1 -0.12803
17.15 -0.12405
17.2 -0.12346
17.25 -0.12033
17.3 -0.11722
17.35 -0.11375
17.4 -0.11203
17.45 -0.10868
17.5 -0.10958
17.55 -0.10724
17.6 -0.10501
17.65 -0.1039
17.7 -0.10424
17.75 -0.10082
17.8 -0.0995
17.85 -0.09518
17.9 -0.0975
17.95 -0.09597
18 -0.09088
18.05 -0.09067
18.1 -0.09006
18.15 -0.09376
18.2 -0.0933
18.25 -0.09261
18.3 -0.08955
18.35 -0.08358
18.4 -0.08244
18.45 -0.08078
18.5 -0.07625
18.55 -0.07423
18.6 -0.07292
18.65 -0.06978
18.7 -0.0657
18.75 -0.06058
18.8 -0.05875
18.85 -0.06357
18.9 -0.07209
18.95 -0.07789
19 -0.08019
19.05 -0.0847
19.1 -0.08597
19.15 -0.08595
19.2 -0.08463
19.25 -0.08125
19.3 -0.08051
19.35 -0.07935
19.4 -0.07774
19.45 -0.0732
19.5 -0.065
19.55 -0.06343
19.6 -0.06136
19.65 -0.0563
19.7 -0.05494
19.75 -0.0534
19.8 -0.05256
19.85 -0.0547
19.9 -0.05358
19.95 -0.04878
20 -0.04818
20.05 -0.04568
20.1 -0.0407
20.15 -0.04278
20.2 -0.04879
20.25 -0.04851
20.3 -0.05229
20.35 -0.05353
20.4 -0.04966
20.45 -0.04873
20.5 -0.04756
20.55 -0.04339
20.6 -0.03862
20.65 -0.03839
20.7 -0.03884
20.75 -0.03715
20.8 -0.03477
20.85 -0.03342
20.9 -0.03675
20.95 -0.04185
21 -0.04367
21.05 -0.04662
21.1 -0.0528
21.15 -0.05673
21.2 -0.05633
21.25 -0.05076
21.3 -0.04864
21.35 -0.0447
21.4 -0.044
21.45 -0.04383
21.5 -0.04474
21.55 -0.04281
21.6 -0.03773
21.65 -0.03383
21.7 -0.03048
21.75 -0.03007
21.8 -0.02778
21.85 -0.03122
21.9 -0.03187
21.95 -0.02793
22 -0.02625
22.05 -0.02701
22.1 -0.03084
22.15 -0.03634
22.2 -0.03968
22.25 -0.03854
22.3 -0.03687
22.35 -0.03566
22.4 -0.03573
22.45 -0.03587
22.5 -0.03234
22.55 -0.03047
22.6 -0.029
22.65 -0.02782
22.7 -0.02828
22.75 -0.03001
22.8 -0.02653
22.85 -0.02677
22.9 -0.02424
22.95 -0.02105
23 -0.0179
23.05 -0.01778
23.1 -0.01873
23.15 -0.01728
23.2 -0.01352
23.25 -0.00756
23.3 -0.00763
23.35 -0.00844
23.4 -0.01033
23.45 -0.0147
23.5 -0.01455
23.55 -0.01377
23.6 -0.00941
23.65 -0.00597
23.7 -0.00606
23.75 -0.00667
23.8 -0.00461
23.85 -0.00091
23.9 0.00044
23.95 -0.00297
24 -0.00272
24.05 -0.00733
24.1 -0.01089
24.15 -0.01005
24.2 -0.00916
24.25 -0.01369
24.3 -0.02165
24.35 -0.03014
24.4 -0.03195
24.45 -0.03035
24.5 -0.02871
24.55 -0.03071
24.6 -0.02998
24.65 -0.02691
24.7 -0.02146
24.75 -0.01417
24.8 -0.00542
24.85 -0.00409
24.9 -0.00025
24.95 0.00322
25 0.00717
25.05 0.00481
25.1 -0.00051
25.15 -0.00425
25.2 -0.00958
25.25 -0.01598
25.3 -0.02176
25.35 -0.02798
25.4 -0.02814
25.45 -0.02267
25.5 -0.02132
25.55 -0.02178
25.6 -0.0196
25.65 -0.01847
25.7 -0.01831
25.75 -0.02241
25.8 -0.02247
25.85 -0.0186
25.9 -0.01509
25.95 -0.01435
26 -0.01568
26.05 -0.01908
26.1 -0.01734
26.15 -0.01606
26.2 -0.01223
26.25 -0.00603
26.3 -0.00402
26.35 -0.00104
26.4 0.00002
26.45 0.00226
26.5 -0.00044
26.55 -0.00725
26.6 -0.01136
26.65 -0.01248
26.7 -0.01561
26.75 -0.01804
26.8 -0.01701
26.85 -0.01106
26.9 -0.01124
26.95 -0.01207
27 -0.01045
27.05 -0.00917
27.1 -0.00551
27.15 -0.00155
27.2 -0.0011
27.25 -0.00144
27.3 -0.00486
27.35 -0.00316
27.4 -0.00508
27.45 -0.00714
27.5 -0.01135
27.55 -0.01301
27.6 -0.01164
27.65 -0.01515
27.7 -0.01867
27.75 -0.02203
27.8 -0.02366
27.85 -0.02403
27.9 -0.02531
27.95 -0.02718
28 -0.02536
28.05 -0.02286
28.1 -0.01942
28.15 -0.01369
28.2 -0.00678
28.25 -0.00763
28.3 -0.0099
28.35 -0.0115
28.4 -0.01763
28.45 -0.0191
28.5 -0.02223
28.55 -0.02418
28.6 -0.02808
28.65 -0.02862
28.7 -0.03507
28.75 -0.04398
28.8 -0.04935
28.85 -0.05484
28.9 -0.06412
28.95 -0.0693
29 -0.08004
29.05 -0.09302
29.1 -0.10762
29.15 -0.11745
29.2 -0.1306
29.25 -0.1451
29.3 -0.15897
29.35 -0.17343
29.4 -0.18622
29.45 -0.195
29.5 -0.20916
29.55 -0.21937
29.6 -0.23468
29.65 -0.25251
29.7 -0.27209
29.75 -0.28947
29.8 -0.30124
29.85 -0.30744
29.9 -0.31831
29.95 -0.32723
30 -0.33683
30.05 -0.33994
30.1 -0.34173
30.15 -0.34631
30.2 -0.34756
30.25 -0.34953
30.3 -0.35259
30.35 -0.3509
30.4 -0.34738
30.45 -0.34261
30.5 -0.3329
30.55 -0.32209
30.6 -0.30395
30.65 -0.28515
30.7 -0.26537
30.75 -0.2443
30.8 -0.22203
30.85 -0.19659
30.9 -0.17308
30.95 -0.15453
31 -0.1388
31.05 -0.12209
31.1 -0.10627
31.15 -0.08896
31.2 -0.06858
31.25 -0.04687
31.3 -0.02878
31.35 -0.00766
31.4 0.01686
31.45 0.0416
31.5 0.0674
31.55 0.08664
31.6 0.1035
31.65 0.12159
31.7 0.13749
31.75 0.14795
31.8 0.16292
31.85 0.17485
31.9 0.18874
31.95 0.20676
32 0.22423
32.05 0.24301
32.1 0.25443
32.15 0.26658
32.2 0.27712
32.25 0.28462
32.3 0.28903
32.35 0.29294
32.4 0.29949
32.45 0.30395
32.5 0.3142
32.55 0.32306
32.6 0.33124
32.65 0.33487
32.7 0.33471
32.75 0.33553
32.8 0.34011
32.85 0.34623
32.9 0.34522
32.95 0.34262
33 0.34375
33.05 0.34485
33.1 0.34589
33.15 0.34539
33.2 0.33771
33.25 0.32699
33.3 0.32132
33.35 0.31839
33.4 0.31664
33.45 0.3061
33.5 0.29531
33.55 0.28793
33.6 0.27766
33.65 0.26794
33.7 0.25511
33.75 0.24331
33.8 0.2338
33.85 0.22141
33.9 0.20756
33.95 0.19936
34 0.19045
34.05 0.17751
34.1 0.16191
34.15 0.14585
34.2 0.12895
34.25 0.11336
34.3 0.09911
34.35 0.09064
34.4 0.08277
34.45 0.07812
34.5 0.07558
34.55 0.07376
34.6 0.07277
34.65 0.07182
34.7 0.07037
34.75 0.06822
34.8 0.06177
34.85 0.05752
34.9 0.05607
34.95 0.05403
35 0.04877
35.05 0.04182
35.1 0.03595
35.15 0.02721
35.2 0.017
35.25 0.01244
35.3 0.01367
35.35 0.01342
35.4 0.00927
35.45 0.00718
35.5 0.00737
35.55 0.00636
35.6 0.00585
35.65 0.00869
35.7 0.01003
35.75 0.00817
35.8 0.00947
35.85 0.00621
35.9 0.00351
35.95 -0.00014
36 -0.00244
36.05 -0.00247
36.1 -0.00073
36.15 -0.00306
36.2 -0.00309
36.25 -0.00722
36.3 -0.0122
36.35 -0.02034
36.4 -0.02461
36.45 -0.03182
36.5 -0.03456
36.55 -0.04052
36.6 -0.04746
36.65 -0.055
36.7 -0.05754
36.75 -0.06011
36.8 -0.0624
36.85 -0.05843
36.9 -0.05141
36.95 -0.04275
37 -0.03934
37.05 -0.04057
37.1 -0.04093
37.15 -0.04506
37.2 -0.05246
37.25 -0.05807
37.3 -0.06089
37.35 -0.05747
37.4 -0.05158
37.45 -0.04405
37.5 -0.04088
37.55 -0.03606
37.6 -0.03778
37.65 -0.04008
37.7 -0.04533
37.75 -0.05047
37.8 -0.05635
37.85 -0.06346
37.9 -0.06693
37.95 -0.06482
38 -0.05946
38.05 -0.05633
38.1 -0.04927
38.15 -0.04543
38.2 -0.04069
38.25 -0.03664
38.3 -0.03483
38.35 -0.03455
38.4 -0.03256
38.45 -0.03536
38.5 -0.03785
38.55 -0.0358
38.6 -0.03662
38.65 -0.03573
38.7 -0.03327
38.75 -0.03082
38.8 -0.03308
38.85 -0.03333
38.9 -0.03265
38.95 -0.03303
39 -0.03498
39.05 -0.03567
39.1 -0.03842
39.15 -0.04179
39.2 -0.04279
39.25 -0.04617
39.3 -0.04365
39.35 -0.03829
39.4 -0.03392
39.45 -0.02727
39.5 -0.02513
39.55 -0.02573
39.6 -0.02649
39.65 -0.0241
39.7 -0.01928
39.75 -0.0205
39.8 -0.01718
39.85 -0.01587
39.9 -0.01864
39.95 -0.02057
40 -0.02593
40.05 -0.02896
40.1 -0.033
40.15 -0.03339
40.2 -0.03721
40.25 -0.03975
40.3 -0.04364
40.35 -0.04541
40.4 -0.04086
40.45 -0.03316
40.5 -0.02448
40.55 -0.01684
40.6 -0.01141
40.65 -0.00662
40.7 -0.00141
40.75 -0.00379
40.8 -0.01036
40.85 -0.01217
40.9 -0.01459
40.95 -0.01804
41 -0.02419
41.05 -0.02333
41.1 -0.02375
41.15 -0.02802
41.2 -0.02953
41.25 -0.02595
41.3 -0.02618
41.35 -0.0266
41.4 -0.0287
41.45 -0.03107
41.5 -0.0267
41.55 -0.02099
41.6 -0.01798
41.65 -0.01747
41.7 -0.01501
41.75 -0.01712
41.8 -0.02287
41.85 -0.02329
41.9 -0.02046
41.95 -0.02211
42 -0.02264
42.05 -0.0232
42.1 -0.02629
42.15 -0.02349
42.2 -0.02512
42.25 -0.0238
42.3 -0.02252
42.35 -0.02132
42.4 -0.02263
42.45 -0.02175
42.5 -0.02439
42.55 -0.02941
42.6 -0.02864
42.65 -0.02396
42.7 -0.0235
42.75 -0.02107
42.8 -0.01607
42.85 -0.01367
42.9 -0.00923
42.95 -0.00988
43 -0.01337
43.05 -0.01212
43.1 -0.01309
43.15 -0.01628
43.2 -0.01475
43.25 -0.01769
43.3 -0.01566
43.35 -0.01029
43.4 -0.00616
43.45 -0.00538
43.5 -0.00082
43.55 0.00395
43.6 0.00388
43.65 0.00681
43.7 0.00579
43.75 0.00878
43.8 0.01175
43.85 0.01489
43.9 0.01284
43.95 0.00713
44 -0.00066
44.05 -0.00754
44.1 -0.00723
44.15 -0.01058
44.2 -0.0148
44.25 -0.01323
44.3 -0.01248
44.35 -0.01315
44.4 -0.00998
44.45 -0.01121
44.5 -0.0129
44.55 -0.0151
44.6 -0.01919
44.65 -0.02087
44.7 -0.02499
44.75 -0.02539
44.8 -0.02693
44.85 -0.02861
44.9 -0.02279
44.95 -0.01578
45 -0.00863
45.05 0.0005
45.1 0.00376
45.15 0.00542
45.2 0.01031
45.25 0.00971
45.3 0.00917
45.35 0.00924
45.4 0.00448
45.45 0.00342
45.5 0.0006
45.55 0.00046
45.6 0.00045
45.65 0.00137
45.7 -0.00172
45.75 -0.0051
45.8 -0.00559
45.85 -0.00092
45.9 -0.00203
45.95 -0.0042
46 -0.00918
46.05 -0.00866
46.1 -0.00598
46.15 -0.00429
46.2 -0.00541
46.25 -0.00605
46.3 -0.01058
46.35 -0.0133
46.4 -0.01276
46.45 -0.00988
46.5 -0.00841
46.55 -0.00892
46.6 -0.01185
46.65 -0.01062
46.7 -0.00756
46.75 -0.00599
46.8 -0.00782
46.85 -0.00593
46.9 -0.00285
46.95 -0.00423
47 -0.00421
47.05 -0.00752
47.1 -0.01111
47.15 -0.00797
47.2 -0.00065
47.25 0.00849
47.3 0.01774
47.35 0.01883
47.4 0.02257
47.45 0.02119
47.5 0.01885
47.55 0.01214
47.6 0.00874
47.65 0.0085
47.7 0.00483
47.75 -0.00099
47.8 -0.00118
47.85 -0.00119
47.9 -0.00293
47.95 -0.00701
48 -0.00997
48.05 -0.01153
48.1 -0.01464
48.15 -0.01825
48.2 -0.01694
48.25 -0.0118
48.3 -0.0052
48.35 -0.001
48.4 0.00424
48.45 0.00271
48.5 0.00515
48.55 0.00698
48.6 0.01017
48.65 0.01191
48.7 0.01226
48.75 0.00812
48.8 0.00036
48.85 -0.00122
48.9 -0.00393
48.95 -0.00823
49 -0.01415
49.05 -0.01296
49.1 -0.00858
49.15 -0.00871
49.2 -0.00582
49.25 -0.00658
49.3 -0.00248
49.35 -0.00377
49.4 -0.00621
49.45 -0.00696
49.5 -0.0109
49.55 -0.0089
49.6 -0.00269
49.65 0.00162
49.7 0.00322
49.75 -0.0006
49.8 -0.00179
49.85 -0.00263
49.9 -0.00294
49.95 -0.00669
50 -0.01126
50.05 -0.01356
50.1 -0.00962
50.15 -0.00549
50.2 0.00181
50.25 0.00689
50.3 0.01189
50.35 0.01104
50.4 0.01121
50.45 0.01391
50.5 0.01048
50.55 0.00557
50.6 0.0047
50.65 0.00491
50.7 0.00573
50.75 0.00889
50.8 0.01371
50.85 0.01498
50.9 0.0147
50.95 0.01643
51 0.01787
51.05 0.02034
51.1 0.02056
51.15 0.02119
51.2 0.01744
51.25 0.01212
51.3 0.00995
51.35 0.00993
51.4 0.00736
51.45 0.00577
51.5 0.00826
51.55 0.01063
51.6 0.00986
51.65 0.00782
51.7 0.00482
51.75 0.00564
51.8 0.00333
51.85 0.00488
51.9 0.00418
51.95 0.00444
52 0.0026
52.05 0.0054
52.1 0.00584
52.15 0.00471
52.2 0.0009
52.25 -0.00608
52.3 -0.01348
52.35 -0.02205
52.4 -0.029
52.45 -0.03587
52.5 -0.03481
52.55 -0.029
52.6 -0.02437
52.65 -0.01982
52.7 -0.01566
52.75 -0.01059
52.8 -0.00531
52.85 -0.00511
52.9 -0.00033
52.95 0.00443
53 0.00881
53.05 0.00903
53.1 0.00781
53.15 0.00593
53.2 0.00181
53.25 0.001
53.3 0.0043
53.35 0.00461
53.4 -0.00027
53.45 -0.00148
53.5 0.00055
53.55 -0.00239
53.6 -0.00556
53.65 -0.00952
53.7 -0.00746
53.75 -0.00925
53.8 -0.00761
53.85 -0.00258
53.9 0.0013
53.95 -0.00015
54 -0.00482
54.05 -0.00984
54.1 -0.01519
54.15 -0.01987
54.2 -0.02428
54.25 -0.02246
54.3 -0.01954
54.35 -0.01352
54.4 -0.00981
54.45 -0.00404
54.5 -0.00433
54.55 -0.00695
54.6 -0.01233
54.65 -0.01072
54.7 -0.0049
54.75 0.00008
54.8 0.00243
54.85 0.0066
54.9 0.00691
54.95 0.00611
55 0.00371
55.05 0.00445
55.1 0.00132
55.15 -0.00335
55.2 -0.00992
55.25 -0.0114
55.3 -0.01351
55.35 -0.00976
55.4 -0.00806
55.45 -0.00869
55.5 -0.0044
55.55 -0.00513
55.6 -0.0014
55.65 0.00204
55.7 0.00721
55.75 0.01216
55.8 0.01209
55.85 0.00853
55.9 0.01022
55.95 0.01405
56 0.01961
56.05 0.02232
56.1 0.01855
56.15 0.00988
56.2 0.00648
56.25 0.00804
56.3 0.00762
56.35 0.00663
56.4 0.001
56.45 0.00087
56.5 -0.00286
56.55 -0.00559
56.6 -0.00391
56.65 0.00023
56.7 -0.00168
56.75 0.00022
56.8 0.00545
56.85 0.00646
56.9 0.01043
56.95 0.01005
57 0.00671
57.05 0.00594
57.1 0.00505
57.15 0.00201
57.2 0.0043
57.25 0.00054
57.3 -0.00238
57.35 -0.00056
57.4 0.005
57.45 0.00827
57.5 0.00595
57.55 0.00319
57.6 0.00048
57.65 0.00287
57.7 0.00212
57.75 0.00238
57.8 0.00046
57.85 0.00113
57.9 -0.00181
57.95 -0.00308
58 -0.00748
58.05 -0.00614
58.1 -0.00496
58.15 -0.00482
58.2 -0.00054
58.25 0.00041
58.3 -0.00376
58.35 -0.00638
58.4 -0.00974
58.45 -0.01021
58.5 -0.00979
58.55 -0.00645
58.6 -0.00673
58.65 -0.00899
58.7 -0.01052
58.75 -0.00778
58.8 -0.00116
58.85 0.00472
58.9 0.00326
58.95 0.00592
59 0.00367
59.05 -0.00285
59.1 -0.01021
59.15 -0.01673
59.2 -0.02367
59.25 -0.02753
59.3 -0.02362
59.35 -0.02339
59.4 -0.01899
59.45 -0.01118
59.5 -0.00586
59.55 0.00194
59.6 0.00962
59.65 0.01629
59.7 0.01454
59.75 0.00883
59.8 0.00827
59.85 0.00788
59.9 0.00807
59.95 0.01092
60 0.01317
60.05 0.00953
60.1 0.00766
60.15 0.00158
60.2 0.00118
60.25 -0.00059
60.3 -0.00633
60.35 -0.00638
60.4 -0.00583
60.45 -0.00071
60.5 -0.00165
60.55 -0.00443
60.6 -0.00616
60.65 -0.01072
60.7 -0.00934
60.75 -0.0114
60.8 -0.01611
60.85 -0.01721
60.9 -0.01213
60.95 -0.00551
61 -0.00186
61.05 -0.00172
61.1 0.00323
61.15 0.00618
61.2 0.00427
61.25 -0.00151
61.3 -0.00964
61.35 -0.01478
61.4 -0.01345
61.45 -0.00972
61.5 -0.00719
61.55 -0.00902
61.6 -0.01157
61.65 -0.01502
61.7 -0.02007
61.75 -0.01795
61.8 -0.0189
61.85 -0.0144
61.9 -0.0139
61.95 -0.01265
62 -0.00799
62.05 -0.00399
62.1 0.00243
62.15 0.00592
62.2 0.00559
62.25 0.00273
62.3 0.00079
62.35 -0.00384
62.4 -0.00376
62.45 -0.00605
62.5 -0.00504
62.55 -0.0009
62.6 -0.00028
62.65 -0.00233
62.7 -0.00112
62.75 0.0006
62.8 -0.00277
62.85 -0.00298
62.9 -0.00618
62.95 -0.00712
63 -0.01124
63.05 -0.01532
63.1 -0.01614
63.15 -0.01657
63.2 -0.0127
63.25 -0.00973
63.3 -0.00337
63.35 0.00189
63.4 0.00721
63.45 0.00962
63.5 0.00677
63.55 0.00609
63.6 0.00876
63.65 0.01269
63.7 0.01289
63.75 0.00944
63.8 0.00567
63.85 -0.00117
63.9 -0.00379
63.95 -0.00294
64 -0.00553
64.05 -0.00689
64.1 -0.00521
64.15 -0.00459
64.2 -0.00111
64.25 0.00491
64.3 0.00779
64.35 0.00561
64.4 0.00118
64.45 0.00282
64.5 0.00851
64.55 0.00759
64.6 0.00655
64.65 0.0087
64.7 0.00617
64.75 0.00866
64.8 0.00664
64.85 0.00624
64.9 0.0021
64.95 -0.00244
65 -0.00813
65.05 -0.00822
65.1 -0.00789
65.15 -0.00711
65.2 -0.0045
65.25 -0.00076
65.3 0.00281
65.35 0.00936
65.4 0.01293
65.45 0.01434
65.5 0.01576
65.55 0.0135
65.6 0.00738
65.65 -0.0008
65.7 -0.00111
65.75 -0.00161
65.8 0.00093
65.85 0.00548
65.9 0.012
65.95 0.01879
66 0.02589
66.05 0.02446
66.1 0.0195
66.15 0.01837
66.2 0.01939
66.25 0.01625
66.3 0.01378
66.35 0.01073
66.4 0.00506
66.45 0.00374
66.5 0.00475
66.55 0.00325
66.6 -0.00168
66.65 -0.00122
66.7 -0.00119
66.75 -0.00051
66.8 0.00346
66.85 0.00483
66.9 0.0047
66.95 0.00253
67 0.00064
67.05 0.00061
67.1 -0.00313
67.15 -0.00937
67.2 -0.01044
67.25 -0.00852
67.3 -0.00588
67.35 -0.00181
67.4 0.00475
67.45 0.00372
67.5 0.00232
67.55 -0.00014
67.6 -0.00085
67.65 -0.00086
67.7 0.00334
67.75 0.00448
67.8 0.00388
67.85 0.00384
67.9 0.00272
67.95 -0.00296
68 -0.00471
68.05 -0.0032
68.1 -0.00285
68.15 -0.00142
68.2 -0.00256
68.25 -0.00335
68.3 -0.00625
68.35 -0.00367
68.4 -0.00222
68.45 0.0029
68.5 0.00436
68.55 0.00139
68.6 -0.00404
68.65 -0.00843
68.7 -0.00938
68.75 -0.01316
68.8 -0.01839
68.85 -0.0235
68.9 -0.0293
68.95 -0.02733
69 -0.02813
69.05 -0.02189
69.1 -0.01837
69.15 -0.01699
69.2 -0.01494
69.25 -0.00828
69.3 -0.00112
69.35 -0.0007
69.4 -0.00025
69.45 0.00076
69.5 0.00448
69.55 0.00228
69.6 -0.00104
69.65 -0.00414
69.7 -0.00977
69.75 -0.0112
69.8 -0.01009
69.85 -0.00434
69.9 0.00243
69.95 0.00929
70 0.01724
70.05 0.01679
70.1 0.01527
70.15 0.01269
70.2 0.00735
70.25 0.00406
70.3 0.00495
70.35 0.00479
70.4 0.00651
70.45 0.00631
70.5 0.00484
70.55 0.0069
70.6 0.00305
70.65 -0.00348
70.7 -0.009
70.75 -0.00793
70.8 -0.01076
70.85 -0.00694
70.9 -0.0003
70.95 0.00057
71 -0.00347
71.05 -0.00598
71.1 -0.00957
71.15 -0.01335
71.2 -0.01338
71.25 -0.00812
71.3 -0.00613
71.35 -0.00529
71.4 -0.00313
71.45 -0.00478
71.5 -0.00391
71.55 0.00099
71.6 0.00322
71.65 0.00296
71.7 0.00034
71.75 -0.00567
71.8 -0.00903
71.85 -0.01136
71.9 -0.00912
71.95 -0.00236
72 0.00022
72.05 0.00195
72.1 0.00393
72.15 0.00876
72.2 0.01357
72.25 0.01472
72.3 0.01555
72.35 0.01373
72.4 0.01156
72.45 0.00521
72.5 -0.00168
72.55 -0.00285
72.6 -0.00523
72.65 -0.01072
72.7 -0.01462
72.75 -0.01382
72.8 -0.01382
72.85 -0.01029
72.9 -0.00942
72.95 -0.00443
73 -0.00396
73.05 0.00088
73.1 0.0047
73.15 0.00328
73.2 0.00166
73.25 0.00494
73.3 0.00865
73.35 0.01449
73.4 0.01556
73.45 0.0187
73.5 0.01761
73.55 0.01874
73.6 0.01623
73.65 0.01523
73.7 0.01427
73.75 0.00903
73.8 0.0046
73.85 0.00041
73.9 -0.00301
73.95 -0.00578
74 -0.00963
74.05 -0.01128
74.1 -0.01229
74.15 -0.0138
74.2 -0.01652
74.25 -0.01588
74.3 -0.01648
74.35 -0.01713
74.4 -0.01477
74.45 -0.00727
74.5 0.00089
74.55 0.00621
74.6 0.00667
74.65 0.00662
74.7 0.00576
74.75 0.00884
74.8 0.01022
74.85 0.01409
74.9 0.01645
74.95 0.01603
75 0.01381
75.05 0.01486
75.1 0.01032
75.15 0.00954
75.2 0.00798
75.25 0.00311
75.3 -0.00178
75.35 -0.00013
75.4 -0.00181
75.45 -0.00557
75.5 -0.00441
75.55 -0.00035
75.6 0.00567
75.65 0.00916
75.7 0.00882
75.75 0.00712
75.8 0.00429
75.85 0.00387
75.9 0.00567
75.95 0.00582
76 0.00224
76.05 0.00363
76.1 0.00527
76.15 0.00166
76.2 -0.0043
76.25 -0.00978
76.3 -0.01153
76.35 -0.01096
76.4 -0.00995
76.45 -0.00939
76.5 -0.00822
76.55 -0.01012
76.6 -0.00919
76.65 -0.00326
76.7 -0.00103
76.75 -0.00055
76.8 0.00261
76.85 0.00476
76.9 0.00602
76.95 0.00697
77 0.00838
77.05 0.01324
77.1 0.01691
77.15 0.01385
77.2 0.01019
77.25 0.005
77.3 0.0055
77.35 0.00451
77.4 0.00808
77.45 0.01081
77.5 0.00855
77.55 0.01005
77.6 0.01329
77.65 0.01047
77.7 0.00307
77.75 -0.00045
77.8 0.00069
77.85 0.00476
77.9 0.00371
77.95 0.00061
78 -0.00249
78.05 -0.00305
78.1 -0.00727
78.15 -0.01044
78.2 -0.01393
78.25 -0.01052
78.3 -0.00956
78.35 -0.00907
78.4 -0.00931
78.45 -0.01307
78.5 -0.01062
78.55 -0.00945
78.6 -0.01228
78.65 -0.01164
78.7 -0.0087
78.75 -0.00851
78.8 -0.00463
78.85 -0.00441
78.9 -0.00513
78.95 -0.00152
79 -0
79.05 0.00163
79.1 -0.00058
79.15 -0.00653
79.2 -0.01321
79.25 -0.01878
79.3 -0.02038
79.35 -0.02265
79.4 -0.01926
79.45 -0.01638
79.5 -0.00889
79.55 -0.00138
79.6 0.0046
79.65 0.00952
79.7 0.01493
79.75 0.02087
79.8 0.02327
79.85 0.02232
79.9 0.02313
79.95 0.0251
80 0.02128
80.05 0.01886
80.1 0.01703
80.15 0.01199
80.2 0.00828
80.25 0.00655
80.3 0.00589
80.35 0.0094
80.4 0.00925
80.45 0.00831
80.5 0.01093
80.55 0.00749
80.6 0.00282
80.65 0.00095
80.7 0.00305
80.75 0.00037
80.8 -0.00113
80.85 0.0004
80.9 -0.00232
80.95 -0.00192
81 -0.00149
81.05 0.00298
81.1 0.00269
81.15 0.00295
81.2 0.00678
81.25 0.00827
81.3 0.01146
81.35 0.01272
81.4 0.00971
81.45 0.00649
81.5 -0.00034
81.55 -0.00163
81.6 -0.00512
81.65 -0.00456
81.7 -0.00817
81.75 -0.0093
81.8 -0.00688
81.85 -0.00777
81.9 -0.01124
81.95 -0.00839
82 -0.00339
82.05 0.00425
82.1 0.01162
82.15 0.01424
82.2 0.01105
82.25 0.00833
82.3 0.00468
82.35 -0.00073
82.4 -0.00533
82.45 -0.01038
82.5 -0.01299
82.55 -0.01324
82.6 -0.01695
82.65 -0.0182
82.7 -0.02126
82.75 -0.01756
82.8 -0.01503
82.85 -0.01016
82.9 -0.01028
82.95 -0.0075
83 -0.00284
83.05 0.0043
83.1 0.00817
83.15 0.01436
83.2 0.02054
83.25 0.02384
83.3 0.02459
83.35 0.02508
83.4 0.02256
83.45 0.02083
83.5 0.01759
83.55 0.01333
83.6 0.00937
83.65 0.00178
83.7 -0.00033
83.75 -0.00448
83.8 -0.00705
83.85 -0.01228
83.9 -0.01568
83.95 -0.01271
84 -0.00742
84.05 -0.00303
84.1 0.00029
84.15 -0.00152
84.2 -0.00658
84.25 -0.00718
84.3 -0.01172
84.35 -0.0184
84.4 -0.01832
84.45 -0.02075
84.5 -0.01913
84.55 -0.01655
84.6 -0.01639
84.65 -0.0135
84.7 -0.01387
84.75 -0.00964
84.8 -0.00623
84.85 -0.0024
84.9 0.00388
84.95 0.01038
85 0.01386
85.05 0.01343
85.1 0.01279
85.15 0.00846
85.2 0.00903
85.25 0.00667
85.3 0.00266
85.35 0.00285
85.4 -0.00071
85.45 -0.00498
85.5 -0.01108
85.55 -0.01382
85.6 -0.01173
85.65 -0.00825
85.7 -0.0067
85.75 -0.00674
85.8 -0.00211
85.85 0.00172
85.9 0.00191
85.95 -0.0024
86 -0.00896
86.05 -0.01307
86.1 -0.01458
86.15 -0.0149
86.2 -0.00937
86.25 -0.00838
86.3 -0.00794
86.35 -0.00337
86.4 -0.00203
86.45 -0.00178
86.5 -0.00247
86.55 -0.00269
86.6 -0.00287
86.65 -0.00709
86.7 -0.00938
86.75 -0.00964
86.8 -0.01217
86.85 -0.01127
86.9 -0.01025
86.95 -0.00699
87 -0.00893
87.05 -0.00863
87.1 -0.00916
87.15 -0.00834
87.2 -0.01114
87.25 -0.01449
87.3 -0.01876
87.35 -0.02186
87.4 -0.02555
87.45 -0.02549
87.5 -0.02546
87.55 -0.02001
87.6 -0.01666
87.65 -0.00944
87.7 -0.00661
87.75 -0.00541
87.8 -0.00521
87.85 -0.00573
87.9 -0.00539
87.95 -0.00619
88 -0.00586
88.05 -0.0054
88.1 -0.00039
88.15 0.002
88.2 0.00551
88.25 0.00799
88.3 0.01234
88.35 0.01606
88.4 0.02132
88.45 0.02282
88.5 0.02473
88.55 0.02864
88.6 0.02873
88.65 0.02347
88.7 0.01366
88.75 0.00402
88.8 -0.00292
88.85 -0.01078
88.9 -0.01465
88.95 -0.01241
89 -0.00901
89.05 -0.00693
89.1 -0.00582
89.15 -0.00306
89.2 -0.00246
89.25 -0.00443
89.3 -0.00832
89.35 -0.0102
89.4 -0.01008
89.45 -0.00678
89.5 -0.0027
89.55 0.00035
89.6 0.00327
89.65 0.00625
89.7 0.00897
89.75 0.00806
89.8 0.00585
89.85 0.00783
89.9 0.01181
89.95 0.01238
90 0.01425
90.05 0.01433
90.1 0.01749
90.15 0.01724
90.2 0.01178
90.25 0.01126
90.3 0.01256
90.35 0.01474
90.4 0.01017
90.45 0.00542
90.5 -0.00055
90.55 -0.00888
90.6 -0.01561
90.65 -0.01755
90.7 -0.01345
90.75 -0.00788
90.8 -0.00117
90.85 0.00544
90.9 0.00451
90.95 0.0074
91 0.01126
91.05 0.01454
91.1 0.01423
91.15 0.01318
91.2 0.0071
91.25 0.00239
91.3 -0.00322
91.35 -0.01067
91.4 -0.01438
91.45 -0.01971
91.5 -0.02307
91.55 -0.02027
91.6 -0.01722
91.65 -0.01639
91.7 -0.01256
91.75 -0.01254
91.8 -0.01372
91.85 -0.01662
91.9 -0.01289
91.95 -0.01344
92 -0.01403
92.05 -0.01535
92.1 -0.01093
92.15 -0.01166
92.2 -0.01046
92.25 -0.01144
92.3 -0.01253
92.35 -0.01292
92.4 -0.0092
92.45 -0.0102
92.5 -0.01284
92.55 -0.01582
92.6 -0.01164
92.65 -0.01153
92.7 -0.01402
92.75 -0.00972
92.8 -0.00889
92.85 -0.00971
92.9 -0.00891
92.95 -0.00705
93 -0.00829
93.05 -0.00475
93.1 -0.00581
93.15 -0.00434
93.2 -0.0007
93.25 0.00122
93.3 -0.00073
93.35 -0.00572
93.4 -0.00867
93.45 -0.00511
93.5 -0.00117
93.55 0.00198
93.6 0.00871
93.65 0.01426
93.7 0.01245
93.75 0.01508
93.8 0.0133
93.85 0.01122
93.9 0.0097
93.95 0.00542
94 0.00294
94.05 -0.00127
94.1 -0.00082
94.15 -0.00203
94.2 -0.00514
94.25 -0.00982
94.3 -0.00957
94.35 -0.00522
94.4 -0.00478
94.45 -0.00451
94.5 -0.00072
94.55 0.00288
94.6 0.00858
94.65 0.01649
94.7 0.01926
94.75 0.01797
94.8 0.01155
94.85 0.01031
94.9 0.00614
94.95 0.00187
95 -0.00192
95.05 -0.00243
95.1 -0.00642
95.15 -0.00861
95.2 -0.01246
95.25 -0.01252
95.3 -0.01265
95.35 -0.00913
95.4 -0.00429
95.45 0.00202
95.5 0.0018
95.55 0.00234
95.6 0.00494
95.65 0.00501
95.7 0.0081
95.75 0.01015
95.8 0.01382
95.85 0.01438
95.9 0.01718
95.95 0.02244
96 0.02447
96.05 0.02434
96.1 0.01908
96.15 0.01687
96.2 0.01516
96.25 0.01459
96.3 0.01781
96.35 0.02154
96.4 0.02673
96.45 0.02873
96.5 0.02756
96.55 0.02208
96.6 0.01949
96.65 0.01604
96.7 0.0129
96.75 0.00646
96.8 0.00404
96.85 0.00112
96.9 -0.00126
96.95 0.0014
97 -0.00044
97.05 -0.00202
97.1 -0.00455
97.15 -0.00933
97.2 -0.0131
97.25 -0.01781
97.3 -0.01937
97.35 -0.02127
97.4 -0.02011
97.45 -0.01973
97.5 -0.02216
97.55 -0.01976
97.6 -0.01478
97.65 -0.01345
97.7 -0.01248
97.75 -0.00674
97.8 -0.00033
97.85 -0.00013
97.9 -0.00274
97.95 -0.00451
98 -0.00462
98.05 -0.00849
98.1 -0.01264
98.15 -0.00951
98.2 -0.00981
98.25 -0.00809
98.3 -0.0103
98.35 -0.01515
98.4 -0.01504
98.45 -0.01466
98.5 -0.01197
98.55 -0.01032
98.6 -0.00697
98.65 -0.00598
98.7 -0.00214
98.75 -0.00064
98.8 0.00357
98.85 0.01035
98.9 0.01719
98.95 0.01717
99 0.0126
99.05 0.00872
99.1 0.00358
99.15 -0.00094
99.2 -0.00067
99.25 -0.00411
99.3 -0.00459
99.35 -0.00805
99.4 -0.01236
99.45 -0.01545
99.5 -0.01991
99.55 -0.0173
99.6 -0.01067
99.65 -0.00382
99.7 0.00091
99.75 0.00045
99.8 0.00277
99.85 0.00165
99.9 0.00131
99.95 0.00542
