0 0
0.05 0.00492
0.1 0.01371
0.15 0.02729
0.2 0.04016
0.25 0.0528
0.3 0.06309
0.35 0.07295
0.4 0.07956
0.45 0.08154
0.5 0.08119
0.55 0.07909
0.6 0.07368
0.65 0.06819
0.7 0.05866
0.75 0.05455
0.8 0.04926
0.85 0.04416
0.9 0.04031
0.95 0.04104
1 0.04089
1.05 0.04144
1.1 0.04037
1.15 0.03696
1.2 0.03542
1.25 0.03883
1.3 0.03792
1.35 0.03493
1.4 0.03711
1.45 0.0365
1.5 0.03545
1.55 0.03245
1.6 0.03501
1.65 0.03339
1.7 0.03411
1.75 0.03913
1.8 0.04128
1.85 0.04058
1.9 0.03905
1.95 0.03573
2 0.03666
2.05 0.03388
2.1 0.03025
2.15 0.02698
2.2 0.02963
2.25 0.02751
2.3 0.03038
2.35 0.03326
2.4 0.03717
2.45 0.03602
2.5 0.03787
2.55 0.0415
2.6 0.0426
2.65 0.0392
2.7 0.03487
2.75 0.02902
2.8 0.02062
2.85 0.01637
2.9 0.01307
2.95 0.01253
3 0.01199
3.05 0.01143
3.1 0.01436
3.15 0.02033
3.2 0.02248
3.25 0.02787
3.3 0.02879
3.35 0.02592
3.4 0.01927
3.45 0.01598
3.5 0.01294
3.55 0.01483
3.6 0.01919
3.65 0.01773
3.7 0.01852
3.75 0.02099
3.8 0.01868
3.85 0.01529
3.9 0.01004
3.95 0.00934
4 0.00758
4.05 0.00925
4.1 0.01484
4.15 0.02092
4.2 0.02178
4.25 0.02207
4.3 0.01896
4.35 0.01819
4.4 0.01733
4.45 0.01182
4.5 0.00377
4.55 -0.00243
4.6 -0.0129
4.65 -0.02787
4.7 -0.04189
4.75 -0.06328
4.8 -0.08576
4.85 -0.11237
4.9 -0.146
4.95 -0.18278
5 -0.22143
5.05 -0.25736
5.1 -0.29621
5.15 -0.34274
5.2 -0.39232
5.25 -0.44553
5.3 -0.49903
5.35 -0.55583
5.4 -0.61221
5.45 -0.67324
5.5 -0.73439
5.55 -0.79163
5.6 -0.85386
5.65 -0.9177
5.7 -0.97942
5.75 -1.03357
5.8 -1.08082
5.85 -1.12095
5.9 -1.15351
5.95 -1.16973
6 -1.18046
6.05 -1.18332
6.1 -1.17219
6.15 -1.15408
6.2 -1.1257
6.25 -1.09319
6.3 -1.05859
6.35 -1.01888
6.4 -0.97249
6.45 -0.92175
6.5 -0.86915
6.55 -0.81553
6.6 -0.76329
6.65 -0.70407
6.7 -0.639
6.75 -0.5769
6.8 -0.51059
6.85 -0.43778
6.9 -0.36569
6.95 -0.29144
7 -0.21703
7.05 -0.14523
7.1 -0.07284
7.15 0.00683
7.2 0.08815
7.25 0.16959
7.3 0.24888
7.35 0.32973
7.4 0.40242
7.45 0.46815
7.5 0.52753
7.55 0.58932
7.6 0.64393
7.65 0.69891
7.7 0.74884
7.75 0.79392
7.8 0.83768
7.85 0.87467
7.9 0.90164
7.95 0.92465
8 0.94415
8.05 0.96294
8.1 0.97448
8.15 0.98039
8.2 0.98007
8.25 0.97819
8.3 0.96931
8.35 0.95998
8.4 0.94928
8.45 0.93841
8.5 0.92498
8.55 0.90837
8.6 0.89022
8.65 0.87362
8.7 0.86361
8.75 0.85555
8.8 0.84689
8.85 0.83316
8.9 0.82283
8.95 0.80572
9 0.78983
9.05 0.77272
9.1 0.75864
9.15 0.74368
9.2 0.73013
9.25 0.71811
9.3 0.70011
9.35 0.68137
9.4 0.66202
9.45 0.64343
9.5 0.62099
9.55 0.59913
9.6 0.57443
9.65 0.55642
9.7 0.54171
9.75 0.52138
9.8 0.50274
9.85 0.48788
9.9 0.4717
9.95 0.45789
10 0.43978
10.05 0.42191
10.1 0.40347
10.15 0.38704
10.2 0.37317
10.25 0.35698
10.3 0.33831
10.35 0.3205
10.4 0.30294
10.45 0.2831
10.5 0.26737
10.55 0.25391
10.6 0.23675
10.65 0.224
10.7 0.21026
10.75 0.19993
10.8 0.18677
10.85 0.17105
10.9 0.15336
10.95 0.13897
11 0.12253
11.05 0.10963
11.1 0.09915
11.15 0.09217
11.2 0.08324
11.25 0.07279
11.3 0.06163
11.35 0.05525
11.4 0.04596
11.45 0.03656
11.5 0.02456
11.55 0.01576
11.6 0.00604
11.65 -0.00792
11.7 -0.01957
11.75 -0.03396
11.8 -0.04381
11.85 -0.04703
11.9 -0.05382
11.95 -0.05894
12 -0.0651
12.05 -0.07033
12.1 -0.07668
12.15 -0.08056
12.2 -0.08788
12.25 -0.0981
12.3 -0.10797
12.35 -0.11276
12.4 -0.11497
12.45 -0.11814
12.5 -0.12004
12.55 -0.1166
12.6 -0.11276
12.65 -0.1091
12.7 -0.1085
12.75 -0.1073
12.8 -0.10428
12.85 -0.1028
12.9 -0.10313
12.95 -0.10751
13 -0.11061
13.05 -0.11697
13.1 -0.12486
13.15 -0.13249
13.2 -0.13819
13.25 -0.14535
13.3 -0.15036
13.35 -0.15441
13.4 -0.15203
13.45 -0.15342
13.5 -0.14844
13.55 -0.14291
13.6 -0.13426
13.65 -0.13027
13.7 -0.1259
13.75 -0.12744
13.8 -0.1293
13.85 -0.1322
13.9 -0.13341
13.95 -0.12902
14 -0.12207
14.05 -0.11734
14.1 -0.11139
14.15 -0.11269
14.2 -0.11121
14.25 -0.11217
14.3 -0.11321
14.35 -0.11433
14.4 -0.11801
14.45 -0.11798
14.5 -0.1191
14.55 -0.12241
14.6 -0.12076
14.65 -0.11752
14.7 -0.11484
14.75 -0.11085
14.8 -0.1069
14.85 -0.10706
14.9 -0.10554
14.95 -0.10082
15 -0.09283
15.05 -0.09056
15.1 -0.09128
15.15 -0.09526
15.2 -0.09898
15.25 -0.09895
15.3 -0.09584
15.35 -0.09059
15.4 -0.08785
15.45 -0.08255
15.5 -0.07457
15.55 -0.07151
15.6 -0.06677
15.65 -0.06516
15.7 -0.0634
15.75 -0.06788
15.8 -0.0692
15.85 -0.06736
15.9 -0.06573
15.95 -0.06506
16 -0.06314
16.05 -0.06135
16.1 -0.06297
16.15 -0.06082
16.2 -0.06263
16.25 -0.06035
16.3 -0.05822
16.35 -0.05483
16.4 -0.04893
16.45 -0.04901
16.5 -0.05475
16.55 -0.05994
16.6 -0.06673
16.65 -0.0742
16.7 -0.07324
16.75 -0.07573
16.8 -0.07839
16.85 -0.07573
16.9 -0.07562
16.95 -0.07681
17 -0.07331
17.05 -0.06862
17.1 -0.06608
17.15 -0.05918
17.2 -0.05549
17.25 -0.05663
17.3 -0.05272
17.35 -0.05228
17.4 -0.05545
17.45 -0.05639
17.5 -0.05766
17.55 -0.0618
17.6 -0.05901
17.65 -0.05487
17.7 -0.05084
17.75 -0.04436
17.8 -0.04147
17.85 -0.04148
17.9 -0.04223
17.95 -0.04619
18 -0.05186
18.05 -0.05172
18.1 -0.04923
18.15 -0.04651
18.2 -0.04098
18.25 -0.03709
18.3 -0.03411
18.35 -0.03618
18.4 -0.03285
18.45 -0.0285
18.5 -0.02143
18.55 -0.01464
18.6 -0.00938
18.65 -0.00704
18.7 -0.00764
18.75 -0.01427
18.8 -0.02384
18.85 -0.02658
18.9 -0.03268
18.95 -0.0342
19 -0.03295
19.05 -0.03193
19.1 -0.02721
19.15 -0.02444
19.2 -0.02435
19.25 -0.01977
19.3 -0.01922
19.35 -0.01489
19.4 -0.01025
19.45 -0.00635
19.5 -0.00822
19.55 -0.01152
19.6 -0.01186
19.65 -0.01503
19.7 -0.01833
19.75 -0.01804
19.8 -0.01756
19.85 -0.01545
19.9 -0.01847
19.95 -0.02158
20 -0.02187
20.05 -0.02005
20.1 -0.02008
20.15 -0.02291
20.2 -0.02042
20.25 -0.01479
20.3 -0.00896
20.35 -0.00825
20.4 -0.0051
20.45 -0.00351
20.5 -0.00781
20.55 -0.01107
20.6 -0.0161
20.65 -0.01778
20.7 -0.02366
20.75 -0.02905
20.8 -0.02785
20.85 -0.02735
20.9 -0.02413
20.95 -0.01857
21 -0.01739
21.05 -0.01479
21.1 -0.01003
21.15 -0.0034
21.2 -0.00046
21.25 0.00217
21.3 -0.00164
21.35 -0.00858
21.4 -0.01377
21.45 -0.01425
21.5 -0.01129
21.55 -0.00695
21.6 -0.00935
21.65 -0.01188
21.7 -0.01035
21.75 -0.00565
21.8 -0.00671
21.85 -0.00489
21.9 -0.00251
21.95 0.00138
22 -0.00086
22.05 -0.00246
22.1 -0.00635
22.15 -0.01123
22.2 -0.01767
22.25 -0.02157
22.3 -0.02256
22.35 -0.02429
22.4 -0.02094
22.45 -0.0177
22.5 -0.01523
22.55 -0.00918
22.6 -0.00338
22.65 0.00145
22.7 -0.0004
22.75 0.00208
22.8 0.00541
22.85 0.00686
22.9 0.00275
22.95 -0.00101
23 -0.00691
23.05 -0.01487
23.1 -0.02139
23.15 -0.02285
23.2 -0.01979
23.25 -0.01396
23.3 -0.00931
23.35 -0.00998
23.4 -0.00887
23.45 -0.00431
23.5 -0.004
23.55 -0.00855
23.6 -0.01452
23.65 -0.02054
23.7 -0.02283
23.75 -0.02096
23.8 -0.0196
23.85 -0.02105
23.9 -0.01672
23.95 -0.01132
24 -0.00839
24.05 -0.00391
24.1 0.00264
24.15 0.00279
24.2 0.00343
24.25 0.00195
24.3 0.00114
24.35 -0.00241
24.4 -0.0091
24.45 -0.01106
24.5 -0.01622
24.55 -0.01998
24.6 -0.01745
24.65 -0.01263
24.7 -0.01272
24.75 -0.00981
24.8 -0.01056
24.85 -0.00639
24.9 -0.00826
24.95 -0.01352
25 -0.01438
25.05 -0.01063
25.1 -0.00734
25.15 -0.00936
25.2 -0.01199
25.25 -0.01018
25.3 -0.00673
25.35 -0.00285
25.4 0.00331
25.45 0.01012
25.5 0.00911
25.55 0.00354
25.6 -0.00346
25.65 -0.00844
25.7 -0.01444
25.75 -0.01571
25.8 -0.01352
25.85 -0.00934
25.9 -0.0104
25.95 -0.01334
26 -0.0133
26.05 -0.01568
26.1 -0.01884
26.15 -0.0218
26.2 -0.01823
26.25 -0.01702
26.3 -0.01975
26.35 -0.01895
26.4 -0.01373
26.45 -0.01227
26.5 -0.00688
26.55 0.00148
26.6 0.00252
26.65 0.00056
26.7 -0.00121
26.75 -0.00713
26.8 -0.00668
26.85 -0.0078
26.9 -0.01071
26.95 -0.01371
27 -0.01893
27.05 -0.01726
27.1 -0.01724
27.15 -0.01264
27.2 -0.01017
27.25 -0.00485
27.3 0.0004
27.35 0.00445
27.4 0.00462
27.45 0.00185
27.5 -0.00021
27.55 -0.00119
27.6 -0.00278
27.65 -0.00935
27.7 -0.01843
27.75 -0.02553
27.8 -0.03705
27.85 -0.05027
27.9 -0.06556
27.95 -0.07494
28 -0.08262
28.05 -0.08939
28.1 -0.10197
28.15 -0.11708
28.2 -0.13631
28.25 -0.15594
28.3 -0.17482
28.35 -0.19997
28.4 -0.22683
28.45 -0.25363
28.5 -0.28931
28.55 -0.32882
28.6 -0.37422
28.65 -0.42085
28.7 -0.46817
28.75 -0.51972
28.8 -0.57626
28.85 -0.64193
28.9 -0.71418
28.95 -0.78389
29 -0.85807
29.05 -0.93386
29.1 -1.00964
29.15 -1.09011
29.2 -1.17266
29.25 -1.24892
29.3 -1.32151
29.35 -1.38746
29.4 -1.44714
29.45 -1.50856
29.5 -1.56868
29.55 -1.62539
29.6 -1.67283
29.65 -1.71244
29.7 -1.73834
29.75 -1.75433
29.8 -1.75891
29.85 -1.74974
29.9 -1.72885
29.95 -1.70182
30 -1.66364
30.05 -1.61513
30.1 -1.55332
30.15 -1.4772
30.2 -1.39131
30.25 -1.30047
30.3 -1.19912
30.35 -1.09032
30.4 -0.97378
30.45 -0.85139
30.5 -0.7307
30.55 -0.61242
30.6 -0.49159
30.65 -0.36636
30.7 -0.24373
30.75 -0.12557
30.8 -0.01154
30.85 0.09956
30.9 0.20884
30.95 0.3195
31 0.42819
31.05 0.52905
31.1 0.62569
31.15 0.71756
31.2 0.80501
31.25 0.88352
31.3 0.95191
31.35 1.01785
31.4 1.07159
31.45 1.11723
31.5 1.15752
31.55 1.18918
31.6 1.22023
31.65 1.24741
31.7 1.27194
31.75 1.28883
31.8 1.3018
31.85 1.31032
31.9 1.31573
31.95 1.31887
32 1.32463
32.05 1.32893
32.1 1.33013
32.15 1.33468
32.2 1.34174
32.25 1.34627
32.3 1.34532
32.35 1.34275
32.4 1.34456
32.45 1.34468
32.5 1.34625
32.55 1.34444
32.6 1.33939
32.65 1.32952
32.7 1.31564
32.75 1.29977
32.8 1.28899
32.85 1.27389
32.9 1.25787
32.95 1.24294
33 1.22973
33.05 1.21822
33.1 1.20415
33.15 1.18877
33.2 1.16807
33.25 1.14708
33.3 1.12164
33.35 1.0969
33.4 1.07072
33.45 1.04016
33.5 1.00872
33.55 0.97325
33.6 0.93432
33.65 0.89667
33.7 0.86304
33.75 0.83325
33.8 0.79704
33.85 0.75742
33.9 0.71863
33.95 0.68129
34 0.64934
34.05 0.62154
34.1 0.59136
34.15 0.56323
34.2 0.53416
34.25 0.49928
34.3 0.46694
34.35 0.43059
34.4 0.39907
34.45 0.37247
34.5 0.34631
34.55 0.32208
34.6 0.29897
34.65 0.27733
34.7 0.25624
34.75 0.23166
34.8 0.20504
34.85 0.17504
34.9 0.14213
34.95 0.11366
35 0.09256
35.05 0.07058
35.1 0.0511
35.15 0.03069
35.2 0.01196
35.25 -0.0015
35.3 -0.01271
35.35 -0.03005
35.4 -0.04351
35.45 -0.05384
35.5 -0.06767
35.55 -0.0857
35.6 -0.0991
35.65 -0.11186
35.7 -0.12716
35.75 -0.13975
35.8 -0.14785
35.85 -0.15132
35.9 -0.15382
35.95 -0.15718
36 -0.15961
36.05 -0.16092
36.1 -0.16765
36.15 -0.17444
36.2 -0.18099
36.25 -0.18746
36.3 -0.19421
36.35 -0.19846
36.4 -0.20111
36.45 -0.2068
36.5 -0.21382
36.55 -0.22017
36.6 -0.2217
36.65 -0.22371
36.7 -0.22381
36.75 -0.22252
36.8 -0.21915
36.85 -0.22161
36.9 -0.22596
36.95 -0.22973
37 -0.2306
37.05 -0.22842
37.1 -0.22821
37.15 -0.22537
37.2 -0.22633
37.25 -0.22482
37.3 -0.22268
37.35 -0.21958
37.4 -0.21953
37.45 -0.2218
37.5 -0.22655
37.55 -0.22643
37.6 -0.22653
37.65 -0.22989
37.7 -0.23424
37.75 -0.23497
37.8 -0.23362
37.85 -0.23145
37.9 -0.22639
37.95 -0.21756
38 -0.21195
38.05 -0.20947
38.1 -0.20909
38.15 -0.2045
38.2 -0.19814
38.25 -0.18994
38.3 -0.18584
38.35 -0.18211
38.4 -0.17705
38.45 -0.17325
38.5 -0.1694
38.55 -0.16637
38.6 -0.16366
38.65 -0.1648
38.7 -0.16297
38.75 -0.16116
38.8 -0.16379
38.85 -0.16385
38.9 -0.16497
38.95 -0.16651
39 -0.1686
39.05 -0.17252
39.1 -0.17348
39.15 -0.17642
39.2 -0.17265
39.25 -0.1716
39.3 -0.17203
39.35 -0.16483
39.4 -0.15597
39.45 -0.15171
39.5 -0.15006
39.55 -0.1514
39.6 -0.14602
39.65 -0.14269
39.7 -0.13965
39.75 -0.13627
39.8 -0.13679
39.85 -0.1377
39.9 -0.13538
39.95 -0.13501
40 -0.13592
40.05 -0.13349
40.1 -0.13207
40.15 -0.12942
40.2 -0.12534
40.25 -0.11962
40.3 -0.11035
40.35 -0.10144
40.4 -0.09498
40.45 -0.08612
40.5 -0.07649
40.55 -0.07166
40.6 -0.06715
40.65 -0.06736
40.7 -0.0716
40.75 -0.0752
40.8 -0.07603
40.85 -0.07437
40.9 -0.07478
40.95 -0.07356
41 -0.06983
41.05 -0.07012
41.1 -0.07296
41.15 -0.07855
41.2 -0.08065
41.25 -0.08527
41.3 -0.0842
41.35 -0.07984
41.4 -0.07323
41.45 -0.07011
41.5 -0.06635
41.55 -0.06721
41.6 -0.07041
41.65 -0.07566
41.7 -0.07619
41.75 -0.0712
41.8 -0.06839
41.85 -0.06373
41.9 -0.05738
41.95 -0.0545
42 -0.05207
42.05 -0.05121
42.1 -0.04711
42.15 -0.04914
42.2 -0.05171
42.25 -0.05119
42.3 -0.0482
42.35 -0.045
42.4 -0.04452
42.45 -0.04851
42.5 -0.05421
42.55 -0.06028
42.6 -0.06616
42.65 -0.0683
42.7 -0.06683
42.75 -0.06668
42.8 -0.0644
42.85 -0.05939
42.9 -0.0517
42.95 -0.04879
43 -0.04587
43.05 -0.04642
43.1 -0.04262
43.15 -0.04079
43.2 -0.03805
43.25 -0.03201
43.3 -0.02475
43.35 -0.02594
43.4 -0.03129
43.45 -0.03332
43.5 -0.03045
43.55 -0.02625
43.6 -0.02534
43.65 -0.03001
43.7 -0.03165
43.75 -0.02918
43.8 -0.03149
43.85 -0.03387
43.9 -0.03301
43.95 -0.03442
44 -0.03627
44.05 -0.0349
44.1 -0.03062
44.15 -0.03098
44.2 -0.02957
44.25 -0.0335
44.3 -0.03263
44.35 -0.03317
44.4 -0.03261
44.45 -0.03048
44.5 -0.02791
44.55 -0.02878
44.6 -0.0309
44.65 -0.03654
44.7 -0.03583
44.75 -0.03066
44.8 -0.02887
44.85 -0.03085
44.9 -0.03472
44.95 -0.03653
45 -0.03769
45.05 -0.0338
45.1 -0.03339
45.15 -0.03387
45.2 -0.03395
45.25 -0.03116
45.3 -0.02435
45.35 -0.02307
45.4 -0.02197
45.45 -0.01959
45.5 -0.01424
45.55 -0.01254
45.6 -0.00775
45.65 -0.00641
45.7 -0.01088
45.75 -0.01384
45.8 -0.02083
45.85 -0.02568
45.9 -0.0297
45.95 -0.03175
46 -0.03224
46.05 -0.03127
46.1 -0.02732
46.15 -0.02377
46.2 -0.02177
46.25 -0.02161
46.3 -0.02367
46.35 -0.02707
46.4 -0.03284
46.45 -0.03284
46.5 -0.03064
46.55 -0.02468
46.6 -0.02394
46.65 -0.02272
46.7 -0.02391
46.75 -0.02564
46.8 -0.02729
46.85 -0.02491
46.9 -0.01797
46.95 -0.01466
47 -0.00997
47.05 -0.00538
47.1 -0.00164
47.15 -0.00343
47.2 -0.00372
47.25 -0.00531
47.3 -0.00312
47.35 -0.00164
47.4 -0.00226
47.45 -0.00734
47.5 -0.01199
47.55 -0.01252
47.6 -0.01448
47.65 -0.01442
47.7 -0.01662
47.75 -0.01822
47.8 -0.02269
47.85 -0.02409
47.9 -0.02476
47.95 -0.01926
48 -0.01096
48.05 -0.01012
48.1 -0.0052
48.15 0.00164
48.2 0.00851
48.25 0.01027
48.3 0.00817
48.35 0.00977
48.4 0.01357
48.45 0.00988
48.5 0.002
48.55 -0.0056
48.6 -0.01427
48.65 -0.018
48.7 -0.02188
48.75 -0.02547
48.8 -0.03034
48.85 -0.03537
48.9 -0.03917
48.95 -0.04191
49 -0.03628
49.05 -0.03433
49.1 -0.03267
49.15 -0.03127
49.2 -0.03227
49.25 -0.03455
49.3 -0.03106
49.35 -0.02489
49.4 -0.01924
49.45 -0.01523
49.5 -0.00904
49.55 0.00015
49.6 0.00906
49.65 0.01596
49.7 0.02169
49.75 0.02748
49.8 0.02411
49.85 0.02346
49.9 0.01905
49.95 0.0155
50 0.01276
50.05 0.01266
50.1 0.01214
50.15 0.01235
50.2 0.01217
50.25 0.01458
50.3 0.01718
50.35 0.01513
50.4 0.01586
50.45 0.01877
50.5 0.01529
50.55 0.01259
50.6 0.01349
50.65 0.00776
50.7 -0.0014
50.75 -0.00545
50.8 -0.0088
50.85 -0.01477
50.9 -0.01315
50.95 -0.01303
51 -0.01547
51.05 -0.0205
51.1 -0.02689
51.15 -0.0329
51.2 -0.02996
51.25 -0.02417
51.3 -0.0182
51.35 -0.01085
51.4 -0.00509
51.45 -0.00434
51.5 -0.00315
51.55 -0.00662
51.6 -0.00865
51.65 -0.01111
51.7 -0.00882
51.75 -0.00842
51.8 -0.00448
51.85 -0.00019
51.9 0.00659
51.95 0.01028
52 0.00946
52.05 0.01061
52.1 0.00845
52.15 0.00619
52.2 0.00528
52.25 0.00779
52.3 0.00429
52.35 0.00045
52.4 -0.00688
52.45 -0.01318
52.5 -0.01666
52.55 -0.02219
52.6 -0.0253
52.65 -0.02921
52.7 -0.02742
52.75 -0.02289
52.8 -0.01595
52.85 -0.01017
52.9 -0.00952
52.95 -0.00988
53 -0.0094
53.05 -0.00785
53.1 -0.00608
53.15 -0.00752
53.2 -0.00877
53.25 -0.01275
53.3 -0.01514
53.35 -0.01857
53.4 -0.0226
53.45 -0.02239
53.5 -0.02163
53.55 -0.0168
53.6 -0.01407
53.65 -0.01479
53.7 -0.01314
53.75 -0.00907
53.8 -0.00812
53.85 -0.00996
53.9 -0.01277
53.95 -0.01288
54 -0.01023
54.05 -0.00564
54.1 -0.00388
54.15 -0.00409
54.2 -0.00018
54.25 -0.00173
54.3 -0.00596
54.35 -0.01211
54.4 -0.0185
54.45 -0.01829
54.5 -0.01676
54.55 -0.0129
54.6 -0.00917
54.65 -0.00746
54.7 -0.00725
54.75 -0.00164
54.8 0.00557
54.85 0.00759
54.9 0.01136
54.95 0.01124
55 0.01509
55.05 0.02021
55.1 0.02652
55.15 0.03091
55.2 0.03429
55.25 0.0364
55.3 0.036
55.35 0.03596
55.4 0.02846
55.45 0.0249
55.5 0.01696
55.55 0.01427
55.6 0.00671
55.65 0.00124
55.7 -0.00188
55.75 -0.00477
55.8 -0.01083
55.85 -0.00969
55.9 -0.00987
55.95 -0.00718
56 -0.00186
56.05 -0.0017
56.1 0.00199
56.15 0.00333
56.2 0.00497
56.25 0.00665
56.3 0.00852
56.35 0.01045
56.4 0.0073
56.45 0.00144
56.5 -0.00508
56.55 -0.01023
56.6 -0.01112
56.65 -0.00934
56.7 -0.00395
56.75 0.00028
56.8 0.00285
56.85 0.00024
56.9 -0.00079
56.95 -0.00606
57 -0.00506
57.05 -0.00302
57.1 0.00014
57.15 0.00226
57.2 0.00323
57.25 0.00292
57.3 0.00339
57.35 0.00048
57.4 0.00319
57.45 0.00245
57.5 0.00296
57.55 -0.00105
57.6 -0.0054
57.65 -0.01041
57.7 -0.01706
57.75 -0.01761
57.8 -0.01629
57.85 -0.0115
57.9 -0.0114
57.95 -0.0142
58 -0.0192
58.05 -0.02225
58.1 -0.02071
58.15 -0.02241
58.2 -0.02463
58.25 -0.02531
58.3 -0.02618
58.35 -0.02594
58.4 -0.02672
58.45 -0.02232
58.5 -0.01432
58.55 -0.00723
58.6 -0.00555
58.65 -0.00793
58.7 -0.00497
58.75 -0.00002
58.8 0.00164
58.85 0.00081
58.9 0.00383
58.95 0.00484
59 0.00402
59.05 0.00014
59.1 -0.00574
59.15 -0.00423
59.2 -0.00359
59.25 -0.00648
59.3 -0.0063
59.35 -0.00711
59.4 -0.00482
59.45 -0.00099
59.5 -0.00004
59.55 0.00044
59.6 -0.00059
59.65 -0.00113
59.7 -0.00405
59.75 -0.00166
59.8 -0.00185
59.85 -0.00118
59.9 -0.00121
59.95 -0.00307
60 -0.00622
60.05 -0.00718
60.1 -0.00956
60.15 -0.01228
60.2 -0.01699
60.25 -0.02112
60.3 -0.01902
60.35 -0.01499
60.4 -0.00711
60.45 -0.00081
60.5 0.0052
60.55 0.01368
60.6 0.02064
60.65 0.02504
60.7 0.02525
60.75 0.02142
60.8 0.01868
60.85 0.0155
60.9 0.01674
60.95 0.01441
61 0.00807
61.05 0.0035
61.1 0.00357
61.15 0.00027
61.2 0.00256
61.25 0.00759
61.3 0.01018
61.35 0.01094
61.4 0.01539
61.45 0.02169
61.5 0.02552
61.55 0.02898
61.6 0.03048
61.65 0.03105
61.7 0.02737
61.75 0.02419
61.8 0.02098
61.85 0.01827
61.9 0.01816
61.95 0.01297
62 0.0079
62.05 0.00345
62.1 0.00063
62.15 0.00264
62.2 0.00793
62.25 0.01054
62.3 0.01532
62.35 0.01853
62.4 0.01971
62.45 0.01486
62.5 0.00656
62.55 -0.00118
62.6 -0.00253
62.65 -0.00196
62.7 0.00248
62.75 0.00028
62.8 -0.00491
62.85 -0.01177
62.9 -0.01293
62.95 -0.01129
63 -0.01176
63.05 -0.0072
63.1 -0.0023
63.15 -0.00116
63.2 0.00389
63.25 0.0048
63.3 0.00295
63.35 0.00425
63.4 0.00557
63.45 0.00295
63.5 0.00088
63.55 -0.00038
63.6 0.0021
63.65 0.00172
63.7 0.00245
63.75 -0.00141
63.8 -0.00629
63.85 -0.013
63.9 -0.01916
63.95 -0.01755
64 -0.01308
64.05 -0.01231
64.1 -0.0146
64.15 -0.01212
64.2 -0.00744
64.25 -0.00747
64.3 -0.00328
64.35 0.00149
64.4 0.00858
64.45 0.01487
64.5 0.01981
64.55 0.01803
64.6 0.01744
64.65 0.01607
64.7 0.0146
64.75 0.01149
64.8 0.00748
64.85 0.00856
64.9 0.00805
64.95 0.00288
65 -0.00051
65.05 0.00022
65.1 0.00387
65.15 0.00937
65.2 0.01519
65.25 0.02153
65.3 0.02213
65.35 0.02024
65.4 0.01934
65.45 0.01561
65.5 0.0098
65.55 0.00095
65.6 -0.0089
65.65 -0.01727
65.7 -0.02167
65.75 -0.02441
65.8 -0.02077
65.85 -0.01456
65.9 -0.01268
65.95 -0.01201
66 -0.01499
66.05 -0.01339
66.1 -0.01591
66.15 -0.01724
66.2 -0.01221
66.25 -0.0049
66.3 -0.00209
66.35 -0.00084
66.4 0.00142
66.45 0.00352
66.5 0.00601
66.55 0.00511
66.6 0.00299
66.65 0.0015
66.7 0.00312
66.75 0.005
66.8 0.00322
66.85 -0.00001
66.9 -0.00363
66.95 -0.00357
67 -0.00505
67.05 -0.00532
67.1 -0.001
67.15 -0.00209
67.2 -0.0011
67.25 -0.00351
67.3 -0.00063
67.35 0.00221
67.4 0.00772
67.45 0.00682
67.5 0.00414
67.55 0.00231
67.6 0.00198
67.65 0.00141
67.7 0.00181
67.75 0.00248
67.8 0.00657
67.85 0.00864
67.9 0.01115
67.95 0.00986
68 0.00894
68.05 0.01163
68.1 0.01258
68.15 0.00892
68.2 0.00101
68.25 -0.00115
68.3 -0.00533
68.35 -0.00314
68.4 -0.00058
68.45 0.00296
68.5 0.00645
68.55 0.00967
68.6 0.01123
68.65 0.01098
68.7 0.00849
68.75 0.0086
68.8 0.00974
68.85 0.01051
68.9 0.00975
68.95 0.00594
69 0.0031
69.05 -0.00067
69.1 -0.00034
69.15 -0.0015
69.2 -0.00122
69.25 0.00004
69.3 0.00286
69.35 0.00846
69.4 0.01004
69.45 0.00891
69.5 0.01012
69.55 0.00668
69.6 0.00174
69.65 -0.00088
69.7 -0.00562
69.75 -0.0046
69.8 -0.00445
69.85 -0.00553
69.9 -0.0053
69.95 -0.00169
70 -0.00228
70.05 0.00117
70.1 0.00115
70.15 0.00036
70.2 -0.00471
70.25 -0.00475
70.3 -0.00136
70.35 0.00365
70.4 0.00604
70.45 0.00598
70.5 0.00567
70.55 0.0024
70.6 0.00081
70.65 -0.00069
70.7 -0.00597
70.75 -0.01338
70.8 -0.01885
70.85 -0.01688
70.9 -0.0191
70.95 -0.01875
71 -0.02083
71.05 -0.0169
71.1 -0.01485
71.15 -0.01598
71.2 -0.01633
71.25 -0.01851
71.3 -0.02239
71.35 -0.02684
71.4 -0.02522
71.45 -0.02051
71.5 -0.01338
71.55 -0.00489
71.6 -0.00375
71.65 -0.00108
71.7 0.00301
71.75 0.00619
71.8 0.01146
71.85 0.0182
71.9 0.01802
71.95 0.01341
72 0.00576
72.05 0.00025
72.1 -0.00232
72.15 -0.00521
72.2 -0.0062
72.25 -0.00297
72.3 -0.00483
72.35 -0.00712
72.4 -0.0126
72.45 -0.0164
72.5 -0.01668
72.55 -0.01286
72.6 -0.00692
72.65 0.00017
72.7 0.00055
72.75 -0.00263
72.8 -0.00309
72.85 -0.00199
72.9 -0.00507
72.95 -0.00337
73 0.00114
73.05 0.00185
73.1 0.00662
73.15 0.00792
73.2 0.00399
73.25 0.00084
73.3 0.00335
73.35 0.00445
73.4 0.00471
73.45 0.00494
73.5 0.00565
73.55 0.00727
73.6 0.01097
73.65 0.01561
73.7 0.02021
73.75 0.02471
73.8 0.02897
73.85 0.03201
73.9 0.03468
73.95 0.03484
74 0.03593
74.05 0.0324
74.1 0.03025
74.15 0.02778
74.2 0.02273
74.25 0.01492
74.3 0.00751
74.35 0.00004
74.4 -0.00442
74.45 -0.01113
74.5 -0.01085
74.55 -0.01345
74.6 -0.01172
74.65 -0.01393
74.7 -0.01799
74.75 -0.01836
74.8 -0.02039
74.85 -0.02016
74.9 -0.01641
74.95 -0.01657
75 -0.01533
75.05 -0.01721
75.1 -0.01415
75.15 -0.00805
75.2 -0.00453
75.25 0.0022
75.3 0.00282
75.35 0.00435
75.4 0.00079
75.45 -0.00001
75.5 0.0008
75.55 -0.0019
75.6 -0.0021
75.65 0.0007
75.7 -0.00093
75.75 -0.00464
75.8 -0.00935
75.85 -0.01493
75.9 -0.0215
75.95 -0.02466
76 -0.02209
76.05 -0.01602
76.1 -0.00751
76.15 -0.00033
76.2 0.00184
76.25 0.00724
76.3 0.00892
76.35 0.01295
76.4 0.01678
76.45 0.0133
76.5 0.01319
76.55 0.00743
76.6 0.00092
76.65 0.00093
76.7 0.00015
76.75 -0.00466
76.8 -0.00526
76.85 -0.00743
76.9 -0.00777
76.95 -0.00733
77 -0.00524
77.05 -0.00794
77.1 -0.00688
77.15 -0.00819
77.2 -0.00895
77.25 -0.00973
77.3 -0.01371
77.35 -0.01239
77.4 -0.01298
77.45 -0.01171
77.5 -0.00612
77.55 -0.00153
77.6 -0.00298
77.65 -0.00734
77.7 -0.01003
77.75 -0.01294
77.8 -0.01677
77.85 -0.01775
77.9 -0.01335
77.95 -0.00494
78 0.00444
78.05 0.01202
78.1 0.01127
78.15 0.00961
78.2 0.00432
78.25 -0.00047
78.3 -0.00327
78.35 -0.00104
78.4 0.00378
78.45 0.0023
78.5 0.00126
78.55 0.00034
78.6 -0.00081
78.65 -0.00519
78.7 -0.01163
78.75 -0.01923
78.8 -0.02682
78.85 -0.03253
78.9 -0.03468
78.95 -0.03675
79 -0.03382
79.05 -0.02866
79.1 -0.02406
79.15 -0.02219
79.2 -0.01509
79.25 -0.01232
79.3 -0.0071
79.35 -0.00104
79.4 0.00537
79.45 0.00684
79.5 0.01006
79.55 0.0087
79.6 0.00927
79.65 0.00862
79.7 0.00927
79.75 0.01267
79.8 0.01242
79.85 0.01582
79.9 0.01596
79.95 0.01681
80 0.01224
80.05 0.00732
80.1 0.00592
80.15 0.00715
80.2 0.00543
80.25 0.00396
80.3 0.00625
80.35 0.00696
80.4 0.00809
80.45 0.0096
80.5 0.01364
80.55 0.01251
80.6 0.01473
80.65 0.01128
80.7 0.01057
80.75 0.00614
80.8 0.00349
80.85 0.00005
80.9 -0.00107
80.95 -0.00249
81 -0.00263
81.05 0.00105
81.1 0.00401
81.15 0.00205
81.2 -0.00382
81.25 -0.00848
81.3 -0.01351
81.35 -0.01515
81.4 -0.01953
81.45 -0.02246
81.5 -0.01896
81.55 -0.01527
81.6 -0.01179
81.65 -0.00833
81.7 -0.00788
81.75 -0.00517
81.8 -0.00052
81.85 -0.0004
81.9 0.00046
81.95 0.00081
82 -0.00223
82.05 -0.00261
82.1 -0.00423
82.15 -0.00057
82.2 0.00586
82.25 0.01123
82.3 0.01022
82.35 0.01056
82.4 0.01341
82.45 0.01355
82.5 0.01287
82.55 0.0124
82.6 0.0085
82.65 0.00968
82.7 0.01128
82.75 0.00986
82.8 0.00582
82.85 -0.00121
82.9 -0.0058
82.95 -0.00703
83 -0.00757
83.05 -0.00344
83.1 -0.00135
83.15 0.00471
83.2 0.00767
83.25 0.00863
83.3 0.00882
83.35 0.01214
83.4 0.01125
83.45 0.01168
83.5 0.01488
83.55 0.01335
83.6 0.01305
83.65 0.01556
83.7 0.01136
83.75 0.00593
83.8 0.00039
83.85 -0.00422
83.9 -0.01061
83.95 -0.01389
84 -0.01451
84.05 -0.01264
84.1 -0.01286
84.15 -0.00827
84.2 -0.00106
84.25 0.00496
84.3 0.00429
84.35 0.00264
84.4 0.00036
84.45 -0.00457
84.5 -0.00837
84.55 -0.012
84.6 -0.01169
84.65 -0.01215
84.7 -0.00745
84.75 -0.00749
84.8 -0.00449
84.85 0.00037
84.9 0.00071
84.95 -0.0027
85 -0.00407
85.05 -0.00302
85.1 -0.00233
85.15 -0.00529
85.2 -0.00825
85.25 -0.00928
85.3 -0.0072
85.35 -0.00514
85.4 -0.00704
85.45 -0.01158
85.5 -0.01555
85.55 -0.01942
85.6 -0.01645
85.65 -0.01741
85.7 -0.02058
85.75 -0.02002
85.8 -0.01939
85.85 -0.01358
85.9 -0.00864
85.95 -0.00674
86 -0.00447
86.05 0.00078
86.1 0.00835
86.15 0.01011
86.2 0.00668
86.25 0.00498
86.3 0.00355
86.35 0.00204
86.4 0.00251
86.45 0.00334
86.5 0.00488
86.55 0.0061
86.6 0.01095
86.65 0.01223
86.7 0.00909
86.75 0.00396
86.8 -0.00401
86.85 -0.00407
86.9 -0.00198
86.95 0.00288
87 0.0075
87.05 0.00617
87.1 0.00489
87.15 0.00258
87.2 0.00085
87.25 -0.00126
87.3 -0.00595
87.35 -0.00446
87.4 -0.00701
87.45 -0.00659
87.5 -0.00485
87.55 -0.0015
87.6 -0.00083
87.65 -0.00336
87.7 -0.00648
87.75 -0.01026
87.8 -0.01083
87.85 -0.00735
87.9 -0.00481
87.95 -0.00591
88 -0.00792
88.05 -0.00508
88.1 0.00098
88.15 0.00169
88.2 0.00268
88.25 0.00734
88.3 0.00792
88.35 0.01171
88.4 0.01675
88.45 0.0144
88.5 0.01516
88.55 0.01124
88.6 0.00985
88.65 0.01095
88.7 0.0129
88.75 0.00877
88.8 0.00304
88.85 0.00305
88.9 -0.00074
88.95 0.00015
89 0.00468
89.05 0.00806
89.1 0.00995
89.15 0.00657
89.2 0.00821
89.25 0.00435
89.3 0.00015
89.35 -0.00448
89.4 -0.00397
89.45 -0.00716
89.5 -0.00523
89.55 -0.00757
89.6 -0.00895
89.65 -0.0125
89.7 -0.01641
89.75 -0.01439
89.8 -0.01625
89.85 -0.01803
89.9 -0.01644
89.95 -0.01854
90 -0.01658
90.05 -0.01384
90.1 -0.0083
90.15 -0.00534
90.2 0.00146
90.25 0.00953
90.3 0.01827
90.35 0.02199
90.4 0.02503
90.45 0.02556
90.5 0.02029
90.55 0.01854
90.6 0.01691
90.65 0.01847
90.7 0.02113
90.75 0.02269
90.8 0.01944
90.85 0.01959
90.9 0.01664
90.95 0.0152
91 0.01497
91.05 0.01606
91.1 0.01962
91.15 0.01638
91.2 0.01183
91.25 0.00485
91.3 -0.00194
91.35 -0.00248
91.4 -0.00607
91.45 -0.00499
91.5 -0.00109
91.55 0.00172
91.6 0.00391
91.65 0.00266
91.7 0.00486
91.75 0.00302
91.8 0.00073
91.85 -0.00229
91.9 -0.00479
91.95 -0.01047
92 -0.01047
92.05 -0.01035
92.1 -0.00752
92.15 -0.00938
92.2 -0.00728
92.25 -0.00638
92.3 -0.00742
92.35 -0.007
92.4 -0.00169
92.45 0.00027
92.5 0.00493
92.55 0.00785
92.6 0.00619
92.65 0.00673
92.7 0.00308
92.75 0.00313
92.8 -0.00041
92.85 -0.00624
92.9 -0.01185
92.95 -0.01025
93 -0.01046
93.05 -0.01378
93.1 -0.01801
93.15 -0.01739
93.2 -0.01876
93.25 -0.01429
93.3 -0.01379
93.35 -0.01159
93.4 -0.00663
93.45 -0.00375
93.5 -0.00449
93.55 -0.00293
93.6 -0.00428
93.65 -0.00482
93.7 -0.00549
93.75 -0.00327
93.8 -0.00403
93.85 -0.00152
93.9 -0.00166
93.95 -0.00185
94 -0.00146
94.05 -0.00416
94.1 -0.00089
94.15 0.00046
94.2 -0.00051
94.25 -0.0051
94.3 -0.00303
94.35 -0.00451
94.4 -0.00164
94.45 0.00224
94.5 0.00355
94.55 0.00662
94.6 0.0057
94.65 0.00594
94.7 0.00435
94.75 0.00675
94.8 0.00849
94.85 0.00458
94.9 0.00488
94.95 0.00459
95 0.00794
95.05 0.0118
95.1 0.0148
95.15 0.01151
95.2 0.01171
95.25 0.00991
95.3 0.00543
95.35 0.00443
95.4 0.00157
95.45 -0.00246
95.5 -0.00541
95.55 -0.00763
95.6 -0.00642
95.65 -0.0042
95.7 -0.00076
95.75 -0.00079
95.8 -0.00257
95.85 0.00099
95.9 0.00348
95.95 0.00814
96 0.00946
96.05 0.01258
96.1 0.01464
96.15 0.01553
96.2 0.01317
96.25 0.00917
96.3 0.00841
96.35 0.00504
96.4 -0.00143
96.45 -0.00668
96.5 -0.00823
96.55 -0.00471
96.6 0.00199
96.65 0.00272
96.7 0.00525
96.75 0.00767
96.8 0.01232
96.85 0.01723
96.9 0.01983
96.95 0.02094
97 0.02102
97.05 0.01969
97.1 0.01443
97.15 0.01284
97.2 0.01464
97.25 0.01754
97.3 0.01882
97.35 0.01997
97.4 0.01777
97.45 0.00967
97.5 -0.0005
97.55 -0.00735
97.6 -0.01175
97.65 -0.01385
97.7 -0.01
97.75 -0.00487
97.8 0.00083
97.85 0.00805
97.9 0.01478
97.95 0.01631
98 0.01875
98.05 0.02102
98.1 0.0244
98.15 0.02427
98.2 0.01983
98.25 0.01216
98.3 0.00137
98.35 -0.00742
98.4 -0.01222
98.45 -0.01172
98.5 -0.01054
98.55 -0.00811
98.6 -0.00996
98.65 -0.00868
98.7 -0.01086
98.75 -0.0086
98.8 -0.00637
98.85 -0.00206
98.9 -0.00363
98.95 -0.00409
99 -0.00559
99.05 -0.00853
99.1 -0.00656
99.15 -0.0076
99.2 -0.00677
99.25 -0.00362
99.3 -0.00426
99.35 -0.00718
99.4 -0.01222
99.45 -0.015
99.5 -0.01429
99.55 -0.01754
99.6 -0.01577
99.65 -0.01197
99.7 -0.01
99.75 -0.00575
99.8 -0.0062
99.85 -0.00734
99.9 -0.01063
99.95 -0.01621
