0 0
0.05 0.00175
0.1 0.00678
0.15 0.01346
0.2 0.02208
0.25 0.03361
0.3 0.04514
0.35 0.056
0.4 0.0641
0.45 0.06391
0.5 0.06235
0.55 0.05979
0.6 0.05427
0.65 0.04618
0.7 0.03767
0.75 0.03244
0.8 0.03295
0.85 0.0355
0.9 0.04004
0.95 0.04069
1 0.03855
1.05 0.03744
1.1 0.03674
1.15 0.03366
1.2 0.03565
1.25 0.03381
1.3 0.03
1.35 0.02422
1.4 0.01742
1.45 0.01872
1.5 0.02594
1.55 0.03452
1.6 0.03792
1.65 0.04435
1.7 0.04588
1.75 0.0489
1.8 0.05127
1.85 0.04956
1.9 0.04625
1.95 0.03953
2 0.03462
2.05 0.03094
2.1 0.03311
2.15 0.03324
2.2 0.03514
2.25 0.03323
2.3 0.03555
2.35 0.03415
2.4 0.03432
2.45 0.03342
2.5 0.0297
2.55 0.02384
2.6 0.02004
2.65 0.01398
2.7 0.01204
2.75 0.01501
2.8 0.0209
2.85 0.02699
2.9 0.02798
2.95 0.0271
3 0.02272
3.05 0.01602
3.1 0.01136
3.15 0.01413
3.2 0.01921
3.25 0.02286
3.3 0.02133
3.35 0.02161
3.4 0.02278
3.45 0.02803
3.5 0.02838
3.55 0.02973
3.6 0.02724
3.65 0.02145
3.7 0.01571
3.75 0.01589
3.8 0.01673
3.85 0.01351
3.9 0.0133
3.95 0.01131
4 0.01464
4.05 0.01717
4.1 0.0209
4.15 0.02072
4.2 0.0194
4.25 0.02098
4.3 0.02094
4.35 0.02068
4.4 0.02179
4.45 0.01608
4.5 0.01385
4.55 0.00846
4.6 -0.00258
4.65 -0.01851
4.7 -0.03546
4.75 -0.04813
4.8 -0.06019
4.85 -0.07067
4.9 -0.09086
4.95 -0.11755
5 -0.14263
5.05 -0.16683
5.1 -0.19941
5.15 -0.23387
5.2 -0.27567
5.25 -0.31841
5.3 -0.36361
5.35 -0.4111
5.4 -0.4631
5.45 -0.51039
5.5 -0.55865
5.55 -0.60145
5.6 -0.64298
5.65 -0.68671
5.7 -0.72606
5.75 -0.75765
5.8 -0.78605
5.85 -0.80052
5.9 -0.8108
5.95 -0.81347
6 -0.8013
6.05 -0.78016
6.1 -0.74519
6.15 -0.6982
6.2 -0.64386
6.25 -0.58826
6.3 -0.52675
6.35 -0.46048
6.4 -0.39068
6.45 -0.31725
6.5 -0.24189
6.55 -0.16688
6.6 -0.08779
6.65 -0.00573
6.7 0.07818
6.75 0.15609
6.8 0.22476
6.85 0.29335
6.9 0.35656
6.95 0.41803
7 0.46931
7.05 0.51739
7.1 0.55526
7.15 0.58458
7.2 0.60856
7.25 0.62989
7.3 0.65104
7.35 0.66705
7.4 0.68093
7.45 0.6934
7.5 0.69662
7.55 0.69838
7.6 0.69733
7.65 0.68669
7.7 0.66965
7.75 0.6553
7.8 0.6331
7.85 0.61376
7.9 0.59241
7.95 0.57272
8 0.54982
8.05 0.52811
8.1 0.50143
8.15 0.475
8.2 0.45075
8.25 0.42541
8.3 0.39734
8.35 0.36699
8.4 0.33908
8.45 0.30815
8.5 0.28387
8.55 0.26189
8.6 0.24429
8.65 0.22233
8.7 0.20384
8.75 0.18247
8.8 0.16199
8.85 0.14477
8.9 0.12717
8.95 0.11071
9 0.10328
9.05 0.09309
9.1 0.08684
9.15 0.08746
9.2 0.08839
9.25 0.08968
9.3 0.08765
9.35 0.0857
9.4 0.07944
9.45 0.07723
9.5 0.07292
9.55 0.07301
9.6 0.07493
9.65 0.07618
9.7 0.07503
9.75 0.0753
9.8 0.07734
9.85 0.07638
9.9 0.07836
9.95 0.07696
10 0.07184
10.05 0.06555
10.1 0.0582
10.15 0.05614
10.2 0.05202
10.25 0.05118
10.3 0.05176
10.35 0.05095
10.4 0.05567
10.45 0.05954
10.5 0.06296
10.55 0.06539
10.6 0.06969
10.65 0.0658
10.7 0.05857
10.75 0.05152
10.8 0.04405
10.85 0.03555
10.9 0.03123
10.95 0.02486
11 0.01994
11.05 0.01357
11.1 0.0077
11.15 0.00881
11.2 0.01317
11.25 0.01647
11.3 0.0202
11.35 0.0218
11.4 0.02106
11.45 0.01995
11.5 0.01621
11.55 0.00928
11.6 -0.00047
11.65 -0.0109
11.7 -0.0232
11.75 -0.03547
11.8 -0.04115
11.85 -0.04797
11.9 -0.05186
11.95 -0.04834
12 -0.04653
12.05 -0.03995
12.1 -0.03702
12.15 -0.03787
12.2 -0.03589
12.25 -0.03317
12.3 -0.03058
12.35 -0.0294
12.4 -0.03345
12.45 -0.03758
12.5 -0.04056
12.55 -0.04455
12.6 -0.04629
12.65 -0.04602
12.7 -0.04985
12.75 -0.05557
12.8 -0.05507
12.85 -0.05882
12.9 -0.05936
12.95 -0.061
13 -0.06261
13.05 -0.06405
13.1 -0.06417
13.15 -0.06428
13.2 -0.06504
13.25 -0.06567
13.3 -0.06137
13.35 -0.05826
13.4 -0.05694
13.45 -0.05155
13.5 -0.04985
13.55 -0.0436
13.6 -0.03877
13.65 -0.04011
13.7 -0.04017
13.75 -0.0375
13.8 -0.03792
13.85 -0.04125
13.9 -0.04537
13.95 -0.04688
14 -0.04804
14.05 -0.05194
14.1 -0.05658
14.15 -0.05909
14.2 -0.05991
14.25 -0.05436
14.3 -0.04788
14.35 -0.0384
14.4 -0.03587
14.45 -0.03813
14.5 -0.03471
14.55 -0.03204
14.6 -0.02596
14.65 -0.02465
14.7 -0.02256
14.75 -0.02496
14.8 -0.02565
14.85 -0.02758
14.9 -0.02932
14.95 -0.0336
15 -0.03432
15.05 -0.03688
15.1 -0.03875
15.15 -0.0416
15.2 -0.04336
15.25 -0.0388
15.3 -0.03509
15.35 -0.03503
15.4 -0.03109
15.45 -0.03131
15.5 -0.03062
15.55 -0.03374
15.6 -0.03892
15.65 -0.03647
15.7 -0.03672
15.75 -0.03303
15.8 -0.02794
15.85 -0.02173
15.9 -0.0225
15.95 -0.02388
16 -0.02911
16.05 -0.03486
16.1 -0.0336
16.15 -0.03365
16.2 -0.03716
16.25 -0.04079
16.3 -0.04363
16.35 -0.03867
16.4 -0.03594
16.45 -0.03052
16.5 -0.02521
16.55 -0.02325
16.6 -0.02338
16.65 -0.02303
16.7 -0.02355
16.75 -0.02507
16.8 -0.02678
16.85 -0.02244
16.9 -0.02066
16.95 -0.02328
17 -0.02019
17.05 -0.01441
17.1 -0.01144
17.15 -0.01355
17.2 -0.01338
17.25 -0.01155
17.3 -0.00652
17.35 -0.00826
17.4 -0.01404
17.45 -0.01948
17.5 -0.02365
17.55 -0.02155
17.6 -0.01601
17.65 -0.011
17.7 -0.00293
17.75 0.00174
17.8 0.00753
17.85 0.01301
17.9 0.01006
17.95 0.00811
18 0.00653
18.05 0.00222
18.1 -0.0043
18.15 -0.00745
18.2 -0.00597
18.25 -0.00989
18.3 -0.01152
18.35 -0.01436
18.4 -0.0144
18.45 -0.01394
18.5 -0.01337
18.55 -0.00898
18.6 -0.00565
18.65 -0.00248
18.7 -0.00418
18.75 -0.00805
18.8 -0.00734
18.85 -0.00395
18.9 0.00072
18.95 -0.00108
19 -0.00249
19.05 0
19.1 0.00128
19.15 0.00428
19.2 0.00081
19.25 -0.00476
19.3 -0.01171
19.35 -0.01979
19.4 -0.02093
19.45 -0.02062
19.5 -0.02082
19.55 -0.01567
19.6 -0.00785
19.65 -0.00049
19.7 0.00165
19.75 0.00155
19.8 -0.00379
19.85 -0.0121
19.9 -0.01398
19.95 -0.01823
20 -0.02284
20.05 -0.02634
20.1 -0.02722
20.15 -0.02671
20.2 -0.02341
20.25 -0.01526
20.3 -0.0114
20.35 -0.01054
20.4 -0.01047
20.45 -0.01002
20.5 -0.00895
20.55 -0.00329
20.6 -0.00359
20.65 -0.00532
20.7 -0.00233
20.75 -0.00173
20.8 0.00262
20.85 0.00104
20.9 -0.00449
20.95 -0.0064
21 -0.00613
21.05 -0.00907
21.1 -0.01178
21.15 -0.01553
21.2 -0.01813
21.25 -0.02103
21.3 -0.01699
21.35 -0.00848
21.4 0.00034
21.45 0.00881
21.5 0.01035
21.55 0.01235
21.6 0.01376
21.65 0.01322
21.7 0.00743
21.75 -0.00146
21.8 -0.00891
21.85 -0.01677
21.9 -0.02007
21.95 -0.01934
22 -0.02199
22.05 -0.01917
22.1 -0.01215
22.15 -0.00559
22.2 0.00186
22.25 0.01017
22.3 0.01159
22.35 0.01118
22.4 0.00879
22.45 0.00595
22.5 -0.00063
22.55 -0.00185
22.6 -0.00597
22.65 -0.01106
22.7 -0.00932
22.75 -0.01227
22.8 -0.00849
22.85 -0.00261
22.9 -0.00087
22.95 0.001
23 0.00646
23.05 0.00544
23.1 0.00063
23.15 0.00033
23.2 0.00397
23.25 0.00529
23.3 0.00134
23.35 0.00001
23.4 -0.00421
23.45 -0.0063
23.5 -0.00559
23.55 -0.00439
23.6 -0.00138
23.65 0.00372
23.7 0.00436
23.75 0.00894
23.8 0.0122
23.85 0.00934
23.9 0.00992
23.95 0.00528
24 -0.00256
24.05 -0.00348
24.1 -0.00425
24.15 -0.00423
24.2 -0.00303
24.25 -0.00401
24.3 -0.00247
24.35 -0.00137
24.4 -0.00165
24.45 0.00196
24.5 0.00227
24.55 0.00651
24.6 0.00545
24.65 0.00808
24.7 0.01356
24.75 0.01763
24.8 0.02257
24.85 0.02299
24.9 0.02455
24.95 0.02486
25 0.01817
25.05 0.01074
25.1 0.00774
25.15 0.00097
25.2 -0.00645
25.25 -0.00771
25.3 -0.01126
25.35 -0.01403
25.4 -0.0166
25.45 -0.0178
25.5 -0.01733
25.55 -0.01424
25.6 -0.01045
25.65 -0.00278
25.7 0.00545
25.75 0.01275
25.8 0.01496
25.85 0.01485
25.9 0.01217
25.95 0.00791
26 0.00859
26.05 0.00448
26.1 -0.00082
26.15 -0.00537
26.2 -0.00715
26.25 -0.0111
26.3 -0.01427
26.35 -0.0153
26.4 -0.01486
26.45 -0.01027
26.5 -0.00536
26.55 -0.00297
26.6 -0.00069
26.65 -0.00298
26.7 -0.00334
26.75 -0.00077
26.8 0.00432
26.85 0.00761
26.9 0.00533
26.95 -0.00052
27 -0.00316
27.05 -0.00582
27.1 -0.00494
27.15 -0.00894
27.2 -0.01299
27.25 -0.01313
27.3 -0.01033
27.35 -0.00845
27.4 -0.01235
27.45 -0.01484
27.5 -0.01879
27.55 -0.01927
27.6 -0.02414
27.65 -0.03068
27.7 -0.04149
27.75 -0.04607
27.8 -0.05026
27.85 -0.0579
27.9 -0.06843
27.95 -0.08082
28 -0.09345
28.05 -0.10951
28.1 -0.12749
28.15 -0.14896
28.2 -0.17093
28.25 -0.19526
28.3 -0.22703
28.35 -0.26731
28.4 -0.31038
28.45 -0.35335
28.5 -0.40069
28.55 -0.45705
28.6 -0.51742
28.65 -0.58026
28.7 -0.654
28.75 -0.73528
28.8 -0.82505
28.85 -0.91415
28.9 -1.00449
28.95 -1.09504
29 -1.1899
29.05 -1.2863
29.1 -1.38657
29.15 -1.48342
29.2 -1.5825
29.25 -1.67851
29.3 -1.77144
29.35 -1.85856
29.4 -1.94669
29.45 -2.02899
29.5 -2.10424
29.55 -2.16782
29.6 -2.2158
29.65 -2.24913
29.7 -2.27399
29.75 -2.28488
29.8 -2.27982
29.85 -2.26005
29.9 -2.23067
29.95 -2.18723
30 -2.13656
30.05 -2.07664
30.1 -2.00596
30.15 -1.92285
30.2 -1.82097
30.25 -1.7032
30.3 -1.57499
30.35 -1.44206
30.4 -1.30466
30.45 -1.15868
30.5 -1.00994
30.55 -0.85565
30.6 -0.69464
30.65 -0.53311
30.7 -0.36551
30.75 -0.20103
30.8 -0.03675
30.85 0.12526
30.9 0.28445
30.95 0.4343
31 0.57515
31.05 0.71295
31.1 0.84242
31.15 0.96399
31.2 1.07448
31.25 1.17274
31.3 1.26213
31.35 1.34491
31.4 1.42478
31.45 1.49744
31.5 1.5606
31.55 1.61871
31.6 1.67222
31.65 1.71628
31.7 1.7521
31.75 1.78765
31.8 1.82266
31.85 1.85029
31.9 1.86944
31.95 1.88112
32 1.88967
32.05 1.89374
32.1 1.89746
32.15 1.90055
32.2 1.90232
32.25 1.89552
32.3 1.88356
32.35 1.87533
32.4 1.86005
32.45 1.84377
32.5 1.82925
32.55 1.81583
32.6 1.79566
32.65 1.77651
32.7 1.75809
32.75 1.73334
32.8 1.71193
32.85 1.68552
32.9 1.65679
32.95 1.62943
33 1.59795
33.05 1.56902
33.1 1.53626
33.15 1.50487
33.2 1.46968
33.25 1.4308
33.3 1.39768
33.35 1.36588
33.4 1.33486
33.45 1.29901
33.5 1.26035
33.55 1.21849
33.6 1.17312
33.65 1.12493
33.7 1.08206
33.75 1.03657
33.8 0.98907
33.85 0.94663
33.9 0.90794
33.95 0.87213
34 0.8332
34.05 0.79418
34.1 0.75115
34.15 0.70599
34.2 0.66431
34.25 0.61823
34.3 0.5777
34.35 0.53934
34.4 0.49903
34.45 0.45716
34.5 0.42203
34.55 0.38636
34.6 0.34772
34.65 0.31238
34.7 0.27977
34.75 0.24519
34.8 0.21311
34.85 0.18036
34.9 0.15124
34.95 0.12014
35 0.09153
35.05 0.06978
35.1 0.04883
35.15 0.03268
35.2 0.01094
35.25 -0.01324
35.3 -0.03617
35.35 -0.05359
35.4 -0.07013
35.45 -0.08998
35.5 -0.10598
35.55 -0.12456
35.6 -0.13642
35.65 -0.14895
35.7 -0.16191
35.75 -0.1698
35.8 -0.1839
35.85 -0.19935
35.9 -0.21534
35.95 -0.22448
36 -0.23697
36.05 -0.24541
36.1 -0.25497
36.15 -0.26709
36.2 -0.27856
36.25 -0.28595
36.3 -0.29213
36.35 -0.30001
36.4 -0.30779
36.45 -0.3094
36.5 -0.31324
36.55 -0.31456
36.6 -0.31158
36.65 -0.30497
36.7 -0.30091
36.75 -0.29839
36.8 -0.29861
36.85 -0.29512
36.9 -0.29319
36.95 -0.29248
37 -0.29617
37.05 -0.30131
37.1 -0.30029
37.15 -0.29665
37.2 -0.29549
37.25 -0.2957
37.3 -0.29242
37.35 -0.2925
37.4 -0.28878
37.45 -0.28699
37.5 -0.28731
37.55 -0.29048
37.6 -0.2913
37.65 -0.29507
37.7 -0.29419
37.75 -0.28724
37.8 -0.27929
37.85 -0.27721
37.9 -0.27078
37.95 -0.26895
38 -0.27021
38.05 -0.26826
38.1 -0.26096
38.15 -0.25655
38.2 -0.25083
38.25 -0.24996
38.3 -0.24445
38.35 -0.24067
38.4 -0.23988
38.45 -0.23646
38.5 -0.23599
38.55 -0.23194
38.6 -0.22924
38.65 -0.22416
38.7 -0.22049
38.75 -0.22006
38.8 -0.21861
38.85 -0.21562
38.9 -0.21653
38.95 -0.21097
39 -0.20896
39.05 -0.2106
39.1 -0.20691
39.15 -0.20218
39.2 -0.19803
39.25 -0.19467
39.3 -0.19219
39.35 -0.18684
39.4 -0.18377
39.45 -0.17697
39.5 -0.17241
39.55 -0.16379
39.6 -0.15429
39.65 -0.15012
39.7 -0.15168
39.75 -0.15239
39.8 -0.14839
39.85 -0.14617
39.9 -0.14815
39.95 -0.15099
40 -0.15652
40.05 -0.15505
40.1 -0.15346
40.15 -0.15469
40.2 -0.15284
40.25 -0.14775
40.3 -0.14632
40.35 -0.14169
40.4 -0.13911
40.45 -0.13724
40.5 -0.13871
40.55 -0.1387
40.6 -0.13684
40.65 -0.13402
40.7 -0.12794
40.75 -0.12271
40.8 -0.11922
40.85 -0.12046
40.9 -0.11543
40.95 -0.11044
41 -0.11043
41.05 -0.11397
41.1 -0.11627
41.15 -0.11214
41.2 -0.10626
41.25 -0.09867
41.3 -0.09404
41.35 -0.08845
41.4 -0.08683
41.45 -0.08263
41.5 -0.07911
41.55 -0.0804
41.6 -0.08413
41.65 -0.08928
41.7 -0.09282
41.75 -0.09198
41.8 -0.09094
41.85 -0.08604
41.9 -0.08612
41.95 -0.08726
42 -0.08311
42.05 -0.07495
42.1 -0.07398
42.15 -0.07661
42.2 -0.08125
42.25 -0.08612
42.3 -0.08585
42.35 -0.08614
42.4 -0.08643
42.45 -0.08069
42.5 -0.07165
42.55 -0.06631
42.6 -0.0649
42.65 -0.06498
42.7 -0.06161
42.75 -0.05623
42.8 -0.04977
42.85 -0.0484
42.9 -0.05228
42.95 -0.05542
43 -0.05265
43.05 -0.051
43.1 -0.04526
43.15 -0.03874
43.2 -0.03522
43.25 -0.0305
43.3 -0.02677
43.35 -0.02537
43.4 -0.02692
43.45 -0.02626
43.5 -0.02923
43.55 -0.02879
43.6 -0.03349
43.65 -0.03473
43.7 -0.03921
43.75 -0.04361
43.8 -0.04713
43.85 -0.04712
43.9 -0.05084
43.95 -0.04794
44 -0.04076
44.05 -0.03519
44.1 -0.03487
44.15 -0.0355
44.2 -0.03903
44.25 -0.0396
44.3 -0.04319
44.35 -0.04586
44.4 -0.05076
44.45 -0.05288
44.5 -0.04826
44.55 -0.04671
44.6 -0.04371
44.65 -0.03752
44.7 -0.03154
44.75 -0.03046
44.8 -0.03266
44.85 -0.03769
44.9 -0.03809
44.95 -0.03935
45 -0.03814
45.05 -0.03227
45.1 -0.02954
45.15 -0.02854
45.2 -0.0235
45.25 -0.0235
45.3 -0.02644
45.35 -0.03031
45.4 -0.03357
45.45 -0.03816
45.5 -0.0381
45.55 -0.0361
45.6 -0.0357
45.65 -0.03605
45.7 -0.03403
45.75 -0.03552
45.8 -0.0393
45.85 -0.03745
45.9 -0.03873
45.95 -0.0355
46 -0.0311
46.05 -0.03197
46.1 -0.02845
46.15 -0.02518
46.2 -0.0233
46.25 -0.01995
46.3 -0.01666
46.35 -0.01747
46.4 -0.01671
46.45 -0.01436
46.5 -0.0171
46.55 -0.01426
46.6 -0.0124
46.65 -0.0067
46.7 -0.00271
46.75 0.00027
46.8 0.00249
46.85 0.0039
46.9 0.00332
46.95 0.00579
47 0.00402
47.05 0.00552
47.1 0.00854
47.15 0.0075
47.2 0.00128
47.25 -0.00628
47.3 -0.00909
47.35 -0.00687
47.4 -0.00915
47.45 -0.01287
47.5 -0.01272
47.55 -0.00964
47.6 -0.00508
47.65 -0.00774
47.7 -0.00531
47.75 -0.00672
47.8 -0.00644
47.85 -0.00965
47.9 -0.01482
47.95 -0.01672
48 -0.02125
48.05 -0.02719
48.1 -0.02709
48.15 -0.02842
48.2 -0.02847
48.25 -0.02997
48.3 -0.0313
48.35 -0.02792
48.4 -0.02278
48.45 -0.0144
48.5 -0.01283
48.55 -0.01603
48.6 -0.021
48.65 -0.02201
48.7 -0.0235
48.75 -0.02166
48.8 -0.01469
48.85 -0.01241
48.9 -0.0071
48.95 0.00022
49 0.00846
49.05 0.00779
49.1 0.00364
49.15 0.00037
49.2 0.00008
49.25 0.00397
49.3 0.0012
49.35 -0.00404
49.4 -0.00881
49.45 -0.00797
49.5 -0.00517
49.55 -0.00248
49.6 -0.00505
49.65 -0.00521
49.7 -0.00713
49.75 -0.00473
49.8 0.0009
49.85 0.00842
49.9 0.01146
49.95 0.01383
50 0.01111
50.05 0.00904
50.1 0.00528
50.15 0.00074
50.2 -0.0043
50.25 -0.01127
50.3 -0.01448
50.35 -0.01669
50.4 -0.01509
50.45 -0.01447
50.5 -0.01573
50.55 -0.02007
50.6 -0.01699
50.65 -0.01614
50.7 -0.01823
50.75 -0.01485
50.8 -0.01124
50.85 -0.0122
50.9 -0.01429
50.95 -0.01834
51 -0.02377
51.05 -0.0298
51.1 -0.02982
51.15 -0.02312
51.2 -0.01909
51.25 -0.01977
51.3 -0.02276
51.35 -0.02354
51.4 -0.02123
51.45 -0.02175
51.5 -0.02209
51.55 -0.02357
51.6 -0.01929
51.65 -0.01977
51.7 -0.01622
51.75 -0.01613
51.8 -0.0111
51.85 -0.00922
51.9 -0.00463
51.95 0.00079
52 0.00371
52.05 0.00542
52.1 0.00809
52.15 0.00448
52.2 0.00223
52.25 0.00405
52.3 0.00613
52.35 0.00678
52.4 0.00468
52.45 0.0026
52.5 0.00113
52.55 0.00013
52.6 -0.00355
52.65 -0.00983
52.7 -0.01249
52.75 -0.01761
52.8 -0.01957
52.85 -0.01618
52.9 -0.00835
52.95 -0.00676
53 -0.00094
53.05 -0.00114
53.1 0.00201
53.15 0.00503
53.2 0.00528
53.25 0.00931
53.3 0.01156
53.35 0.01512
53.4 0.01819
53.45 0.01629
53.5 0.01289
53.55 0.01376
53.6 0.01502
53.65 0.01135
53.7 0.00815
53.75 0.00569
53.8 -0.00118
53.85 -0.00243
53.9 -0.00178
53.95 -0.0042
54 -0.00196
54.05 0.00239
54.1 0.00238
54.15 0.00054
54.2 -0.00258
54.25 -0.00405
54.3 -0.00053
54.35 0.00294
54.4 0.00119
54.45 0.0017
54.5 -0.00035
54.55 0.00075
54.6 0.00314
54.65 0.0057
54.7 0.00632
54.75 0.00641
54.8 0.00901
54.85 0.00764
54.9 0.00341
54.95 0.00456
55 0.00024
55.05 0.00022
55.1 -0.00112
55.15 -0.00266
55.2 0.00101
55.25 0.00207
55.3 -0.0012
55.35 -0.00597
55.4 -0.00528
55.45 -0.00067
55.5 -0.00027
55.55 -0.00384
55.6 -0.00688
55.65 -0.00921
55.7 -0.01462
55.75 -0.01887
55.8 -0.01535
55.85 -0.01641
55.9 -0.01387
55.95 -0.01196
56 -0.00839
56.05 -0.00508
56.1 -0.00691
56.15 -0.00512
56.2 -0.005
56.25 -0.00123
56.3 -0.00038
56.35 -0.0032
56.4 -0.00624
56.45 -0.00953
56.5 -0.01453
56.55 -0.01474
56.6 -0.01403
56.65 -0.01512
56.7 -0.0129
56.75 -0.01041
56.8 -0.00862
56.85 -0.00654
56.9 -0.00081
56.95 0.00411
57 0.00919
57.05 0.01584
57.1 0.01799
57.15 0.02021
57.2 0.02201
57.25 0.01928
57.3 0.02068
57.35 0.01548
57.4 0.01183
57.45 0.01065
57.5 0.00881
57.55 0.00479
57.6 0.00319
57.65 0.00566
57.7 0.00433
57.75 -0
57.8 0.00014
57.85 0.00473
57.9 0.00683
57.95 0.00388
58 -0.00206
58.05 -0.00543
58.1 -0.00602
58.15 -0.00288
58.2 0.00046
58.25 0.00555
58.3 0.00839
58.35 0.00802
58.4 0.00931
58.45 0.00647
58.5 0.00038
58.55 -0.00415
58.6 -0.00383
58.65 -0.00288
58.7 0.00153
58.75 0.00363
58.8 0.00047
58.85 -0.0017
58.9 -0.00042
58.95 0.0037
59 0.0059
59.05 0.00721
59.1 0.00735
59.15 0.00398
59.2 0.00163
59.25 0.00191
59.3 0.00262
59.35 -0.00168
59.4 -0.00511
59.45 -0.01089
59.5 -0.0146
59.55 -0.0137
59.6 -0.0074
59.65 -0.00022
59.7 0.00751
59.75 0.00772
59.8 0.00249
59.85 0.00123
59.9 0.00367
59.95 0.00691
60 0.00805
60.05 0.01208
60.1 0.01213
60.15 0.00839
60.2 0.00451
60.25 -0.00013
60.3 -0.00387
60.35 -0.00876
60.4 -0.01352
60.45 -0.01184
60.5 -0.00935
60.55 -0.00744
60.6 -0.00547
60.65 -0.00384
60.7 -0.00229
60.75 -0.00353
60.8 -0.00591
60.85 -0.00904
60.9 -0.01191
60.95 -0.01459
61 -0.01765
61.05 -0.01797
61.1 -0.02132
61.15 -0.02551
61.2 -0.03075
61.25 -0.03248
61.3 -0.03397
61.35 -0.03162
61.4 -0.02283
61.45 -0.01293
61.5 -0.0017
61.55 0.0039
61.6 0.00667
61.65 0.00713
61.7 0.01118
61.75 0.00851
61.8 0.01057
61.85 0.0147
61.9 0.01402
61.95 0.01266
62 0.01387
62.05 0.01787
62.1 0.01847
62.15 0.01453
62.2 0.01181
62.25 0.00587
62.3 -0.00174
62.35 -0.00373
62.4 -0.00236
62.45 -0.00129
62.5 -0.00006
62.55 -0.00026
62.6 -0.00104
62.65 0.00138
62.7 0.00288
62.75 0.00692
62.8 0.00692
62.85 0.009
62.9 0.00748
62.95 0.00405
63 0.0061
63.05 0.00584
63.1 0.00919
63.15 0.01289
63.2 0.01261
63.25 0.01134
63.3 0.01148
63.35 0.01049
63.4 0.01198
63.45 0.01076
63.5 0.01105
63.55 0.01036
63.6 0.00909
63.65 0.0118
63.7 0.00796
63.75 0.00268
63.8 0.0007
63.85 -0.00072
63.9 -0.00433
63.95 -0.00184
64 0.00044
64.05 -0.00069
64.1 -0.0023
64.15 -0.00074
64.2 -0.0037
64.25 -0.00303
64.3 0.0005
64.35 0.00605
64.4 0.00665
64.45 0.00353
64.5 0.0005
64.55 -0.00029
64.6 -0.00308
64.65 -0.00356
64.7 -0.00269
64.75 0.00054
64.8 0.0063
64.85 0.00796
64.9 0.00483
64.95 -0.00077
65 -0.00885
65.05 -0.01377
65.1 -0.01869
65.15 -0.01921
65.2 -0.02053
65.25 -0.02024
65.3 -0.02012
65.35 -0.01825
65.4 -0.01098
65.45 -0.00995
65.5 -0.00597
65.55 -0.00112
65.6 -0.00051
65.65 -0.00255
65.7 -0.00822
65.75 -0.0069
65.8 -0.0078
65.85 -0.00355
65.9 -0.00384
65.95 -0.00422
66 -0.00889
66.05 -0.00764
66.1 -0.00256
66.15 -0.00307
66.2 -0.00184
66.25 -0.00264
66.3 -0.00517
66.35 -0.00568
66.4 -0.00102
66.45 0.00413
66.5 0.00836
66.55 0.00638
66.6 0.00636
66.65 0.01046
66.7 0.01157
66.75 0.00717
66.8 0.00774
66.85 0.01008
66.9 0.01295
66.95 0.00938
67 0.00462
67.05 -0.00366
67.1 -0.00591
67.15 -0.0083
67.2 -0.0085
67.25 -0.00453
67.3 -0.00517
67.35 -0.00439
67.4 -0.00805
67.45 -0.01282
67.5 -0.01181
67.55 -0.00998
67.6 -0.00476
67.65 -0.00558
67.7 -0.00501
67.75 0.00016
67.8 0.00214
67.85 0.00069
67.9 -0.00064
67.95 -0.00262
68 0.00031
68.05 0.00146
68.1 0.00601
68.15 0.00743
68.2 0.01052
68.25 0.01103
68.3 0.01322
68.35 0.01741
68.4 0.02136
68.45 0.018
68.5 0.01443
68.55 0.01148
68.6 0.01204
68.65 0.0159
68.7 0.01846
68.75 0.01619
68.8 0.01777
68.85 0.01643
68.9 0.01354
68.95 0.01468
69 0.01072
69.05 0.00683
69.1 0.00075
69.15 -0.00515
69.2 -0.01029
69.25 -0.01097
69.3 -0.01399
69.35 -0.01882
69.4 -0.01874
69.45 -0.01973
69.5 -0.01424
69.55 -0.01029
69.6 -0.00741
69.65 -0.00606
69.7 -0.00051
69.75 0.00405
69.8 0.00662
69.85 0.00661
69.9 0.00193
69.95 -0.00372
70 -0.01183
70.05 -0.01685
70.1 -0.02052
70.15 -0.02055
70.2 -0.02359
70.25 -0.02107
70.3 -0.01657
70.35 -0.01553
70.4 -0.0113
70.45 -0.00561
70.5 -0.00636
70.55 -0.00531
70.6 -0.00137
70.65 -0.00187
70.7 -0.00409
70.75 -0.00824
70.8 -0.01107
70.85 -0.01296
70.9 -0.01511
70.95 -0.01154
71 -0.01063
71.05 -0.00642
71.1 0.001
71.15 0.00245
71.2 0.00439
71.25 0.00687
71.3 0.01259
71.35 0.01826
71.4 0.01992
71.45 0.01724
71.5 0.01392
71.55 0.01212
71.6 0.00831
71.65 0.00221
71.7 -0.00621
71.75 -0.0152
71.8 -0.01869
71.85 -0.02126
71.9 -0.02152
71.95 -0.01594
72 -0.01024
72.05 -0.00506
72.1 0.00101
72.15 0.00228
72.2 0.00178
72.25 -0.00111
72.3 0.00164
72.35 0.00387
72.4 0.00647
72.45 0.00304
72.5 0.00455
72.55 0.00383
72.6 0.00711
72.65 0.0078
72.7 0.00336
72.75 -0.00087
72.8 -0.00059
72.85 0.00107
72.9 0.00432
72.95 0.00261
73 -0.00106
73.05 -0.00524
73.1 -0.00587
73.15 -0.00245
73.2 -0.00333
73.25 -0.0013
73.3 0.00462
73.35 0.00645
73.4 0.00515
73.45 -0.00019
73.5 -0.00302
73.55 -0.00436
73.6 -0.00456
73.65 -0.00017
73.7 0.00323
73.75 0.00906
73.8 0.01648
73.85 0.02415
73.9 0.02265
73.95 0.01923
74 0.01155
74.05 0.00408
74.1 -0.00435
74.15 -0.00609
74.2 -0.00337
74.25 0.00254
74.3 0.00546
74.35 0.00309
74.4 0.00009
74.45 0.00156
74.5 -0.00246
74.55 -0.00324
74.6 -0.00361
74.65 -0.00124
74.7 -0.00157
74.75 0.00011
74.8 0.00419
74.85 0.0045
74.9 -0.00002
74.95 -0.00662
75 -0.01203
75.05 -0.01305
75.1 -0.01584
75.15 -0.01656
75.2 -0.01119
75.25 -0.0111
75.3 -0.01124
75.35 -0.01055
75.4 -0.00709
75.45 -0.00161
75.5 -0.00007
75.55 0.00463
75.6 0.0028
75.65 0.00032
75.7 -0.00358
75.75 -0.00488
75.8 -0.00233
75.85 -0.00162
75.9 -0.00199
75.95 -0.00269
76 -0.00411
76.05 -0.0029
76.1 -0.00232
76.15 -0.00234
76.2 0.001
76.25 0.00333
76.3 0.0072
76.35 0.00797
76.4 0.0042
76.45 -0.00151
76.5 -0.00423
76.55 -0.00157
76.6 -0.00122
76.65 -0.00077
76.7 0.00353
76.75 0.00303
76.8 -0.00221
76.85 -0.0008
76.9 0.00104
76.95 -0.0005
77 -0.00047
77.05 -0.00091
77.1 0.00003
77.15 0.00369
77.2 0.00255
77.25 -0.00053
77.3 -0.00013
77.35 0.00253
77.4 0.00548
77.45 0.00836
77.5 0.00958
77.55 0.00985
77.6 0.00782
77.65 0.00528
77.7 0.0041
77.75 0.00477
77.8 0.00261
77.85 0.00399
77.9 -0.00002
77.95 0.00096
78 -0.00306
78.05 -0.00943
78.1 -0.00841
78.15 -0.00588
78.2 -0.00233
78.25 -0.00419
78.3 -0.00517
78.35 -0.00265
78.4 -0.00528
78.45 -0.00965
78.5 -0.00985
78.55 -0.00651
78.6 -0.00514
78.65 -0.0052
78.7 -0.00164
78.75 -0.0026
78.8 -0.00746
78.85 -0.01241
78.9 -0.01031
78.95 -0.00647
79 -0.00613
79.05 -0.00978
79.1 -0.01487
79.15 -0.0196
79.2 -0.0185
79.25 -0.01325
79.3 -0.01202
79.35 -0.01014
79.4 -0.00392
79.45 -0.003
79.5 0.00146
79.55 0.0053
79.6 0.01014
79.65 0.01536
79.7 0.0209
79.75 0.02172
79.8 0.02171
79.85 0.02434
79.9 0.02623
79.95 0.02141
80 0.01723
80.05 0.01418
80.1 0.00819
80.15 0.00178
80.2 0.00082
80.25 -0.00285
80.3 -0.00677
80.35 -0.01282
80.4 -0.0146
80.45 -0.01094
80.5 -0.00591
80.55 -0.00409
80.6 -0.00439
80.65 -0.00699
80.7 -0.00461
80.75 -0.00367
80.8 -0.00587
80.85 -0.00857
80.9 -0.00938
80.95 -0.00926
81 -0.00651
81.05 -0.00377
81.1 -0.0037
81.15 -0.00408
81.2 -0.00774
81.25 -0.01279
81.3 -0.01435
81.35 -0.01225
81.4 -0.01136
81.45 -0.00768
81.5 -0.00125
81.55 0.00735
81.6 0.01058
81.65 0.01573
81.7 0.0214
81.75 0.02727
81.8 0.02777
81.85 0.02862
81.9 0.02351
81.95 0.0198
82 0.01336
82.05 0.01022
82.1 0.00584
82.15 -0.00215
82.2 -0.01149
82.25 -0.01716
82.3 -0.0183
82.35 -0.02054
82.4 -0.02252
82.45 -0.02413
82.5 -0.02215
82.55 -0.01512
82.6 -0.00884
82.65 -0.00706
82.7 -0.00728
82.75 -0.00378
82.8 0.00118
82.85 -0.00002
82.9 -0.00064
82.95 0.00114
83 0.00269
83.05 0.00297
83.1 0.00685
83.15 0.01028
83.2 0.01203
83.25 0.01508
83.3 0.01137
83.35 0.00667
83.4 0.00462
83.45 0.00082
83.5 -0.00195
83.55 -0.00188
83.6 0.00134
83.65 -0.00154
83.7 0.0012
83.75 0.00273
83.8 0.00212
83.85 0.00596
83.9 0.00884
83.95 0.01305
84 0.01512
84.05 0.01797
84.1 0.02136
84.15 0.02594
84.2 0.02955
84.25 0.02441
84.3 0.02109
84.35 0.01538
84.4 0.008
84.45 -0.00213
84.5 -0.01117
84.55 -0.01167
84.6 -0.00792
84.65 -0.00075
84.7 0.00465
84.75 0.01022
84.8 0.01368
84.85 0.01826
84.9 0.01729
84.95 0.0184
85 0.01737
85.05 0.01401
85.1 0.01426
85.15 0.01413
85.2 0.00821
85.25 0.00468
85.3 0.00428
85.35 -0.00148
85.4 -0.002
85.45 -0.00032
85.5 0.00284
85.55 0.00142
85.6 0.00209
85.65 -0.00085
85.7 -0.00349
85.75 -0.00758
85.8 -0.0073
85.85 -0.00473
85.9 -0.00268
85.95 -0.00329
86 -0.00828
86.05 -0.00852
86.1 -0.00942
86.15 -0.01292
86.2 -0.01812
86.25 -0.02434
86.3 -0.02842
86.35 -0.03174
86.4 -0.02798
86.45 -0.02251
86.5 -0.01836
86.55 -0.01508
86.6 -0.01294
86.65 -0.01337
86.7 -0.01212
86.75 -0.01347
86.8 -0.01551
86.85 -0.01474
86.9 -0.00882
86.95 -0.00038
87 0.00817
87.05 0.01121
87.1 0.01119
87.15 0.0098
87.2 0.00344
87.25 -0.00025
87.3 -0.00676
87.35 -0.00816
87.4 -0.00771
87.45 -0.00994
87.5 -0.01338
87.55 -0.01125
87.6 -0.00902
87.65 -0.01066
87.7 -0.01442
87.75 -0.0185
87.8 -0.02298
87.85 -0.02717
87.9 -0.03012
87.95 -0.03153
88 -0.02808
88.05 -0.0248
88.1 -0.02063
88.15 -0.01957
88.2 -0.01527
88.25 -0.0073
88.3 0.00277
88.35 0.01009
88.4 0.01123
88.45 0.00945
88.5 0.0079
88.55 0.00527
88.6 0.00426
88.65 -0.00021
88.7 -0.00705
88.75 -0.00736
88.8 -0.01134
88.85 -0.01213
88.9 -0.01221
88.95 -0.01036
89 -0.00982
89.05 -0.00662
89.1 -0.00482
89.15 0.0005
89.2 0.00628
89.25 0.00576
89.3 0.00692
89.35 0.00916
89.4 0.01101
89.45 0.01568
89.5 0.02218
89.55 0.02387
89.6 0.0255
89.65 0.02047
89.7 0.01476
89.75 0.01343
89.8 0.01174
89.85 0.01325
89.9 0.01173
89.95 0.01145
90 0.00707
90.05 0.0045
90.1 0.0037
90.15 0.00082
90.2 0.00335
90.25 0.00656
90.3 0.00918
90.35 0.01347
90.4 0.0151
90.45 0.01505
90.5 0.01248
90.55 0.01016
90.6 0.00682
90.65 0.00765
90.7 0.01138
90.75 0.01507
90.8 0.01264
90.85 0.0094
90.9 0.00373
90.95 -0.00082
91 -0.00659
91.05 -0.00907
91.1 -0.01133
91.15 -0.0084
91.2 -0.00304
91.25 0.00436
91.3 0.00786
91.35 0.00629
91.4 0.00715
91.45 0.00434
91.5 0.00169
91.55 0.00211
91.6 0.0017
91.65 0.00116
91.7 -0.0041
91.75 -0.00636
91.8 -0.01079
91.85 -0.01163
91.9 -0.00898
91.95 -0.00455
92 0.00121
92.05 0.00828
92.1 0.01031
92.15 0.01164
92.2 0.00853
92.25 0.00761
92.3 0.01074
92.35 0.01589
92.4 0.01863
92.45 0.01616
92.5 0.01761
92.55 0.01584
92.6 0.00992
92.65 0.00024
92.7 -0.00817
92.75 -0.01125
92.8 -0.01426
92.85 -0.01831
92.9 -0.02284
92.95 -0.02296
93 -0.02381
93.05 -0.02419
93.1 -0.02644
93.15 -0.02954
93.2 -0.03335
93.25 -0.03006
93.3 -0.02331
93.35 -0.01487
93.4 -0.00575
93.45 -0.00136
93.5 0.00123
93.55 0.00681
93.6 0.00542
93.65 0.00577
93.7 0.00693
93.75 0.00838
93.8 0.01222
93.85 0.01485
93.9 0.01561
93.95 0.01864
94 0.02
94.05 0.02158
94.1 0.02131
94.15 0.02081
94.2 0.02162
94.25 0.01898
94.3 0.01183
94.35 0.00151
94.4 -0.00407
94.45 -0.00658
94.5 -0.00622
94.55 -0.00196
94.6 -0.00204
94.65 -0.00086
94.7 -0.0023
94.75 -0.00373
94.8 -0.00566
94.85 -0.00799
94.9 -0.01298
94.95 -0.01673
95 -0.02155
95.05 -0.0261
95.1 -0.03122
95.15 -0.03563
95.2 -0.03925
95.25 -0.03928
95.3 -0.03633
95.35 -0.03181
95.4 -0.02617
95.45 -0.02346
95.5 -0.02375
95.55 -0.0234
95.6 -0.01757
95.65 -0.01089
95.7 -0.00483
95.75 0.00372
95.8 0.00986
95.85 0.00875
95.9 0.00356
95.95 0.00111
96 -0.00216
96.05 -0.00166
96.1 0.00319
96.15 0.00878
96.2 0.00862
96.25 0.01164
96.3 0.01419
96.35 0.01766
96.4 0.0193
96.45 0.02296
96.5 0.02739
96.55 0.026
96.6 0.02564
96.65 0.02003
96.7 0.01164
96.75 0.00339
96.8 -0.00313
96.85 -0.01081
96.9 -0.01251
96.95 -0.01563
97 -0.01708
97.05 -0.01558
97.1 -0.01389
97.15 -0.01103
97.2 -0.00353
97.25 -0.00047
97.3 0.00072
97.35 -0.00325
97.4 -0.00898
97.45 -0.01242
97.5 -0.01719
97.55 -0.01873
97.6 -0.01652
97.65 -0.01165
97.7 -0.00776
97.75 -0.00102
97.8 0.00566
97.85 0.00875
97.9 0.01377
97.95 0.01635
98 0.01988
98.05 0.01819
98.1 0.01097
98.15 0.00906
98.2 0.00598
98.25 0.00222
98.3 -0.00267
98.35 -0.00865
98.4 -0.0153
98.45 -0.01559
98.5 -0.01404
98.55 -0.00949
98.6 -0.00212
98.65 -0.00186
98.7 -0.00479
98.75 -0.0075
98.8 -0.00696
98.85 -0.00518
98.9 -0.00396
98.95 -0.00003
99 0.00553
99.05 0.00879
99.1 0.01309
99.15 0.01189
99.2 0.01154
99.25 0.00769
99.3 0.00237
99.35 0.00226
99.4 0.00645
99.45 0.01185
99.5 0.0156
99.55 0.01918
99.6 0.01533
99.65 0.00956
99.7 0.00868
99.75 0.00519
99.8 0.00401
99.85 0.00721
99.9 0.00496
99.95 0.00571
