0 0
0.05 0.00838
0.1 0.02208
0.15 0.03712
0.2 0.04866
0.25 0.05826
0.3 0.06285
0.35 0.06076
0.4 0.06143
0.45 0.06321
0.5 0.06711
0.55 0.06495
0.6 0.0628
0.65 0.06077
0.7 0.06099
0.75 0.06092
0.8 0.06248
0.85 0.06254
0.9 0.05631
0.95 0.05079
1 0.04393
1.05 0.04303
1.1 0.04258
1.15 0.04071
1.2 0.03899
1.25 0.03587
1.3 0.0315
1.35 0.03358
1.4 0.03737
1.45 0.03591
1.5 0.03902
1.55 0.0399
1.6 0.03696
1.65 0.03588
1.7 0.03896
1.75 0.04492
1.8 0.0502
1.85 0.05422
1.9 0.05808
1.95 0.06185
2 0.0581
2.05 0.05586
2.1 0.05124
2.15 0.04777
2.2 0.04644
2.25 0.0451
2.3 0.04172
2.35 0.04232
2.4 0.04127
2.45 0.03808
2.5 0.03063
2.55 0.02189
2.6 0.01357
2.65 0.01146
2.7 0.00851
2.75 0.00681
2.8 0.00689
2.85 0.01263
2.9 0.02082
2.95 0.02787
3 0.02711
3.05 0.02455
3.1 0.01828
3.15 0.01043
3.2 0.00201
3.25 -0.00197
3.3 -0.00537
3.35 -0.00426
3.4 -0.0034
3.45 0.00169
3.5 0.00633
3.55 0.00897
3.6 0.01383
3.65 0.02172
3.7 0.02572
3.75 0.02456
3.8 0.02524
3.85 0.02448
3.9 0.02368
3.95 0.02469
4 0.02045
4.05 0.02101
4.1 0.02032
4.15 0.02086
4.2 0.02281
4.25 0.02083
4.3 0.01953
4.35 0.0147
4.4 0.00495
4.45 -0.00675
4.5 -0.01678
4.55 -0.02304
4.6 -0.03581
4.65 -0.05087
4.7 -0.07072
4.75 -0.08887
4.8 -0.10899
4.85 -0.12948
4.9 -0.15471
4.95 -0.18386
5 -0.21669
5.05 -0.25853
5.1 -0.30325
5.15 -0.3602
5.2 -0.4251
5.25 -0.49198
5.3 -0.56273
5.35 -0.63436
5.4 -0.70779
5.45 -0.78824
5.5 -0.87113
5.55 -0.96042
5.6 -1.04666
5.65 -1.13779
5.7 -1.23119
5.75 -1.31971
5.8 -1.39875
5.85 -1.47754
5.9 -1.55434
5.95 -1.6212
6 -1.67916
6.05 -1.73375
6.1 -1.78169
6.15 -1.82409
6.2 -1.85938
6.25 -1.88715
6.3 -1.91095
6.35 -1.93367
6.4 -1.95143
6.45 -1.96238
6.5 -1.95959
6.55 -1.94579
6.6 -1.92323
6.65 -1.89405
6.7 -1.85648
6.75 -1.8099
6.8 -1.7539
6.85 -1.67889
6.9 -1.59571
6.95 -1.50083
7 -1.39142
7.05 -1.26508
7.1 -1.12535
7.15 -0.97589
7.2 -0.82223
7.25 -0.66974
7.3 -0.50944
7.35 -0.34959
7.4 -0.18481
7.45 -0.02348
7.5 0.13267
7.55 0.28638
7.6 0.43971
7.65 0.58827
7.7 0.72537
7.75 0.85762
7.8 0.98023
7.85 1.09303
7.9 1.19351
7.95 1.28458
8 1.36613
8.05 1.43697
8.1 1.4964
8.15 1.55126
8.2 1.59997
8.25 1.64205
8.3 1.67352
8.35 1.6974
8.4 1.71542
8.45 1.72395
8.5 1.7285
8.55 1.72712
8.6 1.7268
8.65 1.72227
8.7 1.71237
8.75 1.70112
8.8 1.68388
8.85 1.67109
8.9 1.66087
8.95 1.64903
9 1.63125
9.05 1.61338
9.1 1.58942
9.15 1.56596
9.2 1.53926
9.25 1.51904
9.3 1.49828
9.35 1.48168
9.4 1.45812
9.45 1.43073
9.5 1.40898
9.55 1.39006
9.6 1.37382
9.65 1.35466
9.7 1.32948
9.75 1.30136
9.8 1.26914
9.85 1.24284
9.9 1.21661
9.95 1.18847
10 1.16208
10.05 1.13389
10.1 1.10956
10.15 1.08213
10.2 1.05762
10.25 1.02709
10.3 0.99441
10.35 0.96133
10.4 0.9279
10.45 0.89204
10.5 0.85974
10.55 0.82546
10.6 0.79348
10.65 0.76583
10.7 0.73286
10.75 0.70288
10.8 0.67137
10.85 0.63906
10.9 0.6101
10.95 0.57967
11 0.54866
11.05 0.5106
11.1 0.47425
11.15 0.44019
11.2 0.41
11.25 0.37605
11.3 0.3427
11.35 0.31138
11.4 0.28182
11.45 0.25345
11.5 0.22391
11.55 0.19296
11.6 0.16106
11.65 0.13346
11.7 0.10512
11.75 0.08076
11.8 0.05394
11.85 0.02764
11.9 0.00145
11.95 -0.02096
12 -0.04292
12.05 -0.06014
12.1 -0.07523
12.15 -0.09365
12.2 -0.10611
12.25 -0.12078
12.3 -0.1363
12.35 -0.14834
12.4 -0.16229
12.45 -0.17969
12.5 -0.1911
12.55 -0.20161
12.6 -0.21497
12.65 -0.22591
12.7 -0.23597
12.75 -0.24252
12.8 -0.24505
12.85 -0.25257
12.9 -0.25555
12.95 -0.25676
13 -0.25882
13.05 -0.25875
13.1 -0.25761
13.15 -0.26185
13.2 -0.26966
13.25 -0.27839
13.3 -0.28627
13.35 -0.28885
13.4 -0.28644
13.45 -0.28892
13.5 -0.29336
13.55 -0.29239
13.6 -0.29209
13.65 -0.29533
13.7 -0.29296
13.75 -0.29384
13.8 -0.28879
13.85 -0.28401
13.9 -0.276
13.95 -0.26959
14 -0.26445
14.05 -0.25811
14.1 -0.25381
14.15 -0.25372
14.2 -0.25211
14.25 -0.25103
14.3 -0.2529
14.35 -0.25671
14.4 -0.25669
14.45 -0.25516
14.5 -0.25147
14.55 -0.24811
14.6 -0.24604
14.65 -0.24756
14.7 -0.25077
14.75 -0.25196
14.8 -0.25276
14.85 -0.25088
14.9 -0.24395
14.95 -0.23971
15 -0.2346
15.05 -0.2259
15.1 -0.2205
15.15 -0.2159
15.2 -0.21457
15.25 -0.21134
15.3 -0.20331
15.35 -0.19677
15.4 -0.19008
15.45 -0.18546
15.5 -0.18039
15.55 -0.18096
15.6 -0.18062
15.65 -0.17935
15.7 -0.17942
15.75 -0.18125
15.8 -0.18159
15.85 -0.17688
15.9 -0.17361
15.95 -0.17233
16 -0.16735
16.05 -0.16777
16.1 -0.16463
16.15 -0.16441
16.2 -0.16241
16.25 -0.15859
16.3 -0.15208
16.35 -0.14818
16.4 -0.14208
16.45 -0.13567
16.5 -0.13551
16.55 -0.1348
16.6 -0.1315
16.65 -0.13135
16.7 -0.12813
16.75 -0.12588
16.8 -0.12157
16.85 -0.12186
16.9 -0.11746
16.95 -0.11355
17 -0.11108
17.05 -0.10584
17.1 -0.10293
17.15 -0.09949
17.2 -0.09852
17.25 -0.10145
17.3 -0.10793
17.35 -0.1117
17.4 -0.11464
17.45 -0.11133
17.5 -0.10929
17.55 -0.11074
17.6 -0.11508
17.65 -0.11227
17.7 -0.10518
17.75 -0.09503
17.8 -0.09073
17.85 -0.08941
17.9 -0.08967
17.95 -0.08749
18 -0.08827
18.05 -0.09283
18.1 -0.09276
18.15 -0.09611
18.2 -0.09913
18.25 -0.09621
18.3 -0.09165
18.35 -0.09074
18.4 -0.08759
18.45 -0.08552
18.5 -0.07926
18.55 -0.07738
18.6 -0.07724
18.65 -0.07522
18.7 -0.07666
18.75 -0.07427
18.8 -0.07016
18.85 -0.06996
18.9 -0.07069
18.95 -0.07057
19 -0.06775
19.05 -0.06529
19.1 -0.059
19.15 -0.05639
19.2 -0.05844
19.25 -0.06138
19.3 -0.05815
19.35 -0.05518
19.4 -0.05252
19.45 -0.0486
19.5 -0.04329
19.55 -0.04048
19.6 -0.03959
19.65 -0.03893
19.7 -0.04315
19.75 -0.04572
19.8 -0.04292
19.85 -0.03748
19.9 -0.03133
19.95 -0.02788
20 -0.02678
20.05 -0.03053
20.1 -0.03731
20.15 -0.04164
20.2 -0.04077
20.25 -0.03813
20.3 -0.03974
20.35 -0.03638
20.4 -0.03655
20.45 -0.04034
20.5 -0.04389
20.55 -0.04417
20.6 -0.04711
20.65 -0.05152
20.7 -0.05207
20.75 -0.05238
20.8 -0.05128
20.85 -0.0458
20.9 -0.04368
20.95 -0.04289
21 -0.04159
21.05 -0.03779
21.1 -0.03731
21.15 -0.0323
21.2 -0.03097
21.25 -0.03154
21.3 -0.02967
21.35 -0.03132
21.4 -0.03488
21.45 -0.04056
21.5 -0.04667
21.55 -0.04588
21.6 -0.03942
21.65 -0.03038
21.7 -0.02271
21.75 -0.01809
21.8 -0.01386
21.85 -0.01416
21.9 -0.01608
21.95 -0.0207
22 -0.02697
22.05 -0.0334
22.1 -0.03203
22.15 -0.0328
22.2 -0.03407
22.25 -0.03677
22.3 -0.0335
22.35 -0.02687
22.4 -0.02667
22.45 -0.02577
22.5 -0.0249
22.55 -0.02523
22.6 -0.02821
22.65 -0.02578
22.7 -0.0223
22.75 -0.02215
22.8 -0.02643
22.85 -0.02641
22.9 -0.02927
22.95 -0.03143
23 -0.03118
23.05 -0.03072
23.1 -0.03279
23.15 -0.02862
23.2 -0.02516
23.25 -0.02425
23.3 -0.02215
23.35 -0.01814
23.4 -0.01368
23.45 -0.00684
23.5 -0.00637
23.55 -0.00555
23.6 -0.007
23.65 -0.00916
23.7 -0.01442
23.75 -0.01616
23.8 -0.01762
23.85 -0.01579
23.9 -0.01402
23.95 -0.01117
24 -0.01252
24.05 -0.01624
24.1 -0.02181
24.15 -0.02818
24.2 -0.03223
24.25 -0.03064
24.3 -0.03139
24.35 -0.02763
24.4 -0.02393
24.45 -0.01777
24.5 -0.01049
24.55 -0.01038
24.6 -0.01199
24.65 -0.01404
24.7 -0.01273
24.75 -0.012
24.8 -0.01101
24.85 -0.00682
24.9 -0.00871
24.95 -0.0111
25 -0.01292
25.05 -0.01744
25.1 -0.02306
25.15 -0.02457
25.2 -0.02292
25.25 -0.02067
25.3 -0.01853
25.35 -0.01557
25.4 -0.01446
25.45 -0.01635
25.5 -0.02052
25.55 -0.01963
25.6 -0.01844
25.65 -0.0139
25.7 -0.00741
25.75 0.00042
25.8 0.0041
25.85 0.0074
25.9 0.00644
25.95 0.00375
26 0.00007
26.05 -0.0018
26.1 -0.0027
26.15 -0.00544
26.2 -0.00992
26.25 -0.00957
26.3 -0.01221
26.35 -0.01646
26.4 -0.01769
26.45 -0.01496
26.5 -0.01391
26.55 -0.00793
26.6 -0.00103
26.65 0.00082
26.7 0.0007
26.75 0.00169
26.8 -0.00005
26.85 0.00041
26.9 -0.00129
26.95 0.00211
27 0.00616
27.05 0.00816
27.1 0.01061
27.15 0.0119
27.2 0.01568
27.25 0.01666
27.3 0.01153
27.35 0.00392
27.4 -0.00416
27.45 -0.00779
27.5 -0.00752
27.55 -0.01051
27.6 -0.01239
27.65 -0.01068
27.7 -0.01333
27.75 -0.01722
27.8 -0.02302
27.85 -0.02951
27.9 -0.03415
27.95 -0.0316
28 -0.03256
28.05 -0.03298
28.1 -0.03533
28.15 -0.0367
28.2 -0.03963
28.25 -0.0422
28.3 -0.04286
28.35 -0.0415
28.4 -0.04454
28.45 -0.0526
28.5 -0.05751
28.55 -0.06229
28.6 -0.06816
28.65 -0.07609
28.7 -0.08974
28.75 -0.10293
28.8 -0.12061
28.85 -0.1412
28.9 -0.16541
28.95 -0.19037
29 -0.21584
29.05 -0.24196
29.1 -0.27247
29.15 -0.30576
29.2 -0.33773
29.25 -0.37079
29.3 -0.40133
29.35 -0.4283
29.4 -0.45989
29.45 -0.48822
29.5 -0.51664
29.55 -0.55034
29.6 -0.58155
29.65 -0.61601
29.7 -0.64544
29.75 -0.66949
29.8 -0.6929
29.85 -0.71454
29.9 -0.72744
29.95 -0.73964
30 -0.74393
30.05 -0.74512
30.1 -0.74046
30.15 -0.73362
30.2 -0.72054
30.25 -0.703
30.3 -0.67639
30.35 -0.65025
30.4 -0.62045
30.45 -0.58603
30.5 -0.54891
30.55 -0.50594
30.6 -0.4562
30.65 -0.40186
30.7 -0.3462
30.75 -0.28466
30.8 -0.22648
30.85 -0.16447
30.9 -0.10596
30.95 -0.04726
31 0.00936
31.05 0.06345
31.1 0.11023
31.15 0.15835
31.2 0.20806
31.25 0.25404
31.3 0.29426
31.35 0.33499
31.4 0.36674
31.45 0.39778
31.5 0.42806
31.55 0.45434
31.6 0.47449
31.65 0.49631
31.7 0.51816
31.75 0.53264
31.8 0.54482
31.85 0.55525
31.9 0.56738
31.95 0.57935
32 0.58376
32.05 0.58684
32.1 0.59056
32.15 0.59365
32.2 0.59901
32.25 0.60584
32.3 0.61033
32.35 0.609
32.4 0.60406
32.45 0.60216
32.5 0.59451
32.55 0.58972
32.6 0.58289
32.65 0.57491
32.7 0.57132
32.75 0.56666
32.8 0.56017
32.85 0.55592
32.9 0.54787
32.95 0.54013
33 0.52917
33.05 0.51903
33.1 0.50426
33.15 0.48941
33.2 0.47797
33.25 0.46329
33.3 0.45357
33.35 0.4472
33.4 0.43619
33.45 0.42697
33.5 0.41378
33.55 0.39552
33.6 0.37553
33.65 0.35504
33.7 0.33582
33.75 0.3182
33.8 0.30844
33.85 0.30019
33.9 0.28959
33.95 0.27745
34 0.26977
34.05 0.26498
34.1 0.25374
34.15 0.24397
34.2 0.23637
34.25 0.22711
34.3 0.21665
34.35 0.20357
34.4 0.18725
34.45 0.17561
34.5 0.16482
34.55 0.15469
34.6 0.14338
34.65 0.13696
34.7 0.12837
34.75 0.11495
34.8 0.10274
34.85 0.09305
34.9 0.08439
34.95 0.07614
35 0.06439
35.05 0.05365
35.1 0.04343
35.15 0.03323
35.2 0.02214
35.25 0.0175
35.3 0.01309
35.35 0.00576
35.4 -0.00461
35.45 -0.01017
35.5 -0.01368
35.55 -0.01931
35.6 -0.02437
35.65 -0.03157
35.7 -0.04016
35.75 -0.04146
35.8 -0.04069
35.85 -0.04536
35.9 -0.05239
35.95 -0.05343
36 -0.05454
36.05 -0.05686
36.1 -0.06097
36.15 -0.0657
36.2 -0.06525
36.25 -0.06935
36.3 -0.07411
36.35 -0.0754
36.4 -0.07332
36.45 -0.07092
36.5 -0.0708
36.55 -0.06792
36.6 -0.07151
36.65 -0.0739
36.7 -0.07798
36.75 -0.08397
36.8 -0.09306
36.85 -0.09668
36.9 -0.09711
36.95 -0.09692
37 -0.09553
37.05 -0.09873
37.1 -0.10322
37.15 -0.10294
37.2 -0.09907
37.25 -0.09907
37.3 -0.1003
37.35 -0.10446
37.4 -0.10642
37.45 -0.10861
37.5 -0.10663
37.55 -0.10691
37.6 -0.10816
37.65 -0.10505
37.7 -0.09967
37.75 -0.09927
37.8 -0.09599
37.85 -0.0912
37.9 -0.085
37.95 -0.07829
38 -0.07329
38.05 -0.07425
38.1 -0.07765
38.15 -0.07808
38.2 -0.07537
38.25 -0.0704
38.3 -0.06452
38.35 -0.06489
38.4 -0.06617
38.45 -0.06485
38.5 -0.06111
38.55 -0.05508
38.6 -0.04859
38.65 -0.04642
38.7 -0.04228
38.75 -0.03849
38.8 -0.03406
38.85 -0.03867
38.9 -0.04786
38.95 -0.05321
39 -0.05777
39.05 -0.05977
39.1 -0.05918
39.15 -0.05799
39.2 -0.05542
39.25 -0.05612
39.3 -0.05654
39.35 -0.05525
39.4 -0.05221
39.45 -0.05001
39.5 -0.04566
39.55 -0.04184
39.6 -0.04042
39.65 -0.03779
39.7 -0.03943
39.75 -0.03796
39.8 -0.03827
39.85 -0.04292
39.9 -0.04729
39.95 -0.05144
40 -0.05662
40.05 -0.05705
40.1 -0.05262
40.15 -0.05048
40.2 -0.05105
40.25 -0.05496
40.3 -0.05984
40.35 -0.06605
40.4 -0.06385
40.45 -0.06428
40.5 -0.06546
40.55 -0.06801
40.6 -0.06684
40.65 -0.06412
40.7 -0.06201
40.75 -0.05712
40.8 -0.05614
40.85 -0.05357
40.9 -0.05403
40.95 -0.05001
41 -0.04458
41.05 -0.04461
41.1 -0.0416
41.15 -0.03589
41.2 -0.02827
41.25 -0.02427
41.3 -0.02401
41.35 -0.01994
41.4 -0.01496
41.45 -0.01374
41.5 -0.01755
41.55 -0.02448
41.6 -0.02706
41.65 -0.02994
41.7 -0.0328
41.75 -0.03465
41.8 -0.03761
41.85 -0.04052
41.9 -0.03766
41.95 -0.03116
42 -0.02831
42.05 -0.02962
42.1 -0.0315
42.15 -0.03018
42.2 -0.02777
42.25 -0.02146
42.3 -0.01821
42.35 -0.01528
42.4 -0.01686
42.45 -0.01812
42.5 -0.01913
42.55 -0.02045
42.6 -0.01709
42.65 -0.01946
42.7 -0.02207
42.75 -0.02493
42.8 -0.02562
42.85 -0.0248
42.9 -0.02441
42.95 -0.02772
43 -0.02965
43.05 -0.03195
43.1 -0.03217
43.15 -0.02651
43.2 -0.02438
43.25 -0.02451
43.3 -0.02319
43.35 -0.02066
43.4 -0.02119
43.45 -0.02316
43.5 -0.02454
43.55 -0.02637
43.6 -0.03001
43.65 -0.0277
43.7 -0.02918
43.75 -0.02769
43.8 -0.02835
43.85 -0.02994
43.9 -0.03402
43.95 -0.03699
44 -0.0361
44.05 -0.03263
44.1 -0.02828
44.15 -0.02806
44.2 -0.02584
44.25 -0.02157
44.3 -0.01331
44.35 -0.00829
44.4 -0.00337
44.45 0.0003
44.5 -0.00262
44.55 -0.00855
44.6 -0.00851
44.65 -0.0082
44.7 -0.01146
44.75 -0.01579
44.8 -0.01916
44.85 -0.01678
44.9 -0.01636
44.95 -0.01621
45 -0.01749
45.05 -0.01577
45.1 -0.01281
45.15 -0.0068
45.2 -0.00542
45.25 -0.00325
45.3 -0.00489
45.35 -0.00956
45.4 -0.01619
45.45 -0.0225
45.5 -0.02872
45.55 -0.03179
45.6 -0.03226
45.65 -0.02664
45.7 -0.01831
45.75 -0.0151
45.8 -0.01556
45.85 -0.01865
45.9 -0.01956
45.95 -0.02319
46 -0.02466
46.05 -0.02311
46.1 -0.0203
46.15 -0.01298
46.2 -0.01106
46.25 -0.00672
46.3 -0.00246
46.35 -0.0042
46.4 -0.00521
46.45 -0.00281
46.5 -0.00224
46.55 0.00157
46.6 -0.00015
46.65 -0.00117
46.7 -0.00208
46.75 -0.00242
46.8 -0.00083
46.85 -0.00392
46.9 -0.00678
46.95 -0.00857
47 -0.01289
47.05 -0.01185
47.1 -0.01163
47.15 -0.00682
47.2 0.00063
47.25 0.00366
47.3 0.00181
47.35 -0.00003
47.4 0.00146
47.45 0.0018
47.5 -0.00229
47.55 -0.00753
47.6 -0.01455
47.65 -0.01836
47.7 -0.01821
47.75 -0.01514
47.8 -0.01046
47.85 -0.00951
47.9 -0.00763
47.95 -0.0102
48 -0.00735
48.05 -0.00703
48.1 -0.004
48.15 -0.0039
48.2 -0.00455
48.25 -0.00535
48.3 -0.00067
48.35 0.00095
48.4 0.00103
48.45 0.00253
48.5 0.00569
48.55 0.01049
48.6 0.01067
48.65 0.01105
48.7 0.0117
48.75 0.01549
48.8 0.0184
48.85 0.02098
48.9 0.01692
48.95 0.01094
49 0.01062
49.05 0.00918
49.1 0.0087
49.15 0.00921
49.2 0.00784
49.25 0.00717
49.3 0.00805
49.35 0.00736
49.4 0.00721
49.45 0.01002
49.5 0.01411
49.55 0.013
49.6 0.01342
49.65 0.00803
49.7 0.00395
49.75 -0.00248
49.8 -0.0075
49.85 -0.00592
49.9 -0.0058
49.95 -0.00234
50 -0.0029
50.05 -0.00762
50.1 -0.01403
50.15 -0.01394
50.2 -0.01526
50.25 -0.01478
50.3 -0.01752
50.35 -0.01851
50.4 -0.01648
50.45 -0.01622
50.5 -0.01164
50.55 -0.01047
50.6 -0.00714
50.65 -0.00377
50.7 -0.00101
50.75 0.00127
50.8 0.00164
50.85 0.00207
50.9 0.00268
50.95 0.00193
51 0.00145
51.05 -0.00319
51.1 -0.00708
51.15 -0.01268
51.2 -0.0135
51.25 -0.01467
51.3 -0.01203
51.35 -0.0091
51.4 -0.00407
51.45 -0.00042
51.5 0.00067
51.55 -0.0012
51.6 0.00259
51.65 0.00273
51.7 -0.00149
51.75 -0.00082
51.8 0.00227
51.85 0.00585
51.9 0.00419
51.95 0.00371
52 0.0066
52.05 0.0121
52.1 0.01252
52.15 0.01464
52.2 0.01834
52.25 0.01625
52.3 0.01401
52.35 0.00975
52.4 0.00873
52.45 0.00996
52.5 0.00604
52.55 0.00448
52.6 0.00405
52.65 0.00472
52.7 0.00586
52.75 0.0079
52.8 0.00534
52.85 -0.0013
52.9 -0.00307
52.95 -0.00573
53 -0.00789
53.05 -0.00423
53.1 0.00164
53.15 0.00149
53.2 -0.00134
53.25 -0.00344
53.3 -0.0024
53.35 0.00179
53.4 0.00574
53.45 0.01093
53.5 0.01021
53.55 0.00468
53.6 -0.00332
53.65 -0.00556
53.7 -0.00771
53.75 -0.00565
53.8 -0.00726
53.85 -0.00929
53.9 -0.01282
53.95 -0.01701
54 -0.02023
54.05 -0.02352
54.1 -0.02151
54.15 -0.01474
54.2 -0.01092
54.25 -0.00939
54.3 -0.00328
54.35 0.00087
54.4 0.00524
54.45 0.00709
54.5 0.0079
54.55 0.00488
54.6 -0.00149
54.65 -0.00874
54.7 -0.00939
54.75 -0.01014
54.8 -0.00922
54.85 -0.00722
54.9 -0.00619
54.95 -0.00353
55 0.00241
55.05 0.00897
55.1 0.00881
55.15 0.00375
55.2 0.00488
55.25 0.00754
55.3 0.01126
55.35 0.01253
55.4 0.0138
55.45 0.01235
55.5 0.00731
55.55 0.00323
55.6 -0.00393
55.65 -0.00969
55.7 -0.0112
55.75 -0.00709
55.8 0.00073
55.85 0.00489
55.9 0.00967
55.95 0.00745
56 0.00706
56.05 0.00961
56.1 0.01108
56.15 0.01016
56.2 0.00999
56.25 0.01364
56.3 0.01433
56.35 0.01135
56.4 0.01152
56.45 0.01017
56.5 0.00916
56.55 0.01112
56.6 0.01585
56.65 0.01417
56.7 0.00948
56.75 0.00757
56.8 0.00212
56.85 -0.00436
56.9 -0.00752
56.95 -0.01191
57 -0.01578
57.05 -0.02052
57.1 -0.02492
57.15 -0.02598
57.2 -0.02003
57.25 -0.01677
57.3 -0.01319
57.35 -0.00771
57.4 0.00023
57.45 0.00561
57.5 0.00531
57.55 0.00055
57.6 -0.007
57.65 -0.00948
57.7 -0.00894
57.75 -0.01109
57.8 -0.01513
57.85 -0.01645
57.9 -0.01637
57.95 -0.01136
58 -0.00846
58.05 -0.00714
58.1 -0.00694
58.15 -0.00371
58.2 -0.00104
58.25 -0.00097
58.3 0.00073
58.35 -0.0028
58.4 -0.00066
58.45 0.00257
58.5 0.00495
58.55 0.00455
58.6 0.00062
58.65 -0.00506
58.7 -0.00443
58.75 -0.00409
58.8 -0.00033
58.85 0.00222
58.9 0.00311
58.95 0.00317
59 0.00311
59.05 0.00744
59.1 0.01145
59.15 0.01679
59.2 0.02067
59.25 0.0231
59.3 0.02104
59.35 0.02265
59.4 0.02235
59.45 0.01965
59.5 0.01824
59.55 0.01734
59.6 0.01318
59.65 0.00786
59.7 0.00677
59.75 0.00842
59.8 0.00505
59.85 0.00403
59.9 0.00219
59.95 0.00027
60 0.00216
60.05 0.00373
60.1 0.00293
60.15 0.00016
60.2 -0.00566
60.25 -0.01097
60.3 -0.01649
60.35 -0.01566
60.4 -0.0178
60.45 -0.02103
60.5 -0.02611
60.55 -0.0318
60.6 -0.02943
60.65 -0.0237
60.7 -0.01817
60.75 -0.00932
60.8 -0.00176
60.85 0.00337
60.9 0.00227
60.95 0.00241
61 0.00209
61.05 0.00362
61.1 0.00213
61.15 0.00084
61.2 -0.0016
61.25 -0.00548
61.3 -0.00291
61.35 0.00348
61.4 0.00752
61.45 0.00747
61.5 0.00705
61.55 0.00634
61.6 0.00127
61.65 -0.00201
61.7 -0.00584
61.75 -0.01228
61.8 -0.01207
61.85 -0.01046
61.9 -0.00657
61.95 -0.00029
62 0.00325
62.05 0.00514
62.1 0.00896
62.15 0.01165
62.2 0.01173
62.25 0.0097
62.3 0.00805
62.35 0.00556
62.4 0.00671
62.45 0.00722
62.5 0.00586
62.55 0.00651
62.6 0.00416
62.65 0.00341
62.7 0.00065
62.75 -0.00073
62.8 0.00071
62.85 0.00282
62.9 0.00551
62.95 0.00898
63 0.01435
63.05 0.01545
63.1 0.01584
63.15 0.0183
63.2 0.01436
63.25 0.01107
63.3 0.01249
63.35 0.01109
63.4 0.00463
63.45 -0.00438
63.5 -0.00938
63.55 -0.01524
63.6 -0.01995
63.65 -0.02066
63.7 -0.02332
63.75 -0.02095
63.8 -0.02191
63.85 -0.01697
63.9 -0.01451
63.95 -0.00937
64 -0.00155
64.05 0.00637
64.1 0.00959
64.15 0.00998
64.2 0.00601
64.25 0.00509
64.3 0.00484
64.35 0.00887
64.4 0.01091
64.45 0.00989
64.5 0.01255
64.55 0.01659
64.6 0.01873
64.65 0.01906
64.7 0.01598
64.75 0.01102
64.8 0.01066
64.85 0.00523
64.9 0.00229
64.95 -0.00228
65 -0.0038
65.05 -0.00547
65.1 -0.00764
65.15 -0.00439
65.2 -0.00168
65.25 -0.00167
65.3 -0.00102
65.35 -0.0022
65.4 -0.00566
65.45 -0.00422
65.5 -0.00425
65.55 -0.00346
65.6 -0.00265
65.65 -0.00354
65.7 -0.0054
65.75 -0.00569
65.8 -0.00936
65.85 -0.00962
65.9 -0.01246
65.95 -0.01423
66 -0.01066
66.05 -0.00364
66.1 0.00154
66.15 0.00081
66.2 0.00341
66.25 0.00877
66.3 0.01307
66.35 0.01519
66.4 0.0123
66.45 0.00844
66.5 0.00236
66.55 -0.00218
66.6 -0.00245
66.65 -0.00403
66.7 -0.0052
66.75 -0.00859
66.8 -0.00658
66.85 -0.00383
66.9 0.00006
66.95 -0.00032
67 -0.00119
67.05 -0.002
67.1 0.00077
67.15 0.00149
67.2 0.00117
67.25 0.00273
67.3 0.00726
67.35 0.01007
67.4 0.00828
67.45 0.00455
67.5 -0.00244
67.55 -0.00467
67.6 -0.00209
67.65 -0.00086
67.7 0.00204
67.75 0.00054
67.8 0.00327
67.85 0.00563
67.9 0.00874
67.95 0.00909
68 0.01138
68.05 0.00922
68.1 0.00408
68.15 -0.00235
68.2 -0.007
68.25 -0.01091
68.3 -0.01274
68.35 -0.01669
68.4 -0.01473
68.45 -0.0094
68.5 -0.00963
68.55 -0.00756
68.6 -0.00896
68.65 -0.00696
68.7 -0.007
68.75 -0.00591
68.8 -0.00362
68.85 0.00032
68.9 -0.00079
68.95 -0.00279
69 -0.00568
69.05 -0.00843
69.1 -0.0079
69.15 -0.00763
69.2 -0.00637
69.25 -0.00262
69.3 -0.00222
69.35 -0.00445
69.4 -0.00479
69.45 -0.00437
69.5 -0.00286
69.55 -0.00267
69.6 -0.00085
69.65 0.00364
69.7 0.00505
69.75 0.00752
69.8 0.01163
69.85 0.01685
69.9 0.01466
69.95 0.00721
70 0.00269
70.05 -0.00031
70.1 0.00162
70.15 0.00223
70.2 0.00318
70.25 0.00577
70.3 0.00795
70.35 0.005
70.4 0.00364
70.45 0.00323
70.5 0.0071
70.55 0.00968
70.6 0.01103
70.65 0.01401
70.7 0.01823
70.75 0.02249
70.8 0.02662
70.85 0.0283
70.9 0.02905
70.95 0.02379
71 0.01922
71.05 0.0131
71.1 0.00817
71.15 0.00164
71.2 -0.00227
71.25 -0.0019
71.3 0.00189
71.35 0.00797
71.4 0.01312
71.45 0.01573
71.5 0.01876
71.55 0.01551
71.6 0.01327
71.65 0.00959
71.7 0.00418
71.75 0.0043
71.8 -0.00074
71.85 -0.00573
71.9 -0.00758
71.95 -0.01062
72 -0.01518
72.05 -0.02179
72.1 -0.02793
72.15 -0.03317
72.2 -0.03166
72.25 -0.03154
72.3 -0.02547
72.35 -0.01614
72.4 -0.00968
72.45 -0.00401
72.5 -0.00381
72.55 -0.00162
72.6 0.00187
72.65 0.00701
72.7 0.00987
72.75 0.00631
72.8 0.00562
72.85 0.00889
72.9 0.01168
72.95 0.01584
73 0.0142
73.05 0.01561
73.1 0.01667
73.15 0.01363
73.2 0.00646
73.25 0.0026
73.3 -0.00432
73.35 -0.00769
73.4 -0.0104
73.45 -0.01609
73.5 -0.02021
73.55 -0.0262
73.6 -0.03056
73.65 -0.02721
73.7 -0.01909
73.75 -0.00891
73.8 -0.00256
73.85 -0.00072
73.9 0.00446
73.95 0.01034
74 0.0089
74.05 0.00687
74.1 0.00479
74.15 -0.00043
74.2 -0.00245
74.25 -0.00629
74.3 -0.00472
74.35 -0.00568
74.4 -0.00962
74.45 -0.01199
74.5 -0.00815
74.55 -0.00273
74.6 0.00039
74.65 0.00589
74.7 0.00709
74.75 0.01037
74.8 0.01347
74.85 0.01114
74.9 0.00699
74.95 0.00345
75 0.00385
75.05 0.00777
75.1 0.00529
75.15 0.00477
75.2 0.00827
75.25 0.00513
75.3 0.00229
75.35 0.0009
75.4 -0.00015
75.45 -0.00544
75.5 -0.00795
75.55 -0.00862
75.6 -0.00628
75.65 -0.00249
75.7 -0.00357
75.75 -0.00091
75.8 0.00059
75.85 -0.0035
75.9 -0.00923
75.95 -0.01364
76 -0.01827
76.05 -0.02297
76.1 -0.02665
76.15 -0.02483
76.2 -0.02582
76.25 -0.02713
76.3 -0.02152
76.35 -0.01224
76.4 -0.00292
76.45 0.00304
76.5 0.00257
76.55 0.00054
76.6 0.00196
76.65 0.00223
76.7 -0.00083
76.75 -0.00345
76.8 -0.00701
76.85 -0.01223
76.9 -0.01603
76.95 -0.01965
77 -0.02376
77.05 -0.0288
77.1 -0.02547
77.15 -0.01782
77.2 -0.00762
77.25 0.00095
77.3 0.00892
77.35 0.01546
77.4 0.01726
77.45 0.0211
77.5 0.021
77.55 0.01759
77.6 0.01055
77.65 0.005
77.7 -0.00169
77.75 -0.00436
77.8 -0.00657
77.85 -0.00751
77.9 -0.00933
77.95 -0.01255
78 -0.01182
78.05 -0.00946
78.1 -0.01045
78.15 -0.00841
78.2 -0.00846
78.25 -0.00701
78.3 -0.00259
78.35 -0.00243
78.4 -0.00402
78.45 -0.00833
78.5 -0.01447
78.55 -0.01803
78.6 -0.01797
78.65 -0.01768
78.7 -0.01666
78.75 -0.01815
78.8 -0.01456
78.85 -0.0151
78.9 -0.01745
78.95 -0.02182
79 -0.02458
79.05 -0.02563
79.1 -0.02269
79.15 -0.01611
79.2 -0.00673
79.25 -0.00438
79.3 -0.00435
79.35 -0.00528
79.4 -0.00665
79.45 -0.00271
79.5 0.00429
79.55 0.0061
79.6 0.00471
79.65 0.00182
79.7 -0.00107
79.75 -0.00477
79.8 -0.00838
79.85 -0.00521
79.9 0.00163
79.95 0.00593
80 0.00788
80.05 0.01009
80.1 0.00839
80.15 0.00309
80.2 0.00167
80.25 0.00486
80.3 0.00739
80.35 0.00555
80.4 0.00223
80.45 -0.00404
80.5 -0.00524
80.55 -0.00677
80.6 -0.01009
80.65 -0.01145
80.7 -0.01224
80.75 -0.01592
80.8 -0.01399
80.85 -0.00734
80.9 -0.0065
80.95 -0.00326
81 -0.00468
81.05 -0.0006
81.1 0.00344
81.15 0.01009
81.2 0.01715
81.25 0.02087
81.3 0.02597
81.35 0.02866
81.4 0.02892
81.45 0.03151
81.5 0.03281
81.55 0.02716
81.6 0.02094
81.65 0.01911
81.7 0.01834
81.75 0.01792
81.8 0.01539
81.85 0.0154
81.9 0.01104
81.95 0.00726
82 0.00638
82.05 0.00189
82.1 0.00264
82.15 -0.00172
82.2 -0.00601
82.25 -0.00945
82.3 -0.00804
82.35 -0.00521
82.4 -0.00458
82.45 -0.00698
82.5 -0.01051
82.55 -0.01127
82.6 -0.01172
82.65 -0.01123
82.7 -0.01227
82.75 -0.01285
82.8 -0.01533
82.85 -0.01805
82.9 -0.02127
82.95 -0.02364
83 -0.02148
83.05 -0.02163
83.1 -0.02341
83.15 -0.02459
83.2 -0.01978
83.25 -0.01359
83.3 -0.01209
83.35 -0.01373
83.4 -0.01303
83.45 -0.01566
83.5 -0.01384
83.55 -0.0108
83.6 -0.00996
83.65 -0.00711
83.7 -0.00793
83.75 -0.00658
83.8 -0.00884
83.85 -0.00542
83.9 0.00057
83.95 0.0011
84 -0.00067
84.05 -0.00318
84.1 -0.0018
84.15 -0.00102
84.2 -0.00316
84.25 -0.00775
84.3 -0.00692
84.35 -0.00189
84.4 0.0051
84.45 0.00641
84.5 0.00517
84.55 0.00422
84.6 -0.0005
84.65 -0.00228
84.7 -0.00232
84.75 0.00257
84.8 0.00627
84.85 0.00733
84.9 0.00713
84.95 0.00564
85 0.00706
85.05 0.00637
85.1 0.00897
85.15 0.00922
85.2 0.00557
85.25 -0.0009
85.3 -0.00514
85.35 -0.0061
85.4 -0.00619
85.45 -0.00248
85.5 0.00023
85.55 0.0048
85.6 0.00862
85.65 0.00856
85.7 0.00359
85.75 0.00091
85.8 0.00243
85.85 0.00433
85.9 0.00473
85.95 0.00024
86 0.0001
86.05 -0.00231
86.1 -0.0016
86.15 -0.00489
86.2 -0.00427
86.25 -0.00676
86.3 -0.01061
86.35 -0.01246
86.4 -0.00997
86.45 -0.01149
86.5 -0.01401
86.55 -0.01514
86.6 -0.01825
86.65 -0.01714
86.7 -0.01465
86.75 -0.00987
86.8 -0.00447
86.85 -0.00224
86.9 -0.00105
86.95 0.00199
87 0.00474
87.05 0.00587
87.1 0.00902
87.15 0.01542
87.2 0.01875
87.25 0.02103
87.3 0.02221
87.35 0.0199
87.4 0.01646
87.45 0.01699
87.5 0.01358
87.55 0.00951
87.6 0.00373
87.65 0.00334
87.7 0.00095
87.75 0.0023
87.8 0.00628
87.85 0.00627
87.9 0.01063
87.95 0.00876
88 0.00324
88.05 0.00126
88.1 0.00014
88.15 0.00188
88.2 0.00004
88.25 -0.00495
88.3 -0.0047
88.35 -0.00293
88.4 0.00093
88.45 0.00175
88.5 0.00697
88.55 0.01272
88.6 0.01716
88.65 0.01671
88.7 0.01467
88.75 0.01439
88.8 0.01571
88.85 0.01934
88.9 0.01631
88.95 0.0173
89 0.01988
89.05 0.01555
89.1 0.01423
89.15 0.01036
89.2 0.00781
89.25 0.00829
89.3 0.00484
89.35 0.00176
89.4 0.00232
89.45 0.0032
89.5 0.0045
89.55 0.00484
89.6 0.00061
89.65 -0.00276
89.7 -0.00366
89.75 -0.00771
89.8 -0.01039
89.85 -0.01515
89.9 -0.01618
89.95 -0.01513
90 -0.0117
90.05 -0.00551
90.1 0.00308
90.15 0.01143
90.2 0.01188
90.25 0.00819
90.3 0.0036
90.35 -0.00382
90.4 -0.00384
90.45 -0.00536
90.5 -0.00972
90.55 -0.0148
90.6 -0.01996
90.65 -0.02174
90.7 -0.02267
90.75 -0.01889
90.8 -0.01817
90.85 -0.02028
90.9 -0.01838
90.95 -0.01093
91 -0.00571
91.05 -0.00273
91.1 0.00357
91.15 0.01049
91.2 0.01581
91.25 0.02267
91.3 0.02656
91.35 0.02817
91.4 0.02939
91.45 0.02404
91.5 0.023
91.55 0.01997
91.6 0.01199
91.65 0.00766
91.7 0.0023
91.75 -0.00264
91.8 -0.00259
91.85 -0.00344
91.9 -0.00195
91.95 -0.00296
92 -0.00178
92.05 -0.0009
92.1 0.00123
92.15 0.00213
92.2 0.00022
92.25 0.00048
92.3 0.00358
92.35 0.00702
92.4 0.00499
92.45 -0.00087
92.5 -0.00755
92.55 -0.00789
92.6 -0.0072
92.65 -0.00558
92.7 -0.0068
92.75 -0.00898
92.8 -0.01224
92.85 -0.00925
92.9 -0.00664
92.95 -0.0023
93 -0.00326
93.05 -0.00069
93.1 -0.00156
93.15 0.00192
93.2 0.00646
93.25 0.01175
93.3 0.01072
93.35 0.01083
93.4 0.01289
93.45 0.00996
93.5 0.01124
93.55 0.00682
93.6 -0.00096
93.65 -0.0018
93.7 0.0016
93.75 0.00267
93.8 0.00691
93.85 0.01235
93.9 0.01603
93.95 0.01763
94 0.01301
94.05 0.00632
94.1 0.006
94.15 0.00768
94.2 0.00805
94.25 0.00915
94.3 0.00891
94.35 0.00383
94.4 0.00094
94.45 -0.00041
94.5 -0.0047
94.55 -0.0026
94.6 0.00125
94.65 0.00387
94.7 0.00934
94.75 0.00887
94.8 0.01172
94.85 0.00991
94.9 0.00945
94.95 0.00463
95 -0.00147
95.05 -0.00534
95.1 -0.00716
95.15 -0.00494
95.2 -0.0033
95.25 -0.00587
95.3 -0.00443
95.35 -0.00609
95.4 -0.00375
95.45 -0.00488
95.5 -0.00803
95.55 -0.01335
95.6 -0.01641
95.65 -0.01639
95.7 -0.01409
95.75 -0.01065
95.8 -0.00787
95.85 -0.00648
95.9 -0.00904
95.95 -0.0114
96 -0.01132
96.05 -0.01444
96.1 -0.0189
96.15 -0.02022
96.2 -0.01941
96.25 -0.02129
96.3 -0.02109
96.35 -0.0177
96.4 -0.01814
96.45 -0.01674
96.5 -0.01378
96.55 -0.00932
96.6 -0.00843
96.65 -0.01025
96.7 -0.01176
96.75 -0.01081
96.8 -0.00556
96.85 -0.00319
96.9 -0.00326
96.95 -0.00145
97 -0.00311
97.05 -0.00826
97.1 -0.01459
97.15 -0.01989
97.2 -0.02251
97.25 -0.01944
97.3 -0.0121
97.35 -0.00597
97.4 -0.00183
97.45 -0.00262
97.5 -0.0038
97.55 -0.00267
97.6 -0.00108
97.65 0.00083
97.7 -0.00133
97.75 -0.00483
97.8 -0.0083
97.85 -0.01053
97.9 -0.0127
97.95 -0.01349
98 -0.0127
98.05 -0.01376
98.1 -0.01481
98.15 -0.01387
98.2 -0.012
98.25 -0.00662
98.3 0.00115
98.35 0.0088
98.4 0.01377
98.45 0.01623
98.5 0.01806
98.55 0.01447
98.6 0.00792
98.65 0.00161
98.7 -0.00609
98.75 -0.01121
98.8 -0.00979
98.85 -0.00976
98.9 -0.00406
98.95 -0.00038
99 0.00493
99.05 0.00966
99.1 0.01609
99.15 0.01753
99.2 0.01521
99.25 0.01532
99.3 0.01073
99.35 0.0103
99.4 0.01223
99.45 0.01731
99.5 0.01687
99.55 0.01236
99.6 0.00497
99.65 0.0024
99.7 -0.00252
99.75 -0.0063
99.8 -0.00603
99.85 -0.00425
99.9 -0.00723
99.95 -0.00881
