0 0
0.05 0.0033
0.1 0.01292
0.15 0.02405
0.2 0.02931
0.25 0.03408
0.3 0.043
0.35 0.05064
0.4 0.05548
0.45 0.06065
0.5 0.05969
0.55 0.0593
0.6 0.05622
0.65 0.05718
0.7 0.05374
0.75 0.04846
0.8 0.04682
0.85 0.05013
0.9 0.04982
0.95 0.04772
1 0.04516
1.05 0.04004
1.1 0.03868
1.15 0.03828
1.2 0.03888
1.25 0.04169
1.3 0.0428
1.35 0.04226
1.4 0.04343
1.45 0.0461
1.5 0.04793
1.55 0.04513
1.6 0.03966
1.65 0.0323
1.7 0.03232
1.75 0.03659
1.8 0.04245
1.85 0.04522
1.9 0.04314
1.95 0.03645
2 0.03183
2.05 0.03107
2.1 0.02605
2.15 0.0186
2.2 0.01599
2.25 0.01641
2.3 0.0207
2.35 0.02345
2.4 0.0223
2.45 0.02325
2.5 0.02489
2.55 0.02425
2.6 0.01952
2.65 0.01865
2.7 0.02318
2.75 0.02775
2.8 0.02952
2.85 0.03082
2.9 0.0343
2.95 0.03789
3 0.03609
3.05 0.03331
3.1 0.02791
3.15 0.02671
3.2 0.02911
3.25 0.03081
3.3 0.02953
3.35 0.03102
3.4 0.03427
3.45 0.03174
3.5 0.03108
3.55 0.02677
3.6 0.0225
3.65 0.01782
3.7 0.01738
3.75 0.01622
3.8 0.01367
3.85 0.0096
3.9 0.00868
3.95 0.00886
4 0.00475
4.05 0.00616
4.1 0.00287
4.15 0.0015
4.2 0.00465
4.25 0.00394
4.3 0.00205
4.35 0.00189
4.4 -0.00272
4.45 -0.00702
4.5 -0.01382
4.55 -0.02264
4.6 -0.03194
4.65 -0.04151
4.7 -0.05187
4.75 -0.06742
4.8 -0.09191
4.85 -0.12088
4.9 -0.15429
4.95 -0.19589
5 -0.23693
5.05 -0.28511
5.1 -0.33427
5.15 -0.38836
5.2 -0.44671
5.25 -0.51116
5.3 -0.58603
5.35 -0.66442
5.4 -0.74551
5.45 -0.83033
5.5 -0.9263
5.55 -1.0221
5.6 -1.12127
5.65 -1.22517
5.7 -1.32672
5.75 -1.42747
5.8 -1.52738
5.85 -1.62444
5.9 -1.72127
5.95 -1.81075
6 -1.89258
6.05 -1.97503
6.1 -2.04829
6.15 -2.11676
6.2 -2.18265
6.25 -2.24668
6.3 -2.30755
6.35 -2.3622
6.4 -2.40984
6.45 -2.44738
6.5 -2.48071
6.55 -2.50287
6.6 -2.51728
6.65 -2.52398
6.7 -2.52045
6.75 -2.50067
6.8 -2.46653
6.85 -2.41693
6.9 -2.35327
6.95 -2.2655
7 -2.16461
7.05 -2.0489
7.1 -1.91599
7.15 -1.76384
7.2 -1.60052
7.25 -1.42933
7.3 -1.24307
7.35 -1.04995
7.4 -0.8484
7.45 -0.64551
7.5 -0.43738
7.55 -0.23362
7.6 -0.03383
7.65 0.16143
7.7 0.3527
7.75 0.54056
7.8 0.72095
7.85 0.89088
7.9 1.05667
7.95 1.21015
8 1.35767
8.05 1.49393
8.1 1.61752
8.15 1.72718
8.2 1.81902
8.25 1.90099
8.3 1.97409
8.35 2.03942
8.4 2.09324
8.45 2.13827
8.5 2.17094
8.55 2.19731
8.6 2.21529
8.65 2.22607
8.7 2.23738
8.75 2.23977
8.8 2.24219
8.85 2.2403
8.9 2.23795
8.95 2.22998
9 2.2191
9.05 2.20895
9.1 2.1995
9.15 2.18309
9.2 2.16701
9.25 2.14774
9.3 2.12868
9.35 2.10712
9.4 2.08345
9.45 2.05736
9.5 2.02606
9.55 1.99422
9.6 1.96741
9.65 1.93943
9.7 1.90861
9.75 1.88048
9.8 1.84731
9.85 1.81004
9.9 1.76986
9.95 1.73583
10 1.70437
10.05 1.66731
10.1 1.62916
10.15 1.58629
10.2 1.54475
10.25 1.50357
10.3 1.46078
10.35 1.42065
10.4 1.37841
10.45 1.3387
10.5 1.29256
10.55 1.24532
10.6 1.19477
10.65 1.1485
10.7 1.10416
10.75 1.05968
10.8 1.01217
10.85 0.96381
10.9 0.91856
10.95 0.87122
11 0.82221
11.05 0.77805
11.1 0.7285
11.15 0.67601
11.2 0.627
11.25 0.58
11.3 0.53326
11.35 0.49357
11.4 0.45125
11.45 0.41504
11.5 0.37933
11.55 0.34488
11.6 0.30955
11.65 0.27646
11.7 0.24514
11.75 0.21077
11.8 0.18017
11.85 0.1466
11.9 0.11456
11.95 0.07876
12 0.04289
12.05 0.00581
12.1 -0.02911
12.15 -0.05797
12.2 -0.08687
12.25 -0.11541
12.3 -0.14321
12.35 -0.16239
12.4 -0.1789
12.45 -0.1973
12.5 -0.20954
12.55 -0.21973
12.6 -0.22741
12.65 -0.23385
12.7 -0.24542
12.75 -0.2616
12.8 -0.27869
12.85 -0.29114
12.9 -0.30523
12.95 -0.31332
13 -0.31917
13.05 -0.32999
13.1 -0.33733
13.15 -0.34259
13.2 -0.35218
13.25 -0.35777
13.3 -0.35993
13.35 -0.36566
13.4 -0.36697
13.45 -0.36973
13.5 -0.37424
13.55 -0.37285
13.6 -0.36956
13.65 -0.37204
13.7 -0.37573
13.75 -0.38208
13.8 -0.38545
13.85 -0.39083
13.9 -0.39499
13.95 -0.39901
14 -0.39852
14.05 -0.39519
14.1 -0.39285
14.15 -0.38471
14.2 -0.37661
14.25 -0.36794
14.3 -0.3612
14.35 -0.35429
14.4 -0.34502
14.45 -0.33442
14.5 -0.33167
14.55 -0.32966
14.6 -0.33131
14.65 -0.32952
14.7 -0.32946
14.75 -0.33247
14.8 -0.3286
14.85 -0.32305
14.9 -0.31852
14.95 -0.30972
15 -0.30156
15.05 -0.2957
15.1 -0.28723
15.15 -0.2841
15.2 -0.2848
15.25 -0.28668
15.3 -0.28399
15.35 -0.28284
15.4 -0.28057
15.45 -0.27574
15.5 -0.26886
15.55 -0.26219
15.6 -0.25381
15.65 -0.25048
15.7 -0.24947
15.75 -0.24642
15.8 -0.24314
15.85 -0.24103
15.9 -0.23638
15.95 -0.23243
16 -0.23307
16.05 -0.23012
16.1 -0.2219
16.15 -0.21195
16.2 -0.20702
16.25 -0.20312
16.3 -0.19774
16.35 -0.19332
16.4 -0.19414
16.45 -0.19625
16.5 -0.1963
16.55 -0.19771
16.6 -0.19448
16.65 -0.18831
16.7 -0.18065
16.75 -0.17313
16.8 -0.169
16.85 -0.16564
16.9 -0.16573
16.95 -0.16473
17 -0.16665
17.05 -0.17138
17.1 -0.16996
17.15 -0.16311
17.2 -0.15985
17.25 -0.15716
17.3 -0.15362
17.35 -0.14968
17.4 -0.14967
17.45 -0.14918
17.5 -0.14921
17.55 -0.14961
17.6 -0.15148
17.65 -0.15172
17.7 -0.15192
17.75 -0.1475
17.8 -0.14669
17.85 -0.14621
17.9 -0.14157
17.95 -0.13206
18 -0.12141
18.05 -0.1174
18.1 -0.11772
18.15 -0.11356
18.2 -0.11443
18.25 -0.11628
18.3 -0.11406
18.35 -0.1143
18.4 -0.11522
18.45 -0.11054
18.5 -0.10237
18.55 -0.09317
18.6 -0.08543
18.65 -0.07699
18.7 -0.06861
18.75 -0.06536
18.8 -0.06323
18.85 -0.06291
18.9 -0.06331
18.95 -0.06588
19 -0.06544
19.05 -0.06559
19.1 -0.06554
19.15 -0.06415
19.2 -0.06071
19.25 -0.05835
19.3 -0.05605
19.35 -0.0554
19.4 -0.06116
19.45 -0.06937
19.5 -0.076
19.55 -0.08344
19.6 -0.08573
19.65 -0.08909
19.7 -0.08706
19.75 -0.08212
19.8 -0.07443
19.85 -0.07337
19.9 -0.06852
19.95 -0.06186
20 -0.05348
20.05 -0.05203
20.1 -0.04892
20.15 -0.04838
20.2 -0.05053
20.25 -0.05032
20.3 -0.04802
20.35 -0.04555
20.4 -0.04472
20.45 -0.04542
20.5 -0.04937
20.55 -0.0553
20.6 -0.06045
20.65 -0.06666
20.7 -0.07203
20.75 -0.07028
20.8 -0.06698
20.85 -0.065
20.9 -0.06429
20.95 -0.06324
21 -0.0629
21.05 -0.06165
21.1 -0.0561
21.15 -0.05608
21.2 -0.05279
21.25 -0.05222
21.3 -0.04869
21.35 -0.04605
21.4 -0.04817
21.45 -0.05109
21.5 -0.05419
21.55 -0.05619
21.6 -0.05888
21.65 -0.05639
21.7 -0.05292
21.75 -0.05073
21.8 -0.05208
21.85 -0.05072
21.9 -0.05236
21.95 -0.05449
22 -0.05367
22.05 -0.05362
22.1 -0.04893
22.15 -0.04415
22.2 -0.03928
22.25 -0.03838
22.3 -0.04047
22.35 -0.04014
22.4 -0.03759
22.45 -0.03658
22.5 -0.03288
22.55 -0.03165
22.6 -0.0282
22.65 -0.02793
22.7 -0.03093
22.75 -0.0312
22.8 -0.03191
22.85 -0.03241
22.9 -0.02734
22.95 -0.02068
23 -0.01389
23.05 -0.01148
23.1 -0.00641
23.15 -0.0069
23.2 -0.0077
23.25 -0.01069
23.3 -0.01701
23.35 -0.0204
23.4 -0.02408
23.45 -0.02466
23.5 -0.02755
23.55 -0.02459
23.6 -0.02512
23.65 -0.02511
23.7 -0.02574
23.75 -0.0235
23.8 -0.02007
23.85 -0.0163
23.9 -0.01176
23.95 -0.00676
24 -0.00883
24.05 -0.0127
24.1 -0.01389
24.15 -0.01272
24.2 -0.01565
24.25 -0.01854
24.3 -0.01926
24.35 -0.02305
24.4 -0.02198
24.45 -0.01982
24.5 -0.01761
24.55 -0.0127
24.6 -0.00654
24.65 -0.00561
24.7 -0.0064
24.75 -0.00868
24.8 -0.01199
24.85 -0.01036
24.9 -0.01058
24.95 -0.0145
25 -0.0203
25.05 -0.02773
25.1 -0.03117
25.15 -0.03422
25.2 -0.03821
25.25 -0.03862
25.3 -0.03688
25.35 -0.0327
25.4 -0.02661
25.45 -0.02475
25.5 -0.02075
25.55 -0.01647
25.6 -0.01574
25.65 -0.01841
25.7 -0.02171
25.75 -0.02019
25.8 -0.0212
25.85 -0.01765
25.9 -0.01087
25.95 -0.00665
26 -0.00558
26.05 -0.00402
26.1 -0.00592
26.15 -0.00546
26.2 -0.00973
26.25 -0.00815
26.3 -0.00332
26.35 0.00275
26.4 0.00215
26.45 0.00519
26.5 0.00458
26.55 0.00385
26.6 -0.00021
26.65 -0.00363
26.7 -0.0049
26.75 -0.00274
26.8 -0.00163
26.85 0.00191
26.9 0.00219
26.95 0.00436
27 0.00541
27.05 0.0009
27.1 0.00014
27.15 -0.00038
27.2 0.00085
27.25 0.00298
27.3 0.00008
27.35 -0.00058
27.4 -0.00523
27.45 -0.01157
27.5 -0.01268
27.55 -0.01697
27.6 -0.01841
27.65 -0.02049
27.7 -0.02152
27.75 -0.0221
27.8 -0.01795
27.85 -0.01531
27.9 -0.01472
27.95 -0.00949
28 -0.00126
28.05 0.00776
28.1 0.01445
28.15 0.01751
28.2 0.01862
28.25 0.01804
28.3 0.02035
28.35 0.01762
28.4 0.01387
28.45 0.00751
28.5 0.00357
28.55 -0.00165
28.6 -0.00379
28.65 -0.00821
28.7 -0.00802
28.75 -0.00783
28.8 -0.0039
28.85 -0.00274
28.9 0.00224
28.95 0.00769
29 0.01417
29.05 0.01517
29.1 0.01239
29.15 0.0113
29.2 0.01286
29.25 0.01547
29.3 0.01294
29.35 0.01411
29.4 0.01327
29.45 0.01213
29.5 0.0068
29.55 0.00122
29.6 -0.00759
29.65 -0.01614
29.7 -0.02425
29.75 -0.03166
29.8 -0.03456
29.85 -0.03649
29.9 -0.0326
29.95 -0.02772
30 -0.01898
30.05 -0.0122
30.1 -0.00401
30.15 -0.00204
30.2 -0.00402
30.25 -0.00634
30.3 -0.0052
30.35 -0.00639
30.4 -0.00384
30.45 0.00149
30.5 0.008
30.55 0.01183
30.6 0.01694
30.65 0.02163
30.7 0.02247
30.75 0.01629
30.8 0.01103
30.85 0.00928
30.9 0.00274
30.95 -0.00599
31 -0.01412
31.05 -0.02271
31.1 -0.03012
31.15 -0.03674
31.2 -0.0363
31.25 -0.03145
31.3 -0.02945
31.35 -0.02731
31.4 -0.01945
31.45 -0.01556
31.5 -0.00852
31.55 -0.0014
31.6 0.00674
31.65 0.01487
31.7 0.01988
31.75 0.02166
31.8 0.01617
31.85 0.01107
31.9 0.00267
31.95 -0.00652
32 -0.01025
32.05 -0.0133
32.1 -0.0169
32.15 -0.01517
32.2 -0.01688
32.25 -0.01407
32.3 -0.00821
32.35 -0.00344
32.4 -0.00182
32.45 0.00091
32.5 0.00539
32.55 0.0056
32.6 0.0043
32.65 -0.00127
32.7 -0.00778
32.75 -0.01031
32.8 -0.00679
32.85 -0.00346
32.9 0.00079
32.95 0.00358
33 0.00713
33.05 0.00576
33.1 0.00331
33.15 0.0014
33.2 0.0011
33.25 0.00319
33.3 0.00819
33.35 0.0064
33.4 0.00873
33.45 0.0108
33.5 0.01252
33.55 0.00762
33.6 0.00078
33.65 0.0005
33.7 0.00276
33.75 0.00287
33.8 -0.00042
33.85 -0.00186
33.9 -0.00383
33.95 -0.00078
34 -0.00177
34.05 -0.00434
34.1 -0.00763
34.15 -0.01163
34.2 -0.01108
34.25 -0.00659
34.3 -0.0011
34.35 0.00397
34.4 0.00442
34.45 0.00341
34.5 -0.00199
34.55 -0.00864
34.6 -0.01455
34.65 -0.01487
34.7 -0.01665
34.75 -0.01952
34.8 -0.02297
34.85 -0.02521
34.9 -0.02456
34.95 -0.02553
35 -0.02017
35.05 -0.01302
35.1 -0.0088
35.15 -0.00858
35.2 -0.00999
35.25 -0.01345
35.3 -0.00969
35.35 -0.01046
35.4 -0.00679
35.45 -0.00259
35.5 0.00471
35.55 0.00986
35.6 0.013
35.65 0.0104
35.7 0.0114
35.75 0.01216
35.8 0.01406
35.85 0.01461
35.9 0.0128
35.95 0.01445
36 0.01607
36.05 0.02013
36.1 0.0177
36.15 0.01272
36.2 0.00872
36.25 0.00795
36.3 0.00777
36.35 0.00436
36.4 0.00147
36.45 -0.00173
36.5 -0.00413
36.55 -0.00329
36.6 -0.00352
36.65 -0.00084
36.7 -0.0005
36.75 -0.00418
36.8 -0.00215
36.85 0.00122
36.9 0.00271
36.95 0.00112
37 0.00279
37.05 0.00121
37.1 -0.00001
37.15 0.00269
37.2 0.00114
37.25 0.00398
37.3 0.00104
37.35 -0.00088
37.4 -0.00472
37.45 -0.00774
37.5 -0.01035
37.55 -0.00884
37.6 -0.00314
37.65 -0.00123
37.7 -0.00054
37.75 0.00026
37.8 -0.00072
37.85 -0.0036
37.9 -0.00311
37.95 -0.00292
38 -0.0055
38.05 -0.00876
38.1 -0.00871
38.15 -0.00682
38.2 -0.00389
38.25 -0.00147
38.3 0.0008
38.35 0.00591
38.4 0.01323
38.45 0.01236
38.5 0.01458
38.55 0.01841
38.6 0.02313
38.65 0.02215
38.7 0.01542
38.75 0.00521
38.8 -0.00279
38.85 -0.01199
38.9 -0.01947
38.95 -0.024
39 -0.02271
39.05 -0.01837
39.1 -0.01757
39.15 -0.01793
39.2 -0.0206
39.25 -0.02497
39.3 -0.02972
39.35 -0.02641
39.4 -0.02221
39.45 -0.02071
39.5 -0.01595
39.55 -0.01593
39.6 -0.01803
39.65 -0.02209
39.7 -0.02032
39.75 -0.01722
39.8 -0.01406
39.85 -0.01337
39.9 -0.01192
39.95 -0.00908
40 -0.01021
40.05 -0.01073
40.1 -0.01181
40.15 -0.01001
40.2 -0.00529
40.25 -0.00259
40.3 0.00031
40.35 0.00128
40.4 -0.00059
40.45 -0.00453
40.5 -0.00673
40.55 -0.00723
40.6 -0.00878
40.65 -0.01088
40.7 -0.01522
40.75 -0.01216
40.8 -0.00841
40.85 -0.00285
40.9 0.00095
40.95 0.00731
41 0.00739
41.05 0.00714
41.1 0.00517
41.15 0.00462
41.2 0.00042
41.25 -0.00527
41.3 -0.0067
41.35 -0.00728
41.4 -0.00544
41.45 -0.00732
41.5 -0.00751
41.55 -0.00624
41.6 -0.00459
41.65 -0.00447
41.7 -0.00035
41.75 0.0043
41.8 0.00997
41.85 0.0154
41.9 0.01405
41.95 0.0136
42 0.01584
42.05 0.02001
42.1 0.02107
42.15 0.0194
42.2 0.01276
42.25 0.01007
42.3 0.00642
42.35 0.00125
42.4 -0.0013
42.45 -0.00078
42.5 -0.00088
42.55 0.00398
42.6 0.00784
42.65 0.01182
42.7 0.01637
42.75 0.01441
42.8 0.00971
42.85 0.00868
42.9 0.00591
42.95 0.00538
43 0.00488
43.05 0.00169
43.1 0.00308
43.15 0.00626
43.2 0.006
43.25 0.00907
43.3 0.01425
43.35 0.021
43.4 0.02676
43.45 0.02608
43.5 0.02149
43.55 0.02129
43.6 0.02128
43.65 0.01984
43.7 0.01486
43.75 0.00699
43.8 0.00547
43.85 0.00765
43.9 0.00961
43.95 0.01346
44 0.01749
44.05 0.02292
44.1 0.02192
44.15 0.01895
44.2 0.0166
44.25 0.01315
44.3 0.01394
44.35 0.01452
44.4 0.01251
44.45 0.00584
44.5 0.00432
44.55 0.00452
44.6 0.00711
44.65 0.00734
44.7 0.0054
44.75 0.00653
44.8 0.00633
44.85 0.00479
44.9 0.00449
44.95 0.00447
45 0.00596
45.05 0.00887
45.1 0.00709
45.15 0.00648
45.2 0.00291
45.25 0.00392
45.3 0.00401
45.35 0.00719
45.4 0.01164
45.45 0.00997
45.5 0.00546
45.55 0.00568
45.6 0.00242
45.65 0.00123
45.7 -0.0027
45.75 -0.00814
45.8 -0.01184
45.85 -0.01425
45.9 -0.0142
45.95 -0.01288
46 -0.00831
46.05 -0.00418
46.1 0.00011
46.15 0.00233
46.2 0.00629
46.25 0.00852
46.3 0.00992
46.35 0.00905
46.4 0.00756
46.45 0.00451
46.5 -0.00175
46.55 -0.00974
46.6 -0.0172
46.65 -0.0193
46.7 -0.02125
46.75 -0.02003
46.8 -0.01841
46.85 -0.01496
46.9 -0.00981
46.95 -0.00995
47 -0.00992
47.05 -0.00878
47.1 -0.01093
47.15 -0.0106
47.2 -0.01263
47.25 -0.01521
47.3 -0.01807
47.35 -0.01407
47.4 -0.01292
47.45 -0.01127
47.5 -0.00524
47.55 0.00011
47.6 -0.00096
47.65 -0.00345
47.7 -0.00044
47.75 0.00581
47.8 0.00938
47.85 0.0135
47.9 0.01353
47.95 0.01649
48 0.02125
48.05 0.02059
48.1 0.01895
48.15 0.01623
48.2 0.01675
48.25 0.01449
48.3 0.01062
48.35 0.00694
48.4 0.00082
48.45 -0.00426
48.5 -0.01154
48.55 -0.0191
48.6 -0.01803
48.65 -0.01434
48.7 -0.00839
48.75 -0.00253
48.8 0.00359
48.85 0.00738
48.9 0.01216
48.95 0.01727
49 0.0148
49.05 0.00827
49.1 0.00512
49.15 0.0063
49.2 0.00176
49.25 -0.00207
49.3 -0.00404
49.35 -0.00214
49.4 -0.00285
49.45 -0.00332
49.5 -0.00635
49.55 -0.00888
49.6 -0.00896
49.65 -0.00932
49.7 -0.01294
49.75 -0.01533
49.8 -0.02001
49.85 -0.0185
49.9 -0.01649
49.95 -0.01006
50 -0.00815
50.05 -0.0028
50.1 0.00479
50.15 0.00558
50.2 0.00741
50.25 0.00472
50.3 0.00382
50.35 0.00725
50.4 0.00813
50.45 0.00791
50.5 0.00526
50.55 0.00706
50.6 0.01041
50.65 0.00742
50.7 0.00023
50.75 -0.00463
50.8 -0.00549
50.85 -0.00141
50.9 0.00437
50.95 0.00761
51 0.01184
51.05 0.01025
51.1 0.00852
51.15 0.00789
51.2 0.00745
51.25 0.00212
51.3 -0.00376
51.35 -0.01093
51.4 -0.01223
51.45 -0.01407
51.5 -0.01723
51.55 -0.01388
51.6 -0.01529
51.65 -0.01524
51.7 -0.01316
51.75 -0.01116
51.8 -0.012
51.85 -0.01481
51.9 -0.01478
51.95 -0.01596
52 -0.0113
52.05 -0.00634
52.1 -0.00561
52.15 -0.00679
52.2 -0.00697
52.25 -0.00931
52.3 -0.00692
52.35 -0.00443
52.4 -0.00112
52.45 -0.00289
52.5 -0.00742
52.55 -0.00976
52.6 -0.01471
52.65 -0.0155
52.7 -0.01317
52.75 -0.00787
52.8 0.00062
52.85 0.00767
52.9 0.01159
52.95 0.01287
53 0.01074
53.05 0.00672
53.1 0.00781
53.15 0.01025
53.2 0.00963
53.25 0.00932
53.3 0.0124
53.35 0.01429
53.4 0.01023
53.45 0.00433
53.5 0.00154
53.55 -0.00421
53.6 -0.00904
53.65 -0.01292
53.7 -0.01064
53.75 -0.01226
53.8 -0.01021
53.85 -0.00593
53.9 -0.00228
53.95 0.00279
54 0.00873
54.05 0.01608
54.1 0.0232
54.15 0.02789
54.2 0.02846
54.25 0.02574
54.3 0.01874
54.35 0.01532
54.4 0.01101
54.45 0.01109
54.5 0.0059
54.55 0.00145
54.6 0.0015
54.65 -0.00233
54.7 -0.00847
54.75 -0.00994
54.8 -0.00921
54.85 -0.01241
54.9 -0.01177
54.95 -0.01276
55 -0.01694
55.05 -0.01853
55.1 -0.02082
55.15 -0.02194
55.2 -0.02176
55.25 -0.01694
55.3 -0.01005
55.35 -0.00786
55.4 -0.00579
55.45 -0.00326
55.5 0.00159
55.55 -0.00016
55.6 0.00298
55.65 0.00006
55.7 -0.00644
55.75 -0.00941
55.8 -0.01469
55.85 -0.01433
55.9 -0.0108
55.95 -0.00759
56 -0.00716
56.05 -0.01085
56.1 -0.00935
56.15 -0.00849
56.2 -0.00968
56.25 -0.00531
56.3 -0.00289
56.35 -0.0008
56.4 0.00232
56.45 0.00654
56.5 0.01162
56.55 0.01678
56.6 0.02281
56.65 0.02739
56.7 0.02459
56.75 0.022
56.8 0.01634
56.85 0.01554
56.9 0.01047
56.95 0.00837
57 0.00422
57.05 -0.00318
57.1 -0.00599
57.15 -0.00318
57.2 0.00237
57.25 0.00926
57.3 0.00971
57.35 0.00977
57.4 0.00903
57.45 0.00475
57.5 0.00436
57.55 0.00553
57.6 0.00658
57.65 0.00446
57.7 0.00701
57.75 0.00555
57.8 0.00241
57.85 -0.0032
57.9 -0.00446
57.95 -0.00265
58 0.00297
58.05 0.00763
58.1 0.0055
58.15 0.00703
58.2 0.00656
58.25 0.00542
58.3 0.00276
58.35 -0.00351
58.4 -0.00987
58.45 -0.01241
58.5 -0.00921
58.55 -0.01011
58.6 -0.013
58.65 -0.01254
58.7 -0.00779
58.75 -0.00454
58.8 -0.00461
58.85 -0.00545
58.9 -0.00441
58.95 0.00061
59 0.00756
59.05 0.00647
59.1 0.00067
59.15 -0.00184
59.2 0.00097
59.25 -0.00017
59.3 -0.00338
59.35 -0.00815
59.4 -0.01399
59.45 -0.01416
59.5 -0.01669
59.55 -0.01606
59.6 -0.01133
59.65 -0.00304
59.7 0.00598
59.75 0.00958
59.8 0.01076
59.85 0.00791
59.9 0.0075
59.95 0.00511
60 0.00703
60.05 0.00345
60.1 -0.0025
60.15 -0.00844
60.2 -0.01135
60.25 -0.01317
60.3 -0.01333
60.35 -0.00957
60.4 -0.00761
60.45 -0.0015
60.5 0.00187
60.55 0.00786
60.6 0.01317
60.65 0.01655
60.7 0.01651
60.75 0.01601
60.8 0.01848
60.85 0.01755
60.9 0.01098
60.95 0.00482
61 0.00293
61.05 -0.0004
61.1 0.00096
61.15 0.00395
61.2 0.00916
61.25 0.01154
61.3 0.01337
61.35 0.01119
61.4 0.00795
61.45 0.0088
61.5 0.01248
61.55 0.00994
61.6 0.00855
61.65 0.01
61.7 0.00503
61.75 0.00484
61.8 0.00527
61.85 0.00128
61.9 0.00061
61.95 -0.00284
62 -0.00495
62.05 -0.00194
62.1 -0.00233
62.15 -0.00122
62.2 -0.00088
62.25 -0.00166
62.3 -0.00507
62.35 -0.00337
62.4 -0.00499
62.45 -0.00996
62.5 -0.0164
62.55 -0.0222
62.6 -0.02892
62.65 -0.02801
62.7 -0.02804
62.75 -0.02333
62.8 -0.02183
62.85 -0.01977
62.9 -0.01294
62.95 -0.00686
63 -0.00532
63.05 -0.00618
63.1 -0.00236
63.15 -0.00062
63.2 0.00485
63.25 0.01014
63.3 0.01697
63.35 0.01954
63.4 0.02248
63.45 0.01854
63.5 0.0111
63.55 0.00874
63.6 0.00408
63.65 0.00412
63.7 0.0032
63.75 -0.00166
63.8 -0.00403
63.85 -0.0051
63.9 -0.00443
63.95 -0.0084
64 -0.00838
64.05 -0.00771
64.1 -0.00866
64.15 -0.01041
64.2 -0.00843
64.25 -0.01057
64.3 -0.00891
64.35 -0.00761
64.4 -0.00463
64.45 -0.00515
64.5 -0.00907
64.55 -0.01188
64.6 -0.01065
64.65 -0.01171
64.7 -0.01354
64.75 -0.01376
64.8 -0.01141
64.85 -0.00536
64.9 -0.00213
64.95 0.00416
65 0.00951
65.05 0.00731
65.1 0.00817
65.15 0.01184
65.2 0.00996
65.25 0.01174
65.3 0.00897
65.35 0.00466
65.4 0.00066
65.45 -0.00503
65.5 -0.01183
65.55 -0.01086
65.6 -0.01177
65.65 -0.01462
65.7 -0.01276
65.75 -0.01047
65.8 -0.01159
65.85 -0.01436
65.9 -0.01302
65.95 -0.00981
66 -0.00946
66.05 -0.00623
66.1 -0.00598
66.15 -0.0089
66.2 -0.00827
66.25 -0.00375
66.3 -0.00381
66.35 -0.00014
66.4 0.00386
66.45 0.00549
66.5 0.01043
66.55 0.00842
66.6 0.00718
66.65 0.00142
66.7 -0.00638
66.75 -0.00755
66.8 -0.00554
66.85 -0.00104
66.9 -0.00194
66.95 -0.00633
67 -0.00694
67.05 -0.01045
67.1 -0.0092
67.15 -0.01114
67.2 -0.01484
67.25 -0.01539
67.3 -0.01792
67.35 -0.01919
67.4 -0.01838
67.45 -0.01796
67.5 -0.02055
67.55 -0.02376
67.6 -0.0224
67.65 -0.01647
67.7 -0.01173
67.75 -0.00757
67.8 -0.00477
67.85 -0.00202
67.9 -0.00251
67.95 -0.00117
68 0.00182
68.05 0.00105
68.1 0.00404
68.15 0.00784
68.2 0.00926
68.25 0.00842
68.3 0.00546
68.35 -0.00024
68.4 -0.003
68.45 -0.00132
68.5 0.00342
68.55 0.0061
68.6 0.0115
68.65 0.012
68.7 0.01558
68.75 0.02066
68.8 0.01951
68.85 0.02006
68.9 0.01462
68.95 0.00873
69 0.00742
69.05 0.00846
69.1 0.0111
69.15 0.01609
69.2 0.01892
69.25 0.02215
69.3 0.02562
69.35 0.02126
69.4 0.01374
69.45 0.00392
69.5 0.0016
69.55 0.00413
69.6 0.00586
69.65 0.00828
69.7 0.01156
69.75 0.01554
69.8 0.0191
69.85 0.02191
69.9 0.01728
69.95 0.01687
70 0.0177
70.05 0.0133
70.1 0.00827
70.15 0.00001
70.2 -0.00573
70.25 -0.00584
70.3 -0.00892
70.35 -0.01289
70.4 -0.01839
70.45 -0.02374
70.5 -0.02832
70.55 -0.03157
70.6 -0.03118
70.65 -0.03103
70.7 -0.0323
70.75 -0.02687
70.8 -0.01774
70.85 -0.00903
70.9 -0.00144
70.95 0.00463
71 0.00899
71.05 0.01165
71.1 0.01048
71.15 0.01306
71.2 0.01165
71.25 0.00924
71.3 0.00708
71.35 0.00153
71.4 0.00209
71.45 0.00167
71.5 -0.0002
71.55 -0.00084
71.6 0.00139
71.65 0.00235
71.7 -0.00164
71.75 -0.00824
71.8 -0.01255
71.85 -0.01439
71.9 -0.01598
71.95 -0.01439
72 -0.01044
72.05 -0.00302
72.1 -0.00154
72.15 -0.00039
72.2 -0.00402
72.25 -0.00786
72.3 -0.00626
72.35 -0.00835
72.4 -0.00982
72.45 -0.00621
72.5 -0.00199
72.55 0.00027
72.6 0.00008
72.65 -0.00449
72.7 -0.00941
72.75 -0.01033
72.8 -0.01375
72.85 -0.01641
72.9 -0.01578
72.95 -0.01497
73 -0.01078
73.05 -0.00857
73.1 -0.00706
73.15 -0.00638
73.2 -0.00979
73.25 -0.00947
73.3 -0.00419
73.35 0.00296
73.4 0.01196
73.45 0.01808
73.5 0.01711
73.55 0.01226
73.6 0.01181
73.65 0.01146
73.7 0.01296
73.75 0.01177
73.8 0.00829
73.85 0.00347
73.9 -0.00251
73.95 -0.00857
74 -0.00719
74.05 -0.00774
74.1 -0.00631
74.15 -0.00909
74.2 -0.01407
74.25 -0.0156
74.3 -0.0106
74.35 -0.00842
74.4 -0.00376
74.45 -0.00126
74.5 -0.00259
74.55 0.00107
74.6 -0.00106
74.65 -0.00316
74.7 -0.00551
74.75 -0.00405
74.8 -0.00491
74.85 -0.00093
74.9 -0.00276
74.95 -0.00075
75 -0.00253
75.05 -0.00439
75.1 -0.00382
75.15 -0.00543
75.2 -0.00549
75.25 -0.00869
75.3 -0.00616
75.35 -0.00187
75.4 0.00557
75.45 0.00736
75.5 0.01085
75.55 0.01234
75.6 0.00782
75.65 0.00283
75.7 0.00001
75.75 0.00123
75.8 0.00411
75.85 0.00741
75.9 0.00675
75.95 0.00978
76 0.00921
76.05 0.01271
76.1 0.01178
76.15 0.00865
76.2 0.00886
76.25 0.00618
76.3 0.0022
76.35 0.00151
76.4 -0.00313
76.45 -0.00929
76.5 -0.00994
76.55 -0.01217
76.6 -0.01357
76.65 -0.01437
76.7 -0.01566
76.75 -0.01323
76.8 -0.00812
76.85 -0.00339
76.9 0.00371
76.95 0.0074
77 0.0051
77.05 -0.00026
77.1 -0.0022
77.15 -0.00473
77.2 -0.00529
77.25 -0.00663
77.3 -0.00832
77.35 -0.00801
77.4 -0.00302
77.45 -0.00397
77.5 -0.00188
77.55 -0.00333
77.6 -0.00103
77.65 0.00333
77.7 0.00374
77.75 0.00131
77.8 0.00087
77.85 -0.00162
77.9 0.00059
77.95 -0.00085
78 -0.0028
78.05 -0.00575
78.1 -0.00525
78.15 -0.0033
78.2 0.00164
78.25 0.00078
78.3 0.0048
78.35 0.00634
78.4 0.00559
78.45 0.00202
78.5 0.00421
78.55 0.00137
78.6 0.003
78.65 0.00425
78.7 0.00045
78.75 0.00234
78.8 0.00518
78.85 0.00687
78.9 0.00884
78.95 0.00872
79 0.00963
79.05 0.01365
79.1 0.01909
79.15 0.01869
79.2 0.01675
79.25 0.01339
79.3 0.00998
79.35 0.00889
79.4 0.0108
79.45 0.00985
79.5 0.00961
79.55 0.00634
79.6 0.00327
79.65 0.00011
79.7 -0.00046
79.75 -0.00289
79.8 -0.00289
79.85 -0.00621
79.9 -0.0071
79.95 -0.004
80 -0.00076
80.05 -0.00088
80.1 -0.00201
80.15 -0.00191
80.2 -0.00486
80.25 -0.00768
80.3 -0.00626
80.35 -0.00499
80.4 0.00046
80.45 0.00378
80.5 0.00137
80.55 0.0043
80.6 0.00408
80.65 0.00699
80.7 0.00511
80.75 0.00185
80.8 -0.00354
80.85 -0.00945
80.9 -0.01496
80.95 -0.01577
81 -0.01283
81.05 -0.00677
81.1 -0.00689
81.15 -0.00311
81.2 -0.00364
81.25 -0.00259
81.3 0.001
81.35 0.00775
81.4 0.01086
81.45 0.00919
81.5 0.00721
81.55 0.00944
81.6 0.00769
81.65 0.00672
81.7 0.01003
81.75 0.01069
81.8 0.01036
81.85 0.01193
81.9 0.01378
81.95 0.01008
82 0.00479
82.05 0.0046
82.1 0.00299
82.15 0.00377
82.2 0.00643
82.25 0.00684
82.3 0.01012
82.35 0.01574
82.4 0.02046
82.45 0.01798
82.5 0.01849
82.55 0.01676
82.6 0.01046
82.65 0.00704
82.7 0.00288
82.75 0.00001
82.8 -0.00485
82.85 -0.00931
82.9 -0.01323
82.95 -0.01927
83 -0.02386
83.05 -0.02145
83.1 -0.01767
83.15 -0.01496
83.2 -0.01058
83.25 -0.01058
83.3 -0.01336
83.35 -0.00976
83.4 -0.01136
83.45 -0.00998
83.5 -0.00974
83.55 -0.00834
83.6 -0.00276
83.65 -0.00025
83.7 0.00075
83.75 0.00195
83.8 -0.0021
83.85 -0.00734
83.9 -0.01238
83.95 -0.01831
84 -0.02195
84.05 -0.02647
84.1 -0.02673
84.15 -0.02898
84.2 -0.02364
84.25 -0.01657
84.3 -0.0113
84.35 -0.00555
84.4 0.00324
84.45 0.01297
84.5 0.01355
84.55 0.01245
84.6 0.01218
84.65 0.01466
84.7 0.01395
84.75 0.01694
84.8 0.01713
84.85 0.01895
84.9 0.01962
84.95 0.02199
85 0.01733
85.05 0.01699
85.1 0.01915
85.15 0.02208
85.2 0.02542
85.25 0.02737
85.3 0.02831
85.35 0.0293
85.4 0.02857
85.45 0.02465
85.5 0.02216
85.55 0.02094
85.6 0.02219
85.65 0.01926
85.7 0.01411
85.75 0.01243
85.8 0.01175
85.85 0.00913
85.9 0.00804
85.95 0.00743
86 0.00521
86.05 0.00366
86.1 0.00155
86.15 0.00048
86.2 0.00268
86.25 0.00366
86.3 0.00321
86.35 0.00017
86.4 -0.00587
86.45 -0.00675
86.5 -0.01044
86.55 -0.01561
86.6 -0.01757
86.65 -0.01758
86.7 -0.01615
86.75 -0.01619
86.8 -0.01728
86.85 -0.01791
86.9 -0.01487
86.95 -0.01382
87 -0.01643
87.05 -0.02001
87.1 -0.02139
87.15 -0.01827
87.2 -0.01764
87.25 -0.01651
87.3 -0.01116
87.35 -0.00623
87.4 -0.00616
87.45 -0.00249
87.5 0.00014
87.55 0.00358
87.6 0.00223
87.65 -0.00245
87.7 -0.00905
87.75 -0.00904
87.8 -0.00708
87.85 -0.00525
87.9 -0.00689
87.95 -0.00678
88 -0.01062
88.05 -0.01051
88.1 -0.00672
88.15 -0.00811
88.2 -0.00918
88.25 -0.0114
88.3 -0.00952
88.35 -0.00574
88.4 -0.00397
88.45 -0.00643
88.5 -0.00973
88.55 -0.0086
88.6 -0.00732
88.65 -0.00392
88.7 -0.00498
88.75 -0.00129
88.8 0.00477
88.85 0.00355
88.9 0.00662
88.95 0.01008
89 0.00997
89.05 0.01199
89.1 0.00828
89.15 0.00661
89.2 0.00058
89.25 -0.00255
89.3 0.00012
89.35 0.00424
89.4 0.00991
89.45 0.01505
89.5 0.01576
89.55 0.01931
89.6 0.02206
89.65 0.0187
89.7 0.01847
89.75 0.01613
89.8 0.00872
89.85 0.00044
89.9 -0.00799
89.95 -0.00976
90 -0.0104
90.05 -0.00801
90.1 -0.00181
90.15 0.00148
90.2 0.00338
90.25 -0.00046
90.3 0.00026
90.35 -0.00383
90.4 -0.00464
90.45 -0.00915
90.5 -0.01323
90.55 -0.01493
90.6 -0.01927
90.65 -0.02517
90.7 -0.02518
90.75 -0.01921
90.8 -0.01264
90.85 -0.0062
90.9 -0.00481
90.95 -0.00781
91 -0.0066
91.05 -0.00287
91.1 0.00251
91.15 0.01002
91.2 0.01326
91.25 0.01866
91.3 0.02473
91.35 0.02654
91.4 0.02313
91.45 0.01646
91.5 0.01112
91.55 0.00401
91.6 -0.003
91.65 -0.00547
91.7 -0.00805
91.75 -0.01347
91.8 -0.01307
91.85 -0.01068
91.9 -0.00519
91.95 0.00187
92 0.0051
92.05 0.00696
92.1 0.00478
92.15 -0.0008
92.2 -0.00897
92.25 -0.01743
92.3 -0.02144
92.35 -0.02631
92.4 -0.02839
92.45 -0.02801
92.5 -0.02881
92.55 -0.02851
92.6 -0.02905
92.65 -0.02281
92.7 -0.01811
92.75 -0.00973
92.8 -0.00223
92.85 -0.00183
92.9 -0.00393
92.95 -0.00583
93 -0.00574
93.05 -0.00324
93.1 0.00221
93.15 0.00135
93.2 0.00001
93.25 -0.00341
93.3 -0.00118
93.35 0.00338
93.4 0.00183
93.45 0.0038
93.5 0.00389
93.55 0.00285
93.6 0.00045
93.65 -0.00484
93.7 -0.00833
93.75 -0.01258
93.8 -0.00956
93.85 -0.01012
93.9 -0.01126
93.95 -0.01318
94 -0.0123
94.05 -0.00915
94.1 -0.00472
94.15 0.00196
94.2 0.0026
94.25 0.00235
94.3 0.00522
94.35 0.00293
94.4 -0.0008
94.45 -0.00253
94.5 0.00138
94.55 0.00239
94.6 0.00221
94.65 0.00232
94.7 0.00669
94.75 0.00838
94.8 0.00642
94.85 0.00907
94.9 0.00937
94.95 0.01327
95 0.01091
95.05 0.01172
95.1 0.00853
95.15 0.00585
95.2 0.00642
95.25 0.01004
95.3 0.01012
95.35 0.00919
95.4 0.00855
95.45 0.00525
95.5 0.00378
95.55 -0.00057
95.6 0.00072
95.65 0.00425
95.7 0.00776
95.75 0.00897
95.8 0.01086
95.85 0.00663
95.9 0.00533
95.95 0.00687
96 0.00991
96.05 0.00695
96.1 0.00576
96.15 0.00038
96.2 0.00031
96.25 0.00012
96.3 -0.00344
96.35 -0.00167
96.4 0.00325
96.45 0.00293
96.5 0.00289
96.55 0.00069
96.6 -0.00053
96.65 -0.00097
96.7 0.00253
96.75 0.00495
96.8 0.00206
96.85 -0.00333
96.9 -0.00647
96.95 -0.00525
97 -0.00354
97.05 -0.00173
97.1 -0.00494
97.15 -0.01008
97.2 -0.01594
97.25 -0.01541
97.3 -0.01247
97.35 -0.00609
97.4 -0.00445
97.45 -0.00434
97.5 -0.00388
97.55 0.00021
97.6 0.00589
97.65 0.00469
97.7 0.00412
97.75 0.00152
97.8 0.0005
97.85 0.00232
97.9 0.00042
97.95 -0.00379
98 -0.00432
98.05 -0.0026
98.1 0.00234
98.15 0.00138
98.2 -0.00066
98.25 -0.00412
98.3 -0.00207
98.35 0.00086
98.4 0.0029
98.45 0.00249
98.5 -0.00023
98.55 -0.00447
98.6 -0.00717
98.65 -0.01118
98.7 -0.00966
98.75 -0.00851
98.8 -0.0035
98.85 0.0031
98.9 0.00249
98.95 -0.00076
99 -0.00499
99.05 -0.00757
99.1 -0.01309
99.15 -0.01813
99.2 -0.01689
99.25 -0.01925
99.3 -0.01882
99.35 -0.01596
99.4 -0.00937
99.45 -0.00284
99.5 0.00285
99.55 0.00207
99.6 0.00168
99.65 0.00092
99.7 0.00468
99.75 0.00406
99.8 0.00696
99.85 0.0116
99.9 0.01264
99.95 0.01521
