0 0
0.05 0.00256
0.1 0.00849
0.15 0.01344
0.2 0.01628
0.25 0.02482
0.3 0.0352
0.35 0.04752
0.4 0.05529
0.45 0.06047
0.5 0.05978
0.55 0.05541
0.6 0.05177
0.65 0.04772
0.7 0.04145
0.75 0.03841
0.8 0.03331
0.85 0.0269
0.9 0.02705
0.95 0.03321
1 0.03588
1.05 0.03984
1.1 0.04133
1.15 0.04529
1.2 0.05098
1.25 0.05652
1.3 0.05629
1.35 0.0595
1.4 0.05537
1.45 0.05518
1.5 0.05535
1.55 0.05745
1.6 0.06066
1.65 0.05941
1.7 0.05919
1.75 0.05761
1.8 0.05384
1.85 0.04584
1.9 0.04309
1.95 0.04288
2 0.03734
2.05 0.03483
2.1 0.03138
2.15 0.03003
2.2 0.0303
2.25 0.03429
2.3 0.03487
2.35 0.03619
2.4 0.03157
2.45 0.02548
2.5 0.02491
2.55 0.0232
2.6 0.02527
2.65 0.02922
2.7 0.03256
2.75 0.03439
2.8 0.03818
2.85 0.04381
2.9 0.0417
2.95 0.04244
3 0.03835
3.05 0.0343
3.1 0.03196
3.15 0.02723
3.2 0.01937
3.25 0.01422
3.3 0.01443
3.35 0.01212
3.4 0.00822
3.45 0.00476
3.5 0.00825
3.55 0.01106
3.6 0.01546
3.65 0.01665
3.7 0.01412
3.75 0.01312
3.8 0.01023
3.85 0.01189
3.9 0.01731
3.95 0.02479
4 0.02575
4.05 0.02572
4.1 0.01993
4.15 0.01626
4.2 0.01394
4.25 0.00748
4.3 0.0052
4.35 -0.00082
4.4 -0.00222
4.45 -0.00228
4.5 -0.01009
4.55 -0.02427
4.6 -0.03977
4.65 -0.05818
4.7 -0.08004
4.75 -0.10155
4.8 -0.11914
4.85 -0.14477
4.9 -0.17224
4.95 -0.20422
5 -0.23939
5.05 -0.28062
5.1 -0.33053
5.15 -0.38433
5.2 -0.4413
5.25 -0.49866
5.3 -0.55893
5.35 -0.62506
5.4 -0.69842
5.45 -0.77778
5.5 -0.8604
5.55 -0.94272
5.6 -1.02364
5.65 -1.09901
5.7 -1.1791
5.75 -1.25921
5.8 -1.33642
5.85 -1.41112
5.9 -1.47696
5.95 -1.53502
6 -1.58676
6.05 -1.62879
6.1 -1.66207
6.15 -1.69073
6.2 -1.7085
6.25 -1.71758
6.3 -1.71958
6.35 -1.721
6.4 -1.7151
6.45 -1.70782
6.5 -1.69416
6.55 -1.67715
6.6 -1.64993
6.65 -1.61612
6.7 -1.56957
6.75 -1.50888
6.8 -1.43792
6.85 -1.3582
6.9 -1.26895
6.95 -1.17268
7 -1.06357
7.05 -0.95135
7.1 -0.82992
7.15 -0.69684
7.2 -0.5607
7.25 -0.4227
7.3 -0.285
7.35 -0.13916
7.4 0.0049
7.45 0.14671
7.5 0.28319
7.55 0.41602
7.6 0.54205
7.65 0.66079
7.7 0.77343
7.75 0.87847
7.8 0.97634
7.85 1.06893
7.9 1.15061
7.95 1.22315
8 1.28456
8.05 1.34035
8.1 1.39023
8.15 1.42935
8.2 1.4625
8.25 1.49296
8.3 1.51576
8.35 1.53199
8.4 1.54101
8.45 1.53982
8.5 1.53383
8.55 1.53076
8.6 1.52731
8.65 1.5234
8.7 1.51311
8.75 1.50054
8.8 1.48587
8.85 1.47411
8.9 1.45612
8.95 1.43527
9 1.41789
9.05 1.39583
9.1 1.37432
9.15 1.35358
9.2 1.33393
9.25 1.31718
9.3 1.30393
9.35 1.29035
9.4 1.2762
9.45 1.2553
9.5 1.22987
9.55 1.20468
9.6 1.18096
9.65 1.15549
9.7 1.1344
9.75 1.11377
9.8 1.09394
9.85 1.06759
9.9 1.03875
9.95 1.01344
10 0.98422
10.05 0.95374
10.1 0.92395
10.15 0.89342
10.2 0.8622
10.25 0.8329
10.3 0.80398
10.35 0.77281
10.4 0.74364
10.45 0.71598
10.5 0.68644
10.55 0.65748
10.6 0.63173
10.65 0.60924
10.7 0.58973
10.75 0.56456
10.8 0.53541
10.85 0.5035
10.9 0.47513
10.95 0.44497
11 0.42031
11.05 0.39184
11.1 0.36588
11.15 0.33689
11.2 0.30712
11.25 0.28139
11.3 0.2576
11.35 0.2332
11.4 0.20903
11.45 0.18369
11.5 0.15811
11.55 0.13371
11.6 0.11183
11.65 0.08753
11.7 0.0685
11.75 0.04962
11.8 0.02526
11.85 0.00228
11.9 -0.02286
11.95 -0.04286
12 -0.06522
12.05 -0.08537
12.1 -0.10169
12.15 -0.11496
12.2 -0.12632
12.25 -0.14089
12.3 -0.15584
12.35 -0.16452
12.4 -0.17469
12.45 -0.18108
12.5 -0.18629
12.55 -0.1921
12.6 -0.19596
12.65 -0.19628
12.7 -0.19915
12.75 -0.20039
12.8 -0.20853
12.85 -0.21936
12.9 -0.23188
12.95 -0.24199
13 -0.2497
13.05 -0.25384
13.1 -0.2516
13.15 -0.24932
13.2 -0.25113
13.25 -0.25584
13.3 -0.25396
13.35 -0.2537
13.4 -0.25691
13.45 -0.25511
13.5 -0.24984
13.55 -0.24835
13.6 -0.24998
13.65 -0.25174
13.7 -0.25389
13.75 -0.25026
13.8 -0.24643
13.85 -0.24248
13.9 -0.23472
13.95 -0.23221
14 -0.23193
14.05 -0.22975
14.1 -0.22542
14.15 -0.22444
14.2 -0.21947
14.25 -0.21872
14.3 -0.21687
14.35 -0.21712
14.4 -0.22016
14.45 -0.21645
14.5 -0.21593
14.55 -0.21343
14.6 -0.21442
14.65 -0.20967
14.7 -0.20807
14.75 -0.20844
14.8 -0.2093
14.85 -0.20667
14.9 -0.19876
14.95 -0.19302
15 -0.18487
15.05 -0.18088
15.1 -0.17639
15.15 -0.17285
15.2 -0.16759
15.25 -0.16172
15.3 -0.15618
15.35 -0.15577
15.4 -0.15304
15.45 -0.15106
15.5 -0.15034
15.55 -0.14502
15.6 -0.142
15.65 -0.13753
15.7 -0.13361
15.75 -0.13337
15.8 -0.13255
15.85 -0.13109
15.9 -0.12641
15.95 -0.12031
16 -0.1186
16.05 -0.11364
16.1 -0.11198
16.15 -0.10768
16.2 -0.10147
16.25 -0.10025
16.3 -0.10324
16.35 -0.10704
16.4 -0.10571
16.45 -0.10341
16.5 -0.09886
16.55 -0.10043
16.6 -0.09975
16.65 -0.10257
16.7 -0.10421
16.75 -0.10294
16.8 -0.10112
16.85 -0.09882
16.9 -0.09489
16.95 -0.09587
17 -0.09528
17.05 -0.09362
17.1 -0.09392
17.15 -0.09436
17.2 -0.09457
17.25 -0.092
17.3 -0.09396
17.35 -0.09188
17.4 -0.08697
17.45 -0.08241
17.5 -0.08442
17.55 -0.0869
17.6 -0.09193
17.65 -0.08986
17.7 -0.08733
17.75 -0.08964
17.8 -0.08871
17.85 -0.08437
17.9 -0.07811
17.95 -0.07427
18 -0.06956
18.05 -0.06642
18.1 -0.0683
18.15 -0.07192
18.2 -0.0764
18.25 -0.07809
18.3 -0.07457
18.35 -0.07565
18.4 -0.07337
18.45 -0.07034
18.5 -0.07177
18.55 -0.07092
18.6 -0.06993
18.65 -0.07208
18.7 -0.07089
18.75 -0.06594
18.8 -0.05909
18.85 -0.05193
18.9 -0.04616
18.95 -0.03851
19 -0.03174
19.05 -0.02564
19.1 -0.02569
19.15 -0.02801
19.2 -0.02855
19.25 -0.03111
19.3 -0.03551
19.35 -0.03784
19.4 -0.03956
19.45 -0.04422
19.5 -0.04475
19.55 -0.04732
19.6 -0.0493
19.65 -0.05196
19.7 -0.04983
19.75 -0.04837
19.8 -0.04239
19.85 -0.04143
19.9 -0.04099
19.95 -0.04457
20 -0.0507
20.05 -0.05065
20.1 -0.05373
20.15 -0.05597
20.2 -0.05425
20.25 -0.04965
20.3 -0.04233
20.35 -0.03713
20.4 -0.03453
20.45 -0.03361
20.5 -0.03615
20.55 -0.03538
20.6 -0.03531
20.65 -0.03398
20.7 -0.03012
20.75 -0.02538
20.8 -0.01822
20.85 -0.0174
20.9 -0.0165
20.95 -0.01922
21 -0.01926
21.05 -0.024
21.1 -0.0302
21.15 -0.03819
21.2 -0.04198
21.25 -0.04474
21.3 -0.04251
21.35 -0.03512
21.4 -0.0304
21.45 -0.02433
21.5 -0.02252
21.55 -0.01956
21.6 -0.01896
21.65 -0.01965
21.7 -0.01974
21.75 -0.02311
21.8 -0.02873
21.85 -0.03078
21.9 -0.03232
21.95 -0.03607
22 -0.03923
22.05 -0.04394
22.1 -0.04202
22.15 -0.03934
22.2 -0.03227
22.25 -0.02418
22.3 -0.01695
22.35 -0.012
22.4 -0.01092
22.45 -0.00951
22.5 -0.00854
22.55 -0.0066
22.6 -0.0094
22.65 -0.01264
22.7 -0.0154
22.75 -0.0191
22.8 -0.01927
22.85 -0.0187
22.9 -0.0181
22.95 -0.02205
23 -0.02062
23.05 -0.01641
23.1 -0.01293
23.15 -0.00985
23.2 -0.00408
23.25 -0.00299
23.3 0.00053
23.35 0.00198
23.4 -0.00279
23.45 -0.00297
23.5 -0.00236
23.55 -0.00485
23.6 -0.00339
23.65 -0.00787
23.7 -0.01532
23.75 -0.02192
23.8 -0.02295
23.85 -0.01904
23.9 -0.01658
23.95 -0.01606
24 -0.02006
24.05 -0.02204
24.1 -0.02029
24.15 -0.01411
24.2 -0.01138
24.25 -0.01439
24.3 -0.01815
24.35 -0.019
24.4 -0.02248
24.45 -0.02191
24.5 -0.02244
24.55 -0.02235
24.6 -0.02467
24.65 -0.02524
24.7 -0.02278
24.75 -0.02267
24.8 -0.02364
24.85 -0.02168
24.9 -0.01959
24.95 -0.01638
25 -0.01442
25.05 -0.00965
25.1 -0.00613
25.15 -0.00857
25.2 -0.01441
25.25 -0.0173
25.3 -0.02107
25.35 -0.0232
25.4 -0.02655
25.45 -0.02596
25.5 -0.02638
25.55 -0.02622
25.6 -0.02591
25.65 -0.01959
25.7 -0.0161
25.75 -0.01107
25.8 -0.00576
25.85 -0.00482
25.9 -0.00128
25.95 -0.00038
26 0.00348
26.05 0.00614
26.1 0.00304
26.15 0.00394
26.2 0.0034
26.25 0.00348
26.3 0.00583
26.35 0.01022
26.4 0.01269
26.45 0.01169
26.5 0.01066
26.55 0.00881
26.6 0.00827
26.65 0.0101
26.7 0.01457
26.75 0.02004
26.8 0.02372
26.85 0.02251
26.9 0.02243
26.95 0.02145
27 0.01444
27.05 0.00385
27.1 -0.00618
27.15 -0.01578
27.2 -0.02033
27.25 -0.01899
27.3 -0.0168
27.35 -0.01692
27.4 -0.01738
27.45 -0.01316
27.5 -0.00605
27.55 -0.00602
27.6 -0.0049
27.65 -0.00308
27.7 -0.00161
27.75 0.00176
27.8 0.00131
27.85 0.00315
27.9 0.00079
27.95 -0.00533
28 -0.01361
28.05 -0.02348
28.1 -0.03099
28.15 -0.04164
28.2 -0.04921
28.25 -0.05741
28.3 -0.068
28.35 -0.07909
28.4 -0.08651
28.45 -0.09651
28.5 -0.10468
28.55 -0.11567
28.6 -0.13142
28.65 -0.14667
28.7 -0.16464
28.75 -0.18261
28.8 -0.209
28.85 -0.24272
28.9 -0.27828
28.95 -0.31053
29 -0.34716
29.05 -0.38622
29.1 -0.42232
29.15 -0.46235
29.2 -0.5029
29.25 -0.54203
29.3 -0.5872
29.35 -0.6319
29.4 -0.67826
29.45 -0.72442
29.5 -0.77149
29.55 -0.81988
29.6 -0.86206
29.65 -0.89675
29.7 -0.93287
29.75 -0.96209
29.8 -0.98638
29.85 -1.00598
29.9 -1.01725
29.95 -1.01991
30 -1.02192
30.05 -1.0168
30.1 -1.00532
30.15 -0.98952
30.2 -0.96707
30.25 -0.94014
30.3 -0.90425
30.35 -0.85864
30.4 -0.81057
30.45 -0.75441
30.5 -0.69062
30.55 -0.6234
30.6 -0.55007
30.65 -0.47568
30.7 -0.39911
30.75 -0.32261
30.8 -0.24001
30.85 -0.15567
30.9 -0.07551
30.95 0.00377
31 0.07817
31.05 0.14942
31.1 0.21959
31.15 0.28043
31.2 0.34241
31.25 0.39579
31.3 0.44678
31.35 0.49017
31.4 0.53186
31.45 0.57342
31.5 0.60689
31.55 0.6331
31.6 0.66042
31.65 0.68096
31.7 0.70352
31.75 0.71888
31.8 0.7317
31.85 0.7466
31.9 0.75365
31.95 0.75968
32 0.75991
32.05 0.76363
32.1 0.76708
32.15 0.77423
32.2 0.77932
32.25 0.78117
32.3 0.78593
32.35 0.79161
32.4 0.79058
32.45 0.78652
32.5 0.78114
32.55 0.77453
32.6 0.7726
32.65 0.7724
32.7 0.77171
32.75 0.76888
32.8 0.75998
32.85 0.75064
32.9 0.73836
32.95 0.72218
33 0.70778
33.05 0.6918
33.1 0.67739
33.15 0.66566
33.2 0.65691
33.25 0.6435
33.3 0.63072
33.35 0.61614
33.4 0.59901
33.45 0.58543
33.5 0.57139
33.55 0.55251
33.6 0.53083
33.65 0.5137
33.7 0.49358
33.75 0.47579
33.8 0.45569
33.85 0.43771
33.9 0.41793
33.95 0.40488
34 0.39154
34.05 0.37679
34.1 0.36254
34.15 0.34424
34.2 0.32696
34.25 0.30568
34.3 0.29008
34.35 0.27196
34.4 0.25433
34.45 0.23915
34.5 0.22083
34.55 0.20583
34.6 0.18995
34.65 0.17646
34.7 0.15971
34.75 0.14988
34.8 0.1388
34.85 0.12978
34.9 0.1161
34.95 0.10401
35 0.0907
35.05 0.07833
35.1 0.06734
35.15 0.06151
35.2 0.05227
35.25 0.04657
35.3 0.03679
35.35 0.03061
35.4 0.02226
35.45 0.0171
35.5 0.01212
35.55 0.00121
35.6 -0.01075
35.65 -0.01914
35.7 -0.02494
35.75 -0.03452
35.8 -0.04056
35.85 -0.04317
35.9 -0.05229
35.95 -0.06533
36 -0.07445
36.05 -0.08324
36.1 -0.08625
36.15 -0.09386
36.2 -0.09892
36.25 -0.10469
36.3 -0.11065
36.35 -0.11388
36.4 -0.1128
36.45 -0.11262
36.5 -0.11207
36.55 -0.11543
36.6 -0.1207
36.65 -0.12818
36.7 -0.13539
36.75 -0.14164
36.8 -0.14027
36.85 -0.14289
36.9 -0.14163
36.95 -0.1404
37 -0.14016
37.05 -0.14271
37.1 -0.14255
37.15 -0.14612
37.2 -0.14911
37.25 -0.14867
37.3 -0.14416
37.35 -0.13721
37.4 -0.1276
37.45 -0.12425
37.5 -0.11798
37.55 -0.11197
37.6 -0.10813
37.65 -0.10726
37.7 -0.10715
37.75 -0.11076
37.8 -0.11674
37.85 -0.12275
37.9 -0.12153
37.95 -0.12232
38 -0.12395
38.05 -0.1223
38.1 -0.12318
38.15 -0.12617
38.2 -0.122
38.25 -0.11583
38.3 -0.1079
38.35 -0.10586
38.4 -0.10354
38.45 -0.10309
38.5 -0.10343
38.55 -0.0988
38.6 -0.09444
38.65 -0.09372
38.7 -0.09208
38.75 -0.0879
38.8 -0.08171
38.85 -0.08007
38.9 -0.07744
38.95 -0.07523
39 -0.07191
39.05 -0.07147
39.1 -0.07632
39.15 -0.0845
39.2 -0.09194
39.25 -0.10046
39.3 -0.10845
39.35 -0.11219
39.4 -0.11454
39.45 -0.11245
39.5 -0.10812
39.55 -0.10543
39.6 -0.10217
39.65 -0.09912
39.7 -0.09877
39.75 -0.09404
39.8 -0.08506
39.85 -0.07746
39.9 -0.06878
39.95 -0.06236
40 -0.05856
40.05 -0.05487
40.1 -0.04952
40.15 -0.04685
40.2 -0.049
40.25 -0.05289
40.3 -0.05559
40.35 -0.05428
40.4 -0.05732
40.45 -0.05535
40.5 -0.0577
40.55 -0.05499
40.6 -0.05276
40.65 -0.05435
40.7 -0.05442
40.75 -0.05611
40.8 -0.05416
40.85 -0.05707
40.9 -0.05357
40.95 -0.05435
41 -0.05515
41.05 -0.05514
41.1 -0.0554
41.15 -0.05022
41.2 -0.04289
41.25 -0.03364
41.3 -0.02485
41.35 -0.02402
41.4 -0.02205
41.45 -0.01863
41.5 -0.01513
41.55 -0.01711
41.6 -0.01554
41.65 -0.01363
41.7 -0.01091
41.75 -0.01039
41.8 -0.01119
41.85 -0.01051
41.9 -0.00815
41.95 -0.01113
42 -0.01493
42.05 -0.01549
42.1 -0.01707
42.15 -0.02312
42.2 -0.02685
42.25 -0.02734
42.3 -0.03059
42.35 -0.03485
42.4 -0.04173
42.45 -0.0479
42.5 -0.04753
42.55 -0.05007
42.6 -0.05344
42.65 -0.05617
42.7 -0.05732
42.75 -0.055
42.8 -0.054
42.85 -0.05571
42.9 -0.05225
42.95 -0.04811
43 -0.04012
43.05 -0.03355
43.1 -0.02465
43.15 -0.02063
43.2 -0.01426
43.25 -0.01008
43.3 -0.00868
43.35 -0.00617
43.4 -0.00148
43.45 0.00357
43.5 0.00652
43.55 0.00492
43.6 -0.00264
43.65 -0.0133
43.7 -0.0244
43.75 -0.03225
43.8 -0.03468
43.85 -0.03478
43.9 -0.03321
43.95 -0.03423
44 -0.03003
44.05 -0.0245
44.1 -0.02082
44.15 -0.02276
44.2 -0.01958
44.25 -0.01307
44.3 -0.00741
44.35 -0.00383
44.4 -0.00484
44.45 -0.00854
44.5 -0.01167
44.55 -0.00981
44.6 -0.00665
44.65 -0.00349
44.7 -0.00209
44.75 -0.00349
44.8 -0.00979
44.85 -0.01284
44.9 -0.01878
44.95 -0.02526
45 -0.02626
45.05 -0.02818
45.1 -0.02695
45.15 -0.02083
45.2 -0.02095
45.25 -0.0218
45.3 -0.01717
45.35 -0.01816
45.4 -0.02234
45.45 -0.02509
45.5 -0.0289
45.55 -0.03093
45.6 -0.03524
45.65 -0.03836
45.7 -0.04256
45.75 -0.04514
45.8 -0.04053
45.85 -0.0311
45.9 -0.02602
45.95 -0.02029
46 -0.01708
46.05 -0.01842
46.1 -0.01829
46.15 -0.01547
46.2 -0.01601
46.25 -0.01152
46.3 -0.01039
46.35 -0.00789
46.4 -0.00192
46.45 0.00364
46.5 0.00192
46.55 0.00026
46.6 -0.00452
46.65 -0.00736
46.7 -0.01321
46.75 -0.01578
46.8 -0.02117
46.85 -0.02185
46.9 -0.01809
46.95 -0.01779
47 -0.0196
47.05 -0.02118
47.1 -0.02163
47.15 -0.02205
47.2 -0.01899
47.25 -0.01717
47.3 -0.01145
47.35 -0.00332
47.4 0.00294
47.45 0.00212
47.5 0.00471
47.55 0.00107
47.6 -0.00161
47.65 -0.00626
47.7 -0.00994
47.75 -0.01145
47.8 -0.01249
47.85 -0.01079
47.9 -0.00945
47.95 -0.00491
48 -0.00416
48.05 -0.00714
48.1 -0.01245
48.15 -0.01709
48.2 -0.01684
48.25 -0.01784
48.3 -0.01902
48.35 -0.01474
48.4 -0.00867
48.45 -0.00479
48.5 -0.00462
48.55 -0.00031
48.6 0.00285
48.65 0.00563
48.7 0.00684
48.75 0.01045
48.8 0.01124
48.85 0.00926
48.9 0.01175
48.95 0.00934
49 0.00854
49.05 0.0101
49.1 0.00836
49.15 0.01057
49.2 0.00728
49.25 0.00553
49.3 0.00129
49.35 -0.00467
49.4 -0.00846
49.45 -0.01005
49.5 -0.01173
49.55 -0.01234
49.6 -0.00826
49.65 -0.00519
49.7 -0.00208
49.75 -0.0028
49.8 0.00025
49.85 -0.00029
49.9 0.00015
49.95 -0.00131
50 -0.00502
50.05 -0.00283
50.1 -0.00026
50.15 0.00044
50.2 0.00211
50.25 0.00541
50.3 0.00499
50.35 0.00285
50.4 -0.00328
50.45 -0.00469
50.5 -0.00447
50.55 -0.00745
50.6 -0.00805
50.65 -0.01099
50.7 -0.01499
50.75 -0.01576
50.8 -0.01292
50.85 -0.00576
50.9 0.00349
50.95 0.01068
51 0.01164
51.05 0.01231
51.1 0.0108
51.15 0.00865
51.2 0.00869
51.25 0.01141
51.3 0.01239
51.35 0.00728
51.4 0.00032
51.45 -0.00477
51.5 -0.01056
51.55 -0.00945
51.6 -0.01087
51.65 -0.01126
51.7 -0.0145
51.75 -0.01333
51.8 -0.01061
51.85 -0.0093
51.9 -0.01063
51.95 -0.00818
52 -0.00403
52.05 0.00247
52.1 0.00951
52.15 0.00899
52.2 0.00961
52.25 0.0126
52.3 0.01712
52.35 0.01842
52.4 0.01289
52.45 0.00844
52.5 0.00869
52.55 0.01195
52.6 0.01582
52.65 0.01258
52.7 0.01169
52.75 0.01449
52.8 0.01514
52.85 0.0175
52.9 0.01297
52.95 0.00657
53 0.00198
53.05 -0.00063
53.1 -0.00068
53.15 -0.00223
53.2 0.00055
53.25 0.00552
53.3 0.0103
53.35 0.00829
53.4 0.00405
53.45 -0.00105
53.5 -0.00677
53.55 -0.01422
53.6 -0.01635
53.65 -0.01427
53.7 -0.00763
53.75 -0.00692
53.8 -0.0016
53.85 0.00614
53.9 0.01128
53.95 0.0142
54 0.01104
54.05 0.00752
54.1 0.00744
54.15 0.00766
54.2 0.0064
54.25 0.00837
54.3 0.0039
54.35 -0.00161
54.4 -0.00123
54.45 -0.00444
54.5 -0.01063
54.55 -0.01271
54.6 -0.01241
54.65 -0.01177
54.7 -0.00961
54.75 -0.00887
54.8 -0.00447
54.85 -0.00207
54.9 -0.0034
54.95 -0.00441
55 -0.0029
55.05 -0.00392
55.1 -0.0028
55.15 0.00248
55.2 0.00899
55.25 0.00902
55.3 0.00902
55.35 0.0036
55.4 -0.00227
55.45 -0.00459
55.5 -0.00655
55.55 -0.00382
55.6 -0.00399
55.65 -0.00673
55.7 -0.00465
55.75 -0.0037
55.8 -0.00477
55.85 -0.00887
55.9 -0.01273
55.95 -0.017
56 -0.01489
56.05 -0.01453
56.1 -0.01549
56.15 -0.01663
56.2 -0.01453
56.25 -0.01319
56.3 -0.01348
56.35 -0.01389
56.4 -0.01654
56.45 -0.01275
56.5 -0.01128
56.55 -0.01109
56.6 -0.00971
56.65 -0.00817
56.7 -0.00758
56.75 -0.00326
56.8 0.00401
56.85 0.00494
56.9 0.00342
56.95 0.00155
57 0.00181
57.05 -0.00101
57.1 0.00133
57.15 0.00602
57.2 0.00878
57.25 0.00656
57.3 0.00053
57.35 -0.00476
57.4 -0.00522
57.45 -0.00886
57.5 -0.0092
57.55 -0.00727
57.6 -0.00785
57.65 -0.00666
57.7 -0.00709
57.75 -0.00417
57.8 -0.00036
57.85 0.00398
57.9 0.01002
57.95 0.01042
58 0.01174
58.05 0.01502
58.1 0.01222
58.15 0.00972
58.2 0.01136
58.25 0.01172
58.3 0.01549
58.35 0.01906
58.4 0.01903
58.45 0.01673
58.5 0.01312
58.55 0.01305
58.6 0.016
58.65 0.01425
58.7 0.01444
58.75 0.01632
58.8 0.01815
58.85 0.01839
58.9 0.02064
58.95 0.01776
59 0.01703
59.05 0.01082
59.1 0.00335
59.15 -0.00399
59.2 -0.0072
59.25 -0.0088
59.3 -0.01193
59.35 -0.01216
59.4 -0.01247
59.45 -0.00927
59.5 -0.00313
59.55 0.0004
59.6 -0.00035
59.65 -0.00503
59.7 -0.00977
59.75 -0.00962
59.8 -0.00735
59.85 -0.00296
59.9 0.00382
59.95 0.00367
60 0.00154
60.05 0.00003
60.1 -0.00478
60.15 -0.00694
60.2 -0.00521
60.25 -0.00373
60.3 0.00064
60.35 0.00652
60.4 0.00486
60.45 0.00691
60.5 0.00526
60.55 0.00788
60.6 0.01165
60.65 0.00884
60.7 0.00733
60.75 0.00806
60.8 0.00903
60.85 0.00463
60.9 -0.0021
60.95 -0.00284
61 -0.00688
61.05 -0.01203
61.1 -0.01384
61.15 -0.01326
61.2 -0.0086
61.25 -0.0042
61.3 -0.00167
61.35 0.00437
61.4 0.00728
61.45 0.01
61.5 0.01432
61.55 0.01108
61.6 0.01094
61.65 0.01103
61.7 0.0116
61.75 0.00823
61.8 0.00709
61.85 0.00306
61.9 -0.00169
61.95 -0.00449
62 -0.00926
62.05 -0.00743
62.1 -0.00606
62.15 -0.00762
62.2 -0.0084
62.25 -0.00407
62.3 -0.00246
62.35 0.00216
62.4 0.00026
62.45 -0.00018
62.5 -0.00331
62.55 -0.00575
62.6 -0.00952
62.65 -0.01562
62.7 -0.0144
62.75 -0.01114
62.8 -0.00779
62.85 -0.00391
62.9 -0.00584
62.95 -0.01052
63 -0.01247
63.05 -0.01186
63.1 -0.01076
63.15 -0.00851
63.2 -0.00908
63.25 -0.01135
63.3 -0.01501
63.35 -0.02
63.4 -0.02125
63.45 -0.02003
63.5 -0.02006
63.55 -0.01968
63.6 -0.01679
63.65 -0.00969
63.7 -0.00169
63.75 0.00055
63.8 -0.0026
63.85 -0.00149
63.9 -0.00024
63.95 -0.00246
64 -0.00395
64.05 -0.00193
64.1 0.00258
64.15 0.00738
64.2 0.00869
64.25 0.0105
64.3 0.01264
64.35 0.00999
64.4 0.00641
64.45 0.00753
64.5 0.00434
64.55 -0.0016
64.6 -0.00589
64.65 -0.00625
64.7 -0.00953
64.75 -0.0083
64.8 -0.00922
64.85 -0.00922
64.9 -0.01173
64.95 -0.01505
65 -0.02054
65.05 -0.02275
65.1 -0.02535
65.15 -0.02821
65.2 -0.02996
65.25 -0.02405
65.3 -0.0148
65.35 -0.01229
65.4 -0.00861
65.45 -0.00615
65.5 -0.00687
65.55 -0.00491
65.6 -0.00463
65.65 -0.00118
65.7 0.00576
65.75 0.01085
65.8 0.01469
65.85 0.01647
65.9 0.01902
65.95 0.01651
66 0.01127
66.05 0.00465
66.1 -0.0038
66.15 -0.01022
66.2 -0.01656
66.25 -0.02198
66.3 -0.02628
66.35 -0.02243
66.4 -0.01796
66.45 -0.01568
66.5 -0.01
66.55 -0.00899
66.6 -0.00539
66.65 -0.00131
66.7 -0.00116
66.75 0.00136
66.8 0.0072
66.85 0.01224
66.9 0.01738
66.95 0.02125
67 0.0182
67.05 0.01262
67.1 0.00467
67.15 0.00403
67.2 0.0069
67.25 0.01222
67.3 0.01041
67.35 0.01008
67.4 0.00551
67.45 0.00091
67.5 0.00072
67.55 0.00226
67.6 0.00589
67.65 0.00557
67.7 0.0051
67.75 0.00755
67.8 0.0079
67.85 0.01013
67.9 0.0104
67.95 0.01006
68 0.006
68.05 0.00011
68.1 -0.00692
68.15 -0.01024
68.2 -0.01438
68.25 -0.01133
68.3 -0.01125
68.35 -0.01468
68.4 -0.01127
68.45 -0.00925
68.5 -0.01016
68.55 -0.01095
68.6 -0.01505
68.65 -0.01634
68.7 -0.02022
68.75 -0.01978
68.8 -0.01729
68.85 -0.01615
68.9 -0.01157
68.95 -0.00606
69 -0.00014
69.05 0.00429
69.1 0.011
69.15 0.00997
69.2 0.01003
69.25 0.01074
69.3 0.01057
69.35 0.00763
69.4 0.00411
69.45 0.001
69.5 0.00173
69.55 0.0065
69.6 0.0059
69.65 0.00147
69.7 0.00184
69.75 0.00369
69.8 0.0037
69.85 0.00651
69.9 0.00543
69.95 0.00209
70 0.00314
70.05 0.00663
70.1 0.00836
70.15 0.00929
70.2 0.01146
70.25 0.01045
70.3 0.00989
70.35 0.00792
70.4 0.00722
70.45 0.0087
70.5 0.00631
70.55 0.00074
70.6 0.0017
70.65 0.00544
70.7 0.00337
70.75 -0.00254
70.8 -0.00371
70.85 -0.00674
70.9 -0.00911
70.95 -0.00585
71 -0.00578
71.05 -0.00746
71.1 -0.00393
71.15 0.00105
71.2 0.00049
71.25 0.00062
71.3 0.00264
71.35 0.00112
71.4 -0.00209
71.45 -0.00796
71.5 -0.01237
71.55 -0.01547
71.6 -0.01685
71.65 -0.01967
71.7 -0.01737
71.75 -0.01172
71.8 -0.00258
71.85 0.00519
71.9 0.00747
71.95 0.0082
72 0.00437
72.05 0.00025
72.1 -0.00135
72.15 -0.0025
72.2 -0.00057
72.25 -0.00155
72.3 -0.00512
72.35 -0.01118
72.4 -0.01734
72.45 -0.01754
72.5 -0.02033
72.55 -0.01648
72.6 -0.01192
72.65 -0.00456
72.7 0.0036
72.75 0.00446
72.8 0.00097
72.85 0.00134
72.9 -0.00276
72.95 -0.00749
73 -0.00797
73.05 -0.0044
73.1 -0.00174
73.15 0.00276
73.2 0.00192
73.25 -0.00298
73.3 -0.00729
73.35 -0.00827
73.4 -0.00883
73.45 -0.00504
73.5 0.00078
73.55 0.00114
73.6 0.00399
73.65 0.00598
73.7 0.00785
73.75 0.00405
73.8 -0.00062
73.85 -0.00685
73.9 -0.00801
73.95 -0.01163
74 -0.01005
74.05 -0.00852
74.1 -0.00751
74.15 -0.00449
74.2 -0.00233
74.25 0.0004
74.3 0.00611
74.35 0.00664
74.4 0.00387
74.45 0.00407
74.5 0.00635
74.55 0.00977
74.6 0.01171
74.65 0.00807
74.7 0.00731
74.75 0.00535
74.8 0.00371
74.85 -0.00039
74.9 -0.00623
74.95 -0.00824
75 -0.0065
75.05 -0.00232
75.1 0.00041
75.15 -0.00033
75.2 -0.00016
75.25 -0.00338
75.3 -0.00491
75.35 -0.00446
75.4 -0.00644
75.45 -0.00574
75.5 -0.00238
75.55 0.00249
75.6 0.0083
75.65 0.01027
75.7 0.00807
75.75 0.00902
75.8 0.00653
75.85 0.00469
75.9 0.00638
75.95 0.00888
76 0.01114
76.05 0.01223
76.1 0.00753
76.15 0.0085
76.2 0.00594
76.25 0.00668
76.3 0.00913
76.35 0.01317
76.4 0.0106
76.45 0.01269
76.5 0.00828
76.55 0.00845
76.6 0.01066
76.65 0.00875
76.7 0.00479
76.75 0.00366
76.8 -0.00038
76.85 -0.00541
76.9 -0.00936
76.95 -0.01479
77 -0.01662
77.05 -0.01755
77.1 -0.01363
77.15 -0.00713
77.2 0.00096
77.25 0.00597
77.3 0.00412
77.35 -0.00153
77.4 -0.00785
77.45 -0.01429
77.5 -0.01853
77.55 -0.0209
77.6 -0.01686
77.65 -0.01597
77.7 -0.01712
77.75 -0.0154
77.8 -0.01543
77.85 -0.01655
77.9 -0.014
77.95 -0.00706
78 -0.00293
78.05 -0.00074
78.1 -0.00098
78.15 0.00056
78.2 -0.00164
78.25 -0.00096
78.3 0.00019
78.35 -0.00021
78.4 -0.00422
78.45 -0.00593
78.5 -0.00657
78.55 -0.00501
78.6 0.00102
78.65 0.00342
78.7 0.00471
78.75 0.0051
78.8 0.00911
78.85 0.0097
78.9 0.00914
78.95 0.00884
79 0.01028
79.05 0.0142
79.1 0.01549
79.15 0.01763
79.2 0.01546
79.25 0.00892
79.3 0.0047
79.35 -0.00021
79.4 -0.0079
79.45 -0.01348
79.5 -0.01272
79.55 -0.01269
79.6 -0.01367
79.65 -0.01554
79.7 -0.0126
79.75 -0.01354
79.8 -0.01165
79.85 -0.00705
79.9 -0.00258
79.95 0.00486
80 0.00799
80.05 0.0111
80.1 0.01634
80.15 0.01801
80.2 0.01569
80.25 0.0173
80.3 0.01925
80.35 0.02091
80.4 0.0164
80.45 0.01531
80.5 0.01573
80.55 0.01341
80.6 0.01244
80.65 0.00849
80.7 0.00926
80.75 0.01238
80.8 0.01424
80.85 0.01496
80.9 0.01016
80.95 0.00754
81 0.00198
81.05 -0.00005
81.1 -0.00515
81.15 -0.00642
81.2 -0.00778
81.25 -0.00828
81.3 -0.00534
81.35 -0.0031
81.4 -0.00236
81.45 -0.00134
81.5 0.00271
81.55 0.00393
81.6 0.00239
81.65 -0.00214
81.7 -0.00273
81.75 -0.00142
81.8 -0.00285
81.85 -0.00258
81.9 -0.00698
81.95 -0.00618
82 -0.00214
82.05 -0.0019
82.1 -0.00252
82.15 -0.00576
82.2 -0.00408
82.25 0.00005
82.3 0.0046
82.35 0.01155
82.4 0.01267
82.45 0.00854
82.5 0.00642
82.55 0.00112
82.6 0.00104
82.65 -0.00036
82.7 -0.00182
82.75 -0.00086
82.8 -0.00384
82.85 -0.00933
82.9 -0.01169
82.95 -0.00941
83 -0.01004
83.05 -0.01413
83.1 -0.01817
83.15 -0.02012
83.2 -0.01562
83.25 -0.01389
83.3 -0.00783
83.35 -0.00069
83.4 0.00475
83.45 0.00533
83.5 0.00182
83.55 -0.00189
83.6 -0.00518
83.65 -0.00547
83.7 -0.00696
83.75 -0.00796
83.8 -0.00376
83.85 0.00345
83.9 0.00432
83.95 0.00829
84 0.00898
84.05 0.01166
84.1 0.01668
84.15 0.01904
84.2 0.01838
84.25 0.01523
84.3 0.01191
84.35 0.01093
84.4 0.00932
84.45 0.0108
84.5 0.01422
84.55 0.01975
84.6 0.02309
84.65 0.02259
84.7 0.01967
84.75 0.01341
84.8 0.01148
84.85 0.00647
84.9 0.00636
84.95 0.00729
85 0.00419
85.05 -0.00108
85.1 -0.00163
85.15 -0.0056
85.2 -0.00854
85.25 -0.01141
85.3 -0.00876
85.35 -0.007
85.4 -0.00535
85.45 -0.0062
85.5 -0.0028
85.55 -0.00236
85.6 -0.00368
85.65 -0.00449
85.7 -0.00313
85.75 -0.00235
85.8 -0.00383
85.85 -0.00896
85.9 -0.01044
85.95 -0.011
86 -0.0097
86.05 -0.00727
86.1 -0.01001
86.15 -0.01425
86.2 -0.01889
86.25 -0.02218
86.3 -0.0271
86.35 -0.02602
86.4 -0.02374
86.45 -0.01619
86.5 -0.01088
86.55 -0.00268
86.6 0.00544
86.65 0.01082
86.7 0.01014
86.75 0.0106
86.8 0.006
86.85 0.00542
86.9 0.00685
86.95 0.00347
87 0.00071
87.05 0.00339
87.1 0.00475
87.15 0.00572
87.2 0.00599
87.25 0.00744
87.3 0.00956
87.35 0.00709
87.4 0.00064
87.45 0.00011
87.5 -0.00377
87.55 -0.00213
87.6 -0.00532
87.65 -0.0058
87.7 -0.00354
87.75 -0.00134
87.8 0.00208
87.85 0.003
87.9 -0.00013
87.95 -0.00148
88 -0.00614
88.05 -0.00893
88.1 -0.01328
88.15 -0.01045
88.2 -0.0077
88.25 -0.00704
88.3 -0.00583
88.35 -0.00169
88.4 0.0051
88.45 0.00975
88.5 0.00925
88.55 0.00742
88.6 0.00524
88.65 0.00373
88.7 0.00686
88.75 0.0073
88.8 0.00508
88.85 -0.0009
88.9 -0.00295
88.95 -0.00254
89 0.0023
89.05 0.00626
89.1 0.01022
89.15 0.01288
89.2 0.01646
89.25 0.01605
89.3 0.01719
89.35 0.01191
89.4 0.00376
89.45 -0.00523
89.5 -0.01441
89.55 -0.01462
89.6 -0.00961
89.65 -0.00866
89.7 -0.0105
89.75 -0.01392
89.8 -0.01868
89.85 -0.02338
89.9 -0.02317
89.95 -0.02169
90 -0.01783
90.05 -0.01148
90.1 -0.0055
90.15 0.00066
90.2 0.00801
90.25 0.01415
90.3 0.01886
90.35 0.01868
90.4 0.01494
90.45 0.00673
90.5 0.00481
90.55 0.00756
90.6 0.0092
90.65 0.00856
90.7 0.00475
90.75 -0.00111
90.8 -0.00608
90.85 -0.00966
90.9 -0.01066
90.95 -0.00915
91 -0.00702
91.05 -0.00772
91.1 -0.00543
91.15 -0.00519
91.2 -0.00315
91.25 -0.00627
91.3 -0.00978
91.35 -0.01125
91.4 -0.0149
91.45 -0.01703
91.5 -0.01281
91.55 -0.0065
91.6 -0.00262
91.65 -0.0009
91.7 -0.00207
91.75 -0.00045
91.8 0.00363
91.85 0.00899
91.9 0.01333
91.95 0.01883
92 0.02322
92.05 0.02452
92.1 0.02186
92.15 0.02127
92.2 0.01902
92.25 0.01527
92.3 0.01232
92.35 0.01374
92.4 0.01607
92.45 0.01639
92.5 0.01741
92.55 0.01674
92.6 0.01171
92.65 0.00615
92.7 -0.00094
92.75 -0.00787
92.8 -0.01067
92.85 -0.00881
92.9 -0.00542
92.95 -0.00026
93 0.00151
93.05 0.00681
93.1 0.00627
93.15 0.00582
93.2 0.0021
93.25 -0.00146
93.3 -0.00746
93.35 -0.01268
93.4 -0.01514
93.45 -0.01987
93.5 -0.01868
93.55 -0.017
93.6 -0.01467
93.65 -0.01293
93.7 -0.00645
93.75 -0.00327
93.8 0.00136
93.85 0.00523
93.9 0.00318
93.95 -0.00234
94 -0.0057
94.05 -0.00933
94.1 -0.00847
94.15 -0.01081
94.2 -0.01457
94.25 -0.0157
94.3 -0.01879
94.35 -0.02384
94.4 -0.02744
94.45 -0.0293
94.5 -0.02343
94.55 -0.01942
94.6 -0.01211
94.65 -0.01004
94.7 -0.01001
94.75 -0.00572
94.8 -0.00121
94.85 0.00333
94.9 0.00671
94.95 0.00411
95 0.00532
95.05 0.00423
95.1 0.00439
95.15 0.00868
95.2 0.01269
95.25 0.01389
95.3 0.01161
95.35 0.00744
95.4 -0.00024
95.45 -0.00275
95.5 -0.0014
95.55 0.00086
95.6 0.00679
95.65 0.01119
95.7 0.01691
95.75 0.01852
95.8 0.02108
95.85 0.01653
95.9 0.01423
95.95 0.01524
96 0.0152
96.05 0.0174
96.1 0.01564
96.15 0.01125
96.2 0.00788
96.25 0.00659
96.3 0.0037
96.35 0.00278
96.4 0.00155
96.45 -0.00325
96.5 -0.008
96.55 -0.01247
96.6 -0.01764
96.65 -0.02212
96.7 -0.02571
96.75 -0.02767
96.8 -0.029
96.85 -0.02963
96.9 -0.03012
96.95 -0.03053
97 -0.02992
97.05 -0.02591
97.1 -0.02318
97.15 -0.02276
97.2 -0.01747
97.25 -0.01
97.3 -0.00789
97.35 -0.00331
97.4 -0.00339
97.45 -0.00327
97.5 -0.00288
97.55 -0.0054
97.6 -0.0092
97.65 -0.01509
97.7 -0.01329
97.75 -0.01513
97.8 -0.01928
97.85 -0.02171
97.9 -0.02348
97.95 -0.02504
98 -0.02378
98.05 -0.01981
98.1 -0.01337
98.15 -0.00773
98.2 -0.00313
98.25 -0.00269
98.3 -0.00205
98.35 0.00003
98.4 -0.00093
98.45 -0.00549
98.5 -0.01079
98.55 -0.01648
98.6 -0.01439
98.65 -0.00976
98.7 -0.00384
98.75 -0.00058
98.8 -0.00238
98.85 -0.00292
98.9 0.00005
98.95 0.00264
99 0.00358
99.05 0.00195
99.1 0.00489
99.15 0.01122
99.2 0.01305
99.25 0.01507
99.3 0.0167
99.35 0.02106
99.4 0.02315
99.45 0.02269
99.5 0.02456
99.55 0.02181
99.6 0.01477
99.65 0.00867
99.7 0.00148
99.75 -0.00154
99.8 -0.00108
99.85 0.00299
99.9 0.00271
99.95 0.00633
