0 0
0.05 0.0046
0.1 0.00963
0.15 0.01668
0.2 0.02368
0.25 0.03412
0.3 0.04582
0.35 0.05289
0.4 0.05665
0.45 0.06268
0.5 0.06991
0.55 0.0724
0.6 0.0735
0.65 0.0691
0.7 0.06615
0.75 0.06339
0.8 0.05751
0.85 0.04889
0.9 0.04234
0.95 0.03468
1 0.03441
1.05 0.03524
1.1 0.03798
1.15 0.03861
1.2 0.04045
1.25 0.04487
1.3 0.05156
1.35 0.05872
1.4 0.0575
1.45 0.05343
1.5 0.05262
1.55 0.04851
1.6 0.04176
1.65 0.03587
1.7 0.02862
1.75 0.0217
1.8 0.0152
1.85 0.01587
1.9 0.01467
1.95 0.01572
2 0.01476
2.05 0.01815
2.1 0.02312
2.15 0.02589
2.2 0.03111
2.25 0.03441
2.3 0.03914
2.35 0.04581
2.4 0.0489
2.45 0.04988
2.5 0.04457
2.55 0.04067
2.6 0.03767
2.65 0.03747
2.7 0.03761
2.75 0.03721
2.8 0.03157
2.85 0.02919
2.9 0.02332
2.95 0.0189
3 0.01483
3.05 0.01206
3.1 0.01021
3.15 0.00846
3.2 0.00436
3.25 0.00011
3.3 0.0009
3.35 0.00349
3.4 0.00468
3.45 0.00724
3.5 0.00918
3.55 0.01533
3.6 0.01922
3.65 0.02489
3.7 0.02355
3.75 0.02616
3.8 0.02861
3.85 0.03378
3.9 0.03313
3.95 0.02655
4 0.02444
4.05 0.01904
4.1 0.01334
4.15 0.0098
4.2 0.00253
4.25 0.00128
4.3 0.00128
4.35 -0.00371
4.4 -0.00735
4.45 -0.01213
4.5 -0.01911
4.55 -0.03088
4.6 -0.04359
4.65 -0.06004
4.7 -0.07999
4.75 -0.1047
4.8 -0.12926
4.85 -0.15615
4.9 -0.18668
4.95 -0.21747
5 -0.25229
5.05 -0.29665
5.1 -0.34276
5.15 -0.39486
5.2 -0.44962
5.25 -0.51631
5.3 -0.58598
5.35 -0.66105
5.4 -0.74832
5.45 -0.8362
5.5 -0.92785
5.55 -1.02537
5.6 -1.12039
5.65 -1.21448
5.7 -1.31212
5.75 -1.40871
5.8 -1.5101
5.85 -1.61169
5.9 -1.70915
5.95 -1.80122
6 -1.88885
6.05 -1.97023
6.1 -2.05087
6.15 -2.12457
6.2 -2.1899
6.25 -2.24891
6.3 -2.30834
6.35 -2.35828
6.4 -2.40737
6.45 -2.45095
6.5 -2.48125
6.55 -2.50585
6.6 -2.51976
6.65 -2.52213
6.7 -2.51402
6.75 -2.49511
6.8 -2.46357
6.85 -2.41041
6.9 -2.34295
6.95 -2.26124
7 -2.16294
7.05 -2.04676
7.1 -1.91002
7.15 -1.76249
7.2 -1.59711
7.25 -1.4233
7.3 -1.24049
7.35 -1.05237
7.4 -0.85665
7.45 -0.65102
7.5 -0.44647
7.55 -0.23842
7.6 -0.02735
7.65 0.17628
7.7 0.37704
7.75 0.56752
7.8 0.74684
7.85 0.92266
7.9 1.08279
7.95 1.22867
8 1.36268
8.05 1.48636
8.1 1.6059
8.15 1.71594
8.2 1.81026
8.25 1.89472
8.3 1.9672
8.35 2.02618
8.4 2.07282
8.45 2.11496
8.5 2.15405
8.55 2.18255
8.6 2.20089
8.65 2.21225
8.7 2.2221
8.75 2.22914
8.8 2.23165
8.85 2.23264
8.9 2.22557
8.95 2.21325
9 2.20234
9.05 2.18687
9.1 2.17078
9.15 2.15104
9.2 2.13547
9.25 2.11919
9.3 2.09922
9.35 2.08312
9.4 2.06287
9.45 2.03721
9.5 2.01367
9.55 1.98948
9.6 1.96539
9.65 1.94246
9.7 1.9121
9.75 1.88321
9.8 1.85222
9.85 1.81911
9.9 1.78586
9.95 1.75127
10 1.71603
10.05 1.67466
10.1 1.63528
10.15 1.59796
10.2 1.55673
10.25 1.51673
10.3 1.47785
10.35 1.43935
10.4 1.39608
10.45 1.35393
10.5 1.30825
10.55 1.26208
10.6 1.21118
10.65 1.1564
10.7 1.10156
10.75 1.05332
10.8 1.00545
10.85 0.95689
10.9 0.90597
10.95 0.8595
11 0.81265
11.05 0.76516
11.1 0.72329
11.15 0.68234
11.2 0.64398
11.25 0.59922
11.3 0.55294
11.35 0.50533
11.4 0.46304
11.45 0.41776
11.5 0.37189
11.55 0.33235
11.6 0.29261
11.65 0.25768
11.7 0.22203
11.75 0.18773
11.8 0.1559
11.85 0.12747
11.9 0.10157
11.95 0.07217
12 0.04608
12.05 0.01964
12.1 -0.00258
12.15 -0.02542
12.2 -0.05034
12.25 -0.07827
12.3 -0.10429
12.35 -0.12585
12.4 -0.14639
12.45 -0.16676
12.5 -0.18755
12.55 -0.20186
12.6 -0.22015
12.65 -0.24117
12.7 -0.26298
12.75 -0.27677
12.8 -0.29135
12.85 -0.30636
12.9 -0.31838
12.95 -0.33027
13 -0.34034
13.05 -0.34292
13.1 -0.34843
13.15 -0.3549
13.2 -0.3578
13.25 -0.35943
13.3 -0.36289
13.35 -0.36812
13.4 -0.37339
13.45 -0.37505
13.5 -0.37513
13.55 -0.37852
13.6 -0.37882
13.65 -0.38121
13.7 -0.37769
13.75 -0.37712
13.8 -0.3801
13.85 -0.37815
13.9 -0.37907
13.95 -0.379
14 -0.38098
14.05 -0.37773
14.1 -0.37232
14.15 -0.36561
14.2 -0.35947
14.25 -0.35048
14.3 -0.34308
14.35 -0.33904
14.4 -0.34046
14.45 -0.34009
14.5 -0.33732
14.55 -0.33758
14.6 -0.33829
14.65 -0.33714
14.7 -0.33555
14.75 -0.33544
14.8 -0.33176
14.85 -0.32395
14.9 -0.3157
14.95 -0.30762
15 -0.29738
15.05 -0.28935
15.1 -0.28552
15.15 -0.28663
15.2 -0.28629
15.25 -0.28198
15.3 -0.27415
15.35 -0.26784
15.4 -0.2649
15.45 -0.26469
15.5 -0.26382
15.55 -0.25768
15.6 -0.25413
15.65 -0.24915
15.7 -0.24025
15.75 -0.23124
15.8 -0.22222
15.85 -0.21697
15.9 -0.21538
15.95 -0.2107
16 -0.21014
16.05 -0.21437
16.1 -0.21761
16.15 -0.21915
16.2 -0.22225
16.25 -0.22652
16.3 -0.23085
16.35 -0.22753
16.4 -0.22356
16.45 -0.21398
16.5 -0.20495
16.55 -0.20158
16.6 -0.19655
16.65 -0.19024
16.7 -0.18052
16.75 -0.17429
16.8 -0.16777
16.85 -0.16279
16.9 -0.16218
16.95 -0.15868
17 -0.15877
17.05 -0.15868
17.1 -0.15691
17.15 -0.15219
17.2 -0.15007
17.25 -0.1522
17.3 -0.14866
17.35 -0.14417
17.4 -0.13913
17.45 -0.13939
17.5 -0.13723
17.55 -0.13216
17.6 -0.13346
17.65 -0.13595
17.7 -0.13576
17.75 -0.13233
17.8 -0.12567
17.85 -0.1183
17.9 -0.11259
17.95 -0.11009
18 -0.10823
18.05 -0.10418
18.1 -0.10506
18.15 -0.10331
18.2 -0.09972
18.25 -0.10152
18.3 -0.09974
18.35 -0.09881
18.4 -0.10206
18.45 -0.10183
18.5 -0.10195
18.55 -0.10528
18.6 -0.11081
18.65 -0.11299
18.7 -0.11734
18.75 -0.11987
18.8 -0.11523
18.85 -0.10952
18.9 -0.10121
18.95 -0.09526
19 -0.0924
19.05 -0.08863
19.1 -0.08349
19.15 -0.08446
19.2 -0.08217
19.25 -0.08269
19.3 -0.07961
19.35 -0.08115
19.4 -0.08623
19.45 -0.0895
19.5 -0.09084
19.55 -0.09297
19.6 -0.09296
19.65 -0.09079
19.7 -0.09024
19.75 -0.08936
19.8 -0.08571
19.85 -0.08203
19.9 -0.08088
19.95 -0.08289
20 -0.0868
20.05 -0.08803
20.1 -0.08251
20.15 -0.07459
20.2 -0.06907
20.25 -0.06264
20.3 -0.05794
20.35 -0.0583
20.4 -0.05382
20.45 -0.05231
20.5 -0.04659
20.55 -0.03963
20.6 -0.03583
20.65 -0.03789
20.7 -0.04051
20.75 -0.04071
20.8 -0.04317
20.85 -0.04424
20.9 -0.04754
20.95 -0.04559
21 -0.04757
21.05 -0.05261
21.1 -0.05228
21.15 -0.05076
21.2 -0.04476
21.25 -0.04068
21.3 -0.0372
21.35 -0.0345
21.4 -0.03394
21.45 -0.03353
21.5 -0.03023
21.55 -0.02951
21.6 -0.03266
21.65 -0.03665
21.7 -0.04153
21.75 -0.04044
21.8 -0.03667
21.85 -0.03418
21.9 -0.03609
21.95 -0.0392
22 -0.0387
22.05 -0.03661
22.1 -0.03473
22.15 -0.03289
22.2 -0.03462
22.25 -0.03159
22.3 -0.03241
22.35 -0.02885
22.4 -0.02959
22.45 -0.03277
22.5 -0.0386
22.55 -0.04149
22.6 -0.04198
22.65 -0.04531
22.7 -0.04781
22.75 -0.0449
22.8 -0.03993
22.85 -0.03887
22.9 -0.04071
22.95 -0.03846
23 -0.039
23.05 -0.03641
23.1 -0.0323
23.15 -0.02405
23.2 -0.01849
23.25 -0.01419
23.3 -0.01075
23.35 -0.00637
23.4 -0.00276
23.45 -0.00164
23.5 -0.0059
23.55 -0.00981
23.6 -0.00896
23.65 -0.00986
23.7 -0.0077
23.75 -0.00267
23.8 0.00181
23.85 0.00585
23.9 0.0058
23.95 0.00605
24 0.00828
24.05 0.00607
24.1 -0.00045
24.15 -0.00545
24.2 -0.01157
24.25 -0.01986
24.3 -0.02715
24.35 -0.02871
24.4 -0.02982
24.45 -0.02749
24.5 -0.0253
24.55 -0.02663
24.6 -0.02747
24.65 -0.03028
24.7 -0.03161
24.75 -0.0269
24.8 -0.02251
24.85 -0.01475
24.9 -0.00586
24.95 0.00373
25 0.00832
25.05 0.01113
25.1 0.01515
25.15 0.01387
25.2 0.00983
25.25 0.0028
25.3 -0.00686
25.35 -0.0136
25.4 -0.01822
25.45 -0.01822
25.5 -0.0155
25.55 -0.01575
25.6 -0.01645
25.65 -0.01415
25.7 -0.01658
25.75 -0.01982
25.8 -0.0225
25.85 -0.02436
25.9 -0.02266
25.95 -0.01619
26 -0.01182
26.05 -0.01352
26.1 -0.01567
26.15 -0.0153
26.2 -0.01855
26.25 -0.01823
26.3 -0.01319
26.35 -0.00827
26.4 -0.00546
26.45 -0.00217
26.5 -0.00333
26.55 -0.00265
26.6 -0.00032
26.65 0.00213
26.7 0.00587
26.75 0.00348
26.8 0.00175
26.85 -0.00278
26.9 -0.01039
26.95 -0.01265
27 -0.01807
27.05 -0.02023
27.1 -0.0161
27.15 -0.01391
27.2 -0.01478
27.25 -0.01898
27.3 -0.01724
27.35 -0.01796
27.4 -0.02034
27.45 -0.02
27.5 -0.02202
27.55 -0.01786
27.6 -0.01788
27.65 -0.01253
27.7 -0.01299
27.75 -0.00905
27.8 -0.01061
27.85 -0.01004
27.9 -0.00846
27.95 -0.00842
28 -0.00992
28.05 -0.00878
28.1 -0.00735
28.15 -0.00408
28.2 0.00202
28.25 0.00713
28.3 0.00713
28.35 0.00721
28.4 0.0083
28.45 0.00926
28.5 0.00417
28.55 -0.00402
28.6 -0.01008
28.65 -0.01092
28.7 -0.00848
28.75 -0.01014
28.8 -0.01056
28.85 -0.01137
28.9 -0.00869
28.95 -0.00332
29 -0.00347
29.05 -0.00711
29.1 -0.0133
29.15 -0.01558
29.2 -0.01287
29.25 -0.00798
29.3 -0.00278
29.35 -0.00358
29.4 -0.00733
29.45 -0.00768
29.5 -0.00836
29.55 -0.00372
29.6 -0.00329
29.65 -0.00155
29.7 0.0032
29.75 0.00476
29.8 0.00152
29.85 -0.00224
29.9 -0.00003
29.95 -0.00021
30 0.00379
30.05 0.00467
30.1 0.00462
30.15 0.00349
30.2 0.00015
30.25 -0.00492
30.3 -0.01068
30.35 -0.01758
30.4 -0.02323
30.45 -0.02502
30.5 -0.02262
30.55 -0.02211
30.6 -0.01751
30.65 -0.00961
30.7 -0.0055
30.75 -0.0059
30.8 -0.00503
30.85 0.00027
30.9 0.00736
30.95 0.01434
31 0.01851
31.05 0.02248
31.1 0.02357
31.15 0.02009
31.2 0.01457
31.25 0.01284
31.3 0.01089
31.35 0.01177
31.4 0.00762
31.45 0.0086
31.5 0.0062
31.55 -0.00046
31.6 -0.00052
31.65 0.00275
31.7 0.00266
31.75 0.00254
31.8 0.0062
31.85 0.00599
31.9 0.00886
31.95 0.00684
32 0.00167
32.05 0.00102
32.1 -0.00419
32.15 -0.00584
32.2 -0.00386
32.25 -0.0069
32.3 -0.01217
32.35 -0.01795
32.4 -0.01895
32.45 -0.02104
32.5 -0.02213
32.55 -0.01977
32.6 -0.01706
32.65 -0.01443
32.7 -0.00772
32.75 -0.00643
32.8 -0.00383
32.85 0.0005
32.9 0.00283
32.95 0.00475
33 0.00957
33.05 0.00793
33.1 0.00313
33.15 -0.00329
33.2 -0.00615
33.25 -0.00951
33.3 -0.00693
33.35 -0.00756
33.4 -0.00625
33.45 -0.00928
33.5 -0.01319
33.55 -0.01227
33.6 -0.00845
33.65 -0.00107
33.7 -0.00072
33.75 -0.00281
33.8 -0.00071
33.85 -0.00355
33.9 -0.00241
33.95 0.00161
34 0.00101
34.05 0.0022
34.1 0.00392
34.15 0.00939
34.2 0.01021
34.25 0.01229
34.3 0.01568
34.35 0.01318
34.4 0.00627
34.45 -0.00148
34.5 -0.01015
34.55 -0.0186
34.6 -0.02606
34.65 -0.02451
34.7 -0.0245
34.75 -0.01811
34.8 -0.00943
34.85 -0.00144
34.9 0.00723
34.95 0.01228
35 0.01469
35.05 0.01668
35.1 0.0163
35.15 0.01397
35.2 0.01139
35.25 0.00599
35.3 0.00516
35.35 0.00616
35.4 0.00705
35.45 0.00234
35.5 -0.00359
35.55 -0.00772
35.6 -0.00914
35.65 -0.01124
35.7 -0.0121
35.75 -0.01397
35.8 -0.01623
35.85 -0.01775
35.9 -0.01959
35.95 -0.01837
36 -0.01222
36.05 -0.00664
36.1 -0.00418
36.15 -0.00676
36.2 -0.00592
36.25 -0.0031
36.3 -0.00355
36.35 -0.00306
36.4 -0.00609
36.45 -0.00394
36.5 0.00033
36.55 0.00177
36.6 0.00587
36.65 0.00758
36.7 0.00457
36.75 -0.00178
36.8 -0.00495
36.85 -0.00407
36.9 -0.00319
36.95 -0.00111
37 0.00068
37.05 0.00119
37.1 0.00124
37.15 -0.00033
37.2 0.00039
37.25 -0.00367
37.3 -0.00716
37.35 -0.00731
37.4 -0.00656
37.45 -0.00718
37.5 -0.00982
37.55 -0.01072
37.6 -0.00752
37.65 -0.00399
37.7 0.00266
37.75 0.00567
37.8 0.00668
37.85 0.0075
37.9 0.01112
37.95 0.01184
38 0.01429
38.05 0.01242
38.1 0.00872
38.15 0.00892
38.2 0.00865
38.25 0.01062
38.3 0.00982
38.35 0.00563
38.4 0.00361
38.45 0.00415
38.5 0.0044
38.55 0.00763
38.6 0.00825
38.65 0.01129
38.7 0.01157
38.75 0.0134
38.8 0.01433
38.85 0.00997
38.9 0.00211
38.95 -0.00448
39 -0.00818
39.05 -0.01293
39.1 -0.01818
39.15 -0.01645
39.2 -0.01672
39.25 -0.01233
39.3 -0.00566
39.35 -0.00523
39.4 -0.00102
39.45 -0.00068
39.5 0.00086
39.55 -0.00281
39.6 -0.00081
39.65 0.00288
39.7 0.0058
39.75 0.00351
39.8 0
39.85 -0.00473
39.9 -0.00709
39.95 -0.01202
40 -0.01359
40.05 -0.01285
40.1 -0.01403
40.15 -0.00937
40.2 -0.00761
40.25 -0.00988
40.3 -0.00718
40.35 -0.00579
40.4 -0.00682
40.45 -0.01071
40.5 -0.01185
40.55 -0.01603
40.6 -0.01317
40.65 -0.01086
40.7 -0.012
40.75 -0.01097
40.8 -0.00555
40.85 -0.00532
40.9 -0.00063
40.95 0.00252
41 0.00078
41.05 0.00102
41.1 0.00224
41.15 0.00458
41.2 0.00254
41.25 0.00034
41.3 -0.00041
41.35 -0.00125
41.4 -0.00391
41.45 -0.00661
41.5 -0.00797
41.55 -0.00423
41.6 -0.00289
41.65 0.00112
41.7 0.00736
41.75 0.00954
41.8 0.01203
41.85 0.01114
41.9 0.01169
41.95 0.01176
42 0.01358
42.05 0.01461
42.1 0.01205
42.15 0.00846
42.2 0.0065
42.25 0.00098
42.3 -0.0024
42.35 -0.00149
42.4 -0.0031
42.45 -0.00495
42.5 -0.00833
42.55 -0.00621
42.6 -0.00431
42.65 0.00049
42.7 0.00333
42.75 0.00808
42.8 0.01452
42.85 0.02066
42.9 0.0274
42.95 0.03032
43 0.02756
43.05 0.0197
43.1 0.01131
43.15 0.00375
43.2 0.00258
43.25 0.00565
43.3 0.00873
43.35 0.00695
43.4 0.0019
43.45 -0.00517
43.5 -0.00763
43.55 -0.01007
43.6 -0.00895
43.65 -0.00508
43.7 -0.00114
43.75 0.00029
43.8 0.00418
43.85 0.00828
43.9 0.01215
43.95 0.014
44 0.01815
44.05 0.02127
44.1 0.02496
44.15 0.02258
44.2 0.02261
44.25 0.01932
44.3 0.0167
44.35 0.01295
44.4 0.00666
44.45 -0.00041
44.5 -0.00494
44.55 -0.00852
44.6 -0.01297
44.65 -0.01597
44.7 -0.0165
44.75 -0.01764
44.8 -0.01464
44.85 -0.00955
44.9 -0.00747
44.95 -0.0096
45 -0.0068
45.05 -0.00135
45.1 -0.00259
45.15 -0.00338
45.2 -0.00106
45.25 0.00147
45.3 0.00315
45.35 0.00094
45.4 0.00326
45.45 0.00434
45.5 0.00487
45.55 0.00737
45.6 0.0036
45.65 0.00472
45.7 0.00924
45.75 0.00706
45.8 0.0082
45.85 0.00911
45.9 0.01009
45.95 0.01077
46 0.00565
46.05 0.00132
46.1 0.00209
46.15 0.0026
46.2 0.00527
46.25 0.00904
46.3 0.0059
46.35 0.00464
46.4 -0.00014
46.45 -0.00352
46.5 -0.00822
46.55 -0.01267
46.6 -0.01285
46.65 -0.01622
46.7 -0.01805
46.75 -0.0161
46.8 -0.01357
46.85 -0.00776
46.9 -0.00366
46.95 0.00137
47 0.00826
47.05 0.01305
47.1 0.01104
47.15 0.00488
47.2 0.00274
47.25 0.00122
47.3 0.00421
47.35 0.00091
47.4 -0.00347
47.45 -0.00584
47.5 -0.00432
47.55 -0.00291
47.6 -0.00255
47.65 -0.0044
47.7 -0.00383
47.75 -0.00204
47.8 -0.00421
47.85 -0.00452
47.9 -0.00333
47.95 0.00087
48 -0.00039
48.05 0.00185
48.1 -0.00173
48.15 -0.00738
48.2 -0.0126
48.25 -0.01368
48.3 -0.01329
48.35 -0.01503
48.4 -0.01337
48.45 -0.00833
48.5 -0.00269
48.55 0.00053
48.6 0.00396
48.65 0.00145
48.7 0.00354
48.75 0.00441
48.8 0.00381
48.85 0.00029
48.9 0.00166
48.95 0.00606
49 0.00566
49.05 0.00609
49.1 0.00192
49.15 0.00012
49.2 0.00264
49.25 0.00078
49.3 0.00215
49.35 0.00343
49.4 0.0023
49.45 -0.00303
49.5 -0.00244
49.55 -0.00545
49.6 -0.00731
49.65 -0.00659
49.7 -0.00147
49.75 0.00244
49.8 0.00519
49.85 0.00652
49.9 0.00437
49.95 0.0021
50 -0.0021
50.05 -0.00187
50.1 -0.00158
50.15 -0.00531
50.2 -0.00286
50.25 -0.00397
50.3 -0.00621
50.35 -0.00615
50.4 -0.00326
50.45 -0.00306
50.5 -0.00166
50.55 -0.00449
50.6 -0.00166
50.65 -0.00251
50.7 -0.00399
50.75 -0.00923
50.8 -0.0099
50.85 -0.01328
50.9 -0.01033
50.95 -0.01132
51 -0.01209
51.05 -0.00789
51.1 -0.00847
51.15 -0.00997
51.2 -0.01338
51.25 -0.01712
51.3 -0.02203
51.35 -0.02661
51.4 -0.0268
51.45 -0.02502
51.5 -0.0193
51.55 -0.0147
51.6 -0.01079
51.65 -0.00717
51.7 -0.00709
51.75 -0.01054
51.8 -0.01317
51.85 -0.01461
51.9 -0.01001
51.95 -0.01044
52 -0.00517
52.05 0.0004
52.1 0.00179
52.15 0.00604
52.2 0.00759
52.25 0.01067
52.3 0.01499
52.35 0.0135
52.4 0.01331
52.45 0.01389
52.5 0.01464
52.55 0.0152
52.6 0.01292
52.65 0.00831
52.7 0.0021
52.75 0.0009
52.8 0.00168
52.85 0.00344
52.9 0.00005
52.95 -0.00615
53 -0.01289
53.05 -0.01935
53.1 -0.02323
53.15 -0.02299
53.2 -0.02305
53.25 -0.01859
53.3 -0.01214
53.35 -0.00441
53.4 0.00067
53.45 0.00841
53.5 0.01429
53.55 0.01973
53.6 0.0252
53.65 0.02804
53.7 0.03153
53.75 0.02826
53.8 0.02436
53.85 0.02234
53.9 0.01886
53.95 0.01757
54 0.01251
54.05 0.00808
54.1 0.00889
54.15 0.00663
54.2 0.00615
54.25 0.00532
54.3 0.00627
54.35 0.00952
54.4 0.00602
54.45 0.00439
54.5 0.0049
54.55 0.00584
54.6 0.00507
54.65 0.00433
54.7 0.00578
54.75 0.00712
54.8 0.00987
54.85 0.01115
54.9 0.00721
54.95 0.00338
55 0.00019
55.05 -0.00504
55.1 -0.00674
55.15 -0.00821
55.2 -0.01004
55.25 -0.01092
55.3 -0.00732
55.35 -0.0013
55.4 0.00189
55.45 0.00432
55.5 0.0025
55.55 -0.00356
55.6 -0.00756
55.65 -0.00726
55.7 -0.00883
55.75 -0.01084
55.8 -0.00711
55.85 -0.00295
55.9 -0.00364
55.95 0.00063
56 0.00419
56.05 0.00437
56.1 0.00635
56.15 0.01063
56.2 0.00906
56.25 0.0071
56.3 0.00843
56.35 0.00623
56.4 0.0032
56.45 -0.00075
56.5 -0
56.55 0.00481
56.6 0.0038
56.65 0.00661
56.7 0.00997
56.75 0.0147
56.8 0.01171
56.85 0.0109
56.9 0.01015
56.95 0.00994
57 0.00573
57.05 0.00434
57.1 0.00677
57.15 0.01086
57.2 0.01633
57.25 0.01528
57.3 0.01067
57.35 0.00746
57.4 0.00666
57.45 0.0079
57.5 0.01219
57.55 0.01577
57.6 0.01856
57.65 0.01873
57.7 0.01597
57.75 0.01249
57.8 0.00759
57.85 0.00384
57.9 -0.00195
57.95 -0.00842
58 -0.01108
58.05 -0.01356
58.1 -0.01408
58.15 -0.01651
58.2 -0.01886
58.25 -0.02384
58.3 -0.02953
58.35 -0.03494
58.4 -0.03915
58.45 -0.04012
58.5 -0.03813
58.55 -0.03054
58.6 -0.02537
58.65 -0.022
58.7 -0.01368
58.75 -0.00389
58.8 -0.00086
58.85 -0.00218
58.9 -0.00416
58.95 -0.00539
59 -0.0039
59.05 0.00183
59.1 0.00204
59.15 0.00375
59.2 -0.00016
59.25 -0.00557
59.3 -0.00622
59.35 -0.00286
59.4 -0.00086
59.45 -0.00365
59.5 -0.00702
59.55 -0.00795
59.6 -0.00627
59.65 -0.00348
59.7 0.00144
59.75 0.00182
59.8 0.005
59.85 0.00596
59.9 0.00836
59.95 0.00705
60 0.0086
60.05 0.00807
60.1 0.00501
60.15 -0.00139
60.2 -0.00769
60.25 -0.0091
60.3 -0.00705
60.35 -0.00085
60.4 0.0034
60.45 0.00974
60.5 0.01088
60.55 0.01349
60.6 0.00959
60.65 0.00346
60.7 -0.00372
60.75 -0.00699
60.8 -0.01224
60.85 -0.01063
60.9 -0.01342
60.95 -0.01448
61 -0.01609
61.05 -0.01589
61.1 -0.01309
61.15 -0.01321
61.2 -0.0083
61.25 -0.00246
61.3 0.00217
61.35 0.00276
61.4 0.00236
61.45 -0.00083
61.5 -0.00515
61.55 -0.01087
61.6 -0.01392
61.65 -0.01325
61.7 -0.0109
61.75 -0.01153
61.8 -0.01162
61.85 -0.00895
61.9 -0.00561
61.95 -0.00079
62 0.00622
62.05 0.01009
62.1 0.01434
62.15 0.01487
62.2 0.01026
62.25 0.00767
62.3 0.00211
62.35 -0.00596
62.4 -0.00605
62.45 -0.00855
62.5 -0.01252
62.55 -0.01274
62.6 -0.01058
62.65 -0.01238
62.7 -0.01238
62.75 -0.01007
62.8 -0.00439
62.85 -0.00385
62.9 -0.00335
62.95 -0.00228
63 -0.00521
63.05 -0.0103
63.1 -0.01276
63.15 -0.0112
63.2 -0.01059
63.25 -0.00532
63.3 -0.0003
63.35 0.00381
63.4 0.00191
63.45 -0.00049
63.5 -0.00607
63.55 -0.00677
63.6 -0.00408
63.65 -0.00446
63.7 -0.00186
63.75 -0.00073
63.8 -0.00155
63.85 -0.00476
63.9 -0.00602
63.95 -0.00262
64 -0.0041
64.05 -0.00717
64.1 -0.00451
64.15 -0.00397
64.2 -0.00762
64.25 -0.00875
64.3 -0.00825
64.35 -0.0099
64.4 -0.01289
64.45 -0.01157
64.5 -0.00945
64.55 -0.00751
64.6 -0.00606
64.65 -0.00106
64.7 0.00287
64.75 0.00867
64.8 0.01321
64.85 0.0109
64.9 0.01331
64.95 0.01699
65 0.01863
65.05 0.02226
65.1 0.0198
65.15 0.01445
65.2 0.00588
65.25 -0.0031
65.3 -0.00787
65.35 -0.01157
65.4 -0.01466
65.45 -0.01705
65.5 -0.01721
65.55 -0.01506
65.6 -0.0094
65.65 -0.00347
65.7 0.00284
65.75 0.00471
65.8 0.00606
65.85 0.00533
65.9 0.00809
65.95 0.00585
66 0.00075
66.05 -0.00253
66.1 -0.00849
66.15 -0.01544
66.2 -0.01687
66.25 -0.01487
66.3 -0.01174
66.35 -0.00568
66.4 -0.00039
66.45 0.00638
66.5 0.00939
66.55 0.0085
66.6 0.00563
66.65 0.00057
66.7 -0.00446
66.75 -0.00995
66.8 -0.01468
66.85 -0.01807
66.9 -0.01744
66.95 -0.01979
67 -0.0211
67.05 -0.02439
67.1 -0.02578
67.15 -0.02739
67.2 -0.02534
67.25 -0.02493
67.3 -0.02436
67.35 -0.02187
67.4 -0.02104
67.45 -0.01369
67.5 -0.00763
67.55 -0.00492
67.6 -0.00512
67.65 -0.00324
67.7 0.00312
67.75 0.01011
67.8 0.01409
67.85 0.01706
67.9 0.01964
67.95 0.01613
68 0.01621
68.05 0.01548
68.1 0.01522
68.15 0.01025
68.2 0.00421
68.25 0.00119
68.3 0.00241
68.35 0.00067
68.4 -0.00009
68.45 -0.00254
68.5 -0.00674
68.55 -0.00447
68.6 0.0006
68.65 0.00058
68.7 -0.00174
68.75 0.00028
68.8 0.00172
68.85 0.00047
68.9 0.00447
68.95 0.00818
69 0.00681
69.05 0.00523
69.1 0.00441
69.15 0.00576
69.2 0.00943
69.25 0.01216
69.3 0.00996
69.35 0.00669
69.4 0.00322
69.45 0.00474
69.5 0.00623
69.55 0.00661
69.6 0.00432
69.65 -0.00098
69.7 -0.00152
69.75 -0.00076
69.8 -0.00413
69.85 -0.00608
69.9 -0.00699
69.95 -0.00954
70 -0.01324
70.05 -0.0182
70.1 -0.02102
70.15 -0.01774
70.2 -0.01449
70.25 -0.00805
70.3 -0.00592
70.35 -0.00228
70.4 -0.00358
70.45 -0.00183
70.5 -0.00439
70.55 -0.00739
70.6 -0.00656
70.65 -0.00786
70.7 -0.00879
70.75 -0.01269
70.8 -0.01192
70.85 -0.00678
70.9 -0.00591
70.95 0.00006
71 0.00103
71.05 0.00371
71.1 0.00947
71.15 0.01332
71.2 0.01724
71.25 0.01723
71.3 0.01919
71.35 0.02114
71.4 0.02118
71.45 0.0192
71.5 0.01796
71.55 0.01954
71.6 0.01929
71.65 0.01705
71.7 0.01497
71.75 0.0127
71.8 0.00648
71.85 0.00114
71.9 -0.00425
71.95 -0.00637
72 -0.00767
72.05 -0.00485
72.1 -0.00318
72.15 0.00021
72.2 -0.00192
72.25 -0.00531
72.3 -0.00742
72.35 -0.00906
72.4 -0.00487
72.45 -0.00268
72.5 -0.00508
72.55 -0.00274
72.6 0.0007
72.65 0.00446
72.7 0.00486
72.75 0.00228
72.8 -0.00006
72.85 0.00103
72.9 0.00053
72.95 0.00303
73 0.00077
73.05 -0.00316
73.1 -0.0083
73.15 -0.00767
73.2 -0.00371
73.25 0.00353
73.3 0.00353
73.35 0.00775
73.4 0.00869
73.45 0.00737
73.5 0.00259
73.55 0.00075
73.6 -0.00165
73.65 -0.00655
73.7 -0.01081
73.75 -0.01236
73.8 -0.01196
73.85 -0.01112
73.9 -0.00869
73.95 -0.00893
74 -0.00375
74.05 0.00337
74.1 0.01093
74.15 0.01767
74.2 0.02449
74.25 0.02838
74.3 0.02662
74.35 0.02321
74.4 0.01599
74.45 0.01393
74.5 0.012
74.55 0.0101
74.6 0.00967
74.65 0.00828
74.7 0.00273
74.75 -0.00111
74.8 -0.00462
74.85 -0.00299
74.9 -0.00163
74.95 0.00048
75 -0.00097
75.05 -0.00078
75.1 0.00015
75.15 -0.0003
75.2 -0.00359
75.25 -0.00707
75.3 -0.0072
75.35 -0.01027
75.4 -0.01449
75.45 -0.01972
75.5 -0.02036
75.55 -0.0151
75.6 -0.01477
75.65 -0.01073
75.7 -0.00533
75.75 -0.00381
75.8 -0.00473
75.85 -0.0041
75.9 -0.00065
75.95 0.00335
76 0.00214
76.05 0.00589
76.1 0.00743
76.15 0.00631
76.2 0.00759
76.25 0.00415
76.3 0.00504
76.35 0.00768
76.4 0.00692
76.45 0.00931
76.5 0.01043
76.55 0.01457
76.6 0.01844
76.65 0.01525
76.7 0.01435
76.75 0.01486
76.8 0.0105
76.85 0.00742
76.9 0.00224
76.95 0.00076
77 -0.00236
77.05 -0.00131
77.1 -0.00487
77.15 -0.00211
77.2 0.00051
77.25 0.00666
77.3 0.01223
77.35 0.01396
77.4 0.01755
77.45 0.01809
77.5 0.01796
77.55 0.01856
77.6 0.01957
77.65 0.0196
77.7 0.01734
77.75 0.0163
77.8 0.01629
77.85 0.01642
77.9 0.01814
77.95 0.01777
78 0.02027
78.05 0.0168
78.1 0.01354
78.15 0.00845
78.2 0.00468
78.25 -0.00018
78.3 -0.0064
78.35 -0.00667
78.4 -0.00254
78.45 0.00222
78.5 0.005
78.55 0.00533
78.6 0.00454
78.65 0.0042
78.7 0.0004
78.75 -0.0045
78.8 -0.00722
78.85 -0.00845
78.9 -0.00435
78.95 0.00154
79 0.00748
79.05 0.0064
79.1 0.00449
79.15 0.00638
79.2 0.01128
79.25 0.01723
79.3 0.01544
79.35 0.00997
79.4 0.00542
79.45 -0.00076
79.5 -0.00113
79.55 0.00022
79.6 -0.00145
79.65 -0.0072
79.7 -0.00875
79.75 -0.01347
79.8 -0.01213
79.85 -0.00777
79.9 -0.00559
79.95 -0.00431
80 -0.00258
80.05 -0.00357
80.1 -0.00546
80.15 -0.0052
80.2 -0.0013
80.25 -0.00195
80.3 -0.00311
80.35 -0.00424
80.4 -0.00082
80.45 0.00075
80.5 0.00144
80.55 0.00591
80.6 0.00799
80.65 0.00676
80.7 0.0081
80.75 0.00765
80.8 0.00784
80.85 0.01052
80.9 0.00685
80.95 0.00134
81 -0.00452
81.05 -0.01183
81.1 -0.01746
81.15 -0.02188
81.2 -0.02225
81.25 -0.02356
81.3 -0.02386
81.35 -0.02022
81.4 -0.01678
81.45 -0.01793
81.5 -0.01706
81.55 -0.01767
81.6 -0.01774
81.65 -0.02082
81.7 -0.02256
81.75 -0.02023
81.8 -0.01625
81.85 -0.0113
81.9 -0.00509
81.95 0.00374
82 0.01145
82.05 0.01314
82.1 0.01669
82.15 0.0144
82.2 0.01262
82.25 0.00891
82.3 0.00547
82.35 0.00669
82.4 0.00306
82.45 0.00248
82.5 0.00055
82.55 -0.00075
82.6 0.00015
82.65 -0.00177
82.7 0.00081
82.75 0.00537
82.8 0.00776
82.85 0.01293
82.9 0.01479
82.95 0.01689
83 0.01475
83.05 0.01625
83.1 0.01405
83.15 0.01186
83.2 0.00671
83.25 0.00164
83.3 0.00079
83.35 0.00128
83.4 -0.00057
83.45 -0.00569
83.5 -0.00955
83.55 -0.00714
83.6 -0.00931
83.65 -0.01273
83.7 -0.01007
83.75 -0.00445
83.8 -0.00459
83.85 -0.00409
83.9 0.00086
83.95 0.0023
84 -0.00037
84.05 0.00171
84.1 0.00686
84.15 0.0079
84.2 0.00351
84.25 0.00143
84.3 -0.00017
84.35 -0.00471
84.4 -0.00829
84.45 -0.01352
84.5 -0.01402
84.55 -0.01572
84.6 -0.01236
84.65 -0.01325
84.7 -0.01342
84.75 -0.01168
84.8 -0.01256
84.85 -0.00855
84.9 -0.00131
84.95 0.00463
85 0.00697
85.05 0.0039
85.1 -0.00099
85.15 -0.00343
85.2 -0.00632
85.25 -0.01002
85.3 -0.01095
85.35 -0.01457
85.4 -0.01828
85.45 -0.02299
85.5 -0.02269
85.55 -0.01627
85.6 -0.01219
85.65 -0.01146
85.7 -0.01099
85.75 -0.00836
85.8 -0.01016
85.85 -0.0147
85.9 -0.01517
85.95 -0.0175
86 -0.01705
86.05 -0.01598
86.1 -0.01797
86.15 -0.02159
86.2 -0.02228
86.25 -0.02374
86.3 -0.01961
86.35 -0.01624
86.4 -0.01391
86.45 -0.0087
86.5 -0.00703
86.55 -0.00885
86.6 -0.01298
86.65 -0.013
86.7 -0.01027
86.75 -0.00693
86.8 -0.00726
86.85 -0.00317
86.9 -0.0036
86.95 -0.00682
87 -0.00743
87.05 -0.00691
87.1 -0.00547
87.15 -0.00782
87.2 -0.01013
87.25 -0.00808
87.3 -0.00196
87.35 0.00513
87.4 0.00957
87.45 0.01597
87.5 0.01709
87.55 0.01246
87.6 0.0063
87.65 -0.00099
87.7 -0.00341
87.75 -0.00774
87.8 -0.00572
87.85 -0.002
87.9 0.00014
87.95 0.00092
88 0.00395
88.05 0.00898
88.1 0.01561
88.15 0.01755
88.2 0.02008
88.25 0.02439
88.3 0.02375
88.35 0.02581
88.4 0.02898
88.45 0.02759
88.5 0.02529
88.55 0.0209
88.6 0.01295
88.65 0.00724
88.7 0.00543
88.75 0.00836
88.8 0.00802
88.85 0.01101
88.9 0.01281
88.95 0.01638
89 0.01685
89.05 0.01797
89.1 0.01509
89.15 0.01481
89.2 0.01186
89.25 0.00503
89.3 0.0048
89.35 -0.00044
89.4 -0.00478
89.45 -0.00943
89.5 -0.01354
89.55 -0.01701
89.6 -0.01524
89.65 -0.00927
89.7 -0.00845
89.75 -0.00525
89.8 0.00164
89.85 0.00388
89.9 0.0004
89.95 -0.00361
90 -0.00881
90.05 -0.01139
90.1 -0.01164
90.15 -0.00758
90.2 -0.00844
90.25 -0.00863
90.3 -0.00994
90.35 -0.00855
90.4 -0.00648
90.45 -0.00025
90.5 0.00829
90.55 0.0117
90.6 0.01352
90.65 0.01207
90.7 0.0104
90.75 0.01147
90.8 0.0076
90.85 0.00475
90.9 0.00645
90.95 0.00938
91 0.01203
91.05 0.01342
91.1 0.01514
91.15 0.018
91.2 0.02049
91.25 0.02438
91.3 0.02659
91.35 0.02487
91.4 0.01818
91.45 0.00794
91.5 0.00021
91.55 -0.00204
91.6 -0.00044
91.65 0.00499
91.7 0.01207
91.75 0.01246
91.8 0.00968
91.85 0.0051
91.9 0.00247
91.95 -0.00425
92 -0.00511
92.05 -0.00915
92.1 -0.00859
92.15 -0.00633
92.2 -0.00373
92.25 -0.00042
92.3 0.00352
92.35 0.00773
92.4 0.00506
92.45 0.00474
92.5 0.0038
92.55 0.00719
92.6 0.00755
92.65 0.00472
92.7 0.00373
92.75 -0.00055
92.8 -0.00272
92.85 0.00042
92.9 0.0061
92.95 0.00538
93 0.00737
93.05 0.00317
93.1 0.00277
93.15 0.00574
93.2 0.00944
93.25 0.01292
93.3 0.01289
93.35 0.01362
93.4 0.01429
93.45 0.01447
93.5 0.01641
93.55 0.0112
93.6 0.00662
93.65 0.00587
93.7 0.00751
93.75 0.00557
93.8 0.00177
93.85 0.00179
93.9 -0.00072
93.95 -0.0005
94 -0.0044
94.05 -0.00729
94.1 -0.00732
94.15 -0.01013
94.2 -0.00847
94.25 -0.00952
94.3 -0.00929
94.35 -0.01079
94.4 -0.00682
94.45 -0.00018
94.5 0.00691
94.55 0.01036
94.6 0.00944
94.65 0.00374
94.7 -0.00478
94.75 -0.01405
94.8 -0.01625
94.85 -0.01266
94.9 -0.00959
94.95 -0.00928
95 -0.01243
95.05 -0.01475
95.1 -0.01732
95.15 -0.01681
95.2 -0.01345
95.25 -0.01039
95.3 -0.00867
95.35 -0.01084
95.4 -0.01074
95.45 -0.01292
95.5 -0.01312
95.55 -0.00879
95.6 -0.00605
95.65 0.00048
95.7 0.00384
95.75 0.00322
95.8 0.00394
95.85 0.00148
95.9 -0.00261
95.95 -0.00293
96 -0.00176
96.05 0.00109
96.1 0.00093
96.15 -0.00283
96.2 -0.00923
96.25 -0.01733
96.3 -0.01779
96.35 -0.01305
96.4 -0.00727
96.45 -0.00229
96.5 0.00217
96.55 0.0031
96.6 -0.00054
96.65 -0.00739
96.7 -0.00989
96.75 -0.0133
96.8 -0.0139
96.85 -0.01693
96.9 -0.01544
96.95 -0.01143
97 -0.00687
97.05 0.00017
97.1 -0.00003
97.15 0.00263
97.2 0.00722
97.25 0.00517
97.3 -0.00082
97.35 -0.00527
97.4 -0.00996
97.45 -0.01141
97.5 -0.01365
97.55 -0.01236
97.6 -0.00705
97.65 0.00072
97.7 0.0016
97.75 0.00368
97.8 0.00877
97.85 0.01121
97.9 0.01299
97.95 0.0111
98 0.00952
98.05 0.00592
98.1 0.00616
98.15 0.00623
98.2 0.00678
98.25 0.01056
98.3 0.00955
98.35 0.00578
98.4 0.0004
98.45 -0.00505
98.5 -0.00689
98.55 -0.00914
98.6 -0.00863
98.65 -0.00683
98.7 -0.00796
98.75 -0.00687
98.8 -0.00214
98.85 -0.00085
98.9 0.00115
98.95 -0.00025
99 0.00277
99.05 0.0014
99.1 -0.00298
99.15 -0.00113
99.2 -0.00139
99.25 -0.00451
99.3 -0.00965
99.35 -0.0149
99.4 -0.01918
99.45 -0.01915
99.5 -0.01567
99.55 -0.01552
99.6 -0.01411
99.65 -0.01413
99.7 -0.01712
99.75 -0.01771
99.8 -0.02026
99.85 -0.02296
99.9 -0.01872
99.95 -0.01882
