0 0
0.05 0.00019
0.1 0.00047
0.15 0.00106
0.2 0.00161
0.25 0.00217
0.3 0.00262
0.35 0.00313
0.4 0.00343
0.45 0.00377
0.5 0.00384
0.55 0.0037
0.6 0.00343
0.65 0.00306
0.7 0.00292
0.75 0.00292
0.8 0.00293
0.85 0.0029
0.9 0.003
0.95 0.00315
1 0.00313
1.05 0.00312
1.1 0.00279
1.15 0.00249
1.2 0.00204
1.25 0.00179
1.3 0.00144
1.35 0.00142
1.4 0.00164
1.45 0.00172
1.5 0.0017
1.55 0.00163
1.6 0.00142
1.65 0.00136
1.7 0.00151
1.75 0.0018
1.8 0.00202
1.85 0.00217
1.9 0.00233
1.95 0.00239
2 0.00262
2.05 0.00262
2.1 0.00268
2.15 0.00275
2.2 0.0025
2.25 0.00245
2.3 0.00259
2.35 0.00263
2.4 0.00256
2.45 0.00235
2.5 0.00225
2.55 0.00188
2.6 0.00184
2.65 0.00194
2.7 0.0019
2.75 0.00157
2.8 0.00112
2.85 0.00064
2.9 0.00025
2.95 -0.00015
3 -0.00016
3.05 -0.00015
3.1 -0.00011
3.15 -0.00009
3.2 -0.00014
3.25 -0.00006
3.3 -0.00015
3.35 0.00007
3.4 0.00047
3.45 0.00063
3.5 0.00054
3.55 0.00069
3.6 0.00084
3.65 0.00111
3.7 0.00117
3.75 0.00134
3.8 0.00144
3.85 0.00166
3.9 0.00191
3.95 0.00179
4 0.00157
4.05 0.00143
4.1 0.00106
4.15 0.0008
4.2 0.00075
4.25 0.00055
4.3 0.00028
4.35 0
4.4 -0.00015
4.45 0.00003
4.5 0.00043
4.55 0.00091
4.6 0.00131
4.65 0.0014
4.7 0.00161
4.75 0.00148
4.8 0.00129
4.85 0.00131
4.9 0.00128
4.95 0.00104
5 0.00068
5.05 0.00029
5.1 0.00001
5.15 -0.00028
5.2 -0.00053
5.25 -0.00048
5.3 -0.00025
5.35 -0.00007
5.4 0.00026
5.45 0.00068
5.5 0.00103
5.55 0.00139
5.6 0.00165
5.65 0.0015
5.7 0.00152
5.75 0.00151
5.8 0.00164
5.85 0.0014
5.9 0.0011
5.95 0.00074
6 0.00056
6.05 0.00045
6.1 0.00041
6.15 0.00017
6.2 -0.00003
6.25 0.00002
6.3 0.00021
6.35 0.00051
6.4 0.00056
6.45 0.00061
6.5 0.00074
6.55 0.00074
6.6 0.00061
6.65 0.00057
6.7 0.00076
6.75 0.00109
6.8 0.00101
6.85 0.00084
6.9 0.0008
6.95 0.00094
7 0.00119
7.05 0.00125
7.1 0.00138
7.15 0.00147
7.2 0.00122
7.25 0.00077
7.3 0.00036
7.35 0.00017
7.4 -0.00018
7.45 -0.0005
7.5 -0.00074
7.55 -0.0009
7.6 -0.001
7.65 -0.00116
7.7 -0.00131
7.75 -0.00114
7.8 -0.00104
7.85 -0.00071
7.9 -0.00027
7.95 0.00011
8 0.00055
8.05 0.00066
8.1 0.00066
8.15 0.00076
8.2 0.00078
8.25 0.00069
8.3 0.00055
8.35 0.0006
8.4 0.00048
8.45 0.00023
8.5 0.00004
8.55 0.00007
8.6 0
8.65 -0.00004
8.7 0.00004
8.75 0.00003
8.8 -0.00008
8.85 0.00001
8.9 0.00011
8.95 0.00003
9 -0.00002
9.05 0.00006
9.1 0.00025
9.15 0.00032
9.2 0.00035
9.25 0.00017
9.3 0.00006
9.35 -0.00012
9.4 -0.00043
9.45 -0.00076
9.5 -0.00069
9.55 -0.00044
9.6 -0.00029
9.65 0.00002
9.7 0.00013
9.75 0.00023
9.8 0.00051
9.85 0.00073
9.9 0.00069
9.95 0.00079
10 0.00061
10.05 0.00025
10.1 -0.00001
10.15 -0.00037
10.2 -0.00045
10.25 -0.00064
10.3 -0.00077
10.35 -0.0006
10.4 -0.0003
10.45 0.00014
10.5 0.00058
10.55 0.00078
10.6 0.00104
10.65 0.00113
10.7 0.00098
10.75 0.00061
10.8 0.00032
10.85 0.00013
10.9 0.00017
10.95 0.0002
11 0.00018
11.05 0.00006
11.1 -0.00011
11.15 -0.00042
11.2 -0.00033
11.25 -0.00021
11.3 0.00011
11.35 0.00045
11.4 0.00071
11.45 0.00092
11.5 0.00122
11.55 0.00126
11.6 0.00136
11.65 0.00108
11.7 0.00105
11.75 0.00071
11.8 0.00034
11.85 0.00019
11.9 0.00008
11.95 0.00004
12 0.00005
12.05 0.00022
12.1 0.00014
12.15 -0.00006
12.2 -0.00013
12.25 -0.00009
12.3 0.00012
12.35 0.00002
12.4 -0.0002
12.45 -0.00011
12.5 -0.0001
12.55 0.00009
12.6 0.00009
12.65 -0.00015
12.7 -0.00011
12.75 -0.00014
12.8 -0.00033
12.85 -0.00023
12.9 0.00004
12.95 0.00008
13 0.0001
13.05 -0.00014
13.1 -0.00032
13.15 -0.00025
13.2 -0.0004
13.25 -0.0006
13.3 -0.00075
13.35 -0.00071
13.4 -0.00077
13.45 -0.00075
13.5 -0.00058
13.55 -0.00043
13.6 -0.00027
13.65 0.00004
13.7 0.00014
13.75 -0.00005
13.8 -0.00014
13.85 -0.00023
13.9 -0.00046
13.95 -0.00069
14 -0.00084
14.05 -0.00095
14.1 -0.0007
14.15 -0.00031
14.2 -0.00016
14.25 -0.00001
14.3 -0.0001
14.35 -0.00026
14.4 -0.00023
14.45 -0.00043
14.5 -0.00071
14.55 -0.00073
14.6 -0.00055
14.65 -0.00041
14.7 -0.00034
14.75 -0.00015
14.8 -0.00025
14.85 -0.00045
14.9 -0.00044
14.95 -0.00024
15 -0.00029
15.05 -0.00023
15.1 -0.00028
15.15 -0.00033
15.2 -0.00038
15.25 -0.00039
15.3 -0.00041
15.35 -0.00041
15.4 -0.00018
15.45 -0.00009
15.5 -0.0002
15.55 -0.00048
15.6 -0.00079
15.65 -0.00072
15.7 -0.00043
15.75 -0.0004
15.8 -0.00021
15.85 -0.00008
15.9 0.00017
15.95 0.00019
16 0.00018
16.05 0.0002
16.1 0.00022
16.15 0.00004
16.2 -0.00013
16.25 -0.00004
16.3 -0.00015
16.35 -0.00043
16.4 -0.00052
16.45 -0.00073
16.5 -0.00062
16.55 -0.00049
16.6 -0.00011
16.65 0.00023
16.7 0.00048
16.75 0.00077
16.8 0.00077
16.85 0.00071
16.9 0.00055
16.95 0.00039
17 0.00019
17.05 0.00006
17.1 0.00023
17.15 0.00042
17.2 0.00028
17.25 0.00035
17.3 0.00034
17.35 0.0003
17.4 0.00025
17.45 0.00016
17.5 0.00012
17.55 0.00035
17.6 0.00041
17.65 0.00031
17.7 0.00047
17.75 0.00069
17.8 0.00059
17.85 0.00058
17.9 0.00069
17.95 0.00046
18 0.0005
18.05 0.0006
18.1 0.00065
18.15 0.00056
18.2 0.00049
18.25 0.00021
18.3 -0.00016
18.35 -0.00028
18.4 -0.00024
18.45 -0.0001
18.5 -0.00001
18.55 0.00014
18.6 0.00044
18.65 0.00071
18.7 0.00085
18.75 0.00064
18.8 0.00028
18.85 -0.00021
18.9 -0.00061
18.95 -0.00072
19 -0.00076
19.05 -0.00062
19.1 -0.00022
19.15 0.00027
19.2 0.00048
19.25 0.00044
19.3 0.00036
19.35 0.00048
19.4 0.0005
19.45 0.00046
19.5 0.00033
19.55 0.00038
19.6 0.00027
19.65 -0.00003
19.7 -0.00038
19.75 -0.00054
19.8 -0.0006
19.85 -0.00066
19.9 -0.00067
19.95 -0.00043
20 -0.00019
20.05 -0.00003
20.1 -0.00012
20.15 -0.00039
20.2 -0.00063
20.25 -0.00073
20.3 -0.00088
20.35 -0.00073
20.4 -0.00067
20.45 -0.00061
20.5 -0.00026
20.55 -0.0002
20.6 -0.00004
20.65 0.00008
20.7 0.00037
20.75 0.00079
20.8 0.00097
20.85 0.00098
20.9 0.00074
20.95 0.00028
21 -0.00026
21.05 -0.00053
21.1 -0.00067
21.15 -0.00056
21.2 -0.00027
21.25 0.00019
21.3 0.00066
21.35 0.00098
21.4 0.00091
21.45 0.00085
21.5 0.00082
21.55 0.00056
21.6 0.00046
21.65 0.00051
21.7 0.00063
21.75 0.00069
21.8 0.00084
21.85 0.00093
21.9 0.00073
21.95 0.00048
22 0.00047
22.05 0.00054
22.1 0.00055
22.15 0.00045
22.2 0.00047
22.25 0.00052
22.3 0.00063
22.35 0.00073
22.4 0.00058
22.45 0.00018
22.5 -0.00005
22.55 -0.00031
22.6 -0.00062
22.65 -0.00099
22.7 -0.00091
22.75 -0.00077
22.8 -0.00085
22.85 -0.00107
22.9 -0.00136
22.95 -0.00125
23 -0.00121
23.05 -0.00115
23.1 -0.00084
23.15 -0.00067
23.2 -0.00036
23.25 -0.00005
23.3 0
23.35 -0.00004
23.4 -0.00029
23.45 -0.00038
23.5 -0.00025
23.55 -0.00008
23.6 0.00003
23.65 0.0003
23.7 0.00063
23.75 0.0006
23.8 0.00032
23.85 0.00024
23.9 0.00003
23.95 -0.00015
24 -0.0002
24.05 -0.00022
24.1 -0.00043
24.15 -0.00055
24.2 -0.00045
24.25 -0.00041
24.3 -0.0005
24.35 -0.00069
24.4 -0.00097
24.45 -0.00094
24.5 -0.00097
24.55 -0.00077
24.6 -0.00057
24.65 -0.00017
24.7 -0.00003
24.75 0.00023
24.8 0.00053
24.85 0.00061
24.9 0.00041
24.95 0.00005
25 -0.00006
25.05 0.00004
25.1 0.00003
25.15 0.00005
25.2 -0.00006
25.25 0.00007
25.3 0.00032
25.35 0.00026
25.4 -0.00005
25.45 -0.00047
25.5 -0.00072
25.55 -0.00105
25.6 -0.00117
25.65 -0.00102
25.7 -0.00058
25.75 -0.00022
25.8 -0.00009
25.85 -0.00004
25.9 -0.00022
25.95 -0.00043
26 -0.00048
26.05 -0.00064
26.1 -0.00053
26.15 -0.00024
26.2 0.00001
26.25 0.00008
26.3 0.00033
26.35 0.00024
26.4 0.00032
26.45 0.0003
26.5 0.00039
26.55 0.00043
26.6 0.00065
26.65 0.00069
26.7 0.00086
26.75 0.00072
26.8 0.00043
26.85 0.00027
26.9 -0.00004
26.95 -0.00008
27 -0.00009
27.05 -0.00019
27.1 -0.00041
27.15 -0.00048
27.2 -0.00051
27.25 -0.00056
27.3 -0.00064
27.35 -0.00079
27.4 -0.00094
27.45 -0.00085
27.5 -0.00061
27.55 -0.0002
27.6 0.00019
27.65 0.0003
27.7 0.00029
27.75 0.00031
27.8 0.0005
27.85 0.0005
27.9 0.0005
27.95 0.00057
28 0.00048
28.05 0.0003
28.1 -0.00004
28.15 -0.00037
28.2 -0.00039
28.25 -0.00058
28.3 -0.00073
28.35 -0.00057
28.4 -0.0003
28.45 0.00001
28.5 0.00026
28.55 0.00065
28.6 0.00093
28.65 0.00091
28.7 0.00062
28.75 0.00032
28.8 0.00014
28.85 -0.0001
28.9 0.00002
28.95 -0.00009
29 -0.00005
29.05 -0.0002
29.1 -0.00037
29.15 -0.00059
29.2 -0.00073
29.25 -0.00086
29.3 -0.00064
29.35 -0.00021
29.4 0.00011
29.45 0.00056
29.5 0.00088
29.55 0.00111
29.6 0.0013
29.65 0.00122
29.7 0.0013
29.75 0.00102
29.8 0.00087
29.85 0.00059
29.9 0.00014
29.95 0.00007
30 0.00003
30.05 0.00001
30.1 0.00025
30.15 0.00034
30.2 0.0002
30.25 0.00022
30.3 0.00036
30.35 0.00038
30.4 0.00041
30.45 0.00056
30.5 0.00043
30.55 0.00044
30.6 0.00025
30.65 0.00014
30.7 -0.00017
30.75 -0.00024
30.8 -0.00015
30.85 -0.0001
30.9 -0.00025
30.95 -0.00028
31 -0.0003
31.05 -0.00005
31.1 0.00029
31.15 0.00054
31.2 0.00064
31.25 0.00052
31.3 0.00048
31.35 0.00057
31.4 0.00034
31.45 0.00022
31.5 0.00007
31.55 -0.00016
31.6 -0.00013
31.65 -0.00016
31.7 -0.00011
31.75 -0.00014
31.8 -0.00037
31.85 -0.00032
31.9 -0.0002
31.95 0.00004
32 0.00026
32.05 0.00044
32.1 0.00073
32.15 0.00076
32.2 0.00079
32.25 0.00049
32.3 0.00025
32.35 0.00011
32.4 0.0002
32.45 -0.00001
32.5 -0.00016
32.55 -0.00011
32.6 0.00008
32.65 0.00024
32.7 0.0003
32.75 0.0003
32.8 0.0003
32.85 0.00045
32.9 0.00056
32.95 0.00059
33 0.00057
33.05 0.00047
33.1 0.0005
33.15 0.00027
33.2 0.00017
33.25 0.00003
33.3 -0.0001
33.35 -0.00008
33.4 0.00005
33.45 0.00005
33.5 0.00023
33.55 0.00034
33.6 0.00038
33.65 0.00016
33.7 -0.00024
33.75 -0.00026
33.8 -0.00003
33.85 0.00023
33.9 0.00014
33.95 -0.00008
34 -0.00003
34.05 -0.00015
34.1 -0.00032
34.15 -0.00049
34.2 -0.0005
34.25 -0.00029
34.3 -0.00015
34.35 0.00004
34.4 0.00008
34.45 0.00008
34.5 0.00003
34.55 0.00017
34.6 0.00024
34.65 0.00045
34.7 0.00061
34.75 0.00078
34.8 0.00079
34.85 0.00094
34.9 0.00097
34.95 0.00095
35 0.00077
35.05 0.0006
35.1 0.0004
35.15 0.00032
35.2 0.00042
35.25 0.00022
35.3 -0.00001
35.35 -0.0004
35.4 -0.00069
35.45 -0.00108
35.5 -0.00107
35.55 -0.00113
35.6 -0.00133
35.65 -0.00111
35.7 -0.0009
35.75 -0.0009
35.8 -0.0007
35.85 -0.00039
35.9 -0.00016
35.95 0.00021
36 0.00064
36.05 0.00078
36.1 0.00066
36.15 0.00042
36.2 0.00043
36.25 0.00015
36.3 0.00017
36.35 0.00024
36.4 0.00003
36.45 -0.00037
36.5 -0.0006
36.55 -0.00069
36.6 -0.00085
36.65 -0.00107
36.7 -0.00121
36.75 -0.00119
36.8 -0.00112
36.85 -0.00091
36.9 -0.00052
36.95 -0.00034
37 -0.00021
37.05 -0
37.1 0.00024
37.15 0.00032
37.2 0.00028
37.25 0.00018
37.3 0.00025
37.35 0.00013
37.4 0.00023
37.45 0.00004
37.5 -0.0002
37.55 -0.00058
37.6 -0.00058
37.65 -0.00067
37.7 -0.00089
37.75 -0.00094
37.8 -0.0007
37.85 -0.00068
37.9 -0.00038
37.95 -0.00023
38 -0.00007
38.05 -0
38.1 -0.00004
38.15 -0.00015
38.2 -0.00018
38.25 -0.0002
38.3 -0.00004
38.35 -0.00005
38.4 -0.00024
38.45 -0.00039
38.5 -0.0004
38.55 -0.00048
38.6 -0.00065
38.65 -0.00072
38.7 -0.0007
38.75 -0.00076
38.8 -0.00078
38.85 -0.00055
38.9 -0.00046
38.95 -0.00057
39 -0.0008
39.05 -0.00071
39.1 -0.00077
39.15 -0.00088
39.2 -0.00096
39.25 -0.00114
39.3 -0.00103
39.35 -0.00063
39.4 -0.00031
39.45 -0.00011
39.5 -0.00019
39.55 -0.00028
39.6 -0.0005
39.65 -0.00067
39.7 -0.00066
39.75 -0.00053
39.8 -0.0003
39.85 -0.00035
39.9 -0.00032
39.95 -0.00014
40 -0.00017
40.05 -0.00012
40.1 -0.00015
40.15 0.00011
40.2 0.00005
40.25 0.00023
40.3 0.0004
40.35 0.00041
40.4 0.00018
40.45 -0.0002
40.5 -0.00065
40.55 -0.00105
40.6 -0.00121
40.65 -0.00103
40.7 -0.00059
40.75 -0.00028
40.8 -0.00009
40.85 0.00025
40.9 0.00059
40.95 0.00082
41 0.00095
41.05 0.00077
41.1 0.00078
41.15 0.00069
41.2 0.00039
41.25 -0.00001
41.3 -0.00022
41.35 -0.00039
41.4 -0.00062
41.45 -0.00087
41.5 -0.00114
41.55 -0.00124
41.6 -0.00108
41.65 -0.00067
41.7 -0.0001
41.75 0.00052
41.8 0.00066
41.85 0.00056
41.9 0.00063
41.95 0.00064
42 0.00039
42.05 0.00022
42.1 0.00036
42.15 0.0004
42.2 0.00065
42.25 0.0009
42.3 0.00083
42.35 0.0005
42.4 0.00035
42.45 0.00014
42.5 0.00008
42.55 -0.00017
42.6 -0.00051
42.65 -0.00079
42.7 -0.00078
42.75 -0.00088
42.8 -0.00097
42.85 -0.00095
42.9 -0.00061
42.95 -0.00056
43 -0.00052
43.05 -0.00069
43.1 -0.00058
43.15 -0.00027
43.2 -0.00021
43.25 -0.00016
43.3 -0.00009
43.35 -0.00013
43.4 -0.00025
43.45 -0.00011
43.5 -0.00013
43.55 0.00003
43.6 0
43.65 -0.00004
43.7 -0.00012
43.75 0.00011
43.8 0.00031
43.85 0.00059
43.9 0.00066
43.95 0.00089
44 0.0012
44.05 0.0015
44.1 0.00157
44.15 0.00131
44.2 0.00103
44.25 0.00081
44.3 0.00059
44.35 0.0004
44.4 0.00042
44.45 0.00048
44.5 0.00063
44.55 0.0006
44.6 0.00046
44.65 0.00049
44.7 0.00041
44.75 0.00013
44.8 -0.00002
44.85 -0.00002
44.9 -0.00014
44.95 -0.00027
45 -0.00009
45.05 0.00014
45.1 0.0004
45.15 0.00061
45.2 0.00063
45.25 0.00049
45.3 0.00054
45.35 0.00053
45.4 0.00063
45.45 0.00069
45.5 0.00066
45.55 0.00052
45.6 0.00035
45.65 0.00036
45.7 0.00038
45.75 0.0006
45.8 0.00067
45.85 0.00073
45.9 0.00051
45.95 0.00007
46 -0.0001
46.05 -0.00042
46.1 -0.00071
46.15 -0.00109
46.2 -0.00118
46.25 -0.00124
46.3 -0.00111
46.35 -0.00084
46.4 -0.0007
46.45 -0.00035
46.5 -0.00031
46.55 -0.00038
46.6 -0.00061
46.65 -0.00081
46.7 -0.0009
46.75 -0.00064
46.8 -0.00051
46.85 -0.00043
46.9 -0.0003
46.95 -0.00017
47 -0.00025
47.05 -0.00044
47.1 -0.0007
47.15 -0.0007
47.2 -0.00041
47.25 -0.00037
47.3 -0.00026
47.35 -0.00026
47.4 -0.00048
47.45 -0.00067
47.5 -0.00084
47.55 -0.00064
47.6 -0.00049
47.65 -0.0005
47.7 -0.00059
47.75 -0.00071
47.8 -0.0006
47.85 -0.00047
47.9 -0.00025
47.95 -0.00013
48 -0.00025
48.05 -0.00014
48.1 -0.00019
48.15 -0.00041
48.2 -0.00048
48.25 -0.00055
48.3 -0.00055
48.35 -0.00052
48.4 -0.00065
48.45 -0.00087
48.5 -0.00077
48.55 -0.00055
48.6 -0.0005
48.65 -0.00042
48.7 -0.00039
48.75 -0.00015
48.8 0.00005
48.85 0.00033
48.9 0.00061
48.95 0.00062
49 0.00056
49.05 0.00043
49.1 0.00026
49.15 0.00024
49.2 0.00027
49.25 0.00023
49.3 0.00031
49.35 0.00043
49.4 0.00051
49.45 0.00057
49.5 0.00061
49.55 0.00075
49.6 0.00099
49.65 0.00106
49.7 0.00123
49.75 0.00128
49.8 0.0012
49.85 0.00106
49.9 0.00112
49.95 0.00087
50 0.00053
50.05 0.00026
50.1 -0.00006
50.15 0
50.2 0.00011
50.25 0.00032
50.3 0.00019
50.35 0.00004
50.4 -0.00022
50.45 -0.00056
50.5 -0.00088
50.55 -0.00085
50.6 -0.00052
50.65 -0.00037
50.7 -0.00028
50.75 -0.00014
50.8 -0.00015
50.85 -0.0001
50.9 0.00009
50.95 0.00011
51 -0.00002
51.05 -0.00023
51.1 -0.00034
51.15 -0.00026
51.2 0
51.25 0.0001
51.3 0.00034
51.35 0.00039
51.4 0.00063
51.45 0.00072
51.5 0.00074
51.55 0.00066
51.6 0.00035
51.65 0.00011
51.7 -0
51.75 -0.0003
51.8 -0.0003
51.85 -0.00015
51.9 0.00006
51.95 0.00025
52 0.00015
52.05 0.00026
52.1 0.00011
52.15 -0.00005
52.2 -0.00014
52.25 -0.00001
52.3 0.00028
52.35 0.0002
52.4 0.0001
52.45 -0
52.5 -0
52.55 -0.00009
52.6 -0.00033
52.65 -0.0002
52.7 0.00015
52.75 0.00014
52.8 0.00012
52.85 0.00025
52.9 0.00024
52.95 0.00039
53 0.00051
53.05 0.00039
53.1 0.00036
53.15 0.00013
53.2 -0.00026
53.25 -0.00029
53.3 -0.0005
53.35 -0.00053
53.4 -0.00065
53.45 -0.00077
53.5 -0.00092
53.55 -0.00119
53.6 -0.00113
53.65 -0.00077
53.7 -0.00053
53.75 -0.00024
53.8 -0.00005
53.85 0.00028
53.9 0.00072
53.95 0.0009
54 0.00086
54.05 0.00078
54.1 0.00081
54.15 0.00069
54.2 0.00037
54.25 -0.00006
54.3 -0.00045
54.35 -0.00049
54.4 -0.00028
54.45 -0.00005
54.5 0.00034
54.55 0.00081
54.6 0.00078
54.65 0.00072
54.7 0.00061
54.75 0.00068
54.8 0.00062
54.85 0.00074
54.9 0.00075
54.95 0.00055
55 0.00034
55.05 0.00001
55.1 -0.00002
55.15 0.00017
55.2 0.00032
55.25 0.00048
55.3 0.00033
55.35 0.00027
55.4 -0.00004
55.45 -0.00019
55.5 -0.00006
55.55 0.00023
55.6 0.00043
55.65 0.00031
55.7 0.00037
55.75 0.00041
55.8 0.00019
55.85 -0.00001
55.9 -0.00039
55.95 -0.00065
56 -0.0006
56.05 -0.0003
56.1 -0.00003
56.15 0.00022
56.2 0.00038
56.25 0.00065
56.3 0.00099
56.35 0.00108
56.4 0.00109
56.45 0.00118
56.5 0.00107
56.55 0.00088
56.6 0.0006
56.65 0.00032
56.7 0.00024
56.75 0.00015
56.8 0.00024
56.85 0.00029
56.9 0.00047
56.95 0.00074
57 0.00094
57.05 0.00118
57.1 0.00127
57.15 0.00099
57.2 0.00053
57.25 0.00025
57.3 -0.00013
57.35 -0.00026
57.4 -0.00019
57.45 -0.0001
57.5 -0.00006
57.55 -0.00019
57.6 -0.00042
57.65 -0.00062
57.7 -0.00075
57.75 -0.0006
57.8 -0.00034
57.85 -0.00025
57.9 -0.00039
57.95 -0.00067
58 -0.00106
58.05 -0.00148
58.1 -0.00165
58.15 -0.00143
58.2 -0.00114
58.25 -0.00103
58.3 -0.00085
58.35 -0.0005
58.4 -0.00023
58.45 0.00004
58.5 0.00035
58.55 0.00048
58.6 0.00073
58.65 0.00066
58.7 0.00066
58.75 0.00078
58.8 0.00093
58.85 0.00085
58.9 0.00052
58.95 0.00034
59 0.00034
59.05 0.00038
59.1 0.00041
59.15 0.00035
59.2 0.00042
59.25 0.00033
59.3 0.00014
59.35 0.0002
59.4 0.0001
59.45 0.00023
59.5 0.00023
59.55 0.00008
59.6 0.00019
59.65 0.00037
59.7 0.00042
59.75 0.00063
59.8 0.00044
59.85 0.0005
59.9 0.00028
59.95 0.00006
60 0.00003
60.05 -0.00027
60.1 -0.00058
60.15 -0.00093
60.2 -0.00128
60.25 -0.00119
60.3 -0.00095
60.35 -0.00057
60.4 -0.00021
60.45 0.00018
60.5 0.00018
60.55 0.00033
60.6 0.00054
60.65 0.00065
60.7 0.00064
60.75 0.00034
60.8 -0.00016
60.85 -0.00032
60.9 -0.00036
60.95 -0.00027
61 -0.00007
61.05 -0.00012
61.1 0.00002
61.15 0
61.2 0.00017
61.25 0.00017
61.3 0.00032
61.35 0.0003
61.4 0.00037
61.45 0.00054
61.5 0.00068
61.55 0.00085
61.6 0.00083
61.65 0.00069
61.7 0.00045
61.75 0.0001
61.8 -0.00003
61.85 -0.0002
61.9 -0.00045
61.95 -0.00053
62 -0.00071
62.05 -0.00085
62.1 -0.00093
62.15 -0.00103
62.2 -0.00119
62.25 -0.00125
62.3 -0.00137
62.35 -0.00153
62.4 -0.00166
62.45 -0.00181
62.5 -0.00163
62.55 -0.00129
62.6 -0.00097
62.65 -0.00054
62.7 -0.00006
62.75 0.00034
62.8 0.0008
62.85 0.00085
62.9 0.00063
62.95 0.00046
63 0.00022
63.05 -0.00015
63.1 -0.00047
63.15 -0.00059
63.2 -0.00047
63.25 -0.00041
63.3 -0.00037
63.35 -0.00046
63.4 -0.0007
63.45 -0.00089
63.5 -0.0007
63.55 -0.00035
63.6 -0.00026
63.65 -0.00035
63.7 -0.00063
63.75 -0.00061
63.8 -0.00046
63.85 -0.00034
63.9 -0.00021
63.95 -0.0001
64 -0.00015
64.05 0.00007
64.1 0.00036
64.15 0.00056
64.2 0.00074
64.25 0.00098
64.3 0.00098
64.35 0.00079
64.4 0.00073
64.45 0.00039
64.5 0.00008
64.55 -0.00015
64.6 -0.00051
64.65 -0.0009
64.7 -0.00109
64.75 -0.00116
64.8 -0.00096
64.85 -0.00066
64.9 -0.00036
64.95 0.00009
65 0.00036
65.05 0.00042
65.1 0.00034
65.15 0.00043
65.2 0.00032
65.25 0.00038
65.3 0.00038
65.35 0.00017
65.4 0.00003
65.45 0.00003
65.5 0.00016
65.55 0.0002
65.6 0.0004
65.65 0.00026
65.7 0.00011
65.75 0.00014
65.8 0.00021
65.85 0.00001
65.9 0.00007
65.95 -0.00014
66 -0.00039
66.05 -0.00072
66.1 -0.00068
66.15 -0.00062
66.2 -0.00044
66.25 -0.00033
66.3 -0.00016
66.35 0.00006
66.4 0
66.45 -0.00018
66.5 -0.00049
66.55 -0.00041
66.6 -0.00016
66.65 -0.00006
66.7 0.00014
66.75 0.00007
66.8 -0.00009
66.85 -0.0003
66.9 -0.00044
66.95 -0.00072
67 -0.00072
67.05 -0.00067
67.1 -0.00058
67.15 -0.00037
67.2 0.00002
67.25 0.00031
67.3 0.00058
67.35 0.00079
67.4 0.00082
67.45 0.00055
67.5 0.00048
67.55 0.00056
67.6 0.00035
67.65 0.00023
67.7 0.00036
67.75 0.00061
67.8 0.00061
67.85 0.00031
67.9 0.0003
67.95 0.00049
68 0.0008
68.05 0.00096
68.1 0.00082
68.15 0.00085
68.2 0.00075
68.25 0.00082
68.3 0.00061
68.35 0.00055
68.4 0.00048
68.45 0.00051
68.5 0.0003
68.55 0.00022
68.6 0.00015
68.65 0.00017
68.7 0.00028
68.75 0.00054
68.8 0.00057
68.85 0.00029
68.9 -0.00009
68.95 -0.00037
69 -0.00044
69.05 -0.00041
69.1 -0.00034
69.15 -0.00024
69.2 -0.00038
69.25 -0.00061
69.3 -0.00079
69.35 -0.00095
69.4 -0.00099
69.45 -0.00116
69.5 -0.00101
69.55 -0.00109
69.6 -0.00096
69.65 -0.00088
69.7 -0.00101
69.75 -0.00092
69.8 -0.00078
69.85 -0.00065
69.9 -0.00053
69.95 -0.00068
70 -0.00071
70.05 -0.00087
70.1 -0.00113
70.15 -0.00155
70.2 -0.00196
70.25 -0.00213
70.3 -0.00207
70.35 -0.00227
70.4 -0.00242
70.45 -0.00266
70.5 -0.00293
70.55 -0.00315
70.6 -0.00349
70.65 -0.00422
70.7 -0.00534
70.75 -0.0065
70.8 -0.00758
70.85 -0.00908
70.9 -0.01067
70.95 -0.01262
71 -0.01466
71.05 -0.01686
71.1 -0.01949
71.15 -0.02267
71.2 -0.02582
71.25 -0.02912
71.3 -0.03309
71.35 -0.03756
71.4 -0.04246
71.45 -0.04761
71.5 -0.05284
71.55 -0.05824
71.6 -0.06384
71.65 -0.07011
71.7 -0.07646
71.75 -0.08304
71.8 -0.08997
71.85 -0.0971
71.9 -0.1039
71.95 -0.11056
72 -0.11687
72.05 -0.12279
72.1 -0.12875
72.15 -0.13401
72.2 -0.13899
72.25 -0.14352
72.3 -0.1472
72.35 -0.14995
72.4 -0.15169
72.45 -0.15221
72.5 -0.15189
72.55 -0.15033
72.6 -0.14786
72.65 -0.14441
72.7 -0.13978
72.75 -0.13436
72.8 -0.12807
72.85 -0.12086
72.9 -0.1128
72.95 -0.10431
73 -0.09546
73.05 -0.08603
73.1 -0.07642
73.15 -0.06674
73.2 -0.05718
73.25 -0.04765
73.3 -0.03794
73.35 -0.02864
73.4 -0.01982
73.45 -0.0113
73.5 -0.00299
73.55 0.00497
73.6 0.0122
73.65 0.0192
73.7 0.02572
73.75 0.03199
73.8 0.03803
73.85 0.04365
73.9 0.04924
73.95 0.05485
74 0.06003
74.05 0.06535
74.1 0.07077
74.15 0.07604
74.2 0.08107
74.25 0.08637
74.3 0.09175
74.35 0.09705
74.4 0.10232
74.45 0.10729
74.5 0.11204
74.55 0.11686
74.6 0.12159
74.65 0.1261
74.7 0.1303
74.75 0.13414
74.8 0.13788
74.85 0.14101
74.9 0.14376
74.95 0.14605
75 0.14775
75.05 0.14886
75.1 0.14916
75.15 0.14885
75.2 0.14807
75.25 0.14701
75.3 0.14528
75.35 0.14305
75.4 0.14064
75.45 0.13772
75.5 0.13465
75.55 0.13124
75.6 0.12752
75.65 0.12372
75.7 0.11952
75.75 0.11528
75.8 0.11106
75.85 0.10666
75.9 0.10224
75.95 0.09755
76 0.09299
76.05 0.08854
76.1 0.08433
76.15 0.08008
76.2 0.07592
76.25 0.07191
76.3 0.06793
76.35 0.06401
76.4 0.05999
76.45 0.05595
76.5 0.05196
76.55 0.04856
76.6 0.04559
76.65 0.04294
76.7 0.04039
76.75 0.03789
76.8 0.03551
76.85 0.03316
76.9 0.0309
76.95 0.0285
77 0.02629
77.05 0.02428
77.1 0.02246
77.15 0.02077
77.2 0.01897
77.25 0.01719
77.3 0.01545
77.35 0.01357
77.4 0.01181
77.45 0.01015
77.5 0.00875
77.55 0.00745
77.6 0.00589
77.65 0.00438
77.7 0.00286
77.75 0.00129
77.8 -0.00008
77.85 -0.0014
77.9 -0.00236
77.95 -0.00328
78 -0.00406
78.05 -0.00489
78.1 -0.00562
78.15 -0.00624
78.2 -0.00665
78.25 -0.00736
78.3 -0.00792
78.35 -0.00852
78.4 -0.00908
78.45 -0.00977
78.5 -0.01031
78.55 -0.01114
78.6 -0.01205
78.65 -0.01282
78.7 -0.0137
78.75 -0.01437
78.8 -0.01501
78.85 -0.01572
78.9 -0.01598
78.95 -0.01628
79 -0.01628
79.05 -0.01645
79.1 -0.01676
79.15 -0.01704
79.2 -0.01739
79.25 -0.01763
79.3 -0.01804
79.35 -0.01848
79.4 -0.01866
79.45 -0.01852
79.5 -0.01831
79.55 -0.01807
79.6 -0.01786
79.65 -0.01764
79.7 -0.0174
79.75 -0.01717
79.8 -0.01705
79.85 -0.01729
79.9 -0.01758
79.95 -0.01756
80 -0.01762
80.05 -0.01749
80.1 -0.01725
80.15 -0.01697
80.2 -0.01687
80.25 -0.01699
80.3 -0.01701
80.35 -0.01697
80.4 -0.0169
80.45 -0.01687
80.5 -0.01662
80.55 -0.01662
80.6 -0.01669
80.65 -0.01678
80.7 -0.01693
80.75 -0.01696
80.8 -0.01713
80.85 -0.01733
80.9 -0.01714
80.95 -0.01697
81 -0.0167
81.05 -0.01654
81.1 -0.01624
81.15 -0.01576
81.2 -0.01555
81.25 -0.01515
81.3 -0.01478
81.35 -0.01469
81.4 -0.01462
81.45 -0.01429
81.5 -0.01389
81.55 -0.01378
81.6 -0.01381
81.65 -0.01374
81.7 -0.01338
81.75 -0.01311
81.8 -0.0129
81.85 -0.01274
81.9 -0.01242
81.95 -0.01195
82 -0.01154
82.05 -0.01122
82.1 -0.01097
82.15 -0.01063
82.2 -0.01068
82.25 -0.0107
82.3 -0.01053
82.35 -0.01027
82.4 -0.00993
82.45 -0.00988
82.5 -0.01009
82.55 -0.01038
82.6 -0.01068
82.65 -0.01075
82.7 -0.01074
82.75 -0.01075
82.8 -0.0104
82.85 -0.01011
82.9 -0.00984
82.95 -0.00979
83 -0.00949
83.05 -0.0094
83.1 -0.00948
83.15 -0.00924
83.2 -0.00881
83.25 -0.0087
83.3 -0.00865
83.35 -0.00835
83.4 -0.00832
83.45 -0.00828
83.5 -0.00842
83.55 -0.00826
83.6 -0.0082
83.65 -0.00783
83.7 -0.0073
83.75 -0.00702
83.8 -0.00701
83.85 -0.0072
83.9 -0.00745
83.95 -0.00736
84 -0.00705
84.05 -0.00663
84.1 -0.00632
84.15 -0.00593
84.2 -0.00554
84.25 -0.00531
84.3 -0.00537
84.35 -0.00533
84.4 -0.00512
84.45 -0.00525
84.5 -0.00542
84.55 -0.00536
84.6 -0.00507
84.65 -0.00504
84.7 -0.00516
84.75 -0.00511
84.8 -0.00512
84.85 -0.00528
84.9 -0.00537
84.95 -0.00525
85 -0.00526
85.05 -0.00537
85.1 -0.00548
85.15 -0.00523
85.2 -0.00521
85.25 -0.00515
85.3 -0.00515
85.35 -0.00491
85.4 -0.00463
85.45 -0.00462
85.5 -0.00475
85.55 -0.00484
85.6 -0.00501
85.65 -0.00499
85.7 -0.00477
85.75 -0.00441
85.8 -0.00426
85.85 -0.0042
85.9 -0.00405
85.95 -0.00395
86 -0.00404
86.05 -0.00386
86.1 -0.00373
86.15 -0.0037
86.2 -0.0037
86.25 -0.00384
86.3 -0.00367
86.35 -0.00324
86.4 -0.00309
86.45 -0.00311
86.5 -0.00325
86.55 -0.00314
86.6 -0.00322
86.65 -0.00307
86.7 -0.00288
86.75 -0.00256
86.8 -0.00256
86.85 -0.00244
86.9 -0.00215
86.95 -0.00209
87 -0.00221
87.05 -0.00203
87.1 -0.0017
87.15 -0.00177
87.2 -0.00177
87.25 -0.00194
87.3 -0.00182
87.35 -0.00153
87.4 -0.0013
87.45 -0.00127
87.5 -0.00142
87.55 -0.00158
87.6 -0.00158
87.65 -0.00157
87.7 -0.00139
87.75 -0.0014
87.8 -0.00141
87.85 -0.00145
87.9 -0.00167
87.95 -0.0017
88 -0.00161
88.05 -0.00134
88.1 -0.00096
88.15 -0.00082
88.2 -0.00102
88.25 -0.00141
88.3 -0.00185
88.35 -0.00203
88.4 -0.00195
88.45 -0.0017
88.5 -0.00155
88.55 -0.00141
88.6 -0.0013
88.65 -0.00149
88.7 -0.00168
88.75 -0.00182
88.8 -0.00177
88.85 -0.00177
88.9 -0.00195
88.95 -0.00206
89 -0.00198
89.05 -0.00181
89.1 -0.0016
89.15 -0.00132
89.2 -0.00105
89.25 -0.00109
89.3 -0.00095
89.35 -0.00066
89.4 -0.00067
89.45 -0.00054
89.5 -0.0007
89.55 -0.00076
89.6 -0.00072
89.65 -0.00065
89.7 -0.00046
89.75 -0.00025
89.8 -0.00002
89.85 0.00019
89.9 0.00025
89.95 -0.00002
90 -0.00045
90.05 -0.00092
90.1 -0.00139
90.15 -0.0016
90.2 -0.00178
90.25 -0.00158
90.3 -0.00119
90.35 -0.00115
90.4 -0.0013
90.45 -0.00123
90.5 -0.00098
90.55 -0.00092
90.6 -0.00093
90.65 -0.00069
90.7 -0.00067
90.75 -0.00056
90.8 -0.00069
90.85 -0.00066
90.9 -0.0008
90.95 -0.00092
91 -0.0009
91.05 -0.00072
91.1 -0.00064
91.15 -0.00052
91.2 -0.00025
91.25 -0.00008
91.3 0.0001
91.35 0.00039
91.4 0.00051
91.45 0.00069
91.5 0.00059
91.55 0.00048
91.6 0.00025
91.65 0.00019
91.7 0.00022
91.75 0.00034
91.8 0.0002
91.85 -0.00004
91.9 -0.00032
91.95 -0.00038
92 -0.00044
92.05 -0.00052
92.1 -0.00065
92.15 -0.00097
92.2 -0.00097
92.25 -0.00101
92.3 -0.00085
92.35 -0.00056
92.4 -0.00016
92.45 -0.00012
92.5 -0.0003
92.55 -0.00059
92.6 -0.0007
92.65 -0.00093
92.7 -0.00127
92.75 -0.0016
92.8 -0.0015
92.85 -0.00131
92.9 -0.00122
92.95 -0.00116
93 -0.00091
93.05 -0.0005
93.1 -0.00009
93.15 0.00011
93.2 0.00012
93.25 0.00015
93.3 0.00003
93.35 -0.00027
93.4 -0.00034
93.45 -0.00018
93.5 -0.00024
93.55 -0.00017
93.6 0.00006
93.65 0.00006
93.7 -0.00022
93.75 -0.0004
93.8 -0.0003
93.85 -0.00047
93.9 -0.00037
93.95 -0.00012
94 -0.00024
94.05 -0.00032
94.1 -0.00026
94.15 -0.00012
94.2 -0.00008
94.25 -0.00001
94.3 -0.00014
94.35 -0.00047
94.4 -0.00061
94.45 -0.00044
94.5 -0.00025
94.55 -0.0001
94.6 -0.00027
94.65 -0.00063
94.7 -0.00104
94.75 -0.00116
94.8 -0.00136
94.85 -0.0015
94.9 -0.00154
94.95 -0.00132
95 -0.00116
95.05 -0.00078
95.1 -0.0004
95.15 0.00005
95.2 0.00032
95.25 0.00023
95.3 -0.00001
95.35 -0.00032
95.4 -0.00075
95.45 -0.00084
95.5 -0.00065
95.55 -0.00027
95.6 -0.00003
95.65 0.00025
95.7 0.00034
95.75 0.00035
95.8 0.00006
95.85 -0.00033
95.9 -0.00033
95.95 -0.00029
96 -0.00034
96.05 -0.0003
96.1 -0.00024
96.15 -0.00041
96.2 -0.00028
96.25 -0.00006
96.3 0.00002
96.35 0.00014
96.4 0.00018
96.45 -0.00003
96.5 -0.00014
96.55 -0.00017
96.6 -0.00003
96.65 -0.00009
96.7 -0.00006
96.75 -0.00002
96.8 0.00011
96.85 0.00022
96.9 0.00046
96.95 0.00072
97 0.00087
97.05 0.0009
97.1 0.00107
97.15 0.0013
97.2 0.00131
97.25 0.00095
97.3 0.00065
97.35 0.00042
97.4 0.00027
97.45 0.00001
97.5 -0.00008
97.55 0.00004
97.6 0.00017
97.65 0.00013
97.7 0.00022
97.75 0.00035
97.8 0.00042
97.85 0.00044
97.9 0.00045
97.95 0.00043
98 0.0002
98.05 -0.0002
98.1 -0.00062
98.15 -0.00071
98.2 -0.00056
98.25 -0.00048
98.3 -0.00065
98.35 -0.00065
98.4 -0.00061
98.45 -0.00057
98.5 -0.00034
98.55 -0.00038
98.6 -0.00046
98.65 -0.00045
98.7 -0.0006
98.75 -0.00065
98.8 -0.00079
98.85 -0.00073
98.9 -0.00068
98.95 -0.00075
99 -0.00077
99.05 -0.00096
99.1 -0.00097
99.15 -0.00101
99.2 -0.00105
99.25 -0.00092
99.3 -0.00057
99.35 -0.00055
99.4 -0.00063
99.45 -0.00078
99.5 -0.00105
99.55 -0.00122
99.6 -0.00145
99.65 -0.00139
99.7 -0.00138
99.75 -0.00136
99.8 -0.00134
99.85 -0.00099
99.9 -0.00058
99.95 -0.00034
