0 0
0.05 0.00151
0.1 0.00397
0.15 0.0065
0.2 0.00841
0.25 0.00955
0.3 0.01104
0.35 0.01121
0.4 0.01055
0.45 0.01072
0.5 0.01145
0.55 0.01239
0.6 0.01234
0.65 0.0113
0.7 0.01042
0.75 0.00899
0.8 0.00848
0.85 0.00839
0.9 0.00803
0.95 0.00793
1 0.0072
1.05 0.00746
1.1 0.00745
1.15 0.00684
1.2 0.00664
1.25 0.00738
1.3 0.00732
1.35 0.00737
1.4 0.00795
1.45 0.00784
1.5 0.00745
1.55 0.00767
1.6 0.00717
1.65 0.00751
1.7 0.0072
1.75 0.00771
1.8 0.00712
1.85 0.00696
1.9 0.00661
1.95 0.00657
2 0.00562
2.05 0.00538
2.1 0.00496
2.15 0.00422
2.2 0.00322
2.25 0.00207
2.3 0.00135
2.35 0.0006
2.4 0.00091
2.45 0.00198
2.5 0.00315
2.55 0.00371
2.6 0.00461
2.65 0.00446
2.7 0.00513
2.75 0.00553
2.8 0.00601
2.85 0.00675
2.9 0.00745
2.95 0.00817
3 0.00821
3.05 0.00831
3.1 0.00788
3.15 0.00748
3.2 0.00764
3.25 0.00709
3.3 0.00564
3.35 0.0046
3.4 0.00442
3.45 0.00399
3.5 0.00419
3.55 0.00347
3.6 0.00265
3.65 0.00194
3.7 0.00115
3.75 0.00068
3.8 -0.00026
3.85 -0.00142
3.9 -0.00256
3.95 -0.00301
4 -0.00353
4.05 -0.00269
4.1 -0.0022
4.15 -0.00099
4.2 0.0004
4.25 0.0021
4.3 0.00339
4.35 0.00393
4.4 0.00486
4.45 0.00582
4.5 0.00641
4.55 0.00609
4.6 0.00555
4.65 0.00431
4.7 0.00369
4.75 0.00257
4.8 0.00266
4.85 0.00313
4.9 0.00293
4.95 0.00299
5 0.0029
5.05 0.00253
5.1 0.00143
5.15 -0.00003
5.2 -0.00026
5.25 -0.00002
5.3 0.00093
5.35 0.00087
5.4 0.00077
5.45 0.00131
5.5 0.00133
5.55 0.00099
5.6 0.00034
5.65 -0.00046
5.7 -0.00065
5.75 -0.00116
5.8 -0.00082
5.85 -0.00107
5.9 -0.00129
5.95 -0.00044
6 0.00059
6.05 0.00108
6.1 0.0011
6.15 0.00182
6.2 0.00168
6.25 0.00156
6.3 0.00165
6.35 0.00244
6.4 0.00226
6.45 0.00187
6.5 0.00237
6.55 0.00213
6.6 0.00141
6.65 0.00041
6.7 -0.0007
6.75 -0.00122
6.8 -0.00126
6.85 -0.00141
6.9 -0.00135
6.95 -0.00145
7 -0.00139
7.05 -0.0008
7.1 -0.00002
7.15 -0.00017
7.2 0.00046
7.25 0.00025
7.3 0.00062
7.35 0.00138
7.4 0.00246
7.45 0.0026
7.5 0.00221
7.55 0.00255
7.6 0.00309
7.65 0.00382
7.7 0.00332
7.75 0.0032
7.8 0.00322
7.85 0.00318
7.9 0.00366
7.95 0.00363
8 0.00374
8.05 0.00353
8.1 0.00253
8.15 0.00188
8.2 0.00195
8.25 0.00234
8.3 0.00299
8.35 0.00367
8.4 0.00338
8.45 0.00372
8.5 0.00358
8.55 0.00324
8.6 0.00335
8.65 0.00352
8.7 0.00391
8.75 0.00425
8.8 0.00455
8.85 0.0039
8.9 0.00312
8.95 0.00231
9 0.00125
9.05 0.00079
9.1 0.00037
9.15 0.00091
9.2 0.00088
9.25 0.00147
9.3 0.00112
9.35 -0.00001
9.4 0.00008
9.45 0.00094
9.5 0.00186
9.55 0.00235
9.6 0.00316
9.65 0.00391
9.7 0.00458
9.75 0.0045
9.8 0.0047
9.85 0.00435
9.9 0.00321
9.95 0.00272
10 0.00154
10.05 0.00111
10.1 -0.00008
10.15 -0.00135
10.2 -0.00209
10.25 -0.00217
10.3 -0.00216
10.35 -0.00237
10.4 -0.00178
10.45 -0.00142
10.5 -0.00151
10.55 -0.00208
10.6 -0.00219
10.65 -0.00199
10.7 -0.00138
10.75 -0.00156
10.8 -0.00162
10.85 -0.00211
10.9 -0.00202
10.95 -0.00147
11 -0.00045
11.05 0.00053
11.1 0.0018
11.15 0.00224
11.2 0.00256
11.25 0.00309
11.3 0.00338
11.35 0.00267
11.4 0.0025
11.45 0.00197
11.5 0.00179
11.55 0.00229
11.6 0.00162
11.65 0.00169
11.7 0.0021
11.75 0.0028
11.8 0.00228
11.85 0.001
11.9 0.00051
11.95 -0.0007
12 -0.00164
12.05 -0.00173
12.1 -0.00225
12.15 -0.00216
12.2 -0.0024
12.25 -0.00225
12.3 -0.00162
12.35 -0.00119
12.4 -0.00056
12.45 0.00036
12.5 0.00147
12.55 0.00265
12.6 0.00236
12.65 0.00221
12.7 0.00126
12.75 0.00026
12.8 -0.00073
12.85 -0.00151
12.9 -0.00234
12.95 -0.00342
13 -0.00363
13.05 -0.00287
13.1 -0.00168
13.15 -0.00044
13.2 0.00021
13.25 0.00079
13.3 0.00144
13.35 0.00135
13.4 0.00193
13.45 0.00242
13.5 0.00296
13.55 0.00261
13.6 0.0026
13.65 0.00245
13.7 0.0016
13.75 0.00151
13.8 0.00087
13.85 -0.00025
13.9 -0.00072
13.95 -0.00167
14 -0.00174
14.05 -0.00123
14.1 -0.00025
14.15 0.00097
14.2 0.0024
14.25 0.00388
14.3 0.00525
14.35 0.00555
14.4 0.00453
14.45 0.00369
14.5 0.00247
14.55 0.00119
14.6 0.00071
14.65 -0.00014
14.7 -0.00004
14.75 0.00054
14.8 0.00152
14.85 0.00167
14.9 0.001
14.95 -0.00036
15 -0.00179
15.05 -0.00189
15.1 -0.0017
15.15 -0.00185
15.2 -0.00259
15.25 -0.0033
15.3 -0.00311
15.35 -0.00208
15.4 -0.00155
15.45 -0.00057
15.5 0.00029
15.55 0.00102
15.6 0.0005
15.65 -0.00065
15.7 -0.00161
15.75 -0.00252
15.8 -0.0032
15.85 -0.00263
15.9 -0.00156
15.95 -0.00022
16 0.00028
16.05 -0.00019
16.1 -0.00021
16.15 0.00039
16.2 0.00027
16.25 -0.0007
16.3 -0.00062
16.35 -0
16.4 0.00001
16.45 -0.00027
16.5 -0.00017
16.55 -0.00042
16.6 -0.00113
16.65 -0.0009
16.7 -0.00136
16.75 -0.00142
16.8 -0.00177
16.85 -0.00127
16.9 -0.00102
16.95 -0.00008
17 0.00097
17.05 0.00078
17.1 0.00106
17.15 0.00081
17.2 0.00059
17.25 0.00008
17.3 0.00021
17.35 0.00002
17.4 -0.0004
17.45 -0.00043
17.5 -0.00129
17.55 -0.00162
17.6 -0.0023
17.65 -0.00179
17.7 -0.00101
17.75 -0.00063
17.8 0.00012
17.85 0.00132
17.9 0.00184
17.95 0.00176
18 0.00103
18.05 -0.00031
18.1 -0.00137
18.15 -0.00118
18.2 -0.00157
18.25 -0.00221
18.3 -0.00194
18.35 -0.00228
18.4 -0.00231
18.45 -0.00292
18.5 -0.00229
18.55 -0.0013
18.6 -0.00097
18.65 0.00001
18.7 0.00038
18.75 -0.00017
18.8 0.00008
18.85 0.00043
18.9 0.00067
18.95 0.0013
19 0.002
19.05 0.00231
19.1 0.00209
19.15 0.00219
19.2 0.00228
19.25 0.00128
19.3 0.00116
19.35 0.00027
19.4 -0.0001
19.45 0.00012
19.5 0.00089
19.55 0.00105
19.6 0.00101
19.65 0.00079
19.7 -0.00018
19.75 -0.00058
19.8 -0.00145
19.85 -0.00152
19.9 -0.00094
19.95 -0.00118
20 -0.00097
20.05 -0.00084
20.1 -0.00047
20.15 -0.00102
20.2 -0.00174
20.25 -0.00223
20.3 -0.00306
20.35 -0.00388
20.4 -0.00352
20.45 -0.00297
20.5 -0.00221
20.55 -0.00155
20.6 -0.00086
20.65 -0.00026
20.7 -0.00068
20.75 -0.00047
20.8 0.00004
20.85 -0.00017
20.9 0.00021
20.95 0
21 -0.00042
21.05 0
21.1 0.0001
21.15 0.00088
21.2 0.0018
21.25 0.0027
21.3 0.00293
21.35 0.00272
21.4 0.0016
21.45 0.00132
21.5 0.00078
21.55 0.00116
21.6 0.00077
21.65 -0.00008
21.7 -0.00037
21.75 -0.00031
21.8 -0.00057
21.85 -0.00015
21.9 -0.00072
21.95 -0.0002
22 0.00058
22.05 0.0009
22.1 0.00085
22.15 0.00097
22.2 0.00151
22.25 0.00141
22.3 0.00064
22.35 0.00053
22.4 0.00078
22.45 0.00147
22.5 0.00128
22.55 0.00046
22.6 0.00021
22.65 -0.00018
22.7 -0.00122
22.75 -0.0013
22.8 -0.0018
22.85 -0.00201
22.9 -0.00215
22.95 -0.00182
23 -0.00197
23.05 -0.00201
23.1 -0.0022
23.15 -0.00221
23.2 -0.00278
23.25 -0.00287
23.3 -0.00199
23.35 -0.00184
23.4 -0.00078
23.45 -0.00016
23.5 -0.00022
23.55 0.0003
23.6 0.00105
23.65 0.00086
23.7 0.00129
23.75 0.00113
23.8 0.00091
23.85 0.00078
23.9 0.00072
23.95 0.00094
24 0.00052
24.05 -0.00024
24.1 -0.0007
24.15 -0.00103
24.2 -0.0014
24.25 -0.00169
24.3 -0.00172
24.35 -0.00079
24.4 -0.00066
24.45 -0.00062
24.5 0.00021
24.55 0.00112
24.6 0.00224
24.65 0.00195
24.7 0.00088
24.75 -0.00058
24.8 -0.00195
24.85 -0.0019
24.9 -0.00239
24.95 -0.00199
25 -0.00148
25.05 -0.00133
25.1 -0.00166
25.15 -0.00216
25.2 -0.00251
25.25 -0.0022
25.3 -0.00144
25.35 -0.00005
25.4 0.0014
25.45 0.00277
25.5 0.00387
25.55 0.00358
25.6 0.0034
25.65 0.00365
25.7 0.00303
25.75 0.00217
25.8 0.0009
25.85 0.00013
25.9 0.0002
25.95 0.00025
26 -0.00047
26.05 -0.00125
26.1 -0.00087
26.15 -0.00036
26.2 -0.00051
26.25 -0.00142
26.3 -0.00162
26.35 -0.00113
26.4 -0.00149
26.45 -0.00181
26.5 -0.00118
26.55 -0.00089
26.6 -0.00074
26.65 -0.00029
26.7 -0.00083
26.75 -0.00088
26.8 -0.00102
26.85 -0.00134
26.9 -0.00215
26.95 -0.00272
27 -0.00208
27.05 -0.00141
27.1 -0.00157
27.15 -0.00139
27.2 -0.0006
27.25 0.00035
27.3 0.00016
27.35 0.00034
27.4 -0.00004
27.45 0.00044
27.5 0.00064
27.55 0.00113
27.6 0.001
27.65 0.00048
27.7 0.0001
27.75 -0.0006
27.8 -0.00108
27.85 -0.00161
27.9 -0.00253
27.95 -0.00215
28 -0.00217
28.05 -0.0016
28.1 -0.00104
28.15 -0.00014
28.2 0.00056
28.25 0.00023
28.3 -0.00041
28.35 -0.00026
28.4 -0.00077
28.45 -0.00029
28.5 -0.00034
28.55 0.00014
28.6 0.00051
28.65 0.00017
28.7 -0.00025
28.75 -0.0009
28.8 -0.00198
28.85 -0.00317
28.9 -0.003
28.95 -0.00265
29 -0.00187
29.05 -0.00072
29.1 0.00007
29.15 0.00056
29.2 0.00044
29.25 -0.00033
29.3 -0.0013
29.35 -0.00224
29.4 -0.00307
29.45 -0.00365
29.5 -0.00304
29.55 -0.00254
29.6 -0.00147
29.65 -0.00047
29.7 0.00018
29.75 0.00037
29.8 -0.00018
29.85 -0.00101
29.9 -0.00099
29.95 -0.0016
30 -0.00161
30.05 -0.00134
30.1 -0.00026
30.15 0.00015
30.2 0.00112
30.25 0.002
30.3 0.00227
30.35 0.00249
30.4 0.00171
30.45 0.00048
30.5 -0.00068
30.55 -0.00136
30.6 -0.00175
30.65 -0.0024
30.7 -0.00293
30.75 -0.00246
30.8 -0.00218
30.85 -0.0025
30.9 -0.00164
30.95 -0.00161
31 -0.00171
31.05 -0.00112
31.1 -0.00127
31.15 -0.00197
31.2 -0.00244
31.25 -0.00274
31.3 -0.00271
31.35 -0.00323
31.4 -0.00335
31.45 -0.00268
31.5 -0.0014
31.55 -0.00052
31.6 -0.0001
31.65 -0.0002
31.7 -0.00046
31.75 -0.00041
31.8 -0.00074
31.85 -0.00112
31.9 -0.00164
31.95 -0.00163
32 -0.0008
32.05 -0.00028
32.1 -0.00057
32.15 -0.00078
32.2 -0.00084
32.25 -0.00116
32.3 -0.00161
32.35 -0.00109
32.4 -0.00127
32.45 -0.00089
32.5 -0.00122
32.55 -0.00161
32.6 -0.00162
32.65 -0.00162
32.7 -0.00168
32.75 -0.00168
32.8 -0.00093
32.85 -0.00069
32.9 0.00022
32.95 0.00015
33 -0.00007
33.05 0.00005
33.1 0.00058
33.15 0.00033
33.2 -0.00042
33.25 -0.00157
33.3 -0.00144
33.35 -0.00104
33.4 -0.00122
33.45 -0.00111
33.5 -0.00165
33.55 -0.00137
33.6 -0.00035
33.65 0.00105
33.7 0.00146
33.75 0.0022
33.8 0.00298
33.85 0.00283
33.9 0.00313
33.95 0.00374
34 0.00439
34.05 0.00395
34.1 0.00273
34.15 0.00245
34.2 0.00247
34.25 0.00175
34.3 0.00043
34.35 -0.00038
34.4 -0.00162
34.45 -0.00282
34.5 -0.00404
34.55 -0.00406
34.6 -0.00354
34.65 -0.00332
34.7 -0.00338
34.75 -0.0033
34.8 -0.00364
34.85 -0.0037
34.9 -0.00413
34.95 -0.00335
35 -0.0025
35.05 -0.00223
35.1 -0.00094
35.15 0.00083
35.2 0.00189
35.25 0.00307
35.3 0.00448
35.35 0.00572
35.4 0.00588
35.45 0.00509
35.5 0.00486
35.55 0.00462
35.6 0.00352
35.65 0.00268
35.7 0.00217
35.75 0.00139
35.8 0.00065
35.85 0.00014
35.9 -0.00062
35.95 -0.0014
36 -0.00097
36.05 0.0003
36.1 0.00078
36.15 0.00105
36.2 0.00103
36.25 0.00067
36.3 0.00041
36.35 -0.00028
36.4 -0.00116
36.45 -0.0014
36.5 -0.00163
36.55 -0.00081
36.6 -0.00048
36.65 -0.00087
36.7 -0.00083
36.75 -0.00118
36.8 -0.00132
36.85 -0.00119
36.9 -0.00124
36.95 -0.00065
37 0.00046
37.05 0.00158
37.1 0.00154
37.15 0.00091
37.2 0.00011
37.25 0.00006
37.3 0.0005
37.35 0.00046
37.4 0.00012
37.45 -0.00082
37.5 -0.00174
37.55 -0.00178
37.6 -0.00087
37.65 -0.00077
37.7 -0.00034
37.75 -0.00036
37.8 0.00013
37.85 0.00091
37.9 0.00151
37.95 0.00252
38 0.00367
38.05 0.00477
38.1 0.00563
38.15 0.00653
38.2 0.00612
38.25 0.00579
38.3 0.00449
38.35 0.00333
38.4 0.00208
38.45 0.00129
38.5 0.0007
38.55 -0.00049
38.6 -0.00072
38.65 -0.00152
38.7 -0.00107
38.75 -0.00076
38.8 -0.00128
38.85 -0.00221
38.9 -0.00312
38.95 -0.00379
39 -0.00429
39.05 -0.00455
39.1 -0.00361
39.15 -0.00231
39.2 -0.00166
39.25 -0.00141
39.3 -0.00146
39.35 -0.00182
39.4 -0.00226
39.45 -0.00196
39.5 -0.0017
39.55 -0.00134
39.6 -0.00042
39.65 -0.00044
39.7 -0.00058
39.75 -0.00065
39.8 -0.00006
39.85 -0.00009
39.9 -0.00035
39.95 -0.00062
40 -0.00113
40.05 -0.00208
40.1 -0.00324
40.15 -0.00396
40.2 -0.00392
40.25 -0.00408
40.3 -0.00337
40.35 -0.00247
40.4 -0.00168
40.45 -0.00023
40.5 0.00062
40.55 0.00166
40.6 0.00197
40.65 0.00123
40.7 0.00132
40.75 0.00201
40.8 0.00291
40.85 0.00253
40.9 0.00095
40.95 -0.00122
41 -0.00242
41.05 -0.00436
41.1 -0.00562
41.15 -0.00738
41.2 -0.00992
41.25 -0.01244
41.3 -0.01427
41.35 -0.01617
41.4 -0.01851
41.45 -0.02157
41.5 -0.02536
41.55 -0.03024
41.6 -0.0359
41.65 -0.04242
41.7 -0.04918
41.75 -0.05732
41.8 -0.06624
41.85 -0.07617
41.9 -0.0872
41.95 -0.10034
42 -0.11463
42.05 -0.12983
42.1 -0.14568
42.15 -0.16379
42.2 -0.18374
42.25 -0.20569
42.3 -0.2289
42.35 -0.2535
42.4 -0.27798
42.45 -0.30333
42.5 -0.33003
42.55 -0.35752
42.6 -0.38454
42.65 -0.41139
42.7 -0.43628
42.75 -0.45942
42.8 -0.48175
42.85 -0.50262
42.9 -0.52083
42.95 -0.53627
43 -0.54875
43.05 -0.55802
43.1 -0.56401
43.15 -0.5664
43.2 -0.56403
43.25 -0.55687
43.3 -0.54619
43.35 -0.53044
43.4 -0.51051
43.45 -0.486
43.5 -0.45799
43.55 -0.42602
43.6 -0.39012
43.65 -0.35109
43.7 -0.31037
43.75 -0.26888
43.8 -0.22632
43.85 -0.18225
43.9 -0.13778
43.95 -0.09394
44 -0.05144
44.05 -0.00998
44.1 0.0296
44.15 0.06764
44.2 0.10512
44.25 0.14075
44.3 0.17358
44.35 0.20466
44.4 0.23207
44.45 0.25701
44.5 0.27894
44.55 0.29881
44.6 0.31651
44.65 0.33276
44.7 0.34632
44.75 0.35807
44.8 0.36744
44.85 0.37494
44.9 0.38079
44.95 0.38613
45 0.39133
45.05 0.39609
45.1 0.39952
45.15 0.40159
45.2 0.4026
45.25 0.40446
45.3 0.40565
45.35 0.40572
45.4 0.40616
45.45 0.40704
45.5 0.40726
45.55 0.40684
45.6 0.40508
45.65 0.40213
45.7 0.39838
45.75 0.39555
45.8 0.39208
45.85 0.38847
45.9 0.38413
45.95 0.37995
46 0.37558
46.05 0.37085
46.1 0.36597
46.15 0.36078
46.2 0.35445
46.25 0.34804
46.3 0.34055
46.35 0.33237
46.4 0.32397
46.45 0.31595
46.5 0.30847
46.55 0.30073
46.6 0.29321
46.65 0.28561
46.7 0.27819
46.75 0.26914
46.8 0.25971
46.85 0.25009
46.9 0.24154
46.95 0.23253
47 0.22312
47.05 0.21413
47.1 0.20569
47.15 0.19809
47.2 0.18975
47.25 0.1813
47.3 0.17316
47.35 0.16575
47.4 0.15736
47.45 0.14955
47.5 0.14109
47.55 0.13311
47.6 0.12443
47.65 0.11621
47.7 0.10896
47.75 0.10173
47.8 0.09465
47.85 0.08801
47.9 0.08092
47.95 0.07366
48 0.06695
48.05 0.05977
48.1 0.05262
48.15 0.04612
48.2 0.04082
48.25 0.03564
48.3 0.03121
48.35 0.0269
48.4 0.02175
48.45 0.01748
48.5 0.01276
48.55 0.00861
48.6 0.00397
48.65 -0.00022
48.7 -0.00369
48.75 -0.00692
48.8 -0.01124
48.85 -0.01524
48.9 -0.01987
48.95 -0.02465
49 -0.02911
49.05 -0.03234
49.1 -0.03574
49.15 -0.0381
49.2 -0.03996
49.25 -0.04236
49.3 -0.04512
49.35 -0.04708
49.4 -0.04834
49.45 -0.04948
49.5 -0.05141
49.55 -0.05298
49.6 -0.05428
49.65 -0.05555
49.7 -0.05763
49.75 -0.06026
49.8 -0.06158
49.85 -0.06216
49.9 -0.0629
49.95 -0.06409
50 -0.06442
50.05 -0.06565
50.1 -0.06651
50.15 -0.06645
50.2 -0.06576
50.25 -0.06514
50.3 -0.06498
50.35 -0.0659
50.4 -0.06693
50.45 -0.0684
50.5 -0.06868
50.55 -0.06873
50.6 -0.06895
50.65 -0.06848
50.7 -0.06737
50.75 -0.06597
50.8 -0.06565
50.85 -0.06498
50.9 -0.06482
50.95 -0.06361
51 -0.06285
51.05 -0.06179
51.1 -0.06161
51.15 -0.06102
51.2 -0.06108
51.25 -0.06066
51.3 -0.05974
51.35 -0.05878
51.4 -0.05833
51.45 -0.05816
51.5 -0.05755
51.55 -0.05758
51.6 -0.0565
51.65 -0.05463
51.7 -0.05248
51.75 -0.05046
51.8 -0.04923
51.85 -0.04879
51.9 -0.04808
51.95 -0.04731
52 -0.04631
52.05 -0.04579
52.1 -0.04609
52.15 -0.04615
52.2 -0.0459
52.25 -0.04509
52.3 -0.0446
52.35 -0.04479
52.4 -0.04538
52.45 -0.04551
52.5 -0.0456
52.55 -0.0449
52.6 -0.04351
52.65 -0.04198
52.7 -0.0401
52.75 -0.03838
52.8 -0.03636
52.85 -0.03542
52.9 -0.03414
52.95 -0.03298
53 -0.03266
53.05 -0.03206
53.1 -0.03108
53.15 -0.03116
53.2 -0.0313
53.25 -0.0314
53.3 -0.03228
53.35 -0.0321
53.4 -0.03177
53.45 -0.0317
53.5 -0.03092
53.55 -0.03094
53.6 -0.0303
53.65 -0.02921
53.7 -0.02868
53.75 -0.02827
53.8 -0.02863
53.85 -0.02838
53.9 -0.0276
53.95 -0.02772
54 -0.02757
54.05 -0.02782
54.1 -0.02793
54.15 -0.02814
54.2 -0.02862
54.25 -0.02909
54.3 -0.02837
54.35 -0.0269
54.4 -0.0261
54.45 -0.02505
54.5 -0.02442
54.55 -0.02426
54.6 -0.02381
54.65 -0.02312
54.7 -0.02209
54.75 -0.02153
54.8 -0.02173
54.85 -0.0222
54.9 -0.02236
54.95 -0.0216
55 -0.02161
55.05 -0.02088
55.1 -0.02052
55.15 -0.02066
55.2 -0.01987
55.25 -0.01837
55.3 -0.0178
55.35 -0.01743
55.4 -0.01751
55.45 -0.01715
55.5 -0.01638
55.55 -0.01639
55.6 -0.01565
55.65 -0.01474
55.7 -0.01469
55.75 -0.01473
55.8 -0.01482
55.85 -0.01552
55.9 -0.01499
55.95 -0.01472
56 -0.01356
56.05 -0.01295
56.1 -0.01295
56.15 -0.01311
56.2 -0.01373
56.25 -0.01323
56.3 -0.01196
56.35 -0.01177
56.4 -0.0112
56.45 -0.01164
56.5 -0.01107
56.55 -0.01116
56.6 -0.01181
56.65 -0.0123
56.7 -0.01228
56.75 -0.01262
56.8 -0.01342
56.85 -0.01396
56.9 -0.0134
56.95 -0.01346
57 -0.01376
57.05 -0.0136
57.1 -0.01366
57.15 -0.01347
57.2 -0.01233
57.25 -0.01057
57.3 -0.00849
57.35 -0.00672
57.4 -0.00624
57.45 -0.00524
57.5 -0.00506
57.55 -0.00462
57.6 -0.00408
57.65 -0.00326
57.7 -0.00287
57.75 -0.00365
57.8 -0.00501
57.85 -0.00526
57.9 -0.00525
57.95 -0.0061
58 -0.00597
58.05 -0.00603
58.1 -0.00677
58.15 -0.00775
58.2 -0.00818
58.25 -0.00815
58.3 -0.00769
58.35 -0.00752
58.4 -0.00703
58.45 -0.0066
58.5 -0.00671
58.55 -0.00749
58.6 -0.00736
58.65 -0.00673
58.7 -0.00597
58.75 -0.00488
58.8 -0.00409
58.85 -0.00326
58.9 -0.00289
58.95 -0.00304
59 -0.00301
59.05 -0.00342
59.1 -0.00347
59.15 -0.00418
59.2 -0.0048
59.25 -0.00602
59.3 -0.00646
59.35 -0.00682
59.4 -0.00604
59.45 -0.00573
59.5 -0.00555
59.55 -0.00491
59.6 -0.00421
59.65 -0.00346
59.7 -0.00233
59.75 -0.0015
59.8 -0.00096
59.85 -0.00057
59.9 0.00012
59.95 -0.00057
60 -0.00052
60.05 -0.00037
60.1 -0.00027
60.15 -0.00121
60.2 -0.00201
60.25 -0.00322
60.3 -0.00326
60.35 -0.00362
60.4 -0.00395
60.45 -0.00384
60.5 -0.00328
60.55 -0.00297
60.6 -0.00222
60.65 -0.00172
60.7 -0.00145
60.75 -0.00137
60.8 -0.00137
60.85 -0.00095
60.9 -0.00011
60.95 -0.00055
61 -0.00098
61.05 -0.00192
61.1 -0.00201
61.15 -0.00132
61.2 -0.00144
61.25 -0.00129
61.3 -0.00133
61.35 -0.00199
61.4 -0.00214
61.45 -0.00178
61.5 -0.00243
61.55 -0.00333
61.6 -0.00438
61.65 -0.00507
61.7 -0.00549
61.75 -0.00513
61.8 -0.00431
61.85 -0.00391
61.9 -0.00425
61.95 -0.00438
62 -0.00413
62.05 -0.00446
62.1 -0.00525
62.15 -0.00566
62.2 -0.00582
62.25 -0.00543
62.3 -0.00502
62.35 -0.00371
62.4 -0.00289
62.45 -0.00209
62.5 -0.00204
62.55 -0.00193
62.6 -0.0015
62.65 -0.00076
62.7 -0.00058
62.75 -0.00022
62.8 0.0001
62.85 0.00042
62.9 0.00106
62.95 0.00073
63 0.00085
63.05 0.00009
63.1 -0.00011
63.15 0.00047
63.2 0.00149
63.25 0.00158
63.3 0.00177
63.35 0.0008
63.4 0.0006
63.45 0.00035
63.5 -0.00019
63.55 -0.00009
63.6 -0.00008
63.65 -0.0004
63.7 -0.00124
63.75 -0.00191
63.8 -0.00169
63.85 -0.00141
63.9 -0.0016
63.95 -0.00194
64 -0.00194
64.05 -0.00275
64.1 -0.00313
64.15 -0.003
64.2 -0.00234
64.25 -0.00178
64.3 -0.00115
64.35 -0.00067
64.4 -0.00101
64.45 -0.00044
64.5 0.00015
64.55 0.00099
64.6 0.00135
64.65 0.00062
64.7 0.00074
64.75 -0.00019
64.8 -0.00027
64.85 0.00016
64.9 -0.00001
64.95 0.00016
65 0.00031
65.05 0.00102
65.1 0.00206
65.15 0.00248
65.2 0.00168
65.25 0.00111
65.3 0.00018
65.35 -0.00018
65.4 -0.00071
65.45 -0.00045
65.5 -0.00065
65.55 -0.00005
65.6 0.00019
65.65 -0.00037
65.7 -0.00101
65.75 -0.00102
65.8 -0.00124
65.85 -0.00194
65.9 -0.00171
65.95 -0.00198
66 -0.00221
66.05 -0.00253
66.1 -0.0024
66.15 -0.00155
66.2 -0.00158
66.25 -0.00085
66.3 -0.0011
66.35 -0.00108
66.4 -0.00192
66.45 -0.00261
66.5 -0.00276
66.55 -0.00264
66.6 -0.00273
66.65 -0.00339
66.7 -0.00377
66.75 -0.00313
66.8 -0.00297
66.85 -0.00322
66.9 -0.00321
66.95 -0.00338
67 -0.00353
67.05 -0.00378
67.1 -0.00296
67.15 -0.00179
67.2 -0.00107
67.25 -0.00011
67.3 0.00113
67.35 0.002
67.4 0.00256
67.45 0.00293
67.5 0.00368
67.55 0.00413
67.6 0.00477
67.65 0.00473
67.7 0.00473
67.75 0.004
67.8 0.0025
67.85 0.00178
67.9 0.00156
67.95 0.00188
68 0.00169
68.05 0.0008
68.1 0.00025
68.15 0.00028
68.2 0.0007
68.25 0.00055
68.3 0.00051
68.35 0.00016
68.4 0.00052
68.45 0.0002
68.5 0.00061
68.55 0.00076
68.6 0.0005
68.65 -0.00002
68.7 0.0001
68.75 -0.00022
68.8 -0.00038
68.85 -0.00069
68.9 -0.00169
68.95 -0.00215
69 -0.00273
69.05 -0.00306
69.1 -0.00363
69.15 -0.00317
69.2 -0.00349
69.25 -0.00349
69.3 -0.00359
69.35 -0.00352
69.4 -0.00292
69.45 -0.00213
69.5 -0.0014
69.55 -0.00131
69.6 -0.00181
69.65 -0.00221
69.7 -0.00318
69.75 -0.00417
69.8 -0.00483
69.85 -0.00549
69.9 -0.00621
69.95 -0.00687
70 -0.00716
70.05 -0.00657
70.1 -0.00604
70.15 -0.0045
70.2 -0.00267
70.25 -0.00127
70.3 0.0001
70.35 0.00171
70.4 0.0031
70.45 0.00335
70.5 0.00315
70.55 0.00354
70.6 0.00348
70.65 0.00237
70.7 0.00197
70.75 0.0014
70.8 0.00036
70.85 -0.00111
70.9 -0.00209
70.95 -0.00172
71 -0.00092
71.05 -0.00034
71.1 -0.00049
71.15 0.00004
71.2 0.00104
71.25 0.00104
71.3 0.00055
71.35 0.00075
71.4 0.00092
71.45 0.00151
71.5 0.00119
71.55 0.00153
71.6 0.00186
71.65 0.00212
71.7 0.00146
71.75 0.00125
71.8 0.00161
71.85 0.00167
71.9 0.0022
71.95 0.00277
72 0.00342
72.05 0.00425
72.1 0.00372
72.15 0.0037
72.2 0.00349
72.25 0.00352
72.3 0.00275
72.35 0.00281
72.4 0.00248
72.45 0.00172
72.5 0.00118
72.55 0.00121
72.6 0.00029
72.65 -0.00065
72.7 -0.00086
72.75 -0.00052
72.8 0.00019
72.85 0.00029
72.9 -0.00012
72.95 0.00016
73 0.00026
73.05 -0.00016
73.1 0.00025
73.15 0.00032
73.2 0.0009
73.25 0.00151
73.3 0.00247
73.35 0.00238
73.4 0.00273
73.45 0.00186
73.5 0.00064
73.55 -0.00022
73.6 -0.00045
73.65 -0.00051
73.7 -0.00023
73.75 -0.00064
73.8 -0.00145
73.85 -0.00113
73.9 -0.00112
73.95 -0.00114
74 -0.00132
74.05 -0.00074
74.1 -0.0012
74.15 -0.00124
74.2 -0.00111
74.25 -0.00064
74.3 -0.00041
74.35 -0.001
74.4 -0.0013
74.45 -0.00223
74.5 -0.00346
74.55 -0.00375
74.6 -0.00322
74.65 -0.00284
74.7 -0.00167
74.75 -0.00159
74.8 -0.00167
74.85 -0.00097
74.9 -0.0012
74.95 -0.0015
75 -0.00239
75.05 -0.00348
75.1 -0.00382
75.15 -0.0042
75.2 -0.004
75.25 -0.00383
75.3 -0.00282
75.35 -0.00175
75.4 -0.00094
75.45 0.0004
75.5 0.0004
75.55 0.00062
75.6 0.00123
75.65 0.002
75.7 0.00194
75.75 0.00253
75.8 0.0022
75.85 0.00247
75.9 0.00245
75.95 0.00182
76 0.00128
76.05 0.00126
76.1 0.00152
76.15 0.00218
76.2 0.00287
76.25 0.0025
76.3 0.00195
76.35 0.00215
76.4 0.00283
76.45 0.00278
76.5 0.00174
76.55 0.00156
76.6 0.00143
76.65 0.00141
76.7 0.00179
76.75 0.0014
76.8 0.00071
76.85 0.00082
76.9 0.00127
76.95 0.00098
77 0.00141
77.05 0.00202
77.1 0.00262
77.15 0.00195
77.2 0.00075
77.25 -0.00078
77.3 -0.00209
77.35 -0.00282
77.4 -0.00285
77.45 -0.00301
77.5 -0.00369
77.55 -0.00321
77.6 -0.00247
77.65 -0.00162
77.7 -0.00028
77.75 0.00061
77.8 0.00185
77.85 0.00292
77.9 0.00399
77.95 0.00467
78 0.00486
78.05 0.00365
78.1 0.00217
78.15 0.00126
78.2 0.0008
78.25 0.00057
78.3 -0.00016
78.35 -0.00048
78.4 -0.00125
78.45 -0.00187
78.5 -0.00245
78.55 -0.00297
78.6 -0.00395
78.65 -0.0049
78.7 -0.006
78.75 -0.00693
78.8 -0.00769
78.85 -0.00732
78.9 -0.00634
78.95 -0.00519
79 -0.00399
79.05 -0.00372
79.1 -0.00305
79.15 -0.00224
79.2 -0.0009
79.25 0.00067
79.3 0.00095
79.35 0.00065
79.4 -0.00027
79.45 -0.00001
79.5 0.0001
79.55 -0.00031
79.6 -0.00016
79.65 -0.00051
79.7 -0.00027
79.75 0.00017
79.8 0.00097
79.85 0.00092
79.9 0.00146
79.95 0.00184
80 0.00238
80.05 0.00276
80.1 0.00339
80.15 0.00274
80.2 0.00176
80.25 0.00023
80.3 -0.00128
80.35 -0.00231
80.4 -0.00367
80.45 -0.00385
80.5 -0.00337
80.55 -0.00243
80.6 -0.00105
80.65 0.00015
80.7 0.00133
80.75 0.00137
80.8 0.00133
80.85 0.00138
80.9 0.00123
80.95 0.00177
81 0.00144
81.05 0.00153
81.1 0.00072
81.15 -0.00024
81.2 -0.00118
81.25 -0.00102
81.3 -0.00152
81.35 -0.00203
81.4 -0.00284
81.45 -0.00353
81.5 -0.00416
81.55 -0.00437
81.6 -0.00492
81.65 -0.00516
81.7 -0.00427
81.75 -0.00258
81.8 -0.00058
81.85 0.00069
81.9 0.00148
81.95 0.00182
82 0.00132
82.05 0.00109
82.1 0.0012
82.15 0.00081
82.2 0.00066
82.25 0.00039
82.3 0.00088
82.35 0.00037
82.4 -0.00013
82.45 0.00012
82.5 0.00093
82.55 0.00142
82.6 0.00135
82.65 0.00089
82.7 0.00052
82.75 -0.00026
82.8 -0.00032
82.85 0.00044
82.9 0.00016
82.95 -0.00033
83 -0.00069
83.05 -0.00169
83.1 -0.0024
83.15 -0.00285
83.2 -0.00359
83.25 -0.00337
83.3 -0.00307
83.35 -0.00318
83.4 -0.00383
83.45 -0.00375
83.5 -0.00337
83.55 -0.00284
83.6 -0.00303
83.65 -0.00245
83.7 -0.00175
83.75 -0.00189
83.8 -0.00146
83.85 -0.00083
83.9 -0.00053
83.95 -0.00098
84 -0.00124
84.05 -0.00105
84.1 -0.00126
84.15 -0.00187
84.2 -0.00126
84.25 -0.00127
84.3 -0.00052
84.35 -0.00056
84.4 -0.00033
84.45 0.00005
84.5 0.00112
84.55 0.0015
84.6 0.00093
84.65 -0.00016
84.7 0.00003
84.75 -0.00027
84.8 -0.0006
84.85 -0.00042
84.9 -0.00061
84.95 -0.00094
85 -0.00084
85.05 -0.00009
85.1 -0.0001
85.15 -0.00009
85.2 0.00016
85.25 0.00046
85.3 0.00144
85.35 0.00128
85.4 0.00043
85.45 -0.00088
85.5 -0.00102
85.55 -0.00152
85.6 -0.00169
85.65 -0.00119
85.7 -0.00022
85.75 0.00016
85.8 0.00009
85.85 0.0002
85.9 -0.00022
85.95 0.00012
86 0.0008
86.05 0.00113
86.1 0.00131
86.15 0.00098
86.2 0.00036
86.25 0.00034
86.3 -0.00024
86.35 -0.00052
86.4 -0.00117
86.45 -0.00135
86.5 -0.00084
86.55 -0.00056
86.6 0.00026
86.65 0.00117
86.7 0.00154
86.75 0.00192
86.8 0.00162
86.85 0.00117
86.9 0.00152
86.95 0.0016
87 0.00119
87.05 0.00156
87.1 0.00235
87.15 0.00318
87.2 0.00325
87.25 0.00278
87.3 0.00169
87.35 0.00137
87.4 0.00032
87.45 -0.00093
87.5 -0.00166
87.55 -0.00186
87.6 -0.00131
87.65 -0.00112
87.7 -0.00016
87.75 0.0007
87.8 0.00131
87.85 0.00108
87.9 0.00114
87.95 0.00125
88 0.00073
88.05 0.00077
88.1 0.00065
88.15 0.0013
88.2 0.00087
88.25 0.00011
88.3 -0.00069
88.35 -0.0003
88.4 0.00025
88.45 0.00088
88.5 0.00114
88.55 0.00084
88.6 0.00111
88.65 0.00044
88.7 0.00061
88.75 0.00014
88.8 -0.00063
88.85 -0.00026
88.9 -0.00063
88.95 -0.00148
89 -0.00189
89.05 -0.00128
89.1 -0.00037
89.15 0.00034
89.2 0.00098
89.25 0.00199
89.3 0.00212
89.35 0.00141
89.4 0.0014
89.45 0.00147
89.5 0.00135
89.55 0.00126
89.6 0.00132
89.65 0.00087
89.7 0.00044
89.75 0.00029
89.8 0.00042
89.85 0.00032
89.9 -0.0004
89.95 -0.0013
90 -0.00236
90.05 -0.00311
90.1 -0.00324
90.15 -0.00236
90.2 -0.00198
90.25 -0.00221
90.3 -0.00295
90.35 -0.00382
90.4 -0.0048
90.45 -0.00446
90.5 -0.00463
90.55 -0.00381
90.6 -0.00287
90.65 -0.00235
90.7 -0.00184
90.75 -0.00171
90.8 -0.00173
90.85 -0.001
90.9 -0.00117
90.95 -0.0008
91 0.00021
91.05 0.00155
91.1 0.00221
91.15 0.00266
91.2 0.0023
91.25 0.00218
91.3 0.00226
91.35 0.00243
91.4 0.00275
91.45 0.00355
91.5 0.00346
91.55 0.00363
91.6 0.00279
91.65 0.00219
91.7 0.00138
91.75 0.0008
91.8 0.0003
91.85 -0.00045
91.9 -0.00028
91.95 0.00035
92 0.00066
92.05 0.00034
92.1 -0.00034
92.15 -0.00027
92.2 -0.00062
92.25 -0.0006
92.3 -0.00085
92.35 -0.00138
92.4 -0.00194
92.45 -0.00291
92.5 -0.00264
92.55 -0.00228
92.6 -0.00215
92.65 -0.00124
92.7 -0.00086
92.75 -0.00054
92.8 0.00019
92.85 0.00149
92.9 0.00245
92.95 0.00238
93 0.00172
93.05 0.00116
93.1 0.00101
93.15 0.00054
93.2 0.00068
93.25 0.00112
93.3 0.00147
93.35 0.00223
93.4 0.00287
93.45 0.00376
93.5 0.00423
93.55 0.00345
93.6 0.00321
93.65 0.00271
93.7 0.00275
93.75 0.00302
93.8 0.00308
93.85 0.00324
93.9 0.00384
93.95 0.0031
94 0.00249
94.05 0.00154
94.1 0.00121
94.15 0.0005
94.2 -0.00015
94.25 0.00006
94.3 0.00088
94.35 0.00123
94.4 0.00176
94.45 0.00177
94.5 0.00087
94.55 -0.00036
94.6 -0.00133
94.65 -0.00169
94.7 -0.00252
94.75 -0.00347
94.8 -0.0043
94.85 -0.00448
94.9 -0.00456
94.95 -0.00453
95 -0.00397
95.05 -0.00412
95.1 -0.00402
95.15 -0.00309
95.2 -0.00216
95.25 -0.00108
95.3 0.0003
95.35 0.00092
95.4 0.00105
95.45 0.00024
95.5 -0.00044
95.55 -0.00071
95.6 -0.00064
95.65 -0.00111
95.7 -0.00165
95.75 -0.00208
95.8 -0.00204
95.85 -0.00187
95.9 -0.00109
95.95 -0.00091
96 -0.0009
96.05 -0.00035
96.1 0
96.15 0.00098
96.2 0.00098
96.25 0.0012
96.3 0.00072
96.35 0.00008
96.4 -0.0002
96.45 -0.00047
96.5 -0.00001
96.55 -0.00036
96.6 0.00016
96.65 -0.00001
96.7 -0.00091
96.75 -0.00115
96.8 -0.001
96.85 -0.0012
96.9 -0.00165
96.95 -0.00122
97 -0.00083
97.05 -0.00063
97.1 -0.00092
97.15 -0.00104
97.2 -0.00037
97.25 0.00062
97.3 0.00088
97.35 0.00026
97.4 0.00014
97.45 -0.00016
97.5 -0.00005
97.55 -0.00024
97.6 -0.0001
97.65 -0.00036
97.7 -0.00132
97.75 -0.00116
97.8 -0.00146
97.85 -0.00176
97.9 -0.00183
97.95 -0.00161
98 -0.00115
98.05 -0.00077
98.1 0.0003
98.15 0.00154
98.2 0.00243
98.25 0.0029
98.3 0.00289
98.35 0.00318
98.4 0.00292
98.45 0.00206
98.5 0.00152
98.55 0.00135
98.6 0.0008
98.65 0.00108
98.7 0.00085
98.75 0.00132
98.8 0.00111
98.85 0.00086
98.9 0.00082
98.95 0.00018
99 0.00046
99.05 0.0008
99.1 0.00115
99.15 0.00129
99.2 0.00173
99.25 0.00256
99.3 0.003
99.35 0.00292
99.4 0.00309
99.45 0.00346
99.5 0.0034
99.55 0.00333
99.6 0.00267
99.65 0.00132
99.7 -0.00011
99.75 -0.00149
99.8 -0.00233
99.85 -0.00306
99.9 -0.0034
99.95 -0.00354
