0 0
0.05 0.00134
0.1 0.00284
0.15 0.0043
0.2 0.00582
0.25 0.00674
0.3 0.00824
0.35 0.00974
0.4 0.01105
0.45 0.01145
0.5 0.01119
0.55 0.0114
0.6 0.01125
0.65 0.0104
0.7 0.01021
0.75 0.00986
0.8 0.00964
0.85 0.00942
0.9 0.00875
0.95 0.00816
1 0.00732
1.05 0.00629
1.1 0.00619
1.15 0.00609
1.2 0.00538
1.25 0.00541
1.3 0.00548
1.35 0.00499
1.4 0.00498
1.45 0.00478
1.5 0.00426
1.55 0.00368
1.6 0.00283
1.65 0.0022
1.7 0.0018
1.75 0.00214
1.8 0.00242
1.85 0.00327
1.9 0.00468
1.95 0.00568
2 0.00633
2.05 0.00699
2.1 0.00672
2.15 0.00699
2.2 0.00719
2.25 0.00747
2.3 0.00802
2.35 0.00793
2.4 0.00733
2.45 0.00604
2.5 0.00548
2.55 0.00433
2.6 0.00439
2.65 0.00518
2.7 0.00503
2.75 0.00479
2.8 0.0042
2.85 0.00375
2.9 0.00311
2.95 0.0027
3 0.00287
3.05 0.00245
3.1 0.00286
3.15 0.00353
3.2 0.00475
3.25 0.00551
3.3 0.00635
3.35 0.00618
3.4 0.00535
3.45 0.0047
3.5 0.00455
3.55 0.00468
3.6 0.00445
3.65 0.00371
3.7 0.00243
3.75 0.00092
3.8 0.00034
3.85 -0.00001
3.9 0.00073
3.95 0.00162
4 0.00207
4.05 0.00191
4.1 0.00165
4.15 0.00085
4.2 -0.00021
4.25 -0.00083
4.3 -0.00087
4.35 -0.001
4.4 -0.00106
4.45 -0.00032
4.5 -0.00017
4.55 0.00037
4.6 0.00098
4.65 0.00214
4.7 0.00295
4.75 0.00345
4.8 0.00358
4.85 0.00313
4.9 0.00355
4.95 0.00304
5 0.00201
5.05 0.00171
5.1 0.00202
5.15 0.00303
5.2 0.00437
5.25 0.00482
5.3 0.00545
5.35 0.00637
5.4 0.00654
5.45 0.00643
5.5 0.00659
5.55 0.0068
5.6 0.00698
5.65 0.00677
5.7 0.00657
5.75 0.00619
5.8 0.00515
5.85 0.00417
5.9 0.00383
5.95 0.00392
6 0.0033
6.05 0.00241
6.1 0.00216
6.15 0.00234
6.2 0.00238
6.25 0.00282
6.3 0.00223
6.35 0.0018
6.4 0.0011
6.45 0.00039
6.5 0.00036
6.55 -0.00015
6.6 -0.00095
6.65 -0.00153
6.7 -0.00179
6.75 -0.00156
6.8 -0.00187
6.85 -0.00115
6.9 -0.00032
6.95 0.00104
7 0.00208
7.05 0.00286
7.1 0.00249
7.15 0.00197
7.2 0.00139
7.25 0.00073
7.3 0.00079
7.35 0.00143
7.4 0.00221
7.45 0.00321
7.5 0.00417
7.55 0.00446
7.6 0.00387
7.65 0.00305
7.7 0.00271
7.75 0.00252
7.8 0.00298
7.85 0.00374
7.9 0.0039
7.95 0.0031
8 0.00224
8.05 0.00096
8.1 -0.00052
8.15 -0.00206
8.2 -0.0029
8.25 -0.00344
8.3 -0.00376
8.35 -0.00368
8.4 -0.00382
8.45 -0.00338
8.5 -0.00277
8.55 -0.00236
8.6 -0.00249
8.65 -0.00284
8.7 -0.00233
8.75 -0.00144
8.8 -0.00082
8.85 -0.00056
8.9 -0.00065
8.95 -0.00129
9 -0.00143
9.05 -0.00078
9.1 0.00034
9.15 0.00077
9.2 0.00159
9.25 0.00167
9.3 0.00145
9.35 0.00122
9.4 0.00137
9.45 0.00211
9.5 0.0028
9.55 0.00309
9.6 0.00371
9.65 0.00311
9.7 0.0033
9.75 0.00371
9.8 0.00292
9.85 0.00142
9.9 -0.00021
9.95 -0.00143
10 -0.00144
10.05 -0.00086
10.1 -0.00094
10.15 -0.00109
10.2 -0.00055
10.25 0.00055
10.3 0.00143
10.35 0.00235
10.4 0.00256
10.45 0.00306
10.5 0.00277
10.55 0.00159
10.6 0.0014
10.65 0.00188
10.7 0.00198
10.75 0.00123
10.8 0.00007
10.85 -0.00073
10.9 -0.001
10.95 -0.00121
11 -0.00198
11.05 -0.00178
11.1 -0.00111
11.15 -0.00057
11.2 -0.00013
11.25 0.00084
11.3 0.00121
11.35 0.00211
11.4 0.00315
11.45 0.00371
11.5 0.00343
11.55 0.0028
11.6 0.00139
11.65 0.00049
11.7 -0.00043
11.75 -0.00031
11.8 -0.00102
11.85 -0.00106
11.9 -0.00131
11.95 -0.00074
12 -0.00063
12.05 -0.00058
12.1 -0.00105
12.15 -0.00073
12.2 -0.00069
12.25 -0.00011
12.3 0.00038
12.35 0.00067
12.4 0.00019
12.45 -0.00002
12.5 -0.00074
12.55 -0.00048
12.6 0.00028
12.65 0.00041
12.7 0.00117
12.75 0.00131
12.8 0.00159
12.85 0.00172
12.9 0.00097
12.95 0.00105
13 0.00146
13.05 0.00148
13.1 0.00145
13.15 0.00183
13.2 0.00202
13.25 0.00152
13.3 0.00123
13.35 0.00125
13.4 0.00036
13.45 -0.00004
13.5 -0.00019
13.55 0.00031
13.6 0.00019
13.65 -0.00051
13.7 -0.00049
13.75 0.00014
13.8 0.00076
13.85 0.0006
13.9 0.00074
13.95 0.00054
14 0.00056
14.05 -0.00014
14.1 -0.00136
14.15 -0.00201
14.2 -0.00305
14.25 -0.00311
14.3 -0.00253
14.35 -0.00275
14.4 -0.00273
14.45 -0.00253
14.5 -0.00252
14.55 -0.00233
14.6 -0.00177
14.65 -0.00086
14.7 0.00036
14.75 0.00032
14.8 -0.00027
14.85 -0.00038
14.9 -0.00021
14.95 0.00022
15 0.00041
15.05 0.00063
15.1 0.00063
15.15 0.00002
15.2 0.0002
15.25 0.00066
15.3 0.00127
15.35 0.00231
15.4 0.00236
15.45 0.00185
15.5 0.00143
15.55 0.00079
15.6 -0.0001
15.65 -0.00023
15.7 -0.00066
15.75 -0.0017
15.8 -0.00284
15.85 -0.00383
15.9 -0.00433
15.95 -0.00419
16 -0.00323
16.05 -0.00161
16.1 -0.00009
16.15 0.00152
16.2 0.00281
16.25 0.00343
16.3 0.00365
16.35 0.00362
16.4 0.00352
16.45 0.00262
16.5 0.00147
16.55 0.00091
16.6 0.00017
16.65 0.00034
16.7 0.00076
16.75 0.00108
16.8 0.00092
16.85 0.00061
16.9 -0.00027
16.95 -0.00023
17 0.00017
17.05 -0.00022
17.1 -0.00006
17.15 0.00043
17.2 0.0007
17.25 0.00139
17.3 0.00219
17.35 0.00244
17.4 0.00196
17.45 0.00199
17.5 0.00126
17.55 0.00108
17.6 0.00048
17.65 -0.00049
17.7 -0.00066
17.75 -0.00055
17.8 -0.00001
17.85 0.00044
17.9 0.00131
17.95 0.00101
18 0.00135
18.05 0.00176
18.1 0.00155
18.15 0.00091
18.2 0.00055
18.25 0.00016
18.3 0.0002
18.35 0.0008
18.4 0.00139
18.45 0.0021
18.5 0.00207
18.55 0.00251
18.6 0.00301
18.65 0.00303
18.7 0.0035
18.75 0.00373
18.8 0.00351
18.85 0.00378
18.9 0.00386
18.95 0.00276
19 0.00131
19.05 0.00012
19.1 -0.00049
19.15 -0.00148
19.2 -0.00179
19.25 -0.00142
19.3 -0.00171
19.35 -0.00122
19.4 -0.00095
19.45 -0.00127
19.5 -0.00137
19.55 -0.00141
19.6 -0.00197
19.65 -0.003
19.7 -0.00389
19.75 -0.00497
19.8 -0.00599
19.85 -0.00584
19.9 -0.00577
19.95 -0.00579
20 -0.00594
20.05 -0.00497
20.1 -0.0043
20.15 -0.00418
20.2 -0.00405
20.25 -0.00289
20.3 -0.00237
20.35 -0.00201
20.4 -0.00151
20.45 -0.00035
20.5 0.00054
20.55 0.00099
20.6 0.00042
20.65 -0.00011
20.7 -0.00057
20.75 -0.00142
20.8 -0.00229
20.85 -0.00217
20.9 -0.00183
20.95 -0.00198
21 -0.00252
21.05 -0.00259
21.1 -0.00222
21.15 -0.00178
21.2 -0.00202
21.25 -0.00231
21.3 -0.00263
21.35 -0.00232
21.4 -0.00228
21.45 -0.0022
21.5 -0.00159
21.55 -0.00064
21.6 0.00035
21.65 0.00089
21.7 0.00152
21.75 0.00123
21.8 0.00115
21.85 0.00039
21.9 -0.00053
21.95 -0.00036
22 -0.00058
22.05 0.00013
22.1 0.00039
22.15 0.00016
22.2 -0.00023
22.25 -0.00019
22.3 0.00029
22.35 0.00039
22.4 0.00094
22.45 0.00082
22.5 0.00096
22.55 0.00036
22.6 0.00029
22.65 0.00053
22.7 0.00112
22.75 0.00135
22.8 0.00168
22.85 0.00247
22.9 0.00318
22.95 0.00261
23 0.00249
23.05 0.00146
23.1 0.00135
23.15 0.00047
23.2 -0.00053
23.25 -0.00068
23.3 -0.00018
23.35 -0.00064
23.4 -0.00158
23.45 -0.00278
23.5 -0.00336
23.55 -0.00282
23.6 -0.00201
23.65 -0.00177
23.7 -0.0019
23.75 -0.0011
23.8 -0.00041
23.85 -0.00061
23.9 0.00003
23.95 0.00052
24 0.00092
24.05 0.0016
24.1 0.0019
24.15 0.0019
24.2 0.001
24.25 0.00083
24.3 0.00107
24.35 0.00043
24.4 0.00073
24.45 0.00118
24.5 0.00166
24.55 0.00216
24.6 0.00283
24.65 0.00231
24.7 0.00166
24.75 0.00065
24.8 0.00023
24.85 -0.00008
24.9 -0.00059
24.95 -0.00057
25 -0.00128
25.05 -0.00195
25.1 -0.00297
25.15 -0.00305
25.2 -0.00245
25.25 -0.00214
25.3 -0.00139
25.35 -0.00077
25.4 0.00029
25.45 0.00042
25.5 0.00037
25.55 -0.00017
25.6 -0.00008
25.65 -0.00069
25.7 -0.00045
25.75 -0.00007
25.8 -0.00025
25.85 -0.0003
25.9 0.0003
25.95 0.00146
26 0.00156
26.05 0.00219
26.1 0.00253
26.15 0.00224
26.2 0.00108
26.25 0.001
26.3 0.00133
26.35 0.00113
26.4 0.00058
26.45 0.00042
26.5 -0.00006
26.55 -0.00113
26.6 -0.00118
26.65 -0.00065
26.7 -0.00103
26.75 -0.00063
26.8 -0.00052
26.85 -0.00041
26.9 -0.00059
26.95 -0.00097
27 -0.00071
27.05 0.00005
27.1 0.00074
27.15 0.00034
27.2 0.0003
27.25 0.00015
27.3 -0.00061
27.35 -0.00028
27.4 -0.00013
27.45 0.00014
27.5 -0.00036
27.55 0.00012
27.6 -0.00011
27.65 -0.00076
27.7 -0.00109
27.75 -0.00057
27.8 -0.00058
27.85 -0.00001
27.9 0.00062
27.95 0.00084
28 0.00095
28.05 0.00041
28.1 0.00062
28.15 -0.00007
28.2 -0.001
28.25 -0.00214
28.3 -0.00342
28.35 -0.00383
28.4 -0.00446
28.45 -0.00429
28.5 -0.00451
28.55 -0.00354
28.6 -0.00254
28.65 -0.00171
28.7 -0.00082
28.75 -0.00071
28.8 -0.00127
28.85 -0.00228
28.9 -0.00321
28.95 -0.00276
29 -0.00166
29.05 -0.00021
29.1 0.00019
29.15 0.0012
29.2 0.00255
29.25 0.00246
29.3 0.00221
29.35 0.00187
29.4 0.00115
29.45 0.00139
29.5 0.00123
29.55 0.00099
29.6 0.00135
29.65 0.00142
29.7 0.00159
29.75 0.00117
29.8 0.0012
29.85 0.00044
29.9 -0.00086
29.95 -0.00133
30 -0.00182
30.05 -0.00168
30.1 -0.00139
30.15 -0.00089
30.2 -0.00075
30.25 -0.00082
30.3 -0.00106
30.35 -0.00038
30.4 0.00039
30.45 0.00154
30.5 0.00275
30.55 0.00405
30.6 0.00494
30.65 0.00474
30.7 0.00486
30.75 0.0047
30.8 0.00449
30.85 0.0033
30.9 0.00298
30.95 0.00176
31 0.00143
31.05 0.00186
31.1 0.00197
31.15 0.00209
31.2 0.00273
31.25 0.00244
31.3 0.0023
31.35 0.00204
31.4 0.0023
31.45 0.00215
31.5 0.00132
31.55 0.00086
31.6 -0.00027
31.65 -0.00094
31.7 -0.00057
31.75 -0.00016
31.8 -0.00045
31.85 -0.00117
31.9 -0.00103
31.95 -0.00034
32 -0.00061
32.05 -0.0003
32.1 -0.00048
32.15 -0.00011
32.2 -0.00042
32.25 -0.00065
32.3 -0.00145
32.35 -0.00248
32.4 -0.00286
32.45 -0.00302
32.5 -0.00266
32.55 -0.00202
32.6 -0.00075
32.65 0.00081
32.7 0.00102
32.75 0.00025
32.8 -0.00061
32.85 -0.00078
32.9 -0.00065
32.95 -0.0013
33 -0.00088
33.05 -0.00113
33.1 -0.00121
33.15 -0.00188
33.2 -0.00209
33.25 -0.00151
33.3 -0.00037
33.35 -0.00024
33.4 -0.00015
33.45 0.0007
33.5 0.00048
33.55 0.00047
33.6 0.00065
33.65 0.00077
33.7 0.00106
33.75 0.00065
33.8 0.00043
33.85 0.00009
33.9 -0.00063
33.95 -0.00164
34 -0.00215
34.05 -0.00305
34.1 -0.00303
34.15 -0.00227
34.2 -0.00185
34.25 -0.00084
34.3 0.00007
34.35 0.00001
34.4 0.00005
34.45 -0.00072
34.5 -0.00184
34.55 -0.00277
34.6 -0.00316
34.65 -0.00344
34.7 -0.00399
34.75 -0.00446
34.8 -0.00486
34.85 -0.00524
34.9 -0.00468
34.95 -0.00439
35 -0.0035
35.05 -0.00302
35.1 -0.00227
35.15 -0.00123
35.2 0.00034
35.25 0.00114
35.3 0.00148
35.35 0.00189
35.4 0.00234
35.45 0.00186
35.5 0.00177
35.55 0.00234
35.6 0.00265
35.65 0.00299
35.7 0.00377
35.75 0.00352
35.8 0.00266
35.85 0.00182
35.9 0.00153
35.95 0.00079
36 0.00067
36.05 0.00089
36.1 0.00049
36.15 0.0006
36.2 0.00104
36.25 0.00202
36.3 0.00171
36.35 0.00193
36.4 0.00255
36.45 0.00269
36.5 0.00259
36.55 0.00157
36.6 0.00004
36.65 -0.0016
36.7 -0.0022
36.75 -0.00166
36.8 -0.00149
36.85 -0.00054
36.9 -0.00029
36.95 0
37 0.00079
37.05 0.00049
37.1 0.00001
37.15 -0.00087
37.2 -0.00081
37.25 -0.00141
37.3 -0.00158
37.35 -0.00153
37.4 -0.00124
37.45 -0.00174
37.5 -0.00149
37.55 -0.00116
37.6 -0.00096
37.65 -0.00036
37.7 0.00044
37.75 0.001
37.8 0.0017
37.85 0.00261
37.9 0.0029
37.95 0.00274
38 0.00245
38.05 0.00269
38.1 0.00279
38.15 0.00275
38.2 0.00311
38.25 0.00243
38.3 0.00224
38.35 0.00202
38.4 0.00172
38.45 0.00058
38.5 0.00035
38.55 0.0001
38.6 -0.00009
38.65 -0.00038
38.7 0.00018
38.75 -0.00009
38.8 -0.00006
38.85 0.00057
38.9 0.00111
38.95 0.00138
39 0.00214
39.05 0.00284
39.1 0.00355
39.15 0.004
39.2 0.00468
39.25 0.00476
39.3 0.00512
39.35 0.00462
39.4 0.00338
39.45 0.002
39.5 0.00143
39.55 0.00079
39.6 0.00048
39.65 0.00025
39.7 0.00025
39.75 -0.0004
39.8 -0.00154
39.85 -0.00296
39.9 -0.00445
39.95 -0.00559
40 -0.00669
40.05 -0.00752
40.1 -0.00742
40.15 -0.00643
40.2 -0.00496
40.25 -0.00311
40.3 -0.00207
40.35 -0.0015
40.4 -0.00052
40.45 0.00051
40.5 0.00125
40.55 0.00186
40.6 0.0022
40.65 0.00188
40.7 0.00084
40.75 0.00053
40.8 0.00017
40.85 -0.00008
40.9 -0.00065
40.95 -0.00076
41 -0.00012
41.05 0.00066
41.1 0.00109
41.15 0.00046
41.2 0.00007
41.25 0.00033
41.3 0.00052
41.35 0.00074
41.4 0.00078
41.45 0.00137
41.5 0.001
41.55 0.00051
41.6 -0.00049
41.65 -0.00108
41.7 -0.00175
41.75 -0.00244
41.8 -0.00293
41.85 -0.00342
41.9 -0.00402
41.95 -0.00437
42 -0.0044
42.05 -0.00376
42.1 -0.00336
42.15 -0.00283
42.2 -0.00217
42.25 -0.00203
42.3 -0.0024
42.35 -0.00309
42.4 -0.00354
42.45 -0.00356
42.5 -0.00317
42.55 -0.00326
42.6 -0.00329
42.65 -0.00231
42.7 -0.00151
42.75 -0.00049
42.8 0.0002
42.85 0.00113
42.9 0.00135
42.95 0.00139
43 0.0007
43.05 0.00013
43.1 -0.0002
43.15 -0.00048
43.2 -0.00036
43.25 -0
43.3 -0.00047
43.35 -0.00028
43.4 -0.00055
43.45 -0.00122
43.5 -0.0023
43.55 -0.00318
43.6 -0.00346
43.65 -0.00344
43.7 -0.00269
43.75 -0.00162
43.8 -0.00087
43.85 -0.0008
43.9 -0.00034
43.95 0.00025
44 0.00128
44.05 0.00212
44.1 0.00234
44.15 0.00222
44.2 0.00189
44.25 0.00084
44.3 -0.00002
44.35 -0.00003
44.4 -0.0006
44.45 -0.0003
44.5 -0.00041
44.55 -0.00019
44.6 0.00079
44.65 0.00147
44.7 0.00191
44.75 0.00279
44.8 0.00335
44.85 0.00321
44.9 0.00243
44.95 0.00236
45 0.00212
45.05 0.00234
45.1 0.00213
45.15 0.00216
45.2 0.00166
45.25 0.00134
45.3 0.00143
45.35 0.0009
45.4 0.00122
45.45 0.00069
45.5 0.00077
45.55 0.00096
45.6 0.00106
45.65 0.00155
45.7 0.00246
45.75 0.0023
45.8 0.00246
45.85 0.00244
45.9 0.00141
45.95 0.00056
46 -0.00021
46.05 -0.00035
46.1 -0.00029
46.15 0.00041
46.2 0.00129
46.25 0.00138
46.3 0.00113
46.35 0.00068
46.4 0.0003
46.45 0.00061
46.5 0.00056
46.55 0.00107
46.6 0.00122
46.65 0.00078
46.7 -0.00035
46.75 -0.00078
46.8 -0.00079
46.85 -0.00111
46.9 -0.0018
46.95 -0.002
47 -0.00257
47.05 -0.00243
47.1 -0.00161
47.15 -0.00129
47.2 -0.00099
47.25 -0.00048
47.3 -0.00007
47.35 -0.00055
47.4 -0.00013
47.45 0.00026
47.5 0.00053
47.55 0.00062
47.6 0.00044
47.65 0.00054
47.7 0.00109
47.75 0.00091
47.8 0.00066
47.85 0.00107
47.9 0.00136
47.95 0.00108
48 0.00044
48.05 0.00036
48.1 0.00011
48.15 -0.00003
48.2 -0.00008
48.25 0.00035
48.3 0.0012
48.35 0.00204
48.4 0.00235
48.45 0.00152
48.5 0.00018
48.55 -0.00047
48.6 -0.00091
48.65 -0.00185
48.7 -0.00294
48.75 -0.00268
48.8 -0.00188
48.85 -0.00148
48.9 -0.00179
48.95 -0.00216
49 -0.00157
49.05 -0.00134
49.1 -0.00096
49.15 -0.00124
49.2 -0.00107
49.25 -0.00031
49.3 -0.00045
49.35 0.00008
49.4 -0.00039
49.45 -0.00124
49.5 -0.00196
49.55 -0.003
49.6 -0.00385
49.65 -0.00479
49.7 -0.00481
49.75 -0.00515
49.8 -0.00508
49.85 -0.00455
49.9 -0.00352
49.95 -0.00228
50 -0.00073
50.05 0.00049
50.1 0.00137
50.15 0.0018
50.2 0.00206
50.25 0.00255
50.3 0.00274
50.35 0.00222
50.4 0.0014
50.45 0.00083
50.5 -0.00012
50.55 -0.00064
50.6 -0.00143
50.65 -0.00256
50.7 -0.00365
50.75 -0.00444
50.8 -0.00425
50.85 -0.00432
50.9 -0.00471
50.95 -0.00388
51 -0.00265
51.05 -0.00086
51.1 0.00083
51.15 0.00217
51.2 0.00307
51.25 0.00415
51.3 0.00417
51.35 0.00394
51.4 0.00348
51.45 0.00291
51.5 0.00228
51.55 0.00234
51.6 0.00276
51.65 0.00293
51.7 0.00247
51.75 0.00178
51.8 0.00165
51.85 0.00079
51.9 0.00044
51.95 0.00048
52 0.00034
52.05 -0.00005
52.1 -0.00101
52.15 -0.00151
52.2 -0.00155
52.25 -0.00098
52.3 -0.00011
52.35 0.00054
52.4 0.0011
52.45 0.00202
52.5 0.00228
52.55 0.00147
52.6 0.00093
52.65 0.00007
52.7 -0.00025
52.75 -0.00089
52.8 -0.00082
52.85 -0.00081
52.9 -0.0007
52.95 -0.00043
53 0.00015
53.05 0.00049
53.1 0.00085
53.15 0.00156
53.2 0.0014
53.25 0.00161
53.3 0.00201
53.35 0.00198
53.4 0.00154
53.45 0.0009
53.5 0.00097
53.55 0.00106
53.6 0.00108
53.65 0.00151
53.7 0.00108
53.75 0.00071
53.8 0.00101
53.85 0.00034
53.9 -0.00029
53.95 -0.00089
54 -0.00143
54.05 -0.00194
54.1 -0.00172
54.15 -0.00133
54.2 -0.00038
54.25 0.001
54.3 0.00113
54.35 0.00188
54.4 0.00194
54.45 0.00152
54.5 0.00067
54.55 0.00082
54.6 0.00083
54.65 0.00151
54.7 0.00245
54.75 0.00359
54.8 0.0044
54.85 0.00385
54.9 0.00318
54.95 0.00178
55 0.00096
55.05 0.00079
55.1 0.00105
55.15 0.0003
55.2 -0.00095
55.25 -0.00146
55.3 -0.00153
55.35 -0.0012
55.4 -0.00153
55.45 -0.00247
55.5 -0.00224
55.55 -0.00203
55.6 -0.00145
55.65 -0.00044
55.7 -0.00007
55.75 0.00067
55.8 0.00062
55.85 0.0007
55.9 0.00118
55.95 0.00106
56 0.00019
56.05 -0.00037
56.1 -0.00108
56.15 -0.00081
56.2 -0.00004
56.25 -0.00021
56.3 -0.00097
56.35 -0.0017
56.4 -0.00221
56.45 -0.0022
56.5 -0.00142
56.55 -0.00159
56.6 -0.00117
56.65 -0.00089
56.7 -0.00101
56.75 -0.00169
56.8 -0.00183
56.85 -0.00119
56.9 -0.00113
56.95 -0.00048
57 0.00027
57.05 0.00063
57.1 0.00036
57.15 -0.00063
57.2 -0.00065
57.25 -0.00024
57.3 -0.00015
57.35 -0.00016
57.4 -0.00002
57.45 0.00031
57.5 0.00031
57.55 0.00031
57.6 0.00003
57.65 -0.00011
57.7 -0.00073
57.75 -0.00145
57.8 -0.0011
57.85 -0.00109
57.9 -0.00113
57.95 -0.00158
58 -0.00233
58.05 -0.00202
58.1 -0.0015
58.15 -0.00126
58.2 -0.00161
58.25 -0.00176
58.3 -0.00235
58.35 -0.00248
58.4 -0.00254
58.45 -0.003
58.5 -0.00288
58.55 -0.00287
58.6 -0.00304
58.65 -0.00232
58.7 -0.00141
58.75 -0.00109
58.8 -0.00119
58.85 -0.00164
58.9 -0.00176
58.95 -0.00189
59 -0.00148
59.05 -0.00114
59.1 -0.00018
59.15 -0.00033
59.2 -0.00057
59.25 -0.00114
59.3 -0.0011
59.35 -0.00144
59.4 -0.00108
59.45 -0.00016
59.5 0.00062
59.55 0.00062
59.6 0.00063
59.65 0.00052
59.7 -0.00033
59.75 -0.0016
59.8 -0.00191
59.85 -0.002
59.9 -0.00217
59.95 -0.00203
60 -0.00102
60.05 0.00037
60.1 0.00116
60.15 0.00118
60.2 0.00046
60.25 -0.00006
60.3 -0.00055
60.35 -0.00034
60.4 -0.00021
60.45 -0.00031
60.5 -0.00053
60.55 -0.00046
60.6 0.00007
60.65 0.00016
60.7 0.00059
60.75 0.00113
60.8 0.00137
60.85 0.00172
60.9 0.00244
60.95 0.0034
61 0.00317
61.05 0.00312
61.1 0.00357
61.15 0.00361
61.2 0.0029
61.25 0.00261
61.3 0.00203
61.35 0.00115
61.4 -0.00005
61.45 -0.00116
61.5 -0.00143
61.55 -0.00118
61.6 -0.00169
61.65 -0.00206
61.7 -0.00245
61.75 -0.00327
61.8 -0.00295
61.85 -0.0032
61.9 -0.00347
61.95 -0.00314
62 -0.00269
62.05 -0.00139
62.1 -0.00019
62.15 0.001
62.2 0.00139
62.25 0.0023
62.3 0.00314
62.35 0.00378
62.4 0.00414
62.45 0.00448
62.5 0.00433
62.55 0.00454
62.6 0.00493
62.65 0.00532
62.7 0.00578
62.75 0.00528
62.8 0.0052
62.85 0.00416
62.9 0.00297
62.95 0.0026
63 0.00205
63.05 0.00082
63.1 0.00011
63.15 -0.00048
63.2 -0.00028
63.25 -0.00077
63.3 -0.00121
63.35 -0.00069
63.4 -0.00083
63.45 -0.00069
63.5 0.00009
63.55 0.00017
63.6 -0.00027
63.65 0.00006
63.7 -0.00008
63.75 -0.00036
63.8 -0.00064
63.85 -0.00005
63.9 0.00069
63.95 0.00093
64 0.00088
64.05 0.00057
64.1 0.00003
64.15 -0.00098
64.2 -0.00177
64.25 -0.0021
64.3 -0.00194
64.35 -0.00167
64.4 -0.00138
64.45 -0.00139
64.5 -0.00192
64.55 -0.0028
64.6 -0.00291
64.65 -0.00286
64.7 -0.00217
64.75 -0.00147
64.8 -0.00091
64.85 -0.00074
64.9 -0.00005
64.95 0.00014
65 -0.00049
65.05 -0.00099
65.1 -0.00201
65.15 -0.00309
65.2 -0.0038
65.25 -0.00457
65.3 -0.00546
65.35 -0.00479
65.4 -0.00457
65.45 -0.00364
65.5 -0.00226
65.55 -0.00126
65.6 0.00008
65.65 0.00057
65.7 0.00005
65.75 -0.00027
65.8 -0.00129
65.85 -0.0028
65.9 -0.00324
65.95 -0.00321
66 -0.00384
66.05 -0.00442
66.1 -0.00456
66.15 -0.00477
66.2 -0.00527
66.25 -0.00614
66.3 -0.00774
66.35 -0.00957
66.4 -0.0123
66.45 -0.01658
66.5 -0.02079
66.55 -0.02576
66.6 -0.03096
66.65 -0.03757
66.7 -0.04454
66.75 -0.0533
66.8 -0.06348
66.85 -0.07341
66.9 -0.08391
66.95 -0.09545
67 -0.10774
67.05 -0.12163
67.1 -0.1375
67.15 -0.15524
67.2 -0.17343
67.25 -0.1935
67.3 -0.21494
67.35 -0.23733
67.4 -0.25981
67.45 -0.28285
67.5 -0.30694
67.55 -0.33072
67.6 -0.35445
67.65 -0.37896
67.7 -0.40218
67.75 -0.42439
67.8 -0.446
67.85 -0.46645
67.9 -0.48441
67.95 -0.50019
68 -0.51394
68.05 -0.52513
68.1 -0.53241
68.15 -0.53617
68.2 -0.53665
68.25 -0.53202
68.3 -0.52305
68.35 -0.51094
68.4 -0.49469
68.45 -0.4745
68.5 -0.44979
68.55 -0.42146
68.6 -0.38956
68.65 -0.35433
68.7 -0.31769
68.75 -0.27882
68.8 -0.23751
68.85 -0.19446
68.9 -0.15045
68.95 -0.10605
69 -0.06149
69.05 -0.01731
69.1 0.02627
69.15 0.06922
69.2 0.11012
69.25 0.14917
69.3 0.18623
69.35 0.22164
69.4 0.25455
69.45 0.28491
69.5 0.31274
69.55 0.33639
69.6 0.35657
69.65 0.37457
69.7 0.38931
69.75 0.40136
69.8 0.41115
69.85 0.41888
69.9 0.42548
69.95 0.43064
70 0.43319
70.05 0.43326
70.1 0.43159
70.15 0.42931
70.2 0.42568
70.25 0.42048
70.3 0.41491
70.35 0.40871
70.4 0.40162
70.45 0.39434
70.5 0.38701
70.55 0.37953
70.6 0.372
70.65 0.36458
70.7 0.35755
70.75 0.34995
70.8 0.34289
70.85 0.33603
70.9 0.32872
70.95 0.32217
71 0.31588
71.05 0.3096
71.1 0.30252
71.15 0.29595
71.2 0.28851
71.25 0.28104
71.3 0.27435
71.35 0.26732
71.4 0.2597
71.45 0.25175
71.5 0.24519
71.55 0.23932
71.6 0.23258
71.65 0.22649
71.7 0.2207
71.75 0.21422
71.8 0.20745
71.85 0.20019
71.9 0.1937
71.95 0.18776
72 0.18225
72.05 0.17719
72.1 0.17178
72.15 0.16563
72.2 0.15981
72.25 0.15363
72.3 0.14813
72.35 0.14212
72.4 0.13511
72.45 0.12889
72.5 0.12315
72.55 0.11691
72.6 0.11057
72.65 0.10377
72.7 0.09731
72.75 0.09133
72.8 0.0847
72.85 0.07808
72.9 0.07138
72.95 0.06588
73 0.06046
73.05 0.056
73.1 0.05205
73.15 0.04814
73.2 0.0442
73.25 0.03894
73.3 0.03426
73.35 0.0295
73.4 0.02519
73.45 0.02077
73.5 0.01614
73.55 0.01218
73.6 0.0072
73.65 0.00216
73.7 -0.00325
73.75 -0.00845
73.8 -0.01272
73.85 -0.01702
73.9 -0.02153
73.95 -0.02524
74 -0.02866
74.05 -0.03113
74.1 -0.03386
74.15 -0.0367
74.2 -0.03962
74.25 -0.04132
74.3 -0.04264
74.35 -0.04408
74.4 -0.04635
74.45 -0.04852
74.5 -0.05009
74.55 -0.05179
74.6 -0.05388
74.65 -0.05541
74.7 -0.05639
74.75 -0.05675
74.8 -0.05686
74.85 -0.05751
74.9 -0.05756
74.95 -0.05848
75 -0.06001
75.05 -0.06079
75.1 -0.0614
75.15 -0.06164
75.2 -0.06145
75.25 -0.06103
75.3 -0.06162
75.35 -0.06224
75.4 -0.06179
75.45 -0.06211
75.5 -0.06174
75.55 -0.06137
75.6 -0.06031
75.65 -0.05932
75.7 -0.05816
75.75 -0.05769
75.8 -0.05781
75.85 -0.0586
75.9 -0.05921
75.95 -0.05856
76 -0.05794
76.05 -0.05684
76.1 -0.05624
76.15 -0.05588
76.2 -0.05605
76.25 -0.05659
76.3 -0.0568
76.35 -0.05656
76.4 -0.05657
76.45 -0.05531
76.5 -0.05341
76.55 -0.0521
76.6 -0.05082
76.65 -0.04902
76.7 -0.04738
76.75 -0.04626
76.8 -0.04577
76.85 -0.04473
76.9 -0.04414
76.95 -0.0434
77 -0.04245
77.05 -0.0412
77.1 -0.04069
77.15 -0.04107
77.2 -0.04168
77.25 -0.04181
77.3 -0.04115
77.35 -0.04113
77.4 -0.0414
77.45 -0.04076
77.5 -0.04032
77.55 -0.03979
77.6 -0.03982
77.65 -0.03861
77.7 -0.03707
77.75 -0.03511
77.8 -0.03436
77.85 -0.03439
77.9 -0.03436
77.95 -0.03333
78 -0.03224
78.05 -0.03106
78.1 -0.03097
78.15 -0.03094
78.2 -0.02992
78.25 -0.02933
78.3 -0.02909
78.35 -0.02956
78.4 -0.02997
78.45 -0.02971
78.5 -0.02957
78.55 -0.02984
78.6 -0.02903
78.65 -0.02808
78.7 -0.02703
78.75 -0.02629
78.8 -0.025
78.85 -0.02376
78.9 -0.02333
78.95 -0.02265
79 -0.02213
79.05 -0.02107
79.1 -0.02
79.15 -0.01944
79.2 -0.01967
79.25 -0.02012
79.3 -0.01987
79.35 -0.01937
79.4 -0.01846
79.45 -0.01861
79.5 -0.0193
79.55 -0.01892
79.6 -0.01812
79.65 -0.01787
79.7 -0.01744
79.75 -0.01684
79.8 -0.01726
79.85 -0.01677
79.9 -0.0157
79.95 -0.01577
80 -0.0156
80.05 -0.01504
80.1 -0.01434
80.15 -0.01469
80.2 -0.01543
80.25 -0.01595
80.3 -0.01576
80.35 -0.01516
80.4 -0.01415
80.45 -0.01339
80.5 -0.01284
80.55 -0.01286
80.6 -0.01246
80.65 -0.01161
80.7 -0.01167
80.75 -0.01168
80.8 -0.0115
80.85 -0.0122
80.9 -0.01253
80.95 -0.0123
81 -0.01228
81.05 -0.01149
81.1 -0.01063
81.15 -0.01033
81.2 -0.01102
81.25 -0.0108
81.3 -0.0114
81.35 -0.01122
81.4 -0.01044
81.45 -0.00993
81.5 -0.01001
81.55 -0.0105
81.6 -0.01121
81.65 -0.01186
81.7 -0.01276
81.75 -0.01244
81.8 -0.01155
81.85 -0.01121
81.9 -0.01055
81.95 -0.0096
82 -0.0096
82.05 -0.01028
82.1 -0.01107
82.15 -0.01115
82.2 -0.01108
82.25 -0.01072
82.3 -0.00985
82.35 -0.00984
82.4 -0.01017
82.45 -0.00978
82.5 -0.00885
82.55 -0.00883
82.6 -0.00921
82.65 -0.00886
82.7 -0.00921
82.75 -0.00922
82.8 -0.00828
82.85 -0.00758
82.9 -0.00692
82.95 -0.00714
83 -0.00685
83.05 -0.0065
83.1 -0.00613
83.15 -0.00526
83.2 -0.0047
83.25 -0.00397
83.3 -0.00389
83.35 -0.00359
83.4 -0.00421
83.45 -0.00495
83.5 -0.00576
83.55 -0.00682
83.6 -0.00724
83.65 -0.00764
83.7 -0.00834
83.75 -0.0093
83.8 -0.00909
83.85 -0.00913
83.9 -0.00918
83.95 -0.00862
84 -0.0087
84.05 -0.00813
84.1 -0.00789
84.15 -0.00747
84.2 -0.00705
84.25 -0.00623
84.3 -0.00478
84.35 -0.0042
84.4 -0.00381
84.45 -0.00284
84.5 -0.00282
84.55 -0.00324
84.6 -0.00298
84.65 -0.00363
84.7 -0.00431
84.75 -0.00498
84.8 -0.00472
84.85 -0.00486
84.9 -0.00543
84.95 -0.00569
85 -0.00637
85.05 -0.00633
85.1 -0.0054
85.15 -0.00418
85.2 -0.00282
85.25 -0.00144
85.3 -0.00133
85.35 -0.00059
85.4 -0.00092
85.45 -0.00157
85.5 -0.00202
85.55 -0.00275
85.6 -0.00278
85.65 -0.00344
85.7 -0.00304
85.75 -0.00202
85.8 -0.00134
85.85 -0.0011
85.9 -0.0003
85.95 0.00067
86 0.0012
86.05 0.00104
86.1 -0.00006
86.15 -0.00048
86.2 -0.00087
86.25 -0.00147
86.3 -0.00258
86.35 -0.00383
86.4 -0.00451
86.45 -0.00543
86.5 -0.0058
86.55 -0.00621
86.6 -0.00581
86.65 -0.00572
86.7 -0.00471
86.75 -0.0033
86.8 -0.00267
86.85 -0.00158
86.9 -0.00155
86.95 -0.00096
87 -0.00005
87.05 0.0001
87.1 0.00064
87.15 0.00033
87.2 -0.00055
87.25 -0.00047
87.3 -0.00105
87.35 -0.00065
87.4 -0.00018
87.45 0.00038
87.5 0.00136
87.55 0.00253
87.6 0.00317
87.65 0.00304
87.7 0.00294
87.75 0.00302
87.8 0.00317
87.85 0.00209
87.9 0.00118
87.95 -0.00019
88 -0.00127
88.05 -0.00205
88.1 -0.00286
88.15 -0.00284
88.2 -0.00252
88.25 -0.00173
88.3 -0.00103
88.35 -0.00081
88.4 -0.00069
88.45 -0.00012
88.5 0.00041
88.55 0.00072
88.6 0.00036
88.65 -0.00038
88.7 -0.00056
88.75 -0.0009
88.8 -0.0013
88.85 -0.00125
88.9 -0.00065
88.95 -0.00038
89 -0.0003
89.05 -0.00098
89.1 -0.00167
89.15 -0.00236
89.2 -0.00209
89.25 -0.00114
89.3 -0.00118
89.35 -0.00054
89.4 0.00022
89.45 0.00124
89.5 0.00245
89.55 0.00215
89.6 0.00116
89.65 0.00068
89.7 0.00068
89.75 0.00101
89.8 0.00085
89.85 -0.00008
89.9 -0.00029
89.95 -0.00112
90 -0.00208
90.05 -0.00277
90.1 -0.00232
90.15 -0.00118
90.2 -0.00122
90.25 -0.0014
90.3 -0.00102
90.35 -0.00014
90.4 0.00027
90.45 0.00036
90.5 -0.0003
90.55 -0.00091
90.6 -0.00161
90.65 -0.00131
90.7 -0.00163
90.75 -0.00193
90.8 -0.00261
90.85 -0.00358
90.9 -0.00477
90.95 -0.00485
91 -0.00418
91.05 -0.00374
91.1 -0.00286
91.15 -0.00191
91.2 -0.00102
91.25 -0.00105
91.3 -0.00139
91.35 -0.00178
91.4 -0.00243
91.45 -0.00309
91.5 -0.00327
91.55 -0.0035
91.6 -0.00343
91.65 -0.00374
91.7 -0.00339
91.75 -0.00364
91.8 -0.0037
91.85 -0.00367
91.9 -0.00402
91.95 -0.00357
92 -0.00254
92.05 -0.00178
92.1 -0.00119
92.15 -0.00094
92.2 -0.00078
92.25 -0.00024
92.3 0.00056
92.35 0.0003
92.4 0.0008
92.45 0.00074
92.5 0.00114
92.55 0.0005
92.6 -0.00045
92.65 -0.00179
92.7 -0.00314
92.75 -0.00388
92.8 -0.00404
92.85 -0.00322
92.9 -0.00306
92.95 -0.00235
93 -0.00115
93.05 0.00042
93.1 0.00114
93.15 0.00217
93.2 0.00251
93.25 0.00215
93.3 0.00148
93.35 0.00118
93.4 0.00071
93.45 -0.00039
93.5 -0.00103
93.55 -0.00077
93.6 -0.00089
93.65 -0.00103
93.7 -0.00116
93.75 -0.00086
93.8 -0.00015
93.85 0.00054
93.9 0.00108
93.95 0.00077
94 0.00062
94.05 0.00117
94.1 0.00135
94.15 0.00206
94.2 0.00218
94.25 0.00208
94.3 0.00192
94.35 0.00085
94.4 0.00075
94.45 0.00037
94.5 0.00082
94.55 0.00109
94.6 0.0019
94.65 0.00223
94.7 0.00269
94.75 0.00249
94.8 0.00157
94.85 0.00141
94.9 0.00044
94.95 -0.00044
95 -0.00113
95.05 -0.00147
95.1 -0.00145
95.15 -0.00109
95.2 -0.00085
95.25 -0.00022
95.3 0.00007
95.35 0.00001
95.4 0.00006
95.45 -0.00029
95.5 -0.00114
95.55 -0.00087
95.6 -0.00029
95.65 0.00055
95.7 0.00117
95.75 0.00162
95.8 0.00221
95.85 0.00274
95.9 0.00353
95.95 0.00339
96 0.00244
96.05 0.00195
96.1 0.00125
96.15 0.00017
96.2 -0.00049
96.25 -0.00119
96.3 -0.00083
96.35 -0.00135
96.4 -0.00092
96.45 -0.00136
96.5 -0.00206
96.55 -0.00195
96.6 -0.00098
96.65 -0.00061
96.7 -0.00045
96.75 -0.00067
96.8 -0.00007
96.85 0.00035
96.9 -0.00004
96.95 -0.00107
97 -0.00141
97.05 -0.00116
97.1 -0.00122
97.15 -0.00152
97.2 -0.00203
97.25 -0.00269
97.3 -0.00354
97.35 -0.0033
97.4 -0.00332
97.45 -0.00242
97.5 -0.00214
97.55 -0.00171
97.6 -0.00082
97.65 -0.00011
97.7 0.00051
97.75 0.00052
97.8 0.00061
97.85 0.00071
97.9 0.00076
97.95 0.00052
98 0.00011
98.05 0
98.1 -0.00004
98.15 0.0001
98.2 0.00057
98.25 0.00138
98.3 0.00099
98.35 0.00093
98.4 0.0016
98.45 0.00249
98.5 0.00289
98.55 0.00209
98.6 0.00171
98.65 0.00192
98.7 0.00121
98.75 0.00027
98.8 -0.00116
98.85 -0.00259
98.9 -0.00294
98.95 -0.00371
99 -0.00354
99.05 -0.00304
99.1 -0.00306
99.15 -0.00244
99.2 -0.00123
99.25 0.00026
99.3 0.00104
99.35 0.00147
99.4 0.00087
99.45 0.0011
99.5 0.00167
99.55 0.00127
99.6 0.00045
99.65 0.00038
99.7 0.0003
99.75 0.00046
99.8 0.00098
99.85 0.00064
99.9 0.00044
99.95 0.00001
