0 0
0.05 0.00033
0.1 0.00063
0.15 0.0011
0.2 0.00193
0.25 0.00256
0.3 0.00309
0.35 0.00339
0.4 0.00369
0.45 0.00413
0.5 0.00468
0.55 0.0054
0.6 0.00629
0.65 0.00708
0.7 0.00761
0.75 0.00774
0.8 0.00783
0.85 0.00752
0.9 0.00694
0.95 0.00648
1 0.00614
1.05 0.00582
1.1 0.00572
1.15 0.00595
1.2 0.00547
1.25 0.0047
1.3 0.00411
1.35 0.0033
1.4 0.00281
1.45 0.0028
1.5 0.00285
1.55 0.0031
1.6 0.00325
1.65 0.00301
1.7 0.00298
1.75 0.00255
1.8 0.00228
1.85 0.00184
1.9 0.00141
1.95 0.00151
2 0.00186
2.05 0.0025
2.1 0.00255
2.15 0.00257
2.2 0.00247
2.25 0.00232
2.3 0.00207
2.35 0.0019
2.4 0.00193
2.45 0.00181
2.5 0.00202
2.55 0.0022
2.6 0.00208
2.65 0.00188
2.7 0.00203
2.75 0.00264
2.8 0.00314
2.85 0.0031
2.9 0.00325
2.95 0.00339
3 0.00295
3.05 0.00232
3.1 0.00153
3.15 0.00134
3.2 0.00125
3.25 0.00093
3.3 0.00055
3.35 0.00085
3.4 0.00144
3.45 0.00203
3.5 0.00273
3.55 0.00278
3.6 0.00297
3.65 0.00294
3.7 0.00244
3.75 0.00227
3.8 0.00225
3.85 0.00262
3.9 0.00307
3.95 0.00361
4 0.00335
4.05 0.00348
4.1 0.00327
4.15 0.00267
4.2 0.00219
4.25 0.00153
4.3 0.00124
4.35 0.00103
4.4 0.00058
4.45 0.00028
4.5 0.00019
4.55 0.00019
4.6 0.00078
4.65 0.00129
4.7 0.00156
4.75 0.00188
4.8 0.00234
4.85 0.0028
4.9 0.00337
4.95 0.00399
5 0.00396
5.05 0.00377
5.1 0.00368
5.15 0.00381
5.2 0.00357
5.25 0.00343
5.3 0.00341
5.35 0.00352
5.4 0.00315
5.45 0.00253
5.5 0.00223
5.55 0.00161
5.6 0.00161
5.65 0.00178
5.7 0.00221
5.75 0.00264
5.8 0.0032
5.85 0.0036
5.9 0.00338
5.95 0.00277
6 0.00257
6.05 0.00209
6.1 0.00197
6.15 0.00173
6.2 0.00162
6.25 0.00126
6.3 0.00133
6.35 0.00154
6.4 0.0015
6.45 0.00112
6.5 0.00038
6.55 -0.00001
6.6 -0.00002
6.65 0.00016
6.7 0.00041
6.75 0.00046
6.8 0.00048
6.85 0.00007
6.9 -0.00049
6.95 -0.00093
7 -0.00085
7.05 -0.00039
7.1 -0.00013
7.15 -0.00034
7.2 -0.00019
7.25 -0.00033
7.3 -0.00002
7.35 -0.0002
7.4 -0.00039
7.45 -0.00015
7.5 0.00006
7.55 0.00042
7.6 0.00042
7.65 0.00002
7.7 0.00015
7.75 0.00027
7.8 0.00016
7.85 0.0003
7.9 0.00017
7.95 0.00007
8 0.00001
8.05 -0.00022
8.1 -0.00061
8.15 -0.00091
8.2 -0.00113
8.25 -0.00109
8.3 -0.00081
8.35 -0.00054
8.4 0.00003
8.45 0.00001
8.5 -0.00008
8.55 -0.00037
8.6 -0.00097
8.65 -0.00156
8.7 -0.0019
8.75 -0.00176
8.8 -0.00184
8.85 -0.0018
8.9 -0.00117
8.95 -0.00103
9 -0.00099
9.05 -0.00112
9.1 -0.0011
9.15 -0.00141
9.2 -0.00122
9.25 -0.00063
9.3 -0.00008
9.35 0.0003
9.4 0.00036
9.45 0.00017
9.5 0.00054
9.55 0.00084
9.6 0.00081
9.65 0.0012
9.7 0.00176
9.75 0.00209
9.8 0.00195
9.85 0.00158
9.9 0.00079
9.95 -0.00016
10 -0.00104
10.05 -0.00142
10.1 -0.00136
10.15 -0.00106
10.2 -0.00034
10.25 0.00025
10.3 0.00073
10.35 0.00087
10.4 0.00127
10.45 0.00144
10.5 0.00149
10.55 0.00177
10.6 0.00179
10.65 0.0017
10.7 0.0015
10.75 0.00171
10.8 0.00202
10.85 0.0024
10.9 0.00234
10.95 0.0019
11 0.00143
11.05 0.00112
11.1 0.00109
11.15 0.00133
11.2 0.00109
11.25 0.0013
11.3 0.00106
11.35 0.00078
11.4 0.00099
11.45 0.00134
11.5 0.00183
11.55 0.00168
11.6 0.00136
11.65 0.00107
11.7 0.00052
11.75 0.00034
11.8 0.00032
11.85 -0.00006
11.9 -0.00033
11.95 -0.0009
12 -0.0014
12.05 -0.00152
12.1 -0.00114
12.15 -0.00122
12.2 -0.00094
12.25 -0.00034
12.3 0.00034
12.35 0.00042
12.4 0.00081
12.45 0.00087
12.5 0.00102
12.55 0.00102
12.6 0.00111
12.65 0.00105
12.7 0.00079
12.75 0.00006
12.8 0.00001
12.85 -0.00039
12.9 -0.00044
12.95 -0.00065
13 -0.00078
13.05 -0.0005
13.1 -0.00019
13.15 0.00046
13.2 0.00082
13.25 0.0009
13.3 0.00103
13.35 0.00127
13.4 0.00134
13.45 0.00154
13.5 0.00142
13.55 0.0014
13.6 0.00088
13.65 0.00076
13.7 0.0007
13.75 0.00087
13.8 0.00127
13.85 0.0016
13.9 0.00144
13.95 0.00089
14 0.00045
14.05 0
14.1 0.00008
14.15 -0.00028
14.2 -0.00024
14.25 -0.00054
14.3 -0.00062
14.35 -0.00051
14.4 -0.00085
14.45 -0.00066
14.5 -0.00038
14.55 -0.00067
14.6 -0.00112
14.65 -0.00104
14.7 -0.00069
14.75 -0.0005
14.8 0.00002
14.85 0.00037
14.9 0.0005
14.95 0.00038
15 0.00053
15.05 0.00079
15.1 0.00058
15.15 -0.00004
15.2 -0.00034
15.25 -0.00048
15.3 -0.00028
15.35 0.00013
15.4 0.00015
15.45 -0.00012
15.5 -0.0005
15.55 -0.00096
15.6 -0.00105
15.65 -0.00078
15.7 -0.00064
15.75 -0.00067
15.8 -0.0007
15.85 -0.00049
15.9 -0.00017
15.95 0.00036
16 0.00077
16.05 0.00093
16.1 0.00089
16.15 0.0012
16.2 0.00137
16.25 0.00154
16.3 0.00104
16.35 0.00073
16.4 0.00077
16.45 0.00113
16.5 0.00126
16.55 0.00084
16.6 0.00005
16.65 -0.00082
16.7 -0.00149
16.75 -0.00178
16.8 -0.00228
16.85 -0.00282
16.9 -0.00276
16.95 -0.00225
17 -0.00145
17.05 -0.00072
17.1 -0.00063
17.15 -0.00017
17.2 0.00019
17.25 0.00056
17.3 0.00033
17.35 0.0005
17.4 0.00081
17.45 0.00051
17.5 0.00049
17.55 0.00048
17.6 0.00032
17.65 0.00062
17.7 0.00068
17.75 0.00107
17.8 0.00143
17.85 0.00105
17.9 0.00021
17.95 -0.00069
18 -0.00118
18.05 -0.00157
18.1 -0.00168
18.15 -0.00167
18.2 -0.0016
18.25 -0.00191
18.3 -0.00166
18.35 -0.00125
18.4 -0.00126
18.45 -0.00128
18.5 -0.00134
18.55 -0.0016
18.6 -0.00175
18.65 -0.00125
18.7 -0.00131
18.75 -0.00157
18.8 -0.00149
18.85 -0.00158
18.9 -0.00123
18.95 -0.00099
19 -0.00052
19.05 0.0001
19.1 0.00062
19.15 0.00102
19.2 0.00152
19.25 0.00197
19.3 0.00227
19.35 0.00223
19.4 0.00168
19.45 0.00083
19.5 -0.0001
19.55 -0.00045
19.6 -0.00033
19.65 -0.00039
19.7 -0.00001
19.75 0.00043
19.8 0.00091
19.85 0.00093
19.9 0.00115
19.95 0.00101
20 0.00124
20.05 0.00102
20.1 0.00121
20.15 0.00153
20.2 0.00131
20.25 0.00076
20.3 0.00039
20.35 0.00034
20.4 0.00026
20.45 -0.00013
20.5 -0.00042
20.55 -0.00084
20.6 -0.00147
20.65 -0.00153
20.7 -0.00106
20.75 -0.00042
20.8 0.00029
20.85 0.0005
20.9 0.00039
20.95 -0.00002
21 0.00015
21.05 0.00066
21.1 0.00087
21.15 0.00073
21.2 0.0009
21.25 0.0005
21.3 0.00019
21.35 -0.00007
21.4 0.00016
21.45 0.00025
21.5 -0.00003
21.55 -0.00002
21.6 -0.00026
21.65 -0.00049
21.7 -0.00027
21.75 -0.00012
21.8 0.00022
21.85 0.0001
21.9 -0.00024
21.95 -0.00024
22 -0.00008
22.05 -0.00009
22.1 -0.00051
22.15 -0.00092
22.2 -0.00131
22.25 -0.00182
22.3 -0.00221
22.35 -0.00263
22.4 -0.00301
22.45 -0.00264
22.5 -0.00185
22.55 -0.0009
22.6 -0.00022
22.65 0.00054
22.7 0.00115
22.75 0.00185
22.8 0.00197
22.85 0.00214
22.9 0.0019
22.95 0.00119
23 0.00086
23.05 0.00018
23.1 -0.00027
23.15 -0.0008
23.2 -0.00093
23.25 -0.00103
23.3 -0.00096
23.35 -0.00047
23.4 0.00012
23.45 0.00038
23.5 0.00069
23.55 0.00055
23.6 -0.00004
23.65 -0.00004
23.7 -0.00039
23.75 -0.00065
23.8 -0.00106
23.85 -0.00101
23.9 -0.00047
23.95 0.00004
24 0.00071
24.05 0.00067
24.1 0.00018
24.15 -0.00057
24.2 -0.00083
24.25 -0.00093
24.3 -0.00095
24.35 -0.00084
24.4 -0.00064
24.45 -0.0009
24.5 -0.001
24.55 -0.00088
24.6 -0.00046
24.65 -0.00001
24.7 -0.00006
24.75 0.0001
24.8 -0.00003
24.85 -0.00045
24.9 -0.00116
24.95 -0.00151
25 -0.0017
25.05 -0.00166
25.1 -0.00171
25.15 -0.00161
25.2 -0.00105
25.25 -0.00042
25.3 -0.00021
25.35 0.00007
25.4 0.00006
25.45 0.00017
25.5 0.0003
25.55 0.00003
25.6 -0.00038
25.65 -0.00107
25.7 -0.00115
25.75 -0.00073
25.8 -0.00075
25.85 -0.00066
25.9 -0.00067
25.95 -0.00072
26 -0.00081
26.05 -0.00055
26.1 -0.00025
26.15 0.00025
26.2 0.00078
26.25 0.00138
26.3 0.0019
26.35 0.00245
26.4 0.00269
26.45 0.00224
26.5 0.00144
26.55 0.00074
26.6 0.00062
26.65 0.00039
26.7 0.00045
26.75 0.0002
26.8 -0.0004
26.85 -0.00067
26.9 -0.00123
26.95 -0.00105
27 -0.00066
27.05 -0.00016
27.1 -0.0001
27.15 -0.00025
27.2 -0.00054
27.25 -0.00112
27.3 -0.00177
27.35 -0.00239
27.4 -0.00295
27.45 -0.00264
27.5 -0.00258
27.55 -0.00278
27.6 -0.00266
27.65 -0.002
27.7 -0.0018
27.75 -0.00154
27.8 -0.00103
27.85 -0.00023
27.9 0.00072
27.95 0.00106
28 0.0014
28.05 0.0016
28.1 0.002
28.15 0.00218
28.2 0.00198
28.25 0.00157
28.3 0.00106
28.35 0.00039
28.4 -0.00016
28.45 -0.00065
28.5 -0.00112
28.55 -0.00137
28.6 -0.00162
28.65 -0.00119
28.7 -0.00064
28.75 -0.00064
28.8 -0.00045
28.85 0.00002
28.9 0.00073
28.95 0.00074
29 0.00043
29.05 0.00059
29.1 0.00061
29.15 0.00051
29.2 -0.00009
29.25 -0.00097
29.3 -0.00193
29.35 -0.00293
29.4 -0.00391
29.45 -0.00464
29.5 -0.00547
29.55 -0.0055
29.6 -0.00547
29.65 -0.00571
29.7 -0.00638
29.75 -0.00746
29.8 -0.00835
29.85 -0.00923
29.9 -0.00988
29.95 -0.01063
30 -0.01208
30.05 -0.01371
30.1 -0.01626
30.15 -0.01967
30.2 -0.02317
30.25 -0.02717
30.3 -0.0323
30.35 -0.03808
30.4 -0.04428
30.45 -0.05109
30.5 -0.05832
30.55 -0.06593
30.6 -0.07413
30.65 -0.08363
30.7 -0.09359
30.75 -0.10415
30.8 -0.11562
30.85 -0.12773
30.9 -0.14042
30.95 -0.15363
31 -0.16748
31.05 -0.18148
31.1 -0.19571
31.15 -0.20958
31.2 -0.22337
31.25 -0.23716
31.3 -0.24996
31.35 -0.26188
31.4 -0.27277
31.45 -0.28217
31.5 -0.29042
31.55 -0.29704
31.6 -0.30214
31.65 -0.30532
31.7 -0.30621
31.75 -0.30523
31.8 -0.30213
31.85 -0.29608
31.9 -0.28759
31.95 -0.27653
32 -0.26288
32.05 -0.24712
32.1 -0.22918
32.15 -0.20939
32.2 -0.18834
32.25 -0.16629
32.3 -0.144
32.35 -0.1214
32.4 -0.09871
32.45 -0.07554
32.5 -0.05284
32.55 -0.03066
32.6 -0.00926
32.65 0.01147
32.7 0.03049
32.75 0.04826
32.8 0.06464
32.85 0.07956
32.9 0.09251
32.95 0.10369
33 0.11333
33.05 0.12209
33.1 0.12986
33.15 0.13586
33.2 0.14047
33.25 0.14457
33.3 0.1483
33.35 0.15099
33.4 0.15361
33.45 0.15631
33.5 0.15908
33.55 0.16127
33.6 0.1636
33.65 0.16615
33.7 0.16819
33.75 0.1706
33.8 0.17264
33.85 0.17484
33.9 0.17699
33.95 0.17929
34 0.18137
34.05 0.18401
34.1 0.18693
34.15 0.18951
34.2 0.19183
34.25 0.19412
34.3 0.19562
34.35 0.19707
34.4 0.1978
34.45 0.1983
34.5 0.19868
34.55 0.19825
34.6 0.1976
34.65 0.19678
34.7 0.19577
34.75 0.19411
34.8 0.19245
34.85 0.19031
34.9 0.18798
34.95 0.18551
35 0.18282
35.05 0.17986
35.1 0.17672
35.15 0.17323
35.2 0.17011
35.25 0.16674
35.3 0.16279
35.35 0.15939
35.4 0.15583
35.45 0.15206
35.5 0.14821
35.55 0.14492
35.6 0.14133
35.65 0.13779
35.7 0.13429
35.75 0.13039
35.8 0.1267
35.85 0.12282
35.9 0.1189
35.95 0.11556
36 0.11212
36.05 0.10905
36.1 0.10613
36.15 0.10349
36.2 0.10084
36.25 0.09798
36.3 0.09489
36.35 0.09189
36.4 0.08857
36.45 0.08514
36.5 0.08134
36.55 0.07759
36.6 0.07418
36.65 0.07075
36.7 0.0672
36.75 0.06392
36.8 0.06034
36.85 0.05679
36.9 0.05307
36.95 0.04947
37 0.04585
37.05 0.04268
37.1 0.03895
37.15 0.03541
37.2 0.03176
37.25 0.02795
37.3 0.02418
37.35 0.02095
37.4 0.018
37.45 0.01507
37.5 0.01242
37.55 0.01024
37.6 0.00828
37.65 0.00613
37.7 0.00409
37.75 0.00185
37.8 -0.00045
37.85 -0.0026
37.9 -0.00526
37.95 -0.00783
38 -0.01028
38.05 -0.01236
38.1 -0.01411
38.15 -0.0155
38.2 -0.01668
38.25 -0.01842
38.3 -0.02019
38.35 -0.02192
38.4 -0.02315
38.45 -0.02457
38.5 -0.02609
38.55 -0.02711
38.6 -0.02824
38.65 -0.02967
38.7 -0.0313
38.75 -0.03297
38.8 -0.03417
38.85 -0.03503
38.9 -0.03593
38.95 -0.03628
39 -0.03672
39.05 -0.0374
39.1 -0.03824
39.15 -0.0383
39.2 -0.0379
39.25 -0.03728
39.3 -0.03651
39.35 -0.03645
39.4 -0.03679
39.45 -0.03733
39.5 -0.03767
39.55 -0.03756
39.6 -0.03764
39.65 -0.03791
39.7 -0.03814
39.75 -0.03792
39.8 -0.03761
39.85 -0.03712
39.9 -0.03699
39.95 -0.03648
40 -0.03585
40.05 -0.03578
40.1 -0.03565
40.15 -0.03536
40.2 -0.03537
40.25 -0.03512
40.3 -0.03516
40.35 -0.03465
40.4 -0.03377
40.45 -0.03315
40.5 -0.03233
40.55 -0.03151
40.6 -0.03083
40.65 -0.03091
40.7 -0.03084
40.75 -0.03087
40.8 -0.03119
40.85 -0.03135
40.9 -0.03094
40.95 -0.03063
41 -0.03034
41.05 -0.03036
41.1 -0.02977
41.15 -0.02892
41.2 -0.02791
41.25 -0.0273
41.3 -0.02699
41.35 -0.02664
41.4 -0.02593
41.45 -0.02519
41.5 -0.02494
41.55 -0.02479
41.6 -0.02506
41.65 -0.02524
41.7 -0.02541
41.75 -0.02512
41.8 -0.02485
41.85 -0.02448
41.9 -0.02365
41.95 -0.02294
42 -0.02249
42.05 -0.02188
42.1 -0.02135
42.15 -0.02099
42.2 -0.02052
42.25 -0.02036
42.3 -0.02005
42.35 -0.01982
42.4 -0.02
42.45 -0.01982
42.5 -0.01931
42.55 -0.01852
42.6 -0.0176
42.65 -0.01674
42.7 -0.01621
42.75 -0.01636
42.8 -0.01643
42.85 -0.01667
42.9 -0.01708
42.95 -0.01763
43 -0.01794
43.05 -0.01751
43.1 -0.01732
43.15 -0.01725
43.2 -0.01731
43.25 -0.0172
43.3 -0.01662
43.35 -0.01608
43.4 -0.01572
43.45 -0.01521
43.5 -0.01493
43.55 -0.01458
43.6 -0.01441
43.65 -0.01415
43.7 -0.01426
43.75 -0.01419
43.8 -0.01445
43.85 -0.01444
43.9 -0.01408
43.95 -0.01317
44 -0.01225
44.05 -0.01122
44.1 -0.01037
44.15 -0.00998
44.2 -0.00976
44.25 -0.00995
44.3 -0.00994
44.35 -0.00986
44.4 -0.01004
44.45 -0.01037
44.5 -0.01022
44.55 -0.00999
44.6 -0.00952
44.65 -0.0095
44.7 -0.00951
44.75 -0.00917
44.8 -0.00904
44.85 -0.0085
44.9 -0.0084
44.95 -0.0085
45 -0.00859
45.05 -0.00859
45.1 -0.00898
45.15 -0.00902
45.2 -0.00857
45.25 -0.00848
45.3 -0.00835
45.35 -0.00785
45.4 -0.00743
45.45 -0.00705
45.5 -0.00728
45.55 -0.00771
45.6 -0.00805
45.65 -0.00852
45.7 -0.00913
45.75 -0.00931
45.8 -0.00942
45.85 -0.00912
45.9 -0.00882
45.95 -0.00883
46 -0.00818
46.05 -0.00772
46.1 -0.00743
46.15 -0.00737
46.2 -0.00741
46.25 -0.00751
46.3 -0.00731
46.35 -0.0068
46.4 -0.00662
46.45 -0.00607
46.5 -0.00595
46.55 -0.00585
46.6 -0.00588
46.65 -0.00542
46.7 -0.00462
46.75 -0.00413
46.8 -0.00366
46.85 -0.00321
46.9 -0.00305
46.95 -0.00326
47 -0.0031
47.05 -0.00269
47.1 -0.00244
47.15 -0.00262
47.2 -0.00246
47.25 -0.00235
47.3 -0.00233
47.35 -0.00218
47.4 -0.00215
47.45 -0.00187
47.5 -0.00205
47.55 -0.0027
47.6 -0.00337
47.65 -0.00367
47.7 -0.0043
47.75 -0.00505
47.8 -0.00576
47.85 -0.00576
47.9 -0.0059
47.95 -0.00584
48 -0.0059
48.05 -0.00541
48.1 -0.00481
48.15 -0.00381
48.2 -0.00271
48.25 -0.00229
48.3 -0.00208
48.35 -0.00174
48.4 -0.00157
48.45 -0.00184
48.5 -0.00169
48.55 -0.00179
48.6 -0.00165
48.65 -0.00191
48.7 -0.00202
48.75 -0.00199
48.8 -0.00241
48.85 -0.00273
48.9 -0.00289
48.95 -0.00307
49 -0.00291
49.05 -0.00308
49.1 -0.00353
49.15 -0.00381
49.2 -0.00382
49.25 -0.00349
49.3 -0.00363
49.35 -0.00359
49.4 -0.00355
49.45 -0.00317
49.5 -0.00253
49.55 -0.0022
49.6 -0.0017
49.65 -0.00179
49.7 -0.00226
49.75 -0.00227
49.8 -0.00222
49.85 -0.00247
49.9 -0.00252
49.95 -0.00214
50 -0.00224
50.05 -0.00263
50.1 -0.00308
50.15 -0.00282
50.2 -0.00269
50.25 -0.00216
50.3 -0.00144
50.35 -0.00067
50.4 -0.00065
50.45 -0.0011
50.5 -0.00128
50.55 -0.00152
50.6 -0.00131
50.65 -0.00156
50.7 -0.00143
50.75 -0.00131
50.8 -0.00163
50.85 -0.00136
50.9 -0.00102
50.95 -0.00094
51 -0.00111
51.05 -0.00097
51.1 -0.00091
51.15 -0.00092
51.2 -0.00056
51.25 -0.00056
51.3 -0.00077
51.35 -0.00138
51.4 -0.00189
51.45 -0.00197
51.5 -0.00176
51.55 -0.00186
51.6 -0.00214
51.65 -0.00231
51.7 -0.00257
51.75 -0.00243
51.8 -0.00255
51.85 -0.00294
51.9 -0.00261
51.95 -0.00253
52 -0.00241
52.05 -0.00207
52.1 -0.0013
52.15 -0.00043
52.2 0.00026
52.25 0.00045
52.3 0.00051
52.35 0.00035
52.4 0.00054
52.45 0.00082
52.5 0.00099
52.55 0.00135
52.6 0.00105
52.65 0.00029
52.7 -0.00059
52.75 -0.00126
52.8 -0.00201
52.85 -0.00225
52.9 -0.00208
52.95 -0.00217
53 -0.00171
53.05 -0.00105
53.1 -0.00066
53.15 -0.00046
53.2 -0.00008
53.25 -0.00022
53.3 -0.00073
53.35 -0.00079
53.4 -0.00061
53.45 -0.00012
53.5 -0.00009
53.55 -0.00001
53.6 -0.00035
53.65 -0.00087
53.7 -0.00099
53.75 -0.00056
53.8 -0.00073
53.85 -0.00086
53.9 -0.00081
53.95 -0.00056
54 0.00003
54.05 0.0004
54.1 0.00087
54.15 0.0012
54.2 0.00112
54.25 0.00079
54.3 0.00021
54.35 0.00021
54.4 0.00009
54.45 -0.00009
54.5 -0.00031
54.55 -0.00043
54.6 -0.00068
54.65 -0.00102
54.7 -0.00084
54.75 -0.00065
54.8 -0.00008
54.85 -0.00009
54.9 0.00007
54.95 0.00001
55 -0.00032
55.05 -0.00044
55.1 -0.00037
55.15 -0.00042
55.2 -0.00083
55.25 -0.00123
55.3 -0.00181
55.35 -0.00204
55.4 -0.00233
55.45 -0.00232
55.5 -0.002
55.55 -0.00142
55.6 -0.00068
55.65 -0.0006
55.7 -0.00006
55.75 0.00032
55.8 0.00086
55.85 0.00093
55.9 0.00046
55.95 0.00022
56 0.00003
56.05 0.00002
56.1 -0.00006
56.15 -0.00026
56.2 0.00008
56.25 0.00068
56.3 0.001
56.35 0.00085
56.4 0.00047
56.45 -0.00029
56.5 -0.00122
56.55 -0.0018
56.6 -0.00196
56.65 -0.00151
56.7 -0.00084
56.75 -0.00018
56.8 0.00039
56.85 0.00105
56.9 0.00177
56.95 0.00183
57 0.00214
57.05 0.00247
57.1 0.00207
57.15 0.00167
57.2 0.00134
57.25 0.00057
57.3 -0.00025
57.35 -0.00074
57.4 -0.00076
57.45 -0.00037
57.5 0.00022
57.55 0.00052
57.6 0.00073
57.65 0.00041
57.7 -0.00008
57.75 -0.00081
57.8 -0.00125
57.85 -0.00115
57.9 -0.00108
57.95 -0.00084
58 -0.00084
58.05 -0.00081
58.1 -0.00118
58.15 -0.00109
58.2 -0.00103
58.25 -0.00085
58.3 -0.00082
58.35 -0.00047
58.4 -0.0002
58.45 -0.0004
58.5 -0.00091
58.55 -0.00152
58.6 -0.00202
58.65 -0.00181
58.7 -0.00111
58.75 -0.00092
58.8 -0.00097
58.85 -0.00111
58.9 -0.00073
58.95 -0.0007
59 -0.00107
59.05 -0.00136
59.1 -0.00135
59.15 -0.00144
59.2 -0.00153
59.25 -0.00161
59.3 -0.00177
59.35 -0.00139
59.4 -0.0008
59.45 -0.00004
59.5 0.00054
59.55 0.00065
59.6 0.0005
59.65 0.00066
59.7 0.00071
59.75 0.00065
59.8 0.00086
59.85 0.00094
59.9 0.00127
59.95 0.00092
60 0.00094
60.05 0.00133
60.1 0.0012
60.15 0.00075
60.2 0.0007
60.25 0.00063
60.3 0.00078
60.35 0.00127
60.4 0.00178
60.45 0.00196
60.5 0.00219
60.55 0.00238
60.6 0.00237
60.65 0.00174
60.7 0.00099
60.75 0.00072
60.8 0.00025
60.85 -0.00026
60.9 -0.00013
60.95 -0.00027
61 -0.00047
61.05 -0.00044
61.1 -0.00047
61.15 -0.00089
61.2 -0.00095
61.25 -0.00092
61.3 -0.0008
61.35 -0.00076
61.4 -0.00045
61.45 -0.00011
61.5 0.00025
61.55 0.00049
61.6 0.00065
61.65 0.00086
61.7 0.00048
61.75 -0.0001
61.8 -0.00063
61.85 -0.00096
61.9 -0.00074
61.95 -0.00011
62 0.00012
62.05 0.00058
62.1 0.00077
62.15 0.00055
62.2 0.00064
62.25 0.00107
62.3 0.00147
62.35 0.00167
62.4 0.00208
62.45 0.00254
62.5 0.00217
62.55 0.00175
62.6 0.00127
62.65 0.00108
62.7 0.00109
62.75 0.00053
62.8 0.00026
62.85 0.00007
62.9 0.00021
62.95 -0.00012
63 -0.00054
63.05 -0.00057
63.1 -0.00027
63.15 0.00022
63.2 0.0002
63.25 0.00016
63.3 0.0001
63.35 0.00046
63.4 0.00081
63.45 0.00052
63.5 0.00059
63.55 0.0004
63.6 0.0002
63.65 0.00003
63.7 0.00028
63.75 0.0007
63.8 0.00042
63.85 -0.00031
63.9 -0.00115
63.95 -0.00151
64 -0.00191
64.05 -0.00235
64.1 -0.00202
64.15 -0.00171
64.2 -0.00155
64.25 -0.001
64.3 -0.00024
64.35 0.0005
64.4 0.00099
64.45 0.00102
64.5 0.00111
64.55 0.00135
64.6 0.00157
64.65 0.00171
64.7 0.00193
64.75 0.00141
64.8 0.00093
64.85 0.00092
64.9 0.00073
64.95 0.00059
65 0.00044
65.05 0.00001
65.1 -0.00053
65.15 -0.00132
65.2 -0.00211
65.25 -0.00237
65.3 -0.00238
65.35 -0.00179
65.4 -0.0015
65.45 -0.00081
65.5 -0.00076
65.55 -0.00068
65.6 -0.0005
65.65 0.00008
65.7 0.00021
65.75 0.0001
65.8 0.00027
65.85 0.00022
65.9 0.0005
65.95 0.00054
66 0.00014
66.05 -0.00022
66.1 -0.00024
66.15 0.00006
66.2 -0.00027
66.25 -0.00033
66.3 -0.00074
66.35 -0.00086
66.4 -0.00071
66.45 -0.00027
66.5 -0.00019
66.55 -0.00028
66.6 0.00001
66.65 0.00034
66.7 0.00061
66.75 0.00038
66.8 0.00009
66.85 -0.0003
66.9 -0.00013
66.95 0.00021
67 0.00046
67.05 0.00049
67.1 0.0009
67.15 0.0015
67.2 0.00135
67.25 0.00078
67.3 0.00002
67.35 -0.0006
67.4 -0.00102
67.45 -0.00127
67.5 -0.0016
67.55 -0.00134
67.6 -0.00098
67.65 -0.00094
67.7 -0.00084
67.75 -0.00111
67.8 -0.00129
67.85 -0.00175
67.9 -0.00236
67.95 -0.00251
68 -0.00208
68.05 -0.00198
68.1 -0.00191
68.15 -0.00194
68.2 -0.00195
68.25 -0.00189
68.3 -0.00152
68.35 -0.00072
68.4 -0.00001
68.45 0.00021
68.5 0.00074
68.55 0.00111
68.6 0.00092
68.65 0.0005
68.7 0.0004
68.75 0.00009
68.8 -0.00037
68.85 -0.00066
68.9 -0.0012
68.95 -0.00097
69 -0.00077
69.05 -0.00027
69.1 0.00036
69.15 0.00045
69.2 0.0003
69.25 -0.0003
69.3 -0.0005
69.35 -0.00105
69.4 -0.00109
69.45 -0.00133
69.5 -0.00093
69.55 -0.00062
69.6 -0.00041
69.65 -0.00007
69.7 0.00055
69.75 0.00098
69.8 0.00104
69.85 0.00085
69.9 0.00097
69.95 0.00122
70 0.00102
70.05 0.00039
70.1 0.00001
70.15 -0.00023
70.2 0.00007
70.25 0.0006
70.3 0.00055
70.35 0.00016
70.4 -0.00036
70.45 -0.00091
70.5 -0.00109
70.55 -0.00081
70.6 -0.00065
70.65 -0.00056
70.7 -0.00021
70.75 -0.00023
70.8 -0.0007
70.85 -0.00138
70.9 -0.00125
70.95 -0.00099
71 -0.00103
71.05 -0.00088
71.1 -0.0004
71.15 -0.00046
71.2 -0.00059
71.25 -0.00096
71.3 -0.00156
71.35 -0.00149
71.4 -0.00116
71.45 -0.00087
71.5 -0.00025
71.55 -0.00004
71.6 0.00031
71.65 0.00041
71.7 0.00026
71.75 0.00037
71.8 0.00061
71.85 0.00048
71.9 0.00018
71.95 -0.0004
72 -0.00071
72.05 -0.00044
72.1 0.00006
72.15 0.0004
72.2 0.00047
72.25 0.00075
72.3 0.00045
72.35 0.00036
72.4 0.00046
72.45 0.00025
72.5 -0.00023
72.55 -0.0004
72.6 -0.00079
72.65 -0.00105
72.7 -0.00099
72.75 -0.00042
72.8 0.00028
72.85 0.00067
72.9 0.00048
72.95 0.00068
73 0.00035
73.05 0.00051
73.1 0.00016
73.15 -0.00049
73.2 -0.00095
73.25 -0.0008
73.3 -0.00096
73.35 -0.00062
73.4 -0.00007
73.45 0.00056
73.5 0.0011
73.55 0.0012
73.6 0.00121
73.65 0.00072
73.7 0.00047
73.75 0.00005
73.8 -0.00028
73.85 0
73.9 0.00059
73.95 0.00045
74 0.00061
74.05 0.00108
74.1 0.00113
74.15 0.00106
74.2 0.00112
74.25 0.00147
74.3 0.0016
74.35 0.00169
74.4 0.00196
74.45 0.00185
74.5 0.00132
74.55 0.00069
74.6 0.00028
74.65 -0.00004
74.7 -0.00057
74.75 -0.00081
74.8 -0.00057
74.85 -0.00021
74.9 -0.00044
74.95 -0.00012
75 0.00031
75.05 0.00074
75.1 0.00128
75.15 0.00181
75.2 0.00216
75.25 0.00225
75.3 0.00211
75.35 0.00226
75.4 0.00194
75.45 0.00177
75.5 0.00189
75.55 0.00157
75.6 0.00109
75.65 0.00091
75.7 0.0005
75.75 0.00048
75.8 0.00052
75.85 0.00067
75.9 0.00102
75.95 0.0013
76 0.00096
76.05 0.00046
76.1 -0.00022
76.15 -0.001
76.2 -0.00138
76.25 -0.00172
76.3 -0.00214
76.35 -0.00182
76.4 -0.00196
76.45 -0.00233
76.5 -0.00261
76.55 -0.00303
76.6 -0.00286
76.65 -0.00241
76.7 -0.00231
76.75 -0.00162
76.8 -0.001
76.85 -0.00093
76.9 -0.00086
76.95 -0.00075
77 -0.00094
77.05 -0.00078
77.1 -0.00029
77.15 0.00001
77.2 0.00041
77.25 0.00015
77.3 0.00009
77.35 0.00021
77.4 0.0005
77.45 0.00069
77.5 0.00092
77.55 0.00079
77.6 0.00047
77.65 0.00001
77.7 -0.00025
77.75 -0.00019
77.8 -0.00025
77.85 -0.00073
77.9 -0.00064
77.95 -0.00049
78 -0.00059
78.05 -0.00096
78.1 -0.00079
78.15 -0.00044
78.2 -0.00022
78.25 -0.00035
78.3 -0.00034
78.35 -0.00012
78.4 0.00001
78.45 0.00023
78.5 0.00004
78.55 -0.00042
78.6 -0.00025
78.65 -0.00045
78.7 -0.00084
78.75 -0.00096
78.8 -0.00129
78.85 -0.00185
78.9 -0.00231
78.95 -0.00215
79 -0.00213
79.05 -0.0024
79.1 -0.00253
79.15 -0.00193
79.2 -0.00114
79.25 -0.00064
79.3 0.00006
79.35 0.00073
79.4 0.00075
79.45 0.00092
79.5 0.00124
79.55 0.00117
79.6 0.00133
79.65 0.00108
79.7 0.00047
79.75 -0.00021
79.8 -0.00083
79.85 -0.00139
79.9 -0.00155
79.95 -0.00119
80 -0.00108
80.05 -0.00071
80.1 -0.00033
80.15 -0.00013
80.2 0.00016
80.25 0.00054
80.3 0.00093
80.35 0.00126
80.4 0.00095
80.45 0.00028
80.5 -0.00055
80.55 -0.00132
80.6 -0.00188
80.65 -0.00161
80.7 -0.00141
80.75 -0.00106
80.8 -0.00078
80.85 -0.00078
80.9 -0.00107
80.95 -0.00089
81 -0.00068
81.05 -0.00037
81.1 0.00003
81.15 0.00036
81.2 0.00063
81.25 0.00039
81.3 0.00012
81.35 0.00013
81.4 0.00006
81.45 -0.00044
81.5 -0.00112
81.55 -0.00115
81.6 -0.00144
81.65 -0.00166
81.7 -0.00178
81.75 -0.00204
81.8 -0.00161
81.85 -0.00114
81.9 -0.00093
81.95 -0.00072
82 -0.00075
82.05 -0.00083
82.1 -0.00096
82.15 -0.00131
82.2 -0.00147
82.25 -0.00122
82.3 -0.00057
82.35 -0.00003
82.4 0.00075
82.45 0.00152
82.5 0.00149
82.55 0.00175
82.6 0.00172
82.65 0.00173
82.7 0.00171
82.75 0.00136
82.8 0.00148
82.85 0.00149
82.9 0.00156
82.95 0.0014
83 0.00137
83.05 0.00147
83.1 0.00138
83.15 0.00111
83.2 0.00124
83.25 0.00122
83.3 0.0007
83.35 0.00033
83.4 -0.00026
83.45 -0.00044
83.5 -0.00094
83.55 -0.00079
83.6 -0.00064
83.65 -0.00092
83.7 -0.00108
83.75 -0.00072
83.8 -0.00066
83.85 -0.00023
83.9 0.00025
83.95 0.00034
84 0.00076
84.05 0.00114
84.1 0.0014
84.15 0.00147
84.2 0.00112
84.25 0.00091
84.3 0.00028
84.35 -0.00049
84.4 -0.0014
84.45 -0.00191
84.5 -0.0022
84.55 -0.00202
84.6 -0.00191
84.65 -0.00176
84.7 -0.0013
84.75 -0.00051
84.8 0.0004
84.85 0.00143
84.9 0.00175
84.95 0.00228
85 0.00234
85.05 0.00231
85.1 0.00235
85.15 0.00181
85.2 0.00115
85.25 0.00029
85.3 -0.00002
85.35 -0.00014
85.4 -0.00047
85.45 -0.00017
85.5 -0.00027
85.55 -0.00073
85.6 -0.00084
85.65 -0.00126
85.7 -0.0011
85.75 -0.00083
85.8 -0.00047
85.85 -0.0005
85.9 -0.00028
85.95 -0.00039
86 -0.00088
86.05 -0.00092
86.1 -0.00091
86.15 -0.00051
86.2 0.00017
86.25 0.0009
86.3 0.00139
86.35 0.00162
86.4 0.00123
86.45 0.00063
86.5 -0.00024
86.55 -0.00064
86.6 -0.00125
86.65 -0.00183
86.7 -0.00217
86.75 -0.00214
86.8 -0.00228
86.85 -0.00177
86.9 -0.00138
86.95 -0.00123
87 -0.00116
87.05 -0.00127
87.1 -0.00155
87.15 -0.00117
87.2 -0.00124
87.25 -0.00113
87.3 -0.0005
87.35 0.00037
87.4 0.00116
87.45 0.00162
87.5 0.002
87.55 0.00234
87.6 0.00192
87.65 0.00178
87.7 0.00203
87.75 0.00177
87.8 0.00191
87.85 0.00216
87.9 0.0019
87.95 0.00204
88 0.00198
88.05 0.00173
88.1 0.00145
88.15 0.00112
88.2 0.00057
88.25 0.00023
88.3 0.0003
88.35 0.00031
88.4 0.00019
88.45 -0.00024
88.5 -0.00007
88.55 0.00049
88.6 0.00125
88.65 0.00118
88.7 0.00144
88.75 0.00188
88.8 0.00203
88.85 0.00231
88.9 0.00238
88.95 0.00175
89 0.00099
89.05 -0.00004
89.1 -0.001
89.15 -0.0018
89.2 -0.00186
89.25 -0.00199
89.3 -0.00179
89.35 -0.00117
89.4 -0.0008
89.45 -0.00011
89.5 0.00069
89.55 0.00093
89.6 0.00095
89.65 0.00058
89.7 -0.00013
89.75 -0.00049
89.8 -0.00036
89.85 0
89.9 0.00006
89.95 0.00022
90 0.00016
90.05 -0.00025
90.1 -0.00088
90.15 -0.00085
90.2 -0.00103
90.25 -0.00098
90.3 -0.00135
90.35 -0.00132
90.4 -0.00089
90.45 -0.00092
90.5 -0.00079
90.55 -0.00044
90.6 -0.00053
90.65 -0.00086
90.7 -0.00056
90.75 -0.00026
90.8 -0.00023
90.85 -0.00004
90.9 0.00016
90.95 -0.00008
91 -0.0004
91.05 -0.00011
91.1 -0.0004
91.15 -0.00101
91.2 -0.00104
91.25 -0.00053
91.3 -0.00033
91.35 -0.00001
91.4 0.00043
91.45 0.00033
91.5 0.0003
91.55 -0.00007
91.6 -0.0001
91.65 -0.00014
91.7 0.00015
91.75 0.00035
91.8 0.00023
91.85 -0.00029
91.9 -0.00069
91.95 -0.00048
92 0.00013
92.05 0.00073
92.1 0.00103
92.15 0.00113
92.2 0.00076
92.25 0.00076
92.3 0.00067
92.35 0.00087
92.4 0.00098
92.45 0.00115
92.5 0.0013
92.55 0.00134
92.6 0.00094
92.65 0.00045
92.7 0.0001
92.75 -0.00018
92.8 -0.00002
92.85 -0.00017
92.9 -0.00014
92.95 0.00021
93 -0.00005
93.05 -0.00055
93.1 -0.00098
93.15 -0.00106
93.2 -0.0008
93.25 -0.00053
93.3 -0.00041
93.35 -0.00047
93.4 -0.00076
93.45 -0.00118
93.5 -0.00106
93.55 -0.00063
93.6 0
93.65 0.00029
93.7 0.00082
93.75 0.0014
93.8 0.00127
93.85 0.00128
93.9 0.00081
93.95 0.00082
94 0.00107
94.05 0.0012
94.1 0.00141
94.15 0.00119
94.2 0.0006
94.25 -0.00028
94.3 -0.00092
94.35 -0.00129
94.4 -0.00146
94.45 -0.00144
94.5 -0.00093
94.55 -0.00043
94.6 0.00015
94.65 0.00068
94.7 0.0009
94.75 0.00119
94.8 0.00137
94.85 0.00161
94.9 0.00143
94.95 0.00125
95 0.00136
95.05 0.00124
95.1 0.00124
95.15 0.00135
95.2 0.00145
95.25 0.0015
95.3 0.00159
95.35 0.00182
95.4 0.00139
95.45 0.00064
95.5 0.00019
95.55 -0
95.6 -0.0003
95.65 -0.00038
95.7 -0.00043
95.75 -0.00073
95.8 -0.00078
95.85 -0.00089
95.9 -0.00098
95.95 -0.00128
96 -0.0018
96.05 -0.00158
96.1 -0.00142
96.15 -0.00153
96.2 -0.00114
96.25 -0.00104
96.3 -0.00064
96.35 -0.00002
96.4 0.00074
96.45 0.00131
96.5 0.00147
96.55 0.0014
96.6 0.00093
96.65 0.00097
96.7 0.00109
96.75 0.00092
96.8 0.00028
96.85 -0.00055
96.9 -0.0009
96.95 -0.00132
97 -0.0011
97.05 -0.00045
97.1 0.00034
97.15 0.00037
97.2 0.00038
97.25 0.00007
97.3 0.00031
97.35 0.00005
97.4 -0.0005
97.45 -0.00062
97.5 -0.00084
97.55 -0.00127
97.6 -0.00165
97.65 -0.00141
97.7 -0.0016
97.75 -0.00119
97.8 -0.001
97.85 -0.00073
97.9 -0.00029
97.95 0.00028
98 0.0006
98.05 0.00073
98.1 0.00093
98.15 0.00085
98.2 0.00079
98.25 0.00028
98.3 -0.00023
98.35 -0.00027
98.4 0.00006
98.45 0.00035
98.5 0.00019
98.55 -0.00016
98.6 -0.00079
98.65 -0.00087
98.7 -0.00052
98.75 -0.00075
98.8 -0.0009
98.85 -0.00057
98.9 -0.00068
98.95 -0.00096
99 -0.0012
99.05 -0.00124
99.1 -0.00085
99.15 -0.00034
99.2 0.0002
99.25 0.00086
99.3 0.00144
99.35 0.00146
99.4 0.00135
99.45 0.00119
99.5 0.0011
99.55 0.00076
99.6 0.00048
99.65 0.00058
99.7 0.00087
99.75 0.00095
99.8 0.00105
99.85 0.00139
99.9 0.00181
99.95 0.00142
