0 0
0.05 0.00053
0.1 0.00102
0.15 0.00125
0.2 0.00165
0.25 0.00289
0.3 0.00374
0.35 0.00506
0.4 0.00752
0.45 0.0086
0.5 0.01044
0.55 0.01203
0.6 0.0122
0.65 0.01143
0.7 0.0106
0.75 0.01036
0.8 0.00977
0.85 0.00943
0.9 0.00886
0.95 0.00823
1 0.0073
1.05 0.00684
1.1 0.00611
1.15 0.00635
1.2 0.00768
1.25 0.0079
1.3 0.00765
1.35 0.0074
1.4 0.00821
1.45 0.00911
1.5 0.00895
1.55 0.00806
1.6 0.00772
1.65 0.00839
1.7 0.00885
1.75 0.00967
1.8 0.01081
1.85 0.011
1.9 0.01033
1.95 0.00926
2 0.00822
2.05 0.00838
2.1 0.00762
2.15 0.00737
2.2 0.00775
2.25 0.00693
2.3 0.0055
2.35 0.00427
2.4 0.00342
2.45 0.00418
2.5 0.00427
2.55 0.00449
2.6 0.00575
2.65 0.00658
2.7 0.00659
2.75 0.00614
2.8 0.0051
2.85 0.00392
2.9 0.00393
2.95 0.00435
3 0.00488
3.05 0.00476
3.1 0.00489
3.15 0.00587
3.2 0.00722
3.25 0.00819
3.3 0.0081
3.35 0.00889
3.4 0.00927
3.45 0.00847
3.5 0.00816
3.55 0.00731
3.6 0.0076
3.65 0.00708
3.7 0.0069
3.75 0.00664
3.8 0.00598
3.85 0.00486
3.9 0.00488
3.95 0.00582
4 0.0061
4.05 0.00715
4.1 0.00799
4.15 0.00911
4.2 0.00872
4.25 0.008
4.3 0.00709
4.35 0.00542
4.4 0.00329
4.45 0.00226
4.5 0.00078
4.55 0.00072
4.6 0.00082
4.65 0.00122
4.7 0.00125
4.75 0.00077
4.8 0.00126
4.85 0.00242
4.9 0.00329
4.95 0.00411
5 0.00369
5.05 0.00324
5.1 0.00228
5.15 0.00185
5.2 0.00151
5.25 0.00085
5.3 -0.00035
5.35 -0.00059
5.4 -0.00082
5.45 0.00035
5.5 0.00192
5.55 0.00405
5.6 0.00522
5.65 0.00476
5.7 0.0047
5.75 0.00344
5.8 0.00209
5.85 0.00149
5.9 0.00118
5.95 0.00092
6 0.0002
6.05 -0.00062
6.1 -0.00051
6.15 0.00052
6.2 0.0017
6.25 0.00231
6.3 0.00344
6.35 0.00494
6.4 0.00567
6.45 0.00585
6.5 0.00472
6.55 0.00361
6.6 0.00321
6.65 0.00201
6.7 0.00192
6.75 0.00273
6.8 0.00247
6.85 0.00194
6.9 0.002
6.95 0.0015
7 0.00177
7.05 0.00276
7.1 0.00268
7.15 0.00276
7.2 0.00276
7.25 0.0023
7.3 0.00197
7.35 0.00234
7.4 0.00335
7.45 0.00285
7.5 0.00334
7.55 0.00455
7.6 0.00452
7.65 0.00479
7.7 0.00447
7.75 0.00377
7.8 0.00384
7.85 0.00447
7.9 0.00527
7.95 0.00491
8 0.00521
8.05 0.00437
8.1 0.00278
8.15 0.00188
8.2 0.00039
8.25 -0.0007
8.3 -0.00168
8.35 -0.00248
8.4 -0.00186
8.45 -0.00131
8.5 -0.00174
8.55 -0.00211
8.6 -0.00186
8.65 -0.00122
8.7 -0.00138
8.75 -0.00092
8.8 -0.00058
8.85 -0.00075
8.9 -0.0008
8.95 -0.00073
9 -0.00033
9.05 -0.00019
9.1 0.00099
9.15 0.00077
9.2 0.00081
9.25 0.00057
9.3 -0.00007
9.35 -0.00074
9.4 -0.00201
9.45 -0.00217
9.5 -0.00254
9.55 -0.00263
9.6 -0.00328
9.65 -0.00415
9.7 -0.00366
9.75 -0.00387
9.8 -0.00333
9.85 -0.00359
9.9 -0.00382
9.95 -0.0041
10 -0.00416
10.05 -0.00335
10.1 -0.0032
10.15 -0.00323
10.2 -0.00375
10.25 -0.00313
10.3 -0.00145
10.35 -0.00105
10.4 -0.0016
10.45 -0.00226
10.5 -0.00221
10.55 -0.00078
10.6 0.00033
10.65 0.00093
10.7 0.00084
10.75 0.0001
10.8 -0.00071
10.85 -0.00183
10.9 -0.00241
10.95 -0.0014
11 0.00005
11.05 0.00109
11.1 0.00218
11.15 0.00235
11.2 0.00139
11.25 0.00087
11.3 -0.00043
11.35 -0.00171
11.4 -0.0025
11.45 -0.00326
11.5 -0.00284
11.55 -0.00301
11.6 -0.00339
11.65 -0.00332
11.7 -0.00353
11.75 -0.00286
11.8 -0.00257
11.85 -0.00151
11.9 0.0003
11.95 0.00255
12 0.00322
12.05 0.0036
12.1 0.00376
12.15 0.00432
12.2 0.00374
12.25 0.00373
12.3 0.00268
12.35 0.00165
12.4 0.002
12.45 0.0027
12.5 0.00334
12.55 0.00407
12.6 0.00363
12.65 0.00361
12.7 0.00371
12.75 0.00343
12.8 0.00317
12.85 0.00262
12.9 0.00224
12.95 0.00235
13 0.00337
13.05 0.00355
13.1 0.00426
13.15 0.00407
13.2 0.00347
13.25 0.00195
13.3 0.00103
13.35 0.00133
13.4 0.00048
13.45 -0.00019
13.5 -0.00005
13.55 0.00015
13.6 0.00056
13.65 0.0013
13.7 0.00082
13.75 0.00132
13.8 0.00257
13.85 0.00277
13.9 0.00353
13.95 0.00466
14 0.00523
14.05 0.00583
14.1 0.00632
14.15 0.00512
14.2 0.00444
14.25 0.0036
14.3 0.00268
14.35 0.00221
14.4 0.00164
14.45 0.00054
14.5 0.00026
14.55 -0.00078
14.6 -0.00159
14.65 -0.00101
14.7 -0.0012
14.75 -0.00158
14.8 -0.00121
14.85 -0.00104
14.9 -0.0017
14.95 -0.0017
15 -0.00196
15.05 -0.00174
15.1 -0.00117
15.15 0.00025
15.2 0.00144
15.25 0.00117
15.3 0.00073
15.35 0.00001
15.4 -0.00061
15.45 -0.00086
15.5 -0.0004
15.55 0.00062
15.6 0.00139
15.65 0.00277
15.7 0.00371
15.75 0.00402
15.8 0.00462
15.85 0.00541
15.9 0.00473
15.95 0.00347
16 0.00136
16.05 -0.00069
16.1 -0.00179
16.15 -0.00176
16.2 -0.00069
16.25 -0.0003
16.3 0.00042
16.35 0.00179
16.4 0.00215
16.45 0.00298
16.5 0.00297
16.55 0.00219
16.6 0.00113
16.65 0.00084
16.7 -0.00046
16.75 -0.00132
16.8 -0.00248
16.85 -0.00338
16.9 -0.00471
16.95 -0.00494
17 -0.00364
17.05 -0.00329
17.1 -0.00279
17.15 -0.00146
17.2 -0.00118
17.25 -0.00075
17.3 -0.00131
17.35 -0.00188
17.4 -0.00104
17.45 -0.00063
17.5 0.00028
17.55 0.00013
17.6 0.00039
17.65 0.00095
17.7 0.00077
17.75 -0.00019
17.8 -0.00044
17.85 -0.00105
17.9 -0.00121
17.95 -0.00221
18 -0.00371
18.05 -0.00447
18.1 -0.0044
18.15 -0.00429
18.2 -0.0041
18.25 -0.00415
18.3 -0.00403
18.35 -0.00258
18.4 -0.00231
18.45 -0.00137
18.5 -0.00025
18.55 0.00089
18.6 0.00056
18.65 0.00134
18.7 0.00236
18.75 0.00373
18.8 0.00356
18.85 0.00307
18.9 0.0021
18.95 0.00219
19 0.00308
19.05 0.00374
19.1 0.00439
19.15 0.00449
19.2 0.0049
19.25 0.00501
19.3 0.00518
19.35 0.00397
19.4 0.00384
19.45 0.00288
19.5 0.00249
19.55 0.00154
19.6 0.00004
19.65 -0.00148
19.7 -0.00278
19.75 -0.00317
19.8 -0.00295
19.85 -0.00211
19.9 -0.00178
19.95 -0.00155
20 -0.00085
20.05 -0.00085
20.1 -0.00054
20.15 0.00042
20.2 0.00189
20.25 0.00188
20.3 0.00159
20.35 0.0009
20.4 0.0004
20.45 0.00102
20.5 0.00106
20.55 0.00131
20.6 0.00108
20.65 0.00059
20.7 0.00059
20.75 0.00038
20.8 -0.0004
20.85 -0.00072
20.9 -0.00087
20.95 -0.00037
21 -0.0002
21.05 -0.0003
21.1 -0.00113
21.15 -0.00172
21.2 -0.00201
21.25 -0.00251
21.3 -0.00191
21.35 -0.00129
21.4 -0.00122
21.45 -0.00092
21.5 0.00037
21.55 0.00037
21.6 0.00079
21.65 0.00014
21.7 -0.00089
21.75 -0.002
21.8 -0.00213
21.85 -0.00191
21.9 -0.002
21.95 -0.00129
22 -0.00007
22.05 0.00049
22.1 0.00016
22.15 -0.00038
22.2 -0.00069
22.25 -0.00049
22.3 -0.00056
22.35 -0.00099
22.4 -0.00172
22.45 -0.00131
22.5 -0.00009
22.55 0.00052
22.6 0.0017
22.65 0.00237
22.7 0.00358
22.75 0.00417
22.8 0.00456
22.85 0.00385
22.9 0.00337
22.95 0.00213
23 0.00054
23.05 0.0003
23.1 0.00029
23.15 0.00038
23.2 -0.00034
23.25 -0.00085
23.3 -0.00086
23.35 -0.00103
23.4 -0.00089
23.45 -0.00081
23.5 -0.00169
23.55 -0.00287
23.6 -0.00364
23.65 -0.00393
23.7 -0.00393
23.75 -0.00396
23.8 -0.00423
23.85 -0.00441
23.9 -0.00516
23.95 -0.00485
24 -0.00394
24.05 -0.00235
24.1 -0.00138
24.15 -0.00011
24.2 0.00134
24.25 0.00179
24.3 0.00113
24.35 0.0011
24.4 0.00079
24.45 0.00113
24.5 0.00229
24.55 0.00221
24.6 0.00137
24.65 0.00077
24.7 0.00007
24.75 -0.00131
24.8 -0.00155
24.85 -0.00135
24.9 -0.00045
24.95 0.00118
25 0.00132
25.05 0.00116
25.1 0.00048
25.15 0.00078
25.2 -0.00007
25.25 -0.00145
25.3 -0.0013
25.35 -0.00157
25.4 -0.0018
25.45 -0.00116
25.5 -0.00031
25.55 -0.00032
25.6 -0.00032
25.65 -0.00013
25.7 -0.00049
25.75 -0.0013
25.8 -0.00118
25.85 0.00003
25.9 -0.00008
25.95 0.00045
26 0.00087
26.05 0.00201
26.1 0.00338
26.15 0.00492
26.2 0.00491
26.25 0.00423
26.3 0.00374
26.35 0.00271
26.4 0.00166
26.45 0.00172
26.5 0.00229
26.55 0.00336
26.6 0.00319
26.65 0.00268
26.7 0.00116
26.75 -0.00038
26.8 -0.00054
26.85 -0.00036
26.9 -0.00091
26.95 -0.00227
27 -0.00338
27.05 -0.00286
27.1 -0.00145
27.15 -0.00101
27.2 -0.00108
27.25 -0.00033
27.3 0.00015
27.35 0.00114
27.4 0.00146
27.45 0.00241
27.5 0.00374
27.55 0.00437
27.6 0.00491
27.65 0.00555
27.7 0.00513
27.75 0.00381
27.8 0.0023
27.85 0.00033
27.9 -0.00182
27.95 -0.00318
28 -0.00449
28.05 -0.00463
28.1 -0.00471
28.15 -0.00363
28.2 -0.0019
28.25 -0.00094
28.3 -0.00006
28.35 0.00061
28.4 0.00091
28.45 0.00202
28.5 0.00224
28.55 0.00254
28.6 0.00241
28.65 0.00196
28.7 0.00043
28.75 0.00036
28.8 0.00043
28.85 -0.00057
28.9 -0.00036
28.95 -0.00094
29 -0.00107
29.05 -0.00031
29.1 0.0006
29.15 0.00053
29.2 -0.00045
29.25 -0.00071
29.3 -0.00007
29.35 0.00128
29.4 0.00156
29.45 0.00056
29.5 0.00005
29.55 -0.0012
29.6 -0.00266
29.65 -0.00316
29.7 -0.00347
29.75 -0.00334
29.8 -0.00302
29.85 -0.0023
29.9 -0.00255
29.95 -0.0025
30 -0.00285
30.05 -0.00324
30.1 -0.00392
30.15 -0.00465
30.2 -0.00434
30.25 -0.00468
30.3 -0.00547
30.35 -0.00554
30.4 -0.00529
30.45 -0.0041
30.5 -0.00307
30.55 -0.00225
30.6 -0.00136
30.65 -0.00142
30.7 -0.00064
30.75 0.00076
30.8 0.00097
30.85 0.0016
30.9 0.00088
30.95 -0.00033
31 -0.00203
31.05 -0.00202
31.1 -0.00123
31.15 0.00013
31.2 0.0018
31.25 0.00169
31.3 0.00128
31.35 0.00149
31.4 0.00108
31.45 -0.00019
31.5 -0.00009
31.55 0.00092
31.6 0.00247
31.65 0.00395
31.7 0.00415
31.75 0.00466
31.8 0.00414
31.85 0.00375
31.9 0.00279
31.95 0.00266
32 0.00208
32.05 0.00106
32.1 -0.00065
32.15 -0.00266
32.2 -0.00345
32.25 -0.00444
32.3 -0.00383
32.35 -0.00343
32.4 -0.00331
32.45 -0.00372
32.5 -0.00375
32.55 -0.00385
32.6 -0.0033
32.65 -0.00231
32.7 -0.00186
32.75 -0.00049
32.8 0.00109
32.85 0.00288
32.9 0.0035
32.95 0.00349
33 0.00254
33.05 0.00084
33.1 -0.00136
33.15 -0.00363
33.2 -0.00414
33.25 -0.0035
33.3 -0.00187
33.35 -0.00151
33.4 -0.00076
33.45 0.0003
33.5 0.00038
33.55 -0.00019
33.6 0.00018
33.65 0.00046
33.7 0.00014
33.75 -0.0006
33.8 0.00006
33.85 -0.00018
33.9 0.00068
33.95 0.00108
34 0.00218
34.05 0.00205
34.1 0.00102
34.15 0.00085
34.2 0.00068
34.25 0.00108
34.3 0.00078
34.35 -0.00018
34.4 -0.00131
34.45 -0.00164
34.5 -0.00171
34.55 -0.00063
34.6 -0.00001
34.65 -0.00038
34.7 -0.00024
34.75 -0.00067
34.8 -0.00135
34.85 -0.0008
34.9 -0.00014
34.95 0.00122
35 0.00114
35.05 0.00028
35.1 -0.00106
35.15 -0.00167
35.2 -0.00241
35.25 -0.00344
35.3 -0.00356
35.35 -0.00409
35.4 -0.00328
35.45 -0.00244
35.5 -0.00169
35.55 -0.0017
35.6 -0.00139
35.65 -0.00088
35.7 0.00001
35.75 0.00085
35.8 0.00189
35.85 0.00163
35.9 0.00176
35.95 0.00092
36 -0.00001
36.05 -0.00052
36.1 0.00012
36.15 0.00091
36.2 0.00092
36.25 0.00058
36.3 -0.00011
36.35 -0.00125
36.4 -0.00117
36.45 -0.00024
36.5 0.00004
36.55 -0.00072
36.6 -0.00066
36.65 -0.00102
36.7 -0.00077
36.75 -0.0007
36.8 -0.0016
36.85 -0.00104
36.9 0.00005
36.95 0.0015
37 0.00293
37.05 0.00382
37.1 0.00333
37.15 0.00283
37.2 0.00255
37.25 0.00206
37.3 0.00118
37.35 0.0009
37.4 0.00143
37.45 0.00112
37.5 0.00058
37.55 0.00022
37.6 -0.00034
37.65 -0.00171
37.7 -0.00211
37.75 -0.00146
37.8 0.00007
37.85 0.00093
37.9 0.00185
37.95 0.00282
38 0.00256
38.05 0.00135
38.1 0.00116
38.15 0.0013
38.2 0.00186
38.25 0.0026
38.3 0.00215
38.35 0.00245
38.4 0.00182
38.45 0.00129
38.5 0.00072
38.55 -0.00075
38.6 -0.00231
38.65 -0.00277
38.7 -0.00288
38.75 -0.00347
38.8 -0.00303
38.85 -0.0017
38.9 -0.0009
38.95 0.00018
39 0.00098
39.05 0.00142
39.1 0.0008
39.15 0.00122
39.2 0.00094
39.25 0.0013
39.3 0.00228
39.35 0.00303
39.4 0.00397
39.45 0.00494
39.5 0.00511
39.55 0.0057
39.6 0.00563
39.65 0.0041
39.7 0.00193
39.75 -0.00004
39.8 -0.00182
39.85 -0.00267
39.9 -0.00312
39.95 -0.00225
40 -0.00059
40.05 -0.00049
40.1 -0.0014
40.15 -0.00194
40.2 -0.00259
40.25 -0.00286
40.3 -0.00384
40.35 -0.00395
40.4 -0.00417
40.45 -0.00381
40.5 -0.00413
40.55 -0.00482
40.6 -0.00589
40.65 -0.00549
40.7 -0.00576
40.75 -0.00507
40.8 -0.00374
40.85 -0.00286
40.9 -0.00176
40.95 -0.00069
41 0.00114
41.05 0.00148
41.1 0.002
41.15 0.0017
41.2 0.00105
41.25 -0.00009
41.3 -0.0009
41.35 -0.00229
41.4 -0.00267
41.45 -0.00317
41.5 -0.00265
41.55 -0.00288
41.6 -0.00232
41.65 -0.00163
41.7 -0.00012
41.75 0.00032
41.8 -0.00004
41.85 -0.00044
41.9 -0.00051
41.95 -0.00013
42 -0.00083
42.05 -0.00048
42.1 -0.00024
42.15 -0.00018
42.2 -0.00078
42.25 -0.00151
42.3 -0.00281
42.35 -0.00419
42.4 -0.00426
42.45 -0.0033
42.5 -0.00297
42.55 -0.00146
42.6 0.00042
42.65 0.00226
42.7 0.00365
42.75 0.00514
42.8 0.00663
42.85 0.00777
42.9 0.00727
42.95 0.00689
43 0.00672
43.05 0.00552
43.1 0.00528
43.15 0.00391
43.2 0.0017
43.25 -0.00067
43.3 -0.00157
43.35 -0.00172
43.4 -0.00248
43.45 -0.00247
43.5 -0.00205
43.55 -0.00066
43.6 -0.00028
43.65 0.0002
43.7 0.00019
43.75 0.00027
43.8 0.00032
43.85 0.00073
43.9 0.00161
43.95 0.00286
44 0.00284
44.05 0.00291
44.1 0.00272
44.15 0.00299
44.2 0.00208
44.25 0.00217
44.3 0.00173
44.35 0.00208
44.4 0.00113
44.45 0.00109
44.5 0.00074
44.55 0.00125
44.6 0.00129
44.65 0.00169
44.7 0.00095
44.75 -0.0006
44.8 -0.00156
44.85 -0.00168
44.9 -0.00234
44.95 -0.00177
45 -0.00207
45.05 -0.00148
45.1 -0.00135
45.15 -0.00057
45.2 0.00066
45.25 0.0006
45.3 0.00003
45.35 0.00064
45.4 0.00163
45.45 0.00202
45.5 0.00311
45.55 0.00407
45.6 0.00495
45.65 0.00489
45.7 0.00362
45.75 0.00327
45.8 0.00195
45.85 0.00092
45.9 0.0005
45.95 0.00031
46 0.00053
46.05 0.00089
46.1 0.0002
46.15 -0.00064
46.2 -0.00109
46.25 -0.00105
46.3 -0.00171
46.35 -0.00203
46.4 -0.00122
46.45 0.00004
46.5 0.0011
46.55 0.00206
46.6 0.00329
46.65 0.00413
46.7 0.00437
46.75 0.00373
46.8 0.00389
46.85 0.00372
46.9 0.00352
46.95 0.0025
47 0.00149
47.05 0.00055
47.1 -0.00058
47.15 -0.00143
47.2 -0.00277
47.25 -0.00271
47.3 -0.00157
47.35 -0.00163
47.4 -0.00223
47.45 -0.0015
47.5 -0.00187
47.55 -0.00196
47.6 -0.00229
47.65 -0.00176
47.7 -0.00145
47.75 -0.00102
47.8 -0.00137
47.85 -0.00108
47.9 -0.00002
47.95 0.00026
48 0.00076
48.05 0.00185
48.1 0.00258
48.15 0.00238
48.2 0.00263
48.25 0.00216
48.3 0.00258
48.35 0.00346
48.4 0.00399
48.45 0.0045
48.5 0.00366
48.55 0.00351
48.6 0.00355
48.65 0.00375
48.7 0.00326
48.75 0.00331
48.8 0.00231
48.85 0.00193
48.9 0.00212
48.95 0.0011
49 -0.00006
49.05 -0.00077
49.1 -0.00091
49.15 -0.0015
49.2 -0.00263
49.25 -0.00391
49.3 -0.00461
49.35 -0.00581
49.4 -0.00602
49.45 -0.00651
49.5 -0.00701
49.55 -0.00713
49.6 -0.00655
49.65 -0.00571
49.7 -0.00389
49.75 -0.00211
49.8 -0.00134
49.85 -0.00121
49.9 -0.00058
49.95 0.00023
50 0.00173
50.05 0.00305
50.1 0.0039
50.15 0.0032
50.2 0.0025
50.25 0.00251
50.3 0.00236
50.35 0.00179
50.4 0.00176
50.45 0.00058
50.5 0.00014
50.55 0.00076
50.6 0.00072
50.65 0.00047
50.7 -0.00046
50.75 -0.00051
50.8 0.00001
50.85 -0.00045
50.9 -0.00063
50.95 -0.00034
51 -0.0008
51.05 -0.0017
51.1 -0.00217
51.15 -0.00265
51.2 -0.00275
51.25 -0.0018
51.3 -0.00149
51.35 -0.00055
51.4 -0.00013
51.45 -0.00068
51.5 -0.00141
51.55 -0.00192
51.6 -0.00296
51.65 -0.00245
51.7 -0.00132
51.75 -0.00062
51.8 -0.00085
51.85 -0.00037
51.9 0.0006
51.95 0.00188
52 0.00274
52.05 0.00193
52.1 0.0017
52.15 0.00118
52.2 0.00143
52.25 0.00216
52.3 0.00246
52.35 0.0028
52.4 0.00185
52.45 0.00092
52.5 -0.00055
52.55 -0.00217
52.6 -0.00288
52.65 -0.00359
52.7 -0.00353
52.75 -0.0033
52.8 -0.00398
52.85 -0.00488
52.9 -0.00491
52.95 -0.00409
53 -0.00258
53.05 -0.0019
53.1 -0.00136
53.15 -0.00039
53.2 0.00113
53.25 0.00287
53.3 0.00389
53.35 0.00332
53.4 0.00309
53.45 0.00157
53.5 0.00019
53.55 -0.00162
53.6 -0.0025
53.65 -0.00283
53.7 -0.00223
53.75 -0.00291
53.8 -0.00295
53.85 -0.00365
53.9 -0.00478
53.95 -0.00642
54 -0.00826
54.05 -0.01015
54.1 -0.01248
54.15 -0.01445
54.2 -0.01603
54.25 -0.01935
54.3 -0.02287
54.35 -0.02645
54.4 -0.03125
54.45 -0.03764
54.5 -0.0447
54.55 -0.05303
54.6 -0.06153
54.65 -0.07191
54.7 -0.08267
54.75 -0.09475
54.8 -0.10747
54.85 -0.12199
54.9 -0.1379
54.95 -0.15521
55 -0.17512
55.05 -0.19752
55.1 -0.22157
55.15 -0.24661
55.2 -0.27215
55.25 -0.29872
55.3 -0.32604
55.35 -0.35546
55.4 -0.3861
55.45 -0.41676
55.5 -0.44865
55.55 -0.48033
55.6 -0.51085
55.65 -0.53959
55.7 -0.56848
55.75 -0.5956
55.8 -0.61949
55.85 -0.63992
55.9 -0.65678
55.95 -0.67018
56 -0.6807
56.05 -0.68669
56.1 -0.68755
56.15 -0.68329
56.2 -0.67402
56.25 -0.66006
56.3 -0.64266
56.35 -0.62006
56.4 -0.59348
56.45 -0.56263
56.5 -0.52678
56.55 -0.48757
56.6 -0.4447
56.65 -0.39778
56.7 -0.34718
56.75 -0.29584
56.8 -0.24331
56.85 -0.18989
56.9 -0.13558
56.95 -0.08167
57 -0.0278
57.05 0.02527
57.1 0.07546
57.15 0.12417
57.2 0.17048
57.25 0.21444
57.3 0.25493
57.35 0.29222
57.4 0.32658
57.45 0.35883
57.5 0.38739
57.55 0.41224
57.6 0.43477
57.65 0.45625
57.7 0.47503
57.75 0.49131
57.8 0.50502
57.85 0.51745
57.9 0.52826
57.95 0.53816
58 0.54669
58.05 0.55277
58.1 0.55813
58.15 0.56137
58.2 0.56309
58.25 0.56314
58.3 0.56268
58.35 0.56086
58.4 0.55811
58.45 0.55547
58.5 0.55131
58.55 0.54633
58.6 0.54038
58.65 0.53357
58.7 0.52491
58.75 0.51515
58.8 0.50582
58.85 0.49696
58.9 0.48655
58.95 0.47504
59 0.46264
59.05 0.44994
59.1 0.43822
59.15 0.42723
59.2 0.41578
59.25 0.40331
59.3 0.39157
59.35 0.38026
59.4 0.36828
59.45 0.35535
59.5 0.34181
59.55 0.32901
59.6 0.31527
59.65 0.30247
59.7 0.28931
59.75 0.27677
59.8 0.26549
59.85 0.25427
59.9 0.24419
59.95 0.23371
60 0.2227
60.05 0.21274
60.1 0.20241
60.15 0.19236
60.2 0.18302
60.25 0.17348
60.3 0.1639
60.35 0.15456
60.4 0.14502
60.45 0.13709
60.5 0.12995
60.55 0.12165
60.6 0.1137
60.65 0.10565
60.7 0.0985
60.75 0.09144
60.8 0.08557
60.85 0.07853
60.9 0.0723
60.95 0.06571
61 0.05883
61.05 0.05314
61.1 0.04651
61.15 0.03984
61.2 0.03375
61.25 0.02901
61.3 0.02315
61.35 0.01791
61.4 0.01321
61.45 0.00901
61.5 0.00487
61.55 0.0009
61.6 -0.00363
61.65 -0.00784
61.7 -0.01117
61.75 -0.01534
61.8 -0.0185
61.85 -0.02288
61.9 -0.02701
61.95 -0.03102
62 -0.03402
62.05 -0.0374
62.1 -0.04114
62.15 -0.04477
62.2 -0.04776
62.25 -0.051
62.3 -0.05304
62.35 -0.05601
62.4 -0.05835
62.45 -0.05939
62.5 -0.0604
62.55 -0.06148
62.6 -0.06267
62.65 -0.06462
62.7 -0.06659
62.75 -0.06922
62.8 -0.07116
62.85 -0.0735
62.9 -0.07485
62.95 -0.0751
63 -0.07434
63.05 -0.07355
63.1 -0.07398
63.15 -0.07423
63.2 -0.07433
63.25 -0.07559
63.3 -0.07591
63.35 -0.07682
63.4 -0.07758
63.45 -0.07758
63.5 -0.07824
63.55 -0.07863
63.6 -0.07761
63.65 -0.07638
63.7 -0.07536
63.75 -0.07472
63.8 -0.07518
63.85 -0.07564
63.9 -0.07543
63.95 -0.07497
64 -0.07531
64.05 -0.0754
64.1 -0.07549
64.15 -0.07497
64.2 -0.07315
64.25 -0.07118
64.3 -0.0696
64.35 -0.06853
64.4 -0.06721
64.45 -0.06666
64.5 -0.0654
64.55 -0.06418
64.6 -0.06301
64.65 -0.06174
64.7 -0.05997
64.75 -0.05883
64.8 -0.05779
64.85 -0.05782
64.9 -0.05703
64.95 -0.05578
65 -0.05451
65.05 -0.05407
65.1 -0.05454
65.15 -0.05555
65.2 -0.05704
65.25 -0.05815
65.3 -0.05923
65.35 -0.06011
65.4 -0.05955
65.45 -0.05821
65.5 -0.05646
65.55 -0.05487
65.6 -0.05214
65.65 -0.05008
65.7 -0.04842
65.75 -0.04703
65.8 -0.04671
65.85 -0.04621
65.9 -0.04655
65.95 -0.04723
66 -0.04791
66.05 -0.04832
66.1 -0.0485
66.15 -0.04825
66.2 -0.04776
66.25 -0.04582
66.3 -0.04298
66.35 -0.04141
66.4 -0.04007
66.45 -0.03969
66.5 -0.03989
66.55 -0.03973
66.6 -0.03852
66.65 -0.038
66.7 -0.03648
66.75 -0.03415
66.8 -0.03165
66.85 -0.02949
66.9 -0.02775
66.95 -0.02581
67 -0.02593
67.05 -0.02714
67.1 -0.02847
67.15 -0.02928
67.2 -0.03004
67.25 -0.03113
67.3 -0.0321
67.35 -0.03239
67.4 -0.0327
67.45 -0.03271
67.5 -0.03125
67.55 -0.0304
67.6 -0.02916
67.65 -0.02815
67.7 -0.02678
67.75 -0.02486
67.8 -0.02263
67.85 -0.0213
67.9 -0.01954
67.95 -0.01946
68 -0.01951
68.05 -0.02006
68.1 -0.02152
68.15 -0.0229
68.2 -0.02429
68.25 -0.02486
68.3 -0.02509
68.35 -0.02441
68.4 -0.02419
68.45 -0.02323
68.5 -0.02167
68.55 -0.02124
68.6 -0.01989
68.65 -0.01841
68.7 -0.01636
68.75 -0.01436
68.8 -0.01417
68.85 -0.01379
68.9 -0.0129
68.95 -0.01177
69 -0.01061
69.05 -0.0112
69.1 -0.0124
69.15 -0.01367
69.2 -0.01559
69.25 -0.01767
69.3 -0.01777
69.35 -0.0169
69.4 -0.01642
69.45 -0.01561
69.5 -0.01543
69.55 -0.01583
69.6 -0.01622
69.65 -0.01692
69.7 -0.01627
69.75 -0.01497
69.8 -0.01436
69.85 -0.01275
69.9 -0.01226
69.95 -0.01144
70 -0.01003
70.05 -0.01
70.1 -0.01073
70.15 -0.01192
70.2 -0.01152
70.25 -0.01153
70.3 -0.01162
70.35 -0.01167
70.4 -0.0123
70.45 -0.01299
70.5 -0.01395
70.55 -0.01407
70.6 -0.01466
70.65 -0.01408
70.7 -0.01273
70.75 -0.011
70.8 -0.0105
70.85 -0.00949
70.9 -0.00828
70.95 -0.00723
71 -0.00694
71.05 -0.0058
71.1 -0.00506
71.15 -0.00579
71.2 -0.00613
71.25 -0.00599
71.3 -0.00542
71.35 -0.00539
71.4 -0.00529
71.45 -0.00463
71.5 -0.00432
71.55 -0.00376
71.6 -0.00407
71.65 -0.00548
71.7 -0.00671
71.75 -0.00695
71.8 -0.0081
71.85 -0.00905
71.9 -0.01018
71.95 -0.00987
72 -0.00896
72.05 -0.00783
72.1 -0.00687
72.15 -0.00712
72.2 -0.00647
72.25 -0.00703
72.3 -0.00786
72.35 -0.00883
72.4 -0.00869
72.45 -0.00736
72.5 -0.00583
72.55 -0.00541
72.6 -0.0049
72.65 -0.00551
72.7 -0.00558
72.75 -0.00619
72.8 -0.00656
72.85 -0.00643
72.9 -0.00626
72.95 -0.00669
73 -0.00782
73.05 -0.00898
73.1 -0.0086
73.15 -0.00803
73.2 -0.00628
73.25 -0.0055
73.3 -0.00404
73.35 -0.00351
73.4 -0.00406
73.45 -0.00445
73.5 -0.00523
73.55 -0.00556
73.6 -0.00585
73.65 -0.00574
73.7 -0.00443
73.75 -0.00285
73.8 -0.00223
73.85 -0.00201
73.9 -0.0026
73.95 -0.00289
74 -0.00308
74.05 -0.00405
74.1 -0.00504
74.15 -0.00514
74.2 -0.00572
74.25 -0.00645
74.3 -0.00639
74.35 -0.00685
74.4 -0.00764
74.45 -0.0078
74.5 -0.00691
74.55 -0.00496
74.6 -0.00338
74.65 -0.00241
74.7 -0.0012
74.75 -0.00095
74.8 -0.00142
74.85 -0.00228
74.9 -0.00308
74.95 -0.0034
75 -0.00268
75.05 -0.00231
75.1 -0.00216
75.15 -0.00145
75.2 -0.00173
75.25 -0.00106
75.3 -0.00002
75.35 -0.00011
75.4 -0.00077
75.45 -0.00092
75.5 -0.00137
75.55 -0.00211
75.6 -0.00342
75.65 -0.00369
75.7 -0.00289
75.75 -0.00282
75.8 -0.00338
75.85 -0.00311
75.9 -0.00369
75.95 -0.00349
76 -0.00334
76.05 -0.00379
76.1 -0.00345
76.15 -0.00289
76.2 -0.00247
76.25 -0.0016
76.3 -0.00106
76.35 0.00009
76.4 0.00131
76.45 0.00283
76.5 0.00273
76.55 0.00155
76.6 0.00141
76.65 0.00142
76.7 0.00217
76.75 0.00293
76.8 0.00253
76.85 0.00202
76.9 0.00172
76.95 0.0007
77 -0.00021
77.05 -0.00011
77.1 -0.0004
77.15 -0.00092
77.2 -0.00191
77.25 -0.00186
77.3 -0.00241
77.35 -0.00213
77.4 -0.00156
77.45 -0.00199
77.5 -0.00291
77.55 -0.0026
77.6 -0.00235
77.65 -0.00105
77.7 0.00062
77.75 0.00205
77.8 0.00227
77.85 0.00252
77.9 0.00325
77.95 0.00343
78 0.00313
78.05 0.00304
78.1 0.00295
78.15 0.00274
78.2 0.00126
78.25 -0.00054
78.3 -0.00097
78.35 -0.00064
78.4 -0.00117
78.45 -0.0025
78.5 -0.00398
78.55 -0.00369
78.6 -0.00308
78.65 -0.00209
78.7 -0.00046
78.75 0.00025
78.8 0.00002
78.85 0.00021
78.9 -0.00003
78.95 0.00074
79 0.00167
79.05 0.00273
79.1 0.00364
79.15 0.00411
79.2 0.00331
79.25 0.00159
79.3 0.0012
79.35 0.00068
79.4 0.0002
79.45 0.00076
79.5 0.00102
79.55 0.00198
79.6 0.00265
79.65 0.0033
79.7 0.00277
79.75 0.00198
79.8 0.00081
79.85 -0.00111
79.9 -0.00274
79.95 -0.00293
80 -0.00321
80.05 -0.00234
80.1 -0.00221
80.15 -0.0016
80.2 -0.00123
80.25 -0.00141
80.3 -0.00047
80.35 0.00077
80.4 0.00231
80.45 0.00382
80.5 0.004
80.55 0.00361
80.6 0.00235
80.65 0.00227
80.7 0.00138
80.75 0.00006
80.8 -0.0007
80.85 -0.00141
80.9 -0.00256
80.95 -0.00291
81 -0.00399
81.05 -0.00356
81.1 -0.00364
81.15 -0.0041
81.2 -0.0046
81.25 -0.00429
81.3 -0.00415
81.35 -0.00363
81.4 -0.00206
81.45 -0.00098
81.5 0.00004
81.55 0.00042
81.6 0.00103
81.65 0.0021
81.7 0.00261
81.75 0.00179
81.8 0.00052
81.85 -0.00046
81.9 -0.00136
81.95 -0.00107
82 -0.00101
82.05 -0.00156
82.1 -0.00178
82.15 -0.00155
82.2 -0.00073
82.25 -0.00019
82.3 -0.00028
82.35 -0.00037
82.4 0.0006
82.45 0.00097
82.5 0.00161
82.55 0.00234
82.6 0.00225
82.65 0.00191
82.7 0.00148
82.75 0.00196
82.8 0.00247
82.85 0.00171
82.9 0.00147
82.95 0.00192
83 0.00224
83.05 0.00315
83.1 0.00421
83.15 0.00457
83.2 0.00451
83.25 0.00426
83.3 0.0042
83.35 0.0039
83.4 0.00225
83.45 0.00049
83.5 -0.00057
83.55 -0.00216
83.6 -0.00311
83.65 -0.00388
83.7 -0.00325
83.75 -0.0019
83.8 -0.00134
83.85 -0.00095
83.9 -0.00167
83.95 -0.0021
84 -0.00213
84.05 -0.00173
84.1 -0.00067
84.15 -0.00082
84.2 -0.00051
84.25 -0.00064
84.3 -0.0001
84.35 0.00111
84.4 0.00162
84.45 0.00107
84.5 -0.00042
84.55 -0.00208
84.6 -0.00213
84.65 -0.00127
84.7 -0.00062
84.75 -0.00088
84.8 -0.00006
84.85 0.00049
84.9 0.00153
84.95 0.00131
85 0.00141
85.05 0.00229
85.1 0.00316
85.15 0.00367
85.2 0.00254
85.25 0.00141
85.3 -0.00025
85.35 -0.00202
85.4 -0.00208
85.45 -0.00131
85.5 -0.00118
85.55 -0.00095
85.6 -0.00139
85.65 -0.00064
85.7 -0.00079
85.75 -0.00156
85.8 -0.00217
85.85 -0.00259
85.9 -0.00314
85.95 -0.00265
86 -0.00225
86.05 -0.00204
86.1 -0.00115
86.15 -0.00075
86.2 -0.00107
86.25 -0.00024
86.3 0.0002
86.35 0.00068
86.4 0.00172
86.45 0.00108
86.5 -0.00027
86.55 -0.0015
86.6 -0.00308
86.65 -0.00341
86.7 -0.00432
86.75 -0.00441
86.8 -0.00369
86.85 -0.00371
86.9 -0.0045
86.95 -0.00572
87 -0.00637
87.05 -0.00523
87.1 -0.00443
87.15 -0.00361
87.2 -0.00258
87.25 -0.00172
87.3 -0.00015
87.35 -0.00014
87.4 0.00062
87.45 0.00079
87.5 0.00138
87.55 0.00265
87.6 0.00286
87.65 0.00283
87.7 0.00205
87.75 0.00223
87.8 0.00261
87.85 0.00311
87.9 0.00263
87.95 0.00184
88 0.0005
88.05 -0.00025
88.1 -0.00093
88.15 -0.00186
88.2 -0.00285
88.25 -0.00402
88.3 -0.00521
88.35 -0.0055
88.4 -0.00581
88.45 -0.00506
88.5 -0.00502
88.55 -0.00556
88.6 -0.00552
88.65 -0.0059
88.7 -0.00539
88.75 -0.004
88.8 -0.003
88.85 -0.00201
88.9 -0.00154
88.95 -0.0016
89 -0.00219
89.05 -0.00205
89.1 -0.00134
89.15 0.00025
89.2 0.00231
89.25 0.00284
89.3 0.00373
89.35 0.00323
89.4 0.00294
89.45 0.00173
89.5 0.00093
89.55 -0.00015
89.6 -0.00113
89.65 -0.00087
89.7 0.00029
89.75 0.00039
89.8 -0.00054
89.85 -0.00041
89.9 -0.00136
89.95 -0.00188
90 -0.00243
90.05 -0.0026
90.1 -0.00174
90.15 -0.0006
90.2 0.00002
90.25 0.00021
90.3 0.0012
90.35 0.00186
90.4 0.003
90.45 0.00421
90.5 0.00454
90.55 0.00343
90.6 0.00271
90.65 0.00208
90.7 0.00218
90.75 0.00272
90.8 0.00297
90.85 0.00206
90.9 0.00184
90.95 0.00167
91 0.00192
91.05 0.00194
91.1 0.00252
91.15 0.0028
91.2 0.00313
91.25 0.00231
91.3 0.00063
91.35 -0.00076
91.4 -0.00055
91.45 0.00047
91.5 0.002
91.55 0.00378
91.6 0.00406
91.65 0.00395
91.7 0.00371
91.75 0.00332
91.8 0.00309
91.85 0.00318
91.9 0.00339
91.95 0.00271
92 0.0028
92.05 0.00171
92.1 0.00053
92.15 -0.00016
92.2 -0.00164
92.25 -0.0021
92.3 -0.0019
92.35 -0.00088
92.4 -0.00013
92.45 -0.00013
92.5 0.0002
92.55 0.00098
92.6 0.00082
92.65 0.00163
92.7 0.00207
92.75 0.00271
92.8 0.00364
92.85 0.00439
92.9 0.00453
92.95 0.0048
93 0.00425
93.05 0.0033
93.1 0.00132
93.15 -0.00025
93.2 -0.00067
93.25 -0.00038
93.3 -0.00089
93.35 -0.00203
93.4 -0.00292
93.45 -0.00316
93.5 -0.00231
93.55 -0.00253
93.6 -0.00234
93.65 -0.00155
93.7 -0.00191
93.75 -0.0021
93.8 -0.00202
93.85 -0.00133
93.9 -0.00057
93.95 0.00056
94 0.00035
94.05 0.00056
94.1 -0.00051
94.15 -0.00219
94.2 -0.00254
94.25 -0.00204
94.3 -0.00241
94.35 -0.00297
94.4 -0.00291
94.45 -0.00328
94.5 -0.00247
94.55 -0.00186
94.6 -0.00101
94.65 -0.00071
94.7 -0.00062
94.75 0.00017
94.8 -0.00047
94.85 0.00005
94.9 0.00067
94.95 0.00181
95 0.00158
95.05 0.00202
95.1 0.00174
95.15 0.00064
95.2 -0.00108
95.25 -0.00113
95.3 -0.00133
95.35 -0.00082
95.4 -0.00052
95.45 -0.00094
95.5 -0.0002
95.55 0.00089
95.6 0.00204
95.65 0.00152
95.7 -0.00002
95.75 -0.00079
95.8 -0.00114
95.85 -0.00037
95.9 0.0002
95.95 0.00031
96 0.0001
96.05 -0.00098
96.1 -0.00088
96.15 0.00008
96.2 0.00144
96.25 0.00166
96.3 0.00138
96.35 0.00087
96.4 0.00038
96.45 -0.00086
96.5 -0.0027
96.55 -0.00356
96.6 -0.00324
96.65 -0.0028
96.7 -0.00271
96.75 -0.00283
96.8 -0.00229
96.85 -0.0011
96.9 -0.00057
96.95 0.0006
97 0.00151
97.05 0.00218
97.1 0.00195
97.15 0.00055
97.2 -0.00103
97.25 -0.0016
97.3 -0.00163
97.35 -0.00055
97.4 -0.00082
97.45 -0.00108
97.5 -0.00203
97.55 -0.00187
97.6 -0.00064
97.65 0.00053
97.7 0.00125
97.75 0.00222
97.8 0.00296
97.85 0.00217
97.9 0.00065
97.95 0.0006
98 -0.00055
98.05 -0.00136
98.1 -0.00164
98.15 -0.00156
98.2 -0.00124
98.25 -0.00199
98.3 -0.00198
98.35 -0.00271
98.4 -0.00391
98.45 -0.00347
98.5 -0.00266
98.55 -0.00298
98.6 -0.00254
98.65 -0.00106
98.7 -0.00045
98.75 -0.00029
98.8 -0.00032
98.85 -0.00081
98.9 -0.00007
98.95 0.00098
99 0.00196
99.05 0.00192
99.1 0.00139
99.15 0.00166
99.2 0.00171
99.25 0.0011
99.3 0.00027
99.35 -0.00134
99.4 -0.00282
99.45 -0.00258
99.5 -0.00284
99.55 -0.00369
99.6 -0.0045
99.65 -0.00546
99.7 -0.00567
99.75 -0.00441
99.8 -0.00291
99.85 -0.00218
99.9 -0.00163
99.95 -0.00053
