0 0
0.05 0.00056
0.1 0.00125
0.15 0.00285
0.2 0.00473
0.25 0.00724
0.3 0.00961
0.35 0.01063
0.4 0.01187
0.45 0.01239
0.5 0.01348
0.55 0.01413
0.6 0.01519
0.65 0.01487
0.7 0.01427
0.75 0.01405
0.8 0.01414
0.85 0.01428
0.9 0.01365
0.95 0.01225
1 0.01204
1.05 0.01123
1.1 0.01084
1.15 0.01085
1.2 0.01118
1.25 0.01115
1.3 0.0115
1.35 0.01132
1.4 0.0109
1.45 0.01075
1.5 0.01099
1.55 0.00999
1.6 0.00877
1.65 0.00853
1.7 0.00798
1.75 0.00691
1.8 0.00568
1.85 0.00562
1.9 0.00474
1.95 0.00352
2 0.00242
2.05 0.00252
2.1 0.00334
2.15 0.00309
2.2 0.00307
2.25 0.00297
2.3 0.00388
2.35 0.00384
2.4 0.00316
2.45 0.00387
2.5 0.00542
2.55 0.00551
2.6 0.00476
2.65 0.00347
2.7 0.00298
2.75 0.00261
2.8 0.00279
2.85 0.00393
2.9 0.00466
2.95 0.00437
3 0.00451
3.05 0.00386
3.1 0.004
3.15 0.00352
3.2 0.00357
3.25 0.00391
3.3 0.00416
3.35 0.00391
3.4 0.00444
3.45 0.00548
3.5 0.00637
3.55 0.00763
3.6 0.00907
3.65 0.00918
3.7 0.00978
3.75 0.00896
3.8 0.00803
3.85 0.00612
3.9 0.0056
3.95 0.00578
4 0.00629
4.05 0.00611
4.1 0.005
4.15 0.00418
4.2 0.00359
4.25 0.00261
4.3 0.00205
4.35 0.00269
4.4 0.00331
4.45 0.0036
4.5 0.00407
4.55 0.00492
4.6 0.00536
4.65 0.00492
4.7 0.00452
4.75 0.00341
4.8 0.00258
4.85 0.00133
4.9 0.00092
4.95 0.00141
5 0.00131
5.05 0.00112
5.1 0.00127
5.15 0.00143
5.2 0.00083
5.25 0.00049
5.3 -0.0002
5.35 -0.00071
5.4 -0.00039
5.45 -0.00007
5.5 0.00022
5.55 -0.00014
5.6 0.00026
5.65 -0.00011
5.7 -0.00078
5.75 -0.00139
5.8 -0.00127
5.85 -0.0018
5.9 -0.00145
5.95 -0.00047
6 0.00058
6.05 0.00082
6.1 0.00166
6.15 0.00218
6.2 0.00276
6.25 0.00353
6.3 0.00469
6.35 0.00551
6.4 0.0056
6.45 0.00633
6.5 0.0068
6.55 0.00571
6.6 0.00376
6.65 0.00258
6.7 0.00111
6.75 -0.00068
6.8 -0.00208
6.85 -0.00279
6.9 -0.00304
6.95 -0.00225
7 -0.00048
7.05 0.00152
7.1 0.00231
7.15 0.00215
7.2 0.00252
7.25 0.00216
7.3 0.00153
7.35 0.00152
7.4 0.00209
7.45 0.00337
7.5 0.0034
7.55 0.00313
7.6 0.00225
7.65 0.00159
7.7 0.00073
7.75 -0.00069
7.8 -0.00169
7.85 -0.00293
7.9 -0.00257
7.95 -0.00227
8 -0.00148
8.05 -0.00088
8.1 -0.00008
8.15 -0.00034
8.2 -0.0003
8.25 -0.00089
8.3 -0.00074
8.35 -0.00068
8.4 -0.00037
8.45 0.00096
8.5 0.00097
8.55 0.00164
8.6 0.00201
8.65 0.00154
8.7 0.00098
8.75 -0.00007
8.8 -0.00099
8.85 -0.00156
8.9 -0.00162
8.95 -0.00188
9 -0.00176
9.05 -0.00217
9.1 -0.00242
9.15 -0.00272
9.2 -0.00229
9.25 -0.00216
9.3 -0.0018
9.35 -0.00055
9.4 0.00105
9.45 0.00136
9.5 0.00205
9.55 0.00283
9.6 0.00402
9.65 0.00527
9.7 0.00523
9.75 0.00416
9.8 0.00337
9.85 0.00203
9.9 0.0001
9.95 -0.00151
10 -0.00156
10.05 -0.00134
10.1 -0.00024
10.15 -0.00031
10.2 -0.00015
10.25 -0.00091
10.3 -0.00201
10.35 -0.00284
10.4 -0.00224
10.45 -0.00142
10.5 0.00025
10.55 0.00083
10.6 0.00131
10.65 0.00247
10.7 0.0023
10.75 0.00254
10.8 0.00243
10.85 0.00302
10.9 0.00405
10.95 0.00355
11 0.00216
11.05 0.00124
11.1 0.00045
11.15 0.0001
11.2 0.00066
11.25 0.00021
11.3 -0.00052
11.35 -0.00037
11.4 -0.00017
11.45 0.00087
11.5 0.00057
11.55 -0.00049
11.6 -0.00093
11.65 -0.00162
11.7 -0.00243
11.75 -0.00297
11.8 -0.00244
11.85 -0.00131
11.9 -0.00058
11.95 0.00048
12 0.00206
12.05 0.00218
12.1 0.00226
12.15 0.00205
12.2 0.00187
12.25 0.00102
12.3 0.00095
12.35 -0.00003
12.4 0.00014
12.45 0.00094
12.5 0.00111
12.55 0.00066
12.6 -0.00024
12.65 -0.00072
12.7 -0.00029
12.75 0.00015
12.8 0.0006
12.85 0.00019
12.9 -0.00051
12.95 -0.00151
13 -0.0025
13.05 -0.00374
13.1 -0.00357
13.15 -0.00261
13.2 -0.00245
13.25 -0.0017
13.3 -0.0009
13.35 -0.00108
13.4 -0.00072
13.45 0.00057
13.5 0.00175
13.55 0.00327
13.6 0.00305
13.65 0.00199
13.7 0.0018
13.75 0.00171
13.8 0.00207
13.85 0.00164
13.9 0.00218
13.95 0.00285
14 0.00252
14.05 0.00297
14.1 0.00388
14.15 0.00415
14.2 0.0035
14.25 0.0036
14.3 0.00434
14.35 0.00402
14.4 0.00285
14.45 0.00115
14.5 -0.00027
14.55 -0.00152
14.6 -0.00191
14.65 -0.0015
14.7 -0.00185
14.75 -0.00284
14.8 -0.00349
14.85 -0.00346
14.9 -0.0036
14.95 -0.00272
15 -0.00252
15.05 -0.00301
15.1 -0.00302
15.15 -0.00219
15.2 -0.00216
15.25 -0.00281
15.3 -0.00232
15.35 -0.00183
15.4 -0.00209
15.45 -0.00206
15.5 -0.00088
15.55 -0.00035
15.6 0.00024
15.65 0.00097
15.7 0.00139
15.75 0.00171
15.8 0.00218
15.85 0.00223
15.9 0.00252
15.95 0.00157
16 0.00188
16.05 0.00189
16.1 0.00249
16.15 0.00296
16.2 0.00256
16.25 0.00221
16.3 0.00201
16.35 0.0024
16.4 0.00263
16.45 0.00285
16.5 0.00302
16.55 0.00206
16.6 0.00213
16.65 0.00162
16.7 0.00022
16.75 0.00002
16.8 -0.00023
16.85 -0.00057
16.9 -0.00032
16.95 0.00054
17 0.00108
17.05 0.00046
17.1 -0.00072
17.15 -0.00141
17.2 -0.00135
17.25 -0.00034
17.3 -0.00006
17.35 -0.00026
17.4 0.00037
17.45 0.0005
17.5 0.00007
17.55 -0.00018
17.6 0.00001
17.65 -0.00027
17.7 -0.00132
17.75 -0.00188
17.8 -0.00267
17.85 -0.00209
17.9 -0.00161
17.95 -0.00041
18 -0.00008
18.05 -0.00077
18.1 -0.00201
18.15 -0.00253
18.2 -0.00355
18.25 -0.00321
18.3 -0.00326
18.35 -0.0022
18.4 -0.00036
18.45 0.00164
18.5 0.00212
18.55 0.00139
18.6 0.00044
18.65 0.00061
18.7 0.00084
18.75 0.00054
18.8 -0.00033
18.85 -0.0003
18.9 0.00051
18.95 0.0009
19 0.00211
19.05 0.00202
19.1 0.00182
19.15 0.00087
19.2 0.00062
19.25 -0.00011
19.3 -0.00025
19.35 -0.00001
19.4 -0.00036
19.45 -0.00002
19.5 -0.00038
19.55 -0.00016
19.6 0.0006
19.65 0.00162
19.7 0.00249
19.75 0.0022
19.8 0.00283
19.85 0.00224
19.9 0.0019
19.95 0.00156
20 0.002
20.05 0.00255
20.1 0.00209
20.15 0.00146
20.2 0
20.25 -0.00035
20.3 -0.00117
20.35 -0.00105
20.4 0.00004
20.45 0.00083
20.5 0.0004
20.55 0.00002
20.6 -0.00088
20.65 -0.00145
20.7 -0.00249
20.75 -0.00332
20.8 -0.00409
20.85 -0.00475
20.9 -0.00568
20.95 -0.00478
21 -0.00421
21.05 -0.00406
21.1 -0.00258
21.15 -0.00082
21.2 0.00052
21.25 0.00137
21.3 0.00084
21.35 -0.00048
21.4 -0.00206
21.45 -0.00245
21.5 -0.0031
21.55 -0.00375
21.6 -0.00317
21.65 -0.0031
21.7 -0.00312
21.75 -0.00286
21.8 -0.00215
21.85 -0.00241
21.9 -0.00142
21.95 -0.00019
22 0.00167
22.05 0.00264
22.1 0.00334
22.15 0.0043
22.2 0.00498
22.25 0.00525
22.3 0.00436
22.35 0.00433
22.4 0.00302
22.45 0.00271
22.5 0.00157
22.55 0.00101
22.6 0.0016
22.65 0.00255
22.7 0.00323
22.75 0.00241
22.8 0.00124
22.85 0.0003
22.9 -0.00119
22.95 -0.00118
23 -0.00099
23.05 0.00017
23.1 0.00101
23.15 0.00181
23.2 0.00199
23.25 0.0019
23.3 0.00216
23.35 0.0025
23.4 0.00241
23.45 0.00124
23.5 -0.00019
23.55 -0.00065
23.6 -0.00168
23.65 -0.00148
23.7 -0.00101
23.75 -0.00046
23.8 0.00026
23.85 0.00154
23.9 0.0031
23.95 0.0037
24 0.00404
24.05 0.00425
24.1 0.00334
24.15 0.00169
24.2 0.00086
24.25 0.00114
24.3 0.00141
24.35 0.00098
24.4 0.00055
24.45 0.0007
24.5 0.00079
24.55 0.00093
24.6 0.00107
24.65 0.00096
24.7 0.00058
24.75 -0.00061
24.8 -0.00171
24.85 -0.00192
24.9 -0.00277
24.95 -0.00354
25 -0.00465
25.05 -0.00521
25.1 -0.00479
25.15 -0.00407
25.2 -0.00376
25.25 -0.00323
25.3 -0.00267
25.35 -0.0016
25.4 0.00001
25.45 0.00138
25.5 0.00301
25.55 0.00445
25.6 0.00407
25.65 0.00434
25.7 0.00326
25.75 0.0032
25.8 0.00285
25.85 0.00168
25.9 0.0007
25.95 0.00005
26 -0.0006
26.05 -0.00009
26.1 -0.00003
26.15 -0.00097
26.2 -0.00237
26.25 -0.00378
26.3 -0.00509
26.35 -0.00646
26.4 -0.00731
26.45 -0.00778
26.5 -0.00815
26.55 -0.00764
26.6 -0.00607
26.65 -0.0036
26.7 -0.00231
26.75 -0.00119
26.8 0.00065
26.85 0.00168
26.9 0.00142
26.95 0.00134
27 0.00203
27.05 0.00137
27.1 0.0002
27.15 -0.00142
27.2 -0.00274
27.25 -0.00321
27.3 -0.00271
27.35 -0.0023
27.4 -0.00127
27.45 -0.00092
27.5 -0.0007
27.55 0.00018
27.6 -0.0002
27.65 0.00002
27.7 0.00021
27.75 -0.00061
27.8 -0.00187
27.85 -0.00307
27.9 -0.00291
27.95 -0.00257
28 -0.00243
28.05 -0.00242
28.1 -0.00132
28.15 0.00049
28.2 0.00245
28.25 0.00359
28.3 0.00317
28.35 0.0029
28.4 0.00157
28.45 0.00053
28.5 -0.00075
28.55 -0.00114
28.6 -0.00156
28.65 -0.00201
28.7 -0.0016
28.75 -0.001
28.8 -0.00048
28.85 -0.0005
28.9 0.00039
28.95 0.00106
29 0.00191
29.05 0.00209
29.1 0.00161
29.15 0.00187
29.2 0.00156
29.25 0.00191
29.3 0.00265
29.35 0.00198
29.4 0.00226
29.45 0.0029
29.5 0.00251
29.55 0.0029
29.6 0.00349
29.65 0.00432
29.7 0.00353
29.75 0.00207
29.8 0.0016
29.85 0.00081
29.9 0.0002
29.95 -0.00097
30 -0.00214
30.05 -0.00236
30.1 -0.00142
30.15 -0.00104
30.2 -0.00073
30.25 -0.00012
30.3 0.00047
30.35 0.00044
30.4 -0.00024
30.45 -0.00132
30.5 -0.00098
30.55 -0.00092
30.6 -0.00102
30.65 -0.0016
30.7 -0.00216
30.75 -0.00237
30.8 -0.00145
30.85 -0.0007
30.9 -0.0001
30.95 -0.00026
31 -0.00062
31.05 -0.00093
31.1 -0.00112
31.15 -0.00024
31.2 0.00084
31.25 0.00139
31.3 0.00105
31.35 0.00093
31.4 0.00108
31.45 0.00044
31.5 -0.00028
31.55 -0.00112
31.6 -0.00065
31.65 -0.00027
31.7 0.00084
31.75 0.00137
31.8 0.001
31.85 0.0011
31.9 0.00129
31.95 0.00174
32 0.00223
32.05 0.00178
32.1 0.00071
32.15 0.00011
32.2 0.00008
32.25 0.00038
32.3 0.00152
32.35 0.00295
32.4 0.00423
32.45 0.00552
32.5 0.006
32.55 0.0065
32.6 0.00537
32.65 0.00335
32.7 0.00177
32.75 0.00144
32.8 0.00089
32.85 0.00094
32.9 0.00024
32.95 0.00011
33 0.00096
33.05 0.00161
33.1 0.00118
33.15 0.00116
33.2 0.00027
33.25 0.00013
33.3 -0.00072
33.35 -0.00162
33.4 -0.00129
33.45 -0.00084
33.5 0.00008
33.55 -0.00018
33.6 0.00037
33.65 0.00034
33.7 -0.00023
33.75 -0.00152
33.8 -0.00157
33.85 -0.0009
33.9 -0.00103
33.95 -0.00083
34 -0.00067
34.05 0.00007
34.1 0.00041
34.15 0.00128
34.2 0.00138
34.25 0.00069
34.3 -0.00055
34.35 -0.0022
34.4 -0.00322
34.45 -0.00461
34.5 -0.00457
34.55 -0.00437
34.6 -0.003
34.65 -0.00201
34.7 -0.00161
34.75 -0.00197
34.8 -0.00236
34.85 -0.00156
34.9 -0.00068
34.95 0.00074
35 0.00062
35.05 0.00021
35.1 -0.001
35.15 -0.00201
35.2 -0.0029
35.25 -0.00294
35.3 -0.00186
35.35 -0.00176
35.4 -0.00227
35.45 -0.00172
35.5 -0.00142
35.55 -0.00031
35.6 -0.00005
35.65 0.00042
35.7 0.00019
35.75 0.00027
35.8 -0.00044
35.85 -0.00119
35.9 -0.00222
35.95 -0.00247
36 -0.00242
36.05 -0.00128
36.1 -0.00126
36.15 -0.0006
36.2 -0.00034
36.25 -0.0004
36.3 -0.00036
36.35 -0.00012
36.4 0.00001
36.45 0.00107
36.5 0.00226
36.55 0.00247
36.6 0.00243
36.65 0.00209
36.7 0.00198
36.75 0.00204
36.8 0.00147
36.85 0.00132
36.9 0.00189
36.95 0.00256
37 0.00318
37.05 0.00322
37.1 0.00303
37.15 0.00267
37.2 0.00257
37.25 0.00283
37.3 0.00335
37.35 0.00255
37.4 0.00096
37.45 -0.00034
37.5 -0.00073
37.55 -0.00142
37.6 -0.00237
37.65 -0.00244
37.7 -0.00283
37.75 -0.0025
37.8 -0.0021
37.85 -0.00071
37.9 0.00032
37.95 0.00105
38 0.00044
38.05 -0.00084
38.1 -0.00151
38.15 -0.00193
38.2 -0.00169
38.25 -0.00161
38.3 -0.00141
38.35 -0.00075
38.4 -0.00029
38.45 -0.00046
38.5 -0.00139
38.55 -0.00108
38.6 -0.00034
38.65 0.0002
38.7 0.00049
38.75 0.00093
38.8 0.00116
38.85 0.00024
38.9 -0.00072
38.95 -0.00199
39 -0.00322
39.05 -0.00438
39.1 -0.00562
39.15 -0.00678
39.2 -0.0075
39.25 -0.00782
39.3 -0.00815
39.35 -0.00807
39.4 -0.00719
39.45 -0.00677
39.5 -0.00623
39.55 -0.00493
39.6 -0.00355
39.65 -0.00163
39.7 -0.00055
39.75 -0.00069
39.8 -0.00092
39.85 -0.00185
39.9 -0.00223
39.95 -0.00292
40 -0.00265
40.05 -0.00223
40.1 -0.00248
40.15 -0.00216
40.2 -0.00102
40.25 0.0006
40.3 0.00202
40.35 0.00194
40.4 0.00232
40.45 0.00217
40.5 0.00117
40.55 -0.00021
40.6 -0.001
40.65 -0.00073
40.7 -0.00051
40.75 -0.00062
40.8 -0.0003
40.85 0.001
40.9 0.00164
40.95 0.00128
41 0.00192
41.05 0.00143
41.1 0.002
41.15 0.00217
41.2 0.00159
41.25 0.00138
41.3 0.00122
41.35 0.00157
41.4 0.00106
41.45 0.00092
41.5 0.00134
41.55 0.00245
41.6 0.00331
41.65 0.00399
41.7 0.00492
41.75 0.00556
41.8 0.00595
41.85 0.00538
41.9 0.00529
41.95 0.00473
42 0.00466
42.05 0.00509
42.1 0.0049
42.15 0.00479
42.2 0.00499
42.25 0.00523
42.3 0.00445
42.35 0.00399
42.4 0.00336
42.45 0.0026
42.5 0.00096
42.55 -0.00117
42.6 -0.00259
42.65 -0.00296
42.7 -0.00323
42.75 -0.00359
42.8 -0.00267
42.85 -0.00259
42.9 -0.00325
42.95 -0.00292
43 -0.00321
43.05 -0.00331
43.1 -0.00253
43.15 -0.00188
43.2 -0.00122
43.25 -0.00146
43.3 -0.00108
43.35 -0.00107
43.4 -0.00177
43.45 -0.00258
43.5 -0.0033
43.55 -0.00385
43.6 -0.00418
43.65 -0.00434
43.7 -0.00454
43.75 -0.00334
43.8 -0.00254
43.85 -0.00248
43.9 -0.0022
43.95 -0.0027
44 -0.00184
44.05 -0.00104
44.1 0.00001
44.15 0.00117
44.2 0.00236
44.25 0.00374
44.3 0.00339
44.35 0.00364
44.4 0.00336
44.45 0.00302
44.5 0.00235
44.55 0.00145
44.6 0.00093
44.65 0.00072
44.7 0.00004
44.75 -0.00023
44.8 -0.00072
44.85 -0.00085
44.9 -0.00124
44.95 -0.00174
45 -0.0011
45.05 0.00029
45.1 0.00032
45.15 0.00065
45.2 0.00125
45.25 0.00086
45.3 -0.00037
45.35 -0.00078
45.4 -0.00029
45.45 0.00084
45.5 0.00124
45.55 0.00198
45.6 0.00326
45.65 0.00389
45.7 0.00413
45.75 0.00348
45.8 0.00234
45.85 0.00102
45.9 0.00074
45.95 0.00075
46 0.00088
46.05 0.0004
46.1 0.00011
46.15 0.00089
46.2 0.00051
46.25 -0.00064
46.3 -0.00153
46.35 -0.00128
46.4 -0.00102
46.45 -0.00147
46.5 -0.00181
46.55 -0.00105
46.6 -0.00044
46.65 0.00013
46.7 0.00103
46.75 0.00114
46.8 0.00081
46.85 0.00077
46.9 -0.00013
46.95 0.00016
47 -0.00001
47.05 -0.00012
47.1 -0.0006
47.15 -0.00167
47.2 -0.00306
47.25 -0.00455
47.3 -0.00496
47.35 -0.00526
47.4 -0.00566
47.45 -0.00543
47.5 -0.005
47.55 -0.00399
47.6 -0.0032
47.65 -0.00223
47.7 -0.00137
47.75 -0.00083
47.8 -0.00129
47.85 -0.00044
47.9 0.00035
47.95 0.00055
48 -0
48.05 0.00031
48.1 0.00036
48.15 0.00133
48.2 0.00216
48.25 0.00221
48.3 0.00155
48.35 0.0007
48.4 0.00095
48.45 0.00144
48.5 0.0014
48.55 0.00038
48.6 -0.00071
48.65 -0.00217
48.7 -0.00188
48.75 -0.00228
48.8 -0.00177
48.85 -0.00102
48.9 -0.00032
48.95 0.0003
49 0.00083
49.05 0.0017
49.1 0.00233
49.15 0.00279
49.2 0.00304
49.25 0.00236
49.3 0.00268
49.35 0.00205
49.4 0.00245
49.45 0.00168
49.5 0.00011
49.55 -0.00105
49.6 -0.00231
49.65 -0.00303
49.7 -0.00365
49.75 -0.00459
49.8 -0.00376
49.85 -0.00255
49.9 -0.00116
49.95 0.00009
50 0.0016
50.05 0.00197
50.1 0.00246
50.15 0.00261
50.2 0.00277
50.25 0.0022
50.3 0.00262
50.35 0.00252
50.4 0.00211
50.45 0.00216
50.5 0.00287
50.55 0.00225
50.6 0.00083
50.65 -0.00093
50.7 -0.00284
50.75 -0.00481
50.8 -0.00696
50.85 -0.00898
50.9 -0.01093
50.95 -0.01224
51 -0.01266
51.05 -0.01257
51.1 -0.01178
51.15 -0.01107
51.2 -0.01069
51.25 -0.01095
51.3 -0.01182
51.35 -0.01485
51.4 -0.0184
51.45 -0.02195
51.5 -0.02741
51.55 -0.03282
51.6 -0.03997
51.65 -0.04756
51.7 -0.05667
51.75 -0.06704
51.8 -0.07867
51.85 -0.09049
51.9 -0.10449
51.95 -0.11909
52 -0.13519
52.05 -0.15315
52.1 -0.17257
52.15 -0.19398
52.2 -0.21582
52.25 -0.23888
52.3 -0.26285
52.35 -0.28865
52.4 -0.31659
52.45 -0.3446
52.5 -0.37303
52.55 -0.40222
52.6 -0.43076
52.65 -0.45954
52.7 -0.48729
52.75 -0.51293
52.8 -0.53793
52.85 -0.56149
52.9 -0.58322
52.95 -0.60236
53 -0.61791
53.05 -0.62948
53.1 -0.63735
53.15 -0.63928
53.2 -0.63603
53.25 -0.62831
53.3 -0.6162
53.35 -0.59959
53.4 -0.58021
53.45 -0.55715
53.5 -0.52973
53.55 -0.49972
53.6 -0.46549
53.65 -0.42894
53.7 -0.38972
53.75 -0.34764
53.8 -0.30481
53.85 -0.26051
53.9 -0.21561
53.95 -0.16953
54 -0.12421
54.05 -0.07944
54.1 -0.03547
54.15 0.00711
54.2 0.04948
54.25 0.09006
54.3 0.12805
54.35 0.16486
54.4 0.19994
54.45 0.23203
54.5 0.26118
54.55 0.28784
54.6 0.31419
54.65 0.33937
54.7 0.36164
54.75 0.38344
54.8 0.40357
54.85 0.42297
54.9 0.44043
54.95 0.45525
55 0.46831
55.05 0.48112
55.1 0.49258
55.15 0.50295
55.2 0.51129
55.25 0.51943
55.3 0.52693
55.35 0.53198
55.4 0.53653
55.45 0.53928
55.5 0.54037
55.55 0.54006
55.6 0.5386
55.65 0.53737
55.7 0.5346
55.75 0.5314
55.8 0.52798
55.85 0.52297
55.9 0.51722
55.95 0.51052
56 0.5018
56.05 0.49248
56.1 0.48302
56.15 0.47266
56.2 0.46242
56.25 0.45128
56.3 0.44027
56.35 0.42731
56.4 0.4141
56.45 0.40136
56.5 0.38892
56.55 0.37558
56.6 0.36089
56.65 0.34599
56.7 0.33077
56.75 0.3164
56.8 0.30196
56.85 0.2884
56.9 0.27414
56.95 0.26066
57 0.24665
57.05 0.23341
57.1 0.22017
57.15 0.20859
57.2 0.19809
57.25 0.18836
57.3 0.17891
57.35 0.16839
57.4 0.15847
57.45 0.14824
57.5 0.13716
57.55 0.12691
57.6 0.11692
57.65 0.108
57.7 0.09836
57.75 0.08947
57.8 0.08158
57.85 0.07401
57.9 0.06669
57.95 0.05968
58 0.05305
58.05 0.04694
58.1 0.03978
58.15 0.03312
58.2 0.02625
58.25 0.01898
58.3 0.01193
58.35 0.00514
58.4 -0.00144
58.45 -0.00739
58.5 -0.01186
58.55 -0.01632
58.6 -0.01929
58.65 -0.02298
58.7 -0.02638
58.75 -0.02915
58.8 -0.03078
58.85 -0.03329
58.9 -0.03637
58.95 -0.04011
59 -0.04307
59.05 -0.0467
59.1 -0.04899
59.15 -0.0515
59.2 -0.05289
59.25 -0.05344
59.3 -0.05412
59.35 -0.05548
59.4 -0.05612
59.45 -0.05719
59.5 -0.05824
59.55 -0.05875
59.6 -0.05925
59.65 -0.06041
59.7 -0.06169
59.75 -0.06237
59.8 -0.06392
59.85 -0.06503
59.9 -0.0672
59.95 -0.06934
60 -0.07128
60.05 -0.07292
60.1 -0.07434
60.15 -0.07549
60.2 -0.07665
60.25 -0.07683
60.3 -0.0765
60.35 -0.07709
60.4 -0.07695
60.45 -0.07734
60.5 -0.07764
60.55 -0.07843
60.6 -0.07897
60.65 -0.07876
60.7 -0.07793
60.75 -0.07774
60.8 -0.07631
60.85 -0.07403
60.9 -0.07233
60.95 -0.07068
61 -0.06952
61.05 -0.06761
61.1 -0.06611
61.15 -0.06534
61.2 -0.06568
61.25 -0.06666
61.3 -0.06713
61.35 -0.06755
61.4 -0.06781
61.45 -0.06718
61.5 -0.06589
61.55 -0.06369
61.6 -0.06163
61.65 -0.06076
61.7 -0.05948
61.75 -0.05877
61.8 -0.05808
61.85 -0.05704
61.9 -0.05592
61.95 -0.05439
62 -0.05366
62.05 -0.05331
62.1 -0.05253
62.15 -0.05216
62.2 -0.05127
62.25 -0.05089
62.3 -0.05103
62.35 -0.05044
62.4 -0.0496
62.45 -0.04924
62.5 -0.04903
62.55 -0.04798
62.6 -0.04739
62.65 -0.04712
62.7 -0.0466
62.75 -0.0466
62.8 -0.0463
62.85 -0.04654
62.9 -0.0452
62.95 -0.04353
63 -0.04119
63.05 -0.0402
63.1 -0.03967
63.15 -0.03942
63.2 -0.03877
63.25 -0.03815
63.3 -0.0383
63.35 -0.03865
63.4 -0.03851
63.45 -0.03775
63.5 -0.03613
63.55 -0.03378
63.6 -0.03113
63.65 -0.03037
63.7 -0.02974
63.75 -0.02933
63.8 -0.02827
63.85 -0.02736
63.9 -0.02597
63.95 -0.02573
64 -0.02551
64.05 -0.0247
64.1 -0.02363
64.15 -0.02241
64.2 -0.02245
64.25 -0.02244
64.3 -0.02298
64.35 -0.02282
64.4 -0.02365
64.45 -0.02369
64.5 -0.02402
64.55 -0.02369
64.6 -0.02431
64.65 -0.02467
64.7 -0.02468
64.75 -0.02465
64.8 -0.02462
64.85 -0.02425
64.9 -0.02467
64.95 -0.02399
65 -0.02278
65.05 -0.02281
65.1 -0.02225
65.15 -0.02151
65.2 -0.02053
65.25 -0.01919
65.3 -0.01929
65.35 -0.02003
65.4 -0.02007
65.45 -0.01987
65.5 -0.01921
65.55 -0.0184
65.6 -0.01764
65.65 -0.01788
65.7 -0.01808
65.75 -0.01833
65.8 -0.01734
65.85 -0.01562
65.9 -0.01458
65.95 -0.01378
66 -0.0131
66.05 -0.01213
66.1 -0.01238
66.15 -0.01369
66.2 -0.01562
66.25 -0.01602
66.3 -0.01629
66.35 -0.01697
66.4 -0.01726
66.45 -0.01811
66.5 -0.01877
66.55 -0.01812
66.6 -0.01733
66.65 -0.01641
66.7 -0.01564
66.75 -0.01522
66.8 -0.01561
66.85 -0.01625
66.9 -0.01693
66.95 -0.01762
67 -0.0185
67.05 -0.01747
67.1 -0.01669
67.15 -0.01509
67.2 -0.01459
67.25 -0.01387
67.3 -0.01232
67.35 -0.01068
67.4 -0.00933
67.45 -0.00819
67.5 -0.00835
67.55 -0.00897
67.6 -0.00866
67.65 -0.00939
67.7 -0.01052
67.75 -0.01115
67.8 -0.01187
67.85 -0.01237
67.9 -0.01153
67.95 -0.01032
68 -0.01025
68.05 -0.00966
68.1 -0.00905
68.15 -0.00915
68.2 -0.00903
68.25 -0.0085
68.3 -0.00735
68.35 -0.00639
68.4 -0.00619
68.45 -0.00518
68.5 -0.00379
68.55 -0.00385
68.6 -0.0033
68.65 -0.00304
68.7 -0.00304
68.75 -0.00241
68.8 -0.00163
68.85 -0.00132
68.9 -0.00141
68.95 -0.00089
69 -0.0006
69.05 0.00012
69.1 0.00035
69.15 -0.00073
69.2 -0.00169
69.25 -0.0024
69.3 -0.00313
69.35 -0.00328
69.4 -0.00263
69.45 -0.00149
69.5 -0.00178
69.55 -0.00129
69.6 -0.00145
69.65 -0.00164
69.7 -0.00147
69.75 -0.00188
69.8 -0.00307
69.85 -0.00344
69.9 -0.00307
69.95 -0.0022
70 -0.00196
70.05 -0.00198
70.1 -0.00152
70.15 -0.00185
70.2 -0.00146
70.25 -0.0017
70.3 -0.00255
70.35 -0.00311
70.4 -0.00335
70.45 -0.00356
70.5 -0.00358
70.55 -0.0041
70.6 -0.00452
70.65 -0.00565
70.7 -0.00704
70.75 -0.00855
70.8 -0.0089
70.85 -0.0078
70.9 -0.00638
70.95 -0.00465
71 -0.00332
71.05 -0.00241
71.1 -0.00205
71.15 -0.00158
71.2 -0.00067
71.25 0.00023
71.3 0.00106
71.35 0.0012
71.4 0.00183
71.45 0.00189
71.5 0.00194
71.55 0.00138
71.6 0.00119
71.65 0.0012
71.7 0.00063
71.75 -0.00037
71.8 -0.0011
71.85 -0.00093
71.9 -0.00091
71.95 -0.00034
72 -0.00007
72.05 -0.00119
72.1 -0.00247
72.15 -0.00308
72.2 -0.0041
72.25 -0.00499
72.3 -0.00501
72.35 -0.00492
72.4 -0.00448
72.45 -0.00472
72.5 -0.00574
72.55 -0.00702
72.6 -0.00811
72.65 -0.00765
72.7 -0.00633
72.75 -0.00446
72.8 -0.00416
72.85 -0.00439
72.9 -0.00535
72.95 -0.00595
73 -0.00592
73.05 -0.00645
73.1 -0.00736
73.15 -0.007
73.2 -0.00651
73.25 -0.00622
73.3 -0.00628
73.35 -0.00594
73.4 -0.00549
73.45 -0.00526
73.5 -0.00525
73.55 -0.00546
73.6 -0.00544
73.65 -0.00519
73.7 -0.00404
73.75 -0.00242
73.8 -0.00074
73.85 0.001
73.9 0.00204
73.95 0.00311
74 0.00336
74.05 0.00255
74.1 0.00176
74.15 0.00101
74.2 0.00076
74.25 0.00102
74.3 0.00067
74.35 0.00013
74.4 -0.00075
74.45 -0.00228
74.5 -0.00377
74.55 -0.00443
74.6 -0.00556
74.65 -0.00532
74.7 -0.00528
74.75 -0.00421
74.8 -0.00363
74.85 -0.00341
74.9 -0.00282
74.95 -0.00306
75 -0.0025
75.05 -0.00302
75.1 -0.00253
75.15 -0.00285
75.2 -0.00288
75.25 -0.00291
75.3 -0.00361
75.35 -0.00337
75.4 -0.0027
75.45 -0.00226
75.5 -0.00091
75.55 -0.00042
75.6 0.00037
75.65 0.00176
75.7 0.00235
75.75 0.00267
75.8 0.00162
75.85 0.00081
75.9 0.00037
75.95 0.00002
76 -0.00076
76.05 -0.00136
76.1 -0.00104
76.15 -0.00001
76.2 0.00054
76.25 0.00064
76.3 0.00069
76.35 0.00069
76.4 0.00052
76.45 0.00009
76.5 0.00039
76.55 0.00036
76.6 0.00006
76.65 -0.00035
76.7 -0.00109
76.75 -0.00201
76.8 -0.00236
76.85 -0.0028
76.9 -0.00193
76.95 -0.00057
77 0.00125
77.05 0.00214
77.1 0.00271
77.15 0.00316
77.2 0.00345
77.25 0.00418
77.3 0.00455
77.35 0.00482
77.4 0.00439
77.45 0.00427
77.5 0.00322
77.55 0.00173
77.6 0.00002
77.65 -0.00204
77.7 -0.00246
77.75 -0.00359
77.8 -0.00353
77.85 -0.00386
77.9 -0.00358
77.95 -0.00227
78 -0.00173
78.05 -0.0011
78.1 -0.00008
78.15 0.00036
78.2 0.00132
78.25 0.00098
78.3 0.00095
78.35 -0.00022
78.4 -0.00142
78.45 -0.00229
78.5 -0.00373
78.55 -0.0051
78.6 -0.00641
78.65 -0.00645
78.7 -0.00627
78.75 -0.00541
78.8 -0.0053
78.85 -0.00398
78.9 -0.00306
78.95 -0.00158
79 -0.00046
79.05 0.00074
79.1 0.00044
79.15 0.00093
79.2 0.00019
79.25 -0.00022
79.3 -0.00114
79.35 -0.00172
79.4 -0.00177
79.45 -0.00189
79.5 -0.00266
79.55 -0.00324
79.6 -0.00357
79.65 -0.00257
79.7 -0.00109
79.75 -0.00089
79.8 -0.00023
79.85 0.0012
79.9 0.00196
79.95 0.00308
80 0.00337
80.05 0.0042
80.1 0.00475
80.15 0.00565
80.2 0.00489
80.25 0.00334
80.3 0.0029
80.35 0.00138
80.4 0.00079
80.45 0.00126
80.5 0.001
80.55 -0.00022
80.6 -0.00015
80.65 0.00013
80.7 0.00099
80.75 0.00178
80.8 0.00173
80.85 0.0012
80.9 0.00032
80.95 -0.00042
81 -0.00058
81.05 0.00004
81.1 0.00111
81.15 0.00091
81.2 0.00041
81.25 0.00088
81.3 0.00202
81.35 0.00316
81.4 0.00258
81.45 0.00255
81.5 0.00218
81.55 0.0018
81.6 0.00209
81.65 0.00227
81.7 0.00263
81.75 0.00231
81.8 0.00228
81.85 0.00096
81.9 -0.00087
81.95 -0.00171
82 -0.00312
82.05 -0.00334
82.1 -0.00284
82.15 -0.00146
82.2 -0.00026
82.25 -0.00012
82.3 -0.00038
82.35 0.00015
82.4 0.0008
82.45 0.00167
82.5 0.00211
82.55 0.00259
82.6 0.00225
82.65 0.00123
82.7 0.00126
82.75 0.0006
82.8 -0.00059
82.85 -0.00148
82.9 -0.00255
82.95 -0.00371
83 -0.00462
83.05 -0.00582
83.1 -0.00575
83.15 -0.00475
83.2 -0.00401
83.25 -0.00386
83.3 -0.00411
83.35 -0.00373
83.4 -0.00302
83.45 -0.00256
83.5 -0.00301
83.55 -0.00364
83.6 -0.00376
83.65 -0.00259
83.7 -0.00236
83.75 -0.00128
83.8 -0.00051
83.85 0.00092
83.9 0.00153
83.95 0.00272
84 0.00362
84.05 0.0037
84.1 0.00351
84.15 0.00358
84.2 0.0029
84.25 0.00125
84.3 -0.00031
84.35 -0.00102
84.4 -0.00163
84.45 -0.001
84.5 -0.00087
84.55 0.00007
84.6 0.00087
84.65 0.00198
84.7 0.0032
84.75 0.00448
84.8 0.00413
84.85 0.0037
84.9 0.0036
84.95 0.00402
85 0.00401
85.05 0.0045
85.1 0.00526
85.15 0.00495
85.2 0.00354
85.25 0.00156
85.3 -0.00082
85.35 -0.00253
85.4 -0.00276
85.45 -0.00219
85.5 -0.00259
85.55 -0.00364
85.6 -0.00474
85.65 -0.00512
85.7 -0.00529
85.75 -0.00588
85.8 -0.00536
85.85 -0.00539
85.9 -0.0054
85.95 -0.00584
86 -0.0047
86.05 -0.003
86.1 -0.00184
86.15 -0.00005
86.2 0.00186
86.25 0.0028
86.3 0.00366
86.35 0.00387
86.4 0.00428
86.45 0.00504
86.5 0.00547
86.55 0.00534
86.6 0.00445
86.65 0.00354
86.7 0.00331
86.75 0.0023
86.8 0.00173
86.85 0.00144
86.9 0.00173
86.95 0.00136
87 0.00111
87.05 -0.00017
87.1 -0.00028
87.15 0.00022
87.2 0.00133
87.25 0.00268
87.3 0.00391
87.35 0.00516
87.4 0.00523
87.45 0.00471
87.5 0.00478
87.55 0.00374
87.6 0.00207
87.65 0.00151
87.7 0.00096
87.75 -0.00037
87.8 -0.00134
87.85 -0.00188
87.9 -0.00283
87.95 -0.00414
88 -0.004
88.05 -0.00447
88.1 -0.00418
88.15 -0.00473
88.2 -0.00481
88.25 -0.00405
88.3 -0.00283
88.35 -0.00268
88.4 -0.00149
88.45 0.00005
88.5 0.00021
88.55 0.00044
88.6 0.00001
88.65 -0.00033
88.7 -0.00133
88.75 -0.00254
88.8 -0.0028
88.85 -0.00342
88.9 -0.0041
88.95 -0.00472
89 -0.00503
89.05 -0.00547
89.1 -0.00475
89.15 -0.00309
89.2 -0.00107
89.25 0.00036
89.3 0.00121
89.35 0.00192
89.4 0.00127
89.45 0.00005
89.5 0
89.55 -0.00028
89.6 0.00041
89.65 0.00051
89.7 0.00124
89.75 0.00181
89.8 0.00188
89.85 0.00155
89.9 0.00202
89.95 0.00173
90 0.00045
90.05 0.00022
90.1 -0.00036
90.15 -0.00018
90.2 0.00021
90.25 0.00136
90.3 0.00215
90.35 0.00144
90.4 -0.00021
90.45 -0.00067
90.5 -0.00006
90.55 0.00071
90.6 0.00137
90.65 0.0018
90.7 0.00248
90.75 0.00321
90.8 0.00363
90.85 0.00383
90.9 0.00288
90.95 0.0015
91 0.00068
91.05 0.00051
91.1 0.00107
91.15 0.00147
91.2 0.0019
91.25 0.00153
91.3 0.0014
91.35 0.00065
91.4 -0.00083
91.45 -0.00177
91.5 -0.00199
91.55 -0.00225
91.6 -0.00335
91.65 -0.00308
91.7 -0.00324
91.75 -0.00309
91.8 -0.00302
91.85 -0.0021
91.9 -0.00143
91.95 -0.00189
92 -0.00146
92.05 -0.00055
92.1 0.00024
92.15 -0.00007
92.2 -0.00076
92.25 -0.00059
92.3 -0.00005
92.35 0.0011
92.4 0.00241
92.45 0.00201
92.5 0.00187
92.55 0.00121
92.6 -0.00038
92.65 -0.00181
92.7 -0.00344
92.75 -0.00509
92.8 -0.00524
92.85 -0.00581
92.9 -0.00651
92.95 -0.00662
93 -0.00677
93.05 -0.00684
93.1 -0.00541
93.15 -0.00389
93.2 -0.00298
93.25 -0.00175
93.3 -0.00123
93.35 -0.00081
93.4 -0.0014
93.45 -0.00078
93.5 -0.00023
93.55 -0.00061
93.6 -0.00174
93.65 -0.0023
93.7 -0.00247
93.75 -0.00299
93.8 -0.00279
93.85 -0.00254
93.9 -0.00236
93.95 -0.00284
94 -0.00309
94.05 -0.00391
94.1 -0.00473
94.15 -0.00519
94.2 -0.00554
94.25 -0.00603
94.3 -0.00483
94.35 -0.00431
94.4 -0.00258
94.45 -0.00061
94.5 -0.00019
94.55 -0.00009
94.6 0.00017
94.65 0.00019
94.7 0.00073
94.75 0.00096
94.8 0.00115
94.85 0.0014
94.9 0.00174
94.95 0.00167
95 0.00086
95.05 0.00098
95.1 0.001
95.15 0.00168
95.2 0.0017
95.25 0.00211
95.3 0.00319
95.35 0.00309
95.4 0.00354
95.45 0.00375
95.5 0.00386
95.55 0.00441
95.6 0.00506
95.65 0.00501
95.7 0.00496
95.75 0.00446
95.8 0.0039
95.85 0.00291
95.9 0.00237
95.95 0.00124
96 0.00131
96.05 0.00072
96.1 -0.00054
96.15 -0.0006
96.2 0.0003
96.25 0.00164
96.3 0.00165
96.35 0.00201
96.4 0.00289
96.45 0.00398
96.5 0.00451
96.55 0.00409
96.6 0.00427
96.65 0.0032
96.7 0.00262
96.75 0.00113
96.8 -0.0002
96.85 -0.00201
96.9 -0.00319
96.95 -0.00378
97 -0.00337
97.05 -0.00381
97.1 -0.00465
97.15 -0.00507
97.2 -0.00413
97.25 -0.00269
97.3 -0.00207
97.35 -0.00076
97.4 0.00008
97.45 0.00004
97.5 -0.00041
97.55 -0.00132
97.6 -0.00139
97.65 -0.00065
97.7 -0.00032
97.75 0.00027
97.8 0.00091
97.85 0.00174
97.9 0.00154
97.95 0.00192
98 0.00228
98.05 0.00307
98.1 0.00381
98.15 0.00367
98.2 0.00364
98.25 0.00263
98.3 0.00109
98.35 -0.00076
98.4 -0.0027
98.45 -0.00431
98.5 -0.00539
98.55 -0.00585
98.6 -0.0052
98.65 -0.00395
98.7 -0.00268
98.75 -0.00091
98.8 -0.0002
98.85 -0.00027
98.9 -0.00077
98.95 -0.00084
99 -0.00172
99.05 -0.00265
99.1 -0.00305
99.15 -0.00401
99.2 -0.00374
99.25 -0.00267
99.3 -0.00258
99.35 -0.0015
99.4 -0.00159
99.45 -0.00244
99.5 -0.00242
99.55 -0.00167
99.6 -0.00199
99.65 -0.00166
99.7 -0.00106
99.75 -0.00079
99.8 -0.00119
99.85 -0.00223
99.9 -0.00242
99.95 -0.00155
