0 0
0.05 0.00007
0.1 0.00013
0.15 0.00022
0.2 0.0003
0.25 0.00048
0.3 0.00069
0.35 0.00085
0.4 0.00102
0.45 0.00107
0.5 0.00111
0.55 0.00109
0.6 0.00107
0.65 0.00098
0.7 0.00099
0.75 0.00094
0.8 0.00084
0.85 0.00074
0.9 0.00069
0.95 0.00072
1 0.00076
1.05 0.00079
1.1 0.00074
1.15 0.00068
1.2 0.00063
1.25 0.00052
1.3 0.00046
1.35 0.0004
1.4 0.00032
1.45 0.00035
1.5 0.00044
1.55 0.00053
1.6 0.00069
1.65 0.00081
1.7 0.00088
1.75 0.00099
1.8 0.00097
1.85 0.00091
1.9 0.00086
1.95 0.00077
2 0.00075
2.05 0.00077
2.1 0.00081
2.15 0.00081
2.2 0.00073
2.25 0.00059
2.3 0.00045
2.35 0.00039
2.4 0.0004
2.45 0.00043
2.5 0.00047
2.55 0.00049
2.6 0.00045
2.65 0.00035
2.7 0.00023
2.75 0.00016
2.8 0.00017
2.85 0.00013
2.9 0.00011
2.95 0.00016
3 0.00017
3.05 0.00027
3.1 0.00039
3.15 0.00046
3.2 0.00052
3.25 0.00057
3.3 0.00062
3.35 0.00061
3.4 0.00062
3.45 0.00064
3.5 0.00067
3.55 0.00074
3.6 0.0008
3.65 0.00088
3.7 0.00085
3.75 0.00082
3.8 0.00075
3.85 0.00062
3.9 0.00047
3.95 0.00036
4 0.00025
4.05 0.00016
4.1 0.00003
4.15 -0.00011
4.2 -0.00022
4.25 -0.00023
4.3 -0.00015
4.35 -0.00009
4.4 -0.00007
4.45 -0.00005
4.5 -0.00003
4.55 -0
4.6 0.00012
4.65 0.00025
4.7 0.00027
4.75 0.00026
4.8 0.00018
4.85 0.00022
4.9 0.00024
4.95 0.0002
5 0.00017
5.05 0.00008
5.1 0.00011
5.15 0.00006
5.2 -0
5.25 -0.00005
5.3 -0.00003
5.35 0.00001
5.4 0.00003
5.45 0.00003
5.5 0.00009
5.55 0.00018
5.6 0.0002
5.65 0.00018
5.7 0.00012
5.75 0.00009
5.8 0.00014
5.85 0.00025
5.9 0.0003
5.95 0.00032
6 0.00025
6.05 0.00018
6.1 0.00014
6.15 0.00013
6.2 0.00006
6.25 0.00007
6.3 0.00006
6.35 -0
6.4 -0.00005
6.45 -0.00008
6.5 -0.00005
6.55 -0.00003
6.6 -0.00007
6.65 -0.00002
6.7 0.00002
6.75 0.00001
6.8 0.00009
6.85 0.00012
6.9 0.00015
6.95 0.00024
7 0.00022
7.05 0.00014
7.1 0.00003
7.15 -0.00004
7.2 -0.00002
7.25 -0.00006
7.3 -0.00003
7.35 -0.00006
7.4 -0.0001
7.45 -0.00004
7.5 -0.00001
7.55 0.00004
7.6 0.00002
7.65 0.00007
7.7 0.00017
7.75 0.00019
7.8 0.00016
7.85 0.00018
7.9 0.00019
7.95 0.00015
8 0.00009
8.05 0.0001
8.1 0.00004
8.15 -0.00005
8.2 -0.00013
8.25 -0.00021
8.3 -0.0002
8.35 -0.00013
8.4 -0.00008
8.45 -0.00005
8.5 -0.00007
8.55 -0.00007
8.6 -0.00011
8.65 -0.00012
8.7 -0.00008
8.75 -0.00011
8.8 -0.00004
8.85 -0.00003
8.9 0.00006
8.95 0.00014
9 0.00013
9.05 0.00009
9.1 0.00001
9.15 -0.00002
9.2 0.00005
9.25 0.00014
9.3 0.00018
9.35 0.00014
9.4 0.00008
9.45 0.00001
9.5 -0.00007
9.55 -0.00004
9.6 0.00001
9.65 0.00003
9.7 -0
9.75 -0.00006
9.8 -0.00002
9.85 -0.00006
9.9 -0.00003
9.95 -0.00004
10 -0.00005
10.05 -0.00007
10.1 -0.0001
10.15 -0.00012
10.2 -0.00005
10.25 -0.00004
10.3 -0.00009
10.35 -0.00013
10.4 -0.00007
10.45 0.00005
10.5 0.0001
10.55 0.00019
10.6 0.00031
10.65 0.00032
10.7 0.0003
10.75 0.00022
10.8 0.00013
10.85 0.00012
10.9 0.00019
10.95 0.00016
11 0.00014
11.05 0.00019
11.1 0.00022
11.15 0.00018
11.2 0.00015
11.25 0.00008
11.3 0.00007
11.35 0.00004
11.4 0.00012
11.45 0.00023
11.5 0.00027
11.55 0.00036
11.6 0.00037
11.65 0.00029
11.7 0.00014
11.75 0.00013
11.8 0.00018
11.85 0.00025
11.9 0.00037
11.95 0.00048
12 0.00046
12.05 0.00042
12.1 0.00043
12.15 0.00048
12.2 0.00041
12.25 0.00026
12.3 0.0002
12.35 0.00016
12.4 0.00005
12.45 -0.00002
12.5 -0.00012
12.55 -0.00024
12.6 -0.00025
12.65 -0.00021
12.7 -0.00013
12.75 -0.0001
12.8 -0.00004
12.85 -0.00006
12.9 0.00002
12.95 0.0001
13 0.00009
13.05 0.00015
13.1 0.00016
13.15 0.00017
13.2 0.00014
13.25 0.00011
13.3 0.00005
13.35 -0
13.4 -0.00003
13.45 -0.00007
13.5 -0.00009
13.55 -0.00015
13.6 -0.00025
13.65 -0.00027
13.7 -0.00022
13.75 -0.0002
13.8 -0.00013
13.85 -0.0001
13.9 -0.00005
13.95 0.00006
14 0.0002
14.05 0.00024
14.1 0.00021
14.15 0.00024
14.2 0.00025
14.25 0.00019
14.3 0.00011
14.35 0.00005
14.4 0.00007
14.45 0.00009
14.5 0.00009
14.55 0.00002
14.6 0
14.65 0.00004
14.7 0.00011
14.75 0.00019
14.8 0.00029
14.85 0.00039
14.9 0.00044
14.95 0.00037
15 0.0003
15.05 0.00016
15.1 0.00007
15.15 0.00007
15.2 0.00012
15.25 0.00011
15.3 0.00013
15.35 0.00015
15.4 0.00014
15.45 0.00019
15.5 0.00026
15.55 0.00035
15.6 0.00033
15.65 0.00031
15.7 0.00029
15.75 0.00033
15.8 0.00038
15.85 0.00041
15.9 0.00042
15.95 0.00041
16 0.00042
16.05 0.00047
16.1 0.00044
16.15 0.00031
16.2 0.00024
16.25 0.00015
16.3 0.00005
16.35 -0.00008
16.4 -0.0001
16.45 -0.00005
16.5 -0.00005
16.55 -0.00001
16.6 0.00003
16.65 0.00008
16.7 0.00009
16.75 0.0001
16.8 0.00011
16.85 0.00009
16.9 0.00001
16.95 -0.0001
17 -0.00018
17.05 -0.00017
17.1 -0.00019
17.15 -0.00012
17.2 -0.00014
17.25 -0.0001
17.3 -0.00003
17.35 0.00006
17.4 0.0001
17.45 0.00003
17.5 -0.00006
17.55 -0.00005
17.6 -0.00004
17.65 -0.00001
17.7 0.00001
17.75 0.00009
17.8 0.00018
17.85 0.00015
17.9 0.00003
17.95 -0.00007
18 -0.00006
18.05 0.00001
18.1 0.00006
18.15 0.00011
18.2 0.00016
18.25 0.00011
18.3 0.00009
18.35 0.00005
18.4 0
18.45 -0.00003
18.5 -0.00003
18.55 -0.00009
18.6 -0.00009
18.65 -0.00003
18.7 0.00004
18.75 0.00005
18.8 0.00007
18.85 0.00014
18.9 0.00013
18.95 0.00013
19 0.00006
19.05 0.00006
19.1 0.00007
19.15 0.00014
19.2 0.00016
19.25 0.00016
19.3 0.00014
19.35 0.00004
19.4 -0.00002
19.45 -0.00009
19.5 -0.00011
19.55 -0.00006
19.6 -0.0001
19.65 -0.00018
19.7 -0.00021
19.75 -0.00023
19.8 -0.00017
19.85 -0.00019
19.9 -0.00024
19.95 -0.00033
20 -0.0003
20.05 -0.00025
20.1 -0.00014
20.15 0
20.2 0.00015
20.25 0.00023
20.3 0.0003
20.35 0.00027
20.4 0.00025
20.45 0.00023
20.5 0.00024
20.55 0.00029
20.6 0.00025
20.65 0.00027
20.7 0.00029
20.75 0.00023
20.8 0.00011
20.85 0.00002
20.9 -0.00008
20.95 -0.00013
21 -0.0002
21.05 -0.00031
21.1 -0.00038
21.15 -0.00036
21.2 -0.00024
21.25 -0.00023
21.3 -0.00026
21.35 -0.00021
21.4 -0.00018
21.45 -0.00011
21.5 -0.00013
21.55 -0.00018
21.6 -0.0002
21.65 -0.00018
21.7 -0.00012
21.75 -0.00006
21.8 0.00004
21.85 0.0001
21.9 0.00004
21.95 -0.00005
22 -0.00007
22.05 -0.00005
22.1 -0.00009
22.15 -0.00013
22.2 -0.00018
22.25 -0.00018
22.3 -0.0001
22.35 -0
22.4 0.00008
22.45 0.00009
22.5 0.00011
22.55 0.00018
22.6 0.00016
22.65 0.00012
22.7 0.00012
22.75 0.00011
22.8 0.00006
22.85 -0.00003
22.9 -0.00017
22.95 -0.00032
23 -0.00035
23.05 -0.00031
23.1 -0.00031
23.15 -0.00033
23.2 -0.00025
23.25 -0.00019
23.3 -0.00018
23.35 -0.00019
23.4 -0.00025
23.45 -0.00032
23.5 -0.00041
23.55 -0.00047
23.6 -0.00051
23.65 -0.00058
23.7 -0.00052
23.75 -0.00042
23.8 -0.00032
23.85 -0.0003
23.9 -0.00019
23.95 -0.00015
24 -0.00008
24.05 -0.00006
24.1 -0.00006
24.15 -0.00009
24.2 -0.00013
24.25 -0.00011
24.3 -0.00013
24.35 -0.00009
24.4 0.00002
24.45 0.00012
24.5 0.00023
24.55 0.00023
24.6 0.00023
24.65 0.00021
24.7 0.00022
24.75 0.0002
24.8 0.00011
24.85 -0
24.9 -0
24.95 -0.00003
25 -0
25.05 -0.00002
25.1 -0.00006
25.15 -0.00012
25.2 -0.00021
25.25 -0.00023
25.3 -0.00021
25.35 -0.00024
25.4 -0.00018
25.45 -0.00011
25.5 -0.00006
25.55 -0.00004
25.6 -0.00007
25.65 -0.00004
25.7 -0.00004
25.75 -0
25.8 -0.00001
25.85 0.00001
25.9 0
25.95 0.00005
26 0.00016
26.05 0.00025
26.1 0.00036
26.15 0.00034
26.2 0.00027
26.25 0.00012
26.3 0.00007
26.35 0.00006
26.4 0.00005
26.45 -0.00004
26.5 -0.00011
26.55 -0.00014
26.6 -0.00021
26.65 -0.00031
26.7 -0.0003
26.75 -0.00031
26.8 -0.00027
26.85 -0.00024
26.9 -0.00021
26.95 -0.00017
27 -0.00017
27.05 -0.00008
27.1 -0.00001
27.15 -0.00002
27.2 -0.00003
27.25 -0.00005
27.3 -0.00005
27.35 -0.00002
27.4 0
27.45 -0.00003
27.5 -0.00002
27.55 0.00005
27.6 0.00015
27.65 0.00015
27.7 0.00012
27.75 0.00014
27.8 0.00021
27.85 0.00022
27.9 0.00019
27.95 0.00014
28 0.00005
28.05 -0
28.1 -0
28.15 0.00003
28.2 0
28.25 -0.00002
28.3 0.00003
28.35 0.00003
28.4 -0.00003
28.45 -0.00009
28.5 -0.00016
28.55 -0.00025
28.6 -0.00029
28.65 -0.00033
28.7 -0.00037
28.75 -0.00029
28.8 -0.00022
28.85 -0.00017
28.9 -0.00011
28.95 -0.0001
29 -0.00003
29.05 0.00005
29.1 0.0001
29.15 0.00021
29.2 0.00026
29.25 0.00028
29.3 0.00023
29.35 0.00024
29.4 0.00023
29.45 0.00013
29.5 0.00003
29.55 -0.00002
29.6 -0.00012
29.65 -0.00014
29.7 -0.00012
29.75 -0.00011
29.8 -0.00006
29.85 0.00006
29.9 0.00019
29.95 0.00028
30 0.00032
30.05 0.00028
30.1 0.00019
30.15 0.00018
30.2 0.00022
30.25 0.00017
30.3 0.00009
30.35 -0.00001
30.4 -0.00009
30.45 -0.00014
30.5 -0.00024
30.55 -0.00028
30.6 -0.00034
30.65 -0.00039
30.7 -0.00031
30.75 -0.00018
30.8 -0.00007
30.85 0.00001
30.9 0.00006
30.95 0.00007
31 0.0001
31.05 0.00004
31.1 -0.00005
31.15 -0.00012
31.2 -0.00021
31.25 -0.00026
31.3 -0.00035
31.35 -0.00046
31.4 -0.00046
31.45 -0.00039
31.5 -0.00029
31.55 -0.00027
31.6 -0.00022
31.65 -0.00008
31.7 0.00007
31.75 0.00011
31.8 0.00013
31.85 0.00019
31.9 0.00014
31.95 0.00015
32 0.00015
32.05 0.00021
32.1 0.00021
32.15 0.00023
32.2 0.00022
32.25 0.00017
32.3 0.0002
32.35 0.00019
32.4 0.00011
32.45 -0.00003
32.5 -0.00018
32.55 -0.00026
32.6 -0.00029
32.65 -0.00029
32.7 -0.0003
32.75 -0.00035
32.8 -0.00033
32.85 -0.00024
32.9 -0.00014
32.95 -0.00009
33 -0.00003
33.05 -0.00002
33.1 -0.00009
33.15 -0.00004
33.2 0.00005
33.25 0.00013
33.3 0.00022
33.35 0.0003
33.4 0.0004
33.45 0.00039
33.5 0.00031
33.55 0.00026
33.6 0.00013
33.65 0.00003
33.7 -0.00005
33.75 -0.00015
33.8 -0.00014
33.85 -0.00005
33.9 0.00007
33.95 0.00017
34 0.00026
34.05 0.00023
34.1 0.00011
34.15 0.00008
34.2 0.00003
34.25 -0.00003
34.3 0.00001
34.35 0.00002
34.4 0.00008
34.45 0.00013
34.5 0.00015
34.55 0.00013
34.6 0.00015
34.65 0.00016
34.7 0.0001
34.75 0.00006
34.8 0.00001
34.85 0.00004
34.9 0.0001
34.95 0.00008
35 0
35.05 0.00002
35.1 0.00006
35.15 0.00008
35.2 0.00012
35.25 0.0001
35.3 0.00013
35.35 0.00013
35.4 0.00008
35.45 -0.00001
35.5 0
35.55 -0.00005
35.6 -0.00014
35.65 -0.00025
35.7 -0.00025
35.75 -0.00023
35.8 -0.00023
35.85 -0.00017
35.9 -0.00011
35.95 -0.00004
36 -0.00003
36.05 0
36.1 0.00008
36.15 0.0002
36.2 0.0002
36.25 0.00015
36.3 0.00017
36.35 0.00022
36.4 0.00025
36.45 0.00018
36.5 0.0001
36.55 0.00011
36.6 0.00006
36.65 0.00005
36.7 0.00008
36.75 0.00007
36.8 -0
36.85 -0.00004
36.9 -0.00002
36.95 -0.00007
37 -0.00015
37.05 -0.00013
37.1 -0.00016
37.15 -0.00017
37.2 -0.00024
37.25 -0.00023
37.3 -0.00019
37.35 -0.00012
37.4 -0.00007
37.45 0.00005
37.5 0.00007
37.55 0.00005
37.6 0.00004
37.65 0.00008
37.7 0.00014
37.75 0.00016
37.8 0.00014
37.85 0.00006
37.9 0.00007
37.95 0.00009
38 0.00002
38.05 -0.00006
38.1 -0.00008
38.15 -0.00012
38.2 -0.0002
38.25 -0.0002
38.3 -0.00025
38.35 -0.00019
38.4 -0.00009
38.45 -0.00004
38.5 0.00006
38.55 0.00019
38.6 0.00019
38.65 0.00013
38.7 0.00016
38.75 0.00024
38.8 0.00023
38.85 0.00017
38.9 0.00016
38.95 0.00017
39 0.00009
39.05 0
39.1 0.00001
39.15 -0.00007
39.2 -0.00004
39.25 -0.00006
39.3 -0.00009
39.35 -0.00008
39.4 -0.00012
39.45 -0.00015
39.5 -0.00012
39.55 -0.00009
39.6 -0.00008
39.65 0.00001
39.7 0.00001
39.75 -0.00006
39.8 -0.00003
39.85 -0.00006
39.9 0
39.95 0.0001
40 0.00008
40.05 0.0001
40.1 0.00017
40.15 0.00015
40.2 0.0001
40.25 0.00005
40.3 0.00009
40.35 0.00007
40.4 0.00005
40.45 -0.00004
40.5 -0.00017
40.55 -0.00018
40.6 -0.00022
40.65 -0.00019
40.7 -0.00013
40.75 -0.00013
40.8 -0.00006
40.85 0.00006
40.9 0.00006
40.95 -0.00002
41 -0.0001
41.05 -0.00018
41.1 -0.00027
41.15 -0.00035
41.2 -0.00031
41.25 -0.0003
41.3 -0.00023
41.35 -0.00022
41.4 -0.00014
41.45 -0.0001
41.5 -0.00007
41.55 -0.00006
41.6 -0.00013
41.65 -0.00022
41.7 -0.00022
41.75 -0.0002
41.8 -0.00017
41.85 -0.0001
41.9 0.00003
41.95 0.00012
42 0.00011
42.05 0.00015
42.1 0.0002
42.15 0.00022
42.2 0.00018
42.25 0.00018
42.3 0.00023
42.35 0.00019
42.4 0.00012
42.45 0.00007
42.5 0.00006
42.55 0.00001
42.6 -0.00006
42.65 -0.00004
42.7 0.00003
42.75 -0.00002
42.8 -0
42.85 -0.00002
42.9 0.00002
42.95 0.00004
43 0.0001
43.05 0.00006
43.1 -0.00002
43.15 -0.00003
43.2 0.00005
43.25 0.00015
43.3 0.00015
43.35 0.00013
43.4 0.00012
43.45 0.00003
43.5 0.00004
43.55 0.00009
43.6 0.00018
43.65 0.00028
43.7 0.00031
43.75 0.0003
43.8 0.00027
43.85 0.0003
43.9 0.00024
43.95 0.00015
44 0.00006
44.05 -0.0001
44.1 -0.00023
44.15 -0.00031
44.2 -0.00042
44.25 -0.00056
44.3 -0.00076
44.35 -0.00093
44.4 -0.00109
44.45 -0.00126
44.5 -0.00137
44.55 -0.00156
44.6 -0.0017
44.65 -0.002
44.7 -0.00239
44.75 -0.00287
44.8 -0.00336
44.85 -0.00395
44.9 -0.00453
44.95 -0.00522
45 -0.00595
45.05 -0.00675
45.1 -0.00772
45.15 -0.00876
45.2 -0.00987
45.25 -0.01113
45.3 -0.01245
45.35 -0.01384
45.4 -0.01538
45.45 -0.01703
45.5 -0.0188
45.55 -0.02084
45.6 -0.023
45.65 -0.02537
45.7 -0.02781
45.75 -0.03027
45.8 -0.03282
45.85 -0.03539
45.9 -0.03798
45.95 -0.04051
46 -0.04304
46.05 -0.04546
46.1 -0.04769
46.15 -0.04979
46.2 -0.05161
46.25 -0.05326
46.3 -0.05461
46.35 -0.05568
46.4 -0.05636
46.45 -0.05665
46.5 -0.05654
46.55 -0.05599
46.6 -0.05502
46.65 -0.05361
46.7 -0.0518
46.75 -0.04957
46.8 -0.04681
46.85 -0.04358
46.9 -0.03985
46.95 -0.03578
47 -0.03145
47.05 -0.02676
47.1 -0.02185
47.15 -0.01665
47.2 -0.01134
47.25 -0.00602
47.3 -0.00059
47.35 0.00484
47.4 0.01017
47.45 0.01545
47.5 0.02065
47.55 0.0256
47.6 0.03027
47.65 0.03459
47.7 0.03864
47.75 0.04245
47.8 0.04593
47.85 0.04909
47.9 0.05182
47.95 0.05418
48 0.05607
48.05 0.05745
48.1 0.0584
48.15 0.05898
48.2 0.05919
48.25 0.05913
48.3 0.05869
48.35 0.05797
48.4 0.05691
48.45 0.05567
48.5 0.0542
48.55 0.05251
48.6 0.05068
48.65 0.04872
48.7 0.04659
48.75 0.04423
48.8 0.04185
48.85 0.03936
48.9 0.03679
48.95 0.03427
49 0.0318
49.05 0.02936
49.1 0.027
49.15 0.02471
49.2 0.0226
49.25 0.02063
49.3 0.01873
49.35 0.01699
49.4 0.01541
49.45 0.01406
49.5 0.01288
49.55 0.0118
49.6 0.01086
49.65 0.01004
49.7 0.00946
49.75 0.00907
49.8 0.00872
49.85 0.00856
49.9 0.00857
49.95 0.00867
50 0.00874
50.05 0.00882
50.1 0.00904
50.15 0.00936
50.2 0.00974
50.25 0.01007
50.3 0.01034
50.35 0.01066
50.4 0.01092
50.45 0.01124
50.5 0.01151
50.55 0.01169
50.6 0.01181
50.65 0.01188
50.7 0.01198
50.75 0.01206
50.8 0.01208
50.85 0.01197
50.9 0.01182
50.95 0.01165
51 0.01141
51.05 0.01112
51.1 0.01082
51.15 0.01038
51.2 0.00984
51.25 0.00933
51.3 0.00876
51.35 0.00816
51.4 0.00751
51.45 0.00682
51.5 0.0061
51.55 0.00536
51.6 0.00475
51.65 0.00419
51.7 0.00359
51.75 0.00301
51.8 0.0025
51.85 0.0019
51.9 0.00134
51.95 0.00084
52 0.00032
52.05 -0.00019
52.1 -0.0006
52.15 -0.00104
52.2 -0.00152
52.25 -0.00198
52.3 -0.00243
52.35 -0.00284
52.4 -0.00329
52.45 -0.00367
52.5 -0.00396
52.55 -0.00429
52.6 -0.00461
52.65 -0.00487
52.7 -0.00514
52.75 -0.00536
52.8 -0.00548
52.85 -0.00563
52.9 -0.00566
52.95 -0.00573
53 -0.0058
53.05 -0.00581
53.1 -0.0059
53.15 -0.00598
53.2 -0.00605
53.25 -0.00615
53.3 -0.00624
53.35 -0.00632
53.4 -0.00632
53.45 -0.00632
53.5 -0.00633
53.55 -0.00628
53.6 -0.00612
53.65 -0.00591
53.7 -0.00575
53.75 -0.00568
53.8 -0.00554
53.85 -0.00546
53.9 -0.00542
53.95 -0.00532
54 -0.00524
54.05 -0.00512
54.1 -0.00506
54.15 -0.00499
54.2 -0.00502
54.25 -0.0051
54.3 -0.00514
54.35 -0.00512
54.4 -0.00502
54.45 -0.00492
54.5 -0.00488
54.55 -0.00476
54.6 -0.00462
54.65 -0.00447
54.7 -0.00441
54.75 -0.00435
54.8 -0.00435
54.85 -0.0043
54.9 -0.00431
54.95 -0.00432
55 -0.00423
55.05 -0.00415
55.1 -0.00412
55.15 -0.00411
55.2 -0.00405
55.25 -0.00398
55.3 -0.00396
55.35 -0.004
55.4 -0.00403
55.45 -0.00407
55.5 -0.00398
55.55 -0.00379
55.6 -0.00372
55.65 -0.00365
55.7 -0.00358
55.75 -0.00348
55.8 -0.00343
55.85 -0.00335
55.9 -0.00335
55.95 -0.00334
56 -0.00336
56.05 -0.00333
56.1 -0.00331
56.15 -0.00327
56.2 -0.00321
56.25 -0.00311
56.3 -0.00308
56.35 -0.00295
56.4 -0.00284
56.45 -0.00269
56.5 -0.00259
56.55 -0.0026
56.6 -0.00264
56.65 -0.0026
56.7 -0.00252
56.75 -0.0024
56.8 -0.00225
56.85 -0.00209
56.9 -0.00203
56.95 -0.00202
57 -0.00199
57.05 -0.00203
57.1 -0.00214
57.15 -0.00217
57.2 -0.00226
57.25 -0.00237
57.3 -0.00236
57.35 -0.00241
57.4 -0.00236
57.45 -0.00236
57.5 -0.00236
57.55 -0.00226
57.6 -0.00217
57.65 -0.00208
57.7 -0.00193
57.75 -0.00186
57.8 -0.00184
57.85 -0.00174
57.9 -0.0016
57.95 -0.00151
58 -0.00141
58.05 -0.00143
58.1 -0.0014
58.15 -0.00139
58.2 -0.00134
58.25 -0.00139
58.3 -0.00139
58.35 -0.00134
58.4 -0.00129
58.45 -0.00126
58.5 -0.00128
58.55 -0.00129
58.6 -0.00137
58.65 -0.00134
58.7 -0.00127
58.75 -0.00128
58.8 -0.00134
58.85 -0.00139
58.9 -0.00134
58.95 -0.0013
59 -0.00121
59.05 -0.00122
59.1 -0.00118
59.15 -0.00116
59.2 -0.00113
59.25 -0.00113
59.3 -0.00107
59.35 -0.00106
59.4 -0.00105
59.45 -0.00109
59.5 -0.00107
59.55 -0.00102
59.6 -0.00092
59.65 -0.00093
59.7 -0.001
59.75 -0.00111
59.8 -0.00111
59.85 -0.00109
59.9 -0.00103
59.95 -0.00106
60 -0.00104
60.05 -0.00111
60.1 -0.00121
60.15 -0.00128
60.2 -0.00137
60.25 -0.00138
60.3 -0.00125
60.35 -0.00119
60.4 -0.00113
60.45 -0.00099
60.5 -0.00086
60.55 -0.00073
60.6 -0.00067
60.65 -0.0007
60.7 -0.00064
60.75 -0.00056
60.8 -0.00049
60.85 -0.00045
60.9 -0.00046
60.95 -0.00053
61 -0.00066
61.05 -0.00074
61.1 -0.00075
61.15 -0.00082
61.2 -0.00079
61.25 -0.00078
61.3 -0.00068
61.35 -0.00057
61.4 -0.00049
61.45 -0.00046
61.5 -0.00036
61.55 -0.00036
61.6 -0.00035
61.65 -0.00032
61.7 -0.00031
61.75 -0.00031
61.8 -0.00035
61.85 -0.00038
61.9 -0.00035
61.95 -0.00039
62 -0.0004
62.05 -0.00035
62.1 -0.00029
62.15 -0.00025
62.2 -0.00029
62.25 -0.0003
62.3 -0.00034
62.35 -0.0004
62.4 -0.0004
62.45 -0.00044
62.5 -0.00052
62.55 -0.0005
62.6 -0.00054
62.65 -0.00056
62.7 -0.00048
62.75 -0.00038
62.8 -0.00028
62.85 -0.00029
62.9 -0.00022
62.95 -0.00017
63 -0.00011
63.05 -0.00015
63.1 -0.00025
63.15 -0.00035
63.2 -0.00036
63.25 -0.00037
63.3 -0.00038
63.35 -0.00031
63.4 -0.00029
63.45 -0.00034
63.5 -0.0004
63.55 -0.00046
63.6 -0.00051
63.65 -0.00056
63.7 -0.00055
63.75 -0.0005
63.8 -0.00044
63.85 -0.00042
63.9 -0.00036
63.95 -0.00038
64 -0.00037
64.05 -0.00041
64.1 -0.00036
64.15 -0.00035
64.2 -0.00036
64.25 -0.00034
64.3 -0.00026
64.35 -0.00028
64.4 -0.0003
64.45 -0.00036
64.5 -0.00036
64.55 -0.00027
64.6 -0.00014
64.65 -0.00009
64.7 -0.00004
64.75 -0.00006
64.8 -0.00005
64.85 -0.00008
64.9 -0.00018
64.95 -0.00029
65 -0.00037
65.05 -0.00036
65.1 -0.00027
65.15 -0.00013
65.2 -0.00012
65.25 -0.0001
65.3 -0.0001
65.35 -0.00008
65.4 -0.00007
65.45 -0.00001
65.5 0.00009
65.55 0.00005
65.6 0.00006
65.65 0.00008
65.7 0
65.75 0.00001
65.8 -0.00009
65.85 -0.0001
65.9 -0.00006
65.95 -0.00012
66 -0.00025
66.05 -0.00033
66.1 -0.00031
66.15 -0.00026
66.2 -0.0002
66.25 -0.00021
66.3 -0.00021
66.35 -0.0002
66.4 -0.00026
66.45 -0.00036
66.5 -0.00037
66.55 -0.00031
66.6 -0.00021
66.65 -0.00021
66.7 -0.00015
66.75 -0.00018
66.8 -0.00022
66.85 -0.00029
66.9 -0.00025
66.95 -0.00028
67 -0.00028
67.05 -0.00031
67.1 -0.00033
67.15 -0.00039
67.2 -0.00047
67.25 -0.00045
67.3 -0.0005
67.35 -0.00048
67.4 -0.00051
67.45 -0.00044
67.5 -0.00039
67.55 -0.00027
67.6 -0.0001
67.65 -0.00007
67.7 -0.00004
67.75 -0.00005
67.8 -0.00007
67.85 -0.00002
67.9 0.00005
67.95 0.00005
68 -0.00001
68.05 -0.00004
68.1 -0.00003
68.15 0.00003
68.2 0.00008
68.25 0.00012
68.3 0.0002
68.35 0.00021
68.4 0.00017
68.45 0.00011
68.5 0.00003
68.55 0.00002
68.6 0
68.65 0.00005
68.7 0.00014
68.75 0.00018
68.8 0.00022
68.85 0.00016
68.9 0.00018
68.95 0.00015
69 0.00014
69.05 0.00014
69.1 0.00006
69.15 -0.00007
69.2 -0.00008
69.25 -0.0001
69.3 -0.00009
69.35 -0.00008
69.4 -0.00004
69.45 -0.00005
69.5 -0
69.55 0.00005
69.6 0.00004
69.65 -0.00005
69.7 -0.00007
69.75 -0.0001
69.8 -0.00014
69.85 -0.0002
69.9 -0.00019
69.95 -0.00022
70 -0.00016
70.05 -0.00008
70.1 -0.00001
70.15 -0.00004
70.2 -0.00007
70.25 -0.00009
70.3 -0.00016
70.35 -0.00029
70.4 -0.00036
70.45 -0.00032
70.5 -0.00021
70.55 -0.00015
70.6 -0.00015
70.65 -0.00009
70.7 -0.00008
70.75 -0.00015
70.8 -0.00012
70.85 -0.00016
70.9 -0.00027
70.95 -0.00026
71 -0.00024
71.05 -0.00015
71.1 -0.00007
71.15 -0.00001
71.2 0.00009
71.25 0.00006
71.3 0.00006
71.35 0.00012
71.4 0.00017
71.45 0.00012
71.5 0.00001
71.55 0
71.6 0.00002
71.65 -0.00002
71.7 0.00002
71.75 0
71.8 0.00002
71.85 0.00007
71.9 0.00013
71.95 0.00022
72 0.00024
72.05 0.00019
72.1 0.00007
72.15 0.00002
72.2 -0.00002
72.25 -0.00012
72.3 -0.00023
72.35 -0.0002
72.4 -0.00022
72.45 -0.00015
72.5 -0.00016
72.55 -0.00015
72.6 -0.00016
72.65 -0.00019
72.7 -0.00022
72.75 -0.00015
72.8 -0.00008
72.85 -0.00003
72.9 -0.00004
72.95 0.00002
73 0.00005
73.05 0.00006
73.1 -0.00002
73.15 -0.00007
73.2 -0.00006
73.25 -0.00007
73.3 -0.00016
73.35 -0.00018
73.4 -0.00013
73.45 -0.00013
73.5 -0.00016
73.55 -0.0002
73.6 -0.00014
73.65 -0.00012
73.7 -0.00016
73.75 -0.00011
73.8 -0.00009
73.85 -0.00016
73.9 -0.00021
73.95 -0.00023
74 -0.00029
74.05 -0.00031
74.1 -0.00023
74.15 -0.00019
74.2 -0.00016
74.25 -0.00008
74.3 -0.00007
74.35 -0.0001
74.4 -0.00004
74.45 0.00009
74.5 0.00012
74.55 0.00019
74.6 0.00016
74.65 0.00013
74.7 0.00003
74.75 0.00001
74.8 -0.00003
74.85 -0.00003
74.9 0.00003
74.95 0.00009
75 0.00003
75.05 -0.00002
75.1 -0.00013
75.15 -0.00027
75.2 -0.00035
75.25 -0.00046
75.3 -0.00053
75.35 -0.00053
75.4 -0.00041
75.45 -0.00037
75.5 -0.00023
75.55 -0.00008
75.6 -0.00003
75.65 -0.00002
75.7 0.00003
75.75 0.00011
75.8 0.00017
75.85 0.00027
75.9 0.00028
75.95 0.0003
76 0.00033
76.05 0.00025
76.1 0.00024
76.15 0.00027
76.2 0.00027
76.25 0.00016
76.3 0.00016
76.35 0.00021
76.4 0.00028
76.45 0.00025
76.5 0.00028
76.55 0.00032
76.6 0.00038
76.65 0.00033
76.7 0.00027
76.75 0.00021
76.8 0.00015
76.85 0.00009
76.9 0.00007
76.95 0.0001
77 0.00007
77.05 0.0001
77.1 0.00012
77.15 0.00012
77.2 0.00014
77.25 0.00007
77.3 0.00007
77.35 -0.00002
77.4 -0.00009
77.45 -0.00007
77.5 -0.00009
77.55 -0.00003
77.6 0.00005
77.65 0.00015
77.7 0.00019
77.75 0.00014
77.8 0.00014
77.85 0.0001
77.9 0.00004
77.95 -0.00005
78 -0.00005
78.05 -0
78.1 0.00006
78.15 0.00015
78.2 0.00015
78.25 0.0002
78.3 0.00028
78.35 0.00024
78.4 0.00013
78.45 0.00011
78.5 0.00013
78.55 0.00007
78.6 0.00008
78.65 0.00013
78.7 0.00008
78.75 0.00009
78.8 0.00013
78.85 0.00013
78.9 0.00018
78.95 0.00019
79 0.00013
79.05 0.0001
79.1 0.00006
79.15 -0.00004
79.2 -0.00019
79.25 -0.00022
79.3 -0.00023
79.35 -0.00018
79.4 -0.00012
79.45 -0.00006
79.5 -0.0001
79.55 -0.0001
79.6 -0.00017
79.65 -0.00014
79.7 -0.00012
79.75 -0.0001
79.8 -0.00011
79.85 -0.00011
79.9 -0.0001
79.95 -0.00002
80 0.00008
80.05 0.00021
80.1 0.00028
80.15 0.00037
80.2 0.00045
80.25 0.00041
80.3 0.0004
80.35 0.00036
80.4 0.00027
80.45 0.00018
80.5 0.00012
80.55 0.00007
80.6 -0.00006
80.65 -0.00015
80.7 -0.00028
80.75 -0.00042
80.8 -0.00043
80.85 -0.00048
80.9 -0.00051
80.95 -0.00055
81 -0.00059
81.05 -0.00053
81.1 -0.00041
81.15 -0.00026
81.2 -0.00014
81.25 -0.00007
81.3 0.00001
81.35 0.00002
81.4 -0.00007
81.45 -0.00008
81.5 -0.00001
81.55 -0.00001
81.6 -0.00005
81.65 -0.00012
81.7 -0.00017
81.75 -0.00017
81.8 -0.00024
81.85 -0.00033
81.9 -0.00044
81.95 -0.00045
82 -0.00045
82.05 -0.00045
82.1 -0.00046
82.15 -0.0005
82.2 -0.00046
82.25 -0.00038
82.3 -0.00034
82.35 -0.00024
82.4 -0.00016
82.45 -0.00005
82.5 0.0001
82.55 0.00011
82.6 0.00018
82.65 0.00023
82.7 0.00018
82.75 0.00015
82.8 0.00008
82.85 0.00011
82.9 0.00006
82.95 0.00006
83 0.00013
83.05 0.0002
83.1 0.00016
83.15 0.00005
83.2 -0.0001
83.25 -0.00022
83.3 -0.0003
83.35 -0.00025
83.4 -0.00022
83.45 -0.00026
83.5 -0.00027
83.55 -0.0002
83.6 -0.00007
83.65 -0.00001
83.7 0.00003
83.75 0.00012
83.8 0.00021
83.85 0.00032
83.9 0.00043
83.95 0.00041
84 0.00036
84.05 0.0003
84.1 0.00024
84.15 0.00018
84.2 0.00016
84.25 0.00013
84.3 0.00012
84.35 0.00006
84.4 0.00004
84.45 0.00001
84.5 -0.00006
84.55 -0.00017
84.6 -0.00018
84.65 -0.00014
84.7 -0.00005
84.75 -0.00002
84.8 -0
84.85 0.00004
84.9 0.00008
84.95 0.00016
85 0.00021
85.05 0.00024
85.1 0.00019
85.15 0.00019
85.2 0.00019
85.25 0.00014
85.3 0.00007
85.35 -0.00002
85.4 -0.00005
85.45 -0.00011
85.5 -0.00006
85.55 -0.0001
85.6 -0.00011
85.65 -0.00013
85.7 -0.00018
85.75 -0.00027
85.8 -0.00035
85.85 -0.00044
85.9 -0.00054
85.95 -0.00061
86 -0.00066
86.05 -0.00056
86.1 -0.00051
86.15 -0.00045
86.2 -0.00029
86.25 -0.00013
86.3 -0.00007
86.35 -0.00006
86.4 0
86.45 -0.00004
86.5 -0.00011
86.55 -0.00023
86.6 -0.00028
86.65 -0.00033
86.7 -0.00036
86.75 -0.00036
86.8 -0.00041
86.85 -0.00034
86.9 -0.00021
86.95 -0.00018
87 -0.00021
87.05 -0.00013
87.1 -0.00001
87.15 0.00015
87.2 0.0002
87.25 0.00014
87.3 0.0001
87.35 0.00003
87.4 -0.00003
87.45 -0.00009
87.5 -0.00013
87.55 -0.00009
87.6 -0.00006
87.65 -0.00006
87.7 -0.00013
87.75 -0.00017
87.8 -0.00016
87.85 -0.00017
87.9 -0.0002
87.95 -0.00023
88 -0.00023
88.05 -0.00024
88.1 -0.00023
88.15 -0.00012
88.2 0.00004
88.25 0.00013
88.3 0.00018
88.35 0.00015
88.4 0.00016
88.45 0.00013
88.5 0.00019
88.55 0.00018
88.6 0.0002
88.65 0.00016
88.7 0.00006
88.75 0
88.8 -0.0001
88.85 -0.00017
88.9 -0.00011
88.95 -0.00006
89 -0.00009
89.05 -0.00002
89.1 0.0001
89.15 0.00018
89.2 0.00016
89.25 0.00015
89.3 0.00006
89.35 0.00001
89.4 0.00001
89.45 -0.00004
89.5 -0.00014
89.55 -0.00013
89.6 -0.00004
89.65 0.00003
89.7 0.00004
89.75 0.00005
89.8 0.00003
89.85 -0.00006
89.9 -0.0001
89.95 -0.00007
90 -0.00008
90.05 -0.00004
90.1 -0.00005
90.15 -0.00004
90.2 -0.00005
90.25 0.00002
90.3 0.00007
90.35 0.00005
90.4 -0
90.45 -0.00001
90.5 -0.00009
90.55 -0.00018
90.6 -0.00014
90.65 -0.00008
90.7 -0.00006
90.75 -0.00008
90.8 -0.00008
90.85 -0.00007
90.9 -0.00011
90.95 -0.00016
91 -0.00022
91.05 -0.00022
91.1 -0.00023
91.15 -0.00023
91.2 -0.00024
91.25 -0.0003
91.3 -0.00028
91.35 -0.00029
91.4 -0.00032
91.45 -0.00032
91.5 -0.00025
91.55 -0.0002
91.6 -0.00011
91.65 -0.00004
91.7 -0.00002
91.75 -0.00005
91.8 -0.00007
91.85 -0.00011
91.9 -0.00011
91.95 -0.00005
92 -0.00005
92.05 -0.00003
92.1 0.00003
92.15 0.00005
92.2 0.00008
92.25 0.00006
92.3 0.00005
92.35 0.00012
92.4 0.00013
92.45 0.00015
92.5 0.00013
92.55 0.00012
92.6 0.00009
92.65 0.00013
92.7 0.00008
92.75 -0.00002
92.8 -0.00002
92.85 -0.00004
92.9 -0.00013
92.95 -0.00017
93 -0.0002
93.05 -0.00016
93.1 -0.00003
93.15 0.00009
93.2 0.00012
93.25 0.00005
93.3 -0.00003
93.35 -0.00013
93.4 -0.00015
93.45 -0.00013
93.5 -0.00014
93.55 -0.00013
93.6 -0.00012
93.65 -0.00008
93.7 -0.00003
93.75 0.00002
93.8 0.00005
93.85 0.00005
93.9 -0.00002
93.95 -0.00008
94 -0.00014
94.05 -0.00023
94.1 -0.00021
94.15 -0.00014
94.2 -0.00001
94.25 0.00013
94.3 0.00023
94.35 0.00022
94.4 0.00017
94.45 0.00007
94.5 0.00003
94.55 -0.00005
94.6 -0.00012
94.65 -0.00017
94.7 -0.00015
94.75 -0.0001
94.8 -0.00001
94.85 0.00001
94.9 0.00004
94.95 0.00007
95 0.0001
95.05 0.00007
95.1 0.00006
95.15 0.00006
95.2 -0.00001
95.25 -0.00011
95.3 -0.00017
95.35 -0.00024
95.4 -0.0003
95.45 -0.00035
95.5 -0.00033
95.55 -0.00027
95.6 -0.00024
95.65 -0.00017
95.7 -0.00015
95.75 -0.00016
95.8 -0.00015
95.85 -0.00006
95.9 -0.00002
95.95 -0.00001
96 0.00005
96.05 0.00008
96.1 0.00005
96.15 0.00003
96.2 -0.00004
96.25 -0.00008
96.3 -0.00016
96.35 -0.00018
96.4 -0.00015
96.45 -0.00016
96.5 -0.00015
96.55 -0.00011
96.6 -0.00001
96.65 0.00007
96.7 0.00021
96.75 0.00029
96.8 0.00033
96.85 0.0003
96.9 0.00031
96.95 0.00031
97 0.00032
97.05 0.00029
97.1 0.00034
97.15 0.00037
97.2 0.00037
97.25 0.00029
97.3 0.00016
97.35 0.00005
97.4 -0.00007
97.45 -0.00019
97.5 -0.00019
97.55 -0.00015
97.6 -0.00003
97.65 0.00004
97.7 0.00003
97.75 -0.00004
97.8 -0.00007
97.85 -0.00008
97.9 -0.00014
97.95 -0.00008
98 -0.00007
98.05 -0.00005
98.1 -0.00004
98.15 -0.00003
98.2 -0.00008
98.25 -0.00017
98.3 -0.00014
98.35 -0.00002
98.4 0.00002
98.45 0.00005
98.5 0.00015
98.55 0.00016
98.6 0.00024
98.65 0.00029
98.7 0.00033
98.75 0.00025
98.8 0.00013
98.85 0.00005
98.9 0.00002
98.95 -0.00003
99 -0.00012
99.05 -0.00021
99.1 -0.00031
99.15 -0.00033
99.2 -0.00034
99.25 -0.00034
99.3 -0.00033
99.35 -0.00034
99.4 -0.00034
99.45 -0.00026
99.5 -0.00012
99.55 -0.00005
99.6 -0.00001
99.65 -0.00003
99.7 -0.00007
99.75 -0.00002
99.8 0.00001
99.85 0.00001
99.9 0.00008
99.95 0.00005
