0 0
0.05 0.00009
0.1 0.00037
0.15 0.00057
0.2 0.00114
0.25 0.0017
0.3 0.00214
0.35 0.00232
0.4 0.00251
0.45 0.00275
0.5 0.00333
0.55 0.00363
0.6 0.00395
0.65 0.0043
0.7 0.00418
0.75 0.00428
0.8 0.00442
0.85 0.00429
0.9 0.00424
0.95 0.00395
1 0.00366
1.05 0.00345
1.1 0.00304
1.15 0.0031
1.2 0.00296
1.25 0.00301
1.3 0.00287
1.35 0.00287
1.4 0.00257
1.45 0.00272
1.5 0.00279
1.55 0.00263
1.6 0.00229
1.65 0.00196
1.7 0.00194
1.75 0.00167
1.8 0.00126
1.85 0.00142
1.9 0.0017
1.95 0.00209
2 0.00267
2.05 0.00295
2.1 0.00325
2.15 0.00318
2.2 0.00295
2.25 0.00308
2.3 0.00316
2.35 0.00308
2.4 0.00264
2.45 0.00245
2.5 0.00233
2.55 0.00215
2.6 0.00191
2.65 0.00203
2.7 0.00208
2.75 0.00217
2.8 0.00248
2.85 0.00248
2.9 0.00248
2.95 0.00264
3 0.00283
3.05 0.00289
3.1 0.00264
3.15 0.00268
3.2 0.00272
3.25 0.00292
3.3 0.00308
3.35 0.00313
3.4 0.00323
3.45 0.00299
3.5 0.00295
3.55 0.00255
3.6 0.00192
3.65 0.00172
3.7 0.00187
3.75 0.00189
3.8 0.00197
3.85 0.00185
3.9 0.00178
3.95 0.00189
4 0.00194
4.05 0.00158
4.1 0.00158
4.15 0.00125
4.2 0.0011
4.25 0.00114
4.3 0.00133
4.35 0.00139
4.4 0.00167
4.45 0.00193
4.5 0.00208
4.55 0.00174
4.6 0.00114
4.65 0.00085
4.7 0.00085
4.75 0.00079
4.8 0.00065
4.85 0.00065
4.9 0.00035
4.95 -0.00016
5 -0.00058
5.05 -0.00094
5.1 -0.00114
5.15 -0.00121
5.2 -0.00096
5.25 -0.00044
5.3 -0.00021
5.35 0.00022
5.4 0.00034
5.45 0.00069
5.5 0.00108
5.55 0.00142
5.6 0.00137
5.65 0.00158
5.7 0.0017
5.75 0.00181
5.8 0.00202
5.85 0.00188
5.9 0.00189
5.95 0.00206
6 0.0022
6.05 0.0021
6.1 0.00173
6.15 0.00124
6.2 0.00056
6.25 0.00032
6.3 0.00043
6.35 0.00034
6.4 0.00027
6.45 0.00035
6.5 0.00036
6.55 0.00013
6.6 -0.00001
6.65 -0.00029
6.7 -0.00014
6.75 -0.00001
6.8 0.0001
6.85 0.00003
6.9 0.00002
6.95 -0.0003
7 -0.00014
7.05 -0.00016
7.1 0.00002
7.15 0.00005
7.2 0.00024
7.25 0.00016
7.3 0.00031
7.35 0.00017
7.4 0.00004
7.45 -0.00015
7.5 -0.00007
7.55 -0.0002
7.6 -0.00041
7.65 -0.00034
7.7 -0.00054
7.75 -0.00068
7.8 -0.00072
7.85 -0.0008
7.9 -0.00056
7.95 -0.00062
8 -0.00085
8.05 -0.00093
8.1 -0.00074
8.15 -0.00064
8.2 -0.00036
8.25 0.00006
8.3 0.00003
8.35 0.00028
8.4 0.00051
8.45 0.00082
8.5 0.00123
8.55 0.00171
8.6 0.0022
8.65 0.00218
8.7 0.00215
8.75 0.00172
8.8 0.00105
8.85 0.00054
8.9 0.00031
8.95 -0.00014
9 -0.00009
9.05 -0.00028
9.1 -0.00011
9.15 0.00005
9.2 0.00046
9.25 0.00085
9.3 0.00075
9.35 0.00056
9.4 0.00029
9.45 -0.00007
9.5 -0.00029
9.55 -0.00044
9.6 -0.00041
9.65 -0.00058
9.7 -0.00037
9.75 -0.00024
9.8 -0.0004
9.85 -0.0006
9.9 -0.00096
9.95 -0.00101
10 -0.00106
10.05 -0.00075
10.1 -0.00038
10.15 0.00023
10.2 0.00059
10.25 0.00102
10.3 0.00089
10.35 0.00059
10.4 0.00022
10.45 0.00028
10.5 0.00021
10.55 0.00024
10.6 0.00017
10.65 0.00026
10.7 0.00039
10.75 0.00075
10.8 0.00092
10.85 0.00102
10.9 0.00128
10.95 0.00155
11 0.00155
11.05 0.00143
11.1 0.00144
11.15 0.00127
11.2 0.00117
11.25 0.00115
11.3 0.00127
11.35 0.00143
11.4 0.00136
11.45 0.00119
11.5 0.00066
11.55 0.00003
11.6 -0.00053
11.65 -0.00065
11.7 -0.00078
11.75 -0.0008
11.8 -0.00048
11.85 -0.00052
11.9 -0.0002
11.95 0.00018
12 0.00058
12.05 0.00085
12.1 0.00114
12.15 0.00096
12.2 0.00089
12.25 0.00053
12.3 0.00042
12.35 0.0005
12.4 0.00034
12.45 0.00033
12.5 0.0001
12.55 0.00006
12.6 -0.00016
12.65 -0.00058
12.7 -0.00105
12.75 -0.00159
12.8 -0.0021
12.85 -0.00194
12.9 -0.00148
12.95 -0.00119
13 -0.00081
13.05 -0.00028
13.1 -0.00001
13.15 0.00011
13.2 0.00027
13.25 0.00043
13.3 0.00061
13.35 0.00089
13.4 0.00108
13.45 0.0014
13.5 0.00125
13.55 0.00116
13.6 0.00077
13.65 0.00032
13.7 -0.0002
13.75 -0.00047
13.8 -0.00064
13.85 -0.00069
13.9 -0.00036
13.95 0.00016
14 0.00038
14.05 0.0005
14.1 0.00042
14.15 0.00002
14.2 -0.00002
14.25 -0.00011
14.3 -0.0004
14.35 -0.00071
14.4 -0.0006
14.45 -0.00066
14.5 -0.00076
14.55 -0.00067
14.6 -0.00044
14.65 -0.00012
14.7 -0.00017
14.75 -0.00017
14.8 -0.00001
14.85 0.00001
14.9 0.00016
14.95 0.00003
15 -0.00021
15.05 -0.00038
15.1 -0.00027
15.15 -0.00004
15.2 0.00041
15.25 0.00078
15.3 0.00104
15.35 0.00118
15.4 0.0009
15.45 0.00084
15.5 0.00062
15.55 0.00014
15.6 0.00003
15.65 -0.00018
15.7 -0.00063
15.75 -0.00073
15.8 -0.00072
15.85 -0.00072
15.9 -0.00045
15.95 -0.00052
16 -0.00077
16.05 -0.00062
16.1 -0.0004
16.15 -0.00011
16.2 0.00024
16.25 0.00019
16.3 -0.00014
16.35 -0.00008
16.4 0.00016
16.45 0.00035
16.5 0.00047
16.55 0.00024
16.6 -0.00015
16.65 -0.00067
16.7 -0.00097
16.75 -0.00098
16.8 -0.00065
16.85 -0.00037
16.9 -0.00002
16.95 0.00029
17 0.00076
17.05 0.00126
17.1 0.00162
17.15 0.00154
17.2 0.00162
17.25 0.00141
17.3 0.00132
17.35 0.00086
17.4 0.0002
17.45 -0.0003
17.5 -0.00049
17.55 -0.00033
17.6 -0.00022
17.65 -0.00036
17.7 -0.0002
17.75 -0.00018
17.8 -0.00005
17.85 0.00002
17.9 0.00018
17.95 0.00001
18 -0.00035
18.05 -0.00085
18.1 -0.00085
18.15 -0.00109
18.2 -0.00146
18.25 -0.00155
18.3 -0.00124
18.35 -0.00074
18.4 -0.0007
18.45 -0.00075
18.5 -0.00047
18.55 -0.00048
18.6 -0.00012
18.65 0.00012
18.7 0.00031
18.75 0.0005
18.8 0.00087
18.85 0.0008
18.9 0.00041
18.95 0.00015
19 0.00028
19.05 0.00027
19.1 0.00022
19.15 0.00044
19.2 0.00034
19.25 0.00041
19.3 0.0007
19.35 0.00102
19.4 0.00114
19.45 0.00127
19.5 0.00139
19.55 0.00151
19.6 0.00134
19.65 0.00135
19.7 0.00105
19.75 0.00048
19.8 -0.00024
19.85 -0.00067
19.9 -0.00111
19.95 -0.00112
20 -0.00101
20.05 -0.00118
20.1 -0.00119
20.15 -0.00106
20.2 -0.00101
20.25 -0.00093
20.3 -0.0007
20.35 -0.0004
20.4 -0.00038
20.45 -0.00041
20.5 -0.00058
20.55 -0.00046
20.6 -0.0007
20.65 -0.00074
20.7 -0.0004
20.75 -0.00024
20.8 -0.00019
20.85 0.00008
20.9 0.0002
20.95 0.00013
21 0.00013
21.05 0.00026
21.1 0.00024
21.15 0.0003
21.2 0.00058
21.25 0.00075
21.3 0.00048
21.35 0.00006
21.4 0.00005
21.45 -0.0003
21.5 -0.00054
21.55 -0.00079
21.6 -0.00072
21.65 -0.00072
21.7 -0.00056
21.75 -0.00012
21.8 0.00031
21.85 0.00084
21.9 0.00129
21.95 0.00125
22 0.00085
22.05 0.00053
22.1 -0.00006
22.15 -0.00043
22.2 -0.00086
22.25 -0.00123
22.3 -0.0012
22.35 -0.00113
22.4 -0.00093
22.45 -0.00107
22.5 -0.00087
22.55 -0.00085
22.6 -0.00081
22.65 -0.0006
22.7 -0.00022
22.75 -0.00026
22.8 -0.0006
22.85 -0.00054
22.9 -0.00066
22.95 -0.00071
23 -0.00077
23.05 -0.00072
23.1 -0.00091
23.15 -0.00075
23.2 -0.00037
23.25 0.00009
23.3 0.00058
23.35 0.0006
23.4 0.00037
23.45 0.00024
23.5 0.00026
23.55 0.00008
23.6 0.00001
23.65 0.00029
23.7 0.00071
23.75 0.00094
23.8 0.00119
23.85 0.00139
23.9 0.00163
23.95 0.0017
24 0.00153
24.05 0.00101
24.1 0.00082
24.15 0.00052
24.2 0.00024
24.25 -0.00011
24.3 -0.00044
24.35 -0.00036
24.4 -0.00029
24.45 -0.00055
24.5 -0.00038
24.55 -0.00021
24.6 -0.00041
24.65 -0.00019
24.7 0.00025
24.75 0.00047
24.8 0.00054
24.85 0.00039
24.9 0.00052
24.95 0.0004
25 0.00016
25.05 0.00029
25.1 0.0002
25.15 0.00016
25.2 0.00032
25.25 0.00046
25.3 0.00052
25.35 0.00071
25.4 0.00085
25.45 0.00092
25.5 0.00058
25.55 0.0001
25.6 -0.0002
25.65 -0.00041
25.7 -0.00065
25.75 -0.00092
25.8 -0.00115
25.85 -0.00119
25.9 -0.00088
25.95 -0.00032
26 -0.00003
26.05 0.00004
26.1 0.00023
26.15 0.00054
26.2 0.0005
26.25 0.00036
26.3 0.00023
26.35 0.00004
26.4 -0.00005
26.45 -0.00033
26.5 -0.00029
26.55 -0.0003
26.6 -0.00049
26.65 -0.00063
26.7 -0.00083
26.75 -0.00124
26.8 -0.00162
26.85 -0.00187
26.9 -0.00201
26.95 -0.00227
27 -0.002
27.05 -0.00168
27.1 -0.00111
27.15 -0.00062
27.2 -0.00048
27.25 -0.00043
27.3 -0.00003
27.35 0.00021
27.4 0.00004
27.45 -0.00022
27.5 -0.00031
27.55 -0.00019
27.6 -0.00027
27.65 -0.0006
27.7 -0.00073
27.75 -0.00089
27.8 -0.0011
27.85 -0.00127
27.9 -0.00148
27.95 -0.00163
28 -0.00138
28.05 -0.00132
28.1 -0.00096
28.15 -0.00073
28.2 -0.00066
28.25 -0.00023
28.3 0.00019
28.35 0.0004
28.4 0.00049
28.45 0.00069
28.5 0.00056
28.55 0.00022
28.6 0.00003
28.65 -0.00007
28.7 -0.00026
28.75 -0.00014
28.8 -0.00029
28.85 -0.00017
28.9 0.00013
28.95 0.00055
29 0.00051
29.05 0.00058
29.1 0.00048
29.15 0.00023
29.2 -0.00021
29.25 -0.00022
29.3 -0.00026
29.35 -0.0001
29.4 0.00017
29.45 0.00054
29.5 0.00049
29.55 0.00064
29.6 0.00037
29.65 0.00019
29.7 -0.00005
29.75 0
29.8 0.00031
29.85 0.0004
29.9 0.00074
29.95 0.00093
30 0.00076
30.05 0.00074
30.1 0.00096
30.15 0.00114
30.2 0.00144
30.25 0.00157
30.3 0.0015
30.35 0.00123
30.4 0.00064
30.45 -0.00012
30.5 -0.00074
30.55 -0.00106
30.6 -0.00099
30.65 -0.00113
30.7 -0.00113
30.75 -0.00111
30.8 -0.00105
30.85 -0.00066
30.9 -0.00059
30.95 -0.0004
31 -0.0002
31.05 0.00003
31.1 0.0005
31.15 0.00044
31.2 0.00039
31.25 0.00058
31.3 0.00043
31.35 0.0005
31.4 0.00046
31.45 0.00066
31.5 0.00054
31.55 0.00055
31.6 0.00041
31.65 0.00021
31.7 0.00002
31.75 -0.00011
31.8 -0.00006
31.85 0.00006
31.9 -0.00021
31.95 -0.00032
32 -0.00067
32.05 -0.00095
32.1 -0.00116
32.15 -0.00092
32.2 -0.00043
32.25 -0.0002
32.3 -0.00002
32.35 -0.00017
32.4 -0.00019
32.45 -0.00017
32.5 -0.0002
32.55 0.00005
32.6 0.00034
32.65 0.00067
32.7 0.00061
32.75 0.00042
32.8 0.00036
32.85 0.00056
32.9 0.00084
32.95 0.00086
33 0.00089
33.05 0.00103
33.1 0.00113
33.15 0.00128
33.2 0.00123
33.25 0.00135
33.3 0.00126
33.35 0.00115
33.4 0.00105
33.45 0.00055
33.5 0.00035
33.55 0.00019
33.6 -0.00016
33.65 -0.00066
33.7 -0.00118
33.75 -0.00119
33.8 -0.00101
33.85 -0.00072
33.9 -0.00063
33.95 -0.00066
34 -0.00087
34.05 -0.0008
34.1 -0.00038
34.15 -0
34.2 0.0002
34.25 0.00041
34.3 0.00043
34.35 0.00011
34.4 0
34.45 -0.00018
34.5 -0.00003
34.55 -0
34.6 0.00032
34.65 0.00048
34.7 0.00039
34.75 0.00038
34.8 0.00035
34.85 0.00019
34.9 -0.00005
34.95 -0.00013
35 -0.00026
35.05 -0.00036
35.1 -0.00008
35.15 -0.00007
35.2 0.00009
35.25 0.00024
35.3 0.00015
35.35 -0.00009
35.4 -0.00002
35.45 0.00019
35.5 0.00014
35.55 0.00021
35.6 0.00053
35.65 0.00065
35.7 0.00041
35.75 -0.00011
35.8 -0.00019
35.85 -0.00001
35.9 0.00041
35.95 0.00045
36 0.0007
36.05 0.00078
36.1 0.00049
36.15 0.00044
36.2 0.00041
36.25 0.00038
36.3 0
36.35 -0.00025
36.4 -0.00028
36.45 -0.00002
36.5 -0.00002
36.55 0.00026
36.6 0.0005
36.65 0.00028
36.7 0.00012
36.75 -0.00034
36.8 -0.00084
36.85 -0.00081
36.9 -0.00088
36.95 -0.00061
37 -0.00063
37.05 -0.00068
37.1 -0.00081
37.15 -0.00061
37.2 -0.00074
37.25 -0.0007
37.3 -0.00058
37.35 -0.00047
37.4 -0.00033
37.45 -0.00039
37.5 -0.00061
37.55 -0.00075
37.6 -0.00097
37.65 -0.001
37.7 -0.00107
37.75 -0.00082
37.8 -0.00079
37.85 -0.00076
37.9 -0.00046
37.95 -0.00053
38 -0.0004
38.05 -0.00057
38.1 -0.00046
38.15 -0.00014
38.2 0.00002
38.25 0.00006
38.3 0.0001
38.35 0.00033
38.4 0.00014
38.45 -0.00016
38.5 -0.00042
38.55 -0.00073
38.6 -0.00055
38.65 -0.00037
38.7 -0.00039
38.75 -0.00014
38.8 -0.00028
38.85 -0.00013
38.9 -0.00012
38.95 0.00001
39 0.00016
39.05 0.00017
39.1 -0.00005
39.15 -0.00038
39.2 -0.00064
39.25 -0.00063
39.3 -0.00042
39.35 -0.00005
39.4 0.00022
39.45 0.00067
39.5 0.00064
39.55 0.00033
39.6 -0.00019
39.65 -0.0005
39.7 -0.00036
39.75 -0.00004
39.8 0.00024
39.85 0.00039
39.9 0.00077
39.95 0.00096
40 0.00079
40.05 0.00034
40.1 -0.00012
40.15 -0.00013
40.2 -0.00038
40.25 -0.00039
40.3 -0.00045
40.35 -0.00027
40.4 -0.00012
40.45 0.00022
40.5 0.00016
40.55 0.00014
40.6 0.00022
40.65 0.00023
40.7 0.00013
40.75 -0.00001
40.8 -0.00031
40.85 -0.00026
40.9 -0.00011
40.95 -0.00033
41 -0.00034
41.05 -0.00037
41.1 -0.00025
41.15 -0.0003
41.2 -0.00058
41.25 -0.00061
41.3 -0.00034
41.35 -0.00011
41.4 0.00032
41.45 0.00025
41.5 0.00049
41.55 0.00078
41.6 0.00078
41.65 0.00053
41.7 0.00031
41.75 -0.00008
41.8 -0.00055
41.85 -0.0008
41.9 -0.00093
41.95 -0.00079
42 -0.00089
42.05 -0.0012
42.1 -0.00114
42.15 -0.00091
42.2 -0.00054
42.25 -0.00015
42.3 -0.00004
42.35 -0.00023
42.4 -0.00038
42.45 -0.00061
42.5 -0.00092
42.55 -0.00076
42.6 -0.00037
42.65 0.0002
42.7 0.00049
42.75 0.00048
42.8 0.00035
42.85 -0.00001
42.9 -0.00033
42.95 -0.00036
43 -0.00012
43.05 0.00031
43.1 0.00078
43.15 0.00098
43.2 0.00117
43.25 0.00118
43.3 0.00125
43.35 0.00128
43.4 0.0013
43.45 0.00135
43.5 0.00124
43.55 0.00138
43.6 0.00124
43.65 0.0007
43.7 0.00056
43.75 0.00057
43.8 0.00052
43.85 0.00073
43.9 0.00066
43.95 0.00043
44 0.00014
44.05 0.00021
44.1 0.0001
44.15 -0.00014
44.2 -0.00018
44.25 -0.00019
44.3 0.00006
44.35 0.00034
44.4 0.00044
44.45 0.00073
44.5 0.00087
44.55 0.00059
44.6 0.00013
44.65 -0.00046
44.7 -0.00057
44.75 -0.00083
44.8 -0.00113
44.85 -0.00092
44.9 -0.00058
44.95 -0.00047
45 -0.00004
45.05 -0.00006
45.1 -0.00009
45.15 -0.00015
45.2 0.00014
45.25 0.00051
45.3 0.00053
45.35 0.00059
45.4 0.00064
45.45 0.00089
45.5 0.00127
45.55 0.00144
45.6 0.00127
45.65 0.00099
45.7 0.00065
45.75 0.0001
45.8 -0.00043
45.85 -0.00091
45.9 -0.00115
45.95 -0.00132
46 -0.00113
46.05 -0.00118
46.1 -0.00117
46.15 -0.00123
46.2 -0.00123
46.25 -0.0011
46.3 -0.0006
46.35 -0.00038
46.4 -0.00019
46.45 -0.00002
46.5 0.00039
46.55 0.00083
46.6 0.00077
46.65 0.0009
46.7 0.00108
46.75 0.00092
46.8 0.00087
46.85 0.00046
46.9 0.00027
46.95 -0.00001
47 -0.00003
47.05 0.00024
47.1 0.00028
47.15 0
47.2 -0.00026
47.25 -0.00068
47.3 -0.00088
47.35 -0.00098
47.4 -0.00082
47.45 -0.00099
47.5 -0.00106
47.55 -0.00115
47.6 -0.00084
47.65 -0.00038
47.7 0.00014
47.75 0.00025
47.8 0.00045
47.85 0.00071
47.9 0.00099
47.95 0.00075
48 0.00062
48.05 0.00052
48.1 0.0001
48.15 -0.0004
48.2 -0.00053
48.25 -0.00069
48.3 -0.00101
48.35 -0.00094
48.4 -0.00065
48.45 -0.00043
48.5 -0.00014
48.55 -0.00019
48.6 -0.00051
48.65 -0.00059
48.7 -0.00048
48.75 -0.00019
48.8 0.00029
48.85 0.00038
48.9 0.00033
48.95 0.00026
49 -0.00013
49.05 -0.00023
49.1 -0.00029
49.15 -0.00029
49.2 -0.00004
49.25 -0.00019
49.3 -0.00037
49.35 -0.00074
49.4 -0.00123
49.45 -0.00122
49.5 -0.00088
49.55 -0.00054
49.6 -0.00019
49.65 0.00013
49.7 0.00008
49.75 -0.0002
49.8 -0.00013
49.85 0.00009
49.9 0.00014
49.95 0.00034
50 0.00021
50.05 0.00023
50.1 0.00003
50.15 -0.00007
50.2 0.00019
50.25 0.00029
50.3 0.00018
50.35 0.00042
50.4 0.00056
50.45 0.00066
50.5 0.00065
50.55 0.00089
50.6 0.00063
50.65 0.00064
50.7 0.00048
50.75 0.00043
50.8 0.00057
50.85 0.00053
50.9 0.00019
50.95 0.00013
51 -0.00014
51.05 -0.0001
51.1 -0.0002
51.15 -0.00054
51.2 -0.00062
51.25 -0.00035
51.3 -0.00009
51.35 0.00011
51.4 0.00001
51.45 -0.00024
51.5 -0.00038
51.55 -0.00025
51.6 0.00008
51.65 -0.00001
51.7 0.00009
51.75 0.00036
51.8 0.00022
51.85 0.00017
51.9 0.00032
51.95 0.00067
52 0.00109
52.05 0.00121
52.1 0.00101
52.15 0.00103
52.2 0.00098
52.25 0.00064
52.3 0.00012
52.35 -0.00055
52.4 -0.00112
52.45 -0.00137
52.5 -0.00176
52.55 -0.00218
52.6 -0.00203
52.65 -0.00199
52.7 -0.00171
52.75 -0.00156
52.8 -0.0016
52.85 -0.00136
52.9 -0.0008
52.95 -0.00036
53 -0.00019
53.05 -0.00013
53.1 -0.00009
53.15 0.00019
53.2 0.00031
53.25 0.00019
53.3 0.00008
53.35 -0.00015
53.4 -0.00032
53.45 -0.0005
53.5 -0.00055
53.55 -0.00077
53.6 -0.00075
53.65 -0.00077
53.7 -0.00044
53.75 -0.00037
53.8 -0.00035
53.85 -0.00018
53.9 -0.0003
53.95 -0.00058
54 -0.0005
54.05 -0.00069
54.1 -0.00051
54.15 -0.00036
54.2 -0.00051
54.25 -0.00041
54.3 -0.00018
54.35 -0
54.4 0
54.45 0.00025
54.5 0.00011
54.55 0.00028
54.6 0.00044
54.65 0.00063
54.7 0.00091
54.75 0.00099
54.8 0.00118
54.85 0.00113
54.9 0.0012
54.95 0.00108
55 0.0012
55.05 0.00099
55.1 0.00055
55.15 -0.00004
55.2 -0.00053
55.25 -0.00059
55.3 -0.00031
55.35 -0.00013
55.4 -0
55.45 0.00029
55.5 0.00055
55.55 0.00098
55.6 0.00146
55.65 0.00175
55.7 0.00172
55.75 0.00138
55.8 0.00104
55.85 0.00066
55.9 0.00065
55.95 0.00054
56 0.00012
56.05 0.00012
56.1 0.00025
56.15 0
56.2 0.00002
56.25 -0.00006
56.3 0.00018
56.35 0.00038
56.4 0.00038
56.45 0.00005
56.5 -0.0004
56.55 -0.00058
56.6 -0.00096
56.65 -0.00096
56.7 -0.00077
56.75 -0.00069
56.8 -0.00092
56.85 -0.001
56.9 -0.00106
56.95 -0.00102
57 -0.00093
57.05 -0.00049
57.1 -0.00027
57.15 0.00019
57.2 0.00048
57.25 0.00067
57.3 0.00091
57.35 0.00096
57.4 0.00105
57.45 0.00125
57.5 0.00102
57.55 0.0007
57.6 0.00058
57.65 0.0003
57.7 -0.00012
57.75 -0.00072
57.8 -0.00102
57.85 -0.00099
57.9 -0.00096
57.95 -0.00096
58 -0.00104
58.05 -0.00116
58.1 -0.00145
58.15 -0.00178
58.2 -0.00158
58.25 -0.00134
58.3 -0.00109
58.35 -0.00069
58.4 -0.00022
58.45 -0.00003
58.5 -0.00008
58.55 -0.00002
58.6 0.00007
58.65 -0.00007
58.7 0.00002
58.75 0.00037
58.8 0.00081
58.85 0.00073
58.9 0.00034
58.95 0.00008
59 0.00017
59.05 0.00037
59.1 0.00014
59.15 -0.00022
59.2 -0.00043
59.25 -0.00045
59.3 -0.00065
59.35 -0.0007
59.4 -0.00071
59.45 -0.00094
59.5 -0.00092
59.55 -0.00081
59.6 -0.00042
59.65 -0.00006
59.7 -0.00003
59.75 0.00014
59.8 0.00009
59.85 0.00035
59.9 0.00075
59.95 0.00109
60 0.00116
60.05 0.00098
60.1 0.00103
60.15 0.00083
60.2 0.00054
60.25 0.00012
60.3 0.0001
60.35 0.00013
60.4 0.00027
60.45 0.00029
60.5 0.00015
60.55 0.00034
60.6 0.00037
60.65 0.00041
60.7 0.0003
60.75 0.00021
60.8 0.00035
60.85 0.0004
60.9 0.00009
60.95 0.0001
61 0.0004
61.05 0.00071
61.1 0.0008
61.15 0.00072
61.2 0.0008
61.25 0.00095
61.3 0.00069
61.35 0.00045
61.4 0.00013
61.45 -0.0003
61.5 -0.0004
61.55 -0.00054
61.6 -0.00094
61.65 -0.00136
61.7 -0.00133
61.75 -0.00132
61.8 -0.00123
61.85 -0.00104
61.9 -0.00097
61.95 -0.00067
62 -0.00016
62.05 -0.00011
62.1 -0.00008
62.15 -0.00029
62.2 -0.00059
62.25 -0.00042
62.3 -0.00044
62.35 -0.00073
62.4 -0.00104
62.45 -0.00119
62.5 -0.00123
62.55 -0.00138
62.6 -0.00162
62.65 -0.00153
62.7 -0.00117
62.75 -0.00102
62.8 -0.00067
62.85 -0.00042
62.9 0.00006
62.95 0.00015
63 -0.00008
63.05 -0.00018
63.1 -0.00033
63.15 -0.00064
63.2 -0.00055
63.25 -0.0004
63.3 0.00003
63.35 0.00018
63.4 0.00033
63.45 0.00015
63.5 -0.00007
63.55 -0.00014
63.6 0.0001
63.65 0.00051
63.7 0.00043
63.75 0.00061
63.8 0.00096
63.85 0.00111
63.9 0.00123
63.95 0.00084
64 0.00028
64.05 -0.00051
64.1 -0.00105
64.15 -0.00116
64.2 -0.00112
64.25 -0.0012
64.3 -0.00168
64.35 -0.00234
64.4 -0.0027
64.45 -0.00345
64.5 -0.0044
64.55 -0.00565
64.6 -0.00681
64.65 -0.0081
64.7 -0.00931
64.75 -0.01075
64.8 -0.0124
64.85 -0.01439
64.9 -0.01614
64.95 -0.01842
65 -0.02064
65.05 -0.02298
65.1 -0.0257
65.15 -0.02917
65.2 -0.03277
65.25 -0.03662
65.3 -0.04105
65.35 -0.04597
65.4 -0.05119
65.45 -0.05672
65.5 -0.06277
65.55 -0.06923
65.6 -0.07589
65.65 -0.08298
65.7 -0.09023
65.75 -0.09805
65.8 -0.10612
65.85 -0.1142
65.9 -0.1222
65.95 -0.13028
66 -0.13782
66.05 -0.14483
66.1 -0.15131
66.15 -0.15702
66.2 -0.16222
66.25 -0.16671
66.3 -0.17076
66.35 -0.17439
66.4 -0.17714
66.45 -0.17903
66.5 -0.17998
66.55 -0.17963
66.6 -0.17858
66.65 -0.17632
66.7 -0.17297
66.75 -0.16896
66.8 -0.16387
66.85 -0.15816
66.9 -0.15171
66.95 -0.14411
67 -0.13554
67.05 -0.12636
67.1 -0.11714
67.15 -0.10774
67.2 -0.09792
67.25 -0.088
67.3 -0.07749
67.35 -0.06699
67.4 -0.05661
67.45 -0.04614
67.5 -0.03593
67.55 -0.02592
67.6 -0.0157
67.65 -0.00593
67.7 0.00397
67.75 0.01376
67.8 0.02315
67.85 0.03232
67.9 0.04138
67.95 0.04998
68 0.05873
68.05 0.06722
68.1 0.07543
68.15 0.0834
68.2 0.09108
68.25 0.09907
68.3 0.10719
68.35 0.11474
68.4 0.12192
68.45 0.12902
68.5 0.1359
68.55 0.14259
68.6 0.14908
68.65 0.15514
68.7 0.16064
68.75 0.16536
68.8 0.1694
68.85 0.17294
68.9 0.17601
68.95 0.1783
69 0.18019
69.05 0.18147
69.1 0.18224
69.15 0.18232
69.2 0.18196
69.25 0.18101
69.3 0.17906
69.35 0.17688
69.4 0.17432
69.45 0.17148
69.5 0.16818
69.55 0.16451
69.6 0.16072
69.65 0.15683
69.7 0.15255
69.75 0.14816
69.8 0.14393
69.85 0.13935
69.9 0.135
69.95 0.1305
70 0.1261
70.05 0.12138
70.1 0.11679
70.15 0.11263
70.2 0.10812
70.25 0.10372
70.3 0.09952
70.35 0.09553
70.4 0.09167
70.45 0.08823
70.5 0.08509
70.55 0.08175
70.6 0.07851
70.65 0.07517
70.7 0.07199
70.75 0.06868
70.8 0.06576
70.85 0.0628
70.9 0.05966
70.95 0.05633
71 0.05356
71.05 0.05078
71.1 0.04792
71.15 0.04542
71.2 0.04264
71.25 0.0398
71.3 0.03706
71.35 0.03484
71.4 0.03248
71.45 0.03025
71.5 0.02801
71.55 0.02604
71.6 0.02382
71.65 0.02172
71.7 0.01954
71.75 0.01726
71.8 0.01534
71.85 0.01341
71.9 0.01172
71.95 0.00989
72 0.00832
72.05 0.00666
72.1 0.00462
72.15 0.00256
72.2 0.00065
72.25 -0.00115
72.3 -0.0031
72.35 -0.00454
72.4 -0.00577
72.45 -0.00727
72.5 -0.00859
72.55 -0.00997
72.6 -0.01102
72.65 -0.01227
72.7 -0.01378
72.75 -0.01478
72.8 -0.01543
72.85 -0.01615
72.9 -0.01715
72.95 -0.0182
73 -0.01911
73.05 -0.02011
73.1 -0.02074
73.15 -0.02145
73.2 -0.02222
73.25 -0.02271
73.3 -0.02295
73.35 -0.02307
73.4 -0.02308
73.45 -0.02304
73.5 -0.02322
73.55 -0.02367
73.6 -0.02407
73.65 -0.02419
73.7 -0.02459
73.75 -0.02512
73.8 -0.02543
73.85 -0.02557
73.9 -0.02597
73.95 -0.02635
74 -0.02672
74.05 -0.02723
74.1 -0.02717
74.15 -0.02674
74.2 -0.02643
74.25 -0.02622
74.3 -0.02615
74.35 -0.02595
74.4 -0.02597
74.45 -0.02595
74.5 -0.02581
74.55 -0.02546
74.6 -0.02536
74.65 -0.02548
74.7 -0.02541
74.75 -0.02524
74.8 -0.0249
74.85 -0.02444
74.9 -0.02419
74.95 -0.02378
75 -0.02313
75.05 -0.02242
75.1 -0.0216
75.15 -0.02091
75.2 -0.02062
75.25 -0.02029
75.3 -0.02026
75.35 -0.02047
75.4 -0.02029
75.45 -0.0198
75.5 -0.01971
75.55 -0.01969
75.6 -0.01949
75.65 -0.01897
75.7 -0.01832
75.75 -0.01756
75.8 -0.01675
75.85 -0.0166
75.9 -0.01622
75.95 -0.016
76 -0.01602
76.05 -0.01611
76.1 -0.01631
76.15 -0.01643
76.2 -0.01659
76.25 -0.01668
76.3 -0.0163
76.35 -0.01585
76.4 -0.0155
76.45 -0.01509
76.5 -0.01509
76.55 -0.01489
76.6 -0.01436
76.65 -0.0137
76.7 -0.01309
76.75 -0.01276
76.8 -0.01242
76.85 -0.01246
76.9 -0.01275
76.95 -0.01305
77 -0.01338
77.05 -0.01321
77.1 -0.01305
77.15 -0.01281
77.2 -0.01278
77.25 -0.01298
77.3 -0.01308
77.35 -0.01321
77.4 -0.01289
77.45 -0.01221
77.5 -0.01183
77.55 -0.01151
77.6 -0.01127
77.65 -0.01122
77.7 -0.01139
77.75 -0.01104
77.8 -0.01099
77.85 -0.01059
77.9 -0.01039
77.95 -0.0102
78 -0.00988
78.05 -0.00943
78.1 -0.00926
78.15 -0.0093
78.2 -0.00908
78.25 -0.00856
78.3 -0.00793
78.35 -0.00781
78.4 -0.00801
78.45 -0.00789
78.5 -0.00772
78.55 -0.00741
78.6 -0.00755
78.65 -0.00788
78.7 -0.00823
78.75 -0.00816
78.8 -0.0079
78.85 -0.00776
78.9 -0.00732
78.95 -0.00714
79 -0.00672
79.05 -0.00659
79.1 -0.00653
79.15 -0.00626
79.2 -0.00642
79.25 -0.00651
79.3 -0.00623
79.35 -0.00585
79.4 -0.00559
79.45 -0.00534
79.5 -0.00489
79.55 -0.00445
79.6 -0.00458
79.65 -0.00476
79.7 -0.00486
79.75 -0.00502
79.8 -0.00523
79.85 -0.00535
79.9 -0.00571
79.95 -0.00579
80 -0.00602
80.05 -0.00585
80.1 -0.00551
80.15 -0.00517
80.2 -0.00468
80.25 -0.00429
80.3 -0.00397
80.35 -0.00403
80.4 -0.00429
80.45 -0.00426
80.5 -0.00414
80.55 -0.0039
80.6 -0.00372
80.65 -0.00389
80.7 -0.00423
80.75 -0.00464
80.8 -0.00464
80.85 -0.00424
80.9 -0.00368
80.95 -0.00366
81 -0.0035
81.05 -0.00368
81.1 -0.00374
81.15 -0.00381
81.2 -0.00405
81.25 -0.00392
81.3 -0.00405
81.35 -0.004
81.4 -0.0041
81.45 -0.0038
81.5 -0.00362
81.55 -0.00378
81.6 -0.00403
81.65 -0.00377
81.7 -0.00343
81.75 -0.0031
81.8 -0.0031
81.85 -0.00287
81.9 -0.00256
81.95 -0.00261
82 -0.00276
82.05 -0.00273
82.1 -0.00244
82.15 -0.00245
82.2 -0.00261
82.25 -0.00285
82.3 -0.00273
82.35 -0.00236
82.4 -0.00193
82.45 -0.00144
82.5 -0.00119
82.55 -0.00086
82.6 -0.00074
82.65 -0.00045
82.7 -0.00038
82.75 -0.00079
82.8 -0.00147
82.85 -0.00212
82.9 -0.0026
82.95 -0.00306
83 -0.00295
83.05 -0.00266
83.1 -0.00268
83.15 -0.00247
83.2 -0.00257
83.25 -0.00278
83.3 -0.003
83.35 -0.0029
83.4 -0.00263
83.45 -0.00231
83.5 -0.00232
83.55 -0.00252
83.6 -0.00278
83.65 -0.00267
83.7 -0.00278
83.75 -0.00282
83.8 -0.00278
83.85 -0.00237
83.9 -0.00224
83.95 -0.00218
84 -0.00176
84.05 -0.00148
84.1 -0.00132
84.15 -0.00141
84.2 -0.00171
84.25 -0.00189
84.3 -0.00163
84.35 -0.00123
84.4 -0.00065
84.45 -0.00035
84.5 -0.00045
84.55 -0.0006
84.6 -0.00085
84.65 -0.00128
84.7 -0.00122
84.75 -0.00099
84.8 -0.00089
84.85 -0.00078
84.9 -0.00099
84.95 -0.00088
85 -0.0008
85.05 -0.0006
85.1 -0.00073
85.15 -0.00052
85.2 -0.00057
85.25 -0.00057
85.3 -0.00077
85.35 -0.0012
85.4 -0.00135
85.45 -0.0011
85.5 -0.00099
85.55 -0.00086
85.6 -0.00101
85.65 -0.00116
85.7 -0.00091
85.75 -0.00091
85.8 -0.00101
85.85 -0.00091
85.9 -0.00112
85.95 -0.00137
86 -0.00125
86.05 -0.0014
86.1 -0.00156
86.15 -0.0014
86.2 -0.00101
86.25 -0.00053
86.3 -0.00021
86.35 0.00003
86.4 -0.00015
86.45 -0.00042
86.5 -0.00049
86.55 -0.00037
86.6 -0.00045
86.65 -0.00061
86.7 -0.00082
86.75 -0.00061
86.8 -0.00071
86.85 -0.0005
86.9 -0.00044
86.95 -0.00045
87 -0.00057
87.05 -0.00073
87.1 -0.00048
87.15 -0.0001
87.2 -0.00013
87.25 0.00009
87.3 0.0004
87.35 0.00019
87.4 0.00004
87.45 -0.0001
87.5 -0.00028
87.55 -0.00055
87.6 -0.00083
87.65 -0.00122
87.7 -0.00114
87.75 -0.00129
87.8 -0.0011
87.85 -0.00063
87.9 -0.00034
87.95 -0.0001
88 0.00028
88.05 0.00054
88.1 0.00078
88.15 0.00081
88.2 0.00067
88.25 0.00074
88.3 0.00082
88.35 0.00053
88.4 0.00023
88.45 -0.00013
88.5 -0.00053
88.55 -0.00056
88.6 -0.00075
88.65 -0.00059
88.7 -0.00043
88.75 -0.00014
88.8 -0.00026
88.85 -0.00039
88.9 -0.00065
88.95 -0.0008
89 -0.00073
89.05 -0.00067
89.1 -0.00033
89.15 -0.00007
89.2 0.00034
89.25 0.00024
89.3 0.0002
89.35 0.00034
89.4 0.00064
89.45 0.00078
89.5 0.00105
89.55 0.00118
89.6 0.00124
89.65 0.00134
89.7 0.00095
89.75 0.00069
89.8 0.00064
89.85 0.00022
89.9 -0.00044
89.95 -0.0009
90 -0.00127
90.05 -0.00136
90.1 -0.00138
90.15 -0.00142
90.2 -0.00136
90.25 -0.00104
90.3 -0.001
90.35 -0.00092
90.4 -0.00109
90.45 -0.00122
90.5 -0.00137
90.55 -0.00138
90.6 -0.00132
90.65 -0.00094
90.7 -0.00061
90.75 -0.00016
90.8 0.00011
90.85 0.00028
90.9 0.00029
90.95 0.0001
91 0.00004
91.05 0.00022
91.1 0.00032
91.15 0.00001
91.2 -0.00021
91.25 -0.0001
91.3 -0.00007
91.35 0.00002
91.4 0.00032
91.45 0.00041
91.5 0.00046
91.55 0.0005
91.6 0.00071
91.65 0.00086
91.7 0.00083
91.75 0.00043
91.8 0.00036
91.85 0.00017
91.9 -0.00001
91.95 -0.00033
92 -0.0008
92.05 -0.00127
92.1 -0.00147
92.15 -0.00162
92.2 -0.0013
92.25 -0.00097
92.3 -0.00042
92.35 0.00026
92.4 0.00088
92.45 0.00109
92.5 0.00102
92.55 0.00096
92.6 0.00054
92.65 0.00006
92.7 -0.00036
92.75 -0.00064
92.8 -0.00096
92.85 -0.00136
92.9 -0.00127
92.95 -0.00144
93 -0.00136
93.05 -0.00106
93.1 -0.00061
93.15 -0.00062
93.2 -0.00026
93.25 -0.00026
93.3 -0.00031
93.35 -0.00039
93.4 -0.00065
93.45 -0.0005
93.5 -0.00027
93.55 0.00015
93.6 0.00006
93.65 0.00011
93.7 0.00028
93.75 0.00004
93.8 -0.00024
93.85 -0.00056
93.9 -0.00091
93.95 -0.00079
94 -0.00044
94.05 -0.00017
94.1 0.00025
94.15 0.00056
94.2 0.00048
94.25 0.00032
94.3 -0.00009
94.35 -0.00024
94.4 -0.00054
94.45 -0.00098
94.5 -0.00092
94.55 -0.0008
94.6 -0.00039
94.65 0.00022
94.7 0.00062
94.75 0.00107
94.8 0.00123
94.85 0.00105
94.9 0.00102
94.95 0.00094
95 0.00107
95.05 0.00121
95.1 0.00098
95.15 0.00052
95.2 -0.00016
95.25 -0.00045
95.3 -0.00031
95.35 0.00006
95.4 0.00058
95.45 0.00117
95.5 0.00153
95.55 0.00133
95.6 0.00084
95.65 0.00054
95.7 0.00052
95.75 0.00071
95.8 0.00099
95.85 0.00085
95.9 0.00085
95.95 0.00087
96 0.00051
96.05 0.00035
96.1 0.00016
96.15 0.00018
96.2 0.00003
96.25 -0.00014
96.3 -0.00037
96.35 -0.0004
96.4 -0.00056
96.45 -0.00057
96.5 -0.00072
96.55 -0.00081
96.6 -0.00086
96.65 -0.00055
96.7 -0.00063
96.75 -0.00043
96.8 -0.00043
96.85 -0.00022
96.9 0.0002
96.95 0.00071
97 0.00102
97.05 0.00129
97.1 0.00145
97.15 0.0015
97.2 0.00135
97.25 0.0011
97.3 0.00095
97.35 0.00073
97.4 0.00074
97.45 0.0007
97.5 0.00057
97.55 0.00069
97.6 0.00071
97.65 0.00089
97.7 0.00106
97.75 0.00129
97.8 0.00161
97.85 0.00189
97.9 0.00165
97.95 0.00151
98 0.00102
98.05 0.00066
98.1 0.00019
98.15 -0.00001
98.2 -0.00045
98.25 -0.00075
98.3 -0.00112
98.35 -0.00098
98.4 -0.00061
98.45 -0.00051
98.5 -0.00034
98.55 -0.00006
98.6 -0.00025
98.65 -0.0003
98.7 -0.00003
98.75 0.00023
98.8 0.00019
98.85 0.00041
98.9 0.00073
98.95 0.0007
99 0.00054
99.05 0.00018
99.1 -0.00017
99.15 -0.00055
99.2 -0.00094
99.25 -0.00141
99.3 -0.00167
99.35 -0.00159
99.4 -0.00134
99.45 -0.00117
99.5 -0.00131
99.55 -0.00131
99.6 -0.00135
99.65 -0.0016
99.7 -0.00183
99.75 -0.00196
99.8 -0.00188
99.85 -0.00149
99.9 -0.00137
99.95 -0.00146
