0 0
0.05 0.00058
0.1 0.00184
0.15 0.00359
0.2 0.00485
0.25 0.00624
0.3 0.00663
0.35 0.00718
0.4 0.00741
0.45 0.00716
0.5 0.00729
0.55 0.00743
0.6 0.00796
0.65 0.00796
0.7 0.00825
0.75 0.00849
0.8 0.00801
0.85 0.00726
0.9 0.0072
0.95 0.00674
1 0.00687
1.05 0.00624
1.1 0.00634
1.15 0.0063
1.2 0.00657
1.25 0.00715
1.3 0.0069
1.35 0.00697
1.4 0.00695
1.45 0.00686
1.5 0.00699
1.55 0.00713
1.6 0.0064
1.65 0.0056
1.7 0.00442
1.75 0.00328
1.8 0.00291
1.85 0.00286
1.9 0.00335
1.95 0.00309
2 0.00349
2.05 0.0037
2.1 0.00394
2.15 0.00372
2.2 0.00371
2.25 0.00399
2.3 0.00405
2.35 0.00344
2.4 0.00302
2.45 0.00313
2.5 0.00332
2.55 0.00392
2.6 0.00433
2.65 0.00418
2.7 0.00455
2.75 0.0049
2.8 0.00439
2.85 0.00416
2.9 0.00408
2.95 0.00388
3 0.00338
3.05 0.00291
3.1 0.00263
3.15 0.00301
3.2 0.00358
3.25 0.00383
3.3 0.00371
3.35 0.00337
3.4 0.00284
3.45 0.00288
3.5 0.00244
3.55 0.00229
3.6 0.00259
3.65 0.00274
3.7 0.00294
3.75 0.003
3.8 0.00346
3.85 0.00401
3.9 0.00443
3.95 0.00415
4 0.00393
4.05 0.00366
4.1 0.00314
4.15 0.00235
4.2 0.00222
4.25 0.00212
4.3 0.00219
4.35 0.00205
4.4 0.00161
4.45 0.00143
4.5 0.00083
4.55 0.0008
4.6 0.00108
4.65 0.00159
4.7 0.00208
4.75 0.00223
4.8 0.00247
4.85 0.00227
4.9 0.00202
4.95 0.00138
5 0.00079
5.05 0.00028
5.1 -0.00002
5.15 -0.0002
5.2 0.00011
5.25 0.00013
5.3 0.00067
5.35 0.00071
5.4 0.0002
5.45 -0.00006
5.5 -0.00021
5.55 -0.00024
5.6 0.00037
5.65 0.00086
5.7 0.00096
5.75 0.00096
5.8 0.00093
5.85 0.00138
5.9 0.00111
5.95 0.00148
6 0.00213
6.05 0.00186
6.1 0.00175
6.15 0.00128
6.2 0.00035
6.25 0.00007
6.3 -0.00057
6.35 -0.00042
6.4 -0.0004
6.45 0.00005
6.5 0.00044
6.55 0.00032
6.6 0.00057
6.65 0.0003
6.7 0.00053
6.75 0.00029
6.8 0.00077
6.85 0.00146
6.9 0.0013
6.95 0.00138
7 0.0016
7.05 0.00122
7.1 0.0007
7.15 0.00037
7.2 -0.00032
7.25 -0.0005
7.3 -0.00102
7.35 -0.00118
7.4 -0.00154
7.45 -0.00154
7.5 -0.00153
7.55 -0.00164
7.6 -0.00165
7.65 -0.00169
7.7 -0.0012
7.75 -0.00018
7.8 0.0004
7.85 0.00055
7.9 0.00094
7.95 0.00098
8 0.00078
8.05 0.00021
8.1 -0.00011
8.15 -0.00011
8.2 -0.00061
8.25 -0.00113
8.3 -0.00168
8.35 -0.00183
8.4 -0.00163
8.45 -0.00091
8.5 -0.00042
8.55 -0.00017
8.6 0.00027
8.65 0.00007
8.7 0.00032
8.75 0.00081
8.8 0.00103
8.85 0.00077
8.9 0.00078
8.95 0.00084
9 0.00101
9.05 0.00092
9.1 0.00132
9.15 0.00132
9.2 0.00172
9.25 0.00132
9.3 0.00143
9.35 0.00134
9.4 0.0011
9.45 0.00078
9.5 0.00021
9.55 0.00005
9.6 0.00042
9.65 0.00123
9.7 0.00192
9.75 0.0017
9.8 0.0012
9.85 0.00109
9.9 0.0009
9.95 0.00059
10 0.00019
10.05 0.00014
10.1 0.00008
10.15 0.00006
10.2 0.00026
10.25 0.00035
10.3 0.00085
10.35 0.0009
10.4 0.00074
10.45 0.00069
10.5 0.00076
10.55 0.00041
10.6 0.00028
10.65 0.00013
10.7 0.00019
10.75 0.00014
10.8 0.00057
10.85 0.00097
10.9 0.00105
10.95 0.00059
11 0.00019
11.05 -0.00024
11.1 -0.0007
11.15 -0.00146
11.2 -0.00238
11.25 -0.00278
11.3 -0.00256
11.35 -0.00187
11.4 -0.00114
11.45 -0.00001
11.5 0.00021
11.55 0.00043
11.6 0.00062
11.65 0.00065
11.7 0.00027
11.75 -0.00044
11.8 -0.00093
11.85 -0.00151
11.9 -0.00127
11.95 -0.00109
12 -0.00113
12.05 -0.00136
12.1 -0.0011
12.15 -0.00071
12.2 -0.00061
12.25 0.00011
12.3 0.00081
12.35 0.00063
12.4 0.00041
12.45 0.00087
12.5 0.00053
12.55 0.00085
12.6 0.00092
12.65 0.00095
12.7 0.00148
12.75 0.00155
12.8 0.001
12.85 0.00013
12.9 -0.00075
12.95 -0.00076
13 -0.00101
13.05 -0.00052
13.1 -0.0001
13.15 0.00006
13.2 0.00002
13.25 -0.00009
13.3 -0.00013
13.35 -0.00051
13.4 -0.00127
13.45 -0.00186
13.5 -0.00205
13.55 -0.00142
13.6 -0.00119
13.65 -0.00046
13.7 -0.0001
13.75 -0.00023
13.8 -0.00069
13.85 -0.00115
13.9 -0.00165
13.95 -0.00196
14 -0.0021
14.05 -0.00187
14.1 -0.00186
14.15 -0.00216
14.2 -0.00181
14.25 -0.00174
14.3 -0.00153
14.35 -0.00177
14.4 -0.00209
14.45 -0.00213
14.5 -0.0017
14.55 -0.00148
14.6 -0.00064
14.65 -0.00038
14.7 0.00015
14.75 0.00105
14.8 0.00212
14.85 0.00276
14.9 0.00322
14.95 0.00285
15 0.00243
15.05 0.00194
15.1 0.00199
15.15 0.00175
15.2 0.00159
15.25 0.00181
15.3 0.00213
15.35 0.00177
15.4 0.00145
15.45 0.00084
15.5 0.00051
15.55 -0.00021
15.6 -0.0001
15.65 0.00021
15.7 0.00088
15.75 0.00074
15.8 0.00068
15.85 0.00105
15.9 0.00161
15.95 0.00221
16 0.002
16.05 0.00114
16.1 0.00064
16.15 0.00012
16.2 -0.00046
16.25 -0.00069
16.3 -0.00048
16.35 -0.00077
16.4 -0.00088
16.45 -0.00081
16.5 -0.0007
16.55 -0.00052
16.6 -0.00012
16.65 0.00037
16.7 0.00081
16.75 0.00143
16.8 0.00133
16.85 0.00159
16.9 0.00224
16.95 0.0029
17 0.00255
17.05 0.00251
17.1 0.00237
17.15 0.00168
17.2 0.00108
17.25 0.00095
17.3 0.00094
17.35 0.00052
17.4 -0.00027
17.45 -0.00085
17.5 -0.00121
17.55 -0.0016
17.6 -0.00162
17.65 -0.00095
17.7 -0.00041
17.75 -0.00048
17.8 -0.00015
17.85 0.00023
17.9 0.00078
17.95 0.00105
18 0.00155
18.05 0.002
18.1 0.00169
18.15 0.00196
18.2 0.00168
18.25 0.00135
18.3 0.00158
18.35 0.0015
18.4 0.00104
18.45 0.00116
18.5 0.00121
18.55 0.00127
18.6 0.00173
18.65 0.00244
18.7 0.00223
18.75 0.0014
18.8 0.0009
18.85 0.00052
18.9 0.0004
18.95 -0.00022
19 -0.00046
19.05 -0.00118
19.1 -0.00201
19.15 -0.0029
19.2 -0.00344
19.25 -0.00381
19.3 -0.00426
19.35 -0.00396
19.4 -0.00338
19.45 -0.00332
19.5 -0.00308
19.55 -0.00218
19.6 -0.00083
19.65 0.00032
19.7 0.00144
19.75 0.00205
19.8 0.00191
19.85 0.00128
19.9 0.00072
19.95 -0.00022
20 -0.00084
20.05 -0.00104
20.1 -0.00163
20.15 -0.00152
20.2 -0.0011
20.25 -0.00045
20.3 -0.00037
20.35 -0.0005
20.4 -0.00043
20.45 -0.00021
20.5 0.00023
20.55 0.00041
20.6 0.00011
20.65 0.00042
20.7 0.00017
20.75 0.00057
20.8 0.00028
20.85 0.00046
20.9 0.00017
20.95 0.00052
21 0.00111
21.05 0.00102
21.1 0.00056
21.15 0.00022
21.2 -0.00042
21.25 -0.00049
21.3 -0.00082
21.35 -0.00061
21.4 -0.00078
21.45 -0.00114
21.5 -0.00102
21.55 -0.00141
21.6 -0.00102
21.65 -0.00085
21.7 -0.00009
21.75 0.00089
21.8 0.00187
21.85 0.00236
21.9 0.00268
21.95 0.00309
22 0.00321
22.05 0.00354
22.1 0.00337
22.15 0.00245
22.2 0.00209
22.25 0.0018
22.3 0.00163
22.35 0.0012
22.4 0.00039
22.45 -0.00033
22.5 -0.00034
22.55 -0.00061
22.6 -0.00085
22.65 -0.00101
22.7 -0.00142
22.75 -0.00196
22.8 -0.00167
22.85 -0.00088
22.9 -0.0004
22.95 0.00053
23 0.00125
23.05 0.00127
23.1 0.00103
23.15 0.00054
23.2 0.00071
23.25 0.00048
23.3 -0.00015
23.35 -0.00077
23.4 -0.00127
23.45 -0.00117
23.5 -0.00045
23.55 -0.00021
23.6 0.00037
23.65 0.00047
23.7 0.00074
23.75 0.00085
23.8 0.00065
23.85 0.00017
23.9 -0.00025
23.95 -0.00099
24 -0.00113
24.05 -0.00066
24.1 0.00008
24.15 0.00103
24.2 0.00149
24.25 0.00115
24.3 0.00139
24.35 0.00085
24.4 0.00046
24.45 0.00067
24.5 0.00029
24.55 0.00033
24.6 0.00055
24.65 0.00107
24.7 0.00141
24.75 0.00189
24.8 0.00221
24.85 0.00168
24.9 0.00062
24.95 0.00045
25 0.00075
25.05 0.00119
25.1 0.00141
25.15 0.00194
25.2 0.00209
25.25 0.0015
25.3 0.00109
25.35 0.00047
25.4 0.00009
25.45 -0.00034
25.5 -0.00031
25.55 -0.0004
25.6 -0.00094
25.65 -0.00175
25.7 -0.00193
25.75 -0.00225
25.8 -0.00231
25.85 -0.00163
25.9 -0.0017
25.95 -0.00202
26 -0.0016
26.05 -0.00092
26.1 -0.00102
26.15 -0.00124
26.2 -0.00122
26.25 -0.0015
26.3 -0.00174
26.35 -0.00214
26.4 -0.00279
26.45 -0.00333
26.5 -0.00341
26.55 -0.00339
26.6 -0.00318
26.65 -0.00236
26.7 -0.00131
26.75 -0.00085
26.8 -0.00103
26.85 -0.00131
26.9 -0.00165
26.95 -0.00232
27 -0.00226
27.05 -0.00174
27.1 -0.00113
27.15 -0.00097
27.2 -0.00078
27.25 -0.00086
27.3 -0.0011
27.35 -0.00129
27.4 -0.00103
27.45 -0.00123
27.5 -0.00181
27.55 -0.00161
27.6 -0.00167
27.65 -0.00197
27.7 -0.00221
27.75 -0.00272
27.8 -0.00323
27.85 -0.00362
27.9 -0.00363
27.95 -0.00336
28 -0.00331
28.05 -0.00314
28.1 -0.00249
28.15 -0.00156
28.2 -0.00112
28.25 -0.00065
28.3 0.00027
28.35 0.00085
28.4 0.0015
28.45 0.00193
28.5 0.00178
28.55 0.0012
28.6 0.00061
28.65 0.00016
28.7 -0.00069
28.75 -0.00116
28.8 -0.00108
28.85 -0.00103
28.9 -0.0013
28.95 -0.00167
29 -0.00173
29.05 -0.00125
29.1 -0.0004
29.15 0.00025
29.2 0.00041
29.25 0.00056
29.3 0.00089
29.35 0.0005
29.4 0.00061
29.45 0.00071
29.5 0.00051
29.55 -0.00002
29.6 -0.00022
29.65 -0.00083
29.7 -0.00138
29.75 -0.00122
29.8 -0.0004
29.85 -0.00004
29.9 0.00045
29.95 0.00095
30 0.00124
30.05 0.00086
30.1 0.00114
30.15 0.00161
30.2 0.00235
30.25 0.00263
30.3 0.00298
30.35 0.00358
30.4 0.00347
30.45 0.00298
30.5 0.00236
30.55 0.00168
30.6 0.0007
30.65 0.00016
30.7 -0.00066
30.75 -0.00078
30.8 -0.00028
30.85 -0.00043
30.9 -0.00046
30.95 -0.0008
31 -0.00088
31.05 -0.00069
31.1 -0.00043
31.15 0.00036
31.2 0.0006
31.25 0.00102
31.3 0.00171
31.35 0.00183
31.4 0.00135
31.45 0.00083
31.5 0.00065
31.55 0.0007
31.6 0.0001
31.65 0.00034
31.7 0.00043
31.75 0.00068
31.8 0.00094
31.85 0.00075
31.9 0.00049
31.95 0.00033
32 -0.00019
32.05 -0.00027
32.1 0.00031
32.15 0.00114
32.2 0.00103
32.25 0.00052
32.3 0.00062
32.35 0.00101
32.4 0.0014
32.45 0.00121
32.5 0.00053
32.55 -0.00007
32.6 -0.0006
32.65 -0.0004
32.7 -0.00034
32.75 0.0003
32.8 0.00084
32.85 0.00159
32.9 0.00245
32.95 0.00261
33 0.00284
33.05 0.00327
33.1 0.00309
33.15 0.00316
33.2 0.00346
33.25 0.00349
33.3 0.00327
33.35 0.00295
33.4 0.00195
33.45 0.00131
33.5 0.00051
33.55 0.00035
33.6 0.00063
33.65 0.00027
33.7 0.00017
33.75 0.00004
33.8 0.00028
33.85 0.00071
33.9 0.0013
33.95 0.00171
34 0.00214
34.05 0.00187
34.1 0.00149
34.15 0.00162
34.2 0.00183
34.25 0.00161
34.3 0.00126
34.35 0.0012
34.4 0.00093
34.45 0.00053
34.5 -0.00004
34.55 -0.00082
34.6 -0.00161
34.65 -0.00242
34.7 -0.00317
34.75 -0.00337
34.8 -0.00317
34.85 -0.0027
34.9 -0.0017
34.95 -0.00144
35 -0.00079
35.05 -0.00093
35.1 -0.00155
35.15 -0.00204
35.2 -0.00197
35.25 -0.00121
35.3 -0.00028
35.35 0.00065
35.4 0.00156
35.45 0.0015
35.5 0.00093
35.55 0.00037
35.6 -0.00032
35.65 -0.00135
35.7 -0.00231
35.75 -0.00303
35.8 -0.00315
35.85 -0.00305
35.9 -0.00236
35.95 -0.00176
36 -0.00105
36.05 -0.00053
36.1 0.00026
36.15 0.00041
36.2 0.00036
36.25 0.00002
36.3 0.0001
36.35 -0.00045
36.4 -0.00073
36.45 -0.00096
36.5 -0.00077
36.55 -0.00002
36.6 0.00064
36.65 0.00125
36.7 0.0011
36.75 0.00118
36.8 0.00132
36.85 0.00093
36.9 0.00025
36.95 -0.00045
37 -0.00134
37.05 -0.00141
37.1 -0.00137
37.15 -0.00082
37.2 -0.00051
37.25 -0.00051
37.3 -0.00067
37.35 -0.00027
37.4 -0.00034
37.45 -0.00001
37.5 -0.00014
37.55 -0.00066
37.6 -0.00148
37.65 -0.00209
37.7 -0.00223
37.75 -0.00215
37.8 -0.00232
37.85 -0.0017
37.9 -0.00097
37.95 -0.00022
38 0.0008
38.05 0.00102
38.1 0.00075
38.15 0.00086
38.2 0.00061
38.25 0.00061
38.3 0.00011
38.35 -0.00082
38.4 -0.00073
38.45 -0.00108
38.5 -0.00161
38.55 -0.00139
38.6 -0.00139
38.65 -0.00086
38.7 0.00008
38.75 0.00025
38.8 0.00027
38.85 -0.00022
38.9 -0.00082
38.95 -0.001
39 -0.00068
39.05 0.00003
39.1 0.00083
39.15 0.00099
39.2 0.00067
39.25 0.00036
39.3 0.00015
39.35 0.00027
39.4 0.00083
39.45 0.00134
39.5 0.00115
39.55 0.00089
39.6 0.00081
39.65 0.00087
39.7 0.0003
39.75 0.00014
39.8 -0.00002
39.85 -0.00025
39.9 -0.00053
39.95 -0.0004
40 -0.00003
40.05 -0.00029
40.1 -0.00021
40.15 -0.00049
40.2 -0.00027
40.25 -0.00065
40.3 -0.00029
40.35 0.00052
40.4 0.00098
40.45 0.00077
40.5 0.00093
40.55 0.00156
40.6 0.00223
40.65 0.00215
40.7 0.0021
40.75 0.00228
40.8 0.00247
40.85 0.00199
40.9 0.00165
40.95 0.00152
41 0.00136
41.05 0.00066
41.1 0.00004
41.15 -0.00024
41.2 -0.00004
41.25 -0.00012
41.3 -0.0005
41.35 -0.00061
41.4 -0.00126
41.45 -0.0021
41.5 -0.00212
41.55 -0.00201
41.6 -0.00187
41.65 -0.00132
41.7 -0.00128
41.75 -0.00171
41.8 -0.00177
41.85 -0.00176
41.9 -0.0013
41.95 -0.00059
42 0.0002
42.05 0.00009
42.1 0.00008
42.15 -0.00043
42.2 -0.00114
42.25 -0.0015
42.3 -0.00214
42.35 -0.00284
42.4 -0.00283
42.45 -0.0031
42.5 -0.00274
42.55 -0.00234
42.6 -0.00208
42.65 -0.00228
42.7 -0.00251
42.75 -0.00328
42.8 -0.00408
42.85 -0.00564
42.9 -0.00715
42.95 -0.00919
43 -0.01168
43.05 -0.01391
43.1 -0.01686
43.15 -0.02019
43.2 -0.02397
43.25 -0.02875
43.3 -0.03435
43.35 -0.04095
43.4 -0.04756
43.45 -0.05521
43.5 -0.06325
43.55 -0.072
43.6 -0.08082
43.65 -0.09114
43.7 -0.10186
43.75 -0.11358
43.8 -0.12557
43.85 -0.13872
43.9 -0.15225
43.95 -0.16645
44 -0.18219
44.05 -0.19802
44.1 -0.21465
44.15 -0.2314
44.2 -0.24743
44.25 -0.26313
44.3 -0.2787
44.35 -0.29339
44.4 -0.30795
44.45 -0.32121
44.5 -0.33303
44.55 -0.34296
44.6 -0.35113
44.65 -0.35791
44.7 -0.36285
44.75 -0.36563
44.8 -0.36551
44.85 -0.36287
44.9 -0.35768
44.95 -0.35086
45 -0.3418
45.05 -0.33018
45.1 -0.31686
45.15 -0.30134
45.2 -0.2837
45.25 -0.26436
45.3 -0.24368
45.35 -0.22153
45.4 -0.19827
45.45 -0.17438
45.5 -0.15012
45.55 -0.12611
45.6 -0.10246
45.65 -0.07847
45.7 -0.05459
45.75 -0.0303
45.8 -0.00601
45.85 0.01752
45.9 0.04028
45.95 0.06329
46 0.08574
46.05 0.10726
46.1 0.12738
46.15 0.147
46.2 0.16613
46.25 0.18429
46.3 0.2017
46.35 0.21842
46.4 0.23394
46.45 0.24808
46.5 0.26102
46.55 0.27323
46.6 0.28486
46.65 0.29582
46.7 0.30486
46.75 0.3135
46.8 0.32102
46.85 0.32752
46.9 0.33277
46.95 0.33615
47 0.33831
47.05 0.33969
47.1 0.34079
47.15 0.34127
47.2 0.34046
47.25 0.33821
47.3 0.33499
47.35 0.33066
47.4 0.32618
47.45 0.32108
47.5 0.31554
47.55 0.30868
47.6 0.30159
47.65 0.29412
47.7 0.28682
47.75 0.27898
47.8 0.27066
47.85 0.2619
47.9 0.25299
47.95 0.24418
48 0.23543
48.05 0.22741
48.1 0.2191
48.15 0.21066
48.2 0.20232
48.25 0.19474
48.3 0.18732
48.35 0.18031
48.4 0.17318
48.45 0.16547
48.5 0.1575
48.55 0.15008
48.6 0.14258
48.65 0.13626
48.7 0.13058
48.75 0.12444
48.8 0.11851
48.85 0.11244
48.9 0.10615
48.95 0.10006
49 0.09384
49.05 0.08852
49.1 0.08367
49.15 0.07849
49.2 0.07396
49.25 0.06914
49.3 0.06413
49.35 0.05966
49.4 0.05504
49.45 0.05061
49.5 0.04642
49.55 0.04217
49.6 0.0381
49.65 0.0336
49.7 0.02952
49.75 0.02565
49.8 0.02258
49.85 0.01893
49.9 0.01536
49.95 0.01251
50 0.00959
50.05 0.00693
50.1 0.00427
50.15 0.00107
50.2 -0.00179
50.25 -0.00487
50.3 -0.0075
50.35 -0.01016
50.4 -0.01284
50.45 -0.01505
50.5 -0.0169
50.55 -0.01875
50.6 -0.02107
50.65 -0.02352
50.7 -0.02566
50.75 -0.02797
50.8 -0.03034
50.85 -0.03179
50.9 -0.03309
50.95 -0.03451
51 -0.03523
51.05 -0.03555
51.1 -0.03583
51.15 -0.03628
51.2 -0.03674
51.25 -0.03704
51.3 -0.03738
51.35 -0.03778
51.4 -0.03898
51.45 -0.03969
51.5 -0.0406
51.55 -0.0409
51.6 -0.04169
51.65 -0.04273
51.7 -0.04287
51.75 -0.04275
51.8 -0.04326
51.85 -0.04355
51.9 -0.04366
51.95 -0.04355
52 -0.04388
52.05 -0.04388
52.1 -0.0438
52.15 -0.04374
52.2 -0.04308
52.25 -0.04298
52.3 -0.04294
52.35 -0.04228
52.4 -0.04156
52.45 -0.04152
52.5 -0.04154
52.55 -0.04173
52.6 -0.04214
52.65 -0.04175
52.7 -0.04136
52.75 -0.0408
52.8 -0.04031
52.85 -0.04043
52.9 -0.03989
52.95 -0.03916
53 -0.03891
53.05 -0.03903
53.1 -0.03923
53.15 -0.03944
53.2 -0.03941
53.25 -0.03904
53.3 -0.03832
53.35 -0.03773
53.4 -0.03729
53.45 -0.03687
53.5 -0.03591
53.55 -0.03451
53.6 -0.03299
53.65 -0.03226
53.7 -0.03123
53.75 -0.03059
53.8 -0.02984
53.85 -0.02937
53.9 -0.0295
53.95 -0.029
54 -0.02877
54.05 -0.02809
54.1 -0.02763
54.15 -0.02755
54.2 -0.02784
54.25 -0.02835
54.3 -0.02852
54.35 -0.02897
54.4 -0.02922
54.45 -0.02931
54.5 -0.02951
54.55 -0.02956
54.6 -0.02896
54.65 -0.02753
54.7 -0.02621
54.75 -0.02513
54.8 -0.02435
54.85 -0.02356
54.9 -0.02285
54.95 -0.02271
55 -0.02281
55.05 -0.02274
55.1 -0.02287
55.15 -0.0224
55.2 -0.0213
55.25 -0.0203
55.3 -0.02003
55.35 -0.01939
55.4 -0.01849
55.45 -0.01783
55.5 -0.01745
55.55 -0.01766
55.6 -0.01755
55.65 -0.01778
55.7 -0.01834
55.75 -0.01853
55.8 -0.01882
55.85 -0.01871
55.9 -0.01813
55.95 -0.01694
56 -0.01651
56.05 -0.01652
56.1 -0.01672
56.15 -0.01706
56.2 -0.01761
56.25 -0.01796
56.3 -0.0177
56.35 -0.01766
56.4 -0.01707
56.45 -0.01665
56.5 -0.01567
56.55 -0.01473
56.6 -0.01449
56.65 -0.01465
56.7 -0.01453
56.75 -0.01417
56.8 -0.01379
56.85 -0.01389
56.9 -0.01344
56.95 -0.01328
57 -0.01261
57.05 -0.01247
57.1 -0.01164
57.15 -0.01118
57.2 -0.0105
57.25 -0.0101
57.3 -0.00974
57.35 -0.00959
57.4 -0.00932
57.45 -0.00965
57.5 -0.0097
57.55 -0.00977
57.6 -0.01017
57.65 -0.00976
57.7 -0.00995
57.75 -0.01041
57.8 -0.01051
57.85 -0.01057
57.9 -0.01023
57.95 -0.01019
58 -0.01032
58.05 -0.01003
58.1 -0.00947
58.15 -0.00932
58.2 -0.0094
58.25 -0.00865
58.3 -0.00788
58.35 -0.00787
58.4 -0.00791
58.45 -0.00747
58.5 -0.00769
58.55 -0.00719
58.6 -0.00732
58.65 -0.00739
58.7 -0.00721
58.75 -0.00694
58.8 -0.00644
58.85 -0.00663
58.9 -0.00723
58.95 -0.00724
59 -0.00661
59.05 -0.00589
59.1 -0.00589
59.15 -0.00633
59.2 -0.00676
59.25 -0.00717
59.3 -0.00728
59.35 -0.00688
59.4 -0.00596
59.45 -0.00487
59.5 -0.00449
59.55 -0.00452
59.6 -0.00435
59.65 -0.0041
59.7 -0.00342
59.75 -0.00311
59.8 -0.00347
59.85 -0.00422
59.9 -0.00448
59.95 -0.00499
60 -0.00528
60.05 -0.00519
60.1 -0.00539
60.15 -0.005
60.2 -0.00403
60.25 -0.00348
60.3 -0.00372
60.35 -0.00384
60.4 -0.00421
60.45 -0.00386
60.5 -0.00313
60.55 -0.00319
60.6 -0.00298
60.65 -0.00299
60.7 -0.0035
60.75 -0.00415
60.8 -0.00498
60.85 -0.00561
60.9 -0.00615
60.95 -0.00593
61 -0.00578
61.05 -0.00547
61.1 -0.00549
61.15 -0.00476
61.2 -0.00424
61.25 -0.00314
61.3 -0.00234
61.35 -0.00221
61.4 -0.00262
61.45 -0.00313
61.5 -0.00297
61.55 -0.00297
61.6 -0.00307
61.65 -0.00284
61.7 -0.00275
61.75 -0.00311
61.8 -0.00277
61.85 -0.00255
61.9 -0.00187
61.95 -0.00099
62 -0.00069
62.05 -0.00004
62.1 -0.00031
62.15 0
62.2 -0.00003
62.25 0.00023
62.3 -0.00007
62.35 -0.00088
62.4 -0.00113
62.45 -0.00073
62.5 -0.00058
62.55 -0.00087
62.6 -0.00078
62.65 -0.00093
62.7 -0.00136
62.75 -0.00102
62.8 -0.00139
62.85 -0.00174
62.9 -0.00132
62.95 -0.00089
63 -0.00088
63.05 -0.00126
63.1 -0.00116
63.15 -0.00093
63.2 -0.0008
63.25 -0.00116
63.3 -0.00163
63.35 -0.00249
63.4 -0.00306
63.45 -0.00377
63.5 -0.00413
63.55 -0.00448
63.6 -0.0045
63.65 -0.00402
63.7 -0.00295
63.75 -0.0016
63.8 -0.00019
63.85 0.00109
63.9 0.0019
63.95 0.00196
64 0.0021
64.05 0.00223
64.1 0.00184
64.15 0.00195
64.2 0.00183
64.25 0.00171
64.3 0.00187
64.35 0.00222
64.4 0.0018
64.45 0.00163
64.5 0.00102
64.55 0.00074
64.6 0.00017
64.65 -0.00085
64.7 -0.00188
64.75 -0.00243
64.8 -0.00302
64.85 -0.00284
64.9 -0.00223
64.95 -0.00124
65 -0.00085
65.05 -0.00091
65.1 -0.00126
65.15 -0.00155
65.2 -0.00148
65.25 -0.00163
65.3 -0.0019
65.35 -0.00229
65.4 -0.00249
65.45 -0.00267
65.5 -0.00302
65.55 -0.00279
65.6 -0.00278
65.65 -0.00305
65.7 -0.00275
65.75 -0.00189
65.8 -0.00166
65.85 -0.00093
65.9 -0.0009
65.95 -0.00129
66 -0.00183
66.05 -0.00148
66.1 -0.00163
66.15 -0.00167
66.2 -0.00176
66.25 -0.00156
66.3 -0.00131
66.35 -0.00086
66.4 -0.00034
66.45 -0.00047
66.5 -0.00017
66.55 -0.0001
66.6 -0.00034
66.65 -0.00043
66.7 -0.0003
66.75 -0.0001
66.8 -0.00006
66.85 -0.00059
66.9 -0.00068
66.95 -0.00071
67 -0.00027
67.05 -0.00001
67.1 0.0006
67.15 0.00033
67.2 0.00058
67.25 0.00127
67.3 0.00115
67.35 0.00055
67.4 0.00067
67.45 0.00043
67.5 0.00036
67.55 0.00073
67.6 0.00078
67.65 0.00088
67.7 0.00036
67.75 0.00004
67.8 -0.00018
67.85 -0.00061
67.9 -0.00026
67.95 -0.00059
68 -0.00062
68.05 -0.00117
68.1 -0.00125
68.15 -0.0006
68.2 -0.00064
68.25 -0.00026
68.3 0.00026
68.35 0.00077
68.4 0.00069
68.45 0.00061
68.5 0.00079
68.55 0.00072
68.6 0.00012
68.65 -0.00071
68.7 -0.00111
68.75 -0.0012
68.8 -0.00155
68.85 -0.00138
68.9 -0.00109
68.95 -0.00105
69 -0.00154
69.05 -0.00131
69.1 -0.00092
69.15 -0.00055
69.2 -0.00001
69.25 0.00009
69.3 0.0004
69.35 0.00065
69.4 0.00081
69.45 0.00027
69.5 -0.00065
69.55 -0.00138
69.6 -0.00217
69.65 -0.00298
69.7 -0.00332
69.75 -0.00287
69.8 -0.00285
69.85 -0.00315
69.9 -0.00351
69.95 -0.00295
70 -0.0021
70.05 -0.00122
70.1 -0.00098
70.15 -0.00026
70.2 0.0008
70.25 0.00151
70.3 0.0023
70.35 0.00241
70.4 0.00257
70.45 0.00302
70.5 0.00291
70.55 0.00272
70.6 0.00177
70.65 0.0014
70.7 0.00064
70.75 0.00002
70.8 -0.00086
70.85 -0.00088
70.9 -0.00049
70.95 -0.00079
71 -0.001
71.05 -0.00064
71.1 -0.00009
71.15 0.00035
71.2 0.00059
71.25 0.00059
71.3 0.00078
71.35 0.00097
71.4 0.00121
71.45 0.00118
71.5 0.00152
71.55 0.00221
71.6 0.0029
71.65 0.00288
71.7 0.0026
71.75 0.00203
71.8 0.002
71.85 0.00144
71.9 0.0006
71.95 -0.00056
72 -0.00095
72.05 -0.00149
72.1 -0.0014
72.15 -0.00115
72.2 -0.00077
72.25 -0.0006
72.3 -0.00042
72.35 0.00022
72.4 0.00072
72.45 0.00055
72.5 -0.0002
72.55 -0.00038
72.6 -0.00012
72.65 0.00062
72.7 0.00105
72.75 0.00169
72.8 0.00183
72.85 0.00144
72.9 0.00094
72.95 -0.00001
73 -0.00081
73.05 -0.00095
73.1 -0.001
73.15 -0.00158
73.2 -0.00137
73.25 -0.00148
73.3 -0.00127
73.35 -0.00123
73.4 -0.00112
73.45 -0.00041
73.5 0.00001
73.55 0.00063
73.6 0.00063
73.65 0.00007
73.7 -0.00052
73.75 -0.00126
73.8 -0.00105
73.85 -0.0004
73.9 -0.00055
73.95 -0.00035
74 -0.00013
74.05 0.00034
74.1 0.00006
74.15 0.00025
74.2 0.00078
74.25 0.00044
74.3 0.0002
74.35 0.00033
74.4 0.00065
74.45 0.00093
74.5 0.00066
74.55 0.00018
74.6 0.00028
74.65 -0.0003
74.7 -0.00094
74.75 -0.00168
74.8 -0.00186
74.85 -0.0015
74.9 -0.00149
74.95 -0.00146
75 -0.00116
75.05 -0.00085
75.1 -0.00072
75.15 -0.00022
75.2 0.00036
75.25 0.00076
75.3 0.00134
75.35 0.00177
75.4 0.00189
75.45 0.00189
75.5 0.00222
75.55 0.00207
75.6 0.00118
75.65 0.00021
75.7 -0.00051
75.75 -0.00114
75.8 -0.00147
75.85 -0.00129
75.9 -0.0011
75.95 -0.00117
76 -0.00056
76.05 -0.0004
76.1 0.00005
76.15 0.00051
76.2 0.00077
76.25 0.00036
76.3 -0.00052
76.35 -0.00154
76.4 -0.00155
76.45 -0.00178
76.5 -0.00199
76.55 -0.00254
76.6 -0.00277
76.65 -0.00316
76.7 -0.00283
76.75 -0.00275
76.8 -0.00196
76.85 -0.00132
76.9 -0.00104
76.95 -0.00121
77 -0.00074
77.05 -0.00024
77.1 0.00035
77.15 0.00028
77.2 0.00002
77.25 -0.0001
77.3 -0.00063
77.35 -0.00064
77.4 -0.00053
77.45 -0.00041
77.5 -0.00015
77.55 0.00044
77.6 0.00067
77.65 0.00131
77.7 0.00174
77.75 0.00204
77.8 0.00265
77.85 0.00236
77.9 0.00235
77.95 0.0018
78 0.00159
78.05 0.00134
78.1 0.00121
78.15 0.00058
78.2 -0.00032
78.25 -0.00109
78.3 -0.0017
78.35 -0.00194
78.4 -0.00222
78.45 -0.00226
78.5 -0.00225
78.55 -0.00244
78.6 -0.00253
78.65 -0.00251
78.7 -0.00221
78.75 -0.00238
78.8 -0.00259
78.85 -0.00259
78.9 -0.00179
78.95 -0.00159
79 -0.00141
79.05 -0.00093
79.1 -0.00089
79.15 -0.00029
79.2 -0.00012
79.25 0.00023
79.3 0.00089
79.35 0.00104
79.4 0.00167
79.45 0.00212
79.5 0.00177
79.55 0.00129
79.6 0.00127
79.65 0.0013
79.7 0.00125
79.75 0.00114
79.8 0.00077
79.85 0.00026
79.9 -0.00017
79.95 -0.00099
80 -0.0011
80.05 -0.00054
80.1 0.00035
80.15 0.00113
80.2 0.00126
80.25 0.00152
80.3 0.00107
80.35 0.00019
80.4 0.00014
80.45 0.00025
80.5 0.00067
80.55 0.00043
80.6 0.00084
80.65 0.0011
80.7 0.00143
80.75 0.00117
80.8 0.00078
80.85 0.00051
80.9 0.00054
80.95 0.00081
81 0.00111
81.05 0.00088
81.1 0.00024
81.15 0.00034
81.2 0.00027
81.25 0.00072
81.3 0.00124
81.35 0.00189
81.4 0.00199
81.45 0.00154
81.5 0.00113
81.55 0.0008
81.6 -0.00001
81.65 -0.00058
81.7 -0.00074
81.75 -0.00132
81.8 -0.00114
81.85 -0.00034
81.9 -0.00003
81.95 0.0006
82 0.00099
82.05 0.00142
82.1 0.00157
82.15 0.00186
82.2 0.002
82.25 0.00166
82.3 0.0008
82.35 -0.00027
82.4 -0.00068
82.45 -0.00066
82.5 -0.00045
82.55 0.00002
82.6 0.00072
82.65 0.00104
82.7 0.0012
82.75 0.00144
82.8 0.00143
82.85 0.00088
82.9 -0.00005
82.95 -0.0006
83 -0.00123
83.05 -0.00117
83.1 -0.00145
83.15 -0.00174
83.2 -0.00237
83.25 -0.00286
83.3 -0.00291
83.35 -0.00259
83.4 -0.00246
83.45 -0.002
83.5 -0.00102
83.55 -0.00045
83.6 0.0004
83.65 0.00123
83.7 0.00141
83.75 0.00169
83.8 0.00173
83.85 0.00131
83.9 0.00076
83.95 0.00003
84 -0.00046
84.05 -0.00074
84.1 -0.00118
84.15 -0.0019
84.2 -0.00187
84.25 -0.00128
84.3 -0.00121
84.35 -0.00092
84.4 -0.00022
84.45 -0.00003
84.5 0.00003
84.55 -0.00004
84.6 -0.00027
84.65 -0.00052
84.7 -0.00097
84.75 -0.00119
84.8 -0.0017
84.85 -0.00231
84.9 -0.0021
84.95 -0.0022
85 -0.00174
85.05 -0.00081
85.1 0.0001
85.15 0.0002
85.2 -0.0001
85.25 -0.00004
85.3 0.00003
85.35 0.00035
85.4 0.00037
85.45 0.00036
85.5 0.00004
85.55 -0.00052
85.6 -0.0009
85.65 -0.0006
85.7 -0.00075
85.75 -0.00096
85.8 -0.00044
85.85 -0.00032
85.9 -0.00066
85.95 -0.00113
86 -0.00087
86.05 -0.00037
86.1 -0.00061
86.15 -0.00037
86.2 0.00017
86.25 0.00111
86.3 0.00123
86.35 0.00096
86.4 0.00055
86.45 0.00016
86.5 0.00026
86.55 0.00091
86.6 0.00112
86.65 0.00144
86.7 0.0012
86.75 0.00059
86.8 0.00028
86.85 -0.00019
86.9 -0.00066
86.95 -0.00116
87 -0.00187
87.05 -0.00205
87.1 -0.00208
87.15 -0.00147
87.2 -0.00129
87.25 -0.00152
87.3 -0.00183
87.35 -0.00129
87.4 -0.00101
87.45 -0.00056
87.5 -0.00047
87.55 -0.00008
87.6 -0.00025
87.65 0.00014
87.7 0.00077
87.75 0.00151
87.8 0.00229
87.85 0.00288
87.9 0.00347
87.95 0.00415
88 0.0043
88.05 0.00379
88.1 0.00312
88.15 0.00296
88.2 0.00274
88.25 0.00183
88.3 0.00049
88.35 -0.00086
88.4 -0.00195
88.45 -0.00264
88.5 -0.00333
88.55 -0.00332
88.6 -0.00359
88.65 -0.00334
88.7 -0.0027
88.75 -0.00189
88.8 -0.00152
88.85 -0.00077
88.9 0.00039
88.95 0.00124
89 0.00196
89.05 0.00232
89.1 0.00271
89.15 0.00219
89.2 0.00183
89.25 0.00088
89.3 0.00026
89.35 -0.00055
89.4 -0.00073
89.45 -0.0008
89.5 -0.00089
89.55 -0.00047
89.6 -0.0002
89.65 -0.00001
89.7 0.00052
89.75 0.0012
89.8 0.00147
89.85 0.00131
89.9 0.00117
89.95 0.00096
90 0.00046
90.05 -0.00039
90.1 -0.00076
90.15 -0.00147
90.2 -0.00211
90.25 -0.00232
90.3 -0.00233
90.35 -0.00259
90.4 -0.00229
90.45 -0.00136
90.5 -0.00081
90.55 -0.0005
90.6 -0.00037
90.65 -0.00014
90.7 0.00056
90.75 0.00088
90.8 0.00042
90.85 -0.00029
90.9 -0.00072
90.95 -0.00054
91 -0.00038
91.05 0.00025
91.1 0.00047
91.15 0.00027
91.2 0.00034
91.25 0.00096
91.3 0.00188
91.35 0.00179
91.4 0.00188
91.45 0.00125
91.5 0.00134
91.55 0.00185
91.6 0.00202
91.65 0.00207
91.7 0.00219
91.75 0.00168
91.8 0.00064
91.85 0.00006
91.9 -0.00004
91.95 0.00048
92 0.00092
92.05 0.00112
92.1 0.00121
92.15 0.00064
92.2 -0.00031
92.25 -0.00081
92.3 -0.00134
92.35 -0.00109
92.4 -0.00127
92.45 -0.00152
92.5 -0.00114
92.55 -0.00023
92.6 0.00001
92.65 0.00002
92.7 -0.00045
92.75 -0.00088
92.8 -0.00144
92.85 -0.00217
92.9 -0.00205
92.95 -0.0016
93 -0.00111
93.05 -0.00129
93.1 -0.00114
93.15 -0.00065
93.2 0.00008
93.25 0.00101
93.3 0.00129
93.35 0.00163
93.4 0.00225
93.45 0.00224
93.5 0.0015
93.55 0.00032
93.6 -0.00028
93.65 -0.00124
93.7 -0.00188
93.75 -0.00202
93.8 -0.00137
93.85 -0.00119
93.9 -0.00041
93.95 -0.00002
94 0.00083
94.05 0.00071
94.1 0.00019
94.15 0.00005
94.2 0.00005
94.25 0.00027
94.3 0.00051
94.35 0.00093
94.4 0.00153
94.45 0.00216
94.5 0.00283
94.55 0.00266
94.6 0.0019
94.65 0.00097
94.7 -0.00022
94.75 -0.00157
94.8 -0.00244
94.85 -0.00338
94.9 -0.00388
94.95 -0.00378
95 -0.0032
95.05 -0.00279
95.1 -0.00204
95.15 -0.00133
95.2 -0.00072
95.25 -0.00023
95.3 0.00022
95.35 0.00089
95.4 0.00104
95.45 0.00148
95.5 0.00151
95.55 0.00173
95.6 0.00175
95.65 0.00114
95.7 0.00038
95.75 -0.0006
95.8 -0.00118
95.85 -0.00159
95.9 -0.00211
95.95 -0.00235
96 -0.00245
96.05 -0.00245
96.1 -0.00248
96.15 -0.0024
96.2 -0.00168
96.25 -0.00073
96.3 -0.00006
96.35 0.00065
96.4 0.00122
96.45 0.00138
96.5 0.00122
96.55 0.00145
96.6 0.00154
96.65 0.00168
96.7 0.00152
96.75 0.00071
96.8 -0.00014
96.85 -0.00016
96.9 -0.00003
96.95 0.00023
97 0.00091
97.05 0.00148
97.1 0.00232
97.15 0.0025
97.2 0.00196
97.25 0.00173
97.3 0.00085
97.35 0.00047
97.4 -0.00038
97.45 -0.0003
97.5 0.00014
97.55 0.00098
97.6 0.0012
97.65 0.00065
97.7 -0.00001
97.75 -0.00037
97.8 -0.00061
97.85 -0.00132
97.9 -0.00115
97.95 -0.00074
98 0.00006
98.05 0.00045
98.1 0.00007
98.15 -0.00031
98.2 -0.00107
98.25 -0.0015
98.3 -0.00105
98.35 -0.00019
98.4 0.00012
98.45 -0.00015
98.5 -0.00033
98.55 -0.00086
98.6 -0.00155
98.65 -0.00247
98.7 -0.00292
98.75 -0.00285
98.8 -0.00289
98.85 -0.00259
98.9 -0.0018
98.95 -0.00175
99 -0.00117
99.05 -0.00019
99.1 0.00049
99.15 0.00059
99.2 0.00086
99.25 0.00058
99.3 0.00051
99.35 0.00066
99.4 0.0009
99.45 0.00042
99.5 -0.00031
99.55 -0.00025
99.6 0.00015
99.65 0.00031
99.7 -0.00021
99.75 -0.00042
99.8 -0.00027
99.85 0.00007
99.9 0.00035
99.95 0.00084
