0 0
0.05 0.00265
0.1 0.00469
0.15 0.00771
0.2 0.01001
0.25 0.0131
0.3 0.01533
0.35 0.01567
0.4 0.0172
0.45 0.01929
0.5 0.01938
0.55 0.01863
0.6 0.01806
0.65 0.01762
0.7 0.01638
0.75 0.01514
0.8 0.01507
0.85 0.01595
0.9 0.01528
0.95 0.01348
1 0.01366
1.05 0.01424
1.1 0.01464
1.15 0.01526
1.2 0.01407
1.25 0.01371
1.3 0.01459
1.35 0.01359
1.4 0.01322
1.45 0.01419
1.5 0.01352
1.55 0.01283
1.6 0.01152
1.65 0.00945
1.7 0.00956
1.75 0.00912
1.8 0.00778
1.85 0.00643
1.9 0.0057
1.95 0.005
2 0.00565
2.05 0.00675
2.1 0.00734
2.15 0.00862
2.2 0.00919
2.25 0.00843
2.3 0.00889
2.35 0.00847
2.4 0.00777
2.45 0.00772
2.5 0.00708
2.55 0.00623
2.6 0.00621
2.65 0.00531
2.7 0.0037
2.75 0.00287
2.8 0.00319
2.85 0.00323
2.9 0.00398
2.95 0.00347
3 0.00284
3.05 0.00358
3.1 0.00541
3.15 0.00658
3.2 0.00628
3.25 0.00688
3.3 0.00775
3.35 0.00825
3.4 0.00895
3.45 0.00803
3.5 0.00855
3.55 0.00909
3.6 0.0097
3.65 0.01009
3.7 0.01054
3.75 0.00957
3.8 0.00959
3.85 0.0083
3.9 0.00593
3.95 0.0033
4 0.00284
4.05 0.004
4.1 0.00437
4.15 0.00342
4.2 0.00178
4.25 0.00143
4.3 0.00104
4.35 0.00129
4.4 0.00183
4.45 0.00244
4.5 0.00251
4.55 0.00256
4.6 0.00291
4.65 0.00447
4.7 0.00528
4.75 0.00465
4.8 0.00481
4.85 0.00419
4.9 0.00417
4.95 0.00481
5 0.00438
5.05 0.00528
5.1 0.00506
5.15 0.00451
5.2 0.00299
5.25 0.00347
5.3 0.00526
5.35 0.00754
5.4 0.00792
5.45 0.00759
5.5 0.00759
5.55 0.00848
5.6 0.00845
5.65 0.00734
5.7 0.00534
5.75 0.00449
5.8 0.00424
5.85 0.00373
5.9 0.00311
5.95 0.00378
6 0.00397
6.05 0.00372
6.1 0.00466
6.15 0.00463
6.2 0.00489
6.25 0.00545
6.3 0.00582
6.35 0.0062
6.4 0.00543
6.45 0.00508
6.5 0.00388
6.55 0.00234
6.6 0.00072
6.65 -0.00084
6.7 -0.00268
6.75 -0.00274
6.8 -0.00171
6.85 -0.00197
6.9 -0.00284
6.95 -0.00182
7 -0.00006
7.05 0.0017
7.1 0.00348
7.15 0.00395
7.2 0.00437
7.25 0.00328
7.3 0.00261
7.35 0.00174
7.4 0.00081
7.45 0.00011
7.5 -0.00105
7.55 -0.00103
7.6 -0.00013
7.65 -0.00041
7.7 0.00026
7.75 0.00006
7.8 -0.00106
7.85 -0.00096
7.9 -0.00093
7.95 -0.00127
8 -0.0003
8.05 -0.00055
8.1 -0.00158
8.15 -0.00096
8.2 0.00066
8.25 0.00077
8.3 0.0018
8.35 0.00288
8.4 0.00293
8.45 0.00374
8.5 0.0031
8.55 0.00337
8.6 0.00411
8.65 0.00559
8.7 0.0071
8.75 0.00659
8.8 0.00505
8.85 0.00256
8.9 0.00205
8.95 0.00277
9 0.00367
9.05 0.00417
9.1 0.00351
9.15 0.00146
9.2 0.00011
9.25 0.00029
9.3 0.0004
9.35 0.00104
9.4 0.00176
9.45 0.00237
9.5 0.0023
9.55 0.00225
9.6 0.00275
9.65 0.00414
9.7 0.00417
9.75 0.00253
9.8 0.00157
9.85 0.00118
9.9 0.00143
9.95 0.00213
10 0.00243
10.05 0.00193
10.1 0.0029
10.15 0.00342
10.2 0.00254
10.25 0.00066
10.3 -0.00141
10.35 -0.00262
10.4 -0.0021
10.45 -0.00157
10.5 -0.00153
10.55 -0.00235
10.6 -0.00283
10.65 -0.00177
10.7 0.00033
10.75 0.00142
10.8 0.00141
10.85 0.00232
10.9 0.00291
10.95 0.00301
11 0.00269
11.05 0.00194
11.1 0.00259
11.15 0.00349
11.2 0.00392
11.25 0.00342
11.3 0.00405
11.35 0.00357
11.4 0.00271
11.45 0.0031
11.5 0.00443
11.55 0.0053
11.6 0.00437
11.65 0.00433
11.7 0.00357
11.75 0.00171
11.8 0.00069
11.85 0.00051
11.9 0.00075
11.95 0.00109
12 0.00017
12.05 0.00092
12.1 0.00191
12.15 0.00239
12.2 0.00332
12.25 0.00311
12.3 0.00342
12.35 0.00436
12.4 0.00543
12.45 0.00503
12.5 0.00441
12.55 0.00489
12.6 0.00549
12.65 0.0063
12.7 0.00493
12.75 0.0042
12.8 0.00247
12.85 -0.0003
12.9 -0.00354
12.95 -0.00626
13 -0.00826
13.05 -0.00858
13.1 -0.00775
13.15 -0.00596
13.2 -0.00405
13.25 -0.00166
13.3 0.00122
13.35 0.00268
13.4 0.00279
13.45 0.00369
13.5 0.00478
13.55 0.00477
13.6 0.00464
13.65 0.00387
13.7 0.00216
13.75 0.00144
13.8 0.00203
13.85 0.00219
13.9 0.00062
13.95 0.00087
14 -0.00035
14.05 -0.00017
14.1 -0.0016
14.15 -0.00223
14.2 -0.00261
14.25 -0.00372
14.3 -0.00508
14.35 -0.00445
14.4 -0.00412
14.45 -0.0032
14.5 -0.00236
14.55 -0.00141
14.6 -0.00192
14.65 -0.00316
14.7 -0.00312
14.75 -0.00228
14.8 -0.00132
14.85 -0.00111
14.9 -0.00048
14.95 -0.00026
15 -0.00013
15.05 0.00081
15.1 0.00201
15.15 0.0014
15.2 0.00145
15.25 0.00035
15.3 0.0009
15.35 0.0019
15.4 0.00224
15.45 0.00312
15.5 0.00359
15.55 0.003
15.6 0.00271
15.65 0.00267
15.7 0.00205
15.75 0.00222
15.8 0.00069
15.85 0.00035
15.9 -0.00014
15.95 -0.0008
16 -0.00265
16.05 -0.0033
16.1 -0.00282
16.15 -0.00242
16.2 -0.00288
16.25 -0.00318
16.3 -0.00249
16.35 -0.00131
16.4 0.0007
16.45 0.00248
16.5 0.00297
16.55 0.00379
16.6 0.00528
16.65 0.00449
16.7 0.00414
16.75 0.00461
16.8 0.00565
16.85 0.00565
16.9 0.00367
16.95 0.0014
17 -0.0003
17.05 -0.00081
17.1 -0.00239
17.15 -0.00419
17.2 -0.00602
17.25 -0.00638
17.3 -0.00619
17.35 -0.00695
17.4 -0.00619
17.45 -0.00487
17.5 -0.00515
17.55 -0.00461
17.6 -0.00444
17.65 -0.00479
17.7 -0.00378
17.75 -0.0022
17.8 -0.00037
17.85 0.00208
17.9 0.00334
17.95 0.00428
18 0.00538
18.05 0.00523
18.1 0.00554
18.15 0.00488
18.2 0.00535
18.25 0.00524
18.3 0.00381
18.35 0.00187
18.4 0.00021
18.45 -0.00183
18.5 -0.00298
18.55 -0.00493
18.6 -0.00549
18.65 -0.00549
18.7 -0.00601
18.75 -0.00586
18.8 -0.0059
18.85 -0.00687
18.9 -0.00621
18.95 -0.0062
19 -0.00614
19.05 -0.00539
19.1 -0.00381
19.15 -0.00119
19.2 0.00156
19.25 0.00421
19.3 0.0056
19.35 0.00564
19.4 0.00502
19.45 0.00533
19.5 0.00629
19.55 0.00714
19.6 0.00649
19.65 0.00405
19.7 0.00256
19.75 0.00106
19.8 -0.00074
19.85 -0.00217
19.9 -0.00359
19.95 -0.0048
20 -0.00454
20.05 -0.00344
20.1 -0.00319
20.15 -0.00264
20.2 -0.00209
20.25 -0.00048
20.3 -0.00011
20.35 -0.00127
20.4 -0.00152
20.45 -0.00296
20.5 -0.0046
20.55 -0.00659
20.6 -0.00742
20.65 -0.00606
20.7 -0.00541
20.75 -0.00377
20.8 -0.00146
20.85 0.00072
20.9 0.00207
20.95 0.00387
21 0.00542
21.05 0.00654
21.1 0.00689
21.15 0.00629
21.2 0.00664
21.25 0.00737
21.3 0.00843
21.35 0.00833
21.4 0.00728
21.45 0.00573
21.5 0.00293
21.55 0.00004
21.6 -0.00125
21.65 -0.003
21.7 -0.00472
21.75 -0.00563
21.8 -0.00601
21.85 -0.00603
21.9 -0.00628
21.95 -0.00545
22 -0.00557
22.05 -0.00395
22.1 -0.00344
22.15 -0.00367
22.2 -0.00272
22.25 -0.00169
22.3 0.0003
22.35 0.00195
22.4 0.00381
22.45 0.00449
22.5 0.00429
22.55 0.00492
22.6 0.0035
22.65 0.00292
22.7 0.00305
22.75 0.00163
22.8 0.00105
22.85 0.00082
22.9 0.00107
22.95 0.00036
23 -0.0001
23.05 -0.00036
23.1 -0.00039
23.15 -0.00093
23.2 -0.0002
23.25 0.00121
23.3 0.00239
23.35 0.00257
23.4 0.00152
23.45 0.00086
23.5 0.00088
23.55 0.00032
23.6 0.00002
23.65 -0.00067
23.7 -0.00203
23.75 -0.00371
23.8 -0.00534
23.85 -0.00484
23.9 -0.00451
23.95 -0.00278
24 -0.001
24.05 -0.00012
24.1 0.00072
24.15 -0.00006
24.2 -0.00188
24.25 -0.00364
24.3 -0.00414
24.35 -0.00353
24.4 -0.00405
24.45 -0.00305
24.5 -0.00138
24.55 0.00084
24.6 0.00337
24.65 0.00471
24.7 0.00568
24.75 0.00468
24.8 0.00441
24.85 0.005
24.9 0.0041
24.95 0.00394
25 0.0029
25.05 0.00177
25.1 -0.00011
25.15 -0.00069
25.2 -0.00139
25.25 -0.00147
25.3 -0.0011
25.35 -0.00045
25.4 -0.0006
25.45 -0.00109
25.5 -0.00225
25.55 -0.00344
25.6 -0.00422
25.65 -0.00351
25.7 -0.00164
25.75 -0.00109
25.8 0.00044
25.85 0.00179
25.9 0.00334
25.95 0.00348
26 0.00407
26.05 0.00438
26.1 0.00319
26.15 0.00121
26.2 -0.0007
26.25 -0.00287
26.3 -0.00374
26.35 -0.00379
26.4 -0.00242
26.45 -0.00188
26.5 -0.00162
26.55 -0.0014
26.6 -0.00152
26.65 -0.00117
26.7 0.00003
26.75 0.00088
26.8 0.00226
26.85 0.0033
26.9 0.00271
26.95 0.00078
27 -0.00182
27.05 -0.0044
27.1 -0.00512
27.15 -0.00666
27.2 -0.00612
27.25 -0.00547
27.3 -0.00398
27.35 -0.00184
27.4 0.00075
27.45 0.00091
27.5 0.0022
27.55 0.00335
27.6 0.00285
27.65 0.00229
27.7 0.00074
27.75 0.00052
27.8 -0.00055
27.85 -0.00128
27.9 -0.00245
27.95 -0.0018
28 -0.00118
28.05 -0.00188
28.1 -0.00244
28.15 -0.00157
28.2 -0.00011
28.25 0.00011
28.3 -0.00032
28.35 0.00069
28.4 0.00026
28.45 0.00118
28.5 0.00169
28.55 0.00204
28.6 0.00282
28.65 0.00433
28.7 0.00441
28.75 0.00504
28.8 0.00386
28.85 0.00225
28.9 0.00054
28.95 -0.00094
29 -0.00075
29.05 -0.00021
29.1 -0.00136
29.15 -0.00205
29.2 -0.00305
29.25 -0.00369
29.3 -0.00489
29.35 -0.00502
29.4 -0.00531
29.45 -0.00586
29.5 -0.00718
29.55 -0.008
29.6 -0.00907
29.65 -0.00869
29.7 -0.00694
29.75 -0.00657
29.8 -0.00575
29.85 -0.00497
29.9 -0.00303
29.95 -0.00239
30 -0.00258
30.05 -0.0017
30.1 -0.00044
30.15 0.00182
30.2 0.00269
30.25 0.00255
30.3 0.00329
30.35 0.00474
30.4 0.00528
30.45 0.00647
30.5 0.00677
30.55 0.00709
30.6 0.00768
30.65 0.00662
30.7 0.00395
30.75 0.00213
30.8 0.00203
30.85 0.00156
30.9 0.00075
30.95 -0.00011
31 -0.00065
31.05 -0.00021
31.1 0.00139
31.15 0.00093
31.2 0.00058
31.25 0.00003
31.3 0.00068
31.35 0.00062
31.4 0.00013
31.45 0.0002
31.5 0.00037
31.55 0.00067
31.6 0.00005
31.65 0.00027
31.7 0.00036
31.75 -0.00063
31.8 -0.00062
31.85 0.00059
31.9 0.00026
31.95 -0.00105
32 -0.00146
32.05 -0.00192
32.1 -0.0026
32.15 -0.00192
32.2 -0.00123
32.25 0.00058
32.3 0.00044
32.35 0.00032
32.4 -0.0002
32.45 0.00047
32.5 0.00014
32.55 -0.00147
32.6 -0.00381
32.65 -0.00641
32.7 -0.00868
32.75 -0.00817
32.8 -0.00801
32.85 -0.00823
32.9 -0.00852
32.95 -0.00845
33 -0.00789
33.05 -0.00564
33.1 -0.00473
33.15 -0.00321
33.2 -0.00322
33.25 -0.00281
33.3 -0.00233
33.35 -0.0015
33.4 -0.00049
33.45 -0.00045
33.5 -0.00136
33.55 -0.00224
33.6 -0.00165
33.65 -0.0021
33.7 -0.00317
33.75 -0.00403
33.8 -0.00364
33.85 -0.00435
33.9 -0.00378
33.95 -0.00334
34 -0.00208
34.05 -0.00036
34.1 0.00118
34.15 0.00173
34.2 0.00211
34.25 0.00304
34.3 0.00426
34.35 0.00594
34.4 0.00745
34.45 0.00849
34.5 0.00761
34.55 0.00625
34.6 0.00502
34.65 0.00418
34.7 0.00374
34.75 0.00348
34.8 0.00194
34.85 0.002
34.9 0.00235
34.95 0.00159
35 0.00075
35.05 0.00038
35.1 0.00116
35.15 0.00145
35.2 0.00194
35.25 0.00248
35.3 0.00144
35.35 -0.00037
35.4 -0.00272
35.45 -0.00432
35.5 -0.00623
35.55 -0.00588
35.6 -0.00654
35.65 -0.00683
35.7 -0.00689
35.75 -0.00521
35.8 -0.00233
35.85 -0.00086
35.9 0.00047
35.95 0.00237
36 0.00362
36.05 0.00482
36.1 0.00388
36.15 0.00299
36.2 0.00189
36.25 0.00229
36.3 0.00278
36.35 0.00396
36.4 0.00392
36.45 0.00486
36.5 0.00376
36.55 0.00283
36.6 0.00205
36.65 0.00006
36.7 -0.0026
36.75 -0.00514
36.8 -0.0051
36.85 -0.00447
36.9 -0.00356
36.95 -0.00283
37 -0.00282
37.05 -0.00217
37.1 -0.00038
37.15 0.00079
37.2 0.00125
37.25 0.0006
37.3 -0.00034
37.35 -0.00108
37.4 -0.00211
37.45 -0.004
37.5 -0.00494
37.55 -0.00433
37.6 -0.00251
37.65 -0.00195
37.7 -0.00004
37.75 0.00056
37.8 0.0011
37.85 0.00137
37.9 0.00161
37.95 0.00093
38 0.00112
38.05 0.0014
38.1 0.00285
38.15 0.00467
38.2 0.00592
38.25 0.00516
38.3 0.00429
38.35 0.00274
38.4 0.00221
38.45 0.00031
38.5 0.00045
38.55 0.00109
38.6 0.0006
38.65 -0.00018
38.7 -0.00065
38.75 -0.00158
38.8 -0.00173
38.85 -0.00287
38.9 -0.00306
38.95 -0.00419
39 -0.0047
39.05 -0.00442
39.1 -0.00295
39.15 -0.00307
39.2 -0.00188
39.25 -0.00092
39.3 0.00042
39.35 0.00008
39.4 0.00118
39.45 0.00084
39.5 -0.0001
39.55 0.00035
39.6 0.00076
39.65 0.00041
39.7 0.00152
39.75 0.001
39.8 0.00133
39.85 0.00078
39.9 0.0003
39.95 -0.00082
40 -0.00046
40.05 -0.0011
40.1 -0.00278
40.15 -0.00459
40.2 -0.00546
40.25 -0.00552
40.3 -0.00411
40.35 -0.00322
40.4 -0.00243
40.45 -0.00174
40.5 -0.00056
40.55 -0.00034
40.6 -0.00156
40.65 -0.00301
40.7 -0.00436
40.75 -0.0057
40.8 -0.00593
40.85 -0.00537
40.9 -0.00546
40.95 -0.00369
41 -0.00229
41.05 -0.00206
41.1 -0.0003
41.15 0.00161
41.2 0.0029
41.25 0.00278
41.3 0.0032
41.35 0.00269
41.4 0.00295
41.45 0.00385
41.5 0.00376
41.55 0.00446
41.6 0.00402
41.65 0.00219
41.7 0.0017
41.75 0.00093
41.8 -0.0004
41.85 -0.00217
41.9 -0.00427
41.95 -0.00571
42 -0.00745
42.05 -0.00875
42.1 -0.00948
42.15 -0.00884
42.2 -0.0078
42.25 -0.00736
42.3 -0.00723
42.35 -0.00608
42.4 -0.00334
42.45 -0.00202
42.5 -0.00143
42.55 -0.00002
42.6 0.00199
42.65 0.00309
42.7 0.00309
42.75 0.00278
42.8 0.00267
42.85 0.00199
42.9 0.00106
42.95 0.00174
43 0.0034
43.05 0.00327
43.1 0.00277
43.15 0.00134
43.2 -0.00006
43.25 -0.0006
43.3 -0.00086
43.35 -0.0016
43.4 -0.00307
43.45 -0.00371
43.5 -0.00402
43.55 -0.00467
43.6 -0.00419
43.65 -0.00426
43.7 -0.00245
43.75 -0.00235
43.8 -0.00297
43.85 -0.00283
43.9 -0.00352
43.95 -0.00261
44 -0.00064
44.05 -0.00045
44.1 -0.00018
44.15 0.00138
44.2 0.00353
44.25 0.00395
44.3 0.00449
44.35 0.00588
44.4 0.00595
44.45 0.00675
44.5 0.00791
44.55 0.00724
44.6 0.00588
44.65 0.00348
44.7 0.00121
44.75 0.00098
44.8 0.00065
44.85 0.00171
44.9 0.00138
44.95 -0.00015
45 -0.00062
45.05 0.00057
45.1 0.00228
45.15 0.00234
45.2 0.00201
45.25 0.00269
45.3 0.00364
45.35 0.00339
45.4 0.00301
45.45 0.00217
45.5 0.00184
45.55 0.00194
45.6 0.00083
45.65 -0.00056
45.7 -0.00046
45.75 0.00104
45.8 0.00299
45.85 0.00509
45.9 0.00699
45.95 0.00882
46 0.00944
46.05 0.00867
46.1 0.00639
46.15 0.00465
46.2 0.00315
46.25 0.00234
46.3 0.00043
46.35 -0.00009
46.4 0.00043
46.45 -0.00047
46.5 0.00023
46.55 0.00181
46.6 0.00319
46.65 0.00503
46.7 0.00608
46.75 0.00614
46.8 0.00691
46.85 0.00574
46.9 0.00573
46.95 0.00623
47 0.00504
47.05 0.00451
47.1 0.00286
47.15 0.00008
47.2 -0.00301
47.25 -0.00385
47.3 -0.00312
47.35 -0.0018
47.4 -0.00212
47.45 -0.00354
47.5 -0.00316
47.55 -0.00408
47.6 -0.00532
47.65 -0.00633
47.7 -0.00635
47.75 -0.00536
47.8 -0.00465
47.85 -0.00305
47.9 -0.00237
47.95 -0.00225
48 -0.0009
48.05 0.00047
48.1 0.00018
48.15 -0.00028
48.2 -0.00097
48.25 -0.00222
48.3 -0.00241
48.35 -0.00314
48.4 -0.00418
48.45 -0.0046
48.5 -0.00522
48.55 -0.00518
48.6 -0.00395
48.65 -0.00249
48.7 -0.00021
48.75 0.00182
48.8 0.00307
48.85 0.0022
48.9 0.00188
48.95 0.00164
49 0.00237
49.05 0.0039
49.1 0.00354
49.15 0.00362
49.2 0.00464
49.25 0.00506
49.3 0.00525
49.35 0.00429
49.4 0.0037
49.45 0.00352
49.5 0.00303
49.55 0.00335
49.6 0.00264
49.65 0.00322
49.7 0.00447
49.75 0.00479
49.8 0.00507
49.85 0.00337
49.9 0.00097
49.95 0.00027
50 0.00032
50.05 -0.00006
50.1 -0.00093
50.15 -0.00041
50.2 0.00008
50.25 -0.00027
50.3 -0.00098
50.35 -0.00147
50.4 -0.00193
50.45 -0.00083
50.5 0.0007
50.55 0.00212
50.6 0.00325
50.65 0.00222
50.7 0.00206
50.75 0.00047
50.8 -0.00131
50.85 -0.00103
50.9 -0.00133
50.95 -0.0008
51 -0.00181
51.05 -0.00331
51.1 -0.00334
51.15 -0.00255
51.2 -0.00069
51.25 -0.00019
51.3 -0.00059
51.35 -0.00064
51.4 -0.00091
51.45 -0.00123
51.5 -0.00072
51.55 0
51.6 0.00174
51.65 0.00367
51.7 0.00328
51.75 0.00306
51.8 0.00331
51.85 0.00367
51.9 0.00247
51.95 0.00152
52 0.00063
52.05 0.00068
52.1 -0.00083
52.15 -0.00212
52.2 -0.00272
52.25 -0.0023
52.3 -0.00301
52.35 -0.00466
52.4 -0.00616
52.45 -0.00546
52.5 -0.0038
52.55 -0.00279
52.6 -0.00336
52.65 -0.00469
52.7 -0.00517
52.75 -0.00532
52.8 -0.00667
52.85 -0.00832
52.9 -0.00932
52.95 -0.01249
53 -0.01707
53.05 -0.02074
53.1 -0.02433
53.15 -0.02818
53.2 -0.03342
53.25 -0.03902
53.3 -0.04655
53.35 -0.05436
53.4 -0.06248
53.45 -0.07172
53.5 -0.08291
53.55 -0.09405
53.6 -0.10827
53.65 -0.12402
53.7 -0.14098
53.75 -0.16031
53.8 -0.18156
53.85 -0.20492
53.9 -0.23029
53.95 -0.2579
54 -0.28738
54.05 -0.31996
54.1 -0.35464
54.15 -0.39333
54.2 -0.43347
54.25 -0.47543
54.3 -0.51679
54.35 -0.55995
54.4 -0.60358
54.45 -0.64504
54.5 -0.68605
54.55 -0.72509
54.6 -0.76103
54.65 -0.79434
54.7 -0.82439
54.75 -0.85282
54.8 -0.8779
54.85 -0.89847
54.9 -0.91475
54.95 -0.92336
55 -0.92625
55.05 -0.92148
55.1 -0.91125
55.15 -0.89312
55.2 -0.86949
55.25 -0.84
55.3 -0.80381
55.35 -0.7616
55.4 -0.71279
55.45 -0.65938
55.5 -0.59997
55.55 -0.53616
55.6 -0.4702
55.65 -0.40026
55.7 -0.32966
55.75 -0.25657
55.8 -0.18293
55.85 -0.10906
55.9 -0.03623
55.95 0.03337
56 0.10141
56.05 0.1658
56.1 0.22675
56.15 0.28562
56.2 0.33952
56.25 0.39052
56.3 0.43765
56.35 0.47911
56.4 0.51743
56.45 0.55178
56.5 0.58288
56.55 0.6089
56.6 0.63076
56.65 0.64984
56.7 0.6647
56.75 0.67799
56.8 0.68807
56.85 0.69489
56.9 0.70085
56.95 0.70366
57 0.70558
57.05 0.70811
57.1 0.70825
57.15 0.70662
57.2 0.70466
57.25 0.70327
57.3 0.70186
57.35 0.69945
57.4 0.69519
57.45 0.69191
57.5 0.68702
57.55 0.68229
57.6 0.67793
57.65 0.67106
57.7 0.66424
57.75 0.65694
57.8 0.64758
57.85 0.63917
57.9 0.6311
57.95 0.62229
58 0.6128
58.05 0.60053
58.1 0.58879
58.15 0.57706
58.2 0.56397
58.25 0.55064
58.3 0.53713
58.35 0.5226
58.4 0.50697
58.45 0.49183
58.5 0.47609
58.55 0.46109
58.6 0.44633
58.65 0.43068
58.7 0.41553
58.75 0.39999
58.8 0.38397
58.85 0.36625
58.9 0.3492
58.95 0.33347
59 0.31731
59.05 0.30143
59.1 0.28618
59.15 0.27103
59.2 0.25643
59.25 0.24084
59.3 0.22699
59.35 0.21365
59.4 0.19945
59.45 0.18636
59.5 0.173
59.55 0.15968
59.6 0.14807
59.65 0.13759
59.7 0.12771
59.75 0.11807
59.8 0.10873
59.85 0.099
59.9 0.08777
59.95 0.0752
60 0.06488
60.05 0.05506
60.1 0.04517
60.15 0.03589
60.2 0.0268
60.25 0.01707
60.3 0.00692
60.35 -0.00064
60.4 -0.00648
60.45 -0.01215
60.5 -0.01735
60.55 -0.02206
60.6 -0.02607
60.65 -0.02997
60.7 -0.03364
60.75 -0.0389
60.8 -0.0456
60.85 -0.0517
60.9 -0.05789
60.95 -0.06327
61 -0.06734
61.05 -0.07219
61.1 -0.07733
61.15 -0.08319
61.2 -0.08693
61.25 -0.08921
61.3 -0.09067
61.35 -0.09292
61.4 -0.09507
61.45 -0.09811
61.5 -0.10038
61.55 -0.10345
61.6 -0.10676
61.65 -0.10921
61.7 -0.11004
61.75 -0.10976
61.8 -0.10896
61.85 -0.10995
61.9 -0.11145
61.95 -0.11309
62 -0.11382
62.05 -0.11534
62.1 -0.11591
62.15 -0.11612
62.2 -0.11652
62.25 -0.11711
62.3 -0.11806
62.35 -0.11874
62.4 -0.11789
62.45 -0.11587
62.5 -0.1151
62.55 -0.11371
62.6 -0.1124
62.65 -0.10989
62.7 -0.10825
62.75 -0.10699
62.8 -0.106
62.85 -0.1035
62.9 -0.10249
62.95 -0.10134
63 -0.10113
63.05 -0.10171
63.1 -0.10181
63.15 -0.09976
63.2 -0.098
63.25 -0.09703
63.3 -0.09536
63.35 -0.09491
63.4 -0.09496
63.45 -0.09546
63.5 -0.0954
63.55 -0.09393
63.6 -0.09246
63.65 -0.0902
63.7 -0.08764
63.75 -0.08524
63.8 -0.08439
63.85 -0.0843
63.9 -0.08401
63.95 -0.08318
64 -0.08152
64.05 -0.08039
64.1 -0.0802
64.15 -0.08029
64.2 -0.08039
64.25 -0.08018
64.3 -0.07977
64.35 -0.07871
64.4 -0.07616
64.45 -0.073
64.5 -0.0699
64.55 -0.06629
64.6 -0.06263
64.65 -0.05949
64.7 -0.05608
64.75 -0.05353
64.8 -0.05146
64.85 -0.04917
64.9 -0.04831
64.95 -0.04807
65 -0.04837
65.05 -0.04901
65.1 -0.04856
65.15 -0.04711
65.2 -0.04541
65.25 -0.04375
65.3 -0.04298
65.35 -0.04322
65.4 -0.04405
65.45 -0.04487
65.5 -0.04528
65.55 -0.04574
65.6 -0.04713
65.65 -0.04901
65.7 -0.04886
65.75 -0.04952
65.8 -0.04994
65.85 -0.05064
65.9 -0.05161
65.95 -0.05036
66 -0.04963
66.05 -0.04695
66.1 -0.04516
66.15 -0.04356
66.2 -0.04248
66.25 -0.04131
66.3 -0.0397
66.35 -0.03901
66.4 -0.03696
66.45 -0.03589
66.5 -0.03621
66.55 -0.03625
66.6 -0.03693
66.65 -0.03674
66.7 -0.03554
66.75 -0.03303
66.8 -0.03154
66.85 -0.02903
66.9 -0.02727
66.95 -0.02721
67 -0.02856
67.05 -0.02845
67.1 -0.02687
67.15 -0.0268
67.2 -0.02657
67.25 -0.02757
67.3 -0.02754
67.35 -0.02616
67.4 -0.02561
67.45 -0.02368
67.5 -0.02109
67.55 -0.01854
67.6 -0.01823
67.65 -0.01857
67.7 -0.02046
67.75 -0.02047
67.8 -0.02123
67.85 -0.02126
67.9 -0.02166
67.95 -0.02167
68 -0.02054
68.05 -0.02095
68.1 -0.02051
68.15 -0.02094
68.2 -0.02013
68.25 -0.01824
68.3 -0.01656
68.35 -0.0153
68.4 -0.01586
68.45 -0.01688
68.5 -0.01805
68.55 -0.01868
68.6 -0.01915
68.65 -0.02025
68.7 -0.02183
68.75 -0.02259
68.8 -0.02265
68.85 -0.02312
68.9 -0.02395
68.95 -0.02305
69 -0.02161
69.05 -0.02129
69.1 -0.01956
69.15 -0.01911
69.2 -0.01822
69.25 -0.01589
69.3 -0.01331
69.35 -0.01034
69.4 -0.00866
69.45 -0.00687
69.5 -0.0054
69.55 -0.00539
69.6 -0.00736
69.65 -0.008
69.7 -0.00967
69.75 -0.01183
69.8 -0.01236
69.85 -0.01358
69.9 -0.01493
69.95 -0.01589
70 -0.01688
70.05 -0.01677
70.1 -0.01519
70.15 -0.01437
70.2 -0.01411
70.25 -0.01311
70.3 -0.01189
70.35 -0.0104
70.4 -0.00915
70.45 -0.0085
70.5 -0.00756
70.55 -0.00733
70.6 -0.00668
70.65 -0.00684
70.7 -0.0058
70.75 -0.00423
70.8 -0.0029
70.85 -0.00184
70.9 -0.00067
70.95 0.00038
71 -0.00058
71.05 -0.0029
71.1 -0.00514
71.15 -0.00645
71.2 -0.00884
71.25 -0.00948
71.3 -0.01075
71.35 -0.01254
71.4 -0.01443
71.45 -0.01531
71.5 -0.01438
71.55 -0.01202
71.6 -0.00957
71.65 -0.00763
71.7 -0.00532
71.75 -0.00299
71.8 -0.00269
71.85 -0.00383
71.9 -0.00541
71.95 -0.00784
72 -0.00998
72.05 -0.01228
72.1 -0.01388
72.15 -0.01304
72.2 -0.01295
72.25 -0.01295
72.3 -0.01203
72.35 -0.01083
72.4 -0.00924
72.45 -0.00718
72.5 -0.00622
72.55 -0.00651
72.6 -0.0069
72.65 -0.00769
72.7 -0.00868
72.75 -0.01006
72.8 -0.00959
72.85 -0.00739
72.9 -0.00698
72.95 -0.00717
73 -0.00735
73.05 -0.00657
73.1 -0.00508
73.15 -0.00266
73.2 -0.00056
73.25 0.00003
73.3 -0.00103
73.35 -0.00328
73.4 -0.00418
73.45 -0.00321
73.5 -0.00375
73.55 -0.00423
73.6 -0.00574
73.65 -0.00583
73.7 -0.00698
73.75 -0.00592
73.8 -0.00368
73.85 -0.00282
73.9 -0.00266
73.95 -0.0012
74 -0.00076
74.05 -0.00094
74.1 -0.00102
74.15 -0.00255
74.2 -0.00393
74.25 -0.00529
74.3 -0.00565
74.35 -0.00612
74.4 -0.00517
74.45 -0.00308
74.5 -0.00057
74.55 0.00199
74.6 0.00388
74.65 0.00388
74.7 0.00366
74.75 0.0038
74.8 0.00281
74.85 0.0014
74.9 0.00014
74.95 -0.00179
75 -0.0034
75.05 -0.00447
75.1 -0.0044
75.15 -0.00497
75.2 -0.00457
75.25 -0.00278
75.3 -0.00204
75.35 -0.00257
75.4 -0.00218
75.45 -0.00054
75.5 0.00153
75.55 0.00242
75.6 0.00324
75.65 0.00306
75.7 0.00216
75.75 0.00245
75.8 0.00281
75.85 0.00242
75.9 0.00066
75.95 -0.00038
76 -0.00103
76.05 -0.00284
76.1 -0.00388
76.15 -0.00434
76.2 -0.00361
76.25 -0.00421
76.3 -0.00527
76.35 -0.00695
76.4 -0.00614
76.45 -0.00617
76.5 -0.00544
76.55 -0.00445
76.6 -0.00354
76.65 -0.00177
76.7 -0.00195
76.75 -0.00103
76.8 -0.00167
76.85 -0.00228
76.9 -0.00277
76.95 -0.00251
77 -0.00325
77.05 -0.00426
77.1 -0.00332
77.15 -0.00171
77.2 -0.00103
77.25 0.0006
77.3 0.00275
77.35 0.00385
77.4 0.00337
77.45 0.00393
77.5 0.00254
77.55 0.00143
77.6 -0.00026
77.65 -0.00067
77.7 -0.0022
77.75 -0.00221
77.8 -0.00272
77.85 -0.0021
77.9 -0.00183
77.95 -0.00247
78 -0.00405
78.05 -0.00369
78.1 -0.00291
78.15 -0.00114
78.2 0.00029
78.25 0.00093
78.3 0.00063
78.35 0.0013
78.4 0.00228
78.45 0.00223
78.5 0.00197
78.55 0.00022
78.6 -0.00228
78.65 -0.00314
78.7 -0.0034
78.75 -0.00392
78.8 -0.00367
78.85 -0.00221
78.9 -0.00197
78.95 -0.00037
79 0.00037
79.05 0.00061
79.1 0.0016
79.15 0.00176
79.2 0.00262
79.25 0.00332
79.3 0.0039
79.35 0.00399
79.4 0.00385
79.45 0.00392
79.5 0.00227
79.55 0.00156
79.6 0.00117
79.65 0.00034
79.7 0.00109
79.75 0.00022
79.8 -0.00061
79.85 -0.00208
79.9 -0.00401
79.95 -0.00618
80 -0.00714
80.05 -0.00712
80.1 -0.00778
80.15 -0.00707
80.2 -0.00535
80.25 -0.00386
80.3 -0.00285
80.35 -0.00107
80.4 -0.00026
80.45 0.00063
80.5 0.00155
80.55 0.0015
80.6 0.00252
80.65 0.00313
80.7 0.00421
80.75 0.00384
80.8 0.00284
80.85 0.00312
80.9 0.00253
80.95 0.0032
81 0.00338
81.05 0.00239
81.1 0.00241
81.15 0.00318
81.2 0.00283
81.25 0.00222
81.3 0.00023
81.35 -0.001
81.4 -0.00236
81.45 -0.00173
81.5 -0.00011
81.55 0.00014
81.6 -0.00087
81.65 -0.00229
81.7 -0.00302
81.75 -0.0025
81.8 -0.00189
81.85 -0.00227
81.9 -0.00123
81.95 -0.00184
82 -0.00274
82.05 -0.00197
82.1 -0.00278
82.15 -0.00363
82.2 -0.00396
82.25 -0.00359
82.3 -0.00313
82.35 -0.00138
82.4 -0.00079
82.45 -0.00173
82.5 -0.00289
82.55 -0.00425
82.6 -0.00397
82.65 -0.00354
82.7 -0.00212
82.75 -0.00077
82.8 -0.00059
82.85 -0.00037
82.9 -0.00081
82.95 -0.00171
83 -0.00246
83.05 -0.00403
83.1 -0.00444
83.15 -0.00398
83.2 -0.00272
83.25 -0.00141
83.3 0.00067
83.35 0.00166
83.4 0.00211
83.45 0.00108
83.5 0.00106
83.55 0.00236
83.6 0.00222
83.65 0.00286
83.7 0.0031
83.75 0.00207
83.8 0.00263
83.85 0.00301
83.9 0.0028
83.95 0.00193
84 0.00085
84.05 0.00061
84.1 -0.00056
84.15 -0.00232
84.2 -0.00449
84.25 -0.00687
84.3 -0.00921
84.35 -0.00912
84.4 -0.00768
84.45 -0.00735
84.5 -0.00709
84.55 -0.0061
84.6 -0.00464
84.65 -0.00301
84.7 -0.00169
84.75 0.00072
84.8 0.0035
84.85 0.00415
84.9 0.00299
84.95 0.00329
85 0.00294
85.05 0.00287
85.1 0.00242
85.15 0.0031
85.2 0.00452
85.25 0.00454
85.3 0.00365
85.35 0.00423
85.4 0.00507
85.45 0.00555
85.5 0.0046
85.55 0.00271
85.6 0.00156
85.65 -0.00067
85.7 -0.00317
85.75 -0.00499
85.8 -0.0046
85.85 -0.0052
85.9 -0.00583
85.95 -0.00567
86 -0.0042
86.05 -0.00185
86.1 0.00016
86.15 0.00254
86.2 0.00365
86.25 0.00472
86.3 0.00514
86.35 0.00624
86.4 0.00688
86.45 0.00767
86.5 0.00878
86.55 0.00935
86.6 0.00796
86.65 0.00524
86.7 0.00341
86.75 0.00113
86.8 0.00072
86.85 0.00124
86.9 0.00274
86.95 0.0022
87 0.00118
87.05 0.00002
87.1 -0.00218
87.15 -0.00242
87.2 -0.00264
87.25 -0.00391
87.3 -0.00499
87.35 -0.00568
87.4 -0.00587
87.45 -0.00466
87.5 -0.00418
87.55 -0.00231
87.6 0.00003
87.65 0.00061
87.7 -0.00017
87.75 0.00032
87.8 -0.00016
87.85 -0.00015
87.9 0.00032
87.95 0.00019
88 0.00105
88.05 0.0019
88.1 0.00132
88.15 0.00215
88.2 0.00198
88.25 0.00231
88.3 0.00357
88.35 0.00541
88.4 0.00676
88.45 0.00576
88.5 0.00453
88.55 0.00389
88.6 0.00181
88.65 0.00131
88.7 0.00123
88.75 0.0008
88.8 -0.00004
88.85 -0.00116
88.9 -0.00194
88.95 -0.00275
89 -0.00251
89.05 -0.00087
89.1 -0.00116
89.15 -0.00259
89.2 -0.00416
89.25 -0.00543
89.3 -0.00592
89.35 -0.00545
89.4 -0.00416
89.45 -0.00191
89.5 -0.00051
89.55 -0.00056
89.6 -0.00015
89.65 -0.00029
89.7 0.00066
89.75 0.0022
89.8 0.00363
89.85 0.00488
89.9 0.00634
89.95 0.00599
90 0.00486
90.05 0.00305
90.1 0.00119
90.15 -0.0014
90.2 -0.00362
90.25 -0.00478
90.3 -0.00388
90.35 -0.00417
90.4 -0.00389
90.45 -0.00224
90.5 -0.00205
90.55 -0.00126
90.6 0.00057
90.65 0.00228
90.7 0.0028
90.75 0.00423
90.8 0.00441
90.85 0.00326
90.9 0.00326
90.95 0.00282
91 0.00224
91.05 0.00115
91.1 -0.00092
91.15 -0.00295
91.2 -0.00314
91.25 -0.0018
91.3 -0.00028
91.35 0.00204
91.4 0.0037
91.45 0.00574
91.5 0.0054
91.55 0.00324
91.6 0.00276
91.65 0.00212
91.7 0.00017
91.75 -0.00127
91.8 -0.00141
91.85 -0.00175
91.9 -0.0026
91.95 -0.00215
92 -0.00321
92.05 -0.00341
92.1 -0.00332
92.15 -0.00437
92.2 -0.0054
92.25 -0.005
92.3 -0.00323
92.35 -0.00241
92.4 -0.00227
92.45 -0.0016
92.5 -0.00216
92.55 -0.00208
92.6 -0.00237
92.65 -0.00165
92.7 -0.00114
92.75 -0.00004
92.8 0.00007
92.85 -0.00041
92.9 -0.00135
92.95 -0.00049
93 -0.00129
93.05 -0.00159
93.1 -0.00053
93.15 -0.00081
93.2 -0.00083
93.25 -0.00152
93.3 -0.0018
93.35 -0.00096
93.4 -0.00123
93.45 -0.00023
93.5 -0.00042
93.55 -0.00189
93.6 -0.00243
93.65 -0.00325
93.7 -0.00437
93.75 -0.00415
93.8 -0.00341
93.85 -0.00261
93.9 -0.00049
93.95 0.00194
94 0.00445
94.05 0.00541
94.1 0.00659
94.15 0.00616
94.2 0.00416
94.25 0.00161
94.3 0.00068
94.35 0.0002
94.4 -0.00121
94.45 -0.00196
94.5 -0.00185
94.55 -0.00203
94.6 -0.00333
94.65 -0.0031
94.7 -0.0017
94.75 0.00036
94.8 0.00186
94.85 0.00237
94.9 0.00158
94.95 0.00028
95 -0.00187
95.05 -0.0038
95.1 -0.00378
95.15 -0.00209
95.2 -0.00023
95.25 0.00141
95.3 0.0027
95.35 0.00194
95.4 0.00202
95.45 0.00061
95.5 -0.00112
95.55 -0.00207
95.6 -0.00153
95.65 -0.00037
95.7 -0.00085
95.75 -0.00217
95.8 -0.00336
95.85 -0.00458
95.9 -0.00363
95.95 -0.00394
96 -0.00382
96.05 -0.00486
96.1 -0.006
96.15 -0.00531
96.2 -0.00355
96.25 -0.00205
96.3 0.00034
96.35 0.00067
96.4 -0.00024
96.45 -0.0012
96.5 -0.00299
96.55 -0.00442
96.6 -0.00444
96.65 -0.0029
96.7 -0.00093
96.75 0.00173
96.8 0.00196
96.85 0.00137
96.9 0.00066
96.95 -0.00042
97 0.00032
97.05 0.00126
97.1 0.0004
97.15 -0.00016
97.2 0.00018
97.25 -0.00038
97.3 0.00031
97.35 0.00125
97.4 0.00036
97.45 0.0008
97.5 0.00173
97.55 0.00104
97.6 -0.00033
97.65 -0.00225
97.7 -0.00294
97.75 -0.00336
97.8 -0.00335
97.85 -0.00289
97.9 -0.00182
97.95 -0.00137
98 -0.00077
98.05 -0.0009
98.1 -0.0022
98.15 -0.00202
98.2 -0.0014
98.25 -0.00083
98.3 0.00055
98.35 0.00254
98.4 0.00318
98.45 0.00371
98.5 0.00512
98.55 0.00589
98.6 0.00566
98.65 0.00367
98.7 0.00176
98.75 0.00092
98.8 -0.0003
98.85 -0.00067
98.9 -0.00111
98.95 -0.00196
99 -0.00247
99.05 -0.00368
99.1 -0.00337
99.15 -0.00381
99.2 -0.00463
99.25 -0.00604
99.3 -0.00679
99.35 -0.00699
99.4 -0.00634
99.45 -0.0059
99.5 -0.00467
99.55 -0.00239
99.6 -0.00041
99.65 0.00218
99.7 0.00436
99.75 0.00537
99.8 0.00487
99.85 0.00451
99.9 0.00504
99.95 0.00434
