0 0
0.05 0.00056
0.1 0.00128
0.15 0.00229
0.2 0.00311
0.25 0.00343
0.3 0.00373
0.35 0.00407
0.4 0.00412
0.45 0.00453
0.5 0.00456
0.55 0.00439
0.6 0.00446
0.65 0.00454
0.7 0.00434
0.75 0.0044
0.8 0.00437
0.85 0.00453
0.9 0.00437
0.95 0.00389
1 0.00391
1.05 0.00449
1.1 0.00534
1.15 0.00548
1.2 0.00572
1.25 0.00615
1.3 0.00586
1.35 0.00527
1.4 0.00435
1.45 0.0034
1.5 0.00282
1.55 0.00257
1.6 0.00271
1.65 0.00339
1.7 0.00397
1.75 0.0042
1.8 0.00407
1.85 0.00426
1.9 0.00417
1.95 0.00422
2 0.00397
2.05 0.00427
2.1 0.00458
2.15 0.00511
2.2 0.00548
2.25 0.00523
2.3 0.00454
2.35 0.00373
2.4 0.00318
2.45 0.00238
2.5 0.00185
2.55 0.00202
2.6 0.00251
2.65 0.00343
2.7 0.00371
2.75 0.00337
2.8 0.00284
2.85 0.00267
2.9 0.00247
2.95 0.00246
3 0.00286
3.05 0.00316
3.1 0.00293
3.15 0.00246
3.2 0.00217
3.25 0.00174
3.3 0.00173
3.35 0.00215
3.4 0.00235
3.45 0.0027
3.5 0.00323
3.55 0.00308
3.6 0.00278
3.65 0.00275
3.7 0.00266
3.75 0.00304
3.8 0.00299
3.85 0.00244
3.9 0.00185
3.95 0.00114
4 0.00101
4.05 0.0011
4.1 0.00127
4.15 0.0013
4.2 0.00138
4.25 0.00155
4.3 0.00125
4.35 0.00138
4.4 0.00204
4.45 0.00203
4.5 0.00235
4.55 0.00245
4.6 0.00284
4.65 0.00258
4.7 0.00239
4.75 0.00228
4.8 0.00261
4.85 0.00303
4.9 0.00286
4.95 0.00247
5 0.00199
5.05 0.00159
5.1 0.00139
5.15 0.00118
5.2 0.0014
5.25 0.00198
5.3 0.00199
5.35 0.00195
5.4 0.00207
5.45 0.00263
5.5 0.00278
5.55 0.00309
5.6 0.00295
5.65 0.00252
5.7 0.00262
5.75 0.00211
5.8 0.0015
5.85 0.00158
5.9 0.00129
5.95 0.00069
6 0.00049
6.05 0.00049
6.1 0.00082
6.15 0.00077
6.2 0.00023
6.25 0.00004
6.3 0.00007
6.35 0.0007
6.4 0.00165
6.45 0.0019
6.5 0.00196
6.55 0.00147
6.6 0.0015
6.65 0.001
6.7 0.00029
6.75 -0.00025
6.8 -0.00037
6.85 -0.00029
6.9 0.00039
6.95 0.0012
7 0.0012
7.05 0.00122
7.1 0.00144
7.15 0.0015
7.2 0.00163
7.25 0.00158
7.3 0.00155
7.35 0.00132
7.4 0.00164
7.45 0.00136
7.5 0.00105
7.55 0.00055
7.6 0.00024
7.65 -0.00007
7.7 -0.00028
7.75 -0.00041
7.8 -0.00035
7.85 0.00006
7.9 0.00036
7.95 0.00033
8 0.0008
8.05 0.0012
8.1 0.00107
8.15 0.00137
8.2 0.00149
8.25 0.00191
8.3 0.00219
8.35 0.00208
8.4 0.0019
8.45 0.0016
8.5 0.0009
8.55 0.00077
8.6 0.0006
8.65 0.00056
8.7 0.0009
8.75 0.00064
8.8 0.00042
8.85 0.00037
8.9 0.00062
8.95 0.00102
9 0.00146
9.05 0.00207
9.1 0.00249
9.15 0.00308
9.2 0.00279
9.25 0.00201
9.3 0.00094
9.35 0.00034
9.4 -0.00029
9.45 -0.00029
9.5 -0.00039
9.55 -0.0008
9.6 -0.00147
9.65 -0.00192
9.7 -0.00256
9.75 -0.00304
9.8 -0.00341
9.85 -0.0031
9.9 -0.00287
9.95 -0.00215
10 -0.00168
10.05 -0.00162
10.1 -0.00173
10.15 -0.00213
10.2 -0.00201
10.25 -0.00211
10.3 -0.00243
10.35 -0.00223
10.4 -0.00164
10.45 -0.00093
10.5 -0.00005
10.55 0.00075
10.6 0.00119
10.65 0.00175
10.7 0.00214
10.75 0.00184
10.8 0.00117
10.85 0.0009
10.9 0.00098
10.95 0.0007
11 0.00024
11.05 0.00027
11.1 0.00079
11.15 0.00069
11.2 0.00008
11.25 0.00011
11.3 0.00026
11.35 0.00032
11.4 -0.00002
11.45 -0.00064
11.5 -0.00065
11.55 -0.00039
11.6 -0.00022
11.65 -0.00045
11.7 -0.00063
11.75 -0.00064
11.8 -0.0007
11.85 -0.00046
11.9 -0.00021
11.95 -0.00001
12 -0.00018
12.05 0.00017
12.1 0.00013
12.15 0.00001
12.2 -0.00035
12.25 -0.00097
12.3 -0.0014
12.35 -0.00136
12.4 -0.00093
12.45 -0.00046
12.5 -0.00057
12.55 -0.0001
12.6 0.00028
12.65 0.00029
12.7 0.00042
12.75 0.00069
12.8 0.00071
12.85 0.00027
12.9 0.00033
12.95 0.00032
13 -0.00017
13.05 0
13.1 0.00029
13.15 0.00057
13.2 0.00099
13.25 0.0014
13.3 0.00196
13.35 0.00205
13.4 0.00225
13.45 0.00208
13.5 0.0014
13.55 0.0006
13.6 0.00042
13.65 0.00003
13.7 -0.00072
13.75 -0.00164
13.8 -0.00248
13.85 -0.00249
13.9 -0.00244
13.95 -0.00234
14 -0.00181
14.05 -0.00141
14.1 -0.00114
14.15 -0.00056
14.2 -0.00036
14.25 0.00009
14.3 0.00054
14.35 0.00084
14.4 0.00074
14.45 0.00079
14.5 0.0003
14.55 -0.00027
14.6 -0.0007
14.65 -0.00108
14.7 -0.00109
14.75 -0.00048
14.8 0
14.85 -0.00003
14.9 0.00006
14.95 -0.00014
15 -0.00058
15.05 -0.00036
15.1 -0.00037
15.15 -0.0001
15.2 0.00063
15.25 0.00161
15.3 0.00193
15.35 0.00153
15.4 0.00089
15.45 0.0003
15.5 0.00011
15.55 0.0001
15.6 0.00006
15.65 -0.00028
15.7 -0.00068
15.75 -0.00096
15.8 -0.0014
15.85 -0.00152
15.9 -0.00097
15.95 -0.0007
16 -0.00056
16.05 -0.00007
16.1 -0.00015
16.15 -0.00049
16.2 -0.00099
16.25 -0.0009
16.3 -0.00048
16.35 -0.00031
16.4 0.0003
16.45 0.00052
16.5 0.00046
16.55 -0.00006
16.6 0.00018
16.65 -0.00001
16.7 -0.0003
16.75 -0.00092
16.8 -0.00166
16.85 -0.00212
16.9 -0.00168
16.95 -0.00073
17 0.0005
17.05 0.00116
17.1 0.00162
17.15 0.00158
17.2 0.00172
17.25 0.00224
17.3 0.002
17.35 0.00166
17.4 0.00179
17.45 0.00174
17.5 0.00175
17.55 0.00163
17.6 0.00126
17.65 0.00048
17.7 -0.00055
17.75 -0.00163
17.8 -0.00179
17.85 -0.00189
17.9 -0.00188
17.95 -0.00208
18 -0.00211
18.05 -0.00188
18.1 -0.00102
18.15 -0.00057
18.2 0.00031
18.25 0.00113
18.3 0.00156
18.35 0.00167
18.4 0.00158
18.45 0.00166
18.5 0.0011
18.55 0.00121
18.6 0.00131
18.65 0.0012
18.7 0.0007
18.75 0.00015
18.8 0.0003
18.85 0.00069
18.9 0.00136
18.95 0.00145
19 0.00105
19.05 0.00114
19.1 0.00091
19.15 0.00049
19.2 -0.00027
19.25 -0.00036
19.3 -0.00055
19.35 -0.00044
19.4 -0.00051
19.45 -0.00051
19.5 -0.00036
19.55 -0.00013
19.6 0.0002
19.65 -0.00001
19.7 -0.0006
19.75 -0.00121
19.8 -0.00133
19.85 -0.00179
19.9 -0.00242
19.95 -0.00241
20 -0.00209
20.05 -0.00118
20.1 -0.00036
20.15 0.0002
20.2 0.001
20.25 0.00129
20.3 0.00118
20.35 0.00057
20.4 0.00019
20.45 -0.00002
20.5 -0.00006
20.55 0.00039
20.6 0.00071
20.65 0.00062
20.7 0.00004
20.75 -0.00052
20.8 -0.00071
20.85 -0.00095
20.9 -0.00103
20.95 -0.00079
21 -0.0004
21.05 0.00003
21.1 0.00049
21.15 0.00119
21.2 0.00156
21.25 0.00145
21.3 0.00112
21.35 0.00076
21.4 0.00001
21.45 0.00009
21.5 0.00065
21.55 0.0006
21.6 0.00032
21.65 0.00064
21.7 0.00125
21.75 0.00117
21.8 0.00085
21.85 0.00093
21.9 0.00138
21.95 0.00118
22 0.00106
22.05 0.00105
22.1 0.0005
22.15 -0.00015
22.2 0
22.25 0.00038
22.3 0.00028
22.35 0.00059
22.4 0.00022
22.45 0.00022
22.5 0.0002
22.55 0.00022
22.6 -0.00006
22.65 -0.00024
22.7 -0.00085
22.75 -0.00104
22.8 -0.00118
22.85 -0.00163
22.9 -0.00226
22.95 -0.00218
23 -0.00171
23.05 -0.00159
23.1 -0.00175
23.15 -0.00198
23.2 -0.00189
23.25 -0.00172
23.3 -0.00137
23.35 -0.00071
23.4 -0.00044
23.45 0.00021
23.5 0.0007
23.55 0.00102
23.6 0.00164
23.65 0.00202
23.7 0.00195
23.75 0.00186
23.8 0.00155
23.85 0.00154
23.9 0.00097
23.95 0.00016
24 -0.00005
24.05 0.00016
24.1 -0.0002
24.15 -0.00005
24.2 -0.0002
24.25 -0.00043
24.3 -0.00062
24.35 -0.00076
24.4 -0.00044
24.45 -0.00011
24.5 0.00064
24.55 0.00089
24.6 0.00133
24.65 0.00174
24.7 0.00223
24.75 0.00243
24.8 0.00199
24.85 0.00206
24.9 0.00168
24.95 0.0008
25 0.00022
25.05 -0.00052
25.1 -0.0005
25.15 -0.00011
25.2 -0.00012
25.25 0.00014
25.3 -0.0002
25.35 -0.00073
25.4 -0.00111
25.45 -0.00119
25.5 -0.00162
25.55 -0.00225
25.6 -0.00278
25.65 -0.00301
25.7 -0.00287
25.75 -0.00236
25.8 -0.0019
25.85 -0.00134
25.9 -0.00122
25.95 -0.00053
26 -0.00042
26.05 -0.00028
26.1 -0.00057
26.15 -0.00027
26.2 0.00023
26.25 0.00089
26.3 0.00102
26.35 0.00158
26.4 0.00132
26.45 0.00097
26.5 0.00072
26.55 0.0008
26.6 0.00041
26.65 0.00055
26.7 0.00014
26.75 0.00012
26.8 0.00005
26.85 0.00007
26.9 0.00024
26.95 0.00025
27 0.00026
27.05 0.00019
27.1 0.00041
27.15 0.0008
27.2 0.00054
27.25 0.00024
27.3 0.00013
27.35 0.00015
27.4 0.0002
27.45 0.00039
27.5 0.00075
27.55 0.00047
27.6 0.00052
27.65 0.00093
27.7 0.00093
27.75 0.00071
27.8 0.00072
27.85 0.00057
27.9 0.00064
27.95 0.00053
28 0.00042
28.05 0.00018
28.1 0.0003
28.15 0.00005
28.2 -0.00029
28.25 -0.00058
28.3 -0.00077
28.35 -0.00133
28.4 -0.0017
28.45 -0.00135
28.5 -0.00061
28.55 0.00023
28.6 0.00064
28.65 0.00134
28.7 0.00189
28.75 0.00178
28.8 0.00201
28.85 0.00157
28.9 0.00144
28.95 0.0013
29 0.00071
29.05 -0.0002
29.1 -0.00045
29.15 -0.00093
29.2 -0.0014
29.25 -0.00201
29.3 -0.00232
29.35 -0.00206
29.4 -0.00143
29.45 -0.00139
29.5 -0.00138
29.55 -0.00176
29.6 -0.00137
29.65 -0.00145
29.7 -0.0012
29.75 -0.00057
29.8 0.00036
29.85 0.00147
29.9 0.00214
29.95 0.00241
30 0.00276
30.05 0.003
30.1 0.00282
30.15 0.00248
30.2 0.00214
30.25 0.00174
30.3 0.00086
30.35 -0.00021
30.4 -0.00039
30.45 -0.0005
30.5 -0.00054
30.55 -0.00086
30.6 -0.00109
30.65 -0.00081
30.7 -0.00107
30.75 -0.00063
30.8 -0.00061
30.85 -0.00096
30.9 -0.00125
30.95 -0.00169
31 -0.00231
31.05 -0.00286
31.1 -0.00341
31.15 -0.00294
31.2 -0.00226
31.25 -0.00171
31.3 -0.001
31.35 -0.00093
31.4 -0.0005
31.45 0.00012
31.5 0.00061
31.55 0.00067
31.6 0.00089
31.65 0.00144
31.7 0.0019
31.75 0.00172
31.8 0.00109
31.85 0.00014
31.9 -0.00023
31.95 -0.00004
32 0.00036
32.05 0.00107
32.1 0.0012
32.15 0.00099
32.2 0.00055
32.25 0.00072
32.3 0.00108
32.35 0.00114
32.4 0.00124
32.45 0.00072
32.5 0.00066
32.55 0.00025
32.6 -0.00037
32.65 -0.00093
32.7 -0.00079
32.75 -0.00022
32.8 0.00055
32.85 0.00076
32.9 0.0003
32.95 -0.00005
33 -0.00027
33.05 0.00005
33.1 0.00002
33.15 -0.00014
33.2 -0.00041
33.25 -0.00057
33.3 -0.00109
33.35 -0.00104
33.4 -0.00044
33.45 -0.00033
33.5 -0.00017
33.55 -0.00053
33.6 -0.00125
33.65 -0.0019
33.7 -0.00251
33.75 -0.00251
33.8 -0.00181
33.85 -0.00134
33.9 -0.00092
33.95 -0.00027
34 0.00006
34.05 0.00064
34.1 0.00142
34.15 0.00173
34.2 0.00131
34.25 0.00144
34.3 0.0018
34.35 0.00238
34.4 0.00246
34.45 0.00191
34.5 0.00134
34.55 0.00065
34.6 0.00033
34.65 -0.00032
34.7 -0.00075
34.75 -0.001
34.8 -0.0013
34.85 -0.00106
34.9 -0.00117
34.95 -0.00091
35 -0.00027
35.05 0.00018
35.1 0.00093
35.15 0.0009
35.2 0.0007
35.25 0.00067
35.3 0.00047
35.35 0.00083
35.4 0.00082
35.45 0.00023
35.5 -0.0001
35.55 -0.00067
35.6 -0.00124
35.65 -0.00175
35.7 -0.00219
35.75 -0.00245
35.8 -0.00217
35.85 -0.002
35.9 -0.00181
35.95 -0.00184
36 -0.0022
36.05 -0.00193
36.1 -0.00116
36.15 -0.00011
36.2 0.00105
36.25 0.0016
36.3 0.00153
36.35 0.0019
36.4 0.00177
36.45 0.00145
36.5 0.00126
36.55 0.00107
36.6 0.00084
36.65 0.0011
36.7 0.00133
36.75 0.00189
36.8 0.00262
36.85 0.00292
36.9 0.00272
36.95 0.00218
37 0.00133
37.05 0.00037
37.1 -0.00026
37.15 -0.00104
37.2 -0.00129
37.25 -0.00156
37.3 -0.00197
37.35 -0.00221
37.4 -0.00202
37.45 -0.00163
37.5 -0.00111
37.55 -0.00024
37.6 0.00022
37.65 0.00043
37.7 0.00093
37.75 0.00153
37.8 0.00191
37.85 0.00248
37.9 0.00298
37.95 0.00295
38 0.00254
38.05 0.00234
38.1 0.00236
38.15 0.00206
38.2 0.00197
38.25 0.00196
38.3 0.00201
38.35 0.00182
38.4 0.00165
38.45 0.00187
38.5 0.00227
38.55 0.00226
38.6 0.00167
38.65 0.00074
38.7 -0.00012
38.75 -0.00042
38.8 -0.0008
38.85 -0.00102
38.9 -0.00144
38.95 -0.00188
39 -0.00236
39.05 -0.00269
39.1 -0.00223
39.15 -0.00188
39.2 -0.00191
39.25 -0.00219
39.3 -0.00249
39.35 -0.00231
39.4 -0.00219
39.45 -0.00215
39.5 -0.00209
39.55 -0.00185
39.6 -0.00218
39.65 -0.00273
39.7 -0.00374
39.75 -0.005
39.8 -0.00632
39.85 -0.00775
39.9 -0.00966
39.95 -0.01145
40 -0.01298
40.05 -0.01465
40.1 -0.0164
40.15 -0.01834
40.2 -0.02122
40.25 -0.0241
40.3 -0.02806
40.35 -0.03235
40.4 -0.03715
40.45 -0.04221
40.5 -0.0475
40.55 -0.05366
40.6 -0.06087
40.65 -0.06937
40.7 -0.07876
40.75 -0.08899
40.8 -0.09936
40.85 -0.1102
40.9 -0.12104
40.95 -0.13265
41 -0.14419
41.05 -0.156
41.1 -0.16848
41.15 -0.18098
41.2 -0.19397
41.25 -0.20688
41.3 -0.21959
41.35 -0.23165
41.4 -0.24303
41.45 -0.25366
41.5 -0.26394
41.55 -0.27354
41.6 -0.28265
41.65 -0.29016
41.7 -0.29605
41.75 -0.30111
41.8 -0.30489
41.85 -0.30683
41.9 -0.30644
41.95 -0.30437
42 -0.30066
42.05 -0.29486
42.1 -0.28757
42.15 -0.2781
42.2 -0.26668
42.25 -0.25404
42.3 -0.24003
42.35 -0.22474
42.4 -0.20816
42.45 -0.19065
42.5 -0.1723
42.55 -0.15285
42.6 -0.13286
42.65 -0.11236
42.7 -0.09194
42.75 -0.07213
42.8 -0.05174
42.85 -0.03188
42.9 -0.0121
42.95 0.00713
43 0.02587
43.05 0.04446
43.1 0.0622
43.15 0.08002
43.2 0.09742
43.25 0.11388
43.3 0.12999
43.35 0.14467
43.4 0.15881
43.45 0.17234
43.5 0.18478
43.55 0.19612
43.6 0.20705
43.65 0.21754
43.7 0.22725
43.75 0.23636
43.8 0.24468
43.85 0.2523
43.9 0.25949
43.95 0.26617
44 0.2716
44.05 0.27577
44.1 0.27902
44.15 0.28182
44.2 0.28369
44.25 0.2854
44.3 0.28601
44.35 0.286
44.4 0.28546
44.45 0.28455
44.5 0.2836
44.55 0.28202
44.6 0.27917
44.65 0.27573
44.7 0.27128
44.75 0.26655
44.8 0.26158
44.85 0.25596
44.9 0.24993
44.95 0.24434
45 0.23854
45.05 0.23274
45.1 0.22707
45.15 0.22132
45.2 0.21445
45.25 0.20703
45.3 0.19977
45.35 0.19248
45.4 0.18488
45.45 0.17792
45.5 0.17144
45.55 0.16449
45.6 0.15792
45.65 0.15153
45.7 0.14566
45.75 0.13968
45.8 0.13388
45.85 0.12781
45.9 0.12209
45.95 0.11657
46 0.11136
46.05 0.10647
46.1 0.10121
46.15 0.0956
46.2 0.08971
46.25 0.08422
46.3 0.07913
46.35 0.07402
46.4 0.06941
46.45 0.0652
46.5 0.06086
46.55 0.0571
46.6 0.05284
46.65 0.04875
46.7 0.04463
46.75 0.04077
46.8 0.0367
46.85 0.03265
46.9 0.02938
46.95 0.02593
47 0.02239
47.05 0.01903
47.1 0.01606
47.15 0.01318
47.2 0.00998
47.25 0.00663
47.3 0.00399
47.35 0.00158
47.4 -0.00074
47.45 -0.00303
47.5 -0.00516
47.55 -0.00795
47.6 -0.01018
47.65 -0.01208
47.7 -0.0139
47.75 -0.01628
47.8 -0.01827
47.85 -0.02005
47.9 -0.02155
47.95 -0.02301
48 -0.02519
48.05 -0.02721
48.1 -0.02941
48.15 -0.03175
48.2 -0.03394
48.25 -0.03604
48.3 -0.03775
48.35 -0.0387
48.4 -0.04007
48.45 -0.04085
48.5 -0.04185
48.55 -0.0426
48.6 -0.04328
48.65 -0.04349
48.7 -0.04414
48.75 -0.0449
48.8 -0.04555
48.85 -0.04613
48.9 -0.0467
48.95 -0.04683
49 -0.04628
49.05 -0.04527
49.1 -0.04414
49.15 -0.04302
49.2 -0.04257
49.25 -0.04228
49.3 -0.04221
49.35 -0.04182
49.4 -0.04151
49.45 -0.04135
49.5 -0.04152
49.55 -0.04157
49.6 -0.04146
49.65 -0.04138
49.7 -0.04134
49.75 -0.04079
49.8 -0.04013
49.85 -0.03937
49.9 -0.03866
49.95 -0.03783
50 -0.03702
50.05 -0.03623
50.1 -0.03622
50.15 -0.03652
50.2 -0.03607
50.25 -0.036
50.3 -0.03562
50.35 -0.03551
50.4 -0.03551
50.45 -0.0348
50.5 -0.03377
50.55 -0.03286
50.6 -0.03161
50.65 -0.03088
50.7 -0.0304
50.75 -0.02992
50.8 -0.0301
50.85 -0.02992
50.9 -0.02987
50.95 -0.02978
51 -0.02962
51.05 -0.02889
51.1 -0.02863
51.15 -0.02863
51.2 -0.02885
51.25 -0.02877
51.3 -0.0285
51.35 -0.02812
51.4 -0.02781
51.45 -0.02764
51.5 -0.02753
51.55 -0.02664
51.6 -0.02612
51.65 -0.02499
51.7 -0.02403
51.75 -0.02341
51.8 -0.02308
51.85 -0.02218
51.9 -0.02096
51.95 -0.01978
52 -0.01915
52.05 -0.01852
52.1 -0.01859
52.15 -0.01827
52.2 -0.01829
52.25 -0.01838
52.3 -0.01876
52.35 -0.01937
52.4 -0.01952
52.45 -0.01964
52.5 -0.0194
52.55 -0.0188
52.6 -0.01778
52.65 -0.01744
52.7 -0.01733
52.75 -0.01691
52.8 -0.0166
52.85 -0.01641
52.9 -0.01573
52.95 -0.01542
53 -0.01565
53.05 -0.01557
53.1 -0.01532
53.15 -0.01459
53.2 -0.01433
53.25 -0.01407
53.3 -0.0137
53.35 -0.01346
53.4 -0.01301
53.45 -0.01267
53.5 -0.01288
53.55 -0.01348
53.6 -0.01384
53.65 -0.01436
53.7 -0.0146
53.75 -0.01476
53.8 -0.0141
53.85 -0.01363
53.9 -0.01291
53.95 -0.01197
54 -0.01139
54.05 -0.01041
54.1 -0.00946
54.15 -0.00941
54.2 -0.00964
54.25 -0.00929
54.3 -0.00962
54.35 -0.00965
54.4 -0.00921
54.45 -0.00912
54.5 -0.00919
54.55 -0.00889
54.6 -0.00921
54.65 -0.00923
54.7 -0.00872
54.75 -0.00791
54.8 -0.00791
54.85 -0.0084
54.9 -0.00852
54.95 -0.00849
55 -0.00878
55.05 -0.00877
55.1 -0.00825
55.15 -0.00828
55.2 -0.0077
55.25 -0.00676
55.3 -0.00635
55.35 -0.0056
55.4 -0.0049
55.45 -0.00448
55.5 -0.0046
55.55 -0.00536
55.6 -0.00586
55.65 -0.00635
55.7 -0.00654
55.75 -0.00645
55.8 -0.00587
55.85 -0.00518
55.9 -0.00438
55.95 -0.00445
56 -0.00455
56.05 -0.00519
56.1 -0.00565
56.15 -0.00543
56.2 -0.0055
56.25 -0.00512
56.3 -0.00517
56.35 -0.00559
56.4 -0.00588
56.45 -0.00567
56.5 -0.00582
56.55 -0.00539
56.6 -0.00469
56.65 -0.00458
56.7 -0.00451
56.75 -0.00399
56.8 -0.00356
56.85 -0.00359
56.9 -0.00331
56.95 -0.0029
57 -0.00282
57.05 -0.00294
57.1 -0.00271
57.15 -0.00283
57.2 -0.00311
57.25 -0.00365
57.3 -0.00381
57.35 -0.00374
57.4 -0.00374
57.45 -0.00422
57.5 -0.00499
57.55 -0.00516
57.6 -0.0049
57.65 -0.00517
57.7 -0.00559
57.75 -0.00563
57.8 -0.00569
57.85 -0.00534
57.9 -0.00458
57.95 -0.00362
58 -0.00253
58.05 -0.00219
58.1 -0.00179
58.15 -0.00136
58.2 -0.00163
58.25 -0.00221
58.3 -0.00318
58.35 -0.00333
58.4 -0.00287
58.45 -0.00214
58.5 -0.00172
58.55 -0.00119
58.6 -0.00078
58.65 -0.00065
58.7 -0.00069
58.75 -0.00132
58.8 -0.00166
58.85 -0.00208
58.9 -0.00196
58.95 -0.0017
59 -0.00155
59.05 -0.00163
59.1 -0.00212
59.15 -0.00281
59.2 -0.00291
59.25 -0.00245
59.3 -0.00269
59.35 -0.00281
59.4 -0.00236
59.45 -0.00177
59.5 -0.00111
59.55 -0.0009
59.6 -0.00076
59.65 -0.00062
59.7 -0.00068
59.75 -0.00075
59.8 -0.00047
59.85 0.00007
59.9 -0.00011
59.95 -0.00024
60 -0.00006
60.05 -0.00031
60.1 -0.00016
60.15 -0.00066
60.2 -0.00095
60.25 -0.00104
60.3 -0.00166
60.35 -0.00163
60.4 -0.00203
60.45 -0.00254
60.5 -0.00287
60.55 -0.00312
60.6 -0.00332
60.65 -0.00382
60.7 -0.00427
60.75 -0.00402
60.8 -0.00412
60.85 -0.00414
60.9 -0.00436
60.95 -0.00464
61 -0.00449
61.05 -0.00411
61.1 -0.00319
61.15 -0.00194
61.2 -0.00101
61.25 -0.00046
61.3 -0.00046
61.35 -0.00092
61.4 -0.00089
61.45 -0.00133
61.5 -0.00117
61.55 -0.00108
61.6 -0.00125
61.65 -0.00132
61.7 -0.00092
61.75 -0.00094
61.8 -0.00048
61.85 -0.00012
61.9 -0.00021
61.95 -0.00064
62 -0.0006
62.05 -0.00072
62.1 -0.00045
62.15 -0.00026
62.2 -0.00047
62.25 -0.00106
62.3 -0.00169
62.35 -0.00225
62.4 -0.00273
62.45 -0.00268
62.5 -0.00201
62.55 -0.00168
62.6 -0.00126
62.65 -0.0013
62.7 -0.00098
62.75 -0.00028
62.8 0.00007
62.85 -0.00012
62.9 0.00003
62.95 -0.00007
63 -0.00038
63.05 -0.00026
63.1 -0.00045
63.15 -0.00016
63.2 0.00043
63.25 0.00017
63.3 -0.00056
63.35 -0.00125
63.4 -0.00166
63.45 -0.00152
63.5 -0.00094
63.55 -0.0009
63.6 -0.0004
63.65 -0.00019
63.7 -0.00006
63.75 -0.00037
63.8 -0.00061
63.85 -0.00056
63.9 -0.00072
63.95 -0.00137
64 -0.00141
64.05 -0.00158
64.1 -0.00159
64.15 -0.00202
64.2 -0.00163
64.25 -0.00125
64.3 -0.00128
64.35 -0.00075
64.4 -0.00074
64.45 -0.00124
64.5 -0.00161
64.55 -0.00125
64.6 -0.0012
64.65 -0.00141
64.7 -0.0012
64.75 -0.00138
64.8 -0.00138
64.85 -0.00171
64.9 -0.00163
64.95 -0.00108
65 -0.00019
65.05 0.00069
65.1 0.00105
65.15 0.00109
65.2 0.00087
65.25 0.0002
65.3 -0.0006
65.35 -0.0014
65.4 -0.00198
65.45 -0.00206
65.5 -0.00151
65.55 -0.00145
65.6 -0.0013
65.65 -0.00146
65.7 -0.00105
65.75 -0.00113
65.8 -0.00138
65.85 -0.00112
65.9 -0.00073
65.95 -0.0009
66 -0.00138
66.05 -0.00144
66.1 -0.00143
66.15 -0.0011
66.2 -0.00081
66.25 -0.00106
66.3 -0.00118
66.35 -0.00132
66.4 -0.00161
66.45 -0.00158
66.5 -0.00117
66.55 -0.00079
66.6 0
66.65 0.00072
66.7 0.00091
66.75 0.00131
66.8 0.00146
66.85 0.00175
66.9 0.00126
66.95 0.00116
67 0.00099
67.05 0.00132
67.1 0.00128
67.15 0.00122
67.2 0.00146
67.25 0.0012
67.3 0.00124
67.35 0.00097
67.4 0.00054
67.45 0.00028
67.5 -0.00017
67.55 -0.00079
67.6 -0.00143
67.65 -0.00206
67.7 -0.0022
67.75 -0.00219
67.8 -0.00158
67.85 -0.00111
67.9 -0.00032
67.95 0.00049
68 0.00043
68.05 0.00016
68.1 -0.00022
68.15 -0.00046
68.2 -0.00074
68.25 -0.00058
68.3 -0.00023
68.35 -0.00003
68.4 0.00059
68.45 0.0004
68.5 0.00014
68.55 0.00024
68.6 0.00038
68.65 0.00034
68.7 0.00063
68.75 0.00077
68.8 0.0003
68.85 0.00023
68.9 0.00043
68.95 0.00059
69 0.00082
69.05 0.00066
69.1 -0.00004
69.15 -0.00022
69.2 0.00007
69.25 0.00034
69.3 0.00098
69.35 0.00092
69.4 0.00086
69.45 0.00063
69.5 -0.0001
69.55 -0.00093
69.6 -0.001
69.65 -0.00085
69.7 -0.00112
69.75 -0.00119
69.8 -0.00093
69.85 -0.00066
69.9 -0.0001
69.95 -0.00018
70 0.00019
70.05 0.00021
70.1 0.00063
70.15 0.00061
70.2 0.00009
70.25 -0.00068
70.3 -0.00156
70.35 -0.00171
70.4 -0.00171
70.45 -0.0021
70.5 -0.00264
70.55 -0.00281
70.6 -0.0022
70.65 -0.00119
70.7 -0.00015
70.75 0.00064
70.8 0.00103
70.85 0.00159
70.9 0.00212
70.95 0.00203
71 0.00162
71.05 0.00156
71.1 0.00098
71.15 0.00071
71.2 0.00062
71.25 0.00032
71.3 -0.00025
71.35 -0.00112
71.4 -0.00202
71.45 -0.00191
71.5 -0.00197
71.55 -0.0018
71.6 -0.00165
71.65 -0.00139
71.7 -0.0014
71.75 -0.00083
71.8 -0.00057
71.85 -0.00009
71.9 -0.00026
71.95 0.0002
72 0.00055
72.05 0.00053
72.1 0.00041
72.15 -0.00023
72.2 -0.00025
72.25 -0.00022
72.3 -0.00046
72.35 -0.00079
72.4 -0.00105
72.45 -0.00151
72.5 -0.00127
72.55 -0.00128
72.6 -0.00127
72.65 -0.00126
72.7 -0.00101
72.75 -0.00055
72.8 -0.00014
72.85 0.00013
72.9 -0.00001
72.95 -0.00017
73 -0.00061
73.05 -0.00035
73.1 0.00035
73.15 0.00085
73.2 0.0008
73.25 0.00124
73.3 0.00162
73.35 0.00201
73.4 0.00254
73.45 0.00294
73.5 0.00264
73.55 0.00211
73.6 0.00187
73.65 0.00118
73.7 0.00067
73.75 0.00058
73.8 0.00045
73.85 0.00048
73.9 0.00057
73.95 0.00038
74 0.00042
74.05 0.00029
74.1 0.00066
74.15 0.00066
74.2 0.00049
74.25 0.00031
74.3 -0.00014
74.35 -0.00081
74.4 -0.00084
74.45 -0.00125
74.5 -0.00125
74.55 -0.00072
74.6 -0.00055
74.65 0.00005
74.7 0.00084
74.75 0.00172
74.8 0.00225
74.85 0.00211
74.9 0.00222
74.95 0.00244
75 0.00208
75.05 0.00211
75.1 0.00184
75.15 0.00153
75.2 0.00139
75.25 0.00124
75.3 0.00051
75.35 -0.00055
75.4 -0.00122
75.45 -0.00152
75.5 -0.00135
75.55 -0.00171
75.6 -0.00207
75.65 -0.00163
75.7 -0.00101
75.75 -0.00014
75.8 0.00041
75.85 0.00042
75.9 0.00035
75.95 -0.00025
76 -0.00073
76.05 -0.00129
76.1 -0.0016
76.15 -0.00197
76.2 -0.00226
76.25 -0.00275
76.3 -0.00265
76.35 -0.00222
76.4 -0.00156
76.45 -0.00054
76.5 0.00016
76.55 0.00107
76.6 0.00146
76.65 0.00123
76.7 0.00147
76.75 0.0015
76.8 0.00173
76.85 0.0012
76.9 0.00108
76.95 0.00068
77 -0.00016
77.05 -0.00043
77.1 -0.00058
77.15 -0.00091
77.2 -0.00066
77.25 -0.00002
77.3 0.00031
77.35 0.00034
77.4 -0.00022
77.45 -0.00105
77.5 -0.00174
77.55 -0.00248
77.6 -0.00291
77.65 -0.0031
77.7 -0.00266
77.75 -0.00171
77.8 -0.00141
77.85 -0.00135
77.9 -0.0011
77.95 -0.00072
78 -0.00027
78.05 0.00051
78.1 0.00111
78.15 0.00145
78.2 0.00134
78.25 0.00116
78.3 0.00137
78.35 0.00109
78.4 0.00135
78.45 0.001
78.5 0.0005
78.55 -0.00019
78.6 -0.00094
78.65 -0.00084
78.7 -0.00082
78.75 -0.00039
78.8 -0.00047
78.85 -0.00028
78.9 0.00008
78.95 0.00002
79 0.0004
79.05 0.00028
79.1 0.00058
79.15 0.00109
79.2 0.00177
79.25 0.00246
79.3 0.00223
79.35 0.00201
79.4 0.00189
79.45 0.00199
79.5 0.00214
79.55 0.00187
79.6 0.00155
79.65 0.00139
79.7 0.00153
79.75 0.00194
79.8 0.00237
79.85 0.0023
79.9 0.002
79.95 0.00113
80 0.00055
80.05 -0.00045
80.1 -0.00118
80.15 -0.00177
80.2 -0.00169
80.25 -0.00189
80.3 -0.00205
80.35 -0.00172
80.4 -0.001
80.45 -0.00065
80.5 -0.00049
80.55 -0.00032
80.6 0.0003
80.65 0.00085
80.7 0.0006
80.75 0.00068
80.8 0.00052
80.85 0.00082
80.9 0.00093
80.95 0.00119
81 0.0013
81.05 0.00174
81.1 0.00212
81.15 0.00162
81.2 0.00091
81.25 0.00072
81.3 0.00013
81.35 0.00002
81.4 0.00011
81.45 -0.0001
81.5 -0.00075
81.55 -0.00084
81.6 -0.00061
81.65 -0.00034
81.7 -0.00055
81.75 -0.00049
81.8 -0.00077
81.85 -0.00047
81.9 0.00021
81.95 0.00006
82 0.00002
82.05 0.00017
82.1 -0.00027
82.15 -0.00088
82.2 -0.00071
82.25 -0.00048
82.3 -0.00036
82.35 0.00014
82.4 0.00075
82.45 0.00111
82.5 0.00112
82.55 0.00101
82.6 0.00049
82.65 -0.00043
82.7 -0.00131
82.75 -0.00142
82.8 -0.00109
82.85 -0.00113
82.9 -0.00089
82.95 -0.00038
83 -0.00055
83.05 -0.00078
83.1 -0.00132
83.15 -0.00151
83.2 -0.00127
83.25 -0.00099
83.3 -0.00115
83.35 -0.00164
83.4 -0.00202
83.45 -0.00261
83.5 -0.00262
83.55 -0.00253
83.6 -0.00239
83.65 -0.00183
83.7 -0.00162
83.75 -0.00168
83.8 -0.00204
83.85 -0.00237
83.9 -0.00242
83.95 -0.00234
84 -0.00234
84.05 -0.00175
84.1 -0.00151
84.15 -0.00092
84.2 -0.00019
84.25 0.00028
84.3 0.00097
84.35 0.00141
84.4 0.00141
84.45 0.00163
84.5 0.0021
84.55 0.00238
84.6 0.00258
84.65 0.00262
84.7 0.00241
84.75 0.00195
84.8 0.00196
84.85 0.00223
84.9 0.00258
84.95 0.00304
85 0.00286
85.05 0.00233
85.1 0.00173
85.15 0.0015
85.2 0.00167
85.25 0.00175
85.3 0.00148
85.35 0.00084
85.4 0.00039
85.45 -0.00044
85.5 -0.00062
85.55 -0.00045
85.6 -0.00085
85.65 -0.00087
85.7 -0.0009
85.75 -0.00061
85.8 -0.00081
85.85 -0.00086
85.9 -0.0006
85.95 -0.00068
86 -0.00087
86.05 -0.00127
86.1 -0.00192
86.15 -0.00253
86.2 -0.00276
86.25 -0.00313
86.3 -0.0026
86.35 -0.00186
86.4 -0.00114
86.45 -0.00062
86.5 -0.0003
86.55 -0.00025
86.6 -0.00073
86.65 -0.00058
86.7 -0.00008
86.75 0.00024
86.8 0.00081
86.85 0.00097
86.9 0.00132
86.95 0.00139
87 0.00167
87.05 0.00157
87.1 0.00085
87.15 0.00064
87.2 0.00035
87.25 0.00003
87.3 -0.00066
87.35 -0.00108
87.4 -0.00143
87.45 -0.00119
87.5 -0.0008
87.55 -0.0006
87.6 -0.00071
87.65 -0.00095
87.7 -0.0009
87.75 -0.0013
87.8 -0.00129
87.85 -0.00122
87.9 -0.00147
87.95 -0.00185
88 -0.00223
88.05 -0.00257
88.1 -0.00239
88.15 -0.00229
88.2 -0.0016
88.25 -0.00145
88.3 -0.00103
88.35 -0.00014
88.4 0.0002
88.45 0.00026
88.5 -0.00018
88.55 -0.00013
88.6 0.00007
88.65 0.0004
88.7 0.00078
88.75 0.00086
88.8 0.0009
88.85 0.00034
88.9 -0.00045
88.95 -0.00061
89 -0.00018
89.05 0.00003
89.1 0.00067
89.15 0.0007
89.2 0.0009
89.25 0.0005
89.3 0.0001
89.35 -0.00058
89.4 -0.00149
89.45 -0.0016
89.5 -0.0018
89.55 -0.00228
89.6 -0.00288
89.65 -0.00353
89.7 -0.00314
89.75 -0.00292
89.8 -0.00273
89.85 -0.00221
89.9 -0.00133
89.95 -0.00033
90 0.00037
90.05 0.00106
90.1 0.00112
90.15 0.00157
90.2 0.00172
90.25 0.00209
90.3 0.0018
90.35 0.00101
90.4 0.00036
90.45 -0.00015
90.5 -0.00056
90.55 -0.00089
90.6 -0.00067
90.65 -0.00001
90.7 0.00051
90.75 0.00035
90.8 -0.00021
90.85 -0.00021
90.9 -0.00014
90.95 0.0001
91 0.00053
91.05 0.00089
91.1 0.00133
91.15 0.00104
91.2 0.00102
91.25 0.00083
91.3 0.00019
91.35 -0.00001
91.4 0.00009
91.45 -0.00033
91.5 -0.0006
91.55 -0.00052
91.6 -0.00065
91.65 -0.00104
91.7 -0.00087
91.75 -0.00097
91.8 -0.00109
91.85 -0.0015
91.9 -0.00163
91.95 -0.00105
92 -0.00073
92.05 0.00005
92.1 0.0008
92.15 0.00098
92.2 0.00075
92.25 0.00011
92.3 -0.00073
92.35 -0.00122
92.4 -0.00189
92.45 -0.00237
92.5 -0.00195
92.55 -0.00153
92.6 -0.00065
92.65 -0.00044
92.7 -0.00011
92.75 0.00027
92.8 0.0004
92.85 -0.00005
92.9 -0.00012
92.95 0
93 0.00008
93.05 0.00063
93.1 0.00066
93.15 0.00024
93.2 0.00049
93.25 0.00103
93.3 0.0016
93.35 0.00165
93.4 0.00187
93.45 0.00193
93.5 0.00193
93.55 0.00148
93.6 0.00122
93.65 0.0008
93.7 0.00006
93.75 -0.00045
93.8 -0.00109
93.85 -0.00142
93.9 -0.00169
93.95 -0.00222
94 -0.0023
94.05 -0.00193
94.1 -0.00098
94.15 -0.00046
94.2 -0.00057
94.25 -0.00028
94.3 -0.00028
94.35 -0.00053
94.4 -0.00017
94.45 0.00049
94.5 0.00064
94.55 0.0005
94.6 0.00066
94.65 0.00056
94.7 0.00007
94.75 0.00021
94.8 -0.00006
94.85 0.00021
94.9 0.00071
94.95 0.00076
95 0.00121
95.05 0.00163
95.1 0.00199
95.15 0.00185
95.2 0.00141
95.25 0.00112
95.3 0.00077
95.35 0.0008
95.4 0.00095
95.45 0.00091
95.5 0.00038
95.55 0.00022
95.6 0.00065
95.65 0.00066
95.7 0.00034
95.75 0.00039
95.8 0.00071
95.85 0.00044
95.9 0.00038
95.95 0.00059
96 0.00052
96.05 -0.00003
96.1 -0.00033
96.15 -0.00093
96.2 -0.00114
96.25 -0.00146
96.3 -0.00104
96.35 -0.0011
96.4 -0.00108
96.45 -0.00094
96.5 -0.00053
96.55 -0.0007
96.6 -0.00117
96.65 -0.00119
96.7 -0.00065
96.75 0.00017
96.8 0.00052
96.85 0.00066
96.9 0.00033
96.95 -0.00039
97 -0.00038
97.05 -0.00045
97.1 -0.00088
97.15 -0.0011
97.2 -0.00091
97.25 -0.00048
97.3 0.0001
97.35 0.00091
97.4 0.00114
97.45 0.00151
97.5 0.00142
97.55 0.00166
97.6 0.00188
97.65 0.00229
97.7 0.00249
97.75 0.00201
97.8 0.00137
97.85 0.00084
97.9 0.00091
97.95 0.00062
98 0.00046
98.05 -0.00005
98.1 -0.0005
98.15 -0.00042
98.2 -0.00032
98.25 0.00011
98.3 0.0001
98.35 0.00031
98.4 -0.00007
98.45 0.00011
98.5 0.00026
98.55 0.00027
98.6 0.00062
98.65 0.00041
98.7 -0.00003
98.75 -0.00083
98.8 -0.00117
98.85 -0.00179
98.9 -0.00222
98.95 -0.00197
99 -0.00185
99.05 -0.00139
99.1 -0.00127
99.15 -0.00105
99.2 -0.0004
99.25 0.00032
99.3 0.00118
99.35 0.00148
99.4 0.0014
99.45 0.0017
99.5 0.00175
99.55 0.00195
99.6 0.00199
99.65 0.00157
99.7 0.00122
99.75 0.00036
99.8 -0.00055
99.85 -0.00071
99.9 -0.00045
99.95 0.00021
