0 0
0.05 0.00629
0.1 0.01672
0.15 0.03031
0.2 0.04348
0.25 0.04891
0.3 0.0544
0.35 0.05866
0.4 0.06203
0.45 0.0603
0.5 0.0607
0.55 0.06022
0.6 0.05918
0.65 0.06185
0.7 0.06064
0.75 0.05793
0.8 0.05414
0.85 0.04643
0.9 0.04286
0.95 0.04246
1 0.03841
1.05 0.03832
1.1 0.04077
1.15 0.03873
1.2 0.03372
1.25 0.02757
1.3 0.02523
1.35 0.02043
1.4 0.02332
1.45 0.0263
1.5 0.02451
1.55 0.02881
1.6 0.03067
1.65 0.03166
1.7 0.03699
1.75 0.04201
1.8 0.0436
1.85 0.04343
1.9 0.03784
1.95 0.03324
2 0.02753
2.05 0.02262
2.1 0.01813
2.15 0.01853
2.2 0.01633
2.25 0.0185
2.3 0.02444
2.35 0.0276
2.4 0.02825
2.45 0.03303
2.5 0.03173
2.55 0.03186
2.6 0.03583
2.65 0.04105
2.7 0.04627
2.75 0.04705
2.8 0.04201
2.85 0.0329
2.9 0.02785
2.95 0.02363
3 0.02547
3.05 0.02364
3.1 0.01901
3.15 0.01801
3.2 0.01853
3.25 0.02271
3.3 0.02146
3.35 0.01944
3.4 0.01394
3.45 0.00827
3.5 0.00616
3.55 0.00481
3.6 0.00307
3.65 0.00302
3.7 0.00727
3.75 0.01481
3.8 0.02109
3.85 0.02031
3.9 0.01891
3.95 0.0209
4 0.0221
4.05 0.01868
4.1 0.01467
4.15 0.01203
4.2 0.00889
4.25 0.00706
4.3 0.00179
4.35 -0.00079
4.4 -0.00308
4.45 -0.00729
4.5 -0.01759
4.55 -0.02579
4.6 -0.03934
4.65 -0.05105
4.7 -0.06265
4.75 -0.07516
4.8 -0.0957
4.85 -0.11858
4.9 -0.14902
4.95 -0.18833
5 -0.23216
5.05 -0.27636
5.1 -0.3303
5.15 -0.3928
5.2 -0.45524
5.25 -0.52233
5.3 -0.59479
5.35 -0.67387
5.4 -0.7549
5.45 -0.84177
5.5 -0.92684
5.55 -1.01253
5.6 -1.10257
5.65 -1.19856
5.7 -1.29546
5.75 -1.3918
5.8 -1.48631
5.85 -1.57374
5.9 -1.65846
5.95 -1.74001
6 -1.81946
6.05 -1.89546
6.1 -1.96691
6.15 -2.02664
6.2 -2.08282
6.25 -2.13508
6.3 -2.17877
6.35 -2.21741
6.4 -2.25593
6.45 -2.28542
6.5 -2.30789
6.55 -2.32303
6.6 -2.33144
6.65 -2.32736
6.7 -2.30662
6.75 -2.27169
6.8 -2.22598
6.85 -2.16515
6.9 -2.09425
6.95 -2.0108
7 -1.91542
7.05 -1.80513
7.1 -1.6828
7.15 -1.53942
7.2 -1.37972
7.25 -1.20623
7.3 -1.02438
7.35 -0.83553
7.4 -0.64007
7.45 -0.43999
7.5 -0.23891
7.55 -0.04724
7.6 0.14101
7.65 0.32601
7.7 0.50957
7.75 0.68871
7.8 0.85804
7.85 1.02013
7.9 1.16726
7.95 1.30204
8 1.43017
8.05 1.54906
8.1 1.65633
8.15 1.75232
8.2 1.83799
8.25 1.91239
8.3 1.97036
8.35 2.01496
8.4 2.05082
8.45 2.07543
8.5 2.08903
8.55 2.10137
8.6 2.11202
8.65 2.1125
8.7 2.11013
8.75 2.10238
8.8 2.09486
8.85 2.08533
8.9 2.07412
8.95 2.06208
9 2.04339
9.05 2.01756
9.1 1.98951
9.15 1.95839
9.2 1.92667
9.25 1.90156
9.3 1.88003
9.35 1.85731
9.4 1.83248
9.45 1.80701
9.5 1.78331
9.55 1.75762
9.6 1.73316
9.65 1.70433
9.7 1.6771
9.75 1.6492
9.8 1.62234
9.85 1.59265
9.9 1.56355
9.95 1.53611
10 1.50753
10.05 1.47257
10.1 1.43569
10.15 1.39627
10.2 1.35997
10.25 1.32331
10.3 1.28577
10.35 1.24491
10.4 1.20103
10.45 1.16187
10.5 1.12414
10.55 1.08288
10.6 1.04487
10.65 1.00217
10.7 0.96473
10.75 0.92603
10.8 0.88358
10.85 0.84186
10.9 0.79873
10.95 0.75744
11 0.71866
11.05 0.67664
11.1 0.63821
11.15 0.59708
11.2 0.55384
11.25 0.50994
11.3 0.46713
11.35 0.4278
11.4 0.39047
11.45 0.35072
11.5 0.31744
11.55 0.2847
11.6 0.25065
11.65 0.21481
11.7 0.18111
11.75 0.15385
11.8 0.12377
11.85 0.09313
11.9 0.06772
11.95 0.0427
12 0.01963
12.05 0.00001
12.1 -0.02375
12.15 -0.04948
12.2 -0.07367
12.25 -0.09759
12.3 -0.12324
12.35 -0.14328
12.4 -0.16637
12.45 -0.18393
12.5 -0.19784
12.55 -0.21017
12.6 -0.2267
12.65 -0.2456
12.7 -0.25938
12.75 -0.27417
12.8 -0.2846
12.85 -0.2963
12.9 -0.30847
12.95 -0.31874
13 -0.32255
13.05 -0.32178
13.1 -0.32012
13.15 -0.3172
13.2 -0.31326
13.25 -0.31353
13.3 -0.3165
13.35 -0.31733
13.4 -0.32483
13.45 -0.33413
13.5 -0.34134
13.55 -0.35063
13.6 -0.35363
13.65 -0.35961
13.7 -0.36397
13.75 -0.36221
13.8 -0.35604
13.85 -0.35083
13.9 -0.34951
13.95 -0.34928
14 -0.34868
14.05 -0.34756
14.1 -0.34471
14.15 -0.3436
14.2 -0.33968
14.25 -0.33729
14.3 -0.33402
14.35 -0.33471
14.4 -0.33334
14.45 -0.32986
14.5 -0.32355
14.55 -0.32053
14.6 -0.31627
14.65 -0.31262
14.7 -0.3046
14.75 -0.29338
14.8 -0.28701
14.85 -0.28521
14.9 -0.28123
14.95 -0.27463
15 -0.26629
15.05 -0.26488
15.1 -0.26573
15.15 -0.26739
15.2 -0.26705
15.25 -0.26584
15.3 -0.2635
15.35 -0.26174
15.4 -0.26196
15.45 -0.25483
15.5 -0.24614
15.55 -0.23661
15.6 -0.2327
15.65 -0.23325
15.7 -0.236
15.75 -0.23945
15.8 -0.23455
15.85 -0.22662
15.9 -0.22288
15.95 -0.21761
16 -0.21279
16.05 -0.20553
16.1 -0.20244
16.15 -0.19598
16.2 -0.19393
16.25 -0.19439
16.3 -0.19114
16.35 -0.18952
16.4 -0.18389
16.45 -0.17453
16.5 -0.1672
16.55 -0.16641
16.6 -0.16367
16.65 -0.16179
16.7 -0.15639
16.75 -0.14966
16.8 -0.14755
16.85 -0.14906
16.9 -0.14906
16.95 -0.14912
17 -0.1439
17.05 -0.13635
17.1 -0.13465
17.15 -0.13429
17.2 -0.13002
17.25 -0.12443
17.3 -0.11807
17.35 -0.1127
17.4 -0.11214
17.45 -0.11305
17.5 -0.11096
17.55 -0.1066
17.6 -0.10055
17.65 -0.09971
17.7 -0.0983
17.75 -0.09964
17.8 -0.10296
17.85 -0.10851
17.9 -0.11083
17.95 -0.11624
18 -0.12085
18.05 -0.1256
18.1 -0.12936
18.15 -0.12509
18.2 -0.12466
18.25 -0.11946
18.3 -0.1146
18.35 -0.11019
18.4 -0.1039
18.45 -0.09902
18.5 -0.09817
18.55 -0.09985
18.6 -0.09621
18.65 -0.08931
18.7 -0.08543
18.75 -0.08599
18.8 -0.0866
18.85 -0.08298
18.9 -0.08059
18.95 -0.07711
19 -0.07576
19.05 -0.07922
19.1 -0.08331
19.15 -0.08384
19.2 -0.08624
19.25 -0.08537
19.3 -0.08701
19.35 -0.08185
19.4 -0.0785
19.45 -0.07808
19.5 -0.07227
19.55 -0.07071
19.6 -0.07188
19.65 -0.06728
19.7 -0.06493
19.75 -0.06363
19.8 -0.05817
19.85 -0.05634
19.9 -0.0558
19.95 -0.05284
20 -0.05461
20.05 -0.05267
20.1 -0.04904
20.15 -0.04335
20.2 -0.0436
20.25 -0.04439
20.3 -0.04998
20.35 -0.05252
20.4 -0.05684
20.45 -0.06032
20.5 -0.06425
20.55 -0.06638
20.6 -0.06145
20.65 -0.05723
20.7 -0.04993
20.75 -0.0462
20.8 -0.04521
20.85 -0.04133
20.9 -0.03637
20.95 -0.03374
21 -0.03584
21.05 -0.03549
21.1 -0.03858
21.15 -0.03885
21.2 -0.03941
21.25 -0.03838
21.3 -0.03434
21.35 -0.03146
21.4 -0.03071
21.45 -0.0332
21.5 -0.036
21.55 -0.03851
21.6 -0.03826
21.65 -0.03316
21.7 -0.02889
21.75 -0.0302
21.8 -0.0269
21.85 -0.02161
21.9 -0.01943
21.95 -0.01933
22 -0.01563
22.05 -0.01865
22.1 -0.02552
22.15 -0.02926
22.2 -0.02753
22.25 -0.02334
22.3 -0.01906
22.35 -0.01665
22.4 -0.01593
22.45 -0.01653
22.5 -0.01994
22.55 -0.01905
22.6 -0.01709
22.65 -0.01702
22.7 -0.01805
22.75 -0.02228
22.8 -0.02583
22.85 -0.0281
22.9 -0.03167
22.95 -0.03133
23 -0.03482
23.05 -0.03471
23.1 -0.03085
23.15 -0.02827
23.2 -0.02538
23.25 -0.01905
23.3 -0.0127
23.35 -0.01237
23.4 -0.01679
23.45 -0.01797
23.5 -0.022
23.55 -0.02329
23.6 -0.02286
23.65 -0.02412
23.7 -0.02686
23.75 -0.03124
23.8 -0.03264
23.85 -0.02786
23.9 -0.0231
23.95 -0.01829
24 -0.01392
24.05 -0.0149
24.1 -0.02035
24.15 -0.02092
24.2 -0.01839
24.25 -0.01333
24.3 -0.00944
24.35 -0.00325
24.4 -0.00285
24.45 -0.00312
24.5 -0.00035
24.55 0.00337
24.6 0.00775
24.65 0.00458
24.7 -0.00148
24.75 -0.00972
24.8 -0.01156
24.85 -0.01595
24.9 -0.0197
24.95 -0.02129
25 -0.02351
25.05 -0.02583
25.1 -0.02189
25.15 -0.01711
25.2 -0.01325
25.25 -0.00664
25.3 -0.00213
25.35 0.00178
25.4 0.00741
25.45 0.00837
25.5 0.01079
25.55 0.00771
25.6 0.00395
25.65 -0.00427
25.7 -0.00598
25.75 -0.00348
25.8 -0.00295
25.85 -0.0011
25.9 0.00248
25.95 0.00693
26 0.00435
26.05 -0.00247
26.1 -0.01055
26.15 -0.01174
26.2 -0.01058
26.25 -0.00631
26.3 -0.00255
26.35 0.00245
26.4 0.00115
26.45 -0.00427
26.5 -0.01182
26.55 -0.01293
26.6 -0.01102
26.65 -0.01337
26.7 -0.01251
26.75 -0.01047
26.8 -0.01123
26.85 -0.01015
26.9 -0.00985
26.95 -0.01412
27 -0.01979
27.05 -0.02157
27.1 -0.02156
27.15 -0.01907
27.2 -0.01844
27.25 -0.01763
27.3 -0.0122
27.35 -0.00898
27.4 -0.00565
27.45 -0.00323
27.5 -0.00244
27.55 0.00108
27.6 0.0003
27.65 0.00042
27.7 0.00204
27.75 0.00522
27.8 0.0044
27.85 0.00077
27.9 -0.00682
27.95 -0.0149
28 -0.02071
28.05 -0.01954
28.1 -0.02272
28.15 -0.02046
28.2 -0.01654
28.25 -0.01601
28.3 -0.01753
28.35 -0.02321
28.4 -0.02661
28.45 -0.02781
28.5 -0.02572
28.55 -0.02713
28.6 -0.02717
28.65 -0.0288
28.7 -0.03437
28.75 -0.03621
28.8 -0.04083
28.85 -0.05087
28.9 -0.05521
28.95 -0.05862
29 -0.05967
29.05 -0.06479
29.1 -0.07707
29.15 -0.0886
29.2 -0.09647
29.25 -0.10889
29.3 -0.12165
29.35 -0.13613
29.4 -0.15082
29.45 -0.16461
29.5 -0.17874
29.55 -0.19067
29.6 -0.19869
29.65 -0.20456
29.7 -0.2101
29.75 -0.211
29.8 -0.21275
29.85 -0.21348
29.9 -0.21236
29.95 -0.21768
30 -0.21745
30.05 -0.22044
30.1 -0.22091
30.15 -0.21744
30.2 -0.21563
30.25 -0.21612
30.3 -0.20916
30.35 -0.20193
30.4 -0.19837
30.45 -0.19413
30.5 -0.18326
30.55 -0.17468
30.6 -0.1617
30.65 -0.14393
30.7 -0.12978
30.75 -0.12076
30.8 -0.11178
30.85 -0.10063
30.9 -0.09212
30.95 -0.07646
31 -0.05889
31.05 -0.04431
31.1 -0.03509
31.15 -0.02739
31.2 -0.01932
31.25 -0.00463
31.3 0.00895
31.35 0.01975
31.4 0.03419
31.45 0.05186
31.5 0.06928
31.55 0.08662
31.6 0.10439
31.65 0.11385
31.7 0.11832
31.75 0.12588
31.8 0.1295
31.85 0.13564
31.9 0.14483
31.95 0.15661
32 0.16822
32.05 0.17828
32.1 0.18245
32.15 0.18788
32.2 0.19328
32.25 0.19989
32.3 0.20398
32.35 0.21159
32.4 0.21759
32.45 0.21756
32.5 0.2205
32.55 0.22266
32.6 0.22462
32.65 0.22394
32.7 0.22324
32.75 0.22118
32.8 0.21455
32.85 0.2092
32.9 0.20968
32.95 0.20576
33 0.20601
33.05 0.2084
33.1 0.20304
33.15 0.19984
33.2 0.19872
33.25 0.19691
33.3 0.18901
33.35 0.18182
33.4 0.1757
33.45 0.16877
33.5 0.16157
33.55 0.1489
33.6 0.13863
33.65 0.12843
33.7 0.11594
33.75 0.10779
33.8 0.10095
33.85 0.09478
33.9 0.09286
33.95 0.08598
34 0.07682
34.05 0.07275
34.1 0.06834
34.15 0.06756
34.2 0.07029
34.25 0.06744
34.3 0.06819
34.35 0.06707
34.4 0.06768
34.45 0.06834
34.5 0.06285
34.55 0.06067
34.6 0.05921
34.65 0.05496
34.7 0.05084
34.75 0.05028
34.8 0.04622
34.85 0.04218
34.9 0.04006
34.95 0.03497
35 0.03355
35.05 0.02816
35.1 0.02391
35.15 0.01649
35.2 0.00695
35.25 -0.00056
35.3 -0.00565
35.35 -0.00853
35.4 -0.01053
35.45 -0.01146
35.5 -0.01218
35.55 -0.01021
35.6 -0.00521
35.65 -0.00465
35.7 -0.00855
35.75 -0.01486
35.8 -0.01632
35.85 -0.01858
35.9 -0.0239
35.95 -0.0239
36 -0.02454
36.05 -0.02131
36.1 -0.0166
36.15 -0.01776
36.2 -0.01831
36.25 -0.01476
36.3 -0.01054
36.35 -0.00856
36.4 -0.00583
36.45 -0.00862
36.5 -0.00997
36.55 -0.00919
36.6 -0.01408
36.65 -0.01922
36.7 -0.02265
36.75 -0.02331
36.8 -0.02122
36.85 -0.02366
36.9 -0.02552
36.95 -0.02733
37 -0.02842
37.05 -0.02594
37.1 -0.02405
37.15 -0.02283
37.2 -0.02453
37.25 -0.02909
37.3 -0.03349
37.35 -0.03657
37.4 -0.03749
37.45 -0.0383
37.5 -0.03742
37.55 -0.03186
37.6 -0.03018
37.65 -0.02461
37.7 -0.01872
37.75 -0.02012
37.8 -0.02465
37.85 -0.0326
37.9 -0.03643
37.95 -0.03958
38 -0.04104
38.05 -0.04391
38.1 -0.04857
38.15 -0.05161
38.2 -0.04736
38.25 -0.04306
38.3 -0.03577
38.35 -0.02645
38.4 -0.01625
38.45 -0.01149
38.5 -0.0085
38.55 -0.01208
38.6 -0.0164
38.65 -0.01832
38.7 -0.01642
38.75 -0.01963
38.8 -0.0243
38.85 -0.02926
38.9 -0.03288
38.95 -0.0373
39 -0.0432
39.05 -0.0414
39.1 -0.03695
39.15 -0.0324
39.2 -0.02834
39.25 -0.02212
39.3 -0.02196
39.35 -0.02379
39.4 -0.02103
39.45 -0.01828
39.5 -0.01523
39.55 -0.01144
39.6 -0.00884
39.65 -0.00615
39.7 -0.00882
39.75 -0.01421
39.8 -0.02183
39.85 -0.02508
39.9 -0.02983
39.95 -0.03528
40 -0.0372
40.05 -0.03533
40.1 -0.02885
40.15 -0.02336
40.2 -0.01612
40.25 -0.01001
40.3 -0.01045
40.35 -0.00993
40.4 -0.01108
40.45 -0.00811
40.5 -0.00851
40.55 -0.0083
40.6 -0.00401
40.65 -0.00011
40.7 -0.00145
40.75 -0.0034
40.8 -0.00194
40.85 -0.00163
40.9 -0.00061
40.95 0.00035
41 -0.00068
41.05 -0.00134
41.1 -0.00085
41.15 -0.0046
41.2 -0.00718
41.25 -0.0072
41.3 -0.00921
41.35 -0.01161
41.4 -0.01791
41.45 -0.02512
41.5 -0.02602
41.55 -0.02429
41.6 -0.0179
41.65 -0.0106
41.7 -0.00408
41.75 -0.0035
41.8 -0.00581
41.85 -0.00637
41.9 -0.00614
41.95 -0.00194
42 -0.00256
42.05 -0.0041
42.1 -0.00209
42.15 0.0029
42.2 0.00202
42.25 -0.00022
42.3 0.00024
42.35 0.0035
42.4 0.00483
42.45 0.00111
42.5 -0.00482
42.55 -0.00878
42.6 -0.01052
42.65 -0.00745
42.7 -0.00945
42.75 -0.00753
42.8 -0.00497
42.85 -0.00772
42.9 -0.00885
42.95 -0.01249
43 -0.01508
43.05 -0.01947
43.1 -0.0244
43.15 -0.0239
43.2 -0.02376
43.25 -0.01978
43.3 -0.01714
43.35 -0.01075
43.4 -0.00659
43.45 -0.00769
43.5 -0.00841
43.55 -0.00899
43.6 -0.00869
43.65 -0.00697
43.7 -0.00518
43.75 -0.00023
43.8 0.00006
43.85 0.00139
43.9 0.00501
43.95 0.00834
44 0.01073
44.05 0.01272
44.1 0.01665
44.15 0.01961
44.2 0.01493
44.25 0.01088
44.3 0.00299
44.35 0.00148
44.4 0.00423
44.45 0.00419
44.5 0.00696
44.55 0.01116
44.6 0.01633
44.65 0.02139
44.7 0.02329
44.75 0.01877
44.8 0.01216
44.85 0.00526
44.9 -0.00394
44.95 -0.0067
45 -0.01097
45.05 -0.00969
45.1 -0.00986
45.15 -0.00569
45.2 -0.00095
45.25 0.00042
45.3 0.00238
45.35 0.00596
45.4 0.00978
45.45 0.01236
45.5 0.00808
45.55 0.00376
45.6 -0.00399
45.65 -0.00649
45.7 -0.00902
45.75 -0.01501
45.8 -0.01379
45.85 -0.01691
45.9 -0.01792
45.95 -0.01692
46 -0.01614
46.05 -0.01407
46.1 -0.01438
46.15 -0.01696
46.2 -0.01709
46.25 -0.01478
46.3 -0.01482
46.35 -0.0144
46.4 -0.01093
46.45 -0.00844
46.5 -0.00269
46.55 -0.00013
46.6 0.002
46.65 0.00153
46.7 0.00372
46.75 0.00111
46.8 0.00032
46.85 0.00067
46.9 0.0039
46.95 0.00765
47 0.0123
47.05 0.01032
47.1 0.01045
47.15 0.01094
47.2 0.00928
47.25 0.00526
47.3 -0.00191
47.35 -0.00762
47.4 -0.0082
47.45 -0.01309
47.5 -0.01322
47.55 -0.01216
47.6 -0.01359
47.65 -0.01673
47.7 -0.01676
47.75 -0.01676
47.8 -0.01139
47.85 -0.00953
47.9 -0.01019
47.95 -0.00663
48 -0.00717
48.05 -0.00973
48.1 -0.0132
48.15 -0.01644
48.2 -0.02151
48.25 -0.0228
48.3 -0.01926
48.35 -0.01698
48.4 -0.01463
48.45 -0.01143
48.5 -0.00653
48.55 -0.00505
48.6 -0.00361
48.65 -0.00463
48.7 -0.00838
48.75 -0.0137
48.8 -0.01593
48.85 -0.0165
48.9 -0.01538
48.95 -0.01578
49 -0.01843
49.05 -0.02091
49.1 -0.01771
49.15 -0.01161
49.2 -0.00771
49.25 -0.006
49.3 -0.00712
49.35 -0.00966
49.4 -0.00914
49.45 -0.00368
49.5 -0.00132
49.55 -0.00086
49.6 0.00329
49.65 0.00927
49.7 0.01224
49.75 0.01044
49.8 0.00637
49.85 0.0054
49.9 0.00412
49.95 0.0002
50 -0.00628
50.05 -0.01401
50.1 -0.01483
50.15 -0.01048
50.2 -0.00377
50.25 -0.00134
50.3 0.00423
50.35 0.00779
50.4 0.0112
50.45 0.01658
50.5 0.01779
50.55 0.01418
50.6 0.01351
50.65 0.01497
50.7 0.018
50.75 0.01989
50.8 0.02193
50.85 0.02435
50.9 0.02107
50.95 0.01795
51 0.01369
51.05 0.00693
51.1 0.00192
51.15 0.00274
51.2 -0.00072
51.25 -0.00265
51.3 -0.00031
51.35 -0.0003
51.4 0.00274
51.45 0.00211
51.5 0.00003
51.55 0.00155
51.6 0.00199
51.65 0.00017
51.7 0.00188
51.75 0.00193
51.8 0.00534
51.85 0.0091
51.9 0.00607
51.95 0.00422
52 0.00564
52.05 0.00642
52.1 0.00426
52.15 0.0027
52.2 0.00281
52.25 0.00155
52.3 0.00296
52.35 0.0073
52.4 0.00474
52.45 0.00098
52.5 -0.00146
52.55 -0.00071
52.6 -0.00136
52.65 -0.00616
52.7 -0.01359
52.75 -0.01944
52.8 -0.02256
52.85 -0.02397
52.9 -0.02137
52.95 -0.01766
53 -0.01469
53.05 -0.0104
53.1 -0.00679
53.15 -0.00644
53.2 -0.00465
53.25 0.00089
53.3 0.00077
53.35 -0.00429
53.4 -0.00781
53.45 -0.00723
53.5 -0.00973
53.55 -0.01483
53.6 -0.01789
53.65 -0.01413
53.7 -0.01278
53.75 -0.0073
53.8 -0.00712
53.85 -0.01069
53.9 -0.01511
53.95 -0.0163
54 -0.01964
54.05 -0.02355
54.1 -0.0208
54.15 -0.01425
54.2 -0.00631
54.25 -0.00051
54.3 0.00418
54.35 0.00529
54.4 0.00444
54.45 0.00805
54.5 0.00997
54.55 0.00873
54.6 0.00317
54.65 0.00091
54.7 -0.00417
54.75 -0.00281
54.8 -0.00344
54.85 -0.00806
54.9 -0.01176
54.95 -0.01043
55 -0.01079
55.05 -0.00797
55.1 -0.00582
55.15 -0.00694
55.2 -0.00617
55.25 -0.00471
55.3 0.00065
55.35 0.00721
55.4 0.01474
55.45 0.02272
55.5 0.02578
55.55 0.02979
55.6 0.03151
55.65 0.03188
55.7 0.03343
55.75 0.02887
55.8 0.02057
55.85 0.01192
55.9 0.00961
55.95 0.00747
56 0.00546
56.05 0.00732
56.1 0.00354
56.15 -0.00028
56.2 -0.00051
56.25 -0.00518
56.3 -0.01061
56.35 -0.01116
56.4 -0.01089
56.45 -0.00962
56.5 -0.00999
56.55 -0.00964
56.6 -0.01069
56.65 -0.00661
56.7 -0.00022
56.75 0.00282
56.8 0.00014
56.85 0.00109
56.9 0.00301
56.95 0.00078
57 0.00168
57.05 0.00501
57.1 0.00589
57.15 0.00689
57.2 0.00536
57.25 -0.00059
57.3 -0.00624
57.35 -0.00717
57.4 -0.00863
57.45 -0.00476
57.5 -0.00176
57.55 -0.0036
57.6 -0.00407
57.65 -0.00215
57.7 0.0024
57.75 0.00467
57.8 0.00426
57.85 0.00073
57.9 0.00168
57.95 0.00567
58 0.00992
58.05 0.00899
58.1 0.00633
58.15 0.00671
58.2 0.00758
58.25 0.00304
58.3 -0.00228
58.35 -0.00724
58.4 -0.00867
58.45 -0.0059
58.5 -0.00607
58.55 -0.00868
58.6 -0.0099
58.65 -0.01383
58.7 -0.01355
58.75 -0.01018
58.8 -0.00777
58.85 -0.0033
58.9 -0.00499
58.95 -0.00432
59 -0.00165
59.05 0.00213
59.1 0.00325
59.15 0.00373
59.2 0.00606
59.25 0.01136
59.3 0.01383
59.35 0.01009
59.4 0.00784
59.45 0.00395
59.5 -0.00049
59.55 -0.00323
59.6 -0.00874
59.65 -0.01334
59.7 -0.01261
59.75 -0.01482
59.8 -0.0188
59.85 -0.02466
59.9 -0.02826
59.95 -0.02534
60 -0.02155
60.05 -0.02142
60.1 -0.01912
60.15 -0.01827
60.2 -0.01306
60.25 -0.00688
60.3 0.00037
60.35 0.00231
60.4 0.0042
60.45 0.00812
60.5 0.01109
60.55 0.00777
60.6 0.00508
60.65 0.00198
60.7 0.0004
60.75 -0.00175
60.8 -0.00129
60.85 0.00098
60.9 -0.00115
60.95 0.00074
61 0.00228
61.05 0.00378
61.1 0.00653
61.15 0.00443
61.2 0.00595
61.25 0.01012
61.3 0.01063
61.35 0.01132
61.4 0.01265
61.45 0.00777
61.5 0.00826
61.55 0.00703
61.6 0.00343
61.65 -0.00172
61.7 -0.00558
61.75 -0.0065
61.8 -0.00725
61.85 -0.00334
61.9 -0.00267
61.95 0.00167
62 0.00117
62.05 -0.00167
62.1 -0.0015
62.15 -0.00144
62.2 -0.00564
62.25 -0.00488
62.3 -0.00491
62.35 -0.00536
62.4 -0.00961
62.45 -0.00746
62.5 -0.00296
62.55 0.00401
62.6 0.01235
62.65 0.01819
62.7 0.02179
62.75 0.02295
62.8 0.01709
62.85 0.00922
62.9 0.00333
62.95 -0.00008
63 -0.00079
63.05 -0.00539
63.1 -0.00394
63.15 -0.00629
63.2 -0.00429
63.25 -0.0011
63.3 -0.00176
63.35 -0.00183
63.4 -0.00604
63.45 -0.00716
63.5 -0.01022
63.55 -0.01491
63.6 -0.0177
63.65 -0.02052
63.7 -0.02256
63.75 -0.02666
63.8 -0.02923
63.85 -0.02401
63.9 -0.01882
63.95 -0.01077
64 -0.0004
64.05 0.00817
64.1 0.01354
64.15 0.01823
64.2 0.01891
64.25 0.01971
64.3 0.01803
64.35 0.01151
64.4 0.00839
64.45 0.00559
64.5 0.00181
64.55 0.00142
64.6 0.0018
64.65 0.00105
64.7 0.00374
64.75 0.00279
64.8 0.00604
64.85 0.01093
64.9 0.00904
64.95 0.00777
65 0.00168
65.05 -0.00129
65.1 -0.00172
65.15 -0.00306
65.2 -0.00616
65.25 -0.00801
65.3 -0.00624
65.35 -0.00847
65.4 -0.00942
65.45 -0.01313
65.5 -0.0153
65.55 -0.01239
65.6 -0.01045
65.65 -0.01244
65.7 -0.01109
65.75 -0.00496
65.8 -0.00349
65.85 -0.00595
65.9 -0.00907
65.95 -0.00896
66 -0.00406
66.05 0.00183
66.1 0.00291
66.15 0.00082
66.2 0.00186
66.25 0.00199
66.3 0.0058
66.35 0.00859
66.4 0.00866
66.45 0.00404
66.5 0.00359
66.55 0.00063
66.6 0.00276
66.65 0.00215
66.7 0.00468
66.75 0.00445
66.8 0.00809
66.85 0.01123
66.9 0.01538
66.95 0.01425
67 0.01153
67.05 0.00635
67.1 -0.00075
67.15 -0.0062
67.2 -0.00634
67.25 -0.00556
67.3 -0.00215
67.35 0.00101
67.4 0.005
67.45 0.01148
67.5 0.01765
67.55 0.02146
67.6 0.02217
67.65 0.01713
67.7 0.01151
67.75 0.00688
67.8 0.00678
67.85 0.00887
67.9 0.01133
67.95 0.01496
68 0.01362
68.05 0.01104
68.1 0.01137
68.15 0.01258
68.2 0.01361
68.25 0.01409
68.3 0.00916
68.35 0.00126
68.4 -0.00364
68.45 -0.0075
68.5 -0.01412
68.55 -0.01765
68.6 -0.01876
68.65 -0.02303
68.7 -0.0239
68.75 -0.02343
68.8 -0.02546
68.85 -0.0225
68.9 -0.01737
68.95 -0.01214
69 -0.01135
69.05 -0.00871
69.1 -0.01051
69.15 -0.00799
69.2 -0.00603
69.25 -0.00714
69.3 -0.01193
69.35 -0.01226
69.4 -0.01622
69.45 -0.01526
69.5 -0.0139
69.55 -0.013
69.6 -0.01074
69.65 -0.01019
69.7 -0.00829
69.75 -0.00985
69.8 -0.00915
69.85 -0.01042
69.9 -0.01041
69.95 -0.00783
70 -0.00207
70.05 -0.0002
70.1 -0.00263
70.15 -0.00537
70.2 -0.00793
70.25 -0.01005
70.3 -0.00719
70.35 -0.00076
70.4 0.00529
70.45 0.0063
70.5 0.00339
70.55 0.00047
70.6 -0.00514
70.65 -0.00922
70.7 -0.0137
70.75 -0.01893
70.8 -0.02162
70.85 -0.01879
70.9 -0.01833
70.95 -0.02099
71 -0.02034
71.05 -0.01691
71.1 -0.0167
71.15 -0.01925
71.2 -0.01501
71.25 -0.01088
71.3 -0.00442
71.35 0.00125
71.4 0.00913
71.45 0.01645
71.5 0.01788
71.55 0.01925
71.6 0.0183
71.65 0.01183
71.7 0.01138
71.75 0.01452
71.8 0.01658
71.85 0.01321
71.9 0.00554
71.95 0.00153
72 -0.00332
72.05 -0.00457
72.1 -0.00739
72.15 -0.01193
72.2 -0.00996
72.25 -0.00753
72.3 -0.00901
72.35 -0.01082
72.4 -0.01379
72.45 -0.01198
72.5 -0.00905
72.55 -0.00546
72.6 0.00052
72.65 0.00841
72.7 0.01048
72.75 0.00987
72.8 0.01113
72.85 0.00886
72.9 0.00623
72.95 0.00031
73 -0.00192
73.05 -0.00005
73.1 0.00576
73.15 0.00814
73.2 0.0056
73.25 0.0009
73.3 0.00012
73.35 -0.00056
73.4 0.00338
73.45 0.00301
73.5 0.00401
73.55 0.00708
73.6 0.00433
73.65 -0.00133
73.7 -0.00617
73.75 -0.0084
73.8 -0.00589
73.85 -0.00217
73.9 0.00241
73.95 0.00531
74 0.00402
74.05 0.0017
74.1 -0.00403
74.15 -0.0071
74.2 -0.00666
74.25 -0.00816
74.3 -0.00641
74.35 -0.00852
74.4 -0.00917
74.45 -0.01109
74.5 -0.00926
74.55 -0.01089
74.6 -0.01303
74.65 -0.01369
74.7 -0.01274
74.75 -0.0064
74.8 -0.00146
74.85 -0.00169
74.9 -0.00613
74.95 -0.00615
75 -0.00718
75.05 -0.00748
75.1 -0.00542
75.15 -0.00604
75.2 -0.00957
75.25 -0.00767
75.3 -0.00848
75.35 -0.00703
75.4 -0.00276
75.45 -0.00159
75.5 0.00403
75.55 0.00319
75.6 0.00131
75.65 0.00143
75.7 0.00317
75.75 0.00038
75.8 -0.00261
75.85 -0.00265
75.9 0.00103
75.95 0.00534
76 0.00519
76.05 0.00698
76.1 0.00546
76.15 0.00725
76.2 0.00488
76.25 0.00445
76.3 0.00448
76.35 0.00832
76.4 0.01458
76.45 0.01886
76.5 0.02023
76.55 0.0156
76.6 0.01148
76.65 0.00849
76.7 0.00944
76.75 0.01032
76.8 0.00718
76.85 0.00929
76.9 0.0098
76.95 0.00724
77 0.00922
77.05 0.00932
77.1 0.01135
77.15 0.01181
77.2 0.01251
77.25 0.01628
77.3 0.01977
77.35 0.01829
77.4 0.01675
77.45 0.01232
77.5 0.01107
77.55 0.00856
77.6 0.00528
77.65 -0.00127
77.7 -0.0039
77.75 -0.00658
77.8 -0.01236
77.85 -0.01403
77.9 -0.01607
77.95 -0.01282
78 -0.00883
78.05 -0.00301
78.1 0.00455
78.15 0.01002
78.2 0.01644
78.25 0.01743
78.3 0.0131
78.35 0.00486
78.4 -0.00072
78.45 -0.00045
78.5 -0.00332
78.55 -0.00664
78.6 -0.01161
78.65 -0.00968
78.7 -0.0093
78.75 -0.01044
78.8 -0.00595
78.85 -0.00482
78.9 -0.00316
78.95 -0.00055
79 -0.00125
79.05 -0.00371
79.1 -0.00864
79.15 -0.01143
79.2 -0.01636
79.25 -0.01685
79.3 -0.01746
79.35 -0.01637
79.4 -0.01406
79.45 -0.01124
79.5 -0.01056
79.55 -0.00951
79.6 -0.0053
79.65 -0.0061
79.7 -0.003
79.75 -0.0003
79.8 0.00264
79.85 0.00148
79.9 0.00047
79.95 0.00326
80 0.00209
80.05 0.00014
80.1 0.00188
80.15 0.00404
80.2 0.00963
80.25 0.01225
80.3 0.01387
80.35 0.01815
80.4 0.01509
80.45 0.01631
80.5 0.01796
80.55 0.01439
80.6 0.01242
80.65 0.0122
80.7 0.01233
80.75 0.00929
80.8 0.01047
80.85 0.01086
80.9 0.00822
80.95 0.00404
81 -0.0005
81.05 -0.00576
81.1 -0.00738
81.15 -0.00525
81.2 -0.00203
81.25 -0.00032
81.3 -0.00171
81.35 -0.00019
81.4 0.00125
81.45 0.00484
81.5 0.00706
81.55 0.00912
81.6 0.00745
81.65 0.00368
81.7 -0.0029
81.75 -0.00635
81.8 -0.00836
81.85 -0.01156
81.9 -0.01566
81.95 -0.01819
82 -0.0168
82.05 -0.01416
82.1 -0.01193
82.15 -0.00803
82.2 -0.00243
82.25 -0.0021
82.3 -0.00072
82.35 -0.00057
82.4 -0.004
82.45 -0.00845
82.5 -0.00831
82.55 -0.008
82.6 -0.00839
82.65 -0.0056
82.7 -0.00335
82.75 0.00001
82.8 -0.00164
82.85 -0.00362
82.9 -0.00872
82.95 -0.0081
83 -0.01009
83.05 -0.01357
83.1 -0.01483
83.15 -0.01355
83.2 -0.00782
83.25 -0.00283
83.3 0.0047
83.35 0.01216
83.4 0.02026
83.45 0.0255
83.5 0.0255
83.55 0.02428
83.6 0.01918
83.65 0.01155
83.7 0.00539
83.75 -0.0014
83.8 -0.00886
83.85 -0.0176
83.9 -0.01742
83.95 -0.01756
84 -0.01225
84.05 -0.00695
84.1 -0.00503
84.15 -0.00508
84.2 -0.00835
84.25 -0.01165
84.3 -0.01194
84.35 -0.01069
84.4 -0.00692
84.45 -0.00805
84.5 -0.00492
84.55 -0.00601
84.6 -0.01017
84.65 -0.00989
84.7 -0.00689
84.75 -0.0001
84.8 0.00638
84.85 0.00751
84.9 0.0069
84.95 0.00356
85 -0.00244
85.05 -0.00481
85.1 -0.00717
85.15 -0.0093
85.2 -0.0093
85.25 -0.00546
85.3 -0.00028
85.35 -0.00062
85.4 -0.00056
85.45 0.00062
85.5 0.00601
85.55 0.00967
85.6 0.01433
85.65 0.01249
85.7 0.01369
85.75 0.01577
85.8 0.01554
85.85 0.01145
85.9 0.0052
85.95 -0.00076
86 -0.00573
86.05 -0.01262
86.1 -0.01146
86.15 -0.01305
86.2 -0.01631
86.25 -0.01351
86.3 -0.01214
86.35 -0.00576
86.4 0.00026
86.45 0.00709
86.5 0.00906
86.55 0.00565
86.6 0.00112
86.65 -0.00265
86.7 -0.00152
86.75 0.0007
86.8 0.00323
86.85 0.00098
86.9 0.00368
86.95 0.00517
87 0.0033
87.05 -0.001
87.1 -0.00639
87.15 -0.01118
87.2 -0.00987
87.25 -0.00747
87.3 -0.00343
87.35 0.00264
87.4 0.00839
87.45 0.01438
87.5 0.0163
87.55 0.01892
87.6 0.02064
87.65 0.01633
87.7 0.00765
87.75 -0.00063
87.8 -0.00304
87.85 -0.00186
87.9 -0.00064
87.95 0.00343
88 0.00787
88.05 0.00539
88.1 0.00449
88.15 0.00333
88.2 -0.00067
88.25 -0.00274
88.3 -0.00071
88.35 0.00119
88.4 -0.0012
88.45 -0.00621
88.5 -0.0082
88.55 -0.01239
88.6 -0.01496
88.65 -0.01757
88.7 -0.01868
88.75 -0.01471
88.8 -0.01438
88.85 -0.01296
88.9 -0.01
88.95 -0.00309
89 0.00314
89.05 0.00707
89.1 0.0084
89.15 0.01273
89.2 0.01871
89.25 0.01847
89.3 0.01357
89.35 0.01006
89.4 0.00732
89.45 0.00206
89.5 -0.00287
89.55 -0.00977
89.6 -0.01466
89.65 -0.01648
89.7 -0.01548
89.75 -0.01654
89.8 -0.01465
89.85 -0.0123
89.9 -0.00817
89.95 -0.00484
90 0.00084
90.05 0.00802
90.1 0.00786
90.15 0.00704
90.2 0.00915
90.25 0.007
90.3 0.00097
90.35 -0.00099
90.4 -0.00059
90.45 0.00022
90.5 0.00022
90.55 -0.00336
90.6 -0.00868
90.65 -0.01347
90.7 -0.01755
90.75 -0.01563
90.8 -0.01473
90.85 -0.00831
90.9 -0.00661
90.95 -0.00942
91 -0.00876
91.05 -0.00442
91.1 -0.00031
91.15 0.00668
91.2 0.01238
91.25 0.01177
91.3 0.01211
91.35 0.01062
91.4 0.0101
91.45 0.00986
91.5 0.00687
91.55 0.00338
91.6 -0.00117
91.65 -0.00517
91.7 -0.00972
91.75 -0.00886
91.8 -0.00663
91.85 -0.00822
91.9 -0.00457
91.95 0.00035
92 0.00288
92.05 0.00285
92.1 0.00688
92.15 0.01011
92.2 0.01351
92.25 0.01169
92.3 0.01121
92.35 0.00955
92.4 0.00333
92.45 -0.0053
92.5 -0.01149
92.55 -0.01181
92.6 -0.01242
92.65 -0.00971
92.7 -0.01065
92.75 -0.0109
92.8 -0.01175
92.85 -0.01309
92.9 -0.01669
92.95 -0.02031
93 -0.01772
93.05 -0.01453
93.1 -0.00834
93.15 -0.00436
93.2 0.00203
93.25 0.00759
93.3 0.00625
93.35 0.00938
93.4 0.01123
93.45 0.0154
93.5 0.02004
93.55 0.02137
93.6 0.02213
93.65 0.01998
93.7 0.01871
93.75 0.01934
93.8 0.02016
93.85 0.0193
93.9 0.0157
93.95 0.00862
94 0.0002
94.05 -0.00061
94.1 -0.00522
94.15 -0.01244
94.2 -0.01207
94.25 -0.00633
94.3 -0.00369
94.35 -0.00495
94.4 -0.00743
94.45 -0.00851
94.5 -0.01023
94.55 -0.00847
94.6 -0.00229
94.65 0.00252
94.7 0.0036
94.75 0.00707
94.8 0.0043
94.85 0.00159
94.9 -0.0007
94.95 0.00046
95 -0.0002
95.05 0.00099
95.1 0.00557
95.15 0.00343
95.2 0.00138
95.25 -0.0002
95.3 -0.00281
95.35 -0.00723
95.4 -0.01113
95.45 -0.00981
95.5 -0.01001
95.55 -0.00581
95.6 -0.00314
95.65 -0.00097
95.7 -0.00403
95.75 -0.00467
95.8 -0.00572
95.85 -0.00267
95.9 0.00319
95.95 0.009
96 0.00864
96.05 0.00566
96.1 -0.00022
96.15 -0.00774
96.2 -0.0087
96.25 -0.00562
96.3 0.00075
96.35 0.00105
96.4 0.00436
96.45 0.00738
96.5 0.01115
96.55 0.01313
96.6 0.01378
96.65 0.01087
96.7 0.01143
96.75 0.01227
96.8 0.01168
96.85 0.00556
96.9 -0.00168
96.95 -0.00443
97 -0.00934
97.05 -0.01472
97.1 -0.01666
97.15 -0.01971
97.2 -0.02098
97.25 -0.01931
97.3 -0.01825
97.35 -0.01651
97.4 -0.01694
97.45 -0.01332
97.5 -0.00834
97.55 -0.00554
97.6 -0.00304
97.65 -0.00197
97.7 -0.00029
97.75 -0.0009
97.8 -0.0031
97.85 -0.00163
97.9 -0.00494
97.95 -0.00882
98 -0.00927
98.05 -0.00961
98.1 -0.00486
98.15 0.00192
98.2 0.00158
98.25 -0.00165
98.3 -0.00307
98.35 -0.00501
98.4 -0.00849
98.45 -0.00674
98.5 -0.00023
98.55 0.00303
98.6 0.00838
98.65 0.00817
98.7 0.01187
98.75 0.01753
98.8 0.02148
98.85 0.01786
98.9 0.01414
98.95 0.01312
99 0.00897
99.05 0.01001
99.1 0.01443
99.15 0.01638
99.2 0.01791
99.25 0.01397
99.3 0.01032
99.35 0.00632
99.4 0.00417
99.45 0.00587
99.5 0.0096
99.55 0.01063
99.6 0.00586
99.65 -0.00007
99.7 -0.00565
99.75 -0.00938
99.8 -0.01089
99.85 -0.01045
99.9 -0.00583
99.95 0.00148
