0 0
0.05 0.00186
0.1 0.009
0.15 0.0152
0.2 0.01881
0.25 0.02331
0.3 0.02727
0.35 0.03343
0.4 0.04118
0.45 0.04865
0.5 0.05246
0.55 0.05203
0.6 0.05439
0.65 0.05862
0.7 0.05839
0.75 0.05821
0.8 0.0565
0.85 0.05556
0.9 0.05467
0.95 0.05745
1 0.05585
1.05 0.0573
1.1 0.05789
1.15 0.05413
1.2 0.04823
1.25 0.04234
1.3 0.03637
1.35 0.03286
1.4 0.02846
1.45 0.02894
1.5 0.03127
1.55 0.03617
1.6 0.0431
1.65 0.04604
1.7 0.04879
1.75 0.05271
1.8 0.05649
1.85 0.05336
1.9 0.05016
1.95 0.04658
2 0.04303
2.05 0.04419
2.1 0.04431
2.15 0.04048
2.2 0.03897
2.25 0.03252
2.3 0.03175
2.35 0.02995
2.4 0.02575
2.45 0.02405
2.5 0.02568
2.55 0.02302
2.6 0.01855
2.65 0.01943
2.7 0.02122
2.75 0.02033
2.8 0.02014
2.85 0.01609
2.9 0.00982
2.95 0.00853
3 0.00785
3.05 0.00879
3.1 0.00834
3.15 0.01151
3.2 0.01614
3.25 0.01903
3.3 0.02078
3.35 0.02111
3.4 0.01868
3.45 0.01727
3.5 0.01533
3.55 0.01726
3.6 0.01842
3.65 0.02292
3.7 0.02989
3.75 0.02939
3.8 0.02789
3.85 0.03008
3.9 0.02806
3.95 0.02152
4 0.01552
4.05 0.0092
4.1 0.00467
4.15 0.00265
4.2 -0.00137
4.25 -0.00087
4.3 -0.00206
4.35 -0.00814
4.4 -0.01655
4.45 -0.01973
4.5 -0.02777
4.55 -0.03971
4.6 -0.0522
4.65 -0.06218
4.7 -0.07885
4.75 -0.09451
4.8 -0.11725
4.85 -0.14319
4.9 -0.16836
4.95 -0.19593
5 -0.22992
5.05 -0.27374
5.1 -0.3226
5.15 -0.37425
5.2 -0.43357
5.25 -0.49714
5.3 -0.57112
5.35 -0.64848
5.4 -0.72884
5.45 -0.81363
5.5 -0.90846
5.55 -1.00292
5.6 -1.10044
5.65 -1.19511
5.7 -1.29515
5.75 -1.38994
5.8 -1.48633
5.85 -1.57752
5.9 -1.66225
5.95 -1.74682
6 -1.82561
6.05 -1.90069
6.1 -1.97403
6.15 -2.04684
6.2 -2.11245
6.25 -2.17361
6.3 -2.2286
6.35 -2.27838
6.4 -2.31892
6.45 -2.35527
6.5 -2.38692
6.55 -2.408
6.6 -2.42422
6.65 -2.43211
6.7 -2.4297
6.75 -2.41384
6.8 -2.37767
6.85 -2.32417
6.9 -2.26081
6.95 -2.17736
7 -2.08356
7.05 -1.9761
7.1 -1.85455
7.15 -1.7156
7.2 -1.55774
7.25 -1.39123
7.3 -1.21523
7.35 -1.02812
7.4 -0.83892
7.45 -0.64039
7.5 -0.43688
7.55 -0.2321
7.6 -0.03072
7.65 0.16202
7.7 0.35501
7.75 0.54412
7.8 0.72758
7.85 0.89866
7.9 1.06074
7.95 1.21104
8 1.35189
8.05 1.48187
8.1 1.60079
8.15 1.70748
8.2 1.80103
8.25 1.87715
8.3 1.9479
8.35 2.01174
8.4 2.06024
8.45 2.10124
8.5 2.13219
8.55 2.15598
8.6 2.1743
8.65 2.18672
8.7 2.19339
8.75 2.19593
8.8 2.19241
8.85 2.18366
8.9 2.17177
8.95 2.15573
9 2.14417
9.05 2.13203
9.1 2.11874
9.15 2.0985
9.2 2.07388
9.25 2.05367
9.3 2.03303
9.35 2.00875
9.4 1.98303
9.45 1.96043
9.5 1.93988
9.55 1.91669
9.6 1.8875
9.65 1.85464
9.7 1.82533
9.75 1.79111
9.8 1.7577
9.85 1.72711
9.9 1.69223
9.95 1.66028
10 1.62281
10.05 1.58816
10.1 1.55126
10.15 1.51326
10.2 1.474
10.25 1.43747
10.3 1.39523
10.35 1.35297
10.4 1.3064
10.45 1.25857
10.5 1.21257
10.55 1.17212
10.6 1.12807
10.65 1.08514
10.7 1.04098
10.75 0.99402
10.8 0.94729
10.85 0.9004
10.9 0.85395
10.95 0.80773
11 0.76364
11.05 0.71833
11.1 0.68045
11.15 0.64682
11.2 0.611
11.25 0.57658
11.3 0.53889
11.35 0.49763
11.4 0.46077
11.45 0.42538
11.5 0.38914
11.55 0.35241
11.6 0.31545
11.65 0.28299
11.7 0.25215
11.75 0.21918
11.8 0.1894
11.85 0.15476
11.9 0.12288
11.95 0.0914
12 0.06473
12.05 0.04029
12.1 0.01233
12.15 -0.01088
12.2 -0.03793
12.25 -0.06702
12.3 -0.09038
12.35 -0.10995
12.4 -0.12839
12.45 -0.15035
12.5 -0.17329
12.55 -0.19659
12.6 -0.21923
12.65 -0.23759
12.7 -0.24875
12.75 -0.26065
12.8 -0.27516
12.85 -0.28825
12.9 -0.29838
12.95 -0.30253
13 -0.30329
13.05 -0.30819
13.1 -0.31195
13.15 -0.31228
13.2 -0.3194
13.25 -0.32328
13.3 -0.32772
13.35 -0.33543
13.4 -0.33918
13.45 -0.33951
13.5 -0.33798
13.55 -0.33953
13.6 -0.3434
13.65 -0.34549
13.7 -0.34385
13.75 -0.34722
13.8 -0.35033
13.85 -0.35288
13.9 -0.35305
13.95 -0.35004
14 -0.34675
14.05 -0.34893
14.1 -0.35246
14.15 -0.35011
14.2 -0.34904
14.25 -0.34867
14.3 -0.3504
14.35 -0.34748
14.4 -0.3444
14.45 -0.33926
14.5 -0.33912
14.55 -0.3383
14.6 -0.33803
14.65 -0.33633
14.7 -0.33503
14.75 -0.32843
14.8 -0.32172
14.85 -0.31412
14.9 -0.30803
14.95 -0.29998
15 -0.29265
15.05 -0.28282
15.1 -0.27938
15.15 -0.27443
15.2 -0.27092
15.25 -0.27109
15.3 -0.2703
15.35 -0.26774
15.4 -0.26562
15.45 -0.25944
15.5 -0.2522
15.55 -0.25171
15.6 -0.24641
15.65 -0.24362
15.7 -0.24533
15.75 -0.24342
15.8 -0.24427
15.85 -0.2391
15.9 -0.23669
15.95 -0.23692
16 -0.23162
16.05 -0.22975
16.1 -0.23032
16.15 -0.22511
16.2 -0.22185
16.25 -0.22074
16.3 -0.21567
16.35 -0.20983
16.4 -0.2047
16.45 -0.20251
16.5 -0.20388
16.55 -0.19961
16.6 -0.1945
16.65 -0.1898
16.7 -0.1817
16.75 -0.17922
16.8 -0.17402
16.85 -0.17364
16.9 -0.17091
16.95 -0.16835
17 -0.16652
17.05 -0.16523
17.1 -0.15943
17.15 -0.15149
17.2 -0.14691
17.25 -0.14731
17.3 -0.14577
17.35 -0.14887
17.4 -0.14775
17.45 -0.14555
17.5 -0.14685
17.55 -0.14758
17.6 -0.14551
17.65 -0.13804
17.7 -0.136
17.75 -0.13505
17.8 -0.12907
17.85 -0.12221
17.9 -0.12104
17.95 -0.11918
18 -0.1221
18.05 -0.12475
18.1 -0.12513
18.15 -0.12563
18.2 -0.12647
18.25 -0.12933
18.3 -0.12948
18.35 -0.12797
18.4 -0.12648
18.45 -0.12073
18.5 -0.11735
18.55 -0.11218
18.6 -0.10371
18.65 -0.10178
18.7 -0.09633
18.75 -0.09459
18.8 -0.09431
18.85 -0.09264
18.9 -0.08884
18.95 -0.08507
19 -0.08294
19.05 -0.08288
19.1 -0.0801
19.15 -0.07476
19.2 -0.07107
19.25 -0.06675
19.3 -0.0692
19.35 -0.07215
19.4 -0.07741
19.45 -0.07663
19.5 -0.07226
19.55 -0.07043
19.6 -0.06786
19.65 -0.06321
19.7 -0.0577
19.75 -0.05065
19.8 -0.05096
19.85 -0.04857
19.9 -0.04998
19.95 -0.04865
20 -0.04562
20.05 -0.04776
20.1 -0.04907
20.15 -0.04708
20.2 -0.0509
20.25 -0.0533
20.3 -0.0558
20.35 -0.05624
20.4 -0.05592
20.45 -0.05335
20.5 -0.04836
20.55 -0.04775
20.6 -0.04981
20.65 -0.05054
20.7 -0.049
20.75 -0.04597
20.8 -0.04336
20.85 -0.04109
20.9 -0.04249
20.95 -0.04167
21 -0.04107
21.05 -0.04405
21.1 -0.04513
21.15 -0.04434
21.2 -0.04065
21.25 -0.03559
21.3 -0.03402
21.35 -0.03178
21.4 -0.03091
21.45 -0.02818
21.5 -0.03023
21.55 -0.03114
21.6 -0.02882
21.65 -0.02372
21.7 -0.01964
21.75 -0.01903
21.8 -0.01978
21.85 -0.02142
21.9 -0.02763
21.95 -0.03693
22 -0.03997
22.05 -0.04413
22.1 -0.04813
22.15 -0.05291
22.2 -0.05817
22.25 -0.05932
22.3 -0.05556
22.35 -0.05218
22.4 -0.04925
22.45 -0.04941
22.5 -0.04769
22.55 -0.04659
22.6 -0.04693
22.65 -0.04454
22.7 -0.04395
22.75 -0.04016
22.8 -0.03863
22.85 -0.03928
22.9 -0.03752
22.95 -0.0337
23 -0.02739
23.05 -0.0208
23.1 -0.0173
23.15 -0.01709
23.2 -0.01328
23.25 -0.01082
23.3 -0.00754
23.35 -0.00774
23.4 -0.00968
23.45 -0.01337
23.5 -0.01598
23.55 -0.01455
23.6 -0.01501
23.65 -0.01725
23.7 -0.01852
23.75 -0.02403
23.8 -0.02404
23.85 -0.02536
23.9 -0.02233
23.95 -0.02096
24 -0.02245
24.05 -0.02763
24.1 -0.02618
24.15 -0.02373
24.2 -0.02594
24.25 -0.02822
24.3 -0.03081
24.35 -0.03548
24.4 -0.03293
24.45 -0.03165
24.5 -0.03345
24.55 -0.03741
24.6 -0.04245
24.65 -0.04626
24.7 -0.04518
24.75 -0.04395
24.8 -0.04375
24.85 -0.03776
24.9 -0.02746
24.95 -0.01958
25 -0.01474
25.05 -0.00966
25.1 -0.00463
25.15 -0.00202
25.2 -0.0042
25.25 -0.00649
25.3 -0.00567
25.35 -0.00971
25.4 -0.01552
25.45 -0.01992
25.5 -0.02066
25.55 -0.01967
25.6 -0.02004
25.65 -0.01984
25.7 -0.01902
25.75 -0.01475
25.8 -0.01001
25.85 -0.00436
25.9 -0.00255
25.95 -0.00394
26 -0.00381
26.05 -0.00032
26.1 0.00089
26.15 -0.00002
26.2 -0.00562
26.25 -0.01228
26.3 -0.01828
26.35 -0.02372
26.4 -0.02942
26.45 -0.02847
26.5 -0.02639
26.55 -0.02333
26.6 -0.02155
26.65 -0.02131
26.7 -0.01632
26.75 -0.01362
26.8 -0.01165
26.85 -0.00947
26.9 -0.0037
26.95 0.00171
27 0.001
27.05 0.002
27.1 0.0029
27.15 -0.0007
27.2 -0.0067
27.25 -0.01167
27.3 -0.01269
27.35 -0.0086
27.4 -0.00472
27.45 0.00172
27.5 0.00121
27.55 -0.00167
27.6 0.00082
27.65 0.00113
27.7 0.00035
27.75 -0.00182
27.8 -0.00675
27.85 -0.00972
27.9 -0.0119
27.95 -0.01344
28 -0.00936
28.05 -0.00487
28.1 0.00085
28.15 0.00251
28.2 0.00706
28.25 0.01093
28.3 0.0093
28.35 0.00215
28.4 -0.00186
28.45 -0.00954
28.5 -0.01565
28.55 -0.0164
28.6 -0.01875
28.65 -0.01788
28.7 -0.02183
28.75 -0.02502
28.8 -0.02944
28.85 -0.03675
28.9 -0.04257
28.95 -0.04622
29 -0.0481
29.05 -0.04627
29.1 -0.05047
29.15 -0.05419
29.2 -0.06128
29.25 -0.06834
29.3 -0.06995
29.35 -0.07428
29.4 -0.07662
29.45 -0.07572
29.5 -0.07552
29.55 -0.07499
29.6 -0.07338
29.65 -0.07617
29.7 -0.07943
29.75 -0.07864
29.8 -0.08297
29.85 -0.09006
29.9 -0.09224
29.95 -0.09417
30 -0.09658
30.05 -0.09749
30.1 -0.09687
30.15 -0.09151
30.2 -0.08306
30.25 -0.06982
30.3 -0.05651
30.35 -0.04543
30.4 -0.03214
30.45 -0.0186
30.5 -0.00646
30.55 0.00252
30.6 0.01072
30.65 0.0229
30.7 0.0331
30.75 0.0365
30.8 0.03956
30.85 0.0405
30.9 0.04345
30.95 0.04531
31 0.04212
31.05 0.04412
31.1 0.04804
31.15 0.04661
31.2 0.04286
31.25 0.0398
31.3 0.03831
31.35 0.03905
31.4 0.0382
31.45 0.03695
31.5 0.03327
31.55 0.03484
31.6 0.03331
31.65 0.03536
31.7 0.03407
31.75 0.03665
31.8 0.03589
31.85 0.03205
31.9 0.03341
31.95 0.03701
32 0.03519
32.05 0.03101
32.1 0.02885
32.15 0.03389
32.2 0.03891
32.25 0.04109
32.3 0.04454
32.35 0.05101
32.4 0.05803
32.45 0.06297
32.5 0.06948
32.55 0.07112
32.6 0.07341
32.65 0.07542
32.7 0.08101
32.75 0.08374
32.8 0.08202
32.85 0.08437
32.9 0.08015
32.95 0.07455
33 0.07191
33.05 0.074
33.1 0.07197
33.15 0.06664
33.2 0.06579
33.25 0.06698
33.3 0.07044
33.35 0.06747
33.4 0.05987
33.45 0.05845
33.5 0.05394
33.55 0.0535
33.6 0.04801
33.65 0.04721
33.7 0.04613
33.75 0.04606
33.8 0.04084
33.85 0.03371
33.9 0.03186
33.95 0.0274
34 0.02684
34.05 0.02311
34.1 0.02424
34.15 0.02552
34.2 0.02636
34.25 0.02672
34.3 0.02625
34.35 0.02263
34.4 0.01478
34.45 0.00671
34.5 0.00169
34.55 -0.00477
34.6 -0.00754
34.65 -0.0106
34.7 -0.01062
34.75 -0.01227
34.8 -0.01504
34.85 -0.01383
34.9 -0.01354
34.95 -0.01176
35 -0.01448
35.05 -0.02036
35.1 -0.02178
35.15 -0.02351
35.2 -0.02093
35.25 -0.01627
35.3 -0.01042
35.35 -0.00807
35.4 -0.00652
35.45 -0.00902
35.5 -0.01543
35.55 -0.02125
35.6 -0.02914
35.65 -0.03574
35.7 -0.04165
35.75 -0.04717
35.8 -0.05125
35.85 -0.04921
35.9 -0.04536
35.95 -0.03595
36 -0.02652
36.05 -0.0155
36.1 -0.00853
36.15 -0.00301
36.2 -0.00065
36.25 0.00287
36.3 0.00338
36.35 0.00165
36.4 0.00307
36.45 0.00019
36.5 -0.00318
36.55 -0.00891
36.6 -0.01377
36.65 -0.01979
36.7 -0.02014
36.75 -0.01689
36.8 -0.01142
36.85 -0.01064
36.9 -0.01462
36.95 -0.01493
37 -0.01471
37.05 -0.01358
37.1 -0.01584
37.15 -0.01403
37.2 -0.01319
37.25 -0.0095
37.3 -0.0112
37.35 -0.00917
37.4 -0.01222
37.45 -0.01432
37.5 -0.01735
37.55 -0.0171
37.6 -0.01362
37.65 -0.01028
37.7 -0.00549
37.75 -0.00591
37.8 -0.00725
37.85 -0.00386
37.9 0.00006
37.95 0.00581
38 0.00411
38.05 0.00366
38.1 0.00049
38.15 -0.00269
38.2 -0.00668
38.25 -0.00803
38.3 -0.00481
38.35 0.00036
38.4 0.00125
38.45 -0.00003
38.5 -0.00369
38.55 -0.00195
38.6 -0.00559
38.65 -0.01014
38.7 -0.00992
38.75 -0.00989
38.8 -0.01333
38.85 -0.01684
38.9 -0.01376
38.95 -0.00913
39 -0.00912
39.05 -0.00472
39.1 -0.00175
39.15 -0.00149
39.2 0.00225
39.25 0.00827
39.3 0.0104
39.35 0.00978
39.4 0.00691
39.45 0.00284
39.5 -0.00323
39.55 -0.01018
39.6 -0.01407
39.65 -0.01448
39.7 -0.01312
39.75 -0.01186
39.8 -0.00705
39.85 -0.00729
39.9 -0.00916
39.95 -0.01371
40 -0.01681
40.05 -0.01926
40.1 -0.02149
40.15 -0.01689
40.2 -0.01684
40.25 -0.01716
40.3 -0.0192
40.35 -0.01915
40.4 -0.01395
40.45 -0.01041
40.5 -0.01195
40.55 -0.01618
40.6 -0.01947
40.65 -0.01624
40.7 -0.01548
40.75 -0.01581
40.8 -0.01897
40.85 -0.01943
40.9 -0.01953
40.95 -0.01682
41 -0.01475
41.05 -0.01323
41.1 -0.0134
41.15 -0.01657
41.2 -0.01667
41.25 -0.01815
41.3 -0.0172
41.35 -0.0158
41.4 -0.01608
41.45 -0.00998
41.5 -0.0083
41.55 -0.01055
41.6 -0.01449
41.65 -0.01972
41.7 -0.01812
41.75 -0.01756
41.8 -0.01206
41.85 -0.00631
41.9 -0.00483
41.95 0.00159
42 0.00835
42.05 0.01639
42.1 0.0205
42.15 0.02048
42.2 0.02201
42.25 0.01896
42.3 0.01224
42.35 0.01125
42.4 0.01215
42.45 0.01076
42.5 0.00966
42.55 0.00928
42.6 0.00662
42.65 0.00912
42.7 0.00913
42.75 0.00857
42.8 0.00546
42.85 0.00478
42.9 0.00321
42.95 0.00392
43 0.00724
43.05 0.0052
43.1 0.0052
43.15 0.00787
43.2 0.0066
43.25 0.00166
43.3 -0.00149
43.35 -0.0076
43.4 -0.01089
43.45 -0.01338
43.5 -0.01198
43.55 -0.00958
43.6 -0.0046
43.65 -0.00336
43.7 -0.00374
43.75 -0.00431
43.8 -0.00423
43.85 -0.00345
43.9 -0.0037
43.95 -0.00243
44 0.00173
44.05 0.00105
44.1 -0.00245
44.15 -0.00054
44.2 -0.00241
44.25 -0.00476
44.3 -0.00765
44.35 -0.01203
44.4 -0.01241
44.45 -0.01379
44.5 -0.00983
44.55 -0.00383
44.6 -0.00295
44.65 0.0028
44.7 0.00377
44.75 0.00242
44.8 0.00243
44.85 0.00656
44.9 0.0079
44.95 0.01196
45 0.01605
45.05 0.01718
45.1 0.01354
45.15 0.00585
45.2 0.003
45.25 -0.00064
45.3 -0.00104
45.35 -0.00097
45.4 0.00158
45.45 0.0075
45.5 0.0096
45.55 0.00585
45.6 -0.00013
45.65 -0.00424
45.7 -0.00792
45.75 -0.00653
45.8 -0.00465
45.85 -0.00427
45.9 -0.00006
45.95 0.00277
46 0.00476
46.05 0.00415
46.1 0.00069
46.15 0.00261
46.2 0.00057
46.25 -0.00026
46.3 0.00197
46.35 0.00185
46.4 0.00048
46.45 -0.00299
46.5 -0.0039
46.55 -0.00466
46.6 -0.00645
46.65 -0.00481
46.7 -0.00374
46.75 0.00082
46.8 -0.00039
46.85 -0.00544
46.9 -0.01202
46.95 -0.01898
47 -0.02553
47.05 -0.0275
47.1 -0.02179
47.15 -0.01713
47.2 -0.01024
47.25 -0.00813
47.3 -0.00489
47.35 0.00013
47.4 0.0035
47.45 0.0083
47.5 0.01462
47.55 0.02215
47.6 0.02312
47.65 0.02257
47.7 0.02419
47.75 0.02489
47.8 0.02592
47.85 0.02511
47.9 0.02604
47.95 0.02428
48 0.02549
48.05 0.02384
48.1 0.01796
48.15 0.01053
48.2 0.00037
48.25 -0.00754
48.3 -0.00902
48.35 -0.00998
48.4 -0.00943
48.45 -0.0081
48.5 -0.00649
48.55 -0.00576
48.6 -0.00264
48.65 -0.00419
48.7 -0.00199
48.75 -0.00047
48.8 -0.00313
48.85 -0.00499
48.9 -0.00673
48.95 -0.00423
49 -0.00333
49.05 -0.00427
49.1 -0.00407
49.15 -0.00096
49.2 -0.00242
49.25 -0.00004
49.3 0.00266
49.35 0.00794
49.4 0.01403
49.45 0.02079
49.5 0.02265
49.55 0.0236
49.6 0.02603
49.65 0.02145
49.7 0.01597
49.75 0.00904
49.8 0.00458
49.85 0.00438
49.9 0.00258
49.95 0.00163
50 0.00467
50.05 0.00183
50.1 -0.00444
50.15 -0.00531
50.2 -0.00402
50.25 -0.00223
50.3 0.00299
50.35 0.00374
50.4 0.00688
50.45 0.00959
50.5 0.01362
50.55 0.01775
50.6 0.01615
50.65 0.00897
50.7 0.00287
50.75 -0.00437
50.8 -0.01038
50.85 -0.01194
50.9 -0.0145
50.95 -0.01212
51 -0.00538
51.05 0.00201
51.1 0.00288
51.15 0.00286
51.2 -0.00132
51.25 -0.00503
51.3 -0.01091
51.35 -0.01739
51.4 -0.02057
51.45 -0.02516
51.5 -0.02539
51.55 -0.0223
51.6 -0.02076
51.65 -0.01506
51.7 -0.01046
51.75 -0.00385
51.8 0.00253
51.85 0.00487
51.9 0.00858
51.95 0.00952
52 0.00903
52.05 0.01059
52.1 0.01414
52.15 0.01213
52.2 0.00656
52.25 -0.0015
52.3 -0.00351
52.35 -0.00805
52.4 -0.01291
52.45 -0.01178
52.5 -0.01279
52.55 -0.01044
52.6 -0.01196
52.65 -0.01565
52.7 -0.01302
52.75 -0.01219
52.8 -0.0134
52.85 -0.01651
52.9 -0.01945
52.95 -0.01576
53 -0.00842
53.05 -0.00305
53.1 -0.00344
53.15 -0.00276
53.2 0.00007
53.25 0.0005
53.3 -0.00115
53.35 0.00018
53.4 0.00553
53.45 0.00852
53.5 0.00715
53.55 0.00537
53.6 0.00422
53.65 0.00472
53.7 0.00362
53.75 0.00223
53.8 -0.00204
53.85 -0.00224
53.9 -0.00652
53.95 -0.00503
54 -0.00284
54.05 -0.00428
54.1 -0.00801
54.15 -0.0127
54.2 -0.01311
54.25 -0.01442
54.3 -0.01256
54.35 -0.00595
54.4 -0.00164
54.45 -0.00305
54.5 -0.00762
54.55 -0.01187
54.6 -0.01487
54.65 -0.01163
54.7 -0.00638
54.75 -0.00455
54.8 -0.00152
54.85 0.00335
54.9 0.01049
54.95 0.01478
55 0.01749
55.05 0.01621
55.1 0.01839
55.15 0.02114
55.2 0.02521
55.25 0.02298
55.3 0.02317
55.35 0.02483
55.4 0.01967
55.45 0.01439
55.5 0.00612
55.55 -0.00274
55.6 -0.00962
55.65 -0.01212
55.7 -0.01072
55.75 -0.00891
55.8 -0.00288
55.85 -0.00104
55.9 -0.00151
55.95 -0.00037
56 0.00078
56.05 0.00431
56.1 0.00217
56.15 0.00067
56.2 -0.00398
56.25 -0.0107
56.3 -0.01808
56.35 -0.02316
56.4 -0.02191
56.45 -0.01662
56.5 -0.01316
56.55 -0.00639
56.6 0.00018
56.65 0.00743
56.7 0.00883
56.75 0.00763
56.8 0.00629
56.85 0.00924
56.9 0.00801
56.95 0.00424
57 0.00474
57.05 0.00342
57.1 0.0058
57.15 0.00555
57.2 0.0048
57.25 0.00608
57.3 0.00858
57.35 0.00914
57.4 0.00993
57.45 0.01331
57.5 0.01084
57.55 0.01185
57.6 0.01545
57.65 0.01469
57.7 0.01324
57.75 0.00811
57.8 0.0013
57.85 0.00015
57.9 0.0017
57.95 0.00458
58 0.00907
58.05 0.00993
58.1 0.01026
58.15 0.00725
58.2 0.00317
58.25 0.00183
58.3 0.00151
58.35 -0.00261
58.4 -0.00181
58.45 0.00232
58.5 0.0073
58.55 0.00524
58.6 -0.00058
58.65 -0.00036
58.7 -0.00445
58.75 -0.01124
58.8 -0.01779
58.85 -0.02399
58.9 -0.02583
58.95 -0.02848
59 -0.02774
59.05 -0.02726
59.1 -0.02851
59.15 -0.02301
59.2 -0.02016
59.25 -0.01279
59.3 -0.01024
59.35 -0.00519
59.4 -0.00197
59.45 0.00182
59.5 0.00377
59.55 0.0035
59.6 0.00159
59.65 -0.00164
59.7 -0.00018
59.75 0.00412
59.8 0.00526
59.85 0.00403
59.9 0.00034
59.95 -0.00456
60 -0.00669
60.05 -0.00803
60.1 -0.00747
60.15 -0.00421
60.2 0.00014
60.25 0.00762
60.3 0.01432
60.35 0.01955
60.4 0.01837
60.45 0.01551
60.5 0.01254
60.55 0.00535
60.6 0.00177
60.65 -0.00108
60.7 -0.00035
60.75 -0.00174
60.8 0.00128
60.85 -0.00042
60.9 0.0023
60.95 0.00575
61 0.01073
61.05 0.01539
61.1 0.02047
61.15 0.02648
61.2 0.02765
61.25 0.02379
61.3 0.02164
61.35 0.01399
61.4 0.00929
61.45 0.00378
61.5 -0.00406
61.55 -0.01284
61.6 -0.01944
61.65 -0.0202
61.7 -0.01602
61.75 -0.01199
61.8 -0.00431
61.85 0.00404
61.9 0.00574
61.95 0.01069
62 0.0131
62.05 0.01142
62.1 0.00543
62.15 0.00327
62.2 0.00286
62.25 0.00378
62.3 0.00188
62.35 0.00193
62.4 0.00023
62.45 -0.00014
62.5 -0.00224
62.55 -0.00262
62.6 -0.00493
62.65 -0.00781
62.7 -0.01267
62.75 -0.01773
62.8 -0.01937
62.85 -0.0146
62.9 -0.00788
62.95 -0.00209
63 0.0007
63.05 -0.00175
63.1 -0.0007
63.15 0.00335
63.2 0.00672
63.25 0.0051
63.3 0.00768
63.35 0.0045
63.4 0.00426
63.45 0.00591
63.5 0.00576
63.55 0.0059
63.6 0.00437
63.65 0.00557
63.7 0.00784
63.75 0.00718
63.8 0.00339
63.85 -0.00018
63.9 -0.00149
63.95 0.00154
64 0.00775
64.05 0.00847
64.1 0.01097
64.15 0.01348
64.2 0.01123
64.25 0.00739
64.3 0.00197
64.35 -0.00553
64.4 -0.01133
64.45 -0.0114
64.5 -0.00646
64.55 -0.00746
64.6 -0.01188
64.65 -0.01365
64.7 -0.01595
64.75 -0.01857
64.8 -0.01645
64.85 -0.01591
64.9 -0.01592
64.95 -0.01316
65 -0.01483
65.05 -0.01406
65.1 -0.01697
65.15 -0.02089
65.2 -0.02396
65.25 -0.02819
65.3 -0.03003
65.35 -0.02787
65.4 -0.01961
65.45 -0.01708
65.5 -0.01786
65.55 -0.01701
65.6 -0.01183
65.65 -0.00606
65.7 -0.00235
65.75 0.00274
65.8 0.00204
65.85 -0.00178
65.9 -0.0066
65.95 -0.00727
66 -0.00967
66.05 -0.01217
66.1 -0.00833
66.15 -0.0006
66.2 0.0082
66.25 0.01363
66.3 0.0128
66.35 0.0095
66.4 0.00795
66.45 0.00772
66.5 0.01013
66.55 0.01217
66.6 0.01354
66.65 0.01607
66.7 0.02082
66.75 0.02402
66.8 0.02217
66.85 0.02358
66.9 0.02545
66.95 0.027
67 0.02593
67.05 0.02151
67.1 0.0126
67.15 0.00889
67.2 0.00162
67.25 -0.00161
67.3 -0.00208
67.35 -0.00003
67.4 -0.00045
67.45 0.00011
67.5 0.00153
67.55 0.00636
67.6 0.00968
67.65 0.00928
67.7 0.00504
67.75 -0.00154
67.8 -0.00423
67.85 -0.00996
67.9 -0.00939
67.95 -0.00651
68 -0.00673
68.05 -0.00949
68.1 -0.01348
68.15 -0.01172
68.2 -0.01318
68.25 -0.01194
68.3 -0.0077
68.35 0.00021
68.4 0.00118
68.45 0.00186
68.5 -0.00242
68.55 -0.00516
68.6 -0.0043
68.65 -0.0002
68.7 -0.00161
68.75 -0.00216
68.8 -0.0054
68.85 -0.00694
68.9 -0.00512
68.95 -0.00419
69 -0.0049
69.05 -0.00625
69.1 -0.00662
69.15 -0.00329
69.2 0.00223
69.25 0.00258
69.3 0.0014
69.35 -0.00099
69.4 -0.00216
69.45 0.00042
69.5 0.00304
69.55 0.00253
69.6 0.0002
69.65 0.00135
69.7 0.00575
69.75 0.01007
69.8 0.01044
69.85 0.01007
69.9 0.00619
69.95 0.00377
70 0.00114
70.05 0.00318
70.1 0.00643
70.15 0.00381
70.2 0.00028
70.25 0.00113
70.3 -0.00257
70.35 -0.00862
70.4 -0.01594
70.45 -0.01753
70.5 -0.01297
70.55 -0.00784
70.6 -0.00792
70.65 -0.00592
70.7 -0.00432
70.75 0.00037
70.8 0.00182
70.85 0
70.9 -0.00301
70.95 -0.00272
71 -0.00483
71.05 -0.00709
71.1 -0.00398
71.15 -0.00012
71.2 -0.00186
71.25 -0.00692
71.3 -0.01165
71.35 -0.01641
71.4 -0.01743
71.45 -0.01311
71.5 -0.00854
71.55 -0.00682
71.6 -0.00426
71.65 -0.00412
71.7 -0.00638
71.75 -0.00596
71.8 -0.00309
71.85 0.00336
71.9 0.01024
71.95 0.01316
72 0.01409
72.05 0.01438
72.1 0.01203
72.15 0.00528
72.2 -0.00037
72.25 -0.00225
72.3 0.00034
72.35 0.0016
72.4 0.00244
72.45 0.00081
72.5 0.00169
72.55 0.00081
72.6 0.00056
72.65 0.00365
72.7 0.00089
72.75 -0.00377
72.8 -0.00847
72.85 -0.01261
72.9 -0.01322
72.95 -0.01513
73 -0.0156
73.05 -0.01142
73.1 -0.01091
73.15 -0.01248
73.2 -0.01109
73.25 -0.00885
73.3 -0.00659
73.35 -0.00717
73.4 -0.00267
73.45 0.00435
73.5 0.01139
73.55 0.01424
73.6 0.01923
73.65 0.01667
73.7 0.0155
73.75 0.01072
73.8 0.00469
73.85 -0.00246
73.9 -0.00541
73.95 -0.00887
74 -0.00788
74.05 -0.01019
74.1 -0.0099
74.15 -0.01246
74.2 -0.00884
74.25 -0.00321
74.3 -0.00278
74.35 -0.00495
74.4 -0.00339
74.45 0.00129
74.5 0.00742
74.55 0.00834
74.6 0.01242
74.65 0.01555
74.7 0.02009
74.75 0.02074
74.8 0.01578
74.85 0.01029
74.9 0.00688
74.95 0.00116
75 -0.00591
75.05 -0.00979
75.1 -0.01477
75.15 -0.01471
75.2 -0.01424
75.25 -0.01461
75.3 -0.01297
75.35 -0.00848
75.4 -0.00508
75.45 -0.00474
75.5 -0.00213
75.55 0.00278
75.6 0.00795
75.65 0.00623
75.7 0.00596
75.75 0.00593
75.8 0.00606
75.85 0.0044
75.9 -0.00089
75.95 -0.00462
76 -0.00377
76.05 -0.00158
76.1 -0.00139
76.15 -0.00401
76.2 -0.00403
76.25 -0.00757
76.3 -0.00993
76.35 -0.00921
76.4 -0.00387
76.45 0.00279
76.5 0.00588
76.55 0.01166
76.6 0.01903
76.65 0.02619
76.7 0.03216
76.75 0.03644
76.8 0.0377
76.85 0.03169
76.9 0.02826
76.95 0.02733
77 0.02392
77.05 0.01876
77.1 0.01442
77.15 0.00933
77.2 0.00905
77.25 0.01239
77.3 0.01777
77.35 0.01861
77.4 0.01596
77.45 0.01332
77.5 0.00808
77.55 0.00666
77.6 0.00089
77.65 0.00048
77.7 0.00372
77.75 0.0052
77.8 0.00183
77.85 0.0035
77.9 -0.00027
77.95 -0.00465
78 -0.00669
78.05 -0.00743
78.1 -0.01203
78.15 -0.01057
78.2 -0.00821
78.25 -0.00915
78.3 -0.00886
78.35 -0.00769
78.4 -0.00354
78.45 -0.0033
78.5 -0.0048
78.55 -0.00832
78.6 -0.01043
78.65 -0.00715
78.7 -0.00779
78.75 -0.01011
78.8 -0.01202
78.85 -0.00984
78.9 -0.01015
78.95 -0.01418
79 -0.01511
79.05 -0.0173
79.1 -0.01475
79.15 -0.01383
79.2 -0.00985
79.25 -0.00859
79.3 -0.01074
79.35 -0.01037
79.4 -0.00585
79.45 -0.00381
79.5 -0.00198
79.55 0.00176
79.6 0.00342
79.65 -0.00048
79.7 -0.00237
79.75 -0.00314
79.8 -0.00357
79.85 0.00059
79.9 0.00631
79.95 0.0083
80 0.01298
80.05 0.01059
80.1 0.00993
80.15 0.0087
80.2 0.01074
80.25 0.00984
80.3 0.01166
80.35 0.01541
80.4 0.01883
80.45 0.01885
80.5 0.01836
80.55 0.01281
80.6 0.00662
80.65 -0.00048
80.7 -0.00317
80.75 -0.0077
80.8 -0.00745
80.85 -0.01057
80.9 -0.00955
80.95 -0.00997
81 -0.01301
81.05 -0.01323
81.1 -0.01262
81.15 -0.00723
81.2 -0.00314
81.25 -0.00195
81.3 0.0015
81.35 0.00701
81.4 0.01389
81.45 0.01626
81.5 0.01805
81.55 0.01724
81.6 0.01076
81.65 0.00479
81.7 0.00168
81.75 -0.00336
81.8 -0.00265
81.85 -0.00288
81.9 -0.00017
81.95 0.00466
82 0.00828
82.05 0.00593
82.1 0.00396
82.15 -0.00241
82.2 -0.00392
82.25 -0.00478
82.3 -0.00161
82.35 0.00045
82.4 0.00199
82.45 0.00599
82.5 0.01008
82.55 0.01581
82.6 0.01526
82.65 0.01523
82.7 0.01344
82.75 0.01409
82.8 0.0111
82.85 0.01068
82.9 0.0077
82.95 0.00269
83 -0.00013
83.05 0.00011
83.1 0.0001
83.15 0.00134
83.2 -0.00055
83.25 0.00203
83.3 0.00129
83.35 0.00244
83.4 0.0014
83.45 0.00465
83.5 0.00634
83.55 0.00638
83.6 0.00937
83.65 0.01263
83.7 0.01014
83.75 0.00937
83.8 0.01193
83.85 0.01233
83.9 0.01274
83.95 0.01405
84 0.01456
84.05 0.00939
84.1 0.00149
84.15 -0.00612
84.2 -0.01538
84.25 -0.02285
84.3 -0.02864
84.35 -0.03494
84.4 -0.03273
84.45 -0.03051
84.5 -0.03081
84.55 -0.03204
84.6 -0.03316
84.65 -0.03195
84.7 -0.02652
84.75 -0.0174
84.8 -0.01076
84.85 -0.00752
84.9 -0.00083
84.95 0.00138
85 0.00608
85.05 0.00765
85.1 0.01071
85.15 0.00847
85.2 0.00904
85.25 0.0111
85.3 0.01284
85.35 0.01434
85.4 0.01431
85.45 0.01483
85.5 0.01111
85.55 0.01147
85.6 0.00598
85.65 0.00008
85.7 -0.00488
85.75 -0.00364
85.8 -0.00071
85.85 -0.00268
85.9 -0.0085
85.95 -0.0142
86 -0.01672
86.05 -0.01764
86.1 -0.01552
86.15 -0.01493
86.2 -0.01183
86.25 -0.0129
86.3 -0.01266
86.35 -0.01034
86.4 -0.00577
86.45 -0.00726
86.5 -0.00437
86.55 0.00108
86.6 0.00156
86.65 -0.00097
86.7 -0.00178
86.75 -0.00094
86.8 0.00107
86.85 -0.00166
86.9 -0.00609
86.95 -0.00923
87 -0.01198
87.05 -0.01121
87.1 -0.00769
87.15 -0.00494
87.2 -0.00495
87.25 -0.00554
87.3 -0.00147
87.35 -0.00265
87.4 -0.00013
87.45 0.00417
87.5 0.00529
87.55 0.00696
87.6 0.00308
87.65 -0.00185
87.7 -0.00573
87.75 -0.00959
87.8 -0.0116
87.85 -0.01222
87.9 -0.0093
87.95 -0.00323
88 0.00214
88.05 0.00162
88.1 0.00153
88.15 0.00075
88.2 0.0036
88.25 0.00735
88.3 0.00886
88.35 0.01128
88.4 0.01049
88.45 0.00523
88.5 0.00169
88.55 0.00096
88.6 -0.00159
88.65 0.00027
88.7 -0.00165
88.75 -0.00609
88.8 -0.0104
88.85 -0.01672
88.9 -0.01543
88.95 -0.01672
89 -0.01733
89.05 -0.01346
89.1 -0.01378
89.15 -0.01746
89.2 -0.01408
89.25 -0.00674
89.3 -0.00205
89.35 -0.00204
89.4 -0.00592
89.45 -0.00559
89.5 -0.00521
89.55 -0.00801
89.6 -0.01271
89.65 -0.01346
89.7 -0.01626
89.75 -0.01663
89.8 -0.01935
89.85 -0.02094
89.9 -0.02241
89.95 -0.02384
90 -0.01968
90.05 -0.01467
90.1 -0.00808
90.15 -0.0008
90.2 0.0055
90.25 0.0095
90.3 0.00837
90.35 0.00563
90.4 -0.00038
90.45 -0.0034
90.5 -0.00612
90.55 -0.01134
90.6 -0.01387
90.65 -0.01538
90.7 -0.01619
90.75 -0.01892
90.8 -0.0185
90.85 -0.01952
90.9 -0.01365
90.95 -0.01086
91 -0.00492
91.05 0.0037
91.1 0.00594
91.15 0.00947
91.2 0.00792
91.25 0.00903
91.3 0.01384
91.35 0.01818
91.4 0.02183
91.45 0.02305
91.5 0.02329
91.55 0.02552
91.6 0.02689
91.65 0.029
91.7 0.02383
91.75 0.02192
91.8 0.01783
91.85 0.01557
91.9 0.00869
91.95 0.00122
92 -0.00125
92.05 0.00179
92.1 0.00161
92.15 0.00166
92.2 0.00565
92.25 0.00607
92.3 0.00333
92.35 0.00225
92.4 -0.00176
92.45 -0.00785
92.5 -0.01546
92.55 -0.01937
92.6 -0.02477
92.65 -0.0237
92.7 -0.01982
92.75 -0.01502
92.8 -0.0112
92.85 -0.00632
92.9 -0.00004
92.95 0.00023
93 0.00455
93.05 0.01049
93.1 0.013
93.15 0.01017
93.2 0.00854
93.25 0.00666
93.3 0.00399
93.35 -0.00085
93.4 0.00004
93.45 0.00247
93.5 0.00267
93.55 -0.00162
93.6 -0.008
93.65 -0.01319
93.7 -0.01584
93.75 -0.01333
93.8 -0.01022
93.85 -0.00784
93.9 -0.00647
93.95 -0.00801
94 -0.01177
94.05 -0.01323
94.1 -0.01632
94.15 -0.0147
94.2 -0.01525
94.25 -0.01368
94.3 -0.01551
94.35 -0.01313
94.4 -0.01129
94.45 -0.01124
94.5 -0.01012
94.55 -0.00398
94.6 0.00084
94.65 0.00331
94.7 0.00897
94.75 0.01054
94.8 0.00769
94.85 0.00718
94.9 0.00727
94.95 0.00981
95 0.00638
95.05 0.00608
95.1 0.00523
95.15 0.00286
95.2 0.00505
95.25 0.01043
95.3 0.01739
95.35 0.0189
95.4 0.0225
95.45 0.02502
95.5 0.02025
95.55 0.01602
95.6 0.01045
95.65 0.00942
95.7 0.00865
95.75 0.00801
95.8 0.00818
95.85 0.00821
95.9 0.00417
95.95 0.00283
96 -0.00056
96.05 -0.00284
96.1 -0.00027
96.15 0.00323
96.2 0.00965
96.25 0.00829
96.3 0.00465
96.35 0.00638
96.4 0.00829
96.45 0.00887
96.5 0.00527
96.55 0.00676
96.6 0.00254
96.65 0.00189
96.7 -0.00048
96.75 0.00078
96.8 -0.00312
96.85 -0.00348
96.9 -0.00391
96.95 -0.00847
97 -0.01149
97.05 -0.0157
97.1 -0.02156
97.15 -0.02638
97.2 -0.02591
97.25 -0.02499
97.3 -0.0206
97.35 -0.01966
97.4 -0.01906
97.45 -0.01705
97.5 -0.01204
97.55 -0.00659
97.6 -0.00085
97.65 0.0047
97.7 0.00637
97.75 0.00569
97.8 0.00524
97.85 0.00516
97.9 0.00443
97.95 0.00587
98 0.00945
98.05 0.00686
98.1 0.00382
98.15 0.00342
98.2 0.00026
98.25 -0.00084
98.3 0.00128
98.35 0.00063
98.4 -0.00164
98.45 -0.00158
98.5 -0.00279
98.55 -0.00289
98.6 -0.00248
98.65 -0.00017
98.7 0.00098
98.75 -0.00265
98.8 -0.00771
98.85 -0.012
98.9 -0.01397
98.95 -0.01638
99 -0.01355
99.05 -0.01361
99.1 -0.01217
99.15 -0.01429
99.2 -0.01576
99.25 -0.01766
99.3 -0.01818
99.35 -0.01548
99.4 -0.01201
99.45 -0.00795
99.5 -0.00597
99.55 -0.00137
99.6 0.00514
99.65 0.01208
99.7 0.01565
99.75 0.01746
99.8 0.01792
99.85 0.01552
99.9 0.01671
99.95 0.01969
