0 0
0.05 0.0077
0.1 0.01455
0.15 0.02164
0.2 0.02574
0.25 0.02809
0.3 0.03128
0.35 0.03098
0.4 0.03356
0.45 0.03799
0.5 0.04159
0.55 0.04092
0.6 0.03762
0.65 0.03326
0.7 0.03505
0.75 0.03468
0.8 0.03465
0.85 0.03258
0.9 0.0349
0.95 0.03986
1 0.03982
1.05 0.04175
1.1 0.04632
1.15 0.04859
1.2 0.05232
1.25 0.05478
1.3 0.05363
1.35 0.05475
1.4 0.05577
1.45 0.05593
1.5 0.05829
1.55 0.05443
1.6 0.05346
1.65 0.04932
1.7 0.04896
1.75 0.04756
1.8 0.0431
1.85 0.04283
1.9 0.04487
1.95 0.04136
2 0.04199
2.05 0.03925
2.1 0.03727
2.15 0.03406
2.2 0.03059
2.25 0.03127
2.3 0.02853
2.35 0.0226
2.4 0.01674
2.45 0.01741
2.5 0.01463
2.55 0.01595
2.6 0.01624
2.65 0.01486
2.7 0.01541
2.75 0.01543
2.8 0.01856
2.85 0.02016
2.9 0.01973
2.95 0.02269
3 0.02453
3.05 0.02772
3.1 0.02779
3.15 0.02933
3.2 0.0281
3.25 0.02482
3.3 0.01847
3.35 0.01765
3.4 0.01846
3.45 0.02253
3.5 0.02848
3.55 0.02724
3.6 0.02181
3.65 0.02139
3.7 0.02251
3.75 0.02242
3.8 0.02316
3.85 0.0263
3.9 0.02377
3.95 0.01858
4 0.01681
4.05 0.01345
4.1 0.00851
4.15 0.00577
4.2 0.00461
4.25 0.00359
4.3 0.00445
4.35 0.004
4.4 0.00624
4.45 0.00386
4.5 0.0051
4.55 0.0041
4.6 0.00257
4.65 -0.00196
4.7 -0.0086
4.75 -0.0151
4.8 -0.01717
4.85 -0.024
4.9 -0.03398
4.95 -0.04096
5 -0.04496
5.05 -0.04751
5.1 -0.05307
5.15 -0.05992
5.2 -0.07149
5.25 -0.08443
5.3 -0.09587
5.35 -0.11081
5.4 -0.12735
5.45 -0.14163
5.5 -0.15548
5.55 -0.16598
5.6 -0.17693
5.65 -0.18027
5.7 -0.17964
5.75 -0.18041
5.8 -0.17748
5.85 -0.1731
5.9 -0.16125
5.95 -0.14204
6 -0.12536
6.05 -0.10822
6.1 -0.09039
6.15 -0.06783
6.2 -0.04742
6.25 -0.02179
6.3 0.00289
6.35 0.02474
6.4 0.04619
6.45 0.06465
6.5 0.08381
6.55 0.1021
6.6 0.1173
6.65 0.13222
6.7 0.1437
6.75 0.15121
6.8 0.15861
6.85 0.16597
6.9 0.17193
6.95 0.17543
7 0.17408
7.05 0.17176
7.1 0.17094
7.15 0.16858
7.2 0.16734
7.25 0.16646
7.3 0.16709
7.35 0.16328
7.4 0.15984
7.45 0.15453
7.5 0.15147
7.55 0.14321
7.6 0.13692
7.65 0.12569
7.7 0.11655
7.75 0.11215
7.8 0.10672
7.85 0.10069
7.9 0.09062
7.95 0.08549
8 0.08097
8.05 0.07634
8.1 0.07447
8.15 0.07326
8.2 0.07321
8.25 0.06821
8.3 0.06089
8.35 0.05225
8.4 0.04764
8.45 0.04278
8.5 0.04109
8.55 0.03475
8.6 0.02882
8.65 0.02037
8.7 0.01201
8.75 0.00861
8.8 0.00202
8.85 -0.00577
8.9 -0.01236
8.95 -0.01583
9 -0.0139
9.05 -0.01522
9.1 -0.01462
9.15 -0.01574
9.2 -0.01877
9.25 -0.0224
9.3 -0.02189
9.35 -0.01773
9.4 -0.01816
9.45 -0.02068
9.5 -0.02336
9.55 -0.02336
9.6 -0.0221
9.65 -0.02249
9.7 -0.02023
9.75 -0.01708
9.8 -0.01463
9.85 -0.01342
9.9 -0.0112
9.95 -0.00669
10 -0.00278
10.05 -0.00529
10.1 -0.01201
10.15 -0.01427
10.2 -0.01537
10.25 -0.01655
10.3 -0.01925
10.35 -0.01865
10.4 -0.01477
10.45 -0.01149
10.5 -0.00808
10.55 -0.00575
10.6 -0.00145
10.65 -0.00392
10.7 -0.00416
10.75 -0.00157
10.8 0.00038
10.85 -0.00167
10.9 -0.00775
10.95 -0.01098
11 -0.01256
11.05 -0.01199
11.1 -0.01226
11.15 -0.01368
11.2 -0.01813
11.25 -0.02097
11.3 -0.02071
11.35 -0.02162
11.4 -0.02189
11.45 -0.02152
11.5 -0.01676
11.55 -0.01542
11.6 -0.01217
11.65 -0.01073
11.7 -0.01149
11.75 -0.01158
11.8 -0.00847
11.85 -0.00578
11.9 -0.00368
11.95 -0.0055
12 -0.00615
12.05 -0.00634
12.1 -0.00342
12.15 0.0007
12.2 0.00224
12.25 -0.00174
12.3 -0.00699
12.35 -0.0131
12.4 -0.01243
12.45 -0.01338
12.5 -0.01754
12.55 -0.01788
12.6 -0.02037
12.65 -0.01802
12.7 -0.01468
12.75 -0.01488
12.8 -0.01737
12.85 -0.02141
12.9 -0.01854
12.95 -0.01818
13 -0.01796
13.05 -0.01307
13.1 -0.00569
13.15 -0.0002
13.2 0.00167
13.25 0.00533
13.3 0.00664
13.35 0.00267
13.4 0.0013
13.45 -0.00398
13.5 -0.00879
13.55 -0.00982
13.6 -0.00961
13.65 -0.01286
13.7 -0.0167
13.75 -0.0195
13.8 -0.02093
13.85 -0.0219
13.9 -0.02295
13.95 -0.019
14 -0.01246
14.05 -0.00453
14.1 -0.00312
14.15 -0.00245
14.2 -0.00151
14.25 0.00224
14.3 0.0071
14.35 0.00724
14.4 0.00248
14.45 0.00077
14.5 0.00272
14.55 0.00758
14.6 0.00725
14.65 0.00486
14.7 -0.00094
14.75 -0.00617
14.8 -0.0054
14.85 -0.00328
14.9 0.00005
14.95 0.00503
15 0.01071
15.05 0.01126
15.1 0.01456
15.15 0.01218
15.2 0.00837
15.25 0.00528
15.3 0.006
15.35 0.00879
15.4 0.00914
15.45 0.00991
15.5 0.01108
15.55 0.01191
15.6 0.01439
15.65 0.01735
15.7 0.01971
15.75 0.02249
15.8 0.01933
15.85 0.01535
15.9 0.01048
15.95 0.00957
16 0.00792
16.05 0.00939
16.1 0.01251
16.15 0.01238
16.2 0.01372
16.25 0.01272
16.3 0.01406
16.35 0.01254
16.4 0.01075
16.45 0.01075
16.5 0.01042
16.55 0.00899
16.6 0.00277
16.65 -0.0018
16.7 -0.00365
16.75 -0.00886
16.8 -0.01549
16.85 -0.01899
16.9 -0.01896
16.95 -0.01432
17 -0.01301
17.05 -0.01458
17.1 -0.01233
17.15 -0.00919
17.2 -0.00562
17.25 -0.0061
17.3 -0.00288
17.35 -0.0033
17.4 -0.00771
17.45 -0.01227
17.5 -0.01097
17.55 -0.00724
17.6 -0.00867
17.65 -0.01272
17.7 -0.01703
17.75 -0.02072
17.8 -0.02518
17.85 -0.02215
17.9 -0.01635
17.95 -0.01034
18 -0.00747
18.05 -0.00717
18.1 -0.00437
18.15 -0.00639
18.2 -0.0061
18.25 -0.00249
18.3 0.0017
18.35 0.00572
18.4 0.00884
18.45 0.00918
18.5 0.00562
18.55 0.00641
18.6 0.00409
18.65 0.00415
18.7 0.00687
18.75 0.01077
18.8 0.0086
18.85 0.00571
18.9 0.00121
18.95 -0.00501
19 -0.01034
19.05 -0.01487
19.1 -0.01752
19.15 -0.01971
19.2 -0.01933
19.25 -0.0168
19.3 -0.01117
19.35 -0.01083
19.4 -0.01333
19.45 -0.01211
19.5 -0.00707
19.55 -0.00034
19.6 0.00422
19.65 0.00534
19.7 0.00338
19.75 0.0023
19.8 -0.00134
19.85 -0.00358
19.9 -0.00473
19.95 -0.00783
20 -0.00687
20.05 -0.01002
20.1 -0.01314
20.15 -0.01061
20.2 -0.00821
20.25 -0.00311
20.3 0.00187
20.35 0.00392
20.4 0.0071
20.45 0.00494
20.5 -0.00076
20.55 -0.0074
20.6 -0.01283
20.65 -0.01735
20.7 -0.01602
20.75 -0.01394
20.8 -0.01379
20.85 -0.01631
20.9 -0.01703
20.95 -0.01735
21 -0.01408
21.05 -0.0103
21.1 -0.00695
21.15 -0.00291
21.2 0.00319
21.25 0.00595
21.3 0.0092
21.35 0.01135
21.4 0.01085
21.45 0.0084
21.5 0.00645
21.55 0.00704
21.6 0.0107
21.65 0.01306
21.7 0.01022
21.75 0.00488
21.8 -0.00288
21.85 -0.00854
21.9 -0.01068
21.95 -0.01107
22 -0.01214
22.05 -0.01104
22.1 -0.01053
22.15 -0.01224
22.2 -0.01541
22.25 -0.01595
22.3 -0.01225
22.35 -0.01212
22.4 -0.00729
22.45 -0.00683
22.5 -0.00986
22.55 -0.01252
22.6 -0.01052
22.65 -0.00904
22.7 -0.00629
22.75 -0.00729
22.8 -0.01112
22.85 -0.01091
22.9 -0.00918
22.95 -0.00298
23 0.00501
23.05 0.01262
23.1 0.01856
23.15 0.02243
23.2 0.02478
23.25 0.02105
23.3 0.01791
23.35 0.01418
23.4 0.01434
23.45 0.01342
23.5 0.01059
23.55 0.00494
23.6 0.00304
23.65 -0.0019
23.7 -0.00793
23.75 -0.01203
23.8 -0.01583
23.85 -0.01594
23.9 -0.01426
23.95 -0.01008
24 -0.00883
24.05 -0.00339
24.1 -0.00289
24.15 -0.00559
24.2 -0.00659
24.25 -0.00717
24.3 -0.0075
24.35 -0.0038
24.4 0.00275
24.45 0.00765
24.5 0.00743
24.55 0.00762
24.6 0.00589
24.65 0.00029
24.7 -0.0064
24.75 -0.00739
24.8 -0.0109
24.85 -0.0105
24.9 -0.0116
24.95 -0.01371
25 -0.01312
25.05 -0.01099
25.1 -0.01266
25.15 -0.01165
25.2 -0.00835
25.25 -0.009
25.3 -0.01253
25.35 -0.01355
25.4 -0.01079
25.45 -0.00425
25.5 0.00456
25.55 0.00934
25.6 0.0111
25.65 0.01508
25.7 0.01311
25.75 0.00712
25.8 0.00226
25.85 0.00004
25.9 0.00114
25.95 0.00347
26 0.0048
26.05 0.00174
26.1 0.00203
26.15 0.00584
26.2 0.00415
26.25 0.00563
26.3 0.00608
26.35 0.00215
26.4 -0.00027
26.45 -0.00402
26.5 -0.00248
26.55 -0.00468
26.6 -0.00201
26.65 -0.00359
26.7 -0.00084
26.75 0.00127
26.8 -0.00083
26.85 -0.00214
26.9 -0.00076
26.95 0.00335
27 0.00373
27.05 0.00511
27.1 0.00444
27.15 0.0032
27.2 -0.00163
27.25 -0.00667
27.3 -0.00681
27.35 -0.00547
27.4 -0.0057
27.45 -0.00677
27.5 -0.00415
27.55 -0.00198
27.6 0.00156
27.65 -0.00176
27.7 -0.00842
27.75 -0.01794
27.8 -0.02425
27.85 -0.02925
27.9 -0.03541
27.95 -0.04377
28 -0.05149
28.05 -0.06192
28.1 -0.0769
28.15 -0.09221
28.2 -0.11328
28.25 -0.13998
28.3 -0.17175
28.35 -0.20865
28.4 -0.24384
28.45 -0.27804
28.5 -0.31656
28.55 -0.36314
28.6 -0.41267
28.65 -0.46521
28.7 -0.52362
28.75 -0.59247
28.8 -0.66746
28.85 -0.75042
28.9 -0.83769
28.95 -0.93189
29 -1.02452
29.05 -1.1172
29.1 -1.21331
29.15 -1.31371
29.2 -1.41922
29.25 -1.52015
29.3 -1.621
29.35 -1.71982
29.4 -1.81701
29.45 -1.90812
29.5 -1.99265
29.55 -2.07044
29.6 -2.13823
29.65 -2.19471
29.7 -2.23967
29.75 -2.27544
29.8 -2.29988
29.85 -2.31121
29.9 -2.31005
29.95 -2.29548
30 -2.2703
30.05 -2.22973
30.1 -2.17433
30.15 -2.10307
30.2 -2.02344
30.25 -1.93283
30.3 -1.83281
30.35 -1.7188
30.4 -1.5999
30.45 -1.47065
30.5 -1.33199
30.55 -1.19171
30.6 -1.04279
30.65 -0.88706
30.7 -0.73384
30.75 -0.57664
30.8 -0.42153
30.85 -0.26469
30.9 -0.11258
30.95 0.03486
31 0.18295
31.05 0.32396
31.1 0.46416
31.15 0.59789
31.2 0.72319
31.25 0.84564
31.3 0.96056
31.35 1.07042
31.4 1.16949
31.45 1.26131
31.5 1.34523
31.55 1.42265
31.6 1.49344
31.65 1.55394
31.7 1.61123
31.75 1.66554
31.8 1.71097
31.85 1.7521
31.9 1.79038
31.95 1.81851
32 1.84298
32.05 1.85869
32.1 1.87532
32.15 1.88571
32.2 1.8962
32.25 1.90387
32.3 1.90469
32.35 1.90575
32.4 1.90345
32.45 1.90313
32.5 1.90248
32.55 1.89533
32.6 1.88225
32.65 1.87006
32.7 1.8557
32.75 1.84357
32.8 1.82983
32.85 1.81597
32.9 1.8011
32.95 1.78172
33 1.7616
33.05 1.73419
33.1 1.70508
33.15 1.67779
33.2 1.65175
33.25 1.62362
33.3 1.59664
33.35 1.5652
33.4 1.5268
33.45 1.48821
33.5 1.44692
33.55 1.40896
33.6 1.37099
33.65 1.32683
33.7 1.28539
33.75 1.24621
33.8 1.20648
33.85 1.16039
33.9 1.10991
33.95 1.05824
34 1.01
34.05 0.96403
34.1 0.92271
34.15 0.87702
34.2 0.83213
34.25 0.79095
34.3 0.74566
34.35 0.70407
34.4 0.65911
34.45 0.61554
34.5 0.57302
34.55 0.52915
34.6 0.48816
34.65 0.45012
34.7 0.41322
34.75 0.3788
34.8 0.34675
34.85 0.31501
34.9 0.28492
34.95 0.25149
35 0.21779
35.05 0.18262
35.1 0.14908
35.15 0.12076
35.2 0.09521
35.25 0.06717
35.3 0.04151
35.35 0.01592
35.4 -0.00458
35.45 -0.02361
35.5 -0.04336
35.55 -0.06294
35.6 -0.08343
35.65 -0.10408
35.7 -0.12324
35.75 -0.14466
35.8 -0.16068
35.85 -0.17971
35.9 -0.19711
35.95 -0.2096
36 -0.21851
36.05 -0.22941
36.1 -0.24166
36.15 -0.2492
36.2 -0.25503
36.25 -0.26457
36.3 -0.27519
36.35 -0.28022
36.4 -0.28909
36.45 -0.29734
36.5 -0.30471
36.55 -0.30789
36.6 -0.3119
36.65 -0.31782
36.7 -0.3244
36.75 -0.32898
36.8 -0.32853
36.85 -0.33033
36.9 -0.33041
36.95 -0.33209
37 -0.33244
37.05 -0.32791
37.1 -0.32688
37.15 -0.32658
37.2 -0.32944
37.25 -0.33172
37.3 -0.32864
37.35 -0.32835
37.4 -0.32771
37.45 -0.32733
37.5 -0.32947
37.55 -0.32497
37.6 -0.3224
37.65 -0.3182
37.7 -0.31697
37.75 -0.31526
37.8 -0.3162
37.85 -0.31438
37.9 -0.31064
37.95 -0.30689
38 -0.30005
38.05 -0.29006
38.1 -0.28333
38.15 -0.28074
38.2 -0.27619
38.25 -0.27051
38.3 -0.26888
38.35 -0.27057
38.4 -0.27057
38.45 -0.26597
38.5 -0.25783
38.55 -0.24907
38.6 -0.24276
38.65 -0.23937
38.7 -0.23442
38.75 -0.22693
38.8 -0.22177
38.85 -0.22098
38.9 -0.21977
38.95 -0.21497
39 -0.21131
39.05 -0.20856
39.1 -0.20723
39.15 -0.20342
39.2 -0.19871
39.25 -0.19746
39.3 -0.1967
39.35 -0.19765
39.4 -0.19863
39.45 -0.19423
39.5 -0.18956
39.55 -0.18432
39.6 -0.17646
39.65 -0.16767
39.7 -0.16191
39.75 -0.15512
39.8 -0.15155
39.85 -0.15359
39.9 -0.15626
39.95 -0.16123
40 -0.16727
40.05 -0.17112
40.1 -0.16796
40.15 -0.16261
40.2 -0.15756
40.25 -0.15195
40.3 -0.15157
40.35 -0.15025
40.4 -0.14601
40.45 -0.14536
40.5 -0.14023
40.55 -0.136
40.6 -0.13051
40.65 -0.12852
40.7 -0.12808
40.75 -0.1308
40.8 -0.13523
40.85 -0.14047
40.9 -0.14429
40.95 -0.14412
41 -0.14186
41.05 -0.13841
41.1 -0.13179
41.15 -0.12292
41.2 -0.11594
41.25 -0.11337
41.3 -0.1074
41.35 -0.10536
41.4 -0.10316
41.45 -0.10167
41.5 -0.09712
41.55 -0.09148
41.6 -0.08606
41.65 -0.08592
41.7 -0.08651
41.75 -0.09023
41.8 -0.09078
41.85 -0.09027
41.9 -0.08811
41.95 -0.08594
42 -0.08666
42.05 -0.0835
42.1 -0.07815
42.15 -0.07886
42.2 -0.07806
42.25 -0.07952
42.3 -0.07898
42.35 -0.07554
42.4 -0.07687
42.45 -0.07883
42.5 -0.0798
42.55 -0.07775
42.6 -0.07304
42.65 -0.07234
42.7 -0.07008
42.75 -0.06856
42.8 -0.06954
42.85 -0.06642
42.9 -0.06758
42.95 -0.07091
43 -0.07582
43.05 -0.07618
43.1 -0.07247
43.15 -0.06735
43.2 -0.06631
43.25 -0.06352
43.3 -0.06298
43.35 -0.06035
43.4 -0.05784
43.45 -0.05654
43.5 -0.05916
43.55 -0.05935
43.6 -0.05854
43.65 -0.057
43.7 -0.0539
43.75 -0.04963
43.8 -0.04749
43.85 -0.04293
43.9 -0.0415
43.95 -0.03696
44 -0.03217
44.05 -0.02593
44.1 -0.02724
44.15 -0.03169
44.2 -0.03216
44.25 -0.03262
44.3 -0.03391
44.35 -0.03448
44.4 -0.03901
44.45 -0.03991
44.5 -0.03999
44.55 -0.04332
44.6 -0.04449
44.65 -0.04597
44.7 -0.04925
44.75 -0.04946
44.8 -0.0509
44.85 -0.05419
44.9 -0.05113
44.95 -0.04529
45 -0.04353
45.05 -0.03799
45.1 -0.03187
45.15 -0.02738
45.2 -0.02689
45.25 -0.02966
45.3 -0.02742
45.35 -0.02214
45.4 -0.02186
45.45 -0.0194
45.5 -0.01541
45.55 -0.01284
45.6 -0.0113
45.65 -0.00893
45.7 -0.0082
45.75 -0.00733
45.8 -0.00893
45.85 -0.01263
45.9 -0.01379
45.95 -0.0154
46 -0.01376
46.05 -0.01217
46.1 -0.00927
46.15 -0.01149
46.2 -0.01442
46.25 -0.01589
46.3 -0.01388
46.35 -0.01526
46.4 -0.01744
46.45 -0.0217
46.5 -0.02711
46.55 -0.02858
46.6 -0.03163
46.65 -0.02959
46.7 -0.02747
46.75 -0.02605
46.8 -0.02398
46.85 -0.02265
46.9 -0.02014
46.95 -0.02067
47 -0.02122
47.05 -0.02019
47.1 -0.01568
47.15 -0.01321
47.2 -0.01528
47.25 -0.0142
47.3 -0.01166
47.35 -0.0132
47.4 -0.01592
47.45 -0.01429
47.5 -0.01634
47.55 -0.02114
47.6 -0.02606
47.65 -0.02949
47.7 -0.0326
47.75 -0.03134
47.8 -0.03248
47.85 -0.03076
47.9 -0.03089
47.95 -0.02926
48 -0.02668
48.05 -0.02162
48.1 -0.02174
48.15 -0.01703
48.2 -0.01592
48.25 -0.01696
48.3 -0.01987
48.35 -0.02428
48.4 -0.02764
48.45 -0.02674
48.5 -0.02858
48.55 -0.03044
48.6 -0.02953
48.65 -0.02791
48.7 -0.02152
48.75 -0.01693
48.8 -0.01492
48.85 -0.01713
48.9 -0.01581
48.95 -0.01254
49 -0.01046
49.05 -0.01286
49.1 -0.01204
49.15 -0.01393
49.2 -0.01563
49.25 -0.01499
49.3 -0.01482
49.35 -0.01661
49.4 -0.02072
49.45 -0.02238
49.5 -0.02136
49.55 -0.02091
49.6 -0.0211
49.65 -0.0206
49.7 -0.01914
49.75 -0.0196
49.8 -0.02084
49.85 -0.02197
49.9 -0.01827
49.95 -0.01626
50 -0.01072
50.05 -0.00477
50.1 -0.00376
50.15 -0.0038
50.2 -0.0036
50.25 0.00016
50.3 0.00212
50.35 0.00243
50.4 0.00029
50.45 -0.0022
50.5 -0.00066
50.55 0.00401
50.6 0.00893
50.65 0.01173
50.7 0.01651
50.75 0.01596
50.8 0.01463
50.85 0.01004
50.9 0.00514
50.95 -0.00075
51 -0.00537
51.05 -0.00948
51.1 -0.00915
51.15 -0.00966
51.2 -0.00755
51.25 -0.00614
51.3 -0.00717
51.35 -0.00577
51.4 -0.00566
51.45 -0.0087
51.5 -0.01008
51.55 -0.01376
51.6 -0.01871
51.65 -0.02047
51.7 -0.01994
51.75 -0.01596
51.8 -0.01351
51.85 -0.00738
51.9 -0.00582
51.95 -0.00291
52 0.00214
52.05 0.00216
52.1 0.00431
52.15 0.00668
52.2 0.00365
52.25 0.00428
52.3 0.0012
52.35 -0.00002
52.4 -0.00474
52.45 -0.01136
52.5 -0.0171
52.55 -0.0218
52.6 -0.01988
52.65 -0.01892
52.7 -0.01287
52.75 -0.00435
52.8 0.00207
52.85 0.00885
52.9 0.00948
52.95 0.00543
53 -0.00016
53.05 -0.00417
53.1 -0.00408
53.15 -0.00484
53.2 -0.00422
53.25 -0.00114
53.3 -0.00255
53.35 -0.00098
53.4 -0.00173
53.45 0.00014
53.5 0.00372
53.55 0.00175
53.6 0.00301
53.65 0.0007
53.7 -0.00066
53.75 -0.00167
53.8 -0.00559
53.85 -0.00491
53.9 -0.00644
53.95 -0.00883
54 -0.01185
54.05 -0.01584
54.1 -0.02056
54.15 -0.02129
54.2 -0.02059
54.25 -0.01944
54.3 -0.01814
54.35 -0.01253
54.4 -0.00478
54.45 -0.00278
54.5 -0.00463
54.55 -0.00729
54.6 -0.00584
54.65 -0.00274
54.7 0.00296
54.75 0.00839
54.8 0.0076
54.85 0.01041
54.9 0.01038
54.95 0.01122
55 0.01037
55.05 0.00619
55.1 0.00401
55.15 0.00317
55.2 0.00609
55.25 0.00905
55.3 0.00644
55.35 0.00778
55.4 0.00507
55.45 0.00551
55.5 0.00901
55.55 0.01143
55.6 0.01194
55.65 0.0111
55.7 0.00829
55.75 0.00894
55.8 0.01041
55.85 0.00795
55.9 0.00415
55.95 0.00399
56 0.006
56.05 0.00805
56.1 0.00461
56.15 0.00156
56.2 -0.00125
56.25 -0.00677
56.3 -0.00562
56.35 -0.00418
56.4 -0.00512
56.45 -0.00766
56.5 -0.00585
56.55 -0.00044
56.6 0.00432
56.65 0.00474
56.7 0.00751
56.75 0.00993
56.8 0.01189
56.85 0.01087
56.9 0.01319
56.95 0.0157
57 0.01813
57.05 0.01653
57.1 0.0139
57.15 0.00735
57.2 0.00552
57.25 0.00497
57.3 0.00427
57.35 0.00691
57.4 0.00879
57.45 0.00971
57.5 0.00897
57.55 0.00953
57.6 0.00477
57.65 0.00248
57.7 0.00035
57.75 0.00238
57.8 0.00206
57.85 -0.00146
57.9 -0.00289
57.95 -0.00574
58 -0.00716
58.05 -0.01162
58.1 -0.01259
58.15 -0.01643
58.2 -0.01586
58.25 -0.01068
58.3 -0.00533
58.35 0.00131
58.4 0.00828
58.45 0.01105
58.5 0.01246
58.55 0.01316
58.6 0.01171
58.65 0.00768
58.7 0.00597
58.75 0.00056
58.8 -0.00523
58.85 -0.00548
58.9 -0.00432
58.95 -0.00696
59 -0.00521
59.05 -0.00431
59.1 -0.00618
59.15 -0.00492
59.2 -0.00077
59.25 0.00252
59.3 0.00041
59.35 -0.00289
59.4 -0.00148
59.45 0.0015
59.5 0.00269
59.55 -0.00048
59.6 -0.00194
59.65 -0.00106
59.7 -0.00095
59.75 -0.00317
59.8 -0.00371
59.85 -0.00369
59.9 -0.00707
59.95 -0.00863
60 -0.00603
60.05 -0.00702
60.1 -0.01111
60.15 -0.01175
60.2 -0.01469
60.25 -0.01736
60.3 -0.01831
60.35 -0.01987
60.4 -0.01813
60.45 -0.01675
60.5 -0.01352
60.55 -0.00788
60.6 -0.00689
60.65 -0.00922
60.7 -0.01169
60.75 -0.01568
60.8 -0.01918
60.85 -0.01985
60.9 -0.02035
60.95 -0.01657
61 -0.01083
61.05 -0.00404
61.1 0.00004
61.15 0.00404
61.2 0.00567
61.25 0.00595
61.3 0.00794
61.35 0.00637
61.4 0.0021
61.45 -0.00153
61.5 -0.00445
61.55 -0.00713
61.6 -0.00647
61.65 -0.00417
61.7 0.00011
61.75 0.00387
61.8 0.00361
61.85 0.00152
61.9 -0.00272
61.95 -0.00288
62 -0.00036
62.05 0.00318
62.1 0.00319
62.15 0.00415
62.2 0.00147
62.25 -0.00026
62.3 0.00241
62.35 0.00286
62.4 0.00015
62.45 -0.00382
62.5 -0.00357
62.55 -0.00684
62.6 -0.00978
62.65 -0.0114
62.7 -0.00873
62.75 -0.00814
62.8 -0.00707
62.85 -0.00721
62.9 -0.00955
62.95 -0.01228
63 -0.00871
63.05 -0.00847
63.1 -0.00537
63.15 -0.0047
63.2 -0.00256
63.25 0.00143
63.3 0.00332
63.35 0.00265
63.4 0.00523
63.45 0.00701
63.5 0.01115
63.55 0.01177
63.6 0.01535
63.65 0.01966
63.7 0.01778
63.75 0.01328
63.8 0.00837
63.85 0.00242
63.9 0.00203
63.95 -0.00129
64 -0.00468
64.05 -0.00916
64.1 -0.01048
64.15 -0.01408
64.2 -0.01125
64.25 -0.00487
64.3 0.00332
64.35 0.00526
64.4 0.00395
64.45 0.00542
64.5 0.01022
64.55 0.01625
64.6 0.01933
64.65 0.02329
64.7 0.0272
64.75 0.02861
64.8 0.03112
64.85 0.02872
64.9 0.0251
64.95 0.02375
65 0.01867
65.05 0.01473
65.1 0.0102
65.15 0.00979
65.2 0.00647
65.25 0.00007
65.3 -0.00018
65.35 0.00271
65.4 0.00543
65.45 0.0039
65.5 -0.00142
65.55 -0.00352
65.6 -0.00712
65.65 -0.0049
65.7 -0.0015
65.75 -0.00145
65.8 0.00005
65.85 -0.00245
65.9 -0.00167
65.95 0.00274
66 0.0075
66.05 0.00916
66.1 0.0096
66.15 0.00877
66.2 0.00789
66.25 0.01051
66.3 0.00999
66.35 0.00965
66.4 0.00524
66.45 0.00319
66.5 -0.00178
66.55 -0.00142
66.6 -0.00279
66.65 -0.00077
66.7 0.0002
66.75 0.0044
66.8 0.00723
66.85 0.00486
66.9 0.00037
66.95 0.00006
67 -0.00273
67.05 -0.00113
67.1 0.0026
67.15 0.00784
67.2 0.01348
67.25 0.01834
67.3 0.0165
67.35 0.00975
67.4 0.00537
67.45 0.00155
67.5 -0.00469
67.55 -0.00517
67.6 -0.00178
67.65 0.0019
67.7 0.00657
67.75 0.0096
67.8 0.011
67.85 0.0106
67.9 0.01106
67.95 0.01274
68 0.01447
68.05 0.01194
68.1 0.01183
68.15 0.00892
68.2 0.00815
68.25 0.01028
68.3 0.01112
68.35 0.01397
68.4 0.01508
68.45 0.01743
68.5 0.01876
68.55 0.01695
68.6 0.01725
68.65 0.01921
68.7 0.01884
68.75 0.01901
68.8 0.01976
68.85 0.01811
68.9 0.01687
68.95 0.01259
69 0.00845
69.05 0.00366
69.1 0.00045
69.15 -0.00275
69.2 -0.00689
69.25 -0.01214
69.3 -0.01665
69.35 -0.02099
69.4 -0.01963
69.45 -0.01691
69.5 -0.01697
69.55 -0.01903
69.6 -0.01968
69.65 -0.01698
69.7 -0.01067
69.75 -0.00561
69.8 -0.00534
69.85 -0.0019
69.9 0.00287
69.95 0.0013
70 -0.00145
70.05 -0.00485
70.1 -0.00404
70.15 -0.00691
70.2 -0.00671
70.25 -0.00527
70.3 -0.00569
70.35 -0.00305
70.4 -0.00429
70.45 -0.00658
70.5 -0.00532
70.55 -0.00325
70.6 -0.00078
70.65 0.00264
70.7 0.00459
70.75 0.00835
70.8 0.0128
70.85 0.01021
70.9 0.00651
70.95 0.0002
71 -0.00366
71.05 -0.00409
71.1 -0.00539
71.15 -0.00988
71.2 -0.01289
71.25 -0.01694
71.3 -0.02161
71.35 -0.02372
71.4 -0.0246
71.45 -0.02703
71.5 -0.03015
71.55 -0.03352
71.6 -0.03384
71.65 -0.03389
71.7 -0.02826
71.75 -0.02031
71.8 -0.01321
71.85 -0.00381
71.9 0.00328
71.95 0.00944
72 0.01628
72.05 0.02068
72.1 0.02209
72.15 0.01805
72.2 0.0156
72.25 0.01282
72.3 0.00933
72.35 0.00952
72.4 0.01019
72.45 0.00952
72.5 0.00768
72.55 0.00146
72.6 -0.00643
72.65 -0.01285
72.7 -0.01591
72.75 -0.01404
72.8 -0.01129
72.85 -0.00959
72.9 -0.00532
72.95 -0.00159
73 -0.001
73.05 -0.00005
73.1 -0.00209
73.15 -0.00181
73.2 -0.00409
73.25 -0.00539
73.3 -0.00815
73.35 -0.01052
73.4 -0.01429
73.45 -0.01335
73.5 -0.00872
73.55 -0.00498
73.6 0.00142
73.65 0.004
73.7 0.00094
73.75 -0.00436
73.8 -0.00949
73.85 -0.00886
73.9 -0.01139
73.95 -0.01382
74 -0.0122
74.05 -0.01447
74.1 -0.01146
74.15 -0.00802
74.2 -0.00472
74.25 -0.00469
74.3 -0.00332
74.35 -0.00401
74.4 -0.0024
74.45 0.00244
74.5 0.00644
74.55 0.01132
74.6 0.01598
74.65 0.02148
74.7 0.02677
74.75 0.03134
74.8 0.03291
74.85 0.02708
74.9 0.02237
74.95 0.02025
75 0.01572
75.05 0.00909
75.1 0.0046
75.15 0.00344
75.2 0.00161
75.25 0.00205
75.3 -0.00204
75.35 -0.0035
75.4 -0.00674
75.45 -0.00917
75.5 -0.00812
75.55 -0.00988
75.6 -0.012
75.65 -0.01559
75.7 -0.01545
75.75 -0.01655
75.8 -0.01228
75.85 -0.01078
75.9 -0.01206
75.95 -0.01066
76 -0.01212
76.05 -0.0099
76.1 -0.01061
76.15 -0.01167
76.2 -0.00838
76.25 -0.00941
76.3 -0.00826
76.35 -0.00437
76.4 -0.00562
76.45 -0.0089
76.5 -0.01399
76.55 -0.01829
76.6 -0.01785
76.65 -0.0157
76.7 -0.01344
76.75 -0.01324
76.8 -0.01245
76.85 -0.01045
76.9 -0.00498
76.95 -0.00045
77 0.00458
77.05 0.00913
77.1 0.01461
77.15 0.01444
77.2 0.01182
77.25 0.00729
77.3 0.00704
77.35 0.00783
77.4 0.00378
77.45 -0.00092
77.5 -0.00105
77.55 0.0014
77.6 0.00209
77.65 0.00413
77.7 0.00814
77.75 0.00652
77.8 0.00106
77.85 -0.00631
77.9 -0.0113
77.95 -0.01491
78 -0.01297
78.05 -0.00821
78.1 -0.00263
78.15 0.00456
78.2 0.00498
78.25 0.00749
78.3 0.01046
78.35 0.01013
78.4 0.0055
78.45 0.00243
78.5 0.00136
78.55 0.0012
78.6 -0.00147
78.65 0.00071
78.7 0.00366
78.75 0.00356
78.8 0.00051
78.85 -0.00553
78.9 -0.00652
78.95 -0.00269
79 0.00205
79.05 0.00697
79.1 0.01143
79.15 0.01279
79.2 0.01168
79.25 0.01254
79.3 0.01104
79.35 0.01204
79.4 0.0082
79.45 0.00866
79.5 0.00847
79.55 0.00929
79.6 0.00922
79.65 0.01055
79.7 0.00671
79.75 0.0024
79.8 0.0004
79.85 -0.0025
79.9 -0.00753
79.95 -0.00949
80 -0.01238
80.05 -0.01151
80.1 -0.01378
80.15 -0.01222
80.2 -0.00994
80.25 -0.01094
80.3 -0.0131
80.35 -0.01458
80.4 -0.01368
80.45 -0.01404
80.5 -0.01017
80.55 -0.00515
80.6 0.00213
80.65 0.00742
80.7 0.01074
80.75 0.00774
80.8 0.00517
80.85 -0.00029
80.9 -0.00805
80.95 -0.0151
81 -0.02216
81.05 -0.02728
81.1 -0.03088
81.15 -0.02782
81.2 -0.02138
81.25 -0.01672
81.3 -0.01403
81.35 -0.00716
81.4 -0.00358
81.45 0.00284
81.5 0.00682
81.55 0.00929
81.6 0.00996
81.65 0.01085
81.7 0.01339
81.75 0.01062
81.8 0.0109
81.85 0.00683
81.9 0.00447
81.95 0.00172
82 0.00298
82.05 0.00171
82.1 -0.00114
82.15 -0.00229
82.2 -0.00599
82.25 -0.00947
82.3 -0.01254
82.35 -0.01462
82.4 -0.01694
82.45 -0.01658
82.5 -0.01674
82.55 -0.01459
82.6 -0.01427
82.65 -0.01249
82.7 -0.01344
82.75 -0.0096
82.8 -0.00756
82.85 -0.00199
82.9 0.00142
82.95 0.00037
83 -0.0038
83.05 -0.00348
83.1 -0.00431
83.15 -0.00479
83.2 -0.00712
83.25 -0.01188
83.3 -0.01131
83.35 -0.00859
83.4 -0.00939
83.45 -0.01121
83.5 -0.01064
83.55 -0.00659
83.6 -0.00372
83.65 -0.00404
83.7 -0.00323
83.75 0.00192
83.8 0.00624
83.85 0.00556
83.9 0.00822
83.95 0.00556
84 0.00723
84.05 0.00612
84.1 0.00275
84.15 -0.00099
84.2 -0.00081
84.25 -0.00386
84.3 -0.00146
84.35 -0.00035
84.4 -0.00034
84.45 -0.0029
84.5 -0.00192
84.55 -0.00039
84.6 0.00225
84.65 0.00161
84.7 0.00475
84.75 0.01023
84.8 0.01694
84.85 0.02008
84.9 0.02089
84.95 0.01948
85 0.01492
85.05 0.0071
85.1 -0.00039
85.15 -0.00872
85.2 -0.01379
85.25 -0.01581
85.3 -0.01576
85.35 -0.01648
85.4 -0.01147
85.45 -0.00495
85.5 -0.00019
85.55 0.00391
85.6 0.00947
85.65 0.00914
85.7 0.00692
85.75 0.00856
85.8 0.00775
85.85 0.00942
85.9 0.01045
85.95 0.01016
86 0.0101
86.05 0.00729
86.1 0.002
86.15 -0.00471
86.2 -0.00579
86.25 -0.00195
86.3 -0.00104
86.35 -0.00282
86.4 -0.00512
86.45 -0.00212
86.5 -0.00076
86.55 -0.00236
86.6 -0.00219
86.65 -0.00304
86.7 -0.00601
86.75 -0.00784
86.8 -0.00631
86.85 -0.0073
86.9 -0.0086
86.95 -0.00801
87 -0.00628
87.05 -0.00721
87.1 -0.00518
87.15 -0.00448
87.2 -0.0034
87.25 -0.00482
87.3 -0.00747
87.35 -0.00828
87.4 -0.01193
87.45 -0.01585
87.5 -0.01512
87.55 -0.01612
87.6 -0.01187
87.65 -0.0082
87.7 -0.00887
87.75 -0.0092
87.8 -0.00996
87.85 -0.00765
87.9 -0.00918
87.95 -0.01253
88 -0.01315
88.05 -0.01088
88.1 -0.00864
88.15 -0.00484
88.2 -0.00303
88.25 -0.00216
88.3 -0.0014
88.35 -0.00312
88.4 -0.00592
88.45 -0.00466
88.5 -0.00568
88.55 -0.00306
88.6 -0.00112
88.65 0.00123
88.7 0.0003
88.75 -0.00287
88.8 -0.00025
88.85 -0.00206
88.9 -0.00466
88.95 -0.00206
89 -0.00025
89.05 0.00389
89.1 0.00894
89.15 0.00878
89.2 0.00565
89.25 0.00668
89.3 0.00595
89.35 0.00136
89.4 -0.00139
89.45 -0.00236
89.5 -0.00247
89.55 -0.00019
89.6 0.00375
89.65 0.00903
89.7 0.01473
89.75 0.02033
89.8 0.02018
89.85 0.01771
89.9 0.01433
89.95 0.01346
90 0.00903
90.05 0.00687
90.1 0.00666
90.15 0.00968
90.2 0.01105
90.25 0.01358
90.3 0.01281
90.35 0.01168
90.4 0.01346
90.45 0.01513
90.5 0.01561
90.55 0.01296
90.6 0.0091
90.65 0.00952
90.7 0.00627
90.75 0.00665
90.8 0.00626
90.85 0.00502
90.9 0.00734
90.95 0.01202
91 0.01049
91.05 0.00558
91.1 0.00034
91.15 -0.00522
91.2 -0.00756
91.25 -0.00654
91.3 -0.00552
91.35 -0.00806
91.4 -0.00637
91.45 -0.00659
91.5 -0.00773
91.55 -0.00738
91.6 -0.00307
91.65 0.00332
91.7 0.01044
91.75 0.0121
91.8 0.01466
91.85 0.01783
91.9 0.01929
91.95 0.01648
92 0.01256
92.05 0.00711
92.1 0.00142
92.15 0.00121
92.2 -0.00167
92.25 -0.00326
92.3 -0.00426
92.35 -0.00434
92.4 -0.00538
92.45 -0.00721
92.5 -0.00453
92.55 -0.0056
92.6 -0.00862
92.65 -0.00712
92.7 -0.00971
92.75 -0.0077
92.8 -0.00521
92.85 -0.00288
92.9 0.002
92.95 0.00356
93 0.00582
93.05 0.00907
93.1 0.00846
93.15 0.00769
93.2 0.00274
93.25 -0.00359
93.3 -0.00698
93.35 -0.00802
93.4 -0.01045
93.45 -0.0093
93.5 -0.00609
93.55 -0.00128
93.6 0.00147
93.65 0.00453
93.7 0.00276
93.75 -0.00023
93.8 -0.00585
93.85 -0.01268
93.9 -0.01806
93.95 -0.01782
94 -0.01766
94.05 -0.01741
94.1 -0.01474
94.15 -0.01365
94.2 -0.01258
94.25 -0.01422
94.3 -0.01768
94.35 -0.02203
94.4 -0.02576
94.45 -0.02314
94.5 -0.0216
94.55 -0.02157
94.6 -0.02335
94.65 -0.02161
94.7 -0.01679
94.75 -0.01164
94.8 -0.0081
94.85 -0.00353
94.9 -0.00122
94.95 0.00148
95 0.00174
95.05 0.00236
95.1 -0.00032
95.15 -0.00358
95.2 -0.00697
95.25 -0.00818
95.3 -0.00557
95.35 -0.00439
95.4 0.00038
95.45 0.00204
95.5 0.00578
95.55 0.00472
95.6 0.00697
95.65 0.01093
95.7 0.01402
95.75 0.01138
95.8 0.00919
95.85 0.00444
95.9 0.00517
95.95 0.00268
96 0.00348
96.05 0.00011
96.1 0.00017
96.15 -0.00151
96.2 -0.00287
96.25 -0.00046
96.3 0.00239
96.35 0.00359
96.4 0.00425
96.45 0.00709
96.5 0.01068
96.55 0.01451
96.6 0.01521
96.65 0.01621
96.7 0.01966
96.75 0.02177
96.8 0.0186
96.85 0.01354
96.9 0.00808
96.95 0.0082
97 0.01126
97.05 0.01243
97.1 0.01122
97.15 0.00651
97.2 0.00214
97.25 0.00046
97.3 -0.00469
97.35 -0.00809
97.4 -0.01297
97.45 -0.01856
97.5 -0.01803
97.55 -0.0191
97.6 -0.01867
97.65 -0.01697
97.7 -0.01616
97.75 -0.01802
97.8 -0.01429
97.85 -0.00652
97.9 0.00009
97.95 0.00639
98 0.01015
98.05 0.0138
98.1 0.01787
98.15 0.01696
98.2 0.01181
98.25 0.0087
98.3 0.0038
98.35 -0.00226
98.4 -0.00479
98.45 -0.00914
98.5 -0.01281
98.55 -0.0174
98.6 -0.01971
98.65 -0.01674
98.7 -0.01245
98.75 -0.0075
98.8 -0.00178
98.85 0.00185
98.9 0.00714
98.95 0.00851
99 0.00911
99.05 0.01137
99.1 0.01512
99.15 0.01672
99.2 0.01349
99.25 0.0087
99.3 0.00307
99.35 0.00128
99.4 -0.00176
99.45 -0.0016
99.5 0.0004
99.55 0.00221
99.6 -0.00078
99.65 -0.00446
99.7 -0.00686
99.75 -0.01097
99.8 -0.0108
99.85 -0.00986
99.9 -0.00588
99.95 -0.00036
