0 0
0.05 0.00385
0.1 0.00855
0.15 0.01152
0.2 0.01329
0.25 0.01592
0.3 0.01925
0.35 0.02159
0.4 0.02365
0.45 0.02454
0.5 0.02626
0.55 0.0273
0.6 0.02682
0.65 0.02804
0.7 0.02739
0.75 0.02483
0.8 0.02463
0.85 0.02481
0.9 0.02511
0.95 0.02602
1 0.02666
1.05 0.02605
1.1 0.02452
1.15 0.02146
1.2 0.02114
1.25 0.01884
1.3 0.01873
1.35 0.01838
1.4 0.01965
1.45 0.01977
1.5 0.01926
1.55 0.01868
1.6 0.01625
1.65 0.01525
1.7 0.01308
1.75 0.01098
1.8 0.00813
1.85 0.00686
1.9 0.00679
1.95 0.00669
2 0.00775
2.05 0.00723
2.1 0.00652
2.15 0.00463
2.2 0.00309
2.25 0.00202
2.3 0.0015
2.35 0.00133
2.4 0.00152
2.45 0.00109
2.5 0.00022
2.55 0.00246
2.6 0.00653
2.65 0.01012
2.7 0.01223
2.75 0.01308
2.8 0.01265
2.85 0.0125
2.9 0.01368
2.95 0.01569
3 0.01625
3.05 0.01459
3.1 0.01523
3.15 0.01362
3.2 0.01406
3.25 0.01204
3.3 0.01027
3.35 0.00948
3.4 0.00899
3.45 0.00798
3.5 0.00706
3.55 0.00515
3.6 0.00386
3.65 0.00258
3.7 0.00291
3.75 0.00322
3.8 0.00272
3.85 0.002
3.9 0.00087
3.95 -0.00014
4 -0.00066
4.05 0.00085
4.1 0.00246
4.15 0.00228
4.2 0.00437
4.25 0.00704
4.3 0.00702
4.35 0.00536
4.4 0.00481
4.45 0.00405
4.5 0.00281
4.55 0.0026
4.6 0.00416
4.65 0.00603
4.7 0.0064
4.75 0.00746
4.8 0.01017
4.85 0.01358
4.9 0.01446
4.95 0.01242
5 0.00918
5.05 0.00882
5.1 0.00974
5.15 0.01021
5.2 0.01182
5.25 0.01228
5.3 0.01399
5.35 0.01389
5.4 0.01234
5.45 0.00917
5.5 0.00619
5.55 0.00275
5.6 -0.00053
5.65 -0.0021
5.7 -0.00416
5.75 -0.00646
5.8 -0.00581
5.85 -0.00539
5.9 -0.00528
5.95 -0.00264
6 -0.00133
6.05 0.00016
6.1 0.00214
6.15 0.00409
6.2 0.00564
6.25 0.00629
6.3 0.0049
6.35 0.00576
6.4 0.00807
6.45 0.00941
6.5 0.00831
6.55 0.00895
6.6 0.00879
6.65 0.00671
6.7 0.00647
6.75 0.00446
6.8 0.0025
6.85 0.00215
6.9 0.00114
6.95 0.00128
7 0.00227
7.05 0.0043
7.1 0.00528
7.15 0.00735
7.2 0.00782
7.25 0.00967
7.3 0.00989
7.35 0.00894
7.4 0.00643
7.45 0.00662
7.5 0.00566
7.55 0.00651
7.6 0.00783
7.65 0.00923
7.7 0.00759
7.75 0.00577
7.8 0.0059
7.85 0.00706
7.9 0.00556
7.95 0.00532
8 0.00575
8.05 0.00708
8.1 0.00709
8.15 0.00625
8.2 0.00389
8.25 0.00062
8.3 0.00023
8.35 0.00172
8.4 0.00067
8.45 -0.00076
8.5 -0.00118
8.55 -0.00271
8.6 -0.00469
8.65 -0.00673
8.7 -0.0063
8.75 -0.00364
8.8 0.00047
8.85 0.00168
8.9 0.0029
8.95 0.00239
9 0.00377
9.05 0.00533
9.1 0.00623
9.15 0.0078
9.2 0.00676
9.25 0.00648
9.3 0.00545
9.35 0.0042
9.4 0.00124
9.45 -0.00025
9.5 -0.00096
9.55 -0.00107
9.6 -0.00138
9.65 -0.00147
9.7 -0.00264
9.75 -0.00454
9.8 -0.00466
9.85 -0.00485
9.9 -0.00491
9.95 -0.00321
10 -0.00137
10.05 -0.00094
10.1 -0.00058
10.15 0.00043
10.2 0.00012
10.25 0.00124
10.3 0.00295
10.35 0.00192
10.4 0.00002
10.45 -0.00171
10.5 -0.00311
10.55 -0.00222
10.6 -0.00119
10.65 0.00165
10.7 0.00216
10.75 0.00411
10.8 0.00619
10.85 0.00898
10.9 0.00818
10.95 0.00674
11 0.00614
11.05 0.0053
11.1 0.00553
11.15 0.00621
11.2 0.00594
11.25 0.00367
11.3 0.00065
11.35 -0.00276
11.4 -0.00282
11.45 -0.00185
11.5 0.00063
11.55 0.00273
11.6 0.00404
11.65 0.00462
11.7 0.00544
11.75 0.00534
11.8 0.00309
11.85 0.00098
11.9 0.00105
11.95 0.00068
12 -0.00134
12.05 -0.00238
12.1 -0.0021
12.15 -0.0033
12.2 -0.00455
12.25 -0.00543
12.3 -0.0058
12.35 -0.00445
12.4 -0.00274
12.45 0.00055
12.5 0.00316
12.55 0.00527
12.6 0.00749
12.65 0.00761
12.7 0.00684
12.75 0.00587
12.8 0.00279
12.85 -0.00033
12.9 -0.00216
12.95 -0.00515
13 -0.00595
13.05 -0.00716
13.1 -0.00877
13.15 -0.0075
13.2 -0.00456
13.25 -0.00185
13.3 -0.00163
13.35 -0.00198
13.4 -0.00049
13.45 0.00004
13.5 0.00096
13.55 0.00066
13.6 0.00066
13.65 0.00134
13.7 0.00062
13.75 -0.00085
13.8 -0.00288
13.85 -0.00265
13.9 -0.00055
13.95 0.00144
14 0.00244
14.05 0.00242
14.1 0.00403
14.15 0.00575
14.2 0.00674
14.25 0.00517
14.3 0.00275
14.35 0.00273
14.4 0.00315
14.45 0.00345
14.5 0.0037
14.55 0.00295
14.6 0.00152
14.65 -0.00045
14.7 -0.0003
14.75 -0.00046
14.8 -0.00244
14.85 -0.00289
14.9 -0.00209
14.95 -0.00008
15 0.00151
15.05 0.00311
15.1 0.00576
15.15 0.00623
15.2 0.007
15.25 0.00698
15.3 0.00766
15.35 0.00913
15.4 0.01016
15.45 0.00835
15.5 0.00572
15.55 0.00507
15.6 0.00431
15.65 0.00349
15.7 0.00252
15.75 0.00072
15.8 0.00005
15.85 -0.00088
15.9 0.0004
15.95 -0.00087
16 -0.00285
16.05 -0.00217
16.1 -0.00367
16.15 -0.00445
16.2 -0.00274
16.25 -0.00048
16.3 -0.00082
16.35 -0.00004
16.4 -0.00064
16.45 -0.0013
16.5 -0.00234
16.55 -0.00208
16.6 -0.001
16.65 0.00092
16.7 0.00306
16.75 0.00466
16.8 0.00522
16.85 0.00553
16.9 0.00348
16.95 0.00196
17 -0.00076
17.05 -0.00428
17.1 -0.00708
17.15 -0.00781
17.2 -0.00816
17.25 -0.00863
17.3 -0.00753
17.35 -0.00778
17.4 -0.00664
17.45 -0.00653
17.5 -0.00564
17.55 -0.00455
17.6 -0.0016
17.65 -0.00053
17.7 -0.00118
17.75 -0.00225
17.8 -0.00103
17.85 -0.00007
17.9 0.00183
17.95 0.00134
18 0.00251
18.05 0.00467
18.1 0.00396
18.15 0.00394
18.2 0.00339
18.25 0.00128
18.3 0.00072
18.35 0.00208
18.4 0.00131
18.45 0.00041
18.5 -0.00022
18.55 0.00064
18.6 0.00247
18.65 0.00278
18.7 0.00279
18.75 0.00353
18.8 0.00524
18.85 0.00404
18.9 0.00114
18.95 -0.00015
19 0.00096
19.05 0.00268
19.1 0.00445
19.15 0.00501
19.2 0.00293
19.25 0.00038
19.3 -0.0005
19.35 -0.00092
19.4 0.00027
19.45 -0.0002
19.5 -0.00012
19.55 -0.00093
19.6 -0.00258
19.65 -0.00249
19.7 -0.003
19.75 -0.00302
19.8 -0.00447
19.85 -0.00479
19.9 -0.00502
19.95 -0.00314
20 -0.00169
20.05 0.00101
20.1 0.00308
20.15 0.00424
20.2 0.00302
20.25 0.00011
20.3 -0.00314
20.35 -0.00674
20.4 -0.00779
20.45 -0.0096
20.5 -0.00832
20.55 -0.00681
20.6 -0.00452
20.65 -0.00148
20.7 0.00062
20.75 0.00122
20.8 -0.00049
20.85 -0.00128
20.9 -0.0019
20.95 -0.00384
21 -0.00621
21.05 -0.00811
21.1 -0.00807
21.15 -0.00803
21.2 -0.00792
21.25 -0.00772
21.3 -0.00539
21.35 -0.00492
21.4 -0.00371
21.45 -0.00367
21.5 -0.00289
21.55 -0.00074
21.6 -0.00036
21.65 -0.00131
21.7 -0.00158
21.75 -0.00084
21.8 -0.00207
21.85 -0.00368
21.9 -0.00427
21.95 -0.00281
22 -0.00093
22.05 0.00211
22.1 0.00561
22.15 0.00644
22.2 0.00791
22.25 0.00972
22.3 0.00925
22.35 0.00708
22.4 0.007
22.45 0.00434
22.5 0.00204
22.55 0.00144
22.6 0.00028
22.65 -0.00209
22.7 -0.0015
22.75 -0.00065
22.8 -0.0002
22.85 0.00206
22.9 0.00282
22.95 0.00143
23 0.00042
23.05 0.00018
23.1 0.00131
23.15 0.00199
23.2 0.00116
23.25 0.00051
23.3 0.00047
23.35 0.00086
23.4 0.00163
23.45 0.00332
23.5 0.00525
23.55 0.00571
23.6 0.00713
23.65 0.00669
23.7 0.00517
23.75 0.00453
23.8 0.00559
23.85 0.00443
23.9 0.00514
23.95 0.00476
24 0.00369
24.05 0.00176
24.1 -0.00032
24.15 -0.00309
24.2 -0.00649
24.25 -0.00743
24.3 -0.0092
24.35 -0.01108
24.4 -0.01223
24.45 -0.01362
24.5 -0.01528
24.55 -0.01515
24.6 -0.01189
24.65 -0.00732
24.7 -0.00494
24.75 -0.00319
24.8 -0.00143
24.85 -0.00023
24.9 0.00045
24.95 0.00192
25 0.00223
25.05 0.00348
25.1 0.00353
25.15 0.00237
25.2 0.0024
25.25 0.00115
25.3 -0.00054
25.35 -0.00299
25.4 -0.00311
25.45 -0.00284
25.5 -0.00267
25.55 -0.0036
25.6 -0.00211
25.65 0.00054
25.7 0.0005
25.75 0.00226
25.8 0.0012
25.85 -0.00041
25.9 -0.00098
25.95 -0.00174
26 -0.00078
26.05 -0.00152
26.1 -0.00197
26.15 -0.0011
26.2 -0.00128
26.25 -0.00167
26.3 -0.00126
26.35 -0.00232
26.4 -0.00294
26.45 -0.0025
26.5 -0.00307
26.55 -0.00393
26.6 -0.00297
26.65 -0.00229
26.7 -0.00285
26.75 -0.00448
26.8 -0.00702
26.85 -0.00989
26.9 -0.0119
26.95 -0.014
27 -0.01506
27.05 -0.015
27.1 -0.01448
27.15 -0.01186
27.2 -0.00848
27.25 -0.00363
27.3 0.00033
27.35 0.00152
27.4 0.00154
27.45 0.0014
27.5 0.00072
27.55 0.00142
27.6 0.00079
27.65 -0.00002
27.7 0.00131
27.75 0.00428
27.8 0.00554
27.85 0.0066
27.9 0.00825
27.95 0.01007
28 0.01021
28.05 0.01155
28.1 0.01356
28.15 0.01299
28.2 0.01122
28.25 0.00752
28.3 0.00338
28.35 -0.00026
28.4 -0.0018
28.45 -0.00502
28.5 -0.00661
28.55 -0.00711
28.6 -0.00726
28.65 -0.00928
28.7 -0.01117
28.75 -0.01398
28.8 -0.01896
28.85 -0.02259
28.9 -0.02921
28.95 -0.03455
29 -0.04309
29.05 -0.05302
29.1 -0.06304
29.15 -0.07221
29.2 -0.08478
29.25 -0.10078
29.3 -0.11719
29.35 -0.13496
29.4 -0.15375
29.45 -0.17694
29.5 -0.20354
29.55 -0.2331
29.6 -0.26288
29.65 -0.29768
29.7 -0.33512
29.75 -0.3737
29.8 -0.41806
29.85 -0.46723
29.9 -0.51759
29.95 -0.57174
30 -0.62833
30.05 -0.68501
30.1 -0.74193
30.15 -0.79791
30.2 -0.85451
30.25 -0.90981
30.3 -0.96477
30.35 -1.01829
30.4 -1.06885
30.45 -1.11607
30.5 -1.16193
30.55 -1.20322
30.6 -1.23594
30.65 -1.2606
30.7 -1.27867
30.75 -1.29057
30.8 -1.29458
30.85 -1.28719
30.9 -1.26959
30.95 -1.24195
31 -1.20455
31.05 -1.15651
31.1 -1.09997
31.15 -1.03753
31.2 -0.96821
31.25 -0.89256
31.3 -0.81151
31.35 -0.72647
31.4 -0.63836
31.45 -0.54675
31.5 -0.45199
31.55 -0.35626
31.6 -0.26154
31.65 -0.16733
31.7 -0.07657
31.75 0.01137
31.8 0.09317
31.85 0.17196
31.9 0.24673
31.95 0.31514
32 0.37737
32.05 0.43508
32.1 0.48895
32.15 0.53985
32.2 0.58711
32.25 0.62755
32.3 0.66513
32.35 0.69794
32.4 0.72574
32.45 0.74942
32.5 0.77022
32.55 0.78787
32.6 0.80309
32.65 0.82046
32.7 0.83656
32.75 0.85086
32.8 0.86581
32.85 0.88021
32.9 0.89575
32.95 0.9101
33 0.92318
33.05 0.93315
33.1 0.9414
33.15 0.95078
33.2 0.96139
33.25 0.97006
33.3 0.97568
33.35 0.98168
33.4 0.98613
33.45 0.9896
33.5 0.99191
33.55 0.99022
33.6 0.9849
33.65 0.97718
33.7 0.96864
33.75 0.95978
33.8 0.9504
33.85 0.93802
33.9 0.92548
33.95 0.9117
34 0.89624
34.05 0.87865
34.1 0.85938
34.15 0.83886
34.2 0.81618
34.25 0.79232
34.3 0.76919
34.35 0.7478
34.4 0.72707
34.45 0.70705
34.5 0.68742
34.55 0.66747
34.6 0.64392
34.65 0.61959
34.7 0.59325
34.75 0.56827
34.8 0.54392
34.85 0.52031
34.9 0.49591
34.95 0.47308
35 0.44849
35.05 0.42279
35.1 0.39851
35.15 0.37717
35.2 0.35597
35.25 0.33503
35.3 0.31445
35.35 0.29498
35.4 0.27631
35.45 0.25694
35.5 0.23692
35.55 0.21685
35.6 0.19575
35.65 0.17687
35.7 0.16107
35.75 0.14714
35.8 0.13404
35.85 0.12161
35.9 0.10661
35.95 0.08928
36 0.07088
36.05 0.05605
36.1 0.04092
36.15 0.02485
36.2 0.01024
36.25 -0.00342
36.3 -0.01506
36.35 -0.027
36.4 -0.03653
36.45 -0.04557
36.5 -0.0526
36.55 -0.05989
36.6 -0.06686
36.65 -0.07456
36.7 -0.0806
36.75 -0.08643
36.8 -0.09211
36.85 -0.09905
36.9 -0.10761
36.95 -0.11475
37 -0.12335
37.05 -0.13131
37.1 -0.13615
37.15 -0.14047
37.2 -0.14311
37.25 -0.14543
37.3 -0.14684
37.35 -0.15053
37.4 -0.15316
37.45 -0.15601
37.5 -0.1589
37.55 -0.16338
37.6 -0.16645
37.65 -0.16853
37.7 -0.1717
37.75 -0.17437
37.8 -0.17442
37.85 -0.17497
37.9 -0.17666
37.95 -0.17573
38 -0.1766
38.05 -0.17548
38.1 -0.17536
38.15 -0.17359
38.2 -0.17115
38.25 -0.17104
38.3 -0.17139
38.35 -0.17129
38.4 -0.16938
38.45 -0.16674
38.5 -0.16623
38.55 -0.16435
38.6 -0.16242
38.65 -0.15888
38.7 -0.15777
38.75 -0.15501
38.8 -0.15143
38.85 -0.15034
38.9 -0.1502
38.95 -0.1495
39 -0.14724
39.05 -0.14506
39.1 -0.14428
39.15 -0.14452
39.2 -0.14322
39.25 -0.1395
39.3 -0.13499
39.35 -0.13216
39.4 -0.13035
39.45 -0.12879
39.5 -0.12716
39.55 -0.12652
39.6 -0.1268
39.65 -0.12456
39.7 -0.12342
39.75 -0.11965
39.8 -0.11613
39.85 -0.11521
39.9 -0.11376
39.95 -0.11208
40 -0.10874
40.05 -0.10706
40.1 -0.10599
40.15 -0.10555
40.2 -0.10534
40.25 -0.10293
40.3 -0.1017
40.35 -0.10055
40.4 -0.0993
40.45 -0.09775
40.5 -0.09727
40.55 -0.09478
40.6 -0.09219
40.65 -0.09161
40.7 -0.08973
40.75 -0.08931
40.8 -0.08693
40.85 -0.08403
40.9 -0.08176
40.95 -0.07929
41 -0.07819
41.05 -0.07591
41.1 -0.07222
41.15 -0.07113
41.2 -0.06924
41.25 -0.0679
41.3 -0.06758
41.35 -0.06588
41.4 -0.06543
41.45 -0.06535
41.5 -0.06608
41.55 -0.06731
41.6 -0.06775
41.65 -0.06805
41.7 -0.067
41.75 -0.06416
41.8 -0.06173
41.85 -0.06184
41.9 -0.06038
41.95 -0.05902
42 -0.05696
42.05 -0.05375
42.1 -0.05234
42.15 -0.05211
42.2 -0.05199
42.25 -0.05301
42.3 -0.0522
42.35 -0.05335
42.4 -0.05444
42.45 -0.0535
42.5 -0.05062
42.55 -0.04776
42.6 -0.04431
42.65 -0.04236
42.7 -0.03943
42.75 -0.03676
42.8 -0.03599
42.85 -0.03537
42.9 -0.03419
42.95 -0.03237
43 -0.03033
43.05 -0.02886
43.1 -0.02919
43.15 -0.02939
43.2 -0.02939
43.25 -0.02954
43.3 -0.02946
43.35 -0.03137
43.4 -0.03362
43.45 -0.0371
43.5 -0.03759
43.55 -0.0375
43.6 -0.03876
43.65 -0.04102
43.7 -0.04253
43.75 -0.04093
43.8 -0.03935
43.85 -0.03649
43.9 -0.03544
43.95 -0.03425
44 -0.03518
44.05 -0.03431
44.1 -0.0335
44.15 -0.03122
44.2 -0.03038
44.25 -0.02961
44.3 -0.03081
44.35 -0.03259
44.4 -0.03414
44.45 -0.03566
44.5 -0.03596
44.55 -0.03669
44.6 -0.03506
44.65 -0.03234
44.7 -0.02901
44.75 -0.02578
44.8 -0.02509
44.85 -0.02586
44.9 -0.0264
44.95 -0.02601
45 -0.02624
45.05 -0.0256
45.1 -0.02372
45.15 -0.02142
45.2 -0.01963
45.25 -0.01654
45.3 -0.01375
45.35 -0.01313
45.4 -0.01333
45.45 -0.01464
45.5 -0.01491
45.55 -0.01446
45.6 -0.01308
45.65 -0.01381
45.7 -0.01599
45.75 -0.01727
45.8 -0.01733
45.85 -0.01721
45.9 -0.0168
45.95 -0.01545
46 -0.01332
46.05 -0.01209
46.1 -0.01122
46.15 -0.0109
46.2 -0.01223
46.25 -0.01295
46.3 -0.01341
46.35 -0.01352
46.4 -0.0156
46.45 -0.01734
46.5 -0.01862
46.55 -0.01924
46.6 -0.0195
46.65 -0.02115
46.7 -0.02255
46.75 -0.02175
46.8 -0.02196
46.85 -0.01926
46.9 -0.01749
46.95 -0.01697
47 -0.01789
47.05 -0.01775
47.1 -0.01712
47.15 -0.01591
47.2 -0.0128
47.25 -0.0109
47.3 -0.01037
47.35 -0.01148
47.4 -0.01071
47.45 -0.01169
47.5 -0.0136
47.55 -0.01364
47.6 -0.01425
47.65 -0.01242
47.7 -0.00992
47.75 -0.00641
47.8 -0.00475
47.85 -0.00293
47.9 -0.00103
47.95 0.00137
48 0.00325
48.05 0.00416
48.1 0.00289
48.15 0.00286
48.2 0.0001
48.25 -0.00086
48.3 -0.00255
48.35 -0.00593
48.4 -0.00801
48.45 -0.00794
48.5 -0.00823
48.55 -0.00673
48.6 -0.00633
48.65 -0.00542
48.7 -0.00421
48.75 -0.00209
48.8 -0.002
48.85 -0.00254
48.9 -0.00437
48.95 -0.00697
49 -0.00882
49.05 -0.00846
49.1 -0.008
49.15 -0.00731
49.2 -0.00741
49.25 -0.00762
49.3 -0.00704
49.35 -0.00784
49.4 -0.00655
49.45 -0.0071
49.5 -0.00897
49.55 -0.00893
49.6 -0.00805
49.65 -0.006
49.7 -0.00635
49.75 -0.00548
49.8 -0.00499
49.85 -0.00557
49.9 -0.0047
49.95 -0.00545
50 -0.00587
50.05 -0.00768
50.1 -0.00881
50.15 -0.00771
50.2 -0.00818
50.25 -0.00721
50.3 -0.00714
50.35 -0.00659
50.4 -0.00665
50.45 -0.00731
50.5 -0.00878
50.55 -0.0104
50.6 -0.01017
50.65 -0.01008
50.7 -0.00789
50.75 -0.00648
50.8 -0.00488
50.85 -0.00216
50.9 -0.00023
50.95 0.00075
51 0.00098
51.05 0.00038
51.1 -0.00111
51.15 -0.0033
51.2 -0.00542
51.25 -0.00496
51.3 -0.00398
51.35 -0.00313
51.4 -0.00442
51.45 -0.00394
51.5 -0.00365
51.55 -0.00449
51.6 -0.00546
51.65 -0.00431
51.7 -0.00506
51.75 -0.00378
51.8 -0.00439
51.85 -0.00266
51.9 -0.00289
51.95 -0.00188
52 -0.00258
52.05 -0.00365
52.1 -0.00382
52.15 -0.00466
52.2 -0.00443
52.25 -0.00301
52.3 -0.00376
52.35 -0.00273
52.4 -0.00187
52.45 -0.00299
52.5 -0.00215
52.55 -0.00361
52.6 -0.00622
52.65 -0.00584
52.7 -0.00695
52.75 -0.00922
52.8 -0.00977
52.85 -0.01011
52.9 -0.00922
52.95 -0.00955
53 -0.00928
53.05 -0.00951
53.1 -0.00777
53.15 -0.00526
53.2 -0.00464
53.25 -0.00334
53.3 -0.00281
53.35 -0.00347
53.4 -0.00284
53.45 -0.00095
53.5 -0.00039
53.55 0.00101
53.6 0.00265
53.65 0.00202
53.7 0.00193
53.75 0.00022
53.8 -0.00104
53.85 -0.00269
53.9 -0.00444
53.95 -0.00504
54 -0.00591
54.05 -0.00603
54.1 -0.00472
54.15 -0.00274
54.2 0.00043
54.25 0.00176
54.3 0.00442
54.35 0.00441
54.4 0.00235
54.45 -0.00002
54.5 -0.00155
54.55 -0.00342
54.6 -0.00529
54.65 -0.0076
54.7 -0.00751
54.75 -0.00627
54.8 -0.00343
54.85 -0.00149
54.9 0.00166
54.95 0.00181
55 0.00273
55.05 0.00449
55.1 0.0057
55.15 0.00672
55.2 0.00582
55.25 0.00436
55.3 0.00425
55.35 0.00398
55.4 0.00328
55.45 0.00073
55.5 0.00082
55.55 -0.00125
55.6 -0.0027
55.65 -0.00188
55.7 -0.0022
55.75 -0.00237
55.8 -0.00305
55.85 -0.00398
55.9 -0.00392
55.95 -0.0016
56 0.00102
56.05 0.00164
56.1 0.00035
56.15 -0.00023
56.2 0.00086
56.25 -0.0003
56.3 -0.00115
56.35 0.00018
56.4 0.0021
56.45 0.00267
56.5 0.00448
56.55 0.00501
56.6 0.00595
56.65 0.00476
56.7 0.00334
56.75 0.00326
56.8 0.00206
56.85 -0.00047
56.9 -0.00401
56.95 -0.00483
57 -0.00496
57.05 -0.00518
57.1 -0.00331
57.15 -0.00212
57.2 -0.00242
57.25 -0.00253
57.3 -0.00114
57.35 0.00017
57.4 -0.00052
57.45 -0.00152
57.5 -0.00031
57.55 0.00053
57.6 0.00272
57.65 0.00562
57.7 0.00536
57.75 0.00561
57.8 0.00462
57.85 0.00397
57.9 0.00153
57.95 0.00167
58 0.00047
58.05 -0.00193
58.1 -0.00238
58.15 -0.0006
58.2 -0.00034
58.25 -0.00201
58.3 -0.00115
58.35 0.00053
58.4 0.0015
58.45 0.00046
58.5 0.00124
58.55 0.00146
58.6 0.00262
58.65 0.00504
58.7 0.00702
58.75 0.00571
58.8 0.00476
58.85 0.00238
58.9 0.00037
58.95 -0.00229
59 -0.00217
59.05 -0.00387
59.1 -0.00566
59.15 -0.00537
59.2 -0.00625
59.25 -0.00745
59.3 -0.00649
59.35 -0.00411
59.4 -0.00047
59.45 0.00024
59.5 0.00116
59.55 0.00077
59.6 0.00106
59.65 0.00274
59.7 0.00274
59.75 0.00153
59.8 0.00033
59.85 -0.00036
59.9 -0.00198
59.95 -0.0031
60 -0.00555
60.05 -0.00529
60.1 -0.00275
60.15 -0.0004
60.2 0.00201
60.25 0.00432
60.3 0.00519
60.35 0.00462
60.4 0.00264
60.45 -0.00038
60.5 -0.00119
60.55 -0.00282
60.6 -0.00532
60.65 -0.00652
60.7 -0.00482
60.75 -0.00209
60.8 -0.00207
60.85 -0.00104
60.9 -0.00117
60.95 -0.00285
61 -0.00346
61.05 -0.00502
61.1 -0.00653
61.15 -0.00522
61.2 -0.00315
61.25 -0.00075
61.3 0.00063
61.35 0.001
61.4 0.00252
61.45 0.00404
61.5 0.00655
61.55 0.00816
61.6 0.00644
61.65 0.00322
61.7 0.00227
61.75 0.00337
61.8 0.00214
61.85 0.00118
61.9 -0.00016
61.95 -0.00282
62 -0.00276
62.05 -0.00261
62.1 -0.00438
62.15 -0.00515
62.2 -0.00525
62.25 -0.00671
62.3 -0.00593
62.35 -0.00491
62.4 -0.00391
62.45 -0.00428
62.5 -0.00232
62.55 0.00059
62.6 0.00238
62.65 0.00494
62.7 0.00791
62.75 0.00906
62.8 0.00992
62.85 0.01007
62.9 0.00957
62.95 0.00855
63 0.00797
63.05 0.00836
63.1 0.00694
63.15 0.00468
63.2 0.00219
63.25 0.00077
63.3 0.00062
63.35 0.00014
63.4 0.00002
63.45 -0.00117
63.5 -0.00333
63.55 -0.00267
63.6 -0.00044
63.65 0.00061
63.7 -0.00014
63.75 -0.00212
63.8 -0.0049
63.85 -0.0075
63.9 -0.00992
63.95 -0.01241
64 -0.01111
64.05 -0.00959
64.1 -0.00651
64.15 -0.00338
64.2 -0.00053
64.25 0.00316
64.3 0.00316
64.35 0.00453
64.4 0.00515
64.45 0.00514
64.5 0.0049
64.55 0.00269
64.6 0.00011
64.65 -0.00255
64.7 -0.00307
64.75 -0.00508
64.8 -0.00461
64.85 -0.00536
64.9 -0.00345
64.95 -0.00389
65 -0.00466
65.05 -0.00501
65.1 -0.0052
65.15 -0.00673
65.2 -0.00766
65.25 -0.00755
65.3 -0.00537
65.35 -0.00496
65.4 -0.00618
65.45 -0.00506
65.5 -0.00534
65.55 -0.0061
65.6 -0.00699
65.65 -0.00654
65.7 -0.00498
65.75 -0.00266
65.8 -0.00003
65.85 0.00104
65.9 0.00105
65.95 -0.00013
66 -0.00142
66.05 -0.00407
66.1 -0.00337
66.15 -0.00098
66.2 0.00016
66.25 0.00193
66.3 0.00395
66.35 0.00485
66.4 0.00405
66.45 0.00344
66.5 0.0028
66.55 0.00356
66.6 0.00553
66.65 0.00709
66.7 0.00591
66.75 0.00321
66.8 0.00187
66.85 -0.00054
66.9 -0.00108
66.95 -0.0025
67 -0.00205
67.05 -0.00142
67.1 -0.00247
67.15 -0.00321
67.2 -0.00392
67.25 -0.00564
67.3 -0.00461
67.35 -0.00336
67.4 -0.0011
67.45 0.00126
67.5 0.00292
67.55 0.0042
67.6 0.00656
67.65 0.00754
67.7 0.00744
67.75 0.00703
67.8 0.0053
67.85 0.00538
67.9 0.00306
67.95 0.00107
68 -0.00224
68.05 -0.00434
68.1 -0.00586
68.15 -0.00705
68.2 -0.00637
68.25 -0.00508
68.3 -0.00346
68.35 -0.00241
68.4 -0.00216
68.45 -0.00213
68.5 -0.00081
68.55 0.00178
68.6 0.00424
68.65 0.00532
68.7 0.00407
68.75 0.00234
68.8 0.00144
68.85 0.00134
68.9 -0.00062
68.95 0.00016
69 -0.00077
69.05 0.00024
69.1 0.00089
69.15 0.0025
69.2 0.00239
69.25 0.00309
69.3 0.00297
69.35 0.00242
69.4 0.00358
69.45 0.0035
69.5 0.00346
69.55 0.00506
69.6 0.00757
69.65 0.00936
69.7 0.01158
69.75 0.01378
69.8 0.0159
69.85 0.01736
69.9 0.01747
69.95 0.01616
70 0.01311
70.05 0.00822
70.1 0.00436
70.15 -0.0005
70.2 -0.00205
70.25 -0.00437
70.3 -0.00624
70.35 -0.00618
70.4 -0.00772
70.45 -0.00688
70.5 -0.00627
70.55 -0.00641
70.6 -0.00652
70.65 -0.00568
70.7 -0.00647
70.75 -0.0059
70.8 -0.0032
70.85 -0.00191
70.9 0.00064
70.95 0.00199
71 0.00121
71.05 0.00035
71.1 0.00021
71.15 0.00103
71.2 0.00083
71.25 0.00156
71.3 0.00036
71.35 0.00107
71.4 0.00285
71.45 0.00507
71.5 0.00429
71.55 0.00434
71.6 0.00226
71.65 0.00227
71.7 0.00251
71.75 0.00131
71.8 0.00217
71.85 0.00384
71.9 0.0053
71.95 0.00493
72 0.00269
72.05 0.00021
72.1 -0.00049
72.15 -0.00076
72.2 -0.00042
72.25 0.00023
72.3 -0.00073
72.35 0.00025
72.4 0.00084
72.45 0.00243
72.5 0.00446
72.55 0.00494
72.6 0.00467
72.65 0.00529
72.7 0.00324
72.75 0.00239
72.8 -0.00004
72.85 -0.00245
72.9 -0.00318
72.95 -0.00494
73 -0.0071
73.05 -0.00631
73.1 -0.00739
73.15 -0.00829
73.2 -0.00877
73.25 -0.00989
73.3 -0.00935
73.35 -0.00682
73.4 -0.00514
73.45 -0.00273
73.5 0.00047
73.55 0.00139
73.6 0.00274
73.65 0.00224
73.7 0.00184
73.75 0.00153
73.8 -0.0002
73.85 -0.00023
73.9 -0.00202
73.95 -0.00367
74 -0.00499
74.05 -0.00454
74.1 -0.00444
74.15 -0.00412
74.2 -0.00217
74.25 0.00012
74.3 0.003
74.35 0.00244
74.4 0.00156
74.45 0.00086
74.5 -0.0015
74.55 -0.00152
74.6 -0.00108
74.65 -0.00063
74.7 -0.00214
74.75 -0.00347
74.8 -0.00227
74.85 -0.00175
74.9 -0.00342
74.95 -0.00608
75 -0.00877
75.05 -0.00829
75.1 -0.0075
75.15 -0.00661
75.2 -0.00732
75.25 -0.00648
75.3 -0.00631
75.35 -0.00624
75.4 -0.00688
75.45 -0.00619
75.5 -0.00424
75.55 -0.00416
75.6 -0.0042
75.65 -0.00215
75.7 -0.00011
75.75 0.00278
75.8 0.00557
75.85 0.00561
75.9 0.00372
75.95 0.00023
76 -0.00208
76.05 -0.00173
76.1 -0.00164
76.15 -0.00054
76.2 -0.00133
76.25 -0.00246
76.3 -0.00355
76.35 -0.00299
76.4 -0.00153
76.45 -0.00003
76.5 0.00057
76.55 -0.00063
76.6 -0.00261
76.65 -0.00194
76.7 -0.00152
76.75 -0.00139
76.8 -0.00233
76.85 -0.00248
76.9 -0.00414
76.95 -0.00351
77 -0.00101
77.05 -0.00071
77.1 0.00064
77.15 0.00058
77.2 0.00091
77.25 0.00061
77.3 0.00052
77.35 0.00215
77.4 0.00414
77.45 0.00549
77.5 0.00783
77.55 0.01034
77.6 0.0108
77.65 0.00841
77.7 0.00744
77.75 0.00808
77.8 0.00882
77.85 0.00797
77.9 0.00848
77.95 0.00651
78 0.0028
78.05 -0.0008
78.1 -0.00367
78.15 -0.00657
78.2 -0.0073
78.25 -0.00734
78.3 -0.00505
78.35 -0.00381
78.4 -0.00145
78.45 0.00136
78.5 0.00281
78.55 0.00464
78.6 0.00694
78.65 0.00905
78.7 0.00878
78.75 0.00839
78.8 0.00591
78.85 0.00224
78.9 -0.00231
78.95 -0.00621
79 -0.00669
79.05 -0.00606
79.1 -0.00365
79.15 -0.00313
79.2 -0.00122
79.25 -0.00066
79.3 0.00017
79.35 -0.00005
79.4 -0.00053
79.45 -0.00276
79.5 -0.00431
79.55 -0.00396
79.6 -0.00365
79.65 -0.00476
79.7 -0.00353
79.75 -0.00452
79.8 -0.00662
79.85 -0.00753
79.9 -0.00946
79.95 -0.01067
80 -0.00877
80.05 -0.00626
80.1 -0.00343
80.15 0.00046
80.2 0.00277
80.25 0.00513
80.3 0.00587
80.35 0.00753
80.4 0.0082
80.45 0.00704
80.5 0.0058
80.55 0.0035
80.6 0.00239
80.65 -0.00007
80.7 -0.00198
80.75 -0.00256
80.8 -0.00452
80.85 -0.00451
80.9 -0.00456
80.95 -0.00481
81 -0.00575
81.05 -0.00519
81.1 -0.00289
81.15 0.00038
81.2 0.00168
81.25 0.00364
81.3 0.00522
81.35 0.00436
81.4 0.00441
81.45 0.00558
81.5 0.00411
81.55 0.00387
81.6 0.00206
81.65 -0.00061
81.7 -0.00099
81.75 -0.00086
81.8 0.00026
81.85 0.00037
81.9 0.00019
81.95 0.00181
82 0.00121
82.05 0.00084
82.1 0.00059
82.15 0.00234
82.2 0.00208
82.25 0.00224
82.3 0.00359
82.35 0.00347
82.4 0.00132
82.45 -0.00158
82.5 -0.00232
82.55 -0.00088
82.6 0.00087
82.65 0.00309
82.7 0.00588
82.75 0.00855
82.8 0.00761
82.85 0.00426
82.9 0.00062
82.95 -0.00267
83 -0.00393
83.05 -0.00406
83.1 -0.00533
83.15 -0.00618
83.2 -0.00773
83.25 -0.00894
83.3 -0.00875
83.35 -0.00634
83.4 -0.00416
83.45 -0.00073
83.5 0.00319
83.55 0.00479
83.6 0.00632
83.65 0.00799
83.7 0.00852
83.75 0.00994
83.8 0.01046
83.85 0.01099
83.9 0.01005
83.95 0.00778
84 0.0056
84.05 0.00156
84.1 -0.00071
84.15 -0.00371
84.2 -0.00438
84.25 -0.00435
84.3 -0.00539
84.35 -0.00649
84.4 -0.00717
84.45 -0.00669
84.5 -0.00536
84.55 -0.00269
84.6 -0.00122
84.65 0.00072
84.7 0.0025
84.75 0.00167
84.8 -0.00086
84.85 -0.00159
84.9 -0.00401
84.95 -0.00592
85 -0.00584
85.05 -0.0044
85.1 -0.00338
85.15 -0.00293
85.2 -0.00188
85.25 -0.00245
85.3 -0.00347
85.35 -0.00402
85.4 -0.00401
85.45 -0.00488
85.5 -0.00488
85.55 -0.00273
85.6 0.00051
85.65 0.00317
85.7 0.00571
85.75 0.00578
85.8 0.00487
85.85 0.00261
85.9 0.00241
85.95 0.00238
86 0.00029
86.05 -0.00178
86.1 -0.0045
86.15 -0.00429
86.2 -0.00428
86.25 -0.002
86.3 -0.00077
86.35 -0.0011
86.4 -0.00047
86.45 -0.00061
86.5 0.00022
86.55 0.00017
86.6 0.00107
86.65 0.00072
86.7 -0.00136
86.75 -0.00069
86.8 0.00138
86.85 0.00433
86.9 0.00423
86.95 0.00196
87 0.00218
87.05 0.00242
87.1 0.00176
87.15 0.0028
87.2 0.00231
87.25 0.00266
87.3 0.00255
87.35 0.00046
87.4 -0.00303
87.45 -0.00672
87.5 -0.00773
87.55 -0.00784
87.6 -0.00733
87.65 -0.00632
87.7 -0.00615
87.75 -0.00692
87.8 -0.00734
87.85 -0.00782
87.9 -0.00663
87.95 -0.00676
88 -0.00633
88.05 -0.00361
88.1 -0.00283
88.15 -0.00292
88.2 -0.00262
88.25 -0.00069
88.3 0.0015
88.35 0.00074
88.4 0.00104
88.45 -0.00008
88.5 -0.00036
88.55 -0.00122
88.6 -0.00119
88.65 0.00075
88.7 0.00277
88.75 0.00364
88.8 0.00553
88.85 0.00437
88.9 0.0035
88.95 0.00265
89 0.00283
89.05 0.00389
89.1 0.00232
89.15 -0.00006
89.2 -0.00334
89.25 -0.00665
89.3 -0.00952
89.35 -0.01037
89.4 -0.01111
89.45 -0.00888
89.5 -0.00535
89.55 -0.00459
89.6 -0.00176
89.65 0.00179
89.7 0.00333
89.75 0.004
89.8 0.00382
89.85 0.00194
89.9 -0.00142
89.95 -0.0054
90 -0.00896
90.05 -0.01107
90.1 -0.01124
90.15 -0.00911
90.2 -0.00876
90.25 -0.0088
90.3 -0.00983
90.35 -0.00896
90.4 -0.00868
90.45 -0.0087
90.5 -0.00775
90.55 -0.0073
90.6 -0.00726
90.65 -0.00674
90.7 -0.00677
90.75 -0.00577
90.8 -0.00517
90.85 -0.00619
90.9 -0.0076
90.95 -0.00734
91 -0.00464
91.05 -0.00225
91.1 0.00082
91.15 0.00399
91.2 0.00563
91.25 0.00533
91.3 0.00483
91.35 0.00566
91.4 0.00633
91.45 0.00568
91.5 0.0038
91.55 0.00428
91.6 0.0028
91.65 0.00004
91.7 -0.00305
91.75 -0.00539
91.8 -0.00658
91.85 -0.00793
91.9 -0.00641
91.95 -0.0064
92 -0.0065
92.05 -0.00576
92.1 -0.00593
92.15 -0.00714
92.2 -0.00663
92.25 -0.00616
92.3 -0.00583
92.35 -0.00519
92.4 -0.00356
92.45 -0.0021
92.5 -0.00151
92.55 -0.00108
92.6 0.00047
92.65 0.00204
92.7 0.00188
92.75 0.00137
92.8 0.00243
92.85 0.00205
92.9 0.00104
92.95 0.00008
93 -0.00001
93.05 -0.0004
93.1 0.00003
93.15 -0.00034
93.2 0.0003
93.25 0.00105
93.3 0.00091
93.35 0.00028
93.4 -0.00072
93.45 -0.00196
93.5 -0.00331
93.55 -0.0024
93.6 -0.00251
93.65 -0.00212
93.7 -0.00246
93.75 -0.00118
93.8 -0.00015
93.85 0.00261
93.9 0.00599
93.95 0.00754
94 0.01016
94.05 0.00948
94.1 0.00995
94.15 0.01117
94.2 0.01242
94.25 0.01127
94.3 0.00989
94.35 0.00809
94.4 0.00763
94.45 0.0079
94.5 0.0067
94.55 0.00455
94.6 0.00486
94.65 0.0045
94.7 0.00542
94.75 0.00493
94.8 0.00339
94.85 0.00302
94.9 0.0026
94.95 0.0036
95 0.00529
95.05 0.00471
95.1 0.00474
95.15 0.00387
95.2 0.00491
95.25 0.00544
95.3 0.00506
95.35 0.00259
95.4 0.00084
95.45 0.00132
95.5 0.00031
95.55 0.00144
95.6 0.00064
95.65 0.00078
95.7 -0.00043
95.75 0.00026
95.8 0.0021
95.85 0.0013
95.9 0.0009
95.95 0.00215
96 0.00216
96.05 0.00109
96.1 -0.00004
96.15 0.00092
96.2 0.00232
96.25 0.00407
96.3 0.00645
96.35 0.00872
96.4 0.01056
96.45 0.0091
96.5 0.00729
96.55 0.00464
96.6 0.00062
96.65 -0.00299
96.7 -0.00669
96.75 -0.00922
96.8 -0.01081
96.85 -0.01194
96.9 -0.01135
96.95 -0.01125
97 -0.01176
97.05 -0.01133
97.1 -0.00973
97.15 -0.00869
97.2 -0.00551
97.25 -0.00242
97.3 -0.00013
97.35 0.00279
97.4 0.00319
97.45 0.00264
97.5 0.00015
97.55 -0.0033
97.6 -0.00615
97.65 -0.00585
97.7 -0.00384
97.75 -0.00245
97.8 -0.00256
97.85 -0.00224
97.9 -0.00014
97.95 0.00247
98 0.00265
98.05 0.00305
98.1 0.0035
98.15 0.00471
98.2 0.00541
98.25 0.00492
98.3 0.00346
98.35 0.00366
98.4 0.00271
98.45 0.00004
98.5 -0.00277
98.55 -0.00588
98.6 -0.00776
98.65 -0.01016
98.7 -0.0124
98.75 -0.01386
98.8 -0.01229
98.85 -0.01028
98.9 -0.00745
98.95 -0.00311
99 0.00182
99.05 0.00522
99.1 0.00747
99.15 0.0097
99.2 0.00856
99.25 0.00768
99.3 0.00468
99.35 0.00174
99.4 0.0014
99.45 -0.00016
99.5 -0.00098
99.55 -0.00106
99.6 0.00053
99.65 0.00265
99.7 0.00234
99.75 0.00243
99.8 0.00205
99.85 0.00351
99.9 0.00394
99.95 0.00407
