0 0
0.05 0.00539
0.1 0.01325
0.15 0.01737
0.2 0.02594
0.25 0.03166
0.3 0.04124
0.35 0.05076
0.4 0.05319
0.45 0.05667
0.5 0.05815
0.55 0.05582
0.6 0.05708
0.65 0.05856
0.7 0.05564
0.75 0.05732
0.8 0.05298
0.85 0.04882
0.9 0.04436
0.95 0.03916
1 0.03899
1.05 0.04093
1.1 0.04471
1.15 0.04611
1.2 0.04294
1.25 0.03992
1.3 0.0417
1.35 0.03837
1.4 0.04111
1.45 0.03936
1.5 0.03468
1.55 0.03465
1.6 0.03932
1.65 0.04053
1.7 0.04028
1.75 0.03746
1.8 0.03978
1.85 0.04205
1.9 0.0429
1.95 0.04037
2 0.04294
2.05 0.04397
2.1 0.03921
2.15 0.03078
2.2 0.02635
2.25 0.02572
2.3 0.02786
2.35 0.02544
2.4 0.02048
2.45 0.01364
2.5 0.01404
2.55 0.01084
2.6 0.01341
2.65 0.01564
2.7 0.01388
2.75 0.01485
2.8 0.01729
2.85 0.01956
2.9 0.02427
2.95 0.03121
3 0.03742
3.05 0.0362
3.1 0.03092
3.15 0.02794
3.2 0.0279
3.25 0.02568
3.3 0.02535
3.35 0.0251
3.4 0.02748
3.45 0.02436
3.5 0.02622
3.55 0.02827
3.6 0.03295
3.65 0.03438
3.7 0.03289
3.75 0.03425
3.8 0.03083
3.85 0.02718
3.9 0.01996
3.95 0.01056
4 0.00902
4.05 0.01022
4.1 0.0158
4.15 0.02084
4.2 0.02739
4.25 0.02479
4.3 0.02269
4.35 0.02117
4.4 0.01904
4.45 0.00929
4.5 -0.00437
4.55 -0.01977
4.6 -0.0316
4.65 -0.04297
4.7 -0.05709
4.75 -0.06999
4.8 -0.08821
4.85 -0.10501
4.9 -0.12393
4.95 -0.15413
5 -0.18602
5.05 -0.22113
5.1 -0.26326
5.15 -0.31266
5.2 -0.35996
5.25 -0.41407
5.3 -0.47162
5.35 -0.53187
5.4 -0.5951
5.45 -0.65264
5.5 -0.70981
5.55 -0.76954
5.6 -0.82943
5.65 -0.87857
5.7 -0.92019
5.75 -0.95334
5.8 -0.97924
5.85 -1.00094
5.9 -1.0173
5.95 -1.03188
6 -1.03498
6.05 -1.02869
6.1 -1.01035
6.15 -0.98598
6.2 -0.95544
6.25 -0.92109
6.3 -0.88347
6.35 -0.83703
6.4 -0.78932
6.45 -0.73488
6.5 -0.67494
6.55 -0.62053
6.6 -0.56809
6.65 -0.50957
6.7 -0.44738
6.75 -0.3793
6.8 -0.31342
6.85 -0.2432
6.9 -0.17349
6.95 -0.10536
7 -0.03092
7.05 0.04564
7.1 0.11881
7.15 0.19285
7.2 0.26732
7.25 0.34127
7.3 0.41816
7.35 0.49136
7.4 0.56311
7.45 0.6301
7.5 0.68643
7.55 0.73468
7.6 0.77898
7.65 0.81634
7.7 0.8516
7.75 0.88472
7.8 0.91392
7.85 0.93655
7.9 0.94711
7.95 0.94984
8 0.95192
8.05 0.95107
8.1 0.94488
8.15 0.93368
8.2 0.91673
8.25 0.89607
8.3 0.87732
8.35 0.85725
8.4 0.83813
8.45 0.81762
8.5 0.79586
8.55 0.77227
8.6 0.74819
8.65 0.72165
8.7 0.69875
8.75 0.67035
8.8 0.64762
8.85 0.62861
8.9 0.60469
8.95 0.58217
9 0.55857
9.05 0.53403
9.1 0.5087
9.15 0.48936
9.2 0.47124
9.25 0.45744
9.3 0.44464
9.35 0.43038
9.4 0.41841
9.45 0.41051
9.5 0.40113
9.55 0.38906
9.6 0.37947
9.65 0.36477
9.7 0.34729
9.75 0.33685
9.8 0.32695
9.85 0.31774
9.9 0.31225
9.95 0.30111
10 0.29406
10.05 0.28292
10.1 0.27215
10.15 0.25773
10.2 0.24206
10.25 0.23369
10.3 0.22464
10.35 0.21871
10.4 0.21137
10.45 0.20243
10.5 0.19215
10.55 0.18359
10.6 0.17109
10.65 0.15697
10.7 0.14074
10.75 0.12469
10.8 0.11463
10.85 0.10097
10.9 0.08506
10.95 0.06975
11 0.05191
11.05 0.03312
11.1 0.01931
11.15 0.00493
11.2 -0.00172
11.25 -0.00938
11.3 -0.01493
11.35 -0.02462
11.4 -0.03036
11.45 -0.03288
11.5 -0.04096
11.55 -0.05122
11.6 -0.05968
11.65 -0.06446
11.7 -0.06931
11.75 -0.07154
11.8 -0.07539
11.85 -0.08256
11.9 -0.08805
11.95 -0.08985
12 -0.09617
12.05 -0.10128
12.1 -0.10094
12.15 -0.10177
12.2 -0.10384
12.25 -0.1109
12.3 -0.11802
12.35 -0.12028
12.4 -0.12604
12.45 -0.12514
12.5 -0.12508
12.55 -0.1226
12.6 -0.12426
12.65 -0.12374
12.7 -0.12097
12.75 -0.11823
12.8 -0.11353
12.85 -0.10677
12.9 -0.10547
12.95 -0.10172
13 -0.0989
13.05 -0.09897
13.1 -0.09596
13.15 -0.09659
13.2 -0.1006
13.25 -0.10885
13.3 -0.11009
13.35 -0.11207
13.4 -0.11466
13.45 -0.11405
13.5 -0.11665
13.55 -0.11736
13.6 -0.11982
13.65 -0.11914
13.7 -0.11546
13.75 -0.11407
13.8 -0.10977
13.85 -0.10304
13.9 -0.10261
13.95 -0.09936
14 -0.09707
14.05 -0.09465
14.1 -0.09333
14.15 -0.0895
14.2 -0.08511
14.25 -0.08465
14.3 -0.08171
14.35 -0.08045
14.4 -0.07781
14.45 -0.07605
14.5 -0.07997
14.55 -0.08126
14.6 -0.08485
14.65 -0.08786
14.7 -0.09269
14.75 -0.08978
14.8 -0.08824
14.85 -0.08221
14.9 -0.07684
14.95 -0.06879
15 -0.06723
15.05 -0.07107
15.1 -0.07237
15.15 -0.07532
15.2 -0.07604
15.25 -0.07557
15.3 -0.06998
15.35 -0.06992
15.4 -0.06445
15.45 -0.06155
15.5 -0.06215
15.55 -0.0662
15.6 -0.07072
15.65 -0.07592
15.7 -0.07295
15.75 -0.07109
15.8 -0.0658
15.85 -0.0625
15.9 -0.05726
15.95 -0.05512
16 -0.05622
16.05 -0.05343
16.1 -0.04758
16.15 -0.04584
16.2 -0.04326
16.25 -0.03747
16.3 -0.03349
16.35 -0.03481
16.4 -0.03757
16.45 -0.04349
16.5 -0.04913
16.55 -0.0545
16.6 -0.05845
16.65 -0.0578
16.7 -0.05989
16.75 -0.0601
16.8 -0.05384
16.85 -0.04363
16.9 -0.03482
16.95 -0.03174
17 -0.02816
17.05 -0.02706
17.1 -0.02932
17.15 -0.02965
17.2 -0.02804
17.25 -0.03215
17.3 -0.03905
17.35 -0.04394
17.4 -0.04244
17.45 -0.04465
17.5 -0.04002
17.55 -0.03282
17.6 -0.02545
17.65 -0.02473
17.7 -0.0261
17.75 -0.02727
17.8 -0.03075
17.85 -0.02965
17.9 -0.02783
17.95 -0.02784
18 -0.02666
18.05 -0.02217
18.1 -0.01671
18.15 -0.01478
18.2 -0.01837
18.25 -0.02206
18.3 -0.02822
18.35 -0.03317
18.4 -0.0369
18.45 -0.04143
18.5 -0.04508
18.55 -0.04535
18.6 -0.04353
18.65 -0.03954
18.7 -0.03963
18.75 -0.03428
18.8 -0.03305
18.85 -0.02758
18.9 -0.02683
18.95 -0.02167
19 -0.01563
19.05 -0.01597
19.1 -0.01539
19.15 -0.01942
19.2 -0.02256
19.25 -0.02398
19.3 -0.02332
19.35 -0.01899
19.4 -0.01146
19.45 -0.00875
19.5 -0.00681
19.55 -0.00413
19.6 -0.0031
19.65 -0.00473
19.7 -0.01064
19.75 -0.01875
19.8 -0.0205
19.85 -0.01919
19.9 -0.02007
19.95 -0.01693
20 -0.01204
20.05 -0.00783
20.1 -0.00771
20.15 -0.01159
20.2 -0.0184
20.25 -0.01802
20.3 -0.02066
20.35 -0.02256
20.4 -0.0192
20.45 -0.01309
20.5 -0.01156
20.55 -0.0065
20.6 -0.00224
20.65 0.00294
20.7 0.00426
20.75 0.00519
20.8 0.00413
20.85 0.00231
20.9 -0.00455
20.95 -0.00524
21 -0.00653
21.05 -0.00659
21.1 -0.01004
21.15 -0.0098
21.2 -0.01319
21.25 -0.01399
21.3 -0.01575
21.35 -0.01918
21.4 -0.01625
21.45 -0.0135
21.5 -0.01384
21.55 -0.01449
21.6 -0.01851
21.65 -0.02059
21.7 -0.01694
21.75 -0.01348
21.8 -0.01297
21.85 -0.01214
21.9 -0.0159
21.95 -0.01306
22 -0.01157
22.05 -0.01323
22.1 -0.01337
22.15 -0.00962
22.2 -0.0046
22.25 0.00244
22.3 0.00177
22.35 0.00406
22.4 0.00704
22.45 0.00927
22.5 0.00576
22.55 0.00227
22.6 -0.00027
22.65 0.00116
22.7 -0.00193
22.75 -0.00132
22.8 -0.00212
22.85 -0.001
22.9 -0.00421
22.95 -0.01065
23 -0.01816
23.05 -0.02182
23.1 -0.02592
23.15 -0.02416
23.2 -0.02024
23.25 -0.0211
23.3 -0.02274
23.35 -0.02642
23.4 -0.02502
23.45 -0.02521
23.5 -0.02136
23.55 -0.01568
23.6 -0.01209
23.65 -0.00509
23.7 -0.00438
23.75 -0.00799
23.8 -0.00574
23.85 -0.00184
23.9 0.00134
23.95 0.00236
24 0.00663
24.05 0.01268
24.1 0.01578
24.15 0.01775
24.2 0.01586
24.25 0.01525
24.3 0.01419
24.35 0.01525
24.4 0.01906
24.45 0.01584
24.5 0.01508
24.55 0.01186
24.6 0.00745
24.65 -0.00063
24.7 -0.00916
24.75 -0.01624
24.8 -0.02168
24.85 -0.02703
24.9 -0.03278
24.95 -0.02966
25 -0.02923
25.05 -0.02335
25.1 -0.01532
25.15 -0.01032
25.2 -0.00298
25.25 0.00494
25.3 0.01296
25.35 0.01953
25.4 0.02343
25.45 0.02257
25.5 0.02311
25.55 0.02453
25.6 0.01916
25.65 0.01525
25.7 0.01052
25.75 0.00968
25.8 0.00886
25.85 0.00271
25.9 -0.00258
25.95 -0.00634
26 -0.01316
26.05 -0.01839
26.1 -0.02501
26.15 -0.02392
26.2 -0.02613
26.25 -0.03032
26.3 -0.0341
26.35 -0.03005
26.4 -0.02325
26.45 -0.01577
26.5 -0.00772
26.55 -0.00088
26.6 0.00359
26.65 0.00667
26.7 0.0049
26.75 0.00158
26.8 0.0033
26.85 0.00723
26.9 0.00441
26.95 -0.00157
27 -0.00697
27.05 -0.00644
27.1 -0.0032
27.15 0.00156
27.2 0.00652
27.25 0.00853
27.3 0.01261
27.35 0.01267
27.4 0.00637
27.45 0.00339
27.5 -0.00435
27.55 -0.01264
27.6 -0.02007
27.65 -0.0241
27.7 -0.02603
27.75 -0.02659
27.8 -0.0343
27.85 -0.0443
27.9 -0.05256
27.95 -0.06551
28 -0.07754
28.05 -0.08762
28.1 -0.10234
28.15 -0.12291
28.2 -0.14813
28.25 -0.17611
28.3 -0.20145
28.35 -0.23393
28.4 -0.26883
28.45 -0.30754
28.5 -0.34997
28.55 -0.39601
28.6 -0.44349
28.65 -0.49456
28.7 -0.55258
28.75 -0.6087
28.8 -0.66604
28.85 -0.72563
28.9 -0.79526
28.95 -0.87321
29 -0.95237
29.05 -1.03222
29.1 -1.11055
29.15 -1.18884
29.2 -1.26871
29.25 -1.34507
29.3 -1.4219
29.35 -1.49907
29.4 -1.56938
29.45 -1.63701
29.5 -1.69627
29.55 -1.74612
29.6 -1.7955
29.65 -1.83302
29.7 -1.86261
29.75 -1.88537
29.8 -1.90067
29.85 -1.90125
29.9 -1.8939
29.95 -1.87123
30 -1.84099
30.05 -1.80237
30.1 -1.75393
30.15 -1.68976
30.2 -1.61652
30.25 -1.53096
30.3 -1.43425
30.35 -1.3234
30.4 -1.20882
30.45 -1.08719
30.5 -0.9629
30.55 -0.82852
30.6 -0.69091
30.65 -0.55134
30.7 -0.40532
30.75 -0.25891
30.8 -0.11231
30.85 0.02693
30.9 0.15781
30.95 0.28925
31 0.41578
31.05 0.53865
31.1 0.65654
31.15 0.76546
31.2 0.86933
31.25 0.96395
31.3 1.05208
31.35 1.12913
31.4 1.1958
31.45 1.25909
31.5 1.31234
31.55 1.36245
31.6 1.40334
31.65 1.43726
31.7 1.46325
31.75 1.48944
31.8 1.51376
31.85 1.53671
31.9 1.54903
31.95 1.55779
32 1.56726
32.05 1.57627
32.1 1.57567
32.15 1.56997
32.2 1.56606
32.25 1.56051
32.3 1.54949
32.35 1.5406
32.4 1.53397
32.45 1.52347
32.5 1.51313
32.55 1.50564
32.6 1.50093
32.65 1.49087
32.7 1.47925
32.75 1.46711
32.8 1.45688
32.85 1.44369
32.9 1.42321
32.95 1.40494
33 1.38634
33.05 1.36752
33.1 1.34876
33.15 1.32482
33.2 1.2944
33.25 1.26297
33.3 1.2328
33.35 1.19844
33.4 1.16154
33.45 1.12964
33.5 1.09767
33.55 1.06108
33.6 1.02571
33.65 0.98655
33.7 0.94553
33.75 0.90865
33.8 0.87563
33.85 0.83804
33.9 0.80479
33.95 0.77341
34 0.74213
34.05 0.7067
34.1 0.6706
34.15 0.63967
34.2 0.60399
34.25 0.56975
34.3 0.53621
34.35 0.49868
34.4 0.46181
34.45 0.42422
34.5 0.38806
34.55 0.35395
34.6 0.31979
34.65 0.29029
34.7 0.26379
34.75 0.23761
34.8 0.21246
34.85 0.18973
34.9 0.17
34.95 0.1511
35 0.12988
35.05 0.10535
35.1 0.08577
35.15 0.07
35.2 0.05097
35.25 0.03155
35.3 0.01
35.35 -0.01441
35.4 -0.03432
35.45 -0.05193
35.5 -0.06976
35.55 -0.0816
35.6 -0.08964
35.65 -0.10191
35.7 -0.11659
35.75 -0.13143
35.8 -0.14699
35.85 -0.16501
35.9 -0.17588
35.95 -0.18869
36 -0.20211
36.05 -0.21
36.1 -0.22072
36.15 -0.2255
36.2 -0.23187
36.25 -0.23226
36.3 -0.23499
36.35 -0.24039
36.4 -0.24362
36.45 -0.24261
36.5 -0.24165
36.55 -0.24678
36.6 -0.25625
36.65 -0.26563
36.7 -0.27355
36.75 -0.28248
36.8 -0.28209
36.85 -0.28107
36.9 -0.28316
36.95 -0.2784
37 -0.27023
37.05 -0.2644
37.1 -0.25655
37.15 -0.2555
37.2 -0.25973
37.25 -0.26004
37.3 -0.26058
37.35 -0.26252
37.4 -0.25987
37.45 -0.25919
37.5 -0.26206
37.55 -0.26548
37.6 -0.26721
37.65 -0.26901
37.7 -0.26426
37.75 -0.25592
37.8 -0.24568
37.85 -0.24201
37.9 -0.24006
37.95 -0.23784
38 -0.23269
38.05 -0.23235
38.1 -0.23256
38.15 -0.2333
38.2 -0.2314
38.25 -0.22549
38.3 -0.21944
38.35 -0.21448
38.4 -0.2074
38.45 -0.2056
38.5 -0.20664
38.55 -0.20988
38.6 -0.20705
38.65 -0.20414
38.7 -0.20207
38.75 -0.20198
38.8 -0.20243
38.85 -0.19678
38.9 -0.19143
38.95 -0.18825
39 -0.18114
39.05 -0.17349
39.1 -0.16536
39.15 -0.15695
39.2 -0.15301
39.25 -0.14824
39.3 -0.14948
39.35 -0.14572
39.4 -0.14142
39.45 -0.13644
39.5 -0.13334
39.55 -0.12752
39.6 -0.12946
39.65 -0.13122
39.7 -0.13189
39.75 -0.13313
39.8 -0.12943
39.85 -0.12539
39.9 -0.12056
39.95 -0.11955
40 -0.12104
40.05 -0.12017
40.1 -0.116
40.15 -0.11425
40.2 -0.1086
40.25 -0.10273
40.3 -0.09632
40.35 -0.09473
40.4 -0.09839
40.45 -0.09703
40.5 -0.09755
40.55 -0.0993
40.6 -0.10413
40.65 -0.10396
40.7 -0.1025
40.75 -0.10475
40.8 -0.1021
40.85 -0.0976
40.9 -0.09307
40.95 -0.08659
41 -0.08337
41.05 -0.08046
41.1 -0.07538
41.15 -0.07315
41.2 -0.07776
41.25 -0.0829
41.3 -0.08917
41.35 -0.09122
41.4 -0.09478
41.45 -0.0976
41.5 -0.10131
41.55 -0.10056
41.6 -0.09656
41.65 -0.09175
41.7 -0.09173
41.75 -0.09146
41.8 -0.0923
41.85 -0.09253
41.9 -0.09317
41.95 -0.09589
42 -0.0987
42.05 -0.09801
42.1 -0.09931
42.15 -0.10101
42.2 -0.09959
42.25 -0.09935
42.3 -0.09093
42.35 -0.08207
42.4 -0.07268
42.45 -0.06262
42.5 -0.05685
42.55 -0.04975
42.6 -0.04454
42.65 -0.03756
42.7 -0.03195
42.75 -0.02637
42.8 -0.02309
42.85 -0.02714
42.9 -0.03132
42.95 -0.03465
43 -0.04214
43.05 -0.04809
43.1 -0.05552
43.15 -0.06202
43.2 -0.06274
43.25 -0.05765
43.3 -0.05764
43.35 -0.06085
43.4 -0.0622
43.45 -0.06186
43.5 -0.05731
43.55 -0.056
43.6 -0.05072
43.65 -0.0495
43.7 -0.04611
43.75 -0.04731
43.8 -0.04953
43.85 -0.04991
43.9 -0.05259
43.95 -0.04947
44 -0.04705
44.05 -0.04316
44.1 -0.03964
44.15 -0.035
44.2 -0.03456
44.25 -0.03526
44.3 -0.03556
44.35 -0.03912
44.4 -0.03927
44.45 -0.03769
44.5 -0.03728
44.55 -0.04023
44.6 -0.03605
44.65 -0.03
44.7 -0.02863
44.75 -0.03134
44.8 -0.03025
44.85 -0.02836
44.9 -0.03013
44.95 -0.02647
45 -0.02071
45.05 -0.01399
45.1 -0.00735
45.15 -0.00333
45.2 -0.00603
45.25 -0.00439
45.3 -0.00582
45.35 -0.01183
45.4 -0.02112
45.45 -0.02807
45.5 -0.02731
45.55 -0.02922
45.6 -0.02517
45.65 -0.01878
45.7 -0.0106
45.75 -0.00821
45.8 -0.0037
45.85 -0.00076
45.9 0.00316
45.95 0.00192
46 0.00085
46.05 -0.00397
46.1 -0.00965
46.15 -0.01481
46.2 -0.01878
46.25 -0.0214
46.3 -0.02111
46.35 -0.01795
46.4 -0.01748
46.45 -0.02184
46.5 -0.02836
46.55 -0.02796
46.6 -0.02451
46.65 -0.02028
46.7 -0.01557
46.75 -0.01502
46.8 -0.01511
46.85 -0.01233
46.9 -0.00926
46.95 -0.00673
47 -0.00511
47.05 -0.00677
47.1 -0.00879
47.15 -0.01096
47.2 -0.00811
47.25 -0.00696
47.3 -0.00964
47.35 -0.00729
47.4 -0.01095
47.45 -0.01727
47.5 -0.02159
47.55 -0.02243
47.6 -0.021
47.65 -0.01765
47.7 -0.01451
47.75 -0.01115
47.8 -0.01146
47.85 -0.01214
47.9 -0.0163
47.95 -0.02141
48 -0.02303
48.05 -0.02052
48.1 -0.01512
48.15 -0.01531
48.2 -0.01891
48.25 -0.01981
48.3 -0.02058
48.35 -0.01849
48.4 -0.01981
48.45 -0.01906
48.5 -0.01804
48.55 -0.01579
48.6 -0.01465
48.65 -0.00986
48.7 -0.00563
48.75 -0.00449
48.8 -0.0043
48.85 -0.00047
48.9 -0.0031
48.95 -0.00774
49 -0.00654
49.05 -0.00614
49.1 -0.00238
49.15 -0.00246
49.2 -0.0032
49.25 -0.00551
49.3 -0.01136
49.35 -0.0099
49.4 -0.01021
49.45 -0.00624
49.5 -0.00541
49.55 -0.00435
49.6 -0.00594
49.65 -0.00327
49.7 0.00042
49.75 0.00368
49.8 0.00605
49.85 0.00524
49.9 -0.00026
49.95 -0.00034
50 -0.00502
50.05 -0.00577
50.1 -0.00376
50.15 0.00058
50.2 0.00687
50.25 0.00635
50.3 0.00081
50.35 -0.00644
50.4 -0.0063
50.45 -0.01007
50.5 -0.00724
50.55 -0.00182
50.6 0.00349
50.65 0.01047
50.7 0.00931
50.75 0.00354
50.8 -0.00057
50.85 -0.00313
50.9 -0.00926
50.95 -0.00823
51 -0.00481
51.05 -0.00394
51.1 -0.00283
51.15 -0.00079
51.2 0.00212
51.25 0.00666
51.3 0.01214
51.35 0.01057
51.4 0.00382
51.45 -0.00038
51.5 -0.00447
51.55 -0.00735
51.6 -0.00744
51.65 -0.00397
51.7 -0.00588
51.75 -0.00726
51.8 -0.01169
51.85 -0.01688
51.9 -0.02383
51.95 -0.02595
52 -0.02308
52.05 -0.02427
52.1 -0.02311
52.15 -0.02378
52.2 -0.02547
52.25 -0.02287
52.3 -0.02324
52.35 -0.0248
52.4 -0.02742
52.45 -0.02408
52.5 -0.0234
52.55 -0.02346
52.6 -0.01785
52.65 -0.00919
52.7 0.00125
52.75 0.00626
52.8 0.00825
52.85 0.00964
52.9 0.01028
52.95 0.00939
53 0.00971
53.05 0.00953
53.1 0.00624
53.15 0.00601
53.2 0.00117
53.25 -0.00267
53.3 -0.0053
53.35 -0.0058
53.4 -0.00741
53.45 -0.00472
53.5 -0.00625
53.55 -0.0043
53.6 -0.00579
53.65 -0.00733
53.7 -0.00293
53.75 0.00028
53.8 0.00552
53.85 0.00549
53.9 0.00723
53.95 0.00997
54 0.00912
54.05 0.00457
54.1 0.00426
54.15 -0.00092
54.2 -0.00113
54.25 -0.00336
54.3 0.00028
54.35 -0
54.4 -0.00105
54.45 0.00112
54.5 -0.00089
54.55 -0.00629
54.6 -0.01268
54.65 -0.0155
54.7 -0.01305
54.75 -0.01119
54.8 -0.00851
54.85 -0.00969
54.9 -0.00955
54.95 -0.01194
55 -0.01366
55.05 -0.01223
55.1 -0.00651
55.15 0.00053
55.2 0.00652
55.25 0.01026
55.3 0.01005
55.35 0.00469
55.4 0.00006
55.45 -0.00385
55.5 -0.00274
55.55 -0.00274
55.6 -0.00704
55.65 -0.01206
55.7 -0.01739
55.75 -0.01761
55.8 -0.01924
55.85 -0.01386
55.9 -0.00636
55.95 0.00166
56 0.00614
56.05 0.00874
56.1 0.00731
56.15 0.00439
56.2 0.00162
56.25 -0.00258
56.3 -0.00314
56.35 -0.00455
56.4 -0.00742
56.45 -0.01281
56.5 -0.01171
56.55 -0.01118
56.6 -0.00589
56.65 -0.00372
56.7 -0.00541
56.75 -0.00817
56.8 -0.00914
56.85 -0.00705
56.9 -0.0047
56.95 -0.00051
57 0.00212
57.05 0.00418
57.1 0.00423
57.15 0.00459
57.2 0.00245
57.25 0.00369
57.3 0.00901
57.35 0.0118
57.4 0.00824
57.45 0.00874
57.5 0.01238
57.55 0.0125
57.6 0.01329
57.65 0.01709
57.7 0.02124
57.75 0.01917
57.8 0.01313
57.85 0.00957
57.9 0.0062
57.95 0.00469
58 0.00794
58.05 0.0089
58.1 0.01086
58.15 0.01568
58.2 0.02169
58.25 0.02008
58.3 0.02055
58.35 0.01486
58.4 0.00685
58.45 -0.00118
58.5 -0.00361
58.55 -0.00363
58.6 -0.005
58.65 -0.00393
58.7 -0.00292
58.75 -0.00671
58.8 -0.00571
58.85 -0.00514
58.9 0.00012
58.95 0.00718
59 0.0071
59.05 0.00426
59.1 0.00649
59.15 0.0118
59.2 0.01471
59.25 0.01538
59.3 0.01909
59.35 0.02442
59.4 0.02227
59.45 0.02129
59.5 0.01793
59.55 0.01707
59.6 0.01564
59.65 0.01401
59.7 0.01555
59.75 0.01055
59.8 0.00913
59.85 0.01012
59.9 0.00654
59.95 0.00459
60 0.00682
60.05 0.00978
60.1 0.01102
60.15 0.01067
60.2 0.00669
60.25 0.00024
60.3 -0.0006
60.35 -0.00567
60.4 -0.00523
60.45 -0.00035
60.5 0.00022
60.55 0.00144
60.6 -0.00062
60.65 0.00039
60.7 -0.00151
60.75 -0.00019
60.8 -0.00444
60.85 -0.00995
60.9 -0.01073
60.95 -0.00833
61 -0.00986
61.05 -0.01464
61.1 -0.01659
61.15 -0.01568
61.2 -0.01628
61.25 -0.01221
61.3 -0.00503
61.35 0.0041
61.4 0.00552
61.45 0.00563
61.5 0.00834
61.55 0.00608
61.6 0.00286
61.65 0.00086
61.7 -0.00439
61.75 -0.00787
61.8 -0.0076
61.85 -0.00497
61.9 -0.00514
61.95 -0.00535
62 -0.00715
62.05 -0.0033
62.1 -0.00327
62.15 -0.00368
62.2 -0.00637
62.25 -0.00799
62.3 -0.00603
62.35 -0.00674
62.4 -0.00536
62.45 -0.00804
62.5 -0.01408
62.55 -0.01755
62.6 -0.0149
62.65 -0.00899
62.7 -0.00375
62.75 0.0002
62.8 0.00065
62.85 -0.00281
62.9 -0.00825
62.95 -0.01077
63 -0.01481
63.05 -0.0206
63.1 -0.02241
63.15 -0.0223
63.2 -0.01917
63.25 -0.01896
63.3 -0.02028
63.35 -0.02402
63.4 -0.02672
63.45 -0.02941
63.5 -0.02834
63.55 -0.02967
63.6 -0.02496
63.65 -0.02417
63.7 -0.02204
63.75 -0.01483
63.8 -0.00803
63.85 -0.0066
63.9 -0.00876
63.95 -0.01087
64 -0.01057
64.05 -0.01181
64.1 -0.01603
64.15 -0.01532
64.2 -0.0152
64.25 -0.00928
64.3 -0.00069
64.35 0.00105
64.4 0.00678
64.45 0.00991
64.5 0.01481
64.55 0.01743
64.6 0.01833
64.65 0.01852
64.7 0.0194
64.75 0.01758
64.8 0.01398
64.85 0.0116
64.9 0.01279
64.95 0.01124
65 0.0064
65.05 -0.00123
65.1 -0.00655
65.15 -0.01232
65.2 -0.01494
65.25 -0.01175
65.3 -0.00507
65.35 -0.00156
65.4 0.00415
65.45 0.00394
65.5 0.00005
65.55 0.00073
65.6 0.00598
65.65 0.00964
65.7 0.01449
65.75 0.0177
65.8 0.01522
65.85 0.0152
65.9 0.01609
65.95 0.0187
66 0.0203
66.05 0.02357
66.1 0.02604
66.15 0.02422
66.2 0.02491
66.25 0.02111
66.3 0.01966
66.35 0.01674
66.4 0.01381
66.45 0.00738
66.5 0.00631
66.55 0.00853
66.6 0.01249
66.65 0.01128
66.7 0.00748
66.75 0.00849
66.8 0.01033
66.85 0.01375
66.9 0.01485
66.95 0.014
67 0.00774
67.05 -0.00053
67.1 -0.00534
67.15 -0.0099
67.2 -0.01034
67.25 -0.01044
67.3 -0.01243
67.35 -0.01648
67.4 -0.01489
67.45 -0.01245
67.5 -0.0098
67.55 -0.00921
67.6 -0.00844
67.65 -0.00585
67.7 -0.00579
67.75 -0.00966
67.8 -0.01479
67.85 -0.0179
67.9 -0.02027
67.95 -0.01603
68 -0.01682
68.05 -0.01727
68.1 -0.01994
68.15 -0.01538
68.2 -0.01521
68.25 -0.01264
68.3 -0.00942
68.35 -0.00987
68.4 -0.01191
68.45 -0.00842
68.5 -0.00796
68.55 -0.00445
68.6 -0.0012
68.65 0.00263
68.7 0.00929
68.75 0.00963
68.8 0.00599
68.85 -0.00049
68.9 -0.00187
68.95 -0.00616
69 -0.01173
69.05 -0.01273
69.1 -0.01602
69.15 -0.01628
69.2 -0.01183
69.25 -0.00806
69.3 -0.00872
69.35 -0.00897
69.4 -0.00624
69.45 -0.00325
69.5 -0.00059
69.55 0.00036
69.6 0.00137
69.65 -0.00198
69.7 -0.00782
69.75 -0.01509
69.8 -0.0163
69.85 -0.01732
69.9 -0.01682
69.95 -0.01183
70 -0.00951
70.05 -0.00942
70.1 -0.00841
70.15 -0.00961
70.2 -0.00646
70.25 -0.00035
70.3 0.00588
70.35 0.01019
70.4 0.0102
70.45 0.00895
70.5 0.00332
70.55 -0.00263
70.6 -0.00185
70.65 -0.001
70.7 -0.00484
70.75 -0.01007
70.8 -0.01417
70.85 -0.0176
70.9 -0.01862
70.95 -0.01681
71 -0.01758
71.05 -0.01822
71.1 -0.01966
71.15 -0.01556
71.2 -0.01566
71.25 -0.01872
71.3 -0.02243
71.35 -0.02041
71.4 -0.01657
71.45 -0.00777
71.5 -0.00314
71.55 0.00342
71.6 0.00665
71.65 0.0126
71.7 0.0191
71.75 0.02342
71.8 0.02569
71.85 0.02783
71.9 0.02872
71.95 0.0237
72 0.0154
72.05 0.00513
72.1 -0.00302
72.15 -0.00484
72.2 -0.00699
72.25 -0.00842
72.3 -0.0097
72.35 -0.00734
72.4 -0.00064
72.45 0.00817
72.5 0.01087
72.55 0.01231
72.6 0.01648
72.65 0.02113
72.7 0.02335
72.75 0.02254
72.8 0.01698
72.85 0.01087
72.9 0.00528
72.95 0.0006
73 -0.0019
73.05 -0.00423
73.1 -0.00299
73.15 0.00079
73.2 0.00778
73.25 0.00743
73.3 0.00563
73.35 0.0079
73.4 0.01097
73.45 0.01475
73.5 0.01716
73.55 0.01918
73.6 0.01664
73.65 0.01671
73.7 0.01452
73.75 0.01442
73.8 0.01486
73.85 0.01726
73.9 0.01991
73.95 0.018
74 0.01662
74.05 0.01538
74.1 0.01027
74.15 0.00463
74.2 0.00225
74.25 -0.00347
74.3 -0.00383
74.35 -0.00498
74.4 -0.00191
74.45 0.00308
74.5 0.00621
74.55 0.00398
74.6 -0.00088
74.65 -0.00517
74.7 -0.00813
74.75 -0.01052
74.8 -0.01069
74.85 -0.00691
74.9 -0.00395
74.95 -0.00249
75 -0.00202
75.05 -0.00402
75.1 -0.00588
75.15 -0.00946
75.2 -0.00691
75.25 -0.00917
75.3 -0.00903
75.35 -0.00946
75.4 -0.00861
75.45 -0.0026
75.5 0.00294
75.55 0.00412
75.6 0.00802
75.65 0.01436
75.7 0.0139
75.75 0.00923
75.8 0.0046
75.85 -0.00278
75.9 -0.00788
75.95 -0.01489
76 -0.01694
76.05 -0.01474
76.1 -0.01512
76.15 -0.01457
76.2 -0.01613
76.25 -0.01242
76.3 -0.00489
76.35 0.00244
76.4 0.00233
76.45 0.00032
76.5 0.00323
76.55 0.00213
76.6 0.00227
76.65 0.00137
76.7 0.00509
76.75 0.00254
76.8 0.00339
76.85 0.00503
76.9 0.00175
76.95 0.00082
77 0.00424
77.05 0.00434
77.1 0.00539
77.15 0.00396
77.2 0.00288
77.25 0.00535
77.3 0.00908
77.35 0.01297
77.4 0.01052
77.45 0.00613
77.5 -0.00101
77.55 -0.00952
77.6 -0.01412
77.65 -0.01589
77.7 -0.02034
77.75 -0.01878
77.8 -0.01869
77.85 -0.02077
77.9 -0.0192
77.95 -0.01277
78 -0.01111
78.05 -0.00581
78.1 0.00226
78.15 0.00951
78.2 0.01628
78.25 0.01937
78.3 0.02173
78.35 0.02049
78.4 0.01997
78.45 0.01332
78.5 0.00892
78.55 0.00292
78.6 0.00239
78.65 0.00332
78.7 0.00163
78.75 0.00282
78.8 0.00026
78.85 -0.00477
78.9 -0.00922
78.95 -0.01492
79 -0.01647
79.05 -0.01515
79.1 -0.01079
79.15 -0.00717
79.2 -0.0019
79.25 0.00038
79.3 0.00576
79.35 0.01257
79.4 0.0148
79.45 0.01553
79.5 0.01209
79.55 0.00448
79.6 -0.00194
79.65 -0.00672
79.7 -0.00566
79.75 -0.0061
79.8 -0.0024
79.85 -0.00236
79.9 -0.00376
79.95 -0.00755
80 -0.00475
80.05 -0.00325
80.1 -0.00619
80.15 -0.00495
80.2 -0.00672
80.25 -0.00832
80.3 -0.01177
80.35 -0.01707
80.4 -0.01846
80.45 -0.01322
80.5 -0.00426
80.55 0.00321
80.6 0.00872
80.65 0.00864
80.7 0.01018
80.75 0.01512
80.8 0.01682
80.85 0.01445
80.9 0.01101
80.95 0.01027
81 0.00675
81.05 0.00346
81.1 0.00042
81.15 -0.00154
81.2 -0.00704
81.25 -0.00942
81.3 -0.00555
81.35 0.00101
81.4 0.0056
81.45 0.00737
81.5 0.00916
81.55 0.01236
81.6 0.01426
81.65 0.01486
81.7 0.01703
81.75 0.02164
81.8 0.0228
81.85 0.02567
81.9 0.02967
81.95 0.03208
82 0.02648
82.05 0.02484
82.1 0.0261
82.15 0.02048
82.2 0.0116
82.25 0.00924
82.3 0.00728
82.35 0.00607
82.4 0.0067
82.45 0.00233
82.5 -0.00126
82.55 -0.00489
82.6 -0.00415
82.65 -0.00817
82.7 -0.00932
82.75 -0.01257
82.8 -0.01381
82.85 -0.01636
82.9 -0.01848
82.95 -0.01873
83 -0.01722
83.05 -0.01116
83.1 -0.00467
83.15 0.00059
83.2 0.00789
83.25 0.01008
83.3 0.01402
83.35 0.01617
83.4 0.01665
83.45 0.01497
83.5 0.00819
83.55 0.00183
83.6 0.00129
83.65 0.00516
83.7 0.00752
83.75 0.00537
83.8 -0.00012
83.85 -0.00854
83.9 -0.01269
83.95 -0.01403
84 -0.01197
84.05 -0.01407
84.1 -0.01617
84.15 -0.01782
84.2 -0.02075
84.25 -0.01708
84.3 -0.01777
84.35 -0.01832
84.4 -0.01437
84.45 -0.01395
84.5 -0.01583
84.55 -0.01416
84.6 -0.01083
84.65 -0.00607
84.7 -0.00395
84.75 -0.00475
84.8 -0.00367
84.85 0.00195
84.9 0.00547
84.95 0.00338
85 0.00391
85.05 0.00775
85.1 0.00695
85.15 0.00891
85.2 0.0062
85.25 -0.00093
85.3 -0.00437
85.35 -0.00716
85.4 -0.0117
85.45 -0.01475
85.5 -0.01085
85.55 -0.00874
85.6 -0.00939
85.65 -0.00915
85.7 -0.00596
85.75 -0.00725
85.8 -0.00415
85.85 -0.00075
85.9 -0.00074
85.95 -0.00158
86 -0.00282
86.05 -0.00499
86.1 -0.00764
86.15 -0.00703
86.2 -0.0091
86.25 -0.01067
86.3 -0.0078
86.35 -0.00566
86.4 -0.00259
86.45 -0.0018
86.5 -0.00485
86.55 -0.00276
86.6 0.00088
86.65 -0.00069
86.7 -0.00038
86.75 0.00332
86.8 0.00319
86.85 -0.00037
86.9 0.001
86.95 0.00301
87 0.00445
87.05 0.00169
87.1 -0.0032
87.15 -0.00847
87.2 -0.01125
87.25 -0.01063
87.3 -0.00982
87.35 -0.0052
87.4 -0.00575
87.45 -0.00611
87.5 -0.00494
87.55 -0.00677
87.6 -0.00873
87.65 -0.00769
87.7 -0.01051
87.75 -0.01602
87.8 -0.01412
87.85 -0.00804
87.9 -0.00303
87.95 -0.00387
88 -0.00265
88.05 -0.00172
88.1 -0.00396
88.15 -0.00357
88.2 -0.00089
88.25 -0.00054
88.3 0.00433
88.35 0.01152
88.4 0.01639
88.45 0.01536
88.5 0.01202
88.55 0.01047
88.6 0.01152
88.65 0.01314
88.7 0.01138
88.75 0.01059
88.8 0.00517
88.85 -0.00324
88.9 -0.00494
88.95 -0.00589
89 -0.00541
89.05 -0.00383
89.1 -0.00713
89.15 -0.01038
89.2 -0.01205
89.25 -0.01612
89.3 -0.02165
89.35 -0.02479
89.4 -0.02223
89.45 -0.02194
89.5 -0.01953
89.55 -0.02013
89.6 -0.01667
89.65 -0.01384
89.7 -0.00844
89.75 -0.00794
89.8 -0.00583
89.85 -0.00811
89.9 -0.01263
89.95 -0.01578
90 -0.01501
90.05 -0.01693
90.1 -0.0122
90.15 -0.00744
90.2 -0.00694
90.25 -0.00831
90.3 -0.01236
90.35 -0.01688
90.4 -0.0203
90.45 -0.01791
90.5 -0.00994
90.55 0.00069
90.6 0.00538
90.65 0.00805
90.7 0.00843
90.75 0.01266
90.8 0.01887
90.85 0.02455
90.9 0.02768
90.95 0.02792
91 0.0226
91.05 0.01853
91.1 0.01598
91.15 0.01331
91.2 0.00703
91.25 0.00017
91.3 -0.00057
91.35 0.00228
91.4 0.00391
91.45 0.00757
91.5 0.0106
91.55 0.00961
91.6 0.01105
91.65 0.01472
91.7 0.01417
91.75 0.0109
91.8 0.00651
91.85 0.0041
91.9 0.00352
91.95 0.0045
92 0.0034
92.05 0.00021
92.1 -0.00032
92.15 0.00172
92.2 0.00384
92.25 0.00335
92.3 0.00436
92.35 0.00575
92.4 0.0037
92.45 0.00493
92.5 0.0038
92.55 0.00741
92.6 0.00892
92.65 0.00699
92.7 0.0033
92.75 0.00281
92.8 0.00223
92.85 0.00174
92.9 0.00141
92.95 -0.00011
93 -0.00099
93.05 -0.00176
93.1 -0.00662
93.15 -0.00766
93.2 -0.01042
93.25 -0.00797
93.3 -0.00976
93.35 -0.00615
93.4 0.00006
93.45 0.00191
93.5 -0.00061
93.55 -0.00041
93.6 0.00099
93.65 -0.00023
93.7 -0.0057
93.75 -0.00741
93.8 -0.00375
93.85 -0.00462
93.9 -0.00406
93.95 -0.0035
94 -0.00699
94.05 -0.00848
94.1 -0.00686
94.15 -0.00755
94.2 -0.00402
94.25 0.00055
94.3 0.00287
94.35 0.00614
94.4 0.00491
94.45 0.00555
94.5 0.00704
94.55 0.00997
94.6 0.01443
94.65 0.01921
94.7 0.02343
94.75 0.02664
94.8 0.02424
94.85 0.02463
94.9 0.01914
94.95 0.01325
95 0.00437
95.05 0.00079
95.1 -0.00571
95.15 -0.00543
95.2 -0.00798
95.25 -0.01388
95.3 -0.02017
95.35 -0.02045
95.4 -0.02301
95.45 -0.02223
95.5 -0.0203
95.55 -0.01523
95.6 -0.00924
95.65 -0.00043
95.7 0.00149
95.75 0.00594
95.8 0.01206
95.85 0.01641
95.9 0.01863
95.95 0.01528
96 0.01582
96.05 0.01004
96.1 0.00533
96.15 -0.00292
96.2 -0.01277
96.25 -0.02158
96.3 -0.02171
96.35 -0.02163
96.4 -0.01963
96.45 -0.01937
96.5 -0.01953
96.55 -0.01728
96.6 -0.01836
96.65 -0.01286
96.7 -0.01112
96.75 -0.01149
96.8 -0.01289
96.85 -0.01265
96.9 -0.01595
96.95 -0.01449
97 -0.01367
97.05 -0.01232
97.1 -0.01123
97.15 -0.01204
97.2 -0.01216
97.25 -0.00755
97.3 -0.00545
97.35 -0.00518
97.4 -0.00717
97.45 -0.00831
97.5 -0.00904
97.55 -0.01224
97.6 -0.01246
97.65 -0.01042
97.7 -0.01167
97.75 -0.0149
97.8 -0.01723
97.85 -0.02003
97.9 -0.01928
97.95 -0.01326
98 -0.00439
98.05 -0.00253
98.1 -0.00313
98.15 -0.00451
98.2 -0.0069
98.25 -0.01106
98.3 -0.01297
98.35 -0.01094
98.4 -0.00613
98.45 -0.00267
98.5 0.00312
98.55 0.0062
98.6 0.00872
98.65 0.00872
98.7 0.00861
98.75 0.00804
98.8 0.00892
98.85 0.0071
98.9 0.00801
98.95 0.00914
99 0.01055
99.05 0.00748
99.1 0.00255
99.15 -0.00069
99.2 -0.00392
99.25 -0.00374
99.3 -0.00489
99.35 -0.00834
99.4 -0.00736
99.45 -0.00584
99.5 -0.00666
99.55 -0.00949
99.6 -0.0143
99.65 -0.01262
99.7 -0.00898
99.75 -0.00124
99.8 0.0048
99.85 0.01057
99.9 0.01157
99.95 0.01508
