0 0
0.05 0.00158
0.1 0.00763
0.15 0.01443
0.2 0.02676
0.25 0.03493
0.3 0.04632
0.35 0.05852
0.4 0.06843
0.45 0.07055
0.5 0.07344
0.55 0.0706
0.6 0.06691
0.65 0.05888
0.7 0.05198
0.75 0.05099
0.8 0.05266
0.85 0.05613
0.9 0.05806
0.95 0.06018
1 0.06049
1.05 0.05859
1.1 0.05623
1.15 0.04868
1.2 0.03892
1.25 0.02882
1.3 0.0265
1.35 0.02832
1.4 0.0334
1.45 0.0413
1.5 0.04549
1.55 0.04818
1.6 0.04617
1.65 0.04613
1.7 0.04469
1.75 0.03993
1.8 0.03268
1.85 0.02356
1.9 0.01671
1.95 0.0118
2 0.01087
2.05 0.00747
2.1 0.00514
2.15 0.00749
2.2 0.01155
2.25 0.01884
2.3 0.02199
2.35 0.02687
2.4 0.02958
2.45 0.03158
2.5 0.0317
2.55 0.03272
2.6 0.03588
2.65 0.03693
2.7 0.03255
2.75 0.02542
2.8 0.01781
2.85 0.01616
2.9 0.01272
2.95 0.01175
3 0.00856
3.05 0.00996
3.1 0.01648
3.15 0.01652
3.2 0.01611
3.25 0.01828
3.3 0.02333
3.35 0.02281
3.4 0.02532
3.45 0.02308
3.5 0.01974
3.55 0.01331
3.6 0.011
3.65 0.009
3.7 0.01101
3.75 0.01711
3.8 0.01825
3.85 0.02012
3.9 0.02549
3.95 0.02966
4 0.03305
4.05 0.03342
4.1 0.0363
4.15 0.03388
4.2 0.02572
4.25 0.0184
4.3 0.0079
4.35 0.00219
4.4 -0.00534
4.45 -0.01216
4.5 -0.02368
4.55 -0.03409
4.6 -0.04131
4.65 -0.05042
4.7 -0.06576
4.75 -0.07997
4.8 -0.09842
4.85 -0.12107
4.9 -0.15233
4.95 -0.18907
5 -0.2314
5.05 -0.28183
5.1 -0.33927
5.15 -0.39631
5.2 -0.45373
5.25 -0.51916
5.3 -0.58591
5.35 -0.65855
5.4 -0.7383
5.45 -0.81984
5.5 -0.91089
5.55 -1.00274
5.6 -1.09288
5.65 -1.18828
5.7 -1.28596
5.75 -1.38427
5.8 -1.47881
5.85 -1.56383
5.9 -1.64914
5.95 -1.73027
6 -1.80553
6.05 -1.87247
6.1 -1.93415
6.15 -1.98836
6.2 -2.0371
6.25 -2.08478
6.3 -2.1247
6.35 -2.1567
6.4 -2.18259
6.45 -2.19937
6.5 -2.21042
6.55 -2.21137
6.6 -2.20723
6.65 -2.19681
6.7 -2.17195
6.75 -2.13765
6.8 -2.09195
6.85 -2.02954
6.9 -1.94509
6.95 -1.84667
7 -1.7376
7.05 -1.61245
7.1 -1.47023
7.15 -1.32076
7.2 -1.15676
7.25 -0.98168
7.3 -0.80382
7.35 -0.6247
7.4 -0.44487
7.45 -0.2587
7.5 -0.07323
7.55 0.10827
7.6 0.28843
7.65 0.46145
7.7 0.62783
7.75 0.78313
7.8 0.93235
7.85 1.07476
7.9 1.20164
7.95 1.31854
8 1.42337
8.05 1.51451
8.1 1.59411
8.15 1.66724
8.2 1.73179
8.25 1.78832
8.3 1.83269
8.35 1.86609
8.4 1.89446
8.45 1.91298
8.5 1.92281
8.55 1.92783
8.6 1.9315
8.65 1.93692
8.7 1.93339
8.75 1.9271
8.8 1.92241
8.85 1.91027
8.9 1.89918
8.95 1.88181
9 1.86272
9.05 1.84253
9.1 1.82385
9.15 1.81021
9.2 1.79292
9.25 1.77781
9.3 1.75886
9.35 1.74234
9.4 1.71934
9.45 1.69448
9.5 1.66783
9.55 1.64248
9.6 1.62018
9.65 1.59732
9.7 1.57181
9.75 1.55032
9.8 1.5267
9.85 1.49941
9.9 1.47085
9.95 1.43854
10 1.40437
10.05 1.37314
10.1 1.34165
10.15 1.31298
10.2 1.28157
10.25 1.25021
10.3 1.21258
10.35 1.17919
10.4 1.1447
10.45 1.11165
10.5 1.07644
10.55 1.03784
10.6 0.99514
10.65 0.9549
10.7 0.91056
10.75 0.86473
10.8 0.81835
10.85 0.77589
10.9 0.73206
10.95 0.68635
11 0.64436
11.05 0.60424
11.1 0.5638
11.15 0.52225
11.2 0.48448
11.25 0.44494
11.3 0.40726
11.35 0.37167
11.4 0.34258
11.45 0.31203
11.5 0.28125
11.55 0.25382
11.6 0.22756
11.65 0.19889
11.7 0.16813
11.75 0.1333
11.8 0.10329
11.85 0.07738
11.9 0.04769
11.95 0.02399
12 -0.00162
12.05 -0.02292
12.1 -0.03983
12.15 -0.05851
12.2 -0.0766
12.25 -0.09262
12.3 -0.1119
12.35 -0.13103
12.4 -0.14812
12.45 -0.16419
12.5 -0.18306
12.55 -0.1991
12.6 -0.21058
12.65 -0.22557
12.7 -0.24323
12.75 -0.25715
12.8 -0.27084
12.85 -0.2787
12.9 -0.2848
12.95 -0.28788
13 -0.28897
13.05 -0.29247
13.1 -0.29244
13.15 -0.293
13.2 -0.30026
13.25 -0.30931
13.3 -0.31838
13.35 -0.32047
13.4 -0.31932
13.45 -0.32102
13.5 -0.32329
13.55 -0.32385
13.6 -0.32062
13.65 -0.32328
13.7 -0.32895
13.75 -0.33549
13.8 -0.34231
13.85 -0.34875
13.9 -0.35229
13.95 -0.35431
14 -0.35551
14.05 -0.35465
14.1 -0.35099
14.15 -0.34106
14.2 -0.32932
14.25 -0.31461
14.3 -0.30219
14.35 -0.29282
14.4 -0.28147
14.45 -0.27521
14.5 -0.27592
14.55 -0.27236
14.6 -0.26671
14.65 -0.26339
14.7 -0.26546
14.75 -0.26757
14.8 -0.27269
14.85 -0.27004
14.9 -0.26317
14.95 -0.25927
15 -0.2542
15.05 -0.2526
15.1 -0.24858
15.15 -0.24494
15.2 -0.24179
15.25 -0.23836
15.3 -0.23053
15.35 -0.22324
15.4 -0.22254
15.45 -0.22258
15.5 -0.2226
15.55 -0.21842
15.6 -0.21695
15.65 -0.21821
15.7 -0.21338
15.75 -0.21194
15.8 -0.20625
15.85 -0.19651
15.9 -0.19308
15.95 -0.19041
16 -0.18542
16.05 -0.18171
16.1 -0.17467
16.15 -0.17144
16.2 -0.16937
16.25 -0.16526
16.3 -0.16381
16.35 -0.15876
16.4 -0.1553
16.45 -0.15153
16.5 -0.14827
16.55 -0.14605
16.6 -0.1422
16.65 -0.14356
16.7 -0.1452
16.75 -0.14673
16.8 -0.14728
16.85 -0.14625
16.9 -0.14752
16.95 -0.14581
17 -0.14663
17.05 -0.14715
17.1 -0.14874
17.15 -0.14835
17.2 -0.14326
17.25 -0.14111
17.3 -0.14108
17.35 -0.13821
17.4 -0.13067
17.45 -0.1257
17.5 -0.12424
17.55 -0.12233
17.6 -0.11921
17.65 -0.11393
17.7 -0.11291
17.75 -0.10981
17.8 -0.10708
17.85 -0.10116
17.9 -0.09533
17.95 -0.08826
18 -0.08768
18.05 -0.09263
18.1 -0.09161
18.15 -0.08882
18.2 -0.08941
18.25 -0.08605
18.3 -0.0825
18.35 -0.08304
18.4 -0.08327
18.45 -0.08628
18.5 -0.08808
18.55 -0.08795
18.6 -0.088
18.65 -0.08695
18.7 -0.08149
18.75 -0.07716
18.8 -0.07711
18.85 -0.07356
18.9 -0.07131
18.95 -0.07106
19 -0.06943
19.05 -0.07215
19.1 -0.07817
19.15 -0.08331
19.2 -0.08505
19.25 -0.08186
19.3 -0.07982
19.35 -0.07392
19.4 -0.06607
19.45 -0.06034
19.5 -0.05761
19.55 -0.05256
19.6 -0.05166
19.65 -0.05066
19.7 -0.04943
19.75 -0.05073
19.8 -0.05575
19.85 -0.05648
19.9 -0.05959
19.95 -0.05894
20 -0.05871
20.05 -0.05897
20.1 -0.06167
20.15 -0.06303
20.2 -0.05944
20.25 -0.05549
20.3 -0.05344
20.35 -0.0551
20.4 -0.05763
20.45 -0.06185
20.5 -0.06562
20.55 -0.06743
20.6 -0.06871
20.65 -0.06978
20.7 -0.07019
20.75 -0.06361
20.8 -0.05569
20.85 -0.05223
20.9 -0.05244
20.95 -0.0517
21 -0.05314
21.05 -0.05229
21.1 -0.04791
21.15 -0.04494
21.2 -0.03981
21.25 -0.03866
21.3 -0.03886
21.35 -0.03811
21.4 -0.03655
21.45 -0.03658
21.5 -0.0364
21.55 -0.03662
21.6 -0.0396
21.65 -0.03726
21.7 -0.03704
21.75 -0.03322
21.8 -0.03264
21.85 -0.02775
21.9 -0.02005
21.95 -0.01917
22 -0.02113
22.05 -0.02648
22.1 -0.02623
22.15 -0.0229
22.2 -0.02466
22.25 -0.02873
22.3 -0.02959
22.35 -0.0307
22.4 -0.02978
22.45 -0.02652
22.5 -0.02243
22.55 -0.02105
22.6 -0.01604
22.65 -0.00983
22.7 -0.00544
22.75 -0.00135
22.8 -0.00402
22.85 -0.00645
22.9 -0.00859
22.95 -0.01106
23 -0.01478
23.05 -0.01712
23.1 -0.0185
23.15 -0.02164
23.2 -0.02216
23.25 -0.01885
23.3 -0.01488
23.35 -0.01663
23.4 -0.0168
23.45 -0.01633
23.5 -0.01994
23.55 -0.02575
23.6 -0.03055
23.65 -0.02979
23.7 -0.02694
23.75 -0.02372
23.8 -0.01965
23.85 -0.01755
23.9 -0.01691
23.95 -0.01636
24 -0.013
24.05 -0.00638
24.1 -0.0016
24.15 0.00139
24.2 0.0041
24.25 0.00256
24.3 0.00109
24.35 -0.00098
24.4 0.00075
24.45 0.00396
24.5 0.00592
24.55 0.00243
24.6 -0.00316
24.65 -0.00402
24.7 -0.00636
24.75 -0.00444
24.8 -0.00659
24.85 -0.00858
24.9 -0.01015
24.95 -0.00729
25 -0.00957
25.05 -0.01444
25.1 -0.0159
25.15 -0.02022
25.2 -0.02126
25.25 -0.01682
25.3 -0.01709
25.35 -0.02005
25.4 -0.01937
25.45 -0.0199
25.5 -0.02067
25.55 -0.02375
25.6 -0.02285
25.65 -0.02441
25.7 -0.02875
25.75 -0.02998
25.8 -0.02823
25.85 -0.03009
25.9 -0.02564
25.95 -0.01886
26 -0.01101
26.05 -0.00764
26.1 -0.00781
26.15 -0.01034
26.2 -0.01615
26.25 -0.01507
26.3 -0.01406
26.35 -0.00868
26.4 -0.00109
26.45 -0.00119
26.5 0.00057
26.55 -0.00215
26.6 -0.00714
26.65 -0.01175
26.7 -0.0097
26.75 -0.00472
26.8 -0.00082
26.85 0.00112
26.9 0.00078
26.95 0.00095
27 0.00319
27.05 0.00261
27.1 0.00612
27.15 0.01143
27.2 0.01397
27.25 0.01839
27.3 0.01946
27.35 0.02188
27.4 0.0245
27.45 0.02267
27.5 0.01539
27.55 0.00521
27.6 -0.00185
27.65 -0.00264
27.7 -0.0008
27.75 -0.00375
27.8 -0.0099
27.85 -0.01807
27.9 -0.0248
27.95 -0.02975
28 -0.03437
28.05 -0.03547
28.1 -0.03723
28.15 -0.0371
28.2 -0.0321
28.25 -0.03079
28.3 -0.02687
28.35 -0.02834
28.4 -0.0279
28.45 -0.02634
28.5 -0.03046
28.55 -0.02955
28.6 -0.02735
28.65 -0.02947
28.7 -0.03179
28.75 -0.0362
28.8 -0.04701
28.85 -0.06138
28.9 -0.07687
28.95 -0.09398
29 -0.11017
29.05 -0.12283
29.1 -0.13174
29.15 -0.13996
29.2 -0.15159
29.25 -0.16009
29.3 -0.1707
29.35 -0.18205
29.4 -0.1975
29.45 -0.21431
29.5 -0.23123
29.55 -0.24994
29.6 -0.26536
29.65 -0.27982
29.7 -0.29445
29.75 -0.30809
29.8 -0.32508
29.85 -0.3456
29.9 -0.36496
29.95 -0.38564
30 -0.40162
30.05 -0.41756
30.1 -0.42505
30.15 -0.42818
30.2 -0.43201
30.25 -0.43389
30.3 -0.4299
30.35 -0.42603
30.4 -0.41606
30.45 -0.40126
30.5 -0.38786
30.55 -0.37244
30.6 -0.34835
30.65 -0.32293
30.7 -0.2985
30.75 -0.27486
30.8 -0.24262
30.85 -0.20886
30.9 -0.17437
30.95 -0.13857
31 -0.10394
31.05 -0.06775
31.1 -0.03049
31.15 0.00153
31.2 0.03422
31.25 0.0672
31.3 0.09892
31.35 0.12498
31.4 0.14833
31.45 0.16936
31.5 0.18531
31.55 0.19894
31.6 0.21071
31.65 0.22656
31.7 0.24262
31.75 0.25802
31.8 0.27393
31.85 0.29258
31.9 0.30732
31.95 0.32278
32 0.33314
32.05 0.34257
32.1 0.34511
32.15 0.34929
32.2 0.35548
32.25 0.35825
32.3 0.36062
32.35 0.35855
32.4 0.35528
32.45 0.35558
32.5 0.35547
32.55 0.35166
32.6 0.34517
32.65 0.3375
32.7 0.33292
32.75 0.33297
32.8 0.33516
32.85 0.33118
32.9 0.32282
32.95 0.31722
33 0.30917
33.05 0.29844
33.1 0.28777
33.15 0.28111
33.2 0.27504
33.25 0.26919
33.3 0.26115
33.35 0.25211
33.4 0.24928
33.45 0.24381
33.5 0.23929
33.55 0.23378
33.6 0.22805
33.65 0.21827
33.7 0.20608
33.75 0.20083
33.8 0.19522
33.85 0.18692
33.9 0.18072
33.95 0.1752
34 0.17084
34.05 0.16441
34.1 0.15534
34.15 0.14934
34.2 0.13864
34.25 0.13313
34.3 0.12775
34.35 0.1255
34.4 0.11979
34.45 0.11308
34.5 0.10847
34.55 0.10059
34.6 0.09359
34.65 0.08762
34.7 0.08259
34.75 0.07899
34.8 0.07716
34.85 0.07536
34.9 0.07287
34.95 0.07175
35 0.06968
35.05 0.06666
35.1 0.06056
35.15 0.05339
35.2 0.05007
35.25 0.04679
35.3 0.0397
35.35 0.0362
35.4 0.02799
35.45 0.02054
35.5 0.00908
35.55 0.00284
35.6 -0.00579
35.65 -0.0107
35.7 -0.01279
35.75 -0.01197
35.8 -0.01435
35.85 -0.01411
35.9 -0.01274
35.95 -0.01071
36 -0.0077
36.05 -0.0101
36.1 -0.01162
36.15 -0.01813
36.2 -0.02357
36.25 -0.02789
36.3 -0.03075
36.35 -0.0322
36.4 -0.02996
36.45 -0.03391
36.5 -0.03578
36.55 -0.03425
36.6 -0.03157
36.65 -0.03142
36.7 -0.0367
36.75 -0.03965
36.8 -0.04131
36.85 -0.04144
36.9 -0.03829
36.95 -0.04206
37 -0.04219
37.05 -0.0411
37.1 -0.04244
37.15 -0.04575
37.2 -0.0456
37.25 -0.04254
37.3 -0.04274
37.35 -0.03997
37.4 -0.0394
37.45 -0.04116
37.5 -0.04718
37.55 -0.05484
37.6 -0.05556
37.65 -0.05304
37.7 -0.05263
37.75 -0.05502
37.8 -0.06043
37.85 -0.06395
37.9 -0.06633
37.95 -0.06247
38 -0.05867
38.05 -0.05996
38.1 -0.05816
38.15 -0.05769
38.2 -0.05925
38.25 -0.06197
38.3 -0.06313
38.35 -0.06583
38.4 -0.07045
38.45 -0.07493
38.5 -0.07976
38.55 -0.0768
38.6 -0.06914
38.65 -0.06604
38.7 -0.06047
38.75 -0.05524
38.8 -0.04772
38.85 -0.0459
38.9 -0.04097
38.95 -0.03756
39 -0.03658
39.05 -0.03972
39.1 -0.03916
39.15 -0.03454
39.2 -0.03465
39.25 -0.03452
39.3 -0.03878
39.35 -0.0443
39.4 -0.0426
39.45 -0.03754
39.5 -0.0315
39.55 -0.02688
39.6 -0.02615
39.65 -0.02368
39.7 -0.02593
39.75 -0.0244
39.8 -0.01995
39.85 -0.02009
39.9 -0.01731
39.95 -0.01672
40 -0.02055
40.05 -0.02104
40.1 -0.02231
40.15 -0.02534
40.2 -0.02671
40.25 -0.02691
40.3 -0.0277
40.35 -0.02375
40.4 -0.01911
40.45 -0.01409
40.5 -0.01539
40.55 -0.02044
40.6 -0.0204
40.65 -0.01621
40.7 -0.01849
40.75 -0.02403
40.8 -0.02837
40.85 -0.02634
40.9 -0.02784
40.95 -0.0287
41 -0.02734
41.05 -0.02571
41.1 -0.02317
41.15 -0.01844
41.2 -0.01787
41.25 -0.0158
41.3 -0.01908
41.35 -0.02007
41.4 -0.01766
41.45 -0.01546
41.5 -0.01836
41.55 -0.01599
41.6 -0.01781
41.65 -0.0166
41.7 -0.01218
41.75 -0.00793
41.8 -0.00179
41.85 -0.00013
41.9 0.00367
41.95 0.00095
42 -0.00096
42.05 -0.0056
42.1 -0.00504
42.15 -0.00872
42.2 -0.00854
42.25 -0.01228
42.3 -0.0126
42.35 -0.01007
42.4 -0.0078
42.45 -0.00423
42.5 -0.00108
42.55 0.00387
42.6 0.00871
42.65 0.0066
42.7 0.00139
42.75 -0.0011
42.8 -0.00789
42.85 -0.0136
42.9 -0.01885
42.95 -0.02149
43 -0.02085
43.05 -0.02266
43.1 -0.02416
43.15 -0.02894
43.2 -0.02836
43.25 -0.02362
43.3 -0.02102
43.35 -0.02112
43.4 -0.02252
43.45 -0.02501
43.5 -0.02111
43.55 -0.01939
43.6 -0.01585
43.65 -0.01729
43.7 -0.0149
43.75 -0.01433
43.8 -0.01557
43.85 -0.01252
43.9 -0.0135
43.95 -0.01596
44 -0.01958
44.05 -0.01727
44.1 -0.01707
44.15 -0.02012
44.2 -0.0217
44.25 -0.0228
44.3 -0.02693
44.35 -0.03033
44.4 -0.03028
44.45 -0.02883
44.5 -0.02401
44.55 -0.02014
44.6 -0.01807
44.65 -0.01882
44.7 -0.0144
44.75 -0.00691
44.8 -0.00611
44.85 -0.00734
44.9 -0.00952
44.95 -0.01251
45 -0.01
45.05 -0.00379
45.1 0.00407
45.15 0.00601
45.2 0.00561
45.25 0.0026
45.3 -0.0046
45.35 -0.00727
45.4 -0.00999
45.45 -0.00726
45.5 -0.00419
45.55 -0.00649
45.6 -0.00886
45.65 -0.00795
45.7 -0.01136
45.75 -0.01077
45.8 -0.01079
45.85 -0.01496
45.9 -0.01436
45.95 -0.01731
46 -0.0203
46.05 -0.02062
46.1 -0.01946
46.15 -0.01693
46.2 -0.00984
46.25 -0.00406
46.3 -0.00089
46.35 0.0036
46.4 0.00847
46.45 0.01499
46.5 0.02216
46.55 0.0264
46.6 0.03016
46.65 0.03004
46.7 0.02611
46.75 0.0235
46.8 0.01579
46.85 0.01083
46.9 0.00757
46.95 0.00603
47 0.00224
47.05 -0.00003
47.1 -0.00403
47.15 -0.00419
47.2 -0.00131
47.25 0.00464
47.3 0.00643
47.35 0.00307
47.4 -0.00104
47.45 -0.00182
47.5 -0.00409
47.55 -0.00881
47.6 -0.0086
47.65 -0.01227
47.7 -0.0105
47.75 -0.00965
47.8 -0.00487
47.85 -0.00649
47.9 -0.00287
47.95 0.00077
48 0.00159
48.05 0.00107
48.1 0.00312
48.15 0.00306
48.2 -0.00186
48.25 -0.00665
48.3 -0.00695
48.35 -0.00294
48.4 -0.00145
48.45 -0.00023
48.5 -0.00246
48.55 -0.00261
48.6 -0.00016
48.65 0.00051
48.7 -0.00277
48.75 -0.00162
48.8 0.0017
48.85 0.00426
48.9 0.00313
48.95 -0.00122
49 -0.00718
49.05 -0.00652
49.1 -0.00315
49.15 -0.00074
49.2 0.00474
49.25 0.01179
49.3 0.01491
49.35 0.01953
49.4 0.02159
49.45 0.01768
49.5 0.01219
49.55 0.00391
49.6 0.00189
49.65 0.00225
49.7 0.00055
49.75 -0.00168
49.8 -0.00589
49.85 -0.00848
49.9 -0.0118
49.95 -0.01522
50 -0.01842
50.05 -0.02116
50.1 -0.01777
50.15 -0.01356
50.2 -0.00979
50.25 -0.00423
50.3 -0.00205
50.35 0.00105
50.4 0.0004
50.45 0.00299
50.5 0.00561
50.55 0.01034
50.6 0.01487
50.65 0.01806
50.7 0.02133
50.75 0.02544
50.8 0.02239
50.85 0.01785
50.9 0.00937
50.95 0.00429
51 0.00283
51.05 0.00413
51.1 0.00104
51.15 0.00293
51.2 0.00511
51.25 0.00082
51.3 -0.0039
51.35 -0.00467
51.4 -0.00278
51.45 -0.00079
51.5 -0.00311
51.55 -0.00559
51.6 -0.00979
51.65 -0.00862
51.7 -0.00515
51.75 -0.00786
51.8 -0.01357
51.85 -0.02078
51.9 -0.02281
51.95 -0.01875
52 -0.01616
52.05 -0.01104
52.1 -0.01133
52.15 -0.01346
52.2 -0.01549
52.25 -0.01928
52.3 -0.01781
52.35 -0.01897
52.4 -0.01886
52.45 -0.0178
52.5 -0.01545
52.55 -0.01519
52.6 -0.01169
52.65 -0.00638
52.7 -0.0005
52.75 -0.00114
52.8 -0.00295
52.85 -0.00368
52.9 -0.00065
52.95 0.00491
53 0.00513
53.05 0.00651
53.1 0.00248
53.15 0.00028
53.2 -0.00155
53.25 -0.00102
53.3 -0.00108
53.35 0.0029
53.4 0.00715
53.45 0.00943
53.5 0.00603
53.55 0.00739
53.6 0.00457
53.65 0.00474
53.7 0.00446
53.75 0.00711
53.8 0.00847
53.85 0.01226
53.9 0.01373
53.95 0.01063
54 0.00553
54.05 0.00528
54.1 0.00866
54.15 0.00873
54.2 0.00524
54.25 0.00029
54.3 -0.00185
54.35 -0.00263
54.4 -0.00465
54.45 -0.00932
54.5 -0.0077
54.55 -0.00717
54.6 -0.00793
54.65 -0.00942
54.7 -0.00755
54.75 -0.00277
54.8 0.00343
54.85 0.00846
54.9 0.00647
54.95 0.0063
55 0.0019
55.05 -0.00116
55.1 -0.0059
55.15 -0.00463
55.2 -0.00236
55.25 0.00022
55.3 0.00444
55.35 0.00805
55.4 0.00808
55.45 0.00438
55.5 -0.00293
55.55 -0.00958
55.6 -0.01774
55.65 -0.02112
55.7 -0.02326
55.75 -0.01997
55.8 -0.01824
55.85 -0.01188
55.9 -0.00806
55.95 -0.00404
56 -0.00212
56.05 -0.00015
56.1 0.00015
56.15 0.00294
56.2 0.00412
56.25 0.00211
56.3 -0.00273
56.35 -0.00704
56.4 -0.00879
56.45 -0.00734
56.5 -0.00958
56.55 -0.01204
56.6 -0.0121
56.65 -0.01225
56.7 -0.01425
56.75 -0.01213
56.8 -0.00747
56.85 -0.00289
56.9 0.00293
56.95 0.00236
57 0.00438
57.05 0.00643
57.1 0.00925
57.15 0.00902
57.2 0.00618
57.25 -0.00072
57.3 -0.00781
57.35 -0.011
57.4 -0.01227
57.45 -0.01565
57.5 -0.01938
57.55 -0.0182
57.6 -0.01632
57.65 -0.01411
57.7 -0.00788
57.75 -0.00233
57.8 0.00487
57.85 0.0121
57.9 0.01543
57.95 0.01918
58 0.01905
58.05 0.01381
58.1 0.00556
58.15 -0.00007
58.2 -0.00002
58.25 -0.00246
58.3 -0.00543
58.35 -0.00846
58.4 -0.0136
58.45 -0.0123
58.5 -0.01383
58.55 -0.01053
58.6 -0.01212
58.65 -0.01106
58.7 -0.01033
58.75 -0.00848
58.8 -0.00281
58.85 0.00433
58.9 0.00969
58.95 0.01364
59 0.01256
59.05 0.01098
59.1 0.00593
59.15 0.00567
59.2 0.00637
59.25 0.00328
59.3 -0.00312
59.35 -0.00438
59.4 -0.00476
59.45 -0.00798
59.5 -0.00798
59.55 -0.00967
59.6 -0.0132
59.65 -0.01339
59.7 -0.00795
59.75 0
59.8 0.0059
59.85 0.00993
59.9 0.01527
59.95 0.01588
60 0.01471
60.05 0.00922
60.1 0.00233
60.15 -0.00689
60.2 -0.00897
60.25 -0.00536
60.3 -0.00427
60.35 -0.00483
60.4 -0.00265
60.45 -0.0046
60.5 -0.00659
60.55 -0.00582
60.6 -0.00379
60.65 -0.00454
60.7 -0.00272
60.75 0.00145
60.8 0.00613
60.85 0.0063
60.9 0.00363
60.95 -0.00017
61 -0.00613
61.05 -0.01241
61.1 -0.01939
61.15 -0.02613
61.2 -0.03117
61.25 -0.03385
61.3 -0.03721
61.35 -0.03655
61.4 -0.03709
61.45 -0.03547
61.5 -0.03538
61.55 -0.02835
61.6 -0.02573
61.65 -0.02078
61.7 -0.0175
61.75 -0.01619
61.8 -0.0159
61.85 -0.01252
61.9 -0.00868
61.95 -0.0066
62 -0.00765
62.05 -0.01079
62.1 -0.01108
62.15 -0.0143
62.2 -0.01707
62.25 -0.01562
62.3 -0.01635
62.35 -0.01638
62.4 -0.01285
62.45 -0.00562
62.5 -0.00215
62.55 -0.00307
62.6 -0.00364
62.65 -0.00565
62.7 -0.00557
62.75 -0.00596
62.8 -0.00592
62.85 -0.00898
62.9 -0.00533
62.95 -0.00606
63 -0.00866
63.05 -0.01185
63.1 -0.01466
63.15 -0.01255
63.2 -0.01213
63.25 -0.01421
63.3 -0.0101
63.35 -0.00943
63.4 -0.00962
63.45 -0.00388
63.5 -0.00072
63.55 -0.00118
63.6 -0.00155
63.65 -0.00298
63.7 -0.00675
63.75 -0.01094
63.8 -0.01246
63.85 -0.00707
63.9 -0.0019
63.95 -0.0009
64 -0.00014
64.05 0.0018
64.1 0.00179
64.15 0.00678
64.2 0.01036
64.25 0.01321
64.3 0.01372
64.35 0.01096
64.4 0.00845
64.45 0.00442
64.5 0.00054
64.55 -0.00058
64.6 -0.00487
64.65 -0.00278
64.7 -0.00007
64.75 0.00151
64.8 0.00325
64.85 0.00422
64.9 0.00503
64.95 0.00263
65 -0.00194
65.05 -0.00211
65.1 -0.00334
65.15 -0.0031
65.2 -0.00173
65.25 -0.00033
65.3 -0.00337
65.35 -0.00786
65.4 -0.00731
65.45 -0.00282
65.5 -0.00366
65.55 -0.00104
65.6 -0.00258
65.65 -0.00298
65.7 -0.00357
65.75 -0.00566
65.8 -0.00252
65.85 0.0001
65.9 -0.00104
65.95 0.00208
66 0.00883
66.05 0.0119
66.1 0.00961
66.15 0.01205
66.2 0.01074
66.25 0.00728
66.3 0.00596
66.35 0.0018
66.4 0.00427
66.45 0.00422
66.5 0.00448
66.55 0.00529
66.6 0.00689
66.65 0.01115
66.7 0.01026
66.75 0.01094
66.8 0.00913
66.85 0.00718
66.9 0.00528
66.95 0.00264
67 0.00057
67.05 -0.00376
67.1 -0.00173
67.15 0.00068
67.2 -0.00033
67.25 -0.00171
67.3 0.00058
67.35 -0.00177
67.4 0.00192
67.45 0.00287
67.5 0.00728
67.55 0.00747
67.6 0.00629
67.65 0.00402
67.7 0.00216
67.75 0.00205
67.8 0.00605
67.85 0.01282
67.9 0.01602
67.95 0.01554
68 0.01265
68.05 0.01332
68.1 0.01179
68.15 0.01012
68.2 0.0101
68.25 0.00797
68.3 0.00408
68.35 -0.00252
68.4 -0.00602
68.45 -0.00713
68.5 -0.00977
68.55 -0.00839
68.6 -0.00466
68.65 -0.00464
68.7 -0.00257
68.75 0.00007
68.8 0.00055
68.85 0.00014
68.9 0.0043
68.95 0.00742
69 0.01364
69.05 0.01292
69.1 0.01212
69.15 0.01297
69.2 0.01529
69.25 0.01755
69.3 0.02234
69.35 0.02077
69.4 0.01769
69.45 0.01872
69.5 0.02249
69.55 0.0268
69.6 0.0318
69.65 0.02803
69.7 0.02793
69.75 0.02759
69.8 0.02355
69.85 0.01524
69.9 0.00482
69.95 -0.00514
70 -0.0107
70.05 -0.01183
70.1 -0.01181
70.15 -0.00752
70.2 -0.00311
70.25 -0.00297
70.3 -0.00381
70.35 0.00016
70.4 -0.00179
70.45 -0.00073
70.5 -0.00068
70.55 0.00196
70.6 0.00685
70.65 0.00519
70.7 0.00736
70.75 0.00617
70.8 0.00033
70.85 -0.00554
70.9 -0.01306
70.95 -0.01664
71 -0.01976
71.05 -0.01653
71.1 -0.01491
71.15 -0.01307
71.2 -0.00865
71.25 -0.0091
71.3 -0.0093
71.35 -0.01142
71.4 -0.00861
71.45 -0.00618
71.5 -0.00791
71.55 -0.00557
71.6 -0.00723
71.65 -0.00678
71.7 -0.00217
71.75 0.00351
71.8 0.00891
71.85 0.01311
71.9 0.01339
71.95 0.01663
72 0.01957
72.05 0.02179
72.1 0.01923
72.15 0.01215
72.2 0.00532
72.25 0.00254
72.3 -0.00353
72.35 -0.00717
72.4 -0.01197
72.45 -0.01803
72.5 -0.02239
72.55 -0.02188
72.6 -0.01613
72.65 -0.00798
72.7 -0.00146
72.75 0.00724
72.8 0.01072
72.85 0.01637
72.9 0.02107
72.95 0.01853
73 0.01893
73.05 0.01926
73.1 0.01991
73.15 0.01546
73.2 0.00906
73.25 0.00201
73.3 -0.00176
73.35 -0.00438
73.4 -0.00531
73.45 -0.00512
73.5 -0.00797
73.55 -0.01244
73.6 -0.01669
73.65 -0.02242
73.7 -0.02475
73.75 -0.02137
73.8 -0.01388
73.85 -0.00367
73.9 0.00054
73.95 0.00179
74 -0.00084
74.05 -0.00445
74.1 -0.00607
74.15 -0.00762
74.2 -0.01082
74.25 -0.013
74.3 -0.00891
74.35 -0.00489
74.4 -0.00152
74.45 0.00069
74.5 0.00072
74.55 -0.00317
74.6 -0.00619
74.65 -0.00612
74.7 -0.00205
74.75 0.00474
74.8 0.0112
74.85 0.01661
74.9 0.02255
74.95 0.02165
75 0.0216
75.05 0.01585
75.1 0.00969
75.15 0.00966
75.2 0.00656
75.25 0.00249
75.3 0.00173
75.35 -0.00348
75.4 -0.00368
75.45 -0.00316
75.5 -0.00222
75.55 0.00051
75.6 0.0032
75.65 0.0063
75.7 0.01172
75.75 0.01813
75.8 0.01632
75.85 0.01671
75.9 0.01988
75.95 0.02114
76 0.01722
76.05 0.01172
76.1 0.00385
76.15 0.00057
76.2 -0.00323
76.25 -0.00917
76.3 -0.01432
76.35 -0.01394
76.4 -0.01275
76.45 -0.00708
76.5 0.00074
76.55 0.00659
76.6 0.00592
76.65 0.00504
76.7 0.00433
76.75 0.00248
76.8 -0.0015
76.85 -0.00871
76.9 -0.01073
76.95 -0.00868
77 -0.00259
77.05 0.00393
77.1 0.00657
77.15 0.00983
77.2 0.00769
77.25 0.00311
77.3 -0.00204
77.35 -0.00223
77.4 -0.00629
77.45 -0.00671
77.5 -0.00249
77.55 -0.0037
77.6 -0.00065
77.65 0.0022
77.7 0.00351
77.75 0.00282
77.8 0.00514
77.85 0.01028
77.9 0.01318
77.95 0.01637
78 0.01518
78.05 0.00857
78.1 0.00345
78.15 -0.00097
78.2 -0.00772
78.25 -0.01298
78.3 -0.01798
78.35 -0.01743
78.4 -0.01591
78.45 -0.01698
78.5 -0.01985
78.55 -0.02108
78.6 -0.02171
78.65 -0.02064
78.7 -0.0155
78.75 -0.00906
78.8 -0.00268
78.85 0.00577
78.9 0.01256
78.95 0.0122
79 0.01314
79.05 0.01257
79.1 0.01341
79.15 0.00876
79.2 0.00499
79.25 0.00015
79.3 0.00029
79.35 -0.00436
79.4 -0.00669
79.45 -0.00575
79.5 -0.00834
79.55 -0.00788
79.6 -0.01078
79.65 -0.00821
79.7 -0.00469
79.75 -0.00553
79.8 -0.00585
79.85 -0.00446
79.9 -0.00404
79.95 -0.00706
80 -0.00845
80.05 -0.00413
80.1 -0.0024
80.15 -0.00491
80.2 -0.00916
80.25 -0.01477
80.3 -0.0205
80.35 -0.01813
80.4 -0.01962
80.45 -0.01494
80.5 -0.01219
80.55 -0.00669
80.6 -0.00143
80.65 0.00455
80.7 0.01185
80.75 0.01767
80.8 0.01767
80.85 0.01489
80.9 0.00922
80.95 0.00501
81 -0.00024
81.05 -0.00432
81.1 -0.00651
81.15 -0.00758
81.2 -0.00375
81.25 0.00089
81.3 0.00627
81.35 0.00551
81.4 0.00272
81.45 0.00175
81.5 -0.0021
81.55 -0.00269
81.6 -0.00257
81.65 -0.00482
81.7 -0.0083
81.75 -0.00651
81.8 -0.00861
81.85 -0.0111
81.9 -0.01577
81.95 -0.01984
82 -0.01679
82.05 -0.01121
82.1 -0.00585
82.15 -0.00271
82.2 0.00425
82.25 0.00575
82.3 0.00875
82.35 0.0074
82.4 0.00998
82.45 0.01366
82.5 0.01304
82.55 0.00897
82.6 0.00907
82.65 0.01008
82.7 0.00551
82.75 0.00235
82.8 0.00168
82.85 -0.00285
82.9 -0.00461
82.95 -0.00174
83 -0.00413
83.05 -0.00375
83.1 -0.00313
83.15 -0.00275
83.2 -0.00261
83.25 -0.0068
83.3 -0.01264
83.35 -0.01518
83.4 -0.01376
83.45 -0.01196
83.5 -0.00729
83.55 -0.00666
83.6 -0.0091
83.65 -0.01407
83.7 -0.0164
83.75 -0.01993
83.8 -0.01889
83.85 -0.01771
83.9 -0.01971
83.95 -0.02215
84 -0.02374
84.05 -0.02599
84.1 -0.02621
84.15 -0.02284
84.2 -0.02011
84.25 -0.01168
84.3 -0.00402
84.35 0.00134
84.4 0.00791
84.45 0.00899
84.5 0.00503
84.55 0.00456
84.6 -0.00001
84.65 -0.00374
84.7 -0.00497
84.75 -0.00656
84.8 -0.00295
84.85 0.00352
84.9 0.00367
84.95 0.00065
85 -0.00376
85.05 -0.00286
85.1 -0.00313
85.15 -0.00632
85.2 -0.00437
85.25 -0.00305
85.3 -0.00525
85.35 -0.00338
85.4 0.00265
85.45 0.00405
85.5 0.00564
85.55 0.00365
85.6 0.00517
85.65 0.01041
85.7 0.00904
85.75 0.00573
85.8 0.00041
85.85 -0.00448
85.9 -0.00464
85.95 -0.00124
86 0.00049
86.05 0.00011
86.1 0.00029
86.15 -0.00022
86.2 -0.00258
86.25 0.0003
86.3 0.00603
86.35 0.00566
86.4 0.00484
86.45 -0.00012
86.5 -0.00175
86.55 0.0001
86.6 0.0023
86.65 0.00379
86.7 0.0055
86.75 0.00195
86.8 -0.00233
86.85 -0.00464
86.9 -0.00279
86.95 -0.00288
87 -0.0062
87.05 -0.00935
87.1 -0.01131
87.15 -0.00938
87.2 -0.0055
87.25 0.00243
87.3 0.0086
87.35 0.00975
87.4 0.00599
87.45 0.00642
87.5 0.01052
87.55 0.01114
87.6 0.00984
87.65 0.00795
87.7 0.00469
87.75 0.00034
87.8 -0.00637
87.85 -0.00802
87.9 -0.01057
87.95 -0.01511
88 -0.01716
88.05 -0.01278
88.1 -0.00988
88.15 -0.00251
88.2 0.00446
88.25 0.00458
88.3 0.00784
88.35 0.01318
88.4 0.01753
88.45 0.0162
88.5 0.01746
88.55 0.01764
88.6 0.01887
88.65 0.02175
88.7 0.0255
88.75 0.02174
88.8 0.02213
88.85 0.01713
88.9 0.01031
88.95 0.00394
89 0.00166
89.05 -0.00373
89.1 -0.00924
89.15 -0.0135
89.2 -0.01884
89.25 -0.02151
89.3 -0.02143
89.35 -0.01887
89.4 -0.01486
89.45 -0.01329
89.5 -0.01249
89.55 -0.00873
89.6 -0.00489
89.65 0.00278
89.7 0.00355
89.75 0.00196
89.8 0.00401
89.85 0.00138
89.9 -0.00199
89.95 -0.00702
90 -0.00969
90.05 -0.01074
90.1 -0.01332
90.15 -0.01756
90.2 -0.01542
90.25 -0.01252
90.3 -0.01033
90.35 -0.00444
90.4 -0.00298
90.45 0.00204
90.5 0.00902
90.55 0.00938
90.6 0.01318
90.65 0.01306
90.7 0.00803
90.75 0.00333
90.8 -0.00412
90.85 -0.00404
90.9 -0.0019
90.95 0.00389
91 0.00295
91.05 0.0008
91.1 -0.00446
91.15 -0.00572
91.2 -0.00869
91.25 -0.00715
91.3 -0.00085
91.35 0.00267
91.4 0.00431
91.45 0.00351
91.5 0.00191
91.55 0.00113
91.6 0.00095
91.65 -0.00327
91.7 -0.00287
91.75 -0.00395
91.8 -0.00384
91.85 -0.00086
91.9 0.0054
91.95 0.00928
92 0.01424
92.05 0.0122
92.1 0.0148
92.15 0.016
92.2 0.0115
92.25 0.01188
92.3 0.00898
92.35 0.00198
92.4 0.00143
92.45 -0.00045
92.5 -0.00254
92.55 -0.00575
92.6 -0.00808
92.65 -0.01017
92.7 -0.00759
92.75 -0.0021
92.8 0.00226
92.85 0.00084
92.9 -0.00134
92.95 0.00092
93 -0.00083
93.05 -0.00087
93.1 -0.00107
93.15 0.00325
93.2 0.01001
93.25 0.01453
93.3 0.01719
93.35 0.01348
93.4 0.01147
93.45 0.00679
93.5 0.00059
93.55 -0.00694
93.6 -0.01116
93.65 -0.0114
93.7 -0.00751
93.75 -0.00314
93.8 0.00071
93.85 0.00211
93.9 0.00248
93.95 0.00011
94 0.00324
94.05 0.00949
94.1 0.01346
94.15 0.0169
94.2 0.01755
94.25 0.02041
94.3 0.01735
94.35 0.01839
94.4 0.01662
94.45 0.0149
94.5 0.01031
94.55 0.00931
94.6 0.00329
94.65 -0.00118
94.7 -0.00128
94.75 0.00308
94.8 0.00963
94.85 0.00868
94.9 0.00899
94.95 0.00546
95 -0.0003
95.05 -0.001
95.1 0.00211
95.15 0.00354
95.2 -0.00041
95.25 -0.00735
95.3 -0.00886
95.35 -0.00886
95.4 -0.00396
95.45 -0.00298
95.5 -0.00111
95.55 -0.00046
95.6 -0.00057
95.65 -0.00124
95.7 -0.00407
95.75 -0.01
95.8 -0.009
95.85 -0.00479
95.9 0.00058
95.95 0.00234
96 0.00623
96.05 0.01021
96.1 0.01305
96.15 0.01108
96.2 0.0133
96.25 0.01695
96.3 0.02014
96.35 0.01719
96.4 0.01814
96.45 0.01409
96.5 0.01032
96.55 0.00672
96.6 -0
96.65 -0.00709
96.7 -0.01487
96.75 -0.01864
96.8 -0.02396
96.85 -0.02701
96.9 -0.03087
96.95 -0.02991
97 -0.02391
97.05 -0.01797
97.1 -0.00899
97.15 -0.00164
97.2 0.00168
97.25 0.00541
97.3 0.00704
97.35 0.00368
97.4 0.00374
97.45 -0.00068
97.5 -0.00415
97.55 -0.00481
97.6 -0.00639
97.65 -0.00664
97.7 -0.00597
97.75 -0.00735
97.8 -0.0061
97.85 -0.00934
97.9 -0.0124
97.95 -0.00904
98 -0.00945
98.05 -0.00891
98.1 -0.00666
98.15 -0.00124
98.2 0.00175
98.25 0.00491
98.3 0.00431
98.35 0.00635
98.4 0.00778
98.45 0.00452
98.5 0.00464
98.55 0.00136
98.6 -0.00294
98.65 -0.00833
98.7 -0.00925
98.75 -0.00815
98.8 -0.00658
98.85 -0.00467
98.9 -0.00141
98.95 0.00298
99 0.00158
99.05 -0.00088
99.1 -0.00141
99.15 -0.00408
99.2 -0.00784
99.25 -0.0139
99.3 -0.01456
99.35 -0.01094
99.4 -0.00926
99.45 -0.00639
99.5 -0.003
99.55 0.00045
99.6 0.00606
99.65 0.00715
99.7 0.00623
99.75 0.00796
99.8 0.0086
99.85 0.01171
99.9 0.01704
99.95 0.01773
