0 0
0.05 0.00891
0.1 0.01649
0.15 0.02088
0.2 0.02991
0.25 0.03431
0.3 0.04131
0.35 0.04624
0.4 0.04572
0.45 0.04415
0.5 0.04677
0.55 0.04873
0.6 0.05378
0.65 0.05752
0.7 0.06095
0.75 0.06107
0.8 0.06349
0.85 0.06787
0.9 0.07063
0.95 0.06834
1 0.06546
1.05 0.05948
1.1 0.04951
1.15 0.04562
1.2 0.04038
1.25 0.03572
1.3 0.03281
1.35 0.02849
1.4 0.0243
1.45 0.02557
1.5 0.02932
1.55 0.03337
1.6 0.03642
1.65 0.03829
1.7 0.03581
1.75 0.03719
1.8 0.03898
1.85 0.03541
1.9 0.03203
1.95 0.03171
2 0.03585
2.05 0.03663
2.1 0.03504
2.15 0.03773
2.2 0.03937
2.25 0.04165
2.3 0.04528
2.35 0.04161
2.4 0.04223
2.45 0.0386
2.5 0.03064
2.55 0.02283
2.6 0.01591
2.65 0.00893
2.7 0.00761
2.75 0.01149
2.8 0.01655
2.85 0.02134
2.9 0.02469
2.95 0.02478
3 0.0237
3.05 0.02356
3.1 0.02164
3.15 0.01694
3.2 0.01663
3.25 0.01418
3.3 0.01268
3.35 0.00903
3.4 0.00597
3.45 0.00105
3.5 -0.0033
3.55 -0.00707
3.6 -0.00793
3.65 -0.00189
3.7 0.00476
3.75 0.00633
3.8 0.01024
3.85 0.01658
3.9 0.02091
3.95 0.02019
4 0.01637
4.05 0.01287
4.1 0.01481
4.15 0.01144
4.2 0.00447
4.25 0.0006
4.3 -0.00066
4.35 0.00116
4.4 -0.00257
4.45 -0.00326
4.5 -0.00765
4.55 -0.01604
4.6 -0.02311
4.65 -0.03777
4.7 -0.05113
4.75 -0.06756
4.8 -0.0884
4.85 -0.11539
4.9 -0.15107
4.95 -0.19398
5 -0.24148
5.05 -0.28907
5.1 -0.33803
5.15 -0.39633
5.2 -0.46307
5.25 -0.53489
5.3 -0.60958
5.35 -0.68771
5.4 -0.77391
5.45 -0.86685
5.5 -0.96423
5.55 -1.05649
5.6 -1.15051
5.65 -1.24759
5.7 -1.34835
5.75 -1.44409
5.8 -1.53624
5.85 -1.62592
5.9 -1.71729
5.95 -1.80345
6 -1.88633
6.05 -1.96166
6.1 -2.03194
6.15 -2.10526
6.2 -2.17495
6.25 -2.24267
6.3 -2.30452
6.35 -2.35755
6.4 -2.40539
6.45 -2.44219
6.5 -2.47316
6.55 -2.49402
6.6 -2.50188
6.65 -2.50286
6.7 -2.49686
6.75 -2.47409
6.8 -2.43826
6.85 -2.38613
6.9 -2.32088
6.95 -2.23686
7 -2.13883
7.05 -2.02592
7.1 -1.89128
7.15 -1.74546
7.2 -1.58619
7.25 -1.41623
7.3 -1.22963
7.35 -1.03987
7.4 -0.84066
7.45 -0.63353
7.5 -0.42857
7.55 -0.22285
7.6 -0.01924
7.65 0.177
7.7 0.37512
7.75 0.5632
7.8 0.7464
7.85 0.91861
7.9 1.08419
7.95 1.23966
8 1.38145
8.05 1.50847
8.1 1.62152
8.15 1.72372
8.2 1.81536
8.25 1.89845
8.3 1.97205
8.35 2.03289
8.4 2.08408
8.45 2.12901
8.5 2.16789
8.55 2.19309
8.6 2.20827
8.65 2.2152
8.7 2.22287
8.75 2.2283
8.8 2.22556
8.85 2.22131
8.9 2.21358
8.95 2.20169
9 2.18915
9.05 2.17481
9.1 2.16458
9.15 2.14968
9.2 2.13379
9.25 2.1133
9.3 2.09617
9.35 2.07966
9.4 2.0614
9.45 2.03766
9.5 2.01321
9.55 1.98899
9.6 1.95863
9.65 1.92707
9.7 1.89611
9.75 1.86101
9.8 1.82748
9.85 1.79485
9.9 1.75863
9.95 1.72659
10 1.69613
10.05 1.66601
10.1 1.63481
10.15 1.60124
10.2 1.56151
10.25 1.52137
10.3 1.47984
10.35 1.4343
10.4 1.38751
10.45 1.34266
10.5 1.298
10.55 1.25385
10.6 1.21045
10.65 1.16319
10.7 1.11669
10.75 1.0697
10.8 1.02167
10.85 0.97453
10.9 0.92786
10.95 0.87824
11 0.82895
11.05 0.78281
11.1 0.74
11.15 0.69588
11.2 0.64706
11.25 0.6017
11.3 0.55767
11.35 0.51053
11.4 0.46948
11.45 0.43041
11.5 0.39505
11.55 0.36008
11.6 0.32376
11.65 0.2899
11.7 0.25779
11.75 0.22652
11.8 0.18853
11.85 0.14812
11.9 0.10786
11.95 0.07484
12 0.04426
12.05 0.01136
12.1 -0.02212
12.15 -0.05562
12.2 -0.08635
12.25 -0.11462
12.3 -0.1424
12.35 -0.16789
12.4 -0.19131
12.45 -0.20496
12.5 -0.21458
12.55 -0.22461
12.6 -0.23727
12.65 -0.25227
12.7 -0.26672
12.75 -0.278
12.8 -0.29219
12.85 -0.30687
12.9 -0.32185
12.95 -0.33343
13 -0.34116
13.05 -0.34902
13.1 -0.35605
13.15 -0.36403
13.2 -0.37311
13.25 -0.37971
13.3 -0.38305
13.35 -0.37931
13.4 -0.37619
13.45 -0.37674
13.5 -0.37697
13.55 -0.37235
13.6 -0.36565
13.65 -0.36512
13.7 -0.36212
13.75 -0.36263
13.8 -0.36457
13.85 -0.37026
13.9 -0.37386
13.95 -0.3759
14 -0.37137
14.05 -0.37158
14.1 -0.37422
14.15 -0.37483
14.2 -0.37302
14.25 -0.37404
14.3 -0.36756
14.35 -0.36514
14.4 -0.35871
14.45 -0.35334
14.5 -0.35075
14.55 -0.3485
14.6 -0.34638
14.65 -0.34611
14.7 -0.3421
14.75 -0.333
14.8 -0.32573
14.85 -0.32239
14.9 -0.31588
14.95 -0.31397
15 -0.30814
15.05 -0.30307
15.1 -0.29664
15.15 -0.28847
15.2 -0.2827
15.25 -0.27321
15.3 -0.2656
15.35 -0.26173
15.4 -0.25815
15.45 -0.25118
15.5 -0.24647
15.55 -0.24234
15.6 -0.24193
15.65 -0.23834
15.7 -0.23505
15.75 -0.22821
15.8 -0.22685
15.85 -0.2226
15.9 -0.22258
15.95 -0.22071
16 -0.21872
16.05 -0.21565
16.1 -0.21255
16.15 -0.21189
16.2 -0.2125
16.25 -0.21192
16.3 -0.21033
16.35 -0.20909
16.4 -0.20812
16.45 -0.20693
16.5 -0.20652
16.55 -0.20296
16.6 -0.19789
16.65 -0.19701
16.7 -0.19601
16.75 -0.19075
16.8 -0.1826
16.85 -0.17414
16.9 -0.16622
16.95 -0.15678
17 -0.14865
17.05 -0.14603
17.1 -0.14454
17.15 -0.14073
17.2 -0.13604
17.25 -0.13797
17.3 -0.14418
17.35 -0.14922
17.4 -0.15517
17.45 -0.15578
17.5 -0.15359
17.55 -0.14779
17.6 -0.14153
17.65 -0.14086
17.7 -0.13924
17.75 -0.14064
17.8 -0.13871
17.85 -0.13801
17.9 -0.13907
17.95 -0.1415
18 -0.13828
18.05 -0.13426
18.1 -0.1319
18.15 -0.13109
18.2 -0.12902
18.25 -0.12358
18.3 -0.11644
18.35 -0.11249
18.4 -0.11093
18.45 -0.11143
18.5 -0.1114
18.55 -0.11008
18.6 -0.10506
18.65 -0.10128
18.7 -0.09856
18.75 -0.09478
18.8 -0.09176
18.85 -0.09166
18.9 -0.08687
18.95 -0.08008
19 -0.08005
19.05 -0.07575
19.1 -0.07714
19.15 -0.07706
19.2 -0.07484
19.25 -0.07375
19.3 -0.07677
19.35 -0.0786
19.4 -0.07675
19.45 -0.07254
19.5 -0.06748
19.55 -0.06085
19.6 -0.05645
19.65 -0.05154
19.7 -0.05234
19.75 -0.05388
19.8 -0.05882
19.85 -0.06492
19.9 -0.06993
19.95 -0.07432
20 -0.07338
20.05 -0.06763
20.1 -0.06692
20.15 -0.06528
20.2 -0.06237
20.25 -0.06135
20.3 -0.05784
20.35 -0.05639
20.4 -0.0537
20.45 -0.04834
20.5 -0.04075
20.55 -0.04098
20.6 -0.03849
20.65 -0.03564
20.7 -0.03586
20.75 -0.03598
20.8 -0.03317
20.85 -0.03055
20.9 -0.026
20.95 -0.02912
21 -0.03689
21.05 -0.04093
21.1 -0.04775
21.15 -0.0556
21.2 -0.06376
21.25 -0.06551
21.3 -0.06222
21.35 -0.06088
21.4 -0.05558
21.45 -0.05347
21.5 -0.05269
21.55 -0.05113
21.6 -0.04863
21.65 -0.04777
21.7 -0.04781
21.75 -0.05001
21.8 -0.05262
21.85 -0.05692
21.9 -0.06096
21.95 -0.06073
22 -0.06242
22.05 -0.06518
22.1 -0.06524
22.15 -0.0665
22.2 -0.06826
22.25 -0.06987
22.3 -0.06493
22.35 -0.05972
22.4 -0.05082
22.45 -0.04107
22.5 -0.02924
22.55 -0.02151
22.6 -0.0173
22.65 -0.01694
22.7 -0.01488
22.75 -0.01676
22.8 -0.02196
22.85 -0.02698
22.9 -0.02609
22.95 -0.02924
23 -0.02891
23.05 -0.02965
23.1 -0.03046
23.15 -0.02792
23.2 -0.02263
23.25 -0.01565
23.3 -0.01341
23.35 -0.01082
23.4 -0.01341
23.45 -0.01556
23.5 -0.01371
23.55 -0.01168
23.6 -0.00881
23.65 -0.00314
23.7 0.00037
23.75 -0.00276
23.8 -0.00731
23.85 -0.0095
23.9 -0.01018
23.95 -0.01186
24 -0.0112
24.05 -0.01565
24.1 -0.02074
24.15 -0.02061
24.2 -0.01888
24.25 -0.02205
24.3 -0.02656
24.35 -0.02695
24.4 -0.02991
24.45 -0.03223
24.5 -0.03491
24.55 -0.03241
24.6 -0.0271
24.65 -0.02442
24.7 -0.02062
24.75 -0.01639
24.8 -0.01014
24.85 -0.00847
24.9 -0.00754
24.95 -0.00465
25 0.00039
25.05 0.00399
25.1 0.00668
25.15 0.00848
25.2 0.00811
25.25 0.00488
25.3 0.00284
25.35 -0.00065
25.4 -0.0008
25.45 0.00081
25.5 -0.00226
25.55 -0.00366
25.6 -0.0038
25.65 -0.00125
25.7 0.00213
25.75 0.00063
25.8 -0.00355
25.85 -0.01135
25.9 -0.01892
25.95 -0.02037
26 -0.01885
26.05 -0.01887
26.1 -0.01638
26.15 -0.01173
26.2 -0.01181
26.25 -0.00974
26.3 -0.01095
26.35 -0.01264
26.4 -0.01671
26.45 -0.01461
26.5 -0.00931
26.55 -0.00315
26.6 -0.00098
26.65 0.00382
26.7 0.01021
26.75 0.01694
26.8 0.01908
26.85 0.01578
26.9 0.016
26.95 0.01192
27 0.01211
27.05 0.00996
27.1 0.0058
27.15 0.00321
27.2 0.00338
27.25 0.00685
27.3 0.00921
27.35 0.01194
27.4 0.01118
27.45 0.007
27.5 0.00639
27.55 0.00233
27.6 -0.00549
27.65 -0.00759
27.7 -0.00864
27.75 -0.0062
27.8 -0.00763
27.85 -0.00735
27.9 -0.00717
27.95 -0.00276
28 0.00406
28.05 0.00828
28.1 0.01185
28.15 0.00914
28.2 0.00513
28.25 0.00349
28.3 -0.00244
28.35 -0.00311
28.4 -0.00086
28.45 0.00309
28.5 0.00225
28.55 -0.00019
28.6 -0.00385
28.65 -0.00352
28.7 0.00012
28.75 0.00221
28.8 0.00667
28.85 0.00457
28.9 -0.00128
28.95 -0.00317
29 -0.00461
29.05 -0.00278
29.1 -0.0044
29.15 -0.00559
29.2 -0.00804
29.25 -0.01037
29.3 -0.01325
29.35 -0.0194
29.4 -0.02427
29.45 -0.02354
29.5 -0.02414
29.55 -0.02346
29.6 -0.02466
29.65 -0.02528
29.7 -0.02417
29.75 -0.02478
29.8 -0.02212
29.85 -0.02146
29.9 -0.01551
29.95 -0.01354
30 -0.00846
30.05 -0.00833
30.1 -0.01233
30.15 -0.01481
30.2 -0.01948
30.25 -0.01736
30.3 -0.01921
30.35 -0.02343
30.4 -0.02317
30.45 -0.02167
30.5 -0.01834
30.55 -0.01169
30.6 -0.00892
30.65 -0.00987
30.7 -0.00659
30.75 -0.00189
30.8 0.0002
30.85 -0.00318
30.9 -0.00622
30.95 -0.00521
31 -0.00536
31.05 -0.00371
31.1 -0.00522
31.15 -0.00419
31.2 -0.00724
31.25 -0.0057
31.3 -0.00713
31.35 -0.00938
31.4 -0.01418
31.45 -0.01367
31.5 -0.01634
31.55 -0.01632
31.6 -0.0161
31.65 -0.0097
31.7 -0.00097
31.75 0.0094
31.8 0.01152
31.85 0.01222
31.9 0.01446
31.95 0.01533
32 0.0109
32.05 0.00896
32.1 0.01181
32.15 0.01774
32.2 0.02464
32.25 0.03161
32.3 0.03818
32.35 0.04147
32.4 0.04118
32.45 0.03836
32.5 0.03246
32.55 0.0273
32.6 0.02107
32.65 0.0122
32.7 0.00839
32.75 0.00852
32.8 0.00867
32.85 0.00649
32.9 0.00275
32.95 0.002
33 0.00058
33.05 -0.00065
33.1 -0.00592
33.15 -0.00905
33.2 -0.0067
33.25 -0.00904
33.3 -0.01272
33.35 -0.01749
33.4 -0.01703
33.45 -0.01174
33.5 -0.00375
33.55 0.00048
33.6 0.00155
33.65 0.00025
33.7 -0.00551
33.75 -0.01403
33.8 -0.01598
33.85 -0.02119
33.9 -0.02453
33.95 -0.02885
34 -0.02586
34.05 -0.01903
34.1 -0.01625
34.15 -0.01253
34.2 -0.01125
34.25 -0.01109
34.3 -0.01149
34.35 -0.01504
34.4 -0.02002
34.45 -0.02486
34.5 -0.02693
34.55 -0.02356
34.6 -0.02099
34.65 -0.01336
34.7 -0.00374
34.75 0.00342
34.8 0.00581
34.85 0.01056
34.9 0.01301
34.95 0.01592
35 0.01475
35.05 0.01072
35.1 0.00852
35.15 0.00603
35.2 0.00539
35.25 0.00312
35.3 0.00324
35.35 -0.00139
35.4 -0.00718
35.45 -0.0093
35.5 -0.01002
35.55 -0.01182
35.6 -0.0096
35.65 -0.00434
35.7 -0.00262
35.75 -0.00137
35.8 -0.00462
35.85 -0.00516
35.9 -0.00635
35.95 -0.00733
36 -0.00404
36.05 0.00252
36.1 0.00283
36.15 -0.00111
36.2 -0.00039
36.25 -0.00299
36.3 -0.00106
36.35 0.00016
36.4 0.00434
36.45 0.00351
36.5 0.00278
36.55 -0.00148
36.6 -0.00245
36.65 -0.00483
36.7 -0.00715
36.75 -0.01195
36.8 -0.0138
36.85 -0.01443
36.9 -0.01172
36.95 -0.00628
37 -0.00508
37.05 0.00002
37.1 0.00314
37.15 0.00794
37.2 0.0083
37.25 0.01051
37.3 0.0134
37.35 0.0169
37.4 0.02162
37.45 0.02482
37.5 0.02748
37.55 0.02792
37.6 0.02236
37.65 0.01373
37.7 0.00316
37.75 -0.00137
37.8 -0.00508
37.85 -0.01183
37.9 -0.01468
37.95 -0.01112
38 -0.01014
38.05 -0.00508
38.1 -0.00274
38.15 -0.0033
38.2 -0.00027
38.25 0.00299
38.3 0.00595
38.35 0.00244
38.4 -0.00351
38.45 -0.00664
38.5 -0.01208
38.55 -0.01717
38.6 -0.02192
38.65 -0.02155
38.7 -0.01708
38.75 -0.01
38.8 -0.00496
38.85 -0.0054
38.9 -0.00789
38.95 -0.01009
39 -0.01328
39.05 -0.01386
39.1 -0.01558
39.15 -0.01997
39.2 -0.02126
39.25 -0.02009
39.3 -0.01354
39.35 -0.00509
39.4 0.00454
39.45 0.0108
39.5 0.01066
39.55 0.00868
39.6 0.01067
39.65 0.01335
39.7 0.01002
39.75 0.00247
39.8 -0.00644
39.85 -0.01516
39.9 -0.02174
39.95 -0.02321
40 -0.02672
40.05 -0.02383
40.1 -0.01767
40.15 -0.01322
40.2 -0.01171
40.25 -0.01251
40.3 -0.00949
40.35 -0.00282
40.4 0.00019
40.45 0.00634
40.5 0.01051
40.55 0.01679
40.6 0.02377
40.65 0.02835
40.7 0.03011
40.75 0.02826
40.8 0.02104
40.85 0.01521
40.9 0.00849
40.95 0.00292
41 -0.00058
41.05 -0.00134
41.1 -0.00166
41.15 -0.00032
41.2 0.00253
41.25 0.00291
41.3 0.00524
41.35 0.00265
41.4 -0.00169
41.45 -0.0019
41.5 0.00217
41.55 0.00607
41.6 0.00379
41.65 0.00397
41.7 0.00123
41.75 0.00017
41.8 0.00234
41.85 0.00381
41.9 0.00677
41.95 0.00379
42 -0.00113
42.05 -0.00229
42.1 -0.00598
42.15 -0.00926
42.2 -0.01442
42.25 -0.01371
42.3 -0.00972
42.35 -0.00273
42.4 0.00408
42.45 0.00988
42.5 0.01224
42.55 0.01626
42.6 0.01639
42.65 0.01778
42.7 0.01257
42.75 0.00756
42.8 0.00104
42.85 -0.00491
42.9 -0.00753
42.95 -0.01257
43 -0.01344
43.05 -0.00946
43.1 -0.007
43.15 -0.0054
43.2 -0.00817
43.25 -0.00563
43.3 0.00025
43.35 0.00713
43.4 0.0067
43.45 0.00236
43.5 -0.00168
43.55 -0.00677
43.6 -0.00771
43.65 -0.01104
43.7 -0.01459
43.75 -0.0164
43.8 -0.01365
43.85 -0.01092
43.9 -0.0058
43.95 0.00188
44 0.0076
44.05 0.00996
44.1 0.01412
44.15 0.01624
44.2 0.01254
44.25 0.00629
44.3 -0
44.35 -0.00345
44.4 -0.00153
44.45 0.00429
44.5 0.00999
44.55 0.01584
44.6 0.02257
44.65 0.02679
44.7 0.02624
44.75 0.02639
44.8 0.02152
44.85 0.01905
44.9 0.0129
44.95 0.00755
45 0.00608
45.05 0.00274
45.1 0.00351
45.15 0.0034
45.2 0.00108
45.25 -0.00491
45.3 -0.00858
45.35 -0.00893
45.4 -0.00413
45.45 -0.00456
45.5 -0.00142
45.55 0.0011
45.6 0.00376
45.65 0.00646
45.7 0.00559
45.75 0.00168
45.8 0.00046
45.85 -0.00416
45.9 -0.00776
45.95 -0.00804
46 -0.00535
46.05 -0.00032
46.1 0.00455
46.15 0.01062
46.2 0.01307
46.25 0.01499
46.3 0.01134
46.35 0.01011
46.4 0.00451
46.45 0.00247
46.5 -0.00241
46.55 -0.00998
46.6 -0.01644
46.65 -0.0197
46.7 -0.01712
46.75 -0.01563
46.8 -0.00987
46.85 -0.00835
46.9 -0.01156
46.95 -0.00892
47 -0.00784
47.05 -0.00624
47.1 -0.00557
47.15 -0.00484
47.2 -0.00844
47.25 -0.00978
47.3 -0.00637
47.35 -0.00441
47.4 -0.00114
47.45 0.00122
47.5 -0.00105
47.55 -0.00529
47.6 -0.01203
47.65 -0.0112
47.7 -0.00834
47.75 -0.00477
47.8 -0.00282
47.85 0.00145
47.9 -0.00063
47.95 -0.00505
48 -0.00584
48.05 -0.00726
48.1 -0.00874
48.15 -0.01025
48.2 -0.00817
48.25 -0.00986
48.3 -0.01108
48.35 -0.01358
48.4 -0.01007
48.45 -0.00756
48.5 -0.00696
48.55 -0.00798
48.6 -0.00963
48.65 -0.01337
48.7 -0.01611
48.75 -0.01802
48.8 -0.01399
48.85 -0.01238
48.9 -0.00915
48.95 -0.00632
49 -0.00208
49.05 0.00484
49.1 0.00931
49.15 0.01153
49.2 0.01033
49.25 0.01132
49.3 0.01021
49.35 0.01237
49.4 0.01655
49.45 0.01628
49.5 0.01432
49.55 0.01478
49.6 0.01595
49.65 0.011
49.7 0.01104
49.75 0.00662
49.8 0.00478
49.85 0.00242
49.9 -0.00247
49.95 -0.00793
50 -0.01355
50.05 -0.02034
50.1 -0.01878
50.15 -0.01786
50.2 -0.01794
50.25 -0.0123
50.3 -0.0084
50.35 -0.00754
50.4 -0.00794
50.45 -0.00884
50.5 -0.01279
50.55 -0.01601
50.6 -0.01359
50.65 -0.01193
50.7 -0.0143
50.75 -0.0162
50.8 -0.01232
50.85 -0.01251
50.9 -0.01352
50.95 -0.00949
51 -0.00429
51.05 0.00094
51.1 0.00138
51.15 0.00218
51.2 0.00262
51.25 0.00555
51.3 0.01058
51.35 0.01167
51.4 0.01536
51.45 0.01199
51.5 0.01302
51.55 0.01146
51.6 0.0128
51.65 0.01141
51.7 0.01331
51.75 0.0141
51.8 0.01239
51.85 0.0104
51.9 0.00684
51.95 0.00781
52 0.00911
52.05 0.00541
52.1 0.00044
52.15 -0.00068
52.2 0.00122
52.25 0.0066
52.3 0.00643
52.35 0.00474
52.4 0.00085
52.45 -0.00354
52.5 -0.00688
52.55 -0.01237
52.6 -0.01518
52.65 -0.016
52.7 -0.01483
52.75 -0.00986
52.8 -0.00603
52.85 -0.00469
52.9 -0.00239
52.95 -0.00208
53 -0.00395
53.05 -0.00191
53.1 -0.00216
53.15 -0.00038
53.2 0.00016
53.25 0.00292
53.3 0.00523
53.35 0.00334
53.4 0.00033
53.45 -0.0028
53.5 -0.0037
53.55 -0.00378
53.6 0.00014
53.65 -0.00007
53.7 -0.00417
53.75 -0.01009
53.8 -0.0092
53.85 -0.00942
53.9 -0.0099
53.95 -0.00937
54 -0.00431
54.05 0.0037
54.1 0.00694
54.15 0.01147
54.2 0.0125
54.25 0.00975
54.3 0.00473
54.35 0.00065
54.4 -0.00031
54.45 -0.00217
54.5 0.00062
54.55 0.00604
54.6 0.00634
54.65 0.00472
54.7 0.00544
54.75 0.00922
54.8 0.0103
54.85 0.01139
54.9 0.0066
54.95 0.00701
55 0.00553
55.05 0.0017
55.1 0.00158
55.15 -0.00148
55.2 -0.00293
55.25 -0.00105
55.3 -0.00072
55.35 0.00374
55.4 0.00743
55.45 0.00912
55.5 0.00635
55.55 0.004
55.6 0.00222
55.65 0.00068
55.7 0.00054
55.75 0.00183
55.8 0.00457
55.85 0.00844
55.9 0.00715
55.95 0.00573
56 0.00733
56.05 0.00451
56.1 0.00546
56.15 0.00623
56.2 0.00191
56.25 -0.00339
56.3 -0.00505
56.35 -0.00859
56.4 -0.00596
56.45 -0.00019
56.5 -0.00014
56.55 -0.00094
56.6 0.00091
56.65 -0.00002
56.7 -0.00356
56.75 -0.00449
56.8 -0.00433
56.85 -0.00403
56.9 -0.0073
56.95 -0.01242
57 -0.01809
57.05 -0.02415
57.1 -0.02755
57.15 -0.02381
57.2 -0.02351
57.25 -0.0246
57.3 -0.01899
57.35 -0.01533
57.4 -0.00862
57.45 -0.00607
57.5 -0.00129
57.55 0.00406
57.6 0.00399
57.65 0.00312
57.7 0.00003
57.75 -0.00193
57.8 -0.00687
57.85 -0.00575
57.9 -0.00774
57.95 -0.01049
58 -0.01031
58.05 -0.00863
58.1 -0.00714
58.15 -0.00532
58.2 -0.00589
58.25 -0.00406
58.3 -0.0011
58.35 0.00442
58.4 0.00842
58.45 0.0062
58.5 0.00727
58.55 0.01111
58.6 0.01008
58.65 0.00847
58.7 0.00978
58.75 0.00876
58.8 0.0078
58.85 0.00553
58.9 0.00314
58.95 0.00382
59 0.00232
59.05 -0.00193
59.1 -0.00731
59.15 -0.00704
59.2 -0.00985
59.25 -0.01268
59.3 -0.01688
59.35 -0.0221
59.4 -0.02702
59.45 -0.02889
59.5 -0.02815
59.55 -0.02462
59.6 -0.01867
59.65 -0.0123
59.7 -0.00245
59.75 0.00009
59.8 0.00648
59.85 0.00777
59.9 0.00715
59.95 0.00651
60 0.00541
60.05 0.00755
60.1 0.00541
60.15 0.0052
60.2 0.00438
60.25 0.00454
60.3 0.00166
60.35 0.00321
60.4 0.0059
60.45 0.00506
60.5 -0.00004
60.55 -0.00367
60.6 -0.00413
60.65 -0.00827
60.7 -0.01346
60.75 -0.01701
60.8 -0.01659
60.85 -0.01342
60.9 -0.00909
60.95 -0.00753
61 -0.007
61.05 -0.00268
61.1 -0.00375
61.15 0.00028
61.2 0.00382
61.25 0.00204
61.3 -0.00038
61.35 0.00125
61.4 0.00345
61.45 0.00647
61.5 0.00839
61.55 0.00475
61.6 0.00683
61.65 0.01152
61.7 0.01186
61.75 0.01182
61.8 0.01212
61.85 0.01267
61.9 0.00973
61.95 0.00794
62 0.00263
62.05 -0.00324
62.1 -0.00808
62.15 -0.0058
62.2 -0.0018
62.25 0.00392
62.3 0.00939
62.35 0.0126
62.4 0.01225
62.45 0.01321
62.5 0.01726
62.55 0.0229
62.6 0.02304
62.65 0.02442
62.7 0.02746
62.75 0.0264
62.8 0.02492
62.85 0.02269
62.9 0.01588
62.95 0.01214
63 0.009
63.05 0.00852
63.1 0.00755
63.15 0.00484
63.2 0.00639
63.25 0.00342
63.3 0.00088
63.35 0.00009
63.4 -0.002
63.45 -0.00613
63.5 -0.00583
63.55 -0.00467
63.6 -0.00388
63.65 -0.0062
63.7 -0.00631
63.75 -0.01055
63.8 -0.00908
63.85 -0.00347
63.9 0.00194
63.95 0.00787
64 0.01
64.05 0.01462
64.1 0.01175
64.15 0.01022
64.2 0.00573
64.25 -0.00107
64.3 -0.0088
64.35 -0.01552
64.4 -0.01463
64.45 -0.00952
64.5 -0.00474
64.55 -0.0031
64.6 -0.00065
64.65 0.00426
64.7 0.01117
64.75 0.01775
64.8 0.01727
64.85 0.0179
64.9 0.01314
64.95 0.01294
65 0.00701
65.05 0.00414
65.1 0.00469
65.15 0.00284
65.2 -0.00107
65.25 -0.00267
65.3 -0.0078
65.35 -0.01381
65.4 -0.01972
65.45 -0.02254
65.5 -0.02018
65.55 -0.01292
65.6 -0.01008
65.65 -0.00309
65.7 0.00211
65.75 0.00228
65.8 0.00125
65.85 0.00165
65.9 -0.00082
65.95 -0.00595
66 -0.00969
66.05 -0.01025
66.1 -0.00974
66.15 -0.00899
66.2 -0.00331
66.25 0.00316
66.3 0.00828
66.35 0.00891
66.4 0.0075
66.45 0.00995
66.5 0.01473
66.55 0.01428
66.6 0.01627
66.65 0.01888
66.7 0.02233
66.75 0.02462
66.8 0.02239
66.85 0.01621
66.9 0.00895
66.95 0.00302
67 0.00131
67.05 -0.00138
67.1 -0.00443
67.15 -0.01003
67.2 -0.01271
67.25 -0.00921
67.3 -0.00806
67.35 -0.01058
67.4 -0.01465
67.45 -0.01529
67.5 -0.0142
67.55 -0.00907
67.6 -0.00577
67.65 -0.00182
67.7 -0.00117
67.75 -0.0029
67.8 -0.00834
67.85 -0.00904
67.9 -0.00566
67.95 -0.00471
68 -0.00265
68.05 0.00086
68.1 0.00232
68.15 0.00495
68.2 0.00655
68.25 0.00705
68.3 0.0078
68.35 0.00492
68.4 0.0003
68.45 -0.00202
68.5 -0.00618
68.55 -0.00434
68.6 -0.0009
68.65 0.00065
68.7 0.00176
68.75 0.00262
68.8 0.00699
68.85 0.00651
68.9 0.00998
68.95 0.01466
69 0.0186
69.05 0.01612
69.1 0.01094
69.15 0.00349
69.2 -0.00183
69.25 -0.00647
69.3 -0.00951
69.35 -0.01234
69.4 -0.01016
69.45 -0.00668
69.5 -0.00075
69.55 -0.00137
69.6 -0.00302
69.65 -0.00545
69.7 -0.00637
69.75 -0.00357
69.8 -0.00133
69.85 -0.00417
69.9 -0.00409
69.95 -0.00647
70 -0.00893
70.05 -0.01233
70.1 -0.01103
70.15 -0.01036
70.2 -0.00613
70.25 0.00119
70.3 0.00136
70.35 -0.00221
70.4 -0.00487
70.45 -0.00193
70.5 -0.00006
70.55 0.00256
70.6 0.00605
70.65 0.00298
70.7 -0.0036
70.75 -0.00642
70.8 -0.01243
70.85 -0.01778
70.9 -0.02306
70.95 -0.02723
71 -0.0246
71.05 -0.01842
71.1 -0.0098
71.15 -0.00043
71.2 0.00835
71.25 0.01368
71.3 0.01703
71.35 0.0207
71.4 0.01894
71.45 0.01428
71.5 0.0127
71.55 0.01352
71.6 0.01232
71.65 0.01377
71.7 0.01379
71.75 0.01264
71.8 0.01511
71.85 0.01968
71.9 0.02409
71.95 0.02561
72 0.02194
72.05 0.01659
72.1 0.01319
72.15 0.00634
72.2 0.00009
72.25 -0.00543
72.3 -0.00864
72.35 -0.01453
72.4 -0.01661
72.45 -0.0145
72.5 -0.01596
72.55 -0.01998
72.6 -0.02157
72.65 -0.02274
72.7 -0.01939
72.75 -0.01554
72.8 -0.01417
72.85 -0.01371
72.9 -0.01086
72.95 -0.01172
73 -0.01514
73.05 -0.01705
73.1 -0.02052
73.15 -0.01912
73.2 -0.0158
73.25 -0.0093
73.3 -0.00899
73.35 -0.01068
73.4 -0.01054
73.45 -0.00745
73.5 -0.0016
73.55 0.00203
73.6 -0.00011
73.65 -0.00535
73.7 -0.01224
73.75 -0.01374
73.8 -0.01262
73.85 -0.01275
73.9 -0.01141
73.95 -0.01391
74 -0.01422
74.05 -0.01207
74.1 -0.00689
74.15 -0.00143
74.2 0.0014
74.25 0.00449
74.3 0.00885
74.35 0.01355
74.4 0.0112
74.45 0.01289
74.5 0.0151
74.55 0.01205
74.6 0.01294
74.65 0.0135
74.7 0.01635
74.75 0.01528
74.8 0.01009
74.85 0.01016
74.9 0.00857
74.95 0.00397
75 -0.0033
75.05 -0.01027
75.1 -0.01292
75.15 -0.00983
75.2 -0.0101
75.25 -0.01046
75.3 -0.00622
75.35 -0.00085
75.4 0.00541
75.45 0.01347
75.5 0.01458
75.55 0.01616
75.6 0.01386
75.65 0.0157
75.7 0.01783
75.75 0.01862
75.8 0.02116
75.85 0.02027
75.9 0.02034
75.95 0.01936
76 0.01506
76.05 0.01444
76.1 0.01371
76.15 0.00972
76.2 0.00687
76.25 0.00297
76.3 -0.00219
76.35 -0.00697
76.4 -0.01342
76.45 -0.01695
76.5 -0.01529
76.55 -0.01041
76.6 -0.00804
76.65 -0.00864
76.7 -0.00686
76.75 -0.00995
76.8 -0.01156
76.85 -0.01218
76.9 -0.01149
76.95 -0.01075
77 -0.01105
77.05 -0.00847
77.1 -0.00675
77.15 -0.00091
77.2 0.00517
77.25 0.00617
77.3 0.00428
77.35 0.00527
77.4 0.0035
77.45 0.00046
77.5 -0.0055
77.55 -0.01071
77.6 -0.01383
77.65 -0.01356
77.7 -0.00879
77.75 -0.00812
77.8 -0.01168
77.85 -0.01145
77.9 -0.01122
77.95 -0.01226
78 -0.01106
78.05 -0.01109
78.1 -0.01311
78.15 -0.01695
78.2 -0.01748
78.25 -0.01715
78.3 -0.01994
78.35 -0.02155
78.4 -0.01616
78.45 -0.01439
78.5 -0.00737
78.55 -0.001
78.6 0.00716
78.65 0.01292
78.7 0.01817
78.75 0.01967
78.8 0.01561
78.85 0.01463
78.9 0.01129
78.95 0.00392
79 0.00303
79.05 0.00356
79.1 0.00483
79.15 0.00632
79.2 0.00644
79.25 0.00207
79.3 0.00353
79.35 0.00237
79.4 -0.00155
79.45 -0.00254
79.5 0.00034
79.55 0.00151
79.6 0.00461
79.65 0.00745
79.7 0.00544
79.75 0.00095
79.8 -0.00044
79.85 0.00076
79.9 0.00195
79.95 0.00312
80 0.00036
80.05 -0.00179
80.1 -0.00041
80.15 0.00344
80.2 0.00499
80.25 0.00102
80.3 -0.00466
80.35 -0.00875
80.4 -0.01105
80.45 -0.01435
80.5 -0.01485
80.55 -0.01759
80.6 -0.02065
80.65 -0.02193
80.7 -0.02409
80.75 -0.01899
80.8 -0.01097
80.85 -0.00373
80.9 0.00321
80.95 0.00911
81 0.01343
81.05 0.01458
81.1 0.01068
81.15 0.00388
81.2 0.00225
81.25 0.00138
81.3 0.00173
81.35 0.00511
81.4 0.00514
81.45 0.00112
81.5 -0.00402
81.55 -0.00611
81.6 -0.00983
81.65 -0.00692
81.7 -0.00002
81.75 0.00678
81.8 0.01518
81.85 0.02284
81.9 0.02478
81.95 0.02226
82 0.0176
82.05 0.01384
82.1 0.01267
82.15 0.0148
82.2 0.01819
82.25 0.01957
82.3 0.02108
82.35 0.01719
82.4 0.01208
82.45 0.00578
82.5 0.00549
82.55 0.00804
82.6 0.00498
82.65 0.00021
82.7 -0.00251
82.75 -0.0086
82.8 -0.01414
82.85 -0.02094
82.9 -0.02177
82.95 -0.02294
83 -0.02082
83.05 -0.01929
83.1 -0.02101
83.15 -0.01929
83.2 -0.01553
83.25 -0.00938
83.3 -0.00461
83.35 0.00295
83.4 0.00429
83.45 0.0052
83.5 0.00455
83.55 -0.0008
83.6 0.00022
83.65 -0.00177
83.7 -0.00188
83.75 -0.00606
83.8 -0.00594
83.85 -0.00175
83.9 0.00352
83.95 0.00484
84 0.00657
84.05 0.00483
84.1 0.005
84.15 0.00303
84.2 0.00027
84.25 0.00122
84.3 0.00143
84.35 0.0056
84.4 0.00834
84.45 0.00873
84.5 0.00581
84.55 0.0003
84.6 -0.00339
84.65 -0.00748
84.7 -0.00862
84.75 -0.00581
84.8 -0.00539
84.85 -0.00498
84.9 -0.00147
84.95 0.00207
85 0.00415
85.05 0.00656
85.1 0.00472
85.15 0.00726
85.2 0.00365
85.25 0.00096
85.3 -0.00195
85.35 -0.00596
85.4 -0.00847
85.45 -0.01218
85.5 -0.01184
85.55 -0.0083
85.6 -0.00766
85.65 -0.00747
85.7 -0.00242
85.75 0.00415
85.8 0.00803
85.85 0.01206
85.9 0.01321
85.95 0.01435
86 0.01756
86.05 0.01997
86.1 0.01579
86.15 0.00922
86.2 -0.00001
86.25 -0.00857
86.3 -0.01192
86.35 -0.00941
86.4 -0.00785
86.45 -0.00584
86.5 -0.00348
86.55 0.00174
86.6 0.00399
86.65 0.00451
86.7 0.00571
86.75 0.00854
86.8 0.00807
86.85 0.0112
86.9 0.00933
86.95 0.00881
87 0.00808
87.05 0.00978
87.1 0.01024
87.15 0.01045
87.2 0.01219
87.25 0.01127
87.3 0.01056
87.35 0.00779
87.4 0.00243
87.45 0.00045
87.5 -0.00544
87.55 -0.01224
87.6 -0.01825
87.65 -0.02247
87.7 -0.01965
87.75 -0.01588
87.8 -0.0136
87.85 -0.01082
87.9 -0.01156
87.95 -0.01337
88 -0.0097
88.05 -0.00303
88.1 0.00476
88.15 0.00465
88.2 0.00005
88.25 -0.00612
88.3 -0.00655
88.35 -0.00946
88.4 -0.0095
88.45 -0.00675
88.5 -0.00572
88.55 -0.00125
88.6 0.00492
88.65 0.01053
88.7 0.01243
88.75 0.01063
88.8 0.01047
88.85 0.0127
88.9 0.01564
88.95 0.01156
89 0.0075
89.05 0.00194
89.1 -0.00234
89.15 -0.00071
89.2 0.0011
89.25 -0.00086
89.3 -0.0038
89.35 -0.00508
89.4 -0.00651
89.45 -0.00556
89.5 -0.00679
89.55 -0.01089
89.6 -0.01672
89.65 -0.01793
89.7 -0.01782
89.75 -0.01882
89.8 -0.0158
89.85 -0.00981
89.9 -0.00535
89.95 0.00038
90 0.00097
90.05 -0.00236
90.1 -0.00851
90.15 -0.01315
90.2 -0.01919
90.25 -0.0252
90.3 -0.02892
90.35 -0.02929
90.4 -0.02581
90.45 -0.01963
90.5 -0.00939
90.55 -0.00371
90.6 0.00004
90.65 0.00115
90.7 0.00532
90.75 0.01226
90.8 0.01769
90.85 0.01535
90.9 0.00832
90.95 0.00778
91 0.00476
91.05 -0.00039
91.1 0.00067
91.15 0.00555
91.2 0.00755
91.25 0.00541
91.3 0.00196
91.35 0.00001
91.4 -0.00283
91.45 -0.00789
91.5 -0.00804
91.55 -0.00622
91.6 -0.00647
91.65 -0.00576
91.7 -0.00841
91.75 -0.01161
91.8 -0.0126
91.85 -0.01647
91.9 -0.01353
91.95 -0.00611
92 0.0018
92.05 0.01033
92.1 0.01226
92.15 0.0148
92.2 0.01768
92.25 0.02093
92.3 0.02253
92.35 0.0199
92.4 0.01865
92.45 0.01817
92.5 0.01489
92.55 0.01029
92.6 0.00773
92.65 0.00351
92.7 0.00052
92.75 -0.00191
92.8 0.00019
92.85 0.00266
92.9 0.00471
92.95 0.00869
93 0.00689
93.05 0.00771
93.1 0.00394
93.15 0.00257
93.2 0.00149
93.25 0.00126
93.3 -0.00107
93.35 -0.00422
93.4 -0.0072
93.45 -0.00683
93.5 -0.00731
93.55 -0.00774
93.6 -0.00471
93.65 -0.00289
93.7 -0.00248
93.75 -0.00204
93.8 -0.00025
93.85 -0.00122
93.9 0.00234
93.95 0.00309
94 0.00159
94.05 -0.00288
94.1 -0.00991
94.15 -0.01372
94.2 -0.01512
94.25 -0.01531
94.3 -0.0138
94.35 -0.01358
94.4 -0.01629
94.45 -0.0194
94.5 -0.01949
94.55 -0.01879
94.6 -0.01326
94.65 -0.00457
94.7 0.00324
94.75 0.00787
94.8 0.0101
94.85 0.01037
94.9 0.0107
94.95 0.00659
95 0.00783
95.05 0.00856
95.1 0.00738
95.15 0.00805
95.2 0.00983
95.25 0.01111
95.3 0.00854
95.35 0.00677
95.4 0.00846
95.45 0.00692
95.5 0.00719
95.55 0.00639
95.6 0.00097
95.65 -0.00495
95.7 -0.01075
95.75 -0.0157
95.8 -0.02133
95.85 -0.02555
95.9 -0.0293
95.95 -0.02935
96 -0.02259
96.05 -0.01962
96.1 -0.01248
96.15 -0.00748
96.2 0.00103
96.25 0.00942
96.3 0.01576
96.35 0.01835
96.4 0.02094
96.45 0.02177
96.5 0.0245
96.55 0.02388
96.6 0.01975
96.65 0.0194
96.7 0.01533
96.75 0.01445
96.8 0.00974
96.85 0.00266
96.9 0.00215
96.95 0.00497
97 0.00559
97.05 0.00648
97.1 0.00706
97.15 0.00561
97.2 0.00644
97.25 0.00319
97.3 0.0036
97.35 0.00667
97.4 0.00492
97.45 0.00422
97.5 0.00153
97.55 0.00226
97.6 0.00479
97.65 0.00847
97.7 0.00962
97.75 0.00471
97.8 -0.00212
97.85 -0.00335
97.9 -0.00797
97.95 -0.01459
98 -0.02209
98.05 -0.02514
98.1 -0.02112
98.15 -0.02025
98.2 -0.01367
98.25 -0.00648
98.3 0.00159
98.35 0.00213
98.4 -0.00233
98.45 -0.00725
98.5 -0.00827
98.55 -0.00433
98.6 0.00167
98.65 0.00822
98.7 0.01067
98.75 0.00955
98.8 0.00883
98.85 0.01051
98.9 0.01313
98.95 0.01749
99 0.01819
99.05 0.01446
99.1 0.01143
99.15 0.0091
99.2 0.00238
99.25 0.00107
99.3 -0.00455
99.35 -0.01042
99.4 -0.01751
99.45 -0.01854
99.5 -0.01596
99.55 -0.0156
99.6 -0.01341
99.65 -0.00706
99.7 -0.0054
99.75 -0.00053
99.8 -0.00021
99.85 -0
99.9 0.00287
99.95 0.00169
