0 0
0.05 0.00237
0.1 0.00691
0.15 0.0119
0.2 0.016
0.25 0.01913
0.3 0.02141
0.35 0.02681
0.4 0.03358
0.45 0.03967
0.5 0.04584
0.55 0.04657
0.6 0.04486
0.65 0.04061
0.7 0.03806
0.75 0.03985
0.8 0.03791
0.85 0.03556
0.9 0.03712
0.95 0.04032
1 0.0404
1.05 0.04098
1.1 0.03786
1.15 0.0373
1.2 0.04023
1.25 0.04029
1.3 0.04056
1.35 0.03924
1.4 0.03706
1.45 0.03185
1.5 0.02534
1.55 0.02155
1.6 0.02391
1.65 0.0244
1.7 0.02509
1.75 0.02734
1.8 0.03189
1.85 0.03864
1.9 0.03901
1.95 0.03475
2 0.03263
2.05 0.03378
2.1 0.03812
2.15 0.03626
2.2 0.03827
2.25 0.03719
2.3 0.03392
2.35 0.02738
2.4 0.02456
2.45 0.01966
2.5 0.0132
2.55 0.00722
2.6 0.0071
2.65 0.0127
2.7 0.01395
2.75 0.01155
2.8 0.01499
2.85 0.01692
2.9 0.02121
2.95 0.0271
3 0.02829
3.05 0.03076
3.1 0.0304
3.15 0.03048
3.2 0.03013
3.25 0.02759
3.3 0.0274
3.35 0.02306
3.4 0.01872
3.45 0.01317
3.5 0.01233
3.55 0.01364
3.6 0.01458
3.65 0.01907
3.7 0.02485
3.75 0.02984
3.8 0.02845
3.85 0.02433
3.9 0.02231
3.95 0.02025
4 0.02044
4.05 0.01993
4.1 0.01769
4.15 0.01278
4.2 0.01312
4.25 0.01271
4.3 0.01356
4.35 0.0137
4.4 0.0095
4.45 0.00677
4.5 0.00092
4.55 -0.00052
4.6 0.00126
4.65 0.00087
4.7 0.00044
4.75 0.0003
4.8 -0.00335
4.85 -0.00978
4.9 -0.01312
4.95 -0.01849
5 -0.02435
5.05 -0.02615
5.1 -0.02923
5.15 -0.03238
5.2 -0.03705
5.25 -0.04625
5.3 -0.05989
5.35 -0.07225
5.4 -0.08647
5.45 -0.0978
5.5 -0.1054
5.55 -0.113
5.6 -0.11946
5.65 -0.12548
5.7 -0.12835
5.75 -0.12999
5.8 -0.13416
5.85 -0.14264
5.9 -0.14793
5.95 -0.14875
6 -0.1466
6.05 -0.14499
6.1 -0.13738
6.15 -0.12978
6.2 -0.11669
6.25 -0.09922
6.3 -0.07868
6.35 -0.06282
6.4 -0.0476
6.45 -0.02907
6.5 -0.01292
6.55 0.00328
6.6 0.02549
6.65 0.04358
6.7 0.06141
6.75 0.08009
6.8 0.09784
6.85 0.11508
6.9 0.13295
6.95 0.15155
7 0.16587
7.05 0.17713
7.1 0.18726
7.15 0.1947
7.2 0.20054
7.25 0.20233
7.3 0.20495
7.35 0.20567
7.4 0.2008
7.45 0.19301
7.5 0.18249
7.55 0.1689
7.6 0.15341
7.65 0.13922
7.7 0.12767
7.75 0.11962
7.8 0.11447
7.85 0.10356
7.9 0.08877
7.95 0.07294
8 0.06315
8.05 0.0552
8.1 0.05153
8.15 0.04763
8.2 0.03982
8.25 0.03661
8.3 0.03163
8.35 0.02981
8.4 0.02652
8.45 0.0249
8.5 0.02006
8.55 0.01206
8.6 0.0068
8.65 -0.00038
8.7 -0.00788
8.75 -0.0136
8.8 -0.01373
8.85 -0.01083
8.9 -0.00507
8.95 -0.00001
9 0.00488
9.05 0.00376
9.1 0.00577
9.15 0.00571
9.2 0.00152
9.25 -0.00423
9.3 -0.00339
9.35 -0.00545
9.4 -0.00946
9.45 -0.00788
9.5 -0.00236
9.55 0.00101
9.6 0.00163
9.65 0.00214
9.7 0.00144
9.75 0.00422
9.8 0.00644
9.85 0.01003
9.9 0.01687
9.95 0.02163
10 0.02041
10.05 0.02026
10.1 0.02204
10.15 0.02203
10.2 0.02538
10.25 0.02774
10.3 0.0307
10.35 0.03227
10.4 0.03283
10.45 0.02896
10.5 0.02334
10.55 0.01686
10.6 0.00831
10.65 0.00389
10.7 0.00529
10.75 0.00349
10.8 0.00536
10.85 0.00633
10.9 0.00323
10.95 0.00167
11 -0.00351
11.05 -0.00534
11.1 -0.00791
11.15 -0.00848
11.2 -0.01209
11.25 -0.01296
11.3 -0.01164
11.35 -0.00944
11.4 -0.00762
11.45 -0.00333
11.5 -0.00347
11.55 -0.00589
11.6 -0.00511
11.65 -0.00545
11.7 -0.00911
11.75 -0.01466
11.8 -0.0148
11.85 -0.01203
11.9 -0.01327
11.95 -0.01117
12 -0.01005
12.05 -0.00827
12.1 -0.00746
12.15 -0.00539
12.2 -0.00018
12.25 0.00387
12.3 0.00661
12.35 0.00552
12.4 0.00609
12.45 0.0084
12.5 0.00947
12.55 0.01089
12.6 0.01314
12.65 0.01647
12.7 0.01702
12.75 0.01318
12.8 0.00629
12.85 0.00086
12.9 -0.00194
12.95 -0.00508
13 -0.01125
13.05 -0.01708
13.1 -0.02348
13.15 -0.02492
13.2 -0.0221
13.25 -0.0214
13.3 -0.01657
13.35 -0.01655
13.4 -0.01827
13.45 -0.01964
13.5 -0.02362
13.55 -0.02743
13.6 -0.0244
13.65 -0.01764
13.7 -0.00909
13.75 -0.0003
13.8 0.00783
13.85 0.01029
13.9 0.01045
13.95 0.0107
14 0.01197
14.05 0.01239
14.1 0.01119
14.15 0.00745
14.2 0.00056
14.25 -0.00648
14.3 -0.00725
14.35 -0.00936
14.4 -0.00866
14.45 -0.00426
14.5 0.00212
14.55 0.00224
14.6 0.00204
14.65 0.00364
14.7 0.00588
14.75 0.00937
14.8 0.0126
14.85 0.01394
14.9 0.01148
14.95 0.00925
15 0.00744
15.05 0.00175
15.1 -0.00609
15.15 -0.01161
15.2 -0.01085
15.25 -0.00613
15.3 -0.00129
15.35 0.00114
15.4 0.00502
15.45 0.01033
15.5 0.01036
15.55 0.00705
15.6 0.00276
15.65 0.00052
15.7 -0.00106
15.75 -0.00588
15.8 -0.00517
15.85 -0.0061
15.9 -0.01079
15.95 -0.01464
16 -0.01412
16.05 -0.01048
16.1 -0.00861
16.15 -0.0116
16.2 -0.01117
16.25 -0.01046
16.3 -0.00799
16.35 -0.00608
16.4 -0.00677
16.45 -0.00765
16.5 -0.00421
16.55 -0.00543
16.6 -0.0025
16.65 -0.00212
16.7 -0.00208
16.75 -0.00161
16.8 0.00156
16.85 0.00156
16.9 0.00376
16.95 0.00283
17 -0.00071
17.05 0.00013
17.1 -0.00217
17.15 -0.00692
17.2 -0.01014
17.25 -0.00812
17.3 -0.0107
17.35 -0.0099
17.4 -0.0128
17.45 -0.01015
17.5 -0.0068
17.55 -0.00139
17.6 0.0054
17.65 0.01256
17.7 0.01542
17.75 0.01162
17.8 0.00764
17.85 0.00778
17.9 0.00483
17.95 0.00313
18 -0.0016
18.05 -0.00675
18.1 -0.01256
18.15 -0.01897
18.2 -0.02035
18.25 -0.02136
18.3 -0.02024
18.35 -0.01823
18.4 -0.0153
18.45 -0.0148
18.5 -0.01387
18.55 -0.0144
18.6 -0.01101
18.65 -0.00914
18.7 -0.00484
18.75 -0.00012
18.8 0.00352
18.85 0.0052
18.9 0.0051
18.95 0.00244
19 -0.00299
19.05 -0.00725
19.1 -0.00607
19.15 -0.0081
19.2 -0.00776
19.25 -0.00633
19.3 -0.00762
19.35 -0.00742
19.4 -0.01044
19.45 -0.00912
19.5 -0.00456
19.55 -0.00183
19.6 0.00014
19.65 0.00437
19.7 0.00726
19.75 0.00952
19.8 0.0092
19.85 0.00815
19.9 0.00406
19.95 0.00259
20 0.0008
20.05 0.0031
20.1 0.0005
20.15 -0.00183
20.2 0.00016
20.25 0.00304
20.3 0.0068
20.35 0.0077
20.4 0.00719
20.45 0.00566
20.5 0.00759
20.55 0.00517
20.6 0.00054
20.65 -0.00073
20.7 -0.00176
20.75 -0.00122
20.8 0.00279
20.85 0.00469
20.9 0.00707
20.95 0.01104
21 0.01241
21.05 0.01366
21.1 0.01407
21.15 0.01487
21.2 0.01611
21.25 0.0184
21.3 0.02052
21.35 0.02318
21.4 0.02244
21.45 0.01829
21.5 0.01077
21.55 0.00334
21.6 -0.00638
21.65 -0.01314
21.7 -0.01755
21.75 -0.01821
21.8 -0.02027
21.85 -0.01714
21.9 -0.01526
21.95 -0.0141
22 -0.01265
22.05 -0.01091
22.1 -0.00987
22.15 -0.00854
22.2 -0.01106
22.25 -0.01626
22.3 -0.02145
22.35 -0.02079
22.4 -0.01802
22.45 -0.01121
22.5 -0.01057
22.55 -0.01034
22.6 -0.01192
22.65 -0.01321
22.7 -0.01546
22.75 -0.01913
22.8 -0.01703
22.85 -0.01099
22.9 -0.00619
22.95 -0.00675
23 -0.01001
23.05 -0.01475
23.1 -0.0127
23.15 -0.0107
23.2 -0.01077
23.25 -0.01393
23.3 -0.01193
23.35 -0.00657
23.4 -0.00698
23.45 -0.00949
23.5 -0.00852
23.55 -0.00628
23.6 -0.00203
23.65 0.00081
23.7 0.00154
23.75 0.00174
23.8 0.00196
23.85 0.00396
23.9 0.00506
23.95 0.00608
24 0.00341
24.05 0.00064
24.1 -0.00005
24.15 0.00154
24.2 0.00579
24.25 0.01134
24.3 0.01772
24.35 0.02144
24.4 0.02466
24.45 0.02625
24.5 0.02631
24.55 0.02041
24.6 0.01325
24.65 0.00343
24.7 -0.00411
24.75 -0.00957
24.8 -0.01098
24.85 -0.01034
24.9 -0.00608
24.95 -0.00433
25 0.00051
25.05 0.00032
25.1 0.00128
25.15 -0.00161
25.2 -0.00512
25.25 -0.00934
25.3 -0.01041
25.35 -0.00655
25.4 -0.00308
25.45 0.00184
25.5 0.00211
25.55 0.00534
25.6 0.00739
25.65 0.00361
25.7 -0.00103
25.75 -0.00449
25.8 -0.0043
25.85 -0.0046
25.9 -0.00692
25.95 -0.01197
26 -0.01249
26.05 -0.0099
26.1 -0.01159
26.15 -0.01142
26.2 -0.00864
26.25 -0.00338
26.3 -0.00251
26.35 -0.00088
26.4 -0.00074
26.45 0.00213
26.5 0.00013
26.55 -0.00045
26.6 0.0002
26.65 0.00415
26.7 0.00803
26.75 0.01093
26.8 0.01087
26.85 0.01178
26.9 0.0115
26.95 0.01123
27 0.00829
27.05 0.00488
27.1 -0.00199
27.15 -0.00412
27.2 -0.0021
27.25 -0.00071
27.3 0.00313
27.35 0.00555
27.4 0.00822
27.45 0.01138
27.5 0.01456
27.55 0.01306
27.6 0.00879
27.65 0.00557
27.7 0.00249
27.75 -0.00155
27.8 -0.01372
27.85 -0.02859
27.9 -0.04068
27.95 -0.05345
28 -0.0689
28.05 -0.08379
28.1 -0.10588
28.15 -0.12656
28.2 -0.14852
28.25 -0.17322
28.3 -0.20436
28.35 -0.2406
28.4 -0.2817
28.45 -0.32583
28.5 -0.3749
28.55 -0.43174
28.6 -0.49338
28.65 -0.55895
28.7 -0.62728
28.75 -0.70338
28.8 -0.78321
28.85 -0.8628
28.9 -0.94577
28.95 -1.03715
29 -1.12981
29.05 -1.22668
29.1 -1.32362
29.15 -1.42279
29.2 -1.52061
29.25 -1.61727
29.3 -1.71445
29.35 -1.81074
29.4 -1.90429
29.45 -1.99138
29.5 -2.07205
29.55 -2.14221
29.6 -2.19992
29.65 -2.24266
29.7 -2.27183
29.75 -2.28913
29.8 -2.29884
29.85 -2.29885
29.9 -2.28757
29.95 -2.26596
30 -2.22879
30.05 -2.17724
30.1 -2.11458
30.15 -2.03879
30.2 -1.95191
30.25 -1.85031
30.3 -1.74216
30.35 -1.62522
30.4 -1.49765
30.45 -1.36581
30.5 -1.22492
30.55 -1.07833
30.6 -0.92884
30.65 -0.77168
30.7 -0.61458
30.75 -0.45403
30.8 -0.29774
30.85 -0.14077
30.9 0.01537
30.95 0.16594
31 0.30754
31.05 0.44504
31.1 0.58028
31.15 0.70811
31.2 0.83122
31.25 0.94699
31.3 1.05534
31.35 1.16152
31.4 1.26173
31.45 1.3489
31.5 1.42763
31.55 1.49574
31.6 1.55518
31.65 1.60769
31.7 1.66142
31.75 1.70989
31.8 1.75356
31.85 1.78915
31.9 1.81654
31.95 1.84049
32 1.86278
32.05 1.87667
32.1 1.89204
32.15 1.90476
32.2 1.90966
32.25 1.91409
32.3 1.91137
32.35 1.90863
32.4 1.90124
32.45 1.89559
32.5 1.89008
32.55 1.88609
32.6 1.88168
32.65 1.87198
32.7 1.85446
32.75 1.83818
32.8 1.81897
32.85 1.7995
32.9 1.77829
32.95 1.75893
33 1.73995
33.05 1.71816
33.1 1.6935
33.15 1.66304
33.2 1.62618
33.25 1.58925
33.3 1.55498
33.35 1.52187
33.4 1.48312
33.45 1.44023
33.5 1.39942
33.55 1.3575
33.6 1.31257
33.65 1.26603
33.7 1.21793
33.75 1.17132
33.8 1.13089
33.85 1.09387
33.9 1.05378
33.95 1.01264
34 0.96773
34.05 0.92629
34.1 0.88221
34.15 0.84059
34.2 0.79687
34.25 0.74961
34.3 0.7015
34.35 0.65734
34.4 0.61656
34.45 0.58102
34.5 0.54072
34.55 0.50292
34.6 0.46762
34.65 0.4361
34.7 0.40282
34.75 0.37124
34.8 0.33814
34.85 0.30071
34.9 0.26458
34.95 0.23087
35 0.19899
35.05 0.16559
35.1 0.13488
35.15 0.10843
35.2 0.07901
35.25 0.05036
35.3 0.01992
35.35 -0.0068
35.4 -0.02995
35.45 -0.04807
35.5 -0.07006
35.55 -0.09299
35.6 -0.11138
35.65 -0.13216
35.7 -0.1482
35.75 -0.16514
35.8 -0.18337
35.85 -0.19529
35.9 -0.20797
35.95 -0.22244
36 -0.23523
36.05 -0.24486
36.1 -0.25112
36.15 -0.25678
36.2 -0.26565
36.25 -0.2697
36.3 -0.2785
36.35 -0.28192
36.4 -0.28195
36.45 -0.28253
36.5 -0.28467
36.55 -0.29056
36.6 -0.30039
36.65 -0.30534
36.7 -0.30983
36.75 -0.31124
36.8 -0.31376
36.85 -0.31403
36.9 -0.31203
36.95 -0.31219
37 -0.31734
37.05 -0.31845
37.1 -0.31771
37.15 -0.3161
37.2 -0.31767
37.25 -0.31556
37.3 -0.31082
37.35 -0.30641
37.4 -0.30819
37.45 -0.31229
37.5 -0.31455
37.55 -0.31799
37.6 -0.32036
37.65 -0.31742
37.7 -0.31515
37.75 -0.31204
37.8 -0.30757
37.85 -0.30252
37.9 -0.2954
37.95 -0.29046
38 -0.2821
38.05 -0.27227
38.1 -0.26236
38.15 -0.25843
38.2 -0.25217
38.25 -0.24949
38.3 -0.24474
38.35 -0.24117
38.4 -0.23767
38.45 -0.23762
38.5 -0.23595
38.55 -0.23116
38.6 -0.22878
38.65 -0.22864
38.7 -0.22728
38.75 -0.22419
38.8 -0.22323
38.85 -0.22273
38.9 -0.22176
38.95 -0.2209
39 -0.2157
39.05 -0.20993
39.1 -0.20206
39.15 -0.19674
39.2 -0.1925
39.25 -0.19143
39.3 -0.19416
39.35 -0.19401
39.4 -0.19161
39.45 -0.19164
39.5 -0.19519
39.55 -0.19235
39.6 -0.19318
39.65 -0.18933
39.7 -0.1885
39.75 -0.1848
39.8 -0.18478
39.85 -0.18528
39.9 -0.18611
39.95 -0.18845
40 -0.1912
40.05 -0.18974
40.1 -0.18927
40.15 -0.18216
40.2 -0.17448
40.25 -0.17089
40.3 -0.16384
40.35 -0.15859
40.4 -0.15428
40.45 -0.15016
40.5 -0.1422
40.55 -0.13708
40.6 -0.13099
40.65 -0.12418
40.7 -0.12265
40.75 -0.12526
40.8 -0.12622
40.85 -0.12329
40.9 -0.12411
40.95 -0.12436
41 -0.12307
41.05 -0.1232
41.1 -0.1211
41.15 -0.1192
41.2 -0.11991
41.25 -0.11539
41.3 -0.10818
41.35 -0.10528
41.4 -0.0993
41.45 -0.09598
41.5 -0.09234
41.55 -0.0931
41.6 -0.09525
41.65 -0.09981
41.7 -0.09998
41.75 -0.09749
41.8 -0.09676
41.85 -0.09231
41.9 -0.0921
41.95 -0.08966
42 -0.09014
42.05 -0.08612
42.1 -0.08563
42.15 -0.08286
42.2 -0.07707
42.25 -0.07071
42.3 -0.06427
42.35 -0.05953
42.4 -0.05643
42.45 -0.05493
42.5 -0.05752
42.55 -0.06159
42.6 -0.06483
42.65 -0.06953
42.7 -0.07011
42.75 -0.07106
42.8 -0.07036
42.85 -0.0658
42.9 -0.06347
42.95 -0.06158
43 -0.06302
43.05 -0.06309
43.1 -0.06144
43.15 -0.05661
43.2 -0.05027
43.25 -0.04498
43.3 -0.04343
43.35 -0.03968
43.4 -0.03699
43.45 -0.03985
43.5 -0.04456
43.55 -0.04967
43.6 -0.05668
43.65 -0.05895
43.7 -0.06203
43.75 -0.06472
43.8 -0.06762
43.85 -0.06628
43.9 -0.06328
43.95 -0.0631
44 -0.0645
44.05 -0.06109
44.1 -0.06086
44.15 -0.05897
44.2 -0.05966
44.25 -0.06005
44.3 -0.05814
44.35 -0.05341
44.4 -0.04986
44.45 -0.04511
44.5 -0.04104
44.55 -0.04113
44.6 -0.04493
44.65 -0.04624
44.7 -0.04663
44.75 -0.04273
44.8 -0.04321
44.85 -0.04106
44.9 -0.0386
44.95 -0.03349
45 -0.03114
45.05 -0.02747
45.1 -0.02365
45.15 -0.01846
45.2 -0.01567
45.25 -0.01151
45.3 -0.01019
45.35 -0.00877
45.4 -0.00708
45.45 -0.01034
45.5 -0.01469
45.55 -0.01771
45.6 -0.01877
45.65 -0.01777
45.7 -0.0167
45.75 -0.01539
45.8 -0.01342
45.85 -0.01367
45.9 -0.01865
45.95 -0.02581
46 -0.0297
46.05 -0.03414
46.1 -0.03364
46.15 -0.03485
46.2 -0.03635
46.25 -0.03708
46.3 -0.03627
46.35 -0.03404
46.4 -0.03154
46.45 -0.02729
46.5 -0.02071
46.55 -0.01312
46.6 -0.01159
46.65 -0.0138
46.7 -0.01881
46.75 -0.02425
46.8 -0.02901
46.85 -0.02994
46.9 -0.02763
46.95 -0.02794
47 -0.03001
47.05 -0.02934
47.1 -0.02573
47.15 -0.02065
47.2 -0.01329
47.25 -0.00871
47.3 -0.00753
47.35 -0.00809
47.4 -0.00734
47.45 -0.00588
47.5 -0.00595
47.55 -0.00511
47.6 -0.00302
47.65 -0.00522
47.7 -0.00524
47.75 -0.00215
47.8 -0.00466
47.85 -0.00422
47.9 -0.00713
47.95 -0.01148
48 -0.01335
48.05 -0.01649
48.1 -0.02049
48.15 -0.02637
48.2 -0.02605
48.25 -0.02392
48.3 -0.02072
48.35 -0.01423
48.4 -0.00983
48.45 -0.00315
48.5 0.00264
48.55 0.00885
48.6 0.00698
48.65 0.00528
48.7 0.00333
48.75 0.00395
48.8 -0.00077
48.85 -0.00455
48.9 -0.00749
48.95 -0.0139
49 -0.01885
49.05 -0.02522
49.1 -0.02625
49.15 -0.02642
49.2 -0.02593
49.25 -0.02442
49.3 -0.02041
49.35 -0.01344
49.4 -0.01251
49.45 -0.01044
49.5 -0.00892
49.55 -0.00575
49.6 -0.0029
49.65 0.00214
49.7 0.00209
49.75 0.0033
49.8 0.00612
49.85 0.00279
49.9 0.00021
49.95 -0.0064
50 -0.01061
50.05 -0.01469
50.1 -0.02045
50.15 -0.02123
50.2 -0.02109
50.25 -0.01954
50.3 -0.01533
50.35 -0.01187
50.4 -0.00852
50.45 -0.00297
50.5 0.00223
50.55 0.00176
50.6 0.00359
50.65 0.00257
50.7 -0.00255
50.75 -0.01029
50.8 -0.01368
50.85 -0.01886
50.9 -0.02051
50.95 -0.01827
51 -0.01724
51.05 -0.01606
51.1 -0.01075
51.15 -0.00723
51.2 -0.00894
51.25 -0.01244
51.3 -0.01241
51.35 -0.00918
51.4 -0.00578
51.45 -0.00593
51.5 -0.00909
51.55 -0.00963
51.6 -0.00943
51.65 -0.00685
51.7 -0.00092
51.75 0.0057
51.8 0.00878
51.85 0.01067
51.9 0.01386
51.95 0.01082
52 0.00927
52.05 0.00828
52.1 0.01006
52.15 0.00765
52.2 0.0064
52.25 0.00534
52.3 0.00074
52.35 -0.00044
52.4 0.00215
52.45 0.0002
52.5 0.00213
52.55 -0.00001
52.6 0.00004
52.65 0.00229
52.7 -0.00099
52.75 -0.00098
52.8 -0.0026
52.85 -0.00681
52.9 -0.01301
52.95 -0.0136
53 -0.01069
53.05 -0.01055
53.1 -0.00801
53.15 -0.00541
53.2 -0.00267
53.25 0.00242
53.3 0.00712
53.35 0.00531
53.4 0.00497
53.45 0.00649
53.5 0.00262
53.55 0.00283
53.6 0.00164
53.65 -0.00204
53.7 -0.00721
53.75 -0.00883
53.8 -0.00646
53.85 -0.00642
53.9 -0.00881
53.95 -0.01198
54 -0.01137
54.05 -0.00986
54.1 -0.00785
54.15 -0.00884
54.2 -0.00538
54.25 -0.0027
54.3 0.0007
54.35 0.005
54.4 0.00545
54.45 0.00125
54.5 -0.00571
54.55 -0.01076
54.6 -0.01651
54.65 -0.01672
54.7 -0.01935
54.75 -0.0195
54.8 -0.02003
54.85 -0.02279
54.9 -0.02431
54.95 -0.01958
55 -0.01634
55.05 -0.01228
55.1 -0.01273
55.15 -0.01252
55.2 -0.01275
55.25 -0.01292
55.3 -0.0136
55.35 -0.01212
55.4 -0.01223
55.45 -0.01234
55.5 -0.01087
55.55 -0.01001
55.6 -0.01015
55.65 -0.0102
55.7 -0.00527
55.75 -0.00139
55.8 -0.00106
55.85 -0.00376
55.9 -0.00673
55.95 -0.01197
56 -0.01097
56.05 -0.00943
56.1 -0.00698
56.15 -0.00566
56.2 -0.00744
56.25 -0.00881
56.3 -0.01256
56.35 -0.01242
56.4 -0.00926
56.45 -0.01026
56.5 -0.00794
56.55 -0.00547
56.6 -0.00394
56.65 -0.00483
56.7 -0.00215
56.75 0.00276
56.8 0.00538
56.85 0.00445
56.9 0.00132
56.95 0.00086
57 0.00421
57.05 0.00956
57.1 0.01124
57.15 0.01292
57.2 0.00934
57.25 0.00934
57.3 0.00737
57.35 0.00444
57.4 -0.0003
57.45 -0.00206
57.5 -0.00422
57.55 -0.00451
57.6 -0.00138
57.65 -0.00226
57.7 -0.00632
57.75 -0.00946
57.8 -0.0117
57.85 -0.01567
57.9 -0.01867
57.95 -0.01687
58 -0.01146
58.05 -0.00987
58.1 -0.00742
58.15 -0.00803
58.2 -0.01041
58.25 -0.01469
58.3 -0.01871
58.35 -0.01888
58.4 -0.01913
58.45 -0.01721
58.5 -0.01116
58.55 -0.00759
58.6 -0.00822
58.65 -0.00722
58.7 -0.00508
58.75 0.00009
58.8 0.00661
58.85 0.00959
58.9 0.01179
58.95 0.01034
59 0.0123
59.05 0.01407
59.1 0.01032
59.15 0.00785
59.2 0.00616
59.25 0.00676
59.3 0.00888
59.35 0.00886
59.4 0.01139
59.45 0.00956
59.5 0.00828
59.55 0.00435
59.6 -0.00136
59.65 -0.00334
59.7 -0.00251
59.75 -0.00296
59.8 -0.00041
59.85 -0.00086
59.9 -0.0004
59.95 -0.00012
60 -0.00223
60.05 -0.00504
60.1 -0.00793
60.15 -0.01252
60.2 -0.01122
60.25 -0.00608
60.3 -0.00549
60.35 -0.00292
60.4 0.00132
60.45 0.00079
60.5 0.00353
60.55 0.00374
60.6 0.00181
60.65 0.00185
60.7 0.00339
60.75 0.00544
60.8 0.0095
60.85 0.00945
60.9 0.00919
60.95 0.00552
61 0.0048
61.05 0.00419
61.1 0.00669
61.15 0.00825
61.2 0.00646
61.25 0.00825
61.3 0.00803
61.35 0.00762
61.4 0.00678
61.45 0.00719
61.5 0.00592
61.55 0.00065
61.6 -0.00492
61.65 -0.00747
61.7 -0.00471
61.75 -0.00481
61.8 -0.00838
61.85 -0.01221
61.9 -0.01409
61.95 -0.01063
62 -0.00338
62.05 0.00046
62.1 -0.0008
62.15 0.00158
62.2 0.00328
62.25 0.00383
62.3 0.00468
62.35 0.00849
62.4 0.01069
62.45 0.01026
62.5 0.01219
62.55 0.0088
62.6 0.00194
62.65 -0.00144
62.7 -0.00444
62.75 -0.00883
62.8 -0.0129
62.85 -0.01437
62.9 -0.01374
62.95 -0.01464
63 -0.01298
63.05 -0.01385
63.1 -0.01447
63.15 -0.01148
63.2 -0.00684
63.25 -0.00277
63.3 -0.00191
63.35 0.00115
63.4 -0.00023
63.45 -0.00061
63.5 -0.00242
63.55 -0.00196
63.6 -0.00506
63.65 -0.0049
63.7 -0.00146
63.75 0.00376
63.8 0.00442
63.85 0.0014
63.9 -0.00435
63.95 -0.01083
64 -0.01295
64.05 -0.01609
64.1 -0.01366
64.15 -0.00732
64.2 0.00138
64.25 0.00673
64.3 0.01244
64.35 0.01144
64.4 0.0116
64.45 0.01401
64.5 0.01064
64.55 0.0044
64.6 -0.00326
64.65 -0.00664
64.7 -0.0114
64.75 -0.0172
64.8 -0.01961
64.85 -0.01625
64.9 -0.01295
64.95 -0.00997
65 -0.00863
65.05 -0.00514
65.1 -0.00158
65.15 0.0047
65.2 0.00611
65.25 0.00962
65.3 0.01261
65.35 0.01754
65.4 0.01623
65.45 0.01696
65.5 0.01686
65.55 0.01737
65.6 0.01299
65.65 0.01225
65.7 0.01368
65.75 0.01406
65.8 0.01162
65.85 0.00654
65.9 -0.00038
65.95 -0.00742
66 -0.01146
66.05 -0.01705
66.1 -0.01713
66.15 -0.0119
66.2 -0.00996
66.25 -0.0107
66.3 -0.01221
66.35 -0.01551
66.4 -0.01801
66.45 -0.02096
66.5 -0.01935
66.55 -0.01841
66.6 -0.01518
66.65 -0.00796
66.7 -0.00083
66.75 0.0039
66.8 0.00385
66.85 0.00203
66.9 -0.00123
66.95 0.00062
67 0.00436
67.05 0.00516
67.1 0.00653
67.15 0.0107
67.2 0.00957
67.25 0.00766
67.3 0.00266
67.35 -0.00446
67.4 -0.01227
67.45 -0.01779
67.5 -0.02183
67.55 -0.01983
67.6 -0.01846
67.65 -0.01587
67.7 -0.01376
67.75 -0.01311
67.8 -0.01057
67.85 -0.00731
67.9 -0.00463
67.95 -0.00512
68 -0.00522
68.05 -0.00181
68.1 -0.00094
68.15 -0.00363
68.2 -0.00105
68.25 0.00179
68.3 0.00755
68.35 0.01325
68.4 0.01947
68.45 0.0243
68.5 0.02244
68.55 0.02193
68.6 0.02372
68.65 0.02193
68.7 0.01652
68.75 0.00982
68.8 0.00167
68.85 -0.00223
68.9 -0.00269
68.95 -0.00105
69 -0.00243
69.05 0.00044
69.1 0.00034
69.15 -0.00231
69.2 -0.00704
69.25 -0.00797
69.3 -0.0054
69.35 -0.00501
69.4 -0.00559
69.45 -0.00385
69.5 0.00067
69.55 -0.00013
69.6 0.00016
69.65 -0.00155
69.7 -0.00334
69.75 -0.00499
69.8 -0.00335
69.85 -0.00572
69.9 -0.00809
69.95 -0.01007
70 -0.01363
70.05 -0.01748
70.1 -0.01722
70.15 -0.01402
70.2 -0.01094
70.25 -0.0078
70.3 -0.00117
70.35 0.00517
70.4 0.00681
70.45 0.01154
70.5 0.01609
70.55 0.02071
70.6 0.01849
70.65 0.01573
70.7 0.01537
70.75 0.01401
70.8 0.01619
70.85 0.01407
70.9 0.01186
70.95 0.01001
71 0.00854
71.05 0.00959
71.1 0.01147
71.15 0.01484
71.2 0.01884
71.25 0.02392
71.3 0.0268
71.35 0.02812
71.4 0.02914
71.45 0.03109
71.5 0.02886
71.55 0.02313
71.6 0.01568
71.65 0.01045
71.7 0.00956
71.75 0.01045
71.8 0.00856
71.85 0.00345
71.9 0.00001
71.95 -0.00489
72 -0.01018
72.05 -0.01341
72.1 -0.01108
72.15 -0.00921
72.2 -0.00632
72.25 -0.00339
72.3 -0.00096
72.35 -0.00341
72.4 -0.00726
72.45 -0.0054
72.5 -0.00356
72.55 -0.00392
72.6 -0.00768
72.65 -0.01097
72.7 -0.01241
72.75 -0.00832
72.8 -0.00628
72.85 -0.00579
72.9 -0.00357
72.95 0.00054
73 0.00056
73.05 0.00304
73.1 0.00634
73.15 0.00523
73.2 0.00613
73.25 0.00246
73.3 -0.00005
73.35 -0.00021
73.4 -0.00301
73.45 -0.00147
73.5 -0.00345
73.55 -0.00743
73.6 -0.01068
73.65 -0.00881
73.7 -0.00304
73.75 -0.0013
73.8 -0.00272
73.85 0.00053
73.9 0.00005
73.95 0.00069
74 0.00106
74.05 0.00316
74.1 0.00213
74.15 0.00022
74.2 -0.00251
74.25 -0.00311
74.3 -0.00132
74.35 -0.00174
74.4 -0.00097
74.45 -0.00234
74.5 -0.00089
74.55 -0.00135
74.6 -0.00045
74.65 0.00028
74.7 -0.00192
74.75 -0.007
74.8 -0.01099
74.85 -0.01132
74.9 -0.00824
74.95 -0.00536
75 -0.00156
75.05 0.00455
75.1 0.00556
75.15 0.00411
75.2 0.00422
75.25 0.00235
75.3 0.00413
75.35 0.00788
75.4 0.00719
75.45 0.01014
75.5 0.01101
75.55 0.00862
75.6 0.00761
75.65 0.00841
75.7 0.01023
75.75 0.0087
75.8 0.00874
75.85 0.00548
75.9 0.0052
75.95 0.00631
76 0.00663
76.05 0.00471
76.1 0.00676
76.15 0.01004
76.2 0.01455
76.25 0.01581
76.3 0.01661
76.35 0.0164
76.4 0.01617
76.45 0.01642
76.5 0.01836
76.55 0.02174
76.6 0.02147
76.65 0.0232
76.7 0.02211
76.75 0.02243
76.8 0.02026
76.85 0.01845
76.9 0.01897
76.95 0.01671
77 0.01383
77.05 0.00704
77.1 0.00211
77.15 -0.00497
77.2 -0.01155
77.25 -0.01897
77.3 -0.02391
77.35 -0.02498
77.4 -0.02028
77.45 -0.01844
77.5 -0.01824
77.55 -0.01383
77.6 -0.00987
77.65 -0.01042
77.7 -0.00848
77.75 -0.0047
77.8 0.00008
77.85 0.00495
77.9 0.00525
77.95 0.00853
78 0.01082
78.05 0.01514
78.1 0.01233
78.15 0.00557
78.2 -0.0016
78.25 -0.0085
78.3 -0.01232
78.35 -0.01013
78.4 -0.01085
78.45 -0.00766
78.5 -0.0074
78.55 -0.00763
78.6 -0.00455
78.65 0.0006
78.7 0.00446
78.75 0.00731
78.8 0.01122
78.85 0.01065
78.9 0.00753
78.95 0.00294
79 0.00185
79.05 0.00468
79.1 0.00166
79.15 -0.00363
79.2 -0.00338
79.25 -0.00223
79.3 0.00203
79.35 0.00833
79.4 0.01468
79.45 0.01792
79.5 0.01587
79.55 0.01119
79.6 0.00284
79.65 -0.0007
79.7 -0.00248
79.75 -0.00427
79.8 -0.00855
79.85 -0.00938
79.9 -0.00668
79.95 -0.00852
80 -0.01247
80.05 -0.013
80.1 -0.01345
80.15 -0.01304
80.2 -0.01509
80.25 -0.01201
80.3 -0.00734
80.35 -0.00818
80.4 -0.01074
80.45 -0.01011
80.5 -0.00529
80.55 -0.00586
80.6 -0.00972
80.65 -0.01568
80.7 -0.01927
80.75 -0.0167
80.8 -0.01398
80.85 -0.0117
80.9 -0.01024
80.95 -0.00944
81 -0.0107
81.05 -0.01392
81.1 -0.01287
81.15 -0.00709
81.2 -0.00379
81.25 0.00118
81.3 0.00028
81.35 0.00218
81.4 0.00046
81.45 0.0002
81.5 -0.00366
81.55 -0.00193
81.6 0.00309
81.65 0.00521
81.7 0.00535
81.75 0.00838
81.8 0.01193
81.85 0.01148
81.9 0.00608
81.95 0.00494
82 0.00631
82.05 0.00556
82.1 0.00696
82.15 0.0098
82.2 0.01306
82.25 0.01036
82.3 0.00772
82.35 0.00904
82.4 0.00745
82.45 0.00502
82.5 0.00034
82.55 -0.00082
82.6 -0.00335
82.65 -0.00684
82.7 -0.00958
82.75 -0.00774
82.8 -0.00684
82.85 -0.00202
82.9 0.00188
82.95 0.00488
83 0.00445
83.05 0.00287
83.1 0.00397
83.15 0.00795
83.2 0.00612
83.25 0.00563
83.3 0.00856
83.35 0.0055
83.4 0.00425
83.45 0.0005
83.5 0.00081
83.55 -0.00272
83.6 -0.00254
83.65 0.00029
83.7 -0.00133
83.75 -0.00236
83.8 -0.00075
83.85 0.00195
83.9 -0.00057
83.95 -0.00382
84 -0.00929
84.05 -0.01448
84.1 -0.01527
84.15 -0.01161
84.2 -0.00959
84.25 -0.01102
84.3 -0.01263
84.35 -0.01069
84.4 -0.01141
84.45 -0.01126
84.5 -0.00975
84.55 -0.01194
84.6 -0.01414
84.65 -0.01327
84.7 -0.00761
84.75 -0.00707
84.8 -0.00667
84.85 -0.00943
84.9 -0.00754
84.95 -0.00986
85 -0.01045
85.05 -0.00828
85.1 -0.00485
85.15 -0.00477
85.2 -0.00093
85.25 0.00257
85.3 0.00683
85.35 0.00837
85.4 0.00622
85.45 0.00708
85.5 0.0034
85.55 -0.00155
85.6 -0.00675
85.65 -0.00701
85.7 -0.00682
85.75 -0.00985
85.8 -0.014
85.85 -0.01774
85.9 -0.01946
85.95 -0.02024
86 -0.0154
86.05 -0.0127
86.1 -0.00921
86.15 -0.00841
86.2 -0.00912
86.25 -0.01067
86.3 -0.01139
86.35 -0.00876
86.4 -0.00648
86.45 -0.00337
86.5 -0.00018
86.55 0.0054
86.6 0.00931
86.65 0.01385
86.7 0.01677
86.75 0.01792
86.8 0.02021
86.85 0.0197
86.9 0.01439
86.95 0.00662
87 0.00269
87.05 0.00067
87.1 -0.00261
87.15 -0.00615
87.2 -0.00578
87.25 -0.00725
87.3 -0.00492
87.35 -0.00148
87.4 -0.00222
87.45 -0.00242
87.5 -0.00091
87.55 -0.00265
87.6 0.00054
87.65 0.00424
87.7 0.00429
87.75 0.00539
87.8 0.00223
87.85 -0.00231
87.9 -0.00511
87.95 -0.0049
88 -0.00558
88.05 -0.00132
88.1 0.00171
88.15 0.00682
88.2 0.0103
88.25 0.00751
88.3 0.00817
88.35 0.00554
88.4 0.00649
88.45 0.00604
88.5 0.00317
88.55 0.00067
88.6 -0.00194
88.65 -0.00254
88.7 -0.00414
88.75 -0.00815
88.8 -0.00651
88.85 -0.00224
88.9 -0.00246
88.95 -0.00562
89 -0.00898
89.05 -0.01401
89.1 -0.01892
89.15 -0.01662
89.2 -0.01017
89.25 -0.00749
89.3 -0.00764
89.35 -0.00302
89.4 -0.00058
89.45 -0.00153
89.5 -0.00311
89.55 -0.00788
89.6 -0.00977
89.65 -0.01063
89.7 -0.00687
89.75 -0.00104
89.8 0.00585
89.85 0.01088
89.9 0.01557
89.95 0.01902
90 0.01971
90.05 0.01888
90.1 0.0188
90.15 0.01317
90.2 0.00945
90.25 0.00559
90.3 0.00397
90.35 0.0057
90.4 0.00654
90.45 0.00548
90.5 0.00732
90.55 0.01083
90.6 0.01313
90.65 0.0133
90.7 0.0145
90.75 0.01101
90.8 0.0039
90.85 0.00076
90.9 0.00243
90.95 0.00576
91 0.00784
91.05 0.00953
91.1 0.00663
91.15 0.00445
91.2 0.00251
91.25 0.00058
91.3 -0.00213
91.35 0.00005
91.4 0.00264
91.45 0.00686
91.5 0.00987
91.55 0.00915
91.6 0.00927
91.65 0.00715
91.7 0.00162
91.75 -0.00124
91.8 -0.00378
91.85 -0.00935
91.9 -0.01457
91.95 -0.01705
92 -0.01982
92.05 -0.01761
92.1 -0.01454
92.15 -0.00764
92.2 -0.00367
92.25 -0.00238
92.3 -0.00032
92.35 0.00287
92.4 0.00862
92.45 0.01388
92.5 0.01668
92.55 0.01367
92.6 0.0072
92.65 -0.00069
92.7 -0.00581
92.75 -0.00856
92.8 -0.00829
92.85 -0.00941
92.9 -0.00831
92.95 -0.01088
93 -0.00772
93.05 -0.00269
93.1 0.00031
93.15 0.00188
93.2 -0.00109
93.25 -0.00585
93.3 -0.00436
93.35 -0.0059
93.4 -0.00508
93.45 -0.00114
93.5 0.00401
93.55 0.00835
93.6 0.00653
93.65 0.00778
93.7 0.00464
93.75 0.00334
93.8 -0.00012
93.85 0.00011
93.9 -0.00021
93.95 -0.00244
94 -0.00153
94.05 -0.00158
94.1 -0.00428
94.15 -0.00556
94.2 -0.00829
94.25 -0.0067
94.3 -0.006
94.35 -0.00624
94.4 -0.00371
94.45 -0.00543
94.5 -0.00565
94.55 -0.00549
94.6 -0.00668
94.65 -0.00459
94.7 -0.006
94.75 -0.00672
94.8 -0.00665
94.85 -0.00952
94.9 -0.01119
94.95 -0.00929
95 -0.01037
95.05 -0.01409
95.1 -0.0162
95.15 -0.01505
95.2 -0.01315
95.25 -0.01192
95.3 -0.00975
95.35 -0.01005
95.4 -0.00685
95.45 -0.00194
95.5 0.00012
95.55 -0.00097
95.6 0.00155
95.65 0.00578
95.7 0.01034
95.75 0.00934
95.8 0.00959
95.85 0.00701
95.9 0.00259
95.95 0.00272
96 0.00038
96.05 0.00109
96.1 -0.00149
96.15 0.00114
96.2 0.00553
96.25 0.01192
96.3 0.01671
96.35 0.01659
96.4 0.01894
96.45 0.02052
96.5 0.01776
96.55 0.01789
96.6 0.01281
96.65 0.00885
96.7 0.00751
96.75 0.0065
96.8 0.00436
96.85 0.00106
96.9 -0.00098
96.95 -0.00558
97 -0.00861
97.05 -0.00638
97.1 -0.00275
97.15 -0.00127
97.2 0.00117
97.25 0.00293
97.3 0.00362
97.35 0.00266
97.4 0.00498
97.45 0.00513
97.5 0.00853
97.55 0.00977
97.6 0.01359
97.65 0.01811
97.7 0.01602
97.75 0.01087
97.8 0.00977
97.85 0.00621
97.9 -0.00051
97.95 -0.00183
98 -0.00276
98.05 -0.0016
98.1 -0.00516
98.15 -0.00859
98.2 -0.00711
98.25 -0.00868
98.3 -0.00918
98.35 -0.00585
98.4 -0.00322
98.45 -0.00004
98.5 0.00388
98.55 0.0061
98.6 0.00567
98.65 0.00352
98.7 0.00263
98.75 0.00543
98.8 0.00469
98.85 0.00754
98.9 0.01235
98.95 0.01302
99 0.0098
99.05 0.01067
99.1 0.01295
99.15 0.00931
99.2 0.00551
99.25 0.0062
99.3 0.0067
99.35 0.0097
99.4 0.01105
99.45 0.00948
99.5 0.00923
99.55 0.00819
99.6 0.00753
99.65 0.01017
99.7 0.0129
99.75 0.01395
99.8 0.00947
99.85 0.00246
99.9 -0.00516
99.95 -0.01221
