0 0
0.05 0.0053
0.1 0.01103
0.15 0.01946
0.2 0.02912
0.25 0.0348
0.3 0.03919
0.35 0.04161
0.4 0.04654
0.45 0.05252
0.5 0.05613
0.55 0.0571
0.6 0.05306
0.65 0.05057
0.7 0.04463
0.75 0.04291
0.8 0.04441
0.85 0.04773
0.9 0.05013
0.95 0.05048
1 0.05308
1.05 0.05611
1.1 0.05515
1.15 0.05307
1.2 0.05121
1.25 0.05186
1.3 0.05213
1.35 0.04706
1.4 0.04077
1.45 0.03872
1.5 0.03366
1.55 0.03068
1.6 0.03116
1.65 0.03134
1.7 0.03199
1.75 0.03486
1.8 0.03764
1.85 0.04027
1.9 0.03881
1.95 0.03615
2 0.03465
2.05 0.02964
2.1 0.02827
2.15 0.02391
2.2 0.02276
2.25 0.02606
2.3 0.02731
2.35 0.02879
2.4 0.02525
2.45 0.02227
2.5 0.01981
2.55 0.01992
2.6 0.01855
2.65 0.02207
2.7 0.02315
2.75 0.02214
2.8 0.02194
2.85 0.02307
2.9 0.0255
2.95 0.02507
3 0.0229
3.05 0.02404
3.1 0.02117
3.15 0.01857
3.2 0.01954
3.25 0.01641
3.3 0.0123
3.35 0.00892
3.4 0.0085
3.45 0.00831
3.5 0.01223
3.55 0.0172
3.6 0.02236
3.65 0.02922
3.7 0.03381
3.75 0.03237
3.8 0.0317
3.85 0.03132
3.9 0.03021
3.95 0.03112
4 0.03289
4.05 0.03588
4.1 0.03258
4.15 0.03207
4.2 0.03316
4.25 0.02924
4.3 0.0232
4.35 0.02091
4.4 0.02118
4.45 0.02122
4.5 0.01521
4.55 0.01052
4.6 0.00853
4.65 0.0072
4.7 0.00308
4.75 -0.00447
4.8 -0.01455
4.85 -0.0231
4.9 -0.0318
4.95 -0.03727
5 -0.04739
5.05 -0.0605
5.1 -0.07354
5.15 -0.0882
5.2 -0.10466
5.25 -0.11788
5.3 -0.12966
5.35 -0.13838
5.4 -0.14861
5.45 -0.15681
5.5 -0.16985
5.55 -0.18326
5.6 -0.19909
5.65 -0.21432
5.7 -0.2246
5.75 -0.23252
5.8 -0.23812
5.85 -0.23674
5.9 -0.2343
5.95 -0.22461
6 -0.21645
6.05 -0.20187
6.1 -0.18833
6.15 -0.17083
6.2 -0.15207
6.25 -0.13509
6.3 -0.11123
6.35 -0.08775
6.4 -0.06214
6.45 -0.0337
6.5 -0.0041
6.55 0.02387
6.6 0.05121
6.65 0.07797
6.7 0.09919
6.75 0.1169
6.8 0.13389
6.85 0.1494
6.9 0.16039
6.95 0.17176
7 0.18342
7.05 0.19292
7.1 0.19568
7.15 0.19701
7.2 0.19866
7.25 0.20309
7.3 0.20129
7.35 0.19659
7.4 0.19159
7.45 0.1865
7.5 0.18758
7.55 0.18864
7.6 0.18807
7.65 0.1917
7.7 0.19775
7.75 0.20125
7.8 0.202
7.85 0.20284
7.9 0.20169
7.95 0.19994
8 0.19464
8.05 0.18798
8.1 0.18297
8.15 0.17388
8.2 0.16856
8.25 0.16507
8.3 0.16101
8.35 0.15994
8.4 0.15423
8.45 0.14778
8.5 0.14139
8.55 0.13702
8.6 0.1258
8.65 0.11099
8.7 0.0981
8.75 0.08268
8.8 0.06608
8.85 0.05276
8.9 0.04105
8.95 0.03288
9 0.02432
9.05 0.01408
9.1 0.00871
9.15 0.0036
9.2 -0.00156
9.25 -0.0065
9.3 -0.01555
9.35 -0.02278
9.4 -0.02802
9.45 -0.03339
9.5 -0.03879
9.55 -0.04151
9.6 -0.04536
9.65 -0.04622
9.7 -0.04661
9.75 -0.04961
9.8 -0.0556
9.85 -0.06129
9.9 -0.06596
9.95 -0.06532
10 -0.06253
10.05 -0.06331
10.1 -0.06547
10.15 -0.06826
10.2 -0.06413
10.25 -0.05633
10.3 -0.0494
10.35 -0.03983
10.4 -0.03117
10.45 -0.0247
10.5 -0.0242
10.55 -0.02319
10.6 -0.02415
10.65 -0.02852
10.7 -0.02776
10.75 -0.02545
10.8 -0.02774
10.85 -0.02461
10.9 -0.02128
10.95 -0.01778
11 -0.01668
11.05 -0.01267
11.1 -0.01196
11.15 -0.00768
11.2 -0.00857
11.25 -0.00867
11.3 -0.00574
11.35 -0.00513
11.4 -0.00931
11.45 -0.01384
11.5 -0.01971
11.55 -0.02435
11.6 -0.02906
11.65 -0.03219
11.7 -0.03454
11.75 -0.03263
11.8 -0.02732
11.85 -0.02106
11.9 -0.01609
11.95 -0.0122
12 -0.0075
12.05 -0.0032
12.1 0.00103
12.15 0.00305
12.2 0.00021
12.25 -0.0053
12.3 -0.00959
12.35 -0.00993
12.4 -0.009
12.45 -0.00705
12.5 -0.00546
12.55 -0.00153
12.6 -0.00151
12.65 -0.00065
12.7 -0.0016
12.75 -0.00344
12.8 -0.00129
12.85 -0.00055
12.9 0.00042
12.95 -0.00222
13 -0.00643
13.05 -0.005
13.1 -0.00621
13.15 -0.00869
13.2 -0.01106
13.25 -0.00964
13.3 -0.00431
13.35 -0.00123
13.4 0.00435
13.45 0.01052
13.5 0.01562
13.55 0.01562
13.6 0.01498
13.65 0.00911
13.7 0.00407
13.75 -0.00021
13.8 0.00003
13.85 0.003
13.9 0.00494
13.95 0.00361
14 0.00264
14.05 0.00377
14.1 0.00641
14.15 0.01053
14.2 0.01012
14.25 0.00662
14.3 0.00177
14.35 -0.00357
14.4 -0.00318
14.45 -0.00039
14.5 0.003
14.55 0.00606
14.6 0.01039
14.65 0.01008
14.7 0.01012
14.75 0.00586
14.8 0.00579
14.85 0.00771
14.9 0.00478
14.95 -0.00173
15 -0.00936
15.05 -0.01606
15.1 -0.02031
15.15 -0.0204
15.2 -0.02233
15.25 -0.01826
15.3 -0.01575
15.35 -0.01577
15.4 -0.01455
15.45 -0.01249
15.5 -0.01408
15.55 -0.01196
15.6 -0.00833
15.65 -0.00377
15.7 0.00019
15.75 0.00623
15.8 0.01111
15.85 0.01524
15.9 0.019
15.95 0.02179
16 0.01738
16.05 0.01187
16.1 0.01053
16.15 0.00807
16.2 0.00197
16.25 -0.00126
16.3 -0.00702
16.35 -0.01266
16.4 -0.01593
16.45 -0.01331
16.5 -0.01184
16.55 -0.01454
16.6 -0.01679
16.65 -0.01568
16.7 -0.01042
16.75 -0.00849
16.8 -0.00312
16.85 -0.00347
16.9 -0.00716
16.95 -0.01154
17 -0.0168
17.05 -0.01525
17.1 -0.01296
17.15 -0.01332
17.2 -0.01326
17.25 -0.01156
17.3 -0.00718
17.35 -0.00279
17.4 0.00274
17.45 0.00277
17.5 -0.00007
17.55 -0.00624
17.6 -0.00673
17.65 -0.00501
17.7 -0.00695
17.75 -0.01096
17.8 -0.00904
17.85 -0.01123
17.9 -0.00949
17.95 -0.0117
18 -0.0127
18.05 -0.00894
18.1 -0.00845
18.15 -0.00672
18.2 -0.00363
18.25 0.0003
18.3 0.00554
18.35 0.00812
18.4 0.00492
18.45 0.00559
18.5 0.00682
18.55 0.00537
18.6 0.0073
18.65 0.00767
18.7 0.00404
18.75 -0.00221
18.8 -0.00572
18.85 -0.0089
18.9 -0.00958
18.95 -0.00997
19 -0.01201
19.05 -0.01397
19.1 -0.01594
19.15 -0.01977
19.2 -0.02469
19.25 -0.02335
19.3 -0.01856
19.35 -0.01341
19.4 -0.01284
19.45 -0.00811
19.5 -0.00227
19.55 0.00287
19.6 0.0047
19.65 0.00642
19.7 0.00549
19.75 0.00723
19.8 0.00453
19.85 0.00631
19.9 0.00307
19.95 0.00118
20 -0.00364
20.05 -0.01022
20.1 -0.00958
20.15 -0.00989
20.2 -0.01047
20.25 -0.00909
20.3 -0.00791
20.35 -0.00513
20.4 0.00011
20.45 -0.00085
20.5 -0.00009
20.55 -0.00281
20.6 -0.00655
20.65 -0.01023
20.7 -0.0117
20.75 -0.00934
20.8 -0.01096
20.85 -0.01231
20.9 -0.0087
20.95 -0.00716
21 -0.00653
21.05 -0.00147
21.1 0.00061
21.15 0.00321
21.2 0.00112
21.25 0.00236
21.3 0.00195
21.35 0.0019
21.4 0.00242
21.45 0.00567
21.5 0.00858
21.55 0.00763
21.6 0.0048
21.65 -0.00078
21.7 -0.00238
21.75 -0.00651
21.8 -0.00762
21.85 -0.0102
21.9 -0.01149
21.95 -0.01472
22 -0.01782
22.05 -0.02205
22.1 -0.02477
22.15 -0.02265
22.2 -0.0179
22.25 -0.01387
22.3 -0.01165
22.35 -0.01298
22.4 -0.01073
22.45 -0.00442
22.5 0.00408
22.55 0.00629
22.6 0.00428
22.65 0.00361
22.7 0.00562
22.75 0.00285
22.8 0.00163
22.85 -0.00169
22.9 -0.002
22.95 0.00103
23 0.00005
23.05 0.00122
23.1 0.00547
23.15 0.00952
23.2 0.00941
23.25 0.00678
23.3 0.00584
23.35 0.00745
23.4 0.00398
23.45 0.00206
23.5 0.0038
23.55 0.00296
23.6 0.00562
23.65 0.00477
23.7 0.00665
23.75 0.00581
23.8 0.00576
23.85 0.00285
23.9 0.00373
23.95 0.00171
24 0.00211
24.05 0.0027
24.1 0.00161
24.15 0.00432
24.2 0.002
24.25 0.00456
24.3 0.0037
24.35 0.00385
24.4 0.00547
24.45 0.0087
24.5 0.00877
24.55 0.0106
24.6 0.01296
24.65 0.01595
24.7 0.01665
24.75 0.0148
24.8 0.00944
24.85 0.00718
24.9 0.00807
24.95 0.006
25 0.00084
25.05 -0.00394
25.1 -0.00433
25.15 -0.00238
25.2 0.00295
25.25 0.0064
25.3 0.00831
25.35 0.01031
25.4 0.01245
25.45 0.0086
25.5 0.00781
25.55 0.00963
25.6 0.00902
25.65 0.00674
25.7 0.00521
25.75 0.00539
25.8 0.00864
25.85 0.00636
25.9 0.00788
25.95 0.00631
26 0.00497
26.05 0.00431
26.1 0.00533
26.15 0.00414
26.2 0.00608
26.25 0.00373
26.3 -0.00087
26.35 -0.00248
26.4 -0.00497
26.45 -0.01073
26.5 -0.01291
26.55 -0.00959
26.6 -0.00586
26.65 -0.00766
26.7 -0.00854
26.75 -0.0078
26.8 -0.00896
26.85 -0.01028
26.9 -0.01043
26.95 -0.0092
27 -0.00659
27.05 -0.00584
27.1 -0.00463
27.15 -0.00247
27.2 -0.0055
27.25 -0.00408
27.3 -0.00306
27.35 -0.00541
27.4 -0.00892
27.45 -0.01206
27.5 -0.0136
27.55 -0.01867
27.6 -0.02194
27.65 -0.02741
27.7 -0.02892
27.75 -0.03175
27.8 -0.03476
27.85 -0.04435
27.9 -0.05643
27.95 -0.07248
28 -0.08512
28.05 -0.10017
28.1 -0.12154
28.15 -0.14289
28.2 -0.16364
28.25 -0.19206
28.3 -0.22479
28.35 -0.26373
28.4 -0.30809
28.45 -0.35939
28.5 -0.40958
28.55 -0.46281
28.6 -0.51946
28.65 -0.58552
28.7 -0.6551
28.75 -0.72828
28.8 -0.80384
28.85 -0.88921
28.9 -0.98153
28.95 -1.07706
29 -1.17299
29.05 -1.2706
29.1 -1.36939
29.15 -1.47034
29.2 -1.56717
29.25 -1.66218
29.3 -1.75197
29.35 -1.83456
29.4 -1.91421
29.45 -1.9909
29.5 -2.06298
29.55 -2.12391
29.6 -2.17197
29.65 -2.20898
29.7 -2.23433
29.75 -2.25361
29.8 -2.2598
29.85 -2.25144
29.9 -2.22992
29.95 -2.19583
30 -2.15249
30.05 -2.09845
30.1 -2.03565
30.15 -1.96138
30.2 -1.87268
30.25 -1.77542
30.3 -1.67109
30.35 -1.554
30.4 -1.42396
30.45 -1.28412
30.5 -1.13837
30.55 -0.99578
30.6 -0.85446
30.65 -0.70852
30.7 -0.56066
30.75 -0.40914
30.8 -0.25813
30.85 -0.10549
30.9 0.04377
30.95 0.18544
31 0.32642
31.05 0.46687
31.1 0.60329
31.15 0.72994
31.2 0.84627
31.25 0.96199
31.3 1.07107
31.35 1.17673
31.4 1.27236
31.45 1.36176
31.5 1.44196
31.55 1.5158
31.6 1.58111
31.65 1.63489
31.7 1.68174
31.75 1.72364
31.8 1.75957
31.85 1.79332
31.9 1.82422
31.95 1.84635
32 1.86123
32.05 1.87494
32.1 1.88317
32.15 1.88928
32.2 1.89496
32.25 1.89827
32.3 1.89897
32.35 1.90284
32.4 1.8998
32.45 1.8917
32.5 1.88688
32.55 1.88165
32.6 1.87297
32.65 1.86129
32.7 1.85014
32.75 1.83591
32.8 1.82152
32.85 1.8009
32.9 1.78033
32.95 1.75346
33 1.72385
33.05 1.69522
33.1 1.66912
33.15 1.6438
33.2 1.61859
33.25 1.58771
33.3 1.55425
33.35 1.51844
33.4 1.47967
33.45 1.43918
33.5 1.3939
33.55 1.3514
33.6 1.30694
33.65 1.26289
33.7 1.21641
33.75 1.17512
33.8 1.13042
33.85 1.08369
33.9 1.03887
33.95 0.99641
34 0.95019
34.05 0.90448
34.1 0.85737
34.15 0.81564
34.2 0.77036
34.25 0.72305
34.3 0.67642
34.35 0.63141
34.4 0.59165
34.45 0.55235
34.5 0.51592
34.55 0.47601
34.6 0.43935
34.65 0.40625
34.7 0.36875
34.75 0.33528
34.8 0.29847
34.85 0.26743
34.9 0.23604
34.95 0.20635
35 0.17859
35.05 0.14644
35.1 0.11778
35.15 0.08617
35.2 0.05336
35.25 0.02721
35.3 -0.00024
35.35 -0.02325
35.4 -0.04506
35.45 -0.0649
35.5 -0.08674
35.55 -0.10829
35.6 -0.12687
35.65 -0.14013
35.7 -0.15523
35.75 -0.17068
35.8 -0.18256
35.85 -0.19016
35.9 -0.2008
35.95 -0.21176
36 -0.22196
36.05 -0.23072
36.1 -0.24215
36.15 -0.24936
36.2 -0.25729
36.25 -0.26165
36.3 -0.26662
36.35 -0.27552
36.4 -0.28695
36.45 -0.2959
36.5 -0.30188
36.55 -0.30652
36.6 -0.30743
36.65 -0.31307
36.7 -0.32067
36.75 -0.32307
36.8 -0.32688
36.85 -0.33124
36.9 -0.33484
36.95 -0.33776
37 -0.3416
37.05 -0.3442
37.1 -0.34399
37.15 -0.33846
37.2 -0.33396
37.25 -0.3293
37.3 -0.32426
37.35 -0.32366
37.4 -0.31987
37.45 -0.31761
37.5 -0.31234
37.55 -0.30425
37.6 -0.29989
37.65 -0.29859
37.7 -0.29358
37.75 -0.29343
37.8 -0.29194
37.85 -0.29164
37.9 -0.29421
37.95 -0.29545
38 -0.29603
38.05 -0.29118
38.1 -0.28655
38.15 -0.27817
38.2 -0.2717
38.25 -0.26192
38.3 -0.25625
38.35 -0.25223
38.4 -0.25158
38.45 -0.2463
38.5 -0.2407
38.55 -0.23334
38.6 -0.23117
38.65 -0.22832
38.7 -0.22311
38.75 -0.2213
38.8 -0.22169
38.85 -0.2237
38.9 -0.22195
38.95 -0.22001
39 -0.21697
39.05 -0.21724
39.1 -0.21529
39.15 -0.20824
39.2 -0.19896
39.25 -0.19599
39.3 -0.1917
39.35 -0.18733
39.4 -0.18783
39.45 -0.18626
39.5 -0.18356
39.55 -0.18094
39.6 -0.17743
39.65 -0.17235
39.7 -0.16659
39.75 -0.16026
39.8 -0.15655
39.85 -0.15387
39.9 -0.15512
39.95 -0.15726
40 -0.15577
40.05 -0.15259
40.1 -0.14807
40.15 -0.14215
40.2 -0.14037
40.25 -0.13583
40.3 -0.1324
40.35 -0.13163
40.4 -0.13234
40.45 -0.13407
40.5 -0.13133
40.55 -0.13027
40.6 -0.12685
40.65 -0.12432
40.7 -0.12427
40.75 -0.12814
40.8 -0.12767
40.85 -0.12876
40.9 -0.12474
40.95 -0.11819
41 -0.1124
41.05 -0.10968
41.1 -0.10896
41.15 -0.11135
41.2 -0.11536
41.25 -0.11368
41.3 -0.11199
41.35 -0.10872
41.4 -0.10866
41.45 -0.10441
41.5 -0.09933
41.55 -0.09363
41.6 -0.088
41.65 -0.08887
41.7 -0.09041
41.75 -0.08928
41.8 -0.0858
41.85 -0.08174
41.9 -0.07634
41.95 -0.07655
42 -0.07867
42.05 -0.07652
42.1 -0.07301
42.15 -0.07058
42.2 -0.07033
42.25 -0.07263
42.3 -0.07405
42.35 -0.07791
42.4 -0.07751
42.45 -0.08024
42.5 -0.08167
42.55 -0.07894
42.6 -0.07882
42.65 -0.07635
42.7 -0.07299
42.75 -0.06852
42.8 -0.06896
42.85 -0.07076
42.9 -0.0682
42.95 -0.06851
43 -0.06578
43.05 -0.06597
43.1 -0.0636
43.15 -0.06167
43.2 -0.06222
43.25 -0.05938
43.3 -0.05645
43.35 -0.05747
43.4 -0.06053
43.45 -0.06171
43.5 -0.06035
43.55 -0.0617
43.6 -0.06563
43.65 -0.07093
43.7 -0.07127
43.75 -0.07072
43.8 -0.06831
43.85 -0.0633
43.9 -0.05524
43.95 -0.04876
44 -0.04248
44.05 -0.03972
44.1 -0.04168
44.15 -0.0419
44.2 -0.03915
44.25 -0.03812
44.3 -0.03891
44.35 -0.03994
44.4 -0.04167
44.45 -0.04373
44.5 -0.04616
44.55 -0.04381
44.6 -0.03929
44.65 -0.03335
44.7 -0.02709
44.75 -0.02312
44.8 -0.0187
44.85 -0.02004
44.9 -0.0228
44.95 -0.02358
45 -0.02664
45.05 -0.0319
45.1 -0.03157
45.15 -0.02802
45.2 -0.02289
45.25 -0.02299
45.3 -0.02229
45.35 -0.02245
45.4 -0.02016
45.45 -0.02209
45.5 -0.02301
45.55 -0.02399
45.6 -0.02657
45.65 -0.02895
45.7 -0.03264
45.75 -0.03667
45.8 -0.03694
45.85 -0.03615
45.9 -0.03824
45.95 -0.03801
46 -0.03767
46.05 -0.03934
46.1 -0.04115
46.15 -0.04389
46.2 -0.04488
46.25 -0.04733
46.3 -0.04818
46.35 -0.04995
46.4 -0.04974
46.45 -0.04886
46.5 -0.04734
46.55 -0.04362
46.6 -0.04106
46.65 -0.03325
46.7 -0.03019
46.75 -0.02578
46.8 -0.02559
46.85 -0.02416
46.9 -0.02107
46.95 -0.0182
47 -0.0187
47.05 -0.0212
47.1 -0.02379
47.15 -0.02675
47.2 -0.02827
47.25 -0.03064
47.3 -0.02766
47.35 -0.02378
47.4 -0.0198
47.45 -0.01707
47.5 -0.01837
47.55 -0.01728
47.6 -0.0189
47.65 -0.01661
47.7 -0.01431
47.75 -0.01176
47.8 -0.01311
47.85 -0.01103
47.9 -0.00621
47.95 -0.00347
48 -0.00258
48.05 0.0008
48.1 0.00435
48.15 0.00778
48.2 0.00839
48.25 0.01053
48.3 0.01246
48.35 0.0116
48.4 0.00878
48.45 0.00726
48.5 0.00763
48.55 0.00256
48.6 -0.00261
48.65 -0.00259
48.7 0.00104
48.75 0.0031
48.8 0.00402
48.85 0.00586
48.9 0.00608
48.95 0.0052
49 0.0032
49.05 -0.00234
49.1 -0.00682
49.15 -0.01165
49.2 -0.01529
49.25 -0.01927
49.3 -0.01895
49.35 -0.01565
49.4 -0.00974
49.45 -0.00961
49.5 -0.00539
49.55 -0.00679
49.6 -0.01164
49.65 -0.01289
49.7 -0.00956
49.75 -0.00716
49.8 -0.0032
49.85 0.00148
49.9 0.00397
49.95 0.00427
50 -0.00009
50.05 -0.00611
50.1 -0.00696
50.15 -0.00826
50.2 -0.01244
50.25 -0.0109
50.3 -0.0109
50.35 -0.01363
50.4 -0.01413
50.45 -0.01018
50.5 -0.01067
50.55 -0.00913
50.6 -0.00761
50.65 -0.00219
50.7 0.00472
50.75 0.00405
50.8 0.00081
50.85 -0.00408
50.9 -0.01129
50.95 -0.01436
51 -0.01975
51.05 -0.0188
51.1 -0.01426
51.15 -0.01013
51.2 -0.00908
51.25 -0.01099
51.3 -0.00871
51.35 -0.00313
51.4 -0.00358
51.45 -0.00424
51.5 -0.00546
51.55 -0.00765
51.6 -0.00643
51.65 -0.00115
51.7 0.00097
51.75 0.00399
51.8 0.00523
51.85 0.00331
51.9 -0.001
51.95 -0.00297
52 -0.00295
52.05 -0.0057
52.1 -0.01071
52.15 -0.01036
52.2 -0.00527
52.25 -0.00364
52.3 -0.00163
52.35 -0.00176
52.4 0.00185
52.45 0.00376
52.5 0.0011
52.55 0.00289
52.6 0.00594
52.65 0.0061
52.7 0.00598
52.75 0.00301
52.8 0.0002
52.85 -0.00072
52.9 -0.00093
52.95 -0.00044
53 0.00223
53.05 0.00127
53.1 -0.00344
53.15 -0.01022
53.2 -0.01648
53.25 -0.01931
53.3 -0.01998
53.35 -0.01468
53.4 -0.01125
53.45 -0.00826
53.5 -0.00732
53.55 -0.00738
53.6 -0.00814
53.65 -0.00639
53.7 -0.00276
53.75 -0.00277
53.8 -0.00063
53.85 0.00142
53.9 0.00645
53.95 0.00732
54 0.0098
54.05 0.00867
54.1 0.00638
54.15 0.00222
54.2 -0.00416
54.25 -0.0097
54.3 -0.01164
54.35 -0.0157
54.4 -0.01637
54.45 -0.01496
54.5 -0.01003
54.55 -0.00972
54.6 -0.0098
54.65 -0.0098
54.7 -0.00749
54.75 -0.00924
54.8 -0.00769
54.85 -0.00625
54.9 -0.00445
54.95 -0.00304
55 -0.002
55.05 -0.00004
55.1 0.0006
55.15 -0.0011
55.2 -0.00236
55.25 -0.0065
55.3 -0.011
55.35 -0.01271
55.4 -0.01014
55.45 -0.00611
55.5 -0.00469
55.55 0.00073
55.6 0.00551
55.65 0.00432
55.7 0.00439
55.75 0.00675
55.8 0.00681
55.85 0.00603
55.9 0.00309
55.95 -0.00263
56 -0.00351
56.05 -0.0078
56.1 -0.0073
56.15 -0.00317
56.2 -0.00426
56.25 -0.0041
56.3 -0.00109
56.35 -0.00038
56.4 -0.00239
56.45 -0.00321
56.5 -0.00357
56.55 -0.00356
56.6 0.001
56.65 0.00231
56.7 0.00232
56.75 0.00413
56.8 0.0024
56.85 0.00188
56.9 0.00494
56.95 0.00667
57 0.00545
57.05 0.00514
57.1 0.00221
57.15 -0.00039
57.2 -0.00442
57.25 -0.00746
57.3 -0.00957
57.35 -0.00682
57.4 -0.0017
57.45 0.00387
57.5 0.00867
57.55 0.0082
57.6 0.00514
57.65 0.00301
57.7 -0.00228
57.75 -0.00583
57.8 -0.00762
57.85 -0.01027
57.9 -0.01056
57.95 -0.0133
58 -0.01656
58.05 -0.01627
58.1 -0.0108
58.15 -0.00899
58.2 -0.00793
58.25 -0.00708
58.3 -0.00217
58.35 -0.00181
58.4 0.00033
58.45 0.0018
58.5 0.00042
58.55 0.00188
58.6 0.0029
58.65 0.00763
58.7 0.01038
58.75 0.01466
58.8 0.02
58.85 0.02055
58.9 0.01777
58.95 0.01348
59 0.0115
59.05 0.00672
59.1 0.00671
59.15 0.00246
59.2 -0.00257
59.25 -0.00935
59.3 -0.01682
59.35 -0.01864
59.4 -0.01626
59.45 -0.01732
59.5 -0.01938
59.55 -0.01987
59.6 -0.0201
59.65 -0.01479
59.7 -0.01398
59.75 -0.00886
59.8 -0.00461
59.85 0.00092
59.9 0.00081
59.95 -0.00037
60 0.00095
60.05 0.00462
60.1 0.0063
60.15 0.00747
60.2 0.0063
60.25 0.00604
60.3 0.00335
60.35 -0.00206
60.4 -0.00889
60.45 -0.00936
60.5 -0.01129
60.55 -0.01072
60.6 -0.01142
60.65 -0.01169
60.7 -0.01163
60.75 -0.01045
60.8 -0.00827
60.85 -0.00718
60.9 -0.00644
60.95 -0.00618
61 -0.00178
61.05 0.00238
61.1 0.00545
61.15 0.0055
61.2 0.00902
61.25 0.00681
61.3 0.00168
61.35 -0.00239
61.4 -0.00151
61.45 -0.00398
61.5 -0.00552
61.55 -0.00518
61.6 -0.00301
61.65 -0.0039
61.7 -0.00056
61.75 -0.00042
61.8 0.00238
61.85 0.00127
61.9 0.00465
61.95 0.01027
62 0.01603
62.05 0.01752
62.1 0.01682
62.15 0.01299
62.2 0.00853
62.25 0.00148
62.3 -0.00337
62.35 -0.00491
62.4 -0.00185
62.45 0.00008
62.5 0.00552
62.55 0.00656
62.6 0.00813
62.65 0.00645
62.7 0.00374
62.75 -0.00189
62.8 -0.00861
62.85 -0.01482
62.9 -0.0143
62.95 -0.01082
63 -0.01066
63.05 -0.01036
63.1 -0.00996
63.15 -0.00958
63.2 -0.00685
63.25 -0.00046
63.3 0.00254
63.35 0.00544
63.4 0.01101
63.45 0.01305
63.5 0.01273
63.55 0.01083
63.6 0.00521
63.65 -0.00245
63.7 -0.00312
63.75 0.00007
63.8 -0.00197
63.85 -0.00671
63.9 -0.01036
63.95 -0.00869
64 -0.01057
64.05 -0.01077
64.1 -0.00798
64.15 -0.00153
64.2 0.00348
64.25 0.00668
64.3 0.00519
64.35 0.00556
64.4 0.00638
64.45 0.00937
64.5 0.01298
64.55 0.0184
64.6 0.01694
64.65 0.0133
64.7 0.01074
64.75 0.00561
64.8 -0.00015
64.85 -0.00158
64.9 -0.00009
64.95 0.00323
65 0.00218
65.05 0.00109
65.1 -0.00121
65.15 -0.0006
65.2 0.00355
65.25 0.00808
65.3 0.01365
65.35 0.0141
65.4 0.01311
65.45 0.00999
65.5 0.00523
65.55 0.00293
65.6 0.00233
65.65 0.00311
65.7 0.00754
65.75 0.00905
65.8 0.01296
65.85 0.01151
65.9 0.0117
65.95 0.01204
66 0.01081
66.05 0.01039
66.1 0.01028
66.15 0.01021
66.2 0.00962
66.25 0.00445
66.3 0.00198
66.35 0.00121
66.4 0.00333
66.45 0.00843
66.5 0.00741
66.55 0.01005
66.6 0.00775
66.65 0.00392
66.7 0.00007
66.75 -0.00107
66.8 0.00184
66.85 0.00454
66.9 0.00235
66.95 -0.00079
67 -0.00538
67.05 -0.00844
67.1 -0.00689
67.15 -0.00259
67.2 0.00134
67.25 0.00442
67.3 0.00335
67.35 0.00314
67.4 0.00482
67.45 0.00464
67.5 0.00102
67.55 -0.00581
67.6 -0.00952
67.65 -0.01095
67.7 -0.01178
67.75 -0.009
67.8 -0.00455
67.85 -0.00436
67.9 -0.00564
67.95 -0.00529
68 -0.00169
68.05 0.00395
68.1 0.00808
68.15 0.00565
68.2 0.00754
68.25 0.00985
68.3 0.01271
68.35 0.01192
68.4 0.00841
68.45 0.0087
68.5 0.00825
68.55 0.00421
68.6 0.00213
68.65 -0.00249
68.7 -0.00374
68.75 -0.0077
68.8 -0.00563
68.85 -0.00071
68.9 0.00248
68.95 0.0017
69 -0.0034
69.05 -0.00801
69.1 -0.01226
69.15 -0.01355
69.2 -0.01376
69.25 -0.0094
69.3 -0.0066
69.35 -0.00811
69.4 -0.00548
69.45 -0.00754
69.5 -0.00777
69.55 -0.01005
69.6 -0.00721
69.65 -0.00422
69.7 -0.0049
69.75 -0.00448
69.8 -0.00275
69.85 -0.00394
69.9 -0.00419
69.95 -0.00034
70 0.00052
70.05 0.00233
70.1 0.00665
70.15 0.00689
70.2 0.00518
70.25 0.00165
70.3 -0.00209
70.35 -0.00345
70.4 -0.00554
70.45 -0.00379
70.5 0.00122
70.55 0.00762
70.6 0.00701
70.65 0.0058
70.7 0.00254
70.75 0.00004
70.8 0.00054
70.85 -0.00004
70.9 0.00033
70.95 -0.001
71 0.00098
71.05 -0.00051
71.1 -0.00368
71.15 -0.009
71.2 -0.01388
71.25 -0.01581
71.3 -0.01213
71.35 -0.01267
71.4 -0.01337
71.45 -0.01321
71.5 -0.01238
71.55 -0.00676
71.6 -0.00396
71.65 -0.0039
71.7 -0.00136
71.75 -0.00192
71.8 -0.00045
71.85 0.00315
71.9 0.00409
71.95 0.00803
72 0.00707
72.05 0.00514
72.1 0.00369
72.15 0.00303
72.2 0.00207
72.25 0.00536
72.3 0.0104
72.35 0.00836
72.4 0.00436
72.45 0.00312
72.5 -0.00118
72.55 0.0003
72.6 0.00077
72.65 -0.00121
72.7 -0.00013
72.75 -0.00251
72.8 -0.00431
72.85 -0.00824
72.9 -0.01166
72.95 -0.01229
73 -0.00906
73.05 -0.00422
73.1 -0.00306
73.15 -0.00071
73.2 0.00216
73.25 0.00541
73.3 0.00834
73.35 0.00837
73.4 0.0053
73.45 0.00169
73.5 0.0015
73.55 0.00016
73.6 -0.00333
73.65 -0.00287
73.7 -0.00601
73.75 -0.01143
73.8 -0.01761
73.85 -0.01919
73.9 -0.02026
73.95 -0.01977
74 -0.01513
74.05 -0.01044
74.1 -0.00794
74.15 -0.00672
74.2 -0.00419
74.25 -0.00028
74.3 -0.00074
74.35 -0.00329
74.4 -0.00497
74.45 -0.00269
74.5 -0.00391
74.55 -0.00739
74.6 -0.00508
74.65 0.00074
74.7 0.0062
74.75 0.00962
74.8 0.0137
74.85 0.01399
74.9 0.01493
74.95 0.01801
75 0.02118
75.05 0.02352
75.1 0.024
75.15 0.02116
75.2 0.02068
75.25 0.01942
75.3 0.01949
75.35 0.02122
75.4 0.01655
75.45 0.00988
75.5 0.00807
75.55 0.00623
75.6 0.00047
75.65 -0.00588
75.7 -0.00738
75.75 -0.00865
75.8 -0.00502
75.85 -0.00339
75.9 -0.00466
75.95 -0.00769
76 -0.00741
76.05 -0.01093
76.1 -0.01612
76.15 -0.02112
76.2 -0.02136
76.25 -0.02021
76.3 -0.01848
76.35 -0.0168
76.4 -0.01748
76.45 -0.02064
76.5 -0.02292
76.55 -0.02408
76.6 -0.02042
76.65 -0.01321
76.7 -0.00367
76.75 0.00002
76.8 0.00053
76.85 0.00437
76.9 0.00606
76.95 0.00771
77 0.00886
77.05 0.0102
77.1 0.01142
77.15 0.01462
77.2 0.01706
77.25 0.01309
77.3 0.00988
77.35 0.00798
77.4 0.00657
77.45 0.00795
77.5 0.00594
77.55 0.00405
77.6 0.00409
77.65 0.00459
77.7 0.00187
77.75 -0.00238
77.8 -0.00911
77.85 -0.0122
77.9 -0.01263
77.95 -0.01293
78 -0.01164
78.05 -0.01406
78.1 -0.01131
78.15 -0.00773
78.2 -0.00676
78.25 -0.00267
78.3 0.00343
78.35 0.01005
78.4 0.01078
78.45 0.00731
78.5 0.00451
78.55 0.00553
78.6 0.00549
78.65 0.0032
78.7 0.00049
78.75 0.00145
78.8 0.00499
78.85 0.00429
78.9 0.00766
78.95 0.00619
79 0.00125
79.05 -0.00561
79.1 -0.00883
79.15 -0.01119
79.2 -0.01091
79.25 -0.00856
79.3 -0.0099
79.35 -0.01356
79.4 -0.0137
79.45 -0.00855
79.5 -0.00109
79.55 0.00309
79.6 0.00604
79.65 0.00965
79.7 0.01155
79.75 0.01148
79.8 0.00671
79.85 0.00221
79.9 -0.00476
79.95 -0.00899
80 -0.01121
80.05 -0.01213
80.1 -0.00882
80.15 -0.00828
80.2 -0.00925
80.25 -0.0081
80.3 -0.00508
80.35 -0.00434
80.4 -0.00115
80.45 -0.00282
80.5 -0.0038
80.55 -0.00501
80.6 -0.00843
80.65 -0.00818
80.7 -0.00516
80.75 -0.00658
80.8 -0.00839
80.85 -0.01076
80.9 -0.00824
80.95 -0.00338
81 -0.00229
81.05 0.00075
81.1 0.00025
81.15 0.00333
81.2 0.00557
81.25 0.00645
81.3 0.00474
81.35 -0.00004
81.4 -0.00397
81.45 -0.00609
81.5 -0.0098
81.55 -0.01054
81.6 -0.00936
81.65 -0.01039
81.7 -0.01052
81.75 -0.00568
81.8 -0.00301
81.85 -0.00132
81.9 0.00141
81.95 0.00141
82 0.00233
82.05 0.00011
82.1 -0.00123
82.15 -0.0022
82.2 -0.00129
82.25 0.00373
82.3 0.00808
82.35 0.0109
82.4 0.01293
82.45 0.01534
82.5 0.01663
82.55 0.01481
82.6 0.01309
82.65 0.00814
82.7 0.00671
82.75 0.00473
82.8 0.0014
82.85 -0.00408
82.9 -0.00535
82.95 -0.00495
83 -0.00717
83.05 -0.01055
83.1 -0.00795
83.15 -0.00252
83.2 0.00095
83.25 0.00498
83.3 0.00694
83.35 0.00473
83.4 0.00454
83.45 0.00605
83.5 0.0044
83.55 0.00044
83.6 -0.00056
83.65 -0.00386
83.7 -0.00937
83.75 -0.01409
83.8 -0.01297
83.85 -0.01051
83.9 -0.01097
83.95 -0.0122
84 -0.0105
84.05 -0.0123
84.1 -0.01531
84.15 -0.0173
84.2 -0.01632
84.25 -0.0161
84.3 -0.01628
84.35 -0.01736
84.4 -0.01403
84.45 -0.00946
84.5 -0.00867
84.55 -0.00769
84.6 -0.00674
84.65 -0.00267
84.7 -0.00111
84.75 -0.0026
84.8 -0.00143
84.85 -0.00044
84.9 0.00112
84.95 -0.00077
85 -0.00402
85.05 -0.00617
85.1 -0.00553
85.15 -0.00255
85.2 0.00299
85.25 0.0064
85.3 0.0067
85.35 0.00768
85.4 0.00595
85.45 0.00084
85.5 0.00004
85.55 -0.00185
85.6 -0.00108
85.65 -0.00118
85.7 0.00191
85.75 0.00738
85.8 0.01173
85.85 0.01169
85.9 0.01388
85.95 0.01147
86 0.00617
86.05 0.00169
86.1 0.00071
86.15 -0.00067
86.2 -0.00524
86.25 -0.00949
86.3 -0.00958
86.35 -0.00727
86.4 -0.00362
86.45 -0.00315
86.5 -0.00341
86.55 -0.00721
86.6 -0.01156
86.65 -0.01158
86.7 -0.0065
86.75 -0.00005
86.8 0.00193
86.85 0.00249
86.9 0.00162
86.95 0.00305
87 0.00017
87.05 -0.00495
87.1 -0.00575
87.15 -0.00566
87.2 -0.00087
87.25 -0.00012
87.3 0.003
87.35 0.00153
87.4 -0.00065
87.45 -0.00264
87.5 -0.00462
87.55 -0.00246
87.6 -0.0042
87.65 -0.00852
87.7 -0.0144
87.75 -0.01683
87.8 -0.01615
87.85 -0.01189
87.9 -0.00668
87.95 -0.00399
88 -0.003
88.05 -0.00113
88.1 -0.00076
88.15 0.0005
88.2 -0.00117
88.25 -0.00288
88.3 -0.00558
88.35 -0.0029
88.4 0.00277
88.45 0.00688
88.5 0.00801
88.55 0.01041
88.6 0.01156
88.65 0.01247
88.7 0.00947
88.75 0.00589
88.8 -0.00011
88.85 -0.00586
88.9 -0.01042
88.95 -0.01427
89 -0.01772
89.05 -0.02213
89.1 -0.02654
89.15 -0.03047
89.2 -0.03206
89.25 -0.03164
89.3 -0.02673
89.35 -0.02278
89.4 -0.01789
89.45 -0.01213
89.5 -0.00414
89.55 0.00294
89.6 0.01202
89.65 0.02
89.7 0.02647
89.75 0.02795
89.8 0.02908
89.85 0.0295
89.9 0.02876
89.95 0.02773
90 0.02327
90.05 0.01754
90.1 0.01643
90.15 0.01735
90.2 0.02056
90.25 0.01949
90.3 0.0199
90.35 0.01929
90.4 0.01587
90.45 0.00882
90.5 0.00398
90.55 0.00301
90.6 0.00587
90.65 0.0111
90.7 0.01204
90.75 0.01
90.8 0.0049
90.85 -0.00063
90.9 -0.00464
90.95 -0.00646
91 -0.00544
91.05 -0.00606
91.1 -0.00939
91.15 -0.01055
91.2 -0.01141
91.25 -0.00732
91.3 -0.00684
91.35 -0.0083
91.4 -0.01214
91.45 -0.01627
91.5 -0.01482
91.55 -0.01301
91.6 -0.01105
91.65 -0.00464
91.7 0.00199
91.75 0.00407
91.8 0.00675
91.85 0.008
91.9 0.00815
91.95 0.00698
92 0.00495
92.05 0.00479
92.1 0.00327
92.15 -0.00101
92.2 -0.00184
92.25 0.00165
92.3 0.00662
92.35 0.01292
92.4 0.01204
92.45 0.01437
92.5 0.01306
92.55 0.01477
92.6 0.01066
92.65 0.00407
92.7 0.00267
92.75 0.00227
92.8 0.00566
92.85 0.01028
92.9 0.01325
92.95 0.01428
93 0.01778
93.05 0.02073
93.1 0.02252
93.15 0.02146
93.2 0.02084
93.25 0.01765
93.3 0.01232
93.35 0.01064
93.4 0.00749
93.45 0.00851
93.5 0.00695
93.55 0.00657
93.6 0.00538
93.65 0.00252
93.7 0.00139
93.75 -0.00335
93.8 -0.00367
93.85 -0.00324
93.9 -0.00061
93.95 0.00398
94 0.00496
94.05 0.00802
94.1 0.00593
94.15 0.0003
94.2 -0.0045
94.25 -0.00688
94.3 -0.00555
94.35 -0.00388
94.4 -0.00199
94.45 -0.00465
94.5 -0.00418
94.55 -0.00385
94.6 -0.00583
94.65 -0.0073
94.7 -0.00799
94.75 -0.01089
94.8 -0.01017
94.85 -0.00708
94.9 -0.00734
94.95 -0.00562
95 -0.00285
95.05 -0.00259
95.1 -0.00616
95.15 -0.00633
95.2 -0.00729
95.25 -0.00396
95.3 -0.00141
95.35 -0.00278
95.4 -0.00279
95.45 -0.00434
95.5 -0.00473
95.55 -0.00403
95.6 -0.00695
95.65 -0.01139
95.7 -0.01517
95.75 -0.01224
95.8 -0.00696
95.85 -0.00538
95.9 -0.00264
95.95 -0.00441
96 -0.00629
96.05 -0.0084
96.1 -0.00724
96.15 -0.00187
96.2 0.00571
96.25 0.0122
96.3 0.01678
96.35 0.01832
96.4 0.01622
96.45 0.0166
96.5 0.0137
96.55 0.01441
96.6 0.0163
96.65 0.01601
96.7 0.01226
96.75 0.01112
96.8 0.01261
96.85 0.00895
96.9 0.00347
96.95 -0.00112
97 -0.00464
97.05 -0.00415
97.1 -0.00408
97.15 -0.00727
97.2 -0.00736
97.25 -0.00586
97.3 -0.00375
97.35 -0.00318
97.4 0.0002
97.45 -0.00183
97.5 -0.00353
97.55 -0.00513
97.6 -0.00459
97.65 -0.00169
97.7 0.00017
97.75 0.00519
97.8 0.00766
97.85 0.01128
97.9 0.01401
97.95 0.01841
98 0.01735
98.05 0.01318
98.1 0.00934
98.15 0.00354
98.2 0.00327
98.25 0.00264
98.3 0.00097
98.35 0.00116
98.4 0.00333
98.45 0.00198
98.5 0.00416
98.55 0.00477
98.6 0.00263
98.65 0.00045
98.7 0.00218
98.75 0.00306
98.8 -0.00106
98.85 -0.00411
98.9 -0.00438
98.95 -0.00231
99 -0.00155
99.05 -0.00079
99.1 0.00229
99.15 -0.00036
99.2 -0.00279
99.25 -0.00765
99.3 -0.01069
99.35 -0.01446
99.4 -0.01833
99.45 -0.01876
99.5 -0.01804
99.55 -0.01687
99.6 -0.01382
99.65 -0.0136
99.7 -0.01227
99.75 -0.0077
99.8 -0.0063
99.85 -0.00584
99.9 -0.00293
99.95 -0.00092
