0 0
0.05 0.00865
0.1 0.02009
0.15 0.02645
0.2 0.03154
0.25 0.03936
0.3 0.04905
0.35 0.05394
0.4 0.05731
0.45 0.06122
0.5 0.06422
0.55 0.06385
0.6 0.05958
0.65 0.05443
0.7 0.04957
0.75 0.04467
0.8 0.04222
0.85 0.04283
0.9 0.04643
0.95 0.0469
1 0.04725
1.05 0.04259
1.1 0.04125
1.15 0.039
1.2 0.0336
1.25 0.02774
1.3 0.02742
1.35 0.03274
1.4 0.03281
1.45 0.03024
1.5 0.03114
1.55 0.03606
1.6 0.03808
1.65 0.03519
1.7 0.03421
1.75 0.03554
1.8 0.039
1.85 0.03781
1.9 0.03287
1.95 0.03018
2 0.02568
2.05 0.02516
2.1 0.02215
2.15 0.02401
2.2 0.02413
2.25 0.02815
2.3 0.02653
2.35 0.02629
2.4 0.02424
2.45 0.02056
2.5 0.0206
2.55 0.02257
2.6 0.02791
2.65 0.03407
2.7 0.03649
2.75 0.03291
2.8 0.02616
2.85 0.01799
2.9 0.01253
2.95 0.00848
3 0.00484
3.05 0.00675
3.1 0.01114
3.15 0.0155
3.2 0.01644
3.25 0.01953
3.3 0.02028
3.35 0.01666
3.4 0.01921
3.45 0.02429
3.5 0.02979
3.55 0.0306
3.6 0.02605
3.65 0.02582
3.7 0.02925
3.75 0.03181
3.8 0.03492
3.85 0.03762
3.9 0.04145
3.95 0.0434
4 0.03802
4.05 0.0331
4.1 0.02749
4.15 0.02285
4.2 0.01425
4.25 0.00673
4.3 -0.0013
4.35 -0.00399
4.4 -0.00446
4.45 -0.00959
4.5 -0.02077
4.55 -0.02733
4.6 -0.04069
4.65 -0.05698
4.7 -0.07231
4.75 -0.09127
4.8 -0.11247
4.85 -0.14013
4.9 -0.17444
4.95 -0.2066
5 -0.24449
5.05 -0.29039
5.1 -0.33561
5.15 -0.38475
5.2 -0.44342
5.25 -0.50383
5.3 -0.57381
5.35 -0.65182
5.4 -0.73104
5.45 -0.81152
5.5 -0.89617
5.55 -0.98356
5.6 -1.0684
5.65 -1.15538
5.7 -1.24369
5.75 -1.3271
5.8 -1.41164
5.85 -1.49388
5.9 -1.56574
5.95 -1.62907
6 -1.69308
6.05 -1.75394
6.1 -1.80716
6.15 -1.85772
6.2 -1.90366
6.25 -1.94447
6.3 -1.97794
6.35 -1.99935
6.4 -2.01838
6.45 -2.03284
6.5 -2.03497
6.55 -2.03219
6.6 -2.01924
6.65 -1.99432
6.7 -1.95789
6.75 -1.91427
6.8 -1.86681
6.85 -1.80848
6.9 -1.74151
6.95 -1.66064
7 -1.56193
7.05 -1.45443
7.1 -1.33682
7.15 -1.20492
7.2 -1.06705
7.25 -0.92539
7.3 -0.78001
7.35 -0.63055
7.4 -0.47159
7.45 -0.30717
7.5 -0.14497
7.55 0.0148
7.6 0.1758
7.65 0.33171
7.7 0.48318
7.75 0.62291
7.8 0.75237
7.85 0.87993
7.9 1.00019
7.95 1.11378
8 1.2195
8.05 1.30945
8.1 1.39428
8.15 1.4706
8.2 1.53358
8.25 1.59106
8.3 1.64054
8.35 1.68549
8.4 1.71806
8.45 1.74825
8.5 1.77703
8.55 1.80113
8.6 1.81529
8.65 1.82549
8.7 1.8327
8.75 1.83505
8.8 1.83166
8.85 1.82951
8.9 1.82669
8.95 1.81441
9 1.79818
9.05 1.7787
9.1 1.76259
9.15 1.745
9.2 1.72561
9.25 1.70713
9.3 1.68916
9.35 1.67022
9.4 1.65009
9.45 1.6305
9.5 1.61409
9.55 1.59421
9.6 1.57406
9.65 1.5513
9.7 1.52948
9.75 1.50538
9.8 1.48183
9.85 1.45717
9.9 1.43123
9.95 1.40432
10 1.37793
10.05 1.35186
10.1 1.32137
10.15 1.28743
10.2 1.25782
10.25 1.23135
10.3 1.1985
10.35 1.16148
10.4 1.12818
10.45 1.09124
10.5 1.05219
10.55 1.01861
10.6 0.98879
10.65 0.95821
10.7 0.92809
10.75 0.89812
10.8 0.86414
10.85 0.82582
10.9 0.78134
10.95 0.73453
11 0.68922
11.05 0.64582
11.1 0.60083
11.15 0.55398
11.2 0.51371
11.25 0.47571
11.3 0.43842
11.35 0.39913
11.4 0.35918
11.45 0.32497
11.5 0.28835
11.55 0.25518
11.6 0.22309
11.65 0.19123
11.7 0.16224
11.75 0.13082
11.8 0.1055
11.85 0.08094
11.9 0.05906
11.95 0.03987
12 0.01559
12.05 -0.01128
12.1 -0.0351
12.15 -0.05477
12.2 -0.08041
12.25 -0.10156
12.3 -0.12193
12.35 -0.14114
12.4 -0.15556
12.45 -0.174
12.5 -0.19245
12.55 -0.21036
12.6 -0.22734
12.65 -0.24025
12.7 -0.24891
12.75 -0.25957
12.8 -0.26973
12.85 -0.27706
12.9 -0.28084
12.95 -0.28623
13 -0.29488
13.05 -0.30124
13.1 -0.30263
13.15 -0.30137
13.2 -0.30637
13.25 -0.31025
13.3 -0.31253
13.35 -0.31979
13.4 -0.32123
13.45 -0.31847
13.5 -0.31353
13.55 -0.31361
13.6 -0.31897
13.65 -0.32368
13.7 -0.32562
13.75 -0.32761
13.8 -0.33043
13.85 -0.32649
13.9 -0.32223
13.95 -0.31589
14 -0.31405
14.05 -0.30977
14.1 -0.30987
14.15 -0.3106
14.2 -0.30811
14.25 -0.30609
14.3 -0.30783
14.35 -0.30501
14.4 -0.30415
14.45 -0.2984
14.5 -0.2892
14.55 -0.28632
14.6 -0.27945
14.65 -0.27188
14.7 -0.27064
14.75 -0.26499
14.8 -0.26314
14.85 -0.26148
14.9 -0.25861
14.95 -0.25202
15 -0.24954
15.05 -0.24989
15.1 -0.24773
15.15 -0.24895
15.2 -0.24557
15.25 -0.24325
15.3 -0.24284
15.35 -0.24181
15.4 -0.24075
15.45 -0.23855
15.5 -0.23397
15.55 -0.22482
15.6 -0.21661
15.65 -0.21227
15.7 -0.2051
15.75 -0.20194
15.8 -0.20116
15.85 -0.19903
15.9 -0.19847
15.95 -0.19612
16 -0.1947
16.05 -0.19125
16.1 -0.18954
16.15 -0.18307
16.2 -0.18145
16.25 -0.17468
16.3 -0.17186
16.35 -0.17284
16.4 -0.17599
16.45 -0.17333
16.5 -0.17374
16.55 -0.17037
16.6 -0.16722
16.65 -0.16238
16.7 -0.16112
16.75 -0.16156
16.8 -0.15579
16.85 -0.14966
16.9 -0.14093
16.95 -0.12988
17 -0.12526
17.05 -0.12417
17.1 -0.12574
17.15 -0.13041
17.2 -0.12833
17.25 -0.12291
17.3 -0.12152
17.35 -0.12022
17.4 -0.11429
17.45 -0.11166
17.5 -0.10635
17.55 -0.10201
17.6 -0.10027
17.65 -0.10288
17.7 -0.10691
17.75 -0.10746
17.8 -0.10722
17.85 -0.10781
17.9 -0.10799
17.95 -0.10447
18 -0.10246
18.05 -0.10214
18.1 -0.1002
18.15 -0.10108
18.2 -0.09822
18.25 -0.09536
18.3 -0.08791
18.35 -0.07874
18.4 -0.07422
18.45 -0.07415
18.5 -0.07264
18.55 -0.07003
18.6 -0.06516
18.65 -0.06631
18.7 -0.06705
18.75 -0.07076
18.8 -0.07704
18.85 -0.0757
18.9 -0.07353
18.95 -0.07583
19 -0.07528
19.05 -0.07395
19.1 -0.07323
19.15 -0.07537
19.2 -0.07313
19.25 -0.07489
19.3 -0.07801
19.35 -0.07675
19.4 -0.07229
19.45 -0.06663
19.5 -0.0657
19.55 -0.06237
19.6 -0.05501
19.65 -0.04678
19.7 -0.03744
19.75 -0.03672
19.8 -0.03641
19.85 -0.03599
19.9 -0.03967
19.95 -0.04209
20 -0.04745
20.05 -0.05216
20.1 -0.05505
20.15 -0.05303
20.2 -0.0517
20.25 -0.04991
20.3 -0.04584
20.35 -0.03893
20.4 -0.03553
20.45 -0.03551
20.5 -0.03185
20.55 -0.0274
20.6 -0.02585
20.65 -0.03044
20.7 -0.03777
20.75 -0.04377
20.8 -0.04595
20.85 -0.05028
20.9 -0.04746
20.95 -0.04808
21 -0.04955
21.05 -0.0512
21.1 -0.05418
21.15 -0.05485
21.2 -0.05269
21.25 -0.05114
21.3 -0.04775
21.35 -0.04137
21.4 -0.03473
21.45 -0.02769
21.5 -0.01956
21.55 -0.01599
21.6 -0.01599
21.65 -0.01982
21.7 -0.02019
21.75 -0.02319
21.8 -0.02306
21.85 -0.02089
21.9 -0.01803
21.95 -0.01442
22 -0.01282
22.05 -0.01028
22.1 -0.00949
22.15 -0.01445
22.2 -0.02103
22.25 -0.02797
22.3 -0.03214
22.35 -0.03322
22.4 -0.0299
22.45 -0.02916
22.5 -0.03135
22.55 -0.03234
22.6 -0.02971
22.65 -0.02275
22.7 -0.01743
22.75 -0.01668
22.8 -0.01662
22.85 -0.0192
22.9 -0.02513
22.95 -0.026
23 -0.02589
23.05 -0.02762
23.1 -0.02363
23.15 -0.02045
23.2 -0.01726
23.25 -0.01951
23.3 -0.01912
23.35 -0.0178
23.4 -0.01613
23.45 -0.01763
23.5 -0.01777
23.55 -0.01804
23.6 -0.01692
23.65 -0.01769
23.7 -0.01615
23.75 -0.01605
23.8 -0.01773
23.85 -0.01948
23.9 -0.02137
23.95 -0.02257
24 -0.01955
24.05 -0.01988
24.1 -0.01798
24.15 -0.01184
24.2 -0.00755
24.25 -0.0067
24.3 -0.00981
24.35 -0.01534
24.4 -0.02279
24.45 -0.02971
24.5 -0.03684
24.55 -0.03613
24.6 -0.03325
24.65 -0.03077
24.7 -0.02796
24.75 -0.02296
24.8 -0.01974
24.85 -0.01948
24.9 -0.02104
24.95 -0.02162
25 -0.01957
25.05 -0.01733
25.1 -0.01304
25.15 -0.00641
25.2 -0.00253
25.25 0.0012
25.3 0.00572
25.35 0.01143
25.4 0.01238
25.45 0.01005
25.5 0.00266
25.55 -0.00427
25.6 -0.0074
25.65 -0.00798
25.7 -0.0087
25.75 -0.00488
25.8 -0.00198
25.85 -0.00377
25.9 -0.00371
25.95 -0.00626
26 -0.00344
26.05 0.00233
26.1 0.00809
26.15 0.00697
26.2 0.00135
26.25 -0.0027
26.3 -0.0061
26.35 -0.00851
26.4 -0.00578
26.45 -0.00677
26.5 -0.00666
26.55 -0.00305
26.6 -0.00526
26.65 -0.00831
26.7 -0.00711
26.75 -0.00334
26.8 -0.00143
26.85 -0.00216
26.9 -0.00122
26.95 -0.00081
27 -0.00463
27.05 -0.00729
27.1 -0.00745
27.15 -0.00819
27.2 -0.0082
27.25 -0.00797
27.3 -0.00302
27.35 0.00065
27.4 0.00098
27.45 -0.00169
27.5 -0.0015
27.55 -0.00267
27.6 -0.00665
27.65 -0.00862
27.7 -0.0134
27.75 -0.01198
27.8 -0.00763
27.85 -0.00226
27.9 -0.0026
27.95 -0.00189
28 -0.00467
28.05 -0.00994
28.1 -0.01692
28.15 -0.02314
28.2 -0.03234
28.25 -0.04239
28.3 -0.0514
28.35 -0.05894
28.4 -0.05965
28.45 -0.05795
28.5 -0.06291
28.55 -0.06875
28.6 -0.07983
28.65 -0.08751
28.7 -0.10057
28.75 -0.1152
28.8 -0.13132
28.85 -0.14487
28.9 -0.16307
28.95 -0.18061
29 -0.20126
29.05 -0.22246
29.1 -0.24022
29.15 -0.25636
29.2 -0.27543
29.25 -0.29517
29.3 -0.31988
29.35 -0.3507
29.4 -0.38148
29.45 -0.40716
29.5 -0.43402
29.55 -0.46349
29.6 -0.48949
29.65 -0.51641
29.7 -0.53788
29.75 -0.55971
29.8 -0.57092
29.85 -0.57766
29.9 -0.57737
29.95 -0.5775
30 -0.56885
30.05 -0.55762
30.1 -0.54272
30.15 -0.52384
30.2 -0.50434
30.25 -0.47772
30.3 -0.44388
30.35 -0.40461
30.4 -0.36217
30.45 -0.32385
30.5 -0.28369
30.55 -0.23678
30.6 -0.19044
30.65 -0.1475
30.7 -0.10701
30.75 -0.05884
30.8 -0.00877
30.85 0.04238
30.9 0.08818
30.95 0.13002
31 0.16835
31.05 0.2014
31.1 0.23644
31.15 0.26538
31.2 0.29073
31.25 0.31589
31.3 0.33626
31.35 0.35049
31.4 0.36129
31.45 0.37008
31.5 0.3786
31.55 0.385
31.6 0.39246
31.65 0.40062
31.7 0.40388
31.75 0.40656
31.8 0.41114
31.85 0.40914
31.9 0.40205
31.95 0.39987
32 0.39287
32.05 0.39054
32.1 0.39163
32.15 0.39021
32.2 0.39047
32.25 0.39168
32.3 0.38731
32.35 0.3803
32.4 0.37365
32.45 0.37149
32.5 0.36436
32.55 0.3547
32.6 0.35141
32.65 0.34926
32.7 0.34193
32.75 0.33369
32.8 0.32872
32.85 0.32667
32.9 0.32712
32.95 0.32626
33 0.31905
33.05 0.31132
33.1 0.3044
33.15 0.2951
33.2 0.28113
33.25 0.27166
33.3 0.26454
33.35 0.25709
33.4 0.24738
33.45 0.23367
33.5 0.21903
33.55 0.21032
33.6 0.20603
33.65 0.20389
33.7 0.19851
33.75 0.19002
33.8 0.1775
33.85 0.16438
33.9 0.15161
33.95 0.14024
34 0.13158
34.05 0.1273
34.1 0.12537
34.15 0.12176
34.2 0.12025
34.25 0.12164
34.3 0.11928
34.35 0.11036
34.4 0.10548
34.45 0.09616
34.5 0.08655
34.55 0.07883
34.6 0.06892
34.65 0.06411
34.7 0.05947
34.75 0.05204
34.8 0.04762
34.85 0.04212
34.9 0.04131
34.95 0.04053
35 0.04333
35.05 0.04219
35.1 0.04112
35.15 0.03549
35.2 0.03286
35.25 0.03168
35.3 0.03395
35.35 0.0329
35.4 0.02975
35.45 0.02414
35.5 0.0179
35.55 0.01668
35.6 0.01753
35.65 0.01228
35.7 0.00365
35.75 -0.0055
35.8 -0.0123
35.85 -0.02065
35.9 -0.02344
35.95 -0.02992
36 -0.03019
36.05 -0.0332
36.1 -0.03167
36.15 -0.03031
36.2 -0.02627
36.25 -0.02126
36.3 -0.02203
36.35 -0.02477
36.4 -0.02944
36.45 -0.03737
36.5 -0.03987
36.55 -0.03856
36.6 -0.03601
36.65 -0.03894
36.7 -0.04171
36.75 -0.04237
36.8 -0.04149
36.85 -0.04349
36.9 -0.04977
36.95 -0.04996
37 -0.0523
37.05 -0.05074
37.1 -0.0505
37.15 -0.05163
37.2 -0.0541
37.25 -0.0519
37.3 -0.05117
37.35 -0.05524
37.4 -0.05791
37.45 -0.06013
37.5 -0.05965
37.55 -0.05657
37.6 -0.05904
37.65 -0.06055
37.7 -0.0584
37.75 -0.05871
37.8 -0.05568
37.85 -0.05843
37.9 -0.06415
37.95 -0.0706
38 -0.07094
38.05 -0.06983
38.1 -0.06495
38.15 -0.06039
38.2 -0.05778
38.25 -0.05977
38.3 -0.06182
38.35 -0.06051
38.4 -0.06242
38.45 -0.05889
38.5 -0.05151
38.55 -0.04736
38.6 -0.04801
38.65 -0.04403
38.7 -0.04119
38.75 -0.03754
38.8 -0.03213
38.85 -0.02605
38.9 -0.02021
38.95 -0.01944
39 -0.02407
39.05 -0.02465
39.1 -0.02788
39.15 -0.02824
39.2 -0.0301
39.25 -0.03318
39.3 -0.03715
39.35 -0.04391
39.4 -0.05202
39.45 -0.05653
39.5 -0.06202
39.55 -0.06424
39.6 -0.06383
39.65 -0.06114
39.7 -0.05989
39.75 -0.06159
39.8 -0.06425
39.85 -0.06337
39.9 -0.05654
39.95 -0.04767
40 -0.04284
40.05 -0.04152
40.1 -0.04132
40.15 -0.03843
40.2 -0.03623
40.25 -0.03185
40.3 -0.02733
40.35 -0.02636
40.4 -0.02813
40.45 -0.0252
40.5 -0.02541
40.55 -0.02192
40.6 -0.0242
40.65 -0.02269
40.7 -0.01976
40.75 -0.01414
40.8 -0.01337
40.85 -0.01106
40.9 -0.00741
40.95 -0.00206
41 -0.00244
41.05 -0.00719
41.1 -0.01311
41.15 -0.01751
41.2 -0.01805
41.25 -0.01728
41.3 -0.02194
41.35 -0.02848
41.4 -0.03566
41.45 -0.04176
41.5 -0.0457
41.55 -0.04547
41.6 -0.04185
41.65 -0.04152
41.7 -0.04343
41.75 -0.04156
41.8 -0.04153
41.85 -0.03999
41.9 -0.03445
41.95 -0.02786
42 -0.02728
42.05 -0.02889
42.1 -0.02685
42.15 -0.02366
42.2 -0.01919
42.25 -0.01627
42.3 -0.01142
42.35 -0.01255
42.4 -0.00894
42.45 -0.00458
42.5 -0.00446
42.55 -0.00117
42.6 0.00257
42.65 0.00362
42.7 0.00184
42.75 0.00336
42.8 0.00232
42.85 -0.0012
42.9 -0.00815
42.95 -0.00872
43 -0.00499
43.05 -0.00231
43.1 0.00155
43.15 0.005
43.2 0.0061
43.25 0.00673
43.3 0.00497
43.35 0.00251
43.4 -0.00371
43.45 -0.00787
43.5 -0.01386
43.55 -0.01564
43.6 -0.01358
43.65 -0.01475
43.7 -0.01447
43.75 -0.01515
43.8 -0.01645
43.85 -0.01883
43.9 -0.02269
43.95 -0.01978
44 -0.01518
44.05 -0.0111
44.1 -0.01266
44.15 -0.00927
44.2 -0.0073
44.25 -0.00396
44.3 -0.00634
44.35 -0.01137
44.4 -0.01774
44.45 -0.02023
44.5 -0.01962
44.55 -0.01443
44.6 -0.00736
44.65 -0.00281
44.7 -0.00375
44.75 -0.00434
44.8 -0.00686
44.85 -0.00443
44.9 -0.00358
44.95 -0.00552
45 -0.01131
45.05 -0.01513
45.1 -0.01357
45.15 -0.00855
45.2 -0.00182
45.25 0.00127
45.3 0.00281
45.35 0.00543
45.4 0.00479
45.45 0.00085
45.5 0.00171
45.55 0.00216
45.6 0.00005
45.65 0.00235
45.7 0.00635
45.75 0.01009
45.8 0.01086
45.85 0.01144
45.9 0.01216
45.95 0.01317
46 0.01578
46.05 0.01312
46.1 0.0064
46.15 -0.00284
46.2 -0.01045
46.25 -0.01881
46.3 -0.02112
46.35 -0.02059
46.4 -0.01743
46.45 -0.01298
46.5 -0.01053
46.55 -0.00984
46.6 -0.01113
46.65 -0.01589
46.7 -0.01969
46.75 -0.01782
46.8 -0.01505
46.85 -0.01155
46.9 -0.01199
46.95 -0.00875
47 -0.00955
47.05 -0.01228
47.1 -0.01175
47.15 -0.01337
47.2 -0.01637
47.25 -0.01753
47.3 -0.02101
47.35 -0.02162
47.4 -0.01868
47.45 -0.01401
47.5 -0.00986
47.55 -0.00718
47.6 -0.00703
47.65 -0.00988
47.7 -0.01419
47.75 -0.0125
47.8 -0.01009
47.85 -0.01225
47.9 -0.01153
47.95 -0.00633
48 -0.00207
48.05 0.00023
48.1 0.00416
48.15 0.00547
48.2 0.00584
48.25 0.00834
48.3 0.01036
48.35 0.00851
48.4 0.00639
48.45 0.00864
48.5 0.00748
48.55 0.00544
48.6 0.00047
48.65 -0.00709
48.7 -0.00822
48.75 -0.00924
48.8 -0.00795
48.85 -0.00847
48.9 -0.01185
48.95 -0.00933
49 -0.00453
49.05 -0.00223
49.1 -0.0033
49.15 -0.00251
49.2 -0.00661
49.25 -0.00768
49.3 -0.00379
49.35 0.00154
49.4 0.00159
49.45 0.00554
49.5 0.00619
49.55 0.00307
49.6 0.00324
49.65 -0.00125
49.7 -0.0055
49.75 -0.00533
49.8 -0.00964
49.85 -0.01509
49.9 -0.01622
49.95 -0.01137
50 -0.0059
50.05 -0.00448
50.1 -0.00347
50.15 0.00087
50.2 0.00436
50.25 0.00516
50.3 0.00371
50.35 0.00356
50.4 0.0016
50.45 -0.00238
50.5 -0.00785
50.55 -0.01114
50.6 -0.01383
50.65 -0.01223
50.7 -0.00671
50.75 -0.00633
50.8 -0.0038
50.85 -0.00301
50.9 -0.0017
50.95 0.00092
51 -0.00093
51.05 -0.00507
51.1 -0.01074
51.15 -0.01588
51.2 -0.0195
51.25 -0.02448
51.3 -0.02536
51.35 -0.024
51.4 -0.02108
51.45 -0.01584
51.5 -0.01175
51.55 -0.01133
51.6 -0.0056
51.65 -0.0052
51.7 -0.00518
51.75 -0.00571
51.8 -0.00523
51.85 -0.00733
51.9 -0.00992
51.95 -0.01045
52 -0.01267
52.05 -0.00985
52.1 -0.00928
52.15 -0.01229
52.2 -0.01421
52.25 -0.01055
52.3 -0.0104
52.35 -0.00522
52.4 -0.00436
52.45 -0.0032
52.5 -0.00441
52.55 -0.00894
52.6 -0.01268
52.65 -0.0127
52.7 -0.01367
52.75 -0.00942
52.8 -0.00353
52.85 0.00175
52.9 0.00938
52.95 0.01303
53 0.01345
53.05 0.00992
53.1 0.00484
53.15 -0.00259
53.2 -0.00324
53.25 -0.00044
53.3 -0.00208
53.35 -0.00486
53.4 -0.00786
53.45 -0.01271
53.5 -0.01806
53.55 -0.02186
53.6 -0.02431
53.65 -0.01957
53.7 -0.01559
53.75 -0.00982
53.8 -0.00153
53.85 0.00567
53.9 0.01044
53.95 0.01494
54 0.01754
54.05 0.0197
54.1 0.02214
54.15 0.02233
54.2 0.02006
54.25 0.02122
54.3 0.0239
54.35 0.02684
54.4 0.02872
54.45 0.02929
54.5 0.02609
54.55 0.02499
54.6 0.02541
54.65 0.02393
54.7 0.01976
54.75 0.01826
54.8 0.01506
54.85 0.00834
54.9 0.00705
54.95 0.00214
55 -0.00442
55.05 -0.00913
55.1 -0.00745
55.15 -0.00814
55.2 -0.01098
55.25 -0.01305
55.3 -0.01723
55.35 -0.01709
55.4 -0.012
55.45 -0.00992
55.5 -0.01109
55.55 -0.01483
55.6 -0.01955
55.65 -0.01784
55.7 -0.01595
55.75 -0.01767
55.8 -0.01772
55.85 -0.01988
55.9 -0.01505
55.95 -0.014
56 -0.01503
56.05 -0.01619
56.1 -0.01287
56.15 -0.00607
56.2 -0.00072
56.25 0.00742
56.3 0.01141
56.35 0.01269
56.4 0.01198
56.45 0.01173
56.5 0.00641
56.55 0.00142
56.6 -0.00497
56.65 -0.0115
56.7 -0.01815
56.75 -0.02525
56.8 -0.02686
56.85 -0.0297
56.9 -0.03252
56.95 -0.02857
57 -0.02204
57.05 -0.01918
57.1 -0.01521
57.15 -0.01251
57.2 -0.00624
57.25 0.00183
57.3 0.01164
57.35 0.01858
57.4 0.02639
57.45 0.03376
57.5 0.03565
57.55 0.03442
57.6 0.02784
57.65 0.0181
57.7 0.01222
57.75 0.0087
57.8 0.00436
57.85 0.00223
57.9 0.00431
57.95 0.00347
58 0.00678
58.05 0.01084
58.1 0.00909
58.15 0.01046
58.2 0.00729
58.25 0.00312
58.3 -0.00428
58.35 -0.0111
58.4 -0.01137
58.45 -0.00676
58.5 -0.00428
58.55 0.00206
58.6 0.01001
58.65 0.01821
58.7 0.02442
58.75 0.02603
58.8 0.02697
58.85 0.02634
58.9 0.02802
58.95 0.02226
59 0.01298
59.05 0.00371
59.1 -0.00048
59.15 -0.00492
59.2 -0.008
59.25 -0.0102
59.3 -0.00821
59.35 -0.00909
59.4 -0.00973
59.45 -0.01349
59.5 -0.01167
59.55 -0.00947
59.6 -0.0032
59.65 0.00469
59.7 0.00671
59.75 0.01145
59.8 0.01184
59.85 0.01024
59.9 0.00507
59.95 -0.00084
60 -0.00702
60.05 -0.00862
60.1 -0.01032
60.15 -0.00652
60.2 -0.00003
60.25 0.00037
60.3 0.00497
60.35 0.00551
60.4 0.00124
60.45 -0.00305
60.5 -0.00793
60.55 -0.01424
60.6 -0.01975
60.65 -0.01884
60.7 -0.019
60.75 -0.01901
60.8 -0.02113
60.85 -0.02513
60.9 -0.02232
60.95 -0.02044
61 -0.01665
61.05 -0.01074
61.1 -0.0102
61.15 -0.00436
61.2 -0.001
61.25 -0.00316
61.3 0.00024
61.35 0.00532
61.4 0.01039
61.45 0.01169
61.5 0.0119
61.55 0.0139
61.6 0.01099
61.65 0.0084
61.7 0.00486
61.75 0.00153
61.8 0.00274
61.85 0.00285
61.9 0.00595
61.95 0.01205
62 0.01939
62.05 0.01852
62.1 0.01912
62.15 0.02066
62.2 0.01919
62.25 0.02011
62.3 0.02009
62.35 0.01599
62.4 0.01112
62.45 0.00935
62.5 0.00919
62.55 0.01007
62.6 0.01216
62.65 0.01452
62.7 0.01084
62.75 0.0058
62.8 0.00073
62.85 0.00061
62.9 0.00426
62.95 0.00838
63 0.00672
63.05 0.00526
63.1 0.00003
63.15 -0.00259
63.2 -0.00344
63.25 -0.00118
63.3 -0.00111
63.35 -0.00291
63.4 -0.00307
63.45 0.00077
63.5 0.00324
63.55 0.00654
63.6 0.00635
63.65 0.00499
63.7 0.00556
63.75 0.00359
63.8 -0.00276
63.85 -0.01144
63.9 -0.01421
63.95 -0.01905
64 -0.02495
64.05 -0.03096
64.1 -0.03012
64.15 -0.02848
64.2 -0.02113
64.25 -0.0127
64.3 -0.01071
64.35 -0.0105
64.4 -0.00929
64.45 -0.00769
64.5 -0.00718
64.55 -0.00945
64.6 -0.01251
64.65 -0.01734
64.7 -0.01637
64.75 -0.0112
64.8 -0.00275
64.85 0.00421
64.9 0.00397
64.95 0.00233
65 0.00345
65.05 0.00763
65.1 0.01316
65.15 0.01778
65.2 0.02212
65.25 0.02573
65.3 0.0273
65.35 0.02504
65.4 0.01802
65.45 0.01485
65.5 0.00815
65.55 0.00671
65.6 0.00447
65.65 0.0046
65.7 0.00322
65.75 0.00164
65.8 -0.004
65.85 -0.00863
65.9 -0.01523
65.95 -0.02006
66 -0.01831
66.05 -0.01251
66.1 -0.01145
66.15 -0.01213
66.2 -0.00763
66.25 -0.0051
66.3 -0.00502
66.35 -0.00599
66.4 -0.00983
66.45 -0.01459
66.5 -0.01336
66.55 -0.00806
66.6 -0.00466
66.65 -0.00273
66.7 0.00047
66.75 0.00106
66.8 -0.00136
66.85 -0.00407
66.9 -0.0085
66.95 -0.0067
67 -0.00161
67.05 -0.00016
67.1 0.00482
67.15 0.01209
67.2 0.01512
67.25 0.01248
67.3 0.00612
67.35 0.00577
67.4 0.00394
67.45 0.00255
67.5 0.0015
67.55 -0.00107
67.6 -0.0014
67.65 -0.00029
67.7 0.00226
67.75 0.00413
67.8 0.00038
67.85 -0.00526
67.9 -0.00648
67.95 -0.00813
68 -0.00735
68.05 -0.00834
68.1 -0.00713
68.15 -0.00333
68.2 -0.00266
68.25 0.00226
68.3 0.00477
68.35 0.007
68.4 0.00379
68.45 0.00491
68.5 0.00637
68.55 0.00949
68.6 0.00988
68.65 0.00632
68.7 0.00368
68.75 -0.00303
68.8 -0.00946
68.85 -0.01251
68.9 -0.01508
68.95 -0.01913
69 -0.02284
69.05 -0.02413
69.1 -0.02526
69.15 -0.02045
69.2 -0.01421
69.25 -0.00863
69.3 -0.00098
69.35 0.00126
69.4 -0.00194
69.45 -0.00698
69.5 -0.00586
69.55 -0.00624
69.6 -0.0071
69.65 -0.00531
69.7 -0.00495
69.75 -0.00005
69.8 0.00392
69.85 0.00311
69.9 -0.00016
69.95 0.00196
70 0.00348
70.05 0.00299
70.1 0.00037
70.15 -0.00455
70.2 -0.00559
70.25 -0.0036
70.3 0.00196
70.35 0.00545
70.4 0.00758
70.45 0.0092
70.5 0.01367
70.55 0.01578
70.6 0.0153
70.65 0.01083
70.7 0.00271
70.75 -0.00311
70.8 -0.00515
70.85 -0.00469
70.9 -0.00756
70.95 -0.00607
71 -0.00651
71.05 -0.00414
71.1 -0.00363
71.15 -0.00651
71.2 -0.01079
71.25 -0.01688
71.3 -0.02379
71.35 -0.02339
71.4 -0.01938
71.45 -0.01902
71.5 -0.01546
71.55 -0.016
71.6 -0.01599
71.65 -0.01801
71.7 -0.01831
71.75 -0.01651
71.8 -0.01029
71.85 -0.00497
71.9 -0.00389
71.95 -0.00008
72 0.00589
72.05 0.00785
72.1 0.0123
72.15 0.01296
72.2 0.01536
72.25 0.01708
72.3 0.01547
72.35 0.00938
72.4 0.00081
72.45 -0.00868
72.5 -0.01134
72.55 -0.01356
72.6 -0.01353
72.65 -0.01357
72.7 -0.01364
72.75 -0.01302
72.8 -0.00694
72.85 -0.0025
72.9 0.00433
72.95 0.01287
73 0.01953
73.05 0.02221
73.1 0.02318
73.15 0.01891
73.2 0.01395
73.25 0.00532
73.3 -0.00411
73.35 -0.00805
73.4 -0.00822
73.45 -0.00447
73.5 -0.00556
73.55 -0.00303
73.6 -0.00279
73.65 -0.00522
73.7 -0.0021
73.75 0.00066
73.8 -0.00132
73.85 -0.00497
73.9 -0.00749
73.95 -0.01206
74 -0.00968
74.05 -0.00422
74.1 0.00441
74.15 0.00919
74.2 0.00822
74.25 0.00605
74.3 0.00135
74.35 -0.00302
74.4 -0.00983
74.45 -0.01477
74.5 -0.02061
74.55 -0.0224
74.6 -0.02084
74.65 -0.01719
74.7 -0.01325
74.75 -0.00886
74.8 -0.00925
74.85 -0.01212
74.9 -0.00968
74.95 -0.00888
75 -0.00878
75.05 -0.00386
75.1 -0.00401
75.15 -0.00331
75.2 -0.0027
75.25 -0.00312
75.3 0.0008
75.35 0.00582
75.4 0.011
75.45 0.01162
75.5 0.01107
75.55 0.00831
75.6 0.00391
75.65 -0.00231
75.7 -0.007
75.75 -0.00464
75.8 -0.00364
75.85 -0.00516
75.9 -0.00278
75.95 -0.00217
76 -0.00192
76.05 -0.00529
76.1 -0.01043
76.15 -0.01659
76.2 -0.01479
76.25 -0.00958
76.3 -0.00582
76.35 -0.00586
76.4 -0.00845
76.45 -0.01098
76.5 -0.01081
76.55 -0.01187
76.6 -0.01285
76.65 -0.00936
76.7 -0.00547
76.75 -0.00274
76.8 -0.00116
76.85 -0.0005
76.9 0.00363
76.95 0.00227
77 0.00294
77.05 0.00458
77.1 0.00314
77.15 0.00034
77.2 -0.00314
77.25 -0.00306
77.3 -0.0033
77.35 -0.00185
77.4 -0.00222
77.45 -0.00234
77.5 -0.00131
77.55 -0.00142
77.6 0.00347
77.65 0.00729
77.7 0.0056
77.75 0.00451
77.8 0.00747
77.85 0.0127
77.9 0.01262
77.95 0.01213
78 0.00681
78.05 0.00274
78.1 -0.00334
78.15 -0.00418
78.2 -0.00044
78.25 -0.00104
78.3 -0.00392
78.35 -0.00698
78.4 -0.00955
78.45 -0.01353
78.5 -0.01083
78.55 -0.00973
78.6 -0.01052
78.65 -0.01277
78.7 -0.01104
78.75 -0.00469
78.8 -0.00166
78.85 -0.00086
78.9 0.00058
78.95 0.00511
79 0.0051
79.05 0.00644
79.1 0.0063
79.15 0.00334
79.2 -0.00226
79.25 -0.00491
79.3 -0.00306
79.35 0.00075
79.4 0.00376
79.45 0.00599
79.5 0.00981
79.55 0.00851
79.6 0.01202
79.65 0.01539
79.7 0.01796
79.75 0.01614
79.8 0.01153
79.85 0.0084
79.9 0.00791
79.95 0.00392
80 0.00598
80.05 0.00783
80.1 0.0125
80.15 0.01373
80.2 0.01522
80.25 0.01125
80.3 0.00434
80.35 -0.00172
80.4 -0.00356
80.45 -0.00849
80.5 -0.01197
80.55 -0.01384
80.6 -0.01664
80.65 -0.02122
80.7 -0.02558
80.75 -0.02849
80.8 -0.03106
80.85 -0.03185
80.9 -0.03173
80.95 -0.02757
81 -0.01881
81.05 -0.00969
81.1 0.00023
81.15 0.00948
81.2 0.01747
81.25 0.02523
81.3 0.02819
81.35 0.02397
81.4 0.02126
81.45 0.02174
81.5 0.02371
81.55 0.02419
81.6 0.02533
81.65 0.0247
81.7 0.02438
81.75 0.01876
81.8 0.01528
81.85 0.01586
81.9 0.01344
81.95 0.0145
82 0.01835
82.05 0.01534
82.1 0.01599
82.15 0.01538
82.2 0.01015
82.25 0.00634
82.3 0.00714
82.35 0.00407
82.4 0.00614
82.45 0.00813
82.5 0.00714
82.55 0.00557
82.6 -0.0001
82.65 -0.003
82.7 -0.0033
82.75 -0.00601
82.8 -0.00885
82.85 -0.00997
82.9 -0.014
82.95 -0.01505
83 -0.01806
83.05 -0.02255
83.1 -0.02356
83.15 -0.02342
83.2 -0.01919
83.25 -0.01902
83.3 -0.01885
83.35 -0.01333
83.4 -0.00428
83.45 -0.00088
83.5 -0.00095
83.55 -0.00022
83.6 -0.00036
83.65 -0.00205
83.7 -0.00343
83.75 -0.0007
83.8 0.00308
83.85 0.00302
83.9 0.00044
83.95 -0.00178
84 -0.00065
84.05 -0.00193
84.1 0.0017
84.15 0.00392
84.2 0.00815
84.25 0.01447
84.3 0.01655
84.35 0.01416
84.4 0.00806
84.45 0.00375
84.5 -0.0003
84.55 -0.00245
84.6 -0.00019
84.65 0.00485
84.7 0.00492
84.75 0.00925
84.8 0.01601
84.85 0.01592
84.9 0.01634
84.95 0.01164
85 0.00903
85.05 0.00275
85.1 -0.00138
85.15 -0.00407
85.2 -0.00376
85.25 0.00096
85.3 0.00149
85.35 -0.00058
85.4 0.00109
85.45 0.00493
85.5 0.0105
85.55 0.0106
85.6 0.01264
85.65 0.00837
85.7 0.0007
85.75 -0.00377
85.8 -0.00967
85.85 -0.01507
85.9 -0.01839
85.95 -0.01591
86 -0.01504
86.05 -0.01007
86.1 -0.00671
86.15 -0.00036
86.2 0.0044
86.25 0.00559
86.3 0.00906
86.35 0.01461
86.4 0.01761
86.45 0.01571
86.5 0.01312
86.55 0.00978
86.6 0.00516
86.65 0.00162
86.7 0.00098
86.75 0.00351
86.8 0.00758
86.85 0.00938
86.9 0.0139
86.95 0.01347
87 0.00934
87.05 0.00475
87.1 -0.00033
87.15 -0.00356
87.2 -0.00857
87.25 -0.00861
87.3 -0.01023
87.35 -0.01211
87.4 -0.01549
87.45 -0.01801
87.5 -0.01679
87.55 -0.01345
87.6 -0.01221
87.65 -0.00766
87.7 -0.0086
87.75 -0.00949
87.8 -0.00892
87.85 -0.00318
87.9 0.00158
87.95 0.00714
88 0.00579
88.05 0.00149
88.1 -0.00378
88.15 -0.00593
88.2 -0.00454
88.25 -0.00549
88.3 -0.00633
88.35 -0.0027
88.4 -0.00085
88.45 0.00302
88.5 0.00868
88.55 0.01142
88.6 0.01076
88.65 0.01059
88.7 0.0071
88.75 0.00588
88.8 0.00769
88.85 0.00663
88.9 0.00613
88.95 0.00551
89 0.00387
89.05 0.00157
89.1 -0.00455
89.15 -0.00699
89.2 -0.00529
89.25 -0.00015
89.3 0.00607
89.35 0.01229
89.4 0.0117
89.45 0.01209
89.5 0.00756
89.55 0.00663
89.6 0.00835
89.65 0.01306
89.7 0.01587
89.75 0.0133
89.8 0.011
89.85 0.01024
89.9 0.01259
89.95 0.01134
90 0.00668
90.05 0.00279
90.1 0.00083
90.15 -0.00333
90.2 -0.00635
90.25 -0.01233
90.3 -0.01672
90.35 -0.01582
90.4 -0.01184
90.45 -0.00689
90.5 -0.00498
90.55 -0.00366
90.6 -0.00505
90.65 -0.00953
90.7 -0.01539
90.75 -0.02154
90.8 -0.02189
90.85 -0.01679
90.9 -0.01051
90.95 -0.00732
91 -0.00377
91.05 -0.00131
91.1 0.0047
91.15 0.00946
91.2 0.0125
91.25 0.01521
91.3 0.01223
91.35 0.01364
91.4 0.01295
91.45 0.00959
91.5 0.00939
91.55 0.01212
91.6 0.01387
91.65 0.01598
91.7 0.01194
91.75 0.00932
91.8 0.0023
91.85 -0.00244
91.9 -0.00506
91.95 -0.00283
92 0.00061
92.05 0.00174
92.1 0.00102
92.15 0.00445
92.2 0.00549
92.25 0.00801
92.3 0.01099
92.35 0.01566
92.4 0.01707
92.45 0.01194
92.5 0.00395
92.55 -0.00536
92.6 -0.01523
92.65 -0.01723
92.7 -0.01796
92.75 -0.01693
92.8 -0.01146
92.85 -0.00747
92.9 -0.00026
92.95 0.00153
93 0.00128
93.05 0.00402
93.1 0.00122
93.15 -0.00401
93.2 -0.00371
93.25 -0.00696
93.3 -0.00718
93.35 -0.00349
93.4 -0.00243
93.45 -0.00442
93.5 -0.0087
93.55 -0.00764
93.6 -0.00429
93.65 -0.0015
93.7 0.00222
93.75 0.00094
93.8 -0.00225
93.85 -0.00564
93.9 -0.00591
93.95 -0.00205
94 0.00421
94.05 0.00925
94.1 0.00862
94.15 0.0045
94.2 0.00306
94.25 -0.00197
94.3 -0.00701
94.35 -0.0115
94.4 -0.01774
94.45 -0.01666
94.5 -0.01918
94.55 -0.02009
94.6 -0.02219
94.65 -0.02169
94.7 -0.021
94.75 -0.01797
94.8 -0.0182
94.85 -0.01538
94.9 -0.01184
94.95 -0.00727
95 -0.00444
95.05 -0.00167
95.1 0.00066
95.15 0.00674
95.2 0.01013
95.25 0.01073
95.3 0.00616
95.35 -0.00136
95.4 -0.00533
95.45 -0.00293
95.5 -0.00293
95.55 -0.00232
95.6 -0.0004
95.65 0.00527
95.7 0.00786
95.75 0.00978
95.8 0.00837
95.85 0.00318
95.9 -0.00319
95.95 -0.01014
96 -0.01539
96.05 -0.01645
96.1 -0.01714
96.15 -0.01909
96.2 -0.02072
96.25 -0.02027
96.3 -0.01872
96.35 -0.01173
96.4 -0.00261
96.45 0.00248
96.5 0.0056
96.55 0.01065
96.6 0.00875
96.65 0.0078
96.7 0.01058
96.75 0.01105
96.8 0.00769
96.85 0.00886
96.9 0.01272
96.95 0.01854
97 0.01821
97.05 0.01452
97.1 0.01559
97.15 0.01943
97.2 0.02054
97.25 0.02396
97.3 0.02191
97.35 0.02023
97.4 0.01317
97.45 0.00492
97.5 0.00335
97.55 -0.00078
97.6 -0.00543
97.65 -0.01163
97.7 -0.01276
97.75 -0.01307
97.8 -0.00826
97.85 -0.00348
97.9 -0.00433
97.95 -0.00109
98 0.00483
98.05 0.0123
98.1 0.01764
98.15 0.02146
98.2 0.01885
98.25 0.0157
98.3 0.01171
98.35 0.00724
98.4 0.00344
98.45 0.00496
98.5 0.00779
98.55 0.00721
98.6 0.0094
98.65 0.01176
98.7 0.01058
98.75 0.00653
98.8 0.00691
98.85 0.01024
98.9 0.01086
98.95 0.01205
99 0.01062
99.05 0.00838
99.1 0.00471
99.15 0.00334
99.2 0.00248
99.25 0.00571
99.3 0.00668
99.35 0.01005
99.4 0.01003
99.45 0.01016
99.5 0.01234
99.55 0.0135
99.6 0.00819
99.65 0.00417
99.7 0.00499
99.75 0.00804
99.8 0.01012
99.85 0.01086
99.9 0.0102
99.95 0.01232
