0 0
0.05 0.00034
0.1 0.00296
0.15 0.00956
0.2 0.01513
0.25 0.02224
0.3 0.02842
0.35 0.03486
0.4 0.04327
0.45 0.05136
0.5 0.06029
0.55 0.06874
0.6 0.07386
0.65 0.07127
0.7 0.06803
0.75 0.06425
0.8 0.05619
0.85 0.0507
0.9 0.04854
0.95 0.04998
1 0.05227
1.05 0.05638
1.1 0.05894
1.15 0.06085
1.2 0.06402
1.25 0.06576
1.3 0.06746
1.35 0.06681
1.4 0.06232
1.45 0.05827
1.5 0.05057
1.55 0.04902
1.6 0.04709
1.65 0.04912
1.7 0.04951
1.75 0.04856
1.8 0.0493
1.85 0.04537
1.9 0.03951
1.95 0.03116
2 0.02214
2.05 0.01434
2.1 0.0121
2.15 0.01009
2.2 0.01459
2.25 0.01598
2.3 0.01484
2.35 0.01423
2.4 0.01779
2.45 0.01878
2.5 0.02121
2.55 0.02647
2.6 0.02742
2.65 0.03239
2.7 0.03827
2.75 0.04172
2.8 0.04494
2.85 0.04071
2.9 0.04009
2.95 0.03832
3 0.03169
3.05 0.02947
3.1 0.02711
3.15 0.02934
3.2 0.02857
3.25 0.02953
3.3 0.03257
3.35 0.03269
3.4 0.02842
3.45 0.02757
3.5 0.0223
3.55 0.02154
3.6 0.0221
3.65 0.02395
3.7 0.01979
3.75 0.01846
3.8 0.01675
3.85 0.01265
3.9 0.00965
3.95 0.01116
4 0.0105
4.05 0.01374
4.1 0.01489
4.15 0.01132
4.2 0.01258
4.25 0.00852
4.3 0.00091
4.35 -0.00157
4.4 -0.00508
4.45 -0.00681
4.5 -0.00765
4.55 -0.01026
4.6 -0.02011
4.65 -0.03523
4.7 -0.05637
4.75 -0.07429
4.8 -0.09131
4.85 -0.11534
4.9 -0.14129
4.95 -0.17651
5 -0.21669
5.05 -0.26324
5.1 -0.31735
5.15 -0.37779
5.2 -0.44251
5.25 -0.50436
5.3 -0.57272
5.35 -0.63929
5.4 -0.70505
5.45 -0.77342
5.5 -0.84115
5.55 -0.91731
5.6 -0.99785
5.65 -1.07643
5.7 -1.15012
5.75 -1.2237
5.8 -1.29129
5.85 -1.3481
5.9 -1.39913
5.95 -1.44463
6 -1.48427
6.05 -1.51506
6.1 -1.54488
6.15 -1.56706
6.2 -1.58088
6.25 -1.59087
6.3 -1.59391
6.35 -1.59237
6.4 -1.58105
6.45 -1.56682
6.5 -1.54148
6.55 -1.51368
6.6 -1.47529
6.65 -1.42578
6.7 -1.36716
6.75 -1.30799
6.8 -1.24134
6.85 -1.16989
6.9 -1.09276
6.95 -1.00491
7 -0.90415
7.05 -0.7976
7.1 -0.68184
7.15 -0.5594
7.2 -0.43083
7.25 -0.30471
7.3 -0.17653
7.35 -0.04684
7.4 0.08419
7.45 0.21666
7.5 0.34723
7.55 0.4679
7.6 0.58454
7.65 0.69137
7.7 0.79398
7.75 0.88388
7.8 0.96524
7.85 1.03617
7.9 1.0991
7.95 1.15663
8 1.21192
8.05 1.26232
8.1 1.30246
8.15 1.3325
8.2 1.35821
8.25 1.38047
8.3 1.3952
8.35 1.41083
8.4 1.41761
8.45 1.42428
8.5 1.42434
8.55 1.42534
8.6 1.42193
8.65 1.41437
8.7 1.40114
8.75 1.38415
8.8 1.3714
8.85 1.35706
8.9 1.34147
8.95 1.32551
9 1.31255
9.05 1.29598
9.1 1.27448
9.15 1.25607
9.2 1.2343
9.25 1.20933
9.3 1.19144
9.35 1.17212
9.4 1.15711
9.45 1.1444
9.5 1.12566
9.55 1.1081
9.6 1.09009
9.65 1.06746
9.7 1.04265
9.75 1.01711
9.8 0.99048
9.85 0.96532
9.9 0.94346
9.95 0.92105
10 0.89493
10.05 0.87263
10.1 0.85302
10.15 0.83499
10.2 0.81563
10.25 0.78801
10.3 0.75942
10.35 0.73405
10.4 0.70419
10.45 0.67679
10.5 0.64827
10.55 0.62018
10.6 0.58636
10.65 0.55468
10.7 0.52377
10.75 0.49228
10.8 0.46549
10.85 0.43724
10.9 0.41028
10.95 0.37935
11 0.34924
11.05 0.31636
11.1 0.28228
11.15 0.25146
11.2 0.21938
11.25 0.18698
11.3 0.15566
11.35 0.1256
11.4 0.10244
11.45 0.08579
11.5 0.06582
11.55 0.04495
11.6 0.02976
11.65 0.01618
11.7 -0.00012
11.75 -0.01616
11.8 -0.0347
11.85 -0.05031
11.9 -0.0624
11.95 -0.07251
12 -0.07945
12.05 -0.08804
12.1 -0.09754
12.15 -0.10971
12.2 -0.12462
12.25 -0.13768
12.3 -0.15219
12.35 -0.16902
12.4 -0.18367
12.45 -0.19045
12.5 -0.19916
12.55 -0.20766
12.6 -0.21671
12.65 -0.22584
12.7 -0.22833
12.75 -0.22858
12.8 -0.22595
12.85 -0.22873
12.9 -0.22875
12.95 -0.22947
13 -0.23187
13.05 -0.23619
13.1 -0.24003
13.15 -0.24661
13.2 -0.2487
13.25 -0.24767
13.3 -0.24415
13.35 -0.23992
13.4 -0.23527
13.45 -0.23616
13.5 -0.23337
13.55 -0.2308
13.6 -0.22894
13.65 -0.22777
13.7 -0.2257
13.75 -0.22085
13.8 -0.21478
13.85 -0.21016
13.9 -0.20881
13.95 -0.21135
14 -0.21015
14.05 -0.20607
14.1 -0.20581
14.15 -0.20781
14.2 -0.20645
14.25 -0.20199
14.3 -0.19923
14.35 -0.19406
14.4 -0.19145
14.45 -0.19103
14.5 -0.18583
14.55 -0.18385
14.6 -0.17812
14.65 -0.17874
14.7 -0.17395
14.75 -0.17443
14.8 -0.17562
14.85 -0.17805
14.9 -0.18188
14.95 -0.17952
15 -0.17809
15.05 -0.17913
15.1 -0.1796
15.15 -0.17476
15.2 -0.17186
15.25 -0.16997
15.3 -0.16795
15.35 -0.164
15.4 -0.15518
15.45 -0.15039
15.5 -0.15054
15.55 -0.15315
15.6 -0.14849
15.65 -0.14004
15.7 -0.13681
15.75 -0.13331
15.8 -0.13281
15.85 -0.13421
15.9 -0.13699
15.95 -0.13674
16 -0.13658
16.05 -0.13228
16.1 -0.13182
16.15 -0.12954
16.2 -0.12645
16.25 -0.1265
16.3 -0.12448
16.35 -0.11862
16.4 -0.11205
16.45 -0.10503
16.5 -0.10021
16.55 -0.09822
16.6 -0.09543
16.65 -0.09063
16.7 -0.09137
16.75 -0.09148
16.8 -0.09189
16.85 -0.08871
16.9 -0.08628
16.95 -0.08745
17 -0.08512
17.05 -0.0869
17.1 -0.08823
17.15 -0.08443
17.2 -0.08174
17.25 -0.0827
17.3 -0.08669
17.35 -0.0885
17.4 -0.08699
17.45 -0.08163
17.5 -0.07316
17.55 -0.06821
17.6 -0.06056
17.65 -0.05287
17.7 -0.04949
17.75 -0.04803
17.8 -0.05114
17.85 -0.05544
17.9 -0.05904
17.95 -0.06133
18 -0.0664
18.05 -0.07022
18.1 -0.07273
18.15 -0.07309
18.2 -0.07455
18.25 -0.0707
18.3 -0.0689
18.35 -0.06274
18.4 -0.05847
18.45 -0.05172
18.5 -0.04727
18.55 -0.04592
18.6 -0.04837
18.65 -0.04789
18.7 -0.05197
18.75 -0.04941
18.8 -0.04836
18.85 -0.04576
18.9 -0.04558
18.95 -0.0446
19 -0.03989
19.05 -0.04114
19.1 -0.03854
19.15 -0.03974
19.2 -0.03773
19.25 -0.03563
19.3 -0.03478
19.35 -0.03675
19.4 -0.04003
19.45 -0.04163
19.5 -0.04293
19.55 -0.03916
19.6 -0.03275
19.65 -0.02812
19.7 -0.02519
19.75 -0.02737
19.8 -0.03351
19.85 -0.04082
19.9 -0.04512
19.95 -0.05035
20 -0.04992
20.05 -0.0462
20.1 -0.04643
20.15 -0.04103
20.2 -0.03892
20.25 -0.03324
20.3 -0.03161
20.35 -0.03007
20.4 -0.02857
20.45 -0.02447
20.5 -0.02455
20.55 -0.0208
20.6 -0.01617
20.65 -0.01406
20.7 -0.01691
20.75 -0.02101
20.8 -0.02424
20.85 -0.02855
20.9 -0.03165
20.95 -0.03357
21 -0.03196
21.05 -0.02602
21.1 -0.02626
21.15 -0.02177
21.2 -0.02208
21.25 -0.02532
21.3 -0.02333
21.35 -0.02368
21.4 -0.02294
21.45 -0.02261
21.5 -0.02502
21.55 -0.02679
21.6 -0.02632
21.65 -0.02408
21.7 -0.01883
21.75 -0.01598
21.8 -0.01046
21.85 -0.01028
21.9 -0.01475
21.95 -0.01964
22 -0.02375
22.05 -0.024
22.1 -0.01963
22.15 -0.01983
22.2 -0.01917
22.25 -0.02254
22.3 -0.02734
22.35 -0.03051
22.4 -0.0316
22.45 -0.02935
22.5 -0.02473
22.55 -0.01648
22.6 -0.0114
22.65 -0.00637
22.7 -0.0042
22.75 -0.00495
22.8 -0.0018
22.85 0.00057
22.9 -0.00314
22.95 -0.00215
23 -0.00468
23.05 -0.00792
23.1 -0.00834
23.15 -0.01041
23.2 -0.01255
23.25 -0.00975
23.3 -0.01088
23.35 -0.00918
23.4 -0.00688
23.45 -0.00153
23.5 -0.00156
23.55 0.00198
23.6 0.00576
23.65 0.00941
23.7 0.01076
23.75 0.00637
23.8 0.00028
23.85 -0.0017
23.9 -0.00165
23.95 -0.00527
24 -0.00439
24.05 -0.00212
24.1 -0.00196
24.15 -0.00511
24.2 -0.01171
24.25 -0.01915
24.3 -0.01855
24.35 -0.01811
24.4 -0.01848
24.45 -0.01819
24.5 -0.01805
24.55 -0.01987
24.6 -0.02085
24.65 -0.01945
24.7 -0.01358
24.75 -0.01119
24.8 -0.01313
24.85 -0.00989
24.9 -0.00811
24.95 -0.0103
25 -0.00954
25.05 -0.00468
25.1 -0.00283
25.15 -0.00401
25.2 -0.00315
25.25 -0.00759
25.3 -0.00577
25.35 -0.00275
25.4 -0.00247
25.45 -0.00128
25.5 0.00284
25.55 0.00029
25.6 -0.00074
25.65 -0.00331
25.7 -0.0075
25.75 -0.00846
25.8 -0.01065
25.85 -0.01193
25.9 -0.01583
25.95 -0.02113
26 -0.01934
26.05 -0.01445
26.1 -0.01498
26.15 -0.0107
26.2 -0.00973
26.25 -0.01037
26.3 -0.00838
26.35 -0.00705
26.4 -0.00363
26.45 -0.00224
26.5 -0.00418
26.55 -0.00645
26.6 -0.00886
26.65 -0.00551
26.7 -0.0001
26.75 0.00621
26.8 0.0058
26.85 0.00752
26.9 0.00384
26.95 0.00253
27 0.00448
27.05 0.00524
27.1 0.00691
27.15 0.01107
27.2 0.01233
27.25 0.00841
27.3 0.00184
27.35 -0.00257
27.4 -0.00885
27.45 -0.01126
27.5 -0.012
27.55 -0.01654
27.6 -0.02261
27.65 -0.02155
27.7 -0.02527
27.75 -0.0233
27.8 -0.02619
27.85 -0.03289
27.9 -0.03986
27.95 -0.04265
28 -0.0441
28.05 -0.04797
28.1 -0.05607
28.15 -0.06489
28.2 -0.07151
28.25 -0.08063
28.3 -0.09327
28.35 -0.10211
28.4 -0.11373
28.45 -0.12573
28.5 -0.14432
28.55 -0.1672
28.6 -0.18832
28.65 -0.2087
28.7 -0.23432
28.75 -0.26286
28.8 -0.28937
28.85 -0.31563
28.9 -0.35207
28.95 -0.39515
29 -0.44385
29.05 -0.49047
29.1 -0.53501
29.15 -0.58364
29.2 -0.63308
29.25 -0.67934
29.3 -0.73178
29.35 -0.78493
29.4 -0.83318
29.45 -0.8821
29.5 -0.92628
29.55 -0.96669
29.6 -1.01027
29.65 -1.05181
29.7 -1.09002
29.75 -1.12371
29.8 -1.14731
29.85 -1.16714
29.9 -1.18245
29.95 -1.19207
30 -1.19079
30.05 -1.17891
30.1 -1.15912
30.15 -1.12648
30.2 -1.08601
30.25 -1.03886
30.3 -0.98842
30.35 -0.93045
30.4 -0.86243
30.45 -0.79097
30.5 -0.70971
30.55 -0.62069
30.6 -0.53371
30.65 -0.44231
30.7 -0.34997
30.75 -0.25533
30.8 -0.16274
30.85 -0.07427
30.9 0.01187
30.95 0.09681
31 0.17491
31.05 0.25356
31.1 0.32463
31.15 0.39332
31.2 0.46114
31.25 0.52504
31.3 0.58276
31.35 0.63674
31.4 0.67913
31.45 0.71899
31.5 0.75417
31.55 0.78659
31.6 0.81007
31.65 0.82807
31.7 0.84073
31.75 0.84868
31.8 0.85605
31.85 0.86401
31.9 0.87291
31.95 0.87739
32 0.87539
32.05 0.87512
32.1 0.87538
32.15 0.87274
32.2 0.86871
32.25 0.8616
32.3 0.85991
32.35 0.85768
32.4 0.85889
32.45 0.85309
32.5 0.84925
32.55 0.84421
32.6 0.8394
32.65 0.83003
32.7 0.82339
32.75 0.8176
32.8 0.80896
32.85 0.80173
32.9 0.79253
32.95 0.78578
33 0.77646
33.05 0.7633
33.1 0.75027
33.15 0.74149
33.2 0.73573
33.25 0.73078
33.3 0.71647
33.35 0.70031
33.4 0.68725
33.45 0.67271
33.5 0.65354
33.55 0.6305
33.6 0.60529
33.65 0.58491
33.7 0.56683
33.75 0.54976
33.8 0.53031
33.85 0.5094
33.9 0.4901
33.95 0.47548
34 0.46299
34.05 0.44625
34.1 0.42867
34.15 0.40906
34.2 0.38541
34.25 0.36216
34.3 0.339
34.35 0.31825
34.4 0.30164
34.45 0.28795
34.5 0.27352
34.55 0.25953
34.6 0.24117
34.65 0.22675
34.7 0.21029
34.75 0.19464
34.8 0.17986
34.85 0.16879
34.9 0.15678
34.95 0.13938
35 0.1214
35.05 0.10101
35.1 0.08518
35.15 0.07234
35.2 0.06486
35.25 0.06022
35.3 0.05677
35.35 0.04819
35.4 0.04056
35.45 0.02755
35.5 0.01517
35.55 0.00515
35.6 -0.0026
35.65 -0.01403
35.7 -0.02399
35.75 -0.03364
35.8 -0.04558
35.85 -0.05489
35.9 -0.06108
35.95 -0.07272
36 -0.08195
36.05 -0.09139
36.1 -0.10034
36.15 -0.10654
36.2 -0.10732
36.25 -0.10622
36.3 -0.11169
36.35 -0.11465
36.4 -0.12089
36.45 -0.12181
36.5 -0.11979
36.55 -0.12355
36.6 -0.12647
36.65 -0.13398
36.7 -0.14469
36.75 -0.14992
36.8 -0.15767
36.85 -0.16329
36.9 -0.16344
36.95 -0.16019
37 -0.15693
37.05 -0.15127
37.1 -0.15076
37.15 -0.1483
37.2 -0.14389
37.25 -0.13729
37.3 -0.1344
37.35 -0.13826
37.4 -0.14253
37.45 -0.14468
37.5 -0.14929
37.55 -0.14849
37.6 -0.14514
37.65 -0.14452
37.7 -0.14039
37.75 -0.13825
37.8 -0.13792
37.85 -0.13581
37.9 -0.1388
37.95 -0.13692
38 -0.1351
38.05 -0.13703
38.1 -0.13804
38.15 -0.14056
38.2 -0.14281
38.25 -0.14288
38.3 -0.14225
38.35 -0.14303
38.4 -0.14605
38.45 -0.15055
38.5 -0.1467
38.55 -0.14112
38.6 -0.13099
38.65 -0.12568
38.7 -0.11891
38.75 -0.11091
38.8 -0.10988
38.85 -0.11093
38.9 -0.1113
38.95 -0.11318
39 -0.11379
39.05 -0.11085
39.1 -0.10514
39.15 -0.1008
39.2 -0.09674
39.25 -0.09165
39.3 -0.08403
39.35 -0.077
39.4 -0.0743
39.45 -0.07092
39.5 -0.07106
39.55 -0.0702
39.6 -0.06728
39.65 -0.0696
39.7 -0.07639
39.75 -0.08025
39.8 -0.08081
39.85 -0.07889
39.9 -0.07655
39.95 -0.07127
40 -0.07318
40.05 -0.07431
40.1 -0.07391
40.15 -0.06916
40.2 -0.06819
40.25 -0.06957
40.3 -0.07309
40.35 -0.07382
40.4 -0.07263
40.45 -0.07566
40.5 -0.07432
40.55 -0.07667
40.6 -0.07404
40.65 -0.06993
40.7 -0.06864
40.75 -0.06686
40.8 -0.06107
40.85 -0.0544
40.9 -0.04858
40.95 -0.04159
41 -0.03916
41.05 -0.04109
41.1 -0.03992
41.15 -0.03849
41.2 -0.0348
41.25 -0.03392
41.3 -0.03569
41.35 -0.0419
41.4 -0.05008
41.45 -0.05636
41.5 -0.06121
41.55 -0.06229
41.6 -0.06647
41.65 -0.06349
41.7 -0.05573
41.75 -0.04653
41.8 -0.04442
41.85 -0.04381
41.9 -0.04096
41.95 -0.04318
42 -0.04279
42.05 -0.04603
42.1 -0.04544
42.15 -0.04275
42.2 -0.03759
42.25 -0.03795
42.3 -0.03987
42.35 -0.04477
42.4 -0.04661
42.45 -0.04427
42.5 -0.04589
42.55 -0.04512
42.6 -0.04801
42.65 -0.04527
42.7 -0.047
42.75 -0.04358
42.8 -0.04333
42.85 -0.04034
42.9 -0.03948
42.95 -0.03767
43 -0.03968
43.05 -0.03695
43.1 -0.03285
43.15 -0.02622
43.2 -0.02614
43.25 -0.02338
43.3 -0.02244
43.35 -0.02616
43.4 -0.0295
43.45 -0.03173
43.5 -0.03591
43.55 -0.04189
43.6 -0.04599
43.65 -0.04534
43.7 -0.03994
43.75 -0.033
43.8 -0.02761
43.85 -0.02744
43.9 -0.02654
43.95 -0.02719
44 -0.02725
44.05 -0.03048
44.1 -0.0339
44.15 -0.03127
44.2 -0.0307
44.25 -0.02611
44.3 -0.02343
44.35 -0.02324
44.4 -0.02072
44.45 -0.01821
44.5 -0.01313
44.55 -0.01081
44.6 -0.00896
44.65 -0.01313
44.7 -0.01535
44.75 -0.01799
44.8 -0.02327
44.85 -0.02899
44.9 -0.03045
44.95 -0.02566
45 -0.02042
45.05 -0.01526
45.1 -0.00879
45.15 -0.00737
45.2 -0.00253
45.25 0.0008
45.3 0.00262
45.35 0.00274
45.4 0.00153
45.45 -0.00271
45.5 -0.00456
45.55 -0.00975
45.6 -0.01289
45.65 -0.01355
45.7 -0.01186
45.75 -0.01202
45.8 -0.01037
45.85 -0.01094
45.9 -0.01495
45.95 -0.01492
46 -0.01926
46.05 -0.02343
46.1 -0.02646
46.15 -0.02263
46.2 -0.01633
46.25 -0.01182
46.3 -0.00636
46.35 -0.00711
46.4 -0.01086
46.45 -0.01315
46.5 -0.0178
46.55 -0.02239
46.6 -0.02422
46.65 -0.02499
46.7 -0.02847
46.75 -0.02752
46.8 -0.02875
46.85 -0.02541
46.9 -0.02634
46.95 -0.02998
47 -0.03036
47.05 -0.02615
47.1 -0.02408
47.15 -0.02229
47.2 -0.01954
47.25 -0.01679
47.3 -0.01748
47.35 -0.01481
47.4 -0.01547
47.45 -0.011
47.5 -0.00599
47.55 -0.00279
47.6 -0.00119
47.65 0.00265
47.7 0.00115
47.75 -0.00119
47.8 -0.00743
47.85 -0.01567
47.9 -0.01627
47.95 -0.01855
48 -0.02118
48.05 -0.01745
48.1 -0.01761
48.15 -0.01998
48.2 -0.02284
48.25 -0.02217
48.3 -0.02235
48.35 -0.01757
48.4 -0.01669
48.45 -0.01521
48.5 -0.01677
48.55 -0.01784
48.6 -0.01569
48.65 -0.01638
48.7 -0.01913
48.75 -0.01464
48.8 -0.0137
48.85 -0.01019
48.9 -0.01055
48.95 -0.01254
49 -0.01178
49.05 -0.01256
49.1 -0.00799
49.15 -0.00557
49.2 -0.00185
49.25 0.00241
49.3 0.00837
49.35 0.01102
49.4 0.01403
49.45 0.01759
49.5 0.021
49.55 0.02452
49.6 0.02719
49.65 0.02856
49.7 0.02684
49.75 0.02377
49.8 0.0235
49.85 0.02351
49.9 0.02449
49.95 0.02546
50 0.02158
50.05 0.01471
50.1 0.01091
50.15 0.00518
50.2 -0.00019
50.25 -0.00265
50.3 -0.00455
50.35 -0.00441
50.4 -0.00227
50.45 -0.00118
50.5 -0.00122
50.55 0.00193
50.6 -0.00039
50.65 -0.00445
50.7 -0.00765
50.75 -0.01172
50.8 -0.01591
50.85 -0.0152
50.9 -0.01052
50.95 -0.01022
51 -0.01335
51.05 -0.01343
51.1 -0.01612
51.15 -0.01756
51.2 -0.01332
51.25 -0.01294
51.3 -0.00792
51.35 -0.00118
51.4 0.00278
51.45 0.00928
51.5 0.01665
51.55 0.02322
51.6 0.0231
51.65 0.01871
51.7 0.01545
51.75 0.01097
51.8 0.00704
51.85 0.00421
51.9 -0.0009
51.95 -0.00407
52 -0.00542
52.05 -0.00459
52.1 -0.00532
52.15 -0.00526
52.2 -0.00714
52.25 -0.00941
52.3 -0.01473
52.35 -0.01626
52.4 -0.01252
52.45 -0.00829
52.5 -0.00142
52.55 0.00634
52.6 0.01073
52.65 0.01519
52.7 0.01485
52.75 0.01727
52.8 0.01982
52.85 0.01888
52.9 0.01804
52.95 0.01577
53 0.01193
53.05 0.0095
53.1 0.00914
53.15 0.00408
53.2 0.0029
53.25 -0.00213
53.3 -0.00187
53.35 0.00178
53.4 0.00201
53.45 -0.00216
53.5 -0.00711
53.55 -0.01067
53.6 -0.01523
53.65 -0.02058
53.7 -0.02477
53.75 -0.02612
53.8 -0.02164
53.85 -0.01271
53.9 -0.00557
53.95 -0.00259
54 -0.0011
54.05 0.00353
54.1 0.00281
54.15 0.00224
54.2 0.00325
54.25 0.00461
54.3 0.00547
54.35 0.00782
54.4 0.00415
54.45 0.00548
54.5 0.00113
54.55 -0.00275
54.6 -0.00865
54.65 -0.00984
54.7 -0.00715
54.75 -0.00393
54.8 -0.00297
54.85 0.00135
54.9 0.00205
54.95 0.0005
55 -0.00214
55.05 -0.00605
55.1 -0.00881
55.15 -0.00545
55.2 -0.0043
55.25 0.00043
55.3 0.00435
55.35 0.00963
55.4 0.01209
55.45 0.01171
55.5 0.0148
55.55 0.01923
55.6 0.02184
55.65 0.01716
55.7 0.01158
55.75 0.00379
55.8 -0.00108
55.85 -0.00067
55.9 -0.00346
55.95 -0.00555
56 -0.00527
56.05 -0.00214
56.1 0.00106
56.15 0.00717
56.2 0.00852
56.25 0.00415
56.3 0.00289
56.35 0.00044
56.4 -0.00117
56.45 -0.00185
56.5 -0.00316
56.55 -0.0004
56.6 0.0049
56.65 0.00372
56.7 0.00019
56.75 -0.00471
56.8 -0.00745
56.85 -0.01247
56.9 -0.01918
56.95 -0.02671
57 -0.02543
57.05 -0.01985
57.1 -0.01428
57.15 -0.00629
57.2 0.00133
57.25 0.00286
57.3 0.00229
57.35 0.00371
57.4 0.0081
57.45 0.01249
57.5 0.01268
57.55 0.00724
57.6 0.00746
57.65 0.00711
57.7 0.00547
57.75 0.00672
57.8 0.00929
57.85 0.00625
57.9 0.00021
57.95 -0.0065
58 -0.01386
58.05 -0.01778
58.1 -0.01973
58.15 -0.01741
58.2 -0.01649
58.25 -0.01795
58.3 -0.01836
58.35 -0.017
58.4 -0.01446
58.45 -0.01192
58.5 -0.00732
58.55 -0.00505
58.6 -0.00612
58.65 -0.00736
58.7 -0.00726
58.75 -0.00985
58.8 -0.01232
58.85 -0.01443
58.9 -0.01373
58.95 -0.00766
59 0.00052
59.05 0.00916
59.1 0.01638
59.15 0.018
59.2 0.0136
59.25 0.00673
59.3 0.00204
59.35 -0.00015
59.4 -0.00382
59.45 -0.00246
59.5 0.00162
59.55 -0.00034
59.6 -0.00591
59.65 -0.01152
59.7 -0.01335
59.75 -0.01233
59.8 -0.01503
59.85 -0.01787
59.9 -0.01357
59.95 -0.01102
60 -0.00778
60.05 -0.00133
60.1 -0.00155
60.15 -0.00538
60.2 -0.00869
60.25 -0.01337
60.3 -0.01209
60.35 -0.01283
60.4 -0.00823
60.45 -0.0008
60.5 0.0013
60.55 0.00634
60.6 0.01325
60.65 0.01827
60.7 0.02378
60.75 0.02716
60.8 0.02523
60.85 0.0218
60.9 0.01797
60.95 0.01039
61 0.00745
61.05 0.00892
61.1 0.00531
61.15 0.00068
61.2 0.0016
61.25 0.00361
61.3 0.00715
61.35 0.01197
61.4 0.01213
61.45 0.0099
61.5 0.00643
61.55 0.00725
61.6 0.00508
61.65 0.00127
61.7 -0.00216
61.75 -0.00296
61.8 -0.00582
61.85 -0.00777
61.9 -0.01225
61.95 -0.01888
62 -0.02455
62.05 -0.02817
62.1 -0.03028
62.15 -0.03256
62.2 -0.02667
62.25 -0.02492
62.3 -0.02342
62.35 -0.01635
62.4 -0.01476
62.45 -0.01339
62.5 -0.01578
62.55 -0.01509
62.6 -0.01706
62.65 -0.02123
62.7 -0.0211
62.75 -0.01597
62.8 -0.01164
62.85 -0.00956
62.9 -0.00843
62.95 -0.00773
63 -0.0028
63.05 -0.00383
63.1 -0.00636
63.15 -0.00797
63.2 -0.00929
63.25 -0.00549
63.3 -0.00132
63.35 0.00554
63.4 0.01097
63.45 0.01149
63.5 0.00753
63.55 0.00364
63.6 0.00463
63.65 0.00927
63.7 0.00883
63.75 0.01102
63.8 0.01492
63.85 0.01306
63.9 0.00865
63.95 0.00522
64 0.00571
64.05 0.00897
64.1 0.00951
64.15 0.00678
64.2 0.00254
64.25 0.00047
64.3 -0.00539
64.35 -0.00689
64.4 -0.00608
64.45 -0.00266
64.5 -0.00315
64.55 -0.00534
64.6 -0.00152
64.65 0.00106
64.7 0.00381
64.75 0.0016
64.8 -0.00436
64.85 -0.00926
64.9 -0.00794
64.95 -0.00884
65 -0.00846
65.05 -0.00975
65.1 -0.01265
65.15 -0.01092
65.2 -0.0073
65.25 -0.00487
65.3 -0.00392
65.35 -0.00263
65.4 0.00152
65.45 0.00404
65.5 0.00556
65.55 0.00946
65.6 0.01221
65.65 0.01558
65.7 0.01942
65.75 0.01789
65.8 0.01892
65.85 0.01989
65.9 0.01857
65.95 0.01613
66 0.01208
66.05 0.00989
66.1 0.01172
66.15 0.00875
66.2 0.00833
66.25 0.01044
66.3 0.01133
66.35 0.00755
66.4 0.00047
66.45 -0.00335
66.5 -0.00301
66.55 -0.00724
66.6 -0.00767
66.65 -0.00789
66.7 -0.00291
66.75 0.00351
66.8 0.00692
66.85 0.0128
66.9 0.0124
66.95 0.01168
67 0.01126
67.05 0.00769
67.1 0.00489
67.15 -0.0003
67.2 -0.0051
67.25 -0.00973
67.3 -0.01287
67.35 -0.01273
67.4 -0.00763
67.45 -0.006
67.5 -0.00179
67.55 0.00497
67.6 0.00906
67.65 0.01277
67.7 0.01623
67.75 0.01641
67.8 0.01543
67.85 0.01462
67.9 0.01511
67.95 0.00947
68 0.00129
68.05 -0.00271
68.1 -0.00058
68.15 -0.00101
68.2 0.00009
68.25 0.00517
68.3 0.00938
68.35 0.01467
68.4 0.01192
68.45 0.00489
68.5 -0.00293
68.55 -0.00712
68.6 -0.00855
68.65 -0.01326
68.7 -0.01284
68.75 -0.01246
68.8 -0.00795
68.85 -0.00598
68.9 -0.00033
68.95 0.00546
69 0.0099
69.05 0.01116
69.1 0.00845
69.15 0.00511
69.2 0.00557
69.25 0.0006
69.3 0.00183
69.35 -0.00097
69.4 0.00152
69.45 0.0012
69.5 0.00152
69.55 -0.00302
69.6 -0.00223
69.65 0.00087
69.7 0.00251
69.75 0.00732
69.8 0.0113
69.85 0.00948
69.9 0.00368
69.95 -0.00493
70 -0.01076
70.05 -0.01361
70.1 -0.01306
70.15 -0.01479
70.2 -0.01927
70.25 -0.02036
70.3 -0.02126
70.35 -0.02282
70.4 -0.01933
70.45 -0.01716
70.5 -0.01497
70.55 -0.00921
70.6 -0.00041
70.65 0.00249
70.7 0.00347
70.75 0.00065
70.8 -0.00227
70.85 -0.00318
70.9 -0.0046
70.95 -0.00483
71 -0.00258
71.05 0.00083
71.1 0.00115
71.15 -0.00224
71.2 -0.0088
71.25 -0.00963
71.3 -0.00539
71.35 -0.00231
71.4 -0.00348
71.45 -0.00214
71.5 -0.00163
71.55 0.00217
71.6 0.00369
71.65 0.00472
71.7 0.00068
71.75 -0.00576
71.8 -0.00596
71.85 -0.00375
71.9 0.00003
71.95 0.0029
72 0.00859
72.05 0.00805
72.1 0.00505
72.15 0.00549
72.2 0.00586
72.25 0.0046
72.3 0.00301
72.35 0.00031
72.4 -0.00424
72.45 -0.00965
72.5 -0.01449
72.55 -0.01578
72.6 -0.01137
72.65 -0.00793
72.7 -0.00458
72.75 0.00218
72.8 0.01019
72.85 0.01612
72.9 0.01553
72.95 0.01789
73 0.01386
73.05 0.00764
73.1 0.00617
73.15 0.00238
73.2 -0.00184
73.25 -0.0069
73.3 -0.01255
73.35 -0.01684
73.4 -0.01773
73.45 -0.02055
73.5 -0.02426
73.55 -0.02643
73.6 -0.02189
73.65 -0.01789
73.7 -0.01431
73.75 -0.01256
73.8 -0.01433
73.85 -0.01186
73.9 -0.01048
73.95 -0.00723
74 -0.00765
74.05 -0.00741
74.1 -0.00918
74.15 -0.0053
74.2 -0.00071
74.25 0.00195
74.3 -0.00071
74.35 -0.00575
74.4 -0.0129
74.45 -0.0147
74.5 -0.01532
74.55 -0.01646
74.6 -0.01955
74.65 -0.02188
74.7 -0.02027
74.75 -0.01611
74.8 -0.009
74.85 -0.00521
74.9 -0.00313
74.95 0.00113
75 0.00182
75.05 0.00296
75.1 0.00443
75.15 0.00278
75.2 0.00421
75.25 0.00133
75.3 0.00402
75.35 0.00266
75.4 0.00243
75.45 0.00118
75.5 0.00304
75.55 0.00848
75.6 0.00712
75.65 0.00266
75.7 0.00306
75.75 0.00003
75.8 0.00095
75.85 0.00295
75.9 0.0049
75.95 0.00884
76 0.00717
76.05 0.00159
76.1 -0.0064
76.15 -0.01098
76.2 -0.01412
76.25 -0.01033
76.3 -0.00754
76.35 -0.00852
76.4 -0.00924
76.45 -0.0043
76.5 0.00266
76.55 0.0106
76.6 0.01249
76.65 0.01642
76.7 0.01959
76.75 0.01658
76.8 0.01104
76.85 0.00316
76.9 0.00039
76.95 0.0025
77 0.00117
77.05 -0.00021
77.1 0.00197
77.15 0.00218
77.2 0.00665
77.25 0.01108
77.3 0.01671
77.35 0.02323
77.4 0.02872
77.45 0.03193
77.5 0.02926
77.55 0.02537
77.6 0.01755
77.65 0.0148
77.7 0.00862
77.75 0.00637
77.8 0.00038
77.85 -0.0021
77.9 0.00052
77.95 0.00054
78 0.00184
78.05 -0.00119
78.1 -0.00398
78.15 -0.00255
78.2 -0.00184
78.25 -0.00547
78.3 -0.00745
78.35 -0.01077
78.4 -0.00749
78.45 -0.00569
78.5 -0.00322
78.55 -0.00157
78.6 -0.00172
78.65 -0.00622
78.7 -0.01026
78.75 -0.01203
78.8 -0.00748
78.85 -0.00724
78.9 -0.00601
78.95 -0.0006
79 0.00286
79.05 0.00805
79.1 0.00685
79.15 0.00266
79.2 -0.00367
79.25 -0.00834
79.3 -0.0118
79.35 -0.0176
79.4 -0.02435
79.45 -0.02883
79.5 -0.02891
79.55 -0.02906
79.6 -0.02762
79.65 -0.02062
79.7 -0.01403
79.75 -0.00714
79.8 -0.00085
79.85 0.00461
79.9 0.00788
79.95 0.01374
80 0.01278
80.05 0.00883
80.1 0.00541
80.15 0.00382
80.2 0.0039
80.25 0.00213
80.3 -0.00135
80.35 -0.0002
80.4 -0.00386
80.45 -0.00963
80.5 -0.01646
80.55 -0.01932
80.6 -0.01504
80.65 -0.01055
80.7 -0.0069
80.75 -0.00436
80.8 -0.00464
80.85 -0.00013
80.9 0.00177
80.95 0.00262
81 0.00116
81.05 -0.00357
81.1 -0.00744
81.15 -0.01318
81.2 -0.01931
81.25 -0.02425
81.3 -0.0259
81.35 -0.02138
81.4 -0.01979
81.45 -0.01984
81.5 -0.02172
81.55 -0.01814
81.6 -0.00921
81.65 -0.00134
81.7 0.00815
81.75 0.01665
81.8 0.02045
81.85 0.01725
81.9 0.01229
81.95 0.00916
82 0.00981
82.05 0.01449
82.1 0.01634
82.15 0.02004
82.2 0.02338
82.25 0.02784
82.3 0.02723
82.35 0.02109
82.4 0.01392
82.45 0.0046
82.5 -0.00353
82.55 -0.0068
82.6 -0.00795
82.65 -0.00432
82.7 -0.00023
82.75 0.00659
82.8 0.01242
82.85 0.01763
82.9 0.01951
82.95 0.01485
83 0.01245
83.05 0.0076
83.1 0.00019
83.15 -0.00558
83.2 -0.0096
83.25 -0.01538
83.3 -0.01327
83.35 -0.01372
83.4 -0.01094
83.45 -0.01245
83.5 -0.0089
83.55 -0.00496
83.6 -0.0017
83.65 0.00457
83.7 0.01107
83.75 0.01623
83.8 0.02135
83.85 0.0208
83.9 0.01846
83.95 0.01199
84 0.0078
84.05 0.0012
84.1 0.0016
84.15 0.00377
84.2 0.00178
84.25 -0.00326
84.3 -0.00864
84.35 -0.01307
84.4 -0.01328
84.45 -0.01396
84.5 -0.01635
84.55 -0.01924
84.6 -0.01678
84.65 -0.01396
84.7 -0.00877
84.75 -0.00761
84.8 -0.00398
84.85 0.00075
84.9 -0.00053
84.95 -0.00354
85 -0.0022
85.05 -0.00306
85.1 -0.00623
85.15 -0.00598
85.2 -0.00839
85.25 -0.01258
85.3 -0.01621
85.35 -0.01716
85.4 -0.01354
85.45 -0.00857
85.5 -0.00238
85.55 0.00218
85.6 0.0055
85.65 0.00818
85.7 0.01216
85.75 0.01622
85.8 0.01417
85.85 0.01211
85.9 0.00922
85.95 0.01075
86 0.00692
86.05 -0.00049
86.1 -0.00339
86.15 -0.00297
86.2 -0.00047
86.25 0.00459
86.3 0.00814
86.35 0.0136
86.4 0.01668
86.45 0.01662
86.5 0.01284
86.55 0.01304
86.6 0.01516
86.65 0.01955
86.7 0.02351
86.75 0.02861
86.8 0.02994
86.85 0.02612
86.9 0.02559
86.95 0.02391
87 0.01919
87.05 0.01776
87.1 0.01982
87.15 0.02116
87.2 0.01614
87.25 0.00713
87.3 -0.00194
87.35 -0.00738
87.4 -0.01029
87.45 -0.0081
87.5 -0.00251
87.55 0.00408
87.6 0.00548
87.65 0.00192
87.7 -0.00219
87.75 -0.00084
87.8 0.00117
87.85 0.0009
87.9 -0.00424
87.95 -0.00698
88 -0.00771
88.05 -0.0087
88.1 -0.00511
88.15 0.00001
88.2 0.00763
88.25 0.01547
88.3 0.01611
88.35 0.0184
88.4 0.01791
88.45 0.01807
88.5 0.01693
88.55 0.01395
88.6 0.00842
88.65 0.00674
88.7 0.00107
88.75 -0.00698
88.8 -0.01555
88.85 -0.02023
88.9 -0.02331
88.95 -0.02288
89 -0.0178
89.05 -0.00864
89.1 -0.00556
89.15 0.00002
89.2 0.00374
89.25 0.00951
89.3 0.0081
89.35 0.00255
89.4 -0.00475
89.45 -0.0054
89.5 -0.00224
89.55 0.00046
89.6 0.00146
89.65 0.00541
89.7 0.00521
89.75 0.00905
89.8 0.0095
89.85 0.00714
89.9 0.00711
89.95 0.00881
90 0.00419
90.05 -0.00303
90.1 -0.007
90.15 -0.0065
90.2 -0.00783
90.25 -0.00501
90.3 -0.00734
90.35 -0.00586
90.4 -0.00931
90.45 -0.01159
90.5 -0.00826
90.55 -0.00865
90.6 -0.01054
90.65 -0.01439
90.7 -0.01139
90.75 -0.01181
90.8 -0.01476
90.85 -0.01977
90.9 -0.01711
90.95 -0.01674
91 -0.01331
91.05 -0.01252
91.1 -0.01427
91.15 -0.01556
91.2 -0.01659
91.25 -0.01865
91.3 -0.01662
91.35 -0.01142
91.4 -0.00264
91.45 0.00424
91.5 0.01127
91.55 0.0151
91.6 0.01233
91.65 0.00553
91.7 0.0004
91.75 -0.0036
91.8 -0.00667
91.85 -0.00752
91.9 -0.00796
91.95 -0.00497
92 -0.00038
92.05 0.0052
92.1 0.00613
92.15 0.00186
92.2 -0.00296
92.25 -0.00649
92.3 -0.01112
92.35 -0.01666
92.4 -0.01924
92.45 -0.01667
92.5 -0.01562
92.55 -0.01497
92.6 -0.01153
92.65 -0.0085
92.7 -0.00759
92.75 -0.0037
92.8 -0.00275
92.85 0.00255
92.9 0.00665
92.95 0.00981
93 0.01294
93.05 0.01428
93.1 0.01167
93.15 0.01205
93.2 0.01105
93.25 0.00882
93.3 0.0054
93.35 -0.00115
93.4 -0.00615
93.45 -0.00704
93.5 -0.00887
93.55 -0.0127
93.6 -0.00982
93.65 -0.00684
93.7 0.0001
93.75 0.00761
93.8 0.01166
93.85 0.01449
93.9 0.01789
93.95 0.01753
94 0.01688
94.05 0.01735
94.1 0.01815
94.15 0.01384
94.2 0.00967
94.25 0.00683
94.3 0.00352
94.35 -0.00185
94.4 -0.00867
94.45 -0.01143
94.5 -0.01476
94.55 -0.01445
94.6 -0.01748
94.65 -0.01626
94.7 -0.01878
94.75 -0.01516
94.8 -0.00844
94.85 -0.00412
94.9 0.00219
94.95 0.0065
95 0.00979
95.05 0.01004
95.1 0.01395
95.15 0.016
95.2 0.01492
95.25 0.0175
95.3 0.01395
95.35 0.008
95.4 0.00503
95.45 0.00065
95.5 -0.00495
95.55 -0.00962
95.6 -0.01483
95.65 -0.01243
95.7 -0.00762
95.75 -0.00232
95.8 0.00526
95.85 0.00739
95.9 0.01192
95.95 0.01533
96 0.01624
96.05 0.01193
96.1 0.0073
96.15 0.00049
96.2 -0.00199
96.25 -0.0073
96.3 -0.01397
96.35 -0.01595
96.4 -0.01947
96.45 -0.02131
96.5 -0.02541
96.55 -0.02955
96.6 -0.03397
96.65 -0.03165
96.7 -0.02772
96.75 -0.02442
96.8 -0.01832
96.85 -0.01624
96.9 -0.01188
96.95 -0.01094
97 -0.01207
97.05 -0.00726
97.1 -0.0002
97.15 0.00602
97.2 0.00652
97.25 0.01124
97.3 0.01278
97.35 0.01134
97.4 0.01415
97.45 0.01133
97.5 0.00804
97.55 0.00386
97.6 -0.00157
97.65 -0.00771
97.7 -0.01158
97.75 -0.01246
97.8 -0.01041
97.85 -0.01082
97.9 -0.00772
97.95 -0.00284
98 -0.00209
98.05 -0.00223
98.1 0.00096
98.15 -0.00014
98.2 -0.00031
98.25 -0.00131
98.3 0.00112
98.35 -0.00106
98.4 -0.00498
98.45 -0.00917
98.5 -0.01491
98.55 -0.01988
98.6 -0.02024
98.65 -0.01655
98.7 -0.0096
98.75 -0.00724
98.8 -0.00737
98.85 -0.00839
98.9 -0.01024
98.95 -0.01295
99 -0.01308
99.05 -0.00814
99.1 -0.00074
99.15 0.00031
99.2 0.00352
99.25 0.00247
99.3 0.0004
99.35 -0.00319
99.4 -0.00802
99.45 -0.0057
99.5 -0.00069
99.55 -0.00014
99.6 0.00247
99.65 0.00442
99.7 0.00686
99.75 0.00424
99.8 0.00117
99.85 0.00004
99.9 0.00243
99.95 0.00335
