0 0
0.05 0.00241
0.1 0.00528
0.15 0.00812
0.2 0.01043
0.25 0.0146
0.3 0.02
0.35 0.02783
0.4 0.03688
0.45 0.04652
0.5 0.04928
0.55 0.04667
0.6 0.04333
0.65 0.0407
0.7 0.03748
0.75 0.03623
0.8 0.03942
0.85 0.04147
0.9 0.0399
0.95 0.03715
1 0.03625
1.05 0.03913
1.1 0.03999
1.15 0.0396
1.2 0.03612
1.25 0.03058
1.3 0.02696
1.35 0.02543
1.4 0.02312
1.45 0.02318
1.5 0.02751
1.55 0.02872
1.6 0.0323
1.65 0.03435
1.7 0.03458
1.75 0.03707
1.8 0.03903
1.85 0.04047
1.9 0.04121
1.95 0.04216
2 0.04462
2.05 0.0436
2.1 0.04249
2.15 0.03955
2.2 0.03751
2.25 0.03699
2.3 0.03503
2.35 0.03682
2.4 0.04059
2.45 0.03992
2.5 0.04136
2.55 0.0431
2.6 0.04043
2.65 0.03381
2.7 0.02895
2.75 0.02755
2.8 0.02241
2.85 0.01929
2.9 0.01879
2.95 0.02203
3 0.02416
3.05 0.02315
3.1 0.02258
3.15 0.02509
3.2 0.02932
3.25 0.02894
3.3 0.02727
3.35 0.02257
3.4 0.02027
3.45 0.02043
3.5 0.02416
3.55 0.02426
3.6 0.02306
3.65 0.02485
3.7 0.0272
3.75 0.03015
3.8 0.02972
3.85 0.03057
3.9 0.03255
3.95 0.03167
4 0.02637
4.05 0.02345
4.1 0.0168
4.15 0.00988
4.2 0.00369
4.25 -0.00246
4.3 -0.00746
4.35 -0.01182
4.4 -0.00967
4.45 -0.00781
4.5 -0.00854
4.55 -0.0045
4.6 0.00096
4.65 0.00165
4.7 0.00137
4.75 -0.0028
4.8 -0.00877
4.85 -0.01164
4.9 -0.01475
4.95 -0.01647
5 -0.01811
5.05 -0.01819
5.1 -0.02188
5.15 -0.02207
5.2 -0.02088
5.25 -0.01774
5.3 -0.01684
5.35 -0.01533
5.4 -0.01898
5.45 -0.01876
5.5 -0.01941
5.55 -0.02291
5.6 -0.02497
5.65 -0.02153
5.7 -0.01931
5.75 -0.01651
5.8 -0.01368
5.85 -0.01074
5.9 -0.00421
5.95 0.00408
6 0.0098
6.05 0.01864
6.1 0.0311
6.15 0.03941
6.2 0.05043
6.25 0.06318
6.3 0.06918
6.35 0.07741
6.4 0.082
6.45 0.08709
6.5 0.092
6.55 0.09071
6.6 0.08435
6.65 0.07519
6.7 0.06495
6.75 0.05254
6.8 0.03911
6.85 0.02662
6.9 0.01275
6.95 -0.00266
7 -0.01763
7.05 -0.0255
7.1 -0.03297
7.15 -0.04163
7.2 -0.04828
7.25 -0.0513
7.3 -0.05126
7.35 -0.05267
7.4 -0.05331
7.45 -0.05472
7.5 -0.05134
7.55 -0.0488
7.6 -0.04634
7.65 -0.04377
7.7 -0.04304
7.75 -0.04198
7.8 -0.03667
7.85 -0.03061
7.9 -0.02471
7.95 -0.0153
8 -0.01003
8.05 -0.00615
8.1 -0.00119
8.15 0.003
8.2 0.00286
8.25 0.0051
8.3 0.00736
8.35 0.01079
8.4 0.01234
8.45 0.01751
8.5 0.02017
8.55 0.02618
8.6 0.03108
8.65 0.03277
8.7 0.03438
8.75 0.03662
8.8 0.0341
8.85 0.03468
8.9 0.03265
8.95 0.0308
9 0.03307
9.05 0.03439
9.1 0.03198
9.15 0.02622
9.2 0.02492
9.25 0.02728
9.3 0.03253
9.35 0.0315
9.4 0.02938
9.45 0.02656
9.5 0.02837
9.55 0.03329
9.6 0.03629
9.65 0.03731
9.7 0.03631
9.75 0.03385
9.8 0.03062
9.85 0.02392
9.9 0.02152
9.95 0.02288
10 0.02122
10.05 0.02076
10.1 0.01859
10.15 0.0147
10.2 0.01576
10.25 0.01911
10.3 0.01956
10.35 0.01476
10.4 0.01368
10.45 0.00886
10.5 0.0055
10.55 0.00424
10.6 0.00436
10.65 0.00228
10.7 0.00001
10.75 -0.00455
10.8 -0.00345
10.85 -0.00534
10.9 -0.00771
10.95 -0.00862
11 -0.00911
11.05 -0.00704
11.1 -0.00547
11.15 -0.00378
11.2 -0.00587
11.25 -0.01023
11.3 -0.01369
11.35 -0.01778
11.4 -0.02224
11.45 -0.02711
11.5 -0.02661
11.55 -0.02136
11.6 -0.0136
11.65 -0.00968
11.7 -0.00466
11.75 0.00085
11.8 0.00146
11.85 0.00247
11.9 0.00076
11.95 0.00244
12 0.0059
12.05 0.00362
12.1 0.00362
12.15 0.00315
12.2 -0.00034
12.25 -0.00152
12.3 -0.00241
12.35 -0.00529
12.4 -0.00566
12.45 -0.00391
12.5 -0.00562
12.55 -0.00492
12.6 -0.00381
12.65 -0.00469
12.7 -0.00254
12.75 -0.00363
12.8 -0.00466
12.85 -0.00356
12.9 -0.0019
12.95 -0.00079
13 -0.00338
13.05 -0.00564
13.1 -0.00535
13.15 -0.00457
13.2 -0.00757
13.25 -0.00653
13.3 -0.00799
13.35 -0.00673
13.4 -0.00331
13.45 0.00023
13.5 0.00044
13.55 0.00181
13.6 0.00627
13.65 0.0098
13.7 0.01056
13.75 0.0072
13.8 0.00312
13.85 -0.00258
13.9 -0.00217
13.95 -0.00297
14 -0.00379
14.05 -0.00564
14.1 -0.00367
14.15 -0.00526
14.2 -0.0049
14.25 -0.00059
14.3 -0.00097
14.35 0.00232
14.4 0.00388
14.45 0.00424
14.5 0.00572
14.55 0.00831
14.6 0.00956
14.65 0.0124
14.7 0.0124
14.75 0.01001
14.8 0.00743
14.85 0.00365
14.9 0.00113
14.95 -0.00459
15 -0.00605
15.05 -0.00669
15.1 -0.00887
15.15 -0.00585
15.2 -0.00575
15.25 -0.00438
15.3 -0.00275
15.35 -0.00499
15.4 -0.00668
15.45 -0.00482
15.5 -0.00326
15.55 -0.00079
15.6 0.00262
15.65 0.00273
15.7 -0.00145
15.75 -0.00755
15.8 -0.01034
15.85 -0.01522
15.9 -0.01322
15.95 -0.00959
16 -0.00566
16.05 -0.00477
16.1 -0.0054
16.15 -0.00481
16.2 -0.00239
16.25 -0.00419
16.3 -0.00898
16.35 -0.01265
16.4 -0.01665
16.45 -0.01514
16.5 -0.01575
16.55 -0.01809
16.6 -0.01483
16.65 -0.00897
16.7 -0.00684
16.75 -0.0037
16.8 0.00135
16.85 0.00768
16.9 0.00927
16.95 0.0117
17 0.014
17.05 0.01553
17.1 0.01641
17.15 0.01282
17.2 0.01345
17.25 0.01651
17.3 0.0162
17.35 0.01613
17.4 0.01192
17.45 0.00781
17.5 0.00302
17.55 0.00202
17.6 -0.00016
17.65 -0.00037
17.7 -0.00076
17.75 0.00187
17.8 0.00008
17.85 0.00049
17.9 -0.00147
17.95 -0.00223
18 -0.00532
18.05 -0.01002
18.1 -0.01311
18.15 -0.01403
18.2 -0.01523
18.25 -0.01646
18.3 -0.01879
18.35 -0.02184
18.4 -0.02408
18.45 -0.02236
18.5 -0.01777
18.55 -0.01537
18.6 -0.0138
18.65 -0.01082
18.7 -0.00482
18.75 0.00296
18.8 0.00574
18.85 0.00574
18.9 0.0014
18.95 -0.00076
19 -0.00409
19.05 -0.00542
19.1 -0.00244
19.15 -0.00275
19.2 -0.00623
19.25 -0.00633
19.3 -0.00791
19.35 -0.00958
19.4 -0.01314
19.45 -0.01073
19.5 -0.00901
19.55 -0.00332
19.6 0.00418
19.65 0.00742
19.7 0.00968
19.75 0.00879
19.8 0.00442
19.85 -0.00251
19.9 -0.00275
19.95 0.00143
20 0.00606
20.05 0.00746
20.1 0.00509
20.15 0.00099
20.2 -0.0019
20.25 -0.00403
20.3 -0.00115
20.35 0.00052
20.4 0.00481
20.45 0.01115
20.5 0.01573
20.55 0.01769
20.6 0.01378
20.65 0.01188
20.7 0.01237
20.75 0.01044
20.8 0.0048
20.85 0.00013
20.9 -0.00451
20.95 -0.00376
21 -0.00383
21.05 0.00021
21.1 -0.0008
21.15 -0.00368
21.2 -0.00533
21.25 -0.00699
21.3 -0.00367
21.35 -0.00275
21.4 -0.00113
21.45 0.0025
21.5 0.00636
21.55 0.01044
21.6 0.00853
21.65 0.00468
21.7 0.00224
21.75 -0.00249
21.8 -0.00516
21.85 -0.00944
21.9 -0.01198
21.95 -0.01455
22 -0.01436
22.05 -0.01431
22.1 -0.01164
22.15 -0.00783
22.2 -0.00123
22.25 0.00425
22.3 0.0072
22.35 0.01121
22.4 0.01669
22.45 0.01538
22.5 0.0101
22.55 0.00767
22.6 0.00394
22.65 -0.00162
22.7 -0.00577
22.75 -0.01089
22.8 -0.01563
22.85 -0.01524
22.9 -0.01697
22.95 -0.01347
23 -0.01068
23.05 -0.01176
23.1 -0.01459
23.15 -0.01122
23.2 -0.00978
23.25 -0.00469
23.3 0.00261
23.35 0.00897
23.4 0.0153
23.45 0.01702
23.5 0.01581
23.55 0.01569
23.6 0.01472
23.65 0.0094
23.7 0.00707
23.75 0.00433
23.8 0.00006
23.85 -0.00169
23.9 -0.0022
23.95 0.00109
24 0.00049
24.05 -0.0018
24.1 -0.00631
24.15 -0.01246
24.2 -0.01332
24.25 -0.00899
24.3 -0.0053
24.35 0.00168
24.4 0.00672
24.45 0.01116
24.5 0.01229
24.55 0.01337
24.6 0.01013
24.65 0.00755
24.7 0.00282
24.75 -0.00123
24.8 -0.00698
24.85 -0.00591
24.9 -0.00493
24.95 -0.00244
25 -0.00007
25.05 -0.00023
25.1 0.00028
25.15 -0.00124
25.2 -0.00527
25.25 -0.00504
25.3 -0.00725
25.35 -0.00832
25.4 -0.00867
25.45 -0.01125
25.5 -0.01185
25.55 -0.01056
25.6 -0.00683
25.65 -0.00433
25.7 -0.00472
25.75 -0.003
25.8 0.00021
25.85 0.00223
25.9 0.00019
25.95 -0.00163
26 -0.00316
26.05 -0.00381
26.1 0.0003
26.15 0.00586
26.2 0.00531
26.25 0.00785
26.3 0.00834
26.35 0.00973
26.4 0.00717
26.45 0.0067
26.5 0.00631
26.55 0.00649
26.6 0.00678
26.65 0.00733
26.7 0.00836
26.75 0.00962
26.8 0.00858
26.85 0.01115
26.9 0.01098
26.95 0.00706
27 0.00494
27.05 0.00447
27.1 0.00006
27.15 -0.00207
27.2 -0.00446
27.25 -0.00445
27.3 -0.00377
27.35 -0.00259
27.4 -0.00535
27.45 -0.01081
27.5 -0.01524
27.55 -0.02048
27.6 -0.02686
27.65 -0.02771
27.7 -0.02651
27.75 -0.02693
27.8 -0.0325
27.85 -0.03554
27.9 -0.03819
27.95 -0.04673
28 -0.05431
28.05 -0.06274
28.1 -0.0786
28.15 -0.09908
28.2 -0.11758
28.25 -0.13753
28.3 -0.16064
28.35 -0.18867
28.4 -0.22466
28.45 -0.26734
28.5 -0.31267
28.55 -0.36106
28.6 -0.41075
28.65 -0.46409
28.7 -0.52893
28.75 -0.60346
28.8 -0.67924
28.85 -0.7582
28.9 -0.84102
28.95 -0.92734
29 -1.01779
29.05 -1.11477
29.1 -1.21594
29.15 -1.31648
29.2 -1.41909
29.25 -1.52479
29.3 -1.62619
29.35 -1.72666
29.4 -1.82428
29.45 -1.9186
29.5 -2.00474
29.55 -2.07862
29.6 -2.14661
29.65 -2.20356
29.7 -2.24972
29.75 -2.28042
29.8 -2.29987
29.85 -2.30639
29.9 -2.30457
29.95 -2.28844
30 -2.25892
30.05 -2.21658
30.1 -2.16089
30.15 -2.09625
30.2 -2.01673
30.25 -1.93093
30.3 -1.83096
30.35 -1.71835
30.4 -1.59969
30.45 -1.47594
30.5 -1.34381
30.55 -1.2086
30.6 -1.06902
30.65 -0.9257
30.7 -0.77872
30.75 -0.62619
30.8 -0.47224
30.85 -0.31241
30.9 -0.1536
30.95 0.0009
31 0.14999
31.05 0.29446
31.1 0.43383
31.15 0.57212
31.2 0.70881
31.25 0.8368
31.3 0.96148
31.35 1.07623
31.4 1.18648
31.45 1.28641
31.5 1.37923
31.55 1.46265
31.6 1.53429
31.65 1.59857
31.7 1.65649
31.75 1.71044
31.8 1.76002
31.85 1.79898
31.9 1.82738
31.95 1.84758
32 1.86617
32.05 1.87835
32.1 1.88604
32.15 1.89555
32.2 1.90442
32.25 1.91417
32.3 1.9192
32.35 1.91899
32.4 1.91651
32.45 1.91242
32.5 1.90339
32.55 1.89746
32.6 1.8881
32.65 1.87881
32.7 1.86797
32.75 1.85195
32.8 1.83888
32.85 1.82586
32.9 1.80598
32.95 1.78309
33 1.75679
33.05 1.72711
33.1 1.70008
33.15 1.6686
33.2 1.63927
33.25 1.60846
33.3 1.57677
33.35 1.54671
33.4 1.51441
33.45 1.48311
33.5 1.45134
33.55 1.41468
33.6 1.37656
33.65 1.33574
33.7 1.29055
33.75 1.24182
33.8 1.19525
33.85 1.15208
33.9 1.11081
33.95 1.06367
34 1.01286
34.05 0.96737
34.1 0.92156
34.15 0.87285
34.2 0.8239
34.25 0.78141
34.3 0.73905
34.35 0.69534
34.4 0.65285
34.45 0.61373
34.5 0.57359
34.55 0.53219
34.6 0.49267
34.65 0.45256
34.7 0.41349
34.75 0.37932
34.8 0.34226
34.85 0.30294
34.9 0.26754
34.95 0.23563
35 0.2018
35.05 0.16697
35.1 0.13508
35.15 0.10593
35.2 0.07921
35.25 0.05832
35.3 0.03887
35.35 0.01764
35.4 -0.00057
35.45 -0.02055
35.5 -0.04475
35.55 -0.06588
35.6 -0.08225
35.65 -0.10312
35.7 -0.1259
35.75 -0.14165
35.8 -0.15668
35.85 -0.17059
35.9 -0.18026
35.95 -0.19243
36 -0.20675
36.05 -0.21593
36.1 -0.2275
36.15 -0.23923
36.2 -0.24755
36.25 -0.25477
36.3 -0.26474
36.35 -0.27195
36.4 -0.28142
36.45 -0.29359
36.5 -0.30476
36.55 -0.31086
36.6 -0.31503
36.65 -0.31916
36.7 -0.3181
36.75 -0.31712
36.8 -0.31311
36.85 -0.30757
36.9 -0.30885
36.95 -0.31302
37 -0.31911
37.05 -0.32518
37.1 -0.3287
37.15 -0.33266
37.2 -0.33577
37.25 -0.33234
37.3 -0.33278
37.35 -0.33273
37.4 -0.33472
37.45 -0.33602
37.5 -0.3353
37.55 -0.33393
37.6 -0.33406
37.65 -0.33028
37.7 -0.32425
37.75 -0.3166
37.8 -0.31164
37.85 -0.30576
37.9 -0.30052
37.95 -0.29877
38 -0.29492
38.05 -0.29101
38.1 -0.29059
38.15 -0.28778
38.2 -0.27989
38.25 -0.27369
38.3 -0.26825
38.35 -0.26346
38.4 -0.25933
38.45 -0.25725
38.5 -0.252
38.55 -0.24391
38.6 -0.23781
38.65 -0.23575
38.7 -0.23693
38.75 -0.23926
38.8 -0.2392
38.85 -0.23681
38.9 -0.23185
38.95 -0.22566
39 -0.21866
39.05 -0.21401
39.1 -0.21099
39.15 -0.20843
39.2 -0.20762
39.25 -0.20817
39.3 -0.2078
39.35 -0.2061
39.4 -0.20143
39.45 -0.19853
39.5 -0.19336
39.55 -0.18632
39.6 -0.17858
39.65 -0.1699
39.7 -0.16723
39.75 -0.16418
39.8 -0.16241
39.85 -0.1594
39.9 -0.16095
39.95 -0.16513
40 -0.16799
40.05 -0.17102
40.1 -0.17035
40.15 -0.16911
40.2 -0.16785
40.25 -0.16471
40.3 -0.16122
40.35 -0.15988
40.4 -0.1562
40.45 -0.15088
40.5 -0.14299
40.55 -0.1373
40.6 -0.13483
40.65 -0.13385
40.7 -0.12851
40.75 -0.12727
40.8 -0.12625
40.85 -0.12769
40.9 -0.1272
40.95 -0.12827
41 -0.1314
41.05 -0.1345
41.1 -0.13493
41.15 -0.13268
41.2 -0.12507
41.25 -0.11874
41.3 -0.11571
41.35 -0.11259
41.4 -0.11032
41.45 -0.10681
41.5 -0.10122
41.55 -0.09426
41.6 -0.08972
41.65 -0.08563
41.7 -0.08348
41.75 -0.08632
41.8 -0.08813
41.85 -0.08537
41.9 -0.08671
41.95 -0.09031
42 -0.0892
42.05 -0.08425
42.1 -0.07746
42.15 -0.07008
42.2 -0.06453
42.25 -0.0657
42.3 -0.07086
42.35 -0.07174
42.4 -0.07528
42.45 -0.08059
42.5 -0.08594
42.55 -0.08939
42.6 -0.0907
42.65 -0.09301
42.7 -0.09162
42.75 -0.08673
42.8 -0.08216
42.85 -0.07894
42.9 -0.07864
42.95 -0.0751
43 -0.0721
43.05 -0.06721
43.1 -0.06042
43.15 -0.05408
43.2 -0.04815
43.25 -0.0441
43.3 -0.04504
43.35 -0.04906
43.4 -0.04923
43.45 -0.04657
43.5 -0.04708
43.55 -0.04348
43.6 -0.04103
43.65 -0.04218
43.7 -0.04305
43.75 -0.04135
43.8 -0.03888
43.85 -0.04014
43.9 -0.04357
43.95 -0.04748
44 -0.05163
44.05 -0.04935
44.1 -0.04653
44.15 -0.0455
44.2 -0.04556
44.25 -0.0454
44.3 -0.04216
44.35 -0.03824
44.4 -0.03197
44.45 -0.02882
44.5 -0.02925
44.55 -0.02738
44.6 -0.02445
44.65 -0.02293
44.7 -0.01946
44.75 -0.01575
44.8 -0.01214
44.85 -0.01301
44.9 -0.01539
44.95 -0.01442
45 -0.0178
45.05 -0.01998
45.1 -0.02499
45.15 -0.02982
45.2 -0.03325
45.25 -0.0339
45.3 -0.03344
45.35 -0.03037
45.4 -0.02702
45.45 -0.02548
45.5 -0.0231
45.55 -0.0229
45.6 -0.02417
45.65 -0.0268
45.7 -0.02733
45.75 -0.02591
45.8 -0.02136
45.85 -0.02147
45.9 -0.01942
45.95 -0.02249
46 -0.02365
46.05 -0.02461
46.1 -0.02763
46.15 -0.02614
46.2 -0.02373
46.25 -0.0225
46.3 -0.01871
46.35 -0.0131
46.4 -0.01051
46.45 -0.01028
46.5 -0.01319
46.55 -0.0162
46.6 -0.01799
46.65 -0.01962
46.7 -0.02302
46.75 -0.02543
46.8 -0.02413
46.85 -0.02528
46.9 -0.02952
46.95 -0.0304
47 -0.03087
47.05 -0.02832
47.1 -0.02496
47.15 -0.0202
47.2 -0.0164
47.25 -0.01648
47.3 -0.01378
47.35 -0.00849
47.4 -0.00211
47.45 0.0036
47.5 0.00669
47.55 0.00387
47.6 0.00256
47.65 0.00398
47.7 0.00696
47.75 0.00645
47.8 0.00535
47.85 0.00264
47.9 -0.00139
47.95 -0.00499
48 -0.00825
48.05 -0.00978
48.1 -0.01434
48.15 -0.01457
48.2 -0.01319
48.25 -0.0162
48.3 -0.01438
48.35 -0.01482
48.4 -0.01909
48.45 -0.02083
48.5 -0.02293
48.55 -0.02155
48.6 -0.01947
48.65 -0.02111
48.7 -0.02277
48.75 -0.02101
48.8 -0.02206
48.85 -0.02392
48.9 -0.02738
48.95 -0.03036
49 -0.03088
49.05 -0.03078
49.1 -0.02727
49.15 -0.0262
49.2 -0.02627
49.25 -0.0227
49.3 -0.02086
49.35 -0.015
49.4 -0.0078
49.45 -0.0001
49.5 0.00284
49.55 0.00552
49.6 0.0064
49.65 0.00262
49.7 -0.00477
49.75 -0.01338
49.8 -0.01832
49.85 -0.01752
49.9 -0.01547
49.95 -0.01409
50 -0.01085
50.05 -0.0109
50.1 -0.01447
50.15 -0.01694
50.2 -0.01956
50.25 -0.01887
50.3 -0.01805
50.35 -0.01305
50.4 -0.01335
50.45 -0.01398
50.5 -0.01267
50.55 -0.00746
50.6 -0.00137
50.65 0.00321
50.7 0.00738
50.75 0.00553
50.8 0.00673
50.85 0.0086
50.9 0.01091
50.95 0.00823
51 0.00141
51.05 -0.00157
51.1 -0.00079
51.15 -0.00401
51.2 -0.00362
51.25 0.00043
51.3 0.00192
51.35 0.0046
51.4 0.00524
51.45 0.00572
51.5 0.00648
51.55 0.00459
51.6 0.00446
51.65 0.00467
51.7 0.0046
51.75 0.00447
51.8 0.00483
51.85 0.007
51.9 0.00628
51.95 0.0046
52 0.00614
52.05 0.00877
52.1 0.00531
52.15 0.0045
52.2 0.00376
52.25 0.00445
52.3 0.00032
52.35 0.00102
52.4 -0.00028
52.45 0.00072
52.5 -0.00153
52.55 0.00037
52.6 0.00338
52.65 0.00582
52.7 0.00382
52.75 0.00505
52.8 0.00213
52.85 -0.00391
52.9 -0.0084
52.95 -0.01329
53 -0.01671
53.05 -0.01549
53.1 -0.01007
53.15 -0.00483
53.2 -0.00174
53.25 -0.00348
53.3 -0.00559
53.35 -0.00597
53.4 -0.0091
53.45 -0.00778
53.5 -0.01019
53.55 -0.01464
53.6 -0.01727
53.65 -0.01561
53.7 -0.01149
53.75 -0.00519
53.8 -0.00516
53.85 -0.00766
53.9 -0.01163
53.95 -0.01062
54 -0.01326
54.05 -0.01109
54.1 -0.00942
54.15 -0.00862
54.2 -0.00701
54.25 -0.00896
54.3 -0.01028
54.35 -0.0101
54.4 -0.00995
54.45 -0.00549
54.5 -0.0019
54.55 0.00316
54.6 0.00441
54.65 0.00644
54.7 0.00851
54.75 0.00856
54.8 0.00858
54.85 0.00541
54.9 0.00018
54.95 -0.00265
55 -0.00415
55.05 -0.00596
55.1 -0.00983
55.15 -0.0079
55.2 -0.00613
55.25 -0.00259
55.3 0.00145
55.35 0.00192
55.4 0.00203
55.45 0.00014
55.5 -0.00085
55.55 -0.00298
55.6 -0.00619
55.65 -0.00697
55.7 -0.00927
55.75 -0.00651
55.8 -0.00609
55.85 -0.00578
55.9 -0.00418
55.95 -0.0061
56 -0.00365
56.05 -0.00484
56.1 -0.00923
56.15 -0.01169
56.2 -0.00995
56.25 -0.00769
56.3 -0.00307
56.35 -0.00021
56.4 0.00458
56.45 0.00523
56.5 0.00536
56.55 0.00428
56.6 0.00439
56.65 0.00422
56.7 0.00496
56.75 0.00187
56.8 -0.00437
56.85 -0.00696
56.9 -0.01125
56.95 -0.01168
57 -0.00993
57.05 -0.01029
57.1 -0.00831
57.15 -0.00372
57.2 0.00325
57.25 0.01068
57.3 0.01372
57.35 0.01824
57.4 0.02
57.45 0.02261
57.5 0.01994
57.55 0.01593
57.6 0.00981
57.65 0.00592
57.7 0.00118
57.75 -0.00142
57.8 -0.00466
57.85 -0.00393
57.9 -0.00025
57.95 -0.00146
58 -0.00455
58.05 -0.00815
58.1 -0.00824
58.15 -0.00429
58.2 -0.00518
58.25 -0.0084
58.3 -0.01186
58.35 -0.01726
58.4 -0.01609
58.45 -0.01238
58.5 -0.00784
58.55 -0.00583
58.6 -0.0082
58.65 -0.00665
58.7 -0.0068
58.75 -0.00297
58.8 -0.00225
58.85 0.00162
58.9 0.0036
58.95 0.00511
59 0.00281
59.05 -0.00248
59.1 -0.00536
59.15 -0.00902
59.2 -0.01083
59.25 -0.01012
59.3 -0.00535
59.35 -0.00564
59.4 -0.00925
59.45 -0.01454
59.5 -0.01435
59.55 -0.01518
59.6 -0.01664
59.65 -0.01403
59.7 -0.00891
59.75 -0.00693
59.8 -0.00811
59.85 -0.01041
59.9 -0.01301
59.95 -0.01607
60 -0.01998
60.05 -0.02362
60.1 -0.02051
60.15 -0.01836
60.2 -0.0131
60.25 -0.00506
60.3 -0.00294
60.35 0.00238
60.4 0.00624
60.45 0.00552
60.5 0.00176
60.55 0.00021
60.6 0.00029
60.65 -0.00177
60.7 -0.00075
60.75 -0.00002
60.8 -0.0009
60.85 -0.00039
60.9 -0.00049
60.95 0.00171
61 0.00484
61.05 0.0075
61.1 0.00498
61.15 0.00409
61.2 0.00455
61.25 0.00414
61.3 0.00679
61.35 0.00766
61.4 0.00565
61.45 0.00497
61.5 0.00113
61.55 -0.00145
61.6 -0.00515
61.65 -0.00713
61.7 -0.00438
61.75 0.00083
61.8 0.00123
61.85 -0.00227
61.9 -0.00683
61.95 -0.00638
62 -0.00384
62.05 -0.00525
62.1 -0.00688
62.15 -0.00448
62.2 -0.00574
62.25 -0.00524
62.3 -0.00134
62.35 -0.00134
62.4 0.00058
62.45 0.00172
62.5 0.0031
62.55 0.00641
62.6 0.012
62.65 0.0106
62.7 0.00601
62.75 0.00044
62.8 -0.00437
62.85 -0.00797
62.9 -0.00668
62.95 -0.00531
63 -0.00423
63.05 -0.00651
63.1 -0.00877
63.15 -0.01123
63.2 -0.01569
63.25 -0.01569
63.3 -0.01734
63.35 -0.01821
63.4 -0.01889
63.45 -0.01353
63.5 -0.00808
63.55 -0.00531
63.6 -0.00245
63.65 0.00122
63.7 0.00376
63.75 0.00638
63.8 0.00902
63.85 0.01382
63.9 0.01377
63.95 0.0101
64 0.00859
64.05 0.00465
64.1 -0.00186
64.15 -0.00253
64.2 -0.00028
64.25 -0.00147
64.3 -0.00385
64.35 -0.00843
64.4 -0.01166
64.45 -0.01479
64.5 -0.01132
64.55 -0.00984
64.6 -0.01077
64.65 -0.0109
64.7 -0.01241
64.75 -0.00806
64.8 -0.00375
64.85 -0.00387
64.9 -0.00331
64.95 0.00027
65 0.00124
65.05 0.00602
65.1 0.00624
65.15 0.0035
65.2 0.00351
65.25 0.00291
65.3 0.00577
65.35 0.00825
65.4 0.00973
65.45 0.01025
65.5 0.00606
65.55 0.00275
65.6 -0.00035
65.65 -0.00256
65.7 0.00009
65.75 0.00373
65.8 0.00243
65.85 -0.00135
65.9 -0.00612
65.95 -0.01126
66 -0.01475
66.05 -0.01262
66.1 -0.01232
66.15 -0.01387
66.2 -0.01679
66.25 -0.01291
66.3 -0.01159
66.35 -0.00552
66.4 -0.00376
66.45 0.00158
66.5 0.00885
66.55 0.01451
66.6 0.01938
66.65 0.02466
66.7 0.02531
66.75 0.02774
66.8 0.02739
66.85 0.02536
66.9 0.02092
66.95 0.01814
67 0.01821
67.05 0.01288
67.1 0.00547
67.15 0.00035
67.2 -0.00397
67.25 -0.00525
67.3 -0.00906
67.35 -0.01451
67.4 -0.01421
67.45 -0.01628
67.5 -0.01711
67.55 -0.01397
67.6 -0.01387
67.65 -0.0154
67.7 -0.01652
67.75 -0.01628
67.8 -0.01246
67.85 -0.00902
67.9 -0.00626
67.95 -0.00357
68 -0.00519
68.05 -0.00183
68.1 0.00397
68.15 0.0098
68.2 0.0097
68.25 0.01273
68.3 0.01739
68.35 0.0218
68.4 0.02134
68.45 0.01807
68.5 0.01277
68.55 0.00788
68.6 0.0055
68.65 -0.00026
68.7 -0.00544
68.75 -0.00446
68.8 -0.00576
68.85 -0.0083
68.9 -0.01309
68.95 -0.01454
69 -0.01698
69.05 -0.01885
69.1 -0.01749
69.15 -0.01179
69.2 -0.00609
69.25 -0.00542
69.3 -0.00405
69.35 -0.003
69.4 0.00091
69.45 0.00554
69.5 0.00757
69.55 0.00546
69.6 0.00574
69.65 0.00304
69.7 -0.001
69.75 -0.00504
69.8 -0.00649
69.85 -0.00936
69.9 -0.00677
69.95 -0.00382
70 0.00134
70.05 0.00863
70.1 0.01482
70.15 0.01684
70.2 0.01839
70.25 0.01854
70.3 0.01679
70.35 0.01521
70.4 0.01102
70.45 0.00468
70.5 0.00195
70.55 -0.00091
70.6 0.00098
70.65 0.00357
70.7 0.00387
70.75 -0.00007
70.8 0.0011
70.85 0.00527
70.9 0.00728
70.95 0.00865
71 0.01285
71.05 0.01203
71.1 0.01362
71.15 0.01044
71.2 0.0072
71.25 0.00167
71.3 -0.00313
71.35 -0.005
71.4 -0.0079
71.45 -0.00712
71.5 -0.00968
71.55 -0.01414
71.6 -0.01869
71.65 -0.02075
71.7 -0.02353
71.75 -0.02664
71.8 -0.02876
71.85 -0.02352
71.9 -0.01977
71.95 -0.01567
72 -0.0098
72.05 -0.00388
72.1 -0.00218
72.15 -0.00026
72.2 0.00039
72.25 0.00103
72.3 0.00563
72.35 0.00507
72.4 0.00677
72.45 0.00411
72.5 -0.00129
72.55 -0.00305
72.6 -0.00046
72.65 -0.00124
72.7 -0.00388
72.75 -0.00568
72.8 -0.00391
72.85 -0.00411
72.9 -0.00177
72.95 0.00139
73 0.0034
73.05 0.00194
73.1 -0.00069
73.15 0.0009
73.2 0.00171
73.25 0.00238
73.3 0.00258
73.35 0.00568
73.4 0.00651
73.45 0.00305
73.5 -0.00166
73.55 -0.00523
73.6 -0.00297
73.65 -0.00363
73.7 -0.00234
73.75 0.00221
73.8 0.00199
73.85 -0.00091
73.9 -0.00054
73.95 0.00224
74 0.00791
74.05 0.01202
74.1 0.01733
74.15 0.0207
74.2 0.02137
74.25 0.02138
74.3 0.02183
74.35 0.02077
74.4 0.01845
74.45 0.01484
74.5 0.01009
74.55 0.00375
74.6 -0.00117
74.65 -0.00169
74.7 -0.00179
74.75 -0.00495
74.8 -0.00659
74.85 -0.00627
74.9 -0.00247
74.95 -0.00174
75 -0.00195
75.05 -0.004
75.1 -0.00673
75.15 -0.00813
75.2 -0.01129
75.25 -0.00986
75.3 -0.00676
75.35 -0.00727
75.4 -0.00897
75.45 -0.01016
75.5 -0.01259
75.55 -0.00974
75.6 -0.00719
75.65 -0.00501
75.7 -0.00704
75.75 -0.00718
75.8 -0.00534
75.85 -0.00518
75.9 -0.00234
75.95 -0.00392
76 -0.00047
76.05 0.00505
76.1 0.01003
76.15 0.0136
76.2 0.01782
76.25 0.02035
76.3 0.02198
76.35 0.02156
76.4 0.02302
76.45 0.01867
76.5 0.01316
76.55 0.0087
76.6 0.00406
76.65 0.00015
76.7 -0.00007
76.75 -0.00258
76.8 -0.00126
76.85 -0.00014
76.9 0.00215
76.95 -0.00015
77 0.0023
77.05 0.00523
77.1 0.01023
77.15 0.01027
77.2 0.00838
77.25 0.00859
77.3 0.0064
77.35 0.00418
77.4 0.00369
77.45 0.00411
77.5 0.00091
77.55 0.00188
77.6 0.00166
77.65 0.00058
77.7 0.00341
77.75 0.00866
77.8 0.00955
77.85 0.0083
77.9 0.0035
77.95 0.00372
78 0.00051
78.05 -0.00237
78.1 -0.00488
78.15 -0.00808
78.2 -0.00607
78.25 -0.00315
78.3 0.00005
78.35 0.00278
78.4 0.00261
78.45 -0.00026
78.5 0.00094
78.55 0.00072
78.6 -0.00155
78.65 -0.00674
78.7 -0.00876
78.75 -0.0096
78.8 -0.01062
78.85 -0.01187
78.9 -0.0156
78.95 -0.01971
79 -0.01982
79.05 -0.01796
79.1 -0.01282
79.15 -0.00919
79.2 -0.00471
79.25 -0.00003
79.3 0.00061
79.35 0.00499
79.4 0.00634
79.45 0.00826
79.5 0.01199
79.55 0.0156
79.6 0.0145
79.65 0.01088
79.7 0.00968
79.75 0.00943
79.8 0.01098
79.85 0.0093
79.9 0.00668
79.95 0.00472
80 0.0047
80.05 0.00384
80.1 -0.00091
80.15 -0.00473
80.2 -0.00474
80.25 -0.00306
80.3 0.00073
80.35 0.003
80.4 0.002
80.45 0.00157
80.5 0.00382
80.55 0.00417
80.6 0.00298
80.65 0.00533
80.7 0.00361
80.75 0.0002
80.8 -0.00573
80.85 -0.00653
80.9 -0.0084
80.95 -0.00732
81 -0.00748
81.05 -0.00529
81.1 -0.00074
81.15 0.00556
81.2 0.00727
81.25 0.00409
81.3 -0.00079
81.35 -0.00314
81.4 -0.0023
81.45 -0.00288
81.5 -0.00483
81.55 -0.0055
81.6 -0.00444
81.65 0.00026
81.7 0.00643
81.75 0.00578
81.8 0.00131
81.85 -0.00289
81.9 -0.00302
81.95 -0.00031
82 0.00498
82.05 0.0075
82.1 0.00855
82.15 0.00706
82.2 0.00425
82.25 0.00437
82.3 0.0069
82.35 0.01008
82.4 0.01227
82.45 0.0117
82.5 0.01019
82.55 0.00489
82.6 0.00487
82.65 0.00769
82.7 0.00849
82.75 0.01161
82.8 0.01468
82.85 0.01488
82.9 0.01694
82.95 0.01401
83 0.01231
83.05 0.00643
83.1 0.00198
83.15 -0.00059
83.2 0.00128
83.25 0.00553
83.3 0.00894
83.35 0.00782
83.4 0.00363
83.45 0.00242
83.5 0.0045
83.55 0.00371
83.6 0.00269
83.65 -0.00274
83.7 -0.00436
83.75 -0.00854
83.8 -0.01413
83.85 -0.01788
83.9 -0.01782
83.95 -0.01681
84 -0.01382
84.05 -0.01089
84.1 -0.00533
84.15 -0.00526
84.2 -0.00334
84.25 -0.00534
84.3 -0.00781
84.35 -0.01035
84.4 -0.01178
84.45 -0.01143
84.5 -0.00753
84.55 -0.00347
84.6 -0.00407
84.65 -0.00162
84.7 -0.00422
84.75 -0.00601
84.8 -0.00342
84.85 0.00163
84.9 0.00705
84.95 0.01092
85 0.01027
85.05 0.00569
85.1 0.00396
85.15 0.0009
85.2 -0.00067
85.25 -0.00112
85.3 -0.00445
85.35 -0.0053
85.4 -0.00631
85.45 -0.00536
85.5 -0.00235
85.55 0.00275
85.6 0.0025
85.65 -0.00103
85.7 -0.00344
85.75 -0.00413
85.8 -0.0016
85.85 0.00124
85.9 0.00216
85.95 0
86 -0.00418
86.05 -0.00353
86.1 -0.00355
86.15 -0.00608
86.2 -0.00596
86.25 -0.00843
86.3 -0.01252
86.35 -0.01834
86.4 -0.02188
86.45 -0.02063
86.5 -0.01485
86.55 -0.01164
86.6 -0.00915
86.65 -0.00978
86.7 -0.01339
86.75 -0.01301
86.8 -0.00841
86.85 -0.00869
86.9 -0.00678
86.95 -0.00861
87 -0.00792
87.05 -0.01012
87.1 -0.01227
87.15 -0.01147
87.2 -0.0069
87.25 -0.00116
87.3 -0.00042
87.35 -0.00154
87.4 -0.00393
87.45 -0.00787
87.5 -0.01211
87.55 -0.01653
87.6 -0.01904
87.65 -0.01525
87.7 -0.01136
87.75 -0.00892
87.8 -0.00847
87.85 -0.01028
87.9 -0.00711
87.95 -0.00139
88 0.00101
88.05 0.00489
88.1 0.00413
88.15 0.00557
88.2 0.00426
88.25 0.00065
88.3 -0.00338
88.35 -0.00589
88.4 -0.00844
88.45 -0.00956
88.5 -0.01225
88.55 -0.01097
88.6 -0.01193
88.65 -0.01084
88.7 -0.00502
88.75 0.00059
88.8 0.00558
88.85 0.00724
88.9 0.00498
88.95 -0.00048
89 -0.00602
89.05 -0.01228
89.1 -0.01582
89.15 -0.01827
89.2 -0.02002
89.25 -0.01603
89.3 -0.01132
89.35 -0.00633
89.4 0.00139
89.45 0.00246
89.5 0.00159
89.55 0.00081
89.6 0.00372
89.65 0.00599
89.7 0.00808
89.75 0.00842
89.8 0.01204
89.85 0.01462
89.9 0.01439
89.95 0.01284
90 0.01294
90.05 0.01398
90.1 0.01013
90.15 0.00514
90.2 -0.00126
90.25 -0.00424
90.3 -0.00815
90.35 -0.00705
90.4 -0.00465
90.45 -0.00402
90.5 -0.00201
90.55 0.00299
90.6 0.00512
90.65 0.00934
90.7 0.0113
90.75 0.01315
90.8 0.01641
90.85 0.01651
90.9 0.01264
90.95 0.01236
91 0.01179
91.05 0.01451
91.1 0.01779
91.15 0.01485
91.2 0.00938
91.25 0.00386
91.3 -0.00221
91.35 -0.00852
91.4 -0.01343
91.45 -0.01469
91.5 -0.01395
91.55 -0.0133
91.6 -0.0099
91.65 -0.00295
91.7 0.00385
91.75 0.00465
91.8 0.00614
91.85 0.00974
91.9 0.00782
91.95 0.00811
92 0.01147
92.05 0.00924
92.1 0.00964
92.15 0.00918
92.2 0.0064
92.25 0.00258
92.3 -0.00293
92.35 -0.00256
92.4 0.00103
92.45 -0.00068
92.5 -0.00016
92.55 0.00339
92.6 0.00318
92.65 0.00193
92.7 0.0009
92.75 -0.00103
92.8 0.00029
92.85 -0.00069
92.9 0.00019
92.95 -0.00224
93 -0.00408
93.05 -0.00251
93.1 -0.00263
93.15 -0.00654
93.2 -0.0051
93.25 -0.00431
93.3 -0.00258
93.35 0.00249
93.4 0.00887
93.45 0.01583
93.5 0.01631
93.55 0.01765
93.6 0.02057
93.65 0.0212
93.7 0.02099
93.75 0.01739
93.8 0.0164
93.85 0.01742
93.9 0.01296
93.95 0.00594
94 0.00414
94.05 0.00192
94.1 -0.00224
94.15 -0.00739
94.2 -0.01162
94.25 -0.00958
94.3 -0.00552
94.35 0.00121
94.4 0.00229
94.45 0.00332
94.5 0.0051
94.55 0.00817
94.6 0.00718
94.65 0.00793
94.7 0.00605
94.75 0.00553
94.8 0.00043
94.85 -0.00337
94.9 -0.00413
94.95 -0.00159
95 0.00197
95.05 0.00116
95.1 -0.00316
95.15 -0.00677
95.2 -0.00502
95.25 -0.00644
95.3 -0.00484
95.35 -0.00454
95.4 -0.00635
95.45 -0.00533
95.5 -0.00832
95.55 -0.00698
95.6 -0.00176
95.65 -0.00032
95.7 0.00248
95.75 0.00611
95.8 0.00871
95.85 0.00973
95.9 0.00568
95.95 0.0027
96 -0.00002
96.05 -0.00545
96.1 -0.0082
96.15 -0.01031
96.2 -0.00935
96.25 -0.01045
96.3 -0.01005
96.35 -0.01304
96.4 -0.01135
96.45 -0.006
96.5 -0.00137
96.55 -0.00079
96.6 -0.00079
96.65 0.003
96.7 0.00388
96.75 0.00463
96.8 0.00084
96.85 0.00062
96.9 0.00054
96.95 -0.00018
97 0.00247
97.05 0.00412
97.1 0.00136
97.15 -0.00087
97.2 -0.0037
97.25 -0.00932
97.3 -0.01043
97.35 -0.00774
97.4 -0.00404
97.45 0.00039
97.5 0.00077
97.55 0.00272
97.6 0.00561
97.65 0.00993
97.7 0.01446
97.75 0.01459
97.8 0.01416
97.85 0.01417
97.9 0.01314
97.95 0.01504
98 0.0166
98.05 0.01765
98.1 0.0165
98.15 0.01196
98.2 0.01019
98.25 0.0062
98.3 0.0062
98.35 0.00819
98.4 0.00874
98.45 0.00655
98.5 0.00427
98.55 0.00537
98.6 0.00113
98.65 0.00174
98.7 -0.00015
98.75 -0.0056
98.8 -0.01021
98.85 -0.01544
98.9 -0.01695
98.95 -0.01483
99 -0.01242
99.05 -0.0125
99.1 -0.01162
99.15 -0.00771
99.2 -0.00749
99.25 -0.0069
99.3 -0.00637
99.35 -0.00827
99.4 -0.0082
99.45 -0.00725
99.5 -0.00641
99.55 -0.00959
99.6 -0.01331
99.65 -0.01416
99.7 -0.01439
99.75 -0.01265
99.8 -0.0126
99.85 -0.01294
99.9 -0.01329
99.95 -0.01526
