0 0
0.05 0.00159
0.1 0.00356
0.15 0.00574
0.2 0.01204
0.25 0.02341
0.3 0.0357
0.35 0.04347
0.4 0.0492
0.45 0.05145
0.5 0.05252
0.55 0.05353
0.6 0.0507
0.65 0.05187
0.7 0.05574
0.75 0.056
0.8 0.05387
0.85 0.05213
0.9 0.04769
0.95 0.04866
1 0.05264
1.05 0.05384
1.1 0.05583
1.15 0.054
1.2 0.05433
1.25 0.05322
1.3 0.05434
1.35 0.04972
1.4 0.04965
1.45 0.04775
1.5 0.04429
1.55 0.0377
1.6 0.03385
1.65 0.03421
1.7 0.03143
1.75 0.02639
1.8 0.0269
1.85 0.02419
1.9 0.02659
1.95 0.03086
2 0.03784
2.05 0.04523
2.1 0.04918
2.15 0.04962
2.2 0.05222
2.25 0.04948
2.3 0.04485
2.35 0.04371
2.4 0.04172
2.45 0.03889
2.5 0.03155
2.55 0.02501
2.6 0.02407
2.65 0.0247
2.7 0.02755
2.75 0.02821
2.8 0.02958
2.85 0.03
2.9 0.02758
2.95 0.02412
3 0.01994
3.05 0.01896
3.1 0.01451
3.15 0.0155
3.2 0.01733
3.25 0.02081
3.3 0.02441
3.35 0.02436
3.4 0.02163
3.45 0.02315
3.5 0.02709
3.55 0.02841
3.6 0.0257
3.65 0.02698
3.7 0.0263
3.75 0.02897
3.8 0.02653
3.85 0.0278
3.9 0.02488
3.95 0.02601
4 0.02444
4.05 0.02405
4.1 0.02481
4.15 0.02644
4.2 0.02337
4.25 0.02268
4.3 0.02122
4.35 0.017
4.4 0.00911
4.45 0.00304
4.5 -0.00025
4.55 -0.00531
4.6 -0.01734
4.65 -0.02888
4.7 -0.04273
4.75 -0.05339
4.8 -0.07009
4.85 -0.08543
4.9 -0.10105
4.95 -0.12213
5 -0.15025
5.05 -0.17951
5.1 -0.20656
5.15 -0.23543
5.2 -0.26803
5.25 -0.30443
5.3 -0.3438
5.35 -0.38347
5.4 -0.41905
5.45 -0.45627
5.5 -0.48796
5.55 -0.51546
5.6 -0.53887
5.65 -0.55733
5.7 -0.57471
5.75 -0.58368
5.8 -0.59118
5.85 -0.58592
5.9 -0.56973
5.95 -0.55167
6 -0.52274
6.05 -0.48764
6.1 -0.44322
6.15 -0.39639
6.2 -0.34724
6.25 -0.29709
6.3 -0.24317
6.35 -0.18778
6.4 -0.12645
6.45 -0.06326
6.5 -0.00718
6.55 0.04064
6.6 0.08481
6.65 0.1213
6.7 0.15851
6.75 0.19342
6.8 0.22618
6.85 0.24864
6.9 0.26979
6.95 0.28678
7 0.30031
7.05 0.30805
7.1 0.31658
7.15 0.32028
7.2 0.31803
7.25 0.31105
7.3 0.30952
7.35 0.30833
7.4 0.30215
7.45 0.29251
7.5 0.28856
7.55 0.2895
7.6 0.29249
7.65 0.2974
7.7 0.29502
7.75 0.29478
7.8 0.29115
7.85 0.29195
7.9 0.29125
7.95 0.28688
8 0.28443
8.05 0.28458
8.1 0.28931
8.15 0.29617
8.2 0.2984
8.25 0.29907
8.3 0.30047
8.35 0.30428
8.4 0.30773
8.45 0.30919
8.5 0.30879
8.55 0.30618
8.6 0.30714
8.65 0.3076
8.7 0.30237
8.75 0.29921
8.8 0.2916
8.85 0.28056
8.9 0.271
8.95 0.26071
9 0.25284
9.05 0.24961
9.1 0.24195
9.15 0.23858
9.2 0.23762
9.25 0.23125
9.3 0.22237
9.35 0.21305
9.4 0.20106
9.45 0.18568
9.5 0.16997
9.55 0.15833
9.6 0.14807
9.65 0.13835
9.7 0.13182
9.75 0.12897
9.8 0.12632
9.85 0.11895
9.9 0.11362
9.95 0.10913
10 0.10451
10.05 0.09751
10.1 0.08703
10.15 0.07347
10.2 0.06303
10.25 0.05571
10.3 0.04948
10.35 0.04263
10.4 0.03306
10.45 0.02329
10.5 0.01672
10.55 0.0088
10.6 0.00071
10.65 -0.00213
10.7 -0.00579
10.75 -0.00827
10.8 -0.00649
10.85 -0.01006
10.9 -0.00875
10.95 -0.00997
11 -0.00813
11.05 -0.00486
11.1 -0.00764
11.15 -0.01119
11.2 -0.01288
11.25 -0.0123
11.3 -0.01194
11.35 -0.01625
11.4 -0.01779
11.45 -0.02148
11.5 -0.02482
11.55 -0.03015
11.6 -0.03481
11.65 -0.0358
11.7 -0.04252
11.75 -0.04702
11.8 -0.05445
11.85 -0.05885
11.9 -0.06027
11.95 -0.0603
12 -0.06061
12.05 -0.05657
12.1 -0.05261
12.15 -0.05537
12.2 -0.06018
12.25 -0.06752
12.3 -0.06753
12.35 -0.06677
12.4 -0.06976
12.45 -0.072
12.5 -0.07026
12.55 -0.06729
12.6 -0.06017
12.65 -0.05221
12.7 -0.05044
12.75 -0.0522
12.8 -0.05465
12.85 -0.05712
12.9 -0.06015
12.95 -0.05747
13 -0.05073
13.05 -0.04199
13.1 -0.03989
13.15 -0.03482
13.2 -0.03326
13.25 -0.03719
13.3 -0.04
13.35 -0.04068
13.4 -0.03868
13.45 -0.03985
13.5 -0.04449
13.55 -0.04423
13.6 -0.046
13.65 -0.04892
13.7 -0.04914
13.75 -0.05107
13.8 -0.05266
13.85 -0.0499
13.9 -0.04584
13.95 -0.04316
14 -0.04451
14.05 -0.04206
14.1 -0.04168
14.15 -0.04345
14.2 -0.04222
14.25 -0.04473
14.3 -0.04113
14.35 -0.03951
14.4 -0.03692
14.45 -0.03722
14.5 -0.03791
14.55 -0.0377
14.6 -0.03587
14.65 -0.03008
14.7 -0.02998
14.75 -0.02917
14.8 -0.03212
14.85 -0.03692
14.9 -0.03612
14.95 -0.03922
15 -0.03633
15.05 -0.03744
15.1 -0.037
15.15 -0.03536
15.2 -0.03678
15.25 -0.03616
15.3 -0.03364
15.35 -0.03046
15.4 -0.025
15.45 -0.01825
15.5 -0.01337
15.55 -0.0134
15.6 -0.01158
15.65 -0.00997
15.7 -0.0137
15.75 -0.01446
15.8 -0.01821
15.85 -0.01759
15.9 -0.01369
15.95 -0.01528
16 -0.01336
16.05 -0.01316
16.1 -0.01212
16.15 -0.01574
16.2 -0.01491
16.25 -0.01778
16.3 -0.01903
16.35 -0.01625
16.4 -0.01322
16.45 -0.01523
16.5 -0.01372
16.55 -0.01272
16.6 -0.01237
16.65 -0.0138
16.7 -0.01764
16.75 -0.02047
16.8 -0.0199
16.85 -0.0221
16.9 -0.025
16.95 -0.02423
17 -0.02586
17.05 -0.02303
17.1 -0.0228
17.15 -0.02337
17.2 -0.02461
17.25 -0.02117
17.3 -0.01636
17.35 -0.01472
17.4 -0.0109
17.45 -0.00922
17.5 -0.00824
17.55 -0.00555
17.6 -0.00772
17.65 -0.01229
17.7 -0.01868
17.75 -0.025
17.8 -0.02572
17.85 -0.0245
17.9 -0.0239
17.95 -0.01847
18 -0.01405
18.05 -0.01088
18.1 -0.006
18.15 -0.00492
18.2 -0.00519
18.25 -0.00822
18.3 -0.00812
18.35 -0.01146
18.4 -0.01409
18.45 -0.01138
18.5 -0.01263
18.55 -0.01713
18.6 -0.01693
18.65 -0.0137
18.7 -0.01324
18.75 -0.00798
18.8 -0.00507
18.85 -0.00349
18.9 -0.00286
18.95 -0.00337
19 -0.00466
19.05 -0.00829
19.1 -0.00734
19.15 -0.00377
19.2 -0.00358
19.25 0.00086
19.3 0.00404
19.35 0.00231
19.4 0.00427
19.45 0.00322
19.5 0.00032
19.55 0.00068
19.6 -0.0038
19.65 -0.009
19.7 -0.01597
19.75 -0.01691
19.8 -0.01704
19.85 -0.01825
19.9 -0.01537
19.95 -0.01169
20 -0.01319
20.05 -0.01099
20.1 -0.00604
20.15 0.00106
20.2 0.00942
20.25 0.01497
20.3 0.01909
20.35 0.02163
20.4 0.02139
20.45 0.01616
20.5 0.01103
20.55 0.01037
20.6 0.00885
20.65 0.00468
20.7 0.00547
20.75 0.00345
20.8 0.00236
20.85 -0.00097
20.9 -0.0028
20.95 -0.00719
21 -0.01393
21.05 -0.01881
21.1 -0.02132
21.15 -0.01819
21.2 -0.01778
21.25 -0.01201
21.3 -0.00386
21.35 0.00083
21.4 0.00495
21.45 0.0094
21.5 0.00933
21.55 0.00684
21.6 0.00772
21.65 0.01061
21.7 0.00929
21.75 0.01109
21.8 0.0084
21.85 0.00562
21.9 0.00443
21.95 -0.00102
22 -0.00036
22.05 -0.00384
22.1 -0.00754
22.15 -0.013
22.2 -0.01954
22.25 -0.02491
22.3 -0.02362
22.35 -0.02151
22.4 -0.0195
22.45 -0.01368
22.5 -0.00572
22.55 0.003
22.6 0.0123
22.65 0.01719
22.7 0.01948
22.75 0.01603
22.8 0.01407
22.85 0.01079
22.9 0.01185
22.95 0.01147
23 0.00797
23.05 0.00144
23.1 0.00042
23.15 -0.00087
23.2 -0.00372
23.25 -0.00149
23.3 -0.0017
23.35 -0.00218
23.4 -0.00031
23.45 -0.00003
23.5 0.00014
23.55 0.00171
23.6 0.00571
23.65 0.00318
23.7 0.00509
23.75 0.00277
23.8 0.00445
23.85 0.00072
23.9 -0.0057
23.95 -0.01083
24 -0.01742
24.05 -0.01669
24.1 -0.01968
24.15 -0.01624
24.2 -0.01338
24.25 -0.00794
24.3 -0.00707
24.35 -0.0104
24.4 -0.01413
24.45 -0.01807
24.5 -0.01879
24.55 -0.02136
24.6 -0.02206
24.65 -0.02245
24.7 -0.02132
24.75 -0.02183
24.8 -0.02424
24.85 -0.02136
24.9 -0.01778
24.95 -0.01144
25 -0.01069
25.05 -0.01211
25.1 -0.01257
25.15 -0.0106
25.2 -0.00483
25.25 0.00063
25.3 0.00619
25.35 0.01307
25.4 0.01456
25.45 0.01439
25.5 0.01379
25.55 0.01006
25.6 0.00439
25.65 -0.00198
25.7 -0.00618
25.75 -0.00959
25.8 -0.00663
25.85 -0.00738
25.9 -0.00766
25.95 -0.01168
26 -0.01756
26.05 -0.01741
26.1 -0.01665
26.15 -0.01561
26.2 -0.01453
26.25 -0.00882
26.3 -0.00854
26.35 -0.00777
26.4 -0.0085
26.45 -0.00452
26.5 0.00269
26.55 0.01025
26.6 0.01068
26.65 0.01259
26.7 0.00921
26.75 0.00817
26.8 0.00617
26.85 0.00169
26.9 0.0017
26.95 0.00244
27 0.00428
27.05 0.00531
27.1 0.00649
27.15 0.00804
27.2 0.00544
27.25 0.00243
27.3 -0.00053
27.35 -0.00584
27.4 -0.00659
27.45 -0.00536
27.5 -0.00617
27.55 -0.00505
27.6 -0.00773
27.65 -0.0126
27.7 -0.01761
27.75 -0.02766
27.8 -0.04323
27.85 -0.06154
27.9 -0.08347
27.95 -0.10655
28 -0.12793
28.05 -0.14587
28.1 -0.1615
28.15 -0.17843
28.2 -0.20222
28.25 -0.23266
28.3 -0.26881
28.35 -0.31091
28.4 -0.3533
28.45 -0.40449
28.5 -0.4583
28.55 -0.52172
28.6 -0.58704
28.65 -0.66201
28.7 -0.73603
28.75 -0.81805
28.8 -0.90009
28.85 -0.98262
28.9 -1.06621
28.95 -1.15277
29 -1.24171
29.05 -1.33841
29.1 -1.43692
29.15 -1.5336
29.2 -1.62789
29.25 -1.71611
29.3 -1.79905
29.35 -1.87876
29.4 -1.94829
29.45 -2.00962
29.5 -2.06218
29.55 -2.10045
29.6 -2.12615
29.65 -2.14728
29.7 -2.15918
29.75 -2.15481
29.8 -2.13558
29.85 -2.10433
29.9 -2.06596
29.95 -2.01368
30 -1.94856
30.05 -1.88062
30.1 -1.80265
30.15 -1.71363
30.2 -1.62088
30.25 -1.51417
30.3 -1.39886
30.35 -1.28176
30.4 -1.15969
30.45 -1.03219
30.5 -0.89943
30.55 -0.76151
30.6 -0.62459
30.65 -0.48144
30.7 -0.34313
30.75 -0.20283
30.8 -0.0665
30.85 0.06703
30.9 0.20143
30.95 0.33665
31 0.4665
31.05 0.59263
31.1 0.71334
31.15 0.82189
31.2 0.92255
31.25 1.01443
31.3 1.09899
31.35 1.18319
31.4 1.25973
31.45 1.33228
31.5 1.3988
31.55 1.45957
31.6 1.51528
31.65 1.56544
31.7 1.6087
31.75 1.64443
31.8 1.68063
31.85 1.71186
31.9 1.73932
31.95 1.76411
32 1.78408
32.05 1.79966
32.1 1.80738
32.15 1.81099
32.2 1.81165
32.25 1.80902
32.3 1.80795
32.35 1.80957
32.4 1.80842
32.45 1.80168
32.5 1.79394
32.55 1.78574
32.6 1.77747
32.65 1.7704
32.7 1.76112
32.75 1.75173
32.8 1.73769
32.85 1.72091
32.9 1.70432
32.95 1.68689
33 1.66663
33.05 1.64191
33.1 1.60996
33.15 1.57445
33.2 1.53677
33.25 1.50252
33.3 1.47072
33.35 1.44031
33.4 1.40814
33.45 1.37081
33.5 1.33004
33.55 1.28687
33.6 1.24155
33.65 1.19919
33.7 1.15524
33.75 1.11183
33.8 1.06464
33.85 1.01978
33.9 0.97487
33.95 0.93225
34 0.88912
34.05 0.85033
34.1 0.80888
34.15 0.77064
34.2 0.72931
34.25 0.69045
34.3 0.65458
34.35 0.618
34.4 0.57975
34.45 0.54331
34.5 0.50816
34.55 0.46602
34.6 0.422
34.65 0.38083
34.7 0.34439
34.75 0.30766
34.8 0.27372
34.85 0.24403
34.9 0.21536
34.95 0.18724
35 0.15519
35.05 0.12052
35.1 0.09285
35.15 0.06491
35.2 0.03766
35.25 0.01237
35.3 -0.00676
35.35 -0.02974
35.4 -0.04716
35.45 -0.06212
35.5 -0.07726
35.55 -0.09239
35.6 -0.10874
35.65 -0.12385
35.7 -0.14026
35.75 -0.15662
35.8 -0.1684
35.85 -0.18392
35.9 -0.19753
35.95 -0.21186
36 -0.22593
36.05 -0.24209
36.1 -0.25463
36.15 -0.26367
36.2 -0.27551
36.25 -0.28164
36.3 -0.28581
36.35 -0.2879
36.4 -0.28977
36.45 -0.2912
36.5 -0.29758
36.55 -0.3075
36.6 -0.3111
36.65 -0.31493
36.7 -0.31484
36.75 -0.3155
36.8 -0.31869
36.85 -0.31899
36.9 -0.32017
36.95 -0.32265
37 -0.31949
37.05 -0.31304
37.1 -0.30953
37.15 -0.30391
37.2 -0.30325
37.25 -0.30798
37.3 -0.31311
37.35 -0.32036
37.4 -0.32716
37.45 -0.33219
37.5 -0.33018
37.55 -0.32695
37.6 -0.31774
37.65 -0.30769
37.7 -0.30044
37.75 -0.29077
37.8 -0.2808
37.85 -0.27178
37.9 -0.27055
37.95 -0.26691
38 -0.26841
38.05 -0.26484
38.1 -0.25854
38.15 -0.25158
38.2 -0.24584
38.25 -0.24698
38.3 -0.24356
38.35 -0.243
38.4 -0.24368
38.45 -0.24564
38.5 -0.24511
38.55 -0.24091
38.6 -0.24087
38.65 -0.23761
38.7 -0.23347
38.75 -0.22647
38.8 -0.21705
38.85 -0.20644
38.9 -0.19877
38.95 -0.19446
39 -0.19711
39.05 -0.19978
39.1 -0.19893
39.15 -0.19617
39.2 -0.19561
39.25 -0.19684
39.3 -0.19281
39.35 -0.18789
39.4 -0.18201
39.45 -0.17691
39.5 -0.17177
39.55 -0.17114
39.6 -0.16704
39.65 -0.161
39.7 -0.15719
39.75 -0.15272
39.8 -0.14686
39.85 -0.14135
39.9 -0.13552
39.95 -0.13286
40 -0.13098
40.05 -0.13341
40.1 -0.13562
40.15 -0.13951
40.2 -0.14697
40.25 -0.15047
40.3 -0.1555
40.35 -0.1588
40.4 -0.16015
40.45 -0.15752
40.5 -0.15209
40.55 -0.14834
40.6 -0.14026
40.65 -0.13462
40.7 -0.13024
40.75 -0.12455
40.8 -0.11877
40.85 -0.11478
40.9 -0.11593
40.95 -0.12109
41 -0.1246
41.05 -0.1264
41.1 -0.12905
41.15 -0.13068
41.2 -0.13113
41.25 -0.12681
41.3 -0.12052
41.35 -0.11301
41.4 -0.10457
41.45 -0.09697
41.5 -0.09086
41.55 -0.08799
41.6 -0.08791
41.65 -0.08632
41.7 -0.08748
41.75 -0.08736
41.8 -0.08602
41.85 -0.08379
41.9 -0.08186
41.95 -0.08361
42 -0.08144
42.05 -0.08134
42.1 -0.08503
42.15 -0.08578
42.2 -0.08969
42.25 -0.08889
42.3 -0.08651
42.35 -0.08363
42.4 -0.07835
42.45 -0.07284
42.5 -0.06722
42.55 -0.06304
42.6 -0.05879
42.65 -0.06015
42.7 -0.06268
42.75 -0.06693
42.8 -0.06868
42.85 -0.07294
42.9 -0.07898
42.95 -0.07804
43 -0.07629
43.05 -0.07372
43.1 -0.07004
43.15 -0.0659
43.2 -0.06245
43.25 -0.06145
43.3 -0.05685
43.35 -0.05268
43.4 -0.04732
43.45 -0.04728
43.5 -0.04907
43.55 -0.0478
43.6 -0.04683
43.65 -0.04651
43.7 -0.04666
43.75 -0.04677
43.8 -0.05087
43.85 -0.05136
43.9 -0.05458
43.95 -0.05825
44 -0.06049
44.05 -0.05703
44.1 -0.05549
44.15 -0.0505
44.2 -0.0481
44.25 -0.04914
44.3 -0.04719
44.35 -0.04716
44.4 -0.04316
44.45 -0.04344
44.5 -0.0416
44.55 -0.03721
44.6 -0.03118
44.65 -0.02784
44.7 -0.02213
44.75 -0.02116
44.8 -0.01938
44.85 -0.01636
44.9 -0.02027
44.95 -0.02752
45 -0.02818
45.05 -0.02632
45.1 -0.02905
45.15 -0.02711
45.2 -0.02238
45.25 -0.02057
45.3 -0.02182
45.35 -0.02427
45.4 -0.02511
45.45 -0.02862
45.5 -0.0305
45.55 -0.0291
45.6 -0.03079
45.65 -0.03536
45.7 -0.04107
45.75 -0.04125
45.8 -0.03662
45.85 -0.02896
45.9 -0.02696
45.95 -0.02674
46 -0.02721
46.05 -0.02932
46.1 -0.03347
46.15 -0.03817
46.2 -0.04233
46.25 -0.04254
46.3 -0.04361
46.35 -0.03997
46.4 -0.03618
46.45 -0.03269
46.5 -0.02819
46.55 -0.02653
46.6 -0.02459
46.65 -0.01992
46.7 -0.0139
46.75 -0.01444
46.8 -0.01365
46.85 -0.01002
46.9 -0.00599
46.95 -0.00464
47 -0.00271
47.05 0.00159
47.1 0.00474
47.15 0.00834
47.2 0.00408
47.25 -0.00457
47.3 -0.01121
47.35 -0.0156
47.4 -0.01414
47.45 -0.01785
47.5 -0.01738
47.55 -0.01482
47.6 -0.01783
47.65 -0.02404
47.7 -0.02979
47.75 -0.0285
47.8 -0.02756
47.85 -0.02777
47.9 -0.0247
47.95 -0.02166
48 -0.01792
48.05 -0.01647
48.1 -0.01238
48.15 -0.00621
48.2 0.00133
48.25 0.00758
48.3 0.01089
48.35 0.01135
48.4 0.00953
48.45 0.00336
48.5 0.00147
48.55 -0.00056
48.6 -0.00453
48.65 -0.00509
48.7 -0.00709
48.75 -0.01115
48.8 -0.01042
48.85 -0.00951
48.9 -0.01088
48.95 -0.01625
49 -0.02352
49.05 -0.03039
49.1 -0.03319
49.15 -0.03671
49.2 -0.03681
49.25 -0.0392
49.3 -0.03634
49.35 -0.03043
49.4 -0.02096
49.45 -0.01272
49.5 -0.01168
49.55 -0.01106
49.6 -0.00963
49.65 -0.00737
49.7 -0.00166
49.75 0.00043
49.8 0.00264
49.85 0.00125
49.9 -0.00252
49.95 -0.00598
50 -0.00688
50.05 -0.01146
50.1 -0.01658
50.15 -0.02269
50.2 -0.0273
50.25 -0.03078
50.3 -0.02833
50.35 -0.02069
50.4 -0.01126
50.45 -0.00783
50.5 -0.00214
50.55 0.00201
50.6 0.00474
50.65 0.00775
50.7 0.0113
50.75 0.01484
50.8 0.0183
50.85 0.0178
50.9 0.01608
50.95 0.01434
51 0.01454
51.05 0.01236
51.1 0.01141
51.15 0.01246
51.2 0.01145
51.25 0.00969
51.3 0.00498
51.35 -0.00016
51.4 -0.00199
51.45 0.00073
51.5 0.00328
51.55 0.00202
51.6 -0.00121
51.65 -0.00099
51.7 -0.00166
51.75 -0.00219
51.8 -0.00227
51.85 -0.00266
51.9 -0.00325
51.95 -0.0058
52 -0.00494
52.05 -0.00294
52.1 0.00096
52.15 0.00121
52.2 0.0029
52.25 0.0039
52.3 0.00093
52.35 -0.0026
52.4 -0.00872
52.45 -0.0116
52.5 -0.0154
52.55 -0.02043
52.6 -0.0248
52.65 -0.02303
52.7 -0.02097
52.75 -0.0168
52.8 -0.0117
52.85 -0.00451
52.9 -0.00243
52.95 -0.00161
53 -0.00565
53.05 -0.0125
53.1 -0.01377
53.15 -0.01521
53.2 -0.01612
53.25 -0.01778
53.3 -0.01754
53.35 -0.01303
53.4 -0.00658
53.45 -0.00149
53.5 0.00323
53.55 0.00644
53.6 0.00645
53.65 0.00542
53.7 0.00525
53.75 0.00311
53.8 -0.00275
53.85 -0.00385
53.9 -0.00393
53.95 -0.00473
54 -0.00898
54.05 -0.00864
54.1 -0.00983
54.15 -0.01341
54.2 -0.01463
54.25 -0.0101
54.3 -0.009
54.35 -0.01047
54.4 -0.01253
54.45 -0.0121
54.5 -0.00838
54.55 -0.00818
54.6 -0.00603
54.65 -0.00428
54.7 -0.00264
54.75 0.00236
54.8 0.00589
54.85 0.0065
54.9 0.00688
54.95 0.00461
55 0.00492
55.05 0.00524
55.1 0.00348
55.15 0.00176
55.2 0.00064
55.25 0.00067
55.3 0.00448
55.35 0.0057
55.4 0.0045
55.45 0.00738
55.5 0.01125
55.55 0.01138
55.6 0.01185
55.65 0.0093
55.7 0.00455
55.75 0.00081
55.8 -0.00094
55.85 -0.00571
55.9 -0.0064
55.95 -0.00377
56 -0.00248
56.05 0.00053
56.1 0.00063
56.15 -0.00162
56.2 -0.00259
56.25 -0.00428
56.3 -0.00666
56.35 -0.0117
56.4 -0.01334
56.45 -0.00922
56.5 -0.00369
56.55 0.00012
56.6 0.00106
56.65 0.00048
56.7 -0.00394
56.75 -0.00751
56.8 -0.01354
56.85 -0.01708
56.9 -0.0181
56.95 -0.01438
57 -0.01469
57.05 -0.0125
57.1 -0.00635
57.15 -0.00614
57.2 -0.00963
57.25 -0.00695
57.3 -0.00238
57.35 0.0026
57.4 0.00578
57.45 0.00975
57.5 0.01066
57.55 0.00686
57.6 0.00171
57.65 -0.00029
57.7 -0.00454
57.75 -0.01067
57.8 -0.01534
57.85 -0.01722
57.9 -0.01676
57.95 -0.01591
58 -0.01195
58.05 -0.00732
58.1 -0.00137
58.15 0.00555
58.2 0.01341
58.25 0.01822
58.3 0.02301
58.35 0.02145
58.4 0.01641
58.45 0.01013
58.5 0.0016
58.55 -0.00431
58.6 -0.00526
58.65 -0.01009
58.7 -0.01643
58.75 -0.01493
58.8 -0.01176
58.85 -0.00916
58.9 -0.00402
58.95 0.00249
59 0.00409
59.05 0.00318
59.1 -0.00124
59.15 -0.00599
59.2 -0.00927
59.25 -0.01206
59.3 -0.01531
59.35 -0.017
59.4 -0.01793
59.45 -0.01409
59.5 -0.01295
59.55 -0.01246
59.6 -0.0095
59.65 -0.00243
59.7 0.00558
59.75 0.01274
59.8 0.01708
59.85 0.01888
59.9 0.01659
59.95 0.01132
60 0.00568
60.05 0.00431
60.1 0.00733
60.15 0.00634
60.2 0.00822
60.25 0.01118
60.3 0.00803
60.35 0.00315
60.4 -0.0001
60.45 -0.00261
60.5 -0.00424
60.55 -0.0043
60.6 -0.00255
60.65 0.00046
60.7 0.00421
60.75 0.00652
60.8 0.0104
60.85 0.00815
60.9 0.00945
60.95 0.00844
61 0.0049
61.05 -0.00071
61.1 -0.0051
61.15 -0.00817
61.2 -0.0101
61.25 -0.01353
61.3 -0.01802
61.35 -0.0158
61.4 -0.0097
61.45 -0.00303
61.5 0.00477
61.55 0.00825
61.6 0.00996
61.65 0.01222
61.7 0.01053
61.75 0.01011
61.8 0.00871
61.85 0.00725
61.9 0.00243
61.95 -0.00021
62 -0.00407
62.05 -0.0061
62.1 -0.00492
62.15 -0.00075
62.2 -0.0027
62.25 -0.00489
62.3 -0.00785
62.35 -0.01235
62.4 -0.01252
62.45 -0.01193
62.5 -0.01273
62.55 -0.00867
62.6 -0.00569
62.65 0.00068
62.7 0.00279
62.75 -0.00038
62.8 -0.00027
62.85 0.00048
62.9 0.00473
62.95 0.01018
63 0.01537
63.05 0.01698
63.1 0.01863
63.15 0.02008
63.2 0.02093
63.25 0.0233
63.3 0.02608
63.35 0.02767
63.4 0.02169
63.45 0.02016
63.5 0.02067
63.55 0.01842
63.6 0.01631
63.65 0.01377
63.7 0.01081
63.75 0.00635
63.8 0.00063
63.85 -0.00145
63.9 -0.0053
63.95 -0.009
64 -0.01036
64.05 -0.01103
64.1 -0.01066
64.15 -0.00698
64.2 -0.00856
64.25 -0.01238
64.3 -0.01122
64.35 -0.01276
64.4 -0.01346
64.45 -0.01072
64.5 -0.00698
64.55 -0.00289
64.6 0.00323
64.65 0.00874
64.7 0.01106
64.75 0.00764
64.8 0.00236
64.85 0.0017
64.9 0.00035
64.95 -0.00509
65 -0.00999
65.05 -0.00998
65.1 -0.01092
65.15 -0.00888
65.2 -0.00431
65.25 -0.00249
65.3 -0.00434
65.35 -0.00481
65.4 -0.00737
65.45 -0.00951
65.5 -0.00663
65.55 -0.00156
65.6 0.00583
65.65 0.01307
65.7 0.0175
65.75 0.01403
65.8 0.01374
65.85 0.01452
65.9 0.01381
65.95 0.01431
66 0.01244
66.05 0.01188
66.1 0.01196
66.15 0.00841
66.2 0.00763
66.25 0.00487
66.3 0.00076
66.35 -0.00622
66.4 -0.01285
66.45 -0.01386
66.5 -0.01197
66.55 -0.01429
66.6 -0.01359
66.65 -0.01298
66.7 -0.01152
66.75 -0.01069
66.8 -0.00668
66.85 -0.00377
66.9 0.00214
66.95 0.00865
67 0.00949
67.05 0.00595
67.1 0.00055
67.15 -0.00644
67.2 -0.01482
67.25 -0.01535
67.3 -0.01733
67.35 -0.02144
67.4 -0.02674
67.45 -0.02934
67.5 -0.02733
67.55 -0.02002
67.6 -0.01359
67.65 -0.00969
67.7 -0.00481
67.75 -0.00293
67.8 0.00087
67.85 0.00141
67.9 0.00158
67.95 -0.00105
68 -0.00173
68.05 0.00203
68.1 0.0083
68.15 0.01487
68.2 0.01795
68.25 0.01782
68.3 0.01345
68.35 0.01109
68.4 0.00542
68.45 0.00035
68.5 0.001
68.55 0.00546
68.6 0.01013
68.65 0.01559
68.7 0.0209
68.75 0.02411
68.8 0.02338
68.85 0.01878
68.9 0.0161
68.95 0.01479
69 0.01103
69.05 0.01004
69.1 0.00706
69.15 0.00569
69.2 0.00721
69.25 0.00444
69.3 0.00598
69.35 0.00461
69.4 0.00565
69.45 0.00429
69.5 0.00592
69.55 0.00631
69.6 0.00882
69.65 0.00661
69.7 0.00849
69.75 0.00446
69.8 -0.00255
69.85 -0.00404
69.9 -0.00353
69.95 -0.00691
70 -0.00717
70.05 -0.00577
70.1 -0.00762
70.15 -0.00687
70.2 -0.00329
70.25 0.0014
70.3 0.00289
70.35 0.00562
70.4 0.00848
70.45 0.00612
70.5 0.00791
70.55 0.00671
70.6 0.00376
70.65 0.00029
70.7 -0.0026
70.75 -0.00239
70.8 -0.00382
70.85 -0.00627
70.9 -0.00971
70.95 -0.00837
71 -0.00577
71.05 -0.00797
71.1 -0.00615
71.15 -0.00816
71.2 -0.00569
71.25 -0.00208
71.3 0.00394
71.35 0.00822
71.4 0.0103
71.45 0.01346
71.5 0.01049
71.55 0.00466
71.6 0.00328
71.65 0.0035
71.7 0.00712
71.75 0.01031
71.8 0.01385
71.85 0.01814
71.9 0.02165
71.95 0.0244
72 0.02493
72.05 0.02442
72.1 0.02248
72.15 0.01959
72.2 0.01456
72.25 0.00714
72.3 -0.00218
72.35 -0.00498
72.4 -0.0069
72.45 -0.0061
72.5 -0.00228
72.55 -0.00449
72.6 -0.00698
72.65 -0.00681
72.7 -0.00715
72.75 -0.00972
72.8 -0.01537
72.85 -0.02244
72.9 -0.02313
72.95 -0.02135
73 -0.01531
73.05 -0.00873
73.1 -0.00009
73.15 0.0023
73.2 0.00734
73.25 0.01032
73.3 0.01059
73.35 0.01307
73.4 0.01392
73.45 0.01677
73.5 0.01526
73.55 0.00889
73.6 -0.00105
73.65 -0.00613
73.7 -0.01194
73.75 -0.0163
73.8 -0.01457
73.85 -0.01142
73.9 -0.00489
73.95 -0.00419
74 -0.00442
74.05 -0.00373
74.1 -0.0022
74.15 -0.00119
74.2 -0.00513
74.25 -0.00484
74.3 -0.00124
74.35 -0.00061
74.4 -0.00095
74.45 -0.00255
74.5 -0.00195
74.55 -0.00258
74.6 -0.00775
74.65 -0.01439
74.7 -0.01648
74.75 -0.02045
74.8 -0.02617
74.85 -0.03082
74.9 -0.03034
74.95 -0.02602
75 -0.01866
75.05 -0.01549
75.1 -0.0128
75.15 -0.01016
75.2 -0.00829
75.25 -0.00718
75.3 -0.00724
75.35 -0.00943
75.4 -0.01325
75.45 -0.01797
75.5 -0.02044
75.55 -0.02101
75.6 -0.02288
75.65 -0.02476
75.7 -0.02332
75.75 -0.02068
75.8 -0.01791
75.85 -0.01207
75.9 -0.00334
75.95 0.00494
76 0.01213
76.05 0.01322
76.1 0.00871
76.15 0.00078
76.2 -0.00227
76.25 -0.00518
76.3 -0.00669
76.35 -0.00391
76.4 -0.00297
76.45 -0.00327
76.5 -0.00562
76.55 -0.00459
76.6 -0.00473
76.65 -0.00163
76.7 -0.00345
76.75 -0.00317
76.8 0.00102
76.85 0.00766
76.9 0.00761
76.95 0.00827
77 0.00404
77.05 -0.00016
77.1 -0.00497
77.15 -0.00624
77.2 -0.01073
77.25 -0.00999
77.3 -0.00834
77.35 -0.00423
77.4 -0.00092
77.45 0.00294
77.5 0.00093
77.55 -0.00306
77.6 -0.00342
77.65 0.00084
77.7 0.00078
77.75 0.00287
77.8 0.00435
77.85 0.00333
77.9 0.00644
77.95 0.01199
78 0.0115
78.05 0.01267
78.1 0.00996
78.15 0.01004
78.2 0.0079
78.25 0.00426
78.3 -0.00233
78.35 -0.01029
78.4 -0.0111
78.45 -0.01226
78.5 -0.01167
78.55 -0.01497
78.6 -0.01769
78.65 -0.0177
78.7 -0.01613
78.75 -0.01263
78.8 -0.00752
78.85 -0.00091
78.9 0.0015
78.95 0.00422
79 0.00843
79.05 0.00995
79.1 0.00797
79.15 0.00888
79.2 0.00831
79.25 0.00325
79.3 -0.00456
79.35 -0.00596
79.4 -0.00901
79.45 -0.01322
79.5 -0.0187
79.55 -0.02312
79.6 -0.02374
79.65 -0.02153
79.7 -0.01855
79.75 -0.01881
79.8 -0.02146
79.85 -0.02183
79.9 -0.02298
79.95 -0.02529
80 -0.02699
80.05 -0.02585
80.1 -0.01924
80.15 -0.01476
80.2 -0.00855
80.25 -0.00015
80.3 0.00474
80.35 0.00877
80.4 0.01524
80.45 0.01722
80.5 0.01869
80.55 0.0186
80.6 0.02079
80.65 0.01826
80.7 0.01879
80.75 0.01681
80.8 0.01709
80.85 0.01399
80.9 0.00929
80.95 0.00183
81 -0.00037
81.05 -0.00009
81.1 -0.00301
81.15 -0.00239
81.2 -0.00381
81.25 -0.00404
81.3 -0.0049
81.35 -0.00521
81.4 -0.008
81.45 -0.00538
81.5 -0.00036
81.55 0.00186
81.6 -0.00067
81.65 0.00139
81.7 0.0027
81.75 0.00546
81.8 0.01029
81.85 0.01326
81.9 0.01698
81.95 0.02148
82 0.01977
82.05 0.01315
82.1 0.00339
82.15 -0.00739
82.2 -0.01314
82.25 -0.01974
82.3 -0.01892
82.35 -0.01384
82.4 -0.00628
82.45 -0.00319
82.5 0.00037
82.55 0.00245
82.6 0.00722
82.65 0.01099
82.7 0.01456
82.75 0.01303
82.8 0.01409
82.85 0.01338
82.9 0.00909
82.95 0.00413
83 0.00084
83.05 0.00263
83.1 0.00318
83.15 0.0003
83.2 -0.00479
83.25 -0.01219
83.3 -0.01673
83.35 -0.01556
83.4 -0.01714
83.45 -0.01456
83.5 -0.00941
83.55 -0.00347
83.6 0.00228
83.65 0.00868
83.7 0.00786
83.75 0.00414
83.8 0.0046
83.85 0.0058
83.9 0.00904
83.95 0.01286
84 0.01646
84.05 0.01481
84.1 0.01131
84.15 0.00888
84.2 0.00395
84.25 0.0013
84.3 0.00194
84.35 0.00166
84.4 0.00094
84.45 0.003
84.5 0.00241
84.55 0.00096
84.6 0.00293
84.65 0.00513
84.7 0.00297
84.75 0.00208
84.8 -0.00204
84.85 -0.00529
84.9 -0.00347
84.95 -0.00357
85 -0.00471
85.05 -0.00282
85.1 -0.00394
85.15 -0.00556
85.2 -0.00511
85.25 -0.0072
85.3 -0.00609
85.35 -0.00705
85.4 -0.00624
85.45 -0.00404
85.5 -0.00551
85.55 -0.00427
85.6 0.00047
85.65 0.00008
85.7 0.00394
85.75 0.00836
85.8 0.0076
85.85 0.00827
85.9 0.00463
85.95 -0.00135
86 -0.00512
86.05 -0.00872
86.1 -0.00701
86.15 -0.00111
86.2 0.00455
86.25 0.00989
86.3 0.01012
86.35 0.00653
86.4 0.00315
86.45 0.00264
86.5 0.00177
86.55 0.00014
86.6 0.00192
86.65 0.00623
86.7 0.00679
86.75 0.00821
86.8 0.00376
86.85 0.0034
86.9 0.00284
86.95 -0.00071
87 -0.00716
87.05 -0.00728
87.1 -0.008
87.15 -0.00375
87.2 -0.00342
87.25 0.00034
87.3 0.00269
87.35 0.00643
87.4 0.00437
87.45 0.0069
87.5 0.00515
87.55 0.00672
87.6 0.00363
87.65 0.00053
87.7 -0.00133
87.75 -0.00458
87.8 -0.00205
87.85 0.00078
87.9 0.00121
87.95 0.004
88 0.00211
88.05 -0.00159
88.1 -0.00811
88.15 -0.01175
88.2 -0.014
88.25 -0.01866
88.3 -0.01977
88.35 -0.01798
88.4 -0.01166
88.45 -0.00998
88.5 -0.00452
88.55 0.00275
88.6 0.00958
88.65 0.0098
88.7 0.01215
88.75 0.01169
88.8 0.01245
88.85 0.0148
88.9 0.01548
88.95 0.0168
89 0.01323
89.05 0.01189
89.1 0.01381
89.15 0.01242
89.2 0.00815
89.25 0.00322
89.3 0.00166
89.35 -0.00233
89.4 -0.00662
89.45 -0.00797
89.5 -0.00584
89.55 -0.00272
89.6 -0.00327
89.65 -0.00458
89.7 -0.0073
89.75 -0.01257
89.8 -0.01353
89.85 -0.01041
89.9 -0.00938
89.95 -0.01218
90 -0.01638
90.05 -0.01895
90.1 -0.0229
90.15 -0.0237
90.2 -0.01821
90.25 -0.00984
90.3 -0.00302
90.35 0.00572
90.4 0.01048
90.45 0.01424
90.5 0.01188
90.55 0.00643
90.6 0.00087
90.65 -0.00474
90.7 -0.01244
90.75 -0.02003
90.8 -0.02149
90.85 -0.0174
90.9 -0.00949
90.95 -0.00588
91 0.00079
91.05 0.00414
91.1 0.00878
91.15 0.01268
91.2 0.01837
91.25 0.02357
91.3 0.02325
91.35 0.01876
91.4 0.01777
91.45 0.01941
91.5 0.02222
91.55 0.01878
91.6 0.01756
91.65 0.01727
91.7 0.01925
91.75 0.02181
91.8 0.02297
91.85 0.02133
91.9 0.0175
91.95 0.01488
92 0.01153
92.05 0.00716
92.1 0.00735
92.15 0.00483
92.2 0.00359
92.25 0.00491
92.3 0.00244
92.35 0.00407
92.4 0.00393
92.45 -0.00135
92.5 -0.00716
92.55 -0.00944
92.6 -0.00812
92.65 -0.00354
92.7 0.00071
92.75 -0.00099
92.8 0.00052
92.85 0.00053
92.9 0.00221
92.95 0.0061
93 0.00767
93.05 0.00925
93.1 0.00804
93.15 0.0069
93.2 0.00555
93.25 0.00781
93.3 0.00625
93.35 0.00368
93.4 0.00361
93.45 0.00368
93.5 0.00231
93.55 0.00416
93.6 0.00243
93.65 0.00132
93.7 -0.00321
93.75 -0.00293
93.8 -0.00319
93.85 -0.00199
93.9 -0.00297
93.95 -0.00595
94 -0.00726
94.05 -0.00959
94.1 -0.01179
94.15 -0.01023
94.2 -0.00693
94.25 -0.00812
94.3 -0.00948
94.35 -0.01334
94.4 -0.01772
94.45 -0.01544
94.5 -0.01209
94.55 -0.0074
94.6 -0.00246
94.65 0.00332
94.7 0.00294
94.75 -0.0001
94.8 -0.00051
94.85 0.0026
94.9 0.0033
94.95 0.00116
95 0.00003
95.05 0.00138
95.1 0.00185
95.15 0.00293
95.2 0.00101
95.25 0.00337
95.3 0.00804
95.35 0.01242
95.4 0.01649
95.45 0.01975
95.5 0.02329
95.55 0.02072
95.6 0.01987
95.65 0.01338
95.7 0.00831
95.75 0.00764
95.8 0.00326
95.85 0.00053
95.9 -0.00416
95.95 -0.00831
96 -0.00801
96.05 -0.01017
96.1 -0.01561
96.15 -0.01471
96.2 -0.01577
96.25 -0.01522
96.3 -0.01706
96.35 -0.02031
96.4 -0.01772
96.45 -0.01327
96.5 -0.00776
96.55 -0.0053
96.6 -0.00553
96.65 -0.00734
96.7 -0.01012
96.75 -0.01115
96.8 -0.0085
96.85 -0.00943
96.9 -0.00826
96.95 -0.00864
97 -0.00799
97.05 -0.00938
97.1 -0.01006
97.15 -0.01228
97.2 -0.0167
97.25 -0.0141
97.3 -0.01505
97.35 -0.01782
97.4 -0.0139
97.45 -0.0083
97.5 -0.0085
97.55 -0.00429
97.6 -0.00533
97.65 -0.0036
97.7 -0.00094
97.75 0.00279
97.8 0.00647
97.85 0.01202
97.9 0.01174
97.95 0.01078
98 0.01076
98.05 0.01221
98.1 0.01379
98.15 0.00973
98.2 0.00436
98.25 -0.00037
98.3 -0.00552
98.35 -0.00872
98.4 -0.01424
98.45 -0.01357
98.5 -0.01588
98.55 -0.01542
98.6 -0.01457
98.65 -0.01326
98.7 -0.01512
98.75 -0.01322
98.8 -0.01106
98.85 -0.0054
98.9 0.00145
98.95 0.00499
99 0.00455
99.05 0.00513
99.1 0.00063
99.15 0.00107
99.2 0.00392
99.25 0.00156
99.3 0.00266
99.35 0.00445
99.4 0.00681
99.45 0.00688
99.5 0.00701
99.55 0.00453
99.6 0.00532
99.65 0.00546
99.7 0.00306
99.75 -0.00178
99.8 -0.00129
99.85 0.00005
99.9 -0.00148
99.95 -0.00603
