0 0
0.05 0.0025
0.1 0.00615
0.15 0.01054
0.2 0.01263
0.25 0.0206
0.3 0.02894
0.35 0.03965
0.4 0.04636
0.45 0.04898
0.5 0.05536
0.55 0.05832
0.6 0.05796
0.65 0.05345
0.7 0.0529
0.75 0.05496
0.8 0.05159
0.85 0.05119
0.9 0.04841
0.95 0.04765
1 0.05026
1.05 0.05157
1.1 0.04976
1.15 0.04946
1.2 0.04927
1.25 0.05251
1.3 0.05459
1.35 0.05171
1.4 0.05092
1.45 0.04634
1.5 0.04579
1.55 0.04196
1.6 0.04034
1.65 0.04327
1.7 0.04034
1.75 0.03878
1.8 0.03993
1.85 0.04178
1.9 0.04411
1.95 0.04402
2 0.03906
2.05 0.03638
2.1 0.03083
2.15 0.02428
2.2 0.02205
2.25 0.02323
2.3 0.02552
2.35 0.02796
2.4 0.0272
2.45 0.0277
2.5 0.02782
2.55 0.03151
2.6 0.03692
2.65 0.04173
2.7 0.04708
2.75 0.04721
2.8 0.04506
2.85 0.04247
2.9 0.04098
2.95 0.0353
3 0.02763
3.05 0.01834
3.1 0.01051
3.15 0.00171
3.2 -0.00196
3.25 -0.00019
3.3 0.00078
3.35 0.00678
3.4 0.01544
3.45 0.02177
3.5 0.02526
3.55 0.02861
3.6 0.02884
3.65 0.02513
3.7 0.02478
3.75 0.02088
3.8 0.01461
3.85 0.01214
3.9 0.01119
3.95 0.00945
4 0.00886
4.05 0.01212
4.1 0.00987
4.15 0.01004
4.2 0.01196
4.25 0.01457
4.3 0.01569
4.35 0.01031
4.4 0.00761
4.45 0.00025
4.5 -0.00477
4.55 -0.013
4.6 -0.02024
4.65 -0.02839
4.7 -0.04309
4.75 -0.06119
4.8 -0.08816
4.85 -0.12285
4.9 -0.16222
4.95 -0.20277
5 -0.24605
5.05 -0.29405
5.1 -0.34936
5.15 -0.40468
5.2 -0.46222
5.25 -0.52221
5.3 -0.58762
5.35 -0.6638
5.4 -0.74522
5.45 -0.8358
5.5 -0.93215
5.55 -1.02671
5.6 -1.12568
5.65 -1.22768
5.7 -1.32391
5.75 -1.41522
5.8 -1.5079
5.85 -1.59727
5.9 -1.68591
5.95 -1.76829
6 -1.84572
6.05 -1.92101
6.1 -1.99509
6.15 -2.06491
6.2 -2.13235
6.25 -2.19774
6.3 -2.2589
6.35 -2.30747
6.4 -2.34505
6.45 -2.37261
6.5 -2.39485
6.55 -2.40912
6.6 -2.41186
6.65 -2.40298
6.7 -2.38855
6.75 -2.3675
6.8 -2.33661
6.85 -2.28503
6.9 -2.21624
6.95 -2.12871
7 -2.02616
7.05 -1.9108
7.1 -1.7786
7.15 -1.63497
7.2 -1.47763
7.25 -1.3089
7.3 -1.1302
7.35 -0.95021
7.4 -0.7688
7.45 -0.58141
7.5 -0.38662
7.55 -0.194
7.6 -0.00129
7.65 0.19146
7.7 0.37613
7.75 0.55947
7.8 0.73447
7.85 0.89966
7.9 1.05726
7.95 1.20526
8 1.33602
8.05 1.45216
8.1 1.55419
8.15 1.65225
8.2 1.74365
8.25 1.81981
8.3 1.88616
8.35 1.94261
8.4 1.98682
8.45 2.02316
8.5 2.05397
8.55 2.07939
8.6 2.10045
8.65 2.11835
8.7 2.12695
8.75 2.13019
8.8 2.12955
8.85 2.124
8.9 2.11692
8.95 2.10441
9 2.09182
9.05 2.08317
9.1 2.0743
9.15 2.05949
9.2 2.04692
9.25 2.03471
9.3 2.0144
9.35 1.9963
9.4 1.97143
9.45 1.94266
9.5 1.91343
9.55 1.88614
9.6 1.86244
9.65 1.83971
9.7 1.81895
9.75 1.79584
9.8 1.7692
9.85 1.74274
9.9 1.71189
9.95 1.67517
10 1.63742
10.05 1.59886
10.1 1.56575
10.15 1.53614
10.2 1.50709
10.25 1.47681
10.3 1.44412
10.35 1.40266
10.4 1.35868
10.45 1.31506
10.5 1.27172
10.55 1.2259
10.6 1.17976
10.65 1.13399
10.7 1.08454
10.75 1.03672
10.8 0.99536
10.85 0.95164
10.9 0.90752
10.95 0.86477
11 0.8205
11.05 0.77776
11.1 0.73137
11.15 0.68326
11.2 0.63487
11.25 0.5878
11.3 0.54438
11.35 0.50283
11.4 0.46366
11.45 0.42545
11.5 0.39242
11.55 0.36096
11.6 0.32713
11.65 0.29615
11.7 0.26103
11.75 0.22199
11.8 0.1814
11.85 0.14616
11.9 0.11498
11.95 0.08887
12 0.06598
12.05 0.04299
12.1 0.01749
12.15 -0.01046
12.2 -0.04027
12.25 -0.06721
12.3 -0.08907
12.35 -0.11351
12.4 -0.13441
12.45 -0.15884
12.5 -0.18075
12.55 -0.19685
12.6 -0.21192
12.65 -0.22594
12.7 -0.23861
12.75 -0.25076
12.8 -0.26387
12.85 -0.27393
12.9 -0.28909
12.95 -0.30567
13 -0.31933
13.05 -0.33395
13.1 -0.34418
13.15 -0.35472
13.2 -0.36642
13.25 -0.37639
13.3 -0.37784
13.35 -0.37767
13.4 -0.37261
13.45 -0.37126
13.5 -0.37333
13.55 -0.37359
13.6 -0.3697
13.65 -0.3702
13.7 -0.36626
13.75 -0.36232
13.8 -0.3635
13.85 -0.36515
13.9 -0.36694
13.95 -0.36497
14 -0.36268
14.05 -0.36088
14.1 -0.35925
14.15 -0.35551
14.2 -0.35018
14.25 -0.34926
14.3 -0.34688
14.35 -0.34215
14.4 -0.33623
14.45 -0.33442
14.5 -0.33452
14.55 -0.33543
14.6 -0.33779
14.65 -0.34163
14.7 -0.34358
14.75 -0.34482
14.8 -0.34121
14.85 -0.33544
14.9 -0.3299
14.95 -0.32671
15 -0.32518
15.05 -0.3189
15.1 -0.3115
15.15 -0.30381
15.2 -0.29714
15.25 -0.29073
15.3 -0.28106
15.35 -0.27683
15.4 -0.27041
15.45 -0.26811
15.5 -0.26386
15.55 -0.26275
15.6 -0.25572
15.65 -0.25165
15.7 -0.24836
15.75 -0.24422
15.8 -0.23635
15.85 -0.22682
15.9 -0.21704
15.95 -0.20598
16 -0.19604
16.05 -0.19454
16.1 -0.19367
16.15 -0.18973
16.2 -0.18349
16.25 -0.18339
16.3 -0.18412
16.35 -0.18136
16.4 -0.1831
16.45 -0.18673
16.5 -0.18879
16.55 -0.18554
16.6 -0.1873
16.65 -0.18491
16.7 -0.1811
16.75 -0.18062
16.8 -0.17551
16.85 -0.17574
16.9 -0.17832
16.95 -0.17518
17 -0.17291
17.05 -0.16899
17.1 -0.16635
17.15 -0.16445
17.2 -0.16513
17.25 -0.1647
17.3 -0.16311
17.35 -0.16383
17.4 -0.16163
17.45 -0.15812
17.5 -0.15808
17.55 -0.15415
17.6 -0.14774
17.65 -0.14024
17.7 -0.13024
17.75 -0.11957
17.8 -0.11381
17.85 -0.1096
17.9 -0.10404
17.95 -0.09885
18 -0.09526
18.05 -0.0916
18.1 -0.09229
18.15 -0.0985
18.2 -0.10145
18.25 -0.10651
18.3 -0.11282
18.35 -0.12041
18.4 -0.12739
18.45 -0.12555
18.5 -0.1221
18.55 -0.12005
18.6 -0.11873
18.65 -0.11795
18.7 -0.11386
18.75 -0.1133
18.8 -0.10688
18.85 -0.10175
18.9 -0.10146
18.95 -0.09586
19 -0.09534
19.05 -0.09652
19.1 -0.09368
19.15 -0.08981
19.2 -0.0848
19.25 -0.08162
19.3 -0.07885
19.35 -0.0797
19.4 -0.07972
19.45 -0.08256
19.5 -0.08465
19.55 -0.08243
19.6 -0.07803
19.65 -0.07373
19.7 -0.06927
19.75 -0.06309
19.8 -0.05968
19.85 -0.06185
19.9 -0.0616
19.95 -0.064
20 -0.0614
20.05 -0.05834
20.1 -0.05513
20.15 -0.05153
20.2 -0.04958
20.25 -0.04949
20.3 -0.05195
20.35 -0.05637
20.4 -0.06075
20.45 -0.06538
20.5 -0.07012
20.55 -0.07528
20.6 -0.08034
20.65 -0.0809
20.7 -0.08199
20.75 -0.07763
20.8 -0.07183
20.85 -0.06667
20.9 -0.06142
20.95 -0.05572
21 -0.04668
21.05 -0.04113
21.1 -0.03658
21.15 -0.03052
21.2 -0.02541
21.25 -0.02447
21.3 -0.0227
21.35 -0.02403
21.4 -0.02819
21.45 -0.03061
21.5 -0.03211
21.55 -0.03573
21.6 -0.03422
21.65 -0.0352
21.7 -0.03699
21.75 -0.03425
21.8 -0.03089
21.85 -0.02457
21.9 -0.01727
21.95 -0.01441
22 -0.01809
22.05 -0.02586
22.1 -0.03442
22.15 -0.04048
22.2 -0.04329
22.25 -0.04228
22.3 -0.04102
22.35 -0.04142
22.4 -0.04154
22.45 -0.04262
22.5 -0.03862
22.55 -0.03325
22.6 -0.0313
22.65 -0.03143
22.7 -0.02973
22.75 -0.03071
22.8 -0.03186
22.85 -0.0345
22.9 -0.0369
22.95 -0.03921
23 -0.04157
23.05 -0.04243
23.1 -0.03779
23.15 -0.03286
23.2 -0.02394
23.25 -0.02009
23.3 -0.01853
23.35 -0.01728
23.4 -0.0148
23.45 -0.01659
23.5 -0.01863
23.55 -0.01975
23.6 -0.01724
23.65 -0.01299
23.7 -0.01143
23.75 -0.00891
23.8 -0.00658
23.85 -0.00509
23.9 -0.00391
23.95 -0.00103
24 0.00348
24.05 0.00189
24.1 0.00125
24.15 0.00383
24.2 0.00008
24.25 -0.00779
24.3 -0.01189
24.35 -0.01114
24.4 -0.01517
24.45 -0.02165
24.5 -0.02567
24.55 -0.02653
24.6 -0.02715
24.65 -0.02642
24.7 -0.02471
24.75 -0.02395
24.8 -0.02437
24.85 -0.02169
24.9 -0.02315
24.95 -0.01878
25 -0.01198
25.05 -0.00479
25.1 -0.00417
25.15 -0.0007
25.2 -0.00251
25.25 -0.00389
25.3 -0.00332
25.35 -0.00317
25.4 -0.00466
25.45 -0.00618
25.5 -0.00319
25.55 -0.00597
25.6 -0.00415
25.65 -0.00481
25.7 -0.00415
25.75 -0.00693
25.8 -0.00487
25.85 -0.00583
25.9 -0.00903
25.95 -0.01305
26 -0.01381
26.05 -0.0178
26.1 -0.01815
26.15 -0.01312
26.2 -0.00971
26.25 -0.01041
26.3 -0.00827
26.35 -0.00394
26.4 -0.0041
26.45 -0.00314
26.5 -0.00275
26.55 -0.00461
26.6 -0.00918
26.65 -0.01122
26.7 -0.00875
26.75 -0.00398
26.8 -0.00487
26.85 -0.00696
26.9 -0.00756
26.95 -0.00402
27 -0.00643
27.05 -0.0102
27.1 -0.01426
27.15 -0.01868
27.2 -0.02445
27.25 -0.02727
27.3 -0.02559
27.35 -0.02616
27.4 -0.02857
27.45 -0.02382
27.5 -0.01784
27.55 -0.01065
27.6 -0.00313
27.65 0.00529
27.7 0.01304
27.75 0.01498
27.8 0.01414
27.85 0.0125
27.9 0.0128
27.95 0.01052
28 0.01165
28.05 0.00726
28.1 0.00752
28.15 0.00828
28.2 0.00939
28.25 0.01007
28.3 0.01112
28.35 0.00958
28.4 0.00979
28.45 0.005
28.5 0.00369
28.55 0.00058
28.6 0.00091
28.65 0.00201
28.7 -0.00231
28.75 -0.00839
28.8 -0.0105
28.85 -0.01481
28.9 -0.0158
28.95 -0.01953
29 -0.02177
29.05 -0.02615
29.1 -0.03238
29.15 -0.04052
29.2 -0.04455
29.25 -0.05034
29.3 -0.05539
29.35 -0.06217
29.4 -0.06654
29.45 -0.06954
29.5 -0.07119
29.55 -0.07502
29.6 -0.07631
29.65 -0.07907
29.7 -0.08585
29.75 -0.0901
29.8 -0.09352
29.85 -0.09695
29.9 -0.10116
29.95 -0.10752
30 -0.1117
30.05 -0.11687
30.1 -0.11716
30.15 -0.11444
30.2 -0.10868
30.25 -0.10123
30.3 -0.09335
30.35 -0.0869
30.4 -0.08461
30.45 -0.07849
30.5 -0.06751
30.55 -0.05594
30.6 -0.04532
30.65 -0.03835
30.7 -0.0327
30.75 -0.02243
30.8 -0.00768
30.85 0.00499
30.9 0.01758
30.95 0.02915
31 0.03427
31.05 0.03558
31.1 0.04337
31.15 0.04893
31.2 0.05895
31.25 0.07025
31.3 0.08248
31.35 0.09149
31.4 0.09451
31.45 0.09517
31.5 0.09896
31.55 0.10305
31.6 0.10799
31.65 0.10962
31.7 0.11197
31.75 0.11416
31.8 0.1169
31.85 0.11477
31.9 0.11432
31.95 0.10741
32 0.09714
32.05 0.09095
32.1 0.0854
32.15 0.07842
32.2 0.07075
32.25 0.06688
32.3 0.06511
32.35 0.06382
32.4 0.06593
32.45 0.06854
32.5 0.07533
32.55 0.0828
32.6 0.08652
32.65 0.09071
32.7 0.089
32.75 0.08252
32.8 0.07469
32.85 0.07102
32.9 0.06345
32.95 0.05928
33 0.06058
33.05 0.05597
33.1 0.05437
33.15 0.05243
33.2 0.04556
33.25 0.03961
33.3 0.03496
33.35 0.02822
33.4 0.02489
33.45 0.02307
33.5 0.01643
33.55 0.01286
33.6 0.00914
33.65 0.00658
33.7 0.00145
33.75 0.00074
33.8 0.00218
33.85 -0.00256
33.9 -0.00759
33.95 -0.01424
34 -0.01945
34.05 -0.01878
34.1 -0.01438
34.15 -0.00854
34.2 -0.00826
34.25 -0.00832
34.3 -0.01134
34.35 -0.01739
34.4 -0.02131
34.45 -0.0251
34.5 -0.02748
34.55 -0.02559
34.6 -0.02674
34.65 -0.02544
34.7 -0.02463
34.75 -0.02618
34.8 -0.02377
34.85 -0.02494
34.9 -0.02208
34.95 -0.02409
35 -0.02073
35.05 -0.02239
35.1 -0.025
35.15 -0.026
35.2 -0.02421
35.25 -0.02237
35.3 -0.02051
35.35 -0.01981
35.4 -0.01762
35.45 -0.02014
35.5 -0.02055
35.55 -0.01616
35.6 -0.01554
35.65 -0.01773
35.7 -0.02291
35.75 -0.02438
35.8 -0.02689
35.85 -0.02989
35.9 -0.02802
35.95 -0.02824
36 -0.028
36.05 -0.02215
36.1 -0.01272
36.15 -0.00578
36.2 -0.00544
36.25 -0.00943
36.3 -0.01013
36.35 -0.01292
36.4 -0.0165
36.45 -0.01862
36.5 -0.01424
36.55 -0.0147
36.6 -0.01624
36.65 -0.01433
36.7 -0.01296
36.75 -0.00906
36.8 -0.00673
36.85 -0.00797
36.9 -0.00766
36.95 -0.0028
37 0.00066
37.05 0.004
37.1 0.00949
37.15 0.01569
37.2 0.02004
37.25 0.01846
37.3 0.01864
37.35 0.01502
37.4 0.00873
37.45 0.00641
37.5 0.00619
37.55 0.00252
37.6 -0.00386
37.65 -0.0052
37.7 -0.0073
37.75 -0.00414
37.8 -0.00468
37.85 -0.00823
37.9 -0.01017
37.95 -0.01531
38 -0.02227
38.05 -0.02642
38.1 -0.0235
38.15 -0.01941
38.2 -0.0195
38.25 -0.01626
38.3 -0.01362
38.35 -0.00688
38.4 0.002
38.45 0.00569
38.5 0.00667
38.55 0.00902
38.6 0.00584
38.65 0.00432
38.7 0.00008
38.75 0.00071
38.8 -0.00251
38.85 -0.00152
38.9 -0.00579
38.95 -0.00965
39 -0.01222
39.05 -0.01224
39.1 -0.00846
39.15 -0.00366
39.2 -0.0046
39.25 -0.00815
39.3 -0.0126
39.35 -0.01481
39.4 -0.01406
39.45 -0.00829
39.5 -0.00324
39.55 0.00188
39.6 0.00869
39.65 0.01092
39.7 0.01061
39.75 0.00646
39.8 0.0064
39.85 0.00299
39.9 -0.00199
39.95 -0.00706
40 -0.01127
40.05 -0.01091
40.1 -0.00589
40.15 -0.00577
40.2 -0.00221
40.25 0.00229
40.3 0.00591
40.35 0.01072
40.4 0.01527
40.45 0.01355
40.5 0.01158
40.55 0.01138
40.6 0.01007
40.65 0.0112
40.7 0.01257
40.75 0.00921
40.8 0.00118
40.85 -0.00256
40.9 -0.00266
40.95 -0.00169
41 -0.00104
41.05 0.00114
41.1 0.00447
41.15 0.00599
41.2 0.00552
41.25 0.00726
41.3 0.00278
41.35 0.00296
41.4 -0.00117
41.45 -0.00169
41.5 0.00186
41.55 0.00545
41.6 0.00826
41.65 0.00596
41.7 0.00749
41.75 0.00776
41.8 0.00766
41.85 0.0038
41.9 0.00236
41.95 -0.00327
42 -0.00702
42.05 -0.00599
42.1 -0.00509
42.15 -0.00729
42.2 -0.00675
42.25 -0.00876
42.3 -0.00933
42.35 -0.01165
42.4 -0.01512
42.45 -0.01864
42.5 -0.01782
42.55 -0.01273
42.6 -0.00748
42.65 -0.00859
42.7 -0.0095
42.75 -0.00746
42.8 -0.00381
42.85 -0.00171
42.9 0.00003
42.95 -0.00027
43 -0.00129
43.05 -0.00666
43.1 -0.00943
43.15 -0.01424
43.2 -0.01922
43.25 -0.0208
43.3 -0.02128
43.35 -0.01706
43.4 -0.0095
43.45 -0.00684
43.5 -0.00823
43.55 -0.01177
43.6 -0.01492
43.65 -0.01339
43.7 -0.013
43.75 -0.01559
43.8 -0.01755
43.85 -0.02037
43.9 -0.02425
43.95 -0.02636
44 -0.0257
44.05 -0.02213
44.1 -0.02262
44.15 -0.02289
44.2 -0.02512
44.25 -0.02211
44.3 -0.02157
44.35 -0.02231
44.4 -0.01761
44.45 -0.01673
44.5 -0.01252
44.55 -0.00652
44.6 0.00209
44.65 0.00961
44.7 0.01525
44.75 0.01308
44.8 0.00673
44.85 -0.00142
44.9 -0.01065
44.95 -0.01482
45 -0.01413
45.05 -0.01164
45.1 -0.00487
45.15 -0.00086
45.2 -0.00091
45.25 -0.00383
45.3 -0.00403
45.35 -0.00255
45.4 0.00262
45.45 0.00404
45.5 0.00148
45.55 0.00301
45.6 0.00782
45.65 0.00825
45.7 0.01224
45.75 0.01513
45.8 0.01626
45.85 0.0173
45.9 0.01386
45.95 0.00772
46 0.00024
46.05 -0.00851
46.1 -0.01652
46.15 -0.02339
46.2 -0.02329
46.25 -0.01803
46.3 -0.01181
46.35 -0.01068
46.4 -0.00558
46.45 -0.00436
46.5 0.00014
46.55 0.00546
46.6 0.00617
46.65 0.009
46.7 0.01273
46.75 0.01214
46.8 0.00746
46.85 0.00009
46.9 -0.0067
46.95 -0.01206
47 -0.01679
47.05 -0.02053
47.1 -0.02432
47.15 -0.02387
47.2 -0.02051
47.25 -0.01359
47.3 -0.00724
47.35 -0.00146
47.4 -0.00119
47.45 0.00274
47.5 0.00788
47.55 0.01399
47.6 0.01391
47.65 0.0128
47.7 0.00885
47.75 0.0028
47.8 0.00352
47.85 0.0084
47.9 0.01386
47.95 0.01495
48 0.01664
48.05 0.01228
48.1 0.00581
48.15 0.00301
48.2 -0.00152
48.25 -0.00635
48.3 -0.00778
48.35 -0.00968
48.4 -0.00996
48.45 -0.01362
48.5 -0.01337
48.55 -0.00936
48.6 -0.00171
48.65 0.00604
48.7 0.00801
48.75 0.00702
48.8 0.00177
48.85 -0.00365
48.9 -0.01043
48.95 -0.01483
49 -0.0142
49.05 -0.01105
49.1 -0.01165
49.15 -0.01177
49.2 -0.01274
49.25 -0.01244
49.3 -0.01535
49.35 -0.0113
49.4 -0.00477
49.45 -0.00338
49.5 -0.00534
49.55 -0.00697
49.6 -0.00603
49.65 -0.00269
49.7 0.00452
49.75 0.00575
49.8 0.00385
49.85 0.005
49.9 0.00604
49.95 0.00296
50 0.00198
50.05 0.00423
50.1 0.00282
50.15 0.00326
50.2 0.00156
50.25 -0.00366
50.3 -0.00809
50.35 -0.00764
50.4 -0.00877
50.45 -0.00471
50.5 0.00254
50.55 0.00674
50.6 0.00922
50.65 0.01201
50.7 0.01712
50.75 0.02309
50.8 0.02136
50.85 0.01925
50.9 0.01456
50.95 0.0144
51 0.01505
51.05 0.01412
51.1 0.016
51.15 0.01797
51.2 0.02033
51.25 0.02055
51.3 0.01566
51.35 0.01417
51.4 0.01132
51.45 0.0055
51.5 0.00583
51.55 0.00779
51.6 0.00821
51.65 0.00963
51.7 0.0069
51.75 0.00694
51.8 0.0109
51.85 0.00868
51.9 0.00751
51.95 0.00629
52 0.00656
52.05 0.00212
52.1 0.00083
52.15 0.00072
52.2 0.0043
52.25 0.0047
52.3 0.00353
52.35 0.00058
52.4 0.00213
52.45 0.00418
52.5 0.00051
52.55 -0.00207
52.6 -0.00612
52.65 -0.00664
52.7 -0.0035
52.75 0.00091
52.8 0.00383
52.85 0.00762
52.9 0.00715
52.95 0.00991
53 0.01003
53.05 0.0093
53.1 0.01233
53.15 0.01048
53.2 0.00414
53.25 0.00344
53.3 0.00481
53.35 0.00732
53.4 0.0092
53.45 0.01214
53.5 0.01053
53.55 0.01045
53.6 0.0118
53.65 0.01163
53.7 0.01067
53.75 0.00624
53.8 0.00067
53.85 -0.00451
53.9 -0.004
53.95 -0.00427
54 -0.00639
54.05 -0.00402
54.1 -0.00697
54.15 -0.00992
54.2 -0.00824
54.25 -0.00897
54.3 -0.00917
54.35 -0.00768
54.4 -0.008
54.45 -0.01014
54.5 -0.00871
54.55 -0.01075
54.6 -0.01106
54.65 -0.01345
54.7 -0.0107
54.75 -0.00919
54.8 -0.00879
54.85 -0.01145
54.9 -0.01611
54.95 -0.01654
55 -0.01121
55.05 -0.00455
55.1 -0.00212
55.15 -0.00126
55.2 -0.00056
55.25 0.00273
55.3 0.00721
55.35 0.01244
55.4 0.01636
55.45 0.01848
55.5 0.01721
55.55 0.01588
55.6 0.01053
55.65 0.01014
55.7 0.01198
55.75 0.0135
55.8 0.01618
55.85 0.01422
55.9 0.01285
55.95 0.0111
56 0.0124
56.05 0.01313
56.1 0.01449
56.15 0.01625
56.2 0.01156
56.25 0.00596
56.3 -0.00228
56.35 -0.00343
56.4 -0.00683
56.45 -0.00961
56.5 -0.01457
56.55 -0.01317
56.6 -0.00871
56.65 -0.00354
56.7 0.00171
56.75 0.00517
56.8 0.00488
56.85 0.00846
56.9 0.01159
56.95 0.01581
57 0.02046
57.05 0.01966
57.1 0.02079
57.15 0.01727
57.2 0.01722
57.25 0.01634
57.3 0.01775
57.35 0.01892
57.4 0.02171
57.45 0.01878
57.5 0.01254
57.55 0.00511
57.6 0.00286
57.65 0.00211
57.7 0.00484
57.75 0.00248
57.8 -0.00371
57.85 -0.00474
57.9 -0.00648
57.95 -0.00479
58 0.00023
58.05 0.00228
58.1 -0.00067
58.15 -0.00187
58.2 0.00052
58.25 -0.00316
58.3 -0.00896
58.35 -0.01552
58.4 -0.02171
58.45 -0.02342
58.5 -0.0216
58.55 -0.01657
58.6 -0.01022
58.65 -0.00722
58.7 -0.00776
58.75 -0.00401
58.8 0.00215
58.85 0.00584
58.9 0.01159
58.95 0.01723
59 0.02167
59.05 0.02077
59.1 0.01749
59.15 0.01756
59.2 0.01583
59.25 0.01509
59.3 0.0172
59.35 0.01534
59.4 0.01064
59.45 0.00149
59.5 -0.0078
59.55 -0.01275
59.6 -0.01499
59.65 -0.01262
59.7 -0.00648
59.75 -0.00666
59.8 -0.00971
59.85 -0.01154
59.9 -0.01365
59.95 -0.01311
60 -0.0153
60.05 -0.01234
60.1 -0.01063
60.15 -0.01227
60.2 -0.01145
60.25 -0.00713
60.3 0.0001
60.35 0.00238
60.4 -0.00064
60.45 -0.00546
60.5 -0.00676
60.55 -0.00844
60.6 -0.00645
60.65 -0.00218
60.7 0.00332
60.75 0.00962
60.8 0.0146
60.85 0.01876
60.9 0.02074
60.95 0.01545
61 0.00879
61.05 -0.0013
61.1 -0.01153
61.15 -0.01705
61.2 -0.01524
61.25 -0.01044
61.3 -0.01059
61.35 -0.01228
61.4 -0.01433
61.45 -0.01517
61.5 -0.01798
61.55 -0.01947
61.6 -0.01623
61.65 -0.01575
61.7 -0.01175
61.75 -0.00883
61.8 -0.00775
61.85 -0.00987
61.9 -0.00783
61.95 -0.0026
62 -0.00385
62.05 -0.00633
62.1 -0.00679
62.15 -0.01055
62.2 -0.01462
62.25 -0.015
62.3 -0.01832
62.35 -0.02312
62.4 -0.02618
62.45 -0.02775
62.5 -0.02221
62.55 -0.01642
62.6 -0.00779
62.65 -0.00341
62.7 0.00386
62.75 0.00847
62.8 0.01248
62.85 0.00982
62.9 0.00645
62.95 0.00046
63 -0.00454
63.05 -0.01132
63.1 -0.01246
63.15 -0.00906
63.2 -0.00848
63.25 -0.00437
63.3 -0.00244
63.35 0.00076
63.4 -0.00071
63.45 0.00138
63.5 0.00642
63.55 0.0092
63.6 0.006
63.65 -0.00026
63.7 -0.00699
63.75 -0.00831
63.8 -0.00666
63.85 -0.00551
63.9 -0.00301
63.95 -0.00103
64 -0.00043
64.05 0.0023
64.1 0.00553
64.15 0.00726
64.2 0.00947
64.25 0.00966
64.3 0.0111
64.35 0.00989
64.4 0.00895
64.45 0.01152
64.5 0.01395
64.55 0.01507
64.6 0.01702
64.65 0.01945
64.7 0.01449
64.75 0.00828
64.8 0.00088
64.85 -0.00176
64.9 -0.00083
64.95 -0.00103
65 0.00186
65.05 -0.00093
65.1 -0.00021
65.15 -0.00099
65.2 0.00121
65.25 0.00074
65.3 -0.0002
65.35 -0.00503
65.4 -0.00739
65.45 -0.00567
65.5 -0.00856
65.55 -0.01342
65.6 -0.0158
65.65 -0.0204
65.7 -0.02613
65.75 -0.02894
65.8 -0.03072
65.85 -0.02499
65.9 -0.02272
65.95 -0.02007
66 -0.01304
66.05 -0.00448
66.1 0.00519
66.15 0.00684
66.2 0.00851
66.25 0.00694
66.3 0.00289
66.35 0.00186
66.4 0.00103
66.45 -0.00381
66.5 -0.00341
66.55 -0.00586
66.6 -0.00537
66.65 -0.00675
66.7 -0.01003
66.75 -0.01384
66.8 -0.01201
66.85 -0.01247
66.9 -0.01292
66.95 -0.01064
67 -0.00407
67.05 0.0002
67.1 0.00689
67.15 0.01114
67.2 0.00865
67.25 0.00614
67.3 0.00525
67.35 0.00216
67.4 -0.00378
67.45 -0.00577
67.5 -0.01049
67.55 -0.01373
67.6 -0.01276
67.65 -0.00826
67.7 -0.00617
67.75 -0.00688
67.8 -0.0104
67.85 -0.01262
67.9 -0.01636
67.95 -0.01418
68 -0.01139
68.05 -0.01095
68.1 -0.01179
68.15 -0.00799
68.2 -0.00169
68.25 -0.00163
68.3 -0.00229
68.35 -0.00053
68.4 0.0013
68.45 0.00387
68.5 0.00869
68.55 0.01088
68.6 0.0144
68.65 0.01266
68.7 0.01285
68.75 0.01313
68.8 0.00875
68.85 0.00759
68.9 0.00854
68.95 0.00689
69 0.00188
69.05 -0.00537
69.1 -0.0086
69.15 -0.01153
69.2 -0.01366
69.25 -0.01384
69.3 -0.01618
69.35 -0.01212
69.4 -0.01104
69.45 -0.00951
69.5 -0.00426
69.55 -0.00003
69.6 0.00038
69.65 -0.00347
69.7 -0.00564
69.75 -0.00599
69.8 -0.00428
69.85 -0.00621
69.9 -0.00449
69.95 -0.00602
70 -0.00622
70.05 -0.00299
70.1 -0.00491
70.15 -0.00665
70.2 -0.00924
70.25 -0.00909
70.3 -0.00758
70.35 -0.00402
70.4 0.0007
70.45 0.00223
70.5 0.0055
70.55 0.01148
70.6 0.01356
70.65 0.01189
70.7 0.01456
70.75 0.01148
70.8 0.00807
70.85 0.00335
70.9 -0.00336
70.95 -0.00673
71 -0.00501
71.05 0.00092
71.1 0.00592
71.15 0.01076
71.2 0.01176
71.25 0.00983
71.3 0.01
71.35 0.01076
71.4 0.01309
71.45 0.01679
71.5 0.01626
71.55 0.01521
71.6 0.01578
71.65 0.01769
71.7 0.01688
71.75 0.01035
71.8 0.00233
71.85 -0.00446
71.9 -0.01253
71.95 -0.01679
72 -0.01807
72.05 -0.0219
72.1 -0.01965
72.15 -0.01627
72.2 -0.00895
72.25 -0.00057
72.3 0.0018
72.35 0.00632
72.4 0.01042
72.45 0.0135
72.5 0.01728
72.55 0.01604
72.6 0.01731
72.65 0.01338
72.7 0.00744
72.75 0.0047
72.8 0.00364
72.85 0.00049
72.9 -0.00275
72.95 -0.00856
73 -0.0077
73.05 -0.00388
73.1 -0.00532
73.15 -0.00421
73.2 -0.00167
73.25 0.00404
73.3 0.01091
73.35 0.01766
73.4 0.01685
73.45 0.01603
73.5 0.01833
73.55 0.01436
73.6 0.01486
73.65 0.01643
73.7 0.01956
73.75 0.01851
73.8 0.01936
73.85 0.02229
73.9 0.02006
73.95 0.0192
74 0.01651
74.05 0.01615
74.1 0.01632
74.15 0.01876
74.2 0.0206
74.25 0.01724
74.3 0.01005
74.35 0.00733
74.4 0.00444
74.45 0.00565
74.5 0.0058
74.55 0.00759
74.6 0.00653
74.65 0.00519
74.7 0.00598
74.75 0.00526
74.8 0.00566
74.85 0.00641
74.9 0.00308
74.95 0.00155
75 -0.0015
75.05 -0.00131
75.1 -0.00201
75.15 -0.00551
75.2 -0.00731
75.25 -0.00481
75.3 0.0011
75.35 0.00722
75.4 0.00556
75.45 0.00062
75.5 -0.00208
75.55 -0.0057
75.6 -0.01
75.65 -0.01004
75.7 -0.00665
75.75 -0.00868
75.8 -0.01267
75.85 -0.01293
75.9 -0.01205
75.95 -0.01053
76 -0.01344
76.05 -0.01177
76.1 -0.00653
76.15 -0.00187
76.2 -0.00082
76.25 0.00321
76.3 0.00913
76.35 0.01544
76.4 0.02038
76.45 0.01992
76.5 0.01715
76.55 0.01702
76.6 0.01273
76.65 0.00565
76.7 -0.00345
76.75 -0.00817
76.8 -0.01355
76.85 -0.01979
76.9 -0.02273
76.95 -0.02118
77 -0.01918
77.05 -0.0127
77.1 -0.00675
77.15 -0.00344
77.2 -0.0008
77.25 -0.00285
77.3 -0.00529
77.35 -0.00345
77.4 -0.00578
77.45 -0.00562
77.5 -0.00239
77.55 -0.00291
77.6 -0.00741
77.65 -0.00607
77.7 -0.00243
77.75 -0.00196
77.8 0.002
77.85 0.00114
77.9 -0.00267
77.95 -0.00281
78 -0.00127
78.05 0.00336
78.1 0.00441
78.15 0.00662
78.2 0.01104
78.25 0.01336
78.3 0.01653
78.35 0.01263
78.4 0.00612
78.45 0.00114
78.5 -0.00712
78.55 -0.00773
78.6 -0.00879
78.65 -0.00839
78.7 -0.00829
78.75 -0.012
78.8 -0.01092
78.85 -0.00617
78.9 0.00128
78.95 0.00993
79 0.00982
79.05 0.01282
79.1 0.0114
79.15 0.01225
79.2 0.01139
79.25 0.01378
79.3 0.01433
79.35 0.01532
79.4 0.01849
79.45 0.02213
79.5 0.02194
79.55 0.02313
79.6 0.02312
79.65 0.02458
79.7 0.02649
79.75 0.02167
79.8 0.01155
79.85 0.0017
79.9 -0.00705
79.95 -0.01731
80 -0.02692
80.05 -0.03583
80.1 -0.04101
80.15 -0.04041
80.2 -0.0381
80.25 -0.03231
80.3 -0.02729
80.35 -0.02622
80.4 -0.02065
80.45 -0.01344
80.5 -0.0063
80.55 -0.00617
80.6 -0.00808
80.65 -0.0046
80.7 -0.00601
80.75 -0.00831
80.8 -0.0134
80.85 -0.0133
80.9 -0.01523
80.95 -0.01499
81 -0.01218
81.05 -0.00937
81.1 -0.00913
81.15 -0.0064
81.2 -0.00348
81.25 0.00158
81.3 0.00217
81.35 -0.00082
81.4 0.00021
81.45 -0.00295
81.5 -0.00536
81.55 -0.00978
81.6 -0.0083
81.65 -0.0044
81.7 -0.00212
81.75 0.00214
81.8 0.00735
81.85 0.00946
81.9 0.01375
81.95 0.01316
82 0.01106
82.05 0.00632
82.1 0.0057
82.15 0.00523
82.2 0.00822
82.25 0.00461
82.3 0.00054
82.35 -0.00055
82.4 -0.00528
82.45 -0.0127
82.5 -0.0208
82.55 -0.02143
82.6 -0.01847
82.65 -0.01328
82.7 -0.00456
82.75 0.0038
82.8 0.01211
82.85 0.0159
82.9 0.02086
82.95 0.02234
83 0.02329
83.05 0.01731
83.1 0.00914
83.15 0.00593
83.2 0.00587
83.25 0.00254
83.3 -0.00072
83.35 -0.00444
83.4 -0.00773
83.45 -0.00897
83.5 -0.00777
83.55 -0.00397
83.6 -0.0042
83.65 -0.00172
83.7 0.00004
83.75 0.00084
83.8 0.00362
83.85 0.00827
83.9 0.01225
83.95 0.0089
84 0.00775
84.05 0.00278
84.1 -0.00526
84.15 -0.0128
84.2 -0.01778
84.25 -0.01895
84.3 -0.01526
84.35 -0.00888
84.4 -0.00729
84.45 -0.00253
84.5 -0.00198
84.55 -0.00144
84.6 0.00061
84.65 0.00229
84.7 0.00514
84.75 0.00815
84.8 0.01181
84.85 0.01694
84.9 0.02032
84.95 0.01883
85 0.01405
85.05 0.00496
85.1 0.00193
85.15 -0.00057
85.2 -0.0025
85.25 -0.00859
85.3 -0.00885
85.35 -0.01026
85.4 -0.01068
85.45 -0.00892
85.5 -0.00404
85.55 0.00224
85.6 0.0037
85.65 0.00593
85.7 0.01062
85.75 0.00983
85.8 0.00778
85.85 0.00458
85.9 0.00439
85.95 0.00733
86 0.00343
86.05 -0.00201
86.1 -0.0028
86.15 -0.00704
86.2 -0.01228
86.25 -0.01812
86.3 -0.01975
86.35 -0.01592
86.4 -0.01079
86.45 -0.00933
86.5 -0.01031
86.55 -0.01501
86.6 -0.02013
86.65 -0.02195
86.7 -0.02584
86.75 -0.02197
86.8 -0.01444
86.85 -0.00866
86.9 -0.00874
86.95 -0.01276
87 -0.01789
87.05 -0.01732
87.1 -0.0147
87.15 -0.00842
87.2 0.00005
87.25 0.0068
87.3 0.00601
87.35 0.00657
87.4 0.0075
87.45 0.00638
87.5 0.00746
87.55 0.01091
87.6 0.01266
87.65 0.01095
87.7 0.01004
87.75 0.00604
87.8 0.0011
87.85 0.00014
87.9 -0.002
87.95 -0.00708
88 -0.01076
88.05 -0.01323
88.1 -0.01133
88.15 -0.00504
88.2 0.0001
88.25 0.00617
88.3 0.01097
88.35 0.01298
88.4 0.01408
88.45 0.01542
88.5 0.01073
88.55 0.01021
88.6 0.01174
88.65 0.00893
88.7 0.01049
88.75 0.01277
88.8 0.01243
88.85 0.00752
88.9 0.0063
88.95 0.00501
89 0.00595
89.05 0.00903
89.1 0.0073
89.15 0.00094
89.2 -0.00646
89.25 -0.00847
89.3 -0.01282
89.35 -0.01528
89.4 -0.02012
89.45 -0.01829
89.5 -0.01687
89.55 -0.01728
89.6 -0.01644
89.65 -0.01065
89.7 -0.00926
89.75 -0.00705
89.8 -0.00245
89.85 0.00184
89.9 0.00491
89.95 0.00551
90 0.00615
90.05 0.00161
90.1 -0.0024
90.15 -0.00098
90.2 0.00318
90.25 0.00324
90.3 0.00481
90.35 0.00346
90.4 0.00283
90.45 0.00138
90.5 -0.00237
90.55 -0.00041
90.6 -0.00247
90.65 -0.00306
90.7 -0.0002
90.75 -0.00218
90.8 -0.00295
90.85 -0.00775
90.9 -0.00957
90.95 -0.00784
91 -0.0019
91.05 0.00336
91.1 0.01056
91.15 0.01022
91.2 0.01223
91.25 0.00963
91.3 0.00489
91.35 0.00248
91.4 0.00073
91.45 -0.00068
91.5 -0.00561
91.55 -0.00718
91.6 -0.00953
91.65 -0.01293
91.7 -0.01795
91.75 -0.02273
91.8 -0.02064
91.85 -0.02121
91.9 -0.01581
91.95 -0.00822
92 -0.00558
92.05 -0.00638
92.1 -0.00212
92.15 0.00164
92.2 -0.00032
92.25 -0.00261
92.3 -0.00342
92.35 -0.00423
92.4 -0.004
92.45 -0.00506
92.5 -0.00259
92.55 0.00071
92.6 -0.00101
92.65 -0.00297
92.7 -0.00376
92.75 -0.00518
92.8 -0.00271
92.85 -0.00322
92.9 -0.00107
92.95 -0.00216
93 -0.00542
93.05 -0.01159
93.1 -0.01215
93.15 -0.01125
93.2 -0.01223
93.25 -0.01595
93.3 -0.01296
93.35 -0.00963
93.4 -0.00915
93.45 -0.01237
93.5 -0.0173
93.55 -0.01685
93.6 -0.01869
93.65 -0.01496
93.7 -0.01581
93.75 -0.01881
93.8 -0.0195
93.85 -0.02202
93.9 -0.01917
93.95 -0.01629
94 -0.01629
94.05 -0.01018
94.1 -0.00058
94.15 0.0074
94.2 0.01623
94.25 0.01746
94.3 0.01468
94.35 0.01623
94.4 0.01472
94.45 0.01587
94.5 0.01398
94.55 0.01611
94.6 0.0154
94.65 0.01268
94.7 0.00748
94.75 0.00747
94.8 0.00553
94.85 0.00096
94.9 -0.00594
94.95 -0.00853
95 -0.00549
95.05 -0.00228
95.1 0.00449
95.15 0.00803
95.2 0.0126
95.25 0.01305
95.3 0.0122
95.35 0.01334
95.4 0.00932
95.45 0.00552
95.5 0.00571
95.55 0.00206
95.6 -0.00012
95.65 0.00125
95.7 0.00617
95.75 0.01022
95.8 0.0155
95.85 0.01891
95.9 0.02265
95.95 0.02211
96 0.02049
96.05 0.02058
96.1 0.01762
96.15 0.01262
96.2 0.00791
96.25 0.00065
96.3 -0.00594
96.35 -0.01045
96.4 -0.01691
96.45 -0.02136
96.5 -0.02005
96.55 -0.02107
96.6 -0.02092
96.65 -0.02149
96.7 -0.01997
96.75 -0.01641
96.8 -0.01046
96.85 -0.00949
96.9 -0.00496
96.95 0.0029
97 0.01165
97.05 0.01842
97.1 0.02483
97.15 0.02615
97.2 0.02727
97.25 0.03007
97.3 0.02846
97.35 0.02882
97.4 0.02936
97.45 0.02771
97.5 0.02579
97.55 0.02363
97.6 0.02042
97.65 0.01853
97.7 0.0149
97.75 0.01016
97.8 0.0054
97.85 -0.00207
97.9 -0.00771
97.95 -0.01465
98 -0.02188
98.05 -0.02338
98.1 -0.02317
98.15 -0.02411
98.2 -0.01893
98.25 -0.01695
98.3 -0.01819
98.35 -0.01959
98.4 -0.01787
98.45 -0.01795
98.5 -0.02084
98.55 -0.02523
98.6 -0.02651
98.65 -0.02776
98.7 -0.02347
98.75 -0.0144
98.8 -0.00927
98.85 -0.0089
98.9 -0.00512
98.95 -0.0052
99 -0.00057
99.05 0.00597
99.1 0.00525
99.15 0.00125
99.2 -0.00327
99.25 -0.00464
99.3 -0.0063
99.35 -0.00468
99.4 -0.00531
99.45 -0.00313
99.5 -0.00455
99.55 -0.00812
99.6 -0.01303
99.65 -0.01511
99.7 -0.01087
99.75 -0.00975
99.8 -0.01276
99.85 -0.01427
99.9 -0.01167
99.95 -0.00623
