0 0
0.05 0.00828
0.1 0.01797
0.15 0.02567
0.2 0.03715
0.25 0.04198
0.3 0.04339
0.35 0.04565
0.4 0.04434
0.45 0.04156
0.5 0.04391
0.55 0.04469
0.6 0.04857
0.65 0.04848
0.7 0.05066
0.75 0.04854
0.8 0.04804
0.85 0.05183
0.9 0.05255
0.95 0.05622
1 0.05314
1.05 0.04582
1.1 0.0373
1.15 0.03325
1.2 0.03542
1.25 0.03435
1.3 0.03801
1.35 0.03649
1.4 0.0395
1.45 0.03937
1.5 0.04343
1.55 0.04155
1.6 0.03702
1.65 0.03282
1.7 0.03161
1.75 0.03152
1.8 0.03388
1.85 0.03372
1.9 0.03783
1.95 0.03785
2 0.04095
2.05 0.04656
2.1 0.0462
2.15 0.04551
2.2 0.04762
2.25 0.0463
2.3 0.04541
2.35 0.04429
2.4 0.04457
2.45 0.04698
2.5 0.04942
2.55 0.04558
2.6 0.0412
2.65 0.0379
2.7 0.03814
2.75 0.0355
2.8 0.03702
2.85 0.0352
2.9 0.03188
2.95 0.02715
3 0.02457
3.05 0.02268
3.1 0.01823
3.15 0.01503
3.2 0.01011
3.25 0.00722
3.3 0.00456
3.35 0.008
3.4 0.00841
3.45 0.00651
3.5 0.00221
3.55 -0.0009
3.6 -0.00481
3.65 -0.00879
3.7 -0.00825
3.75 -0.00583
3.8 0.00076
3.85 0.00878
3.9 0.01227
3.95 0.01584
4 0.02046
4.05 0.02357
4.1 0.02433
4.15 0.02661
4.2 0.02329
4.25 0.01465
4.3 0.00373
4.35 -0.00021
4.4 -0.00386
4.45 -0.00857
4.5 -0.01257
4.55 -0.01904
4.6 -0.0299
4.65 -0.03938
4.7 -0.05239
4.75 -0.07343
4.8 -0.09425
4.85 -0.12409
4.9 -0.15389
4.95 -0.1889
5 -0.22925
5.05 -0.27221
5.1 -0.32236
5.15 -0.38289
5.2 -0.44652
5.25 -0.51863
5.3 -0.59239
5.35 -0.67186
5.4 -0.76045
5.45 -0.85537
5.5 -0.95387
5.55 -1.04965
5.6 -1.14354
5.65 -1.23795
5.7 -1.33086
5.75 -1.42511
5.8 -1.52082
5.85 -1.61417
5.9 -1.70845
5.95 -1.80073
6 -1.88381
6.05 -1.96512
6.1 -2.04655
6.15 -2.12361
6.2 -2.19681
6.25 -2.25841
6.3 -2.31131
6.35 -2.36
6.4 -2.40205
6.45 -2.43546
6.5 -2.46858
6.55 -2.49292
6.6 -2.50974
6.65 -2.51569
6.7 -2.50996
6.75 -2.48555
6.8 -2.44528
6.85 -2.38844
6.9 -2.32247
6.95 -2.24371
7 -2.15094
7.05 -2.03671
7.1 -1.90166
7.15 -1.75658
7.2 -1.59186
7.25 -1.41448
7.3 -1.23191
7.35 -1.03996
7.4 -0.83908
7.45 -0.63608
7.5 -0.42848
7.55 -0.22537
7.6 -0.02711
7.65 0.17324
7.7 0.36775
7.75 0.55308
7.8 0.73154
7.85 0.90564
7.9 1.06702
7.95 1.22124
8 1.36008
8.05 1.49125
8.1 1.60987
8.15 1.71695
8.2 1.81429
8.25 1.90184
8.3 1.97802
8.35 2.04283
8.4 2.09777
8.45 2.14333
8.5 2.17716
8.55 2.20395
8.6 2.22182
8.65 2.22994
8.7 2.23811
8.75 2.23657
8.8 2.23204
8.85 2.2212
8.9 2.20791
8.95 2.19311
9 2.17918
9.05 2.16581
9.1 2.14889
9.15 2.13647
9.2 2.12407
9.25 2.10771
9.3 2.0892
9.35 2.07004
9.4 2.04662
9.45 2.02491
9.5 1.99957
9.55 1.97106
9.6 1.94387
9.65 1.91577
9.7 1.88388
9.75 1.85375
9.8 1.82818
9.85 1.80381
9.9 1.77148
9.95 1.73536
10 1.69573
10.05 1.65873
10.1 1.61662
10.15 1.5777
10.2 1.54193
10.25 1.5023
10.3 1.46386
10.35 1.42424
10.4 1.38318
10.45 1.34094
10.5 1.29506
10.55 1.2489
10.6 1.20567
10.65 1.15823
10.7 1.10992
10.75 1.06402
10.8 1.01694
10.85 0.97323
10.9 0.92353
10.95 0.87581
11 0.83025
11.05 0.78724
11.1 0.74444
11.15 0.69731
11.2 0.6495
11.25 0.60233
11.3 0.55526
11.35 0.51344
11.4 0.47258
11.45 0.43513
11.5 0.39966
11.55 0.35847
11.6 0.31462
11.65 0.26888
11.7 0.2317
11.75 0.20023
11.8 0.17038
11.85 0.13853
11.9 0.10386
11.95 0.06887
12 0.03518
12.05 0.00536
12.1 -0.02214
12.15 -0.05025
12.2 -0.0726
12.25 -0.09114
12.3 -0.10883
12.35 -0.12849
12.4 -0.14933
12.45 -0.16847
12.5 -0.1828
12.55 -0.19374
12.6 -0.20719
12.65 -0.22273
12.7 -0.23401
12.75 -0.24557
12.8 -0.25592
12.85 -0.26895
12.9 -0.28013
12.95 -0.2938
13 -0.31036
13.05 -0.32358
13.1 -0.33262
13.15 -0.34217
13.2 -0.35434
13.25 -0.36423
13.3 -0.37016
13.35 -0.37044
13.4 -0.36694
13.45 -0.36872
13.5 -0.37098
13.55 -0.37377
13.6 -0.37934
13.65 -0.38677
13.7 -0.39318
13.75 -0.40013
13.8 -0.40139
13.85 -0.40254
13.9 -0.40049
13.95 -0.39188
14 -0.38316
14.05 -0.37522
14.1 -0.37069
14.15 -0.36637
14.2 -0.35928
14.25 -0.35553
14.3 -0.3517
14.35 -0.35014
14.4 -0.35141
14.45 -0.35209
14.5 -0.35022
14.55 -0.34378
14.6 -0.33786
14.65 -0.32962
14.7 -0.32617
14.75 -0.32361
14.8 -0.32313
14.85 -0.32066
14.9 -0.3168
14.95 -0.31612
15 -0.30963
15.05 -0.30723
15.1 -0.29986
15.15 -0.29301
15.2 -0.28433
15.25 -0.27749
15.3 -0.27034
15.35 -0.26275
15.4 -0.26025
15.45 -0.26025
15.5 -0.25702
15.55 -0.25451
15.6 -0.25438
15.65 -0.25035
15.7 -0.24517
15.75 -0.23973
15.8 -0.23663
15.85 -0.23026
15.9 -0.22747
15.95 -0.22143
16 -0.21487
16.05 -0.21242
16.1 -0.21489
16.15 -0.2181
16.2 -0.21516
16.25 -0.2087
16.3 -0.20744
16.35 -0.20579
16.4 -0.2006
16.45 -0.19853
16.5 -0.20033
16.55 -0.19943
16.6 -0.19771
16.65 -0.19289
16.7 -0.18459
16.75 -0.17719
16.8 -0.1688
16.85 -0.1626
16.9 -0.15794
16.95 -0.15355
17 -0.14926
17.05 -0.15176
17.1 -0.15344
17.15 -0.15339
17.2 -0.15206
17.25 -0.15126
17.3 -0.14664
17.35 -0.14636
17.4 -0.14438
17.45 -0.13903
17.5 -0.13887
17.55 -0.14253
17.6 -0.1431
17.65 -0.14245
17.7 -0.139
17.75 -0.13946
17.8 -0.13733
17.85 -0.13609
17.9 -0.13123
17.95 -0.12694
18 -0.11905
18.05 -0.11339
18.1 -0.10915
18.15 -0.10578
18.2 -0.10822
18.25 -0.11319
18.3 -0.11915
18.35 -0.11875
18.4 -0.11495
18.45 -0.11574
18.5 -0.11176
18.55 -0.1121
18.6 -0.10863
18.65 -0.10328
18.7 -0.09791
18.75 -0.09319
18.8 -0.09448
18.85 -0.09221
18.9 -0.09203
18.95 -0.09585
19 -0.10113
19.05 -0.09974
19.1 -0.09322
19.15 -0.08541
19.2 -0.07995
19.25 -0.07965
19.3 -0.07653
19.35 -0.07823
19.4 -0.07968
19.45 -0.08174
19.5 -0.08471
19.55 -0.0864
19.6 -0.08872
19.65 -0.09169
19.7 -0.0895
19.75 -0.09102
19.8 -0.08888
19.85 -0.08921
19.9 -0.08968
19.95 -0.08683
20 -0.07848
20.05 -0.07401
20.1 -0.07469
20.15 -0.077
20.2 -0.07588
20.25 -0.07816
20.3 -0.07547
20.35 -0.06886
20.4 -0.05951
20.45 -0.05495
20.5 -0.05297
20.55 -0.04994
20.6 -0.0503
20.65 -0.05014
20.7 -0.04731
20.75 -0.05021
20.8 -0.05205
20.85 -0.05403
20.9 -0.05731
20.95 -0.0579
21 -0.06113
21.05 -0.06072
21.1 -0.05912
21.15 -0.05815
21.2 -0.05854
21.25 -0.05798
21.3 -0.05723
21.35 -0.0579
21.4 -0.05965
21.45 -0.0628
21.5 -0.06292
21.55 -0.05832
21.6 -0.05129
21.65 -0.04454
21.7 -0.03939
21.75 -0.03849
21.8 -0.04078
21.85 -0.04129
21.9 -0.04318
21.95 -0.03902
22 -0.03921
22.05 -0.03392
22.1 -0.03331
22.15 -0.03532
22.2 -0.03894
22.25 -0.03873
22.3 -0.04119
22.35 -0.04314
22.4 -0.04538
22.45 -0.04733
22.5 -0.04733
22.55 -0.04959
22.6 -0.04453
22.65 -0.04135
22.7 -0.03901
22.75 -0.03635
22.8 -0.03224
22.85 -0.03288
22.9 -0.02797
22.95 -0.02855
23 -0.02345
23.05 -0.01882
23.1 -0.01367
23.15 -0.01497
23.2 -0.01817
23.25 -0.02191
23.3 -0.02398
23.35 -0.02097
23.4 -0.02012
23.45 -0.02094
23.5 -0.01942
23.55 -0.02137
23.6 -0.02351
23.65 -0.02723
23.7 -0.02746
23.75 -0.02643
23.8 -0.02775
23.85 -0.0316
23.9 -0.03112
23.95 -0.03138
24 -0.03276
24.05 -0.03221
24.1 -0.02599
24.15 -0.0202
24.2 -0.01754
24.25 -0.01318
24.3 -0.01001
24.35 -0.00463
24.4 -0.00454
24.45 -0.00485
24.5 -0.00843
24.55 -0.01236
24.6 -0.01058
24.65 -0.01355
24.7 -0.01053
24.75 -0.00523
24.8 -0.00306
24.85 -0.0014
24.9 0.001
24.95 -0.00194
25 -0.0001
25.05 -0.00188
25.1 -0.00494
25.15 -0.00569
25.2 -0.01002
25.25 -0.01596
25.3 -0.01718
25.35 -0.01479
25.4 -0.01029
25.45 -0.00455
25.5 -0.00427
25.55 -0.00347
25.6 -0.00316
25.65 -0.00067
25.7 0.00302
25.75 0.0065
25.8 0.00577
25.85 0.00386
25.9 0.00275
25.95 0.00272
26 0.00052
26.05 -0.00133
26.1 0.00045
26.15 -0.00187
26.2 0.0004
26.25 0.00018
26.3 0.0007
26.35 -0.00279
26.4 -0.00794
26.45 -0.00827
26.5 -0.00681
26.55 -0.00533
26.6 -0.00652
26.65 -0.00527
26.7 -0.00802
26.75 -0.00874
26.8 -0.00764
26.85 -0.00768
26.9 -0.00398
26.95 -0.00622
27 -0.00446
27.05 -0.00049
27.1 0.00315
27.15 0.0078
27.2 0.00902
27.25 0.00485
27.3 -0.00045
27.35 -0.00696
27.4 -0.00932
27.45 -0.00888
27.5 -0.00604
27.55 -0.00452
27.6 -0.00096
27.65 0.00308
27.7 0.00118
27.75 -0.00329
27.8 -0.01085
27.85 -0.01564
27.9 -0.01883
27.95 -0.01701
28 -0.01899
28.05 -0.02221
28.1 -0.02658
28.15 -0.031
28.2 -0.03263
28.25 -0.03075
28.3 -0.02678
28.35 -0.0179
28.4 -0.01298
28.45 -0.01333
28.5 -0.00869
28.55 -0.00731
28.6 -0.00896
28.65 -0.00769
28.7 -0.00346
28.75 -0.00334
28.8 0.00098
28.85 0.00419
28.9 0.00363
28.95 0.00401
29 0.00302
29.05 0.00394
29.1 0.00145
29.15 -0.00499
29.2 -0.01031
29.25 -0.01071
29.3 -0.01006
29.35 -0.0044
29.4 -0.00449
29.45 -0.00683
29.5 -0.01041
29.55 -0.00864
29.6 -0.00518
29.65 -0.004
29.7 -0.00248
29.75 -0.00547
29.8 -0.00786
29.85 -0.01109
29.9 -0.01582
29.95 -0.01355
30 -0.00726
30.05 -0.00578
30.1 -0.00199
30.15 0.0004
30.2 -0.00254
30.25 -0.00438
30.3 -0.00536
30.35 -0.00434
30.4 -0.00326
30.45 -0.00693
30.5 -0.01238
30.55 -0.01586
30.6 -0.01414
30.65 -0.00841
30.7 -0.00459
30.75 -0.0062
30.8 -0.00961
30.85 -0.01267
30.9 -0.01796
30.95 -0.02369
31 -0.02504
31.05 -0.02284
31.1 -0.01704
31.15 -0.01151
31.2 -0.00278
31.25 0.0061
31.3 0.01227
31.35 0.01882
31.4 0.02058
31.45 0.02105
31.5 0.01578
31.55 0.01115
31.6 0.01172
31.65 0.00825
31.7 0.01058
31.75 0.00983
31.8 0.0071
31.85 0.00403
31.9 0.00608
31.95 0.00555
32 0.00488
32.05 0.00666
32.1 0.00902
32.15 0.00733
32.2 0.0081
32.25 0.01028
32.3 0.00953
32.35 0.00947
32.4 0.00791
32.45 0.01092
32.5 0.01375
32.55 0.01909
32.6 0.0226
32.65 0.01998
32.7 0.01845
32.75 0.02019
32.8 0.01729
32.85 0.01664
32.9 0.01554
32.95 0.0167
33 0.01897
33.05 0.02298
33.1 0.02643
33.15 0.02939
33.2 0.02408
33.25 0.01546
33.3 0.00422
33.35 -0.00533
33.4 -0.01322
33.45 -0.0166
33.5 -0.01894
33.55 -0.01655
33.6 -0.01126
33.65 -0.01176
33.7 -0.01183
33.75 -0.01584
33.8 -0.0139
33.85 -0.00889
33.9 -0.00795
33.95 -0.01125
34 -0.01651
34.05 -0.02034
34.1 -0.02178
34.15 -0.02362
34.2 -0.0244
34.25 -0.02545
34.3 -0.02502
34.35 -0.02433
34.4 -0.02093
34.45 -0.01326
34.5 -0.0088
34.55 -0.00612
34.6 -0.00783
34.65 -0.00655
34.7 -0.00505
34.75 -0.00817
34.8 -0.00781
34.85 -0.01001
34.9 -0.01343
34.95 -0.01481
35 -0.01207
35.05 -0.00552
35.1 -0.00376
35.15 -0.00164
35.2 0.00036
35.25 -0.00241
35.3 -0.00211
35.35 -0.00024
35.4 -0.00146
35.45 -0.00386
35.5 -0.00448
35.55 -0.00445
35.6 -0.00559
35.65 -0.00187
35.7 0.00026
35.75 0.00322
35.8 0.00711
35.85 0.0122
35.9 0.01611
35.95 0.02173
36 0.0216
36.05 0.01946
36.1 0.01293
36.15 0.00958
36.2 0.01004
36.25 0.007
36.3 0.00185
36.35 0.00144
36.4 0.00375
36.45 0.00144
36.5 -0.00029
36.55 0.00318
36.6 0.0019
36.65 -0.00274
36.7 -0.00131
36.75 0.00041
36.8 0.0061
36.85 0.01044
36.9 0.01352
36.95 0.00997
37 0.00435
37.05 0.00248
37.1 0.00446
37.15 0.00845
37.2 0.00763
37.25 0.00615
37.3 0.0049
37.35 0.00216
37.4 0.00211
37.45 0.0017
37.5 -0.00325
37.55 -0.00888
37.6 -0.01113
37.65 -0.0101
37.7 -0.00536
37.75 -0.00041
37.8 0.0022
37.85 0.00175
37.9 -0.00107
37.95 -0.0047
38 -0.00991
38.05 -0.00837
38.1 -0.00315
38.15 0.00363
38.2 0.00974
38.25 0.01225
38.3 0.01305
38.35 0.01497
38.4 0.01099
38.45 0.00472
38.5 0.00178
38.55 0.00234
38.6 0.00295
38.65 0.00502
38.7 0.00657
38.75 0.00688
38.8 0.00203
38.85 -0.00548
38.9 -0.00665
38.95 -0.00929
39 -0.01394
39.05 -0.01348
39.1 -0.00852
39.15 -0.00061
39.2 -0.00002
39.25 0.00096
39.3 0.00577
39.35 0.00758
39.4 0.01213
39.45 0.01767
39.5 0.0184
39.55 0.01913
39.6 0.02022
39.65 0.02037
39.7 0.02242
39.75 0.02179
39.8 0.02177
39.85 0.01711
39.9 0.01066
39.95 0.00777
40 0.00674
40.05 0.00724
40.1 0.01107
40.15 0.01419
40.2 0.01475
40.25 0.0102
40.3 0.00404
40.35 0.00038
40.4 -0.00162
40.45 -0.00284
40.5 -0.00164
40.55 -0.00253
40.6 -0.00538
40.65 -0.01083
40.7 -0.01652
40.75 -0.01747
40.8 -0.01884
40.85 -0.01976
40.9 -0.01908
40.95 -0.0204
41 -0.02172
41.05 -0.02387
41.1 -0.02152
41.15 -0.01838
41.2 -0.01937
41.25 -0.01628
41.3 -0.01475
41.35 -0.00911
41.4 -0.00053
41.45 0.00463
41.5 0.00749
41.55 0.00899
41.6 0.00708
41.65 0.00816
41.7 0.00949
41.75 0.00956
41.8 0.0111
41.85 0.01287
41.9 0.01232
41.95 0.01274
42 0.00935
42.05 0.00775
42.1 0.00199
42.15 -0.00444
42.2 -0.01102
42.25 -0.0155
42.3 -0.01822
42.35 -0.01412
42.4 -0.01182
42.45 -0.01218
42.5 -0.00839
42.55 -0.0045
42.6 -0.00053
42.65 0.00296
42.7 0.00109
42.75 0.00048
42.8 -0.00174
42.85 -0.00051
42.9 -0.00379
42.95 -0.00641
43 -0.01039
43.05 -0.01661
43.1 -0.01593
43.15 -0.01232
43.2 -0.00702
43.25 -0.00549
43.3 -0.00009
43.35 0.00609
43.4 0.00812
43.45 0.01109
43.5 0.01159
43.55 0.01285
43.6 0.0085
43.65 0.00292
43.7 -0.00545
43.75 -0.00656
43.8 -0.0033
43.85 -0.00133
43.9 0.00193
43.95 0.00154
44 -0.0036
44.05 -0.00805
44.1 -0.00813
44.15 -0.00711
44.2 -0.01051
44.25 -0.01217
44.3 -0.01015
44.35 -0.00476
44.4 0.00132
44.45 0.00273
44.5 0.00462
44.55 0.00696
44.6 0.00704
44.65 0.00847
44.7 0.00865
44.75 0.0099
44.8 0.00874
44.85 0.00723
44.9 0.00833
44.95 0.00679
45 0.00059
45.05 -0.00415
45.1 -0.00467
45.15 -0.00031
45.2 -0
45.25 0.00286
45.3 0.00631
45.35 0.01114
45.4 0.01565
45.45 0.01342
45.5 0.01305
45.55 0.01338
45.6 0.01257
45.65 0.0091
45.7 0.00478
45.75 0.00479
45.8 0.00118
45.85 -0.0012
45.9 0.00103
45.95 -0.0024
46 -0.00715
46.05 -0.00803
46.1 -0.00853
46.15 -0.00461
46.2 0.00139
46.25 0.00041
46.3 -0.00352
46.35 -0.00582
46.4 -0.0065
46.45 -0.00353
46.5 0.00119
46.55 0.0048
46.6 0.00737
46.65 0.01203
46.7 0.01192
46.75 0.01322
46.8 0.01486
46.85 0.01869
46.9 0.01999
46.95 0.01761
47 0.01672
47.05 0.01083
47.1 0.00313
47.15 -0.00247
47.2 -0.00316
47.25 -0.00306
47.3 0.00072
47.35 0.00305
47.4 0.00687
47.45 0.0043
47.5 -0.00016
47.55 -0.00261
47.6 -0.00197
47.65 -0.00597
47.7 -0.00639
47.75 -0.01032
47.8 -0.01192
47.85 -0.01037
47.9 -0.00844
47.95 -0.00762
48 -0.00247
48.05 -0.00081
48.1 -0.00393
48.15 -0.00642
48.2 -0.00378
48.25 -0.00585
48.3 -0.00775
48.35 -0.0043
48.4 -0.00464
48.45 -0.00161
48.5 0.00076
48.55 -0.00156
48.6 -0.00639
48.65 -0.00685
48.7 -0.00285
48.75 -0.00204
48.8 -0.00172
48.85 -0.00397
48.9 -0.0091
48.95 -0.01559
49 -0.01501
49.05 -0.01804
49.1 -0.01415
49.15 -0.01355
49.2 -0.00774
49.25 -0.00542
49.3 -0.00538
49.35 -0.00919
49.4 -0.00724
49.45 -0.00155
49.5 0.00624
49.55 0.00747
49.6 0.00952
49.65 0.00954
49.7 0.01059
49.75 0.00726
49.8 0.0068
49.85 0.00422
49.9 0.00278
49.95 0.0046
50 0.00282
50.05 -0.0031
50.1 -0.00379
50.15 0.00036
50.2 -0.00173
50.25 -0.00432
50.3 -0.00874
50.35 -0.01492
50.4 -0.01898
50.45 -0.02256
50.5 -0.02592
50.55 -0.02887
50.6 -0.03074
50.65 -0.02969
50.7 -0.0273
50.75 -0.02693
50.8 -0.02005
50.85 -0.01565
50.9 -0.01498
50.95 -0.00898
51 -0.00169
51.05 0.00289
51.1 0.0032
51.15 0.00148
51.2 -0.00098
51.25 -0.00122
51.3 -0.00333
51.35 -0.00131
51.4 -0.004
51.45 -0.00436
51.5 -0.00172
51.55 -0.00108
51.6 0.00109
51.65 -0.00035
51.7 -0.00036
51.75 -0.00422
51.8 -0.0037
51.85 -0.00465
51.9 -0.00765
51.95 -0.00565
52 -0.00575
52.05 -0.00549
52.1 -0.00711
52.15 -0.00715
52.2 -0.00578
52.25 -0.00585
52.3 -0.00079
52.35 -0.00102
52.4 -0.00314
52.45 0.00028
52.5 0.00243
52.55 0.008
52.6 0.01219
52.65 0.01171
52.7 0.01446
52.75 0.01738
52.8 0.01515
52.85 0.00923
52.9 0.00537
52.95 0.00286
53 0.00069
53.05 0.00159
53.1 0.00493
53.15 0.00675
53.2 0.00535
53.25 0.00639
53.3 0.0041
53.35 -0.00173
53.4 -0.00076
53.45 -0.00424
53.5 -0.00262
53.55 -0.00525
53.6 -0.01104
53.65 -0.01403
53.7 -0.01552
53.75 -0.0108
53.8 -0.00718
53.85 -0.00588
53.9 -0.00743
53.95 -0.00949
54 -0.01314
54.05 -0.01431
54.1 -0.00948
54.15 -0.00847
54.2 -0.0031
54.25 -0.00253
54.3 -0.00061
54.35 0.00211
54.4 -0.00048
54.45 -0.00237
54.5 -0.00039
54.55 0.00072
54.6 -0.00177
54.65 -0.00617
54.7 -0.01065
54.75 -0.00789
54.8 -0.00266
54.85 0.00495
54.9 0.01192
54.95 0.01839
55 0.02099
55.05 0.02176
55.1 0.0247
55.15 0.02148
55.2 0.01748
55.25 0.01048
55.3 0.00739
55.35 0.00864
55.4 0.01222
55.45 0.01042
55.5 0.00379
55.55 0.00081
55.6 -0.00334
55.65 -0.00935
55.7 -0.01401
55.75 -0.01233
55.8 -0.00663
55.85 0.00175
55.9 0.00879
55.95 0.01237
56 0.01688
56.05 0.01825
56.1 0.02062
56.15 0.02205
56.2 0.02335
56.25 0.02248
56.3 0.01667
56.35 0.00784
56.4 0.00525
56.45 0.00667
56.5 0.00484
56.55 -0.00052
56.6 -0.00258
56.65 -0.00776
56.7 -0.01382
56.75 -0.02077
56.8 -0.02528
56.85 -0.0219
56.9 -0.02244
56.95 -0.01683
57 -0.00979
57.05 -0.00834
57.1 -0.00698
57.15 -0.00617
57.2 -0.00676
57.25 -0.00289
57.3 0.00275
57.35 0.00979
57.4 0.0132
57.45 0.01601
57.5 0.01319
57.55 0.00988
57.6 0.00286
57.65 -0.00258
57.7 -0.0038
57.75 -0.0043
57.8 -0.00253
57.85 -0.00575
57.9 -0.00773
57.95 -0.00391
58 0.00236
58.05 0.00524
58.1 0.00224
58.15 0.00281
58.2 -0.00139
58.25 -0.00123
58.3 0.00146
58.35 0.00111
58.4 0.00111
58.45 0.00531
58.5 0.00336
58.55 0.00366
58.6 0.00617
58.65 0.00674
58.7 0.0066
58.75 0.00966
58.8 0.00796
58.85 0.00976
58.9 0.01124
58.95 0.01008
59 0.00851
59.05 0.00315
59.1 0.00182
59.15 -0.00372
59.2 -0.0044
59.25 -0.00457
59.3 -0.00376
59.35 0.00072
59.4 0.00459
59.45 0.00607
59.5 0.00503
59.55 0.00736
59.6 0.00393
59.65 0.00029
59.7 -0.00341
59.75 -0.01007
59.8 -0.01714
59.85 -0.02318
59.9 -0.02551
59.95 -0.02745
60 -0.0261
60.05 -0.02173
60.1 -0.02163
60.15 -0.02441
60.2 -0.02109
60.25 -0.01462
60.3 -0.0136
60.35 -0.01145
60.4 -0.01159
60.45 -0.01093
60.5 -0.00772
60.55 -0.00304
60.6 -0.00255
60.65 -0.00179
60.7 -0.00056
60.75 0.00303
60.8 0.0051
60.85 0.00437
60.9 0.00436
60.95 0.00309
61 0.00017
61.05 -0.00558
61.1 -0.01284
61.15 -0.01187
61.2 -0.00699
61.25 -0.00738
61.3 -0.00933
61.35 -0.00596
61.4 -0.00369
61.45 -0.00324
61.5 -0.00496
61.55 -0.00566
61.6 -0.00722
61.65 -0.00696
61.7 -0.00902
61.75 -0.01211
61.8 -0.00841
61.85 -0.00135
61.9 0.00099
61.95 -0.00089
62 -0.00016
62.05 0.00428
62.1 0.00761
62.15 0.01023
62.2 0.01332
62.25 0.01566
62.3 0.01447
62.35 0.0131
62.4 0.01424
62.45 0.01047
62.5 0.00546
62.55 0.00537
62.6 0.00392
62.65 0.00013
62.7 -0.0007
62.75 -0.00457
62.8 -0.00316
62.85 0.00259
62.9 0.00798
62.95 0.00815
63 0.01145
63.05 0.01321
63.1 0.0154
63.15 0.01684
63.2 0.02031
63.25 0.01957
63.3 0.02026
63.35 0.02245
63.4 0.02098
63.45 0.0182
63.5 0.01252
63.55 0.00719
63.6 0.00427
63.65 0.00016
63.7 0.00047
63.75 0.00236
63.8 0.0017
63.85 -0.00273
63.9 -0.00341
63.95 -0.00176
64 0.00133
64.05 0.00449
64.1 0.00391
64.15 -0.00145
64.2 -0.00036
64.25 0.00031
64.3 0.00084
64.35 -0.00213
64.4 -0.00479
64.45 -0.00325
64.5 0.0017
64.55 0.00535
64.6 0.00583
64.65 0.00395
64.7 0.00492
64.75 0.00324
64.8 -0.00007
64.85 -0.00435
64.9 -0.00775
64.95 -0.00782
65 -0.0103
65.05 -0.00913
65.1 -0.00323
65.15 0.00506
65.2 0.00515
65.25 0.00672
65.3 0.00679
65.35 0.00332
65.4 0.0004
65.45 0.00111
65.5 -0.00123
65.55 0.00061
65.6 0.00445
65.65 0.01032
65.7 0.01607
65.75 0.02023
65.8 0.02527
65.85 0.02298
65.9 0.02058
65.95 0.01494
66 0.00605
66.05 0.0028
66.1 -0.00276
66.15 -0.00402
66.2 -0.00536
66.25 -0.00664
66.3 -0.00999
66.35 -0.01358
66.4 -0.01817
66.45 -0.02005
66.5 -0.02341
66.55 -0.02448
66.6 -0.02394
66.65 -0.0246
66.7 -0.02614
66.75 -0.02051
66.8 -0.01235
66.85 -0.0067
66.9 -0.00073
66.95 0.00537
67 0.00584
67.05 0.00771
67.1 0.00979
67.15 0.0112
67.2 0.01537
67.25 0.01642
67.3 0.01177
67.35 0.01125
67.4 0.01242
67.45 0.01222
67.5 0.00905
67.55 0.00695
67.6 0.00701
67.65 0.00201
67.7 -0.00307
67.75 -0.00978
67.8 -0.01261
67.85 -0.01496
67.9 -0.01316
67.95 -0.01575
68 -0.01873
68.05 -0.01507
68.1 -0.01273
68.15 -0.0097
68.2 -0.00525
68.25 -0.00461
68.3 -0.00188
68.35 0.00231
68.4 0.00713
68.45 0.01128
68.5 0.01651
68.55 0.02029
68.6 0.02477
68.65 0.02074
68.7 0.01953
68.75 0.01851
68.8 0.01296
68.85 0.01073
68.9 0.0064
68.95 0.00157
69 -0.00209
69.05 -0.00016
69.1 -0.00212
69.15 -0.00634
69.2 -0.00803
69.25 -0.01047
69.3 -0.01258
69.35 -0.01231
69.4 -0.01195
69.45 -0.0076
69.5 -0.00499
69.55 -0.00499
69.6 -0.00223
69.65 -0
69.7 0.00512
69.75 0.00976
69.8 0.0125
69.85 0.01071
69.9 0.0068
69.95 0.00037
70 0.00042
70.05 -0.00054
70.1 0.00208
70.15 0.00391
70.2 0.00357
70.25 -0.00098
70.3 -0.00477
70.35 -0.00924
70.4 -0.01041
70.45 -0.00668
70.5 -0.00435
70.55 -0.00479
70.6 -0.00056
70.65 0.00586
70.7 0.00901
70.75 0.00717
70.8 0.00678
70.85 0.00996
70.9 0.00913
70.95 0.0088
71 0.00621
71.05 -0.00067
71.1 -0.00879
71.15 -0.01441
71.2 -0.01885
71.25 -0.02191
71.3 -0.0185
71.35 -0.01391
71.4 -0.00823
71.45 -0.00361
71.5 -0.00244
71.55 -0.00224
71.6 -0.00585
71.65 -0.00793
71.7 -0.00971
71.75 -0.00919
71.8 -0.00505
71.85 -0.00316
71.9 -0.0059
71.95 -0.00591
72 -0.00891
72.05 -0.01018
72.1 -0.0148
72.15 -0.01654
72.2 -0.01609
72.25 -0.01687
72.3 -0.01704
72.35 -0.01834
72.4 -0.0169
72.45 -0.0149
72.5 -0.0138
72.55 -0.01078
72.6 -0.00985
72.65 -0.01064
72.7 -0.01318
72.75 -0.01726
72.8 -0.01778
72.85 -0.02081
72.9 -0.02209
72.95 -0.02351
73 -0.02051
73.05 -0.01938
73.1 -0.01526
73.15 -0.01348
73.2 -0.01033
73.25 -0.00283
73.3 0.00623
73.35 0.01545
73.4 0.0196
73.45 0.02504
73.5 0.03012
73.55 0.02662
73.6 0.02413
73.65 0.02407
73.7 0.02654
73.75 0.0251
73.8 0.02269
73.85 0.02187
73.9 0.02254
73.95 0.01651
74 0.00889
74.05 0.00255
74.1 -0.00494
74.15 -0.01066
74.2 -0.01049
74.25 -0.0073
74.3 -0.00394
74.35 -0.00372
74.4 -0.00133
74.45 0.00415
74.5 0.01083
74.55 0.0099
74.6 0.01026
74.65 0.00749
74.7 0.00488
74.75 0.00638
74.8 0.00343
74.85 0.00398
74.9 0.00405
74.95 0.00323
75 0.00667
75.05 0.00829
75.1 0.00438
75.15 0.00236
75.2 -0.00103
75.25 -0.00336
75.3 -0.00681
75.35 -0.00514
75.4 -0.00262
75.45 -0.00371
75.5 -0.00503
75.55 -0.00676
75.6 -0.01011
75.65 -0.00845
75.7 -0.00584
75.75 0.00007
75.8 0.00367
75.85 0.00196
75.9 -0.00206
75.95 -0.00415
76 -0.00132
76.05 0.00371
76.1 0.00727
76.15 0.01255
76.2 0.01025
76.25 0.00614
76.3 0.00261
76.35 0.00428
76.4 0.0072
76.45 0.0097
76.5 0.00825
76.55 0.0082
76.6 0.01101
76.65 0.01436
76.7 0.01751
76.75 0.02215
76.8 0.0199
76.85 0.01796
76.9 0.01243
76.95 0.00795
77 0.00587
77.05 0.00005
77.1 -0.00255
77.15 -0.00603
77.2 -0.01262
77.25 -0.01573
77.3 -0.01624
77.35 -0.01343
77.4 -0.01154
77.45 -0.01164
77.5 -0.01263
77.55 -0.01392
77.6 -0.00929
77.65 -0.0055
77.7 -0.00533
77.75 -0.00338
77.8 0.00188
77.85 0.00068
77.9 0.00249
77.95 -0.00126
78 -0.00399
78.05 -0.01012
78.1 -0.01186
78.15 -0.01589
78.2 -0.01774
78.25 -0.01319
78.3 -0.01107
78.35 -0.00731
78.4 -0.00018
78.45 0.00342
78.5 0.00471
78.55 0.00357
78.6 0.00369
78.65 0.00174
78.7 -0.00031
78.75 -0.00179
78.8 0.00051
78.85 -0.00269
78.9 -0.00916
78.95 -0.00939
79 -0.01293
79.05 -0.01269
79.1 -0.01282
79.15 -0.01592
79.2 -0.01775
79.25 -0.02094
79.3 -0.0191
79.35 -0.0164
79.4 -0.01005
79.45 -0.00681
79.5 -0.0064
79.55 -0.00388
79.6 0.00132
79.65 0.00515
79.7 0.00535
79.75 0.0024
79.8 -0.0034
79.85 -0.00674
79.9 -0.00785
79.95 -0.01175
80 -0.01335
80.05 -0.0112
80.1 -0.00631
80.15 -0.0052
80.2 -0.00826
80.25 -0.0091
80.3 -0.00649
80.35 -0.00124
80.4 0.00242
80.45 0.00315
80.5 0.00343
80.55 0.00417
80.6 0.00279
80.65 0.00165
80.7 0.00545
80.75 0.00813
80.8 0.00863
80.85 0.01287
80.9 0.01699
80.95 0.01462
81 0.01425
81.05 0.01113
81.1 0.00811
81.15 0.00928
81.2 0.00871
81.25 0.01051
81.3 0.00611
81.35 0.00546
81.4 0.00219
81.45 -0.00395
81.5 -0.00771
81.55 -0.00995
81.6 -0.01063
81.65 -0.00691
81.7 -0.00193
81.75 -0.00207
81.8 -0.00529
81.85 -0.01121
81.9 -0.01333
81.95 -0.01441
82 -0.01348
82.05 -0.01273
82.1 -0.00962
82.15 -0.00918
82.2 -0.00441
82.25 -0.00093
82.3 -0.00003
82.35 0.00415
82.4 0.01002
82.45 0.0157
82.5 0.02056
82.55 0.02222
82.6 0.02384
82.65 0.01834
82.7 0.01487
82.75 0.01157
82.8 0.00971
82.85 0.01169
82.9 0.01638
82.95 0.01554
83 0.01126
83.05 0.01202
83.1 0.00919
83.15 0.00497
83.2 0.00492
83.25 0.00132
83.3 0.00302
83.35 0.00214
83.4 -0.00163
83.45 -0.00031
83.5 -0.00222
83.55 -0.0012
83.6 0.00072
83.65 0.00086
83.7 -0.00232
83.75 -0.00645
83.8 -0.00602
83.85 -0.00207
83.9 0.00113
83.95 0.00005
84 -0.00066
84.05 0.00125
84.1 -0.00146
84.15 0.00035
84.2 -0.00267
84.25 -0.00079
84.3 -0.00134
84.35 -0.00631
84.4 -0.00772
84.45 -0.0044
84.5 -0.00309
84.55 -0.00333
84.6 -0.00308
84.65 -0.00241
84.7 -0.00391
84.75 -0.008
84.8 -0.00703
84.85 -0.00167
84.9 -0.00162
84.95 0.00206
85 0.00757
85.05 0.00845
85.1 0.01011
85.15 0.0062
85.2 0.00212
85.25 0.00105
85.3 0.00312
85.35 0.00432
85.4 0.00192
85.45 -0.0021
85.5 -0.00322
85.55 -0.00767
85.6 -0.01228
85.65 -0.01627
85.7 -0.01778
85.75 -0.01662
85.8 -0.01849
85.85 -0.01411
85.9 -0.01109
85.95 -0.00793
86 -0.00203
86.05 0.00491
86.1 0.00427
86.15 0.00108
86.2 -0.00505
86.25 -0.00485
86.3 -0.00375
86.35 0.00155
86.4 0.00697
86.45 0.01089
86.5 0.01644
86.55 0.01739
86.6 0.01297
86.65 0.00455
86.7 -0.00119
86.75 -0.00878
86.8 -0.01657
86.85 -0.01924
86.9 -0.01566
86.95 -0.00863
87 -0.00246
87.05 0.00012
87.1 0.00028
87.15 0.00473
87.2 0.00519
87.25 0.00647
87.3 0.00784
87.35 0.00933
87.4 0.01173
87.45 0.01443
87.5 0.01608
87.55 0.01355
87.6 0.00893
87.65 0.00617
87.7 0.00167
87.75 -0.00215
87.8 -0.00826
87.85 -0.01557
87.9 -0.01953
87.95 -0.01835
88 -0.01329
88.05 -0.01261
88.1 -0.01217
88.15 -0.00684
88.2 -0.00651
88.25 -0.00707
88.3 -0.00689
88.35 -0.00384
88.4 -0.00599
88.45 -0.00436
88.5 -0.00001
88.55 0.00701
88.6 0.01539
88.65 0.01746
88.7 0.01755
88.75 0.01946
88.8 0.02014
88.85 0.01574
88.9 0.00942
88.95 0.00342
89 -0.00281
89.05 -0.01076
89.1 -0.01862
89.15 -0.01866
89.2 -0.01664
89.25 -0.01152
89.3 -0.00692
89.35 -0.00404
89.4 -0.00606
89.45 -0.00966
89.5 -0.01141
89.55 -0.0114
89.6 -0.01277
89.65 -0.0112
89.7 -0.0096
89.75 -0.00759
89.8 -0.00534
89.85 -0.00618
89.9 -0.00903
89.95 -0.00866
90 -0.0053
90.05 -0.00149
90.1 0.00564
90.15 0.00803
90.2 0.00902
90.25 0.01198
90.3 0.01491
90.35 0.01371
90.4 0.01448
90.45 0.01296
90.5 0.00906
90.55 0.00354
90.6 0.0042
90.65 0.00394
90.7 -0.00003
90.75 -0.00428
90.8 -0.00496
90.85 -0.00427
90.9 -0.00276
90.95 -0.00239
91 0.00055
91.05 -0.00166
91.1 -0.00239
91.15 -0.00591
91.2 -0.00644
91.25 -0.00563
91.3 -0.00182
91.35 -0.00055
91.4 -0.00354
91.45 -0.00674
91.5 -0.01104
91.55 -0.01591
91.6 -0.01391
91.65 -0.0149
91.7 -0.01019
91.75 -0.00477
91.8 -0.00275
91.85 -0.00339
91.9 -0.00046
91.95 0.00254
92 0.00708
92.05 0.01228
92.1 0.01164
92.15 0.00564
92.2 0.00057
92.25 -0.00392
92.3 -0.00832
92.35 -0.0066
92.4 -0.00433
92.45 -0.00322
92.5 -0.00433
92.55 -0.00866
92.6 -0.00644
92.65 -0.00082
92.7 0.00182
92.75 -0.00061
92.8 -0.00199
92.85 -0.00193
92.9 0.00182
92.95 0.00682
93 0.00738
93.05 0.00268
93.1 0.00355
93.15 0.00226
93.2 -0.00303
93.25 -0.00387
93.3 -0.00239
93.35 -0.0012
93.4 -0.00004
93.45 0.00474
93.5 0.00454
93.55 0.00281
93.6 0.00085
93.65 -0.00117
93.7 -0.00084
93.75 -0.00514
93.8 -0.00515
93.85 -0.00823
93.9 -0.00639
93.95 -0.00395
94 -0.00239
94.05 -0.00209
94.1 -0.0003
94.15 0.00417
94.2 0.00966
94.25 0.01044
94.3 0.00587
94.35 0.00158
94.4 -0.00384
94.45 -0.01046
94.5 -0.01646
94.55 -0.02172
94.6 -0.02418
94.65 -0.02026
94.7 -0.01497
94.75 -0.00911
94.8 -0.00171
94.85 0.00488
94.9 0.00732
94.95 0.01193
95 0.0163
95.05 0.02104
95.1 0.026
95.15 0.02327
95.2 0.0211
95.25 0.01342
95.3 0.00926
95.35 0.01005
95.4 0.00917
95.45 0.00848
95.5 0.00456
95.55 0.00079
95.6 0.00096
95.65 -0.00178
95.7 -0.00668
95.75 -0.00971
95.8 -0.01432
95.85 -0.01488
95.9 -0.00986
95.95 -0.0074
96 -0.00919
96.05 -0.01335
96.1 -0.01047
96.15 -0.01
96.2 -0.00627
96.25 0.0002
96.3 0.00343
96.35 0.00224
96.4 0.00035
96.45 -0.00181
96.5 -0.0073
96.55 -0.00991
96.6 -0.01108
96.65 -0.01008
96.7 -0.01098
96.75 -0.01242
96.8 -0.01286
96.85 -0.0135
96.9 -0.01121
96.95 -0.00668
97 -0.00638
97.05 -0.00322
97.1 0.00352
97.15 0.00716
97.2 0.00604
97.25 0.00275
97.3 -0.00313
97.35 -0.00694
97.4 -0.01023
97.45 -0.01152
97.5 -0.01584
97.55 -0.01501
97.6 -0.01173
97.65 -0.00616
97.7 0.00113
97.75 0.00619
97.8 0.00787
97.85 0.01155
97.9 0.01752
97.95 0.01719
98 0.01282
98.05 0.00761
98.1 0.00821
98.15 0.00421
98.2 0.00523
98.25 0.00465
98.3 0.00441
98.35 0.00509
98.4 0.00606
98.45 0.00802
98.5 0.01068
98.55 0.01092
98.6 0.01257
98.65 0.01509
98.7 0.01815
98.75 0.02046
98.8 0.02235
98.85 0.01715
98.9 0.01183
98.95 0.00492
99 -0.00451
99.05 -0.01108
99.1 -0.01015
99.15 -0.00523
99.2 -0.00288
99.25 0.00242
99.3 0.00935
99.35 0.00955
99.4 0.00805
99.45 0.00888
99.5 0.0053
99.55 0.00326
99.6 0.00321
99.65 0.00651
99.7 0.01118
99.75 0.01565
99.8 0.01439
99.85 0.01398
99.9 0.00959
99.95 0.00446
