0 0
0.05 0.00013
0.1 0.00923
0.15 0.01757
0.2 0.03058
0.25 0.04439
0.3 0.05269
0.35 0.05796
0.4 0.06389
0.45 0.0625
0.5 0.05702
0.55 0.04843
0.6 0.04282
0.65 0.03961
0.7 0.03662
0.75 0.03519
0.8 0.03238
0.85 0.028
0.9 0.02697
0.95 0.02453
1 0.02576
1.05 0.03215
1.1 0.04058
1.15 0.04514
1.2 0.04568
1.25 0.04303
1.3 0.04125
1.35 0.04352
1.4 0.04755
1.45 0.04515
1.5 0.04017
1.55 0.03305
1.6 0.03153
1.65 0.03268
1.7 0.03441
1.75 0.03865
1.8 0.04145
1.85 0.03973
1.9 0.03892
1.95 0.03821
2 0.03495
2.05 0.03444
2.1 0.03561
2.15 0.0351
2.2 0.03849
2.25 0.04007
2.3 0.03682
2.35 0.0335
2.4 0.03146
2.45 0.02644
2.5 0.02751
2.55 0.02779
2.6 0.02659
2.65 0.02964
2.7 0.03587
2.75 0.03667
2.8 0.03734
2.85 0.03429
2.9 0.0341
2.95 0.03544
3 0.03102
3.05 0.03128
3.1 0.02785
3.15 0.02098
3.2 0.0121
3.25 0.00496
3.3 0.00402
3.35 0.00629
3.4 0.00812
3.45 0.01006
3.5 0.01255
3.55 0.01575
3.6 0.02016
3.65 0.02336
3.7 0.0231
3.75 0.02507
3.8 0.02607
3.85 0.02747
3.9 0.03033
3.95 0.03537
4 0.03311
4.05 0.03277
4.1 0.02957
4.15 0.02407
4.2 0.01617
4.25 0.00744
4.3 -0.0015
4.35 -0.01095
4.4 -0.01947
4.45 -0.02847
4.5 -0.03448
4.55 -0.03678
4.6 -0.04262
4.65 -0.0529
4.7 -0.06411
4.75 -0.07488
4.8 -0.09379
4.85 -0.11308
4.9 -0.14051
4.95 -0.17461
5 -0.20921
5.05 -0.24622
5.1 -0.28973
5.15 -0.33744
5.2 -0.39214
5.25 -0.45372
5.3 -0.51943
5.35 -0.58323
5.4 -0.64415
5.45 -0.70659
5.5 -0.76966
5.55 -0.83179
5.6 -0.89524
5.65 -0.96082
5.7 -1.01966
5.75 -1.07875
5.8 -1.13625
5.85 -1.18543
5.9 -1.22207
5.95 -1.24737
6 -1.26401
6.05 -1.27155
6.1 -1.27581
6.15 -1.27684
6.2 -1.27321
6.25 -1.26111
6.3 -1.2376
6.35 -1.20331
6.4 -1.16518
6.45 -1.1265
6.5 -1.08061
6.55 -1.03223
6.6 -0.97852
6.65 -0.92079
6.7 -0.85845
6.75 -0.79649
6.8 -0.73085
6.85 -0.66036
6.9 -0.57856
6.95 -0.49051
7 -0.39939
7.05 -0.30232
7.1 -0.2041
7.15 -0.1053
7.2 -0.00338
7.25 0.09534
7.3 0.19363
7.35 0.28599
7.4 0.37281
7.45 0.46007
7.5 0.54582
7.55 0.62542
7.6 0.69955
7.65 0.77194
7.7 0.8386
7.75 0.90077
7.8 0.95297
7.85 0.99436
7.9 1.02714
7.95 1.05947
8 1.08725
8.05 1.11166
8.1 1.12443
8.15 1.12962
8.2 1.13191
8.25 1.13072
8.3 1.12493
8.35 1.12178
8.4 1.11952
8.45 1.11701
8.5 1.10675
8.55 1.09916
8.6 1.09155
8.65 1.07757
8.7 1.05901
8.75 1.04444
8.8 1.03013
8.85 1.01585
8.9 1.0033
8.95 0.99146
9 0.97691
9.05 0.95628
9.1 0.93794
9.15 0.91842
9.2 0.89212
9.25 0.87093
9.3 0.852
9.35 0.83268
9.4 0.81217
9.45 0.79397
9.5 0.77454
9.55 0.74827
9.6 0.71796
9.65 0.68635
9.7 0.66012
9.75 0.63454
9.8 0.61496
9.85 0.59292
9.9 0.57468
9.95 0.55518
10 0.53947
10.05 0.52175
10.1 0.50663
10.15 0.48516
10.2 0.46633
10.25 0.44679
10.3 0.42379
10.35 0.40456
10.4 0.38859
10.45 0.37001
10.5 0.35438
10.55 0.3316
10.6 0.30963
10.65 0.285
10.7 0.2635
10.75 0.24123
10.8 0.21678
10.85 0.19881
10.9 0.17966
10.95 0.16483
11 0.14552
11.05 0.12731
11.1 0.10697
11.15 0.09187
11.2 0.08048
11.25 0.06974
11.3 0.05757
11.35 0.04585
11.4 0.03624
11.45 0.02552
11.5 0.01347
11.55 -0.00065
11.6 -0.01246
11.65 -0.02411
11.7 -0.04023
11.75 -0.05445
11.8 -0.06822
11.85 -0.07882
11.9 -0.08367
11.95 -0.08662
12 -0.08827
12.05 -0.09369
12.1 -0.09977
12.15 -0.10892
12.2 -0.11807
12.25 -0.13076
12.3 -0.13645
12.35 -0.14244
12.4 -0.1494
12.45 -0.15654
12.5 -0.15902
12.55 -0.16384
12.6 -0.16425
12.65 -0.16922
12.7 -0.17533
12.75 -0.1786
12.8 -0.17801
12.85 -0.17369
12.9 -0.16718
12.95 -0.16261
13 -0.16161
13.05 -0.16624
13.1 -0.16606
13.15 -0.16321
13.2 -0.16149
13.25 -0.15798
13.3 -0.16023
13.35 -0.16183
13.4 -0.1625
13.45 -0.16282
13.5 -0.16398
13.55 -0.16589
13.6 -0.16695
13.65 -0.16509
13.7 -0.16651
13.75 -0.16625
13.8 -0.16342
13.85 -0.15923
13.9 -0.15403
13.95 -0.15166
14 -0.14899
14.05 -0.14665
14.1 -0.14589
14.15 -0.14169
14.2 -0.14066
14.25 -0.1385
14.3 -0.14125
14.35 -0.14642
14.4 -0.15221
14.45 -0.1551
14.5 -0.15672
14.55 -0.15281
14.6 -0.1433
14.65 -0.13748
14.7 -0.12988
14.75 -0.12372
14.8 -0.12341
14.85 -0.12003
14.9 -0.12079
14.95 -0.11912
15 -0.11406
15.05 -0.11173
15.1 -0.11154
15.15 -0.11017
15.2 -0.10673
15.25 -0.10268
15.3 -0.10436
15.35 -0.10412
15.4 -0.10677
15.45 -0.10303
15.5 -0.09986
15.55 -0.0955
15.6 -0.09618
15.65 -0.09941
15.7 -0.09729
15.75 -0.09912
15.8 -0.10067
15.85 -0.09645
15.9 -0.09664
15.95 -0.09378
16 -0.08795
16.05 -0.08212
16.1 -0.0787
16.15 -0.07456
16.2 -0.07181
16.25 -0.07366
16.3 -0.07329
16.35 -0.07754
16.4 -0.07795
16.45 -0.08077
16.5 -0.081
16.55 -0.08201
16.6 -0.08019
16.65 -0.08201
16.7 -0.08596
16.75 -0.08841
16.8 -0.08847
16.85 -0.0878
16.9 -0.08867
16.95 -0.08481
17 -0.07685
17.05 -0.07257
17.1 -0.07205
17.15 -0.07038
17.2 -0.06332
17.25 -0.05307
17.3 -0.0454
17.35 -0.04513
17.4 -0.04097
17.45 -0.03796
17.5 -0.03285
17.55 -0.0307
17.6 -0.03229
17.65 -0.03342
17.7 -0.03861
17.75 -0.04314
17.8 -0.04444
17.85 -0.04401
17.9 -0.03979
17.95 -0.03508
18 -0.0362
18.05 -0.03635
18.1 -0.03986
18.15 -0.04523
18.2 -0.05266
18.25 -0.05658
18.3 -0.05317
18.35 -0.05352
18.4 -0.05658
18.45 -0.05441
18.5 -0.04716
18.55 -0.04436
18.6 -0.04197
18.65 -0.03953
18.7 -0.03283
18.75 -0.02475
18.8 -0.02424
18.85 -0.02891
18.9 -0.03476
18.95 -0.04055
19 -0.0439
19.05 -0.04159
19.1 -0.04071
19.15 -0.03449
19.2 -0.02537
19.25 -0.02029
19.3 -0.01528
19.35 -0.01202
19.4 -0.01419
19.45 -0.02069
19.5 -0.0217
19.55 -0.02474
19.6 -0.02478
19.65 -0.02086
19.7 -0.01475
19.75 -0.01487
19.8 -0.01752
19.85 -0.02384
19.9 -0.02357
19.95 -0.02685
20 -0.03016
20.05 -0.03453
20.1 -0.03237
20.15 -0.03084
20.2 -0.03002
20.25 -0.02913
20.3 -0.03049
20.35 -0.02573
20.4 -0.0264
20.45 -0.02751
20.5 -0.02537
20.55 -0.01856
20.6 -0.01458
20.65 -0.01215
20.7 -0.0136
20.75 -0.01654
20.8 -0.02161
20.85 -0.02546
20.9 -0.02284
20.95 -0.01597
21 -0.01392
21.05 -0.01425
21.1 -0.01595
21.15 -0.01557
21.2 -0.01096
21.25 -0.00507
21.3 0.00151
21.35 0.0056
21.4 0.00811
21.45 0.00448
21.5 -0.00278
21.55 -0.00948
21.6 -0.01672
21.65 -0.01956
21.7 -0.02077
21.75 -0.01866
21.8 -0.01531
21.85 -0.0167
21.9 -0.01698
21.95 -0.01508
22 -0.01269
22.05 -0.00996
22.1 -0.00903
22.15 -0.0076
22.2 -0.00677
22.25 -0.00998
22.3 -0.01469
22.35 -0.01857
22.4 -0.01609
22.45 -0.00992
22.5 -0.00307
22.55 -0.00233
22.6 -0.00349
22.65 -0.00456
22.7 -0.00733
22.75 -0.00481
22.8 -0.00259
22.85 -0.00571
22.9 -0.00493
22.95 -0.00009
23 0.00077
23.05 -0.00244
23.1 -0.00039
23.15 -0.00337
23.2 -0.00889
23.25 -0.01001
23.3 -0.01348
23.35 -0.01994
23.4 -0.02333
23.45 -0.02666
23.5 -0.02573
23.55 -0.02791
23.6 -0.03204
23.65 -0.03127
23.7 -0.02468
23.75 -0.02028
23.8 -0.01436
23.85 -0.00651
23.9 -0.00433
23.95 -0.0003
24 -0.00273
24.05 -0.00637
24.1 -0.01206
24.15 -0.01323
24.2 -0.01411
24.25 -0.01212
24.3 -0.00604
24.35 -0.0024
24.4 0.00225
24.45 0.00487
24.5 0.00773
24.55 0.00937
24.6 0.01367
24.65 0.01528
24.7 0.01489
24.75 0.01484
24.8 0.01382
24.85 0.01341
24.9 0.00915
24.95 0.00219
25 -0.00021
25.05 0.00026
25.1 0.00415
25.15 0.00969
25.2 0.00754
25.25 0.00234
25.3 -0.0038
25.35 -0.01186
25.4 -0.0161
25.45 -0.01645
25.5 -0.01861
25.55 -0.02079
25.6 -0.01905
25.65 -0.02118
25.7 -0.01696
25.75 -0.01673
25.8 -0.01426
25.85 -0.00728
25.9 -0.00083
25.95 0.00291
26 0.00243
26.05 0.00353
26.1 0.00454
26.15 0.00592
26.2 0.00182
26.25 -0.00347
26.3 -0.00316
26.35 -0.00408
26.4 -0.00434
26.45 -0.00329
26.5 0.00138
26.55 0.0008
26.6 -0.00279
26.65 -0.00601
26.7 -0.01132
26.75 -0.01317
26.8 -0.01063
26.85 -0.01004
26.9 -0.00846
26.95 -0.00419
27 -0.0035
27.05 0.00141
27.1 0.00544
27.15 0.00571
27.2 0.0034
27.25 0.00593
27.3 0.00522
27.35 0.0061
27.4 0.00517
27.45 0.00783
27.5 0.01125
27.55 0.00685
27.6 0.00067
27.65 -0.00452
27.7 -0.00713
27.75 -0.00897
27.8 -0.00865
27.85 -0.01351
27.9 -0.02406
27.95 -0.03214
28 -0.03821
28.05 -0.04984
28.1 -0.05761
28.15 -0.0729
28.2 -0.09223
28.25 -0.10862
28.3 -0.12579
28.35 -0.14089
28.4 -0.16293
28.45 -0.18846
28.5 -0.2154
28.55 -0.24415
28.6 -0.27914
28.65 -0.31867
28.7 -0.35972
28.75 -0.40094
28.8 -0.44401
28.85 -0.49375
28.9 -0.54792
28.95 -0.61062
29 -0.6796
29.05 -0.75177
29.1 -0.82524
29.15 -0.89889
29.2 -0.96912
29.25 -1.03916
29.3 -1.11219
29.35 -1.18583
29.4 -1.25254
29.45 -1.31145
29.5 -1.37195
29.55 -1.42289
29.6 -1.47384
29.65 -1.52075
29.7 -1.5612
29.75 -1.59414
29.8 -1.61879
29.85 -1.63218
29.9 -1.63411
29.95 -1.62238
30 -1.59972
30.05 -1.56968
30.1 -1.53124
30.15 -1.4819
30.2 -1.41609
30.25 -1.33862
30.3 -1.25032
30.35 -1.15531
30.4 -1.05198
30.45 -0.94319
30.5 -0.83331
30.55 -0.72242
30.6 -0.60747
30.65 -0.49485
30.7 -0.38158
30.75 -0.27295
30.8 -0.16266
30.85 -0.05263
30.9 0.05836
30.95 0.16995
31 0.27802
31.05 0.37657
31.1 0.46389
31.15 0.54886
31.2 0.62715
31.25 0.70413
31.3 0.77467
31.35 0.8358
31.4 0.89136
31.45 0.93714
31.5 0.9745
31.55 1.00956
31.6 1.04281
31.65 1.07467
31.7 1.10041
31.75 1.12425
31.8 1.13848
31.85 1.14816
31.9 1.15279
31.95 1.15614
32 1.16111
32.05 1.17
32.1 1.1801
32.15 1.18728
32.2 1.19439
32.25 1.19905
32.3 1.20275
32.35 1.20795
32.4 1.21521
32.45 1.22093
32.5 1.22663
32.55 1.2316
32.6 1.22833
32.65 1.22197
32.7 1.21625
32.75 1.2043
32.8 1.19715
32.85 1.18633
32.9 1.17345
32.95 1.15625
33 1.14184
33.05 1.12763
33.1 1.11566
33.15 1.0973
33.2 1.07724
33.25 1.05473
33.3 1.0353
33.35 1.00961
33.4 0.98663
33.45 0.95959
33.5 0.93309
33.55 0.9099
33.6 0.88525
33.65 0.86002
33.7 0.83427
33.75 0.80748
33.8 0.77681
33.85 0.74214
33.9 0.70889
33.95 0.67278
34 0.63983
34.05 0.60481
34.1 0.57665
34.15 0.55153
34.2 0.52565
34.25 0.49731
34.3 0.47081
34.35 0.44603
34.4 0.41691
34.45 0.38802
34.5 0.35962
34.55 0.33053
34.6 0.30237
34.65 0.2804
34.7 0.26237
34.75 0.24374
34.8 0.22291
34.85 0.20307
34.9 0.1832
34.95 0.15965
35 0.13767
35.05 0.11733
35.1 0.09745
35.15 0.07584
35.2 0.05817
35.25 0.0396
35.3 0.02485
35.35 0.01431
35.4 -0.00206
35.45 -0.01385
35.5 -0.02454
35.55 -0.03235
35.6 -0.0418
35.65 -0.05427
35.7 -0.06601
35.75 -0.07598
35.8 -0.0836
35.85 -0.09739
35.9 -0.11076
35.95 -0.12603
36 -0.14101
36.05 -0.15728
36.1 -0.16693
36.15 -0.17075
36.2 -0.17373
36.25 -0.17543
36.3 -0.18169
36.35 -0.18545
36.4 -0.19095
36.45 -0.19163
36.5 -0.1966
36.55 -0.19645
36.6 -0.19298
36.65 -0.19555
36.7 -0.1981
36.75 -0.20049
36.8 -0.19875
36.85 -0.19444
36.9 -0.19275
36.95 -0.18892
37 -0.1892
37.05 -0.18875
37.1 -0.19367
37.15 -0.19682
37.2 -0.20408
37.25 -0.20783
37.3 -0.211
37.35 -0.20976
37.4 -0.2072
37.45 -0.20799
37.5 -0.21226
37.55 -0.21647
37.6 -0.2227
37.65 -0.2252
37.7 -0.22856
37.75 -0.22834
37.8 -0.22482
37.85 -0.21925
37.9 -0.21753
37.95 -0.21583
38 -0.21015
38.05 -0.20639
38.1 -0.20017
38.15 -0.19676
38.2 -0.18959
38.25 -0.18005
38.3 -0.16928
38.35 -0.16671
38.4 -0.16121
38.45 -0.1576
38.5 -0.15562
38.55 -0.15291
38.6 -0.14901
38.65 -0.14458
38.7 -0.14586
38.75 -0.15044
38.8 -0.15657
38.85 -0.16003
38.9 -0.16011
38.95 -0.16072
39 -0.15776
39.05 -0.15835
39.1 -0.15688
39.15 -0.15606
39.2 -0.15575
39.25 -0.15751
39.3 -0.15643
39.35 -0.15379
39.4 -0.15362
39.45 -0.14995
39.5 -0.14782
39.55 -0.14775
39.6 -0.14097
39.65 -0.13076
39.7 -0.12592
39.75 -0.12032
39.8 -0.11921
39.85 -0.12091
39.9 -0.12327
39.95 -0.12497
40 -0.12023
40.05 -0.11504
40.1 -0.11146
40.15 -0.10811
40.2 -0.10594
40.25 -0.10166
40.3 -0.10033
40.35 -0.09379
40.4 -0.08846
40.45 -0.08408
40.5 -0.08154
40.55 -0.08338
40.6 -0.08026
40.65 -0.0757
40.7 -0.07005
40.75 -0.06669
40.8 -0.06533
40.85 -0.06904
40.9 -0.06891
40.95 -0.07154
41 -0.07082
41.05 -0.0734
41.1 -0.07626
41.15 -0.07801
41.2 -0.08038
41.25 -0.08323
41.3 -0.08538
41.35 -0.08696
41.4 -0.08533
41.45 -0.08111
41.5 -0.08101
41.55 -0.08163
41.6 -0.07729
41.65 -0.07351
41.7 -0.06859
41.75 -0.06692
41.8 -0.06431
41.85 -0.06527
41.9 -0.06529
41.95 -0.06448
42 -0.059
42.05 -0.05775
42.1 -0.05955
42.15 -0.05606
42.2 -0.05745
42.25 -0.06101
42.3 -0.06326
42.35 -0.05905
42.4 -0.05979
42.45 -0.0577
42.5 -0.05306
42.55 -0.05363
42.6 -0.05179
42.65 -0.049
42.7 -0.04281
42.75 -0.03429
42.8 -0.02585
42.85 -0.01698
42.9 -0.01164
42.95 -0.01107
43 -0.01372
43.05 -0.01669
43.1 -0.01797
43.15 -0.02181
43.2 -0.02186
43.25 -0.02737
43.3 -0.02979
43.35 -0.03304
43.4 -0.0342
43.45 -0.03736
43.5 -0.03454
43.55 -0.03442
43.6 -0.03307
43.65 -0.03678
43.7 -0.03537
43.75 -0.03721
43.8 -0.03934
43.85 -0.0357
43.9 -0.02962
43.95 -0.0258
44 -0.02612
44.05 -0.02807
44.1 -0.03142
44.15 -0.029
44.2 -0.02725
44.25 -0.03064
44.3 -0.03358
44.35 -0.03208
44.4 -0.03448
44.45 -0.03472
44.5 -0.03293
44.55 -0.03139
44.6 -0.03223
44.65 -0.03034
44.7 -0.03267
44.75 -0.03061
44.8 -0.02576
44.85 -0.02587
44.9 -0.0262
44.95 -0.02222
45 -0.01494
45.05 -0.0089
45.1 -0.00632
45.15 -0.00213
45.2 -0.00159
45.25 0.00009
45.3 0.00296
45.35 0.00675
45.4 0.00684
45.45 0.00053
45.5 -0.00116
45.55 -0.00407
45.6 -0.00577
45.65 -0.01246
45.7 -0.01884
45.75 -0.02528
45.8 -0.0325
45.85 -0.03406
45.9 -0.03437
45.95 -0.03236
46 -0.02608
46.05 -0.02199
46.1 -0.02265
46.15 -0.01926
46.2 -0.01918
46.25 -0.01535
46.3 -0.01313
46.35 -0.01529
46.4 -0.02108
46.45 -0.02548
46.5 -0.03189
46.55 -0.03877
46.6 -0.03744
46.65 -0.03839
46.7 -0.03687
46.75 -0.0328
46.8 -0.03275
46.85 -0.03468
46.9 -0.0322
46.95 -0.02795
47 -0.02522
47.05 -0.02277
47.1 -0.01539
47.15 -0.00999
47.2 -0.00488
47.25 -0.00572
47.3 -0.00262
47.35 -0.00254
47.4 -0.00709
47.45 -0.00962
47.5 -0.00858
47.55 -0.00828
47.6 -0.0035
47.65 -0.00112
47.7 -0.00226
47.75 0.00122
47.8 0.00462
47.85 0.01036
47.9 0.01317
47.95 0.01087
48 0.00754
48.05 0.0046
48.1 0.00609
48.15 0.01045
48.2 0.01581
48.25 0.01747
48.3 0.01401
48.35 0.01067
48.4 0.0024
48.45 -0.00657
48.5 -0.01419
48.55 -0.01545
48.6 -0.01124
48.65 -0.00811
48.7 -0.00898
48.75 -0.01276
48.8 -0.01142
48.85 -0.01197
48.9 -0.00883
48.95 -0.00967
49 -0.01182
49.05 -0.01253
49.1 -0.01209
49.15 -0.01376
49.2 -0.01576
49.25 -0.01636
49.3 -0.01623
49.35 -0.01577
49.4 -0.01382
49.45 -0.00889
49.5 -0.00417
49.55 -0.00338
49.6 -0.00522
49.65 -0.00184
49.7 -0.00047
49.75 0.00345
49.8 0.0037
49.85 0.00272
49.9 0.00198
49.95 0.00138
50 -0.00421
50.05 -0.00832
50.1 -0.01524
50.15 -0.02127
50.2 -0.02813
50.25 -0.03512
50.3 -0.03466
50.35 -0.03158
50.4 -0.02746
50.45 -0.01856
50.5 -0.00916
50.55 0.00116
50.6 0.01012
50.65 0.01083
50.7 0.00559
50.75 -0.00193
50.8 -0.01061
50.85 -0.01846
50.9 -0.02212
50.95 -0.02392
51 -0.02218
51.05 -0.0206
51.1 -0.01668
51.15 -0.01697
51.2 -0.01128
51.25 -0.00998
51.3 -0.00488
51.35 -0.00587
51.4 -0.0013
51.45 0.00383
51.5 0.00219
51.55 -0.00342
51.6 -0.01046
51.65 -0.01264
51.7 -0.01719
51.75 -0.01927
51.8 -0.02061
51.85 -0.01864
51.9 -0.01711
51.95 -0.01624
52 -0.01714
52.05 -0.01174
52.1 -0.00921
52.15 -0.00521
52.2 -0.00414
52.25 0.00018
52.3 0.00107
52.35 0.00004
52.4 -0.00052
52.45 -0.00371
52.5 -0.00875
52.55 -0.01392
52.6 -0.01721
52.65 -0.01885
52.7 -0.01997
52.75 -0.0164
52.8 -0.00929
52.85 -0.00169
52.9 0.00485
52.95 0.00859
53 0.00666
53.05 0.00927
53.1 0.01068
53.15 0.01319
53.2 0.01426
53.25 0.01728
53.3 0.02146
53.35 0.02123
53.4 0.02031
53.45 0.0159
53.5 0.00841
53.55 -0.00091
53.6 -0.00182
53.65 -0.00058
53.7 -0.00044
53.75 0.00263
53.8 0.00498
53.85 0.006
53.9 0.0058
53.95 0.00214
54 -0.0028
54.05 -0.00614
54.1 -0.00444
54.15 -0.00255
54.2 0.00142
54.25 -0.00025
54.3 -0.00056
54.35 0.00003
54.4 0.00002
54.45 0.00065
54.5 -0.00117
54.55 0.00019
54.6 0.00425
54.65 0.0019
54.7 0.00476
54.75 0.00348
54.8 0.00349
54.85 0.00171
54.9 0.00022
54.95 0.00338
55 0.00646
55.05 0.00804
55.1 0.0087
55.15 0.009
55.2 0.00906
55.25 0.00798
55.3 0.00418
55.35 -0.00084
55.4 -0.00136
55.45 -0.00492
55.5 -0.00258
55.55 -0.00166
55.6 -0.00557
55.65 -0.00387
55.7 0.00047
55.75 0.00299
55.8 0.00743
55.85 0.00699
55.9 0.00363
55.95 -0.00323
56 -0.0063
56.05 -0.00915
56.1 -0.00872
56.15 -0.00462
56.2 -0.00183
56.25 -0.00406
56.3 -0.00797
56.35 -0.00719
56.4 -0.00277
56.45 0.00368
56.5 0.00297
56.55 0.00441
56.6 0.00628
56.65 0.00395
56.7 0.00367
56.75 0.00377
56.8 0.00434
56.85 0.00828
56.9 0.01359
56.95 0.01246
57 0.00698
57.05 0.00477
57.1 -0.00102
57.15 -0.00226
57.2 -0.0049
57.25 -0.00876
57.3 -0.01365
57.35 -0.01148
57.4 -0.00878
57.45 -0.00712
57.5 -0.00202
57.55 -0.00141
57.6 -0.00188
57.65 -0.00543
57.7 -0.00553
57.75 -0.00584
57.8 -0.00456
57.85 -0.00398
57.9 -0.00572
57.95 -0.00471
58 -0.00438
58.05 -0.00734
58.1 -0.00627
58.15 -0.0083
58.2 -0.00693
58.25 -0.00802
58.3 -0.0051
58.35 0.00039
58.4 0.00504
58.45 0.00345
58.5 0.00347
58.55 0.00465
58.6 0.00651
58.65 0.00754
58.7 0.01202
58.75 0.01466
58.8 0.0138
58.85 0.00827
58.9 0.00396
58.95 -0.00021
59 -0.00672
59.05 -0.00996
59.1 -0.00729
59.15 -0.00657
59.2 -0.00493
59.25 -0.00523
59.3 -0.00062
59.35 0.00212
59.4 0.00449
59.45 0.00139
59.5 0.00187
59.55 0.00181
59.6 0.00464
59.65 0.00626
59.7 0.01144
59.75 0.01597
59.8 0.01936
59.85 0.02355
59.9 0.02122
59.95 0.01615
60 0.01626
60.05 0.01876
60.1 0.01827
60.15 0.01278
60.2 0.0082
60.25 0.00452
60.3 0.00177
60.35 -0.00447
60.4 -0.00702
60.45 -0.00926
60.5 -0.00978
60.55 -0.00693
60.6 -0.00654
60.65 -0.00549
60.7 -0.00798
60.75 -0.00729
60.8 -0.01003
60.85 -0.00861
60.9 -0.00286
60.95 0.00465
61 0.00781
61.05 0.00439
61.1 0.0046
61.15 0.00675
61.2 0.00977
61.25 0.00731
61.3 0.00683
61.35 0.00742
61.4 0.00564
61.45 0.00043
61.5 -0.00734
61.55 -0.01046
61.6 -0.01527
61.65 -0.01862
61.7 -0.01781
61.75 -0.01515
61.8 -0.01447
61.85 -0.01611
61.9 -0.01242
61.95 -0.00996
62 -0.01067
62.05 -0.00606
62.1 -0.00484
62.15 -0.00132
62.2 -0.00005
62.25 0.00111
62.3 -0.00026
62.35 0.00042
62.4 -0.00224
62.45 -0.00557
62.5 -0.00961
62.55 -0.01023
62.6 -0.009
62.65 -0.00838
62.7 -0.00524
62.75 -0.00724
62.8 -0.00925
62.85 -0.00498
62.9 0.00214
62.95 0.00816
63 0.01201
63.05 0.01114
63.1 0.01314
63.15 0.01639
63.2 0.02069
63.25 0.01764
63.3 0.01661
63.35 0.01137
63.4 0.00745
63.45 0.001
63.5 0.00046
63.55 -0.00082
63.6 -0.00143
63.65 -0.00353
63.7 -0.00851
63.75 -0.01489
63.8 -0.01475
63.85 -0.00898
63.9 -0.00012
63.95 0.00199
64 -0.00067
64.05 -0.00334
64.1 -0.00826
64.15 -0.00794
64.2 -0.00635
64.25 -0.00586
64.3 -0.00621
64.35 -0.00303
64.4 -0.0002
64.45 0.00158
64.5 0.005
64.55 0.01143
64.6 0.01894
64.65 0.02443
64.7 0.02962
64.75 0.0278
64.8 0.02337
64.85 0.02302
64.9 0.02293
64.95 0.01754
65 0.01642
65.05 0.0188
65.1 0.01479
65.15 0.00825
65.2 0.00502
65.25 0.00662
65.3 0.00517
65.35 0.00245
65.4 0.0009
65.45 -0.00312
65.5 -0.00266
65.55 -0.0068
65.6 -0.00621
65.65 -0.00099
65.7 0.0011
65.75 0.00041
65.8 -0.00352
65.85 -0.0054
65.9 -0.0045
65.95 -0.00744
66 -0.00603
66.05 -0.00759
66.1 -0.00857
66.15 -0.00596
66.2 -0.00171
66.25 0.00119
66.3 -0.00201
66.35 -0.0009
66.4 -0.00425
66.45 -0.00461
66.5 -0.00505
66.55 -0.00938
66.6 -0.01547
66.65 -0.01356
66.7 -0.00905
66.75 -0.0062
66.8 -0.00375
66.85 -0.00134
66.9 -0.00457
66.95 -0.0111
67 -0.01348
67.05 -0.01574
67.1 -0.01222
67.15 -0.01144
67.2 -0.01066
67.25 -0.00658
67.3 -0.00451
67.35 -0.00146
67.4 -0.00156
67.45 -0.00153
67.5 -0.00319
67.55 -0.00729
67.6 -0.00504
67.65 0.00031
67.7 0.00662
67.75 0.01167
67.8 0.01632
67.85 0.01578
67.9 0.01505
67.95 0.01489
68 0.01578
68.05 0.01278
68.1 0.00832
68.15 0.00876
68.2 0.00528
68.25 0.00203
68.3 -0.00451
68.35 -0.01058
68.4 -0.01677
68.45 -0.01757
68.5 -0.01388
68.55 -0.01307
68.6 -0.01171
68.65 -0.00544
68.7 -0.00282
68.75 0.00031
68.8 -0.00122
68.85 -0.00101
68.9 -0.00225
68.95 -0.00122
69 0.00392
69.05 0.00778
69.1 0.00965
69.15 0.00631
69.2 0.00267
69.25 0.00059
69.3 0.00137
69.35 0.00173
69.4 0.00477
69.45 0.00227
69.5 -0.00413
69.55 -0.00736
69.6 -0.01211
69.65 -0.01421
69.7 -0.01587
69.75 -0.01912
69.8 -0.01913
69.85 -0.02079
69.9 -0.01566
69.95 -0.01373
70 -0.00727
70.05 -0.00165
70.1 0.00066
70.15 0.00477
70.2 0.00618
70.25 0.0104
70.3 0.00955
70.35 0.00786
70.4 0.00361
70.45 -0.00286
70.5 -0.00256
70.55 -0.00587
70.6 -0.00533
70.65 -0.0073
70.7 -0.00762
70.75 -0.00765
70.8 -0.00606
70.85 -0.00702
70.9 -0.01009
70.95 -0.01103
71 -0.01258
71.05 -0.0137
71.1 -0.00876
71.15 -0.00878
71.2 -0.00536
71.25 0.00125
71.3 0.00104
71.35 -0.00299
71.4 -0.00576
71.45 -0.01113
71.5 -0.01015
71.55 -0.00597
71.6 -0.00496
71.65 -0.00502
71.7 -0.00272
71.75 -0.00133
71.8 -0.00138
71.85 -0.00342
71.9 -0.00097
71.95 0.00492
72 0.00879
72.05 0.01268
72.1 0.00999
72.15 0.01134
72.2 0.01551
72.25 0.0204
72.3 0.02596
72.35 0.02455
72.4 0.02273
72.45 0.01942
72.5 0.01281
72.55 0.00785
72.6 0.00776
72.65 0.01153
72.7 0.01119
72.75 0.01268
72.8 0.01416
72.85 0.01388
72.9 0.00894
72.95 0.0045
73 -0.00083
73.05 -0.00701
73.1 -0.009
73.15 -0.01005
73.2 -0.01382
73.25 -0.01707
73.3 -0.02232
73.35 -0.02803
73.4 -0.02843
73.45 -0.02668
73.5 -0.01869
73.55 -0.01602
73.6 -0.00826
73.65 -0.00094
73.7 0.00759
73.75 0.00794
73.8 0.00931
73.85 0.01389
73.9 0.01461
73.95 0.01599
74 0.01201
74.05 0.00798
74.1 0.00384
74.15 0.00247
74.2 0.00428
74.25 0.00657
74.3 0.00463
74.35 0.00497
74.4 0.00825
74.45 0.00988
74.5 0.00689
74.55 0.00479
74.6 -0.00092
74.65 -0.00875
74.7 -0.01523
74.75 -0.02134
74.8 -0.0244
74.85 -0.02424
74.9 -0.01983
74.95 -0.01389
75 -0.01105
75.05 -0.01096
75.1 -0.00859
75.15 -0.003
75.2 0.00088
75.25 0.00506
75.3 0.00541
75.35 0.00543
75.4 0.00737
75.45 0.0088
75.5 0.01021
75.55 0.01073
75.6 0.01085
75.65 0.00684
75.7 0.00402
75.75 -0.0025
75.8 -0.00197
75.85 -0.00007
75.9 -0.00168
75.95 -0.00673
76 -0.00743
76.05 -0.0073
76.1 -0.00753
76.15 -0.00312
76.2 0.00447
76.25 0.01176
76.3 0.01121
76.35 0.01104
76.4 0.01409
76.45 0.01738
76.5 0.01926
76.55 0.02306
76.6 0.02349
76.65 0.0241
76.7 0.02586
76.75 0.02412
76.8 0.01648
76.85 0.00926
76.9 0.00116
76.95 -0.00272
77 -0.00186
77.05 -0.00147
77.1 -0.00017
77.15 0.00107
77.2 0.00189
77.25 0.0063
77.3 0.00643
77.35 0.00915
77.4 0.01139
77.45 0.01215
77.5 0.01531
77.55 0.01269
77.6 0.01075
77.65 0.00805
77.7 0.00054
77.75 -0.00727
77.8 -0.0152
77.85 -0.02252
77.9 -0.02336
77.95 -0.02475
78 -0.02574
78.05 -0.0229
78.1 -0.02015
78.15 -0.02139
78.2 -0.02078
78.25 -0.0198
78.3 -0.02213
78.35 -0.0176
78.4 -0.01767
78.45 -0.01607
78.5 -0.01193
78.55 -0.0077
78.6 -0.00705
78.65 -0.0052
78.7 -0.00727
78.75 -0.00838
78.8 -0.00848
78.85 -0.01036
78.9 -0.00974
78.95 -0.00557
79 -0.0037
79.05 -0.00138
79.1 0.00286
79.15 0.00847
79.2 0.0081
79.25 0.0093
79.3 0.00929
79.35 0.00772
79.4 0.0017
79.45 -0.00397
79.5 -0.00761
79.55 -0.01301
79.6 -0.01756
79.65 -0.015
79.7 -0.01248
79.75 -0.01209
79.8 -0.0067
79.85 -0.00486
79.9 -0.00718
79.95 -0.01148
80 -0.00888
80.05 -0.00385
80.1 0.00145
80.15 0.00811
80.2 0.0097
80.25 0.00911
80.3 0.00568
80.35 0.00124
80.4 -0.00051
80.45 -0.00205
80.5 -0.00023
80.55 0.0011
80.6 0.00438
80.65 0.00913
80.7 0.01594
80.75 0.01976
80.8 0.01728
80.85 0.01309
80.9 0.00904
80.95 0.00166
81 -0.00226
81.05 -0.00816
81.1 -0.01455
81.15 -0.01931
81.2 -0.02291
81.25 -0.02781
81.3 -0.026
81.35 -0.02263
81.4 -0.01511
81.45 -0.01026
81.5 -0.0079
81.55 -0.00498
81.6 -0.00623
81.65 -0.00668
81.7 -0.00575
81.75 -0.00266
81.8 0.0019
81.85 0.00923
81.9 0.01436
81.95 0.0169
82 0.01301
82.05 0.00807
82.1 0.00258
82.15 -0.0018
82.2 -0.00782
82.25 -0.00656
82.3 -0.00171
82.35 0.00274
82.4 0.00309
82.45 0.00407
82.5 0.00405
82.55 -0.00051
82.6 -0.00758
82.65 -0.01079
82.7 -0.01557
82.75 -0.01813
82.8 -0.02053
82.85 -0.02395
82.9 -0.02608
82.95 -0.02452
83 -0.02158
83.05 -0.01474
83.1 -0.01132
83.15 -0.01254
83.2 -0.0083
83.25 -0.00772
83.3 -0.00555
83.35 -0.00728
83.4 -0.00486
83.45 0.00105
83.5 0.00441
83.55 0.00272
83.6 -0.00012
83.65 -0.00193
83.7 -0.00063
83.75 0.00399
83.8 0.01062
83.85 0.01121
83.9 0.0098
83.95 0.00979
84 0.01027
84.05 0.01303
84.1 0.01075
84.15 0.00703
84.2 0.00616
84.25 0.00467
84.3 0.00652
84.35 0.00542
84.4 0.00584
84.45 0.00145
84.5 -0.00321
84.55 -0.0023
84.6 -0.00287
84.65 -0.00409
84.7 -0.00234
84.75 0.00349
84.8 0.01161
84.85 0.01685
84.9 0.02149
84.95 0.02107
85 0.02018
85.05 0.01955
85.1 0.02229
85.15 0.02538
85.2 0.02847
85.25 0.03141
85.3 0.03107
85.35 0.02672
85.4 0.02098
85.45 0.01339
85.5 0.011
85.55 0.00515
85.6 0.00441
85.65 0.00172
85.7 0.00324
85.75 0.00084
85.8 -0.00464
85.85 -0.0093
85.9 -0.01567
85.95 -0.02129
86 -0.02081
86.05 -0.01591
86.1 -0.01345
86.15 -0.01176
86.2 -0.00569
86.25 -0.00419
86.3 -0.00445
86.35 -0.00426
86.4 -0.00791
86.45 -0.00693
86.5 -0.00217
86.55 0.00337
86.6 0.00423
86.65 0.00262
86.7 0.00072
86.75 -0.00373
86.8 -0.00973
86.85 -0.01647
86.9 -0.01519
86.95 -0.01624
87 -0.01839
87.05 -0.02205
87.1 -0.02524
87.15 -0.02131
87.2 -0.01716
87.25 -0.01737
87.3 -0.01891
87.35 -0.01723
87.4 -0.01451
87.45 -0.00716
87.5 -0.00327
87.55 0.00443
87.6 0.00647
87.65 0.00416
87.7 0.00658
87.75 0.01215
87.8 0.01257
87.85 0.01648
87.9 0.01481
87.95 0.01232
88 0.01136
88.05 0.01039
88.1 0.01159
88.15 0.01444
88.2 0.01529
88.25 0.01153
88.3 0.00959
88.35 0.00296
88.4 0.0006
88.45 -0.00066
88.5 -0.00539
88.55 -0.01094
88.6 -0.00887
88.65 -0.01064
88.7 -0.00768
88.75 -0.00449
88.8 -0.00658
88.85 -0.0067
88.9 -0.00276
88.95 0.00239
89 0.00395
89.05 0.00254
89.1 -0.00093
89.15 -0.00137
89.2 0.0017
89.25 0.00216
89.3 -0.00095
89.35 -0.00277
89.4 -0.00061
89.45 0.00551
89.5 0.0101
89.55 0.01402
89.6 0.01228
89.65 0.00678
89.7 0.00707
89.75 0.00434
89.8 0.00003
89.85 0.00191
89.9 0.00308
89.95 0.00747
90 0.01118
90.05 0.0143
90.1 0.01165
90.15 0.01253
90.2 0.01256
90.25 0.00986
90.3 0.00752
90.35 0.00833
90.4 0.00404
90.45 0.00105
90.5 -0.00499
90.55 -0.01269
90.6 -0.01903
90.65 -0.02077
90.7 -0.0198
90.75 -0.02072
90.8 -0.01848
90.85 -0.01631
90.9 -0.00991
90.95 -0.00144
91 0.0071
91.05 0.01476
91.1 0.0181
91.15 0.02048
91.2 0.01858
91.25 0.01263
91.3 0.00675
91.35 0.00382
91.4 0.0056
91.45 0.00357
91.5 0.00094
91.55 -0.00098
91.6 -0.00464
91.65 -0.01023
91.7 -0.01368
91.75 -0.01256
91.8 -0.01136
91.85 -0.00901
91.9 -0.01077
91.95 -0.01114
92 -0.01367
92.05 -0.01815
92.1 -0.01584
92.15 -0.01562
92.2 -0.01729
92.25 -0.01927
92.3 -0.02232
92.35 -0.02283
92.4 -0.02517
92.45 -0.02503
92.5 -0.02115
92.55 -0.01381
92.6 -0.00654
92.65 0.00332
92.7 0.00923
92.75 0.01215
92.8 0.01526
92.85 0.01893
92.9 0.02057
92.95 0.01693
93 0.0113
93.05 0.00889
93.1 0.00982
93.15 0.00568
93.2 0.00585
93.25 0.00417
93.3 0.00476
93.35 0.0071
93.4 0.00348
93.45 0.00259
93.5 0.00008
93.55 -0.00597
93.6 -0.00515
93.65 -0.002
93.7 0.00284
93.75 0.00688
93.8 0.01094
93.85 0.01689
93.9 0.01831
93.95 0.01939
94 0.02065
94.05 0.0163
94.1 0.01328
94.15 0.00562
94.2 -0.00016
94.25 -0.00795
94.3 -0.00883
94.35 -0.00752
94.4 -0.0043
94.45 -0.00542
94.5 -0.0029
94.55 -0.00057
94.6 0.00042
94.65 -0.00013
94.7 -0.00094
94.75 -0.00027
94.8 -0.00373
94.85 -0.00947
94.9 -0.0092
94.95 -0.01079
95 -0.00795
95.05 -0.00801
95.1 -0.00859
95.15 -0.0105
95.2 -0.00896
95.25 -0.00825
95.3 -0.00475
95.35 0.00204
95.4 0.00936
95.45 0.01045
95.5 0.01352
95.55 0.01814
95.6 0.02421
95.65 0.02945
95.7 0.0333
95.75 0.03499
95.8 0.03135
95.85 0.03066
95.9 0.02598
95.95 0.02262
96 0.01796
96.05 0.01761
96.1 0.01811
96.15 0.01566
96.2 0.00925
96.25 0.00372
96.3 -0.00225
96.35 -0.0026
96.4 -0.00411
96.45 -0.00255
96.5 -0.0003
96.55 0.00526
96.6 0.00442
96.65 0.00323
96.7 -0.00031
96.75 -0.00423
96.8 -0.01014
96.85 -0.01176
96.9 -0.01308
96.95 -0.01751
97 -0.01753
97.05 -0.0211
97.1 -0.01831
97.15 -0.0134
97.2 -0.01314
97.25 -0.01149
97.3 -0.008
97.35 -0.0071
97.4 -0.0084
97.45 -0.01028
97.5 -0.01367
97.55 -0.01177
97.6 -0.01032
97.65 -0.00744
97.7 -0.00633
97.75 -0.00372
97.8 -0.00391
97.85 -0.00164
97.9 -0.00258
97.95 -0.00006
98 0.00082
98.05 -0.00132
98.1 -0.00644
98.15 -0.00971
98.2 -0.0079
98.25 -0.00574
98.3 -0.00232
98.35 -0.00416
98.4 -0.00679
98.45 -0.00835
98.5 -0.00928
98.55 -0.01254
98.6 -0.01126
98.65 -0.00671
98.7 0.00107
98.75 0.00401
98.8 0.00561
98.85 0.00364
98.9 0.00428
98.95 0.00209
99 0.00272
99.05 0.00219
99.1 0.00337
99.15 0.00321
99.2 0.00614
99.25 0.00483
99.3 0.006
99.35 0.00484
99.4 0.00417
99.45 -0.00037
99.5 -0.00196
99.55 -0.00536
99.6 -0.00929
99.65 -0.00849
99.7 -0.00661
99.75 -0.00544
99.8 -0.00488
99.85 -0.00351
99.9 0.00112
99.95 0.00045
