0 0
0.05 0.00739
0.1 0.01412
0.15 0.01735
0.2 0.02077
0.25 0.02869
0.3 0.04012
0.35 0.0528
0.4 0.05953
0.45 0.06727
0.5 0.07319
0.55 0.07939
0.6 0.07677
0.65 0.07476
0.7 0.07603
0.75 0.07897
0.8 0.08034
0.85 0.0739
0.9 0.07091
0.95 0.0634
1 0.0524
1.05 0.04494
1.1 0.03763
1.15 0.03621
1.2 0.03693
1.25 0.03686
1.3 0.03505
1.35 0.03234
1.4 0.03194
1.45 0.0298
1.5 0.02903
1.55 0.02955
1.6 0.02957
1.65 0.02674
1.7 0.02992
1.75 0.03229
1.8 0.03504
1.85 0.04051
1.9 0.04419
1.95 0.04377
2 0.04116
2.05 0.03584
2.1 0.03666
2.15 0.03279
2.2 0.02846
2.25 0.02263
2.3 0.01716
2.35 0.01148
2.4 0.00474
2.45 0.00273
2.5 -0.00038
2.55 0.00041
2.6 0.00462
2.65 0.00512
2.7 0.01017
2.75 0.01127
2.8 0.01645
2.85 0.01998
2.9 0.02347
2.95 0.02714
3 0.02551
3.05 0.02886
3.1 0.03316
3.15 0.03054
3.2 0.03263
3.25 0.03791
3.3 0.03557
3.35 0.03237
3.4 0.0333
3.45 0.02878
3.5 0.02066
3.55 0.01515
3.6 0.0123
3.65 0.0098
3.7 0.00836
3.75 0.01245
3.8 0.01963
3.85 0.02037
3.9 0.02203
3.95 0.01793
4 0.01557
4.05 0.00996
4.1 0.00868
4.15 0.01073
4.2 0.0109
4.25 0.01206
4.3 0.01176
4.35 0.00845
4.4 0.00041
4.45 -0.00328
4.5 -0.00731
4.55 -0.01674
4.6 -0.03261
4.65 -0.04718
4.7 -0.06174
4.75 -0.08163
4.8 -0.09924
4.85 -0.11923
4.9 -0.14635
4.95 -0.17713
5 -0.21764
5.05 -0.26323
5.1 -0.31308
5.15 -0.36237
5.2 -0.41464
5.25 -0.477
5.3 -0.53905
5.35 -0.60118
5.4 -0.67056
5.45 -0.7415
5.5 -0.81718
5.55 -0.89785
5.6 -0.97327
5.65 -1.04857
5.7 -1.11828
5.75 -1.18482
5.8 -1.24769
5.85 -1.30115
5.9 -1.34684
5.95 -1.38561
6 -1.41731
6.05 -1.44679
6.1 -1.46845
6.15 -1.49057
6.2 -1.50874
6.25 -1.51335
6.3 -1.51171
6.35 -1.50605
6.4 -1.4937
6.45 -1.47036
6.5 -1.44254
6.55 -1.40816
6.6 -1.37016
6.65 -1.32405
6.7 -1.27016
6.75 -1.20817
6.8 -1.13428
6.85 -1.05122
6.9 -0.95912
6.95 -0.86539
7 -0.76582
7.05 -0.65433
7.1 -0.53332
7.15 -0.41503
7.2 -0.28922
7.25 -0.16404
7.3 -0.03546
7.35 0.09125
7.4 0.21443
7.45 0.33576
7.5 0.4506
7.55 0.55985
7.6 0.66383
7.65 0.76234
7.7 0.86017
7.75 0.95545
7.8 1.04026
7.85 1.11891
7.9 1.18703
7.95 1.24605
8 1.29451
8.05 1.33201
8.1 1.36183
8.15 1.38918
8.2 1.40733
8.25 1.42024
8.3 1.42481
8.35 1.42115
8.4 1.41646
8.45 1.40947
8.5 1.40168
8.55 1.38738
8.6 1.37667
8.65 1.35841
8.7 1.34326
8.75 1.32155
8.8 1.30098
8.85 1.27742
8.9 1.25692
8.95 1.2298
9 1.20445
9.05 1.18048
9.1 1.15053
9.15 1.12552
9.2 1.10341
9.25 1.07933
9.3 1.05354
9.35 1.02904
9.4 1.00543
9.45 0.97757
9.5 0.95096
9.55 0.9242
9.6 0.89383
9.65 0.86002
9.7 0.82921
9.75 0.80246
9.8 0.77463
9.85 0.7499
9.9 0.72942
9.95 0.70599
10 0.68255
10.05 0.65682
10.1 0.63031
10.15 0.61137
10.2 0.59135
10.25 0.57056
10.3 0.55004
10.35 0.52702
10.4 0.50716
10.45 0.48541
10.5 0.46862
10.55 0.44997
10.6 0.43667
10.65 0.41687
10.7 0.39584
10.75 0.38065
10.8 0.36038
10.85 0.33634
10.9 0.30981
10.95 0.28574
11 0.26363
11.05 0.24205
11.1 0.22552
11.15 0.21075
11.2 0.19243
11.25 0.17895
11.3 0.16318
11.35 0.14642
11.4 0.13422
11.45 0.12245
11.5 0.11068
11.55 0.09778
11.6 0.08074
11.65 0.05783
11.7 0.03851
11.75 0.02044
11.8 0.00755
11.85 -0.00978
11.9 -0.0269
11.95 -0.04393
12 -0.06135
12.05 -0.07678
12.1 -0.08582
12.15 -0.09497
12.2 -0.1045
12.25 -0.11191
12.3 -0.11782
12.35 -0.12336
12.4 -0.1299
12.45 -0.13965
12.5 -0.15296
12.55 -0.16491
12.6 -0.17531
12.65 -0.18184
12.7 -0.19074
12.75 -0.19443
12.8 -0.19931
12.85 -0.20428
12.9 -0.2042
12.95 -0.20344
13 -0.20808
13.05 -0.21034
13.1 -0.21271
13.15 -0.215
13.2 -0.21761
13.25 -0.22013
13.3 -0.21644
13.35 -0.21257
13.4 -0.21408
13.45 -0.21577
13.5 -0.2141
13.55 -0.21402
13.6 -0.21723
13.65 -0.21735
13.7 -0.21738
13.75 -0.21214
13.8 -0.20699
13.85 -0.20424
13.9 -0.20214
13.95 -0.19588
14 -0.19453
14.05 -0.19451
14.1 -0.19325
14.15 -0.18874
14.2 -0.18648
14.25 -0.18106
14.3 -0.18139
14.35 -0.18351
14.4 -0.18575
14.45 -0.18907
14.5 -0.18484
14.55 -0.18384
14.6 -0.17696
14.65 -0.17288
14.7 -0.17177
14.75 -0.17416
14.8 -0.17065
14.85 -0.17007
14.9 -0.17077
14.95 -0.1646
15 -0.15998
15.05 -0.1551
15.1 -0.15029
15.15 -0.14357
15.2 -0.13477
15.25 -0.13127
15.3 -0.13223
15.35 -0.13042
15.4 -0.1324
15.45 -0.1311
15.5 -0.13251
15.55 -0.13248
15.6 -0.13191
15.65 -0.13216
15.7 -0.12728
15.75 -0.12112
15.8 -0.11782
15.85 -0.11568
15.9 -0.10964
15.95 -0.10979
16 -0.11282
16.05 -0.11226
16.1 -0.11337
16.15 -0.11155
16.2 -0.10718
16.25 -0.09931
16.3 -0.09764
16.35 -0.10001
16.4 -0.10248
16.45 -0.10236
16.5 -0.09652
16.55 -0.09013
16.6 -0.08191
16.65 -0.07363
16.7 -0.07084
16.75 -0.06635
16.8 -0.06874
16.85 -0.06713
16.9 -0.06507
16.95 -0.06738
17 -0.07027
17.05 -0.07257
17.1 -0.07747
17.15 -0.07773
17.2 -0.07757
17.25 -0.07843
17.3 -0.07525
17.35 -0.07597
17.4 -0.07733
17.45 -0.07498
17.5 -0.07375
17.55 -0.06884
17.6 -0.06513
17.65 -0.06018
17.7 -0.05678
17.75 -0.05226
17.8 -0.04629
17.85 -0.04419
17.9 -0.0408
17.95 -0.04144
18 -0.0393
18.05 -0.03792
18.1 -0.03944
18.15 -0.04318
18.2 -0.04687
18.25 -0.05243
18.3 -0.05703
18.35 -0.06008
18.4 -0.06316
18.45 -0.06731
18.5 -0.07247
18.55 -0.07144
18.6 -0.07239
18.65 -0.07214
18.7 -0.06486
18.75 -0.05661
18.8 -0.052
18.85 -0.05236
18.9 -0.05594
18.95 -0.06119
19 -0.06236
19.05 -0.06039
19.1 -0.0543
19.15 -0.04838
19.2 -0.04545
19.25 -0.03947
19.3 -0.03106
19.35 -0.02127
19.4 -0.01625
19.45 -0.01676
19.5 -0.01839
19.55 -0.02307
19.6 -0.03125
19.65 -0.03976
19.7 -0.04742
19.75 -0.05252
19.8 -0.05132
19.85 -0.04855
19.9 -0.04304
19.95 -0.04293
20 -0.04068
20.05 -0.03981
20.1 -0.03874
20.15 -0.03464
20.2 -0.0315
20.25 -0.02658
20.3 -0.01847
20.35 -0.00969
20.4 -0.00894
20.45 -0.00582
20.5 -0.00077
20.55 -0.00403
20.6 -0.00362
20.65 -0.00043
20.7 0.00087
20.75 -0.0019
20.8 -0.00745
20.85 -0.01479
20.9 -0.01582
20.95 -0.01912
21 -0.01947
21.05 -0.02454
21.1 -0.02837
21.15 -0.02838
21.2 -0.0271
21.25 -0.0246
21.3 -0.02566
21.35 -0.02476
21.4 -0.02354
21.45 -0.02688
21.5 -0.03158
21.55 -0.0323
21.6 -0.02963
21.65 -0.02697
21.7 -0.02031
21.75 -0.01576
21.8 -0.009
21.85 -0.0068
21.9 -0.00623
21.95 -0.0098
22 -0.00818
22.05 -0.0045
22.1 0.00009
22.15 0.00492
22.2 0.00201
22.25 -0.00199
22.3 -0.00875
22.35 -0.01126
22.4 -0.01707
22.45 -0.01982
22.5 -0.01767
22.55 -0.0177
22.6 -0.0211
22.65 -0.02408
22.7 -0.02871
22.75 -0.03403
22.8 -0.04015
22.85 -0.03946
22.9 -0.04027
22.95 -0.03686
23 -0.02883
23.05 -0.02446
23.1 -0.01772
23.15 -0.01248
23.2 -0.00696
23.25 -0.00241
23.3 0.00206
23.35 0.00636
23.4 0.01011
23.45 0.01203
23.5 0.01265
23.55 0.01488
23.6 0.01618
23.65 0.01423
23.7 0.00717
23.75 0.00554
23.8 -0.00037
23.85 -0.00762
23.9 -0.01035
23.95 -0.0139
24 -0.01627
24.05 -0.01498
24.1 -0.01349
24.15 -0.00827
24.2 -0.00964
24.25 -0.01285
24.3 -0.0112
24.35 -0.00763
24.4 -0.00873
24.45 -0.0049
24.5 -0.00151
24.55 0.00106
24.6 -0.00107
24.65 0.00142
24.7 0.00327
24.75 0.00274
24.8 0.00494
24.85 0.00998
24.9 0.00972
24.95 0.01013
25 0.00588
25.05 0.00366
25.1 -0.00058
25.15 -0.00679
25.2 -0.01374
25.25 -0.02197
25.3 -0.02975
25.35 -0.0346
25.4 -0.03693
25.45 -0.03946
25.5 -0.03617
25.55 -0.03457
25.6 -0.0293
25.65 -0.02095
25.7 -0.01708
25.75 -0.01318
25.8 -0.01354
25.85 -0.01335
25.9 -0.01693
25.95 -0.02138
26 -0.02027
26.05 -0.01847
26.1 -0.01637
26.15 -0.01146
26.2 -0.00385
26.25 0.00017
26.3 0.00217
26.35 0.00497
26.4 0.00848
26.45 0.01341
26.5 0.01084
26.55 0.0072
26.6 0.00569
26.65 0.0024
26.7 -0.00046
26.75 -0.00646
26.8 -0.00819
26.85 -0.01023
26.9 -0.00695
26.95 -0.00473
27 -0.00356
27.05 -0.0048
27.1 -0.00635
27.15 -0.01018
27.2 -0.01248
27.25 -0.0134
27.3 -0.00976
27.35 -0.00874
27.4 -0.00858
27.45 -0.01116
27.5 -0.01583
27.55 -0.02266
27.6 -0.02445
27.65 -0.02861
27.7 -0.03497
27.75 -0.04051
27.8 -0.04008
27.85 -0.03529
27.9 -0.03584
27.95 -0.04051
28 -0.04348
28.05 -0.04694
28.1 -0.0553
28.15 -0.06684
28.2 -0.07855
28.25 -0.089
28.3 -0.09936
28.35 -0.10778
28.4 -0.11867
28.45 -0.13638
28.5 -0.1556
28.55 -0.17252
28.6 -0.19168
28.65 -0.21647
28.7 -0.24498
28.75 -0.27305
28.8 -0.30456
28.85 -0.34156
28.9 -0.38356
28.95 -0.43344
29 -0.48668
29.05 -0.54419
29.1 -0.5974
29.15 -0.65422
29.2 -0.71478
29.25 -0.77057
29.3 -0.83134
29.35 -0.8866
29.4 -0.94278
29.45 -0.99766
29.5 -1.04823
29.55 -1.09712
29.6 -1.14058
29.65 -1.1864
29.7 -1.23022
29.75 -1.26196
29.8 -1.28703
29.85 -1.30527
29.9 -1.31377
29.95 -1.3183
30 -1.31124
30.05 -1.29349
30.1 -1.26659
30.15 -1.23471
30.2 -1.19549
30.25 -1.14483
30.3 -1.09089
30.35 -1.03095
30.4 -0.95991
30.45 -0.88305
30.5 -0.79838
30.55 -0.70804
30.6 -0.61147
30.65 -0.51545
30.7 -0.42182
30.75 -0.33172
30.8 -0.24266
30.85 -0.15219
30.9 -0.06014
30.95 0.03084
31 0.1209
31.05 0.20317
31.1 0.28222
31.15 0.35379
31.2 0.41803
31.25 0.47949
31.3 0.53593
31.35 0.5888
31.4 0.63973
31.45 0.68755
31.5 0.72782
31.55 0.76559
31.6 0.79747
31.65 0.82982
31.7 0.86311
31.75 0.88855
31.8 0.91065
31.85 0.9353
31.9 0.95742
31.95 0.97511
32 0.98871
32.05 0.99715
32.1 1.00317
32.15 1.00548
32.2 1.00616
32.25 1.01262
32.3 1.02204
32.35 1.03444
32.4 1.04746
32.45 1.05486
32.5 1.06051
32.55 1.06327
32.6 1.06019
32.65 1.05951
32.7 1.05611
32.75 1.05264
32.8 1.04148
32.85 1.02964
32.9 1.01965
32.95 1.00952
33 1.00004
33.05 0.98966
33.1 0.97345
33.15 0.95222
33.2 0.92906
33.25 0.90365
33.3 0.87794
33.35 0.85433
33.4 0.82694
33.45 0.79752
33.5 0.76778
33.55 0.73855
33.6 0.71261
33.65 0.68638
33.7 0.65904
33.75 0.63079
33.8 0.60581
33.85 0.57782
33.9 0.54983
33.95 0.52635
34 0.50474
34.05 0.4837
34.1 0.46635
34.15 0.44396
34.2 0.42571
34.25 0.40401
34.3 0.38632
34.35 0.3658
34.4 0.34154
34.45 0.31855
34.5 0.29944
34.55 0.27909
34.6 0.25948
34.65 0.24327
34.7 0.22478
34.75 0.20979
34.8 0.19639
34.85 0.17501
34.9 0.15826
34.95 0.13674
35 0.118
35.05 0.10106
35.1 0.08459
35.15 0.06446
35.2 0.04489
35.25 0.02973
35.3 0.0142
35.35 -0.00135
35.4 -0.01062
35.45 -0.02147
35.5 -0.02681
35.55 -0.03581
35.6 -0.04062
35.65 -0.05109
35.7 -0.06462
35.75 -0.07301
35.8 -0.08546
35.85 -0.09525
35.9 -0.10248
35.95 -0.11042
36 -0.11947
36.05 -0.13027
36.1 -0.13294
36.15 -0.13479
36.2 -0.13349
36.25 -0.13211
36.3 -0.12999
36.35 -0.12694
36.4 -0.13157
36.45 -0.13705
36.5 -0.14501
36.55 -0.14676
36.6 -0.15144
36.65 -0.15495
36.7 -0.16017
36.75 -0.16041
36.8 -0.16045
36.85 -0.16067
36.9 -0.16462
36.95 -0.16738
37 -0.17058
37.05 -0.17224
37.1 -0.17246
37.15 -0.17057
37.2 -0.17191
37.25 -0.16825
37.3 -0.16143
37.35 -0.16145
37.4 -0.16299
37.45 -0.16067
37.5 -0.16322
37.55 -0.16359
37.6 -0.16309
37.65 -0.1663
37.7 -0.16919
37.75 -0.17268
37.8 -0.17413
37.85 -0.17665
37.9 -0.17989
37.95 -0.18228
38 -0.18076
38.05 -0.18069
38.1 -0.17512
38.15 -0.16741
38.2 -0.15822
38.25 -0.1489
38.3 -0.14089
38.35 -0.13939
38.4 -0.13616
38.45 -0.12972
38.5 -0.12667
38.55 -0.12179
38.6 -0.11652
38.65 -0.11824
38.7 -0.12044
38.75 -0.12184
38.8 -0.11798
38.85 -0.11604
38.9 -0.11839
38.95 -0.12131
39 -0.12137
39.05 -0.12086
39.1 -0.12019
39.15 -0.12176
39.2 -0.12597
39.25 -0.12895
39.3 -0.12753
39.35 -0.12218
39.4 -0.11482
39.45 -0.1051
39.5 -0.10284
39.55 -0.10253
39.6 -0.09922
39.65 -0.09603
39.7 -0.09081
39.75 -0.08593
39.8 -0.07862
39.85 -0.07644
39.9 -0.07491
39.95 -0.07513
40 -0.0797
40.05 -0.08124
40.1 -0.08117
40.15 -0.07878
40.2 -0.0798
40.25 -0.08202
40.3 -0.07997
40.35 -0.07626
40.4 -0.07656
40.45 -0.07479
40.5 -0.06932
40.55 -0.06959
40.6 -0.07194
40.65 -0.07188
40.7 -0.07047
40.75 -0.06537
40.8 -0.05861
40.85 -0.05484
40.9 -0.05205
40.95 -0.05066
41 -0.04825
41.05 -0.052
41.1 -0.05771
41.15 -0.06537
41.2 -0.06866
41.25 -0.07086
41.3 -0.07204
41.35 -0.06672
41.4 -0.05771
41.45 -0.05244
41.5 -0.05306
41.55 -0.05314
41.6 -0.05281
41.65 -0.0548
41.7 -0.05982
41.75 -0.061
41.8 -0.06111
41.85 -0.05578
41.9 -0.04814
41.95 -0.04072
42 -0.03534
42.05 -0.03062
42.1 -0.03314
42.15 -0.03584
42.2 -0.04045
42.25 -0.0424
42.3 -0.04591
42.35 -0.04607
42.4 -0.046
42.45 -0.04834
42.5 -0.04983
42.55 -0.05234
42.6 -0.05553
42.65 -0.05866
42.7 -0.05985
42.75 -0.05724
42.8 -0.05547
42.85 -0.0557
42.9 -0.05033
42.95 -0.04374
43 -0.03528
43.05 -0.03356
43.1 -0.03008
43.15 -0.02445
43.2 -0.01663
43.25 -0.0132
43.3 -0.01487
43.35 -0.01274
43.4 -0.01729
43.45 -0.01792
43.5 -0.01475
43.55 -0.01077
43.6 -0.01262
43.65 -0.01644
43.7 -0.01972
43.75 -0.01903
43.8 -0.01851
43.85 -0.01704
43.9 -0.0188
43.95 -0.02097
44 -0.02599
44.05 -0.02681
44.1 -0.02601
44.15 -0.02662
44.2 -0.02927
44.25 -0.0258
44.3 -0.01885
44.35 -0.01844
44.4 -0.0179
44.45 -0.01729
44.5 -0.01909
44.55 -0.0205
44.6 -0.01722
44.65 -0.01972
44.7 -0.02484
44.75 -0.02425
44.8 -0.02446
44.85 -0.02522
44.9 -0.02278
44.95 -0.02548
45 -0.03086
45.05 -0.03202
45.1 -0.03379
45.15 -0.03468
45.2 -0.02929
45.25 -0.02159
45.3 -0.01208
45.35 -0.00487
45.4 -0.00386
45.45 -0.00561
45.5 -0.00489
45.55 -0.00437
45.6 -0.00648
45.65 -0.01234
45.7 -0.01213
45.75 -0.00876
45.8 -0.00334
45.85 -0.00364
45.9 -0.00405
45.95 -0.00067
46 0.00493
46.05 0.01128
46.1 0.01303
46.15 0.00839
46.2 0.00532
46.25 0.00391
46.3 0.00217
46.35 0.00215
46.4 -0.00156
46.45 -0.0014
46.5 -0.00137
46.55 -0.00022
46.6 -0.00436
46.65 -0.00843
46.7 -0.01051
46.75 -0.00799
46.8 -0.01106
46.85 -0.01731
46.9 -0.02514
46.95 -0.02493
47 -0.02444
47.05 -0.01933
47.1 -0.01976
47.15 -0.01944
47.2 -0.01518
47.25 -0.0093
47.3 -0.00114
47.35 0.00259
47.4 0.00421
47.45 0.00174
47.5 -0.00306
47.55 -0.00861
47.6 -0.00968
47.65 -0.01395
47.7 -0.02112
47.75 -0.02473
47.8 -0.0281
47.85 -0.03102
47.9 -0.02986
47.95 -0.02438
48 -0.0182
48.05 -0.00921
48.1 -0.00266
48.15 0.00406
48.2 0.00573
48.25 0.00879
48.3 0.00977
48.35 0.00524
48.4 -0.0034
48.45 -0.0048
48.5 -0.00644
48.55 -0.00936
48.6 -0.01472
48.65 -0.02055
48.7 -0.02593
48.75 -0.02879
48.8 -0.0279
48.85 -0.02945
48.9 -0.02963
48.95 -0.02862
49 -0.02438
49.05 -0.01823
49.1 -0.01359
49.15 -0.00916
49.2 -0.00431
49.25 -0.00356
49.3 -0.00175
49.35 -0.0032
49.4 -0.00221
49.45 0.00238
49.5 0.00244
49.55 0.00457
49.6 0.00467
49.65 0.00542
49.7 0.00914
49.75 0.00701
49.8 0.00751
49.85 0.00196
49.9 0.00036
49.95 0.00292
50 0.00173
50.05 -0.0041
50.1 -0.00777
50.15 -0.01267
50.2 -0.01454
50.25 -0.01374
50.3 -0.01078
50.35 -0.00839
50.4 -0.0084
50.45 -0.00947
50.5 -0.0144
50.55 -0.01531
50.6 -0.01136
50.65 -0.00393
50.7 0.00285
50.75 0.0062
50.8 0.00331
50.85 -0.00258
50.9 -0.01116
50.95 -0.01483
51 -0.01826
51.05 -0.01578
51.1 -0.01688
51.15 -0.01506
51.2 -0.00965
51.25 -0.00919
51.3 -0.01022
51.35 -0.01101
51.4 -0.01388
51.45 -0.01756
51.5 -0.01801
51.55 -0.01922
51.6 -0.02298
51.65 -0.02611
51.7 -0.02381
51.75 -0.02329
51.8 -0.02241
51.85 -0.02035
51.9 -0.02055
51.95 -0.02062
52 -0.01633
52.05 -0.00942
52.1 -0.00329
52.15 0.00417
52.2 0.005
52.25 0.00565
52.3 0.00153
52.35 -0.00549
52.4 -0.01002
52.45 -0.01007
52.5 -0.01074
52.55 -0.01013
52.6 -0.0041
52.65 0.00316
52.7 0.01222
52.75 0.01788
52.8 0.01535
52.85 0.01617
52.9 0.0197
52.95 0.02472
53 0.02693
53.05 0.02627
53.1 0.0263
53.15 0.02626
53.2 0.02136
53.25 0.01273
53.3 0.00285
53.35 -0.00093
53.4 -0.00233
53.45 -0.00504
53.5 -0.00389
53.55 -0.00521
53.6 -0.00984
53.65 -0.0136
53.7 -0.01496
53.75 -0.01919
53.8 -0.02254
53.85 -0.02417
53.9 -0.0239
53.95 -0.02446
54 -0.02728
54.05 -0.02464
54.1 -0.01892
54.15 -0.01118
54.2 -0.00606
54.25 -0.00292
54.3 0.00094
54.35 0.00081
54.4 -0.00266
54.45 -0.00598
54.5 -0.01083
54.55 -0.00858
54.6 -0.00254
54.65 0.00448
54.7 0.01232
54.75 0.01835
54.8 0.02461
54.85 0.02403
54.9 0.01915
54.95 0.01334
55 0.008
55.05 0.00787
55.1 0.00682
55.15 0.00583
55.2 0.00297
55.25 0.00469
55.3 0.00857
55.35 0.00886
55.4 0.01167
55.45 0.00994
55.5 0.00662
55.55 0.00263
55.6 0.00251
55.65 0.00553
55.7 0.0054
55.75 0.00756
55.8 0.01135
55.85 0.01328
55.9 0.01722
55.95 0.01402
56 0.01229
56.05 0.01183
56.1 0.01393
56.15 0.01601
56.2 0.01849
56.25 0.02139
56.3 0.01872
56.35 0.01567
56.4 0.01391
56.45 0.01257
56.5 0.01178
56.55 0.00827
56.6 0.00594
56.65 0.00039
56.7 -0.00193
56.75 -0.00725
56.8 -0.01136
56.85 -0.01161
56.9 -0.00913
56.95 -0.01159
57 -0.01654
57.05 -0.01557
57.1 -0.01866
57.15 -0.02161
57.2 -0.02193
57.25 -0.01728
57.3 -0.01496
57.35 -0.01368
57.4 -0.01185
57.45 -0.00526
57.5 0.00215
57.55 0.00425
57.6 0.00744
57.65 0.01243
57.7 0.01702
57.75 0.01798
57.8 0.01906
57.85 0.02129
57.9 0.0237
57.95 0.02032
58 0.01745
58.05 0.01713
58.1 0.0175
58.15 0.01624
58.2 0.01365
58.25 0.00951
58.3 0.00272
58.35 -0.0042
58.4 -0.01213
58.45 -0.01206
58.5 -0.00828
58.55 -0.00408
58.6 -0.00572
58.65 -0.00569
58.7 -0.00746
58.75 -0.011
58.8 -0.01527
58.85 -0.01235
58.9 -0.01185
58.95 -0.00929
59 -0.00945
59.05 -0.01191
59.1 -0.01568
59.15 -0.01663
59.2 -0.0117
59.25 -0.00319
59.3 0.00049
59.35 -0.00186
59.4 -0.00175
59.45 -0.00424
59.5 -0.00175
59.55 -0.0049
59.6 -0.00925
59.65 -0.00738
59.7 -0.00207
59.75 -0.00289
59.8 -0.00483
59.85 -0.00218
59.9 -0.00173
59.95 -0.00544
60 -0.0062
60.05 -0.00188
60.1 -0.0013
60.15 0.00053
60.2 0.0002
60.25 -0.00203
60.3 -0.00382
60.35 -0.00464
60.4 -0.00038
60.45 0.00644
60.5 0.01267
60.55 0.01636
60.6 0.01549
60.65 0.01505
60.7 0.01323
60.75 0.01027
60.8 0.0056
60.85 0.00337
60.9 -0.00125
60.95 -0.00786
61 -0.01406
61.05 -0.01766
61.1 -0.02055
61.15 -0.02002
61.2 -0.01613
61.25 -0.00934
61.3 -0.00662
61.35 -0.00848
61.4 -0.00776
61.45 -0.006
61.5 -0.00461
61.55 -0.00652
61.6 -0.00361
61.65 -0.00617
61.7 -0.00651
61.75 -0.01031
61.8 -0.00922
61.85 -0.0085
61.9 -0.0058
61.95 -0.00803
62 -0.00784
62.05 -0.00571
62.1 -0.00463
62.15 -0.00445
62.2 -0.00504
62.25 -0.00835
62.3 -0.00728
62.35 -0.00266
62.4 0.00064
62.45 -0.00198
62.5 -0.00661
62.55 -0.0076
62.6 -0.01109
62.65 -0.01517
62.7 -0.01554
62.75 -0.01632
62.8 -0.01426
62.85 -0.01593
62.9 -0.01164
62.95 -0.01186
63 -0.00759
63.05 -0.00682
63.1 -0.00639
63.15 -0.01001
63.2 -0.01014
63.25 -0.01359
63.3 -0.0185
63.35 -0.01911
63.4 -0.01949
63.45 -0.02167
63.5 -0.02505
63.55 -0.0273
63.6 -0.02143
63.65 -0.01468
63.7 -0.00716
63.75 -0.00199
63.8 0.00592
63.85 0.0096
63.9 0.01541
63.95 0.01909
64 0.01878
64.05 0.01905
64.1 0.02006
64.15 0.0175
64.2 0.01662
64.25 0.01061
64.3 0.00872
64.35 0.00889
64.4 0.00875
64.45 0.00777
64.5 0.01026
64.55 0.00907
64.6 0.00627
64.65 0.00409
64.7 0.00265
64.75 -0.00182
64.8 -0.00513
64.85 -0.00988
64.9 -0.01338
64.95 -0.01262
65 -0.01169
65.05 -0.01344
65.1 -0.00877
65.15 -0.00765
65.2 -0.00638
65.25 -0.00667
65.3 -0.00508
65.35 -0.00601
65.4 -0.00309
65.45 0.00326
65.5 0.00515
65.55 0.00664
65.6 0.0075
65.65 0.00338
65.7 0.00079
65.75 0.00011
65.8 0.00394
65.85 0.01056
65.9 0.00992
65.95 0.0072
66 0.00213
66.05 -0.00169
66.1 -0.00084
66.15 -0.0012
66.2 0.00048
66.25 0.00329
66.3 0.00779
66.35 0.01266
66.4 0.01078
66.45 0.01069
66.5 0.00654
66.55 0.00154
66.6 -0.00082
66.65 -0.00304
66.7 -0.00598
66.75 -0.01018
66.8 -0.0119
66.85 -0.01566
66.9 -0.02054
66.95 -0.01855
67 -0.0201
67.05 -0.02032
67.1 -0.01934
67.15 -0.01413
67.2 -0.0087
67.25 -0.00057
67.3 0.00646
67.35 0.01313
67.4 0.01628
67.45 0.01539
67.5 0.00955
67.55 0.00772
67.6 0.00852
67.65 0.00575
67.7 0.00514
67.75 0.0039
67.8 0.00683
67.85 0.00607
67.9 0.00356
67.95 0.00362
68 0.00057
68.05 -0.00331
68.1 -0.00593
68.15 -0.00726
68.2 -0.01165
68.25 -0.01417
68.3 -0.01576
68.35 -0.01835
68.4 -0.0177
68.45 -0.01983
68.5 -0.0227
68.55 -0.0234
68.6 -0.01736
68.65 -0.00938
68.7 -0.00739
68.75 -0.00936
68.8 -0.01308
68.85 -0.018
68.9 -0.01913
68.95 -0.01908
69 -0.0204
69.05 -0.02219
69.1 -0.01638
69.15 -0.00721
69.2 -0.00201
69.25 0.00206
69.3 0.00638
69.35 0.00528
69.4 0.00384
69.45 -0.0002
69.5 0.00125
69.55 0.00093
69.6 -0.00325
69.65 -0.00662
69.7 -0.00637
69.75 -0.00653
69.8 -0.00262
69.85 -0.00348
69.9 -0.00099
69.95 0.00432
70 0.00623
70.05 0.00498
70.1 0.00475
70.15 0.00862
70.2 0.01036
70.25 0.00687
70.3 0.00433
70.35 0.00328
70.4 0.00151
70.45 0.00274
70.5 0.00358
70.55 0.00696
70.6 0.0086
70.65 0.01066
70.7 0.01
70.75 0.00849
70.8 0.00973
70.85 0.00904
70.9 0.00911
70.95 0.00431
71 0.00402
71.05 0.00628
71.1 0.01029
71.15 0.00844
71.2 0.00843
71.25 0.01006
71.3 0.0081
71.35 0.0067
71.4 0.00934
71.45 0.01415
71.5 0.0167
71.55 0.0186
71.6 0.01496
71.65 0.00911
71.7 0.00719
71.75 0.00442
71.8 0.00365
71.85 0.00093
71.9 0.00347
71.95 0.00784
72 0.01287
72.05 0.014
72.1 0.01214
72.15 0.00642
72.2 0.00329
72.25 0.00242
72.3 0.00419
72.35 0.00776
72.4 0.01181
72.45 0.01227
72.5 0.01
72.55 0.00891
72.6 0.00314
72.65 0.00043
72.7 -0.00385
72.75 -0.01096
72.8 -0.01697
72.85 -0.01815
72.9 -0.01614
72.95 -0.01413
73 -0.00773
73.05 -0.00591
73.1 -0.00009
73.15 0.00283
73.2 0.0052
73.25 0.00977
73.3 0.01606
73.35 0.0147
73.4 0.013
73.45 0.01074
73.5 0.00883
73.55 0.00214
73.6 -0.00531
73.65 -0.00719
73.7 -0.00704
73.75 -0.00759
73.8 -0.00734
73.85 -0.00326
73.9 -0.00483
73.95 -0.0006
74 -0.00211
74.05 0.00021
74.1 0.00192
74.15 0.00673
74.2 0.00523
74.25 0.00095
74.3 -0.00177
74.35 -0.00333
74.4 -0.00207
74.45 0.00221
74.5 0.00063
74.55 -0.00346
74.6 -0.00365
74.65 -0.00063
74.7 0.00332
74.75 0.00804
74.8 0.00991
74.85 0.00673
74.9 0.00362
74.95 -0.00251
75 -0.00781
75.05 -0.01323
75.1 -0.01833
75.15 -0.02098
75.2 -0.01791
75.25 -0.0163
75.3 -0.0176
75.35 -0.01439
75.4 -0.01346
75.45 -0.00781
75.5 -0.00328
75.55 -0.00402
75.6 -0.00806
75.65 -0.00983
75.7 -0.00912
75.75 -0.0052
75.8 -0.00338
75.85 0.00094
75.9 0.0058
75.95 0.00924
76 0.01133
76.05 0.00824
76.1 0.00199
76.15 -0.00168
76.2 -0.0032
76.25 -0.00102
76.3 -0.00046
76.35 -0.00285
76.4 0.00056
76.45 0.00332
76.5 0.0037
76.55 0.00113
76.6 -0.00011
76.65 -0.0042
76.7 -0.00178
76.75 -0.00434
76.8 -0.00118
76.85 0.00051
76.9 -0.00113
76.95 -0.00301
77 -0.00145
77.05 0.00321
77.1 0.00773
77.15 0.01029
77.2 0.01255
77.25 0.01288
77.3 0.01682
77.35 0.01685
77.4 0.01922
77.45 0.02277
77.5 0.02494
77.55 0.02023
77.6 0.01085
77.65 0.00713
77.7 -0.00008
77.75 -0.00805
77.8 -0.01532
77.85 -0.01754
77.9 -0.01873
77.95 -0.02106
78 -0.02434
78.05 -0.02369
78.1 -0.0218
78.15 -0.01438
78.2 -0.00686
78.25 0.00284
78.3 0.00896
78.35 0.01477
78.4 0.01817
78.45 0.02157
78.5 0.02386
78.55 0.01965
78.6 0.01599
78.65 0.01622
78.7 0.01932
78.75 0.01595
78.8 0.0084
78.85 0.00072
78.9 -0.00182
78.95 0.00059
79 0.00073
79.05 0.00229
79.1 -0.00031
79.15 -0.00293
79.2 -0.00593
79.25 -0.00305
79.3 0.00238
79.35 0.00189
79.4 0.0019
79.45 0.00122
79.5 -0.00025
79.55 -0.00067
79.6 -0.00233
79.65 -0.00503
79.7 -0.00993
79.75 -0.00905
79.8 -0.00305
79.85 0.00096
79.9 0.00736
79.95 0.01006
80 0.0103
80.05 0.01134
80.1 0.00988
80.15 0.0098
80.2 0.00513
80.25 -0
80.3 0.00002
80.35 0.00435
80.4 0.00624
80.45 0.00355
80.5 -0.00172
80.55 -0.00551
80.6 -0.00556
80.65 -0.00244
80.7 -0.00429
80.75 -0.00785
80.8 -0.00962
80.85 -0.01278
80.9 -0.01755
80.95 -0.0173
81 -0.01692
81.05 -0.01301
81.1 -0.01099
81.15 -0.01094
81.2 -0.00973
81.25 -0.00703
81.3 -0.00899
81.35 -0.01371
81.4 -0.01332
81.45 -0.0144
81.5 -0.01144
81.55 -0.01
81.6 -0.01153
81.65 -0.01517
81.7 -0.01371
81.75 -0.01512
81.8 -0.0098
81.85 -0.00356
81.9 -0.00123
81.95 0.00324
82 0.00311
82.05 0.00588
82.1 0.01034
82.15 0.00958
82.2 0.01031
82.25 0.00888
82.3 0.00669
82.35 0.00656
82.4 0.01005
82.45 0.01158
82.5 0.01043
82.55 0.00706
82.6 0.00235
82.65 -0.00515
82.7 -0.01388
82.75 -0.02099
82.8 -0.02809
82.85 -0.03289
82.9 -0.03243
82.95 -0.0321
83 -0.03168
83.05 -0.02577
83.1 -0.02185
83.15 -0.02164
83.2 -0.01693
83.25 -0.01155
83.3 -0.00358
83.35 0.00043
83.4 0.005
83.45 0.00628
83.5 0.00332
83.55 0.00071
83.6 0.00216
83.65 -0.00019
83.7 0.00151
83.75 0.00684
83.8 0.01394
83.85 0.01562
83.9 0.01966
83.95 0.02246
84 0.02465
84.05 0.02511
84.1 0.026
84.15 0.0275
84.2 0.02191
84.25 0.01303
84.3 0.00743
84.35 0.00191
84.4 -0.00408
84.45 -0.00993
84.5 -0.01149
84.55 -0.01256
84.6 -0.01116
84.65 -0.00555
84.7 0.00327
84.75 0.00581
84.8 0.00674
84.85 0.00709
84.9 0.00693
84.95 0.01075
85 0.01076
85.05 0.00543
85.1 -0.00217
85.15 -0.00556
85.2 -0.00336
85.25 -0.00205
85.3 -0.00364
85.35 -0.00295
85.4 0.00254
85.45 0.00757
85.5 0.00817
85.55 0.00778
85.6 0.01105
85.65 0.00762
85.7 0.00697
85.75 0.01062
85.8 0.00773
85.85 0.00307
85.9 0.00375
85.95 0.00154
86 -0.00302
86.05 -0.00091
86.1 0.00498
86.15 0.00833
86.2 0.01066
86.25 0.01142
86.3 0.01076
86.35 0.01338
86.4 0.01503
86.45 0.01853
86.5 0.02222
86.55 0.02382
86.6 0.0182
86.65 0.01751
86.7 0.01879
86.75 0.01443
86.8 0.01138
86.85 0.01101
86.9 0.01435
86.95 0.01547
87 0.01023
87.05 0.00781
87.1 0.00701
87.15 0.00693
87.2 0.00345
87.25 -0.00157
87.3 -0.00867
87.35 -0.01458
87.4 -0.02104
87.45 -0.01975
87.5 -0.02025
87.55 -0.0175
87.6 -0.01525
87.65 -0.00879
87.7 -0.00499
87.75 0.00134
87.8 0.00625
87.85 0.00705
87.9 0.00549
87.95 0.00072
88 0.00145
88.05 0.00526
88.1 0.00954
88.15 0.00839
88.2 0.00289
88.25 -0.00561
88.3 -0.01255
88.35 -0.01158
88.4 -0.0144
88.45 -0.0148
88.5 -0.01111
88.55 -0.01014
88.6 -0.01026
88.65 -0.00806
88.7 -0.00831
88.75 -0.0032
88.8 0.00252
88.85 0.00347
88.9 0.00365
88.95 0.00779
89 0.00966
89.05 0.00904
89.1 0.00514
89.15 0.00163
89.2 -0.00296
89.25 -0.00278
89.3 -0.00227
89.35 -0.00634
89.4 -0.01244
89.45 -0.01774
89.5 -0.01877
89.55 -0.01771
89.6 -0.01177
89.65 -0.00236
89.7 0.00021
89.75 0.00144
89.8 0.0045
89.85 0.00208
89.9 -0.00231
89.95 -0.00135
90 -0.0045
90.05 -0.00805
90.1 -0.01145
90.15 -0.01513
90.2 -0.01789
90.25 -0.02197
90.3 -0.02571
90.35 -0.03004
90.4 -0.03388
90.45 -0.02931
90.5 -0.02161
90.55 -0.01882
90.6 -0.01883
90.65 -0.02016
90.7 -0.02151
90.75 -0.01807
90.8 -0.01671
90.85 -0.01546
90.9 -0.01297
90.95 -0.00776
91 0.00091
91.05 0.00568
91.1 0.00389
91.15 -0.00096
91.2 -0.00173
91.25 -0.00305
91.3 -0.00082
91.35 -0.00376
91.4 -0.00952
91.45 -0.00833
91.5 -0.01064
91.55 -0.01375
91.6 -0.01462
91.65 -0.01815
91.7 -0.0162
91.75 -0.01408
91.8 -0.00913
91.85 -0.00515
91.9 -0.00034
91.95 0.00461
92 0.01173
92.05 0.01303
92.1 0.01542
92.15 0.01321
92.2 0.00743
92.25 0.00794
92.3 0.00941
92.35 0.00817
92.4 0.00731
92.45 0.00974
92.5 0.00828
92.55 0.00542
92.6 0.00439
92.65 0.00088
92.7 -0.00523
92.75 -0.00505
92.8 0.00018
92.85 0.00168
92.9 0.00687
92.95 0.00803
93 0.01137
93.05 0.01638
93.1 0.01433
93.15 0.01559
93.2 0.01949
93.25 0.01861
93.3 0.0168
93.35 0.01131
93.4 0.00235
93.45 -0.00053
93.5 -0.00336
93.55 -0.00314
93.6 -0.00532
93.65 -0.00849
93.7 -0.00902
93.75 -0.01198
93.8 -0.01227
93.85 -0.01141
93.9 -0.00845
93.95 -0.00702
94 -0.00817
94.05 -0.01163
94.1 -0.01044
94.15 -0.00987
94.2 -0.00513
94.25 0.00195
94.3 0.01047
94.35 0.01931
94.4 0.02023
94.45 0.01482
94.5 0.00615
94.55 -0.00257
94.6 -0.00889
94.65 -0.01215
94.7 -0.01192
94.75 -0.00834
94.8 -0.00936
94.85 -0.01291
94.9 -0.01508
94.95 -0.01366
95 -0.01391
95.05 -0.0096
95.1 -0.00801
95.15 -0.00827
95.2 -0.00748
95.25 -0.00388
95.3 0.00141
95.35 0.00835
95.4 0.0121
95.45 0.01132
95.5 0.00682
95.55 0.00142
95.6 -0.00489
95.65 -0.00428
95.7 -0.00121
95.75 -0.00066
95.8 -0.00147
95.85 0.00216
95.9 0.00604
95.95 0.00864
96 0.00526
96.05 0.00688
96.1 0.00911
96.15 0.00916
96.2 0.01244
96.25 0.01408
96.3 0.01682
96.35 0.01316
96.4 0.01252
96.45 0.01107
96.5 0.00955
96.55 0.01222
96.6 0.01576
96.65 0.01326
96.7 0.0083
96.75 0.00124
96.8 -0.00159
96.85 -0.00207
96.9 0.00081
96.95 0.00583
97 0.00571
97.05 0.00615
97.1 0.00242
97.15 0.00328
97.2 0.00554
97.25 0.00402
97.3 0.00297
97.35 0.00409
97.4 0.00063
97.45 -0.00516
97.5 -0.00487
97.55 -0.00119
97.6 -0.00083
97.65 0.00003
97.7 0.00051
97.75 0.00087
97.8 0.00013
97.85 -0.00483
97.9 -0.01017
97.95 -0.01421
98 -0.01516
98.05 -0.01078
98.1 -0.01005
98.15 -0.01249
98.2 -0.01054
98.25 -0.00547
98.3 -0.00162
98.35 -0.00157
98.4 -0.00095
98.45 -0.00414
98.5 -0.00943
98.55 -0.01171
98.6 -0.00944
98.65 -0.01071
98.7 -0.00601
98.75 0.00039
98.8 0.00012
98.85 -0.0027
98.9 -0.00685
98.95 -0.00915
99 -0.01135
99.05 -0.00869
99.1 -0.00709
99.15 -0.0089
99.2 -0.00755
99.25 -0.00599
99.3 -0.00892
99.35 -0.00503
99.4 0.002
99.45 0.01124
99.5 0.01394
99.55 0.01277
99.6 0.01231
99.65 0.00953
99.7 0.00562
99.75 0.00552
99.8 0.00257
99.85 -0.00339
99.9 -0.00383
99.95 -0.00481
