0 0
0.05 0.00021
0.1 0.00518
0.15 0.00934
0.2 0.01709
0.25 0.02326
0.3 0.0255
0.35 0.03105
0.4 0.03239
0.45 0.03548
0.5 0.04168
0.55 0.04392
0.6 0.04796
0.65 0.05163
0.7 0.04968
0.75 0.04665
0.8 0.04064
0.85 0.03498
0.9 0.03623
0.95 0.03578
1 0.03646
1.05 0.03321
1.1 0.03556
1.15 0.03468
1.2 0.03445
1.25 0.03863
1.3 0.03722
1.35 0.03519
1.4 0.03869
1.45 0.04402
1.5 0.04441
1.55 0.0409
1.6 0.04019
1.65 0.04393
1.7 0.04168
1.75 0.04394
1.8 0.0463
1.85 0.04803
1.9 0.04445
1.95 0.04032
2 0.04009
2.05 0.04316
2.1 0.04076
2.15 0.04103
2.2 0.03885
2.25 0.03931
2.3 0.04121
2.35 0.04283
2.4 0.04686
2.45 0.05013
2.5 0.04882
2.55 0.04346
2.6 0.03995
2.65 0.03874
2.7 0.03871
2.75 0.03636
2.8 0.03052
2.85 0.02842
2.9 0.02712
2.95 0.02625
3 0.02547
3.05 0.02637
3.1 0.02521
3.15 0.02717
3.2 0.0277
3.25 0.02771
3.3 0.02575
3.35 0.02402
3.4 0.02399
3.45 0.02412
3.5 0.01963
3.55 0.01834
3.6 0.0188
3.65 0.01873
3.7 0.02228
3.75 0.02702
3.8 0.02874
3.85 0.03233
3.9 0.03572
3.95 0.03368
4 0.02873
4.05 0.02811
4.1 0.0284
4.15 0.02483
4.2 0.01939
4.25 0.01653
4.3 0.01111
4.35 0.00682
4.4 0.0006
4.45 -0.00994
4.5 -0.01844
4.55 -0.02468
4.6 -0.03416
4.65 -0.04154
4.7 -0.05454
4.75 -0.06716
4.8 -0.08302
4.85 -0.10117
4.9 -0.12429
4.95 -0.1513
5 -0.1781
5.05 -0.21104
5.1 -0.24285
5.15 -0.27378
5.2 -0.30317
5.25 -0.34021
5.3 -0.382
5.35 -0.42363
5.4 -0.46585
5.45 -0.50679
5.5 -0.54748
5.55 -0.58583
5.6 -0.61369
5.65 -0.63267
5.7 -0.64876
5.75 -0.65662
5.8 -0.65323
5.85 -0.64141
5.9 -0.61765
5.95 -0.58814
6 -0.55387
6.05 -0.51553
6.1 -0.465
6.15 -0.41453
6.2 -0.35764
6.25 -0.29705
6.3 -0.23791
6.35 -0.1781
6.4 -0.1174
6.45 -0.06041
6.5 -0.00387
6.55 0.04466
6.6 0.08514
6.65 0.12039
6.7 0.14854
6.75 0.17585
6.8 0.19571
6.85 0.20986
6.9 0.22749
6.95 0.24483
7 0.25515
7.05 0.26159
7.1 0.27223
7.15 0.28205
7.2 0.28689
7.25 0.29031
7.3 0.29718
7.35 0.30505
7.4 0.31168
7.45 0.32095
7.5 0.32984
7.55 0.33458
7.6 0.33957
7.65 0.34443
7.7 0.349
7.75 0.35615
7.8 0.36759
7.85 0.37526
7.9 0.38272
7.95 0.38849
8 0.39205
8.05 0.39408
8.1 0.401
8.15 0.40663
8.2 0.40702
8.25 0.40384
8.3 0.40008
8.35 0.39361
8.4 0.38781
8.45 0.38485
8.5 0.3794
8.55 0.3716
8.6 0.36583
8.65 0.36064
8.7 0.35392
8.75 0.34359
8.8 0.32872
8.85 0.31424
8.9 0.29705
8.95 0.28158
9 0.26767
9.05 0.25627
9.1 0.24633
9.15 0.23793
9.2 0.2246
9.25 0.21412
9.3 0.2003
9.35 0.19049
9.4 0.1789
9.45 0.16798
9.5 0.15321
9.55 0.13867
9.6 0.12893
9.65 0.11972
9.7 0.10817
9.75 0.09946
9.8 0.09493
9.85 0.08495
9.9 0.07628
9.95 0.06801
10 0.06065
10.05 0.05071
10.1 0.04434
10.15 0.03526
10.2 0.02942
10.25 0.02917
10.3 0.03215
10.35 0.03417
10.4 0.03345
10.45 0.03196
10.5 0.02732
10.55 0.02199
10.6 0.01708
10.65 0.00976
10.7 0.00334
10.75 -0.00482
10.8 -0.00858
10.85 -0.01387
10.9 -0.01722
10.95 -0.02164
11 -0.02532
11.05 -0.02346
11.1 -0.02424
11.15 -0.02526
11.2 -0.02217
11.25 -0.02172
11.3 -0.01809
11.35 -0.01644
11.4 -0.01525
11.45 -0.01978
11.5 -0.02837
11.55 -0.03886
11.6 -0.04121
11.65 -0.04142
11.7 -0.04495
11.75 -0.04357
11.8 -0.03899
11.85 -0.03252
11.9 -0.02553
11.95 -0.0204
12 -0.02335
12.05 -0.0254
12.1 -0.03146
12.15 -0.03507
12.2 -0.03925
12.25 -0.04409
12.3 -0.05013
12.35 -0.05484
12.4 -0.05888
12.45 -0.06133
12.5 -0.06547
12.55 -0.06561
12.6 -0.06493
12.65 -0.06644
12.7 -0.06366
12.75 -0.05753
12.8 -0.05122
12.85 -0.04681
12.9 -0.04699
12.95 -0.04345
13 -0.04331
13.05 -0.04558
13.1 -0.04661
13.15 -0.04398
13.2 -0.04617
13.25 -0.04344
13.3 -0.04039
13.35 -0.03579
13.4 -0.03369
13.45 -0.03561
13.5 -0.04056
13.55 -0.04338
13.6 -0.04846
13.65 -0.04697
13.7 -0.04523
13.75 -0.04161
13.8 -0.04279
13.85 -0.04712
13.9 -0.04933
13.95 -0.04904
14 -0.04556
14.05 -0.04175
14.1 -0.03934
14.15 -0.03546
14.2 -0.03003
14.25 -0.02358
14.3 -0.01599
14.35 -0.01596
14.4 -0.02139
14.45 -0.02678
14.5 -0.03205
14.55 -0.03099
14.6 -0.02904
14.65 -0.02528
14.7 -0.026
14.75 -0.03104
14.8 -0.03243
14.85 -0.03107
14.9 -0.03047
14.95 -0.02912
15 -0.02628
15.05 -0.02251
15.1 -0.01725
15.15 -0.01474
15.2 -0.01497
15.25 -0.01358
15.3 -0.01392
15.35 -0.01126
15.4 -0.01378
15.45 -0.01814
15.5 -0.02355
15.55 -0.02691
15.6 -0.02668
15.65 -0.02854
15.7 -0.03078
15.75 -0.03191
15.8 -0.02794
15.85 -0.02144
15.9 -0.01606
15.95 -0.01119
16 -0.00792
16.05 -0.00985
16.1 -0.01085
16.15 -0.01538
16.2 -0.01731
16.25 -0.01677
16.3 -0.01624
16.35 -0.01848
16.4 -0.01769
16.45 -0.01684
16.5 -0.01376
16.55 -0.00864
16.6 -0.00851
16.65 -0.01165
16.7 -0.01313
16.75 -0.01734
16.8 -0.01652
16.85 -0.01483
16.9 -0.01258
16.95 -0.00836
17 -0.00253
17.05 -0.00184
17.1 -0.0052
17.15 -0.01064
17.2 -0.01662
17.25 -0.02426
17.3 -0.02792
17.35 -0.03076
17.4 -0.03039
17.45 -0.03236
17.5 -0.02937
17.55 -0.02193
17.6 -0.01244
17.65 -0.00952
17.7 -0.00614
17.75 -0.00153
17.8 0.00279
17.85 0.00516
17.9 0.00095
17.95 -0.00086
18 0.0004
18.05 -0.00304
18.1 -0.00892
18.15 -0.01414
18.2 -0.01528
18.25 -0.0122
18.3 -0.00658
18.35 0.00008
18.4 0.00507
18.45 0.00309
18.5 0.00132
18.55 0.00261
18.6 0.00208
18.65 -0.00373
18.7 -0.0075
18.75 -0.01062
18.8 -0.00967
18.85 -0.00751
18.9 -0.00535
18.95 -0.00161
19 0.00046
19.05 0.00474
19.1 0.00537
19.15 0.00588
19.2 0.00323
19.25 0.00033
19.3 0.00112
19.35 0.00409
19.4 0.00753
19.45 0.01031
19.5 0.0129
19.55 0.01182
19.6 0.00775
19.65 0.00726
19.7 0.0069
19.75 0.00594
19.8 0.0079
19.85 0.00572
19.9 0.00134
19.95 0.00004
20 -0.00225
20.05 -0.00783
20.1 -0.01175
20.15 -0.01643
20.2 -0.02179
20.25 -0.02017
20.3 -0.01726
20.35 -0.01479
20.4 -0.01674
20.45 -0.02204
20.5 -0.0207
20.55 -0.02104
20.6 -0.02217
20.65 -0.01784
20.7 -0.01826
20.75 -0.01651
20.8 -0.01364
20.85 -0.01378
20.9 -0.01241
20.95 -0.01402
21 -0.01762
21.05 -0.01817
21.1 -0.01533
21.15 -0.01221
21.2 -0.0111
21.25 -0.00749
21.3 -0.00292
21.35 0.00073
21.4 0.00096
21.45 0.00207
21.5 0.00604
21.55 0.00419
21.6 0.00515
21.65 0.00843
21.7 0.00781
21.75 0.00325
21.8 -0.00132
21.85 -0.00747
21.9 -0.01165
21.95 -0.01452
22 -0.0146
22.05 -0.01435
22.1 -0.00967
22.15 -0.00374
22.2 -0.00461
22.25 -0.00438
22.3 -0.00066
22.35 0.003
22.4 0.00467
22.45 0.00501
22.5 0.00772
22.55 0.0073
22.6 0.00935
22.65 0.00837
22.7 0.00932
22.75 0.00705
22.8 0.00457
22.85 -0.00041
22.9 -0.00763
22.95 -0.01227
23 -0.01528
23.05 -0.01834
23.1 -0.01635
23.15 -0.01141
23.2 -0.00895
23.25 -0.00725
23.3 -0.01054
23.35 -0.01398
23.4 -0.0161
23.45 -0.01583
23.5 -0.01268
23.55 -0.01203
23.6 -0.01344
23.65 -0.01005
23.7 -0.00402
23.75 0.00076
23.8 0.00684
23.85 0.009
23.9 0.013
23.95 0.0167
24 0.0205
24.05 0.01749
24.1 0.01189
24.15 0.00325
24.2 -0.00277
24.25 -0.01092
24.3 -0.01611
24.35 -0.01566
24.4 -0.01406
24.45 -0.01141
24.5 -0.00555
24.55 -0.00486
24.6 -0.0004
24.65 -0.00057
24.7 0.0028
24.75 0.00156
24.8 -0.00016
24.85 -0.00601
24.9 -0.00704
24.95 -0.00797
25 -0.00681
25.05 -0.00722
25.1 -0.00377
25.15 0.00067
25.2 -0.00048
25.25 -0.00307
25.3 -0.00493
25.35 -0.00634
25.4 -0.00588
25.45 -0.00757
25.5 -0.01006
25.55 -0.01168
25.6 -0.01266
25.65 -0.01529
25.7 -0.01937
25.75 -0.02456
25.8 -0.02369
25.85 -0.02338
25.9 -0.02199
25.95 -0.02122
26 -0.02082
26.05 -0.01754
26.1 -0.01677
26.15 -0.01368
26.2 -0.00829
26.25 -0.0065
26.3 -0.00782
26.35 -0.01169
26.4 -0.01178
26.45 -0.01473
26.5 -0.01784
26.55 -0.01832
26.6 -0.02038
26.65 -0.01674
26.7 -0.01233
26.75 -0.01213
26.8 -0.0106
26.85 -0.01125
26.9 -0.01467
26.95 -0.01586
27 -0.01795
27.05 -0.01382
27.1 -0.01211
27.15 -0.01175
27.2 -0.0087
27.25 -0.00989
27.3 -0.00963
27.35 -0.00679
27.4 -0.0052
27.45 -0.00972
27.5 -0.01035
27.55 -0.0113
27.6 -0.0106
27.65 -0.01507
27.7 -0.02144
27.75 -0.03183
27.8 -0.04501
27.85 -0.06247
27.9 -0.07763
27.95 -0.09847
28 -0.12186
28.05 -0.14757
28.1 -0.17809
28.15 -0.20712
28.2 -0.2411
28.25 -0.27544
28.3 -0.31449
28.35 -0.36014
28.4 -0.40541
28.45 -0.45172
28.5 -0.50162
28.55 -0.56259
28.6 -0.62506
28.65 -0.69728
28.7 -0.76863
28.75 -0.84705
28.8 -0.93092
28.85 -1.0218
28.9 -1.11077
28.95 -1.20004
29 -1.2892
29.05 -1.38122
29.1 -1.4693
29.15 -1.55775
29.2 -1.64178
29.25 -1.72564
29.3 -1.80448
29.35 -1.87179
29.4 -1.93031
29.45 -1.98429
29.5 -2.02514
29.55 -2.06156
29.6 -2.09032
29.65 -2.10903
29.7 -2.11613
29.75 -2.10788
29.8 -2.09077
29.85 -2.06149
29.9 -2.02242
29.95 -1.97121
30 -1.90359
30.05 -1.8226
30.1 -1.73737
30.15 -1.64711
30.2 -1.54956
30.25 -1.44731
30.3 -1.33334
30.35 -1.21244
30.4 -1.09012
30.45 -0.95815
30.5 -0.81963
30.55 -0.68501
30.6 -0.54871
30.65 -0.41353
30.7 -0.27555
30.75 -0.13797
30.8 -0.0013
30.85 0.13133
30.9 0.26482
30.95 0.39206
31 0.51336
31.05 0.63
31.1 0.74031
31.15 0.84997
31.2 0.95337
31.25 1.0488
31.3 1.13407
31.35 1.21845
31.4 1.29212
31.45 1.35673
31.5 1.41635
31.55 1.47056
31.6 1.52362
31.65 1.57414
31.7 1.61593
31.75 1.6568
31.8 1.6908
31.85 1.71941
31.9 1.74293
31.95 1.76409
32 1.78347
32.05 1.79905
32.1 1.80716
32.15 1.81634
32.2 1.81695
32.25 1.81794
32.3 1.81865
32.35 1.81837
32.4 1.8119
32.45 1.80259
32.5 1.79278
32.55 1.78204
32.6 1.77257
32.65 1.76065
32.7 1.74918
32.75 1.73713
32.8 1.72361
32.85 1.7082
32.9 1.68481
32.95 1.65477
33 1.62754
33.05 1.59523
33.1 1.56028
33.15 1.5257
33.2 1.49403
33.25 1.45805
33.3 1.41763
33.35 1.37683
33.4 1.34114
33.45 1.30804
33.5 1.27233
33.55 1.23111
33.6 1.19056
33.65 1.1457
33.7 1.10583
33.75 1.06741
33.8 1.02424
33.85 0.98084
33.9 0.94014
33.95 0.89454
34 0.84841
34.05 0.80807
34.1 0.7715
34.15 0.7306
34.2 0.69231
34.25 0.65685
34.3 0.61668
34.35 0.57371
34.4 0.53223
34.45 0.49197
34.5 0.44861
34.55 0.40631
34.6 0.37125
34.65 0.34108
34.7 0.30785
34.75 0.27175
34.8 0.23922
34.85 0.2045
34.9 0.17214
34.95 0.13857
35 0.10573
35.05 0.07426
35.1 0.04602
35.15 0.01859
35.2 -0.0056
35.25 -0.02321
35.3 -0.03782
35.35 -0.05655
35.4 -0.07751
35.45 -0.0984
35.5 -0.11261
35.55 -0.12661
35.6 -0.13513
35.65 -0.1413
35.7 -0.14918
35.75 -0.15958
35.8 -0.17042
35.85 -0.18513
35.9 -0.20132
35.95 -0.21449
36 -0.22579
36.05 -0.23778
36.1 -0.24389
36.15 -0.24835
36.2 -0.25669
36.25 -0.26375
36.3 -0.27011
36.35 -0.27957
36.4 -0.28562
36.45 -0.29425
36.5 -0.30122
36.55 -0.30918
36.6 -0.31152
36.65 -0.31668
36.7 -0.32237
36.75 -0.3238
36.8 -0.32142
36.85 -0.32225
36.9 -0.31873
36.95 -0.31207
37 -0.30362
37.05 -0.29934
37.1 -0.29431
37.15 -0.29264
37.2 -0.29376
37.25 -0.29645
37.3 -0.29501
37.35 -0.29756
37.4 -0.29936
37.45 -0.29524
37.5 -0.28784
37.55 -0.2872
37.6 -0.2833
37.65 -0.27626
37.7 -0.27012
37.75 -0.26899
37.8 -0.27003
37.85 -0.26781
37.9 -0.26782
37.95 -0.26377
38 -0.25966
38.05 -0.2571
38.1 -0.25135
38.15 -0.24299
38.2 -0.23394
38.25 -0.23087
38.3 -0.2338
38.35 -0.23791
38.4 -0.24003
38.45 -0.24062
38.5 -0.24223
38.55 -0.24498
38.6 -0.24227
38.65 -0.23657
38.7 -0.23513
38.75 -0.23062
38.8 -0.22673
38.85 -0.22533
38.9 -0.22224
38.95 -0.22097
39 -0.22221
39.05 -0.21897
39.1 -0.21572
39.15 -0.21192
39.2 -0.20261
39.25 -0.19281
39.3 -0.18827
39.35 -0.18638
39.4 -0.18655
39.45 -0.18402
39.5 -0.1835
39.55 -0.18478
39.6 -0.18614
39.65 -0.18695
39.7 -0.18059
39.75 -0.17376
39.8 -0.16999
39.85 -0.16838
39.9 -0.16248
39.95 -0.15862
40 -0.15286
40.05 -0.14596
40.1 -0.13723
40.15 -0.12732
40.2 -0.12115
40.25 -0.12159
40.3 -0.12147
40.35 -0.12399
40.4 -0.12588
40.45 -0.13103
40.5 -0.13404
40.55 -0.13718
40.6 -0.13481
40.65 -0.13559
40.7 -0.13541
40.75 -0.13097
40.8 -0.12477
40.85 -0.11758
40.9 -0.11216
40.95 -0.11155
41 -0.1094
41.05 -0.10855
41.1 -0.10348
41.15 -0.09638
41.2 -0.08847
41.25 -0.08141
41.3 -0.07404
41.35 -0.06639
41.4 -0.06372
41.45 -0.06378
41.5 -0.0617
41.55 -0.06381
41.6 -0.06672
41.65 -0.07433
41.7 -0.0815
41.75 -0.08522
41.8 -0.0892
41.85 -0.09089
41.9 -0.09266
41.95 -0.09432
42 -0.0942
42.05 -0.09579
42.1 -0.09601
42.15 -0.09213
42.2 -0.08806
42.25 -0.08744
42.3 -0.08493
42.35 -0.08111
42.4 -0.07856
42.45 -0.07243
42.5 -0.07105
42.55 -0.07125
42.6 -0.07409
42.65 -0.07137
42.7 -0.07248
42.75 -0.06828
42.8 -0.0606
42.85 -0.05677
42.9 -0.05781
42.95 -0.06067
43 -0.06341
43.05 -0.06318
43.1 -0.05887
43.15 -0.05487
43.2 -0.05595
43.25 -0.05461
43.3 -0.05207
43.35 -0.04943
43.4 -0.04364
43.45 -0.03677
43.5 -0.03378
43.55 -0.03615
43.6 -0.03625
43.65 -0.03465
43.7 -0.03557
43.75 -0.03876
43.8 -0.04459
43.85 -0.04751
43.9 -0.05333
43.95 -0.05289
44 -0.05114
44.05 -0.05188
44.1 -0.05064
44.15 -0.05008
44.2 -0.04997
44.25 -0.05172
44.3 -0.05161
44.35 -0.05128
44.4 -0.05351
44.45 -0.0572
44.5 -0.05739
44.55 -0.0578
44.6 -0.05595
44.65 -0.05193
44.7 -0.04992
44.75 -0.05021
44.8 -0.04707
44.85 -0.04277
44.9 -0.03877
44.95 -0.03204
45 -0.02303
45.05 -0.02026
45.1 -0.02001
45.15 -0.0213
45.2 -0.02664
45.25 -0.02818
45.3 -0.02458
45.35 -0.02205
45.4 -0.0245
45.45 -0.02256
45.5 -0.02332
45.55 -0.02052
45.6 -0.01614
45.65 -0.01074
45.7 -0.00536
45.75 -0.00209
45.8 -0.00206
45.85 -0.00756
45.9 -0.01268
45.95 -0.01635
46 -0.01794
46.05 -0.02317
46.1 -0.02221
46.15 -0.01797
46.2 -0.01478
46.25 -0.00875
46.3 -0.00257
46.35 0.00296
46.4 0.00091
46.45 -0.00298
46.5 -0.00595
46.55 -0.00903
46.6 -0.01145
46.65 -0.01022
46.7 -0.00809
46.75 -0.00763
46.8 -0.00682
46.85 -0.00282
46.9 -0.00582
46.95 -0.00837
47 -0.01119
47.05 -0.01403
47.1 -0.01289
47.15 -0.01138
47.2 -0.01079
47.25 -0.00653
47.3 -0.00376
47.35 -0.00232
47.4 -0.00091
47.45 -0.00345
47.5 -0.00701
47.55 -0.00619
47.6 -0.00429
47.65 -0.00034
47.7 -0.00086
47.75 0.00151
47.8 -0.00156
47.85 -0.00288
47.9 -0.00407
47.95 -0.00979
48 -0.01359
48.05 -0.01405
48.1 -0.01688
48.15 -0.01898
48.2 -0.01724
48.25 -0.0161
48.3 -0.01465
48.35 -0.01393
48.4 -0.01712
48.45 -0.02141
48.5 -0.02235
48.55 -0.02142
48.6 -0.01687
48.65 -0.01733
48.7 -0.01508
48.75 -0.01412
48.8 -0.01241
48.85 -0.01076
48.9 -0.00936
48.95 -0.01126
49 -0.01238
49.05 -0.01165
49.1 -0.00717
49.15 -0.00227
49.2 -0.00067
49.25 -0.00133
49.3 -0.00549
49.35 -0.01002
49.4 -0.01731
49.45 -0.0174
49.5 -0.01693
49.55 -0.01264
49.6 -0.01279
49.65 -0.01136
49.7 -0.01279
49.75 -0.01183
49.8 -0.01068
49.85 -0.00903
49.9 -0.00369
49.95 0.00227
50 0.00623
50.05 0.0079
50.1 0.00539
50.15 0.00595
50.2 0.00183
50.25 0.00052
50.3 -0.00363
50.35 -0.00665
50.4 -0.00806
50.45 -0.01011
50.5 -0.00982
50.55 -0.0077
50.6 -0.00481
50.65 -0.00089
50.7 0.00403
50.75 0.00553
50.8 0.00731
50.85 0.00547
50.9 0.00348
50.95 0.00224
51 0.00143
51.05 0.00079
51.1 -0.00152
51.15 -0.00344
51.2 -0.00389
51.25 -0.00625
51.3 -0.00375
51.35 -0.00372
51.4 -0.0008
51.45 0.00398
51.5 0.00872
51.55 0.01314
51.6 0.01272
51.65 0.00995
51.7 0.00434
51.75 0.00183
51.8 -0.00017
51.85 -0.00294
51.9 -0.00953
51.95 -0.01636
52 -0.01723
52.05 -0.01668
52.1 -0.01921
52.15 -0.02047
52.2 -0.01792
52.25 -0.01455
52.3 -0.01154
52.35 -0.01009
52.4 -0.00828
52.45 -0.00546
52.5 0.00042
52.55 0.0057
52.6 0.0112
52.65 0.01579
52.7 0.0165
52.75 0.01911
52.8 0.01563
52.85 0.00819
52.9 0.00545
52.95 0.00349
53 0.00077
53.05 -0.00002
53.1 0.00078
53.15 0.00412
53.2 0.00429
53.25 0.00183
53.3 -0.0011
53.35 -0.0078
53.4 -0.01462
53.45 -0.01948
53.5 -0.02045
53.55 -0.02311
53.6 -0.02679
53.65 -0.03173
53.7 -0.03578
53.75 -0.03929
53.8 -0.0362
53.85 -0.03072
53.9 -0.02304
53.95 -0.01821
54 -0.01418
54.05 -0.01358
54.1 -0.00926
54.15 -0.00969
54.2 -0.01199
54.25 -0.0096
54.3 -0.00832
54.35 -0.00323
54.4 0.00141
54.45 0.00748
54.5 0.01435
54.55 0.01366
54.6 0.01361
54.65 0.01136
54.7 0.00841
54.75 0.00528
54.8 0.00223
54.85 0.00299
54.9 -0.00025
54.95 -0.00079
55 0.00014
55.05 0.00176
55.1 0.00566
55.15 0.01095
55.2 0.01338
55.25 0.01373
55.3 0.01261
55.35 0.00829
55.4 0.00197
55.45 0.00151
55.5 -0.00079
55.55 -0.00417
55.6 -0.00462
55.65 -0.00152
55.7 0.00412
55.75 0.00864
55.8 0.0132
55.85 0.01168
55.9 0.00875
55.95 0.00981
56 0.00476
56.05 -0.00157
56.1 -0.00463
56.15 -0.0082
56.2 -0.01067
56.25 -0.01081
56.3 -0.01127
56.35 -0.00803
56.4 -0.00605
56.45 -0.00045
56.5 0.00104
56.55 0.00364
56.6 0.0074
56.65 0.01056
56.7 0.01379
56.75 0.01557
56.8 0.01344
56.85 0.01178
56.9 0.01146
56.95 0.01301
57 0.00973
57.05 0.00283
57.1 -0.00128
57.15 -0.00265
57.2 -0.00316
57.25 -0.00755
57.3 -0.01259
57.35 -0.013
57.4 -0.01629
57.45 -0.01507
57.5 -0.0101
57.55 -0.00303
57.6 0.00512
57.65 0.00953
57.7 0.00729
57.75 0.00747
57.8 0.00844
57.85 0.00402
57.9 -0.00152
57.95 -0.00595
58 -0.00809
58.05 -0.00821
58.1 -0.00392
58.15 -0.00351
58.2 -0.00756
58.25 -0.01082
58.3 -0.01094
58.35 -0.01258
58.4 -0.01422
58.45 -0.01765
58.5 -0.02281
58.55 -0.02587
58.6 -0.02215
58.65 -0.01792
58.7 -0.01337
58.75 -0.0084
58.8 -0.00774
58.85 -0.0067
58.9 -0.00147
58.95 0.00077
59 0.00178
59.05 0.00371
59.1 0.00762
59.15 0.00927
59.2 0.01206
59.25 0.01368
59.3 0.01156
59.35 0.01035
59.4 0.01118
59.45 0.00782
59.5 0.00278
59.55 -0.00255
59.6 -0.00666
59.65 -0.00933
59.7 -0.00705
59.75 -0.00182
59.8 0.00209
59.85 0.00162
59.9 0.00039
59.95 0.00057
60 0.00084
60.05 0.00209
60.1 -0.00006
60.15 0.00075
60.2 -0.00028
60.25 0.00094
60.3 0.00238
60.35 0.00252
60.4 -0.00163
60.45 -0.00134
60.5 0.00285
60.55 0.00646
60.6 0.00751
60.65 0.01109
60.7 0.00994
60.75 0.00711
60.8 0.00747
60.85 0.0055
60.9 0.00769
60.95 0.00773
61 0.00787
61.05 0.00867
61.1 0.006
61.15 0.00666
61.2 0.00727
61.25 0.00219
61.3 -0.00097
61.35 -0.00399
61.4 -0.00856
61.45 -0.00916
61.5 -0.01127
61.55 -0.01512
61.6 -0.01435
61.65 -0.01282
61.7 -0.01558
61.75 -0.01857
61.8 -0.02134
61.85 -0.02102
61.9 -0.01961
61.95 -0.0138
62 -0.00844
62.05 -0.00712
62.1 -0.00877
62.15 -0.0064
62.2 -0.00203
62.25 0.00103
62.3 0.00668
62.35 0.00675
62.4 0.00618
62.45 0.00849
62.5 0.00646
62.55 0.00274
62.6 -0.0021
62.65 -0.00599
62.7 -0.0095
62.75 -0.00885
62.8 -0.00825
62.85 -0.00439
62.9 -0.00277
62.95 -0.00009
63 -0.00232
63.05 -0.00612
63.1 -0.00966
63.15 -0.01115
63.2 -0.00907
63.25 -0.00383
63.3 -0.00078
63.35 0.00248
63.4 0.00214
63.45 0.00318
63.5 0.00164
63.55 0.00145
63.6 0.00519
63.65 0.00501
63.7 0.00421
63.75 0.00564
63.8 0.00167
63.85 0.00213
63.9 -0.00041
63.95 0.00161
64 0.00009
64.05 -0.00203
64.1 -0.0013
64.15 -0.00451
64.2 -0.00336
64.25 -0.00232
64.3 -0.00051
64.35 -0.00225
64.4 -0.00008
64.45 -0.0016
64.5 -0.007
64.55 -0.00886
64.6 -0.00613
64.65 -0.00127
64.7 -0.00283
64.75 -0.00156
64.8 -0.00052
64.85 -0.00429
64.9 -0.00411
64.95 -0.00331
65 -0.00319
65.05 -0.00427
65.1 -0.00777
65.15 -0.01198
65.2 -0.0171
65.25 -0.02036
65.3 -0.01812
65.35 -0.01173
65.4 -0.00812
65.45 -0.00755
65.5 -0.00603
65.55 -0.00278
65.6 -0.00308
65.65 -0.00553
65.7 -0.00924
65.75 -0.0143
65.8 -0.01633
65.85 -0.01247
65.9 -0.01126
65.95 -0.01045
66 -0.00734
66.05 -0.00199
66.1 -0.00173
66.15 0.00113
66.2 0.00018
66.25 -0.00062
66.3 -0.00493
66.35 -0.00703
66.4 -0.00427
66.45 -0.00585
66.5 -0.00852
66.55 -0.01019
66.6 -0.00657
66.65 -0.00348
66.7 -0.00022
66.75 -0.00052
66.8 -0.00077
66.85 0.00185
66.9 0.00175
66.95 -0.00288
67 -0.00576
67.05 -0.00504
67.1 -0.00361
67.15 -0.00111
67.2 0.00291
67.25 0.00966
67.3 0.01676
67.35 0.02299
67.4 0.02805
67.45 0.03201
67.5 0.03305
67.55 0.02899
67.6 0.0207
67.65 0.01688
67.7 0.01152
67.75 0.00978
67.8 0.00505
67.85 0.00256
67.9 0.00014
67.95 -0.00021
68 -0.0037
68.05 -0.00297
68.1 -0.00174
68.15 -0.00533
68.2 -0.00412
68.25 0.00086
68.3 0.00461
68.35 0.00601
68.4 0.01053
68.45 0.01443
68.5 0.01178
68.55 0.0097
68.6 0.01131
68.65 0.0087
68.7 0.00256
68.75 0.00226
68.8 0.00182
68.85 -0.00234
68.9 -0.005
68.95 -0.01048
69 -0.01409
69.05 -0.01282
69.1 -0.01468
69.15 -0.01482
69.2 -0.01328
69.25 -0.01216
69.3 -0.01145
69.35 -0.01066
69.4 -0.00924
69.45 -0.00521
69.5 0.00197
69.55 0.01011
69.6 0.01255
69.65 0.0152
69.7 0.01352
69.75 0.00841
69.8 0.00594
69.85 0.00721
69.9 0.00892
69.95 0.01044
70 0.011
70.05 0.00576
70.1 0.00526
70.15 0.00337
70.2 0.00363
70.25 0.0066
70.3 0.012
70.35 0.014
70.4 0.01239
70.45 0.01085
70.5 0.00712
70.55 0.00047
70.6 -0.00313
70.65 -0.00405
70.7 -0.00405
70.75 -0.0032
70.8 -0.00381
70.85 -0.00116
70.9 0.00115
70.95 0.00313
71 0.00222
71.05 0.00138
71.1 0.00032
71.15 -0.00409
71.2 -0.0094
71.25 -0.01154
71.3 -0.01208
71.35 -0.00962
71.4 -0.00757
71.45 -0.00358
71.5 -0.00173
71.55 -0.00229
71.6 -0.00054
71.65 -0.00172
71.7 -0.00502
71.75 -0.01032
71.8 -0.00986
71.85 -0.00866
71.9 -0.0079
71.95 -0.00904
72 -0.01335
72.05 -0.01123
72.1 -0.00805
72.15 -0.005
72.2 -0.00121
72.25 -0.00204
72.3 -0.00196
72.35 -0.00174
72.4 -0.0031
72.45 -0.00192
72.5 -0.00161
72.55 0.00082
72.6 0.00475
72.65 0.00887
72.7 0.00753
72.75 0.00369
72.8 -0.00185
72.85 -0.00343
72.9 -0.0086
72.95 -0.01049
73 -0.00837
73.05 -0.00934
73.1 -0.00532
73.15 0.00011
73.2 0.00218
73.25 0.0031
73.3 0.00447
73.35 0.00397
73.4 0.00342
73.45 0.00423
73.5 0.00186
73.55 -0.00026
73.6 -0.00063
73.65 -0.00149
73.7 -0.0049
73.75 -0.00357
73.8 -0.00629
73.85 -0.00871
73.9 -0.00882
73.95 -0.0097
74 -0.00526
74.05 0.00069
74.1 0.00575
74.15 0.00868
74.2 0.01143
74.25 0.00777
74.3 0.00121
74.35 -0.00611
74.4 -0.00726
74.45 -0.01031
74.5 -0.01243
74.55 -0.01442
74.6 -0.01558
74.65 -0.01721
74.7 -0.01286
74.75 -0.00819
74.8 -0.00155
74.85 0.00357
74.9 0.00434
74.95 0.00104
75 -0.00277
75.05 -0.00538
75.1 -0.00384
75.15 -0.00218
75.2 0.00106
75.25 0.00443
75.3 0.00421
75.35 0.00426
75.4 0.00003
75.45 0.00023
75.5 0.00101
75.55 -0.00108
75.6 -0.00321
75.65 -0.00493
75.7 -0.00742
75.75 -0.00675
75.8 -0.00755
75.85 -0.00839
75.9 -0.01043
75.95 -0.01248
76 -0.01727
76.05 -0.01648
76.1 -0.01371
76.15 -0.00824
76.2 -0.00262
76.25 -0.00219
76.3 0.00112
76.35 -0.00045
76.4 -0.00185
76.45 -0.0035
76.5 -0.00249
76.55 0.00185
76.6 0.00657
76.65 0.00492
76.7 0.0062
76.75 0.00808
76.8 0.00654
76.85 0.00194
76.9 0.00111
76.95 0.00118
77 0.00103
77.05 0.0003
77.1 0.00165
77.15 0.00374
77.2 0.00224
77.25 0.00508
77.3 0.00389
77.35 -0.00061
77.4 -0.0032
77.45 -0.00626
77.5 -0.00894
77.55 -0.00761
77.6 -0.00983
77.65 -0.01226
77.7 -0.01132
77.75 -0.01373
77.8 -0.00993
77.85 -0.00546
77.9 -0.00661
77.95 -0.00885
78 -0.00568
78.05 -0.00085
78.1 0.00653
78.15 0.01308
78.2 0.01994
78.25 0.01984
78.3 0.02001
78.35 0.01744
78.4 0.01291
78.45 0.00867
78.5 0.00373
78.55 0.00217
78.6 0.00426
78.65 0.00096
78.7 -0.00232
78.75 -0.00078
78.8 0.00259
78.85 0.00519
78.9 0.00835
78.95 0.00807
79 0.00514
79.05 0.00557
79.1 0.00447
79.15 0.00295
79.2 0.00333
79.25 0.00168
79.3 0.00237
79.35 0.00388
79.4 0.00287
79.45 0.0016
79.5 0.00244
79.55 0.0055
79.6 0.00545
79.65 0.00077
79.7 0.00139
79.75 -0.00002
79.8 0.00099
79.85 -0.00228
79.9 -0.00074
79.95 0.00012
80 -0.00017
80.05 -0.00146
80.1 -0.00353
80.15 -0.00417
80.2 -0.00205
80.25 0.00335
80.3 0.00709
80.35 0.0106
80.4 0.01298
80.45 0.01338
80.5 0.01299
80.55 0.00725
80.6 -0.00034
80.65 -0.00967
80.7 -0.01763
80.75 -0.018
80.8 -0.01873
80.85 -0.02209
80.9 -0.02457
80.95 -0.01982
81 -0.01559
81.05 -0.01275
81.1 -0.00705
81.15 -0.00191
81.2 -0.00078
81.25 0.00284
81.3 0.00717
81.35 0.01284
81.4 0.01945
81.45 0.0216
81.5 0.02381
81.55 0.02096
81.6 0.0198
81.65 0.01661
81.7 0.01389
81.75 0.01072
81.8 0.00566
81.85 0.0059
81.9 0.00395
81.95 0.00119
82 -0.00202
82.05 -0.00732
82.1 -0.01388
82.15 -0.02147
82.2 -0.02665
82.25 -0.02514
82.3 -0.02515
82.35 -0.02156
82.4 -0.01886
82.45 -0.01865
82.5 -0.016
82.55 -0.01745
82.6 -0.01357
82.65 -0.00834
82.7 -0.00006
82.75 0.00202
82.8 0.00715
82.85 0.01165
82.9 0.01625
82.95 0.01361
83 0.01412
83.05 0.01651
83.1 0.01561
83.15 0.01622
83.2 0.01192
83.25 0.00851
83.3 0.00418
83.35 -0.00321
83.4 -0.00345
83.45 -0.00439
83.5 -0.00429
83.55 -0.00023
83.6 0.00197
83.65 0.00427
83.7 0.00671
83.75 0.0056
83.8 0.00412
83.85 0.00541
83.9 0.00554
83.95 0.00783
84 0.00922
84.05 0.01035
84.1 0.01135
84.15 0.0079
84.2 0.0038
84.25 -0.00335
84.3 -0.01197
84.35 -0.01673
84.4 -0.02169
84.45 -0.0222
84.5 -0.01966
84.55 -0.01842
84.6 -0.01225
84.65 -0.00935
84.7 -0.00347
84.75 0.00216
84.8 0.00618
84.85 0.0051
84.9 0.00713
84.95 0.00683
85 0.00925
85.05 0.01013
85.1 0.01372
85.15 0.0143
85.2 0.01412
85.25 0.01476
85.3 0.01243
85.35 0.0093
85.4 0.00769
85.45 0.00642
85.5 0.00404
85.55 0.00463
85.6 0.00438
85.65 0.0077
85.7 0.01221
85.75 0.01524
85.8 0.01823
85.85 0.01866
85.9 0.01898
85.95 0.01582
86 0.01516
86.05 0.00987
86.1 0.00361
86.15 -0.00349
86.2 -0.0047
86.25 -0.0014
86.3 0.00197
86.35 -0.00095
86.4 -0.00093
86.45 -0.00236
86.5 0.00018
86.55 -0.00027
86.6 0.00145
86.65 -0.00026
86.7 -0.00227
86.75 -0.0076
86.8 -0.01475
86.85 -0.01541
86.9 -0.0114
86.95 -0.0095
87 -0.00884
87.05 -0.01193
87.1 -0.01019
87.15 -0.01091
87.2 -0.01333
87.25 -0.01681
87.3 -0.01712
87.35 -0.01355
87.4 -0.00723
87.45 0.00034
87.5 0.00487
87.55 0.00617
87.6 0.00509
87.65 0.00185
87.7 -0.00479
87.75 -0.00717
87.8 -0.00471
87.85 -0.00307
87.9 -0.00056
87.95 -0.00044
88 -0.00293
88.05 -0.00466
88.1 -0.00369
88.15 -0.00653
88.2 -0.0044
88.25 0.00112
88.3 0.00537
88.35 0.00943
88.4 0.01157
88.45 0.00949
88.5 0.0103
88.55 0.01374
88.6 0.01803
88.65 0.01757
88.7 0.01281
88.75 0.00944
88.8 0.00594
88.85 -0.00136
88.9 -0.00693
88.95 -0.00856
89 -0.00971
89.05 -0.00682
89.1 -0.00233
89.15 0.0042
89.2 0.01038
89.25 0.01157
89.3 0.01412
89.35 0.0119
89.4 0.0067
89.45 -0.00068
89.5 -0.00489
89.55 -0.00877
89.6 -0.01287
89.65 -0.01323
89.7 -0.01707
89.75 -0.01424
89.8 -0.00994
89.85 -0.00533
89.9 -0.00206
89.95 -0.00027
90 -0.00204
90.05 -0.00076
90.1 -0.0041
90.15 -0.00703
90.2 -0.0121
90.25 -0.0141
90.3 -0.0143
90.35 -0.01479
90.4 -0.00984
90.45 -0.00905
90.5 -0.01162
90.55 -0.01444
90.6 -0.01927
90.65 -0.02242
90.7 -0.02501
90.75 -0.02331
90.8 -0.02003
90.85 -0.02041
90.9 -0.01637
90.95 -0.01671
91 -0.01227
91.05 -0.00865
91.1 -0.00271
91.15 -0.00048
91.2 0.0024
91.25 0.00009
91.3 -0.00149
91.35 -0.00155
91.4 0.00146
91.45 0.00277
91.5 0.00508
91.55 0.01045
91.6 0.01437
91.65 0.01582
91.7 0.01369
91.75 0.01126
91.8 0.005
91.85 -0.00326
91.9 -0.00606
91.95 -0.01132
92 -0.01035
92.05 -0.00489
92.1 -0.00212
92.15 -0.00056
92.2 -0.00031
92.25 -0.00428
92.3 -0.0058
92.35 -0.00349
92.4 -0.00492
92.45 -0.00904
92.5 -0.01414
92.55 -0.01472
92.6 -0.01314
92.65 -0.01468
92.7 -0.01602
92.75 -0.01985
92.8 -0.01722
92.85 -0.01049
92.9 -0.0068
92.95 0.00006
93 0.00568
93.05 0.00505
93.1 0.00351
93.15 -0.00064
93.2 -0.00158
93.25 0.00158
93.3 0.00151
93.35 -0.00015
93.4 0.00021
93.45 -0.00355
93.5 -0.00659
93.55 -0.01148
93.6 -0.01233
93.65 -0.0147
93.7 -0.01589
93.75 -0.01478
93.8 -0.01205
93.85 -0.00485
93.9 -0.00125
93.95 0.00179
94 0.00381
94.05 0.00719
94.1 0.00445
94.15 0.00321
94.2 -0.00028
94.25 0.00046
94.3 0.00379
94.35 0.00178
94.4 0.00102
94.45 -0.00324
94.5 -0.00866
94.55 -0.01289
94.6 -0.01335
94.65 -0.00895
94.7 -0.00728
94.75 -0.00763
94.8 -0.00411
94.85 0.00284
94.9 0.00894
94.95 0.0078
95 0.00449
95.05 -0.00199
95.1 -0.0077
95.15 -0.0119
95.2 -0.00907
95.25 -0.00876
95.3 -0.00316
95.35 0.00458
95.4 0.01334
95.45 0.02123
95.5 0.02079
95.55 0.01871
95.6 0.01266
95.65 0.01027
95.7 0.00464
95.75 0.00052
95.8 -0.00519
95.85 -0.00432
95.9 -0.00515
95.95 -0.00824
96 -0.01241
96.05 -0.01077
96.1 -0.01231
96.15 -0.01022
96.2 -0.01001
96.25 -0.00505
96.3 0.00258
96.35 0.0115
96.4 0.01612
96.45 0.0223
96.5 0.02737
96.55 0.03267
96.6 0.03052
96.65 0.03103
96.7 0.03106
96.75 0.02611
96.8 0.0188
96.85 0.01247
96.9 0.00907
96.95 0.00189
97 0.00059
97.05 0.00362
97.1 0.00784
97.15 0.0099
97.2 0.01283
97.25 0.01427
97.3 0.0177
97.35 0.01442
97.4 0.00737
97.45 0.00561
97.5 0.00606
97.55 0.00828
97.6 0.01188
97.65 0.01601
97.7 0.01436
97.75 0.01046
97.8 0.00396
97.85 -0.00172
97.9 -0.00854
97.95 -0.00812
98 -0.01177
98.05 -0.0157
98.1 -0.02066
98.15 -0.02398
98.2 -0.02122
98.25 -0.01794
98.3 -0.01055
98.35 -0.00878
98.4 -0.01087
98.45 -0.00761
98.5 -0.00495
98.55 -0.00201
98.6 -0.00156
98.65 -0.00552
98.7 -0.00651
98.75 -0.01051
98.8 -0.01332
98.85 -0.01128
98.9 -0.00568
98.95 -0.00434
99 -0.00639
99.05 -0.01148
99.1 -0.01721
99.15 -0.02182
99.2 -0.02106
99.25 -0.0204
99.3 -0.0221
99.35 -0.02112
99.4 -0.01961
99.45 -0.01902
99.5 -0.02052
99.55 -0.0176
99.6 -0.01521
99.65 -0.01662
99.7 -0.01921
99.75 -0.02038
99.8 -0.01919
99.85 -0.01936
99.9 -0.01871
99.95 -0.01549
