0 0
0.05 0.0011
0.1 0.00628
0.15 0.01394
0.2 0.02092
0.25 0.03038
0.3 0.03857
0.35 0.04158
0.4 0.04411
0.45 0.04827
0.5 0.04727
0.55 0.0513
0.6 0.05562
0.65 0.05455
0.7 0.04907
0.75 0.04252
0.8 0.03617
0.85 0.0286
0.9 0.02449
0.95 0.02602
1 0.03189
1.05 0.03322
1.1 0.03141
1.15 0.03156
1.2 0.0346
1.25 0.03994
1.3 0.04479
1.35 0.04871
1.4 0.05426
1.45 0.05365
1.5 0.05331
1.55 0.04822
1.6 0.04702
1.65 0.04769
1.7 0.0456
1.75 0.04497
1.8 0.03974
1.85 0.03938
1.9 0.03647
1.95 0.03427
2 0.0359
2.05 0.03925
2.1 0.0417
2.15 0.03892
2.2 0.03629
2.25 0.0341
2.3 0.03461
2.35 0.03517
2.4 0.03146
2.45 0.03122
2.5 0.02874
2.55 0.0295
2.6 0.03151
2.65 0.03047
2.7 0.03258
2.75 0.03502
2.8 0.03417
2.85 0.02893
2.9 0.0254
2.95 0.02016
3 0.01415
3.05 0.01271
3.1 0.01477
3.15 0.01428
3.2 0.01202
3.25 0.01427
3.3 0.01508
3.35 0.01389
3.4 0.0106
3.45 0.01356
3.5 0.01309
3.55 0.01337
3.6 0.01711
3.65 0.02257
3.7 0.02195
3.75 0.01976
3.8 0.01579
3.85 0.01664
3.9 0.02032
3.95 0.01788
4 0.01486
4.05 0.01022
4.1 0.00571
4.15 0.00728
4.2 0.01146
4.25 0.01193
4.3 0.0087
4.35 0.00894
4.4 0.00523
4.45 -0.00199
4.5 -0.01176
4.55 -0.02332
4.6 -0.03344
4.65 -0.05022
4.7 -0.06491
4.75 -0.07843
4.8 -0.09726
4.85 -0.1226
4.9 -0.15715
4.95 -0.19889
5 -0.24276
5.05 -0.2873
5.1 -0.33726
5.15 -0.39618
5.2 -0.45675
5.25 -0.52447
5.3 -0.59946
5.35 -0.67805
5.4 -0.75664
5.45 -0.83594
5.5 -0.92041
5.55 -1.00512
5.6 -1.0911
5.65 -1.17866
5.7 -1.27075
5.75 -1.36395
5.8 -1.46077
5.85 -1.551
5.9 -1.64106
5.95 -1.7251
6 -1.8017
6.05 -1.87634
6.1 -1.94929
6.15 -2.01154
6.2 -2.07242
6.25 -2.12992
6.3 -2.18075
6.35 -2.22286
6.4 -2.25251
6.45 -2.2776
6.5 -2.29761
6.55 -2.31115
6.6 -2.31382
6.65 -2.30432
6.7 -2.28249
6.75 -2.24422
6.8 -2.19804
6.85 -2.13939
6.9 -2.0626
6.95 -1.97201
7 -1.86715
7.05 -1.74416
7.1 -1.60557
7.15 -1.45324
7.2 -1.28917
7.25 -1.11589
7.3 -0.94155
7.35 -0.76358
7.4 -0.57609
7.45 -0.38576
7.5 -0.1921
7.55 0.00235
7.6 0.18856
7.65 0.36773
7.7 0.53974
7.75 0.7097
7.8 0.87424
7.85 1.03014
7.9 1.17346
7.95 1.3064
8 1.42199
8.05 1.52424
8.1 1.62095
8.15 1.70364
8.2 1.7808
8.25 1.84746
8.3 1.90343
8.35 1.94751
8.4 1.98634
8.45 2.01466
8.5 2.04
8.55 2.05508
8.6 2.06658
8.65 2.07371
8.7 2.07235
8.75 2.0658
8.8 2.05346
8.85 2.03499
8.9 2.02061
8.95 2.00253
9 1.98353
9.05 1.96055
9.1 1.94144
9.15 1.92214
9.2 1.90425
9.25 1.8884
9.3 1.87212
9.35 1.84808
9.4 1.81811
9.45 1.78698
9.5 1.7542
9.55 1.72713
9.6 1.70327
9.65 1.68207
9.7 1.656
9.75 1.63091
9.8 1.60414
9.85 1.58017
9.9 1.55697
9.95 1.53198
10 1.50228
10.05 1.46985
10.1 1.4343
10.15 1.39596
10.2 1.35802
10.25 1.32239
10.3 1.2877
10.35 1.24958
10.4 1.20732
10.45 1.16816
10.5 1.13024
10.55 1.09423
10.6 1.05763
10.65 1.01765
10.7 0.98049
10.75 0.94058
10.8 0.89796
10.85 0.8528
10.9 0.80644
10.95 0.76466
11 0.71985
11.05 0.67725
11.1 0.63288
11.15 0.58883
11.2 0.54367
11.25 0.50014
11.3 0.45651
11.35 0.41509
11.4 0.37504
11.45 0.34268
11.5 0.31427
11.55 0.28832
11.6 0.25755
11.65 0.22562
11.7 0.19132
11.75 0.15324
11.8 0.1188
11.85 0.08878
11.9 0.05532
11.95 0.02262
12 -0.00842
12.05 -0.03724
12.1 -0.06538
12.15 -0.0915
12.2 -0.11518
12.25 -0.13598
12.3 -0.15109
12.35 -0.16221
12.4 -0.17638
12.45 -0.19445
12.5 -0.21182
12.55 -0.22808
12.6 -0.24259
12.65 -0.25609
12.7 -0.2683
12.75 -0.27561
12.8 -0.2846
12.85 -0.29589
12.9 -0.30595
12.95 -0.31619
13 -0.32704
13.05 -0.33048
13.1 -0.3295
13.15 -0.32595
13.2 -0.32275
13.25 -0.32164
13.3 -0.31995
13.35 -0.3211
13.4 -0.32262
13.45 -0.32246
13.5 -0.32624
13.55 -0.3323
13.6 -0.34107
13.65 -0.3446
13.7 -0.35139
13.75 -0.35448
13.8 -0.35913
13.85 -0.35689
13.9 -0.35774
13.95 -0.35946
14 -0.35591
14.05 -0.35298
14.1 -0.34881
14.15 -0.34156
14.2 -0.3386
14.25 -0.33229
14.3 -0.33076
14.35 -0.32379
14.4 -0.3206
14.45 -0.31728
14.5 -0.31749
14.55 -0.31901
14.6 -0.31774
14.65 -0.31484
14.7 -0.30635
14.75 -0.3017
14.8 -0.29983
14.85 -0.29677
14.9 -0.29061
14.95 -0.28847
15 -0.28772
15.05 -0.28529
15.1 -0.285
15.15 -0.28431
15.2 -0.28322
15.25 -0.28061
15.3 -0.27066
15.35 -0.25736
15.4 -0.25071
15.45 -0.24711
15.5 -0.24141
15.55 -0.23964
15.6 -0.23985
15.65 -0.23999
15.7 -0.23301
15.75 -0.22614
15.8 -0.21534
15.85 -0.20662
15.9 -0.19676
15.95 -0.19038
16 -0.19074
16.05 -0.18853
16.1 -0.19004
16.15 -0.1938
16.2 -0.19158
16.25 -0.18683
16.3 -0.18161
16.35 -0.17833
16.4 -0.17417
16.45 -0.16861
16.5 -0.16775
16.55 -0.17104
16.6 -0.17363
16.65 -0.17703
16.7 -0.17476
16.75 -0.17292
16.8 -0.16492
16.85 -0.15732
16.9 -0.14843
16.95 -0.14625
17 -0.14249
17.05 -0.14271
17.1 -0.13797
17.15 -0.13389
17.2 -0.1272
17.25 -0.11845
17.3 -0.11069
17.35 -0.1047
17.4 -0.1029
17.45 -0.10181
17.5 -0.10009
17.55 -0.10272
17.6 -0.10327
17.65 -0.10387
17.7 -0.1015
17.75 -0.09911
17.8 -0.09623
17.85 -0.09265
17.9 -0.09215
17.95 -0.09442
18 -0.10051
18.05 -0.10051
18.1 -0.09698
18.15 -0.09445
18.2 -0.09612
18.25 -0.09932
18.3 -0.10169
18.35 -0.10518
18.4 -0.10261
18.45 -0.09564
18.5 -0.09403
18.55 -0.09043
18.6 -0.09169
18.65 -0.09071
18.7 -0.08737
18.75 -0.0886
18.8 -0.09329
18.85 -0.09103
18.9 -0.09186
18.95 -0.09261
19 -0.0946
19.05 -0.09292
19.1 -0.088
19.15 -0.08567
19.2 -0.08153
19.25 -0.07609
19.3 -0.0737
19.35 -0.07055
19.4 -0.07143
19.45 -0.06857
19.5 -0.06369
19.55 -0.05938
19.6 -0.05356
19.65 -0.04745
19.7 -0.04427
19.75 -0.04525
19.8 -0.04662
19.85 -0.04826
19.9 -0.04593
19.95 -0.04761
20 -0.05217
20.05 -0.05173
20.1 -0.05126
20.15 -0.04685
20.2 -0.04835
20.25 -0.0517
20.3 -0.05323
20.35 -0.05774
20.4 -0.0632
20.45 -0.06347
20.5 -0.0632
20.55 -0.06497
20.6 -0.06553
20.65 -0.06782
20.7 -0.06602
20.75 -0.06148
20.8 -0.05332
20.85 -0.04572
20.9 -0.03773
20.95 -0.02915
21 -0.02625
21.05 -0.02833
21.1 -0.03418
21.15 -0.03775
21.2 -0.0389
21.25 -0.04198
21.3 -0.04167
21.35 -0.04388
21.4 -0.0402
21.45 -0.04067
21.5 -0.04028
21.55 -0.04158
21.6 -0.04257
21.65 -0.04327
21.7 -0.04144
21.75 -0.03634
21.8 -0.03087
21.85 -0.02693
21.9 -0.02273
21.95 -0.02166
22 -0.0231
22.05 -0.02343
22.1 -0.02044
22.15 -0.01991
22.2 -0.01904
22.25 -0.01775
22.3 -0.01763
22.35 -0.02104
22.4 -0.02387
22.45 -0.02819
22.5 -0.02705
22.55 -0.02941
22.6 -0.02659
22.65 -0.02471
22.7 -0.02308
22.75 -0.02248
22.8 -0.02012
22.85 -0.02241
22.9 -0.02795
22.95 -0.03069
23 -0.03366
23.05 -0.03388
23.1 -0.03183
23.15 -0.02802
23.2 -0.02216
23.25 -0.0216
23.3 -0.01909
23.35 -0.01859
23.4 -0.01573
23.45 -0.01874
23.5 -0.0218
23.55 -0.02641
23.6 -0.02522
23.65 -0.02505
23.7 -0.02336
23.75 -0.01981
23.8 -0.01369
23.85 -0.006
23.9 -0.00611
23.95 -0.01129
24 -0.01559
24.05 -0.01379
24.1 -0.01237
24.15 -0.01448
24.2 -0.01723
24.25 -0.02146
24.3 -0.02146
24.35 -0.0236
24.4 -0.02248
24.45 -0.01665
24.5 -0.0174
24.55 -0.01682
24.6 -0.01857
24.65 -0.02348
24.7 -0.02908
24.75 -0.02869
24.8 -0.02889
24.85 -0.02794
24.9 -0.02608
24.95 -0.01959
25 -0.01778
25.05 -0.01198
25.1 -0.01159
25.15 -0.01431
25.2 -0.01645
25.25 -0.02098
25.3 -0.02387
25.35 -0.02124
25.4 -0.01493
25.45 -0.0145
25.5 -0.01447
25.55 -0.01334
25.6 -0.01395
25.65 -0.01017
25.7 -0.00754
25.75 -0.00176
25.8 0.00042
25.85 -0.00306
25.9 -0.00245
25.95 0.0014
26 0.00722
26.05 0.00812
26.1 0.00428
26.15 -0.003
26.2 -0.00899
26.25 -0.01107
26.3 -0.01035
26.35 -0.01096
26.4 -0.01101
26.45 -0.00797
26.5 -0.00948
26.55 -0.01045
26.6 -0.00781
26.65 -0.01037
26.7 -0.0107
26.75 -0.00684
26.8 -0.00483
26.85 -0.00382
26.9 -0.00561
26.95 -0.00917
27 -0.01027
27.05 -0.01348
27.1 -0.01836
27.15 -0.01905
27.2 -0.01514
27.25 -0.01189
27.3 -0.00522
27.35 -0.00178
27.4 -0.00431
27.45 -0.00803
27.5 -0.00615
27.55 -0.00032
27.6 0.00663
27.65 0.01149
27.7 0.01352
27.75 0.01086
27.8 0.00593
27.85 0.00299
27.9 -0.00186
27.95 -0.00558
28 -0.01283
28.05 -0.01882
28.1 -0.02184
28.15 -0.02367
28.2 -0.02637
28.25 -0.0267
28.3 -0.02741
28.35 -0.02806
28.4 -0.02502
28.45 -0.02553
28.5 -0.02225
28.55 -0.02201
28.6 -0.02785
28.65 -0.03401
28.7 -0.0407
28.75 -0.05064
28.8 -0.05441
28.85 -0.06211
28.9 -0.0701
28.95 -0.07999
29 -0.08754
29.05 -0.09479
29.1 -0.10217
29.15 -0.11076
29.2 -0.12235
29.25 -0.13334
29.3 -0.14187
29.35 -0.14638
29.4 -0.15733
29.45 -0.16558
29.5 -0.17721
29.55 -0.18697
29.6 -0.20066
29.65 -0.20832
29.7 -0.21262
29.75 -0.21693
29.8 -0.22357
29.85 -0.22952
29.9 -0.23819
29.95 -0.24823
30 -0.2527
30.05 -0.25156
30.1 -0.24789
30.15 -0.24183
30.2 -0.23898
30.25 -0.23279
30.3 -0.22699
30.35 -0.22391
30.4 -0.2164
30.45 -0.20904
30.5 -0.19748
30.55 -0.1818
30.6 -0.17208
30.65 -0.16229
30.7 -0.15419
30.75 -0.14729
30.8 -0.14037
30.85 -0.12934
30.9 -0.1102
30.95 -0.08612
31 -0.06262
31.05 -0.04514
31.1 -0.03104
31.15 -0.01227
31.2 0.00383
31.25 0.01742
31.3 0.03096
31.35 0.04648
31.4 0.06196
31.45 0.07837
31.5 0.09396
31.55 0.10485
31.6 0.11048
31.65 0.12049
31.7 0.13443
31.75 0.14166
31.8 0.14587
31.85 0.14877
31.9 0.15909
31.95 0.1661
32 0.17494
32.05 0.18115
32.1 0.18646
32.15 0.19191
32.2 0.20075
32.25 0.2063
32.3 0.21678
32.35 0.22819
32.4 0.2354
32.45 0.23862
32.5 0.24199
32.55 0.24709
32.6 0.24711
32.65 0.24233
32.7 0.23891
32.75 0.23735
32.8 0.23973
32.85 0.23693
32.9 0.23394
32.95 0.22617
33 0.22011
33.05 0.215
33.1 0.20719
33.15 0.19904
33.2 0.19612
33.25 0.19607
33.3 0.19188
33.35 0.18521
33.4 0.18041
33.45 0.17652
33.5 0.17335
33.55 0.16715
33.6 0.16146
33.65 0.15096
33.7 0.13738
33.75 0.12162
33.8 0.10505
33.85 0.09572
33.9 0.08863
33.95 0.08014
34 0.07358
34.05 0.06912
34.1 0.06567
34.15 0.06436
34.2 0.06828
34.25 0.07041
34.3 0.07527
34.35 0.07348
34.4 0.07312
34.45 0.06863
34.5 0.06594
34.55 0.05908
34.6 0.04978
34.65 0.04696
34.7 0.04734
34.75 0.05005
34.8 0.05023
34.85 0.05157
34.9 0.05258
34.95 0.05056
35 0.04733
35.05 0.04025
35.1 0.03313
35.15 0.02362
35.2 0.01551
35.25 0.01223
35.3 0.00985
35.35 0.00596
35.4 0.00589
35.45 0.0073
35.5 0.00816
35.55 0.0113
35.6 0.01079
35.65 0.00807
35.7 0.0033
35.75 -0.00256
35.8 -0.00129
35.85 0.0001
35.9 0.00255
35.95 -0.00013
36 -0.00468
36.05 -0.00371
36.1 -0.00311
36.15 -0.00661
36.2 -0.00537
36.25 -0.00723
36.3 -0.00662
36.35 -0.00653
36.4 -0.0031
36.45 0.00249
36.5 0.00066
36.55 0.00259
36.6 -0.00031
36.65 -0.00174
36.7 -0.0034
36.75 -0.00464
36.8 -0.00349
36.85 -0.00287
36.9 -0.00358
36.95 -0.00314
37 -0.00095
37.05 -0.00224
37.1 -0.00441
37.15 -0.00519
37.2 -0.01043
37.25 -0.01948
37.3 -0.02232
37.35 -0.02413
37.4 -0.02849
37.45 -0.02887
37.5 -0.0256
37.55 -0.02565
37.6 -0.02314
37.65 -0.02313
37.7 -0.02717
37.75 -0.03248
37.8 -0.03798
37.85 -0.04432
37.9 -0.05056
37.95 -0.05142
38 -0.05357
38.05 -0.05608
38.1 -0.05775
38.15 -0.05477
38.2 -0.05412
38.25 -0.05324
38.3 -0.04639
38.35 -0.03701
38.4 -0.03226
38.45 -0.03287
38.5 -0.03473
38.55 -0.03122
38.6 -0.03011
38.65 -0.0258
38.7 -0.02121
38.75 -0.01592
38.8 -0.01127
38.85 -0.01341
38.9 -0.01306
38.95 -0.0121
39 -0.01594
39.05 -0.01587
39.1 -0.01291
39.15 -0.00774
39.2 -0.00548
39.25 -0.00692
39.3 -0.00898
39.35 -0.0134
39.4 -0.01549
39.45 -0.02189
39.5 -0.02339
39.55 -0.02411
39.6 -0.02119
39.65 -0.02132
39.7 -0.0188
39.75 -0.01375
39.8 -0.00806
39.85 -0.00331
39.9 -0.00443
39.95 -0.0081
40 -0.01533
40.05 -0.02227
40.1 -0.02409
40.15 -0.02515
40.2 -0.02544
40.25 -0.02802
40.3 -0.02579
40.35 -0.02311
40.4 -0.024
40.45 -0.02848
40.5 -0.02629
40.55 -0.02833
40.6 -0.02969
40.65 -0.03223
40.7 -0.03636
40.75 -0.03506
40.8 -0.02983
40.85 -0.02827
40.9 -0.02652
40.95 -0.02734
41 -0.02311
41.05 -0.02193
41.1 -0.01818
41.15 -0.0124
41.2 -0.01129
41.25 -0.00665
41.3 -0.00232
41.35 -0.0011
41.4 -0.00203
41.45 -0.00267
41.5 -0.00102
41.55 -0.00505
41.6 -0.00738
41.65 -0.00665
41.7 -0.00374
41.75 -0.00114
41.8 -0.0036
41.85 -0.00493
41.9 -0.01111
41.95 -0.01487
42 -0.01865
42.05 -0.02219
42.1 -0.02086
42.15 -0.0223
42.2 -0.02256
42.25 -0.01838
42.3 -0.01767
42.35 -0.01772
42.4 -0.01899
42.45 -0.02238
42.5 -0.02553
42.55 -0.03044
42.6 -0.02738
42.65 -0.02445
42.7 -0.01829
42.75 -0.01144
42.8 -0.00293
42.85 -0.00156
42.9 -0.00234
42.95 -0.00533
43 -0.00828
43.05 -0.01074
43.1 -0.01413
43.15 -0.01806
43.2 -0.02385
43.25 -0.02678
43.3 -0.02247
43.35 -0.01756
43.4 -0.01233
43.45 -0.00552
43.5 0.00208
43.55 0.00255
43.6 0.00401
43.65 0.00243
43.7 -0.00001
43.75 0.0008
43.8 -0.00139
43.85 -0.00739
43.9 -0.01224
43.95 -0.01198
44 -0.00905
44.05 -0.00726
44.1 -0.00532
44.15 -0.00484
44.2 -0.00817
44.25 -0.00556
44.3 -0.00056
44.35 0.00634
44.4 0.00579
44.45 0.00188
44.5 -0.00041
44.55 -0.00066
44.6 -0.00519
44.65 -0.01139
44.7 -0.01898
44.75 -0.02567
44.8 -0.03167
44.85 -0.03447
44.9 -0.02978
44.95 -0.02816
45 -0.0267
45.05 -0.02506
45.1 -0.01861
45.15 -0.01209
45.2 -0.00763
45.25 -0.00897
45.3 -0.0104
45.35 -0.00855
45.4 -0.01076
45.45 -0.01413
45.5 -0.01665
45.55 -0.01514
45.6 -0.00905
45.65 -0.00239
45.7 -0.00046
45.75 0.0033
45.8 0.00957
45.85 0.01629
45.9 0.0191
45.95 0.01563
46 0.01501
46.05 0.01079
46.1 0.01034
46.15 0.00775
46.2 0.00985
46.25 0.01068
46.3 0.00979
46.35 0.00726
46.4 0.00561
46.45 -0.00065
46.5 -0.00868
46.55 -0.00891
46.6 -0.0068
46.65 -0.0006
46.7 0.00403
46.75 0.00356
46.8 0.00088
46.85 0.00104
46.9 0.00143
46.95 0.0016
47 0.0031
47.05 0.00113
47.1 -0.00247
47.15 -0.00618
47.2 -0.0122
47.25 -0.01517
47.3 -0.01359
47.35 -0.01478
47.4 -0.01907
47.45 -0.01727
47.5 -0.01877
47.55 -0.01867
47.6 -0.01401
47.65 -0.01273
47.7 -0.01505
47.75 -0.01852
47.8 -0.01627
47.85 -0.01547
47.9 -0.00916
47.95 -0.00696
48 -0.00712
48.05 -0.00799
48.1 -0.00682
48.15 -0.0097
48.2 -0.01285
48.25 -0.01515
48.3 -0.01816
48.35 -0.02227
48.4 -0.01941
48.45 -0.01697
48.5 -0.01345
48.55 -0.00591
48.6 0.00308
48.65 0.0043
48.7 0.00568
48.75 0.00849
48.8 0.00902
48.85 0.00668
48.9 0.00679
48.95 0.00408
49 0.00148
49.05 -0.00091
49.1 0.00064
49.15 0.0026
49.2 0.00164
49.25 0.00467
49.3 0.00402
49.35 0.00521
49.4 0.00404
49.45 0.00651
49.5 0.00928
49.55 0.009
49.6 0.00576
49.65 0.0022
49.7 -0.00046
49.75 -0.00621
49.8 -0.01341
49.85 -0.01306
49.9 -0.01379
49.95 -0.01654
50 -0.02019
50.05 -0.01958
50.1 -0.01366
50.15 -0.01293
50.2 -0.01558
50.25 -0.01947
50.3 -0.01575
50.35 -0.00905
50.4 -0.00833
50.45 -0.00646
50.5 -0.00377
50.55 -0.0016
50.6 0.00454
50.65 0.01085
50.7 0.01163
50.75 0.01378
50.8 0.01769
50.85 0.0216
50.9 0.02504
50.95 0.02534
51 0.02578
51.05 0.02038
51.1 0.01079
51.15 0.00725
51.2 0.00259
51.25 0.00378
51.3 0.00784
51.35 0.00827
51.4 0.00437
51.45 -0.00194
51.5 -0.00138
51.55 -0.00111
51.6 -0.00366
51.65 -0.00453
51.7 -0.00901
51.75 -0.01489
51.8 -0.02151
51.85 -0.02214
51.9 -0.01726
51.95 -0.01709
52 -0.01277
52.05 -0.01101
52.1 -0.0068
52.15 -0.00218
52.2 -0.0015
52.25 -0.00247
52.3 0.00075
52.35 -0.00095
52.4 -0.00297
52.45 -0.00569
52.5 -0.00606
52.55 -0.0077
52.6 -0.01045
52.65 -0.00921
52.7 -0.00458
52.75 -0.00237
52.8 0.00056
52.85 0.00534
52.9 0.0125
52.95 0.02074
53 0.0241
53.05 0.02822
53.1 0.02605
53.15 0.02451
53.2 0.01993
53.25 0.01533
53.3 0.00738
53.35 0.00038
53.4 -0.00339
53.45 -0.00167
53.5 -0.00467
53.55 -0.00838
53.6 -0.00622
53.65 -0.00472
53.7 -0.00137
53.75 0.00041
53.8 -0.00215
53.85 -0.00041
53.9 -0.0018
53.95 -0.00402
54 -0.00857
54.05 -0.01349
54.1 -0.01266
54.15 -0.01215
54.2 -0.0087
54.25 -0.00943
54.3 -0.00891
54.35 -0.0081
54.4 -0.0045
54.45 0.00015
54.5 0.00442
54.55 0.00394
54.6 -0.00025
54.65 -0.00489
54.7 -0.00862
54.75 -0.00583
54.8 -0.00625
54.85 -0.00949
54.9 -0.0134
54.95 -0.01662
55 -0.01842
55.05 -0.0194
55.1 -0.01801
55.15 -0.01243
55.2 -0.009
55.25 -0.00932
55.3 -0.00513
55.35 -0.00007
55.4 0.00423
55.45 0.00951
55.5 0.01599
55.55 0.02088
55.6 0.02709
55.65 0.02757
55.7 0.02705
55.75 0.02635
55.8 0.02808
55.85 0.02798
55.9 0.02727
55.95 0.02424
56 0.02279
56.05 0.01665
56.1 0.01346
56.15 0.01296
56.2 0.0109
56.25 0.00591
56.3 0.00547
56.35 0.00471
56.4 0.00283
56.45 0.00313
56.5 0.00659
56.55 0.01188
56.6 0.01816
56.65 0.02152
56.7 0.02238
56.75 0.02289
56.8 0.02281
56.85 0.01945
56.9 0.01938
56.95 0.0153
57 0.01255
57.05 0.01215
57.1 0.00612
57.15 0.00568
57.2 0.00466
57.25 0.00461
57.3 0.00324
57.35 0.00253
57.4 0.00405
57.45 0.00706
57.5 0.01007
57.55 0.00887
57.6 0.00964
57.65 0.00431
57.7 0.00003
57.75 -0.0058
57.8 -0.00601
57.85 -0.00159
57.9 0.00057
57.95 0.00149
58 -0.00096
58.05 0.00006
58.1 0.00387
58.15 0.00594
58.2 0.00715
58.25 0.0078
58.3 0.00487
58.35 0.0007
58.4 -0.00506
58.45 -0.00524
58.5 -0.00775
58.55 -0.00566
58.6 -0.00351
58.65 -0.00178
58.7 -0.00526
58.75 -0.00396
58.8 -0.00574
58.85 -0.00915
58.9 -0.01542
58.95 -0.0205
59 -0.02079
59.05 -0.02366
59.1 -0.01967
59.15 -0.01368
59.2 -0.0079
59.25 -0.00283
59.3 -0.00302
59.35 -0.00316
59.4 -0.00184
59.45 -0.00159
59.5 -0.00164
59.55 0.00256
59.6 0.00645
59.65 0.00413
59.7 -0.00251
59.75 -0.00518
59.8 -0.00702
59.85 -0.00807
59.9 -0.00442
59.95 -0.00488
60 -0.00725
60.05 -0.00914
60.1 -0.00576
60.15 -0.00323
60.2 -0.00259
60.25 0.00066
60.3 0.00252
60.35 0.00613
60.4 0.00662
60.45 0.00159
60.5 -0.00416
60.55 -0.00942
60.6 -0.01173
60.65 -0.01235
60.7 -0.00986
60.75 -0.00529
60.8 -0.00008
60.85 0.00733
60.9 0.01421
60.95 0.01876
61 0.02438
61.05 0.02833
61.1 0.02665
61.15 0.01889
61.2 0.01388
61.25 0.00686
61.3 0.00066
61.35 -0.00759
61.4 -0.01713
61.45 -0.02398
61.5 -0.03044
61.55 -0.02805
61.6 -0.02252
61.65 -0.01402
61.7 -0.00828
61.75 -0.00315
61.8 0.00062
61.85 0.00403
61.9 0.00448
61.95 0.00492
62 0.0071
62.05 0.00487
62.1 0.0071
62.15 0.00616
62.2 0.0077
62.25 0.00374
62.3 -0.00369
62.35 -0.00975
62.4 -0.01395
62.45 -0.01751
62.5 -0.01628
62.55 -0.01581
62.6 -0.01538
62.65 -0.01474
62.7 -0.01479
62.75 -0.0132
62.8 -0.00939
62.85 -0.00539
62.9 -0.0067
62.95 -0.00874
63 -0.00811
63.05 -0.00512
63.1 -0.00153
63.15 0.00413
63.2 0.01104
63.25 0.01224
63.3 0.01019
63.35 0.00493
63.4 -0.00346
63.45 -0.01253
63.5 -0.01846
63.55 -0.01951
63.6 -0.01504
63.65 -0.01135
63.7 -0.00431
63.75 -0.00236
63.8 0.00029
63.85 0.00533
63.9 0.00547
63.95 0.00395
64 0.00057
64.05 0.00179
64.1 0.00301
64.15 0.00397
64.2 0.0023
64.25 -0.00213
64.3 -0.00203
64.35 -0.00044
64.4 -0.00087
64.45 -0.00162
64.5 -0.003
64.55 -0.00527
64.6 -0.00478
64.65 0.0003
64.7 0.00009
64.75 -0.00273
64.8 -0.00272
64.85 -0.00435
64.9 -0.00711
64.95 -0.01006
65 -0.01191
65.05 -0.00873
65.1 -0.00386
65.15 -0.00141
65.2 -0.00158
65.25 -0.006
65.3 -0.01069
65.35 -0.0158
65.4 -0.01763
65.45 -0.01412
65.5 -0.00619
65.55 0.00228
65.6 0.01206
65.65 0.02116
65.7 0.02151
65.75 0.02345
65.8 0.02657
65.85 0.02806
65.9 0.02505
65.95 0.02491
66 0.02321
66.05 0.01568
66.1 0.00843
66.15 0.00173
66.2 -0.00318
66.25 -0.00943
66.3 -0.01325
66.35 -0.0171
66.4 -0.01661
66.45 -0.01156
66.5 -0.00814
66.55 -0.00173
66.6 0.00292
66.65 0.00554
66.7 0.00258
66.75 0.00425
66.8 0.00332
66.85 -0.00107
66.9 -0.00829
66.95 -0.01198
67 -0.01783
67.05 -0.01952
67.1 -0.01832
67.15 -0.01962
67.2 -0.02252
67.25 -0.01807
67.3 -0.01682
67.35 -0.01212
67.4 -0.00964
67.45 -0.01011
67.5 -0.0104
67.55 -0.00864
67.6 -0.00411
67.65 -0.00014
67.7 0.00429
67.75 0.00381
67.8 0.00682
67.85 0.00964
67.9 0.01195
67.95 0.00905
68 0.01092
68.05 0.0068
68.1 0.00695
68.15 0.00743
68.2 0.00401
68.25 0.00245
68.3 0.00239
68.35 0.00434
68.4 0.00911
68.45 0.0143
68.5 0.01272
68.55 0.00903
68.6 0.01017
68.65 0.00939
68.7 0.00696
68.75 0.00044
68.8 -0.00507
68.85 -0.00926
68.9 -0.00881
68.95 -0.01112
69 -0.0082
69.05 -0.00776
69.1 -0.0105
69.15 -0.01527
69.2 -0.01758
69.25 -0.01662
69.3 -0.01825
69.35 -0.01899
69.4 -0.01398
69.45 -0.00573
69.5 -0.00402
69.55 -0.00379
69.6 -0.00007
69.65 -0.00141
69.7 -0.00372
69.75 -0.00859
69.8 -0.00782
69.85 -0.00787
69.9 -0.0056
69.95 -0.00799
70 -0.0066
70.05 -0.00242
70.1 -0.00221
70.15 -0.00247
70.2 -0.00207
70.25 0.00298
70.3 0.00721
70.35 0.00893
70.4 0.00586
70.45 -0.00031
70.5 -0.00437
70.55 -0.00839
70.6 -0.00797
70.65 -0.00946
70.7 -0.01124
70.75 -0.00979
70.8 -0.00513
70.85 -0.00094
70.9 0.00034
70.95 -0.00241
71 -0.00266
71.05 -0.0029
71.1 0.00002
71.15 -0.00006
71.2 0.00346
71.25 0.00173
71.3 -0.00045
71.35 -0.00174
71.4 -0.00454
71.45 -0.00644
71.5 -0.00992
71.55 -0.00677
71.6 -0.00342
71.65 0.0006
71.7 0.00055
71.75 0.00308
71.8 0.00846
71.85 0.01113
71.9 0.01043
71.95 0.01018
72 0.00481
72.05 0.00186
72.1 -0.00369
72.15 -0.00328
72.2 -0.00028
72.25 0.00005
72.3 0.00373
72.35 0.00629
72.4 0.01115
72.45 0.01475
72.5 0.01937
72.55 0.01621
72.6 0.01103
72.65 0.00257
72.7 -0.00621
72.75 -0.00768
72.8 -0.01028
72.85 -0.0124
72.9 -0.0117
72.95 -0.01374
73 -0.01142
73.05 -0.00501
73.1 0.0024
73.15 0.00578
73.2 0.00314
73.25 0.00064
73.3 0.00219
73.35 0.00702
73.4 0.00608
73.45 0.00819
73.5 0.01006
73.55 0.01073
73.6 0.01458
73.65 0.01347
73.7 0.01289
73.75 0.01
73.8 0.0085
73.85 0.00742
73.9 0.00347
73.95 -0.00282
74 -0.0035
74.05 -0.00065
74.1 -0.00024
74.15 -0.00152
74.2 0.00149
74.25 0.00086
74.3 0.00208
74.35 0.00665
74.4 0.00797
74.45 0.00753
74.5 0.00296
74.55 -0.0005
74.6 0.00165
74.65 0.00498
74.7 0.0021
74.75 0.00071
74.8 -0.0015
74.85 -0.00584
74.9 -0.0089
74.95 -0.00628
75 0.00034
75.05 0.00639
75.1 0.00701
75.15 0.00943
75.2 0.00836
75.25 0.01037
75.3 0.00876
75.35 0.00729
75.4 0.0028
75.45 0.00102
75.5 -0.00267
75.55 -0.00519
75.6 -0.00824
75.65 -0.01188
75.7 -0.00989
75.75 -0.00935
75.8 -0.00644
75.85 -0.00739
75.9 -0.01009
75.95 -0.01332
76 -0.01198
76.05 -0.0121
76.1 -0.01221
76.15 -0.01188
76.2 -0.00744
76.25 -0.00752
76.3 -0.00623
76.35 -0.00432
76.4 -0.00122
76.45 -0.00353
76.5 -0.00883
76.55 -0.01417
76.6 -0.01681
76.65 -0.01367
76.7 -0.01364
76.75 -0.01365
76.8 -0.01372
76.85 -0.01346
76.9 -0.01623
76.95 -0.01626
77 -0.01863
77.05 -0.02224
77.1 -0.02462
77.15 -0.02776
77.2 -0.02848
77.25 -0.02323
77.3 -0.01492
77.35 -0.01261
77.4 -0.01234
77.45 -0.01216
77.5 -0.01307
77.55 -0.01409
77.6 -0.00994
77.65 -0.0051
77.7 -0.00334
77.75 0.00085
77.8 0.00748
77.85 0.01097
77.9 0.00976
77.95 0.00708
78 0.0019
78.05 -0.00273
78.1 -0.00167
78.15 0.004
78.2 0.0042
78.25 0.0067
78.3 0.01078
78.35 0.0162
78.4 0.02292
78.45 0.02948
78.5 0.02842
78.55 0.02701
78.6 0.0242
78.65 0.02157
78.7 0.01684
78.75 0.01597
78.8 0.01273
78.85 0.01406
78.9 0.0155
78.95 0.01883
79 0.01819
79.05 0.01303
79.1 0.00891
79.15 0.00949
79.2 0.01021
79.25 0.00938
79.3 0.00536
79.35 0.00465
79.4 0.00459
79.45 0.00182
79.5 -0.00071
79.55 -0.00173
79.6 0.00132
79.65 -0.00035
79.7 -0.00016
79.75 0.00187
79.8 -0.00064
79.85 -0.00285
79.9 -0.00843
79.95 -0.00701
80 -0.00501
80.05 0.00132
80.1 0.00256
80.15 0.00734
80.2 0.00936
80.25 0.01346
80.3 0.01861
80.35 0.01976
80.4 0.01649
80.45 0.01555
80.5 0.01377
80.55 0.0096
80.6 0.00982
80.65 0.00538
80.7 -0.00249
80.75 -0.00696
80.8 -0.01345
80.85 -0.01877
80.9 -0.01714
80.95 -0.01645
81 -0.01727
81.05 -0.01553
81.1 -0.01772
81.15 -0.01821
81.2 -0.01527
81.25 -0.00829
81.3 -0.00148
81.35 0.00707
81.4 0.01654
81.45 0.02263
81.5 0.02817
81.55 0.02561
81.6 0.02032
81.65 0.01222
81.7 0.00254
81.75 -0.00153
81.8 0.00047
81.85 0.00156
81.9 0.00185
81.95 0.00322
82 0.00122
82.05 -0.00159
82.1 -0.00607
82.15 -0.00585
82.2 -0.00903
82.25 -0.00775
82.3 -0.00199
82.35 0.0009
82.4 0.00668
82.45 0.01325
82.5 0.01971
82.55 0.01882
82.6 0.0194
82.65 0.01849
82.7 0.01244
82.75 0.01053
82.8 0.00532
82.85 0.00145
82.9 0.00226
82.95 0.00052
83 -0.00384
83.05 -0.00885
83.1 -0.01457
83.15 -0.01748
83.2 -0.01599
83.25 -0.01167
83.3 -0.00644
83.35 -0.00298
83.4 0.00267
83.45 0.00123
83.5 0.00328
83.55 0.00186
83.6 -0.00132
83.65 -0.00481
83.7 -0.0094
83.75 -0.01024
83.8 -0.00893
83.85 -0.00606
83.9 -0.00609
83.95 -0.0091
84 -0.00605
84.05 -0.00817
84.1 -0.00623
84.15 -0.00738
84.2 -0.0093
84.25 -0.01381
84.3 -0.01939
84.35 -0.0196
84.4 -0.0201
84.45 -0.02009
84.5 -0.02225
84.55 -0.01858
84.6 -0.01552
84.65 -0.0104
84.7 -0.0061
84.75 -0.00653
84.8 -0.01071
84.85 -0.01036
84.9 -0.01295
84.95 -0.01095
85 -0.00963
85.05 -0.00832
85.1 -0.00902
85.15 -0.00416
85.2 -0.00204
85.25 0.00244
85.3 0.00626
85.35 0.01304
85.4 0.01848
85.45 0.01979
85.5 0.01499
85.55 0.01145
85.6 0.004
85.65 0.00246
85.7 0.00087
85.75 -0.00136
85.8 -0.00576
85.85 -0.00374
85.9 -0.00221
85.95 -0.00037
86 0.00312
86.05 0.00868
86.1 0.0125
86.15 0.0136
86.2 0.01365
86.25 0.00799
86.3 0.00447
86.35 0.0008
86.4 -0.00288
86.45 -0.00815
86.5 -0.0067
86.55 -0.00249
86.6 0.00069
86.65 0.00729
86.7 0.01533
86.75 0.02114
86.8 0.02264
86.85 0.01914
86.9 0.01256
86.95 0.0103
87 0.00947
87.05 0.00769
87.1 0.00744
87.15 0.00951
87.2 0.01332
87.25 0.01892
87.3 0.02044
87.35 0.01978
87.4 0.02159
87.45 0.01801
87.5 0.01035
87.55 0.00544
87.6 -0.00246
87.65 -0.00958
87.7 -0.01685
87.75 -0.01711
87.8 -0.0145
87.85 -0.00843
87.9 -0.00311
87.95 0.00268
88 0.01056
88.05 0.01626
88.1 0.01665
88.15 0.01933
88.2 0.01695
88.25 0.01741
88.3 0.01364
88.35 0.0065
88.4 0.00028
88.45 0.00056
88.5 -0.00319
88.55 -0.00628
88.6 -0.00903
88.65 -0.00949
88.7 -0.00736
88.75 -0.00461
88.8 0.00015
88.85 0.00265
88.9 -0.00045
88.95 -0.00031
89 -0.00117
89.05 -0.00082
89.1 -0.00038
89.15 0.0013
89.2 0.00388
89.25 0.00446
89.3 0.00766
89.35 0.00744
89.4 0.00467
89.45 0.00666
89.5 0.00371
89.55 0.00237
89.6 0.00254
89.65 0.00001
89.7 -0.00387
89.75 -0.00565
89.8 -0.00935
89.85 -0.01003
89.9 -0.01272
89.95 -0.01471
90 -0.01593
90.05 -0.01254
90.1 -0.0105
90.15 -0.0121
90.2 -0.0129
90.25 -0.01673
90.3 -0.01889
90.35 -0.01555
90.4 -0.00832
90.45 -0.00413
90.5 0.00315
90.55 0.00966
90.6 0.01544
90.65 0.01743
90.7 0.01991
90.75 0.02108
90.8 0.01883
90.85 0.01283
90.9 0.01007
90.95 0.00676
91 -0.00029
91.05 -0.00342
91.1 -0.00975
91.15 -0.01255
91.2 -0.01533
91.25 -0.01894
91.3 -0.02048
91.35 -0.02288
91.4 -0.02322
91.45 -0.023
91.5 -0.02391
91.55 -0.02701
91.6 -0.03059
91.65 -0.02819
91.7 -0.02846
91.75 -0.03008
91.8 -0.03229
91.85 -0.02876
91.9 -0.02632
91.95 -0.02328
92 -0.02131
92.05 -0.01945
92.1 -0.01278
92.15 -0.00624
92.2 -0.00562
92.25 -0.00256
92.3 -0.00224
92.35 -0.00482
92.4 -0.00314
92.45 0.00037
92.5 -0.00071
92.55 -0.0047
92.6 -0.00864
92.65 -0.00758
92.7 -0.00444
92.75 0.00085
92.8 -0.00001
92.85 -0.00177
92.9 0.00073
92.95 0.00451
93 0.00801
93.05 0.01046
93.1 0.01063
93.15 0.00901
93.2 0.01075
93.25 0.01558
93.3 0.01495
93.35 0.01404
93.4 0.01564
93.45 0.01702
93.5 0.02042
93.55 0.0181
93.6 0.0156
93.65 0.01188
93.7 0.0118
93.75 0.01326
93.8 0.01616
93.85 0.01308
93.9 0.01347
93.95 0.01092
94 0.00681
94.05 0.00074
94.1 -0.00295
94.15 -0.00362
94.2 -0.00661
94.25 -0.00605
94.3 -0.00557
94.35 -0.00259
94.4 -0.00267
94.45 -0.00025
94.5 -0.00141
94.55 -0.00543
94.6 -0.0087
94.65 -0.01446
94.7 -0.01545
94.75 -0.01933
94.8 -0.02214
94.85 -0.02207
94.9 -0.01863
94.95 -0.0172
95 -0.01008
95.05 -0.00202
95.1 0.00134
95.15 0.00357
95.2 0.00785
95.25 0.00768
95.3 0.003
95.35 -0.00255
95.4 -0.00679
95.45 -0.00436
95.5 -0.00216
95.55 -0.00456
95.6 -0.00573
95.65 -0.00167
95.7 0.00466
95.75 0.01153
95.8 0.01245
95.85 0.0158
95.9 0.01816
95.95 0.01531
96 0.0106
96.05 0.00547
96.1 -0.00002
96.15 -0.00465
96.2 -0.00401
96.25 0.00101
96.3 0.00297
96.35 0.00358
96.4 0.00818
96.45 0.01006
96.5 0.01001
96.55 0.01341
96.6 0.01594
96.65 0.01961
96.7 0.02398
96.75 0.02536
96.8 0.02622
96.85 0.02513
96.9 0.02666
96.95 0.02122
97 0.0181
97.05 0.01715
97.1 0.01766
97.15 0.01448
97.2 0.01547
97.25 0.01431
97.3 0.01377
97.35 0.00765
97.4 0.00215
97.45 -0.00343
97.5 -0.00934
97.55 -0.01454
97.6 -0.01282
97.65 -0.01525
97.7 -0.01537
97.75 -0.01623
97.8 -0.01504
97.85 -0.01382
97.9 -0.01655
97.95 -0.01939
98 -0.01933
98.05 -0.02149
98.1 -0.02583
98.15 -0.02582
98.2 -0.0203
98.25 -0.01188
98.3 -0.00492
98.35 -0.00123
98.4 0.0032
98.45 0.008
98.5 0.01046
98.55 0.00755
98.6 0.00289
98.65 -0.00105
98.7 0.00049
98.75 0.0039
98.8 0.0066
98.85 0.00321
98.9 0.0032
98.95 0.0065
99 0.00722
99.05 0.00672
99.1 0.00393
99.15 -0.00175
99.2 -0.00627
99.25 -0.00534
99.3 0.00007
99.35 0.00071
99.4 0.00233
99.45 -0.00031
99.5 -0.0011
99.55 -0.00435
99.6 -0.00289
99.65 0.00112
99.7 0.00073
99.75 -0.00287
99.8 -0.00957
99.85 -0.01535
99.9 -0.02039
99.95 -0.0197
