0 0
0.05 0.00066
0.1 0.00268
0.15 0.00832
0.2 0.01367
0.25 0.0171
0.3 0.0255
0.35 0.033
0.4 0.03694
0.45 0.03787
0.5 0.03905
0.55 0.04326
0.6 0.04723
0.65 0.05117
0.7 0.05531
0.75 0.05811
0.8 0.06139
0.85 0.06163
0.9 0.05816
0.95 0.0573
1 0.05397
1.05 0.05398
1.1 0.05485
1.15 0.05685
1.2 0.0531
1.25 0.04691
1.3 0.03881
1.35 0.03473
1.4 0.03022
1.45 0.02912
1.5 0.03217
1.55 0.03241
1.6 0.03437
1.65 0.03379
1.7 0.03149
1.75 0.03222
1.8 0.03526
1.85 0.03968
1.9 0.04139
1.95 0.04044
2 0.03541
2.05 0.02894
2.1 0.02497
2.15 0.02115
2.2 0.01596
2.25 0.01387
2.3 0.01704
2.35 0.01769
2.4 0.01475
2.45 0.01717
2.5 0.02063
2.55 0.02398
2.6 0.02963
2.65 0.02974
2.7 0.02521
2.75 0.02635
2.8 0.02717
2.85 0.02539
2.9 0.02344
2.95 0.02221
3 0.01782
3.05 0.01865
3.1 0.02052
3.15 0.02351
3.2 0.02287
3.25 0.02547
3.3 0.02457
3.35 0.02471
3.4 0.02316
3.45 0.0179
3.5 0.01631
3.55 0.01164
3.6 0.01112
3.65 0.01042
3.7 0.00885
3.75 0.00699
3.8 0.00853
3.85 0.00824
3.9 0.00736
3.95 0.00901
4 0.01225
4.05 0.01457
4.1 0.01479
4.15 0.01524
4.2 0.01365
4.25 0.01361
4.3 0.01338
4.35 0.01524
4.4 0.01829
4.45 0.0196
4.5 0.01939
4.55 0.01295
4.6 0.00367
4.65 -0.00579
4.7 -0.01578
4.75 -0.02838
4.8 -0.03801
4.85 -0.05311
4.9 -0.07041
4.95 -0.08501
5 -0.10096
5.05 -0.11646
5.1 -0.13508
5.15 -0.1548
5.2 -0.17752
5.25 -0.19973
5.3 -0.21671
5.35 -0.22954
5.4 -0.24383
5.45 -0.26137
5.5 -0.27735
5.55 -0.28721
5.6 -0.29543
5.65 -0.29702
5.7 -0.28854
5.75 -0.27454
5.8 -0.25761
5.85 -0.23411
5.9 -0.20978
5.95 -0.18006
6 -0.14407
6.05 -0.10317
6.1 -0.05561
6.15 -0.00437
6.2 0.04411
6.25 0.09212
6.3 0.13641
6.35 0.17651
6.4 0.2085
6.45 0.2325
6.5 0.25397
6.55 0.27165
6.6 0.28624
6.65 0.29065
6.7 0.29387
6.75 0.29163
6.8 0.28202
6.85 0.26702
6.9 0.24823
6.95 0.23273
7 0.22058
7.05 0.20443
7.1 0.1927
7.15 0.18506
7.2 0.17928
7.25 0.16849
7.3 0.15496
7.35 0.14349
7.4 0.13666
7.45 0.1276
7.5 0.12085
7.55 0.11345
7.6 0.1076
7.65 0.10614
7.7 0.10426
7.75 0.10168
7.8 0.09493
7.85 0.08723
7.9 0.08365
7.95 0.08216
8 0.07683
8.05 0.07055
8.1 0.06676
8.15 0.06524
8.2 0.05873
8.25 0.05186
8.3 0.04789
8.35 0.04562
8.4 0.04227
8.45 0.04117
8.5 0.035
8.55 0.02524
8.6 0.02144
8.65 0.01832
8.7 0.01368
8.75 0.01351
8.8 0.01318
8.85 0.01649
8.9 0.01468
8.95 0.01384
9 0.01361
9.05 0.01489
9.1 0.01945
9.15 0.02537
9.2 0.02597
9.25 0.02304
9.3 0.01731
9.35 0.01382
9.4 0.01159
9.45 0.01118
9.5 0.01183
9.55 0.0156
9.6 0.02013
9.65 0.02024
9.7 0.01883
9.75 0.01418
9.8 0.00755
9.85 0.00148
9.9 -0.00597
9.95 -0.01371
10 -0.02121
10.05 -0.02684
10.1 -0.03104
10.15 -0.0276
10.2 -0.02702
10.25 -0.02502
10.3 -0.02253
10.35 -0.01698
10.4 -0.0162
10.45 -0.01649
10.5 -0.01794
10.55 -0.01385
10.6 -0.0076
10.65 -0.00008
10.7 0.00524
10.75 0.01029
10.8 0.01075
10.85 0.00575
10.9 -0.00299
10.95 -0.0127
11 -0.01857
11.05 -0.02379
11.1 -0.02699
11.15 -0.03125
11.2 -0.03054
11.25 -0.02923
11.3 -0.02321
11.35 -0.01599
11.4 -0.0113
11.45 -0.01166
11.5 -0.01169
11.55 -0.01419
11.6 -0.01861
11.65 -0.02249
11.7 -0.02323
11.75 -0.01843
11.8 -0.01709
11.85 -0.01801
11.9 -0.01862
11.95 -0.02171
12 -0.02594
12.05 -0.03134
12.1 -0.03175
12.15 -0.02997
12.2 -0.02805
12.25 -0.02487
12.3 -0.02506
12.35 -0.02789
12.4 -0.0261
12.45 -0.0199
12.5 -0.01614
12.55 -0.01037
12.6 -0.01023
12.65 -0.0119
12.7 -0.01132
12.75 -0.01056
12.8 -0.00665
12.85 -0.00557
12.9 -0.00823
12.95 -0.00548
13 -0.00702
13.05 -0.01051
13.1 -0.01014
13.15 -0.00756
13.2 -0.00551
13.25 -0.00324
13.3 -0.00072
13.35 -0.00204
13.4 0.00096
13.45 0.00283
13.5 -0.00016
13.55 0.00066
13.6 -0.00184
13.65 0.00019
13.7 -0.00139
13.75 -0.00366
13.8 -0.00468
13.85 -0.00929
13.9 -0.01067
13.95 -0.01201
14 -0.01647
14.05 -0.01754
14.1 -0.01413
14.15 -0.01116
14.2 -0.00666
14.25 -0.00007
14.3 0.00663
14.35 0.01115
14.4 0.01058
14.45 0.01036
14.5 0.00751
14.55 0.00513
14.6 0.00323
14.65 0.00081
14.7 -0.00031
14.75 -0.00518
14.8 -0.0085
14.85 -0.00841
14.9 -0.00669
14.95 -0.00216
15 0.00329
15.05 0.00915
15.1 0.01382
15.15 0.01722
15.2 0.01403
15.25 0.01193
15.3 0.00564
15.35 0.00345
15.4 -0.00263
15.45 -0.00465
15.5 -0.00654
15.55 -0.00887
15.6 -0.01199
15.65 -0.01197
15.7 -0.00727
15.75 -0.00533
15.8 -0.0037
15.85 -0.00363
15.9 -0.0028
15.95 -0.00169
16 -0.00023
16.05 -0.00249
16.1 -0.00754
16.15 -0.00867
16.2 -0.00857
16.25 -0.00636
16.3 -0.0046
16.35 -0.00305
16.4 0.00046
16.45 0.00075
16.5 -0.00348
16.55 -0.00354
16.6 -0.00398
16.65 -0.0031
16.7 0.00119
16.75 0.00688
16.8 0.0081
16.85 0.00602
16.9 0.00786
16.95 0.00409
17 -0.00038
17.05 -0.00718
17.1 -0.01126
17.15 -0.01198
17.2 -0.00906
17.25 -0.01022
17.3 -0.00643
17.35 -0.00095
17.4 0.00511
17.45 0.01225
17.5 0.01298
17.55 0.01418
17.6 0.01573
17.65 0.01369
17.7 0.00923
17.75 0.00929
17.8 0.00957
17.85 0.01183
17.9 0.01154
17.95 0.00655
18 0.00301
18.05 0.00101
18.1 0.00177
18.15 0.00278
18.2 0.00272
18.25 -0.00015
18.3 -0.00134
18.35 -0.00266
18.4 -0.00732
18.45 -0.00925
18.5 -0.0141
18.55 -0.01627
18.6 -0.01315
18.65 -0.01357
18.7 -0.01552
18.75 -0.01576
18.8 -0.01632
18.85 -0.01802
18.9 -0.01495
18.95 -0.01044
19 -0.0052
19.05 -0.00289
19.1 -0.00256
19.15 0.00047
19.2 -0.00198
19.25 -0.00632
19.3 -0.00745
19.35 -0.00436
19.4 0.00031
19.45 -0.00109
19.5 0.00166
19.55 0.00634
19.6 0.01041
19.65 0.01513
19.7 0.01537
19.75 0.01425
19.8 0.01134
19.85 0.01179
19.9 0.01079
19.95 0.00498
20 -0.00186
20.05 -0.00589
20.1 -0.00485
20.15 -0.00473
20.2 -0.0058
20.25 -0.00608
20.3 -0.01002
20.35 -0.01592
20.4 -0.02022
20.45 -0.01754
20.5 -0.01188
20.55 -0.0096
20.6 -0.00723
20.65 -0.00675
20.7 -0.00869
20.75 -0.0136
20.8 -0.01258
20.85 -0.01353
20.9 -0.01509
20.95 -0.01735
21 -0.0209
21.05 -0.01941
21.1 -0.01838
21.15 -0.0174
21.2 -0.01819
21.25 -0.01863
21.3 -0.01838
21.35 -0.01968
21.4 -0.0173
21.45 -0.01047
21.5 -0.00374
21.55 0.00063
21.6 0.00452
21.65 0.00957
21.7 0.01584
21.75 0.01755
21.8 0.02036
21.85 0.01928
21.9 0.01615
21.95 0.01575
22 0.0153
22.05 0.01214
22.1 0.0121
22.15 0.00675
22.2 0.00482
22.25 0.00387
22.3 0.00261
22.35 0.00018
22.4 0.00259
22.45 0.00579
22.5 0.00834
22.55 0.00616
22.6 0.0083
22.65 0.01286
22.7 0.01373
22.75 0.01296
22.8 0.00708
22.85 -0.00059
22.9 -0.00946
22.95 -0.01284
23 -0.01699
23.05 -0.02085
23.1 -0.02192
23.15 -0.01684
23.2 -0.0099
23.25 -0.00253
23.3 0.00467
23.35 0.00781
23.4 0.01324
23.45 0.01618
23.5 0.02002
23.55 0.02419
23.6 0.02481
23.65 0.01868
23.7 0.01295
23.75 0.00619
23.8 0.00411
23.85 0.00539
23.9 0.00248
23.95 0.00062
24 -0.00216
24.05 -0.00486
24.1 -0.00464
24.15 -0.00815
24.2 -0.00881
24.25 -0.00583
24.3 -0.00617
24.35 -0.00752
24.4 -0.01128
24.45 -0.01035
24.5 -0.00873
24.55 -0.00767
24.6 -0.00358
24.65 0.00254
24.7 0.00722
24.75 0.00913
24.8 0.01017
24.85 0.00945
24.9 0.00453
24.95 -0.00263
25 -0.00623
25.05 -0.0079
25.1 -0.00625
25.15 -0.00271
25.2 0.00062
25.25 0.00214
25.3 0.00667
25.35 0.00809
25.4 0.01034
25.45 0.00926
25.5 0.00397
25.55 0.00324
25.6 0.00478
25.65 0.00857
25.7 0.00901
25.75 0.006
25.8 0.0029
25.85 0.00324
25.9 -0.00098
25.95 -0.00242
26 -0.0011
26.05 0.00182
26.1 0.00532
26.15 0.00526
26.2 0.0065
26.25 0.00664
26.3 0.00719
26.35 0.00311
26.4 -0.00052
26.45 -0.00526
26.5 -0.00713
26.55 -0.01026
26.6 -0.01457
26.65 -0.01443
26.7 -0.01368
26.75 -0.01024
26.8 -0.00801
26.85 -0.00995
26.9 -0.01028
26.95 -0.00609
27 -0.0044
27.05 -0.00631
27.1 -0.01127
27.15 -0.01549
27.2 -0.01611
27.25 -0.01915
27.3 -0.0235
27.35 -0.02882
27.4 -0.03473
27.45 -0.03875
27.5 -0.03661
27.55 -0.03705
27.6 -0.03359
27.65 -0.03373
27.7 -0.03678
27.75 -0.03651
27.8 -0.04232
27.85 -0.05142
27.9 -0.06099
27.95 -0.07433
28 -0.08609
28.05 -0.10037
28.1 -0.11551
28.15 -0.13297
28.2 -0.15545
28.25 -0.17574
28.3 -0.198
28.35 -0.22323
28.4 -0.25159
28.45 -0.28772
28.5 -0.33499
28.55 -0.39048
28.6 -0.45232
28.65 -0.51876
28.7 -0.58473
28.75 -0.66001
28.8 -0.7373
28.85 -0.82179
28.9 -0.90696
28.95 -0.99767
29 -1.09381
29.05 -1.18772
29.1 -1.28295
29.15 -1.38141
29.2 -1.47784
29.25 -1.57875
29.3 -1.67912
29.35 -1.77702
29.4 -1.87022
29.45 -1.95427
29.5 -2.02867
29.55 -2.09605
29.6 -2.15596
29.65 -2.2086
29.7 -2.25027
29.75 -2.27735
29.8 -2.2918
29.85 -2.29679
29.9 -2.28804
29.95 -2.26994
30 -2.23911
30.05 -2.19224
30.1 -2.12875
30.15 -2.05061
30.2 -1.96127
30.25 -1.85928
30.3 -1.75198
30.35 -1.64022
30.4 -1.52106
30.45 -1.39499
30.5 -1.25634
30.55 -1.10897
30.6 -0.95837
30.65 -0.80005
30.7 -0.64073
30.75 -0.48006
30.8 -0.31969
30.85 -0.16146
30.9 -0.00383
30.95 0.14549
31 0.28611
31.05 0.4226
31.1 0.55715
31.15 0.6877
31.2 0.80988
31.25 0.92499
31.3 1.03554
31.35 1.13688
31.4 1.22861
31.45 1.31546
31.5 1.39478
31.55 1.4707
31.6 1.54031
31.65 1.60152
31.7 1.65874
31.75 1.70828
31.8 1.7472
31.85 1.77873
31.9 1.8014
31.95 1.81892
32 1.83739
32.05 1.8552
32.1 1.87117
32.15 1.8858
32.2 1.89166
32.25 1.89141
32.3 1.89002
32.35 1.88747
32.4 1.88094
32.45 1.8752
32.5 1.87036
32.55 1.86541
32.6 1.85402
32.65 1.84217
32.7 1.83358
32.75 1.82547
32.8 1.81648
32.85 1.80091
32.9 1.78699
32.95 1.76704
33 1.7421
33.05 1.71815
33.1 1.68994
33.15 1.66067
33.2 1.63095
33.25 1.6046
33.3 1.57913
33.35 1.55113
33.4 1.52267
33.45 1.48539
33.5 1.44746
33.55 1.40755
33.6 1.36897
33.65 1.3289
33.7 1.28981
33.75 1.24748
33.8 1.20112
33.85 1.15243
33.9 1.1001
33.95 1.05204
34 1.00305
34.05 0.95576
34.1 0.91012
34.15 0.86717
34.2 0.8276
34.25 0.78728
34.3 0.74214
34.35 0.69945
34.4 0.65947
34.45 0.62084
34.5 0.58247
34.55 0.53758
34.6 0.49233
34.65 0.44445
34.7 0.39719
34.75 0.35237
34.8 0.30842
34.85 0.2742
34.9 0.23895
34.95 0.20911
35 0.17835
35.05 0.14695
35.1 0.115
35.15 0.08485
35.2 0.05765
35.25 0.02987
35.3 0.00147
35.35 -0.02263
35.4 -0.04044
35.45 -0.06121
35.5 -0.07952
35.55 -0.09253
35.6 -0.10717
35.65 -0.12054
35.7 -0.13229
35.75 -0.1458
35.8 -0.16128
35.85 -0.17917
35.9 -0.19682
35.95 -0.2156
36 -0.23008
36.05 -0.24539
36.1 -0.25334
36.15 -0.25729
36.2 -0.26284
36.25 -0.26485
36.3 -0.26595
36.35 -0.27374
36.4 -0.27735
36.45 -0.27974
36.5 -0.28797
36.55 -0.29338
36.6 -0.3031
36.65 -0.30731
36.7 -0.31175
36.75 -0.31205
36.8 -0.31361
36.85 -0.3118
36.9 -0.3124
36.95 -0.31436
37 -0.32041
37.05 -0.32681
37.1 -0.32808
37.15 -0.32894
37.2 -0.33012
37.25 -0.32621
37.3 -0.31952
37.35 -0.31225
37.4 -0.30504
37.45 -0.3035
37.5 -0.30399
37.55 -0.30589
37.6 -0.30505
37.65 -0.30351
37.7 -0.30255
37.75 -0.30113
37.8 -0.30274
37.85 -0.30005
37.9 -0.29337
37.95 -0.29261
38 -0.29128
38.05 -0.29301
38.1 -0.29047
38.15 -0.28409
38.2 -0.2744
38.25 -0.26512
38.3 -0.25664
38.35 -0.25504
38.4 -0.25417
38.45 -0.25417
38.5 -0.25015
38.55 -0.25086
38.6 -0.24982
38.65 -0.24459
38.7 -0.238
38.75 -0.23151
38.8 -0.22319
38.85 -0.22069
38.9 -0.22033
38.95 -0.22297
39 -0.2226
39.05 -0.22205
39.1 -0.22169
39.15 -0.22322
39.2 -0.22266
39.25 -0.2209
39.3 -0.21611
39.35 -0.2099
39.4 -0.20162
39.45 -0.1954
39.5 -0.18642
39.55 -0.18122
39.6 -0.17608
39.65 -0.16891
39.7 -0.16128
39.75 -0.15529
39.8 -0.15594
39.85 -0.1601
39.9 -0.15952
39.95 -0.15895
40 -0.15495
40.05 -0.14998
40.1 -0.14502
40.15 -0.14144
40.2 -0.13612
40.25 -0.1371
40.3 -0.14058
40.35 -0.14014
40.4 -0.14102
40.45 -0.14215
40.5 -0.14111
40.55 -0.14096
40.6 -0.14038
40.65 -0.13691
40.7 -0.13476
40.75 -0.13296
40.8 -0.13333
40.85 -0.13157
40.9 -0.12942
40.95 -0.12813
41 -0.12575
41.05 -0.12426
41.1 -0.12647
41.15 -0.12323
41.2 -0.12201
41.25 -0.11806
41.3 -0.11368
41.35 -0.11383
41.4 -0.11402
41.45 -0.11474
41.5 -0.11019
41.55 -0.10254
41.6 -0.09774
41.65 -0.09776
41.7 -0.10084
41.75 -0.09995
41.8 -0.09554
41.85 -0.08929
41.9 -0.08316
41.95 -0.08241
42 -0.07986
42.05 -0.08065
42.1 -0.08492
42.15 -0.08578
42.2 -0.0819
42.25 -0.0814
42.3 -0.08482
42.35 -0.0892
42.4 -0.09023
42.45 -0.09222
42.5 -0.09587
42.55 -0.09503
42.6 -0.09456
42.65 -0.09548
42.7 -0.09655
42.75 -0.09255
42.8 -0.08843
42.85 -0.08422
42.9 -0.08295
42.95 -0.08056
43 -0.08145
43.05 -0.08123
43.1 -0.07899
43.15 -0.07747
43.2 -0.07164
43.25 -0.06777
43.3 -0.06102
43.35 -0.05336
43.4 -0.0486
43.45 -0.04181
43.5 -0.04071
43.55 -0.04022
43.6 -0.03954
43.65 -0.04292
43.7 -0.04185
43.75 -0.04088
43.8 -0.04161
43.85 -0.04252
43.9 -0.03912
43.95 -0.03384
44 -0.02925
44.05 -0.03121
44.1 -0.03664
44.15 -0.03642
44.2 -0.03924
44.25 -0.04077
44.3 -0.03956
44.35 -0.03734
44.4 -0.03302
44.45 -0.02851
44.5 -0.02254
44.55 -0.02129
44.6 -0.02119
44.65 -0.02047
44.7 -0.02014
44.75 -0.01774
44.8 -0.01606
44.85 -0.01824
44.9 -0.02365
44.95 -0.02539
45 -0.02338
45.05 -0.02501
45.1 -0.03048
45.15 -0.03648
45.2 -0.0396
45.25 -0.03804
45.3 -0.03856
45.35 -0.03639
45.4 -0.03418
45.45 -0.0298
45.5 -0.02444
45.55 -0.02554
45.6 -0.02257
45.65 -0.01952
45.7 -0.01736
45.75 -0.01804
45.8 -0.01785
45.85 -0.02271
45.9 -0.0292
45.95 -0.03409
46 -0.03776
46.05 -0.04033
46.1 -0.04253
46.15 -0.04385
46.2 -0.04178
46.25 -0.03705
46.3 -0.03072
46.35 -0.02386
46.4 -0.01557
46.45 -0.00906
46.5 -0.0087
46.55 -0.0094
46.6 -0.01109
46.65 -0.01698
46.7 -0.02009
46.75 -0.01965
46.8 -0.02094
46.85 -0.02193
46.9 -0.01837
46.95 -0.01363
47 -0.00724
47.05 -0.00433
47.1 -0.00508
47.15 -0.00979
47.2 -0.012
47.25 -0.01311
47.3 -0.01384
47.35 -0.01278
47.4 -0.01503
47.45 -0.01973
47.5 -0.02118
47.55 -0.0246
47.6 -0.028
47.65 -0.03163
47.7 -0.03309
47.75 -0.03077
47.8 -0.02763
47.85 -0.02556
47.9 -0.02032
47.95 -0.0147
48 -0.00778
48.05 -0.00525
48.1 -0.00288
48.15 0.00007
48.2 -0.00212
48.25 -0.00362
48.3 -0.00561
48.35 -0.00822
48.4 -0.01336
48.45 -0.01754
48.5 -0.01679
48.55 -0.01437
48.6 -0.01476
48.65 -0.01781
48.7 -0.01798
48.75 -0.01887
48.8 -0.02219
48.85 -0.0255
48.9 -0.02505
48.95 -0.01965
49 -0.0161
49.05 -0.01557
49.1 -0.01291
49.15 -0.00874
49.2 -0.0061
49.25 -0.00524
49.3 -0.00216
49.35 -0.00278
49.4 -0.00461
49.45 -0.0049
49.5 -0.00906
49.55 -0.01276
49.6 -0.01577
49.65 -0.01576
49.7 -0.01528
49.75 -0.0176
49.8 -0.01768
49.85 -0.01812
49.9 -0.0177
49.95 -0.01705
50 -0.01912
50.05 -0.01824
50.1 -0.01953
50.15 -0.01635
50.2 -0.01016
50.25 -0.00515
50.3 -0.00522
50.35 -0.00543
50.4 -0.00905
50.45 -0.01317
50.5 -0.01792
50.55 -0.02242
50.6 -0.02
50.65 -0.01452
50.7 -0.0119
50.75 -0.00962
50.8 -0.0071
50.85 -0.00819
50.9 -0.01275
50.95 -0.01643
51 -0.01832
51.05 -0.01686
51.1 -0.01549
51.15 -0.00962
51.2 -0.0071
51.25 -0.00508
51.3 -0.0012
51.35 0.00224
51.4 0.00175
51.45 0.00441
51.5 0.00711
51.55 0.00414
51.6 -0.00235
51.65 -0.00658
51.7 -0.01051
51.75 -0.00828
51.8 -0.01063
51.85 -0.00946
51.9 -0.00499
51.95 -0.0002
52 0.00002
52.05 0.00185
52.1 0.00571
52.15 0.00522
52.2 0.00579
52.25 0.00448
52.3 0.00426
52.35 0.00499
52.4 0.00088
52.45 0.00006
52.5 0.00308
52.55 0.00845
52.6 0.01084
52.65 0.01066
52.7 0.01128
52.75 0.01064
52.8 0.00632
52.85 0.00005
52.9 -0.00217
52.95 -0.00796
53 -0.01093
53.05 -0.01282
53.1 -0.01131
53.15 -0.01143
53.2 -0.01177
53.25 -0.013
53.3 -0.01027
53.35 -0.01225
53.4 -0.01163
53.45 -0.00727
53.5 -0.00587
53.55 -0.00641
53.6 -0.00242
53.65 0.00391
53.7 0.00555
53.75 0.00406
53.8 0.00056
53.85 -0.00148
53.9 -0.00591
53.95 -0.01116
54 -0.01667
54.05 -0.02068
54.1 -0.01947
54.15 -0.01573
54.2 -0.00862
54.25 -0.00192
54.3 0.00632
54.35 0.00973
54.4 0.00899
54.45 0.00928
54.5 0.00817
54.55 0.01035
54.6 0.01348
54.65 0.0141
54.7 0.01161
54.75 0.00789
54.8 0.00598
54.85 0.00452
54.9 0.00315
54.95 -0.00165
55 -0.00821
55.05 -0.0146
55.1 -0.02173
55.15 -0.02241
55.2 -0.02031
55.25 -0.01947
55.3 -0.01873
55.35 -0.0133
55.4 -0.00607
55.45 -0.00314
55.5 -0.00058
55.55 0.00008
55.6 0.00228
55.65 0.00171
55.7 0.00043
55.75 -0.00457
55.8 -0.00768
55.85 -0.0053
55.9 -0.00179
55.95 0.00254
56 0.00612
56.05 0.00563
56.1 0.00114
56.15 -0.00009
56.2 0.00114
56.25 0.00483
56.3 0.00355
56.35 -0.00062
56.4 -0.00103
56.45 -0.00336
56.5 -0.00814
56.55 -0.0126
56.6 -0.01254
56.65 -0.0123
56.7 -0.00698
56.75 -0.00646
56.8 -0.00416
56.85 -0.00483
56.9 -0.00862
56.95 -0.01186
57 -0.00911
57.05 -0.00753
57.1 -0.00618
57.15 -0.00653
57.2 -0.00833
57.25 -0.00753
57.3 -0.00266
57.35 0.00294
57.4 0.00812
57.45 0.0145
57.5 0.02008
57.55 0.02459
57.6 0.02668
57.65 0.02196
57.7 0.0147
57.75 0.00482
57.8 0.00116
57.85 0.00052
57.9 0.00248
57.95 0.00608
58 0.01108
58.05 0.01286
58.1 0.01435
58.15 0.01683
58.2 0.01851
58.25 0.02124
58.3 0.02385
58.35 0.02265
58.4 0.01787
58.45 0.01681
58.5 0.01496
58.55 0.01433
58.6 0.01576
58.65 0.0153
58.7 0.01665
58.75 0.01871
58.8 0.01652
58.85 0.01551
58.9 0.01421
58.95 0.00829
59 0.00358
59.05 -0.00271
59.1 -0.00601
59.15 -0.00526
59.2 -0.00298
59.25 -0.00294
59.3 -0.00195
59.35 -0.00467
59.4 -0.00623
59.45 -0.01073
59.5 -0.01535
59.55 -0.02165
59.6 -0.02455
59.65 -0.02784
59.7 -0.02401
59.75 -0.01977
59.8 -0.01757
59.85 -0.012
59.9 -0.00762
59.95 -0.0023
60 -0.00024
60.05 0.00373
60.1 0.00513
60.15 0.00346
60.2 -0.00131
60.25 -0.00803
60.3 -0.01354
60.35 -0.01469
60.4 -0.01623
60.45 -0.0189
60.5 -0.01674
60.55 -0.01649
60.6 -0.01164
60.65 -0.00389
60.7 0.00478
60.75 0.01056
60.8 0.01042
60.85 0.01092
60.9 0.00687
60.95 0.00078
61 0.00073
61.05 0.00044
61.1 -0.00206
61.15 -0.00796
61.2 -0.01185
61.25 -0.01584
61.3 -0.01911
61.35 -0.02019
61.4 -0.02164
61.45 -0.01862
61.5 -0.01816
61.55 -0.02005
61.6 -0.02208
61.65 -0.02201
61.7 -0.02269
61.75 -0.0191
61.8 -0.01099
61.85 -0.00516
61.9 0.00127
61.95 0.00809
62 0.00813
62.05 0.00411
62.1 0.00084
62.15 -0.00456
62.2 -0.01178
62.25 -0.01813
62.3 -0.01884
62.35 -0.02087
62.4 -0.02002
62.45 -0.01889
62.5 -0.01563
62.55 -0.01019
62.6 -0.00427
62.65 0.00394
62.7 0.00713
62.75 0.00639
62.8 0.00761
62.85 0.00372
62.9 -0.00205
62.95 -0.00399
63 -0.0056
63.05 -0.00864
63.1 -0.01218
63.15 -0.01199
63.2 -0.01162
63.25 -0.00974
63.3 -0.01114
63.35 -0.00691
63.4 -0.00157
63.45 0.00432
63.5 0.00672
63.55 0.00397
63.6 0.0009
63.65 -0.00095
63.7 -0.00172
63.75 -0.00165
63.8 -0.00207
63.85 0.00204
63.9 0.0066
63.95 0.00963
64 0.01417
64.05 0.01399
64.1 0.01372
64.15 0.01429
64.2 0.01706
64.25 0.01374
64.3 0.01037
64.35 0.00339
64.4 -0.0041
64.45 -0.0072
64.5 -0.00504
64.55 -0.00112
64.6 0.00359
64.65 0.00831
64.7 0.013
64.75 0.01577
64.8 0.01818
64.85 0.0196
64.9 0.01508
64.95 0.00865
65 0.00505
65.05 0.00179
65.1 0.00288
65.15 -0.00085
65.2 0.00081
65.25 -0.00078
65.3 -0.00531
65.35 -0.00925
65.4 -0.00931
65.45 -0.01073
65.5 -0.00983
65.55 -0.00875
65.6 -0.00621
65.65 -0.00071
65.7 0.00624
65.75 0.00989
65.8 0.0131
65.85 0.01356
65.9 0.00867
65.95 0.00609
66 0.00172
66.05 -0.00514
66.1 -0.00629
66.15 -0.00458
66.2 -0.00363
66.25 -0.0046
66.3 -0.0066
66.35 -0.00523
66.4 -0.00226
66.45 0.00062
66.5 -0.00046
66.55 -0.00503
66.6 -0.00559
66.65 -0.00547
66.7 -0.00208
66.75 -0.00293
66.8 -0.0031
66.85 -0.00323
66.9 -0.00664
66.95 -0.01221
67 -0.01658
67.05 -0.01766
67.1 -0.02055
67.15 -0.02332
67.2 -0.02332
67.25 -0.02007
67.3 -0.01696
67.35 -0.01629
67.4 -0.01109
67.45 -0.0066
67.5 -0.00106
67.55 0.00313
67.6 0.00672
67.65 0.0123
67.7 0.01253
67.75 0.01002
67.8 0.00648
67.85 0.00406
67.9 0.00129
67.95 0.00078
68 0.0046
68.05 0.00591
68.1 0.01055
68.15 0.00894
68.2 0.00507
68.25 0.00404
68.3 0.00307
68.35 0.0002
68.4 -0.00356
68.45 -0.00482
68.5 -0.00909
68.55 -0.01041
68.6 -0.01157
68.65 -0.01489
68.7 -0.01679
68.75 -0.01613
68.8 -0.01419
68.85 -0.01384
68.9 -0.01377
68.95 -0.0144
69 -0.01415
69.05 -0.01453
69.1 -0.01112
69.15 -0.00515
69.2 -0.00088
69.25 -0.00047
69.3 0.00314
69.35 0.00214
69.4 0.00257
69.45 0.00401
69.5 0.00833
69.55 0.01393
69.6 0.01445
69.65 0.01361
69.7 0.01166
69.75 0.00815
69.8 0.00774
69.85 0.00389
69.9 0.00075
69.95 0.00237
70 0.00153
70.05 0.00444
70.1 0.00372
70.15 0.00127
70.2 -0.0024
70.25 -0.00675
70.3 -0.01205
70.35 -0.01158
70.4 -0.00783
70.45 -0.00372
70.5 -0.00036
70.55 0.00189
70.6 -0.00056
70.65 -0.00122
70.7 0.00074
70.75 0.00613
70.8 0.00794
70.85 0.00794
70.9 0.01017
70.95 0.01148
71 0.01265
71.05 0.01064
71.1 0.00823
71.15 0.00803
71.2 0.00579
71.25 0.00824
71.3 0.01172
71.35 0.01516
71.4 0.01562
71.45 0.01048
71.5 0.00374
71.55 0.00046
71.6 0.00121
71.65 0.00583
71.7 0.01236
71.75 0.01388
71.8 0.01772
71.85 0.01489
71.9 0.00967
71.95 0.00894
72 0.01114
72.05 0.01435
72.1 0.01315
72.15 0.01444
72.2 0.01092
72.25 0.00798
72.3 0.00191
72.35 -0.00642
72.4 -0.01435
72.45 -0.01571
72.5 -0.01648
72.55 -0.01442
72.6 -0.0143
72.65 -0.00946
72.7 -0.00248
72.75 0.00487
72.8 0.00816
72.85 0.00992
72.9 0.0143
72.95 0.01874
73 0.01904
73.05 0.01963
73.1 0.01552
73.15 0.01297
73.2 0.00584
73.25 -0.00217
73.3 -0.00891
73.35 -0.01642
73.4 -0.02405
73.45 -0.02908
73.5 -0.03188
73.55 -0.02852
73.6 -0.02724
73.65 -0.02439
73.7 -0.0243
73.75 -0.02505
73.8 -0.02036
73.85 -0.01805
73.9 -0.01432
73.95 -0.00985
74 -0.00727
74.05 -0.00762
74.1 -0.00954
74.15 -0.0131
74.2 -0.01795
74.25 -0.02159
74.3 -0.02443
74.35 -0.02474
74.4 -0.02073
74.45 -0.02021
74.5 -0.021
74.55 -0.01786
74.6 -0.01336
74.65 -0.01103
74.7 -0.00457
74.75 0.00246
74.8 0.00796
74.85 0.00798
74.9 0.00945
74.95 0.01384
75 0.01464
75.05 0.01143
75.1 0.01098
75.15 0.00788
75.2 0.00451
75.25 -0.0016
75.3 -0.00265
75.35 -0.00452
75.4 -0.00633
75.45 -0.00673
75.5 -0.01007
75.55 -0.01034
75.6 -0.00818
75.65 -0.00705
75.7 -0.002
75.75 0.00485
75.8 0.00672
75.85 0.01046
75.9 0.01418
75.95 0.0154
76 0.0137
76.05 0.01386
76.1 0.01099
76.15 0.00502
76.2 0.00181
76.25 -0.00032
76.3 -0.00203
76.35 -0.00462
76.4 -0.00753
76.45 -0.00488
76.5 -0.00465
76.55 -0.00324
76.6 0.00049
76.65 0.00055
76.7 -0.00273
76.75 -0.00289
76.8 0.00016
76.85 0.00476
76.9 0.00448
76.95 0.00313
77 0.00244
77.05 0.00029
77.1 -0.00047
77.15 0.00163
77.2 0.00297
77.25 0.00549
77.3 0.00795
77.35 0.01058
77.4 0.00994
77.45 0.00729
77.5 0.00446
77.55 0.00202
77.6 -0.00231
77.65 -0.00128
77.7 -0.00118
77.75 -0.00349
77.8 -0.0083
77.85 -0.01318
77.9 -0.01169
77.95 -0.00784
78 -0.00087
78.05 0.00142
78.1 0.00701
78.15 0.01309
78.2 0.01505
78.25 0.01486
78.3 0.01324
78.35 0.01064
78.4 0.00833
78.45 0.00816
78.5 0.00597
78.55 0.0059
78.6 0.00823
78.65 0.00505
78.7 0.00427
78.75 0.0072
78.8 0.00728
78.85 0.01103
78.9 0.00956
78.95 0.00403
79 -0.0001
79.05 -0.00276
79.1 -0.0041
79.15 -0.0006
79.2 0.00113
79.25 -0.00081
79.3 0.00108
79.35 -0.00152
79.4 -0.00703
79.45 -0.01378
79.5 -0.01567
79.55 -0.0183
79.6 -0.01973
79.65 -0.01732
79.7 -0.01497
79.75 -0.01099
79.8 -0.00769
79.85 -0.00425
79.9 -0.00486
79.95 -0.00708
80 -0.00858
80.05 -0.00523
80.1 0.00051
80.15 0.0013
80.2 0.00072
80.25 -0.00194
80.3 -0.00665
80.35 -0.01268
80.4 -0.01244
80.45 -0.01085
80.5 -0.01285
80.55 -0.01369
80.6 -0.00998
80.65 -0.0035
80.7 0.0004
80.75 0.00698
80.8 0.00739
80.85 0.00784
80.9 0.00935
80.95 0.01199
81 0.01506
81.05 0.01971
81.1 0.01984
81.15 0.01736
81.2 0.01056
81.25 0.00761
81.3 0.005
81.35 0.00303
81.4 0.00139
81.45 0.00294
81.5 0.00698
81.55 0.01119
81.6 0.01267
81.65 0.01616
81.7 0.01951
81.75 0.02207
81.8 0.01972
81.85 0.01622
81.9 0.01096
81.95 0.00923
82 0.00454
82.05 -0.00036
82.1 0.00069
82.15 0.00071
82.2 -0.00166
82.25 -0.00462
82.3 -0.00385
82.35 0.00042
82.4 0.00516
82.45 0.00952
82.5 0.0117
82.55 0.01206
82.6 0.01229
82.65 0.01116
82.7 0.00846
82.75 0.00743
82.8 0.00581
82.85 0.00439
82.9 0.00299
82.95 0.0039
83 0.00243
83.05 0.00095
83.1 0.00283
83.15 0.00558
83.2 0.00407
83.25 0.00428
83.3 0.00047
83.35 -0.00201
83.4 -0.0059
83.45 -0.00724
83.5 -0.00549
83.55 -0.00539
83.6 -0.00834
83.65 -0.00627
83.7 -0.00155
83.75 0.00484
83.8 0.00491
83.85 0.00205
83.9 0.00345
83.95 0.00417
84 0.00602
84.05 0.00338
84.1 0.00236
84.15 -0.0014
84.2 -0.00421
84.25 -0.00287
84.3 -0.00088
84.35 0.00063
84.4 0.00045
84.45 -0.00357
84.5 -0.00452
84.55 -0.0027
84.6 0.0025
84.65 0.00566
84.7 0.00688
84.75 0.00292
84.8 -0.00165
84.85 -0.00441
84.9 -0.00723
84.95 -0.00741
85 -0.00687
85.05 -0.00921
85.1 -0.01302
85.15 -0.01592
85.2 -0.01385
85.25 -0.0077
85.3 -0.0049
85.35 -0.00375
85.4 -0.00189
85.45 -0.00002
85.5 0.00043
85.55 0.00047
85.6 -0.00092
85.65 0.00158
85.7 -0.00067
85.75 -0.00602
85.8 -0.00557
85.85 -0.00239
85.9 -0.00236
85.95 -0.0056
86 -0.00763
86.05 -0.00608
86.1 -0.00454
86.15 -0.00401
86.2 -0.00601
86.25 -0.00776
86.3 -0.00646
86.35 -0.00822
86.4 -0.00726
86.45 -0.0081
86.5 -0.00734
86.55 -0.0045
86.6 0.00141
86.65 0.00871
86.7 0.00836
86.75 0.00411
86.8 -0.00173
86.85 -0.00539
86.9 -0.00994
86.95 -0.01149
87 -0.01475
87.05 -0.01548
87.1 -0.01875
87.15 -0.01934
87.2 -0.01746
87.25 -0.01409
87.3 -0.01179
87.35 -0.00751
87.4 -0.00624
87.45 -0.00053
87.5 -0.00076
87.55 -0.00435
87.6 -0.00909
87.65 -0.01461
87.7 -0.0142
87.75 -0.00864
87.8 -0.00326
87.85 -0.00284
87.9 -0.00175
87.95 0.00201
88 0.00433
88.05 0.00931
88.1 0.01118
88.15 0.0106
88.2 0.00707
88.25 0.00107
88.3 -0.00336
88.35 -0.00752
88.4 -0.01117
88.45 -0.01496
88.5 -0.01212
88.55 -0.00887
88.6 -0.00293
88.65 -0.0025
88.7 -0.00041
88.75 0.00208
88.8 0.00574
88.85 0.00622
88.9 0.00351
88.95 0.00028
89 -0.00298
89.05 -0.00392
89.1 -0.00244
89.15 0.00203
89.2 0.00831
89.25 0.01228
89.3 0.01471
89.35 0.01147
89.4 0.01285
89.45 0.01412
89.5 0.01623
89.55 0.01301
89.6 0.01255
89.65 0.0109
89.7 0.00974
89.75 0.00595
89.8 0.00426
89.85 0.00057
89.9 -0.00447
89.95 -0.00771
90 -0.01103
90.05 -0.00824
90.1 -0.00678
90.15 -0.0049
90.2 -0.00096
90.25 -0.00157
90.3 0.00239
90.35 0.00802
90.4 0.01299
90.45 0.0135
90.5 0.01185
90.55 0.00699
90.6 0.00649
90.65 0.00911
90.7 0.01116
90.75 0.01573
90.8 0.01724
90.85 0.02017
90.9 0.02148
90.95 0.01645
91 0.0146
91.05 0.01364
91.1 0.0075
91.15 0.0027
91.2 -0.00369
91.25 -0.00608
91.3 -0.00756
91.35 -0.00521
91.4 0.00001
91.45 0.00525
91.5 0.00442
91.55 0.00053
91.6 -0.00439
91.65 -0.00521
91.7 -0.00484
91.75 -0.00118
91.8 0.00367
91.85 0.00813
91.9 0.01313
91.95 0.01148
92 0.00728
92.05 0.00288
92.1 -0.00133
92.15 -0.00663
92.2 -0.00682
92.25 -0.00504
92.3 -0.00012
92.35 0.00438
92.4 0.00837
92.45 0.01075
92.5 0.01498
92.55 0.0154
92.6 0.01063
92.65 0.00425
92.7 0.00251
92.75 -0.00087
92.8 -0.00286
92.85 -0.00292
92.9 -0.00695
92.95 -0.01258
93 -0.01763
93.05 -0.01815
93.1 -0.01778
93.15 -0.01802
93.2 -0.01629
93.25 -0.0126
93.3 -0.01247
93.35 -0.01559
93.4 -0.01855
93.45 -0.01906
93.5 -0.01978
93.55 -0.01594
93.6 -0.01284
93.65 -0.00608
93.7 -0.0011
93.75 -0.00046
93.8 -0.00232
93.85 -0.0059
93.9 -0.00902
93.95 -0.00805
94 -0.00982
94.05 -0.01038
94.1 -0.00906
94.15 -0.00552
94.2 -0.00472
94.25 0.00008
94.3 0.0028
94.35 0.00391
94.4 0.00548
94.45 0.00282
94.5 -0.00314
94.55 -0.003
94.6 -0.00106
94.65 0.00004
94.7 0.00412
94.75 0.00558
94.8 0.00538
94.85 0.00319
94.9 0.00276
94.95 -0.00153
95 -0.00511
95.05 -0.00784
95.1 -0.00899
95.15 -0.00633
95.2 -0.00364
95.25 -0.00552
95.3 -0.00209
95.35 0.00333
95.4 0.00314
95.45 0.00622
95.5 0.01143
95.55 0.01586
95.6 0.01685
95.65 0.01812
95.7 0.02007
95.75 0.01978
95.8 0.01958
95.85 0.01661
95.9 0.01128
95.95 0.00595
96 -0.00066
96.05 -0.00629
96.1 -0.01127
96.15 -0.00967
96.2 -0.00542
96.25 -0.00427
96.3 -0.00285
96.35 -0.00102
96.4 0.00007
96.45 -0.0009
96.5 -0.00268
96.55 -0.00509
96.6 -0.00662
96.65 -0.00517
96.7 -0.0051
96.75 -0.00478
96.8 -0.00618
96.85 -0.00365
96.9 0.00027
96.95 0.00127
97 0.00356
97.05 0.00227
97.1 0.00257
97.15 0.00076
97.2 0.00063
97.25 -0.002
97.3 -0.00431
97.35 -0.00378
97.4 -0.00665
97.45 -0.00711
97.5 -0.00258
97.55 -0.00142
97.6 0.002
97.65 0.00024
97.7 -0.00085
97.75 0.00101
97.8 0.00173
97.85 0.00046
97.9 -0.00291
97.95 -0.00508
98 -0.00985
98.05 -0.01423
98.1 -0.01798
98.15 -0.0197
98.2 -0.01613
98.25 -0.01356
98.3 -0.01487
98.35 -0.0115
98.4 -0.00526
98.45 -0.00263
98.5 0.00274
98.55 0.00997
98.6 0.01018
98.65 0.01029
98.7 0.00791
98.75 0.00841
98.8 0.01043
98.85 0.01264
98.9 0.01105
98.95 0.0132
99 0.01191
99.05 0.00718
99.1 0.00683
99.15 0.00511
99.2 0.00622
99.25 0.00909
99.3 0.00644
99.35 0.00194
99.4 0.00293
99.45 0.0038
99.5 0.00772
99.55 0.00875
99.6 0.00582
99.65 0.00435
99.7 -0.00055
99.75 -0.00689
99.8 -0.01092
99.85 -0.01472
99.9 -0.01447
99.95 -0.01402
