0 0
0.05 0.00796
0.1 0.01594
0.15 0.02735
0.2 0.04162
0.25 0.04954
0.3 0.05077
0.35 0.04801
0.4 0.04607
0.45 0.04718
0.5 0.05037
0.55 0.05263
0.6 0.04975
0.65 0.0457
0.7 0.04574
0.75 0.04538
0.8 0.04613
0.85 0.04936
0.9 0.04713
0.95 0.04241
1 0.03652
1.05 0.03794
1.1 0.03567
1.15 0.03339
1.2 0.037
1.25 0.03559
1.3 0.03848
1.35 0.04128
1.4 0.0424
1.45 0.04576
1.5 0.04959
1.55 0.05344
1.6 0.05301
1.65 0.05602
1.7 0.05855
1.75 0.06131
1.8 0.05871
1.85 0.05799
1.9 0.05278
1.95 0.04348
2 0.03985
2.05 0.03565
2.1 0.03196
2.15 0.03407
2.2 0.03373
2.25 0.02947
2.3 0.02549
2.35 0.02184
2.4 0.01993
2.45 0.02099
2.5 0.02075
2.55 0.02141
2.6 0.02191
2.65 0.01883
2.7 0.02112
2.75 0.01952
2.8 0.01845
2.85 0.01766
2.9 0.01908
2.95 0.02269
3 0.02893
3.05 0.03133
3.1 0.02957
3.15 0.02548
3.2 0.02077
3.25 0.01817
3.3 0.01917
3.35 0.02125
3.4 0.02617
3.45 0.02493
3.5 0.02579
3.55 0.02602
3.6 0.02298
3.65 0.02041
3.7 0.02333
3.75 0.02345
3.8 0.0267
3.85 0.03155
3.9 0.03659
3.95 0.03722
4 0.03858
4.05 0.03787
4.1 0.03074
4.15 0.01964
4.2 0.01503
4.25 0.01416
4.3 0.01109
4.35 0.00646
4.4 -0.00232
4.45 -0.01323
4.5 -0.02371
4.55 -0.03443
4.6 -0.04634
4.65 -0.05973
4.7 -0.07699
4.75 -0.09667
4.8 -0.11838
4.85 -0.13488
4.9 -0.15147
4.95 -0.1707
5 -0.19792
5.05 -0.22891
5.1 -0.27015
5.15 -0.31828
5.2 -0.36763
5.25 -0.41562
5.3 -0.46389
5.35 -0.51638
5.4 -0.57823
5.45 -0.63748
5.5 -0.6937
5.55 -0.74893
5.6 -0.80005
5.65 -0.85402
5.7 -0.90617
5.75 -0.94708
5.8 -0.98465
5.85 -1.01304
5.9 -1.03416
5.95 -1.04374
6 -1.04196
6.05 -1.03153
6.1 -1.01375
6.15 -0.9885
6.2 -0.9503
6.25 -0.9062
6.3 -0.85763
6.35 -0.80677
6.4 -0.75197
6.45 -0.6894
6.5 -0.61862
6.55 -0.54338
6.6 -0.46469
6.65 -0.38803
6.7 -0.31619
6.75 -0.24278
6.8 -0.17297
6.85 -0.10165
6.9 -0.02802
6.95 0.04389
7 0.11654
7.05 0.19237
7.1 0.26845
7.15 0.3423
7.2 0.41249
7.25 0.47977
7.3 0.53778
7.35 0.58645
7.4 0.62745
7.45 0.66503
7.5 0.70487
7.55 0.73822
7.6 0.76327
7.65 0.78857
7.7 0.808
7.75 0.82687
7.8 0.83964
7.85 0.84275
7.9 0.84382
7.95 0.84043
8 0.835
8.05 0.8283
8.1 0.82028
8.15 0.80835
8.2 0.79563
8.25 0.77527
8.3 0.75778
8.35 0.73667
8.4 0.71446
8.45 0.69075
8.5 0.66947
8.55 0.64813
8.6 0.62936
8.65 0.61581
8.7 0.60323
8.75 0.58961
8.8 0.57574
8.85 0.56231
8.9 0.55059
8.95 0.53854
9 0.52243
9.05 0.50564
9.1 0.48596
9.15 0.4658
9.2 0.44486
9.25 0.42135
9.3 0.40075
9.35 0.38379
9.4 0.37316
9.45 0.36352
9.5 0.35466
9.55 0.34119
9.6 0.32995
9.65 0.31576
9.7 0.30641
9.75 0.29884
9.8 0.2886
9.85 0.28133
9.9 0.27552
9.95 0.26594
10 0.25924
10.05 0.25065
10.1 0.24319
10.15 0.23703
10.2 0.2314
10.25 0.22604
10.3 0.21602
10.35 0.20278
10.4 0.18938
10.45 0.17278
10.5 0.16228
10.55 0.15188
10.6 0.14064
10.65 0.13419
10.7 0.12519
10.75 0.11653
10.8 0.10533
10.85 0.09522
10.9 0.08447
10.95 0.07334
11 0.06131
11.05 0.05319
11.1 0.04345
11.15 0.03989
11.2 0.03757
11.25 0.0359
11.3 0.03287
11.35 0.02802
11.4 0.02397
11.45 0.02037
11.5 0.0124
11.55 0.00647
11.6 0.00051
11.65 -0.00566
11.7 -0.01499
11.75 -0.01949
11.8 -0.02748
11.85 -0.03417
11.9 -0.04336
11.95 -0.04862
12 -0.05243
12.05 -0.05513
12.1 -0.06031
12.15 -0.06123
12.2 -0.06333
12.25 -0.06774
12.3 -0.0719
12.35 -0.08104
12.4 -0.09181
12.45 -0.1041
12.5 -0.11152
12.55 -0.11196
12.6 -0.11235
12.65 -0.11548
12.7 -0.11883
12.75 -0.11681
12.8 -0.11284
12.85 -0.10556
12.9 -0.10095
12.95 -0.09958
13 -0.10374
13.05 -0.10494
13.1 -0.11009
13.15 -0.11337
13.2 -0.11295
13.25 -0.10846
13.3 -0.10221
13.35 -0.10154
13.4 -0.10379
13.45 -0.10945
13.5 -0.11599
13.55 -0.11595
13.6 -0.11123
13.65 -0.10348
13.7 -0.10031
13.75 -0.09476
13.8 -0.0957
13.85 -0.09284
13.9 -0.08887
13.95 -0.08608
14 -0.08259
14.05 -0.08472
14.1 -0.08364
14.15 -0.08013
14.2 -0.07696
14.25 -0.07924
14.3 -0.08092
14.35 -0.08405
14.4 -0.08548
14.45 -0.08479
14.5 -0.08125
14.55 -0.0777
14.6 -0.08016
14.65 -0.08573
14.7 -0.08949
14.75 -0.0919
14.8 -0.08791
14.85 -0.08285
14.9 -0.08063
14.95 -0.08236
15 -0.07817
15.05 -0.07115
15.1 -0.07075
15.15 -0.07503
15.2 -0.07627
15.25 -0.07671
15.3 -0.07994
15.35 -0.08357
15.4 -0.08882
15.45 -0.09083
15.5 -0.08667
15.55 -0.08092
15.6 -0.07728
15.65 -0.07273
15.7 -0.06853
15.75 -0.06679
15.8 -0.06517
15.85 -0.06197
15.9 -0.06238
15.95 -0.05721
16 -0.05263
16.05 -0.04475
16.1 -0.03975
16.15 -0.03631
16.2 -0.03322
16.25 -0.03142
16.3 -0.03446
16.35 -0.03406
16.4 -0.03256
16.45 -0.03433
16.5 -0.03506
16.55 -0.03364
16.6 -0.03246
16.65 -0.03323
16.7 -0.03091
16.75 -0.02704
16.8 -0.02666
16.85 -0.0302
16.9 -0.03046
16.95 -0.03211
17 -0.03782
17.05 -0.038
17.1 -0.03613
17.15 -0.03931
17.2 -0.03853
17.25 -0.03622
17.3 -0.03491
17.35 -0.03647
17.4 -0.03393
17.45 -0.03405
17.5 -0.03425
17.55 -0.03182
17.6 -0.02693
17.65 -0.02087
17.7 -0.02116
17.75 -0.02605
17.8 -0.0257
17.85 -0.02172
17.9 -0.01576
17.95 -0.01031
18 -0.0054
18.05 -0.00415
18.1 -0.00634
18.15 -0.006
18.2 -0.00946
18.25 -0.01754
18.3 -0.02251
18.35 -0.02239
18.4 -0.02681
18.45 -0.0312
18.5 -0.03739
18.55 -0.04033
18.6 -0.03927
18.65 -0.03917
18.7 -0.04027
18.75 -0.03835
18.8 -0.03574
18.85 -0.03297
18.9 -0.02607
18.95 -0.01706
19 -0.01089
19.05 -0.01033
19.1 -0.01147
19.15 -0.0163
19.2 -0.02052
19.25 -0.02181
19.3 -0.0226
19.35 -0.0247
19.4 -0.02503
19.45 -0.02075
19.5 -0.01834
19.55 -0.01529
19.6 -0.01247
19.65 -0.00928
19.7 -0.01012
19.75 -0.01207
19.8 -0.01351
19.85 -0.0174
19.9 -0.02083
19.95 -0.02466
20 -0.03021
20.05 -0.0329
20.1 -0.02924
20.15 -0.02726
20.2 -0.02261
20.25 -0.01689
20.3 -0.01618
20.35 -0.01132
20.4 -0.01252
20.45 -0.00992
20.5 -0.0128
20.55 -0.01108
20.6 -0.00741
20.65 -0.0093
20.7 -0.00732
20.75 -0.0097
20.8 -0.01432
20.85 -0.01995
20.9 -0.02105
20.95 -0.01834
21 -0.01288
21.05 -0.00557
21.1 -0.00127
21.15 -0.00257
21.2 -0.00352
21.25 -0.00125
21.3 -0.0036
21.35 -0.0059
21.4 -0.00672
21.45 -0.00641
21.5 -0.00712
21.55 -0.00783
21.6 -0.00887
21.65 -0.01063
21.7 -0.01651
21.75 -0.02046
21.8 -0.02125
21.85 -0.01658
21.9 -0.01272
21.95 -0.01348
22 -0.01628
22.05 -0.01543
22.1 -0.00988
22.15 -0.0085
22.2 -0.00986
22.25 -0.01373
22.3 -0.01863
22.35 -0.01862
22.4 -0.01784
22.45 -0.02129
22.5 -0.02086
22.55 -0.01772
22.6 -0.01274
22.65 -0.01084
22.7 -0.00563
22.75 -0.00171
22.8 0.00376
22.85 0.00752
22.9 0.00496
22.95 0.00139
23 0.00055
23.05 0.0004
23.1 -0.00121
23.15 -0.00415
23.2 -0.00463
23.25 -0.00107
23.3 -0.00393
23.35 -0.00372
23.4 -0.00788
23.45 -0.01515
23.5 -0.02051
23.55 -0.02081
23.6 -0.02147
23.65 -0.01743
23.7 -0.0171
23.75 -0.01246
23.8 -0.01345
23.85 -0.01542
23.9 -0.01663
23.95 -0.01779
24 -0.01691
24.05 -0.01408
24.1 -0.0107
24.15 -0.00921
24.2 -0.00474
24.25 -0.00058
24.3 0.00207
24.35 -0.00031
24.4 -0.0029
24.45 -0.00556
24.5 -0.00341
24.55 -0.0062
24.6 -0.00408
24.65 0.00052
24.7 0.00684
24.75 0.00733
24.8 0.01118
24.85 0.01588
24.9 0.01883
24.95 0.02312
25 0.01932
25.05 0.01536
25.1 0.01037
25.15 0.00633
25.2 0.00653
25.25 0.00757
25.3 0.01117
25.35 0.01551
25.4 0.02086
25.45 0.01892
25.5 0.01297
25.55 0.01187
25.6 0.00985
25.65 0.00705
25.7 0.00716
25.75 0.00287
25.8 -0.00154
25.85 -0.00588
25.9 -0.01215
25.95 -0.01351
26 -0.01797
26.05 -0.02451
26.1 -0.02757
26.15 -0.02723
26.2 -0.02636
26.25 -0.02631
26.3 -0.0261
26.35 -0.02291
26.4 -0.01536
26.45 -0.01012
26.5 -0.00869
26.55 -0.00427
26.6 -0.00564
26.65 -0.00517
26.7 -0.00447
26.75 -0.00565
26.8 -0.00674
26.85 -0.00548
26.9 -0.00767
26.95 -0.01168
27 -0.00978
27.05 -0.01233
27.1 -0.01293
27.15 -0.01684
27.2 -0.01777
27.25 -0.01482
27.3 -0.0172
27.35 -0.01894
27.4 -0.01736
27.45 -0.0152
27.5 -0.01027
27.55 -0.00429
27.6 -0.00721
27.65 -0.01197
27.7 -0.02027
27.75 -0.0237
27.8 -0.03034
27.85 -0.04019
27.9 -0.055
27.95 -0.06393
28 -0.07776
28.05 -0.08806
28.1 -0.10285
28.15 -0.116
28.2 -0.13591
28.25 -0.15675
28.3 -0.17832
28.35 -0.20929
28.4 -0.24219
28.45 -0.27953
28.5 -0.3203
28.55 -0.36054
28.6 -0.40373
28.65 -0.45484
28.7 -0.51531
28.75 -0.58259
28.8 -0.65449
28.85 -0.72634
28.9 -0.8027
28.95 -0.87879
29 -0.9581
29.05 -1.04144
29.1 -1.12699
29.15 -1.21831
29.2 -1.30811
29.25 -1.3932
29.3 -1.47585
29.35 -1.55714
29.4 -1.63448
29.45 -1.71198
29.5 -1.78447
29.55 -1.84949
29.6 -1.90745
29.65 -1.95751
29.7 -1.99411
29.75 -2.02087
29.8 -2.03566
29.85 -2.03415
29.9 -2.02182
29.95 -1.99286
30 -1.9535
30.05 -1.90196
30.1 -1.83854
30.15 -1.75638
30.2 -1.6672
30.25 -1.56338
30.3 -1.45167
30.35 -1.33406
30.4 -1.21221
30.45 -1.07983
30.5 -0.94558
30.55 -0.80483
30.6 -0.65805
30.65 -0.50807
30.7 -0.36287
30.75 -0.21763
30.8 -0.07211
30.85 0.07025
30.9 0.20468
30.95 0.33685
31 0.46514
31.05 0.58517
31.1 0.69598
31.15 0.79678
31.2 0.8878
31.25 0.96929
31.3 1.04316
31.35 1.11547
31.4 1.17981
31.45 1.24088
31.5 1.29636
31.55 1.34647
31.6 1.38761
31.65 1.42595
31.7 1.45837
31.75 1.48365
31.8 1.50891
31.85 1.53301
31.9 1.55689
31.95 1.57848
32 1.59484
32.05 1.60749
32.1 1.61748
32.15 1.61731
32.2 1.61899
32.25 1.62098
32.3 1.62012
32.35 1.61346
32.4 1.605
32.45 1.59702
32.5 1.59174
32.55 1.58619
32.6 1.58104
32.65 1.56586
32.7 1.54575
32.75 1.52773
32.8 1.51295
32.85 1.49954
32.9 1.48018
32.95 1.45988
33 1.44085
33.05 1.41863
33.1 1.39274
33.15 1.36263
33.2 1.32812
33.25 1.29544
33.3 1.2667
33.35 1.23437
33.4 1.20422
33.45 1.17282
33.5 1.14005
33.55 1.10132
33.6 1.06189
33.65 1.023
33.7 0.98786
33.75 0.95348
33.8 0.9208
33.85 0.88208
33.9 0.84052
33.95 0.79755
34 0.75679
34.05 0.71154
34.1 0.67224
34.15 0.62957
34.2 0.58944
34.25 0.54897
34.3 0.51307
34.35 0.48252
34.4 0.45424
34.45 0.42485
34.5 0.39679
34.55 0.36389
34.6 0.32693
34.65 0.29169
34.7 0.2577
34.75 0.22266
34.8 0.19592
34.85 0.16631
34.9 0.14002
34.95 0.11335
35 0.08837
35.05 0.06229
35.1 0.04078
35.15 0.01912
35.2 0.00189
35.25 -0.01438
35.3 -0.03004
35.35 -0.0442
35.4 -0.06192
35.45 -0.07784
35.5 -0.0888
35.55 -0.10112
35.6 -0.1102
35.65 -0.11887
35.7 -0.12926
35.75 -0.14295
35.8 -0.1544
35.85 -0.16779
35.9 -0.18314
35.95 -0.19494
36 -0.20227
36.05 -0.20977
36.1 -0.21411
36.15 -0.22358
36.2 -0.2273
36.25 -0.22899
36.3 -0.22836
36.35 -0.23202
36.4 -0.23217
36.45 -0.23793
36.5 -0.24125
36.55 -0.24781
36.6 -0.2507
36.65 -0.25564
36.7 -0.25901
36.75 -0.26087
36.8 -0.26609
36.85 -0.27234
36.9 -0.27824
36.95 -0.28249
37 -0.28503
37.05 -0.28105
37.1 -0.27501
37.15 -0.27237
37.2 -0.26724
37.25 -0.26189
37.3 -0.25869
37.35 -0.25786
37.4 -0.25792
37.45 -0.25432
37.5 -0.25439
37.55 -0.25776
37.6 -0.25645
37.65 -0.25073
37.7 -0.24667
37.75 -0.24768
37.8 -0.24763
37.85 -0.25013
37.9 -0.24563
37.95 -0.2382
38 -0.2288
38.05 -0.2221
38.1 -0.21537
38.15 -0.2105
38.2 -0.20461
38.25 -0.20386
38.3 -0.2083
38.35 -0.20989
38.4 -0.21386
38.45 -0.21634
38.5 -0.2178
38.55 -0.21533
38.6 -0.21565
38.65 -0.21675
38.7 -0.21525
38.75 -0.2134
38.8 -0.2052
38.85 -0.19631
38.9 -0.18591
38.95 -0.17795
39 -0.16808
39.05 -0.16251
39.1 -0.15553
39.15 -0.15622
39.2 -0.16073
39.25 -0.16511
39.3 -0.16896
39.35 -0.16998
39.4 -0.16868
39.45 -0.16953
39.5 -0.17009
39.55 -0.16748
39.6 -0.16138
39.65 -0.15516
39.7 -0.15221
39.75 -0.1471
39.8 -0.14059
39.85 -0.13597
39.9 -0.13011
39.95 -0.1218
40 -0.11428
40.05 -0.1073
40.1 -0.10381
40.15 -0.10671
40.2 -0.10772
40.25 -0.11326
40.3 -0.11349
40.35 -0.1105
40.4 -0.10756
40.45 -0.10625
40.5 -0.10904
40.55 -0.11049
40.6 -0.10666
40.65 -0.10633
40.7 -0.10737
40.75 -0.10546
40.8 -0.10653
40.85 -0.10548
40.9 -0.10268
40.95 -0.09944
41 -0.09348
41.05 -0.08666
41.1 -0.0797
41.15 -0.07754
41.2 -0.07941
41.25 -0.08532
41.3 -0.08565
41.35 -0.08114
41.4 -0.07669
41.45 -0.07688
41.5 -0.07348
41.55 -0.07287
41.6 -0.071
41.65 -0.0657
41.7 -0.05898
41.75 -0.05186
41.8 -0.04952
41.85 -0.05061
41.9 -0.05609
41.95 -0.06075
42 -0.06201
42.05 -0.06515
42.1 -0.06837
42.15 -0.07462
42.2 -0.07502
42.25 -0.07083
42.3 -0.0682
42.35 -0.06673
42.4 -0.06418
42.45 -0.06531
42.5 -0.06267
42.55 -0.06141
42.6 -0.06253
42.65 -0.06229
42.7 -0.0625
42.75 -0.06116
42.8 -0.0633
42.85 -0.05937
42.9 -0.05733
42.95 -0.05479
43 -0.05339
43.05 -0.05179
43.1 -0.04607
43.15 -0.04442
43.2 -0.04106
43.25 -0.03902
43.3 -0.03655
43.35 -0.03525
43.4 -0.03586
43.45 -0.04137
43.5 -0.04563
43.55 -0.04464
43.6 -0.04873
43.65 -0.05496
43.7 -0.05453
43.75 -0.05646
43.8 -0.0562
43.85 -0.0513
43.9 -0.04888
43.95 -0.04466
44 -0.04205
44.05 -0.04387
44.1 -0.04582
44.15 -0.04757
44.2 -0.05056
44.25 -0.04707
44.3 -0.0408
44.35 -0.03582
44.4 -0.03065
44.45 -0.03073
44.5 -0.03243
44.55 -0.0354
44.6 -0.03279
44.65 -0.03125
44.7 -0.02636
44.75 -0.02207
44.8 -0.01658
44.85 -0.00983
44.9 -0.00608
44.95 -0.00801
45 -0.01283
45.05 -0.01631
45.1 -0.01657
45.15 -0.01386
45.2 -0.01107
45.25 -0.00939
45.3 -0.01358
45.35 -0.01575
45.4 -0.02164
45.45 -0.02519
45.5 -0.03168
45.55 -0.03463
45.6 -0.03519
45.65 -0.03773
45.7 -0.03913
45.75 -0.0421
45.8 -0.0457
45.85 -0.04948
45.9 -0.04884
45.95 -0.04697
46 -0.04298
46.05 -0.03768
46.1 -0.03227
46.15 -0.02558
46.2 -0.02373
46.25 -0.02165
46.3 -0.02054
46.35 -0.01576
46.4 -0.00888
46.45 -0.00625
46.5 -0.00705
46.55 -0.01116
46.6 -0.01246
46.65 -0.0175
46.7 -0.02192
46.75 -0.01975
46.8 -0.01657
46.85 -0.01098
46.9 -0.00687
46.95 -0.00829
47 -0.01185
47.05 -0.01465
47.1 -0.01341
47.15 -0.01174
47.2 -0.00953
47.25 -0.00576
47.3 -0.00441
47.35 -0.00196
47.4 0.0015
47.45 -0.00068
47.5 -0.0025
47.55 -0.0089
47.6 -0.00968
47.65 -0.00849
47.7 -0.00879
47.75 -0.00575
47.8 -0.0027
47.85 0.0006
47.9 0.00598
47.95 0.00863
48 0.00869
48.05 0.0026
48.1 -0.00071
48.15 -0.0003
48.2 0.00156
48.25 0.00186
48.3 -0.00276
48.35 -0.01049
48.4 -0.01658
48.45 -0.0201
48.5 -0.02443
48.55 -0.02188
48.6 -0.02296
48.65 -0.02254
48.7 -0.02496
48.75 -0.02313
48.8 -0.02509
48.85 -0.02449
48.9 -0.02437
48.95 -0.02565
49 -0.02912
49.05 -0.03438
49.1 -0.03498
49.15 -0.03088
49.2 -0.02572
49.25 -0.02434
49.3 -0.02578
49.35 -0.02202
49.4 -0.01567
49.45 -0.01165
49.5 -0.01019
49.55 -0.00504
49.6 -0.00264
49.65 -0.00082
49.7 -0.00189
49.75 -0.00319
49.8 -0.00781
49.85 -0.00819
49.9 -0.00967
49.95 -0.01183
50 -0.01227
50.05 -0.01199
50.1 -0.01391
50.15 -0.01346
50.2 -0.0131
50.25 -0.00886
50.3 -0.00619
50.35 -0.00345
50.4 -0.005
50.45 -0.00546
50.5 -0.00651
50.55 -0.0033
50.6 -0.0005
50.65 -0.00335
50.7 -0.00912
50.75 -0.01468
50.8 -0.01367
50.85 -0.01196
50.9 -0.00558
50.95 0.00025
51 0.00306
51.05 0.00605
51.1 0.00325
51.15 0.00133
51.2 -0.00113
51.25 -0.00112
51.3 -0.00247
51.35 -0.00127
51.4 0.00003
51.45 -0.00001
51.5 0.00343
51.55 0.0051
51.6 0.00786
51.65 0.00835
51.7 0.00636
51.75 0.00269
51.8 0.00316
51.85 0.00425
51.9 -0.00007
51.95 0.00141
52 0.00427
52.05 0.00509
52.1 0.00944
52.15 0.0126
52.2 0.01121
52.25 0.01312
52.3 0.01354
52.35 0.00916
52.4 0.00298
52.45 0.0001
52.5 -0.00192
52.55 -0.00074
52.6 -0.00306
52.65 -0.00093
52.7 0.00373
52.75 0.00917
52.8 0.01162
52.85 0.00978
52.9 0.01024
52.95 0.01369
53 0.01592
53.05 0.01688
53.1 0.01156
53.15 0.003
53.2 -0.0052
53.25 -0.0101
53.3 -0.01446
53.35 -0.0209
53.4 -0.02239
53.45 -0.02289
53.5 -0.01786
53.55 -0.01248
53.6 -0.00452
53.65 -0.00064
53.7 -0.00198
53.75 0.00027
53.8 0.00082
53.85 0.00064
53.9 0.00221
53.95 0.00242
54 0.00149
54.05 -0.00417
54.1 -0.00967
54.15 -0.01457
54.2 -0.01674
54.25 -0.01701
54.3 -0.01894
54.35 -0.0219
54.4 -0.02325
54.45 -0.02173
54.5 -0.01867
54.55 -0.01611
54.6 -0.01635
54.65 -0.01709
54.7 -0.01482
54.75 -0.01182
54.8 -0.00749
54.85 -0.00586
54.9 -0.00546
54.95 -0.00698
55 -0.00788
55.05 -0.0099
55.1 -0.01332
55.15 -0.01722
55.2 -0.01365
55.25 -0.01052
55.3 -0.00659
55.35 0.00076
55.4 0.0078
55.45 0.00684
55.5 0.00208
55.55 -0.00267
55.6 -0.00316
55.65 -0.00621
55.7 -0.01006
55.75 -0.00859
55.8 -0.01159
55.85 -0.0164
55.9 -0.02044
55.95 -0.02015
56 -0.01457
56.05 -0.00995
56.1 -0.00887
56.15 -0.00559
56.2 0.00034
56.25 0.00085
56.3 -0.00338
56.35 -0.00539
56.4 -0.00499
56.45 -0.00692
56.5 -0.0096
56.55 -0.00888
56.6 -0.0078
56.65 -0.00293
56.7 0.00273
56.75 0.00724
56.8 0.01289
56.85 0.01211
56.9 0.00646
56.95 0.00607
57 0.00804
57.05 0.01005
57.1 0.007
57.15 0.00155
57.2 -0.00101
57.25 0.00157
57.3 -0.00001
57.35 -0.00224
57.4 -0.00374
57.45 -0.00292
57.5 -0.00539
57.55 -0.00444
57.6 0.00119
57.65 0.0041
57.7 0.00871
57.75 0.0114
57.8 0.01164
57.85 0.01329
57.9 0.01549
57.95 0.01825
58 0.0164
58.05 0.01715
58.1 0.01441
58.15 0.0107
58.2 0.00957
58.25 0.01217
58.3 0.01558
58.35 0.0152
58.4 0.0123
58.45 0.00765
58.5 0.00332
58.55 -0.00156
58.6 -0.00388
58.65 -0.00746
58.7 -0.005
58.75 -0.00768
58.8 -0.00918
58.85 -0.01188
58.9 -0.01207
58.95 -0.01017
59 -0.00711
59.05 -0.00794
59.1 -0.00879
59.15 -0.00664
59.2 -0.00059
59.25 0.00132
59.3 -0.00236
59.35 -0.00891
59.4 -0.01617
59.45 -0.01484
59.5 -0.01474
59.55 -0.01822
59.6 -0.017
59.65 -0.01036
59.7 -0.00117
59.75 0.00332
59.8 0.00843
59.85 0.01461
59.9 0.0152
59.95 0.01501
60 0.0115
60.05 0.00473
60.1 0.00342
60.15 0.00192
60.2 0.00305
60.25 0.00226
60.3 -0.00241
60.35 -0.00952
60.4 -0.00976
60.45 -0.0058
60.5 -0.00147
60.55 0.00067
60.6 0.00186
60.65 0.00142
60.7 0.00143
60.75 0.00543
60.8 0.00912
60.85 0.01152
60.9 0.01004
60.95 0.0102
61 0.01251
61.05 0.01335
61.1 0.00871
61.15 0.00051
61.2 -0.00542
61.25 -0.01019
61.3 -0.01555
61.35 -0.01522
61.4 -0.01446
61.45 -0.00912
61.5 -0.00169
61.55 0.00457
61.6 0.00412
61.65 0.00411
61.7 0.00301
61.75 0.00526
61.8 0.00529
61.85 0.00359
61.9 0.00592
61.95 0.00561
62 0.0067
62.05 0.00869
62.1 0.00978
62.15 0.00933
62.2 0.01125
62.25 0.0157
62.3 0.01308
62.35 0.00876
62.4 0.00382
62.45 0.00412
62.5 0.00566
62.55 0.00254
62.6 -0.00159
62.65 -0.0003
62.7 0.00184
62.75 0.00123
62.8 0.00162
62.85 -0.00157
62.9 -0.00155
62.95 0.00273
63 0.00072
63.05 0.00177
63.1 0.00342
63.15 0.00705
63.2 0.00735
63.25 0.00919
63.3 0.00955
63.35 0.00913
63.4 0.01062
63.45 0.00603
63.5 0.00226
63.55 -0.00362
63.6 -0.00438
63.65 -0.00942
63.7 -0.01652
63.75 -0.02171
63.8 -0.02018
63.85 -0.01696
63.9 -0.01183
63.95 -0.00767
64 -0.00562
64.05 -0.00226
64.1 0.00065
64.15 0.00482
64.2 0.01126
64.25 0.01296
64.3 0.0101
64.35 0.00841
64.4 0.00215
64.45 -0.00276
64.5 -0.00134
64.55 0.00195
64.6 0.0058
64.65 0.01084
64.7 0.00804
64.75 0.00544
64.8 0.00158
64.85 -0.00423
64.9 -0.01015
64.95 -0.01232
65 -0.00985
65.05 -0.00977
65.1 -0.00571
65.15 -0.00759
65.2 -0.00485
65.25 -0.00474
65.3 -0.00909
65.35 -0.01123
65.4 -0.01478
65.45 -0.01399
65.5 -0.01096
65.55 -0.00689
65.6 -0.0045
65.65 -0.0066
65.7 -0.00541
65.75 -0.00061
65.8 -0.0007
65.85 -0.00163
65.9 -0.00336
65.95 -0.00075
66 0.00316
66.05 0.00824
66.1 0.01046
66.15 0.00988
66.2 0.01313
66.25 0.0102
66.3 0.0076
66.35 0.00129
66.4 -0.00282
66.45 -0.00743
66.5 -0.01312
66.55 -0.01428
66.6 -0.01839
66.65 -0.02333
66.7 -0.02726
66.75 -0.02959
66.8 -0.0298
66.85 -0.02387
66.9 -0.01533
66.95 -0.01161
67 -0.01098
67.05 -0.01205
67.1 -0.01146
67.15 -0.01428
67.2 -0.01115
67.25 -0.01006
67.3 -0.00686
67.35 0.00027
67.4 0.00905
67.45 0.01282
67.5 0.01066
67.55 0.00813
67.6 0.00639
67.65 0.00583
67.7 0.00589
67.75 0.00611
67.8 0.00663
67.85 0.00793
67.9 0.00779
67.95 0.01138
68 0.01551
68.05 0.01482
68.1 0.01022
68.15 0.00994
68.2 0.01151
68.25 0.01498
68.3 0.0174
68.35 0.01452
68.4 0.00695
68.45 0.00031
68.5 -0.00644
68.55 -0.00814
68.6 -0.0096
68.65 -0.00844
68.7 -0.01145
68.75 -0.01022
68.8 -0.00914
68.85 -0.00412
68.9 -0.00247
68.95 -0.00471
69 -0.00524
69.05 -0.00732
69.1 -0.01179
69.15 -0.01236
69.2 -0.01506
69.25 -0.01969
69.3 -0.02251
69.35 -0.01949
69.4 -0.01403
69.45 -0.0105
69.5 -0.01046
69.55 -0.0077
69.6 -0.00332
69.65 -0.00177
69.7 0.00354
69.75 0.0027
69.8 0.00309
69.85 0.00578
69.9 0.00252
69.95 0.0027
70 0.00086
70.05 0.00237
70.1 0.00213
70.15 0.00413
70.2 0.00179
70.25 -0.00237
70.3 -0.0056
70.35 -0.00918
70.4 -0.01436
70.45 -0.01546
70.5 -0.01208
70.55 -0.01303
70.6 -0.00993
70.65 -0.00293
70.7 -0.00167
70.75 -0.00332
70.8 -0.00636
70.85 -0.00393
70.9 -0.00062
70.95 -0.00219
71 -0.00588
71.05 -0.00391
71.1 0.00228
71.15 0.00747
71.2 0.014
71.25 0.01939
71.3 0.01675
71.35 0.01112
71.4 0.01126
71.45 0.01136
71.5 0.01503
71.55 0.01171
71.6 0.00623
71.65 0.00187
71.7 -0.00475
71.75 -0.01068
71.8 -0.0114
71.85 -0.00919
71.9 -0.00588
71.95 0.00126
72 0.0024
72.05 0.00064
72.1 -0.00088
72.15 0.00172
72.2 0.0075
72.25 0.00875
72.3 0.01213
72.35 0.01317
72.4 0.00801
72.45 0.00873
72.5 0.00974
72.55 0.01131
72.6 0.00889
72.65 0.00805
72.7 0.00402
72.75 0.00239
72.8 0.00524
72.85 0.00796
72.9 0.01306
72.95 0.01963
73 0.01845
73.05 0.0176
73.1 0.01486
73.15 0.01512
73.2 0.01431
73.25 0.01353
73.3 0.00919
73.35 0.00371
73.4 -0.00059
73.45 0.00019
73.5 -0.00259
73.55 -0.00732
73.6 -0.00843
73.65 -0.01336
73.7 -0.01682
73.75 -0.01776
73.8 -0.01468
73.85 -0.01466
73.9 -0.01041
73.95 -0.00725
74 -0.00226
74.05 0.00133
74.1 0.00256
74.15 0.00048
74.2 -0.00303
74.25 -0.00498
74.3 -0.00513
74.35 -0.0094
74.4 -0.01313
74.45 -0.01138
74.5 -0.00551
74.55 0.00061
74.6 0.00228
74.65 -0.00023
74.7 -0.00476
74.75 -0.00693
74.8 -0.00358
74.85 0.00311
74.9 0.0101
74.95 0.01374
75 0.01351
75.05 0.00753
75.1 -0.00077
75.15 -0.01039
75.2 -0.01958
75.25 -0.02133
75.3 -0.01818
75.35 -0.01671
75.4 -0.01116
75.45 -0.00225
75.5 0.00633
75.55 0.00927
75.6 0.015
75.65 0.0146
75.7 0.01651
75.75 0.01256
75.8 0.00419
75.85 -0.00381
75.9 -0.00712
75.95 -0.00497
76 -0.00135
76.05 0.00326
76.1 0.00263
76.15 0.00289
76.2 -0.00141
76.25 -0.00417
76.3 -0.00339
76.35 0.0016
76.4 0.0062
76.45 0.00858
76.5 0.01053
76.55 0.00718
76.6 0.0059
76.65 0.00686
76.7 0.01133
76.75 0.01049
76.8 0.00593
76.85 0.00616
76.9 0.00996
76.95 0.01254
77 0.01722
77.05 0.02163
77.1 0.01801
77.15 0.01795
77.2 0.01571
77.25 0.01471
77.3 0.01558
77.35 0.00986
77.4 0.00722
77.45 0.00574
77.5 0.00591
77.55 0.00585
77.6 0.00427
77.65 0.00648
77.7 0.00569
77.75 0.00012
77.8 -0.00718
77.85 -0.01479
77.9 -0.01962
77.95 -0.01785
78 -0.01645
78.05 -0.01132
78.1 -0.00318
78.15 -0.00048
78.2 0.00511
78.25 0.01161
78.3 0.01455
78.35 0.01176
78.4 0.00477
78.45 -0.00307
78.5 -0.00903
78.55 -0.01619
78.6 -0.02271
78.65 -0.02952
78.7 -0.03356
78.75 -0.03754
78.8 -0.03504
78.85 -0.03014
78.9 -0.02439
78.95 -0.01563
79 -0.01297
79.05 -0.01102
79.1 -0.00641
79.15 -0.00356
79.2 -0.0033
79.25 -0.00279
79.3 -0.00348
79.35 -0.00451
79.4 -0.00776
79.45 -0.00746
79.5 -0.00399
79.55 -0.00103
79.6 -0.00129
79.65 -0.00216
79.7 -0.00152
79.75 -0.00263
79.8 -0.00511
79.85 -0.00966
79.9 -0.01497
79.95 -0.01774
80 -0.01536
80.05 -0.01549
80.1 -0.01823
80.15 -0.01602
80.2 -0.01273
80.25 -0.00785
80.3 -0.00266
80.35 0.00071
80.4 0.00574
80.45 0.00458
80.5 0.00099
80.55 0.00095
80.6 0.00329
80.65 -0.00013
80.7 0.00192
80.75 0.00663
80.8 0.01022
80.85 0.00821
80.9 0.00292
80.95 0.00199
81 0.00605
81.05 0.01108
81.1 0.01103
81.15 0.00993
81.2 0.00513
81.25 -0.0006
81.3 -0.00656
81.35 -0.0066
81.4 -0.00293
81.45 -0.00361
81.5 -0.00802
81.55 -0.01244
81.6 -0.01298
81.65 -0.01371
81.7 -0.0082
81.75 -0.00337
81.8 0.00237
81.85 0.00406
81.9 0.00732
81.95 0.00587
82 0.00097
82.05 -0.00019
82.1 -0.00472
82.15 -0.00732
82.2 -0.00651
82.25 -0.0015
82.3 0.00595
82.35 0.01013
82.4 0.01034
82.45 0.01377
82.5 0.01951
82.55 0.01902
82.6 0.02133
82.65 0.01674
82.7 0.01664
82.75 0.01536
82.8 0.01165
82.85 0.01141
82.9 0.01364
82.95 0.01141
83 0.00794
83.05 0.00826
83.1 0.00471
83.15 0.00237
83.2 -0.00083
83.25 -0.0075
83.3 -0.01463
83.35 -0.01969
83.4 -0.02395
83.45 -0.02655
83.5 -0.02626
83.55 -0.02471
83.6 -0.01915
83.65 -0.01426
83.7 -0.01108
83.75 -0.01201
83.8 -0.01244
83.85 -0.00867
83.9 -0.00141
83.95 0.00566
84 0.01156
84.05 0.01865
84.1 0.01748
84.15 0.01323
84.2 0.01074
84.25 0.00769
84.3 0.00813
84.35 0.00488
84.4 0.00036
84.45 -0.00534
84.5 -0.00777
84.55 -0.01035
84.6 -0.0103
84.65 -0.00513
84.7 0.00277
84.75 0.01197
84.8 0.01372
84.85 0.01233
84.9 0.01037
84.95 0.00957
85 0.00823
85.05 0.00288
85.1 -0.00096
85.15 -0.00432
85.2 -0.00279
85.25 0.00144
85.3 0.00714
85.35 0.01145
85.4 0.01412
85.45 0.0163
85.5 0.01708
85.55 0.01677
85.6 0.01931
85.65 0.02082
85.7 0.01532
85.75 0.00966
85.8 0.00828
85.85 0.00606
85.9 -0.00057
85.95 -0.00727
86 -0.00899
86.05 -0.01028
86.1 -0.00883
86.15 -0.00738
86.2 -0.00209
86.25 0.00399
86.3 0.0083
86.35 0.00794
86.4 0.0033
86.45 -0.00078
86.5 -0.00446
86.55 -0.00972
86.6 -0.01107
86.65 -0.00822
86.7 -0.00758
86.75 -0.00577
86.8 -0.00629
86.85 -0.00541
86.9 -0.00606
86.95 -0.00704
87 -0.01177
87.05 -0.01627
87.1 -0.01881
87.15 -0.01888
87.2 -0.01866
87.25 -0.01304
87.3 -0.01281
87.35 -0.01491
87.4 -0.0135
87.45 -0.01314
87.5 -0.01101
87.55 -0.00881
87.6 -0.0021
87.65 -0.00062
87.7 0.00376
87.75 0.00797
87.8 0.00878
87.85 0.00742
87.9 0.00555
87.95 -0.00078
88 -0.00232
88.05 -0.00058
88.1 -0.00279
88.15 -0.00635
88.2 -0.01172
88.25 -0.01771
88.3 -0.0184
88.35 -0.02043
88.4 -0.01789
88.45 -0.0167
88.5 -0.01135
88.55 -0.01032
88.6 -0.00821
88.65 -0.00485
88.7 -0.00508
88.75 -0.00168
88.8 0.00062
88.85 0.00536
88.9 0.01271
88.95 0.0121
89 0.01484
89.05 0.01509
89.1 0.01095
89.15 0.01038
89.2 0.00945
89.25 0.01005
89.3 0.01242
89.35 0.0097
89.4 0.00327
89.45 0.00057
89.5 0.00228
89.55 0.00164
89.6 0.00545
89.65 0.00266
89.7 0.00361
89.75 0.00457
89.8 0.00755
89.85 0.00755
89.9 0.00939
89.95 0.01052
90 0.01178
90.05 0.01266
90.1 0.01101
90.15 0.01119
90.2 0.01086
90.25 0.00718
90.3 0.00866
90.35 0.0046
90.4 0.00262
90.45 -0.00095
90.5 0.00063
90.55 -0.00131
90.6 0.00092
90.65 -0.00037
90.7 -0.00314
90.75 -0.00448
90.8 -0.00194
90.85 0.00314
90.9 0.00974
90.95 0.0166
91 0.01791
91.05 0.01371
91.1 0.01199
91.15 0.00682
91.2 -0.00031
91.25 -0.0013
91.3 -0.00355
91.35 -0.00664
91.4 -0.01048
91.45 -0.00794
91.5 -0.00837
91.55 -0.00646
91.6 -0.00926
91.65 -0.01266
91.7 -0.01153
91.75 -0.01422
91.8 -0.01417
91.85 -0.01709
91.9 -0.02228
91.95 -0.01975
92 -0.01503
92.05 -0.01102
92.1 -0.00506
92.15 0.00351
92.2 0.00474
92.25 0.00956
92.3 0.01384
92.35 0.01074
92.4 0.00733
92.45 0.00585
92.5 0.00298
92.55 0.0047
92.6 0.00843
92.65 0.01108
92.7 0.00941
92.75 0.00921
92.8 0.01065
92.85 0.01041
92.9 0.01335
92.95 0.01299
93 0.01056
93.05 0.01187
93.1 0.0073
93.15 0.00606
93.2 0.00797
93.25 0.012
93.3 0.01689
93.35 0.0138
93.4 0.006
93.45 -0.00424
93.5 -0.0146
93.55 -0.02432
93.6 -0.03283
93.65 -0.03397
93.7 -0.03341
93.75 -0.02854
93.8 -0.02162
93.85 -0.01895
93.9 -0.01163
93.95 -0.00694
94 -0.00534
94.05 -0.00183
94.1 -0.00055
94.15 -0.00345
94.2 -0.00915
94.25 -0.01448
94.3 -0.01439
94.35 -0.01161
94.4 -0.00807
94.45 -0.00413
94.5 -0.0006
94.55 -0.00298
94.6 -0.00788
94.65 -0.00735
94.7 -0.00347
94.75 -0.00451
94.8 -0.00824
94.85 -0.0105
94.9 -0.00721
94.95 0.00026
95 0.00507
95.05 0.00876
95.1 0.00678
95.15 0.00515
95.2 0.00008
95.25 -0.00393
95.3 -0.00542
95.35 -0.00989
95.4 -0.0109
95.45 -0.00666
95.5 -0.00636
95.55 -0.00315
95.6 -0.00278
95.65 -0.00324
95.7 -0.00032
95.75 -0.00127
95.8 -0.00461
95.85 -0.00277
95.9 0.00215
95.95 0.00657
96 0.01326
96.05 0.01669
96.1 0.02124
96.15 0.02116
96.2 0.01836
96.25 0.0181
96.3 0.01282
96.35 0.00903
96.4 0.00186
96.45 -0.00219
96.5 -0.00731
96.55 -0.01185
96.6 -0.0097
96.65 -0.00409
96.7 0.00365
96.75 0.00419
96.8 0.00351
96.85 0.00471
96.9 0.0081
96.95 0.00882
97 0.00812
97.05 0.01007
97.1 0.01034
97.15 0.00737
97.2 0.00088
97.25 -0.00141
97.3 -0.00064
97.35 0.00334
97.4 0.00927
97.45 0.01252
97.5 0.00952
97.55 0.01094
97.6 0.01323
97.65 0.01765
97.7 0.01667
97.75 0.01757
97.8 0.01786
97.85 0.01281
97.9 0.00853
97.95 0.00629
98 0.00522
98.05 0.00451
98.1 0.008
98.15 0.00607
98.2 0.00223
98.25 0.00007
98.3 -0.00395
98.35 -0.0098
98.4 -0.01063
98.45 -0.00825
98.5 -0.0035
98.55 -0.00132
98.6 -0.00139
98.65 0.00182
98.7 -0.00038
98.75 0.00248
98.8 0.00159
98.85 0.00419
98.9 0.00737
98.95 0.00735
99 0.00845
99.05 0.00691
99.1 0.00388
99.15 -0.00298
99.2 -0.00429
99.25 -0.00769
99.3 -0.01229
99.35 -0.01827
99.4 -0.02351
99.45 -0.02474
99.5 -0.02502
99.55 -0.02242
99.6 -0.02349
99.65 -0.02463
99.7 -0.02143
99.75 -0.01515
99.8 -0.00944
99.85 -0.00344
99.9 -0.00191
99.95 0.00119
