0 0
0.05 0.00838
0.1 0.02057
0.15 0.03248
0.2 0.04635
0.25 0.05511
0.3 0.0622
0.35 0.06569
0.4 0.0672
0.45 0.06851
0.5 0.06647
0.55 0.06037
0.6 0.05445
0.65 0.05401
0.7 0.05667
0.75 0.05572
0.8 0.05653
0.85 0.05698
0.9 0.05191
0.95 0.04472
1 0.04006
1.05 0.03904
1.1 0.04104
1.15 0.03802
1.2 0.03552
1.25 0.03347
1.3 0.03003
1.35 0.03234
1.4 0.03523
1.45 0.03755
1.5 0.04319
1.55 0.04619
1.6 0.04302
1.65 0.04444
1.7 0.04796
1.75 0.04523
1.8 0.04577
1.85 0.04366
1.9 0.03658
1.95 0.03
2 0.02509
2.05 0.01802
2.1 0.0123
2.15 0.00593
2.2 0.00346
2.25 0.00582
2.3 0.0131
2.35 0.02225
2.4 0.02455
2.45 0.02628
2.5 0.02757
2.55 0.0257
2.6 0.02435
2.65 0.01972
2.7 0.01417
2.75 0.01065
2.8 0.0071
2.85 0.00983
2.9 0.00818
2.95 0.01188
3 0.01106
3.05 0.01371
3.1 0.01914
3.15 0.0222
3.2 0.02135
3.25 0.02189
3.3 0.02029
3.35 0.01673
3.4 0.01601
3.45 0.02004
3.5 0.0184
3.55 0.01749
3.6 0.0188
3.65 0.01558
3.7 0.01745
3.75 0.01819
3.8 0.01649
3.85 0.02014
3.9 0.02049
3.95 0.01634
4 0.01469
4.05 0.01446
4.1 0.01169
4.15 0.00819
4.2 0.00263
4.25 0.00013
4.3 -0.00104
4.35 -0.00309
4.4 -0.00728
4.45 -0.01166
4.5 -0.01589
4.55 -0.02242
4.6 -0.03605
4.65 -0.05303
4.7 -0.06992
4.75 -0.08844
4.8 -0.11204
4.85 -0.13738
4.9 -0.17129
4.95 -0.20874
5 -0.24482
5.05 -0.28545
5.1 -0.33678
5.15 -0.39676
5.2 -0.46194
5.25 -0.53358
5.3 -0.60986
5.35 -0.69219
5.4 -0.77562
5.45 -0.86198
5.5 -0.95197
5.55 -1.04116
5.6 -1.13704
5.65 -1.23651
5.7 -1.33687
5.75 -1.43669
5.8 -1.53418
5.85 -1.62978
5.9 -1.71738
5.95 -1.80514
6 -1.88486
6.05 -1.95788
6.1 -2.03401
6.15 -2.10946
6.2 -2.17725
6.25 -2.24083
6.3 -2.29617
6.35 -2.35138
6.4 -2.39953
6.45 -2.43841
6.5 -2.46654
6.55 -2.48962
6.6 -2.50566
6.65 -2.51056
6.7 -2.50235
6.75 -2.47772
6.8 -2.4364
6.85 -2.38246
6.9 -2.31438
6.95 -2.23447
7 -2.14083
7.05 -2.02766
7.1 -1.89329
7.15 -1.74387
7.2 -1.57892
7.25 -1.40553
7.3 -1.22521
7.35 -1.03403
7.4 -0.83978
7.45 -0.64036
7.5 -0.43226
7.55 -0.22088
7.6 -0.01449
7.65 0.18822
7.7 0.38375
7.75 0.57469
7.8 0.7607
7.85 0.93921
7.9 1.10279
7.95 1.2571
8 1.39417
8.05 1.5218
8.1 1.6331
8.15 1.73477
8.2 1.82673
8.25 1.90402
8.3 1.97588
8.35 2.0322
8.4 2.07775
8.45 2.1211
8.5 2.15659
8.55 2.18406
8.6 2.20467
8.65 2.21917
8.7 2.22534
8.75 2.22906
8.8 2.23281
8.85 2.23047
8.9 2.22098
8.95 2.21386
9 2.19996
9.05 2.18484
9.1 2.16883
9.15 2.14946
9.2 2.12982
9.25 2.10897
9.3 2.09056
9.35 2.06781
9.4 2.04591
9.45 2.02636
9.5 2.00535
9.55 1.98532
9.6 1.96652
9.65 1.94159
9.7 1.91121
9.75 1.88365
9.8 1.85436
9.85 1.82001
9.9 1.78393
9.95 1.75132
10 1.71621
10.05 1.67602
10.1 1.63176
10.15 1.58714
10.2 1.5417
10.25 1.50029
10.3 1.46062
10.35 1.41857
10.4 1.37428
10.45 1.33368
10.5 1.29485
10.55 1.25671
10.6 1.21774
10.65 1.17614
10.7 1.13128
10.75 1.08449
10.8 1.03205
10.85 0.9771
10.9 0.92225
10.95 0.86624
11 0.81237
11.05 0.75864
11.1 0.70488
11.15 0.65496
11.2 0.60666
11.25 0.56368
11.3 0.52258
11.35 0.48511
11.4 0.44753
11.45 0.41411
11.5 0.37965
11.55 0.34796
11.6 0.31214
11.65 0.27897
11.7 0.24842
11.75 0.21446
11.8 0.17763
11.85 0.14304
11.9 0.11226
11.95 0.07971
12 0.05016
12.05 0.02187
12.1 -0.00617
12.15 -0.03368
12.2 -0.05781
12.25 -0.08413
12.3 -0.1126
12.35 -0.13559
12.4 -0.16051
12.45 -0.1864
12.5 -0.20768
12.55 -0.22165
12.6 -0.23367
12.65 -0.24387
12.7 -0.25567
12.75 -0.27115
12.8 -0.28683
12.85 -0.30268
12.9 -0.31374
12.95 -0.3272
13 -0.33827
13.05 -0.34949
13.1 -0.35517
13.15 -0.36248
13.2 -0.36303
13.25 -0.36073
13.3 -0.35787
13.35 -0.35952
13.4 -0.36477
13.45 -0.36965
13.5 -0.37701
13.55 -0.38557
13.6 -0.38791
13.65 -0.38566
13.7 -0.38031
13.75 -0.3782
13.8 -0.37739
13.85 -0.37234
13.9 -0.36617
13.95 -0.36492
14 -0.35959
14.05 -0.35471
14.1 -0.3514
14.15 -0.34603
14.2 -0.33893
14.25 -0.33723
14.3 -0.33345
14.35 -0.33115
14.4 -0.32629
14.45 -0.32413
14.5 -0.3237
14.55 -0.32645
14.6 -0.32514
14.65 -0.32294
14.7 -0.31748
14.75 -0.31017
14.8 -0.30461
14.85 -0.29957
14.9 -0.29593
14.95 -0.29285
15 -0.29108
15.05 -0.29219
15.1 -0.29553
15.15 -0.29896
15.2 -0.30001
15.25 -0.29597
15.3 -0.29131
15.35 -0.29068
15.4 -0.29016
15.45 -0.28929
15.5 -0.29009
15.55 -0.28444
15.6 -0.27803
15.65 -0.27179
15.7 -0.26875
15.75 -0.26363
15.8 -0.2609
15.85 -0.25459
15.9 -0.25072
15.95 -0.25033
16 -0.24955
16.05 -0.24616
16.1 -0.24366
16.15 -0.23648
16.2 -0.2272
16.25 -0.22214
16.3 -0.21442
16.35 -0.21142
16.4 -0.20704
16.45 -0.20083
16.5 -0.19249
16.55 -0.18291
16.6 -0.17774
16.65 -0.17232
16.7 -0.1678
16.75 -0.16679
16.8 -0.16983
16.85 -0.16816
16.9 -0.16926
16.95 -0.16674
17 -0.16231
17.05 -0.15661
17.1 -0.15082
17.15 -0.14556
17.2 -0.14516
17.25 -0.14449
17.3 -0.144
17.35 -0.14269
17.4 -0.14361
17.45 -0.14462
17.5 -0.14294
17.55 -0.14392
17.6 -0.14177
17.65 -0.14261
17.7 -0.14027
17.75 -0.13832
17.8 -0.13857
17.85 -0.13408
17.9 -0.1324
17.95 -0.13067
18 -0.13184
18.05 -0.13477
18.1 -0.13686
18.15 -0.13191
18.2 -0.1291
18.25 -0.12648
18.3 -0.12182
18.35 -0.12006
18.4 -0.11981
18.45 -0.12055
18.5 -0.12276
18.55 -0.12048
18.6 -0.12064
18.65 -0.12108
18.7 -0.1216
18.75 -0.11541
18.8 -0.11166
18.85 -0.10852
18.9 -0.10226
18.95 -0.09573
19 -0.09106
19.05 -0.08984
19.1 -0.08606
19.15 -0.08534
19.2 -0.08737
19.25 -0.08835
19.3 -0.08689
19.35 -0.08224
19.4 -0.07632
19.45 -0.07359
19.5 -0.07002
19.55 -0.06549
19.6 -0.06093
19.65 -0.05392
19.7 -0.04712
19.75 -0.0422
19.8 -0.04113
19.85 -0.04543
19.9 -0.05103
19.95 -0.05518
20 -0.0623
20.05 -0.06455
20.1 -0.06316
20.15 -0.06573
20.2 -0.06823
20.25 -0.0651
20.3 -0.0656
20.35 -0.06352
20.4 -0.05981
20.45 -0.05812
20.5 -0.05533
20.55 -0.04986
20.6 -0.04678
20.65 -0.04139
20.7 -0.03572
20.75 -0.03593
20.8 -0.03346
20.85 -0.03582
20.9 -0.03392
20.95 -0.03054
21 -0.03409
21.05 -0.03932
21.1 -0.04156
21.15 -0.04334
21.2 -0.04733
21.25 -0.05317
21.3 -0.05663
21.35 -0.05764
21.4 -0.05596
21.45 -0.05376
21.5 -0.0527
21.55 -0.05448
21.6 -0.05656
21.65 -0.05615
21.7 -0.05577
21.75 -0.04929
21.8 -0.04013
21.85 -0.03253
21.9 -0.03097
21.95 -0.03182
22 -0.02914
22.05 -0.03158
22.1 -0.03498
22.15 -0.03615
22.2 -0.03803
22.25 -0.04117
22.3 -0.04174
22.35 -0.04326
22.4 -0.03916
22.45 -0.03232
22.5 -0.02349
22.55 -0.02166
22.6 -0.01835
22.65 -0.01954
22.7 -0.01793
22.75 -0.01436
22.8 -0.01185
22.85 -0.01541
22.9 -0.01573
22.95 -0.01504
23 -0.01784
23.05 -0.01612
23.1 -0.01761
23.15 -0.01894
23.2 -0.01804
23.25 -0.02247
23.3 -0.02142
23.35 -0.02167
23.4 -0.01863
23.45 -0.0202
23.5 -0.01811
23.55 -0.02164
23.6 -0.02431
23.65 -0.02448
23.7 -0.02116
23.75 -0.02205
23.8 -0.02409
23.85 -0.02898
23.9 -0.02695
23.95 -0.02136
24 -0.01818
24.05 -0.01411
24.1 -0.00986
24.15 -0.00625
24.2 -0.00789
24.25 -0.00975
24.3 -0.0152
24.35 -0.01793
24.4 -0.01533
24.45 -0.01104
24.5 -0.01288
24.55 -0.01066
24.6 -0.01389
24.65 -0.01963
24.7 -0.02735
24.75 -0.03537
24.8 -0.03435
24.85 -0.0348
24.9 -0.03641
24.95 -0.03712
25 -0.03984
25.05 -0.03688
25.1 -0.03651
25.15 -0.03618
25.2 -0.02938
25.25 -0.01979
25.3 -0.01538
25.35 -0.00755
25.4 -0.00015
25.45 0.00827
25.5 0.00895
25.55 0.00775
25.6 0.00773
25.65 0.00189
25.7 0.00035
25.75 -0.00038
25.8 0.0025
25.85 0.00429
25.9 0.00843
25.95 0.01
26 0.00654
26.05 0.00022
26.1 -0.00789
26.15 -0.01619
26.2 -0.02537
26.25 -0.02819
26.3 -0.02735
26.35 -0.02172
26.4 -0.01871
26.45 -0.01973
26.5 -0.02274
26.55 -0.02169
26.6 -0.01707
26.65 -0.01585
26.7 -0.01296
26.75 -0.01416
26.8 -0.0138
26.85 -0.01033
26.9 -0.00714
26.95 -0.00833
27 -0.00457
27.05 0.0008
27.1 0.00002
27.15 -0.00455
27.2 -0.01062
27.25 -0.00951
27.3 -0.0068
27.35 -0.00182
27.4 0.00106
27.45 0.00392
27.5 0.00314
27.55 -0.00117
27.6 -0.00156
27.65 -0.00599
27.7 -0.00728
27.75 -0.00817
27.8 -0.00431
27.85 -0.00033
27.9 0.00593
27.95 0.0086
28 0.011
28.05 0.01064
28.1 0.00855
28.15 0.00848
28.2 0.00965
28.25 0.01338
28.3 0.01643
28.35 0.01306
28.4 0.01224
28.45 0.01263
28.5 0.01083
28.55 0.00926
28.6 0.00384
28.65 0.00182
28.7 0.00223
28.75 0.00175
28.8 0.00017
28.85 -0.00447
28.9 -0.01052
28.95 -0.01038
29 -0.01076
29.05 -0.01335
29.1 -0.01866
29.15 -0.02248
29.2 -0.02656
29.25 -0.02922
29.3 -0.02543
29.35 -0.02209
29.4 -0.02091
29.45 -0.02214
29.5 -0.02236
29.55 -0.02404
29.6 -0.02309
29.65 -0.01818
29.7 -0.01264
29.75 -0.00632
29.8 0.00154
29.85 0.00511
29.9 0.00513
29.95 0.00047
30 -0.00514
30.05 -0.00633
30.1 -0.00491
30.15 -0.00206
30.2 -0.00365
30.25 -0.00564
30.3 -0.00746
30.35 -0.00888
30.4 -0.01177
30.45 -0.01627
30.5 -0.01431
30.55 -0.01447
30.6 -0.01684
30.65 -0.0199
30.7 -0.01871
30.75 -0.0159
30.8 -0.01118
30.85 -0.00958
30.9 -0.01132
30.95 -0.01296
31 -0.00929
31.05 -0.0022
31.1 0.00511
31.15 0.00692
31.2 0.01103
31.25 0.01392
31.3 0.01688
31.35 0.01619
31.4 0.01722
31.45 0.01692
31.5 0.01225
31.55 0.00794
31.6 0.00482
31.65 0.00674
31.7 0.00498
31.75 0.00372
31.8 0.00419
31.85 0.00228
31.9 -0.00189
31.95 -0.00791
32 -0.00786
32.05 -0.01012
32.1 -0.01434
32.15 -0.01493
32.2 -0.01056
32.25 -0.00921
32.3 -0.01081
32.35 -0.01354
32.4 -0.01312
32.45 -0.01192
32.5 -0.01236
32.55 -0.01168
32.6 -0.00789
32.65 -0.00204
32.7 0.00281
32.75 0.00967
32.8 0.01697
32.85 0.02456
32.9 0.02545
32.95 0.02251
33 0.01805
33.05 0.00999
33.1 0.00413
33.15 0.00223
33.2 0.00025
33.25 -0.00069
33.3 -0.00234
33.35 -0.0066
33.4 -0.00791
33.45 -0.00541
33.5 -0.00699
33.55 -0.0101
33.6 -0.01157
33.65 -0.00965
33.7 -0.00731
33.75 -0.00256
33.8 0.00454
33.85 0.00675
33.9 0.00448
33.95 0.00026
34 -0.00134
34.05 -0.00074
34.1 0.00054
34.15 0.00202
34.2 -0.00118
34.25 -0.00096
34.3 -0.00084
34.35 0.00314
34.4 0.00544
34.45 0.00212
34.5 -0.002
34.55 -0.00601
34.6 -0.00616
34.65 -0.00712
34.7 -0.00463
34.75 -0.00462
34.8 -0.00255
34.85 0.00155
34.9 0.00083
34.95 -0.00084
35 0.00065
35.05 0.00346
35.1 0.00854
35.15 0.01204
35.2 0.01068
35.25 0.00692
35.3 0.00741
35.35 0.00727
35.4 0.01069
35.45 0.00888
35.5 0.00603
35.55 0.0074
35.6 0.00573
35.65 0.00646
35.7 0.00937
35.75 0.01049
35.8 0.00775
35.85 0.00568
35.9 0.0079
35.95 0.01277
36 0.01244
36.05 0.00874
36.1 0.0072
36.15 0.00677
36.2 0.00816
36.25 0.01016
36.3 0.01121
36.35 0.00642
36.4 -0.00041
36.45 -0.00862
36.5 -0.01766
36.55 -0.02283
36.6 -0.02375
36.65 -0.02029
36.7 -0.01673
36.75 -0.00962
36.8 -0.00082
36.85 0.00453
36.9 0.01133
36.95 0.01629
37 0.02105
37.05 0.02467
37.1 0.02269
37.15 0.02362
37.2 0.01786
37.25 0.0117
37.3 0.00624
37.35 0.00126
37.4 0.00025
37.45 0.00108
37.5 -0.00077
37.55 0.00089
37.6 0.00235
37.65 0.00287
37.7 0.00645
37.75 0.00403
37.8 -0.00088
37.85 -0.00547
37.9 -0.01149
37.95 -0.0179
38 -0.02012
38.05 -0.02391
38.1 -0.02095
38.15 -0.01851
38.2 -0.01548
38.25 -0.0089
38.3 -0.00299
38.35 0.00353
38.4 0.00837
38.45 0.01183
38.5 0.01536
38.55 0.01857
38.6 0.01937
38.65 0.0158
38.7 0.01512
38.75 0.01757
38.8 0.01439
38.85 0.01278
38.9 0.0084
38.95 0.00796
39 0.00797
39.05 0.00565
39.1 0.00659
39.15 0.00571
39.2 0.00087
39.25 -0.0014
39.3 -0.00004
39.35 -0.0043
39.4 -0.0054
39.45 -0.00981
39.5 -0.01101
39.55 -0.016
39.6 -0.01428
39.65 -0.00998
39.7 -0.00995
39.75 -0.0121
39.8 -0.01623
39.85 -0.02134
39.9 -0.02155
39.95 -0.02458
40 -0.02905
40.05 -0.03427
40.1 -0.03642
40.15 -0.0347
40.2 -0.03172
40.25 -0.02629
40.3 -0.01712
40.35 -0.00595
40.4 -0.00063
40.45 -0.00184
40.5 -0.00497
40.55 -0.00754
40.6 -0.00642
40.65 -0.00231
40.7 0.00058
40.75 0.00042
40.8 0.0003
40.85 -0.00317
40.9 -0.00187
40.95 -0.00055
41 0.00228
41.05 0.00368
41.1 0.00005
41.15 -0.00368
41.2 -0.00368
41.25 -0.00686
41.3 -0.01044
41.35 -0.00975
41.4 -0.01232
41.45 -0.01417
41.5 -0.01279
41.55 -0.01297
41.6 -0.01281
41.65 -0.01548
41.7 -0.01987
41.75 -0.01691
41.8 -0.01448
41.85 -0.01311
41.9 -0.01206
41.95 -0.0145
42 -0.01258
42.05 -0.01343
42.1 -0.0137
42.15 -0.01483
42.2 -0.01323
42.25 -0.00689
42.3 -0.00373
42.35 -0.00506
42.4 -0.00877
42.45 -0.01316
42.5 -0.01711
42.55 -0.01963
42.6 -0.01671
42.65 -0.01521
42.7 -0.01497
42.75 -0.00929
42.8 -0.00843
42.85 -0.00223
42.9 0.0007
42.95 -0.0009
43 -0.00049
43.05 0.00207
43.1 0.00518
43.15 0.00705
43.2 0.00656
43.25 0.00378
43.3 0.00622
43.35 0.0066
43.4 0.00235
43.45 0.00057
43.5 -0.00366
43.55 -0.00208
43.6 0.00164
43.65 0.00797
43.7 0.01029
43.75 0.01044
43.8 0.00998
43.85 0.00546
43.9 0.00267
43.95 0.00247
44 0.00161
44.05 0.00412
44.1 0.00787
44.15 0.00643
44.2 0.00637
44.25 0.00181
44.3 -0.00375
44.35 -0.01108
44.4 -0.01702
44.45 -0.02352
44.5 -0.02938
44.55 -0.03103
44.6 -0.03308
44.65 -0.02814
44.7 -0.02344
44.75 -0.01814
44.8 -0.01286
44.85 -0.00641
44.9 0.00152
44.95 0.00395
45 0.00317
45.05 0.00145
45.1 0.00217
45.15 0.00562
45.2 0.00603
45.25 0.00788
45.3 0.01161
45.35 0.01679
45.4 0.02099
45.45 0.02022
45.5 0.02109
45.55 0.01757
45.6 0.01211
45.65 0.00848
45.7 0.00673
45.75 0.002
45.8 0.00252
45.85 -0.00083
45.9 -0.00233
45.95 -0.00192
46 -0.00317
46.05 -0.00779
46.1 -0.01423
46.15 -0.01532
46.2 -0.01014
46.25 -0.00307
46.3 -0.00218
46.35 0.00024
46.4 0.00322
46.45 0.00353
46.5 0.00586
46.55 0.0036
46.6 0.00219
46.65 0.00601
46.7 0.00699
46.75 0.0059
46.8 0.0062
46.85 0.00464
46.9 0.00111
46.95 -0.00526
47 -0.00461
47.05 -0.00539
47.1 -0.00396
47.15 -0.0015
47.2 0.00208
47.25 0.00909
47.3 0.01304
47.35 0.01076
47.4 0.01139
47.45 0.01181
47.5 0.00931
47.55 0.00601
47.6 0.00071
47.65 -0.00221
47.7 0.00053
47.75 0.00427
47.8 0.01053
47.85 0.01718
47.9 0.0195
47.95 0.02396
48 0.02855
48.05 0.0286
48.1 0.02957
48.15 0.02778
48.2 0.02352
48.25 0.01492
48.3 0.01238
48.35 0.00795
48.4 0.00613
48.45 0.00422
48.5 -0.00105
48.55 -0.00334
48.6 -0.00808
48.65 -0.01056
48.7 -0.01463
48.75 -0.01998
48.8 -0.02075
48.85 -0.01593
48.9 -0.01607
48.95 -0.01138
49 -0.00798
49.05 -0.00126
49.1 0.00743
49.15 0.01149
49.2 0.01709
49.25 0.01971
49.3 0.02033
49.35 0.02149
49.4 0.01822
49.45 0.01803
49.5 0.01357
49.55 0.00914
49.6 0.0048
49.65 -0.00231
49.7 -0.00797
49.75 -0.01228
49.8 -0.0158
49.85 -0.01863
49.9 -0.023
49.95 -0.02191
50 -0.02275
50.05 -0.01825
50.1 -0.01754
50.15 -0.01521
50.2 -0.01218
50.25 -0.00918
50.3 -0.00196
50.35 -0.00014
50.4 -0.00115
50.45 -0.00318
50.5 -0.00663
50.55 -0.00844
50.6 -0.00478
50.65 -0.00257
50.7 0.00209
50.75 0.00747
50.8 0.00652
50.85 0.0072
50.9 0.00634
50.95 0.00141
51 -0.00225
51.05 -0.00363
51.1 -0.00375
51.15 -0.00351
51.2 -0.0068
51.25 -0.01254
51.3 -0.01286
51.35 -0.00887
51.4 -0.00778
51.45 -0.00327
51.5 -0.00312
51.55 -0.00574
51.6 -0.00782
51.65 -0.00437
51.7 0.00003
51.75 0.00061
51.8 0.00443
51.85 0.00533
51.9 0.00619
51.95 0.00997
52 0.01086
52.05 0.00859
52.1 0.0076
52.15 0.00993
52.2 0.00639
52.25 0.00141
52.3 -0.00328
52.35 -0.00565
52.4 -0.00663
52.45 -0.00786
52.5 -0.01167
52.55 -0.01161
52.6 -0.01441
52.65 -0.01616
52.7 -0.01161
52.75 -0.00548
52.8 -0.00095
52.85 0.00547
52.9 0.00638
52.95 0.0098
53 0.00824
53.05 0.00928
53.1 0.01136
53.15 0.0116
53.2 0.01503
53.25 0.02057
53.3 0.02629
53.35 0.02458
53.4 0.02514
53.45 0.02642
53.5 0.02512
53.55 0.01798
53.6 0.00858
53.65 -0.00018
53.7 -0.00922
53.75 -0.01438
53.8 -0.02107
53.85 -0.02421
53.9 -0.02819
53.95 -0.02421
54 -0.02187
54.05 -0.01907
54.1 -0.01426
54.15 -0.00984
54.2 -0.01056
54.25 -0.0124
54.3 -0.01355
54.35 -0.01658
54.4 -0.01792
54.45 -0.01869
54.5 -0.01726
54.55 -0.01789
54.6 -0.01758
54.65 -0.02018
54.7 -0.01878
54.75 -0.0159
54.8 -0.01636
54.85 -0.01782
54.9 -0.0164
54.95 -0.01397
55 -0.01363
55.05 -0.00727
55.1 -0.00285
55.15 -0.00372
55.2 -0.00155
55.25 0.00026
55.3 0.00296
55.35 0.00629
55.4 0.00969
55.45 0.01051
55.5 0.01167
55.55 0.00743
55.6 0.00896
55.65 0.01399
55.7 0.01479
55.75 0.0101
55.8 0.00933
55.85 0.00451
55.9 0.00174
55.95 -0.00301
56 -0.00904
56.05 -0.01636
56.1 -0.02374
56.15 -0.02671
56.2 -0.02795
56.25 -0.02926
56.3 -0.02478
56.35 -0.02125
56.4 -0.01596
56.45 -0.01528
56.5 -0.01505
56.55 -0.01627
56.6 -0.01852
56.65 -0.0217
56.7 -0.01847
56.75 -0.0132
56.8 -0.00587
56.85 0.00303
56.9 0.00826
56.95 0.01157
57 0.0147
57.05 0.01638
57.1 0.02085
57.15 0.0192
57.2 0.01466
57.25 0.00941
57.3 0.00541
57.35 0.00367
57.4 -0.00015
57.45 0.00254
57.5 0.00467
57.55 0.00591
57.6 0.0059
57.65 0.00233
57.7 0.00286
57.75 0.00579
57.8 0.00528
57.85 0.00804
57.9 0.00525
57.95 0.00203
58 0.00483
58.05 0.01079
58.1 0.01265
58.15 0.01016
58.2 0.00461
58.25 0.00134
58.3 -0.00279
58.35 -0.00772
58.4 -0.00855
58.45 -0.007
58.5 -0.0078
58.55 -0.00268
58.6 -0.00217
58.65 -0.00476
58.7 -0.00197
58.75 -0.00353
58.8 -0.00559
58.85 -0.00745
58.9 -0.00645
58.95 -0.00614
59 -0.00827
59.05 -0.01218
59.1 -0.01237
59.15 -0.0103
59.2 -0.00741
59.25 -0.00305
59.3 -0.00305
59.35 -0.00405
59.4 -0.00043
59.45 0.00021
59.5 0.00037
59.55 -0.00138
59.6 0.00144
59.65 0.00308
59.7 0.00273
59.75 -0.00152
59.8 -0.00646
59.85 -0.00988
59.9 -0.00619
59.95 -0.00628
60 -0.00752
60.05 -0.01076
60.1 -0.01438
60.15 -0.0172
60.2 -0.01662
60.25 -0.01461
60.3 -0.00753
60.35 -0.00429
60.4 -0.00435
60.45 -0.00731
60.5 -0.01119
60.55 -0.01113
60.6 -0.00543
60.65 -0.00118
60.7 0.00065
60.75 0.00592
60.8 0.00866
60.85 0.01267
60.9 0.01415
60.95 0.01266
61 0.01041
61.05 0.01289
61.1 0.01317
61.15 0.01342
61.2 0.01179
61.25 0.006
61.3 -0.00052
61.35 -0.00398
61.4 -0.00356
61.45 -0.00042
61.5 0.00244
61.55 0.00451
61.6 0.00905
61.65 0.01354
61.7 0.01451
61.75 0.01088
61.8 0.00922
61.85 0.00588
61.9 0.00126
61.95 -0.00526
62 -0.00656
62.05 -0.00693
62.1 -0.00386
62.15 0.00242
62.2 0.00685
62.25 0.00728
62.3 0.01142
62.35 0.00922
62.4 0.00624
62.45 0.00244
62.5 -0.00361
62.55 -0.00987
62.6 -0.01279
62.65 -0.01078
62.7 -0.00654
62.75 0.00072
62.8 0.00329
62.85 0.00791
62.9 0.01175
62.95 0.01513
63 0.01491
63.05 0.01633
63.1 0.01793
63.15 0.02155
63.2 0.019
63.25 0.01169
63.3 0.00469
63.35 0.00468
63.4 0.00762
63.45 0.0081
63.5 0.01194
63.55 0.01738
63.6 0.01707
63.65 0.01426
63.7 0.01115
63.75 0.01131
63.8 0.00771
63.85 0.00357
63.9 0.00411
63.95 0.00372
64 0.00552
64.05 0.00918
64.1 0.01287
64.15 0.01884
64.2 0.01661
64.25 0.01045
64.3 0.00974
64.35 0.00572
64.4 0.00535
64.45 0.00061
64.5 -0.00159
64.55 -0.00658
64.6 -0.00947
64.65 -0.0089
64.7 -0.0057
64.75 -0.00106
64.8 0.00565
64.85 0.00921
64.9 0.01444
64.95 0.01987
65 0.02521
65.05 0.02679
65.1 0.02675
65.15 0.0272
65.2 0.02192
65.25 0.02103
65.3 0.02196
65.35 0.02388
65.4 0.02225
65.45 0.02263
65.5 0.02154
65.55 0.01439
65.6 0.00415
65.65 -0.0029
65.7 -0.00521
65.75 -0.00848
65.8 -0.01057
65.85 -0.00967
65.9 -0.0119
65.95 -0.01284
66 -0.01454
66.05 -0.01704
66.1 -0.02094
66.15 -0.02233
66.2 -0.0211
66.25 -0.023
66.3 -0.01879
66.35 -0.01499
66.4 -0.01178
66.45 -0.00451
66.5 0.00022
66.55 0.00459
66.6 0.00757
66.65 0.00964
66.7 0.00771
66.75 0.00896
66.8 0.00469
66.85 -0.00003
66.9 -0.00324
66.95 -0.00475
67 -0.00876
67.05 -0.01271
67.1 -0.01146
67.15 -0.01163
67.2 -0.01337
67.25 -0.01112
67.3 -0.01284
67.35 -0.00994
67.4 -0.00995
67.45 -0.00543
67.5 0.00139
67.55 0.00588
67.6 0.00944
67.65 0.00738
67.7 0.00445
67.75 -0.00084
67.8 -0.00008
67.85 -0.00024
67.9 -0.00402
67.95 -0.00662
68 -0.00545
68.05 -0.00038
68.1 0.0007
68.15 0.00417
68.2 0.00912
68.25 0.01561
68.3 0.02241
68.35 0.02577
68.4 0.02824
68.45 0.02318
68.5 0.01758
68.55 0.01447
68.6 0.01483
68.65 0.01318
68.7 0.01201
68.75 0.01108
68.8 0.00637
68.85 0.00307
68.9 -0.00331
68.95 -0.00421
69 -0.00614
69.05 -0.00985
69.1 -0.01625
69.15 -0.02275
69.2 -0.02897
69.25 -0.03341
69.3 -0.03797
69.35 -0.03774
69.4 -0.03072
69.45 -0.02621
69.5 -0.01744
69.55 -0.00863
69.6 -0.00357
69.65 -0.00028
69.7 0.00588
69.75 0.00512
69.8 0.00055
69.85 -0.00586
69.9 -0.0097
69.95 -0.00795
70 -0.00995
70.05 -0.01086
70.1 -0.01011
70.15 -0.0102
70.2 -0.0072
70.25 -0.00673
70.3 -0.00724
70.35 -0.00474
70.4 -0.00164
70.45 0.00109
70.5 0.00743
70.55 0.01164
70.6 0.01374
70.65 0.01132
70.7 0.0093
70.75 0.00511
70.8 0.00208
70.85 -0.00066
70.9 -0.00095
70.95 0.00133
71 0.00635
71.05 0.01093
71.1 0.01473
71.15 0.01251
71.2 0.00605
71.25 0.00601
71.3 0.00547
71.35 0.00445
71.4 0.00655
71.45 0.00897
71.5 0.01138
71.55 0.01228
71.6 0.0093
71.65 0.00917
71.7 0.00523
71.75 -0.00068
71.8 -0.0011
71.85 -0.00389
71.9 -0.00925
71.95 -0.01134
72 -0.00736
72.05 -0.00844
72.1 -0.01151
72.15 -0.00915
72.2 -0.00914
72.25 -0.0109
72.3 -0.00769
72.35 -0.00142
72.4 0.00336
72.45 0.00208
72.5 0.00289
72.55 0.0057
72.6 0.00249
72.65 -0.00125
72.7 -0.00638
72.75 -0.00475
72.8 -0.00421
72.85 -0.00059
72.9 0.0013
72.95 0.00621
73 0.00806
73.05 0.00757
73.1 0.005
73.15 -0.00157
73.2 -0.00976
73.25 -0.0104
73.3 -0.01401
73.35 -0.0185
73.4 -0.01529
73.45 -0.0123
73.5 -0.01328
73.55 -0.01468
73.6 -0.01052
73.65 -0.00774
73.7 -0.00954
73.75 -0.0132
73.8 -0.01625
73.85 -0.02059
73.9 -0.02511
73.95 -0.02424
74 -0.02091
74.05 -0.01273
74.1 -0.00618
74.15 0.00117
74.2 0.00912
74.25 0.01313
74.3 0.01165
74.35 0.00876
74.4 0.008
74.45 0.00461
74.5 -0.00126
74.55 -0.00528
74.6 -0.01027
74.65 -0.01124
74.7 -0.0148
74.75 -0.01555
74.8 -0.01784
74.85 -0.01321
74.9 -0.00665
74.95 -0.00218
75 0.00168
75.05 0.00807
75.1 0.01502
75.15 0.01883
75.2 0.02116
75.25 0.02253
75.3 0.02613
75.35 0.02684
75.4 0.02353
75.45 0.0155
75.5 0.01142
75.55 0.00372
75.6 -0.00588
75.65 -0.00846
75.7 -0.00857
75.75 -0.01046
75.8 -0.01171
75.85 -0.00713
75.9 -0.005
75.95 -0.00443
76 -0.00799
76.05 -0.00735
76.1 -0.0083
76.15 -0.01096
76.2 -0.01005
76.25 -0.00443
76.3 0.0014
76.35 0.00824
76.4 0.01037
76.45 0.01104
76.5 0.01136
76.55 0.00996
76.6 0.00819
76.65 0.00914
76.7 0.01315
76.75 0.01022
76.8 0.01089
76.85 0.00902
76.9 0.00835
76.95 0.00743
77 0.0108
77.05 0.0098
77.1 0.009
77.15 0.0097
77.2 0.01387
77.25 0.01141
77.3 0.00582
77.35 -0.00087
77.4 -0.00596
77.45 -0.00815
77.5 -0.00695
77.55 -0.00121
77.6 0.00654
77.65 0.0104
77.7 0.00751
77.75 0.00476
77.8 0.00137
77.85 -0.00508
77.9 -0.00627
77.95 -0.00738
78 -0.00807
78.05 -0.00562
78.1 0.00013
78.15 0.00174
78.2 0.0069
78.25 0.00763
78.3 0.00856
78.35 0.00587
78.4 0.006
78.45 0.00715
78.5 0.00598
78.55 0.00307
78.6 -0.00339
78.65 -0.01142
78.7 -0.01242
78.75 -0.01567
78.8 -0.01776
78.85 -0.01591
78.9 -0.01721
78.95 -0.01258
79 -0.00516
79.05 0.00432
79.1 0.01388
79.15 0.0209
79.2 0.02712
79.25 0.03336
79.3 0.03854
79.35 0.03452
79.4 0.02828
79.45 0.02605
79.5 0.02094
79.55 0.01505
79.6 0.00791
79.65 -0.00068
79.7 -0.00609
79.75 -0.01072
79.8 -0.01119
79.85 -0.01004
79.9 -0.01247
79.95 -0.01268
80 -0.0138
80.05 -0.01011
80.1 -0.01133
80.15 -0.01483
80.2 -0.01349
80.25 -0.0081
80.3 -0.00264
80.35 -0.00084
80.4 -0.00067
80.45 -0.00228
80.5 -0.00081
80.55 -0.0012
80.6 0.0009
80.65 0.00249
80.7 -0.00122
80.75 -0.00642
80.8 -0.01195
80.85 -0.01577
80.9 -0.01765
80.95 -0.0148
81 -0.00962
81.05 -0.00725
81.1 -0.00967
81.15 -0.01167
81.2 -0.00838
81.25 -0.00777
81.3 -0.00829
81.35 -0.00964
81.4 -0.01243
81.45 -0.00892
81.5 -0.00349
81.55 0.00048
81.6 0.00562
81.65 0.01097
81.7 0.01802
81.75 0.01703
81.8 0.01727
81.85 0.01402
81.9 0.01192
81.95 0.00595
82 0.00345
82.05 0.00461
82.1 0.00523
82.15 0.0038
82.2 -0.0017
82.25 -0.00831
82.3 -0.01244
82.35 -0.0098
82.4 -0.00873
82.45 -0.01012
82.5 -0.01203
82.55 -0.0144
82.6 -0.01683
82.65 -0.02067
82.7 -0.02505
82.75 -0.02403
82.8 -0.01768
82.85 -0.01063
82.9 -0.00738
82.95 -0.00024
83 0.00423
83.05 0.00504
83.1 0.00847
83.15 0.00845
83.2 0.00886
83.25 0.01031
83.3 0.00834
83.35 0.00955
83.4 0.01195
83.45 0.00932
83.5 0.00913
83.55 0.00719
83.6 0.00269
83.65 0.00338
83.7 0.00124
83.75 0.00308
83.8 0.00859
83.85 0.00832
83.9 0.00418
83.95 0.004
84 0.00083
84.05 -0.00322
84.1 -0.00342
84.15 -0.00707
84.2 -0.00735
84.25 -0.00719
84.3 -0.00831
84.35 -0.00561
84.4 -0.00445
84.45 -0.00492
84.5 -0.00488
84.55 -0.00868
84.6 -0.00651
84.65 -0.00118
84.7 -0.00018
84.75 0.00193
84.8 0.00183
84.85 0.00239
84.9 -0.00051
84.95 -0.00478
85 -0.00251
85.05 -0.00329
85.1 -0.00271
85.15 -0.00051
85.2 0.00226
85.25 0.00834
85.3 0.00712
85.35 0.00486
85.4 0.0044
85.45 0.0074
85.5 0.00589
85.55 0.00038
85.6 0.0001
85.65 -0.00203
85.7 -0.00497
85.75 -0.01041
85.8 -0.01739
85.85 -0.01583
85.9 -0.01411
85.95 -0.01323
86 -0.00813
86.05 -0.00665
86.1 -0.00171
86.15 0.00004
86.2 0.00022
86.25 -0.00301
86.3 -0.00436
86.35 -0.0031
86.4 -0.00599
86.45 -0.0089
86.5 -0.00587
86.55 -0.0062
86.6 -0.00568
86.65 -0.00063
86.7 0.00442
86.75 0.00315
86.8 -0.00192
86.85 -0.00523
86.9 -0.00819
86.95 -0.00563
87 -0.00268
87.05 -0.0043
87.1 -0.00585
87.15 -0.00783
87.2 -0.00905
87.25 -0.00665
87.3 -0.00482
87.35 -0.00021
87.4 -0.00137
87.45 0.00211
87.5 0.00359
87.55 0.00546
87.6 0.0056
87.65 0.00121
87.7 -0.0008
87.75 -0.00573
87.8 -0.00636
87.85 -0.00991
87.9 -0.01128
87.95 -0.01219
88 -0.00912
88.05 -0.00728
88.1 -0.00256
88.15 0.00521
88.2 0.01391
88.25 0.01716
88.3 0.01519
88.35 0.00998
88.4 0.00798
88.45 0.00233
88.5 -0.00268
88.55 -0.00469
88.6 -0.00138
88.65 0.00374
88.7 0.00441
88.75 0.00298
88.8 -0.00008
88.85 -0.00391
88.9 -0.01041
88.95 -0.01305
89 -0.01567
89.05 -0.01151
89.1 -0.00663
89.15 -0.00485
89.2 -0.00533
89.25 -0.00706
89.3 -0.01098
89.35 -0.01108
89.4 -0.01317
89.45 -0.01181
89.5 -0.01004
89.55 -0.0121
89.6 -0.01411
89.65 -0.01202
89.7 -0.01224
89.75 -0.01055
89.8 -0.00915
89.85 -0.00717
89.9 -0.00209
89.95 0.00415
90 0.00537
90.05 0.00751
90.1 0.00771
90.15 0.00628
90.2 0.00696
90.25 0.00714
90.3 0.00446
90.35 -0.00078
90.4 -0.00377
90.45 -0.00837
90.5 -0.01371
90.55 -0.01831
90.6 -0.01737
90.65 -0.01865
90.7 -0.0192
90.75 -0.01867
90.8 -0.0169
90.85 -0.01392
90.9 -0.01123
90.95 -0.0101
91 -0.00801
91.05 -0.00661
91.1 -0.0057
91.15 -0.00804
91.2 -0.01016
91.25 -0.00771
91.3 -0.00712
91.35 -0.00682
91.4 -0.00302
91.45 0.00325
91.5 0.01086
91.55 0.01997
91.6 0.02718
91.65 0.03415
91.7 0.03994
91.75 0.03815
91.8 0.03088
91.85 0.02278
91.9 0.01354
91.95 0.00683
92 0.00163
92.05 0.00207
92.1 0.00147
92.15 0.00315
92.2 0.00593
92.25 0.00955
92.3 0.01151
92.35 0.01229
92.4 0.01486
92.45 0.01973
92.5 0.01985
92.55 0.01765
92.6 0.0107
92.65 0.00528
92.7 0.00404
92.75 -0.00105
92.8 -0.00302
92.85 0.00029
92.9 0.00373
92.95 0.00318
93 -0.00159
93.05 -0.00846
93.1 -0.00934
93.15 -0.00867
93.2 -0.00306
93.25 0.00447
93.3 0.00756
93.35 0.00478
93.4 0.00446
93.45 0.00737
93.5 0.00625
93.55 0.00616
93.6 0.00755
93.65 0.00719
93.7 0.00361
93.75 0.00159
93.8 0.0034
93.85 0.00067
93.9 -0.00566
93.95 -0.00979
94 -0.01338
94.05 -0.01561
94.1 -0.01704
94.15 -0.01269
94.2 -0.01309
94.25 -0.00828
94.3 -0.00808
94.35 -0.00263
94.4 0.00319
94.45 0.00437
94.5 0.00373
94.55 0.00342
94.6 -0.0005
94.65 -0.00609
94.7 -0.00669
94.75 -0.0061
94.8 -0.00557
94.85 -0.00032
94.9 0.00426
94.95 0.00769
95 0.01251
95.05 0.01587
95.1 0.01545
95.15 0.01806
95.2 0.01706
95.25 0.01245
95.3 0.00712
95.35 0.00441
95.4 0.00263
95.45 0.00556
95.5 0.00737
95.55 0.00828
95.6 0.00668
95.65 0.00916
95.7 0.00903
95.75 0.01
95.8 0.00787
95.85 0.01017
95.9 0.00963
95.95 0.01139
96 0.01199
96.05 0.01553
96.1 0.01394
96.15 0.01321
96.2 0.01308
96.25 0.01223
96.3 0.01077
96.35 0.01335
96.4 0.00999
96.45 0.01065
96.5 0.01047
96.55 0.01122
96.6 0.01033
96.65 0.00857
96.7 0.01086
96.75 0.0101
96.8 0.00658
96.85 0.00594
96.9 0.00881
96.95 0.0076
97 0.00436
97.05 0.00057
97.1 -0.00239
97.15 -0.00824
97.2 -0.01026
97.25 -0.00948
97.3 -0.01144
97.35 -0.00968
97.4 -0.01127
97.45 -0.00802
97.5 -0.01004
97.55 -0.01259
97.6 -0.01238
97.65 -0.007
97.7 -0.00592
97.75 -0.00242
97.8 -0.00081
97.85 0.0029
97.9 0.00692
97.95 0.008
98 0.00742
98.05 0.00778
98.1 0.00987
98.15 0.01468
98.2 0.01513
98.25 0.01712
98.3 0.01454
98.35 0.01385
98.4 0.01539
98.45 0.01365
98.5 0.01118
98.55 0.00969
98.6 0.01182
98.65 0.00728
98.7 0.00336
98.75 -0.00191
98.8 -0.00862
98.85 -0.00854
98.9 -0.00798
98.95 -0.01082
99 -0.01194
99.05 -0.00876
99.1 -0.00293
99.15 0.0047
99.2 0.00556
99.25 0.00107
99.3 -0.00497
99.35 -0.00775
99.4 -0.00847
99.45 -0.01107
99.5 -0.01566
99.55 -0.01644
99.6 -0.01851
99.65 -0.01844
99.7 -0.01445
99.75 -0.01242
99.8 -0.00606
99.85 -0.00418
99.9 0.00087
99.95 0.00279
