0 0
0.05 0.00865
0.1 0.02285
0.15 0.03021
0.2 0.03447
0.25 0.03821
0.3 0.04603
0.35 0.05479
0.4 0.06241
0.45 0.06867
0.5 0.07193
0.55 0.07157
0.6 0.06568
0.65 0.05773
0.7 0.04728
0.75 0.03982
0.8 0.03947
0.85 0.0446
0.9 0.05238
0.95 0.05452
1 0.0535
1.05 0.04879
1.1 0.04559
1.15 0.04446
1.2 0.04433
1.25 0.03999
1.3 0.03559
1.35 0.03143
1.4 0.03391
1.45 0.03364
1.5 0.03308
1.55 0.03655
1.6 0.03535
1.65 0.03124
1.7 0.03044
1.75 0.02761
1.8 0.02716
1.85 0.02326
1.9 0.02471
1.95 0.02937
2 0.03237
2.05 0.03347
2.1 0.0293
2.15 0.02827
2.2 0.02665
2.25 0.02803
2.3 0.02564
2.35 0.02243
2.4 0.02236
2.45 0.02416
2.5 0.02374
2.55 0.02142
2.6 0.02502
2.65 0.02411
2.7 0.02115
2.75 0.01555
2.8 0.00997
2.85 0.00629
2.9 0.00623
2.95 0.00982
3 0.00913
3.05 0.01477
3.1 0.02371
3.15 0.03344
3.2 0.04128
3.25 0.04666
3.3 0.04662
3.35 0.0472
3.4 0.04245
3.45 0.03606
3.5 0.03365
3.55 0.02715
3.6 0.02572
3.65 0.02252
3.7 0.02303
3.75 0.0198
3.8 0.01418
3.85 0.01283
3.9 0.00901
3.95 0.01181
4 0.01808
4.05 0.01818
4.1 0.01637
4.15 0.01492
4.2 0.01373
4.25 0.01232
4.3 0.00984
4.35 0.00608
4.4 -0.00078
4.45 -0.00862
4.5 -0.01726
4.55 -0.02143
4.6 -0.0241
4.65 -0.03403
4.7 -0.04594
4.75 -0.06202
4.8 -0.07932
4.85 -0.10597
4.9 -0.1314
4.95 -0.15891
5 -0.19503
5.05 -0.23507
5.1 -0.27631
5.15 -0.32052
5.2 -0.37314
5.25 -0.43093
5.3 -0.49483
5.35 -0.56091
5.4 -0.63023
5.45 -0.69805
5.5 -0.75914
5.55 -0.81933
5.6 -0.87456
5.65 -0.92549
5.7 -0.97554
5.75 -1.02063
5.8 -1.05822
5.85 -1.08864
5.9 -1.11267
5.95 -1.12799
6 -1.13414
6.05 -1.13449
6.1 -1.13012
6.15 -1.12103
6.2 -1.10288
6.25 -1.07971
6.3 -1.04274
6.35 -0.99799
6.4 -0.95282
6.45 -0.90466
6.5 -0.85463
6.55 -0.80019
6.6 -0.74263
6.65 -0.67572
6.7 -0.60099
6.75 -0.51961
6.8 -0.44008
6.85 -0.35856
6.9 -0.27761
6.95 -0.19359
7 -0.11101
7.05 -0.02978
7.1 0.05691
7.15 0.14367
7.2 0.2276
7.25 0.30736
7.3 0.38926
7.35 0.46735
7.4 0.54381
7.45 0.61884
7.5 0.68754
7.55 0.7544
7.6 0.8141
7.65 0.86705
7.7 0.90773
7.75 0.94195
7.8 0.97028
7.85 0.9952
7.9 1.0168
7.95 1.03615
8 1.04408
8.05 1.04605
8.1 1.04287
8.15 1.03322
8.2 1.02007
8.25 1.00844
8.3 0.99474
8.35 0.98426
8.4 0.9717
8.45 0.95541
8.5 0.94233
8.55 0.92853
8.6 0.91422
8.65 0.89428
8.7 0.87612
8.75 0.85609
8.8 0.82789
8.85 0.80276
8.9 0.77994
8.95 0.75414
9 0.72449
9.05 0.69673
9.1 0.66678
9.15 0.63608
9.2 0.60452
9.25 0.57159
9.3 0.542
9.35 0.51242
9.4 0.48877
9.45 0.46993
9.5 0.4571
9.55 0.44416
9.6 0.43187
9.65 0.42124
9.7 0.40881
9.75 0.38995
9.8 0.376
9.85 0.35771
9.9 0.34235
9.95 0.32652
10 0.31367
10.05 0.29921
10.1 0.28646
10.15 0.27695
10.2 0.26727
10.25 0.254
10.3 0.23724
10.35 0.22197
10.4 0.20579
10.45 0.19332
10.5 0.1778
10.55 0.1597
10.6 0.14254
10.65 0.1309
10.7 0.12319
10.75 0.11095
10.8 0.09852
10.85 0.08453
10.9 0.07369
10.95 0.06296
11 0.05463
11.05 0.04732
11.1 0.04364
11.15 0.03594
11.2 0.03002
11.25 0.0257
11.3 0.0239
11.35 0.02114
11.4 0.01676
11.45 0.0107
11.5 0.004
11.55 -0.00523
11.6 -0.01956
11.65 -0.03459
11.7 -0.04711
11.75 -0.05445
11.8 -0.06298
11.85 -0.07056
11.9 -0.07938
11.95 -0.08733
12 -0.09351
12.05 -0.10248
12.1 -0.1116
12.15 -0.11626
12.2 -0.11477
12.25 -0.11525
12.3 -0.11674
12.35 -0.12219
12.4 -0.12704
12.45 -0.1274
12.5 -0.12674
12.55 -0.12343
12.6 -0.12546
12.65 -0.13011
12.7 -0.12997
12.75 -0.13177
12.8 -0.13023
12.85 -0.12612
12.9 -0.11936
12.95 -0.11225
13 -0.11163
13.05 -0.1127
13.1 -0.11859
13.15 -0.12244
13.2 -0.12475
13.25 -0.12415
13.3 -0.12545
13.35 -0.13019
13.4 -0.13507
13.45 -0.13953
13.5 -0.13576
13.55 -0.12881
13.6 -0.12394
13.65 -0.12069
13.7 -0.12061
13.75 -0.12157
13.8 -0.12356
13.85 -0.12508
13.9 -0.12512
13.95 -0.12637
14 -0.1258
14.05 -0.12277
14.1 -0.11796
14.15 -0.11126
14.2 -0.10549
14.25 -0.10168
14.3 -0.09402
14.35 -0.08717
14.4 -0.08504
14.45 -0.08473
14.5 -0.0884
14.55 -0.09344
14.6 -0.09675
14.65 -0.10027
14.7 -0.10405
14.75 -0.1085
14.8 -0.1057
14.85 -0.09865
14.9 -0.09026
14.95 -0.0838
15 -0.08168
15.05 -0.08071
15.1 -0.07656
15.15 -0.07067
15.2 -0.07027
15.25 -0.07293
15.3 -0.07875
15.35 -0.08425
15.4 -0.08653
15.45 -0.08476
15.5 -0.08339
15.55 -0.08223
15.6 -0.0819
15.65 -0.07829
15.7 -0.07684
15.75 -0.06945
15.8 -0.06134
15.85 -0.0529
15.9 -0.05063
15.95 -0.04729
16 -0.04398
16.05 -0.03855
16.1 -0.03589
16.15 -0.03859
16.2 -0.04446
16.25 -0.04442
16.3 -0.04117
16.35 -0.03726
16.4 -0.0346
16.45 -0.02987
16.5 -0.02507
16.55 -0.02122
16.6 -0.02464
16.65 -0.02861
16.7 -0.0373
16.75 -0.04615
16.8 -0.05269
16.85 -0.05906
16.9 -0.05802
16.95 -0.05722
17 -0.05243
17.05 -0.04812
17.1 -0.04487
17.15 -0.04275
17.2 -0.03759
17.25 -0.03202
17.3 -0.02694
17.35 -0.02858
17.4 -0.02579
17.45 -0.02933
17.5 -0.03066
17.55 -0.03062
17.6 -0.02707
17.65 -0.02697
17.7 -0.02287
17.75 -0.0225
17.8 -0.02307
17.85 -0.02545
17.9 -0.02742
17.95 -0.02523
18 -0.02365
18.05 -0.02458
18.1 -0.02153
18.15 -0.01857
18.2 -0.01307
18.25 -0.00687
18.3 -0.00679
18.35 -0.01252
18.4 -0.02051
18.45 -0.0269
18.5 -0.02901
18.55 -0.03273
18.6 -0.03633
18.65 -0.03604
18.7 -0.03085
18.75 -0.02404
18.8 -0.01892
18.85 -0.01295
18.9 -0.0111
18.95 -0.01458
19 -0.02136
19.05 -0.02712
19.1 -0.03333
19.15 -0.0325
19.2 -0.0329
19.25 -0.03538
19.3 -0.03962
19.35 -0.03861
19.4 -0.03835
19.45 -0.03907
19.5 -0.03632
19.55 -0.03158
19.6 -0.02838
19.65 -0.02214
19.7 -0.01535
19.75 -0.01427
19.8 -0.01674
19.85 -0.01542
19.9 -0.0135
19.95 -0.01243
20 -0.0159
20.05 -0.0198
20.1 -0.02042
20.15 -0.02135
20.2 -0.02452
20.25 -0.02244
20.3 -0.0183
20.35 -0.01265
20.4 -0.00719
20.45 -0.00636
20.5 -0.00361
20.55 -0.00106
20.6 -0.00218
20.65 -0.00093
20.7 0.00281
20.75 0.00603
20.8 0.0039
20.85 -0.00297
20.9 -0.00825
20.95 -0.00779
21 -0.01176
21.05 -0.01671
21.1 -0.01574
21.15 -0.01734
21.2 -0.01559
21.25 -0.01811
21.3 -0.01459
21.35 -0.01196
21.4 -0.00933
21.45 -0.00403
21.5 -0.00332
21.55 -0.00228
21.6 -0.00325
21.65 -0.00948
21.7 -0.01058
21.75 -0.01143
21.8 -0.01628
21.85 -0.01889
21.9 -0.0229
21.95 -0.02457
22 -0.02156
22.05 -0.01524
22.1 -0.01165
22.15 -0.01157
22.2 -0.00936
22.25 -0.00608
22.3 -0.00246
22.35 0.00013
22.4 0.0041
22.45 0.00851
22.5 0.00517
22.55 0.00598
22.6 0.00204
22.65 -0.00152
22.7 -0.00217
22.75 -0.0049
22.8 -0.0081
22.85 -0.00961
22.9 -0.00731
22.95 -0.0053
23 -0.00136
23.05 0.00407
23.1 0.00445
23.15 -0.00136
23.2 -0.00377
23.25 -0.00196
23.3 -0.00409
23.35 -0.00681
23.4 -0.00526
23.45 0
23.5 0.00368
23.55 0.0005
23.6 -0.00027
23.65 -0.00437
23.7 -0.01049
23.75 -0.0143
23.8 -0.01802
23.85 -0.01871
23.9 -0.02068
23.95 -0.02395
24 -0.02696
24.05 -0.02716
24.1 -0.0261
24.15 -0.02219
24.2 -0.01545
24.25 -0.01487
24.3 -0.01865
24.35 -0.0174
24.4 -0.01303
24.45 -0.00948
24.5 -0.01098
24.55 -0.01134
24.6 -0.00709
24.65 -0.00236
24.7 0.00449
24.75 0.00329
24.8 0.00312
24.85 0.00432
24.9 0.00069
24.95 0.00011
25 0.00119
25.05 0.00282
25.1 0.00035
25.15 0.00171
25.2 0.00361
25.25 0.00437
25.3 0.00851
25.35 0.00828
25.4 0.0067
25.45 0.00293
25.5 -0.00123
25.55 -0.00325
25.6 -0.00755
25.65 -0.01347
25.7 -0.01794
25.75 -0.02185
25.8 -0.01865
25.85 -0.01117
25.9 -0.00821
25.95 -0.00464
26 -0.00038
26.05 0.00036
26.1 -0.00294
26.15 -0.00369
26.2 -0.006
26.25 -0.00858
26.3 -0.00923
26.35 -0.00631
26.4 -0.00903
26.45 -0.01104
26.5 -0.01221
26.55 -0.01276
26.6 -0.01674
26.65 -0.01808
26.7 -0.02088
26.75 -0.02393
26.8 -0.02321
26.85 -0.02061
26.9 -0.01819
26.95 -0.0152
27 -0.01471
27.05 -0.01508
27.1 -0.01518
27.15 -0.01172
27.2 -0.00944
27.25 -0.00917
27.3 -0.01147
27.35 -0.01419
27.4 -0.01099
27.45 -0.01073
27.5 -0.00888
27.55 -0.00914
27.6 -0.01159
27.65 -0.01884
27.7 -0.02332
27.75 -0.02665
27.8 -0.0268
27.85 -0.02604
27.9 -0.02639
27.95 -0.03468
28 -0.05017
28.05 -0.06403
28.1 -0.07909
28.15 -0.09273
28.2 -0.11298
28.25 -0.13182
28.3 -0.15821
28.35 -0.19036
28.4 -0.22148
28.45 -0.25466
28.5 -0.29616
28.55 -0.34054
28.6 -0.38965
28.65 -0.44283
28.7 -0.49389
28.75 -0.54365
28.8 -0.59679
28.85 -0.6592
28.9 -0.72353
28.95 -0.79396
29 -0.86564
29.05 -0.93929
29.1 -1.02072
29.15 -1.10333
29.2 -1.18535
29.25 -1.26968
29.3 -1.35603
29.35 -1.43458
29.4 -1.50794
29.45 -1.57568
29.5 -1.63304
29.55 -1.68945
29.6 -1.73334
29.65 -1.76986
29.7 -1.80128
29.75 -1.82004
29.8 -1.83447
29.85 -1.83709
29.9 -1.82429
29.95 -1.80094
30 -1.76726
30.05 -1.72699
30.1 -1.67607
30.15 -1.60949
30.2 -1.53306
30.25 -1.44551
30.3 -1.35101
30.35 -1.25281
30.4 -1.14805
30.45 -1.03112
30.5 -0.90636
30.55 -0.78332
30.6 -0.65907
30.65 -0.52645
30.7 -0.39641
30.75 -0.26283
30.8 -0.13491
30.85 -0.00541
30.9 0.11851
30.95 0.23855
31 0.35234
31.05 0.45714
31.1 0.55558
31.15 0.65432
31.2 0.74977
31.25 0.83478
31.3 0.90986
31.35 0.97725
31.4 1.04489
31.45 1.10959
31.5 1.16308
31.55 1.21101
31.6 1.25521
31.65 1.2919
31.7 1.32605
31.75 1.35693
31.8 1.38753
31.85 1.41129
31.9 1.42753
31.95 1.43844
32 1.44872
32.05 1.45838
32.1 1.46752
32.15 1.47467
32.2 1.47943
32.25 1.4848
32.3 1.48384
32.35 1.48788
32.4 1.49234
32.45 1.49623
32.5 1.49924
32.55 1.5005
32.6 1.4925
32.65 1.4846
32.7 1.47724
32.75 1.46257
32.8 1.44221
32.85 1.42542
32.9 1.40803
32.95 1.38602
33 1.36497
33.05 1.33987
33.1 1.31521
33.15 1.29096
33.2 1.26346
33.25 1.22937
33.3 1.19833
33.35 1.16963
33.4 1.14181
33.45 1.11232
33.5 1.0776
33.55 1.0427
33.6 1.00672
33.65 0.97068
33.7 0.93388
33.75 0.8941
33.8 0.85759
33.85 0.82217
33.9 0.7886
33.95 0.7511
34 0.71687
34.05 0.67915
34.1 0.64582
34.15 0.61344
34.2 0.5839
34.25 0.54904
34.3 0.51335
34.35 0.47561
34.4 0.43496
34.45 0.40113
34.5 0.37001
34.55 0.33802
34.6 0.31012
34.65 0.28315
34.7 0.26124
34.75 0.24097
34.8 0.2184
34.85 0.18989
34.9 0.15763
34.95 0.13
35 0.10342
35.05 0.08057
35.1 0.05675
35.15 0.0318
35.2 0.01012
35.25 -0.00893
35.3 -0.02813
35.35 -0.04151
35.4 -0.05808
35.45 -0.07346
35.5 -0.09189
35.55 -0.10832
35.6 -0.11837
35.65 -0.12592
35.7 -0.13742
35.75 -0.14318
35.8 -0.15472
35.85 -0.1647
35.9 -0.17179
35.95 -0.17624
36 -0.17774
36.05 -0.18401
36.1 -0.19157
36.15 -0.20347
36.2 -0.20956
36.25 -0.22026
36.3 -0.2265
36.35 -0.23603
36.4 -0.24152
36.45 -0.24532
36.5 -0.2467
36.55 -0.24936
36.6 -0.24663
36.65 -0.24612
36.7 -0.24855
36.75 -0.25441
36.8 -0.25379
36.85 -0.24947
36.9 -0.249
36.95 -0.25241
37 -0.25063
37.05 -0.24877
37.1 -0.24596
37.15 -0.24072
37.2 -0.23568
37.25 -0.2317
37.3 -0.23491
37.35 -0.23603
37.4 -0.23299
37.45 -0.2295
37.5 -0.22879
37.55 -0.22699
37.6 -0.22333
37.65 -0.21963
37.7 -0.21424
37.75 -0.21033
37.8 -0.20474
37.85 -0.20346
37.9 -0.20359
37.95 -0.20364
38 -0.20342
38.05 -0.20543
38.1 -0.2093
38.15 -0.21081
38.2 -0.21315
38.25 -0.21802
38.3 -0.22147
38.35 -0.22162
38.4 -0.22145
38.45 -0.22045
38.5 -0.21332
38.55 -0.20319
38.6 -0.19261
38.65 -0.1817
38.7 -0.17153
38.75 -0.16565
38.8 -0.16029
38.85 -0.15879
38.9 -0.16054
38.95 -0.16563
39 -0.16545
39.05 -0.16377
39.1 -0.16421
39.15 -0.15959
39.2 -0.15965
39.25 -0.15612
39.3 -0.15515
39.35 -0.15749
39.4 -0.15636
39.45 -0.15683
39.5 -0.15611
39.55 -0.15362
39.6 -0.14575
39.65 -0.13951
39.7 -0.13196
39.75 -0.1237
39.8 -0.11482
39.85 -0.10725
39.9 -0.10393
39.95 -0.1041
40 -0.10711
40.05 -0.10797
40.1 -0.11236
40.15 -0.11513
40.2 -0.1182
40.25 -0.12358
40.3 -0.12926
40.35 -0.12725
40.4 -0.12722
40.45 -0.12979
40.5 -0.1314
40.55 -0.1254
40.6 -0.12072
40.65 -0.11434
40.7 -0.10451
40.75 -0.09818
40.8 -0.09753
40.85 -0.09363
40.9 -0.09129
40.95 -0.09126
41 -0.09386
41.05 -0.09465
41.1 -0.09832
41.15 -0.101
41.2 -0.10234
41.25 -0.09659
41.3 -0.09242
41.35 -0.09126
41.4 -0.08494
41.45 -0.07715
41.5 -0.06722
41.55 -0.0592
41.6 -0.05646
41.65 -0.05539
41.7 -0.05497
41.75 -0.05648
41.8 -0.05782
41.85 -0.05484
41.9 -0.05507
41.95 -0.05432
42 -0.04989
42.05 -0.04589
42.1 -0.04412
42.15 -0.04426
42.2 -0.04868
42.25 -0.05601
42.3 -0.06325
42.35 -0.06849
42.4 -0.07307
42.45 -0.07711
42.5 -0.0774
42.55 -0.07816
42.6 -0.07297
42.65 -0.06523
42.7 -0.06042
42.75 -0.06032
42.8 -0.06008
42.85 -0.06131
42.9 -0.05747
42.95 -0.05467
43 -0.055
43.05 -0.05044
43.1 -0.04372
43.15 -0.03556
43.2 -0.03441
43.25 -0.03852
43.3 -0.04213
43.35 -0.04792
43.4 -0.04952
43.45 -0.05127
43.5 -0.05398
43.55 -0.05257
43.6 -0.04641
43.65 -0.04117
43.7 -0.04178
43.75 -0.04166
43.8 -0.04015
43.85 -0.03676
43.9 -0.03886
43.95 -0.0356
44 -0.035
44.05 -0.03266
44.1 -0.03156
44.15 -0.03234
44.2 -0.03641
44.25 -0.039
44.3 -0.03981
44.35 -0.0441
44.4 -0.04082
44.45 -0.04243
44.5 -0.04548
44.55 -0.04921
44.6 -0.05062
44.65 -0.04713
44.7 -0.04518
44.75 -0.04401
44.8 -0.04148
44.85 -0.03615
44.9 -0.02943
44.95 -0.02308
45 -0.01454
45.05 -0.01227
45.1 -0.01553
45.15 -0.02102
45.2 -0.02548
45.25 -0.02532
45.3 -0.02004
45.35 -0.01384
45.4 -0.01237
45.45 -0.01653
45.5 -0.01692
45.55 -0.01518
45.6 -0.01842
45.65 -0.01666
45.7 -0.01864
45.75 -0.02176
45.8 -0.02234
45.85 -0.02487
45.9 -0.03039
45.95 -0.03032
46 -0.03046
46.05 -0.03401
46.1 -0.03729
46.15 -0.03933
46.2 -0.03747
46.25 -0.0296
46.3 -0.02726
46.35 -0.02462
46.4 -0.01844
46.45 -0.00977
46.5 -0.00521
46.55 -0.00017
46.6 0.00344
46.65 -0.0003
46.7 -0.00119
46.75 -0.00725
46.8 -0.01156
46.85 -0.01507
46.9 -0.01695
46.95 -0.01618
47 -0.01353
47.05 -0.00907
47.1 -0.00442
47.15 -0.00573
47.2 -0.0039
47.25 -0.00623
47.3 -0.00636
47.35 -0.00291
47.4 0.00118
47.45 0.00732
47.5 0.00714
47.55 0.0047
47.6 0.00597
47.65 0.00365
47.7 -0.00349
47.75 -0.01316
47.8 -0.02304
47.85 -0.03241
47.9 -0.03764
47.95 -0.03465
48 -0.03326
48.05 -0.03434
48.1 -0.03107
48.15 -0.02575
48.2 -0.01783
48.25 -0.00965
48.3 -0.00465
48.35 -0.00554
48.4 -0.00958
48.45 -0.015
48.5 -0.02018
48.55 -0.02649
48.6 -0.03215
48.65 -0.031
48.7 -0.02973
48.75 -0.02781
48.8 -0.02157
48.85 -0.02018
48.9 -0.01565
48.95 -0.01377
49 -0.01225
49.05 -0.00917
49.1 -0.0031
49.15 0.00224
49.2 0.00084
49.25 0.00162
49.3 0.00564
49.35 0.00814
49.4 0.00671
49.45 0.00868
49.5 0.00955
49.55 0.01209
49.6 0.01085
49.65 0.01106
49.7 0.0103
49.75 0.0084
49.8 0.00911
49.85 0.01182
49.9 0.00896
49.95 0.00237
50 -0.00087
50.05 -0.00491
50.1 -0.00908
50.15 -0.01268
50.2 -0.01198
50.25 -0.01075
50.3 -0.00653
50.35 -0.00518
50.4 -0.00769
50.45 -0.01304
50.5 -0.01726
50.55 -0.01998
50.6 -0.01662
50.65 -0.01231
50.7 -0.01357
50.75 -0.0088
50.8 -0.00879
50.85 -0.01019
50.9 -0.01467
50.95 -0.01565
51 -0.01919
51.05 -0.01543
51.1 -0.01136
51.15 -0.00842
51.2 -0.00965
51.25 -0.01315
51.3 -0.01171
51.35 -0.00706
51.4 -0.00053
51.45 -0.00073
51.5 -0.00476
51.55 -0.00632
51.6 -0.0078
51.65 -0.01193
51.7 -0.01308
51.75 -0.01623
51.8 -0.02113
51.85 -0.01847
51.9 -0.01155
51.95 -0.00144
52 0.00711
52.05 0.01546
52.1 0.01555
52.15 0.01472
52.2 0.01698
52.25 0.0139
52.3 0.00776
52.35 0.00207
52.4 -0.00636
52.45 -0.01053
52.5 -0.01291
52.55 -0.01225
52.6 -0.01264
52.65 -0.00909
52.7 -0.00875
52.75 -0.00863
52.8 -0.00988
52.85 -0.01454
52.9 -0.02073
52.95 -0.02191
53 -0.01901
53.05 -0.01614
53.1 -0.01303
53.15 -0.00608
53.2 0.00193
53.25 0.00445
53.3 0.00841
53.35 0.00877
53.4 0.0072
53.45 0.00227
53.5 0.00371
53.55 0.00614
53.6 0.00768
53.65 0.00933
53.7 0.00512
53.75 0.00279
53.8 0.0003
53.85 -0.00271
53.9 -0.00084
53.95 -0.00281
54 -0.00314
54.05 -0.00342
54.1 -0.00068
54.15 0.00473
54.2 0.00822
54.25 0.00792
54.3 0.00351
54.35 -0.001
54.4 -0.00547
54.45 -0.00849
54.5 -0.01262
54.55 -0.00934
54.6 -0.00203
54.65 0.00651
54.7 0.0126
54.75 0.02033
54.8 0.02466
54.85 0.02768
54.9 0.02845
54.95 0.02808
55 0.02095
55.05 0.01866
55.1 0.01591
55.15 0.01105
55.2 0.00559
55.25 0.00331
55.3 0.00172
55.35 0.00385
55.4 0.00911
55.45 0.01441
55.5 0.02112
55.55 0.01873
55.6 0.0153
55.65 0.01467
55.7 0.01593
55.75 0.01217
55.8 0.00416
55.85 0.00188
55.9 -0.0004
55.95 0.00116
56 0.00276
56.05 -0.0002
56.1 0.00223
56.15 -0.0014
56.2 -0.00617
56.25 -0.00674
56.3 -0.01023
56.35 -0.01648
56.4 -0.02093
56.45 -0.01758
56.5 -0.01456
56.55 -0.01456
56.6 -0.01747
56.65 -0.01352
56.7 -0.00918
56.75 -0.001
56.8 0.0026
56.85 0.00317
56.9 0.00451
56.95 0.00813
57 0.01294
57.05 0.01235
57.1 0.00613
57.15 0.00108
57.2 -0.00214
57.25 -0.00791
57.3 -0.01509
57.35 -0.01967
57.4 -0.02453
57.45 -0.02837
57.5 -0.0303
57.55 -0.02791
57.6 -0.02038
57.65 -0.018
57.7 -0.01137
57.75 -0.00432
57.8 0.00409
57.85 0.01081
57.9 0.01489
57.95 0.01343
58 0.01616
58.05 0.02122
58.1 0.02305
58.15 0.02015
58.2 0.0136
58.25 0.01004
58.3 0.00791
58.35 0.0073
58.4 0.00309
58.45 -0.00415
58.5 -0.00805
58.55 -0.00803
58.6 -0.00977
58.65 -0.00634
58.7 0.00063
58.75 0.00321
58.8 0.00683
58.85 0.00659
58.9 0.00509
58.95 0.0047
59 0.00484
59.05 0.00847
59.1 0.00586
59.15 0.00737
59.2 0.01121
59.25 0.01723
59.3 0.01639
59.35 0.0127
59.4 0.00878
59.45 0.00889
59.5 0.00342
59.55 -0.00336
59.6 -0.01141
59.65 -0.01127
59.7 -0.01115
59.75 -0.00881
59.8 -0.00471
59.85 -0.00531
59.9 -0.00438
59.95 -0.00641
60 -0.0086
60.05 -0.00756
60.1 -0.00844
60.15 -0.01048
60.2 -0.00907
60.25 -0.01041
60.3 -0.00744
60.35 -0.00321
60.4 -0.00367
60.45 -0.00791
60.5 -0.01213
60.55 -0.01614
60.6 -0.01762
60.65 -0.01364
60.7 -0.01281
60.75 -0.01514
60.8 -0.01782
60.85 -0.01753
60.9 -0.01616
60.95 -0.01737
61 -0.01841
61.05 -0.0188
61.1 -0.01897
61.15 -0.01694
61.2 -0.0102
61.25 -0.0083
61.3 -0.00425
61.35 0.00198
61.4 0.00271
61.45 0.00093
61.5 -0.00039
61.55 0.00192
61.6 0.00587
61.65 0.00541
61.7 0.00784
61.75 0.00728
61.8 0.00864
61.85 0.01324
61.9 0.01311
61.95 0.01617
62 0.0177
62.05 0.01419
62.1 0.01441
62.15 0.01693
62.2 0.01354
62.25 0.00647
62.3 -0.00179
62.35 -0.00481
62.4 -0.00426
62.45 -0.00347
62.5 -0.00661
62.55 -0.00351
62.6 -0.00139
62.65 0.002
62.7 0.00147
62.75 -0.00113
62.8 0.00037
62.85 0.00411
62.9 0.00992
62.95 0.01439
63 0.0187
63.05 0.01783
63.1 0.01595
63.15 0.0118
63.2 0.00647
63.25 0.00314
63.3 -0.0026
63.35 -0.00255
63.4 0.001
63.45 0.00271
63.5 0.00427
63.55 0.00062
63.6 0.00072
63.65 -0.00205
63.7 -0.00068
63.75 -0.00081
63.8 -0.00155
63.85 0.00275
63.9 0.0063
63.95 0.00808
64 0.00878
64.05 0.00581
64.1 0.00008
64.15 -0.00407
64.2 -0.00638
64.25 -0.0037
64.3 0.00282
64.35 0.0023
64.4 -0.00109
64.45 -0.00299
64.5 -0.00256
64.55 -0.0034
64.6 -0.00403
64.65 -0.0043
64.7 -0.00495
64.75 -0.00707
64.8 -0.01014
64.85 -0.00912
64.9 -0.01241
64.95 -0.00918
65 -0.00337
65.05 -0.00256
65.1 -0.00041
65.15 0.00009
65.2 0.00225
65.25 0.00348
65.3 0.00807
65.35 0.01296
65.4 0.01344
65.45 0.0122
65.5 0.01483
65.55 0.01938
65.6 0.01714
65.65 0.01347
65.7 0.01116
65.75 0.00679
65.8 0.00011
65.85 -0.0045
65.9 -0.01144
65.95 -0.017
66 -0.02027
66.05 -0.01698
66.1 -0.01626
66.15 -0.01423
66.2 -0.00777
66.25 -0.0068
66.3 -0.00841
66.35 -0.00669
66.4 -0.0077
66.45 -0.01147
66.5 -0.01347
66.55 -0.01292
66.6 -0.00697
66.65 -0.0038
66.7 -0.00103
66.75 -0.00049
66.8 -0.00242
66.85 -0.00582
66.9 -0.00962
66.95 -0.01005
67 -0.00816
67.05 -0.00477
67.1 -0.00694
67.15 -0.00538
67.2 -0.00794
67.25 -0.01233
67.3 -0.01243
67.35 -0.00775
67.4 -0.00318
67.45 -0.00477
67.5 -0.00758
67.55 -0.00693
67.6 -0.00303
67.65 -0.00367
67.7 -0.00774
67.75 -0.0093
67.8 -0.00466
67.85 0.00008
67.9 0.00502
67.95 0.00839
68 0.01386
68.05 0.01322
68.1 0.01519
68.15 0.01888
68.2 0.01504
68.25 0.00875
68.3 0.00009
68.35 -0.00497
68.4 -0.01191
68.45 -0.01055
68.5 -0.00898
68.55 -0.00997
68.6 -0.00591
68.65 -0.00091
68.7 0.00614
68.75 0.01407
68.8 0.0142
68.85 0.01741
68.9 0.01537
68.95 0.017
69 0.0168
69.05 0.01577
69.1 0.01763
69.15 0.02032
69.2 0.01977
69.25 0.01528
69.3 0.01448
69.35 0.00905
69.4 0.00297
69.45 -0.0049
69.5 -0.0055
69.55 -0.00902
69.6 -0.00784
69.65 -0.00853
69.7 -0.01069
69.75 -0.01049
69.8 -0.00547
69.85 -0.0065
69.9 -0.00424
69.95 -0.00643
70 -0.00684
70.05 -0.00891
70.1 -0.01177
70.15 -0.00964
70.2 -0.00455
70.25 0.00212
70.3 0.00488
70.35 0.00942
70.4 0.01354
70.45 0.01501
70.5 0.01003
70.55 0.00899
70.6 0.01197
70.65 0.01549
70.7 0.01553
70.75 0.01239
70.8 0.01221
70.85 0.00908
70.9 0.0072
70.95 0.00476
71 0.00049
71.05 -0.00664
71.1 -0.01346
71.15 -0.02131
71.2 -0.02702
71.25 -0.02516
71.3 -0.01888
71.35 -0.01163
71.4 -0.00915
71.45 -0.00432
71.5 0.00262
71.55 0.00537
71.6 0.00539
71.65 0.00533
71.7 0.00316
71.75 -0.00205
71.8 -0.00334
71.85 -0.00185
71.9 -0.00298
71.95 -0.0012
72 0.00227
72.05 0.00213
72.1 0.00261
72.15 0.00435
72.2 0.00972
72.25 0.01671
72.3 0.01595
72.35 0.01836
72.4 0.01948
72.45 0.01352
72.5 0.00519
72.55 -0.00537
72.6 -0.01601
72.65 -0.02412
72.7 -0.03121
72.75 -0.03785
72.8 -0.03581
72.85 -0.0306
72.9 -0.02439
72.95 -0.01925
73 -0.0172
73.05 -0.01084
73.1 -0.00125
73.15 0.00646
73.2 0.01545
73.25 0.01924
73.3 0.01849
73.35 0.01278
73.4 0.00553
73.45 -0.00363
73.5 -0.01212
73.55 -0.01835
73.6 -0.02284
73.65 -0.02351
73.7 -0.02062
73.75 -0.02078
73.8 -0.01634
73.85 -0.01274
73.9 -0.01223
73.95 -0.01437
74 -0.01669
74.05 -0.01749
74.1 -0.01294
74.15 -0.01215
74.2 -0.01443
74.25 -0.01015
74.3 -0.00435
74.35 -0.00105
74.4 0.00365
74.45 0.00497
74.5 0.00334
74.55 0.00121
74.6 -0.00451
74.65 -0.01021
74.7 -0.01278
74.75 -0.01401
74.8 -0.01372
74.85 -0.01648
74.9 -0.01898
74.95 -0.01485
75 -0.0109
75.05 -0.00782
75.1 -0.00546
75.15 -0.00223
75.2 0.00414
75.25 0.00801
75.3 0.01221
75.35 0.01791
75.4 0.02497
75.45 0.02449
75.5 0.01765
75.55 0.01305
75.6 0.00517
75.65 -0.00388
75.7 -0.00996
75.75 -0.01159
75.8 -0.01045
75.85 -0.00884
75.9 -0.0083
75.95 -0.00667
76 -0.00293
76.05 0.00159
76.1 0.00886
76.15 0.00909
76.2 0.00677
76.25 0.00426
76.3 0.00363
76.35 0.00295
76.4 0.00426
76.45 0.00696
76.5 0.01188
76.55 0.01011
76.6 0.00465
76.65 -0.00149
76.7 -0.00704
76.75 -0.0126
76.8 -0.01037
76.85 -0.00369
76.9 -0.00315
76.95 -0.00613
77 -0.00948
77.05 -0.00774
77.1 -0.00446
77.15 -0.00173
77.2 -0.00196
77.25 -0.00256
77.3 -0.00554
77.35 -0.00659
77.4 -0.00513
77.45 -0.00051
77.5 0.00157
77.55 0.00429
77.6 0.01041
77.65 0.01096
77.7 0.00716
77.75 0.00497
77.8 0.00272
77.85 -0.00015
77.9 -0.00194
77.95 0.00018
78 0.00304
78.05 0.00861
78.1 0.01367
78.15 0.01355
78.2 0.00801
78.25 0.00162
78.3 -0.00276
78.35 -0.00309
78.4 -0.00337
78.45 0.00095
78.5 0.00605
78.55 0.00863
78.6 0.00665
78.65 0.00615
78.7 0.0067
78.75 0.00684
78.8 0.0089
78.85 0.01431
78.9 0.01732
78.95 0.01647
79 0.01067
79.05 0.00694
79.1 0.00193
79.15 0.00131
79.2 0.00222
79.25 0.00684
79.3 0.0116
79.35 0.01167
79.4 0.00683
79.45 0.00688
79.5 0.00696
79.55 0.00337
79.6 -0.00376
79.65 -0.009
79.7 -0.00691
79.75 -0.00258
79.8 -0.00447
79.85 -0.00971
79.9 -0.00956
79.95 -0.01067
80 -0.0083
80.05 -0.00407
80.1 0.00364
80.15 0.01165
80.2 0.01281
80.25 0.00868
80.3 0.00112
80.35 -0.00487
80.4 -0.00819
80.45 -0.00837
80.5 -0.00579
80.55 -0.00345
80.6 -0.00511
80.65 -0.0078
80.7 -0.00408
80.75 -0.00394
80.8 -0.00634
80.85 -0.00504
80.9 -0.00833
80.95 -0.0096
81 -0.00563
81.05 0.00185
81.1 0.00517
81.15 0.0065
81.2 0.00364
81.25 0.00393
81.3 0.00819
81.35 0.01158
81.4 0.01517
81.45 0.01981
81.5 0.01797
81.55 0.0168
81.6 0.01749
81.65 0.01221
81.7 0.01124
81.75 0.00614
81.8 -0.00224
81.85 -0.00765
81.9 -0.00776
81.95 -0.0065
82 -0.00092
82.05 0.00036
82.1 -0.00027
82.15 0.00245
82.2 0.00744
82.25 0.01197
82.3 0.01374
82.35 0.01789
82.4 0.01675
82.45 0.01287
82.5 0.01198
82.55 0.01028
82.6 0.00663
82.65 0.00663
82.7 0.00317
82.75 0.0031
82.8 -0.00201
82.85 -0.00161
82.9 -0.00179
82.95 0.00238
83 0.00159
83.05 0.00341
83.1 0.00809
83.15 0.00732
83.2 0.00804
83.25 0.00961
83.3 0.00569
83.35 0.00022
83.4 -0.00598
83.45 -0.00843
83.5 -0.00495
83.55 -0.00418
83.6 -0.00155
83.65 -0.00154
83.7 -0.00484
83.75 -0.00739
83.8 -0.01194
83.85 -0.01193
83.9 -0.00925
83.95 -0.00821
84 -0.0048
84.05 -0.00333
84.1 0.00233
84.15 0.0049
84.2 0.00114
84.25 -0.00112
84.3 -0.00197
84.35 -0.00512
84.4 -0.00545
84.45 -0.00907
84.5 -0.00801
84.55 -0.00922
84.6 -0.00499
84.65 0.00158
84.7 0.00109
84.75 0.00005
84.8 -0.00348
84.85 -0.00943
84.9 -0.01489
84.95 -0.01672
85 -0.0207
85.05 -0.02381
85.1 -0.02001
85.15 -0.01262
85.2 -0.00563
85.25 -0.00259
85.3 -0.00484
85.35 -0.00135
85.4 0.00404
85.45 0.00326
85.5 0.00203
85.55 0.00088
85.6 0.00427
85.65 0.01004
85.7 0.01136
85.75 0.00821
85.8 0.00074
85.85 -0.0011
85.9 -0.00432
85.95 -0.00381
86 -0.00113
86.05 -0.00166
86.1 -0.00046
86.15 -0.00137
86.2 -0.00525
86.25 -0.00277
86.3 -0.00489
86.35 -0.00451
86.4 -0.00221
86.45 -0.00196
86.5 -0.00609
86.55 -0.01051
86.6 -0.01286
86.65 -0.01517
86.7 -0.01108
86.75 -0.00529
86.8 0.00328
86.85 0.00806
86.9 0.01386
86.95 0.02019
87 0.02726
87.05 0.03288
87.1 0.03808
87.15 0.03365
87.2 0.02596
87.25 0.02098
87.3 0.01566
87.35 0.01178
87.4 0.01017
87.45 0.01217
87.5 0.0105
87.55 0.00399
87.6 -0.00149
87.65 -0.00907
87.7 -0.0129
87.75 -0.01704
87.8 -0.01994
87.85 -0.02155
87.9 -0.0251
87.95 -0.02343
88 -0.02288
88.05 -0.02009
88.1 -0.01221
88.15 -0.00705
88.2 -0.00419
88.25 -0.0021
88.3 0.00317
88.35 0.00878
88.4 0.01492
88.45 0.02181
88.5 0.02302
88.55 0.01853
88.6 0.01668
88.65 0.01536
88.7 0.01153
88.75 0.00498
88.8 -0.00376
88.85 -0.00905
88.9 -0.01631
88.95 -0.01562
89 -0.01229
89.05 -0.01317
89.1 -0.01077
89.15 -0.01115
89.2 -0.00979
89.25 -0.0035
89.3 -0.00091
89.35 0.00113
89.4 0.00601
89.45 0.00369
89.5 0.00328
89.55 0.00191
89.6 -0.00076
89.65 -0.00505
89.7 -0.00995
89.75 -0.00846
89.8 -0.00621
89.85 -0.00551
89.9 -0.00477
89.95 -0.0003
90 -0.00122
90.05 -0.00515
90.1 -0.00758
90.15 -0.01241
90.2 -0.01806
90.25 -0.0204
90.3 -0.02049
90.35 -0.02176
90.4 -0.02101
90.45 -0.01578
90.5 -0.01326
90.55 -0.01075
90.6 -0.0047
90.65 0.00391
90.7 0.00977
90.75 0.00895
90.8 0.01233
90.85 0.01754
90.9 0.01453
90.95 0.01468
91 0.01242
91.05 0.01184
91.1 0.01221
91.15 0.0144
91.2 0.01148
91.25 0.00422
91.3 0.0024
91.35 0.00307
91.4 -0.00105
91.45 -0.00503
91.5 -0.01048
91.55 -0.01469
91.6 -0.01937
91.65 -0.0242
91.7 -0.02512
91.75 -0.02378
91.8 -0.01637
91.85 -0.00873
91.9 -0.00736
91.95 -0.00601
92 -0.00193
92.05 0.00003
92.1 0.00375
92.15 0.00672
92.2 0.00354
92.25 -0.00095
92.3 -0.00242
92.35 -0.00557
92.4 -0.00257
92.45 0.00009
92.5 0.00387
92.55 0.00563
92.6 0.00563
92.65 0.00819
92.7 0.0125
92.75 0.01694
92.8 0.02167
92.85 0.0259
92.9 0.03014
92.95 0.03116
93 0.02924
93.05 0.02187
93.1 0.011
93.15 0.00042
93.2 -0.00868
93.25 -0.01345
93.3 -0.01953
93.35 -0.01738
93.4 -0.01365
93.45 -0.0147
93.5 -0.01887
93.55 -0.01592
93.6 -0.0169
93.65 -0.01139
93.7 -0.00847
93.75 -0.00262
93.8 0.00131
93.85 -0.00046
93.9 0.00153
93.95 0.00706
94 0.00838
94.05 0.01054
94.1 0.00796
94.15 0.00604
94.2 0.00599
94.25 0.00085
94.3 -0.00092
94.35 -0.00617
94.4 -0.01045
94.45 -0.0096
94.5 -0.00974
94.55 -0.0061
94.6 -0.004
94.65 -0.00396
94.7 -0.00471
94.75 -0.00757
94.8 -0.01326
94.85 -0.01498
94.9 -0.01093
94.95 -0.00525
95 -0.00247
95.05 -0.00102
95.1 -0.00439
95.15 -0.00693
95.2 -0.00346
95.25 0.00359
95.3 0.00797
95.35 0.00983
95.4 0.00651
95.45 0.00729
95.5 0.0044
95.55 0.00444
95.6 0.00353
95.65 -0.00132
95.7 -0.00709
95.75 -0.01257
95.8 -0.01881
95.85 -0.02123
95.9 -0.01882
95.95 -0.01666
96 -0.0174
96.05 -0.02053
96.1 -0.01768
96.15 -0.01697
96.2 -0.01264
96.25 -0.00919
96.3 -0.00256
96.35 0.00174
96.4 0.00076
96.45 -0.00118
96.5 -0.00684
96.55 -0.01167
96.6 -0.0139
96.65 -0.01511
96.7 -0.01492
96.75 -0.01228
96.8 -0.00836
96.85 -0.00403
96.9 0.00207
96.95 0.00175
97 0.00044
97.05 -0.004
97.1 -0.00965
97.15 -0.00966
97.2 -0.00845
97.25 -0.01055
97.3 -0.01129
97.35 -0.01271
97.4 -0.01264
97.45 -0.01524
97.5 -0.01932
97.55 -0.01639
97.6 -0.01141
97.65 -0.00798
97.7 -0.0034
97.75 0.00133
97.8 0.00596
97.85 0.0127
97.9 0.01667
97.95 0.02223
98 0.02151
98.05 0.01864
98.1 0.01273
98.15 0.01014
98.2 0.00449
98.25 0.00563
98.3 0.00362
98.35 0.00677
98.4 0.01328
98.45 0.01483
98.5 0.01449
98.55 0.01301
98.6 0.01517
98.65 0.01118
98.7 0.00904
98.75 0.01
98.8 0.00778
98.85 0.00203
98.9 -0.00195
98.95 -0.0034
99 -0.00801
99.05 -0.01482
99.1 -0.0222
99.15 -0.02369
99.2 -0.024
99.25 -0.02579
99.3 -0.02585
99.35 -0.02567
99.4 -0.02165
99.45 -0.0167
99.5 -0.00889
99.55 -0.00073
99.6 0.00322
99.65 0.006
99.7 0.00975
99.75 0.01526
99.8 0.01379
99.85 0.01027
99.9 0.0075
99.95 0.00112
