0 0
0.05 0.00205
0.1 0.00699
0.15 0.01294
0.2 0.02174
0.25 0.02986
0.3 0.03357
0.35 0.03948
0.4 0.04606
0.45 0.04842
0.5 0.04966
0.55 0.05497
0.6 0.06253
0.65 0.0638
0.7 0.06167
0.75 0.05599
0.8 0.04976
0.85 0.04284
0.9 0.03848
0.95 0.03192
1 0.0322
1.05 0.03217
1.1 0.02862
1.15 0.03194
1.2 0.03103
1.25 0.02826
1.3 0.02556
1.35 0.02917
1.4 0.03135
1.45 0.03473
1.5 0.03318
1.55 0.03291
1.6 0.02864
1.65 0.03084
1.7 0.0319
1.75 0.03682
1.8 0.03552
1.85 0.03043
1.9 0.0268
1.95 0.02783
2 0.03357
2.05 0.03518
2.1 0.03383
2.15 0.03387
2.2 0.03303
2.25 0.03318
2.3 0.03648
2.35 0.03646
2.4 0.03976
2.45 0.04139
2.5 0.04595
2.55 0.04336
2.6 0.04127
2.65 0.03673
2.7 0.03597
2.75 0.03334
2.8 0.0331
2.85 0.03676
2.9 0.03376
2.95 0.0294
3 0.0239
3.05 0.02093
3.1 0.02027
3.15 0.02084
3.2 0.02486
3.25 0.02602
3.3 0.02508
3.35 0.02618
3.4 0.02187
3.45 0.02348
3.5 0.01982
3.55 0.01988
3.6 0.0208
3.65 0.02045
3.7 0.02232
3.75 0.02537
3.8 0.02721
3.85 0.03187
3.9 0.03732
3.95 0.03578
4 0.0341
4.05 0.02975
4.1 0.02575
4.15 0.01749
4.2 0.00955
4.25 0.00612
4.3 -0.00011
4.35 -0.0048
4.4 -0.00818
4.45 -0.01103
4.5 -0.01165
4.55 -0.0125
4.6 -0.02274
4.65 -0.04054
4.7 -0.06126
4.75 -0.08745
4.8 -0.11646
4.85 -0.14345
4.9 -0.17273
4.95 -0.20695
5 -0.24468
5.05 -0.28401
5.1 -0.3275
5.15 -0.38035
5.2 -0.44091
5.25 -0.51383
5.3 -0.59105
5.35 -0.67344
5.4 -0.75823
5.45 -0.84611
5.5 -0.94051
5.55 -1.03942
5.6 -1.1397
5.65 -1.24027
5.7 -1.34115
5.75 -1.43979
5.8 -1.53674
5.85 -1.63342
5.9 -1.72973
5.95 -1.81689
6 -1.89709
6.05 -1.97627
6.1 -2.05432
6.15 -2.13103
6.2 -2.19859
6.25 -2.26311
6.3 -2.31867
6.35 -2.36524
6.4 -2.4079
6.45 -2.44937
6.5 -2.47902
6.55 -2.49869
6.6 -2.50576
6.65 -2.50594
6.7 -2.49892
6.75 -2.47923
6.8 -2.4462
6.85 -2.39887
6.9 -2.33045
6.95 -2.24548
7 -2.14336
7.05 -2.02907
7.1 -1.89791
7.15 -1.75452
7.2 -1.59776
7.25 -1.43015
7.3 -1.2487
7.35 -1.05252
7.4 -0.84704
7.45 -0.63947
7.5 -0.42651
7.55 -0.21208
7.6 -0.00583
7.65 0.19577
7.7 0.39287
7.75 0.58441
7.8 0.76389
7.85 0.93506
7.9 1.09408
7.95 1.23827
8 1.37055
8.05 1.49236
8.1 1.60759
8.15 1.70893
8.2 1.80431
8.25 1.89238
8.3 1.96552
8.35 2.02715
8.4 2.07959
8.45 2.12716
8.5 2.16923
8.55 2.19731
8.6 2.21843
8.65 2.23019
8.7 2.23853
8.75 2.23776
8.8 2.2349
8.85 2.23328
8.9 2.22722
8.95 2.21858
9 2.20954
9.05 2.20119
9.1 2.19202
9.15 2.18129
9.2 2.1674
9.25 2.14845
9.3 2.12623
9.35 2.09859
9.4 2.07521
9.45 2.05397
9.5 2.0312
9.55 2.00649
9.6 1.98094
9.65 1.95245
9.7 1.92295
9.75 1.89028
9.8 1.85907
9.85 1.82701
9.9 1.79016
9.95 1.75446
10 1.7129
10.05 1.66867
10.1 1.62691
10.15 1.58053
10.2 1.538
10.25 1.49557
10.3 1.45468
10.35 1.41462
10.4 1.36948
10.45 1.32009
10.5 1.27658
10.55 1.22749
10.6 1.18384
10.65 1.14084
10.7 1.09331
10.75 1.04424
10.8 0.99513
10.85 0.94842
10.9 0.90419
10.95 0.85649
11 0.80576
11.05 0.75359
11.1 0.70912
11.15 0.669
11.2 0.62946
11.25 0.58981
11.3 0.55222
11.35 0.50932
11.4 0.46787
11.45 0.42794
11.5 0.38458
11.55 0.33866
11.6 0.30081
11.65 0.26131
11.7 0.22313
11.75 0.18843
11.8 0.15558
11.85 0.12632
11.9 0.09922
11.95 0.07386
12 0.04876
12.05 0.02648
12.1 0.00022
12.15 -0.02512
12.2 -0.0471
12.25 -0.06669
12.3 -0.09261
12.35 -0.11411
12.4 -0.13338
12.45 -0.15638
12.5 -0.17448
12.55 -0.19664
12.6 -0.21623
12.65 -0.23095
12.7 -0.24293
12.75 -0.25192
12.8 -0.2665
12.85 -0.27712
12.9 -0.29063
12.95 -0.29961
13 -0.31307
13.05 -0.32124
13.1 -0.3275
13.15 -0.33033
13.2 -0.33839
13.25 -0.34231
13.3 -0.34466
13.35 -0.34717
13.4 -0.35071
13.45 -0.36002
13.5 -0.3705
13.55 -0.37368
13.6 -0.37335
13.65 -0.36981
13.7 -0.36603
13.75 -0.3622
13.8 -0.35895
13.85 -0.35716
13.9 -0.36144
13.95 -0.36642
14 -0.37259
14.05 -0.38022
14.1 -0.3862
14.15 -0.388
14.2 -0.38608
14.25 -0.38132
14.3 -0.37497
14.35 -0.36949
14.4 -0.36025
14.45 -0.35318
14.5 -0.34499
14.55 -0.3347
14.6 -0.32711
14.65 -0.32089
14.7 -0.31472
14.75 -0.30693
14.8 -0.30568
14.85 -0.30561
14.9 -0.30294
14.95 -0.30462
15 -0.30317
15.05 -0.30073
15.1 -0.29957
15.15 -0.30127
15.2 -0.30489
15.25 -0.30816
15.3 -0.30411
15.35 -0.30174
15.4 -0.29705
15.45 -0.29158
15.5 -0.28208
15.55 -0.26948
15.6 -0.26412
15.65 -0.25564
15.7 -0.24675
15.75 -0.23997
15.8 -0.23344
15.85 -0.22902
15.9 -0.23065
15.95 -0.23328
16 -0.23206
16.05 -0.22579
16.1 -0.22293
16.15 -0.21613
16.2 -0.21178
16.25 -0.20985
16.3 -0.20446
16.35 -0.19636
16.4 -0.18797
16.45 -0.18135
16.5 -0.17871
16.55 -0.18262
16.6 -0.18742
16.65 -0.19019
16.7 -0.19505
16.75 -0.19383
16.8 -0.18892
16.85 -0.1872
16.9 -0.18141
16.95 -0.18064
17 -0.18311
17.05 -0.17892
17.1 -0.17712
17.15 -0.17548
17.2 -0.17101
17.25 -0.17119
17.3 -0.1709
17.35 -0.16497
17.4 -0.1613
17.45 -0.15325
17.5 -0.14488
17.55 -0.13851
17.6 -0.13379
17.65 -0.1337
17.7 -0.13572
17.75 -0.13508
17.8 -0.13379
17.85 -0.12999
17.9 -0.12704
17.95 -0.12119
18 -0.11372
18.05 -0.10901
18.1 -0.10835
18.15 -0.10695
18.2 -0.1056
18.25 -0.10117
18.3 -0.09732
18.35 -0.09403
18.4 -0.09663
18.45 -0.10254
18.5 -0.10802
18.55 -0.11444
18.6 -0.11728
18.65 -0.11382
18.7 -0.10956
18.75 -0.10472
18.8 -0.10111
18.85 -0.10234
18.9 -0.10202
18.95 -0.1016
19 -0.10067
19.05 -0.09896
19.1 -0.093
19.15 -0.09199
19.2 -0.08661
19.25 -0.08254
19.3 -0.07824
19.35 -0.07494
19.4 -0.07289
19.45 -0.06979
19.5 -0.06763
19.55 -0.06992
19.6 -0.07277
19.65 -0.07546
19.7 -0.07926
19.75 -0.08045
19.8 -0.07684
19.85 -0.07548
19.9 -0.07462
19.95 -0.06929
20 -0.062
20.05 -0.05538
20.1 -0.05532
20.15 -0.05158
20.2 -0.04722
20.25 -0.0481
20.3 -0.05118
20.35 -0.05528
20.4 -0.06265
20.45 -0.07003
20.5 -0.07108
20.55 -0.071
20.6 -0.06999
20.65 -0.06699
20.7 -0.06714
20.75 -0.06256
20.8 -0.0585
20.85 -0.05908
20.9 -0.0565
20.95 -0.04977
21 -0.04273
21.05 -0.03586
21.1 -0.0282
21.15 -0.02216
21.2 -0.01771
21.25 -0.01303
21.3 -0.00842
21.35 -0.00589
21.4 -0.0108
21.45 -0.01881
21.5 -0.02339
21.55 -0.02415
21.6 -0.02363
21.65 -0.02819
21.7 -0.0325
21.75 -0.03541
21.8 -0.0356
21.85 -0.03477
21.9 -0.03179
21.95 -0.03213
22 -0.03158
22.05 -0.03422
22.1 -0.03223
22.15 -0.03452
22.2 -0.03661
22.25 -0.0406
22.3 -0.04209
22.35 -0.03897
22.4 -0.03296
22.45 -0.0278
22.5 -0.02457
22.55 -0.02716
22.6 -0.03187
22.65 -0.03479
22.7 -0.03466
22.75 -0.03643
22.8 -0.0418
22.85 -0.04898
22.9 -0.05328
22.95 -0.05603
23 -0.05399
23.05 -0.05475
23.1 -0.05441
23.15 -0.05536
23.2 -0.05046
23.25 -0.04525
23.3 -0.04093
23.35 -0.03908
23.4 -0.03502
23.45 -0.03582
23.5 -0.03717
23.55 -0.03899
23.6 -0.04111
23.65 -0.03988
23.7 -0.03308
23.75 -0.02938
23.8 -0.02696
23.85 -0.02203
23.9 -0.02124
23.95 -0.02396
24 -0.02321
24.05 -0.0245
24.1 -0.02679
24.15 -0.02674
24.2 -0.02452
24.25 -0.02363
24.3 -0.01935
24.35 -0.01941
24.4 -0.01609
24.45 -0.01166
24.5 -0.00734
24.55 -0.00964
24.6 -0.01271
24.65 -0.01825
24.7 -0.01929
24.75 -0.02047
24.8 -0.0247
24.85 -0.03101
24.9 -0.0339
24.95 -0.03198
25 -0.02999
25.05 -0.02533
25.1 -0.02361
25.15 -0.02016
25.2 -0.02065
25.25 -0.01846
25.3 -0.01284
25.35 -0.01368
25.4 -0.0165
25.45 -0.01723
25.5 -0.01604
25.55 -0.01785
25.6 -0.01463
25.65 -0.01105
25.7 -0.01118
25.75 -0.01331
25.8 -0.01785
25.85 -0.01747
25.9 -0.01889
25.95 -0.01818
26 -0.01657
26.05 -0.01727
26.1 -0.01907
26.15 -0.01843
26.2 -0.01507
26.25 -0.01604
26.3 -0.01239
26.35 -0.01112
26.4 -0.00986
26.45 -0.01147
26.5 -0.0128
26.55 -0.01398
26.6 -0.01632
26.65 -0.01929
26.7 -0.02465
26.75 -0.02937
26.8 -0.03049
26.85 -0.03103
26.9 -0.02487
26.95 -0.01499
27 -0.01117
27.05 -0.00389
27.1 0.00253
27.15 0.0042
27.2 0.00301
27.25 -0.00105
27.3 -0.00355
27.35 -0.00883
27.4 -0.00923
27.45 -0.01016
27.5 -0.00693
27.55 -0.00811
27.6 -0.00597
27.65 -0.00855
27.7 -0.0124
27.75 -0.0101
27.8 -0.0062
27.85 -0.00148
27.9 0.00137
27.95 0.00741
28 0.00891
28.05 0.00888
28.1 0.00934
28.15 0.0048
28.2 0.0004
28.25 -0.00453
28.3 -0.00781
28.35 -0.01245
28.4 -0.01253
28.45 -0.0092
28.5 -0.00922
28.55 -0.00515
28.6 -0.00274
28.65 -0.00181
28.7 0.00242
28.75 0.00773
28.8 0.01128
28.85 0.01039
28.9 0.01214
28.95 0.01109
29 0.01167
29.05 0.01213
29.1 0.00737
29.15 -0.00112
29.2 -0.00491
29.25 -0.00935
29.3 -0.01064
29.35 -0.01155
29.4 -0.01468
29.45 -0.01719
29.5 -0.01433
29.55 -0.0084
29.6 -0.00528
29.65 0.00072
29.7 0.00374
29.75 0.00741
29.8 0.00933
29.85 0.0127
29.9 0.01136
29.95 0.00807
30 0.00379
30.05 0.00292
30.1 -0.00155
30.15 -0.00766
30.2 -0.01148
30.25 -0.01405
30.3 -0.01406
30.35 -0.01139
30.4 -0.01168
30.45 -0.01195
30.5 -0.01113
30.55 -0.01139
30.6 -0.0105
30.65 -0.00766
30.7 -0.00457
30.75 -0.00261
30.8 -0.00214
30.85 0.00012
30.9 0.00471
30.95 0.0042
31 0.00169
31.05 -0.00003
31.1 0.00115
31.15 0.00581
31.2 0.01061
31.25 0.0091
31.3 0.00834
31.35 0.00828
31.4 0.00936
31.45 0.00964
31.5 0.01328
31.55 0.0177
31.6 0.0232
31.65 0.02788
31.7 0.02952
31.75 0.03002
31.8 0.0279
31.85 0.02395
31.9 0.01959
31.95 0.01196
32 0.00739
32.05 0.00761
32.1 0.00762
32.15 0.00735
32.2 0.00354
32.25 -0.00283
32.3 -0.01141
32.35 -0.0176
32.4 -0.02019
32.45 -0.02211
32.5 -0.02465
32.55 -0.02409
32.6 -0.02107
32.65 -0.01461
32.7 -0.00665
32.75 -0.00208
32.8 0.00468
32.85 0.01033
32.9 0.01265
32.95 0.01429
33 0.01277
33.05 0.01084
33.1 0.01078
33.15 0.00935
33.2 0.00707
33.25 0.00785
33.3 0.00543
33.35 0.00134
33.4 -0.00027
33.45 -0.00555
33.5 -0.01256
33.55 -0.01928
33.6 -0.02359
33.65 -0.02825
33.7 -0.02765
33.75 -0.02589
33.8 -0.0228
33.85 -0.01632
33.9 -0.01134
33.95 -0.01166
34 -0.01432
34.05 -0.0194
34.1 -0.01995
34.15 -0.015
34.2 -0.00902
34.25 -0.00858
34.3 -0.00365
34.35 -0.00382
34.4 -0.00118
34.45 0.00299
34.5 0.00069
34.55 0.00353
34.6 0.00838
34.65 0.00816
34.7 0.0036
34.75 -0.00269
34.8 -0.00539
34.85 -0.00298
34.9 0.0013
34.95 0.00572
35 0.01237
35.05 0.01907
35.1 0.02543
35.15 0.02485
35.2 0.01835
35.25 0.01691
35.3 0.01326
35.35 0.01274
35.4 0.01072
35.45 0.01118
35.5 0.01144
35.55 0.01033
35.6 0.01196
35.65 0.0112
35.7 0.01331
35.75 0.01482
35.8 0.01601
35.85 0.01492
35.9 0.00804
35.95 0.00307
36 -0.00447
36.05 -0.00936
36.1 -0.01579
36.15 -0.01633
36.2 -0.01235
36.25 -0.00904
36.3 -0.0027
36.35 0.00393
36.4 0.00994
36.45 0.01049
36.5 0.01014
36.55 0.00908
36.6 0.00994
36.65 0.00596
36.7 0.00372
36.75 0.00037
36.8 -0.00385
36.85 -0.00253
36.9 -0.0005
36.95 -0.00386
37 -0.00264
37.05 -0.00044
37.1 0.00214
37.15 0.00535
37.2 0.00492
37.25 0.00259
37.3 -0.00408
37.35 -0.00676
37.4 -0.0047
37.45 -0.0031
37.5 -0.00678
37.55 -0.01257
37.6 -0.01675
37.65 -0.01953
37.7 -0.02058
37.75 -0.01999
37.8 -0.01975
37.85 -0.02045
37.9 -0.01629
37.95 -0.01571
38 -0.01041
38.05 -0.01036
38.1 -0.00569
38.15 -0.00548
38.2 -0.00315
38.25 0.00044
38.3 0.00101
38.35 0.00306
38.4 0.00387
38.45 0.00279
38.5 0.00487
38.55 0.00286
38.6 0.00288
38.65 0.00025
38.7 -0.00533
38.75 -0.00947
38.8 -0.00973
38.85 -0.01375
38.9 -0.0146
38.95 -0.01333
39 -0.01301
39.05 -0.01048
39.1 -0.01127
39.15 -0.01104
39.2 -0.00895
39.25 -0.00795
39.3 -0.00916
39.35 -0.01358
39.4 -0.01381
39.45 -0.00894
39.5 -0.00239
39.55 -0.00057
39.6 0.00456
39.65 0.00594
39.7 0.00321
39.75 0.00411
39.8 0.00025
39.85 -0.00092
39.9 -0.00136
39.95 0.00011
40 0.00135
40.05 0.00211
40.1 0.00079
40.15 -0.00073
40.2 0.00072
40.25 -0.00216
40.3 0.00042
40.35 0.0037
40.4 0.00672
40.45 0.01117
40.5 0.01648
40.55 0.02069
40.6 0.0173
40.65 0.01248
40.7 0.00791
40.75 0.00317
40.8 0.00102
40.85 -0.0002
40.9 -0.00151
40.95 -0.00267
41 0.00042
41.05 0.00201
41.1 0.00547
41.15 0.00857
41.2 0.00566
41.25 0.00247
41.3 -0.00433
41.35 -0.00399
41.4 -0.00296
41.45 0.00094
41.5 -0.00001
41.55 -0.0031
41.6 -0.00283
41.65 -0.00212
41.7 -0.00392
41.75 -0.00052
41.8 0.00437
41.85 0.01093
41.9 0.0117
41.95 0.01013
42 0.00787
42.05 0.0053
42.1 0.00618
42.15 0.00382
42.2 -0.00118
42.25 -0.00186
42.3 -0.00285
42.35 -0.00387
42.4 -0.00481
42.45 -0.00418
42.5 -0.00638
42.55 -0.00419
42.6 -0.00253
42.65 -0.0001
42.7 -0.00317
42.75 -0.00436
42.8 -0.00239
42.85 -0.00082
42.9 -0.00044
42.95 -0.00373
43 -0.00777
43.05 -0.01312
43.1 -0.01957
43.15 -0.0218
43.2 -0.01891
43.25 -0.01915
43.3 -0.01689
43.35 -0.01236
43.4 -0.00678
43.45 -0.00247
43.5 0.0018
43.55 0.00366
43.6 0.00462
43.65 0.0086
43.7 0.00958
43.75 0.00652
43.8 0.00568
43.85 0.00005
43.9 -0.00671
43.95 -0.01069
44 -0.0166
44.05 -0.02165
44.1 -0.02418
44.15 -0.02549
44.2 -0.02781
44.25 -0.02906
44.3 -0.03103
44.35 -0.02959
44.4 -0.02463
44.45 -0.0185
44.5 -0.01255
44.55 -0.00665
44.6 -0.00032
44.65 0.00388
44.7 0.00719
44.75 0.00993
44.8 0.00771
44.85 0.00925
44.9 0.00877
44.95 0.01068
45 0.01419
45.05 0.01736
45.1 0.01701
45.15 0.01357
45.2 0.01233
45.25 0.00591
45.3 -0.00177
45.35 -0.00964
45.4 -0.01818
45.45 -0.02502
45.5 -0.02788
45.55 -0.02425
45.6 -0.02225
45.65 -0.02333
45.7 -0.02114
45.75 -0.01876
45.8 -0.0144
45.85 -0.00576
45.9 0.00223
45.95 0.0089
46 0.01483
46.05 0.01528
46.1 0.0168
46.15 0.0184
46.2 0.01572
46.25 0.01239
46.3 0.00821
46.35 0.00551
46.4 0.00419
46.45 0.00215
46.5 -0.00052
46.55 0.00107
46.6 0.00664
46.65 0.01156
46.7 0.01376
46.75 0.01014
46.8 0.0077
46.85 0.00189
46.9 -0.00612
46.95 -0.01469
47 -0.02139
47.05 -0.02414
47.1 -0.02566
47.15 -0.02789
47.2 -0.02281
47.25 -0.01902
47.3 -0.01726
47.35 -0.01295
47.4 -0.00783
47.45 -0.00667
47.5 -0.00713
47.55 -0.00625
47.6 -0.00944
47.65 -0.01171
47.7 -0.01299
47.75 -0.01494
47.8 -0.01079
47.85 -0.00302
47.9 0.00339
47.95 0.01014
48 0.00938
48.05 0.00726
48.1 0.0058
48.15 0.00817
48.2 0.00689
48.25 0.00678
48.3 0.00359
48.35 0.0017
48.4 -0.00173
48.45 -0.00706
48.5 -0.00851
48.55 -0.01119
48.6 -0.01443
48.65 -0.0149
48.7 -0.01024
48.75 -0.00875
48.8 -0.00597
48.85 -0.00052
48.9 -0.00075
48.95 0.00022
49 0.00554
49.05 0.00574
49.1 0.00346
49.15 0.00197
49.2 -0.00189
49.25 -0.00479
49.3 -0.00798
49.35 -0.01327
49.4 -0.01826
49.45 -0.02252
49.5 -0.02506
49.55 -0.02289
49.6 -0.01838
49.65 -0.00931
49.7 -0.00344
49.75 -0.00346
49.8 -0.00562
49.85 -0.008
49.9 -0.00744
49.95 -0.00663
50 -0.00067
50.05 0.00475
50.1 0.00618
50.15 0.00715
50.2 0.00568
50.25 0.00024
50.3 -0.00519
50.35 -0.00887
50.4 -0.00662
50.45 -0.00417
50.5 -0.00033
50.55 0.0031
50.6 0.00697
50.65 0.01044
50.7 0.00944
50.75 0.01226
50.8 0.01472
50.85 0.01471
50.9 0.0167
50.95 0.02162
51 0.01995
51.05 0.01341
51.1 0.01196
51.15 0.00714
51.2 0.00821
51.25 0.00778
51.3 0.00378
51.35 -0.0027
51.4 -0.00684
51.45 -0.0099
51.5 -0.00935
51.55 -0.00987
51.6 -0.00741
51.65 -0.00608
51.7 -0.00079
51.75 -0.00093
51.8 -0.00509
51.85 -0.00615
51.9 -0.00379
51.95 0.00024
52 0.00411
52.05 0.00307
52.1 0.00191
52.15 -0.00027
52.2 0.0022
52.25 0.00106
52.3 0.0001
52.35 -0.0014
52.4 0.001
52.45 -0.00122
52.5 -0.0063
52.55 -0.01169
52.6 -0.01806
52.65 -0.02051
52.7 -0.02231
52.75 -0.02417
52.8 -0.01821
52.85 -0.01645
52.9 -0.01608
52.95 -0.01289
53 -0.01031
53.05 -0.00694
53.1 -0.00555
53.15 -0.0068
53.2 -0.00298
53.25 -0.00422
53.3 -0.00267
53.35 0.00369
53.4 0.00503
53.45 0.00957
53.5 0.01198
53.55 0.01627
53.6 0.01404
53.65 0.01285
53.7 0.01415
53.75 0.01482
53.8 0.01372
53.85 0.01242
53.9 0.01495
53.95 0.01269
54 0.01165
54.05 0.01459
54.1 0.01398
54.15 0.00948
54.2 0.00905
54.25 0.00509
54.3 0.00414
54.35 0.00486
54.4 0.00449
54.45 0.00276
54.5 -0.00234
54.55 -0.00856
54.6 -0.01487
54.65 -0.02054
54.7 -0.01796
54.75 -0.01184
54.8 -0.00379
54.85 -0.00253
54.9 -0.00446
54.95 -0.00654
55 -0.01039
55.05 -0.00731
55.1 -0.00846
55.15 -0.00389
55.2 -0.00247
55.25 0.00162
55.3 0.00407
55.35 0.00744
55.4 0.00724
55.45 0.00533
55.5 0.00118
55.55 -0.00471
55.6 -0.01037
55.65 -0.01532
55.7 -0.01374
55.75 -0.00852
55.8 -0.00793
55.85 -0.00517
55.9 -0.00415
55.95 -0.00547
56 -0.00986
56.05 -0.01325
56.1 -0.0171
56.15 -0.01766
56.2 -0.01368
56.25 -0.00513
56.3 -0.00229
56.35 0.0048
56.4 0.01239
56.45 0.02015
56.5 0.02555
56.55 0.02668
56.6 0.02359
56.65 0.02362
56.7 0.02263
56.75 0.02344
56.8 0.02517
56.85 0.02455
56.9 0.01972
56.95 0.01995
57 0.01828
57.05 0.02
57.1 0.02153
57.15 0.02042
57.2 0.01376
57.25 0.00704
57.3 0.00354
57.35 -0.00263
57.4 -0.00812
57.45 -0.01085
57.5 -0.00894
57.55 -0.00283
57.6 0.00514
57.65 0.00635
57.7 0.00435
57.75 0.00515
57.8 0.00768
57.85 0.00635
57.9 0.00411
57.95 0.00058
58 -0.00611
58.05 -0.00875
58.1 -0.0057
58.15 -0.00323
58.2 0.003
58.25 0.00765
58.3 0.01308
58.35 0.01442
58.4 0.01654
58.45 0.01997
58.5 0.02279
58.55 0.01821
58.6 0.01073
58.65 0.00853
58.7 0.00622
58.75 0.00134
58.8 -0.00601
58.85 -0.01224
58.9 -0.0112
58.95 -0.01075
59 -0.01286
59.05 -0.01013
59.1 -0.003
59.15 0.00202
59.2 0.00177
59.25 -0.00168
59.3 -0.00824
59.35 -0.01592
59.4 -0.01627
59.45 -0.01043
59.5 -0.00464
59.55 0.00242
59.6 0.0033
59.65 0.00298
59.7 0.00432
59.75 0.00316
59.8 0.00152
59.85 -0.00386
59.9 -0.00286
59.95 -0.00301
60 0.0006
60.05 0.00496
60.1 0.01046
60.15 0.00901
60.2 0.0037
60.25 0.00294
60.3 0.00505
60.35 0.00673
60.4 0.00566
60.45 0.00694
60.5 0.00682
60.55 0.00784
60.6 0.00559
60.65 0.00825
60.7 0.00784
60.75 0.00712
60.8 0.00639
60.85 0.00978
60.9 0.0128
60.95 0.01665
61 0.02085
61.05 0.02274
61.1 0.02027
61.15 0.01561
61.2 0.01275
61.25 0.01167
61.3 0.00577
61.35 -0.00028
61.4 -0.00772
61.45 -0.01191
61.5 -0.00971
61.55 -0.00943
61.6 -0.00409
61.65 -0.00102
61.7 0.0029
61.75 0.00129
61.8 -0.00403
61.85 -0.00487
61.9 -0.00667
61.95 -0.00411
62 -0.00065
62.05 0.00487
62.1 0.0054
62.15 0.0043
62.2 -0.00069
62.25 -0.0027
62.3 -0.00773
62.35 -0.00656
62.4 -0.00352
62.45 0.00133
62.5 0.00133
62.55 0.00026
62.6 -0.00484
62.65 -0.00679
62.7 -0.0087
62.75 -0.0059
62.8 -0.0054
62.85 -0.00721
62.9 -0.00557
62.95 -0.00041
63 0.00118
63.05 -0.00001
63.1 0.00273
63.15 0.00527
63.2 0.00956
63.25 0.00682
63.3 0.00716
63.35 0.01048
63.4 0.01479
63.45 0.01601
63.5 0.0146
63.55 0.0102
63.6 0.00895
63.65 0.01087
63.7 0.01127
63.75 0.00834
63.8 0.002
63.85 0.00104
63.9 0.00355
63.95 0.00884
64 0.0104
64.05 0.00676
64.1 0.00237
64.15 -0.00015
64.2 -0.00193
64.25 -0.00163
64.3 0.00286
64.35 0.00938
64.4 0.0129
64.45 0.01431
64.5 0.01475
64.55 0.01705
64.6 0.01958
64.65 0.01878
64.7 0.0122
64.75 0.00323
64.8 0.00071
64.85 -0.0044
64.9 -0.00786
64.95 -0.01125
65 -0.01448
65.05 -0.01837
65.1 -0.01822
65.15 -0.01853
65.2 -0.01858
65.25 -0.01822
65.3 -0.02085
65.35 -0.02134
65.4 -0.02264
65.45 -0.01874
65.5 -0.0129
65.55 -0.01074
65.6 -0.01166
65.65 -0.01016
65.7 -0.00854
65.75 -0.00551
65.8 0.00119
65.85 0.00052
65.9 0.0028
65.95 0.00738
66 0.00982
66.05 0.01349
66.1 0.01544
66.15 0.01408
66.2 0.00719
66.25 -0.00163
66.3 -0.00765
66.35 -0.00853
66.4 -0.00702
66.45 -0.00959
66.5 -0.01157
66.55 -0.0077
66.6 -0.00199
66.65 0.0016
66.7 0.00505
66.75 0.00474
66.8 0.00724
66.85 0.00877
66.9 0.00842
66.95 0.01186
67 0.01203
67.05 0.00939
67.1 0.00263
67.15 0.00228
67.2 -0.00285
67.25 -0.00748
67.3 -0.01357
67.35 -0.01496
67.4 -0.01248
67.45 -0.00711
67.5 -0.00368
67.55 -0.00036
67.6 -0.00077
67.65 0.00045
67.7 0.0032
67.75 0.00683
67.8 0.00546
67.85 0.00468
67.9 0.00419
67.95 0.00292
68 0.00616
68.05 0.01173
68.1 0.01617
68.15 0.02108
68.2 0.02324
68.25 0.02185
68.3 0.01571
68.35 0.01426
68.4 0.01546
68.45 0.01713
68.5 0.01184
68.55 0.00631
68.6 0.00356
68.65 0.00524
68.7 0.00229
68.75 0.0008
68.8 0.00039
68.85 -0.00496
68.9 -0.01283
68.95 -0.01389
69 -0.00985
69.05 -0.00941
69.1 -0.01215
69.15 -0.0157
69.2 -0.01336
69.25 -0.01202
69.3 -0.01014
69.35 -0.00405
69.4 -0.00362
69.45 -0.00627
69.5 -0.00932
69.55 -0.01219
69.6 -0.00955
69.65 -0.00996
69.7 -0.00549
69.75 0.00151
69.8 0.00123
69.85 -0.00274
69.9 -0.00685
69.95 -0.00836
70 -0.00777
70.05 -0.00774
70.1 -0.00624
70.15 -0.00278
70.2 -0.00306
70.25 -0.00613
70.3 -0.00564
70.35 -0.00396
70.4 -0.00195
70.45 0.00113
70.5 0.00321
70.55 0.00296
70.6 0.00632
70.65 0.0049
70.7 0.00405
70.75 0.00377
70.8 0.00333
70.85 0.00274
70.9 0.00263
70.95 -0.00143
71 -0.00125
71.05 -0.00571
71.1 -0.00903
71.15 -0.01291
71.2 -0.01432
71.25 -0.01283
71.3 -0.00956
71.35 -0.00371
71.4 -0.00178
71.45 -0.00277
71.5 -0.00535
71.55 -0.00859
71.6 -0.00781
71.65 -0.01141
71.7 -0.00849
71.75 -0.00553
71.8 -0.00009
71.85 0.00772
71.9 0.01443
71.95 0.01795
72 0.01463
72.05 0.01403
72.1 0.00862
72.15 0.00248
72.2 -0.00468
72.25 -0.00526
72.3 -0.00772
72.35 -0.01229
72.4 -0.01018
72.45 -0.00915
72.5 -0.00954
72.55 -0.01232
72.6 -0.01314
72.65 -0.01659
72.7 -0.01538
72.75 -0.01502
72.8 -0.01614
72.85 -0.0111
72.9 -0.00468
72.95 -0.00468
73 -0.00874
73.05 -0.01403
73.1 -0.01216
73.15 -0.01056
73.2 -0.01175
73.25 -0.01158
73.3 -0.01428
73.35 -0.01496
73.4 -0.01312
73.45 -0.01078
73.5 -0.00602
73.55 -0.00291
73.6 0.00019
73.65 -0.00119
73.7 0.00232
73.75 0.00732
73.8 0.00682
73.85 0.00405
73.9 0.00471
73.95 0.00068
74 0.00109
74.05 -0.00131
74.1 -0.00515
74.15 -0.00248
74.2 -0.00464
74.25 -0.0043
74.3 -0.00731
74.35 -0.01285
74.4 -0.01849
74.45 -0.01899
74.5 -0.01421
74.55 -0.01157
74.6 -0.00597
74.65 0.0006
74.7 0.00077
74.75 0.00015
74.8 0.00154
74.85 0.00584
74.9 0.01245
74.95 0.01828
75 0.02288
75.05 0.01963
75.1 0.01967
75.15 0.01547
75.2 0.00709
75.25 -0.00127
75.3 -0.00899
75.35 -0.01154
75.4 -0.01192
75.45 -0.00816
75.5 -0.00356
75.55 0.00162
75.6 0.00083
75.65 -0.00231
75.7 -0.0079
75.75 -0.00824
75.8 -0.00845
75.85 -0.0046
75.9 -0.00305
75.95 -0.00362
76 -0.0007
76.05 0.00414
76.1 0.01115
76.15 0.01104
76.2 0.00592
76.25 0.00073
76.3 -0.00205
76.35 -0.00223
76.4 0.00252
76.45 0.00974
76.5 0.01398
76.55 0.01382
76.6 0.01635
76.65 0.01473
76.7 0.01614
76.75 0.017
76.8 0.01183
76.85 0.00433
76.9 -0.00357
76.95 -0.00404
77 -0.00227
77.05 -0.00023
77.1 -0.00258
77.15 -0.0068
77.2 -0.00866
77.25 -0.01268
77.3 -0.0134
77.35 -0.01416
77.4 -0.01372
77.45 -0.01123
77.5 -0.00875
77.55 -0.00194
77.6 -0.00054
77.65 0.00134
77.7 0.00028
77.75 0.00126
77.8 -0.00194
77.85 0.00013
77.9 -0.00265
77.95 -0.00059
78 -0.00333
78.05 -0.00383
78.1 -0.00823
78.15 -0.00837
78.2 -0.00796
78.25 -0.00298
78.3 0.0027
78.35 0.00498
78.4 0.00756
78.45 0.00673
78.5 0.00918
78.55 0.00628
78.6 0.00431
78.65 0.00352
78.7 0.00147
78.75 -0.0023
78.8 -0.00135
78.85 0.00274
78.9 0.00247
78.95 -0.00089
79 -0.00703
79.05 -0.00828
79.1 -0.01063
79.15 -0.01036
79.2 -0.00723
79.25 -0.00284
79.3 -0.00018
79.35 0.00464
79.4 0.00815
79.45 0.00823
79.5 0.00971
79.55 0.01135
79.6 0.01106
79.65 0.01281
79.7 0.00984
79.75 0.00899
79.8 0.00571
79.85 0.00022
79.9 -0.00036
79.95 -0.00329
80 -0.00942
80.05 -0.01227
80.1 -0.01142
80.15 -0.00568
80.2 -0.0029
80.25 -0.00307
80.3 -0.00736
80.35 -0.01045
80.4 -0.0112
80.45 -0.01032
80.5 -0.0108
80.55 -0.01239
80.6 -0.01459
80.65 -0.0178
80.7 -0.01542
80.75 -0.01567
80.8 -0.0188
80.85 -0.0234
80.9 -0.02877
80.95 -0.02771
81 -0.02865
81.05 -0.0278
81.1 -0.02652
81.15 -0.02709
81.2 -0.02669
81.25 -0.02349
81.3 -0.02188
81.35 -0.01492
81.4 -0.00813
81.45 0.00163
81.5 0.00667
81.55 0.01227
81.6 0.01502
81.65 0.0171
81.7 0.01777
81.75 0.01669
81.8 0.01151
81.85 0.00619
81.9 0.00524
81.95 0.00272
82 0.00116
82.05 0.00152
82.1 0.00037
82.15 -0.00032
82.2 0.00368
82.25 0.00886
82.3 0.01424
82.35 0.01669
82.4 0.01571
82.45 0.01739
82.5 0.02052
82.55 0.02426
82.6 0.02716
82.65 0.02372
82.7 0.01876
82.75 0.01661
82.8 0.01046
82.85 0.00467
82.9 0.00139
82.95 -0.00006
83 -0.00494
83.05 -0.01198
83.1 -0.01161
83.15 -0.01356
83.2 -0.0093
83.25 -0.00222
83.3 -0.00069
83.35 -0.0026
83.4 0.00065
83.45 0.0058
83.5 0.00723
83.55 0.00689
83.6 0.00639
83.65 0.0045
83.7 0.00412
83.75 -0.00023
83.8 -0.00206
83.85 -0.00634
83.9 -0.00869
83.95 -0.00851
84 -0.00618
84.05 -0.00859
84.1 -0.01077
84.15 -0.00955
84.2 -0.00462
84.25 0.00297
84.3 0.00413
84.35 0.00197
84.4 -0.00182
84.45 -0.00166
84.5 -0.00246
84.55 0.00145
84.6 0.00364
84.65 0.00462
84.7 0.00422
84.75 0.00045
84.8 -0.00165
84.85 -0.00713
84.9 -0.00978
84.95 -0.01137
85 -0.00829
85.05 -0.00675
85.1 -0.00384
85.15 0.00181
85.2 0.00345
85.25 0.00576
85.3 0.00318
85.35 0.00204
85.4 -0.00053
85.45 -0.00113
85.5 -0.00202
85.55 -0.00368
85.6 -0.00168
85.65 -0.00098
85.7 -0.00205
85.75 0.00143
85.8 0.00529
85.85 0.01086
85.9 0.01639
85.95 0.0158
86 0.01145
86.05 0.0044
86.1 0.00107
86.15 -0.00118
86.2 -0.00602
86.25 -0.00808
86.3 -0.01148
86.35 -0.01264
86.4 -0.01537
86.45 -0.01697
86.5 -0.01464
86.55 -0.01308
86.6 -0.00975
86.65 -0.00434
86.7 -0.00327
86.75 -0.00188
86.8 -0.00126
86.85 0.00183
86.9 0.00286
86.95 0.00444
87 0.0016
87.05 0.00179
87.1 -0.00211
87.15 -0.00439
87.2 -0.00151
87.25 0.00366
87.3 0.00743
87.35 0.01018
87.4 0.01042
87.45 0.0084
87.5 0.00301
87.55 0.00028
87.6 -0.00061
87.65 0.00107
87.7 -0.00048
87.75 0.00025
87.8 0.00416
87.85 0.00674
87.9 0.00618
87.95 0.00496
88 0.0075
88.05 0.0055
88.1 0.00727
88.15 0.00893
88.2 0.00718
88.25 0.00783
88.3 0.01109
88.35 0.01222
88.4 0.01608
88.45 0.01921
88.5 0.01688
88.55 0.01298
88.6 0.00937
88.65 0.00941
88.7 0.01122
88.75 0.01351
88.8 0.01131
88.85 0.01298
88.9 0.01262
88.95 0.00692
89 0.00628
89.05 0.00315
89.1 -0.00056
89.15 -0.00467
89.2 -0.0028
89.25 -0.00395
89.3 -0.00412
89.35 -0.00125
89.4 -0.0014
89.45 -0.0055
89.5 -0.00983
89.55 -0.01086
89.6 -0.01442
89.65 -0.01714
89.7 -0.01664
89.75 -0.01161
89.8 -0.00928
89.85 -0.01032
89.9 -0.00722
89.95 -0.00335
90 0.00258
90.05 0.00808
90.1 0.01439
90.15 0.01418
90.2 0.01047
90.25 0.00276
90.3 -0.00547
90.35 -0.01187
90.4 -0.01063
90.45 -0.00813
90.5 -0.00201
90.55 0.00011
90.6 0.00398
90.65 0.00968
90.7 0.00807
90.75 0.00807
90.8 0.00492
90.85 -0.00208
90.9 -0.01059
90.95 -0.01738
91 -0.02374
91.05 -0.02485
91.1 -0.0201
91.15 -0.01095
91.2 -0.00796
91.25 -0.00763
91.3 -0.00818
91.35 -0.00418
91.4 -0.00059
91.45 -0.0023
91.5 -0.00235
91.55 -0.0018
91.6 -0.00556
91.65 -0.00461
91.7 -0.00584
91.75 -0.01024
91.8 -0.01271
91.85 -0.01729
91.9 -0.01888
91.95 -0.01691
92 -0.01431
92.05 -0.01325
92.1 -0.01211
92.15 -0.00841
92.2 -0.00218
92.25 0.0029
92.3 0.00717
92.35 0.01238
92.4 0.01126
92.45 0.00794
92.5 0.00548
92.55 0.00679
92.6 0.01057
92.65 0.00877
92.7 0.0047
92.75 -0.00008
92.8 0.001
92.85 0.00632
92.9 0.00715
92.95 0.00959
93 0.00733
93.05 0.00491
93.1 0.00404
93.15 0.00352
93.2 0.00225
93.25 0.00454
93.3 0.00769
93.35 0.01305
93.4 0.01738
93.45 0.02197
93.5 0.02174
93.55 0.01625
93.6 0.01375
93.65 0.0153
93.7 0.01482
93.75 0.01467
93.8 0.01359
93.85 0.00784
93.9 0.00495
93.95 0.00158
94 0.00221
94.05 0.0058
94.1 0.01025
94.15 0.01153
94.2 0.01332
94.25 0.01018
94.3 0.00581
94.35 0.00277
94.4 0.00021
94.45 -0.00019
94.5 -0.00299
94.55 -0.00632
94.6 -0.00604
94.65 -0.0012
94.7 0.00522
94.75 0.0058
94.8 0.00416
94.85 0.00493
94.9 0.00583
94.95 0.00961
95 0.01486
95.05 0.01346
95.1 0.0153
95.15 0.01542
95.2 0.01074
95.25 0.00255
95.3 -0.00381
95.35 -0.00411
95.4 -0.00837
95.45 -0.00622
95.5 -0.00831
95.55 -0.00688
95.6 -0.00819
95.65 -0.0048
95.7 0.00083
95.75 -0.00052
95.8 0.00161
95.85 -0.0012
95.9 -0.00285
95.95 -0.00034
96 0.0037
96.05 0.00155
96.1 -0.0035
96.15 -0.0024
96.2 0.00181
96.25 -0.0005
96.3 0.00138
96.35 0.00598
96.4 0.00574
96.45 0.00888
96.5 0.01243
96.55 0.01641
96.6 0.02023
96.65 0.01836
96.7 0.0108
96.75 0.00429
96.8 -0.00235
96.85 -0.00445
96.9 -0.00956
96.95 -0.01059
97 -0.0134
97.05 -0.0164
97.1 -0.01462
97.15 -0.01662
97.2 -0.01221
97.25 -0.0043
97.3 0.00441
97.35 0.01043
97.4 0.01433
97.45 0.01498
97.5 0.01267
97.55 0.01086
97.6 0.00965
97.65 0.00848
97.7 0.00537
97.75 0.00249
97.8 -0.00433
97.85 -0.00439
97.9 -0.00163
97.95 0.00229
98 0.00343
98.05 0.00803
98.1 0.00908
98.15 0.01247
98.2 0.01005
98.25 0.00479
98.3 0.00078
98.35 -0.0001
98.4 -0.00278
98.45 -0.00529
98.5 -0.01057
98.55 -0.01363
98.6 -0.0112
98.65 -0.00988
98.7 -0.01048
98.75 -0.0071
98.8 -0.00787
98.85 -0.00875
98.9 -0.00575
98.95 -0.00836
99 -0.00968
99.05 -0.00629
99.1 -0.00048
99.15 0.00316
99.2 0.00312
99.25 0.00144
99.3 0.0008
99.35 -0.00044
99.4 -0.00416
99.45 -0.00357
99.5 0.00056
99.55 0.00433
99.6 0.00417
99.65 0.00501
99.7 0.00152
99.75 0.00317
99.8 0.00796
99.85 0.00754
99.9 0.00454
99.95 0.00386
