0 0
0.05 0.0001
0.1 0.00022
0.15 0.00037
0.2 0.00048
0.25 0.00067
0.3 0.00079
0.35 0.00088
0.4 0.00095
0.45 0.00108
0.5 0.00113
0.55 0.00124
0.6 0.00128
0.65 0.00125
0.7 0.00122
0.75 0.0012
0.8 0.00121
0.85 0.00121
0.9 0.00123
0.95 0.00123
1 0.00121
1.05 0.00119
1.1 0.00119
1.15 0.00121
1.2 0.00123
1.25 0.00118
1.3 0.00103
1.35 0.00086
1.4 0.00075
1.45 0.00075
1.5 0.00077
1.55 0.00072
1.6 0.00066
1.65 0.00054
1.7 0.00051
1.75 0.00053
1.8 0.00061
1.85 0.00075
1.9 0.00085
1.95 0.00081
2 0.00069
2.05 0.00061
2.1 0.00061
2.15 0.00069
2.2 0.00072
2.25 0.00074
2.3 0.00066
2.35 0.0006
2.4 0.00061
2.45 0.00058
2.5 0.00052
2.55 0.00049
2.6 0.0004
2.65 0.00029
2.7 0.0003
2.75 0.00024
2.8 0.00025
2.85 0.00026
2.9 0.00023
2.95 0.00023
3 0.00023
3.05 0.00031
3.1 0.00035
3.15 0.00039
3.2 0.00043
3.25 0.00043
3.3 0.00037
3.35 0.00029
3.4 0.00018
3.45 0.0002
3.5 0.00031
3.55 0.00041
3.6 0.00046
3.65 0.00043
3.7 0.00035
3.75 0.00034
3.8 0.00031
3.85 0.00038
3.9 0.00041
3.95 0.00033
4 0.00029
4.05 0.00018
4.1 0.00017
4.15 0.00013
4.2 0.00016
4.25 0.00018
4.3 0.00021
4.35 0.00014
4.4 0.00017
4.45 0.00026
4.5 0.00037
4.55 0.00049
4.6 0.00046
4.65 0.00036
4.7 0.00028
4.75 0.00016
4.8 0.00009
4.85 0.00001
4.9 -0.00006
4.95 -0.00006
5 -0.00008
5.05 -0.00011
5.1 -0.00014
5.15 -0.00009
5.2 -0.00006
5.25 0.00007
5.3 0.00016
5.35 0.00025
5.4 0.00032
5.45 0.00037
5.5 0.00045
5.55 0.00043
5.6 0.00044
5.65 0.00046
5.7 0.00052
5.75 0.00046
5.8 0.00033
5.85 0.00029
5.9 0.00016
5.95 0.00007
6 0.0001
6.05 0.00008
6.1 0.00012
6.15 0.0002
6.2 0.00018
6.25 0.00012
6.3 0.00015
6.35 0.00011
6.4 0.00001
6.45 0.00002
6.5 0.00011
6.55 0.00017
6.6 0.00023
6.65 0.0003
6.7 0.00041
6.75 0.00038
6.8 0.0004
6.85 0.00041
6.9 0.00046
6.95 0.00047
7 0.0005
7.05 0.00046
7.1 0.00042
7.15 0.00032
7.2 0.00025
7.25 0.00027
7.3 0.00019
7.35 0.00006
7.4 -0.00007
7.45 -0.0002
7.5 -0.0003
7.55 -0.00032
7.6 -0.00029
7.65 -0.00017
7.7 0.00001
7.75 0.00018
7.8 0.00025
7.85 0.00021
7.9 0.00009
7.95 -0.00005
8 -0.00018
8.05 -0.00032
8.1 -0.00036
8.15 -0.00034
8.2 -0.00021
8.25 -0.00006
8.3 0.00008
8.35 0.00017
8.4 0.00027
8.45 0.00038
8.5 0.00035
8.55 0.00034
8.6 0.00036
8.65 0.0004
8.7 0.00033
8.75 0.00024
8.8 0.00014
8.85 0.00015
8.9 0.0002
8.95 0.00025
9 0.00027
9.05 0.0002
9.1 0.00018
9.15 0.00019
9.2 0.00013
9.25 0.00016
9.3 0.00023
9.35 0.00018
9.4 0.00006
9.45 -0
9.5 -0.00013
9.55 -0.00026
9.6 -0.00026
9.65 -0.00016
9.7 -0.00002
9.75 0.00015
9.8 0.00017
9.85 0.0002
9.9 0.00023
9.95 0.0002
10 0.00013
10.05 0.00003
10.1 -0.00002
10.15 -0.00008
10.2 -0.00015
10.25 -0.00026
10.3 -0.00025
10.35 -0.00019
10.4 -0.00012
10.45 -0.00007
10.5 -0
10.55 0.00001
10.6 0.00004
10.65 0.00004
10.7 -0
10.75 -0
10.8 0.00007
10.85 0.00015
10.9 0.00016
10.95 0.00014
11 0.00014
11.05 0.00016
11.1 0.00023
11.15 0.00018
11.2 0.00008
11.25 -0.00004
11.3 -0.00013
11.35 -0.00012
11.4 -0.00005
11.45 0
11.5 0.00011
11.55 0.00013
11.6 0.00016
11.65 0.0002
11.7 0.00027
11.75 0.00027
11.8 0.00031
11.85 0.00023
11.9 0.00024
11.95 0.00024
12 0.00029
12.05 0.00029
12.1 0.0002
12.15 0.00006
12.2 0.00003
12.25 -0.00007
12.3 -0.00017
12.35 -0.00018
12.4 -0.00016
12.45 -0.00009
12.5 -0.00007
12.55 -0.00008
12.6 -0.00008
12.65 -0.00008
12.7 -0.00008
12.75 -0.00016
12.8 -0.00015
12.85 -0.00017
12.9 -0.00025
12.95 -0.00032
13 -0.00028
13.05 -0.00028
13.1 -0.00023
13.15 -0.00016
13.2 -0.00003
13.25 0.00003
13.3 0.00002
13.35 0.00002
13.4 0.00009
13.45 0.00017
13.5 0.00018
13.55 0.00013
13.6 0.0001
13.65 0.00012
13.7 0.00014
13.75 0.0002
13.8 0.00014
13.85 0.00005
13.9 0.00004
13.95 -0.00006
14 -0.00017
14.05 -0.00017
14.1 -0.00023
14.15 -0.00026
14.2 -0.00021
14.25 -0.00011
14.3 -0.00003
14.35 -0.00002
14.4 -0.00011
14.45 -0.0002
14.5 -0.0003
14.55 -0.0003
14.6 -0.00024
14.65 -0.0002
14.7 -0.00018
14.75 -0.00019
14.8 -0.00027
14.85 -0.00027
14.9 -0.00033
14.95 -0.00041
15 -0.00033
15.05 -0.0003
15.1 -0.00018
15.15 -0.0001
15.2 -0.00004
15.25 0.00002
15.3 0.0001
15.35 0.00016
15.4 0.00026
15.45 0.00035
15.5 0.00041
15.55 0.00044
15.6 0.00048
15.65 0.00054
15.7 0.00061
15.75 0.00055
15.8 0.00044
15.85 0.00031
15.9 0.00011
15.95 -0.00003
16 -0.00018
16.05 -0.00026
16.1 -0.00022
16.15 -0.00019
16.2 -0.00011
16.25 -0.00013
16.3 -0.00008
16.35 -0.00003
16.4 -0.00007
16.45 -0.00008
16.5 -0.00006
16.55 0.00002
16.6 0.00014
16.65 0.00014
16.7 0.00014
16.75 0.00021
16.8 0.0003
16.85 0.0003
16.9 0.00032
16.95 0.00027
17 0.0002
17.05 0.00011
17.1 0.00011
17.15 0.00009
17.2 0
17.25 -0.00003
17.3 -0.00006
17.35 0.00001
17.4 0.00007
17.45 0.00001
17.5 -0.00002
17.55 -0.00006
17.6 -0.00006
17.65 -0
17.7 0.00011
17.75 0.0002
17.8 0.00022
17.85 0.00019
17.9 0.00013
17.95 0.00011
18 0.00002
18.05 -0.00008
18.1 -0.00017
18.15 -0.0003
18.2 -0.00029
18.25 -0.00034
18.3 -0.00037
18.35 -0.0004
18.4 -0.00047
18.45 -0.00044
18.5 -0.00035
18.55 -0.00034
18.6 -0.00035
18.65 -0.00039
18.7 -0.00046
18.75 -0.00054
18.8 -0.00049
18.85 -0.00041
18.9 -0.00038
18.95 -0.00035
19 -0.00037
19.05 -0.00043
19.1 -0.00051
19.15 -0.00053
19.2 -0.00052
19.25 -0.00052
19.3 -0.0005
19.35 -0.00042
19.4 -0.00034
19.45 -0.0003
19.5 -0.00018
19.55 -0.00016
19.6 -0.00014
19.65 -0.00008
19.7 -0.00006
19.75 -0.00005
19.8 -0.0001
19.85 -0.00015
19.9 -0.00022
19.95 -0.00026
20 -0.00021
20.05 -0.0002
20.1 -0.00022
20.15 -0.00027
20.2 -0.0003
20.25 -0.00027
20.3 -0.00017
20.35 -0.00003
20.4 0
20.45 0.00001
20.5 -0.00005
20.55 -0.00004
20.6 0.00005
20.65 0.00003
20.7 -0.00003
20.75 -0.00008
20.8 -0.00007
20.85 -0.00011
20.9 -0.00005
20.95 0.00005
21 0.00016
21.05 0.00018
21.1 0.00023
21.15 0.00021
21.2 0.00015
21.25 0.00019
21.3 0.00024
21.35 0.00022
21.4 0.00013
21.45 0.00001
21.5 -0.00007
21.55 -0.00006
21.6 -0.00006
21.65 -0.00006
21.7 -0.00002
21.75 0.00005
21.8 0.00006
21.85 0.00002
21.9 -0.00009
21.95 -0.00017
22 -0.00027
22.05 -0.00023
22.1 -0.00023
22.15 -0.00024
22.2 -0.00025
22.25 -0.0003
22.3 -0.00037
22.35 -0.00043
22.4 -0.00033
22.45 -0.00027
22.5 -0.00023
22.55 -0.00015
22.6 -0.00004
22.65 -0.00001
22.7 0.00011
22.75 0.00013
22.8 0.00007
22.85 0.00013
22.9 0.00018
22.95 0.00028
23 0.00027
23.05 0.0003
23.1 0.00029
23.15 0.00035
23.2 0.00037
23.25 0.00027
23.3 0.00015
23.35 0.00015
23.4 0.00008
23.45 0.00002
23.5 -0.00008
23.55 -0.00022
23.6 -0.00035
23.65 -0.00031
23.7 -0.00023
23.75 -0.00008
23.8 -0.00002
23.85 -0.00002
23.9 0
23.95 0.0001
24 0.00017
24.05 0.00014
24.1 0.00008
24.15 0.00007
24.2 0.00009
24.25 0.00012
24.3 0.0002
24.35 0.00033
24.4 0.00039
24.45 0.0005
24.5 0.0006
24.55 0.0006
24.6 0.00065
24.65 0.0007
24.7 0.00065
24.75 0.00061
24.8 0.0006
24.85 0.00048
24.9 0.0003
24.95 0.00014
25 0.00003
25.05 -0.00003
25.1 -0.00008
25.15 -0.00014
25.2 -0.0002
25.25 -0.00021
25.3 -0.00017
25.35 -0.00018
25.4 -0.0002
25.45 -0.00026
25.5 -0.00018
25.55 -0.00007
25.6 0.00001
25.65 -0.00002
25.7 -0.0001
25.75 -0.00006
25.8 -0.0001
25.85 -0.00018
25.9 -0.00015
25.95 -0.00005
26 0.00006
26.05 0.00021
26.1 0.00035
26.15 0.00038
26.2 0.00044
26.25 0.00048
26.3 0.0004
26.35 0.00034
26.4 0.00025
26.45 0.00012
26.5 -0.00003
26.55 -0.00011
26.6 -0.00015
26.65 -0.0002
26.7 -0.00023
26.75 -0.00022
26.8 -0.00019
26.85 -0.00011
26.9 -0.00001
26.95 0.00011
27 0.00021
27.05 0.0003
27.1 0.00032
27.15 0.00037
27.2 0.00038
27.25 0.00027
27.3 0.00024
27.35 0.00019
27.4 0.00008
27.45 -0.00005
27.5 -0.00018
27.55 -0.00019
27.6 -0.00014
27.65 -0.0001
27.7 0.00002
27.75 0.00005
27.8 0.0001
27.85 0.00014
27.9 0.00006
27.95 -0
28 -0.00003
28.05 -0.00004
28.1 0.00002
28.15 0.0001
28.2 0.00018
28.25 0.0002
28.3 0.00027
28.35 0.00025
28.4 0.0003
28.45 0.00035
28.5 0.00036
28.55 0.00034
28.6 0.00028
28.65 0.00027
28.7 0.00027
28.75 0.00029
28.8 0.00026
28.85 0.00019
28.9 0.00019
28.95 0.00022
29 0.00013
29.05 0.00009
29.1 0.00001
29.15 -0.00009
29.2 -0.00023
29.25 -0.00039
29.3 -0.00057
29.35 -0.00068
29.4 -0.00091
29.45 -0.00112
29.5 -0.00136
29.55 -0.00161
29.6 -0.002
29.65 -0.00249
29.7 -0.00298
29.75 -0.00346
29.8 -0.00402
29.85 -0.00469
29.9 -0.00544
29.95 -0.00639
30 -0.00739
30.05 -0.0086
30.1 -0.01003
30.15 -0.01156
30.2 -0.01329
30.25 -0.01504
30.3 -0.01698
30.35 -0.01903
30.4 -0.02115
30.45 -0.02338
30.5 -0.02577
30.55 -0.02814
30.6 -0.0305
30.65 -0.03286
30.7 -0.03521
30.75 -0.03751
30.8 -0.03964
30.85 -0.04159
30.9 -0.04321
30.95 -0.04458
31 -0.04563
31.05 -0.04624
31.1 -0.04636
31.15 -0.04594
31.2 -0.04494
31.25 -0.04345
31.3 -0.04144
31.35 -0.03892
31.4 -0.03583
31.45 -0.03228
31.5 -0.02829
31.55 -0.02403
31.6 -0.01956
31.65 -0.01491
31.7 -0.01004
31.75 -0.00519
31.8 -0.00034
31.85 0.00426
31.9 0.00851
31.95 0.0124
32 0.01572
32.05 0.01852
32.1 0.02061
32.15 0.02198
32.2 0.02251
32.25 0.02231
32.3 0.02133
32.35 0.01973
32.4 0.01753
32.45 0.01473
32.5 0.01145
32.55 0.00775
32.6 0.00377
32.65 -0.00034
32.7 -0.0045
32.75 -0.00858
32.8 -0.01244
32.85 -0.01598
32.9 -0.01911
32.95 -0.0216
33 -0.02352
33.05 -0.02462
33.1 -0.02489
33.15 -0.02435
33.2 -0.02307
33.25 -0.02102
33.3 -0.01818
33.35 -0.01471
33.4 -0.01062
33.45 -0.00603
33.5 -0.00103
33.55 0.00428
33.6 0.00977
33.65 0.01547
33.7 0.02126
33.75 0.02706
33.8 0.03285
33.85 0.03847
33.9 0.04389
33.95 0.04897
34 0.05352
34.05 0.05769
34.1 0.06143
34.15 0.06461
34.2 0.06732
34.25 0.06946
34.3 0.07105
34.35 0.07211
34.4 0.07278
34.45 0.07296
34.5 0.07262
34.55 0.07187
34.6 0.07084
34.65 0.06941
34.7 0.06773
34.75 0.06575
34.8 0.06347
34.85 0.06107
34.9 0.05853
34.95 0.05585
35 0.05292
35.05 0.04989
35.1 0.04675
35.15 0.04349
35.2 0.04031
35.25 0.03717
35.3 0.03403
35.35 0.03091
35.4 0.02789
35.45 0.02501
35.5 0.02221
35.55 0.0194
35.6 0.01677
35.65 0.01413
35.7 0.01167
35.75 0.00932
35.8 0.00703
35.85 0.00479
35.9 0.00273
35.95 0.00073
36 -0.0012
36.05 -0.00301
36.1 -0.00467
36.15 -0.00612
36.2 -0.00745
36.25 -0.00856
36.3 -0.00956
36.35 -0.01047
36.4 -0.01135
36.45 -0.01219
36.5 -0.01287
36.55 -0.01349
36.6 -0.01408
36.65 -0.01459
36.7 -0.01499
36.75 -0.01533
36.8 -0.01556
36.85 -0.01569
36.9 -0.01585
36.95 -0.01603
37 -0.01609
37.05 -0.0162
37.1 -0.01619
37.15 -0.01622
37.2 -0.01628
37.25 -0.01621
37.3 -0.01607
37.35 -0.01586
37.4 -0.01563
37.45 -0.01546
37.5 -0.01523
37.55 -0.01497
37.6 -0.01468
37.65 -0.01446
37.7 -0.01417
37.75 -0.01393
37.8 -0.01368
37.85 -0.01344
37.9 -0.01313
37.95 -0.01274
38 -0.01243
38.05 -0.01206
38.1 -0.01161
38.15 -0.01125
38.2 -0.01082
38.25 -0.01039
38.3 -0.00997
38.35 -0.00959
38.4 -0.0092
38.45 -0.0089
38.5 -0.00872
38.55 -0.0086
38.6 -0.00852
38.65 -0.00837
38.7 -0.00823
38.75 -0.00805
38.8 -0.00776
38.85 -0.00753
38.9 -0.0073
38.95 -0.00711
39 -0.00695
39.05 -0.00674
39.1 -0.0065
39.15 -0.00629
39.2 -0.0061
39.25 -0.00577
39.3 -0.00542
39.35 -0.00515
39.4 -0.00492
39.45 -0.00462
39.5 -0.00444
39.55 -0.00433
39.6 -0.00423
39.65 -0.00407
39.7 -0.00396
39.75 -0.00383
39.8 -0.00364
39.85 -0.00352
39.9 -0.00344
39.95 -0.00335
40 -0.00332
40.05 -0.00322
40.1 -0.00319
40.15 -0.00318
40.2 -0.00314
40.25 -0.00312
40.3 -0.00309
40.35 -0.00296
40.4 -0.0028
40.45 -0.0027
40.5 -0.00266
40.55 -0.00259
40.6 -0.00245
40.65 -0.00229
40.7 -0.00222
40.75 -0.00218
40.8 -0.0021
40.85 -0.00203
40.9 -0.00188
40.95 -0.0018
41 -0.00177
41.05 -0.00167
41.1 -0.00152
41.15 -0.00138
41.2 -0.00137
41.25 -0.00146
41.3 -0.00159
41.35 -0.00173
41.4 -0.00186
41.45 -0.00191
41.5 -0.00195
41.55 -0.00193
41.6 -0.00194
41.65 -0.00187
41.7 -0.00185
41.75 -0.00174
41.8 -0.00168
41.85 -0.00155
41.9 -0.00149
41.95 -0.00148
42 -0.00145
42.05 -0.00136
42.1 -0.00133
42.15 -0.00137
42.2 -0.00137
42.25 -0.00143
42.3 -0.00135
42.35 -0.00129
42.4 -0.0013
42.45 -0.00134
42.5 -0.00134
42.55 -0.00139
42.6 -0.00146
42.65 -0.00143
42.7 -0.00145
42.75 -0.00133
42.8 -0.00114
42.85 -0.00107
42.9 -0.00097
42.95 -0.00091
43 -0.0009
43.05 -0.0009
43.1 -0.0008
43.15 -0.0007
43.2 -0.00065
43.25 -0.00068
43.3 -0.00076
43.35 -0.00082
43.4 -0.00085
43.45 -0.00092
43.5 -0.00091
43.55 -0.00088
43.6 -0.0009
43.65 -0.00082
43.7 -0.00073
43.75 -0.00067
43.8 -0.00067
43.85 -0.0006
43.9 -0.00062
43.95 -0.00069
44 -0.00076
44.05 -0.00072
44.1 -0.00069
44.15 -0.00074
44.2 -0.0007
44.25 -0.00071
44.3 -0.00066
44.35 -0.00061
44.4 -0.00064
44.45 -0.00063
44.5 -0.0006
44.55 -0.0006
44.6 -0.00051
44.65 -0.00048
44.7 -0.00043
44.75 -0.00044
44.8 -0.00038
44.85 -0.00038
44.9 -0.00033
44.95 -0.00034
45 -0.00028
45.05 -0.00026
45.1 -0.00028
45.15 -0.0003
45.2 -0.00037
45.25 -0.00046
45.3 -0.00054
45.35 -0.00055
45.4 -0.00058
45.45 -0.0006
45.5 -0.00062
45.55 -0.00057
45.6 -0.00055
45.65 -0.00059
45.7 -0.00052
45.75 -0.0005
45.8 -0.00039
45.85 -0.00026
45.9 -0.00012
45.95 0.00004
46 0.00021
46.05 0.00032
46.1 0.0004
46.15 0.00045
46.2 0.00034
46.25 0.00028
46.3 0.00018
46.35 0.00006
46.4 -0.00007
46.45 -0.00021
46.5 -0.00037
46.55 -0.00053
46.6 -0.00055
46.65 -0.00062
46.7 -0.0007
46.75 -0.00066
46.8 -0.00067
46.85 -0.0006
46.9 -0.00059
46.95 -0.00059
47 -0.00053
47.05 -0.00054
47.1 -0.00048
47.15 -0.00047
47.2 -0.00048
47.25 -0.00052
47.3 -0.00049
47.35 -0.00043
47.4 -0.00028
47.45 -0.00025
47.5 -0.00015
47.55 -0.00004
47.6 0.00007
47.65 0.0001
47.7 0.00019
47.75 0.00017
47.8 0.00019
47.85 0.00022
47.9 0.00023
47.95 0.00013
48 0.00006
48.05 0.00001
48.1 -0.0001
48.15 -0.00011
48.2 -0.00007
48.25 -0.0001
48.3 -0.00009
48.35 -0.00009
48.4 -0.00014
48.45 -0.00014
48.5 -0.00007
48.55 -0.0001
48.6 -0.00019
48.65 -0.00019
48.7 -0.00025
48.75 -0.00029
48.8 -0.0003
48.85 -0.00033
48.9 -0.00024
48.95 -0.00021
49 -0.0001
49.05 -0.00001
49.1 -0.00002
49.15 -0.00001
49.2 -0.00006
49.25 -0.00013
49.3 -0.00024
49.35 -0.00021
49.4 -0.00017
49.45 -0.00012
49.5 -0.00009
49.55 -0
49.6 0.00008
49.65 0.00005
49.7 0.00005
49.75 -0.00001
49.8 0
49.85 0.00004
49.9 0.00008
49.95 0.00003
50 -0.00002
50.05 -0.00001
50.1 0.00007
50.15 0.00017
50.2 0.00015
50.25 0.00011
50.3 0.00014
50.35 0.00009
50.4 0.00012
50.45 0.00004
50.5 -0.00003
50.55 -0.00003
50.6 -0.00006
50.65 -0.00002
50.7 0
50.75 0.00005
50.8 0
50.85 -0.00008
50.9 -0.00015
50.95 -0.00018
51 -0.00012
51.05 -0.00007
51.1 -0.00005
51.15 -0.00011
51.2 -0.00015
51.25 -0.00013
51.3 -0.00017
51.35 -0.00025
51.4 -0.00036
51.45 -0.00046
51.5 -0.00054
51.55 -0.00058
51.6 -0.00057
51.65 -0.0006
51.7 -0.00064
51.75 -0.00057
51.8 -0.0004
51.85 -0.00029
51.9 -0.00014
51.95 -0.00006
52 0.00002
52.05 0
52.1 0.00008
52.15 0.00011
52.2 0.00006
52.25 0.0001
52.3 0.00012
52.35 0.00019
52.4 0.00018
52.45 0.0002
52.5 0.00023
52.55 0.00029
52.6 0.00037
52.65 0.00042
52.7 0.00047
52.75 0.00049
52.8 0.0004
52.85 0.00027
52.9 0.00008
52.95 -0.00001
53 -0.00001
53.05 -0.00008
53.1 -0.00008
53.15 -0.00007
53.2 0
53.25 0
53.3 -0.00001
53.35 0.00005
53.4 0.0001
53.45 0.00013
53.5 0.00009
53.55 0.00006
53.6 0.00008
53.65 -0
53.7 -0.00013
53.75 -0.00014
53.8 -0.00019
53.85 -0.00024
53.9 -0.00031
53.95 -0.0003
54 -0.00024
54.05 -0.00019
54.1 -0.00016
54.15 -0.00009
54.2 0.00005
54.25 0.00018
54.3 0.00026
54.35 0.00024
54.4 0.00019
54.45 0.00012
54.5 0.0001
54.55 0.00007
54.6 0.00004
54.65 -0.00003
54.7 -0.00009
54.75 -0.0002
54.8 -0.00025
54.85 -0.00019
54.9 -0.00012
54.95 -0.00014
55 -0.00019
55.05 -0.00026
55.1 -0.00032
55.15 -0.00038
55.2 -0.0004
55.25 -0.00037
55.3 -0.00032
55.35 -0.00031
55.4 -0.00022
55.45 -0.00019
55.5 -0.00017
55.55 -0.00015
55.6 -0.0002
55.65 -0.00022
55.7 -0.00022
55.75 -0.00028
55.8 -0.00034
55.85 -0.00041
55.9 -0.00047
55.95 -0.00039
56 -0.00031
56.05 -0.00032
56.1 -0.00025
56.15 -0.00015
56.2 -0.00001
56.25 0.00012
56.3 0.00025
56.35 0.0003
56.4 0.00026
56.45 0.00015
56.5 0.00004
56.55 0.00003
56.6 -0.00003
56.65 0
56.7 0.00011
56.75 0.00016
56.8 0.00019
56.85 0.00026
56.9 0.00037
56.95 0.00034
57 0.00031
57.05 0.00028
57.1 0.00031
57.15 0.00025
57.2 0.00011
57.25 0.00001
57.3 -0.00012
57.35 -0.00025
57.4 -0.00037
57.45 -0.00048
57.5 -0.00044
57.55 -0.00033
57.6 -0.00018
57.65 -0.00005
57.7 0.00004
57.75 0.00012
57.8 0.00013
57.85 0.0002
57.9 0.00019
57.95 0.00008
58 0.00008
58.05 0.00005
58.1 -0.00003
58.15 -0.00003
58.2 -0.00003
58.25 -0.00004
58.3 -0.00007
58.35 -0.0001
58.4 -0.00004
58.45 -0
58.5 -0
58.55 -0.00007
58.6 -0.00012
58.65 -0.00006
58.7 0.00002
58.75 0.00003
58.8 -0.00004
58.85 0
58.9 0.00007
58.95 0.00006
59 -0.00001
59.05 -0.00003
59.1 -0.00003
59.15 0.00002
59.2 0.00009
59.25 0.00011
59.3 0.0001
59.35 0.00007
59.4 0.0001
59.45 0.00008
59.5 0
59.55 -0.00009
59.6 -0.00008
59.65 -0.00007
59.7 -0.00007
59.75 0
59.8 0.00005
59.85 0.00014
59.9 0.0002
59.95 0.0003
60 0.00031
60.05 0.00021
60.1 0.00018
60.15 0.00009
60.2 0
60.25 -0.00001
60.3 0
60.35 -0.00002
60.4 -0.00005
60.45 -0.00009
60.5 -0.00017
60.55 -0.00026
60.6 -0.00033
60.65 -0.0003
60.7 -0.00031
60.75 -0.00036
60.8 -0.00036
60.85 -0.00024
60.9 -0.00014
60.95 -0.00001
61 0.00016
61.05 0.00026
61.1 0.00026
61.15 0.00026
61.2 0.00024
61.25 0.00022
61.3 0.00017
61.35 0.00013
61.4 0.00002
61.45 -0
61.5 0
61.55 0.00003
61.6 0.00006
61.65 0.00009
61.7 0.00011
61.75 0.00008
61.8 0.00001
61.85 -0.00006
61.9 -0.00012
61.95 -0.00008
62 -0.00007
62.05 0.00002
62.1 0.00008
62.15 0.00017
62.2 0.00019
62.25 0.00027
62.3 0.00021
62.35 0.00019
62.4 0.00014
62.45 0.00004
62.5 0.00004
62.55 0.00008
62.6 0.00015
62.65 0.00022
62.7 0.00033
62.75 0.00029
62.8 0.00019
62.85 0.00017
62.9 0.00007
62.95 0.00001
63 -0.00007
63.05 -0.00018
63.1 -0.00031
63.15 -0.00036
63.2 -0.00045
63.25 -0.00039
63.3 -0.00037
63.35 -0.00024
63.4 -0.00018
63.45 -0.00013
63.5 -0.00009
63.55 0.00002
63.6 0.0001
63.65 0.00019
63.7 0.00027
63.75 0.00024
63.8 0.00017
63.85 0.00017
63.9 0.00018
63.95 0.00026
64 0.00022
64.05 0.00025
64.1 0.00029
64.15 0.00028
64.2 0.00026
64.25 0.0002
64.3 0.00007
64.35 -0.00011
64.4 -0.00021
64.45 -0.00019
64.5 -0.0001
64.55 -0.0001
64.6 -0.0001
64.65 -0.00014
64.7 -0.00017
64.75 -0.00015
64.8 -0.00004
64.85 -0.00003
64.9 0.00005
64.95 0.00009
65 0.00008
65.05 0
65.1 -0.00002
65.15 -0.00004
65.2 -0.00011
65.25 -0.00011
65.3 -0.00017
65.35 -0.00013
65.4 -0.00007
65.45 0.00002
65.5 0.00014
65.55 0.00024
65.6 0.00035
65.65 0.0004
65.7 0.00046
65.75 0.00042
65.8 0.00039
65.85 0.00034
65.9 0.00024
65.95 0.00024
66 0.00018
66.05 0.0002
66.1 0.00012
66.15 0.00009
66.2 0.00006
66.25 0.00006
66.3 0.00007
66.35 0.00012
66.4 0.00015
66.45 0.00023
66.5 0.00018
66.55 0.00013
66.6 0.00005
66.65 0.00002
66.7 0.00002
66.75 0.00004
66.8 0.00008
66.85 0.00009
66.9 0.00002
66.95 0.00004
67 0.00008
67.05 0.00004
67.1 -0.00002
67.15 -0.00015
67.2 -0.0003
67.25 -0.00033
67.3 -0.00036
67.35 -0.00027
67.4 -0.00028
67.45 -0.00035
67.5 -0.0003
67.55 -0.00021
67.6 -0.0001
67.65 0.00006
67.7 0.00023
67.75 0.00036
67.8 0.00032
67.85 0.00031
67.9 0.00018
67.95 0.00017
68 0.00006
68.05 -0.00005
68.1 -0.00013
68.15 -0.00024
68.2 -0.00025
68.25 -0.00026
68.3 -0.0003
68.35 -0.00031
68.4 -0.00022
68.45 -0.00019
68.5 -0.00021
68.55 -0.00024
68.6 -0.0002
68.65 -0.00017
68.7 -0.00019
68.75 -0.00019
68.8 -0.00014
68.85 -0.00006
68.9 0.00008
68.95 0.00012
69 0.00015
69.05 0.00024
69.1 0.00019
69.15 0.00011
69.2 0.00008
69.25 0
69.3 -0.00004
69.35 -0.00008
69.4 -0.00016
69.45 -0.00015
69.5 -0.0001
69.55 0.00001
69.6 0.00015
69.65 0.00023
69.7 0.00031
69.75 0.00028
69.8 0.00019
69.85 0.00006
69.9 -0.00004
69.95 -0.00003
70 0.00002
70.05 0.0001
70.1 0.0001
70.15 0.00013
70.2 0.00016
70.25 0.00014
70.3 0.00004
70.35 -0.00005
70.4 -0.00011
70.45 -0.00009
70.5 0.00001
70.55 0.0001
70.6 0.00015
70.65 0.00015
70.7 0.00015
70.75 0.00009
70.8 -0.00002
70.85 -0.00008
70.9 -0.00004
70.95 -0.0001
71 -0.00007
71.05 -0.00007
71.1 -0.00011
71.15 -0.00021
71.2 -0.00023
71.25 -0.00029
71.3 -0.00024
71.35 -0.00021
71.4 -0.00023
71.45 -0.00026
71.5 -0.0003
71.55 -0.00022
71.6 -0.0002
71.65 -0.00018
71.7 -0.00017
71.75 -0.0002
71.8 -0.00026
71.85 -0.0003
71.9 -0.00038
71.95 -0.00037
72 -0.00039
72.05 -0.00037
72.1 -0.00027
72.15 -0.00013
72.2 -0.00009
72.25 0.00002
72.3 0.00005
72.35 -0.00002
72.4 -0.00012
72.45 -0.00009
72.5 -0.00005
72.55 -0.00005
72.6 -0.00007
72.65 -0.00006
72.7 -0.00002
72.75 0.00001
72.8 0.00004
72.85 0.00009
72.9 0.00017
72.95 0.00027
73 0.0004
73.05 0.00046
73.1 0.00045
73.15 0.00044
73.2 0.00041
73.25 0.00037
73.3 0.00023
73.35 0.00009
73.4 0.00006
73.45 0.00006
73.5 0.00009
73.55 0.00005
73.6 -0.00004
73.65 -0.00003
73.7 -0.00005
73.75 -0.00003
73.8 -0.00009
73.85 -0.00004
73.9 0.00001
73.95 0.00009
74 0.00005
74.05 -0.00003
74.1 -0.00008
74.15 -0.00012
74.2 -0.00014
74.25 -0.00021
74.3 -0.00024
74.35 -0.00021
74.4 -0.00014
74.45 -0.00016
74.5 -0.00013
74.55 -0.00004
74.6 0.00008
74.65 0.00009
74.7 0.00005
74.75 0.00004
74.8 0.00003
74.85 -0.00003
74.9 -0.00002
74.95 0.00006
75 0.00005
75.05 -0.00001
75.1 0.00003
75.15 0.00009
75.2 0.00014
75.25 0.00022
75.3 0.00028
75.35 0.00023
75.4 0.00023
75.45 0.00017
75.5 0.00018
75.55 0.0001
75.6 0.00003
75.65 0.00005
75.7 0.00009
75.75 0.00001
75.8 -0
75.85 0.00007
75.9 0.00018
75.95 0.00017
76 0.00021
76.05 0.00022
76.1 0.00016
76.15 0.00017
76.2 0.00024
76.25 0.00024
76.3 0.0002
76.35 0.00022
76.4 0.00021
76.45 0.00025
76.5 0.0002
76.55 0.00011
76.6 0.0001
76.65 0.00016
76.7 0.00021
76.75 0.00025
76.8 0.00022
76.85 0.00022
76.9 0.00023
76.95 0.0002
77 0.00023
77.05 0.00022
77.1 0.0001
77.15 0.00005
77.2 0
77.25 -0.00007
77.3 -0.00006
77.35 -0.00013
77.4 -0.00019
77.45 -0.00031
77.5 -0.00036
77.55 -0.00032
77.6 -0.00019
77.65 -0.00013
77.7 0
77.75 0.00013
77.8 0.00021
77.85 0.00028
77.9 0.00033
77.95 0.00024
78 0.00018
78.05 0.00004
78.1 -0.0001
78.15 -0.00016
78.2 -0.00028
78.25 -0.00036
78.3 -0.00037
78.35 -0.0004
78.4 -0.00049
78.45 -0.00059
78.5 -0.00066
78.55 -0.0006
78.6 -0.00051
78.65 -0.00039
78.7 -0.00038
78.75 -0.00033
78.8 -0.00037
78.85 -0.00037
78.9 -0.0003
78.95 -0.00016
79 -0.00015
79.05 -0.00014
79.1 -0.00004
79.15 0
79.2 0.00002
79.25 -0
79.3 0.00001
79.35 0.00002
79.4 0.00004
79.45 0.00002
79.5 0.00003
79.55 0.00011
79.6 0.00023
79.65 0.00022
79.7 0.00024
79.75 0.00022
79.8 0.00026
79.85 0.00031
79.9 0.00023
79.95 0.00012
80 0.00008
80.05 0
80.1 -0.00013
80.15 -0.0002
80.2 -0.0002
80.25 -0.00026
80.3 -0.00024
80.35 -0.00013
80.4 -0.00003
80.45 0.00011
80.5 0.00025
80.55 0.0004
80.6 0.00043
80.65 0.00039
80.7 0.00031
80.75 0.00015
80.8 -0.00005
80.85 -0.0002
80.9 -0.00029
80.95 -0.00033
81 -0.00035
81.05 -0.0004
81.1 -0.00045
81.15 -0.00038
81.2 -0.00026
81.25 -0.00014
81.3 -0.00003
81.35 0.00009
81.4 0.00009
81.45 0.00005
81.5 0.00007
81.55 0.00004
81.6 0.00006
81.65 0.0001
81.7 0.00019
81.75 0.0003
81.8 0.00039
81.85 0.0005
81.9 0.00047
81.95 0.00049
82 0.00052
82.05 0.00051
82.1 0.00046
82.15 0.00032
82.2 0.0002
82.25 0.00002
82.3 -0.00004
82.35 -0.00007
82.4 -0.00001
82.45 0.00003
82.5 0.00002
82.55 0.00008
82.6 0.00014
82.65 0.00013
82.7 0.00017
82.75 0.00009
82.8 0
82.85 -0.00008
82.9 -0.00013
82.95 -0.00023
83 -0.00033
83.05 -0.00038
83.1 -0.0004
83.15 -0.00035
83.2 -0.00031
83.25 -0.00026
83.3 -0.0002
83.35 -0.0002
83.4 -0.00026
83.45 -0.0003
83.5 -0.00031
83.55 -0.00033
83.6 -0.00026
83.65 -0.00012
83.7 0.00003
83.75 0.00008
83.8 0.00012
83.85 0.00005
83.9 -0
83.95 0.00002
84 -0.00005
84.05 -0.00011
84.1 -0.00017
84.15 -0.00027
84.2 -0.00025
84.25 -0.00028
84.3 -0.00026
84.35 -0.00015
84.4 -0.00015
84.45 -0.00016
84.5 -0.00014
84.55 -0.00005
84.6 0.00002
84.65 0.0001
84.7 0.00008
84.75 -0.00002
84.8 -0.00012
84.85 -0.00012
84.9 -0.00009
84.95 -0.00003
85 0.00002
85.05 0.00001
85.1 -0.00005
85.15 -0.00015
85.2 -0.00016
85.25 -0.00018
85.3 -0.00018
85.35 -0.00014
85.4 -0.00017
85.45 -0.00014
85.5 -0.00011
85.55 -0.00009
85.6 0.00002
85.65 0.00002
85.7 0.00008
85.75 0.0001
85.8 0.00013
85.85 0.00022
85.9 0.00024
85.95 0.0003
86 0.00025
86.05 0.00022
86.1 0.00027
86.15 0.00023
86.2 0.00024
86.25 0.00013
86.3 0.00012
86.35 0.00008
86.4 0.00008
86.45 0.00011
86.5 0.00006
86.55 -0.00001
86.6 -0.00012
86.65 -0.00021
86.7 -0.0002
86.75 -0.00019
86.8 -0.00012
86.85 -0.00015
86.9 -0.00012
86.95 -0.00004
87 -0
87.05 -0.00005
87.1 -0.00008
87.15 -0.00018
87.2 -0.00032
87.25 -0.00044
87.3 -0.00054
87.35 -0.00049
87.4 -0.00039
87.45 -0.00034
87.5 -0.00034
87.55 -0.00031
87.6 -0.0003
87.65 -0.00026
87.7 -0.00018
87.75 -0.00011
87.8 0.00003
87.85 0.00004
87.9 0.00001
87.95 0.00006
88 0.00017
88.05 0.00019
88.1 0.00019
88.15 0.00017
88.2 0.00008
88.25 -0.00002
88.3 -0.00001
88.35 0.00004
88.4 0.00015
88.45 0.00022
88.5 0.00028
88.55 0.00025
88.6 0.00015
88.65 0.00017
88.7 0.00012
88.75 0.00006
88.8 0.00004
88.85 0.00005
88.9 -0.00002
88.95 -0.00006
89 -0.0001
89.05 -0.00017
89.1 -0.00017
89.15 -0.00017
89.2 -0.00015
89.25 -0.0001
89.3 -0.00007
89.35 -0.00011
89.4 -0.00006
89.45 0.00005
89.5 0.00017
89.55 0.00017
89.6 0.00009
89.65 0.0001
89.7 0.00016
89.75 0.00017
89.8 0.0002
89.85 0.00014
89.9 0.00011
89.95 0.00009
90 0.00004
90.05 0.00004
90.1 -0.00001
90.15 -0.00007
90.2 -0.00007
90.25 -0.00001
90.3 0.00009
90.35 0.0002
90.4 0.00018
90.45 0.0002
90.5 0.00022
90.55 0.00026
90.6 0.00027
90.65 0.00017
90.7 0.00008
90.75 -0.00007
90.8 -0.00009
90.85 -0.00015
90.9 -0.00015
90.95 -0.00017
91 -0.0001
91.05 -0
91.1 0.00007
91.15 0.00007
91.2 0.00012
91.25 0.00019
91.3 0.00028
91.35 0.00028
91.4 0.00031
91.45 0.00024
91.5 0.00025
91.55 0.00016
91.6 0.00016
91.65 0.00012
91.7 0.00004
91.75 -0.00005
91.8 -0.00009
91.85 -0.00005
91.9 -0.00007
91.95 -0.00002
92 -0.00005
92.05 -0.00011
92.1 -0.00017
92.15 -0.00027
92.2 -0.00023
92.25 -0.00013
92.3 -0.00004
92.35 0
92.4 0.00002
92.45 0.00001
92.5 0.00002
92.55 0.00004
92.6 0.00007
92.65 0.00005
92.7 0.00008
92.75 0.00018
92.8 0.00017
92.85 0.00014
92.9 0.00017
92.95 0.0001
93 0.00007
93.05 0.00004
93.1 -0
93.15 0.00005
93.2 0.00007
93.25 0.00002
93.3 -0.00009
93.35 -0.00018
93.4 -0.00032
93.45 -0.00046
93.5 -0.00057
93.55 -0.00064
93.6 -0.00068
93.65 -0.00059
93.7 -0.00042
93.75 -0.00023
93.8 -0.0001
93.85 0.00006
93.9 0.00015
93.95 0.0001
94 0.00005
94.05 -0
94.1 -0.00005
94.15 -0.00001
94.2 0.00002
94.25 -0.00001
94.3 -0.00009
94.35 -0.00017
94.4 -0.0003
94.45 -0.00028
94.5 -0.00025
94.55 -0.00026
94.6 -0.00025
94.65 -0.00016
94.7 -0.0001
94.75 -0.00006
94.8 0.00003
94.85 0.00003
94.9 -0.00003
94.95 -0.00011
95 -0.00017
95.05 -0.00025
95.1 -0.00025
95.15 -0.00022
95.2 -0.00009
95.25 -0.00003
95.3 0.00007
95.35 0.00017
95.4 0.00026
95.45 0.00035
95.5 0.00033
95.55 0.00037
95.6 0.00041
95.65 0.00046
95.7 0.00037
95.75 0.00024
95.8 0.00007
95.85 -0.00005
95.9 -0.0001
95.95 -0.00008
96 -0.00009
96.05 0
96.1 0.00008
96.15 0.00004
96.2 0.00003
96.25 0.00001
96.3 -0.00007
96.35 -0.00006
96.4 -0.00012
96.45 -0.00018
96.5 -0.00015
96.55 -0.00017
96.6 -0.00021
96.65 -0.00014
96.7 -0.00001
96.75 0.00015
96.8 0.00022
96.85 0.00031
96.9 0.00041
96.95 0.00048
97 0.00043
97.05 0.00043
97.1 0.00044
97.15 0.00041
97.2 0.00031
97.25 0.00013
97.3 0.00006
97.35 -0.00007
97.4 -0.00008
97.45 -0.00013
97.5 -0.00014
97.55 -0.00017
97.6 -0.00027
97.65 -0.00032
97.7 -0.00027
97.75 -0.0002
97.8 -0.00015
97.85 -0.00017
97.9 -0.0001
97.95 -0.00012
98 -0.00008
98.05 0.00001
98.1 0.00009
98.15 0.00018
98.2 0.0003
98.25 0.00032
98.3 0.00029
98.35 0.00027
98.4 0.0002
98.45 0.00006
98.5 0.00003
98.55 0.00001
98.6 -0.00002
98.65 -0.00002
98.7 -0
98.75 -0.00002
98.8 -0.00002
98.85 0.00003
98.9 0
98.95 -0.00003
99 -0.00007
99.05 -0.00012
99.1 -0.00021
99.15 -0.00026
99.2 -0.00036
99.25 -0.00035
99.3 -0.00033
99.35 -0.00035
99.4 -0.00039
99.45 -0.00045
99.5 -0.0004
99.55 -0.00034
99.6 -0.00031
99.65 -0.00021
99.7 -0.00009
99.75 -0.00006
99.8 -0.0001
99.85 -0.00015
99.9 -0.00019
99.95 -0.00015
