0 0
0.05 0.00089
0.1 0.00175
0.15 0.00282
0.2 0.00333
0.25 0.00341
0.3 0.00324
0.35 0.00377
0.4 0.00402
0.45 0.00393
0.5 0.00413
0.55 0.00456
0.6 0.00493
0.65 0.00518
0.7 0.00501
0.75 0.00516
0.8 0.00481
0.85 0.00497
0.9 0.00523
0.95 0.00516
1 0.00546
1.05 0.00534
1.1 0.00516
1.15 0.00468
1.2 0.00467
1.25 0.00484
1.3 0.00529
1.35 0.00529
1.4 0.00537
1.45 0.00538
1.5 0.00481
1.55 0.00428
1.6 0.0038
1.65 0.00355
1.7 0.00352
1.75 0.00389
1.8 0.00396
1.85 0.00423
1.9 0.00475
1.95 0.00524
2 0.00542
2.05 0.00525
2.1 0.00471
2.15 0.00426
2.2 0.00421
2.25 0.00426
2.3 0.00397
2.35 0.00321
2.4 0.00273
2.45 0.00263
2.5 0.00236
2.55 0.00176
2.6 0.00119
2.65 0.00133
2.7 0.00186
2.75 0.00269
2.8 0.00315
2.85 0.00299
2.9 0.00322
2.95 0.00336
3 0.0031
3.05 0.00288
3.1 0.0028
3.15 0.00268
3.2 0.00286
3.25 0.00328
3.3 0.00327
3.35 0.00314
3.4 0.00342
3.45 0.00304
3.5 0.00262
3.55 0.00271
3.6 0.00242
3.65 0.0023
3.7 0.00237
3.75 0.00204
3.8 0.00213
3.85 0.00251
3.9 0.00282
3.95 0.00326
4 0.00381
4.05 0.00424
4.1 0.0047
4.15 0.005
4.2 0.00461
4.25 0.00373
4.3 0.00281
4.35 0.0024
4.4 0.00211
4.45 0.00213
4.5 0.0022
4.55 0.00213
4.6 0.00235
4.65 0.00201
4.7 0.00154
4.75 0.00144
4.8 0.0011
4.85 0.00103
4.9 0.00107
4.95 0.00117
5 0.00095
5.05 0.00083
5.1 0.00059
5.15 0.00043
5.2 -0.00007
5.25 -0.00033
5.3 -0.00025
5.35 -0.00035
5.4 -0.00043
5.45 -0.00073
5.5 -0.00123
5.55 -0.00148
5.6 -0.00157
5.65 -0.00117
5.7 -0.00062
5.75 0.00001
5.8 0.00076
5.85 0.00147
5.9 0.00202
5.95 0.00202
6 0.00234
6.05 0.00216
6.1 0.00177
6.15 0.00172
6.2 0.00152
6.25 0.00128
6.3 0.00091
6.35 0.00079
6.4 0.00046
6.45 0.00049
6.5 0.00071
6.55 0.00121
6.6 0.00105
6.65 0.00107
6.7 0.00107
6.75 0.00134
6.8 0.00147
6.85 0.00106
6.9 0.0012
6.95 0.00107
7 0.00104
7.05 0.00071
7.1 0.00044
7.15 0.00025
7.2 -0.0003
7.25 -0.00078
7.3 -0.00054
7.35 -0.00041
7.4 -0.00027
7.45 0.0001
7.5 0.00051
7.55 0.00031
7.6 0.00044
7.65 0.00064
7.7 0.00065
7.75 0.00058
7.8 0.00009
7.85 -0.00059
7.9 -0.00081
7.95 -0.00087
8 -0.00105
8.05 -0.00082
8.1 -0.00077
8.15 -0.00018
8.2 0.00001
8.25 0.00006
8.3 0.00005
8.35 0.00022
8.4 0.00065
8.45 0.00094
8.5 0.00084
8.55 0.00058
8.6 0.00053
8.65 0.00005
8.7 0.00014
8.75 0.00044
8.8 0.0006
8.85 0.00072
8.9 0.00037
8.95 0.00057
9 0.0005
9.05 0.00061
9.1 0.0006
9.15 0.00018
9.2 -0.00017
9.25 -0.0006
9.3 -0.00038
9.35 -0.00002
9.4 0.00044
9.45 0.00044
9.5 0.00059
9.55 0.00106
9.6 0.00148
9.65 0.00134
9.7 0.00078
9.75 0.00029
9.8 -0.00039
9.85 -0.00119
9.9 -0.00143
9.95 -0.00163
10 -0.00123
10.05 -0.00045
10.1 0.00055
10.15 0.00081
10.2 0.00075
10.25 0.00062
10.3 0.0003
10.35 0.0002
10.4 -0.00029
10.45 -0.00029
10.5 0.00017
10.55 0.00078
10.6 0.00062
10.65 0.00031
10.7 0.00032
10.75 0.00016
10.8 -0.00033
10.85 -0.00016
10.9 -0.00031
10.95 -0.00051
11 -0.0006
11.05 -0.00098
11.1 -0.00081
11.15 -0.00034
11.2 -0.00037
11.25 0.00002
11.3 0.00041
11.35 0.00103
11.4 0.00099
11.45 0.00111
11.5 0.00076
11.55 0.00029
11.6 -0.0005
11.65 -0.00107
11.7 -0.00145
11.75 -0.00137
11.8 -0.00133
11.85 -0.00136
11.9 -0.00079
11.95 -0.0001
12 0.00058
12.05 0.00086
12.1 0.00116
12.15 0.00171
12.2 0.00172
12.25 0.00145
12.3 0.00112
12.35 0.00114
12.4 0.00062
12.45 -0.00024
12.5 -0.0009
12.55 -0.00121
12.6 -0.00149
12.65 -0.00132
12.7 -0.00114
12.75 -0.00141
12.8 -0.00156
12.85 -0.00166
12.9 -0.0017
12.95 -0.00148
13 -0.00166
13.05 -0.00155
13.1 -0.00153
13.15 -0.00174
13.2 -0.00183
13.25 -0.00175
13.3 -0.00106
13.35 -0.00083
13.4 -0.0004
13.45 0.00015
13.5 0.00016
13.55 0.00031
13.6 -0.00004
13.65 -0.00069
13.7 -0.00109
13.75 -0.00107
13.8 -0.00075
13.85 -0.00031
13.9 0.0001
13.95 0.00016
14 0.00042
14.05 0.00098
14.1 0.00124
14.15 0.00117
14.2 0.00146
14.25 0.00181
14.3 0.00235
14.35 0.00277
14.4 0.00281
14.45 0.00284
14.5 0.00311
14.55 0.00327
14.6 0.00265
14.65 0.0022
14.7 0.00167
14.75 0.00098
14.8 0.0001
14.85 -0.0002
14.9 -0.00064
14.95 -0.00097
15 -0.00065
15.05 -0.00026
15.1 0.00007
15.15 0.00015
15.2 -0.00001
15.25 -0.00049
15.3 -0.00117
15.35 -0.00113
15.4 -0.00114
15.45 -0.00107
15.5 -0.00114
15.55 -0.00102
15.6 -0.00095
15.65 -0.00043
15.7 0.00017
15.75 0.001
15.8 0.00116
15.85 0.00129
15.9 0.00115
15.95 0.00065
16 0.00005
16.05 0.00007
16.1 -0.00039
16.15 -0.00045
16.2 -0.00047
16.25 -0.00003
16.3 0.00041
16.35 0.00083
16.4 0.00097
16.45 0.0014
16.5 0.00139
16.55 0.00132
16.6 0.00124
16.65 0.00116
16.7 0.00131
16.75 0.00169
16.8 0.00151
16.85 0.00123
16.9 0.0011
16.95 0.00126
17 0.00095
17.05 0.00035
17.1 -0.00028
17.15 -0.00029
17.2 -0.00068
17.25 -0.00117
17.3 -0.00172
17.35 -0.00224
17.4 -0.00243
17.45 -0.00191
17.5 -0.00112
17.55 -0.0002
17.6 0.00054
17.65 0.00112
17.7 0.00148
17.75 0.00201
17.8 0.00216
17.85 0.00191
17.9 0.00177
17.95 0.00108
18 0.00013
18.05 -0.00044
18.1 -0.00088
18.15 -0.00132
18.2 -0.00146
18.25 -0.00123
18.3 -0.0011
18.35 -0.00103
18.4 -0.00089
18.45 -0.0009
18.5 -0.00054
18.55 -0.0001
18.6 0.00002
18.65 -0.00037
18.7 -0.0007
18.75 -0.00053
18.8 -0.00046
18.85 0.00004
18.9 0.00002
18.95 0.00016
19 0.00004
19.05 -0.00025
19.1 -0.00035
19.15 -0.00083
19.2 -0.00063
19.25 -0.00055
19.3 -0.00032
19.35 -0.00012
19.4 -0.00039
19.45 -0.0006
19.5 -0.00095
19.55 -0.00079
19.6 -0.00022
19.65 0.00043
19.7 0.00118
19.75 0.00165
19.8 0.00225
19.85 0.00211
19.9 0.00171
19.95 0.00145
20 0.00072
20.05 0.00011
20.1 -0.00055
20.15 -0.00091
20.2 -0.00089
20.25 -0.00106
20.3 -0.00115
20.35 -0.0009
20.4 -0.00112
20.45 -0.00151
20.5 -0.00157
20.55 -0.00194
20.6 -0.00198
20.65 -0.00148
20.7 -0.00135
20.75 -0.00094
20.8 -0.00053
20.85 0.00011
20.9 0.00007
20.95 0.00026
21 0.00023
21.05 -0.00028
21.1 -0.00085
21.15 -0.0014
21.2 -0.0021
21.25 -0.00207
21.3 -0.00218
21.35 -0.00188
21.4 -0.00139
21.45 -0.00102
21.5 -0.00105
21.55 -0.00125
21.6 -0.00087
21.65 -0.0005
21.7 0.0002
21.75 0.00087
21.8 0.00076
21.85 0.00058
21.9 0.00031
21.95 0.00002
22 -0.00044
22.05 -0.00027
22.1 -0.00058
22.15 -0.00043
22.2 -0.00044
22.25 -0.00087
22.3 -0.00069
22.35 -0.0008
22.4 -0.00056
22.45 -0.00062
22.5 -0.00072
22.55 -0.00033
22.6 -0.00037
22.65 -0.00073
22.7 -0.00051
22.75 -0.00037
22.8 -0.00002
22.85 0.00051
22.9 0.00077
22.95 0.00074
23 0.00094
23.05 0.00083
23.1 0.00064
23.15 0.00027
23.2 -0.00042
23.25 -0.0012
23.3 -0.00186
23.35 -0.00211
23.4 -0.00176
23.45 -0.00175
23.5 -0.0015
23.55 -0.00159
23.6 -0.00151
23.65 -0.00176
23.7 -0.00189
23.75 -0.00143
23.8 -0.00073
23.85 -0.00044
23.9 -0.0004
23.95 -0.00006
24 0.00044
24.05 0.00067
24.1 0.00086
24.15 0.00111
24.2 0.00136
24.25 0.00115
24.3 0.00091
24.35 0.00052
24.4 -0.00006
24.45 0.00007
24.5 0.00056
24.55 0.00045
24.6 0.00011
24.65 0.00029
24.7 0.00058
24.75 0.00054
24.8 0.00088
24.85 0.00075
24.9 0.00035
24.95 0.00007
25 -0.00052
25.05 -0.0007
25.1 -0.00077
25.15 -0.00059
25.2 0.00002
25.25 0.00048
25.3 0.00065
25.35 0.00112
25.4 0.00137
25.45 0.00115
25.5 0.00069
25.55 0.0006
25.6 0.00031
25.65 0.00038
25.7 0.00006
25.75 -0.00027
25.8 -0.00034
25.85 -0.0001
25.9 0.00013
25.95 -0.00019
26 0.00005
26.05 -0.00016
26.1 -0.00066
26.15 -0.00111
26.2 -0.00106
26.25 -0.00063
26.3 -0.00024
26.35 -0.00011
26.4 0.00006
26.45 0.00044
26.5 0.00079
26.55 0.00141
26.6 0.00173
26.65 0.00155
26.7 0.00123
26.75 0.00136
26.8 0.00123
26.85 0.00059
26.9 -0.00027
26.95 -0.0009
27 -0.0009
27.05 -0.00088
27.1 -0.00112
27.15 -0.0009
27.2 -0.00108
27.25 -0.00091
27.3 -0.00075
27.35 -0.00058
27.4 -0.00046
27.45 0.00003
27.5 0.00042
27.55 0.00042
27.6 0.00078
27.65 0.00052
27.7 0.00034
27.75 0.00037
27.8 0.00048
27.85 0.00076
27.9 0.00105
27.95 0.00077
28 0.0009
28.05 0.00139
28.1 0.00171
28.15 0.00137
28.2 0.00149
28.25 0.00131
28.3 0.00141
28.35 0.00136
28.4 0.00162
28.45 0.00169
28.5 0.00163
28.55 0.00139
28.6 0.00132
28.65 0.00118
28.7 0.00071
28.75 0.00002
28.8 -0.00025
28.85 -0.00012
28.9 -0.00026
28.95 0
29 0.00055
29.05 0.00064
29.1 0.0006
29.15 0.00046
29.2 0.0004
29.25 0.00039
29.3 0.00045
29.35 -0.00004
29.4 -0.00042
29.45 -0.00076
29.5 -0.00067
29.55 -0.00012
29.6 0.00068
29.65 0.00066
29.7 0.00013
29.75 -0.00048
29.8 -0.00123
29.85 -0.00177
29.9 -0.00198
29.95 -0.00195
30 -0.00151
30.05 -0.00113
30.1 -0.00057
30.15 -0.00022
30.2 -0.00003
30.25 0.00023
30.3 0.00006
30.35 0.00016
30.4 0.00048
30.45 0.00043
30.5 0.00045
30.55 0.00048
30.6 0.00074
30.65 0.00096
30.7 0.00124
30.75 0.00111
30.8 0.00089
30.85 0.00085
30.9 0.00106
30.95 0.00071
31 0.00024
31.05 -0.00037
31.1 -0.00038
31.15 -0.0004
31.2 -0.00083
31.25 -0.0006
31.3 -0.00014
31.35 -0.00025
31.4 -0.00078
31.45 -0.00137
31.5 -0.00197
31.55 -0.00177
31.6 -0.00166
31.65 -0.00098
31.7 -0.00077
31.75 -0.00063
31.8 -0.00074
31.85 -0.00118
31.9 -0.00155
31.95 -0.00142
32 -0.00134
32.05 -0.00129
32.1 -0.0009
32.15 -0.00063
32.2 -0.00087
32.25 -0.00066
32.3 -0.00032
32.35 0.00006
32.4 0.00048
32.45 0.00101
32.5 0.00082
32.55 0.00103
32.6 0.00073
32.65 0.00096
32.7 0.00146
32.75 0.00188
32.8 0.00182
32.85 0.00204
32.9 0.00219
32.95 0.00194
33 0.00202
33.05 0.00205
33.1 0.00182
33.15 0.00194
33.2 0.00184
33.25 0.00129
33.3 0.00033
33.35 0.00012
33.4 -0.0003
33.45 -0.00093
33.5 -0.00139
33.55 -0.00183
33.6 -0.00203
33.65 -0.00223
33.7 -0.00197
33.75 -0.00146
33.8 -0.00079
33.85 -0.00005
33.9 0.00059
33.95 0.00085
34 0.00046
34.05 0.00017
34.1 -0.00045
34.15 -0.00119
34.2 -0.00197
34.25 -0.00254
34.3 -0.0026
34.35 -0.00245
34.4 -0.0023
34.45 -0.00187
34.5 -0.00163
34.55 -0.00168
34.6 -0.00202
34.65 -0.00182
34.7 -0.00118
34.75 -0.0005
34.8 -0.00028
34.85 -0.00032
34.9 -0.00071
34.95 -0.00114
35 -0.00108
35.05 -0.00101
35.1 -0.00101
35.15 -0.00097
35.2 -0.00046
35.25 -0.00045
35.3 -0.00018
35.35 0.00033
35.4 0.00034
35.45 0.00042
35.5 0.00028
35.55 -0.0002
35.6 0.00001
35.65 0.00001
35.7 0.00032
35.75 0.00075
35.8 0.00112
35.85 0.0008
35.9 0.00021
35.95 -0.00055
36 -0.00107
36.05 -0.00173
36.1 -0.00233
36.15 -0.00238
36.2 -0.00213
36.25 -0.00219
36.3 -0.00216
36.35 -0.00146
36.4 -0.00109
36.45 -0.001
36.5 -0.00064
36.55 -0.00047
36.6 -0.00016
36.65 -0.00022
36.7 0.0001
36.75 0.00027
36.8 0.00054
36.85 0.00057
36.9 0.00098
36.95 0.0014
37 0.00116
37.05 0.00098
37.1 0.00124
37.15 0.00094
37.2 0.00064
37.25 -0.00001
37.3 -0.00077
37.35 -0.00144
37.4 -0.00163
37.45 -0.00126
37.5 -0.00043
37.55 0.00063
37.6 0.00111
37.65 0.00108
37.7 0.0007
37.75 0.00047
37.8 0.0002
37.85 0.00039
37.9 0.00064
37.95 0.00108
38 0.00114
38.05 0.00096
38.1 0.00052
38.15 0.00069
38.2 0.00044
38.25 0.00067
38.3 0.00032
38.35 -0.00005
38.4 0.00021
38.45 0.00019
38.5 0.00042
38.55 0.00015
38.6 0.00039
38.65 0.00061
38.7 0.00042
38.75 0.00045
38.8 0.00001
38.85 0.00003
38.9 -0.00007
38.95 -0.00022
39 -0.00046
39.05 -0.00083
39.1 -0.00144
39.15 -0.00196
39.2 -0.00209
39.25 -0.00183
39.3 -0.00148
39.35 -0.00113
39.4 -0.00082
39.45 -0.00091
39.5 -0.00104
39.55 -0.00098
39.6 -0.00095
39.65 -0.00088
39.7 -0.00104
39.75 -0.0013
39.8 -0.00101
39.85 -0.00078
39.9 -0.00097
39.95 -0.00105
40 -0.00128
40.05 -0.00081
40.1 0.00005
40.15 0.00027
40.2 0.00018
40.25 -0.00013
40.3 -0.00043
40.35 -0.0001
40.4 0.00001
40.45 -0.00035
40.5 -0.00095
40.55 -0.00146
40.6 -0.00161
40.65 -0.00108
40.7 -0.00055
40.75 -0.00027
40.8 -0.00041
40.85 -0.00026
40.9 -0.0003
40.95 0.00018
41 0.00092
41.05 0.00156
41.1 0.00217
41.15 0.00247
41.2 0.00211
41.25 0.00214
41.3 0.00193
41.35 0.00168
41.4 0.00153
41.45 0.00163
41.5 0.00125
41.55 0.00095
41.6 0.00058
41.65 -0.00002
41.7 -0.00044
41.75 -0.0008
41.8 -0.00048
41.85 -0.00042
41.9 -0.00076
41.95 -0.00117
42 -0.00087
42.05 -0.00101
42.1 -0.00095
42.15 -0.00091
42.2 -0.0004
42.25 -0.0004
42.3 -0.00053
42.35 -0.00049
42.4 -0.00039
42.45 -0.00072
42.5 -0.0004
42.55 -0.00059
42.6 -0.00107
42.65 -0.00141
42.7 -0.00124
42.75 -0.00109
42.8 -0.00055
42.85 -0.00022
42.9 0.00029
42.95 0.00029
43 0.00037
43.05 0.00087
43.1 0.00119
43.15 0.0018
43.2 0.00225
43.25 0.00247
43.3 0.00271
43.35 0.00292
43.4 0.00274
43.45 0.00225
43.5 0.00165
43.55 0.00107
43.6 0.001
43.65 0.00087
43.7 0.00067
43.75 0.00018
43.8 -0.00027
43.85 -0.00017
43.9 0.00003
43.95 0.00062
44 0.00066
44.05 0.00107
44.1 0.00143
44.15 0.0011
44.2 0.00107
44.25 0.00145
44.3 0.00172
44.35 0.00197
44.4 0.00197
44.45 0.00177
44.5 0.0016
44.55 0.0016
44.6 0.00128
44.65 0.00075
44.7 -0
44.75 -0.00048
44.8 -0.0006
44.85 -0.00038
44.9 -0.00008
44.95 -0.00005
45 -0.00042
45.05 -0.00017
45.1 0.00046
45.15 0.00043
45.2 0.00025
45.25 -0.00002
45.3 0.00013
45.35 0.00041
45.4 0.00043
45.45 0.00084
45.5 0.00067
45.55 0.00043
45.6 0.00035
45.65 0.0001
45.7 -0.00049
45.75 -0.00067
45.8 -0.00082
45.85 -0.00097
45.9 -0.00076
45.95 -0.00018
46 -0.0002
46.05 -0.00008
46.1 -0.00037
46.15 -0.00081
46.2 -0.00132
46.25 -0.00156
46.3 -0.00112
46.35 -0.00086
46.4 -0.00037
46.45 0.00006
46.5 0.00064
46.55 0.00099
46.6 0.00084
46.65 0.00091
46.7 0.00102
46.75 0.00086
46.8 0.00088
46.85 0.00127
46.9 0.00182
46.95 0.0021
47 0.00205
47.05 0.00153
47.1 0.00109
47.15 0.00036
47.2 -0.00013
47.25 -0.00077
47.3 -0.00152
47.35 -0.00223
47.4 -0.00258
47.45 -0.00303
47.5 -0.00353
47.55 -0.00347
47.6 -0.00361
47.65 -0.0033
47.7 -0.003
47.75 -0.00243
47.8 -0.00193
47.85 -0.00116
47.9 -0.00064
47.95 -0.00065
48 -0.00072
48.05 -0.00068
48.1 -0.00103
48.15 -0.0014
48.2 -0.00194
48.25 -0.00166
48.3 -0.00088
48.35 -0.00066
48.4 -0.00047
48.45 -0.0002
48.5 -0.00045
48.55 -0.00066
48.6 -0.00109
48.65 -0.00163
48.7 -0.00175
48.75 -0.00122
48.8 -0.00086
48.85 -0.00086
48.9 -0.00095
48.95 -0.00055
49 -0.00016
49.05 -0.00022
49.1 -0.00007
49.15 0.00024
49.2 0.00004
49.25 0.0002
49.3 0.00054
49.35 0.00097
49.4 0.00122
49.45 0.00121
49.5 0.0015
49.55 0.00194
49.6 0.00231
49.65 0.00265
49.7 0.00268
49.75 0.00291
49.8 0.00307
49.85 0.00334
49.9 0.00305
49.95 0.00285
50 0.00287
50.05 0.00281
50.1 0.00251
50.15 0.0022
50.2 0.00207
50.25 0.00146
50.3 0.00074
50.35 0.00027
50.4 -0.00034
50.45 -0.00051
50.5 -0.00081
50.55 -0.0005
50.6 -0.00038
50.65 -0.0007
50.7 -0.00083
50.75 -0.00092
50.8 -0.00097
50.85 -0.00141
50.9 -0.00203
50.95 -0.00226
51 -0.00266
51.05 -0.00308
51.1 -0.00281
51.15 -0.00206
51.2 -0.00128
51.25 -0.0011
51.3 -0.00104
51.35 -0.00127
51.4 -0.00137
51.45 -0.00123
51.5 -0.00139
51.55 -0.00102
51.6 -0.00052
51.65 -0.00037
51.7 -0.00039
51.75 -0.00076
51.8 -0.00101
51.85 -0.00067
51.9 -0.00011
51.95 0.00012
52 0.00033
52.05 0.00018
52.1 -0.00008
52.15 -0.00007
52.2 0.00034
52.25 0.00092
52.3 0.00098
52.35 0.00053
52.4 0.00068
52.45 0.00089
52.5 0.00066
52.55 0.00083
52.6 0.00099
52.65 0.00068
52.7 0.00065
52.75 0.00039
52.8 0.00038
52.85 0.00008
52.9 -0.00004
52.95 0.00024
53 0.0003
53.05 0.00079
53.1 0.00088
53.15 0.0007
53.2 0.00079
53.25 0.00082
53.3 0.00105
53.35 0.00081
53.4 0.00089
53.45 0.00101
53.5 0.00126
53.55 0.00178
53.6 0.00208
53.65 0.00194
53.7 0.00163
53.75 0.00095
53.8 0.00028
53.85 -0.00047
53.9 -0.00134
53.95 -0.00208
54 -0.00205
54.05 -0.0016
54.1 -0.00111
54.15 -0.00026
54.2 -0.00014
54.25 -0.00009
54.3 0.00029
54.35 0.00095
54.4 0.00115
54.45 0.00116
54.5 0.00145
54.55 0.00173
54.6 0.00193
54.65 0.00187
54.7 0.00134
54.75 0.00097
54.8 0.00082
54.85 0.00091
54.9 0.00047
54.95 0.00043
55 0.00053
55.05 0.00013
55.1 0.00008
55.15 0.00033
55.2 0.00088
55.25 0.00148
55.3 0.00171
55.35 0.00162
55.4 0.00137
55.45 0.00092
55.5 0.00038
55.55 0.00042
55.6 0.00014
55.65 0.00004
55.7 0.0001
55.75 -0.00009
55.8 0.00012
55.85 -0.00018
55.9 -0.00031
55.95 0.00005
56 -0.00008
56.05 -0.00008
56.1 -0.00011
56.15 -0.00058
56.2 -0.00053
56.25 -0.00015
56.3 -0.00037
56.35 -0.00074
56.4 -0.00057
56.45 -0.00048
56.5 -0.00019
56.55 -0.00042
56.6 -0.00045
56.65 -0.00051
56.7 -0.00077
56.75 -0.00044
56.8 -0.00061
56.85 -0.00068
56.9 -0.00055
56.95 -0.00001
57 0.00069
57.05 0.00125
57.1 0.00117
57.15 0.00063
57.2 0.00026
57.25 -0.00008
57.3 -0.0002
57.35 -0.00033
57.4 -0.00086
57.45 -0.00086
57.5 -0.00086
57.55 -0.0006
57.6 -0.00003
57.65 0.00039
57.7 0.00013
57.75 -0.00042
57.8 -0.00033
57.85 -0.00003
57.9 0.00049
57.95 0.00107
58 0.00123
58.05 0.00132
58.1 0.00159
58.15 0.00179
58.2 0.00158
58.25 0.00153
58.3 0.00126
58.35 0.00063
58.4 0.00016
58.45 -0.00052
58.5 -0.00126
58.55 -0.00158
58.6 -0.00147
58.65 -0.00163
58.7 -0.00197
58.75 -0.00209
58.8 -0.00201
58.85 -0.00183
58.9 -0.00169
58.95 -0.00115
59 -0.0004
59.05 0.00056
59.1 0.00099
59.15 0.00081
59.2 0.00046
59.25 0.00004
59.3 0.00018
59.35 -0.00022
59.4 -0.00011
59.45 -0.00005
59.5 -0.00005
59.55 0.00023
59.6 0.00074
59.65 0.00098
59.7 0.00135
59.75 0.0013
59.8 0.00119
59.85 0.00084
59.9 0.00079
59.95 0.00062
60 -0.00004
60.05 -0.00064
60.1 -0.00125
60.15 -0.0011
60.2 -0.00092
60.25 -0.00102
60.3 -0.00102
60.35 -0.00096
60.4 -0.00047
60.45 -0.00043
60.5 0.00007
60.55 0.00073
60.6 0.00078
60.65 0.00108
60.7 0.0007
60.75 0.0001
60.8 -0.00069
60.85 -0.00075
60.9 -0.00097
60.95 -0.0012
61 -0.00086
61.05 -0.00107
61.1 -0.00122
61.15 -0.00078
61.2 -0.00023
61.25 0.00003
61.3 -0.00014
61.35 -0.00033
61.4 -0.00039
61.45 -0.00025
61.5 -0.00038
61.55 -0.00053
61.6 -0.00103
61.65 -0.00092
61.7 -0.00105
61.75 -0.00151
61.8 -0.00183
61.85 -0.00175
61.9 -0.00164
61.95 -0.00166
62 -0.00188
62.05 -0.00179
62.1 -0.00149
62.15 -0.00178
62.2 -0.0026
62.25 -0.00304
62.3 -0.00369
62.35 -0.00431
62.4 -0.00492
62.45 -0.00569
62.5 -0.00717
62.55 -0.00885
62.6 -0.01083
62.65 -0.01344
62.7 -0.01577
62.75 -0.01794
62.8 -0.02062
62.85 -0.02342
62.9 -0.0268
62.95 -0.03133
63 -0.03638
63.05 -0.04201
63.1 -0.04793
63.15 -0.05432
63.2 -0.06104
63.25 -0.06792
63.3 -0.07576
63.35 -0.08382
63.4 -0.09245
63.45 -0.10134
63.5 -0.11108
63.55 -0.12128
63.6 -0.13175
63.65 -0.14253
63.7 -0.15338
63.75 -0.1638
63.8 -0.17383
63.85 -0.18336
63.9 -0.19255
63.95 -0.20127
64 -0.20921
64.05 -0.21554
64.1 -0.22133
64.15 -0.22562
64.2 -0.22874
64.25 -0.23099
64.3 -0.23226
64.35 -0.2324
64.4 -0.23185
64.45 -0.23106
64.5 -0.22928
64.55 -0.22706
64.6 -0.22403
64.65 -0.22008
64.7 -0.21497
64.75 -0.20903
64.8 -0.20261
64.85 -0.19504
64.9 -0.18699
64.95 -0.17879
65 -0.16993
65.05 -0.16056
65.1 -0.15052
65.15 -0.14034
65.2 -0.12981
65.25 -0.11911
65.3 -0.10761
65.35 -0.09544
65.4 -0.08297
65.45 -0.07003
65.5 -0.05616
65.55 -0.04154
65.6 -0.0269
65.65 -0.0115
65.7 0.00397
65.75 0.01933
65.8 0.03482
65.85 0.05117
65.9 0.06785
65.95 0.08396
66 0.09997
66.05 0.11587
66.1 0.13203
66.15 0.14808
66.2 0.16393
66.25 0.17902
66.3 0.19302
66.35 0.20623
66.4 0.21883
66.45 0.22998
66.5 0.24014
66.55 0.24916
66.6 0.25739
66.65 0.26479
66.7 0.27047
66.75 0.27519
66.8 0.27925
66.85 0.28251
66.9 0.28424
66.95 0.28516
67 0.28489
67.05 0.28315
67.1 0.28072
67.15 0.27809
67.2 0.27473
67.25 0.27044
67.3 0.26525
67.35 0.26006
67.4 0.25423
67.45 0.24844
67.5 0.24183
67.55 0.23443
67.6 0.2273
67.65 0.21968
67.7 0.21195
67.75 0.20437
67.8 0.19633
67.85 0.18814
67.9 0.17989
67.95 0.17236
68 0.16489
68.05 0.15726
68.1 0.15026
68.15 0.14388
68.2 0.13718
68.25 0.1301
68.3 0.12307
68.35 0.11631
68.4 0.11033
68.45 0.10473
68.5 0.09865
68.55 0.0925
68.6 0.08693
68.65 0.08177
68.7 0.07676
68.75 0.072
68.8 0.06756
68.85 0.0629
68.9 0.05783
68.95 0.0527
69 0.04749
69.05 0.04241
69.1 0.03832
69.15 0.0345
69.2 0.03124
69.25 0.02779
69.3 0.02442
69.35 0.0215
69.4 0.01853
69.45 0.01539
69.5 0.01211
69.55 0.00898
69.6 0.00646
69.65 0.00447
69.7 0.00295
69.75 0.00117
69.8 -0.0003
69.85 -0.00246
69.9 -0.00453
69.95 -0.00636
70 -0.00782
70.05 -0.00907
70.1 -0.01058
70.15 -0.01223
70.2 -0.01428
70.25 -0.01668
70.3 -0.01919
70.35 -0.02121
70.4 -0.0224
70.45 -0.02315
70.5 -0.0239
70.55 -0.0243
70.6 -0.02496
70.65 -0.02604
70.7 -0.02701
70.75 -0.02836
70.8 -0.02909
70.85 -0.02961
70.9 -0.02998
70.95 -0.03031
71 -0.03034
71.05 -0.03068
71.1 -0.03084
71.15 -0.03172
71.2 -0.03256
71.25 -0.03307
71.3 -0.0332
71.35 -0.03363
71.4 -0.03386
71.45 -0.03435
71.5 -0.03438
71.55 -0.03483
71.6 -0.03534
71.65 -0.03559
71.7 -0.03584
71.75 -0.03623
71.8 -0.03604
71.85 -0.03608
71.9 -0.03601
71.95 -0.03614
72 -0.03579
72.05 -0.03588
72.1 -0.03557
72.15 -0.03548
72.2 -0.03547
72.25 -0.03481
72.3 -0.03454
72.35 -0.03437
72.4 -0.03448
72.45 -0.03446
72.5 -0.03378
72.55 -0.0329
72.6 -0.03214
72.65 -0.0317
72.7 -0.03102
72.75 -0.03063
72.8 -0.03049
72.85 -0.03046
72.9 -0.02998
72.95 -0.02994
73 -0.03018
73.05 -0.03001
73.1 -0.02955
73.15 -0.02907
73.2 -0.02891
73.25 -0.02867
73.3 -0.02834
73.35 -0.0282
73.4 -0.02807
73.45 -0.02727
73.5 -0.02628
73.55 -0.02528
73.6 -0.02492
73.65 -0.02418
73.7 -0.02357
73.75 -0.02297
73.8 -0.02262
73.85 -0.02272
73.9 -0.02234
73.95 -0.02156
74 -0.02125
74.05 -0.02076
74.1 -0.02047
74.15 -0.02037
74.2 -0.01989
74.25 -0.01979
74.3 -0.01958
74.35 -0.01908
74.4 -0.01887
74.45 -0.01851
74.5 -0.01804
74.55 -0.01785
74.6 -0.01802
74.65 -0.01775
74.7 -0.01719
74.75 -0.01696
74.8 -0.01685
74.85 -0.01665
74.9 -0.01606
74.95 -0.01593
75 -0.01577
75.05 -0.01606
75.1 -0.01643
75.15 -0.01668
75.2 -0.01683
75.25 -0.01708
75.3 -0.01665
75.35 -0.01593
75.4 -0.01559
75.45 -0.01472
75.5 -0.01412
75.55 -0.01397
75.6 -0.01419
75.65 -0.01392
75.7 -0.01394
75.75 -0.01385
75.8 -0.01369
75.85 -0.01359
75.9 -0.01341
75.95 -0.01285
76 -0.01241
76.05 -0.01159
76.1 -0.0107
76.15 -0.01041
76.2 -0.0102
76.25 -0.00975
76.3 -0.00976
76.35 -0.00949
76.4 -0.00904
76.45 -0.00831
76.5 -0.00772
76.55 -0.00717
76.6 -0.00705
76.65 -0.00688
76.7 -0.00731
76.75 -0.00777
76.8 -0.00816
76.85 -0.00882
76.9 -0.00922
76.95 -0.0095
77 -0.00972
77.05 -0.00994
77.1 -0.0101
77.15 -0.01031
77.2 -0.01019
77.25 -0.00941
77.3 -0.00845
77.35 -0.00786
77.4 -0.00741
77.45 -0.00726
77.5 -0.00671
77.55 -0.00681
77.6 -0.00656
77.65 -0.00682
77.7 -0.00713
77.75 -0.00696
77.8 -0.00682
77.85 -0.00661
77.9 -0.00617
77.95 -0.00579
78 -0.00555
78.05 -0.00576
78.1 -0.00625
78.15 -0.00625
78.2 -0.00647
78.25 -0.00661
78.3 -0.0065
78.35 -0.00674
78.4 -0.0068
78.45 -0.00672
78.5 -0.00648
78.55 -0.00614
78.6 -0.00593
78.65 -0.00589
78.7 -0.0059
78.75 -0.00591
78.8 -0.00532
78.85 -0.00505
78.9 -0.00482
78.95 -0.0045
79 -0.00397
79.05 -0.0038
79.1 -0.00399
79.15 -0.00393
79.2 -0.00397
79.25 -0.0039
79.3 -0.00401
79.35 -0.00362
79.4 -0.00373
79.45 -0.00393
79.5 -0.0036
79.55 -0.00314
79.6 -0.00243
79.65 -0.00238
79.7 -0.0029
79.75 -0.00348
79.8 -0.00362
79.85 -0.0037
79.9 -0.00327
79.95 -0.00278
80 -0.00215
80.05 -0.00213
80.1 -0.00182
80.15 -0.00135
80.2 -0.00092
80.25 -0.00105
80.3 -0.00158
80.35 -0.00204
80.4 -0.00269
80.45 -0.00302
80.5 -0.0031
80.55 -0.00332
80.6 -0.00363
80.65 -0.00382
80.7 -0.00357
80.75 -0.00375
80.8 -0.00386
80.85 -0.00425
80.9 -0.00385
80.95 -0.00367
81 -0.00345
81.05 -0.00319
81.1 -0.00254
81.15 -0.00199
81.2 -0.00154
81.25 -0.00124
81.3 -0.00108
81.35 -0.0012
81.4 -0.00086
81.45 -0.00113
81.5 -0.00136
81.55 -0.00201
81.6 -0.00262
81.65 -0.00255
81.7 -0.0029
81.75 -0.00343
81.8 -0.00397
81.85 -0.0043
81.9 -0.00429
81.95 -0.00435
82 -0.00387
82.05 -0.00372
82.1 -0.00297
82.15 -0.00271
82.2 -0.0027
82.25 -0.00236
82.3 -0.00163
82.35 -0.00133
82.4 -0.00081
82.45 -0.00091
82.5 -0.00146
82.55 -0.00192
82.6 -0.00176
82.65 -0.0019
82.7 -0.00209
82.75 -0.00171
82.8 -0.00096
82.85 -0.00008
82.9 0.00066
82.95 0.00086
83 0.00128
83.05 0.00163
83.1 0.00154
83.15 0.0015
83.2 0.00135
83.25 0.0011
83.3 0.00052
83.35 -0.00028
83.4 -0.00038
83.45 -0.00085
83.5 -0.00162
83.55 -0.00163
83.6 -0.00204
83.65 -0.00194
83.7 -0.00208
83.75 -0.00174
83.8 -0.00138
83.85 -0.00081
83.9 -0.00068
83.95 -0.00028
84 0.00019
84.05 0.0005
84.1 0.00035
84.15 0.00011
84.2 0.00002
84.25 -0.0001
84.3 0.0002
84.35 0.00018
84.4 0.00055
84.45 0.00099
84.5 0.00141
84.55 0.0018
84.6 0.00168
84.65 0.00114
84.7 0.00095
84.75 0.00022
84.8 -0.00029
84.85 -0.00105
84.9 -0.00118
84.95 -0.00139
85 -0.00184
85.05 -0.00194
85.1 -0.00217
85.15 -0.00263
85.2 -0.00264
85.25 -0.00227
85.3 -0.00201
85.35 -0.00188
85.4 -0.00148
85.45 -0.00156
85.5 -0.00161
85.55 -0.00163
85.6 -0.00158
85.65 -0.00175
85.7 -0.00142
85.75 -0.00068
85.8 0.00021
85.85 0.00108
85.9 0.00111
85.95 0.00065
86 0.00029
86.05 -0.00022
86.1 -0.00014
86.15 0.00001
86.2 0.00048
86.25 0.00075
86.3 0.00081
86.35 0.00107
86.4 0.00134
86.45 0.00153
86.5 0.00174
86.55 0.00176
86.6 0.00125
86.65 0.00106
86.7 0.00123
86.75 0.00151
86.8 0.00112
86.85 0.00052
86.9 0.00046
86.95 0.00051
87 -0.00003
87.05 -0.00028
87.1 -0.00075
87.15 -0.00152
87.2 -0.00162
87.25 -0.00128
87.3 -0.00123
87.35 -0.00078
87.4 -0.00003
87.45 0.00046
87.5 0.00081
87.55 0.00132
87.6 0.00124
87.65 0.00146
87.7 0.00121
87.75 0.00056
87.8 -0.00041
87.85 -0.00089
87.9 -0.00156
87.95 -0.0016
88 -0.0014
88.05 -0.00084
88.1 -0.00055
88.15 -0.00083
88.2 -0.00121
88.25 -0.00168
88.3 -0.00203
88.35 -0.0022
88.4 -0.00264
88.45 -0.00313
88.5 -0.00294
88.55 -0.00225
88.6 -0.00207
88.65 -0.00189
88.7 -0.00129
88.75 -0.00105
88.8 -0.00107
88.85 -0.00068
88.9 -0.00007
88.95 0.00036
89 0.0005
89.05 0.00065
89.1 0.00099
89.15 0.00073
89.2 0.00058
89.25 0.00015
89.3 -0.00028
89.35 -0.00098
89.4 -0.00169
89.45 -0.00165
89.5 -0.00149
89.55 -0.00165
89.6 -0.00207
89.65 -0.00238
89.7 -0.00222
89.75 -0.00217
89.8 -0.00223
89.85 -0.00239
89.9 -0.00257
89.95 -0.00267
90 -0.00228
90.05 -0.00188
90.1 -0.00131
90.15 -0.0012
90.2 -0.00142
90.25 -0.00174
90.3 -0.00168
90.35 -0.00177
90.4 -0.00164
90.45 -0.00179
90.5 -0.00182
90.55 -0.00145
90.6 -0.00155
90.65 -0.00103
90.7 -0.00096
90.75 -0.00116
90.8 -0.00146
90.85 -0.00196
90.9 -0.00223
90.95 -0.00172
91 -0.00163
91.05 -0.00097
91.1 -0.00016
91.15 0.00062
91.2 0.00117
91.25 0.00131
91.3 0.00117
91.35 0.00147
91.4 0.00178
91.45 0.00203
91.5 0.00196
91.55 0.00173
91.6 0.00148
91.65 0.00162
91.7 0.00194
91.75 0.00177
91.8 0.0014
91.85 0.00091
91.9 0.00042
91.95 0.00053
92 0.00021
92.05 -0.00015
92.1 -0.00059
92.15 -0.00056
92.2 -0.00054
92.25 -0.00043
92.3 -0.0006
92.35 -0.00098
92.4 -0.00133
92.45 -0.00186
92.5 -0.00243
92.55 -0.00239
92.6 -0.0018
92.65 -0.0016
92.7 -0.00131
92.75 -0.00053
92.8 0.00021
92.85 0.00057
92.9 0.00086
92.95 0.00135
93 0.00186
93.05 0.00183
93.1 0.00174
93.15 0.00182
93.2 0.00164
93.25 0.00121
93.3 0.0004
93.35 -0.00008
93.4 -0.00062
93.45 -0.00076
93.5 -0.00033
93.55 0.0004
93.6 0.0011
93.65 0.00104
93.7 0.00087
93.75 0.00045
93.8 0.00026
93.85 -0.00006
93.9 -0.00034
93.95 -0.00088
94 -0.00096
94.05 -0.00101
94.1 -0.00067
94.15 -0.00051
94.2 -0.00031
94.25 -0.00001
94.3 0.00038
94.35 0.00035
94.4 0.0005
94.45 0.00104
94.5 0.00163
94.55 0.00219
94.6 0.00259
94.65 0.00246
94.7 0.0018
94.75 0.00123
94.8 0.00112
94.85 0.00112
94.9 0.00089
94.95 0.0007
95 0.00012
95.05 -0.00058
95.1 -0.00124
95.15 -0.00184
95.2 -0.00251
95.25 -0.00291
95.3 -0.00328
95.35 -0.00308
95.4 -0.00228
95.45 -0.00139
95.5 -0.00084
95.55 -0.00024
95.6 0.0004
95.65 0.00059
95.7 0.0009
95.75 0.0008
95.8 0.00092
95.85 0.00073
95.9 0.00056
95.95 0.0008
96 0.00066
96.05 0.00054
96.1 0.0008
96.15 0.0007
96.2 0.0001
96.25 -0.00033
96.3 -0.00053
96.35 -0.00107
96.4 -0.00132
96.45 -0.00108
96.5 -0.00037
96.55 -0.00004
96.6 0.00041
96.65 0.00086
96.7 0.00126
96.75 0.00105
96.8 0.0008
96.85 0.00101
96.9 0.00082
96.95 0.00066
97 0.00003
97.05 0.00006
97.1 0.00028
97.15 -0.00007
97.2 -0.00015
97.25 0.00026
97.3 0.00031
97.35 0.00024
97.4 0.0003
97.45 0.00022
97.5 0.00015
97.55 0.00028
97.6 0.00069
97.65 0.00129
97.7 0.00125
97.75 0.00143
97.8 0.0015
97.85 0.00122
97.9 0.00122
97.95 0.00152
98 0.00185
98.05 0.00217
98.1 0.00219
98.15 0.00153
98.2 0.00048
98.25 -0.00058
98.3 -0.00137
98.35 -0.00217
98.4 -0.00231
98.45 -0.00259
98.5 -0.00248
98.55 -0.00215
98.6 -0.00171
98.65 -0.00144
98.7 -0.00122
98.75 -0.00139
98.8 -0.00179
98.85 -0.0023
98.9 -0.00275
98.95 -0.00243
99 -0.00235
99.05 -0.00163
99.1 -0.00144
99.15 -0.00158
99.2 -0.00126
99.25 -0.00058
99.3 -0.00023
99.35 -0.00027
99.4 -0.00025
99.45 -0.00022
99.5 -0.00054
99.55 -0.00076
99.6 -0.00082
99.65 -0.00033
99.7 -0.00035
99.75 -0.00045
99.8 -0.00039
99.85 -0.00033
99.9 -0.00013
99.95 0.00034
