0 0
0.05 0.00163
0.1 0.00296
0.15 0.00382
0.2 0.00508
0.25 0.00588
0.3 0.00608
0.35 0.00665
0.4 0.0078
0.45 0.00911
0.5 0.01023
0.55 0.01005
0.6 0.0101
0.65 0.00922
0.7 0.00931
0.75 0.00956
0.8 0.00932
0.85 0.00956
0.9 0.01018
0.95 0.01025
1 0.01092
1.05 0.01041
1.1 0.00993
1.15 0.00982
1.2 0.00935
1.25 0.00876
1.3 0.00839
1.35 0.00884
1.4 0.00894
1.45 0.00866
1.5 0.00863
1.55 0.00866
1.6 0.00893
1.65 0.0085
1.7 0.00725
1.75 0.00714
1.8 0.00738
1.85 0.00816
1.9 0.00834
1.95 0.0075
2 0.00672
2.05 0.00539
2.1 0.00483
2.15 0.00509
2.2 0.00586
2.25 0.00649
2.3 0.00745
2.35 0.00715
2.4 0.00734
2.45 0.0076
2.5 0.007
2.55 0.00579
2.6 0.00559
2.65 0.00532
2.7 0.00438
2.75 0.00338
2.8 0.00245
2.85 0.00194
2.9 0.00209
2.95 0.00262
3 0.00257
3.05 0.00316
3.1 0.00433
3.15 0.00457
3.2 0.00526
3.25 0.00503
3.3 0.00523
3.35 0.00558
3.4 0.00478
3.45 0.00357
3.5 0.00363
3.55 0.00286
3.6 0.00253
3.65 0.00233
3.7 0.00299
3.75 0.00406
3.8 0.00454
3.85 0.00428
3.9 0.00384
3.95 0.00338
4 0.00284
4.05 0.00166
4.1 0.00169
4.15 0.00215
4.2 0.00272
4.25 0.00238
4.3 0.00135
4.35 0.00152
4.4 0.00227
4.45 0.00272
4.5 0.00223
4.55 0.00133
4.6 0.00115
4.65 0.00176
4.7 0.00222
4.75 0.00214
4.8 0.00285
4.85 0.00377
4.9 0.00354
4.95 0.00369
5 0.00329
5.05 0.00304
5.1 0.00275
5.15 0.00174
5.2 0.00193
5.25 0.00247
5.3 0.00239
5.35 0.00293
5.4 0.00382
5.45 0.0037
5.5 0.00302
5.55 0.0032
5.6 0.00397
5.65 0.00487
5.7 0.00513
5.75 0.00498
5.8 0.00401
5.85 0.00286
5.9 0.00153
5.95 0.0015
6 0.00107
6.05 0.00081
6.1 0.00024
6.15 -0.00044
6.2 -0.00085
6.25 -0.00044
6.3 -0.00081
6.35 -0.00062
6.4 -0.00033
6.45 -0.00022
6.5 -0.00075
6.55 -0.00023
6.6 -0.00012
6.65 0.00001
6.7 0.00024
6.75 0.00037
6.8 0.00046
6.85 0.00123
6.9 0.00149
6.95 0.00112
7 0.00081
7.05 -0.00016
7.1 -0.0006
7.15 -0.0002
7.2 -0.00036
7.25 0.00047
7.3 0.00151
7.35 0.00169
7.4 0.00206
7.45 0.0015
7.5 0.00044
7.55 -0.00094
7.6 -0.00221
7.65 -0.0026
7.7 -0.00339
7.75 -0.0038
7.8 -0.00403
7.85 -0.00402
7.9 -0.00352
7.95 -0.00244
8 -0.00227
8.05 -0.00119
8.1 -0.00071
8.15 -0.00101
8.2 -0.00076
8.25 -0.00055
8.3 0.00055
8.35 0.00072
8.4 0.00104
8.45 0.00124
8.5 0.00195
8.55 0.00194
8.6 0.00185
8.65 0.00241
8.7 0.00211
8.75 0.00114
8.8 0.00015
8.85 0.00001
8.9 0.0002
8.95 -0.00041
9 -0.00112
9.05 -0.00058
9.1 -0.00045
9.15 -0.00038
9.2 -0.00013
9.25 0.00064
9.3 0.00081
9.35 0.0016
9.4 0.00158
9.45 0.00176
9.5 0.00176
9.55 0.00168
9.6 0.0015
9.65 0.00182
9.7 0.00274
9.75 0.00336
9.8 0.00271
9.85 0.00278
9.9 0.00221
9.95 0.00212
10 0.00202
10.05 0.00162
10.1 0.00051
10.15 0.00031
10.2 0.00102
10.25 0.00221
10.3 0.00314
10.35 0.00303
10.4 0.00224
10.45 0.00195
10.5 0.00205
10.55 0.00215
10.6 0.00229
10.65 0.0022
10.7 0.00241
10.75 0.00274
10.8 0.00276
10.85 0.00244
10.9 0.00221
10.95 0.00242
11 0.00269
11.05 0.00251
11.1 0.00195
11.15 0.0009
11.2 -0.00031
11.25 -0.00173
11.3 -0.00174
11.35 -0.00157
11.4 -0.00071
11.45 -0.00076
11.5 -0.00123
11.55 -0.00116
11.6 -0.00128
11.65 -0.0013
11.7 -0.00038
11.75 0.00048
11.8 0.00084
11.85 0.00076
11.9 0.00013
11.95 -0.00058
12 -0.00126
12.05 -0.00197
12.1 -0.00299
12.15 -0.00269
12.2 -0.00212
12.25 -0.00102
12.3 -0.00074
12.35 0.00026
12.4 0.00024
12.45 0.00035
12.5 0.00028
12.55 0.00054
12.6 -0.00009
12.65 -0.00057
12.7 -0.00107
12.75 -0.00054
12.8 -0.00048
12.85 0.00017
12.9 -0.00008
12.95 -0.00043
13 -0.00138
13.05 -0.00167
13.1 -0.00241
13.15 -0.00192
13.2 -0.00181
13.25 -0.0008
13.3 -0.00034
13.35 0.00045
13.4 0.00165
13.45 0.00163
13.5 0.00202
13.55 0.00218
13.6 0.00138
13.65 0.00092
13.7 -0.00011
13.75 -0.00031
13.8 -0.00103
13.85 -0.00133
13.9 -0.00109
13.95 -0.00082
14 -0.00086
14.05 -0.00022
14.1 -0.00057
14.15 -0.00102
14.2 -0.00163
14.25 -0.0026
14.3 -0.00366
14.35 -0.00357
14.4 -0.00307
14.45 -0.00274
14.5 -0.00188
14.55 -0.00065
14.6 0.00097
14.65 0.00163
14.7 0.00228
14.75 0.00307
14.8 0.00349
14.85 0.00366
14.9 0.00424
14.95 0.00402
15 0.00358
15.05 0.00293
15.1 0.00153
15.15 0.00069
15.2 0.00081
15.25 0.00129
15.3 0.00168
15.35 0.00259
15.4 0.00258
15.45 0.00274
15.5 0.00244
15.55 0.00249
15.6 0.00211
15.65 0.00138
15.7 0.00074
15.75 0.00059
15.8 0.00092
15.85 0.00059
15.9 0.00116
15.95 0.00196
16 0.0021
16.05 0.00173
16.1 0.0015
16.15 0.00042
16.2 -0.00005
16.25 -0.0003
16.3 0.00031
16.35 0.00129
16.4 0.00159
16.45 0.00153
16.5 0.00112
16.55 0.00044
16.6 0.00041
16.65 0.00003
16.7 0.00026
16.75 0.00076
16.8 0.00123
16.85 0.00118
16.9 0.00123
16.95 0.00125
17 0.00186
17.05 0.00185
17.1 0.00233
17.15 0.00268
17.2 0.00237
17.25 0.00272
17.3 0.00323
17.35 0.00387
17.4 0.00304
17.45 0.00249
17.5 0.00199
17.55 0.00226
17.6 0.00238
17.65 0.00291
17.7 0.00335
17.75 0.00253
17.8 0.00194
17.85 0.00201
17.9 0.00187
17.95 0.00138
18 0.00157
18.05 0.00174
18.1 0.00227
18.15 0.00159
18.2 0.00117
18.25 0.0003
18.3 -0.00095
18.35 -0.00124
18.4 -0.00074
18.45 -0.00123
18.5 -0.00132
18.55 -0.00159
18.6 -0.00093
18.65 -0.00135
18.7 -0.00188
18.75 -0.00192
18.8 -0.00111
18.85 0.00015
18.9 0.00136
18.95 0.00192
19 0.00201
19.05 0.00126
19.1 0.00003
19.15 -0.00101
19.2 -0.00148
19.25 -0.00124
19.3 -0.00156
19.35 -0.00176
19.4 -0.00209
19.45 -0.00224
19.5 -0.00304
19.55 -0.00281
19.6 -0.00188
19.65 -0.00095
19.7 -0.00031
19.75 -0.00022
19.8 -0.00013
19.85 -0.00045
19.9 0.00006
19.95 0.00048
20 0.00122
20.05 0.0015
20.1 0.00228
20.15 0.00276
20.2 0.00315
20.25 0.00292
20.3 0.0018
20.35 0.0014
20.4 0.00102
20.45 0.00059
20.5 -0.0001
20.55 -0.00098
20.6 -0.00102
20.65 -0.00127
20.7 -0.00074
20.75 -0.00018
20.8 0.00029
20.85 0.00117
20.9 0.00089
20.95 -0.00032
21 -0.0013
21.05 -0.00221
21.1 -0.00199
21.15 -0.00165
21.2 -0.00199
21.25 -0.00217
21.3 -0.00223
21.35 -0.00214
21.4 -0.00168
21.45 -0.0015
21.5 -0.00215
21.55 -0.00249
21.6 -0.00302
21.65 -0.00296
21.7 -0.00255
21.75 -0.00256
21.8 -0.00214
21.85 -0.00117
21.9 -0
21.95 0.00063
22 0.00102
22.05 0.00181
22.1 0.0026
22.15 0.00346
22.2 0.00358
22.25 0.00346
22.3 0.00331
22.35 0.00349
22.4 0.00307
22.45 0.00209
22.5 0.00204
22.55 0.00112
22.6 0.00086
22.65 -0.00003
22.7 -0.0011
22.75 -0.00245
22.8 -0.00269
22.85 -0.00281
22.9 -0.00234
22.95 -0.00274
23 -0.00263
23.05 -0.0019
23.1 -0.00172
23.15 -0.00195
23.2 -0.00184
23.25 -0.00243
23.3 -0.00348
23.35 -0.00335
23.4 -0.00365
23.45 -0.00398
23.5 -0.00459
23.55 -0.00446
23.6 -0.00331
23.65 -0.00193
23.7 -0.00167
23.75 -0.00071
23.8 -0.00076
23.85 -0.0015
23.9 -0.00141
23.95 -0.00155
24 -0.00212
24.05 -0.00309
24.1 -0.00378
24.15 -0.00466
24.2 -0.00505
24.25 -0.00492
24.3 -0.00469
24.35 -0.00455
24.4 -0.00471
24.45 -0.00521
24.5 -0.00587
24.55 -0.00652
24.6 -0.00678
24.65 -0.00718
24.7 -0.00664
24.75 -0.006
24.8 -0.00457
24.85 -0.00268
24.9 -0.00125
24.95 -0.00041
25 0.00064
25.05 0.00068
25.1 0.00048
25.15 0.0012
25.2 0.00078
25.25 0.00033
25.3 -0.00038
25.35 -0.00097
25.4 -0.00202
25.45 -0.00285
25.5 -0.00311
25.55 -0.00361
25.6 -0.00343
25.65 -0.00241
25.7 -0.00161
25.75 -0.00041
25.8 0.00084
25.85 0.00172
25.9 0.00253
25.95 0.00337
26 0.00326
26.05 0.0038
26.1 0.00459
26.15 0.00487
26.2 0.00501
26.25 0.00503
26.3 0.00392
26.35 0.00367
26.4 0.0035
26.45 0.00253
26.5 0.00147
26.55 0.00141
26.6 0.00132
26.65 0.00032
26.7 -0.00106
26.75 -0.0023
26.8 -0.0028
26.85 -0.00235
26.9 -0.00246
26.95 -0.00284
27 -0.00227
27.05 -0.00148
27.1 -0.00009
27.15 0.00012
27.2 -0.00019
27.25 -0.001
27.3 -0.00134
27.35 -0.00151
27.4 -0.00217
27.45 -0.00311
27.5 -0.00389
27.55 -0.0048
27.6 -0.00464
27.65 -0.00383
27.7 -0.00354
27.75 -0.0032
27.8 -0.00219
27.85 -0.00045
27.9 0.00106
27.95 0.00276
28 0.00311
28.05 0.00384
28.1 0.00487
28.15 0.00552
28.2 0.00601
28.25 0.00646
28.3 0.00666
28.35 0.00597
28.4 0.00424
28.45 0.00274
28.5 0.00179
28.55 0.00024
28.6 -0.00087
28.65 -0.0016
28.7 -0.00216
28.75 -0.00277
28.8 -0.00337
28.85 -0.00368
28.9 -0.00432
28.95 -0.00506
29 -0.00463
29.05 -0.00341
29.1 -0.00174
29.15 -0.00092
29.2 -0.00071
29.25 -0.00002
29.3 0.00024
29.35 0.0009
29.4 0.00142
29.45 0.00108
29.5 0
29.55 -0.00052
29.6 -0.00066
29.65 -0.00007
29.7 0.00044
29.75 0.00044
29.8 0.00114
29.85 0.00116
29.9 0.00042
29.95 -0.00048
30 -0.00137
30.05 -0.00141
30.1 -0.00104
30.15 -0.00082
30.2 -0.00088
30.25 -0.00165
30.3 -0.00192
30.35 -0.00262
30.4 -0.00354
30.45 -0.00311
30.5 -0.00309
30.55 -0.00276
30.6 -0.00224
30.65 -0.00142
30.7 -0.00138
30.75 -0.00094
30.8 -0.00061
30.85 -0.00088
30.9 -0.00008
30.95 -0.00015
31 -0.00047
31.05 -0.0011
31.1 -0.00152
31.15 -0.00154
31.2 -0.00072
31.25 -0.00032
31.3 -0.0004
31.35 -0.00079
31.4 -0.00083
31.45 -0.00124
31.5 -0.00169
31.55 -0.00112
31.6 -0.00113
31.65 -0.00144
31.7 -0.00095
31.75 -0.00126
31.8 -0.00055
31.85 -0.00067
31.9 -0.00103
31.95 -0.00125
32 -0.00081
32.05 -0.00095
32.1 -0.00046
32.15 -0.00028
32.2 -0.00013
32.25 0.00037
32.3 0.00031
32.35 -0.00045
32.4 -0.00055
32.45 0.00033
32.5 0.00051
32.55 0.00123
32.6 0.0013
32.65 0.00211
32.7 0.00335
32.75 0.00386
32.8 0.00413
32.85 0.00394
32.9 0.00401
32.95 0.00408
33 0.00462
33.05 0.00473
33.1 0.00462
33.15 0.00365
33.2 0.00337
33.25 0.00325
33.3 0.00223
33.35 0.0012
33.4 0.00019
33.45 -0.00043
33.5 -0.00071
33.55 -0.00116
33.6 -0.00202
33.65 -0.00242
33.7 -0.00289
33.75 -0.00277
33.8 -0.00158
33.85 -0.00011
33.9 0.00053
33.95 0.00127
34 0.00242
34.05 0.00217
34.1 0.00222
34.15 0.00224
34.2 0.002
34.25 0.00167
34.3 0.0014
34.35 0.00104
34.4 0.00145
34.45 0.00227
34.5 0.00347
34.55 0.00395
34.6 0.0044
34.65 0.00453
34.7 0.00387
34.75 0.00342
34.8 0.00343
34.85 0.00386
34.9 0.00301
34.95 0.00206
35 0.00108
35.05 -0.00035
35.1 -0.00117
35.15 -0.00187
35.2 -0.00215
35.25 -0.00181
35.3 -0.00203
35.35 -0.00269
35.4 -0.00351
35.45 -0.00381
35.5 -0.00328
35.55 -0.00299
35.6 -0.00337
35.65 -0.00343
35.7 -0.00257
35.75 -0.00126
35.8 0.00019
35.85 0.001
35.9 0.00074
35.95 0.00129
36 0.00179
36.05 0.00227
36.1 0.0032
36.15 0.00369
36.2 0.00422
36.25 0.00364
36.3 0.00323
36.35 0.00204
36.4 0.00152
36.45 0.00039
36.5 0.00017
36.55 0.00072
36.6 0.00149
36.65 0.00239
36.7 0.00223
36.75 0.00135
36.8 0.00114
36.85 0.00068
36.9 0.0006
36.95 0.00068
37 -0.00013
37.05 -0.00075
37.1 -0.00185
37.15 -0.00263
37.2 -0.00319
37.25 -0.00324
37.3 -0.00228
37.35 -0.00174
37.4 -0.00159
37.45 -0.00053
37.5 -0.00066
37.55 0.00001
37.6 0.0012
37.65 0.00221
37.7 0.00194
37.75 0.00125
37.8 0.00025
37.85 -0.00098
37.9 -0.00176
37.95 -0.00239
38 -0.00344
38.05 -0.00424
38.1 -0.00388
38.15 -0.00314
38.2 -0.00231
38.25 -0.00194
38.3 -0.00122
38.35 -0.00133
38.4 -0.00191
38.45 -0.00291
38.5 -0.00372
38.55 -0.00333
38.6 -0.00227
38.65 -0.00172
38.7 -0.00049
38.75 0.00062
38.8 0.0015
38.85 0.0027
38.9 0.00268
38.95 0.00243
39 0.00128
39.05 0.00094
39.1 0.00039
39.15 -0.00066
39.2 -0.00205
39.25 -0.00228
39.3 -0.00222
39.35 -0.0024
39.4 -0.00309
39.45 -0.0031
39.5 -0.00286
39.55 -0.00243
39.6 -0.00275
39.65 -0.00195
39.7 -0.00146
39.75 -0.0005
39.8 0.00071
39.85 0.00108
39.9 0.0012
39.95 0.00076
40 0.00074
40.05 0.00105
40.1 0.00185
40.15 0.00272
40.2 0.00288
40.25 0.00314
40.3 0.00251
40.35 0.00114
40.4 0.00007
40.45 0.00019
40.5 -0.00044
40.55 0.00005
40.6 0.00016
40.65 -0.00022
40.7 -0.00086
40.75 -0.00079
40.8 -0.00138
40.85 -0.00138
40.9 -0.00059
40.95 -0.0003
41 0.00003
41.05 0.00023
41.1 0.00009
41.15 0.00003
41.2 -0.00033
41.25 -0.00077
41.3 -0.00031
41.35 -0.00054
41.4 -0.00033
41.45 0.00025
41.5 0.00044
41.55 0.00077
41.6 0.00177
41.65 0.00281
41.7 0.0031
41.75 0.00312
41.8 0.00208
41.85 0.00083
41.9 0.00003
41.95 -0.00028
42 -0.00094
42.05 -0.0017
42.1 -0.00259
42.15 -0.00239
42.2 -0.00165
42.25 -0.0017
42.3 -0.00088
42.35 -0.00061
42.4 -0.00026
42.45 0.00024
42.5 0.00025
42.55 -0.00055
42.6 -0.00097
42.65 -0.00128
42.7 -0.00095
42.75 -0.00037
42.8 -0.0004
42.85 -0.00027
42.9 0.0006
42.95 0.00031
43 0.00016
43.05 0.00075
43.1 0.00062
43.15 0.00101
43.2 0.00046
43.25 -0.00038
43.3 -0.00168
43.35 -0.003
43.4 -0.00319
43.45 -0.00334
43.5 -0.00361
43.55 -0.00279
43.6 -0.0021
43.65 -0.00117
43.7 0.00004
43.75 0.00103
43.8 0.00134
43.85 0.00105
43.9 0.00084
43.95 0.00116
44 0.00171
44.05 0.00148
44.1 0.00143
44.15 0.00191
44.2 0.00136
44.25 0.00177
44.3 0.00215
44.35 0.00238
44.4 0.0028
44.45 0.00367
44.5 0.00462
44.55 0.00471
44.6 0.00432
44.65 0.00412
44.7 0.0031
44.75 0.00212
44.8 0.00109
44.85 0.00036
44.9 -0.00077
44.95 -0.00142
45 -0.00103
45.05 -0.00084
45.1 0.00002
45.15 0.00041
45.2 -0.00018
45.25 -0.00078
45.3 -0.00151
45.35 -0.00142
45.4 -0.00151
45.45 -0.00116
45.5 -0.00073
45.55 0.00031
45.6 0.00067
45.65 0.00003
45.7 -0.00029
45.75 -0.00099
45.8 -0.00165
45.85 -0.00156
45.9 -0.00216
45.95 -0.00241
46 -0.00243
46.05 -0.00281
46.1 -0.00246
46.15 -0.00138
46.2 -0.00137
46.25 -0.00102
46.3 0.00004
46.35 0.0008
46.4 0.0007
46.45 0.00079
46.5 0.00075
46.55 0.00019
46.6 0.00013
46.65 0.00033
46.7 -0.00034
46.75 -0.00058
46.8 -0.00139
46.85 -0.00214
46.9 -0.00273
46.95 -0.00269
47 -0.00301
47.05 -0.00247
47.1 -0.00198
47.15 -0.00086
47.2 0.00021
47.25 0.00171
47.3 0.00308
47.35 0.00343
47.4 0.00397
47.45 0.00336
47.5 0.00305
47.55 0.00245
47.6 0.0025
47.65 0.00281
47.7 0.0032
47.75 0.00254
47.8 0.00129
47.85 -0.00017
47.9 -0.0007
47.95 -0.00116
48 -0.00169
48.05 -0.00176
48.1 -0.00195
48.15 -0.00136
48.2 -0.00018
48.25 0.00017
48.3 0
48.35 0.00014
48.4 0.00057
48.45 0.00103
48.5 0.00156
48.55 0.00232
48.6 0.00175
48.65 0.00202
48.7 0.00141
48.75 0.00009
48.8 -0.00046
48.85 -0.00038
48.9 0.00017
48.95 0.00069
49 0.00127
49.05 0.00079
49.1 0.00011
49.15 -0.001
49.2 -0.00244
49.25 -0.00252
49.3 -0.00268
49.35 -0.00296
49.4 -0.00318
49.45 -0.00308
49.5 -0.00217
49.55 -0.00178
49.6 -0.00073
49.65 0.00021
49.7 0.00033
49.75 0.00108
49.8 0.00201
49.85 0.00309
49.9 0.00301
49.95 0.00187
50 0.0007
50.05 0.00061
50.1 -0.00035
50.15 -0.00134
50.2 -0.00128
50.25 -0.00138
50.3 -0.00149
50.35 -0.00194
50.4 -0.00169
50.45 -0.00146
50.5 -0.0007
50.55 -0.00083
50.6 -0.00086
50.65 -0.00093
50.7 -0.00023
50.75 0.00085
50.8 0.0012
50.85 0.00109
50.9 0.00169
50.95 0.00123
51 0.00031
51.05 -0.0003
51.1 -0.00107
51.15 -0.0021
51.2 -0.00258
51.25 -0.00259
51.3 -0.00209
51.35 -0.00213
51.4 -0.00145
51.45 -0.00081
51.5 -0.00059
51.55 0.00017
51.6 -0.00006
51.65 0.00054
51.7 0.00165
51.75 0.00271
51.8 0.0029
51.85 0.00351
51.9 0.00427
51.95 0.00519
52 0.00455
52.05 0.00402
52.1 0.00343
52.15 0.00237
52.2 0.00211
52.25 0.0022
52.3 0.0016
52.35 0.00128
52.4 0.00105
52.45 0.00129
52.5 0.0009
52.55 0.00071
52.6 -0.00015
52.65 -0.00037
52.7 -0.00046
52.75 -0.0005
52.8 -0.00032
52.85 -0.00081
52.9 -0.00146
52.95 -0.00114
53 -0.00106
53.05 -0.00139
53.1 -0.0018
53.15 -0.00144
53.2 -0.00123
53.25 -0.00151
53.3 -0.00139
53.35 -0.00123
53.4 -0.00125
53.45 -0.00096
53.5 -0.00013
53.55 -0.00012
53.6 0.00058
53.65 0.00076
53.7 0.00133
53.75 0.00055
53.8 -0.00101
53.85 -0.00205
53.9 -0.00221
53.95 -0.00265
54 -0.00405
54.05 -0.00564
54.1 -0.00805
54.15 -0.0095
54.2 -0.01144
54.25 -0.01265
54.3 -0.0153
54.35 -0.01748
54.4 -0.02089
54.45 -0.02517
54.5 -0.03045
54.55 -0.03602
54.6 -0.04173
54.65 -0.04777
54.7 -0.05472
54.75 -0.06326
54.8 -0.07315
54.85 -0.08343
54.9 -0.09542
54.95 -0.10879
55 -0.12316
55.05 -0.13933
55.1 -0.15582
55.15 -0.17432
55.2 -0.19306
55.25 -0.21402
55.3 -0.23547
55.35 -0.2587
55.4 -0.2833
55.45 -0.3073
55.5 -0.33156
55.55 -0.35582
55.6 -0.37957
55.65 -0.40362
55.7 -0.42737
55.75 -0.45032
55.8 -0.47088
55.85 -0.48903
55.9 -0.50577
55.95 -0.5206
56 -0.53247
56.05 -0.5409
56.1 -0.54636
56.15 -0.54806
56.2 -0.54573
56.25 -0.53984
56.3 -0.52942
56.35 -0.51548
56.4 -0.49683
56.45 -0.47419
56.5 -0.44778
56.55 -0.41868
56.6 -0.38656
56.65 -0.35263
56.7 -0.31625
56.75 -0.27922
56.8 -0.24112
56.85 -0.20242
56.9 -0.16342
56.95 -0.12416
57 -0.085
57.05 -0.04634
57.1 -0.00761
57.15 0.03043
57.2 0.06706
57.25 0.10312
57.3 0.13644
57.35 0.16807
57.4 0.19772
57.45 0.22624
57.5 0.25282
57.55 0.27673
57.6 0.29804
57.65 0.31868
57.7 0.33693
57.75 0.35334
57.8 0.36835
57.85 0.38248
57.9 0.39502
57.95 0.40564
58 0.41483
58.05 0.42309
58.1 0.43055
58.15 0.43712
58.2 0.44323
58.25 0.44837
58.3 0.45168
58.35 0.45355
58.4 0.45492
58.45 0.45514
58.5 0.45494
58.55 0.45327
58.6 0.45007
58.65 0.44638
58.7 0.44204
58.75 0.43753
58.8 0.43214
58.85 0.42494
58.9 0.41773
58.95 0.40972
59 0.40128
59.05 0.39176
59.1 0.38176
59.15 0.37113
59.2 0.36104
59.25 0.35085
59.3 0.3415
59.35 0.33199
59.4 0.32168
59.45 0.31219
59.5 0.30265
59.55 0.29198
59.6 0.28145
59.65 0.27083
59.7 0.25988
59.75 0.25007
59.8 0.24032
59.85 0.23047
59.9 0.22008
59.95 0.2099
60 0.20041
60.05 0.19094
60.1 0.18138
60.15 0.17236
60.2 0.16382
60.25 0.15579
60.3 0.14814
60.35 0.14095
60.4 0.13441
60.45 0.12725
60.5 0.12039
60.55 0.11382
60.6 0.10638
60.65 0.09883
60.7 0.09128
60.75 0.08366
60.8 0.07596
60.85 0.06879
60.9 0.06206
60.95 0.05653
61 0.05092
61.05 0.0457
61.1 0.04004
61.15 0.03412
61.2 0.02828
61.25 0.02284
61.3 0.01837
61.35 0.01336
61.4 0.00839
61.45 0.00491
61.5 0.00103
61.55 -0.00175
61.6 -0.004
61.65 -0.00673
61.7 -0.00931
61.75 -0.0117
61.8 -0.01499
61.85 -0.0187
61.9 -0.02202
61.95 -0.02588
62 -0.02894
62.05 -0.03224
62.1 -0.03573
62.15 -0.03858
62.2 -0.04084
62.25 -0.04327
62.3 -0.04541
62.35 -0.0481
62.4 -0.05098
62.45 -0.05343
62.5 -0.05551
62.55 -0.05624
62.6 -0.05601
62.65 -0.05675
62.7 -0.05788
62.75 -0.05808
62.8 -0.05873
62.85 -0.06008
62.9 -0.0607
62.95 -0.0608
63 -0.06118
63.05 -0.06123
63.1 -0.06178
63.15 -0.06302
63.2 -0.06338
63.25 -0.06357
63.3 -0.06357
63.35 -0.0637
63.4 -0.06413
63.45 -0.06377
63.5 -0.06316
63.55 -0.06336
63.6 -0.06405
63.65 -0.06361
63.7 -0.06302
63.75 -0.06201
63.8 -0.06074
63.85 -0.06007
63.9 -0.06028
63.95 -0.06087
64 -0.06179
64.05 -0.06222
64.1 -0.06126
64.15 -0.05986
64.2 -0.05849
64.25 -0.05744
64.3 -0.05714
64.35 -0.05702
64.4 -0.05705
64.45 -0.05586
64.5 -0.05521
64.55 -0.05362
64.6 -0.05249
64.65 -0.0522
64.7 -0.05161
64.75 -0.05143
64.8 -0.05122
64.85 -0.05149
64.9 -0.05097
64.95 -0.04969
65 -0.04831
65.05 -0.04697
65.1 -0.04609
65.15 -0.04503
65.2 -0.04343
65.25 -0.04148
65.3 -0.04021
65.35 -0.03969
65.4 -0.0401
65.45 -0.04107
65.5 -0.04128
65.55 -0.04037
65.6 -0.03923
65.65 -0.0383
65.7 -0.03779
65.75 -0.03646
65.8 -0.03466
65.85 -0.03418
65.9 -0.03463
65.95 -0.03402
66 -0.03421
66.05 -0.0349
66.1 -0.03475
66.15 -0.03453
66.2 -0.03457
66.25 -0.03498
66.3 -0.03541
66.35 -0.03532
66.4 -0.03404
66.45 -0.03223
66.5 -0.03012
66.55 -0.02896
66.6 -0.02843
66.65 -0.02714
66.7 -0.02696
66.75 -0.02678
66.8 -0.02679
66.85 -0.02738
66.9 -0.0267
66.95 -0.02665
67 -0.02627
67.05 -0.02573
67.1 -0.02477
67.15 -0.02369
67.2 -0.02365
67.25 -0.02409
67.3 -0.02405
67.35 -0.02318
67.4 -0.02183
67.45 -0.02125
67.5 -0.02033
67.55 -0.01923
67.6 -0.0177
67.65 -0.01606
67.7 -0.01474
67.75 -0.01475
67.8 -0.01528
67.85 -0.01601
67.9 -0.01614
67.95 -0.01594
68 -0.01548
68.05 -0.01593
68.1 -0.01608
68.15 -0.01706
68.2 -0.0183
68.25 -0.01912
68.3 -0.01865
68.35 -0.01796
68.4 -0.01752
68.45 -0.01672
68.5 -0.01629
68.55 -0.01531
68.6 -0.01385
68.65 -0.01222
68.7 -0.01118
68.75 -0.01026
68.8 -0.00992
68.85 -0.01056
68.9 -0.01165
68.95 -0.01227
69 -0.01204
69.05 -0.01208
69.1 -0.01262
69.15 -0.01247
69.2 -0.01174
69.25 -0.01145
69.3 -0.0117
69.35 -0.01177
69.4 -0.01156
69.45 -0.01126
69.5 -0.01024
69.55 -0.00964
69.6 -0.01002
69.65 -0.0101
69.7 -0.01054
69.75 -0.01071
69.8 -0.01025
69.85 -0.00951
69.9 -0.00996
69.95 -0.01098
70 -0.01171
70.05 -0.01161
70.1 -0.01216
70.15 -0.01279
70.2 -0.01357
70.25 -0.01348
70.3 -0.01283
70.35 -0.01151
70.4 -0.00967
70.45 -0.00866
70.5 -0.00807
70.55 -0.00852
70.6 -0.00803
70.65 -0.00726
70.7 -0.00665
70.75 -0.00562
70.8 -0.0058
70.85 -0.0058
70.9 -0.00678
70.95 -0.007
71 -0.00774
71.05 -0.00763
71.1 -0.00796
71.15 -0.00774
71.2 -0.00747
71.25 -0.00803
71.3 -0.00837
71.35 -0.00818
71.4 -0.00803
71.45 -0.0076
71.5 -0.00797
71.55 -0.0083
71.6 -0.00842
71.65 -0.00862
71.7 -0.00931
71.75 -0.00898
71.8 -0.00802
71.85 -0.00652
71.9 -0.00582
71.95 -0.00566
72 -0.00487
72.05 -0.00393
72.1 -0.00304
72.15 -0.00259
72.2 -0.00225
72.25 -0.00218
72.3 -0.00246
72.35 -0.00241
72.4 -0.00305
72.45 -0.00336
72.5 -0.00371
72.55 -0.00431
72.6 -0.00429
72.65 -0.00477
72.7 -0.00487
72.75 -0.00501
72.8 -0.00586
72.85 -0.00623
72.9 -0.00612
72.95 -0.00648
73 -0.00571
73.05 -0.00431
73.1 -0.00363
73.15 -0.00298
73.2 -0.00279
73.25 -0.00245
73.3 -0.00295
73.35 -0.00305
73.4 -0.00314
73.45 -0.00248
73.5 -0.0023
73.55 -0.00143
73.6 -0.00127
73.65 -0.00094
73.7 -0.00109
73.75 -0.00219
73.8 -0.00366
73.85 -0.00385
73.9 -0.00436
73.95 -0.00455
74 -0.00422
74.05 -0.0034
74.1 -0.00307
74.15 -0.00289
74.2 -0.0027
74.25 -0.00248
74.3 -0.00242
74.35 -0.00157
74.4 -0.00139
74.45 -0.00214
74.5 -0.00295
74.55 -0.00355
74.6 -0.00412
74.65 -0.00391
74.7 -0.00317
74.75 -0.00249
74.8 -0.0017
74.85 -0.00106
74.9 -0.00133
74.95 -0.00129
75 -0.00053
75.05 0.00062
75.1 0.0011
75.15 0.00103
75.2 0.00115
75.25 0.00159
75.3 0.00113
75.35 0.00097
75.4 -0.00005
75.45 -0.00026
75.5 -0.00119
75.55 -0.00184
75.6 -0.00269
75.65 -0.0026
75.7 -0.00251
75.75 -0.00174
75.8 -0.00071
75.85 0.00049
75.9 0.00132
75.95 0.00217
76 0.00231
76.05 0.00154
76.1 0.00039
76.15 0.0001
76.2 -0.00022
76.25 -0.00046
76.3 -0.00122
76.35 -0.00226
76.4 -0.00371
76.45 -0.00393
76.5 -0.00394
76.55 -0.00365
76.6 -0.00354
76.65 -0.00305
76.7 -0.00265
76.75 -0.00204
76.8 -0.00105
76.85 -0.00067
76.9 -0.00094
76.95 -0.00136
77 -0.0022
77.05 -0.00284
77.1 -0.00244
77.15 -0.00198
77.2 -0.00194
77.25 -0.00109
77.3 0.00013
77.35 0.00102
77.4 0.00077
77.45 0.00064
77.5 0.00075
77.55 -0.00004
77.6 -0.00091
77.65 -0.00068
77.7 -0.0001
77.75 0.00036
77.8 0.0013
77.85 0.0013
77.9 0.00051
77.95 -0.00079
78 -0.00186
78.05 -0.00202
78.1 -0.00179
78.15 -0.00114
78.2 -0.00139
78.25 -0.0011
78.3 -0.00073
78.35 -0.00111
78.4 -0.00192
78.45 -0.00216
78.5 -0.00197
78.55 -0.00177
78.6 -0.0019
78.65 -0.00259
78.7 -0.00343
78.75 -0.00312
78.8 -0.00253
78.85 -0.00272
78.9 -0.00303
78.95 -0.00325
79 -0.0031
79.05 -0.00218
79.1 -0.00176
79.15 -0.00058
79.2 0.00073
79.25 0.00066
79.3 0.00033
79.35 0.00009
79.4 -0.00068
79.45 -0.00153
79.5 -0.00198
79.55 -0.00151
79.6 -0.00122
79.65 -0.0008
79.7 -0.00026
79.75 -0.00073
79.8 -0.00038
79.85 -0.00094
79.9 -0.00112
79.95 -0.00173
80 -0.00158
80.05 -0.00064
80.1 -0.0003
80.15 -0.00067
80.2 -0.00087
80.25 -0.00051
80.3 0.00047
80.35 0.00021
80.4 -0.00063
80.45 -0.00088
80.5 -0.0008
80.55 -0.00023
80.6 -0.00021
80.65 0.0004
80.7 0.00041
80.75 0.00087
80.8 0.00019
80.85 -0.00084
80.9 -0.0007
80.95 -0.00046
81 -0
81.05 0.00076
81.1 0.00149
81.15 0.00207
81.2 0.00154
81.25 0.00095
81.3 0.00113
81.35 0.0014
81.4 0.0017
81.45 0.00168
81.5 0.0023
81.55 0.0018
81.6 0.0019
81.65 0.00213
81.7 0.00185
81.75 0.00201
81.8 0.00125
81.85 0.00042
81.9 -0.00071
81.95 -0.00173
82 -0.00259
82.05 -0.00318
82.1 -0.00256
82.15 -0.00231
82.2 -0.00171
82.25 -0.00066
82.3 0.00003
82.35 -0.00039
82.4 -0.00045
82.45 0.00029
82.5 0.00101
82.55 0.00092
82.6 0.00014
82.65 -0.0005
82.7 -0.00158
82.75 -0.00253
82.8 -0.00346
82.85 -0.00309
82.9 -0.0019
82.95 -0.00056
83 0.0003
83.05 0.00095
83.1 0.00035
83.15 -0.00032
83.2 -0.00129
83.25 -0.00143
83.3 -0.00077
83.35 -0.00036
83.4 0.0004
83.45 0.00075
83.5 0.00013
83.55 -0.00056
83.6 -0.00096
83.65 -0.00123
83.7 -0.00093
83.75 -0.00126
83.8 -0.00227
83.85 -0.00349
83.9 -0.00466
83.95 -0.0047
84 -0.00363
84.05 -0.00228
84.1 -0.00068
84.15 0.00026
84.2 0.00146
84.25 0.00148
84.3 0.00155
84.35 0.00114
84.4 0.00119
84.45 0.00173
84.5 0.00127
84.55 0.0015
84.6 0.00222
84.65 0.00187
84.7 0.00103
84.75 -0.00014
84.8 -0.00135
84.85 -0.00178
84.9 -0.00273
84.95 -0.00383
85 -0.00458
85.05 -0.0049
85.1 -0.00403
85.15 -0.00273
85.2 -0.00145
85.25 0.00015
85.3 0.00035
85.35 0.00031
85.4 -0.00054
85.45 -0.00179
85.5 -0.00282
85.55 -0.0025
85.6 -0.00202
85.65 -0.00116
85.7 -0.00116
85.75 -0.00139
85.8 -0.00177
85.85 -0.00239
85.9 -0.00264
85.95 -0.00264
86 -0.00313
86.05 -0.00339
86.1 -0.0029
86.15 -0.00185
86.2 -0.00171
86.25 -0.00215
86.3 -0.00296
86.35 -0.00383
86.4 -0.0034
86.45 -0.00208
86.5 -0.00119
86.55 -0.001
86.6 0.00008
86.65 0.00019
86.7 0.00087
86.75 0.00083
86.8 0.00012
86.85 -0.00087
86.9 -0.0018
86.95 -0.0021
87 -0.00184
87.05 -0.00199
87.1 -0.00134
87.15 -0.00003
87.2 0.0014
87.25 0.00238
87.3 0.00353
87.35 0.00439
87.4 0.00542
87.45 0.00579
87.5 0.00532
87.55 0.00427
87.6 0.0032
87.65 0.00143
87.7 0.00099
87.75 0.00072
87.8 0.00121
87.85 0.00168
87.9 0.00239
87.95 0.0022
88 0.0015
88.05 0.00139
88.1 0.00137
88.15 0.00177
88.2 0.00139
88.25 0.00084
88.3 0.00047
88.35 -0.00067
88.4 -0.00212
88.45 -0.00359
88.5 -0.00339
88.55 -0.00361
88.6 -0.00357
88.65 -0.00331
88.7 -0.00319
88.75 -0.00207
88.8 -0.00151
88.85 -0.00017
88.9 0.00023
88.95 0.00075
89 0.00157
89.05 0.00223
89.1 0.00306
89.15 0.00291
89.2 0.00338
89.25 0.00318
89.3 0.00336
89.35 0.00403
89.4 0.00426
89.45 0.0046
89.5 0.00461
89.55 0.00356
89.6 0.00172
89.65 0.00056
89.7 -0.00103
89.75 -0.00184
89.8 -0.00273
89.85 -0.00286
89.9 -0.00345
89.95 -0.00409
90 -0.00386
90.05 -0.00266
90.1 -0.00218
90.15 -0.00123
90.2 -0.00125
90.25 -0.00117
90.3 -0.00121
90.35 -0.00062
90.4 -0.0003
90.45 0.00023
90.5 0.00033
90.55 -0.00043
90.6 -0.00119
90.65 -0.00086
90.7 0.00015
90.75 0.001
90.8 0.00138
90.85 0.00203
90.9 0.00254
90.95 0.00198
91 0.00109
91.05 -0.00042
91.1 -0.00179
91.15 -0.00219
91.2 -0.00239
91.25 -0.00229
91.3 -0.00283
91.35 -0.00344
91.4 -0.00271
91.45 -0.00173
91.5 -0.00128
91.55 -0.00054
91.6 -0.00072
91.65 -0.00012
91.7 0.00048
91.75 0.00061
91.8 0.00067
91.85 0.00132
91.9 0.00127
91.95 0.00093
92 0.00085
92.05 0.00085
92.1 0.00082
92.15 0.0011
92.2 0.00094
92.25 0.00013
92.3 0.00028
92.35 -0.00019
92.4 0.00026
92.45 0.00035
92.5 -0.00021
92.55 -0.0014
92.6 -0.0027
92.65 -0.00271
92.7 -0.00284
92.75 -0.00264
92.8 -0.00266
92.85 -0.0031
92.9 -0.00377
92.95 -0.0047
93 -0.00452
93.05 -0.00431
93.1 -0.00419
93.15 -0.00414
93.2 -0.00445
93.25 -0.00419
93.3 -0.00405
93.35 -0.00355
93.4 -0.0028
93.45 -0.00169
93.5 -0.00062
93.55 0.00024
93.6 0.00069
93.65 0.00051
93.7 0.00075
93.75 0.00134
93.8 0.00086
93.85 0.00092
93.9 0.00079
93.95 0.00109
94 0.00045
94.05 -0.00031
94.1 -0.00038
94.15 0.00042
94.2 0.00062
94.25 0.00071
94.3 0.001
94.35 0.00077
94.4 0.00076
94.45 0.00088
94.5 0.00108
94.55 0.00186
94.6 0.00172
94.65 0.00143
94.7 0.00175
94.75 0.00225
94.8 0.0022
94.85 0.00259
94.9 0.00256
94.95 0.00181
95 0.00161
95.05 0.00091
95.1 0.00013
95.15 -0.00086
95.2 -0.00213
95.25 -0.00267
95.3 -0.00196
95.35 -0.00058
95.4 0.00093
95.45 0.00141
95.5 0.00234
95.55 0.00199
95.6 0.00237
95.65 0.0017
95.7 0.00168
95.75 0.0018
95.8 0.00217
95.85 0.00296
95.9 0.0024
95.95 0.00187
96 0.00177
96.05 0.00073
96.1 -0.00016
96.15 -0.00066
96.2 -0.00059
96.25 -0.00119
96.3 -0.00077
96.35 -0.00016
96.4 -0.00048
96.45 -0.00095
96.5 -0.00048
96.55 0.00036
96.6 0.00077
96.65 0.00032
96.7 -0.00044
96.75 -0.0004
96.8 -0.00081
96.85 -0.00066
96.9 0.0002
96.95 0.00084
97 0.00201
97.05 0.00247
97.1 0.00208
97.15 0.00101
97.2 0
97.25 -0.00034
97.3 0.0003
97.35 0.0015
97.4 0.00238
97.45 0.00312
97.5 0.00256
97.55 0.00217
97.6 0.00238
97.65 0.00142
97.7 0.00013
97.75 -0.00055
97.8 -0.00025
97.85 -0.00076
97.9 -0.00116
97.95 -0.00209
98 -0.00279
98.05 -0.00335
98.1 -0.00409
98.15 -0.00453
98.2 -0.0049
98.25 -0.00463
98.3 -0.00436
98.35 -0.00343
98.4 -0.00174
98.45 -0.00074
98.5 -0.00036
98.55 -0.00011
98.6 -0.00035
98.65 -0.00117
98.7 -0.00181
98.75 -0.00202
98.8 -0.00131
98.85 -0.00108
98.9 -0.00055
98.95 0.00019
99 0.00068
99.05 0.00163
99.1 0.00189
99.15 0.00117
99.2 0.00082
99.25 0.00034
99.3 0.0002
99.35 0.00029
99.4 0
99.45 0.00009
99.5 -0.00065
99.55 -0.00113
99.6 -0.00159
99.65 -0.00151
99.7 -0.00211
99.75 -0.00177
99.8 -0.00163
99.85 -0.00075
99.9 0.00019
99.95 0.00063
