0 0
0.05 0.00159
0.1 0.00425
0.15 0.00614
0.2 0.00878
0.25 0.0116
0.3 0.01366
0.35 0.0155
0.4 0.01766
0.45 0.01885
0.5 0.01929
0.55 0.01812
0.6 0.01735
0.65 0.01767
0.7 0.01847
0.75 0.01838
0.8 0.01884
0.85 0.01859
0.9 0.01671
0.95 0.01549
1 0.01516
1.05 0.0134
1.1 0.01126
1.15 0.01107
1.2 0.00981
1.25 0.0094
1.3 0.00811
1.35 0.00809
1.4 0.00873
1.45 0.01037
1.5 0.01208
1.55 0.0127
1.6 0.012
1.65 0.01106
1.7 0.01068
1.75 0.01085
1.8 0.00991
1.85 0.00838
1.9 0.00794
1.95 0.00691
2 0.00722
2.05 0.0077
2.1 0.00791
2.15 0.00783
2.2 0.00687
2.25 0.00527
2.3 0.00356
2.35 0.00164
2.4 0.00018
2.45 -0.00059
2.5 0.00069
2.55 0.0027
2.6 0.0052
2.65 0.00603
2.7 0.00767
2.75 0.00759
2.8 0.00769
2.85 0.00849
2.9 0.009
2.95 0.01014
3 0.0098
3.05 0.01024
3.1 0.00915
3.15 0.00695
3.2 0.00439
3.25 0.00209
3.3 0.00212
3.35 0.00307
3.4 0.00453
3.45 0.00629
3.5 0.00844
3.55 0.00927
3.6 0.00836
3.65 0.00753
3.7 0.00729
3.75 0.00574
3.8 0.00566
3.85 0.00658
3.9 0.00765
3.95 0.00758
4 0.00675
4.05 0.0049
4.1 0.00488
4.15 0.00464
4.2 0.00362
4.25 0.00298
4.3 0.00237
4.35 0.00107
4.4 0.00068
4.45 0.00033
4.5 0.00082
4.55 0.00178
4.6 0.00259
4.65 0.00248
4.7 0.00279
4.75 0.0038
4.8 0.00514
4.85 0.00519
4.9 0.00482
4.95 0.00549
5 0.00672
5.05 0.00815
5.1 0.00839
5.15 0.00867
5.2 0.00794
5.25 0.00706
5.3 0.00598
5.35 0.00529
5.4 0.00404
5.45 0.00243
5.5 0.00037
5.55 -0.00179
5.6 -0.00293
5.65 -0.00317
5.7 -0.00185
5.75 -0.0012
5.8 0.00033
5.85 0.00191
5.9 0.00307
5.95 0.00393
6 0.00541
6.05 0.00701
6.1 0.00681
6.15 0.00683
6.2 0.0063
6.25 0.00667
6.3 0.00584
6.35 0.00495
6.4 0.00298
6.45 0.00084
6.5 0.00071
6.55 0.00184
6.6 0.00235
6.65 0.00324
6.7 0.00418
6.75 0.00536
6.8 0.00491
6.85 0.00418
6.9 0.00468
6.95 0.00548
7 0.00591
7.05 0.00586
7.1 0.00574
7.15 0.00448
7.2 0.00387
7.25 0.00293
7.3 0.00201
7.35 0.00218
7.4 0.00196
7.45 0.00073
7.5 0.00057
7.55 0.00069
7.6 0.00184
7.65 0.00156
7.7 0.00231
7.75 0.00382
7.8 0.00459
7.85 0.00436
7.9 0.00323
7.95 0.00239
8 0.00204
8.05 0.00284
8.1 0.00374
8.15 0.0034
8.2 0.00247
8.25 0.00091
8.3 -0.00076
8.35 -0.00064
8.4 -0.00056
8.45 -0.00022
8.5 0.00082
8.55 0.0015
8.6 0.00062
8.65 -0.00067
8.7 -0.00081
8.75 -0.00043
8.8 0.00038
8.85 0.00178
8.9 0.00335
8.95 0.00474
9 0.00497
9.05 0.00361
9.1 0.00344
9.15 0.00365
9.2 0.00383
9.25 0.00347
9.3 0.00268
9.35 0.00187
9.4 0.0011
9.45 -0.00063
9.5 -0.0014
9.55 -0.00065
9.6 0.00101
9.65 0.00312
9.7 0.00284
9.75 0.00266
9.8 0.00191
9.85 -0.00005
9.9 -0.00258
9.95 -0.00375
10 -0.00397
10.05 -0.00346
10.1 -0.00397
10.15 -0.00392
10.2 -0.00375
10.25 -0.00458
10.3 -0.00414
10.35 -0.00427
10.4 -0.00506
10.45 -0.00535
10.5 -0.00536
10.55 -0.00566
10.6 -0.00562
10.65 -0.00432
10.7 -0.00246
10.75 -0.00112
10.8 -0.00032
10.85 -0.00055
10.9 -0.00189
10.95 -0.0022
11 -0.00147
11.05 -0.00015
11.1 0.00145
11.15 0.00206
11.2 0.00335
11.25 0.0039
11.3 0.00359
11.35 0.00227
11.4 0.00034
11.45 -0.00025
11.5 -0.00072
11.55 -0.0009
11.6 -0.00132
11.65 -0.00044
11.7 -0.00094
11.75 -0.00194
11.8 -0.00127
11.85 -0.00075
11.9 -0.00136
11.95 -0.00285
12 -0.00282
12.05 -0.00167
12.1 -0.00071
12.15 -0.00027
12.2 0.00087
12.25 0.00043
12.3 0.00026
12.35 0.00029
12.4 0.00077
12.45 0.00155
12.5 0.00313
12.55 0.00415
12.6 0.00512
12.65 0.00585
12.7 0.00562
12.75 0.00489
12.8 0.00516
12.85 0.00465
12.9 0.00403
12.95 0.00386
13 0.00309
13.05 0.00103
13.1 0.00023
13.15 0.00026
13.2 0.00016
13.25 0.00081
13.3 0.00033
13.35 0.00027
13.4 -0.00014
13.45 -0.00147
13.5 -0.00346
13.55 -0.00422
13.6 -0.0034
13.65 -0.00246
13.7 -0.00073
13.75 0.00064
13.8 0.00221
13.85 0.00354
13.9 0.00476
13.95 0.00612
14 0.0075
14.05 0.00758
14.1 0.00599
14.15 0.00318
14.2 0.00167
14.25 -0.00062
14.3 -0.00163
14.35 -0.00237
14.4 -0.00261
14.45 -0.00366
14.5 -0.00529
14.55 -0.00652
14.6 -0.00702
14.65 -0.00679
14.7 -0.00663
14.75 -0.00709
14.8 -0.00714
14.85 -0.00619
14.9 -0.00612
14.95 -0.00437
15 -0.00377
15.05 -0.00377
15.1 -0.0042
15.15 -0.005
15.2 -0.00483
15.25 -0.00503
15.3 -0.00394
15.35 -0.00373
15.4 -0.00364
15.45 -0.00235
15.5 -0.00156
15.55 -0.00053
15.6 -0.00069
15.65 -0.00106
15.7 -0.00112
15.75 0.00005
15.8 0.00075
15.85 0.0019
15.9 0.00278
15.95 0.00194
16 0.00171
16.05 0.00168
16.1 0.00069
16.15 0.00045
16.2 0.00147
16.25 0.00305
16.3 0.00351
16.35 0.00415
16.4 0.00536
16.45 0.00599
16.5 0.00706
16.55 0.00588
16.6 0.00412
16.65 0.00304
16.7 0.00311
16.75 0.00387
16.8 0.00379
16.85 0.00304
16.9 0.00099
16.95 0.0008
17 0.00086
17.05 0.00164
17.1 0.00075
17.15 -0.00036
17.2 -0.0018
17.25 -0.00295
17.3 -0.00374
17.35 -0.00275
17.4 -0.00105
17.45 0.00039
17.5 0.00175
17.55 0.00228
17.6 0.00299
17.65 0.00203
17.7 0.00119
17.75 0.00095
17.8 -0.00028
17.85 -0.00112
17.9 -0.00253
17.95 -0.0037
18 -0.0034
18.05 -0.00181
18.1 -0.00143
18.15 -0.00016
18.2 0.00143
18.25 0.00143
18.3 0.00045
18.35 0.00081
18.4 0.00143
18.45 0.00207
18.5 0.00221
18.55 0.00092
18.6 0.0005
18.65 0.00114
18.7 0.00173
18.75 0.00206
18.8 0.00281
18.85 0.00276
18.9 0.00252
18.95 0.0031
19 0.00412
19.05 0.00401
19.1 0.00461
19.15 0.00539
19.2 0.00583
19.25 0.00539
19.3 0.00408
19.35 0.00221
19.4 0.00112
19.45 -0.00035
19.5 -0.00054
19.55 0.00014
19.6 0.00087
19.65 0.00115
19.7 0.00067
19.75 -0.00045
19.8 -0.0018
19.85 -0.00279
19.9 -0.00361
19.95 -0.005
20 -0.00606
20.05 -0.00737
20.1 -0.00701
20.15 -0.00655
20.2 -0.00598
20.25 -0.00461
20.3 -0.00377
20.35 -0.00249
20.4 -0.00182
20.45 -0.00144
20.5 -0.00068
20.55 -0.00113
20.6 -0.00039
20.65 -0.00025
20.7 0.00058
20.75 0.0019
20.8 0.00214
20.85 0.00184
20.9 0.00132
20.95 -0.0003
21 -0.00139
21.05 -0.00226
21.1 -0.0033
21.15 -0.00433
21.2 -0.00578
21.25 -0.0064
21.3 -0.00506
21.35 -0.00354
21.4 -0.00214
21.45 -0.00183
21.5 -0.00271
21.55 -0.00371
21.6 -0.00369
21.65 -0.00335
21.7 -0.00341
21.75 -0.00402
21.8 -0.00404
21.85 -0.00365
21.9 -0.00283
21.95 -0.00096
22 0.00031
22.05 0.00198
22.1 0.00237
22.15 0.00318
22.2 0.00442
22.25 0.00449
22.3 0.00493
22.35 0.00469
22.4 0.00536
22.45 0.00528
22.5 0.00443
22.55 0.00248
22.6 0.0009
22.65 0.00025
22.7 -0.00031
22.75 -0.00172
22.8 -0.00325
22.85 -0.00466
22.9 -0.00528
22.95 -0.00453
23 -0.00482
23.05 -0.0042
23.1 -0.00283
23.15 -0.00108
23.2 0.00101
23.25 0.00222
23.3 0.00171
23.35 0.00012
23.4 0.00021
23.45 -0.00068
23.5 -0.00161
23.55 -0.00189
23.6 -0.00232
23.65 -0.00366
23.7 -0.00398
23.75 -0.0028
23.8 -0.0021
23.85 -0.00173
23.9 -0.00247
23.95 -0.00381
24 -0.00492
24.05 -0.00516
24.1 -0.00501
24.15 -0.00354
24.2 -0.00254
24.25 -0.00196
24.3 -0.00069
24.35 -0.00027
24.4 -0.00072
24.45 0.00015
24.5 -0.00001
24.55 0.00073
24.6 0.00209
24.65 0.00173
24.7 0.00172
24.75 0.00084
24.8 -0.00011
24.85 -0.00106
24.9 -0.00097
24.95 0.00024
25 0.00138
25.05 0.0022
25.1 0.00316
25.15 0.00371
25.2 0.00381
25.25 0.00283
25.3 0.00257
25.35 0.00295
25.4 0.00237
25.45 0.001
25.5 -0.00073
25.55 -0.0008
25.6 -0.0014
25.65 -0.00206
25.7 -0.00235
25.75 -0.00222
25.8 -0.00251
25.85 -0.00277
25.9 -0.00158
25.95 -0.0006
26 -0.00013
26.05 0.00038
26.1 0.00123
26.15 0.00292
26.2 0.0036
26.25 0.00421
26.3 0.00467
26.35 0.00406
26.4 0.00334
26.45 0.00236
26.5 0.00167
26.55 0.00132
26.6 0.00053
26.65 0.00039
26.7 0.0015
26.75 0.00159
26.8 0.00052
26.85 0.00041
26.9 -0.0001
26.95 0.00031
27 -0.00069
27.05 -0.00113
27.1 -0.00123
27.15 -0.00124
27.2 -0.00028
27.25 0.00087
27.3 0.00192
27.35 0.0023
27.4 0.00316
27.45 0.00337
27.5 0.00346
27.55 0.003
27.6 0.00174
27.65 -0.0004
27.7 -0.00124
27.75 -0.00253
27.8 -0.00341
27.85 -0.00265
27.9 -0.00173
27.95 -0.00175
28 -0.00137
28.05 -0.00068
28.1 -0.00138
28.15 -0.00263
28.2 -0.00281
28.25 -0.00383
28.3 -0.00432
28.35 -0.00388
28.4 -0.00206
28.45 -0.00131
28.5 -0.00135
28.55 -0.00233
28.6 -0.00392
28.65 -0.00547
28.7 -0.00646
28.75 -0.00663
28.8 -0.00737
28.85 -0.00821
28.9 -0.00931
28.95 -0.00949
29 -0.01111
29.05 -0.01196
29.1 -0.0149
29.15 -0.01867
29.2 -0.02185
29.25 -0.02479
29.3 -0.02932
29.35 -0.03543
29.4 -0.04223
29.45 -0.04981
29.5 -0.05777
29.55 -0.06645
29.6 -0.07835
29.65 -0.09229
29.7 -0.10789
29.75 -0.12605
29.8 -0.14518
29.85 -0.16613
29.9 -0.18789
29.95 -0.21246
30 -0.23931
30.05 -0.26777
30.1 -0.29739
30.15 -0.32911
30.2 -0.36369
30.25 -0.39993
30.3 -0.43723
30.35 -0.47406
30.4 -0.51173
30.45 -0.55045
30.5 -0.58941
30.55 -0.62725
30.6 -0.66352
30.65 -0.69701
30.7 -0.72806
30.75 -0.75599
30.8 -0.77949
30.85 -0.79765
30.9 -0.8121
30.95 -0.82161
31 -0.82579
31.05 -0.82561
31.1 -0.81996
31.15 -0.8083
31.2 -0.79007
31.25 -0.76503
31.3 -0.73472
31.35 -0.6983
31.4 -0.65657
31.45 -0.60826
31.5 -0.55676
31.55 -0.49994
31.6 -0.44061
31.65 -0.37803
31.7 -0.31547
31.75 -0.25187
31.8 -0.18789
31.85 -0.12528
31.9 -0.06311
31.95 -0.00266
32 0.05623
32.05 0.11338
32.1 0.16745
32.15 0.21832
32.2 0.26414
32.25 0.30498
32.3 0.34343
32.35 0.37705
32.4 0.40695
32.45 0.4331
32.5 0.45799
32.55 0.48055
32.6 0.50083
32.65 0.51746
32.7 0.5316
32.75 0.54284
32.8 0.55321
32.85 0.56195
32.9 0.57
32.95 0.57665
33 0.58129
33.05 0.58568
33.1 0.58968
33.15 0.59331
33.2 0.59594
33.25 0.59852
33.3 0.60082
33.35 0.60248
33.4 0.60312
33.45 0.60343
33.5 0.6015
33.55 0.59998
33.6 0.59667
33.65 0.59379
33.7 0.59118
33.75 0.58828
33.8 0.58257
33.85 0.57638
33.9 0.57064
33.95 0.56419
34 0.55723
34.05 0.55027
34.1 0.54292
34.15 0.53334
34.2 0.52364
34.25 0.5132
34.3 0.50106
34.35 0.4894
34.4 0.47635
34.45 0.4624
34.5 0.44768
34.55 0.43407
34.6 0.42045
34.65 0.40656
34.7 0.39309
34.75 0.38031
34.8 0.36777
34.85 0.35405
34.9 0.33981
34.95 0.32643
35 0.31303
35.05 0.2996
35.1 0.28662
35.15 0.27351
35.2 0.26125
35.25 0.24962
35.3 0.2368
35.35 0.22294
35.4 0.20907
35.45 0.19486
35.5 0.18162
35.55 0.17016
35.6 0.16023
35.65 0.15133
35.7 0.14179
35.75 0.13156
35.8 0.12074
35.85 0.10943
35.9 0.09809
35.95 0.08766
36 0.07757
36.05 0.06862
36.1 0.06042
36.15 0.05208
36.2 0.04281
36.25 0.03434
36.3 0.02663
36.35 0.01901
36.4 0.01213
36.45 0.00568
36.5 -0.00148
36.55 -0.00889
36.6 -0.01601
36.65 -0.02201
36.7 -0.02717
36.75 -0.03227
36.8 -0.03681
36.85 -0.04135
36.9 -0.04625
36.95 -0.05106
37 -0.05482
37.05 -0.05789
37.1 -0.06198
37.15 -0.06694
37.2 -0.07235
37.25 -0.07734
37.3 -0.0823
37.35 -0.08682
37.4 -0.0907
37.45 -0.09381
37.5 -0.0968
37.55 -0.09827
37.6 -0.09792
37.65 -0.09859
37.7 -0.0999
37.75 -0.10062
37.8 -0.10111
37.85 -0.09995
37.9 -0.09821
37.95 -0.09766
38 -0.09833
38.05 -0.09822
38.1 -0.09795
38.15 -0.0985
38.2 -0.09862
38.25 -0.09981
38.3 -0.09977
38.35 -0.10044
38.4 -0.10098
38.45 -0.10206
38.5 -0.10293
38.55 -0.1019
38.6 -0.10012
38.65 -0.09881
38.7 -0.09751
38.75 -0.09495
38.8 -0.09196
38.85 -0.08931
38.9 -0.08641
38.95 -0.08559
39 -0.08587
39.05 -0.08727
39.1 -0.08892
39.15 -0.0907
39.2 -0.09229
39.25 -0.09164
39.3 -0.08908
39.35 -0.08672
39.4 -0.08483
39.45 -0.08277
39.5 -0.08004
39.55 -0.07812
39.6 -0.07665
39.65 -0.07449
39.7 -0.07264
39.75 -0.07019
39.8 -0.06844
39.85 -0.0678
39.9 -0.0685
39.95 -0.06852
40 -0.06732
40.05 -0.0655
40.1 -0.06463
40.15 -0.06437
40.2 -0.06317
40.25 -0.06153
40.3 -0.05929
40.35 -0.05834
40.4 -0.05749
40.45 -0.05782
40.5 -0.05705
40.55 -0.05671
40.6 -0.05718
40.65 -0.05773
40.7 -0.05869
40.75 -0.05874
40.8 -0.0589
40.85 -0.05809
40.9 -0.05593
40.95 -0.05376
41 -0.05247
41.05 -0.05249
41.1 -0.05279
41.15 -0.05179
41.2 -0.05115
41.25 -0.04936
41.3 -0.04698
41.35 -0.04569
41.4 -0.04465
41.45 -0.04368
41.5 -0.04327
41.55 -0.04343
41.6 -0.04234
41.65 -0.0403
41.7 -0.03951
41.75 -0.0401
41.8 -0.03944
41.85 -0.03885
41.9 -0.03751
41.95 -0.03778
42 -0.03741
42.05 -0.03813
42.1 -0.03718
42.15 -0.03618
42.2 -0.03503
42.25 -0.03399
42.3 -0.03278
42.35 -0.03277
42.4 -0.03208
42.45 -0.03052
42.5 -0.0293
42.55 -0.02868
42.6 -0.02774
42.65 -0.02728
42.7 -0.0267
42.75 -0.02694
42.8 -0.02623
42.85 -0.02647
42.9 -0.02563
42.95 -0.02444
43 -0.02304
43.05 -0.02198
43.1 -0.02254
43.15 -0.02328
43.2 -0.02331
43.25 -0.02419
43.3 -0.02477
43.35 -0.02395
43.4 -0.02283
43.45 -0.02166
43.5 -0.02101
43.55 -0.02017
43.6 -0.01923
43.65 -0.01856
43.7 -0.0186
43.75 -0.01859
43.8 -0.01974
43.85 -0.02075
43.9 -0.02126
43.95 -0.02164
44 -0.02218
44.05 -0.02117
44.1 -0.02149
44.15 -0.0207
44.2 -0.02038
44.25 -0.0204
44.3 -0.01976
44.35 -0.01896
44.4 -0.01746
44.45 -0.01638
44.5 -0.01705
44.55 -0.01851
44.6 -0.01971
44.65 -0.02116
44.7 -0.02062
44.75 -0.02104
44.8 -0.02142
44.85 -0.02208
44.9 -0.02235
44.95 -0.02221
45 -0.0215
45.05 -0.01971
45.1 -0.01928
45.15 -0.01904
45.2 -0.01838
45.25 -0.0171
45.3 -0.01545
45.35 -0.01481
45.4 -0.01497
45.45 -0.01376
45.5 -0.0131
45.55 -0.01315
45.6 -0.01405
45.65 -0.01506
45.7 -0.01466
45.75 -0.01391
45.8 -0.01242
45.85 -0.01054
45.9 -0.00962
45.95 -0.00899
46 -0.00885
46.05 -0.00774
46.1 -0.00818
46.15 -0.00821
46.2 -0.00891
46.25 -0.01016
46.3 -0.01183
46.35 -0.0139
46.4 -0.01399
46.45 -0.01294
46.5 -0.01197
46.55 -0.01147
46.6 -0.01109
46.65 -0.01058
46.7 -0.01041
46.75 -0.00886
46.8 -0.00894
46.85 -0.01007
46.9 -0.01138
46.95 -0.01069
47 -0.00931
47.05 -0.00859
47.1 -0.00828
47.15 -0.00902
47.2 -0.00978
47.25 -0.009
47.3 -0.00942
47.35 -0.00854
47.4 -0.0072
47.45 -0.0054
47.5 -0.00414
47.55 -0.00365
47.6 -0.00329
47.65 -0.00218
47.7 -0.00299
47.75 -0.00323
47.8 -0.00264
47.85 -0.00157
47.9 -0.00075
47.95 -0.0014
48 -0.00117
48.05 -0.00051
48.1 -0.00102
48.15 -0.00198
48.2 -0.00165
48.25 -0.00143
48.3 -0.00237
48.35 -0.00393
48.4 -0.00417
48.45 -0.00378
48.5 -0.0027
48.55 -0.00156
48.6 -0.00125
48.65 -0.00048
48.7 -0.0009
48.75 -0.00173
48.8 -0.00207
48.85 -0.00224
48.9 -0.00187
48.95 -0.00227
49 -0.00309
49.05 -0.0039
49.1 -0.00551
49.15 -0.00701
49.2 -0.0074
49.25 -0.00643
49.3 -0.00666
49.35 -0.00683
49.4 -0.00798
49.45 -0.00761
49.5 -0.00688
49.55 -0.00621
49.6 -0.00668
49.65 -0.00729
49.7 -0.00617
49.75 -0.00501
49.8 -0.00344
49.85 -0.00178
49.9 0.00037
49.95 0.00131
50 0.00023
50.05 -0.0014
50.1 -0.00146
50.15 -0.00068
50.2 0.00058
50.25 0.00217
50.3 0.00345
50.35 0.00394
50.4 0.00471
50.45 0.00496
50.5 0.00407
50.55 0.00171
50.6 -0.0014
50.65 -0.00458
50.7 -0.00657
50.75 -0.00798
50.8 -0.00963
50.85 -0.00916
50.9 -0.00781
50.95 -0.00681
51 -0.00679
51.05 -0.00609
51.1 -0.00471
51.15 -0.00458
51.2 -0.00541
51.25 -0.00499
51.3 -0.00539
51.35 -0.00476
51.4 -0.00333
51.45 -0.00255
51.5 -0.00324
51.55 -0.0038
51.6 -0.00381
51.65 -0.00295
51.7 -0.00219
51.75 -0.0006
51.8 -0.00044
51.85 -0.00049
51.9 0.00045
51.95 0.00143
52 0.00149
52.05 0.00057
52.1 0.00075
52.15 -0.00065
52.2 -0.00273
52.25 -0.00413
52.3 -0.00433
52.35 -0.0034
52.4 -0.00287
52.45 -0.00151
52.5 -0.00033
52.55 -0.00016
52.6 -0.0001
52.65 -0.00023
52.7 -0.00084
52.75 -0.0016
52.8 -0.00298
52.85 -0.00298
52.9 -0.00235
52.95 -0.00071
53 -0.00087
53.05 -0.00143
53.1 -0.00308
53.15 -0.00429
53.2 -0.00519
53.25 -0.00601
53.3 -0.00738
53.35 -0.00866
53.4 -0.00774
53.45 -0.00583
53.5 -0.00303
53.55 -0.00014
53.6 0.00058
53.65 0.0018
53.7 0.00242
53.75 0.00255
53.8 0.00346
53.85 0.00302
53.9 0.00194
53.95 -0.00008
54 -0.00045
54.05 0.00034
54.1 0.00145
54.15 0.00289
54.2 0.00407
54.25 0.00489
54.3 0.00608
54.35 0.00554
54.4 0.00495
54.45 0.00463
54.5 0.00469
54.55 0.00383
54.6 0.00176
54.65 -0.00076
54.7 -0.00206
54.75 -0.00166
54.8 -0.00105
54.85 -0.0015
54.9 -0.00279
54.95 -0.00235
55 -0.00325
55.05 -0.00481
55.1 -0.00591
55.15 -0.00612
55.2 -0.00483
55.25 -0.00418
55.3 -0.00405
55.35 -0.00371
55.4 -0.00289
55.45 -0.0019
55.5 -0.00046
55.55 0.00084
55.6 0.00162
55.65 0.0031
55.7 0.00313
55.75 0.00154
55.8 -0.00039
55.85 -0.00059
55.9 -0.00085
55.95 -0.00062
56 0.00035
56.05 0.00031
56.1 -0.00042
56.15 -0.00207
56.2 -0.00377
56.25 -0.00578
56.3 -0.00583
56.35 -0.00429
56.4 -0.00292
56.45 -0.00097
56.5 0.00108
56.55 0.00326
56.6 0.00345
56.65 0.00423
56.7 0.00303
56.75 0.00183
56.8 -0.00014
56.85 -0.00093
56.9 -0.00043
56.95 -0.00102
57 -0.00165
57.05 -0.00207
57.1 -0.00323
57.15 -0.00469
57.2 -0.00578
57.25 -0.00571
57.3 -0.00491
57.35 -0.00458
57.4 -0.00443
57.45 -0.00437
57.5 -0.00335
57.55 -0.00152
57.6 -0.00109
57.65 -0.00142
57.7 -0.00272
57.75 -0.00335
57.8 -0.00295
57.85 -0.00363
57.9 -0.00353
57.95 -0.00316
58 -0.00314
58.05 -0.00177
58.1 -0.00178
58.15 -0.0014
58.2 -0.00108
58.25 -0.00093
58.3 0.00026
58.35 0.00093
58.4 0.00021
58.45 0.00022
58.5 -0.00103
58.55 -0.00101
58.6 -0.00114
58.65 -0.00189
58.7 -0.002
58.75 -0.00162
58.8 -0.00009
58.85 0.00034
58.9 0.00002
58.95 0.00029
59 0.00069
59.05 0.00018
59.1 -0.00132
59.15 -0.00107
59.2 -0.00093
59.25 -0.00133
59.3 -0.00261
59.35 -0.00217
59.4 -0.00211
59.45 -0.0026
59.5 -0.00196
59.55 -0.0013
59.6 -0.00186
59.65 -0.00296
59.7 -0.00458
59.75 -0.00633
59.8 -0.00762
59.85 -0.00832
59.9 -0.00729
59.95 -0.00509
60 -0.00389
60.05 -0.00384
60.1 -0.00311
60.15 -0.00116
60.2 -0.00072
60.25 0.00016
60.3 0.00192
60.35 0.00408
60.4 0.00495
60.45 0.00504
60.5 0.00422
60.55 0.00326
60.6 0.0012
60.65 0.0001
60.7 -0.00151
60.75 -0.00203
60.8 -0.00204
60.85 -0.00249
60.9 -0.003
60.95 -0.00422
61 -0.00566
61.05 -0.00658
61.1 -0.00616
61.15 -0.00561
61.2 -0.00433
61.25 -0.00373
61.3 -0.0037
61.35 -0.00382
61.4 -0.00268
61.45 -0.00049
61.5 0.00037
61.55 0.00141
61.6 0.00162
61.65 0.00183
61.7 0.00259
61.75 0.00387
61.8 0.00458
61.85 0.00464
61.9 0.00495
61.95 0.00603
62 0.00568
62.05 0.005
62.1 0.00402
62.15 0.00264
62.2 0.00249
62.25 0.00206
62.3 0.00078
62.35 0.00006
62.4 -0.00114
62.45 -0.00176
62.5 -0.00289
62.55 -0.00412
62.6 -0.00549
62.65 -0.00593
62.7 -0.00471
62.75 -0.00292
62.8 -0.00052
62.85 0.00057
62.9 0.00084
62.95 0.00008
63 -0.00069
63.05 -0.00078
63.1 0.00035
63.15 0.00133
63.2 0.00295
63.25 0.00466
63.3 0.00535
63.35 0.00662
63.4 0.00804
63.45 0.00756
63.5 0.00746
63.55 0.00562
63.6 0.00429
63.65 0.00256
63.7 0.00081
63.75 0.00081
63.8 0.00101
63.85 0.00176
63.9 0.002
63.95 0.00179
64 0.00068
64.05 0.00039
64.1 0.00087
64.15 0.00102
64.2 0.00028
64.25 -0.00009
64.3 0.00033
64.35 0.00122
64.4 0.00262
64.45 0.00241
64.5 0.00105
64.55 -0.00046
64.6 -0.00249
64.65 -0.00268
64.7 -0.00353
64.75 -0.0029
64.8 -0.0034
64.85 -0.00224
64.9 -0.00025
64.95 0.00216
65 0.00388
65.05 0.00445
65.1 0.00395
65.15 0.00394
65.2 0.00252
65.25 0.00158
65.3 -0.00036
65.35 -0.00105
65.4 -0.00228
65.45 -0.00329
65.5 -0.00295
65.55 -0.00182
65.6 -0.00068
65.65 0.0003
65.7 0.00013
65.75 -0.00041
65.8 -0.00172
65.85 -0.00301
65.9 -0.00302
65.95 -0.0025
66 -0.00113
66.05 -0.0009
66.1 -0.00102
66.15 -0.00058
66.2 -0.00128
66.25 -0.00049
66.3 0.00031
66.35 0.00064
66.4 0.00037
66.45 0.00087
66.5 0.00205
66.55 0.00308
66.6 0.0029
66.65 0.00232
66.7 0.00203
66.75 0.00074
66.8 -0.00118
66.85 -0.00318
66.9 -0.00357
66.95 -0.00369
67 -0.00409
67.05 -0.0046
67.1 -0.00436
67.15 -0.00333
67.2 -0.00214
67.25 -0.00169
67.3 -0.00211
67.35 -0.00278
67.4 -0.00329
67.45 -0.00256
67.5 -0.00065
67.55 0.00175
67.6 0.00397
67.65 0.00469
67.7 0.00458
67.75 0.00521
67.8 0.00563
67.85 0.00451
67.9 0.00334
67.95 0.00258
68 0.00075
68.05 0.00016
68.1 -0.00057
68.15 -0.00042
68.2 -0.00142
68.25 -0.00198
68.3 -0.00156
68.35 -0.00052
68.4 0.00012
68.45 0.00061
68.5 0.00164
68.55 0.00284
68.6 0.0025
68.65 0.00102
68.7 0.00052
68.75 -0.00108
68.8 -0.0032
68.85 -0.00375
68.9 -0.00388
68.95 -0.0029
69 -0.00252
69.05 -0.00164
69.1 -0.0009
69.15 0.00067
69.2 0.00054
69.25 -0.00035
69.3 -0.00037
69.35 -0.00088
69.4 -0.00137
69.45 -0.00192
69.5 -0.00185
69.55 -0.00149
69.6 -0.00048
69.65 -0.00086
69.7 -0.00058
69.75 0.00082
69.8 0.00164
69.85 0.00179
69.9 0.00293
69.95 0.00315
70 0.00223
70.05 0.00239
70.1 0.00338
70.15 0.00393
70.2 0.00443
70.25 0.00333
70.3 0.00217
70.35 0.00142
70.4 0.00144
70.45 0.00037
70.5 -0.00008
70.55 0.00042
70.6 0.00028
70.65 0.00093
70.7 0.00082
70.75 0.00019
70.8 -0.00073
70.85 -0.00093
70.9 -0.00074
70.95 -0.00022
71 0.00086
71.05 0.00045
71.1 -0.00091
71.15 -0.00185
71.2 -0.00125
71.25 0.00026
71.3 0.00102
71.35 0.00112
71.4 0.00047
71.45 -0.00103
71.5 -0.00161
71.55 -0.00122
71.6 -0.00121
71.65 0.00002
71.7 0.0014
71.75 0.00238
71.8 0.00235
71.85 0.00281
71.9 0.00262
71.95 0.00324
72 0.00428
72.05 0.00387
72.1 0.00333
72.15 0.0015
72.2 0.00001
72.25 0.00005
72.3 0.00097
72.35 0.00025
72.4 -0.00037
72.45 -0.0007
72.5 -0.00054
72.55 0.0004
72.6 0.00016
72.65 0.00011
72.7 -0.00106
72.75 -0.00148
72.8 -0.00051
72.85 -0.00115
72.9 -0.00238
72.95 -0.00333
73 -0.00413
73.05 -0.00402
73.1 -0.00442
73.15 -0.00425
73.2 -0.00326
73.25 -0.00189
73.3 -0.00088
73.35 -0.00042
73.4 0.00047
73.45 0.00132
73.5 0.00107
73.55 0.002
73.6 0.00223
73.65 0.00155
73.7 0.00144
73.75 0.00187
73.8 0.00299
73.85 0.00454
73.9 0.00578
73.95 0.00647
74 0.00647
74.05 0.0064
74.1 0.00655
74.15 0.00536
74.2 0.00473
74.25 0.00271
74.3 0.00169
74.35 -0.00041
74.4 -0.00194
74.45 -0.00302
74.5 -0.00272
74.55 -0.00142
74.6 -0.00096
74.65 -0.00096
74.7 -0.0005
74.75 0.00018
74.8 0.0016
74.85 0.00268
74.9 0.00199
74.95 0.00162
75 0.00088
75.05 -0.00057
75.1 -0.00279
75.15 -0.00422
75.2 -0.00571
75.25 -0.00654
75.3 -0.00697
75.35 -0.00585
75.4 -0.00495
75.45 -0.00505
75.5 -0.00404
75.55 -0.00333
75.6 -0.00153
75.65 -0.00103
75.7 -0.00138
75.75 -0.00135
75.8 -0.0005
75.85 0.00032
75.9 0.00092
75.95 0.00242
76 0.00339
76.05 0.00408
76.1 0.00513
76.15 0.0047
76.2 0.00346
76.25 0.00249
76.3 0.0008
76.35 0.00073
76.4 0.00067
76.45 0.00171
76.5 0.00153
76.55 0.00083
76.6 0.00053
76.65 -0.00047
76.7 -0.00179
76.75 -0.00176
76.8 -0.00117
76.85 -0.00089
76.9 -0.00146
76.95 -0.00298
77 -0.00449
77.05 -0.00454
77.1 -0.00547
77.15 -0.00622
77.2 -0.00593
77.25 -0.0046
77.3 -0.00243
77.35 0.00029
77.4 0.0017
77.45 0.0035
77.5 0.00536
77.55 0.00528
77.6 0.00357
77.65 0.00308
77.7 0.00234
77.75 0.00035
77.8 -0.00135
77.85 -0.00148
77.9 -0.00098
77.95 -0.00012
78 0.0016
78.05 0.00231
78.1 0.00163
78.15 0.00184
78.2 0.00227
78.25 0.002
78.3 0.00052
78.35 -0.00124
78.4 -0.00143
78.45 -0.00056
78.5 -0.00105
78.55 -0.00169
78.6 -0.00152
78.65 -0.00049
78.7 -0.00004
78.75 0.0001
78.8 0.0013
78.85 0.00203
78.9 0.00099
78.95 -0.00035
79 -0.00196
79.05 -0.00291
79.1 -0.00257
79.15 -0.00124
79.2 0.00011
79.25 0.00089
79.3 0.00166
79.35 0.00301
79.4 0.00247
79.45 0.00157
79.5 0.00028
79.55 0.00044
79.6 0.00128
79.65 0.00243
79.7 0.00173
79.75 0.0009
79.8 0.00005
79.85 0.00033
79.9 0.00073
79.95 -0.0001
80 -0.00129
80.05 -0.00125
80.1 -0.00207
80.15 -0.00367
80.2 -0.0053
80.25 -0.00588
80.3 -0.00579
80.35 -0.00644
80.4 -0.00587
80.45 -0.00588
80.5 -0.00627
80.55 -0.00549
80.6 -0.00446
80.65 -0.00228
80.7 0.0002
80.75 0.00125
80.8 0.00078
80.85 -0.00076
80.9 -0.00186
80.95 -0.00228
81 -0.00179
81.05 -0.00011
81.1 0.00062
81.15 0.001
81.2 0.00093
81.25 0.00106
81.3 0.00057
81.35 0.00105
81.4 0.00178
81.45 0.00191
81.5 0.00225
81.55 0.00235
81.6 0.00157
81.65 0.00113
81.7 -0.00036
81.75 -0.00175
81.8 -0.00182
81.85 -0.00065
81.9 -0.00055
81.95 0.00048
82 0.00215
82.05 0.00395
82.1 0.00372
82.15 0.00325
82.2 0.00301
82.25 0.00345
82.3 0.00391
82.35 0.00385
82.4 0.0044
82.45 0.00328
82.5 0.00185
82.55 0.00134
82.6 0.00197
82.65 0.00236
82.7 0.00178
82.75 0.00181
82.8 0.0017
82.85 0.00199
82.9 0.00244
82.95 0.00228
83 0.00204
83.05 0.00236
83.1 0.00227
83.15 0.00132
83.2 0.00154
83.25 0.00119
83.3 0.00111
83.35 0.00179
83.4 0.0029
83.45 0.00254
83.5 0.00149
83.55 0.00115
83.6 0.00115
83.65 -0.00007
83.7 -0.00104
83.75 -0.00256
83.8 -0.0038
83.85 -0.00471
83.9 -0.00528
83.95 -0.00592
84 -0.00602
84.05 -0.00528
84.1 -0.00344
84.15 -0.00194
84.2 -0.00047
84.25 0.00158
84.3 0.00193
84.35 0.00133
84.4 0.00097
84.45 0.00129
84.5 0.00216
84.55 0.00145
84.6 0.00028
84.65 0.00066
84.7 -0.00013
84.75 -0.00057
84.8 -0.00096
84.85 -0.00194
84.9 -0.00218
84.95 -0.00304
85 -0.00346
85.05 -0.00479
85.1 -0.00498
85.15 -0.0042
85.2 -0.00341
85.25 -0.00357
85.3 -0.00462
85.35 -0.00467
85.4 -0.00346
85.45 -0.00214
85.5 -0.00185
85.55 -0.00214
85.6 -0.00337
85.65 -0.00335
85.7 -0.00217
85.75 -0.00155
85.8 -0.00183
85.85 -0.00147
85.9 -0.00189
85.95 -0.001
86 0.00033
86.05 0.00062
86.1 0.00188
86.15 0.00139
86.2 -0.00028
86.25 -0.00195
86.3 -0.00229
86.35 -0.0011
86.4 0.00074
86.45 0.00299
86.5 0.00477
86.55 0.00519
86.6 0.00387
86.65 0.00352
86.7 0.00419
86.75 0.00296
86.8 0.00171
86.85 0.00004
86.9 0.00012
86.95 0.00117
87 0.00242
87.05 0.0041
87.1 0.00557
87.15 0.00642
87.2 0.00708
87.25 0.00556
87.3 0.0028
87.35 0.00036
87.4 -0.00102
87.45 -0.00254
87.5 -0.00332
87.55 -0.00476
87.6 -0.0048
87.65 -0.00463
87.7 -0.00329
87.75 -0.00326
87.8 -0.00369
87.85 -0.00498
87.9 -0.00641
87.95 -0.00691
88 -0.00599
88.05 -0.0038
88.1 -0.00326
88.15 -0.00326
88.2 -0.00304
88.25 -0.00358
88.3 -0.00478
88.35 -0.00486
88.4 -0.00545
88.45 -0.00499
88.5 -0.00405
88.55 -0.00435
88.6 -0.00395
88.65 -0.00295
88.7 -0.00252
88.75 -0.00121
88.8 -0.00033
88.85 -0.00082
88.9 -0.0022
88.95 -0.00177
89 -0.00141
89.05 -0.00041
89.1 -0.00024
89.15 -0.00083
89.2 -0.00174
89.25 -0.00132
89.3 -0.00143
89.35 -0.00251
89.4 -0.0019
89.45 -0.00236
89.5 -0.0015
89.55 -0.00032
89.6 0.0002
89.65 0.00067
89.7 0.00084
89.75 0.00079
89.8 0.00051
89.85 -0.00039
89.9 -0.00076
89.95 -0.00036
90 -0.00056
90.05 -0.00098
90.1 -0.00209
90.15 -0.00196
90.2 -0.00044
90.25 0.00139
90.3 0.00354
90.35 0.00364
90.4 0.00467
90.45 0.00516
90.5 0.00572
90.55 0.00637
90.6 0.00645
90.65 0.00551
90.7 0.00384
90.75 0.00302
90.8 0.00192
90.85 0.00135
90.9 0.00025
90.95 -0.00075
91 -0.00115
91.05 -0.0017
91.1 -0.00241
91.15 -0.00233
91.2 -0.00326
91.25 -0.00458
91.3 -0.00499
91.35 -0.00368
91.4 -0.00215
91.45 -0.00074
91.5 0.00096
91.55 0.00294
91.6 0.0036
91.65 0.004
91.7 0.00475
91.75 0.00425
91.8 0.00468
91.85 0.00439
91.9 0.0044
91.95 0.00358
92 0.00271
92.05 0.00281
92.1 0.00269
92.15 0.00113
92.2 -0.00068
92.25 -0.00235
92.3 -0.00219
92.35 -0.00088
92.4 0.00035
92.45 0.00225
92.5 0.00426
92.55 0.00472
92.6 0.00539
92.65 0.00497
92.7 0.00306
92.75 0.00155
92.8 0.00106
92.85 -0.00034
92.9 -0.00113
92.95 -0.00044
93 -0.00118
93.05 -0.00121
93.1 -0.00163
93.15 -0.00073
93.2 -0.00042
93.25 -0.00137
93.3 -0.00195
93.35 -0.00199
93.4 -0.00158
93.45 -0.00015
93.5 0.00129
93.55 0.00102
93.6 0.00088
93.65 0.00125
93.7 0.00244
93.75 0.00262
93.8 0.0026
93.85 0.00171
93.9 0.0019
93.95 0.00123
94 0.00116
94.05 0.00105
94.1 0.00084
94.15 0.00149
94.2 0.0005
94.25 -0.00025
94.3 -0.00079
94.35 -0.00047
94.4 -0.00136
94.45 -0.00125
94.5 -0.0001
94.55 0.00128
94.6 0.00178
94.65 0.00166
94.7 0.00251
94.75 0.00322
94.8 0.0028
94.85 0.00319
94.9 0.00406
94.95 0.00375
95 0.00393
95.05 0.00404
95.1 0.00254
95.15 0.00145
95.2 0.00108
95.25 0.0007
95.3 0.0009
95.35 -0.00035
95.4 -0.00205
95.45 -0.00262
95.5 -0.00303
95.55 -0.00436
95.6 -0.00608
95.65 -0.0069
95.7 -0.00661
95.75 -0.00648
95.8 -0.00661
95.85 -0.00718
95.9 -0.00593
95.95 -0.00469
96 -0.00439
96.05 -0.00428
96.1 -0.00375
96.15 -0.00401
96.2 -0.0029
96.25 -0.00166
96.3 0.00024
96.35 0.00069
96.4 0.00004
96.45 -0.00068
96.5 -0.00038
96.55 0.00074
96.6 0.00116
96.65 0.00238
96.7 0.00307
96.75 0.00307
96.8 0.00182
96.85 0.00055
96.9 -0.00147
96.95 -0.00293
97 -0.00481
97.05 -0.00572
97.1 -0.00613
97.15 -0.00486
97.2 -0.00474
97.25 -0.00477
97.3 -0.00388
97.35 -0.00204
97.4 -0.0009
97.45 -0.00093
97.5 -0.00098
97.55 -0.00203
97.6 -0.00332
97.65 -0.00395
97.7 -0.00313
97.75 -0.00186
97.8 -0.00138
97.85 -0.00193
97.9 -0.00253
97.95 -0.00336
98 -0.00483
98.05 -0.00498
98.1 -0.0034
98.15 -0.00182
98.2 -0.00106
98.25 -0.0017
98.3 -0.00178
98.35 -0.00255
98.4 -0.00263
98.45 -0.00151
98.5 0.00001
98.55 0.00037
98.6 0.00093
98.65 0.00247
98.7 0.00242
98.75 0.00162
98.8 0.00067
98.85 0.00048
98.9 0.00098
98.95 0.00203
99 0.0036
99.05 0.0054
99.1 0.00634
99.15 0.00724
99.2 0.0081
99.25 0.00685
99.3 0.00575
99.35 0.00499
99.4 0.00303
99.45 0.00109
99.5 -0.00151
99.55 -0.00254
99.6 -0.00265
99.65 -0.00251
99.7 -0.00174
99.75 -0.001
99.8 -0.00056
99.85 0.00008
99.9 0.00134
99.95 0.0015
