0 0
0.05 0.00649
0.1 0.0167
0.15 0.02558
0.2 0.03421
0.25 0.03759
0.3 0.04119
0.35 0.04709
0.4 0.04758
0.45 0.04926
0.5 0.05144
0.55 0.05422
0.6 0.05763
0.65 0.0629
0.7 0.06307
0.75 0.06171
0.8 0.05666
0.85 0.05567
0.9 0.05282
0.95 0.05422
1 0.0525
1.05 0.05049
1.1 0.04933
1.15 0.04539
1.2 0.04197
1.25 0.03684
1.3 0.03451
1.35 0.03661
1.4 0.03817
1.45 0.04096
1.5 0.04148
1.55 0.03872
1.6 0.034
1.65 0.03165
1.7 0.03399
1.75 0.03382
1.8 0.03105
1.85 0.02704
1.9 0.02568
1.95 0.0284
2 0.03152
2.05 0.03299
2.1 0.03547
2.15 0.03572
2.2 0.03772
2.25 0.04062
2.3 0.04087
2.35 0.04138
2.4 0.04423
2.45 0.04583
2.5 0.04527
2.55 0.03909
2.6 0.03497
2.65 0.03176
2.7 0.03073
2.75 0.02923
2.8 0.0231
2.85 0.02004
2.9 0.0192
2.95 0.01862
3 0.01426
3.05 0.01538
3.1 0.01576
3.15 0.01659
3.2 0.02055
3.25 0.02186
3.3 0.02006
3.35 0.01712
3.4 0.01338
3.45 0.00833
3.5 0.00877
3.55 0.01298
3.6 0.01477
3.65 0.01573
3.7 0.01605
3.75 0.0162
3.8 0.0174
3.85 0.0201
3.9 0.02463
3.95 0.03063
4 0.03102
4.05 0.02971
4.1 0.02359
4.15 0.01815
4.2 0.01013
4.25 0.00524
4.3 -0.00137
4.35 -0.00501
4.4 -0.00328
4.45 -0.00405
4.5 -0.00458
4.55 -0.00468
4.6 -0.00898
4.65 -0.01329
4.7 -0.02201
4.75 -0.02503
4.8 -0.03315
4.85 -0.03942
4.9 -0.0422
4.95 -0.04946
5 -0.05976
5.05 -0.07244
5.1 -0.08943
5.15 -0.10982
5.2 -0.1277
5.25 -0.14682
5.3 -0.16747
5.35 -0.18435
5.4 -0.20446
5.45 -0.22409
5.5 -0.2407
5.55 -0.25532
5.6 -0.26673
5.65 -0.27792
5.7 -0.28832
5.75 -0.29661
5.8 -0.30411
5.85 -0.31023
5.9 -0.31051
5.95 -0.30224
6 -0.29241
6.05 -0.27392
6.1 -0.25172
6.15 -0.2296
6.2 -0.2009
6.25 -0.16752
6.3 -0.13531
6.35 -0.09843
6.4 -0.05997
6.45 -0.02629
6.5 0.00302
6.55 0.03186
6.6 0.05509
6.65 0.07365
6.7 0.08998
6.75 0.10835
6.8 0.1225
6.85 0.13667
6.9 0.14836
6.95 0.16143
7 0.16993
7.05 0.1763
7.1 0.18224
7.15 0.19128
7.2 0.20074
7.25 0.20769
7.3 0.2074
7.35 0.20634
7.4 0.20339
7.45 0.19841
7.5 0.19072
7.55 0.18403
7.6 0.18052
7.65 0.18193
7.7 0.18604
7.75 0.19043
7.8 0.18995
7.85 0.18522
7.9 0.17971
7.95 0.18044
8 0.18145
8.05 0.18547
8.1 0.19074
8.15 0.19199
8.2 0.1922
8.25 0.18755
8.3 0.17982
8.35 0.17208
8.4 0.16051
8.45 0.15253
8.5 0.14669
8.55 0.14209
8.6 0.13793
8.65 0.134
8.7 0.12443
8.75 0.11284
8.8 0.10305
8.85 0.09236
8.9 0.08341
8.95 0.07957
9 0.07901
9.05 0.07743
9.1 0.06963
9.15 0.06354
9.2 0.06073
9.25 0.05692
9.3 0.05391
9.35 0.05172
9.4 0.0452
9.45 0.04156
9.5 0.03519
9.55 0.02639
9.6 0.02114
9.65 0.01861
9.7 0.01757
9.75 0.0203
9.8 0.02496
9.85 0.03018
9.9 0.03566
9.95 0.03977
10 0.04251
10.05 0.04061
10.1 0.04109
10.15 0.04035
10.2 0.03734
10.25 0.03062
10.3 0.02418
10.35 0.01829
10.4 0.01631
10.45 0.01836
10.5 0.01783
10.55 0.01925
10.6 0.02149
10.65 0.02357
10.7 0.02569
10.75 0.026
10.8 0.02111
10.85 0.01562
10.9 0.01121
10.95 0.01081
11 0.00954
11.05 0.0084
11.1 0.0102
11.15 0.01271
11.2 0.01099
11.25 0.00495
11.3 -0.00166
11.35 -0.01019
11.4 -0.01869
11.45 -0.02427
11.5 -0.03071
11.55 -0.03586
11.6 -0.0383
11.65 -0.0379
11.7 -0.03495
11.75 -0.02755
11.8 -0.01856
11.85 -0.01688
11.9 -0.01333
11.95 -0.0118
12 -0.01031
12.05 -0.01353
12.1 -0.01292
12.15 -0.0098
12.2 -0.00747
12.25 -0.01055
12.3 -0.01502
12.35 -0.02114
12.4 -0.02447
12.45 -0.02838
12.5 -0.03285
12.55 -0.03455
12.6 -0.03442
12.65 -0.03678
12.7 -0.03682
12.75 -0.03968
12.8 -0.03896
12.85 -0.03999
12.9 -0.042
12.95 -0.04213
13 -0.03614
13.05 -0.0322
13.1 -0.02927
13.15 -0.03002
13.2 -0.03319
13.25 -0.02969
13.3 -0.02641
13.35 -0.0198
13.4 -0.0135
13.45 -0.01195
13.5 -0.01244
13.55 -0.0126
13.6 -0.01551
13.65 -0.01559
13.7 -0.01844
13.75 -0.02411
13.8 -0.02324
13.85 -0.01836
13.9 -0.01137
13.95 -0.00798
14 -0.00435
14.05 -0.00446
14.1 -0.00487
14.15 -0.00665
14.2 -0.00821
14.25 -0.00811
14.3 -0.01024
14.35 -0.00852
14.4 -0.00606
14.45 -0.00367
14.5 -0.00721
14.55 -0.01176
14.6 -0.01469
14.65 -0.01726
14.7 -0.01435
14.75 -0.0084
14.8 -0.00123
14.85 0.00287
14.9 0.00425
14.95 0.00485
15 0.00355
15.05 -0.00008
15.1 -0.00223
15.15 -0.0015
15.2 -0.00442
15.25 -0.00907
15.3 -0.01228
15.35 -0.0131
15.4 -0.01755
15.45 -0.02251
15.5 -0.02448
15.55 -0.02403
15.6 -0.02622
15.65 -0.02316
15.7 -0.02018
15.75 -0.02153
15.8 -0.02106
15.85 -0.01972
15.9 -0.02044
15.95 -0.0162
16 -0.0098
16.05 -0.00832
16.1 -0.01155
16.15 -0.01734
16.2 -0.02009
16.25 -0.02152
16.3 -0.01716
16.35 -0.01426
16.4 -0.01487
16.45 -0.01054
16.5 -0.00453
16.55 -0.00115
16.6 0.0013
16.65 0.00323
16.7 0.00284
16.75 0.00584
16.8 0.0039
16.85 0.0028
16.9 0.00319
16.95 -0.00005
17 0.00046
17.05 -0.00349
17.1 -0.00933
17.15 -0.01226
17.2 -0.01321
17.25 -0.00963
17.3 -0.01139
17.35 -0.01023
17.4 -0.00488
17.45 -0.00122
17.5 0.00108
17.55 -0.00134
17.6 -0.00537
17.65 -0.01016
17.7 -0.00999
17.75 -0.00588
17.8 -0.00358
17.85 -0.00461
17.9 -0.00235
17.95 -0.00456
18 -0.00925
18.05 -0.01395
18.1 -0.01345
18.15 -0.01555
18.2 -0.01362
18.25 -0.01532
18.3 -0.01793
18.35 -0.01527
18.4 -0.0167
18.45 -0.01897
18.5 -0.01962
18.55 -0.01513
18.6 -0.01082
18.65 -0.00829
18.7 -0.00591
18.75 -0.00336
18.8 -0.00214
18.85 -0.00371
18.9 -0.00467
18.95 -0.00679
19 -0.00491
19.05 0.00084
19.1 0.00838
19.15 0.01131
19.2 0.01032
19.25 0.00635
19.3 0.00168
19.35 -0.00052
19.4 0.00161
19.45 0.00607
19.5 0.00966
19.55 0.0152
19.6 0.01405
19.65 0.01132
19.7 0.01152
19.75 0.01297
19.8 0.01482
19.85 0.01277
19.9 0.01417
19.95 0.01697
20 0.01263
20.05 0.00793
20.1 0.00242
20.15 0.00084
20.2 -0.00053
20.25 -0.00136
20.3 -0.00465
20.35 -0.01074
20.4 -0.01261
20.45 -0.01299
20.5 -0.0128
20.55 -0.0084
20.6 -0.00248
20.65 0.00522
20.7 0.01277
20.75 0.01505
20.8 0.01131
20.85 0.00746
20.9 0.00509
20.95 0.00558
21 0.00263
21.05 -0.00273
21.1 -0.00432
21.15 -0.00141
21.2 -0.00353
21.25 -0.00669
21.3 -0.00601
21.35 -0.00498
21.4 -0.00602
21.45 -0.00326
21.5 0.00194
21.55 0.00226
21.6 0.00391
21.65 0.00305
21.7 0.00349
21.75 0.00665
21.8 0.00935
21.85 0.01024
21.9 0.01101
21.95 0.01172
22 0.00754
22.05 0.00772
22.1 0.00582
22.15 -0.00029
22.2 -0.00736
22.25 -0.01297
22.3 -0.01242
22.35 -0.01258
22.4 -0.0152
22.45 -0.01586
22.5 -0.01836
22.55 -0.02234
22.6 -0.02504
22.65 -0.02788
22.7 -0.02916
22.75 -0.02768
22.8 -0.02459
22.85 -0.01994
22.9 -0.01771
22.95 -0.01818
23 -0.01921
23.05 -0.01588
23.1 -0.01093
23.15 -0.00845
23.2 -0.00526
23.25 -0.00182
23.3 -0.00188
23.35 0.00146
23.4 -0.00028
23.45 -0.00254
23.5 -0.00105
23.55 -0.00379
23.6 -0.00629
23.65 -0.0037
23.7 0.00091
23.75 0.00687
23.8 0.00867
23.85 0.01277
23.9 0.01476
23.95 0.01526
24 0.0129
24.05 0.0114
24.1 0.00642
24.15 0.0069
24.2 0.00967
24.25 0.00918
24.3 0.01131
24.35 0.01482
24.4 0.01957
24.45 0.01928
24.5 0.01707
24.55 0.01636
24.6 0.0111
24.65 0.00427
24.7 0.00187
24.75 0.00369
24.8 0.00319
24.85 0.00328
24.9 -0.00028
24.95 -0.00204
25 -0.00381
25.05 -0.00466
25.1 -0.00337
25.15 -0.00546
25.2 -0.00619
25.25 -0.00219
25.3 0.00186
25.35 0.00651
25.4 0.0048
25.45 0.00597
25.5 0.00569
25.55 0.00458
25.6 0.0012
25.65 0.00044
25.7 -0.00147
25.75 -0.0026
25.8 -0.00087
25.85 0.00221
25.9 0.00233
25.95 -0.00007
26 -0.00211
26.05 -0.00409
26.1 -0.00655
26.15 -0.00764
26.2 -0.0056
26.25 -0.00257
26.3 -0.00281
26.35 -0.00642
26.4 -0.01274
26.45 -0.01212
26.5 -0.01137
26.55 -0.0122
26.6 -0.01275
26.65 -0.00852
26.7 -0.00541
26.75 -0.00484
26.8 -0.00391
26.85 -0.00624
26.9 -0.01099
26.95 -0.0148
27 -0.01416
27.05 -0.01551
27.1 -0.01493
27.15 -0.0114
27.2 -0.00806
27.25 -0.00825
27.3 -0.00439
27.35 -0.0007
27.4 0.00263
27.45 0.00239
27.5 0.00157
27.55 -0.00195
27.6 -0.0077
27.65 -0.01335
27.7 -0.0193
27.75 -0.02566
27.8 -0.0355
27.85 -0.04968
27.9 -0.06332
27.95 -0.07683
28 -0.08896
28.05 -0.10749
28.1 -0.12721
28.15 -0.14715
28.2 -0.16903
28.25 -0.19144
28.3 -0.21846
28.35 -0.25348
28.4 -0.29479
28.45 -0.34288
28.5 -0.3912
28.55 -0.44972
28.6 -0.5086
28.65 -0.57043
28.7 -0.64005
28.75 -0.72004
28.8 -0.80242
28.85 -0.8891
28.9 -0.97892
28.95 -1.0738
29 -1.17601
29.05 -1.28227
29.1 -1.38528
29.15 -1.48835
29.2 -1.59012
29.25 -1.69009
29.3 -1.78841
29.35 -1.88417
29.4 -1.97395
29.45 -2.05475
29.5 -2.12603
29.55 -2.18981
29.6 -2.24046
29.65 -2.28201
29.7 -2.30808
29.75 -2.32052
29.8 -2.32179
29.85 -2.30937
29.9 -2.28471
29.95 -2.25215
30 -2.20904
30.05 -2.15447
30.1 -2.08427
30.15 -2.00261
30.2 -1.90661
30.25 -1.7933
30.3 -1.66955
30.35 -1.5389
30.4 -1.40485
30.45 -1.26198
30.5 -1.11558
30.55 -0.96277
30.6 -0.80422
30.65 -0.64792
30.7 -0.49242
30.75 -0.33636
30.8 -0.17807
30.85 -0.02259
30.9 0.12755
30.95 0.27732
31 0.4176
31.05 0.55313
31.1 0.67956
31.15 0.7984
31.2 0.91667
31.25 1.02997
31.3 1.13254
31.35 1.23336
31.4 1.32576
31.45 1.41176
31.5 1.49245
31.55 1.56496
31.6 1.62509
31.65 1.6784
31.7 1.72852
31.75 1.77075
31.8 1.80937
31.85 1.84269
31.9 1.87196
31.95 1.89309
32 1.90399
32.05 1.91285
32.1 1.91728
32.15 1.92233
32.2 1.92463
32.25 1.92059
32.3 1.91803
32.35 1.91683
32.4 1.91028
32.45 1.90493
32.5 1.89465
32.55 1.87873
32.6 1.85925
32.65 1.84499
32.7 1.83322
32.75 1.81981
32.8 1.80579
32.85 1.79116
32.9 1.77283
32.95 1.75399
33 1.7313
33.05 1.70537
33.1 1.67888
33.15 1.64445
33.2 1.60594
33.25 1.57052
33.3 1.53737
33.35 1.49833
33.4 1.45839
33.45 1.41907
33.5 1.37566
33.55 1.33186
33.6 1.28824
33.65 1.24896
33.7 1.20383
33.75 1.15717
33.8 1.11025
33.85 1.06406
33.9 1.01613
33.95 0.97187
34 0.92546
34.05 0.8825
34.1 0.84095
34.15 0.80311
34.2 0.76618
34.25 0.72614
34.3 0.68071
34.35 0.63745
34.4 0.59169
34.45 0.54985
34.5 0.51189
34.55 0.47161
34.6 0.4339
34.65 0.39788
34.7 0.3629
34.75 0.33094
34.8 0.29586
34.85 0.26201
34.9 0.22481
34.95 0.19428
35 0.16492
35.05 0.13228
35.1 0.10432
35.15 0.08142
35.2 0.05877
35.25 0.03784
35.3 0.01393
35.35 -0.01097
35.4 -0.038
35.45 -0.05938
35.5 -0.08146
35.55 -0.09791
35.6 -0.11918
35.65 -0.14104
35.7 -0.15895
35.75 -0.17867
35.8 -0.19298
35.85 -0.20787
35.9 -0.22352
35.95 -0.24005
36 -0.256
36.05 -0.26541
36.1 -0.26893
36.15 -0.27673
36.2 -0.28479
36.25 -0.29281
36.3 -0.30221
36.35 -0.30891
36.4 -0.31606
36.45 -0.32295
36.5 -0.32477
36.55 -0.32141
36.6 -0.32209
36.65 -0.32292
36.7 -0.32576
36.75 -0.32786
36.8 -0.32494
36.85 -0.32365
36.9 -0.3223
36.95 -0.32079
37 -0.31728
37.05 -0.318
37.1 -0.32218
37.15 -0.32053
37.2 -0.3178
37.25 -0.31244
37.3 -0.31005
37.35 -0.31151
37.4 -0.31116
37.45 -0.31368
37.5 -0.3178
37.55 -0.31515
37.6 -0.31502
37.65 -0.31006
37.7 -0.30824
37.75 -0.3031
37.8 -0.30096
37.85 -0.29858
37.9 -0.29694
37.95 -0.29683
38 -0.29172
38.05 -0.28727
38.1 -0.2791
38.15 -0.26876
38.2 -0.26381
38.25 -0.25834
38.3 -0.25646
38.35 -0.25667
38.4 -0.25732
38.45 -0.26006
38.5 -0.2561
38.55 -0.25033
38.6 -0.24645
38.65 -0.2441
38.7 -0.24242
38.75 -0.24381
38.8 -0.2396
38.85 -0.23073
38.9 -0.22399
38.95 -0.22134
39 -0.22243
39.05 -0.22433
39.1 -0.22411
39.15 -0.22225
39.2 -0.21583
39.25 -0.20916
39.3 -0.20661
39.35 -0.20438
39.4 -0.20518
39.45 -0.19908
39.5 -0.19636
39.55 -0.18851
39.6 -0.18402
39.65 -0.18163
39.7 -0.17774
39.75 -0.17516
39.8 -0.16783
39.85 -0.15886
39.9 -0.1556
39.95 -0.15048
40 -0.14555
40.05 -0.14594
40.1 -0.14467
40.15 -0.14294
40.2 -0.13963
40.25 -0.13454
40.3 -0.12874
40.35 -0.12683
40.4 -0.12273
40.45 -0.12181
40.5 -0.12472
40.55 -0.12464
40.6 -0.12515
40.65 -0.12888
40.7 -0.13286
40.75 -0.13819
40.8 -0.13743
40.85 -0.13516
40.9 -0.12777
40.95 -0.12457
41 -0.12144
41.05 -0.11439
41.1 -0.11057
41.15 -0.1076
41.2 -0.10194
41.25 -0.0974
41.3 -0.09313
41.35 -0.09249
41.4 -0.09221
41.45 -0.09554
41.5 -0.09935
41.55 -0.10316
41.6 -0.10379
41.65 -0.10619
41.7 -0.10256
41.75 -0.10177
41.8 -0.09815
41.85 -0.09239
41.9 -0.08456
41.95 -0.0768
42 -0.06899
42.05 -0.06205
42.1 -0.06105
42.15 -0.06584
42.2 -0.07025
42.25 -0.07017
42.3 -0.07015
42.35 -0.07087
42.4 -0.07345
42.45 -0.07346
42.5 -0.07018
42.55 -0.0653
42.6 -0.0658
42.65 -0.06363
42.7 -0.06359
42.75 -0.06171
42.8 -0.06115
42.85 -0.05795
42.9 -0.05949
42.95 -0.05694
43 -0.05544
43.05 -0.05324
43.1 -0.04976
43.15 -0.04458
43.2 -0.04386
43.25 -0.04271
43.3 -0.04327
43.35 -0.04573
43.4 -0.04444
43.45 -0.04492
43.5 -0.04475
43.55 -0.0428
43.6 -0.03954
43.65 -0.04105
43.7 -0.04269
43.75 -0.0444
43.8 -0.04928
43.85 -0.05264
43.9 -0.05489
43.95 -0.05874
44 -0.05885
44.05 -0.05885
44.1 -0.05884
44.15 -0.05604
44.2 -0.05042
44.25 -0.05023
44.3 -0.04674
44.35 -0.04464
44.4 -0.04099
44.45 -0.03437
44.5 -0.03249
44.55 -0.02882
44.6 -0.02835
44.65 -0.02972
44.7 -0.02938
44.75 -0.02916
44.8 -0.03327
44.85 -0.04003
44.9 -0.04577
44.95 -0.04774
45 -0.04918
45.05 -0.04644
45.1 -0.04612
45.15 -0.04285
45.2 -0.04107
45.25 -0.04205
45.3 -0.03932
45.35 -0.03944
45.4 -0.03632
45.45 -0.0315
45.5 -0.02429
45.55 -0.01846
45.6 -0.01725
45.65 -0.01489
45.7 -0.0167
45.75 -0.02249
45.8 -0.03057
45.85 -0.03918
45.9 -0.04361
45.95 -0.04744
46 -0.04531
46.05 -0.03945
46.1 -0.03411
46.15 -0.03308
46.2 -0.03106
46.25 -0.03057
46.3 -0.032
46.35 -0.03368
46.4 -0.03439
46.45 -0.0369
46.5 -0.03775
46.55 -0.03854
46.6 -0.03385
46.65 -0.02839
46.7 -0.02499
46.75 -0.02301
46.8 -0.02225
46.85 -0.01712
46.9 -0.01649
46.95 -0.01895
47 -0.01675
47.05 -0.01164
47.1 -0.0063
47.15 0.00001
47.2 0.00421
47.25 0.00516
47.3 0.00592
47.35 0.00329
47.4 0.00322
47.45 -0.00115
47.5 -0.004
47.55 -0.00633
47.6 -0.009
47.65 -0.01216
47.7 -0.01719
47.75 -0.02273
47.8 -0.02887
47.85 -0.03068
47.9 -0.03388
47.95 -0.03483
48 -0.03785
48.05 -0.03386
48.1 -0.03155
48.15 -0.02478
48.2 -0.02087
48.25 -0.01628
48.3 -0.01325
48.35 -0.00755
48.4 -0.00688
48.45 -0.00491
48.5 -0.0022
48.55 -0.0043
48.6 -0.00725
48.65 -0.00605
48.7 -0.00519
48.75 -0.00335
48.8 -0.00121
48.85 -0.00029
48.9 -0.00098
48.95 -0.0016
49 -0.00083
49.05 -0.00497
49.1 -0.00934
49.15 -0.01335
49.2 -0.01295
49.25 -0.00965
49.3 -0.00721
49.35 -0.0072
49.4 -0.00665
49.45 -0.00524
49.5 -0.00329
49.55 -0.00058
49.6 0.00185
49.65 -0.00105
49.7 0.0006
49.75 -0.00325
49.8 -0.00768
49.85 -0.01407
49.9 -0.01946
49.95 -0.02119
50 -0.01916
50.05 -0.0169
50.1 -0.01134
50.15 -0.00764
50.2 -0.00227
50.25 -0.00248
50.3 -0.00575
50.35 -0.00705
50.4 -0.00968
50.45 -0.01084
50.5 -0.01123
50.55 -0.01444
50.6 -0.0118
50.65 -0.01266
50.7 -0.01405
50.75 -0.01416
50.8 -0.01541
50.85 -0.01788
50.9 -0.01986
50.95 -0.02344
51 -0.02004
51.05 -0.01636
51.1 -0.012
51.15 -0.0049
51.2 -0.00028
51.25 0.00301
51.3 0.00151
51.35 0.0011
51.4 0.00447
51.45 0.00274
51.5 0.00253
51.55 0.00047
51.6 -0.00381
51.65 -0.00881
51.7 -0.00923
51.75 -0.00983
51.8 -0.00923
51.85 -0.00653
51.9 -0.0041
51.95 -0.00546
52 -0.00691
52.05 -0.01079
52.1 -0.01077
52.15 -0.00769
52.2 -0.00947
52.25 -0.0084
52.3 -0.00395
52.35 0.00179
52.4 0.00732
52.45 0.01372
52.5 0.01461
52.55 0.01059
52.6 0.0041
52.65 0.00017
52.7 -0.00285
52.75 -0.00558
52.8 -0.00732
52.85 -0.00505
52.9 -0.00139
52.95 0.00353
53 0.00457
53.05 0.00269
53.1 0.00445
53.15 0.00221
53.2 0.00263
53.25 0.00146
53.3 -0.0019
53.35 -0.00515
53.4 -0.00988
53.45 -0.01212
53.5 -0.01364
53.55 -0.01699
53.6 -0.0139
53.65 -0.00984
53.7 -0.00908
53.75 -0.00373
53.8 0.00052
53.85 0.00425
53.9 0.00196
53.95 -0.00233
54 -0.00072
54.05 -0.00319
54.1 -0.00835
54.15 -0.0117
54.2 -0.01314
54.25 -0.01403
54.3 -0.00931
54.35 -0.00828
54.4 -0.01075
54.45 -0.01492
54.5 -0.01846
54.55 -0.0171
54.6 -0.01617
54.65 -0.01782
54.7 -0.01614
54.75 -0.01777
54.8 -0.01581
54.85 -0.01612
54.9 -0.01502
54.95 -0.00996
55 -0.00953
55.05 -0.00579
55.1 -0.00309
55.15 -0.00464
55.2 -0.00718
55.25 -0.01218
55.3 -0.01609
55.35 -0.01842
55.4 -0.02122
55.45 -0.02411
55.5 -0.02746
55.55 -0.03068
55.6 -0.03171
55.65 -0.03076
55.7 -0.02877
55.75 -0.02563
55.8 -0.02158
55.85 -0.01403
55.9 -0.0033
55.95 0.00146
56 0.00323
56.05 0.00748
56.1 0.00764
56.15 0.00864
56.2 0.01337
56.25 0.01231
56.3 0.01541
56.35 0.01816
56.4 0.01866
56.45 0.02036
56.5 0.02193
56.55 0.01836
56.6 0.01686
56.65 0.01832
56.7 0.02156
56.75 0.02046
56.8 0.019
56.85 0.01258
56.9 0.00607
56.95 -0.00032
57 -0.00202
57.05 0.00128
57.1 0.00119
57.15 0.00526
57.2 0.00634
57.25 0.00822
57.3 0.00507
57.35 0.00333
57.4 0.00549
57.45 0.0062
57.5 0.00534
57.55 0.00489
57.6 0.0084
57.65 0.01125
57.7 0.01485
57.75 0.01304
57.8 0.01233
57.85 0.00755
57.9 0.00716
57.95 0.00374
58 0.00283
58.05 -0.00017
58.1 -0.00473
58.15 -0.00534
58.2 -0.0056
58.25 -0.0063
58.3 -0.00217
58.35 0.0042
58.4 0.00429
58.45 0.00503
58.5 0.003
58.55 -0.00123
58.6 -0.00799
58.65 -0.01169
58.7 -0.01086
58.75 -0.00903
58.8 -0.00606
58.85 0.00016
58.9 0.00289
58.95 0.00361
59 0.00264
59.05 0.00048
59.1 -0.00121
59.15 -0.0013
59.2 -0.00474
59.25 -0.00828
59.3 -0.007
59.35 -0.0079
59.4 -0.00532
59.45 -0.00268
59.5 -0.00044
59.55 -0.00027
59.6 -0.00085
59.65 -0.00527
59.7 -0.00777
59.75 -0.00821
59.8 -0.00885
59.85 -0.0114
59.9 -0.00911
59.95 -0.01044
60 -0.00725
60.05 -0.00297
60.1 -0.00355
60.15 -0.00248
60.2 -0.00232
60.25 -0.00042
60.3 0.00452
60.35 0.00877
60.4 0.01074
60.45 0.0077
60.5 0.00212
60.55 -0.0027
60.6 -0.00478
60.65 -0.00373
60.7 -0.00384
60.75 -0.00246
60.8 0.00012
60.85 0.00608
60.9 0.01243
60.95 0.01692
61 0.02007
61.05 0.01833
61.1 0.0154
61.15 0.01163
61.2 0.00868
61.25 0.00396
61.3 0.00408
61.35 0.00683
61.4 0.00801
61.45 0.00459
61.5 0.00472
61.55 0.00652
61.6 0.00513
61.65 0.00709
61.7 0.00832
61.75 0.0105
61.8 0.01262
61.85 0.01209
61.9 0.01189
61.95 0.01341
62 0.00971
62.05 0.00265
62.1 -0.00365
62.15 -0.0106
62.2 -0.01613
62.25 -0.02052
62.3 -0.01809
62.35 -0.01808
62.4 -0.01559
62.45 -0.00882
62.5 -0.00216
62.55 0.0018
62.6 0.00696
62.65 0.00842
62.7 0.00823
62.75 0.00578
62.8 0.00789
62.85 0.00551
62.9 0.00207
62.95 -0.00452
63 -0.00955
63.05 -0.00934
63.1 -0.00614
63.15 -0.00393
63.2 -0.0007
63.25 0.0052
63.3 0.00851
63.35 0.00743
63.4 0.00887
63.45 0.00633
63.5 0.00163
63.55 0.0015
63.6 -0.00081
63.65 -0.0004
63.7 -0.00234
63.75 -0.00465
63.8 -0.00679
63.85 -0.0079
63.9 -0.0066
63.95 -0.00523
64 -0.00722
64.05 -0.01028
64.1 -0.01473
64.15 -0.01968
64.2 -0.02469
64.25 -0.02495
64.3 -0.01885
64.35 -0.01108
64.4 -0.00778
64.45 -0.00442
64.5 -0.00442
64.55 -0.0012
64.6 0.00166
64.65 0.00431
64.7 0.0078
64.75 0.00899
64.8 0.00603
64.85 0.00799
64.9 0.01153
64.95 0.00917
65 0.00968
65.05 0.01205
65.1 0.00958
65.15 0.00974
65.2 0.0095
65.25 0.00496
65.3 -0.00083
65.35 -0.00614
65.4 -0.01137
65.45 -0.0153
65.5 -0.01987
65.55 -0.02193
65.6 -0.01722
65.65 -0.01099
65.7 -0.00449
65.75 -0.00179
65.8 -0.00015
65.85 0.00235
65.9 0.00561
65.95 0.01054
66 0.0171
66.05 0.02256
66.1 0.02552
66.15 0.02795
66.2 0.02987
66.25 0.03104
66.3 0.03188
66.35 0.03331
66.4 0.03241
66.45 0.02682
66.5 0.0191
66.55 0.00824
66.6 -0.00324
66.65 -0.0098
66.7 -0.01326
66.75 -0.01863
66.8 -0.01825
66.85 -0.01372
66.9 -0.01091
66.95 -0.00413
67 -0.00272
67.05 -0.00522
67.1 -0.00861
67.15 -0.00597
67.2 -0.005
67.25 -0.00472
67.3 -0.00852
67.35 -0.00916
67.4 -0.0053
67.45 0.0015
67.5 0.0048
67.55 0.0103
67.6 0.01362
67.65 0.01762
67.7 0.01567
67.75 0.0093
67.8 0.00067
67.85 -0.00743
67.9 -0.01314
67.95 -0.01332
68 -0.01383
68.05 -0.01737
68.1 -0.02039
68.15 -0.0165
68.2 -0.00902
68.25 -0.00347
68.3 -0.0013
68.35 0.00251
68.4 0.00604
68.45 0.00413
68.5 0.00631
68.55 0.00743
68.6 0.00625
68.65 0.00606
68.7 0.00457
68.75 -0.00045
68.8 -0.00006
68.85 -0.00256
68.9 -0.00673
68.95 -0.01314
69 -0.01571
69.05 -0.01505
69.1 -0.01733
69.15 -0.01722
69.2 -0.01199
69.25 -0.00603
69.3 -0.00414
69.35 -0.00574
69.4 -0.01006
69.45 -0.01598
69.5 -0.01918
69.55 -0.02047
69.6 -0.02111
69.65 -0.01763
69.7 -0.01215
69.75 -0.0049
69.8 -0.00103
69.85 -0.00212
69.9 -0.00447
69.95 -0.00389
70 -0.00125
70.05 -0.00115
70.1 -0.0015
70.15 0.0001
70.2 0.00558
70.25 0.00988
70.3 0.0091
70.35 0.00904
70.4 0.011
70.45 0.0096
70.5 0.00764
70.55 0.00814
70.6 0.01199
70.65 0.01423
70.7 0.0108
70.75 0.0083
70.8 0.00314
70.85 0.00249
70.9 0.00024
70.95 -0.00426
71 -0.00343
71.05 -0.00128
71.1 -0.00259
71.15 -0.00177
71.2 -0.0031
71.25 -0.00328
71.3 -0.00246
71.35 -0.0037
71.4 0.00005
71.45 0.00538
71.5 0.01025
71.55 0.01447
71.6 0.01519
71.65 0.01469
71.7 0.01174
71.75 0.00962
71.8 0.00669
71.85 0.00278
71.9 0.00201
71.95 0.00013
72 -0.00272
72.05 -0.00381
72.1 -0.00741
72.15 -0.00976
72.2 -0.00667
72.25 -0.00712
72.3 -0.01082
72.35 -0.01542
72.4 -0.01727
72.45 -0.01871
72.5 -0.0207
72.55 -0.02158
72.6 -0.02408
72.65 -0.02682
72.7 -0.02892
72.75 -0.02795
72.8 -0.02268
72.85 -0.01401
72.9 -0.00818
72.95 -0.00468
73 -0.00257
73.05 0.00147
73.1 0.0077
73.15 0.01093
73.2 0.01396
73.25 0.01113
73.3 0.00503
73.35 0.00518
73.4 0.00774
73.45 0.0083
73.5 0.00731
73.55 0.00985
73.6 0.01151
73.65 0.01402
73.7 0.01729
73.75 0.01867
73.8 0.01578
73.85 0.01442
73.9 0.01208
73.95 0.00619
74 -0.00109
74.05 -0.00386
74.1 -0.00619
74.15 -0.00518
74.2 -0.00267
74.25 -0.0003
74.3 -0.00085
74.35 -0.00383
74.4 -0.00585
74.45 -0.00754
74.5 -0.00427
74.55 0.00073
74.6 0.00532
74.65 0.00643
74.7 0.00566
74.75 0.00334
74.8 0.00164
74.85 0.00405
74.9 0.00098
74.95 -0.00172
75 -0.00738
75.05 -0.01301
75.1 -0.01637
75.15 -0.0135
75.2 -0.0103
75.25 -0.01133
75.3 -0.00828
75.35 -0.00162
75.4 0.00562
75.45 0.01019
75.5 0.01563
75.55 0.0151
75.6 0.01629
75.65 0.0163
75.7 0.01888
75.75 0.01488
75.8 0.01381
75.85 0.01608
75.9 0.02029
75.95 0.0218
76 0.02359
76.05 0.01988
76.1 0.01502
76.15 0.01216
76.2 0.01334
76.25 0.01109
76.3 0.01082
76.35 0.0087
76.4 0.00895
76.45 0.00401
76.5 0.00303
76.55 0.00473
76.6 0.00605
76.65 0.00909
76.7 0.01279
76.75 0.01375
76.8 0.00935
76.85 0.00773
76.9 0.00823
76.95 0.01066
77 0.00853
77.05 0.00391
77.1 -0.00214
77.15 -0.00846
77.2 -0.01605
77.25 -0.02415
77.3 -0.02833
77.35 -0.02556
77.4 -0.02325
77.45 -0.02203
77.5 -0.02082
77.55 -0.01534
77.6 -0.00679
77.65 -0.00366
77.7 0.00085
77.75 0.00499
77.8 0.00996
77.85 0.01141
77.9 0.01272
77.95 0.0099
78 0.00881
78.05 0.00617
78.1 0.00128
78.15 -0.00306
78.2 -0.0086
78.25 -0.01345
78.3 -0.01948
78.35 -0.02545
78.4 -0.02482
78.45 -0.0216
78.5 -0.01528
78.55 -0.00751
78.6 -0.00495
78.65 -0.00691
78.7 -0.0088
78.75 -0.00665
78.8 -0.00816
78.85 -0.0082
78.9 -0.01123
78.95 -0.01416
79 -0.01231
79.05 -0.00999
79.1 -0.00594
79.15 -0.00614
79.2 -0.00415
79.25 0.00064
79.3 0.00079
79.35 -0.00273
79.4 -0.00743
79.45 -0.00926
79.5 -0.00544
79.55 -0.00664
79.6 -0.00333
79.65 -0.00027
79.7 0.00369
79.75 0.00666
79.8 0.01199
79.85 0.01776
79.9 0.01672
79.95 0.01266
80 0.00751
80.05 0.00608
80.1 0.00339
80.15 -0.00029
80.2 -0.00298
80.25 -0.00415
80.3 -0.00878
80.35 -0.00746
80.4 -0.01006
80.45 -0.01341
80.5 -0.01448
80.55 -0.01634
80.6 -0.01578
80.65 -0.01456
80.7 -0.0102
80.75 -0.0039
80.8 0.00375
80.85 0.00497
80.9 0.00832
80.95 0.00952
81 0.01352
81.05 0.01084
81.1 0.00593
81.15 -0.00114
81.2 -0.00701
81.25 -0.01043
81.3 -0.00865
81.35 -0.00715
81.4 -0.0044
81.45 -0.00045
81.5 0.00327
81.55 0.00192
81.6 0.00253
81.65 0.00434
81.7 0.00886
81.75 0.00784
81.8 0.00342
81.85 0.00167
81.9 0.0027
81.95 -0.00081
82 0.00039
82.05 0.00526
82.1 0.00534
82.15 0.00688
82.2 0.00563
82.25 0.00228
82.3 -0.00267
82.35 -0.00431
82.4 -0.00814
82.45 -0.01036
82.5 -0.01388
82.55 -0.01621
82.6 -0.01294
82.65 -0.01251
82.7 -0.01207
82.75 -0.01085
82.8 -0.01279
82.85 -0.01505
82.9 -0.01563
82.95 -0.01665
83 -0.01663
83.05 -0.012
83.1 -0.0064
83.15 -0.00187
83.2 -0.00052
83.25 0.00129
83.3 0.00359
83.35 0.00575
83.4 0.00976
83.45 0.01484
83.5 0.01647
83.55 0.01633
83.6 0.01357
83.65 0.00933
83.7 0.00819
83.75 0.01097
83.8 0.01504
83.85 0.01773
83.9 0.01496
83.95 0.01428
84 0.01351
84.05 0.01146
84.1 0.01291
84.15 0.01058
84.2 0.00773
84.25 0.00293
84.3 0.00232
84.35 0.00485
84.4 0.00658
84.45 0.00821
84.5 0.00661
84.55 0.00253
84.6 -0.00211
84.65 -0.0081
84.7 -0.01409
84.75 -0.01975
84.8 -0.02174
84.85 -0.01897
84.9 -0.01912
84.95 -0.02009
85 -0.01931
85.05 -0.01577
85.1 -0.01025
85.15 -0.0022
85.2 0.00252
85.25 0.00195
85.3 0.00528
85.35 0.00938
85.4 0.01503
85.45 0.01349
85.5 0.00888
85.55 0.00939
85.6 0.00509
85.65 0.00142
85.7 0.00318
85.75 0.00771
85.8 0.0071
85.85 0.00486
85.9 0.00261
85.95 0.00315
86 -0.00102
86.05 -0.00445
86.1 -0.01022
86.15 -0.01175
86.2 -0.00906
86.25 -0.00238
86.3 0.0014
86.35 0.00091
86.4 -0.00045
86.45 0.00123
86.5 0.00457
86.55 0.00713
86.6 0.0042
86.65 -0.0005
86.7 0.00031
86.75 -0.00341
86.8 -0.00423
86.85 -0.00314
86.9 -0.00417
86.95 -0.00674
87 -0.0083
87.05 -0.01168
87.1 -0.01259
87.15 -0.01272
87.2 -0.01332
87.25 -0.01371
87.3 -0.00891
87.35 -0.00188
87.4 -0.00034
87.45 0.00496
87.5 0.0063
87.55 0.00986
87.6 0.0156
87.65 0.01423
87.7 0.01051
87.75 0.00479
87.8 0.0021
87.85 0.00084
87.9 0.00267
87.95 0.00477
88 0.007
88.05 0.00407
88.1 -0.00029
88.15 -0.00242
88.2 -0.00024
88.25 0.00005
88.3 -0.00242
88.35 -0.00236
88.4 -0.00476
88.45 -0.00876
88.5 -0.00818
88.55 -0.0051
88.6 0.00095
88.65 0.00613
88.7 0.00674
88.75 0.0057
88.8 0.00704
88.85 0.00311
88.9 -0.00148
88.95 -0.00807
89 -0.00969
89.05 -0.01049
89.1 -0.01312
89.15 -0.01107
89.2 -0.00921
89.25 -0.00371
89.3 0.00442
89.35 0.00933
89.4 0.01486
89.45 0.0144
89.5 0.01621
89.55 0.01906
89.6 0.0226
89.65 0.02401
89.7 0.02698
89.75 0.02686
89.8 0.02835
89.85 0.02989
89.9 0.0298
89.95 0.02423
90 0.01881
90.05 0.01202
90.1 0.01018
90.15 0.00418
90.2 -0.00245
90.25 -0.00757
90.3 -0.01355
90.35 -0.01685
90.4 -0.01887
90.45 -0.0193
90.5 -0.01658
90.55 -0.01799
90.6 -0.01647
90.65 -0.01267
90.7 -0.00926
90.75 -0.00263
90.8 0.00459
90.85 0.00605
90.9 0.01056
90.95 0.0161
91 0.01494
91.05 0.0164
91.1 0.01664
91.15 0.01265
91.2 0.00511
91.25 -0.00287
91.3 -0.01019
91.35 -0.01722
91.4 -0.02019
91.45 -0.01853
91.5 -0.01757
91.55 -0.01283
91.6 -0.01121
91.65 -0.01245
91.7 -0.00806
91.75 -0.00067
91.8 0.00463
91.85 0.00742
91.9 0.00872
91.95 0.01109
92 0.01202
92.05 0.01268
92.1 0.01238
92.15 0.01481
92.2 0.0121
92.25 0.00957
92.3 0.01022
92.35 0.01098
92.4 0.01067
92.45 0.01127
92.5 0.00614
92.55 0.00365
92.6 0.00057
92.65 -0.00114
92.7 0.00125
92.75 -0.00132
92.8 -0.00512
92.85 -0.00716
92.9 -0.01008
92.95 -0.01446
93 -0.02005
93.05 -0.02566
93.1 -0.02684
93.15 -0.02424
93.2 -0.01728
93.25 -0.01517
93.3 -0.01358
93.35 -0.00981
93.4 -0.00625
93.45 -0.00018
93.5 0.00281
93.55 0.00644
93.6 0.01026
93.65 0.01131
93.7 0.01399
93.75 0.01357
93.8 0.01427
93.85 0.01682
93.9 0.01391
93.95 0.01226
94 0.01026
94.05 0.00772
94.1 0.00672
94.15 0.00191
94.2 -0.00069
94.25 -0.00058
94.3 -0.00061
94.35 -0.00474
94.4 -0.00596
94.45 -0.00343
94.5 0.0005
94.55 0.00256
94.6 0.00203
94.65 -0.00288
94.7 -0.00684
94.75 -0.00934
94.8 -0.00968
94.85 -0.01007
94.9 -0.009
94.95 -0.01142
95 -0.01027
95.05 -0.01148
95.1 -0.00826
95.15 -0.00335
95.2 0.00334
95.25 0.00939
95.3 0.00915
95.35 0.0116
95.4 0.01323
95.45 0.01156
95.5 0.00843
95.55 0.00746
95.6 0.00423
95.65 0.00297
95.7 0.00569
95.75 0.00476
95.8 0.0064
95.85 0.00427
95.9 0.00483
95.95 0.00383
96 0.00398
96.05 0.006
96.1 0.00635
96.15 0.00802
96.2 0.01119
96.25 0.01458
96.3 0.01873
96.35 0.01646
96.4 0.01116
96.45 0.00938
96.5 0.01085
96.55 0.01148
96.6 0.00864
96.65 0.00678
96.7 0.00676
96.75 0.00542
96.8 0.0025
96.85 0.00352
96.9 0.00673
96.95 0.00342
97 0.00454
97.05 0.00847
97.1 0.01178
97.15 0.01223
97.2 0.00666
97.25 0.00579
97.3 0.00659
97.35 0.00838
97.4 0.00945
97.45 0.01099
97.5 0.00826
97.55 0.00888
97.6 0.00862
97.65 0.00591
97.7 0.00093
97.75 -0.00024
97.8 -0.00191
97.85 -0.00414
97.9 -0.00438
97.95 -0.00697
98 -0.00737
98.05 -0.0089
98.1 -0.01316
98.15 -0.01954
98.2 -0.0266
98.25 -0.03082
98.3 -0.03091
98.35 -0.02521
98.4 -0.02414
98.45 -0.02267
98.5 -0.02406
98.55 -0.02306
98.6 -0.02516
98.65 -0.0243
98.7 -0.02055
98.75 -0.0146
98.8 -0.00606
98.85 0.0032
98.9 0.01144
98.95 0.01812
99 0.02129
99.05 0.02384
99.1 0.02679
99.15 0.02753
99.2 0.02289
99.25 0.01559
99.3 0.00596
99.35 -0.00032
99.4 -0.0069
99.45 -0.01352
99.5 -0.01569
99.55 -0.01489
99.6 -0.01556
99.65 -0.01618
99.7 -0.01636
99.75 -0.01289
99.8 -0.01
99.85 -0.00428
99.9 0.00007
99.95 0.00114
