0 0
0.05 0.00476
0.1 0.01306
0.15 0.02034
0.2 0.02777
0.25 0.03886
0.3 0.0439
0.35 0.05195
0.4 0.05692
0.45 0.06134
0.5 0.05988
0.55 0.06033
0.6 0.05697
0.65 0.05348
0.7 0.05314
0.75 0.05297
0.8 0.05677
0.85 0.05997
0.9 0.05904
0.95 0.05721
1 0.05619
1.05 0.05311
1.1 0.04934
1.15 0.04716
1.2 0.04628
1.25 0.04536
1.3 0.04812
1.35 0.04968
1.4 0.05319
1.45 0.05798
1.5 0.05627
1.55 0.05264
1.6 0.05
1.65 0.05116
1.7 0.04739
1.75 0.0429
1.8 0.03841
1.85 0.03402
1.9 0.02844
1.95 0.02505
2 0.02696
2.05 0.03089
2.1 0.0303
2.15 0.02692
2.2 0.0286
2.25 0.02494
2.3 0.02488
2.35 0.0277
2.4 0.02754
2.45 0.02351
2.5 0.02159
2.55 0.01726
2.6 0.01065
2.65 0.00768
2.7 0.00792
2.75 0.00743
2.8 0.013
2.85 0.0148
2.9 0.01476
2.95 0.01076
3 0.00751
3.05 0.00262
3.1 -0.00317
3.15 -0.00447
3.2 -0.00379
3.25 -0.00546
3.3 -0.00103
3.35 -0.00089
3.4 -0.00036
3.45 0.0042
3.5 0.01064
3.55 0.01789
3.6 0.01819
3.65 0.01506
3.7 0.01006
3.75 0.00819
3.8 0.00684
3.85 0.00732
3.9 0.00451
3.95 0.00704
4 0.00918
4.05 0.0138
4.1 0.01683
4.15 0.01757
4.2 0.01999
4.25 0.02166
4.3 0.02536
4.35 0.02416
4.4 0.01589
4.45 0.00244
4.5 -0.00574
4.55 -0.01374
4.6 -0.02188
4.65 -0.02926
4.7 -0.04361
4.75 -0.06072
4.8 -0.07865
4.85 -0.09889
4.9 -0.1269
4.95 -0.16564
5 -0.20655
5.05 -0.25464
5.1 -0.30693
5.15 -0.36376
5.2 -0.42719
5.25 -0.49127
5.3 -0.55435
5.35 -0.62301
5.4 -0.69333
5.45 -0.76629
5.5 -0.8423
5.55 -0.92413
5.6 -1.00572
5.65 -1.09063
5.7 -1.17561
5.75 -1.25216
5.8 -1.3217
5.85 -1.38517
5.9 -1.43958
5.95 -1.49332
6 -1.54138
6.05 -1.58243
6.1 -1.61697
6.15 -1.64252
6.2 -1.66013
6.25 -1.66768
6.3 -1.66745
6.35 -1.65896
6.4 -1.64737
6.45 -1.6308
6.5 -1.6113
6.55 -1.58521
6.6 -1.55233
6.65 -1.51321
6.7 -1.46343
6.75 -1.40646
6.8 -1.33698
6.85 -1.25996
6.9 -1.17267
6.95 -1.08047
7 -0.97719
7.05 -0.86657
7.1 -0.74752
7.15 -0.62422
7.2 -0.49523
7.25 -0.36564
7.3 -0.23286
7.35 -0.1002
7.4 0.03468
7.45 0.1673
7.5 0.29471
7.55 0.42104
7.6 0.54446
7.65 0.66302
7.7 0.76751
7.75 0.86355
7.8 0.94747
7.85 1.02324
7.9 1.08835
7.95 1.14648
8 1.20325
8.05 1.25072
8.1 1.29336
8.15 1.32745
8.2 1.35583
8.25 1.37535
8.3 1.38884
8.35 1.40484
8.4 1.41868
8.45 1.42421
8.5 1.42817
8.55 1.42965
8.6 1.42579
8.65 1.42329
8.7 1.41219
8.75 1.40404
8.8 1.38907
8.85 1.37174
8.9 1.35595
8.95 1.34373
9 1.32755
9.05 1.30776
9.1 1.29236
9.15 1.27682
9.2 1.25653
9.25 1.23674
9.3 1.21557
9.35 1.20086
9.4 1.18699
9.45 1.16939
9.5 1.15291
9.55 1.13237
9.6 1.11521
9.65 1.09447
9.7 1.07891
9.75 1.06418
9.8 1.04742
9.85 1.03403
9.9 1.02012
9.95 1.00069
10 0.98339
10.05 0.96758
10.1 0.94683
10.15 0.926
10.2 0.905
10.25 0.88027
10.3 0.85169
10.35 0.82406
10.4 0.79286
10.45 0.75978
10.5 0.72593
10.55 0.69936
10.6 0.67004
10.65 0.64208
10.7 0.61769
10.75 0.59388
10.8 0.56743
10.85 0.53971
10.9 0.51585
10.95 0.49339
11 0.47171
11.05 0.44846
11.1 0.4191
11.15 0.39169
11.2 0.36558
11.25 0.33724
11.3 0.30627
11.35 0.27021
11.4 0.23306
11.45 0.20291
11.5 0.17604
11.55 0.15135
11.6 0.13094
11.65 0.10591
11.7 0.07719
11.75 0.05502
11.8 0.03324
11.85 0.0168
11.9 -0.00228
11.95 -0.0175
12 -0.0331
12.05 -0.04781
12.1 -0.0637
12.15 -0.07779
12.2 -0.08948
12.25 -0.10726
12.3 -0.12562
12.35 -0.14467
12.4 -0.16085
12.45 -0.17051
12.5 -0.17667
12.55 -0.18695
12.6 -0.19236
12.65 -0.19973
12.7 -0.20273
12.75 -0.20513
12.8 -0.20488
12.85 -0.20429
12.9 -0.20875
12.95 -0.21918
13 -0.23145
13.05 -0.24172
13.1 -0.24578
13.15 -0.2481
13.2 -0.24851
13.25 -0.2495
13.3 -0.25028
13.35 -0.25072
13.4 -0.24764
13.45 -0.24544
13.5 -0.24142
13.55 -0.2413
13.6 -0.24458
13.65 -0.2494
13.7 -0.25347
13.75 -0.25706
13.8 -0.26245
13.85 -0.26035
13.9 -0.26149
13.95 -0.26355
14 -0.25759
14.05 -0.25236
14.1 -0.24658
14.15 -0.2428
14.2 -0.24003
14.25 -0.23262
14.3 -0.23036
14.35 -0.22347
14.4 -0.22073
14.45 -0.22177
14.5 -0.21665
14.55 -0.21404
14.6 -0.20687
14.65 -0.20262
14.7 -0.19719
14.75 -0.18904
14.8 -0.18801
14.85 -0.1867
14.9 -0.19004
14.95 -0.19219
15 -0.19048
15.05 -0.18993
15.1 -0.18888
15.15 -0.18442
15.2 -0.18026
15.25 -0.17907
15.3 -0.17331
15.35 -0.16764
15.4 -0.16465
15.45 -0.16015
15.5 -0.15583
15.55 -0.15537
15.6 -0.15454
15.65 -0.15068
15.7 -0.14702
15.75 -0.14101
15.8 -0.14045
15.85 -0.13584
15.9 -0.1371
15.95 -0.1409
16 -0.1389
16.05 -0.13554
16.1 -0.13063
16.15 -0.12769
16.2 -0.12533
16.25 -0.1228
16.3 -0.11798
16.35 -0.11949
16.4 -0.12358
16.45 -0.12598
16.5 -0.12858
16.55 -0.12782
16.6 -0.12217
16.65 -0.11993
16.7 -0.11517
16.75 -0.114
16.8 -0.11024
16.85 -0.10772
16.9 -0.10743
16.95 -0.10754
17 -0.10416
17.05 -0.10224
17.1 -0.10433
17.15 -0.10013
17.2 -0.09312
17.25 -0.09225
17.3 -0.08732
17.35 -0.08299
17.4 -0.07809
17.45 -0.07211
17.5 -0.06987
17.55 -0.06706
17.6 -0.06193
17.65 -0.05603
17.7 -0.05722
17.75 -0.06215
17.8 -0.07089
17.85 -0.07337
17.9 -0.07543
17.95 -0.0759
18 -0.07371
18.05 -0.0685
18.1 -0.06334
18.15 -0.062
18.2 -0.06159
18.25 -0.0574
18.3 -0.05861
18.35 -0.05774
18.4 -0.05357
18.45 -0.05562
18.5 -0.06009
18.55 -0.06004
18.6 -0.05862
18.65 -0.0573
18.7 -0.0525
18.75 -0.05417
18.8 -0.05398
18.85 -0.05487
18.9 -0.05161
18.95 -0.05141
19 -0.0498
19.05 -0.05051
19.1 -0.051
19.15 -0.05409
19.2 -0.05319
19.25 -0.05592
19.3 -0.06072
19.35 -0.06716
19.4 -0.06745
19.45 -0.06755
19.5 -0.06581
19.55 -0.06614
19.6 -0.06408
19.65 -0.06573
19.7 -0.06828
19.75 -0.06904
19.8 -0.07128
19.85 -0.06609
19.9 -0.06343
19.95 -0.05952
20 -0.055
20.05 -0.05208
20.1 -0.04596
20.15 -0.03981
20.2 -0.03569
20.25 -0.03333
20.3 -0.02918
20.35 -0.02839
20.4 -0.02491
20.45 -0.02422
20.5 -0.02459
20.55 -0.02475
20.6 -0.02497
20.65 -0.02934
20.7 -0.03417
20.75 -0.04139
20.8 -0.04897
20.85 -0.05414
20.9 -0.05802
20.95 -0.058
21 -0.05797
21.05 -0.05161
21.1 -0.04426
21.15 -0.0352
21.2 -0.02781
21.25 -0.02527
21.3 -0.0242
21.35 -0.02529
21.4 -0.02149
21.45 -0.01882
21.5 -0.01507
21.55 -0.01545
21.6 -0.01454
21.65 -0.0099
21.7 -0.0067
21.75 -0.00684
21.8 -0.00792
21.85 -0.01352
21.9 -0.01354
21.95 -0.01779
22 -0.01765
22.05 -0.01683
22.1 -0.01658
22.15 -0.01401
22.2 -0.01737
22.25 -0.01772
22.3 -0.01935
22.35 -0.01957
22.4 -0.02146
22.45 -0.02043
22.5 -0.01882
22.55 -0.01815
22.6 -0.01496
22.65 -0.01771
22.7 -0.01839
22.75 -0.01706
22.8 -0.01472
22.85 -0.01348
22.9 -0.01148
22.95 -0.01011
23 -0.01173
23.05 -0.00948
23.1 -0.00395
23.15 0.00295
23.2 0.00576
23.25 0.00605
23.3 0.00143
23.35 -0.00721
23.4 -0.01762
23.45 -0.02261
23.5 -0.02421
23.55 -0.02381
23.6 -0.02191
23.65 -0.02117
23.7 -0.01965
23.75 -0.01563
23.8 -0.01433
23.85 -0.00927
23.9 -0.0072
23.95 -0.00512
24 -0.00704
24.05 -0.00761
24.1 -0.00386
24.15 -0.005
24.2 -0.00889
24.25 -0.00917
24.3 -0.01319
24.35 -0.01659
24.4 -0.01965
24.45 -0.01984
24.5 -0.02021
24.55 -0.02225
24.6 -0.01912
24.65 -0.01599
24.7 -0.01558
24.75 -0.01274
24.8 -0.01447
24.85 -0.01656
24.9 -0.01742
24.95 -0.0146
25 -0.01143
25.05 -0.01243
25.1 -0.01665
25.15 -0.01828
25.2 -0.02014
25.25 -0.01583
25.3 -0.00927
25.35 -0.00708
25.4 -0.00125
25.45 -0.00088
25.5 0.0014
25.55 0.0041
25.6 0.00627
25.65 0.0109
25.7 0.0164
25.75 0.02151
25.8 0.02439
25.85 0.01964
25.9 0.01449
25.95 0.00719
26 -0.00243
26.05 -0.0133
26.1 -0.02179
26.15 -0.02685
26.2 -0.02869
26.25 -0.0266
26.3 -0.02494
26.35 -0.01812
26.4 -0.01749
26.45 -0.01859
26.5 -0.01407
26.55 -0.01395
26.6 -0.01254
26.65 -0.01255
26.7 -0.01327
26.75 -0.01355
26.8 -0.01755
26.85 -0.0165
26.9 -0.01605
26.95 -0.01141
27 -0.00878
27.05 -0.00951
27.1 -0.01194
27.15 -0.00845
27.2 -0.00576
27.25 -0.00319
27.3 -0.00378
27.35 -0.00693
27.4 -0.01259
27.45 -0.01732
27.5 -0.0233
27.55 -0.02186
27.6 -0.01978
27.65 -0.01537
27.7 -0.00946
27.75 -0.00444
27.8 -0.00365
27.85 -0.00691
27.9 -0.00722
27.95 -0.00666
28 -0.00548
28.05 -0.01127
28.1 -0.01837
28.15 -0.02892
28.2 -0.04339
28.25 -0.0528
28.3 -0.05915
28.35 -0.06687
28.4 -0.07646
28.45 -0.08512
28.5 -0.09844
28.55 -0.11878
28.6 -0.1415
28.65 -0.1605
28.7 -0.18545
28.75 -0.21505
28.8 -0.24864
28.85 -0.282
28.9 -0.31263
28.95 -0.34722
29 -0.38707
29.05 -0.42426
29.1 -0.4662
29.15 -0.51439
29.2 -0.55873
29.25 -0.60666
29.3 -0.65706
29.35 -0.70445
29.4 -0.75773
29.45 -0.80635
29.5 -0.85054
29.55 -0.89341
29.6 -0.93846
29.65 -0.98519
29.7 -1.02294
29.75 -1.05794
29.8 -1.08421
29.85 -1.10594
29.9 -1.1225
29.95 -1.13188
30 -1.12975
30.05 -1.11712
30.1 -1.10144
30.15 -1.07447
30.2 -1.04347
30.25 -0.9985
30.3 -0.94282
30.35 -0.88597
30.4 -0.81909
30.45 -0.74623
30.5 -0.66834
30.55 -0.58922
30.6 -0.50472
30.65 -0.41737
30.7 -0.32585
30.75 -0.23213
30.8 -0.1408
30.85 -0.05007
30.9 0.03825
30.95 0.11725
31 0.19118
31.05 0.261
31.1 0.3277
31.15 0.39223
31.2 0.44997
31.25 0.5048
31.3 0.55583
31.35 0.6056
31.4 0.65206
31.45 0.6954
31.5 0.73036
31.55 0.7591
31.6 0.77935
31.65 0.79805
31.7 0.81193
31.75 0.82419
31.8 0.82946
31.85 0.83455
31.9 0.83422
31.95 0.83685
32 0.83884
32.05 0.83943
32.1 0.84058
32.15 0.8441
32.2 0.84776
32.25 0.84642
32.3 0.84586
32.35 0.84492
32.4 0.8368
32.45 0.82792
32.5 0.81607
32.55 0.80817
32.6 0.79862
32.65 0.79289
32.7 0.78827
32.75 0.78183
32.8 0.76835
32.85 0.75719
32.9 0.74057
32.95 0.72125
33 0.70514
33.05 0.69409
33.1 0.67808
33.15 0.66376
33.2 0.65047
33.25 0.63821
33.3 0.62431
33.35 0.6093
33.4 0.58901
33.45 0.56443
33.5 0.54566
33.55 0.52854
33.6 0.50657
33.65 0.48536
33.7 0.46957
33.75 0.44856
33.8 0.43195
33.85 0.41273
33.9 0.39475
33.95 0.37827
34 0.36069
34.05 0.34578
34.1 0.33334
34.15 0.31985
34.2 0.30505
34.25 0.28876
34.3 0.27461
34.35 0.26263
34.4 0.24843
34.45 0.23419
34.5 0.22038
34.55 0.20952
34.6 0.19402
34.65 0.18237
34.7 0.16567
34.75 0.14872
34.8 0.12915
34.85 0.10985
34.9 0.09857
34.95 0.08456
35 0.06826
35.05 0.0595
35.1 0.05476
35.15 0.04885
35.2 0.04006
35.25 0.02789
35.3 0.01259
35.35 -0.0012
35.4 -0.01346
35.45 -0.02627
35.5 -0.03278
35.55 -0.04013
35.6 -0.04893
35.65 -0.05266
35.7 -0.05805
35.75 -0.06069
35.8 -0.06089
35.85 -0.06552
35.9 -0.06645
35.95 -0.06599
36 -0.06948
36.05 -0.07481
36.1 -0.08269
36.15 -0.08608
36.2 -0.0932
36.25 -0.09774
36.3 -0.10305
36.35 -0.11012
36.4 -0.11149
36.45 -0.11142
36.5 -0.1141
36.55 -0.11924
36.6 -0.12492
36.65 -0.12559
36.7 -0.12809
36.75 -0.12951
36.8 -0.12766
36.85 -0.1316
36.9 -0.13024
36.95 -0.13085
37 -0.13565
37.05 -0.13763
37.1 -0.13961
37.15 -0.13685
37.2 -0.13233
37.25 -0.13134
37.3 -0.13168
37.35 -0.13282
37.4 -0.13555
37.45 -0.13446
37.5 -0.13789
37.55 -0.13636
37.6 -0.13773
37.65 -0.1357
37.7 -0.13181
37.75 -0.12672
37.8 -0.12686
37.85 -0.12942
37.9 -0.13122
37.95 -0.13383
38 -0.13099
38.05 -0.13016
38.1 -0.12779
38.15 -0.12935
38.2 -0.12485
38.25 -0.11904
38.3 -0.11901
38.35 -0.12057
38.4 -0.11979
38.45 -0.12181
38.5 -0.12119
38.55 -0.12199
38.6 -0.11875
38.65 -0.1171
38.7 -0.11826
38.75 -0.11305
38.8 -0.11208
38.85 -0.10663
38.9 -0.10316
38.95 -0.09737
39 -0.08956
39.05 -0.0826
39.1 -0.07606
39.15 -0.07407
39.2 -0.0699
39.25 -0.06432
39.3 -0.06036
39.35 -0.05825
39.4 -0.05567
39.45 -0.05993
39.5 -0.06699
39.55 -0.07193
39.6 -0.07178
39.65 -0.07439
39.7 -0.0749
39.75 -0.07731
39.8 -0.07619
39.85 -0.07851
39.9 -0.0772
39.95 -0.07383
40 -0.06838
40.05 -0.06834
40.1 -0.06539
40.15 -0.06139
40.2 -0.06336
40.25 -0.06749
40.3 -0.06872
40.35 -0.06469
40.4 -0.05724
40.45 -0.04999
40.5 -0.04508
40.55 -0.04475
40.6 -0.04991
40.65 -0.05705
40.7 -0.06269
40.75 -0.06076
40.8 -0.05426
40.85 -0.04842
40.9 -0.04325
40.95 -0.04406
41 -0.04501
41.05 -0.05001
41.1 -0.05209
41.15 -0.05733
41.2 -0.0555
41.25 -0.05631
41.3 -0.05782
41.35 -0.05539
41.4 -0.05718
41.45 -0.05306
41.5 -0.0486
41.55 -0.04851
41.6 -0.04601
41.65 -0.04812
41.7 -0.04598
41.75 -0.04809
41.8 -0.04732
41.85 -0.04306
41.9 -0.04172
41.95 -0.04044
42 -0.04286
42.05 -0.04096
42.1 -0.04264
42.15 -0.03825
42.2 -0.033
42.25 -0.02979
42.3 -0.02807
42.35 -0.03062
42.4 -0.03323
42.45 -0.0333
42.5 -0.02891
42.55 -0.02663
42.6 -0.02309
42.65 -0.02263
42.7 -0.02589
42.75 -0.02565
42.8 -0.02209
42.85 -0.01847
42.9 -0.01401
42.95 -0.01
43 -0.00541
43.05 -0.0086
43.1 -0.0121
43.15 -0.01077
43.2 -0.00934
43.25 -0.00873
43.3 -0.00812
43.35 -0.0086
43.4 -0.01116
43.45 -0.00958
43.5 -0.00786
43.55 -0.01098
43.6 -0.01319
43.65 -0.02
43.7 -0.02371
43.75 -0.03057
43.8 -0.03736
43.85 -0.04459
43.9 -0.0517
43.95 -0.05248
44 -0.05003
44.05 -0.04305
44.1 -0.03923
44.15 -0.03634
44.2 -0.03037
44.25 -0.0284
44.3 -0.02736
44.35 -0.02586
44.4 -0.02072
44.45 -0.02017
44.5 -0.01782
44.55 -0.01635
44.6 -0.01498
44.65 -0.00983
44.7 -0.00749
44.75 -0.00738
44.8 -0.00935
44.85 -0.01444
44.9 -0.01481
44.95 -0.01774
45 -0.01853
45.05 -0.02274
45.1 -0.02529
45.15 -0.03003
45.2 -0.03458
45.25 -0.03229
45.3 -0.02493
45.35 -0.02279
45.4 -0.02256
45.45 -0.02372
45.5 -0.02449
45.55 -0.02763
45.6 -0.02535
45.65 -0.01883
45.7 -0.01255
45.75 -0.01048
45.8 -0.01265
45.85 -0.01106
45.9 -0.01267
45.95 -0.01021
46 -0.01079
46.05 -0.0119
46.1 -0.00811
46.15 -0.00967
46.2 -0.0095
46.25 -0.00882
46.3 -0.00779
46.35 -0.01096
46.4 -0.01441
46.45 -0.01434
46.5 -0.01547
46.55 -0.01687
46.6 -0.01329
46.65 -0.00922
46.7 -0.00884
46.75 -0.01267
46.8 -0.01404
46.85 -0.01153
46.9 -0.01238
46.95 -0.01657
47 -0.02273
47.05 -0.02176
47.1 -0.01626
47.15 -0.01381
47.2 -0.0142
47.25 -0.01704
47.3 -0.01512
47.35 -0.01342
47.4 -0.01327
47.45 -0.01303
47.5 -0.00867
47.55 -0.00686
47.6 -0.00532
47.65 -0.00012
47.7 0.00389
47.75 0.00722
47.8 0.01279
47.85 0.01875
47.9 0.01653
47.95 0.01113
48 0.00815
48.05 0.00406
48.1 0.00368
48.15 0.00404
48.2 0.00821
48.25 0.00613
48.3 0.00453
48.35 0.00704
48.4 0.01213
48.45 0.01537
48.5 0.01522
48.55 0.01237
48.6 0.00726
48.65 0.00407
48.7 0.00129
48.75 0.00158
48.8 -0.00057
48.85 -0.0049
48.9 -0.01191
48.95 -0.01384
49 -0.01812
49.05 -0.01557
49.1 -0.00948
49.15 -0.00885
49.2 -0.00894
49.25 -0.00426
49.3 -0.00352
49.35 -0.00119
49.4 -0.00238
49.45 -0.002
49.5 0.0001
49.55 -0.00339
49.6 -0.00549
49.65 -0.01059
49.7 -0.01383
49.75 -0.01775
49.8 -0.02124
49.85 -0.01867
49.9 -0.01946
49.95 -0.01798
50 -0.0189
50.05 -0.0225
50.1 -0.02465
50.15 -0.02398
50.2 -0.01767
50.25 -0.01603
50.3 -0.00966
50.35 -0.00144
50.4 0.00296
50.45 0.00685
50.5 0.0074
50.55 0.00391
50.6 0.00302
50.65 0.0003
50.7 -0.00267
50.75 -0.00529
50.8 -0.00562
50.85 -0.00652
50.9 -0.00995
50.95 -0.0085
51 -0.00706
51.05 -0.00742
51.1 -0.00821
51.15 -0.00413
51.2 0.00041
51.25 0.00091
51.3 -0.00271
51.35 -0.00784
51.4 -0.00892
51.45 -0.0097
51.5 -0.00706
51.55 -0.00104
51.6 0.00146
51.65 0.00682
51.7 0.00903
51.75 0.01292
51.8 0.01766
51.85 0.02164
51.9 0.02372
51.95 0.02501
52 0.0273
52.05 0.02246
52.1 0.02168
52.15 0.01731
52.2 0.01133
52.25 0.0066
52.3 0.00322
52.35 0.0022
52.4 -0.00103
52.45 -0.00755
52.5 -0.01422
52.55 -0.01862
52.6 -0.01555
52.65 -0.01623
52.7 -0.01264
52.75 -0.00842
52.8 -0.00242
52.85 0.00606
52.9 0.01436
52.95 0.01584
53 0.01947
53.05 0.01572
53.1 0.01375
53.15 0.01474
53.2 0.01542
53.25 0.01577
53.3 0.01133
53.35 0.00621
53.4 0.00458
53.45 0.00097
53.5 -0.00192
53.55 -0.00116
53.6 0.00366
53.65 0.00315
53.7 0.0027
53.75 0.0001
53.8 -0.00471
53.85 -0.00483
53.9 -0.00513
53.95 -0.0026
54 -0.0044
54.05 -0.00716
54.1 -0.00823
54.15 -0.00461
54.2 -0.00283
54.25 0.00147
54.3 0.00649
54.35 0.01367
54.4 0.01808
54.45 0.01896
54.5 0.02184
54.55 0.02349
54.6 0.0191
54.65 0.01448
54.7 0.0141
54.75 0.00927
54.8 0.0073
54.85 0.0016
54.9 0.00069
54.95 -0.00094
55 -0.00023
55.05 -0.00307
55.1 -0.00728
55.15 -0.00971
55.2 -0.00967
55.25 -0.00873
55.3 -0.0062
55.35 -0.00312
55.4 -0.0025
55.45 0.00182
55.5 0.00065
55.55 -0.00103
55.6 -0.00025
55.65 0.00406
55.7 0.00349
55.75 0.00061
55.8 -0.00308
55.85 -0.00871
55.9 -0.01205
55.95 -0.01319
56 -0.01202
56.05 -0.00987
56.1 -0.00877
56.15 -0.00621
56.2 -0.00601
56.25 -0.00975
56.3 -0.00865
56.35 -0.00958
56.4 -0.00878
56.45 -0.01072
56.5 -0.00713
56.55 -0.00304
56.6 -0.00209
56.65 -0.00065
56.7 0.00346
56.75 0.00226
56.8 0.00247
56.85 0.00679
56.9 0.00723
56.95 0.00986
57 0.0081
57.05 0.01037
57.1 0.01301
57.15 0.00879
57.2 0.00774
57.25 0.00176
57.3 -0.00639
57.35 -0.01137
57.4 -0.01241
57.45 -0.00787
57.5 0.00014
57.55 0.00601
57.6 0.00983
57.65 0.01249
57.7 0.0141
57.75 0.01208
57.8 0.00789
57.85 0.0063
57.9 0.00868
57.95 0.01232
58 0.01461
58.05 0.01227
58.1 0.01107
58.15 0.00648
58.2 0.00566
58.25 0.00288
58.3 -0.00106
58.35 -0.00839
58.4 -0.01568
58.45 -0.01488
58.5 -0.00991
58.55 -0.00555
58.6 -0.00673
58.65 -0.01176
58.7 -0.01718
58.75 -0.02047
58.8 -0.02538
58.85 -0.02779
58.9 -0.02321
58.95 -0.02011
59 -0.0156
59.05 -0.0147
59.1 -0.01541
59.15 -0.01442
59.2 -0.00893
59.25 -0.00291
59.3 0.00291
59.35 0.01027
59.4 0.01125
59.45 0.01363
59.5 0.01352
59.55 0.01055
59.6 0.0048
59.65 -0.00037
59.7 -0.00051
59.75 -0.00098
59.8 0.001
59.85 0.00102
59.9 0.00032
59.95 0.00306
60 0.0031
60.05 0.00192
60.1 -0.00293
60.15 -0.01046
60.2 -0.01212
60.25 -0.01185
60.3 -0.00752
60.35 -0.00632
60.4 -0.00769
60.45 -0.01264
60.5 -0.01928
60.55 -0.01954
60.6 -0.01409
60.65 -0.00867
60.7 0.00002
60.75 0.00458
60.8 0.00865
60.85 0.01312
60.9 0.01185
60.95 0.00958
61 0.00776
61.05 0.00771
61.1 0.00491
61.15 0.00545
61.2 0.00932
61.25 0.00925
61.3 0.01146
61.35 0.0118
61.4 0.01188
61.45 0.00867
61.5 0.00427
61.55 0.00108
61.6 -0.00405
61.65 -0.00601
61.7 -0.00611
61.75 -0.00746
61.8 -0.00333
61.85 0.00071
61.9 0.00443
61.95 0.00765
62 0.0064
62.05 0.00959
62.1 0.01275
62.15 0.00966
62.2 0.00358
62.25 -0.00342
62.3 -0.01027
62.35 -0.01383
62.4 -0.01652
62.45 -0.01662
62.5 -0.01874
62.55 -0.0143
62.6 -0.01313
62.65 -0.00792
62.7 -0.00066
62.75 -0.00013
62.8 0.00338
62.85 0.00964
62.9 0.01711
62.95 0.01841
63 0.0214
63.05 0.01692
63.1 0.01273
63.15 0.01187
63.2 0.01263
63.25 0.01228
63.3 0.00997
63.35 0.00786
63.4 0.00577
63.45 0.00564
63.5 0.00281
63.55 0.00017
63.6 -0.00035
63.65 -0.00067
63.7 -0.00143
63.75 0.00037
63.8 -0.00005
63.85 0.00087
63.9 0.00395
63.95 0.00827
64 0.01008
64.05 0.00653
64.1 0.0022
64.15 0.00353
64.2 0.00137
64.25 -0.00366
64.3 -0.01098
64.35 -0.01962
64.4 -0.02556
64.45 -0.03139
64.5 -0.03681
64.55 -0.03331
64.6 -0.02889
64.65 -0.02622
64.7 -0.02624
64.75 -0.02116
64.8 -0.01479
64.85 -0.01137
64.9 -0.00392
64.95 0.00234
65 0.00876
65.05 0.01092
65.1 0.0143
65.15 0.01677
65.2 0.01672
65.25 0.01198
65.3 0.01148
65.35 0.00653
65.4 0.00693
65.45 0.00947
65.5 0.00721
65.55 0.00743
65.6 0.01043
65.65 0.00913
65.7 0.01077
65.75 0.00822
65.8 0.00242
65.85 -0.00393
65.9 -0.00972
65.95 -0.01587
66 -0.01929
66.05 -0.02315
66.1 -0.02658
66.15 -0.03066
66.2 -0.02784
66.25 -0.02472
66.3 -0.02369
66.35 -0.02495
66.4 -0.02296
66.45 -0.01621
66.5 -0.01471
66.55 -0.0099
66.6 -0.00424
66.65 0.00096
66.7 0.00316
66.75 0.00328
66.8 -0.00041
66.85 -0.00366
66.9 -0.00721
66.95 -0.00784
67 -0.00437
67.05 0.00204
67.1 0.00696
67.15 0.0073
67.2 0.00874
67.25 0.0109
67.3 0.01241
67.35 0.01254
67.4 0.00936
67.45 0.00684
67.5 0.009
67.55 0.01075
67.6 0.0127
67.65 0.01457
67.7 0.01776
67.75 0.02054
67.8 0.01673
67.85 0.01235
67.9 0.01016
67.95 0.00746
68 0.00334
68.05 -0.00345
68.1 -0.00934
68.15 -0.0082
68.2 -0.0054
68.25 -0.00634
68.3 -0.00876
68.35 -0.01065
68.4 -0.01051
68.45 -0.00983
68.5 -0.00989
68.55 -0.01325
68.6 -0.01122
68.65 -0.00848
68.7 -0.00748
68.75 -0.01061
68.8 -0.01557
68.85 -0.01549
68.9 -0.0138
68.95 -0.00731
69 -0.00275
69.05 0.00485
69.1 0.005
69.15 0.00056
69.2 0.00012
69.25 -0.00055
69.3 -0.0045
69.35 -0.00801
69.4 -0.00485
69.45 -0.00103
69.5 -0.001
69.55 0.00344
69.6 0.01023
69.65 0.01779
69.7 0.02407
69.75 0.02869
69.8 0.02524
69.85 0.01768
69.9 0.00813
69.95 0.00497
70 0.00645
70.05 0.00663
70.1 0.00188
70.15 -0.0015
70.2 -0.00547
70.25 -0.00842
70.3 -0.01036
70.35 -0.01409
70.4 -0.01923
70.45 -0.02546
70.5 -0.02435
70.55 -0.02248
70.6 -0.0219
70.65 -0.01908
70.7 -0.01967
70.75 -0.02172
70.8 -0.01995
70.85 -0.01848
70.9 -0.01737
70.95 -0.01153
71 -0.01128
71.05 -0.00868
71.1 -0.00722
71.15 -0.00203
71.2 -0.00161
71.25 0.00313
71.3 0.01023
71.35 0.01475
71.4 0.01874
71.45 0.02448
71.5 0.02813
71.55 0.02736
71.6 0.02173
71.65 0.01713
71.7 0.01543
71.75 0.01588
71.8 0.01048
71.85 0.00836
71.9 0.00489
71.95 0.0048
72 0.00447
72.05 0.00796
72.1 0.00778
72.15 0.00416
72.2 0.00293
72.25 0.00376
72.3 0.00148
72.35 -0.00402
72.4 -0.00297
72.45 -0.00501
72.5 -0.00236
72.55 -0.00091
72.6 0.00441
72.65 0.01004
72.7 0.00903
72.75 0.00498
72.8 0.00627
72.85 0.01102
72.9 0.01291
72.95 0.01399
73 0.01522
73.05 0.01482
73.1 0.01095
73.15 0.00348
73.2 -0.00545
73.25 -0.01038
73.3 -0.00935
73.35 -0.01269
73.4 -0.01528
73.45 -0.01693
73.5 -0.01919
73.55 -0.02182
73.6 -0.02317
73.65 -0.02027
73.7 -0.01782
73.75 -0.01926
73.8 -0.02267
73.85 -0.02709
73.9 -0.02437
73.95 -0.0199
74 -0.0134
74.05 -0.0035
74.1 0.00058
74.15 -0.00035
74.2 0.00222
74.25 0.00641
74.3 0.00892
74.35 0.0095
74.4 0.01085
74.45 0.00907
74.5 0.00336
74.55 0.00242
74.6 0.00108
74.65 -0.0001
74.7 0.00345
74.75 0.00173
74.8 0.00063
74.85 0.00165
74.9 -0.00009
74.95 -0.00003
75 0.00056
75.05 -0.00337
75.1 -0.0088
75.15 -0.01397
75.2 -0.0186
75.25 -0.02401
75.3 -0.0224
75.35 -0.02271
75.4 -0.01985
75.45 -0.01621
75.5 -0.00887
75.55 -0.00113
75.6 0.00817
75.65 0.01156
75.7 0.01026
75.75 0.01081
75.8 0.0114
75.85 0.01021
75.9 0.01174
75.95 0.00986
76 0.01257
76.05 0.01488
76.1 0.01747
76.15 0.01678
76.2 0.0109
76.25 0.01068
76.3 0.01335
76.35 0.0133
76.4 0.01452
76.45 0.0163
76.5 0.01483
76.55 0.00988
76.6 0.00585
76.65 0.00433
76.7 0.00488
76.75 0.00511
76.8 0.00237
76.85 -0.00269
76.9 -0.0098
76.95 -0.01037
77 -0.0121
77.05 -0.01269
77.1 -0.00761
77.15 -0.00291
77.2 0.00466
77.25 0.01271
77.3 0.01833
77.35 0.01827
77.4 0.01878
77.45 0.01955
77.5 0.01802
77.55 0.01889
77.6 0.01709
77.65 0.01798
77.7 0.01959
77.75 0.01519
77.8 0.01521
77.85 0.01433
77.9 0.01486
77.95 0.0165
78 0.01534
78.05 0.01115
78.1 0.00604
78.15 0.00064
78.2 -0.0029
78.25 -0.00801
78.3 -0.00712
78.35 -0.00512
78.4 -0.00786
78.45 -0.00712
78.5 -0.00297
78.55 -0.00407
78.6 -0.00892
78.65 -0.01273
78.7 -0.0136
78.75 -0.0118
78.8 -0.00792
78.85 -0.00215
78.9 -0.00135
78.95 -0.00111
79 -0.00099
79.05 -0.00294
79.1 -0.00168
79.15 -0.00308
79.2 -0.00798
79.25 -0.00961
79.3 -0.00541
79.35 -0.00271
79.4 0.00008
79.45 0.00018
79.5 0.00125
79.55 0.00566
79.6 0.00746
79.65 0.0061
79.7 0.00511
79.75 0.00631
79.8 0.00738
79.85 0.00747
79.9 0.00399
79.95 0.00376
80 -0.0006
80.05 -0.00555
80.1 -0.00528
80.15 -0.0039
80.2 -0.00364
80.25 -0.00313
80.3 -0.00444
80.35 -0.00308
80.4 -0.00407
80.45 -0.00572
80.5 -0.00906
80.55 -0.01179
80.6 -0.00893
80.65 -0.00321
80.7 0.00003
80.75 -0.0021
80.8 -0.00479
80.85 -0.0088
80.9 -0.00723
80.95 -0.00755
81 -0.0059
81.05 -0.00668
81.1 -0.00353
81.15 0.00309
81.2 0.00353
81.25 0.00713
81.3 0.00461
81.35 0.0034
81.4 0.00407
81.45 0.00555
81.5 0.0098
81.55 0.00992
81.6 0.00603
81.65 0.00672
81.7 0.00717
81.75 0.00969
81.8 0.00568
81.85 -0.00198
81.9 -0.00537
81.95 -0.00271
82 0.00266
82.05 0.00771
82.1 0.00818
82.15 0.00675
82.2 0.00521
82.25 -0.00027
82.3 -0.00174
82.35 -0.00481
82.4 -0.0078
82.45 -0.01236
82.5 -0.01549
82.55 -0.0152
82.6 -0.01701
82.65 -0.01337
82.7 -0.01068
82.75 -0.01029
82.8 -0.00682
82.85 -0.00556
82.9 -0.00188
82.95 -0.00269
83 -0.00425
83.05 -0.0074
83.1 -0.00693
83.15 -0.0082
83.2 -0.01094
83.25 -0.01644
83.3 -0.01509
83.35 -0.01265
83.4 -0.00951
83.45 -0.01085
83.5 -0.00782
83.55 -0.00587
83.6 -0.00091
83.65 0.00172
83.7 0.00511
83.75 0.00887
83.8 0.01419
83.85 0.01867
83.9 0.01995
83.95 0.01933
84 0.01433
84.05 0.00872
84.1 0.00678
84.15 0.00626
84.2 0.00408
84.25 -0.00087
84.3 -0.00301
84.35 -0.00577
84.4 -0.00878
84.45 -0.00995
84.5 -0.00983
84.55 -0.00661
84.6 -0.00171
84.65 -0.00134
84.7 -0.00099
84.75 0.00384
84.8 0.00529
84.85 0.00543
84.9 0.0019
84.95 -0.0005
85 -0.00557
85.05 -0.00881
85.1 -0.00645
85.15 -0.00568
85.2 -0.00933
85.25 -0.01113
85.3 -0.01441
85.35 -0.01479
85.4 -0.01849
85.45 -0.01504
85.5 -0.00909
85.55 -0.00497
85.6 -0.00123
85.65 -0.00317
85.7 -0.00279
85.75 -0.00549
85.8 -0.00856
85.85 -0.00746
85.9 -0.00604
85.95 -0.00912
86 -0.01048
86.05 -0.01239
86.1 -0.01233
86.15 -0.0081
86.2 -0.0035
86.25 0.00225
86.3 0.00678
86.35 0.00719
86.4 0.00452
86.45 -0.00176
86.5 -0.00649
86.55 -0.00958
86.6 -0.0102
86.65 -0.01021
86.7 -0.01067
86.75 -0.01136
86.8 -0.01156
86.85 -0.01159
86.9 -0.01436
86.95 -0.01823
87 -0.02343
87.05 -0.0216
87.1 -0.01943
87.15 -0.01736
87.2 -0.01065
87.25 -0.00472
87.3 -0.00085
87.35 -0.00235
87.4 0.00176
87.45 0.00162
87.5 -0.00076
87.55 -0.00626
87.6 -0.00645
87.65 -0.00629
87.7 -0.00945
87.75 -0.01211
87.8 -0.00969
87.85 -0.00597
87.9 0.00132
87.95 0.00806
88 0.01184
88.05 0.01716
88.1 0.02283
88.15 0.02071
88.2 0.01423
88.25 0.01041
88.3 0.0076
88.35 0.00245
88.4 0.00388
88.45 0.00641
88.5 0.00889
88.55 0.01017
88.6 0.00871
88.65 0.00458
88.7 -0.00249
88.75 -0.00964
88.8 -0.01537
88.85 -0.01425
88.9 -0.00775
88.95 -0.00654
89 -0.00293
89.05 0.0021
89.1 0.00222
89.15 0.00396
89.2 0.00139
89.25 0.00134
89.3 0.00072
89.35 -0.00148
89.4 0.00003
89.45 0
89.5 0.00221
89.55 -0.00074
89.6 -0.00175
89.65 -0.00208
89.7 -0.00094
89.75 0.00277
89.8 0.00525
89.85 0.00515
89.9 0.0065
89.95 0.00575
90 0.00833
90.05 0.00989
90.1 0.00987
90.15 0.00497
90.2 0.00429
90.25 0.0079
90.3 0.0092
90.35 0.00946
90.4 0.00447
90.45 0.00372
90.5 0.00137
90.55 -0.00338
90.6 -0.00434
90.65 -0.00748
90.7 -0.00916
90.75 -0.00677
90.8 -0.00362
90.85 0.00215
90.9 0.00192
90.95 0.00528
91 0.00856
91.05 0.0084
91.1 0.00558
91.15 -0.00003
91.2 -0.00046
91.25 0.0023
91.3 0.00673
91.35 0.00621
91.4 0.00174
91.45 -0.00478
91.5 -0.01257
91.55 -0.01506
91.6 -0.01517
91.65 -0.0114
91.7 -0.00802
91.75 -0.00363
91.8 -0.00278
91.85 -0.00627
91.9 -0.00477
91.95 -0.00613
92 -0.00777
92.05 -0.00381
92.1 0.00375
92.15 0.0068
92.2 0.01028
92.25 0.0161
92.3 0.02148
92.35 0.02731
92.4 0.02743
92.45 0.0274
92.5 0.02184
92.55 0.01494
92.6 0.00692
92.65 -0.00017
92.7 -0.00804
92.75 -0.00835
92.8 -0.00536
92.85 -0.00259
92.9 0.00008
92.95 -0.00216
93 -0.00554
93.05 -0.00793
93.1 -0.0102
93.15 -0.00761
93.2 -0.00498
93.25 0.00061
93.3 0.00799
93.35 0.01429
93.4 0.0152
93.45 0.01212
93.5 0.00989
93.55 0.01087
93.6 0.00757
93.65 0.0057
93.7 0.00127
93.75 -0.00045
93.8 -0.00228
93.85 -0.00214
93.9 -0.00163
93.95 -0.00573
94 -0.00462
94.05 -0.00327
94.1 0.00244
94.15 0.00533
94.2 0.006
94.25 0.00242
94.3 -0.00126
94.35 -0.00138
94.4 -0.00046
94.45 0.00332
94.5 0.00979
94.55 0.0141
94.6 0.01251
94.65 0.01291
94.7 0.00995
94.75 0.00247
94.8 -0.00335
94.85 -0.00575
94.9 -0.0064
94.95 -0.00961
95 -0.01272
95.05 -0.01801
95.1 -0.02148
95.15 -0.0188
95.2 -0.01603
95.25 -0.00873
95.3 -0.00212
95.35 0.00478
95.4 0.009
95.45 0.01029
95.5 0.01295
95.55 0.01661
95.6 0.01626
95.65 0.01146
95.7 0.00519
95.75 -0.00233
95.8 -0.00366
95.85 -0.00304
95.9 -0.00544
95.95 -0.00432
96 -0.00774
96.05 -0.01301
96.1 -0.01815
96.15 -0.01696
96.2 -0.01297
96.25 -0.00544
96.3 0.00074
96.35 0.00666
96.4 0.01147
96.45 0.01472
96.5 0.01473
96.55 0.01278
96.6 0.01196
96.65 0.01105
96.7 0.00557
96.75 0.00065
96.8 -0.00345
96.85 -0.00453
96.9 -0.00809
96.95 -0.01242
97 -0.01531
97.05 -0.018
97.1 -0.02151
97.15 -0.02542
97.2 -0.02351
97.25 -0.02082
97.3 -0.02175
97.35 -0.02035
97.4 -0.01502
97.45 -0.00757
97.5 0.00015
97.55 0.00855
97.6 0.01143
97.65 0.00894
97.7 0.00319
97.75 -0.00352
97.8 -0.00607
97.85 -0.0079
97.9 -0.01163
97.95 -0.01076
98 -0.01216
98.05 -0.01369
98.1 -0.01353
98.15 -0.01404
98.2 -0.01497
98.25 -0.01831
98.3 -0.01679
98.35 -0.01773
98.4 -0.01778
98.45 -0.01634
98.5 -0.01771
98.55 -0.01652
98.6 -0.01095
98.65 -0.0033
98.7 0.00074
98.75 0.00672
98.8 0.00844
98.85 0.01082
98.9 0.00889
98.95 0.00826
99 0.00502
99.05 0.00253
99.1 -0.00105
99.15 -0.00086
99.2 -0.0003
99.25 -0.00001
99.3 -0.00386
99.35 -0.00359
99.4 -0.006
99.45 -0.0081
99.5 -0.01043
99.55 -0.00843
99.6 -0.00333
99.65 -0.00372
99.7 -0.00075
99.75 0.00094
99.8 0.00138
99.85 0.00002
99.9 0.00059
99.95 0.00116
