0 0
0.05 0.00222
0.1 0.01122
0.15 0.02184
0.2 0.0339
0.25 0.04399
0.3 0.05088
0.35 0.05478
0.4 0.0594
0.45 0.06509
0.5 0.0656
0.55 0.06606
0.6 0.0623
0.65 0.05648
0.7 0.05056
0.75 0.04428
0.8 0.03642
0.85 0.0301
0.9 0.02686
0.95 0.02224
1 0.01803
1.05 0.01427
1.1 0.01643
1.15 0.01665
1.2 0.01826
1.25 0.02391
1.3 0.02925
1.35 0.03599
1.4 0.03639
1.45 0.03618
1.5 0.03795
1.55 0.03918
1.6 0.03647
1.65 0.03392
1.7 0.03201
1.75 0.03158
1.8 0.0327
1.85 0.03128
1.9 0.02764
1.95 0.02744
2 0.02955
2.05 0.02933
2.1 0.02501
2.15 0.02626
2.2 0.02719
2.25 0.02597
2.3 0.02915
2.35 0.03442
2.4 0.03304
2.45 0.02776
2.5 0.02245
2.55 0.01962
2.6 0.01968
2.65 0.02326
2.7 0.02951
2.75 0.03168
2.8 0.03367
2.85 0.03224
2.9 0.03292
2.95 0.03479
3 0.03595
3.05 0.03493
3.1 0.03094
3.15 0.02361
3.2 0.02176
3.25 0.02309
3.3 0.0223
3.35 0.02077
3.4 0.01835
3.45 0.01259
3.5 0.01032
3.55 0.01314
3.6 0.01114
3.65 0.00745
3.7 0.00259
3.75 0.0018
3.8 0.00516
3.85 0.0104
3.9 0.01098
3.95 0.00919
4 0.01103
4.05 0.01399
4.1 0.01578
4.15 0.01685
4.2 0.01951
4.25 0.01755
4.3 0.01765
4.35 0.01382
4.4 0.01411
4.45 0.01118
4.5 0.0081
4.55 0.00972
4.6 0.01148
4.65 0.01438
4.7 0.01588
4.75 0.01595
4.8 0.01632
4.85 0.01384
4.9 0.00694
4.95 -0.0016
5 -0.0117
5.05 -0.01771
5.1 -0.01989
5.15 -0.02565
5.2 -0.02696
5.25 -0.03047
5.3 -0.03803
5.35 -0.04739
5.4 -0.05749
5.45 -0.06509
5.5 -0.07311
5.55 -0.08066
5.6 -0.08186
5.65 -0.08225
5.7 -0.078
5.75 -0.07885
5.8 -0.07669
5.85 -0.07345
5.9 -0.07195
5.95 -0.0681
6 -0.06575
6.05 -0.06283
6.1 -0.05497
6.15 -0.05049
6.2 -0.04759
6.25 -0.04616
6.3 -0.03882
6.35 -0.03369
6.4 -0.03048
6.45 -0.02676
6.5 -0.02167
6.55 -0.02043
6.6 -0.02024
6.65 -0.01766
6.7 -0.01475
6.75 -0.01251
6.8 -0.00827
6.85 -0.00351
6.9 -0.00023
6.95 -0.00121
7 -0.0037
7.05 -0.0013
7.1 0.00225
7.15 0.00197
7.2 0.00242
7.25 0.00131
7.3 -0.00104
7.35 -0.00215
7.4 -0.00289
7.45 -0.00107
7.5 0.00568
7.55 0.0148
7.6 0.02243
7.65 0.03264
7.7 0.04272
7.75 0.04875
7.8 0.05364
7.85 0.06025
7.9 0.06813
7.95 0.07585
8 0.08124
8.05 0.08469
8.1 0.08621
8.15 0.08233
8.2 0.08183
8.25 0.08362
8.3 0.08174
8.35 0.08391
8.4 0.08228
8.45 0.07864
8.5 0.08042
8.55 0.08024
8.6 0.08312
8.65 0.08799
8.7 0.08686
8.75 0.08274
8.8 0.07665
8.85 0.06849
8.9 0.06221
8.95 0.06108
9 0.06425
9.05 0.06377
9.1 0.06077
9.15 0.06259
9.2 0.06518
9.25 0.06801
9.3 0.06592
9.35 0.06541
9.4 0.06238
9.45 0.06254
9.5 0.06431
9.55 0.06247
9.6 0.05876
9.65 0.05665
9.7 0.05015
9.75 0.04276
9.8 0.03781
9.85 0.03418
9.9 0.03354
9.95 0.03594
10 0.03962
10.05 0.04011
10.1 0.03554
10.15 0.03196
10.2 0.03108
10.25 0.02872
10.3 0.02254
10.35 0.01429
10.4 0.00982
10.45 0.00756
10.5 0.00822
10.55 0.00559
10.6 0.00494
10.65 0.00531
10.7 0.00691
10.75 0.00553
10.8 0.00694
10.85 0.00875
10.9 0.00657
10.95 0.00532
11 0.0059
11.05 0.00698
11.1 0.00363
11.15 -0.00059
11.2 -0.00185
11.25 -0.00194
11.3 -0.00557
11.35 -0.00629
11.4 -0.00748
11.45 -0.01094
11.5 -0.01592
11.55 -0.02146
11.6 -0.02242
11.65 -0.02102
11.7 -0.01561
11.75 -0.01509
11.8 -0.01275
11.85 -0.01025
11.9 -0.00527
11.95 -0.00192
12 -0.00457
12.05 -0.00543
12.1 -0.00642
12.15 -0.01018
12.2 -0.01186
12.25 -0.01301
12.3 -0.01115
12.35 -0.0111
12.4 -0.01428
12.45 -0.01865
12.5 -0.02015
12.55 -0.02413
12.6 -0.02535
12.65 -0.02738
12.7 -0.02796
12.75 -0.0259
12.8 -0.02103
12.85 -0.01502
12.9 -0.00979
12.95 -0.00334
13 0.00327
13.05 0.00648
13.1 0.00569
13.15 0.00539
13.2 0.0032
13.25 -0.0026
13.3 -0.00532
13.35 -0.01016
13.4 -0.0111
13.45 -0.01145
13.5 -0.00978
13.55 -0.01249
13.6 -0.0122
13.65 -0.01284
13.7 -0.01233
13.75 -0.00829
13.8 -0.00481
13.85 -0.00374
13.9 -0.00159
13.95 -0.00443
14 -0.00269
14.05 -0.0007
14.1 -0.00156
14.15 -0.00182
14.2 0.00001
14.25 -0.00317
14.3 -0.00636
14.35 -0.01258
14.4 -0.02017
14.45 -0.02231
14.5 -0.01948
14.55 -0.01632
14.6 -0.01317
14.65 -0.00973
14.7 -0.00825
14.75 -0.00647
14.8 -0.00477
14.85 -0.00729
14.9 -0.00965
14.95 -0.00816
15 -0.00442
15.05 -0.00379
15.1 -0.00125
15.15 0.00287
15.2 0.00457
15.25 0.00421
15.3 0.00503
15.35 0.00194
15.4 -0.00342
15.45 -0.00825
15.5 -0.00707
15.55 -0.00708
15.6 -0.01086
15.65 -0.01278
15.7 -0.01154
15.75 -0.01238
15.8 -0.01341
15.85 -0.01181
15.9 -0.01238
15.95 -0.00812
16 -0.0065
16.05 -0.00277
16.1 -0.00064
16.15 -0.00175
16.2 -0.00306
16.25 -0.00211
16.3 -0.0049
16.35 -0.00928
16.4 -0.01022
16.45 -0.00945
16.5 -0.01138
16.55 -0.00824
16.6 -0.00448
16.65 -0.00157
16.7 0.00018
16.75 0.00161
16.8 0.00607
16.85 0.00555
16.9 0.00141
16.95 -0.00191
17 -0.0067
17.05 -0.01234
17.1 -0.01377
17.15 -0.01227
17.2 -0.0136
17.25 -0.01074
17.3 -0.00939
17.35 -0.01038
17.4 -0.00829
17.45 -0.00555
17.5 -0.00642
17.55 -0.00595
17.6 -0.00552
17.65 -0.00253
17.7 0.00284
17.75 0.00257
17.8 0.00245
17.85 0.00156
17.9 -0.00304
17.95 -0.003
18 0.00118
18.05 0.00119
18.1 0.0038
18.15 0.00904
18.2 0.00754
18.25 0.00472
18.3 0.00451
18.35 0.00395
18.4 0.00674
18.45 0.01183
18.5 0.01255
18.55 0.01221
18.6 0.00966
18.65 0.00492
18.7 -0.00197
18.75 -0.00315
18.8 -0.00178
18.85 0.00156
18.9 0.00294
18.95 0.00228
19 0.00462
19.05 0.00193
19.1 0.00012
19.15 -0.00059
19.2 0.00058
19.25 0.00348
19.3 0.0086
19.35 0.0147
19.4 0.01803
19.45 0.01501
19.5 0.01424
19.55 0.00859
19.6 0.00501
19.65 0.00418
19.7 0.00025
19.75 0.00065
19.8 0.00231
19.85 0.00363
19.9 0.00401
19.95 0.00406
20 0.003
20.05 0.00472
20.1 0.00644
20.15 0.0041
20.2 0.00278
20.25 0.00373
20.3 0.00674
20.35 0.00597
20.4 0.00592
20.45 0.00114
20.5 -0.00276
20.55 -0.00303
20.6 -0.00028
20.65 0.00435
20.7 0.004
20.75 -0.00102
20.8 -0.00157
20.85 -0.0006
20.9 0.00204
20.95 0.00502
21 0.00501
21.05 0.00392
21.1 0.00461
21.15 0.00497
21.2 0.00618
21.25 0.00639
21.3 0.00796
21.35 0.00577
21.4 0.00022
21.45 -0.00502
21.5 -0.00617
21.55 -0.00885
21.6 -0.00989
21.65 -0.01107
21.7 -0.01002
21.75 -0.01251
21.8 -0.01123
21.85 -0.00632
21.9 0.00066
21.95 0.00306
22 0.00618
22.05 0.00541
22.1 0.00714
22.15 0.00679
22.2 0.00143
22.25 -0.00129
22.3 -0.00082
22.35 0.00111
22.4 0.00089
22.45 0.00081
22.5 -0.00369
22.55 -0.00312
22.6 -0.00042
22.65 0.00264
22.7 0.00465
22.75 0.0015
22.8 -0.0051
22.85 -0.00868
22.9 -0.00767
22.95 -0.00519
23 -0.0016
23.05 0.00195
23.1 0.00419
23.15 0.00147
23.2 -0.00461
23.25 -0.00559
23.3 -0.00315
23.35 -0.00568
23.4 -0.00611
23.45 -0.00739
23.5 -0.01103
23.55 -0.01136
23.6 -0.0126
23.65 -0.01314
23.7 -0.01359
23.75 -0.01463
23.8 -0.01816
23.85 -0.01573
23.9 -0.01173
23.95 -0.00824
24 -0.0019
24.05 0.00205
24.1 0.00126
24.15 0.00125
24.2 0.00333
24.25 0.0042
24.3 0.00474
24.35 0.00575
24.4 0.00585
24.45 0.00243
24.5 0.00116
24.55 0.0008
24.6 -0.0016
24.65 -0.0019
24.7 -0.00247
24.75 -0.00627
24.8 -0.00784
24.85 -0.00727
24.9 -0.0033
24.95 -0.0003
25 -0.00154
25.05 -0.00559
25.1 -0.00627
25.15 -0.00402
25.2 -0.00544
25.25 -0.00393
25.3 -0.00544
25.35 -0.00529
25.4 -0.0023
25.45 -0.00457
25.5 -0.00388
25.55 -0.00636
25.6 -0.01142
25.65 -0.01297
25.7 -0.01537
25.75 -0.0168
25.8 -0.01248
25.85 -0.00871
25.9 -0.00324
25.95 -0.00233
26 -0.00019
26.05 0.00384
26.1 0.00727
26.15 0.01238
26.2 0.01572
26.25 0.01657
26.3 0.01241
26.35 0.00958
26.4 0.01073
26.45 0.01362
26.5 0.01563
26.55 0.01559
26.6 0.01725
26.65 0.01768
26.7 0.01567
26.75 0.0118
26.8 0.00814
26.85 0.00288
26.9 -0.00083
26.95 -0.00447
27 -0.01071
27.05 -0.01227
27.1 -0.00992
27.15 -0.0056
27.2 0.00078
27.25 0.00229
27.3 0.00389
27.35 0.00639
27.4 0.00914
27.45 0.00497
27.5 0.00243
27.55 -0.00372
27.6 -0.0097
27.65 -0.01706
27.7 -0.02245
27.75 -0.0279
27.8 -0.0337
27.85 -0.04263
27.9 -0.05465
27.95 -0.06604
28 -0.07474
28.05 -0.08634
28.1 -0.10389
28.15 -0.1252
28.2 -0.14388
28.25 -0.1688
28.3 -0.19345
28.35 -0.22283
28.4 -0.2528
28.45 -0.28845
28.5 -0.32866
28.55 -0.37698
28.6 -0.43319
28.65 -0.49259
28.7 -0.55984
28.75 -0.62721
28.8 -0.6962
28.85 -0.77072
28.9 -0.85144
28.95 -0.94218
29 -1.04037
29.05 -1.13655
29.1 -1.23875
29.15 -1.33916
29.2 -1.44354
29.25 -1.54281
29.3 -1.64297
29.35 -1.74151
29.4 -1.83202
29.45 -1.92109
29.5 -2.00543
29.55 -2.08347
29.6 -2.15258
29.65 -2.20796
29.7 -2.2533
29.75 -2.28949
29.8 -2.31328
29.85 -2.32036
29.9 -2.31824
29.95 -2.29815
30 -2.26182
30.05 -2.21575
30.1 -2.15664
30.15 -2.08678
30.2 -2.0022
30.25 -1.91159
30.3 -1.80673
30.35 -1.6975
30.4 -1.57531
30.45 -1.44433
30.5 -1.31097
30.55 -1.16941
30.6 -1.02541
30.65 -0.87335
30.7 -0.71648
30.75 -0.55597
30.8 -0.39693
30.85 -0.2436
30.9 -0.08983
30.95 0.05878
31 0.20182
31.05 0.34044
31.1 0.47859
31.15 0.61394
31.2 0.74146
31.25 0.8657
31.3 0.98601
31.35 1.09718
31.4 1.19889
31.45 1.29199
31.5 1.37942
31.55 1.45539
31.6 1.52409
31.65 1.58819
31.7 1.64444
31.75 1.69275
31.8 1.73902
31.85 1.77886
31.9 1.81489
31.95 1.84784
32 1.87404
32.05 1.89414
32.1 1.90987
32.15 1.92016
32.2 1.9241
32.25 1.92508
32.3 1.92106
32.35 1.91773
32.4 1.91365
32.45 1.90501
32.5 1.89529
32.55 1.88609
32.6 1.87735
32.65 1.86683
32.7 1.85366
32.75 1.83855
32.8 1.8185
32.85 1.79992
32.9 1.77816
32.95 1.75433
33 1.7316
33.05 1.705
33.1 1.67718
33.15 1.65282
33.2 1.62946
33.25 1.59848
33.3 1.563
33.35 1.52493
33.4 1.49033
33.45 1.45411
33.5 1.41666
33.55 1.37681
33.6 1.3344
33.65 1.29513
33.7 1.25834
33.75 1.22083
33.8 1.18133
33.85 1.14164
33.9 1.09668
33.95 1.05472
34 1.01208
34.05 0.97153
34.1 0.92543
34.15 0.87812
34.2 0.83224
34.25 0.78382
34.3 0.7336
34.35 0.68357
34.4 0.63785
34.45 0.59273
34.5 0.54957
34.55 0.50763
34.6 0.46625
34.65 0.42643
34.7 0.3857
34.75 0.34542
34.8 0.31184
34.85 0.27743
34.9 0.24483
34.95 0.21145
35 0.17973
35.05 0.14784
35.1 0.1201
35.15 0.09892
35.2 0.08089
35.25 0.0637
35.3 0.04384
35.35 0.02079
35.4 0.00143
35.45 -0.01616
35.5 -0.03882
35.55 -0.05791
35.6 -0.07954
35.65 -0.10243
35.7 -0.12481
35.75 -0.14572
35.8 -0.16013
35.85 -0.17374
35.9 -0.18416
35.95 -0.19779
36 -0.21294
36.05 -0.22637
36.1 -0.23534
36.15 -0.24323
36.2 -0.25054
36.25 -0.25652
36.3 -0.26164
36.35 -0.26994
36.4 -0.27775
36.45 -0.28633
36.5 -0.29547
36.55 -0.30604
36.6 -0.31257
36.65 -0.31468
36.7 -0.31745
36.75 -0.32018
36.8 -0.31983
36.85 -0.32022
36.9 -0.32111
36.95 -0.31871
37 -0.31955
37.05 -0.32249
37.1 -0.32378
37.15 -0.32393
37.2 -0.32243
37.25 -0.31785
37.3 -0.31617
37.35 -0.31632
37.4 -0.31793
37.45 -0.31467
37.5 -0.31305
37.55 -0.31353
37.6 -0.31581
37.65 -0.3133
37.7 -0.30889
37.75 -0.30165
37.8 -0.29759
37.85 -0.29797
37.9 -0.29714
37.95 -0.29109
38 -0.28605
38.05 -0.285
38.1 -0.28393
38.15 -0.27844
38.2 -0.27308
38.25 -0.26902
38.3 -0.26233
38.35 -0.25675
38.4 -0.25341
38.45 -0.24828
38.5 -0.2427
38.55 -0.23892
38.6 -0.23226
38.65 -0.22677
38.7 -0.22451
38.75 -0.22228
38.8 -0.22134
38.85 -0.21918
38.9 -0.21703
38.95 -0.21817
39 -0.21533
39.05 -0.20918
39.1 -0.20445
39.15 -0.1984
39.2 -0.19664
39.25 -0.19465
39.3 -0.19384
39.35 -0.18948
39.4 -0.1868
39.45 -0.18249
39.5 -0.18087
39.55 -0.18244
39.6 -0.18317
39.65 -0.18499
39.7 -0.18142
39.75 -0.17993
39.8 -0.18147
39.85 -0.18235
39.9 -0.17898
39.95 -0.17606
40 -0.17083
40.05 -0.1681
40.1 -0.16284
40.15 -0.15567
40.2 -0.15202
40.25 -0.14502
40.3 -0.1419
40.35 -0.13843
40.4 -0.13966
40.45 -0.14196
40.5 -0.14268
40.55 -0.13967
40.6 -0.14026
40.65 -0.13738
40.7 -0.13687
40.75 -0.13454
40.8 -0.12908
40.85 -0.12845
40.9 -0.12447
40.95 -0.11899
41 -0.11596
41.05 -0.11227
41.1 -0.10985
41.15 -0.10503
41.2 -0.10179
41.25 -0.09762
41.3 -0.09241
41.35 -0.08683
41.4 -0.0866
41.45 -0.08859
41.5 -0.09344
41.55 -0.09633
41.6 -0.10028
41.65 -0.1042
41.7 -0.10301
41.75 -0.09812
41.8 -0.09528
41.85 -0.09679
41.9 -0.09511
41.95 -0.09249
42 -0.09353
42.05 -0.09294
42.1 -0.09507
42.15 -0.094
42.2 -0.09609
42.25 -0.09304
42.3 -0.09228
42.35 -0.09204
42.4 -0.0916
42.45 -0.09142
42.5 -0.09083
42.55 -0.08716
42.6 -0.08259
42.65 -0.07477
42.7 -0.06894
42.75 -0.06413
42.8 -0.06326
42.85 -0.05943
42.9 -0.05388
42.95 -0.05285
43 -0.05025
43.05 -0.05004
43.1 -0.05242
43.15 -0.05513
43.2 -0.05633
43.25 -0.06111
43.3 -0.06395
43.35 -0.06161
43.4 -0.06246
43.45 -0.05994
43.5 -0.05569
43.55 -0.05264
43.6 -0.05397
43.65 -0.05687
43.7 -0.05759
43.75 -0.05938
43.8 -0.06109
43.85 -0.06468
43.9 -0.06307
43.95 -0.06006
44 -0.05737
44.05 -0.05218
44.1 -0.04869
44.15 -0.04324
44.2 -0.04373
44.25 -0.04475
44.3 -0.04623
44.35 -0.04667
44.4 -0.0428
44.45 -0.04387
44.5 -0.04146
44.55 -0.04176
44.6 -0.04136
44.65 -0.03763
44.7 -0.03565
44.75 -0.0376
44.8 -0.04174
44.85 -0.04423
44.9 -0.04857
44.95 -0.05088
45 -0.04692
45.05 -0.04059
45.1 -0.03542
45.15 -0.03086
45.2 -0.02677
45.25 -0.02339
45.3 -0.02248
45.35 -0.02473
45.4 -0.02647
45.45 -0.0253
45.5 -0.02592
45.55 -0.02486
45.6 -0.02542
45.65 -0.02177
45.7 -0.01874
45.75 -0.01434
45.8 -0.01233
45.85 -0.01396
45.9 -0.01969
45.95 -0.02683
46 -0.03155
46.05 -0.03444
46.1 -0.03911
46.15 -0.0428
46.2 -0.03973
46.25 -0.03621
46.3 -0.03497
46.35 -0.03662
46.4 -0.03339
46.45 -0.03036
46.5 -0.02578
46.55 -0.02289
46.6 -0.01763
46.65 -0.01079
46.7 -0.00424
46.75 -0.00125
46.8 -0.00024
46.85 0.00183
46.9 0.00175
46.95 -0.00087
47 -0.00574
47.05 -0.0095
47.1 -0.01499
47.15 -0.01713
47.2 -0.01813
47.25 -0.02049
47.3 -0.02392
47.35 -0.02931
47.4 -0.03026
47.45 -0.02762
47.5 -0.02088
47.55 -0.01776
47.6 -0.01944
47.65 -0.01701
47.7 -0.01447
47.75 -0.01409
47.8 -0.01277
47.85 -0.01036
47.9 -0.01183
47.95 -0.01117
48 -0.00862
48.05 -0.00581
48.1 -0.00419
48.15 -0.0048
48.2 -0.00256
48.25 -0.00437
48.3 -0.00337
48.35 -0.00161
48.4 -0.00141
48.45 -0.00562
48.5 -0.00656
48.55 -0.00973
48.6 -0.01352
48.65 -0.01488
48.7 -0.01391
48.75 -0.01206
48.8 -0.01204
48.85 -0.01578
48.9 -0.0139
48.95 -0.01444
49 -0.0136
49.05 -0.01459
49.1 -0.01558
49.15 -0.0181
49.2 -0.02013
49.25 -0.01995
49.3 -0.02247
49.35 -0.026
49.4 -0.02859
49.45 -0.02701
49.5 -0.02581
49.55 -0.02444
49.6 -0.02445
49.65 -0.0195
49.7 -0.01126
49.75 -0.00399
49.8 0.00174
49.85 0.00091
49.9 -0.00282
49.95 -0.00555
50 -0.0065
50.05 -0.01009
50.1 -0.01117
50.15 -0.01084
50.2 -0.01419
50.25 -0.01892
50.3 -0.01984
50.35 -0.02185
50.4 -0.0239
50.45 -0.0269
50.5 -0.03008
50.55 -0.02791
50.6 -0.02548
50.65 -0.02149
50.7 -0.01355
50.75 -0.00508
50.8 -0.003
50.85 -0.00247
50.9 -0.00592
50.95 -0.01164
51 -0.01558
51.05 -0.01921
51.1 -0.02103
51.15 -0.02009
51.2 -0.01758
51.25 -0.0155
51.3 -0.01351
51.35 -0.00727
51.4 -0.00497
51.45 -0.00209
51.5 -0.00192
51.55 -0.0006
51.6 0.00093
51.65 0.00007
51.7 -0.00406
51.75 -0.00768
51.8 -0.00659
51.85 -0.00849
51.9 -0.00643
51.95 -0.00526
52 -0.00011
52.05 0.00194
52.1 0.00459
52.15 0.00662
52.2 0.00617
52.25 0.00535
52.3 0.00621
52.35 0.00548
52.4 0.00275
52.45 -0.00048
52.5 -0.00177
52.55 0.00054
52.6 0.00503
52.65 0.00683
52.7 0.00982
52.75 0.00836
52.8 0.00359
52.85 0.00351
52.9 0.00029
52.95 -0.0033
53 -0.00767
53.05 -0.00873
53.1 -0.00548
53.15 0.00043
53.2 0.00778
53.25 0.01109
53.3 0.00825
53.35 0.00891
53.4 0.00926
53.45 0.00722
53.5 0.00148
53.55 0.00116
53.6 -0.00044
53.65 -0.00009
53.7 -0.0039
53.75 -0.00335
53.8 0.00124
53.85 0.00393
53.9 0.00379
53.95 0.00424
54 0.0043
54.05 0.00173
54.1 -0.00244
54.15 -0.00402
54.2 -0.00559
54.25 -0.00269
54.3 -0.00142
54.35 -0.00005
54.4 0.00122
54.45 0.00118
54.5 0.00103
54.55 0.00488
54.6 0.00405
54.65 0.00023
54.7 0.00125
54.75 0.00223
54.8 0.00307
54.85 0.00163
54.9 0.00137
54.95 -0.00009
55 -0.00363
55.05 -0.00433
55.1 -0.00757
55.15 -0.01222
55.2 -0.01101
55.25 -0.01301
55.3 -0.01279
55.35 -0.0103
55.4 -0.00532
55.45 -0.00508
55.5 -0.00476
55.55 -0.00478
55.6 -0.00098
55.65 0.0031
55.7 0.0087
55.75 0.01135
55.8 0.01122
55.85 0.00768
55.9 0.00174
55.95 -0.00554
56 -0.01299
56.05 -0.01399
56.1 -0.01539
56.15 -0.01711
56.2 -0.01974
56.25 -0.017
56.3 -0.01356
56.35 -0.00642
56.4 -0.0024
56.45 -0.00207
56.5 0.0023
56.55 0.0037
56.6 0.00473
56.65 0.00336
56.7 0.00073
56.75 0.00112
56.8 0.00528
56.85 0.00356
56.9 0.00499
56.95 0.00851
57 0.01115
57.05 0.01342
57.1 0.01406
57.15 0.01422
57.2 0.01297
57.25 0.00956
57.3 0.00589
57.35 0.0001
57.4 -0.00158
57.45 -0.00523
57.5 -0.00367
57.55 -0.00161
57.6 -0.00144
57.65 0.00206
57.7 0.00251
57.75 0.00113
57.8 0.0006
57.85 -0.00122
57.9 -0.0039
57.95 -0.004
58 -0.00462
58.05 -0.00333
58.1 -0.00475
58.15 -0.00326
58.2 -0.00045
58.25 0.00452
58.3 0.01014
58.35 0.01519
58.4 0.01438
58.45 0.01015
58.5 0.00898
58.55 0.00793
58.6 0.00262
58.65 -0.00022
58.7 -0.00164
58.75 -0.0037
58.8 -0.00201
58.85 -0.00364
58.9 -0.00062
58.95 -0.00037
59 0.00008
59.05 -0.00277
59.1 -0.00791
59.15 -0.00881
59.2 -0.01105
59.25 -0.01024
59.3 -0.00876
59.35 -0.00323
59.4 -0.00072
59.45 0.00494
59.5 0.01208
59.55 0.01702
59.6 0.01506
59.65 0.01395
59.7 0.01232
59.75 0.01426
59.8 0.01245
59.85 0.00681
59.9 0.00618
59.95 0.00484
60 0.00579
60.05 0.00435
60.1 0.00126
60.15 -0.00335
60.2 -0.00956
60.25 -0.01346
60.3 -0.01593
60.35 -0.01943
60.4 -0.0237
60.45 -0.02487
60.5 -0.01953
60.55 -0.01467
60.6 -0.01343
60.65 -0.00918
60.7 -0.00401
60.75 0.00034
60.8 -0.00008
60.85 0.00238
60.9 0.00726
60.95 0.01308
61 0.01378
61.05 0.01519
61.1 0.01213
61.15 0.01307
61.2 0.01376
61.25 0.01667
61.3 0.02036
61.35 0.0207
61.4 0.01667
61.45 0.01093
61.5 0.00879
61.55 0.00726
61.6 0.00724
61.65 0.00497
61.7 0.00624
61.75 0.00859
61.8 0.00818
61.85 0.00715
61.9 0.00258
61.95 0.00157
62 0.00337
62.05 0.00419
62.1 0.00229
62.15 -0.00297
62.2 -0.00704
62.25 -0.00792
62.3 -0.00813
62.35 -0.00513
62.4 -0.00363
62.45 -0.00181
62.5 -0.00378
62.55 -0.00314
62.6 -0.00255
62.65 -0.00325
62.7 -0.00428
62.75 -0.00717
62.8 -0.01192
62.85 -0.01411
62.9 -0.01403
62.95 -0.01599
63 -0.01589
63.05 -0.01391
63.1 -0.01497
63.15 -0.01761
63.2 -0.01796
63.25 -0.01513
63.3 -0.00874
63.35 -0.006
63.4 -0.00606
63.45 -0.00278
63.5 0.00247
63.55 0.00183
63.6 0.00418
63.65 0.00162
63.7 -0.00174
63.75 -0.00342
63.8 -0.00507
63.85 -0.00379
63.9 -0.00123
63.95 0.00211
64 0.00151
64.05 0.00269
64.1 0.0068
64.15 0.0127
64.2 0.01615
64.25 0.01914
64.3 0.0196
64.35 0.0201
64.4 0.02245
64.45 0.02196
64.5 0.01603
64.55 0.00993
64.6 0.00583
64.65 0.00658
64.7 0.00569
64.75 0.00824
64.8 0.01
64.85 0.00743
64.9 0.00582
64.95 0.00284
65 -0.00297
65.05 -0.00264
65.1 -0.00234
65.15 0.00179
65.2 0.0031
65.25 0.00318
65.3 0.00512
65.35 0.00224
65.4 0.00368
65.45 0.00173
65.5 -0.00162
65.55 -0.0036
65.6 -0.00859
65.65 -0.01008
65.7 -0.01235
65.75 -0.01272
65.8 -0.01275
65.85 -0.00961
65.9 -0.01014
65.95 -0.00672
66 -0.00202
66.05 -0.00021
66.1 0.00106
66.15 0.00065
66.2 0.00092
66.25 0.00487
66.3 0.00589
66.35 0.0024
66.4 -0.00263
66.45 -0.00421
66.5 -0.00234
66.55 -0.00114
66.6 -0.0014
66.65 -0.00152
66.7 -0.00491
66.75 -0.0106
66.8 -0.0153
66.85 -0.01522
66.9 -0.0131
66.95 -0.01208
67 -0.00707
67.05 -0.00103
67.1 0.0045
67.15 0.00736
67.2 0.00791
67.25 0.00531
67.3 0.00156
67.35 -0.0036
67.4 -0.00529
67.45 -0.00965
67.5 -0.01214
67.55 -0.01345
67.6 -0.01395
67.65 -0.01691
67.7 -0.02072
67.75 -0.02333
67.8 -0.02645
67.85 -0.02823
67.9 -0.02638
67.95 -0.02068
68 -0.0139
68.05 -0.0093
68.1 -0.00355
68.15 -0.00315
68.2 -0.00263
68.25 -0.00232
68.3 -0.00478
68.35 -0.00948
68.4 -0.0075
68.45 -0.00764
68.5 -0.0043
68.55 -0.00216
68.6 -0.00169
68.65 0.00181
68.7 0.00267
68.75 0.00232
68.8 -0.00133
68.85 -0.00454
68.9 -0.00241
68.95 -0.00076
69 -0.00038
69.05 -0.00201
69.1 -0.00314
69.15 -0.00442
69.2 -0.0085
69.25 -0.00874
69.3 -0.00729
69.35 -0.00186
69.4 0.00587
69.45 0.01123
69.5 0.0174
69.55 0.01798
69.6 0.0203
69.65 0.01691
69.7 0.01594
69.75 0.01626
69.8 0.0179
69.85 0.0146
69.9 0.00958
69.95 0.00705
70 0.00099
70.05 -0.00691
70.1 -0.0154
70.15 -0.02131
70.2 -0.02694
70.25 -0.03068
70.3 -0.02946
70.35 -0.02977
70.4 -0.02606
70.45 -0.01748
70.5 -0.01179
70.55 -0.0043
70.6 0.00395
70.65 0.00816
70.7 0.00655
70.75 0.00908
70.8 0.01371
70.85 0.01442
70.9 0.01383
70.95 0.01632
71 0.01834
71.05 0.01612
71.1 0.01328
71.15 0.01019
71.2 0.00823
71.25 0.00237
71.3 -0.0044
71.35 -0.00806
71.4 -0.00928
71.45 -0.0109
71.5 -0.01195
71.55 -0.01537
71.6 -0.01537
71.65 -0.016
71.7 -0.01156
71.75 -0.01111
71.8 -0.01049
71.85 -0.00601
71.9 -0.00411
71.95 -0.00164
72 0.00201
72.05 0.00367
72.1 0.00786
72.15 0.01256
72.2 0.01609
72.25 0.0183
72.3 0.01994
72.35 0.0228
72.4 0.02617
72.45 0.02387
72.5 0.01854
72.55 0.01508
72.6 0.01255
72.65 0.00857
72.7 0.00196
72.75 -0.00514
72.8 -0.00704
72.85 -0.00762
72.9 -0.01131
72.95 -0.0143
73 -0.01852
73.05 -0.02186
73.1 -0.02207
73.15 -0.01988
73.2 -0.01722
73.25 -0.01046
73.3 -0.00729
73.35 -0.00731
73.4 -0.0072
73.45 -0.00827
73.5 -0.00437
73.55 -0.00385
73.6 0.00072
73.65 0.00718
73.7 0.01034
73.75 0.01452
73.8 0.01325
73.85 0.00881
73.9 0.00365
73.95 0.00347
74 0.00504
74.05 0.00869
74.1 0.01179
74.15 0.01391
74.2 0.01553
74.25 0.01654
74.3 0.01728
74.35 0.01408
74.4 0.01193
74.45 0.00821
74.5 0.00611
74.55 0.00361
74.6 -0.00067
74.65 -0.00338
74.7 -0.0047
74.75 -0.00826
74.8 -0.01365
74.85 -0.01322
74.9 -0.00944
74.95 -0.00216
75 0.00667
75.05 0.01195
75.1 0.01554
75.15 0.01295
75.2 0.01121
75.25 0.00798
75.3 0.00557
75.35 -0.00032
75.4 -0.0009
75.45 -0.00234
75.5 -0.00666
75.55 -0.01001
75.6 -0.00813
75.65 -0.00371
75.7 0
75.75 0.00041
75.8 -0.00066
75.85 -0.00078
75.9 -0.00073
75.95 -0.00308
76 -0.00318
76.05 -0.00705
76.1 -0.01234
76.15 -0.01061
76.2 -0.00994
76.25 -0.00733
76.3 -0.00341
76.35 -0.00068
76.4 0.00474
76.45 0.0096
76.5 0.01392
76.55 0.01528
76.6 0.0146
76.65 0.00981
76.7 0.00214
76.75 -0.00224
76.8 -0.00709
76.85 -0.01133
76.9 -0.01526
76.95 -0.01914
77 -0.01886
77.05 -0.01939
77.1 -0.02174
77.15 -0.02139
77.2 -0.0179
77.25 -0.01457
77.3 -0.00784
77.35 -0.00019
77.4 0.0074
77.45 0.01044
77.5 0.01481
77.55 0.01365
77.6 0.0147
77.65 0.01369
77.7 0.01437
77.75 0.01477
77.8 0.01681
77.85 0.01534
77.9 0.01449
77.95 0.01551
78 0.01427
78.05 0.01484
78.1 0.0122
78.15 0.00891
78.2 0.00548
78.25 0.00449
78.3 0.00355
78.35 0.00459
78.4 0.0046
78.45 0.00168
78.5 0.00262
78.55 0.00044
78.6 -0.00187
78.65 -0.00724
78.7 -0.00994
78.75 -0.01129
78.8 -0.01264
78.85 -0.00859
78.9 -0.00291
78.95 0.00031
79 0.00095
79.05 0.00201
79.1 0.00625
79.15 0.01009
79.2 0.01095
79.25 0.01321
79.3 0.01654
79.35 0.01693
79.4 0.01956
79.45 0.01922
79.5 0.01793
79.55 0.01709
79.6 0.01424
79.65 0.01091
79.7 0.00727
79.75 0.0039
79.8 0.00338
79.85 0.00076
79.9 0.00115
79.95 0.00426
80 0.00564
80.05 0.00223
80.1 -0.00193
80.15 -0.00267
80.2 -0.0005
80.25 -0.00096
80.3 0.00171
80.35 0.00659
80.4 0.01053
80.45 0.01525
80.5 0.01411
80.55 0.01313
80.6 0.01496
80.65 0.01064
80.7 0.00998
80.75 0.00745
80.8 0.00524
80.85 0.00594
80.9 0.00158
80.95 -0.00289
81 -0.0046
81.05 -0.0018
81.1 0.00059
81.15 -0.00158
81.2 -0.00271
81.25 -0.00585
81.3 -0.01023
81.35 -0.00867
81.4 -0.00387
81.45 -0.00069
81.5 0.0017
81.55 0.00368
81.6 0.00255
81.65 -0.00209
81.7 -0.00668
81.75 -0.00543
81.8 -0.00242
81.85 -0.00467
81.9 -0.00439
81.95 -0.00097
82 0.00414
82.05 0.0071
82.1 0.0074
82.15 0.00271
82.2 -0.00115
82.25 -0.00437
82.3 -0.00835
82.35 -0.01321
82.4 -0.01585
82.45 -0.02046
82.5 -0.02205
82.55 -0.02295
82.6 -0.01894
82.65 -0.01562
82.7 -0.01214
82.75 -0.00567
82.8 0.00009
82.85 0.00634
82.9 0.01159
82.95 0.01265
83 0.01182
83.05 0.00916
83.1 0.00772
83.15 0.00989
83.2 0.00924
83.25 0.00971
83.3 0.0065
83.35 0.00558
83.4 0.0012
83.45 0.00138
83.5 -0.00297
83.55 -0.00566
83.6 -0.00884
83.65 -0.0077
83.7 -0.00863
83.75 -0.01266
83.8 -0.01509
83.85 -0.0121
83.9 -0.00894
83.95 -0.00804
84 -0.00497
84.05 -0.00444
84.1 -0.00508
84.15 -0.00676
84.2 -0.01152
84.25 -0.01622
84.3 -0.01581
84.35 -0.0144
84.4 -0.01392
84.45 -0.00909
84.5 -0.00785
84.55 -0.00471
84.6 0.00098
84.65 0.00035
84.7 -0.00406
84.75 -0.00295
84.8 0.00074
84.85 0.0069
84.9 0.01204
84.95 0.01693
85 0.01489
85.05 0.01032
85.1 0.00938
85.15 0.00812
85.2 0.0098
85.25 0.00912
85.3 0.00419
85.35 -0.00173
85.4 -0.00373
85.45 -0.00553
85.5 -0.0089
85.55 -0.01157
85.6 -0.00856
85.65 -0.00958
85.7 -0.01278
85.75 -0.01646
85.8 -0.01552
85.85 -0.01208
85.9 -0.00917
85.95 -0.00619
86 -0.00172
86.05 0.00161
86.1 0.0022
86.15 0.00198
86.2 0.00321
86.25 0.00589
86.3 0.007
86.35 0.00322
86.4 -0.00013
86.45 0.00073
86.5 -0.00078
86.55 -0.00022
86.6 -0.00235
86.65 -0.00109
86.7 -0.00309
86.75 -0.00258
86.8 0.00009
86.85 -0.00221
86.9 -0.00488
86.95 -0.00469
87 -0.0066
87.05 -0.00824
87.1 -0.0082
87.15 -0.00668
87.2 -0.00537
87.25 -0.00631
87.3 -0.00754
87.35 -0.0046
87.4 0.00096
87.45 0.00834
87.5 0.00868
87.55 0.00658
87.6 0.00098
87.65 -0.00471
87.7 -0.00578
87.75 -0.00637
87.8 -0.00599
87.85 -0.00334
87.9 -0.00233
87.95 -0.00269
88 -0.00628
88.05 -0.01
88.1 -0.01395
88.15 -0.01806
88.2 -0.02008
88.25 -0.01682
88.3 -0.01153
88.35 -0.00691
88.4 -0.00087
88.45 -0.00054
88.5 -0.00138
88.55 -0.00041
88.6 0.00128
88.65 0.00516
88.7 0.00631
88.75 0.00657
88.8 0.00587
88.85 0.00583
88.9 0.00889
88.95 0.01374
89 0.01771
89.05 0.01883
89.1 0.02051
89.15 0.02272
89.2 0.02176
89.25 0.01684
89.3 0.00969
89.35 0.00257
89.4 0.00122
89.45 -0.00245
89.5 -0.00448
89.55 -0.00379
89.6 -0.00276
89.65 0.00081
89.7 0.00355
89.75 0.00611
89.8 0.00621
89.85 0.00759
89.9 0.00794
89.95 0.006
90 0.00612
90.05 0.00422
90.1 -0.00024
90.15 -0.00374
90.2 -0.00442
90.25 -0.00406
90.3 -0.0044
90.35 -0.00403
90.4 -0.00555
90.45 -0.00572
90.5 -0.00901
90.55 -0.01275
90.6 -0.0149
90.65 -0.01748
90.7 -0.01485
90.75 -0.00975
90.8 -0.00957
90.85 -0.00699
90.9 -0.00833
90.95 -0.00601
91 -0.00009
91.05 0.00386
91.1 0.00608
91.15 0.00348
91.2 0.00131
91.25 -0.00083
91.3 -0.00605
91.35 -0.00918
91.4 -0.01309
91.45 -0.01375
91.5 -0.01385
91.55 -0.01293
91.6 -0.01127
91.65 -0.01082
91.7 -0.00682
91.75 -0.00303
91.8 0.00049
91.85 0.00388
91.9 0.00347
91.95 0.00202
92 -0.00272
92.05 -0.00157
92.1 -0.00433
92.15 -0.00264
92.2 0.0003
92.25 0.00469
92.3 0.00567
92.35 0.00226
92.4 0.00091
92.45 0.0031
92.5 0.00361
92.55 0.00653
92.6 0.00738
92.65 0.0066
92.7 0.003
92.75 -0.0011
92.8 -0.00392
92.85 -0.00583
92.9 -0.00344
92.95 -0.00267
93 -0.00508
93.05 -0.00938
93.1 -0.00986
93.15 -0.00653
93.2 -0.00336
93.25 -0.00304
93.3 0.00038
93.35 0.0007
93.4 0.00278
93.45 0.00071
93.5 -0.00164
93.55 -0.00661
93.6 -0.00909
93.65 -0.01153
93.7 -0.00879
93.75 -0.00613
93.8 -0.008
93.85 -0.00992
93.9 -0.00757
93.95 -0.0078
94 -0.00435
94.05 -0.00087
94.1 0.00486
94.15 0.00714
94.2 0.01196
94.25 0.01061
94.3 0.00832
94.35 0.00252
94.4 -0.00068
94.45 -0.0006
94.5 0.00038
94.55 0.00112
94.6 0.00314
94.65 0.00699
94.7 0.00772
94.75 0.00844
94.8 0.01102
94.85 0.01556
94.9 0.02043
94.95 0.01788
95 0.01436
95.05 0.00714
95.1 0.00418
95.15 0.00272
95.2 -0.00258
95.25 -0.00995
95.3 -0.01452
95.35 -0.01389
95.4 -0.01185
95.45 -0.00626
95.5 -0.00575
95.55 -0.00431
95.6 -0.00204
95.65 0.00167
95.7 0.00139
95.75 0.00239
95.8 0.00451
95.85 0.00922
95.9 0.0079
95.95 0.0099
96 0.00657
96.05 0.00442
96.1 0.00207
96.15 -0.00025
96.2 -0.00344
96.25 -0.00466
96.3 -0.00599
96.35 -0.00821
96.4 -0.00777
96.45 -0.0066
96.5 -0.00299
96.55 -0.00001
96.6 0.00077
96.65 0.00318
96.7 0.00282
96.75 0.00547
96.8 0.00981
96.85 0.00916
96.9 0.008
96.95 0.00262
97 0.00282
97.05 0.00603
97.1 0.0106
97.15 0.00928
97.2 0.00956
97.25 0.01027
97.3 0.01018
97.35 0.01242
97.4 0.00908
97.45 0.00679
97.5 0.00257
97.55 -0.00418
97.6 -0.01046
97.65 -0.01061
97.7 -0.01159
97.75 -0.01157
97.8 -0.01185
97.85 -0.01511
97.9 -0.01816
97.95 -0.01538
98 -0.00856
98.05 -0.00407
98.1 0.00051
98.15 0.00715
98.2 0.01243
98.25 0.01245
98.3 0.01287
98.35 0.01307
98.4 0.00828
98.45 0.00489
98.5 0.00363
98.55 0.00015
98.6 0.00083
98.65 -0.00175
98.7 -0.00492
98.75 -0.00987
98.8 -0.01015
98.85 -0.0068
98.9 -0.00287
98.95 0.00365
99 0.00963
99.05 0.01398
99.1 0.01811
99.15 0.02009
99.2 0.02186
99.25 0.02376
99.3 0.02664
99.35 0.02504
99.4 0.02354
99.45 0.02232
99.5 0.02066
99.55 0.01822
99.6 0.01857
99.65 0.02015
99.7 0.01944
99.75 0.01406
99.8 0.00505
99.85 -0.0057
99.9 -0.01166
99.95 -0.01255
