0 0
0.05 0.00038
0.1 0.00788
0.15 0.01449
0.2 0.01788
0.25 0.01957
0.3 0.02772
0.35 0.03718
0.4 0.04633
0.45 0.04853
0.5 0.04904
0.55 0.04856
0.6 0.05279
0.65 0.0595
0.7 0.05865
0.75 0.05949
0.8 0.06039
0.85 0.06371
0.9 0.06554
0.95 0.0652
1 0.0595
1.05 0.05707
1.1 0.05579
1.15 0.05174
1.2 0.04699
1.25 0.03924
1.3 0.03772
1.35 0.0394
1.4 0.03738
1.45 0.03246
1.5 0.02799
1.55 0.02403
1.6 0.02468
1.65 0.02645
1.7 0.03162
1.75 0.03893
1.8 0.04419
1.85 0.05113
1.9 0.05756
1.95 0.05498
2 0.05402
2.05 0.05122
2.1 0.0439
2.15 0.03494
2.2 0.03207
2.25 0.02857
2.3 0.02448
2.35 0.0208
2.4 0.01593
2.45 0.016
2.5 0.02067
2.55 0.02033
2.6 0.02018
2.65 0.02215
2.7 0.02345
2.75 0.0217
2.8 0.02476
2.85 0.02806
2.9 0.03154
2.95 0.03411
3 0.03508
3.05 0.03443
3.1 0.03124
3.15 0.02606
3.2 0.02007
3.25 0.0152
3.3 0.01195
3.35 0.01515
3.4 0.02141
3.45 0.02679
3.5 0.03113
3.55 0.03501
3.6 0.03919
3.65 0.04372
3.7 0.041
3.75 0.03757
3.8 0.03118
3.85 0.02823
3.9 0.02476
3.95 0.02279
4 0.02368
4.05 0.01983
4.1 0.02023
4.15 0.01514
4.2 0.01152
4.25 0.00769
4.3 0.00162
4.35 -0.00102
4.4 -0.00291
4.45 -0.00761
4.5 -0.01087
4.55 -0.01757
4.6 -0.027
4.65 -0.04314
4.7 -0.06467
4.75 -0.09107
4.8 -0.11922
4.85 -0.15007
4.9 -0.17816
4.95 -0.21201
5 -0.25294
5.05 -0.29775
5.1 -0.34317
5.15 -0.39137
5.2 -0.44951
5.25 -0.51599
5.3 -0.59103
5.35 -0.67417
5.4 -0.76447
5.45 -0.85697
5.5 -0.95358
5.55 -1.05166
5.6 -1.14839
5.65 -1.24438
5.7 -1.34029
5.75 -1.43406
5.8 -1.53147
5.85 -1.62601
5.9 -1.7151
5.95 -1.80381
6 -1.89015
6.05 -1.96905
6.1 -2.04579
6.15 -2.1185
6.2 -2.18952
6.25 -2.25743
6.3 -2.31535
6.35 -2.36735
6.4 -2.41684
6.45 -2.45976
6.5 -2.49508
6.55 -2.51893
6.6 -2.5348
6.65 -2.54128
6.7 -2.53536
6.75 -2.51697
6.8 -2.48052
6.85 -2.42531
6.9 -2.35371
6.95 -2.26592
7 -2.16542
7.05 -2.04545
7.1 -1.90714
7.15 -1.7551
7.2 -1.58885
7.25 -1.41459
7.3 -1.23139
7.35 -1.03461
7.4 -0.83
7.45 -0.62279
7.5 -0.41377
7.55 -0.21039
7.6 -0.00552
7.65 0.19708
7.7 0.39194
7.75 0.57636
7.8 0.75837
7.85 0.92817
7.9 1.08906
7.95 1.23844
8 1.3752
8.05 1.49918
8.1 1.6149
8.15 1.72105
8.2 1.81801
8.25 1.90124
8.3 1.96998
8.35 2.02595
8.4 2.07512
8.45 2.11726
8.5 2.14977
8.55 2.17523
8.6 2.19423
8.65 2.2083
8.7 2.21744
8.75 2.22464
8.8 2.22398
8.85 2.22162
8.9 2.21811
8.95 2.21156
9 2.20682
9.05 2.20251
9.1 2.18937
9.15 2.17324
9.2 2.15623
9.25 2.13642
9.3 2.11704
9.35 2.09849
9.4 2.07322
9.45 2.04557
9.5 2.01902
9.55 1.98755
9.6 1.95639
9.65 1.92816
9.7 1.89989
9.75 1.86664
9.8 1.83471
9.85 1.80489
9.9 1.77204
9.95 1.74119
10 1.71061
10.05 1.67806
10.1 1.64274
10.15 1.60652
10.2 1.5648
10.25 1.52014
10.3 1.47238
10.35 1.42344
10.4 1.37879
10.45 1.32933
10.5 1.2852
10.55 1.24401
10.6 1.20429
10.65 1.16235
10.7 1.11358
10.75 1.0613
10.8 1.00567
10.85 0.9556
10.9 0.9087
10.95 0.86422
11 0.81777
11.05 0.77568
11.1 0.72784
11.15 0.68412
11.2 0.63949
11.25 0.59688
11.3 0.55379
11.35 0.51035
11.4 0.46976
11.45 0.42849
11.5 0.39113
11.55 0.35266
11.6 0.317
11.65 0.28204
11.7 0.24292
11.75 0.2007
11.8 0.15954
11.85 0.12106
11.9 0.08938
11.95 0.05669
12 0.02521
12.05 -0.00122
12.1 -0.0234
12.15 -0.043
12.2 -0.06705
12.25 -0.08762
12.3 -0.10817
12.35 -0.12675
12.4 -0.14483
12.45 -0.1658
12.5 -0.18141
12.55 -0.20024
12.6 -0.22248
12.65 -0.23731
12.7 -0.2506
12.75 -0.26047
12.8 -0.27162
12.85 -0.27961
12.9 -0.28894
12.95 -0.29507
13 -0.30241
13.05 -0.30742
13.1 -0.31855
13.15 -0.3273
13.2 -0.33435
13.25 -0.3377
13.3 -0.34326
13.35 -0.34677
13.4 -0.34937
13.45 -0.35718
13.5 -0.36466
13.55 -0.37197
13.6 -0.3777
13.65 -0.37816
13.7 -0.37636
13.75 -0.3769
13.8 -0.37886
13.85 -0.381
13.9 -0.38517
13.95 -0.38751
14 -0.39047
14.05 -0.39376
14.1 -0.39697
14.15 -0.39151
14.2 -0.38158
14.25 -0.36849
14.3 -0.35458
14.35 -0.34434
14.4 -0.33863
14.45 -0.33708
14.5 -0.33162
14.55 -0.32413
14.6 -0.31841
14.65 -0.31928
14.7 -0.32139
14.75 -0.32182
14.8 -0.3202
14.85 -0.31877
14.9 -0.31804
14.95 -0.31341
15 -0.31134
15.05 -0.30699
15.1 -0.3012
15.15 -0.29727
15.2 -0.29094
15.25 -0.28998
15.3 -0.29022
15.35 -0.28862
15.4 -0.28369
15.45 -0.27931
15.5 -0.27861
15.55 -0.27851
15.6 -0.27371
15.65 -0.26495
15.7 -0.25538
15.75 -0.24919
15.8 -0.24523
15.85 -0.24551
15.9 -0.2459
15.95 -0.24391
16 -0.24014
16.05 -0.23447
16.1 -0.22491
16.15 -0.21693
16.2 -0.21288
16.25 -0.20488
16.3 -0.19519
16.35 -0.1885
16.4 -0.1839
16.45 -0.17926
16.5 -0.17436
16.55 -0.17645
16.6 -0.18207
16.65 -0.18334
16.7 -0.1839
16.75 -0.18742
16.8 -0.19072
16.85 -0.18874
16.9 -0.18405
16.95 -0.17791
17 -0.17703
17.05 -0.17898
17.1 -0.17894
17.15 -0.17719
17.2 -0.16968
17.25 -0.16131
17.3 -0.15246
17.35 -0.14812
17.4 -0.14836
17.45 -0.14378
17.5 -0.14012
17.55 -0.13516
17.6 -0.13467
17.65 -0.1317
17.7 -0.12635
17.75 -0.12682
17.8 -0.12672
17.85 -0.12413
17.9 -0.1225
17.95 -0.12308
18 -0.12518
18.05 -0.12763
18.1 -0.12724
18.15 -0.12942
18.2 -0.12982
18.25 -0.12961
18.3 -0.12455
18.35 -0.11586
18.4 -0.10754
18.45 -0.10127
18.5 -0.09781
18.55 -0.09162
18.6 -0.09236
18.65 -0.09727
18.7 -0.10369
18.75 -0.10395
18.8 -0.10216
18.85 -0.09874
18.9 -0.09167
18.95 -0.08995
19 -0.08669
19.05 -0.08726
19.1 -0.09059
19.15 -0.09012
19.2 -0.08903
19.25 -0.08946
19.3 -0.09105
19.35 -0.08832
19.4 -0.08986
19.45 -0.08973
19.5 -0.091
19.55 -0.08597
19.6 -0.08373
19.65 -0.07749
19.7 -0.07167
19.75 -0.0655
19.8 -0.05981
19.85 -0.0535
19.9 -0.05076
19.95 -0.05048
20 -0.05447
20.05 -0.05835
20.1 -0.06088
20.15 -0.06249
20.2 -0.06625
20.25 -0.06764
20.3 -0.0633
20.35 -0.05775
20.4 -0.05457
20.45 -0.05264
20.5 -0.0501
20.55 -0.05292
20.6 -0.05418
20.65 -0.05106
20.7 -0.04559
20.75 -0.04285
20.8 -0.0405
20.85 -0.03831
20.9 -0.03355
20.95 -0.02841
21 -0.02758
21.05 -0.02577
21.1 -0.02294
21.15 -0.02453
21.2 -0.02719
21.25 -0.03067
21.3 -0.03671
21.35 -0.03958
21.4 -0.04502
21.45 -0.04445
21.5 -0.03952
21.55 -0.04036
21.6 -0.03856
21.65 -0.03985
21.7 -0.04408
21.75 -0.04894
21.8 -0.05235
21.85 -0.05777
21.9 -0.06277
21.95 -0.05926
22 -0.05682
22.05 -0.05488
22.1 -0.0484
22.15 -0.04603
22.2 -0.04584
22.25 -0.04605
22.3 -0.04697
22.35 -0.05038
22.4 -0.0542
22.45 -0.05696
22.5 -0.05763
22.55 -0.05189
22.6 -0.04345
22.65 -0.03695
22.7 -0.03001
22.75 -0.02882
22.8 -0.03172
22.85 -0.036
22.9 -0.03444
22.95 -0.02946
23 -0.02323
23.05 -0.02196
23.1 -0.02448
23.15 -0.02942
23.2 -0.03028
23.25 -0.02714
23.3 -0.0222
23.35 -0.01706
23.4 -0.01522
23.45 -0.01326
23.5 -0.01035
23.55 -0.01008
23.6 -0.01148
23.65 -0.01604
23.7 -0.0189
23.75 -0.01905
23.8 -0.01508
23.85 -0.01648
23.9 -0.0155
23.95 -0.01932
24 -0.02045
24.05 -0.01738
24.1 -0.01974
24.15 -0.02331
24.2 -0.02403
24.25 -0.02761
24.3 -0.02761
24.35 -0.0301
24.4 -0.02622
24.45 -0.02249
24.5 -0.024
24.55 -0.02359
24.6 -0.0237
24.65 -0.01962
24.7 -0.01709
24.75 -0.01148
24.8 -0.00915
24.85 -0.00606
24.9 -0.0066
24.95 -0.00924
25 -0.01527
25.05 -0.01813
25.1 -0.01806
25.15 -0.02131
25.2 -0.01865
25.25 -0.0141
25.3 -0.00685
25.35 -0.00228
25.4 -0.00335
25.45 -0.00558
25.5 -0.00743
25.55 -0.00881
25.6 -0.00884
25.65 -0.00829
25.7 -0.00742
25.75 -0.00333
25.8 -0.0004
25.85 -0.00038
25.9 0.0017
25.95 -0.00082
26 -0.00391
26.05 -0.01021
26.1 -0.01566
26.15 -0.02072
26.2 -0.01925
26.25 -0.0176
26.3 -0.01238
26.35 -0.00926
26.4 -0.00991
26.45 -0.00772
26.5 -0.00613
26.55 -0.00414
26.6 -0.00671
26.65 -0.00473
26.7 -0.00198
26.75 -0.00024
26.8 0.00272
26.85 0.00604
26.9 0.00874
26.95 0.01191
27 0.01408
27.05 0.01408
27.1 0.01076
27.15 0.00316
27.2 -0.00122
27.25 -0.0055
27.3 -0.00683
27.35 -0.00784
27.4 -0.01163
27.45 -0.01384
27.5 -0.01634
27.55 -0.0217
27.6 -0.02497
27.65 -0.02964
27.7 -0.0346
27.75 -0.03715
27.8 -0.03976
27.85 -0.03971
27.9 -0.04082
27.95 -0.04169
28 -0.04286
28.05 -0.03888
28.1 -0.02955
28.15 -0.02452
28.2 -0.02369
28.25 -0.02141
28.3 -0.02281
28.35 -0.02224
28.4 -0.01744
28.45 -0.01526
28.5 -0.01176
28.55 -0.01177
28.6 -0.00639
28.65 0.00119
28.7 0.00211
28.75 0.00163
28.8 0.00405
28.85 0.00793
28.9 0.00984
28.95 0.0112
29 0.01465
29.05 0.01636
29.1 0.0138
29.15 0.00984
29.2 0.00308
29.25 -0.0019
29.3 -0.00311
29.35 -0.00801
29.4 -0.01162
29.45 -0.00959
29.5 -0.00743
29.55 -0.00291
29.6 0.00067
29.65 0.00415
29.7 0.0056
29.75 0.00312
29.8 -0.00161
29.85 -0.00662
29.9 -0.00786
29.95 -0.00967
30 -0.00591
30.05 -0.00535
30.1 -0.00004
30.15 0.00295
30.2 0.00338
30.25 0.00529
30.3 0.00657
30.35 0.00845
30.4 0.0058
30.45 0.00728
30.5 0.00538
30.55 0.00142
30.6 -0.00319
30.65 -0.00372
30.7 -0.00049
30.75 0.00211
30.8 0.00133
30.85 -0.0012
30.9 0.00002
30.95 -0.00242
31 -0.00083
31.05 -0.00384
31.1 -0.0083
31.15 -0.00835
31.2 -0.01221
31.25 -0.01139
31.3 -0.01445
31.35 -0.01089
31.4 -0.00966
31.45 -0.00578
31.5 -0.00307
31.55 0.0001
31.6 -0.00238
31.65 -0.00232
31.7 -0.00409
31.75 -0.00095
31.8 -0.00286
31.85 -0.00254
31.9 0.00078
31.95 0.00404
32 0.00876
32.05 0.01017
32.1 0.00579
32.15 0.005
32.2 0.00827
32.25 0.0054
32.3 -0.00058
32.35 -0.00825
32.4 -0.00885
32.45 -0.01189
32.5 -0.01485
32.55 -0.01664
32.6 -0.01479
32.65 -0.01007
32.7 -0.00754
32.75 -0.00478
32.8 -0.00473
32.85 -0.00861
32.9 -0.0087
32.95 -0.01164
33 -0.01641
33.05 -0.01609
33.1 -0.01681
33.15 -0.01909
33.2 -0.02036
33.25 -0.02057
33.3 -0.01687
33.35 -0.01583
33.4 -0.00917
33.45 -0.0072
33.5 -0.00471
33.55 -0.00179
33.6 0.0048
33.65 0.00805
33.7 0.0128
33.75 0.01704
33.8 0.02074
33.85 0.026
33.9 0.02636
33.95 0.02518
34 0.0186
34.05 0.01604
34.1 0.01513
34.15 0.01021
34.2 0.00932
34.25 0.00837
34.3 0.00756
34.35 0.00804
34.4 0.00535
34.45 0.00016
34.5 -0.00301
34.55 -0.0072
34.6 -0.01232
34.65 -0.01738
34.7 -0.01442
34.75 -0.01191
34.8 -0.00584
34.85 0.00039
34.9 0.00294
34.95 0.00754
35 0.01436
35.05 0.01637
35.1 0.01873
35.15 0.02147
35.2 0.01945
35.25 0.01799
35.3 0.01147
35.35 0.00443
35.4 -0.00175
35.45 -0.00089
35.5 0.00053
35.55 -0.00298
35.6 -0.00421
35.65 -0.00393
35.7 -0.00789
35.75 -0.00588
35.8 -0.00161
35.85 -0.00017
35.9 0.00527
35.95 0.00767
36 0.00444
36.05 0.00056
36.1 -0.00118
36.15 0.00207
36.2 0.00228
36.25 0.00499
36.3 0.00841
36.35 0.01241
36.4 0.01499
36.45 0.01116
36.5 0.00717
36.55 0.00105
36.6 -0.00361
36.65 -0.00931
36.7 -0.00979
36.75 -0.01156
36.8 -0.01065
36.85 -0.00461
36.9 0.00399
36.95 0.01163
37 0.01257
37.05 0.01164
37.1 0.00768
37.15 0.00225
37.2 0.00098
37.25 -0.00282
37.3 -0.00616
37.35 -0.00947
37.4 -0.00936
37.45 -0.0126
37.5 -0.01742
37.55 -0.02051
37.6 -0.02318
37.65 -0.025
37.7 -0.02764
37.75 -0.02251
37.8 -0.0144
37.85 -0.01122
37.9 -0.01094
37.95 -0.0127
38 -0.0159
38.05 -0.01378
38.1 -0.00738
38.15 -0.00559
38.2 -0.00033
38.25 0.00268
38.3 0.0026
38.35 0.00151
38.4 0.00392
38.45 0.00174
38.5 0.00152
38.55 0.00034
38.6 -0.00206
38.65 -0.00189
38.7 -0.00502
38.75 -0.00615
38.8 -0.00335
38.85 -0.00018
38.9 0.00101
38.95 0.00548
39 0.00957
39.05 0.01097
39.1 0.00901
39.15 0.00761
39.2 0.0039
39.25 0.002
39.3 0.00472
39.35 0.00607
39.4 0.00253
39.45 0.00087
39.5 -0.00432
39.55 -0.00579
39.6 -0.00755
39.65 -0.00945
39.7 -0.01362
39.75 -0.01414
39.8 -0.00846
39.85 -0.00313
39.9 0.00478
39.95 0.00722
40 0.01218
40.05 0.01385
40.1 0.01689
40.15 0.01498
40.2 0.01485
40.25 0.0108
40.3 0.01064
40.35 0.00972
40.4 0.00499
40.45 0.00263
40.5 0.00008
40.55 0.00159
40.6 0.00317
40.65 0.00196
40.7 -0.00346
40.75 -0.0055
40.8 -0.00862
40.85 -0.01175
40.9 -0.01512
40.95 -0.01247
41 -0.0085
41.05 -0.00835
41.1 -0.01002
41.15 -0.00713
41.2 -0.00355
41.25 0.00041
41.3 0.00566
41.35 0.00964
41.4 0.01537
41.45 0.01724
41.5 0.02083
41.55 0.02519
41.6 0.02541
41.65 0.02224
41.7 0.01954
41.75 0.01771
41.8 0.01103
41.85 0.00775
41.9 0.00089
41.95 -0.00368
42 -0.00943
42.05 -0.00819
42.1 -0.0089
42.15 -0.01156
42.2 -0.01064
42.25 -0.00537
42.3 -0.00468
42.35 -0.00355
42.4 -0.0061
42.45 -0.00428
42.5 -0.00231
42.55 0.00003
42.6 -0.00036
42.65 0.00372
42.7 0.00652
42.75 0.01034
42.8 0.00831
42.85 0.00892
42.9 0.00954
42.95 0.00867
43 0.00849
43.05 0.00486
43.1 0.00547
43.15 0.00155
43.2 -0.00408
43.25 -0.00475
43.3 -0.0018
43.35 0.00323
43.4 0.00328
43.45 0.00382
43.5 0.00419
43.55 0.00727
43.6 0.00602
43.65 0.00502
43.7 0.00103
43.75 -0.00512
43.8 -0.00541
43.85 -0.00248
43.9 -0.00008
43.95 0.00575
44 0.0107
44.05 0.01663
44.1 0.02269
44.15 0.02338
44.2 0.02248
44.25 0.02012
44.3 0.01827
44.35 0.01156
44.4 0.00504
44.45 0.00392
44.5 0.00178
44.55 -0.0008
44.6 -0.00068
44.65 0.00234
44.7 0.0009
44.75 -0.00465
44.8 -0.00397
44.85 -0.00191
44.9 0.00246
44.95 0.00368
45 0.00289
45.05 -0.00102
45.1 -0.00124
45.15 0.0003
45.2 0.00344
45.25 0.00028
45.3 0.00153
45.35 0.00276
45.4 0.00691
45.45 0.00868
45.5 0.01055
45.55 0.01316
45.6 0.01189
45.65 0.00559
45.7 -0.00029
45.75 -0.00339
45.8 -0.00679
45.85 -0.00779
45.9 -0.01217
45.95 -0.01759
46 -0.02309
46.05 -0.02677
46.1 -0.03071
46.15 -0.03516
46.2 -0.03622
46.25 -0.03323
46.3 -0.02987
46.35 -0.024
46.4 -0.01585
46.45 -0.01274
46.5 -0.00706
46.55 -0.00214
46.6 0.002
46.65 0.00107
46.7 0.00144
46.75 0.00461
46.8 0.00892
46.85 0.01036
46.9 0.01485
46.95 0.01288
47 0.00835
47.05 0.00813
47.1 0.01152
47.15 0.01487
47.2 0.01682
47.25 0.01206
47.3 0.00988
47.35 0.0118
47.4 0.01396
47.45 0.01034
47.5 0.00709
47.55 0.00592
47.6 0.00336
47.65 0.00463
47.7 0.00685
47.75 0.00841
47.8 0.01009
47.85 0.01212
47.9 0.01391
47.95 0.01652
48 0.01463
48.05 0.01275
48.1 0.0129
48.15 0.01185
48.2 0.01362
48.25 0.01754
48.3 0.01713
48.35 0.01886
48.4 0.01861
48.45 0.01583
48.5 0.01399
48.55 0.01507
48.6 0.0156
48.65 0.01331
48.7 0.01312
48.75 0.01195
48.8 0.00874
48.85 0.00739
48.9 0.00383
48.95 -0.00051
49 -0.00574
49.05 -0.00997
49.1 -0.01082
49.15 -0.00939
49.2 -0.00702
49.25 -0.00355
49.3 -0.00061
49.35 0.00428
49.4 0.0102
49.45 0.01425
49.5 0.01222
49.55 0.00608
49.6 0.00025
49.65 -0.00665
49.7 -0.00955
49.75 -0.00874
49.8 -0.00815
49.85 -0.01218
49.9 -0.01811
49.95 -0.01653
50 -0.01361
50.05 -0.01254
50.1 -0.00966
50.15 -0.00938
50.2 -0.00923
50.25 -0.01294
50.3 -0.01552
50.35 -0.01929
50.4 -0.02458
50.45 -0.02823
50.5 -0.02756
50.55 -0.02817
50.6 -0.02651
50.65 -0.0205
50.7 -0.01086
50.75 -0.00533
50.8 -0.0002
50.85 -0.00106
50.9 -0.0058
50.95 -0.01246
51 -0.01618
51.05 -0.01876
51.1 -0.01583
51.15 -0.01031
51.2 -0.00966
51.25 -0.00684
51.3 -0.00323
51.35 -0.00536
51.4 -0.00617
51.45 -0.00644
51.5 -0.00297
51.55 -0.00498
51.6 -0.00285
51.65 0.00171
51.7 0.00226
51.75 -0.00072
51.8 0.00029
51.85 0.00535
51.9 0.00671
51.95 0.00397
52 0.00635
52.05 0.00629
52.1 0.0029
52.15 0.00017
52.2 -0.00335
52.25 -0.00732
52.3 -0.00733
52.35 -0.00638
52.4 -0.00869
52.45 -0.0099
52.5 -0.01447
52.55 -0.02051
52.6 -0.02052
52.65 -0.01854
52.7 -0.0117
52.75 -0.00675
52.8 -0.0015
52.85 -0.00194
52.9 -0.00147
52.95 -0.00388
53 -0.00508
53.05 -0.00241
53.1 0.00154
53.15 -0.00005
53.2 -0.00569
53.25 -0.00801
53.3 -0.006
53.35 -0.00004
53.4 0.00278
53.45 0.008
53.5 0.01387
53.55 0.01785
53.6 0.01819
53.65 0.02031
53.7 0.02373
53.75 0.02726
53.8 0.02426
53.85 0.01959
53.9 0.01447
53.95 0.00698
54 0.00486
54.05 -0.00159
54.1 -0.00941
54.15 -0.01126
54.2 -0.01295
54.25 -0.00974
54.3 -0.00386
54.35 -0.00395
54.4 0.00065
54.45 -0.00002
54.5 -0.00406
54.55 -0.00383
54.6 -0.00056
54.65 0.00013
54.7 0.00204
54.75 0.00043
54.8 -0.00114
54.85 -0.00338
54.9 -0.00667
54.95 -0.00695
55 -0.0095
55.05 -0.01189
55.1 -0.00884
55.15 -0.00984
55.2 -0.0108
55.25 -0.01077
55.3 -0.00945
55.35 -0.00955
55.4 -0.0119
55.45 -0.01015
55.5 -0.0069
55.55 -0.00687
55.6 -0.01091
55.65 -0.01519
55.7 -0.01226
55.75 -0.01269
55.8 -0.00961
55.85 -0.00401
55.9 0.00365
55.95 0.00479
56 0.00309
56.05 0.00363
56.1 0.00428
56.15 0.0024
56.2 0.00156
56.25 -0.00222
56.3 -0.00122
56.35 -0.00272
56.4 -0.00718
56.45 -0.0108
56.5 -0.01364
56.55 -0.01671
56.6 -0.01556
56.65 -0.01338
56.7 -0.00659
56.75 0.00126
56.8 0.01065
56.85 0.01163
56.9 0.00852
56.95 0.00431
57 -0.00004
57.05 -0.00622
57.1 -0.01003
57.15 -0.01052
57.2 -0.00837
57.25 -0.00411
57.3 0.00131
57.35 0.00789
57.4 0.01346
57.45 0.02006
57.5 0.02359
57.55 0.02581
57.6 0.02895
57.65 0.02766
57.7 0.02374
57.75 0.01504
57.8 0.00814
57.85 -0.00064
57.9 -0.00168
57.95 -0.00544
58 -0.00771
58.05 -0.00871
58.1 -0.01046
58.15 -0.01368
58.2 -0.01862
58.25 -0.02447
58.3 -0.02451
58.35 -0.02525
58.4 -0.01995
58.45 -0.01223
58.5 -0.005
58.55 -0.00146
58.6 0.0012
58.65 0.00339
58.7 0.00848
58.75 0.01255
58.8 0.01651
58.85 0.01829
58.9 0.0211
58.95 0.02229
59 0.02181
59.05 0.02024
59.1 0.01331
59.15 0.00855
59.2 0.00576
59.25 0.00513
59.3 0.00586
59.35 0.00376
59.4 0.0014
59.45 -0.00201
59.5 -0.00593
59.55 -0.01073
59.6 -0.01426
59.65 -0.01591
59.7 -0.01384
59.75 -0.01237
59.8 -0.01477
59.85 -0.01691
59.9 -0.02135
59.95 -0.02037
60 -0.02105
60.05 -0.01627
60.1 -0.01526
60.15 -0.01411
60.2 -0.01546
60.25 -0.01792
60.3 -0.01893
60.35 -0.01663
60.4 -0.01762
60.45 -0.01652
60.5 -0.0187
60.55 -0.01556
60.6 -0.01389
60.65 -0.01187
60.7 -0.00824
60.75 -0.00381
60.8 0.00196
60.85 0.00968
60.9 0.01034
60.95 0.00912
61 0.0101
61.05 0.01231
61.1 0.01161
61.15 0.00652
61.2 0.00192
61.25 -0.00082
61.3 0.00064
61.35 -0.00062
61.4 -0.00121
61.45 0.00104
61.5 0.00274
61.55 0.00635
61.6 0.00582
61.65 0.00305
61.7 -0.00042
61.75 -0.00585
61.8 -0.00937
61.85 -0.01115
61.9 -0.00668
61.95 -0.00319
62 -0.00006
62.05 0.00389
62.1 0.007
62.15 0.0121
62.2 0.01008
62.25 0.01184
62.3 0.01579
62.35 0.01571
62.4 0.01059
62.45 0.01068
62.5 0.01246
62.55 0.01177
62.6 0.00688
62.65 0.00759
62.7 0.00625
62.75 0.00313
62.8 0.00537
62.85 0.01022
62.9 0.01369
62.95 0.01877
63 0.02244
63.05 0.02403
63.1 0.02631
63.15 0.02106
63.2 0.0122
63.25 0.00852
63.3 0.00518
63.35 0.00472
63.4 0.00673
63.45 0.0087
63.5 0.01018
63.55 0.00559
63.6 0.00592
63.65 0.00587
63.7 0.00962
63.75 0.01243
63.8 0.01536
63.85 0.01177
63.9 0.01176
63.95 0.01408
64 0.01448
64.05 0.01509
64.1 0.00927
64.15 0.00818
64.2 0.00792
64.25 0.00611
64.3 0.00594
64.35 0.00949
64.4 0.01151
64.45 0.00987
64.5 0.0031
64.55 -0.00549
64.6 -0.00873
64.65 -0.00683
64.7 -0.00349
64.75 0.00169
64.8 0.00871
64.85 0.01321
64.9 0.01891
64.95 0.02154
65 0.02229
65.05 0.02226
65.1 0.01588
65.15 0.00646
65.2 -0.00052
65.25 -0.00128
65.3 -0.00135
65.35 -0.00312
65.4 -0.00519
65.45 -0.00622
65.5 -0.0078
65.55 -0.01252
65.6 -0.01507
65.65 -0.018
65.7 -0.01983
65.75 -0.01567
65.8 -0.01524
65.85 -0.01196
65.9 -0.00826
65.95 -0.00339
66 -0.00319
66.05 -0.00162
66.1 -0.00486
66.15 -0.00506
66.2 -0.00168
66.25 -0.0007
66.3 0.00187
66.35 -0.00055
66.4 0.00124
66.45 0.00216
66.5 0.00648
66.55 0.01152
66.6 0.00938
66.65 0.00253
66.7 -0.00411
66.75 -0.00932
66.8 -0.01428
66.85 -0.01574
66.9 -0.01405
66.95 -0.01545
67 -0.01979
67.05 -0.0254
67.1 -0.02422
67.15 -0.01839
67.2 -0.00885
67.25 -0.00666
67.3 -0.00803
67.35 -0.00926
67.4 -0.0079
67.45 -0.00904
67.5 -0.0116
67.55 -0.00915
67.6 -0.00361
67.65 -0.00397
67.7 -0.00106
67.75 -0.00377
67.8 -0.00364
67.85 -0.00511
67.9 -0.00144
67.95 -0.00165
68 0.00181
68.05 -0.00072
68.1 -0.00343
68.15 -0.00754
68.2 -0.01247
68.25 -0.0109
68.3 -0.01176
68.35 -0.00723
68.4 -0.00661
68.45 -0.00446
68.5 -0.00063
68.55 0.00465
68.6 0.00412
68.65 0.00415
68.7 0.00754
68.75 0.01226
68.8 0.01434
68.85 0.01064
68.9 0.00978
68.95 0.0083
69 0.00384
69.05 0.00464
69.1 0.00784
69.15 0.0113
69.2 0.01529
69.25 0.01335
69.3 0.00704
69.35 -0.00148
69.4 -0.00258
69.45 -0.0006
69.5 -0.00169
69.55 -0.00435
69.6 -0.00949
69.65 -0.01394
69.7 -0.01894
69.75 -0.02231
69.8 -0.02266
69.85 -0.01774
69.9 -0.01493
69.95 -0.01243
70 -0.00713
70.05 -0.00229
70.1 0.00527
70.15 0.01217
70.2 0.0169
70.25 0.0203
70.3 0.0173
70.35 0.0121
70.4 0.01072
70.45 0.00504
70.5 0.0028
70.55 0.00154
70.6 0.00422
70.65 0.00665
70.7 0.00605
70.75 0.00661
70.8 0.00711
70.85 0.00837
70.9 0.01008
70.95 0.00843
71 0.00398
71.05 0.00442
71.1 0.00169
71.15 0.00152
71.2 0.00032
71.25 0.0006
71.3 0.00182
71.35 0.00671
71.4 0.00969
71.45 0.01043
71.5 0.00566
71.55 0.0016
71.6 0.00308
71.65 0.00376
71.7 0.00015
71.75 -0.0039
71.8 -0.00358
71.85 -0.00738
71.9 -0.01396
71.95 -0.01993
72 -0.0262
72.05 -0.0323
72.1 -0.03226
72.15 -0.03353
72.2 -0.03391
72.25 -0.03403
72.3 -0.03576
72.35 -0.03227
72.4 -0.02712
72.45 -0.02524
72.5 -0.019
72.55 -0.01578
72.6 -0.015
72.65 -0.00977
72.7 -0.0077
72.75 -0.00207
72.8 -0.00138
72.85 0.00317
72.9 0.00503
72.95 0.01022
73 0.01704
73.05 0.01927
73.1 0.01529
73.15 0.00737
73.2 -0.00137
73.25 -0.00776
73.3 -0.01113
73.35 -0.01595
73.4 -0.01916
73.45 -0.02192
73.5 -0.01877
73.55 -0.01386
73.6 -0.01182
73.65 -0.00776
73.7 -0.00197
73.75 -0.00234
73.8 -0.00079
73.85 -0.00127
73.9 -0.00115
73.95 0.0013
74 0.00178
74.05 0.00417
74.1 0.00668
74.15 0.00948
74.2 0.01285
74.25 0.01253
74.3 0.01361
74.35 0.0107
74.4 0.00409
74.45 -0.00071
74.5 -0.00738
74.55 -0.00833
74.6 -0.00961
74.65 -0.00955
74.7 -0.00528
74.75 -0.00228
74.8 -0.00035
74.85 0.00245
74.9 0.00091
74.95 0.00164
75 0.00627
75.05 0.01073
75.1 0.01276
75.15 0.01199
75.2 0.01259
75.25 0.01391
75.3 0.01137
75.35 0.00702
75.4 0.00071
75.45 -0.00648
75.5 -0.01415
75.55 -0.02044
75.6 -0.02403
75.65 -0.01996
75.7 -0.01777
75.75 -0.0187
75.8 -0.01383
75.85 -0.01193
75.9 -0.00746
75.95 -0.00456
76 -0.00048
76.05 -0.00076
76.1 0.00141
76.15 0.00693
76.2 0.01439
76.25 0.0167
76.3 0.01766
76.35 0.01595
76.4 0.01327
76.45 0.00853
76.5 0.00528
76.55 0.00515
76.6 0.00164
76.65 -0.00283
76.7 -0.00153
76.75 0.00331
76.8 0.00382
76.85 0.00618
76.9 0.00555
76.95 0.00581
77 0.00719
77.05 0.00934
77.1 0.00697
77.15 0.00606
77.2 0.00286
77.25 0.00373
77.3 0.00803
77.35 0.00656
77.4 0.00367
77.45 0.00221
77.5 0.00305
77.55 0.00743
77.6 0.01171
77.65 0.01609
77.7 0.01417
77.75 0.01032
77.8 0.00559
77.85 -0.0016
77.9 -0.00814
77.95 -0.01512
78 -0.0151
78.05 -0.01102
78.1 -0.00998
78.15 -0.01124
78.2 -0.01395
78.25 -0.0147
78.3 -0.01666
78.35 -0.01733
78.4 -0.02056
78.45 -0.02417
78.5 -0.02773
78.55 -0.02778
78.6 -0.02952
78.65 -0.02358
78.7 -0.02219
78.75 -0.01926
78.8 -0.01983
78.85 -0.01569
78.9 -0.01291
78.95 -0.00916
79 -0.00184
79.05 0.00522
79.1 0.01141
79.15 0.01755
79.2 0.02482
79.25 0.02835
79.3 0.03052
79.35 0.03374
79.4 0.02989
79.45 0.02384
79.5 0.01537
79.55 0.00622
79.6 0.00127
79.65 0.00075
79.7 0.00482
79.75 0.00873
79.8 0.00777
79.85 0.00702
79.9 0.00634
79.95 0.0025
80 -0.00347
80.05 -0.00973
80.1 -0.01531
80.15 -0.01775
80.2 -0.01552
80.25 -0.01082
80.3 -0.00491
80.35 0.00001
80.4 0.00145
80.45 0.00309
80.5 0.00212
80.55 -0.00021
80.6 -0.0018
80.65 -0.00078
80.7 -0.00023
80.75 0.00061
80.8 -0.00139
80.85 -0.00669
80.9 -0.01106
80.95 -0.01155
81 -0.01233
81.05 -0.01219
81.1 -0.01177
81.15 -0.01268
81.2 -0.01294
81.25 -0.01303
81.3 -0.00804
81.35 -0.00645
81.4 -0.0019
81.45 -0.00018
81.5 0.00565
81.55 0.00746
81.6 0.00456
81.65 0.00414
81.7 0.00014
81.75 0.00099
81.8 0.00265
81.85 0.00076
81.9 -0.00013
81.95 -0.00234
82 -0.00354
82.05 -0.00145
82.1 0.00192
82.15 0.00725
82.2 0.00606
82.25 0.00037
82.3 -0.00584
82.35 -0.0093
82.4 -0.01076
82.45 -0.01449
82.5 -0.01538
82.55 -0.01535
82.6 -0.01266
82.65 -0.00625
82.7 0.0002
82.75 0.0084
82.8 0.01665
82.85 0.0185
82.9 0.01512
82.95 0.01037
83 0.00913
83.05 0.00911
83.1 0.01082
83.15 0.01145
83.2 0.01446
83.25 0.01474
83.3 0.0096
83.35 0.00307
83.4 0.00265
83.45 0.00097
83.5 -0.00219
83.55 -0.00423
83.6 -0.00179
83.65 0.00443
83.7 0.0087
83.75 0.01238
83.8 0.01072
83.85 0.00822
83.9 0.00343
83.95 -0.00222
84 -0.00475
84.05 -0.00783
84.1 -0.01341
84.15 -0.01314
84.2 -0.01498
84.25 -0.01836
84.3 -0.01802
84.35 -0.01749
84.4 -0.01267
84.45 -0.00533
84.5 0.00057
84.55 0.00059
84.6 -0.00375
84.65 -0.00302
84.7 -0.0014
84.75 -0.00199
84.8 0.00144
84.85 0.00356
84.9 0.00194
84.95 0.00277
85 0.00462
85.05 0.00313
85.1 -0.00102
85.15 -0.00632
85.2 -0.01252
85.25 -0.01132
85.3 -0.00847
85.35 -0.00705
85.4 -0.0056
85.45 -0.0057
85.5 -0.00861
85.55 -0.00928
85.6 -0.00439
85.65 0.00016
85.7 0.00376
85.75 0.006
85.8 0.00623
85.85 0.00706
85.9 0.01136
85.95 0.01514
86 0.02105
86.05 0.02347
86.1 0.02588
86.15 0.02732
86.2 0.02943
86.25 0.0285
86.3 0.02507
86.35 0.01835
86.4 0.01221
86.45 0.00347
86.5 0.00153
86.55 -0.00358
86.6 -0.01076
86.65 -0.01492
86.7 -0.01415
86.75 -0.01664
86.8 -0.02132
86.85 -0.02507
86.9 -0.02341
86.95 -0.02051
87 -0.01638
87.05 -0.00865
87.1 -0.00753
87.15 -0.01022
87.2 -0.01034
87.25 -0.014
87.3 -0.01434
87.35 -0.01424
87.4 -0.01443
87.45 -0.00915
87.5 -0.00611
87.55 0.00008
87.6 0.00542
87.65 0.00878
87.7 0.01034
87.75 0.00858
87.8 0.0069
87.85 0.00787
87.9 0.00817
87.95 0.01038
88 0.01148
88.05 0.00948
88.1 0.00703
88.15 0.00531
88.2 0.00306
88.25 -0.00154
88.3 -0.00755
88.35 -0.00939
88.4 -0.01123
88.45 -0.0087
88.5 -0.0021
88.55 -0.00176
88.6 -0.00506
88.65 -0.01077
88.7 -0.01695
88.75 -0.01577
88.8 -0.01644
88.85 -0.01289
88.9 -0.00781
88.95 -0.0037
89 0.00231
89.05 0.00477
89.1 0.00269
89.15 0.00364
89.2 0.00755
89.25 0.01036
89.3 0.01542
89.35 0.01868
89.4 0.02081
89.45 0.01821
89.5 0.01322
89.55 0.01339
89.6 0.01183
89.65 0.011
89.7 0.01033
89.75 0.00585
89.8 -0.00086
89.85 -0.00786
89.9 -0.01065
89.95 -0.01514
90 -0.02077
90.05 -0.02441
90.1 -0.02268
90.15 -0.02334
90.2 -0.02458
90.25 -0.02611
90.3 -0.02398
90.35 -0.01698
90.4 -0.00662
90.45 0.00201
90.5 0.01188
90.55 0.01832
90.6 0.01961
90.65 0.01928
90.7 0.0163
90.75 0.01148
90.8 0.00909
90.85 0.00459
90.9 0.00325
90.95 0.00379
91 0.00583
91.05 0.01039
91.1 0.00838
91.15 0.00816
91.2 0.00294
91.25 0.004
91.3 0.00829
91.35 0.00768
91.4 0.01125
91.45 0.01071
91.5 0.00678
91.55 0.00128
91.6 0.00104
91.65 0.00529
91.7 0.00345
91.75 0.00182
91.8 0.005
91.85 0.00582
91.9 0.00598
91.95 0.00518
92 0.0008
92.05 -0.00168
92.1 0.00008
92.15 0.00361
92.2 0.0091
92.25 0.01204
92.3 0.01135
92.35 0.00876
92.4 0.00923
92.45 0.00578
92.5 0.00548
92.55 0.00735
92.6 0.01034
92.65 0.01258
92.7 0.0135
92.75 0.01664
92.8 0.01375
92.85 0.01506
92.9 0.01099
92.95 0.0058
93 0.00379
93.05 0.00541
93.1 0.00915
93.15 0.01095
93.2 0.01354
93.25 0.01518
93.3 0.01428
93.35 0.00817
93.4 0.00317
93.45 -0.00485
93.5 -0.01139
93.55 -0.0134
93.6 -0.01793
93.65 -0.02113
93.7 -0.01783
93.75 -0.01616
93.8 -0.0175
93.85 -0.02129
93.9 -0.02494
93.95 -0.0269
94 -0.02739
94.05 -0.02169
94.1 -0.01356
94.15 -0.00628
94.2 -0.0029
94.25 -0.0003
94.3 -0.00297
94.35 -0.00435
94.4 -0.00713
94.45 -0.01036
94.5 -0.01102
94.55 -0.01416
94.6 -0.01255
94.65 -0.00766
94.7 -0.00295
94.75 0.00322
94.8 0.00415
94.85 0.00864
94.9 0.01207
94.95 0.01787
95 0.02245
95.05 0.02017
95.1 0.01488
95.15 0.00862
95.2 0.00379
95.25 0.00418
95.3 0.0013
95.35 0.00383
95.4 0.00768
95.45 0.01303
95.5 0.01693
95.55 0.01508
95.6 0.00819
95.65 0.00382
95.7 0.00175
95.75 0.00458
95.8 0.00841
95.85 0.01398
95.9 0.01326
95.95 0.01562
96 0.01348
96.05 0.00921
96.1 0.00135
96.15 -0.0017
96.2 -0.00524
96.25 -0.00703
96.3 -0.00335
96.35 0.00053
96.4 0.00725
96.45 0.0142
96.5 0.01917
96.55 0.01895
96.6 0.01389
96.65 0.00987
96.7 0.0036
96.75 0.00018
96.8 -0.00647
96.85 -0.00989
96.9 -0.00993
96.95 -0.01107
97 -0.01199
97.05 -0.00942
97.1 -0.00813
97.15 -0.01152
97.2 -0.01541
97.25 -0.01918
97.3 -0.02438
97.35 -0.02911
97.4 -0.02855
97.45 -0.02861
97.5 -0.02322
97.55 -0.01753
97.6 -0.01031
97.65 -0.00597
97.7 -0.00653
97.75 -0.00842
97.8 -0.00655
97.85 -0.00512
97.9 0.00035
97.95 0.00484
98 0.00293
98.05 0.0023
98.1 0.00338
98.15 0.00761
98.2 0.00571
98.25 0.00029
98.3 -0.00037
98.35 0.00244
98.4 -0.00021
98.45 -0.00177
98.5 0.00099
98.55 0.00115
98.6 -0.00169
98.65 -0.00624
98.7 -0.01214
98.75 -0.01693
98.8 -0.01401
98.85 -0.01431
98.9 -0.01005
98.95 -0.0087
99 -0.00633
99.05 -0.00504
99.1 -0.00388
99.15 -0.00009
99.2 -0.0004
99.25 0.00071
99.3 -0.00245
99.35 -0.00224
99.4 0.00198
99.45 0.00537
99.5 0.00927
99.55 0.00825
99.6 0.01015
99.65 0.00915
99.7 0.01202
99.75 0.01181
99.8 0.01189
99.85 0.01407
99.9 0.01555
99.95 0.01373
