0 0
0.05 0.00506
0.1 0.01376
0.15 0.02261
0.2 0.03092
0.25 0.03981
0.3 0.04552
0.35 0.04661
0.4 0.04322
0.45 0.04233
0.5 0.04203
0.55 0.04302
0.6 0.04513
0.65 0.04897
0.7 0.05188
0.75 0.05308
0.8 0.05034
0.85 0.04398
0.9 0.03634
0.95 0.03373
1 0.03112
1.05 0.03273
1.1 0.03312
1.15 0.0368
1.2 0.03996
1.25 0.04277
1.3 0.04219
1.35 0.04103
1.4 0.04061
1.45 0.0395
1.5 0.03447
1.55 0.02932
1.6 0.02966
1.65 0.03057
1.7 0.03467
1.75 0.03754
1.8 0.03921
1.85 0.0404
1.9 0.04128
1.95 0.03767
2 0.0341
2.05 0.02783
2.1 0.02761
2.15 0.02987
2.2 0.03502
2.25 0.03845
2.3 0.04257
2.35 0.04179
2.4 0.04267
2.45 0.04093
2.5 0.03873
2.55 0.0324
2.6 0.02879
2.65 0.02475
2.7 0.01914
2.75 0.012
2.8 0.00642
2.85 0.00334
2.9 0.00537
2.95 0.01003
3 0.01563
3.05 0.01692
3.1 0.01849
3.15 0.02059
3.2 0.02351
3.25 0.0213
3.3 0.01754
3.35 0.0125
3.4 0.01332
3.45 0.01141
3.5 0.00813
3.55 0.00628
3.6 0.00233
3.65 0.00424
3.7 0.00367
3.75 0.00142
3.8 0.00293
3.85 0.00634
3.9 0.00775
3.95 0.00556
4 0.005
4.05 0.00563
4.1 0.00403
4.15 0.00677
4.2 0.00722
4.25 0.01218
4.3 0.0166
4.35 0.01868
4.4 0.01597
4.45 0.01265
4.5 0.01214
4.55 0.00917
4.6 0.00591
4.65 0.00479
4.7 0.00379
4.75 0.00334
4.8 0.00133
4.85 -0.00548
4.9 -0.01042
4.95 -0.01721
5 -0.02492
5.05 -0.0312
5.1 -0.03763
5.15 -0.04753
5.2 -0.05728
5.25 -0.07272
5.3 -0.08582
5.35 -0.09904
5.4 -0.11087
5.45 -0.12308
5.5 -0.13752
5.55 -0.1519
5.6 -0.16651
5.65 -0.17513
5.7 -0.18496
5.75 -0.19316
5.8 -0.20077
5.85 -0.20179
5.9 -0.20133
5.95 -0.19127
6 -0.17645
6.05 -0.15973
6.1 -0.14353
6.15 -0.12387
6.2 -0.09744
6.25 -0.07243
6.3 -0.04659
6.35 -0.0195
6.4 0.01078
6.45 0.03941
6.5 0.06851
6.55 0.09974
6.6 0.12867
6.65 0.15705
6.7 0.17661
6.75 0.19356
6.8 0.20977
6.85 0.22539
6.9 0.23193
6.95 0.23422
7 0.23267
7.05 0.22972
7.1 0.22379
7.15 0.21616
7.2 0.20825
7.25 0.20004
7.3 0.19291
7.35 0.17808
7.4 0.15924
7.45 0.1392
7.5 0.11821
7.55 0.10028
7.6 0.08123
7.65 0.06153
7.7 0.04306
7.75 0.03043
7.8 0.01956
7.85 0.01276
7.9 0.01001
7.95 0.01154
8 0.00746
8.05 0.00635
8.1 0.00493
8.15 0.00094
8.2 -0.00467
8.25 -0.00885
8.3 -0.01156
8.35 -0.01439
8.4 -0.01375
8.45 -0.00828
8.5 0.00135
8.55 0.01115
8.6 0.01903
8.65 0.02557
8.7 0.0318
8.75 0.03487
8.8 0.04213
8.85 0.04801
8.9 0.04897
8.95 0.04791
9 0.04997
9.05 0.05218
9.1 0.05775
9.15 0.05874
9.2 0.0618
9.25 0.06529
9.3 0.06825
9.35 0.06799
9.4 0.0657
9.45 0.06091
9.5 0.05388
9.55 0.04883
9.6 0.04617
9.65 0.04027
9.7 0.03244
9.75 0.02647
9.8 0.02125
9.85 0.01878
9.9 0.01767
9.95 0.01358
10 0.01035
10.05 0.0038
10.1 -0.00146
10.15 -0.00106
10.2 -0.00168
10.25 -0.00231
10.3 -0.00709
10.35 -0.01357
10.4 -0.01789
10.45 -0.02246
10.5 -0.02063
10.55 -0.02042
10.6 -0.02125
10.65 -0.01845
10.7 -0.01397
10.75 -0.01513
10.8 -0.01873
10.85 -0.02155
10.9 -0.02247
10.95 -0.02428
11 -0.02929
11.05 -0.03555
11.1 -0.03582
11.15 -0.03285
11.2 -0.03411
11.25 -0.03329
11.3 -0.03285
11.35 -0.03503
11.4 -0.03495
11.45 -0.0319
11.5 -0.02827
11.55 -0.02404
11.6 -0.02387
11.65 -0.02488
11.7 -0.02855
11.75 -0.02655
11.8 -0.02337
11.85 -0.02026
11.9 -0.01558
11.95 -0.01211
12 -0.00726
12.05 -0.00301
12.1 -0.00017
12.15 -0.00155
12.2 -0.00405
12.25 -0.00607
12.3 -0.01026
12.35 -0.01307
12.4 -0.01357
12.45 -0.01137
12.5 -0.0092
12.55 -0.00519
12.6 0.00028
12.65 -0.00034
12.7 -0.00248
12.75 -0.00798
12.8 -0.01332
12.85 -0.01698
12.9 -0.01913
12.95 -0.01686
13 -0.01029
13.05 -0.00533
13.1 -0.00091
13.15 0.0053
13.2 0.00845
13.25 0.01108
13.3 0.01529
13.35 0.01301
13.4 0.00866
13.45 0.0076
13.5 0.00368
13.55 0.00168
13.6 -0.00126
13.65 0.00071
13.7 -0.00053
13.75 0.00234
13.8 0.00364
13.85 0.00163
13.9 0.00153
13.95 0.00297
14 0.00636
14.05 0.00553
14.1 0.0055
14.15 0.00076
14.2 0.0011
14.25 0.00412
14.3 0.00547
14.35 0.00449
14.4 0.00088
14.45 0.00191
14.5 0.00597
14.55 0.00461
14.6 0.00392
14.65 0.00481
14.7 0.00181
14.75 0.00095
14.8 0.00347
14.85 0.00154
14.9 0.00313
14.95 0.00057
15 0.00052
15.05 0.0033
15.1 0.00445
15.15 0.00219
15.2 -0.00279
15.25 -0.00455
15.3 -0.00857
15.35 -0.00911
15.4 -0.00585
15.45 0.00044
15.5 0.00443
15.55 0.00996
15.6 0.01439
15.65 0.0157
15.7 0.01881
15.75 0.01944
15.8 0.01877
15.85 0.01506
15.9 0.01449
15.95 0.01591
16 0.01506
16.05 0.01502
16.1 0.01649
16.15 0.01339
16.2 0.01216
16.25 0.01374
16.3 0.01323
16.35 0.00787
16.4 0.00098
16.45 -0.00717
16.5 -0.01638
16.55 -0.01961
16.6 -0.02353
16.65 -0.02513
16.7 -0.02624
16.75 -0.02207
16.8 -0.01946
16.85 -0.01943
16.9 -0.02067
16.95 -0.01971
17 -0.01549
17.05 -0.01091
17.1 -0.00381
17.15 0.00286
17.2 0.00759
17.25 0.00742
17.3 0.00869
17.35 0.00463
17.4 0.00216
17.45 0.00016
17.5 -0.00492
17.55 -0.012
17.6 -0.01491
17.65 -0.0125
17.7 -0.00788
17.75 -0.00277
17.8 0.00392
17.85 0.00913
17.9 0.01138
17.95 0.01519
18 0.01516
18.05 0.01611
18.1 0.01833
18.15 0.01753
18.2 0.01769
18.25 0.0127
18.3 0.01058
18.35 0.0087
18.4 0.00359
18.45 0.00171
18.5 -0.0004
18.55 -0.00352
18.6 -0.00441
18.65 -0.00565
18.7 -0.00952
18.75 -0.01575
18.8 -0.01669
18.85 -0.0188
18.9 -0.0209
18.95 -0.01954
19 -0.01822
19.05 -0.01352
19.1 -0.00662
19.15 -0.0008
19.2 0.00312
19.25 0.00484
19.3 0.00136
19.35 0.00116
19.4 -0.0027
19.45 -0.00773
19.5 -0.00679
19.55 -0.00577
19.6 -0.00625
19.65 -0.00594
19.7 -0.00262
19.75 -0.00437
19.8 -0.00216
19.85 -0.00236
19.9 -0.00139
19.95 0.00175
20 0.00078
20.05 0.00335
20.1 0.00657
20.15 0.00674
20.2 0.00593
20.25 0.00727
20.3 0.0098
20.35 0.0094
20.4 0.01013
20.45 0.00754
20.5 0.00508
20.55 0.00524
20.6 0.00844
20.65 0.01011
20.7 0.01394
20.75 0.01672
20.8 0.01847
20.85 0.01909
20.9 0.01431
20.95 0.01234
21 0.00626
21.05 0.005
21.1 0.00493
21.15 0.00107
21.2 -0.0055
21.25 -0.00935
21.3 -0.01165
21.35 -0.01405
21.4 -0.01232
21.45 -0.0131
21.5 -0.01648
21.55 -0.0175
21.6 -0.01635
21.65 -0.01229
21.7 -0.00876
21.75 -0.00613
21.8 -0.00527
21.85 -0.00795
21.9 -0.00923
21.95 -0.00981
22 -0.01084
22.05 -0.00898
22.1 -0.00608
22.15 -0.00033
22.2 0.00343
22.25 0.00694
22.3 0.01129
22.35 0.00955
22.4 0.0098
22.45 0.01105
22.5 0.00676
22.55 -0.00111
22.6 -0.00592
22.65 -0.00521
22.7 -0.00281
22.75 0.00039
22.8 -0.00159
22.85 -0.00066
22.9 0.00005
22.95 0.00371
23 0.00707
23.05 0.00511
23.1 0.00325
23.15 0.00265
23.2 0.00509
23.25 0.00875
23.3 0.00605
23.35 0.00299
23.4 -0.00086
23.45 -0.00134
23.5 -0.00217
23.55 0.0002
23.6 0.00056
23.65 0.00272
23.7 0.00158
23.75 0.0026
23.8 0.00565
23.85 0.00748
23.9 0.00989
23.95 0.01037
24 0.0065
24.05 0.00295
24.1 -0.00349
24.15 -0.01011
24.2 -0.01503
24.25 -0.01593
24.3 -0.01539
24.35 -0.01457
24.4 -0.0106
24.45 -0.01014
24.5 -0.00556
24.55 0.001
24.6 0.00233
24.65 -0.00042
24.7 -0.00516
24.75 -0.00589
24.8 -0.00228
24.85 -0.00427
24.9 -0.00455
24.95 -0.00588
25 -0.00732
25.05 -0.00561
25.1 -0.00325
25.15 0.00042
25.2 -0.00135
25.25 -0.00328
25.3 -0.00718
25.35 -0.00886
25.4 -0.00979
25.45 -0.01045
25.5 -0.01318
25.55 -0.01108
25.6 -0.01007
25.65 -0.00733
25.7 -0.00248
25.75 -0.00075
25.8 0.00016
25.85 -0.00352
25.9 -0.00324
25.95 -0.00602
26 -0.00565
26.05 -0.0087
26.1 -0.01357
26.15 -0.01209
26.2 -0.01047
26.25 -0.0056
26.3 -0.00569
26.35 -0.00147
26.4 -0.00274
26.45 -0.00124
26.5 -0.00131
26.55 -0.00011
26.6 0.00398
26.65 0.00399
26.7 0.00704
26.75 0.00907
26.8 0.00717
26.85 0.00476
26.9 0.00068
26.95 0.00021
27 -0.00123
27.05 -0.00172
27.1 -0.00496
27.15 -0.00516
27.2 -0.00936
27.25 -0.01493
27.3 -0.01877
27.35 -0.0195
27.4 -0.01639
27.45 -0.0135
27.5 -0.01345
27.55 -0.01493
27.6 -0.01936
27.65 -0.02096
27.7 -0.02463
27.75 -0.03095
27.8 -0.03824
27.85 -0.04493
27.9 -0.05475
27.95 -0.06871
28 -0.08463
28.05 -0.09824
28.1 -0.11669
28.15 -0.13942
28.2 -0.1653
28.25 -0.1921
28.3 -0.21745
28.35 -0.24951
28.4 -0.28466
28.45 -0.32095
28.5 -0.36064
28.55 -0.41071
28.6 -0.46913
28.65 -0.53271
28.7 -0.59879
28.75 -0.67164
28.8 -0.74646
28.85 -0.82411
28.9 -0.90323
28.95 -0.99009
29 -1.08173
29.05 -1.1798
29.1 -1.2821
29.15 -1.38525
29.2 -1.49025
29.25 -1.59007
29.3 -1.68939
29.35 -1.78276
29.4 -1.87343
29.45 -1.95611
29.5 -2.03362
29.55 -2.098
29.6 -2.15758
29.65 -2.2089
29.7 -2.25121
29.75 -2.27698
29.8 -2.29577
29.85 -2.30103
29.9 -2.28934
29.95 -2.26683
30 -2.23058
30.05 -2.17886
30.1 -2.11737
30.15 -2.04831
30.2 -1.96797
30.25 -1.87356
30.3 -1.76581
30.35 -1.64598
30.4 -1.52215
30.45 -1.39009
30.5 -1.2533
30.55 -1.1082
30.6 -0.9632
30.65 -0.81335
30.7 -0.65659
30.75 -0.5017
30.8 -0.35015
30.85 -0.20025
30.9 -0.04889
30.95 0.10082
31 0.24449
31.05 0.38789
31.1 0.52939
31.15 0.6644
31.2 0.79733
31.25 0.92456
31.3 1.04131
31.35 1.15238
31.4 1.25196
31.45 1.34324
31.5 1.4245
31.55 1.49842
31.6 1.56533
31.65 1.62808
31.7 1.68386
31.75 1.73001
31.8 1.76562
31.85 1.79262
31.9 1.81577
31.95 1.83535
32 1.8528
32.05 1.86623
32.1 1.87688
32.15 1.88649
32.2 1.8943
32.25 1.89937
32.3 1.90329
32.35 1.9079
32.4 1.90991
32.45 1.90628
32.5 1.89536
32.55 1.88267
32.6 1.86694
32.65 1.85563
32.7 1.84277
32.75 1.82928
32.8 1.81195
32.85 1.79433
32.9 1.77915
32.95 1.76044
33 1.73524
33.05 1.71198
33.1 1.68876
33.15 1.66163
33.2 1.62977
33.25 1.59524
33.3 1.55809
33.35 1.52166
33.4 1.48595
33.45 1.45391
33.5 1.41708
33.55 1.37704
33.6 1.34011
33.65 1.30466
33.7 1.26781
33.75 1.23015
33.8 1.18641
33.85 1.13763
33.9 1.08952
33.95 1.04575
34 1.00204
34.05 0.9583
34.1 0.91561
34.15 0.87059
34.2 0.82338
34.25 0.77449
34.3 0.73079
34.35 0.69035
34.4 0.65203
34.45 0.61216
34.5 0.57452
34.55 0.53407
34.6 0.49531
34.65 0.45614
34.7 0.42003
34.75 0.38114
34.8 0.34216
34.85 0.30336
34.9 0.2631
34.95 0.22379
35 0.18862
35.05 0.15698
35.1 0.12341
35.15 0.0947
35.2 0.06981
35.25 0.04835
35.3 0.02804
35.35 0.0034
35.4 -0.01756
35.45 -0.04046
35.5 -0.06583
35.55 -0.09139
35.6 -0.11212
35.65 -0.1305
35.7 -0.14598
35.75 -0.16293
35.8 -0.17478
35.85 -0.1905
35.9 -0.20819
35.95 -0.22116
36 -0.23456
36.05 -0.24188
36.1 -0.24507
36.15 -0.24743
36.2 -0.25068
36.25 -0.25665
36.3 -0.26384
36.35 -0.27036
36.4 -0.27975
36.45 -0.2921
36.5 -0.30008
36.55 -0.30523
36.6 -0.31049
36.65 -0.31058
36.7 -0.30916
36.75 -0.30833
36.8 -0.31331
36.85 -0.31701
36.9 -0.31827
36.95 -0.32274
37 -0.32304
37.05 -0.32438
37.1 -0.32466
37.15 -0.32453
37.2 -0.3254
37.25 -0.32341
37.3 -0.31803
37.35 -0.31161
37.4 -0.30521
37.45 -0.30469
37.5 -0.30523
37.55 -0.30759
37.6 -0.31056
37.65 -0.31444
37.7 -0.31219
37.75 -0.30804
37.8 -0.30468
37.85 -0.29985
37.9 -0.2993
37.95 -0.29406
38 -0.28944
38.05 -0.28939
38.1 -0.28676
38.15 -0.28524
38.2 -0.28418
38.25 -0.2793
38.3 -0.27452
38.35 -0.26736
38.4 -0.26085
38.45 -0.25246
38.5 -0.24524
38.55 -0.24194
38.6 -0.23875
38.65 -0.23623
38.7 -0.23191
38.75 -0.22908
38.8 -0.22842
38.85 -0.23059
38.9 -0.2336
38.95 -0.23717
39 -0.23476
39.05 -0.22872
39.1 -0.22402
39.15 -0.21532
39.2 -0.20434
39.25 -0.19783
39.3 -0.19487
39.35 -0.1892
39.4 -0.18302
39.45 -0.17604
39.5 -0.17246
39.55 -0.16802
39.6 -0.16186
39.65 -0.1592
39.7 -0.15969
39.75 -0.16431
39.8 -0.17058
39.85 -0.17504
39.9 -0.17651
39.95 -0.17436
40 -0.17196
40.05 -0.17095
40.1 -0.1666
40.15 -0.16014
40.2 -0.15208
40.25 -0.14602
40.3 -0.14009
40.35 -0.1324
40.4 -0.12513
40.45 -0.11951
40.5 -0.11929
40.55 -0.12011
40.6 -0.12288
40.65 -0.12663
40.7 -0.12748
40.75 -0.12477
40.8 -0.1243
40.85 -0.12357
40.9 -0.12409
40.95 -0.12617
41 -0.12316
41.05 -0.1173
41.1 -0.11551
41.15 -0.11748
41.2 -0.11605
41.25 -0.11823
41.3 -0.12243
41.35 -0.12753
41.4 -0.13149
41.45 -0.12871
41.5 -0.12288
41.55 -0.11504
41.6 -0.11175
41.65 -0.11027
41.7 -0.10909
41.75 -0.10789
41.8 -0.10844
41.85 -0.10496
41.9 -0.09764
41.95 -0.09387
42 -0.09059
42.05 -0.09089
42.1 -0.0908
42.15 -0.08656
42.2 -0.08451
42.25 -0.07918
42.3 -0.07518
42.35 -0.07175
42.4 -0.07131
42.45 -0.07111
42.5 -0.06752
42.55 -0.06485
42.6 -0.06474
42.65 -0.06183
42.7 -0.06078
42.75 -0.05911
42.8 -0.06106
42.85 -0.06289
42.9 -0.06805
42.95 -0.07157
43 -0.07446
43.05 -0.07389
43.1 -0.07564
43.15 -0.07862
43.2 -0.07719
43.25 -0.07306
43.3 -0.06897
43.35 -0.06542
43.4 -0.064
43.45 -0.06176
43.5 -0.05729
43.55 -0.05252
43.6 -0.04811
43.65 -0.04633
43.7 -0.04685
43.75 -0.05119
43.8 -0.05105
43.85 -0.04814
43.9 -0.04244
43.95 -0.03678
44 -0.033
44.05 -0.02892
44.1 -0.02356
44.15 -0.02139
44.2 -0.02592
44.25 -0.02804
44.3 -0.02841
44.35 -0.03167
44.4 -0.0353
44.45 -0.03977
44.5 -0.04205
44.55 -0.04609
44.6 -0.04797
44.65 -0.05149
44.7 -0.05094
44.75 -0.05273
44.8 -0.05221
44.85 -0.05164
44.9 -0.05395
44.95 -0.05635
45 -0.05264
45.05 -0.04835
45.1 -0.04713
45.15 -0.04358
45.2 -0.04168
45.25 -0.03851
45.3 -0.03753
45.35 -0.03292
45.4 -0.02607
45.45 -0.02308
45.5 -0.01903
45.55 -0.01301
45.6 -0.00691
45.65 -0.00884
45.7 -0.01367
45.75 -0.01884
45.8 -0.02234
45.85 -0.02182
45.9 -0.02137
45.95 -0.02536
46 -0.02822
46.05 -0.03342
46.1 -0.03402
46.15 -0.0337
46.2 -0.03469
46.25 -0.03233
46.3 -0.02848
46.35 -0.02398
46.4 -0.02486
46.45 -0.0214
46.5 -0.01742
46.55 -0.01235
46.6 -0.0097
46.65 -0.0069
46.7 -0.00669
46.75 -0.00917
46.8 -0.01248
46.85 -0.0146
46.9 -0.01301
46.95 -0.01126
47 -0.0125
47.05 -0.01707
47.1 -0.02299
47.15 -0.02219
47.2 -0.02287
47.25 -0.02618
47.3 -0.03154
47.35 -0.03051
47.4 -0.0252
47.45 -0.01843
47.5 -0.01275
47.55 -0.00918
47.6 -0.00947
47.65 -0.01009
47.7 -0.01031
47.75 -0.0091
47.8 -0.0079
47.85 -0.00483
47.9 -0.00378
47.95 -0.00655
48 -0.00792
48.05 -0.00522
48.1 -0.00101
48.15 0.00139
48.2 0.00363
48.25 0.00076
48.3 -0.0018
48.35 -0.00203
48.4 -0.00033
48.45 0.00052
48.5 0.00254
48.55 0.00116
48.6 -0.00119
48.65 -0.00767
48.7 -0.01155
48.75 -0.01798
48.8 -0.01793
48.85 -0.01894
48.9 -0.02068
48.95 -0.01822
49 -0.01862
49.05 -0.01682
49.1 -0.01156
49.15 -0.00415
49.2 0.00013
49.25 -0.001
49.3 -0.00164
49.35 -0.00301
49.4 -0.00635
49.45 -0.00731
49.5 -0.0056
49.55 -0.00493
49.6 -0.00831
49.65 -0.01165
49.7 -0.01692
49.75 -0.01972
49.8 -0.01911
49.85 -0.01756
49.9 -0.01657
49.95 -0.01758
50 -0.01844
50.05 -0.0149
50.1 -0.00918
50.15 -0.00481
50.2 -0.00078
50.25 -0.00165
50.3 0.00128
50.35 0.00352
50.4 0.00735
50.45 0.00521
50.5 0.00036
50.55 -0.00284
50.6 -0.00337
50.65 -0.00525
50.7 -0.00637
50.75 -0.00486
50.8 -0.00845
50.85 -0.01368
50.9 -0.01645
50.95 -0.02068
51 -0.02595
51.05 -0.02702
51.1 -0.02212
51.15 -0.02018
51.2 -0.02036
51.25 -0.01564
51.3 -0.01438
51.35 -0.01222
51.4 -0.00874
51.45 -0.0073
51.5 -0.00536
51.55 -0.00071
51.6 0.00104
51.65 0.00386
51.7 0.00253
51.75 0.00124
51.8 0.0031
51.85 0.00323
51.9 0.00232
51.95 0.00006
52 -0.00227
52.05 -0.00523
52.1 -0.00654
52.15 -0.00559
52.2 -0.0064
52.25 -0.00874
52.3 -0.00604
52.35 -0.00738
52.4 -0.00464
52.45 -0.00533
52.5 -0.00193
52.55 -0.00244
52.6 -0.00406
52.65 -0.0063
52.7 -0.00807
52.75 -0.01156
52.8 -0.01507
52.85 -0.01876
52.9 -0.02053
52.95 -0.02179
53 -0.02352
53.05 -0.02575
53.1 -0.02775
53.15 -0.02716
53.2 -0.02106
53.25 -0.01595
53.3 -0.01454
53.35 -0.01538
53.4 -0.01072
53.45 -0.00436
53.5 0.00108
53.55 0.00111
53.6 -0.00009
53.65 0.00197
53.7 0.00503
53.75 0.00434
53.8 0.00701
53.85 0.00501
53.9 0.00474
53.95 0.00021
54 -0.001
54.05 -0.00558
54.1 -0.0049
54.15 -0.00394
54.2 -0.00547
54.25 -0.00953
54.3 -0.00893
54.35 -0.00882
54.4 -0.0083
54.45 -0.00561
54.5 -0.00727
54.55 -0.00891
54.6 -0.01259
54.65 -0.01006
54.7 -0.01168
54.75 -0.01072
54.8 -0.01259
54.85 -0.00851
54.9 -0.00406
54.95 0.00183
55 0.00419
55.05 0.00477
55.1 0.0006
55.15 -0.00284
55.2 -0.00295
55.25 -0.00641
55.3 -0.00532
55.35 -0.00029
55.4 0.00196
55.45 0.00137
55.5 0.0045
55.55 0.007
55.6 0.00473
55.65 0.00565
55.7 0.00933
55.75 0.00777
55.8 0.00473
55.85 -0.00162
55.9 -0.00389
55.95 -0.00176
56 0.00361
56.05 0.00355
56.1 -0.00017
56.15 -0.00294
56.2 -0.00846
56.25 -0.0144
56.3 -0.01304
56.35 -0.00744
56.4 -0.00154
56.45 0.00154
56.5 0.00416
56.55 0.00895
56.6 0.01259
56.65 0.01321
56.7 0.01457
56.75 0.01129
56.8 0.00947
56.85 0.00459
56.9 0.00511
56.95 0.00795
57 0.00969
57.05 0.01302
57.1 0.01554
57.15 0.01493
57.2 0.01086
57.25 0.00306
57.3 -0.006
57.35 -0.009
57.4 -0.01007
57.45 -0.00734
57.5 -0.00681
57.55 -0.00901
57.6 -0.00994
57.65 -0.0132
57.7 -0.01592
57.75 -0.01553
57.8 -0.01694
57.85 -0.01746
57.9 -0.01469
57.95 -0.00784
58 -0.0063
58.05 -0.00809
58.1 -0.01202
58.15 -0.00975
58.2 -0.0049
58.25 -0.00025
58.3 0.00407
58.35 0.00676
58.4 0.00944
58.45 0.00758
58.5 0.00238
58.55 -0.0046
58.6 -0.00661
58.65 -0.0055
58.7 -0.00823
58.75 -0.01083
58.8 -0.01458
58.85 -0.01644
58.9 -0.0155
58.95 -0.01306
59 -0.0115
59.05 -0.01351
59.1 -0.01063
59.15 -0.0072
59.2 -0.0073
59.25 -0.00269
59.3 -0.00048
59.35 0.00175
59.4 0.0001
59.45 -0.00471
59.5 -0.00682
59.55 -0.00667
59.6 -0.00809
59.65 -0.00707
59.7 -0.0022
59.75 0.00349
59.8 0.00453
59.85 0.00659
59.9 0.00621
59.95 0.00233
60 -0.00397
60.05 -0.00721
60.1 -0.00768
60.15 -0.0036
60.2 0.00336
60.25 0.00371
60.3 0.00447
60.35 0.0036
60.4 0.00338
60.45 0.00301
60.5 0.00052
60.55 0.0008
60.6 0.00523
60.65 0.00927
60.7 0.01068
60.75 0.00884
60.8 0.00676
60.85 0.00854
60.9 0.00899
60.95 0.00889
61 0.00607
61.05 0.00405
61.1 0.00355
61.15 0.00388
61.2 0.00041
61.25 -0.00189
61.3 -0.00395
61.35 -0.00836
61.4 -0.01188
61.45 -0.01415
61.5 -0.01248
61.55 -0.01197
61.6 -0.01154
61.65 -0.00773
61.7 -0.00368
61.75 -0.00351
61.8 -0.00629
61.85 -0.00607
61.9 -0.00687
61.95 -0.01026
62 -0.0084
62.05 -0.00311
62.1 0.00269
62.15 0.009
62.2 0.01132
62.25 0.01148
62.3 0.00837
62.35 0.00261
62.4 0.00048
62.45 -0.00168
62.5 -0.0063
62.55 -0.01261
62.6 -0.01175
62.65 -0.01269
62.7 -0.01376
62.75 -0.01231
62.8 -0.01224
62.85 -0.01166
62.9 -0.00994
62.95 -0.01018
63 -0.01002
63.05 -0.01158
63.1 -0.00959
63.15 -0.00297
63.2 0.00304
63.25 0.00805
63.3 0.00924
63.35 0.01068
63.4 0.01363
63.45 0.01401
63.5 0.01413
63.55 0.01615
63.6 0.01432
63.65 0.0101
63.7 0.00548
63.75 -0.00038
63.8 -0.00336
63.85 -0.00374
63.9 -0.00242
63.95 -0.0052
64 -0.00802
64.05 -0.00795
64.1 -0.0049
64.15 -0.0056
64.2 -0.0062
64.25 -0.00774
64.3 -0.00563
64.35 0.00051
64.4 0.00655
64.45 0.01209
64.5 0.01148
64.55 0.00669
64.6 0.00344
64.65 -0.00165
64.7 -0.00711
64.75 -0.00942
64.8 -0.01146
64.85 -0.01491
64.9 -0.01482
64.95 -0.01698
65 -0.01335
65.05 -0.00678
65.1 -0.002
65.15 0.00361
65.2 0.00629
65.25 0.00604
65.3 0.00898
65.35 0.00971
65.4 0.00909
65.45 0.01056
65.5 0.00726
65.55 0.00472
65.6 0.00571
65.65 0.00645
65.7 0.00755
65.75 0.01131
65.8 0.01418
65.85 0.01274
65.9 0.00684
65.95 0.00233
66 -0.00361
66.05 -0.01019
66.1 -0.01329
66.15 -0.01449
66.2 -0.01132
66.25 -0.00397
66.3 -0.00057
66.35 0.00413
66.4 0.00894
66.45 0.00778
66.5 0.00983
66.55 0.00682
66.6 0.0073
66.65 0.01066
66.7 0.00924
66.75 0.00731
66.8 0.00921
66.85 0.00605
66.9 0.0072
66.95 0.00627
67 0.0055
67.05 0.00332
67.1 0.00351
67.15 0.00225
67.2 0.00469
67.25 0.00951
67.3 0.01355
67.35 0.01251
67.4 0.01203
67.45 0.0083
67.5 0.00916
67.55 0.00876
67.6 0.01178
67.65 0.01156
67.7 0.00894
67.75 0.00637
67.8 0.0081
67.85 0.00751
67.9 0.00835
67.95 0.00851
68 0.01087
68.05 0.01551
68.1 0.01533
68.15 0.01427
68.2 0.01359
68.25 0.0108
68.3 0.01107
68.35 0.00975
68.4 0.00878
68.45 0.00716
68.5 0.00216
68.55 -0.00407
68.6 -0.01055
68.65 -0.01313
68.7 -0.01344
68.75 -0.00935
68.8 -0.00606
68.85 -0.00203
68.9 0.00304
68.95 0.00485
69 0.00748
69.05 0.01119
69.1 0.01532
69.15 0.01394
69.2 0.01001
69.25 0.0087
69.3 0.00707
69.35 0.00519
69.4 -0.00008
69.45 -0.00337
69.5 -0.00422
69.55 -0.00587
69.6 -0.00957
69.65 -0.00771
69.7 -0.01032
69.75 -0.01332
69.8 -0.0183
69.85 -0.02414
69.9 -0.02355
69.95 -0.02066
70 -0.01728
70.05 -0.01578
70.1 -0.01734
70.15 -0.0145
70.2 -0.0077
70.25 0.00071
70.3 0.00869
70.35 0.00915
70.4 0.00958
70.45 0.00948
70.5 0.00747
70.55 0.00723
70.6 0.00604
70.65 0.00264
70.7 0.00347
70.75 0.00399
70.8 0.00422
70.85 0.00302
70.9 0.00361
70.95 0.00691
71 0.00929
71.05 0.00613
71.1 0.00351
71.15 -0.00088
71.2 -0.00183
71.25 -0.00043
71.3 0.00313
71.35 0.00536
71.4 0.00616
71.45 0.00494
71.5 0.00263
71.55 0.00221
71.6 0.00087
71.65 0.00213
71.7 -0.00156
71.75 -0.00458
71.8 -0.00869
71.85 -0.01354
71.9 -0.01522
71.95 -0.01129
72 -0.00506
72.05 0.00247
72.1 0.00971
72.15 0.01475
72.2 0.01509
72.25 0.01267
72.3 0.00734
72.35 0.00344
72.4 0.00141
72.45 0.00251
72.5 0.00434
72.55 0.00479
72.6 0.00512
72.65 0.00063
72.7 -0.00397
72.75 -0.0034
72.8 -0.00064
72.85 0.00149
72.9 -0.00028
72.95 -0.00177
73 -0.00561
73.05 -0.00695
73.1 -0.00368
73.15 -0.00083
73.2 0.00269
73.25 0.00466
73.3 0.00337
73.35 0.00268
73.4 -0.00184
73.45 -0.00507
73.5 -0.00811
73.55 -0.00692
73.6 -0.00457
73.65 -0.00014
73.7 -0.00113
73.75 0.00013
73.8 -0.00201
73.85 -0.00481
73.9 -0.00292
73.95 0.00168
74 0.00238
74.05 -0.00131
74.1 -0.00537
74.15 -0.00388
74.2 -0.00558
74.25 -0.00792
74.3 -0.01188
74.35 -0.01575
74.4 -0.01892
74.45 -0.01843
74.5 -0.02027
74.55 -0.02273
74.6 -0.02294
74.65 -0.02024
74.7 -0.01832
74.75 -0.01639
74.8 -0.01588
74.85 -0.01359
74.9 -0.01091
74.95 -0.01172
75 -0.01132
75.05 -0.01329
75.1 -0.01225
75.15 -0.00768
75.2 -0.00414
75.25 -0.00028
75.3 -0.00056
75.35 -0.00236
75.4 -0.00286
75.45 -0.00329
75.5 -0.00217
75.55 0.00267
75.6 0.00788
75.65 0.01244
75.7 0.01421
75.75 0.01542
75.8 0.01481
75.85 0.01084
75.9 0.00962
75.95 0.01128
76 0.01439
76.05 0.0121
76.1 0.01076
76.15 0.00694
76.2 0.00099
76.25 -0.00287
76.3 -0.00094
76.35 0.00383
76.4 0.00698
76.45 0.00765
76.5 0.00694
76.55 0.00616
76.6 0.00644
76.65 0.0085
76.7 0.01136
76.75 0.01243
76.8 0.01149
76.85 0.00828
76.9 0.00413
76.95 0.00321
77 0.00097
77.05 -0.00482
77.1 -0.00414
77.15 -0.00232
77.2 -0.00032
77.25 0.00019
77.3 0.00039
77.35 0.00064
77.4 0.00056
77.45 -0.00226
77.5 -0.00296
77.55 -0.00619
77.6 -0.00372
77.65 -0.00105
77.7 0.00141
77.75 0.00591
77.8 0.01112
77.85 0.01048
77.9 0.00749
77.95 0.00348
78 -0.00017
78.05 -0.00665
78.1 -0.00733
78.15 -0.00404
78.2 -0.00004
78.25 -0.00121
78.3 0.00144
78.35 0.00165
78.4 -0.00261
78.45 -0.00526
78.5 -0.00784
78.55 -0.01171
78.6 -0.00954
78.65 -0.00563
78.7 -0.00106
78.75 0.0055
78.8 0.0109
78.85 0.01368
78.9 0.01534
78.95 0.01526
79 0.01288
79.05 0.00635
79.1 -0.00137
79.15 -0.00838
79.2 -0.01287
79.25 -0.01639
79.3 -0.01945
79.35 -0.01901
79.4 -0.01785
79.45 -0.01824
79.5 -0.02063
79.55 -0.02213
79.6 -0.02081
79.65 -0.02149
79.7 -0.01843
79.75 -0.01613
79.8 -0.01331
79.85 -0.01395
79.9 -0.01222
79.95 -0.01119
80 -0.01273
80.05 -0.0123
80.1 -0.00803
80.15 -0.00238
80.2 -0.00096
80.25 -0.00275
80.3 -0.00259
80.35 -0.00274
80.4 0.00056
80.45 -0.00081
80.5 0.00201
80.55 0.00761
80.6 0.00681
80.65 0.00358
80.7 -0.00152
80.75 -0.00332
80.8 -0.00099
80.85 -0.0034
80.9 -0.00399
80.95 -0.00131
81 0.00383
81.05 0.00338
81.1 0.00084
81.15 -0.00458
81.2 -0.00677
81.25 -0.00546
81.3 -0.00361
81.35 -0.00173
81.4 0.00234
81.45 0.00414
81.5 0.00112
81.55 -0.00249
81.6 -0.0052
81.65 -0.00357
81.7 -0.00529
81.75 -0.00245
81.8 -0.00433
81.85 -0.00505
81.9 -0.00853
81.95 -0.01295
82 -0.01778
82.05 -0.01661
82.1 -0.01732
82.15 -0.01809
82.2 -0.0148
82.25 -0.01242
82.3 -0.00961
82.35 -0.00528
82.4 0.00077
82.45 0.00869
82.5 0.0131
82.55 0.01259
82.6 0.01083
82.65 0.00912
82.7 0.00366
82.75 0.00348
82.8 0.00155
82.85 -0.00336
82.9 -0.00749
82.95 -0.00703
83 -0.00398
83.05 -0.00173
83.1 -0.00171
83.15 0.00193
83.2 0.00708
83.25 0.01037
83.3 0.00946
83.35 0.00722
83.4 0.00129
83.45 -0.00137
83.5 -0.00117
83.55 0.0004
83.6 0.00408
83.65 0.00844
83.7 0.0088
83.75 0.00502
83.8 0.00029
83.85 -0.00563
83.9 -0.01178
83.95 -0.01389
84 -0.0113
84.05 -0.01159
84.1 -0.00946
84.15 -0.0053
84.2 0.00056
84.25 0.00083
84.3 -0.00173
84.35 -0.00684
84.4 -0.01271
84.45 -0.0161
84.5 -0.01954
84.55 -0.01731
84.6 -0.01598
84.65 -0.01105
84.7 -0.00257
84.75 0.00231
84.8 0.00466
84.85 0.00505
84.9 0.00174
84.95 0.00191
85 0.00182
85.05 0.00045
85.1 -0.00297
85.15 -0.00514
85.2 -0.00478
85.25 -0.00038
85.3 0.00679
85.35 0.0112
85.4 0.00982
85.45 0.0076
85.5 0.00429
85.55 0.00259
85.6 0.00453
85.65 0.00765
85.7 0.00647
85.75 0.00535
85.8 0.00772
85.85 0.00593
85.9 0.00313
85.95 0.0007
86 0.00147
86.05 0.00238
86.1 0.0042
86.15 0.00642
86.2 0.00584
86.25 0.00785
86.3 0.00537
86.35 0.00188
86.4 -0.00257
86.45 -0.00333
86.5 -0.00676
86.55 -0.0116
86.6 -0.01344
86.65 -0.01018
86.7 -0.00737
86.75 -0.0047
86.8 0.00118
86.85 0.00116
86.9 0.00031
86.95 0.00023
87 0.00415
87.05 0.00613
87.1 0.00301
87.15 -0.00123
87.2 -0.00744
87.25 -0.00694
87.3 -0.00264
87.35 -0.00156
87.4 -0.0007
87.45 -0.00331
87.5 -0.00761
87.55 -0.01332
87.6 -0.0163
87.65 -0.01777
87.7 -0.01893
87.75 -0.01585
87.8 -0.01132
87.85 -0.00413
87.9 -0.00241
87.95 -0.00044
88 0.00438
88.05 0.01115
88.1 0.01728
88.15 0.02358
88.2 0.02696
88.25 0.02904
88.3 0.02582
88.35 0.01932
88.4 0.01301
88.45 0.01199
88.5 0.00791
88.55 0.00745
88.6 0.00742
88.65 0.00812
88.7 0.00957
88.75 0.00815
88.8 0.0066
88.85 0.00765
88.9 0.00827
88.95 0.01095
89 0.01075
89.05 0.00986
89.1 0.01193
89.15 0.01098
89.2 0.01162
89.25 0.01082
89.3 0.01362
89.35 0.01201
89.4 0.00865
89.45 0.00383
89.5 -0.00289
89.55 -0.00644
89.6 -0.00541
89.65 -0.00695
89.7 -0.0041
89.75 -0.00304
89.8 -0.00384
89.85 -0.0029
89.9 -0.00295
89.95 -0.00441
90 -0.00159
90.05 0.00403
90.1 0.01114
90.15 0.01667
90.2 0.02081
90.25 0.01916
90.3 0.014
90.35 0.00894
90.4 0.00508
90.45 0.00327
90.5 0.00315
90.55 -0.00086
90.6 -0.0015
90.65 -0.00569
90.7 -0.01056
90.75 -0.01664
90.8 -0.01874
90.85 -0.01909
90.9 -0.01871
90.95 -0.01449
91 -0.00918
91.05 -0.00136
91.1 0.00624
91.15 0.00656
91.2 0.00486
91.25 -0.00029
91.3 -0.00321
91.35 -0.00326
91.4 0.001
91.45 0.00644
91.5 0.00663
91.55 0.00534
91.6 0.00428
91.65 0.00205
91.7 0.00212
91.75 0.00301
91.8 0.00281
91.85 0.00116
91.9 -0.00322
91.95 -0.00618
92 -0.01113
92.05 -0.014
92.1 -0.01751
92.15 -0.01597
92.2 -0.01276
92.25 -0.01209
92.3 -0.01366
92.35 -0.01739
92.4 -0.01945
92.45 -0.0151
92.5 -0.01019
92.55 -0.00787
92.6 -0.00471
92.65 0.00181
92.7 0.00998
92.75 0.01471
92.8 0.01613
92.85 0.01835
92.9 0.02077
92.95 0.02343
93 0.02141
93.05 0.01931
93.1 0.01323
93.15 0.00808
93.2 0.00004
93.25 -0.00381
93.3 -0.00492
93.35 -0.00742
93.4 -0.00849
93.45 -0.00781
93.5 -0.01054
93.55 -0.00956
93.6 -0.00928
93.65 -0.00814
93.7 -0.00569
93.75 -0.00724
93.8 -0.00515
93.85 -0.00346
93.9 -0.0037
93.95 -0.00282
94 -0.00219
94.05 -0.00161
94.1 0.00235
94.15 0.0009
94.2 -0.00273
94.25 -0.00335
94.3 -0.00108
94.35 0.00159
94.4 0.00125
94.45 0.00239
94.5 0.00183
94.55 0.00163
94.6 0.0011
94.65 -0.00303
94.7 -0.00464
94.75 -0.00297
94.8 -0.00303
94.85 -0.00298
94.9 -0.00471
94.95 -0.00489
95 -0.00669
95.05 -0.0091
95.1 -0.01008
95.15 -0.00712
95.2 -0.00197
95.25 0.00332
95.3 0.0077
95.35 0.00596
95.4 0.00769
95.45 0.01085
95.5 0.01387
95.55 0.01788
95.6 0.01677
95.65 0.01887
95.7 0.0178
95.75 0.01295
95.8 0.01154
95.85 0.01125
95.9 0.01407
95.95 0.01163
96 0.00954
96.05 0.00741
96.1 0.00641
96.15 0.00404
96.2 -0.00172
96.25 -0.00896
96.3 -0.01446
96.35 -0.01407
96.4 -0.01258
96.45 -0.01379
96.5 -0.01169
96.55 -0.00745
96.6 -0.00323
96.65 -0.00008
96.7 0.00288
96.75 0.00403
96.8 0.00177
96.85 -0.00064
96.9 -0.00258
96.95 -0.00441
97 -0.0041
97.05 -0.00647
97.1 -0.01046
97.15 -0.01019
97.2 -0.00953
97.25 -0.01214
97.3 -0.00942
97.35 -0.00895
97.4 -0.01182
97.45 -0.01171
97.5 -0.0096
97.55 -0.00552
97.6 -0.00226
97.65 0.00169
97.7 0.00726
97.75 0.0087
97.8 0.01214
97.85 0.01488
97.9 0.01495
97.95 0.0174
98 0.02029
98.05 0.0184
98.1 0.01384
98.15 0.00921
98.2 0.00429
98.25 -0.00131
98.3 -0.00242
98.35 -0.00199
98.4 -0.00495
98.45 -0.00927
98.5 -0.00912
98.55 -0.00607
98.6 -0.00368
98.65 -0.00225
98.7 -0.00053
98.75 0.00063
98.8 -0.00168
98.85 -0.00656
98.9 -0.01242
98.95 -0.01833
99 -0.02321
99.05 -0.02441
99.1 -0.02042
99.15 -0.01558
99.2 -0.00879
99.25 -0.00664
99.3 -0.00226
99.35 -0.00049
99.4 -0.00137
99.45 -0.00151
99.5 -0.00069
99.55 0.00111
99.6 -0.00138
99.65 -0.00043
99.7 -0.00179
99.75 -0.00432
99.8 -0.00481
99.85 -0.00473
99.9 -0.00239
99.95 -0.00456
