0 0
0.05 0.00782
0.1 0.01846
0.15 0.02885
0.2 0.03584
0.25 0.04592
0.3 0.05117
0.35 0.05402
0.4 0.059
0.45 0.06433
0.5 0.06796
0.55 0.07194
0.6 0.07152
0.65 0.06482
0.7 0.06324
0.75 0.05771
0.8 0.05244
0.85 0.04989
0.9 0.04499
0.95 0.04083
1 0.03529
1.05 0.03685
1.1 0.0357
1.15 0.03776
1.2 0.04069
1.25 0.03951
1.3 0.04026
1.35 0.03966
1.4 0.04013
1.45 0.03985
1.5 0.03612
1.55 0.02916
1.6 0.02996
1.65 0.03081
1.7 0.03556
1.75 0.03472
1.8 0.02961
1.85 0.02753
1.9 0.02672
1.95 0.03133
2 0.03709
2.05 0.03751
2.1 0.04066
2.15 0.04267
2.2 0.03916
2.25 0.03232
2.3 0.03198
2.35 0.02877
2.4 0.02671
2.45 0.02381
2.5 0.021
2.55 0.02053
2.6 0.01768
2.65 0.01397
2.7 0.01143
2.75 0.00953
2.8 0.01012
2.85 0.01154
2.9 0.01537
2.95 0.0202
3 0.02612
3.05 0.03253
3.1 0.03355
3.15 0.03011
3.2 0.02607
3.25 0.01949
3.3 0.01865
3.35 0.01914
3.4 0.02009
3.45 0.0216
3.5 0.01861
3.55 0.01303
3.6 0.00869
3.65 0.01122
3.7 0.01116
3.75 0.01006
3.8 0.00575
3.85 0.00765
3.9 0.01329
3.95 0.01917
4 0.02403
4.05 0.02788
4.1 0.03161
4.15 0.02919
4.2 0.02629
4.25 0.0253
4.3 0.01977
4.35 0.01775
4.4 0.01008
4.45 0.0024
4.5 -0.00256
4.55 -0.01246
4.6 -0.02259
4.65 -0.03768
4.7 -0.05089
4.75 -0.06274
4.8 -0.07426
4.85 -0.09078
4.9 -0.11614
4.95 -0.14774
5 -0.18513
5.05 -0.22718
5.1 -0.27024
5.15 -0.31342
5.2 -0.35919
5.25 -0.40404
5.3 -0.45044
5.35 -0.49642
5.4 -0.54755
5.45 -0.59481
5.5 -0.64162
5.55 -0.68353
5.6 -0.729
5.65 -0.77163
5.7 -0.80547
5.75 -0.83142
5.8 -0.8449
5.85 -0.85253
5.9 -0.85281
5.95 -0.84097
6 -0.81947
6.05 -0.78979
6.1 -0.752
6.15 -0.70866
6.2 -0.66545
6.25 -0.6157
6.3 -0.56186
6.35 -0.50409
6.4 -0.4424
6.45 -0.38491
6.5 -0.3232
6.55 -0.26314
6.6 -0.20764
6.65 -0.15025
6.7 -0.09392
6.75 -0.04186
6.8 0.00944
6.85 0.05873
6.9 0.10806
6.95 0.15536
7 0.19837
7.05 0.24138
7.1 0.28523
7.15 0.32334
7.2 0.36586
7.25 0.40622
7.3 0.44736
7.35 0.48313
7.4 0.51359
7.45 0.54184
7.5 0.57103
7.55 0.60098
7.6 0.62938
7.65 0.65053
7.7 0.67144
7.75 0.68225
7.8 0.69274
7.85 0.70047
7.9 0.70704
7.95 0.70782
8 0.70602
8.05 0.70371
8.1 0.70046
8.15 0.69341
8.2 0.67769
8.25 0.65815
8.3 0.63313
8.35 0.60577
8.4 0.58293
8.45 0.5577
8.5 0.5374
8.55 0.52062
8.6 0.49876
8.65 0.47814
8.7 0.45196
8.75 0.42815
8.8 0.40165
8.85 0.37896
8.9 0.36103
8.95 0.34354
9 0.32624
9.05 0.30618
9.1 0.28996
9.15 0.27832
9.2 0.26301
9.25 0.24826
9.3 0.23952
9.35 0.23513
9.4 0.22691
9.45 0.21537
9.5 0.20544
9.55 0.19324
9.6 0.18693
9.65 0.18382
9.7 0.1786
9.75 0.17109
9.8 0.16916
9.85 0.16877
9.9 0.1646
9.95 0.16222
10 0.15635
10.05 0.15041
10.1 0.14996
10.15 0.14749
10.2 0.14309
10.25 0.1396
10.3 0.13535
10.35 0.13013
10.4 0.12778
10.45 0.12555
10.5 0.12594
10.55 0.12312
10.6 0.11887
10.65 0.10947
10.7 0.09613
10.75 0.08542
10.8 0.07254
10.85 0.06678
10.9 0.06163
10.95 0.05821
11 0.05226
11.05 0.04387
11.1 0.03363
11.15 0.02858
11.2 0.02013
11.25 0.00875
11.3 0.00201
11.35 -0.00217
11.4 -0.00742
11.45 -0.01744
11.5 -0.02383
11.55 -0.02967
11.6 -0.03482
11.65 -0.04005
11.7 -0.04552
11.75 -0.05293
11.8 -0.06313
11.85 -0.06714
11.9 -0.06766
11.95 -0.06568
12 -0.06152
12.05 -0.06087
12.1 -0.06103
12.15 -0.0652
12.2 -0.06782
12.25 -0.07404
12.3 -0.07792
12.35 -0.08152
12.4 -0.08736
12.45 -0.09475
12.5 -0.09953
12.55 -0.1013
12.6 -0.10582
12.65 -0.1034
12.7 -0.10181
12.75 -0.10322
12.8 -0.10392
12.85 -0.09974
12.9 -0.09121
12.95 -0.08178
13 -0.07502
13.05 -0.06755
13.1 -0.06534
13.15 -0.06258
13.2 -0.06122
13.25 -0.05941
13.3 -0.05543
13.35 -0.05598
13.4 -0.0625
13.45 -0.06419
13.5 -0.0617
13.55 -0.06345
13.6 -0.06333
13.65 -0.06772
13.7 -0.06954
13.75 -0.06901
13.8 -0.06907
13.85 -0.07206
13.9 -0.07695
13.95 -0.08285
14 -0.08514
14.05 -0.08243
14.1 -0.08115
14.15 -0.08087
14.2 -0.07669
14.25 -0.07285
14.3 -0.0712
14.35 -0.07108
14.4 -0.07026
14.45 -0.06486
14.5 -0.06092
14.55 -0.05656
14.6 -0.05103
14.65 -0.05116
14.7 -0.04892
14.75 -0.0467
14.8 -0.04533
14.85 -0.04025
14.9 -0.03704
14.95 -0.03893
15 -0.0442
15.05 -0.0479
15.1 -0.04832
15.15 -0.04821
15.2 -0.04353
15.25 -0.03638
15.3 -0.03222
15.35 -0.02758
15.4 -0.03057
15.45 -0.03421
15.5 -0.04128
15.55 -0.04247
15.6 -0.04439
15.65 -0.04554
15.7 -0.04476
15.75 -0.04331
15.8 -0.04156
15.85 -0.03798
15.9 -0.03838
15.95 -0.03866
16 -0.03756
16.05 -0.03458
16.1 -0.02985
16.15 -0.02398
16.2 -0.01981
16.25 -0.0194
16.3 -0.02463
16.35 -0.03127
16.4 -0.03777
16.45 -0.04446
16.5 -0.0506
16.55 -0.05417
16.6 -0.0512
16.65 -0.04532
16.7 -0.04462
16.75 -0.04506
16.8 -0.04382
16.85 -0.04627
16.9 -0.0503
16.95 -0.05291
17 -0.05426
17.05 -0.04821
17.1 -0.04362
17.15 -0.0346
17.2 -0.02548
17.25 -0.02069
17.3 -0.02196
17.35 -0.02222
17.4 -0.02261
17.45 -0.0212
17.5 -0.01589
17.55 -0.00878
17.6 -0.00403
17.65 -0.0014
17.7 -0.00276
17.75 -0.00388
17.8 -0.00149
17.85 -0.0048
17.9 -0.00956
17.95 -0.01272
18 -0.01249
18.05 -0.01688
18.1 -0.01852
18.15 -0.02049
18.2 -0.02148
18.25 -0.0177
18.3 -0.01599
18.35 -0.01448
18.4 -0.01076
18.45 -0.01103
18.5 -0.01018
18.55 -0.00837
18.6 -0.00456
18.65 -0.00319
18.7 -0.00152
18.75 -0.00634
18.8 -0.0131
18.85 -0.02001
18.9 -0.02645
18.95 -0.03143
19 -0.03208
19.05 -0.03404
19.1 -0.03318
19.15 -0.03369
19.2 -0.03622
19.25 -0.03449
19.3 -0.03365
19.35 -0.03137
19.4 -0.02478
19.45 -0.0237
19.5 -0.0221
19.55 -0.02283
19.6 -0.02251
19.65 -0.01739
19.7 -0.01723
19.75 -0.01653
19.8 -0.01962
19.85 -0.01769
19.9 -0.01438
19.95 -0.01086
20 -0.00632
20.05 -0.00522
20.1 -0.00807
20.15 -0.01136
20.2 -0.01025
20.25 -0.01137
20.3 -0.00872
20.35 -0.00819
20.4 -0.00463
20.45 -0.00716
20.5 -0.00572
20.55 -0.00807
20.6 -0.00994
20.65 -0.00679
20.7 -0.00176
20.75 0.00228
20.8 0.00675
20.85 0.00428
20.9 -0.00273
20.95 -0.00585
21 -0.0088
21.05 -0.01024
21.1 -0.00632
21.15 -0.00353
21.2 0.00063
21.25 0.00164
21.3 0.00389
21.35 0.0051
21.4 0.00766
21.45 0.01196
21.5 0.00918
21.55 0.00793
21.6 0.00481
21.65 -0.0019
21.7 -0.00502
21.75 -0.01172
21.8 -0.0121
21.85 -0.01296
21.9 -0.01668
21.95 -0.02246
22 -0.02255
22.05 -0.02329
22.1 -0.02052
22.15 -0.01752
22.2 -0.01792
22.25 -0.01915
22.3 -0.01959
22.35 -0.01541
22.4 -0.0133
22.45 -0.01059
22.5 -0.00583
22.55 -0.00157
22.6 -0.0005
22.65 0.00138
22.7 0.00046
22.75 -0.00331
22.8 -0.00781
22.85 -0.01488
22.9 -0.01751
22.95 -0.01619
23 -0.01419
23.05 -0.01413
23.1 -0.01421
23.15 -0.01263
23.2 -0.00969
23.25 -0.01166
23.3 -0.00814
23.35 -0.00775
23.4 -0.00352
23.45 -0.00365
23.5 -0.00347
23.55 -0.00064
23.6 0.00085
23.65 -0.0004
23.7 -0.00084
23.75 0.00061
23.8 0.00067
23.85 0.00211
23.9 0.00627
23.95 0.01021
24 0.00807
24.05 0.00213
24.1 -0.00351
24.15 -0.00457
24.2 -0.00748
24.25 -0.01084
24.3 -0.01276
24.35 -0.01002
24.4 -0.00499
24.45 -0.00096
24.5 0.00369
24.55 0.00726
24.6 0.0119
24.65 0.01237
24.7 0.0085
24.75 0.00798
24.8 0.00526
24.85 0.00115
24.9 -0.00049
24.95 -0.00012
25 -0.00113
25.05 -0.00569
25.1 -0.00705
25.15 -0.00948
25.2 -0.00592
25.25 -0.0076
25.3 -0.00629
25.35 -0.00651
25.4 -0.00617
25.45 -0.00894
25.5 -0.01276
25.55 -0.01421
25.6 -0.01585
25.65 -0.01258
25.7 -0.01151
25.75 -0.00911
25.8 -0.00515
25.85 -0.00312
25.9 -0.0019
25.95 0.00294
26 0.00856
26.05 0.01482
26.1 0.01904
26.15 0.02164
26.2 0.02475
26.25 0.02221
26.3 0.01585
26.35 0.01157
26.4 0.00663
26.45 0.00346
26.5 -0.00124
26.55 -0.00254
26.6 -0.0016
26.65 -0.00054
26.7 -0.00357
26.75 -0.00123
26.8 0.0006
26.85 0.00375
26.9 0.00096
26.95 0.00163
27 -0.00014
27.05 -0.00479
27.1 -0.00812
27.15 -0.01299
27.2 -0.01682
27.25 -0.02092
27.3 -0.0252
27.35 -0.02292
27.4 -0.01746
27.45 -0.01213
27.5 -0.00784
27.55 -0.01094
27.6 -0.0172
27.65 -0.02036
27.7 -0.03008
27.75 -0.03634
27.8 -0.03968
27.85 -0.05096
27.9 -0.06312
27.95 -0.0729
28 -0.08673
28.05 -0.10294
28.1 -0.11861
28.15 -0.14086
28.2 -0.16461
28.25 -0.19625
28.3 -0.23421
28.35 -0.27578
28.4 -0.32301
28.45 -0.37414
28.5 -0.42866
28.55 -0.48313
28.6 -0.53716
28.65 -0.59627
28.7 -0.66024
28.75 -0.73416
28.8 -0.8107
28.85 -0.8888
28.9 -0.97212
28.95 -1.05903
29 -1.14878
29.05 -1.23855
29.1 -1.3242
29.15 -1.41096
29.2 -1.49681
29.25 -1.57836
29.3 -1.65933
29.35 -1.74
29.4 -1.81823
29.45 -1.88578
29.5 -1.94534
29.55 -1.99337
29.6 -2.02996
29.65 -2.05496
29.7 -2.06628
29.75 -2.06553
29.8 -2.05871
29.85 -2.03902
29.9 -2.01456
29.95 -1.98159
30 -1.93537
30.05 -1.87544
30.1 -1.79957
30.15 -1.71536
30.2 -1.62084
30.25 -1.5202
30.3 -1.41443
30.35 -1.29506
30.4 -1.17185
30.45 -1.04376
30.5 -0.90834
30.55 -0.76868
30.6 -0.62764
30.65 -0.48866
30.7 -0.34262
30.75 -0.19623
30.8 -0.05109
30.85 0.09527
30.9 0.23754
30.95 0.37114
31 0.50168
31.05 0.62559
31.1 0.74305
31.15 0.85798
31.2 0.96465
31.25 1.06391
31.3 1.15665
31.35 1.2401
31.4 1.31577
31.45 1.38199
31.5 1.44686
31.55 1.50947
31.6 1.5657
31.65 1.61774
31.7 1.65614
31.75 1.68764
31.8 1.71005
31.85 1.72434
31.9 1.73855
31.95 1.75075
32 1.75672
32.05 1.75993
32.1 1.75874
32.15 1.75332
32.2 1.74763
32.25 1.73887
32.3 1.72508
32.35 1.71563
32.4 1.70129
32.45 1.69138
32.5 1.68351
32.55 1.67666
32.6 1.66656
32.65 1.6521
32.7 1.63112
32.75 1.61112
32.8 1.59045
32.85 1.56984
32.9 1.54356
32.95 1.51696
33 1.493
33.05 1.466
33.1 1.43288
33.15 1.39691
33.2 1.36337
33.25 1.32849
33.3 1.29483
33.35 1.26558
33.4 1.2383
33.45 1.20502
33.5 1.1722
33.55 1.13264
33.6 1.08876
33.65 1.04637
33.7 1.00753
33.75 0.9697
33.8 0.93656
33.85 0.89821
33.9 0.85773
33.95 0.81504
34 0.77716
34.05 0.73744
34.1 0.70213
34.15 0.66321
34.2 0.62473
34.25 0.58915
34.3 0.55593
34.35 0.51965
34.4 0.48156
34.45 0.44968
34.5 0.42137
34.55 0.38758
34.6 0.35444
34.65 0.32101
34.7 0.28615
34.75 0.25493
34.8 0.2261
34.85 0.1972
34.9 0.16922
34.95 0.14235
35 0.11787
35.05 0.09928
35.1 0.08004
35.15 0.05692
35.2 0.03686
35.25 0.01641
35.3 -0.00397
35.35 -0.01979
35.4 -0.03417
35.45 -0.05483
35.5 -0.07237
35.55 -0.0914
35.6 -0.10513
35.65 -0.12068
35.7 -0.14038
35.75 -0.1599
35.8 -0.17728
35.85 -0.19483
35.9 -0.21058
35.95 -0.22659
36 -0.24153
36.05 -0.24708
36.1 -0.25306
36.15 -0.25652
36.2 -0.25957
36.25 -0.25727
36.3 -0.25524
36.35 -0.25248
36.4 -0.25041
36.45 -0.25213
36.5 -0.25307
36.55 -0.25784
36.6 -0.2663
36.65 -0.27767
36.7 -0.29026
36.75 -0.2983
36.8 -0.30298
36.85 -0.30096
36.9 -0.295
36.95 -0.29346
37 -0.29497
37.05 -0.29065
37.1 -0.28508
37.15 -0.28146
37.2 -0.2777
37.25 -0.27963
37.3 -0.28192
37.35 -0.28543
37.4 -0.28395
37.45 -0.28454
37.5 -0.28034
37.55 -0.27989
37.6 -0.27488
37.65 -0.27057
37.7 -0.27049
37.75 -0.26928
37.8 -0.26603
37.85 -0.25945
37.9 -0.24976
37.95 -0.24492
38 -0.24081
38.05 -0.24202
38.1 -0.24011
38.15 -0.24036
38.2 -0.24108
38.25 -0.24238
38.3 -0.24632
38.35 -0.24376
38.4 -0.24156
38.45 -0.23391
38.5 -0.22661
38.55 -0.21983
38.6 -0.21052
38.65 -0.20657
38.7 -0.20789
38.75 -0.20866
38.8 -0.20806
38.85 -0.20649
38.9 -0.20383
38.95 -0.20005
39 -0.19818
39.05 -0.19759
39.1 -0.19993
39.15 -0.20233
39.2 -0.20568
39.25 -0.20618
39.3 -0.20229
39.35 -0.19762
39.4 -0.18906
39.45 -0.1836
39.5 -0.17782
39.55 -0.17091
39.6 -0.16596
39.65 -0.15638
39.7 -0.15331
39.75 -0.15271
39.8 -0.15455
39.85 -0.15604
39.9 -0.15237
39.95 -0.14598
40 -0.13858
40.05 -0.13106
40.1 -0.1224
40.15 -0.11463
40.2 -0.11007
40.25 -0.10792
40.3 -0.10932
40.35 -0.11267
40.4 -0.11192
40.45 -0.10826
40.5 -0.10845
40.55 -0.10432
40.6 -0.10206
40.65 -0.09715
40.7 -0.09856
40.75 -0.10165
40.8 -0.10831
40.85 -0.10763
40.9 -0.10966
40.95 -0.10905
41 -0.10541
41.05 -0.10154
41.1 -0.10187
41.15 -0.10514
41.2 -0.10417
41.25 -0.09853
41.3 -0.09212
41.35 -0.08818
41.4 -0.08389
41.45 -0.08033
41.5 -0.08111
41.55 -0.08339
41.6 -0.08927
41.65 -0.08769
41.7 -0.08492
41.75 -0.08059
41.8 -0.07802
41.85 -0.07895
41.9 -0.07644
41.95 -0.07359
42 -0.0747
42.05 -0.07901
42.1 -0.07816
42.15 -0.08038
42.2 -0.08102
42.25 -0.08431
42.3 -0.08087
42.35 -0.07388
42.4 -0.06728
42.45 -0.05835
42.5 -0.0563
42.55 -0.0525
42.6 -0.05379
42.65 -0.05836
42.7 -0.06123
42.75 -0.06474
42.8 -0.06941
42.85 -0.07224
42.9 -0.07478
42.95 -0.0766
43 -0.07225
43.05 -0.06443
43.1 -0.05612
43.15 -0.04728
43.2 -0.0419
43.25 -0.03723
43.3 -0.03254
43.35 -0.03283
43.4 -0.03136
43.45 -0.0341
43.5 -0.03605
43.55 -0.03881
43.6 -0.04457
43.65 -0.04339
43.7 -0.042
43.75 -0.03642
43.8 -0.03101
43.85 -0.02777
43.9 -0.02709
43.95 -0.02844
44 -0.03111
44.05 -0.03689
44.1 -0.03805
44.15 -0.04264
44.2 -0.04182
44.25 -0.04114
44.3 -0.03865
44.35 -0.03267
44.4 -0.03358
44.45 -0.03878
44.5 -0.03984
44.55 -0.0393
44.6 -0.03942
44.65 -0.03937
44.7 -0.03453
44.75 -0.02694
44.8 -0.02329
44.85 -0.01736
44.9 -0.01305
44.95 -0.01359
45 -0.01231
45.05 -0.01221
45.1 -0.01415
45.15 -0.01577
45.2 -0.01419
45.25 -0.01643
45.3 -0.01559
45.35 -0.01276
45.4 -0.01522
45.45 -0.0172
45.5 -0.02305
45.55 -0.02336
45.6 -0.02435
45.65 -0.02762
45.7 -0.03197
45.75 -0.03098
45.8 -0.02672
45.85 -0.02323
45.9 -0.01793
45.95 -0.01236
46 -0.0108
46.05 -0.00776
46.1 -0.00727
46.15 -0.01271
46.2 -0.01259
46.25 -0.01475
46.3 -0.01915
46.35 -0.02448
46.4 -0.02787
46.45 -0.03133
46.5 -0.03464
46.55 -0.03183
46.6 -0.03002
46.65 -0.02508
46.7 -0.01841
46.75 -0.01046
46.8 -0.01038
46.85 -0.01146
46.9 -0.01405
46.95 -0.01794
47 -0.01843
47.05 -0.01552
47.1 -0.0115
47.15 -0.01081
47.2 -0.01165
47.25 -0.01075
47.3 -0.01088
47.35 -0.0111
47.4 -0.01137
47.45 -0.01605
47.5 -0.01652
47.55 -0.01912
47.6 -0.02034
47.65 -0.01699
47.7 -0.01161
47.75 -0.00387
47.8 0.00265
47.85 0.00146
47.9 0.00187
47.95 0.00251
48 0.00054
48.05 -0.00545
48.1 -0.00677
48.15 -0.00388
48.2 0.00037
48.25 -0.00285
48.3 -0.00984
48.35 -0.01511
48.4 -0.01914
48.45 -0.02489
48.5 -0.03079
48.55 -0.03193
48.6 -0.03156
48.65 -0.0299
48.7 -0.02721
48.75 -0.02555
48.8 -0.02018
48.85 -0.01347
48.9 -0.00955
48.95 -0.00278
49 -0.00237
49.05 -0.0005
49.1 0.00207
49.15 0.00296
49.2 0.00085
49.25 -0.00401
49.3 -0.01075
49.35 -0.01635
49.4 -0.02228
49.45 -0.02895
49.5 -0.03125
49.55 -0.03071
49.6 -0.02534
49.65 -0.02172
49.7 -0.01697
49.75 -0.01781
49.8 -0.01327
49.85 -0.00687
49.9 0.00133
49.95 0.00467
50 0.00375
50.05 0.00217
50.1 0.00304
50.15 0.00179
50.2 -0.00396
50.25 -0.0044
50.3 -0.00525
50.35 -0.00681
50.4 -0.00772
50.45 -0.00527
50.5 -0.00332
50.55 -0.00159
50.6 -0.00215
50.65 -0.00544
50.7 -0.00621
50.75 -0.00252
50.8 -0.00199
50.85 0.00221
50.9 0.0087
50.95 0.01467
51 0.01966
51.05 0.0174
51.1 0.01772
51.15 0.01514
51.2 0.01147
51.25 0.00721
51.3 -0.00008
51.35 -0.0088
51.4 -0.01702
51.45 -0.01801
51.5 -0.01956
51.55 -0.01666
51.6 -0.01073
51.65 -0.00962
51.7 -0.00718
51.75 -0.00697
51.8 -0.00815
51.85 -0.00608
51.9 -0.00294
51.95 0.00109
52 0.00192
52.05 0.00572
52.1 0.00649
52.15 0.00333
52.2 -0.00224
52.25 -0.01063
52.3 -0.01654
52.35 -0.01973
52.4 -0.01925
52.45 -0.01619
52.5 -0.01029
52.55 -0.00675
52.6 -0.00271
52.65 -0.00095
52.7 -0.00204
52.75 0.00138
52.8 0.00317
52.85 0.00455
52.9 0.00337
52.95 0.00068
53 -0.00172
53.05 -0.00513
53.1 -0.00989
53.15 -0.01702
53.2 -0.01634
53.25 -0.01744
53.3 -0.01447
53.35 -0.01226
53.4 -0.01306
53.45 -0.00919
53.5 -0.00473
53.55 -0.0033
53.6 -0.00234
53.65 0.00027
53.7 0.00496
53.75 0.00251
53.8 -0.00181
53.85 -0.0026
53.9 -0.0033
53.95 -0.00316
54 -0.0053
54.05 -0.00981
54.1 -0.01134
54.15 -0.01484
54.2 -0.01422
54.25 -0.01488
54.3 -0.01804
54.35 -0.02261
54.4 -0.02682
54.45 -0.03081
54.5 -0.0317
54.55 -0.03266
54.6 -0.02863
54.65 -0.02041
54.7 -0.01699
54.75 -0.00921
54.8 0.00085
54.85 0.00562
54.9 0.00876
54.95 0.00738
55 0.00613
55.05 0.00351
55.1 0.0036
55.15 0.00004
55.2 -0.00401
55.25 -0.0063
55.3 -0.00281
55.35 -0.00095
55.4 -0.00356
55.45 -0.00475
55.5 -0.00115
55.55 -0.00094
55.6 0.00185
55.65 0.00031
55.7 -0.00515
55.75 -0.00352
55.8 -0.00266
55.85 -0.00008
55.9 0.00462
55.95 0.00351
56 0.00442
56.05 0.00297
56.1 0.00016
56.15 -0.00375
56.2 -0.00141
56.25 0.00107
56.3 0.00114
56.35 0.00373
56.4 0.00092
56.45 -0.00197
56.5 -0.00786
56.55 -0.01189
56.6 -0.01087
56.65 -0.00587
56.7 0.0016
56.75 0.00715
56.8 0.00627
56.85 0.00474
56.9 0.00573
56.95 0.00969
57 0.0149
57.05 0.02082
57.1 0.02073
57.15 0.01854
57.2 0.01118
57.25 0.00721
57.3 0.00449
57.35 -0.00138
57.4 -0.00866
57.45 -0.01015
57.5 -0.00969
57.55 -0.00603
57.6 -0.00408
57.65 -0.00482
57.7 -0.00778
57.75 -0.00808
57.8 -0.00476
57.85 -0.00081
57.9 0.00507
57.95 0.00361
58 0.00354
58.05 0.00103
58.1 -0.00265
58.15 -0.00251
58.2 -0.0027
58.25 -0.00094
58.3 -0.00397
58.35 -0.00681
58.4 -0.0049
58.45 -0.00451
58.5 -0.00171
58.55 -0.00188
58.6 -0.00313
58.65 -0.00137
58.7 -0.00325
58.75 -0.00423
58.8 -0.00567
58.85 -0.00854
58.9 -0.01182
58.95 -0.01391
59 -0.01151
59.05 -0.00818
59.1 -0.00321
59.15 0.00228
59.2 0.00261
59.25 -0.00096
59.3 -0.00295
59.35 -0.00204
59.4 0.00074
59.45 0.00414
59.5 0.00372
59.55 0.00336
59.6 0.00732
59.65 0.01265
59.7 0.01966
59.75 0.01925
59.8 0.01288
59.85 0.00478
59.9 -0.00463
59.95 -0.0111
60 -0.01742
60.05 -0.02071
60.1 -0.01643
60.15 -0.00884
60.2 -0.00769
60.25 -0.0072
60.3 -0.00361
60.35 0.00327
60.4 0.01045
60.45 0.01521
60.5 0.01428
60.55 0.00867
60.6 0.00699
60.65 0.0027
60.7 0.0033
60.75 0.00792
60.8 0.01465
60.85 0.01815
60.9 0.02078
60.95 0.01743
61 0.01816
61.05 0.01848
61.1 0.01267
61.15 0.0042
61.2 -0.00398
61.25 -0.01109
61.3 -0.01546
61.35 -0.02159
61.4 -0.01921
61.45 -0.01644
61.5 -0.01282
61.55 -0.01298
61.6 -0.01064
61.65 -0.01101
61.7 -0.01218
61.75 -0.01159
61.8 -0.01039
61.85 -0.01052
61.9 -0.00723
61.95 -0.00215
62 0.00352
62.05 0.00841
62.1 0.01482
62.15 0.02099
62.2 0.02396
62.25 0.01948
62.3 0.01957
62.35 0.01321
62.4 0.01099
62.45 0.00836
62.5 0.00168
62.55 -0.003
62.6 -0.00405
62.65 -0.00784
62.7 -0.01365
62.75 -0.01924
62.8 -0.01907
62.85 -0.01802
62.9 -0.01508
62.95 -0.00931
63 -0.00741
63.05 -0.00726
63.1 -0.00688
63.15 -0.00139
63.2 0.00017
63.25 -0.00203
63.3 -0.00155
63.35 -0.00454
63.4 -0.00938
63.45 -0.00975
63.5 -0.01021
63.55 -0.01
63.6 -0.00792
63.65 -0.00542
63.7 -0.00615
63.75 -0.00209
63.8 0.00281
63.85 0.0036
63.9 0.00734
63.95 0.01085
64 0.01588
64.05 0.02219
64.1 0.02626
64.15 0.02239
64.2 0.01419
64.25 0.00809
64.3 0.00227
64.35 -0.00071
64.4 -0.00583
64.45 -0.00573
64.5 -0.00457
64.55 -0.00038
64.6 0.00393
64.65 0.00489
64.7 0.00325
64.75 -0.00098
64.8 -0.0058
64.85 -0.01253
64.9 -0.02029
64.95 -0.0266
65 -0.0315
65.05 -0.03147
65.1 -0.02515
65.15 -0.0158
65.2 -0.01173
65.25 -0.01222
65.3 -0.01495
65.35 -0.01446
65.4 -0.00862
65.45 -0.00132
65.5 0.00651
65.55 0.01365
65.6 0.0211
65.65 0.02409
65.7 0.01996
65.75 0.01547
65.8 0.00719
65.85 0.00347
65.9 -0.00351
65.95 -0.00313
66 -0.00234
66.05 -0.00221
66.1 -0.00399
66.15 -0.00394
66.2 -0.0073
66.25 -0.00909
66.3 -0.00995
66.35 -0.00754
66.4 -0.00965
66.45 -0.00602
66.5 -0.00658
66.55 -0.00416
66.6 -0.0012
66.65 0.0044
66.7 0.00371
66.75 0.00483
66.8 0.00631
66.85 0.00486
66.9 0.00222
66.95 0.00481
67 0.00895
67.05 0.00777
67.1 0.00704
67.15 0.00633
67.2 0.00843
67.25 0.00776
67.3 0.00553
67.35 -0.00053
67.4 -0.0005
67.45 0.00367
67.5 0.0066
67.55 0.00368
67.6 0.00606
67.65 0.00419
67.7 0.00036
67.75 0.00088
67.8 -0.00141
67.85 -0.00281
67.9 -0.00302
67.95 -0.00255
68 -0.00229
68.05 -0.00616
68.1 -0.00432
68.15 -0.00223
68.2 0.00225
68.25 0.00179
68.3 -0.00097
68.35 0.0011
68.4 0.00087
68.45 0.00115
68.5 0.00257
68.55 0.00718
68.6 0.00783
68.65 0.00293
68.7 -0.00043
68.75 -0.00189
68.8 -0.00164
68.85 -0.00191
68.9 -0.00149
68.95 0.00036
69 0.00112
69.05 0.00518
69.1 0.00557
69.15 0.00478
69.2 -0.00038
69.25 -0.0051
69.3 -0.00384
69.35 -0.00467
69.4 -0.00812
69.45 -0.01276
69.5 -0.01428
69.55 -0.01694
69.6 -0.0174
69.65 -0.01749
69.7 -0.01331
69.75 -0.00849
69.8 -0.00779
69.85 -0.00947
69.9 -0.01163
69.95 -0.00936
70 -0.00551
70.05 -0.00261
70.1 0.00081
70.15 0.00134
70.2 -0.0027
70.25 -0.00527
70.3 -0.01047
70.35 -0.01734
70.4 -0.02003
70.45 -0.02336
70.5 -0.02542
70.55 -0.02262
70.6 -0.02005
70.65 -0.01988
70.7 -0.01985
70.75 -0.0174
70.8 -0.0179
70.85 -0.01847
70.9 -0.01343
70.95 -0.00763
71 0.00057
71.05 0.00397
71.1 0.00674
71.15 0.00821
71.2 0.01063
71.25 0.007
71.3 0.00487
71.35 0.00415
71.4 0.00766
71.45 0.01367
71.5 0.01204
71.55 0.01118
71.6 0.01351
71.65 0.0139
71.7 0.01661
71.75 0.01714
71.8 0.01289
71.85 0.00492
71.9 -0.00108
71.95 -0.0013
72 -0.00285
72.05 -0.00318
72.1 -0.00445
72.15 -0.00583
72.2 -0.00575
72.25 -0.00365
72.3 -0.00613
72.35 -0.00481
72.4 0.00097
72.45 0.00493
72.5 0.00854
72.55 0.00813
72.6 0.00432
72.65 -0.00246
72.7 -0.00822
72.75 -0.01086
72.8 -0.01126
72.85 -0.01354
72.9 -0.01705
72.95 -0.0141
73 -0.01169
73.05 -0.0058
73.1 0.00182
73.15 0.00613
73.2 0.0099
73.25 0.0097
73.3 0.00462
73.35 0.00569
73.4 0.00188
73.45 0.00092
73.5 -0.00003
73.55 0.00039
73.6 -0.00272
73.65 -0.00042
73.7 -0.00126
73.75 -0.00279
73.8 -0.00746
73.85 -0.0076
73.9 -0.01109
73.95 -0.0094
74 -0.00259
74.05 -0.00208
74.1 -0.00099
74.15 -0.0043
74.2 -0.00327
74.25 0.00202
74.3 0.00634
74.35 0.01257
74.4 0.01478
74.45 0.01178
74.5 0.00467
74.55 0.00261
74.6 0.0009
74.65 -0.00199
74.7 -0.00236
74.75 -0.00468
74.8 -0.00532
74.85 -0.00066
74.9 0.00345
74.95 0.00517
75 0.00206
75.05 0.0043
75.1 0.00896
75.15 0.00766
75.2 0.00263
75.25 -0.00111
75.3 0.00122
75.35 0.00196
75.4 -0.00046
75.45 -0.00613
75.5 -0.0128
75.55 -0.01445
75.6 -0.01676
75.65 -0.014
75.7 -0.008
75.75 -0.00269
75.8 0.0019
75.85 0.00403
75.9 0.00223
75.95 -0.00045
76 -0.00352
76.05 -0.00291
76.1 -0.0012
76.15 0.00353
76.2 0.00239
76.25 0.00111
76.3 0.00323
76.35 0.00099
76.4 0.00297
76.45 0.00887
76.5 0.01171
76.55 0.01656
76.6 0.01796
76.65 0.02058
76.7 0.02249
76.75 0.02509
76.8 0.02682
76.85 0.02253
76.9 0.01528
76.95 0.00976
77 0.00688
77.05 0.00107
77.1 -0.00633
77.15 -0.01282
77.2 -0.01354
77.25 -0.0144
77.3 -0.01799
77.35 -0.02144
77.4 -0.02239
77.45 -0.02345
77.5 -0.0194
77.55 -0.01702
77.6 -0.01327
77.65 -0.00777
77.7 -0.00024
77.75 0.0055
77.8 0.00707
77.85 0.00345
77.9 0.0035
77.95 0.00781
78 0.0122
78.05 0.01567
78.1 0.01267
78.15 0.00864
78.2 0.00568
78.25 0.00129
78.3 0.00283
78.35 -0.00037
78.4 -0.00604
78.45 -0.01255
78.5 -0.01458
78.55 -0.01738
78.6 -0.02073
78.65 -0.01702
78.7 -0.01674
78.75 -0.0116
78.8 -0.00674
78.85 -0.0066
78.9 -0.00229
78.95 -0.00236
79 0.00128
79.05 0.00732
79.1 0.01015
79.15 0.00733
79.2 0.00745
79.25 0.0097
79.3 0.00972
79.35 0.00734
79.4 0.00554
79.45 0.00762
79.5 0.00805
79.55 0.005
79.6 0.00231
79.65 0.00285
79.7 0.00471
79.75 0.00401
79.8 0.00109
79.85 -0.0019
79.9 -0.00269
79.95 -0.00137
80 0.00105
80.05 0.00654
80.1 0.0077
80.15 0.01161
80.2 0.01086
80.25 0.0099
80.3 0.00796
80.35 0.00482
80.4 0.00098
80.45 -0.00187
80.5 -0.00102
80.55 0.00198
80.6 0.00054
80.65 -0.00372
80.7 -0.01055
80.75 -0.01829
80.8 -0.02599
80.85 -0.02759
80.9 -0.0236
80.95 -0.01991
81 -0.01408
81.05 -0.01338
81.1 -0.01362
81.15 -0.00859
81.2 0.00015
81.25 0.00455
81.3 0.01018
81.35 0.0164
81.4 0.02368
81.45 0.0279
81.5 0.02947
81.55 0.03126
81.6 0.03396
81.65 0.03134
81.7 0.03103
81.75 0.03231
81.8 0.02845
81.85 0.02401
81.9 0.01725
81.95 0.0074
82 0.0035
82.05 -0.00124
82.1 -0.0062
82.15 -0.01288
82.2 -0.01239
82.25 -0.01463
82.3 -0.01881
82.35 -0.02386
82.4 -0.02318
82.45 -0.02442
82.5 -0.02176
82.55 -0.01728
82.6 -0.01654
82.65 -0.01142
82.7 -0.01008
82.75 -0.01221
82.8 -0.00895
82.85 -0.00947
82.9 -0.01203
82.95 -0.00985
83 -0.00929
83.05 -0.0072
83.1 -0.00405
83.15 -0.00265
83.2 0.00228
83.25 0.00408
83.3 0.00536
83.35 0.00563
83.4 0.00853
83.45 0.00747
83.5 0.00645
83.55 0.00664
83.6 0.0029
83.65 0.00384
83.7 0.00423
83.75 0.00794
83.8 0.00862
83.85 0.00771
83.9 0.0104
83.95 0.01107
84 0.01441
84.05 0.01201
84.1 0.01244
84.15 0.01435
84.2 0.01386
84.25 0.01452
84.3 0.00963
84.35 0.00372
84.4 -0.00284
84.45 -0.00566
84.5 -0.00681
84.55 -0.00949
84.6 -0.01085
84.65 -0.01132
84.7 -0.01183
84.75 -0.01577
84.8 -0.02064
84.85 -0.02327
84.9 -0.02707
84.95 -0.02437
85 -0.02491
85.05 -0.02495
85.1 -0.0232
85.15 -0.02297
85.2 -0.0206
85.25 -0.01569
85.3 -0.0109
85.35 -0.00573
85.4 -0.00114
85.45 0.00204
85.5 0.00684
85.55 0.01212
85.6 0.01589
85.65 0.01438
85.7 0.01701
85.75 0.02022
85.8 0.02243
85.85 0.02241
85.9 0.01945
85.95 0.01513
86 0.00827
86.05 0.00715
86.1 0.0021
86.15 -0.00303
86.2 -0.00451
86.25 -0.00659
86.3 -0.00376
86.35 0.00279
86.4 0.00729
86.45 0.00989
86.5 0.01403
86.55 0.0187
86.6 0.02115
86.65 0.0214
86.7 0.01814
86.75 0.01762
86.8 0.01347
86.85 0.01239
86.9 0.01034
86.95 0.00986
87 0.00502
87.05 0.00008
87.1 -0.00213
87.15 -0.00717
87.2 -0.0052
87.25 -0.0027
87.3 -0.005
87.35 -0.00501
87.4 -0.00315
87.45 0.00239
87.5 0.00993
87.55 0.01543
87.6 0.01563
87.65 0.01442
87.7 0.00773
87.75 -0.00185
87.8 -0.00416
87.85 -0.00593
87.9 -0.00786
87.95 -0.00468
88 -0.0033
88.05 -0.00103
88.1 0.00025
88.15 -0.00366
88.2 -0.0035
88.25 -0.00578
88.3 -0.00484
88.35 -0.00535
88.4 -0.00084
88.45 0.00211
88.5 0.00581
88.55 0.00575
88.6 0.00864
88.65 0.01036
88.7 0.01226
88.75 0.01449
88.8 0.01727
88.85 0.02006
88.9 0.02146
88.95 0.02347
89 0.02524
89.05 0.0219
89.1 0.01545
89.15 0.00621
89.2 -0.00014
89.25 -0.00387
89.3 -0.00955
89.35 -0.01177
89.4 -0.00826
89.45 -0.00373
89.5 0.0036
89.55 0.00378
89.6 0.00065
89.65 0.00243
89.7 0.00734
89.75 0.00687
89.8 0.00577
89.85 0.00189
89.9 -0.00351
89.95 -0.01061
90 -0.00998
90.05 -0.005
90.1 -0.00495
90.15 -0.00847
90.2 -0.01177
90.25 -0.01446
90.3 -0.01241
90.35 -0.00824
90.4 -0.00799
90.45 -0.00365
90.5 0.00094
90.55 0.00104
90.6 0.00422
90.65 0.00532
90.7 0.00667
90.75 0.00233
90.8 -0.0032
90.85 -0.00972
90.9 -0.01696
90.95 -0.01653
91 -0.01454
91.05 -0.01236
91.1 -0.01297
91.15 -0.01075
91.2 -0.01029
91.25 -0.00996
91.3 -0.00511
91.35 -0.00527
91.4 -0.00733
91.45 -0.0049
91.5 -0.00186
91.55 -0.00195
91.6 -0.0065
91.65 -0.01301
91.7 -0.01222
91.75 -0.01208
91.8 -0.00999
91.85 -0.01233
91.9 -0.01314
91.95 -0.00787
92 -0.00089
92.05 0.00488
92.1 0.00745
92.15 0.01081
92.2 0.01016
92.25 0.00654
92.3 0.00819
92.35 0.01125
92.4 0.01264
92.45 0.00848
92.5 0.00519
92.55 -0.00045
92.6 -0.00011
92.65 0.00203
92.7 0.00759
92.75 0.00945
92.8 0.00874
92.85 0.00518
92.9 0.00059
92.95 -0.00055
93 -0.00105
93.05 -0.00226
93.1 0.00088
93.15 0.00013
93.2 -0.00347
93.25 -0.0094
93.3 -0.01496
93.35 -0.01962
93.4 -0.02164
93.45 -0.01964
93.5 -0.01627
93.55 -0.01208
93.6 -0.00442
93.65 -0.00111
93.7 0.00309
93.75 0.00647
93.8 0.00843
93.85 0.01108
93.9 0.01261
93.95 0.01677
94 0.02122
94.05 0.02268
94.1 0.02201
94.15 0.01491
94.2 0.00843
94.25 -0.00001
94.3 -0.00253
94.35 -0.00453
94.4 -0.00617
94.45 -0.00701
94.5 -0.00976
94.55 -0.01513
94.6 -0.02129
94.65 -0.022
94.7 -0.01644
94.75 -0.01363
94.8 -0.0138
94.85 -0.00899
94.9 -0.00352
94.95 0.00089
95 0.00451
95.05 0.00239
95.1 -0.00314
95.15 -0.01023
95.2 -0.01859
95.25 -0.02554
95.3 -0.02879
95.35 -0.0261
95.4 -0.02028
95.45 -0.01902
95.5 -0.01826
95.55 -0.01529
95.6 -0.00991
95.65 -0.00526
95.7 0.00033
95.75 0.00436
95.8 0.00854
95.85 0.01434
95.9 0.01459
95.95 0.01451
96 0.01675
96.05 0.02139
96.1 0.02674
96.15 0.02654
96.2 0.02092
96.25 0.01989
96.3 0.01454
96.35 0.0111
96.4 0.00984
96.45 0.01129
96.5 0.01091
96.55 0.00935
96.6 0.00781
96.65 0.01023
96.7 0.00842
96.75 0.00671
96.8 0.00466
96.85 -0.00177
96.9 -0.01019
96.95 -0.01515
97 -0.01713
97.05 -0.01763
97.1 -0.01265
97.15 -0.00587
97.2 0.00288
97.25 0.01274
97.3 0.02141
97.35 0.02939
97.4 0.03338
97.45 0.03114
97.5 0.02677
97.55 0.02174
97.6 0.01984
97.65 0.01833
97.7 0.0138
97.75 0.00718
97.8 0.00669
97.85 0.0094
97.9 0.01083
97.95 0.01031
98 0.00582
98.05 0.00408
98.1 -0.00077
98.15 -0.00322
98.2 -0.0081
98.25 -0.01319
98.3 -0.013
98.35 -0.01457
98.4 -0.01237
98.45 -0.01459
98.5 -0.01096
98.55 -0.00933
98.6 -0.00809
98.65 -0.00777
98.7 -0.00541
98.75 -0.00346
98.8 0.00076
98.85 0.00483
98.9 0.00722
98.95 0.0057
99 0.0015
99.05 0.00284
99.1 0.00216
99.15 0.00187
99.2 -0.0025
99.25 -0.00987
99.3 -0.01518
99.35 -0.01883
99.4 -0.01769
99.45 -0.01731
99.5 -0.02056
99.55 -0.01997
99.6 -0.01564
99.65 -0.01528
99.7 -0.01268
99.75 -0.01011
99.8 -0.01247
99.85 -0.01772
99.9 -0.01981
99.95 -0.0222
