0 0
0.05 0.00101
0.1 0.00214
0.15 0.0032
0.2 0.00426
0.25 0.00536
0.3 0.00561
0.35 0.0059
0.4 0.00614
0.45 0.00671
0.5 0.00733
0.55 0.00773
0.6 0.00744
0.65 0.00729
0.7 0.00762
0.75 0.00718
0.8 0.00674
0.85 0.00605
0.9 0.00577
0.95 0.00528
1 0.00445
1.05 0.00451
1.1 0.00512
1.15 0.00503
1.2 0.00485
1.25 0.0053
1.3 0.00544
1.35 0.00573
1.4 0.00557
1.45 0.00503
1.5 0.00425
1.55 0.00395
1.6 0.00413
1.65 0.00465
1.7 0.00531
1.75 0.0056
1.8 0.00548
1.85 0.00473
1.9 0.0037
1.95 0.00257
2 0.00213
2.05 0.00188
2.1 0.0023
2.15 0.00291
2.2 0.00354
2.25 0.00361
2.3 0.00408
2.35 0.00477
2.4 0.00549
2.45 0.00583
2.5 0.00612
2.55 0.00625
2.6 0.00558
2.65 0.00494
2.7 0.00482
2.75 0.00423
2.8 0.00328
2.85 0.00248
2.9 0.00247
2.95 0.00247
3 0.00242
3.05 0.00238
3.1 0.00292
3.15 0.00311
3.2 0.00324
3.25 0.00298
3.3 0.00255
3.35 0.00206
3.4 0.00132
3.45 0.00133
3.5 0.00158
3.55 0.00151
3.6 0.00206
3.65 0.00248
3.7 0.00226
3.75 0.00203
3.8 0.00196
3.85 0.00223
3.9 0.00276
3.95 0.00246
4 0.00189
4.05 0.00149
4.1 0.00148
4.15 0.00147
4.2 0.00124
4.25 0.0014
4.3 0.00105
4.35 0.0012
4.4 0.00123
4.45 0.00173
4.5 0.00175
4.55 0.00211
4.6 0.00256
4.65 0.00289
4.7 0.00273
4.75 0.00262
4.8 0.00207
4.85 0.00222
4.9 0.00232
4.95 0.00174
5 0.00134
5.05 0.00136
5.1 0.00097
5.15 0.00105
5.2 0.00082
5.25 0.00046
5.3 -0.00003
5.35 -0.00029
5.4 -0.00078
5.45 -0.00055
5.5 -0.00022
5.55 0.00005
5.6 -0.00016
5.65 -0.00008
5.7 -0.00027
5.75 -0.00077
5.8 -0.00083
5.85 -0.00081
5.9 -0.00036
5.95 -0.00007
6 -0.0003
6.05 -0.00075
6.1 -0.00076
6.15 -0.00058
6.2 -0.00073
6.25 -0.00103
6.3 -0.00092
6.35 -0.00046
6.4 0.00022
6.45 0.00094
6.5 0.00111
6.55 0.00071
6.6 0.00057
6.65 0.00016
6.7 -0.00031
6.75 -0.00032
6.8 -0.00034
6.85 -0.00005
6.9 0.00036
6.95 0.0005
7 0.00119
7.05 0.00185
7.1 0.00216
7.15 0.0018
7.2 0.00095
7.25 0.0001
7.3 -0.00049
7.35 -0.00052
7.4 -0.00091
7.45 -0.00086
7.5 -0.00094
7.55 -0.00028
7.6 0.00026
7.65 0.00013
7.7 0.00055
7.75 0.00085
7.8 0.00066
7.85 0.00029
7.9 0.00065
7.95 0.0014
8 0.00138
8.05 0.00116
8.1 0.00051
8.15 0.00055
8.2 0.00081
8.25 0.00045
8.3 -0.00025
8.35 -0.00109
8.4 -0.00192
8.45 -0.00247
8.5 -0.00238
8.55 -0.00169
8.6 -0.00078
8.65 0.0002
8.7 0.00086
8.75 0.00108
8.8 0.00113
8.85 0.00113
8.9 0.00119
8.95 0.00108
9 0.00122
9.05 0.00165
9.1 0.00145
9.15 0.00099
9.2 0.00067
9.25 0.00098
9.3 0.00128
9.35 0.00161
9.4 0.00201
9.45 0.00202
9.5 0.00137
9.55 0.00098
9.6 0.00087
9.65 0.00033
9.7 -0.00009
9.75 -0.00034
9.8 -0.00002
9.85 0.00019
9.9 0.00057
9.95 0.00071
10 0.00127
10.05 0.00189
10.1 0.00197
10.15 0.00157
10.2 0.00093
10.25 0.00096
10.3 0.00099
10.35 0.00142
10.4 0.00213
10.45 0.00279
10.5 0.00264
10.55 0.00214
10.6 0.00131
10.65 0.00043
10.7 -0.00068
10.75 -0.00146
10.8 -0.00196
10.85 -0.00166
10.9 -0.00158
10.95 -0.00085
11 -0.00032
11.05 0.00032
11.1 0.00058
11.15 0.00058
11.2 0.00107
11.25 0.00112
11.3 0.00118
11.35 0.00092
11.4 0.00041
11.45 0.00031
11.5 0.00073
11.55 0.00108
11.6 0.001
11.65 0.00136
11.7 0.00117
11.75 0.00061
11.8 0.00045
11.85 0.00053
11.9 0.00096
11.95 0.00066
12 0.00093
12.05 0.00116
12.1 0.00172
12.15 0.00166
12.2 0.00107
12.25 0.00066
12.3 -0.00014
12.35 -0.00023
12.4 -0.0008
12.45 -0.00052
12.5 -0.00005
12.55 0.00052
12.6 0.00044
12.65 0.00023
12.7 -0.00009
12.75 -0.00044
12.8 -0.00006
12.85 0.0007
12.9 0.00151
12.95 0.00179
13 0.0024
13.05 0.0025
13.1 0.00201
13.15 0.0017
13.2 0.00084
13.25 0.00021
13.3 -0.00021
13.35 -0.00028
13.4 -0.00016
13.45 0.00028
13.5 0.00008
13.55 0.00031
13.6 0.00002
13.65 -0.00051
13.7 -0.00097
13.75 -0.00133
13.8 -0.00149
13.85 -0.00154
13.9 -0.00137
13.95 -0.00073
14 0.0002
14.05 0.00066
14.1 0.00043
14.15 -0
14.2 -0.00045
14.25 -0.00097
14.3 -0.00082
14.35 -0.00034
14.4 0.00008
14.45 0.0009
14.5 0.00119
14.55 0.00168
14.6 0.00156
14.65 0.00087
14.7 0.00082
14.75 0.00058
14.8 -0.00011
14.85 -0.00014
14.9 -0.0002
14.95 -0.00076
15 -0.00138
15.05 -0.00117
15.1 -0.0004
15.15 0.00037
15.2 0.00116
15.25 0.00103
15.3 0.00074
15.35 0.00026
15.4 -0.00061
15.45 -0.0016
15.5 -0.00172
15.55 -0.00167
15.6 -0.00167
15.65 -0.00199
15.7 -0.0018
15.75 -0.00126
15.8 -0.00082
15.85 -0.00018
15.9 0.00031
15.95 0.00049
16 0.00099
16.05 0.00114
16.1 0.00132
16.15 0.00114
16.2 0.00073
16.25 0.0007
16.3 0.00092
16.35 0.00106
16.4 0.00082
16.45 0.00059
16.5 0.00094
16.55 0.00126
16.6 0.00181
16.65 0.00235
16.7 0.00305
16.75 0.00335
16.8 0.0035
16.85 0.00282
16.9 0.00209
16.95 0.00116
17 0.00052
17.05 -0.0003
17.1 -0.00116
17.15 -0.00164
17.2 -0.00227
17.25 -0.0028
17.3 -0.00313
17.35 -0.0036
17.4 -0.00413
17.45 -0.00355
17.5 -0.00305
17.55 -0.00204
17.6 -0.00142
17.65 -0.00125
17.7 -0.00157
17.75 -0.0021
17.8 -0.0024
17.85 -0.00291
17.9 -0.00285
17.95 -0.00286
18 -0.00231
18.05 -0.00129
18.1 -0.00036
18.15 0.00026
18.2 0.00041
18.25 0.00031
18.3 0.00031
18.35 0.00055
18.4 0.00017
18.45 0.00009
18.5 0.00011
18.55 0.00045
18.6 0.00101
18.65 0.00169
18.7 0.00202
18.75 0.00179
18.8 0.0012
18.85 0.00098
18.9 0.00103
18.95 0.00096
19 0.00135
19.05 0.00135
19.1 0.00181
19.15 0.00214
19.2 0.00253
19.25 0.00266
19.3 0.00256
19.35 0.00172
19.4 0.00057
19.45 -0.00044
19.5 -0.00116
19.55 -0.00197
19.6 -0.00265
19.65 -0.0026
19.7 -0.00224
19.75 -0.00225
19.8 -0.00254
19.85 -0.00256
19.9 -0.00267
19.95 -0.00295
20 -0.00265
20.05 -0.00267
20.1 -0.00219
20.15 -0.00196
20.2 -0.0011
20.25 -0.00091
20.3 -0.00049
20.35 0.00026
20.4 0.00131
20.45 0.00222
20.5 0.00259
20.55 0.00319
20.6 0.00317
20.65 0.00347
20.7 0.00389
20.75 0.00424
20.8 0.00459
20.85 0.00469
20.9 0.00487
20.95 0.00413
21 0.00361
21.05 0.00259
21.1 0.0016
21.15 0.0009
21.2 0.00049
21.25 -0.0002
21.3 -0.00096
21.35 -0.00088
21.4 -0.00064
21.45 -0.00046
21.5 -0.00068
21.55 -0.00107
21.6 -0.00116
21.65 -0.00138
21.7 -0.00107
21.75 -0.00118
21.8 -0.0015
21.85 -0.00189
21.9 -0.00208
21.95 -0.00185
22 -0.00171
22.05 -0.00182
22.1 -0.00142
22.15 -0.00133
22.2 -0.00101
22.25 -0.00044
22.3 0.00016
22.35 0.00047
22.4 0.00083
22.45 0.00097
22.5 0.00059
22.55 -0.00012
22.6 -0.0005
22.65 -0.00099
22.7 -0.00095
22.75 -0.00077
22.8 -0.00084
22.85 -0.00072
22.9 -0.00051
22.95 -0.00017
23 -0.0001
23.05 0.00016
23.1 0.00008
23.15 0.00047
23.2 0.001
23.25 0.00166
23.3 0.00183
23.35 0.00149
23.4 0.00146
23.45 0.00094
23.5 0.00063
23.55 0.00081
23.6 0.00076
23.65 0.00055
23.7 -0.00019
23.75 -0.00051
23.8 -0.00066
23.85 -0.00082
23.9 -0.00141
23.95 -0.00114
24 -0.00109
24.05 -0.00101
24.1 -0.00064
24.15 -0.0005
24.2 -0.00093
24.25 -0.00166
24.3 -0.00144
24.35 -0.00172
24.4 -0.00135
24.45 -0.00121
24.5 -0.00122
24.55 -0.00073
24.6 -0.00015
24.65 0.00072
24.7 0.00156
24.75 0.00154
24.8 0.00091
24.85 0.00097
24.9 0.00144
24.95 0.00215
25 0.00186
25.05 0.00196
25.1 0.00169
25.15 0.00135
25.2 0.00078
25.25 -0.0002
25.3 -0.00025
25.35 -0.00023
25.4 -0.00011
25.45 -0.00056
25.5 -0.00045
25.55 0.00021
25.6 0.00062
25.65 0.00068
25.7 0.00076
25.75 0.00125
25.8 0.00186
25.85 0.00176
25.9 0.00128
25.95 0.00064
26 0.00055
26.05 0.00096
26.1 0.00158
26.15 0.00139
26.2 0.00062
26.25 0.00049
26.3 0.00072
26.35 0.00119
26.4 0.00139
26.45 0.0011
26.5 0.00054
26.55 0.00002
26.6 -0.00005
26.65 -0.00028
26.7 0.00003
26.75 0.00012
26.8 -0.00032
26.85 -0.00048
26.9 -0.00012
26.95 0.00064
27 0.00052
27.05 0.00059
27.1 0.00096
27.15 0.0009
27.2 0.00091
27.25 0.0009
27.3 0.00068
27.35 0.00005
27.4 -0.00092
27.45 -0.0019
27.5 -0.00234
27.55 -0.0029
27.6 -0.00321
27.65 -0.00302
27.7 -0.00215
27.75 -0.00177
27.8 -0.00154
27.85 -0.00162
27.9 -0.00107
27.95 -0.00082
28 -0.00032
28.05 -0.00055
28.1 -0.00085
28.15 -0.00131
28.2 -0.00195
28.25 -0.00197
28.3 -0.00215
28.35 -0.00249
28.4 -0.00268
28.45 -0.00231
28.5 -0.00225
28.55 -0.00198
28.6 -0.00151
28.65 -0.00132
28.7 -0.00153
28.75 -0.00188
28.8 -0.00193
28.85 -0.00134
28.9 -0.00068
28.95 -0.00069
29 -0.00014
29.05 0.00024
29.1 0.00095
29.15 0.00125
29.2 0.00185
29.25 0.00218
29.3 0.00265
29.35 0.00264
29.4 0.00244
29.45 0.00167
29.5 0.00135
29.55 0.00051
29.6 0.00047
29.65 0.00049
29.7 -0.00008
29.75 -0.00004
29.8 -0.00039
29.85 -0.00066
29.9 -0.00108
29.95 -0.00178
30 -0.00215
30.05 -0.00261
30.1 -0.00227
30.15 -0.00218
30.2 -0.00164
30.25 -0.00086
30.3 -0.00084
30.35 -0.00068
30.4 -0.00096
30.45 -0.00087
30.5 -0.00106
30.55 -0.00117
30.6 -0.00061
30.65 -0.00042
30.7 -0.00027
30.75 0.00028
30.8 0.00097
30.85 0.00098
30.9 0.00116
30.95 0.00105
31 0.00054
31.05 -0.00021
31.1 -0.00092
31.15 -0.00097
31.2 -0.00089
31.25 -0.00114
31.3 -0.00119
31.35 -0.00146
31.4 -0.00168
31.45 -0.00208
31.5 -0.00247
31.55 -0.00237
31.6 -0.00208
31.65 -0.00191
31.7 -0.00209
31.75 -0.00145
31.8 -0.00123
31.85 -0.00094
31.9 -0.00093
31.95 -0.0012
32 -0.00082
32.05 -0.00097
32.1 -0.00112
32.15 -0.00065
32.2 -0.00046
32.25 -0.0007
32.3 -0.001
32.35 -0.0013
32.4 -0.0016
32.45 -0.00106
32.5 -0.00078
32.55 0.00009
32.6 0.00123
32.65 0.00159
32.7 0.00214
32.75 0.00185
32.8 0.00177
32.85 0.00174
32.9 0.00168
32.95 0.00122
33 0.00101
33.05 0.00054
33.1 -0.00002
33.15 -0.00039
33.2 -0.00061
33.25 -0.00103
33.3 -0.00081
33.35 -0.00088
33.4 -0.00073
33.45 -0.00104
33.5 -0.00098
33.55 -0.0011
33.6 -0.00059
33.65 0.00012
33.7 0.00073
33.75 0.00086
33.8 0.00038
33.85 0.00016
33.9 0.00009
33.95 0.00007
34 -0.00001
34.05 -0.00052
34.1 -0.0004
34.15 -0.00008
34.2 0.00056
34.25 0.00144
34.3 0.00249
34.35 0.00327
34.4 0.00368
34.45 0.00395
34.5 0.00371
34.55 0.00278
34.6 0.00185
34.65 0.00081
34.7 -0.00005
34.75 -0.00017
34.8 -0.00045
34.85 -0.00095
34.9 -0.00068
34.95 -0.00028
35 -0.00005
35.05 0.00059
35.1 0.00066
35.15 0.00118
35.2 0.0017
35.25 0.00203
35.3 0.00184
35.35 0.00148
35.4 0.00081
35.45 -0.0002
35.5 -0.00126
35.55 -0.00198
35.6 -0.00277
35.65 -0.00277
35.7 -0.00296
35.75 -0.00268
35.8 -0.00223
35.85 -0.0023
35.9 -0.00265
35.95 -0.00214
36 -0.00141
36.05 -0.00047
36.1 0.00025
36.15 0.00056
36.2 0.0003
36.25 0.00057
36.3 0.00045
36.35 0.00021
36.4 0.0003
36.45 0.00031
36.5 0.00019
36.55 -0.00007
36.6 -0.00021
36.65 0.00012
36.7 0.00081
36.75 0.00155
36.8 0.00147
36.85 0.00166
36.9 0.00215
36.95 0.00268
37 0.00289
37.05 0.00294
37.1 0.00252
37.15 0.00157
37.2 0.0013
37.25 0.00092
37.3 0.00102
37.35 0.00141
37.4 0.00152
37.45 0.00117
37.5 0.0005
37.55 0.00045
37.6 0.0007
37.65 0.00129
37.7 0.0021
37.75 0.00256
37.8 0.00285
37.85 0.00324
37.9 0.00371
37.95 0.00391
38 0.004
38.05 0.00362
38.1 0.00335
38.15 0.00239
38.2 0.00205
38.25 0.00114
38.3 0.00081
38.35 0.00025
38.4 -0.00059
38.45 -0.00159
38.5 -0.00255
38.55 -0.00246
38.6 -0.0025
38.65 -0.00251
38.7 -0.00203
38.75 -0.00132
38.8 -0.00135
38.85 -0.0011
38.9 -0.00079
38.95 -0.00006
39 0.00089
39.05 0.00128
39.1 0.00183
39.15 0.00214
39.2 0.00186
39.25 0.00145
39.3 0.00127
39.35 0.00056
39.4 0.00035
39.45 0.0005
39.5 0.00029
39.55 -0.00042
39.6 -0.00124
39.65 -0.00169
39.7 -0.0023
39.75 -0.00307
39.8 -0.00342
39.85 -0.0037
39.9 -0.00352
39.95 -0.00361
40 -0.00324
40.05 -0.00276
40.1 -0.00199
40.15 -0.0012
40.2 -0.00021
40.25 0.00073
40.3 0.00153
40.35 0.00152
40.4 0.00131
40.45 0.00128
40.5 0.00061
40.55 -0.00024
40.6 -0.00096
40.65 -0.00128
40.7 -0.00165
40.75 -0.00177
40.8 -0.00126
40.85 -0.00053
40.9 -0.00012
40.95 0.00049
41 0.00076
41.05 0.00141
41.1 0.00209
41.15 0.00216
41.2 0.00188
41.25 0.001
41.3 0.00078
41.35 0.00038
41.4 0.00035
41.45 0.00083
41.5 0.00054
41.55 -0.0002
41.6 -0.00035
41.65 0.00011
41.7 0.00086
41.75 0.00135
41.8 0.00161
41.85 0.00154
41.9 0.00142
41.95 0.00162
42 0.00125
42.05 0.00136
42.1 0.0017
42.15 0.00143
42.2 0.00135
42.25 0.00127
42.3 0.00051
42.35 0.00037
42.4 -0.00036
42.45 -0.00033
42.5 -0.00048
42.55 -0.00029
42.6 0.00036
42.65 0.0002
42.7 0.00048
42.75 0.00007
42.8 -0.00054
42.85 -0.0007
42.9 -0.00121
42.95 -0.00148
43 -0.00187
43.05 -0.0021
43.1 -0.00248
43.15 -0.00198
43.2 -0.00208
43.25 -0.00184
43.3 -0.002
43.35 -0.00195
43.4 -0.00125
43.45 -0.00113
43.5 -0.00111
43.55 -0.00104
43.6 -0.00094
43.65 -0.00043
43.7 -0.00005
43.75 0.00036
43.8 0.0009
43.85 0.00069
43.9 0.00032
43.95 0.00001
44 -0.00066
44.05 -0.00118
44.1 -0.00125
44.15 -0.00124
44.2 -0.00138
44.25 -0.0014
44.3 -0.00082
44.35 -0.00091
44.4 -0.00055
44.45 0.00015
44.5 0.00019
44.55 0.00016
44.6 -0.00028
44.65 -0.00077
44.7 -0.00117
44.75 -0.00179
44.8 -0.00249
44.85 -0.00226
44.9 -0.00193
44.95 -0.00212
45 -0.00205
45.05 -0.00127
45.1 -0.00104
45.15 -0.00117
45.2 -0.00058
45.25 -0.0005
45.3 -0.00056
45.35 -0.00109
45.4 -0.00095
45.45 -0.00106
45.5 -0.00113
45.55 -0.00093
45.6 -0.00064
45.65 -0.00013
45.7 0.0004
45.75 0.0011
45.8 0.00094
45.85 0.0006
45.9 -0
45.95 -0.00003
46 -0.00012
46.05 -0.00016
46.1 -0.00043
46.15 -0.0007
46.2 -0.00084
46.25 -0.00047
46.3 -0.0001
46.35 -0.00023
46.4 -0.00028
46.45 -0.00059
46.5 -0.00098
46.55 -0.00152
46.6 -0.0014
46.65 -0.00075
46.7 0.00019
46.75 0.00086
46.8 0.00148
46.85 0.00156
46.9 0.00094
46.95 0.00098
47 0.00056
47.05 -0.00011
47.1 -0.00031
47.15 0.00001
47.2 0.00036
47.25 0.00012
47.3 0.00022
47.35 0.00085
47.4 0.00114
47.45 0.00133
47.5 0.00138
47.55 0.00164
47.6 0.00219
47.65 0.0029
47.7 0.00319
47.75 0.00278
47.8 0.00245
47.85 0.00188
47.9 0.00097
47.95 0.00035
48 -0.00086
48.05 -0.0016
48.1 -0.00185
48.15 -0.00284
48.2 -0.00363
48.25 -0.00466
48.3 -0.00622
48.35 -0.00735
48.4 -0.00807
48.45 -0.00875
48.5 -0.01032
48.55 -0.01189
48.6 -0.01357
48.65 -0.0157
48.7 -0.01783
48.75 -0.02024
48.8 -0.02329
48.85 -0.02705
48.9 -0.03201
48.95 -0.0372
49 -0.04333
49.05 -0.05025
49.1 -0.05756
49.15 -0.06561
49.2 -0.0741
49.25 -0.08303
49.3 -0.09238
49.35 -0.10268
49.4 -0.11373
49.45 -0.12566
49.5 -0.13833
49.55 -0.1512
49.6 -0.16419
49.65 -0.17763
49.7 -0.19118
49.75 -0.2049
49.8 -0.21866
49.85 -0.23299
49.9 -0.24742
49.95 -0.26157
50 -0.27454
50.05 -0.28711
50.1 -0.29927
50.15 -0.30964
50.2 -0.31837
50.25 -0.32604
50.3 -0.33247
50.35 -0.33683
50.4 -0.33887
50.45 -0.33847
50.5 -0.33636
50.55 -0.33152
50.6 -0.3246
50.65 -0.31511
50.7 -0.30359
50.75 -0.28993
50.8 -0.27447
50.85 -0.25762
50.9 -0.23948
50.95 -0.21974
51 -0.19956
51.05 -0.17791
51.1 -0.15538
51.15 -0.13237
51.2 -0.10964
51.25 -0.08617
51.3 -0.06221
51.35 -0.03867
51.4 -0.01533
51.45 0.00743
51.5 0.02992
51.55 0.0519
51.6 0.07275
51.65 0.09306
51.7 0.11188
51.75 0.12948
51.8 0.14591
51.85 0.16162
51.9 0.17683
51.95 0.1909
52 0.20485
52.05 0.21824
52.1 0.23114
52.15 0.24264
52.2 0.25332
52.25 0.26271
52.3 0.27147
52.35 0.27943
52.4 0.28611
52.45 0.29249
52.5 0.29757
52.55 0.30218
52.6 0.30637
52.65 0.31012
52.7 0.31306
52.75 0.31463
52.8 0.31563
52.85 0.31539
52.9 0.31365
52.95 0.31139
53 0.30802
53.05 0.30454
53.1 0.3007
53.15 0.29562
53.2 0.28951
53.25 0.28375
53.3 0.27724
53.35 0.26993
53.4 0.26257
53.45 0.25546
53.5 0.24758
53.55 0.23957
53.6 0.2311
53.65 0.22275
53.7 0.21453
53.75 0.20646
53.8 0.19826
53.85 0.19066
53.9 0.18238
53.95 0.17478
54 0.16717
54.05 0.15971
54.1 0.15215
54.15 0.14495
54.2 0.1374
54.25 0.12974
54.3 0.12237
54.35 0.11499
54.4 0.10869
54.45 0.10329
54.5 0.09757
54.55 0.09183
54.6 0.08619
54.65 0.08074
54.7 0.07591
54.75 0.0716
54.8 0.067
54.85 0.0627
54.9 0.05815
54.95 0.05423
55 0.0501
55.05 0.04641
55.1 0.04252
55.15 0.0387
55.2 0.03558
55.25 0.03215
55.3 0.02904
55.35 0.02628
55.4 0.02326
55.45 0.02009
55.5 0.01719
55.55 0.01495
55.6 0.0124
55.65 0.01047
55.7 0.00843
55.75 0.00604
55.8 0.00331
55.85 0.00139
55.9 -0.00068
55.95 -0.00299
56 -0.00519
56.05 -0.00727
56.1 -0.00888
56.15 -0.01099
56.2 -0.01297
56.25 -0.01458
56.3 -0.01608
56.35 -0.01745
56.4 -0.01855
56.45 -0.01973
56.5 -0.02125
56.55 -0.02326
56.6 -0.02504
56.65 -0.02653
56.7 -0.02829
56.75 -0.02977
56.8 -0.03122
56.85 -0.03226
56.9 -0.03279
56.95 -0.03272
57 -0.03324
57.05 -0.03373
57.1 -0.03433
57.15 -0.03447
57.2 -0.03427
57.25 -0.03462
57.3 -0.03499
57.35 -0.0354
57.4 -0.03604
57.45 -0.03621
57.5 -0.036
57.55 -0.03653
57.6 -0.03697
57.65 -0.03701
57.7 -0.03676
57.75 -0.03738
57.8 -0.03829
57.85 -0.03863
57.9 -0.03842
57.95 -0.0384
58 -0.03828
58.05 -0.03868
58.1 -0.03911
58.15 -0.03953
58.2 -0.0402
58.25 -0.04079
58.3 -0.04104
58.35 -0.04128
58.4 -0.04089
58.45 -0.04047
58.5 -0.03953
58.55 -0.03854
58.6 -0.03777
58.65 -0.03758
58.7 -0.03777
58.75 -0.03748
58.8 -0.03728
58.85 -0.03744
58.9 -0.03764
58.95 -0.03699
59 -0.03678
59.05 -0.03666
59.1 -0.03564
59.15 -0.03483
59.2 -0.03452
59.25 -0.03359
59.3 -0.033
59.35 -0.0321
59.4 -0.0312
59.45 -0.03064
59.5 -0.03003
59.55 -0.02986
59.6 -0.02932
59.65 -0.029
59.7 -0.02862
59.75 -0.0287
59.8 -0.02828
59.85 -0.02736
59.9 -0.02646
59.95 -0.026
60 -0.02573
60.05 -0.02539
60.1 -0.02538
60.15 -0.02569
60.2 -0.02621
60.25 -0.02618
60.3 -0.02528
60.35 -0.02477
60.4 -0.02377
60.45 -0.02262
60.5 -0.02183
60.55 -0.02083
60.6 -0.02027
60.65 -0.01994
60.7 -0.02007
60.75 -0.02057
60.8 -0.02062
60.85 -0.02091
60.9 -0.02121
60.95 -0.02069
61 -0.01961
61.05 -0.01924
61.1 -0.01912
61.15 -0.01922
61.2 -0.01941
61.25 -0.01959
61.3 -0.01922
61.35 -0.01857
61.4 -0.01829
61.45 -0.01815
61.5 -0.0177
61.55 -0.01746
61.6 -0.0171
61.65 -0.01706
61.7 -0.01659
61.75 -0.01593
61.8 -0.01536
61.85 -0.01483
61.9 -0.0145
61.95 -0.01392
62 -0.01311
62.05 -0.01294
62.1 -0.01308
62.15 -0.01254
62.2 -0.01212
62.25 -0.012
62.3 -0.01147
62.35 -0.01081
62.4 -0.01041
62.45 -0.00968
62.5 -0.00895
62.55 -0.00873
62.6 -0.00834
62.65 -0.00854
62.7 -0.00937
62.75 -0.01018
62.8 -0.01085
62.85 -0.01158
62.9 -0.0114
62.95 -0.01109
63 -0.01087
63.05 -0.01037
63.1 -0.00959
63.15 -0.00875
63.2 -0.00785
63.25 -0.00737
63.3 -0.00685
63.35 -0.00636
63.4 -0.00661
63.45 -0.00744
63.5 -0.00827
63.55 -0.00893
63.6 -0.00899
63.65 -0.00947
63.7 -0.01006
63.75 -0.00988
63.8 -0.00965
63.85 -0.00931
63.9 -0.00904
63.95 -0.00837
64 -0.00819
64.05 -0.00823
64.1 -0.00834
64.15 -0.00829
64.2 -0.00787
64.25 -0.00737
64.3 -0.00639
64.35 -0.00522
64.4 -0.00433
64.45 -0.00359
64.5 -0.00348
64.55 -0.0039
64.6 -0.0041
64.65 -0.00474
64.7 -0.00495
64.75 -0.00562
64.8 -0.00591
64.85 -0.00657
64.9 -0.00713
64.95 -0.00776
65 -0.00762
65.05 -0.00719
65.1 -0.00684
65.15 -0.00631
65.2 -0.00553
65.25 -0.00511
65.3 -0.00508
65.35 -0.00507
65.4 -0.00457
65.45 -0.00425
65.5 -0.00452
65.55 -0.00484
65.6 -0.00469
65.65 -0.00488
65.7 -0.00514
65.75 -0.00483
65.8 -0.0043
65.85 -0.00357
65.9 -0.00308
65.95 -0.00319
66 -0.00309
66.05 -0.00324
66.1 -0.00341
66.15 -0.00376
66.2 -0.00356
66.25 -0.00341
66.3 -0.00366
66.35 -0.00382
66.4 -0.00405
66.45 -0.0042
66.5 -0.00389
66.55 -0.00382
66.6 -0.00339
66.65 -0.00349
66.7 -0.00324
66.75 -0.00303
66.8 -0.00258
66.85 -0.00268
66.9 -0.0028
66.95 -0.00288
67 -0.00301
67.05 -0.00298
67.1 -0.00291
67.15 -0.00249
67.2 -0.00202
67.25 -0.00224
67.3 -0.00281
67.35 -0.00304
67.4 -0.00328
67.45 -0.00353
67.5 -0.00318
67.55 -0.00289
67.6 -0.00238
67.65 -0.00209
67.7 -0.00148
67.75 -0.00075
67.8 -0.00001
67.85 0.00084
67.9 0.00083
67.95 0.0003
68 -0.00067
68.05 -0.0019
68.1 -0.0025
68.15 -0.00292
68.2 -0.00323
68.25 -0.00347
68.3 -0.00314
68.35 -0.00287
68.4 -0.00214
68.45 -0.00128
68.5 -0.0009
68.55 -0.00121
68.6 -0.00151
68.65 -0.00123
68.7 -0.00076
68.75 -0.00094
68.8 -0.00102
68.85 -0.00135
68.9 -0.00171
68.95 -0.00247
69 -0.00261
69.05 -0.00279
69.1 -0.00261
69.15 -0.00258
69.2 -0.00265
69.25 -0.00219
69.3 -0.00216
69.35 -0.00225
69.4 -0.00197
69.45 -0.00227
69.5 -0.00266
69.55 -0.00247
69.6 -0.00266
69.65 -0.00243
69.7 -0.00223
69.75 -0.0023
69.8 -0.00189
69.85 -0.00166
69.9 -0.00201
69.95 -0.0026
70 -0.00273
70.05 -0.00267
70.1 -0.00288
70.15 -0.00316
70.2 -0.00274
70.25 -0.00281
70.3 -0.00291
70.35 -0.00249
70.4 -0.0022
70.45 -0.00157
70.5 -0.00083
70.55 -0.00002
70.6 0.00034
70.65 0.00097
70.7 0.00083
70.75 0.00079
70.8 0.00062
70.85 0.00054
70.9 0.00006
70.95 -0.00031
71 -0.00045
71.05 -0.00072
71.1 -0.00132
71.15 -0.00117
71.2 -0.0012
71.25 -0.00113
71.3 -0.00048
71.35 -0.00031
71.4 -0.00021
71.45 0.00003
71.5 -0.00021
71.55 -0.00042
71.6 -0.00072
71.65 -0.00033
71.7 0.00039
71.75 0.00062
71.8 0.00077
71.85 0.00066
71.9 0.00064
71.95 0.0003
72 0.00023
72.05 0.00002
72.1 -0.00073
72.15 -0.0015
72.2 -0.00196
72.25 -0.0021
72.3 -0.00232
72.35 -0.00234
72.4 -0.00232
72.45 -0.00215
72.5 -0.00238
72.55 -0.00238
72.6 -0.00274
72.65 -0.00312
72.7 -0.0027
72.75 -0.00221
72.8 -0.00156
72.85 -0.00137
72.9 -0.00124
72.95 -0.00082
73 0.00004
73.05 0.00104
73.1 0.0016
73.15 0.00181
73.2 0.00161
73.25 0.00154
73.3 0.00093
73.35 0.00023
73.4 -0.00001
73.45 -0.0003
73.5 -0.00026
73.55 -0.00068
73.6 -0.00104
73.65 -0.00175
73.7 -0.00199
73.75 -0.00246
73.8 -0.00231
73.85 -0.0017
73.9 -0.00156
73.95 -0.00165
74 -0.00164
74.05 -0.00142
74.1 -0.00151
74.15 -0.00154
74.2 -0.00129
74.25 -0.00069
74.3 -0.00029
74.35 -0.0001
74.4 0.00051
74.45 0.00073
74.5 0.00132
74.55 0.00167
74.6 0.0018
74.65 0.00182
74.7 0.00173
74.75 0.0017
74.8 0.00175
74.85 0.00199
74.9 0.00207
74.95 0.00151
75 0.00114
75.05 0.00063
75.1 -0.0001
75.15 -0.00055
75.2 -0.00077
75.25 -0.0011
75.3 -0.0009
75.35 -0.00081
75.4 -0.00089
75.45 -0.00099
75.5 -0.00046
75.55 0.00037
75.6 0.00062
75.65 0.00026
75.7 0.00055
75.75 0.0001
75.8 0.00021
75.85 0.00002
75.9 0.00018
75.95 0.00022
76 0.00041
76.05 0.00037
76.1 -0.00013
76.15 -0.00059
76.2 -0.00072
76.25 -0.00087
76.3 -0.00071
76.35 -0.00022
76.4 0.0001
76.45 0.0008
76.5 0.00069
76.55 0.00077
76.6 0.00059
76.65 0.00007
76.7 -0.00052
76.75 -0.00057
76.8 -0.0006
76.85 -0.00095
76.9 -0.00053
76.95 -0.0001
77 0.00024
77.05 0.00027
77.1 0.00045
77.15 0.00063
77.2 0.00064
77.25 0.00079
77.3 0.00136
77.35 0.00172
77.4 0.00142
77.45 0.00139
77.5 0.00166
77.55 0.00222
77.6 0.00256
77.65 0.00223
77.7 0.00152
77.75 0.00132
77.8 0.00162
77.85 0.00142
77.9 0.00127
77.95 0.00103
78 0.00106
78.05 0.00131
78.1 0.00083
78.15 -0.00003
78.2 -0.00047
78.25 -0.0003
78.3 -0.00028
78.35 0.00007
78.4 -0.00008
78.45 -0.00026
78.5 -0.00047
78.55 -0.00118
78.6 -0.00135
78.65 -0.00136
78.7 -0.00131
78.75 -0.00133
78.8 -0.0009
78.85 -0.00045
78.9 -0.00029
78.95 -0.00037
79 -0.00058
79.05 -0.00088
79.1 -0.00075
79.15 -0.00096
79.2 -0.00151
79.25 -0.00163
79.3 -0.002
79.35 -0.00153
79.4 -0.001
79.45 -0.00064
79.5 -0.00049
79.55 -0.00056
79.6 -0.00023
79.65 -0.00036
79.7 -0.00011
79.75 0.0002
79.8 0.00029
79.85 0.00029
79.9 0.00048
79.95 0.00083
80 0.00047
80.05 0.00016
80.1 0.00014
80.15 -0.0002
80.2 -0.00042
80.25 -0.0009
80.3 -0.00144
80.35 -0.00189
80.4 -0.00184
80.45 -0.00159
80.5 -0.00134
80.55 -0.00095
80.6 -0.00113
80.65 -0.00066
80.7 0.00008
80.75 0.00039
80.8 0.00063
80.85 0.00081
80.9 0.0003
80.95 -0.00039
81 -0.00092
81.05 -0.00108
81.1 -0.00123
81.15 -0.00108
81.2 -0.00069
81.25 -0.00059
81.3 -0.00064
81.35 -0.00035
81.4 -0.00011
81.45 -0.00033
81.5 -0.00096
81.55 -0.00166
81.6 -0.002
81.65 -0.00221
81.7 -0.00256
81.75 -0.00259
81.8 -0.0023
81.85 -0.00225
81.9 -0.00241
81.95 -0.00206
82 -0.00122
82.05 -0.0007
82.1 -0.00008
82.15 0.00062
82.2 0.00126
82.25 0.00206
82.3 0.00221
82.35 0.0023
82.4 0.00261
82.45 0.00211
82.5 0.00188
82.55 0.00104
82.6 0.00028
82.65 -0.00002
82.7 -0.00009
82.75 -0.00027
82.8 -0.00074
82.85 -0.00129
82.9 -0.00151
82.95 -0.00165
83 -0.0013
83.05 -0.00067
83.1 -0.00071
83.15 -0.00018
83.2 -0.00025
83.25 -0.00066
83.3 -0.00033
83.35 -0.00037
83.4 -0.00061
83.45 -0.00117
83.5 -0.00111
83.55 -0.0007
83.6 -0.00056
83.65 -0.00071
83.7 -0.00058
83.75 -0.00097
83.8 -0.00112
83.85 -0.00139
83.9 -0.00179
83.95 -0.00179
84 -0.00156
84.05 -0.00072
84.1 -0.00051
84.15 -0.00004
84.2 -0.00012
84.25 0.00011
84.3 0.00017
84.35 0.00012
84.4 0.00028
84.45 0.00047
84.5 0.0002
84.55 0.00025
84.6 0.00066
84.65 0.00072
84.7 0.00111
84.75 0.00091
84.8 0.00065
84.85 0.00047
84.9 -0.00023
84.95 -0.00112
85 -0.00142
85.05 -0.00138
85.1 -0.00155
85.15 -0.00175
85.2 -0.00166
85.25 -0.00192
85.3 -0.0018
85.35 -0.00115
85.4 -0.00017
85.45 0.0006
85.5 0.00158
85.55 0.00229
85.6 0.00309
85.65 0.00299
85.7 0.00325
85.75 0.00307
85.8 0.00277
85.85 0.00271
85.9 0.00228
85.95 0.0022
86 0.00204
86.05 0.00203
86.1 0.00187
86.15 0.00184
86.2 0.00139
86.25 0.00064
86.3 -0.00019
86.35 -0.00069
86.4 -0.00148
86.45 -0.00187
86.5 -0.00222
86.55 -0.00174
86.6 -0.00107
86.65 -0.00076
86.7 -0.00027
86.75 0.00043
86.8 0.00107
86.85 0.00103
86.9 0.00146
86.95 0.00129
87 0.00051
87.05 -0.00051
87.1 -0.00128
87.15 -0.00186
87.2 -0.0021
87.25 -0.0025
87.3 -0.00233
87.35 -0.00229
87.4 -0.00208
87.45 -0.00164
87.5 -0.00148
87.55 -0.00108
87.6 -0.00027
87.65 0.00072
87.7 0.00108
87.75 0.0013
87.8 0.00145
87.85 0.00189
87.9 0.00169
87.95 0.00157
88 0.00161
88.05 0.00165
88.1 0.00144
88.15 0.00107
88.2 0.00023
88.25 0.00006
88.3 -0.00034
88.35 -0.0001
88.4 0.0004
88.45 0.00022
88.5 0.00006
88.55 -0.00013
88.6 -0.00005
88.65 0.00046
88.7 0.00071
88.75 0.00125
88.8 0.001
88.85 0.00076
88.9 0.0006
88.95 -0.00004
89 -0.00085
89.05 -0.0009
89.1 -0.00081
89.15 -0.00036
89.2 0.00049
89.25 0.00116
89.3 0.00127
89.35 0.00146
89.4 0.00187
89.45 0.00231
89.5 0.00235
89.55 0.00255
89.6 0.00248
89.65 0.00185
89.7 0.00134
89.75 0.00083
89.8 0.00049
89.85 0.00048
89.9 0.00055
89.95 0.00067
90 0.00015
90.05 -0.00001
90.1 0.00036
90.15 -0.00002
90.2 -0.00046
90.25 -0.00078
90.3 -0.00041
90.35 0.00038
90.4 0.00025
90.45 -0.00032
90.5 -0.00086
90.55 -0.0017
90.6 -0.00226
90.65 -0.00281
90.7 -0.00248
90.75 -0.00239
90.8 -0.00207
90.85 -0.00136
90.9 -0.00121
90.95 -0.00094
91 -0.00087
91.05 -0.00058
91.1 -0.00035
91.15 -0.00043
91.2 -0.00082
91.25 -0.00063
91.3 -0.00053
91.35 -0.00081
91.4 -0.00093
91.45 -0.00119
91.5 -0.00108
91.55 -0.00103
91.6 -0.00076
91.65 -0.00044
91.7 0.00031
91.75 0.0002
91.8 0.00017
91.85 0.00027
91.9 0.00044
91.95 0.00021
92 0.00039
92.05 0.00006
92.1 0.00022
92.15 0.00052
92.2 0.00046
92.25 0.00018
92.3 -0.00043
92.35 -0.00094
92.4 -0.00151
92.45 -0.00202
92.5 -0.00252
92.55 -0.00274
92.6 -0.00269
92.65 -0.00236
92.7 -0.00181
92.75 -0.00187
92.8 -0.0016
92.85 -0.00147
92.9 -0.00103
92.95 -0.001
93 -0.00072
93.05 0.00007
93.1 0.00069
93.15 0.00058
93.2 0.00051
93.25 0.00079
93.3 0.00071
93.35 0.00042
93.4 0.00016
93.45 -0.00037
93.5 -0.00103
93.55 -0.00191
93.6 -0.00221
93.65 -0.00218
93.7 -0.00155
93.75 -0.00122
93.8 -0.00101
93.85 -0.00092
93.9 -0.00111
93.95 -0.00079
94 -0.00024
94.05 -0.00005
94.1 0.00066
94.15 0.00076
94.2 0.00024
94.25 -0.00059
94.3 -0.00109
94.35 -0.00129
94.4 -0.00081
94.45 -0.00011
94.5 0.00021
94.55 0.00068
94.6 0.00149
94.65 0.00205
94.7 0.00277
94.75 0.0027
94.8 0.00279
94.85 0.00276
94.9 0.00205
94.95 0.00149
95 0.00115
95.05 0.00121
95.1 0.0009
95.15 0.00078
95.2 0.00052
95.25 0.00053
95.3 0.00042
95.35 0.00009
95.4 -0.00034
95.45 -0.00073
95.5 -0.0008
95.55 -0.00117
95.6 -0.00078
95.65 -0.00076
95.7 -0.00059
95.75 -0.00059
95.8 -0.00034
95.85 -0.00003
95.9 0.00028
95.95 0.00043
96 0.00039
96.05 0.00053
96.1 0.00094
96.15 0.00129
96.2 0.00128
96.25 0.00121
96.3 0.001
96.35 0.00091
96.4 0.00132
96.45 0.00163
96.5 0.00181
96.55 0.00209
96.6 0.00178
96.65 0.00194
96.7 0.00239
96.75 0.00263
96.8 0.00219
96.85 0.00173
96.9 0.00107
96.95 0.00002
97 -0.00051
97.05 -0.00113
97.1 -0.00191
97.15 -0.00244
97.2 -0.0031
97.25 -0.00283
97.3 -0.00248
97.35 -0.00167
97.4 -0.00079
97.45 -0.00052
97.5 -0.00028
97.55 0.00023
97.6 0.00003
97.65 0.00022
97.7 0.00067
97.75 0.0013
97.8 0.00184
97.85 0.00258
97.9 0.00252
97.95 0.00181
98 0.0015
98.05 0.00097
98.1 0.00102
98.15 0.00041
98.2 -0.00018
98.25 -0.00097
98.3 -0.00086
98.35 -0.00063
98.4 -0.00029
98.45 -0.00007
98.5 0.00016
98.55 0.00078
98.6 0.00088
98.65 0.00124
98.7 0.0012
98.75 0.00158
98.8 0.0017
98.85 0.00206
98.9 0.00201
98.95 0.00165
99 0.00171
99.05 0.00135
99.1 0.00133
99.15 0.00149
99.2 0.00096
99.25 0.00074
99.3 0.00085
99.35 0.00136
99.4 0.00103
99.45 0.00011
99.5 -0.00065
99.55 -0.0009
99.6 -0.00048
99.65 -0.00025
99.7 -0.00016
99.75 -0.0002
99.8 -0.00013
99.85 -0.00005
99.9 0.00024
99.95 0.00056
