0 0
0.05 0.00134
0.1 0.00383
0.15 0.00608
0.2 0.00781
0.25 0.00853
0.3 0.00824
0.35 0.00862
0.4 0.00924
0.45 0.00999
0.5 0.00984
0.55 0.00956
0.6 0.00885
0.65 0.00866
0.7 0.00884
0.75 0.00958
0.8 0.01028
0.85 0.00992
0.9 0.00884
0.95 0.00851
1 0.00823
1.05 0.00751
1.1 0.00732
1.15 0.0074
1.2 0.00703
1.25 0.00715
1.3 0.00752
1.35 0.00748
1.4 0.00807
1.45 0.00892
1.5 0.0095
1.55 0.00965
1.6 0.00938
1.65 0.00889
1.7 0.00826
1.75 0.00814
1.8 0.00873
1.85 0.00956
1.9 0.00945
1.95 0.00912
2 0.00881
2.05 0.00838
2.1 0.0087
2.15 0.00946
2.2 0.01
2.25 0.01046
2.3 0.01
2.35 0.01017
2.4 0.01075
2.45 0.01037
2.5 0.01007
2.55 0.01034
2.6 0.00916
2.65 0.00731
2.7 0.00654
2.75 0.00521
2.8 0.0051
2.85 0.00438
2.9 0.00302
2.95 0.0015
3 0.00047
3.05 -0.00067
3.1 -0.00025
3.15 0.0008
3.2 0.00157
3.25 0.00216
3.3 0.00276
3.35 0.00244
3.4 0.00292
3.45 0.00377
3.5 0.00504
3.55 0.00648
3.6 0.00633
3.65 0.00663
3.7 0.00619
3.75 0.00581
3.8 0.00507
3.85 0.00356
3.9 0.00328
3.95 0.00347
4 0.00362
4.05 0.00398
4.1 0.00479
4.15 0.00566
4.2 0.00682
4.25 0.00722
4.3 0.00625
4.35 0.00583
4.4 0.0044
4.45 0.0036
4.5 0.0033
4.55 0.00381
4.6 0.00339
4.65 0.0039
4.7 0.00461
4.75 0.00549
4.8 0.00519
4.85 0.00491
4.9 0.00434
4.95 0.00325
5 0.00237
5.05 0.00089
5.1 -0.00017
5.15 -0.00052
5.2 -0.00001
5.25 0.00128
5.3 0.00306
5.35 0.00436
5.4 0.0052
5.45 0.00447
5.5 0.00333
5.55 0.00178
5.6 0.00132
5.65 0.00135
5.7 0.00183
5.75 0.00167
5.8 0.00128
5.85 0.0006
5.9 0.00068
5.95 0.00066
6 -0.00023
6.05 -0.00108
6.1 -0.00232
6.15 -0.00325
6.2 -0.00269
6.25 -0.00147
6.3 -0.00067
6.35 -0.00022
6.4 -0.00054
6.45 0.00026
6.5 0.00102
6.55 0.00225
6.6 0.00365
6.65 0.00505
6.7 0.00578
6.75 0.00533
6.8 0.00519
6.85 0.00482
6.9 0.00401
6.95 0.00371
7 0.00286
7.05 0.00205
7.1 0.00162
7.15 0.00033
7.2 -0.00074
7.25 -0.00048
7.3 -0.00112
7.35 -0.00132
7.4 -0.00211
7.45 -0.00222
7.5 -0.00113
7.55 -0.00012
7.6 0.00037
7.65 -0.00007
7.7 -0.00116
7.75 -0.00168
7.8 -0.00174
7.85 -0.00108
7.9 -0.00131
7.95 -0.00065
8 0.00003
8.05 -0.00038
8.1 -0.00105
8.15 -0.00222
8.2 -0.00216
8.25 -0.00172
8.3 -0.00081
8.35 0.00077
8.4 0.00116
8.45 0.00228
8.5 0.00221
8.55 0.00224
8.6 0.00282
8.65 0.00286
8.7 0.00288
8.75 0.00362
8.8 0.00321
8.85 0.00342
8.9 0.00353
8.95 0.00251
9 0.00106
9.05 0.00021
9.1 -0.00007
9.15 -0.00116
9.2 -0.00211
9.25 -0.0029
9.3 -0.0037
9.35 -0.00423
9.4 -0.00393
9.45 -0.00326
9.5 -0.00211
9.55 -0.00113
9.6 0.00045
9.65 0.00126
9.7 0.00225
9.75 0.00227
9.8 0.00168
9.85 0.0004
9.9 -0.00085
9.95 -0.00225
10 -0.00288
10.05 -0.00317
10.1 -0.00349
10.15 -0.00387
10.2 -0.00368
10.25 -0.00336
10.3 -0.00249
10.35 -0.00201
10.4 -0.00054
10.45 0.00115
10.5 0.00289
10.55 0.0046
10.6 0.00505
10.65 0.0047
10.7 0.00421
10.75 0.00324
10.8 0.00179
10.85 0.0006
10.9 -0.00103
10.95 -0.00205
11 -0.00215
11.05 -0.0027
11.1 -0.00305
11.15 -0.00245
11.2 -0.00188
11.25 -0.00162
11.3 -0.00101
11.35 -0.00081
11.4 -0.00085
11.45 -0.00063
11.5 0.00026
11.55 0.00036
11.6 0.00131
11.65 0.00183
11.7 0.0026
11.75 0.00271
11.8 0.00174
11.85 0.0017
11.9 0.00098
11.95 0.00064
12 0.00133
12.05 0.00182
12.1 0.0029
12.15 0.00392
12.2 0.00334
12.25 0.00261
12.3 0.00119
12.35 0.00029
12.4 0.00034
12.45 0.00023
12.5 0.00084
12.55 0.00173
12.6 0.00276
12.65 0.00379
12.7 0.00326
12.75 0.00247
12.8 0.00229
12.85 0.00276
12.9 0.00218
12.95 0.00073
13 -0.00109
13.05 -0.00233
13.1 -0.00327
13.15 -0.00394
13.2 -0.00317
13.25 -0.00316
13.3 -0.00303
13.35 -0.00325
13.4 -0.00384
13.45 -0.00323
13.5 -0.00173
13.55 -0.00021
13.6 0.0013
13.65 0.00266
13.7 0.00341
13.75 0.00373
13.8 0.00284
13.85 0.00134
13.9 -0.00055
13.95 -0.00075
14 -0.00056
14.05 -0.001
14.1 -0.00095
14.15 -0.00049
14.2 0.00016
14.25 0.00097
14.3 0.00225
14.35 0.00257
14.4 0.00213
14.45 0.00108
14.5 0.00126
14.55 0.00081
14.6 0.00063
14.65 0.00014
14.7 -0.00049
14.75 -0.00132
14.8 -0.00237
14.85 -0.00279
14.9 -0.0019
14.95 -0.00207
15 -0.00137
15.05 -0.00159
15.1 -0.00101
15.15 -0.00083
15.2 -0.00057
15.25 0.00051
15.3 0.0014
15.35 0.00272
15.4 0.00367
15.45 0.00369
15.5 0.00352
15.55 0.00289
15.6 0.00318
15.65 0.00237
15.7 0.00109
15.75 -0.00024
15.8 -0.00105
15.85 -0.002
15.9 -0.00207
15.95 -0.00184
16 -0.00248
16.05 -0.00223
16.1 -0.00184
16.15 -0.00183
16.2 -0.0011
16.25 -0.00003
16.3 0.00137
16.35 0.0024
16.4 0.00288
16.45 0.00315
16.5 0.00257
16.55 0.00218
16.6 0.00178
16.65 0.00078
16.7 0.00067
16.75 0.00026
16.8 -0.00009
16.85 0.00007
16.9 0.00044
16.95 0.00062
17 0.00025
17.05 0.00045
17.1 0.00039
17.15 -0.00038
17.2 -0.00138
17.25 -0.00244
17.3 -0.00235
17.35 -0.00208
17.4 -0.00131
17.45 0.00018
17.5 0.00021
17.55 -0.00026
17.6 -0.00003
17.65 -0.00006
17.7 0.00024
17.75 0.00034
17.8 0.0011
17.85 0.00163
17.9 0.00128
17.95 0.00132
18 0.00143
18.05 0.00132
18.1 0.0002
18.15 -0.00054
18.2 -0.00052
18.25 -0.00133
18.3 -0.00201
18.35 -0.00201
18.4 -0.00185
18.45 -0.0008
18.5 -0.00102
18.55 -0.00059
18.6 -0.00108
18.65 -0.00059
18.7 0.00018
18.75 -0.00006
18.8 -0.00046
18.85 -0.00127
18.9 -0.00138
18.95 -0.00042
19 -0.00002
19.05 0.0009
19.1 0.00159
19.15 0.00153
19.2 0.00102
19.25 0.0003
19.3 0.00053
19.35 0.00146
19.4 0.00172
19.45 0.00254
19.5 0.00215
19.55 0.00185
19.6 0.00116
19.65 0.00016
19.7 -0.00057
19.75 -0.00067
19.8 -0.00056
19.85 -0.00021
19.9 0.00029
19.95 -0.00001
20 -0.00086
20.05 -0.00133
20.1 -0.00147
20.15 -0.00093
20.2 -0.0005
20.25 0.00036
20.3 0.00087
20.35 0.00086
20.4 0.00099
20.45 0.00164
20.5 0.00098
20.55 -0.00002
20.6 -0.00129
20.65 -0.00226
20.7 -0.00348
20.75 -0.0032
20.8 -0.00365
20.85 -0.00426
20.9 -0.00449
20.95 -0.00367
21 -0.00302
21.05 -0.00239
21.1 -0.00219
21.15 -0.00132
21.2 -0.00023
21.25 -0.00005
21.3 0.00048
21.35 0.0007
21.4 0.00008
21.45 0.00051
21.5 0.00064
21.55 0.00052
21.6 0.00102
21.65 0.00079
21.7 0.00059
21.75 0.00095
21.8 0.00048
21.85 0.00083
21.9 0.00179
21.95 0.0019
22 0.00212
22.05 0.00291
22.1 0.0028
22.15 0.00233
22.2 0.00197
22.25 0.00118
22.3 0.00076
22.35 0.00045
22.4 0.00045
22.45 0.00061
22.5 0.00117
22.55 0.00126
22.6 0.00214
22.65 0.00299
22.7 0.00393
22.75 0.00505
22.8 0.00454
22.85 0.0047
22.9 0.00454
22.95 0.00421
23 0.00327
23.05 0.00171
23.1 -0.00034
23.15 -0.00147
23.2 -0.00289
23.25 -0.00277
23.3 -0.00215
23.35 -0.00233
23.4 -0.0017
23.45 -0.0008
23.5 -0.00027
23.55 -0.00081
23.6 -0.00106
23.65 -0.00034
23.7 0.00027
23.75 0.00118
23.8 0.00113
23.85 0.0009
23.9 0.0001
23.95 -0.00136
24 -0.00261
24.05 -0.00393
24.1 -0.00416
24.15 -0.00308
24.2 -0.00124
24.25 0.00071
24.3 0.00192
24.35 0.00321
24.4 0.00364
24.45 0.003
24.5 0.00293
24.55 0.00318
24.6 0.00394
24.65 0.00369
24.7 0.00331
24.75 0.00337
24.8 0.00319
24.85 0.00319
24.9 0.00353
24.95 0.00349
25 0.00367
25.05 0.00361
25.1 0.0033
25.15 0.00185
25.2 0.00085
25.25 -0.00024
25.3 -0.00143
25.35 -0.00296
25.4 -0.00344
25.45 -0.00277
25.5 -0.00143
25.55 -0.00113
25.6 -0.00004
25.65 -0.00038
25.7 -0.00012
25.75 -0.00033
25.8 0.00025
25.85 0.00024
25.9 0.00044
25.95 0.00067
26 -0.00018
26.05 -0.00108
26.1 -0.00207
26.15 -0.00312
26.2 -0.00266
26.25 -0.00166
26.3 -0.00123
26.35 -0.00188
26.4 -0.00189
26.45 -0.00113
26.5 -0.00108
26.55 -0.00078
26.6 -0.00038
26.65 0.00071
26.7 0.00092
26.75 0.0017
26.8 0.00237
26.85 0.00176
26.9 0.00035
26.95 -0.00079
27 -0.0023
27.05 -0.00379
27.1 -0.00429
27.15 -0.00464
27.2 -0.00379
27.25 -0.00286
27.3 -0.00268
27.35 -0.00304
27.4 -0.00371
27.45 -0.00406
27.5 -0.00374
27.55 -0.0039
27.6 -0.00413
27.65 -0.0035
27.7 -0.00278
27.75 -0.00216
27.8 -0.00075
27.85 0.00005
27.9 0.00103
27.95 0.00067
28 0.00114
28.05 0.00109
28.1 0.00122
28.15 0.00095
28.2 0.00107
28.25 0.00021
28.3 -0.00029
28.35 -0.0003
28.4 0.00028
28.45 0.00013
28.5 -0.0006
28.55 -0.00179
28.6 -0.00221
28.65 -0.00157
28.7 -0.00097
28.75 -0.00114
28.8 -0.00128
28.85 -0.00088
28.9 0.00004
28.95 -0.00005
29 -0.00009
29.05 -0.00067
29.1 -0.00091
29.15 -0.00191
29.2 -0.0018
29.25 -0.00087
29.3 0.00024
29.35 0.00125
29.4 0.00242
29.45 0.00329
29.5 0.00273
29.55 0.00227
29.6 0.00132
29.65 0.00042
29.7 -0.00054
29.75 -0.00144
29.8 -0.00163
29.85 -0.00225
29.9 -0.00311
29.95 -0.00275
30 -0.00198
30.05 -0.00059
30.1 0.00079
30.15 0.00109
30.2 0.00143
30.25 0.00198
30.3 0.00291
30.35 0.00261
30.4 0.00152
30.45 0.00087
30.5 -0.00012
30.55 -0.00036
30.6 0.00022
30.65 0.00089
30.7 0.00063
30.75 0.00003
30.8 0.00047
30.85 -0.00017
30.9 -0.00023
30.95 0.00059
31 0.00037
31.05 -0.00049
31.1 -0.00044
31.15 -0.00011
31.2 0.00092
31.25 0.00142
31.3 0.00179
31.35 0.0023
31.4 0.00211
31.45 0.00242
31.5 0.0026
31.55 0.00225
31.6 0.00238
31.65 0.00206
31.7 0.00166
31.75 0.00185
31.8 0.0018
31.85 0.00146
31.9 0.00135
31.95 0.00162
32 0.00078
32.05 0.00062
32.1 0.00067
32.15 0.00106
32.2 0.00053
32.25 -0.00023
32.3 -0.00138
32.35 -0.00121
32.4 -0.00148
32.45 -0.00241
32.5 -0.0035
32.55 -0.00302
32.6 -0.00329
32.65 -0.00365
32.7 -0.00428
32.75 -0.00366
32.8 -0.00355
32.85 -0.0039
32.9 -0.00404
32.95 -0.00295
33 -0.00143
33.05 -0.0007
33.1 0.00029
33.15 0.00059
33.2 0.00132
33.25 0.00241
33.3 0.00359
33.35 0.00311
33.4 0.00249
33.45 0.00117
33.5 0.00048
33.55 -0.00055
33.6 -0.00159
33.65 -0.00258
33.7 -0.00375
33.75 -0.00366
33.8 -0.00312
33.85 -0.00265
33.9 -0.00246
33.95 -0.00284
34 -0.0028
34.05 -0.00266
34.1 -0.0025
34.15 -0.00311
34.2 -0.00392
34.25 -0.00441
34.3 -0.00391
34.35 -0.0031
34.4 -0.00197
34.45 -0.00038
34.5 -0.00009
34.55 -0.00046
34.6 0.00004
34.65 0.00039
34.7 0.00123
34.75 0.00081
34.8 0.00109
34.85 0.00179
34.9 0.00303
34.95 0.00382
35 0.00441
35.05 0.00347
35.1 0.00353
35.15 0.00311
35.2 0.00309
35.25 0.00236
35.3 0.00109
35.35 -0.00035
35.4 -0.00197
35.45 -0.00291
35.5 -0.00345
35.55 -0.0042
35.6 -0.00404
35.65 -0.00342
35.7 -0.00343
35.75 -0.00248
35.8 -0.00102
35.85 0.00014
35.9 0.00096
35.95 0.00142
36 0.00192
36.05 0.00144
36.1 0.00154
36.15 0.00146
36.2 0.0007
36.25 0.00086
36.3 0.00146
36.35 0.00151
36.4 0.00085
36.45 0.00122
36.5 0.00092
36.55 0.0013
36.6 0.00206
36.65 0.0015
36.7 0.00132
36.75 0.00035
36.8 -0.00057
36.85 -0.00066
36.9 -0.00064
36.95 -0.00152
37 -0.00272
37.05 -0.00288
37.1 -0.00185
37.15 -0.00155
37.2 -0.00174
37.25 -0.00168
37.3 -0.00174
37.35 -0.00187
37.4 -0.00123
37.45 -0.00013
37.5 0.00007
37.55 0.00029
37.6 0.00119
37.65 0.00261
37.7 0.00325
37.75 0.00413
37.8 0.00505
37.85 0.00564
37.9 0.00628
37.95 0.0063
38 0.00613
38.05 0.00575
38.1 0.00418
38.15 0.00255
38.2 0.00129
38.25 -0.00007
38.3 -0.00133
38.35 -0.00236
38.4 -0.00349
38.45 -0.00396
38.5 -0.00303
38.55 -0.00238
38.6 -0.00207
38.65 -0.00234
38.7 -0.00214
38.75 -0.00098
38.8 -0.00086
38.85 -0.00075
38.9 -0.0016
38.95 -0.00269
39 -0.00231
39.05 -0.00267
39.1 -0.00264
39.15 -0.00186
39.2 -0.0012
39.25 -0.00099
39.3 0.00011
39.35 0.0016
39.4 0.00295
39.45 0.00432
39.5 0.0046
39.55 0.00517
39.6 0.00507
39.65 0.00402
39.7 0.00323
39.75 0.00266
39.8 0.00184
39.85 0.00025
39.9 -0.00089
39.95 -0.00236
40 -0.00392
40.05 -0.0047
40.1 -0.004
40.15 -0.00392
40.2 -0.00385
40.25 -0.00276
40.3 -0.00225
40.35 -0.0015
40.4 -0.00115
40.45 -0.00132
40.5 -0.00188
40.55 -0.00245
40.6 -0.00321
40.65 -0.0031
40.7 -0.00369
40.75 -0.00309
40.8 -0.00319
40.85 -0.00363
40.9 -0.00355
40.95 -0.00354
41 -0.00311
41.05 -0.00279
41.1 -0.00203
41.15 -0.0006
41.2 0.00114
41.25 0.00241
41.3 0.00263
41.35 0.00212
41.4 0.00113
41.45 0.00055
41.5 0.00066
41.55 0.00018
41.6 0.00009
41.65 -0.00072
41.7 -0.00087
41.75 -0.00056
41.8 -0.00006
41.85 -0.00047
41.9 -0.00143
41.95 -0.00273
42 -0.00399
42.05 -0.0049
42.1 -0.00535
42.15 -0.00471
42.2 -0.00292
42.25 -0.00203
42.3 -0.00197
42.35 -0.00191
42.4 -0.00204
42.45 -0.00204
42.5 -0.0025
42.55 -0.00181
42.6 -0.00098
42.65 -0.00057
42.7 -0.00029
42.75 0.00018
42.8 0.00127
42.85 0.00181
42.9 0.00286
42.95 0.00415
43 0.00428
43.05 0.00467
43.1 0.0049
43.15 0.00502
43.2 0.00539
43.25 0.0048
43.3 0.00333
43.35 0.0026
43.4 0.00201
43.45 0.00068
43.5 -0.00096
43.55 -0.00186
43.6 -0.00276
43.65 -0.00358
43.7 -0.00289
43.75 -0.00245
43.8 -0.0018
43.85 -0.00151
43.9 -0.0016
43.95 -0.00061
44 -0.0002
44.05 0.00028
44.1 0.00124
44.15 0.00239
44.2 0.00283
44.25 0.00319
44.3 0.00307
44.35 0.00244
44.4 0.00146
44.45 -0.00014
44.5 -0.00085
44.55 -0.00154
44.6 -0.00274
44.65 -0.00288
44.7 -0.00313
44.75 -0.00235
44.8 -0.00073
44.85 -0.0002
44.9 -0.00052
44.95 -0.0009
45 -0.00156
45.05 -0.00089
45.1 -0.00025
45.15 -0.00071
45.2 -0.00034
45.25 -0.00089
45.3 -0.00158
45.35 -0.00095
45.4 -0.00121
45.45 -0.00172
45.5 -0.00186
45.55 -0.0027
45.6 -0.00372
45.65 -0.00461
45.7 -0.00489
45.75 -0.00522
45.8 -0.00513
45.85 -0.00533
45.9 -0.00577
45.95 -0.00558
46 -0.00407
46.05 -0.00358
46.1 -0.00229
46.15 -0.00122
46.2 0.00052
46.25 0.0012
46.3 0.00149
46.35 0.00127
46.4 0.00127
46.45 0.00156
46.5 0.00156
46.55 0.00203
46.6 0.00288
46.65 0.00239
46.7 0.00159
46.75 0.00157
46.8 0.00244
46.85 0.00334
46.9 0.00373
46.95 0.00457
47 0.00426
47.05 0.00426
47.1 0.00309
47.15 0.00154
47.2 -0.0001
47.25 -0.00076
47.3 -0.00158
47.35 -0.002
47.4 -0.00243
47.45 -0.00267
47.5 -0.00256
47.55 -0.0023
47.6 -0.00252
47.65 -0.00154
47.7 -0.00151
47.75 -0.00183
47.8 -0.00123
47.85 -0.00089
47.9 -0.00143
47.95 -0.00118
48 -0.00057
48.05 0.0001
48.1 0.00013
48.15 0.00068
48.2 0.00194
48.25 0.00346
48.3 0.00405
48.35 0.00507
48.4 0.00488
48.45 0.00509
48.5 0.0057
48.55 0.00563
48.6 0.0059
48.65 0.00569
48.7 0.00494
48.75 0.00492
48.8 0.00444
48.85 0.00396
48.9 0.00314
48.95 0.00263
49 0.00246
49.05 0.00135
49.1 0.00142
49.15 0.00121
49.2 0.00108
49.25 0.00035
49.3 -0.00099
49.35 -0.00091
49.4 0.00014
49.45 0.00102
49.5 0.0019
49.55 0.00321
49.6 0.00385
49.65 0.0044
49.7 0.00376
49.75 0.00261
49.8 0.00144
49.85 0.00047
49.9 -0.0008
49.95 -0.0011
50 -0.00105
50.05 -0.00007
50.1 0.00123
50.15 0.001
50.2 0.00043
50.25 0.00009
50.3 0.00002
50.35 -0.00042
50.4 -0.00044
50.45 -0.00137
50.5 -0.00253
50.55 -0.0032
50.6 -0.00413
50.65 -0.00534
50.7 -0.00596
50.75 -0.00564
50.8 -0.0059
50.85 -0.00591
50.9 -0.00477
50.95 -0.00317
51 -0.0025
51.05 -0.00225
51.1 -0.00142
51.15 -0.00023
51.2 0.00033
51.25 0.00136
51.3 0.00111
51.35 0.00068
51.4 -0.00042
51.45 -0.00106
51.5 -0.00178
51.55 -0.0023
51.6 -0.00277
51.65 -0.00265
51.7 -0.00146
51.75 0
51.8 0.00077
51.85 0.00174
51.9 0.00236
51.95 0.00338
52 0.00338
52.05 0.00221
52.1 0.00134
52.15 0.00101
52.2 0.00106
52.25 0.00121
52.3 0.00197
52.35 0.00183
52.4 0.00234
52.45 0.00203
52.5 0.00072
52.55 -0.00011
52.6 -0.00117
52.65 -0.00122
52.7 -0.00028
52.75 -0.00055
52.8 -0.00075
52.85 -0.00047
52.9 -0.00066
52.95 -0.00142
53 -0.00217
53.05 -0.00322
53.1 -0.00446
53.15 -0.00425
53.2 -0.00326
53.25 -0.00306
53.3 -0.00216
53.35 -0.00082
53.4 -0.00081
53.45 -0.00131
53.5 -0.00066
53.55 -0.00048
53.6 -0.00123
53.65 -0.00115
53.7 -0.00167
53.75 -0.0009
53.8 0.00057
53.85 0.00218
53.9 0.0027
53.95 0.00324
54 0.00348
54.05 0.00289
54.1 0.00298
54.15 0.00308
54.2 0.00255
54.25 0.00143
54.3 0.00016
54.35 -0.0015
54.4 -0.00293
54.45 -0.00333
54.5 -0.00368
54.55 -0.0045
54.6 -0.00531
54.65 -0.00453
54.7 -0.00394
54.75 -0.00323
54.8 -0.00247
54.85 -0.00216
54.9 -0.00142
54.95 -0.00002
55 0.00184
55.05 0.00383
55.1 0.00391
55.15 0.00385
55.2 0.00406
55.25 0.00351
55.3 0.00278
55.35 0.0028
55.4 0.00174
55.45 0.00059
55.5 -0.00108
55.55 -0.0013
55.6 -0.00189
55.65 -0.00189
55.7 -0.00108
55.75 -0.00023
55.8 0.00019
55.85 -0.00008
55.9 -0.0008
55.95 -0.001
56 -0.00153
56.05 -0.00166
56.1 -0.00183
56.15 -0.00168
56.2 -0.00184
56.25 -0.00093
56.3 -0.0006
56.35 -0.00099
56.4 -0.00069
56.45 -0.00022
56.5 0.00079
56.55 0.00101
56.6 0.00026
56.65 -0.00101
56.7 -0.00251
56.75 -0.00412
56.8 -0.0042
56.85 -0.00396
56.9 -0.00423
56.95 -0.0034
57 -0.00176
57.05 -0.00091
57.1 0.00026
57.15 0.0015
57.2 0.00248
57.25 0.00203
57.3 0.00108
57.35 -0.00021
57.4 -0.00023
57.45 -0.00084
57.5 -0.00055
57.55 -0.00068
57.6 -0.00074
57.65 -0.00049
57.7 0.00004
57.75 -0.00045
57.8 0.00006
57.85 -0.00007
57.9 0.0003
57.95 -0
58 0.0005
58.05 0.00038
58.1 0.00066
58.15 -0.00002
58.2 -0.001
58.25 -0.00095
58.3 -0.00047
58.35 -0.00052
58.4 -0.00092
58.45 -0.00018
58.5 0.00031
58.55 0.00118
58.6 0.00255
58.65 0.00324
58.7 0.00312
58.75 0.00239
58.8 0.00228
58.85 0.00289
58.9 0.00226
58.95 0.00162
59 0.00081
59.05 -0.00008
59.1 -0.00032
59.15 -0.00067
59.2 -0.00003
59.25 0.0007
59.3 0.00084
59.35 0.00142
59.4 0.00233
59.45 0.00235
59.5 0.00156
59.55 0.00039
59.6 -0.00072
59.65 -0.00196
59.7 -0.00305
59.75 -0.00423
59.8 -0.00368
59.85 -0.00239
59.9 -0.00127
59.95 -0.00021
60 0.0008
60.05 0.00159
60.1 0.00254
60.15 0.00373
60.2 0.00498
60.25 0.00588
60.3 0.00624
60.35 0.00597
60.4 0.00619
60.45 0.00543
60.5 0.00447
60.55 0.00383
60.6 0.00388
60.65 0.00381
60.7 0.00316
60.75 0.00258
60.8 0.00178
60.85 0.00151
60.9 0.00083
60.95 -0.00013
61 -0.00132
61.05 -0.00227
61.1 -0.00186
61.15 -0.00132
61.2 -0.00026
61.25 -0.00003
61.3 -0.00046
61.35 -0.00112
61.4 -0.0012
61.45 -0.00119
61.5 -0.00108
61.55 -0.00091
61.6 -0.00144
61.65 -0.00206
61.7 -0.00137
61.75 -0.00089
61.8 0.00023
61.85 0.0002
61.9 -0.00075
61.95 -0.00039
62 0.00052
62.05 0.00094
62.1 0.00014
62.15 0.00016
62.2 0.00029
62.25 0.00025
62.3 -0.00066
62.35 -0.00157
62.4 -0.0018
62.45 -0.00137
62.5 -0.00045
62.55 0.00088
62.6 0.0007
62.65 -0.00033
62.7 -0.00027
62.75 -0.00006
62.8 0.00048
62.85 0.00002
62.9 0.00047
62.95 0.00149
63 0.00265
63.05 0.00269
63.1 0.00295
63.15 0.00275
63.2 0.00193
63.25 0.00118
63.3 0.00021
63.35 -0.0012
63.4 -0.00151
63.45 -0.00239
63.5 -0.00218
63.55 -0.00233
63.6 -0.00269
63.65 -0.00303
63.7 -0.00349
63.75 -0.00351
63.8 -0.00267
63.85 -0.00152
63.9 -0.00107
63.95 -0.0015
64 -0.00176
64.05 -0.00178
64.1 -0.0019
64.15 -0.0016
64.2 -0.00206
64.25 -0.0024
64.3 -0.0026
64.35 -0.00232
64.4 -0.00208
64.45 -0.00145
64.5 -0.0008
64.55 -0.00083
64.6 -0.00154
64.65 -0.00213
64.7 -0.00281
64.75 -0.00218
64.8 -0.00087
64.85 0.00043
64.9 0.00186
64.95 0.00218
65 0.00257
65.05 0.00195
65.1 0.00052
65.15 0.00036
65.2 0.00035
65.25 0.00121
65.3 0.00074
65.35 0.00055
65.4 0.00036
65.45 -0.00037
65.5 -0.00148
65.55 -0.00261
65.6 -0.00313
65.65 -0.00412
65.7 -0.00469
65.75 -0.00512
65.8 -0.00517
65.85 -0.00418
65.9 -0.00379
65.95 -0.00309
66 -0.00231
66.05 -0.00184
66.1 -0.00226
66.15 -0.00253
66.2 -0.00298
66.25 -0.00242
66.3 -0.00189
66.35 -0.00089
66.4 -0.00052
66.45 -0.00018
66.5 -0.00012
66.55 0.00067
66.6 0.00209
66.65 0.00303
66.7 0.00348
66.75 0.00341
66.8 0.00223
66.85 0.00056
66.9 -0.00078
66.95 -0.00176
67 -0.00296
67.05 -0.00396
67.1 -0.00415
67.15 -0.00353
67.2 -0.00205
67.25 -0.00006
67.3 0.00057
67.35 0.00121
67.4 0.00136
67.45 0.00167
67.5 0.00195
67.55 0.00243
67.6 0.00308
67.65 0.00324
67.7 0.00298
67.75 0.00275
67.8 0.00174
67.85 0.00117
67.9 0.00064
67.95 0.00052
68 0.00095
68.05 0.00133
68.1 0.00184
68.15 0.00167
68.2 0.00095
68.25 0.00044
68.3 -0.00039
68.35 -0.00023
68.4 0.00037
68.45 -0.00004
68.5 -0.0011
68.55 -0.00152
68.6 -0.0025
68.65 -0.00307
68.7 -0.00236
68.75 -0.00189
68.8 -0.00156
68.85 -0.00144
68.9 -0.00196
68.95 -0.00252
69 -0.00194
69.05 -0.00065
69.1 0.00073
69.15 0.00192
69.2 0.00252
69.25 0.00301
69.3 0.00294
69.35 0.0027
69.4 0.00327
69.45 0.003
69.5 0.00167
69.55 -0.00022
69.6 -0.00199
69.65 -0.00351
69.7 -0.00364
69.75 -0.00301
69.8 -0.00203
69.85 -0.00192
69.9 -0.00121
69.95 -0.00135
70 -0.00139
70.05 -0.00164
70.1 -0.00177
70.15 -0.00221
70.2 -0.0024
70.25 -0.00161
70.3 -0.00178
70.35 -0.00159
70.4 -0.00073
70.45 0.00053
70.5 0.00149
70.55 0.00149
70.6 0.00201
70.65 0.00295
70.7 0.00359
70.75 0.00389
70.8 0.00323
70.85 0.00296
70.9 0.0023
70.95 0.00248
71 0.00194
71.05 0.00172
71.1 0.00085
71.15 -0.0006
71.2 -0.00065
71.25 -0.00021
71.3 0.00017
71.35 -0.00001
71.4 0.00006
71.45 -0.0002
71.5 -0.00125
71.55 -0.00247
71.6 -0.00233
71.65 -0.00248
71.7 -0.0034
71.75 -0.00301
71.8 -0.00222
71.85 -0.00209
71.9 -0.00294
71.95 -0.00412
72 -0.00586
72.05 -0.00731
72.1 -0.00947
72.15 -0.01211
72.2 -0.01385
72.25 -0.01512
72.3 -0.01666
72.35 -0.01846
72.4 -0.02085
72.45 -0.02354
72.5 -0.02625
72.55 -0.03025
72.6 -0.03571
72.65 -0.0422
72.7 -0.04889
72.75 -0.05616
72.8 -0.06589
72.85 -0.07686
72.9 -0.08872
72.95 -0.10283
73 -0.11819
73.05 -0.13481
73.1 -0.15245
73.15 -0.17064
73.2 -0.19082
73.25 -0.21182
73.3 -0.23502
73.35 -0.259
73.4 -0.2843
73.45 -0.31094
73.5 -0.33871
73.55 -0.3661
73.6 -0.39489
73.65 -0.42275
73.7 -0.44983
73.75 -0.47682
73.8 -0.50213
73.85 -0.52644
73.9 -0.54873
73.95 -0.56857
74 -0.58658
74.05 -0.60169
74.1 -0.61372
74.15 -0.62195
74.2 -0.62521
74.25 -0.62416
74.3 -0.6185
74.35 -0.60759
74.4 -0.59235
74.45 -0.57239
74.5 -0.54829
74.55 -0.51993
74.6 -0.48619
74.65 -0.44891
74.7 -0.40757
74.75 -0.36307
74.8 -0.31686
74.85 -0.26884
74.9 -0.21981
74.95 -0.17018
75 -0.11922
75.05 -0.06911
75.1 -0.01891
75.15 0.02952
75.2 0.0754
75.25 0.11867
75.3 0.1598
75.35 0.19772
75.4 0.23299
75.45 0.26639
75.5 0.29616
75.55 0.32331
75.6 0.34762
75.65 0.36876
75.7 0.38621
75.75 0.40123
75.8 0.41477
75.85 0.42522
75.9 0.43358
75.95 0.43954
76 0.4438
76.05 0.44661
76.1 0.44905
76.15 0.45033
76.2 0.45148
76.25 0.45191
76.3 0.45289
76.35 0.45342
76.4 0.45465
76.45 0.45532
76.5 0.45437
76.55 0.45239
76.6 0.45119
76.65 0.45008
76.7 0.4485
76.75 0.44635
76.8 0.44262
76.85 0.43914
76.9 0.43477
76.95 0.43034
77 0.4258
77.05 0.42035
77.1 0.41398
77.15 0.40658
77.2 0.39868
77.25 0.39133
77.3 0.38353
77.35 0.37603
77.4 0.3674
77.45 0.35928
77.5 0.35144
77.55 0.34201
77.6 0.33316
77.65 0.323
77.7 0.31351
77.75 0.30332
77.8 0.29301
77.85 0.2818
77.9 0.27093
77.95 0.26032
78 0.2489
78.05 0.23889
78.1 0.22897
78.15 0.21889
78.2 0.20891
78.25 0.19925
78.3 0.18982
78.35 0.1802
78.4 0.17054
78.45 0.16057
78.5 0.15071
78.55 0.14207
78.6 0.13345
78.65 0.12455
78.7 0.11634
78.75 0.10829
78.8 0.10099
78.85 0.0948
78.9 0.08915
78.95 0.08353
79 0.07825
79.05 0.07283
79.1 0.06608
79.15 0.06032
79.2 0.05424
79.25 0.04867
79.3 0.04246
79.35 0.0365
79.4 0.02975
79.45 0.02458
79.5 0.02026
79.55 0.01491
79.6 0.00939
79.65 0.00342
79.7 -0.0021
79.75 -0.00636
79.8 -0.01087
79.85 -0.01483
79.9 -0.01808
79.95 -0.02041
80 -0.02211
80.05 -0.02405
80.1 -0.02625
80.15 -0.02968
80.2 -0.03389
80.25 -0.03732
80.3 -0.03978
80.35 -0.04152
80.4 -0.04332
80.45 -0.04574
80.5 -0.0483
80.55 -0.05105
80.6 -0.05418
80.65 -0.0574
80.7 -0.05965
80.75 -0.06105
80.8 -0.0629
80.85 -0.0638
80.9 -0.06474
80.95 -0.06578
81 -0.06612
81.05 -0.06585
81.1 -0.06495
81.15 -0.06506
81.2 -0.0655
81.25 -0.06605
81.3 -0.06712
81.35 -0.06856
81.4 -0.0695
81.45 -0.07054
81.5 -0.07055
81.55 -0.07086
81.6 -0.07113
81.65 -0.07066
81.7 -0.07013
81.75 -0.07004
81.8 -0.07009
81.85 -0.06906
81.9 -0.06748
81.95 -0.06673
82 -0.0664
82.05 -0.06551
82.1 -0.06429
82.15 -0.0627
82.2 -0.06269
82.25 -0.06296
82.3 -0.0631
82.35 -0.06254
82.4 -0.06263
82.45 -0.06175
82.5 -0.0612
82.55 -0.06034
82.6 -0.05891
82.65 -0.05887
82.7 -0.05949
82.75 -0.0594
82.8 -0.05965
82.85 -0.0589
82.9 -0.05796
82.95 -0.05683
83 -0.05615
83.05 -0.05587
83.1 -0.05529
83.15 -0.05393
83.2 -0.05359
83.25 -0.05257
83.3 -0.05177
83.35 -0.05086
83.4 -0.05088
83.45 -0.05112
83.5 -0.05004
83.55 -0.04805
83.6 -0.04642
83.65 -0.04551
83.7 -0.04498
83.75 -0.04464
83.8 -0.04409
83.85 -0.04441
83.9 -0.04493
83.95 -0.04491
84 -0.04502
84.05 -0.04421
84.1 -0.04293
84.15 -0.04182
84.2 -0.04036
84.25 -0.03829
84.3 -0.03731
84.35 -0.03714
84.4 -0.03628
84.45 -0.03486
84.5 -0.03453
84.55 -0.03447
84.6 -0.0337
84.65 -0.03384
84.7 -0.03394
84.75 -0.03303
84.8 -0.03309
84.85 -0.03296
84.9 -0.03202
84.95 -0.03206
85 -0.03115
85.05 -0.03088
85.1 -0.03039
85.15 -0.02912
85.2 -0.02818
85.25 -0.02777
85.3 -0.02801
85.35 -0.02796
85.4 -0.02725
85.45 -0.02676
85.5 -0.02605
85.55 -0.02627
85.6 -0.02595
85.65 -0.02582
85.7 -0.02623
85.75 -0.02558
85.8 -0.02408
85.85 -0.02276
85.9 -0.02244
85.95 -0.02126
86 -0.02117
86.05 -0.02127
86.1 -0.02165
86.15 -0.02217
86.2 -0.02272
86.25 -0.02236
86.3 -0.02145
86.35 -0.02102
86.4 -0.0209
86.45 -0.0196
86.5 -0.01926
86.55 -0.01862
86.6 -0.01853
86.65 -0.01876
86.7 -0.01816
86.75 -0.01697
86.8 -0.01538
86.85 -0.01434
86.9 -0.01447
86.95 -0.01473
87 -0.0147
87.05 -0.01527
87.1 -0.0151
87.15 -0.0158
87.2 -0.01556
87.25 -0.01534
87.3 -0.01591
87.35 -0.01575
87.4 -0.01571
87.45 -0.0147
87.5 -0.01309
87.55 -0.01235
87.6 -0.01225
87.65 -0.01219
87.7 -0.01145
87.75 -0.01147
87.8 -0.01196
87.85 -0.01303
87.9 -0.0126
87.95 -0.01246
88 -0.01215
88.05 -0.01183
88.1 -0.01155
88.15 -0.01154
88.2 -0.01213
88.25 -0.01211
88.3 -0.01102
88.35 -0.0104
88.4 -0.00897
88.45 -0.00841
88.5 -0.00899
88.55 -0.01011
88.6 -0.01126
88.65 -0.01147
88.7 -0.01134
88.75 -0.01064
88.8 -0.01047
88.85 -0.01074
88.9 -0.01154
88.95 -0.01183
89 -0.01088
89.05 -0.00962
89.1 -0.00937
89.15 -0.00896
89.2 -0.00841
89.25 -0.00697
89.3 -0.00679
89.35 -0.00697
89.4 -0.00739
89.45 -0.00806
89.5 -0.00742
89.55 -0.00722
89.6 -0.00662
89.65 -0.0071
89.7 -0.00749
89.75 -0.00813
89.8 -0.00817
89.85 -0.00818
89.9 -0.0075
89.95 -0.00597
90 -0.00554
90.05 -0.00505
90.1 -0.00408
90.15 -0.00316
90.2 -0.00212
90.25 -0.0017
90.3 -0.00199
90.35 -0.00305
90.4 -0.00317
90.45 -0.00263
90.5 -0.00192
90.55 -0.00126
90.6 -0.00155
90.65 -0.00205
90.7 -0.00203
90.75 -0.0021
90.8 -0.00214
90.85 -0.00164
90.9 -0.00144
90.95 -0.00084
91 -0.00005
91.05 0.00058
91.1 0.00062
91.15 -0.00056
91.2 -0.00194
91.25 -0.00224
91.3 -0.00287
91.35 -0.00374
91.4 -0.00468
91.45 -0.00458
91.5 -0.00431
91.55 -0.00426
91.6 -0.00359
91.65 -0.00271
91.7 -0.00278
91.75 -0.00261
91.8 -0.0026
91.85 -0.00221
91.9 -0.00125
91.95 -0.00036
92 0.00068
92.05 0.00191
92.1 0.00296
92.15 0.00395
92.2 0.0044
92.25 0.00312
92.3 0.00183
92.35 0.00014
92.4 -0.00212
92.45 -0.00299
92.5 -0.00408
92.55 -0.00535
92.6 -0.00632
92.65 -0.00721
92.7 -0.00817
92.75 -0.00932
92.8 -0.00947
92.85 -0.00954
92.9 -0.00957
92.95 -0.00971
93 -0.0101
93.05 -0.0094
93.1 -0.00839
93.15 -0.00681
93.2 -0.00548
93.25 -0.00504
93.3 -0.00469
93.35 -0.00362
93.4 -0.00207
93.45 -0.00189
93.5 -0.00231
93.55 -0.00253
93.6 -0.00257
93.65 -0.00317
93.7 -0.00418
93.75 -0.00486
93.8 -0.00527
93.85 -0.00492
93.9 -0.00392
93.95 -0.00242
94 -0.00192
94.05 -0.00153
94.1 -0.00188
94.15 -0.00262
94.2 -0.00284
94.25 -0.00338
94.3 -0.00363
94.35 -0.00414
94.4 -0.00331
94.45 -0.00241
94.5 -0.00089
94.55 -0.00049
94.6 -0.00091
94.65 -0.00083
94.7 -0.00009
94.75 -0.00059
94.8 -0.0015
94.85 -0.00196
94.9 -0.00251
94.95 -0.00219
95 -0.0024
95.05 -0.00304
95.1 -0.00316
95.15 -0.00216
95.2 -0.00149
95.25 -0.00071
95.3 0.00007
95.35 -0.00013
95.4 -0.00091
95.45 -0.00189
95.5 -0.00312
95.55 -0.00431
95.6 -0.0055
95.65 -0.00625
95.7 -0.00537
95.75 -0.00423
95.8 -0.00318
95.85 -0.00273
95.9 -0.0028
95.95 -0.0018
96 -0.0017
96.05 -0.00226
96.1 -0.00218
96.15 -0.0013
96.2 -0.00006
96.25 0.00131
96.3 0.00238
96.35 0.00349
96.4 0.0034
96.45 0.00394
96.5 0.00449
96.55 0.00452
96.6 0.00434
96.65 0.00385
96.7 0.00272
96.75 0.00123
96.8 0.00093
96.85 0.00151
96.9 0.00234
96.95 0.00178
97 0.00199
97.05 0.00269
97.1 0.0028
97.15 0.00345
97.2 0.00372
97.25 0.00264
97.3 0.00228
97.35 0.0026
97.4 0.00162
97.45 0.00034
97.5 -0.0011
97.55 -0.00245
97.6 -0.0041
97.65 -0.00469
97.7 -0.00415
97.75 -0.00394
97.8 -0.00268
97.85 -0.00243
97.9 -0.00145
97.95 -0.0007
98 0.00037
98.05 0.0016
98.1 0.0017
98.15 0.00146
98.2 0.00122
98.25 0.00064
98.3 -0.00015
98.35 -0.00101
98.4 -0.00099
98.45 -0.00053
98.5 -0.00119
98.55 -0.00076
98.6 -0.00011
98.65 0.00096
98.7 0.00214
98.75 0.00308
98.8 0.00258
98.85 0.00248
98.9 0.00275
98.95 0.00232
99 0.00126
99.05 -0.00029
99.1 -0.00052
99.15 0.00024
99.2 0.00119
99.25 0.00106
99.3 0.00163
99.35 0.00086
99.4 0.00115
99.45 0.00093
99.5 -0.00018
99.55 -0.0017
99.6 -0.00298
99.65 -0.00427
99.7 -0.00491
99.75 -0.0054
99.8 -0.00485
99.85 -0.0033
99.9 -0.00223
99.95 -0.0011
