0 0
0.05 0.00026
0.1 0.00085
0.15 0.00126
0.2 0.00183
0.25 0.00232
0.3 0.00277
0.35 0.00315
0.4 0.00364
0.45 0.00378
0.5 0.00369
0.55 0.00408
0.6 0.00401
0.65 0.00386
0.7 0.00367
0.75 0.00359
0.8 0.00373
0.85 0.00412
0.9 0.00415
0.95 0.00422
1 0.00416
1.05 0.00425
1.1 0.00435
1.15 0.00423
1.2 0.00387
1.25 0.00399
1.3 0.00386
1.35 0.00338
1.4 0.00275
1.45 0.00247
1.5 0.00217
1.55 0.00172
1.6 0.00129
1.65 0.00152
1.7 0.00218
1.75 0.00243
1.8 0.00242
1.85 0.00263
1.9 0.00255
1.95 0.00264
2 0.0029
2.05 0.00333
2.1 0.00361
2.15 0.004
2.2 0.00443
2.25 0.00435
2.3 0.00405
2.35 0.0041
2.4 0.00401
2.45 0.00361
2.5 0.00345
2.55 0.00334
2.6 0.00332
2.65 0.00321
2.7 0.00324
2.75 0.00321
2.8 0.00286
2.85 0.00294
2.9 0.00311
2.95 0.00351
3 0.00333
3.05 0.00319
3.1 0.00273
3.15 0.00215
3.2 0.00177
3.25 0.0014
3.3 0.00142
3.35 0.00173
3.4 0.00225
3.45 0.00239
3.5 0.00265
3.55 0.00249
3.6 0.00198
3.65 0.00145
3.7 0.00123
3.75 0.00127
3.8 0.00094
3.85 0.00101
3.9 0.00081
3.95 0.00096
4 0.00144
4.05 0.00151
4.1 0.0018
4.15 0.00213
4.2 0.00208
4.25 0.00222
4.3 0.00193
4.35 0.00186
4.4 0.00144
4.45 0.00078
4.5 0.00045
4.55 0.00014
4.6 -0.0001
4.65 -0.00048
4.7 -0.0002
4.75 0.00017
4.8 0.00052
4.85 0.00074
4.9 0.00102
4.95 0.00146
5 0.00173
5.05 0.00168
5.1 0.00148
5.15 0.00158
5.2 0.00124
5.25 0.00064
5.3 0.00034
5.35 0.00007
5.4 -0.0002
5.45 -0.00055
5.5 -0.00064
5.55 -0.00081
5.6 -0.00086
5.65 -0.00062
5.7 -0.00063
5.75 -0.00053
5.8 -0.00072
5.85 -0.00068
5.9 -0.00012
5.95 0.00006
6 -0
6.05 -0.00025
6.1 0.0001
6.15 0.00011
6.2 0.00022
6.25 0.00038
6.3 0.00045
6.35 0.00042
6.4 0.00076
6.45 0.00125
6.5 0.00158
6.55 0.00179
6.6 0.00154
6.65 0.00117
6.7 0.00068
6.75 0.00047
6.8 0.00042
6.85 0.00081
6.9 0.00135
6.95 0.00152
7 0.00188
7.05 0.00197
7.1 0.00199
7.15 0.00218
7.2 0.00188
7.25 0.00193
7.3 0.00155
7.35 0.00113
7.4 0.00094
7.45 0.00077
7.5 0.00082
7.55 0.00094
7.6 0.00133
7.65 0.0019
7.7 0.00232
7.75 0.00246
7.8 0.00206
7.85 0.00141
7.9 0.00068
7.95 0.00054
8 0.00082
8.05 0.00078
8.1 0.00035
8.15 0.00032
8.2 0.00047
8.25 0.00023
8.3 -0.00003
8.35 0.00003
8.4 0.00029
8.45 0.00078
8.5 0.0014
8.55 0.00141
8.6 0.00108
8.65 0.00116
8.7 0.00116
8.75 0.00096
8.8 0.0007
8.85 0.00026
8.9 0.00019
8.95 -0.00017
9 -0.00047
9.05 -0.00053
9.1 -0.00015
9.15 0.00022
9.2 0.00043
9.25 0.00027
9.3 0.0005
9.35 0.00043
9.4 0.0001
9.45 0.00019
9.5 0.00011
9.55 -0.00003
9.6 0.00001
9.65 0.00018
9.7 0.00029
9.75 0.00074
9.8 0.00116
9.85 0.00121
9.9 0.00137
9.95 0.00154
10 0.0012
10.05 0.0006
10.1 0.00025
10.15 0.00013
10.2 -0.00025
10.25 -0.00023
10.3 -0.00044
10.35 -0.00072
10.4 -0.00078
10.45 -0.00046
10.5 -0.00028
10.55 0.00008
10.6 0.00065
10.65 0.00071
10.7 0.00066
10.75 0.00034
10.8 -0.00023
10.85 -0.00081
10.9 -0.00101
10.95 -0.00071
11 -0.00027
11.05 -0.00023
11.1 -0.00034
11.15 -0.00015
11.2 0.0003
11.25 0.00017
11.3 0.0002
11.35 0.00009
11.4 0.00003
11.45 -0.00007
11.5 -0.00034
11.55 -0.00039
11.6 -0.00048
11.65 -0.00055
11.7 -0.00086
11.75 -0.00079
11.8 -0.00097
11.85 -0.00089
11.9 -0.001
11.95 -0.00129
12 -0.00126
12.05 -0.00144
12.1 -0.0017
12.15 -0.0019
12.2 -0.00171
12.25 -0.00137
12.3 -0.00083
12.35 -0.00016
12.4 0.00068
12.45 0.00099
12.5 0.00075
12.55 0.00035
12.6 -0.00018
12.65 -0.00025
12.7 0.00009
12.75 0.00067
12.8 0.00073
12.85 0.0009
12.9 0.00093
12.95 0.00051
13 0.0006
13.05 0.00085
13.1 0.00076
13.15 0.00064
13.2 0.00037
13.25 -0.00021
13.3 -0.00085
13.35 -0.00125
13.4 -0.00167
13.45 -0.00165
13.5 -0.00169
13.55 -0.00133
13.6 -0.00059
13.65 0.00029
13.7 0.00056
13.75 0.00047
13.8 0.00071
13.85 0.00117
13.9 0.00132
13.95 0.00121
14 0.00101
14.05 0.00109
14.1 0.00099
14.15 0.00106
14.2 0.00128
14.25 0.00116
14.3 0.00074
14.35 0.00039
14.4 0.00023
14.45 -0.00011
14.5 -0.00053
14.55 -0.00084
14.6 -0.00073
14.65 -0.00071
14.7 -0.00074
14.75 -0.00078
14.8 -0.00108
14.85 -0.00153
14.9 -0.00186
14.95 -0.00158
15 -0.00088
15.05 -0.00071
15.1 -0.00041
15.15 -0.00048
15.2 -0.00053
15.25 -0.00054
15.3 -0.00061
15.35 -0.00027
15.4 0.00012
15.45 0.00028
15.5 0.00018
15.55 0.0005
15.6 0.00035
15.65 0.0004
15.7 0.00009
15.75 -0.00007
15.8 -0.00044
15.85 -0.00101
15.9 -0.00133
15.95 -0.00104
16 -0.00055
16.05 0.00008
16.1 0.00074
16.15 0.00128
16.2 0.00157
16.25 0.00147
16.3 0.00133
16.35 0.00094
16.4 0.00047
16.45 -0.00002
16.5 -0.00022
16.55 -0.0006
16.6 -0.00039
16.65 -0.00041
16.7 -0.00065
16.75 -0.00049
16.8 -0.00038
16.85 -0.00056
16.9 -0.00067
16.95 -0.00057
17 -0.00042
17.05 -0.0004
17.1 -0.0006
17.15 -0.00084
17.2 -0.00094
17.25 -0.00118
17.3 -0.00103
17.35 -0.001
17.4 -0.00062
17.45 -0.00064
17.5 -0.00035
17.55 -0.00014
17.6 -0.00013
17.65 0.00006
17.7 0.00003
17.75 -0.0003
17.8 -0.00057
17.85 -0.0003
17.9 0.00028
17.95 0.00046
18 0.00044
18.05 0.00066
18.1 0.00098
18.15 0.00112
18.2 0.00138
18.25 0.00106
18.3 0.00113
18.35 0.00114
18.4 0.00113
18.45 0.00116
18.5 0.00078
18.55 0.00014
18.6 0
18.65 -0.00036
18.7 -0.00047
18.75 -0.00036
18.8 -0.0001
18.85 0.00025
18.9 0.00064
18.95 0.00105
19 0.00102
19.05 0.00053
19.1 0.00041
19.15 0.0002
19.2 -0.00002
19.25 -0.00042
19.3 -0.00042
19.35 -0.00029
19.4 -0.00009
19.45 -0.00028
19.5 0.00001
19.55 0.00015
19.6 0.00031
19.65 0.00023
19.7 0.00034
19.75 0.00054
19.8 0.00063
19.85 0.00045
19.9 0.00062
19.95 0.00052
20 0.00028
20.05 0.0003
20.1 0.00021
20.15 -0.00003
20.2 0.00021
20.25 0.00064
20.3 0.00055
20.35 0.00021
20.4 0.00026
20.45 0.00029
20.5 0.00002
20.55 -0.00036
20.6 -0.00083
20.65 -0.00123
20.7 -0.00148
20.75 -0.00178
20.8 -0.00152
20.85 -0.00128
20.9 -0.00103
20.95 -0.00064
21 0.00002
21.05 0.00036
21.1 0.00044
21.15 0.00037
21.2 0.00003
21.25 -0.00028
21.3 -0.00044
21.35 -0.00083
21.4 -0.00072
21.45 -0.00059
21.5 -0.00064
21.55 -0.00022
21.6 -0.0003
21.65 -0.00037
21.7 -0.00036
21.75 -0.00031
21.8 -0.00046
21.85 -0.00056
21.9 -0.00069
21.95 -0.00089
22 -0.00058
22.05 -0.00006
22.1 0.00042
22.15 0.00067
22.2 0.00109
22.25 0.00105
22.3 0.00058
22.35 0.00052
22.4 0.00076
22.45 0.00067
22.5 0.00097
22.55 0.00125
22.6 0.00143
22.65 0.00111
22.7 0.00108
22.75 0.00081
22.8 0.00094
22.85 0.00068
22.9 0.00066
22.95 0.00097
23 0.00149
23.05 0.00144
23.1 0.00117
23.15 0.0007
23.2 0.00007
23.25 -0.00036
23.3 -0.00048
23.35 -0.00053
23.4 -0.00057
23.45 -0.00016
23.5 0.00043
23.55 0.0004
23.6 0.0005
23.65 0.00067
23.7 0.0009
23.75 0.00103
23.8 0.00069
23.85 0.00018
23.9 -0.00045
23.95 -0.00092
24 -0.00088
24.05 -0.00115
24.1 -0.00084
24.15 -0.00017
24.2 -0.00013
24.25 -0.00043
24.3 -0.00048
24.35 -0.00054
24.4 -0.0004
24.45 -0.00041
24.5 -0.00045
24.55 -0.00041
24.6 -0.0005
24.65 -0.00035
24.7 -0.00014
24.75 0.00023
24.8 0.00071
24.85 0.0006
24.9 0.00032
24.95 -0.00019
25 -0.00056
25.05 -0.00083
25.1 -0.00052
25.15 -0.00016
25.2 -0.00015
25.25 -0.00052
25.3 -0.00093
25.35 -0.00097
25.4 -0.00073
25.45 -0.00082
25.5 -0.0006
25.55 -0.00051
25.6 -0.00041
25.65 -0.00054
25.7 -0.00025
25.75 0.00029
25.8 0.0005
25.85 0.00023
25.9 0.00019
25.95 0.00014
26 0.00001
26.05 -0.00047
26.1 -0.00093
26.15 -0.00109
26.2 -0.00119
26.25 -0.00132
26.3 -0.00098
26.35 -0.00071
26.4 -0.00046
26.45 -0.00011
26.5 0.00027
26.55 0.00017
26.6 -0.00019
26.65 -0.00059
26.7 -0.0005
26.75 -0.00069
26.8 -0.00099
26.85 -0.00077
26.9 -0.00081
26.95 -0.00106
27 -0.00113
27.05 -0.00078
27.1 -0.00053
27.15 -0.00059
27.2 -0.0007
27.25 -0.00054
27.3 -0.00074
27.35 -0.001
27.4 -0.00081
27.45 -0.00026
27.5 0.00033
27.55 0.00066
27.6 0.00057
27.65 0.00035
27.7 0.00044
27.75 0.00072
27.8 0.00079
27.85 0.00066
27.9 0.00091
27.95 0.00063
28 0.00007
28.05 -0.00031
28.1 -0.00069
28.15 -0.0005
28.2 -0.00035
28.25 0.00008
28.3 0.00041
28.35 0.00094
28.4 0.00087
28.45 0.00102
28.5 0.00126
28.55 0.00138
28.6 0.00153
28.65 0.00145
28.7 0.00122
28.75 0.00132
28.8 0.00096
28.85 0.00092
28.9 0.00121
28.95 0.00153
29 0.00176
29.05 0.00191
29.1 0.00213
29.15 0.00224
29.2 0.00173
29.25 0.00163
29.3 0.0013
29.35 0.00086
29.4 0.00075
29.45 0.00096
29.5 0.00095
29.55 0.0005
29.6 0.00051
29.65 0.00037
29.7 -0.00009
29.75 -0.00059
29.8 -0.00127
29.85 -0.00164
29.9 -0.00201
29.95 -0.00215
30 -0.00211
30.05 -0.00183
30.1 -0.0018
30.15 -0.00234
30.2 -0.00265
30.25 -0.00278
30.3 -0.00354
30.35 -0.00462
30.4 -0.00552
30.45 -0.00681
30.5 -0.00861
30.55 -0.0105
30.6 -0.01285
30.65 -0.01539
30.7 -0.01826
30.75 -0.02139
30.8 -0.02499
30.85 -0.02895
30.9 -0.0329
30.95 -0.03722
31 -0.0423
31.05 -0.04764
31.1 -0.05335
31.15 -0.05943
31.2 -0.06624
31.25 -0.07412
31.3 -0.08271
31.35 -0.0921
31.4 -0.10209
31.45 -0.11279
31.5 -0.12391
31.55 -0.13529
31.6 -0.14753
31.65 -0.16003
31.7 -0.1722
31.75 -0.18466
31.8 -0.19672
31.85 -0.20866
31.9 -0.21975
31.95 -0.23048
32 -0.23989
32.05 -0.24808
32.1 -0.25523
32.15 -0.26125
32.2 -0.26555
32.25 -0.2677
32.3 -0.26787
32.35 -0.26635
32.4 -0.2625
32.45 -0.25676
32.5 -0.24937
32.55 -0.24008
32.6 -0.22837
32.65 -0.21469
32.7 -0.19943
32.75 -0.18269
32.8 -0.16412
32.85 -0.14429
32.9 -0.12367
32.95 -0.10254
33 -0.08111
33.05 -0.05949
33.1 -0.03789
33.15 -0.01633
33.2 0.00493
33.25 0.02557
33.3 0.04518
33.35 0.06419
33.4 0.08171
33.45 0.09771
33.5 0.1122
33.55 0.12512
33.6 0.13654
33.65 0.14697
33.7 0.15594
33.75 0.16346
33.8 0.16937
33.85 0.17415
33.9 0.17763
33.95 0.1802
34 0.18228
34.05 0.18402
34.1 0.1849
34.15 0.18514
34.2 0.18479
34.25 0.18446
34.3 0.18377
34.35 0.18312
34.4 0.18251
34.45 0.18175
34.5 0.18091
34.55 0.18015
34.6 0.17934
34.65 0.17803
34.7 0.17662
34.75 0.17559
34.8 0.17469
34.85 0.17322
34.9 0.17157
34.95 0.16964
35 0.1679
35.05 0.1659
35.1 0.16382
35.15 0.162
35.2 0.1598
35.25 0.15748
35.3 0.15456
35.35 0.15173
35.4 0.14883
35.45 0.14518
35.5 0.14126
35.55 0.13722
35.6 0.133
35.65 0.12886
35.7 0.12455
35.75 0.12067
35.8 0.11656
35.85 0.11233
35.9 0.10812
35.95 0.10388
36 0.1
36.05 0.09625
36.1 0.09308
36.15 0.09005
36.2 0.08729
36.25 0.08413
36.3 0.08081
36.35 0.07791
36.4 0.07531
36.45 0.07241
36.5 0.07002
36.55 0.06794
36.6 0.0655
36.65 0.06322
36.7 0.06079
36.75 0.05831
36.8 0.05625
36.85 0.05408
36.9 0.05215
36.95 0.04994
37 0.04803
37.05 0.04606
37.1 0.04384
37.15 0.04166
37.2 0.03952
37.25 0.03739
37.3 0.0356
37.35 0.03387
37.4 0.0319
37.45 0.03013
37.5 0.02833
37.55 0.02697
37.6 0.02558
37.65 0.0243
37.7 0.02269
37.75 0.02082
37.8 0.01854
37.85 0.01639
37.9 0.01463
37.95 0.01278
38 0.01099
38.05 0.0094
38.1 0.00781
38.15 0.00655
38.2 0.00491
38.25 0.00346
38.3 0.00149
38.35 -0.00061
38.4 -0.00257
38.45 -0.00433
38.5 -0.00568
38.55 -0.00731
38.6 -0.00903
38.65 -0.01044
38.7 -0.01177
38.75 -0.01292
38.8 -0.01375
38.85 -0.01479
38.9 -0.01561
38.95 -0.01699
39 -0.01804
39.05 -0.01944
39.1 -0.02091
39.15 -0.02251
39.2 -0.02416
39.25 -0.02494
39.3 -0.02533
39.35 -0.02559
39.4 -0.02597
39.45 -0.02666
39.5 -0.02722
39.55 -0.02731
39.6 -0.02733
39.65 -0.02722
39.7 -0.02717
39.75 -0.02698
39.8 -0.02698
39.85 -0.02731
39.9 -0.02764
39.95 -0.02763
40 -0.02746
40.05 -0.02786
40.1 -0.02795
40.15 -0.02806
40.2 -0.02788
40.25 -0.02805
40.3 -0.02835
40.35 -0.02834
40.4 -0.028
40.45 -0.02782
40.5 -0.02776
40.55 -0.028
40.6 -0.02789
40.65 -0.02739
40.7 -0.02739
40.75 -0.02731
40.8 -0.02716
40.85 -0.02709
40.9 -0.02722
40.95 -0.02702
41 -0.02664
41.05 -0.02596
41.1 -0.02532
41.15 -0.02469
41.2 -0.02431
41.25 -0.02372
41.3 -0.02374
41.35 -0.02396
41.4 -0.02421
41.45 -0.02453
41.5 -0.02432
41.55 -0.02391
41.6 -0.02313
41.65 -0.02246
41.7 -0.02178
41.75 -0.02095
41.8 -0.02039
41.85 -0.02025
41.9 -0.02014
41.95 -0.01983
42 -0.01962
42.05 -0.01953
42.1 -0.01933
42.15 -0.01913
42.2 -0.01903
42.25 -0.01916
42.3 -0.01937
42.35 -0.01959
42.4 -0.01946
42.45 -0.01879
42.5 -0.01811
42.55 -0.01716
42.6 -0.01662
42.65 -0.01617
42.7 -0.01577
42.75 -0.01551
42.8 -0.01508
42.85 -0.015
42.9 -0.01531
42.95 -0.01543
43 -0.01556
43.05 -0.01534
43.1 -0.0152
43.15 -0.01481
43.2 -0.01426
43.25 -0.01371
43.3 -0.01301
43.35 -0.01285
43.4 -0.01239
43.45 -0.01218
43.5 -0.01174
43.55 -0.01127
43.6 -0.0112
43.65 -0.01106
43.7 -0.0113
43.75 -0.01157
43.8 -0.01155
43.85 -0.01158
43.9 -0.01117
43.95 -0.01097
44 -0.01084
44.05 -0.01039
44.1 -0.01036
44.15 -0.01028
44.2 -0.01042
44.25 -0.01071
44.3 -0.01062
44.35 -0.01046
44.4 -0.01037
44.45 -0.01044
44.5 -0.01077
44.55 -0.01065
44.6 -0.01019
44.65 -0.00983
44.7 -0.00922
44.75 -0.00853
44.8 -0.00791
44.85 -0.00769
44.9 -0.00791
44.95 -0.00811
45 -0.00804
45.05 -0.00779
45.1 -0.0078
45.15 -0.00768
45.2 -0.00782
45.25 -0.00788
45.3 -0.00774
45.35 -0.00734
45.4 -0.00686
45.45 -0.00674
45.5 -0.00686
45.55 -0.0067
45.6 -0.00663
45.65 -0.00651
45.7 -0.0063
45.75 -0.00637
45.8 -0.00623
45.85 -0.00629
45.9 -0.00636
45.95 -0.00628
46 -0.00613
46.05 -0.00636
46.1 -0.00675
46.15 -0.00683
46.2 -0.00665
46.25 -0.00673
46.3 -0.00629
46.35 -0.00595
46.4 -0.00537
46.45 -0.00506
46.5 -0.00503
46.55 -0.00489
46.6 -0.00503
46.65 -0.0051
46.7 -0.00514
46.75 -0.00508
46.8 -0.00482
46.85 -0.0043
46.9 -0.00374
46.95 -0.00321
47 -0.00281
47.05 -0.00276
47.1 -0.00251
47.15 -0.00233
47.2 -0.00231
47.25 -0.00234
47.3 -0.00287
47.35 -0.0034
47.4 -0.00388
47.45 -0.00403
47.5 -0.00395
47.55 -0.00376
47.6 -0.00346
47.65 -0.00295
47.7 -0.00284
47.75 -0.00279
47.8 -0.00264
47.85 -0.00293
47.9 -0.00303
47.95 -0.00309
48 -0.00304
48.05 -0.00322
48.1 -0.00367
48.15 -0.00358
48.2 -0.00332
48.25 -0.00336
48.3 -0.00299
48.35 -0.00299
48.4 -0.00263
48.45 -0.00222
48.5 -0.00235
48.55 -0.00238
48.6 -0.00245
48.65 -0.00285
48.7 -0.00303
48.75 -0.0034
48.8 -0.00318
48.85 -0.00291
48.9 -0.00259
48.95 -0.00264
49 -0.00234
49.05 -0.00246
49.1 -0.00266
49.15 -0.00299
49.2 -0.00287
49.25 -0.00302
49.3 -0.00301
49.35 -0.00331
49.4 -0.00313
49.45 -0.00304
49.5 -0.00286
49.55 -0.0025
49.6 -0.00222
49.65 -0.00223
49.7 -0.00239
49.75 -0.00229
49.8 -0.00247
49.85 -0.0024
49.9 -0.0023
49.95 -0.00246
50 -0.00215
50.05 -0.00206
50.1 -0.00181
50.15 -0.00145
50.2 -0.00102
50.25 -0.00112
50.3 -0.00105
50.35 -0.00074
50.4 -0.00065
50.45 -0.00068
50.5 -0.00094
50.55 -0.00135
50.6 -0.00174
50.65 -0.00189
50.7 -0.00206
50.75 -0.00202
50.8 -0.0021
50.85 -0.00184
50.9 -0.00166
50.95 -0.00153
51 -0.0015
51.05 -0.00116
51.1 -0.00092
51.15 -0.00107
51.2 -0.00125
51.25 -0.00134
51.3 -0.0012
51.35 -0.00094
51.4 -0.00057
51.45 -0.00007
51.5 -0.00006
51.55 -0.0004
51.6 -0.00031
51.65 -0.00028
51.7 -0.00028
51.75 -0.00029
51.8 -0.00005
51.85 0.00005
51.9 0.00037
51.95 0.00065
52 0.00106
52.05 0.00135
52.1 0.00138
52.15 0.00108
52.2 0.00066
52.25 0.00014
52.3 -0.00028
52.35 -0.0003
52.4 -0.00004
52.45 -0.0001
52.5 0.00013
52.55 -0.00015
52.6 -0.00075
52.65 -0.00132
52.7 -0.00143
52.75 -0.00145
52.8 -0.00122
52.85 -0.00139
52.9 -0.00162
52.95 -0.0017
53 -0.00196
53.05 -0.00176
53.1 -0.00134
53.15 -0.00127
53.2 -0.00141
53.25 -0.00153
53.3 -0.00129
53.35 -0.00082
53.4 -0.00072
53.45 -0.00078
53.5 -0.00081
53.55 -0.001
53.6 -0.00071
53.65 -0.00058
53.7 -0.00025
53.75 -0.00011
53.8 -0.00028
53.85 -0.00079
53.9 -0.00134
53.95 -0.00169
54 -0.00195
54.05 -0.00193
54.1 -0.00196
54.15 -0.0017
54.2 -0.00131
54.25 -0.00065
54.3 0.0001
54.35 0.00029
54.4 0.00032
54.45 0.00003
54.5 -0.00023
54.55 -0.0008
54.6 -0.00105
54.65 -0.00148
54.7 -0.00144
54.75 -0.00137
54.8 -0.00094
54.85 -0.00063
54.9 -0.00041
54.95 0.00007
55 0.00068
55.05 0.00116
55.1 0.00107
55.15 0.001
55.2 0.00075
55.25 0.00068
55.3 0.0008
55.35 0.00036
55.4 -0.00035
55.45 -0.00052
55.5 -0.00058
55.55 -0.00065
55.6 -0.00067
55.65 -0.00092
55.7 -0.0011
55.75 -0.00098
55.8 -0.00091
55.85 -0.00057
55.9 -0.00054
55.95 -0.00019
56 -0.00003
56.05 0.00029
56.1 0.00043
56.15 0.00043
56.2 0.00039
56.25 0.00049
56.3 0.00063
56.35 0.00063
56.4 0.00023
56.45 -0.00046
56.5 -0.0011
56.55 -0.00133
56.6 -0.0014
56.65 -0.00102
56.7 -0.001
56.75 -0.00081
56.8 -0.00083
56.85 -0.0008
56.9 -0.00096
56.95 -0.0012
57 -0.00117
57.05 -0.0012
57.1 -0.00094
57.15 -0.00102
57.2 -0.00104
57.25 -0.00065
57.3 -0.00052
57.35 -0.00037
57.4 -0.00021
57.45 -0.00038
57.5 -0.00027
57.55 -0.00043
57.6 -0.00015
57.65 0.00007
57.7 0.00027
57.75 0.00044
57.8 0.00031
57.85 0.00033
57.9 0.00041
57.95 0.00004
58 -0.0001
58.05 0.00003
58.1 0.00019
58.15 -0.00003
58.2 -0.00047
58.25 -0.00093
58.3 -0.00114
58.35 -0.00141
58.4 -0.00154
58.45 -0.0016
58.5 -0.00128
58.55 -0.00104
58.6 -0.00084
58.65 -0.00094
58.7 -0.00075
58.75 -0.00049
58.8 -0.00032
58.85 -0.00022
58.9 0.00019
58.95 0.00017
59 0.00039
59.05 0.00009
59.1 0.00008
59.15 0.0002
59.2 0.00059
59.25 0.00082
59.3 0.00118
59.35 0.00162
59.4 0.00154
59.45 0.00097
59.5 0.00073
59.55 0.00055
59.6 0.00028
59.65 0.00021
59.7 0.00003
59.75 -0.00032
59.8 -0.00019
59.85 -0.00015
59.9 -0
59.95 0.00042
60 0.00062
60.05 0.00099
60.1 0.00092
60.15 0.00063
60.2 0.00045
60.25 -0.00008
60.3 -0.00009
60.35 -0.00012
60.4 -0.00029
60.45 -0.00036
60.5 -0.00079
60.55 -0.00141
60.6 -0.00174
60.65 -0.00209
60.7 -0.00246
60.75 -0.00281
60.8 -0.0028
60.85 -0.0029
60.9 -0.00263
60.95 -0.00231
61 -0.00153
61.05 -0.00052
61.1 0.00027
61.15 0.00073
61.2 0.00084
61.25 0.00064
61.3 0.00024
61.35 0.00007
61.4 -0.00007
61.45 -0.00039
61.5 -0.00089
61.55 -0.00084
61.6 -0.00098
61.65 -0.00069
61.7 -0.00073
61.75 -0.00039
61.8 -0.00024
61.85 -0.0001
61.9 -0.00002
61.95 0.0001
62 0.00046
62.05 0.0003
62.1 0.00024
62.15 0.00052
62.2 0.00078
62.25 0.00076
62.3 0.0009
62.35 0.00051
62.4 -0.00011
62.45 -0.00029
62.5 -0.00002
62.55 0.00019
62.6 0.00065
62.65 0.00094
62.7 0.00143
62.75 0.00153
62.8 0.00179
62.85 0.00186
62.9 0.00179
62.95 0.0019
63 0.002
63.05 0.00215
63.1 0.00206
63.15 0.00206
63.2 0.00207
63.25 0.00165
63.3 0.0009
63.35 0.00035
63.4 0.00005
63.45 -0.00047
63.5 -0.0008
63.55 -0.00085
63.6 -0.00059
63.65 -0.00036
63.7 -0.00035
63.75 -0.00033
63.8 -0.00009
63.85 0.00007
63.9 -0.00001
63.95 -0.00032
64 -0.00071
64.05 -0.00075
64.1 -0.00063
64.15 -0.00075
64.2 -0.00116
64.25 -0.00167
64.3 -0.00169
64.35 -0.00145
64.4 -0.00149
64.45 -0.0014
64.5 -0.00105
64.55 -0.00096
64.6 -0.00106
64.65 -0.00106
64.7 -0.00127
64.75 -0.00128
64.8 -0.00095
64.85 -0.00041
64.9 -0.00023
64.95 -0.00044
65 -0.00076
65.05 -0.00094
65.1 -0.0008
65.15 -0.00038
65.2 0.00017
65.25 0.00023
65.3 0.00009
65.35 0.00037
65.4 0.00021
65.45 0.00034
65.5 0.00072
65.55 0.00056
65.6 0.00024
65.65 -0.00011
65.7 -0.00065
65.75 -0.00107
65.8 -0.00094
65.85 -0.00083
65.9 -0.00093
65.95 -0.00118
66 -0.00116
66.05 -0.00076
66.1 -0.00056
66.15 -0.0001
66.2 -0.00014
66.25 -0.00034
66.3 -0.00069
66.35 -0.00088
66.4 -0.00122
66.45 -0.00116
66.5 -0.00065
66.55 -0.00015
66.6 0.00019
66.65 0.00014
66.7 0.00004
66.75 0.00023
66.8 0.00056
66.85 0.00068
66.9 0.00037
66.95 0.00018
67 -0.00035
67.05 -0.00105
67.1 -0.00138
67.15 -0.00139
67.2 -0.0011
67.25 -0.00043
67.3 0.00029
67.35 0.00061
67.4 0.00105
67.45 0.00162
67.5 0.0019
67.55 0.00187
67.6 0.00142
67.65 0.0008
67.7 0.00072
67.75 0.00036
67.8 0.00047
67.85 0.00079
67.9 0.00106
67.95 0.00114
68 0.00084
68.05 0.00058
68.1 0.00052
68.15 0.00079
68.2 0.00074
68.25 0.00061
68.3 0.00036
68.35 0.00033
68.4 0.00018
68.45 0.00016
68.5 0.00048
68.55 0.00093
68.6 0.00136
68.65 0.00117
68.7 0.00074
68.75 0.00067
68.8 0.0003
68.85 0.00041
68.9 0.00072
68.95 0.00053
69 0.00057
69.05 0.00035
69.1 0.00022
69.15 0.00036
69.2 0.00025
69.25 0.00029
69.3 0.00065
69.35 0.00108
69.4 0.00137
69.45 0.00132
69.5 0.00112
69.55 0.0006
69.6 0.00015
69.65 -0.00044
69.7 -0.00093
69.75 -0.00091
69.8 -0.00109
69.85 -0.00116
69.9 -0.00124
69.95 -0.00093
70 -0.0003
70.05 -0.00009
70.1 -0.00006
70.15 -0.00028
70.2 -0.00037
70.25 -0.00043
70.3 -0.00079
70.35 -0.00066
70.4 -0.00043
70.45 -0.00057
70.5 -0.00043
70.55 -0.00055
70.6 -0.00044
70.65 -0.00028
70.7 -0.00003
70.75 -0.00012
70.8 -0.0002
70.85 -0.00052
70.9 -0.00058
70.95 -0.00062
71 -0.00067
71.05 -0.0009
71.1 -0.00088
71.15 -0.00042
71.2 -0.0004
71.25 -0.00004
71.3 0.00024
71.35 0.00012
71.4 0.0001
71.45 -0.00001
71.5 0.00005
71.55 -0.00028
71.6 -0.00047
71.65 -0.00025
71.7 0.00021
71.75 0.00018
71.8 0.00025
71.85 0.00044
71.9 0.00072
71.95 0.00089
72 0.00103
72.05 0.00068
72.1 0.00039
72.15 -0.00012
72.2 -0.00024
72.25 -0.00053
72.3 -0.00108
72.35 -0.00119
72.4 -0.00094
72.45 -0.00072
72.5 -0.00036
72.55 0.00016
72.6 0.00005
72.65 -0.00005
72.7 0.0002
72.75 -0.00007
72.8 -0.00042
72.85 -0.00073
72.9 -0.00084
72.95 -0.00079
73 -0.00047
73.05 -0.0004
73.1 -0.00071
73.15 -0.00126
73.2 -0.0019
73.25 -0.0018
73.3 -0.0012
73.35 -0.00102
73.4 -0.00063
73.45 -0.00043
73.5 0.00012
73.55 0.0008
73.6 0.00079
73.65 0.00057
73.7 0.00072
73.75 0.00046
73.8 0.00042
73.85 0.00011
73.9 -0.00043
73.95 -0.00056
74 -0.00024
74.05 -0.00011
74.1 0.00021
74.15 0.00044
74.2 0.00051
74.25 0.00052
74.3 0.00049
74.35 0.00066
74.4 0.00107
74.45 0.00089
74.5 0.001
74.55 0.00057
74.6 0.00026
74.65 0.00015
74.7 0.00017
74.75 0.00049
74.8 0.00099
74.85 0.00099
74.9 0.00081
74.95 0.00096
75 0.00136
75.05 0.00125
75.1 0.00127
75.15 0.00119
75.2 0.0012
75.25 0.00074
75.3 0.00018
75.35 0.00009
75.4 -0.00024
75.45 -0.00062
75.5 -0.00088
75.55 -0.00116
75.6 -0.0013
75.65 -0.00167
75.7 -0.00187
75.75 -0.00179
75.8 -0.00124
75.85 -0.00068
75.9 -0.00051
75.95 -0.00042
76 -0.00011
76.05 -0.00027
76.1 -0.00001
76.15 -0.00025
76.2 -0.00048
76.25 -0.00031
76.3 -0.00011
76.35 0.00002
76.4 -0.00016
76.45 -0.00051
76.5 -0.00053
76.55 -0.00029
76.6 -0.00007
76.65 0.00017
76.7 0.00005
76.75 -0.00017
76.8 0.00007
76.85 0.00042
76.9 0.00021
76.95 0.00031
77 0.00056
77.05 0.00047
77.1 0.00046
77.15 0.00047
77.2 0.0001
77.25 -0.00022
77.3 -0.00079
77.35 -0.00131
77.4 -0.00127
77.45 -0.00136
77.5 -0.00122
77.55 -0.00144
77.6 -0.00136
77.65 -0.0016
77.7 -0.00197
77.75 -0.00185
77.8 -0.00195
77.85 -0.00213
77.9 -0.00211
77.95 -0.00219
78 -0.00241
78.05 -0.002
78.1 -0.00196
78.15 -0.00146
78.2 -0.00116
78.25 -0.00102
78.3 -0.00104
78.35 -0.0008
78.4 -0.00055
78.45 -0.00031
78.5 0.00023
78.55 0.0006
78.6 0.00097
78.65 0.00103
78.7 0.0009
78.75 0.00099
78.8 0.00098
78.85 0.00099
78.9 0.00105
78.95 0.00094
79 0.00118
79.05 0.00158
79.1 0.00186
79.15 0.00152
79.2 0.00134
79.25 0.00085
79.3 0.00047
79.35 0.00044
79.4 0.00004
79.45 -0.00009
79.5 -0.00051
79.55 -0.0009
79.6 -0.00107
79.65 -0.00077
79.7 -0.00019
79.75 0.0001
79.8 0.00047
79.85 0.00104
79.9 0.00098
79.95 0.00071
80 0.00046
80.05 0.0006
80.1 0.00056
80.15 0.00025
80.2 -0.00004
80.25 0.00009
80.3 -0.00004
80.35 -0.0005
80.4 -0.00106
80.45 -0.00142
80.5 -0.00179
80.55 -0.00226
80.6 -0.00253
80.65 -0.00268
80.7 -0.0025
80.75 -0.00211
80.8 -0.0016
80.85 -0.00148
80.9 -0.00148
80.95 -0.00127
81 -0.00096
81.05 -0.00047
81.1 0.00014
81.15 0.00023
81.2 0.00057
81.25 0.00068
81.3 0.00103
81.35 0.00114
81.4 0.00092
81.45 0.00103
81.5 0.00088
81.55 0.00052
81.6 -0.00013
81.65 -0.00073
81.7 -0.0014
81.75 -0.00146
81.8 -0.001
81.85 -0.00071
81.9 -0.00067
81.95 -0.00033
82 -0.00005
82.05 -0.0001
82.1 -0.00014
82.15 0.00007
82.2 0.00042
82.25 0.00053
82.3 0.00063
82.35 0.00032
82.4 -0.0002
82.45 -0.00015
82.5 -0.00033
82.55 -0.0002
82.6 0.00003
82.65 0.00025
82.7 0.00059
82.75 0.0008
82.8 0.00084
82.85 0.00043
82.9 0.00037
82.95 0.00031
83 0.00028
83.05 0.00059
83.1 0.00104
83.15 0.00095
83.2 0.00086
83.25 0.0008
83.3 0.00069
83.35 0.00091
83.4 0.00116
83.45 0.00137
83.5 0.00154
83.55 0.00148
83.6 0.00146
83.65 0.00105
83.7 0.00063
83.75 0.00069
83.8 0.00048
83.85 0.00004
83.9 -0.0002
83.95 -0.00072
84 -0.00089
84.05 -0.00058
84.1 -0.00015
84.15 -0.00023
84.2 -0.00018
84.25 -0.00045
84.3 -0.00067
84.35 -0.0009
84.4 -0.00071
84.45 -0.00064
84.5 -0.00062
84.55 -0.00024
84.6 -0.00008
84.65 0
84.7 0.00017
84.75 0.00027
84.8 -0.00001
84.85 -0.00016
84.9 -0.00026
84.95 -0.00033
85 -0.00024
85.05 -0.00014
85.1 0.00012
85.15 0.00067
85.2 0.00115
85.25 0.00144
85.3 0.00143
85.35 0.00165
85.4 0.00143
85.45 0.00112
85.5 0.00078
85.55 0.00031
85.6 -0.00005
85.65 -0.00061
85.7 -0.00108
85.75 -0.00139
85.8 -0.00131
85.85 -0.00077
85.9 -0.0003
85.95 -0.00001
86 0.00054
86.05 0.00048
86.1 0.00065
86.15 0.00082
86.2 0.00096
86.25 0.00067
86.3 0.0008
86.35 0.00111
86.4 0.00157
86.45 0.00212
86.5 0.00203
86.55 0.00143
86.6 0.0007
86.65 -0.00008
86.7 -0.00055
86.75 -0.00108
86.8 -0.00101
86.85 -0.00088
86.9 -0.0004
86.95 -0.00027
87 0.00018
87.05 0.00041
87.1 0.0009
87.15 0.0008
87.2 0.00094
87.25 0.00126
87.3 0.00129
87.35 0.00151
87.4 0.00188
87.45 0.00159
87.5 0.00115
87.55 0.00037
87.6 0.0001
87.65 -0.0005
87.7 -0.001
87.75 -0.0011
87.8 -0.00124
87.85 -0.00157
87.9 -0.00143
87.95 -0.00139
88 -0.00129
88.05 -0.00134
88.1 -0.00103
88.15 -0.00108
88.2 -0.00114
88.25 -0.00113
88.3 -0.00119
88.35 -0.00092
88.4 -0.00055
88.45 -0.00016
88.5 -0.00005
88.55 0.00016
88.6 0.00033
88.65 0.00069
88.7 0.00108
88.75 0.00108
88.8 0.001
88.85 0.00045
88.9 0.00041
88.95 0.0005
89 0.0005
89.05 0.00079
89.1 0.00102
89.15 0.00138
89.2 0.00135
89.25 0.00156
89.3 0.00133
89.35 0.00067
89.4 -0.00007
89.45 -0.00062
89.5 -0.00095
89.55 -0.00138
89.6 -0.0018
89.65 -0.00214
89.7 -0.00235
89.75 -0.00203
89.8 -0.00137
89.85 -0.00054
89.9 0.00041
89.95 0.00064
90 0.00051
90.05 0.00027
90.1 -0.00019
90.15 -0.00016
90.2 -0.00042
90.25 -0.00054
90.3 -0.00045
90.35 -0.00037
90.4 -0.00028
90.45 -0.0006
90.5 -0.00093
90.55 -0.00105
90.6 -0.00092
90.65 -0.00058
90.7 -0.00026
90.75 -0.00038
90.8 -0.00073
90.85 -0.00117
90.9 -0.00144
90.95 -0.00157
91 -0.00156
91.05 -0.00128
91.1 -0.00083
91.15 -0.00014
91.2 0.00024
91.25 0.00014
91.3 0.00016
91.35 0.00038
91.4 0.00058
91.45 0.0005
91.5 0.00051
91.55 0.00079
91.6 0.00063
91.65 0.00033
91.7 0.00005
91.75 0.0002
91.8 0.00064
91.85 0.00048
91.9 0.00005
91.95 -0.00007
92 -0.00045
92.05 -0.00036
92.1 -0.00038
92.15 -0.00011
92.2 0.00034
92.25 0.00046
92.3 0.00051
92.35 0.00088
92.4 0.00077
92.45 0.00054
92.5 0.00026
92.55 -0.00028
92.6 -0.00049
92.65 -0.00022
92.7 -0
92.75 0.00025
92.8 0.00033
92.85 0.00003
92.9 0.00014
92.95 -0.00001
93 0.00014
93.05 0.00013
93.1 0.00045
93.15 0.00044
93.2 0.00026
93.25 0.00037
93.3 0.00023
93.35 -0.00001
93.4 -0.00046
93.45 -0.00033
93.5 -0.00039
93.55 -0.00054
93.6 -0.00094
93.65 -0.00143
93.7 -0.00164
93.75 -0.00134
93.8 -0.00106
93.85 -0.00073
93.9 -0.00077
93.95 -0.0009
94 -0.00122
94.05 -0.00148
94.1 -0.00138
94.15 -0.00155
94.2 -0.00117
94.25 -0.00045
94.3 -0.00034
94.35 -0.00032
94.4 -0.00002
94.45 0.00027
94.5 0.0001
94.55 -0.00003
94.6 -0.00006
94.65 0.00022
94.7 0.00066
94.75 0.00063
94.8 0.00032
94.85 0.00042
94.9 0.00077
94.95 0.00078
95 0.00075
95.05 0.00106
95.1 0.00137
95.15 0.00122
95.2 0.00074
95.25 0.0006
95.3 0.00042
95.35 0.00029
95.4 0.00056
95.45 0.00032
95.5 0.00023
95.55 0.00035
95.6 0.00015
95.65 0.00026
95.7 -0.00001
95.75 -0.00038
95.8 -0.00055
95.85 -0.00067
95.9 -0.00054
95.95 -0.00015
96 -0.00007
96.05 -0.00008
96.1 0.00009
96.15 0.00028
96.2 0.00034
96.25 0.00038
96.3 0.00045
96.35 0.0006
96.4 0.00029
96.45 -0.00008
96.5 -0.00025
96.55 -0.00058
96.6 -0.00061
96.65 -0.00047
96.7 0
96.75 0.00069
96.8 0.00135
96.85 0.00134
96.9 0.00092
96.95 0.00084
97 0.00051
97.05 0.00043
97.1 0.00041
97.15 0.00024
97.2 -0.00007
97.25 0.00011
97.3 0.00046
97.35 0.00034
97.4 0.00022
97.45 0.00039
97.5 0.00051
97.55 0.00048
97.6 0.00009
97.65 -0.00026
97.7 -0.00077
97.75 -0.00138
97.8 -0.0013
97.85 -0.00084
97.9 -0.00089
97.95 -0.0012
98 -0.00098
98.05 -0.00108
98.1 -0.0013
98.15 -0.00172
98.2 -0.00202
98.25 -0.00184
98.3 -0.00137
98.35 -0.0008
98.4 -0.0004
98.45 0.00029
98.5 0.00034
98.55 0.00003
98.6 -0.00022
98.65 -0.00061
98.7 -0.00065
98.75 -0.00032
98.8 -0.00031
98.85 -0.00004
98.9 -0.00014
98.95 -0.00014
99 -0.00004
99.05 -0.00018
99.1 -0.00038
99.15 -0.00039
99.2 -0.00008
99.25 -0.00014
99.3 -0.00005
99.35 -0.00007
99.4 -0.00027
99.45 -0.0002
99.5 0.00014
99.55 0.00053
99.6 0.00055
99.65 0.00088
99.7 0.0013
99.75 0.00168
99.8 0.00201
99.85 0.00236
99.9 0.0022
99.95 0.00203
