0 0
0.05 0.00047
0.1 0.0008
0.15 0.00124
0.2 0.00167
0.25 0.00198
0.3 0.00233
0.35 0.00267
0.4 0.0028
0.45 0.00265
0.5 0.00248
0.55 0.00231
0.6 0.00237
0.65 0.00219
0.7 0.00223
0.75 0.00218
0.8 0.00233
0.85 0.00255
0.9 0.00246
0.95 0.00236
1 0.00241
1.05 0.00228
1.1 0.00225
1.15 0.00246
1.2 0.0028
1.25 0.00272
1.3 0.00277
1.35 0.00252
1.4 0.00231
1.45 0.00205
1.5 0.00201
1.55 0.00174
1.6 0.00179
1.65 0.00164
1.7 0.00168
1.75 0.00174
1.8 0.00177
1.85 0.00156
1.9 0.00168
1.95 0.00181
2 0.00212
2.05 0.00244
2.1 0.00259
2.15 0.00239
2.2 0.00212
2.25 0.00176
2.3 0.00161
2.35 0.00156
2.4 0.00174
2.45 0.00183
2.5 0.002
2.55 0.00194
2.6 0.00165
2.65 0.00144
2.7 0.0013
2.75 0.00138
2.8 0.00148
2.85 0.00134
2.9 0.00108
2.95 0.00092
3 0.00107
3.05 0.00111
3.1 0.00122
3.15 0.00133
3.2 0.00133
3.25 0.00113
3.3 0.00088
3.35 0.00056
3.4 0.00044
3.45 0.00054
3.5 0.00081
3.55 0.00118
3.6 0.0015
3.65 0.00153
3.7 0.00134
3.75 0.00143
3.8 0.00143
3.85 0.00122
3.9 0.00099
3.95 0.00074
4 0.00057
4.05 0.00058
4.1 0.00053
4.15 0.0005
4.2 0.00062
4.25 0.00087
4.3 0.00105
4.35 0.0009
4.4 0.00058
4.45 0.00054
4.5 0.0003
4.55 -0.00002
4.6 -0.00002
4.65 -0.00006
4.7 -0.00014
4.75 -0.00025
4.8 -0.0002
4.85 -0.00012
4.9 0.00018
4.95 0.00057
5 0.00105
5.05 0.00116
5.1 0.00097
5.15 0.00094
5.2 0.00102
5.25 0.00089
5.3 0.00078
5.35 0.00091
5.4 0.00083
5.45 0.00088
5.5 0.0009
5.55 0.00092
5.6 0.00107
5.65 0.00121
5.7 0.001
5.75 0.00104
5.8 0.00089
5.85 0.00084
5.9 0.00055
5.95 0.00037
6 0.00022
6.05 0.00004
6.1 -0.00008
6.15 -0.00021
6.2 -0.00042
6.25 -0.00033
6.3 0.00001
6.35 0.00036
6.4 0.00043
6.45 0.00039
6.5 0.00053
6.55 0.0005
6.6 0.00026
6.65 -0.00004
6.7 -0.00016
6.75 -0.00021
6.8 -0.00015
6.85 0.00011
6.9 0.00047
6.95 0.00052
7 0.00059
7.05 0.00057
7.1 0.00066
7.15 0.00074
7.2 0.00063
7.25 0.00071
7.3 0.00074
7.35 0.00048
7.4 0.00051
7.45 0.00042
7.5 0.00023
7.55 0.00001
7.6 -0.00031
7.65 -0.00041
7.7 -0.00043
7.75 -0.00059
7.8 -0.00056
7.85 -0.00056
7.9 -0.0005
7.95 -0.00049
8 -0.00062
8.05 -0.0005
8.1 -0.0003
8.15 -0.00028
8.2 -0.00043
8.25 -0.00032
8.3 -0.00015
8.35 0.00008
8.4 0.0002
8.45 0.0003
8.5 0.0002
8.55 0.00035
8.6 0.00066
8.65 0.00103
8.7 0.00133
8.75 0.00141
8.8 0.00137
8.85 0.0015
8.9 0.00159
8.95 0.00156
9 0.00155
9.05 0.00129
9.1 0.00103
9.15 0.00091
9.2 0.00055
9.25 0.00005
9.3 -0.00033
9.35 -0.00034
9.4 -0.00039
9.45 -0.00015
9.5 0.00027
9.55 0.00056
9.6 0.00072
9.65 0.00098
9.7 0.0013
9.75 0.00128
9.8 0.00132
9.85 0.00111
9.9 0.00073
9.95 0.00055
10 0.00064
10.05 0.00068
10.1 0.00052
10.15 0.00044
10.2 0.00021
10.25 -0
10.3 -0.0003
10.35 -0.0004
10.4 -0.00058
10.45 -0.0007
10.5 -0.00067
10.55 -0.00045
10.6 -0.00009
10.65 -0.00007
10.7 0.00016
10.75 0.00014
10.8 -0.00001
10.85 -0.00001
10.9 0.00006
10.95 0.00005
11 0.00019
11.05 0.00029
11.1 0.00028
11.15 0.00015
11.2 -0.00004
11.25 -0.00018
11.3 -0.00017
11.35 -0.00003
11.4 0.00006
11.45 0.0001
11.5 0.00019
11.55 0.00034
11.6 0.00018
11.65 0.00024
11.7 0.00043
11.75 0.00065
11.8 0.00051
11.85 0.00038
11.9 0.00028
11.95 0.00016
12 -0.00012
12.05 -0.0001
12.1 -0.00031
12.15 -0.00052
12.2 -0.00083
12.25 -0.00097
12.3 -0.00077
12.35 -0.00034
12.4 -0.00004
12.45 0.0002
12.5 0.00033
12.55 0.0003
12.6 0.00019
12.65 0.00001
12.7 0.00009
12.75 0.00012
12.8 0.00013
12.85 0.00008
12.9 -0.00016
12.95 -0.00012
13 -0.00028
13.05 -0.00021
13.1 0.00001
13.15 -0.00009
13.2 -0.00031
13.25 -0.00051
13.3 -0.00049
13.35 -0.00052
13.4 -0.00044
13.45 -0.00016
13.5 0.00005
13.55 0.00034
13.6 0.00027
13.65 0.00004
13.7 -0.00001
13.75 -0.00025
13.8 -0.00026
13.85 -0.00021
13.9 -0.00011
13.95 -0.00012
14 -0.00017
14.05 -0.00009
14.1 0.00005
14.15 -0.00002
14.2 -0.00026
14.25 -0.00027
14.3 -0.00002
14.35 -0.00009
14.4 0.0001
14.45 0.00005
14.5 -0.00006
14.55 -0.00008
14.6 0.00003
14.65 0.0002
14.7 0.00047
14.75 0.00081
14.8 0.00116
14.85 0.00134
14.9 0.00144
14.95 0.00139
15 0.00145
15.05 0.00158
15.1 0.00149
15.15 0.00127
15.2 0.00104
15.25 0.00082
15.3 0.00045
15.35 0.00001
15.4 -0.00014
15.45 -0.00031
15.5 -0.00034
15.55 -0.00015
15.6 -0.00004
15.65 0.00002
15.7 -0.00009
15.75 -0.00005
15.8 -0.0001
15.85 -0.00021
15.9 -0.00034
15.95 -0.00051
16 -0.00046
16.05 -0.00032
16.1 -0.00026
16.15 -0
16.2 0.00012
16.25 0.00002
16.3 0.00015
16.35 0.00041
16.4 0.00045
16.45 0.0004
16.5 0.00039
16.55 0.0004
16.6 0.00031
16.65 0.00037
16.7 0.00051
16.75 0.00031
16.8 0.00003
16.85 -0.00003
16.9 -0.00016
16.95 -0.00031
17 -0.00054
17.05 -0.00062
17.1 -0.00074
17.15 -0.00092
17.2 -0.00076
17.25 -0.00053
17.3 -0.00018
17.35 0.00008
17.4 0.00014
17.45 0.00034
17.5 0.00048
17.55 0.00069
17.6 0.00062
17.65 0.00073
17.7 0.0009
17.75 0.00071
17.8 0.00027
17.85 0.00018
17.9 0.0002
17.95 0.00019
18 0.00006
18.05 0.00003
18.1 0.00022
18.15 0.00011
18.2 0.00008
18.25 0.00002
18.3 0.00005
18.35 0.00017
18.4 0.00013
18.45 -0.00011
18.5 -0.00049
18.55 -0.00048
18.6 -0.00052
18.65 -0.00044
18.7 -0.00025
18.75 -0.00002
18.8 -0.00007
18.85 0.00006
18.9 0.00002
18.95 0.0001
19 0.00035
19.05 0.00048
19.1 0.00044
19.15 0.00013
19.2 0.00002
19.25 0.00011
19.3 0.00011
19.35 -0.00012
19.4 -0.00029
19.45 -0.0005
19.5 -0.00059
19.55 -0.00077
19.6 -0.00068
19.65 -0.00038
19.7 -0.00002
19.75 0.00003
19.8 -0.00005
19.85 -0.00015
19.9 -0.00024
19.95 -0.00037
20 -0.00024
20.05 0.00003
20.1 0.00035
20.15 0.00037
20.2 0.0002
20.25 -0.0001
20.3 -0.00025
20.35 -0.00023
20.4 -0.00009
20.45 -0.00015
20.5 0.00004
20.55 0.0003
20.6 0.00023
20.65 0.00028
20.7 0.00027
20.75 0.00001
20.8 -0.00035
20.85 -0.0007
20.9 -0.0011
20.95 -0.00116
21 -0.00129
21.05 -0.00113
21.1 -0.00108
21.15 -0.00089
21.2 -0.00068
21.25 -0.00051
21.3 -0.00037
21.35 -0.00046
21.4 -0.00037
21.45 -0.00042
21.5 -0.00033
21.55 -0.00016
21.6 -0.00005
21.65 0.00015
21.7 0.00025
21.75 0.00035
21.8 0.00015
21.85 -0.00017
21.9 -0.0003
21.95 -0.00058
22 -0.00095
22.05 -0.00114
22.1 -0.00137
22.15 -0.00153
22.2 -0.00173
22.25 -0.00158
22.3 -0.00153
22.35 -0.0012
22.4 -0.00099
22.45 -0.00059
22.5 -0.00043
22.55 -0.00028
22.6 0.00001
22.65 0.00031
22.7 0.00064
22.75 0.00072
22.8 0.00086
22.85 0.0008
22.9 0.00088
22.95 0.00083
23 0.00054
23.05 0.00035
23.1 0.00028
23.15 0.00029
23.2 0.00031
23.25 0.00012
23.3 0.00014
23.35 0.00025
23.4 0.00009
23.45 -0.00024
23.5 -0.00022
23.55 -0.00036
23.6 -0.0006
23.65 -0.00056
23.7 -0.00041
23.75 -0.0002
23.8 0.00013
23.85 0.00055
23.9 0.00101
23.95 0.00139
24 0.00173
24.05 0.00165
24.1 0.00139
24.15 0.00132
24.2 0.00109
24.25 0.00072
24.3 0.00065
24.35 0.00036
24.4 0.00019
24.45 0.00002
24.5 -0.00023
24.55 -0.00059
24.6 -0.00082
24.65 -0.00093
24.7 -0.00097
24.75 -0.00107
24.8 -0.00102
24.85 -0.00076
24.9 -0.00037
24.95 -0.00031
25 -0.0001
25.05 0.0001
25.1 0.00007
25.15 0.00005
25.2 -0.00019
25.25 -0.00018
25.3 -0.00034
25.35 -0.00021
25.4 0.00001
25.45 -0.00008
25.5 0.00011
25.55 0.00014
25.6 0.00025
25.65 0.0001
25.7 0.00017
25.75 0.00008
25.8 -0.00012
25.85 -0.00044
25.9 -0.00073
25.95 -0.00093
26 -0.00115
26.05 -0.00131
26.1 -0.00128
26.15 -0.00113
26.2 -0.00096
26.25 -0.00067
26.3 -0.00067
26.35 -0.00065
26.4 -0.00073
26.45 -0.00066
26.5 -0.00063
26.55 -0.00065
26.6 -0.00074
26.65 -0.00074
26.7 -0.00084
26.75 -0.00087
26.8 -0.0008
26.85 -0.00056
26.9 -0.00015
26.95 0.00036
27 0.00078
27.05 0.00119
27.1 0.00117
27.15 0.00121
27.2 0.0011
27.25 0.0011
27.3 0.0011
27.35 0.00092
27.4 0.00072
27.45 0.00062
27.5 0.00068
27.55 0.0009
27.6 0.00087
27.65 0.00091
27.7 0.00084
27.75 0.00084
27.8 0.0006
27.85 0.00046
27.9 0.0005
27.95 0.00049
28 0.00043
28.05 0.00056
28.1 0.00047
28.15 0.00049
28.2 0.00039
28.25 0.00014
28.3 -0.00005
28.35 -0.00022
28.4 -0.00042
28.45 -0.00045
28.5 -0.00047
28.55 -0.00062
28.6 -0.00074
28.65 -0.00095
28.7 -0.001
28.75 -0.00099
28.8 -0.00082
28.85 -0.00084
28.9 -0.00057
28.95 -0.00041
29 -0.00046
29.05 -0.00022
29.1 -0.00011
29.15 -0.00019
29.2 -0.00018
29.25 -0.00026
29.3 -0.00042
29.35 -0.00034
29.4 -0.00003
29.45 -0.00002
29.5 0.00007
29.55 -0.00003
29.6 -0.00031
29.65 -0.00037
29.7 -0.00026
29.75 -0.00034
29.8 -0.00048
29.85 -0.00047
29.9 -0.00029
29.95 0.00005
30 0.00034
30.05 0.00048
30.1 0.00046
30.15 0.00049
30.2 0.00035
30.25 0.00015
30.3 0.0002
30.35 0.00018
30.4 0.00021
30.45 0.00045
30.5 0.00049
30.55 0.00059
30.6 0.00057
30.65 0.00036
30.7 0.00008
30.75 -0.00032
30.8 -0.00071
30.85 -0.00069
30.9 -0.00073
30.95 -0.00082
31 -0.00068
31.05 -0.00043
31.1 -0.00034
31.15 -0.00002
31.2 0.00013
31.25 0.00014
31.3 -0.00002
31.35 -0.00014
31.4 -0.00002
31.45 0.00003
31.5 0.00022
31.55 0.00022
31.6 -0.00001
31.65 -0.00007
31.7 0.00012
31.75 0.00018
31.8 0.00004
31.85 -0.00014
31.9 -0.00046
31.95 -0.00046
32 -0.00063
32.05 -0.00077
32.1 -0.0006
32.15 -0.00062
32.2 -0.00043
32.25 -0.00039
32.3 -0.00017
32.35 0.00006
32.4 0.00012
32.45 -0.00001
32.5 -0.00013
32.55 -0.00027
32.6 -0.00014
32.65 -0.00021
32.7 -0.00001
32.75 0.00004
32.8 0.00016
32.85 0.00017
32.9 0.00024
32.95 0.00013
33 0.00013
33.05 0.00023
33.1 0.00022
33.15 0.00014
33.2 -0.00002
33.25 -0.00004
33.3 0.00012
33.35 0.00046
33.4 0.00073
33.45 0.00063
33.5 0.00065
33.55 0.00045
33.6 0.0004
33.65 0.00051
33.7 0.00072
33.75 0.00089
33.8 0.00094
33.85 0.00098
33.9 0.00094
33.95 0.00103
34 0.00084
34.05 0.00067
34.1 0.00027
34.15 0.00016
34.2 -0.00003
34.25 -0.00033
34.3 -0.00036
34.35 -0.00038
34.4 -0.00032
34.45 -0.00005
34.5 0.00015
34.55 0.00042
34.6 0.00077
34.65 0.00088
34.7 0.00087
34.75 0.00088
34.8 0.00084
34.85 0.00097
34.9 0.00118
34.95 0.00097
35 0.00065
35.05 0.00059
35.1 0.00073
35.15 0.00094
35.2 0.00119
35.25 0.00119
35.3 0.00098
35.35 0.00094
35.4 0.00065
35.45 0.00013
35.5 -0.00049
35.55 -0.00083
35.6 -0.00123
35.65 -0.0013
35.7 -0.00124
35.75 -0.00115
35.8 -0.00138
35.85 -0.00185
35.9 -0.00232
35.95 -0.00272
36 -0.00316
36.05 -0.00375
36.1 -0.00445
36.15 -0.00532
36.2 -0.00615
36.25 -0.00743
36.3 -0.00907
36.35 -0.01094
36.4 -0.01304
36.45 -0.01529
36.5 -0.01753
36.55 -0.01994
36.6 -0.02262
36.65 -0.02559
36.7 -0.0291
36.75 -0.03275
36.8 -0.03688
36.85 -0.04116
36.9 -0.04588
36.95 -0.05101
37 -0.05649
37.05 -0.0618
37.1 -0.06733
37.15 -0.07315
37.2 -0.07883
37.25 -0.08443
37.3 -0.09
37.35 -0.09539
37.4 -0.10052
37.45 -0.1057
37.5 -0.11046
37.55 -0.1149
37.6 -0.11869
37.65 -0.12183
37.7 -0.12408
37.75 -0.12525
37.8 -0.12557
37.85 -0.1253
37.9 -0.12386
37.95 -0.1214
38 -0.11836
38.05 -0.11467
38.1 -0.11013
38.15 -0.1046
38.2 -0.09827
38.25 -0.09173
38.3 -0.0849
38.35 -0.07796
38.4 -0.07089
38.45 -0.06375
38.5 -0.05671
38.55 -0.0497
38.6 -0.04297
38.65 -0.03704
38.7 -0.03166
38.75 -0.0268
38.8 -0.0227
38.85 -0.0193
38.9 -0.01661
38.95 -0.01462
39 -0.01299
39.05 -0.01191
39.1 -0.01113
39.15 -0.01045
39.2 -0.0096
39.25 -0.00855
39.3 -0.00741
39.35 -0.00576
39.4 -0.00392
39.45 -0.00167
39.5 0.00094
39.55 0.0041
39.6 0.00779
39.65 0.01212
39.7 0.0172
39.75 0.02329
39.8 0.03011
39.85 0.03757
39.9 0.04541
39.95 0.05384
40 0.06238
40.05 0.07104
40.1 0.07962
40.15 0.08805
40.2 0.09656
40.25 0.10511
40.3 0.11329
40.35 0.1209
40.4 0.12767
40.45 0.13375
40.5 0.13906
40.55 0.14389
40.6 0.14808
40.65 0.15153
40.7 0.15421
40.75 0.1559
40.8 0.1568
40.85 0.15684
40.9 0.15634
40.95 0.15504
41 0.15291
41.05 0.15005
41.1 0.1467
41.15 0.14294
41.2 0.13905
41.25 0.13477
41.3 0.13031
41.35 0.12549
41.4 0.1208
41.45 0.11595
41.5 0.1108
41.55 0.10549
41.6 0.10031
41.65 0.0951
41.7 0.09028
41.75 0.08559
41.8 0.08117
41.85 0.07696
41.9 0.07262
41.95 0.06831
42 0.06405
42.05 0.06003
42.1 0.0562
42.15 0.05267
42.2 0.04932
42.25 0.04614
42.3 0.04305
42.35 0.04016
42.4 0.03716
42.45 0.03429
42.5 0.03141
42.55 0.02849
42.6 0.02591
42.65 0.02364
42.7 0.02161
42.75 0.01953
42.8 0.01737
42.85 0.01514
42.9 0.01326
42.95 0.01137
43 0.00977
43.05 0.00839
43.1 0.00699
43.15 0.0058
43.2 0.00435
43.25 0.00279
43.3 0.00139
43.35 -0.0001
43.4 -0.00144
43.45 -0.00246
43.5 -0.00329
43.55 -0.004
43.6 -0.00504
43.65 -0.00603
43.7 -0.00716
43.75 -0.0081
43.8 -0.00872
43.85 -0.00959
43.9 -0.01014
43.95 -0.01064
44 -0.01138
44.05 -0.0119
44.1 -0.01229
44.15 -0.01278
44.2 -0.01304
44.25 -0.01345
44.3 -0.01384
44.35 -0.01434
44.4 -0.01491
44.45 -0.01546
44.5 -0.01568
44.55 -0.01592
44.6 -0.0161
44.65 -0.01627
44.7 -0.01651
44.75 -0.01669
44.8 -0.01701
44.85 -0.0172
44.9 -0.01745
44.95 -0.01764
45 -0.01766
45.05 -0.01759
45.1 -0.01767
45.15 -0.01786
45.2 -0.01817
45.25 -0.01853
45.3 -0.01866
45.35 -0.0187
45.4 -0.01858
45.45 -0.01844
45.5 -0.01852
45.55 -0.01837
45.6 -0.01828
45.65 -0.01813
45.7 -0.01805
45.75 -0.01772
45.8 -0.01765
45.85 -0.01765
45.9 -0.01748
45.95 -0.0172
46 -0.0171
46.05 -0.01682
46.1 -0.01672
46.15 -0.01662
46.2 -0.01644
46.25 -0.01646
46.3 -0.01655
46.35 -0.01676
46.4 -0.01695
46.45 -0.01695
46.5 -0.01676
46.55 -0.01652
46.6 -0.01603
46.65 -0.01569
46.7 -0.01539
46.75 -0.01507
46.8 -0.01501
46.85 -0.01473
46.9 -0.01438
46.95 -0.01387
47 -0.0135
47.05 -0.01329
47.1 -0.0131
47.15 -0.01312
47.2 -0.01328
47.25 -0.01322
47.3 -0.01334
47.35 -0.01324
47.4 -0.01302
47.45 -0.01258
47.5 -0.01216
47.55 -0.01205
47.6 -0.01201
47.65 -0.01197
47.7 -0.01195
47.75 -0.01188
47.8 -0.01186
47.85 -0.01166
47.9 -0.01144
47.95 -0.01107
48 -0.01083
48.05 -0.01035
48.1 -0.00999
48.15 -0.00955
48.2 -0.00949
48.25 -0.00933
48.3 -0.00915
48.35 -0.00917
48.4 -0.00923
48.45 -0.00918
48.5 -0.00905
48.55 -0.0087
48.6 -0.00842
48.65 -0.00824
48.7 -0.00806
48.75 -0.00816
48.8 -0.00816
48.85 -0.00816
48.9 -0.00786
48.95 -0.00758
49 -0.00751
49.05 -0.00763
49.1 -0.00754
49.15 -0.00762
49.2 -0.00758
49.25 -0.00762
49.3 -0.00747
49.35 -0.00709
49.4 -0.00654
49.45 -0.00599
49.5 -0.00547
49.55 -0.0051
49.6 -0.00473
49.65 -0.00479
49.7 -0.00487
49.75 -0.00478
49.8 -0.0047
49.85 -0.00476
49.9 -0.00475
49.95 -0.0047
50 -0.00473
50.05 -0.00481
50.1 -0.00496
50.15 -0.00487
50.2 -0.00459
50.25 -0.00452
50.3 -0.00447
50.35 -0.00433
50.4 -0.00431
50.45 -0.0043
50.5 -0.00411
50.55 -0.00419
50.6 -0.00431
50.65 -0.00416
50.7 -0.00398
50.75 -0.00385
50.8 -0.00367
50.85 -0.00378
50.9 -0.00386
50.95 -0.00407
51 -0.00439
51.05 -0.00456
51.1 -0.00474
51.15 -0.00482
51.2 -0.00499
51.25 -0.00512
51.3 -0.00517
51.35 -0.00527
51.4 -0.0051
51.45 -0.00497
51.5 -0.00494
51.55 -0.00496
51.6 -0.00459
51.65 -0.00435
51.7 -0.00398
51.75 -0.00366
51.8 -0.00345
51.85 -0.00342
51.9 -0.00322
51.95 -0.00295
52 -0.00254
52.05 -0.00247
52.1 -0.00252
52.15 -0.00267
52.2 -0.00267
52.25 -0.00251
52.3 -0.00264
52.35 -0.00255
52.4 -0.00247
52.45 -0.00237
52.5 -0.00241
52.55 -0.00223
52.6 -0.00234
52.65 -0.0022
52.7 -0.00232
52.75 -0.00238
52.8 -0.00266
52.85 -0.00291
52.9 -0.00321
52.95 -0.00333
53 -0.00323
53.05 -0.00323
53.1 -0.00308
53.15 -0.00269
53.2 -0.00217
53.25 -0.00197
53.3 -0.00184
53.35 -0.00158
53.4 -0.00127
53.45 -0.00129
53.5 -0.00138
53.55 -0.00164
53.6 -0.0018
53.65 -0.00178
53.7 -0.00196
53.75 -0.00188
53.8 -0.00159
53.85 -0.00133
53.9 -0.00108
53.95 -0.00107
54 -0.00118
54.05 -0.0015
54.1 -0.00171
54.15 -0.00189
54.2 -0.00206
54.25 -0.00196
54.3 -0.00174
54.35 -0.00172
54.4 -0.00163
54.45 -0.00145
54.5 -0.00129
54.55 -0.00096
54.6 -0.00063
54.65 -0.0006
54.7 -0.00043
54.75 -0.00041
54.8 -0.0007
54.85 -0.00075
54.9 -0.00105
54.95 -0.00111
55 -0.00123
55.05 -0.00135
55.1 -0.00126
55.15 -0.00124
55.2 -0.00143
55.25 -0.00158
55.3 -0.00162
55.35 -0.00169
55.4 -0.00167
55.45 -0.00179
55.5 -0.0018
55.55 -0.0015
55.6 -0.00147
55.65 -0.0013
55.7 -0.00136
55.75 -0.00157
55.8 -0.00154
55.85 -0.00142
55.9 -0.00119
55.95 -0.0011
56 -0.00109
56.05 -0.00115
56.1 -0.00129
56.15 -0.00109
56.2 -0.00072
56.25 -0.00055
56.3 -0.00042
56.35 -0.00015
56.4 0.00005
56.45 0.0003
56.5 0.00026
56.55 0.0003
56.6 0.00043
56.65 0.00044
56.7 0.00057
56.75 0.00074
56.8 0.00064
56.85 0.00069
56.9 0.00057
56.95 0.00057
57 0.00035
57.05 0.00009
57.1 0.00009
57.15 0.00015
57.2 0.00029
57.25 0.00037
57.3 0.00054
57.35 0.00055
57.4 0.00063
57.45 0.00041
57.5 0.00019
57.55 -0.00002
57.6 -0.0003
57.65 -0.00036
57.7 -0.0002
57.75 -0.00009
57.8 -0.00011
57.85 -0.00006
57.9 -0.00007
57.95 -0.00025
58 -0.00056
58.05 -0.00091
58.1 -0.00106
58.15 -0.00115
58.2 -0.00126
58.25 -0.00113
58.3 -0.00119
58.35 -0.00118
58.4 -0.00104
58.45 -0.00096
58.5 -0.00092
58.55 -0.00081
58.6 -0.00057
58.65 -0.00027
58.7 -0.00018
58.75 0.00005
58.8 -0.00005
58.85 -0.00005
58.9 -0.0001
58.95 -0.00024
59 -0.00028
59.05 -0.00034
59.1 -0.00051
59.15 -0.00048
59.2 -0.0005
59.25 -0.0003
59.3 -0.00021
59.35 -0.00013
59.4 -0.00028
59.45 -0.00023
59.5 -0.00019
59.55 -0.00028
59.6 -0.00024
59.65 -0.00045
59.7 -0.00061
59.75 -0.00087
59.8 -0.00098
59.85 -0.00119
59.9 -0.00145
59.95 -0.00139
60 -0.00147
60.05 -0.00156
60.1 -0.00139
60.15 -0.00104
60.2 -0.00088
60.25 -0.0006
60.3 -0.00064
60.35 -0.00086
60.4 -0.00091
60.45 -0.00105
60.5 -0.00105
60.55 -0.001
60.6 -0.00103
60.65 -0.00108
60.7 -0.0009
60.75 -0.00054
60.8 -0.00046
60.85 -0.00033
60.9 -0.00005
60.95 0.00014
61 0.00029
61.05 0.00038
61.1 0.00038
61.15 0.0003
61.2 0.00045
61.25 0.00068
61.3 0.00074
61.35 0.00091
61.4 0.0008
61.45 0.00073
61.5 0.00038
61.55 -0.00002
61.6 -0.00045
61.65 -0.00066
61.7 -0.00099
61.75 -0.00099
61.8 -0.00073
61.85 -0.00069
61.9 -0.00052
61.95 -0.00058
62 -0.0008
62.05 -0.00096
62.1 -0.00091
62.15 -0.00079
62.2 -0.00082
62.25 -0.00096
62.3 -0.00109
62.35 -0.00113
62.4 -0.00129
62.45 -0.00129
62.5 -0.00097
62.55 -0.00092
62.6 -0.00084
62.65 -0.00064
62.7 -0.0007
62.75 -0.00087
62.8 -0.00105
62.85 -0.00089
62.9 -0.00063
62.95 -0.00035
63 -0.00013
63.05 0.00002
63.1 0.00004
63.15 0.00027
63.2 0.00047
63.25 0.00049
63.3 0.00038
63.35 0.00047
63.4 0.00045
63.45 0.00018
63.5 0.00015
63.55 0.00031
63.6 0.0006
63.65 0.00076
63.7 0.00087
63.75 0.00105
63.8 0.00123
63.85 0.00102
63.9 0.00079
63.95 0.00035
64 -0.00009
64.05 -0.0003
64.1 -0.00045
64.15 -0.0006
64.2 -0.00082
64.25 -0.00098
64.3 -0.00097
64.35 -0.00109
64.4 -0.001
64.45 -0.00098
64.5 -0.0009
64.55 -0.00092
64.6 -0.00066
64.65 -0.00033
64.7 0.00011
64.75 0.00027
64.8 0.00014
64.85 0.00004
64.9 0.0001
64.95 0.00013
65 -0.00002
65.05 -0.00033
65.1 -0.00035
65.15 -0.00025
65.2 -0.00023
65.25 -0.00032
65.3 -0.00057
65.35 -0.00076
65.4 -0.00101
65.45 -0.00095
65.5 -0.00066
65.55 -0.00022
65.6 -0.00003
65.65 0.00025
65.7 0.00021
65.75 0.00002
65.8 -0.00028
65.85 -0.00057
65.9 -0.00071
65.95 -0.00077
66 -0.00076
66.05 -0.00076
66.1 -0.00051
66.15 -0.0003
66.2 0.00001
66.25 0.00016
66.3 0.0004
66.35 0.0007
66.4 0.001
66.45 0.00115
66.5 0.00138
66.55 0.00155
66.6 0.00165
66.65 0.00175
66.7 0.00154
66.75 0.0014
66.8 0.00115
66.85 0.00093
66.9 0.00055
66.95 0.00036
67 0.00002
67.05 -0.00002
67.1 0
67.15 -0.00021
67.2 -0.00057
67.25 -0.00084
67.3 -0.00114
67.35 -0.001
67.4 -0.00076
67.45 -0.00051
67.5 -0.00038
67.55 -0.0004
67.6 -0.00014
67.65 0.00003
67.7 -0.00006
67.75 -0.00029
67.8 -0.00028
67.85 -0.0003
67.9 -0.00019
67.95 -0.00029
68 -0.0005
68.05 -0.0004
68.1 -0.00053
68.15 -0.00073
68.2 -0.0006
68.25 -0.00069
68.3 -0.00068
68.35 -0.00082
68.4 -0.00079
68.45 -0.00048
68.5 -0.00026
68.55 -0.00023
68.6 -0.00009
68.65 0.00008
68.7 0.00041
68.75 0.00074
68.8 0.00082
68.85 0.00093
68.9 0.00096
68.95 0.00068
69 0.00053
69.05 0.00039
69.1 0.00045
69.15 0.00032
69.2 0.0002
69.25 0.00008
69.3 0.00004
69.35 0.00003
69.4 0.00006
69.45 0.00018
69.5 0.00003
69.55 0.00002
69.6 0.00012
69.65 0.0001
69.7 0.00017
69.75 0.00014
69.8 0.00016
69.85 -0.00008
69.9 -0.00025
69.95 -0.0005
70 -0.0006
70.05 -0.00082
70.1 -0.00077
70.15 -0.00088
70.2 -0.00086
70.25 -0.00072
70.3 -0.00036
70.35 -0.00007
70.4 -0.00008
70.45 0.00008
70.5 0.00001
70.55 -0.00025
70.6 -0.0005
70.65 -0.00043
70.7 -0.00031
70.75 -0.00013
70.8 -0.00016
70.85 0.00004
70.9 0.00028
70.95 0.00042
71 0.00069
71.05 0.00057
71.1 0.00034
71.15 -0.00001
71.2 -0.00033
71.25 -0.00071
71.3 -0.00086
71.35 -0.00078
71.4 -0.00073
71.45 -0.00062
71.5 -0.00043
71.55 -0.00006
71.6 0.00003
71.65 -0.00011
71.7 0.00005
71.75 0.00038
71.8 0.00068
71.85 0.00061
71.9 0.00074
71.95 0.00071
72 0.00066
72.05 0.0004
72.1 0.00004
72.15 -0.00036
72.2 -0.00045
72.25 -0.0007
72.3 -0.001
72.35 -0.00096
72.4 -0.00068
72.45 -0.00052
72.5 -0.00034
72.55 -0.00013
72.6 -0.00019
72.65 -0.00042
72.7 -0.00067
72.75 -0.00089
72.8 -0.00095
72.85 -0.00075
72.9 -0.00079
72.95 -0.00083
73 -0.00064
73.05 -0.00027
73.1 -0.00007
73.15 0.00007
73.2 0.0003
73.25 0.00022
73.3 0.00003
73.35 0.00007
73.4 -0.00007
73.45 0.0001
73.5 0.00004
73.55 0.00014
73.6 0.0004
73.65 0.00059
73.7 0.00087
73.75 0.00112
73.8 0.00136
73.85 0.00121
73.9 0.00102
73.95 0.00068
74 0.0006
74.05 0.00028
74.1 -0.00018
74.15 -0.00051
74.2 -0.00088
74.25 -0.00082
74.3 -0.00054
74.35 -0.00007
74.4 0.00014
74.45 0.00049
74.5 0.00082
74.55 0.00077
74.6 0.00066
74.65 0.00031
74.7 0.00005
74.75 -0.00018
74.8 -0.0003
74.85 -0.0003
74.9 -0.00009
74.95 0.00011
75 0.00002
75.05 0.00014
75.1 0.00031
75.15 0.00025
75.2 0.00004
75.25 0.00008
75.3 0.00033
75.35 0.00035
75.4 0.00011
75.45 -0.00016
75.5 -0.0005
75.55 -0.00061
75.6 -0.00072
75.65 -0.00076
75.7 -0.00047
75.75 -0.00038
75.8 -0.00022
75.85 -0.0002
75.9 -0.0002
75.95 -0.0002
76 -0.00033
76.05 -0.00029
76.1 -0.00029
76.15 -0.00022
76.2 -0.00031
76.25 -0.0004
76.3 -0.00021
76.35 0.00003
76.4 0.0001
76.45 0.00032
76.5 0.00023
76.55 -0.00003
76.6 0.00002
76.65 0.00007
76.7 0.00003
76.75 0.0002
76.8 0.00006
76.85 -0.00017
76.9 -0.00043
76.95 -0.00071
77 -0.0008
77.05 -0.00077
77.1 -0.00075
77.15 -0.00051
77.2 -0.00051
77.25 -0.00033
77.3 -0.00027
77.35 0.00002
77.4 0.00009
77.45 0.00021
77.5 0.00026
77.55 0.0002
77.6 0.0004
77.65 0.00037
77.7 0.00022
77.75 -0.00007
77.8 -0.00002
77.85 -0.00012
77.9 -0.00036
77.95 -0.00026
78 -0.00005
78.05 0.00025
78.1 0.00035
78.15 0.00053
78.2 0.00075
78.25 0.00068
78.3 0.00052
78.35 0.00045
78.4 0.00032
78.45 0.00011
78.5 0.00007
78.55 -0.00009
78.6 -0.00041
78.65 -0.00052
78.7 -0.00041
78.75 -0.0001
78.8 0.00031
78.85 0.00064
78.9 0.00105
78.95 0.00113
79 0.00103
79.05 0.00077
79.1 0.00049
79.15 0.00009
79.2 -0.00005
79.25 -0.00007
79.3 -0.00002
79.35 -0.00007
79.4 0.00013
79.45 0.00007
79.5 0.00012
79.55 0.00029
79.6 0.00023
79.65 0.00012
79.7 0.00015
79.75 0.00002
79.8 -0.00013
79.85 -0.00007
79.9 -0.00001
79.95 0.00023
80 0.00049
80.05 0.00068
80.1 0.00094
80.15 0.00098
80.2 0.00114
80.25 0.00139
80.3 0.00154
80.35 0.00166
80.4 0.00179
80.45 0.00173
80.5 0.00131
80.55 0.0007
80.6 0.00046
80.65 0
80.7 -0.00042
80.75 -0.00071
80.8 -0.00063
80.85 -0.00054
80.9 -0.00064
80.95 -0.00046
81 -0.00054
81.05 -0.00077
81.1 -0.00073
81.15 -0.0008
81.2 -0.00075
81.25 -0.00059
81.3 -0.00033
81.35 -0.00016
81.4 -0.00024
81.45 -0.00014
81.5 -0.00005
81.55 0.00007
81.6 -0.00003
81.65 -0.0003
81.7 -0.00054
81.75 -0.00075
81.8 -0.00104
81.85 -0.00111
81.9 -0.00088
81.95 -0.00083
82 -0.00053
82.05 -0.00026
82.1 -0.00031
82.15 -0.00014
82.2 -0.00014
82.25 -0.00006
82.3 0.00007
82.35 0.00014
82.4 0.00036
82.45 0.00036
82.5 0.0002
82.55 0.00005
82.6 -0.00019
82.65 -0.00012
82.7 -0.00028
82.75 -0.00026
82.8 0.00002
82.85 0.00003
82.9 -0.00016
82.95 -0.00048
83 -0.0006
83.05 -0.00057
83.1 -0.00037
83.15 -0.00032
83.2 -0.00042
83.25 -0.00046
83.3 -0.0006
83.35 -0.00061
83.4 -0.00032
83.45 -0.00033
83.5 -0.0005
83.55 -0.00033
83.6 -0.00013
83.65 0.00003
83.7 0.00002
83.75 0.00022
83.8 0.00051
83.85 0.00057
83.9 0.00081
83.95 0.00111
84 0.00119
84.05 0.00114
84.1 0.00097
84.15 0.00089
84.2 0.00079
84.25 0.0005
84.3 0.00025
84.35 -0.00006
84.4 -0.00022
84.45 -0.0002
84.5 -0.00036
84.55 -0.0003
84.6 -0.0004
84.65 -0.00057
84.7 -0.00046
84.75 -0.0004
84.8 -0.00049
84.85 -0.00041
84.9 -0.0004
84.95 -0.00012
85 -0.00003
85.05 -0.00021
85.1 -0.00021
85.15 -0.00038
85.2 -0.00043
85.25 -0.00046
85.3 -0.0006
85.35 -0.00062
85.4 -0.00036
85.45 -0.0003
85.5 -0.00047
85.55 -0.00032
85.6 -0.00043
85.65 -0.00048
85.7 -0.00028
85.75 -0.00026
85.8 -0.00042
85.85 -0.00055
85.9 -0.00042
85.95 -0.00015
86 0.00022
86.05 0.00044
86.1 0.00074
86.15 0.00064
86.2 0.0003
86.25 -0.00013
86.3 -0.00017
86.35 -0.00024
86.4 -0.00002
86.45 0.00035
86.5 0.00073
86.55 0.00083
86.6 0.00092
86.65 0.00069
86.7 0.0007
86.75 0.00077
86.8 0.00075
86.85 0.00078
86.9 0.00089
86.95 0.00106
87 0.00125
87.05 0.0013
87.1 0.00118
87.15 0.00096
87.2 0.00072
87.25 0.00034
87.3 0.00006
87.35 -0.00009
87.4 -0.00015
87.45 -0.00008
87.5 -0.00025
87.55 -0.0003
87.6 -0.00033
87.65 -0.00025
87.7 -0.00022
87.75 -0.00025
87.8 -0.00047
87.85 -0.00081
87.9 -0.00115
87.95 -0.00149
88 -0.0015
88.05 -0.0015
88.1 -0.00154
88.15 -0.00128
88.2 -0.00106
88.25 -0.00095
88.3 -0.00083
88.35 -0.00089
88.4 -0.00105
88.45 -0.00107
88.5 -0.00085
88.55 -0.00073
88.6 -0.00044
88.65 0
88.7 0.00053
88.75 0.00091
88.8 0.00086
88.85 0.00067
88.9 0.00068
88.95 0.00084
89 0.0009
89.05 0.00082
89.1 0.00069
89.15 0.00056
89.2 0.0004
89.25 0.00035
89.3 0.00007
89.35 -0.00017
89.4 -0.00029
89.45 -0.00015
89.5 0.00013
89.55 0.00021
89.6 0.00026
89.65 0.00011
89.7 -0.0002
89.75 -0.00034
89.8 -0.00058
89.85 -0.00065
89.9 -0.00069
89.95 -0.00076
90 -0.00063
90.05 -0.00068
90.1 -0.00087
90.15 -0.0008
90.2 -0.00047
90.25 -0.00021
90.3 0.00007
90.35 0.00005
90.4 0.00004
90.45 0.00021
90.5 0.00036
90.55 0.00058
90.6 0.00074
90.65 0.00088
90.7 0.00067
90.75 0.00057
90.8 0.00051
90.85 0.0002
90.9 -0.00017
90.95 -0.00043
91 -0.00051
91.05 -0.00037
91.1 -0.00001
91.15 0.00007
91.2 0.0001
91.25 0.0003
91.3 0.00044
91.35 0.00061
91.4 0.00075
91.45 0.00059
91.5 0.00046
91.55 0.0005
91.6 0.00052
91.65 0.00026
91.7 0.00013
91.75 -0.0001
91.8 -0.0002
91.85 -0.00043
91.9 -0.0007
91.95 -0.00091
92 -0.00097
92.05 -0.00096
92.1 -0.00097
92.15 -0.00081
92.2 -0.00075
92.25 -0.00066
92.3 -0.00049
92.35 -0.0005
92.4 -0.00039
92.45 -0.00048
92.5 -0.00065
92.55 -0.00088
92.6 -0.00106
92.65 -0.00117
92.7 -0.00099
92.75 -0.00069
92.8 -0.00042
92.85 -0.0003
92.9 -0.00023
92.95 -0.00034
93 -0.00039
93.05 -0.00057
93.1 -0.00052
93.15 -0.00027
93.2 -0.00016
93.25 0.00009
93.3 0.00047
93.35 0.00084
93.4 0.00123
93.45 0.00158
93.5 0.00176
93.55 0.0017
93.6 0.00149
93.65 0.00122
93.7 0.00074
93.75 0.0005
93.8 0.00025
93.85 -0.00011
93.9 -0.00029
93.95 -0.0004
94 -0.0004
94.05 -0.00032
94.1 -0.00016
94.15 0.00013
94.2 0.00026
94.25 0.00023
94.3 0.00007
94.35 0.00004
94.4 0.00012
94.45 0.00029
94.5 0.00022
94.55 0.00037
94.6 0.00057
94.65 0.00056
94.7 0.00038
94.75 0.00001
94.8 -0.00044
94.85 -0.00065
94.9 -0.0007
94.95 -0.00048
95 -0.00024
95.05 0.00001
95.1 0.00026
95.15 0.00046
95.2 0.00037
95.25 0.00009
95.3 0.00005
95.35 0.0002
95.4 0.00034
95.45 0.00036
95.5 0.00033
95.55 0.00025
95.6 0.00024
95.65 0.00022
95.7 0.00037
95.75 0.00045
95.8 0.00041
95.85 0.00035
95.9 0.00044
95.95 0.00069
96 0.00057
96.05 0.00051
96.1 0.0004
96.15 0.00014
96.2 0.00002
96.25 0.00005
96.3 -0.00004
96.35 -0.00007
96.4 0.00015
96.45 0.00022
96.5 0.00025
96.55 0.00019
96.6 0.00024
96.65 0.00024
96.7 0.0002
96.75 0.00034
96.8 0.00037
96.85 0.00043
96.9 0.00052
96.95 0.00055
97 0.00059
97.05 0.00033
97.1 -0.00001
97.15 -0.00036
97.2 -0.00072
97.25 -0.00092
97.3 -0.00101
97.35 -0.00099
97.4 -0.00085
97.45 -0.00056
97.5 -0.00047
97.55 -0.00059
97.6 -0.00042
97.65 -0.00033
97.7 -0.00018
97.75 -0.00009
97.8 0.00009
97.85 0.00016
97.9 0.00031
97.95 0.00023
98 0.00039
98.05 0.0003
98.1 0.00024
98.15 0.00012
98.2 -0.00001
98.25 -0.00026
98.3 -0.00042
98.35 -0.00068
98.4 -0.00094
98.45 -0.00112
98.5 -0.00105
98.55 -0.00073
98.6 -0.0004
98.65 0.00001
98.7 0.00012
98.75 0
98.8 0.00009
98.85 -0.0001
98.9 -0.00034
98.95 -0.00024
99 -0.00025
99.05 -0.00022
99.1 -0.00023
99.15 -0.00025
99.2 -0.0002
99.25 -0.00001
99.3 -0.00002
99.35 -0.00013
99.4 -0.00017
99.45 -0.00002
99.5 0.00015
99.55 0.00005
99.6 -0.00017
99.65 -0.00014
99.7 -0.00008
99.75 -0.00014
99.8 0.00005
99.85 0.00015
99.9 0.00038
99.95 0.00046
