0 0
0.05 0.00084
0.1 0.0021
0.15 0.00332
0.2 0.00448
0.25 0.00581
0.3 0.00688
0.35 0.0078
0.4 0.0084
0.45 0.00852
0.5 0.00829
0.55 0.00821
0.6 0.00803
0.65 0.00789
0.7 0.00772
0.75 0.00737
0.8 0.00698
0.85 0.00673
0.9 0.00656
0.95 0.00648
1 0.00647
1.05 0.00658
1.1 0.00664
1.15 0.00654
1.2 0.00647
1.25 0.00643
1.3 0.0064
1.35 0.00635
1.4 0.00646
1.45 0.00638
1.5 0.00625
1.55 0.00614
1.6 0.00604
1.65 0.00611
1.7 0.006
1.75 0.00599
1.8 0.00591
1.85 0.00574
1.9 0.00547
1.95 0.0053
2 0.00516
2.05 0.00507
2.1 0.00503
2.15 0.00508
2.2 0.00523
2.25 0.00517
2.3 0.00507
2.35 0.00497
2.4 0.00486
2.45 0.00482
2.5 0.00473
2.55 0.0046
2.6 0.00453
2.65 0.00436
2.7 0.00411
2.75 0.00389
2.8 0.00383
2.85 0.00381
2.9 0.00363
2.95 0.00343
3 0.0032
3.05 0.00308
3.1 0.0032
3.15 0.00321
3.2 0.00324
3.25 0.00336
3.3 0.00345
3.35 0.00349
3.4 0.00362
3.45 0.00374
3.5 0.00372
3.55 0.00381
3.6 0.00363
3.65 0.00351
3.7 0.00337
3.75 0.00318
3.8 0.00307
3.85 0.00291
3.9 0.00296
3.95 0.00314
4 0.00354
4.05 0.00356
4.1 0.00348
4.15 0.00322
4.2 0.00305
4.25 0.00288
4.3 0.00274
4.35 0.00243
4.4 0.00225
4.45 0.00218
4.5 0.00201
4.55 0.00192
4.6 0.00195
4.65 0.00216
4.7 0.0023
4.75 0.00222
4.8 0.00219
4.85 0.00225
4.9 0.00228
4.95 0.00232
5 0.00233
5.05 0.00239
5.1 0.00213
5.15 0.00204
5.2 0.00186
5.25 0.00173
5.3 0.0017
5.35 0.0016
5.4 0.00148
5.45 0.00129
5.5 0.00106
5.55 9e-04
5.6 0.00085
5.65 0.00093
5.7 0.00101
5.75 0.0012
5.8 0.00128
5.85 0.00129
5.9 0.00143
5.95 0.00159
6 0.00162
6.05 0.00137
6.1 0.00113
6.15 0.00094
6.2 0.00104
6.25 0.00103
6.3 0.00081
6.35 0.00067
6.4 0.00073
6.45 0.00084
6.5 0.00078
6.55 0.00095
6.6 0.00115
6.65 0.00129
6.7 0.0013
6.75 0.00139
6.8 0.0014
6.85 0.00131
6.9 0.00136
6.95 0.00131
7 0.00118
7.05 0.00104
7.1 0.00086
7.15 0.00087
7.2 0.00073
7.25 7e-04
7.3 0.00063
7.35 0.00069
7.4 0.00062
7.45 0.00065
7.5 0.00087
7.55 0.00119
7.6 0.00129
7.65 0.00142
7.7 0.00128
7.75 0.00124
7.8 0.00123
7.85 0.00111
7.9 0.00104
7.95 0.00092
8 0.00085
8.05 0.00088
8.1 0.00096
8.15 0.00089
8.2 0.00069
8.25 0.00063
8.3 0.00064
8.35 5e-04
8.4 0.00036
8.45 3e-04
8.5 0.00028
8.55 3e-04
8.6 0.00043
8.65 0.00053
8.7 0.00056
8.75 0.00065
8.8 0.00062
8.85 0.00063
8.9 7e-04
8.95 0.00073
9 0.00081
9.05 9e-04
9.1 0.00092
9.15 9e-04
9.2 0.00096
9.25 0.00098
9.3 0.00097
9.35 0.00093
9.4 0.00084
9.45 0.00082
9.5 0.00076
9.55 0.00072
9.6 0.00061
9.65 0.00074
9.7 0.00069
9.75 7e-04
9.8 0.00062
9.85 0.00046
9.9 0.00045
9.95 0.00036
10 9e-05
10.05 -3e-05
10.1 4e-05
10.15 1e-04
10.2 3e-04
10.25 0.00043
10.3 0.00054
10.35 0.00057
10.4 0.00044
10.45 0.00032
10.5 0.00013
10.55 4e-05
10.6 8e-05
10.65 6e-05
10.7 0.00023
10.75 0.00042
10.8 5e-04
10.85 5e-04
10.9 0.00054
10.95 0.00054
11 0.00052
11.05 3e-04
11.1 0.00015
11.15 4e-05
11.2 -6e-05
11.25 -0.00017
11.3 -0.00012
11.35 -4e-05
11.4 0.00022
11.45 0.00027
11.5 0.00026
11.55 0.00024
11.6 0.00023
11.65 0.00027
11.7 0.00024
11.75 0.00018
11.8 -5e-05
11.85 0
11.9 5e-05
11.95 1e-04
12 0.00011
12.05 5e-05
12.1 0.00012
12.15 9e-05
12.2 0.00012
12.25 9e-05
12.3 0.00017
12.35 0.00023
12.4 0.00022
12.45 0.00034
12.5 0.00022
12.55 0.00016
12.6 -5e-05
12.65 -0.00018
12.7 -0.00038
12.75 -0.00057
12.8 -0.00056
12.85 -0.00035
12.9 -0.00012
12.95 -4e-05
13 1e-04
13.05 0.00021
13.1 0.00011
13.15 0.00014
13.2 8e-05
13.25 0
13.3 -9e-05
13.35 -1e-04
13.4 -0.00015
13.45 -2e-04
13.5 -0.00011
13.55 -4e-05
13.6 -6e-05
13.65 -3e-05
13.7 -7e-05
13.75 -0.00025
13.8 -0.00024
13.85 -0.00014
13.9 -0.00016
13.95 -0.00014
14 -0.00015
14.05 -0.00027
14.1 -0.00023
14.15 -8e-05
14.2 4e-05
14.25 9e-05
14.3 0.00018
14.35 0.00031
14.4 0.00039
14.45 0.00037
14.5 0.00027
14.55 7e-05
14.6 3e-05
14.65 -5e-05
14.7 -0.00014
14.75 -0.00014
14.8 -6e-05
14.85 9e-05
14.9 0.00011
14.95 0.00017
15 0.00019
15.05 -8e-05
15.1 -0.00026
15.15 -0.00046
15.2 -0.00059
15.25 -0.00054
15.3 -0.00038
15.35 -0.00014
15.4 0.00012
15.45 0.00026
15.5 0.00023
15.55 0.00011
15.6 -3e-05
15.65 -0.00029
15.7 -0.00046
15.75 -0.00055
15.8 -0.00062
15.85 -0.00063
15.9 -0.00069
15.95 -0.00066
16 -0.00058
16.05 -0.00043
16.1 -0.00037
16.15 -0.00017
16.2 3e-05
16.25 0.00022
16.3 0.00046
16.35 4e-04
16.4 0.00033
16.45 0.00028
16.5 0.00016
16.55 0.00031
16.6 0.00039
16.65 4e-04
16.7 0.00027
16.75 0.00011
16.8 -8e-05
16.85 -0.00013
16.9 -0.00015
16.95 -9e-05
17 -1e-04
17.05 -0.00014
17.1 -0.00022
17.15 -0.00032
17.2 -0.00034
17.25 -0.00031
17.3 -0.00025
17.35 -0.00011
17.4 0.00015
17.45 0.00023
17.5 0.00018
17.55 8e-05
17.6 -0.00019
17.65 -0.00045
17.7 -0.00065
17.75 -0.00075
17.8 -7e-04
17.85 -0.00062
17.9 -0.00048
17.95 -0.00023
18 -0.00011
18.05 -2e-05
18.1 0.00025
18.15 0.00035
18.2 0.00033
18.25 0.00024
18.3 0.00022
18.35 0.00012
18.4 5e-05
18.45 0.00016
18.5 9e-05
18.55 6e-05
18.6 5e-05
18.65 0.00017
18.7 0.00019
18.75 0.00027
18.8 0.00027
18.85 0.00013
18.9 -2e-05
18.95 3e-05
19 -0.00019
19.05 -0.00024
19.1 -0.00023
19.15 -1e-05
19.2 0.00018
19.25 0.00032
19.3 0.00044
19.35 0.00048
19.4 0.00032
19.45 0.00031
19.5 0.00047
19.55 0.00051
19.6 0.00048
19.65 0.00041
19.7 0.00032
19.75 0.00028
19.8 0.00023
19.85 0.00022
19.9 6e-05
19.95 6e-05
20 9e-05
20.05 2e-05
20.1 -8e-05
20.15 -4e-05
20.2 1e-04
20.25 2e-04
20.3 0.00027
20.35 0.00024
20.4 0.00011
20.45 -8e-05
20.5 -4e-04
20.55 -0.00052
20.6 -0.00054
20.65 -0.00047
20.7 -0.00045
20.75 -0.00025
20.8 -7e-05
20.85 -0.00016
20.9 -0.00011
20.95 -0.00015
21 -0.00014
21.05 4e-05
21.1 0.00018
21.15 0.00024
21.2 0.00036
21.25 0.00036
21.3 0.00042
21.35 0.00039
21.4 0.00024
21.45 0.00012
21.5 0.00017
21.55 0.00017
21.6 0.00011
21.65 0.00011
21.7 4e-05
21.75 0.00015
21.8 0.00018
21.85 0.00029
21.9 0.00038
21.95 0.00052
22 0.00055
22.05 0.00048
22.1 2e-04
22.15 -0.00024
22.2 -0.00072
22.25 -0.00109
22.3 -0.0011
22.35 -0.00107
22.4 -0.00092
22.45 -0.00065
22.5 -0.00036
22.55 -1e-05
22.6 0.00024
22.65 0.00039
22.7 0.00044
22.75 0.00051
22.8 0.00045
22.85 0.00045
22.9 0.00048
22.95 0.00046
23 0.00023
23.05 -3e-05
23.1 -0.00033
23.15 -0.00053
23.2 -0.00044
23.25 -0.00024
23.3 -0.00023
23.35 -0.00027
23.4 -0.00032
23.45 -0.00024
23.5 -0.00018
23.55 -8e-05
23.6 6e-05
23.65 0.00014
23.7 0.00019
23.75 2e-04
23.8 3e-04
23.85 0.00029
23.9 0.00029
23.95 0.00037
24 0.00026
24.05 0.00023
24.1 2e-04
24.15 0.00019
24.2 0.00029
24.25 0.00029
24.3 0.00025
24.35 0.00019
24.4 0.00015
24.45 3e-04
24.5 0.00024
24.55 0.00011
24.6 1e-05
24.65 -2e-04
24.7 -0.00024
24.75 -0.00012
24.8 -2e-05
24.85 9e-05
24.9 2e-05
24.95 -1e-05
25 -2e-04
25.05 -0.00028
25.1 -9e-05
25.15 0
25.2 2e-05
25.25 -3e-05
25.3 -8e-05
25.35 -0.00018
25.4 -0.00012
25.45 -1e-04
25.5 -8e-05
25.55 -0.00016
25.6 -3e-05
25.65 9e-05
25.7 0.00019
25.75 0.00027
25.8 0.00024
25.85 0.00013
25.9 0.00012
25.95 0.00016
26 0.00014
26.05 8e-05
26.1 3e-05
26.15 6e-05
26.2 0.00012
26.25 3e-05
26.3 7e-05
26.35 4e-05
26.4 -0.00013
26.45 -0.00036
26.5 -0.00074
26.55 -0.00101
26.6 -0.00119
26.65 -0.00116
26.7 -0.00098
26.75 -0.00069
26.8 -0.00055
26.85 -0.00026
26.9 -9e-05
26.95 -0.00018
27 -0.00013
27.05 -7e-05
27.1 -3e-05
27.15 0
27.2 -2e-05
27.25 -8e-05
27.3 -0.00025
27.35 -0.00043
27.4 -0.00052
27.45 -0.00049
27.5 -0.00049
27.55 -0.00046
27.6 -0.00023
27.65 9e-05
27.7 0.00019
27.75 1e-04
27.8 1e-05
27.85 2e-05
27.9 5e-05
27.95 1e-04
28 -4e-05
28.05 -1e-04
28.1 -0.00016
28.15 -0.00042
28.2 -0.00048
28.25 -0.00048
28.3 -0.00059
28.35 -0.00065
28.4 -0.00059
28.45 -0.00048
28.5 -4e-04
28.55 -0.00026
28.6 -0.00015
28.65 -6e-05
28.7 -1e-04
28.75 -0.00032
28.8 -0.00043
28.85 -0.00032
28.9 -8e-05
28.95 5e-05
29 0.00014
29.05 0.00012
29.1 5e-05
29.15 0.00024
29.2 4e-04
29.25 0.00032
29.3 0.00023
29.35 0.00018
29.4 0.00026
29.45 0.00021
29.5 -1e-05
29.55 -2e-04
29.6 -0.00021
29.65 -0.00041
29.7 -8e-04
29.75 -0.00103
29.8 -0.00144
29.85 -0.00195
29.9 -0.00248
29.95 -0.00328
30 -0.004
30.05 -0.00494
30.1 -0.00598
30.15 -0.00729
30.2 -0.00871
30.25 -0.01019
30.3 -0.01204
30.35 -0.01427
30.4 -0.01698
30.45 -0.02024
30.5 -0.02401
30.55 -0.02823
30.6 -0.03293
30.65 -0.03832
30.7 -0.04478
30.75 -0.05191
30.8 -0.05991
30.85 -0.06869
30.9 -0.07837
30.95 -0.08907
31 -0.10098
31.05 -0.11402
31.1 -0.12832
31.15 -0.14335
31.2 -0.15938
31.25 -0.1763
31.3 -0.19426
31.35 -0.21306
31.4 -0.23236
31.45 -0.25201
31.5 -0.2719
31.55 -0.29204
31.6 -0.31195
31.65 -0.33132
31.7 -0.35025
31.75 -0.36859
31.8 -0.38574
31.85 -0.40148
31.9 -0.41545
31.95 -0.42744
32 -0.43709
32.05 -0.44414
32.1 -0.44847
32.15 -0.44995
32.2 -0.44841
32.25 -0.44383
32.3 -0.43618
32.35 -0.42546
32.4 -0.41184
32.45 -0.39537
32.5 -0.37604
32.55 -0.35416
32.6 -0.32987
32.65 -0.30346
32.7 -0.27542
32.75 -0.24571
32.8 -0.21489
32.85 -0.18331
32.9 -0.15129
32.95 -0.11917
33 -0.08699
33.05 -0.05534
33.1 -0.02449
33.15 0.00562
33.2 0.03471
33.25 0.0625
33.3 0.08897
33.35 0.1142
33.4 0.13769
33.45 0.15967
33.5 0.18021
33.55 0.19919
33.6 0.21655
33.65 0.23252
33.7 0.24713
33.75 0.26024
33.8 0.27217
33.85 0.28303
33.9 0.29281
33.95 0.30147
34 0.30936
34.05 0.31656
34.1 0.32302
34.15 0.32878
34.2 0.33397
34.25 0.33853
34.3 0.34257
34.35 0.34597
34.4 0.34887
34.45 0.3513
34.5 0.35306
34.55 0.35427
34.6 0.35478
34.65 0.35468
34.7 0.3542
34.75 0.35327
34.8 0.35184
34.85 0.3497
34.9 0.34712
34.95 0.3439
35 0.3402
35.05 0.33598
35.1 0.33121
35.15 0.32603
35.2 0.32033
35.25 0.31414
35.3 0.30752
35.35 0.30056
35.4 0.29335
35.45 0.28578
35.5 0.27832
35.55 0.27071
35.6 0.26299
35.65 0.2549
35.7 0.24667
35.75 0.23843
35.8 0.23021
35.85 0.22208
35.9 0.21395
35.95 0.206
36 0.19811
36.05 0.1904
36.1 0.18287
36.15 0.17544
36.2 0.16831
36.25 0.1612
36.3 0.154
36.35 0.14686
36.4 0.13971
36.45 0.1328
36.5 0.12591
36.55 0.11935
36.6 0.11317
36.65 0.10689
36.7 0.10073
36.75 0.09473
36.8 0.08883
36.85 0.08307
36.9 0.07747
36.95 0.0719
37 0.06645
37.05 0.06127
37.1 0.05608
37.15 0.05115
37.2 0.04623
37.25 0.0414
37.3 0.03649
37.35 0.03183
37.4 0.02745
37.45 0.02322
37.5 0.01913
37.55 0.01511
37.6 0.01133
37.65 0.0076
37.7 0.00394
37.75 0.00034
37.8 -0.00336
37.85 -0.00664
37.9 -0.00979
37.95 -0.01283
38 -0.01576
38.05 -0.01862
38.1 -0.02128
38.15 -0.02372
38.2 -0.02618
38.25 -0.02874
38.3 -0.03117
38.35 -0.03341
38.4 -0.03564
38.45 -0.03784
38.5 -0.03987
38.55 -0.04171
38.6 -0.04341
38.65 -0.04504
38.7 -0.04652
38.75 -0.04774
38.8 -0.04879
38.85 -0.04972
38.9 -0.05047
38.95 -0.0511
39 -0.05177
39.05 -0.05239
39.1 -0.05305
39.15 -0.05358
39.2 -0.0543
39.25 -0.05475
39.3 -0.05515
39.35 -0.05541
39.4 -0.05566
39.45 -0.05597
39.5 -0.05609
39.55 -0.05633
39.6 -0.05619
39.65 -0.05602
39.7 -0.05581
39.75 -0.05562
39.8 -0.05546
39.85 -0.05536
39.9 -0.05517
39.95 -0.05479
40 -0.05439
40.05 -0.054
40.1 -0.05347
40.15 -0.05292
40.2 -0.05237
40.25 -0.05193
40.3 -0.05134
40.35 -0.05094
40.4 -0.05063
40.45 -0.05016
40.5 -0.04958
40.55 -0.04907
40.6 -0.04847
40.65 -0.04796
40.7 -0.04734
40.75 -0.04663
40.8 -0.04599
40.85 -0.04552
40.9 -0.04505
40.95 -0.04448
41 -0.04391
41.05 -0.04338
41.1 -0.04288
41.15 -0.04225
41.2 -0.04161
41.25 -0.04091
41.3 -0.04031
41.35 -0.03967
41.4 -0.03895
41.45 -0.03819
41.5 -0.03762
41.55 -0.03715
41.6 -0.03671
41.65 -0.03621
41.7 -0.03569
41.75 -0.03518
41.8 -0.03457
41.85 -0.03395
41.9 -0.03336
41.95 -0.03278
42 -0.03229
42.05 -0.03195
42.1 -0.03166
42.15 -0.03143
42.2 -0.03105
42.25 -0.0306
42.3 -0.0303
42.35 -0.03003
42.4 -0.02956
42.45 -0.02895
42.5 -0.02835
42.55 -0.02786
42.6 -0.02715
42.65 -0.02655
42.7 -0.02598
42.75 -0.02554
42.8 -0.02512
42.85 -0.02445
42.9 -0.02394
42.95 -0.02352
43 -0.0234
43.05 -0.02345
43.1 -0.02346
43.15 -0.02331
43.2 -0.02295
43.25 -0.02242
43.3 -0.02184
43.35 -0.02141
43.4 -0.02089
43.45 -0.02042
43.5 -0.02014
43.55 -0.01976
43.6 -0.01942
43.65 -0.01927
43.7 -0.01888
43.75 -0.01872
43.8 -0.01848
43.85 -0.01833
43.9 -0.01812
43.95 -0.01773
44 -0.01729
44.05 -0.0171
44.1 -0.0171
44.15 -0.01691
44.2 -0.01669
44.25 -0.01622
44.3 -0.01584
44.35 -0.01547
44.4 -0.01513
44.45 -0.01481
44.5 -0.01458
44.55 -0.01439
44.6 -0.0141
44.65 -0.01388
44.7 -0.01357
44.75 -0.01332
44.8 -0.01304
44.85 -0.0129
44.9 -0.01285
44.95 -0.01288
45 -0.01283
45.05 -0.01292
45.1 -0.01293
45.15 -0.01278
45.2 -0.01267
45.25 -0.01247
45.3 -0.01214
45.35 -0.01194
45.4 -0.01178
45.45 -0.01167
45.5 -0.01144
45.55 -0.01116
45.6 -0.01082
45.65 -0.01051
45.7 -0.01037
45.75 -0.01024
45.8 -0.01
45.85 -0.00968
45.9 -0.00954
45.95 -0.00951
46 -0.00938
46.05 -0.00923
46.1 -0.00914
46.15 -0.00908
46.2 -0.00891
46.25 -0.00876
46.3 -0.0084
46.35 -0.00792
46.4 -0.00741
46.45 -0.0072
46.5 -0.00721
46.55 -0.00723
46.6 -0.00726
46.65 -0.00723
46.7 -0.00715
46.75 -0.00715
46.8 -0.00697
46.85 -0.00665
46.9 -0.0067
46.95 -0.00666
47 -0.00656
47.05 -0.00665
47.1 -0.00668
47.15 -0.00669
47.2 -0.0066
47.25 -0.00656
47.3 -0.00653
47.35 -0.00676
47.4 -0.00692
47.45 -0.00701
47.5 -0.00699
47.55 -0.00682
47.6 -0.00657
47.65 -0.00644
47.7 -0.00629
47.75 -0.00612
47.8 -0.00583
47.85 -0.0056
47.9 -0.00548
47.95 -0.00522
48 -0.005
48.05 -0.00489
48.1 -0.0048
48.15 -0.00472
48.2 -0.00482
48.25 -0.00475
48.3 -0.0046
48.35 -0.00449
48.4 -0.00433
48.45 -0.00416
48.5 -0.00411
48.55 -0.00392
48.6 -0.00384
48.65 -0.00384
48.7 -0.00371
48.75 -0.00368
48.8 -0.0036
48.85 -0.00359
48.9 -0.00338
48.95 -0.00344
49 -0.00331
49.05 -0.00317
49.1 -0.00328
49.15 -0.00344
49.2 -0.0035
49.25 -0.00366
49.3 -0.00387
49.35 -0.00381
49.4 -0.0037
49.45 -0.00356
49.5 -0.00346
49.55 -0.00338
49.6 -0.00322
49.65 -0.00328
49.7 -0.00337
49.75 -0.00311
49.8 -0.00293
49.85 -0.00265
49.9 -0.00243
49.95 -0.00223
50 -0.00204
50.05 -0.00191
50.1 -0.00178
50.15 -0.00198
50.2 -0.00201
50.25 -0.00226
50.3 -0.00234
50.35 -0.00218
50.4 -0.00193
50.45 -0.00192
50.5 -0.00195
50.55 -0.00193
50.6 -0.00203
50.65 -0.00202
50.7 -0.00231
50.75 -0.00226
50.8 -0.00214
50.85 -0.00208
50.9 -0.002
50.95 -0.00204
51 -0.00214
51.05 -0.00233
51.1 -0.00229
51.15 -0.00213
51.2 -0.0021
51.25 -0.00206
51.3 -0.00197
51.35 -0.00182
51.4 -0.00176
51.45 -0.00165
51.5 -0.00151
51.55 -0.00155
51.6 -0.00157
51.65 -0.00146
51.7 -0.00114
51.75 -0.001
51.8 -0.0011
51.85 -0.00128
51.9 -0.0015
51.95 -0.00155
52 -0.00156
52.05 -0.00147
52.1 -0.0014
52.15 -0.00119
52.2 -0.00097
52.25 -0.00079
52.3 -0.00072
52.35 -0.00091
52.4 -0.00118
52.45 -0.0014
52.5 -0.00153
52.55 -0.00149
52.6 -0.00163
52.65 -0.00177
52.7 -0.00181
52.75 -0.00161
52.8 -0.00138
52.85 -0.00125
52.9 -0.00124
52.95 -0.00116
53 -0.00137
53.05 -0.00134
53.1 -0.00132
53.15 -0.00134
53.2 -0.00143
53.25 -0.00142
53.3 -0.0013
53.35 -0.00112
53.4 -0.00106
53.45 -0.00095
53.5 -0.00104
53.55 -0.00102
53.6 -0.00095
53.65 -0.00085
53.7 -0.00084
53.75 -0.00082
53.8 -0.00073
53.85 -0.00081
53.9 -0.00087
53.95 -0.00095
54 -0.00099
54.05 -0.00118
54.1 -0.00121
54.15 -0.00116
54.2 -0.00094
54.25 -0.00083
54.3 -0.00078
54.35 -0.00083
54.4 -0.00079
54.45 -7e-04
54.5 -0.00058
54.55 -0.00055
54.6 -0.00062
54.65 -0.00069
54.7 -0.00065
54.75 -0.00069
54.8 -7e-04
54.85 -0.00073
54.9 -0.00093
54.95 -0.00097
55 -0.00101
55.05 -0.00095
55.1 -0.00077
55.15 -0.00064
55.2 -0.00053
55.25 -0.00038
55.3 -0.00028
55.35 -0.00023
55.4 -0.00022
55.45 -0.00027
55.5 -0.00035
55.55 -0.00032
55.6 -0.00038
55.65 -0.00043
55.7 -0.00037
55.75 -0.00042
55.8 -0.00057
55.85 -0.00083
55.9 -0.00106
55.95 -0.00113
56 -0.00116
56.05 -0.0012
56.1 -0.00119
56.15 -0.00113
56.2 -8e-04
56.25 -5e-04
56.3 -0.00025
56.35 -6e-05
56.4 0
56.45 2e-05
56.5 4e-05
56.55 -0.00011
56.6 -0.00013
56.65 -0.00021
56.7 -0.00028
56.75 -4e-04
56.8 -0.00047
56.85 -7e-04
56.9 -0.00076
56.95 -0.00067
57 -0.00058
57.05 -0.00052
57.1 -0.00056
57.15 -0.00044
57.2 -8e-05
57.25 0.00014
57.3 0.00023
57.35 3e-05
57.4 -0.00015
57.45 -0.00012
57.5 -0.00015
57.55 -0.00031
57.6 -0.00044
57.65 -0.00055
57.7 -0.00048
57.75 -0.00038
57.8 -0.00016
57.85 0
57.9 0.00014
57.95 4e-05
58 1e-05
58.05 0.00025
58.1 0.00033
58.15 0.00037
58.2 0.00029
58.25 0.00021
58.3 0.00016
58.35 0.00011
58.4 -8e-05
58.45 -3e-04
58.5 -0.00028
58.55 -0.00033
58.6 -0.00046
58.65 -0.00058
58.7 -0.00051
58.75 -0.00039
58.8 -0.00027
58.85 -1e-04
58.9 0
58.95 5e-05
59 0.00023
59.05 0.00027
59.1 0.00023
59.15 -1e-05
59.2 -0.00011
59.25 -0.00014
59.3 -0.00015
59.35 -0.00011
59.4 -0.00017
59.45 -0.00021
59.5 -0.00021
59.55 -0.00026
59.6 -0.00032
59.65 -0.00042
59.7 -0.00053
59.75 -0.00069
59.8 -0.00093
59.85 -0.00102
59.9 -0.00099
59.95 -0.00101
60 -0.00076
60.05 -0.00039
60.1 -0.00015
60.15 -3e-05
60.2 6e-05
60.25 4e-05
60.3 9e-05
60.35 8e-05
60.4 8e-05
60.45 0.00011
60.5 2e-05
60.55 -0.00012
60.6 -4e-05
60.65 0
60.7 6e-05
60.75 0.00022
60.8 3e-04
60.85 0.00019
60.9 0
60.95 -0.00024
61 -0.00048
61.05 -6e-04
61.1 -0.00084
61.15 -0.00086
61.2 -0.00071
61.25 -0.00072
61.3 -0.00072
61.35 -0.00082
61.4 -0.00081
61.45 -0.00065
61.5 -0.00059
61.55 -5e-04
61.6 -3e-04
61.65 -0.00023
61.7 -0.00019
61.75 -0.00019
61.8 -0.00033
61.85 -0.00027
61.9 -1e-04
61.95 -0.00011
62 3e-05
62.05 1e-04
62.1 -6e-05
62.15 -1e-05
62.2 -5e-05
62.25 0.00012
62.3 4e-04
62.35 0.00048
62.4 0.00047
62.45 0.00044
62.5 0.00028
62.55 8e-05
62.6 9e-05
62.65 -9e-05
62.7 -0.00014
62.75 -0.00014
62.8 -1e-04
62.85 -8e-05
62.9 -6e-05
62.95 2e-05
63 0.00028
63.05 0.00055
63.1 0.00064
63.15 0.00068
63.2 0.00065
63.25 0.00067
63.3 5e-04
63.35 0.00031
63.4 1e-05
63.45 -1e-04
63.5 -0.00045
63.55 -0.00053
63.6 -5e-04
63.65 -0.00038
63.7 -0.00037
63.75 -0.00019
63.8 -0.00019
63.85 -0.00021
63.9 -0.00017
63.95 -1e-04
64 -2e-05
64.05 2e-05
64.1 -9e-05
64.15 -7e-05
64.2 -0.00015
64.25 -0.00044
64.3 -0.00052
64.35 -6e-04
64.4 -7e-04
64.45 -0.00074
64.5 -0.00064
64.55 -0.00035
64.6 -0.00026
64.65 -0.00019
64.7 -7e-05
64.75 0.00011
64.8 0.00033
64.85 0.00043
64.9 0.00043
64.95 0.00022
65 2e-04
65.05 -4e-05
65.1 -0.00031
65.15 -0.00051
65.2 -0.00074
65.25 -0.00082
65.3 -0.00075
65.35 -0.00045
65.4 -0.00031
65.45 -0.00018
65.5 -2e-04
65.55 -0.00013
65.6 -0.00023
65.65 -0.00031
65.7 -0.00038
65.75 -0.00035
65.8 -0.00023
65.85 -0.00028
65.9 -0.00043
65.95 -0.00057
66 -0.00063
66.05 -6e-04
66.1 -0.00052
66.15 -0.00036
66.2 -0.00034
66.25 -0.00026
66.3 -0.00018
66.35 -7e-05
66.4 4e-05
66.45 0.00024
66.5 0.00041
66.55 4e-04
66.6 0.00048
66.65 4e-04
66.7 0.00034
66.75 0.00035
66.8 0.00055
66.85 0.00066
66.9 0.00064
66.95 0.00045
67 0.00024
67.05 3e-05
67.1 -0.00015
67.15 -0.00028
67.2 -0.00044
67.25 -0.00044
67.3 -0.00049
67.35 -0.00041
67.4 -2e-04
67.45 0.00012
67.5 0.00021
67.55 0.00013
67.6 -0.00015
67.65 -0.00032
67.7 -0.00028
67.75 -0.00015
67.8 0.00016
67.85 0.00037
67.9 0.00052
67.95 0.00051
68 0.00045
68.05 0.00024
68.1 3e-05
68.15 -0.00017
68.2 -0.00035
68.25 -0.00027
68.3 -0.00011
68.35 -2e-05
68.4 0
68.45 -0.00014
68.5 -0.00015
68.55 -0.00044
68.6 -0.00057
68.65 -0.00053
68.7 -0.00057
68.75 -0.00044
68.8 -0.00037
68.85 -0.00018
68.9 -1e-04
68.95 -0.00011
69 -0.00025
69.05 -0.00028
69.1 -4e-05
69.15 0
69.2 1e-05
69.25 -7e-05
69.3 -0.00011
69.35 -9e-05
69.4 -3e-05
69.45 -7e-05
69.5 -4e-05
69.55 0
69.6 1e-05
69.65 -8e-05
69.7 -0.00017
69.75 -1e-04
69.8 -0.00018
69.85 -2e-04
69.9 -0.00027
69.95 -3e-05
70 9e-05
70.05 0.00028
70.1 0.00043
70.15 0.00049
70.2 0.00045
70.25 0.00042
70.3 0.00037
70.35 0.00031
70.4 0.00038
70.45 0.00043
70.5 0.00055
70.55 5e-04
70.6 0.00027
70.65 6e-05
70.7 -0.00014
70.75 -0.00024
70.8 -0.00033
70.85 -0.00038
70.9 -0.00035
70.95 -0.00031
71 -0.00037
71.05 -0.00023
71.1 -0.00014
71.15 -7e-05
71.2 -0.00013
71.25 -0.00023
71.3 -0.00024
71.35 -2e-05
71.4 1e-04
71.45 0.00019
71.5 0.00025
71.55 0.00031
71.6 0.00037
71.65 0.00033
71.7 0.00038
71.75 0.00048
71.8 0.00041
71.85 0.00025
71.9 0.00018
71.95 0.00014
72 8e-05
72.05 -1e-05
72.1 -6e-05
72.15 -0.00015
72.2 -0.00029
72.25 -0.00045
72.3 -0.00039
72.35 -0.00037
72.4 -0.00042
72.45 -0.00026
72.5 -1e-04
72.55 -1e-05
72.6 -9e-05
72.65 -9e-05
72.7 -8e-05
72.75 0
72.8 -2e-05
72.85 0.00013
72.9 0.00035
72.95 0.00044
73 0.00031
73.05 0.00026
73.1 0.00031
73.15 0.00032
73.2 0.00024
73.25 0.00019
73.3 -5e-05
73.35 -0.00026
73.4 -0.00029
73.45 -0.00022
73.5 -0.00022
73.55 -1e-04
73.6 0
73.65 6e-05
73.7 7e-05
73.75 7e-05
73.8 -5e-05
73.85 -9e-05
73.9 -0.00025
73.95 -5e-04
74 -0.00064
74.05 -7e-04
74.1 -0.00068
74.15 -0.00055
74.2 -0.00045
74.25 -0.00043
74.3 -0.00032
74.35 -0.00015
74.4 0.00013
74.45 0.00019
74.5 0.00024
74.55 2e-04
74.6 1e-05
74.65 -0.00013
74.7 -3e-05
74.75 -4e-05
74.8 -9e-05
74.85 -0.00011
74.9 -6e-05
74.95 6e-05
75 0.00031
75.05 0.00042
75.1 0.00047
75.15 0.00057
75.2 0.00059
75.25 0.00046
75.3 0.00045
75.35 0.00049
75.4 0.00051
75.45 0.00037
75.5 0.00025
75.55 2e-04
75.6 2e-05
75.65 -0.00035
75.7 -0.00058
75.75 -0.00062
75.8 -0.00058
75.85 -0.00053
75.9 -0.00039
75.95 -0.00026
76 -0.00011
76.05 -0.00012
76.1 3e-05
76.15 0.00013
76.2 0.00018
76.25 1e-04
76.3 -8e-05
76.35 0
76.4 4e-05
76.45 0.00022
76.5 0.00028
76.55 0.00028
76.6 0.00023
76.65 0.00037
76.7 3e-04
76.75 4e-04
76.8 0.00035
76.85 0.00034
76.9 0.00033
76.95 0.00031
77 3e-04
77.05 0.00023
77.1 0.00013
77.15 -1e-04
77.2 -0.00016
77.25 -0.00015
77.3 -0.00013
77.35 -7e-05
77.4 -7e-05
77.45 -8e-05
77.5 0
77.55 8e-05
77.6 0
77.65 -0.00018
77.7 -0.00042
77.75 -8e-04
77.8 -0.00081
77.85 -0.00071
77.9 -0.00078
77.95 -0.00068
78 -6e-04
78.05 -0.00047
78.1 -0.00036
78.15 -0.00016
78.2 -5e-05
78.25 -1e-05
78.3 -5e-05
78.35 -0.00018
78.4 -0.00043
78.45 -0.00062
78.5 -0.00058
78.55 -6e-04
78.6 -0.00049
78.65 -0.00044
78.7 -0.00026
78.75 -8e-05
78.8 5e-05
78.85 -7e-05
78.9 -8e-05
78.95 -0.00012
79 3e-05
79.05 0.00018
79.1 0.00024
79.15 0.00025
79.2 0.00012
79.25 -9e-05
79.3 -0.00015
79.35 -0.00014
79.4 -1e-05
79.45 0.00014
79.5 0.00026
79.55 0.00039
79.6 0.00046
79.65 0.00052
79.7 0.00048
79.75 0.00039
79.8 0.00024
79.85 1e-05
79.9 -0.00025
79.95 -0.00045
80 -0.00067
80.05 -0.00062
80.1 -6e-04
80.15 -0.00055
80.2 -0.00037
80.25 -0.00038
80.3 -0.00041
80.35 -0.00041
80.4 -0.00058
80.45 -0.00066
80.5 -0.00065
80.55 -0.00052
80.6 -0.00029
80.65 -0.00032
80.7 -0.00043
80.75 -0.00049
80.8 -0.00053
80.85 -0.00069
80.9 -0.00068
80.95 -0.00077
81 -0.00077
81.05 -0.00059
81.1 -0.00029
81.15 -4e-05
81.2 0.00021
81.25 0.00032
81.3 0.00037
81.35 0.00037
81.4 0.00027
81.45 0.00021
81.5 3e-05
81.55 -2e-05
81.6 -2e-05
81.65 -1e-04
81.7 -0.00012
81.75 -0.00031
81.8 -0.00039
81.85 -0.00046
81.9 -0.00037
81.95 -0.00011
82 -5e-05
82.05 -3e-05
82.1 -0.00013
82.15 -3e-04
82.2 -0.00051
82.25 -0.00058
82.3 -7e-04
82.35 -0.00074
82.4 -0.00079
82.45 -0.00092
82.5 -0.00085
82.55 -0.00086
82.6 -0.00089
82.65 -0.00069
82.7 -0.00045
82.75 -0.00027
82.8 7e-05
82.85 0.00024
82.9 0.00031
82.95 0.00017
83 6e-05
83.05 4e-05
83.1 2e-04
83.15 0.00041
83.2 0.00031
83.25 0.00037
83.3 0.00023
83.35 7e-05
83.4 -0.00017
83.45 -0.00024
83.5 -0.00029
83.55 -4e-04
83.6 -0.00063
83.65 -0.00083
83.7 -0.00099
83.75 -0.00108
83.8 -0.00111
83.85 -0.00104
83.9 -0.001
83.95 -0.00083
84 -0.00069
84.05 -0.00055
84.1 -0.00031
84.15 -7e-05
84.2 5e-05
84.25 2e-04
84.3 0.00019
84.35 0.00017
84.4 0.00019
84.45 0.00021
84.5 0.00022
84.55 6e-05
84.6 -5e-05
84.65 7e-05
84.7 4e-05
84.75 -6e-05
84.8 -0.00021
84.85 -0.00014
84.9 -6e-05
84.95 0.00022
85 0.00033
85.05 0.00039
85.1 3e-04
85.15 1e-04
85.2 -5e-05
85.25 -0.00011
85.3 2e-05
85.35 0.00022
85.4 0.00041
85.45 0.00045
85.5 0.00058
85.55 0.00058
85.6 0.00049
85.65 0.00039
85.7 0.00035
85.75 0.00023
85.8 0.00019
85.85 0.00025
85.9 3e-04
85.95 0.00033
86 0.00044
86.05 0.00048
86.1 0.00062
86.15 0.00068
86.2 0.00064
86.25 0.00061
86.3 0.00057
86.35 0.00041
86.4 0.00047
86.45 0.00056
86.5 0.00077
86.55 8e-04
86.6 7e-04
86.65 0.00046
86.7 0.00026
86.75 -4e-05
86.8 -3e-04
86.85 -0.00039
86.9 -0.00041
86.95 -0.00043
87 -0.00028
87.05 -0.00027
87.1 -0.00015
87.15 -0.00012
87.2 -0.00016
87.25 -2e-05
87.3 7e-05
87.35 -4e-05
87.4 6e-05
87.45 5e-05
87.5 -2e-05
87.55 -0.00032
87.6 -0.00041
87.65 -0.00056
87.7 -0.00063
87.75 -0.00067
87.8 -0.00059
87.85 -0.00047
87.9 -0.00041
87.95 -0.00039
88 -0.00041
88.05 -0.00052
88.1 -0.00054
88.15 -0.00047
88.2 -0.00054
88.25 -0.00059
88.3 -6e-04
88.35 -0.00066
88.4 -0.00054
88.45 -0.00055
88.5 -0.00076
88.55 -0.00076
88.6 -0.00069
88.65 -5e-04
88.7 -0.00035
88.75 -0.00044
88.8 -0.00041
88.85 -0.00046
88.9 -0.00049
88.95 -0.00057
89 -0.00064
89.05 -0.00068
89.1 -7e-04
89.15 -0.00066
89.2 -0.00045
89.25 -0.00024
89.3 -1e-05
89.35 0.00026
89.4 0.00036
89.45 0.00026
89.5 0.00032
89.55 0.00049
89.6 0.00039
89.65 0.00026
89.7 0.00022
89.75 0.00018
89.8 0.00028
89.85 0.00012
89.9 -2e-05
89.95 -2e-04
90 -0.00035
90.05 -5e-04
90.1 -0.00049
90.15 -0.00056
90.2 -0.00042
90.25 -0.00042
90.3 -0.00027
90.35 -0.00015
90.4 3e-05
90.45 2e-04
90.5 0.00023
90.55 0.00019
90.6 8e-05
90.65 -5e-05
90.7 -0.00016
90.75 -0.00024
90.8 -0.00024
90.85 8e-05
90.9 0.00038
90.95 0.00051
91 6e-04
91.05 0.00059
91.1 0.00051
91.15 0.00055
91.2 0.00044
91.25 0.00031
91.3 0.00033
91.35 0.00032
91.4 0.00046
91.45 0.00068
91.5 0.00071
91.55 0.00065
91.6 0.00067
91.65 0.00046
91.7 0.00033
91.75 2e-04
91.8 0.00019
91.85 9e-05
91.9 3e-05
91.95 -0.00017
92 -0.00035
92.05 -0.00059
92.1 -0.00077
92.15 -7e-04
92.2 -0.00063
92.25 -0.00055
92.3 -0.00049
92.35 -0.00036
92.4 -7e-05
92.45 -2e-05
92.5 -6e-05
92.55 -4e-05
92.6 -5e-05
92.65 -0.00019
92.7 -0.00033
92.75 -0.00037
92.8 -0.00032
92.85 -0.00023
92.9 -0.00011
92.95 -6e-05
93 -3e-05
93.05 -1e-05
93.1 4e-05
93.15 0
93.2 0.00022
93.25 0.00045
93.3 0.00038
93.35 0.00045
93.4 0.00027
93.45 6e-05
93.5 -5e-05
93.55 -5e-05
93.6 0.00012
93.65 0.00022
93.7 0.00032
93.75 0.00038
93.8 0.00038
93.85 0.00039
93.9 0.00041
93.95 0.00027
94 0.00015
94.05 0.00012
94.1 0.00021
94.15 0.00023
94.2 0.00023
94.25 0.00017
94.3 -4e-05
94.35 -0.00024
94.4 -0.00044
94.45 -0.00061
94.5 -0.00058
94.55 -0.00056
94.6 -0.00059
94.65 -0.00071
94.7 -0.00058
94.75 -0.00051
94.8 -0.00044
94.85 -0.00056
94.9 -0.00055
94.95 -0.00067
95 -0.00054
95.05 -0.00058
95.1 -0.00032
95.15 -7e-05
95.2 1e-04
95.25 0.00016
95.3 0.00021
95.35 4e-04
95.4 0.00063
95.45 0.00066
95.5 0.00071
95.55 0.00065
95.6 0.00065
95.65 0.00066
95.7 0.00061
95.75 7e-04
95.8 0.00058
95.85 0.00041
95.9 0.00042
95.95 0.00039
96 0.00044
96.05 0.00047
96.1 4e-04
96.15 0.00023
96.2 0.00015
96.25 0.00013
96.3 3e-05
96.35 -1e-05
96.4 -0.00012
96.45 -0.00021
96.5 -0.00022
96.55 -0.00013
96.6 0
96.65 0.00015
96.7 0.00022
96.75 0.00031
96.8 0.00056
96.85 0.00067
96.9 0.00072
96.95 0.00078
97 0.00088
97.05 0.00099
97.1 0.00095
97.15 0.00066
97.2 0.00049
97.25 0.00028
97.3 9e-05
97.35 -1e-05
97.4 -0.00018
97.45 -0.00031
97.5 -0.00056
97.55 -0.00067
97.6 -0.00072
97.65 -0.00073
97.7 -0.00073
97.75 -6e-04
97.8 -0.00045
97.85 -3e-04
97.9 -2e-04
97.95 -0.00014
98 0.00011
98.05 0.00025
98.1 0.00028
98.15 0.00032
98.2 0.00029
98.25 0.00018
98.3 0.00013
98.35 4e-05
98.4 -0.00014
98.45 -0.00054
98.5 -0.00072
98.55 -0.00083
98.6 -0.00083
98.65 -0.00093
98.7 -0.00095
98.75 -0.00087
98.8 -0.00083
98.85 -0.00079
98.9 -8e-04
98.95 -8e-04
99 -0.00073
99.05 -0.00073
99.1 -8e-04
99.15 -0.00095
99.2 -0.00081
99.25 -5e-04
99.3 -0.00019
99.35 0
99.4 0.00017
99.45 0.00018
99.5 0.00025
99.55 0.00026
99.6 0.00015
99.65 0.00026
99.7 0.00034
99.75 0.00037
99.8 0.00031
99.85 0.00033
99.9 0.00024
99.95 6e-05
