0 0
0.05 0.00048
0.1 0.00118
0.15 0.00193
0.2 0.00258
0.25 0.00315
0.3 0.00355
0.35 0.00383
0.4 0.00404
0.45 0.00412
0.5 0.00418
0.55 0.00411
0.6 0.00404
0.65 0.00399
0.7 0.00397
0.75 0.0039
0.8 0.0038
0.85 0.00367
0.9 0.00356
0.95 0.0035
1 0.0035
1.05 0.00354
1.1 0.00358
1.15 0.00351
1.2 0.00348
1.25 0.00339
1.3 0.00319
1.35 0.00311
1.4 0.00309
1.45 0.00302
1.5 0.00298
1.55 0.00295
1.6 0.00286
1.65 0.0027
1.7 0.00259
1.75 0.00253
1.8 0.00251
1.85 0.00241
1.9 0.0023
1.95 0.00222
2 0.0022
2.05 0.00224
2.1 0.00226
2.15 0.00237
2.2 0.00239
2.25 0.0023
2.3 0.00223
2.35 0.00223
2.4 0.00227
2.45 0.00227
2.5 0.00225
2.55 0.00222
2.6 0.00218
2.65 0.00213
2.7 0.00208
2.75 0.00211
2.8 0.00214
2.85 0.00217
2.9 0.00218
2.95 0.00213
3 0.00207
3.05 0.002
3.1 0.00202
3.15 0.00199
3.2 0.00192
3.25 0.00186
3.3 0.00179
3.35 0.00171
3.4 0.00167
3.45 0.00169
3.5 0.00168
3.55 0.00176
3.6 0.00171
3.65 0.00164
3.7 0.00157
3.75 0.00152
3.8 0.00146
3.85 0.00138
3.9 0.00125
3.95 0.00126
4 0.00123
4.05 0.00126
4.1 0.0013
4.15 0.00136
4.2 0.00135
4.25 0.00126
4.3 0.00121
4.35 0.00124
4.4 0.00126
4.45 0.00116
4.5 0.00107
4.55 0.00094
4.6 0.00078
4.65 0.00064
4.7 5e-04
4.75 0.00045
4.8 0.00042
4.85 0.00037
4.9 0.00035
4.95 0.00035
5 0.00044
5.05 0.00062
5.1 0.00074
5.15 0.00086
5.2 0.00088
5.25 0.00093
5.3 0.00098
5.35 0.00104
5.4 0.00107
5.45 0.00098
5.5 0.00085
5.55 0.00079
5.6 7e-04
5.65 0.00064
5.7 0.00059
5.75 0.00055
5.8 0.00052
5.85 0.00052
5.9 0.00055
5.95 0.00058
6 0.00045
6.05 0.00032
6.1 0.00027
6.15 0.00015
6.2 0.00013
6.25 0.00017
6.3 3e-04
6.35 0.00047
6.4 0.00066
6.45 0.00076
6.5 0.00086
6.55 9e-04
6.6 0.00099
6.65 0.001
6.7 0.00103
6.75 0.00106
6.8 0.00087
6.85 0.00074
6.9 0.00065
6.95 0.00065
7 0.00062
7.05 0.00063
7.1 0.00068
7.15 0.00069
7.2 0.00064
7.25 0.00053
7.3 0.00039
7.35 0.00039
7.4 0.00039
7.45 0.00048
7.5 0.00061
7.55 7e-04
7.6 0.00071
7.65 0.00073
7.7 0.00074
7.75 0.00071
7.8 0.00074
7.85 0.00064
7.9 0.00054
7.95 0.00047
8 0.00038
8.05 0.00031
8.1 3e-04
8.15 0.00032
8.2 0.00027
8.25 0.00032
8.3 0.00045
8.35 0.00055
8.4 5e-04
8.45 4e-04
8.5 0.00032
8.55 0.00023
8.6 0.00011
8.65 2e-05
8.7 -1e-04
8.75 -0.00013
8.8 -0.00021
8.85 -0.00025
8.9 -0.00026
8.95 -0.00021
9 -0.00023
9.05 -0.00024
9.1 -0.00029
9.15 -0.00028
9.2 -0.00033
9.25 -0.00028
9.3 -0.00024
9.35 -0.00019
9.4 -1e-04
9.45 0
9.5 0.00011
9.55 0.00023
9.6 0.00033
9.65 0.00044
9.7 0.00052
9.75 0.00043
9.8 4e-04
9.85 0.00032
9.9 0.00019
9.95 9e-05
10 5e-05
10.05 7e-05
10.1 9e-05
10.15 6e-05
10.2 5e-05
10.25 1e-05
10.3 -3e-05
10.35 -7e-05
10.4 -9e-05
10.45 -9e-05
10.5 -0.00012
10.55 -0.00016
10.6 -0.00016
10.65 -0.00015
10.7 -0.00015
10.75 -6e-05
10.8 9e-05
10.85 0.00023
10.9 0.00036
10.95 0.00037
11 0.00031
11.05 0.00018
11.1 9e-05
11.15 0
11.2 -0.00011
11.25 -0.00015
11.3 -0.00027
11.35 -0.00015
11.4 9e-05
11.45 2e-04
11.5 0.00027
11.55 0.00034
11.6 0.00044
11.65 0.00049
11.7 5e-04
11.75 0.00046
11.8 0.00046
11.85 0.00037
11.9 0.00033
11.95 0.00025
12 0.00023
12.05 0.00023
12.1 0.00025
12.15 0.00027
12.2 0.00024
12.25 0.00024
12.3 2e-04
12.35 0.00019
12.4 3e-04
12.45 0.00041
12.5 0.00038
12.55 0.00035
12.6 0.00027
12.65 0.00015
12.7 4e-05
12.75 -1e-04
12.8 -0.00011
12.85 -0.00016
12.9 -0.00021
12.95 -0.00017
13 -3e-05
13.05 5e-05
13.1 0.00022
13.15 0.00025
13.2 0.00028
13.25 0.00028
13.3 0.00028
13.35 0.00028
13.4 0.00026
13.45 0.00022
13.5 0.00024
13.55 0.00025
13.6 0.00021
13.65 0.00021
13.7 0.00013
13.75 5e-05
13.8 -5e-05
13.85 -0.00026
13.9 -0.00037
13.95 -0.00044
14 -0.00042
14.05 -0.00043
14.1 -4e-04
14.15 -0.00033
14.2 -0.00024
14.25 -6e-05
14.3 7e-05
14.35 4e-05
14.4 3e-05
14.45 3e-05
14.5 2e-05
14.55 0.00017
14.6 0.00031
14.65 0.00041
14.7 0.00039
14.75 0.00037
14.8 0.00032
14.85 0.00024
14.9 0.00018
14.95 0.00011
15 6e-05
15.05 4e-05
15.1 2e-05
15.15 -6e-05
15.2 -9e-05
15.25 -8e-05
15.3 -0.00011
15.35 -0.00011
15.4 -0.00011
15.45 -9e-05
15.5 5e-05
15.55 0.00021
15.6 0.00026
15.65 0.00024
15.7 0.00023
15.75 0.00019
15.8 8e-05
15.85 4e-05
15.9 -6e-05
15.95 -0.00014
16 -0.00022
16.05 -0.00025
16.1 -0.00036
16.15 -0.00048
16.2 -0.00042
16.25 -0.00032
16.3 -0.00018
16.35 5e-05
16.4 0.00023
16.45 0.00026
16.5 0.00022
16.55 0.00018
16.6 0.00018
16.65 0.00014
16.7 0.00012
16.75 0.00012
16.8 0.00024
16.85 0.00039
16.9 0.00048
16.95 0.00049
17 0.00045
17.05 0.00031
17.1 0.00016
17.15 7e-05
17.2 7e-05
17.25 9e-05
17.3 0.00015
17.35 2e-04
17.4 0.00019
17.45 0.00019
17.5 0.00016
17.55 1e-04
17.6 7e-05
17.65 0
17.7 1e-05
17.75 2e-05
17.8 7e-05
17.85 0.00014
17.9 1e-04
17.95 9e-05
18 9e-05
18.05 7e-05
18.1 -4e-05
18.15 -0.00012
18.2 -0.00013
18.25 -6e-05
18.3 0
18.35 0.00011
18.4 8e-05
18.45 6e-05
18.5 -2e-05
18.55 8e-05
18.6 0.00016
18.65 0.00017
18.7 0.00011
18.75 8e-05
18.8 3e-05
18.85 -4e-05
18.9 -8e-05
18.95 -1e-04
19 -0.00017
19.05 -0.00028
19.1 -0.00037
19.15 -0.00046
19.2 -0.00055
19.25 -0.00062
19.3 -0.00061
19.35 -0.00055
19.4 -0.00056
19.45 -0.00056
19.5 -0.00058
19.55 -0.00061
19.6 -0.00059
19.65 -0.00051
19.7 -0.00034
19.75 -0.00022
19.8 -7e-05
19.85 0
19.9 -1e-05
19.95 1e-05
20 -8e-05
20.05 -0.00016
20.1 -2e-04
20.15 -0.00019
20.2 -0.00014
20.25 -0.00013
20.3 -9e-05
20.35 -0.00016
20.4 -0.00019
20.45 -0.00024
20.5 -0.00034
20.55 -0.00029
20.6 -0.00026
20.65 -0.00022
20.7 -0.00025
20.75 -0.00026
20.8 -0.00023
20.85 -0.00023
20.9 -0.00013
20.95 -0.00011
21 -0.00015
21.05 -0.00018
21.1 -0.00018
21.15 -0.00022
21.2 -0.00021
21.25 -0.00023
21.3 -0.00011
21.35 0
21.4 8e-05
21.45 0.00012
21.5 7e-05
21.55 0.00012
21.6 8e-05
21.65 8e-05
21.7 0.00014
21.75 0.00024
21.8 0.00023
21.85 2e-04
21.9 0.00024
21.95 0.00019
22 0.00018
22.05 0.00017
22.1 0.00012
22.15 7e-05
22.2 0.00011
22.25 0.00018
22.3 0.00021
22.35 2e-04
22.4 0.00011
22.45 0.00011
22.5 0.00011
22.55 2e-05
22.6 -8e-05
22.65 -0.00016
22.7 -0.00023
22.75 -0.00022
22.8 -9e-05
22.85 0
22.9 1e-04
22.95 0.00019
23 0.00023
23.05 0.00023
23.1 0.00025
23.15 0.00026
23.2 0.00022
23.25 0.00031
23.3 0.00045
23.35 4e-04
23.4 0.00038
23.45 0.00038
23.5 0.00034
23.55 0.00036
23.6 0.00039
23.65 0.00044
23.7 0.00037
23.75 0.00025
23.8 9e-05
23.85 -2e-05
23.9 -8e-05
23.95 -8e-05
24 -1e-05
24.05 0
24.1 -2e-05
24.15 0
24.2 2e-05
24.25 0
24.3 -4e-05
24.35 -4e-05
24.4 -5e-05
24.45 -1e-04
24.5 -0.00015
24.55 -0.00021
24.6 -0.00028
24.65 -0.00035
24.7 -0.00038
24.75 -0.00045
24.8 -0.00048
24.85 -5e-04
24.9 -0.00045
24.95 -0.00039
25 -0.00027
25.05 -9e-05
25.1 0.00011
25.15 0.00018
25.2 0.00021
25.25 0.00019
25.3 5e-05
25.35 -1e-04
25.4 -0.00015
25.45 -0.00025
25.5 -0.00033
25.55 -0.00036
25.6 -0.00032
25.65 -0.00028
25.7 -0.00025
25.75 -0.00019
25.8 -0.00017
25.85 -0.00017
25.9 -0.00023
25.95 -2e-04
26 -0.00017
26.05 -5e-05
26.1 6e-05
26.15 2e-04
26.2 3e-04
26.25 0.00041
26.3 0.00038
26.35 0.00031
26.4 0.00013
26.45 0
26.5 -9e-05
26.55 -0.00019
26.6 -0.00032
26.65 -0.00047
26.7 -0.00059
26.75 -0.00063
26.8 -0.00051
26.85 -0.00036
26.9 -0.00023
26.95 -9e-05
27 -2e-05
27.05 6e-05
27.1 0.00018
27.15 0.00027
27.2 0.00031
27.25 2e-04
27.3 0.00013
27.35 0.00011
27.4 7e-05
27.45 0.00011
27.5 0.00018
27.55 0.00013
27.6 0.00011
27.65 9e-05
27.7 -3e-05
27.75 -8e-05
27.8 -1e-04
27.85 -0.00011
27.9 -7e-05
27.95 -4e-05
28 -6e-05
28.05 -6e-05
28.1 3e-05
28.15 0.00012
28.2 0.00017
28.25 0.00024
28.3 0.00032
28.35 0.00033
28.4 0.00026
28.45 0.00027
28.5 0.00013
28.55 7e-05
28.6 -8e-05
28.65 -0.00014
28.7 -0.00016
28.75 -0.00025
28.8 -0.00023
28.85 -0.00029
28.9 -4e-04
28.95 -5e-04
29 -0.00063
29.05 -0.00059
29.1 -0.00056
29.15 -0.00045
29.2 -0.00039
29.25 -0.00038
29.3 -0.00027
29.35 -0.00012
29.4 -4e-05
29.45 -8e-05
29.5 -0.00017
29.55 -2e-04
29.6 -5e-05
29.65 0.00013
29.7 2e-04
29.75 0.00029
29.8 3e-04
29.85 0.00031
29.9 2e-04
29.95 0.00015
30 0.00013
30.05 0.00015
30.1 6e-05
30.15 1e-04
30.2 0.00012
30.25 0.00015
30.3 0.00015
30.35 0.00015
30.4 0.00018
30.45 0.00017
30.5 0.00013
30.55 -3e-05
30.6 -8e-05
30.65 -0.00014
30.7 -0.00023
30.75 -3e-04
30.8 -0.00029
30.85 -0.00026
30.9 -0.00025
30.95 -0.00028
31 -0.00023
31.05 -0.00023
31.1 -0.00019
31.15 -0.00027
31.2 -0.00015
31.25 -8e-05
31.3 2e-05
31.35 0.00014
31.4 0.00018
31.45 0.00017
31.5 0.00013
31.55 4e-05
31.6 2e-05
31.65 2e-05
31.7 -3e-05
31.75 -0.00011
31.8 -0.00017
31.85 -0.00011
31.9 -8e-05
31.95 3e-05
32 4e-05
32.05 -0.00011
32.1 -0.00018
32.15 -3e-04
32.2 -0.00038
32.25 -0.00036
32.3 -0.00035
32.35 -3e-04
32.4 -0.00025
32.45 -0.00025
32.5 -0.00018
32.55 -0.00011
32.6 3e-05
32.65 0.00017
32.7 0.00035
32.75 0.00042
32.8 0.00042
32.85 0.00047
32.9 5e-04
32.95 4e-04
33 0.00035
33.05 0.00026
33.1 0.00012
33.15 1e-05
33.2 -0.00015
33.25 -2e-04
33.3 -0.00012
33.35 6e-05
33.4 0.00016
33.45 0.00024
33.5 0.00026
33.55 0.00025
33.6 2e-04
33.65 0.00023
33.7 0.00026
33.75 2e-04
33.8 0.00016
33.85 0.00012
33.9 -1e-05
33.95 -9e-05
34 -0.00015
34.05 -0.00017
34.1 -0.00011
34.15 0
34.2 7e-05
34.25 3e-05
34.3 -9e-05
34.35 -0.00019
34.4 -0.00029
34.45 -3e-04
34.5 -0.00027
34.55 -0.00012
34.6 1e-04
34.65 0.00015
34.7 0.00025
34.75 0.00016
34.8 -1e-05
34.85 -7e-05
34.9 -9e-05
34.95 -4e-05
35 -2e-05
35.05 -4e-05
35.1 -4e-05
35.15 -2e-05
35.2 -6e-05
35.25 -6e-05
35.3 -0.00012
35.35 -0.00023
35.4 -0.00023
35.45 -0.00016
35.5 -0.00016
35.55 -0.00019
35.6 -0.00028
35.65 -0.00035
35.7 -0.00036
35.75 -0.00037
35.8 -4e-04
35.85 -0.00048
35.9 -0.00055
35.95 -0.00059
36 -0.00065
36.05 -0.00058
36.1 -0.00059
36.15 -5e-04
36.2 -0.00036
36.25 -0.00039
36.3 -0.00037
36.35 -0.00036
36.4 -0.00033
36.45 -0.00042
36.5 -0.00038
36.55 -0.00019
36.6 -6e-05
36.65 5e-05
36.7 0.00019
36.75 0.00021
36.8 0.00029
36.85 0.00033
36.9 0.00028
36.95 0.00036
37 0.00046
37.05 0.00052
37.1 0.00052
37.15 0.00058
37.2 0.00061
37.25 0.00069
37.3 0.00075
37.35 0.00075
37.4 0.00075
37.45 0.00065
37.5 0.00041
37.55 0.00019
37.6 0
37.65 -0.00021
37.7 -3e-04
37.75 -0.00038
37.8 -0.00038
37.85 -0.00034
37.9 -0.00022
37.95 -0.00021
38 -0.00026
38.05 -0.00017
38.1 -5e-05
38.15 9e-05
38.2 0.00026
38.25 0.00045
38.3 0.00052
38.35 0.00051
38.4 0.00044
38.45 0.00037
38.5 0.00028
38.55 0.00027
38.6 0.00031
38.65 0.00032
38.7 0.00029
38.75 0.00023
38.8 0.00019
38.85 0.00015
38.9 5e-05
38.95 -9e-05
39 -0.00014
39.05 -0.00013
39.1 -1e-04
39.15 -0.00011
39.2 -0.00019
39.25 -0.00024
39.3 -0.00028
39.35 -0.00034
39.4 -0.00037
39.45 -3e-04
39.5 -0.00021
39.55 -7e-05
39.6 0
39.65 0.00016
39.7 0.00026
39.75 0.00018
39.8 0.00012
39.85 -3e-05
39.9 -0.00014
39.95 -0.00024
40 -0.00021
40.05 -0.00012
40.1 -1e-04
40.15 -7e-05
40.2 -2e-05
40.25 1e-04
40.3 0.00028
40.35 0.00043
40.4 0.00045
40.45 0.00041
40.5 4e-04
40.55 0.00046
40.6 0.00038
40.65 0.00019
40.7 4e-05
40.75 -1e-05
40.8 -4e-05
40.85 -3e-05
40.9 -6e-05
40.95 -8e-05
41 -0.00014
41.05 -0.00013
41.1 -0.00012
41.15 -0.00019
41.2 -0.00019
41.25 -0.00026
41.3 -0.00025
41.35 -0.00019
41.4 -0.00016
41.45 -0.00017
41.5 -0.00023
41.55 -0.00015
41.6 0
41.65 6e-05
41.7 -1e-05
41.75 -0.00015
41.8 -3e-04
41.85 -0.00048
41.9 -0.00068
41.95 -0.00082
42 -0.00109
42.05 -0.00147
42.1 -0.00185
42.15 -0.00227
42.2 -0.0028
42.25 -0.00327
42.3 -0.00378
42.35 -0.00444
42.4 -0.00515
42.45 -0.00605
42.5 -0.00708
42.55 -0.00829
42.6 -0.00973
42.65 -0.01127
42.7 -0.01323
42.75 -0.0156
42.8 -0.01832
42.85 -0.02136
42.9 -0.02463
42.95 -0.02827
43 -0.03232
43.05 -0.03682
43.1 -0.04194
43.15 -0.04755
43.2 -0.05366
43.25 -0.06023
43.3 -0.0672
43.35 -0.07451
43.4 -0.08225
43.45 -0.09046
43.5 -0.099
43.55 -0.10789
43.6 -0.11711
43.65 -0.12638
43.7 -0.13571
43.75 -0.14494
43.8 -0.15392
43.85 -0.16252
43.9 -0.17081
43.95 -0.17851
44 -0.1856
44.05 -0.19188
44.1 -0.1973
44.15 -0.20154
44.2 -0.20457
44.25 -0.20631
44.3 -0.2068
44.35 -0.20597
44.4 -0.2038
44.45 -0.20021
44.5 -0.19521
44.55 -0.18887
44.6 -0.18121
44.65 -0.17235
44.7 -0.16245
44.75 -0.15162
44.8 -0.13982
44.85 -0.12736
44.9 -0.11421
44.95 -0.10075
45 -0.08701
45.05 -0.07304
45.1 -0.0591
45.15 -0.04542
45.2 -0.03207
45.25 -0.01912
45.3 -0.00653
45.35 0.00554
45.4 0.01696
45.45 0.02787
45.5 0.03811
45.55 0.04778
45.6 0.05677
45.65 0.06536
45.7 0.07342
45.75 0.08104
45.8 0.08814
45.85 0.09488
45.9 0.10128
45.95 0.10731
46 0.11304
46.05 0.1185
46.1 0.12389
46.15 0.12912
46.2 0.13418
46.25 0.13902
46.3 0.14359
46.35 0.14796
46.4 0.15216
46.45 0.15606
46.5 0.15972
46.55 0.16303
46.6 0.16594
46.65 0.16853
46.7 0.17075
46.75 0.1726
46.8 0.17406
46.85 0.17518
46.9 0.17574
46.95 0.17585
47 0.17551
47.05 0.17481
47.1 0.17378
47.15 0.17238
47.2 0.17068
47.25 0.16862
47.3 0.16619
47.35 0.1634
47.4 0.16031
47.45 0.15693
47.5 0.15337
47.55 0.14954
47.6 0.14546
47.65 0.14123
47.7 0.13689
47.75 0.13268
47.8 0.12843
47.85 0.12422
47.9 0.12
47.95 0.11577
48 0.11163
48.05 0.10745
48.1 0.10327
48.15 0.09923
48.2 0.09515
48.25 0.09114
48.3 0.08721
48.35 0.08343
48.4 0.07969
48.45 0.07609
48.5 0.07249
48.55 0.06888
48.6 0.06541
48.65 0.06201
48.7 0.05866
48.75 0.05555
48.8 0.05247
48.85 0.04948
48.9 0.04653
48.95 0.04369
49 0.04081
49.05 0.03787
49.1 0.03511
49.15 0.03236
49.2 0.02964
49.25 0.02702
49.3 0.02444
49.35 0.022
49.4 0.01968
49.45 0.01741
49.5 0.01518
49.55 0.01303
49.6 0.0109
49.65 0.00881
49.7 0.0068
49.75 0.00494
49.8 0.00322
49.85 0.00157
49.9 -1e-04
49.95 -0.0017
50 -0.0033
50.05 -0.00478
50.1 -0.00624
50.15 -0.00761
50.2 -0.00892
50.25 -0.01008
50.3 -0.01121
50.35 -0.01228
50.4 -0.01336
50.45 -0.01441
50.5 -0.01548
50.55 -0.01649
50.6 -0.01739
50.65 -0.01835
50.7 -0.01929
50.75 -0.02018
50.8 -0.02091
50.85 -0.02163
50.9 -0.02225
50.95 -0.02285
51 -0.02334
51.05 -0.02374
51.1 -0.02406
51.15 -0.02434
51.2 -0.02461
51.25 -0.02481
51.3 -0.02502
51.35 -0.02509
51.4 -0.02518
51.45 -0.02535
51.5 -0.02549
51.55 -0.02564
51.6 -0.02575
51.65 -0.02569
51.7 -0.02568
51.75 -0.02578
51.8 -0.02582
51.85 -0.02577
51.9 -0.02568
51.95 -0.02558
52 -0.02556
52.05 -0.0255
52.1 -0.02543
52.15 -0.02529
52.2 -0.02515
52.25 -0.02512
52.3 -0.02496
52.35 -0.02486
52.4 -0.0247
52.45 -0.02448
52.5 -0.0242
52.55 -0.02394
52.6 -0.0237
52.65 -0.02344
52.7 -0.02316
52.75 -0.02295
52.8 -0.02279
52.85 -0.02257
52.9 -0.02222
52.95 -0.022
53 -0.02181
53.05 -0.02151
53.1 -0.02121
53.15 -0.02091
53.2 -0.02067
53.25 -0.02047
53.3 -0.02024
53.35 -0.01992
53.4 -0.01958
53.45 -0.01928
53.5 -0.01898
53.55 -0.01873
53.6 -0.01855
53.65 -0.01837
53.7 -0.01815
53.75 -0.01796
53.8 -0.01776
53.85 -0.01756
53.9 -0.01726
53.95 -0.01698
54 -0.01668
54.05 -0.01639
54.1 -0.01617
54.15 -0.01604
54.2 -0.01585
54.25 -0.0157
54.3 -0.01544
54.35 -0.01512
54.4 -0.01487
54.45 -0.01459
54.5 -0.01442
54.55 -0.01422
54.6 -0.01399
54.65 -0.01375
54.7 -0.01345
54.75 -0.01313
54.8 -0.01293
54.85 -0.01266
54.9 -0.01241
54.95 -0.01211
55 -0.01191
55.05 -0.01166
55.1 -0.01146
55.15 -0.01134
55.2 -0.01116
55.25 -0.011
55.3 -0.01095
55.35 -0.0109
55.4 -0.01082
55.45 -0.01072
55.5 -0.01056
55.55 -0.01042
55.6 -0.01029
55.65 -0.01004
55.7 -0.00983
55.75 -0.00975
55.8 -0.00962
55.85 -0.00953
55.9 -0.00935
55.95 -0.00923
56 -0.0092
56.05 -0.00912
56.1 -0.00904
56.15 -0.00894
56.2 -0.00882
56.25 -0.00873
56.3 -0.00856
56.35 -0.00841
56.4 -0.00814
56.45 -0.00781
56.5 -0.00758
56.55 -0.00749
56.6 -0.0074
56.65 -0.00737
56.7 -0.0073
56.75 -0.00724
56.8 -0.00714
56.85 -0.00704
56.9 -0.00699
56.95 -0.00685
57 -0.00674
57.05 -0.0066
57.1 -0.0065
57.15 -0.00634
57.2 -0.00622
57.25 -0.00602
57.3 -0.00589
57.35 -0.00574
57.4 -0.00555
57.45 -0.00539
57.5 -0.00516
57.55 -0.00499
57.6 -0.00501
57.65 -0.00504
57.7 -0.00506
57.75 -0.00504
57.8 -0.00499
57.85 -0.00493
57.9 -0.00486
57.95 -0.00475
58 -0.00473
58.05 -0.00472
58.1 -0.00482
58.15 -0.00485
58.2 -0.00482
58.25 -0.00464
58.3 -0.00463
58.35 -0.00457
58.4 -0.00443
58.45 -0.00423
58.5 -0.00405
58.55 -0.00394
58.6 -0.00386
58.65 -0.00374
58.7 -0.00365
58.75 -0.00356
58.8 -0.00345
58.85 -0.00336
58.9 -0.00338
58.95 -0.0034
59 -0.00351
59.05 -0.00362
59.1 -0.0037
59.15 -0.00371
59.2 -0.00369
59.25 -0.00355
59.3 -0.00345
59.35 -0.00336
59.4 -0.00339
59.45 -0.00337
59.5 -0.00331
59.55 -0.00331
59.6 -0.00326
59.65 -0.00323
59.7 -0.00322
59.75 -0.00306
59.8 -0.00299
59.85 -0.00291
59.9 -0.00269
59.95 -0.00247
60 -0.00233
60.05 -0.00218
60.1 -0.00214
60.15 -0.00207
60.2 -0.00205
60.25 -0.00223
60.3 -0.00233
60.35 -0.00242
60.4 -0.00252
60.45 -0.00249
60.5 -0.00248
60.55 -0.00243
60.6 -0.00235
60.65 -0.00222
60.7 -0.00208
60.75 -0.00194
60.8 -0.00181
60.85 -0.00171
60.9 -0.00173
60.95 -0.00173
61 -0.00179
61.05 -0.00182
61.1 -0.00185
61.15 -0.0019
61.2 -0.00185
61.25 -0.00182
61.3 -0.00181
61.35 -0.00175
61.4 -0.00164
61.45 -0.00153
61.5 -0.00154
61.55 -0.0015
61.6 -0.00152
61.65 -0.00153
61.7 -0.00151
61.75 -0.00151
61.8 -0.00156
61.85 -0.00154
61.9 -0.00157
61.95 -0.00165
62 -0.0016
62.05 -0.00159
62.1 -0.00155
62.15 -0.0015
62.2 -0.00154
62.25 -0.00153
62.3 -0.00147
62.35 -0.00142
62.4 -0.00138
62.45 -0.00139
62.5 -0.00134
62.55 -0.00133
62.6 -0.00126
62.65 -0.00124
62.7 -0.00125
62.75 -0.00121
62.8 -0.0012
62.85 -0.00109
62.9 -0.00111
62.95 -0.00116
63 -0.00125
63.05 -0.00138
63.1 -0.00135
63.15 -0.00138
63.2 -0.00136
63.25 -0.00132
63.3 -0.00126
63.35 -0.0013
63.4 -0.00132
63.45 -0.00126
63.5 -0.00119
63.55 -0.00103
63.6 -0.00089
63.65 -0.00079
63.7 -0.00075
63.75 -0.00071
63.8 -0.00065
63.85 -0.00069
63.9 -0.00078
63.95 -0.00082
64 -0.00083
64.05 -0.00079
64.1 -0.00075
64.15 -0.00066
64.2 -0.00066
64.25 -0.00071
64.3 -0.00066
64.35 -0.00064
64.4 -0.00063
64.45 -0.00054
64.5 -0.00049
64.55 -0.00052
64.6 -0.00057
64.65 -0.00044
64.7 -0.00035
64.75 -0.00023
64.8 -0.00019
64.85 -0.00026
64.9 -0.00035
64.95 -0.00044
65 -0.00039
65.05 -3e-04
65.1 -0.00027
65.15 -0.00038
65.2 -0.00049
65.25 -0.00062
65.3 -0.00065
65.35 -0.00063
65.4 -0.00068
65.45 -0.00067
65.5 -0.00066
65.55 -6e-04
65.6 -0.00047
65.65 -0.00042
65.7 -0.00043
65.75 -0.00033
65.8 -0.00034
65.85 -0.00037
65.9 -0.00031
65.95 -0.00033
66 -0.00038
66.05 -0.00041
66.1 -0.00045
66.15 -0.00047
66.2 -0.00051
66.25 -0.00062
66.3 -0.00065
66.35 -0.00059
66.4 -0.00053
66.45 -0.00046
66.5 -0.00038
66.55 -0.00028
66.6 -0.00015
66.65 5e-05
66.7 6e-05
66.75 5e-05
66.8 6e-05
66.85 0
66.9 -1e-05
66.95 -4e-05
67 -4e-05
67.05 -3e-05
67.1 -3e-05
67.15 4e-05
67.2 0.00013
67.25 1e-04
67.3 9e-05
67.35 5e-05
67.4 2e-05
67.45 -7e-05
67.5 -0.00018
67.55 -0.00025
67.6 -3e-04
67.65 -0.00044
67.7 -0.00051
67.75 -6e-04
67.8 -0.00064
67.85 -0.00067
67.9 -0.00063
67.95 -0.00057
68 -0.00052
68.05 -4e-04
68.1 -0.00029
68.15 -0.00022
68.2 -0.00019
68.25 -0.00016
68.3 -0.00013
68.35 -8e-05
68.4 -8e-05
68.45 -6e-05
68.5 -6e-05
68.55 -6e-05
68.6 -1e-04
68.65 -0.00011
68.7 -0.00013
68.75 -1e-04
68.8 0
68.85 5e-05
68.9 8e-05
68.95 2e-05
69 1e-05
69.05 -0.00013
69.1 -0.00027
69.15 -4e-04
69.2 -0.00051
69.25 -0.00053
69.3 -0.00057
69.35 -6e-04
69.4 -0.00064
69.45 -0.00054
69.5 -0.00054
69.55 -0.00043
69.6 -0.00041
69.65 -0.00039
69.7 -0.00036
69.75 -0.00034
69.8 -0.00029
69.85 -0.00031
69.9 -0.00033
69.95 -0.00032
70 -0.00032
70.05 -0.00033
70.1 -0.00033
70.15 -0.00021
70.2 -0.00017
70.25 -0.00012
70.3 -9e-05
70.35 -0.00011
70.4 -0.00012
70.45 -0.00015
70.5 -0.00016
70.55 -2e-05
70.6 4e-05
70.65 7e-05
70.7 4e-05
70.75 -4e-05
70.8 -7e-05
70.85 -4e-05
70.9 0
70.95 -6e-05
71 -1e-04
71.05 -0.00013
71.1 -0.00017
71.15 -0.00016
71.2 -4e-05
71.25 7e-05
71.3 0.00024
71.35 0.00036
71.4 0.00034
71.45 0.00027
71.5 0.00015
71.55 0
71.6 0
71.65 5e-05
71.7 0.00011
71.75 0.00013
71.8 0.00012
71.85 0.00015
71.9 0.00013
71.95 0.00015
72 0.00017
72.05 0.00019
72.1 0.00018
72.15 9e-05
72.2 0
72.25 -6e-05
72.3 -0.00015
72.35 -0.00015
72.4 -0.00012
72.45 -4e-05
72.5 -0.00014
72.55 -0.00019
72.6 -0.00019
72.65 -0.00019
72.7 -0.00019
72.75 -0.00024
72.8 -3e-04
72.85 -0.00032
72.9 -0.00033
72.95 -0.00032
73 -0.00026
73.05 -0.00018
73.1 -4e-05
73.15 -2e-05
73.2 7e-05
73.25 0.00015
73.3 0.00017
73.35 0.00015
73.4 0.00015
73.45 0.00017
73.5 0.00027
73.55 0.00034
73.6 0.00029
73.65 0.00018
73.7 0.00012
73.75 6e-05
73.8 1e-05
73.85 1e-05
73.9 0.00011
73.95 0.00014
74 0.00016
74.05 0.00017
74.1 0.00014
74.15 -4e-05
74.2 -2e-04
74.25 -0.00033
74.3 -0.00041
74.35 -0.00046
74.4 -0.00051
74.45 -0.00049
74.5 -4e-04
74.55 -0.00032
74.6 -2e-04
74.65 -0.00012
74.7 0
74.75 0
74.8 0
74.85 -2e-05
74.9 -0.00011
74.95 -0.00018
75 -0.00019
75.05 -0.00017
75.1 -0.00018
75.15 -0.00019
75.2 -0.00016
75.25 -0.00013
75.3 -2e-05
75.35 6e-05
75.4 7e-05
75.45 6e-05
75.5 1e-04
75.55 0
75.6 -1e-04
75.65 -0.00013
75.7 -4e-05
75.75 -1e-05
75.8 1e-05
75.85 3e-05
75.9 0.00017
75.95 3e-04
76 0.00024
76.05 0.00016
76.1 3e-05
76.15 -2e-05
76.2 -9e-05
76.25 -4e-05
76.3 -3e-05
76.35 -9e-05
76.4 -0.00016
76.45 -0.00023
76.5 -0.00024
76.55 -0.00026
76.6 -0.00021
76.65 -0.00021
76.7 -0.00017
76.75 -0.00015
76.8 -0.00012
76.85 -0.00014
76.9 -0.00023
76.95 -0.00033
77 -0.00041
77.05 -0.00043
77.1 -0.00034
77.15 -0.00027
77.2 -0.00025
77.25 -0.00019
77.3 -6e-05
77.35 2e-05
77.4 0.00016
77.45 0.00016
77.5 0.00023
77.55 0.00026
77.6 0.00022
77.65 0.00025
77.7 0.00029
77.75 0.00029
77.8 0.00023
77.85 8e-05
77.9 -8e-05
77.95 -0.00017
78 -3e-04
78.05 -4e-04
78.1 -0.00041
78.15 -0.00033
78.2 -0.00021
78.25 -0.00012
78.3 -6e-05
78.35 -7e-05
78.4 -3e-05
78.45 -8e-05
78.5 -0.00013
78.55 -1e-04
78.6 -7e-05
78.65 -0.00012
78.7 -6e-05
78.75 4e-05
78.8 9e-05
78.85 4e-05
78.9 -3e-05
78.95 -9e-05
79 -5e-05
79.05 5e-05
79.1 0.00015
79.15 1e-04
79.2 5e-05
79.25 5e-05
79.3 7e-05
79.35 0.00013
79.4 0.00018
79.45 0.00023
79.5 0.00018
79.55 0.00017
79.6 0.00019
79.65 0.00017
79.7 9e-05
79.75 0.00011
79.8 0.00015
79.85 8e-05
79.9 -6e-05
79.95 -0.00021
80 -0.00028
80.05 -0.00022
80.1 -0.00023
80.15 -0.00027
80.2 -0.00015
80.25 -7e-05
80.3 5e-05
80.35 8e-05
80.4 5e-05
80.45 6e-05
80.5 4e-05
80.55 5e-05
80.6 9e-05
80.65 0.00012
80.7 7e-05
80.75 5e-05
80.8 -2e-05
80.85 -5e-05
80.9 -8e-05
80.95 -9e-05
81 -9e-05
81.05 -6e-05
81.1 3e-05
81.15 5e-05
81.2 0.00014
81.25 0.00015
81.3 1e-04
81.35 8e-05
81.4 -1e-05
81.45 0
81.5 4e-05
81.55 7e-05
81.6 4e-05
81.65 5e-05
81.7 8e-05
81.75 7e-05
81.8 2e-04
81.85 0.00028
81.9 3e-04
81.95 0.00025
82 0.00021
82.05 0.00019
82.1 0.00022
82.15 0.00022
82.2 2e-04
82.25 0.00018
82.3 0.00014
82.35 0.00013
82.4 0.00014
82.45 0.00018
82.5 0.00021
82.55 2e-04
82.6 0.00012
82.65 4e-05
82.7 -4e-05
82.75 -0.00016
82.8 -0.00022
82.85 -0.00029
82.9 -0.00031
82.95 -0.00029
83 -0.00026
83.05 -2e-04
83.1 -0.00014
83.15 -1e-04
83.2 -0.00012
83.25 -0.00021
83.3 -0.00033
83.35 -0.00046
83.4 -0.00055
83.45 -0.00062
83.5 -0.00057
83.55 -0.00037
83.6 -0.00029
83.65 -0.00025
83.7 -0.00018
83.75 -2e-05
83.8 7e-05
83.85 9e-05
83.9 0.00015
83.95 0.00023
84 0.00026
84.05 0.00036
84.1 0.00035
84.15 0.00033
84.2 0.00024
84.25 8e-05
84.3 -0.00012
84.35 -0.00026
84.4 -0.00037
84.45 -0.00046
84.5 -6e-04
84.55 -0.00067
84.6 -0.00064
84.65 -0.00054
84.7 -0.00046
84.75 -0.00038
84.8 -0.00023
84.85 -0.00013
84.9 -3e-05
84.95 3e-05
85 7e-05
85.05 9e-05
85.1 0.00011
85.15 3e-05
85.2 1e-05
85.25 5e-05
85.3 -1e-05
85.35 -9e-05
85.4 -1e-05
85.45 -3e-05
85.5 -0.00012
85.55 -2e-04
85.6 -3e-04
85.65 -0.00034
85.7 -0.00031
85.75 -0.00023
85.8 -0.00018
85.85 -0.00019
85.9 -0.00022
85.95 -0.00023
86 -0.00018
86.05 -8e-05
86.1 2e-05
86.15 6e-05
86.2 1e-04
86.25 0.00013
86.3 0.00019
86.35 5e-05
86.4 -4e-05
86.45 -5e-05
86.5 -5e-05
86.55 -9e-05
86.6 -0.00019
86.65 -0.00027
86.7 -0.00029
86.75 -0.00033
86.8 -0.00031
86.85 -0.00022
86.9 -2e-04
86.95 -0.00021
87 -0.00019
87.05 -9e-05
87.1 0
87.15 -2e-05
87.2 -9e-05
87.25 -4e-05
87.3 1e-05
87.35 6e-05
87.4 5e-05
87.45 6e-05
87.5 4e-05
87.55 4e-05
87.6 3e-05
87.65 3e-05
87.7 6e-05
87.75 0.00014
87.8 0.00027
87.85 0.00035
87.9 0.00046
87.95 0.00047
88 0.00044
88.05 0.00025
88.1 0.00014
88.15 0.00015
88.2 0.00011
88.25 0.00012
88.3 8e-05
88.35 7e-05
88.4 0.00011
88.45 0.00013
88.5 0.00018
88.55 0.00015
88.6 1e-04
88.65 7e-05
88.7 3e-05
88.75 3e-05
88.8 4e-05
88.85 -6e-05
88.9 -6e-05
88.95 -5e-05
89 -0.00013
89.05 -0.00015
89.1 -0.00016
89.15 -8e-05
89.2 -0.00011
89.25 -0.00024
89.3 -0.00021
89.35 -0.00016
89.4 -0.00012
89.45 -3e-05
89.5 6e-05
89.55 0.00014
89.6 0.00018
89.65 3e-04
89.7 0.00036
89.75 0.00039
89.8 0.00038
89.85 0.00032
89.9 0.00027
89.95 4e-05
90 -0.00012
90.05 -0.00019
90.1 -3e-04
90.15 -0.00028
90.2 -0.00025
90.25 -0.00026
90.3 -0.00023
90.35 -0.00016
90.4 -0.00016
90.45 -0.00012
90.5 -9e-05
90.55 -9e-05
90.6 -0.00011
90.65 -0.00014
90.7 -0.00012
90.75 1e-05
90.8 2e-05
90.85 3e-05
90.9 1e-05
90.95 0.00011
91 2e-04
91.05 0.00023
91.1 0.00019
91.15 0.00018
91.2 0.00014
91.25 0.00012
91.3 1e-04
91.35 8e-05
91.4 4e-05
91.45 8e-05
91.5 0.00016
91.55 0.00018
91.6 0.00018
91.65 0.00014
91.7 0.00019
91.75 0.00036
91.8 0.00044
91.85 0.00053
91.9 0.00054
91.95 0.00047
92 3e-04
92.05 0.00014
92.1 -3e-05
92.15 -0.00012
92.2 -0.00018
92.25 -0.00025
92.3 -0.00022
92.35 -0.00017
92.4 -0.00019
92.45 -0.00023
92.5 -0.00019
92.55 -0.00026
92.6 -0.00022
92.65 -0.00021
92.7 -0.00028
92.75 -0.00028
92.8 -0.00023
92.85 -0.00018
92.9 -6e-05
92.95 7e-05
93 0.00012
93.05 6e-05
93.1 -1e-04
93.15 -0.00015
93.2 -0.00025
93.25 -0.00029
93.3 -0.00031
93.35 -0.00029
93.4 -0.00031
93.45 -0.00032
93.5 -0.00027
93.55 -0.00018
93.6 -8e-05
93.65 1e-05
93.7 0
93.75 6e-05
93.8 0
93.85 -0.00013
93.9 -0.00018
93.95 -2e-04
94 -0.00021
94.05 -2e-04
94.1 -0.00017
94.15 -1e-05
94.2 4e-05
94.25 3e-05
94.3 2e-05
94.35 -1e-05
94.4 -0.00011
94.45 -0.00014
94.5 -0.00015
94.55 -6e-05
94.6 1e-05
94.65 7e-05
94.7 6e-05
94.75 7e-05
94.8 1e-05
94.85 -0.00014
94.9 -0.00034
94.95 -0.00051
95 -0.00057
95.05 -0.00051
95.1 -0.00051
95.15 -0.00044
95.2 -0.00032
95.25 -2e-04
95.3 -1e-04
95.35 3e-05
95.4 0.00013
95.45 0.00023
95.5 0.00026
95.55 0.00016
95.6 8e-05
95.65 0.00013
95.7 8e-05
95.75 0.00014
95.8 1e-04
95.85 9e-05
95.9 6e-05
95.95 0.00011
96 1e-04
96.05 0.00012
96.1 0.00011
96.15 2e-05
96.2 -6e-05
96.25 -0.00019
96.3 -0.00031
96.35 -0.00039
96.4 -0.00042
96.45 -0.00032
96.5 -0.00027
96.55 -0.00015
96.6 -7e-05
96.65 6e-05
96.7 0.00021
96.75 0.00024
96.8 0.00023
96.85 2e-04
96.9 0.00015
96.95 -3e-05
97 -0.00017
97.05 -0.00023
97.1 -0.00019
97.15 -8e-05
97.2 -8e-05
97.25 -5e-05
97.3 -1e-05
97.35 0
97.4 6e-05
97.45 0.00016
97.5 0.00024
97.55 0.00023
97.6 0.00013
97.65 6e-05
97.7 1e-04
97.75 0.00011
97.8 0.00013
97.85 0.00015
97.9 1e-04
97.95 3e-05
98 -4e-05
98.05 -0.00014
98.1 -0.00013
98.15 -0.00015
98.2 -0.00021
98.25 -0.00012
98.3 2e-05
98.35 9e-05
98.4 0.00017
98.45 0.00028
98.5 0.00031
98.55 0.00026
98.6 0.00023
98.65 2e-04
98.7 0.00014
98.75 7e-05
98.8 -4e-05
98.85 -8e-05
98.9 -0.00014
98.95 -0.00015
99 -0.00017
99.05 -0.00017
99.1 -0.00014
99.15 -0.00011
99.2 -0.00013
99.25 -0.00022
99.3 -0.00035
99.35 -0.00041
99.4 -0.00046
99.45 -0.00043
99.5 -0.00025
99.55 -7e-05
99.6 1e-05
99.65 3e-05
99.7 7e-05
99.75 3e-05
99.8 2e-05
99.85 -6e-05
99.9 -6e-05
99.95 -8e-05
