0 0
0.05 8e-04
0.1 0.00196
0.15 0.00337
0.2 0.00487
0.25 0.00618
0.3 0.00724
0.35 0.00825
0.4 0.00896
0.45 0.00948
0.5 0.00958
0.55 0.00955
0.6 0.00943
0.65 0.00919
0.7 0.00933
0.75 0.00943
0.8 0.00943
0.85 0.00925
0.9 0.00923
0.95 0.00915
1 0.00896
1.05 0.0086
1.1 0.00845
1.15 0.0082
1.2 0.00795
1.25 0.00766
1.3 0.00741
1.35 0.00712
1.4 0.00682
1.45 0.00649
1.5 0.00638
1.55 0.00626
1.6 0.00629
1.65 0.00617
1.7 0.00627
1.75 0.00624
1.8 0.00626
1.85 0.00624
1.9 0.00613
1.95 0.00582
2 0.00566
2.05 0.00549
2.1 0.00528
2.15 0.00512
2.2 0.00497
2.25 0.00478
2.3 0.00463
2.35 0.00471
2.4 0.00466
2.45 0.00439
2.5 0.00433
2.55 0.00436
2.6 0.00429
2.65 0.00434
2.7 0.00422
2.75 0.00413
2.8 0.00404
2.85 0.00377
2.9 0.00358
2.95 0.00363
3 0.00364
3.05 0.00344
3.1 0.00343
3.15 0.00356
3.2 0.00384
3.25 0.00415
3.3 0.00438
3.35 0.00433
3.4 0.00432
3.45 0.00422
3.5 0.00412
3.55 0.00397
3.6 0.00358
3.65 0.00338
3.7 0.00319
3.75 0.00303
3.8 0.00306
3.85 0.00305
3.9 0.00309
3.95 0.00331
4 0.0034
4.05 0.00329
4.1 0.00311
4.15 0.0028
4.2 0.00272
4.25 0.00264
4.3 0.00258
4.35 0.00251
4.4 0.00254
4.45 0.00274
4.5 0.00275
4.55 0.0026
4.6 0.00261
4.65 0.00266
4.7 0.00255
4.75 0.00254
4.8 0.00255
4.85 0.00243
4.9 0.00223
4.95 0.00182
5 0.00154
5.05 0.00129
5.1 0.00131
5.15 0.00132
5.2 0.00142
5.25 0.0016
5.3 0.00167
5.35 0.0019
5.4 0.002
5.45 0.00214
5.5 0.00221
5.55 0.00225
5.6 0.00212
5.65 0.00211
5.7 0.00218
5.75 0.00221
5.8 0.00229
5.85 0.00238
5.9 0.00256
5.95 0.00268
6 0.00259
6.05 0.00213
6.1 0.00183
6.15 0.00149
6.2 0.00127
6.25 0.00113
6.3 0.00108
6.35 0.00102
6.4 0.00105
6.45 0.00121
6.5 0.00113
6.55 0.00102
6.6 0.00113
6.65 0.00135
6.7 0.00134
6.75 0.00152
6.8 0.00141
6.85 0.00129
6.9 0.0012
6.95 0.00115
7 0.00098
7.05 0.00081
7.1 0.00071
7.15 0.00084
7.2 9e-04
7.25 0.00082
7.3 0.00073
7.35 0.00079
7.4 0.00107
7.45 0.00121
7.5 0.0012
7.55 0.00129
7.6 0.00147
7.65 0.00142
7.7 0.00149
7.75 0.00159
7.8 0.00155
7.85 0.00163
7.9 0.00175
7.95 0.00157
8 0.00124
8.05 0.00118
8.1 0.00099
8.15 6e-04
8.2 0.00032
8.25 0.00022
8.3 0.00028
8.35 0.00049
8.4 0.00046
8.45 0.00041
8.5 0.00024
8.55 0.00011
8.6 0.00015
8.65 0.00012
8.7 0.00013
8.75 7e-05
8.8 1e-04
8.85 5e-05
8.9 2e-05
8.95 -6e-05
9 -0.00012
9.05 0.00015
9.1 0.00046
9.15 0.00069
9.2 0.00085
9.25 0.00093
9.3 0.00102
9.35 0.00101
9.4 0.00082
9.45 0.00052
9.5 0.00021
9.55 -1e-04
9.6 -0.00042
9.65 -0.00057
9.7 -0.00065
9.75 -0.00045
9.8 -0.00039
9.85 -0.00035
9.9 -4e-04
9.95 -0.00053
10 -0.00055
10.05 -0.00044
10.1 -0.00037
10.15 -0.00035
10.2 -0.00015
10.25 0.00026
10.3 0.00058
10.35 0.00092
10.4 0.00117
10.45 0.00145
10.5 0.00148
10.55 0.0013
10.6 0.0011
10.65 0.00102
10.7 0.00105
10.75 0.00118
10.8 0.00113
10.85 0.00099
10.9 0.00078
10.95 6e-04
11 0.00045
11.05 0.00042
11.1 4e-04
11.15 0.00027
11.2 0.00018
11.25 0.00017
11.3 0.00016
11.35 0.00035
11.4 0.00041
11.45 0.00034
11.5 0.00011
11.55 -0.00016
11.6 -0.00037
11.65 -0.00052
11.7 -0.00059
11.75 -0.00043
11.8 -0.00039
11.85 -0.00032
11.9 -0.00023
11.95 -3e-05
12 0.00025
12.05 0.00031
12.1 0.00034
12.15 0.00016
12.2 0.00012
12.25 0.00016
12.3 0.00015
12.35 0.00015
12.4 9e-05
12.45 -0.00026
12.5 -0.00056
12.55 -0.00078
12.6 -0.00096
12.65 -0.00083
12.7 -0.00053
12.75 -0.00032
12.8 -2e-04
12.85 3e-05
12.9 0.00012
12.95 0.00013
13 0.00031
13.05 0.00049
13.1 0.00045
13.15 0.00055
13.2 0.00054
13.25 4e-04
13.3 0.00037
13.35 0.00025
13.4 0.00014
13.45 0.00028
13.5 0.00035
13.55 0.00018
13.6 -3e-05
13.65 -0.00046
13.7 -0.00071
13.75 -0.00055
13.8 -3e-04
13.85 -3e-04
13.9 -0.00045
13.95 -0.00056
14 -0.00072
14.05 -9e-04
14.1 -0.00101
14.15 -0.001
14.2 -0.00111
14.25 -0.00088
14.3 -0.00055
14.35 -0.00028
14.4 -0.00014
14.45 -5e-05
14.5 -3e-05
14.55 -0.00014
14.6 -0.00013
14.65 -0.00017
14.7 -4e-05
14.75 -0.00012
14.8 -0.00014
14.85 -7e-05
14.9 -0.00014
14.95 -0.00016
15 -0.00017
15.05 -0.00013
15.1 -9e-05
15.15 -7e-05
15.2 -4e-05
15.25 8e-05
15.3 0.00023
15.35 0.00044
15.4 0.00053
15.45 0.00059
15.5 0.00051
15.55 5e-04
15.6 0.00047
15.65 0.00046
15.7 0.00035
15.75 0.00021
15.8 1e-05
15.85 -0.00014
15.9 -0.00022
15.95 -0.00036
16 -0.00044
16.05 -0.00015
16.1 5e-05
16.15 0.00022
16.2 0.00052
16.25 0.00063
16.3 0.00088
16.35 0.00096
16.4 0.00091
16.45 0.00089
16.5 0.00097
16.55 0.00086
16.6 0.00071
16.65 0.00044
16.7 0.00018
16.75 -4e-05
16.8 -0.00025
16.85 -0.00017
16.9 -0.00014
16.95 -0.00016
17 -0.00018
17.05 -0.00017
17.1 -0.00014
17.15 4e-05
17.2 8e-05
17.25 0.00026
17.3 0.00059
17.35 7e-04
17.4 0.00065
17.45 0.00078
17.5 0.00071
17.55 0.00067
17.6 6e-04
17.65 5e-04
17.7 0.00045
17.75 6e-04
17.8 0.00068
17.85 5e-04
17.9 0.00036
17.95 0.00035
18 0.00048
18.05 0.00046
18.1 0.00014
18.15 -0.00014
18.2 -0.00025
18.25 -2e-04
18.3 -0.00011
18.35 -5e-05
18.4 -5e-05
18.45 -4e-05
18.5 -0.00014
18.55 -0.00013
18.6 -0.00012
18.65 -3e-05
18.7 2e-05
18.75 -6e-05
18.8 -0.00024
18.85 -0.00025
18.9 -9e-05
18.95 -0.00012
19 -8e-05
19.05 -2e-05
19.1 0.00015
19.15 0.00025
19.2 0.00023
19.25 0.00032
19.3 0.00032
19.35 0.00038
19.4 0.00037
19.45 0.00028
19.5 0.00018
19.55 5e-05
19.6 -9e-05
19.65 -0.00013
19.7 -0.00019
19.75 -0.00021
19.8 -0.00018
19.85 -0.00017
19.9 -0.00018
19.95 -0.00035
20 -0.00053
20.05 -0.00042
20.1 -0.00048
20.15 -0.00063
20.2 -0.00054
20.25 -0.00057
20.3 -0.00019
20.35 0
20.4 2e-04
20.45 0.00048
20.5 0.00045
20.55 0.00041
20.6 0.00023
20.65 1e-05
20.7 -0.00014
20.75 -0.00027
20.8 -0.00011
20.85 2e-05
20.9 0.00032
20.95 0.00052
21 0.00054
21.05 0.00046
21.1 0.00033
21.15 0.00018
21.2 0.00015
21.25 0.00013
21.3 2e-05
21.35 1e-05
21.4 -0.00017
21.45 -0.00046
21.5 -7e-04
21.55 -0.00092
21.6 -0.00092
21.65 -0.00081
21.7 -0.00087
21.75 -9e-04
21.8 -0.00079
21.85 -0.00073
21.9 -0.00047
21.95 -0.00031
22 -0.00029
22.05 -0.00038
22.1 -0.00037
22.15 -0.00026
22.2 -4e-05
22.25 2e-04
22.3 0.00034
22.35 0.00026
22.4 0.00039
22.45 0.00044
22.5 0.00045
22.55 0.00035
22.6 0.00022
22.65 1e-04
22.7 -6e-05
22.75 -0.00034
22.8 -0.00056
22.85 -8e-04
22.9 -0.00085
22.95 -0.00067
23 -0.00056
23.05 -0.00047
23.1 -0.00028
23.15 -0.00021
23.2 -0.00031
23.25 -0.00039
23.3 -0.00041
23.35 -5e-04
23.4 -0.00033
23.45 -0.00031
23.5 -0.00039
23.55 -0.00044
23.6 -0.00026
23.65 -0.00023
23.7 -0.00017
23.75 8e-05
23.8 0.00041
23.85 0.00071
23.9 0.00082
23.95 0.00082
24 0.00084
24.05 0.00068
24.1 0.00047
24.15 0.00025
24.2 -3e-05
24.25 -2e-04
24.3 -0.00024
24.35 -0.00039
24.4 -0.00035
24.45 -2e-05
24.5 0.00011
24.55 0.00023
24.6 0.00024
24.65 0.00029
24.7 0.00022
24.75 1e-04
24.8 -0.00025
24.85 -0.00057
24.9 -0.00102
24.95 -0.00111
25 -0.00109
25.05 -0.00116
25.1 -0.00104
25.15 -0.00075
25.2 -0.00065
25.25 -0.00041
25.3 -7e-05
25.35 5e-05
25.4 4e-05
25.45 9e-05
25.5 0.00017
25.55 0.00037
25.6 0.00045
25.65 0.00044
25.7 0.00037
25.75 0.00024
25.8 8e-05
25.85 -0.00016
25.9 -0.00017
25.95 -1e-04
26 -0.00017
26.05 -0.00017
26.1 -0.00035
26.15 -0.00047
26.2 -0.00067
26.25 -0.00067
26.3 -0.00046
26.35 -0.00029
26.4 -0.00025
26.45 -2e-04
26.5 -0.00011
26.55 -2e-04
26.6 -0.00042
26.65 -0.00042
26.7 -0.00024
26.75 5e-05
26.8 0.00012
26.85 8e-05
26.9 -5e-05
26.95 -0.00014
27 -8e-05
27.05 9e-05
27.1 0.00016
27.15 0.00016
27.2 1e-04
27.25 0.00015
27.3 8e-05
27.35 4e-05
27.4 -6e-05
27.45 -2e-04
27.5 -0.00031
27.55 -0.00033
27.6 -0.00039
27.65 -5e-04
27.7 -0.00046
27.75 -0.00036
27.8 -0.00037
27.85 -0.00033
27.9 -8e-05
27.95 6e-05
28 0.00013
28.05 0.00034
28.1 0.00059
28.15 0.00064
28.2 0.00057
28.25 0.00049
28.3 0.00037
28.35 0.00033
28.4 0.00025
28.45 0.00014
28.5 -0.00013
28.55 -0.00033
28.6 -0.00024
28.65 -0.00017
28.7 -8e-05
28.75 -0.00019
28.8 -0.00017
28.85 -0.00037
28.9 -0.00041
28.95 -0.00034
29 -3e-04
29.05 -0.00023
29.1 -0.00021
29.15 -0.00023
29.2 -0.00023
29.25 -0.00015
29.3 -0.00023
29.35 -0.00026
29.4 -0.00027
29.45 -0.00014
29.5 -5e-05
29.55 0.00011
29.6 0.00032
29.65 0.00049
29.7 6e-04
29.75 0.00071
29.8 8e-04
29.85 0.00062
29.9 0.00032
29.95 2e-05
30 -0.00022
30.05 -0.00038
30.1 -0.00041
30.15 -0.00042
30.2 -0.00046
30.25 -0.00037
30.3 -0.00027
30.35 -0.00026
30.4 -0.00026
30.45 -0.00016
30.5 -7e-05
30.55 -0.00011
30.6 -0.00033
30.65 -0.00029
30.7 -0.00014
30.75 -0.00011
30.8 -1e-04
30.85 -2e-04
30.9 -0.00026
30.95 -0.00041
31 -0.00039
31.05 -0.00036
31.1 -0.00029
31.15 -0.00025
31.2 -0.00036
31.25 -0.00057
31.3 -0.00055
31.35 -0.00053
31.4 -4e-04
31.45 -2e-04
31.5 2e-05
31.55 0.00017
31.6 0.00015
31.65 0.00014
31.7 0.00015
31.75 5e-05
31.8 -0.00019
31.85 -0.00048
31.9 -0.00043
31.95 -0.00043
32 -0.00046
32.05 -0.00023
32.1 -0.00028
32.15 -0.00019
32.2 -0.00029
32.25 -0.00035
32.3 -5e-04
32.35 -6e-04
32.4 -6e-04
32.45 -0.00053
32.5 -0.00036
32.55 -9e-05
32.6 -3e-05
32.65 0.00026
32.7 0.00024
32.75 -3e-05
32.8 -0.00023
32.85 -0.00051
32.9 -0.00087
32.95 -0.00103
33 -9e-04
33.05 -0.00097
33.1 -0.00095
33.15 -0.00069
33.2 -0.00044
33.25 -0.00035
33.3 -0.00021
33.35 -0.00018
33.4 -0.00025
33.45 -4e-04
33.5 -5e-04
33.55 -0.00056
33.6 -0.00043
33.65 -0.00029
33.7 -0.00023
33.75 5e-05
33.8 0.00015
33.85 0.00028
33.9 0.00034
33.95 0.00045
34 0.00054
34.05 0.00044
34.1 3e-04
34.15 3e-04
34.2 0.00017
34.25 2e-05
34.3 3e-04
34.35 0.00022
34.4 4e-04
34.45 0.00055
34.5 0.00053
34.55 0.00041
34.6 4e-04
34.65 0.00035
34.7 0.00019
34.75 7e-05
34.8 -8e-05
34.85 -0.00018
34.9 -2e-05
34.95 3e-05
35 1e-05
35.05 0.00013
35.1 0.00034
35.15 0.00049
35.2 6e-04
35.25 0.00057
35.3 0.00052
35.35 0.00051
35.4 0.00053
35.45 0.00053
35.5 5e-04
35.55 0.00032
35.6 8e-05
35.65 -0.00013
35.7 -0.00023
35.75 -3e-04
35.8 -0.00052
35.85 -0.00071
35.9 -0.00084
35.95 -0.00077
36 -0.00075
36.05 -0.00069
36.1 -0.00073
36.15 -0.00074
36.2 -0.00078
36.25 -0.00074
36.3 -0.00067
36.35 -0.00044
36.4 -6e-05
36.45 0.00031
36.5 0.00073
36.55 0.00096
36.6 0.00112
36.65 0.0012
36.7 0.00127
36.75 0.00124
36.8 0.00112
36.85 0.00088
36.9 0.00077
36.95 0.00061
37 0.00043
37.05 0.00015
37.1 -8e-05
37.15 -0.00033
37.2 -0.00038
37.25 -0.00039
37.3 -0.00033
37.35 -0.00016
37.4 7e-05
37.45 6e-05
37.5 1e-05
37.55 5e-05
37.6 0
37.65 -4e-05
37.7 -0.00019
37.75 -0.00032
37.8 -0.00027
37.85 -0.00019
37.9 -0.00016
37.95 -0.00019
38 -0.00034
38.05 -0.00032
38.1 -0.00022
38.15 -1e-04
38.2 -2e-05
38.25 6e-05
38.3 0.00013
38.35 0.00023
38.4 0.00032
38.45 0.00029
38.5 1e-04
38.55 -8e-05
38.6 -8e-05
38.65 -0.00014
38.7 -0.00017
38.75 -0.00012
38.8 -0.00023
38.85 -0.00029
38.9 -0.00036
38.95 -0.00028
39 -7e-05
39.05 -1e-05
39.1 -5e-05
39.15 4e-05
39.2 0.00021
39.25 0.00012
39.3 -9e-05
39.35 -0.00013
39.4 -0.00015
39.45 -0.00018
39.5 -0.00015
39.55 -7e-05
39.6 1e-04
39.65 0.00025
39.7 2e-04
39.75 0.00022
39.8 1e-04
39.85 -2e-05
39.9 -8e-05
39.95 -0.00024
40 -0.00027
40.05 -0.00046
40.1 -0.00068
40.15 -0.00077
40.2 -0.00079
40.25 -6e-04
40.3 -0.00044
40.35 -0.00035
40.4 -1e-04
40.45 0.00018
40.5 0.00039
40.55 0.00036
40.6 0.00026
40.65 0.00015
40.7 0.00023
40.75 0.00021
40.8 3e-04
40.85 0.00034
40.9 0.00031
40.95 0.00027
41 0.00022
41.05 0.00023
41.1 3e-04
41.15 0.00051
41.2 0.00074
41.25 0.00068
41.3 0.00057
41.35 0.00044
41.4 0.00051
41.45 0.00046
41.5 5e-04
41.55 0.00042
41.6 0.00025
41.65 1e-04
41.7 4e-05
41.75 0
41.8 4e-05
41.85 0.00016
41.9 0
41.95 -6e-05
42 -1e-04
42.05 -0.00014
42.1 -0.00016
42.15 -0.00024
42.2 -3e-04
42.25 -0.00032
42.3 -0.00044
42.35 -0.00048
42.4 -0.00034
42.45 -0.00033
42.5 -0.00039
42.55 -0.00061
42.6 -8e-04
42.65 -0.00085
42.7 -0.00101
42.75 -0.00104
42.8 -0.00098
42.85 -0.00079
42.9 -0.00047
42.95 -0.00031
43 -1e-04
43.05 8e-05
43.1 0.00019
43.15 0.00027
43.2 0.00018
43.25 2e-05
43.3 -0.00018
43.35 -0.00021
43.4 -0.00034
43.45 -0.00052
43.5 -0.00064
43.55 -0.00069
43.6 -0.00078
43.65 -0.00064
43.7 -0.00036
43.75 -0.00024
43.8 -0.00033
43.85 -0.00053
43.9 -0.00078
43.95 -9e-04
44 -0.00085
44.05 -0.00075
44.1 -0.00072
44.15 -0.00071
44.2 -0.00075
44.25 -0.00071
44.3 -0.00069
44.35 -0.00053
44.4 -0.00056
44.45 -6e-04
44.5 -0.00083
44.55 -9e-04
44.6 -0.00092
44.65 -0.001
44.7 -0.00105
44.75 -0.00119
44.8 -0.00126
44.85 -0.00122
44.9 -0.00103
44.95 -0.00085
45 -6e-04
45.05 -0.00035
45.1 -0.00027
45.15 -0.00011
45.2 -0.00028
45.25 -0.00018
45.3 5e-05
45.35 0.00025
45.4 0.00061
45.45 0.00075
45.5 0.00068
45.55 0.00072
45.6 0.00073
45.65 0.00092
45.7 0.00105
45.75 0.001
45.8 0.00083
45.85 0.00059
45.9 0.00022
45.95 9e-05
46 -0.00019
46.05 -2e-04
46.1 -0.00022
46.15 -5e-05
46.2 7e-05
46.25 0.00013
46.3 -1e-05
46.35 7e-05
46.4 0.00034
46.45 0.00062
46.5 0.00078
46.55 0.00087
46.6 0.00089
46.65 0.00096
46.7 0.00082
46.75 0.00063
46.8 6e-04
46.85 5e-04
46.9 0.00027
46.95 0.00015
47 0.00018
47.05 0.00024
47.1 0.00018
47.15 2e-05
47.2 -1e-04
47.25 -0.00019
47.3 -0.00036
47.35 -0.00033
47.4 -0.00034
47.45 -0.00045
47.5 -0.00058
47.55 -0.00055
47.6 -0.00031
47.65 -2e-04
47.7 -0.00012
47.75 6e-05
47.8 0.00011
47.85 0.00018
47.9 0.00022
47.95 0.00018
48 1e-05
48.05 -0.00014
48.1 -0.00013
48.15 -0.00017
48.2 -0.00013
48.25 -0.00021
48.3 -0.00022
48.35 -9e-05
48.4 1e-05
48.45 -6e-05
48.5 -0.00025
48.55 -0.00029
48.6 -0.00033
48.65 -0.00033
48.7 -3e-04
48.75 -0.00036
48.8 -3e-04
48.85 -0.00027
48.9 -0.00018
48.95 -0.00026
49 -4e-04
49.05 -5e-04
49.1 -5e-04
49.15 -0.00066
49.2 -0.00062
49.25 -0.00047
49.3 -0.00026
49.35 -0.00013
49.4 -0.00013
49.45 -8e-05
49.5 -0.00013
49.55 -0.00015
49.6 -1e-04
49.65 -9e-05
49.7 0.00012
49.75 0.00019
49.8 0.00014
49.85 0.00015
49.9 0.00017
49.95 0.00041
50 0.00058
50.05 0.00066
50.1 0.00042
50.15 0.00024
50.2 0.00025
50.25 0.00019
50.3 7e-05
50.35 -0.00012
50.4 -0.00014
50.45 -0.00021
50.5 -0.00014
50.55 -7e-05
50.6 2e-05
50.65 -0.00022
50.7 -0.00024
50.75 -0.00025
50.8 -0.00038
50.85 -0.00027
50.9 -3e-04
50.95 -0.00028
51 -0.00011
51.05 -0.00012
51.1 -3e-05
51.15 4e-05
51.2 7e-05
51.25 0.00011
51.3 2e-04
51.35 0.00037
51.4 0.00058
51.45 0.00084
51.5 0.00083
51.55 0.00084
51.6 0.00082
51.65 0.00086
51.7 0.00093
51.75 0.00074
51.8 0.00062
51.85 0.00053
51.9 0.00043
51.95 0.00031
52 0.00022
52.05 -4e-05
52.1 -0.00012
52.15 -2e-04
52.2 -0.00033
52.25 -0.00047
52.3 -0.00032
52.35 -0.00017
52.4 2e-05
52.45 2e-04
52.5 0.00034
52.55 0.00038
52.6 0.00021
52.65 5e-05
52.7 0
52.75 -3e-05
52.8 5e-05
52.85 0.00026
52.9 0.00027
52.95 3e-04
53 3e-04
53.05 0.00014
53.1 1e-04
53.15 0.00023
53.2 0.00021
53.25 0.00014
53.3 0.00016
53.35 0.00011
53.4 9e-05
53.45 8e-05
53.5 0.00013
53.55 -2e-05
53.6 -2e-05
53.65 -1e-04
53.7 -0.00024
53.75 -0.00029
53.8 -0.00038
53.85 -0.00048
53.9 -0.00059
53.95 -7e-04
54 -0.00069
54.05 -0.00069
54.1 -0.00067
54.15 -0.00069
54.2 -0.00068
54.25 -0.00083
54.3 -8e-04
54.35 -0.00071
54.4 -0.00061
54.45 -0.00076
54.5 -0.00072
54.55 -0.00049
54.6 -0.00038
54.65 -2e-04
54.7 -8e-05
54.75 0.00021
54.8 0.00052
54.85 0.00047
54.9 4e-04
54.95 0.00029
55 0.00026
55.05 0.00013
55.1 0.00012
55.15 -6e-05
55.2 -0.00015
55.25 -0.00012
55.3 -4e-05
55.35 -1e-04
55.4 -0.00029
55.45 -0.00047
55.5 -0.00076
55.55 -0.00082
55.6 -0.00082
55.65 -0.00078
55.7 -0.001
55.75 -0.00113
55.8 -0.00115
55.85 -0.00106
55.9 -0.00067
55.95 -0.00041
56 -6e-05
56.05 -5e-05
56.1 4e-05
56.15 0.00016
56.2 0.00034
56.25 0.00041
56.3 0.00029
56.35 0.00032
56.4 0.00027
56.45 3e-04
56.5 0.00019
56.55 -1e-05
56.6 0.00012
56.65 4e-05
56.7 0
56.75 -0.00016
56.8 -3e-04
56.85 -2e-04
56.9 -0.00013
56.95 -3e-05
57 -0.00013
57.05 -0.00014
57.1 -2e-04
57.15 -0.00036
57.2 -0.00034
57.25 -4e-04
57.3 -0.00055
57.35 -0.00058
57.4 -0.00052
57.45 -0.00036
57.5 -0.00032
57.55 -0.00038
57.6 -0.00044
57.65 -0.00035
57.7 -0.00035
57.75 -5e-04
57.8 -0.00068
57.85 -0.00068
57.9 -0.00051
57.95 -0.00035
58 -0.00011
58.05 -4e-05
58.1 0.00017
58.15 0.00016
58.2 0.00011
58.25 -8e-05
58.3 -0.00041
58.35 -0.00052
58.4 -0.00052
58.45 -0.00054
58.5 -0.00061
58.55 -0.00059
58.6 -0.00048
58.65 -0.00053
58.7 -0.00044
58.75 -0.00042
58.8 -0.00044
58.85 -0.00042
58.9 -4e-04
58.95 -0.00019
59 -1e-04
59.05 4e-05
59.1 0.00026
59.15 0.00037
59.2 0.00038
59.25 0.00022
59.3 0.00029
59.35 3e-04
59.4 0.00032
59.45 0.00024
59.5 0.00024
59.55 2e-04
59.6 0.00031
59.65 0.00038
59.7 0.00031
59.75 0.00019
59.8 4e-05
59.85 9e-05
59.9 -1e-05
59.95 -0.00014
60 5e-05
60.05 8e-05
60.1 0.00021
60.15 0.00034
60.2 0.00043
60.25 0.00045
60.3 0.00062
60.35 0.00047
60.4 0.00023
60.45 0.00013
60.5 8e-05
60.55 0.00015
60.6 0.00034
60.65 0.00038
60.7 0.00024
60.75 1e-05
60.8 -0.00026
60.85 -0.00051
60.9 -0.00048
60.95 -7e-04
61 -0.00068
61.05 -0.00049
61.1 -0.00021
61.15 -4e-05
61.2 6e-05
61.25 -1e-04
61.3 -2e-04
61.35 -0.00023
61.4 -1e-04
61.45 -0.00015
61.5 -0.00035
61.55 -0.00035
61.6 -0.00041
61.65 -0.00032
61.7 -2e-05
61.75 0.00015
61.8 0.00028
61.85 0.00038
61.9 0.00037
61.95 0.00029
62 0.00036
62.05 0.00047
62.1 0.00051
62.15 0.00067
62.2 0.00062
62.25 6e-04
62.3 0.00047
62.35 0.00026
62.4 0.00014
62.45 8e-05
62.5 -4e-05
62.55 -6e-05
62.6 1e-04
62.65 0.00021
62.7 0.00011
62.75 0.00023
62.8 0.00024
62.85 1e-05
62.9 -2e-04
62.95 -0.00034
63 -0.00033
63.05 -4e-04
63.1 -0.00045
63.15 -0.00049
63.2 -0.00044
63.25 -0.00034
63.3 -0.00037
63.35 -0.00045
63.4 -5e-04
63.45 -0.00041
63.5 -0.00034
63.55 -0.00029
63.6 -0.00023
63.65 -0.00018
63.7 -0.00023
63.75 -0.00031
63.8 -3e-04
63.85 -5e-05
63.9 0.00016
63.95 0.00042
64 0.00058
64.05 0.00063
64.1 0.00052
64.15 0.00033
64.2 0.00039
64.25 0.00044
64.3 0.00029
64.35 0.00029
64.4 0.00044
64.45 0.00034
64.5 0.00014
64.55 6e-05
64.6 0.00015
64.65 0.00019
64.7 0.00021
64.75 0.00024
64.8 2e-04
64.85 0.00013
64.9 3e-04
64.95 1e-04
65 4e-05
65.05 -4e-05
65.1 -7e-05
65.15 0.00012
65.2 0.00035
65.25 0.00035
65.3 0.00026
65.35 4e-05
65.4 -0.00035
65.45 -0.00059
65.5 -0.00062
65.55 -0.00085
65.6 -0.00092
65.65 -0.00099
65.7 -0.00119
65.75 -0.00151
65.8 -0.0018
65.85 -0.00232
65.9 -0.00305
65.95 -0.00387
66 -0.0048
66.05 -0.0058
66.1 -0.00698
66.15 -0.00849
66.2 -0.01031
66.25 -0.0124
66.3 -0.01479
66.35 -0.01758
66.4 -0.02084
66.45 -0.02453
66.5 -0.02857
66.55 -0.03322
66.6 -0.0387
66.65 -0.045
66.7 -0.05234
66.75 -0.06048
66.8 -0.06952
66.85 -0.07941
66.9 -0.09024
66.95 -0.10231
67 -0.1155
67.05 -0.12987
67.1 -0.14534
67.15 -0.16195
67.2 -0.17965
67.25 -0.1984
67.3 -0.21828
67.35 -0.23863
67.4 -0.25973
67.45 -0.28112
67.5 -0.30283
67.55 -0.32464
67.6 -0.34621
67.65 -0.36719
67.7 -0.38734
67.75 -0.40632
67.8 -0.42407
67.85 -0.44021
67.9 -0.45447
67.95 -0.46651
68 -0.47579
68.05 -0.48261
68.1 -0.48632
68.15 -0.48673
68.2 -0.48417
68.25 -0.47805
68.3 -0.4685
68.35 -0.45588
68.4 -0.43976
68.45 -0.42057
68.5 -0.39851
68.55 -0.37369
68.6 -0.34652
68.65 -0.31712
68.7 -0.28606
68.75 -0.25355
68.8 -0.21989
68.85 -0.18533
68.9 -0.15048
68.95 -0.11559
69 -0.08092
69.05 -0.04676
69.1 -0.01364
69.15 0.01838
69.2 0.0491
69.25 0.07813
69.3 0.10576
69.35 0.1319
69.4 0.1565
69.45 0.17957
69.5 0.2009
69.55 0.22061
69.6 0.23882
69.65 0.25536
69.7 0.2704
69.75 0.28405
69.8 0.29642
69.85 0.30793
69.9 0.3184
69.95 0.32816
70 0.33704
70.05 0.34528
70.1 0.3528
70.15 0.35959
70.2 0.36569
70.25 0.37111
70.3 0.37586
70.35 0.37984
70.4 0.3834
70.45 0.38635
70.5 0.38871
70.55 0.39025
70.6 0.39099
70.65 0.39109
70.7 0.39056
70.75 0.38926
70.8 0.38733
70.85 0.38485
70.9 0.38187
70.95 0.3783
71 0.37409
71.05 0.36933
71.1 0.36404
71.15 0.35829
71.2 0.35189
71.25 0.34508
71.3 0.33791
71.35 0.33044
71.4 0.32264
71.45 0.3144
71.5 0.30582
71.55 0.29727
71.6 0.28848
71.65 0.27978
71.7 0.27084
71.75 0.26169
71.8 0.2525
71.85 0.24324
71.9 0.23393
71.95 0.22474
72 0.21573
72.05 0.2067
72.1 0.19762
72.15 0.1888
72.2 0.1801
72.25 0.17138
72.3 0.16309
72.35 0.15484
72.4 0.14681
72.45 0.13902
72.5 0.13149
72.55 0.12421
72.6 0.11685
72.65 0.10955
72.7 0.10235
72.75 0.09527
72.8 0.08831
72.85 0.08169
72.9 0.07512
72.95 0.06891
73 0.06283
73.05 0.05699
73.1 0.0512
73.15 0.04555
73.2 0.04025
73.25 0.0349
73.3 0.02983
73.35 0.02505
73.4 0.02025
73.45 0.01568
73.5 0.01142
73.55 0.00726
73.6 0.00305
73.65 -0.00117
73.7 -0.00522
73.75 -0.00926
73.8 -0.01296
73.85 -0.0164
73.9 -0.01979
73.95 -0.02303
74 -0.02594
74.05 -0.02876
74.1 -0.03136
74.15 -0.03374
74.2 -0.03606
74.25 -0.03835
74.3 -0.04048
74.35 -0.04241
74.4 -0.04429
74.45 -0.04612
74.5 -0.04779
74.55 -0.04913
74.6 -0.05045
74.65 -0.05162
74.7 -0.05288
74.75 -0.05397
74.8 -0.05489
74.85 -0.05578
74.9 -0.0566
74.95 -0.05742
75 -0.05809
75.05 -0.05853
75.1 -0.05896
75.15 -0.05942
75.2 -0.05972
75.25 -0.06006
75.3 -0.06036
75.35 -0.06071
75.4 -0.06079
75.45 -0.06075
75.5 -0.06067
75.55 -0.06058
75.6 -0.06027
75.65 -0.05982
75.7 -0.05942
75.75 -0.05908
75.8 -0.05891
75.85 -0.0589
75.9 -0.05859
75.95 -0.05823
76 -0.05781
76.05 -0.05746
76.1 -0.05712
76.15 -0.05672
76.2 -0.05617
76.25 -0.05553
76.3 -0.05494
76.35 -0.05421
76.4 -0.05343
76.45 -0.05273
76.5 -0.05199
76.55 -0.05136
76.6 -0.05087
76.65 -0.05037
76.7 -0.04987
76.75 -0.04918
76.8 -0.04842
76.85 -0.04758
76.9 -0.04686
76.95 -0.04636
77 -0.04591
77.05 -0.04519
77.1 -0.0445
77.15 -0.04395
77.2 -0.0432
77.25 -0.04253
77.3 -0.04185
77.35 -0.04128
77.4 -0.04094
77.45 -0.04071
77.5 -0.04013
77.55 -0.03954
77.6 -0.03892
77.65 -0.03827
77.7 -0.03778
77.75 -0.03715
77.8 -0.03666
77.85 -0.03625
77.9 -0.03582
77.95 -0.03543
78 -0.03493
78.05 -0.03436
78.1 -0.03384
78.15 -0.03336
78.2 -0.0328
78.25 -0.03237
78.3 -0.03187
78.35 -0.03142
78.4 -0.03103
78.45 -0.03064
78.5 -0.03023
78.55 -0.02964
78.6 -0.02889
78.65 -0.02816
78.7 -0.02732
78.75 -0.02651
78.8 -0.02599
78.85 -0.02559
78.9 -0.02513
78.95 -0.02481
79 -0.02435
79.05 -0.02397
79.1 -0.02373
79.15 -0.02348
79.2 -0.02335
79.25 -0.02327
79.3 -0.02297
79.35 -0.02278
79.4 -0.02225
79.45 -0.02164
79.5 -0.02109
79.55 -0.02071
79.6 -0.02048
79.65 -0.0204
79.7 -0.0203
79.75 -0.02019
79.8 -0.01997
79.85 -0.01965
79.9 -0.01926
79.95 -0.01901
80 -0.01884
80.05 -0.01864
80.1 -0.0182
80.15 -0.01779
80.2 -0.01743
80.25 -0.01705
80.3 -0.01681
80.35 -0.01648
80.4 -0.01616
80.45 -0.01595
80.5 -0.01565
80.55 -0.01553
80.6 -0.01514
80.65 -0.01473
80.7 -0.01439
80.75 -0.01409
80.8 -0.01375
80.85 -0.01354
80.9 -0.01337
80.95 -0.01296
81 -0.01272
81.05 -0.01257
81.1 -0.01246
81.15 -0.01238
81.2 -0.0124
81.25 -0.01239
81.3 -0.01248
81.35 -0.01231
81.4 -0.01202
81.45 -0.01186
81.5 -0.01183
81.55 -0.0117
81.6 -0.01143
81.65 -0.01118
81.7 -0.0111
81.75 -0.01101
81.8 -0.01082
81.85 -0.0107
81.9 -0.01041
81.95 -0.01016
82 -0.00993
82.05 -0.01002
82.1 -0.01012
82.15 -0.00997
82.2 -0.00977
82.25 -0.00978
82.3 -0.00955
82.35 -0.00934
82.4 -0.00909
82.45 -0.00877
82.5 -0.00841
82.55 -0.00803
82.6 -0.00775
82.65 -0.0076
82.7 -0.00754
82.75 -0.00774
82.8 -0.00772
82.85 -0.00766
82.9 -0.00747
82.95 -0.00747
83 -0.00729
83.05 -0.00718
83.1 -0.00706
83.15 -0.0069
83.2 -0.0068
83.25 -0.00682
83.3 -0.00687
83.35 -0.00692
83.4 -0.00705
83.45 -0.00717
83.5 -0.00737
83.55 -0.00757
83.6 -0.0074
83.65 -0.00707
83.7 -0.0067
83.75 -0.00645
83.8 -0.00618
83.85 -0.00582
83.9 -0.00544
83.95 -0.00521
84 -0.00525
84.05 -0.00514
84.1 -0.00508
84.15 -0.00507
84.2 -0.00496
84.25 -0.00488
84.3 -0.00471
84.35 -0.00464
84.4 -0.00456
84.45 -0.00457
84.5 -0.0046
84.55 -0.00455
84.6 -0.00446
84.65 -0.00439
84.7 -0.00418
84.75 -0.00373
84.8 -0.00333
84.85 -0.00325
84.9 -0.00338
84.95 -0.00342
85 -0.00351
85.05 -0.0036
85.1 -0.00348
85.15 -0.00331
85.2 -0.00321
85.25 -0.00314
85.3 -0.0032
85.35 -0.00313
85.4 -0.00299
85.45 -0.00304
85.5 -0.0032
85.55 -0.0033
85.6 -0.00335
85.65 -0.00337
85.7 -0.00314
85.75 -0.00317
85.8 -0.00322
85.85 -0.00302
85.9 -0.00284
85.95 -0.00242
86 -0.00217
86.05 -0.00209
86.1 -0.00212
86.15 -0.00222
86.2 -0.00221
86.25 -0.00229
86.3 -0.00249
86.35 -0.00263
86.4 -0.00276
86.45 -0.00264
86.5 -0.0024
86.55 -0.00219
86.6 -0.00208
86.65 -0.00202
86.7 -0.00193
86.75 -0.00176
86.8 -0.00177
86.85 -0.00168
86.9 -0.00168
86.95 -0.00163
87 -0.00167
87.05 -0.00183
87.1 -0.00205
87.15 -0.00226
87.2 -0.00231
87.25 -0.00227
87.3 -0.00206
87.35 -0.00201
87.4 -0.00188
87.45 -0.00174
87.5 -0.00149
87.55 -0.00124
87.6 -0.00109
87.65 -0.00097
87.7 -0.00096
87.75 -0.00089
87.8 -0.00107
87.85 -0.00123
87.9 -0.00152
87.95 -0.00174
88 -0.00196
88.05 -0.00209
88.1 -0.00205
88.15 -0.00199
88.2 -0.002
88.25 -0.00195
88.3 -0.00175
88.35 -0.00155
88.4 -0.00152
88.45 -0.00143
88.5 -0.00145
88.55 -0.00159
88.6 -0.00164
88.65 -0.00163
88.7 -0.00153
88.75 -0.00152
88.8 -0.0016
88.85 -0.00162
88.9 -0.00156
88.95 -0.00131
89 -0.00127
89.05 -0.00125
89.1 -0.00111
89.15 -0.00109
89.2 -0.00115
89.25 -0.00123
89.3 -0.00127
89.35 -0.00124
89.4 -9e-04
89.45 -0.00063
89.5 -5e-04
89.55 -0.00063
89.6 -0.00082
89.65 -0.00089
89.7 -0.00082
89.75 -0.00073
89.8 -0.00077
89.85 -0.00073
89.9 -0.00078
89.95 -0.00076
90 -8e-04
90.05 -0.00084
90.1 -0.00112
90.15 -0.00131
90.2 -0.00141
90.25 -0.00141
90.3 -0.00124
90.35 -0.0011
90.4 -0.00098
90.45 -0.00115
90.5 -0.00137
90.55 -0.00158
90.6 -0.00167
90.65 -0.00163
90.7 -0.00138
90.75 -0.00121
90.8 -0.00108
90.85 -0.00093
90.9 -0.00069
90.95 -0.00038
91 -2e-04
91.05 -0.00024
91.1 -3e-04
91.15 -3e-04
91.2 -0.00031
91.25 -0.00026
91.3 -1e-04
91.35 0.00014
91.4 0.00012
91.45 -0.00011
91.5 -0.00025
91.55 -0.00037
91.6 -0.00042
91.65 -0.00046
91.7 -0.00054
91.75 -0.00057
91.8 -6e-04
91.85 -0.00063
91.9 -0.00072
91.95 -0.00069
92 -0.00066
92.05 -0.00044
92.1 -4e-04
92.15 -0.00016
92.2 0
92.25 0.00021
92.3 0.00026
92.35 0.00033
92.4 0.00055
92.45 0.00075
92.5 0.00076
92.55 7e-04
92.6 0.00045
92.65 3e-04
92.7 0.00028
92.75 -2e-05
92.8 -0.00025
92.85 -0.00044
92.9 -6e-04
92.95 -0.00076
93 -0.00105
93.05 -0.00132
93.1 -0.00151
93.15 -0.00146
93.2 -0.00136
93.25 -0.001
93.3 -0.00056
93.35 -0.00031
93.4 -4e-05
93.45 0.00019
93.5 1e-04
93.55 2e-05
93.6 8e-05
93.65 0
93.7 -2e-05
93.75 -0.00016
93.8 -0.00042
93.85 -0.00054
93.9 -0.00046
93.95 -0.00027
94 -0.00018
94.05 -0.00027
94.1 -0.00035
94.15 -4e-04
94.2 -0.00046
94.25 -0.00055
94.3 -0.00039
94.35 -0.00039
94.4 -2e-04
94.45 -0.00015
94.5 -4e-05
94.55 -2e-04
94.6 -0.00026
94.65 -0.00056
94.7 -0.00092
94.75 -0.00101
94.8 -0.00093
94.85 -0.00078
94.9 -0.00058
94.95 -5e-04
95 -0.00026
95.05 -2e-04
95.1 -0.00011
95.15 -7e-05
95.2 6e-05
95.25 0.00032
95.3 0.00029
95.35 0.00034
95.4 2e-04
95.45 0.00017
95.5 5e-05
95.55 -0.00017
95.6 -0.00028
95.65 -0.00028
95.7 -0.00053
95.75 -0.00066
95.8 -0.00068
95.85 -0.00051
95.9 -0.00018
95.95 0.00012
96 0.00035
96.05 0.00029
96.1 0.00023
96.15 2e-04
96.2 0.00012
96.25 0.00016
96.3 1e-04
96.35 0.00017
96.4 0.00019
96.45 0.00011
96.5 2e-05
96.55 5e-05
96.6 9e-05
96.65 5e-05
96.7 -0.00013
96.75 -0.00019
96.8 1e-05
96.85 3e-04
96.9 0.00041
96.95 0.00021
97 -5e-05
97.05 -0.00017
97.1 -0.00017
97.15 -5e-05
97.2 -0.00014
97.25 -0.00027
97.3 -0.00048
97.35 -0.00065
97.4 -0.00071
97.45 -0.00076
97.5 -0.00075
97.55 -0.00067
97.6 -0.00053
97.65 -3e-04
97.7 -3e-05
97.75 6e-05
97.8 0.00031
97.85 0.00067
97.9 0.00089
97.95 0.00093
98 0.00084
98.05 0.00057
98.1 0.00016
98.15 -0.00013
98.2 -0.00046
98.25 -0.00076
98.3 -0.001
98.35 -0.00115
98.4 -0.00119
98.45 -0.00104
98.5 -0.00056
98.55 -0.00046
98.6 -5e-04
98.65 -0.00037
98.7 -0.00033
98.75 -0.00041
98.8 -0.00045
98.85 -0.00057
98.9 -0.00055
98.95 -5e-04
99 -0.00044
99.05 -0.00023
99.1 -0.00019
99.15 2e-05
99.2 0.00017
99.25 0.00045
99.3 0.00057
99.35 0.00081
99.4 9e-04
99.45 0.00097
99.5 0.00096
99.55 0.00075
99.6 0.00043
99.65 0.00032
99.7 9e-05
99.75 -0.00023
99.8 -5e-04
99.85 -0.00064
99.9 -0.00094
99.95 -0.0011
