0 0
0.05 0.00082
0.1 0.00208
0.15 0.00348
0.2 0.00458
0.25 0.0055
0.3 0.00626
0.35 0.0068
0.4 0.00708
0.45 0.00731
0.5 0.00753
0.55 0.00767
0.6 0.00784
0.65 0.00778
0.7 0.0076
0.75 0.00746
0.8 0.0074
0.85 0.00715
0.9 0.00693
0.95 0.00674
1 0.00644
1.05 0.00631
1.1 0.00615
1.15 0.0061
1.2 0.00593
1.25 0.00565
1.3 0.0056
1.35 0.00553
1.4 0.00544
1.45 0.00526
1.5 0.00522
1.55 0.00525
1.6 0.00522
1.65 0.00516
1.7 0.00514
1.75 0.00516
1.8 0.00509
1.85 0.00517
1.9 0.00518
1.95 0.00516
2 0.00503
2.05 0.00481
2.1 0.00493
2.15 0.00511
2.2 0.00504
2.25 0.00482
2.3 0.00461
2.35 0.00436
2.4 0.00399
2.45 0.00378
2.5 0.00363
2.55 0.00357
2.6 0.00357
2.65 0.00361
2.7 0.00351
2.75 0.00345
2.8 0.00349
2.85 0.00363
2.9 0.00366
2.95 0.00361
3 0.00357
3.05 0.00362
3.1 0.00363
3.15 0.00364
3.2 0.00348
3.25 0.00326
3.3 0.00295
3.35 0.00274
3.4 0.0025
3.45 0.00238
3.5 0.00228
3.55 0.0022
3.6 0.00223
3.65 0.00247
3.7 0.00271
3.75 0.00303
3.8 0.0031
3.85 0.00304
3.9 0.00287
3.95 0.0027
4 0.00265
4.05 0.00252
4.1 0.00233
4.15 0.00222
4.2 0.00209
4.25 0.00199
4.3 0.00188
4.35 0.00174
4.4 0.00164
4.45 0.00162
4.5 0.00166
4.55 0.00168
4.6 0.00173
4.65 0.00173
4.7 0.00166
4.75 0.00159
4.8 0.00156
4.85 0.00154
4.9 0.00156
4.95 0.00173
5 0.00176
5.05 0.00192
5.1 0.0019
5.15 0.00181
5.2 0.00153
5.25 0.00132
5.3 0.00121
5.35 0.00121
5.4 0.00142
5.45 0.00163
5.5 0.00183
5.55 0.00196
5.6 0.00216
5.65 0.00227
5.7 0.00243
5.75 0.00253
5.8 0.00254
5.85 0.00246
5.9 0.00229
5.95 0.00224
6 0.00221
6.05 0.0022
6.1 0.00201
6.15 0.00194
6.2 0.00187
6.25 0.00174
6.3 0.00161
6.35 0.00143
6.4 0.00116
6.45 0.00095
6.5 0.00072
6.55 6e-04
6.6 5e-04
6.65 0.00036
6.7 0.00031
6.75 0.00035
6.8 0.00048
6.85 0.00053
6.9 0.00054
6.95 5e-04
7 0.00052
7.05 5e-04
7.1 0.00051
7.15 0.00041
7.2 0.00031
7.25 3e-04
7.3 0.00034
7.35 0.00031
7.4 0.00039
7.45 0.00046
7.5 0.00052
7.55 0.00069
7.6 0.00102
7.65 0.00122
7.7 0.00128
7.75 0.00123
7.8 0.00116
7.85 0.00108
7.9 0.00099
7.95 0.00088
8 0.00074
8.05 0.00062
8.1 0.00053
8.15 0.00058
8.2 0.00048
8.25 0.00043
8.3 0.00026
8.35 3e-04
8.4 0.00033
8.45 0.00025
8.5 0.00028
8.55 0.00027
8.6 0.00029
8.65 0.00022
8.7 -1e-04
8.75 -0.00036
8.8 -0.00048
8.85 -0.00041
8.9 -0.00022
8.95 -8e-05
9 -2e-05
9.05 0.00014
9.1 0.00021
9.15 0.00021
9.2 0.00016
9.25 0.00011
9.3 -1e-05
9.35 2e-05
9.4 7e-05
9.45 1e-04
9.5 0.00013
9.55 0.00039
9.6 0.00061
9.65 0.00089
9.7 0.00096
9.75 0.00081
9.8 0.00059
9.85 0.00043
9.9 0.00035
9.95 0.00023
10 0.00024
10.05 0.00023
10.1 0.00039
10.15 5e-04
10.2 0.00069
10.25 0.00084
10.3 0.00089
10.35 0.00075
10.4 0.00051
10.45 0.00033
10.5 0.00033
10.55 0.00043
10.6 0.00071
10.65 0.00079
10.7 0.00069
10.75 0.00069
10.8 0.00057
10.85 0.00044
10.9 0.00038
10.95 0.00039
11 0.00032
11.05 0.00033
11.1 0.00052
11.15 0.00066
11.2 0.00078
11.25 0.00074
11.3 0.00049
11.35 3e-04
11.4 5e-05
11.45 -6e-05
11.5 -8e-05
11.55 -0.00013
11.6 -4e-05
11.65 -7e-05
11.7 0
11.75 -5e-05
11.8 3e-05
11.85 -1e-05
11.9 1e-04
11.95 0.00027
12 0.00034
12.05 0.00036
12.1 0.00031
12.15 0.00021
12.2 4e-05
12.25 5e-05
12.3 -4e-05
12.35 -0.00017
12.4 -0.00033
12.45 -2e-04
12.5 9e-05
12.55 3e-04
12.6 4e-04
12.65 0.00047
12.7 0.00069
12.75 0.00076
12.8 0.00071
12.85 0.00054
12.9 0.00041
12.95 0.00023
13 -7e-05
13.05 -0.00023
13.1 -0.00029
13.15 -0.00038
13.2 -0.00068
13.25 -0.00075
13.3 -0.00077
13.35 -0.00073
13.4 -5e-04
13.45 -0.00038
13.5 -0.00023
13.55 -7e-05
13.6 -5e-05
13.65 4e-05
13.7 0.00026
13.75 0.00049
13.8 0.00072
13.85 7e-04
13.9 0.00066
13.95 0.00036
14 0.00017
14.05 -3e-05
14.1 -0.00024
14.15 -0.00036
14.2 -0.00033
14.25 -0.00022
14.3 -0.00017
14.35 -0.00025
14.4 -0.00038
14.45 -0.00046
14.5 -0.00047
14.55 -0.00049
14.6 -3e-04
14.65 -0.00019
14.7 -0.00015
14.75 -0.00016
14.8 -2e-05
14.85 2e-05
14.9 -0.00022
14.95 -0.00054
15 -0.00048
15.05 -0.00024
15.1 -4e-05
15.15 2e-04
15.2 0.00048
15.25 0.00063
15.3 0.00074
15.35 0.00062
15.4 5e-04
15.45 0.00036
15.5 -4e-05
15.55 -0.00024
15.6 -0.00028
15.65 -0.00036
15.7 -0.00049
15.75 -0.00048
15.8 -0.00042
15.85 -0.00051
15.9 -0.00059
15.95 -0.00059
16 -0.00051
16.05 -0.00063
16.1 -0.00065
16.15 -0.00073
16.2 -7e-04
16.25 -6e-04
16.3 -0.00052
16.35 -0.00044
16.4 -0.00029
16.45 -5e-05
16.5 0.00012
16.55 0.00013
16.6 2e-04
16.65 4e-04
16.7 5e-04
16.75 0.00049
16.8 0.00053
16.85 0.00043
16.9 3e-04
16.95 0.00021
17 7e-05
17.05 8e-05
17.1 -2e-05
17.15 1e-05
17.2 -5e-05
17.25 3e-05
17.3 2e-05
17.35 0
17.4 1e-05
17.45 6e-05
17.5 0.00012
17.55 6e-05
17.6 0.00023
17.65 0.00033
17.7 0.00036
17.75 0.00033
17.8 0.00029
17.85 0.00026
17.9 0.00038
17.95 0.00047
18 0.00056
18.05 0.00046
18.1 0.00037
18.15 0.00042
18.2 0.00022
18.25 0.00015
18.3 9e-05
18.35 3e-05
18.4 0.00012
18.45 0.00013
18.5 1e-05
18.55 -1e-05
18.6 6e-05
18.65 0.00013
18.7 0.00018
18.75 0.00042
18.8 0.00049
18.85 6e-04
18.9 6e-04
18.95 6e-04
19 0.00046
19.05 0.00025
19.1 7e-05
19.15 -6e-05
19.2 -0.00018
19.25 -3e-04
19.3 -0.00034
19.35 -0.00053
19.4 -0.00058
19.45 -0.00051
19.5 -0.00039
19.55 -0.00029
19.6 -5e-05
19.65 0.00028
19.7 0.00026
19.75 0.00023
19.8 0.00019
19.85 0.00012
19.9 3e-05
19.95 -6e-05
20 -6e-05
20.05 -5e-05
20.1 0.00011
20.15 1e-05
20.2 4e-05
20.25 -8e-05
20.3 -0.00028
20.35 -0.00035
20.4 -0.00042
20.45 -0.00041
20.5 -0.00039
20.55 -4e-04
20.6 -0.00038
20.65 -0.00021
20.7 -0.00015
20.75 -1e-04
20.8 -2e-05
20.85 -5e-05
20.9 -1e-04
20.95 -0.00016
21 -1e-04
21.05 -1e-04
21.1 6e-05
21.15 8e-05
21.2 0.00014
21.25 0.00021
21.3 0.00016
21.35 0.00017
21.4 0.00011
21.45 7e-05
21.5 3e-05
21.55 -0.00019
21.6 -0.00015
21.65 -0.00022
21.7 -0.00022
21.75 -0.00034
21.8 -0.00032
21.85 -0.00024
21.9 -8e-05
21.95 6e-05
22 0.00026
22.05 0.00031
22.1 0.00016
22.15 0
22.2 -3e-05
22.25 9e-05
22.3 0.00033
22.35 0.00055
22.4 0.00064
22.45 0.00082
22.5 9e-04
22.55 0.00083
22.6 0.00073
22.65 0.00058
22.7 0.00034
22.75 0.00017
22.8 2e-05
22.85 -3e-05
22.9 -0.00017
22.95 -0.00015
23 -0.00011
23.05 -0.00022
23.1 -0.00022
23.15 -0.00028
23.2 -0.00024
23.25 -0.00024
23.3 -0.00035
23.35 -3e-04
23.4 -0.00012
23.45 0.00015
23.5 0.00026
23.55 0.00025
23.6 0.00032
23.65 0.00044
23.7 0.00025
23.75 0.00012
23.8 8e-05
23.85 0.00016
23.9 0.00016
23.95 0.00029
24 0.00023
24.05 0.00027
24.1 0.00028
24.15 0.00021
24.2 -2e-05
24.25 -0.00015
24.3 -0.00024
24.35 -0.00031
24.4 -0.00045
24.45 -0.00059
24.5 -0.00066
24.55 -0.00073
24.6 -0.00072
24.65 -0.00078
24.7 -0.00076
24.75 -0.00069
24.8 -0.00048
24.85 -0.00025
24.9 5e-05
24.95 0.00037
25 0.00045
25.05 0.00033
25.1 0.00014
25.15 -1e-05
25.2 -0.00015
25.25 -0.00014
25.3 -0.00019
25.35 -0.00023
25.4 -0.00026
25.45 -0.00026
25.5 -0.00027
25.55 -0.00021
25.6 -7e-05
25.65 -1e-04
25.7 -0.00011
25.75 -3e-05
25.8 1e-04
25.85 3e-04
25.9 0.00043
25.95 0.00053
26 0.00052
26.05 0.00037
26.1 0.00016
26.15 -1e-05
26.2 -7e-05
26.25 -0.00016
26.3 -0.00025
26.35 -0.00021
26.4 -2e-04
26.45 -0.00027
26.5 -0.00039
26.55 -0.00027
26.6 -0.00015
26.65 -8e-05
26.7 -3e-05
26.75 0.00015
26.8 0.00024
26.85 0.00027
26.9 0.00022
26.95 2e-04
27 3e-05
27.05 -0.00022
27.1 -0.00036
27.15 -0.00031
27.2 -2e-04
27.25 -8e-05
27.3 -3e-05
27.35 -1e-05
27.4 0.00016
27.45 0.00027
27.5 5e-04
27.55 0.00062
27.6 0.00062
27.65 0.00065
27.7 0.00058
27.75 4e-04
27.8 0.00026
27.85 0.00016
27.9 4e-05
27.95 9e-05
28 -2e-04
28.05 -0.00042
28.1 -5e-04
28.15 -0.00043
28.2 -0.00045
28.25 -0.00043
28.3 -0.00056
28.35 -0.00059
28.4 -0.00062
28.45 -0.00043
28.5 -0.00031
28.55 -0.00029
28.6 -0.00033
28.65 -0.00025
28.7 -0.00016
28.75 -0.00018
28.8 -0.00017
28.85 -0.00014
28.9 -2e-04
28.95 -0.00034
29 -0.00049
29.05 -0.00073
29.1 -0.00104
29.15 -0.00103
29.2 -8e-04
29.25 -4e-04
29.3 -3e-05
29.35 9e-05
29.4 0.00016
29.45 0.00024
29.5 0.00014
29.55 8e-05
29.6 3e-05
29.65 1e-05
29.7 6e-05
29.75 -6e-05
29.8 -2e-04
29.85 -0.00035
29.9 -0.00046
29.95 -0.00054
30 -0.00065
30.05 -0.00063
30.1 -0.00055
30.15 -0.00062
30.2 -0.00048
30.25 -0.00044
30.3 -4e-04
30.35 -0.00038
30.4 -0.00037
30.45 -0.00044
30.5 -0.00024
30.55 -0.00012
30.6 -1e-05
30.65 4e-05
30.7 0.00017
30.75 0.00036
30.8 0.00052
30.85 0.00046
30.9 0.00028
30.95 0.00022
31 0.00021
31.05 3e-04
31.1 0.00036
31.15 0.00022
31.2 0.00011
31.25 -6e-05
31.3 6e-05
31.35 5e-05
31.4 2e-05
31.45 3e-05
31.5 5e-05
31.55 9e-05
31.6 0.00018
31.65 0.00019
31.7 0.00029
31.75 0.00026
31.8 0.00023
31.85 0.00024
31.9 0.00027
31.95 0.00013
32 7e-05
32.05 -6e-05
32.1 -0.00014
32.15 -0.00013
32.2 -1e-05
32.25 0.00012
32.3 0.00019
32.35 5e-05
32.4 4e-05
32.45 0.00023
32.5 0.00041
32.55 0.00039
32.6 0.00033
32.65 0.00024
32.7 0.00016
32.75 5e-05
32.8 -9e-05
32.85 -5e-05
32.9 -0.00019
32.95 -0.00037
33 -0.00047
33.05 -5e-04
33.1 -0.00048
33.15 -0.00046
33.2 -0.00043
33.25 -0.00059
33.3 -0.00066
33.35 -0.00063
33.4 -0.00045
33.45 -0.00028
33.5 -0.00022
33.55 -0.00019
33.6 -3e-05
33.65 -8e-05
33.7 -0.00018
33.75 -0.00022
33.8 -2e-04
33.85 -2e-04
33.9 1e-05
33.95 0.00037
34 0.00058
34.05 0.00075
34.1 0.00085
34.15 0.00097
34.2 0.00092
34.25 0.00087
34.3 0.00073
34.35 0.00056
34.4 0.00043
34.45 0.00045
34.5 0.00041
34.55 3e-04
34.6 0.00017
34.65 -6e-05
34.7 -0.00013
34.75 -0.00029
34.8 -0.00029
34.85 -0.00029
34.9 -0.00042
34.95 -0.00052
35 -0.00061
35.05 -0.00066
35.1 -0.00073
35.15 -0.00071
35.2 -0.00065
35.25 -0.00075
35.3 -0.00075
35.35 -7e-04
35.4 -0.00057
35.45 -0.00037
35.5 -0.00024
35.55 -0.00016
35.6 -0.00013
35.65 -2e-04
35.7 -0.00026
35.75 -0.00013
35.8 -0.00016
35.85 -0.00021
35.9 -0.00022
35.95 -0.00012
36 -0.00014
36.05 -2e-04
36.1 -0.00012
36.15 -5e-05
36.2 4e-05
36.25 -8e-05
36.3 -8e-05
36.35 -8e-05
36.4 -0.00018
36.45 -0.00017
36.5 -0.00013
36.55 -8e-05
36.6 3e-05
36.65 8e-05
36.7 -0.00012
36.75 -0.00017
36.8 -0.00024
36.85 -0.00035
36.9 -0.00046
36.95 -0.00039
37 -0.00028
37.05 -0.00017
37.1 -0.00013
37.15 0.00013
37.2 5e-05
37.25 -7e-05
37.3 -0.00012
37.35 -0.00012
37.4 -0.00021
37.45 -0.00035
37.5 -0.00044
37.55 -0.00044
37.6 -0.00034
37.65 -0.00012
37.7 0.00016
37.75 0.00027
37.8 0.00019
37.85 0.00017
37.9 0.00017
37.95 0
38 -0.00013
38.05 -0.00018
38.1 -2e-04
38.15 -0.00015
38.2 -4e-05
38.25 9e-05
38.3 0.00015
38.35 0.00026
38.4 3e-04
38.45 1e-04
38.5 -1e-05
38.55 -0.00022
38.6 -0.00013
38.65 -1e-05
38.7 -1e-05
38.75 -0.00011
38.8 -5e-05
38.85 0.00011
38.9 0.00015
38.95 0.00026
39 0.00016
39.05 0.00013
39.1 0.00012
39.15 0.00013
39.2 0.00018
39.25 1e-04
39.3 9e-05
39.35 0.00013
39.4 0.00022
39.45 0.00035
39.5 0.00039
39.55 0.00029
39.6 0.00026
39.65 0.00027
39.7 0.00022
39.75 0.00012
39.8 7e-05
39.85 6e-05
39.9 5e-05
39.95 1e-04
40 0.00024
40.05 0.00034
40.1 0.00021
40.15 0.00024
40.2 0.00013
40.25 -8e-05
40.3 -0.00032
40.35 -0.00031
40.4 -3e-04
40.45 -3e-04
40.5 -0.00023
40.55 -0.00026
40.6 -0.00024
40.65 -0.00018
40.7 -0.00024
40.75 -0.00014
40.8 -0.00011
40.85 3e-05
40.9 7e-05
40.95 0.00023
41 4e-04
41.05 0.00047
41.1 0.00033
41.15 0.00041
41.2 0.00042
41.25 0.00046
41.3 0.00046
41.35 0.00024
41.4 -4e-05
41.45 -0.00016
41.5 -0.00033
41.55 -0.00032
41.6 -0.00025
41.65 -1e-04
41.7 -1e-04
41.75 -0.00014
41.8 -8e-05
41.85 -0.00011
41.9 -2e-04
41.95 -0.00044
42 -0.00047
42.05 -4e-04
42.1 -0.00038
42.15 -0.00033
42.2 -0.00042
42.25 -0.00034
42.3 -0.00028
42.35 -0.00011
42.4 -7e-05
42.45 1e-05
42.5 -1e-04
42.55 -0.00014
42.6 -0.00011
42.65 -0.00017
42.7 -1e-04
42.75 0
42.8 0.00016
42.85 0.00044
42.9 0.00063
42.95 0.00074
43 7e-04
43.05 0.00049
43.1 0.00041
43.15 2e-04
43.2 0.00018
43.25 0
43.3 -6e-05
43.35 -8e-05
43.4 -2e-04
43.45 -0.00019
43.5 -0.00032
43.55 -0.00034
43.6 -0.00027
43.65 -0.00032
43.7 -0.00037
43.75 -0.00037
43.8 -0.00042
43.85 -0.00065
43.9 -0.00087
43.95 -0.00086
44 -0.00049
44.05 -0.00014
44.1 -1e-05
44.15 0.00012
44.2 0.00032
44.25 0.00049
44.3 0.00049
44.35 0.00045
44.4 0.00036
44.45 0.00032
44.5 0.00018
44.55 0.00011
44.6 3e-05
44.65 -6e-05
44.7 1e-05
44.75 0.00018
44.8 0.00036
44.85 0.00043
44.9 0.00059
44.95 0.00071
45 0.00064
45.05 0.00058
45.1 0.00042
45.15 0.00021
45.2 -1e-05
45.25 -0.00017
45.3 -0.00028
45.35 -0.00044
45.4 -0.00065
45.45 -0.00061
45.5 -0.00056
45.55 -0.00057
45.6 -0.00062
45.65 -0.00056
45.7 -0.00047
45.75 -0.00041
45.8 -0.00046
45.85 -4e-04
45.9 -0.00028
45.95 -8e-05
46 8e-05
46.05 0.00015
46.1 0.00015
46.15 1e-05
46.2 7e-05
46.25 2e-05
46.3 -7e-05
46.35 -0.00018
46.4 -0.00037
46.45 -0.00048
46.5 -0.00049
46.55 -0.00058
46.6 -0.00073
46.65 -0.00084
46.7 -0.00095
46.75 -0.00104
46.8 -0.00111
46.85 -0.00126
46.9 -0.00126
46.95 -0.00104
47 -0.00077
47.05 -0.00054
47.1 -0.00038
47.15 -0.00015
47.2 8e-05
47.25 5e-05
47.3 0.00012
47.35 1e-05
47.4 -6e-05
47.45 -0.00011
47.5 8e-05
47.55 0.00017
47.6 7e-05
47.65 0.00016
47.7 0.00022
47.75 0.00022
47.8 0.00034
47.85 0.00056
47.9 0.00057
47.95 0.00056
48 0.00052
48.05 0.00038
48.1 0.00015
48.15 -1e-05
48.2 -0.00011
48.25 -0.00034
48.3 -0.00059
48.35 -0.00076
48.4 -6e-04
48.45 -0.00056
48.5 -0.00068
48.55 -0.00076
48.6 -0.00076
48.65 -7e-04
48.7 -0.00046
48.75 -0.00038
48.8 -0.00028
48.85 -6e-05
48.9 3e-05
48.95 0.00018
49 0.00025
49.05 0.00031
49.1 0.00039
49.15 0.00042
49.2 0.00039
49.25 0.00026
49.3 0.00026
49.35 0.00039
49.4 0.00055
49.45 6e-04
49.5 0.00053
49.55 0.00044
49.6 0.00013
49.65 -4e-05
49.7 -0.00013
49.75 -1e-04
49.8 -8e-05
49.85 -0.00015
49.9 -0.00015
49.95 -0.00011
50 -1e-04
50.05 4e-05
50.1 0.00014
50.15 6e-05
50.2 0.00015
50.25 8e-05
50.3 0.00014
50.35 5e-05
50.4 0.00015
50.45 0.00012
50.5 -2e-05
50.55 -0.00028
50.6 -0.00043
50.65 -0.00044
50.7 -0.00042
50.75 -0.00026
50.8 -2e-04
50.85 -0.00014
50.9 -0.00018
50.95 -0.00019
51 -0.00015
51.05 -5e-05
51.1 1e-04
51.15 0.00011
51.2 0.00018
51.25 0.00028
51.3 0.00037
51.35 0.00042
51.4 0.00043
51.45 0.00032
51.5 0.00022
51.55 0.00012
51.6 -8e-05
51.65 -0.00018
51.7 -2e-04
51.75 -0.00035
51.8 -0.00058
51.85 -0.00094
51.9 -0.00148
51.95 -0.00203
52 -0.00287
52.05 -0.00404
52.1 -0.00509
52.15 -0.00629
52.2 -0.00772
52.25 -0.00933
52.3 -0.01103
52.35 -0.01307
52.4 -0.0154
52.45 -0.01817
52.5 -0.02124
52.55 -0.0248
52.6 -0.02893
52.65 -0.03361
52.7 -0.03898
52.75 -0.04528
52.8 -0.05224
52.85 -0.05997
52.9 -0.06849
52.95 -0.07789
53 -0.08829
53.05 -0.09968
53.1 -0.11212
53.15 -0.12543
53.2 -0.13962
53.25 -0.1548
53.3 -0.17074
53.35 -0.1874
53.4 -0.20462
53.45 -0.22228
53.5 -0.24038
53.55 -0.25877
53.6 -0.27708
53.65 -0.29519
53.7 -0.31267
53.75 -0.32933
53.8 -0.345
53.85 -0.35952
53.9 -0.37263
53.95 -0.3841
54 -0.39345
54.05 -0.40066
54.1 -0.40553
54.15 -0.40752
54.2 -0.40681
54.25 -0.40341
54.3 -0.39726
54.35 -0.38823
54.4 -0.37634
54.45 -0.36185
54.5 -0.34481
54.55 -0.32543
54.6 -0.30376
54.65 -0.28027
54.7 -0.25507
54.75 -0.22838
54.8 -0.20056
54.85 -0.17197
54.9 -0.14291
54.95 -0.11365
55 -0.08456
55.05 -0.05596
55.1 -0.02811
55.15 -0.00109
55.2 0.02508
55.25 0.0502
55.3 0.07396
55.35 0.09631
55.4 0.11735
55.45 0.137
55.5 0.15524
55.55 0.17207
55.6 0.1874
55.65 0.20151
55.7 0.21445
55.75 0.22632
55.8 0.23698
55.85 0.24688
55.9 0.25601
55.95 0.26438
56 0.27221
56.05 0.27928
56.1 0.28587
56.15 0.29184
56.2 0.29723
56.25 0.30213
56.3 0.30662
56.35 0.31078
56.4 0.31445
56.45 0.31777
56.5 0.32074
56.55 0.3233
56.6 0.32506
56.65 0.32646
56.7 0.32712
56.75 0.32707
56.8 0.3264
56.85 0.32518
56.9 0.32333
56.95 0.32103
57 0.31809
57.05 0.31462
57.1 0.31057
57.15 0.30602
57.2 0.30093
57.25 0.29522
57.3 0.28914
57.35 0.2828
57.4 0.27618
57.45 0.26924
57.5 0.26206
57.55 0.25457
57.6 0.24698
57.65 0.23914
57.7 0.23131
57.75 0.22326
57.8 0.21526
57.85 0.2071
57.9 0.19906
57.95 0.19088
58 0.18283
58.05 0.17492
58.1 0.1672
58.15 0.15963
58.2 0.15232
58.25 0.14525
58.3 0.13834
58.35 0.13169
58.4 0.12498
58.45 0.11846
58.5 0.11205
58.55 0.10571
58.6 0.09949
58.65 0.09353
58.7 0.08765
58.75 0.08182
58.8 0.07629
58.85 0.07094
58.9 0.06595
58.95 0.06098
59 0.05625
59.05 0.05165
59.1 0.04695
59.15 0.04239
59.2 0.03795
59.25 0.03347
59.3 0.02912
59.35 0.02486
59.4 0.02086
59.45 0.01706
59.5 0.01335
59.55 0.00994
59.6 0.00656
59.65 0.00327
59.7 -5e-05
59.75 -0.00327
59.8 -0.00643
59.85 -0.00942
59.9 -0.01222
59.95 -0.015
60 -0.01756
60.05 -0.02008
60.1 -0.02257
60.15 -0.02492
60.2 -0.02707
60.25 -0.02902
60.3 -0.03095
60.35 -0.03274
60.4 -0.03452
60.45 -0.0361
60.5 -0.03751
60.55 -0.03897
60.6 -0.04028
60.65 -0.04167
60.7 -0.04297
60.75 -0.0442
60.8 -0.04519
60.85 -0.04601
60.9 -0.04675
60.95 -0.04749
61 -0.04806
61.05 -0.04848
61.1 -0.04884
61.15 -0.04909
61.2 -0.04938
61.25 -0.04959
61.3 -0.04972
61.35 -0.04968
61.4 -0.04973
61.45 -0.04993
61.5 -0.0499
61.55 -0.0501
61.6 -0.05019
61.65 -0.05021
61.7 -0.05021
61.75 -0.05021
61.8 -0.05011
61.85 -0.04997
61.9 -0.04966
61.95 -0.04927
62 -0.04874
62.05 -0.04823
62.1 -0.04775
62.15 -0.04736
62.2 -0.04695
62.25 -0.04659
62.3 -0.04622
62.35 -0.04577
62.4 -0.04519
62.45 -0.04471
62.5 -0.04423
62.55 -0.04363
62.6 -0.04306
62.65 -0.04241
62.7 -0.04179
62.75 -0.04135
62.8 -0.0409
62.85 -0.04051
62.9 -0.04008
62.95 -0.03971
63 -0.03919
63.05 -0.0387
63.1 -0.03815
63.15 -0.0375
63.2 -0.03684
63.25 -0.03616
63.3 -0.03551
63.35 -0.03501
63.4 -0.03466
63.45 -0.03433
63.5 -0.03396
63.55 -0.03344
63.6 -0.03314
63.65 -0.03267
63.7 -0.03224
63.75 -0.03179
63.8 -0.03135
63.85 -0.03072
63.9 -0.03001
63.95 -0.02933
64 -0.02879
64.05 -0.02826
64.1 -0.02782
64.15 -0.02735
64.2 -0.02695
64.25 -0.02662
64.3 -0.02627
64.35 -0.02587
64.4 -0.02529
64.45 -0.02499
64.5 -0.02481
64.55 -0.02445
64.6 -0.02402
64.65 -0.02363
64.7 -0.02326
64.75 -0.02293
64.8 -0.02266
64.85 -0.02227
64.9 -0.02182
64.95 -0.02122
65 -0.02067
65.05 -0.02022
65.1 -0.01988
65.15 -0.01959
65.2 -0.01945
65.25 -0.01949
65.3 -0.01962
65.35 -0.01967
65.4 -0.01963
65.45 -0.01932
65.5 -0.01892
65.55 -0.01852
65.6 -0.01826
65.65 -0.01788
65.7 -0.01745
65.75 -0.017
65.8 -0.01651
65.85 -0.01624
65.9 -0.01581
65.95 -0.01551
66 -0.01534
66.05 -0.01529
66.1 -0.01527
66.15 -0.01517
66.2 -0.01509
66.25 -0.01501
66.3 -0.01478
66.35 -0.01443
66.4 -0.01401
66.45 -0.01345
66.5 -0.01296
66.55 -0.0126
66.6 -0.01216
66.65 -0.01167
66.7 -0.01123
66.75 -0.01096
66.8 -0.01072
66.85 -0.01058
66.9 -0.01059
66.95 -0.01069
67 -0.0107
67.05 -0.01063
67.1 -0.01056
67.15 -0.0105
67.2 -0.01058
67.25 -0.01051
67.3 -0.01053
67.35 -0.01062
67.4 -0.01056
67.45 -0.01039
67.5 -0.01003
67.55 -0.00965
67.6 -0.00937
67.65 -0.00921
67.7 -0.00927
67.75 -0.00923
67.8 -0.00916
67.85 -0.00898
67.9 -0.00878
67.95 -0.0088
68 -0.00864
68.05 -0.00844
68.1 -0.00819
68.15 -0.00805
68.2 -0.00792
68.25 -0.00777
68.3 -0.0077
68.35 -0.00769
68.4 -0.00764
68.45 -0.00755
68.5 -0.0074
68.55 -0.00734
68.6 -0.00723
68.65 -0.00708
68.7 -0.0068
68.75 -0.00652
68.8 -0.00624
68.85 -0.00599
68.9 -0.00591
68.95 -0.0059
69 -0.00583
69.05 -0.00571
69.1 -0.00553
69.15 -0.00541
69.2 -0.00536
69.25 -0.00526
69.3 -0.00518
69.35 -0.00512
69.4 -0.00515
69.45 -0.00509
69.5 -0.00498
69.55 -0.00506
69.6 -0.00506
69.65 -0.00514
69.7 -0.00507
69.75 -0.00488
69.8 -0.00464
69.85 -0.00434
69.9 -0.004
69.95 -0.00385
70 -0.00386
70.05 -0.00388
70.1 -0.00397
70.15 -0.00398
70.2 -0.00391
70.25 -0.00394
70.3 -0.0039
70.35 -0.00385
70.4 -0.00389
70.45 -0.00387
70.5 -0.00382
70.55 -0.00381
70.6 -0.00385
70.65 -0.00382
70.7 -0.00381
70.75 -0.00371
70.8 -0.00355
70.85 -0.00339
70.9 -0.00314
70.95 -0.00317
71 -0.00323
71.05 -0.00321
71.1 -0.00308
71.15 -0.00291
71.2 -0.00263
71.25 -0.00257
71.3 -0.00271
71.35 -0.00296
71.4 -0.00305
71.45 -0.00308
71.5 -0.00323
71.55 -0.00333
71.6 -0.00335
71.65 -0.0034
71.7 -0.00319
71.75 -0.00307
71.8 -0.00286
71.85 -0.00274
71.9 -0.00255
71.95 -0.00251
72 -0.00241
72.05 -0.0022
72.1 -0.00195
72.15 -0.00177
72.2 -0.00158
72.25 -0.00145
72.3 -0.00152
72.35 -0.00147
72.4 -0.00158
72.45 -0.00172
72.5 -0.00194
72.55 -0.00203
72.6 -0.00218
72.65 -0.00228
72.7 -0.00242
72.75 -0.00236
72.8 -0.00226
72.85 -0.00211
72.9 -0.00202
72.95 -0.00179
73 -0.00167
73.05 -0.0016
73.1 -0.00157
73.15 -0.00148
73.2 -0.00142
73.25 -0.00153
73.3 -0.00163
73.35 -0.00172
73.4 -0.00173
73.45 -0.00164
73.5 -0.00157
73.55 -0.00152
73.6 -0.00162
73.65 -0.00174
73.7 -0.00182
73.75 -0.00196
73.8 -0.00211
73.85 -0.00225
73.9 -0.00238
73.95 -0.00241
74 -0.00232
74.05 -0.00208
74.1 -0.00173
74.15 -0.00148
74.2 -0.00119
74.25 -0.00108
74.3 -0.00097
74.35 -0.00081
74.4 -0.00081
74.45 -0.00089
74.5 -0.001
74.55 -0.00102
74.6 -0.00091
74.65 -9e-04
74.7 -8e-04
74.75 -0.00091
74.8 -0.00094
74.85 -0.00104
74.9 -0.00097
74.95 -9e-04
75 -0.00091
75.05 -0.00078
75.1 -0.00066
75.15 -0.00056
75.2 -6e-04
75.25 -0.00064
75.3 -0.00068
75.35 -0.00085
75.4 -0.00098
75.45 -0.00115
75.5 -0.00131
75.55 -0.00153
75.6 -0.00174
75.65 -0.00169
75.7 -0.0015
75.75 -0.00134
75.8 -0.00107
75.85 -0.00086
75.9 -0.00084
75.95 -0.00085
76 -0.00068
76.05 -0.00064
76.1 -0.00068
76.15 -0.00082
76.2 -0.00092
76.25 -0.00098
76.3 -0.00105
76.35 -0.00111
76.4 -0.00105
76.45 -0.00103
76.5 -0.00106
76.55 -0.00097
76.6 -0.00079
76.65 -0.00076
76.7 -0.00067
76.75 -0.00053
76.8 -0.00046
76.85 -0.00047
76.9 -0.00053
76.95 -0.00046
77 -0.00045
77.05 -0.00049
77.1 -0.00056
77.15 -0.00072
77.2 -0.00077
77.25 -0.00077
77.3 -0.00084
77.35 -0.00087
77.4 -0.00095
77.45 -0.001
77.5 -0.00082
77.55 -0.00061
77.6 -0.00071
77.65 -0.00073
77.7 -0.00074
77.75 -0.00045
77.8 -0.00023
77.85 -0.00026
77.9 -3e-04
77.95 -0.00029
78 -0.00031
78.05 -0.00034
78.1 -0.00045
78.15 -0.00059
78.2 -0.00074
78.25 -9e-04
78.3 -0.00086
78.35 -0.00082
78.4 -0.00065
78.45 -0.00042
78.5 -2e-04
78.55 -8e-05
78.6 -7e-05
78.65 -2e-04
78.7 -0.00031
78.75 -4e-04
78.8 -0.00047
78.85 -0.00064
78.9 -0.00075
78.95 -0.00074
79 -0.00063
79.05 -0.00057
79.1 -0.00055
79.15 -0.00063
79.2 -6e-04
79.25 -5e-04
79.3 -0.00041
79.35 -0.00052
79.4 -0.00064
79.45 -0.00063
79.5 -0.00072
79.55 -7e-04
79.6 -0.00081
79.65 -0.00071
79.7 -0.00073
79.75 -0.00074
79.8 -0.00071
79.85 -6e-04
79.9 -0.00045
79.95 -0.00043
80 -0.00047
80.05 -0.00038
80.1 -0.00029
80.15 -0.00034
80.2 -0.00045
80.25 -0.00033
80.3 -0.00032
80.35 -0.00018
80.4 -0.00015
80.45 -3e-05
80.5 3e-05
80.55 -3e-05
80.6 -0.00027
80.65 -4e-04
80.7 -0.00051
80.75 -0.00056
80.8 -0.00048
80.85 -0.00048
80.9 -0.00043
80.95 -0.00039
81 -0.00044
81.05 -0.00049
81.1 -0.00043
81.15 -0.00046
81.2 -0.00027
81.25 -0.00019
81.3 -2e-04
81.35 -1e-04
81.4 3e-05
81.45 1e-05
81.5 0.00011
81.55 0.00021
81.6 3e-04
81.65 0.00021
81.7 8e-05
81.75 4e-05
81.8 1e-05
81.85 -2e-05
81.9 3e-05
81.95 1e-05
82 -0.00015
82.05 -0.00043
82.1 -0.00057
82.15 -0.00058
82.2 -0.00046
82.25 -0.00046
82.3 -0.00069
82.35 -0.00071
82.4 -0.00063
82.45 -0.00043
82.5 -0.00017
82.55 0.00022
82.6 5e-04
82.65 0.00077
82.7 0.00083
82.75 8e-04
82.8 0.00058
82.85 0.00026
82.9 0.00015
82.95 7e-05
83 0.00011
83.05 0.00016
83.1 0.00021
83.15 0.00022
83.2 0.00023
83.25 0.00011
83.3 0
83.35 -0.00012
83.4 -0.00023
83.45 -0.00028
83.5 -0.00034
83.55 -0.00047
83.6 -0.00052
83.65 -0.00048
83.7 -0.00043
83.75 -0.00031
83.8 -0.00019
83.85 0
83.9 0.00029
83.95 6e-04
84 0.00069
84.05 0.00074
84.1 0.00063
84.15 0.00043
84.2 0.00031
84.25 0.00024
84.3 2e-05
84.35 3e-05
84.4 -7e-05
84.45 -2e-05
84.5 -0.00021
84.55 -0.00026
84.6 -0.00043
84.65 -4e-04
84.7 -0.00045
84.75 -0.00037
84.8 -3e-04
84.85 -0.00023
84.9 -0.00022
84.95 -0.00016
85 3e-05
85.05 0.00035
85.1 0.00042
85.15 0.00033
85.2 0.00024
85.25 1e-04
85.3 6e-05
85.35 4e-05
85.4 -0.00016
85.45 -0.00028
85.5 -4e-04
85.55 -6e-04
85.6 -0.00053
85.65 -0.00039
85.7 -0.00029
85.75 -0.00034
85.8 -0.00045
85.85 -0.00044
85.9 -0.00043
85.95 -0.00043
86 -0.00046
86.05 -0.00038
86.1 -0.00013
86.15 9e-05
86.2 1e-04
86.25 7e-05
86.3 0.00021
86.35 0.00032
86.4 0.00034
86.45 3e-04
86.5 0.00021
86.55 0.00018
86.6 0.00018
86.65 0.00017
86.7 0.00013
86.75 6e-05
86.8 -7e-05
86.85 -0.00015
86.9 -0.00021
86.95 -0.00024
87 -0.00027
87.05 -0.00032
87.1 -0.00025
87.15 -0.00013
87.2 -0.00022
87.25 -0.00015
87.3 -2e-04
87.35 -0.00029
87.4 -0.00038
87.45 -0.00045
87.5 -0.00059
87.55 -0.00044
87.6 -0.00038
87.65 -0.00051
87.7 -0.00068
87.75 -0.00097
87.8 -0.00109
87.85 -0.00101
87.9 -0.00088
87.95 -8e-04
88 -0.00072
88.05 -6e-04
88.1 -0.00058
88.15 -5e-04
88.2 -0.00028
88.25 -1e-05
88.3 0.00013
88.35 0.00013
88.4 -1e-05
88.45 4e-05
88.5 4e-05
88.55 -1e-04
88.6 -1e-04
88.65 1e-05
88.7 2e-05
88.75 -1e-05
88.8 5e-05
88.85 0.00014
88.9 0.00015
88.95 -3e-05
89 -0.00013
89.05 -7e-05
89.1 8e-05
89.15 0.00013
89.2 0.00023
89.25 0.00018
89.3 9e-05
89.35 -1e-04
89.4 -0.00015
89.45 -5e-05
89.5 -3e-05
89.55 0.00019
89.6 0.00032
89.65 0.00033
89.7 0.00053
89.75 0.00059
89.8 0.00057
89.85 0.00042
89.9 0.00038
89.95 0.00039
90 0.00038
90.05 0.00035
90.1 0.00028
90.15 0.00026
90.2 0.00032
90.25 0.00013
90.3 4e-05
90.35 0
90.4 -3e-05
90.45 -0.00014
90.5 -0.00022
90.55 -0.00035
90.6 -0.00044
90.65 -0.00047
90.7 -0.00053
90.75 -0.00044
90.8 -2e-04
90.85 -0.00012
90.9 -0.00014
90.95 -2e-04
91 -0.00027
91.05 -0.00026
91.1 -2e-05
91.15 0.00014
91.2 0.00023
91.25 0.00034
91.3 0.00039
91.35 3e-04
91.4 2e-05
91.45 -0.00022
91.5 -3e-04
91.55 -0.00015
91.6 -6e-05
91.65 4e-05
91.7 6e-05
91.75 -1e-05
91.8 -0.00012
91.85 -0.00012
91.9 -0.00013
91.95 -0.00023
92 -0.00035
92.05 -0.00041
92.1 -0.00045
92.15 -0.00033
92.2 -0.00031
92.25 -0.00053
92.3 -0.00061
92.35 -0.00051
92.4 -0.00053
92.45 -0.00054
92.5 -0.00049
92.55 -0.00046
92.6 -0.00043
92.65 -0.00031
92.7 -0.00048
92.75 -0.00043
92.8 -0.00058
92.85 -0.00063
92.9 -0.00066
92.95 -0.00063
93 -0.00053
93.05 -0.00033
93.1 -0.00021
93.15 -0.00015
93.2 -7e-05
93.25 -1e-05
93.3 0.00018
93.35 0.00036
93.4 0.00051
93.45 0.00061
93.5 0.00063
93.55 0.00052
93.6 0.00056
93.65 0.00045
93.7 0.00018
93.75 9e-05
93.8 -1e-04
93.85 -0.00025
93.9 -0.00024
93.95 -0.00034
94 -0.00035
94.05 -0.00032
94.1 -2e-04
94.15 -0.00023
94.2 -0.00028
94.25 -0.00026
94.3 -0.00022
94.35 -6e-05
94.4 -4e-05
94.45 0
94.5 0.00016
94.55 0.00013
94.6 0.00022
94.65 0.00015
94.7 0.00013
94.75 7e-05
94.8 -2e-05
94.85 -5e-05
94.9 8e-05
94.95 9e-05
95 7e-05
95.05 3e-05
95.1 9e-05
95.15 7e-05
95.2 8e-05
95.25 0.00011
95.3 0.00013
95.35 -1e-05
95.4 -0.00013
95.45 -0.00016
95.5 -0.00016
95.55 -0.00017
95.6 -0.00022
95.65 -0.00022
95.7 -0.00026
95.75 -0.00023
95.8 -0.00042
95.85 -0.00063
95.9 -0.00063
95.95 -0.00065
96 -0.00061
96.05 -0.00066
96.1 -0.00057
96.15 -0.00038
96.2 -0.00018
96.25 -0.00015
96.3 3e-05
96.35 0.00028
96.4 0.00041
96.45 4e-04
96.5 0.00021
96.55 8e-05
96.6 4e-05
96.65 0.00012
96.7 0.00012
96.75 4e-05
96.8 -6e-05
96.85 -0.00012
96.9 -0.00018
96.95 -0.00012
97 -0.00014
97.05 1e-05
97.1 1e-05
97.15 0.00026
97.2 0.00041
97.25 0.00061
97.3 0.00066
97.35 0.00062
97.4 0.00071
97.45 0.00052
97.5 0.00026
97.55 0
97.6 -0.00015
97.65 -3e-04
97.7 -0.00044
97.75 -0.00054
97.8 -0.00058
97.85 -0.00068
97.9 -0.00064
97.95 -0.00057
98 -0.00045
98.05 -0.00043
98.1 -0.00035
98.15 -0.00014
98.2 9e-05
98.25 0.00014
98.3 0.00024
98.35 0.00042
98.4 0.00047
98.45 0.00053
98.5 0.00041
98.55 2e-04
98.6 0.00014
98.65 -4e-05
98.7 -1e-04
98.75 -0.00024
98.8 -0.00032
98.85 -0.00018
98.9 -1e-04
98.95 0
99 2e-04
99.05 0.00037
99.1 0.00048
99.15 0.00054
99.2 0.00053
99.25 5e-04
99.3 0.00054
99.35 0.00059
99.4 0.00045
99.45 3e-04
99.5 0.00018
99.55 0.00019
99.6 0.00016
99.65 6e-05
99.7 -5e-05
99.75 -0.00015
99.8 -0.00014
99.85 1e-05
99.9 3e-05
99.95 0.00018
