0 0
0.05 0.00042
0.1 0.00114
0.15 0.00193
0.2 0.0026
0.25 0.00316
0.3 0.0036
0.35 0.00395
0.4 0.00414
0.45 0.00429
0.5 0.00448
0.55 0.00463
0.6 0.00476
0.65 0.00478
0.7 0.00481
0.75 0.00475
0.8 0.00464
0.85 0.00444
0.9 0.00428
0.95 0.00405
1 0.00386
1.05 0.00377
1.1 0.00369
1.15 0.0037
1.2 0.00367
1.25 0.00362
1.3 0.00354
1.35 0.00344
1.4 0.00342
1.45 0.0034
1.5 0.00337
1.55 0.00342
1.6 0.00334
1.65 0.00329
1.7 0.00324
1.75 0.00322
1.8 0.00323
1.85 0.00324
1.9 0.00324
1.95 0.00323
2 0.00325
2.05 0.00322
2.1 0.00312
2.15 0.003
2.2 0.00286
2.25 0.00278
2.3 0.0027
2.35 0.00263
2.4 0.00252
2.45 0.0025
2.5 0.00247
2.55 0.00247
2.6 0.00249
2.65 0.00245
2.7 0.00252
2.75 0.00255
2.8 0.00252
2.85 0.00242
2.9 0.00235
2.95 0.00226
3 0.00214
3.05 0.002
3.1 0.00192
3.15 0.00193
3.2 0.00196
3.25 0.00197
3.3 0.00189
3.35 0.00176
3.4 0.00168
3.45 0.00173
3.5 0.00169
3.55 0.00166
3.6 0.00175
3.65 0.00184
3.7 0.00188
3.75 0.00179
3.8 0.00164
3.85 0.00147
3.9 0.00133
3.95 0.00125
4 0.00116
4.05 0.0012
4.1 0.00125
4.15 0.00126
4.2 0.00129
4.25 0.00133
4.3 0.00131
4.35 0.00139
4.4 0.00133
4.45 0.00123
4.5 0.0011
4.55 0.00102
4.6 0.00098
4.65 0.00103
4.7 0.0012
4.75 0.00125
4.8 0.00129
4.85 0.00131
4.9 0.00132
4.95 0.00127
5 0.00113
5.05 0.00103
5.1 0.001
5.15 0.00101
5.2 9e-04
5.25 8e-04
5.3 0.00086
5.35 0.00089
5.4 0.00082
5.45 0.00076
5.5 0.00073
5.55 0.00071
5.6 0.00068
5.65 0.00061
5.7 0.00064
5.75 0.00068
5.8 0.00073
5.85 0.00085
5.9 8e-04
5.95 0.00082
6 0.00087
6.05 0.00091
6.1 0.00085
6.15 0.00072
6.2 0.00057
6.25 0.00046
6.3 0.00043
6.35 0.00056
6.4 0.00075
6.45 0.00094
6.5 0.00104
6.55 0.00102
6.6 0.00102
6.65 0.00092
6.7 0.00089
6.75 0.00074
6.8 7e-04
6.85 0.00063
6.9 0.00054
6.95 0.00053
7 5e-04
7.05 0.00042
7.1 0.00043
7.15 0.00054
7.2 0.00066
7.25 0.00081
7.3 0.00088
7.35 0.00101
7.4 0.00104
7.45 0.00096
7.5 0.00081
7.55 0.00068
7.6 0.00063
7.65 0.00058
7.7 0.00061
7.75 0.00056
7.8 0.00047
7.85 0.00044
7.9 0.00047
7.95 0.00048
8 0.00054
8.05 0.00049
8.1 0.00041
8.15 0.00032
8.2 0.00026
8.25 0.00032
8.3 4e-04
8.35 0.00042
8.4 0.00039
8.45 0.00047
8.5 0.00051
8.55 0.00052
8.6 0.00058
8.65 0.00055
8.7 0.00049
8.75 0.00047
8.8 0.00045
8.85 0.00036
8.9 0.00042
8.95 0.00045
9 0.00052
9.05 0.00058
9.1 0.00056
9.15 0.00044
9.2 0.00035
9.25 0.00029
9.3 0.00025
9.35 0.00022
9.4 0.00018
9.45 0.00018
9.5 0.00013
9.55 0.00011
9.6 0.00011
9.65 0.00014
9.7 2e-04
9.75 0.00023
9.8 0.00021
9.85 0.00018
9.9 0.00013
9.95 1e-04
10 0.00013
10.05 0.00018
10.1 0.00012
10.15 4e-05
10.2 2e-05
10.25 1e-04
10.3 8e-05
10.35 1e-04
10.4 3e-05
10.45 -5e-05
10.5 -7e-05
10.55 -1e-04
10.6 -4e-05
10.65 5e-05
10.7 0.00013
10.75 3e-05
10.8 4e-05
10.85 4e-05
10.9 4e-05
10.95 6e-05
11 6e-05
11.05 -3e-05
11.1 -0.00013
11.15 -0.00031
11.2 -0.00045
11.25 -0.00051
11.3 -0.00045
11.35 -0.00028
11.4 -0.00014
11.45 -1e-04
11.5 -1e-04
11.55 -0.00017
11.6 -0.00025
11.65 -0.00028
11.7 -0.00024
11.75 -1e-04
11.8 -5e-05
11.85 7e-05
11.9 0.00024
11.95 0.00029
12 0.00032
12.05 0.00037
12.1 0.00044
12.15 0.00047
12.2 0.00046
12.25 0.00047
12.3 0.00038
12.35 0.00029
12.4 0.00023
12.45 3e-04
12.5 3e-04
12.55 0.00024
12.6 3e-04
12.65 0.00035
12.7 0.00052
12.75 0.00053
12.8 5e-04
12.85 4e-04
12.9 0.00022
12.95 1e-05
13 -0.00021
13.05 -2e-04
13.1 -0.00013
13.15 -6e-05
13.2 -0.00012
13.25 -0.00015
13.3 -1e-04
13.35 -2e-05
13.4 -2e-05
13.45 0
13.5 4e-05
13.55 0.00014
13.6 0.00014
13.65 6e-05
13.7 -1e-05
13.75 -1e-05
13.8 -6e-05
13.85 0
13.9 3e-05
13.95 6e-05
14 6e-05
14.05 7e-05
14.1 1e-04
14.15 8e-05
14.2 6e-05
14.25 1e-05
14.3 -2e-05
14.35 -0.00014
14.4 -0.00019
14.45 -0.00019
14.5 -1e-04
14.55 -8e-05
14.6 -7e-05
14.65 -2e-05
14.7 4e-05
14.75 0.00014
14.8 0.00021
14.85 0.00034
14.9 0.00046
14.95 0.00051
15 0.00052
15.05 0.00042
15.1 0.00034
15.15 0.00019
15.2 2e-05
15.25 -4e-05
15.3 -4e-05
15.35 -9e-05
15.4 -0.00014
15.45 -0.00024
15.5 -0.00029
15.55 -0.00037
15.6 -0.00034
15.65 -0.00014
15.7 5e-05
15.75 9e-05
15.8 3e-05
15.85 7e-05
15.9 -6e-05
15.95 -1e-04
16 -7e-05
16.05 -0.00015
16.1 -2e-04
16.15 -0.00028
16.2 -0.00034
16.25 -0.00043
16.3 -0.00039
16.35 -0.00029
16.4 -0.00027
16.45 -3e-04
16.5 -0.00034
16.55 -0.00032
16.6 -0.00027
16.65 -0.00023
16.7 -0.00016
16.75 -0.00019
16.8 -0.00024
16.85 -0.00029
16.9 -0.00025
16.95 -2e-04
17 -0.00018
17.05 -8e-05
17.1 -2e-05
17.15 -3e-05
17.2 2e-05
17.25 2e-05
17.3 -1e-05
17.35 6e-05
17.4 6e-05
17.45 0.00014
17.5 0.00025
17.55 0.00021
17.6 0.00018
17.65 0.00025
17.7 0.00041
17.75 4e-04
17.8 0.00042
17.85 0.00039
17.9 0.00035
17.95 3e-04
18 0.00028
18.05 0.00037
18.1 0.00042
18.15 0.00039
18.2 0.00038
18.25 0.00043
18.3 0.00032
18.35 0.00024
18.4 0.00021
18.45 0.00021
18.5 0.00018
18.55 0.00014
18.6 0.00018
18.65 0.00017
18.7 0.00022
18.75 2e-04
18.8 0.00023
18.85 0.00027
18.9 0.00029
18.95 2e-04
19 2e-04
19.05 0.00022
19.1 0.00016
19.15 0.00014
19.2 1e-04
19.25 0.00011
19.3 7e-05
19.35 0.00019
19.4 0.00025
19.45 0.00018
19.5 0.00012
19.55 0.00016
19.6 0.00017
19.65 0.00019
19.7 0.00014
19.75 1e-04
19.8 -6e-05
19.85 -0.00022
19.9 -0.00034
19.95 -0.00045
20 -0.00038
20.05 -0.00029
20.1 -0.00019
20.15 -0.00011
20.2 -5e-05
20.25 -0.00011
20.3 -0.00019
20.35 -0.00028
20.4 -0.00036
20.45 -0.00033
20.5 -0.00022
20.55 -0.00018
20.6 -0.00019
20.65 -0.00019
20.7 -2e-04
20.75 -0.00028
20.8 -0.00034
20.85 -0.00039
20.9 -0.00039
20.95 -0.00024
21 -6e-05
21.05 -1e-05
21.1 3e-05
21.15 6e-05
21.2 6e-05
21.25 0.00012
21.3 1e-04
21.35 0.00014
21.4 0.00017
21.45 0.00013
21.5 0.00013
21.55 0.00011
21.6 0.00011
21.65 9e-05
21.7 8e-05
21.75 0.00018
21.8 0.00033
21.85 0.00044
21.9 0.00047
21.95 0.00048
22 0.00039
22.05 3e-04
22.1 0.00019
22.15 3e-05
22.2 -0.00012
22.25 -2e-04
22.3 -0.00025
22.35 -0.00028
22.4 -0.00022
22.45 -0.00018
22.5 -0.00012
22.55 -0.00012
22.6 -8e-05
22.65 -1e-04
22.7 -1e-04
22.75 -0.00014
22.8 -0.00018
22.85 -0.00014
22.9 -0.00011
22.95 -0.00011
23 -7e-05
23.05 0
23.1 -1e-05
23.15 -0.00012
23.2 -0.00013
23.25 -5e-05
23.3 -0.00015
23.35 -0.00021
23.4 -0.00025
23.45 -0.00024
23.5 -0.00021
23.55 -0.00017
23.6 -0.00021
23.65 -0.00015
23.7 -0.00017
23.75 -0.00018
23.8 -0.00025
23.85 -0.00037
23.9 -0.00044
23.95 -0.00048
24 -0.00054
24.05 -0.00045
24.1 -0.00034
24.15 -0.00014
24.2 -6e-05
24.25 -2e-05
24.3 7e-05
24.35 4e-05
24.4 7e-05
24.45 8e-05
24.5 5e-05
24.55 0.00015
24.6 0.00028
24.65 0.00038
24.7 0.00038
24.75 0.00037
24.8 0.00027
24.85 0.00019
24.9 0.00012
24.95 0.00013
25 0.00016
25.05 2e-04
25.1 3e-04
25.15 0.00035
25.2 0.00028
25.25 0.00023
25.3 0.00014
25.35 8e-05
25.4 1e-05
25.45 -0.00013
25.5 -0.00023
25.55 -0.00026
25.6 -0.00027
25.65 -0.00029
25.7 -0.00034
25.75 -0.00032
25.8 -0.00033
25.85 -2e-04
25.9 -0.00013
25.95 -6e-05
26 -5e-05
26.05 -2e-04
26.1 -0.00033
26.15 -0.00036
26.2 -0.00045
26.25 -0.00058
26.3 -0.00059
26.35 -0.00061
26.4 -0.00058
26.45 -0.00063
26.5 -0.00065
26.55 -0.00061
26.6 -0.00056
26.65 -0.00052
26.7 -0.00038
26.75 -0.00032
26.8 -0.00032
26.85 -0.00026
26.9 -0.00019
26.95 -1e-04
27 -4e-05
27.05 6e-05
27.1 0.00017
27.15 1e-04
27.2 1e-05
27.25 -1e-04
27.3 -0.00018
27.35 -0.00031
27.4 -0.00027
27.45 -0.00021
27.5 -0.00012
27.55 -3e-05
27.6 1e-04
27.65 0.00017
27.7 0.00013
27.75 4e-05
27.8 -6e-05
27.85 -0.00013
27.9 -0.00018
27.95 -0.00024
28 -0.00026
28.05 -0.00033
28.1 -0.00032
28.15 -0.00034
28.2 -0.00031
28.25 -0.00035
28.3 -0.00035
28.35 -0.00038
28.4 -0.00029
28.45 -0.00029
28.5 -0.00035
28.55 -0.00034
28.6 -0.00027
28.65 -0.00018
28.7 -9e-05
28.75 -2e-05
28.8 0.00012
28.85 0.00015
28.9 9e-05
28.95 8e-05
29 0.00014
29.05 0.00016
29.1 0.00017
29.15 0.00019
29.2 0.00016
29.25 0.00014
29.3 0.00013
29.35 0.00011
29.4 8e-05
29.45 0
29.5 0
29.55 -0.00011
29.6 -0.00012
29.65 -0.00022
29.7 -0.00015
29.75 -0.00015
29.8 -0.00012
29.85 2e-05
29.9 0.00017
29.95 0.00026
30 0.00038
30.05 0.00043
30.1 0.00033
30.15 0.00034
30.2 0.00041
30.25 0.00041
30.3 0.00038
30.35 0.00033
30.4 0.00034
30.45 4e-04
30.5 0.00037
30.55 0.00031
30.6 0.00023
30.65 0.00026
30.7 0.00022
30.75 0.00013
30.8 0.00018
30.85 0.00022
30.9 0.00012
30.95 -1e-05
31 -5e-05
31.05 -0.00011
31.1 -0.00016
31.15 -0.00023
31.2 -0.00021
31.25 -0.00022
31.3 -0.00021
31.35 -7e-05
31.4 -1e-05
31.45 -5e-05
31.5 -9e-05
31.55 -9e-05
31.6 -0.00011
31.65 -8e-05
31.7 -0.00014
31.75 -0.00013
31.8 -0.00013
31.85 -8e-05
31.9 2e-05
31.95 3e-05
32 -4e-05
32.05 -6e-05
32.1 -9e-05
32.15 -7e-05
32.2 -0.00013
32.25 -0.00022
32.3 -0.00018
32.35 1e-05
32.4 9e-05
32.45 1e-05
32.5 -0.00012
32.55 -0.00024
32.6 -0.00028
32.65 -0.00042
32.7 -0.00052
32.75 -0.00044
32.8 -0.00028
32.85 -0.00021
32.9 -0.00015
32.95 -0.00011
33 0
33.05 9e-05
33.1 0.00014
33.15 0.00011
33.2 0.00017
33.25 0.00016
33.3 8e-05
33.35 0.00016
33.4 0.00029
33.45 0.00039
33.5 0.00044
33.55 5e-04
33.6 0.00052
33.65 5e-04
33.7 0.00045
33.75 0.00041
33.8 0.00033
33.85 0.00022
33.9 7e-05
33.95 -5e-05
34 -0.00017
34.05 -0.00019
34.1 -0.00022
34.15 -0.00024
34.2 -3e-04
34.25 -0.00033
34.3 -0.00038
34.35 -4e-04
34.4 -0.00047
34.45 -0.00057
34.5 -0.00058
34.55 -0.00057
34.6 -0.00047
34.65 -0.00045
34.7 -0.00038
34.75 -0.00029
34.8 -0.00016
34.85 -0.00011
34.9 -2e-05
34.95 -4e-05
35 -7e-05
35.05 -0.00019
35.1 -0.00032
35.15 -0.00036
35.2 -0.00026
35.25 -6e-05
35.3 0.00014
35.35 0.00033
35.4 0.00042
35.45 0.00034
35.5 0.00031
35.55 3e-04
35.6 0.00026
35.65 0.00028
35.7 3e-04
35.75 0.00029
35.8 0.00026
35.85 2e-04
35.9 1e-04
35.95 -1e-05
36 -5e-05
36.05 -8e-05
36.1 -0.00015
36.15 -0.00012
36.2 -0.00012
36.25 -0.00024
36.3 -0.00032
36.35 -0.00033
36.4 -0.00027
36.45 -0.00022
36.5 -0.00027
36.55 -0.00025
36.6 -0.00017
36.65 -0.00022
36.7 -0.00023
36.75 -0.00023
36.8 -0.00021
36.85 -0.00012
36.9 -7e-05
36.95 0.00013
37 0.00024
37.05 0.00031
37.1 0.00044
37.15 0.00048
37.2 0.00039
37.25 0.00039
37.3 0.00033
37.35 0.00036
37.4 0.00036
37.45 0.00034
37.5 0.00026
37.55 0.00014
37.6 5e-05
37.65 -7e-05
37.7 -2e-05
37.75 1e-05
37.8 6e-05
37.85 0.00012
37.9 0
37.95 2e-05
38 7e-05
38.05 8e-05
38.1 8e-05
38.15 1e-04
38.2 8e-05
38.25 9e-05
38.3 7e-05
38.35 -0.00012
38.4 -0.00032
38.45 -0.00038
38.5 -0.00044
38.55 -0.00034
38.6 -0.00032
38.65 -0.00024
38.7 -0.00017
38.75 -0.00016
38.8 -2e-04
38.85 -0.00024
38.9 -0.00025
38.95 -0.00033
39 -0.00037
39.05 -0.00041
39.1 -0.00033
39.15 -0.00023
39.2 -0.00019
39.25 -4e-05
39.3 4e-05
39.35 0.00014
39.4 0.00011
39.45 4e-05
39.5 -1e-05
39.55 -4e-05
39.6 2e-05
39.65 -3e-05
39.7 -0.00014
39.75 -0.00021
39.8 -0.00027
39.85 -0.00025
39.9 -0.00032
39.95 -0.00032
40 -0.00033
40.05 -0.00036
40.1 -0.00033
40.15 -3e-04
40.2 -0.00015
40.25 -0.00012
40.3 -4e-05
40.35 1e-05
40.4 8e-05
40.45 0.00012
40.5 0.00018
40.55 0.00019
40.6 2e-04
40.65 0.00014
40.7 0.00011
40.75 0.00013
40.8 7e-05
40.85 -2e-05
40.9 -0.00013
40.95 -0.00014
41 -0.00011
41.05 -6e-05
41.1 -2e-05
41.15 -1e-04
41.2 -0.00014
41.25 -0.00026
41.3 -0.00036
41.35 -4e-04
41.4 -4e-04
41.45 -0.00044
41.5 -0.00045
41.55 -0.00033
41.6 -0.00024
41.65 -4e-05
41.7 0.00011
41.75 0.00033
41.8 0.00039
41.85 3e-04
41.9 0.00021
41.95 0.00019
42 0.00023
42.05 0.00013
42.1 0.00013
42.15 0.00012
42.2 0
42.25 -0.00013
42.3 -0.00043
42.35 -0.00079
42.4 -0.00101
42.45 -0.00127
42.5 -0.00148
42.55 -0.00168
42.6 -0.00192
42.65 -0.00237
42.7 -0.003
42.75 -0.0036
42.8 -0.00428
42.85 -0.00502
42.9 -0.00584
42.95 -0.00686
43 -0.00803
43.05 -0.00943
43.1 -0.01116
43.15 -0.01317
43.2 -0.01548
43.25 -0.0182
43.3 -0.02133
43.35 -0.0248
43.4 -0.02856
43.45 -0.03288
43.5 -0.03768
43.55 -0.04292
43.6 -0.04858
43.65 -0.05475
43.7 -0.06152
43.75 -0.06871
43.8 -0.07648
43.85 -0.08472
43.9 -0.0935
43.95 -0.1028
44 -0.11256
44.05 -0.12255
44.1 -0.13288
44.15 -0.14333
44.2 -0.15382
44.25 -0.1642
44.3 -0.17445
44.35 -0.1843
44.4 -0.19369
44.45 -0.20245
44.5 -0.21048
44.55 -0.21755
44.6 -0.22357
44.65 -0.22834
44.7 -0.23178
44.75 -0.23396
44.8 -0.23461
44.85 -0.23384
44.9 -0.2315
44.95 -0.2276
45 -0.22221
45.05 -0.21536
45.1 -0.2073
45.15 -0.1979
45.2 -0.18725
45.25 -0.17548
45.3 -0.16271
45.35 -0.14908
45.4 -0.13488
45.45 -0.12017
45.5 -0.10517
45.55 -0.09001
45.6 -0.0747
45.65 -0.05946
45.7 -0.04439
45.75 -0.02959
45.8 -0.01503
45.85 -0.00075
45.9 0.01298
45.95 0.02623
46 0.03918
46.05 0.05164
46.1 0.06351
46.15 0.0748
46.2 0.08563
46.25 0.09598
46.3 0.106
46.35 0.11561
46.4 0.12486
46.45 0.1336
46.5 0.142
46.55 0.14998
46.6 0.15772
46.65 0.16499
46.7 0.17174
46.75 0.17819
46.8 0.18434
46.85 0.18988
46.9 0.195
46.95 0.19955
47 0.20359
47.05 0.20712
47.1 0.21007
47.15 0.21245
47.2 0.21406
47.25 0.21503
47.3 0.2153
47.35 0.21488
47.4 0.21395
47.45 0.21254
47.5 0.21069
47.55 0.20838
47.6 0.2055
47.65 0.20224
47.7 0.19853
47.75 0.19443
47.8 0.18983
47.85 0.1849
47.9 0.17977
47.95 0.17451
48 0.16915
48.05 0.16372
48.1 0.15808
48.15 0.1524
48.2 0.14663
48.25 0.14099
48.3 0.13535
48.35 0.12982
48.4 0.12431
48.45 0.11887
48.5 0.11354
48.55 0.10845
48.6 0.10344
48.65 0.09868
48.7 0.09402
48.75 0.08942
48.8 0.08505
48.85 0.08076
48.9 0.07668
48.95 0.0727
49 0.06879
49.05 0.06514
49.1 0.06173
49.15 0.05843
49.2 0.05529
49.25 0.05216
49.3 0.04909
49.35 0.04605
49.4 0.04311
49.45 0.04027
49.5 0.03737
49.55 0.03457
49.6 0.03184
49.65 0.02921
49.7 0.02663
49.75 0.02426
49.8 0.02193
49.85 0.01966
49.9 0.01748
49.95 0.01538
50 0.01331
50.05 0.01124
50.1 0.00923
50.15 0.00726
50.2 0.00535
50.25 0.00354
50.3 0.00171
50.35 6e-05
50.4 -0.00155
50.45 -0.00302
50.5 -0.0044
50.55 -0.00582
50.6 -0.00725
50.65 -0.00873
50.7 -0.01019
50.75 -0.01162
50.8 -0.01303
50.85 -0.01433
50.9 -0.01552
50.95 -0.01669
51 -0.01775
51.05 -0.01861
51.1 -0.01942
51.15 -0.02023
51.2 -0.02099
51.25 -0.02177
51.3 -0.02244
51.35 -0.02302
51.4 -0.02372
51.45 -0.02436
51.5 -0.02493
51.55 -0.02549
51.6 -0.02609
51.65 -0.02655
51.7 -0.0269
51.75 -0.02713
51.8 -0.02737
51.85 -0.02761
51.9 -0.02791
51.95 -0.02822
52 -0.02849
52.05 -0.02864
52.1 -0.02884
52.15 -0.02906
52.2 -0.02924
52.25 -0.02933
52.3 -0.02939
52.35 -0.02932
52.4 -0.0291
52.45 -0.02893
52.5 -0.02874
52.55 -0.02854
52.6 -0.02847
52.65 -0.02836
52.7 -0.02826
52.75 -0.02798
52.8 -0.02764
52.85 -0.02745
52.9 -0.02724
52.95 -0.0271
53 -0.02694
53.05 -0.02667
53.1 -0.02636
53.15 -0.02601
53.2 -0.02566
53.25 -0.0254
53.3 -0.02508
53.35 -0.02487
53.4 -0.02464
53.45 -0.02439
53.5 -0.02411
53.55 -0.02381
53.6 -0.02353
53.65 -0.0233
53.7 -0.02305
53.75 -0.0227
53.8 -0.02236
53.85 -0.02199
53.9 -0.02167
53.95 -0.02129
54 -0.02093
54.05 -0.02053
54.1 -0.02018
54.15 -0.01984
54.2 -0.0195
54.25 -0.01922
54.3 -0.01891
54.35 -0.01865
54.4 -0.01845
54.45 -0.01827
54.5 -0.01814
54.55 -0.01795
54.6 -0.01772
54.65 -0.01753
54.7 -0.01735
54.75 -0.01724
54.8 -0.01705
54.85 -0.01671
54.9 -0.0164
54.95 -0.016
55 -0.01573
55.05 -0.01537
55.1 -0.0151
55.15 -0.0147
55.2 -0.01432
55.25 -0.01411
55.3 -0.0139
55.35 -0.0138
55.4 -0.01362
55.45 -0.01343
55.5 -0.01327
55.55 -0.01321
55.6 -0.01311
55.65 -0.01291
55.7 -0.01271
55.75 -0.01252
55.8 -0.01228
55.85 -0.012
55.9 -0.01177
55.95 -0.01152
56 -0.01135
56.05 -0.01122
56.1 -0.01103
56.15 -0.01099
56.2 -0.01097
56.25 -0.01097
56.3 -0.01087
56.35 -0.01076
56.4 -0.0106
56.45 -0.01048
56.5 -0.01032
56.55 -0.01
56.6 -0.0097
56.65 -0.00951
56.7 -0.00926
56.75 -0.00899
56.8 -0.00875
56.85 -0.00863
56.9 -0.00842
56.95 -0.00831
57 -0.00831
57.05 -0.00833
57.1 -0.00827
57.15 -0.00813
57.2 -0.00806
57.25 -0.00799
57.3 -0.00775
57.35 -0.00763
57.4 -0.00748
57.45 -0.00737
57.5 -0.00729
57.55 -0.00709
57.6 -0.00683
57.65 -0.00662
57.7 -0.00647
57.75 -0.00634
57.8 -0.00614
57.85 -0.006
57.9 -0.00595
57.95 -0.00597
58 -0.00592
58.05 -0.00584
58.1 -0.00575
58.15 -0.00572
58.2 -0.00575
58.25 -0.00583
58.3 -0.00583
58.35 -0.00581
58.4 -0.00569
58.45 -0.00543
58.5 -0.00519
58.55 -0.00495
58.6 -0.00482
58.65 -0.00476
58.7 -0.00468
58.75 -0.00458
58.8 -0.00457
58.85 -0.00472
58.9 -0.00477
58.95 -0.00482
59 -0.00476
59.05 -0.0047
59.1 -0.0046
59.15 -0.00456
59.2 -0.00453
59.25 -0.00446
59.3 -0.0044
59.35 -0.00423
59.4 -0.00408
59.45 -0.00402
59.5 -0.00396
59.55 -0.00378
59.6 -0.00352
59.65 -0.00338
59.7 -0.00323
59.75 -0.00315
59.8 -0.0032
59.85 -0.00321
59.9 -0.00317
59.95 -0.00313
60 -0.00305
60.05 -0.00301
60.1 -0.00305
60.15 -0.00309
60.2 -0.00313
60.25 -0.00313
60.3 -0.0031
60.35 -0.00307
60.4 -0.00301
60.45 -0.00295
60.5 -0.00285
60.55 -0.00267
60.6 -0.0026
60.65 -0.00261
60.7 -0.00257
60.75 -0.00255
60.8 -0.00257
60.85 -0.00258
60.9 -0.00259
60.95 -0.0026
61 -0.00266
61.05 -0.00267
61.1 -0.00267
61.15 -0.00254
61.2 -0.00238
61.25 -0.00222
61.3 -0.00206
61.35 -0.00194
61.4 -0.00182
61.45 -0.00178
61.5 -0.00176
61.55 -0.00168
61.6 -0.00163
61.65 -0.00164
61.7 -0.00167
61.75 -0.00179
61.8 -0.00181
61.85 -0.00179
61.9 -0.00171
61.95 -0.00158
62 -0.00154
62.05 -0.00157
62.1 -0.00159
62.15 -0.00155
62.2 -0.00155
62.25 -0.00158
62.3 -0.00155
62.35 -0.00153
62.4 -0.00153
62.45 -0.00152
62.5 -0.00159
62.55 -0.00158
62.6 -0.00156
62.65 -0.00151
62.7 -0.00153
62.75 -0.00141
62.8 -0.00137
62.85 -0.00139
62.9 -0.00141
62.95 -0.00136
63 -0.00133
63.05 -0.00133
63.1 -0.00125
63.15 -0.0012
63.2 -0.00118
63.25 -0.00112
63.3 -0.00112
63.35 -0.00115
63.4 -0.00114
63.45 -0.00119
63.5 -0.00124
63.55 -0.00132
63.6 -0.00132
63.65 -0.0013
63.7 -0.00124
63.75 -0.00114
63.8 -0.00108
63.85 -0.0011
63.9 -0.00111
63.95 -0.00109
64 -0.00097
64.05 -0.00091
64.1 -0.00085
64.15 -0.00082
64.2 -0.00077
64.25 -0.00074
64.3 -0.00073
64.35 -0.00068
64.4 -0.00062
64.45 -0.00056
64.5 -0.00048
64.55 -0.00045
64.6 -0.00058
64.65 -0.00077
64.7 -0.00081
64.75 -0.00085
64.8 -0.00075
64.85 -0.00074
64.9 -0.00076
64.95 -0.00079
65 -0.00078
65.05 -0.00069
65.1 -0.00068
65.15 -0.00061
65.2 -0.00057
65.25 -6e-04
65.3 -0.00059
65.35 -0.00058
65.4 -0.00055
65.45 -0.00049
65.5 -0.00036
65.55 -0.00018
65.6 -8e-05
65.65 -0.00011
65.7 -0.00017
65.75 -0.00016
65.8 -0.00023
65.85 -0.00019
65.9 -2e-04
65.95 -0.00021
66 -0.00025
66.05 -0.00022
66.1 -0.00021
66.15 -0.00027
66.2 -4e-04
66.25 -0.00055
66.3 -0.00055
66.35 -0.00063
66.4 -7e-04
66.45 -0.00065
66.5 -0.00063
66.55 -0.00056
66.6 -0.00048
66.65 -0.00034
66.7 -0.00017
66.75 -8e-05
66.8 0
66.85 -2e-05
66.9 -0.00013
66.95 -0.00027
67 -0.00028
67.05 -0.00036
67.1 -0.00042
67.15 -4e-04
67.2 -0.00033
67.25 -0.00039
67.3 -0.00046
67.35 -0.00053
67.4 -0.00054
67.45 -0.00053
67.5 -0.00054
67.55 -0.00052
67.6 -6e-04
67.65 -0.00069
67.7 -0.00089
67.75 -0.00101
67.8 -0.00098
67.85 -0.00093
67.9 -0.00087
67.95 -0.00085
68 -8e-04
68.05 -0.00082
68.1 -0.00073
68.15 -0.00052
68.2 -0.00035
68.25 -2e-04
68.3 -6e-05
68.35 -7e-05
68.4 -0.00011
68.45 -7e-05
68.5 3e-05
68.55 9e-05
68.6 5e-05
68.65 5e-05
68.7 5e-05
68.75 1e-05
68.8 -1e-05
68.85 -2e-05
68.9 -1e-05
68.95 -1e-04
69 -0.00026
69.05 -0.00032
69.1 -0.00036
69.15 -0.00043
69.2 -0.00051
69.25 -0.00061
69.3 -0.00073
69.35 -0.00073
69.4 -0.00069
69.45 -0.00062
69.5 -0.00052
69.55 -4e-04
69.6 -0.00036
69.65 -0.00039
69.7 -0.00053
69.75 -0.00053
69.8 -0.00053
69.85 -0.00055
69.9 -0.00051
69.95 -0.00048
70 -0.00041
70.05 -0.00027
70.1 -0.00026
70.15 -0.00024
70.2 -0.00013
70.25 -6e-05
70.3 2e-05
70.35 0.00011
70.4 0.00017
70.45 0.00022
70.5 0.00021
70.55 0.00018
70.6 0.00014
70.65 3e-05
70.7 1e-05
70.75 -1e-04
70.8 -0.00012
70.85 -9e-05
70.9 5e-05
70.95 9e-05
71 3e-05
71.05 1e-05
71.1 1e-05
71.15 -9e-05
71.2 -0.00012
71.25 -0.00011
71.3 3e-05
71.35 9e-05
71.4 0.00017
71.45 0.00017
71.5 2e-04
71.55 0.00028
71.6 0.00035
71.65 0.00025
71.7 0.00011
71.75 -2e-05
71.8 2e-05
71.85 1e-05
71.9 -1e-05
71.95 -1e-05
72 3e-05
72.05 -1e-04
72.1 -0.00016
72.15 -0.00019
72.2 -0.00018
72.25 -2e-04
72.3 -0.00014
72.35 -0.00016
72.4 -0.00016
72.45 -9e-05
72.5 -5e-05
72.55 4e-05
72.6 0.00015
72.65 0.00023
72.7 0.00018
72.75 0.00022
72.8 0.00031
72.85 0.00042
72.9 0.00047
72.95 0.00049
73 0.00036
73.05 0.00031
73.1 0.00024
73.15 5e-05
73.2 -0.00016
73.25 -3e-04
73.3 -0.00035
73.35 -0.00041
73.4 -4e-04
73.45 -0.00027
73.5 -0.00016
73.55 -8e-05
73.6 -6e-05
73.65 -2e-05
73.7 -1e-04
73.75 -0.00016
73.8 -0.00014
73.85 -0.00017
73.9 -0.00029
73.95 -0.00037
74 -0.00045
74.05 -0.00044
74.1 -0.00042
74.15 -0.00043
74.2 -0.00039
74.25 -0.00042
74.3 -0.00047
74.35 -0.00056
74.4 -0.00054
74.45 -0.00059
74.5 -0.00055
74.55 -0.00052
74.6 -0.00048
74.65 -0.00038
74.7 -0.00034
74.75 -0.00033
74.8 -3e-04
74.85 -0.00027
74.9 -0.00014
74.95 -5e-05
75 7e-05
75.05 0.00016
75.1 0.00023
75.15 0.00026
75.2 0.00027
75.25 3e-04
75.3 0.00026
75.35 0.00016
75.4 0
75.45 -0.00019
75.5 -0.00026
75.55 -0.00031
75.6 -0.00036
75.65 -0.00037
75.7 -0.00031
75.75 -0.00016
75.8 -7e-05
75.85 5e-05
75.9 8e-05
75.95 0.00012
76 2e-05
76.05 -4e-05
76.1 7e-05
76.15 0.00014
76.2 0.00021
76.25 0.00011
76.3 -2e-05
76.35 -9e-05
76.4 -1e-04
76.45 -7e-05
76.5 -3e-05
76.55 -0.00013
76.6 -0.00013
76.65 -0.00022
76.7 -0.00028
76.75 -0.00028
76.8 -2e-04
76.85 -1e-04
76.9 1e-05
76.95 2e-05
77 -3e-05
77.05 -0.00015
77.1 -0.00019
77.15 -0.00024
77.2 -0.00024
77.25 -0.00025
77.3 -0.00018
77.35 -0.00018
77.4 -1e-04
77.45 -0.00013
77.5 -0.00012
77.55 -0.00013
77.6 -1e-04
77.65 0
77.7 7e-05
77.75 0.00011
77.8 1e-04
77.85 1e-04
77.9 0.00012
77.95 0.00018
78 0.00023
78.05 0.00026
78.1 0.00018
78.15 -1e-05
78.2 -0.00016
78.25 -0.00024
78.3 -0.00028
78.35 -0.00033
78.4 -0.00034
78.45 -0.00044
78.5 -0.00034
78.55 -0.00031
78.6 -0.00029
78.65 -0.00027
78.7 -0.00021
78.75 -0.00015
78.8 -8e-05
78.85 -2e-05
78.9 1e-05
78.95 6e-05
79 0.00011
79.05 1e-04
79.1 8e-05
79.15 2e-05
79.2 2e-05
79.25 2e-05
79.3 0
79.35 -0.00012
79.4 -0.00018
79.45 -0.00019
79.5 -0.00016
79.55 -9e-05
79.6 0
79.65 8e-05
79.7 0.00016
79.75 0.00012
79.8 0.00016
79.85 0.00013
79.9 0
79.95 -0.00013
80 -0.00017
80.05 -0.00018
80.1 -1e-04
80.15 0
80.2 3e-05
80.25 6e-05
80.3 2e-05
80.35 -1e-05
80.4 -2e-05
80.45 -3e-05
80.5 -8e-05
80.55 -0.00021
80.6 -0.00024
80.65 -1e-04
80.7 4e-05
80.75 0.00011
80.8 0.00024
80.85 0.00028
80.9 0.00032
80.95 0.00037
81 0.00038
81.05 4e-04
81.1 0.00033
81.15 3e-04
81.2 0.00028
81.25 3e-04
81.3 0.00025
81.35 0.00025
81.4 0.00025
81.45 0.00022
81.5 0.00027
81.55 0.00035
81.6 3e-04
81.65 2e-04
81.7 0.00012
81.75 9e-05
81.8 0.00015
81.85 0.00011
81.9 1e-05
81.95 -3e-05
82 -1e-05
82.05 -7e-05
82.1 -0.00013
82.15 -0.00013
82.2 -1e-04
82.25 -6e-05
82.3 5e-05
82.35 9e-05
82.4 0.00013
82.45 1e-04
82.5 0
82.55 -3e-05
82.6 -2e-05
82.65 0
82.7 3e-05
82.75 0.00011
82.8 0.00016
82.85 2e-04
82.9 1e-04
82.95 -9e-05
83 -0.00025
83.05 -0.00036
83.1 -0.00038
83.15 -0.00043
83.2 -0.00052
83.25 -0.00052
83.3 -0.00052
83.35 -0.00047
83.4 -0.00038
83.45 -0.00027
83.5 -0.00016
83.55 -0.00013
83.6 -7e-05
83.65 -6e-05
83.7 -1e-05
83.75 -4e-05
83.8 -6e-05
83.85 -0.00012
83.9 -0.00026
83.95 -3e-04
84 -3e-04
84.05 -0.00027
84.1 -0.00031
84.15 -0.00047
84.2 -0.00056
84.25 -6e-04
84.3 -0.00056
84.35 -0.00055
84.4 -0.00057
84.45 -0.00054
84.5 -0.00054
84.55 -0.00051
84.6 -0.00053
84.65 -5e-04
84.7 -0.00046
84.75 -0.00042
84.8 -0.00033
84.85 -1e-04
84.9 0
84.95 0.00011
85 0.00018
85.05 0.00025
85.1 2e-04
85.15 0.00021
85.2 0.00024
85.25 0.00022
85.3 0.00018
85.35 2e-04
85.4 0.00024
85.45 0.00022
85.5 0.00016
85.55 0.00013
85.6 -1e-05
85.65 -2e-05
85.7 -7e-05
85.75 -1e-04
85.8 -3e-05
85.85 1e-04
85.9 1e-04
85.95 0.00012
86 9e-05
86.05 9e-05
86.1 0.00015
86.15 2e-04
86.2 0.00025
86.25 3e-04
86.3 0.00021
86.35 0.00017
86.4 0.00014
86.45 0.00011
86.5 2e-05
86.55 1e-05
86.6 -6e-05
86.65 -0.00016
86.7 -0.00019
86.75 -0.00024
86.8 -0.00029
86.85 -0.00023
86.9 -0.00014
86.95 -4e-05
87 -6e-05
87.05 -1e-04
87.1 -0.00011
87.15 -0.00018
87.2 -0.00023
87.25 -0.00018
87.3 -0.00019
87.35 -0.00027
87.4 -0.00026
87.45 -8e-05
87.5 -1e-05
87.55 0
87.6 -5e-05
87.65 -9e-05
87.7 -1e-04
87.75 -0.00011
87.8 -1e-04
87.85 -0.00017
87.9 -0.00022
87.95 -0.00017
88 -3e-05
88.05 0
88.1 0.00011
88.15 0.00021
88.2 0.00027
88.25 0.00025
88.3 0.00021
88.35 2e-04
88.4 0.00023
88.45 2e-04
88.5 0.00015
88.55 9e-05
88.6 -7e-05
88.65 -0.00023
88.7 -0.00042
88.75 -0.00058
88.8 -0.00065
88.85 -0.00069
88.9 -0.00067
88.95 -6e-04
89 -0.00052
89.05 -0.00047
89.1 -0.00041
89.15 -0.00035
89.2 -0.00015
89.25 0
89.3 8e-05
89.35 6e-05
89.4 4e-05
89.45 -4e-05
89.5 -0.00017
89.55 -0.00017
89.6 -0.00013
89.65 -7e-05
89.7 -5e-05
89.75 -1e-05
89.8 -3e-05
89.85 -0.00012
89.9 -0.00018
89.95 -0.00017
90 -0.00015
90.05 -7e-05
90.1 -3e-05
90.15 3e-05
90.2 -4e-05
90.25 -0.00013
90.3 -0.00012
90.35 -0.00015
90.4 -0.00012
90.45 -0.00012
90.5 -0.00012
90.55 -9e-05
90.6 -7e-05
90.65 -3e-05
90.7 1e-05
90.75 9e-05
90.8 0.00012
90.85 8e-05
90.9 9e-05
90.95 8e-05
91 7e-05
91.05 0.00023
91.1 0.00028
91.15 0.00027
91.2 0.00013
91.25 -3e-05
91.3 -0.00017
91.35 -0.00039
91.4 -0.00062
91.45 -0.00077
91.5 -0.00072
91.55 -0.00058
91.6 -0.00043
91.65 -0.00029
91.7 -0.00014
91.75 5e-05
91.8 0.00015
91.85 0.00017
91.9 0.00024
91.95 0.00031
92 0.00046
92.05 0.00049
92.1 0.00037
92.15 0.00021
92.2 1e-05
92.25 -0.00021
92.3 -0.00036
92.35 -4e-04
92.4 -0.00032
92.45 -2e-04
92.5 -7e-05
92.55 4e-05
92.6 4e-05
92.65 5e-05
92.7 2e-05
92.75 5e-05
92.8 8e-05
92.85 0
92.9 -6e-05
92.95 -9e-05
93 -0.00016
93.05 -0.00021
93.1 -0.00027
93.15 -0.00028
93.2 -0.00028
93.25 -9e-05
93.3 0
93.35 -3e-05
93.4 -4e-05
93.45 3e-05
93.5 -2e-05
93.55 -7e-05
93.6 -5e-05
93.65 -8e-05
93.7 -0.00011
93.75 -0.00018
93.8 -1e-04
93.85 1e-05
93.9 0.00011
93.95 0.00013
94 2e-04
94.05 2e-04
94.1 0.00013
94.15 7e-05
94.2 -6e-05
94.25 -0.00016
94.3 -2e-04
94.35 -0.00028
94.4 -0.00024
94.45 -0.00021
94.5 -0.00018
94.55 -0.00019
94.6 -0.00023
94.65 -0.00021
94.7 -0.00012
94.75 2e-05
94.8 0.00019
94.85 3e-04
94.9 0.00031
94.95 0.00025
95 0.00023
95.05 0.00013
95.1 0.00017
95.15 0.00023
95.2 0.00038
95.25 0.00046
95.3 5e-04
95.35 0.00048
95.4 0.00036
95.45 0.00026
95.5 0.00017
95.55 0.00016
95.6 7e-05
95.65 -0.00016
95.7 -0.00038
95.75 -0.00044
95.8 -0.00042
95.85 -0.00043
95.9 -0.00033
95.95 -0.00017
96 2e-05
96.05 1e-04
96.1 0.00017
96.15 0.00015
96.2 6e-05
96.25 0
96.3 -2e-05
96.35 -6e-05
96.4 0
96.45 -1e-05
96.5 -1e-05
96.55 4e-05
96.6 7e-05
96.65 2e-04
96.7 0.00035
96.75 0.00039
96.8 0.00043
96.85 0.00041
96.9 0.00028
96.95 0.00017
97 7e-05
97.05 5e-05
97.1 6e-05
97.15 -7e-05
97.2 -0.00017
97.25 -0.00023
97.3 -0.00031
97.35 -0.00043
97.4 -5e-04
97.45 -0.00043
97.5 -0.00037
97.55 -0.00027
97.6 -5e-05
97.65 5e-05
97.7 -2e-05
97.75 -1e-05
97.8 -1e-04
97.85 -0.00016
97.9 -1e-04
97.95 3e-05
98 1e-05
98.05 -4e-05
98.1 -0.00015
98.15 -0.00024
98.2 -0.00024
98.25 -0.00025
98.3 -0.00014
98.35 2e-05
98.4 0.00016
98.45 3e-04
98.5 4e-04
98.55 4e-04
98.6 0.00035
98.65 0.00023
98.7 0.00014
98.75 8e-05
98.8 4e-05
98.85 0.00017
98.9 0.00024
98.95 0.00026
99 0.00026
99.05 0.00032
99.1 0.00039
99.15 0.00042
99.2 0.00045
99.25 0.00052
99.3 0.00048
99.35 0.00036
99.4 3e-04
99.45 0.00021
99.5 1e-04
99.55 3e-05
99.6 -4e-05
99.65 -6e-05
99.7 -9e-05
99.75 -4e-05
99.8 -7e-05
99.85 -9e-05
99.9 -9e-05
99.95 -9e-05
