0 0
0.05 2e-05
0.1 4e-05
0.15 7e-05
0.2 0.00011
0.25 0.00014
0.3 0.00016
0.35 0.00017
0.4 0.00019
0.45 2e-04
0.5 0.00021
0.55 0.00022
0.6 0.00022
0.65 0.00022
0.7 0.00022
0.75 0.00021
0.8 0.00021
0.85 2e-04
0.9 0.00019
0.95 0.00018
1 0.00017
1.05 0.00017
1.1 0.00017
1.15 0.00018
1.2 0.00017
1.25 0.00017
1.3 0.00017
1.35 0.00017
1.4 0.00016
1.45 0.00016
1.5 0.00016
1.55 0.00016
1.6 0.00015
1.65 0.00015
1.7 0.00016
1.75 0.00016
1.8 0.00016
1.85 0.00015
1.9 0.00014
1.95 0.00013
2 0.00012
2.05 0.00013
2.1 0.00013
2.15 0.00014
2.2 0.00013
2.25 0.00013
2.3 0.00012
2.35 0.00012
2.4 0.00013
2.45 0.00013
2.5 0.00013
2.55 0.00012
2.6 0.00011
2.65 0.00011
2.7 0.00011
2.75 0.00011
2.8 0.00011
2.85 0.00011
2.9 0.00011
2.95 0.00011
3 9e-05
3.05 9e-05
3.1 8e-05
3.15 8e-05
3.2 8e-05
3.25 8e-05
3.3 9e-05
3.35 9e-05
3.4 9e-05
3.45 1e-04
3.5 1e-04
3.55 1e-04
3.6 9e-05
3.65 9e-05
3.7 8e-05
3.75 7e-05
3.8 7e-05
3.85 7e-05
3.9 6e-05
3.95 6e-05
4 5e-05
4.05 5e-05
4.1 5e-05
4.15 6e-05
4.2 6e-05
4.25 6e-05
4.3 6e-05
4.35 6e-05
4.4 6e-05
4.45 6e-05
4.5 6e-05
4.55 6e-05
4.6 6e-05
4.65 6e-05
4.7 6e-05
4.75 6e-05
4.8 6e-05
4.85 5e-05
4.9 4e-05
4.95 3e-05
5 3e-05
5.05 2e-05
5.1 2e-05
5.15 2e-05
5.2 2e-05
5.25 3e-05
5.3 3e-05
5.35 4e-05
5.4 4e-05
5.45 4e-05
5.5 5e-05
5.55 5e-05
5.6 5e-05
5.65 6e-05
5.7 6e-05
5.75 5e-05
5.8 4e-05
5.85 2e-05
5.9 0
5.95 0
6 -1e-05
6.05 -1e-05
6.1 -1e-05
6.15 0
6.2 0
6.25 1e-05
6.3 2e-05
6.35 2e-05
6.4 3e-05
6.45 4e-05
6.5 4e-05
6.55 4e-05
6.6 4e-05
6.65 3e-05
6.7 4e-05
6.75 4e-05
6.8 3e-05
6.85 3e-05
6.9 2e-05
6.95 2e-05
7 3e-05
7.05 4e-05
7.1 4e-05
7.15 5e-05
7.2 5e-05
7.25 5e-05
7.3 5e-05
7.35 5e-05
7.4 5e-05
7.45 4e-05
7.5 3e-05
7.55 2e-05
7.6 1e-05
7.65 0
7.7 0
7.75 0
7.8 0
7.85 0
7.9 0
7.95 0
8 1e-05
8.05 2e-05
8.1 3e-05
8.15 3e-05
8.2 3e-05
8.25 3e-05
8.3 2e-05
8.35 2e-05
8.4 2e-05
8.45 2e-05
8.5 1e-05
8.55 2e-05
8.6 3e-05
8.65 4e-05
8.7 4e-05
8.75 5e-05
8.8 5e-05
8.85 4e-05
8.9 4e-05
8.95 3e-05
9 3e-05
9.05 4e-05
9.1 4e-05
9.15 6e-05
9.2 6e-05
9.25 5e-05
9.3 5e-05
9.35 5e-05
9.4 4e-05
9.45 4e-05
9.5 4e-05
9.55 3e-05
9.6 3e-05
9.65 3e-05
9.7 3e-05
9.75 1e-05
9.8 0
9.85 0
9.9 0
9.95 1e-05
10 1e-05
10.05 1e-05
10.1 2e-05
10.15 3e-05
10.2 4e-05
10.25 5e-05
10.3 5e-05
10.35 5e-05
10.4 5e-05
10.45 5e-05
10.5 3e-05
10.55 3e-05
10.6 1e-05
10.65 0
10.7 -1e-05
10.75 -2e-05
10.8 -2e-05
10.85 -3e-05
10.9 -3e-05
10.95 -3e-05
11 -3e-05
11.05 -2e-05
11.1 -1e-05
11.15 -1e-05
11.2 0
11.25 1e-05
11.3 0
11.35 1e-05
11.4 1e-05
11.45 0
11.5 -1e-05
11.55 -2e-05
11.6 -1e-05
11.65 0
11.7 1e-05
11.75 1e-05
11.8 1e-05
11.85 1e-05
11.9 0
11.95 -1e-05
12 -2e-05
12.05 -2e-05
12.1 -2e-05
12.15 -1e-05
12.2 0
12.25 0
12.3 0
12.35 0
12.4 1e-05
12.45 1e-05
12.5 1e-05
12.55 2e-05
12.6 2e-05
12.65 2e-05
12.7 3e-05
12.75 3e-05
12.8 3e-05
12.85 3e-05
12.9 3e-05
12.95 4e-05
13 4e-05
13.05 3e-05
13.1 2e-05
13.15 1e-05
13.2 0
13.25 -2e-05
13.3 -3e-05
13.35 -4e-05
13.4 -3e-05
13.45 -3e-05
13.5 -3e-05
13.55 -2e-05
13.6 -1e-05
13.65 0
13.7 0
13.75 0
13.8 1e-05
13.85 0
13.9 0
13.95 -1e-05
14 -1e-05
14.05 -2e-05
14.1 -2e-05
14.15 -2e-05
14.2 0
14.25 0
14.3 1e-05
14.35 1e-05
14.4 2e-05
14.45 2e-05
14.5 2e-05
14.55 1e-05
14.6 1e-05
14.65 1e-05
14.7 1e-05
14.75 1e-05
14.8 1e-05
14.85 -1e-05
14.9 -1e-05
14.95 -1e-05
15 -2e-05
15.05 -1e-05
15.1 -1e-05
15.15 -1e-05
15.2 0
15.25 1e-05
15.3 2e-05
15.35 3e-05
15.4 3e-05
15.45 4e-05
15.5 4e-05
15.55 5e-05
15.6 5e-05
15.65 4e-05
15.7 2e-05
15.75 2e-05
15.8 2e-05
15.85 1e-05
15.9 -1e-05
15.95 0
16 0
16.05 -1e-05
16.1 -1e-05
16.15 0
16.2 1e-05
16.25 1e-05
16.3 1e-05
16.35 0
16.4 0
16.45 0
16.5 -1e-05
16.55 -1e-05
16.6 -1e-05
16.65 -1e-05
16.7 0
16.75 1e-05
16.8 1e-05
16.85 1e-05
16.9 0
16.95 -1e-05
17 -1e-05
17.05 -1e-05
17.1 -1e-05
17.15 -1e-05
17.2 -1e-05
17.25 -1e-05
17.3 -1e-05
17.35 0
17.4 -1e-05
17.45 0
17.5 -1e-05
17.55 -1e-05
17.6 -2e-05
17.65 -2e-05
17.7 -3e-05
17.75 -3e-05
17.8 -2e-05
17.85 -2e-05
17.9 -3e-05
17.95 -4e-05
18 -4e-05
18.05 -3e-05
18.1 -1e-05
18.15 1e-05
18.2 2e-05
18.25 3e-05
18.3 4e-05
18.35 4e-05
18.4 3e-05
18.45 3e-05
18.5 2e-05
18.55 3e-05
18.6 2e-05
18.65 1e-05
18.7 -1e-05
18.75 -1e-05
18.8 -2e-05
18.85 -1e-05
18.9 -2e-05
18.95 -1e-05
19 -1e-05
19.05 0
19.1 1e-05
19.15 1e-05
19.2 2e-05
19.25 3e-05
19.3 3e-05
19.35 3e-05
19.4 2e-05
19.45 2e-05
19.5 2e-05
19.55 2e-05
19.6 2e-05
19.65 2e-05
19.7 2e-05
19.75 2e-05
19.8 2e-05
19.85 3e-05
19.9 3e-05
19.95 2e-05
20 2e-05
20.05 0
20.1 -2e-05
20.15 -2e-05
20.2 -2e-05
20.25 -2e-05
20.3 -2e-05
20.35 -2e-05
20.4 -2e-05
20.45 -1e-05
20.5 -1e-05
20.55 0
20.6 1e-05
20.65 2e-05
20.7 1e-05
20.75 1e-05
20.8 1e-05
20.85 0
20.9 0
20.95 0
21 1e-05
21.05 0
21.1 0
21.15 1e-05
21.2 1e-05
21.25 0
21.3 -1e-05
21.35 -1e-05
21.4 -2e-05
21.45 -2e-05
21.5 -2e-05
21.55 -2e-05
21.6 -2e-05
21.65 -2e-05
21.7 -2e-05
21.75 -1e-05
21.8 -1e-05
21.85 -1e-05
21.9 -1e-05
21.95 -1e-05
22 -1e-05
22.05 -1e-05
22.1 -2e-05
22.15 -3e-05
22.2 -3e-05
22.25 -3e-05
22.3 -1e-05
22.35 -1e-05
22.4 -1e-05
22.45 -1e-05
22.5 -1e-05
22.55 -1e-05
22.6 -1e-05
22.65 -1e-05
22.7 -1e-05
22.75 -2e-05
22.8 -2e-05
22.85 -3e-05
22.9 -3e-05
22.95 -3e-05
23 -3e-05
23.05 -3e-05
23.1 -3e-05
23.15 -2e-05
23.2 -2e-05
23.25 -2e-05
23.3 -2e-05
23.35 -2e-05
23.4 -2e-05
23.45 -1e-05
23.5 0
23.55 0
23.6 1e-05
23.65 1e-05
23.7 1e-05
23.75 0
23.8 -1e-05
23.85 -2e-05
23.9 -2e-05
23.95 -3e-05
24 -2e-05
24.05 -1e-05
24.1 0
24.15 0
24.2 -1e-05
24.25 -1e-05
24.3 -2e-05
24.35 -2e-05
24.4 -2e-05
24.45 -1e-05
24.5 -1e-05
24.55 0
24.6 1e-05
24.65 1e-05
24.7 0
24.75 -1e-05
24.8 -1e-05
24.85 -2e-05
24.9 -2e-05
24.95 -1e-05
25 -2e-05
25.05 -1e-05
25.1 -1e-05
25.15 0
25.2 0
25.25 1e-05
25.3 0
25.35 -1e-05
25.4 -1e-05
25.45 -1e-05
25.5 -1e-05
25.55 0
25.6 0
25.65 0
25.7 1e-05
25.75 1e-05
25.8 1e-05
25.85 0
25.9 0
25.95 -1e-05
26 0
26.05 0
26.1 0
26.15 0
26.2 -1e-05
26.25 -1e-05
26.3 -1e-05
26.35 -1e-05
26.4 -1e-05
26.45 -1e-05
26.5 -1e-05
26.55 -1e-05
26.6 -1e-05
26.65 -1e-05
26.7 -1e-05
26.75 -1e-05
26.8 -1e-05
26.85 0
26.9 1e-05
26.95 1e-05
27 2e-05
27.05 2e-05
27.1 2e-05
27.15 2e-05
27.2 2e-05
27.25 2e-05
27.3 2e-05
27.35 2e-05
27.4 2e-05
27.45 1e-05
27.5 1e-05
27.55 1e-05
27.6 1e-05
27.65 2e-05
27.7 2e-05
27.75 2e-05
27.8 2e-05
27.85 3e-05
27.9 3e-05
27.95 3e-05
28 2e-05
28.05 1e-05
28.1 1e-05
28.15 0
28.2 0
28.25 0
28.3 1e-05
28.35 2e-05
28.4 4e-05
28.45 5e-05
28.5 5e-05
28.55 4e-05
28.6 3e-05
28.65 3e-05
28.7 2e-05
28.75 3e-05
28.8 3e-05
28.85 2e-05
28.9 2e-05
28.95 1e-05
29 1e-05
29.05 1e-05
29.1 0
29.15 -1e-05
29.2 -1e-05
29.25 -2e-05
29.3 -2e-05
29.35 -2e-05
29.4 -2e-05
29.45 -3e-05
29.5 -3e-05
29.55 -3e-05
29.6 -3e-05
29.65 -3e-05
29.7 -3e-05
29.75 -2e-05
29.8 -1e-05
29.85 0
29.9 1e-05
29.95 2e-05
30 3e-05
30.05 3e-05
30.1 3e-05
30.15 3e-05
30.2 3e-05
30.25 2e-05
30.3 1e-05
30.35 0
30.4 -2e-05
30.45 -2e-05
30.5 -3e-05
30.55 -3e-05
30.6 -3e-05
30.65 -4e-05
30.7 -7e-05
30.75 -8e-05
30.8 -1e-04
30.85 -0.00011
30.9 -0.00013
30.95 -0.00015
31 -0.00016
31.05 -0.00018
31.1 -2e-04
31.15 -0.00024
31.2 -0.00027
31.25 -0.00032
31.3 -0.00038
31.35 -0.00044
31.4 -0.00051
31.45 -6e-04
31.5 -0.00069
31.55 -8e-04
31.6 -0.00092
31.65 -0.00105
31.7 -0.00121
31.75 -0.00139
31.8 -0.00159
31.85 -0.00179
31.9 -0.00202
31.95 -0.00227
32 -0.00252
32.05 -0.00279
32.1 -0.00309
32.15 -0.00339
32.2 -0.00371
32.25 -0.00404
32.3 -0.00438
32.35 -0.00472
32.4 -0.00507
32.45 -0.00543
32.5 -0.00579
32.55 -0.00614
32.6 -0.00649
32.65 -0.00684
32.7 -0.00716
32.75 -0.00747
32.8 -0.00775
32.85 -0.00801
32.9 -0.00825
32.95 -0.00846
33 -0.00865
33.05 -0.00879
33.1 -0.00889
33.15 -0.00895
33.2 -0.00898
33.25 -0.00896
33.3 -0.00891
33.35 -0.00881
33.4 -0.00868
33.45 -0.00851
33.5 -0.00831
33.55 -0.00806
33.6 -0.00778
33.65 -0.00746
33.7 -0.00711
33.75 -0.00673
33.8 -0.00632
33.85 -0.00589
33.9 -0.00543
33.95 -0.00494
34 -0.00443
34.05 -0.00389
34.1 -0.00333
34.15 -0.00273
34.2 -0.00212
34.25 -0.00149
34.3 -0.00083
34.35 -0.00015
34.4 0.00053
34.45 0.00123
34.5 0.00192
34.55 0.00261
34.6 0.00329
34.65 0.00397
34.7 0.00464
34.75 0.00528
34.8 0.00591
34.85 0.0065
34.9 0.00707
34.95 0.00761
35 0.00811
35.05 0.00856
35.1 0.00898
35.15 0.00935
35.2 0.00967
35.25 0.00994
35.3 0.01016
35.35 0.01034
35.4 0.01046
35.45 0.01055
35.5 0.01059
35.55 0.01058
35.6 0.01052
35.65 0.01042
35.7 0.0103
35.75 0.01015
35.8 0.00998
35.85 0.00978
35.9 0.00956
35.95 0.00932
36 0.00907
36.05 0.0088
36.1 0.00853
36.15 0.00826
36.2 0.00799
36.25 0.00772
36.3 0.00745
36.35 0.00718
36.4 0.00691
36.45 0.00664
36.5 0.00638
36.55 0.00611
36.6 0.00587
36.65 0.00563
36.7 0.00541
36.75 0.0052
36.8 0.00497
36.85 0.00475
36.9 0.00454
36.95 0.00433
37 0.00414
37.05 0.00394
37.1 0.00375
37.15 0.00356
37.2 0.00337
37.25 0.00319
37.3 0.00302
37.35 0.00286
37.4 0.0027
37.45 0.00254
37.5 0.00239
37.55 0.00224
37.6 0.00208
37.65 0.00193
37.7 0.0018
37.75 0.00166
37.8 0.00151
37.85 0.00136
37.9 0.00122
37.95 0.00107
38 0.00094
38.05 0.00081
38.1 0.00069
38.15 0.00058
38.2 0.00047
38.25 0.00036
38.3 0.00025
38.35 0.00015
38.4 5e-05
38.45 -5e-05
38.5 -0.00013
38.55 -0.00022
38.6 -3e-04
38.65 -0.00038
38.7 -0.00045
38.75 -0.00052
38.8 -0.00059
38.85 -0.00064
38.9 -7e-04
38.95 -0.00074
39 -0.00078
39.05 -0.00081
39.1 -0.00085
39.15 -0.00088
39.2 -0.00092
39.25 -0.00096
39.3 -0.00099
39.35 -0.00101
39.4 -0.00102
39.45 -0.00104
39.5 -0.00105
39.55 -0.00106
39.6 -0.00107
39.65 -0.00106
39.7 -0.00106
39.75 -0.00106
39.8 -0.00106
39.85 -0.00108
39.9 -0.00109
39.95 -0.0011
40 -0.0011
40.05 -0.00111
40.1 -0.00112
40.15 -0.00113
40.2 -0.00114
40.25 -0.00115
40.3 -0.00115
40.35 -0.00115
40.4 -0.00115
40.45 -0.00114
40.5 -0.00114
40.55 -0.00114
40.6 -0.00114
40.65 -0.00113
40.7 -0.00112
40.75 -0.00111
40.8 -0.00111
40.85 -0.00111
40.9 -0.0011
40.95 -0.00109
41 -0.00109
41.05 -0.00108
41.1 -0.00108
41.15 -0.00108
41.2 -0.00107
41.25 -0.00106
41.3 -0.00105
41.35 -0.00104
41.4 -0.00103
41.45 -0.00102
41.5 -0.00101
41.55 -0.001
41.6 -0.00099
41.65 -0.00098
41.7 -0.00098
41.75 -0.00097
41.8 -0.00096
41.85 -0.00095
41.9 -0.00095
41.95 -0.00094
42 -0.00094
42.05 -0.00093
42.1 -0.00092
42.15 -0.00092
42.2 -0.00091
42.25 -9e-04
42.3 -0.00089
42.35 -0.00087
42.4 -0.00086
42.45 -0.00084
42.5 -0.00084
42.55 -0.00083
42.6 -0.00081
42.65 -8e-04
42.7 -0.00079
42.75 -0.00078
42.8 -0.00077
42.85 -0.00077
42.9 -0.00076
42.95 -0.00074
43 -0.00072
43.05 -0.00069
43.1 -0.00068
43.15 -0.00067
43.2 -0.00066
43.25 -0.00065
43.3 -0.00065
43.35 -0.00064
43.4 -0.00063
43.45 -0.00063
43.5 -0.00062
43.55 -6e-04
43.6 -0.00059
43.65 -0.00059
43.7 -0.00059
43.75 -0.00058
43.8 -0.00057
43.85 -0.00056
43.9 -0.00054
43.95 -0.00053
44 -0.00052
44.05 -0.00052
44.1 -0.00052
44.15 -5e-04
44.2 -0.00049
44.25 -0.00048
44.3 -0.00048
44.35 -0.00048
44.4 -0.00048
44.45 -0.00049
44.5 -5e-04
44.55 -0.00049
44.6 -0.00048
44.65 -0.00047
44.7 -0.00045
44.75 -0.00043
44.8 -0.00041
44.85 -0.00039
44.9 -0.00038
44.95 -0.00037
45 -0.00037
45.05 -0.00036
45.1 -0.00037
45.15 -0.00037
45.2 -0.00037
45.25 -0.00037
45.3 -0.00037
45.35 -0.00037
45.4 -0.00037
45.45 -0.00036
45.5 -0.00035
45.55 -0.00033
45.6 -0.00032
45.65 -0.00031
45.7 -3e-04
45.75 -3e-04
45.8 -3e-04
45.85 -3e-04
45.9 -3e-04
45.95 -0.00029
46 -0.00029
46.05 -0.00028
46.1 -0.00028
46.15 -0.00028
46.2 -0.00028
46.25 -0.00027
46.3 -0.00026
46.35 -0.00025
46.4 -0.00025
46.45 -0.00025
46.5 -0.00025
46.55 -0.00025
46.6 -0.00026
46.65 -0.00027
46.7 -0.00026
46.75 -0.00025
46.8 -0.00024
46.85 -0.00023
46.9 -0.00022
46.95 -0.00021
47 -0.00021
47.05 -0.00021
47.1 -0.00021
47.15 -2e-04
47.2 -2e-04
47.25 -2e-04
47.3 -2e-04
47.35 -2e-04
47.4 -2e-04
47.45 -0.00019
47.5 -0.00018
47.55 -0.00017
47.6 -0.00018
47.65 -0.00018
47.7 -0.00017
47.75 -0.00017
47.8 -0.00016
47.85 -0.00015
47.9 -0.00014
47.95 -0.00014
48 -0.00015
48.05 -0.00016
48.1 -0.00015
48.15 -0.00016
48.2 -0.00016
48.25 -0.00015
48.3 -0.00014
48.35 -0.00013
48.4 -0.00012
48.45 -0.00012
48.5 -0.00011
48.55 -0.00011
48.6 -0.00011
48.65 -1e-04
48.7 -1e-04
48.75 -1e-04
48.8 -9e-05
48.85 -9e-05
48.9 -9e-05
48.95 -1e-04
49 -1e-04
49.05 -9e-05
49.1 -1e-04
49.15 -1e-04
49.2 -1e-04
49.25 -1e-04
49.3 -1e-04
49.35 -0.00011
49.4 -0.00011
49.45 -0.00012
49.5 -0.00011
49.55 -1e-04
49.6 -0.00011
49.65 -1e-04
49.7 -1e-04
49.75 -1e-04
49.8 -9e-05
49.85 -8e-05
49.9 -8e-05
49.95 -7e-05
50 -7e-05
50.05 -7e-05
50.1 -8e-05
50.15 -8e-05
50.2 -8e-05
50.25 -7e-05
50.3 -8e-05
50.35 -8e-05
50.4 -7e-05
50.45 -7e-05
50.5 -7e-05
50.55 -6e-05
50.6 -5e-05
50.65 -5e-05
50.7 -4e-05
50.75 -4e-05
50.8 -4e-05
50.85 -4e-05
50.9 -4e-05
50.95 -5e-05
51 -5e-05
51.05 -6e-05
51.1 -5e-05
51.15 -6e-05
51.2 -6e-05
51.25 -6e-05
51.3 -6e-05
51.35 -6e-05
51.4 -7e-05
51.45 -7e-05
51.5 -7e-05
51.55 -7e-05
51.6 -6e-05
51.65 -6e-05
51.7 -6e-05
51.75 -7e-05
51.8 -7e-05
51.85 -6e-05
51.9 -7e-05
51.95 -6e-05
52 -6e-05
52.05 -6e-05
52.1 -6e-05
52.15 -6e-05
52.2 -5e-05
52.25 -3e-05
52.3 -3e-05
52.35 -3e-05
52.4 -3e-05
52.45 -4e-05
52.5 -4e-05
52.55 -4e-05
52.6 -5e-05
52.65 -5e-05
52.7 -6e-05
52.75 -7e-05
52.8 -7e-05
52.85 -7e-05
52.9 -7e-05
52.95 -7e-05
53 -7e-05
53.05 -7e-05
53.1 -6e-05
53.15 -5e-05
53.2 -4e-05
53.25 -3e-05
53.3 -3e-05
53.35 -4e-05
53.4 -4e-05
53.45 -3e-05
53.5 -3e-05
53.55 -3e-05
53.6 -3e-05
53.65 -2e-05
53.7 -2e-05
53.75 -3e-05
53.8 -4e-05
53.85 -4e-05
53.9 -3e-05
53.95 -3e-05
54 -2e-05
54.05 -2e-05
54.1 -1e-05
54.15 -1e-05
54.2 0
54.25 0
54.3 0
54.35 1e-05
54.4 2e-05
54.45 1e-05
54.5 1e-05
54.55 0
54.6 0
54.65 0
54.7 0
54.75 0
54.8 1e-05
54.85 1e-05
54.9 1e-05
54.95 1e-05
55 1e-05
55.05 -1e-05
55.1 -2e-05
55.15 -2e-05
55.2 -1e-05
55.25 -1e-05
55.3 -1e-05
55.35 -1e-05
55.4 0
55.45 0
55.5 1e-05
55.55 1e-05
55.6 1e-05
55.65 1e-05
55.7 1e-05
55.75 1e-05
55.8 1e-05
55.85 0
55.9 1e-05
55.95 0
56 1e-05
56.05 1e-05
56.1 1e-05
56.15 1e-05
56.2 0
56.25 -1e-05
56.3 0
56.35 0
56.4 1e-05
56.45 1e-05
56.5 0
56.55 -1e-05
56.6 -2e-05
56.65 -2e-05
56.7 -2e-05
56.75 -1e-05
56.8 0
56.85 0
56.9 0
56.95 0
57 0
57.05 0
57.1 0
57.15 -1e-05
57.2 -2e-05
57.25 -3e-05
57.3 -4e-05
57.35 -4e-05
57.4 -4e-05
57.45 -4e-05
57.5 -4e-05
57.55 -3e-05
57.6 -3e-05
57.65 -3e-05
57.7 -3e-05
57.75 -3e-05
57.8 -3e-05
57.85 -3e-05
57.9 -2e-05
57.95 -3e-05
58 -3e-05
58.05 -3e-05
58.1 -2e-05
58.15 -2e-05
58.2 -1e-05
58.25 -1e-05
58.3 -1e-05
58.35 -1e-05
58.4 -1e-05
58.45 -1e-05
58.5 -1e-05
58.55 0
58.6 0
58.65 0
58.7 0
58.75 0
58.8 0
58.85 0
58.9 0
58.95 -1e-05
59 -1e-05
59.05 -1e-05
59.1 -1e-05
59.15 -1e-05
59.2 -2e-05
59.25 -2e-05
59.3 -2e-05
59.35 -3e-05
59.4 -3e-05
59.45 -3e-05
59.5 -2e-05
59.55 -2e-05
59.6 -2e-05
59.65 -2e-05
59.7 -1e-05
59.75 -2e-05
59.8 -1e-05
59.85 -1e-05
59.9 0
59.95 0
60 0
60.05 0
60.1 0
60.15 1e-05
60.2 0
60.25 0
60.3 0
60.35 0
60.4 1e-05
60.45 1e-05
60.5 1e-05
60.55 0
60.6 0
60.65 0
60.7 0
60.75 0
60.8 0
60.85 0
60.9 -1e-05
60.95 0
61 0
61.05 0
61.1 1e-05
61.15 1e-05
61.2 1e-05
61.25 1e-05
61.3 0
61.35 -1e-05
61.4 -2e-05
61.45 -3e-05
61.5 -3e-05
61.55 -3e-05
61.6 -3e-05
61.65 -2e-05
61.7 -2e-05
61.75 -3e-05
61.8 -3e-05
61.85 -4e-05
61.9 -5e-05
61.95 -5e-05
62 -5e-05
62.05 -5e-05
62.1 -5e-05
62.15 -4e-05
62.2 -3e-05
62.25 -2e-05
62.3 -2e-05
62.35 -2e-05
62.4 -1e-05
62.45 -1e-05
62.5 0
62.55 0
62.6 0
62.65 0
62.7 -1e-05
62.75 -1e-05
62.8 -1e-05
62.85 0
62.9 0
62.95 1e-05
63 1e-05
63.05 2e-05
63.1 1e-05
63.15 -1e-05
63.2 -1e-05
63.25 -1e-05
63.3 -1e-05
63.35 -1e-05
63.4 -1e-05
63.45 -1e-05
63.5 -1e-05
63.55 -2e-05
63.6 -2e-05
63.65 0
63.7 1e-05
63.75 1e-05
63.8 1e-05
63.85 1e-05
63.9 0
63.95 0
64 0
64.05 0
64.1 0
64.15 1e-05
64.2 1e-05
64.25 1e-05
64.3 2e-05
64.35 1e-05
64.4 1e-05
64.45 0
64.5 0
64.55 0
64.6 1e-05
64.65 1e-05
64.7 1e-05
64.75 2e-05
64.8 1e-05
64.85 1e-05
64.9 0
64.95 0
65 0
65.05 1e-05
65.1 1e-05
65.15 1e-05
65.2 2e-05
65.25 2e-05
65.3 1e-05
65.35 1e-05
65.4 1e-05
65.45 1e-05
65.5 0
65.55 -1e-05
65.6 -1e-05
65.65 0
65.7 1e-05
65.75 2e-05
65.8 3e-05
65.85 4e-05
65.9 4e-05
65.95 5e-05
66 6e-05
66.05 5e-05
66.1 4e-05
66.15 2e-05
66.2 0
66.25 -1e-05
66.3 -3e-05
66.35 -3e-05
66.4 -3e-05
66.45 -3e-05
66.5 -2e-05
66.55 -2e-05
66.6 -2e-05
66.65 -2e-05
66.7 -2e-05
66.75 -1e-05
66.8 -1e-05
66.85 -1e-05
66.9 -1e-05
66.95 -1e-05
67 -2e-05
67.05 -3e-05
67.1 -3e-05
67.15 -3e-05
67.2 -2e-05
67.25 -2e-05
67.3 -1e-05
67.35 0
67.4 1e-05
67.45 1e-05
67.5 1e-05
67.55 0
67.6 0
67.65 0
67.7 -1e-05
67.75 -1e-05
67.8 -1e-05
67.85 0
67.9 0
67.95 0
68 0
68.05 0
68.1 0
68.15 0
68.2 -1e-05
68.25 -1e-05
68.3 -1e-05
68.35 0
68.4 0
68.45 0
68.5 1e-05
68.55 1e-05
68.6 1e-05
68.65 1e-05
68.7 0
68.75 0
68.8 0
68.85 -1e-05
68.9 -1e-05
68.95 0
69 0
69.05 0
69.1 0
69.15 0
69.2 0
69.25 0
69.3 0
69.35 0
69.4 0
69.45 0
69.5 0
69.55 -1e-05
69.6 -1e-05
69.65 -1e-05
69.7 0
69.75 0
69.8 0
69.85 0
69.9 0
69.95 0
70 -1e-05
70.05 -1e-05
70.1 -1e-05
70.15 -2e-05
70.2 -2e-05
70.25 -2e-05
70.3 -2e-05
70.35 -2e-05
70.4 -1e-05
70.45 -1e-05
70.5 -1e-05
70.55 -1e-05
70.6 0
70.65 0
70.7 0
70.75 1e-05
70.8 1e-05
70.85 2e-05
70.9 3e-05
70.95 3e-05
71 2e-05
71.05 2e-05
71.1 1e-05
71.15 1e-05
71.2 -1e-05
71.25 -2e-05
71.3 -3e-05
71.35 -2e-05
71.4 -2e-05
71.45 -1e-05
71.5 -1e-05
71.55 -1e-05
71.6 -2e-05
71.65 -2e-05
71.7 -2e-05
71.75 -2e-05
71.8 -3e-05
71.85 -2e-05
71.9 -2e-05
71.95 -2e-05
72 -2e-05
72.05 -2e-05
72.1 -1e-05
72.15 -1e-05
72.2 0
72.25 1e-05
72.3 0
72.35 -1e-05
72.4 -2e-05
72.45 -4e-05
72.5 -4e-05
72.55 -4e-05
72.6 -4e-05
72.65 -4e-05
72.7 -4e-05
72.75 -3e-05
72.8 -3e-05
72.85 -3e-05
72.9 -3e-05
72.95 -3e-05
73 -2e-05
73.05 -1e-05
73.1 0
73.15 1e-05
73.2 2e-05
73.25 2e-05
73.3 2e-05
73.35 1e-05
73.4 0
73.45 0
73.5 0
73.55 1e-05
73.6 1e-05
73.65 1e-05
73.7 1e-05
73.75 1e-05
73.8 1e-05
73.85 0
73.9 0
73.95 1e-05
74 0
74.05 0
74.1 0
74.15 0
74.2 1e-05
74.25 1e-05
74.3 2e-05
74.35 2e-05
74.4 1e-05
74.45 1e-05
74.5 0
74.55 0
74.6 0
74.65 0
74.7 0
74.75 -1e-05
74.8 -2e-05
74.85 -3e-05
74.9 -3e-05
74.95 -2e-05
75 -1e-05
75.05 -1e-05
75.1 -1e-05
75.15 -1e-05
75.2 0
75.25 1e-05
75.3 2e-05
75.35 3e-05
75.4 3e-05
75.45 1e-05
75.5 1e-05
75.55 0
75.6 0
75.65 0
75.7 -1e-05
75.75 -2e-05
75.8 -1e-05
75.85 -1e-05
75.9 -1e-05
75.95 -1e-05
76 -2e-05
76.05 -1e-05
76.1 0
76.15 1e-05
76.2 2e-05
76.25 2e-05
76.3 3e-05
76.35 3e-05
76.4 3e-05
76.45 2e-05
76.5 2e-05
76.55 2e-05
76.6 2e-05
76.65 1e-05
76.7 -1e-05
76.75 -2e-05
76.8 -1e-05
76.85 0
76.9 0
76.95 0
77 0
77.05 0
77.1 1e-05
77.15 1e-05
77.2 0
77.25 -1e-05
77.3 -1e-05
77.35 -1e-05
77.4 -1e-05
77.45 -1e-05
77.5 -2e-05
77.55 -1e-05
77.6 -1e-05
77.65 -1e-05
77.7 -1e-05
77.75 -1e-05
77.8 -1e-05
77.85 -2e-05
77.9 -3e-05
77.95 -3e-05
78 -3e-05
78.05 -3e-05
78.1 -3e-05
78.15 -2e-05
78.2 0
78.25 0
78.3 1e-05
78.35 0
78.4 0
78.45 -1e-05
78.5 -1e-05
78.55 -2e-05
78.6 -1e-05
78.65 -1e-05
78.7 -2e-05
78.75 -1e-05
78.8 0
78.85 1e-05
78.9 1e-05
78.95 1e-05
79 2e-05
79.05 1e-05
79.1 2e-05
79.15 2e-05
79.2 2e-05
79.25 1e-05
79.3 1e-05
79.35 1e-05
79.4 0
79.45 0
79.5 1e-05
79.55 1e-05
79.6 1e-05
79.65 0
79.7 0
79.75 -1e-05
79.8 -1e-05
79.85 -1e-05
79.9 -2e-05
79.95 -2e-05
80 -1e-05
80.05 -2e-05
80.1 -1e-05
80.15 0
80.2 1e-05
80.25 1e-05
80.3 3e-05
80.35 3e-05
80.4 3e-05
80.45 4e-05
80.5 3e-05
80.55 3e-05
80.6 3e-05
80.65 3e-05
80.7 3e-05
80.75 3e-05
80.8 4e-05
80.85 3e-05
80.9 4e-05
80.95 3e-05
81 3e-05
81.05 2e-05
81.1 0
81.15 1e-05
81.2 1e-05
81.25 1e-05
81.3 1e-05
81.35 1e-05
81.4 1e-05
81.45 2e-05
81.5 2e-05
81.55 2e-05
81.6 2e-05
81.65 2e-05
81.7 2e-05
81.75 0
81.8 -1e-05
81.85 -2e-05
81.9 -3e-05
81.95 -3e-05
82 -4e-05
82.05 -3e-05
82.1 -3e-05
82.15 -3e-05
82.2 -2e-05
82.25 -1e-05
82.3 -1e-05
82.35 -1e-05
82.4 -1e-05
82.45 -2e-05
82.5 -2e-05
82.55 -2e-05
82.6 -3e-05
82.65 -3e-05
82.7 -2e-05
82.75 -2e-05
82.8 -1e-05
82.85 0
82.9 0
82.95 0
83 0
83.05 -1e-05
83.1 0
83.15 0
83.2 0
83.25 0
83.3 0
83.35 0
83.4 0
83.45 1e-05
83.5 1e-05
83.55 1e-05
83.6 0
83.65 0
83.7 0
83.75 0
83.8 0
83.85 -1e-05
83.9 -1e-05
83.95 -1e-05
84 -1e-05
84.05 0
84.1 0
84.15 1e-05
84.2 1e-05
84.25 1e-05
84.3 1e-05
84.35 2e-05
84.4 2e-05
84.45 2e-05
84.5 2e-05
84.55 1e-05
84.6 1e-05
84.65 0
84.7 0
84.75 1e-05
84.8 1e-05
84.85 2e-05
84.9 2e-05
84.95 3e-05
85 2e-05
85.05 2e-05
85.1 3e-05
85.15 2e-05
85.2 2e-05
85.25 1e-05
85.3 0
85.35 0
85.4 0
85.45 0
85.5 0
85.55 0
85.6 -1e-05
85.65 0
85.7 1e-05
85.75 2e-05
85.8 2e-05
85.85 2e-05
85.9 2e-05
85.95 1e-05
86 -1e-05
86.05 -1e-05
86.1 -2e-05
86.15 -3e-05
86.2 -2e-05
86.25 -2e-05
86.3 -2e-05
86.35 0
86.4 0
86.45 1e-05
86.5 1e-05
86.55 0
86.6 0
86.65 0
86.7 -1e-05
86.75 -1e-05
86.8 -1e-05
86.85 -1e-05
86.9 -1e-05
86.95 -1e-05
87 -1e-05
87.05 -1e-05
87.1 0
87.15 0
87.2 0
87.25 1e-05
87.3 0
87.35 0
87.4 -1e-05
87.45 -3e-05
87.5 -4e-05
87.55 -4e-05
87.6 -5e-05
87.65 -5e-05
87.7 -4e-05
87.75 -4e-05
87.8 -3e-05
87.85 -2e-05
87.9 -1e-05
87.95 0
88 0
88.05 1e-05
88.1 1e-05
88.15 2e-05
88.2 2e-05
88.25 3e-05
88.3 3e-05
88.35 3e-05
88.4 2e-05
88.45 1e-05
88.5 1e-05
88.55 1e-05
88.6 0
88.65 0
88.7 0
88.75 2e-05
88.8 3e-05
88.85 4e-05
88.9 4e-05
88.95 3e-05
89 1e-05
89.05 1e-05
89.1 0
89.15 0
89.2 0
89.25 1e-05
89.3 0
89.35 0
89.4 0
89.45 -1e-05
89.5 -2e-05
89.55 -3e-05
89.6 -4e-05
89.65 -5e-05
89.7 -5e-05
89.75 -4e-05
89.8 -3e-05
89.85 -2e-05
89.9 -1e-05
89.95 -2e-05
90 -1e-05
90.05 -1e-05
90.1 0
90.15 0
90.2 -1e-05
90.25 0
90.3 0
90.35 -1e-05
90.4 0
90.45 0
90.5 -1e-05
90.55 -1e-05
90.6 -1e-05
90.65 -1e-05
90.7 0
90.75 0
90.8 0
90.85 0
90.9 -1e-05
90.95 -1e-05
91 -1e-05
91.05 0
91.1 0
91.15 1e-05
91.2 1e-05
91.25 1e-05
91.3 0
91.35 0
91.4 0
91.45 2e-05
91.5 3e-05
91.55 3e-05
91.6 2e-05
91.65 2e-05
91.7 2e-05
91.75 2e-05
91.8 2e-05
91.85 1e-05
91.9 1e-05
91.95 0
92 -1e-05
92.05 -1e-05
92.1 -1e-05
92.15 -2e-05
92.2 -2e-05
92.25 -3e-05
92.3 -3e-05
92.35 -3e-05
92.4 -2e-05
92.45 -1e-05
92.5 0
92.55 -1e-05
92.6 0
92.65 0
92.7 0
92.75 0
92.8 0
92.85 -1e-05
92.9 -2e-05
92.95 -2e-05
93 -2e-05
93.05 -1e-05
93.1 0
93.15 0
93.2 0
93.25 0
93.3 1e-05
93.35 1e-05
93.4 1e-05
93.45 1e-05
93.5 1e-05
93.55 1e-05
93.6 2e-05
93.65 1e-05
93.7 1e-05
93.75 0
93.8 -1e-05
93.85 -2e-05
93.9 -1e-05
93.95 -2e-05
94 -2e-05
94.05 -2e-05
94.1 -1e-05
94.15 -1e-05
94.2 -1e-05
94.25 0
94.3 -1e-05
94.35 -2e-05
94.4 -2e-05
94.45 -2e-05
94.5 -3e-05
94.55 -4e-05
94.6 -4e-05
94.65 -4e-05
94.7 -4e-05
94.75 -4e-05
94.8 -3e-05
94.85 -3e-05
94.9 -3e-05
94.95 -2e-05
95 -2e-05
95.05 -2e-05
95.1 -1e-05
95.15 -1e-05
95.2 -1e-05
95.25 -1e-05
95.3 -2e-05
95.35 -2e-05
95.4 -2e-05
95.45 -2e-05
95.5 -2e-05
95.55 -2e-05
95.6 -2e-05
95.65 0
95.7 0
95.75 0
95.8 0
95.85 1e-05
95.9 2e-05
95.95 2e-05
96 1e-05
96.05 1e-05
96.1 1e-05
96.15 1e-05
96.2 1e-05
96.25 1e-05
96.3 0
96.35 -2e-05
96.4 -2e-05
96.45 -1e-05
96.5 -1e-05
96.55 -1e-05
96.6 -1e-05
96.65 -1e-05
96.7 -1e-05
96.75 0
96.8 0
96.85 0
96.9 -1e-05
96.95 -1e-05
97 -2e-05
97.05 -2e-05
97.1 -2e-05
97.15 -1e-05
97.2 0
97.25 0
97.3 0
97.35 0
97.4 0
97.45 1e-05
97.5 0
97.55 0
97.6 0
97.65 0
97.7 0
97.75 0
97.8 0
97.85 1e-05
97.9 2e-05
97.95 2e-05
98 2e-05
98.05 3e-05
98.1 2e-05
98.15 1e-05
98.2 1e-05
98.25 1e-05
98.3 2e-05
98.35 2e-05
98.4 3e-05
98.45 3e-05
98.5 3e-05
98.55 2e-05
98.6 2e-05
98.65 2e-05
98.7 2e-05
98.75 2e-05
98.8 2e-05
98.85 2e-05
98.9 1e-05
98.95 2e-05
99 1e-05
99.05 0
99.1 -1e-05
99.15 -1e-05
99.2 0
99.25 1e-05
99.3 2e-05
99.35 3e-05
99.4 2e-05
99.45 1e-05
99.5 -1e-05
99.55 -1e-05
99.6 -2e-05
99.65 -1e-05
99.7 -2e-05
99.75 -2e-05
99.8 -3e-05
99.85 -2e-05
99.9 -2e-05
99.95 -1e-05
