0 0
0.05 0.00068
0.1 0.00175
0.15 0.00281
0.2 0.00402
0.25 0.00523
0.3 0.00616
0.35 0.00708
0.4 0.00765
0.45 0.00822
0.5 0.00842
0.55 0.0084
0.6 0.00811
0.65 0.00784
0.7 0.0076
0.75 0.00737
0.8 0.00707
0.85 0.00678
0.9 0.00658
0.95 0.00643
1 0.00658
1.05 0.00675
1.1 0.00692
1.15 0.00703
1.2 0.00725
1.25 0.00745
1.3 0.00745
1.35 0.00733
1.4 0.00727
1.45 0.00707
1.5 0.00686
1.55 0.00644
1.6 0.00605
1.65 0.00588
1.7 0.00569
1.75 0.00553
1.8 0.00555
1.85 0.00563
1.9 0.00566
1.95 0.0057
2 0.00574
2.05 0.00552
2.1 0.00531
2.15 0.00511
2.2 0.00497
2.25 0.00487
2.3 0.00486
2.35 0.00479
2.4 0.00474
2.45 0.00478
2.5 0.00486
2.55 0.00503
2.6 0.00493
2.65 0.00491
2.7 0.00488
2.75 0.00491
2.8 0.00498
2.85 0.00504
2.9 0.00504
2.95 0.00507
3 0.00509
3.05 0.00482
3.1 0.00458
3.15 0.00431
3.2 0.00426
3.25 0.00418
3.3 0.00399
3.35 0.00382
3.4 0.00377
3.45 0.00372
3.5 0.00369
3.55 0.00358
3.6 0.00347
3.65 0.00332
3.7 0.00316
3.75 0.00294
3.8 0.00287
3.85 0.00307
3.9 0.0033
3.95 0.00342
4 0.00351
4.05 0.00365
4.1 0.00376
4.15 0.00352
4.2 0.0034
4.25 0.0033
4.3 0.00316
4.35 0.00297
4.4 0.0027
4.45 0.00246
4.5 0.00221
4.55 0.00218
4.6 0.00224
4.65 0.00223
4.7 0.00223
4.75 0.00217
4.8 0.00241
4.85 0.00268
4.9 0.00275
4.95 0.00269
5 0.00251
5.05 0.00226
5.1 0.00212
5.15 0.00195
5.2 0.00183
5.25 0.00179
5.3 0.00176
5.35 0.00168
5.4 0.00151
5.45 0.00148
5.5 0.0016
5.55 0.00161
5.6 0.0015
5.65 0.00146
5.7 0.00134
5.75 0.00122
5.8 0.0011
5.85 0.00094
5.9 0.00104
5.95 0.00095
6 0.00092
6.05 0.00085
6.1 0.00094
6.15 0.00095
6.2 0.00102
6.25 0.00123
6.3 0.00138
6.35 0.00157
6.4 0.00164
6.45 0.0016
6.5 0.00155
6.55 0.0015
6.6 0.00138
6.65 0.00149
6.7 0.00144
6.75 0.00135
6.8 0.00122
6.85 0.00101
6.9 0.00098
6.95 0.00084
7 0.00094
7.05 0.00093
7.1 0.00078
7.15 0.00063
7.2 0.00055
7.25 0.00038
7.3 0.00025
7.35 0.00016
7.4 4e-05
7.45 0.00012
7.5 0.00029
7.55 0.00026
7.6 0.00037
7.65 0.00069
7.7 0.00076
7.75 0.00078
7.8 0.00075
7.85 8e-04
7.9 0.00074
7.95 0.00075
8 0.00069
8.05 0.00056
8.1 0.00054
8.15 0.00071
8.2 0.00093
8.25 0.00123
8.3 0.00154
8.35 0.0016
8.4 0.0016
8.45 0.00156
8.5 0.00156
8.55 0.00146
8.6 0.00119
8.65 0.00107
8.7 0.00082
8.75 0.00066
8.8 0.00041
8.85 0.00029
8.9 1e-04
8.95 0.00024
9 0.00037
9.05 0.00051
9.1 0.00062
9.15 0.00071
9.2 0.00074
9.25 0.00077
9.3 0.00079
9.35 0.00078
9.4 0.00053
9.45 0.00035
9.5 0.00026
9.55 0.00021
9.6 0.00019
9.65 0.00014
9.7 0.00033
9.75 0.00039
9.8 0.00043
9.85 0.00026
9.9 0.00028
9.95 0.00034
10 0.00033
10.05 0.00027
10.1 0.00037
10.15 0.00042
10.2 0.00046
10.25 0.00046
10.3 0.00045
10.35 0.00038
10.4 0.00033
10.45 0.00018
10.5 0.00018
10.55 0.00016
10.6 1e-04
10.65 8e-05
10.7 0.00017
10.75 1e-04
10.8 2e-04
10.85 0.00019
10.9 0.00025
10.95 0.00048
11 0.00059
11.05 0.00054
11.1 7e-04
11.15 0.00066
11.2 0.00068
11.25 0.00074
11.3 0.00065
11.35 0.00058
11.4 0.00052
11.45 0.00029
11.5 -3e-05
11.55 -0.00029
11.6 -0.00036
11.65 -0.00042
11.7 -0.00028
11.75 -0.00022
11.8 -0.00018
11.85 -9e-05
11.9 7e-05
11.95 -1e-05
12 -1e-05
12.05 1e-05
12.1 0.00021
12.15 0.00039
12.2 0.00047
12.25 0.00051
12.3 0.00046
12.35 7e-04
12.4 0.00052
12.45 0.00027
12.5 -6e-05
12.55 -0.00032
12.6 -0.00047
12.65 -0.00048
12.7 -4e-04
12.75 -0.00036
12.8 -0.00033
12.85 -0.00024
12.9 -0.00015
12.95 -2e-05
13 6e-05
13.05 2e-05
13.1 1e-05
13.15 -2e-05
13.2 -5e-05
13.25 0
13.3 0
13.35 -2e-05
13.4 -0.00016
13.45 -0.00019
13.5 -0.00036
13.55 -3e-04
13.6 -0.00013
13.65 5e-05
13.7 0.00019
13.75 0.00023
13.8 0.00017
13.85 0.00015
13.9 0.00037
13.95 0.00065
14 0.00082
14.05 0.00082
14.1 0.00071
14.15 0.00069
14.2 6e-04
14.25 0.00042
14.3 0.00033
14.35 0.00017
14.4 0.00018
14.45 0.00023
14.5 0.00028
14.55 0.00039
14.6 0.00047
14.65 0.00039
14.7 0.00048
14.75 0.00036
14.8 0.00034
14.85 0.00048
14.9 0.00051
14.95 0.00051
15 0.00043
15.05 0.00038
15.1 4e-04
15.15 0.00032
15.2 0.00018
15.25 -3e-05
15.3 -0.00049
15.35 -0.00078
15.4 -0.00094
15.45 -0.00115
15.5 -0.00126
15.55 -0.00132
15.6 -0.00132
15.65 -0.00118
15.7 -0.00085
15.75 -0.00053
15.8 -0.00028
15.85 2e-05
15.9 0.00035
15.95 0.00047
16 5e-04
16.05 0.00052
16.1 0.00034
16.15 0.00029
16.2 0.00023
16.25 1e-04
16.3 0.00012
16.35 0.00013
16.4 0.00013
16.45 0.00027
16.5 0.00026
16.55 0.00011
16.6 1e-04
16.65 0.00012
16.7 0.00013
16.75 2e-05
16.8 -0.00029
16.85 -0.00026
16.9 -0.00035
16.95 -0.00047
17 -0.00055
17.05 -5e-04
17.1 -0.00054
17.15 -0.00057
17.2 -0.00058
17.25 -0.00035
17.3 -6e-05
17.35 4e-05
17.4 -9e-05
17.45 -0.00016
17.5 -0.00014
17.55 -1e-04
17.6 7e-05
17.65 0.00028
17.7 0.00025
17.75 2e-04
17.8 2e-05
17.85 -0.00026
17.9 -0.00044
17.95 -0.00052
18 -0.00076
18.05 -0.00075
18.1 -0.00064
18.15 -0.00055
18.2 -0.00052
18.25 -0.00037
18.3 -0.00012
18.35 1e-05
18.4 1e-05
18.45 8e-05
18.5 0.00015
18.55 0.00033
18.6 0.00051
18.65 0.00059
18.7 0.00061
18.75 5e-04
18.8 0.00057
18.85 0.00055
18.9 0.00059
18.95 0.00065
19 0.00076
19.05 7e-04
19.1 0.00066
19.15 0.00059
19.2 0.00049
19.25 0.00043
19.3 0.00042
19.35 0.00071
19.4 0.00075
19.45 7e-04
19.5 0.00067
19.55 0.00064
19.6 0.00059
19.65 0.00042
19.7 0.00039
19.75 0.00035
19.8 0.00051
19.85 0.00045
19.9 3e-04
19.95 9e-05
20 -7e-05
20.05 -0.00016
20.1 -0.00015
20.15 1e-05
20.2 7e-05
20.25 -0.00013
20.3 -0.00032
20.35 -0.00044
20.4 -0.00042
20.45 -0.00024
20.5 -0.00027
20.55 -0.00036
20.6 -0.00041
20.65 -0.00038
20.7 -0.00028
20.75 -6e-05
20.8 0
20.85 0.00019
20.9 0.00031
20.95 0.00027
21 9e-05
21.05 9e-05
21.1 -3e-05
21.15 -7e-05
21.2 -0.00015
21.25 -0.00037
21.3 -0.00076
21.35 -0.00087
21.4 -0.00104
21.45 -0.00105
21.5 -0.0012
21.55 -0.0012
21.6 -0.00098
21.65 -0.00071
21.7 -0.00035
21.75 5e-05
21.8 0.00019
21.85 0.00026
21.9 0.00011
21.95 7e-05
22 -9e-05
22.05 -0.00013
22.1 -5e-05
22.15 -0.00013
22.2 1e-04
22.25 0.00023
22.3 3e-04
22.35 0.00026
22.4 0.00018
22.45 -4e-05
22.5 -0.00038
22.55 -0.00051
22.6 -6e-04
22.65 -0.00067
22.7 -0.00078
22.75 -0.00067
22.8 -0.00068
22.85 -0.00059
22.9 -5e-04
22.95 -0.00025
23 -0.00015
23.05 2e-05
23.1 0.00023
23.15 0.00053
23.2 0.00055
23.25 0.00047
23.3 0.00043
23.35 0.00033
23.4 0.00033
23.45 0.00034
23.5 0.00045
23.55 0.00037
23.6 0.00024
23.65 0.00011
23.7 0.00016
23.75 0.00013
23.8 -0.00013
23.85 -0.00014
23.9 -9e-05
23.95 6e-05
24 9e-05
24.05 2e-05
24.1 -7e-05
24.15 -2e-04
24.2 -0.00026
24.25 -4e-04
24.3 -0.00054
24.35 -6e-04
24.4 -0.00074
24.45 -7e-04
24.5 -0.00057
24.55 -0.00052
24.6 -0.00042
24.65 -0.00034
24.7 -0.00034
24.75 -0.00054
24.8 -0.00076
24.85 -0.00091
24.9 -0.00106
24.95 -0.00125
25 -0.00124
25.05 -0.00122
25.1 -0.00125
25.15 -0.00111
25.2 -0.00087
25.25 -0.00048
25.3 -0.00031
25.35 -0.00025
25.4 -0.00017
25.45 -0.00026
25.5 -0.00022
25.55 -0.00021
25.6 -0.00026
25.65 -0.00024
25.7 -3e-05
25.75 0.00017
25.8 0.00022
25.85 1e-04
25.9 0.00011
25.95 -1e-05
26 0.00012
26.05 0.00038
26.1 7e-04
26.15 0.00077
26.2 0.00085
26.25 0.00087
26.3 0.00084
26.35 0.00063
26.4 0.00054
26.45 4e-04
26.5 0.00035
26.55 0.00023
26.6 3e-05
26.65 -1e-04
26.7 -0.00041
26.75 -0.00046
26.8 -0.00053
26.85 -0.00046
26.9 -0.00037
26.95 -0.00041
27 -0.00028
27.05 -0.00018
27.1 0.00011
27.15 0.00026
27.2 3e-04
27.25 0.00031
27.3 0.00029
27.35 3e-04
27.4 0.00029
27.45 0.00029
27.5 3e-04
27.55 2e-04
27.6 0.00019
27.65 2e-04
27.7 0.00017
27.75 0.00019
27.8 7e-05
27.85 -6e-05
27.9 -9e-05
27.95 -5e-05
28 0.00032
28.05 0.00067
28.1 0.00075
28.15 0.00083
28.2 0.00088
28.25 0.00089
28.3 0.00063
28.35 0.00027
28.4 0.00016
28.45 1e-05
28.5 -6e-05
28.55 -6e-05
28.6 0.00014
28.65 0.00017
28.7 0.00039
28.75 0.00065
28.8 0.00076
28.85 0.00086
28.9 0.00077
28.95 0.00072
29 0.00045
29.05 0.00016
29.1 -0.00011
29.15 -0.00033
29.2 -0.00044
29.25 -0.00066
29.3 -0.00091
29.35 -0.00102
29.4 -0.00117
29.45 -0.00118
29.5 -0.00123
29.55 -0.00115
29.6 -0.001
29.65 -0.00076
29.7 -6e-04
29.75 -0.00044
29.8 -0.00026
29.85 -9e-05
29.9 1e-04
29.95 0.00016
30 0.00028
30.05 3e-04
30.1 4e-04
30.15 4e-04
30.2 0.00044
30.25 0.00055
30.3 0.00056
30.35 0.00058
30.4 0.00078
30.45 0.00079
30.5 0.00073
30.55 0.00066
30.6 6e-04
30.65 0.00063
30.7 0.00062
30.75 0.00049
30.8 0.00032
30.85 0.00014
30.9 6e-05
30.95 -0.00023
31 -0.00026
31.05 -0.00027
31.1 -0.00016
31.15 -0.00022
31.2 -0.00048
31.25 -0.00065
31.3 -0.00075
31.35 -0.00091
31.4 -0.00104
31.45 -0.001
31.5 -0.001
31.55 -9e-04
31.6 -0.00077
31.65 -0.00067
31.7 -5e-04
31.75 -0.00036
31.8 -0.00039
31.85 -0.00017
31.9 6e-05
31.95 1e-04
32 8e-05
32.05 0.00017
32.1 0.00042
32.15 0.00062
32.2 0.00058
32.25 0.00033
32.3 0.00018
32.35 0.00024
32.4 0.00027
32.45 0.00041
32.5 0.00038
32.55 0.00026
32.6 0.00026
32.65 0.00016
32.7 0.00033
32.75 0.00032
32.8 0.00041
32.85 0.00045
32.9 0.00057
32.95 0.00054
33 0.00058
33.05 0.00034
33.1 -4e-05
33.15 -0.00028
33.2 -0.00054
33.25 -8e-04
33.3 -0.00089
33.35 -0.00088
33.4 -8e-04
33.45 -0.00073
33.5 -0.00074
33.55 -0.00087
33.6 -0.00096
33.65 -0.00089
33.7 -8e-04
33.75 -0.00064
33.8 -0.00051
33.85 -0.00033
33.9 -0.00012
33.95 0.00011
34 0.00033
34.05 0.00048
34.1 0.00034
34.15 0.00028
34.2 4e-04
34.25 0.00049
34.3 7e-04
34.35 0.00071
34.4 0.00043
34.45 0.00021
34.5 0.00012
34.55 -0.00011
34.6 -0.00021
34.65 -0.00029
34.7 4e-05
34.75 0.00017
34.8 0.00022
34.85 0.00024
34.9 0.00011
34.95 -7e-05
35 -9e-05
35.05 -0.00012
35.1 -3e-04
35.15 -0.00028
35.2 -3e-04
35.25 -0.00041
35.3 -0.00044
35.35 -0.00041
35.4 -0.00028
35.45 -0.00016
35.5 -0.00013
35.55 -8e-05
35.6 -1e-05
35.65 -3e-05
35.7 -0.00027
35.75 -0.00045
35.8 -0.00052
35.85 -0.00082
35.9 -0.00087
35.95 -0.00079
36 -0.00072
36.05 -0.00063
36.1 -5e-04
36.15 -0.00041
36.2 -3e-04
36.25 -0.00024
36.3 -0.00031
36.35 -0.00023
36.4 -0.00015
36.45 -2e-05
36.5 1e-04
36.55 9e-05
36.6 5e-05
36.65 1e-05
36.7 -0.00011
36.75 2e-05
36.8 -1e-05
36.85 0
36.9 0.00014
36.95 0.00024
37 2e-04
37.05 -5e-05
37.1 -0.00013
37.15 -0.00033
37.2 -0.00046
37.25 -0.00061
37.3 -0.00064
37.35 -0.00065
37.4 -0.00046
37.45 -0.00028
37.5 -5e-05
37.55 0.00022
37.6 0.00031
37.65 0.00041
37.7 0.00047
37.75 0.00041
37.8 0.00021
37.85 7e-05
37.9 1e-05
37.95 -2e-05
38 -0.00014
38.05 -0.00028
38.1 -0.00031
38.15 -0.00036
38.2 -0.00033
38.25 -0.00034
38.3 -0.00036
38.35 -0.00031
38.4 -0.00013
38.45 -6e-05
38.5 -7e-05
38.55 -0.00013
38.6 4e-05
38.65 0.00043
38.7 0.00065
38.75 0.00071
38.8 0.00078
38.85 0.00074
38.9 0.00045
38.95 0.00016
39 -1e-05
39.05 -1e-05
39.1 -1e-05
39.15 -0.00018
39.2 -0.00021
39.25 -0.00016
39.3 -0.00013
39.35 -8e-05
39.4 -0.00015
39.45 -2e-04
39.5 -3e-04
39.55 -0.00042
39.6 -0.00054
39.65 -0.00047
39.7 -0.00041
39.75 -0.00028
39.8 -0.00011
39.85 -1e-05
39.9 3e-05
39.95 -0.00017
40 -0.00041
40.05 -0.00058
40.1 -0.00059
40.15 -0.00068
40.2 -0.00087
40.25 -0.00098
40.3 -0.001
40.35 -0.00084
40.4 -6e-04
40.45 -0.00045
40.5 -0.00037
40.55 -0.00028
40.6 -1e-05
40.65 2e-05
40.7 3e-05
40.75 -0.00011
40.8 -0.00018
40.85 -0.00016
40.9 -0.00015
40.95 -0.00015
41 -0.00011
41.05 -0.00019
41.1 -0.00012
41.15 -0.00019
41.2 -0.00036
41.25 -0.00035
41.3 -4e-04
41.35 -0.00041
41.4 -0.00013
41.45 0.00015
41.5 3e-04
41.55 4e-04
41.6 4e-04
41.65 0.00052
41.7 0.00042
41.75 0.00035
41.8 0.00024
41.85 -1e-05
41.9 -0.00012
41.95 -0.00017
42 -0.00018
42.05 -0.00026
42.1 -0.00026
42.15 -0.00047
42.2 -0.00044
42.25 -0.00041
42.3 -0.00016
42.35 -0.00013
42.4 -0.00016
42.45 -0.00031
42.5 -0.00031
42.55 -0.00033
42.6 -0.00044
42.65 -0.00049
42.7 -6e-04
42.75 -7e-04
42.8 -0.00069
42.85 -0.00064
42.9 -0.00058
42.95 -0.00062
43 -0.00068
43.05 -0.00069
43.1 -0.00067
43.15 -0.00067
43.2 -0.00077
43.25 -0.00051
43.3 -6e-05
43.35 0.00018
43.4 5e-04
43.45 0.00063
43.5 0.00077
43.55 0.00084
43.6 0.00079
43.65 0.00057
43.7 0.00042
43.75 0.00038
43.8 0.00022
43.85 6e-05
43.9 -7e-05
43.95 -0.00015
44 -0.00011
44.05 0.00017
44.1 0.00028
44.15 0.00032
44.2 0.00038
44.25 0.00041
44.3 0.00028
44.35 0.00025
44.4 0.00015
44.45 2e-05
44.5 -1e-05
44.55 0
44.6 -0.00013
44.65 -0.00026
44.7 -0.00034
44.75 -0.00038
44.8 -0.00039
44.85 -0.00046
44.9 -0.00047
44.95 -0.00044
45 -0.00026
45.05 -0.00012
45.1 0.00017
45.15 0.00028
45.2 0.00047
45.25 0.00041
45.3 0.00017
45.35 -1e-05
45.4 -0.00025
45.45 -0.00029
45.5 -0.00016
45.55 -2e-04
45.6 -0.00025
45.65 -0.00022
45.7 -0.00014
45.75 7e-05
45.8 0.00025
45.85 0.00034
45.9 3e-04
45.95 0.00029
46 6e-05
46.05 -3e-05
46.1 -0.00021
46.15 -0.00023
46.2 -3e-04
46.25 -0.00023
46.3 6e-05
46.35 1e-04
46.4 0.00013
46.45 -3e-05
46.5 -0.00017
46.55 -0.00023
46.6 -0.00019
46.65 -0.00026
46.7 -0.00032
46.75 -0.00038
46.8 -0.00053
46.85 -0.00036
46.9 -0.00012
46.95 5e-05
47 6e-05
47.05 -1e-05
47.1 -0.00031
47.15 -0.00038
47.2 -4e-04
47.25 -0.00041
47.3 -4e-04
47.35 -0.00065
47.4 -0.00085
47.45 -0.00092
47.5 -0.00107
47.55 -0.00099
47.6 -0.00096
47.65 -0.00092
47.7 -0.00084
47.75 -0.00089
47.8 -0.00074
47.85 -0.00058
47.9 -2e-04
47.95 2e-05
48 0.00013
48.05 0.00012
48.1 0.00013
48.15 0.00024
48.2 0.00026
48.25 0.00015
48.3 8e-05
48.35 -5e-05
48.4 -0.00025
48.45 -0.00055
48.5 -0.00068
48.55 -0.00073
48.6 -0.00064
48.65 -0.00058
48.7 -0.00031
48.75 -8e-05
48.8 8e-05
48.85 0.00034
48.9 0.00023
48.95 0.00024
49 0.00019
49.05 0.00013
49.1 0.00011
49.15 0.00018
49.2 2e-04
49.25 4e-04
49.3 0.00064
49.35 0.00079
49.4 0.00083
49.45 0.00071
49.5 0.00046
49.55 0.00043
49.6 0.00053
49.65 6e-04
49.7 0.00047
49.75 0.00037
49.8 0.00019
49.85 0.00013
49.9 -5e-05
49.95 -0.00021
50 -0.00038
50.05 -0.00064
50.1 -0.00077
50.15 -0.00063
50.2 -0.00049
50.25 -0.00039
50.3 -4e-04
50.35 -4e-04
50.4 -0.00049
50.45 -0.00038
50.5 -0.00038
50.55 -0.00051
50.6 -0.00069
50.65 -0.00069
50.7 -0.00061
50.75 -0.00047
50.8 -0.00025
50.85 -0.00027
50.9 -0.00035
50.95 -0.00057
51 -0.00058
51.05 -0.00062
51.1 -0.00043
51.15 -0.00021
51.2 6e-05
51.25 2e-04
51.3 0.00036
51.35 0.00041
51.4 0.00042
51.45 0.00018
51.5 -8e-05
51.55 -0.00026
51.6 -0.00038
51.65 -4e-04
51.7 -0.00037
51.75 -0.00039
51.8 -0.00061
51.85 -0.00064
51.9 -0.00072
51.95 -0.00049
52 -0.00023
52.05 -0.00016
52.1 -7e-05
52.15 4e-05
52.2 -5e-05
52.25 -0.00025
52.3 -0.00044
52.35 -0.00047
52.4 -0.00048
52.45 -0.00045
52.5 -0.00046
52.55 -0.00054
52.6 -0.00041
52.65 -0.00022
52.7 -0.00011
52.75 0
52.8 0.00022
52.85 2e-04
52.9 0.00023
52.95 4e-04
53 0.00053
53.05 0.00056
53.1 0.00055
53.15 0.00051
53.2 0.00045
53.25 0.00029
53.3 0.00018
53.35 -6e-05
53.4 -0.00017
53.45 -0.00029
53.5 -0.00042
53.55 -0.00031
53.6 -0.00024
53.65 -0.00014
53.7 -4e-05
53.75 -9e-05
53.8 -6e-05
53.85 -8e-05
53.9 6e-05
53.95 -1e-05
54 -0.00015
54.05 -0.00021
54.1 -1e-05
54.15 3e-05
54.2 0
54.25 -0.00012
54.3 -3e-04
54.35 -4e-04
54.4 -0.00041
54.45 -0.00043
54.5 -0.00036
54.55 -0.00042
54.6 -0.00024
54.65 -0.00021
54.7 -0.00025
54.75 -0.00025
54.8 -0.00035
54.85 -0.00033
54.9 -1e-05
54.95 0.00011
55 3e-04
55.05 2e-04
55.1 0.00013
55.15 4e-05
55.2 0.00023
55.25 0.00037
55.3 3e-04
55.35 0.00018
55.4 0.00018
55.45 0.00017
55.5 -2e-05
55.55 -2e-04
55.6 -0.00017
55.65 -0.00028
55.7 -0.00036
55.75 -0.00033
55.8 -2e-04
55.85 2e-05
55.9 1e-04
55.95 3e-04
56 0.00036
56.05 0.00041
56.1 0.00034
56.15 0.00032
56.2 0.00036
56.25 0.00031
56.3 0.00014
56.35 -0.00019
56.4 -0.00037
56.45 -0.00035
56.5 -0.00028
56.55 -0.00017
56.6 -0.00011
56.65 -0.00011
56.7 -0.00017
56.75 -9e-05
56.8 -0.00016
56.85 -0.00023
56.9 -3e-04
56.95 -0.00046
57 -0.00063
57.05 -0.00067
57.1 -0.00068
57.15 -0.00068
57.2 -0.00056
57.25 -0.00045
57.3 -0.00036
57.35 -0.00024
57.4 -0.00028
57.45 -0.00039
57.5 -0.00039
57.55 -0.00023
57.6 5e-05
57.65 0.00027
57.7 0.00058
57.75 0.00085
57.8 0.00098
57.85 0.00093
57.9 0.00089
57.95 0.00081
58 0.00075
58.05 0.00075
58.1 0.00079
58.15 0.00079
58.2 0.00065
58.25 0.00046
58.3 0.00037
58.35 0.00031
58.4 0.00028
58.45 0.00042
58.5 0.00048
58.55 0.00048
58.6 2e-04
58.65 -0.00014
58.7 -0.00041
58.75 -0.00042
58.8 -0.00044
58.85 -0.00039
58.9 -0.00023
58.95 -0.00016
59 3e-05
59.05 0.00032
59.1 4e-04
59.15 0.00047
59.2 0.00035
59.25 0.00031
59.3 0.00022
59.35 8e-05
59.4 9e-05
59.45 0.00011
59.5 0.00026
59.55 0.00045
59.6 0.00079
59.65 0.00085
59.7 0.00079
59.75 0.00072
59.8 6e-04
59.85 0.00047
59.9 0.00019
59.95 -5e-05
60 -2e-04
60.05 -0.00045
60.1 -0.00067
60.15 -0.00086
60.2 -0.00095
60.25 -0.00094
60.3 -0.00092
60.35 -0.00089
60.4 -0.00081
60.45 -0.00073
60.5 -0.00065
60.55 -0.00036
60.6 -0.00022
60.65 2e-05
60.7 4e-05
60.75 0.00022
60.8 0.00042
60.85 0.00063
60.9 0.00066
60.95 0.00044
61 0.00018
61.05 1e-04
61.1 -0.00018
61.15 -0.00043
61.2 -0.00041
61.25 -0.00051
61.3 -0.00081
61.35 -0.00093
61.4 -0.00093
61.45 -0.00097
61.5 -0.00104
61.55 -0.00112
61.6 -0.00133
61.65 -0.00157
61.7 -0.00192
61.75 -0.00233
61.8 -0.00295
61.85 -0.0033
61.9 -0.00373
61.95 -0.00417
62 -0.00469
62.05 -0.00527
62.1 -0.00602
62.15 -0.00727
62.2 -0.00874
62.25 -0.0103
62.3 -0.01246
62.35 -0.01488
62.4 -0.01777
62.45 -0.02111
62.5 -0.02517
62.55 -0.03002
62.6 -0.03542
62.65 -0.04145
62.7 -0.04816
62.75 -0.0559
62.8 -0.0644
62.85 -0.07382
62.9 -0.08425
62.95 -0.0959
63 -0.10873
63.05 -0.12235
63.1 -0.13729
63.15 -0.15314
63.2 -0.17004
63.25 -0.18792
63.3 -0.2069
63.35 -0.22673
63.4 -0.24718
63.45 -0.26821
63.5 -0.2896
63.55 -0.31091
63.6 -0.33211
63.65 -0.35287
63.7 -0.37295
63.75 -0.39192
63.8 -0.40945
63.85 -0.42507
63.9 -0.4388
63.95 -0.45011
64 -0.45902
64.05 -0.4651
64.1 -0.46815
64.15 -0.46823
64.2 -0.46514
64.25 -0.45876
64.3 -0.44906
64.35 -0.43595
64.4 -0.41977
64.45 -0.40071
64.5 -0.37869
64.55 -0.354
64.6 -0.32717
64.65 -0.29835
64.7 -0.26751
64.75 -0.23562
64.8 -0.20273
64.85 -0.16919
64.9 -0.13534
64.95 -0.1018
65 -0.06875
65.05 -0.03644
65.1 -0.00493
65.15 0.02546
65.2 0.0547
65.25 0.08247
65.3 0.10862
65.35 0.13319
65.4 0.15602
65.45 0.17705
65.5 0.19661
65.55 0.21449
65.6 0.23091
65.65 0.24583
65.7 0.25941
65.75 0.27191
65.8 0.28315
65.85 0.29337
65.9 0.30263
65.95 0.31122
66 0.3192
66.05 0.32653
66.1 0.3333
66.15 0.33944
66.2 0.34507
66.25 0.35012
66.3 0.35443
66.35 0.35808
66.4 0.36092
66.45 0.36344
66.5 0.36535
66.55 0.36669
66.6 0.36752
66.65 0.36801
66.7 0.3678
66.75 0.36695
66.8 0.36543
66.85 0.36355
66.9 0.36101
66.95 0.35784
67 0.35398
67.05 0.34935
67.1 0.34413
67.15 0.33851
67.2 0.33209
67.25 0.32504
67.3 0.31791
67.35 0.31049
67.4 0.30282
67.45 0.29514
67.5 0.28719
67.55 0.27904
67.6 0.27069
67.65 0.26198
67.7 0.25314
67.75 0.24442
67.8 0.23591
67.85 0.22732
67.9 0.21878
67.95 0.21032
68 0.20197
68.05 0.19355
68.1 0.18519
68.15 0.17695
68.2 0.16895
68.25 0.16108
68.3 0.15355
68.35 0.14601
68.4 0.13839
68.45 0.13102
68.5 0.12394
68.55 0.11726
68.6 0.11073
68.65 0.10447
68.7 0.09825
68.75 0.09196
68.8 0.08565
68.85 0.07948
68.9 0.07353
68.95 0.06793
69 0.06239
69.05 0.05687
69.1 0.05149
69.15 0.04623
69.2 0.04129
69.25 0.0364
69.3 0.03174
69.35 0.02737
69.4 0.02282
69.45 0.01844
69.5 0.01416
69.55 0.0099
69.6 0.00596
69.65 0.00209
69.7 -0.00154
69.75 -0.00503
69.8 -0.00851
69.85 -0.01194
69.9 -0.01523
69.95 -0.01813
70 -0.0209
70.05 -0.02358
70.1 -0.02628
70.15 -0.02873
70.2 -0.03115
70.25 -0.03343
70.3 -0.03553
70.35 -0.03759
70.4 -0.03968
70.45 -0.04156
70.5 -0.04327
70.55 -0.04473
70.6 -0.04635
70.65 -0.04792
70.7 -0.04937
70.75 -0.05077
70.8 -0.05198
70.85 -0.053
70.9 -0.05378
70.95 -0.05443
71 -0.05489
71.05 -0.05526
71.1 -0.05553
71.15 -0.05589
71.2 -0.05631
71.25 -0.05669
71.3 -0.05698
71.35 -0.05726
71.4 -0.0574
71.45 -0.05753
71.5 -0.05758
71.55 -0.05774
71.6 -0.05781
71.65 -0.05777
71.7 -0.05778
71.75 -0.05766
71.8 -0.05735
71.85 -0.05706
71.9 -0.05673
71.95 -0.0564
72 -0.05583
72.05 -0.05513
72.1 -0.0544
72.15 -0.05369
72.2 -0.05305
72.25 -0.05242
72.3 -0.05204
72.35 -0.05165
72.4 -0.05131
72.45 -0.05096
72.5 -0.05053
72.55 -0.04995
72.6 -0.04912
72.65 -0.04837
72.7 -0.04785
72.75 -0.04743
72.8 -0.04692
72.85 -0.04652
72.9 -0.04607
72.95 -0.04559
73 -0.04495
73.05 -0.04406
73.1 -0.04335
73.15 -0.04277
73.2 -0.04194
73.25 -0.04123
73.3 -0.04054
73.35 -0.0398
73.4 -0.0391
73.45 -0.03845
73.5 -0.03785
73.55 -0.03729
73.6 -0.03685
73.65 -0.03644
73.7 -0.03603
73.75 -0.03552
73.8 -0.03502
73.85 -0.03453
73.9 -0.03421
73.95 -0.03378
74 -0.03332
74.05 -0.0328
74.1 -0.0321
74.15 -0.03155
74.2 -0.03095
74.25 -0.03047
74.3 -0.02987
74.35 -0.02942
74.4 -0.02907
74.45 -0.02888
74.5 -0.02848
74.55 -0.02793
74.6 -0.02751
74.65 -0.02723
74.7 -0.0269
74.75 -0.02639
74.8 -0.02592
74.85 -0.02548
74.9 -0.02501
74.95 -0.02467
75 -0.02425
75.05 -0.02386
75.1 -0.0236
75.15 -0.02326
75.2 -0.02306
75.25 -0.02287
75.3 -0.02259
75.35 -0.02223
75.4 -0.02171
75.45 -0.02124
75.5 -0.02078
75.55 -0.0203
75.6 -0.01973
75.65 -0.019
75.7 -0.01847
75.75 -0.01827
75.8 -0.01787
75.85 -0.01766
75.9 -0.01759
75.95 -0.01774
76 -0.01787
76.05 -0.01788
76.1 -0.01763
76.15 -0.01751
76.2 -0.01714
76.25 -0.01669
76.3 -0.0162
76.35 -0.01584
76.4 -0.01559
76.45 -0.01526
76.5 -0.01498
76.55 -0.01452
76.6 -0.01411
76.65 -0.0137
76.7 -0.01338
76.75 -0.01324
76.8 -0.013
76.85 -0.01273
76.9 -0.01255
76.95 -0.01253
77 -0.01238
77.05 -0.01246
77.1 -0.01239
77.15 -0.01227
77.2 -0.01231
77.25 -0.01232
77.3 -0.01203
77.35 -0.01196
77.4 -0.01166
77.45 -0.01139
77.5 -0.01117
77.55 -0.01093
77.6 -0.01081
77.65 -0.01082
77.7 -0.01061
77.75 -0.01061
77.8 -0.0107
77.85 -0.01068
77.9 -0.01042
77.95 -0.01001
78 -0.00966
78.05 -0.00955
78.1 -0.00939
78.15 -0.0093
78.2 -0.00912
78.25 -0.00883
78.3 -0.00852
78.35 -0.00825
78.4 -0.00792
78.45 -0.00761
78.5 -0.00751
78.55 -0.0076
78.6 -0.00772
78.65 -0.00757
78.7 -0.00741
78.75 -0.00729
78.8 -0.00717
78.85 -0.007
78.9 -0.00696
78.95 -0.00707
79 -0.00712
79.05 -0.00699
79.1 -0.00697
79.15 -0.00696
79.2 -0.00668
79.25 -0.00649
79.3 -0.00636
79.35 -0.00624
79.4 -0.0062
79.45 -0.00612
79.5 -0.00598
79.55 -0.00592
79.6 -0.00579
79.65 -0.00567
79.7 -0.00543
79.75 -0.00534
79.8 -0.00515
79.85 -0.00492
79.9 -0.00473
79.95 -0.00454
80 -0.00427
80.05 -0.00414
80.1 -0.00407
80.15 -0.0041
80.2 -0.00415
80.25 -0.00417
80.3 -0.00411
80.35 -0.00388
80.4 -0.00377
80.45 -0.00373
80.5 -0.00365
80.55 -0.00375
80.6 -0.00373
80.65 -0.00392
80.7 -0.00398
80.75 -0.0042
80.8 -0.00452
80.85 -0.00469
80.9 -0.00482
80.95 -0.00491
81 -0.00494
81.05 -0.005
81.1 -0.00496
81.15 -0.00487
81.2 -0.00465
81.25 -0.00431
81.3 -0.00393
81.35 -0.00366
81.4 -0.00357
81.45 -0.00362
81.5 -0.00362
81.55 -0.0037
81.6 -0.00356
81.65 -0.00342
81.7 -0.00339
81.75 -0.00334
81.8 -0.00336
81.85 -0.00325
81.9 -0.00295
81.95 -0.0028
82 -0.00255
82.05 -0.00235
82.1 -0.00203
82.15 -0.00187
82.2 -0.0019
82.25 -0.0019
82.3 -0.00185
82.35 -0.00182
82.4 -0.00187
82.45 -0.002
82.5 -0.00237
82.55 -0.00257
82.6 -0.00281
82.65 -0.00304
82.7 -0.00301
82.75 -0.00294
82.8 -0.00298
82.85 -0.00274
82.9 -0.00239
82.95 -0.00202
83 -0.0018
83.05 -0.00165
83.1 -0.00155
83.15 -0.00144
83.2 -0.00122
83.25 -0.00115
83.3 -0.00116
83.35 -0.00115
83.4 -0.0013
83.45 -0.00125
83.5 -0.00145
83.55 -0.00153
83.6 -0.00165
83.65 -0.00176
83.7 -0.00184
83.75 -0.00196
83.8 -0.00205
83.85 -0.00205
83.9 -0.00212
83.95 -0.00177
84 -0.00143
84.05 -0.00128
84.1 -0.00128
84.15 -0.00151
84.2 -0.00172
84.25 -0.00184
84.3 -0.00203
84.35 -0.00199
84.4 -0.00171
84.45 -0.00159
84.5 -0.00138
84.55 -0.00098
84.6 -0.00085
84.65 -0.00092
84.7 -0.00081
84.75 -0.00074
84.8 -0.00088
84.85 -0.00092
84.9 -0.00089
84.95 -0.00085
85 -0.00085
85.05 -0.00088
85.1 -0.00105
85.15 -0.00116
85.2 -0.00134
85.25 -0.00133
85.3 -0.00138
85.35 -0.0014
85.4 -0.00133
85.45 -0.00132
85.5 -0.00125
85.55 -0.00122
85.6 -0.00109
85.65 -0.00105
85.7 -0.00109
85.75 -0.00109
85.8 -0.0011
85.85 -0.00103
85.9 -0.00103
85.95 -0.00113
86 -0.00094
86.05 -0.00072
86.1 -0.00073
86.15 -0.00061
86.2 -0.00052
86.25 -0.00061
86.3 -0.00058
86.35 -0.00064
86.4 -0.00071
86.45 -0.00076
86.5 -0.00085
86.55 -0.00084
86.6 -0.00089
86.65 -0.00089
86.7 -0.00078
86.75 -0.00068
86.8 -6e-04
86.85 -0.00041
86.9 -0.00041
86.95 -0.00031
87 -0.00026
87.05 -8e-05
87.1 5e-05
87.15 -9e-05
87.2 -0.00024
87.25 -0.00045
87.3 -0.00055
87.35 -5e-04
87.4 -0.00055
87.45 -0.00056
87.5 -0.00057
87.55 -0.00063
87.6 -0.00073
87.65 -0.00059
87.7 -0.00056
87.75 -0.00063
87.8 -0.00062
87.85 -0.00059
87.9 -0.00056
87.95 -0.00055
88 -0.00056
88.05 -0.00044
88.1 -0.00023
88.15 -0.00024
88.2 -0.00019
88.25 -2e-04
88.3 -0.00023
88.35 -0.00047
88.4 -0.00062
88.45 -0.00083
88.5 -0.00074
88.55 -0.00061
88.6 -0.00053
88.65 -0.00054
88.7 -0.00026
88.75 -0.00014
88.8 4e-05
88.85 0.00018
88.9 0.00012
88.95 4e-04
89 0.00038
89.05 0.00034
89.1 0.00012
89.15 4e-05
89.2 4e-05
89.25 -1e-04
89.3 -6e-05
89.35 -3e-05
89.4 9e-05
89.45 0.00024
89.5 0.00034
89.55 0.00035
89.6 0.00017
89.65 -0.00015
89.7 -0.00057
89.75 -0.00067
89.8 -0.00069
89.85 -0.00074
89.9 -0.00066
89.95 -0.00059
90 -0.00053
90.05 -4e-04
90.1 -0.00037
90.15 -0.00055
90.2 -0.00066
90.25 -0.00064
90.3 -0.00059
90.35 -0.00067
90.4 -8e-04
90.45 -0.00076
90.5 -0.00068
90.55 -0.00062
90.6 -0.00052
90.65 -0.00052
90.7 -0.00045
90.75 -0.00037
90.8 -0.00015
90.85 -1e-04
90.9 -1e-05
90.95 0.00014
91 0.00015
91.05 0.00039
91.1 0.00044
91.15 0.00037
91.2 0.00029
91.25 0.00021
91.3 1e-04
91.35 -1e-05
91.4 -0.00017
91.45 -0.00039
91.5 -0.00047
91.55 -0.00048
91.6 -0.00056
91.65 -0.00051
91.7 -0.00046
91.75 -0.00022
91.8 -0.00014
91.85 -0.00016
91.9 -0.00015
91.95 0
92 0.00014
92.05 0.00026
92.1 0.00017
92.15 7e-05
92.2 -2e-05
92.25 2e-05
92.3 3e-05
92.35 -1e-05
92.4 2e-05
92.45 4e-05
92.5 9e-05
92.55 0.00014
92.6 2e-04
92.65 3e-04
92.7 0.00028
92.75 0.00025
92.8 0.00028
92.85 0.00035
92.9 0.00018
92.95 3e-05
93 0
93.05 -5e-05
93.1 -0.00014
93.15 -0.00025
93.2 -0.00044
93.25 -0.00055
93.3 -0.00076
93.35 -0.00085
93.4 -0.00092
93.45 -0.00093
93.5 -0.00078
93.55 -0.00058
93.6 -0.00029
93.65 -7e-05
93.7 0
93.75 -2e-05
93.8 0.00021
93.85 0.00024
93.9 0.00046
93.95 0.00057
94 6e-04
94.05 0.00058
94.1 0.00072
94.15 0.00079
94.2 0.00073
94.25 0.00063
94.3 0.00042
94.35 1e-04
94.4 -0.00021
94.45 -0.00054
94.5 -7e-04
94.55 -0.00093
94.6 -0.00101
94.65 -0.00111
94.7 -0.00105
94.75 -0.00086
94.8 -0.00066
94.85 -0.00057
94.9 -0.00055
94.95 -0.00053
95 -0.00026
95.05 -0.00012
95.1 -8e-05
95.15 -3e-05
95.2 3e-05
95.25 0.00014
95.3 3e-04
95.35 0.00042
95.4 0.00042
95.45 0.00019
95.5 -8e-05
95.55 -0.00025
95.6 -0.00032
95.65 -6e-04
95.7 -7e-04
95.75 -0.00054
95.8 -0.00024
95.85 4e-05
95.9 2e-05
95.95 0
96 3e-05
96.05 0.00014
96.1 0.00021
96.15 1e-05
96.2 1e-05
96.25 1e-05
96.3 -0.00013
96.35 -0.00025
96.4 -0.00027
96.45 -0.00014
96.5 -0.00012
96.55 -0.00029
96.6 -0.00039
96.65 -0.00045
96.7 -0.00051
96.75 -5e-04
96.8 -0.00046
96.85 -0.00031
96.9 -0.00015
96.95 -0.00021
97 -0.00021
97.05 -0.00025
97.1 -0.00014
97.15 -0.00014
97.2 -0.00011
97.25 8e-05
97.3 0.00026
97.35 0.00039
97.4 0.00037
97.45 8e-05
97.5 -5e-05
97.55 -0.00041
97.6 -0.00052
97.65 -0.00058
97.7 -0.00063
97.75 -0.00049
97.8 -3e-04
97.85 -0.00011
97.9 -2e-05
97.95 0
98 -7e-05
98.05 -0.00023
98.1 -0.00022
98.15 -0.00025
98.2 -2e-04
98.25 -0.00025
98.3 -0.00043
98.35 -0.00065
98.4 -0.00064
98.45 -0.00077
98.5 -0.00088
98.55 -8e-04
98.6 -0.00055
98.65 -0.00027
98.7 -8e-05
98.75 2e-05
98.8 0.00014
98.85 0.00016
98.9 8e-05
98.95 -3e-05
99 -5e-05
99.05 4e-05
99.1 -3e-05
99.15 4e-05
99.2 -1e-05
99.25 0.00015
99.3 0.00012
99.35 -0.00017
99.4 -3e-04
99.45 -0.00036
99.5 -0.00026
99.55 -0.00018
99.6 -2e-04
99.65 -0.00012
99.7 -0.00012
99.75 -0.00018
99.8 -0.00018
99.85 -7e-05
99.9 -8e-05
99.95 -0.00015
