0 0
0.05 0.0042
0.1 0.01136
0.15 0.01882
0.2 0.02721
0.25 0.03519
0.3 0.04122
0.35 0.04547
0.4 0.04851
0.45 0.04973
0.5 0.05045
0.55 0.05067
0.6 0.04999
0.65 0.04927
0.7 0.04882
0.75 0.04702
0.8 0.04597
0.85 0.04417
0.9 0.04297
0.95 0.04209
1 0.04159
1.05 0.03985
1.1 0.03905
1.15 0.0385
1.2 0.03792
1.25 0.03791
1.3 0.03761
1.35 0.03702
1.4 0.03584
1.45 0.03603
1.5 0.03648
1.55 0.03601
1.6 0.03498
1.65 0.03408
1.7 0.03416
1.75 0.03458
1.8 0.03588
1.85 0.03687
1.9 0.03787
1.95 0.03859
2 0.03856
2.05 0.0384
2.1 0.03678
2.15 0.03468
2.2 0.0342
2.25 0.03243
2.3 0.03159
2.35 0.0295
2.4 0.0275
2.45 0.02527
2.5 0.02305
2.55 0.0206
2.6 0.01899
2.65 0.01882
2.7 0.01871
2.75 0.01909
2.8 0.02005
2.85 0.02123
2.9 0.02253
2.95 0.02387
3 0.02447
3.05 0.02396
3.1 0.02444
3.15 0.02345
3.2 0.02228
3.25 0.02223
3.3 0.022
3.35 0.02245
3.4 0.02309
3.45 0.02244
3.5 0.02226
3.55 0.02168
3.6 0.02081
3.65 0.02002
3.7 0.01884
3.75 0.0185
3.8 0.01761
3.85 0.01674
3.9 0.01621
3.95 0.01473
4 0.01398
4.05 0.01411
4.1 0.01394
4.15 0.01239
4.2 0.01063
4.25 0.00876
4.3 0.00674
4.35 0.00377
4.4 6e-05
4.45 -0.00431
4.5 -0.01025
4.55 -0.01815
4.6 -0.02889
4.65 -0.04208
4.7 -0.05892
4.75 -0.07728
4.8 -0.09951
4.85 -0.12464
4.9 -0.15424
4.95 -0.18817
5 -0.22734
5.05 -0.27153
5.1 -0.3212
5.15 -0.37602
5.2 -0.43605
5.25 -0.50017
5.3 -0.56995
5.35 -0.64341
5.4 -0.72284
5.45 -0.80678
5.5 -0.89394
5.55 -0.98393
5.6 -1.07656
5.65 -1.16968
5.7 -1.26334
5.75 -1.35694
5.8 -1.44933
5.85 -1.53966
5.9 -1.62706
5.95 -1.71247
6 -1.79408
6.05 -1.87116
6.1 -1.944
6.15 -2.01318
6.2 -2.0783
6.25 -2.13911
6.3 -2.195
6.35 -2.2459
6.4 -2.29018
6.45 -2.32851
6.5 -2.36019
6.55 -2.38274
6.6 -2.39652
6.65 -2.39876
6.7 -2.38908
6.75 -2.36625
6.8 -2.32986
6.85 -2.27836
6.9 -2.2126
6.95 -2.13197
7 -2.03611
7.05 -1.92481
7.1 -1.79879
7.15 -1.65782
7.2 -1.50397
7.25 -1.33945
7.3 -1.16512
7.35 -0.98259
7.4 -0.79438
7.45 -0.60277
7.5 -0.40868
7.55 -0.21272
7.6 -0.01842
7.65 0.17371
7.7 0.36024
7.75 0.53917
7.8 0.71031
7.85 0.87271
7.9 1.02667
7.95 1.17143
8 1.3044
8.05 1.426
8.1 1.53564
8.15 1.63459
8.2 1.72303
8.25 1.80211
8.3 1.87068
8.35 1.92868
8.4 1.97822
8.45 2.01957
8.5 2.05288
8.55 2.07953
8.6 2.10014
8.65 2.11481
8.7 2.12288
8.75 2.12671
8.8 2.12597
8.85 2.12198
8.9 2.11487
8.95 2.1066
9 2.09572
9.05 2.08316
9.1 2.06912
9.15 2.05407
9.2 2.03776
9.25 2.01933
9.3 1.99906
9.35 1.97722
9.4 1.9549
9.45 1.93207
9.5 1.9098
9.55 1.88564
9.6 1.86057
9.65 1.83478
9.7 1.80839
9.75 1.78081
9.8 1.75146
9.85 1.72052
9.9 1.68816
9.95 1.65504
10 1.62089
10.05 1.58544
10.1 1.54846
10.15 1.51012
10.2 1.47087
10.25 1.43168
10.3 1.39175
10.35 1.34935
10.4 1.30682
10.45 1.26317
10.5 1.22034
10.55 1.1764
10.6 1.13302
10.65 1.08965
10.7 1.04652
10.75 1.00237
10.8 0.95813
10.85 0.9119
10.9 0.86613
10.95 0.82079
11 0.77662
11.05 0.73288
11.1 0.69025
11.15 0.64747
11.2 0.60524
11.25 0.56379
11.3 0.52245
11.35 0.48238
11.4 0.44303
11.45 0.40401
11.5 0.3656
11.55 0.32872
11.6 0.29214
11.65 0.2558
11.7 0.22041
11.75 0.18567
11.8 0.15205
11.85 0.12071
11.9 0.09118
11.95 0.06287
12 0.03569
12.05 0.0098
12.1 -0.01569
12.15 -0.04035
12.2 -0.06402
12.25 -0.08592
12.3 -0.10682
12.35 -0.12747
12.4 -0.14673
12.45 -0.16569
12.5 -0.18355
12.55 -0.19974
12.6 -0.21385
12.65 -0.22704
12.7 -0.23963
12.75 -0.25164
12.8 -0.26267
12.85 -0.27321
12.9 -0.28298
12.95 -0.29191
13 -0.30141
13.05 -0.31109
13.1 -0.31971
13.15 -0.3273
13.2 -0.33299
13.25 -0.33934
13.3 -0.34443
13.35 -0.34684
13.4 -0.34828
13.45 -0.3502
13.5 -0.35264
13.55 -0.35493
13.6 -0.35645
13.65 -0.35806
13.7 -0.35992
13.75 -0.36082
13.8 -0.36114
13.85 -0.36056
13.9 -0.35953
13.95 -0.35843
14 -0.35713
14.05 -0.35672
14.1 -0.35576
14.15 -0.35388
14.2 -0.35125
14.25 -0.34881
14.3 -0.34667
14.35 -0.3435
14.4 -0.33869
14.45 -0.33376
14.5 -0.32977
14.55 -0.32538
14.6 -0.32167
14.65 -0.31808
14.7 -0.31424
14.75 -0.3107
14.8 -0.30745
14.85 -0.30367
14.9 -0.29971
14.95 -0.29492
15 -0.29048
15.05 -0.28634
15.1 -0.28159
15.15 -0.27653
15.2 -0.27152
15.25 -0.26743
15.3 -0.26294
15.35 -0.25962
15.4 -0.25685
15.45 -0.25334
15.5 -0.24948
15.55 -0.24582
15.6 -0.24169
15.65 -0.2382
15.7 -0.23449
15.75 -0.23088
15.8 -0.2282
15.85 -0.22587
15.9 -0.22317
15.95 -0.22036
16 -0.21718
16.05 -0.21454
16.1 -0.21089
16.15 -0.20735
16.2 -0.20439
16.25 -0.20125
16.3 -0.19809
16.35 -0.19533
16.4 -0.19301
16.45 -0.19081
16.5 -0.18847
16.55 -0.18557
16.6 -0.18272
16.65 -0.18012
16.7 -0.17634
16.75 -0.17267
16.8 -0.16956
16.85 -0.16722
16.9 -0.16468
16.95 -0.16131
17 -0.15837
17.05 -0.15635
17.1 -0.15381
17.15 -0.15109
17.2 -0.14813
17.25 -0.14607
17.3 -0.14328
17.35 -0.14078
17.4 -0.13865
17.45 -0.13626
17.5 -0.13333
17.55 -0.13096
17.6 -0.12852
17.65 -0.12666
17.7 -0.12529
17.75 -0.12373
17.8 -0.12164
17.85 -0.11916
17.9 -0.11713
17.95 -0.11447
18 -0.11254
18.05 -0.11079
18.1 -0.10981
18.15 -0.10921
18.2 -0.10857
18.25 -0.10798
18.3 -0.10684
18.35 -0.10619
18.4 -0.10413
18.45 -0.10189
18.5 -0.09982
18.55 -0.09746
18.6 -0.09697
18.65 -0.09552
18.7 -0.09446
18.75 -0.09334
18.8 -0.09218
18.85 -0.09035
18.9 -0.08967
18.95 -0.08907
19 -0.08843
19.05 -0.08671
19.1 -0.08512
19.15 -0.08407
19.2 -0.08202
19.25 -0.07957
19.3 -0.07714
19.35 -0.07498
19.4 -0.07399
19.45 -0.07245
19.5 -0.07137
19.55 -0.06985
19.6 -0.06945
19.65 -0.0689
19.7 -0.06774
19.75 -0.06569
19.8 -0.06316
19.85 -0.06171
19.9 -0.06048
19.95 -0.05966
20 -0.05859
20.05 -0.05776
20.1 -0.05785
20.15 -0.05799
20.2 -0.05806
20.25 -0.05802
20.3 -0.05655
20.35 -0.05556
20.4 -0.05379
20.45 -0.05314
20.5 -0.05193
20.55 -0.05186
20.6 -0.05187
20.65 -0.05188
20.7 -0.05232
20.75 -0.05226
20.8 -0.05224
20.85 -0.05215
20.9 -0.05148
20.95 -0.05063
21 -0.04865
21.05 -0.0478
21.1 -0.04644
21.15 -0.04452
21.2 -0.043
21.25 -0.04243
21.3 -0.04153
21.35 -0.04142
21.4 -0.04125
21.45 -0.0401
21.5 -0.0394
21.55 -0.03958
21.6 -0.03866
21.65 -0.03754
21.7 -0.03695
21.75 -0.0365
21.8 -0.03565
21.85 -0.03463
21.9 -0.03477
21.95 -0.03522
22 -0.03616
22.05 -0.03672
22.1 -0.03584
22.15 -0.036
22.2 -0.03639
22.25 -0.03634
22.3 -0.03535
22.35 -0.03409
22.4 -0.03264
22.45 -0.03119
22.5 -0.03035
22.55 -0.02942
22.6 -0.0284
22.65 -0.02828
22.7 -0.02753
22.75 -0.02747
22.8 -0.02738
22.85 -0.02703
22.9 -0.02704
22.95 -0.02596
23 -0.02453
23.05 -0.02297
23.1 -0.02152
23.15 -0.02082
23.2 -0.02026
23.25 -0.0202
23.3 -0.02052
23.35 -0.02129
23.4 -0.02081
23.45 -0.01937
23.5 -0.01828
23.55 -0.01737
23.6 -0.01692
23.65 -0.01624
23.7 -0.0157
23.75 -0.01591
23.8 -0.01675
23.85 -0.01768
23.9 -0.01826
23.95 -0.0183
24 -0.01781
24.05 -0.01766
24.1 -0.01695
24.15 -0.01666
24.2 -0.01644
24.25 -0.01697
24.3 -0.01844
24.35 -0.01973
24.4 -0.01996
24.45 -0.0212
24.5 -0.02179
24.55 -0.02054
24.6 -0.01892
24.65 -0.01759
24.7 -0.01691
24.75 -0.01647
24.8 -0.01626
24.85 -0.01687
24.9 -0.01734
24.95 -0.01668
25 -0.01609
25.05 -0.01473
25.1 -0.01362
25.15 -0.01254
25.2 -0.01066
25.25 -0.00936
25.3 -0.00871
25.35 -0.00827
25.4 -0.00804
25.45 -0.0077
25.5 -0.00762
25.55 -0.00766
25.6 -0.00791
25.65 -0.00857
25.7 -0.01009
25.75 -0.00981
25.8 -0.00979
25.85 -0.00974
25.9 -0.00946
25.95 -0.01042
26 -0.01117
26.05 -0.0119
26.1 -0.01112
26.15 -0.00973
26.2 -0.00894
26.25 -0.00841
26.3 -0.00742
26.35 -0.00637
26.4 -0.00509
26.45 -0.00434
26.5 -0.00493
26.55 -0.00548
26.6 -0.00607
26.65 -0.00587
26.7 -0.0057
26.75 -0.00601
26.8 -0.00592
26.85 -0.00595
26.9 -0.00608
26.95 -0.00564
27 -0.00421
27.05 -0.00396
27.1 -0.00462
27.15 -0.00642
27.2 -0.00747
27.25 -0.00816
27.3 -0.00789
27.35 -0.00788
27.4 -0.0077
27.45 -0.00704
27.5 -0.00695
27.55 -0.00697
27.6 -0.00687
27.65 -0.0064
27.7 -0.0058
27.75 -0.00565
27.8 -0.00572
27.85 -0.00556
27.9 -0.00528
27.95 -0.00494
28 -0.00476
28.05 -0.00562
28.1 -0.00552
28.15 -0.00578
28.2 -0.00573
28.25 -0.00612
28.3 -0.00603
28.35 -0.00616
28.4 -0.00628
28.45 -0.00663
28.5 -0.00648
28.55 -0.00563
28.6 -0.00516
28.65 -0.00616
28.7 -0.0068
28.75 -0.00717
28.8 -0.00731
28.85 -0.00739
28.9 -0.00667
28.95 -0.00607
29 -0.00511
29.05 -0.00498
29.1 -0.00428
29.15 -0.00361
29.2 -0.00362
29.25 -0.0044
29.3 -0.00612
29.35 -0.00758
29.4 -0.00805
29.45 -0.00812
29.5 -0.00802
29.55 -0.00741
29.6 -0.0078
29.65 -0.00814
29.7 -0.00879
29.75 -0.00896
29.8 -0.00853
29.85 -0.00913
29.9 -0.01024
29.95 -0.0104
30 -0.0104
30.05 -0.00991
30.1 -0.00938
30.15 -0.00888
30.2 -0.00923
30.25 -0.00945
30.3 -0.00901
30.35 -0.00816
30.4 -0.00738
30.45 -0.00594
30.5 -0.0056
30.55 -0.00536
30.6 -0.00592
30.65 -0.00711
30.7 -0.0075
30.75 -0.00697
30.8 -0.00532
30.85 -0.00447
30.9 -0.00366
30.95 -0.00471
31 -0.00507
31.05 -0.00521
31.1 -0.00453
31.15 -0.0026
31.2 -0.00113
31.25 -0.00093
31.3 -0.00069
31.35 -0.00084
31.4 -6e-04
31.45 -0.00035
31.5 0.00065
31.55 0.00077
31.6 0.00131
31.65 0.00183
31.7 0.00261
31.75 0.00295
31.8 0.00316
31.85 0.00224
31.9 0.00087
31.95 0.00032
32 0.00042
32.05 0.00047
32.1 0.00112
32.15 0.00185
32.2 0.00266
32.25 0.00355
32.3 0.00338
32.35 0.00322
32.4 0.00299
32.45 0.00244
32.5 0.00238
32.55 0.00232
32.6 0.00245
32.65 0.00293
32.7 0.0027
32.75 0.00179
32.8 0.00209
32.85 0.00278
32.9 0.00473
32.95 0.00599
33 0.0056
33.05 0.00428
33.1 0.00211
33.15 0.00099
33.2 -6e-05
33.25 -0.00101
33.3 -0.0015
33.35 -0.00136
33.4 -0.00056
33.45 0.00045
33.5 0.00176
33.55 0.00189
33.6 0.00167
33.65 0.00086
33.7 0.00023
33.75 -0.00099
33.8 -0.00079
33.85 -0.00097
33.9 -0.00106
33.95 -0.00145
34 -0.002
34.05 -0.00314
34.1 -0.00323
34.15 -0.00318
34.2 -0.00301
34.25 -0.00226
34.3 -0.00139
34.35 -0.00079
34.4 2e-04
34.45 0.00065
34.5 0.00145
34.55 0.00241
34.6 0.00313
34.65 0.0031
34.7 0.00322
34.75 0.0029
34.8 0.00204
34.85 0.00153
34.9 0.00141
34.95 0.00195
35 0.00239
35.05 0.00237
35.1 0.00203
35.15 0.00162
35.2 0.00076
35.25 -0.00022
35.3 -0.00026
35.35 -0.00059
35.4 -0.00091
35.45 -0.00122
35.5 -0.00059
35.55 0.00074
35.6 0.00086
35.65 0.00102
35.7 9e-05
35.75 -0.001
35.8 -0.00238
35.85 -0.00242
35.9 -0.0024
35.95 -0.00285
36 -0.00294
36.05 -0.00215
36.1 -0.0023
36.15 -0.00114
36.2 -8e-05
36.25 8e-05
36.3 0.00026
36.35 -0.00021
36.4 -0.00106
36.45 -0.00289
36.5 -0.00419
36.55 -0.00404
36.6 -0.00358
36.65 -0.00381
36.7 -0.00339
36.75 -0.00314
36.8 -0.00271
36.85 -0.00187
36.9 -0.00022
36.95 -2e-05
37 0.00023
37.05 0.00088
37.1 0.00123
37.15 0.00061
37.2 -4e-05
37.25 -0.00036
37.3 -0.00047
37.35 -0.00107
37.4 -0.00181
37.45 -0.0019
37.5 -0.00274
37.55 -0.00371
37.6 -0.00389
37.65 -0.00356
37.7 -0.00261
37.75 -0.00246
37.8 -0.00262
37.85 -0.00258
37.9 -0.00287
37.95 -0.00262
38 -0.00281
38.05 -0.0033
38.1 -0.00317
38.15 -0.00334
38.2 -0.00276
38.25 -0.00127
38.3 -5e-04
38.35 -0.00035
38.4 0.00023
38.45 0.00131
38.5 0.0015
38.55 0.0015
38.6 0.00171
38.65 0.0018
38.7 0.00216
38.75 0.00284
38.8 0.00391
38.85 0.00437
38.9 0.00471
38.95 0.00397
39 0.00259
39.05 0.0019
39.1 0
39.15 -0.0016
39.2 -0.00248
39.25 -0.00297
39.3 -0.0027
39.35 -0.00245
39.4 -0.00162
39.45 -0.00221
39.5 -0.00212
39.55 -0.00214
39.6 -0.00241
39.65 -0.00278
39.7 -0.00353
39.75 -0.00307
39.8 -0.00237
39.85 -0.00169
39.9 -0.00109
39.95 0.00011
40 0.00175
40.05 0.00301
40.1 0.00447
40.15 0.0059
40.2 0.00599
40.25 0.00495
40.3 0.00379
40.35 0.00271
40.4 0.00221
40.45 0.00099
40.5 0.00043
40.55 0.00047
40.6 6e-05
40.65 -0.00093
40.7 -0.00121
40.75 -0.00183
40.8 -0.00182
40.85 -0.00136
40.9 -0.00038
40.95 -0.00045
41 -0.00081
41.05 -0.0012
41.1 -0.00074
41.15 2e-05
41.2 -4e-05
41.25 0.00056
41.3 0.00121
41.35 0.00281
41.4 0.0033
41.45 0.0038
41.5 0.00269
41.55 0.00191
41.6 0.00103
41.65 6e-04
41.7 -0.00086
41.75 -0.00288
41.8 -0.00296
41.85 -0.00273
41.9 -0.00205
41.95 -0.00059
42 0.00016
42.05 0.00095
42.1 0.00098
42.15 4e-05
42.2 0.00047
42.25 0.00051
42.3 -0.00026
42.35 -0.00158
42.4 -0.0016
42.45 -0.00105
42.5 0.00047
42.55 0.00177
42.6 0.00221
42.65 0.00279
42.7 0.00349
42.75 0.00387
42.8 0.00372
42.85 0.00358
42.9 0.00237
42.95 0.00106
43 -0.00065
43.05 -0.00084
43.1 -0.00052
43.15 0.00027
43.2 4e-05
43.25 0.00011
43.3 0.00085
43.35 0.00147
43.4 0.00199
43.45 0.00148
43.5 0.00124
43.55 0.00033
43.6 -0.00101
43.65 -0.00212
43.7 -0.00321
43.75 -0.00341
43.8 -0.00326
43.85 -0.00287
43.9 -0.00244
43.95 -0.00254
44 -0.00187
44.05 -0.00091
44.1 -0.00058
44.15 -0.00055
44.2 -0.00072
44.25 -0.00102
44.3 -0.00179
44.35 -0.00264
44.4 -0.00361
44.45 -0.00442
44.5 -0.00519
44.55 -0.00533
44.6 -0.00559
44.65 -0.00504
44.7 -0.00395
44.75 -0.00314
44.8 -0.00192
44.85 -0.00103
44.9 0.00073
44.95 0.00201
45 0.00445
45.05 0.00602
45.1 0.0059
45.15 0.0044
45.2 0.00345
45.25 0.00201
45.3 0.00093
45.35 5e-04
45.4 0.00062
45.45 -3e-05
45.5 0.00024
45.55 0.00076
45.6 0.00054
45.65 -8e-05
45.7 -0.00028
45.75 -0.00112
45.8 -0.00164
45.85 -0.00175
45.9 -0.00072
45.95 -0.00019
46 2e-04
46.05 0.00041
46.1 5e-04
46.15 0.00064
46.2 0.00101
46.25 0.00014
46.3 -0.00073
46.35 -1e-05
46.4 -0.00038
46.45 -0.00092
46.5 -0.001
46.55 -0.00164
46.6 -0.00292
46.65 -0.00395
46.7 -0.00478
46.75 -0.00504
46.8 -0.00474
46.85 -0.00431
46.9 -0.00426
46.95 -0.00433
47 -0.00339
47.05 -0.0024
47.1 -0.00092
47.15 -0.00036
47.2 -5e-04
47.25 -0.00145
47.3 -0.00131
47.35 -0.00105
47.4 -9e-04
47.45 0.00012
47.5 -0.00021
47.55 -0.00025
47.6 2e-04
47.65 4e-05
47.7 -0.00018
47.75 0.00023
47.8 0.00031
47.85 -0.00114
47.9 -0.00061
47.95 -0.00048
48 -0.00036
48.05 -0.00048
48.1 -0.00089
48.15 -0.0013
48.2 -0.00151
48.25 -0.00131
48.3 -0.0017
48.35 -0.00196
48.4 -0.00256
48.45 -0.00303
48.5 -0.00308
48.55 -0.00329
48.6 -0.00436
48.65 -0.00422
48.7 -0.00341
48.75 -0.00299
48.8 -0.00238
48.85 -0.00335
48.9 -0.00389
48.95 -0.00416
49 -0.00312
49.05 -0.00175
49.1 -0.00059
49.15 -7e-05
49.2 5e-05
49.25 3e-04
49.3 0.00054
49.35 -0.00022
49.4 -4e-04
49.45 -1e-04
49.5 9e-04
49.55 0.00043
49.6 -0.00059
49.65 -0.00103
49.7 -0.00161
49.75 -0.0027
49.8 -0.00364
49.85 -0.00456
49.9 -0.00559
49.95 -0.0058
50 -0.00559
50.05 -0.0047
50.1 -0.00342
50.15 -0.00235
50.2 -0.00105
50.25 -0.00029
50.3 0.00071
50.35 0.00051
50.4 0.00042
50.45 0.00043
50.5 0.00025
50.55 -0.00073
50.6 -0.00214
50.65 -0.0023
50.7 -0.00249
50.75 -0.00303
50.8 -0.00344
50.85 -0.00401
50.9 -0.00474
50.95 -0.0039
51 -0.00293
51.05 -0.0017
51.1 -0.00119
51.15 -0.00145
51.2 -0.00103
51.25 1e-04
51.3 -0.00016
51.35 -0.00092
51.4 -0.00127
51.45 -0.0015
51.5 -0.00143
51.55 -0.00167
51.6 -0.00176
51.65 -0.00208
51.7 -0.00238
51.75 -0.00233
51.8 -0.00195
51.85 -0.00108
51.9 -0.00014
51.95 0.00037
52 0.0016
52.05 0.00283
52.1 0.00347
52.15 0.00378
52.2 0.00301
52.25 0.00272
52.3 0.00212
52.35 0.00179
52.4 0.00154
52.45 0.00153
52.5 0.0014
52.55 0.00104
52.6 0.00136
52.65 0.00217
52.7 0.00204
52.75 0.00119
52.8 0.00207
52.85 0.00337
52.9 0.00512
52.95 0.00614
53 0.00556
53.05 0.00444
53.1 0.00387
53.15 0.00309
53.2 0.00321
53.25 0.00229
53.3 0.00171
53.35 0.00112
53.4 0.00124
53.45 0.00173
53.5 0.00217
53.55 0.00276
53.6 0.00286
53.65 0.00297
53.7 0.00313
53.75 0.00225
53.8 0.00136
53.85 -0.00041
53.9 -0.00172
53.95 -0.00251
54 -0.00344
54.05 -0.00367
54.1 -0.00256
54.15 -0.00209
54.2 -0.00159
54.25 -0.00081
54.3 -0.00098
54.35 -0.00033
54.4 0.00066
54.45 0.00055
54.5 -0.00043
54.55 -0.00103
54.6 -0.00078
54.65 -0.00167
54.7 -0.00222
54.75 -0.00254
54.8 -0.00218
54.85 -0.00109
54.9 -0.00035
54.95 -0.00079
55 -0.00145
55.05 -0.00113
55.1 -0.00127
55.15 -0.00096
55.2 0.00056
55.25 0.00111
55.3 0.0021
55.35 0.00241
55.4 0.00239
55.45 0.00176
55.5 0.00121
55.55 0.00085
55.6 0.00047
55.65 -0.00032
55.7 -0.00162
55.75 -0.00233
55.8 -0.00393
55.85 -0.00519
55.9 -0.0059
55.95 -0.00629
56 -0.00614
56.05 -0.00581
56.1 -0.00668
56.15 -0.00685
56.2 -0.0067
56.25 -0.00654
56.3 -0.00516
56.35 -0.0038
56.4 -0.00278
56.45 -0.00207
56.5 -0.001
56.55 -0.00041
56.6 -7e-05
56.65 -1e-05
56.7 -3e-04
56.75 -0.00039
56.8 0.00104
56.85 0.002
56.9 0.00165
56.95 0.0024
57 0.00297
57.05 0.0034
57.1 0.00461
57.15 0.00496
57.2 0.00553
57.25 0.00523
57.3 0.00488
57.35 0.00492
57.4 0.00495
57.45 0.00445
57.5 0.00305
57.55 9e-04
57.6 -0.00052
57.65 -0.00254
57.7 -0.00477
57.75 -0.00615
57.8 -0.00647
57.85 -0.0078
57.9 -0.00955
57.95 -0.01028
58 -0.01122
58.05 -0.01106
58.1 -0.01084
58.15 -0.01091
58.2 -0.00936
58.25 -0.00703
58.3 -0.00474
58.35 -0.00299
58.4 -0.00157
58.45 -4e-05
58.5 0.00032
58.55 0.00125
58.6 0.00193
58.65 0.00295
58.7 0.00221
58.75 0.0013
58.8 0.00091
58.85 0.00079
58.9 0.00053
58.95 0.00084
59 0.0012
59.05 0.00206
59.1 0.00279
59.15 0.00237
59.2 0.00221
59.25 0.00249
59.3 0.00187
59.35 0.00113
59.4 0.00073
59.45 0.00067
59.5 0.00064
59.55 0.00056
59.6 0.00074
59.65 4e-05
59.7 -0.00059
59.75 -0.00105
59.8 -0.00187
59.85 -7e-04
59.9 -8e-04
59.95 -0.00113
60 -0.00074
60.05 8e-05
60.1 -0.00027
60.15 -0.00111
60.2 -0.00163
60.25 -0.0022
60.3 -0.00259
60.35 -0.00233
60.4 -0.00202
60.45 -3e-04
60.5 0.00166
60.55 0.00218
60.6 0.00187
60.65 0.00141
60.7 0.00063
60.75 6e-05
60.8 -0.00122
60.85 -0.00187
60.9 -0.00176
60.95 -0.00151
61 -0.00043
61.05 0.00049
61.1 0.00132
61.15 0.0024
61.2 0.00335
61.25 0.00393
61.3 0.00422
61.35 0.00357
61.4 0.00282
61.45 0.00129
61.5 0.00068
61.55 0.00029
61.6 -0.00039
61.65 3e-04
61.7 0.00123
61.75 0.00265
61.8 0.0031
61.85 0.00283
61.9 0.00256
61.95 0.00221
62 0.00145
62.05 0.00109
62.1 0.00216
62.15 0.00201
62.2 0.00188
62.25 0.00128
62.3 0.00053
62.35 -0.00078
62.4 -0.00142
62.45 -0.00149
62.5 -0.00145
62.55 -0.00026
62.6 0.00113
62.65 0.00051
62.7 -0.00062
62.75 -0.00077
62.8 -0.0012
62.85 -0.00205
62.9 -0.00222
62.95 -0.00311
63 -0.00308
63.05 -0.00294
63.1 -0.00225
63.15 -0.00179
63.2 -0.00113
63.25 -0.00113
63.3 -0.00032
63.35 0.00038
63.4 0.00136
63.45 0.00194
63.5 0.00239
63.55 0.00273
63.6 0.00246
63.65 0.00187
63.7 0.00169
63.75 0.00237
63.8 0.00165
63.85 0.00136
63.9 0.00144
63.95 0.00155
64 0.00151
64.05 0.00075
64.1 7e-05
64.15 -0.00025
64.2 0.00018
64.25 -0.00011
64.3 -0.00018
64.35 -0.00014
64.4 0.00016
64.45 0.00048
64.5 0.00051
64.55 -6e-05
64.6 -0.00112
64.65 -0.0024
64.7 -0.00336
64.75 -0.00379
64.8 -0.0031
64.85 -0.00226
64.9 -0.00142
64.95 -5e-04
65 0.00049
65.05 0.00138
65.1 0.00157
65.15 0.00136
65.2 0.00045
65.25 -0.00047
65.3 -0.00117
65.35 -0.00169
65.4 -0.00162
65.45 -0.00193
65.5 -0.00102
65.55 -0.00055
65.6 0.00068
65.65 0.00123
65.7 0.00056
65.75 -3e-05
65.8 -0.00048
65.85 -0.00122
65.9 -0.00235
65.95 -0.00291
66 -0.00216
66.05 -0.00172
66.1 -0.002
66.15 -0.0027
66.2 -0.00259
66.25 -0.00255
66.3 -0.00227
66.35 -0.00203
66.4 -0.0015
66.45 -0.00077
66.5 -2e-05
66.55 -0.00027
66.6 -0.00147
66.65 -0.00055
66.7 0.00025
66.75 0.00112
66.8 0.00118
66.85 0.00021
66.9 -0.00097
66.95 -0.00199
67 -0.00221
67.05 -0.00203
67.1 -0.00117
67.15 -0.00068
67.2 -0.00086
67.25 -0.00102
67.3 -0.00096
67.35 -0.00084
67.4 -0.00056
67.45 0.00018
67.5 -0.00015
67.55 -0.00037
67.6 -0.00014
67.65 -0.00028
67.7 0.00015
67.75 0.00116
67.8 0.00124
67.85 0.00192
67.9 0.00253
67.95 0.00294
68 0.00216
68.05 0.0018
68.1 0.00183
68.15 0.00195
68.2 0.00191
68.25 0.00076
68.3 -0.00013
68.35 -0.00087
68.4 -0.00133
68.45 -0.00108
68.5 -0.00118
68.55 -0.00112
68.6 -0.00111
68.65 -0.00171
68.7 -0.00206
68.75 -0.00247
68.8 -0.00269
68.85 -0.00236
68.9 -0.00185
68.95 -0.00124
69 -5e-04
69.05 -0.00041
69.1 0.00045
69.15 9e-05
69.2 0.00029
69.25 0.00034
69.3 0.00119
69.35 0.00156
69.4 0.00152
69.45 0.00222
69.5 0.0036
69.55 0.00357
69.6 0.0032
69.65 0.00259
69.7 0.00195
69.75 0.00092
69.8 0.00023
69.85 -0.00057
69.9 -8e-04
69.95 -0.00085
70 -0.00098
70.05 -0.00119
70.1 -0.00194
70.15 -0.00209
70.2 -0.00213
70.25 -0.00239
70.3 -0.00225
70.35 -0.00324
70.4 -0.00454
70.45 -0.00437
70.5 -0.00424
70.55 -0.00388
70.6 -0.00312
70.65 -0.00271
70.7 -0.00278
70.75 -0.00258
70.8 -0.00237
70.85 -0.00138
70.9 -2e-05
70.95 0.00117
71 0.00109
71.05 0.00108
71.1 0.00125
71.15 0.00127
71.2 0.00093
71.25 0.00108
71.3 0.00048
71.35 0.00083
71.4 0.00047
71.45 0.00012
71.5 0
71.55 0.00082
71.6 0.00127
71.65 8e-04
71.7 0.00061
71.75 0.00117
71.8 0.00146
71.85 0.00119
71.9 0.00102
71.95 0.00086
72 0.00054
72.05 -1e-05
72.1 -0.00051
72.15 -0.00023
72.2 -0.00074
72.25 -9e-04
72.3 -0.0016
72.35 -0.0021
72.4 -0.002
72.45 -0.00173
72.5 -0.00056
72.55 0.00038
72.6 5e-04
72.65 -6e-05
72.7 0.00066
72.75 0.00099
72.8 0.00194
72.85 0.00261
72.9 0.00219
72.95 0.00243
73 0.00312
73.05 0.0024
73.1 0.00136
73.15 0.00123
73.2 0.00141
73.25 -5e-05
73.3 -0.00105
73.35 -0.00126
73.4 -0.00146
73.45 -0.00196
73.5 -0.00216
73.55 -0.00251
73.6 -0.00255
73.65 -0.00183
73.7 -0.00152
73.75 -0.00143
73.8 -4e-04
73.85 0.00051
73.9 0.00093
73.95 0.00074
74 -0.00079
74.05 -0.00144
74.1 -0.00206
74.15 -0.00216
74.2 -0.00226
74.25 -0.00288
74.3 -0.00412
74.35 -0.00399
74.4 -0.00349
74.45 -0.00317
74.5 -0.00243
74.55 -0.00236
74.6 -0.00198
74.65 -0.00163
74.7 -0.00089
74.75 0.00013
74.8 0.00158
74.85 0.00148
74.9 0.00056
74.95 0.00057
75 -0.00031
75.05 -0.00094
75.1 -0.00198
75.15 -0.00179
75.2 -0.00202
75.25 -0.00096
75.3 0.00106
75.35 0.00254
75.4 0.00313
75.45 0.00287
75.5 0.00218
75.55 0.00067
75.6 -0.00091
75.65 -0.00205
75.7 -0.00267
75.75 -0.00349
75.8 -0.00396
75.85 -0.00363
75.9 -0.0031
75.95 -0.00289
76 -0.00178
76.05 -0.00149
76.1 -0.00103
76.15 -0.00153
76.2 -0.00142
76.25 -6e-04
76.3 -0.00045
76.35 -0.00012
76.4 0.00071
76.45 0.0011
76.5 0.00143
76.55 0.00132
76.6 0.00037
76.65 -3e-05
76.7 -0.00057
76.75 -0.00124
76.8 -6e-04
76.85 -0.00016
76.9 -0.00026
76.95 -0.00013
77 -0.00023
77.05 0.00039
77.1 0.00063
77.15 0.00013
77.2 -4e-04
77.25 -0.00159
77.3 -0.00231
77.35 -0.0029
77.4 -0.00323
77.45 -0.00341
77.5 -0.00304
77.55 -0.00168
77.6 -0.00137
77.65 -0.00113
77.7 -0.00074
77.75 -0.00016
77.8 0.00067
77.85 0.00098
77.9 0.00284
77.95 0.00392
78 0.00381
78.05 0.00359
78.1 0.00363
78.15 0.00317
78.2 0.00188
78.25 0.00026
78.3 -0.00199
78.35 -0.00362
78.4 -0.0044
78.45 -0.00448
78.5 -0.00503
78.55 -0.00534
78.6 -0.00603
78.65 -0.00495
78.7 -0.00297
78.75 -0.00183
78.8 -0.00081
78.85 -0.00102
78.9 -0.00033
78.95 -0.00019
79 4e-05
79.05 1e-05
79.1 5e-04
79.15 0.00058
79.2 -3e-04
79.25 -0.00221
79.3 -0.00434
79.35 -0.00536
79.4 -0.00566
79.45 -0.00606
79.5 -0.0055
79.55 -0.00481
79.6 -0.00362
79.65 -0.00297
79.7 -0.00293
79.75 -0.00309
79.8 -0.00332
79.85 -0.00371
79.9 -0.00286
79.95 -0.00159
80 -0.00142
80.05 -0.00089
80.1 -0.00081
80.15 -0.00079
80.2 -0.00123
80.25 -0.00212
80.3 -0.00315
80.35 -0.0035
80.4 -0.00275
80.45 -0.00265
80.5 -0.00159
80.55 -0.00047
80.6 0.00039
80.65 0.0013
80.7 0.00263
80.75 0.00324
80.8 0.00204
80.85 0.00039
80.9 -7e-04
80.95 -0.00052
81 -0.00052
81.05 5e-05
81.1 0.00049
81.15 0.00161
81.2 0.00195
81.25 0.00162
81.3 0.00115
81.35 0.00076
81.4 0.00039
81.45 0.00032
81.5 0.00076
81.55 0.00114
81.6 0.00214
81.65 0.00165
81.7 0.00129
81.75 0.00118
81.8 0.00093
81.85 0.00028
81.9 -5e-05
81.95 -0.00095
82 -0.00191
82.05 -0.00252
82.1 -0.0036
82.15 -0.00453
82.2 -0.00467
82.25 -0.00446
82.3 -0.00396
82.35 -0.00243
82.4 -0.00165
82.45 -0.00245
82.5 -0.00185
82.55 -0.00086
82.6 -0.00079
82.65 -0.00173
82.7 -0.00237
82.75 -0.00273
82.8 -0.00369
82.85 -0.00352
82.9 -0.00208
82.95 -0.00101
83 0.00043
83.05 0.00115
83.1 0.00082
83.15 -2e-04
83.2 -0.00107
83.25 -0.00077
83.3 -0.00071
83.35 2e-05
83.4 0.00046
83.45 0.00073
83.5 0.001
83.55 -1e-04
83.6 -0.00033
83.65 -0.00059
83.7 -0.00157
83.75 -0.0026
83.8 -0.00295
83.85 -0.00279
83.9 -0.00228
83.95 -0.00151
84 -0.00199
84.05 -0.00143
84.1 -0.0015
84.15 -0.00172
84.2 -0.00231
84.25 -0.00298
84.3 -0.00253
84.35 -0.0022
84.4 -0.00139
84.45 -0.00099
84.5 -0.00024
84.55 0.00093
84.6 0.00234
84.65 0.00355
84.7 0.00382
84.75 0.00311
84.8 0.00242
84.85 0.00179
84.9 0.00084
84.95 0.00031
85 -0.00098
85.05 -0.00086
85.1 -0.00071
85.15 -0.00065
85.2 -0.00049
85.25 0.00013
85.3 0.00099
85.35 0.00225
85.4 0.00303
85.45 0.00295
85.5 0.0028
85.55 0.00405
85.6 0.00388
85.65 0.00333
85.7 0.00288
85.75 0.00224
85.8 0.00087
85.85 -0.00014
85.9 -0.00086
85.95 -0.00071
86 -0.00084
86.05 -0.00017
86.1 -0.00012
86.15 -0.00062
86.2 -0.00098
86.25 -0.00186
86.3 -0.00173
86.35 -0.0024
86.4 -0.003
86.45 -0.00303
86.5 -0.00298
86.55 -0.00416
86.6 -0.00469
86.65 -0.0051
86.7 -0.00465
86.75 -0.00337
86.8 -0.00214
86.85 -0.00167
86.9 -0.00155
86.95 -0.00188
87 -0.00247
87.05 -0.00275
87.1 -0.00368
87.15 -0.00344
87.2 -0.00337
87.25 -0.00276
87.3 -0.00154
87.35 -5e-04
87.4 0.00039
87.45 0.00085
87.5 0.00207
87.55 0.00339
87.6 0.00436
87.65 0.0043
87.7 0.00466
87.75 0.004
87.8 0.00304
87.85 0.00176
87.9 0.00169
87.95 0.00276
88 0.00314
88.05 0.00345
88.1 0.00362
88.15 0.00395
88.2 0.00383
88.25 0.00273
88.3 0.00202
88.35 0.00179
88.4 0.00215
88.45 0.00183
88.5 0.00202
88.55 0.00272
88.6 0.00343
88.65 0.00359
88.7 0.00367
88.75 0.00366
88.8 0.00248
88.85 0.0019
88.9 0.00182
88.95 0.0021
89 0.00216
89.05 0.00246
89.1 0.00121
89.15 4e-05
89.2 -0.00029
89.25 -0.00041
89.3 -0.0016
89.35 -0.00234
89.4 -0.00331
89.45 -0.00362
89.5 -0.00371
89.55 -0.00291
89.6 -0.00222
89.65 -0.00105
89.7 -0.00088
89.75 -0.00068
89.8 0.00031
89.85 0.00028
89.9 0.00046
89.95 6e-05
90 0.00019
90.05 7e-05
90.1 0.00056
90.15 0.00102
90.2 0.00179
90.25 0.00117
90.3 -0.00019
90.35 -0.00159
90.4 -0.00275
90.45 -0.00389
90.5 -0.00445
90.55 -0.00434
90.6 -0.00332
90.65 -0.0024
90.7 -0.0021
90.75 -0.00116
90.8 -0.00045
90.85 -0.00127
90.9 -0.00061
90.95 -0.00113
91 -0.00232
91.05 -0.00321
91.1 -0.00278
91.15 -0.00214
91.2 -0.00157
91.25 -5e-04
91.3 0.00021
91.35 0.0013
91.4 0.00201
91.45 0.00129
91.5 0.00024
91.55 -0.00015
91.6 -0.00071
91.65 -0.00116
91.7 -0.00173
91.75 -0.00234
91.8 -0.00218
91.85 -0.00296
91.9 -0.0037
91.95 -0.0037
92 -0.00194
92.05 -0.00167
92.1 -0.00107
92.15 -0.00032
92.2 -0.00154
92.25 -0.00258
92.3 -0.00302
92.35 -0.00329
92.4 -0.00279
92.45 -0.00166
92.5 -5e-04
92.55 0.00083
92.6 0.00141
92.65 0.00193
92.7 0.0021
92.75 0.00178
92.8 8e-04
92.85 7e-05
92.9 -0.00106
92.95 -0.00185
93 -0.00132
93.05 -0.00028
93.1 0.00025
93.15 0.00024
93.2 1e-04
93.25 -1e-05
93.3 -0.00042
93.35 -0.00106
93.4 -0.00077
93.45 -0.00128
93.5 -0.00176
93.55 -0.00231
93.6 -0.00215
93.65 -0.00193
93.7 -0.00088
93.75 -0.00034
93.8 0.00068
93.85 -0.00018
93.9 -0.00155
93.95 -0.00333
94 -0.00362
94.05 -0.00377
94.1 -0.00386
94.15 -0.00403
94.2 -0.00367
94.25 -0.00372
94.3 -0.00352
94.35 -0.00309
94.4 -0.00267
94.45 -0.00262
94.5 -0.00198
94.55 -0.00187
94.6 -0.00219
94.65 -0.0024
94.7 -0.00241
94.75 -0.00169
94.8 -0.00157
94.85 -0.00173
94.9 -0.00103
94.95 -0.00125
95 -0.00139
95.05 -0.00118
95.1 -0.00207
95.15 -0.00279
95.2 -0.00316
95.25 -0.00316
95.3 -0.00258
95.35 -0.00251
95.4 -0.00249
95.45 -0.00154
95.5 -0.00074
95.55 -0.00057
95.6 3e-04
95.65 0.00193
95.7 0.00318
95.75 0.00413
95.8 0.00438
95.85 0.00331
95.9 0.0015
95.95 0.00044
96 -0.00075
96.05 -0.00153
96.1 -0.00183
96.15 -0.00162
96.2 -0.00064
96.25 0.00068
96.3 0.00077
96.35 0.00248
96.4 0.00431
96.45 0.00627
96.5 0.0075
96.55 0.00718
96.6 0.00655
96.65 0.00471
96.7 0.00342
96.75 0.00277
96.8 0.00214
96.85 0.00079
96.9 0.00043
96.95 0.00028
97 0.00124
97.05 0.00242
97.1 0.00142
97.15 -0.00038
97.2 -0.001
97.25 -0.00227
97.3 -0.00416
97.35 -0.00557
97.4 -0.00576
97.45 -0.00476
97.5 -0.0035
97.55 -0.00276
97.6 -0.00259
97.65 -0.0016
97.7 -0.00098
97.75 -4e-04
97.8 -0.00094
97.85 -0.00188
97.9 -0.00186
97.95 -0.00218
98 -0.00269
98.05 -0.00276
98.1 -0.00179
98.15 -0.00099
98.2 -0.00042
98.25 -0.00097
98.3 -0.00229
98.35 -0.00374
98.4 -0.00456
98.45 -0.00404
98.5 -0.00362
98.55 -0.00276
98.6 -0.00162
98.65 -0.00115
98.7 -0.00155
98.75 -0.00247
98.8 -0.00362
98.85 -0.00486
98.9 -0.00482
98.95 -0.00448
99 -0.00344
99.05 -0.00229
99.1 -0.00161
99.15 -0.00122
99.2 -0.00125
99.25 -0.00126
99.3 -0.00117
99.35 0.00058
99.4 0.00205
99.45 0.00325
99.5 0.00346
99.55 0.00325
99.6 0.00262
99.65 0.00152
99.7 -6e-05
99.75 -0.00147
99.8 -0.00321
99.85 -0.00371
99.9 -0.00382
99.95 -0.00384
