0 0
0.05 0.00545
0.1 0.013
0.15 0.02125
0.2 0.02832
0.25 0.0342
0.3 0.03892
0.35 0.0436
0.4 0.04752
0.45 0.05081
0.5 0.05217
0.55 0.05253
0.6 0.05222
0.65 0.05098
0.7 0.0503
0.75 0.04912
0.8 0.04758
0.85 0.04605
0.9 0.045
0.95 0.04439
1 0.04357
1.05 0.04283
1.1 0.04218
1.15 0.04082
1.2 0.03961
1.25 0.03769
1.3 0.03593
1.35 0.03468
1.4 0.03301
1.45 0.03296
1.5 0.03375
1.55 0.03395
1.6 0.03332
1.65 0.03323
1.7 0.03291
1.75 0.03319
1.8 0.03236
1.85 0.032
1.9 0.03192
1.95 0.0327
2 0.03279
2.05 0.03361
2.1 0.03455
2.15 0.03509
2.2 0.03502
2.25 0.03472
2.3 0.03378
2.35 0.03295
2.4 0.03062
2.45 0.02872
2.5 0.02675
2.55 0.02579
2.6 0.02483
2.65 0.02352
2.7 0.0223
2.75 0.0213
2.8 0.02123
2.85 0.02194
2.9 0.02186
2.95 0.02253
3 0.02291
3.05 0.02335
3.1 0.02343
3.15 0.02386
3.2 0.0245
3.25 0.0254
3.3 0.02572
3.35 0.02549
3.4 0.02529
3.45 0.02402
3.5 0.02294
3.55 0.0224
3.6 0.02188
3.65 0.02153
3.7 0.02082
3.75 0.02015
3.8 0.01897
3.85 0.01837
3.9 0.01754
3.95 0.01626
4 0.01545
4.05 0.01378
4.1 0.0123
4.15 0.01176
4.2 0.01044
4.25 0.00846
4.3 0.0063
4.35 0.00313
4.4 -0.00032
4.45 -0.0051
4.5 -0.01175
4.55 -0.01879
4.6 -0.0283
4.65 -0.04071
4.7 -0.0551
4.75 -0.07322
4.8 -0.09375
4.85 -0.11783
4.9 -0.14557
4.95 -0.17708
5 -0.21312
5.05 -0.25484
5.1 -0.30116
5.15 -0.35267
5.2 -0.40878
5.25 -0.4708
5.3 -0.53705
5.35 -0.60813
5.4 -0.68373
5.45 -0.7617
5.5 -0.84196
5.55 -0.92223
5.6 -1.00318
5.65 -1.0827
5.7 -1.16249
5.75 -1.24027
5.8 -1.31529
5.85 -1.3865
5.9 -1.45289
5.95 -1.51334
6 -1.56855
6.05 -1.61904
6.1 -1.66508
6.15 -1.70465
6.2 -1.73703
6.25 -1.76413
6.3 -1.78521
6.35 -1.80074
6.4 -1.81006
6.45 -1.81346
6.5 -1.81019
6.55 -1.79965
6.6 -1.78046
6.65 -1.75186
6.7 -1.71356
6.75 -1.66593
6.8 -1.60727
6.85 -1.53803
6.9 -1.45812
6.95 -1.36767
7 -1.26564
7.05 -1.15427
7.1 -1.03322
7.15 -0.9042
7.2 -0.76763
7.25 -0.62509
7.3 -0.47727
7.35 -0.32601
7.4 -0.17373
7.45 -0.02161
7.5 0.12823
7.55 0.27523
7.6 0.4174
7.65 0.55546
7.7 0.68639
7.75 0.8104
7.8 0.92664
7.85 1.03336
7.9 1.13133
7.95 1.21962
8 1.29868
8.05 1.36711
8.1 1.42777
8.15 1.48009
8.2 1.52347
8.25 1.55989
8.3 1.58978
8.35 1.61375
8.4 1.63112
8.45 1.64345
8.5 1.65087
8.55 1.65485
8.6 1.65442
8.65 1.65049
8.7 1.64363
8.75 1.63303
8.8 1.62009
8.85 1.60467
8.9 1.58728
8.95 1.56871
9 1.54897
9.05 1.52821
9.1 1.50728
9.15 1.48499
9.2 1.46352
9.25 1.44243
9.3 1.42092
9.35 1.39836
9.4 1.37458
9.45 1.3507
9.5 1.32635
9.55 1.30302
9.6 1.28011
9.65 1.2568
9.7 1.23266
9.75 1.20835
9.8 1.18293
9.85 1.15703
9.9 1.13023
9.95 1.10211
10 1.07377
10.05 1.04379
10.1 1.01375
10.15 0.98383
10.2 0.95408
10.25 0.92381
10.3 0.8934
10.35 0.86302
10.4 0.83233
10.45 0.80182
10.5 0.77084
10.55 0.7396
10.6 0.70891
10.65 0.67895
10.7 0.64929
10.75 0.61812
10.8 0.58767
10.85 0.55648
10.9 0.52558
10.95 0.49428
11 0.46227
11.05 0.43098
11.1 0.3997
11.15 0.36857
11.2 0.33882
11.25 0.30977
11.3 0.28145
11.35 0.25343
11.4 0.22608
11.45 0.19871
11.5 0.17346
11.55 0.14801
11.6 0.12361
11.65 0.09891
11.7 0.076
11.75 0.05392
11.8 0.0322
11.85 0.01083
11.9 -0.00977
11.95 -0.02902
12 -0.04697
12.05 -0.06324
12.1 -0.07889
12.15 -0.09371
12.2 -0.10799
12.25 -0.12106
12.3 -0.13393
12.35 -0.14678
12.4 -0.1589
12.45 -0.17092
12.5 -0.18306
12.55 -0.19331
12.6 -0.20311
12.65 -0.21271
12.7 -0.22118
12.75 -0.22943
12.8 -0.23627
12.85 -0.24066
12.9 -0.24394
12.95 -0.24752
13 -0.25082
13.05 -0.25359
13.1 -0.25618
13.15 -0.2573
13.2 -0.25825
13.25 -0.25985
13.3 -0.26084
13.35 -0.26266
13.4 -0.26431
13.45 -0.26667
13.5 -0.26749
13.55 -0.26839
13.6 -0.26843
13.65 -0.26804
13.7 -0.26685
13.75 -0.26578
13.8 -0.26468
13.85 -0.26313
13.9 -0.26071
13.95 -0.25906
14 -0.25654
14.05 -0.25311
14.1 -0.25058
14.15 -0.24851
14.2 -0.24551
14.25 -0.24274
14.3 -0.2405
14.35 -0.23928
14.4 -0.23769
14.45 -0.23493
14.5 -0.23134
14.55 -0.22836
14.6 -0.22596
14.65 -0.22295
14.7 -0.22094
14.75 -0.21918
14.8 -0.21714
14.85 -0.21562
14.9 -0.21228
14.95 -0.20885
15 -0.20596
15.05 -0.20272
15.1 -0.19953
15.15 -0.19623
15.2 -0.19214
15.25 -0.18799
15.3 -0.18408
15.35 -0.1806
15.4 -0.17678
15.45 -0.1734
15.5 -0.17036
15.55 -0.16781
15.6 -0.16661
15.65 -0.16445
15.7 -0.16379
15.75 -0.16189
15.8 -0.16003
15.85 -0.15733
15.9 -0.15369
15.95 -0.15112
16 -0.14887
16.05 -0.14646
16.1 -0.14428
16.15 -0.14156
16.2 -0.13907
16.25 -0.13626
16.3 -0.13352
16.35 -0.13209
16.4 -0.13008
16.45 -0.12796
16.5 -0.12604
16.55 -0.12319
16.6 -0.12089
16.65 -0.11872
16.7 -0.11715
16.75 -0.1165
16.8 -0.1162
16.85 -0.11438
16.9 -0.11234
16.95 -0.11059
17 -0.10913
17.05 -0.10795
17.1 -0.10584
17.15 -0.10374
17.2 -0.10192
17.25 -0.10111
17.3 -0.09986
17.35 -0.09918
17.4 -0.09821
17.45 -0.09796
17.5 -0.09653
17.55 -0.09512
17.6 -0.09232
17.65 -0.08925
17.7 -0.08744
17.75 -0.08572
17.8 -0.08509
17.85 -0.0836
17.9 -0.08231
17.95 -0.08135
18 -0.07965
18.05 -0.0775
18.1 -0.07593
18.15 -0.0743
18.2 -0.07373
18.25 -0.07383
18.3 -0.07404
18.35 -0.0739
18.4 -0.07218
18.45 -0.07078
18.5 -0.0695
18.55 -0.0684
18.6 -0.06779
18.65 -0.06618
18.7 -0.06511
18.75 -0.06341
18.8 -0.06289
18.85 -0.06117
18.9 -0.0593
18.95 -0.05895
19 -0.05763
19.05 -0.05548
19.1 -0.05304
19.15 -0.05188
19.2 -0.05175
19.25 -0.05216
19.3 -0.05268
19.35 -0.05252
19.4 -0.0522
19.45 -0.05224
19.5 -0.05218
19.55 -0.05111
19.6 -0.0498
19.65 -0.04921
19.7 -0.04876
19.75 -0.04755
19.8 -0.04695
19.85 -0.04643
19.9 -0.04635
19.95 -0.04577
20 -0.04463
20.05 -0.04368
20.1 -0.04213
20.15 -0.04038
20.2 -0.03843
20.25 -0.03746
20.3 -0.03738
20.35 -0.03727
20.4 -0.03731
20.45 -0.03687
20.5 -0.03675
20.55 -0.03725
20.6 -0.03711
20.65 -0.03664
20.7 -0.03554
20.75 -0.03524
20.8 -0.035
20.85 -0.03452
20.9 -0.03434
20.95 -0.03266
21 -0.03145
21.05 -0.03036
21.1 -0.02938
21.15 -0.02868
21.2 -0.02745
21.25 -0.02741
21.3 -0.02658
21.35 -0.02621
21.4 -0.02551
21.45 -0.02534
21.5 -0.02421
21.55 -0.02378
21.6 -0.0239
21.65 -0.0243
21.7 -0.02499
21.75 -0.02504
21.8 -0.02466
21.85 -0.02333
21.9 -0.02209
21.95 -0.02078
22 -0.02107
22.05 -0.02146
22.1 -0.02099
22.15 -0.02113
22.2 -0.02129
22.25 -0.02076
22.3 -0.02039
22.35 -0.02002
22.4 -0.01964
22.45 -0.01855
22.5 -0.0175
22.55 -0.01705
22.6 -0.0165
22.65 -0.0151
22.7 -0.01441
22.75 -0.01449
22.8 -0.01466
22.85 -0.01438
22.9 -0.01359
22.95 -0.01333
23 -0.01278
23.05 -0.01221
23.1 -0.01275
23.15 -0.01339
23.2 -0.01356
23.25 -0.0146
23.3 -0.01571
23.35 -0.01596
23.4 -0.01546
23.45 -0.01457
23.5 -0.01312
23.55 -0.01236
23.6 -0.01163
23.65 -0.01086
23.7 -0.01079
23.75 -0.01081
23.8 -0.01144
23.85 -0.01196
23.9 -0.01284
23.95 -0.01213
24 -0.0117
24.05 -0.01104
24.1 -0.0097
24.15 -0.00803
24.2 -0.00804
24.25 -0.00733
24.3 -0.00679
24.35 -0.00551
24.4 -0.00627
24.45 -0.00716
24.5 -0.00882
24.55 -0.01059
24.6 -0.01067
24.65 -0.0114
24.7 -0.01086
24.75 -0.01094
24.8 -0.0095
24.85 -0.00847
24.9 -0.00845
24.95 -0.00779
25 -0.00625
25.05 -0.0062
25.1 -0.00703
25.15 -0.00803
25.2 -0.00868
25.25 -0.00903
25.3 -0.00985
25.35 -0.01103
25.4 -0.01055
25.45 -0.01054
25.5 -0.01078
25.55 -0.00956
25.6 -0.00884
25.65 -0.00825
25.7 -0.00691
25.75 -0.00659
25.8 -0.00765
25.85 -0.00756
25.9 -0.00785
25.95 -0.00745
26 -0.00673
26.05 -0.00601
26.1 -0.00541
26.15 -0.00606
26.2 -0.00585
26.25 -0.005
26.3 -0.00531
26.35 -0.00679
26.4 -0.00757
26.45 -0.00835
26.5 -0.00779
26.55 -0.00741
26.6 -0.00626
26.65 -0.00592
26.7 -0.00594
26.75 -0.00676
26.8 -0.0077
26.85 -0.00809
26.9 -0.00773
26.95 -0.00827
27 -0.00801
27.05 -0.00841
27.1 -0.00764
27.15 -0.00723
27.2 -0.00632
27.25 -0.00556
27.3 -0.00413
27.35 -0.00367
27.4 -0.00388
27.45 -0.00455
27.5 -0.00493
27.55 -0.00681
27.6 -0.00853
27.65 -0.00936
27.7 -0.00917
27.75 -0.00926
27.8 -0.01069
27.85 -0.0127
27.9 -0.01509
27.95 -0.01703
28 -0.01826
28.05 -0.01968
28.1 -0.02172
28.15 -0.02395
28.2 -0.02685
28.25 -0.03005
28.3 -0.03494
28.35 -0.04068
28.4 -0.04731
28.45 -0.0554
28.5 -0.06544
28.55 -0.07627
28.6 -0.08771
28.65 -0.09982
28.7 -0.11372
28.75 -0.12871
28.8 -0.14521
28.85 -0.16365
28.9 -0.18577
28.95 -0.21106
29 -0.23827
29.05 -0.26555
29.1 -0.29345
29.15 -0.32197
29.2 -0.35165
29.25 -0.38236
29.3 -0.41544
29.35 -0.44842
29.4 -0.48127
29.45 -0.51496
29.5 -0.54894
29.55 -0.5835
29.6 -0.61604
29.65 -0.64683
29.7 -0.67576
29.75 -0.70058
29.8 -0.72252
29.85 -0.73965
29.9 -0.7528
29.95 -0.76086
30 -0.76354
30.05 -0.76154
30.1 -0.75498
30.15 -0.74245
30.2 -0.72583
30.25 -0.70468
30.3 -0.67821
30.35 -0.64618
30.4 -0.60951
30.45 -0.56725
30.5 -0.52258
30.55 -0.47449
30.6 -0.42333
30.65 -0.37065
30.7 -0.31649
30.75 -0.26047
30.8 -0.20363
30.85 -0.14751
30.9 -0.09154
30.95 -0.03578
31 0.01748
31.05 0.06731
31.1 0.11479
31.15 0.15923
31.2 0.20131
31.25 0.24047
31.3 0.27596
31.35 0.30806
31.4 0.33658
31.45 0.36335
31.5 0.38697
31.55 0.40879
31.6 0.4282
31.65 0.44545
31.7 0.46107
31.75 0.47392
31.8 0.48548
31.85 0.49556
31.9 0.50555
31.95 0.51465
32 0.52341
32.05 0.53159
32.1 0.53866
32.15 0.54623
32.2 0.55222
32.25 0.55701
32.3 0.56177
32.35 0.56705
32.4 0.57139
32.45 0.57435
32.5 0.57539
32.55 0.57697
32.6 0.57792
32.65 0.57888
32.7 0.57892
32.75 0.57839
32.8 0.57581
32.85 0.57174
32.9 0.56703
32.95 0.56164
33 0.55406
33.05 0.54609
33.1 0.53807
33.15 0.53104
33.2 0.52258
33.25 0.51266
33.3 0.50181
33.35 0.49039
33.4 0.47858
33.45 0.46606
33.5 0.45364
33.55 0.44125
33.6 0.42856
33.65 0.41578
33.7 0.40271
33.75 0.38813
33.8 0.37423
33.85 0.35948
33.9 0.34549
33.95 0.33223
34 0.31896
34.05 0.30676
34.1 0.29377
34.15 0.28088
34.2 0.26717
34.25 0.25287
34.3 0.2383
34.35 0.22319
34.4 0.20914
34.45 0.19644
34.5 0.18409
34.55 0.17361
34.6 0.16201
34.65 0.15033
34.7 0.13922
34.75 0.1295
34.8 0.12039
34.85 0.11061
34.9 0.10171
34.95 0.09271
35 0.08371
35.05 0.074
35.1 0.06489
35.15 0.05622
35.2 0.0478
35.25 0.03895
35.3 0.03099
35.35 0.02257
35.4 0.01542
35.45 0.00799
35.5 0.00191
35.55 -0.00478
35.6 -0.01039
35.65 -0.01597
35.7 -0.02159
35.75 -0.02789
35.8 -0.03293
35.85 -0.03778
35.9 -0.04192
35.95 -0.04652
36 -0.05092
36.05 -0.05461
36.1 -0.0589
36.15 -0.06283
36.2 -0.06646
36.25 -0.06932
36.3 -0.07254
36.35 -0.07514
36.4 -0.07785
36.45 -0.08094
36.5 -0.08345
36.55 -0.08533
36.6 -0.08699
36.65 -0.08839
36.7 -0.09021
36.75 -0.09246
36.8 -0.09421
36.85 -0.09492
36.9 -0.09546
36.95 -0.09605
37 -0.09624
37.05 -0.09625
37.1 -0.09624
37.15 -0.09718
37.2 -0.09744
37.25 -0.0984
37.3 -0.09878
37.35 -0.0991
37.4 -0.09958
37.45 -0.1002
37.5 -0.09973
37.55 -0.09947
37.6 -0.0985
37.65 -0.09747
37.7 -0.09601
37.75 -0.0948
37.8 -0.09348
37.85 -0.09316
37.9 -0.09235
37.95 -0.0915
38 -0.09105
38.05 -0.09117
38.1 -0.08926
38.15 -0.08776
38.2 -0.0855
38.25 -0.08371
38.3 -0.08307
38.35 -0.08236
38.4 -0.08168
38.45 -0.08104
38.5 -0.08083
38.55 -0.08008
38.6 -0.07932
38.65 -0.07785
38.7 -0.07494
38.75 -0.07272
38.8 -0.07125
38.85 -0.07043
38.9 -0.07032
38.95 -0.06941
39 -0.06745
39.05 -0.06588
39.1 -0.06505
39.15 -0.06441
39.2 -0.06355
39.25 -0.06387
39.3 -0.06432
39.35 -0.06505
39.4 -0.06526
39.45 -0.06593
39.5 -0.06451
39.55 -0.06359
39.6 -0.06275
39.65 -0.06198
39.7 -0.05981
39.75 -0.05784
39.8 -0.05642
39.85 -0.05452
39.9 -0.05314
39.95 -0.0524
40 -0.0518
40.05 -0.05229
40.1 -0.0525
40.15 -0.0519
40.2 -0.05093
40.25 -0.04975
40.3 -0.04933
40.35 -0.04862
40.4 -0.04735
40.45 -0.04493
40.5 -0.04237
40.55 -0.04159
40.6 -0.04128
40.65 -0.04117
40.7 -0.04028
40.75 -0.03985
40.8 -0.03965
40.85 -0.03926
40.9 -0.03966
40.95 -0.03983
41 -0.04067
41.05 -0.04107
41.1 -0.0408
41.15 -0.04042
41.2 -0.039
41.25 -0.03818
41.3 -0.03728
41.35 -0.03619
41.4 -0.03406
41.45 -0.03313
41.5 -0.03098
41.55 -0.029
41.6 -0.02812
41.65 -0.02658
41.7 -0.0246
41.75 -0.02398
41.8 -0.02429
41.85 -0.02426
41.9 -0.02458
41.95 -0.02475
42 -0.02455
42.05 -0.025
42.1 -0.02603
42.15 -0.02699
42.2 -0.02725
42.25 -0.0269
42.3 -0.02687
42.35 -0.02552
42.4 -0.02482
42.45 -0.025
42.5 -0.02561
42.55 -0.02502
42.6 -0.02389
42.65 -0.02396
42.7 -0.02326
42.75 -0.0214
42.8 -0.02149
42.85 -0.02122
42.9 -0.02184
42.95 -0.0222
43 -0.02364
43.05 -0.02464
43.1 -0.02552
43.15 -0.02507
43.2 -0.02561
43.25 -0.02448
43.3 -0.02373
43.35 -0.02276
43.4 -0.02237
43.45 -0.02295
43.5 -0.02139
43.55 -0.02041
43.6 -0.01867
43.65 -0.01609
43.7 -0.01414
43.75 -0.0121
43.8 -0.01064
43.85 -0.01047
43.9 -0.01103
43.95 -0.01261
44 -0.01407
44.05 -0.01521
44.1 -0.01464
44.15 -0.0145
44.2 -0.01371
44.25 -0.01251
44.3 -0.01176
44.35 -0.01071
44.4 -0.01054
44.45 -0.01021
44.5 -0.01081
44.55 -0.01047
44.6 -0.00978
44.65 -0.00976
44.7 -0.00949
44.75 -0.00865
44.8 -0.00821
44.85 -0.00803
44.9 -0.0082
44.95 -0.00931
45 -0.01044
45.05 -0.01155
45.1 -0.0119
45.15 -0.01232
45.2 -0.0128
45.25 -0.01246
45.3 -0.01212
45.35 -0.01075
45.4 -0.00944
45.45 -0.0083
45.5 -0.00749
45.55 -0.00716
45.6 -0.00633
45.65 -0.00525
45.7 -0.00522
45.75 -0.00555
45.8 -0.00623
45.85 -0.00633
45.9 -0.00655
45.95 -0.00749
46 -0.00767
46.05 -0.0087
46.1 -0.01001
46.15 -0.01095
46.2 -0.0109
46.25 -0.01099
46.3 -0.01023
46.35 -0.00972
46.4 -0.00928
46.45 -0.00953
46.5 -0.00956
46.55 -0.01016
46.6 -0.00989
46.65 -0.00954
46.7 -0.00834
46.75 -0.00755
46.8 -0.00683
46.85 -0.00705
46.9 -0.00753
46.95 -0.00803
47 -0.00824
47.05 -0.00722
47.1 -0.00578
47.15 -0.00507
47.2 -0.00529
47.25 -0.00464
47.3 -0.00479
47.35 -0.00429
47.4 -0.00348
47.45 -0.003
47.5 -0.00279
47.55 -0.00164
47.6 -0.00162
47.65 -0.0012
47.7 -0.0011
47.75 -0.00162
47.8 -0.00245
47.85 -0.00257
47.9 -0.00229
47.95 -0.00243
48 -0.00293
48.05 -0.00185
48.1 -0.00173
48.15 -0.00171
48.2 -0.00185
48.25 -0.0025
48.3 -0.00201
48.35 -0.00175
48.4 -0.002
48.45 -0.00295
48.5 -0.00362
48.55 -0.00422
48.6 -0.00493
48.65 -0.00581
48.7 -0.00597
48.75 -0.00562
48.8 -0.00491
48.85 -0.00383
48.9 -0.00294
48.95 -0.0024
49 -0.0026
49.05 -0.00197
49.1 -0.00095
49.15 0.00017
49.2 0.00124
49.25 0.00137
49.3 0.00076
49.35 -0.00031
49.4 -0.00209
49.45 -0.00215
49.5 -0.00231
49.55 -0.00268
49.6 -0.00367
49.65 -0.00386
49.7 -0.00446
49.75 -0.0045
49.8 -0.00394
49.85 -0.0034
49.9 -0.00327
49.95 -0.00292
50 -0.00241
50.05 -0.00239
50.1 -0.00268
50.15 -0.00273
50.2 -0.00218
50.25 -0.00193
50.3 -0.00179
50.35 -0.00232
50.4 -0.0026
50.45 -0.00287
50.5 -0.00279
50.55 -0.00349
50.6 -0.00323
50.65 -0.0033
50.7 -0.00354
50.75 -0.00397
50.8 -0.00324
50.85 -0.00285
50.9 -0.00343
50.95 -0.00301
51 -0.00195
51.05 -7e-04
51.1 -0.00086
51.15 -0.00212
51.2 -0.00314
51.25 -0.0042
51.3 -0.00454
51.35 -0.00508
51.4 -0.00656
51.45 -0.0067
51.5 -0.00643
51.55 -0.00641
51.6 -0.00474
51.65 -0.00363
51.7 -0.00408
51.75 -0.00429
51.8 -0.00537
51.85 -0.00482
51.9 -0.0044
51.95 -0.00481
52 -0.00469
52.05 -0.00485
52.1 -0.00578
52.15 -0.00585
52.2 -0.00545
52.25 -0.0059
52.3 -0.00513
52.35 -0.00437
52.4 -0.00289
52.45 -0.00225
52.5 -0.00187
52.55 -0.00206
52.6 -0.00205
52.65 -0.00206
52.7 -0.00248
52.75 -0.00305
52.8 -0.00325
52.85 -0.00322
52.9 -0.00318
52.95 -0.00275
53 -0.00225
53.05 -0.00109
53.1 -0.00057
53.15 -0.00039
53.2 -0.00038
53.25 -9e-05
53.3 -8e-04
53.35 -0.00196
53.4 -0.003
53.45 -0.00267
53.5 -0.00244
53.55 -0.00177
53.6 -0.00132
53.65 -0.00056
53.7 -5e-05
53.75 0.00034
53.8 0.00084
53.85 0.00073
53.9 -0.00041
53.95 -0.0016
54 -0.00262
54.05 -0.00298
54.1 -0.00195
54.15 -0.0013
54.2 -0.00064
54.25 -5e-04
54.3 -0.00181
54.35 -0.00283
54.4 -0.00385
54.45 -0.0046
54.5 -0.00506
54.55 -0.00517
54.6 -0.00455
54.65 -0.00325
54.7 -0.00213
54.75 -0.00135
54.8 -0.0017
54.85 -0.00159
54.9 -0.00187
54.95 -0.00255
55 -0.0029
55.05 -0.00235
55.1 -0.00204
55.15 -0.00197
55.2 -0.00168
55.25 -0.00156
55.3 -0.00229
55.35 -0.00271
55.4 -0.00325
55.45 -0.00324
55.5 -0.00384
55.55 -0.00366
55.6 -0.00273
55.65 -0.00255
55.7 -0.00268
55.75 -0.00182
55.8 -0.00074
55.85 -0.00068
55.9 -6e-05
55.95 0.00077
56 0.00064
56.05 0.00053
56.1 0.00107
56.15 0.00107
56.2 9e-04
56.25 0.00136
56.3 0.00145
56.35 0.00237
56.4 0.00353
56.45 0.00373
56.5 0.00296
56.55 0.00196
56.6 0.00093
56.65 0.00066
56.7 0.00052
56.75 0.00036
56.8 0.00078
56.85 0.00103
56.9 0.00135
56.95 0.00114
57 0.00148
57.05 0.00102
57.1 3e-04
57.15 -0.00133
57.2 -0.0018
57.25 -0.00139
57.3 -0.00081
57.35 -0.00104
57.4 -0.00072
57.45 5e-05
57.5 8e-04
57.55 0.00166
57.6 0.00185
57.65 0.00228
57.7 0.00159
57.75 -2e-05
57.8 -0.00127
57.85 -0.00141
57.9 -0.00123
57.95 0.00025
58 0.00074
58.05 0.00147
58.1 0.00197
58.15 0.0027
58.2 0.00326
58.25 0.00343
58.3 0.00336
58.35 0.00376
58.4 0.00287
58.45 0.00275
58.5 0.00304
58.55 0.00241
58.6 0.00077
58.65 -0.00083
58.7 -0.00176
58.75 -0.00292
58.8 -0.00433
58.85 -0.00538
58.9 -0.00622
58.95 -0.00732
59 -0.00711
59.05 -0.00584
59.1 -0.0042
59.15 -0.00274
59.2 -0.00189
59.25 -0.00099
59.3 0.00033
59.35 0.00063
59.4 0.00075
59.45 0.00116
59.5 0.00069
59.55 0.00098
59.6 0.00109
59.65 0.00146
59.7 0.00175
59.75 0.00212
59.8 0.00271
59.85 0.00289
59.9 0.00367
59.95 0.00373
60 0.00243
60.05 0.00137
60.1 -0.00038
60.15 -0.00136
60.2 -0.00316
60.25 -0.00363
60.3 -0.0036
60.35 -0.00395
60.4 -0.00411
60.45 -0.00455
60.5 -0.00398
60.55 -0.0036
60.6 -0.00372
60.65 -0.00434
60.7 -0.00408
60.75 -0.00514
60.8 -0.00525
60.85 -0.00445
60.9 -0.00444
60.95 -0.00465
61 -0.00352
61.05 -0.00233
61.1 -0.00174
61.15 -0.00091
61.2 -4e-05
61.25 3e-05
61.3 4e-05
61.35 -0.00035
61.4 -0.00081
61.45 -0.00027
61.5 -0.00062
61.55 -0.00053
61.6 -8e-05
61.65 0.00085
61.7 0.00158
61.75 0.00272
61.8 0.00294
61.85 0.00375
61.9 0.00366
61.95 0.00247
62 0.00166
62.05 8e-05
62.1 -0.00048
62.15 -0.00186
62.2 -0.00238
62.25 -0.00243
62.3 -0.00243
62.35 -0.00193
62.4 -0.00161
62.45 -8e-04
62.5 -0.00018
62.55 0.00057
62.6 0.00198
62.65 0.00243
62.7 0.00257
62.75 0.00356
62.8 0.00392
62.85 0.00384
62.9 0.00315
62.95 0.00346
63 0.00342
63.05 0.00344
63.1 0.00259
63.15 0.00084
63.2 -0.00065
63.25 -0.00107
63.3 -0.00119
63.35 -0.00157
63.4 -0.00173
63.45 -0.00182
63.5 -0.00178
63.55 -0.00122
63.6 -0.00181
63.65 -0.00281
63.7 -0.00299
63.75 -0.00207
63.8 -0.00138
63.85 -0.00039
63.9 0.00132
63.95 0.00297
64 0.00392
64.05 0.00485
64.1 0.00479
64.15 0.00417
64.2 0.0044
64.25 0.00411
64.3 0.00331
64.35 0.00169
64.4 0.00148
64.45 0.00118
64.5 0.00038
64.55 -0.00014
64.6 -0.00049
64.65 -0.00018
64.7 -0.00072
64.75 -9e-04
64.8 -0.00061
64.85 -0.00077
64.9 -0.00043
64.95 0.00049
65 0.00093
65.05 0.00168
65.1 0.0023
65.15 0.00297
65.2 0.00335
65.25 0.00404
65.3 0.00463
65.35 0.00426
65.4 0.00321
65.45 0.00225
65.5 0.00065
65.55 -0.00132
65.6 -0.00394
65.65 -0.00564
65.7 -0.00698
65.75 -0.00761
65.8 -0.00661
65.85 -0.00541
65.9 -0.00439
65.95 -0.00395
66 -0.0043
66.05 -0.00363
66.1 -0.00278
66.15 -0.00243
66.2 -0.00305
66.25 -0.00319
66.3 -0.00284
66.35 -0.00243
66.4 -0.00291
66.45 -0.00266
66.5 -0.00169
66.55 -0.00196
66.6 -0.0019
66.65 -0.00181
66.7 -0.00098
66.75 -0.00042
66.8 0.00014
66.85 0.00041
66.9 0.00104
66.95 0.00199
67 0.00251
67.05 0.0027
67.1 0.00197
67.15 0.00204
67.2 0.00122
67.25 0.00022
67.3 -0.00166
67.35 -0.00336
67.4 -0.0031
67.45 -0.00253
67.5 -0.00291
67.55 -0.00369
67.6 -0.00399
67.65 -0.00346
67.7 -0.00427
67.75 -0.00471
67.8 -0.0044
67.85 -0.00344
67.9 -0.00231
67.95 -0.00145
68 -0.00109
68.05 -0.00109
68.1 -0.00122
68.15 -0.00058
68.2 -0.00031
68.25 0.00045
68.3 0.00131
68.35 0.00102
68.4 0.00035
68.45 0.00022
68.5 0.00056
68.55 0.00066
68.6 0.00027
68.65 0.00051
68.7 0.00119
68.75 0.00119
68.8 0.00152
68.85 0.00175
68.9 0.00181
68.95 0.00169
69 2e-04
69.05 -0.0011
69.1 -0.00164
69.15 -0.00217
69.2 -0.00221
69.25 -0.00271
69.3 -0.0033
69.35 -0.00384
69.4 -0.00509
69.45 -0.00531
69.5 -0.00549
69.55 -0.00476
69.6 -0.00362
69.65 -0.00256
69.7 -0.00234
69.75 -0.00238
69.8 -0.00131
69.85 -5e-04
69.9 1e-04
69.95 0.00025
70 0.00038
70.05 0.00038
70.1 0.00071
70.15 0.00151
70.2 0.00162
70.25 0.0027
70.3 0.00288
70.35 0.0028
70.4 0.00177
70.45 0.00055
70.5 -0.00096
70.55 -0.00298
70.6 -0.0034
70.65 -0.00435
70.7 -0.0044
70.75 -0.00414
70.8 -0.00387
70.85 -0.00351
70.9 -0.0023
70.95 -0.00136
71 3e-05
71.05 0.00098
71.1 0.0019
71.15 0.00264
71.2 0.00273
71.25 0.00322
71.3 0.00373
71.35 0.00291
71.4 0.0018
71.45 0.00138
71.5 0.0014
71.55 0.00073
71.6 0.00057
71.65 0.00103
71.7 0.00122
71.75 0.00031
71.8 -0.00035
71.85 0.00017
71.9 0.00112
71.95 0.00215
72 0.0028
72.05 0.00233
72.1 0.00233
72.15 0.00237
72.2 0.00218
72.25 0.00122
72.3 -0.00011
72.35 -0.00086
72.4 -0.0021
72.45 -0.00321
72.5 -0.00401
72.55 -0.00476
72.6 -0.00462
72.65 -0.00425
72.7 -0.00346
72.75 -0.00256
72.8 -0.0021
72.85 -0.00219
72.9 -0.00246
72.95 -0.0025
73 -0.00178
73.05 -0.00198
73.1 -0.00145
73.15 -0.0013
73.2 -0.00156
73.25 -0.00082
73.3 7e-05
73.35 0.00071
73.4 0.0014
73.45 0.00082
73.5 0.00099
73.55 0.00047
73.6 -0.00017
73.65 -9e-05
73.7 2e-05
73.75 7e-05
73.8 0.00013
73.85 9e-05
73.9 -0.00041
73.95 -0.00084
74 -0.00124
74.05 -0.0014
74.1 -0.00097
74.15 -0.00024
74.2 -0.00081
74.25 -0.00121
74.3 -0.00079
74.35 0.00047
74.4 0.00039
74.45 0.00027
74.5 0.00033
74.55 -4e-04
74.6 -0.00091
74.65 -0.00185
74.7 -0.0025
74.75 -0.00319
74.8 -0.00362
74.85 -0.00413
74.9 -0.00427
74.95 -0.0043
75 -0.00315
75.05 -0.0016
75.1 -1e-05
75.15 0.00038
75.2 0.00094
75.25 0.00066
75.3 0.00136
75.35 0.00181
75.4 0.00168
75.45 0.00121
75.5 0.00118
75.55 5e-04
75.6 0.00096
75.65 0.00147
75.7 0.00241
75.75 0.00238
75.8 0.00251
75.85 0.0023
75.9 0.00333
75.95 0.00517
76 0.00629
76.05 0.0074
76.1 0.00778
76.15 0.0075
76.2 0.00615
76.25 0.00561
76.3 0.00447
76.35 0.00331
76.4 0.00202
76.45 0.00038
76.5 0.00056
76.55 0.00024
76.6 -0.00084
76.65 -0.00168
76.7 -0.00233
76.75 -0.00263
76.8 -0.00259
76.85 -0.00253
76.9 -0.00251
76.95 -0.00234
77 -0.00278
77.05 -0.00296
77.1 -0.00335
77.15 -0.00322
77.2 -0.00285
77.25 -0.00183
77.3 -0.00102
77.35 -0.00025
77.4 0.00019
77.45 0.00142
77.5 0.00204
77.55 0.00323
77.6 0.00414
77.65 0.00465
77.7 0.00361
77.75 0.00244
77.8 0.00246
77.85 0.0021
77.9 0.00265
77.95 0.00301
78 0.00365
78.05 0.00378
78.1 0.00279
78.15 0.00253
78.2 0.00167
78.25 0.0013
78.3 0.00169
78.35 0.00246
78.4 0.00312
78.45 0.00343
78.5 0.00389
78.55 0.00351
78.6 0.00333
78.65 0.00354
78.7 0.00246
78.75 0.00111
78.8 -0.00012
78.85 -0.00108
78.9 -0.00074
78.95 -0.00067
79 0.00046
79.05 0.00078
79.1 0.00101
79.15 2e-04
79.2 -7e-05
79.25 -0.00046
79.3 -0.00068
79.35 -0.00104
79.4 -5e-05
79.45 0.00026
79.5 0.00103
79.55 0.00125
79.6 0.00141
79.65 0.00085
79.7 -0.00085
79.75 -0.00153
79.8 -0.00147
79.85 -0.0023
79.9 -0.00343
79.95 -0.00333
80 -0.00371
80.05 -0.00299
80.1 -0.00222
80.15 -0.00247
80.2 -0.00104
80.25 -0.00045
80.3 -0.00032
80.35 -0.00041
80.4 0.00035
80.45 0.00051
80.5 0.00216
80.55 0.00284
80.6 0.00322
80.65 0.00269
80.7 0.00224
80.75 0.00247
80.8 0.00197
80.85 0.00084
80.9 -2e-04
80.95 -0.00162
81 -0.00282
81.05 -0.00341
81.1 -0.00399
81.15 -0.0036
81.2 -0.00327
81.25 -0.00315
81.3 -0.00216
81.35 -0.00115
81.4 -0.00101
81.45 -0.00158
81.5 -0.00243
81.55 -0.00247
81.6 -0.00259
81.65 -0.00338
81.7 -0.00365
81.75 -0.00387
81.8 -0.00258
81.85 -0.00145
81.9 -0.00037
81.95 -0.00021
82 -0.00033
82.05 -2e-05
82.1 0.00041
82.15 0.00042
82.2 -0.00016
82.25 -0.00072
82.3 -5e-04
82.35 -0.00053
82.4 -4e-04
82.45 -0.00141
82.5 -0.00193
82.55 -0.00208
82.6 -0.00228
82.65 -0.00274
82.7 -0.00214
82.75 -0.00115
82.8 -0.00055
82.85 6e-05
82.9 0.00059
82.95 -6e-05
83 -0.00066
83.05 -0.00139
83.1 -0.00201
83.15 -0.00178
83.2 -0.00129
83.25 2e-04
83.3 0.00183
83.35 0.00218
83.4 0.00171
83.45 0.00051
83.5 -0.00069
83.55 -0.0027
83.6 -0.00495
83.65 -0.00647
83.7 -0.00679
83.75 -0.00645
83.8 -0.0065
83.85 -0.00589
83.9 -0.00483
83.95 -0.00463
84 -0.0049
84.05 -0.00471
84.1 -0.00416
84.15 -0.0032
84.2 -0.00132
84.25 -0.00052
84.3 0.00032
84.35 0.00158
84.4 0.00212
84.45 0.00274
84.5 0.00301
84.55 0.00183
84.6 0.00049
84.65 -0.00101
84.7 -0.00269
84.75 -0.00352
84.8 -0.00402
84.85 -0.0047
84.9 -0.00456
84.95 -0.00368
85 -0.00217
85.05 -0.00039
85.1 0.00057
85.15 0.00075
85.2 0.00083
85.25 3e-04
85.3 -0.00023
85.35 -0.00048
85.4 -0.00066
85.45 -0.00078
85.5 -0.00126
85.55 -0.00119
85.6 -0.00139
85.65 -0.00146
85.7 -0.00179
85.75 -0.00194
85.8 -0.00182
85.85 -0.00224
85.9 -0.00156
85.95 -0.00141
86 -0.0015
86.05 -8e-04
86.1 -0.00055
86.15 -0.00043
86.2 -0.00097
86.25 -0.00053
86.3 -4e-05
86.35 4e-04
86.4 -0.00024
86.45 0.00012
86.5 2e-04
86.55 0.00074
86.6 -6e-05
86.65 -0.00173
86.7 -0.00317
86.75 -0.00446
86.8 -0.00479
86.85 -0.00591
86.9 -0.00582
86.95 -0.00498
87 -0.00433
87.05 -0.00282
87.1 -0.00275
87.15 -0.00356
87.2 -0.00382
87.25 -0.004
87.3 -0.00393
87.35 -0.00347
87.4 -0.0029
87.45 -0.00171
87.5 -0.00026
87.55 0.00081
87.6 0.00261
87.65 0.00428
87.7 0.00466
87.75 0.00366
87.8 0.00299
87.85 0.00192
87.9 0.00055
87.95 -0.00049
88 -0.00044
88.05 1e-04
88.1 2e-04
88.15 0.00025
88.2 -0.00013
88.25 -0.00125
88.3 -0.00152
88.35 -0.00186
88.4 -0.00223
88.45 -0.00172
88.5 -0.00096
88.55 -0.00035
88.6 0.00102
88.65 0.00267
88.7 0.00374
88.75 0.00323
88.8 0.0027
88.85 0.00233
88.9 0.00186
88.95 2e-04
89 -0.00041
89.05 -0.0017
89.1 -0.00145
89.15 -0.00131
89.2 -0.00147
89.25 -0.00095
89.3 -0.00125
89.35 -0.00198
89.4 -0.00142
89.45 -0.00084
89.5 -0.00076
89.55 -0.00034
89.6 9e-05
89.65 -0.00049
89.7 7e-05
89.75 -0.00053
89.8 -0.00162
89.85 -0.00255
89.9 -0.00302
89.95 -0.00313
90 -0.00282
90.05 -0.0023
90.1 -0.00189
90.15 -0.00078
90.2 0.00082
90.25 0.002
90.3 0.00247
90.35 0.00285
90.4 0.00367
90.45 0.00482
90.5 0.00588
90.55 0.00548
90.6 0.00441
90.65 0.00366
90.7 0.00296
90.75 0.00198
90.8 0.00055
90.85 -0.00077
90.9 -0.00191
90.95 -0.00328
91 -0.00482
91.05 -0.00576
91.1 -0.00616
91.15 -0.00616
91.2 -0.00543
91.25 -0.00442
91.3 -0.00212
91.35 6e-05
91.4 0.00165
91.45 0.00371
91.5 0.00459
91.55 0.00507
91.6 0.00477
91.65 0.0046
91.7 0.00352
91.75 0.00291
91.8 0.00149
91.85 -6e-05
91.9 -0.00152
91.95 -0.00173
92 -0.00034
92.05 0.00015
92.1 0.00103
92.15 0.00132
92.2 0.00137
92.25 0.00111
92.3 0.00176
92.35 0.00198
92.4 0.00229
92.45 0.0025
92.5 0.00249
92.55 0.00263
92.6 0.00196
92.65 0.00166
92.7 0.00142
92.75 0.00029
92.8 -0.00149
92.85 -0.00232
92.9 -0.00334
92.95 -0.00437
93 -0.00487
93.05 -0.00448
93.1 -0.00429
93.15 -0.00388
93.2 -0.00354
93.25 -0.00319
93.3 -0.00314
93.35 -0.00279
93.4 -0.00279
93.45 -0.00283
93.5 -0.00375
93.55 -0.0044
93.6 -0.00473
93.65 -0.0047
93.7 -0.00432
93.75 -0.00463
93.8 -0.00492
93.85 -0.00471
93.9 -0.00434
93.95 -0.00325
94 -0.00207
94.05 -0.00106
94.1 0.00147
94.15 0.00276
94.2 0.00379
94.25 0.00519
94.3 0.00629
94.35 0.00628
94.4 0.00556
94.45 0.00447
94.5 0.00286
94.55 0.00165
94.6 0.00021
94.65 -0.00224
94.7 -0.00245
94.75 -0.0025
94.8 -0.00191
94.85 -0.00106
94.9 -0.00076
94.95 -0.00091
95 -0.00181
95.05 -0.00214
95.1 -0.00118
95.15 -0.00053
95.2 0.00017
95.25 0.00047
95.3 0.00076
95.35 0.00123
95.4 0.0015
95.45 0.00239
95.5 0.00326
95.55 0.00495
95.6 0.00512
95.65 0.0046
95.7 0.00372
95.75 0.00354
95.8 0.00332
95.85 0.00356
95.9 0.00178
95.95 0.00027
96 0.00023
96.05 0.00068
96.1 0.00094
96.15 6e-04
96.2 0.00056
96.25 0.00048
96.3 -0.00036
96.35 -0.00048
96.4 -0.00088
96.45 -0.00106
96.5 -0.00193
96.55 -0.00311
96.6 -0.00424
96.65 -0.0053
96.7 -0.00573
96.75 -0.00563
96.8 -0.00522
96.85 -0.00366
96.9 -0.002
96.95 0.00026
97 0.0018
97.05 0.00167
97.1 0.00128
97.15 6e-05
97.2 -0.00052
97.25 -0.00094
97.3 -0.00139
97.35 -0.00239
97.4 -0.00259
97.45 -0.00444
97.5 -0.00608
97.55 -0.00691
97.6 -0.00826
97.65 -0.0085
97.7 -0.00844
97.75 -0.00727
97.8 -0.00606
97.85 -0.00466
97.9 -0.00343
97.95 -0.00246
98 -0.00212
98.05 -0.00199
98.1 -0.00141
98.15 -0.00086
98.2 -0.00023
98.25 -3e-05
98.3 0.00081
98.35 0.00134
98.4 0.00092
98.45 0.00044
98.5 3e-04
98.55 3e-05
98.6 0.00154
98.65 0.00253
98.7 0.0027
98.75 0.00195
98.8 0.00044
98.85 0.00051
98.9 0.00093
98.95 0.00044
99 0.00013
99.05 -0.00054
99.1 8e-05
99.15 0.00048
99.2 0.00119
99.25 0.00099
99.3 0.00114
99.35 0.00173
99.4 0.00108
99.45 -0.00042
99.5 -7e-04
99.55 -0.0015
99.6 -0.00198
99.65 -0.00148
99.7 -0.00106
99.75 -0.00114
99.8 0.00031
99.85 0.00055
99.9 0.00129
99.95 0.00222
