0 0
0.05 0.00495
0.1 0.01108
0.15 0.01801
0.2 0.02502
0.25 0.0308
0.3 0.03621
0.35 0.0404
0.4 0.04429
0.45 0.04813
0.5 0.05077
0.55 0.05238
0.6 0.05335
0.65 0.05307
0.7 0.05223
0.75 0.05066
0.8 0.04982
0.85 0.04874
0.9 0.04709
0.95 0.04603
1 0.04435
1.05 0.04213
1.1 0.04054
1.15 0.03969
1.2 0.0388
1.25 0.03703
1.3 0.03634
1.35 0.03519
1.4 0.03432
1.45 0.03328
1.5 0.03288
1.55 0.03232
1.6 0.03204
1.65 0.03266
1.7 0.0343
1.75 0.03443
1.8 0.03365
1.85 0.03174
1.9 0.03001
1.95 0.02911
2 0.02892
2.05 0.02962
2.1 0.03123
2.15 0.03279
2.2 0.03313
2.25 0.03274
2.3 0.03154
2.35 0.02984
2.4 0.02832
2.45 0.02732
2.5 0.02779
2.55 0.02794
2.6 0.02702
2.65 0.02589
2.7 0.02524
2.75 0.02547
2.8 0.02561
2.85 0.02553
2.9 0.02531
2.95 0.02468
3 0.02479
3.05 0.02478
3.1 0.02436
3.15 0.02478
3.2 0.02469
3.25 0.02494
3.3 0.02534
3.35 0.02493
3.4 0.02409
3.45 0.02294
3.5 0.02252
3.55 0.02188
3.6 0.02136
3.65 0.02071
3.7 0.01999
3.75 0.01793
3.8 0.01599
3.85 0.01541
3.9 0.01505
3.95 0.01463
4 0.01402
4.05 0.01382
4.1 0.01311
4.15 0.01262
4.2 0.01097
4.25 0.00929
4.3 0.00629
4.35 0.00325
4.4 -0.00042
4.45 -0.00546
4.5 -0.01236
4.55 -0.02101
4.6 -0.03207
4.65 -0.04508
4.7 -0.06052
4.75 -0.07916
4.8 -0.10031
4.85 -0.12535
4.9 -0.15549
4.95 -0.19045
5 -0.22997
5.05 -0.2739
5.1 -0.32358
5.15 -0.37844
5.2 -0.43917
5.25 -0.5042
5.3 -0.57377
5.35 -0.64822
5.4 -0.72757
5.45 -0.81064
5.5 -0.89748
5.55 -0.98632
5.6 -1.07798
5.65 -1.17056
5.7 -1.26427
5.75 -1.35757
5.8 -1.44996
5.85 -1.53956
5.9 -1.62638
5.95 -1.71082
6 -1.79208
6.05 -1.87012
6.1 -1.94429
6.15 -2.01523
6.2 -2.08139
6.25 -2.14182
6.3 -2.19824
6.35 -2.24882
6.4 -2.29284
6.45 -2.33067
6.5 -2.36164
6.55 -2.38386
6.6 -2.39619
6.65 -2.39856
6.7 -2.38905
6.75 -2.36769
6.8 -2.33208
6.85 -2.28185
6.9 -2.21747
6.95 -2.13793
7 -2.04239
7.05 -1.93202
7.1 -1.8065
7.15 -1.66711
7.2 -1.5148
7.25 -1.35086
7.3 -1.17653
7.35 -0.99328
7.4 -0.80192
7.45 -0.60633
7.5 -0.40885
7.55 -0.21164
7.6 -0.01707
7.65 0.17469
7.7 0.3611
7.75 0.54166
7.8 0.71428
7.85 0.87652
7.9 1.02978
7.95 1.17317
8 1.30534
8.05 1.42696
8.1 1.53727
8.15 1.63757
8.2 1.72745
8.25 1.8055
8.3 1.87371
8.35 1.93147
8.4 1.98089
8.45 2.02215
8.5 2.05588
8.55 2.0821
8.6 2.10137
8.65 2.11446
8.7 2.12266
8.75 2.1265
8.8 2.12617
8.85 2.12209
8.9 2.11582
8.95 2.10752
9 2.09665
9.05 2.08435
9.1 2.06978
9.15 2.05311
9.2 2.03669
9.25 2.01886
9.3 2.00043
9.35 1.98062
9.4 1.96046
9.45 1.93881
9.5 1.91669
9.55 1.89319
9.6 1.86762
9.65 1.84184
9.7 1.81516
9.75 1.78588
9.8 1.75558
9.85 1.7247
9.9 1.69321
9.95 1.66085
10 1.62637
10.05 1.59029
10.1 1.55262
10.15 1.51403
10.2 1.47384
10.25 1.43365
10.3 1.39258
10.35 1.35082
10.4 1.30876
10.45 1.26619
10.5 1.22276
10.55 1.1794
10.6 1.13454
10.65 1.09023
10.7 1.04574
10.75 1.00126
10.8 0.95707
10.85 0.91283
10.9 0.86839
10.95 0.82365
11 0.77922
11.05 0.73496
11.1 0.69105
11.15 0.64765
11.2 0.60532
11.25 0.56328
11.3 0.52203
11.35 0.48154
11.4 0.44184
11.45 0.40345
11.5 0.36529
11.55 0.32832
11.6 0.2914
11.65 0.25609
11.7 0.22287
11.75 0.1901
11.8 0.15717
11.85 0.12465
11.9 0.09449
11.95 0.06555
12 0.03755
12.05 0.01037
12.1 -0.01682
12.15 -0.04289
12.2 -0.06692
12.25 -0.08869
12.3 -0.10905
12.35 -0.12927
12.4 -0.1495
12.45 -0.16772
12.5 -0.18459
12.55 -0.20038
12.6 -0.21534
12.65 -0.22885
12.7 -0.24181
12.75 -0.25287
12.8 -0.26347
12.85 -0.27237
12.9 -0.28113
12.95 -0.28955
13 -0.29761
13.05 -0.30502
13.1 -0.31169
13.15 -0.31873
13.2 -0.32567
13.25 -0.33125
13.3 -0.33738
13.35 -0.34187
13.4 -0.34583
13.45 -0.34818
13.5 -0.35022
13.55 -0.35278
13.6 -0.35599
13.65 -0.35907
13.7 -0.36085
13.75 -0.36141
13.8 -0.36084
13.85 -0.3604
13.9 -0.3591
13.95 -0.35755
14 -0.35592
14.05 -0.35475
14.1 -0.35218
14.15 -0.34902
14.2 -0.3457
14.25 -0.34196
14.3 -0.33777
14.35 -0.33497
14.4 -0.33214
14.45 -0.32896
14.5 -0.32684
14.55 -0.32318
14.6 -0.31953
14.65 -0.31617
14.7 -0.31241
14.75 -0.30931
14.8 -0.30543
14.85 -0.30178
14.9 -0.29888
14.95 -0.29591
15 -0.29201
15.05 -0.28872
15.1 -0.28472
15.15 -0.28104
15.2 -0.27624
15.25 -0.27105
15.3 -0.26664
15.35 -0.26362
15.4 -0.25997
15.45 -0.25644
15.5 -0.2537
15.55 -0.25097
15.6 -0.24765
15.65 -0.24426
15.7 -0.23973
15.75 -0.23547
15.8 -0.23131
15.85 -0.22846
15.9 -0.22505
15.95 -0.22091
16 -0.21813
16.05 -0.21562
16.1 -0.21352
16.15 -0.21085
16.2 -0.20758
16.25 -0.20356
16.3 -0.19999
16.35 -0.19799
16.4 -0.19549
16.45 -0.19302
16.5 -0.19045
16.55 -0.18743
16.6 -0.18507
16.65 -0.18266
16.7 -0.17973
16.75 -0.17693
16.8 -0.17436
16.85 -0.1715
16.9 -0.1679
16.95 -0.16361
17 -0.16008
17.05 -0.15673
17.1 -0.1537
17.15 -0.15113
17.2 -0.14866
17.25 -0.14623
17.3 -0.14315
17.35 -0.13992
17.4 -0.13801
17.45 -0.13636
17.5 -0.13454
17.55 -0.13334
17.6 -0.13114
17.65 -0.12969
17.7 -0.12855
17.75 -0.12741
17.8 -0.12631
17.85 -0.12569
17.9 -0.12456
17.95 -0.1236
18 -0.1215
18.05 -0.11929
18.1 -0.11736
18.15 -0.11503
18.2 -0.11187
18.25 -0.10833
18.3 -0.10512
18.35 -0.10307
18.4 -0.10147
18.45 -0.0998
18.5 -0.0979
18.55 -0.0958
18.6 -0.09494
18.65 -0.0942
18.7 -0.0927
18.75 -0.09093
18.8 -0.08913
18.85 -0.08769
18.9 -0.08704
18.95 -0.08716
19 -0.08578
19.05 -0.08453
19.1 -0.08401
19.15 -0.08358
19.2 -0.08315
19.25 -0.08305
19.3 -0.08276
19.35 -0.08164
19.4 -0.07992
19.45 -0.07753
19.5 -0.07499
19.55 -0.07285
19.6 -0.06946
19.65 -0.06698
19.7 -0.0653
19.75 -0.06438
19.8 -0.06398
19.85 -0.0638
19.9 -0.06402
19.95 -0.06384
20 -0.06349
20.05 -0.06232
20.1 -0.06157
20.15 -0.0613
20.2 -0.0604
20.25 -0.05947
20.3 -0.0588
20.35 -0.05778
20.4 -0.05685
20.45 -0.05547
20.5 -0.05425
20.55 -0.05315
20.6 -0.05253
20.65 -0.0515
20.7 -0.0513
20.75 -0.05186
20.8 -0.05252
20.85 -0.0517
20.9 -0.0502
20.95 -0.04929
21 -0.04857
21.05 -0.04767
21.1 -0.04705
21.15 -0.04662
21.2 -0.04585
21.25 -0.04539
21.3 -0.04418
21.35 -0.04271
21.4 -0.04059
21.45 -0.03799
21.5 -0.0351
21.55 -0.03326
21.6 -0.03276
21.65 -0.03328
21.7 -0.03348
21.75 -0.03336
21.8 -0.0331
21.85 -0.0335
21.9 -0.03439
21.95 -0.03493
22 -0.03506
22.05 -0.03512
22.1 -0.03484
22.15 -0.03421
22.2 -0.03344
22.25 -0.03295
22.3 -0.03183
22.35 -0.03084
22.4 -0.03002
22.45 -0.02962
22.5 -0.02842
22.55 -0.0272
22.6 -0.02492
22.65 -0.0237
22.7 -0.02385
22.75 -0.02388
22.8 -0.02384
22.85 -0.02412
22.9 -0.02518
22.95 -0.02502
23 -0.02485
23.05 -0.02446
23.1 -0.02431
23.15 -0.0237
23.2 -0.02312
23.25 -0.02198
23.3 -0.02103
23.35 -0.01959
23.4 -0.01918
23.45 -0.01933
23.5 -0.01971
23.55 -0.02038
23.6 -0.01986
23.65 -0.02076
23.7 -0.02109
23.75 -0.02068
23.8 -0.02087
23.85 -0.02055
23.9 -0.02055
23.95 -0.01986
24 -0.01997
24.05 -0.02052
24.1 -0.0207
24.15 -0.02048
24.2 -0.01909
24.25 -0.01734
24.3 -0.01697
24.35 -0.01663
24.4 -0.01631
24.45 -0.01532
24.5 -0.0143
24.55 -0.01338
24.6 -0.01372
24.65 -0.01327
24.7 -0.01325
24.75 -0.01347
24.8 -0.01384
24.85 -0.01417
24.9 -0.01496
24.95 -0.0143
25 -0.01455
25.05 -0.01405
25.1 -0.01347
25.15 -0.01314
25.2 -0.01337
25.25 -0.01383
25.3 -0.01368
25.35 -0.01272
25.4 -0.01179
25.45 -0.0103
25.5 -0.00918
25.55 -0.00907
25.6 -0.00926
25.65 -0.00856
25.7 -0.00806
25.75 -0.00793
25.8 -0.0088
25.85 -0.01001
25.9 -0.00907
25.95 -0.00842
26 -0.0093
26.05 -0.00994
26.1 -0.01079
26.15 -0.01117
26.2 -0.01218
26.25 -0.01237
26.3 -0.01176
26.35 -0.012
26.4 -0.01197
26.45 -0.01182
26.5 -0.01188
26.55 -0.01088
26.6 -0.0098
26.65 -0.00852
26.7 -0.00684
26.75 -0.00566
26.8 -0.00557
26.85 -0.00488
26.9 -0.00446
26.95 -0.004
27 -0.00442
27.05 -0.00487
27.1 -0.00511
27.15 -0.0055
27.2 -0.00594
27.25 -0.00757
27.3 -0.00861
27.35 -0.00812
27.4 -0.00822
27.45 -0.00729
27.5 -0.00636
27.55 -0.00594
27.6 -0.00527
27.65 -0.00444
27.7 -0.00329
27.75 -0.00212
27.8 -0.00212
27.85 -0.00186
27.9 -0.00155
27.95 -0.00161
28 -0.00215
28.05 -0.00236
28.1 -0.00343
28.15 -0.00372
28.2 -0.00391
28.25 -0.00428
28.3 -0.00454
28.35 -0.00525
28.4 -0.00529
28.45 -0.00543
28.5 -0.0047
28.55 -0.00404
28.6 -0.00402
28.65 -0.00328
28.7 -0.00328
28.75 -0.00349
28.8 -0.00372
28.85 -0.00322
28.9 -0.00286
28.95 -0.0021
29 -0.00187
29.05 -0.00138
29.1 -0.00063
29.15 -0.00105
29.2 -0.00178
29.25 -0.00246
29.3 -0.00298
29.35 -0.0037
29.4 -0.00413
29.45 -0.00442
29.5 -0.00492
29.55 -0.00557
29.6 -0.00633
29.65 -0.00711
29.7 -0.00727
29.75 -0.00742
29.8 -0.00691
29.85 -0.00507
29.9 -0.00312
29.95 -0.00173
30 -0.00062
30.05 -9e-05
30.1 0.00126
30.15 0.00172
30.2 0.00071
30.25 5e-04
30.3 0.00219
30.35 0.00165
30.4 0.00157
30.45 0.00242
30.5 0.00291
30.55 0.00261
30.6 0.00212
30.65 0.0014
30.7 0.00203
30.75 0.00228
30.8 0.00215
30.85 0.00101
30.9 0.00058
30.95 0.00048
31 -7e-04
31.05 -0.0019
31.1 -0.00261
31.15 -0.00196
31.2 -0.00154
31.25 -0.00085
31.3 -0.00029
31.35 -0.00063
31.4 -0.00034
31.45 0.00015
31.5 -0.00029
31.55 -7e-05
31.6 -0.00065
31.65 -0.00169
31.7 -0.00182
31.75 -0.00202
31.8 -0.00099
31.85 -0.00056
31.9 -0.00074
31.95 -0.00166
32 -0.0022
32.05 -0.00308
32.1 -0.00412
32.15 -0.00532
32.2 -0.00476
32.25 -0.00408
32.3 -0.0035
32.35 -0.00349
32.4 -0.00386
32.45 -0.00474
32.5 -0.00507
32.55 -0.00491
32.6 -0.00473
32.65 -0.00552
32.7 -0.00631
32.75 -0.00667
32.8 -0.00718
32.85 -0.00621
32.9 -0.00575
32.95 -0.00493
33 -0.00398
33.05 -0.00348
33.1 -0.00224
33.15 -0.00094
33.2 0.00069
33.25 4e-05
33.3 -0.00099
33.35 -0.00161
33.4 -0.00244
33.45 -0.0033
33.5 -0.00403
33.55 -0.00432
33.6 -0.00467
33.65 -0.00467
33.7 -0.00467
33.75 -0.00471
33.8 -0.00439
33.85 -0.00423
33.9 -0.0026
33.95 -0.00123
34 -0.00047
34.05 -0.00105
34.1 -0.0011
34.15 -0.00096
34.2 -0.00125
34.25 -0.00201
34.3 -0.00241
34.35 -0.00181
34.4 -0.00174
34.45 -0.00164
34.5 -0.00187
34.55 -0.00185
34.6 -0.00202
34.65 -0.0013
34.7 -0.00012
34.75 0.00044
34.8 0.00114
34.85 0.0013
34.9 0.00101
34.95 0.00078
35 -0.00022
35.05 -0.00133
35.1 -0.00142
35.15 -0.00165
35.2 -0.00204
35.25 -0.00299
35.3 -0.003
35.35 -0.00244
35.4 -0.00257
35.45 -0.00252
35.5 -0.0015
35.55 -0.00056
35.6 4e-05
35.65 0.00112
35.7 0.00079
35.75 -9e-05
35.8 -0.00125
35.85 -0.00306
35.9 -0.00499
35.95 -0.00549
36 -0.00464
36.05 -0.00423
36.1 -0.00443
36.15 -0.00427
36.2 -0.00317
36.25 -0.00208
36.3 -0.00141
36.35 -0.00132
36.4 -9e-05
36.45 1e-05
36.5 -0.00057
36.55 -0.00121
36.6 -0.00149
36.65 -0.00157
36.7 -0.00185
36.75 -0.00236
36.8 -0.00342
36.85 -0.0038
36.9 -0.00368
36.95 -0.00284
37 -0.00275
37.05 -0.00297
37.1 -0.00375
37.15 -0.00419
37.2 -0.00395
37.25 -0.00321
37.3 -0.00223
37.35 -0.00183
37.4 -0.00166
37.45 -0.00063
37.5 -0.00033
37.55 -7e-05
37.6 -1e-04
37.65 -0.00141
37.7 -0.0029
37.75 -0.00424
37.8 -0.00531
37.85 -0.00613
37.9 -0.00532
37.95 -0.00467
38 -0.00358
38.05 -0.00268
38.1 -0.00231
38.15 -0.0022
38.2 -0.00277
38.25 -0.00275
38.3 -0.00256
38.35 -0.00216
38.4 -0.00233
38.45 -0.00277
38.5 -0.00193
38.55 -0.00197
38.6 -0.0016
38.65 -0.00158
38.7 -0.00046
38.75 0.00052
38.8 0.00016
38.85 -0.00091
38.9 -0.00066
38.95 -0.00119
39 -0.00121
39.05 -0.00189
39.1 -0.00258
39.15 -0.00202
39.2 -0.00069
39.25 0.00052
39.3 0.00098
39.35 0.00058
39.4 0.00071
39.45 -8e-05
39.5 -0.00057
39.55 8e-05
39.6 -2e-05
39.65 0.00095
39.7 0.00148
39.75 0.00089
39.8 5e-04
39.85 0.00021
39.9 0.00017
39.95 -0.00082
40 -0.00115
40.05 -0.00064
40.1 -0.00026
40.15 0.00046
40.2 0.00099
40.25 0.00166
40.3 0.00297
40.35 0.00293
40.4 0.00213
40.45 0.00045
40.5 -0.00022
40.55 -0.00116
40.6 -0.0018
40.65 -0.00189
40.7 -0.00251
40.75 -0.00311
40.8 -0.00413
40.85 -0.00394
40.9 -0.00335
40.95 -0.00168
41 0.00019
41.05 0.0015
41.1 0.00256
41.15 0.00358
41.2 0.00433
41.25 0.00421
41.3 0.00343
41.35 0.00277
41.4 0.00172
41.45 0.00079
41.5 0.00018
41.55 -0.00014
41.6 -0.00077
41.65 -0.0014
41.7 -0.00215
41.75 -0.00274
41.8 -0.003
41.85 -0.00327
41.9 -0.0027
41.95 -0.00282
42 -0.00291
42.05 -0.00234
42.1 -0.00106
42.15 0.00027
42.2 0.00127
42.25 0.0016
42.3 0.00225
42.35 0.00301
42.4 0.00453
42.45 0.00538
42.5 0.00543
42.55 0.00482
42.6 0.00413
42.65 0.00319
42.7 0.00228
42.75 0.0015
42.8 1e-04
42.85 -0.00088
42.9 -0.00123
42.95 -0.00102
43 -0.00033
43.05 0.00109
43.1 0.00204
43.15 0.00242
43.2 0.00235
43.25 0.00203
43.3 0.00182
43.35 0.00219
43.4 0.00246
43.45 0.00173
43.5 0.00188
43.55 0.00175
43.6 0.0017
43.65 8e-04
43.7 0.00073
43.75 0.00017
43.8 -0.00054
43.85 -0.001
43.9 -0.00132
43.95 -0.00209
44 -0.00167
44.05 -0.00128
44.1 0.00019
44.15 0.00117
44.2 0.002
44.25 0.00231
44.3 0.00263
44.35 0.00231
44.4 0.00182
44.45 0.0011
44.5 0.00041
44.55 -1e-04
44.6 -0.00133
44.65 -0.00238
44.7 -0.00217
44.75 -0.00289
44.8 -0.0035
44.85 -0.00378
44.9 -0.00367
44.95 -0.00325
45 -0.00195
45.05 -0.00045
45.1 -0.00025
45.15 0.00011
45.2 5e-05
45.25 -0.00037
45.3 -0.00107
45.35 -0.00117
45.4 -0.00149
45.45 -0.00108
45.5 -0.00131
45.55 -0.00175
45.6 -0.00176
45.65 -0.00185
45.7 -0.00272
45.75 -0.00251
45.8 -0.00198
45.85 -0.00103
45.9 -0.00069
45.95 -0.00114
46 -0.0013
46.05 -0.0014
46.1 -0.00122
46.15 -0.00152
46.2 -0.00133
46.25 -0.00011
46.3 -1e-05
46.35 -8e-04
46.4 -0.00191
46.45 -0.00215
46.5 -0.00253
46.55 -0.00259
46.6 -0.00184
46.65 1e-05
46.7 0.00103
46.75 0.0023
46.8 0.0035
46.85 0.00379
46.9 0.00432
46.95 0.00408
47 0.00373
47.05 0.00378
47.1 0.00377
47.15 0.00361
47.2 0.00285
47.25 0.00171
47.3 0.00095
47.35 0.00098
47.4 2e-04
47.45 -0.00028
47.5 -0.00044
47.55 -0.00047
47.6 0.00081
47.65 0.00026
47.7 0.00017
47.75 -0.00109
47.8 -0.00218
47.85 -0.00204
47.9 -0.00194
47.95 -0.00149
48 -0.00033
48.05 0.00044
48.1 0.00114
48.15 0.00167
48.2 0.0017
48.25 0.00166
48.3 0.0019
48.35 0.00236
48.4 0.00323
48.45 0.0042
48.5 0.00454
48.55 0.00477
48.6 0.00469
48.65 0.00489
48.7 0.00455
48.75 0.0046
48.8 0.0039
48.85 0.00339
48.9 0.00218
48.95 0.00146
49 0.00134
49.05 0.00058
49.1 0.00021
49.15 -0.00118
49.2 -0.00119
49.25 -0.00087
49.3 -0.00088
49.35 -0.00051
49.4 -0.00032
49.45 -0.00075
49.5 -0.00075
49.55 -0.00086
49.6 -0.00094
49.65 -0.00155
49.7 -0.00153
49.75 -0.0016
49.8 -0.00113
49.85 -0.00064
49.9 0.00043
49.95 0.00108
50 0.00208
50.05 0.00261
50.1 0.00173
50.15 0.00065
50.2 0.00028
50.25 -0.00059
50.3 -0.00131
50.35 -0.00228
50.4 -0.00318
50.45 -0.00347
50.5 -0.00361
50.55 -0.00399
50.6 -0.00411
50.65 -0.00352
50.7 -0.00404
50.75 -0.00369
50.8 -0.00341
50.85 -0.00388
50.9 -0.00327
50.95 -0.00331
51 -0.0028
51.05 -0.0027
51.1 -0.00277
51.15 -0.00274
51.2 -0.00255
51.25 -0.00213
51.3 -0.00151
51.35 -0.00124
51.4 -0.00078
51.45 2e-05
51.5 -0.00031
51.55 -9e-04
51.6 -0.00018
51.65 -3e-05
51.7 3e-04
51.75 0.00074
51.8 0.00129
51.85 0.00124
51.9 0.00079
51.95 -0.00014
52 -0.00086
52.05 -0.00163
52.1 -0.00203
52.15 -0.00147
52.2 -0.0015
52.25 -0.00177
52.3 -0.0012
52.35 -0.00073
52.4 -7e-05
52.45 0.00016
52.5 -0.00052
52.55 -0.00113
52.6 -0.00126
52.65 -9e-05
52.7 1e-04
52.75 0.00163
52.8 0.00251
52.85 0.00261
52.9 0.00157
52.95 0.00147
53 0.00153
53.05 0.00125
53.1 0.00094
53.15 0.00097
53.2 -1e-05
53.25 -0.00111
53.3 -0.00087
53.35 -0.00014
53.4 -0.00025
53.45 0.00062
53.5 0.00127
53.55 0.00113
53.6 2e-04
53.65 -0.00049
53.7 -0.00129
53.75 -0.00212
53.8 -0.00256
53.85 -0.00357
53.9 -0.00454
53.95 -0.00429
54 -0.00367
54.05 -0.00353
54.1 -0.00399
54.15 -0.00366
54.2 -0.00282
54.25 -0.00208
54.3 -0.00207
54.35 -0.0015
54.4 -0.00067
54.45 8e-05
54.5 0.00102
54.55 0.00146
54.6 0.00144
54.65 0.00135
54.7 0.00241
54.75 0.00333
54.8 0.00353
54.85 0.00487
54.9 0.00624
54.95 0.00641
55 0.00565
55.05 0.00445
55.1 0.00288
55.15 0.00098
55.2 -4e-04
55.25 -0.00126
55.3 -0.00184
55.35 -0.00212
55.4 -0.00249
55.45 -0.00202
55.5 -0.00201
55.55 -0.00194
55.6 -0.00145
55.65 -0.00191
55.7 -0.00107
55.75 -0.00042
55.8 3e-04
55.85 0.00032
55.9 -4e-04
55.95 -0.00161
56 -0.00164
56.05 -0.00072
56.1 -0.00033
56.15 -0.00069
56.2 -0.00062
56.25 0.00039
56.3 0.00079
56.35 0.00093
56.4 0.00129
56.45 1e-05
56.5 -0.0013
56.55 -0.00236
56.6 -0.00245
56.65 -0.00415
56.7 -0.00494
56.75 -0.00462
56.8 -0.00341
56.85 -0.00261
56.9 -0.00206
56.95 -0.00161
57 -0.00084
57.05 -4e-05
57.1 6e-05
57.15 0.00077
57.2 0.0023
57.25 0.00376
57.3 0.00462
57.35 0.00483
57.4 0.0047
57.45 0.0046
57.5 0.00347
57.55 0.00234
57.6 9e-04
57.65 0.00012
57.7 0.00013
57.75 -0.00016
57.8 -0.00063
57.85 -0.00115
57.9 -0.00248
57.95 -0.00218
58 -0.00166
58.05 -0.00084
58.1 0.00015
58.15 0.00031
58.2 0.00134
58.25 0.00269
58.3 0.00335
58.35 0.00393
58.4 0.00457
58.45 0.00404
58.5 0.0034
58.55 0.00331
58.6 0.00307
58.65 0.00191
58.7 0.00112
58.75 0.00075
58.8 -0.00045
58.85 -0.00185
58.9 -0.0025
58.95 -0.00292
59 -0.00294
59.05 -0.0026
59.1 -0.00194
59.15 -0.00185
59.2 -0.00166
59.25 -0.00178
59.3 -0.00182
59.35 -0.00068
59.4 -0.00028
59.45 0.00069
59.5 0.00091
59.55 0.00019
59.6 -0.00054
59.65 -0.00135
59.7 -0.00121
59.75 -0.00112
59.8 -0.00111
59.85 -0.0022
59.9 -0.00294
59.95 -0.00407
60 -0.00469
60.05 -0.00494
60.1 -0.00445
60.15 -0.00425
60.2 -0.00371
60.25 -0.00297
60.3 -0.00179
60.35 -0.00125
60.4 -0.00051
60.45 0.00099
60.5 0.0014
60.55 0.00112
60.6 0.00105
60.65 3e-05
60.7 -0.00015
60.75 -0.00133
60.8 -0.0018
60.85 -0.00274
60.9 -0.00244
60.95 -0.00142
61 -0.00096
61.05 -0.00072
61.1 -0.00086
61.15 -0.00034
61.2 -0.00022
61.25 0.00086
61.3 0.00153
61.35 0.00181
61.4 0.00189
61.45 0.00175
61.5 0.00156
61.55 0.00181
61.6 0.00083
61.65 -0.00059
61.7 -0.00124
61.75 -0.00108
61.8 -0.00139
61.85 -0.00124
61.9 -0.00058
61.95 -0.00011
62 -0.00012
62.05 0.00022
62.1 0.00033
62.15 -0.00013
62.2 -7e-05
62.25 -0.00021
62.3 -0.00027
62.35 -0.00102
62.4 -0.00179
62.45 -0.00283
62.5 -0.00364
62.55 -0.00431
62.6 -0.00455
62.65 -0.00405
62.7 -0.00268
62.75 -0.00154
62.8 -0.00172
62.85 -0.00155
62.9 -0.00063
62.95 -0.00051
63 -0.00055
63.05 -0.00189
63.1 -0.00241
63.15 -0.00291
63.2 -0.00373
63.25 -0.00466
63.3 -0.00487
63.35 -0.00407
63.4 -0.00323
63.45 -0.00237
63.5 -0.00093
63.55 4e-04
63.6 0.00062
63.65 0.00031
63.7 0.00056
63.75 4e-05
63.8 -0.00135
63.85 -0.00081
63.9 0.00034
63.95 0.00119
64 0.00161
64.05 0.0016
64.1 0.00075
64.15 -0.00064
64.2 -0.00169
64.25 -0.00176
64.3 -6e-05
64.35 0.00159
64.4 0.00234
64.45 0.00151
64.5 0.00138
64.55 0.00046
64.6 4e-05
64.65 -0.00049
64.7 -0.00026
64.75 -0.00093
64.8 -0.00122
64.85 -0.00067
64.9 -0.00041
64.95 -0.00028
65 1e-05
65.05 0.00019
65.1 0.00029
65.15 0.00149
65.2 0.00278
65.25 0.00306
65.3 0.00279
65.35 0.00273
65.4 0.00281
65.45 0.00251
65.5 0.00196
65.55 5e-04
65.6 -0.00081
65.65 -0.00159
65.7 -0.00323
65.75 -0.0033
65.8 -0.00303
65.85 -0.00313
65.9 -0.00257
65.95 -0.00245
66 -0.00263
66.05 -0.00261
66.1 -0.00197
66.15 -0.00163
66.2 -0.00077
66.25 -0.00054
66.3 -0.00072
66.35 -0.00053
66.4 -0.00044
66.45 -0.00074
66.5 -0.00096
66.55 -0.00142
66.6 -0.00091
66.65 -0.00101
66.7 -0.00057
66.75 1e-05
66.8 0.00109
66.85 0.00188
66.9 0.00315
66.95 0.00362
67 0.00388
67.05 0.00366
67.1 0.00198
67.15 0.00114
67.2 0.00043
67.25 -0.00053
67.3 -0.00139
67.35 -0.0016
67.4 -0.00087
67.45 -0.00029
67.5 -0.00022
67.55 -3e-05
67.6 -2e-05
67.65 0.00043
67.7 0.00156
67.75 0.00162
67.8 0.00164
67.85 0.00201
67.9 0.00147
67.95 0.00174
68 0.00121
68.05 0.00014
68.1 -0.00147
68.15 -0.00302
68.2 -0.00264
68.25 -0.0026
68.3 -0.00271
68.35 -0.00451
68.4 -0.00465
68.45 -0.00496
68.5 -0.00532
68.55 -0.00518
68.6 -0.00399
68.65 -0.00292
68.7 -0.00175
68.75 8e-04
68.8 0.00287
68.85 0.00303
68.9 0.0035
68.95 0.00418
69 0.00452
69.05 0.00413
69.1 0.00422
69.15 0.00302
69.2 0.00212
69.25 0.00228
69.3 0.00232
69.35 0.0019
69.4 0.00131
69.45 4e-04
69.5 0.00063
69.55 0.00046
69.6 0.00041
69.65 -2e-05
69.7 -0.0011
69.75 -0.00261
69.8 -0.00326
69.85 -0.00443
69.9 -0.00562
69.95 -0.0059
70 -0.00613
70.05 -0.00627
70.1 -0.0053
70.15 -0.00498
70.2 -0.00487
70.25 -0.00442
70.3 -0.00371
70.35 -0.00288
70.4 -0.00204
70.45 -0.00133
70.5 -0.00067
70.55 0.00055
70.6 0.00144
70.65 0.00132
70.7 0.00163
70.75 0.00211
70.8 0.00147
70.85 0.00031
70.9 -0.00117
70.95 -0.00216
71 -0.0018
71.05 -0.00158
71.1 -0.00115
71.15 -0.0015
71.2 -0.0015
71.25 -0.00115
71.3 -0.00156
71.35 -0.00236
71.4 -0.00359
71.45 -0.00363
71.5 -0.00277
71.55 -0.00191
71.6 -0.00175
71.65 -0.00172
71.7 -0.00214
71.75 -0.00283
71.8 -0.00239
71.85 -0.00155
71.9 -0.00092
71.95 -0.00098
72 6e-05
72.05 0.00152
72.1 0.00375
72.15 0.00413
72.2 0.00407
72.25 0.00346
72.3 0.00258
72.35 0.00208
72.4 0.00226
72.45 0.00221
72.5 0.00138
72.55 4e-04
72.6 -0.00066
72.65 -0.00146
72.7 -0.00147
72.75 -0.00149
72.8 -0.00119
72.85 -0.00122
72.9 -0.00119
72.95 -0.00063
73 -0.00059
73.05 -0.00113
73.1 -0.00141
73.15 -0.002
73.2 -0.00247
73.25 -0.00332
73.3 -0.00357
73.35 -0.00501
73.4 -0.00584
73.45 -0.00566
73.5 -0.00499
73.55 -0.00434
73.6 -0.00374
73.65 -0.00292
73.7 -0.00194
73.75 -0.0015
73.8 -0.00134
73.85 -0.00118
73.9 -0.00175
73.95 -0.00182
74 -0.00097
74.05 -0.00033
74.1 0.00011
74.15 -0.00013
74.2 0.00048
74.25 0.00081
74.3 0.00058
74.35 -0.00017
74.4 -0.00039
74.45 -0.00117
74.5 -0.00176
74.55 -0.00231
74.6 -0.00159
74.65 -0.00089
74.7 -0.00138
74.75 -0.00167
74.8 -0.00195
74.85 -0.00288
74.9 -0.0036
74.95 -0.0038
75 -0.00448
75.05 -0.00373
75.1 -0.00202
75.15 -0.00129
75.2 -0.00079
75.25 -7e-04
75.3 -0.00078
75.35 -0.00112
75.4 -0.00083
75.45 3e-05
75.5 0.00117
75.55 0.00151
75.6 0.00092
75.65 -0.00044
75.7 -0.00226
75.75 -0.00324
75.8 -0.00337
75.85 -0.00214
75.9 -0.00174
75.95 -0.00154
76 3e-04
76.05 0.00173
76.1 0.0024
76.15 0.00282
76.2 0.00275
76.25 0.00217
76.3 0.0023
76.35 0.00215
76.4 0.00224
76.45 4e-04
76.5 -0.00029
76.55 -0.00074
76.6 -0.00127
76.65 -0.00233
76.7 -0.00147
76.75 -0.0017
76.8 -0.00182
76.85 -0.00153
76.9 -0.00067
76.95 -0.00126
77 -0.00116
77.05 -0.00112
77.1 -0.00123
77.15 -0.00185
77.2 -0.00067
77.25 -0.00033
77.3 0.00021
77.35 0.00103
77.4 0.00224
77.45 0.00245
77.5 0.00266
77.55 0.00306
77.6 0.0037
77.65 0.00415
77.7 0.00392
77.75 0.00393
77.8 0.00375
77.85 0.00367
77.9 0.00347
77.95 0.00363
78 0.00371
78.05 0.00237
78.1 0.00233
78.15 0.00341
78.2 0.00385
78.25 0.00482
78.3 0.0044
78.35 0.00329
78.4 0.00139
78.45 0.00049
78.5 0.00077
78.55 0.00074
78.6 0.00053
78.65 -0.00028
78.7 -0.00135
78.75 -0.00133
78.8 -0.00087
78.85 -0.00078
78.9 -0.00124
78.95 -0.00123
79 -0.00136
79.05 -0.00192
79.1 -0.00197
79.15 -0.00194
79.2 -0.00192
79.25 -0.00102
79.3 0.00026
79.35 9e-04
79.4 0.00125
79.45 0.00025
79.5 0.00067
79.55 -0.00017
79.6 -0.00112
79.65 -0.00186
79.7 0.00014
79.75 0.00194
79.8 0.00321
79.85 0.00346
79.9 0.00259
79.95 0.00294
80 0.00312
80.05 0.00323
80.1 0.0031
80.15 0.0028
80.2 0.0027
80.25 0.0018
80.3 0.00094
80.35 -0.00016
80.4 -4e-04
80.45 -0.00105
80.5 -0.00178
80.55 -0.00132
80.6 -0.00169
80.65 -0.00186
80.7 -0.0017
80.75 -0.00096
80.8 -0.00031
80.85 0.00087
80.9 0.00163
80.95 0.00191
81 0.00221
81.05 0.00176
81.1 0.00155
81.15 0.00217
81.2 0.00284
81.25 0.00329
81.3 0.0019
81.35 0.00064
81.4 2e-04
81.45 -0.00014
81.5 -8e-05
81.55 -0.00021
81.6 -0.00058
81.65 -0.00127
81.7 -0.00168
81.75 -0.00233
81.8 -0.00205
81.85 -0.00161
81.9 -0.00073
81.95 0.00049
82 -8e-05
82.05 -0.00068
82.1 -0.00124
82.15 -0.00133
82.2 -0.00172
82.25 -0.00193
82.3 -0.00178
82.35 -0.00118
82.4 -0.00112
82.45 -0.00075
82.5 -0.00053
82.55 -0.00037
82.6 -0.00042
82.65 -0.00061
82.7 -0.00089
82.75 -0.00118
82.8 -0.00087
82.85 -0.00079
82.9 7e-05
82.95 0.00096
83 0.00154
83.05 0.00112
83.1 0.00079
83.15 -0.00026
83.2 -0.00075
83.25 -0.00126
83.3 -0.00106
83.35 -0.00071
83.4 -0.00091
83.45 -0.00193
83.5 -0.00185
83.55 -0.00134
83.6 -0.00145
83.65 -0.00116
83.7 -0.00056
83.75 -0.00072
83.8 -0.00056
83.85 -0.00036
83.9 -0.00019
83.95 7e-04
84 0.00123
84.05 0.00233
84.1 0.00182
84.15 0.00099
84.2 -2e-05
84.25 7e-05
84.3 -0.00022
84.35 -0.00137
84.4 -0.00259
84.45 -0.00217
84.5 -0.00124
84.55 -0.00146
84.6 -0.00227
84.65 -0.00294
84.7 -0.0029
84.75 -0.00149
84.8 -0.00084
84.85 -0.00117
84.9 -0.00145
84.95 -0.00112
85 -0.00173
85.05 -0.0024
85.1 -0.00269
85.15 -0.00182
85.2 -0.00124
85.25 -0.00105
85.3 -0.00039
85.35 -0.00036
85.4 -0.00114
85.45 -0.00087
85.5 -0.00016
85.55 -0.00045
85.6 -0.00069
85.65 -0.00103
85.7 -0.00147
85.75 -0.00049
85.8 -8e-05
85.85 -0.00082
85.9 -0.00054
85.95 -0.00138
86 -0.002
86.05 -0.00254
86.1 -0.00327
86.15 -0.00373
86.2 -0.00428
86.25 -0.00401
86.3 -0.00351
86.35 -0.00327
86.4 -0.00297
86.45 -0.00271
86.5 -0.003
86.55 -0.00387
86.6 -0.00504
86.65 -0.00536
86.7 -0.00518
86.75 -0.0044
86.8 -0.0034
86.85 -0.00237
86.9 -0.00137
86.95 -9e-04
87 0
87.05 0.00102
87.1 0.00247
87.15 0.00333
87.2 0.0033
87.25 0.00229
87.3 0.00079
87.35 0.00018
87.4 0.00024
87.45 0.00143
87.5 0.00204
87.55 0.00228
87.6 0.00187
87.65 0.001
87.7 -5e-05
87.75 -0.00072
87.8 -0.00156
87.85 -0.00251
87.9 -0.00286
87.95 -0.00292
88 -0.00349
88.05 -0.00393
88.1 -0.0038
88.15 -0.00286
88.2 -0.00132
88.25 -0.00025
88.3 4e-04
88.35 0.00058
88.4 0.00084
88.45 2e-04
88.5 0.00016
88.55 5e-05
88.6 -7e-05
88.65 -0.00057
88.7 -0.00067
88.75 -0.00025
88.8 0.00083
88.85 0.00095
88.9 0.00051
88.95 0.00123
89 0.00136
89.05 0.00108
89.1 0.00016
89.15 8e-05
89.2 0.00084
89.25 0.00178
89.3 0.00248
89.35 0.00247
89.4 0.00305
89.45 0.00266
89.5 0.00299
89.55 0.0037
89.6 0.00294
89.65 0.00227
89.7 0.00166
89.75 0.00146
89.8 0.00082
89.85 -0.00095
89.9 -0.00158
89.95 -0.00131
90 -0.00094
90.05 -0.00112
90.1 -0.00137
90.15 -0.00119
90.2 -0.00119
90.25 -0.00043
90.3 -0.00031
90.35 0.00032
90.4 0.00011
90.45 -0.0014
90.5 -0.00213
90.55 -0.00236
90.6 -0.00309
90.65 -0.00374
90.7 -0.00434
90.75 -0.00524
90.8 -0.00592
90.85 -0.00646
90.9 -0.00603
90.95 -0.00503
91 -0.00398
91.05 -0.00176
91.1 0.00077
91.15 0.0032
91.2 0.00602
91.25 0.00724
91.3 0.00732
91.35 0.00603
91.4 0.00409
91.45 0.00274
91.5 0.00112
91.55 -0.00068
91.6 -0.00099
91.65 -0.00124
91.7 -0.00117
91.75 -0.00067
91.8 0.00082
91.85 0.00171
91.9 0.00244
91.95 0.00309
92 0.00301
92.05 0.00186
92.1 8e-04
92.15 -0.00041
92.2 -0.00059
92.25 0.00059
92.3 0.00265
92.35 0.00379
92.4 0.00367
92.45 0.00307
92.5 0.00148
92.55 0.00073
92.6 0.00068
92.65 0
92.7 -0.00072
92.75 -0.00125
92.8 -0.0014
92.85 -0.00076
92.9 0.00016
92.95 0.00075
93 0.00099
93.05 0.00183
93.1 0.00066
93.15 -0.00085
93.2 -0.00144
93.25 -0.0022
93.3 -0.00226
93.35 -0.00227
93.4 -0.00184
93.45 -0.00159
93.5 -0.00232
93.55 -0.00291
93.6 -0.00346
93.65 -0.00278
93.7 -0.00049
93.75 0.00058
93.8 0.0014
93.85 0.00244
93.9 0.00304
93.95 0.00311
94 0.00285
94.05 0.00332
94.1 0.00347
94.15 0.00286
94.2 0.0013
94.25 0.00092
94.3 0.00067
94.35 -0.00023
94.4 -9e-04
94.45 -0.00133
94.5 -0.00232
94.55 -0.00184
94.6 -0.00073
94.65 -0.00048
94.7 -0.00072
94.75 -0.00102
94.8 -0.00068
94.85 -0.00121
94.9 -0.00293
94.95 -0.00431
95 -0.00501
95.05 -0.00502
95.1 -0.00441
95.15 -0.00378
95.2 -0.00313
95.25 -0.0023
95.3 -0.00151
95.35 -0.00216
95.4 -0.0021
95.45 -0.00185
95.5 -0.0025
95.55 -0.00239
95.6 -0.00223
95.65 -0.00288
95.7 -0.00403
95.75 -0.0049
95.8 -0.00376
95.85 -0.00266
95.9 -0.00223
95.95 -0.00088
96 -0.00095
96.05 -0.00107
96.1 -0.00078
96.15 -0.00136
96.2 -0.00093
96.25 -0.00105
96.3 -0.00122
96.35 -0.00176
96.4 -0.00206
96.45 -0.00191
96.5 -0.00259
96.55 -0.00262
96.6 -0.00251
96.65 -0.00243
96.7 -0.00175
96.75 -0.00143
96.8 -0.00207
96.85 -0.00181
96.9 -0.00235
96.95 -0.00362
97 -0.0032
97.05 -0.00296
97.1 -0.00357
97.15 -0.004
97.2 -0.00267
97.25 -0.00184
97.3 -0.00254
97.35 -0.00324
97.4 -0.00262
97.45 -0.00232
97.5 -0.0024
97.55 -0.00266
97.6 -0.00235
97.65 -0.0024
97.7 -0.00228
97.75 -0.00243
97.8 -0.00309
97.85 -0.00363
97.9 -0.00402
97.95 -0.00417
98 -0.00409
98.05 -0.00321
98.1 -0.0031
98.15 -0.00393
98.2 -0.00414
98.25 -0.0033
98.3 -0.00303
98.35 -0.00195
98.4 -0.00091
98.45 -0.00076
98.5 -0.00057
98.55 -0.00109
98.6 -0.00044
98.65 0.00033
98.7 0.00023
98.75 -0.00033
98.8 -0.00029
98.85 0.00017
98.9 -0.00042
98.95 -0.00051
99 -0.00074
99.05 -0.00138
99.1 -0.00217
99.15 -0.00208
99.2 -0.00337
99.25 -0.00369
99.3 -0.00237
99.35 -0.00159
99.4 -0.00181
99.45 -0.0022
99.5 -0.00346
99.55 -0.00317
99.6 -0.00291
99.65 -0.00343
99.7 -0.00345
99.75 -0.00358
99.8 -0.00371
99.85 -0.00346
99.9 -0.00377
99.95 -0.00196
