0 0
0.05 0.00498
0.1 0.0124
0.15 0.02034
0.2 0.02782
0.25 0.03437
0.3 0.04077
0.35 0.04455
0.4 0.04889
0.45 0.0513
0.5 0.0531
0.55 0.05411
0.6 0.05431
0.65 0.05358
0.7 0.05269
0.75 0.05212
0.8 0.05172
0.85 0.05102
0.9 0.05092
0.95 0.05007
1 0.04857
1.05 0.04773
1.1 0.04651
1.15 0.04538
1.2 0.04309
1.25 0.04071
1.3 0.03847
1.35 0.03679
1.4 0.03637
1.45 0.03601
1.5 0.03553
1.55 0.03539
1.6 0.03507
1.65 0.03455
1.7 0.03389
1.75 0.03364
1.8 0.03415
1.85 0.03362
1.9 0.03277
1.95 0.03271
2 0.0321
2.05 0.03073
2.1 0.0301
2.15 0.03046
2.2 0.0296
2.25 0.02954
2.3 0.02957
2.35 0.02886
2.4 0.02739
2.45 0.02661
2.5 0.02616
2.55 0.02557
2.6 0.02488
2.65 0.02449
2.7 0.02461
2.75 0.02444
2.8 0.02475
2.85 0.02462
2.9 0.02404
2.95 0.02249
3 0.02162
3.05 0.02113
3.1 0.02054
3.15 0.02022
3.2 0.01964
3.25 0.01978
3.3 0.01954
3.35 0.01974
3.4 0.0196
3.45 0.0185
3.5 0.0179
3.55 0.01751
3.6 0.01701
3.65 0.0166
3.7 0.01749
3.75 0.01789
3.8 0.01754
3.85 0.01716
3.9 0.01727
3.95 0.01741
4 0.0178
4.05 0.0167
4.1 0.01474
4.15 0.0132
4.2 0.01194
4.25 0.01013
4.3 0.00725
4.35 0.00439
4.4 0.00101
4.45 -0.00382
4.5 -0.01126
4.55 -0.02085
4.6 -0.03232
4.65 -0.04524
4.7 -0.06121
4.75 -0.08032
4.8 -0.10352
4.85 -0.12925
4.9 -0.15878
4.95 -0.19204
5 -0.22968
5.05 -0.27295
5.1 -0.32104
5.15 -0.37363
5.2 -0.43063
5.25 -0.49395
5.3 -0.56266
5.35 -0.63566
5.4 -0.71298
5.45 -0.79487
5.5 -0.88038
5.55 -0.96762
5.6 -1.05627
5.65 -1.14681
5.7 -1.23676
5.75 -1.32534
5.8 -1.41177
5.85 -1.49485
5.9 -1.57477
5.95 -1.65152
6 -1.72534
6.05 -1.79466
6.1 -1.86021
6.15 -1.92131
6.2 -1.97644
6.25 -2.02658
6.3 -2.07088
6.35 -2.1101
6.4 -2.14358
6.45 -2.17068
6.5 -2.19034
6.55 -2.20112
6.6 -2.20215
6.65 -2.1932
6.7 -2.17253
6.75 -2.14011
6.8 -2.09536
6.85 -2.03776
6.9 -1.96642
6.95 -1.88103
7 -1.7816
7.05 -1.6686
7.1 -1.54252
7.15 -1.40398
7.2 -1.2549
7.25 -1.09441
7.3 -0.92471
7.35 -0.75065
7.4 -0.57209
7.45 -0.3901
7.5 -0.20619
7.55 -0.02326
7.6 0.15706
7.65 0.33203
7.7 0.50042
7.75 0.66198
7.8 0.81609
7.85 0.96177
7.9 1.09742
7.95 1.22353
8 1.34053
8.05 1.44679
8.1 1.54117
8.15 1.62441
8.2 1.69761
8.25 1.76026
8.3 1.81346
8.35 1.8584
8.4 1.89573
8.45 1.92453
8.5 1.94587
8.55 1.96147
8.6 1.97212
8.65 1.97743
8.7 1.97917
8.75 1.97632
8.8 1.97091
8.85 1.96209
8.9 1.95032
8.95 1.93473
9 1.91802
9.05 1.90079
9.1 1.8816
9.15 1.86002
9.2 1.83792
9.25 1.81542
9.3 1.79206
9.35 1.76772
9.4 1.74267
9.45 1.71731
9.5 1.69135
9.55 1.66424
9.6 1.63712
9.65 1.6097
9.7 1.58321
9.75 1.55594
9.8 1.52843
9.85 1.49924
9.9 1.46916
9.95 1.43851
10 1.40722
10.05 1.37418
10.1 1.34134
10.15 1.30805
10.2 1.27352
10.25 1.23789
10.3 1.2017
10.35 1.16502
10.4 1.12802
10.45 1.08976
10.5 1.05176
10.55 1.0135
10.6 0.97467
10.65 0.93625
10.7 0.89877
10.75 0.86063
10.8 0.82156
10.85 0.78127
10.9 0.74106
10.95 0.70161
11 0.66279
11.05 0.62349
11.1 0.58519
11.15 0.54689
11.2 0.50884
11.25 0.47066
11.3 0.43276
11.35 0.39545
11.4 0.36072
11.45 0.3271
11.5 0.29563
11.55 0.26461
11.6 0.2328
11.65 0.20219
11.7 0.17185
11.75 0.14239
11.8 0.11402
11.85 0.08713
11.9 0.06032
11.95 0.03401
12 0.00922
12.05 -0.01507
12.1 -0.03726
12.15 -0.05829
12.2 -0.07902
12.25 -0.09773
12.3 -0.11547
12.35 -0.13323
12.4 -0.15134
12.45 -0.16732
12.5 -0.18288
12.55 -0.19653
12.6 -0.20981
12.65 -0.22169
12.7 -0.2319
12.75 -0.24163
12.8 -0.25054
12.85 -0.25899
12.9 -0.26752
12.95 -0.27468
13 -0.28197
13.05 -0.28793
13.1 -0.29316
13.15 -0.29792
13.2 -0.3021
13.25 -0.30575
13.3 -0.30885
13.35 -0.31085
13.4 -0.3132
13.45 -0.31419
13.5 -0.31471
13.55 -0.31614
13.6 -0.31784
13.65 -0.31921
13.7 -0.32074
13.75 -0.32092
13.8 -0.32112
13.85 -0.32158
13.9 -0.32195
13.95 -0.32184
14 -0.32055
14.05 -0.3191
14.1 -0.31747
14.15 -0.31478
14.2 -0.31153
14.25 -0.30831
14.3 -0.30545
14.35 -0.30279
14.4 -0.30046
14.45 -0.29828
14.5 -0.29614
14.55 -0.29295
14.6 -0.28877
14.65 -0.28445
14.7 -0.28021
14.75 -0.27566
14.8 -0.27118
14.85 -0.26791
14.9 -0.26483
14.95 -0.2625
15 -0.25982
15.05 -0.25898
15.1 -0.25702
15.15 -0.25436
15.2 -0.25029
15.25 -0.24617
15.3 -0.24171
15.35 -0.23784
15.4 -0.23356
15.45 -0.22964
15.5 -0.22535
15.55 -0.22082
15.6 -0.21771
15.65 -0.2149
15.7 -0.21186
15.75 -0.20967
15.8 -0.2071
15.85 -0.20401
15.9 -0.20142
15.95 -0.19892
16 -0.19666
16.05 -0.19441
16.1 -0.19124
16.15 -0.18698
16.2 -0.18229
16.25 -0.17857
16.3 -0.17588
16.35 -0.17294
16.4 -0.17
16.45 -0.16733
16.5 -0.16519
16.55 -0.16346
16.6 -0.16145
16.65 -0.15925
16.7 -0.15621
16.75 -0.15363
16.8 -0.15056
16.85 -0.14733
16.9 -0.14531
16.95 -0.14265
17 -0.14078
17.05 -0.13839
17.1 -0.13711
17.15 -0.13537
17.2 -0.13347
17.25 -0.13144
17.3 -0.12869
17.35 -0.12611
17.4 -0.12394
17.45 -0.12188
17.5 -0.11861
17.55 -0.11583
17.6 -0.11328
17.65 -0.11063
17.7 -0.10763
17.75 -0.10613
17.8 -0.1045
17.85 -0.10421
17.9 -0.10366
17.95 -0.10392
18 -0.10502
18.05 -0.10477
18.1 -0.10369
18.15 -0.10226
18.2 -0.09987
18.25 -0.09689
18.3 -0.09512
18.35 -0.09277
18.4 -0.09024
18.45 -0.08826
18.5 -0.08721
18.55 -0.08605
18.6 -0.08423
18.65 -0.08306
18.7 -0.08105
18.75 -0.07943
18.8 -0.07957
18.85 -0.07968
18.9 -0.08015
18.95 -0.07968
19 -0.07868
19.05 -0.07665
19.1 -0.0748
19.15 -0.07327
19.2 -0.07188
19.25 -0.06994
19.3 -0.06906
19.35 -0.06737
19.4 -0.06681
19.45 -0.06552
19.5 -0.06476
19.55 -0.06422
19.6 -0.0635
19.65 -0.06298
19.7 -0.06058
19.75 -0.05899
19.8 -0.05758
19.85 -0.05627
19.9 -0.05537
19.95 -0.0541
20 -0.05409
20.05 -0.05219
20.1 -0.05009
20.15 -0.04993
20.2 -0.05016
20.25 -0.05074
20.3 -0.05203
20.35 -0.05291
20.4 -0.05224
20.45 -0.05096
20.5 -0.04925
20.55 -0.04759
20.6 -0.04635
20.65 -0.04561
20.7 -0.04401
20.75 -0.04164
20.8 -0.04037
20.85 -0.03939
20.9 -0.03883
20.95 -0.03788
21 -0.03714
21.05 -0.03664
21.1 -0.03688
21.15 -0.03712
21.2 -0.038
21.25 -0.03898
21.3 -0.03947
21.35 -0.03971
21.4 -0.03855
21.45 -0.03719
21.5 -0.03661
21.55 -0.03526
21.6 -0.03397
21.65 -0.03306
21.7 -0.03188
21.75 -0.02989
21.8 -0.02822
21.85 -0.0278
21.9 -0.02778
21.95 -0.02739
22 -0.02694
22.05 -0.02663
22.1 -0.02648
22.15 -0.02611
22.2 -0.02542
22.25 -0.02539
22.3 -0.02624
22.35 -0.0265
22.4 -0.02676
22.45 -0.02691
22.5 -0.02613
22.55 -0.02492
22.6 -0.02423
22.65 -0.02369
22.7 -0.02215
22.75 -0.02098
22.8 -0.02038
22.85 -0.01994
22.9 -0.01849
22.95 -0.01896
23 -0.01906
23.05 -0.01959
23.1 -0.01992
23.15 -0.02095
23.2 -0.02137
23.25 -0.02109
23.3 -0.02061
23.35 -0.02051
23.4 -0.02109
23.45 -0.02105
23.5 -0.0207
23.55 -0.01931
23.6 -0.01849
23.65 -0.0174
23.7 -0.01716
23.75 -0.01639
23.8 -0.01498
23.85 -0.01388
23.9 -0.01354
23.95 -0.01468
24 -0.01469
24.05 -0.01413
24.1 -0.01417
24.15 -0.0137
24.2 -0.01405
24.25 -0.01443
24.3 -0.01452
24.35 -0.01494
24.4 -0.01467
24.45 -0.01513
24.5 -0.01492
24.55 -0.01385
24.6 -0.0136
24.65 -0.01298
24.7 -0.01256
24.75 -0.01227
24.8 -0.0116
24.85 -0.0114
24.9 -0.01219
24.95 -0.01274
25 -0.01386
25.05 -0.01504
25.1 -0.01588
25.15 -0.01581
25.2 -0.0156
25.25 -0.01431
25.3 -0.01292
25.35 -0.01198
25.4 -0.01026
25.45 -0.00939
25.5 -0.00887
25.55 -0.00906
25.6 -0.00931
25.65 -0.00967
25.7 -0.01005
25.75 -0.01078
25.8 -0.01047
25.85 -0.00962
25.9 -0.00901
25.95 -0.00884
26 -0.00764
26.05 -0.0067
26.1 -0.00575
26.15 -0.00503
26.2 -0.00403
26.25 -0.00318
26.3 -0.00236
26.35 -0.00182
26.4 -0.00263
26.45 -0.00389
26.5 -0.00643
26.55 -0.0083
26.6 -0.00981
26.65 -0.0105
26.7 -0.01078
26.75 -0.01032
26.8 -0.00908
26.85 -0.00869
26.9 -0.00831
26.95 -0.00775
27 -0.00664
27.05 -0.00583
27.1 -0.00457
27.15 -0.00279
27.2 -0.00287
27.25 -0.0022
27.3 -0.00198
27.35 -0.00266
27.4 -0.00415
27.45 -0.00491
27.5 -0.00614
27.55 -0.00742
27.6 -0.00751
27.65 -0.00727
27.7 -0.00652
27.75 -0.00567
27.8 -0.00528
27.85 -0.00537
27.9 -0.00562
27.95 -0.00578
28 -0.0056
28.05 -0.00612
28.1 -0.00722
28.15 -0.0075
28.2 -0.00738
28.25 -0.00832
28.3 -0.01048
28.35 -0.01117
28.4 -0.01312
28.45 -0.01609
28.5 -0.01822
28.55 -0.02142
28.6 -0.02474
28.65 -0.02809
28.7 -0.03208
28.75 -0.03713
28.8 -0.04316
28.85 -0.04942
28.9 -0.05598
28.95 -0.06237
29 -0.06887
29.05 -0.07583
29.1 -0.08439
29.15 -0.09504
29.2 -0.10515
29.25 -0.11544
29.3 -0.12579
29.35 -0.1373
29.4 -0.14909
29.45 -0.16091
29.5 -0.17348
29.55 -0.18513
29.6 -0.19552
29.65 -0.2066
29.7 -0.21664
29.75 -0.22609
29.8 -0.23522
29.85 -0.24324
29.9 -0.24989
29.95 -0.25608
30 -0.26135
30.05 -0.26498
30.1 -0.2665
30.15 -0.26606
30.2 -0.26417
30.25 -0.26081
30.3 -0.25551
30.35 -0.24759
30.4 -0.23821
30.45 -0.22658
30.5 -0.21428
30.55 -0.2018
30.6 -0.18806
30.65 -0.17317
30.7 -0.15673
30.75 -0.13999
30.8 -0.12259
30.85 -0.10484
30.9 -0.08701
30.95 -0.06946
31 -0.05194
31.05 -0.03481
31.1 -0.01846
31.15 -0.00199
31.2 0.01418
31.25 0.03028
31.3 0.04529
31.35 0.05916
31.4 0.07115
31.45 0.08262
31.5 0.09341
31.55 0.10448
31.6 0.11575
31.65 0.1255
31.7 0.13343
31.75 0.14049
31.8 0.14741
31.85 0.15394
31.9 0.15905
31.95 0.16361
32 0.16815
32.05 0.17255
32.1 0.17686
32.15 0.1813
32.2 0.18562
32.25 0.19111
32.3 0.19531
32.35 0.19979
32.4 0.20444
32.45 0.20892
32.5 0.21418
32.55 0.21887
32.6 0.22214
32.65 0.22384
32.7 0.22523
32.75 0.22485
32.8 0.22347
32.85 0.22229
32.9 0.22153
32.95 0.22009
33 0.21843
33.05 0.21673
33.1 0.21462
33.15 0.21267
33.2 0.20889
33.25 0.20506
33.3 0.20069
33.35 0.19624
33.4 0.19241
33.45 0.18742
33.5 0.18163
33.55 0.17554
33.6 0.16824
33.65 0.16153
33.7 0.15557
33.75 0.14943
33.8 0.14396
33.85 0.13777
33.9 0.13167
33.95 0.12611
34 0.12037
34.05 0.11534
34.1 0.10952
34.15 0.1043
34.2 0.09967
34.25 0.09392
34.3 0.08961
34.35 0.08512
34.4 0.08124
34.45 0.07766
34.5 0.07377
34.55 0.07018
34.6 0.06693
34.65 0.06288
34.7 0.0592
34.75 0.05553
34.8 0.05176
34.85 0.04664
34.9 0.04229
34.95 0.03803
35 0.03434
35.05 0.03095
35.1 0.02803
35.15 0.02338
35.2 0.01816
35.25 0.01269
35.3 0.0076
35.35 0.00392
35.4 7e-04
35.45 -0.00153
35.5 -0.00247
35.55 -0.00252
35.6 -0.00269
35.65 -0.00404
35.7 -0.00535
35.75 -0.00778
35.8 -0.01044
35.85 -0.01337
35.9 -0.01587
35.95 -0.01753
36 -0.02026
36.05 -0.02278
36.1 -0.02482
36.15 -0.02638
36.2 -0.02688
36.25 -0.02759
36.3 -0.02809
36.35 -0.0285
36.4 -0.02907
36.45 -0.02982
36.5 -0.03058
36.55 -0.0316
36.6 -0.03217
36.65 -0.03248
36.7 -0.03274
36.75 -0.03376
36.8 -0.03397
36.85 -0.03466
36.9 -0.03537
36.95 -0.03633
37 -0.0367
37.05 -0.03705
37.1 -0.03707
37.15 -0.03769
37.2 -0.03831
37.25 -0.03852
37.3 -0.0384
37.35 -0.03929
37.4 -0.04057
37.45 -0.04152
37.5 -0.04172
37.55 -0.04249
37.6 -0.04199
37.65 -0.0404
37.7 -0.03802
37.75 -0.036
37.8 -0.0345
37.85 -0.03327
37.9 -0.03275
37.95 -0.03349
38 -0.03338
38.05 -0.03321
38.1 -0.03234
38.15 -0.0315
38.2 -0.02981
38.25 -0.02842
38.3 -0.02789
38.35 -0.0285
38.4 -0.02782
38.45 -0.0277
38.5 -0.02713
38.55 -0.02681
38.6 -0.02774
38.65 -0.02832
38.7 -0.02822
38.75 -0.02825
38.8 -0.02769
38.85 -0.02671
38.9 -0.02728
38.95 -0.02823
39 -0.02872
39.05 -0.02704
39.1 -0.02589
39.15 -0.02521
39.2 -0.02336
39.25 -0.02164
39.3 -0.01954
39.35 -0.01856
39.4 -0.01836
39.45 -0.01838
39.5 -0.01825
39.55 -0.01838
39.6 -0.01882
39.65 -0.02019
39.7 -0.02093
39.75 -0.02129
39.8 -0.02133
39.85 -0.02194
39.9 -0.02228
39.95 -0.02166
40 -0.02127
40.05 -0.02095
40.1 -0.02059
40.15 -0.01999
40.2 -0.01951
40.25 -0.01837
40.3 -0.01712
40.35 -0.01635
40.4 -0.01532
40.45 -0.01393
40.5 -0.01313
40.55 -0.01155
40.6 -0.01068
40.65 -0.00977
40.7 -0.0094
40.75 -0.00958
40.8 -0.00963
40.85 -0.01038
40.9 -0.01103
40.95 -0.01072
41 -0.01034
41.05 -0.00991
41.1 -0.01007
41.15 -0.01
41.2 -0.00974
41.25 -0.01008
41.3 -0.01189
41.35 -0.01283
41.4 -0.01395
41.45 -0.01446
41.5 -0.0149
41.55 -0.01412
41.6 -0.01207
41.65 -0.00995
41.7 -0.00857
41.75 -0.0075
41.8 -0.00779
41.85 -0.00812
41.9 -0.00865
41.95 -0.00774
42 -0.0066
42.05 -0.00625
42.1 -0.00587
42.15 -0.00549
42.2 -0.00691
42.25 -0.00796
42.3 -0.00899
42.35 -0.00986
42.4 -0.01012
42.45 -0.01103
42.5 -0.01193
42.55 -0.01217
42.6 -0.0114
42.65 -0.01
42.7 -0.00898
42.75 -0.00965
42.8 -0.00996
42.85 -0.00991
42.9 -0.00897
42.95 -0.0078
43 -0.00785
43.05 -0.00755
43.1 -0.0072
43.15 -0.00602
43.2 -0.00554
43.25 -0.00442
43.3 -0.0043
43.35 -0.00403
43.4 -0.00357
43.45 -0.00419
43.5 -0.00498
43.55 -0.00555
43.6 -0.00738
43.65 -0.00856
43.7 -0.00911
43.75 -0.0081
43.8 -0.0077
43.85 -0.00768
43.9 -0.00691
43.95 -0.00659
44 -0.00644
44.05 -0.00594
44.1 -0.00565
44.15 -0.00522
44.2 -0.00421
44.25 -0.00297
44.3 -0.00286
44.35 -0.00261
44.4 -0.00281
44.45 -0.0029
44.5 -0.00156
44.55 -0.00066
44.6 -0.00048
44.65 -0.00031
44.7 -0.00056
44.75 -0.00091
44.8 -0.00231
44.85 -0.00339
44.9 -0.00405
44.95 -0.00412
45 -0.00404
45.05 -0.00404
45.1 -0.00373
45.15 -0.00379
45.2 -0.00415
45.25 -0.00501
45.3 -0.00552
45.35 -0.00462
45.4 -0.00405
45.45 -0.00357
45.5 -0.00374
45.55 -0.00403
45.6 -0.00461
45.65 -0.00467
45.7 -0.00409
45.75 -0.00333
45.8 -0.0028
45.85 -0.00242
45.9 -0.00323
45.95 -0.00384
46 -0.0032
46.05 -0.00312
46.1 -0.00366
46.15 -0.00483
46.2 -0.00578
46.25 -0.00609
46.3 -0.00694
46.35 -0.0074
46.4 -0.00719
46.45 -0.00601
46.5 -0.00499
46.55 -0.00397
46.6 -0.0025
46.65 -0.00288
46.7 -0.00335
46.75 -0.00389
46.8 -0.00467
46.85 -0.00425
46.9 -0.00309
46.95 -0.00269
47 -0.00217
47.05 -0.00186
47.1 -0.00143
47.15 -0.00038
47.2 -0.00104
47.25 -0.00209
47.3 -0.00297
47.35 -0.00267
47.4 -0.00199
47.45 -0.00218
47.5 -0.0022
47.55 -0.00185
47.6 -0.00258
47.65 -0.00428
47.7 -0.00529
47.75 -0.0062
47.8 -0.006
47.85 -0.00487
47.9 -0.00446
47.95 -0.00402
48 -0.00367
48.05 -0.00327
48.1 -0.00264
48.15 -0.00242
48.2 -0.00208
48.25 -0.00274
48.3 -0.00275
48.35 -0.00314
48.4 -0.00396
48.45 -0.00485
48.5 -0.00532
48.55 -0.00549
48.6 -0.00515
48.65 -0.00503
48.7 -0.00332
48.75 -0.00267
48.8 -0.00196
48.85 -0.00031
48.9 0.00064
48.95 0.00124
49 0.00115
49.05 0.00085
49.1 0.00025
49.15 9e-05
49.2 0.00015
49.25 0.00034
49.3 6e-05
49.35 -0.00093
49.4 -0.00169
49.45 -0.00337
49.5 -0.00445
49.55 -0.00531
49.6 -0.00539
49.65 -0.00427
49.7 -0.00273
49.75 -0.0011
49.8 -0.00043
49.85 -0.00047
49.9 -4e-04
49.95 -0.00038
50 -0.00069
50.05 -0.00081
50.1 -0.00081
50.15 -7e-04
50.2 -0.00052
50.25 -0.00086
50.3 -0.00064
50.35 -0.00089
50.4 -5e-04
50.45 -1e-04
50.5 -0.00094
50.55 -0.00249
50.6 -0.0036
50.65 -0.00376
50.7 -0.00386
50.75 -0.00378
50.8 -0.00332
50.85 -0.00135
50.9 -0.00025
50.95 0.00091
51 0.00086
51.05 0.00084
51.1 0.00106
51.15 0.00071
51.2 0.00035
51.25 -0.00059
51.3 -0.00056
51.35 -0.00154
51.4 -0.00202
51.45 -0.00331
51.5 -0.00403
51.55 -0.00406
51.6 -0.00468
51.65 -0.00487
51.7 -0.0049
51.75 -0.00369
51.8 -0.00332
51.85 -0.00176
51.9 -0.00072
51.95 0.00016
52 0.00072
52.05 0.00192
52.1 0.00374
52.15 0.00553
52.2 0.0061
52.25 0.0059
52.3 0.00492
52.35 0.00481
52.4 0.00442
52.45 0.00404
52.5 0.00253
52.55 0.00117
52.6 0.00062
52.65 -6e-04
52.7 -0.00189
52.75 -0.00286
52.8 -0.00409
52.85 -0.005
52.9 -0.00439
52.95 -0.00445
53 -0.00326
53.05 -0.00145
53.1 -0.0012
53.15 -0.00111
53.2 -0.00131
53.25 -0.00181
53.3 -0.00348
53.35 -0.00497
53.4 -0.00616
53.45 -0.00605
53.5 -0.00593
53.55 -0.00528
53.6 -0.00439
53.65 -0.00345
53.7 -0.00269
53.75 -0.00167
53.8 -0.00046
53.85 0.00038
53.9 0.00098
53.95 0.00125
54 0.00041
54.05 -0.00016
54.1 1e-05
54.15 -5e-05
54.2 0.00099
54.25 0.00229
54.3 0.0028
54.35 0.00142
54.4 0.00013
54.45 -0.00044
54.5 -0.00025
54.55 -0.00099
54.6 -0.00119
54.65 -0.00082
54.7 -0.00089
54.75 -0.00114
54.8 -0.00171
54.85 -0.00248
54.9 -0.00303
54.95 -0.00217
55 -0.00083
55.05 0.00151
55.1 0.00217
55.15 0.00261
55.2 0.00225
55.25 0.00079
55.3 0.00048
55.35 -0.00038
55.4 -8e-05
55.45 0.00107
55.5 0.00275
55.55 0.00323
55.6 0.00321
55.65 0.00228
55.7 0.00185
55.75 0.00127
55.8 0.00134
55.85 0.00099
55.9 0.00126
55.95 0.00082
56 0.00054
56.05 9e-04
56.1 7e-04
56.15 0.00075
56.2 0.00189
56.25 0.00223
56.3 0.00236
56.35 0.00266
56.4 0.00212
56.45 0.00168
56.5 0.00029
56.55 -0.00139
56.6 -0.00248
56.65 -0.00227
56.7 -0.00167
56.75 -0.0023
56.8 -0.00236
56.85 -0.0021
56.9 -0.00196
56.95 -0.00112
57 -0.00074
57.05 -0.00014
57.1 0.00055
57.15 0.00091
57.2 0.00109
57.25 -0.00059
57.3 -0.00181
57.35 -0.00265
57.4 -0.00279
57.45 -0.0026
57.5 -0.00244
57.55 -0.00222
57.6 -0.00302
57.65 -0.00309
57.7 -0.00193
57.75 -0.00044
57.8 0.00086
57.85 0.00026
57.9 -4e-05
57.95 5e-05
58 -8e-05
58.05 0.00039
58.1 0.00026
58.15 0.00043
58.2 0.00079
58.25 -0.00032
58.3 -0.00141
58.35 -0.00248
58.4 -0.00305
58.45 -0.00297
58.5 -0.00305
58.55 -0.00303
58.6 -0.0022
58.65 -0.00142
58.7 -0.00117
58.75 -0.00058
58.8 -0.00052
58.85 -0.00104
58.9 -0.00105
58.95 -0.00172
59 -0.00229
59.05 -0.00262
59.1 -0.00308
59.15 -0.00354
59.2 -0.00343
59.25 -0.00311
59.3 -0.00216
59.35 -0.002
59.4 -0.00188
59.45 -0.00141
59.5 -0.00152
59.55 -0.00135
59.6 -0.00166
59.65 -0.00129
59.7 -0.00067
59.75 -0.00164
59.8 -0.00259
59.85 -0.0032
59.9 -0.0042
59.95 -0.00441
60 -0.00263
60.05 -0.00104
60.1 -5e-04
60.15 -0.00088
60.2 -0.00071
60.25 -0.00017
60.3 0.00073
60.35 0.00079
60.4 0.0012
60.45 0.00239
60.5 0.00244
60.55 0.00118
60.6 0.00092
60.65 0.00113
60.7 0.00142
60.75 0.00172
60.8 0.00156
60.85 0.0011
60.9 0.00043
60.95 -0.00074
61 -9e-04
61.05 -0.0013
61.1 -0.00065
61.15 -0.00016
61.2 6e-04
61.25 0.00064
61.3 0.00037
61.35 -0.00096
61.4 -0.00128
61.45 -0.00149
61.5 -0.00179
61.55 -0.00216
61.6 -0.00272
61.65 -0.00378
61.7 -0.00398
61.75 -0.00352
61.8 -0.00206
61.85 -0.00166
61.9 -0.00104
61.95 -0.00025
62 0.00019
62.05 -0.00041
62.1 -0.00107
62.15 -0.00037
62.2 0.00029
62.25 0.00111
62.3 0.00136
62.35 0.00122
62.4 0.00088
62.45 0.0011
62.5 0.00094
62.55 0.00145
62.6 0.00245
62.65 0.00377
62.7 0.00471
62.75 0.006
62.8 0.0059
62.85 0.00439
62.9 0.00275
62.95 0.00044
63 -0.00132
63.05 -0.00063
63.1 -0.00035
63.15 -0.00044
63.2 -0.00087
63.25 -0.001
63.3 -7e-04
63.35 -2e-05
63.4 -1e-04
63.45 0.00072
63.5 0.00178
63.55 0.00235
63.6 0.00243
63.65 0.00103
63.7 -0.00056
63.75 -0.00155
63.8 -0.00246
63.85 -0.00371
63.9 -0.00496
63.95 -0.00498
64 -0.0047
64.05 -0.00386
64.1 -0.00155
64.15 0.00055
64.2 0.00186
64.25 0.00201
64.3 0.00272
64.35 0.00232
64.4 0.00178
64.45 0.00023
64.5 -0.00076
64.55 -0.00197
64.6 -0.00279
64.65 -0.00282
64.7 -0.00197
64.75 -0.0017
64.8 0.00018
64.85 0.00153
64.9 0.00147
64.95 0.00088
65 -0.00063
65.05 -0.00158
65.1 -0.00216
65.15 -0.00329
65.2 -0.00414
65.25 -0.0045
65.3 -0.00382
65.35 -0.00352
65.4 -0.00218
65.45 -0.00067
65.5 8e-05
65.55 0.00023
65.6 0.00019
65.65 0.00069
65.7 0.00128
65.75 0.00125
65.8 0.00062
65.85 8e-04
65.9 0.00141
65.95 0.00257
66 0.00272
66.05 0.0024
66.1 0.0013
66.15 0.00102
66.2 0.00088
66.25 4e-04
66.3 0.00093
66.35 4e-04
66.4 0.00012
66.45 -0.00075
66.5 -0.00136
66.55 -0.00236
66.6 -0.00272
66.65 -0.00307
66.7 -0.00336
66.75 -0.00394
66.8 -0.00352
66.85 -0.00358
66.9 -0.00368
66.95 -0.00323
67 -0.0019
67.05 -0.00108
67.1 -0.00101
67.15 -0.00157
67.2 -0.00226
67.25 -0.00171
67.3 -0.00121
67.35 -0.00205
67.4 -0.00183
67.45 -0.00157
67.5 -0.00122
67.55 -0.00093
67.6 -0.00055
67.65 -0.00083
67.7 -0.00183
67.75 -0.00191
67.8 -0.00163
67.85 -0.00089
67.9 -0.00041
67.95 5e-05
68 0.00051
68.05 -0.00018
68.1 0.00025
68.15 0.00059
68.2 0.00088
68.25 0.00071
68.3 6e-05
68.35 -0.00043
68.4 -0.00147
68.45 -0.00225
68.5 -0.00218
68.55 -0.00213
68.6 -0.00242
68.65 -0.00254
68.7 -0.00295
68.75 -0.00339
68.8 -0.00287
68.85 -0.00191
68.9 -0.00179
68.95 -0.00206
69 -0.00286
69.05 -0.00261
69.1 -0.00175
69.15 -0.00012
69.2 0.00069
69.25 0.00087
69.3 7e-04
69.35 0.00175
69.4 0.00226
69.45 0.002
69.5 0.00185
69.55 0.00174
69.6 0.00126
69.65 0.00128
69.7 0.00056
69.75 0.00022
69.8 -0.00015
69.85 -0.00072
69.9 3e-05
69.95 6e-04
70 0.00142
70.05 0.00217
70.1 0.0021
70.15 0.00162
70.2 0.00126
70.25 0.00078
70.3 0.00152
70.35 0.00232
70.4 0.00314
70.45 0.00228
70.5 0.00192
70.55 0.00205
70.6 0.00233
70.65 0.00152
70.7 0.00145
70.75 0.00187
70.8 0.00251
70.85 0.00194
70.9 0.00092
70.95 1e-04
71 -9e-05
71.05 -0.00061
71.1 -0.00063
71.15 -0.00123
71.2 -0.00178
71.25 -0.00212
71.3 -0.00237
71.35 -0.00202
71.4 -0.00236
71.45 -0.0025
71.5 -0.00314
71.55 -0.00265
71.6 -0.00167
71.65 -0.00101
71.7 -0.00075
71.75 -0.00018
71.8 0.00017
71.85 -0.00018
71.9 -0.00144
71.95 -0.00149
72 -0.00188
72.05 -0.00207
72.1 -0.00196
72.15 -0.00141
72.2 -0.00042
72.25 0.00072
72.3 0.00065
72.35 0.00031
72.4 0.00016
72.45 0.00028
72.5 0.00019
72.55 0
72.6 9e-05
72.65 0.0011
72.7 0.00119
72.75 0.00095
72.8 0.00115
72.85 0.00103
72.9 0.00145
72.95 0.00194
73 0.00172
73.05 0.0013
73.1 0.00147
73.15 0.00153
73.2 0.00123
73.25 0.00034
73.3 2e-05
73.35 -0.00036
73.4 -0.00017
73.45 -0.00143
73.5 -0.00157
73.55 -0.00189
73.6 -0.00233
73.65 -0.00307
73.7 -0.00312
73.75 -0.00336
73.8 -0.00245
73.85 -0.0023
73.9 -0.0022
73.95 -0.00226
74 -0.00092
74.05 -9e-05
74.1 2e-04
74.15 -0.00075
74.2 -0.0014
74.25 -0.00136
74.3 -0.00138
74.35 -0.00179
74.4 -0.00254
74.45 -0.00255
74.5 -0.00192
74.55 -0.00273
74.6 -0.00376
74.65 -0.00388
74.7 -0.00305
74.75 -0.00195
74.8 -0.00174
74.85 -0.00069
74.9 0.00022
74.95 0.00015
75 0.00015
75.05 -0.00028
75.1 0.00037
75.15 0.00119
75.2 0.00131
75.25 0.00274
75.3 0.00358
75.35 0.00364
75.4 0.00377
75.45 0.00444
75.5 0.00463
75.55 0.00383
75.6 0.00262
75.65 0.0018
75.7 7e-05
75.75 -0.00221
75.8 -0.00313
75.85 -0.00364
75.9 -0.00364
75.95 -0.00334
76 -0.00311
76.05 -0.00377
76.1 -0.00301
76.15 -0.00296
76.2 -0.0032
76.25 -0.0032
76.3 -0.00349
76.35 -0.0038
76.4 -0.00384
76.45 -0.0033
76.5 -0.00219
76.55 -0.00259
76.6 -0.0032
76.65 -0.00324
76.7 -0.00212
76.75 -0.00033
76.8 0.00091
76.85 0.00185
76.9 0.00302
76.95 0.0038
77 0.00366
77.05 0.0023
77.1 0.00117
77.15 -0.00125
77.2 -0.00296
77.25 -0.00356
77.3 -0.00368
77.35 -0.00408
77.4 -0.00428
77.45 -0.00423
77.5 -0.00412
77.55 -0.00428
77.6 -0.00346
77.65 -0.00366
77.7 -0.00347
77.75 -0.00275
77.8 -0.0034
77.85 -0.00344
77.9 -0.00326
77.95 -0.00269
78 -0.00194
78.05 -0.00232
78.1 -0.00246
78.15 -0.00034
78.2 0.00112
78.25 0.00223
78.3 0.00295
78.35 0.00309
78.4 0.00292
78.45 0.0028
78.5 0.00221
78.55 0.00162
78.6 0.00222
78.65 0.0026
78.7 0.00255
78.75 0.00208
78.8 0.00207
78.85 0.0015
78.9 7e-05
78.95 -0.00087
79 -0.00174
79.05 -0.00197
79.1 -0.00162
79.15 -0.00039
79.2 9e-05
79.25 -6e-05
79.3 -0.00113
79.35 -0.00099
79.4 -0.00073
79.45 0.00044
79.5 0.00215
79.55 0.00333
79.6 0.00334
79.65 0.00282
79.7 0.0029
79.75 0.00207
79.8 0.00137
79.85 0.00126
79.9 0.00067
79.95 0.00088
80 0.00077
80.05 0.00088
80.1 0.00122
80.15 0.00031
80.2 0.00011
80.25 0.00042
80.3 0.00094
80.35 0.00172
80.4 0.00216
80.45 0.00201
80.5 0.00077
80.55 0.00056
80.6 0.00016
80.65 -0.00032
80.7 -0.00137
80.75 -0.00202
80.8 -0.00234
80.85 -0.00303
80.9 -0.00354
80.95 -0.00399
81 -0.00382
81.05 -0.00384
81.1 -0.00368
81.15 -0.00274
81.2 -0.00157
81.25 -0.00122
81.3 -0.00148
81.35 -0.00177
81.4 -0.00131
81.45 -4e-04
81.5 0.00044
81.55 0.00184
81.6 0.00247
81.65 0.00274
81.7 0.00219
81.75 0.00213
81.8 0.00171
81.85 0.001
81.9 0.00037
81.95 0.00014
82 -0.00064
82.05 -0.00028
82.1 -5e-04
82.15 -0.00058
82.2 -0.00105
82.25 -0.00162
82.3 -0.00182
82.35 -0.0015
82.4 -0.00095
82.45 -0.00011
82.5 -5e-05
82.55 -0.00069
82.6 -0.00184
82.65 -0.00241
82.7 -0.00323
82.75 -0.00315
82.8 -0.00265
82.85 -0.00241
82.9 -0.00177
82.95 -0.00095
83 7e-04
83.05 0.0022
83.1 0.002
83.15 0.00213
83.2 0.0021
83.25 0.00089
83.3 -0.00011
83.35 -0.00079
83.4 -5e-04
83.45 -0.00056
83.5 -0.00138
83.55 -6e-04
83.6 2e-05
83.65 -0.00052
83.7 -0.00104
83.75 -0.00108
83.8 -0.00109
83.85 -0.00135
83.9 -6e-04
83.95 0.00048
84 0.00145
84.05 0.0022
84.1 0.00248
84.15 0.00144
84.2 3e-04
84.25 -0.00097
84.3 -0.00213
84.35 -0.00219
84.4 -0.0016
84.45 -0.00187
84.5 -0.00199
84.55 -0.00175
84.6 -0.00129
84.65 -0.00075
84.7 -0.00035
84.75 -0.00145
84.8 -0.00274
84.85 -0.00351
84.9 -0.00434
84.95 -0.00372
85 -0.00368
85.05 -0.00376
85.1 -0.00378
85.15 -0.00389
85.2 -0.00439
85.25 -0.00346
85.3 -0.00263
85.35 -0.00182
85.4 -0.00157
85.45 -0.00202
85.5 -0.00147
85.55 -0.00126
85.6 -0.00017
85.65 0.00032
85.7 0.00078
85.75 0.00203
85.8 0.00224
85.85 0.00126
85.9 0.00032
85.95 0.00011
86 -0.00066
86.05 -9e-04
86.1 -0.00079
86.15 -0.00205
86.2 -0.00168
86.25 -0.00167
86.3 -0.00183
86.35 -0.00175
86.4 -0.00083
86.45 -4e-04
86.5 0.00101
86.55 0.00232
86.6 0.00256
86.65 0.00253
86.7 0.00281
86.75 0.00352
86.8 0.00329
86.85 0.00258
86.9 0.00156
86.95 -4e-04
87 -0.00245
87.05 -0.00388
87.1 -0.00447
87.15 -0.00499
87.2 -0.00447
87.25 -0.00319
87.3 -0.00179
87.35 0.00066
87.4 0.00228
87.45 0.00302
87.5 0.00216
87.55 0.00275
87.6 0.00313
87.65 0.00295
87.7 0.00316
87.75 0.00189
87.8 0.00104
87.85 0.00094
87.9 0.00146
87.95 0.00133
88 0.0019
88.05 0.00207
88.1 0.00257
88.15 0.00278
88.2 0.00164
88.25 0.00047
88.3 -0.00072
88.35 -0.00198
88.4 -0.00343
88.45 -0.00428
88.5 -0.00389
88.55 -0.00405
88.6 -0.00431
88.65 -0.00359
88.7 -0.00289
88.75 -0.00203
88.8 -0.00198
88.85 -0.00232
88.9 -0.00219
88.95 -0.00165
89 -0.00099
89.05 -0.00098
89.1 -0.00184
89.15 -0.00267
89.2 -0.00319
89.25 -0.00409
89.3 -0.00446
89.35 -0.00392
89.4 -0.00353
89.45 -0.00346
89.5 -0.00246
89.55 -0.00214
89.6 -0.00291
89.65 -0.00385
89.7 -0.00367
89.75 -0.00316
89.8 -0.00285
89.85 -0.00243
89.9 -0.0018
89.95 -0.00132
90 -0.00025
90.05 0.00052
90.1 0.00122
90.15 0.00171
90.2 0.00203
90.25 0.00249
90.3 0.00268
90.35 0.00254
90.4 0.00256
90.45 0.00305
90.5 0.00389
90.55 0.00379
90.6 0.00397
90.65 0.00366
90.7 0.00326
90.75 0.0026
90.8 0.00234
90.85 9e-04
90.9 -0.00101
90.95 -0.00219
91 -0.00293
91.05 -0.00229
91.1 -0.0018
91.15 -0.0016
91.2 -0.00159
91.25 -0.00206
91.3 -0.00212
91.35 -0.00302
91.4 -0.00344
91.45 -0.00321
91.5 -0.00336
91.55 -0.00321
91.6 -0.00345
91.65 -0.00307
91.7 -0.00302
91.75 -0.00249
91.8 -0.00209
91.85 -0.00148
91.9 -0.00083
91.95 -0.00123
92 -0.00163
92.05 -0.00138
92.1 -8e-04
92.15 -0.00082
92.2 -0.00083
92.25 -0.00193
92.3 -0.00242
92.35 -0.00276
92.4 -0.00316
92.45 -0.00281
92.5 -0.00222
92.55 -0.00188
92.6 -0.00217
92.65 -0.00116
92.7 -3e-04
92.75 -3e-04
92.8 -0.00019
92.85 -0.00024
92.9 -0.00045
92.95 -0.00103
93 -0.00083
93.05 -0.00075
93.1 -0.00025
93.15 0.00072
93.2 0.00185
93.25 0.00311
93.3 0.00364
93.35 0.0031
93.4 0.00325
93.45 0.00298
93.5 0.00232
93.55 0.00156
93.6 0.00046
93.65 0.00015
93.7 0.00082
93.75 0.00172
93.8 0.00294
93.85 0.00272
93.9 0.00226
93.95 0.00154
94 0.00147
94.05 0.00144
94.1 6e-04
94.15 -0.00072
94.2 -0.00176
94.25 -0.00221
94.3 -0.0034
94.35 -0.00371
94.4 -0.00337
94.45 -0.00423
94.5 -0.00465
94.55 -0.00386
94.6 -0.00425
94.65 -0.00411
94.7 -0.00364
94.75 -0.00211
94.8 -0.00124
94.85 -0.00176
94.9 -0.00141
94.95 -0.00063
95 -3e-04
95.05 0.00078
95.1 0.00094
95.15 3e-04
95.2 -1e-04
95.25 3e-04
95.3 0.00063
95.35 0.00116
95.4 0.00118
95.45 0.00067
95.5 -2e-05
95.55 -0.00017
95.6 0.00022
95.65 -0.00012
95.7 -0.00042
95.75 -0.00149
95.8 -0.00193
95.85 -0.00165
95.9 -0.00084
95.95 -0.00022
96 8e-05
96.05 -0.00055
96.1 -0.00193
96.15 -0.00235
96.2 -0.00228
96.25 -0.00182
96.3 -0.00233
96.35 -0.00324
96.4 -0.00301
96.45 -0.0023
96.5 -0.00077
96.55 -0.00052
96.6 7e-04
96.65 0.0018
96.7 0.00233
96.75 0.00324
96.8 0.00247
96.85 0.00113
96.9 0.00058
96.95 0.00039
97 -0.00091
97.05 -0.00148
97.1 -0.00252
97.15 -0.00365
97.2 -0.00437
97.25 -0.004
97.3 -0.004
97.35 -0.00351
97.4 -0.0034
97.45 -0.00329
97.5 -0.00219
97.55 -0.00072
97.6 1e-04
97.65 0.00057
97.7 -0.00024
97.75 -0.0013
97.8 -0.00243
97.85 -0.00251
97.9 -0.00166
97.95 -0.00137
98 -0.00064
98.05 -0.00019
98.1 0.00089
98.15 0.00153
98.2 0.00128
98.25 0.00056
98.3 -2e-05
98.35 -0.00024
98.4 -0.00103
98.45 -0.00108
98.5 -0.00096
98.55 -0.00115
98.6 -0.00114
98.65 -0.0017
98.7 -0.00093
98.75 -0.00069
98.8 -0.00048
98.85 -0.00062
98.9 -0.00043
98.95 1e-05
99 0.00034
99.05 0.00116
99.1 0.0013
99.15 0.00068
99.2 -0.00015
99.25 0.00036
99.3 0.00086
99.35 0.00097
99.4 0.00162
99.45 0.00198
99.5 0.00291
99.55 0.00326
99.6 0.00328
99.65 0.00238
99.7 0.00146
99.75 0.00147
99.8 0.00104
99.85 -0.00021
99.9 -0.00182
99.95 -0.00303
