0 0
0.05 0.0045
0.1 0.01103
0.15 0.0186
0.2 0.02614
0.25 0.03347
0.3 0.039
0.35 0.04351
0.4 0.04655
0.45 0.04888
0.5 0.05029
0.55 0.05084
0.6 0.05165
0.65 0.05156
0.7 0.05226
0.75 0.05285
0.8 0.05199
0.85 0.05098
0.9 0.04832
0.95 0.04598
1 0.04465
1.05 0.04303
1.1 0.04169
1.15 0.04013
1.2 0.03913
1.25 0.03726
1.3 0.03679
1.35 0.0366
1.4 0.03622
1.45 0.03496
1.5 0.03409
1.55 0.0334
1.6 0.03293
1.65 0.03266
1.7 0.03123
1.75 0.03019
1.8 0.02959
1.85 0.02864
1.9 0.02778
1.95 0.02792
2 0.02739
2.05 0.0263
2.1 0.02614
2.15 0.02537
2.2 0.0251
2.25 0.02512
2.3 0.02514
2.35 0.02486
2.4 0.02537
2.45 0.02592
2.5 0.02701
2.55 0.0278
2.6 0.02686
2.65 0.02597
2.7 0.02519
2.75 0.02362
2.8 0.02249
2.85 0.02151
2.9 0.02165
2.95 0.02314
3 0.02392
3.05 0.02555
3.1 0.02613
3.15 0.02577
3.2 0.02537
3.25 0.02567
3.3 0.02567
3.35 0.02567
3.4 0.02557
3.45 0.02453
3.5 0.024
3.55 0.02248
3.6 0.02176
3.65 0.02062
3.7 0.01931
3.75 0.01781
3.8 0.0168
3.85 0.01663
3.9 0.01663
3.95 0.01517
4 0.01425
4.05 0.01432
4.1 0.01402
4.15 0.01391
4.2 0.01257
4.25 0.01086
4.3 0.00868
4.35 0.00572
4.4 0.00247
4.45 -0.00329
4.5 -0.01041
4.55 -0.01937
4.6 -0.03122
4.65 -0.04488
4.7 -0.06054
4.75 -0.07964
4.8 -0.10246
4.85 -0.12776
4.9 -0.15634
4.95 -0.18909
5 -0.22564
5.05 -0.26888
5.1 -0.31866
5.15 -0.37427
5.2 -0.43447
5.25 -0.50041
5.3 -0.57061
5.35 -0.64561
5.4 -0.72519
5.45 -0.80874
5.5 -0.89606
5.55 -0.98601
5.6 -1.07956
5.65 -1.17264
5.7 -1.26749
5.75 -1.36157
5.8 -1.45393
5.85 -1.54341
5.9 -1.63027
5.95 -1.7144
6 -1.79502
6.05 -1.87235
6.1 -1.94587
6.15 -2.01443
6.2 -2.07821
6.25 -2.13791
6.3 -2.19254
6.35 -2.24371
6.4 -2.28819
6.45 -2.32603
6.5 -2.35765
6.55 -2.38096
6.6 -2.39475
6.65 -2.39892
6.7 -2.39113
6.75 -2.36915
6.8 -2.33385
6.85 -2.28342
6.9 -2.21895
6.95 -2.13936
7 -2.04383
7.05 -1.93317
7.1 -1.80829
7.15 -1.66821
7.2 -1.51456
7.25 -1.34921
7.3 -1.17363
7.35 -0.9899
7.4 -0.80103
7.45 -0.60765
7.5 -0.41193
7.55 -0.21602
7.6 -0.02163
7.65 0.16906
7.7 0.35564
7.75 0.53521
7.8 0.7074
7.85 0.87166
7.9 1.0259
7.95 1.1703
8 1.30539
8.05 1.42873
8.1 1.54033
8.15 1.6402
8.2 1.72875
8.25 1.80582
8.3 1.87305
8.35 1.9305
8.4 1.97903
8.45 2.02028
8.5 2.05415
8.55 2.08154
8.6 2.1032
8.65 2.11806
8.7 2.12691
8.75 2.1309
8.8 2.1306
8.85 2.12691
8.9 2.12064
8.95 2.11238
9 2.10148
9.05 2.08861
9.1 2.07502
9.15 2.06037
9.2 2.04475
9.25 2.02788
9.3 2.00917
9.35 1.98895
9.4 1.96743
9.45 1.94484
9.5 1.92118
9.55 1.89637
9.6 1.87097
9.65 1.84385
9.7 1.81526
9.75 1.78581
9.8 1.7553
9.85 1.72492
9.9 1.69306
9.95 1.6591
10 1.62407
10.05 1.58808
10.1 1.55132
10.15 1.5138
10.2 1.47437
10.25 1.43421
10.3 1.39328
10.35 1.35142
10.4 1.30908
10.45 1.2656
10.5 1.22181
10.55 1.1771
10.6 1.13269
10.65 1.08846
10.7 1.0437
10.75 0.99974
10.8 0.95441
10.85 0.90934
10.9 0.86535
10.95 0.82165
11 0.77812
11.05 0.73515
11.1 0.69202
11.15 0.64799
11.2 0.60504
11.25 0.56188
11.3 0.51905
11.35 0.4781
11.4 0.43884
11.45 0.40047
11.5 0.36334
11.55 0.32613
11.6 0.29007
11.65 0.25431
11.7 0.21942
11.75 0.18675
11.8 0.15394
11.85 0.1233
11.9 0.09309
11.95 0.06447
12 0.036
12.05 0.00805
12.1 -0.01816
12.15 -0.04438
12.2 -0.06781
12.25 -0.09014
12.3 -0.11107
12.35 -0.13025
12.4 -0.14786
12.45 -0.16502
12.5 -0.18136
12.55 -0.19794
12.6 -0.21301
12.65 -0.22702
12.7 -0.2406
12.75 -0.25409
12.8 -0.2675
12.85 -0.27893
12.9 -0.28912
12.95 -0.29863
13 -0.30638
13.05 -0.31256
13.1 -0.31888
13.15 -0.32506
13.2 -0.33096
13.25 -0.33617
13.3 -0.34076
13.35 -0.34531
13.4 -0.34835
13.45 -0.35012
13.5 -0.35183
13.55 -0.35334
13.6 -0.35501
13.65 -0.35643
13.7 -0.3577
13.75 -0.35801
13.8 -0.35839
13.85 -0.35848
13.9 -0.35753
13.95 -0.35679
14 -0.35504
14.05 -0.35336
14.1 -0.35032
14.15 -0.34785
14.2 -0.34537
14.25 -0.34327
14.3 -0.34037
14.35 -0.33614
14.4 -0.33179
14.45 -0.32795
14.5 -0.32367
14.55 -0.31924
14.6 -0.316
14.65 -0.31267
14.7 -0.30974
14.75 -0.30632
14.8 -0.30338
14.85 -0.30005
14.9 -0.29718
14.95 -0.29462
15 -0.29126
15.05 -0.28716
15.1 -0.28282
15.15 -0.27753
15.2 -0.27327
15.25 -0.26973
15.3 -0.26714
15.35 -0.26399
15.4 -0.26086
15.45 -0.25741
15.5 -0.25396
15.55 -0.25027
15.6 -0.24653
15.65 -0.24302
15.7 -0.23921
15.75 -0.23648
15.8 -0.23377
15.85 -0.23076
15.9 -0.22714
15.95 -0.22363
16 -0.22029
16.05 -0.2163
16.1 -0.21278
16.15 -0.21013
16.2 -0.20781
16.25 -0.20601
16.3 -0.2036
16.35 -0.19988
16.4 -0.19572
16.45 -0.19245
16.5 -0.18855
16.55 -0.18546
16.6 -0.18247
16.65 -0.17955
16.7 -0.17603
16.75 -0.17225
16.8 -0.16984
16.85 -0.16702
16.9 -0.16524
16.95 -0.16298
17 -0.1606
17.05 -0.15855
17.1 -0.15644
17.15 -0.15416
17.2 -0.15183
17.25 -0.14847
17.3 -0.14671
17.35 -0.14438
17.4 -0.14162
17.45 -0.13884
17.5 -0.1364
17.55 -0.1329
17.6 -0.13005
17.65 -0.12797
17.7 -0.12604
17.75 -0.12484
17.8 -0.12465
17.85 -0.12415
17.9 -0.12275
17.95 -0.12056
18 -0.11881
18.05 -0.11664
18.1 -0.11412
18.15 -0.11099
18.2 -0.10797
18.25 -0.10564
18.3 -0.10342
18.35 -0.10194
18.4 -0.10025
18.45 -0.09903
18.5 -0.09714
18.55 -0.09516
18.6 -0.09349
18.65 -0.09168
18.7 -0.09176
18.75 -0.09177
18.8 -0.09156
18.85 -0.09099
18.9 -0.09043
18.95 -0.08923
19 -0.08754
19.05 -0.08608
19.1 -0.08475
19.15 -0.08261
19.2 -0.08064
19.25 -0.08001
19.3 -0.07871
19.35 -0.07849
19.4 -0.078
19.45 -0.07694
19.5 -0.07636
19.55 -0.07494
19.6 -0.07197
19.65 -0.0686
19.7 -0.06582
19.75 -0.0638
19.8 -0.06144
19.85 -0.05975
19.9 -0.05725
19.95 -0.0575
20 -0.0581
20.05 -0.05869
20.1 -0.05859
20.15 -0.0577
20.2 -0.05731
20.25 -0.05726
20.3 -0.05626
20.35 -0.05548
20.4 -0.05343
20.45 -0.05178
20.5 -0.05026
20.55 -0.0501
20.6 -0.04957
20.65 -0.04904
20.7 -0.04928
20.75 -0.04923
20.8 -0.05005
20.85 -0.05075
20.9 -0.05028
20.95 -0.04993
21 -0.04892
21.05 -0.04698
21.1 -0.04639
21.15 -0.0452
21.2 -0.04372
21.25 -0.04216
21.3 -0.03943
21.35 -0.03789
21.4 -0.03695
21.45 -0.03618
21.5 -0.03643
21.55 -0.03613
21.6 -0.03613
21.65 -0.03652
21.7 -0.03674
21.75 -0.03677
21.8 -0.03706
21.85 -0.03678
21.9 -0.03601
21.95 -0.03536
22 -0.03445
22.05 -0.03305
22.1 -0.03078
22.15 -0.02963
22.2 -0.0296
22.25 -0.02947
22.3 -0.02907
22.35 -0.02952
22.4 -0.03002
22.45 -0.02944
22.5 -0.02951
22.55 -0.02917
22.6 -0.02851
22.65 -0.02809
22.7 -0.02795
22.75 -0.02969
22.8 -0.03053
22.85 -0.03066
22.9 -0.03107
22.95 -0.03073
23 -0.02909
23.05 -0.02732
23.1 -0.02692
23.15 -0.0257
23.2 -0.02445
23.25 -0.02388
23.3 -0.02425
23.35 -0.02426
23.4 -0.02327
23.45 -0.02237
23.5 -0.02216
23.55 -0.02308
23.6 -0.02288
23.65 -0.02207
23.7 -0.0212
23.75 -0.02054
23.8 -0.0204
23.85 -0.02006
23.9 -0.01983
23.95 -0.01908
24 -0.01804
24.05 -0.01757
24.1 -0.01624
24.15 -0.01465
24.2 -0.0136
24.25 -0.01229
24.3 -0.01237
24.35 -0.01323
24.4 -0.01333
24.45 -0.013
24.5 -0.01369
24.55 -0.01365
24.6 -0.01319
24.65 -0.01238
24.7 -0.01199
24.75 -0.01209
24.8 -0.01226
24.85 -0.0138
24.9 -0.0151
24.95 -0.01562
25 -0.01557
25.05 -0.01465
25.1 -0.01463
25.15 -0.01443
25.2 -0.01437
25.25 -0.01423
25.3 -0.01406
25.35 -0.01381
25.4 -0.01379
25.45 -0.01399
25.5 -0.01435
25.55 -0.01462
25.6 -0.01464
25.65 -0.01357
25.7 -0.01298
25.75 -0.01251
25.8 -0.01144
25.85 -0.01032
25.9 -0.00936
25.95 -0.00913
26 -0.00817
26.05 -0.00705
26.1 -0.00585
26.15 -0.00507
26.2 -0.0056
26.25 -0.00533
26.3 -0.00463
26.35 -0.00417
26.4 -0.00365
26.45 -0.00404
26.5 -0.0046
26.55 -0.00664
26.6 -0.00757
26.65 -0.00764
26.7 -0.00665
26.75 -0.00629
26.8 -0.006
26.85 -0.00474
26.9 -0.00408
26.95 -0.00469
27 -0.00463
27.05 -0.00585
27.1 -0.00731
27.15 -0.00825
27.2 -0.00836
27.25 -0.00824
27.3 -0.00816
27.35 -0.00825
27.4 -0.00803
27.45 -0.00816
27.5 -0.00877
27.55 -0.00847
27.6 -0.0074
27.65 -0.00756
27.7 -0.0083
27.75 -0.00919
27.8 -0.00863
27.85 -0.00863
27.9 -0.00835
27.95 -0.0079
28 -0.00763
28.05 -0.00704
28.1 -0.00604
28.15 -0.00558
28.2 -0.0047
28.25 -0.00513
28.3 -0.00423
28.35 -0.00304
28.4 -0.0024
28.45 -0.00256
28.5 -0.00316
28.55 -0.0044
28.6 -0.00609
28.65 -0.00723
28.7 -0.00729
28.75 -0.00698
28.8 -0.00649
28.85 -0.00599
28.9 -0.00647
28.95 -0.00644
29 -0.00593
29.05 -0.00552
29.1 -0.00556
29.15 -0.00503
29.2 -0.00435
29.25 -0.00412
29.3 -0.00467
29.35 -0.00446
29.4 -0.00377
29.45 -0.00404
29.5 -0.00456
29.55 -0.00564
29.6 -0.0059
29.65 -0.00571
29.7 -0.0047
29.75 -0.0033
29.8 -0.00283
29.85 -0.0017
29.9 -0.00045
29.95 -0.00086
30 -0.00026
30.05 -0.00066
30.1 -0.00248
30.15 -0.00407
30.2 -0.00455
30.25 -0.00523
30.3 -0.00523
30.35 -0.00503
30.4 -0.00552
30.45 -0.00691
30.5 -0.00734
30.55 -0.00662
30.6 -0.00494
30.65 -0.00388
30.7 -0.00296
30.75 -0.00211
30.8 -0.00157
30.85 -0.00053
30.9 -0.00038
30.95 -0.00087
31 -0.00215
31.05 -0.00369
31.1 -0.00405
31.15 -0.00416
31.2 -0.00286
31.25 -0.00173
31.3 -0.00177
31.35 -0.00106
31.4 -0.00025
31.45 -0.00086
31.5 -0.00113
31.55 -0.00145
31.6 -0.00127
31.65 -0.00089
31.7 0.00019
31.75 5e-05
31.8 7e-05
31.85 4e-05
31.9 -0.00085
31.95 -0.00157
32 -0.00066
32.05 -0.00055
32.1 -0.00081
32.15 -0.00073
32.2 -0.00177
32.25 -0.00305
32.3 -0.00368
32.35 -0.00511
32.4 -0.0051
32.45 -0.00501
32.5 -0.00515
32.55 -0.00457
32.6 -0.00273
32.65 -0.00085
32.7 0.00067
32.75 0.00196
32.8 0.00241
32.85 0.00212
32.9 0.00119
32.95 -0.00029
33 -0.00024
33.05 5e-05
33.1 -0.00031
33.15 -0.00031
33.2 -0.00084
33.25 -0.00181
33.3 -0.00207
33.35 -0.00216
33.4 -0.00221
33.45 -0.00231
33.5 -0.00267
33.55 -0.00157
33.6 -0.00063
33.65 0.00078
33.7 0.00034
33.75 -0.00034
33.8 -8e-04
33.85 -8e-04
33.9 -0.00085
33.95 -0.00061
34 -0.00021
34.05 -0.00037
34.1 2e-05
34.15 0.00083
34.2 0.00075
34.25 0.00079
34.3 7e-04
34.35 0.0016
34.4 0.00172
34.45 0.00079
34.5 0.00031
34.55 -0.00081
34.6 -0.00031
34.65 -0.00025
34.7 -0.00034
34.75 4e-05
34.8 0.00149
34.85 0.00292
34.9 0.00384
34.95 0.00305
35 0.0032
35.05 0.00256
35.1 0.0018
35.15 0.00137
35.2 0.00093
35.25 0.00044
35.3 0.00032
35.35 -0.00087
35.4 -0.0017
35.45 -0.00242
35.5 -0.00185
35.55 -0.0022
35.6 -0.00184
35.65 -4e-04
35.7 2e-04
35.75 0.00094
35.8 0.00129
35.85 0.00166
35.9 0.00089
35.95 -0.00062
36 -0.00143
36.05 -0.00099
36.1 0.00025
36.15 -0.00012
36.2 0.00074
36.25 0.00179
36.3 0.00205
36.35 0.00125
36.4 0.00024
36.45 0.00023
36.5 0.0012
36.55 0.00198
36.6 0.00131
36.65 0.00102
36.7 0.00096
36.75 0.00041
36.8 -0.00018
36.85 -7e-04
36.9 -0.00162
36.95 -0.0025
37 -0.00317
37.05 -0.00381
37.1 -0.00335
37.15 -0.00307
37.2 -0.00308
37.25 -0.00453
37.3 -0.00474
37.35 -0.00405
37.4 -0.00376
37.45 -0.00365
37.5 -0.00372
37.55 -0.00398
37.6 -0.00353
37.65 -0.00326
37.7 -0.00291
37.75 -0.00237
37.8 -0.00209
37.85 -0.00151
37.9 -0.00103
37.95 -0.00107
38 -0.00152
38.05 -0.00179
38.1 -0.00227
38.15 -0.00217
38.2 -0.0017
38.25 -0.00147
38.3 -0.00032
38.35 -5e-04
38.4 -0.00114
38.45 -0.00212
38.5 -0.00301
38.55 -0.00429
38.6 -0.00598
38.65 -0.00701
38.7 -0.00636
38.75 -0.00562
38.8 -0.00367
38.85 -0.00174
38.9 0.00034
38.95 0.0012
39 0.00219
39.05 0.00184
39.1 0.00119
39.15 0.00032
39.2 -0.00053
39.25 -0.00049
39.3 -4e-05
39.35 -0.00023
39.4 5e-05
39.45 0.00041
39.5 0.00021
39.55 -5e-05
39.6 -0.00055
39.65 -0.00044
39.7 5e-05
39.75 0.00057
39.8 0.00126
39.85 0.00129
39.9 0.00145
39.95 0.00095
40 0.00065
40.05 0.00065
40.1 0.00089
40.15 -3e-05
40.2 -0.00033
40.25 0.00035
40.3 0.00164
40.35 0.00251
40.4 0.00316
40.45 0.00264
40.5 0.00164
40.55 0.00075
40.6 -0.00037
40.65 -0.00079
40.7 -0.00166
40.75 -0.00197
40.8 -0.00273
40.85 -0.00314
40.9 -0.00368
40.95 -0.00527
41 -0.00646
41.05 -0.00674
41.1 -0.00727
41.15 -0.00658
41.2 -0.00613
41.25 -0.00533
41.3 -0.00356
41.35 -0.00281
41.4 -0.00294
41.45 -0.00361
41.5 -0.00535
41.55 -0.00628
41.6 -0.00635
41.65 -0.00583
41.7 -0.00495
41.75 -0.00331
41.8 -0.00217
41.85 -0.00125
41.9 -0.00176
41.95 -0.00206
42 -0.00216
42.05 -0.00273
42.1 -0.00224
42.15 -0.00231
42.2 -0.00282
42.25 -0.00313
42.3 -0.00343
42.35 -0.00398
42.4 -0.00477
42.45 -0.00439
42.5 -0.00457
42.55 -0.00423
42.6 -0.00321
42.65 -0.00216
42.7 -0.00115
42.75 -0.00049
42.8 -0.00037
42.85 0.00065
42.9 0.002
42.95 0.00326
43 0.00348
43.05 0.00371
43.1 0.00478
43.15 0.00477
43.2 0.00492
43.25 0.00523
43.3 0.00544
43.35 0.00577
43.4 0.00509
43.45 0.00378
43.5 0.00306
43.55 0.00279
43.6 0.00165
43.65 0.00115
43.7 0.00056
43.75 -6e-05
43.8 -0.00124
43.85 -0.0029
43.9 -0.00327
43.95 -0.00275
44 -0.00205
44.05 -0.0013
44.1 0.00021
44.15 0.00044
44.2 9e-05
44.25 -2e-04
44.3 -0.00075
44.35 -0.00043
44.4 0.00095
44.45 0.00101
44.5 0.0011
44.55 0.0019
44.6 0.00326
44.65 0.00344
44.7 0.00323
44.75 0.00263
44.8 0.00139
44.85 0.00082
44.9 0.00055
44.95 -0.00081
45 -0.00116
45.05 -0.00176
45.1 -0.00187
45.15 -0.00127
45.2 -0.00094
45.25 -9e-04
45.3 -0.00076
45.35 -7e-05
45.4 -5e-05
45.45 -0.00038
45.5 -0.00061
45.55 -0.00123
45.6 -0.00078
45.65 -0.00097
45.7 -0.00177
45.75 -0.00226
45.8 -0.0028
45.85 -0.00223
45.9 -0.00146
45.95 -0.00056
46 0.00111
46.05 0.00288
46.1 0.00428
46.15 0.00504
46.2 0.00467
46.25 0.00448
46.3 0.00361
46.35 0.00186
46.4 0.00112
46.45 0.00021
46.5 -0.00076
46.55 -0.00188
46.6 -0.00218
46.65 -0.00227
46.7 -0.00142
46.75 -0.00036
46.8 0.00092
46.85 0.00285
46.9 0.00257
46.95 0.00308
47 0.00324
47.05 0.00334
47.1 0.00378
47.15 0.00381
47.2 0.0046
47.25 0.00501
47.3 0.00461
47.35 0.00366
47.4 0.00245
47.45 0.00082
47.5 -0.00129
47.55 -0.0027
47.6 -0.0031
47.65 -0.00343
47.7 -0.00362
47.75 -0.0047
47.8 -0.00514
47.85 -0.00494
47.9 -0.00417
47.95 -0.00283
48 -0.0021
48.05 -0.00202
48.1 -0.00206
48.15 -0.00123
48.2 0.00013
48.25 0.00094
48.3 0.00228
48.35 0.00251
48.4 0.00237
48.45 0.00384
48.5 0.00502
48.55 0.00462
48.6 0.00388
48.65 0.00282
48.7 0.00198
48.75 0.00115
48.8 0.00073
48.85 0.00101
48.9 0.00085
48.95 0.00051
49 -5e-04
49.05 -0.00081
49.1 -0.00025
49.15 0.00071
49.2 0.00183
49.25 0.00219
49.3 0.00164
49.35 0.00062
49.4 0.00038
49.45 0.00144
49.5 0.00214
49.55 0.00261
49.6 0.00248
49.65 0.00237
49.7 0.00246
49.75 0.0016
49.8 0.00038
49.85 -0.00073
49.9 -0.00142
49.95 -0.00226
50 -0.00375
50.05 -0.00499
50.1 -0.00588
50.15 -0.00606
50.2 -0.0055
50.25 -0.00465
50.3 -0.00292
50.35 -0.00276
50.4 -0.00217
50.45 -0.00194
50.5 -0.0019
50.55 -0.00203
50.6 -0.00163
50.65 1e-05
50.7 0.00065
50.75 0.001
50.8 0.00058
50.85 -0.00018
50.9 -0.00182
50.95 -0.00206
51 -0.00265
51.05 -0.00385
51.1 -0.0032
51.15 -0.00155
51.2 0.00022
51.25 0.0012
51.3 0.00216
51.35 0.00146
51.4 0.00102
51.45 0.00143
51.5 0.00217
51.55 0.00344
51.6 0.00341
51.65 0.00372
51.7 0.00409
51.75 0.00453
51.8 0.00378
51.85 0.00247
51.9 0.00061
51.95 -0.00018
52 -0.00036
52.05 -0.00089
52.1 -0.0015
52.15 -0.00148
52.2 -0.00155
52.25 -0.00134
52.3 -0.00102
52.35 -0.00071
52.4 -0.00013
52.45 0.00044
52.5 0.00091
52.55 0.00069
52.6 0
52.65 -8e-05
52.7 -0.00066
52.75 -0.00108
52.8 -0.00225
52.85 -0.00186
52.9 -0.00124
52.95 -0.00189
53 -0.0031
53.05 -0.00347
53.1 -0.00378
53.15 -0.00374
53.2 -0.00432
53.25 -0.0044
53.3 -0.00477
53.35 -0.00429
53.4 -0.00403
53.45 -0.00446
53.5 -0.00479
53.55 -0.00434
53.6 -0.00407
53.65 -0.00288
53.7 -0.00146
53.75 -0.00047
53.8 -2e-05
53.85 0.00141
53.9 0.002
53.95 0.00252
54 0.00366
54.05 0.00464
54.1 0.00554
54.15 0.00578
54.2 0.00574
54.25 0.00407
54.3 0.00157
54.35 0.00035
54.4 -0.00038
54.45 -0.00107
54.5 -0.00177
54.55 -0.00211
54.6 -0.00231
54.65 -0.00256
54.7 -0.00256
54.75 -0.00255
54.8 -0.00245
54.85 -0.00223
54.9 -0.00243
54.95 -0.0016
55 -0.0011
55.05 -0.00038
55.1 0.00143
55.15 0.002
55.2 0.00319
55.25 0.00422
55.3 0.004
55.35 0.00421
55.4 0.0045
55.45 0.00449
55.5 0.0045
55.55 0.0039
55.6 0.00307
55.65 0.00223
55.7 0.0017
55.75 8e-05
55.8 -0.00128
55.85 -0.00165
55.9 -0.0017
55.95 -0.00251
56 -0.00161
56.05 -0.00123
56.1 -0.00208
56.15 -0.00224
56.2 -0.00212
56.25 -0.00224
56.3 -0.00223
56.35 -0.00196
56.4 -0.00253
56.45 -0.00272
56.5 -0.00264
56.55 -0.00218
56.6 -0.00114
56.65 -0.00044
56.7 -0.00018
56.75 -3e-04
56.8 -0.00041
56.85 -0.00064
56.9 -7e-05
56.95 0.00037
57 -0.00042
57.05 -0.00026
57.1 -0.00051
57.15 -0.00116
57.2 -0.00188
57.25 -0.00192
57.3 -0.00156
57.35 -0.00069
57.4 0.00016
57.45 0.00041
57.5 -5e-05
57.55 7e-04
57.6 0.0013
57.65 0.00113
57.7 0.00139
57.75 0.00155
57.8 0.00068
57.85 -0.00051
57.9 -0.00101
57.95 -0.00191
58 -0.00222
58.05 -0.00194
58.1 -0.00163
58.15 -0.00154
58.2 -0.00136
58.25 -0.00175
58.3 -0.00091
58.35 -0.00045
58.4 0.00031
58.45 0.00098
58.5 0.00151
58.55 0.00209
58.6 0.00222
58.65 0.00082
58.7 -0.00096
58.75 -0.00228
58.8 -0.00299
58.85 -0.00356
58.9 -0.00343
58.95 -0.0031
59 -0.00268
59.05 -0.00145
59.1 -0.001
59.15 -0.00078
59.2 -0.00109
59.25 -0.00089
59.3 -0.00054
59.35 -0.00135
59.4 -0.00241
59.45 -0.00399
59.5 -0.00532
59.55 -0.00576
59.6 -0.00539
59.65 -0.00494
59.7 -0.00548
59.75 -0.00655
59.8 -0.00659
59.85 -0.0067
59.9 -0.00597
59.95 -0.00499
60 -0.00428
60.05 -0.00291
60.1 -0.00088
60.15 0.00072
60.2 0.00168
60.25 0.0012
60.3 0.00087
60.35 0.00025
60.4 -0.00134
60.45 -0.00182
60.5 -0.00195
60.55 -0.00262
60.6 -0.0029
60.65 -0.00302
60.7 -0.00165
60.75 0.00059
60.8 0.00277
60.85 0.00419
60.9 0.0056
60.95 0.00608
61 0.00629
61.05 0.00606
61.1 0.00457
61.15 0.00249
61.2 0.00046
61.25 -0.00178
61.3 -0.00284
61.35 -0.00278
61.4 -0.00184
61.45 -0.0021
61.5 -0.00238
61.55 -0.00358
61.6 -0.00322
61.65 -0.00227
61.7 -0.00132
61.75 -0.00044
61.8 0.00035
61.85 0.00083
61.9 0.00124
61.95 0.00105
62 0.00095
62.05 0.00072
62.1 6e-05
62.15 2e-05
62.2 -0.00073
62.25 -0.00053
62.3 -0.00025
62.35 0.00034
62.4 -0.00039
62.45 -0.00164
62.5 -0.00302
62.55 -0.00293
62.6 -0.00201
62.65 -0.001
62.7 0.00075
62.75 0.00144
62.8 0.00172
62.85 0.00111
62.9 0.00151
62.95 0.00115
63 0.00147
63.05 0.00195
63.1 0.00304
63.15 0.00381
63.2 0.0031
63.25 0.00293
63.3 0.00296
63.35 0.00305
63.4 0.00265
63.45 0.00078
63.5 -0.00115
63.55 -0.00119
63.6 -0.00088
63.65 -0.00078
63.7 -0.00077
63.75 0.00019
63.8 0.00116
63.85 0.00289
63.9 0.00306
63.95 0.00259
64 0.00137
64.05 0.00038
64.1 -0.00064
64.15 -0.00146
64.2 -0.00222
64.25 -0.00292
64.3 -0.00358
64.35 -0.00488
64.4 -0.00589
64.45 -0.00681
64.5 -0.00726
64.55 -0.00661
64.6 -0.0061
64.65 -0.00603
64.7 -0.00631
64.75 -0.00606
64.8 -0.00567
64.85 -0.00434
64.9 -0.003
64.95 -0.0015
65 0.00011
65.05 -5e-05
65.1 0.00045
65.15 0.00064
65.2 0.00055
65.25 -0.00102
65.3 -0.00234
65.35 -0.00366
65.4 -0.00468
65.45 -0.00612
65.5 -0.00556
65.55 -0.00495
65.6 -0.00482
65.65 -0.0045
65.7 -0.00367
65.75 -0.00236
65.8 -0.00127
65.85 -0.00078
65.9 -0.00082
65.95 -6e-04
66 -0.00063
66.05 -0.00037
66.1 -0.00071
66.15 -0.00028
66.2 3e-04
66.25 4e-04
66.3 7e-05
66.35 0.00013
66.4 3e-05
66.45 0.00087
66.5 0.00178
66.55 0.00235
66.6 0.00273
66.65 0.00307
66.7 0.00225
66.75 0.0022
66.8 0.00246
66.85 0.002
66.9 0.00192
66.95 0.00255
67 0.00174
67.05 0.00082
67.1 0.00079
67.15 0.00116
67.2 0.00137
67.25 0.00176
67.3 0.00243
67.35 0.00246
67.4 0.00202
67.45 0.00171
67.5 4e-04
67.55 -0.00139
67.6 -0.00202
67.65 -0.00257
67.7 -0.00338
67.75 -0.00355
67.8 -0.00297
67.85 -0.00203
67.9 -0.00082
67.95 0.00141
68 0.00216
68.05 0.00224
68.1 0.00192
68.15 0.00085
68.2 -0.00016
68.25 -0.00054
68.3 -0.00045
68.35 -0.00101
68.4 0.00018
68.45 0.00082
68.5 0.0016
68.55 0.0021
68.6 0.00333
68.65 0.00471
68.7 0.00475
68.75 0.00414
68.8 0.00254
68.85 0.00249
68.9 0.00287
68.95 0.00241
69 0.00189
69.05 0.00172
69.1 0.002
69.15 0.00184
69.2 0.00088
69.25 -0.00036
69.3 0.00038
69.35 0.00142
69.4 0.00201
69.45 0.00204
69.5 0.00218
69.55 0.00152
69.6 -7e-05
69.65 -0.00177
69.7 -0.0031
69.75 -0.00436
69.8 -0.00454
69.85 -0.00353
69.9 -0.00223
69.95 -0.00119
70 -0.00051
70.05 0.00015
70.1 0.00097
70.15 0.00089
70.2 0.00056
70.25 0.00044
70.3 -5e-05
70.35 -0.00021
70.4 -0.00097
70.45 -0.00277
70.5 -0.00423
70.55 -0.00516
70.6 -0.00566
70.65 -0.00581
70.7 -0.00532
70.75 -0.00504
70.8 -0.00492
70.85 -0.00545
70.9 -0.00523
70.95 -0.00449
71 -0.00427
71.05 -0.00349
71.1 -0.00393
71.15 -0.0049
71.2 -0.00561
71.25 -0.00515
71.3 -0.00473
71.35 -0.00491
71.4 -0.00543
71.45 -0.00534
71.5 -0.00556
71.55 -0.00542
71.6 -0.00423
71.65 -0.00282
71.7 -0.00226
71.75 -0.0016
71.8 -0.00108
71.85 -0.00036
71.9 -0.00078
71.95 -0.00179
72 -0.00308
72.05 -0.00406
72.1 -0.00363
72.15 -0.00356
72.2 -0.00408
72.25 -0.00384
72.3 -0.00284
72.35 -0.00236
72.4 -0.00133
72.45 -0.00055
72.5 3e-05
72.55 0.00054
72.6 0.00088
72.65 0.00066
72.7 0.00052
72.75 0.00122
72.8 0.00091
72.85 0.00042
72.9 0.00018
72.95 0.00026
73 -0.00056
73.05 -0.00035
73.1 -0.00056
73.15 -0.00087
73.2 -0.00189
73.25 -0.00239
73.3 -0.00239
73.35 -0.00169
73.4 -0.00111
73.45 0.00057
73.5 0.00161
73.55 0.00249
73.6 0.00178
73.65 0.00137
73.7 0.00117
73.75 0.00052
73.8 0.00125
73.85 0.00155
73.9 0.00247
73.95 0.00207
74 0.00127
74.05 0.00068
74.1 0.00011
74.15 0.00061
74.2 0.00084
74.25 0.0024
74.3 0.00396
74.35 0.0053
74.4 0.00645
74.45 0.0063
74.5 0.00501
74.55 0.00354
74.6 0.00204
74.65 -0.00031
74.7 -0.00201
74.75 -0.00315
74.8 -0.00414
74.85 -0.00441
74.9 -0.00418
74.95 -0.00528
75 -0.00605
75.05 -0.00621
75.1 -0.00541
75.15 -0.00366
75.2 -0.0024
75.25 -0.00167
75.3 -0.00031
75.35 0.00025
75.4 0.00188
75.45 0.00227
75.5 0.0025
75.55 0.00208
75.6 0.00119
75.65 0.00114
75.7 0.00146
75.75 0.0013
75.8 0.00248
75.85 0.0036
75.9 0.00524
75.95 0.00528
76 0.00461
76.05 0.00309
76.1 0.00131
76.15 -0.00011
76.2 -0.00063
76.25 -0.00178
76.3 -0.00227
76.35 -0.00226
76.4 -0.00246
76.45 -0.00199
76.5 -0.00174
76.55 -0.00253
76.6 -0.0023
76.65 -0.00216
76.7 -0.00194
76.75 -0.00149
76.8 -0.00123
76.85 -0.0013
76.9 -0.00244
76.95 -0.00336
77 -0.00491
77.05 -0.00498
77.1 -0.00411
77.15 -0.00291
77.2 -0.00257
77.25 -0.00151
77.3 -0.00102
77.35 -0.00058
77.4 0.00025
77.45 0.00066
77.5 0.00081
77.55 0.00128
77.6 0.00093
77.65 0.00138
77.7 0.00229
77.75 0.00324
77.8 0.00359
77.85 0.00435
77.9 0.00382
77.95 0.00351
78 0.00432
78.05 0.00454
78.1 0.00468
78.15 0.00439
78.2 0.00312
78.25 0.00135
78.3 -1e-04
78.35 -0.00026
78.4 -0.00069
78.45 -8e-04
78.5 0.00053
78.55 0.0012
78.6 0.00271
78.65 0.00401
78.7 0.00523
78.75 0.00464
78.8 0.00378
78.85 0.00284
78.9 0.00217
78.95 0.00205
79 0.00092
79.05 0.00151
79.1 0.00133
79.15 0.00108
79.2 0.00014
79.25 -0.00082
79.3 -2e-05
79.35 0.00145
79.4 0.00175
79.45 0.00172
79.5 0.00172
79.55 0.00155
79.6 0.00118
79.65 0.00181
79.7 0.00238
79.75 0.00206
79.8 0.0027
79.85 0.00191
79.9 0.00061
79.95 -0.00074
80 -0.00193
80.05 -0.00154
80.1 -0.00063
80.15 -0.00015
80.2 -0.00064
80.25 -0.00084
80.3 -0.00107
80.35 -0.00184
80.4 -0.00195
80.45 -0.00222
80.5 -0.00267
80.55 -0.00309
80.6 -0.003
80.65 -0.00253
80.7 -0.00248
80.75 -0.00225
80.8 -0.00181
80.85 -0.00032
80.9 -0.00025
80.95 -0.00061
81 -8e-05
81.05 5e-04
81.1 0.00164
81.15 0.00135
81.2 6e-04
81.25 -0.00111
81.3 -0.00253
81.35 -0.00326
81.4 -0.00386
81.45 -0.00456
81.5 -0.00512
81.55 -0.00502
81.6 -0.00475
81.65 -0.00361
81.7 -0.00257
81.75 -0.00242
81.8 -0.00161
81.85 -0.00081
81.9 0.00044
81.95 0.00124
82 0.00167
82.05 0.00157
82.1 0.00094
82.15 7e-04
82.2 0.00126
82.25 0.00153
82.3 0.0015
82.35 0.00215
82.4 0.00235
82.45 0.00301
82.5 0.00297
82.55 0.00195
82.6 0.00122
82.65 0.00087
82.7 0.00032
82.75 0.00112
82.8 0.00169
82.85 0.00115
82.9 0.00114
82.95 0.0015
83 0.00145
83.05 0.00113
83.1 5e-05
83.15 -0.00132
83.2 -0.00172
83.25 -0.00228
83.3 -0.00241
83.35 -0.0028
83.4 -0.00234
83.45 -0.00192
83.5 -0.00149
83.55 -0.00106
83.6 -0.00089
83.65 -0.00042
83.7 -0.00103
83.75 -0.00206
83.8 -0.00215
83.85 -0.00243
83.9 -0.00206
83.95 -0.00155
84 -9e-05
84.05 0.00053
84.1 0.0011
84.15 0.00088
84.2 5e-04
84.25 0.00053
84.3 9e-05
84.35 -0.00029
84.4 -0.00198
84.45 -0.00275
84.5 -0.0027
84.55 -0.00224
84.6 -0.00206
84.65 -9e-04
84.7 -0.00011
84.75 -5e-04
84.8 -0.00071
84.85 -0.00176
84.9 -0.00202
84.95 -0.0022
85 -0.00207
85.05 -0.00101
85.1 -0.0011
85.15 -0.00092
85.2 -0.00166
85.25 -0.00232
85.3 -0.00229
85.35 -0.00218
85.4 -0.00085
85.45 -0.00042
85.5 -0.00062
85.55 -9e-04
85.6 -0.00113
85.65 -0.00194
85.7 -0.00255
85.75 -0.00255
85.8 -0.00198
85.85 -0.00136
85.9 -0.00063
85.95 1e-04
86 0.00115
86.05 0.00133
86.1 0.00155
86.15 0.00276
86.2 0.0035
86.25 0.00374
86.3 0.00402
86.35 0.00405
86.4 0.00416
86.45 0.00388
86.5 0.00174
86.55 0.00065
86.6 0
86.65 8e-05
86.7 0.00046
86.75 0.00014
86.8 -0.00058
86.85 -0.00067
86.9 -0.00065
86.95 -0.00044
87 -0.00021
87.05 4e-04
87.1 0.00116
87.15 0.00111
87.2 0.00136
87.25 0.00128
87.3 0.00074
87.35 -1e-05
87.4 -0.00108
87.45 -0.00234
87.5 -0.00283
87.55 -0.00323
87.6 -0.00331
87.65 -0.00336
87.7 -0.00495
87.75 -0.00541
87.8 -0.00512
87.85 -0.00405
87.9 -0.00449
87.95 -0.00395
88 -0.00301
88.05 -0.00309
88.1 -0.00314
88.15 -0.0028
88.2 -0.00233
88.25 -0.00233
88.3 -0.00343
88.35 -0.00339
88.4 -0.00483
88.45 -0.00568
88.5 -0.00594
88.55 -0.00607
88.6 -0.00587
88.65 -0.00556
88.7 -0.00464
88.75 -0.00493
88.8 -0.00413
88.85 -0.00352
88.9 -0.00234
88.95 -0.00082
89 0.00074
89.05 0.00212
89.1 0.0021
89.15 0.00292
89.2 0.00412
89.25 0.00637
89.3 0.0075
89.35 0.00692
89.4 0.00633
89.45 0.00523
89.5 0.0045
89.55 0.00384
89.6 0.00309
89.65 0.00209
89.7 0.00175
89.75 0.00093
89.8 -0.00028
89.85 -0.00037
89.9 -0.00092
89.95 -0.00032
90 0.00057
90.05 1e-04
90.1 -0.00089
90.15 -0.00181
90.2 -0.00214
90.25 -0.00251
90.3 -0.00259
90.35 -0.00337
90.4 -0.00334
90.45 -0.0029
90.5 -0.00184
90.55 2e-05
90.6 0.00068
90.65 0.00074
90.7 0.00042
90.75 0.00018
90.8 -0.00112
90.85 -0.00236
90.9 -0.00368
90.95 -0.0032
91 -0.00218
91.05 -0.00118
91.1 -0.00056
91.15 -7e-04
91.2 -0.00106
91.25 -0.00204
91.3 -0.00311
91.35 -0.00331
91.4 -0.00264
91.45 -0.00117
91.5 -0.00068
91.55 -0.00022
91.6 0.00045
91.65 -0.00077
91.7 -0.00225
91.75 -0.00262
91.8 -0.00293
91.85 -0.00288
91.9 -0.00338
91.95 -0.00332
92 -0.00281
92.05 -0.00265
92.1 -0.00253
92.15 -0.00214
92.2 -0.0016
92.25 -8e-04
92.3 0.00051
92.35 0.00076
92.4 0.00065
92.45 0.00036
92.5 0.00038
92.55 0.00136
92.6 0.00098
92.65 -7e-05
92.7 -0.00097
92.75 -0.00105
92.8 -0.0015
92.85 -0.00175
92.9 -0.00058
92.95 0.00047
93 0.00146
93.05 0.00235
93.1 0.00204
93.15 0.00116
93.2 -0.00022
93.25 -0.00095
93.3 -0.00248
93.35 -0.0032
93.4 -0.00375
93.45 -0.00312
93.5 -0.00188
93.55 -0.00085
93.6 -0.00064
93.65 -0.00064
93.7 -0.00146
93.75 -0.00185
93.8 -0.00223
93.85 -0.00255
93.9 -0.00359
93.95 -0.00377
94 -0.0037
94.05 -0.00306
94.1 -0.00242
94.15 -0.00073
94.2 0.00048
94.25 0.00165
94.3 0.00259
94.35 0.00287
94.4 0.0028
94.45 0.0019
94.5 0.00115
94.55 0.00039
94.6 0.00038
94.65 -0.00011
94.7 -0.00096
94.75 -0.00159
94.8 -0.00193
94.85 -0.00223
94.9 -0.00289
94.95 -0.00343
95 -0.00321
95.05 -0.00393
95.1 -0.00419
95.15 -0.0043
95.2 -0.00462
95.25 -0.00437
95.3 -0.00381
95.35 -0.00446
95.4 -0.00375
95.45 -0.003
95.5 -0.00262
95.55 -0.00149
95.6 -0.00059
95.65 0.00053
95.7 0.00077
95.75 -0.00023
95.8 -0.00072
95.85 -0.00109
95.9 -0.00177
95.95 -0.00288
96 -0.00306
96.05 -0.00259
96.1 -0.00131
96.15 -0.00189
96.2 -0.00234
96.25 -0.00231
96.3 -0.00218
96.35 -0.00135
96.4 -0.00091
96.45 2e-04
96.5 -0.00028
96.55 -0.001
96.6 -0.00201
96.65 -0.00251
96.7 -0.00207
96.75 -0.00245
96.8 -0.00191
96.85 -0.00155
96.9 -0.00172
96.95 -0.00193
97 -0.00126
97.05 -0.00126
97.1 -0.00079
97.15 -0.00013
97.2 0.00051
97.25 0.00093
97.3 0.00147
97.35 0.00197
97.4 0.00158
97.45 0.00109
97.5 7e-05
97.55 -0.00117
97.6 -0.00168
97.65 -0.0019
97.7 -0.00308
97.75 -0.00313
97.8 -0.00271
97.85 -0.00197
97.9 -0.00168
97.95 -7e-04
98 0.00055
98.05 0.0018
98.1 0.00281
98.15 0.00292
98.2 0.00265
98.25 0.00233
98.3 0.00251
98.35 0.00256
98.4 0.00295
98.45 0.00239
98.5 0.00278
98.55 0.00287
98.6 0.00236
98.65 0.00077
98.7 -0.00077
98.75 -0.00196
98.8 -0.00252
98.85 -0.00206
98.9 -0.00243
98.95 -0.0018
99 -0.00158
99.05 -0.00186
99.1 -0.00197
99.15 -0.0025
99.2 -0.00204
99.25 -0.00122
99.3 -0.00042
99.35 0.00057
99.4 0.00121
99.45 0.00095
99.5 0.00154
99.55 0.00164
99.6 0.00137
99.65 0.00067
99.7 1e-04
99.75 0.00037
99.8 0.00022
99.85 6e-05
99.9 -0.00118
99.95 -0.00171
