0 0
0.05 0.00504
0.1 0.01179
0.15 0.01976
0.2 0.02806
0.25 0.03568
0.3 0.04169
0.35 0.047
0.4 0.05098
0.45 0.05325
0.5 0.05416
0.55 0.05365
0.6 0.05244
0.65 0.05096
0.7 0.04951
0.75 0.04864
0.8 0.04713
0.85 0.04623
0.9 0.04393
0.95 0.04219
1 0.04103
1.05 0.04144
1.1 0.0423
1.15 0.04277
1.2 0.04337
1.25 0.04316
1.3 0.04165
1.35 0.0396
1.4 0.03869
1.45 0.03835
1.5 0.03898
1.55 0.0395
1.6 0.03962
1.65 0.03874
1.7 0.03798
1.75 0.03663
1.8 0.0351
1.85 0.03414
1.9 0.03373
1.95 0.03277
2 0.03132
2.05 0.03069
2.1 0.03003
2.15 0.02844
2.2 0.02788
2.25 0.02762
2.3 0.0271
2.35 0.02556
2.4 0.02516
2.45 0.02595
2.5 0.0256
2.55 0.02642
2.6 0.02767
2.65 0.02845
2.7 0.02836
2.75 0.02821
2.8 0.02769
2.85 0.02745
2.9 0.02731
2.95 0.02619
3 0.02494
3.05 0.02346
3.1 0.02184
3.15 0.02049
3.2 0.02044
3.25 0.01992
3.3 0.01964
3.35 0.02047
3.4 0.02135
3.45 0.02189
3.5 0.02165
3.55 0.02097
3.6 0.02116
3.65 0.02041
3.7 0.02032
3.75 0.02114
3.8 0.02094
3.85 0.02025
3.9 0.0183
3.95 0.01654
4 0.01508
4.05 0.0139
4.1 0.01279
4.15 0.01203
4.2 0.00998
4.25 0.00885
4.3 0.00672
4.35 0.00374
4.4 0.00119
4.45 -0.00333
4.5 -0.00972
4.55 -0.01816
4.6 -0.02882
4.65 -0.04183
4.7 -0.05815
4.75 -0.07748
4.8 -0.09958
4.85 -0.12511
4.9 -0.15546
4.95 -0.18922
5 -0.22727
5.05 -0.27058
5.1 -0.31904
5.15 -0.37223
5.2 -0.4305
5.25 -0.49425
5.3 -0.56458
5.35 -0.63965
5.4 -0.72007
5.45 -0.80451
5.5 -0.89208
5.55 -0.98203
5.6 -1.07426
5.65 -1.16724
5.7 -1.25977
5.75 -1.3525
5.8 -1.44379
5.85 -1.53279
5.9 -1.61971
5.95 -1.7025
6 -1.78021
6.05 -1.85452
6.1 -1.92509
6.15 -1.99211
6.2 -2.05524
6.25 -2.11341
6.3 -2.16688
6.35 -2.21563
6.4 -2.25837
6.45 -2.29441
6.5 -2.32353
6.55 -2.34352
6.6 -2.35305
6.65 -2.35224
6.7 -2.34072
6.75 -2.31647
6.8 -2.27851
6.85 -2.22663
6.9 -2.15967
6.95 -2.07698
7 -1.97882
7.05 -1.86763
7.1 -1.74199
7.15 -1.60356
7.2 -1.45266
7.25 -1.28955
7.3 -1.11632
7.35 -0.935
7.4 -0.74784
7.45 -0.55596
7.5 -0.36278
7.55 -0.16927
7.6 0.02325
7.65 0.21242
7.7 0.39645
7.75 0.57339
7.8 0.74217
7.85 0.90216
7.9 1.05299
7.95 1.19394
8 1.32263
8.05 1.44005
8.1 1.54633
8.15 1.64237
8.2 1.72804
8.25 1.80275
8.3 1.86721
8.35 1.92158
8.4 1.96684
8.45 2.00329
8.5 2.03262
8.55 2.05536
8.6 2.07095
8.65 2.08136
8.7 2.08641
8.75 2.08798
8.8 2.08625
8.85 2.08003
8.9 2.07227
8.95 2.06171
9 2.04895
9.05 2.0344
9.1 2.01892
9.15 2.00194
9.2 1.98461
9.25 1.96644
9.3 1.94687
9.35 1.92662
9.4 1.90393
9.45 1.88121
9.5 1.85745
9.55 1.83156
9.6 1.8048
9.65 1.77732
9.7 1.74959
9.75 1.72097
9.8 1.69091
9.85 1.66079
9.9 1.62929
9.95 1.59703
10 1.56323
10.05 1.52936
10.1 1.49486
10.15 1.46024
10.2 1.42349
10.25 1.38552
10.3 1.34737
10.35 1.30764
10.4 1.26712
10.45 1.22583
10.5 1.18427
10.55 1.1427
10.6 1.10038
10.65 1.0569
10.7 1.0136
10.75 0.97051
10.8 0.9272
10.85 0.8839
10.9 0.8412
10.95 0.79876
11 0.75624
11.05 0.71411
11.1 0.67091
11.15 0.62855
11.2 0.58566
11.25 0.54387
11.3 0.50291
11.35 0.46325
11.4 0.42509
11.45 0.38751
11.5 0.35033
11.55 0.31443
11.6 0.27901
11.65 0.24493
11.7 0.21148
11.75 0.17928
11.8 0.14707
11.85 0.11585
11.9 0.08587
11.95 0.05741
12 0.03085
12.05 0.00562
12.1 -0.01942
12.15 -0.04308
12.2 -0.06656
12.25 -0.08933
12.3 -0.11086
12.35 -0.13151
12.4 -0.15137
12.45 -0.16959
12.5 -0.18612
12.55 -0.20205
12.6 -0.2166
12.65 -0.22907
12.7 -0.24061
12.75 -0.25144
12.8 -0.26223
12.85 -0.27155
12.9 -0.28109
12.95 -0.29021
13 -0.29864
13.05 -0.30607
13.1 -0.3134
13.15 -0.31934
13.2 -0.32518
13.25 -0.33067
13.3 -0.33538
13.35 -0.3395
13.4 -0.34176
13.45 -0.34382
13.5 -0.34615
13.55 -0.34872
13.6 -0.34993
13.65 -0.35049
13.7 -0.35102
13.75 -0.3516
13.8 -0.35262
13.85 -0.35349
13.9 -0.35305
13.95 -0.3508
14 -0.34881
14.05 -0.346
14.1 -0.3436
14.15 -0.34025
14.2 -0.33659
14.25 -0.333
14.3 -0.32981
14.35 -0.32686
14.4 -0.32387
14.45 -0.3214
14.5 -0.31737
14.55 -0.31335
14.6 -0.31075
14.65 -0.30847
14.7 -0.3066
14.75 -0.3042
14.8 -0.30131
14.85 -0.29695
14.9 -0.29307
14.95 -0.28907
15 -0.28562
15.05 -0.28176
15.1 -0.27834
15.15 -0.27485
15.2 -0.27226
15.25 -0.26822
15.3 -0.26439
15.35 -0.26084
15.4 -0.25736
15.45 -0.25342
15.5 -0.24907
15.55 -0.24374
15.6 -0.23905
15.65 -0.23623
15.7 -0.23336
15.75 -0.23044
15.8 -0.22748
15.85 -0.22506
15.9 -0.22185
15.95 -0.2183
16 -0.21376
16.05 -0.21069
16.1 -0.20744
16.15 -0.20375
16.2 -0.20009
16.25 -0.19665
16.3 -0.1939
16.35 -0.19014
16.4 -0.18619
16.45 -0.18284
16.5 -0.18076
16.55 -0.17787
16.6 -0.17512
16.65 -0.17238
16.7 -0.16956
16.75 -0.1672
16.8 -0.1647
16.85 -0.16236
16.9 -0.16
16.95 -0.15738
17 -0.1543
17.05 -0.15213
17.1 -0.15022
17.15 -0.1473
17.2 -0.1451
17.25 -0.14304
17.3 -0.14095
17.35 -0.13946
17.4 -0.13721
17.45 -0.13525
17.5 -0.13391
17.55 -0.13226
17.6 -0.13001
17.65 -0.12846
17.7 -0.12678
17.75 -0.12506
17.8 -0.12279
17.85 -0.12061
17.9 -0.11812
17.95 -0.11579
18 -0.11435
18.05 -0.11294
18.1 -0.11139
18.15 -0.11015
18.2 -0.10836
18.25 -0.10542
18.3 -0.10366
18.35 -0.10203
18.4 -0.09988
18.45 -0.0973
18.5 -0.09507
18.55 -0.09372
18.6 -0.09291
18.65 -0.09235
18.7 -0.09194
18.75 -0.09073
18.8 -0.08924
18.85 -0.08727
18.9 -0.08474
18.95 -0.08211
19 -0.07986
19.05 -0.07777
19.1 -0.07559
19.15 -0.07421
19.2 -0.0725
19.25 -0.07061
19.3 -0.06955
19.35 -0.06885
19.4 -0.06823
19.45 -0.06811
19.5 -0.06771
19.55 -0.06696
19.6 -0.06731
19.65 -0.06781
19.7 -0.06676
19.75 -0.06639
19.8 -0.06619
19.85 -0.066
19.9 -0.06567
19.95 -0.06474
20 -0.06291
20.05 -0.06234
20.1 -0.06148
20.15 -0.05912
20.2 -0.05704
20.25 -0.0557
20.3 -0.05447
20.35 -0.05291
20.4 -0.05149
20.45 -0.05073
20.5 -0.05018
20.55 -0.04942
20.6 -0.04908
20.65 -0.0484
20.7 -0.0479
20.75 -0.04609
20.8 -0.04438
20.85 -0.04315
20.9 -0.0427
20.95 -0.04231
21 -0.04222
21.05 -0.04242
21.1 -0.04257
21.15 -0.04275
21.2 -0.04302
21.25 -0.04227
21.3 -0.04114
21.35 -0.04167
21.4 -0.0421
21.45 -0.04218
21.5 -0.04176
21.55 -0.04249
21.6 -0.04131
21.65 -0.04032
21.7 -0.03912
21.75 -0.03826
21.8 -0.03641
21.85 -0.03484
21.9 -0.03404
21.95 -0.03347
22 -0.0316
22.05 -0.03013
22.1 -0.02806
22.15 -0.02667
22.2 -0.02544
22.25 -0.02419
22.3 -0.024
22.35 -0.02471
22.4 -0.02561
22.45 -0.02643
22.5 -0.02617
22.55 -0.02613
22.6 -0.02576
22.65 -0.02585
22.7 -0.02529
22.75 -0.02432
22.8 -0.02457
22.85 -0.02517
22.9 -0.02484
22.95 -0.02457
23 -0.02482
23.05 -0.02504
23.1 -0.02486
23.15 -0.02371
23.2 -0.02237
23.25 -0.0212
23.3 -0.0202
23.35 -0.01925
23.4 -0.0195
23.45 -0.02041
23.5 -0.02114
23.55 -0.02288
23.6 -0.02371
23.65 -0.02341
23.7 -0.02363
23.75 -0.02191
23.8 -0.02001
23.85 -0.01865
23.9 -0.0179
23.95 -0.01764
24 -0.01734
24.05 -0.01767
24.1 -0.01747
24.15 -0.01737
24.2 -0.01752
24.25 -0.01826
24.3 -0.01758
24.35 -0.01697
24.4 -0.01668
24.45 -0.01543
24.5 -0.01393
24.55 -0.01267
24.6 -0.01181
24.65 -0.0115
24.7 -0.01222
24.75 -0.01376
24.8 -0.01496
24.85 -0.01586
24.9 -0.01598
24.95 -0.01503
25 -0.01451
25.05 -0.01429
25.1 -0.01484
25.15 -0.01463
25.2 -0.01526
25.25 -0.01533
25.3 -0.01503
25.35 -0.01518
25.4 -0.01488
25.45 -0.01492
25.5 -0.01361
25.55 -0.01181
25.6 -0.01132
25.65 -0.01058
25.7 -0.00913
25.75 -0.00777
25.8 -0.00755
25.85 -0.00801
25.9 -0.00799
25.95 -0.00853
26 -0.00807
26.05 -0.00813
26.1 -0.00816
26.15 -0.00835
26.2 -0.00771
26.25 -0.0072
26.3 -0.00758
26.35 -0.00758
26.4 -0.00807
26.45 -0.00824
26.5 -0.00776
26.55 -0.00708
26.6 -0.00571
26.65 -0.00501
26.7 -0.00376
26.75 -0.00292
26.8 -0.00234
26.85 -0.0028
26.9 -0.00288
26.95 -0.00345
27 -0.0044
27.05 -0.00579
27.1 -0.00643
27.15 -0.00728
27.2 -0.00814
27.25 -0.00769
27.3 -0.0061
27.35 -0.00574
27.4 -0.00568
27.45 -0.00561
27.5 -0.00542
27.55 -0.00461
27.6 -0.00391
27.65 -0.00366
27.7 -0.00253
27.75 -0.00258
27.8 -0.00323
27.85 -0.0046
27.9 -0.00467
27.95 -0.00451
28 -0.00418
28.05 -0.00403
28.1 -0.00398
28.15 -0.00467
28.2 -0.00549
28.25 -0.00711
28.3 -0.00824
28.35 -0.00911
28.4 -0.00944
28.45 -0.0087
28.5 -0.00776
28.55 -0.00803
28.6 -0.00882
28.65 -0.00952
28.7 -0.0102
28.75 -0.01117
28.8 -0.01273
28.85 -0.01465
28.9 -0.01629
28.95 -0.01784
29 -0.01995
29.05 -0.02236
29.1 -0.0242
29.15 -0.02679
29.2 -0.02806
29.25 -0.02862
29.3 -0.02884
29.35 -0.02986
29.4 -0.03102
29.45 -0.03281
29.5 -0.03599
29.55 -0.03996
29.6 -0.04319
29.65 -0.04656
29.7 -0.04982
29.75 -0.05246
29.8 -0.05613
29.85 -0.05938
29.9 -0.06258
29.95 -0.06538
30 -0.06754
30.05 -0.0693
30.1 -0.06979
30.15 -0.0689
30.2 -0.06729
30.25 -0.06562
30.3 -0.06289
30.35 -0.06087
30.4 -0.05911
30.45 -0.05728
30.5 -0.05413
30.55 -0.05134
30.6 -0.04962
30.65 -0.04677
30.7 -0.04416
30.75 -0.03981
30.8 -0.0372
30.85 -0.03444
30.9 -0.0304
30.95 -0.0265
31 -0.02388
31.05 -0.02154
31.1 -0.01888
31.15 -0.01665
31.2 -0.01264
31.25 -0.00889
31.3 -0.00506
31.35 -0.00099
31.4 0.00339
31.45 0.00716
31.5 0.01122
31.55 0.01524
31.6 0.01968
31.65 0.02407
31.7 0.02756
31.75 0.03164
31.8 0.03496
31.85 0.03746
31.9 0.03929
31.95 0.04134
32 0.04296
32.05 0.04462
32.1 0.04657
32.15 0.04862
32.2 0.05056
32.25 0.05304
32.3 0.05608
32.35 0.05848
32.4 0.06141
32.45 0.06359
32.5 0.06487
32.55 0.0648
32.6 0.06462
32.65 0.06484
32.7 0.065
32.75 0.06337
32.8 0.06086
32.85 0.05924
32.9 0.05821
32.95 0.05697
33 0.05654
33.05 0.05634
33.1 0.05604
33.15 0.05519
33.2 0.05403
33.25 0.05258
33.3 0.05107
33.35 0.04924
33.4 0.04803
33.45 0.04689
33.5 0.04471
33.55 0.04227
33.6 0.03909
33.65 0.03706
33.7 0.03452
33.75 0.03328
33.8 0.03174
33.85 0.03057
33.9 0.02915
33.95 0.02817
34 0.02603
34.05 0.02354
34.1 0.02161
34.15 0.02068
34.2 0.01988
34.25 0.01854
34.3 0.01634
34.35 0.01407
34.4 0.0121
34.45 0.0101
34.5 0.00833
34.55 0.00673
34.6 0.00643
34.65 0.00598
34.7 0.00537
34.75 0.00534
34.8 0.00564
34.85 0.00493
34.9 0.0045
34.95 0.00297
35 0.00192
35.05 0.00035
35.1 -0.00044
35.15 -0.00108
35.2 -0.00192
35.25 -0.0018
35.3 -0.00152
35.35 -0.00131
35.4 -0.00082
35.45 -0.00162
35.5 -0.00146
35.55 -0.00174
35.6 -0.00282
35.65 -0.00389
35.7 -0.00514
35.75 -0.00549
35.8 -0.00652
35.85 -0.00638
35.9 -0.00643
35.95 -0.00679
36 -0.00641
36.05 -0.00566
36.1 -0.0045
36.15 -0.00407
36.2 -0.00404
36.25 -0.00465
36.3 -0.00579
36.35 -0.0068
36.4 -0.00714
36.45 -0.0067
36.5 -0.00642
36.55 -0.00652
36.6 -0.0061
36.65 -0.00551
36.7 -0.00548
36.75 -0.00569
36.8 -0.00566
36.85 -0.00656
36.9 -0.00647
36.95 -0.00659
37 -0.00663
37.05 -0.00741
37.1 -0.009
37.15 -0.01036
37.2 -0.01155
37.25 -0.01271
37.3 -0.01333
37.35 -0.014
37.4 -0.01382
37.45 -0.01297
37.5 -0.01112
37.55 -0.00925
37.6 -0.00842
37.65 -0.00806
37.7 -0.00826
37.75 -0.00736
37.8 -0.00685
37.85 -0.00672
37.9 -0.00602
37.95 -0.00654
38 -0.00767
38.05 -0.00736
38.1 -0.00686
38.15 -0.00663
38.2 -0.00607
38.25 -0.0055
38.3 -0.00544
38.35 -0.00387
38.4 -0.00275
38.45 -0.00321
38.5 -0.00351
38.55 -0.00417
38.6 -0.00464
38.65 -0.00428
38.7 -0.00323
38.75 -0.0028
38.8 -0.0026
38.85 -0.00206
38.9 -0.00185
38.95 -0.00126
39 -0.00096
39.05 -0.00188
39.1 -0.00375
39.15 -0.00447
39.2 -0.00599
39.25 -0.00761
39.3 -0.00849
39.35 -0.00907
39.4 -0.00985
39.45 -0.01004
39.5 -0.00969
39.55 -0.00846
39.6 -0.00767
39.65 -0.00697
39.7 -0.00745
39.75 -0.00782
39.8 -0.00807
39.85 -0.00799
39.9 -0.00758
39.95 -0.00613
40 -0.00543
40.05 -0.00466
40.1 -0.00401
40.15 -0.00377
40.2 -0.00376
40.25 -0.00329
40.3 -0.00211
40.35 -0.00102
40.4 0.00039
40.45 0.00097
40.5 0.00164
40.55 0.00108
40.6 7e-05
40.65 -0.00061
40.7 -0.00016
40.75 9e-05
40.8 -0.00188
40.85 -0.00367
40.9 -0.00561
40.95 -0.00593
41 -0.00609
41.05 -0.00636
41.1 -0.00566
41.15 -0.00524
41.2 -0.00584
41.25 -0.0059
41.3 -0.00624
41.35 -0.00633
41.4 -0.0053
41.45 -0.00427
41.5 -0.00282
41.55 -0.00128
41.6 -0.00025
41.65 -0.00017
41.7 -0.00067
41.75 -0.00164
41.8 -0.00165
41.85 -0.00267
41.9 -0.0033
41.95 -0.00443
42 -0.00575
42.05 -0.007
42.1 -0.00777
42.15 -0.00779
42.2 -0.00751
42.25 -0.00653
42.3 -0.00464
42.35 -0.00347
42.4 -0.00342
42.45 -0.00329
42.5 -0.00385
42.55 -0.00378
42.6 -0.00336
42.65 -0.00327
42.7 -0.00318
42.75 -0.00283
42.8 -0.00256
42.85 -0.00162
42.9 -0.00056
42.95 2e-05
43 0.00132
43.05 0.00256
43.1 0.00301
43.15 0.00229
43.2 0.0013
43.25 0.00034
43.3 -4e-05
43.35 0.00051
43.4 0.00033
43.45 6e-05
43.5 -0.00086
43.55 -0.00069
43.6 -0.00121
43.65 -0.00089
43.7 -0.00159
43.75 -0.00281
43.8 -0.00369
43.85 -0.0043
43.9 -0.00411
43.95 -0.00325
44 -0.00381
44.05 -0.00389
44.1 -0.00511
44.15 -0.00489
44.2 -0.00528
44.25 -0.00565
44.3 -0.00604
44.35 -0.00606
44.4 -0.0057
44.45 -0.00515
44.5 -0.00437
44.55 -0.0029
44.6 -0.00095
44.65 0.00051
44.7 0.00185
44.75 0.00182
44.8 0.00177
44.85 0.00162
44.9 0.00127
44.95 0.00127
45 0.0019
45.05 0.00155
45.1 0.00157
45.15 0.00145
45.2 0.00031
45.25 -0.00108
45.3 -0.00209
45.35 -0.00207
45.4 -0.00191
45.45 -0.00167
45.5 -0.00207
45.55 -0.00258
45.6 -0.00349
45.65 -0.00337
45.7 -0.00264
45.75 -0.00139
45.8 -0.00049
45.85 -5e-05
45.9 -0.00021
45.95 0.00012
46 -0.00044
46.05 -0.0022
46.1 -0.00278
46.15 -0.00393
46.2 -0.00411
46.25 -0.00419
46.3 -0.00529
46.35 -0.00585
46.4 -0.00598
46.45 -0.00666
46.5 -0.00646
46.55 -0.00541
46.6 -0.00455
46.65 -0.00394
46.7 -0.0032
46.75 -0.00342
46.8 -0.00387
46.85 -0.00464
46.9 -0.00567
46.95 -0.00536
47 -0.00545
47.05 -0.0056
47.1 -0.00587
47.15 -0.0061
47.2 -0.00628
47.25 -0.00553
47.3 -0.00484
47.35 -0.0035
47.4 -0.0037
47.45 -0.00356
47.5 -0.0038
47.55 -0.00371
47.6 -0.0041
47.65 -0.0041
47.7 -0.00289
47.75 -0.00272
47.8 -0.00205
47.85 -0.00068
47.9 0.00091
47.95 0.00239
48 0.00204
48.05 0.00191
48.1 0.00235
48.15 0.00279
48.2 0.00297
48.25 0.00278
48.3 0.00297
48.35 0.00178
48.4 0.00011
48.45 -0.00086
48.5 -0.0016
48.55 -0.0015
48.6 -0.00028
48.65 0.00018
48.7 5e-05
48.75 0.00061
48.8 -2e-05
48.85 2e-04
48.9 -0.00074
48.95 -0.00123
49 -0.0018
49.05 -0.00182
49.1 -0.00195
49.15 -0.00123
49.2 -0.00065
49.25 -0.00047
49.3 -0.00102
49.35 -0.00077
49.4 -1e-05
49.45 0.00073
49.5 0.00124
49.55 0.00109
49.6 0.00189
49.65 0.00301
49.7 0.00381
49.75 0.00417
49.8 0.0042
49.85 0.00396
49.9 0.00277
49.95 0.00135
50 0.00121
50.05 0.00122
50.1 0.00067
50.15 -0.00042
50.2 -0.0015
50.25 -0.00215
50.3 -0.00175
50.35 -0.00209
50.4 -0.00243
50.45 -0.00106
50.5 -0.00063
50.55 -0.00129
50.6 -0.00157
50.65 -0.00178
50.7 -0.00202
50.75 -0.00203
50.8 -0.00206
50.85 -0.00222
50.9 -0.00173
50.95 -0.00057
51 -8e-05
51.05 0.0011
51.1 0.00254
51.15 0.00427
51.2 0.00515
51.25 0.00615
51.3 0.00662
51.35 0.0067
51.4 0.00605
51.45 0.00539
51.5 0.00604
51.55 0.00568
51.6 0.00502
51.65 0.00414
51.7 0.00278
51.75 0.00221
51.8 0.00127
51.85 0.00044
51.9 0.00044
51.95 0.00118
52 0.00137
52.05 0.0017
52.1 0.00225
52.15 0.00308
52.2 0.00322
52.25 0.00282
52.3 0.00296
52.35 0.00308
52.4 0.00253
52.45 0.00229
52.5 0.00202
52.55 0.00091
52.6 0.00017
52.65 -0.00029
52.7 -0.00023
52.75 0.00017
52.8 0.00127
52.85 0.00158
52.9 0.00157
52.95 0.00116
53 0.00072
53.05 4e-05
53.1 -0.00039
53.15 -0.00046
53.2 -8e-04
53.25 -0.00153
53.3 -0.00211
53.35 -0.00199
53.4 -0.00225
53.45 -0.00133
53.5 -0.00086
53.55 -0.00081
53.6 -0.00053
53.65 -0.00056
53.7 -0.00054
53.75 -0.00245
53.8 -0.00377
53.85 -0.00482
53.9 -0.00437
53.95 -0.00317
54 -0.00289
54.05 -0.00283
54.1 -0.00303
54.15 -0.00203
54.2 -0.00125
54.25 -0.00028
54.3 0.00018
54.35 0.00055
54.4 0.00049
54.45 -0.00012
54.5 -0.00062
54.55 -0.00093
54.6 -0.00164
54.65 -0.00183
54.7 -0.00197
54.75 -0.00185
54.8 -0.00215
54.85 -0.00178
54.9 -0.00056
54.95 0.00055
55 0.00121
55.05 0.00173
55.1 0.00099
55.15 8e-05
55.2 -0.00162
55.25 -0.00301
55.3 -0.00427
55.35 -0.00486
55.4 -0.00484
55.45 -0.00432
55.5 -0.00407
55.55 -0.00422
55.6 -0.00423
55.65 -0.00314
55.7 -0.00322
55.75 -0.00303
55.8 -0.00145
55.85 -0.00035
55.9 0.00125
55.95 0.00103
56 0.00092
56.05 0.00166
56.1 0.00209
56.15 0.00149
56.2 0.00039
56.25 -0.00083
56.3 -0.00105
56.35 -0.00165
56.4 -0.0025
56.45 -0.00376
56.5 -0.00438
56.55 -0.00418
56.6 -0.00388
56.65 -0.00293
56.7 -0.00265
56.75 -0.00178
56.8 -0.0013
56.85 -0.0016
56.9 -0.00133
56.95 -0.00024
57 1e-05
57.05 -0.00107
57.1 -0.00275
57.15 -0.00342
57.2 -0.00322
57.25 -0.00227
57.3 -0.00116
57.35 -0.00037
57.4 -0.00084
57.45 -0.0018
57.5 -0.00265
57.55 -0.00382
57.6 -0.00528
57.65 -0.00523
57.7 -0.00434
57.75 -0.00337
57.8 -0.00305
57.85 -0.00329
57.9 -0.00307
57.95 -0.00347
58 -0.00296
58.05 -0.0028
58.1 -0.00277
58.15 -0.00275
58.2 -0.00252
58.25 -0.00234
58.3 -0.00266
58.35 -0.00215
58.4 -0.00275
58.45 -0.00348
58.5 -0.00364
58.55 -0.00218
58.6 -0.00086
58.65 0.00057
58.7 0.00129
58.75 0.00141
58.8 0.00111
58.85 0.00092
58.9 0.00135
58.95 0.00141
59 0.00255
59.05 0.00239
59.1 0.00085
59.15 0.00037
59.2 0.00012
59.25 -0.00105
59.3 -0.00127
59.35 -9e-04
59.4 -0.00093
59.45 -0.0012
59.5 -0.00057
59.55 0.00058
59.6 0.00123
59.65 0.00063
59.7 1e-05
59.75 -0.00134
59.8 -0.00165
59.85 -0.00063
59.9 0.00065
59.95 0.00201
60 0.00253
60.05 0.00325
60.1 0.00361
60.15 0.00412
60.2 0.00401
60.25 0.0033
60.3 0.00105
60.35 -4e-04
60.4 -0.00109
60.45 -0.00317
60.5 -0.00394
60.55 -0.00349
60.6 -0.0027
60.65 -0.00169
60.7 -0.00091
60.75 -0.00027
60.8 0.00015
60.85 0.00047
60.9 0.001
60.95 0.00101
61 0.00064
61.05 0.00093
61.1 0.00073
61.15 6e-05
61.2 -0.00037
61.25 0.00011
61.3 0.00063
61.35 0.00147
61.4 0.00175
61.45 0.00077
61.5 -4e-04
61.55 -9e-04
61.6 -0.00077
61.65 -4e-04
61.7 -0.00072
61.75 -0.00121
61.8 -0.00181
61.85 -0.00159
61.9 -0.00168
61.95 -0.00184
62 -0.00324
62.05 -0.00479
62.1 -0.00576
62.15 -0.00618
62.2 -0.00669
62.25 -0.00684
62.3 -0.00718
62.35 -0.00707
62.4 -0.0073
62.45 -0.00602
62.5 -0.00571
62.55 -0.00519
62.6 -0.00503
62.65 -0.00514
62.7 -0.0038
62.75 -0.00253
62.8 -0.00111
62.85 -0.00105
62.9 -0.00155
62.95 -0.00152
63 -0.00083
63.05 0.00038
63.1 0.00087
63.15 0.00106
63.2 0.00103
63.25 0.00145
63.3 0.00131
63.35 0.00075
63.4 0.00055
63.45 0.00082
63.5 0.00165
63.55 0.00344
63.6 0.00429
63.65 0.00395
63.7 0.0031
63.75 0.00287
63.8 0.00264
63.85 0.00216
63.9 9e-04
63.95 0.00132
64 0.00211
64.05 0.00248
64.1 0.00219
64.15 0.00225
64.2 0.00164
64.25 0.00103
64.3 0.00042
64.35 -0.00039
64.4 -0.00105
64.45 -0.00165
64.5 -0.00259
64.55 -0.00242
64.6 -0.00284
64.65 -0.00344
64.7 -0.00469
64.75 -0.00518
64.8 -0.00423
64.85 -0.00414
64.9 -0.00373
64.95 -0.00326
65 -0.00236
65.05 -0.0019
65.1 -0.00075
65.15 0.00032
65.2 0.00161
65.25 0.00229
65.3 0.00213
65.35 0.00214
65.4 0.00187
65.45 0.00195
65.5 0.00131
65.55 0.00112
65.6 0.00115
65.65 0.00078
65.7 0.00138
65.75 5e-04
65.8 -0.00037
65.85 9e-05
65.9 -0.00083
65.95 -0.00037
66 -0.00118
66.05 -0.00067
66.1 2e-04
66.15 0.00025
66.2 0.00102
66.25 0.00117
66.3 0.00148
66.35 0.00147
66.4 0.00128
66.45 0.00093
66.5 0.00089
66.55 0.00083
66.6 0.00113
66.65 0.00065
66.7 0.00054
66.75 -3e-05
66.8 -0.00022
66.85 0.00068
66.9 0.00029
66.95 -5e-04
67 -0.00138
67.05 -0.00184
67.1 -0.00272
67.15 -0.00306
67.2 -0.00288
67.25 -0.00234
67.3 -0.00049
67.35 0.00148
67.4 0.00216
67.45 0.00257
67.5 0.00326
67.55 0.00297
67.6 0.00335
67.65 0.00365
67.7 0.00378
67.75 0.00327
67.8 0.00221
67.85 0.00224
67.9 0.00239
67.95 0.00192
68 0.00146
68.05 0.00063
68.1 -0.00062
68.15 -0.00128
68.2 -0.00164
68.25 -0.00162
68.3 -0.00132
68.35 -0.00088
68.4 -0.00067
68.45 -2e-04
68.5 0.00111
68.55 0.00044
68.6 -0.0011
68.65 -0.00206
68.7 -0.00215
68.75 -0.00189
68.8 -0.00179
68.85 -0.00192
68.9 -0.00134
68.95 -0.00067
69 -0.00071
69.05 -0.00111
69.1 -0.00165
69.15 -0.00218
69.2 -0.00293
69.25 -0.00251
69.3 -0.00176
69.35 -0.00124
69.4 -0.00098
69.45 -0.00174
69.5 -0.00254
69.55 -0.0039
69.6 -0.0041
69.65 -0.00455
69.7 -0.00553
69.75 -0.00512
69.8 -0.00425
69.85 -0.0048
69.9 -0.0047
69.95 -0.00409
70 -0.00258
70.05 -0.00133
70.1 -0.00076
70.15 0
70.2 0.00046
70.25 0.00135
70.3 0.00133
70.35 0.00137
70.4 0.00151
70.45 0.00182
70.5 0.00171
70.55 0.00205
70.6 0.00176
70.65 0.00257
70.7 0.00333
70.75 0.00383
70.8 0.00347
70.85 0.00316
70.9 0.00218
70.95 0.00122
71 0.00081
71.05 0.0014
71.1 0.00128
71.15 0.00156
71.2 0.00022
71.25 -0.00113
71.3 -0.00157
71.35 -0.00177
71.4 -0.00121
71.45 0.00012
71.5 0.00081
71.55 0.0021
71.6 0.00297
71.65 0.0037
71.7 0.00451
71.75 0.00367
71.8 0.00142
71.85 -0.00079
71.9 -0.00189
71.95 -0.00371
72 -0.00558
72.05 -0.00607
72.1 -0.00519
72.15 -0.00421
72.2 -0.00369
72.25 -0.00382
72.3 -0.0037
72.35 -0.00262
72.4 -0.0021
72.45 -0.00139
72.5 -0.00102
72.55 -0.00128
72.6 -0.00064
72.65 -0.00097
72.7 -0.00212
72.75 -0.00243
72.8 -0.00218
72.85 -0.00264
72.9 -0.00339
72.95 -0.00449
73 -0.00448
73.05 -0.00454
73.1 -0.00461
73.15 -0.00375
73.2 -0.00249
73.25 -0.00191
73.3 -0.00111
73.35 -0.00061
73.4 -0.00066
73.45 -0.00076
73.5 -0.00091
73.55 -0.00086
73.6 -0.00083
73.65 0.00017
73.7 8e-05
73.75 -6e-05
73.8 0.00082
73.85 0.00181
73.9 0.00177
73.95 0.00142
74 0.00055
74.05 -0.00072
74.1 -0.00128
74.15 -0.00118
74.2 0.00051
74.25 0.00189
74.3 0.00305
74.35 0.00361
74.4 0.00451
74.45 0.00467
74.5 0.00534
74.55 0.0052
74.6 0.0046
74.65 0.00344
74.7 0.00193
74.75 0.00053
74.8 -9e-05
74.85 0.00028
74.9 -0.00012
74.95 0.00021
75 0.00079
75.05 -0.00025
75.1 -0.00113
75.15 -0.00233
75.2 -0.00351
75.25 -0.00298
75.3 -0.00321
75.35 -0.00323
75.4 -0.00274
75.45 -0.00301
75.5 -0.00258
75.55 -0.00206
75.6 -0.00101
75.65 0.00038
75.7 0.0021
75.75 0.00249
75.8 0.00272
75.85 0.00255
75.9 0.00187
75.95 0.00146
76 0.00022
76.05 -0.0016
76.1 -0.00248
76.15 -0.00315
76.2 -0.00316
76.25 -0.00252
76.3 -0.00246
76.35 -0.00132
76.4 -0.00077
76.45 -0.00087
76.5 -0.00146
76.55 -0.00127
76.6 -0.00074
76.65 -0.00029
76.7 -0.00046
76.75 -0.00062
76.8 -0.00095
76.85 -0.00184
76.9 -0.00348
76.95 -0.00384
77 -0.00311
77.05 -0.0025
77.1 -0.00218
77.15 -0.00232
77.2 -0.00265
77.25 -0.00321
77.3 -0.0035
77.35 -0.00299
77.4 -0.00166
77.45 -0.00139
77.5 -0.0022
77.55 -0.00252
77.6 -0.00166
77.65 -0.00072
77.7 -0.00063
77.75 -0.00071
77.8 -0.00055
77.85 -0.00111
77.9 -0.00164
77.95 -0.00127
78 -0.0012
78.05 0.00025
78.1 0.00075
78.15 0.00026
78.2 -0.00018
78.25 0.00077
78.3 0.00191
78.35 0.00255
78.4 0.00228
78.45 0.00213
78.5 0.00075
78.55 0.00052
78.6 -6e-04
78.65 -0.00217
78.7 -0.00202
78.75 -0.00147
78.8 -0.00093
78.85 -3e-05
78.9 -8e-05
78.95 0.00037
79 -0.00015
79.05 1e-04
79.1 0.00078
79.15 0.00024
79.2 3e-04
79.25 0.00082
79.3 0.00071
79.35 0.00074
79.4 0.00089
79.45 0.00029
79.5 0.00061
79.55 0.00202
79.6 0.00251
79.65 0.00243
79.7 0.00253
79.75 0.00268
79.8 0.00258
79.85 0.00286
79.9 0.00285
79.95 0.00206
80 0.00133
80.05 0.00058
80.1 0.00097
80.15 0.00084
80.2 0.00112
80.25 0.00073
80.3 0.00068
80.35 0.00025
80.4 0.00012
80.45 4e-05
80.5 -0.00031
80.55 -0.00113
80.6 -0.00224
80.65 -0.00306
80.7 -0.0052
80.75 -0.00601
80.8 -0.00534
80.85 -0.00362
80.9 -0.00227
80.95 -0.00096
81 0.00017
81.05 0.00085
81.1 0.00042
81.15 -6e-04
81.2 -0.00077
81.25 -0.00045
81.3 -0.00155
81.35 -0.00301
81.4 -0.00508
81.45 -0.00642
81.5 -0.0069
81.55 -0.00653
81.6 -0.00503
81.65 -0.00375
81.7 -0.00187
81.75 0.001
81.8 0.0031
81.85 0.00422
81.9 0.00538
81.95 0.00537
82 0.00552
82.05 0.00528
82.1 0.00471
82.15 0.004
82.2 0.00293
82.25 0.0019
82.3 0.00069
82.35 -0.00085
82.4 -0.00107
82.45 -0.00041
82.5 -0.00017
82.55 7e-05
82.6 0.00092
82.65 0.00153
82.7 0.00189
82.75 0.00193
82.8 0.0018
82.85 0.00084
82.9 -0.00013
82.95 -0.00025
83 -0.00058
83.05 -0.00102
83.1 -0.00148
83.15 -0.00177
83.2 -0.00106
83.25 -0.00084
83.3 -0.00014
83.35 0.00103
83.4 0.00092
83.45 0.00143
83.5 0.00169
83.55 0.00077
83.6 -0.00018
83.65 -0.00037
83.7 -0.00026
83.75 -0.00075
83.8 -0.0011
83.85 -0.00168
83.9 -0.00219
83.95 -0.00376
84 -0.00391
84.05 -0.00516
84.1 -0.00632
84.15 -0.00672
84.2 -0.00598
84.25 -0.00481
84.3 -0.00401
84.35 -0.00383
84.4 -0.00304
84.45 -0.00196
84.5 -0.00094
84.55 -0.00129
84.6 -0.00186
84.65 -0.00162
84.7 -0.00061
84.75 0.00041
84.8 0.00235
84.85 0.00301
84.9 0.00359
84.95 0.00347
85 0.00312
85.05 0.00235
85.1 0.00299
85.15 0.00283
85.2 0.00269
85.25 0.00297
85.3 0.0033
85.35 0.00394
85.4 0.00396
85.45 0.00288
85.5 0.00219
85.55 0.00159
85.6 0.00043
85.65 -0.00042
85.7 -0.00078
85.75 -0.00141
85.8 -0.00235
85.85 -0.00244
85.9 -0.00324
85.95 -0.00419
86 -0.0045
86.05 -0.00445
86.1 -0.00454
86.15 -0.00417
86.2 -0.00317
86.25 -0.00343
86.3 -0.00201
86.35 -0.00194
86.4 -0.00277
86.45 -0.0027
86.5 -0.00173
86.55 -0.00125
86.6 -8e-04
86.65 -0.00043
86.7 -0.00012
86.75 0.00119
86.8 0.00206
86.85 0.00265
86.9 0.00304
86.95 0.00265
87 0.00269
87.05 0.00338
87.1 0.00384
87.15 0.00497
87.2 0.00584
87.25 0.00598
87.3 0.00462
87.35 0.00441
87.4 0.00343
87.45 0.00252
87.5 0.00167
87.55 0.00059
87.6 -0.00077
87.65 -0.0029
87.7 -0.00356
87.75 -0.00433
87.8 -0.00468
87.85 -0.00455
87.9 -0.00444
87.95 -0.00458
88 -0.00473
88.05 -0.00475
88.1 -0.00368
88.15 -0.00294
88.2 -0.00182
88.25 -0.00137
88.3 -0.00068
88.35 -3e-05
88.4 0.00106
88.45 0.00188
88.5 0.00177
88.55 0.00132
88.6 0.0012
88.65 0.00014
88.7 -0.00012
88.75 -0.00051
88.8 -0.00077
88.85 -0.00167
88.9 -0.00225
88.95 -0.0027
89 -0.00408
89.05 -0.00431
89.1 -0.00436
89.15 -0.00444
89.2 -0.0037
89.25 -0.00307
89.3 -0.00189
89.35 -0.00056
89.4 0.00096
89.45 0.00269
89.5 0.00447
89.55 0.00573
89.6 0.00585
89.65 0.00544
89.7 0.00511
89.75 0.00453
89.8 0.00405
89.85 0.00491
89.9 0.00547
89.95 0.00535
90 0.00458
90.05 0.00382
90.1 0.00274
90.15 0.00215
90.2 0.002
90.25 0.00154
90.3 0.0017
90.35 0.00118
90.4 0.00057
90.45 0.00078
90.5 0.00031
90.55 -0.00018
90.6 -0.00085
90.65 -0.00149
90.7 -0.0011
90.75 -0.00038
90.8 0.00017
90.85 -0.00073
90.9 -0.00122
90.95 -0.00169
91 -0.00177
91.05 -0.0016
91.1 -0.00156
91.15 -0.00111
91.2 -0.0011
91.25 -0.00124
91.3 -0.00136
91.35 -0.00074
91.4 4e-05
91.45 0.00186
91.5 0.00276
91.55 0.00321
91.6 0.00317
91.65 0.00194
91.7 0.00179
91.75 0.00123
91.8 0.00101
91.85 0.00103
91.9 0.00121
91.95 0.00158
92 0.0013
92.05 0.001
92.1 0.00047
92.15 -0.00039
92.2 -0.00213
92.25 -0.00384
92.3 -0.00469
92.35 -0.00523
92.4 -0.00437
92.45 -0.00421
92.5 -0.00379
92.55 -0.00324
92.6 -0.0028
92.65 -0.00259
92.7 -0.00219
92.75 -0.00143
92.8 -0.0013
92.85 -0.00188
92.9 -0.00167
92.95 -0.00178
93 -0.00121
93.05 -0.00072
93.1 -0.00046
93.15 -0.00085
93.2 -0.00188
93.25 -0.00208
93.3 -0.00252
93.35 -0.00311
93.4 -0.00407
93.45 -0.00471
93.5 -0.00521
93.55 -0.00468
93.6 -0.00392
93.65 -0.00309
93.7 -0.00241
93.75 -0.00175
93.8 -0.0012
93.85 -0.00143
93.9 -0.00096
93.95 -0.00108
94 -0.00179
94.05 -0.00208
94.1 -0.00173
94.15 -5e-04
94.2 0.00041
94.25 0.00167
94.3 0.00196
94.35 0.00266
94.4 0.00432
94.45 0.00514
94.5 0.00538
94.55 0.00463
94.6 0.00298
94.65 0.00171
94.7 -0.00064
94.75 -0.00242
94.8 -0.00243
94.85 -0.002
94.9 -0.00192
94.95 -0.00127
95 -0.00095
95.05 -0.00039
95.1 -4e-05
95.15 0.00085
95.2 7e-04
95.25 0.00076
95.3 0.00028
95.35 -0.00062
95.4 -0.00125
95.45 -0.00107
95.5 1e-04
95.55 0.00166
95.6 0.00214
95.65 0.00122
95.7 -2e-04
95.75 -0.00135
95.8 -0.00214
95.85 -0.00209
95.9 -0.00201
95.95 -0.00147
96 -0.00143
96.05 -8e-04
96.1 -0.00048
96.15 -0.00114
96.2 -0.0015
96.25 -0.00158
96.3 -0.0019
96.35 -0.00126
96.4 -0.00069
96.45 0.00088
96.5 0.00193
96.55 0.00265
96.6 0.00259
96.65 0.00185
96.7 0.00073
96.75 -0.00016
96.8 -0.00087
96.85 -0.00055
96.9 0.00045
96.95 0.00117
97 0.00175
97.05 0.00165
97.1 0.00115
97.15 0.00058
97.2 0.00118
97.25 0.00193
97.3 0.00188
97.35 0.00157
97.4 0.00088
97.45 0.00017
97.5 -2e-05
97.55 -2e-05
97.6 -0.00012
97.65 0.00042
97.7 0.00158
97.75 0.00159
97.8 0.00129
97.85 0.00104
97.9 0.00125
97.95 -1e-05
98 -0.00157
98.05 -0.00321
98.1 -0.00345
98.15 -0.00347
98.2 -0.00305
98.25 -0.00204
98.3 -0.00238
98.35 -0.0032
98.4 -0.00368
98.45 -0.00434
98.5 -0.00358
98.55 -0.00316
98.6 -0.00162
98.65 -0.00086
98.7 -7e-04
98.75 -0.00071
98.8 -0.00056
98.85 -0.0012
98.9 -0.00189
98.95 -0.00207
99 -0.00142
99.05 -0.00135
99.1 -0.00208
99.15 -0.00223
99.2 -0.00233
99.25 -0.00263
99.3 -0.00345
99.35 -0.00298
99.4 -0.00298
99.45 -0.00287
99.5 -0.00186
99.55 -0.00039
99.6 -0.00052
99.65 -0.00041
99.7 -9e-05
99.75 0.00017
99.8 0.00023
99.85 -0.00106
99.9 -0.00184
99.95 -0.00226
