0 0
0.05 0.00223
0.1 0.00492
0.15 0.00767
0.2 0.01073
0.25 0.0137
0.3 0.01621
0.35 0.01804
0.4 0.01951
0.45 0.02049
0.5 0.02093
0.55 0.02123
0.6 0.02171
0.65 0.02197
0.7 0.02225
0.75 0.02172
0.8 0.02155
0.85 0.02116
0.9 0.02053
0.95 0.01995
1 0.01915
1.05 0.01843
1.1 0.01808
1.15 0.01782
1.2 0.01743
1.25 0.01698
1.3 0.01637
1.35 0.01632
1.4 0.01602
1.45 0.01564
1.5 0.01521
1.55 0.01498
1.6 0.01468
1.65 0.01476
1.7 0.01441
1.75 0.01372
1.8 0.01359
1.85 0.01328
1.9 0.01312
1.95 0.01294
2 0.01251
2.05 0.0123
2.1 0.01197
2.15 0.0116
2.2 0.0113
2.25 0.01095
2.3 0.01062
2.35 0.01034
2.4 0.01002
2.45 0.00946
2.5 0.00947
2.55 0.0096
2.6 0.00994
2.65 0.01049
2.7 0.01078
2.75 0.0105
2.8 0.00995
2.85 0.00942
2.9 0.00907
2.95 0.00879
3 0.00893
3.05 0.00868
3.1 0.00859
3.15 0.00823
3.2 0.00797
3.25 0.00804
3.3 0.00835
3.35 0.00855
3.4 0.00889
3.45 0.00897
3.5 0.00882
3.55 0.00872
3.6 0.00844
3.65 0.00816
3.7 0.00765
3.75 0.00713
3.8 0.00697
3.85 0.00651
3.9 0.00617
3.95 0.00648
4 0.00669
4.05 0.00675
4.1 0.00702
4.15 0.0075
4.2 0.0078
4.25 0.00783
4.3 0.00749
4.35 0.00716
4.4 0.00677
4.45 0.00635
4.5 0.00603
4.55 0.0059
4.6 0.00575
4.65 0.00571
4.7 0.00541
4.75 0.00505
4.8 0.00448
4.85 0.004
4.9 0.00398
4.95 0.00357
5 0.00341
5.05 0.00348
5.1 0.00382
5.15 0.00391
5.2 0.00431
5.25 0.00475
5.3 0.00473
5.35 0.00459
5.4 0.00414
5.45 0.00339
5.5 0.00329
5.55 0.00306
5.6 0.00291
5.65 0.00276
5.7 0.00286
5.75 0.00277
5.8 0.00325
5.85 0.00338
5.9 0.00368
5.95 0.0039
6 0.00412
6.05 0.00422
6.1 0.00419
6.15 0.00393
6.2 0.00335
6.25 0.00273
6.3 0.00213
6.35 0.00193
6.4 0.00208
6.45 0.00253
6.5 0.00258
6.55 0.00284
6.6 0.00307
6.65 0.00322
6.7 0.00297
6.75 0.00267
6.8 0.00249
6.85 0.00228
6.9 0.00215
6.95 0.00204
7 0.00141
7.05 0.00123
7.1 0.00125
7.15 0.00112
7.2 0.00175
7.25 0.00235
7.3 0.0028
7.35 0.00331
7.4 0.00327
7.45 0.00332
7.5 0.00318
7.55 0.00341
7.6 0.00333
7.65 0.0027
7.7 0.0027
7.75 0.00252
7.8 0.00244
7.85 0.0021
7.9 0.00172
7.95 0.0018
8 0.00143
8.05 0.00141
8.1 0.00141
8.15 0.00166
8.2 0.00166
8.25 0.00169
8.3 0.00238
8.35 0.00247
8.4 0.0024
8.45 0.00231
8.5 0.00239
8.55 0.00274
8.6 0.00273
8.65 0.00265
8.7 0.0026
8.75 0.00288
8.8 0.00301
8.85 0.00283
8.9 0.00289
8.95 0.00288
9 0.00288
9.05 0.00285
9.1 0.00222
9.15 0.00168
9.2 0.00168
9.25 0.00163
9.3 0.00186
9.35 0.00197
9.4 0.00172
9.45 0.00161
9.5 0.00167
9.55 0.00151
9.6 0.00118
9.65 0.00128
9.7 0.00111
9.75 0.00087
9.8 0.00056
9.85 0.00038
9.9 0.00018
9.95 0
10 0.00012
10.05 0.00027
10.1 0.00031
10.15 0.00022
10.2 7e-05
10.25 -0.00028
10.3 -0.00052
10.35 -0.00089
10.4 -0.00119
10.45 -0.00106
10.5 -0.00039
10.55 -0.00023
10.6 -0.00022
10.65 -0.00021
10.7 -0.00023
10.75 2e-05
10.8 0.00015
10.85 0.00037
10.9 0.00077
10.95 8e-04
11 0.00119
11.05 0.0013
11.1 0.00152
11.15 0.00147
11.2 0.00118
11.25 0.001
11.3 0.00044
11.35 -0.00038
11.4 -0.00085
11.45 -0.00119
11.5 -0.00134
11.55 -0.00112
11.6 -0.00068
11.65 -0.00032
11.7 -0.00039
11.75 -0.00056
11.8 -0.00072
11.85 -0.00103
11.9 -0.00082
11.95 -0.00081
12 -0.00091
12.05 -0.00098
12.1 -0.00076
12.15 -0.00037
12.2 -2e-05
12.25 -0.00017
12.3 -0.00031
12.35 0.00023
12.4 0.00044
12.45 0.00062
12.5 0.00063
12.55 0.00087
12.6 0.00134
12.65 0.00178
12.7 0.00146
12.75 0.00131
12.8 0.00093
12.85 0.00049
12.9 0
12.95 -0.00042
13 -0.00062
13.05 -0.00084
13.1 -0.00095
13.15 -0.00051
13.2 0
13.25 0.00076
13.3 0.00095
13.35 0.00086
13.4 0.00118
13.45 0.00146
13.5 0.00162
13.55 0.00131
13.6 0.00128
13.65 0.00118
13.7 0.00098
13.75 0.00099
13.8 0.00071
13.85 0.00037
13.9 0.00013
13.95 -1e-05
14 -8e-05
14.05 -0.00025
14.1 -3e-04
14.15 0.00034
14.2 0.00064
14.25 0.00066
14.3 0.00065
14.35 0.00011
14.4 -9e-05
14.45 8e-05
14.5 3e-05
14.55 -4e-04
14.6 -0.00056
14.65 -0.00039
14.7 -7e-05
14.75 -0.00025
14.8 -0.00022
14.85 -0.00072
14.9 -0.00068
14.95 -6e-05
15 0.00015
15.05 0.00061
15.1 0.0014
15.15 0.00179
15.2 0.00245
15.25 0.00267
15.3 0.00292
15.35 0.00259
15.4 0.00234
15.45 0.00184
15.5 0.00133
15.55 0.00084
15.6 0.00029
15.65 9e-05
15.7 -0.00036
15.75 -0.00092
15.8 -0.00134
15.85 -0.00113
15.9 -0.00091
15.95 -0.00088
16 -0.00084
16.05 -0.00094
16.1 -0.00104
16.15 -0.00096
16.2 -0.00045
16.25 -4e-05
16.3 0.00022
16.35 5e-04
16.4 0.00038
16.45 0.00024
16.5 0.00019
16.55 0.00013
16.6 0.00015
16.65 7e-05
16.7 0.00011
16.75 0.00043
16.8 0.00042
16.85 0.00092
16.9 0.00142
16.95 0.00172
17 0.00154
17.05 0.00121
17.1 0.00091
17.15 4e-04
17.2 0.00016
17.25 0.00027
17.3 0.00021
17.35 0.00023
17.4 0.00036
17.45 0.00015
17.5 0.00036
17.55 0.00031
17.6 0.00027
17.65 2e-04
17.7 0.00013
17.75 -1e-04
17.8 -0.00019
17.85 -9e-05
17.9 7e-05
17.95 0.00037
18 0.00033
18.05 0.00023
18.1 0.00037
18.15 2e-05
18.2 -6e-05
18.25 -0.00039
18.3 -0.00054
18.35 -0.00065
18.4 -0.00069
18.45 -0.00056
18.5 -4e-04
18.55 2e-05
18.6 0.00038
18.65 0.00062
18.7 9e-04
18.75 0.00121
18.8 0.00104
18.85 0.00075
18.9 6e-04
18.95 0.00028
19 0.00023
19.05 1e-04
19.1 -0.00063
19.15 -0.00117
19.2 -0.00115
19.25 -0.00081
19.3 -0.00082
19.35 -0.00096
19.4 -0.0015
19.45 -0.00194
19.5 -0.00215
19.55 -0.00246
19.6 -0.00293
19.65 -0.00285
19.7 -0.00266
19.75 -0.00238
19.8 -0.00201
19.85 -0.00149
19.9 -0.00098
19.95 -0.00031
20 0.00018
20.05 0.00059
20.1 0.00089
20.15 0.00118
20.2 0.00113
20.25 0.00132
20.3 0.00129
20.35 0.00085
20.4 0.00071
20.45 0.00067
20.5 0.00047
20.55 0.00041
20.6 0.00036
20.65 0.00043
20.7 6e-05
20.75 -0.00025
20.8 -0.00039
20.85 -0.00048
20.9 -0.00079
20.95 -0.00083
21 -0.00071
21.05 -0.00094
21.1 -0.00109
21.15 -0.00131
21.2 -0.0015
21.25 -0.00131
21.3 -0.00096
21.35 -0.00085
21.4 -0.00098
21.45 -0.00126
21.5 -0.0015
21.55 -0.00165
21.6 -0.00176
21.65 -0.00172
21.7 -0.00104
21.75 -0.00058
21.8 0.00025
21.85 0.00063
21.9 0.00061
21.95 3e-04
22 0.00011
22.05 3e-04
22.1 6e-04
22.15 0.00071
22.2 0.00072
22.25 0.00064
22.3 0.00023
22.35 0.00021
22.4 0.00011
22.45 2e-05
22.5 -0.00012
22.55 -0.00029
22.6 -0.00019
22.65 -0.00033
22.7 -0.00029
22.75 -0.00024
22.8 9e-05
22.85 0.00037
22.9 -1e-05
22.95 -0.00056
23 -0.00075
23.05 -0.00057
23.1 -3e-04
23.15 0.00013
23.2 0.00041
23.25 0.00029
23.3 7e-05
23.35 -5e-04
23.4 -0.00042
23.45 -4e-04
23.5 -0.00023
23.55 1e-05
23.6 1e-04
23.65 -0.00057
23.7 -0.00103
23.75 -0.00135
23.8 -0.00136
23.85 -0.00167
23.9 -0.00134
23.95 -0.00103
24 -0.00037
24.05 -0.00015
24.1 2e-04
24.15 3e-04
24.2 0.00035
24.25 0.00029
24.3 0.00026
24.35 -0.00011
24.4 -0.00016
24.45 -0.00023
24.5 -0.00055
24.55 -0.00117
24.6 -0.00157
24.65 -0.00179
24.7 -0.00155
24.75 -0.00132
24.8 -0.00112
24.85 -0.00078
24.9 -0.00053
24.95 -0.00024
25 -0.00011
25.05 3e-04
25.1 0.00026
25.15 -5e-05
25.2 2e-04
25.25 0.00044
25.3 0.00046
25.35 0.00031
25.4 3e-05
25.45 -2e-04
25.5 -0.00035
25.55 -0.00058
25.6 -3e-04
25.65 -1e-05
25.7 1e-04
25.75 0.00018
25.8 8e-05
25.85 0.00027
25.9 0.00031
25.95 0.00042
26 0.00065
26.05 0.00038
26.1 0.00013
26.15 -0.00025
26.2 -4e-04
26.25 -0.00069
26.3 -0.00092
26.35 -0.00116
26.4 -0.00117
26.45 -0.00094
26.5 -0.00051
26.55 -0.00012
26.6 0.00049
26.65 0.00093
26.7 0.0014
26.75 0.00142
26.8 0.00094
26.85 0.00031
26.9 -0.00027
26.95 -8e-04
27 -0.00104
27.05 -0.00138
27.1 -0.00176
27.15 -0.00193
27.2 -0.00187
27.25 -0.00158
27.3 -0.00063
27.35 -0.00014
27.4 2e-04
27.45 0.00012
27.5 -4e-05
27.55 -0.00029
27.6 -6e-04
27.65 -0.00097
27.7 -0.00095
27.75 -6e-04
27.8 -0.00044
27.85 6e-05
27.9 0.00031
27.95 0.00054
28 0.00045
28.05 0.00029
28.1 0.00043
28.15 3e-04
28.2 1e-05
28.25 -0.00055
28.3 -0.00127
28.35 -0.00165
28.4 -0.00209
28.45 -0.00281
28.5 -0.00392
28.55 -0.00568
28.6 -0.00742
28.65 -0.00929
28.7 -0.01125
28.75 -0.0138
28.8 -0.01707
28.85 -0.02083
28.9 -0.0252
28.95 -0.02984
29 -0.03529
29.05 -0.04186
29.1 -0.04963
29.15 -0.05836
29.2 -0.069
29.25 -0.08101
29.3 -0.09433
29.35 -0.10954
29.4 -0.12682
29.45 -0.14553
29.5 -0.1663
29.55 -0.18962
29.6 -0.21588
29.65 -0.24504
29.7 -0.27738
29.75 -0.31211
29.8 -0.34962
29.85 -0.39014
29.9 -0.43278
29.95 -0.47824
30 -0.52562
30.05 -0.57485
30.1 -0.62554
30.15 -0.67657
30.2 -0.7285
30.25 -0.78066
30.3 -0.83186
30.35 -0.88157
30.4 -0.92911
30.45 -0.97386
30.5 -1.01551
30.55 -1.05292
30.6 -1.08452
30.65 -1.11043
30.7 -1.12988
30.75 -1.14236
30.8 -1.14709
30.85 -1.14429
30.9 -1.13317
30.95 -1.11361
31 -1.08562
31.05 -1.04992
31.1 -1.00607
31.15 -0.95519
31.2 -0.89748
31.25 -0.83376
31.3 -0.76436
31.35 -0.69091
31.4 -0.61365
31.45 -0.5334
31.5 -0.45099
31.55 -0.36735
31.6 -0.28367
31.65 -0.20024
31.7 -0.11795
31.75 -0.03787
31.8 0.03973
31.85 0.11457
31.9 0.18549
31.95 0.25222
32 0.31444
32.05 0.37214
32.1 0.42588
32.15 0.4753
32.2 0.52032
32.25 0.56057
32.3 0.59635
32.35 0.62858
32.4 0.6575
32.45 0.68354
32.5 0.7064
32.55 0.72628
32.6 0.7445
32.65 0.76075
32.7 0.7752
32.75 0.78845
32.8 0.8004
32.85 0.81143
32.9 0.82111
32.95 0.82976
33 0.83737
33.05 0.84428
33.1 0.85024
33.15 0.85561
33.2 0.86018
33.25 0.86362
33.3 0.86568
33.35 0.8673
33.4 0.86742
33.45 0.8667
33.5 0.86498
33.55 0.86164
33.6 0.8568
33.65 0.85078
33.7 0.84414
33.75 0.83632
33.8 0.82728
33.85 0.817
33.9 0.80528
33.95 0.79232
34 0.77825
34.05 0.76304
34.1 0.74651
34.15 0.7292
34.2 0.71162
34.25 0.6939
34.3 0.67503
34.35 0.65603
34.4 0.63678
34.45 0.61731
34.5 0.59752
34.55 0.57765
34.6 0.55779
34.65 0.53765
34.7 0.51693
34.75 0.49593
34.8 0.47512
34.85 0.45416
34.9 0.43289
34.95 0.4128
35 0.39233
35.05 0.37211
35.1 0.35253
35.15 0.33315
35.2 0.3142
35.25 0.29601
35.3 0.27776
35.35 0.25999
35.4 0.24193
35.45 0.22427
35.5 0.20708
35.55 0.1905
35.6 0.1747
35.65 0.15942
35.7 0.14481
35.75 0.13012
35.8 0.11604
35.85 0.10175
35.9 0.08792
35.95 0.07429
36 0.06127
36.05 0.04868
36.1 0.03674
36.15 0.02541
36.2 0.01439
36.25 0.00387
36.3 -0.00602
36.35 -0.01576
36.4 -0.02497
36.45 -0.03344
36.5 -0.04157
36.55 -0.04907
36.6 -0.05652
36.65 -0.06382
36.7 -0.07086
36.75 -0.07787
36.8 -0.08418
36.85 -0.0907
36.9 -0.09649
36.95 -0.10176
37 -0.10682
37.05 -0.11159
37.1 -0.11594
37.15 -0.11982
37.2 -0.12354
37.25 -0.12718
37.3 -0.1304
37.35 -0.13339
37.4 -0.13568
37.45 -0.13756
37.5 -0.13951
37.55 -0.14119
37.6 -0.14295
37.65 -0.14455
37.7 -0.14609
37.75 -0.14677
37.8 -0.14697
37.85 -0.14709
37.9 -0.14681
37.95 -0.14633
38 -0.14621
38.05 -0.14607
38.1 -0.14606
38.15 -0.14631
38.2 -0.14631
38.25 -0.1461
38.3 -0.14526
38.35 -0.14438
38.4 -0.14352
38.45 -0.1422
38.5 -0.14095
38.55 -0.13987
38.6 -0.13824
38.65 -0.13704
38.7 -0.1358
38.75 -0.13447
38.8 -0.13291
38.85 -0.13166
38.9 -0.1301
38.95 -0.12836
39 -0.12646
39.05 -0.12512
39.1 -0.12363
39.15 -0.12219
39.2 -0.12045
39.25 -0.11878
39.3 -0.11737
39.35 -0.11608
39.4 -0.1147
39.45 -0.11329
39.5 -0.11181
39.55 -0.1103
39.6 -0.10861
39.65 -0.10647
39.7 -0.1046
39.75 -0.10304
39.8 -0.10155
39.85 -0.09988
39.9 -0.09778
39.95 -0.09622
40 -0.09478
40.05 -0.09337
40.1 -0.09202
40.15 -0.09075
40.2 -0.0898
40.25 -0.08855
40.3 -0.08681
40.35 -0.08518
40.4 -0.0839
40.45 -0.08305
40.5 -0.08218
40.55 -0.08155
40.6 -0.08048
40.65 -0.07916
40.7 -0.07754
40.75 -0.07606
40.8 -0.07477
40.85 -0.07327
40.9 -0.07186
40.95 -0.07074
41 -0.06981
41.05 -0.06907
41.1 -0.06803
41.15 -0.06698
41.2 -0.0663
41.25 -0.06542
41.3 -0.06458
41.35 -0.06322
41.4 -0.06249
41.45 -0.06207
41.5 -0.06111
41.55 -0.06
41.6 -0.05892
41.65 -0.05811
41.7 -0.05686
41.75 -0.05602
41.8 -0.05534
41.85 -0.05437
41.9 -0.05382
41.95 -0.05344
42 -0.05289
42.05 -0.05213
42.1 -0.0514
42.15 -0.05037
42.2 -0.04874
42.25 -0.04745
42.3 -0.04604
42.35 -0.04509
42.4 -0.04447
42.45 -0.04386
42.5 -0.04296
42.55 -0.04182
42.6 -0.04079
42.65 -0.0399
42.7 -0.0393
42.75 -0.03939
42.8 -0.03932
42.85 -0.03889
42.9 -0.0385
42.95 -0.03792
43 -0.03759
43.05 -0.03734
43.1 -0.03654
43.15 -0.03584
43.2 -0.03544
43.25 -0.03494
43.3 -0.03404
43.35 -0.03351
43.4 -0.03356
43.45 -0.03382
43.5 -0.03352
43.55 -0.03304
43.6 -0.03266
43.65 -0.03246
43.7 -0.03186
43.75 -0.03086
43.8 -0.02989
43.85 -0.02894
43.9 -0.02837
43.95 -0.02812
44 -0.02791
44.05 -0.02753
44.1 -0.02726
44.15 -0.02708
44.2 -0.02646
44.25 -0.02621
44.3 -0.02596
44.35 -0.02586
44.4 -0.02568
44.45 -0.02531
44.5 -0.025
44.55 -0.02459
44.6 -0.02389
44.65 -0.02344
44.7 -0.02281
44.75 -0.02219
44.8 -0.02167
44.85 -0.02126
44.9 -0.02072
44.95 -0.02041
45 -0.02024
45.05 -0.02051
45.1 -0.02039
45.15 -0.01955
45.2 -0.01916
45.25 -0.0188
45.3 -0.01816
45.35 -0.01774
45.4 -0.0176
45.45 -0.01756
45.5 -0.01777
45.55 -0.01751
45.6 -0.01695
45.65 -0.01643
45.7 -0.01575
45.75 -0.0153
45.8 -0.01485
45.85 -0.01442
45.9 -0.01413
45.95 -0.01408
46 -0.01392
46.05 -0.01394
46.1 -0.01391
46.15 -0.01389
46.2 -0.01407
46.25 -0.01428
46.3 -0.0141
46.35 -0.0139
46.4 -0.01363
46.45 -0.0134
46.5 -0.01353
46.55 -0.0137
46.6 -0.01381
46.65 -0.01393
46.7 -0.01375
46.75 -0.01335
46.8 -0.01288
46.85 -0.01198
46.9 -0.01127
46.95 -0.01101
47 -0.0108
47.05 -0.01066
47.1 -0.01049
47.15 -0.0102
47.2 -0.00992
47.25 -0.0096
47.3 -0.00917
47.35 -0.00922
47.4 -0.00944
47.45 -0.00942
47.5 -0.00965
47.55 -0.00914
47.6 -0.00885
47.65 -0.00825
47.7 -0.00801
47.75 -0.00769
47.8 -0.00762
47.85 -0.0077
47.9 -0.00798
47.95 -0.008
48 -0.00797
48.05 -0.00798
48.1 -0.00771
48.15 -0.0073
48.2 -0.0071
48.25 -0.00717
48.3 -0.00732
48.35 -0.0077
48.4 -0.00822
48.45 -0.00826
48.5 -0.00806
48.55 -0.00804
48.6 -0.00781
48.65 -0.00807
48.7 -0.00792
48.75 -0.00757
48.8 -0.00714
48.85 -0.00663
48.9 -0.0062
48.95 -0.00587
49 -0.00548
49.05 -0.00509
49.1 -0.00487
49.15 -0.00488
49.2 -0.0047
49.25 -0.00494
49.3 -0.00546
49.35 -0.00625
49.4 -0.00624
49.45 -0.00616
49.5 -0.00566
49.55 -0.00519
49.6 -0.00448
49.65 -0.00417
49.7 -0.00374
49.75 -0.00374
49.8 -0.004
49.85 -0.00417
49.9 -0.00465
49.95 -0.00502
50 -0.00489
50.05 -0.00454
50.1 -0.00453
50.15 -0.00478
50.2 -0.00481
50.25 -0.00476
50.3 -0.00461
50.35 -0.00411
50.4 -0.00383
50.45 -0.00389
50.5 -0.0042
50.55 -0.00464
50.6 -0.00482
50.65 -0.00526
50.7 -0.00478
50.75 -0.00396
50.8 -0.00331
50.85 -0.00266
50.9 -0.00212
50.95 -0.0014
51 -0.00098
51.05 -0.00098
51.1 -0.00109
51.15 -0.00113
51.2 -0.00169
51.25 -0.00149
51.3 -0.00186
51.35 -0.00206
51.4 -0.00229
51.45 -0.00231
51.5 -0.00257
51.55 -0.00291
51.6 -0.00351
51.65 -0.00394
51.7 -0.00424
51.75 -0.00484
51.8 -0.00519
51.85 -0.0054
51.9 -0.00532
51.95 -0.00554
52 -0.00558
52.05 -0.00551
52.1 -0.00537
52.15 -0.00507
52.2 -0.00458
52.25 -0.00421
52.3 -0.00389
52.35 -0.00357
52.4 -0.00307
52.45 -0.00283
52.5 -0.00247
52.55 -0.00232
52.6 -0.00233
52.65 -0.00223
52.7 -0.00198
52.75 -0.00164
52.8 -0.0014
52.85 -0.00156
52.9 -0.00164
52.95 -0.00165
53 -0.00156
53.05 -0.00105
53.1 -0.00092
53.15 -0.00065
53.2 -0.00061
53.25 -5e-04
53.3 -0.00047
53.35 -0.00051
53.4 -0.00019
53.45 -0.00022
53.5 -0.00028
53.55 -0.00064
53.6 -0.00086
53.65 -0.00127
53.7 -0.00122
53.75 -0.00162
53.8 -0.00163
53.85 -0.00151
53.9 -0.00123
53.95 -0.00124
54 -0.00126
54.05 -0.00148
54.1 -0.00154
54.15 -0.00154
54.2 -0.00138
54.25 -0.00111
54.3 -0.00114
54.35 -0.00157
54.4 -0.00195
54.45 -0.00209
54.5 -0.00178
54.55 -0.00196
54.6 -0.00196
54.65 -0.00173
54.7 -0.00163
54.75 -0.00143
54.8 -0.00141
54.85 -0.00115
54.9 -0.00108
54.95 -0.00095
55 -0.00039
55.05 9e-05
55.1 0.00019
55.15 0.00046
55.2 0.00051
55.25 0.00042
55.3 -7e-05
55.35 -0.00025
55.4 -2e-04
55.45 -0.00035
55.5 -0.00042
55.55 -0.00017
55.6 -0.00021
55.65 -0.00011
55.7 -0.00013
55.75 -0.00062
55.8 -0.00088
55.85 -0.0013
55.9 -0.00144
55.95 -0.00172
56 -0.00179
56.05 -0.00204
56.1 -0.00186
56.15 -0.00142
56.2 -0.00129
56.25 -0.00117
56.3 -8e-04
56.35 -0.00073
56.4 -0.00084
56.45 -9e-04
56.5 -0.00063
56.55 -2e-05
56.6 0.00026
56.65 0.00049
56.7 0.00066
56.75 0.00076
56.8 0.00063
56.85 0.00025
56.9 0.00016
56.95 0.00028
57 -0.00016
57.05 -0.00066
57.1 -0.00107
57.15 -0.00155
57.2 -0.00153
57.25 -0.00114
57.3 -0.00068
57.35 -0.00061
57.4 -0.00065
57.45 -0.00043
57.5 -0.00034
57.55 -0.00029
57.6 -0.00028
57.65 -3e-04
57.7 0.00011
57.75 0.00096
57.8 0.00118
57.85 0.00152
57.9 0.00128
57.95 0.00122
58 0.00095
58.05 0.00089
58.1 0.00054
58.15 0.00043
58.2 0.00038
58.25 -3e-05
58.3 -0.00026
58.35 -0.00041
58.4 -0.00029
58.45 -0.00028
58.5 0.00016
58.55 7e-05
58.6 0.00025
58.65 0.00045
58.7 3e-04
58.75 -0.00026
58.8 -0.00041
58.85 -0.00068
58.9 -0.00057
58.95 -0.00043
59 -0.00061
59.05 -0.00077
59.1 -0.00118
59.15 -0.00109
59.2 -0.00089
59.25 -0.00091
59.3 -0.00062
59.35 -0.00014
59.4 0.00017
59.45 0.00036
59.5 0.00017
59.55 0
59.6 -0.00029
59.65 -0.00035
59.7 -0.00051
59.75 -0.00041
59.8 3e-05
59.85 0.00013
59.9 -9e-05
59.95 -0.00026
60 -0.00067
60.05 -0.0011
60.1 -0.00135
60.15 -0.00075
60.2 -0.00039
60.25 -0.00017
60.3 0.00013
60.35 0.00055
60.4 0.00049
60.45 0.00018
60.5 -0.00012
60.55 -0.00044
60.6 -0.00047
60.65 -0.00023
60.7 -0.00013
60.75 -3e-05
60.8 -0.00024
60.85 -0.00045
60.9 -0.00055
60.95 -9e-04
61 -0.0013
61.05 -0.00163
61.1 -0.00183
61.15 -0.00193
61.2 -0.00167
61.25 -0.00158
61.3 -0.00105
61.35 -0.00065
61.4 -0.00045
61.45 -0.00036
61.5 -0.00052
61.55 -0.00062
61.6 -0.00073
61.65 -0.00077
61.7 -0.00056
61.75 -0.00036
61.8 -0.00014
61.85 -1e-05
61.9 0.00034
61.95 0.00037
62 0.00052
62.05 0.00074
62.1 0.00086
62.15 0.00061
62.2 0.00033
62.25 0.00053
62.3 0.00058
62.35 0.00027
62.4 -6e-05
62.45 -0.00026
62.5 -0.00017
62.55 -0.00034
62.6 -0.00049
62.65 -0.00032
62.7 0.00011
62.75 0.00041
62.8 0.00078
62.85 0.00047
62.9 0.00028
62.95 0.00015
63 0.00019
63.05 0.00035
63.1 0.00015
63.15 -6e-05
63.2 -2e-05
63.25 -0.00038
63.3 -0.00051
63.35 -6e-04
63.4 -9e-04
63.45 -0.00125
63.5 -0.00161
63.55 -0.00193
63.6 -0.00169
63.65 -0.00151
63.7 -0.00107
63.75 -0.00122
63.8 -0.00123
63.85 -0.00114
63.9 -0.00091
63.95 -0.001
64 -0.00119
64.05 -0.0014
64.1 -0.00142
64.15 -0.00171
64.2 -0.00151
64.25 -0.00092
64.3 -0.00074
64.35 -0.00058
64.4 -0.00056
64.45 -0.00054
64.5 -0.00069
64.55 -0.00084
64.6 -0.00119
64.65 -0.00178
64.7 -0.00223
64.75 -0.00242
64.8 -0.00262
64.85 -0.00257
64.9 -0.00231
64.95 -0.00185
65 -0.00124
65.05 -0.00063
65.1 -0.00033
65.15 -0.00032
65.2 -0.00034
65.25 1e-05
65.3 -0.00032
65.35 -0.00051
65.4 -0.00069
65.45 -0.00067
65.5 -0.0011
65.55 -0.00179
65.6 -0.00218
65.65 -0.00217
65.7 -0.00219
65.75 -0.00177
65.8 -0.00148
65.85 -0.00126
65.9 -0.00115
65.95 -0.00128
66 -0.00085
66.05 -0.00079
66.1 -0.00054
66.15 -0.00044
66.2 -0.00043
66.25 -0.00018
66.3 0.00016
66.35 6e-04
66.4 0.00104
66.45 0.00139
66.5 0.00137
66.55 0.00143
66.6 0.00134
66.65 0.00124
66.7 0.0013
66.75 0.00112
66.8 0.00076
66.85 0.00035
66.9 -0.00034
66.95 -0.00088
67 -0.00103
67.05 -0.00096
67.1 -0.00137
67.15 -0.00124
67.2 -9e-04
67.25 -0.00077
67.3 -0.00065
67.35 -0.00073
67.4 -7e-04
67.45 -0.00052
67.5 -0.00069
67.55 -0.00063
67.6 -0.00063
67.65 -8e-04
67.7 -0.00105
67.75 -0.00105
67.8 -0.00077
67.85 -0.00025
67.9 0.00021
67.95 0.00053
68 0.00067
68.05 0.00068
68.1 0.00074
68.15 7e-04
68.2 0.00021
68.25 -4e-05
68.3 -0.00032
68.35 -0.00042
68.4 -0.00046
68.45 -0.00051
68.5 -7e-04
68.55 -0.00094
68.6 -0.001
68.65 -0.00098
68.7 -0.00079
68.75 -0.00064
68.8 -0.00056
68.85 -0.00023
68.9 -0.00029
68.95 -0.00021
69 -0.00037
69.05 0.00019
69.1 0.00033
69.15 0.00107
69.2 0.00139
69.25 0.00114
69.3 0.00072
69.35 0.00025
69.4 -0.00048
69.45 -8e-04
69.5 -0.00125
69.55 -0.00161
69.6 -0.00153
69.65 -0.00145
69.7 -0.00135
69.75 -9e-04
69.8 -0.00053
69.85 -0.00028
69.9 0.00028
69.95 0.00018
70 1e-04
70.05 3e-05
70.1 0.00034
70.15 0.00057
70.2 0.00091
70.25 0.00132
70.3 0.00179
70.35 0.00199
70.4 0.00168
70.45 0.0016
70.5 0.00148
70.55 0.0013
70.6 0.00104
70.65 0.00085
70.7 0.00044
70.75 1e-05
70.8 -0.00046
70.85 -0.00069
70.9 -9e-04
70.95 -0.00085
71 -0.00066
71.05 -0.00038
71.1 -9e-05
71.15 -2e-05
71.2 -3e-05
71.25 -0.00033
71.3 -4e-04
71.35 4e-05
71.4 0.00032
71.45 0.00026
71.5 0.00046
71.55 0.00033
71.6 8e-05
71.65 -5e-05
71.7 -0.00036
71.75 -4e-04
71.8 5e-05
71.85 0.00065
71.9 0.00103
71.95 0.00124
72 0.0012
72.05 0.00074
72.1 9e-05
72.15 -0.00043
72.2 -0.00034
72.25 0.00012
72.3 8e-05
72.35 4e-05
72.4 -0.00056
72.45 -0.00079
72.5 -0.00104
72.55 -0.00084
72.6 -0.00069
72.65 -0.00042
72.7 -0.00017
72.75 0
72.8 0.00028
72.85 7e-05
72.9 -0.00031
72.95 -0.00049
73 -0.00074
73.05 -0.00085
73.1 -0.00094
73.15 -0.00119
73.2 -0.00132
73.25 -0.00163
73.3 -0.00152
73.35 -0.00152
73.4 -0.00127
73.45 -0.00106
73.5 -0.00099
73.55 -0.00116
73.6 -0.00101
73.65 -0.00039
73.7 -7e-05
73.75 -0.00011
73.8 0.00025
73.85 0.00065
73.9 0.00071
73.95 0.00095
74 0.00086
74.05 0.00077
74.1 0.00084
74.15 0.00062
74.2 0.00064
74.25 0.00087
74.3 0.00121
74.35 0.00138
74.4 0.00092
74.45 0.00027
74.5 -0.00012
74.55 -0.00016
74.6 0.00013
74.65 0.00032
74.7 0.00029
74.75 0.00027
74.8 0.00042
74.85 0.00116
74.9 0.00181
74.95 0.00165
75 0.00156
75.05 0.00167
75.1 0.00117
75.15 0.00078
75.2 8e-05
75.25 -0.00045
75.3 -0.00048
75.35 -0.00034
75.4 3e-05
75.45 1e-04
75.5 5e-05
75.55 0.00016
75.6 0.00013
75.65 0.00054
75.7 0.00054
75.75 0.00072
75.8 0.00085
75.85 0.00033
75.9 4e-05
75.95 -0.00012
76 -0.00026
76.05 -0.00036
76.1 -0.00027
76.15 -0.00057
76.2 -0.00133
76.25 -0.00177
76.3 -0.00217
76.35 -0.00203
76.4 -0.00176
76.45 -0.00149
76.5 -0.00085
76.55 -0.00053
76.6 6e-05
76.65 0.00027
76.7 0.00033
76.75 0.00023
76.8 -0.00014
76.85 -0.00077
76.9 -0.0015
76.95 -0.00145
77 -0.0012
77.05 -0.00097
77.1 -0.00075
77.15 -0.00061
77.2 -0.00041
77.25 -0.00031
77.3 -2e-05
77.35 -0.00011
77.4 -0.00047
77.45 -0.00081
77.5 -0.00095
77.55 -0.00105
77.6 -0.00138
77.65 -0.00173
77.7 -0.00197
77.75 -0.00242
77.8 -0.00196
77.85 -0.00184
77.9 -0.00118
77.95 -0.00039
78 0.00017
78.05 5e-04
78.1 0.00071
78.15 0.00055
78.2 0.00053
78.25 0.00018
78.3 1e-05
78.35 0.00021
78.4 0.00073
78.45 0.00122
78.5 0.00125
78.55 0.00166
78.6 0.00143
78.65 0.00128
78.7 0.00125
78.75 0.00092
78.8 0.00027
78.85 -2e-05
78.9 -0.00035
78.95 -0.00044
79 -0.00043
79.05 -5e-04
79.1 -0.00026
79.15 -0.00011
79.2 2e-05
79.25 3e-05
79.3 1e-04
79.35 0.00014
79.4 0.00023
79.45 0.00029
79.5 -0.00022
79.55 -1e-04
79.6 -4e-04
79.65 -0.00091
79.7 -0.00134
79.75 -0.00111
79.8 -0.00089
79.85 -0.00074
79.9 -0.00054
79.95 -3e-04
80 0.00028
80.05 5e-04
80.1 0.00055
80.15 0.00037
80.2 -1e-04
80.25 -0.00034
80.3 -0.00092
80.35 -0.00087
80.4 -0.00087
80.45 -9e-04
80.5 -0.00064
80.55 -0.00018
80.6 7e-05
80.65 0.00039
80.7 0.00062
80.75 0.00084
80.8 0.00065
80.85 0.00101
80.9 8e-04
80.95 0.00079
81 0.00088
81.05 0.00079
81.1 0.00083
81.15 0.00072
81.2 0.00028
81.25 0.00042
81.3 0.00069
81.35 0.00057
81.4 4e-05
81.45 -6e-05
81.5 -0.00033
81.55 -0.00045
81.6 -0.00062
81.65 -0.00074
81.7 -0.00055
81.75 -0.00031
81.8 -2e-04
81.85 0.00016
81.9 0.00078
81.95 0.00081
82 0.00077
82.05 8e-04
82.1 4e-04
82.15 -0.00023
82.2 -0.00091
82.25 -0.00106
82.3 -0.00086
82.35 -0.00039
82.4 -3e-04
82.45 -0.00041
82.5 -0.00052
82.55 -0.00077
82.6 -0.00112
82.65 -0.00089
82.7 -0.00056
82.75 -0.00035
82.8 2e-05
82.85 0.00028
82.9 0.00048
82.95 0.00057
83 0.00061
83.05 0.00047
83.1 -8e-05
83.15 -0.00059
83.2 -0.00079
83.25 -0.00145
83.3 -0.00204
83.35 -0.00208
83.4 -0.00199
83.45 -0.00174
83.5 -0.00173
83.55 -0.00133
83.6 -0.00127
83.65 -7e-04
83.7 -0.00011
83.75 0.00024
83.8 0.00018
83.85 0.00027
83.9 0.00046
83.95 0.00062
84 0.00119
84.05 0.00151
84.1 0.00192
84.15 0.00187
84.2 0.00181
84.25 0.00168
84.3 0.00155
84.35 0.00119
84.4 0.00095
84.45 0.00074
84.5 0.00025
84.55 0.00016
84.6 -5e-05
84.65 -0.00021
84.7 -0.00043
84.75 -0.00066
84.8 -0.00124
84.85 -0.00136
84.9 -0.00151
84.95 -0.0022
85 -0.00237
85.05 -0.00207
85.1 -0.00247
85.15 -0.00243
85.2 -0.00175
85.25 -0.00117
85.3 -0.00069
85.35 -0.00044
85.4 -0.00021
85.45 -0.00057
85.5 -8e-04
85.55 -0.00086
85.6 -0.00061
85.65 -0.00019
85.7 0.00027
85.75 0.00047
85.8 0.00033
85.85 6e-05
85.9 -0.00027
85.95 -0.00044
86 -0.00036
86.05 -0.00051
86.1 -0.00097
86.15 -0.00054
86.2 -0.00025
86.25 0.00024
86.3 0.00013
86.35 -0.00034
86.4 -0.00091
86.45 -0.00117
86.5 -0.00126
86.55 -0.00105
86.6 -0.00063
86.65 -0.00043
86.7 -0.00046
86.75 -0.00057
86.8 -0.00026
86.85 0.00026
86.9 9e-05
86.95 -1e-05
87 9e-05
87.05 2e-05
87.1 2e-04
87.15 2e-04
87.2 -2e-05
87.25 5e-05
87.3 0.00025
87.35 3e-04
87.4 0.00015
87.45 -0.00011
87.5 -0.00017
87.55 -0.00033
87.6 -0.00021
87.65 -0.00022
87.7 -0.00025
87.75 -7e-04
87.8 -0.00085
87.85 -0.00094
87.9 -0.00058
87.95 -0.00055
88 -0.00023
88.05 0.00027
88.1 0.00014
88.15 -8e-05
88.2 -0.00029
88.25 -8e-05
88.3 -9e-05
88.35 -0.00085
88.4 -0.00142
88.45 -0.00179
88.5 -0.00196
88.55 -0.0017
88.6 -0.00157
88.65 -0.00139
88.7 -0.00097
88.75 -0.00073
88.8 -0.00041
88.85 -0.00014
88.9 0.00024
88.95 0.00074
89 0.00126
89.05 0.00136
89.1 0.0015
89.15 0.00144
89.2 0.00113
89.25 0.00051
89.3 6e-05
89.35 -0.00022
89.4 -0.00025
89.45 0
89.5 0.00025
89.55 0.00021
89.6 0.00031
89.65 0.00072
89.7 0.00111
89.75 0.00106
89.8 0.00071
89.85 -5e-05
89.9 -0.00031
89.95 -0.00051
90 -0.00062
90.05 -7e-04
90.1 -0.00047
90.15 -2e-04
90.2 -5e-04
90.25 -0.00102
90.3 -0.00089
90.35 -0.00102
90.4 -0.00104
90.45 -0.00072
90.5 -0.00052
90.55 -6e-04
90.6 -0.00053
90.65 -0.00056
90.7 -0.00031
90.75 0.00025
90.8 0.00054
90.85 0.00042
90.9 0.00022
90.95 0.00033
91 0.00071
91.05 0.00104
91.1 0.001
91.15 0.00103
91.2 0.00056
91.25 7e-04
91.3 0.00068
91.35 0.00078
91.4 0.00048
91.45 -3e-05
91.5 -0.00041
91.55 -0.00039
91.6 -5e-04
91.65 -0.00038
91.7 -0.00068
91.75 -0.00082
91.8 -0.00035
91.85 0.00028
91.9 0.00087
91.95 0.00183
92 0.00201
92.05 0.00212
92.1 0.00189
92.15 0.00141
92.2 0.00064
92.25 0.00021
92.3 -0.00016
92.35 -0.00015
92.4 -4e-05
92.45 6e-05
92.5 0.00019
92.55 -4e-05
92.6 -0.00014
92.65 0.00023
92.7 0.00015
92.75 4e-05
92.8 0.00015
92.85 0.00013
92.9 0.00015
92.95 0.00044
93 0.00056
93.05 0.00066
93.1 0.00125
93.15 0.00155
93.2 0.00137
93.25 0.00128
93.3 0.00103
93.35 0.00079
93.4 0.00057
93.45 0.00037
93.5 0.00023
93.55 0.00047
93.6 5e-04
93.65 8e-04
93.7 0.00085
93.75 7e-04
93.8 0.00072
93.85 0.00056
93.9 0.00034
93.95 6e-05
94 0.00016
94.05 -2e-05
94.1 -0.00037
94.15 -0.00064
94.2 -0.00072
94.25 -0.00062
94.3 -0.00056
94.35 -5e-04
94.4 -5e-04
94.45 -5e-04
94.5 -0.00067
94.55 -0.00093
94.6 -0.00104
94.65 -0.00117
94.7 -0.00113
94.75 -0.00113
94.8 -0.00117
94.85 -0.00112
94.9 -0.0013
94.95 -0.00118
95 -0.00148
95.05 -0.00114
95.1 -0.00063
95.15 -0.00015
95.2 0.00023
95.25 0.00032
95.3 0.00039
95.35 1e-05
95.4 -0.00051
95.45 -0.00088
95.5 -0.00137
95.55 -0.00151
95.6 -0.0018
95.65 -0.00198
95.7 -0.00198
95.75 -0.00151
95.8 -0.00115
95.85 -0.00103
95.9 -0.00126
95.95 -0.0013
96 -0.00108
96.05 -0.00101
96.1 -0.00089
96.15 -0.00035
96.2 0.00031
96.25 0.00051
96.3 0.00084
96.35 0.00076
96.4 0.00093
96.45 0.00136
96.5 0.00131
96.55 0.00123
96.6 0.00076
96.65 0.00021
96.7 -0.00019
96.75 -0.00057
96.8 -0.00093
96.85 -0.00131
96.9 -0.00163
96.95 -0.00203
97 -0.00198
97.05 -0.00191
97.1 -0.00129
97.15 -0.00052
97.2 0.00019
97.25 0.00076
97.3 0.00092
97.35 0.00093
97.4 4e-04
97.45 1e-04
97.5 2e-04
97.55 -8e-05
97.6 2e-04
97.65 0.00047
97.7 0.00058
97.75 0.00047
97.8 7e-05
97.85 -0.00059
97.9 -0.00101
97.95 -0.0012
98 -0.00152
98.05 -0.00194
98.1 -0.0021
98.15 -0.00204
98.2 -0.00153
98.25 -0.00148
98.3 -0.00192
98.35 -0.0014
98.4 -0.00135
98.45 -0.00151
98.5 -0.00171
98.55 -0.00162
98.6 -0.0013
98.65 -0.00139
98.7 -0.00138
98.75 -0.00146
98.8 -0.00147
98.85 -0.00156
98.9 -0.00161
98.95 -0.00171
99 -0.00181
99.05 -0.00135
99.1 -0.00068
99.15 -0.00038
99.2 -0.00018
99.25 -9e-05
99.3 -0.00022
99.35 -0.00016
99.4 -2e-05
99.45 1e-04
99.5 1e-04
99.55 -0.00011
99.6 -0.00026
99.65 9e-05
99.7 9e-05
99.75 -0.00018
99.8 -0.00036
99.85 9e-05
99.9 0.00052
99.95 0.00085
