0 0
0.05 0.00346
0.1 0.01003
0.15 0.01724
0.2 0.02494
0.25 0.03188
0.3 0.03843
0.35 0.04317
0.4 0.04712
0.45 0.04963
0.5 0.05094
0.55 0.05089
0.6 0.05121
0.65 0.05044
0.7 0.04882
0.75 0.04829
0.8 0.0479
0.85 0.04755
0.9 0.04631
0.95 0.04535
1 0.04439
1.05 0.04388
1.1 0.04249
1.15 0.04113
1.2 0.04095
1.25 0.04127
1.3 0.04114
1.35 0.04089
1.4 0.03944
1.45 0.03851
1.5 0.03747
1.55 0.03663
1.6 0.03643
1.65 0.03539
1.7 0.03461
1.75 0.03525
1.8 0.0357
1.85 0.03528
1.9 0.03641
1.95 0.03645
2 0.03712
2.05 0.0367
2.1 0.03526
2.15 0.03384
2.2 0.03255
2.25 0.03048
2.3 0.02767
2.35 0.02614
2.4 0.02619
2.45 0.02711
2.5 0.02708
2.55 0.02761
2.6 0.02833
2.65 0.02885
2.7 0.0284
2.75 0.02773
2.8 0.02702
2.85 0.02611
2.9 0.02592
2.95 0.02475
3 0.02369
3.05 0.02198
3.1 0.02041
3.15 0.01942
3.2 0.01877
3.25 0.01978
3.3 0.0204
3.35 0.02041
3.4 0.02183
3.45 0.02168
3.5 0.02285
3.55 0.02319
3.6 0.02271
3.65 0.02128
3.7 0.01922
3.75 0.01801
3.8 0.01685
3.85 0.01722
3.9 0.01884
3.95 0.01984
4 0.01958
4.05 0.0181
4.1 0.01668
4.15 0.01509
4.2 0.01211
4.25 0.00897
4.3 0.00584
4.35 0.00279
4.4 -0.00097
4.45 -0.00543
4.5 -0.01205
4.55 -0.02066
4.6 -0.03148
4.65 -0.0446
4.7 -0.05955
4.75 -0.07687
4.8 -0.09878
4.85 -0.12333
4.9 -0.15084
4.95 -0.18244
5 -0.21887
5.05 -0.26019
5.1 -0.30661
5.15 -0.3584
5.2 -0.415
5.25 -0.47728
5.3 -0.54442
5.35 -0.61638
5.4 -0.69265
5.45 -0.77262
5.5 -0.85424
5.55 -0.93655
5.6 -1.01927
5.65 -1.10177
5.7 -1.18308
5.75 -1.26252
5.8 -1.34065
5.85 -1.41551
5.9 -1.48732
5.95 -1.55379
6 -1.61547
6.05 -1.67203
6.1 -1.72317
6.15 -1.76862
6.2 -1.80858
6.25 -1.84279
6.3 -1.87081
6.35 -1.8932
6.4 -1.9092
6.45 -1.91878
6.5 -1.92103
6.55 -1.9148
6.6 -1.89962
6.65 -1.87665
6.7 -1.84397
6.75 -1.80097
6.8 -1.74779
6.85 -1.68385
6.9 -1.60675
6.95 -1.51847
7 -1.41842
7.05 -1.30642
7.1 -1.18325
7.15 -1.05216
7.2 -0.91265
7.25 -0.7665
7.3 -0.61387
7.35 -0.45692
7.4 -0.29797
7.45 -0.13796
7.5 0.02078
7.55 0.17757
7.6 0.33032
7.65 0.47828
7.7 0.61889
7.75 0.752
7.8 0.8777
7.85 0.99476
7.9 1.10056
7.95 1.19709
8 1.28428
8.05 1.36224
8.1 1.43212
8.15 1.4929
8.2 1.5449
8.25 1.58838
8.3 1.62418
8.35 1.65398
8.4 1.67711
8.45 1.695
8.5 1.7069
8.55 1.71542
8.6 1.71968
8.65 1.71883
8.7 1.71445
8.75 1.70656
8.8 1.69768
8.85 1.68683
8.9 1.67406
8.95 1.6601
9 1.64479
9.05 1.62813
9.1 1.60998
9.15 1.58979
9.2 1.56875
9.25 1.54759
9.3 1.52419
9.35 1.50129
9.4 1.47858
9.45 1.45493
9.5 1.43204
9.55 1.40966
9.6 1.38644
9.65 1.36345
9.7 1.33975
9.75 1.31498
9.8 1.28944
9.85 1.26355
9.9 1.23765
9.95 1.21085
10 1.18387
10.05 1.15555
10.1 1.12718
10.15 1.09868
10.2 1.06987
10.25 1.04046
10.3 1.01087
10.35 0.9801
10.4 0.94944
10.45 0.91751
10.5 0.88589
10.55 0.85269
10.6 0.81998
10.65 0.78588
10.7 0.75195
10.75 0.71906
10.8 0.68571
10.85 0.65195
10.9 0.61839
10.95 0.5859
11 0.55266
11.05 0.5201
11.1 0.48763
11.15 0.45489
11.2 0.4227
11.25 0.39068
11.3 0.35849
11.35 0.32719
11.4 0.29646
11.45 0.26677
11.5 0.23719
11.55 0.20951
11.6 0.18156
11.65 0.15293
11.7 0.12548
11.75 0.09899
11.8 0.07414
11.85 0.05038
11.9 0.02781
11.95 0.00584
12 -0.0149
12.05 -0.03472
12.1 -0.05464
12.15 -0.07422
12.2 -0.09179
12.25 -0.10939
12.3 -0.126
12.35 -0.14075
12.4 -0.15412
12.45 -0.1672
12.5 -0.17968
12.55 -0.19128
12.6 -0.20224
12.65 -0.21322
12.7 -0.22417
12.75 -0.23304
12.8 -0.24189
12.85 -0.24905
12.9 -0.25577
12.95 -0.26185
13 -0.26726
13.05 -0.27232
13.1 -0.27611
13.15 -0.27844
13.2 -0.28077
13.25 -0.28333
13.3 -0.28482
13.35 -0.28639
13.4 -0.28755
13.45 -0.2876
13.5 -0.28759
13.55 -0.28792
13.6 -0.28841
13.65 -0.28919
13.7 -0.28941
13.75 -0.28869
13.8 -0.28732
13.85 -0.28564
13.9 -0.28371
13.95 -0.28086
14 -0.27769
14.05 -0.2757
14.1 -0.27374
14.15 -0.2708
14.2 -0.26864
14.25 -0.26492
14.3 -0.26154
14.35 -0.25894
14.4 -0.25724
14.45 -0.25401
14.5 -0.2522
14.55 -0.24965
14.6 -0.24712
14.65 -0.24391
14.7 -0.2425
14.75 -0.23937
14.8 -0.23658
14.85 -0.2335
14.9 -0.23089
14.95 -0.227
15 -0.22379
15.05 -0.2215
15.1 -0.21773
15.15 -0.21387
15.2 -0.21014
15.25 -0.20653
15.3 -0.20324
15.35 -0.20031
15.4 -0.19716
15.45 -0.19463
15.5 -0.19153
15.55 -0.18889
15.6 -0.18582
15.65 -0.18266
15.7 -0.1792
15.75 -0.17611
15.8 -0.17324
15.85 -0.17067
15.9 -0.16915
15.95 -0.16749
16 -0.16509
16.05 -0.16215
16.1 -0.15885
16.15 -0.15698
16.2 -0.15504
16.25 -0.15323
16.3 -0.15064
16.35 -0.1473
16.4 -0.14381
16.45 -0.13979
16.5 -0.13728
16.55 -0.13594
16.6 -0.13525
16.65 -0.13454
16.7 -0.13299
16.75 -0.13088
16.8 -0.12943
16.85 -0.12809
16.9 -0.12687
16.95 -0.12524
17 -0.12314
17.05 -0.1203
17.1 -0.11663
17.15 -0.11338
17.2 -0.11051
17.25 -0.10809
17.3 -0.10628
17.35 -0.10545
17.4 -0.10495
17.45 -0.10286
17.5 -0.1008
17.55 -0.09868
17.6 -0.09657
17.65 -0.09497
17.7 -0.09436
17.75 -0.09361
17.8 -0.09296
17.85 -0.09152
17.9 -0.09095
17.95 -0.08947
18 -0.08797
18.05 -0.08617
18.1 -0.08348
18.15 -0.08137
18.2 -0.0799
18.25 -0.0792
18.3 -0.07904
18.35 -0.07818
18.4 -0.07675
18.45 -0.07528
18.5 -0.07324
18.55 -0.07217
18.6 -0.07085
18.65 -0.06898
18.7 -0.06716
18.75 -0.06609
18.8 -0.06519
18.85 -0.0648
18.9 -0.06459
18.95 -0.06431
19 -0.06432
19.05 -0.06368
19.1 -0.06206
19.15 -0.06116
19.2 -0.06095
19.25 -0.06075
19.3 -0.05993
19.35 -0.0595
19.4 -0.0589
19.45 -0.05897
19.5 -0.05879
19.55 -0.05744
19.6 -0.05524
19.65 -0.05385
19.7 -0.05271
19.75 -0.05117
19.8 -0.05048
19.85 -0.05113
19.9 -0.05242
19.95 -0.05258
20 -0.05158
20.05 -0.05048
20.1 -0.05008
20.15 -0.04867
20.2 -0.04683
20.25 -0.04563
20.3 -0.04386
20.35 -0.04234
20.4 -0.03973
20.45 -0.038
20.5 -0.03702
20.55 -0.03658
20.6 -0.03737
20.65 -0.03772
20.7 -0.03697
20.75 -0.03629
20.8 -0.03577
20.85 -0.03539
20.9 -0.03424
20.95 -0.03263
21 -0.03184
21.05 -0.03131
21.1 -0.0299
21.15 -0.02941
21.2 -0.03048
21.25 -0.03123
21.3 -0.03176
21.35 -0.03227
21.4 -0.03236
21.45 -0.03226
21.5 -0.0313
21.55 -0.03083
21.6 -0.03147
21.65 -0.03199
21.7 -0.03171
21.75 -0.03095
21.8 -0.03024
21.85 -0.02817
21.9 -0.02679
21.95 -0.02495
22 -0.02387
22.05 -0.02265
22.1 -0.02224
22.15 -0.02172
22.2 -0.02095
22.25 -0.02068
22.3 -0.02055
22.35 -0.02073
22.4 -0.02
22.45 -0.01894
22.5 -0.01758
22.55 -0.01618
22.6 -0.01586
22.65 -0.01693
22.7 -0.01829
22.75 -0.01907
22.8 -0.01902
22.85 -0.01973
22.9 -0.01995
22.95 -0.02034
23 -0.02107
23.05 -0.02153
23.1 -0.02226
23.15 -0.0222
23.2 -0.0212
23.25 -0.02054
23.3 -0.02038
23.35 -0.02023
23.4 -0.01941
23.45 -0.01922
23.5 -0.01944
23.55 -0.01861
23.6 -0.01772
23.65 -0.01757
23.7 -0.01765
23.75 -0.01785
23.8 -0.01826
23.85 -0.01766
23.9 -0.01728
23.95 -0.01642
24 -0.01522
24.05 -0.01492
24.1 -0.01513
24.15 -0.01519
24.2 -0.01568
24.25 -0.01479
24.3 -0.01443
24.35 -0.01375
24.4 -0.01352
24.45 -0.01353
24.5 -0.01317
24.55 -0.01186
24.6 -0.0116
24.65 -0.01077
24.7 -0.01029
24.75 -0.00987
24.8 -0.01024
24.85 -0.01002
24.9 -0.00982
24.95 -0.01049
25 -0.01108
25.05 -0.01099
25.1 -0.01111
25.15 -0.01115
25.2 -0.01093
25.25 -0.01022
25.3 -0.0089
25.35 -0.00727
25.4 -0.00721
25.45 -0.00749
25.5 -0.00802
25.55 -0.00809
25.6 -0.00816
25.65 -0.0084
25.7 -0.00785
25.75 -0.00771
25.8 -0.00622
25.85 -0.00591
25.9 -0.00591
25.95 -0.00574
26 -0.00662
26.05 -0.00699
26.1 -0.00705
26.15 -0.00664
26.2 -0.00616
26.25 -0.00573
26.3 -0.00602
26.35 -0.00604
26.4 -0.00612
26.45 -0.00594
26.5 -0.0058
26.55 -0.00594
26.6 -0.00522
26.65 -0.00556
26.7 -0.00617
26.75 -0.00735
26.8 -0.00863
26.85 -0.01014
26.9 -0.01078
26.95 -0.0112
27 -0.01092
27.05 -0.00915
27.1 -0.00723
27.15 -0.00547
27.2 -0.00363
27.25 -0.00307
27.3 -0.0026
27.35 -0.00215
27.4 -0.00174
27.45 -0.00114
27.5 -0.00151
27.55 -0.00156
27.6 -0.00249
27.65 -0.00473
27.7 -0.00802
27.75 -0.00972
27.8 -0.01135
27.85 -0.01247
27.9 -0.01326
27.95 -0.01439
28 -0.01689
28.05 -0.01932
28.1 -0.02076
28.15 -0.02242
28.2 -0.02444
28.25 -0.02778
28.3 -0.03111
28.35 -0.03418
28.4 -0.03741
28.45 -0.04114
28.5 -0.04686
28.55 -0.05339
28.6 -0.06135
28.65 -0.07067
28.7 -0.08187
28.75 -0.09556
28.8 -0.11062
28.85 -0.12675
28.9 -0.14437
28.95 -0.16274
29 -0.18154
29.05 -0.20175
29.1 -0.22331
29.15 -0.24653
29.2 -0.27156
29.25 -0.29764
29.3 -0.32482
29.35 -0.35341
29.4 -0.38095
29.45 -0.40856
29.5 -0.43637
29.55 -0.46456
29.6 -0.49075
29.65 -0.51546
29.7 -0.53896
29.75 -0.56067
29.8 -0.57884
29.85 -0.59378
29.9 -0.60629
29.95 -0.61506
30 -0.62019
30.05 -0.62019
30.1 -0.61653
30.15 -0.60853
30.2 -0.59636
30.25 -0.57846
30.3 -0.55693
30.35 -0.53099
30.4 -0.50142
30.45 -0.46809
30.5 -0.43044
30.55 -0.39001
30.6 -0.3468
30.65 -0.30205
30.7 -0.25756
30.75 -0.21208
30.8 -0.1656
30.85 -0.11897
30.9 -0.07355
30.95 -0.02949
31 0.01383
31.05 0.05733
31.1 0.09894
31.15 0.13689
31.2 0.17244
31.25 0.20548
31.3 0.23704
31.35 0.26512
31.4 0.29031
31.45 0.31197
31.5 0.33105
31.55 0.34807
31.6 0.36257
31.65 0.37587
31.7 0.38824
31.75 0.39939
31.8 0.4091
31.85 0.41813
31.9 0.42589
31.95 0.43268
32 0.43895
32.05 0.44377
32.1 0.44784
32.15 0.45163
32.2 0.45588
32.25 0.45866
32.3 0.46088
32.35 0.46107
32.4 0.46017
32.45 0.45943
32.5 0.45948
32.55 0.45972
32.6 0.45973
32.65 0.45968
32.7 0.45869
32.75 0.45794
32.8 0.45697
32.85 0.45452
32.9 0.45164
32.95 0.44646
33 0.4399
33.05 0.43259
33.1 0.42501
33.15 0.41683
33.2 0.40781
33.25 0.39816
33.3 0.38807
33.35 0.37793
33.4 0.36659
33.45 0.35498
33.5 0.34356
33.55 0.33227
33.6 0.32071
33.65 0.30977
33.7 0.29905
33.75 0.28865
33.8 0.27813
33.85 0.26742
33.9 0.25635
33.95 0.24576
34 0.2341
34.05 0.22185
34.1 0.20996
34.15 0.1988
34.2 0.18744
34.25 0.1772
34.3 0.16843
34.35 0.15926
34.4 0.15039
34.45 0.14148
34.5 0.13235
34.55 0.12312
34.6 0.11441
34.65 0.10704
34.7 0.09928
34.75 0.09173
34.8 0.08374
34.85 0.07599
34.9 0.06903
34.95 0.06276
35 0.05661
35.05 0.04995
35.1 0.04368
35.15 0.03746
35.2 0.03157
35.25 0.02609
35.3 0.0211
35.35 0.01751
35.4 0.01327
35.45 0.00863
35.5 0.00432
35.55 -0.00045
35.6 -0.00564
35.65 -0.01103
35.7 -0.01554
35.75 -0.01876
35.8 -0.02204
35.85 -0.02521
35.9 -0.02856
35.95 -0.03271
36 -0.03698
36.05 -0.04115
36.1 -0.0442
36.15 -0.04849
36.2 -0.05152
36.25 -0.0544
36.3 -0.0571
36.35 -0.05876
36.4 -0.06037
36.45 -0.06098
36.5 -0.06188
36.55 -0.06263
36.6 -0.06371
36.65 -0.06462
36.7 -0.06568
36.75 -0.06551
36.8 -0.06584
36.85 -0.06679
36.9 -0.06802
36.95 -0.06898
37 -0.07059
37.05 -0.07163
37.1 -0.07286
37.15 -0.07274
37.2 -0.07301
37.25 -0.07384
37.3 -0.07436
37.35 -0.07524
37.4 -0.07506
37.45 -0.07499
37.5 -0.07499
37.55 -0.07571
37.6 -0.07577
37.65 -0.07596
37.7 -0.07612
37.75 -0.07637
37.8 -0.07754
37.85 -0.07817
37.9 -0.07718
37.95 -0.07605
38 -0.07412
38.05 -0.0716
38.1 -0.06889
38.15 -0.06703
38.2 -0.06548
38.25 -0.06443
38.3 -0.06434
38.35 -0.06473
38.4 -0.06548
38.45 -0.06616
38.5 -0.06565
38.55 -0.06451
38.6 -0.06338
38.65 -0.06237
38.7 -0.06162
38.75 -0.06107
38.8 -0.06078
38.85 -0.05962
38.9 -0.05791
38.95 -0.05705
39 -0.05593
39.05 -0.05478
39.1 -0.05422
39.15 -0.05156
39.2 -0.04938
39.25 -0.04763
39.3 -0.04509
39.35 -0.04449
39.4 -0.04395
39.45 -0.04342
39.5 -0.04382
39.55 -0.04351
39.6 -0.04364
39.65 -0.04289
39.7 -0.04242
39.75 -0.04168
39.8 -0.04222
39.85 -0.04288
39.9 -0.04331
39.95 -0.04301
40 -0.04214
40.05 -0.04105
40.1 -0.03983
40.15 -0.03814
40.2 -0.03727
40.25 -0.03585
40.3 -0.03481
40.35 -0.03412
40.4 -0.03385
40.45 -0.03356
40.5 -0.03433
40.55 -0.03449
40.6 -0.03431
40.65 -0.03479
40.7 -0.03513
40.75 -0.03535
40.8 -0.03581
40.85 -0.03552
40.9 -0.0353
40.95 -0.03491
41 -0.03396
41.05 -0.03298
41.1 -0.03105
41.15 -0.02988
41.2 -0.02966
41.25 -0.03016
41.3 -0.03108
41.35 -0.03116
41.4 -0.0301
41.45 -0.02913
41.5 -0.02695
41.55 -0.02501
41.6 -0.02371
41.65 -0.02299
41.7 -0.02205
41.75 -0.02138
41.8 -0.02146
41.85 -0.0218
41.9 -0.02217
41.95 -0.02289
42 -0.02333
42.05 -0.02295
42.1 -0.02219
42.15 -0.02089
42.2 -0.01944
42.25 -0.01846
42.3 -0.01757
42.35 -0.01696
42.4 -0.01694
42.45 -0.01752
42.5 -0.01723
42.55 -0.01704
42.6 -0.01722
42.65 -0.01693
42.7 -0.01573
42.75 -0.01606
42.8 -0.01667
42.85 -0.01733
42.9 -0.01699
42.95 -0.01743
43 -0.01864
43.05 -0.01884
43.1 -0.01747
43.15 -0.01583
43.2 -0.01441
43.25 -0.01376
43.3 -0.01367
43.35 -0.01423
43.4 -0.01358
43.45 -0.01299
43.5 -0.01348
43.55 -0.01259
43.6 -0.01159
43.65 -0.01152
43.7 -0.01219
43.75 -0.01192
43.8 -0.01154
43.85 -0.01211
43.9 -0.01235
43.95 -0.01291
44 -0.01244
44.05 -0.0113
44.1 -0.00972
44.15 -0.00828
44.2 -0.00713
44.25 -0.00764
44.3 -0.00851
44.35 -0.00834
44.4 -0.00823
44.45 -0.00788
44.5 -0.00726
44.55 -0.00587
44.6 -0.00564
44.65 -0.00609
44.7 -0.00639
44.75 -0.00664
44.8 -0.0064
44.85 -0.0066
44.9 -0.00682
44.95 -0.00756
45 -0.00793
45.05 -0.00764
45.1 -0.00733
45.15 -0.00791
45.2 -0.00725
45.25 -0.00667
45.3 -0.00611
45.35 -0.00544
45.4 -0.00541
45.45 -0.00608
45.5 -0.00766
45.55 -0.00957
45.6 -0.00986
45.65 -0.01096
45.7 -0.01079
45.75 -0.01057
45.8 -0.00991
45.85 -0.0089
45.9 -0.00756
45.95 -0.00665
46 -0.00606
46.05 -0.00546
46.1 -0.00603
46.15 -0.0066
46.2 -0.0067
46.25 -0.00656
46.3 -0.0064
46.35 -0.00595
46.4 -0.0062
46.45 -0.00557
46.5 -0.00554
46.55 -0.00545
46.6 -0.00544
46.65 -0.00603
46.7 -0.00597
46.75 -0.00559
46.8 -0.00627
46.85 -0.00716
46.9 -0.00734
46.95 -0.0066
47 -0.0053
47.05 -0.00471
47.1 -0.00384
47.15 -0.00312
47.2 -0.00303
47.25 -0.00337
47.3 -0.00346
47.35 -0.00337
47.4 -0.00367
47.45 -0.00398
47.5 -0.00286
47.55 -0.00162
47.6 -0.00043
47.65 0
47.7 0.00019
47.75 1e-04
47.8 9e-05
47.85 -0.00023
47.9 -0.00095
47.95 -0.00119
48 -0.00116
48.05 -0.0015
48.1 -0.00117
48.15 -0.00094
48.2 -0.00013
48.25 -3e-04
48.3 -0.00056
48.35 -0.00175
48.4 -0.00235
48.45 -0.00242
48.5 -0.00265
48.55 -0.00249
48.6 -0.00218
48.65 -0.00233
48.7 -0.00331
48.75 -0.00347
48.8 -0.00344
48.85 -0.00215
48.9 -0.00046
48.95 0.00069
49 3e-04
49.05 -0.00061
49.1 -0.00148
49.15 -0.0028
49.2 -0.00466
49.25 -0.00576
49.3 -0.00578
49.35 -0.00568
49.4 -0.00545
49.45 -0.00624
49.5 -0.00736
49.55 -0.00744
49.6 -0.0066
49.65 -0.00564
49.7 -0.0054
49.75 -0.00505
49.8 -0.00487
49.85 -0.00588
49.9 -0.00547
49.95 -0.00396
50 -0.00316
50.05 -0.00273
50.1 -0.00297
50.15 -0.00203
50.2 -0.00157
50.25 -0.00067
50.3 -0.00019
50.35 0.00053
50.4 0.00049
50.45 -8e-04
50.5 -0.00155
50.55 -0.00146
50.6 -0.00158
50.65 -0.00206
50.7 -0.00188
50.75 -0.00207
50.8 -0.00309
50.85 -0.00327
50.9 -0.00368
50.95 -0.00499
51 -0.00564
51.05 -0.00526
51.1 -0.0046
51.15 -0.00421
51.2 -0.0041
51.25 -0.00375
51.3 -0.00346
51.35 -0.00407
51.4 -0.00432
51.45 -0.00532
51.5 -0.00503
51.55 -0.00474
51.6 -0.00326
51.65 -0.00197
51.7 -0.00121
51.75 8e-05
51.8 5e-04
51.85 0.00077
51.9 0.00011
51.95 -0.00113
52 -0.00137
52.05 -0.00155
52.1 -0.00237
52.15 -0.00291
52.2 -0.00306
52.25 -0.0028
52.3 -0.00325
52.35 -0.00326
52.4 -0.00308
52.45 -0.00257
52.5 -0.00277
52.55 -0.00232
52.6 -0.00207
52.65 -0.00157
52.7 -0.00151
52.75 -0.00119
52.8 -0.00036
52.85 -0.00025
52.9 0.00043
52.95 0.00018
53 -1e-05
53.05 0.00019
53.1 0
53.15 -0.00055
53.2 -0.00171
53.25 -0.00188
53.3 -0.00195
53.35 -0.00171
53.4 -0.00091
53.45 2e-04
53.5 0.00133
53.55 0.0022
53.6 0.0023
53.65 0.00194
53.7 0.00108
53.75 -2e-05
53.8 -2e-05
53.85 0.00091
53.9 0.00209
53.95 0.00332
54 0.00347
54.05 0.00304
54.1 0.00272
54.15 0.00198
54.2 0.00181
54.25 0.0021
54.3 0.00237
54.35 0.00182
54.4 0.0018
54.45 0.00164
54.5 0.00123
54.55 0.00102
54.6 -0.00017
54.65 -0.00048
54.7 -0.00107
54.75 -0.00169
54.8 -0.00261
54.85 -0.00346
54.9 -0.00401
54.95 -0.00386
55 -0.00319
55.05 -0.00175
55.1 -0.00093
55.15 -0.00069
55.2 -0.00033
55.25 -0.00079
55.3 -0.00161
55.35 -0.00154
55.4 -0.00257
55.45 -0.00245
55.5 -0.00213
55.55 -0.00266
55.6 -0.00173
55.65 -0.00062
55.7 0.00071
55.75 0.00136
55.8 0.00172
55.85 0.00213
55.9 0.00337
55.95 0.0034
56 0.00316
56.05 0.00237
56.1 0.00178
56.15 0.00084
56.2 -0.00029
56.25 -0.00094
56.3 -0.00161
56.35 -0.00246
56.4 -0.00212
56.45 -0.00233
56.5 -0.00334
56.55 -0.00284
56.6 -0.00284
56.65 -0.00263
56.7 -0.00316
56.75 -0.003
56.8 -0.0021
56.85 -0.00265
56.9 -0.00312
56.95 -0.00306
57 -0.00242
57.05 -0.00232
57.1 -0.00122
57.15 -0.00128
57.2 -0.00155
57.25 -0.00132
57.3 -0.00138
57.35 -0.00172
57.4 -0.00173
57.45 -0.00213
57.5 -0.00191
57.55 -0.00205
57.6 -0.00232
57.65 -0.00335
57.7 -0.00425
57.75 -0.00403
57.8 -0.00255
57.85 -0.00026
57.9 0.00154
57.95 0.00165
58 0.00018
58.05 -0.00103
58.1 -0.00091
58.15 -5e-04
58.2 -0.00054
58.25 -0.00128
58.3 -0.00219
58.35 -0.00186
58.4 -0.0014
58.45 -0.00207
58.5 -0.00279
58.55 -0.00348
58.6 -0.00482
58.65 -0.00532
58.7 -0.00562
58.75 -0.00499
58.8 -0.00328
58.85 -0.00182
58.9 -0.00178
58.95 -0.00221
59 -0.00126
59.05 -1e-05
59.1 0.00044
59.15 0.00042
59.2 0.00024
59.25 -0.00021
59.3 -0.00012
59.35 0.00068
59.4 0.00131
59.45 0.00146
59.5 0.0023
59.55 0.00259
59.6 0.002
59.65 0.00208
59.7 0.00139
59.75 0.00046
59.8 -0.00094
59.85 -0.00201
59.9 -0.00343
59.95 -0.00379
60 -0.00365
60.05 -0.00441
60.1 -0.00451
60.15 -0.00461
60.2 -0.00325
60.25 -0.00297
60.3 -0.00267
60.35 -0.00192
60.4 -0.00112
60.45 -0.00017
60.5 -4e-04
60.55 -0.00095
60.6 -0.00188
60.65 -0.00293
60.7 -0.00281
60.75 -0.00185
60.8 -0.00129
60.85 -0.00076
60.9 -0.00095
60.95 -0.00142
61 -0.0019
61.05 -0.00225
61.1 -0.00223
61.15 -0.00239
61.2 -0.00232
61.25 -0.00136
61.3 -0.00198
61.35 -0.00218
61.4 -0.00265
61.45 -0.00363
61.5 -0.00257
61.55 -0.00187
61.6 -0.00046
61.65 -0.00044
61.7 -0.00067
61.75 -0.00097
61.8 -0.00031
61.85 -0.00019
61.9 0.00076
61.95 0.00168
62 0.00151
62.05 0.001
62.1 0.00024
62.15 9e-05
62.2 -0.00021
62.25 -0.00043
62.3 -0.00082
62.35 -0.00141
62.4 -0.00181
62.45 -0.00186
62.5 -0.00239
62.55 -0.0014
62.6 -3e-05
62.65 -1e-04
62.7 -0.00031
62.75 -9e-05
62.8 -0.00098
62.85 -0.00216
62.9 -0.00199
62.95 -0.00253
63 -0.00296
63.05 -0.0034
63.1 -0.00329
63.15 -0.00256
63.2 -0.0022
63.25 -0.00234
63.3 -0.0017
63.35 -0.00101
63.4 -0.00103
63.45 -0.00068
63.5 -0.00126
63.55 -0.00242
63.6 -0.00247
63.65 -0.00262
63.7 -0.00321
63.75 -0.00332
63.8 -0.00174
63.85 -0.00012
63.9 6e-05
63.95 0.00113
64 0.0011
64.05 0.00239
64.1 0.00295
64.15 0.00284
64.2 0.00275
64.25 0.00325
64.3 0.00355
64.35 0.00282
64.4 0.00208
64.45 0.00067
64.5 -0.00094
64.55 -0.00274
64.6 -0.00271
64.65 -0.00257
64.7 -0.00243
64.75 -0.0023
64.8 -0.00137
64.85 -0.00059
64.9 3e-04
64.95 0.001
65 0.00091
65.05 -0.00023
65.1 -0.00068
65.15 -0.00012
65.2 0.00042
65.25 0.00153
65.3 0.002
65.35 0.0019
65.4 0.00083
65.45 0.00052
65.5 0.00154
65.55 0.00188
65.6 0.00114
65.65 0.00083
65.7 0.00112
65.75 0.00222
65.8 0.002
65.85 0.00181
65.9 0.00148
65.95 9e-04
66 -0.00019
66.05 -0.002
66.1 -0.00328
66.15 -0.00368
66.2 -0.00404
66.25 -0.00527
66.3 -0.00495
66.35 -0.00408
66.4 -0.00352
66.45 -0.00382
66.5 -0.00289
66.55 -0.00174
66.6 -0.00056
66.65 0.00097
66.7 0.00184
66.75 0.00213
66.8 0.00213
66.85 0.00211
66.9 0.00136
66.95 0.00102
67 0.00071
67.05 0.00112
67.1 0.00178
67.15 0.00168
67.2 0.00239
67.25 0.00279
67.3 0.0022
67.35 0.0027
67.4 0.00231
67.45 0.00272
67.5 0.00308
67.55 0.003
67.6 0.00328
67.65 0.00263
67.7 0.00182
67.75 0.00082
67.8 -7e-05
67.85 -0.00076
67.9 -5e-04
67.95 -0.00028
68 -0.00015
68.05 0.00038
68.1 8e-04
68.15 0.00129
68.2 0.00133
68.25 9e-04
68.3 0.00085
68.35 0.00088
68.4 -0.00026
68.45 -0.0012
68.5 -0.00114
68.55 6e-05
68.6 0.00137
68.65 0.00127
68.7 0.00036
68.75 0.00029
68.8 7e-05
68.85 -0.00037
68.9 -0.00085
68.95 -0.00112
69 -0.00187
69.05 -0.0027
69.1 -0.00298
69.15 -0.00262
69.2 -0.00261
69.25 -0.00262
69.3 -0.00248
69.35 -0.00185
69.4 -0.00256
69.45 -0.00324
69.5 -0.00321
69.55 -0.00151
69.6 7e-05
69.65 -0.00016
69.7 -0.00094
69.75 -0.00088
69.8 -0.00146
69.85 -0.00177
69.9 -0.0026
69.95 -0.00298
70 -0.00244
70.05 -0.00306
70.1 -0.00362
70.15 -0.0024
70.2 -0.00275
70.25 -0.00324
70.3 -0.0025
70.35 -0.00261
70.4 -0.00108
70.45 0.00093
70.5 0.00232
70.55 0.00353
70.6 0.00357
70.65 0.00339
70.7 0.00244
70.75 0.00113
70.8 0.00144
70.85 8e-04
70.9 2e-05
70.95 -0.00016
71 -0.00105
71.05 -0.00107
71.1 -0.00131
71.15 -0.00057
71.2 0.00052
71.25 0.00182
71.3 0.00231
71.35 0.00258
71.4 0.00261
71.45 0.00286
71.5 0.00233
71.55 0.00207
71.6 0.00084
71.65 0.00076
71.7 0.00063
71.75 -0.00046
71.8 -0.00152
71.85 -0.00295
71.9 -0.00319
71.95 -0.00352
72 -0.0031
72.05 -0.00262
72.1 -0.00222
72.15 -0.0016
72.2 -0.00155
72.25 -0.00083
72.3 -6e-05
72.35 0.00049
72.4 0.00027
72.45 0.00116
72.5 0.00268
72.55 0.00408
72.6 0.00387
72.65 0.00434
72.7 0.00377
72.75 0.00308
72.8 0.00235
72.85 0.00157
72.9 0.00055
72.95 -6e-04
73 -0.00078
73.05 -0.00083
73.1 -0.00059
73.15 -0.00068
73.2 -0.00131
73.25 -0.00152
73.3 -0.00163
73.35 -0.00227
73.4 -0.00258
73.45 -0.00359
73.5 -0.00415
73.55 -0.00432
73.6 -0.00389
73.65 -0.00309
73.7 -0.00291
73.75 -0.00302
73.8 -0.00324
73.85 -0.00397
73.9 -0.00432
73.95 -0.00449
74 -0.00474
74.05 -0.0048
74.1 -0.00467
74.15 -0.00498
74.2 -0.005
74.25 -0.00405
74.3 -0.00373
74.35 -0.003
74.4 -0.00225
74.45 -0.00163
74.5 -0.00067
74.55 -0.00092
74.6 -0.00134
74.65 -0.00142
74.7 -0.00255
74.75 -0.00293
74.8 -0.00296
74.85 -0.00277
74.9 -0.00401
74.95 -0.0047
75 -0.00466
75.05 -0.00365
75.1 -0.00358
75.15 -0.00399
75.2 -0.00404
75.25 -0.00376
75.3 -0.00298
75.35 -0.00285
75.4 -0.00341
75.45 -0.00298
75.5 -0.00267
75.55 -0.00284
75.6 -0.00295
75.65 -0.00331
75.7 -0.00306
75.75 -0.0027
75.8 -0.00114
75.85 -0.00028
75.9 0.00038
75.95 0.00078
76 0.00119
76.05 0.00113
76.1 0.00164
76.15 0.00182
76.2 0.00203
76.25 0.00119
76.3 0
76.35 -0.0011
76.4 -0.00152
76.45 -0.00053
76.5 -4e-05
76.55 -0.00012
76.6 0.00047
76.65 0.00122
76.7 0
76.75 -0.00069
76.8 -0.00146
76.85 -0.00153
76.9 -0.00189
76.95 -0.00195
77 -0.00287
77.05 -0.00314
77.1 -0.00345
77.15 -0.00417
77.2 -0.00339
77.25 -0.00161
77.3 -0.00014
77.35 0.00158
77.4 0.00344
77.45 0.00494
77.5 0.00429
77.55 0.00405
77.6 0.00303
77.65 0.00179
77.7 0.00105
77.75 0.00053
77.8 9e-05
77.85 -8e-05
77.9 -0.00033
77.95 0.00011
78 0.00093
78.05 0.00128
78.1 0.00118
78.15 0.00249
78.2 0.00209
78.25 0.00235
78.3 0.00195
78.35 0.00164
78.4 0.00138
78.45 0.00104
78.5 0.00102
78.55 0.00063
78.6 0.00026
78.65 -0.00017
78.7 -0.00115
78.75 -0.00109
78.8 -0.00077
78.85 0.00054
78.9 0.00121
78.95 0.0023
79 0.00335
79.05 0.00431
79.1 0.00438
79.15 0.00434
79.2 0.00434
79.25 0.00415
79.3 0.00496
79.35 0.00486
79.4 0.00325
79.45 0.00183
79.5 3e-05
79.55 -0.00168
79.6 -0.00218
79.65 -0.00272
79.7 -0.00324
79.75 -0.00333
79.8 -0.00389
79.85 -0.00406
79.9 -0.00447
79.95 -0.00434
80 -0.00447
80.05 -0.00346
80.1 -0.00305
80.15 -0.00198
80.2 -0.00105
80.25 -0.00145
80.3 -0.0023
80.35 -0.00372
80.4 -0.00319
80.45 -0.0012
80.5 0.00048
80.55 0.00203
80.6 0.00316
80.65 0.00297
80.7 0.00251
80.75 0.00213
80.8 0.00181
80.85 0.00171
80.9 0.00229
80.95 0.00156
81 0.00057
81.05 -0.00098
81.1 -0.00221
81.15 -0.0026
81.2 -0.00331
81.25 -0.00334
81.3 -0.00358
81.35 -0.00348
81.4 -0.00224
81.45 -0.00135
81.5 -0.00025
81.55 0.00036
81.6 0.00022
81.65 0.00017
81.7 0.00021
81.75 -0.00059
81.8 -0.00117
81.85 -0.00153
81.9 -0.00152
81.95 -0.00147
82 -0.00133
82.05 -0.00056
82.1 1e-05
82.15 0.00146
82.2 0.00335
82.25 0.00464
82.3 0.00537
82.35 0.00503
82.4 0.00514
82.45 0.00516
82.5 0.00483
82.55 0.00431
82.6 0.00344
82.65 0.0024
82.7 0.00203
82.75 0.00128
82.8 -0.00014
82.85 -0.00032
82.9 -0.00165
82.95 -0.00289
83 -0.00339
83.05 -0.00285
83.1 -0.00276
83.15 -0.00315
83.2 -0.0042
83.25 -0.00447
83.3 -0.00552
83.35 -0.00511
83.4 -0.00367
83.45 -0.00194
83.5 -0.00061
83.55 -7e-05
83.6 0.00043
83.65 -0.00013
83.7 -0.00104
83.75 -0.00138
83.8 -0.00104
83.85 -0.00033
83.9 -0.00026
83.95 -0.00067
84 -0.00202
84.05 -0.00315
84.1 -0.00273
84.15 -0.00162
84.2 -0.00081
84.25 0.00017
84.3 0.00084
84.35 0.00095
84.4 0.00148
84.45 0.00189
84.5 0.00146
84.55 0.00055
84.6 -0.00047
84.65 -0.00139
84.7 -0.00038
84.75 0.00015
84.8 0.00096
84.85 0.00178
84.9 0.00197
84.95 0.00207
85 0.00224
85.05 0.00136
85.1 0.00124
85.15 0.00117
85.2 0.00105
85.25 0.00069
85.3 0.0015
85.35 0.00216
85.4 0.00314
85.45 0.0037
85.5 0.00286
85.55 0.00188
85.6 0.00242
85.65 0.00266
85.7 0.00244
85.75 0.00292
85.8 0.00196
85.85 0.00127
85.9 0.00084
85.95 0.0013
86 0.00058
86.05 3e-05
86.1 -7e-04
86.15 -0.00188
86.2 -0.00271
86.25 -0.00354
86.3 -0.00422
86.35 -0.00448
86.4 -0.0038
86.45 -0.00312
86.5 -0.00221
86.55 -0.00104
86.6 -0.00038
86.65 0.00107
86.7 0.00322
86.75 0.00438
86.8 0.00489
86.85 0.005
86.9 0.00383
86.95 0.00263
87 0.00263
87.05 0.00207
87.1 0.00082
87.15 -0.00035
87.2 -0.00146
87.25 -0.00192
87.3 -0.00222
87.35 -0.00266
87.4 -0.00251
87.45 -0.00284
87.5 -0.00305
87.55 -0.00314
87.6 -0.00259
87.65 -0.00198
87.7 -0.00173
87.75 -0.0027
87.8 -0.00429
87.85 -0.0059
87.9 -0.00681
87.95 -0.00604
88 -0.00446
88.05 -0.00346
88.1 -0.0025
88.15 -0.00079
88.2 -0.00023
88.25 -0.00114
88.3 -0.00108
88.35 -0.00129
88.4 -0.00019
88.45 -0.00044
88.5 3e-04
88.55 0.0018
88.6 0.00142
88.65 0.00169
88.7 0.00231
88.75 0.00286
88.8 0.0024
88.85 0.0027
88.9 0.00336
88.95 0.00249
89 0.00174
89.05 0.00239
89.1 0.00263
89.15 0.00247
89.2 0.00238
89.25 0.00179
89.3 0.00151
89.35 0.00131
89.4 0.00224
89.45 0.00292
89.5 0.00299
89.55 0.00269
89.6 0.00172
89.65 0.00093
89.7 0.00044
89.75 0.00039
89.8 0.00011
89.85 -0.00114
89.9 -0.00134
89.95 -0.00017
90 9e-04
90.05 0.0017
90.1 0.00141
90.15 0.00184
90.2 0.00263
90.25 0.00319
90.3 0.00283
90.35 0.00181
90.4 0.00096
90.45 0.00021
90.5 -0.00046
90.55 -0.00057
90.6 -0.00079
90.65 -0.00159
90.7 -0.00243
90.75 -0.00283
90.8 -0.00314
90.85 -0.0021
90.9 -0.00038
90.95 0.00105
91 0.00166
91.05 0.00283
91.1 0.00272
91.15 0.00307
91.2 0.00309
91.25 0.00275
91.3 0.00253
91.35 0.00259
91.4 0.00306
91.45 0.00317
91.5 0.0016
91.55 0.00115
91.6 0.0011
91.65 0.00111
91.7 0.00126
91.75 0.0021
91.8 0.00276
91.85 0.00284
91.9 0.00232
91.95 0.0017
92 0.00089
92.05 -0.00024
92.1 -0.00194
92.15 -0.00308
92.2 -0.00311
92.25 -0.00299
92.3 -0.00339
92.35 -0.00313
92.4 -0.00255
92.45 -0.00141
92.5 -0.00024
92.55 0.00071
92.6 0.00068
92.65 -0.00022
92.7 -0.00127
92.75 -0.00232
92.8 -0.00261
92.85 -0.00269
92.9 -0.00188
92.95 -0.00129
93 -0.00056
93.05 -9e-04
93.1 -0.00152
93.15 -0.00145
93.2 -0.00178
93.25 -0.00237
93.3 -0.00222
93.35 -0.00214
93.4 -0.00143
93.45 -0.00135
93.5 -0.00147
93.55 -0.00206
93.6 -0.00258
93.65 -0.00344
93.7 -0.0035
93.75 -0.00321
93.8 -0.00216
93.85 -0.00084
93.9 -0.00048
93.95 0.00082
94 0.00156
94.05 0.00181
94.1 0.00098
94.15 0.00034
94.2 -0.00059
94.25 -0.00134
94.3 -0.00169
94.35 -0.00162
94.4 -0.00197
94.45 -0.00303
94.5 -0.00381
94.55 -0.00267
94.6 -0.00252
94.65 -0.00206
94.7 -0.00194
94.75 -0.00257
94.8 -0.00213
94.85 -0.00241
94.9 -0.0029
94.95 -0.00185
95 -0.00087
95.05 -5e-04
95.1 -0.00018
95.15 -0.00026
95.2 -0.00034
95.25 -0.00032
95.3 -0.00048
95.35 -0.00015
95.4 -0.00042
95.45 -0.00179
95.5 -0.00183
95.55 -0.00215
95.6 -0.00299
95.65 -0.00311
95.7 -0.00297
95.75 -0.00251
95.8 -0.00203
95.85 -0.0017
95.9 -0.00193
95.95 -0.00183
96 -0.00141
96.05 -8e-05
96.1 0.00051
96.15 0.00122
96.2 0.00073
96.25 2e-04
96.3 -9e-04
96.35 -0.00171
96.4 -0.00096
96.45 -0.00079
96.5 -0.00138
96.55 -0.00284
96.6 -0.00416
96.65 -0.00469
96.7 -0.00387
96.75 -0.00312
96.8 -0.00241
96.85 -0.00262
96.9 -0.00246
96.95 -0.00186
97 -0.00139
97.05 -0.00098
97.1 -0.00162
97.15 -0.00149
97.2 -0.00136
97.25 -0.00154
97.3 -0.00144
97.35 -0.00101
97.4 0.00011
97.45 0.00082
97.5 0.00141
97.55 0.00215
97.6 0.00254
97.65 0.00261
97.7 0.00301
97.75 0.00348
97.8 0.00257
97.85 0.00225
97.9 0.00237
97.95 0.00267
98 0.00306
98.05 0.00217
98.1 0.00037
98.15 -0.00143
98.2 -0.00347
98.25 -0.00605
98.3 -0.00756
98.35 -0.00803
98.4 -0.00742
98.45 -0.0057
98.5 -0.0046
98.55 -0.0053
98.6 -0.00468
98.65 -0.00358
98.7 -0.00286
98.75 -0.00241
98.8 -0.00118
98.85 -1e-04
98.9 0.00104
98.95 0.00256
99 0.00225
99.05 0.00202
99.1 0.00139
99.15 0.0014
99.2 4e-05
99.25 0.00017
99.3 -0.00015
99.35 -0.00061
99.4 -0.00115
99.45 -0.00166
99.5 -0.00159
99.55 -0.00179
99.6 -0.0019
99.65 -0.00109
99.7 -0.00115
99.75 -0.00191
99.8 -0.00168
99.85 -0.00156
99.9 -7e-05
99.95 0.00055
