0 0
0.05 0.00539
0.1 0.01339
0.15 0.02236
0.2 0.02998
0.25 0.03657
0.3 0.04296
0.35 0.04803
0.4 0.05258
0.45 0.05503
0.5 0.05622
0.55 0.057
0.6 0.05675
0.65 0.05626
0.7 0.05469
0.75 0.05257
0.8 0.05165
0.85 0.0502
0.9 0.04764
0.95 0.04404
1 0.04091
1.05 0.03925
1.1 0.03746
1.15 0.03539
1.2 0.0342
1.25 0.03428
1.3 0.03474
1.35 0.0363
1.4 0.03654
1.45 0.03759
1.5 0.0369
1.55 0.03665
1.6 0.03599
1.65 0.03588
1.7 0.03635
1.75 0.03733
1.8 0.03704
1.85 0.03778
1.9 0.03711
1.95 0.03684
2 0.03633
2.05 0.03554
2.1 0.03508
2.15 0.03487
2.2 0.03328
2.25 0.03175
2.3 0.02999
2.35 0.0287
2.4 0.02832
2.45 0.02841
2.5 0.02877
2.55 0.0285
2.6 0.02881
2.65 0.02848
2.7 0.02665
2.75 0.02536
2.8 0.02401
2.85 0.02291
2.9 0.02193
2.95 0.02097
3 0.02052
3.05 0.02003
3.1 0.01886
3.15 0.01835
3.2 0.01764
3.25 0.01748
3.3 0.01851
3.35 0.01891
3.4 0.01913
3.45 0.02018
3.5 0.0209
3.55 0.0214
3.6 0.02058
3.65 0.02004
3.7 0.01924
3.75 0.01974
3.8 0.02083
3.85 0.02179
3.9 0.02133
3.95 0.02079
4 0.01987
4.05 0.01878
4.1 0.01663
4.15 0.01453
4.2 0.01273
4.25 0.0112
4.3 0.00901
4.35 0.00523
4.4 -0.00034
4.45 -0.00621
4.5 -0.01298
4.55 -0.02072
4.6 -0.02849
4.65 -0.03862
4.7 -0.05115
4.75 -0.06631
4.8 -0.08351
4.85 -0.10355
4.9 -0.1274
4.95 -0.15486
5 -0.18489
5.05 -0.21882
5.1 -0.25686
5.15 -0.29883
5.2 -0.34483
5.25 -0.39337
5.3 -0.44428
5.35 -0.49795
5.4 -0.55334
5.45 -0.60939
5.5 -0.66483
5.55 -0.71754
5.6 -0.76687
5.65 -0.81366
5.7 -0.85412
5.75 -0.88941
5.8 -0.91811
5.85 -0.94002
5.9 -0.95439
5.95 -0.96119
6 -0.95982
6.05 -0.94969
6.1 -0.93208
6.15 -0.90733
6.2 -0.87531
6.25 -0.83702
6.3 -0.7938
6.35 -0.74528
6.4 -0.694
6.45 -0.63959
6.5 -0.5824
6.55 -0.52369
6.6 -0.46423
6.65 -0.40372
6.7 -0.3425
6.75 -0.28135
6.8 -0.22059
6.85 -0.15903
6.9 -0.09683
6.95 -0.03381
7 0.0297
7.05 0.09399
7.1 0.15867
7.15 0.22276
7.2 0.28539
7.25 0.34576
7.3 0.40453
7.35 0.45953
7.4 0.51288
7.45 0.56334
7.5 0.61026
7.55 0.65279
7.6 0.69131
7.65 0.72596
7.7 0.75499
7.75 0.77837
7.8 0.79779
7.85 0.81299
7.9 0.82362
7.95 0.83067
8 0.83351
8.05 0.83363
8.1 0.83161
8.15 0.82638
8.2 0.81807
8.25 0.80568
8.3 0.79145
8.35 0.7759
8.4 0.76001
8.45 0.74103
8.5 0.72254
8.55 0.7022
8.6 0.6812
8.65 0.66024
8.7 0.63869
8.75 0.61619
8.8 0.59366
8.85 0.57177
8.9 0.55165
8.95 0.53079
9 0.51112
9.05 0.49082
9.1 0.46954
9.15 0.44887
9.2 0.42886
9.25 0.41003
9.3 0.39229
9.35 0.37524
9.4 0.3604
9.45 0.34565
9.5 0.33123
9.55 0.31827
9.6 0.30524
9.65 0.29285
9.7 0.28309
9.75 0.2738
9.8 0.2656
9.85 0.2576
9.9 0.24932
9.95 0.24103
10 0.23314
10.05 0.22461
10.1 0.21598
10.15 0.20801
10.2 0.19996
10.25 0.19152
10.3 0.18291
10.35 0.17466
10.4 0.16545
10.45 0.15646
10.5 0.14806
10.55 0.14072
10.6 0.13346
10.65 0.12633
10.7 0.11834
10.75 0.1093
10.8 0.10067
10.85 0.09145
10.9 0.08206
10.95 0.07178
11 0.06251
11.05 0.05324
11.1 0.04481
11.15 0.03665
11.2 0.02828
11.25 0.02163
11.3 0.01508
11.35 0.00796
11.4 0.00092
11.45 -0.00539
11.5 -0.0117
11.55 -0.01843
11.6 -0.0256
11.65 -0.03337
11.7 -0.04022
11.75 -0.0465
11.8 -0.05226
11.85 -0.05644
11.9 -0.06022
11.95 -0.06407
12 -0.06865
12.05 -0.07275
12.1 -0.07615
12.15 -0.08004
12.2 -0.08374
12.25 -0.08676
12.3 -0.08852
12.35 -0.09053
12.4 -0.09261
12.45 -0.09363
12.5 -0.09427
12.55 -0.09514
12.6 -0.0951
12.65 -0.0958
12.7 -0.09679
12.75 -0.09785
12.8 -0.09887
12.85 -0.09927
12.9 -0.09906
12.95 -0.09933
13 -0.0992
13.05 -0.09909
13.1 -0.09869
13.15 -0.09876
13.2 -0.09776
13.25 -0.09701
13.3 -0.09699
13.35 -0.09698
13.4 -0.09705
13.45 -0.09786
13.5 -0.0985
13.55 -0.09891
13.6 -0.09877
13.65 -0.09749
13.7 -0.09746
13.75 -0.09509
13.8 -0.09216
13.85 -0.08986
13.9 -0.08833
13.95 -0.08697
14 -0.08586
14.05 -0.08511
14.1 -0.08431
14.15 -0.08363
14.2 -0.08332
14.25 -0.08284
14.3 -0.0813
14.35 -0.08003
14.4 -0.07989
14.45 -0.07891
14.5 -0.07776
14.55 -0.07641
14.6 -0.07485
14.65 -0.07313
14.7 -0.07122
14.75 -0.07022
14.8 -0.0682
14.85 -0.06685
14.9 -0.0656
14.95 -0.06449
15 -0.06387
15.05 -0.06322
15.1 -0.0629
15.15 -0.06271
15.2 -0.06208
15.25 -0.06325
15.3 -0.0642
15.35 -0.06406
15.4 -0.06323
15.45 -0.06097
15.5 -0.05885
15.55 -0.05749
15.6 -0.0564
15.65 -0.05574
15.7 -0.05538
15.75 -0.05402
15.8 -0.05335
15.85 -0.05222
15.9 -0.0516
15.95 -0.05036
16 -0.0497
16.05 -0.04981
16.1 -0.04935
16.15 -0.04828
16.2 -0.04635
16.25 -0.0454
16.3 -0.04385
16.35 -0.04277
16.4 -0.04204
16.45 -0.04074
16.5 -0.04039
16.55 -0.03939
16.6 -0.03862
16.65 -0.03733
16.7 -0.03614
16.75 -0.0356
16.8 -0.03456
16.85 -0.03465
16.9 -0.03534
16.95 -0.03494
17 -0.03453
17.05 -0.03389
17.1 -0.03316
17.15 -0.03304
17.2 -0.03256
17.25 -0.03199
17.3 -0.03107
17.35 -0.03025
17.4 -0.02864
17.45 -0.02782
17.5 -0.02729
17.55 -0.02701
17.6 -0.02739
17.65 -0.0277
17.7 -0.02847
17.75 -0.0278
17.8 -0.02658
17.85 -0.02553
17.9 -0.0242
17.95 -0.02381
18 -0.0246
18.05 -0.02464
18.1 -0.02445
18.15 -0.02392
18.2 -0.02405
18.25 -0.02364
18.3 -0.02352
18.35 -0.02333
18.4 -0.02325
18.45 -0.02268
18.5 -0.0216
18.55 -0.02166
18.6 -0.02144
18.65 -0.02112
18.7 -0.02219
18.75 -0.02142
18.8 -0.02029
18.85 -0.01845
18.9 -0.01754
18.95 -0.01853
19 -0.02009
19.05 -0.02033
19.1 -0.01945
19.15 -0.01929
19.2 -0.02043
19.25 -0.01975
19.3 -0.01925
19.35 -0.01858
19.4 -0.01871
19.45 -0.01804
19.5 -0.01775
19.55 -0.0169
19.6 -0.01644
19.65 -0.01554
19.7 -0.01468
19.75 -0.01461
19.8 -0.01387
19.85 -0.01243
19.9 -0.01181
19.95 -0.0113
20 -0.01122
20.05 -0.0115
20.1 -0.01157
20.15 -0.01222
20.2 -0.01241
20.25 -0.01283
20.3 -0.01301
20.35 -0.01296
20.4 -0.01294
20.45 -0.01365
20.5 -0.01433
20.55 -0.01377
20.6 -0.01331
20.65 -0.0141
20.7 -0.01437
20.75 -0.0145
20.8 -0.01349
20.85 -0.01247
20.9 -0.01122
20.95 -0.00967
21 -0.00839
21.05 -0.00662
21.1 -0.00593
21.15 -0.00592
21.2 -0.0052
21.25 -0.00542
21.3 -0.0058
21.35 -0.00545
21.4 -0.00557
21.45 -0.00645
21.5 -0.00757
21.55 -0.00773
21.6 -0.00806
21.65 -0.00881
21.7 -0.00958
21.75 -0.01105
21.8 -0.01116
21.85 -0.01027
21.9 -0.01061
21.95 -0.01092
22 -0.01144
22.05 -0.01247
22.1 -0.01283
22.15 -0.0123
22.2 -0.01132
22.25 -0.01048
22.3 -0.01035
22.35 -0.00997
22.4 -0.00895
22.45 -0.00858
22.5 -0.00834
22.55 -0.0078
22.6 -0.00812
22.65 -0.0083
22.7 -0.0082
22.75 -0.0083
22.8 -0.00816
22.85 -0.00727
22.9 -0.00621
22.95 -0.0058
23 -0.00516
23.05 -0.00431
23.1 -0.00369
23.15 -0.00385
23.2 -0.0042
23.25 -0.00368
23.3 -0.00402
23.35 -0.00343
23.4 -0.00349
23.45 -0.003
23.5 -0.00304
23.55 -0.00253
23.6 -0.00222
23.65 -0.00211
23.7 -0.00315
23.75 -0.00432
23.8 -0.00539
23.85 -0.0058
23.9 -0.00566
23.95 -0.00546
24 -0.00463
24.05 -0.00357
24.1 -0.00273
24.15 -0.00248
24.2 -0.0023
24.25 -0.00164
24.3 -0.00102
24.35 -0.00031
24.4 0.00023
24.45 0.00111
24.5 0.00181
24.55 0.00181
24.6 0.00079
24.65 5e-05
24.7 -0.00089
24.75 -0.00254
24.8 -0.00287
24.85 -0.00309
24.9 -0.00304
24.95 -0.00407
25 -0.00542
25.05 -0.00566
25.1 -0.00651
25.15 -0.00619
25.2 -0.00564
25.25 -0.00409
25.3 -0.00219
25.35 -0.00021
25.4 0.00148
25.45 0.00217
25.5 0.00255
25.55 0.00368
25.6 0.00409
25.65 0.00322
25.7 0.00298
25.75 0.00213
25.8 0.00042
25.85 -0.00165
25.9 -0.00454
25.95 -0.00528
26 -0.00558
26.05 -0.00651
26.1 -0.00627
26.15 -0.00643
26.2 -0.0064
26.25 -0.00538
26.3 -0.00528
26.35 -0.0056
26.4 -0.00671
26.45 -0.00624
26.5 -0.00635
26.55 -0.005
26.6 -0.00411
26.65 -0.00379
26.7 -0.00352
26.75 -0.00355
26.8 -0.00418
26.85 -0.00544
26.9 -0.00647
26.95 -0.00797
27 -0.00863
27.05 -0.00883
27.1 -0.00873
27.15 -0.00887
27.2 -0.00869
27.25 -0.00756
27.3 -0.00763
27.35 -0.00823
27.4 -0.00895
27.45 -0.01015
27.5 -0.01153
27.55 -0.01419
27.6 -0.01783
27.65 -0.02161
27.7 -0.0259
27.75 -0.03057
27.8 -0.0373
27.85 -0.04526
27.9 -0.05496
27.95 -0.06507
28 -0.07721
28.05 -0.091
28.1 -0.10669
28.15 -0.12465
28.2 -0.14539
28.25 -0.16905
28.3 -0.1955
28.35 -0.22548
28.4 -0.25785
28.45 -0.29382
28.5 -0.33274
28.55 -0.37648
28.6 -0.42458
28.65 -0.47855
28.7 -0.53613
28.75 -0.59657
28.8 -0.66064
28.85 -0.72801
28.9 -0.79831
28.95 -0.87106
29 -0.94657
29.05 -1.02309
29.1 -1.10129
29.15 -1.18044
29.2 -1.25847
29.25 -1.33481
29.3 -1.40932
29.35 -1.48094
29.4 -1.54912
29.45 -1.61141
29.5 -1.66803
29.55 -1.71728
29.6 -1.75989
29.65 -1.7941
29.7 -1.81966
29.75 -1.83612
29.8 -1.84218
29.85 -1.8377
29.9 -1.82263
29.95 -1.79612
30 -1.75924
30.05 -1.71101
30.1 -1.6526
30.15 -1.58361
30.2 -1.50523
30.25 -1.41782
30.3 -1.32238
30.35 -1.21916
30.4 -1.11021
30.45 -0.99572
30.5 -0.87665
30.55 -0.75343
30.6 -0.62746
30.65 -0.4982
30.7 -0.36659
30.75 -0.23495
30.8 -0.10393
30.85 0.02495
30.9 0.15129
30.95 0.27362
31 0.39129
31.05 0.50311
31.1 0.60922
31.15 0.70971
31.2 0.805
31.25 0.89361
31.3 0.9754
31.35 1.05062
31.4 1.11965
31.45 1.18212
31.5 1.23842
31.55 1.28881
31.6 1.33279
31.65 1.37186
31.7 1.4055
31.75 1.43288
31.8 1.45554
31.85 1.4748
31.9 1.49166
31.95 1.50556
32 1.5152
32.05 1.52273
32.1 1.5284
32.15 1.53208
32.2 1.53324
32.25 1.53243
32.3 1.52878
32.35 1.52412
32.4 1.5181
32.45 1.51065
32.5 1.50204
32.55 1.49281
32.6 1.48167
32.65 1.46925
32.7 1.45412
32.75 1.43812
32.8 1.42108
32.85 1.40273
32.9 1.38399
32.95 1.36406
33 1.34355
33.05 1.32102
33.1 1.29755
33.15 1.27238
33.2 1.24554
33.25 1.21734
33.3 1.18807
33.35 1.15781
33.4 1.12659
33.45 1.0948
33.5 1.06177
33.55 1.02833
33.6 0.99368
33.65 0.95952
33.7 0.92457
33.75 0.88916
33.8 0.85286
33.85 0.81683
33.9 0.78107
33.95 0.7446
34 0.70897
34.05 0.67208
34.1 0.63635
34.15 0.60162
34.2 0.56715
34.25 0.53247
34.3 0.49958
34.35 0.46766
34.4 0.43591
34.45 0.40569
34.5 0.37584
34.55 0.34646
34.6 0.31802
34.65 0.28959
34.7 0.26082
34.75 0.23387
34.8 0.20866
34.85 0.18359
34.9 0.15959
34.95 0.13645
35 0.1133
35.05 0.09073
35.1 0.06879
35.15 0.04852
35.2 0.0291
35.25 0.00992
35.3 -0.00861
35.35 -0.02613
35.4 -0.04468
35.45 -0.06238
35.5 -0.07809
35.55 -0.09294
35.6 -0.10594
35.65 -0.11871
35.7 -0.12997
35.75 -0.1406
35.8 -0.15068
35.85 -0.16109
35.9 -0.17058
35.95 -0.18033
36 -0.18799
36.05 -0.19517
36.1 -0.20105
36.15 -0.20761
36.2 -0.21445
36.25 -0.21957
36.3 -0.22463
36.35 -0.22919
36.4 -0.23389
36.45 -0.2374
36.5 -0.24097
36.55 -0.24398
36.6 -0.24661
36.65 -0.24974
36.7 -0.25328
36.75 -0.25542
36.8 -0.25706
36.85 -0.25808
36.9 -0.25789
36.95 -0.25706
37 -0.25562
37.05 -0.25477
37.1 -0.25464
37.15 -0.25421
37.2 -0.25431
37.25 -0.25401
37.3 -0.25293
37.35 -0.25171
37.4 -0.25126
37.45 -0.25052
37.5 -0.24915
37.55 -0.24681
37.6 -0.24413
37.65 -0.24129
37.7 -0.23913
37.75 -0.23726
37.8 -0.23519
37.85 -0.23275
37.9 -0.23049
37.95 -0.22736
38 -0.22311
38.05 -0.21994
38.1 -0.21733
38.15 -0.21559
38.2 -0.21244
38.25 -0.20918
38.3 -0.20637
38.35 -0.20395
38.4 -0.20143
38.45 -0.19951
38.5 -0.19723
38.55 -0.19452
38.6 -0.19016
38.65 -0.18582
38.7 -0.1814
38.75 -0.17711
38.8 -0.17457
38.85 -0.17171
38.9 -0.16946
38.95 -0.167
39 -0.16542
39.05 -0.16357
39.1 -0.16179
39.15 -0.16025
39.2 -0.15895
39.25 -0.15784
39.3 -0.15646
39.35 -0.15547
39.4 -0.15337
39.45 -0.15165
39.5 -0.15003
39.55 -0.14959
39.6 -0.14822
39.65 -0.14584
39.7 -0.14386
39.75 -0.13995
39.8 -0.13518
39.85 -0.13065
39.9 -0.12621
39.95 -0.12273
40 -0.11977
40.05 -0.11681
40.1 -0.11519
40.15 -0.11409
40.2 -0.11401
40.25 -0.11329
40.3 -0.1137
40.35 -0.11427
40.4 -0.11387
40.45 -0.11198
40.5 -0.10995
40.55 -0.10763
40.6 -0.10561
40.65 -0.10376
40.7 -0.10174
40.75 -0.09978
40.8 -0.09843
40.85 -0.09598
40.9 -0.09375
40.95 -0.0917
41 -0.08942
41.05 -0.08731
41.1 -0.08608
41.15 -0.08513
41.2 -0.08398
41.25 -0.08226
41.3 -0.08035
41.35 -0.0786
41.4 -0.07674
41.45 -0.07477
41.5 -0.07276
41.55 -0.07231
41.6 -0.07116
41.65 -0.07115
41.7 -0.07099
41.75 -0.06912
41.8 -0.06795
41.85 -0.06721
41.9 -0.06634
41.95 -0.06578
42 -0.06539
42.05 -0.06524
42.1 -0.06485
42.15 -0.06574
42.2 -0.0653
42.25 -0.06426
42.3 -0.06306
42.35 -0.06216
42.4 -0.06075
42.45 -0.05955
42.5 -0.05888
42.55 -0.05773
42.6 -0.05703
42.65 -0.05519
42.7 -0.05371
42.75 -0.05226
42.8 -0.05015
42.85 -0.04997
42.9 -0.04955
42.95 -0.04927
43 -0.04813
43.05 -0.04662
43.1 -0.0453
43.15 -0.04479
43.2 -0.04363
43.25 -0.04308
43.3 -0.04217
43.35 -0.041
43.4 -0.03924
43.45 -0.03814
43.5 -0.03762
43.55 -0.03661
43.6 -0.03602
43.65 -0.03588
43.7 -0.03593
43.75 -0.0368
43.8 -0.03658
43.85 -0.03658
43.9 -0.03672
43.95 -0.03617
44 -0.03574
44.05 -0.03611
44.1 -0.03604
44.15 -0.03615
44.2 -0.03668
44.25 -0.03615
44.3 -0.0355
44.35 -0.03361
44.4 -0.03185
44.45 -0.03136
44.5 -0.03179
44.55 -0.03207
44.6 -0.03224
44.65 -0.0321
44.7 -0.03136
44.75 -0.03151
44.8 -0.03148
44.85 -0.03162
44.9 -0.032
44.95 -0.03215
45 -0.03172
45.05 -0.03144
45.1 -0.03011
45.15 -0.02931
45.2 -0.02869
45.25 -0.02712
45.3 -0.02582
45.35 -0.02493
45.4 -0.02443
45.45 -0.0241
45.5 -0.02379
45.55 -0.02348
45.6 -0.02362
45.65 -0.0235
45.7 -0.02289
45.75 -0.02202
45.8 -0.02163
45.85 -0.02157
45.9 -0.02094
45.95 -0.02004
46 -0.01961
46.05 -0.01837
46.1 -0.01822
46.15 -0.0179
46.2 -0.01731
46.25 -0.01675
46.3 -0.01592
46.35 -0.01469
46.4 -0.01386
46.45 -0.0137
46.5 -0.01305
46.55 -0.01356
46.6 -0.01435
46.65 -0.01579
46.7 -0.01652
46.75 -0.01628
46.8 -0.01681
46.85 -0.01771
46.9 -0.01833
46.95 -0.01912
47 -0.01915
47.05 -0.01937
47.1 -0.01895
47.15 -0.01773
47.2 -0.01566
47.25 -0.01467
47.3 -0.01315
47.35 -0.01131
47.4 -0.0105
47.45 -0.0116
47.5 -0.01233
47.55 -0.01345
47.6 -0.01354
47.65 -0.01329
47.7 -0.01363
47.75 -0.0131
47.8 -0.01128
47.85 -0.01065
47.9 -0.01059
47.95 -0.01036
48 -0.0086
48.05 -0.00769
48.1 -0.00738
48.15 -0.00657
48.2 -0.00577
48.25 -0.00626
48.3 -0.00702
48.35 -0.00871
48.4 -0.01009
48.45 -0.01028
48.5 -0.0116
48.55 -0.01094
48.6 -0.0099
48.65 -0.00957
48.7 -0.01023
48.75 -0.01018
48.8 -0.00956
48.85 -0.00944
48.9 -0.00938
48.95 -0.00955
49 -0.01006
49.05 -0.00989
49.1 -0.00881
49.15 -0.00795
49.2 -0.00717
49.25 -0.00745
49.3 -0.0071
49.35 -0.00596
49.4 -0.00495
49.45 -0.00319
49.5 -0.00233
49.55 -0.00175
49.6 -0.00135
49.65 -0.00118
49.7 -0.00113
49.75 -0.001
49.8 -0.00166
49.85 -0.00269
49.9 -0.00349
49.95 -0.005
50 -0.00516
50.05 -0.00594
50.1 -0.00636
50.15 -0.00785
50.2 -0.00788
50.25 -0.00754
50.3 -0.00767
50.35 -0.00738
50.4 -0.00799
50.45 -0.00834
50.5 -0.00829
50.55 -0.00653
50.6 -0.00551
50.65 -0.00434
50.7 -0.00424
50.75 -0.00437
50.8 -0.00406
50.85 -0.00341
50.9 -0.00251
50.95 -0.00214
51 -0.00187
51.05 -0.00198
51.1 -0.00145
51.15 -0.00093
51.2 -9e-04
51.25 -0.0017
51.3 -0.0029
51.35 -0.00387
51.4 -0.00344
51.45 -0.00311
51.5 -0.00199
51.55 -0.00108
51.6 -0.00026
51.65 -0.00028
51.7 -0.00075
51.75 -0.0016
51.8 -0.0022
51.85 -0.00255
51.9 -0.00273
51.95 -0.00204
52 -0.00123
52.05 -0.00154
52.1 -0.00209
52.15 -0.00153
52.2 -0.00194
52.25 -0.00204
52.3 -0.00226
52.35 -0.00287
52.4 -0.00254
52.45 -0.00135
52.5 0.00086
52.55 0.00287
52.6 0.0032
52.65 0.00326
52.7 0.00321
52.75 0.00239
52.8 0.0016
52.85 0.00077
52.9 -2e-05
52.95 -0.00114
53 -0.00262
53.05 -0.00339
53.1 -0.00365
53.15 -0.00527
53.2 -0.00667
53.25 -0.00775
53.3 -0.0078
53.35 -0.00836
53.4 -0.0082
53.45 -0.0079
53.5 -0.00711
53.55 -0.0064
53.6 -0.00522
53.65 -0.0039
53.7 -0.00281
53.75 -0.00141
53.8 8e-05
53.85 2e-04
53.9 -0.00067
53.95 -0.0012
54 -0.00202
54.05 -0.00307
54.1 -0.00403
54.15 -0.00427
54.2 -0.00513
54.25 -0.00678
54.3 -0.00781
54.35 -0.00796
54.4 -0.00722
54.45 -0.00595
54.5 -0.00365
54.55 -0.00141
54.6 -0.00136
54.65 -0.00276
54.7 -0.00266
54.75 -0.0027
54.8 -0.00353
54.85 -0.00393
54.9 -0.00272
54.95 -0.00176
55 -0.00231
55.05 -0.00239
55.1 -0.003
55.15 -0.00349
55.2 -0.00473
55.25 -0.00441
55.3 -0.00361
55.35 -0.00361
55.4 -0.00338
55.45 -0.00357
55.5 -0.003
55.55 -0.00246
55.6 -0.00201
55.65 -0.00087
55.7 -0.00139
55.75 -0.00061
55.8 5e-05
55.85 0.00062
55.9 0.00196
55.95 0.00282
56 0.00237
56.05 0.00147
56.1 0.00046
56.15 -0.00059
56.2 -0.00101
56.25 -0.00287
56.3 -0.00455
56.35 -0.00484
56.4 -0.00427
56.45 -0.00352
56.5 -0.00269
56.55 -0.00164
56.6 -0.00155
56.65 -0.001
56.7 -0.00146
56.75 -0.00114
56.8 -0.00058
56.85 -0.00133
56.9 -0.00154
56.95 -6e-04
57 -7e-04
57.05 -0.00097
57.1 -0.00077
57.15 -0.0014
57.2 -0.00222
57.25 -0.00258
57.3 -0.00351
57.35 -0.00486
57.4 -0.00482
57.45 -0.00424
57.5 -0.00411
57.55 -0.00324
57.6 -0.00281
57.65 -0.00348
57.7 -0.00303
57.75 -0.00245
57.8 -0.00252
57.85 -0.00171
57.9 -0.00088
57.95 0.00025
58 0.00104
58.05 0.00206
58.1 0.00288
58.15 0.00215
58.2 0.00149
58.25 0.00178
58.3 0.00126
58.35 0.00083
58.4 0.00105
58.45 0.00161
58.5 0.00229
58.55 0.00199
58.6 0.00162
58.65 -6e-05
58.7 -0.00059
58.75 -0.00178
58.8 -0.00293
58.85 -0.00373
58.9 -0.00406
58.95 -0.00381
59 -0.00327
59.05 -0.00235
59.1 -0.00172
59.15 0.00016
59.2 0.00231
59.25 0.00385
59.3 0.0047
59.35 0.00368
59.4 0.00236
59.45 0.0017
59.5 -0.00064
59.55 -0.0024
59.6 -0.00234
59.65 -0.00223
59.7 -0.00159
59.75 -0.00168
59.8 -0.00179
59.85 -0.00178
59.9 -0.0014
59.95 -0.00118
60 -0.001
60.05 -0.00084
60.1 0.00038
60.15 0.00092
60.2 0.00018
60.25 3e-05
60.3 -0.00092
60.35 -0.00176
60.4 -0.0015
60.45 -0.00201
60.5 -0.00209
60.55 -0.0025
60.6 -0.00297
60.65 -0.00398
60.7 -0.00434
60.75 -0.00461
60.8 -0.0036
60.85 -0.00215
60.9 -0.00141
60.95 -0.00033
61 6e-04
61.05 0.00154
61.1 0.00176
61.15 0.0014
61.2 0.00103
61.25 0.00059
61.3 -0.00046
61.35 -0.00062
61.4 -0.00121
61.45 -0.00179
61.5 -0.00196
61.55 -0.00151
61.6 -0.00166
61.65 -0.00211
61.7 -0.00264
61.75 -0.00205
61.8 -0.00093
61.85 -0.00073
61.9 0.00077
61.95 0.00116
62 0.00097
62.05 0.00094
62.1 0.00025
62.15 -0.00036
62.2 -0.00033
62.25 0.00026
62.3 0.00055
62.35 -8e-05
62.4 -0.00035
62.45 -0.00038
62.5 -0.00039
62.55 -0.00048
62.6 -0.00031
62.65 0.00014
62.7 1e-05
62.75 0.00036
62.8 0.00102
62.85 0.00084
62.9 0.00051
62.95 0.00059
63 0.001
63.05 0.00209
63.1 0.0034
63.15 0.00392
63.2 0.00331
63.25 0.00118
63.3 0.00024
63.35 -0.00077
63.4 -0.00162
63.45 -0.00257
63.5 -0.00418
63.55 -0.00454
63.6 -0.00382
63.65 -0.00283
63.7 -0.00291
63.75 -0.00269
63.8 -0.00172
63.85 -0.00151
63.9 -0.00149
63.95 -0.00163
64 -0.00199
64.05 -0.00263
64.1 -0.00238
64.15 -0.00225
64.2 -0.00122
64.25 -0.00139
64.3 -0.00145
64.35 -0.00094
64.4 -0.00116
64.45 -0.00128
64.5 -0.00133
64.55 -0.00105
64.6 -0.00112
64.65 -0.00049
64.7 6e-05
64.75 0.00091
64.8 0.00075
64.85 -0.00055
64.9 -9e-04
64.95 -0.00162
65 -0.00251
65.05 -0.00291
65.1 -0.00273
65.15 -0.00254
65.2 -0.00164
65.25 -0.00123
65.3 -0.00057
65.35 0.00019
65.4 0.00092
65.45 0.00328
65.5 0.00452
65.55 0.0052
65.6 0.00627
65.65 0.0068
65.7 0.00652
65.75 0.00664
65.8 0.00434
65.85 0.00221
65.9 0.00037
65.95 -0.00128
66 -0.00137
66.05 -0.00104
66.1 -0.00036
66.15 -0.00044
66.2 0.00028
66.25 0.00076
66.3 0.0013
66.35 6e-05
66.4 -0.00115
66.45 -0.00283
66.5 -0.0033
66.55 -0.0031
66.6 -0.00354
66.65 -0.00259
66.7 -0.00229
66.75 -0.00115
66.8 1e-04
66.85 0.00119
66.9 0.00098
66.95 0.00062
67 2e-04
67.05 0.00085
67.1 0
67.15 -0.00117
67.2 -0.00091
67.25 -8e-04
67.3 -0.00135
67.35 -0.00168
67.4 -0.00085
67.45 8e-04
67.5 0.00148
67.55 0.00206
67.6 0.00162
67.65 0.00084
67.7 0.00063
67.75 0.00062
67.8 0.00117
67.85 0.00113
67.9 0.00124
67.95 0.0011
68 0.00059
68.05 -0.00056
68.1 -0.00134
68.15 -0.00169
68.2 -0.00207
68.25 -0.0023
68.3 -0.00282
68.35 -0.00301
68.4 -0.00345
68.45 -0.00374
68.5 -0.00396
68.55 -0.0025
68.6 -0.00096
68.65 -0.00057
68.7 -0.00054
68.75 -0.00158
68.8 -0.00202
68.85 -0.00219
68.9 -0.00127
68.95 -0.00093
69 0.00039
69.05 0.0019
69.1 0.00195
69.15 0.00256
69.2 0.00284
69.25 0.0018
69.3 -0.00038
69.35 -0.00147
69.4 -0.00212
69.45 -0.00227
69.5 -0.00225
69.55 -0.00212
69.6 -0.00219
69.65 -0.00191
69.7 -0.0015
69.75 -0.00075
69.8 -0.00141
69.85 -0.00174
69.9 -0.00356
69.95 -0.00416
70 -0.00461
70.05 -0.00445
70.1 -0.00327
70.15 -0.00262
70.2 -0.00295
70.25 -0.00214
70.3 -0.00196
70.35 -0.00147
70.4 -0.00092
70.45 -1e-05
70.5 0.00116
70.55 0.00122
70.6 0.00153
70.65 0.00183
70.7 0.00116
70.75 0.00029
70.8 -0.00139
70.85 -0.003
70.9 -0.0042
70.95 -0.0055
71 -0.0049
71.05 -0.00334
71.1 -0.00199
71.15 -0.00086
71.2 -0.00021
71.25 0.00049
71.3 0.00127
71.35 0.00168
71.4 0.00203
71.45 0.00245
71.5 0.00361
71.55 0.00402
71.6 0.00442
71.65 0.00536
71.7 0.00517
71.75 0.00485
71.8 0.00436
71.85 0.00319
71.9 0.00142
71.95 0.00134
72 0.00091
72.05 3e-04
72.1 -0.00039
72.15 -0.00139
72.2 -0.00099
72.25 -0.00113
72.3 -0.00182
72.35 -0.00287
72.4 -0.00402
72.45 -0.00424
72.5 -0.00338
72.55 -0.00294
72.6 -0.00206
72.65 -0.00039
72.7 -0.00017
72.75 0.00077
72.8 0.00137
72.85 0.00216
72.9 0.0028
72.95 0.00208
73 0.00136
73.05 0.00057
73.1 -0.00084
73.15 -0.00232
73.2 -0.00266
73.25 -0.00287
73.3 -0.00335
73.35 -0.0041
73.4 -0.00442
73.45 -0.00422
73.5 -0.00396
73.55 -0.00415
73.6 -0.00344
73.65 -0.00291
73.7 -0.00252
73.75 -0.00236
73.8 -0.00206
73.85 -0.00213
73.9 -0.00232
73.95 -0.00252
74 -0.00138
74.05 -0.00027
74.1 5e-05
74.15 0.00019
74.2 0.00033
74.25 7e-04
74.3 0.00052
74.35 0.00025
74.4 -0.00056
74.45 -0.00079
74.5 0.00012
74.55 0.00083
74.6 -0.00023
74.65 -0.00104
74.7 -0.00168
74.75 -0.00232
74.8 -0.00178
74.85 -0.00036
74.9 -0.00018
74.95 -7e-05
75 -0.00116
75.05 -0.00159
75.1 -0.00176
75.15 -0.00192
75.2 -0.0012
75.25 0.00045
75.3 0.00163
75.35 0.00161
75.4 0.00169
75.45 0.0022
75.5 0.00263
75.55 0.00197
75.6 0.00063
75.65 -0.00022
75.7 -0.00106
75.75 -0.00183
75.8 -0.00206
75.85 -0.00138
75.9 -0.00014
75.95 0.00037
76 0.00123
76.05 0.00236
76.1 0.00219
76.15 0.00185
76.2 0.0017
76.25 0.00137
76.3 0.00169
76.35 0.0025
76.4 0.0026
76.45 0.00276
76.5 0.00259
76.55 0.00238
76.6 0.00171
76.65 0.00179
76.7 0.00128
76.75 0.00047
76.8 -0.00022
76.85 -5e-05
76.9 0.00042
76.95 0.00155
77 0.00128
77.05 0.00113
77.1 9e-05
77.15 -0.00111
77.2 -0.00104
77.25 -0.00014
77.3 0.00076
77.35 0.00106
77.4 0.00017
77.45 0.00075
77.5 0.00063
77.55 0.00078
77.6 -4e-05
77.65 -0.00165
77.7 -0.00214
77.75 -0.00224
77.8 -0.00211
77.85 -0.00234
77.9 -0.0036
77.95 -0.00406
78 -0.00324
78.05 -0.0027
78.1 -0.00244
78.15 -0.00283
78.2 -0.00245
78.25 -0.00081
78.3 -0.00034
78.35 0
78.4 -0.00028
78.45 -0.00015
78.5 -0.00092
78.55 -0.00223
78.6 -0.00245
78.65 -0.00287
78.7 -0.00287
78.75 -0.00343
78.8 -0.00371
78.85 -0.00331
78.9 -0.00265
78.95 -0.00259
79 -0.00144
79.05 -0.00032
79.1 0.00015
79.15 0.00025
79.2 0.00017
79.25 -0.00045
79.3 -0.00091
79.35 -0.0015
79.4 -0.00179
79.45 -0.0027
79.5 -0.00306
79.55 -0.00287
79.6 -0.00222
79.65 -0.00073
79.7 0.00052
79.75 0.00179
79.8 0.00305
79.85 0.00376
79.9 0.00392
79.95 0.00331
80 0.00217
80.05 0.00067
80.1 -0.00056
80.15 -0.00102
80.2 -0.00073
80.25 -0.00053
80.3 -0.00056
80.35 -0.00129
80.4 -0.00199
80.45 -0.00137
80.5 -0.00097
80.55 -0.00023
80.6 0.00113
80.65 0.00283
80.7 0.00355
80.75 0.00455
80.8 0.00337
80.85 0.00159
80.9 0.00016
80.95 -0.00046
81 -0.00091
81.05 -0.00121
81.1 -0.00139
81.15 -0.00107
81.2 -0.00061
81.25 -7e-04
81.3 -0.00136
81.35 -0.00193
81.4 -0.00218
81.45 -0.00225
81.5 -0.00214
81.55 -0.00154
81.6 -0.00125
81.65 -0.00091
81.7 -3e-05
81.75 -5e-05
81.8 -0.00101
81.85 -0.00188
81.9 -0.0021
81.95 -0.00259
82 -0.00263
82.05 -0.00175
82.1 -0.00063
82.15 5e-05
82.2 0.00047
82.25 5e-04
82.3 6e-04
82.35 0.00021
82.4 6e-05
82.45 -2e-04
82.5 -0.00106
82.55 -0.00146
82.6 -0.00155
82.65 -0.00225
82.7 -0.00253
82.75 -0.00356
82.8 -0.00392
82.85 -0.00292
82.9 -0.00079
82.95 0.00091
83 0.00199
83.05 0.00184
83.1 0.00203
83.15 0.00053
83.2 -0.00101
83.25 -0.00213
83.3 -0.00284
83.35 -0.0028
83.4 -0.00231
83.45 -0.00159
83.5 -0.00082
83.55 0.00023
83.6 0.00025
83.65 -0.00059
83.7 -0.00027
83.75 -0.00017
83.8 -0.00068
83.85 -0.00089
83.9 -0.00156
83.95 -0.00171
84 -0.00142
84.05 -0.00147
84.1 -0.00149
84.15 -0.00237
84.2 -0.00327
84.25 -0.00411
84.3 -0.00333
84.35 -0.00234
84.4 -0.00158
84.45 -0.0019
84.5 -0.00191
84.55 -0.00153
84.6 -0.00051
84.65 0.00126
84.7 0.00174
84.75 0.00224
84.8 0.00146
84.85 -0.00016
84.9 -0.00149
84.95 -0.003
85 -0.00368
85.05 -0.00327
85.1 -0.00152
85.15 -0.00108
85.2 -0.00086
85.25 -0.00017
85.3 0.00036
85.35 -0.00028
85.4 -0.00134
85.45 -0.00192
85.5 -0.00189
85.55 -0.00188
85.6 -0.00128
85.65 -0.00087
85.7 -0.00081
85.75 -0.00091
85.8 -3e-05
85.85 0.00042
85.9 0.00112
85.95 0.00111
86 0.00114
86.05 0.00154
86.1 0.00121
86.15 0.00086
86.2 0.00026
86.25 0.00168
86.3 0.00075
86.35 -0.00085
86.4 -0.00099
86.45 -8e-04
86.5 -0.00065
86.55 0.00021
86.6 0.0012
86.65 0.00202
86.7 0.00248
86.75 0.003
86.8 0.00303
86.85 0.00296
86.9 0.0022
86.95 0.00098
87 0.00038
87.05 2e-05
87.1 0.00036
87.15 -0.00033
87.2 -0.00068
87.25 -0.00064
87.3 -0.00153
87.35 -0.00211
87.4 -0.00176
87.45 -0.00135
87.5 0.00022
87.55 0.00195
87.6 0.00211
87.65 0.00189
87.7 0.00227
87.75 0.00153
87.8 0.00144
87.85 0.00182
87.9 0.001
87.95 0
88 -0.00103
88.05 -9e-04
88.1 -0.00148
88.15 -0.00189
88.2 -0.00189
88.25 -0.00233
88.3 -0.00272
88.35 -0.00267
88.4 -0.00221
88.45 -0.00145
88.5 -0.00137
88.55 -0.00169
88.6 -0.00224
88.65 -0.00277
88.7 -0.00334
88.75 -0.00301
88.8 -0.00312
88.85 -0.00274
88.9 -0.00254
88.95 -0.00236
89 -0.00259
89.05 -0.00226
89.1 -0.00219
89.15 -0.00137
89.2 -0.0013
89.25 -0.00097
89.3 -0.00019
89.35 -9e-05
89.4 -1e-05
89.45 0.00129
89.5 0.00307
89.55 0.00382
89.6 0.00411
89.65 0.00514
89.7 0.00562
89.75 0.00529
89.8 0.00378
89.85 0.00297
89.9 0.0027
89.95 0.00243
90 0.00253
90.05 0.00169
90.1 0.00145
90.15 0.0016
90.2 0.00095
90.25 0.00088
90.3 0.00065
90.35 0.00021
90.4 0.00032
90.45 0.00058
90.5 0.00147
90.55 0.0011
90.6 0.00142
90.65 0.00102
90.7 -0.00024
90.75 -0.00122
90.8 -0.0011
90.85 -0.00178
90.9 -0.00271
90.95 -0.00238
91 -0.00212
91.05 -0.00302
91.1 -0.00373
91.15 -0.00353
91.2 -0.00434
91.25 -0.00369
91.3 -0.00291
91.35 -0.00073
91.4 -0.00022
91.45 1e-05
91.5 -1e-05
91.55 0.00124
91.6 0.00121
91.65 0.00136
91.7 0.00158
91.75 0.00165
91.8 0.00152
91.85 0.00101
91.9 -0.00046
91.95 -0.00096
92 -0.0012
92.05 -0.0013
92.1 -0.00154
92.15 -0.00158
92.2 -0.00188
92.25 -9e-04
92.3 -0.00012
92.35 0.00079
92.4 0.00085
92.45 0.00147
92.5 0.0011
92.55 0.00045
92.6 0.00043
92.65 2e-04
92.7 -9e-05
92.75 0.00086
92.8 0.00042
92.85 0.00141
92.9 0.00155
92.95 0.00202
93 0.00202
93.05 0.00186
93.1 0.00186
93.15 0.00206
93.2 0.00269
93.25 0.00356
93.3 0.00436
93.35 0.0043
93.4 0.00379
93.45 0.00191
93.5 0.00014
93.55 -0.00148
93.6 -0.00327
93.65 -0.00363
93.7 -0.00456
93.75 -0.00483
93.8 -0.00491
93.85 -0.00417
93.9 -0.00293
93.95 -0.0024
94 -0.00327
94.05 -0.00335
94.1 -0.00191
94.15 -6e-04
94.2 0
94.25 -0.00032
94.3 -0.00024
94.35 -0.00085
94.4 -0.00187
94.45 -0.00263
94.5 -0.00289
94.55 -0.00352
94.6 -0.00381
94.65 -0.00271
94.7 -0.00181
94.75 -0.00253
94.8 -0.0031
94.85 -0.00306
94.9 -0.00203
94.95 -0.00017
95 0.00137
95.05 0.0016
95.1 0.0016
95.15 0.00042
95.2 8e-05
95.25 -0.00089
95.3 -0.00043
95.35 -7e-05
95.4 -0.00026
95.45 -2e-04
95.5 -0.00054
95.55 -0.00076
95.6 1e-05
95.65 -0.00042
95.7 -0.00151
95.75 -0.00203
95.8 -0.00267
95.85 -0.00253
95.9 -0.00341
95.95 -0.00319
96 -0.0025
96.05 -0.0016
96.1 0.00046
96.15 0.00101
96.2 0.00126
96.25 0.00083
96.3 -0.00053
96.35 -0.00103
96.4 -0.00057
96.45 -0.00101
96.5 -0.00128
96.55 -0.00161
96.6 -0.00232
96.65 -0.00277
96.7 -0.00338
96.75 -0.00459
96.8 -0.00442
96.85 -0.00468
96.9 -0.00369
96.95 -0.00301
97 -0.00243
97.05 -0.00095
97.1 0.00042
97.15 0.00075
97.2 0.00153
97.25 0.00247
97.3 0.00352
97.35 0.0038
97.4 0.00414
97.45 0.00315
97.5 0.00351
97.55 0.00363
97.6 0.00331
97.65 0.00306
97.7 0.00209
97.75 0.00161
97.8 0.00051
97.85 -0.00037
97.9 -0.00138
97.95 -0.00073
98 1e-05
98.05 9e-05
98.1 0.00032
98.15 0.00076
98.2 0.00087
98.25 0.00035
98.3 -0.00019
98.35 -0.00032
98.4 0.00088
98.45 0.00152
98.5 0.00177
98.55 0.00167
98.6 0.00086
98.65 -0.00025
98.7 -0.00059
98.75 -4e-04
98.8 -0.00048
98.85 -0.00126
98.9 -0.0012
98.95 -0.00096
99 -0.00042
99.05 -0.00045
99.1 -0.00012
99.15 0.00039
99.2 0.00127
99.25 0.00159
99.3 0.00146
99.35 0.00147
99.4 0.00152
99.45 5e-04
99.5 -0.00018
99.55 -0.00128
99.6 -0.00247
99.65 -0.00327
99.7 -0.00319
99.75 -0.00266
99.8 -0.00242
99.85 -0.00118
99.9 -0.00022
99.95 0.00122
