0 0
0.05 0.00541
0.1 0.0133
0.15 0.02085
0.2 0.02882
0.25 0.03551
0.3 0.04166
0.35 0.0473
0.4 0.05074
0.45 0.0538
0.5 0.05672
0.55 0.05861
0.6 0.05805
0.65 0.05661
0.7 0.05419
0.75 0.05213
0.8 0.04964
0.85 0.04812
0.9 0.04691
0.95 0.04461
1 0.0436
1.05 0.04161
1.1 0.04072
1.15 0.04022
1.2 0.03975
1.25 0.03846
1.3 0.03699
1.35 0.03632
1.4 0.03546
1.45 0.03573
1.5 0.03672
1.55 0.03671
1.6 0.0378
1.65 0.03808
1.7 0.03834
1.75 0.0386
1.8 0.03757
1.85 0.03712
1.9 0.03568
1.95 0.03428
2 0.03307
2.05 0.03262
2.1 0.03184
2.15 0.03138
2.2 0.03021
2.25 0.0289
2.3 0.0273
2.35 0.0264
2.4 0.02562
2.45 0.02552
2.5 0.02557
2.55 0.02569
2.6 0.02577
2.65 0.02565
2.7 0.02601
2.75 0.02531
2.8 0.02489
2.85 0.02557
2.9 0.02636
2.95 0.02613
3 0.02535
3.05 0.02444
3.1 0.02406
3.15 0.02341
3.2 0.02154
3.25 0.01871
3.3 0.01686
3.35 0.01606
3.4 0.01627
3.45 0.01611
3.5 0.01651
3.55 0.0166
3.6 0.01618
3.65 0.0158
3.7 0.01598
3.75 0.01621
3.8 0.01666
3.85 0.01643
3.9 0.01717
3.95 0.01697
4 0.01623
4.05 0.01543
4.1 0.01425
4.15 0.01265
4.2 0.01101
4.25 0.00898
4.3 0.00656
4.35 0.00336
4.4 -0.00079
4.45 -0.00729
4.5 -0.01512
4.55 -0.02469
4.6 -0.03517
4.65 -0.04718
4.7 -0.06241
4.75 -0.08117
4.8 -0.10293
4.85 -0.12742
4.9 -0.15524
4.95 -0.1878
5 -0.22547
5.05 -0.26824
5.1 -0.31528
5.15 -0.36703
5.2 -0.42363
5.25 -0.48517
5.3 -0.55273
5.35 -0.6251
5.4 -0.70119
5.45 -0.78095
5.5 -0.86254
5.55 -0.94711
5.6 -1.03254
5.65 -1.11761
5.7 -1.20267
5.75 -1.28644
5.8 -1.36971
5.85 -1.45002
5.9 -1.52634
5.95 -1.59757
6 -1.66456
6.05 -1.72638
6.1 -1.78155
6.15 -1.83117
6.2 -1.87582
6.25 -1.91395
6.3 -1.94743
6.35 -1.97597
6.4 -1.9987
6.45 -2.01549
6.5 -2.02423
6.55 -2.0256
6.6 -2.01976
6.65 -2.00456
6.7 -1.97966
6.75 -1.94355
6.8 -1.8953
6.85 -1.83421
6.9 -1.76125
6.95 -1.6765
7 -1.57764
7.05 -1.4672
7.1 -1.34551
7.15 -1.21361
7.2 -1.07328
7.25 -0.9242
7.3 -0.76858
7.35 -0.60828
7.4 -0.44325
7.45 -0.27654
7.5 -0.10969
7.55 0.05611
7.6 0.21873
7.65 0.37792
7.7 0.53102
7.75 0.67674
7.8 0.8152
7.85 0.94569
7.9 1.06712
7.95 1.17996
8 1.28359
8.05 1.37719
8.1 1.46074
8.15 1.53479
8.2 1.59954
8.25 1.65432
8.3 1.7005
8.35 1.73968
8.4 1.77059
8.45 1.79487
8.5 1.81218
8.55 1.82396
8.6 1.8303
8.65 1.8323
8.7 1.83128
8.75 1.82726
8.8 1.8199
8.85 1.81096
8.9 1.80042
8.95 1.78684
9 1.77135
9.05 1.75483
9.1 1.73774
9.15 1.71903
9.2 1.69794
9.25 1.67608
9.3 1.65339
9.35 1.63133
9.4 1.60858
9.45 1.58653
9.5 1.56317
9.55 1.54021
9.6 1.51588
9.65 1.49196
9.7 1.46786
9.75 1.44249
9.8 1.41644
9.85 1.38921
9.9 1.36073
9.95 1.33142
10 1.30248
10.05 1.27293
10.1 1.24286
10.15 1.21162
10.2 1.17954
10.25 1.1472
10.3 1.11452
10.35 1.08155
10.4 1.04773
10.45 1.01253
10.5 0.97666
10.55 0.94065
10.6 0.9038
10.65 0.86753
10.7 0.83105
10.75 0.79332
10.8 0.75561
10.85 0.71785
10.9 0.68053
10.95 0.64305
11 0.60642
11.05 0.57064
11.1 0.53447
11.15 0.49769
11.2 0.46111
11.25 0.42478
11.3 0.39001
11.35 0.35586
11.4 0.32216
11.45 0.29074
11.5 0.25995
11.55 0.23011
11.6 0.20122
11.65 0.17273
11.7 0.14454
11.75 0.11675
11.8 0.09007
11.85 0.06428
11.9 0.03981
11.95 0.01566
12 -0.00753
12.05 -0.0295
12.1 -0.0511
12.15 -0.07113
12.2 -0.09053
12.25 -0.10818
12.3 -0.12459
12.35 -0.14062
12.4 -0.15623
12.45 -0.17128
12.5 -0.18541
12.55 -0.19894
12.6 -0.21173
12.65 -0.22291
12.7 -0.23279
12.75 -0.24165
12.8 -0.25011
12.85 -0.25772
12.9 -0.26441
12.95 -0.2707
13 -0.2767
13.05 -0.28234
13.1 -0.28717
13.15 -0.29044
13.2 -0.29372
13.25 -0.29612
13.3 -0.29743
13.35 -0.29879
13.4 -0.30114
13.45 -0.30206
13.5 -0.30342
13.55 -0.30444
13.6 -0.30494
13.65 -0.30483
13.7 -0.30379
13.75 -0.30298
13.8 -0.30297
13.85 -0.30286
13.9 -0.30245
13.95 -0.30071
14 -0.29915
14.05 -0.29676
14.1 -0.29519
14.15 -0.29199
14.2 -0.28981
14.25 -0.2879
14.3 -0.286
14.35 -0.28407
14.4 -0.28018
14.45 -0.27618
14.5 -0.27215
14.55 -0.26837
14.6 -0.26419
14.65 -0.26047
14.7 -0.2578
14.75 -0.25429
14.8 -0.25063
14.85 -0.247
14.9 -0.24425
14.95 -0.24136
15 -0.2384
15.05 -0.23424
15.1 -0.22999
15.15 -0.22668
15.2 -0.22366
15.25 -0.22175
15.3 -0.21945
15.35 -0.21684
15.4 -0.21453
15.45 -0.21206
15.5 -0.20976
15.55 -0.20597
15.6 -0.20255
15.65 -0.19899
15.7 -0.19508
15.75 -0.19147
15.8 -0.18781
15.85 -0.18366
15.9 -0.18033
15.95 -0.17625
16 -0.17354
16.05 -0.17094
16.1 -0.16902
16.15 -0.16659
16.2 -0.16551
16.25 -0.1637
16.3 -0.16237
16.35 -0.1604
16.4 -0.15883
16.45 -0.15734
16.5 -0.15574
16.55 -0.15342
16.6 -0.15049
16.65 -0.14767
16.7 -0.14495
16.75 -0.14238
16.8 -0.13925
16.85 -0.13551
16.9 -0.13225
16.95 -0.13037
17 -0.12896
17.05 -0.1272
17.1 -0.12527
17.15 -0.12293
17.2 -0.12002
17.25 -0.11743
17.3 -0.11533
17.35 -0.11414
17.4 -0.11272
17.45 -0.11062
17.5 -0.10886
17.55 -0.10851
17.6 -0.10825
17.65 -0.10841
17.7 -0.10688
17.75 -0.105
17.8 -0.10328
17.85 -0.10185
17.9 -0.09995
17.95 -0.09777
18 -0.09494
18.05 -0.09346
18.1 -0.09158
18.15 -0.09006
18.2 -0.08847
18.25 -0.0866
18.3 -0.085
18.35 -0.08382
18.4 -0.08298
18.45 -0.08204
18.5 -0.08157
18.55 -0.0814
18.6 -0.0799
18.65 -0.07902
18.7 -0.07852
18.75 -0.07758
18.8 -0.07671
18.85 -0.07461
18.9 -0.07296
18.95 -0.07165
19 -0.0709
19.05 -0.06931
19.1 -0.06845
19.15 -0.06846
19.2 -0.06752
19.25 -0.06706
19.3 -0.06642
19.35 -0.06402
19.4 -0.0616
19.45 -0.05857
19.5 -0.05725
19.55 -0.05633
19.6 -0.05466
19.65 -0.05395
19.7 -0.05374
19.75 -0.05298
19.8 -0.05238
19.85 -0.05119
19.9 -0.05005
19.95 -0.0491
20 -0.04827
20.05 -0.04712
20.1 -0.04648
20.15 -0.04525
20.2 -0.04434
20.25 -0.04445
20.3 -0.04443
20.35 -0.04421
20.4 -0.04469
20.45 -0.04501
20.5 -0.04411
20.55 -0.04372
20.6 -0.04372
20.65 -0.04402
20.7 -0.0439
20.75 -0.0433
20.8 -0.041
20.85 -0.0383
20.9 -0.03631
20.95 -0.03523
21 -0.03437
21.05 -0.03539
21.1 -0.03644
21.15 -0.03646
21.2 -0.03644
21.25 -0.03644
21.3 -0.03569
21.35 -0.03458
21.4 -0.03489
21.45 -0.03528
21.5 -0.03519
21.55 -0.03515
21.6 -0.03529
21.65 -0.03443
21.7 -0.03419
21.75 -0.03463
21.8 -0.03363
21.85 -0.03118
21.9 -0.02903
21.95 -0.02786
22 -0.02706
22.05 -0.02698
22.1 -0.02709
22.15 -0.02777
22.2 -0.02836
22.25 -0.02874
22.3 -0.02836
22.35 -0.02673
22.4 -0.02462
22.45 -0.02385
22.5 -0.02433
22.55 -0.02373
22.6 -0.02325
22.65 -0.02281
22.7 -0.02341
22.75 -0.02429
22.8 -0.02526
22.85 -0.0247
22.9 -0.02422
22.95 -0.02286
23 -0.02272
23.05 -0.02235
23.1 -0.02119
23.15 -0.01953
23.2 -0.01809
23.25 -0.01701
23.3 -0.01652
23.35 -0.01538
23.4 -0.01446
23.45 -0.01382
23.5 -0.01362
23.55 -0.01388
23.6 -0.01403
23.65 -0.01438
23.7 -0.01501
23.75 -0.01481
23.8 -0.01487
23.85 -0.01483
23.9 -0.01553
23.95 -0.01633
24 -0.01608
24.05 -0.01638
24.1 -0.0174
24.15 -0.01714
24.2 -0.01721
24.25 -0.01729
24.3 -0.01743
24.35 -0.01622
24.4 -0.01523
24.45 -0.01495
24.5 -0.01438
24.55 -0.01376
24.6 -0.01314
24.65 -0.0124
24.7 -0.01153
24.75 -0.01107
24.8 -0.01112
24.85 -0.01044
24.9 -0.00983
24.95 -0.00899
25 -0.00876
25.05 -0.00896
25.1 -0.00795
25.15 -0.00689
25.2 -0.00754
25.25 -0.00747
25.3 -0.00699
25.35 -0.00755
25.4 -0.00777
25.45 -0.00806
25.5 -0.00826
25.55 -0.00827
25.6 -0.00807
25.65 -0.00781
25.7 -0.00743
25.75 -0.00731
25.8 -0.00685
25.85 -0.00667
25.9 -0.00523
25.95 -0.00464
26 -0.00502
26.05 -0.00463
26.1 -0.00473
26.15 -0.006
26.2 -0.00795
26.25 -0.00896
26.3 -0.0099
26.35 -0.01026
26.4 -0.00985
26.45 -0.00996
26.5 -0.00969
26.55 -0.009
26.6 -0.00952
26.65 -0.00899
26.7 -0.00808
26.75 -0.00743
26.8 -0.00691
26.85 -0.00646
26.9 -0.00589
26.95 -0.0054
27 -0.00576
27.05 -0.00518
27.1 -0.00491
27.15 -0.00576
27.2 -0.00571
27.25 -0.00652
27.3 -0.0066
27.35 -0.00626
27.4 -0.00551
27.45 -0.00546
27.5 -0.00537
27.55 -0.00505
27.6 -0.00476
27.65 -0.00457
27.7 -0.00543
27.75 -0.00573
27.8 -0.0055
27.85 -0.00589
27.9 -0.00677
27.95 -0.00672
28 -0.00826
28.05 -0.00987
28.1 -0.01129
28.15 -0.01209
28.2 -0.0128
28.25 -0.01493
28.3 -0.01888
28.35 -0.02301
28.4 -0.02631
28.45 -0.03095
28.5 -0.03746
28.55 -0.04417
28.6 -0.05112
28.65 -0.05941
28.7 -0.06756
28.75 -0.07651
28.8 -0.08606
28.85 -0.09563
28.9 -0.10703
28.95 -0.11854
29 -0.13306
29.05 -0.14886
29.1 -0.16582
29.15 -0.18458
29.2 -0.20258
29.25 -0.22139
29.3 -0.24029
29.35 -0.26224
29.4 -0.28365
29.45 -0.3046
29.5 -0.32528
29.55 -0.34713
29.6 -0.3669
29.65 -0.38599
29.7 -0.40319
29.75 -0.41859
29.8 -0.43284
29.85 -0.44428
29.9 -0.45381
29.95 -0.45985
30 -0.46157
30.05 -0.46153
30.1 -0.45887
30.15 -0.45201
30.2 -0.44208
30.25 -0.42773
30.3 -0.41071
30.35 -0.39024
30.4 -0.36767
30.45 -0.3425
30.5 -0.31421
30.55 -0.28407
30.6 -0.25244
30.65 -0.21908
30.7 -0.18608
30.75 -0.15263
30.8 -0.11944
30.85 -0.0858
30.9 -0.05194
30.95 -0.019
31 0.01235
31.05 0.04246
31.1 0.07164
31.15 0.09958
31.2 0.12475
31.25 0.14797
31.3 0.16853
31.35 0.18701
31.4 0.20412
31.45 0.2191
31.5 0.23316
31.55 0.24512
31.6 0.25584
31.65 0.26538
31.7 0.27374
31.75 0.28206
31.8 0.28948
31.85 0.29563
31.9 0.30045
31.95 0.30558
32 0.31038
32.05 0.31616
32.1 0.32154
32.15 0.32535
32.2 0.32857
32.25 0.3326
32.3 0.336
32.35 0.33837
32.4 0.34014
32.45 0.34186
32.5 0.34371
32.55 0.34474
32.6 0.34472
32.65 0.34376
32.7 0.34209
32.75 0.33882
32.8 0.33562
32.85 0.33299
32.9 0.32975
32.95 0.32619
33 0.32219
33.05 0.31717
33.1 0.31202
33.15 0.30685
33.2 0.30052
33.25 0.29512
33.3 0.28866
33.35 0.28123
33.4 0.27341
33.45 0.26456
33.5 0.25504
33.55 0.24715
33.6 0.23859
33.65 0.23086
33.7 0.22228
33.75 0.21372
33.8 0.20626
33.85 0.19892
33.9 0.19223
33.95 0.18411
34 0.17547
34.05 0.16746
34.1 0.16044
34.15 0.15349
34.2 0.14712
34.25 0.14054
34.3 0.13338
34.35 0.12665
34.4 0.12031
34.45 0.11322
34.5 0.10531
34.55 0.09826
34.6 0.09096
34.65 0.08425
34.7 0.07839
34.75 0.07189
34.8 0.06609
34.85 0.06016
34.9 0.05359
34.95 0.04852
35 0.04449
35.05 0.0411
35.1 0.03718
35.15 0.03278
35.2 0.02901
35.25 0.02437
35.3 0.02095
35.35 0.01727
35.4 0.01399
35.45 0.01083
35.5 0.00755
35.55 0.00374
35.6 0.00018
35.65 -0.00453
35.7 -0.00906
35.75 -0.01306
35.8 -0.01597
35.85 -0.01954
35.9 -0.02131
35.95 -0.02347
36 -0.02461
36.05 -0.02599
36.1 -0.02856
36.15 -0.03071
36.2 -0.03311
36.25 -0.03466
36.3 -0.03733
36.35 -0.04098
36.4 -0.04466
36.45 -0.0487
36.5 -0.05124
36.55 -0.05312
36.6 -0.05452
36.65 -0.05536
36.7 -0.05591
36.75 -0.05672
36.8 -0.05587
36.85 -0.05461
36.9 -0.05443
36.95 -0.0545
37 -0.05369
37.05 -0.05279
37.1 -0.05261
37.15 -0.05273
37.2 -0.05257
37.25 -0.05311
37.3 -0.05294
37.35 -0.05308
37.4 -0.05328
37.45 -0.05384
37.5 -0.05468
37.55 -0.05432
37.6 -0.05439
37.65 -0.05519
37.7 -0.05535
37.75 -0.05515
37.8 -0.05461
37.85 -0.05416
37.9 -0.05328
37.95 -0.05228
38 -0.05126
38.05 -0.05098
38.1 -0.05038
38.15 -0.05091
38.2 -0.05072
38.25 -0.05057
38.3 -0.051
38.35 -0.05015
38.4 -0.05033
38.45 -0.05062
38.5 -0.05019
38.55 -0.04965
38.6 -0.04915
38.65 -0.04807
38.7 -0.04686
38.75 -0.04483
38.8 -0.04391
38.85 -0.04366
38.9 -0.04313
38.95 -0.04099
39 -0.04023
39.05 -0.03916
39.1 -0.03752
39.15 -0.0356
39.2 -0.03479
39.25 -0.03474
39.3 -0.03405
39.35 -0.0339
39.4 -0.03452
39.45 -0.03474
39.5 -0.03457
39.55 -0.03443
39.6 -0.03339
39.65 -0.03202
39.7 -0.0311
39.75 -0.03136
39.8 -0.03245
39.85 -0.03305
39.9 -0.03323
39.95 -0.03363
40 -0.03325
40.05 -0.03307
40.1 -0.03321
40.15 -0.03366
40.2 -0.03434
40.25 -0.0335
40.3 -0.03239
40.35 -0.0316
40.4 -0.03026
40.45 -0.0283
40.5 -0.02746
40.55 -0.02554
40.6 -0.02398
40.65 -0.02342
40.7 -0.02319
40.75 -0.02328
40.8 -0.0234
40.85 -0.0236
40.9 -0.02343
40.95 -0.02352
41 -0.02259
41.05 -0.02178
41.1 -0.02037
41.15 -0.01912
41.2 -0.0186
41.25 -0.01752
41.3 -0.01743
41.35 -0.01845
41.4 -0.01926
41.45 -0.01975
41.5 -0.02011
41.55 -0.02093
41.6 -0.02135
41.65 -0.02274
41.7 -0.0236
41.75 -0.02274
41.8 -0.02181
41.85 -0.02034
41.9 -0.01899
41.95 -0.01728
42 -0.01578
42.05 -0.01471
42.1 -0.01435
42.15 -0.0144
42.2 -0.01493
42.25 -0.01524
42.3 -0.01426
42.35 -0.01372
42.4 -0.01213
42.45 -0.01031
42.5 -0.01042
42.55 -0.00945
42.6 -0.0083
42.65 -0.00774
42.7 -0.0089
42.75 -0.00983
42.8 -0.01146
42.85 -0.0128
42.9 -0.014
42.95 -0.01558
43 -0.01609
43.05 -0.0154
43.1 -0.0149
43.15 -0.01395
43.2 -0.01251
43.25 -0.01093
43.3 -0.01157
43.35 -0.01053
43.4 -0.01087
43.45 -0.01127
43.5 -0.01151
43.55 -0.01169
43.6 -0.01172
43.65 -0.01116
43.7 -0.01036
43.75 -0.01001
43.8 -0.00958
43.85 -0.01008
43.9 -0.01072
43.95 -0.01
44 -0.00974
44.05 -0.00859
44.1 -0.00734
44.15 -0.00601
44.2 -0.00561
44.25 -0.00626
44.3 -0.00613
44.35 -0.0058
44.4 -0.00663
44.45 -0.00769
44.5 -0.00746
44.55 -0.00644
44.6 -0.00518
44.65 -0.00396
44.7 -0.00455
44.75 -0.00599
44.8 -0.00791
44.85 -0.00852
44.9 -0.00796
44.95 -0.00797
45 -0.00841
45.05 -0.00827
45.1 -0.00837
45.15 -0.00721
45.2 -0.0054
45.25 -0.00414
45.3 -0.00326
45.35 -0.00298
45.4 -0.00373
45.45 -0.00462
45.5 -0.00539
45.55 -0.00489
45.6 -0.0053
45.65 -0.00516
45.7 -0.0058
45.75 -0.00584
45.8 -0.00629
45.85 -0.00639
45.9 -0.0061
45.95 -0.00561
46 -0.00554
46.05 -0.00633
46.1 -0.00662
46.15 -0.00743
46.2 -0.00798
46.25 -0.00727
46.3 -0.00668
46.35 -0.0073
46.4 -0.00688
46.45 -0.00646
46.5 -0.00512
46.55 -0.00434
46.6 -0.00467
46.65 -0.00499
46.7 -0.00472
46.75 -0.00383
46.8 -0.00396
46.85 -0.00266
46.9 -0.00173
46.95 -0.00122
47 -0.00148
47.05 -0.00266
47.1 -0.00299
47.15 -0.00409
47.2 -0.00467
47.25 -0.00517
47.3 -0.00601
47.35 -0.00536
47.4 -0.00383
47.45 -0.00195
47.5 -0.00209
47.55 -0.00143
47.6 -0.00122
47.65 -0.00228
47.7 -0.00365
47.75 -0.00425
47.8 -0.00489
47.85 -0.00485
47.9 -0.00401
47.95 -0.00346
48 -0.00257
48.05 -0.00145
48.1 -0.00076
48.15 5e-05
48.2 0.00061
48.25 0.00109
48.3 0.00152
48.35 0.00087
48.4 -0.00044
48.45 -0.00122
48.5 -0.00188
48.55 -0.00216
48.6 -0.00206
48.65 -0.00266
48.7 -0.00384
48.75 -0.00424
48.8 -0.00486
48.85 -0.0055
48.9 -0.00613
48.95 -0.00564
49 -0.00446
49.05 -0.0039
49.1 -0.00379
49.15 -0.00315
49.2 -0.0023
49.25 -0.00096
49.3 2e-05
49.35 0.00137
49.4 0.00108
49.45 0.0014
49.5 0.00156
49.55 0.00192
49.6 0.00225
49.65 0.00264
49.7 0.00147
49.75 8e-04
49.8 -0.00047
49.85 -0.00103
49.9 -0.00154
49.95 -0.00083
50 0.00027
50.05 0.00084
50.1 0.00157
50.15 0.00159
50.2 0.00081
50.25 0.00026
50.3 -0.00037
50.35 -0.00122
50.4 -0.00139
50.45 -0.00163
50.5 -0.00124
50.55 -0.00137
50.6 -0.002
50.65 -0.00277
50.7 -0.00216
50.75 -0.00197
50.8 -0.00202
50.85 -0.00221
50.9 -0.00213
50.95 -0.00211
51 -0.00173
51.05 -0.00218
51.1 -0.00193
51.15 -0.00204
51.2 -0.00184
51.25 -0.0022
51.3 -0.00236
51.35 -0.00332
51.4 -0.00366
51.45 -0.00364
51.5 -0.00366
51.55 -0.00312
51.6 -0.00272
51.65 -0.00165
51.7 -0.00052
51.75 -7e-05
51.8 1e-05
51.85 -0.00047
51.9 -2e-05
51.95 0.00095
52 0.00053
52.05 0.00021
52.1 -0.00042
52.15 -0.00074
52.2 -0.00088
52.25 -0.00043
52.3 -0.00069
52.35 -0.00052
52.4 0.00013
52.45 0.00046
52.5 0.00049
52.55 -3e-04
52.6 -0.001
52.65 -0.00027
52.7 -0.0015
52.75 -0.00234
52.8 -0.00247
52.85 -0.0018
52.9 -4e-05
52.95 3e-04
53 0.00037
53.05 -0.00039
53.1 -0.00011
53.15 -0.00055
53.2 -0.00109
53.25 -0.00106
53.3 -0.00131
53.35 -0.00223
53.4 -0.0027
53.45 -0.00344
53.5 -0.0046
53.55 -0.00515
53.6 -0.00445
53.65 -0.00525
53.7 -0.00597
53.75 -0.00593
53.8 -0.00524
53.85 -0.00457
53.9 -0.00411
53.95 -0.00301
54 -0.0035
54.05 -0.00286
54.1 -0.00259
54.15 -0.00225
54.2 -0.00226
54.25 -0.00228
54.3 -0.00177
54.35 -0.00183
54.4 -0.00194
54.45 -0.00179
54.5 -0.00195
54.55 -0.00193
54.6 -0.0014
54.65 -4e-04
54.7 -0.00084
54.75 -0.00146
54.8 -0.00153
54.85 -0.00083
54.9 0.00043
54.95 0.00227
55 0.00333
55.05 0.00379
55.1 0.00405
55.15 0.00337
55.2 0.00232
55.25 0.00112
55.3 0.00117
55.35 0.00096
55.4 0.00066
55.45 0.00101
55.5 0.00013
55.55 -0.00103
55.6 -0.00214
55.65 -0.00321
55.7 -0.00353
55.75 -0.00471
55.8 -0.00625
55.85 -0.00699
55.9 -0.00669
55.95 -0.00589
56 -0.00465
56.05 -0.00321
56.1 -0.00344
56.15 -0.00348
56.2 -0.00299
56.25 -0.00201
56.3 -0.00135
56.35 -0.00071
56.4 -0.00093
56.45 -0.00188
56.5 -0.00324
56.55 -0.00371
56.6 -0.00405
56.65 -0.00404
56.7 -0.00308
56.75 -0.0021
56.8 -0.0012
56.85 -0.00065
56.9 -8e-04
56.95 -0.00072
57 -0.00081
57.05 -0.00216
57.1 -0.00289
57.15 -0.00336
57.2 -0.00263
57.25 -0.00224
57.3 -0.0025
57.35 -0.00246
57.4 -0.00253
57.45 -0.00125
57.5 -0.00074
57.55 -0.00013
57.6 -0.00021
57.65 -0.0012
57.7 -0.00149
57.75 -0.00168
57.8 -0.00206
57.85 -0.00217
57.9 -0.00148
57.95 -0.00157
58 -0.00099
58.05 -0.00029
58.1 -0.00106
58.15 -0.00057
58.2 -7e-04
58.25 -0.00123
58.3 -0.00258
58.35 -0.00364
58.4 -0.004
58.45 -0.00407
58.5 -0.00396
58.55 -0.00307
58.6 -0.00208
58.65 -0.00061
58.7 0.00064
58.75 0.0018
58.8 0.00246
58.85 0.00243
58.9 0.00179
58.95 0.00142
59 0.00022
59.05 -0.00112
59.1 -0.00141
59.15 -0.00162
59.2 -0.00068
59.25 -0.00028
59.3 0.00041
59.35 0.00044
59.4 5e-04
59.45 0.00077
59.5 0.00106
59.55 0.00212
59.6 0.00285
59.65 0.00321
59.7 0.00321
59.75 0.00295
59.8 0.00208
59.85 0.00219
59.9 0.00196
59.95 0.00215
60 0.00183
60.05 0.00129
60.1 0.00083
60.15 -3e-05
60.2 -0.00105
60.25 -0.00085
60.3 -0.00024
60.35 0.00021
60.4 0.00059
60.45 0.00077
60.5 0.00061
60.55 -0.00045
60.6 -0.00114
60.65 -0.00074
60.7 0.00042
60.75 -0.00023
60.8 -0.00087
60.85 -0.00119
60.9 -0.00078
60.95 -0.00032
61 0.00082
61.05 0.00085
61.1 0.00025
61.15 0.00035
61.2 0.00121
61.25 0.00145
61.3 0.00281
61.35 0.00295
61.4 0.0019
61.45 0.00042
61.5 0.00065
61.55 0.00105
61.6 0.00192
61.65 0.00222
61.7 0.00221
61.75 0.00184
61.8 0.00202
61.85 0.00188
61.9 0.00118
61.95 0.0018
62 0.00149
62.05 0.00135
62.1 0.0018
62.15 0.00108
62.2 0.00106
62.25 0.00129
62.3 0.00161
62.35 0.00193
62.4 0.00265
62.45 0.00313
62.5 0.0037
62.55 0.00418
62.6 0.00366
62.65 0.00217
62.7 -2e-05
62.75 -0.0016
62.8 -0.00222
62.85 -0.00196
62.9 -0.00177
62.95 -0.00184
63 -0.00274
63.05 -0.00263
63.1 -0.003
63.15 -0.0021
63.2 -0.00044
63.25 0.00092
63.3 0.0012
63.35 0.00102
63.4 0.00173
63.45 0.00179
63.5 0.00141
63.55 0.00067
63.6 -0.00012
63.65 0
63.7 -1e-05
63.75 9e-05
63.8 -0.00039
63.85 -0.00088
63.9 -0.00128
63.95 -0.0028
64 -0.00452
64.05 -0.0046
64.1 -0.00401
64.15 -0.00344
64.2 -0.00283
64.25 -0.00102
64.3 7e-05
64.35 0.00064
64.4 5e-04
64.45 0.00071
64.5 0.00095
64.55 0.00093
64.6 0.00015
64.65 -0.00094
64.7 -0.00056
64.75 -0.00018
64.8 -0.00052
64.85 -0.00105
64.9 -0.00158
64.95 -0.0013
65 -0.00191
65.05 -0.00305
65.1 -0.00284
65.15 -0.0025
65.2 -0.0019
65.25 -0.00054
65.3 6e-05
65.35 -0.00076
65.4 -7e-04
65.45 -0.00113
65.5 -0.00137
65.55 -0.00208
65.6 -0.00248
65.65 -0.00236
65.7 -0.00198
65.75 -0.00196
65.8 -0.00295
65.85 -0.00368
65.9 -0.00495
65.95 -0.00509
66 -0.00562
66.05 -0.00524
66.1 -0.00469
66.15 -0.00454
66.2 -0.00327
66.25 -0.0023
66.3 -0.00187
66.35 -0.00191
66.4 -0.00263
66.45 -0.00271
66.5 -0.00256
66.55 -0.00275
66.6 -0.00288
66.65 -0.00226
66.7 -0.00061
66.75 0.00061
66.8 0.00031
66.85 3e-05
66.9 5e-04
66.95 0.00158
67 0.00275
67.05 0.00383
67.1 0.0042
67.15 0.00376
67.2 0.00318
67.25 0.00252
67.3 0.00179
67.35 0.00029
67.4 -0.00129
67.45 -0.00086
67.5 -0.00189
67.55 -0.00247
67.6 -0.00263
67.65 -0.00247
67.7 -0.00118
67.75 9e-04
67.8 0.00169
67.85 0.00239
67.9 0.00267
67.95 0.00209
68 0.00145
68.05 0.00158
68.1 0.00105
68.15 0.00074
68.2 -0.00062
68.25 -0.00103
68.3 -0.00219
68.35 -0.00195
68.4 -0.00206
68.45 -0.00233
68.5 -0.0019
68.55 -8e-04
68.6 0.00019
68.65 0.00046
68.7 0.00032
68.75 -0.00018
68.8 -0.00018
68.85 -0.00032
68.9 -0.00018
68.95 -0.00012
69 -4e-04
69.05 -0.00136
69.1 -0.00235
69.15 -0.00299
69.2 -0.00218
69.25 -0.00169
69.3 -0.00067
69.35 0.00014
69.4 0.00058
69.45 0.00113
69.5 0.00234
69.55 0.00161
69.6 0.00065
69.65 -9e-04
69.7 -0.0026
69.75 -0.0032
69.8 -0.00392
69.85 -0.00441
69.9 -0.00385
69.95 -0.00235
70 -0.00139
70.05 -0.00086
70.1 -0.00066
70.15 -0.00081
70.2 -0.00017
70.25 -0.00054
70.3 0.00023
70.35 0.00129
70.4 0.00075
70.45 0.00096
70.5 0.00086
70.55 0.00014
70.6 1e-05
70.65 0.00064
70.7 0.00036
70.75 0.00057
70.8 0.00012
70.85 -0.00029
70.9 -0.00029
70.95 -0.00046
71 -0.00081
71.05 -0.00117
71.1 -0.00099
71.15 -0.00226
71.2 -0.00198
71.25 -0.00279
71.3 -0.00359
71.35 -0.00396
71.4 -0.00346
71.45 -0.00326
71.5 -0.00266
71.55 -0.00239
71.6 -0.0021
71.65 -0.00157
71.7 -0.00121
71.75 -0.00195
71.8 -0.00248
71.85 -0.00351
71.9 -0.00367
71.95 -0.0037
72 -0.00352
72.05 -0.00333
72.1 -0.00182
72.15 -0.00095
72.2 9e-05
72.25 0.00036
72.3 0.00012
72.35 7e-05
72.4 0.00044
72.45 6e-04
72.5 0.00024
72.55 -8e-04
72.6 -0.00085
72.65 -0.00083
72.7 -0.00025
72.75 0.00035
72.8 0.00217
72.85 0.00308
72.9 0.00334
72.95 0.00354
73 0.00435
73.05 0.004
73.1 0.00494
73.15 0.00465
73.2 0.00433
73.25 0.00334
73.3 0.00251
73.35 0.00116
73.4 -0.00049
73.45 -0.00129
73.5 -0.00138
73.55 -0.00108
73.6 -0.00073
73.65 -0.00105
73.7 -0.0018
73.75 -0.00152
73.8 -0.00181
73.85 -0.00228
73.9 -0.00189
73.95 -0.00218
74 -0.00143
74.05 0.00024
74.1 0.00192
74.15 0.00303
74.2 0.00321
74.25 0.00265
74.3 0.0017
74.35 0.00149
74.4 0.00022
74.45 -0.00136
74.5 -0.0028
74.55 -0.00436
74.6 -0.00482
74.65 -0.00434
74.7 -0.00385
74.75 -0.00331
74.8 -0.00289
74.85 -0.00268
74.9 -0.00129
74.95 -0.00052
75 8e-04
75.05 0.00175
75.1 0.00252
75.15 0.00285
75.2 0.00318
75.25 0.00225
75.3 0.00205
75.35 0.00165
75.4 0.00135
75.45 0.00116
75.5 0.00126
75.55 0.00043
75.6 9e-05
75.65 9e-05
75.7 0.00081
75.75 0.00234
75.8 0.00348
75.85 0.00434
75.9 0.00481
75.95 0.00451
76 0.004
76.05 0.00245
76.1 6e-04
76.15 -0.00155
76.2 -0.00277
76.25 -0.00261
76.3 -0.00176
76.35 -0.00072
76.4 0.00058
76.45 0.00203
76.5 0.0019
76.55 0.00092
76.6 0.00051
76.65 0.00105
76.7 0.00189
76.75 0.00197
76.8 0.00112
76.85 1e-04
76.9 4e-05
76.95 -0.00125
77 -0.00262
77.05 -0.00358
77.1 -0.00374
77.15 -0.00259
77.2 -0.00229
77.25 -0.00256
77.3 -0.00208
77.35 -0.00137
77.4 0.00014
77.45 0.00189
77.5 0.00248
77.55 0.00131
77.6 0.00094
77.65 3e-05
77.7 -0.00071
77.75 -0.00065
77.8 -1e-04
77.85 0.00029
77.9 0.00072
77.95 0.00136
78 0.00171
78.05 0.00201
78.1 0.00156
78.15 0.0013
78.2 0.00033
78.25 -0.00138
78.3 -0.00264
78.35 -0.00297
78.4 -0.0025
78.45 -0.00176
78.5 -0.00155
78.55 -0.00149
78.6 -0.00064
78.65 -7e-04
78.7 -0.00138
78.75 -0.00167
78.8 -0.00188
78.85 -0.00222
78.9 -0.00163
78.95 -0.00096
79 -0.00095
79.05 -4e-04
79.1 -0.00081
79.15 -0.00203
79.2 -0.00301
79.25 -0.00285
79.3 -0.0026
79.35 -0.00305
79.4 -0.00367
79.45 -0.00311
79.5 -0.00265
79.55 -0.00275
79.6 -0.00131
79.65 1e-05
79.7 0.00082
79.75 0.00065
79.8 0.00058
79.85 0.00027
79.9 0.00067
79.95 0.00159
80 0.00238
80.05 0.00302
80.1 0.00437
80.15 0.00457
80.2 0.00365
80.25 0.00178
80.3 0.00042
80.35 -0.00092
80.4 -0.00065
80.45 -0.00022
80.5 5e-04
80.55 0.00226
80.6 0.00324
80.65 0.0032
80.7 0.00268
80.75 0.00227
80.8 0.00226
80.85 0.00176
80.9 0.00192
80.95 0.00158
81 0.00082
81.05 0.00122
81.1 0.00205
81.15 0.00218
81.2 0.00261
81.25 0.0027
81.3 0.00214
81.35 0.00175
81.4 0.00152
81.45 0.00208
81.5 0.00275
81.55 0.00208
81.6 0.00142
81.65 0.00048
81.7 -3e-05
81.75 -0.00114
81.8 -0.00228
81.85 -0.0025
81.9 -0.00282
81.95 -0.00275
82 -0.00239
82.05 -0.00354
82.1 -0.00408
82.15 -0.00492
82.2 -0.00492
82.25 -0.00397
82.3 -0.0034
82.35 -0.0036
82.4 -0.00311
82.45 -0.00169
82.5 -0.00044
82.55 0.00032
82.6 0.00056
82.65 0.00055
82.7 0.00083
82.75 0.00162
82.8 0.00336
82.85 0.00304
82.9 0.00203
82.95 0.00137
83 0.00032
83.05 0.00021
83.1 0.00133
83.15 0.00177
83.2 0.00181
83.25 0.00091
83.3 0.00029
83.35 0.00065
83.4 0.00084
83.45 0.00069
83.5 0.00032
83.55 -0.00075
83.6 -9e-04
83.65 -7e-05
83.7 0
83.75 -0.00112
83.8 -0.0018
83.85 -0.0041
83.9 -0.00556
83.95 -0.00631
84 -0.00592
84.05 -0.00698
84.1 -0.00718
84.15 -0.00659
84.2 -0.00608
84.25 -0.00578
84.3 -0.00553
84.35 -0.00492
84.4 -0.00462
84.45 -0.00465
84.5 -0.00391
84.55 -0.0043
84.6 -0.00448
84.65 -0.00424
84.7 -0.00429
84.75 -0.00425
84.8 -0.00386
84.85 -0.00334
84.9 -0.00269
84.95 -0.00135
85 -0.00084
85.05 -0.00083
85.1 -0.00134
85.15 -0.001
85.2 0.00031
85.25 0.00178
85.3 0.00282
85.35 0.00281
85.4 0.00325
85.45 0.00393
85.5 0.00504
85.55 0.00552
85.6 0.00589
85.65 0.00466
85.7 0.00336
85.75 0.00186
85.8 0.00139
85.85 0.00141
85.9 0.0014
85.95 0.00017
86 -0.00145
86.05 -0.00224
86.1 -0.00218
86.15 -0.00222
86.2 -0.00153
86.25 -0.00103
86.3 -0.00053
86.35 7e-05
86.4 0.00146
86.45 0.00187
86.5 0.00161
86.55 0.00104
86.6 0.00059
86.65 0.00023
86.7 0.00031
86.75 0.00072
86.8 0.00086
86.85 0.00154
86.9 0.00232
86.95 0.00174
87 0.00182
87.05 0.00254
87.1 0.00294
87.15 0.00413
87.2 0.00377
87.25 0.00412
87.3 0.00411
87.35 0.00423
87.4 0.00309
87.45 0.00276
87.5 0.0021
87.55 -0.00027
87.6 -0.00123
87.65 -0.00084
87.7 -0.00065
87.75 -0.00038
87.8 -6e-05
87.85 -0.00011
87.9 0.00034
87.95 0.00124
88 0.00037
88.05 0.00031
88.1 -0.00086
88.15 -0.0021
88.2 -0.00269
88.25 -0.00305
88.3 -0.00282
88.35 -0.002
88.4 -0.00104
88.45 0.00015
88.5 0.00021
88.55 -0.00076
88.6 -0.00175
88.65 -0.00228
88.7 -0.00266
88.75 -0.00232
88.8 -0.00253
88.85 -0.00346
88.9 -0.00344
88.95 -0.00389
89 -0.00394
89.05 -0.00416
89.1 -0.00497
89.15 -0.00549
89.2 -0.00548
89.25 -0.00476
89.3 -0.0039
89.35 -0.00211
89.4 -0.00034
89.45 0.00133
89.5 0.00215
89.55 0.00207
89.6 0.00162
89.65 0.00178
89.7 0.00166
89.75 0.00044
89.8 -0.00015
89.85 -0.00058
89.9 -0.00148
89.95 -0.00286
90 -0.00424
90.05 -0.00537
90.1 -0.0058
90.15 -0.00608
90.2 -0.00714
90.25 -0.00799
90.3 -0.00747
90.35 -0.00623
90.4 -0.00418
90.45 -0.00168
90.5 -0.00029
90.55 0.00035
90.6 -0.00015
90.65 -0.0012
90.7 -0.00168
90.75 -0.00232
90.8 -0.00233
90.85 -0.00183
90.9 -0.00123
90.95 -0.00043
91 -0.00045
91.05 -0.00021
91.1 0.00104
91.15 0.00237
91.2 0.00417
91.25 0.00487
91.3 0.00525
91.35 0.00608
91.4 0.00591
91.45 0.0046
91.5 0.00347
91.55 0.00229
91.6 0.00153
91.65 0.0012
91.7 0.00032
91.75 -0.00048
91.8 -0.00113
91.85 -0.0013
91.9 -0.00151
91.95 -0.00144
92 -0.00123
92.05 -0.00098
92.1 -0.00199
92.15 -0.00177
92.2 -0.00179
92.25 -0.00214
92.3 -0.00216
92.35 -0.00191
92.4 -0.00094
92.45 9e-05
92.5 0.00033
92.55 0.00047
92.6 -0.00061
92.65 -0.00022
92.7 2e-04
92.75 0.00066
92.8 0.00107
92.85 0.00074
92.9 0.00076
92.95 6e-04
93 1e-05
93.05 -0.00091
93.1 -0.00081
93.15 -0.00203
93.2 -0.00226
93.25 -0.00162
93.3 0.00032
93.35 0.00134
93.4 0.0018
93.45 0.00217
93.5 0.00268
93.55 0.00374
93.6 0.00444
93.65 0.00362
93.7 0.00273
93.75 0.00101
93.8 -0.00057
93.85 -0.00225
93.9 -0.00258
93.95 -0.00254
94 -0.00286
94.05 -0.00312
94.1 -0.00274
94.15 -0.0026
94.2 -0.0023
94.25 -0.00221
94.3 -0.00195
94.35 -0.00192
94.4 -0.00182
94.45 -0.00207
94.5 -0.00335
94.55 -0.0039
94.6 -0.00373
94.65 -0.00414
94.7 -0.00411
94.75 -0.00403
94.8 -0.00389
94.85 -0.00406
94.9 -0.0039
94.95 -0.00355
95 -0.00233
95.05 -0.00087
95.1 0.00119
95.15 0.00268
95.2 0.00307
95.25 0.00308
95.3 0.00211
95.35 0.00172
95.4 0.00229
95.45 0.00188
95.5 0.00062
95.55 -0.00046
95.6 -0.00132
95.65 -0.00159
95.7 -0.00266
95.75 -0.00333
95.8 -0.00253
95.85 -0.00261
95.9 -0.00249
95.95 -0.00212
96 -0.00129
96.05 -0.00127
96.1 -0.00118
96.15 -9e-04
96.2 -0.00126
96.25 -0.00169
96.3 -0.00111
96.35 5e-05
96.4 0.00109
96.45 0.00154
96.5 0.00247
96.55 0.00277
96.6 0.00294
96.65 0.00233
96.7 0.00114
96.75 0.00058
96.8 -0.00098
96.85 -0.00144
96.9 -0.00173
96.95 -0.00053
97 0.00072
97.05 -2e-05
97.1 -0.00059
97.15 -0.00058
97.2 -0.00069
97.25 -7e-04
97.3 -0.00046
97.35 -0.00111
97.4 -0.00107
97.45 2e-05
97.5 0.00129
97.55 0.0015
97.6 0.00247
97.65 0.00214
97.7 0.00121
97.75 0.00029
97.8 -1e-05
97.85 -4e-04
97.9 -0.00102
97.95 -0.00053
98 -0.00022
98.05 0.00089
98.1 0.00211
98.15 0.00315
98.2 0.00364
98.25 0.00368
98.3 0.00259
98.35 0.002
98.4 0.00085
98.45 0.00015
98.5 -0.00023
98.55 -0.00171
98.6 -0.00344
98.65 -0.0038
98.7 -0.0041
98.75 -0.00423
98.8 -0.00518
98.85 -0.00568
98.9 -0.0057
98.95 -0.00455
99 -0.00335
99.05 -0.00151
99.1 -0.00131
99.15 -0.00068
99.2 -0.00071
99.25 -0.00075
99.3 -0.0018
99.35 -0.00244
99.4 -0.00327
99.45 -0.00323
99.5 -0.00331
99.55 -0.00299
99.6 -0.00341
99.65 -0.00353
99.7 -0.00285
99.75 -0.00264
99.8 -0.00216
99.85 -0.00157
99.9 -0.00142
99.95 -0.001
