0 0
0.05 0.00417
0.1 0.01108
0.15 0.01899
0.2 0.02591
0.25 0.03258
0.3 0.0386
0.35 0.04361
0.4 0.04731
0.45 0.04911
0.5 0.05092
0.55 0.05268
0.6 0.05444
0.65 0.05432
0.7 0.0535
0.75 0.05269
0.8 0.05162
0.85 0.04976
0.9 0.04734
0.95 0.04412
1 0.04082
1.05 0.03802
1.1 0.0363
1.15 0.03551
1.2 0.03569
1.25 0.03567
1.3 0.03521
1.35 0.03445
1.4 0.035
1.45 0.03623
1.5 0.03695
1.55 0.03711
1.6 0.03814
1.65 0.0389
1.7 0.03886
1.75 0.0378
1.8 0.03691
1.85 0.03421
1.9 0.03127
1.95 0.02978
2 0.02839
2.05 0.02806
2.1 0.02793
2.15 0.02806
2.2 0.02724
2.25 0.0258
2.3 0.02438
2.35 0.02364
2.4 0.02432
2.45 0.02466
2.5 0.02552
2.55 0.02568
2.6 0.02505
2.65 0.02491
2.7 0.02472
2.75 0.0246
2.8 0.02451
2.85 0.02391
2.9 0.02373
2.95 0.02321
3 0.02295
3.05 0.02299
3.1 0.023
3.15 0.02233
3.2 0.02234
3.25 0.02286
3.3 0.0231
3.35 0.02248
3.4 0.02206
3.45 0.0216
3.5 0.02124
3.55 0.02017
3.6 0.01931
3.65 0.01813
3.7 0.01791
3.75 0.018
3.8 0.01805
3.85 0.01712
3.9 0.01558
3.95 0.0137
4 0.01206
4.05 0.01148
4.1 0.00993
4.15 0.00814
4.2 0.00665
4.25 0.00574
4.3 0.00479
4.35 0.00309
4.4 -0.00037
4.45 -0.0051
4.5 -0.01239
4.55 -0.02126
4.6 -0.03165
4.65 -0.04525
4.7 -0.06193
4.75 -0.0815
4.8 -0.10318
4.85 -0.12855
4.9 -0.15714
4.95 -0.18977
5 -0.22744
5.05 -0.2703
5.1 -0.31821
5.15 -0.37227
5.2 -0.43195
5.25 -0.497
5.3 -0.56806
5.35 -0.64454
5.4 -0.72567
5.45 -0.81092
5.5 -0.89935
5.55 -0.99066
5.6 -1.08397
5.65 -1.17777
5.7 -1.27184
5.75 -1.36482
5.8 -1.45625
5.85 -1.54534
5.9 -1.63151
5.95 -1.71504
6 -1.79478
6.05 -1.87109
6.1 -1.94387
6.15 -2.01243
6.2 -2.07665
6.25 -2.13698
6.3 -2.1933
6.35 -2.24399
6.4 -2.2879
6.45 -2.32558
6.5 -2.35614
6.55 -2.37758
6.6 -2.38941
6.65 -2.3912
6.7 -2.3822
6.75 -2.36111
6.8 -2.32732
6.85 -2.27924
6.9 -2.21672
6.95 -2.13717
7 -2.04095
7.05 -1.92948
7.1 -1.80324
7.15 -1.66307
7.2 -1.51048
7.25 -1.34592
7.3 -1.17168
7.35 -0.98938
7.4 -0.80107
7.45 -0.60788
7.5 -0.4113
7.55 -0.21394
7.6 -0.01797
7.65 0.17443
7.7 0.36244
7.75 0.54357
7.8 0.71697
7.85 0.88105
7.9 1.03486
7.95 1.17775
8 1.31062
8.05 1.43236
8.1 1.54205
8.15 1.64142
8.2 1.73012
8.25 1.8082
8.3 1.87531
8.35 1.93192
8.4 1.98027
8.45 2.02191
8.5 2.05571
8.55 2.0819
8.6 2.10175
8.65 2.11574
8.7 2.12497
8.75 2.12867
8.8 2.12791
8.85 2.12399
8.9 2.11854
8.95 2.10948
9 2.09847
9.05 2.08545
9.1 2.07064
9.15 2.0535
9.2 2.03529
9.25 2.01658
9.3 1.99792
9.35 1.97837
9.4 1.95847
9.45 1.93673
9.5 1.91412
9.55 1.89134
9.6 1.86666
9.65 1.84056
9.7 1.81301
9.75 1.78483
9.8 1.75441
9.85 1.72319
9.9 1.69063
9.95 1.65681
10 1.62244
10.05 1.58721
10.1 1.55045
10.15 1.51156
10.2 1.47251
10.25 1.43256
10.3 1.39087
10.35 1.34872
10.4 1.30617
10.45 1.26378
10.5 1.22122
10.55 1.17833
10.6 1.13389
10.65 1.08747
10.7 1.04144
10.75 0.99661
10.8 0.95205
10.85 0.90805
10.9 0.86471
10.95 0.8214
11 0.77781
11.05 0.73321
11.1 0.68982
11.15 0.64713
11.2 0.60446
11.25 0.56145
11.3 0.52037
11.35 0.48026
11.4 0.44122
11.45 0.40261
11.5 0.36435
11.55 0.32686
11.6 0.28993
11.65 0.25346
11.7 0.21879
11.75 0.18558
11.8 0.15273
11.85 0.12134
11.9 0.09212
11.95 0.06406
12 0.03673
12.05 0.01134
12.1 -0.01358
12.15 -0.03848
12.2 -0.06215
12.25 -0.08421
12.3 -0.10607
12.35 -0.12636
12.4 -0.14582
12.45 -0.16374
12.5 -0.18121
12.55 -0.1977
12.6 -0.21303
12.65 -0.22759
12.7 -0.24079
12.75 -0.25352
12.8 -0.26611
12.85 -0.27708
12.9 -0.28689
12.95 -0.29665
13 -0.30651
13.05 -0.3146
13.1 -0.32171
13.15 -0.32747
13.2 -0.33172
13.25 -0.33551
13.3 -0.33803
13.35 -0.34117
13.4 -0.34386
13.45 -0.34659
13.5 -0.34931
13.55 -0.35092
13.6 -0.35275
13.65 -0.35443
13.7 -0.35617
13.75 -0.35673
13.8 -0.35778
13.85 -0.35763
13.9 -0.35726
13.95 -0.35557
14 -0.35337
14.05 -0.35053
14.1 -0.34888
14.15 -0.3467
14.2 -0.34467
14.25 -0.34194
14.3 -0.34037
14.35 -0.33954
14.4 -0.33838
14.45 -0.3349
14.5 -0.33109
14.55 -0.32781
14.6 -0.32429
14.65 -0.32101
14.7 -0.31731
14.75 -0.31313
14.8 -0.30917
14.85 -0.30375
14.9 -0.29893
14.95 -0.29469
15 -0.29073
15.05 -0.28638
15.1 -0.28303
15.15 -0.27972
15.2 -0.27619
15.25 -0.27223
15.3 -0.26819
15.35 -0.26424
15.4 -0.26022
15.45 -0.25634
15.5 -0.2522
15.55 -0.24802
15.6 -0.24491
15.65 -0.24109
15.7 -0.23772
15.75 -0.23524
15.8 -0.23258
15.85 -0.23008
15.9 -0.22743
15.95 -0.22471
16 -0.22053
16.05 -0.2161
16.1 -0.21227
16.15 -0.20884
16.2 -0.20495
16.25 -0.20178
16.3 -0.19763
16.35 -0.194
16.4 -0.19063
16.45 -0.18759
16.5 -0.18498
16.55 -0.18167
16.6 -0.17805
16.65 -0.17394
16.7 -0.17071
16.75 -0.16782
16.8 -0.16576
16.85 -0.16364
16.9 -0.16243
16.95 -0.15991
17 -0.15717
17.05 -0.15442
17.1 -0.15225
17.15 -0.1506
17.2 -0.14875
17.25 -0.14669
17.3 -0.14432
17.35 -0.14163
17.4 -0.13934
17.45 -0.13791
17.5 -0.13595
17.55 -0.13491
17.6 -0.1336
17.65 -0.13369
17.7 -0.13208
17.75 -0.12955
17.8 -0.12652
17.85 -0.12345
17.9 -0.12051
17.95 -0.11888
18 -0.1172
18.05 -0.11541
18.1 -0.11287
18.15 -0.11018
18.2 -0.10736
18.25 -0.10586
18.3 -0.10383
18.35 -0.10299
18.4 -0.10141
18.45 -0.09925
18.5 -0.09705
18.55 -0.09625
18.6 -0.09555
18.65 -0.09536
18.7 -0.09522
18.75 -0.09483
18.8 -0.09419
18.85 -0.0938
18.9 -0.09343
18.95 -0.09327
19 -0.09331
19.05 -0.09161
19.1 -0.08892
19.15 -0.08603
19.2 -0.08258
19.25 -0.07874
19.3 -0.07593
19.35 -0.07401
19.4 -0.07087
19.45 -0.06913
19.5 -0.06913
19.55 -0.06864
19.6 -0.06854
19.65 -0.06807
19.7 -0.06788
19.75 -0.0678
19.8 -0.06771
19.85 -0.0678
19.9 -0.06706
19.95 -0.06587
20 -0.06529
20.05 -0.06438
20.1 -0.06273
20.15 -0.06121
20.2 -0.06003
20.25 -0.05777
20.3 -0.05607
20.35 -0.05486
20.4 -0.05382
20.45 -0.05264
20.5 -0.05208
20.55 -0.05126
20.6 -0.05051
20.65 -0.05026
20.7 -0.04965
20.75 -0.04923
20.8 -0.04876
20.85 -0.04686
20.9 -0.04511
20.95 -0.04377
21 -0.04292
21.05 -0.04194
21.1 -0.04147
21.15 -0.04057
21.2 -0.04065
21.25 -0.04053
21.3 -0.0407
21.35 -0.04122
21.4 -0.0412
21.45 -0.04043
21.5 -0.0388
21.55 -0.03774
21.6 -0.03653
21.65 -0.03558
21.7 -0.03434
21.75 -0.03306
21.8 -0.033
21.85 -0.03316
21.9 -0.03434
21.95 -0.03455
22 -0.03442
22.05 -0.03453
22.1 -0.0338
22.15 -0.03268
22.2 -0.03125
22.25 -0.0305
22.3 -0.03011
22.35 -0.02885
22.4 -0.02819
22.45 -0.0282
22.5 -0.02789
22.55 -0.02716
22.6 -0.02667
22.65 -0.02558
22.7 -0.02531
22.75 -0.02466
22.8 -0.0247
22.85 -0.02453
22.9 -0.02512
22.95 -0.02403
23 -0.0237
23.05 -0.02286
23.1 -0.02209
23.15 -0.02204
23.2 -0.02204
23.25 -0.02189
23.3 -0.02136
23.35 -0.01964
23.4 -0.01884
23.45 -0.01869
23.5 -0.01866
23.55 -0.01847
23.6 -0.01886
23.65 -0.01944
23.7 -0.02005
23.75 -0.02031
23.8 -0.02013
23.85 -0.02015
23.9 -0.02057
23.95 -0.0213
24 -0.02223
24.05 -0.02187
24.1 -0.02183
24.15 -0.02137
24.2 -0.02063
24.25 -0.0187
24.3 -0.01799
24.35 -0.01784
24.4 -0.01772
24.45 -0.01746
24.5 -0.018
24.55 -0.01747
24.6 -0.01698
24.65 -0.0162
24.7 -0.01571
24.75 -0.0141
24.8 -0.01218
24.85 -0.01117
24.9 -0.01176
24.95 -0.01186
25 -0.01194
25.05 -0.01179
25.1 -0.01126
25.15 -0.01092
25.2 -0.01097
25.25 -0.01082
25.3 -0.01014
25.35 -0.01001
25.4 -0.01008
25.45 -0.00988
25.5 -0.01043
25.55 -0.0104
25.6 -0.01076
25.65 -0.01171
25.7 -0.01232
25.75 -0.01174
25.8 -0.01188
25.85 -0.01292
25.9 -0.01391
25.95 -0.01416
26 -0.01424
26.05 -0.0147
26.1 -0.01604
26.15 -0.01708
26.2 -0.01711
26.25 -0.01701
26.3 -0.01672
26.35 -0.01578
26.4 -0.01392
26.45 -0.01142
26.5 -0.00967
26.55 -0.00783
26.6 -0.0076
26.65 -0.00773
26.7 -0.00734
26.75 -0.00692
26.8 -0.00741
26.85 -0.00716
26.9 -0.0069
26.95 -0.00618
27 -0.00582
27.05 -0.00462
27.1 -0.00446
27.15 -0.00514
27.2 -0.00557
27.25 -0.00564
27.3 -0.00701
27.35 -0.00786
27.4 -0.00884
27.45 -0.00969
27.5 -0.00998
27.55 -0.00911
27.6 -0.00815
27.65 -0.007
27.7 -0.00595
27.75 -0.00547
27.8 -0.00541
27.85 -0.0054
27.9 -0.00529
27.95 -0.00581
28 -0.00648
28.05 -0.00623
28.1 -0.00553
28.15 -0.00466
28.2 -0.00274
28.25 -0.00098
28.3 -2e-04
28.35 -0.00065
28.4 -0.00153
28.45 -0.00154
28.5 -0.00187
28.55 -0.00199
28.6 -0.00277
28.65 -0.00312
28.7 -0.00423
28.75 -0.00504
28.8 -0.00631
28.85 -0.00699
28.9 -0.00742
28.95 -0.00715
29 -0.00604
29.05 -0.0052
29.1 -0.003
29.15 -0.00256
29.2 -0.00262
29.25 -0.00274
29.3 -0.00208
29.35 -0.00162
29.4 -0.00221
29.45 -0.00199
29.5 -0.00181
29.55 -0.00184
29.6 -0.00158
29.65 -0.00191
29.7 -0.00291
29.75 -0.00308
29.8 -0.00324
29.85 -0.00281
29.9 -0.00302
29.95 -0.00242
30 -0.00208
30.05 -0.00253
30.1 -0.00268
30.15 -0.00355
30.2 -0.0037
30.25 -0.00416
30.3 -0.00527
30.35 -0.00595
30.4 -0.00573
30.45 -0.00608
30.5 -0.00598
30.55 -0.00503
30.6 -0.00563
30.65 -0.00612
30.7 -0.00615
30.75 -0.00602
30.8 -0.00631
30.85 -0.00555
30.9 -0.00532
30.95 -0.00503
31 -0.00421
31.05 -0.00468
31.1 -0.00443
31.15 -0.00386
31.2 -0.00374
31.25 -0.00446
31.3 -0.00506
31.35 -0.00464
31.4 -0.00372
31.45 -0.00238
31.5 -0.00144
31.55 -0.00069
31.6 -0.00121
31.65 -0.00101
31.7 -0.00106
31.75 -0.00037
31.8 0.00018
31.85 0.00098
31.9 0.00117
31.95 0.00092
32 0.00044
32.05 -9e-05
32.1 0.00056
32.15 0.00114
32.2 0.00163
32.25 0.00123
32.3 0.00112
32.35 0.00091
32.4 0.00035
32.45 5e-04
32.5 0.00149
32.55 0.00202
32.6 0.00064
32.65 -0.00026
32.7 -0.00117
32.75 -0.00195
32.8 -0.00297
32.85 -0.00349
32.9 -0.00323
32.95 -0.0027
33 -0.00229
33.05 -0.00175
33.1 -0.00148
33.15 -0.00045
33.2 0.00028
33.25 0.00052
33.3 -0.00044
33.35 -0.00218
33.4 -0.00288
33.45 -0.00242
33.5 -0.00237
33.55 -0.00176
33.6 -0.00047
33.65 0.00095
33.7 0.00157
33.75 0.00236
33.8 0.00238
33.85 0.00187
33.9 0.00097
33.95 0.00044
34 0.00012
34.05 0.00028
34.1 0.00018
34.15 0.00033
34.2 0.00034
34.25 -0.00072
34.3 -0.00209
34.35 -0.00249
34.4 -0.00215
34.45 -0.00214
34.5 -0.00233
34.55 -0.00254
34.6 -0.00259
34.65 -0.00199
34.7 -0.00159
34.75 -0.00152
34.8 -0.00038
34.85 0.00089
34.9 0.00069
34.95 0.00061
35 0.00073
35.05 0.00175
35.1 0.00099
35.15 0.00074
35.2 -9e-05
35.25 -0.00076
35.3 -0.00089
35.35 -0.00143
35.4 -0.00145
35.45 -0.00181
35.5 -0.00083
35.55 0.00094
35.6 0.00156
35.65 0.00164
35.7 9e-04
35.75 0.00082
35.8 0.00136
35.85 0.00111
35.9 0.00059
35.95 0.00016
36 -0.00027
36.05 -0.00147
36.1 -0.00231
36.15 -0.003
36.2 -0.00404
36.25 -0.00471
36.3 -0.00431
36.35 -0.00433
36.4 -0.00474
36.45 -0.00411
36.5 -0.00182
36.55 -0.00018
36.6 -3e-05
36.65 -0.00108
36.7 -0.00147
36.75 -0.00208
36.8 -0.00279
36.85 -0.00229
36.9 -0.00216
36.95 -0.00141
37 -0.00153
37.05 -0.0019
37.1 -0.00139
37.15 -0.00158
37.2 -0.00173
37.25 -0.00213
37.3 -0.00193
37.35 -0.00148
37.4 -0.00223
37.45 -0.00254
37.5 -0.00251
37.55 -0.00127
37.6 -0.00179
37.65 -0.00264
37.7 -0.00256
37.75 -0.00284
37.8 -0.00303
37.85 -0.0034
37.9 -0.00215
37.95 -0.00111
38 -0.00012
38.05 0.00019
38.1 -7e-05
38.15 3e-05
38.2 0.00017
38.25 0.00146
38.3 0.00123
38.35 0.00072
38.4 0.00051
38.45 0.00065
38.5 0.00172
38.55 0.00279
38.6 0.00345
38.65 0.00387
38.7 0.00363
38.75 0.00304
38.8 0.00287
38.85 0.0023
38.9 0.0024
38.95 0.00241
39 0.00273
39.05 0.00247
39.1 0.00242
39.15 0.00164
39.2 0.0016
39.25 0.00186
39.3 0.003
39.35 0.00334
39.4 0.00325
39.45 0.00358
39.5 0.00307
39.55 0.00218
39.6 0.00201
39.65 0.00127
39.7 9e-05
39.75 -0.00066
39.8 -0.00073
39.85 -0.00107
39.9 -0.00122
39.95 -0.00166
40 -0.00077
40.05 -0.00029
40.1 1e-05
40.15 -0.00016
40.2 0.00015
40.25 0.00051
40.3 -0.00031
40.35 -6e-04
40.4 -0.00199
40.45 -0.0024
40.5 -0.00213
40.55 -0.0013
40.6 -0.00109
40.65 -0.00154
40.7 -0.00135
40.75 -8e-04
40.8 -0.00042
40.85 -0.00107
40.9 -0.00214
40.95 -0.00158
41 -0.00145
41.05 -0.00232
41.1 -0.00229
41.15 -0.00197
41.2 -0.00274
41.25 -0.00283
41.3 -0.00192
41.35 -0.00258
41.4 -0.00289
41.45 -0.00287
41.5 -0.00327
41.55 -0.00234
41.6 -0.002
41.65 -0.00219
41.7 -0.00092
41.75 3e-05
41.8 1e-05
41.85 -0.00017
41.9 -0.00046
41.95 -0.00094
42 -0.00182
42.05 -0.00168
42.1 -0.00134
42.15 -0.00052
42.2 0.00032
42.25 0.00089
42.3 0.00175
42.35 0.00209
42.4 0.00239
42.45 0.00216
42.5 0.00287
42.55 0.00242
42.6 0.00227
42.65 0.00186
42.7 0.00188
42.75 0.00162
42.8 0.0012
42.85 0.00137
42.9 0.002
42.95 0.00278
43 0.00353
43.05 0.00356
43.1 0.00313
43.15 0.00254
43.2 0.00202
43.25 0.00126
43.3 -0.00019
43.35 -0.00157
43.4 -0.00173
43.45 -0.00206
43.5 -0.00254
43.55 -0.00322
43.6 -0.00371
43.65 -0.00476
43.7 -0.00458
43.75 -0.00428
43.8 -0.00438
43.85 -0.00428
43.9 -0.00461
43.95 -0.00469
44 -0.00419
44.05 -0.00443
44.1 -0.00483
44.15 -0.00427
44.2 -0.00391
44.25 -0.00341
44.3 -0.00339
44.35 -0.00288
44.4 -0.00269
44.45 -0.00217
44.5 -0.00063
44.55 0.00115
44.6 0.00117
44.65 7e-04
44.7 -3e-05
44.75 -0.00034
44.8 -0.00069
44.85 -0.00153
44.9 -0.00172
44.95 -0.00148
45 -0.00103
45.05 -0.00144
45.1 -0.00134
45.15 -0.00157
45.2 -0.00208
45.25 -0.00221
45.3 -0.00229
45.35 -0.00227
45.4 -0.00234
45.45 -0.00246
45.5 -0.00346
45.55 -0.00436
45.6 -0.00461
45.65 -0.00566
45.7 -0.00632
45.75 -0.00645
45.8 -0.00599
45.85 -0.00517
45.9 -0.00351
45.95 -0.00228
46 -0.00117
46.05 1e-05
46.1 0.00111
46.15 0.00187
46.2 0.00162
46.25 0.00156
46.3 0.00074
46.35 0.00085
46.4 0.00091
46.45 0.00033
46.5 -0.00048
46.55 -0.00034
46.6 -9e-05
46.65 -1e-05
46.7 0.00064
46.75 0.00124
46.8 0.00164
46.85 0.00106
46.9 0.00091
46.95 -0.00019
47 -0.00115
47.05 -0.00134
47.1 -0.0026
47.15 -0.0034
47.2 -0.00311
47.25 -0.00266
47.3 -0.00246
47.35 -0.00134
47.4 -0.00085
47.45 -0.00036
47.5 0.00035
47.55 0.00071
47.6 0.00048
47.65 -6e-05
47.7 -0.00048
47.75 0.00016
47.8 0.00101
47.85 0.00153
47.9 0.00091
47.95 0.00118
48 0.00179
48.05 0.00058
48.1 0.00071
48.15 9e-04
48.2 0.00157
48.25 0.00122
48.3 0.00084
48.35 0.00048
48.4 -0.00024
48.45 -0.00129
48.5 -0.00167
48.55 -0.00256
48.6 -0.00253
48.65 -0.00299
48.7 -0.00289
48.75 -0.00247
48.8 -0.00252
48.85 -0.00155
48.9 -0.00102
48.95 -0.00055
49 0.00048
49.05 0.00152
49.1 0.00198
49.15 0.00109
49.2 0.00079
49.25 0.00118
49.3 0.00113
49.35 0.00022
49.4 0.00028
49.45 0
49.5 -1e-04
49.55 -2e-04
49.6 -0.00152
49.65 -0.00203
49.7 -0.00152
49.75 -0.00205
49.8 -0.00148
49.85 -0.00044
49.9 8e-04
49.95 0.00107
50 0.00169
50.05 0.00282
50.1 0.00349
50.15 0.00355
50.2 0.00303
50.25 0.00251
50.3 0.00252
50.35 0.00209
50.4 0.00202
50.45 0.00023
50.5 -0.00147
50.55 -0.00265
50.6 -0.00467
50.65 -0.00515
50.7 -0.00486
50.75 -0.00531
50.8 -0.00473
50.85 -0.00344
50.9 -0.00315
50.95 -0.00244
51 -0.00166
51.05 -7e-04
51.1 -0.00016
51.15 0.00079
51.2 0.0016
51.25 0.00272
51.3 0.00266
51.35 0.00164
51.4 0.00025
51.45 -0.00106
51.5 -0.00194
51.55 -0.00249
51.6 -0.00172
51.65 -0.00133
51.7 -0.00118
51.75 -0.00192
51.8 -0.0022
51.85 -0.00274
51.9 -0.00297
51.95 -0.00311
52 -0.0036
52.05 -0.00302
52.1 -0.00205
52.15 -0.00148
52.2 -0.00028
52.25 0.00073
52.3 0.00207
52.35 0.00237
52.4 0.00282
52.45 0.00289
52.5 0.00258
52.55 0.00271
52.6 0.00115
52.65 -0.00019
52.7 0.00038
52.75 0.00107
52.8 0.00163
52.85 0.00141
52.9 0.0013
52.95 0.00146
53 0.00161
53.05 0.00253
53.1 0.00313
53.15 0.00423
53.2 0.0041
53.25 0.00416
53.3 0.0035
53.35 0.00293
53.4 0.00163
53.45 0.00074
53.5 0.00118
53.55 0.00037
53.6 -0.00058
53.65 -0.00215
53.7 -0.00307
53.75 -0.00308
53.8 -0.00129
53.85 0.00038
53.9 0.00173
53.95 0.00255
54 0.00222
54.05 9e-04
54.1 -0.00019
54.15 -0.00068
54.2 -0.00074
54.25 -0.00134
54.3 -0.00162
54.35 -0.00118
54.4 0.00039
54.45 0.00135
54.5 0.00161
54.55 0.00137
54.6 0.00115
54.65 0.00061
54.7 -0.00013
54.75 -0.00131
54.8 -0.00254
54.85 -0.00282
54.9 -0.00289
54.95 -0.00366
55 -0.00394
55.05 -0.00399
55.1 -0.00363
55.15 -0.00286
55.2 -0.00253
55.25 -0.00212
55.3 -0.00203
55.35 -0.00249
55.4 -0.00364
55.45 -0.00497
55.5 -0.00445
55.55 -0.00411
55.6 -0.00327
55.65 -0.00281
55.7 -0.0022
55.75 -0.0012
55.8 -0.00038
55.85 -0.00026
55.9 -0.00075
55.95 -1e-05
56 6e-05
56.05 -8e-04
56.1 -0.00099
56.15 -0.00033
56.2 1e-04
56.25 0.00076
56.3 0.00195
56.35 0.00266
56.4 0.0035
56.45 0.00378
56.5 0.00347
56.55 0.00258
56.6 0.003
56.65 0.00338
56.7 0.00365
56.75 0.00401
56.8 0.00469
56.85 0.00466
56.9 0.00414
56.95 0.0038
57 0.00286
57.05 0.00197
57.1 0.00051
57.15 -0.00091
57.2 -0.00051
57.25 -0.00114
57.3 -0.00159
57.35 -0.00205
57.4 -0.00129
57.45 -0.00058
57.5 0.00081
57.55 0.00223
57.6 0.00307
57.65 0.00371
57.7 0.0038
57.75 0.00268
57.8 0.0011
57.85 0.00052
57.9 0.00127
57.95 0.00129
58 0.00106
58.05 0.00134
58.1 0.00079
58.15 2e-05
58.2 -0.00117
58.25 -0.00134
58.3 -0.00243
58.35 -0.00352
58.4 -0.00379
58.45 -0.00402
58.5 -0.00495
58.55 -0.00519
58.6 -0.00516
58.65 -0.00362
58.7 -0.0027
58.75 -0.0022
58.8 -0.00295
58.85 -0.00368
58.9 -0.00389
58.95 -0.00363
59 -0.00343
59.05 -0.00263
59.1 -0.00213
59.15 -0.0022
59.2 -0.0021
59.25 -0.00217
59.3 -0.00224
59.35 -0.00193
59.4 -0.00175
59.45 -0.00061
59.5 0.00095
59.55 0.00202
59.6 0.00237
59.65 0.0019
59.7 0.00062
59.75 7e-05
59.8 0.00023
59.85 0.00034
59.9 0.00084
59.95 0.00055
60 0.00027
60.05 -0.00071
60.1 -0.0011
60.15 -0.00116
60.2 -0.00168
60.25 -0.00314
60.3 -0.00279
60.35 -0.00206
60.4 -0.00151
60.45 -0.00126
60.5 -5e-04
60.55 -7e-04
60.6 -0.00076
60.65 -0.00123
60.7 -0.00186
60.75 -0.00229
60.8 -0.00245
60.85 -0.00185
60.9 -0.00149
60.95 -0.00068
61 0.00044
61.05 0.00072
61.1 0.00122
61.15 0.00146
61.2 0.00163
61.25 0.00302
61.3 0.00306
61.35 0.00234
61.4 0.00211
61.45 0.00239
61.5 0.00174
61.55 0.0012
61.6 0.00101
61.65 0.00077
61.7 -0.00071
61.75 -0.00233
61.8 -0.00329
61.85 -0.00377
61.9 -0.00315
61.95 -0.00305
62 -0.00251
62.05 -0.0028
62.1 -0.0023
62.15 -0.00162
62.2 -0.00108
62.25 0.00027
62.3 0.00177
62.35 0.0019
62.4 0.00168
62.45 0.00066
62.5 -0.00018
62.55 -0.00059
62.6 -0.00069
62.65 -0.00106
62.7 -0.00049
62.75 0.00015
62.8 0.00114
62.85 0.00209
62.9 0.00214
62.95 0.00272
63 0.0034
63.05 0.00342
63.1 0.00251
63.15 0.00066
63.2 -0.00022
63.25 -0.00053
63.3 -0.00061
63.35 -0.00055
63.4 -0.00066
63.45 -0.00097
63.5 -0.00101
63.55 -0.00077
63.6 -8e-04
63.65 0.00025
63.7 0.00108
63.75 0.0015
63.8 0.00187
63.85 0.00164
63.9 0.00106
63.95 0.001
64 0.00114
64.05 0
64.1 -0.00062
64.15 -0.00093
64.2 -0.00105
64.25 -0.00106
64.3 -0.00073
64.35 -0.00098
64.4 -8e-04
64.45 -0.00074
64.5 0.00022
64.55 0.00156
64.6 0.00216
64.65 0.00249
64.7 0.00253
64.75 0.00187
64.8 0.00122
64.85 0.00136
64.9 8e-04
64.95 0.00109
65 0.00047
65.05 8e-05
65.1 -0.00054
65.15 -0.00036
65.2 -0.00086
65.25 -0.00143
65.3 -0.00257
65.35 -0.00326
65.4 -0.00364
65.45 -0.00376
65.5 -0.00368
65.55 -0.00395
65.6 -0.0039
65.65 -0.00378
65.7 -0.00326
65.75 -0.00272
65.8 -0.00242
65.85 -0.00115
65.9 -0.00086
65.95 -0.00022
66 0.00068
66.05 0.00091
66.1 1e-05
66.15 -0.00045
66.2 -0.00069
66.25 -0.00059
66.3 -0.00084
66.35 -0.00051
66.4 -0.00039
66.45 -0.00038
66.5 0
66.55 2e-04
66.6 0.00067
66.65 0.00105
66.7 0.00051
66.75 0.00064
66.8 0.00071
66.85 0.00144
66.9 0.00214
66.95 0.00293
67 0.00341
67.05 0.00412
67.1 0.00378
67.15 0.00368
67.2 0.0029
67.25 0.00252
67.3 0.00284
67.35 0.00281
67.4 0.00291
67.45 0.00257
67.5 0.00203
67.55 0.00133
67.6 0.00101
67.65 -6e-05
67.7 -0.00037
67.75 6e-05
67.8 -0.00047
67.85 -0.00096
67.9 -0.00028
67.95 0.00046
68 0.00097
68.05 0.00109
68.1 0.00028
68.15 -0.00142
68.2 -0.0027
68.25 -0.00336
68.3 -0.00316
68.35 -0.00354
68.4 -0.00409
68.45 -0.00364
68.5 -0.00407
68.55 -0.00379
68.6 -0.00341
68.65 -0.00264
68.7 -0.0029
68.75 -0.00299
68.8 -0.00273
68.85 -0.00276
68.9 -0.00212
68.95 -0.00179
69 -0.00109
69.05 -0.00113
69.1 -0.00132
69.15 -0.00138
69.2 -0.00113
69.25 -0.0012
69.3 -0.00223
69.35 -0.00256
69.4 -0.00403
69.45 -0.00449
69.5 -0.00452
69.55 -0.00364
69.6 -0.00324
69.65 -0.00263
69.7 -0.00235
69.75 -0.00192
69.8 -0.00213
69.85 -0.00175
69.9 -0.00094
69.95 -0.00118
70 -0.00141
70.05 -0.00199
70.1 -0.00266
70.15 -0.00315
70.2 -0.00375
70.25 -0.00446
70.3 -0.00488
70.35 -0.00502
70.4 -0.00476
70.45 -0.00423
70.5 -0.00395
70.55 -0.003
70.6 -0.00234
70.65 -0.00176
70.7 -0.00141
70.75 -0.00014
70.8 0.00096
70.85 0.0019
70.9 0.00186
70.95 0.00227
71 0.00177
71.05 0.00118
71.1 0.00125
71.15 0.00174
71.2 0.00173
71.25 0.0013
71.3 0.00075
71.35 0.00029
71.4 -4e-05
71.45 -0.00053
71.5 -0.00095
71.55 -0.00144
71.6 -0.00191
71.65 -0.00132
71.7 0.00063
71.75 0.00196
71.8 0.00208
71.85 0.0034
71.9 0.0039
71.95 0.00449
72 0.00558
72.05 0.00612
72.1 0.00715
72.15 0.00625
72.2 0.00505
72.25 0.00278
72.3 0.00128
72.35 0.00156
72.4 0.00154
72.45 0.0011
72.5 0.00053
72.55 0.00024
72.6 -9e-05
72.65 -0.00032
72.7 -0.00067
72.75 -0.00173
72.8 -0.00256
72.85 -0.00215
72.9 -0.00153
72.95 -0.00184
73 -0.0028
73.05 -0.00418
73.1 -0.00447
73.15 -0.00418
73.2 -0.0034
73.25 -0.00347
73.3 -0.00355
73.35 -0.0032
73.4 -0.00318
73.45 -0.00385
73.5 -0.00374
73.55 -0.00445
73.6 -0.00454
73.65 -0.00459
73.7 -0.00366
73.75 -0.00312
73.8 -0.00236
73.85 -0.00099
73.9 -0.00066
73.95 -0.00035
74 -0.00055
74.05 -0.00076
74.1 -0.00087
74.15 -0.00092
74.2 -0.00015
74.25 0.00121
74.3 0.00128
74.35 0.00078
74.4 0.00055
74.45 -0.00011
74.5 -0.00061
74.55 -0.00068
74.6 -0.00014
74.65 0.00018
74.7 0.00049
74.75 0.00067
74.8 0.00078
74.85 0.00165
74.9 0.00165
74.95 0.00097
75 0.00085
75.05 -0.00031
75.1 -0.00158
75.15 -0.0015
75.2 -0.00173
75.25 -0.00212
75.3 -0.00207
75.35 -0.00146
75.4 -0.00123
75.45 -0.00013
75.5 0.00012
75.55 0.00068
75.6 0.00083
75.65 0.00043
75.7 -2e-04
75.75 -0.00156
75.8 -0.00234
75.85 -0.00291
75.9 -0.00271
75.95 -0.00231
76 -0.0015
76.05 -0.00107
76.1 -0.00126
76.15 -0.00094
76.2 -0.00089
76.25 -4e-05
76.3 0.00047
76.35 0.00129
76.4 0.00226
76.45 0.002
76.5 0.00172
76.55 0.002
76.6 0.00156
76.65 0.00094
76.7 0.00131
76.75 0.00079
76.8 9e-04
76.85 0.00154
76.9 0.00095
76.95 5e-05
77 -0.00059
77.05 -0.00233
77.1 -0.00278
77.15 -0.00295
77.2 -0.0032
77.25 -0.00278
77.3 -0.00207
77.35 -0.00167
77.4 -0.00175
77.45 -0.00126
77.5 -0.00047
77.55 0.00066
77.6 0.00051
77.65 5e-04
77.7 0.00012
77.75 0.00015
77.8 0.00104
77.85 0.00184
77.9 0.00089
77.95 -0.00047
78 -0.0012
78.05 -6e-04
78.1 -0.00018
78.15 -0.00143
78.2 -0.00222
78.25 -0.00354
78.3 -0.00296
78.35 -0.00273
78.4 -0.0023
78.45 -0.00263
78.5 -0.00142
78.55 -0.00017
78.6 0.00194
78.65 0.00213
78.7 0.00246
78.75 0.00224
78.8 0.00212
78.85 0.00216
78.9 0.00239
78.95 0.0013
79 -0.00021
79.05 -0.00047
79.1 -0.0014
79.15 -0.00195
79.2 -0.00251
79.25 -0.00315
79.3 -0.00431
79.35 -0.00348
79.4 -0.00309
79.45 -0.00186
79.5 -0.00137
79.55 -0.001
79.6 -0.00055
79.65 -0.00037
79.7 0.00117
79.75 0.00178
79.8 0.00223
79.85 0.00284
79.9 0.00382
79.95 0.0038
80 0.00297
80.05 0.00238
80.1 0.00207
80.15 0.00128
80.2 -4e-05
80.25 -0.00148
80.3 -0.00221
80.35 -0.00311
80.4 -0.00404
80.45 -0.00506
80.5 -0.00528
80.55 -0.00532
80.6 -0.00444
80.65 -0.00419
80.7 -0.00266
80.75 -0.00123
80.8 -0.00038
80.85 0
80.9 0.00097
80.95 0.00262
81 0.00256
81.05 0.002
81.1 0.00177
81.15 0.00107
81.2 0.00103
81.25 0.00101
81.3 6e-04
81.35 7e-04
81.4 -0.00052
81.45 -0.00177
81.5 -0.00218
81.55 -0.00214
81.6 -0.00175
81.65 -0.00135
81.7 -0.00106
81.75 -9e-04
81.8 -9e-04
81.85 -0.00028
81.9 0.00013
81.95 -8e-05
82 -0.00128
82.05 -0.0017
82.1 -0.00173
82.15 -0.00209
82.2 -0.00184
82.25 -0.00075
82.3 0.00039
82.35 0.00173
82.4 0.00209
82.45 0.00282
82.5 0.00397
82.55 0.00535
82.6 0.00601
82.65 0.00664
82.7 0.00661
82.75 0.0058
82.8 0.005
82.85 0.00536
82.9 0.00573
82.95 0.00461
83 0.00367
83.05 0.00312
83.1 0.00231
83.15 0.00078
83.2 0.00061
83.25 9e-04
83.3 0.00029
83.35 0.00025
83.4 -5e-05
83.45 -0.00124
83.5 -0.00215
83.55 -0.00244
83.6 -0.00252
83.65 -0.00343
83.7 -0.00364
83.75 -0.00356
83.8 -0.00296
83.85 -0.00266
83.9 -0.0033
83.95 -0.0028
84 -0.0026
84.05 -0.0023
84.1 -0.00235
84.15 -0.00354
84.2 -0.00408
84.25 -0.00429
84.3 -0.00384
84.35 -0.0025
84.4 -0.00195
84.45 -0.00048
84.5 0.00051
84.55 0.00034
84.6 0.00034
84.65 -0.00042
84.7 -0.00118
84.75 -0.00171
84.8 -0.00191
84.85 -0.00263
84.9 -0.00227
84.95 -0.00231
85 -0.00155
85.05 -0.00102
85.1 -6e-05
85.15 0.00086
85.2 0.00077
85.25 0.00049
85.3 0.00056
85.35 0.00082
85.4 -0.00013
85.45 -0.00018
85.5 -0.00102
85.55 -0.00105
85.6 -0.00071
85.65 -0.00095
85.7 -0.00274
85.75 -0.00344
85.8 -0.00331
85.85 -0.00215
85.9 -0.00215
85.95 -0.00167
86 -0.00191
86.05 -0.00214
86.1 -0.00187
86.15 -0.00117
86.2 -0.00061
86.25 -0.00025
86.3 1e-05
86.35 -0.00021
86.4 -0.00038
86.45 -0.00102
86.5 -0.00083
86.55 -0.00069
86.6 0.00072
86.65 0.00123
86.7 0.001
86.75 -0.00083
86.8 -0.00145
86.85 -0.0015
86.9 -0.00258
86.95 -0.00259
87 -0.00178
87.05 -0.00146
87.1 -0.00123
87.15 -0.00115
87.2 -0.00057
87.25 0.00042
87.3 0.0011
87.35 0.00138
87.4 0.00192
87.45 0.00264
87.5 0.00274
87.55 0.00253
87.6 0.00173
87.65 0.00075
87.7 0.00083
87.75 0.00066
87.8 0.00041
87.85 -0.00082
87.9 -0.00164
87.95 -0.00197
88 -0.00221
88.05 -0.00266
88.1 -0.00375
88.15 -0.00396
88.2 -0.00381
88.25 -0.00338
88.3 -0.00314
88.35 -0.00314
88.4 -0.0026
88.45 -0.00266
88.5 -0.00345
88.55 -0.00295
88.6 -0.00189
88.65 -0.00105
88.7 0.00101
88.75 0.00254
88.8 0.00321
88.85 0.00353
88.9 0.00285
88.95 0.00153
89 0.00066
89.05 0.00076
89.1 0.00022
89.15 0.00023
89.2 0.00071
89.25 0.0017
89.3 0.00301
89.35 0.00367
89.4 0.00471
89.45 0.00549
89.5 0.00543
89.55 0.00564
89.6 0.00493
89.65 0.00365
89.7 0.00283
89.75 0.00175
89.8 0.00069
89.85 -0.00038
89.9 -0.00147
89.95 -0.00311
90 -0.00334
90.05 -0.00302
90.1 -0.00312
90.15 -0.0031
90.2 -0.00229
90.25 -0.00211
90.3 -0.00149
90.35 -0.00139
90.4 -0.00209
90.45 -0.00201
90.5 -0.00296
90.55 -0.00365
90.6 -0.0039
90.65 -0.00285
90.7 -0.00223
90.75 -0.00167
90.8 -0.00202
90.85 -0.00235
90.9 -0.00273
90.95 -0.00287
91 -0.00183
91.05 -9e-04
91.1 -0.00209
91.15 -0.00234
91.2 -0.00206
91.25 -0.00258
91.3 -0.00336
91.35 -0.00366
91.4 -0.00429
91.45 -0.00465
91.5 -0.00378
91.55 -0.00329
91.6 -0.00337
91.65 -0.00211
91.7 -0.00182
91.75 -0.00213
91.8 -0.00216
91.85 -0.00205
91.9 -0.00163
91.95 -0.0019
92 -0.00214
92.05 -0.00203
92.1 -0.00238
92.15 -0.00229
92.2 -0.00214
92.25 -0.00226
92.3 -0.00162
92.35 -0.00082
92.4 0.00065
92.45 0.00144
92.5 0.00152
92.55 0.00025
92.6 -0.00124
92.65 -0.00307
92.7 -0.00463
92.75 -0.00536
92.8 -0.00531
92.85 -0.00511
92.9 -0.00478
92.95 -0.00389
93 -0.00303
93.05 -0.00209
93.1 -0.00139
93.15 -0.00085
93.2 0.00031
93.25 0.00141
93.3 0.0028
93.35 0.00363
93.4 0.00455
93.45 0.00559
93.5 0.00534
93.55 0.00503
93.6 0.0044
93.65 0.00339
93.7 0.0027
93.75 0.00208
93.8 0.00048
93.85 0.00037
93.9 8e-04
93.95 0.00138
94 0.00213
94.05 0.00253
94.1 0.00266
94.15 0.00237
94.2 0.00268
94.25 0.00165
94.3 0.00042
94.35 0.00031
94.4 0.00019
94.45 -0.00017
94.5 0.00045
94.55 0.00135
94.6 0.00182
94.65 0.00083
94.7 -0.00029
94.75 0.00013
94.8 0.00085
94.85 0.00073
94.9 0.00108
94.95 0.00176
95 0.00267
95.05 0.00425
95.1 0.00448
95.15 0.00381
95.2 0.00416
95.25 0.00476
95.3 0.00395
95.35 0.00297
95.4 0.00137
95.45 0.00079
95.5 0.00018
95.55 -0.00088
95.6 -0.00207
95.65 -0.00225
95.7 -0.0023
95.75 -0.00306
95.8 -0.0032
95.85 -0.00276
95.9 -0.00224
95.95 -0.00068
96 0.00028
96.05 0.00063
96.1 9e-04
96.15 0.0016
96.2 0.00187
96.25 0.00237
96.3 0.00248
96.35 0.00296
96.4 0.00224
96.45 0.00238
96.5 0.00232
96.55 0.00137
96.6 0.0015
96.65 0.00155
96.7 0.00064
96.75 -0.00038
96.8 -0.00061
96.85 -0.00083
96.9 -0.00107
96.95 -7e-04
97 -0.00066
97.05 -0.00136
97.1 -0.00149
97.15 -0.00073
97.2 -0.00036
97.25 -0.00023
97.3 -0.00022
97.35 -0.00074
97.4 -0.00079
97.45 -0.00115
97.5 -0.00044
97.55 -0.00045
97.6 -0.00089
97.65 -0.00199
97.7 -0.00194
97.75 -0.0025
97.8 -0.0027
97.85 -0.00242
97.9 -0.0024
97.95 -0.00276
98 -0.00308
98.05 -0.00353
98.1 -0.00356
98.15 -0.00293
98.2 -0.00264
98.25 -0.00225
98.3 -0.00298
98.35 -0.00282
98.4 -0.00209
98.45 -0.00122
98.5 -0.00052
98.55 0.00018
98.6 -9e-05
98.65 -9e-05
98.7 -0.00064
98.75 0.00013
98.8 0.00081
98.85 0.00093
98.9 0.00185
98.95 0.00311
99 0.00347
99.05 0.00399
99.1 0.00407
99.15 0.00395
99.2 0.00442
99.25 0.00396
99.3 0.00355
99.35 0.00321
99.4 0.00326
99.45 0.00355
99.5 0.00311
99.55 0.00168
99.6 0
99.65 -0.00203
99.7 -0.00383
99.75 -0.00413
99.8 -0.00492
99.85 -0.00574
99.9 -0.00501
99.95 -0.00397
