0 0
0.05 0.00494
0.1 0.0123
0.15 0.02009
0.2 0.02831
0.25 0.03525
0.3 0.04044
0.35 0.04527
0.4 0.04892
0.45 0.05095
0.5 0.05121
0.55 0.05027
0.6 0.04886
0.65 0.04772
0.7 0.04685
0.75 0.04583
0.8 0.04477
0.85 0.04445
0.9 0.04456
0.95 0.04415
1 0.04484
1.05 0.04447
1.1 0.04467
1.15 0.04444
1.2 0.04428
1.25 0.04285
1.3 0.04149
1.35 0.04036
1.4 0.03924
1.45 0.03842
1.5 0.03741
1.55 0.03579
1.6 0.03416
1.65 0.0329
1.7 0.03147
1.75 0.0305
1.8 0.02959
1.85 0.02856
1.9 0.02821
1.95 0.02828
2 0.02887
2.05 0.02903
2.1 0.02812
2.15 0.02723
2.2 0.02693
2.25 0.02614
2.3 0.02557
2.35 0.02484
2.4 0.02419
2.45 0.02394
2.5 0.02403
2.55 0.02497
2.6 0.02599
2.65 0.02674
2.7 0.02725
2.75 0.02737
2.8 0.02788
2.85 0.02845
2.9 0.02834
2.95 0.02794
3 0.0276
3.05 0.0257
3.1 0.0232
3.15 0.02129
3.2 0.01989
3.25 0.01941
3.3 0.01885
3.35 0.01849
3.4 0.01833
3.45 0.01806
3.5 0.01811
3.55 0.01721
3.6 0.01685
3.65 0.01632
3.7 0.01601
3.75 0.01631
3.8 0.01708
3.85 0.01816
3.9 0.01925
3.95 0.01938
4 0.01835
4.05 0.01678
4.1 0.01409
4.15 0.01168
4.2 0.00931
4.25 0.00787
4.3 0.00675
4.35 0.00507
4.4 0.00288
4.45 0.00029
4.5 -0.00273
4.55 -0.00653
4.6 -0.01194
4.65 -0.01837
4.7 -0.02721
4.75 -0.03783
4.8 -0.04981
4.85 -0.0632
4.9 -0.07866
4.95 -0.09683
5 -0.11852
5.05 -0.14367
5.1 -0.16985
5.15 -0.19755
5.2 -0.22631
5.25 -0.25637
5.3 -0.28818
5.35 -0.32042
5.4 -0.35393
5.45 -0.38746
5.5 -0.41906
5.55 -0.44879
5.6 -0.47426
5.65 -0.49564
5.7 -0.51235
5.75 -0.52299
5.8 -0.52757
5.85 -0.52436
5.9 -0.51487
5.95 -0.49813
6 -0.47468
6.05 -0.44588
6.1 -0.41114
6.15 -0.37111
6.2 -0.32695
6.25 -0.27942
6.3 -0.22981
6.35 -0.18053
6.4 -0.12962
6.45 -0.07781
6.5 -0.02758
6.55 0.01975
6.6 0.06373
6.65 0.10528
6.7 0.14294
6.75 0.17692
6.8 0.2084
6.85 0.23743
6.9 0.26372
6.95 0.28653
7 0.30599
7.05 0.32182
7.1 0.33589
7.15 0.34835
7.2 0.36034
7.25 0.36937
7.3 0.37701
7.35 0.38377
7.4 0.38918
7.45 0.39305
7.5 0.3958
7.55 0.39613
7.6 0.39586
7.65 0.3944
7.7 0.39307
7.75 0.38984
7.8 0.38583
7.85 0.38137
7.9 0.3752
7.95 0.36787
8 0.36035
8.05 0.35121
8.1 0.34208
8.15 0.33162
8.2 0.31997
8.25 0.30884
8.3 0.29824
8.35 0.28791
8.4 0.27728
8.45 0.26641
8.5 0.25552
8.55 0.2441
8.6 0.23269
8.65 0.2212
8.7 0.20974
8.75 0.19777
8.8 0.18486
8.85 0.17232
8.9 0.15919
8.95 0.14722
9 0.13516
9.05 0.12371
9.1 0.11323
9.15 0.10347
9.2 0.09467
9.25 0.08721
9.3 0.08055
9.35 0.07311
9.4 0.06657
9.45 0.06
9.5 0.05493
9.55 0.05026
9.6 0.04514
9.65 0.04018
9.7 0.03516
9.75 0.02992
9.8 0.02545
9.85 0.02067
9.9 0.01562
9.95 0.01065
10 0.00718
10.05 0.0044
10.1 0.00315
10.15 0.00208
10.2 0.00092
10.25 0.00011
10.3 -0.00069
10.35 -0.00135
10.4 -0.00261
10.45 -0.00405
10.5 -0.00532
10.55 -0.00682
10.6 -0.00808
10.65 -0.00877
10.7 -0.00952
10.75 -0.0112
10.8 -0.01325
10.85 -0.01612
10.9 -0.01949
10.95 -0.02265
11 -0.02484
11.05 -0.02671
11.1 -0.02797
11.15 -0.02852
11.2 -0.02827
11.25 -0.02897
11.3 -0.02988
11.35 -0.03071
11.4 -0.03218
11.45 -0.03286
11.5 -0.034
11.55 -0.03476
11.6 -0.03493
11.65 -0.03548
11.7 -0.03568
11.75 -0.03655
11.8 -0.03671
11.85 -0.03677
11.9 -0.03632
11.95 -0.0361
12 -0.03605
12.05 -0.03605
12.1 -0.03513
12.15 -0.0353
12.2 -0.03555
12.25 -0.03657
12.3 -0.03681
12.35 -0.03709
12.4 -0.03628
12.45 -0.03667
12.5 -0.03722
12.55 -0.037
12.6 -0.03685
12.65 -0.03658
12.7 -0.03513
12.75 -0.03412
12.8 -0.03295
12.85 -0.03268
12.9 -0.032
12.95 -0.03205
13 -0.0326
13.05 -0.03291
13.1 -0.03371
13.15 -0.03376
13.2 -0.03355
13.25 -0.03449
13.3 -0.03539
13.35 -0.03521
13.4 -0.03441
13.45 -0.03406
13.5 -0.03322
13.55 -0.03241
13.6 -0.032
13.65 -0.03216
13.7 -0.03157
13.75 -0.03037
13.8 -0.02918
13.85 -0.02829
13.9 -0.02716
13.95 -0.02522
14 -0.02505
14.05 -0.02516
14.1 -0.0247
14.15 -0.02508
14.2 -0.02482
14.25 -0.02416
14.3 -0.02259
14.35 -0.02109
14.4 -0.02125
14.45 -0.02161
14.5 -0.02272
14.55 -0.02418
14.6 -0.02458
14.65 -0.02441
14.7 -0.02385
14.75 -0.02365
14.8 -0.02372
14.85 -0.02283
14.9 -0.02105
14.95 -0.01945
15 -0.01784
15.05 -0.01683
15.1 -0.01567
15.15 -0.01473
15.2 -0.01384
15.25 -0.01264
15.3 -0.01182
15.35 -0.0119
15.4 -0.01135
15.45 -0.01194
15.5 -0.01337
15.55 -0.01369
15.6 -0.01443
15.65 -0.01531
15.7 -0.01546
15.75 -0.01555
15.8 -0.01546
15.85 -0.0156
15.9 -0.01489
15.95 -0.01352
16 -0.01313
16.05 -0.01288
16.1 -0.01305
16.15 -0.01285
16.2 -0.01274
16.25 -0.01343
16.3 -0.01407
16.35 -0.01493
16.4 -0.01525
16.45 -0.01592
16.5 -0.0162
16.55 -0.01643
16.6 -0.01497
16.65 -0.0129
16.7 -0.01225
16.75 -0.01197
16.8 -0.01237
16.85 -0.01182
16.9 -0.01091
16.95 -0.01039
17 -0.00948
17.05 -0.00858
17.1 -0.00838
17.15 -0.00864
17.2 -0.00924
17.25 -0.01039
17.3 -0.01091
17.35 -0.01087
17.4 -0.01091
17.45 -0.0108
17.5 -0.00977
17.55 -0.00873
17.6 -0.0071
17.65 -0.00662
17.7 -0.00644
17.75 -0.00607
17.8 -0.0053
17.85 -0.00585
17.9 -0.00663
17.95 -0.00644
18 -0.00742
18.05 -0.00848
18.1 -0.00933
18.15 -0.00964
18.2 -0.00954
18.25 -0.00856
18.3 -0.00782
18.35 -0.00646
18.4 -0.00615
18.45 -0.00545
18.5 -0.00563
18.55 -0.00446
18.6 -0.00416
18.65 -0.00398
18.7 -0.00464
18.75 -0.00503
18.8 -0.0057
18.85 -0.00624
18.9 -0.0065
18.95 -0.00535
19 -0.00548
19.05 -0.00563
19.1 -0.00534
19.15 -0.00502
19.2 -0.00446
19.25 -0.00482
19.3 -0.00559
19.35 -0.00679
19.4 -0.00769
19.45 -0.00784
19.5 -0.00715
19.55 -0.00695
19.6 -0.00643
19.65 -0.00689
19.7 -0.00782
19.75 -0.00789
19.8 -0.00847
19.85 -0.00827
19.9 -0.00768
19.95 -0.00695
20 -0.00713
20.05 -0.00746
20.1 -0.00685
20.15 -0.0062
20.2 -0.00586
20.25 -0.00665
20.3 -0.00788
20.35 -0.00799
20.4 -0.00721
20.45 -0.00607
20.5 -0.00504
20.55 -0.00441
20.6 -0.00362
20.65 -0.00294
20.7 -0.00224
20.75 -0.00132
20.8 -0.00152
20.85 -0.0016
20.9 -0.0023
20.95 -0.00259
21 -0.00402
21.05 -0.00462
21.1 -0.00438
21.15 -0.004
21.2 -0.00287
21.25 -0.00214
21.3 -0.00124
21.35 -0.00014
21.4 0.00015
21.45 -0.00049
21.5 -0.00139
21.55 -0.00229
21.6 -0.00251
21.65 -0.00214
21.7 -0.00188
21.75 -0.00099
21.8 -0.00081
21.85 -0.00071
21.9 -0.00191
21.95 -0.00266
22 -0.00293
22.05 -0.00317
22.1 -0.00282
22.15 -0.00305
22.2 -0.00398
22.25 -0.00436
22.3 -0.00444
22.35 -0.0044
22.4 -0.0044
22.45 -0.0035
22.5 -0.00295
22.55 -0.00336
22.6 -0.0039
22.65 -0.00372
22.7 -0.00448
22.75 -0.00453
22.8 -0.00424
22.85 -0.00359
22.9 -0.00201
22.95 -0.00064
23 -2e-04
23.05 0.00015
23.1 0.00059
23.15 0.0014
23.2 0.00243
23.25 0.00239
23.3 0.00244
23.35 0.00296
23.4 0.0023
23.45 0.00207
23.5 0.0018
23.55 0.00093
23.6 -0.00039
23.65 -0.00094
23.7 -0.0019
23.75 -0.00269
23.8 -0.0035
23.85 -0.00521
23.9 -0.00619
23.95 -0.00649
24 -0.00605
24.05 -0.0054
24.1 -0.00485
24.15 -0.00377
24.2 -0.00289
24.25 -0.00152
24.3 -0.00057
24.35 -0.00039
24.4 -0.00011
24.45 0.00064
24.5 0.00058
24.55 0.00063
24.6 0.00027
24.65 -0.00027
24.7 -0.00092
24.75 -0.00112
24.8 -0.00151
24.85 -0.00131
24.9 -0.00195
24.95 -0.00196
25 -0.00194
25.05 -0.00137
25.1 -4e-05
25.15 -0.00013
25.2 -0.00161
25.25 -0.00302
25.3 -0.00318
25.35 -0.00247
25.4 -0.00279
25.45 -0.00315
25.5 -0.0034
25.55 -0.0026
25.6 -0.00148
25.65 -0.00098
25.7 -0.00018
25.75 -0.00066
25.8 -0.00201
25.85 -0.00348
25.9 -0.00348
25.95 -0.00275
26 -0.00196
26.05 -0.00089
26.1 -4e-05
26.15 -0.00036
26.2 -0.00038
26.25 -0.00024
26.3 3e-04
26.35 0.00192
26.4 0.00294
26.45 0.00274
26.5 0.00249
26.55 0.00263
26.6 0.00246
26.65 0.00267
26.7 0.00282
26.75 0.00212
26.8 0.00072
26.85 -0.00143
26.9 -0.00242
26.95 -0.00377
27 -0.0031
27.05 -0.00216
27.1 -0.00234
27.15 -0.00264
27.2 -0.00296
27.25 -0.00391
27.3 -0.00491
27.35 -0.00614
27.4 -0.00802
27.45 -0.01003
27.5 -0.01189
27.55 -0.01425
27.6 -0.0181
27.65 -0.02323
27.7 -0.02949
27.75 -0.03616
27.8 -0.04457
27.85 -0.05408
27.9 -0.06573
27.95 -0.07959
28 -0.0949
28.05 -0.11218
28.1 -0.13188
28.15 -0.15414
28.2 -0.17938
28.25 -0.20888
28.3 -0.24138
28.35 -0.2786
28.4 -0.32086
28.45 -0.36707
28.5 -0.41724
28.55 -0.47281
28.6 -0.53386
28.65 -0.5995
28.7 -0.67027
28.75 -0.74589
28.8 -0.82478
28.85 -0.90761
28.9 -0.99415
28.95 -1.08352
29 -1.17425
29.05 -1.26531
29.1 -1.35662
29.15 -1.44844
29.2 -1.53943
29.25 -1.6278
29.3 -1.7122
29.35 -1.79182
29.4 -1.86616
29.45 -1.93358
29.5 -1.99254
29.55 -2.04289
29.6 -2.08338
29.65 -2.11229
29.7 -2.13112
29.75 -2.13871
29.8 -2.13385
29.85 -2.11682
29.9 -2.08738
29.95 -2.0461
30 -1.9938
30.05 -1.93033
30.1 -1.85559
30.15 -1.77007
30.2 -1.6742
30.25 -1.57004
30.3 -1.45741
30.35 -1.33866
30.4 -1.21264
30.45 -1.0809
30.5 -0.94498
30.55 -0.80569
30.6 -0.66378
30.65 -0.52015
30.7 -0.37565
30.75 -0.23194
30.8 -0.09021
30.85 0.04948
30.9 0.18597
30.95 0.31836
31 0.44582
31.05 0.56885
31.1 0.68708
31.15 0.80098
31.2 0.9089
31.25 1.0097
31.3 1.10342
31.35 1.19
31.4 1.27077
31.45 1.3445
31.5 1.41133
31.55 1.47244
31.6 1.52648
31.65 1.57466
31.7 1.6163
31.75 1.65237
31.8 1.6831
31.85 1.70872
31.9 1.73003
31.95 1.74738
32 1.76129
32.05 1.77187
32.1 1.77971
32.15 1.78523
32.2 1.78895
32.25 1.79094
32.3 1.78915
32.35 1.786
32.4 1.7812
32.45 1.77501
32.5 1.76793
32.55 1.75875
32.6 1.74818
32.65 1.73429
32.7 1.71898
32.75 1.7029
32.8 1.68471
32.85 1.66521
32.9 1.64417
32.95 1.62158
33 1.59729
33.05 1.57233
33.1 1.54563
33.15 1.51653
33.2 1.48546
33.25 1.45373
33.3 1.41985
33.35 1.38436
33.4 1.34731
33.45 1.30849
33.5 1.27013
33.55 1.2309
33.6 1.19059
33.65 1.15108
33.7 1.1112
33.75 1.0706
33.8 1.02815
33.85 0.98451
33.9 0.9406
33.95 0.89752
34 0.85517
34.05 0.81279
34.1 0.7708
34.15 0.72945
34.2 0.68779
34.25 0.64719
34.3 0.60743
34.35 0.56825
34.4 0.5304
34.45 0.49205
34.5 0.45382
34.55 0.41705
34.6 0.38223
34.65 0.34837
34.7 0.31544
34.75 0.28277
34.8 0.25106
34.85 0.21985
34.9 0.18965
34.95 0.16218
35 0.13543
35.05 0.10894
35.1 0.08396
35.15 0.05958
35.2 0.03649
35.25 0.01304
35.3 -0.00888
35.35 -0.02982
35.4 -0.04971
35.45 -0.06896
35.5 -0.08731
35.55 -0.1039
35.6 -0.11978
35.65 -0.13562
35.7 -0.15092
35.75 -0.16548
35.8 -0.1786
35.85 -0.1914
35.9 -0.2031
35.95 -0.21411
36 -0.22397
36.05 -0.23252
36.1 -0.24118
36.15 -0.2487
36.2 -0.25614
36.25 -0.26305
36.3 -0.26938
36.35 -0.27574
36.4 -0.28092
36.45 -0.28511
36.5 -0.28864
36.55 -0.29202
36.6 -0.29452
36.65 -0.29677
36.7 -0.29888
36.75 -0.30064
36.8 -0.30251
36.85 -0.30416
36.9 -0.30578
36.95 -0.30638
37 -0.3068
37.05 -0.30647
37.1 -0.30551
37.15 -0.30457
37.2 -0.30376
37.25 -0.30206
37.3 -0.30017
37.35 -0.29802
37.4 -0.29578
37.45 -0.29273
37.5 -0.28941
37.55 -0.28716
37.6 -0.28514
37.65 -0.28473
37.7 -0.28294
37.75 -0.28121
37.8 -0.27954
37.85 -0.2771
37.9 -0.27407
37.95 -0.26943
38 -0.26402
38.05 -0.26016
38.1 -0.25649
38.15 -0.25269
38.2 -0.24879
38.25 -0.24544
38.3 -0.24265
38.35 -0.23939
38.4 -0.23678
38.45 -0.23407
38.5 -0.23217
38.55 -0.23009
38.6 -0.22784
38.65 -0.22407
38.7 -0.22108
38.75 -0.21736
38.8 -0.21309
38.85 -0.20846
38.9 -0.20427
38.95 -0.19991
39 -0.19709
39.05 -0.19412
39.1 -0.19146
39.15 -0.18932
39.2 -0.18749
39.25 -0.18547
39.3 -0.18467
39.35 -0.18321
39.4 -0.18122
39.45 -0.17895
39.5 -0.17617
39.55 -0.17401
39.6 -0.17102
39.65 -0.16871
39.7 -0.16678
39.75 -0.16439
39.8 -0.16217
39.85 -0.15977
39.9 -0.15713
39.95 -0.15393
40 -0.15144
40.05 -0.1487
40.1 -0.14598
40.15 -0.14344
40.2 -0.14107
40.25 -0.13977
40.3 -0.13865
40.35 -0.1371
40.4 -0.13502
40.45 -0.13201
40.5 -0.12917
40.55 -0.12679
40.6 -0.12523
40.65 -0.12365
40.7 -0.12178
40.75 -0.11978
40.8 -0.11781
40.85 -0.11605
40.9 -0.11416
40.95 -0.11274
41 -0.11039
41.05 -0.10833
41.1 -0.10553
41.15 -0.10386
41.2 -0.10196
41.25 -0.10049
41.3 -0.09918
41.35 -0.09663
41.4 -0.09515
41.45 -0.09332
41.5 -0.09228
41.55 -0.09102
41.6 -0.08905
41.65 -0.08746
41.7 -0.08742
41.75 -0.08701
41.8 -0.08677
41.85 -0.08635
41.9 -0.08532
41.95 -0.08403
42 -0.08194
42.05 -0.07933
42.1 -0.07765
42.15 -0.07611
42.2 -0.07431
42.25 -0.07365
42.3 -0.07183
42.35 -0.07012
42.4 -0.06854
42.45 -0.06736
42.5 -0.06737
42.55 -0.06671
42.6 -0.06551
42.65 -0.06438
42.7 -0.06233
42.75 -0.06047
42.8 -0.05871
42.85 -0.05677
42.9 -0.05549
42.95 -0.05395
43 -0.0531
43.05 -0.05264
43.1 -0.05242
43.15 -0.05245
43.2 -0.0524
43.25 -0.05246
43.3 -0.05335
43.35 -0.05401
43.4 -0.05462
43.45 -0.05437
43.5 -0.05367
43.55 -0.05259
43.6 -0.05083
43.65 -0.04945
43.7 -0.04844
43.75 -0.0475
43.8 -0.04676
43.85 -0.0455
43.9 -0.04489
43.95 -0.0462
44 -0.04628
44.05 -0.04615
44.1 -0.04617
44.15 -0.0458
44.2 -0.04493
44.25 -0.04291
44.3 -0.04091
44.35 -0.03968
44.4 -0.03861
44.45 -0.03777
44.5 -0.0364
44.55 -0.03511
44.6 -0.03368
44.65 -0.033
44.7 -0.03257
44.75 -0.03191
44.8 -0.03124
44.85 -0.03099
44.9 -0.03054
44.95 -0.03134
45 -0.03125
45.05 -0.03105
45.1 -0.03028
45.15 -0.02976
45.2 -0.02917
45.25 -0.02759
45.3 -0.02618
45.35 -0.02406
45.4 -0.02288
45.45 -0.02143
45.5 -0.01987
45.55 -0.0189
45.6 -0.01876
45.65 -0.0183
45.7 -0.01865
45.75 -0.01908
45.8 -0.01957
45.85 -0.01994
45.9 -0.02036
45.95 -0.0201
46 -0.02019
46.05 -0.0192
46.1 -0.01849
46.15 -0.01762
46.2 -0.01649
46.25 -0.01658
46.3 -0.01598
46.35 -0.01617
46.4 -0.01715
46.45 -0.01854
46.5 -0.02005
46.55 -0.02051
46.6 -0.01989
46.65 -0.01892
46.7 -0.01895
46.75 -0.01829
46.8 -0.01708
46.85 -0.01643
46.9 -0.0161
46.95 -0.01515
47 -0.01399
47.05 -0.01254
47.1 -0.01187
47.15 -0.01233
47.2 -0.01368
47.25 -0.01413
47.3 -0.01532
47.35 -0.01657
47.4 -0.01748
47.45 -0.01739
47.5 -0.01676
47.55 -0.01629
47.6 -0.01539
47.65 -0.01428
47.7 -0.01355
47.75 -0.01299
47.8 -0.01293
47.85 -0.0129
47.9 -0.01262
47.95 -0.0122
48 -0.01308
48.05 -0.0137
48.1 -0.01346
48.15 -0.01304
48.2 -0.01261
48.25 -0.01198
48.3 -0.01239
48.35 -0.01353
48.4 -0.01375
48.45 -0.01357
48.5 -0.01273
48.55 -0.01284
48.6 -0.01215
48.65 -0.01087
48.7 -0.0111
48.75 -0.0102
48.8 -0.00908
48.85 -0.00855
48.9 -0.00878
48.95 -0.00943
49 -0.00912
49.05 -0.00869
49.1 -0.00823
49.15 -0.00807
49.2 -0.00836
49.25 -0.00874
49.3 -0.00931
49.35 -0.00962
49.4 -0.00978
49.45 -0.01034
49.5 -0.01069
49.55 -0.01013
49.6 -0.00881
49.65 -0.00747
49.7 -0.00645
49.75 -0.00617
49.8 -0.006
49.85 -0.00477
49.9 -0.00423
49.95 -0.00466
50 -0.0059
50.05 -0.00725
50.1 -0.00961
50.15 -0.01166
50.2 -0.01289
50.25 -0.01231
50.3 -0.01097
50.35 -0.00964
50.4 -0.00838
50.45 -0.00811
50.5 -0.00811
50.55 -0.00874
50.6 -0.00903
50.65 -0.00972
50.7 -0.00978
50.75 -0.00996
50.8 -0.00952
50.85 -0.00883
50.9 -0.0076
50.95 -0.00655
51 -0.00634
51.05 -0.00655
51.1 -0.00723
51.15 -0.00724
51.2 -0.00747
51.25 -0.00628
51.3 -0.00547
51.35 -0.00525
51.4 -0.00486
51.45 -0.0037
51.5 -0.00259
51.55 -0.00311
51.6 -0.00277
51.65 -0.00217
51.7 -0.00294
51.75 -0.00297
51.8 -0.00413
51.85 -0.00431
51.9 -0.00409
51.95 -0.00397
52 -0.00352
52.05 -0.00363
52.1 -0.00343
52.15 -0.00329
52.2 -0.00315
52.25 -0.00246
52.3 -0.00265
52.35 -0.00253
52.4 -0.00215
52.45 -0.00236
52.5 -0.00281
52.55 -0.00341
52.6 -0.00421
52.65 -0.00414
52.7 -0.00336
52.75 -0.00347
52.8 -0.00466
52.85 -0.00571
52.9 -0.00594
52.95 -0.00608
53 -0.00539
53.05 -0.00509
53.1 -0.00331
53.15 -0.00256
53.2 -0.00219
53.25 -0.00234
53.3 -0.00225
53.35 -0.00288
53.4 -0.00329
53.45 -0.00419
53.5 -0.00493
53.55 -0.00537
53.6 -0.00595
53.65 -0.00514
53.7 -0.00397
53.75 -0.00267
53.8 -0.00177
53.85 -0.00148
53.9 -0.00106
53.95 0.00037
54 0.00035
54.05 0.00155
54.1 0.00143
54.15 0.00051
54.2 -0.00221
54.25 -0.00353
54.3 -0.00433
54.35 -0.00469
54.4 -0.00476
54.45 -0.00376
54.5 -0.0042
54.55 -0.00403
54.6 -0.00468
54.65 -0.00428
54.7 -0.00349
54.75 -0.00227
54.8 -0.00088
54.85 0.00059
54.9 0.00097
54.95 0.00102
55 0.00109
55.05 0.00138
55.1 0.00155
55.15 0.00063
55.2 6e-05
55.25 -0.00212
55.3 -0.00279
55.35 -0.00313
55.4 -0.00229
55.45 -0.00156
55.5 -0.00122
55.55 -0.00122
55.6 -0.00072
55.65 -0.00079
55.7 -0.001
55.75 -0.00101
55.8 -0.00109
55.85 -0.00088
55.9 -0.00219
55.95 -0.00252
56 -0.00251
56.05 -0.00215
56.1 -0.00104
56.15 0.00011
56.2 0.00077
56.25 0.00199
56.3 0.00305
56.35 0.00396
56.4 0.0043
56.45 0.00493
56.5 0.00476
56.55 0.00424
56.6 0.00337
56.65 0.00272
56.7 0.0017
56.75 0.00111
56.8 0.00012
56.85 -0.00054
56.9 -0.00186
56.95 -0.00251
57 -0.00168
57.05 -0.00043
57.1 0.00069
57.15 0.00091
57.2 -6e-05
57.25 -0.00049
57.3 -0.00024
57.35 -0.00073
57.4 -0.00219
57.45 -0.0026
57.5 -0.00326
57.55 -0.00407
57.6 -0.00514
57.65 -0.00557
57.7 -0.00548
57.75 -0.0051
57.8 -0.00477
57.85 -0.00366
57.9 -0.003
57.95 -0.00227
58 -0.00128
58.05 -0.00032
58.1 -4e-05
58.15 0.00011
58.2 -0.00091
58.25 -0.00143
58.3 -0.00182
58.35 -0.00251
58.4 -0.00185
58.45 -0.00117
58.5 4e-04
58.55 0.00173
58.6 0.00291
58.65 0.00217
58.7 0.00147
58.75 0.00126
58.8 0.00125
58.85 0.00198
58.9 0.00095
58.95 -0.00033
59 -0.00134
59.05 -0.00152
59.1 -0.00118
59.15 -0.00112
59.2 -0.00038
59.25 0.00033
59.3 0.00073
59.35 0.00103
59.4 0.00151
59.45 0.00051
59.5 0.00035
59.55 0.00044
59.6 -0.00026
59.65 -0.00152
59.7 -0.00153
59.75 -0.00143
59.8 -0.00067
59.85 -0.00046
59.9 -0.00031
59.95 -8e-05
60 -0.00071
60.05 -0.00135
60.1 -0.0015
60.15 -0.00232
60.2 -0.0031
60.25 -0.004
60.3 -0.00392
60.35 -0.00394
60.4 -0.00295
60.45 -0.00181
60.5 -0.001
60.55 -9e-04
60.6 -0.00026
60.65 0.00045
60.7 0.00054
60.75 0.00044
60.8 -0.00099
60.85 -0.00256
60.9 -0.00321
60.95 -0.00398
61 -0.00489
61.05 -0.00396
61.1 -0.0037
61.15 -0.00352
61.2 -0.00354
61.25 -0.00434
61.3 -0.0046
61.35 -0.0054
61.4 -0.00528
61.45 -0.00455
61.5 -0.00367
61.55 -0.00311
61.6 -0.00267
61.65 -0.00204
61.7 -0.00289
61.75 -0.00348
61.8 -0.00362
61.85 -0.00335
61.9 -0.0045
61.95 -0.00438
62 -0.00344
62.05 -0.00269
62.1 -0.00081
62.15 0.00075
62.2 0.00116
62.25 0.00102
62.3 0.00117
62.35 0.00076
62.4 -0.00013
62.45 1e-05
62.5 -0.00056
62.55 -0.00057
62.6 -0.00162
62.65 -0.00145
62.7 -0.00244
62.75 -0.00453
62.8 -0.00495
62.85 -0.00457
62.9 -0.00368
62.95 -0.00195
63 9e-05
63.05 0.00192
63.1 0.00308
63.15 0.00382
63.2 0.00451
63.25 0.00523
63.3 0.00453
63.35 0.00329
63.4 0.00264
63.45 0.00198
63.5 0.00104
63.55 0.00014
63.6 0.00028
63.65 0.00037
63.7 -0.00081
63.75 -0.00163
63.8 -0.00216
63.85 -0.00161
63.9 -0.00148
63.95 -0.0011
64 -0.00063
64.05 -0.00086
64.1 -0.00064
64.15 -0.00108
64.2 -0.00135
64.25 -0.00258
64.3 -0.00345
64.35 -0.00367
64.4 -0.00478
64.45 -0.00544
64.5 -0.00612
64.55 -0.00621
64.6 -0.00584
64.65 -0.00477
64.7 -0.00424
64.75 -0.00343
64.8 -0.00248
64.85 -0.0012
64.9 -0.00015
64.95 0.00199
65 0.00314
65.05 0.00301
65.1 0.00174
65.15 0.00013
65.2 -3e-04
65.25 -0.00167
65.3 -0.00145
65.35 -0.00081
65.4 -0.00066
65.45 -0.00021
65.5 -0.00029
65.55 -8e-05
65.6 -7e-05
65.65 -0.00037
65.7 -0.00111
65.75 -0.00219
65.8 -0.00251
65.85 -0.00386
65.9 -0.00462
65.95 -0.00435
66 -0.00346
66.05 -0.00171
66.1 -4e-05
66.15 0.00044
66.2 0.0012
66.25 0.00203
66.3 0.0022
66.35 0.00174
66.4 0.00209
66.45 0.00288
66.5 0.00302
66.55 0.00296
66.6 0.00347
66.65 0.00418
66.7 0.00402
66.75 0.00403
66.8 0.00305
66.85 0.00172
66.9 0.00048
66.95 -0.00054
67 -0.00098
67.05 -0.00078
67.1 -0.00053
67.15 0.00059
67.2 0.00176
67.25 0.00243
67.3 0.00216
67.35 0.002
67.4 0.00172
67.45 0.00103
67.5 0.00126
67.55 0.00144
67.6 0.00187
67.65 0.00268
67.7 0.00291
67.75 0.00334
67.8 0.00283
67.85 0.00178
67.9 0.0011
67.95 0.00072
68 0.00078
68.05 0.00061
68.1 4e-04
68.15 2e-05
68.2 -0.00063
68.25 -0.00097
68.3 -0.00045
68.35 -0.00037
68.4 -0.00034
68.45 -0.00051
68.5 -0.00056
68.55 -0.00072
68.6 -0.00022
68.65 -0.00123
68.7 -0.00203
68.75 -0.00191
68.8 -0.00187
68.85 -0.00245
68.9 -0.00156
68.95 -0.00061
69 -0.00057
69.05 -0.00021
69.1 1e-04
69.15 0.00058
69.2 0.00143
69.25 0.00164
69.3 0.00188
69.35 0.00197
69.4 0.00221
69.45 0.00237
69.5 0.0011
69.55 2e-04
69.6 -0.00107
69.65 -0.00109
69.7 -0.00031
69.75 0.00103
69.8 0.0021
69.85 0.00268
69.9 0.00347
69.95 0.00316
70 0.00269
70.05 0.00242
70.1 0.00142
70.15 0.0019
70.2 0.00113
70.25 0.00061
70.3 0.00044
70.35 0.00063
70.4 -7e-05
70.45 -0.00116
70.5 -0.0013
70.55 -0.0017
70.6 -0.00198
70.65 -0.002
70.7 -0.00252
70.75 -0.00189
70.8 -0.00076
70.85 -0.00025
70.9 0.00044
70.95 0.00079
71 0.00118
71.05 0.00115
71.1 0.00153
71.15 0.00182
71.2 0.00138
71.25 0.00173
71.3 0.0015
71.35 0.00133
71.4 0.00092
71.45 0.00052
71.5 0.00047
71.55 0.00095
71.6 0.00114
71.65 0.00106
71.7 0.00164
71.75 0.00211
71.8 0.00268
71.85 0.00294
71.9 0.00236
71.95 0.00093
72 -1e-05
72.05 -0.0014
72.1 -0.0017
72.15 -0.00245
72.2 -0.00218
72.25 -0.00188
72.3 -0.00118
72.35 -0.00011
72.4 0.00087
72.45 0.00173
72.5 0.00163
72.55 0.00208
72.6 0.00289
72.65 0.00211
72.7 0.00211
72.75 0.0015
72.8 0.00212
72.85 0.00144
72.9 0.00052
72.95 7e-05
73 -0.00055
73.05 2e-05
73.1 -6e-04
73.15 -0.00036
73.2 -0.00017
73.25 6e-05
73.3 0.00018
73.35 0.00026
73.4 0.00068
73.45 0.00066
73.5 0.00045
73.55 0.00025
73.6 9e-05
73.65 0.00029
73.7 -0.00018
73.75 -0.00114
73.8 -0.00174
73.85 -0.00213
73.9 -0.00173
73.95 -0.0012
74 -0.00102
74.05 -0.00088
74.1 -0.00089
74.15 -0.00021
74.2 -0.00023
74.25 -0.00104
74.3 -0.00192
74.35 -0.002
74.4 -0.00262
74.45 -0.00309
74.5 -0.00265
74.55 -0.00183
74.6 -3e-04
74.65 0.00092
74.7 0.00139
74.75 0.00071
74.8 -1e-04
74.85 0.00031
74.9 0.00057
74.95 0.00021
75 -0.00071
75.05 -0.00182
75.1 -0.00193
75.15 -0.00262
75.2 -0.00232
75.25 -0.00135
75.3 -5e-05
75.35 0.00038
75.4 0.00075
75.45 0.00084
75.5 -1e-05
75.55 -8e-04
75.6 -0.00126
75.65 -0.0011
75.7 -0.00127
75.75 -0.00131
75.8 -0.00138
75.85 -0.00072
75.9 -0.00025
75.95 -0.00063
76 -0.00042
76.05 -0.00045
76.1 -0.00059
76.15 -0.00033
76.2 -0.00033
76.25 -0.00022
76.3 0.00058
76.35 0.00038
76.4 0.00042
76.45 0.00084
76.5 5e-04
76.55 0.00041
76.6 0.00098
76.65 0.00134
76.7 0.00099
76.75 8e-04
76.8 0.00063
76.85 0.00175
76.9 0.00209
76.95 0.00146
77 0.00096
77.05 -0.00068
77.1 -0.00195
77.15 -0.0033
77.2 -0.00328
77.25 -0.00236
77.3 -0.00124
77.35 -0.00037
77.4 0.00019
77.45 0.001
77.5 0.00119
77.55 0.00114
77.6 0.00153
77.65 0.00134
77.7 0.00083
77.75 0.00014
77.8 -9e-05
77.85 -0.00109
77.9 -0.00122
77.95 -0.00088
78 -0.00094
78.05 -0.00081
78.1 -0.00134
78.15 -0.00147
78.2 -0.00115
78.25 -0.00159
78.3 -0.00083
78.35 -0.0012
78.4 -1e-04
78.45 0.00063
78.5 0.00119
78.55 0.0018
78.6 0.00271
78.65 0.0027
78.7 0.00195
78.75 0.00075
78.8 0.00022
78.85 -0.00069
78.9 -7e-04
78.95 -0.0013
79 -0.0032
79.05 -0.00501
79.1 -0.00561
79.15 -0.00556
79.2 -0.00477
79.25 -0.00433
79.3 -0.00366
79.35 -0.00366
79.4 -0.00392
79.45 -0.00334
79.5 -0.00234
79.55 -0.00188
79.6 -0.00174
79.65 -0.00166
79.7 -0.00203
79.75 -0.0024
79.8 -0.00274
79.85 -0.0029
79.9 -0.00218
79.95 -0.00241
80 -0.00322
80.05 -0.00438
80.1 -0.00437
80.15 -0.00425
80.2 -0.0037
80.25 -0.00384
80.3 -0.00418
80.35 -0.00481
80.4 -0.00442
80.45 -0.00418
80.5 -0.00343
80.55 -0.00196
80.6 -0.00127
80.65 -0.00088
80.7 -0.00067
80.75 -0.00025
80.8 -0.00056
80.85 -0.00143
80.9 -0.00184
80.95 -0.00309
81 -0.00364
81.05 -0.00354
81.1 -0.00301
81.15 -0.00266
81.2 -0.00222
81.25 -0.00153
81.3 -0.00028
81.35 0.00091
81.4 0.00151
81.45 0.0015
81.5 0.00137
81.55 0.00122
81.6 -6e-05
81.65 -0.00116
81.7 -0.00116
81.75 -9e-04
81.8 -0.00147
81.85 -0.00128
81.9 -0.00165
81.95 -0.00141
82 -0.00036
82.05 5e-05
82.1 0.00042
82.15 0.00046
82.2 4e-04
82.25 0.00046
82.3 0.00024
82.35 -0.00058
82.4 -0.00112
82.45 -0.00171
82.5 -0.0025
82.55 -0.00226
82.6 -0.00201
82.65 -0.00236
82.7 -0.00179
82.75 -0.00145
82.8 -0.00052
82.85 0.00022
82.9 0.00098
82.95 0.00041
83 -8e-04
83.05 -0.00159
83.1 -0.00148
83.15 -0.00154
83.2 -0.0018
83.25 -0.00148
83.3 -0.00134
83.35 -7e-04
83.4 -0.00089
83.45 -0.00089
83.5 -0.00086
83.55 -0.00079
83.6 -0.00083
83.65 -0.00075
83.7 -0.00084
83.75 -0.00074
83.8 -0.00169
83.85 -0.00169
83.9 -0.00244
83.95 -0.00263
84 -0.00278
84.05 -0.00353
84.1 -0.00383
84.15 -0.00407
84.2 -0.00438
84.25 -0.00381
84.3 -0.00321
84.35 -0.00202
84.4 -0.00041
84.45 0.00099
84.5 0.00215
84.55 0.00271
84.6 0.00344
84.65 0.00339
84.7 0.00286
84.75 0.00158
84.8 0.00129
84.85 0.00037
84.9 -0.00102
84.95 -0.00185
85 -0.00212
85.05 -0.00243
85.1 -0.00311
85.15 -0.00396
85.2 -0.00491
85.25 -0.0058
85.3 -0.00624
85.35 -0.00542
85.4 -0.00438
85.45 -0.00308
85.5 -0.00154
85.55 0.00041
85.6 0.00093
85.65 0.00143
85.7 0.00136
85.75 0.00139
85.8 0.00065
85.85 0.00052
85.9 0.00091
85.95 0.00071
86 -0.00057
86.05 -0.0013
86.1 -0.00225
86.15 -0.00218
86.2 -0.0011
86.25 -5e-04
86.3 -1e-05
86.35 8e-05
86.4 -0.00032
86.45 0.00026
86.5 0.0013
86.55 0.0016
86.6 0.00089
86.65 0.00077
86.7 0.00097
86.75 0.00165
86.8 0.00204
86.85 0.00187
86.9 0.00162
86.95 0.00201
87 0.00216
87.05 0.00238
87.1 0.0023
87.15 0.00231
87.2 0.00275
87.25 0.00286
87.3 0.00266
87.35 0.00249
87.4 0.00185
87.45 0.00026
87.5 -0.00065
87.55 -0.0017
87.6 -0.00323
87.65 -0.00459
87.7 -0.00477
87.75 -0.00473
87.8 -0.00354
87.85 -0.0037
87.9 -0.00395
87.95 -0.00378
88 -0.0038
88.05 -0.00223
88.1 -0.00129
88.15 -0.00115
88.2 -0.00136
88.25 -4e-04
88.3 9e-04
88.35 0.0015
88.4 0.00238
88.45 0.00286
88.5 0.00241
88.55 0.00212
88.6 0.00157
88.65 0.00121
88.7 0.00085
88.75 -0.00011
88.8 -0.00092
88.85 -0.0016
88.9 -0.00207
88.95 -0.00151
89 -0.001
89.05 -0.00012
89.1 0.00051
89.15 0.00171
89.2 0.00186
89.25 0.00193
89.3 0.00228
89.35 0.0025
89.4 0.00159
89.45 0.0011
89.5 0.00031
89.55 -0.00082
89.6 -0.00166
89.65 -0.00192
89.7 -0.00268
89.75 -0.00246
89.8 -0.00175
89.85 -0.00179
89.9 -0.00114
89.95 -0.00036
90 -7e-04
90.05 -0.00067
90.1 -0.00189
90.15 -0.00245
90.2 -0.00258
90.25 -0.00237
90.3 -0.00257
90.35 -0.00321
90.4 -0.00311
90.45 -0.00339
90.5 -0.00225
90.55 -0.00122
90.6 -0.00058
90.65 0.00046
90.7 0.0013
90.75 0.00239
90.8 0.00222
90.85 0.00179
90.9 0.00185
90.95 0.00098
91 0.00094
91.05 0.00137
91.1 0.00121
91.15 0.00116
91.2 0.00073
91.25 0.00051
91.3 6e-04
91.35 0.00052
91.4 -0.00013
91.45 -0.00076
91.5 -9e-04
91.55 -0.00024
91.6 0.00039
91.65 0.00082
91.7 0.00172
91.75 0.00237
91.8 0.00283
91.85 0.00289
91.9 0.00295
91.95 0.00288
92 0.0019
92.05 0.00071
92.1 -0.00139
92.15 -0.00278
92.2 -0.00354
92.25 -0.00411
92.3 -0.0048
92.35 -0.00496
92.4 -0.00448
92.45 -0.00515
92.5 -0.00544
92.55 -0.00567
92.6 -0.00578
92.65 -0.00533
92.7 -0.00517
92.75 -0.00537
92.8 -0.00593
92.85 -0.00641
92.9 -0.00601
92.95 -0.0047
93 -0.00374
93.05 -0.00231
93.1 -0.00034
93.15 0.00099
93.2 0.00182
93.25 0.00212
93.3 0.00209
93.35 0.00255
93.4 0.00182
93.45 0.00104
93.5 0.00074
93.55 0.00081
93.6 0.00066
93.65 -0.00043
93.7 -0.00119
93.75 -0.00325
93.8 -0.0037
93.85 -0.00369
93.9 -0.00315
93.95 -0.00232
94 -0.00163
94.05 -0.00201
94.1 -0.00221
94.15 -0.00237
94.2 -0.00205
94.25 -0.00068
94.3 0.00021
94.35 0.00024
94.4 2e-04
94.45 0.00127
94.5 0.0018
94.55 0.00293
94.6 0.00227
94.65 0.00259
94.7 0.00314
94.75 0.00379
94.8 0.00378
94.85 0.00388
94.9 0.0038
94.95 0.00357
95 0.00347
95.05 0.00402
95.1 0.00389
95.15 0.00328
95.2 0.00241
95.25 0.00172
95.3 0.00057
95.35 -0.00063
95.4 -0.0023
95.45 -0.00261
95.5 -0.00266
95.55 -0.00276
95.6 -0.00332
95.65 -0.00387
95.7 -0.00401
95.75 -0.004
95.8 -0.00284
95.85 -0.00283
95.9 -0.00368
95.95 -0.00441
96 -0.00485
96.05 -0.00494
96.1 -0.0046
96.15 -0.00343
96.2 -0.00247
96.25 -0.00117
96.3 -0.00091
96.35 -7e-05
96.4 5e-04
96.45 0.00039
96.5 0.00054
96.55 0.00041
96.6 0.00074
96.65 0.00173
96.7 0.00186
96.75 0.00117
96.8 0.00134
96.85 0.00135
96.9 0.00135
96.95 0.00061
97 4e-05
97.05 2e-04
97.1 0.00147
97.15 0.00259
97.2 0.00339
97.25 0.00405
97.3 0.00412
97.35 0.00394
97.4 0.00355
97.45 0.00401
97.5 0.00536
97.55 0.00568
97.6 0.00481
97.65 0.00319
97.7 0.00159
97.75 0.00105
97.8 0.00044
97.85 -0.00052
97.9 -0.0013
97.95 -0.00284
98 -0.00438
98.05 -0.00515
98.1 -0.00464
98.15 -0.0052
98.2 -0.00552
98.25 -0.00531
98.3 -0.00432
98.35 -0.00263
98.4 -0.00065
98.45 0.00086
98.5 0.0011
98.55 0.00146
98.6 0.00196
98.65 0.00187
98.7 0.00137
98.75 0.00116
98.8 0.00144
98.85 0.00048
98.9 -0.00045
98.95 -0.00025
99 -0.00031
99.05 -0.00142
99.1 -0.0026
99.15 -0.00363
99.2 -0.00438
99.25 -0.00385
99.3 -0.00393
99.35 -0.00406
99.4 -0.00401
99.45 -0.00328
99.5 -0.00364
99.55 -0.00275
99.6 -0.00135
99.65 -5e-05
99.7 7e-04
99.75 0.00225
99.8 0.00271
99.85 0.00241
99.9 0.00131
99.95 7e-05
