0 0
0.05 0.00434
0.1 0.01157
0.15 0.02022
0.2 0.02939
0.25 0.03776
0.3 0.04465
0.35 0.05
0.4 0.05397
0.45 0.05566
0.5 0.05572
0.55 0.05598
0.6 0.05513
0.65 0.05343
0.7 0.0522
0.75 0.05216
0.8 0.05144
0.85 0.05012
0.9 0.04848
0.95 0.04831
1 0.04722
1.05 0.04621
1.1 0.044
1.15 0.04167
1.2 0.04075
1.25 0.0401
1.3 0.0405
1.35 0.03925
1.4 0.03926
1.45 0.03946
1.5 0.03919
1.55 0.03905
1.6 0.03879
1.65 0.03843
1.7 0.03862
1.75 0.03895
1.8 0.03856
1.85 0.03803
1.9 0.03708
1.95 0.03565
2 0.03386
2.05 0.03232
2.1 0.0316
2.15 0.03173
2.2 0.03245
2.25 0.03189
2.3 0.03043
2.35 0.02897
2.4 0.02739
2.45 0.02625
2.5 0.02592
2.55 0.0252
2.6 0.02528
2.65 0.02573
2.7 0.02519
2.75 0.02442
2.8 0.02345
2.85 0.02304
2.9 0.02384
2.95 0.0243
3 0.02465
3.05 0.02394
3.1 0.02257
3.15 0.02159
3.2 0.02105
3.25 0.02145
3.3 0.02162
3.35 0.02178
3.4 0.02167
3.45 0.02143
3.5 0.02062
3.55 0.01886
3.6 0.01726
3.65 0.01668
3.7 0.01671
3.75 0.01639
3.8 0.01649
3.85 0.01632
3.9 0.01604
3.95 0.01554
4 0.01559
4.05 0.01443
4.1 0.01294
4.15 0.011
4.2 0.00938
4.25 0.00778
4.3 0.00563
4.35 0.00329
4.4 -0.00011
4.45 -0.00555
4.5 -0.01238
4.55 -0.02117
4.6 -0.03218
4.65 -0.04547
4.7 -0.05974
4.75 -0.07654
4.8 -0.09556
4.85 -0.11682
4.9 -0.14176
4.95 -0.17112
5 -0.20529
5.05 -0.24371
5.1 -0.2872
5.15 -0.33561
5.2 -0.3869
5.25 -0.44279
5.3 -0.50303
5.35 -0.56645
5.4 -0.63187
5.45 -0.69903
5.5 -0.76717
5.55 -0.83597
5.6 -0.90355
5.65 -0.97028
5.7 -1.03425
5.75 -1.09381
5.8 -1.14835
5.85 -1.19742
5.9 -1.2397
5.95 -1.27533
6 -1.30422
6.05 -1.32662
6.1 -1.34243
6.15 -1.35202
6.2 -1.35486
6.25 -1.3504
6.3 -1.34136
6.35 -1.3251
6.4 -1.30302
6.45 -1.27557
6.5 -1.2435
6.55 -1.20587
6.6 -1.16254
6.65 -1.11349
6.7 -1.05893
6.75 -0.99862
6.8 -0.9323
6.85 -0.85933
6.9 -0.77987
6.95 -0.695
7 -0.60362
7.05 -0.5072
7.1 -0.40741
7.15 -0.30428
7.2 -0.19773
7.25 -0.08945
7.3 0.02033
7.35 0.1297
7.4 0.23743
7.45 0.34381
7.5 0.44763
7.55 0.54703
7.6 0.64216
7.65 0.73094
7.7 0.81375
7.75 0.8891
7.8 0.95636
7.85 1.01712
7.9 1.07039
7.95 1.11473
8 1.15179
8.05 1.1827
8.1 1.2086
8.15 1.2298
8.2 1.24479
8.25 1.25452
8.3 1.26044
8.35 1.26293
8.4 1.26028
8.45 1.25326
8.5 1.24259
8.55 1.23087
8.6 1.21648
8.65 1.20035
8.7 1.18167
8.75 1.16264
8.8 1.14141
8.85 1.11878
8.9 1.09623
8.95 1.07329
9 1.05089
9.05 1.02788
9.1 1.00526
9.15 0.9825
9.2 0.95983
9.25 0.93753
9.3 0.91438
9.35 0.89087
9.4 0.86627
9.45 0.84241
9.5 0.81943
9.55 0.79704
9.6 0.77624
9.65 0.75609
9.7 0.73518
9.75 0.71333
9.8 0.69097
9.85 0.6697
9.9 0.64966
9.95 0.63059
10 0.61107
10.05 0.59264
10.1 0.57451
10.15 0.55573
10.2 0.53769
10.25 0.51909
10.3 0.49898
10.35 0.4775
10.4 0.45721
10.45 0.43873
10.5 0.42057
10.55 0.40181
10.6 0.38278
10.65 0.36253
10.7 0.34342
10.75 0.32363
10.8 0.30349
10.85 0.2836
10.9 0.26446
10.95 0.24503
11 0.22648
11.05 0.20846
11.1 0.19131
11.15 0.17457
11.2 0.15709
11.25 0.13943
11.3 0.12317
11.35 0.10648
11.4 0.08965
11.45 0.07351
11.5 0.05799
11.55 0.04164
11.6 0.02652
11.65 0.01103
11.7 -0.00385
11.75 -0.01747
11.8 -0.03114
11.85 -0.04396
11.9 -0.05583
11.95 -0.06682
12 -0.07722
12.05 -0.08736
12.1 -0.09711
12.15 -0.10601
12.2 -0.11441
12.25 -0.1225
12.3 -0.12888
12.35 -0.13456
12.4 -0.13932
12.45 -0.14533
12.5 -0.15007
12.55 -0.15505
12.6 -0.15904
12.65 -0.16272
12.7 -0.16606
12.75 -0.16959
12.8 -0.17279
12.85 -0.17667
12.9 -0.18038
12.95 -0.18299
13 -0.18493
13.05 -0.18606
13.1 -0.18636
13.15 -0.18647
13.2 -0.18601
13.25 -0.18607
13.3 -0.18471
13.35 -0.18312
13.4 -0.18168
13.45 -0.18035
13.5 -0.17923
13.55 -0.1783
13.6 -0.17717
13.65 -0.17724
13.7 -0.17746
13.75 -0.17674
13.8 -0.17566
13.85 -0.17387
13.9 -0.17215
13.95 -0.17052
14 -0.16861
14.05 -0.16647
14.1 -0.16523
14.15 -0.16404
14.2 -0.16189
14.25 -0.16031
14.3 -0.15962
14.35 -0.15858
14.4 -0.15647
14.45 -0.15393
14.5 -0.15071
14.55 -0.14727
14.6 -0.14379
14.65 -0.14032
14.7 -0.13677
14.75 -0.13434
14.8 -0.13228
14.85 -0.13073
14.9 -0.12941
14.95 -0.12932
15 -0.12899
15.05 -0.12808
15.1 -0.12648
15.15 -0.12455
15.2 -0.12207
15.25 -0.12009
15.3 -0.11832
15.35 -0.11599
15.4 -0.11327
15.45 -0.11207
15.5 -0.11013
15.55 -0.10885
15.6 -0.10771
15.65 -0.10607
15.7 -0.10454
15.75 -0.1044
15.8 -0.10379
15.85 -0.1033
15.9 -0.10252
15.95 -0.10078
16 -0.09853
16.05 -0.09658
16.1 -0.09505
16.15 -0.09339
16.2 -0.09055
16.25 -0.08805
16.3 -0.08628
16.35 -0.08455
16.4 -0.08256
16.45 -0.08133
16.5 -0.08038
16.55 -0.07853
16.6 -0.07747
16.65 -0.07588
16.7 -0.07435
16.75 -0.07394
16.8 -0.07426
16.85 -0.07421
16.9 -0.07428
16.95 -0.07299
17 -0.07165
17.05 -0.0705
17.1 -0.06862
17.15 -0.06649
17.2 -0.06472
17.25 -0.06353
17.3 -0.06254
17.35 -0.06184
17.4 -0.06097
17.45 -0.05926
17.5 -0.05742
17.55 -0.05655
17.6 -0.05646
17.65 -0.05608
17.7 -0.05527
17.75 -0.05381
17.8 -0.05414
17.85 -0.05381
17.9 -0.05358
17.95 -0.0539
18 -0.05331
18.05 -0.05254
18.1 -0.05157
18.15 -0.05158
18.2 -0.05032
18.25 -0.04933
18.3 -0.04861
18.35 -0.04738
18.4 -0.04554
18.45 -0.0439
18.5 -0.04256
18.55 -0.04171
18.6 -0.04219
18.65 -0.04234
18.7 -0.04191
18.75 -0.04108
18.8 -0.04061
18.85 -0.03963
18.9 -0.03858
18.95 -0.03876
19 -0.03871
19.05 -0.03793
19.1 -0.03728
19.15 -0.03582
19.2 -0.03557
19.25 -0.03612
19.3 -0.03576
19.35 -0.03435
19.4 -0.03334
19.45 -0.0334
19.5 -0.03208
19.55 -0.03186
19.6 -0.03036
19.65 -0.02894
19.7 -0.02794
19.75 -0.02723
19.8 -0.02689
19.85 -0.02563
19.9 -0.02578
19.95 -0.02582
20 -0.02496
20.05 -0.02434
20.1 -0.02307
20.15 -0.02268
20.2 -0.02194
20.25 -0.02211
20.3 -0.02168
20.35 -0.02053
20.4 -0.01989
20.45 -0.02051
20.5 -0.0215
20.55 -0.02198
20.6 -0.02244
20.65 -0.02254
20.7 -0.02284
20.75 -0.02281
20.8 -0.02227
20.85 -0.02191
20.9 -0.02165
20.95 -0.02145
21 -0.02093
21.05 -0.02107
21.1 -0.0216
21.15 -0.0213
21.2 -0.02192
21.25 -0.02221
21.3 -0.02166
21.35 -0.02031
21.4 -0.01971
21.45 -0.01991
21.5 -0.02021
21.55 -0.02015
21.6 -0.01952
21.65 -0.01831
21.7 -0.01777
21.75 -0.01673
21.8 -0.01498
21.85 -0.01428
21.9 -0.01409
21.95 -0.01373
22 -0.01396
22.05 -0.01364
22.1 -0.01286
22.15 -0.01179
22.2 -0.01144
22.25 -0.01059
22.3 -0.00946
22.35 -0.01033
22.4 -0.01039
22.45 -0.00935
22.5 -0.00916
22.55 -0.00885
22.6 -0.00962
22.65 -0.00996
22.7 -0.01066
22.75 -0.01101
22.8 -0.01162
22.85 -0.01142
22.9 -0.0106
22.95 -0.00951
23 -0.00842
23.05 -0.00815
23.1 -0.00861
23.15 -0.00846
23.2 -0.00866
23.25 -0.0091
23.3 -0.00859
23.35 -0.00795
23.4 -0.00773
23.45 -0.00811
23.5 -0.00766
23.55 -0.00728
23.6 -0.00635
23.65 -0.00586
23.7 -0.00567
23.75 -0.00533
23.8 -0.00548
23.85 -0.00591
23.9 -0.0058
23.95 -0.00615
24 -0.00643
24.05 -0.0071
24.1 -0.00734
24.15 -0.00704
24.2 -0.00643
24.25 -0.00564
24.3 -0.00624
24.35 -0.00783
24.4 -0.00872
24.45 -0.00934
24.5 -0.00897
24.55 -0.00723
24.6 -0.00651
24.65 -0.00639
24.7 -0.00532
24.75 -0.00532
24.8 -0.00508
24.85 -0.00502
24.9 -0.00523
24.95 -0.00542
25 -0.0063
25.05 -0.00678
25.1 -0.00828
25.15 -0.00855
25.2 -0.00881
25.25 -0.00812
25.3 -0.00801
25.35 -0.00855
25.4 -0.00853
25.45 -0.00855
25.5 -0.00781
25.55 -0.0075
25.6 -0.00665
25.65 -0.00535
25.7 -0.00521
25.75 -0.00433
25.8 -0.00495
25.85 -0.00624
25.9 -0.00624
25.95 -0.00504
26 -0.00507
26.05 -0.00494
26.1 -0.00492
26.15 -0.00509
26.2 -0.00563
26.25 -0.00658
26.3 -0.00667
26.35 -0.00657
26.4 -0.00579
26.45 -0.00522
26.5 -0.00504
26.55 -0.0051
26.6 -0.00564
26.65 -0.00526
26.7 -0.00526
26.75 -0.00539
26.8 -0.00649
26.85 -0.00757
26.9 -0.00778
26.95 -0.00747
27 -0.007
27.05 -0.00665
27.1 -0.00668
27.15 -0.00655
27.2 -0.00612
27.25 -0.0067
27.3 -0.00658
27.35 -0.00675
27.4 -0.00627
27.45 -0.00606
27.5 -0.00635
27.55 -0.00714
27.6 -0.00907
27.65 -0.01068
27.7 -0.01329
27.75 -0.01528
27.8 -0.01836
27.85 -0.02275
27.9 -0.02915
27.95 -0.03439
28 -0.03973
28.05 -0.04615
28.1 -0.05345
28.15 -0.06144
28.2 -0.07055
28.25 -0.0813
28.3 -0.09394
28.35 -0.10895
28.4 -0.12686
28.45 -0.14711
28.5 -0.16977
28.55 -0.19439
28.6 -0.22112
28.65 -0.25118
28.7 -0.28418
28.75 -0.31989
28.8 -0.35819
28.85 -0.40048
28.9 -0.4461
28.95 -0.49304
29 -0.5432
29.05 -0.59714
29.1 -0.6518
29.15 -0.70753
29.2 -0.76456
29.25 -0.82257
29.3 -0.88067
29.35 -0.93813
29.4 -0.99433
29.45 -1.04845
29.5 -1.10032
29.55 -1.14868
29.6 -1.19282
29.65 -1.23158
29.7 -1.2648
29.75 -1.29319
29.8 -1.31516
29.85 -1.3308
29.9 -1.33904
29.95 -1.33902
30 -1.32974
30.05 -1.31084
30.1 -1.28313
30.15 -1.24725
30.2 -1.20198
30.25 -1.14839
30.3 -1.08682
30.35 -1.01869
30.4 -0.9436
30.45 -0.86387
30.5 -0.78077
30.55 -0.69336
30.6 -0.60229
30.65 -0.50636
30.7 -0.4101
30.75 -0.31305
30.8 -0.21689
30.85 -0.12067
30.9 -0.02583
30.95 0.06522
31 0.15317
31.05 0.23843
31.1 0.32056
31.15 0.3986
31.2 0.47008
31.25 0.53621
31.3 0.59762
31.35 0.65324
31.4 0.70391
31.45 0.75072
31.5 0.79295
31.55 0.83095
31.6 0.86417
31.65 0.8934
31.7 0.91857
31.75 0.94033
31.8 0.95907
31.85 0.97521
31.9 0.98942
31.95 1.00253
32 1.01403
32.05 1.0237
32.1 1.03169
32.15 1.03819
32.2 1.04366
32.25 1.04756
32.3 1.0506
32.35 1.05307
32.4 1.05533
32.45 1.0564
32.5 1.05584
32.55 1.05401
32.6 1.05137
32.65 1.04862
32.7 1.04441
32.75 1.03824
32.8 1.02969
32.85 1.02097
32.9 1.01001
32.95 0.99789
33 0.98543
33.05 0.9717
33.1 0.9554
33.15 0.93867
33.2 0.92049
33.25 0.90173
33.3 0.88252
33.35 0.86176
33.4 0.84044
33.45 0.81864
33.5 0.79467
33.55 0.77036
33.6 0.74527
33.65 0.71934
33.7 0.69241
33.75 0.66682
33.8 0.64152
33.85 0.6159
33.9 0.59049
33.95 0.56542
34 0.5395
34.05 0.51399
34.1 0.48867
34.15 0.46394
34.2 0.43984
34.25 0.41688
34.3 0.3949
34.35 0.37251
34.4 0.35089
34.45 0.32866
34.5 0.3064
34.55 0.28516
34.6 0.2656
34.65 0.24609
34.7 0.22659
34.75 0.20653
34.8 0.1864
34.85 0.16694
34.9 0.14754
34.95 0.12843
35 0.11057
35.05 0.09377
35.1 0.07787
35.15 0.06238
35.2 0.04829
35.25 0.03448
35.3 0.01996
35.35 0.00604
35.4 -0.00626
35.45 -0.01835
35.5 -0.02917
35.55 -0.03953
35.6 -0.04883
35.65 -0.05815
35.7 -0.0682
35.75 -0.07651
35.8 -0.08512
35.85 -0.09305
35.9 -0.10124
35.95 -0.10878
36 -0.11487
36.05 -0.12057
36.1 -0.12636
36.15 -0.13295
36.2 -0.13965
36.25 -0.14484
36.3 -0.15025
36.35 -0.15529
36.4 -0.1598
36.45 -0.16412
36.5 -0.16732
36.55 -0.17006
36.6 -0.17297
36.65 -0.17534
36.7 -0.17761
36.75 -0.17963
36.8 -0.18036
36.85 -0.18108
36.9 -0.18175
36.95 -0.18213
37 -0.18094
37.05 -0.18031
37.1 -0.18058
37.15 -0.18056
37.2 -0.17966
37.25 -0.17861
37.3 -0.17812
37.35 -0.17836
37.4 -0.17785
37.45 -0.1781
37.5 -0.17727
37.55 -0.17734
37.6 -0.17721
37.65 -0.17617
37.7 -0.17498
37.75 -0.17279
37.8 -0.16935
37.85 -0.16639
37.9 -0.16236
37.95 -0.15944
38 -0.1575
38.05 -0.15556
38.1 -0.15413
38.15 -0.15304
38.2 -0.15248
38.25 -0.15149
38.3 -0.14976
38.35 -0.14685
38.4 -0.1439
38.45 -0.1403
38.5 -0.13741
38.55 -0.13589
38.6 -0.13469
38.65 -0.13362
38.7 -0.13283
38.75 -0.13159
38.8 -0.13135
38.85 -0.13052
38.9 -0.12906
38.95 -0.12742
39 -0.12677
39.05 -0.12477
39.1 -0.12274
39.15 -0.12017
39.2 -0.11701
39.25 -0.11427
39.3 -0.11108
39.35 -0.10736
39.4 -0.10453
39.45 -0.10148
39.5 -0.09928
39.55 -0.09872
39.6 -0.09782
39.65 -0.09749
39.7 -0.09682
39.75 -0.09628
39.8 -0.09517
39.85 -0.09349
39.9 -0.09258
39.95 -0.09024
40 -0.08781
40.05 -0.08561
40.1 -0.08398
40.15 -0.08286
40.2 -0.082
40.25 -0.08167
40.3 -0.08168
40.35 -0.08096
40.4 -0.0801
40.45 -0.07911
40.5 -0.07793
40.55 -0.07634
40.6 -0.07453
40.65 -0.0736
40.7 -0.07222
40.75 -0.07077
40.8 -0.06967
40.85 -0.06889
40.9 -0.06743
40.95 -0.06657
41 -0.06581
41.05 -0.0659
41.1 -0.06559
41.15 -0.06429
41.2 -0.0633
41.25 -0.06174
41.3 -0.06076
41.35 -0.06029
41.4 -0.05965
41.45 -0.05828
41.5 -0.05595
41.55 -0.05353
41.6 -0.05172
41.65 -0.05088
41.7 -0.05098
41.75 -0.05091
41.8 -0.05059
41.85 -0.04983
41.9 -0.04984
41.95 -0.05011
42 -0.04934
42.05 -0.04879
42.1 -0.04873
42.15 -0.04908
42.2 -0.04848
42.25 -0.04777
42.3 -0.04726
42.35 -0.04692
42.4 -0.04656
42.45 -0.04559
42.5 -0.04491
42.55 -0.04454
42.6 -0.04481
42.65 -0.04445
42.7 -0.04394
42.75 -0.04401
42.8 -0.04323
42.85 -0.04237
42.9 -0.04032
42.95 -0.03867
43 -0.03629
43.05 -0.03444
43.1 -0.03288
43.15 -0.03142
43.2 -0.03026
43.25 -0.02959
43.3 -0.02985
43.35 -0.03018
43.4 -0.03076
43.45 -0.03114
43.5 -0.03225
43.55 -0.03262
43.6 -0.03327
43.65 -0.03352
43.7 -0.0329
43.75 -0.0328
43.8 -0.03204
43.85 -0.03155
43.9 -0.03031
43.95 -0.02826
44 -0.02613
44.05 -0.02464
44.1 -0.02298
44.15 -0.02242
44.2 -0.0223
44.25 -0.02272
44.3 -0.02159
44.35 -0.02048
44.4 -0.01994
44.45 -0.01955
44.5 -0.01865
44.55 -0.01819
44.6 -0.01752
44.65 -0.01799
44.7 -0.01937
44.75 -0.01981
44.8 -0.01978
44.85 -0.01891
44.9 -0.01854
44.95 -0.0188
45 -0.02
45.05 -0.02176
45.1 -0.02171
45.15 -0.02077
45.2 -0.02005
45.25 -0.01997
45.3 -0.01906
45.35 -0.01732
45.4 -0.01672
45.45 -0.01699
45.5 -0.01761
45.55 -0.01777
45.6 -0.01752
45.65 -0.01801
45.7 -0.0189
45.75 -0.01904
45.8 -0.01924
45.85 -0.01966
45.9 -0.01975
45.95 -0.01963
46 -0.01813
46.05 -0.01689
46.1 -0.01536
46.15 -0.01349
46.2 -0.01205
46.25 -0.01068
46.3 -0.01015
46.35 -0.01
46.4 -0.00991
46.45 -0.01018
46.5 -0.01005
46.55 -0.00969
46.6 -0.00907
46.65 -0.00833
46.7 -0.00699
46.75 -0.00736
46.8 -0.00911
46.85 -0.01042
46.9 -0.01134
46.95 -0.01141
47 -0.01119
47.05 -0.01045
47.1 -0.00991
47.15 -0.00973
47.2 -0.01005
47.25 -0.01021
47.3 -0.01057
47.35 -0.01192
47.4 -0.01237
47.45 -0.01251
47.5 -0.0133
47.55 -0.01294
47.6 -0.01084
47.65 -0.00974
47.7 -0.00893
47.75 -0.00854
47.8 -0.00837
47.85 -0.00755
47.9 -0.00639
47.95 -0.00641
48 -0.00642
48.05 -0.0068
48.1 -0.00719
48.15 -0.00742
48.2 -0.00673
48.25 -0.00677
48.3 -0.0075
48.35 -0.00753
48.4 -0.0073
48.45 -0.00696
48.5 -0.00708
48.55 -0.00726
48.6 -0.00761
48.65 -0.00845
48.7 -0.00916
48.75 -0.00895
48.8 -0.00812
48.85 -0.00738
48.9 -0.00654
48.95 -0.00722
49 -0.00713
49.05 -0.00643
49.1 -0.00614
49.15 -0.00594
49.2 -0.00638
49.25 -0.00669
49.3 -0.0056
49.35 -0.00583
49.4 -0.00574
49.45 -0.00583
49.5 -0.00536
49.55 -0.00401
49.6 -0.00338
49.65 -0.00241
49.7 -0.00263
49.75 -0.00398
49.8 -0.00462
49.85 -0.00472
49.9 -0.00438
49.95 -0.0041
50 -0.00301
50.05 -0.00034
50.1 -0.00013
50.15 -0.00031
50.2 -8e-04
50.25 -5e-05
50.3 -0.00022
50.35 -5e-05
50.4 0.00041
50.45 0.00104
50.5 0.00107
50.55 0.00176
50.6 0.00173
50.65 0.00189
50.7 0.00216
50.75 0.00164
50.8 0.00142
50.85 0.00089
50.9 -0.00014
50.95 -0.00086
51 -0.00171
51.05 -0.0026
51.1 -0.00306
51.15 -0.00487
51.2 -0.00578
51.25 -0.00667
51.3 -0.00722
51.35 -0.00729
51.4 -0.00631
51.45 -0.00499
51.5 -0.00409
51.55 -0.00407
51.6 -0.00456
51.65 -0.00481
51.7 -0.00508
51.75 -0.00554
51.8 -0.00493
51.85 -0.00522
51.9 -0.00592
51.95 -0.00606
52 -0.00545
52.05 -0.00479
52.1 -0.00411
52.15 -0.00402
52.2 -0.00343
52.25 -0.00211
52.3 -0.0011
52.35 -0.00073
52.4 -0.00173
52.45 -0.003
52.5 -0.0037
52.55 -0.00349
52.6 -0.00343
52.65 -0.00327
52.7 -0.00321
52.75 -0.00384
52.8 -0.00359
52.85 -0.00253
52.9 -0.00215
52.95 -0.00183
53 -0.00129
53.05 -0.00061
53.1 -0.00048
53.15 -0.00035
53.2 -1e-05
53.25 -0.00045
53.3 -0.00099
53.35 -0.0018
53.4 -0.00197
53.45 -0.00111
53.5 -0.00033
53.55 -1e-04
53.6 -0.00041
53.65 -0.00059
53.7 -0.00144
53.75 -0.00299
53.8 -0.00421
53.85 -0.00522
53.9 -0.0061
53.95 -0.00703
54 -0.00752
54.05 -0.00757
54.1 -0.00668
54.15 -0.00568
54.2 -0.00448
54.25 -0.00249
54.3 0.00016
54.35 0.00251
54.4 0.00289
54.45 0.0039
54.5 0.0043
54.55 0.00351
54.6 0.00307
54.65 0.00208
54.7 7e-05
54.75 -0.00109
54.8 -0.00201
54.85 -0.00306
54.9 -0.00401
54.95 -0.00443
55 -0.00414
55.05 -0.00351
55.1 -0.00242
55.15 -0.0021
55.2 -0.00141
55.25 -0.00117
55.3 0.00033
55.35 0.00047
55.4 0.00045
55.45 0.00022
55.5 0.00014
55.55 -0.00063
55.6 -0.0011
55.65 -0.00047
55.7 -2e-05
55.75 0.00058
55.8 0.00047
55.85 0.00051
55.9 -0.00028
55.95 -0.00159
56 -0.00137
56.05 -0.00016
56.1 0.00096
56.15 0.00072
56.2 -0.00051
56.25 -0.00134
56.3 -0.00115
56.35 -5e-04
56.4 -0.00018
56.45 0.00034
56.5 0.00124
56.55 0.00115
56.6 0.0011
56.65 0.00032
56.7 -0.00055
56.75 -0.00105
56.8 -0.00143
56.85 -0.00276
56.9 -0.00267
56.95 -0.00214
57 -0.00159
57.05 -0.00174
57.1 -0.00271
57.15 -0.00379
57.2 -0.00431
57.25 -0.00471
57.3 -0.00502
57.35 -0.00458
57.4 -0.00323
57.45 -0.00199
57.5 -0.00038
57.55 0.00083
57.6 0.00075
57.65 0.00096
57.7 0.00091
57.75 0.00132
57.8 0.00206
57.85 0.00355
57.9 0.00455
57.95 0.003
58 0.00187
58.05 -0.00039
58.1 -0.00216
58.15 -0.00364
58.2 -0.0035
58.25 -0.004
58.3 -0.00283
58.35 -0.00229
58.4 -0.00101
58.45 -0.00039
58.5 0.00066
58.55 0.00098
58.6 0.00099
58.65 0.00113
58.7 0.00147
58.75 0.00105
58.8 0.00051
58.85 -0.00077
58.9 -0.00182
58.95 -0.00312
59 -0.00499
59.05 -0.00568
59.1 -0.00594
59.15 -0.00558
59.2 -0.00558
59.25 -0.0055
59.3 -0.00411
59.35 -0.00366
59.4 -0.00225
59.45 -0.0016
59.5 -0.00057
59.55 -0.00161
59.6 -0.00181
59.65 -0.00161
59.7 -0.00031
59.75 0.00078
59.8 0.00147
59.85 0.0021
59.9 0.00309
59.95 0.00322
60 0.00242
60.05 0.00136
60.1 0.00087
60.15 0.00053
60.2 -0.00028
60.25 -0.00021
60.3 -0.00018
60.35 0.00109
60.4 0.00239
60.45 0.00295
60.5 0.00395
60.55 0.00422
60.6 0.00286
60.65 0.00213
60.7 0.00111
60.75 0.00076
60.8 -0.00067
60.85 -0.00133
60.9 -0.00124
60.95 -0.00185
61 -0.00183
61.05 -0.00106
61.1 -0.00148
61.15 -0.00229
61.2 -0.00245
61.25 -0.00221
61.3 -0.00186
61.35 -0.00104
61.4 -0.00026
61.45 7e-04
61.5 0.00139
61.55 0.00101
61.6 0.00107
61.65 7e-04
61.7 0.00076
61.75 -0.00053
61.8 -0.00077
61.85 -0.00096
61.9 -0.00128
61.95 -0.00165
62 -0.00172
62.05 -0.00346
62.1 -0.00416
62.15 -0.00403
62.2 -0.0052
62.25 -0.00532
62.3 -0.00538
62.35 -0.00462
62.4 -0.00414
62.45 -0.0026
62.5 -0.00074
62.55 0.00051
62.6 0.00185
62.65 0.00179
62.7 0.00171
62.75 0.00055
62.8 0.00018
62.85 0.00015
62.9 9e-04
62.95 0.0016
63 0.00193
63.05 0.00184
63.1 0.00188
63.15 0.00102
63.2 0.00025
63.25 -0.00039
63.3 -0.00135
63.35 -0.00068
63.4 0.00029
63.45 0.00109
63.5 0.00123
63.55 0.00168
63.6 0.00235
63.65 0.0029
63.7 0.00262
63.75 0.00244
63.8 0.002
63.85 0.00138
63.9 -0.00012
63.95 -0.00222
64 -0.00295
64.05 -0.00319
64.1 -0.00299
64.15 -0.0026
64.2 -0.00172
64.25 -0.00081
64.3 -0.00151
64.35 -0.00097
64.4 -0.00019
64.45 -2e-04
64.5 -0.00039
64.55 -0.00139
64.6 -0.00216
64.65 -0.00306
64.7 -0.0027
64.75 -0.00349
64.8 -0.00332
64.85 -0.00374
64.9 -0.00272
64.95 -0.0018
65 -0.00128
65.05 -0.00075
65.1 -1e-05
65.15 0.00046
65.2 0.00042
65.25 -0.00019
65.3 -9e-05
65.35 -0.00024
65.4 -0.00037
65.45 -0.00063
65.5 -0.00111
65.55 -0.00085
65.6 -0.00057
65.65 -0.00045
65.7 -3e-04
65.75 0.00046
65.8 0.00126
65.85 0.00163
65.9 0.00148
65.95 0.00129
66 -6e-05
66.05 -0.00029
66.1 -0.00094
66.15 -0.00199
66.2 -0.00337
66.25 -0.00464
66.3 -0.00514
66.35 -0.00462
66.4 -0.00339
66.45 -0.00247
66.5 -0.00112
66.55 -4e-05
66.6 2e-05
66.65 0.00064
66.7 0.00177
66.75 0.00248
66.8 0.00316
66.85 0.00361
66.9 0.00363
66.95 0.00387
67 0.00334
67.05 0.00193
67.1 0.00067
67.15 0.00014
67.2 -0.00076
67.25 -4e-04
67.3 -0.00022
67.35 0.00066
67.4 0.00016
67.45 0.00013
67.5 0.00033
67.55 0.00133
67.6 0.00158
67.65 0.00171
67.7 0.00163
67.75 0.00206
67.8 0.002
67.85 0.00199
67.9 0.00081
67.95 -0.00038
68 -0.00197
68.05 -0.00282
68.1 -0.00347
68.15 -0.00447
68.2 -0.00514
68.25 -0.00551
68.3 -0.00564
68.35 -0.0059
68.4 -0.0058
68.45 -0.00579
68.5 -0.00414
68.55 -0.00308
68.6 -0.00179
68.65 -0.0018
68.7 -0.00133
68.75 -0.00022
68.8 0.00128
68.85 0.00321
68.9 0.0045
68.95 0.00527
69 0.00525
69.05 0.0037
69.1 0.00147
69.15 0.00038
69.2 -0.0011
69.25 -0.00156
69.3 -0.00046
69.35 -0.00011
69.4 0
69.45 -0.00028
69.5 -5e-05
69.55 -6e-05
69.6 0.00033
69.65 0.00048
69.7 0.00154
69.75 0.00188
69.8 0.00173
69.85 0.00049
69.9 -0.00043
69.95 -0.00146
70 -0.00109
70.05 -0.00086
70.1 -0.00046
70.15 -6e-05
70.2 -0.00029
70.25 -0.00028
70.3 0.00044
70.35 0.00099
70.4 0.00268
70.45 0.00386
70.5 0.0043
70.55 0.0039
70.6 0.00405
70.65 0.00363
70.7 0.00234
70.75 0.00156
70.8 0.00181
70.85 0.0029
70.9 0.00365
70.95 0.0045
71 0.00393
71.05 0.00374
71.1 0.00364
71.15 0.00297
71.2 0.00191
71.25 0.00067
71.3 -0.00065
71.35 -0.00182
71.4 -0.00216
71.45 -0.00118
71.5 -0.00043
71.55 -8e-04
71.6 -0.00175
71.65 -0.00263
71.7 -0.00339
71.75 -0.00333
71.8 -0.00257
71.85 -0.00133
71.9 0.00065
71.95 0.00098
72 0.00105
72.05 -0.00014
72.1 -0.00156
72.15 -0.00238
72.2 -0.00325
72.25 -0.00455
72.3 -0.00521
72.35 -0.00524
72.4 -0.00474
72.45 -0.00383
72.5 -0.00317
72.55 -0.00194
72.6 -0.00183
72.65 -0.0018
72.7 -0.00281
72.75 -0.00386
72.8 -0.00379
72.85 -0.00376
72.9 -0.00405
72.95 -0.00514
73 -0.00507
73.05 -0.0042
73.1 -0.00428
73.15 -0.00356
73.2 -0.00374
73.25 -0.00381
73.3 -0.00406
73.35 -0.00307
73.4 -0.0023
73.45 -0.00065
73.5 -0.00044
73.55 -0.00021
73.6 -4e-04
73.65 -0.00011
73.7 0.00084
73.75 0.00121
73.8 0.00189
73.85 0.00244
73.9 0.00243
73.95 0.00271
74 0.00155
74.05 0.00139
74.1 0.00129
74.15 9e-04
74.2 3e-05
74.25 -0.00088
74.3 -0.00164
74.35 -0.00125
74.4 -0.00056
74.45 0.00041
74.5 0.00192
74.55 0.00203
74.6 0.00133
74.65 5e-05
74.7 0.00056
74.75 8e-04
74.8 0.00142
74.85 0.00188
74.9 0.00156
74.95 0.00118
75 8e-05
75.05 -0.00065
75.1 -0.00121
75.15 -0.00104
75.2 -0.00171
75.25 -0.00296
75.3 -0.00379
75.35 -0.00327
75.4 -0.00241
75.45 -0.00078
75.5 -0.00059
75.55 -7e-05
75.6 0.00071
75.65 0.00189
75.7 0.00353
75.75 0.00406
75.8 0.00408
75.85 0.00371
75.9 0.00228
75.95 0.00165
76 7e-04
76.05 -8e-05
76.1 -0.00104
76.15 -0.00282
76.2 -0.00439
76.25 -0.00449
76.3 -0.00453
76.35 -0.00455
76.4 -0.0038
76.45 -0.00285
76.5 -0.00163
76.55 -0.00046
76.6 1e-04
76.65 0.00076
76.7 6e-04
76.75 0.00075
76.8 0.00151
76.85 0.00178
76.9 0.00138
76.95 0.00209
77 0.00215
77.05 0.00207
77.1 0.00243
77.15 0.0016
77.2 0.00151
77.25 0.00103
77.3 -9e-05
77.35 -0.00108
77.4 -0.00186
77.45 -0.00211
77.5 -0.0014
77.55 -0.0013
77.6 -0.00137
77.65 -0.001
77.7 -0.00116
77.75 -0.00221
77.8 -0.00299
77.85 -0.0032
77.9 -0.0028
77.95 -0.00219
78 -0.00204
78.05 -0.00262
78.1 -0.00189
78.15 -0.00207
78.2 -0.00279
78.25 -0.00395
78.3 -0.00541
78.35 -0.00554
78.4 -0.00447
78.45 -0.00409
78.5 -0.00381
78.55 -0.00267
78.6 -0.00212
78.65 -0.00012
78.7 -3e-05
78.75 0.00036
78.8 0.00047
78.85 0
78.9 -0.00042
78.95 -0.00145
79 -0.0015
79.05 -0.00161
79.1 -0.00101
79.15 -6e-05
79.2 -0.00037
79.25 4e-05
79.3 0.00041
79.35 0.00085
79.4 7e-04
79.45 0.00055
79.5 0.00045
79.55 -8e-04
79.6 -0.00124
79.65 -0.00085
79.7 2e-04
79.75 0.00083
79.8 0.00111
79.85 0.00137
79.9 0.00096
79.95 0.00049
80 0.00014
80.05 -0.00034
80.1 -0.00097
80.15 -0.00178
80.2 -0.00211
80.25 -0.00249
80.3 -0.00372
80.35 -0.00446
80.4 -0.00431
80.45 -0.00511
80.5 -0.00498
80.55 -0.00485
80.6 -0.00465
80.65 -0.00317
80.7 -7e-04
80.75 0.0012
80.8 0.00206
80.85 0.00294
80.9 0.00259
80.95 0.00171
81 0.00144
81.05 0.00087
81.1 0.00062
81.15 0.00027
81.2 0.00018
81.25 -0.00034
81.3 -0.00045
81.35 -0.00059
81.4 -0.00026
81.45 -0.00089
81.5 -0.00125
81.55 -0.00193
81.6 -0.00246
81.65 -0.00267
81.7 -0.00269
81.75 -0.00344
81.8 -0.00304
81.85 -0.00276
81.9 -0.00195
81.95 -0.00258
82 -0.00216
82.05 -0.00162
82.1 -0.00155
82.15 -0.00159
82.2 -0.00189
82.25 -0.00147
82.3 -0.00098
82.35 -0.00014
82.4 0.00139
82.45 0.00355
82.5 0.00445
82.55 0.00403
82.6 0.00321
82.65 0.0034
82.7 0.00262
82.75 0.00228
82.8 0.00165
82.85 0.00079
82.9 -0.00023
82.95 -0.00134
83 -0.00187
83.05 -0.00249
83.1 -0.00286
83.15 -0.00361
83.2 -0.00422
83.25 -0.00399
83.3 -0.00379
83.35 -0.00275
83.4 -0.00214
83.45 -0.00143
83.5 -0.00089
83.55 -0.00037
83.6 -0.0011
83.65 -0.00073
83.7 0.00062
83.75 0.00075
83.8 0.00098
83.85 0.00093
83.9 0.00049
83.95 8e-04
84 2e-04
84.05 0.00017
84.1 -0.00069
84.15 -0.00071
84.2 -0.00261
84.25 -0.00399
84.3 -0.00433
84.35 -0.00474
84.4 -0.00401
84.45 -0.0028
84.5 -0.00197
84.55 -0.00087
84.6 -6e-04
84.65 0.00116
84.7 0.00176
84.75 0.00259
84.8 0.00307
84.85 0.00355
84.9 0.00473
84.95 0.00514
85 0.00393
85.05 0.00303
85.1 0.00195
85.15 0.00106
85.2 8e-04
85.25 0.00132
85.3 0.00072
85.35 -0.00013
85.4 -0.00157
85.45 -0.003
85.5 -0.00379
85.55 -0.00378
85.6 -0.00395
85.65 -0.00395
85.7 -0.00424
85.75 -0.00355
85.8 -0.00346
85.85 -0.00286
85.9 -0.00068
85.95 0.00067
86 0.00105
86.05 0.00158
86.1 0.00241
86.15 0.00166
86.2 0.00093
86.25 -0.00029
86.3 -0.00265
86.35 -0.00428
86.4 -0.00496
86.45 -0.00438
86.5 -0.00336
86.55 -0.00162
86.6 -0.00052
86.65 0.00123
86.7 0.00317
86.75 0.00426
86.8 0.00476
86.85 0.00369
86.9 0.00315
86.95 0.00224
87 0.00163
87.05 0.00152
87.1 0.00096
87.15 9e-04
87.2 -2e-04
87.25 -1e-04
87.3 -6e-04
87.35 -0.00173
87.4 -0.00192
87.45 -0.00203
87.5 -0.00058
87.55 -0.00072
87.6 -0.00039
87.65 -0.00056
87.7 0.00013
87.75 -0.00025
87.8 -0.00038
87.85 -0.00093
87.9 -0.00201
87.95 -0.00318
88 -0.00451
88.05 -0.00601
88.1 -0.00663
88.15 -0.00616
88.2 -0.00528
88.25 -0.00464
88.3 -0.00437
88.35 -0.00387
88.4 -0.00321
88.45 -0.00215
88.5 -0.00195
88.55 -0.00138
88.6 -0.00046
88.65 0.00069
88.7 0.00113
88.75 0.00203
88.8 0.00244
88.85 0.00196
88.9 0.00155
88.95 0.00259
89 0.00412
89.05 0.0051
89.1 0.00539
89.15 0.00441
89.2 0.00447
89.25 0.00502
89.3 0.00594
89.35 0.00495
89.4 0.00521
89.45 0.00452
89.5 0.00303
89.55 0.00286
89.6 0.00353
89.65 0.00314
89.7 0.00155
89.75 4e-05
89.8 -0.00085
89.85 -0.00155
89.9 -0.00132
89.95 -7e-05
90 0.00156
90.05 0.00285
90.1 0.00358
90.15 0.00357
90.2 0.00291
90.25 0.00243
90.3 0.00228
90.35 0.00183
90.4 0.00157
90.45 0.00145
90.5 0.00131
90.55 0.00128
90.6 0.00232
90.65 0.00349
90.7 0.00366
90.75 0.00364
90.8 0.00317
90.85 0.00267
90.9 0.00142
90.95 0.00085
91 0.00014
91.05 5e-05
91.1 -0.00058
91.15 -0.00155
91.2 -0.00266
91.25 -0.00293
91.3 -0.00249
91.35 -0.00195
91.4 -0.00214
91.45 -0.00242
91.5 -0.00256
91.55 -0.00304
91.6 -0.00354
91.65 -0.00297
91.7 -0.00237
91.75 -0.00214
91.8 -0.00184
91.85 -0.00225
91.9 -0.00185
91.95 -0.00329
92 -0.0036
92.05 -0.00391
92.1 -0.00364
92.15 -0.00359
92.2 -0.0039
92.25 -0.0038
92.3 -0.00505
92.35 -0.00478
92.4 -0.00411
92.45 -0.00312
92.5 -0.00173
92.55 -0.00102
92.6 -0.00058
92.65 -0.00041
92.7 0.00028
92.75 0.00127
92.8 0.00163
92.85 -0.00016
92.9 -0.00135
92.95 -0.0017
93 -0.00171
93.05 -0.00052
93.1 0.00062
93.15 0.00171
93.2 0.00205
93.25 0.00263
93.3 0.0028
93.35 0.0024
93.4 0.00253
93.45 0.00228
93.5 0.00238
93.55 0.00296
93.6 0.00307
93.65 0.00409
93.7 0.00326
93.75 0.00266
93.8 0.00192
93.85 0.0017
93.9 0.00114
93.95 -0.00103
94 -0.00256
94.05 -0.00411
94.1 -0.00511
94.15 -0.00538
94.2 -0.0049
94.25 -0.00379
94.3 -0.00327
94.35 -0.00271
94.4 -0.00321
94.45 -0.0029
94.5 -0.00317
94.55 -0.00396
94.6 -0.00374
94.65 -0.00243
94.7 -0.00131
94.75 -0.00026
94.8 0.00013
94.85 0.00042
94.9 0.00102
94.95 0.00124
95 0.00271
95.05 0.00285
95.1 0.0023
95.15 0.00093
95.2 -0.00028
95.25 -0.00155
95.3 -0.00255
95.35 -0.00279
95.4 -0.00329
95.45 -0.00233
95.5 -0.00293
95.55 -0.00237
95.6 -0.0018
95.65 -0.00132
95.7 -0.00115
95.75 -0.0011
95.8 -0.00046
95.85 0.00021
95.9 0.00064
95.95 0.00116
96 0.00124
96.05 0.00095
96.1 -0.00085
96.15 -0.00217
96.2 -0.0041
96.25 -0.00425
96.3 -0.00353
96.35 -0.00335
96.4 -0.00274
96.45 -0.00155
96.5 -0.00139
96.55 -0.00072
96.6 -0.00022
96.65 0.00062
96.7 0.00112
96.75 0.0019
96.8 0.00284
96.85 0.003
96.9 0.00301
96.95 0.00284
97 0.00245
97.05 0.0029
97.1 0.00295
97.15 0.00244
97.2 0.00281
97.25 0.0023
97.3 0.00296
97.35 0.00366
97.4 0.00326
97.45 0.00344
97.5 0.00269
97.55 0.00176
97.6 -1e-04
97.65 -6e-04
97.7 -0.0014
97.75 -0.00143
97.8 -0.00046
97.85 9e-05
97.9 0.00066
97.95 0.00066
98 0.00146
98.05 0.00153
98.1 0.00168
98.15 0.00293
98.2 0.00423
98.25 0.00479
98.3 0.00351
98.35 0.00267
98.4 0.00107
98.45 -0.00022
98.5 -0.00114
98.55 -0.00207
98.6 -0.00181
98.65 -0.00177
98.7 -0.00229
98.75 -0.0019
98.8 -0.00266
98.85 -0.00254
98.9 -0.00283
98.95 -0.00294
99 -0.00192
99.05 -0.00071
99.1 0.00109
99.15 0.0021
99.2 0.00326
99.25 0.00359
99.3 0.00371
99.35 0.00218
99.4 0.00154
99.45 0.00068
99.5 0.00018
99.55 -0.00036
99.6 -0.00052
99.65 -0.00123
99.7 -0.0028
99.75 -0.00485
99.8 -0.00615
99.85 -0.00722
99.9 -0.00713
99.95 -0.00635
