0 0
0.05 0.00001
0.1 0.00001
0.15 0.00004
0.2 0.00006
0.25 0.00011
0.3 0.00017
0.35 0.00019
0.4 0.00023
0.45 0.00027
0.5 0.00032
0.55 0.00034
0.6 0.00034
0.65 0.00035
0.7 0.00036
0.75 0.00036
0.8 0.00038
0.85 0.0004
0.9 0.00038
0.95 0.00034
1 0.00031
1.05 0.00028
1.1 0.00028
1.15 0.00026
1.2 0.00023
1.25 0.00022
1.3 0.00023
1.35 0.00024
1.4 0.00023
1.45 0.00022
1.5 0.00019
1.55 0.00018
1.6 0.00016
1.65 0.00013
1.7 0.00011
1.75 0.00012
1.8 0.00012
1.85 0.00013
1.9 0.00014
1.95 0.00015
2 0.00017
2.05 0.0002
2.1 0.00018
2.15 0.00017
2.2 0.00014
2.25 0.00013
2.3 0.00011
2.35 0.0001
2.4 0.00011
2.45 0.00014
2.5 0.00016
2.55 0.0002
2.6 0.00022
2.65 0.00023
2.7 0.00025
2.75 0.00028
2.8 0.00026
2.85 0.00025
2.9 0.00023
2.95 0.00022
3 0.00018
3.05 0.00014
3.1 0.0001
3.15 0.00008
3.2 0.00009
3.25 0.00008
3.3 0.00009
3.35 0.00012
3.4 0.00014
3.45 0.00014
3.5 0.00013
3.55 0.00014
3.6 0.00015
3.65 0.00016
3.7 0.00018
3.75 0.00019
3.8 0.00017
3.85 0.00012
3.9 0.0001
3.95 0.00008
4 0.00008
4.05 0.0001
4.1 0.00008
4.15 0.00005
4.2 0.00003
4.25 0.00001
4.3 -0.00001
4.35 -0.00001
4.4 -0
4.45 0.00002
4.5 0.00002
4.55 0.00001
4.6 0.00003
4.65 0.00004
4.7 0.00006
4.75 0.0001
4.8 0.00014
4.85 0.00019
4.9 0.00018
4.95 0.00018
5 0.0002
5.05 0.0002
5.1 0.00019
5.15 0.00018
5.2 0.00014
5.25 0.00011
5.3 0.00009
5.35 0.0001
5.4 0.00011
5.45 0.00013
5.5 0.00014
5.55 0.00014
5.6 0.00016
5.65 0.00018
5.7 0.00021
5.75 0.0002
5.8 0.00022
5.85 0.00019
5.9 0.00018
5.95 0.00017
6 0.00017
6.05 0.00017
6.1 0.00016
6.15 0.00013
6.2 0.00009
6.25 0.00003
6.3 -0.00003
6.35 -0.00006
6.4 -0.0001
6.45 -0.00012
6.5 -0.00012
6.55 -0.00014
6.6 -0.00015
6.65 -0.00016
6.7 -0.00015
6.75 -0.00012
6.8 -0.00009
6.85 -0.00005
6.9 -0.00003
6.95 -0.00001
7 -0
7.05 0.00002
7.1 0.00006
7.15 0.00006
7.2 0.00006
7.25 0.00007
7.3 0.00007
7.35 0.00009
7.4 0.00011
7.45 0.00013
7.5 0.00015
7.55 0.00018
7.6 0.00021
7.65 0.00022
7.7 0.00022
7.75 0.00022
7.8 0.0002
7.85 0.00016
7.9 0.00013
7.95 0.00012
8 0.0001
8.05 0.00007
8.1 0.00004
8.15 -0
8.2 -0.00001
8.25 -0.00004
8.3 -0.00005
8.35 -0.00005
8.4 -0.00005
8.45 -0.00004
8.5 -0.00006
8.55 -0.00005
8.6 -0.00004
8.65 -0.00003
8.7 -0.00004
8.75 -0.00002
8.8 -0.00003
8.85 -0.00003
8.9 -0.00002
8.95 -0.00001
9 -0.00001
9.05 -0
9.1 -0.00001
9.15 -0.00002
9.2 -0.00002
9.25 0
9.3 0.00004
9.35 0.00005
9.4 0.00006
9.45 0.00005
9.5 0.00006
9.55 0.00006
9.6 0.00007
9.65 0.00009
9.7 0.00012
9.75 0.00013
9.8 0.00012
9.85 0.00011
9.9 0.00009
9.95 0.00005
10 0
10.05 -0.00005
10.1 -0.00007
10.15 -0.00005
10.2 -0.00004
10.25 -0.00001
10.3 0.00001
10.35 0.00001
10.4 0.00003
10.45 0.00004
10.5 0.00002
10.55 0.00002
10.6 -0.00001
10.65 -0.00002
10.7 -0.00002
10.75 0.00001
10.8 0.00004
10.85 0.00007
10.9 0.00009
10.95 0.00011
11 0.00012
11.05 0.00014
11.1 0.00014
11.15 0.00014
11.2 0.00014
11.25 0.0001
11.3 0.00005
11.35 0.00002
11.4 0.00001
11.45 -0.00002
11.5 -0.00004
11.55 -0.00004
11.6 -0.00005
11.65 -0.00004
11.7 -0.00002
11.75 -0.00003
11.8 -0.00001
11.85 -0
11.9 0.00001
11.95 0.00002
12 0.00003
12.05 0.00005
12.1 0.00006
12.15 0.00007
12.2 0.00008
12.25 0.00006
12.3 0.00004
12.35 0.00003
12.4 0
12.45 0
12.5 -0.00003
12.55 -0.00004
12.6 -0.00005
12.65 -0.00006
12.7 -0.00004
12.75 -0.00001
12.8 0.00002
12.85 0.00006
12.9 0.00007
12.95 0.00009
13 0.00011
13.05 0.00014
13.1 0.00015
13.15 0.00015
13.2 0.00011
13.25 0.00008
13.3 0.00006
13.35 0.00006
13.4 0.00003
13.45 0.00001
13.5 0.00001
13.55 -0
13.6 -0.00001
13.65 -0.00005
13.7 -0.00005
13.75 -0.00007
13.8 -0.00008
13.85 -0.00009
13.9 -0.00007
13.95 -0.00004
14 -0.00005
14.05 -0.00005
14.1 -0.00004
14.15 -0.00005
14.2 -0.00007
14.25 -0.00007
14.3 -0.00009
14.35 -0.00009
14.4 -0.00012
14.45 -0.0001
14.5 -0.00008
14.55 -0.00009
14.6 -0.00011
14.65 -0.0001
14.7 -0.00011
14.75 -0.00012
14.8 -0.0001
14.85 -0.00008
14.9 -0.00006
14.95 -0.00005
15 -0.00005
15.05 -0.00003
15.1 -0.00004
15.15 -0.00002
15.2 -0.00001
15.25 -0.00001
15.3 -0.00002
15.35 -0.00002
15.4 -0.00003
15.45 -0.00003
15.5 -0.00002
15.55 0.00001
15.6 0.00002
15.65 0
15.7 -0.00002
15.75 -0.00001
15.8 -0.00003
15.85 -0.00004
15.9 -0.00003
15.95 -0.00003
16 -0.00006
16.05 -0.00006
16.1 -0.00009
16.15 -0.00009
16.2 -0.00009
16.25 -0.00006
16.3 -0.00005
16.35 -0.00005
16.4 -0.00003
16.45 -0.00002
16.5 -0.00002
16.55 -0.00003
16.6 -0.00002
16.65 -0.00004
16.7 -0.00006
16.75 -0.00009
16.8 -0.00011
16.85 -0.00012
16.9 -0.0001
16.95 -0.00009
17 -0.00005
17.05 -0.00001
17.1 0.00004
17.15 0.00005
17.2 0.00004
17.25 -0
17.3 -0.00003
17.35 -0.00004
17.4 -0.00002
17.45 0.00002
17.5 0.00004
17.55 0.00002
17.6 -0.00001
17.65 -0.00001
17.7 0
17.75 0.00004
17.8 0.00003
17.85 0
17.9 -0.00002
17.95 -0.00004
18 -0.00003
18.05 -0.00001
18.1 0.00001
18.15 0.00002
18.2 0.00003
18.25 0.00003
18.3 0.00001
18.35 -0.00001
18.4 -0.00004
18.45 -0.00007
18.5 -0.0001
18.55 -0.00011
18.6 -0.00011
18.65 -0.00011
18.7 -0.00012
18.75 -0.00014
18.8 -0.00014
18.85 -0.00013
18.9 -0.00012
18.95 -0.00009
19 -0.00009
19.05 -0.00009
19.1 -0.00009
19.15 -0.00008
19.2 -0.00007
19.25 -0.00007
19.3 -0.00005
19.35 -0.00005
19.4 -0.00005
19.45 -0.00007
19.5 -0.00008
19.55 -0.00006
19.6 -0.00003
19.65 0.00002
19.7 0.00005
19.75 0.00008
19.8 0.00007
19.85 0.00006
19.9 0.00007
19.95 0.00007
20 0.00008
20.05 0.00009
20.1 0.00008
20.15 0.00006
20.2 0.00003
20.25 0.00003
20.3 0.00004
20.35 0.00005
20.4 0.00005
20.45 0.00003
20.5 0.00001
20.55 -0.00002
20.6 -0.00001
20.65 0.00001
20.7 0.00001
20.75 0.00002
20.8 -0.00001
20.85 -0.00001
20.9 -0
20.95 -0.00001
21 -0.00002
21.05 -0
21.1 0.00002
21.15 0.00003
21.2 0.00003
21.25 0.00006
21.3 0.00007
21.35 0.00008
21.4 0.0001
21.45 0.00011
21.5 0.00009
21.55 0.00005
21.6 -0
21.65 -0.00005
21.7 -0.00006
21.75 -0.00006
21.8 -0.00007
21.85 -0.00008
21.9 -0.0001
21.95 -0.0001
22 -0.0001
22.05 -0.00011
22.1 -0.00012
22.15 -0.00014
22.2 -0.00014
22.25 -0.00014
22.3 -0.00013
22.35 -0.00011
22.4 -0.0001
22.45 -0.00007
22.5 -0.00006
22.55 -0.00004
22.6 -0.00001
22.65 0
22.7 0.00001
22.75 0.00002
22.8 0.00005
22.85 0.00008
22.9 0.00008
22.95 0.00005
23 0.00004
23.05 0.00004
23.1 0.00005
23.15 0.00004
23.2 0.00001
23.25 0
23.3 0.00001
23.35 0.00004
23.4 0.00007
23.45 0.00009
23.5 0.0001
23.55 0.00013
23.6 0.00013
23.65 0.0001
23.7 0.00005
23.75 0.00002
23.8 -0
23.85 -0.00001
23.9 0.00001
23.95 0.00003
24 0.00004
24.05 0.00003
24.1 0.00001
24.15 0.00002
24.2 -0
24.25 0
24.3 -0.00001
24.35 0
24.4 -0.00001
24.45 -0.00001
24.5 -0.00003
24.55 -0.00005
24.6 -0.00008
24.65 -0.00007
24.7 -0.00008
24.75 -0.0001
24.8 -0.0001
24.85 -0.00011
24.9 -0.00009
24.95 -0.00007
25 -0.00006
25.05 -0.00003
25.1 -0.00002
25.15 -0.00003
25.2 -0.00002
25.25 0.00001
25.3 0.00006
25.35 0.00007
25.4 0.00008
25.45 0.00007
25.5 0.00006
25.55 0.00005
25.6 0.00005
25.65 0.00005
25.7 0.00002
25.75 0
25.8 -0.00003
25.85 -0.00003
25.9 -0.00003
25.95 -0.00004
26 -0.00004
26.05 -0.00003
26.1 -0.00001
26.15 -0
26.2 0.00001
26.25 0.00001
26.3 0.00001
26.35 -0
26.4 -0.00002
26.45 -0.00005
26.5 -0.00007
26.55 -0.00008
26.6 -0.0001
26.65 -0.00009
26.7 -0.00005
26.75 -0.00002
26.8 -0
26.85 0
26.9 0.00001
26.95 0.00003
27 0.00003
27.05 0.00004
27.1 0.00006
27.15 0.00004
27.2 0.00001
27.25 -0.00002
27.3 -0.00003
27.35 -0.00005
27.4 -0.00004
27.45 -0
27.5 0.00002
27.55 0.00003
27.6 0.00002
27.65 -0.00001
27.7 -0.00001
27.75 -0.00002
27.8 -0.00002
27.85 0
27.9 0.00001
27.95 -0
28 -0.00003
28.05 -0.00004
28.1 -0.00006
28.15 -0.00009
28.2 -0.00009
28.25 -0.00008
28.3 -0.00005
28.35 -0.00002
28.4 -0.00002
28.45 0
28.5 0.00002
28.55 0.00005
28.6 0.00008
28.65 0.00007
28.7 0.00005
28.75 0.00001
28.8 -0.00002
28.85 -0.00004
28.9 -0.00004
28.95 -0.00001
29 0.00002
29.05 0.00003
29.1 0.00005
29.15 0.00006
29.2 0.00008
29.25 0.00008
29.3 0.0001
29.35 0.00008
29.4 0.00005
29.45 0.00004
29.5 0.00005
29.55 0.00006
29.6 0.00007
29.65 0.00007
29.7 0.0001
29.75 0.00013
29.8 0.00014
29.85 0.00013
29.9 0.00011
29.95 0.00008
30 0.00003
30.05 0.00001
30.1 0.00001
30.15 0.00001
30.2 0.00001
30.25 0.00001
30.3 -0.00001
30.35 -0.00002
30.4 -0.00002
30.45 -0.00001
30.5 -0.00003
30.55 -0.00004
30.6 -0.00006
30.65 -0.00006
30.7 -0.00003
30.75 -0.00004
30.8 -0.00001
30.85 -0.00002
30.9 -0.00005
30.95 -0.00004
31 -0.00001
31.05 0.00002
31.1 0.00002
31.15 0
31.2 0
31.25 -0.00001
31.3 0
31.35 0.00003
31.4 0.00004
31.45 0.00002
31.5 -0.00001
31.55 -0.00003
31.6 -0.00004
31.65 -0.00005
31.7 -0.00006
31.75 -0.00008
31.8 -0.00008
31.85 -0.00007
31.9 -0.00007
31.95 -0.00006
32 -0.00002
32.05 0.00002
32.1 0.00002
32.15 0.00002
32.2 0.00005
32.25 0.00007
32.3 0.0001
32.35 0.00009
32.4 0.00006
32.45 0.00004
32.5 0.00001
32.55 -0.00004
32.6 -0.00009
32.65 -0.00009
32.7 -0.00011
32.75 -0.00013
32.8 -0.00012
32.85 -0.00011
32.9 -0.00008
32.95 -0.00005
33 -0.00005
33.05 -0.00002
33.1 -0.00002
33.15 -0.00002
33.2 -0.00004
33.25 -0.00005
33.3 -0.00004
33.35 -0.00004
33.4 -0.00003
33.45 0.00001
33.5 0.00006
33.55 0.00009
33.6 0.00012
33.65 0.00014
33.7 0.00016
33.75 0.00015
33.8 0.00013
33.85 0.00013
33.9 0.0001
33.95 0.00009
34 0.00008
34.05 0.00006
34.1 0.00003
34.15 -0.00002
34.2 -0.00005
34.25 -0.00004
34.3 -0.00003
34.35 -0.00001
34.4 0.00002
34.45 0.00005
34.5 0.00005
34.55 0.00002
34.6 -0.00001
34.65 -0.00001
34.7 -0.00002
34.75 -0.00002
34.8 -0.00001
34.85 0.00001
34.9 0.00005
34.95 0.00006
35 0.00008
35.05 0.00009
35.1 0.00009
35.15 0.00007
35.2 0.00002
35.25 -0.00001
35.3 -0.00002
35.35 -0.00004
35.4 -0.00003
35.45 -0.00002
35.5 -0.00002
35.55 -0.00001
35.6 -0.00002
35.65 -0.00001
35.7 -0.00001
35.75 -0.00001
35.8 -0.00003
35.85 -0.00003
35.9 -0.00003
35.95 -0.00006
36 -0.00006
36.05 -0.00008
36.1 -0.0001
36.15 -0.00011
36.2 -0.00013
36.25 -0.00016
36.3 -0.00015
36.35 -0.00011
36.4 -0.00008
36.45 -0.00007
36.5 -0.00005
36.55 -0.00006
36.6 -0.00005
36.65 -0.00003
36.7 -0.00002
36.75 0
36.8 0.00003
36.85 0.00008
36.9 0.00012
36.95 0.00011
37 0.0001
37.05 0.00009
37.1 0.00011
37.15 0.00009
37.2 0.00007
37.25 0.00004
37.3 0.00002
37.35 0.00002
37.4 0.00002
37.45 0.00004
37.5 0.00007
37.55 0.00009
37.6 0.00011
37.65 0.00012
37.7 0.00009
37.75 0.00005
37.8 0.00005
37.85 0.00005
37.9 0.00006
37.95 0.00006
38 0.00005
38.05 0.00003
38.1 -0.00001
38.15 -0.00002
38.2 -0.00005
38.25 -0.00004
38.3 -0.00003
38.35 -0.00001
38.4 -0.00003
38.45 -0.00002
38.5 -0.00001
38.55 0.00002
38.6 0.00006
38.65 0.00008
38.7 0.00008
38.75 0.00009
38.8 0.00012
38.85 0.0001
38.9 0.00008
38.95 0.00003
39 -0.00003
39.05 -0.00006
39.1 -0.00008
39.15 -0.00012
39.2 -0.00013
39.25 -0.00014
39.3 -0.00016
39.35 -0.00014
39.4 -0.00012
39.45 -0.0001
39.5 -0.00005
39.55 -0.00003
39.6 -0.00001
39.65 -0.00001
39.7 -0
39.75 -0.00002
39.8 -0.00001
39.85 -0.00003
39.9 -0.00003
39.95 -0.00004
40 -0.00003
40.05 -0.00003
40.1 -0.00005
40.15 -0.00005
40.2 -0.00004
40.25 -0.00003
40.3 -0.00003
40.35 -0.00005
40.4 -0.00004
40.45 -0.00003
40.5 -0.00002
40.55 -0.00001
40.6 -0.00001
40.65 -0.00001
40.7 -0
40.75 -0.00002
40.8 -0.00005
40.85 -0.00007
40.9 -0.00009
40.95 -0.00007
41 -0.00005
41.05 -0.00002
41.1 0.00001
41.15 0.00001
41.2 -0.00002
41.25 -0.00001
41.3 -0.00003
41.35 -0.00003
41.4 0
41.45 0.00002
41.5 0.00003
41.55 0.00005
41.6 0.00004
41.65 0.00005
41.7 0.00007
41.75 0.00009
41.8 0.00007
41.85 0.00006
41.9 0.00005
41.95 0.00002
42 -0.00003
42.05 -0.00008
42.1 -0.00014
42.15 -0.0002
42.2 -0.00022
42.25 -0.00024
42.3 -0.00026
42.35 -0.00025
42.4 -0.00027
42.45 -0.00032
42.5 -0.00036
42.55 -0.00039
42.6 -0.00042
42.65 -0.00049
42.7 -0.0006
42.75 -0.00072
42.8 -0.00082
42.85 -0.00091
42.9 -0.00101
42.95 -0.00114
43 -0.00128
43.05 -0.00144
43.1 -0.00163
43.15 -0.00187
43.2 -0.00213
43.25 -0.00242
43.3 -0.00275
43.35 -0.00309
43.4 -0.00345
43.45 -0.00384
43.5 -0.00426
43.55 -0.00469
43.6 -0.00518
43.65 -0.0057
43.7 -0.00622
43.75 -0.00677
43.8 -0.00731
43.85 -0.00784
43.9 -0.00839
43.95 -0.00898
44 -0.00956
44.05 -0.01015
44.1 -0.0107
44.15 -0.01122
44.2 -0.01169
44.25 -0.01213
44.3 -0.01253
44.35 -0.01292
44.4 -0.01325
44.45 -0.0135
44.5 -0.01368
44.55 -0.01376
44.6 -0.01372
44.65 -0.01357
44.7 -0.01331
44.75 -0.01288
44.8 -0.01231
44.85 -0.0116
44.9 -0.01076
44.95 -0.00981
45 -0.00874
45.05 -0.00754
45.1 -0.00618
45.15 -0.00473
45.2 -0.00318
45.25 -0.00154
45.3 0.00018
45.35 0.00199
45.4 0.00385
45.45 0.00576
45.5 0.0077
45.55 0.00965
45.6 0.01156
45.65 0.01343
45.7 0.0152
45.75 0.01685
45.8 0.01838
45.85 0.01977
45.9 0.02101
45.95 0.02209
46 0.02296
46.05 0.02365
46.1 0.02413
46.15 0.02439
46.2 0.02442
46.25 0.02427
46.3 0.02391
46.35 0.02333
46.4 0.02252
46.45 0.02151
46.5 0.02032
46.55 0.01899
46.6 0.01751
46.65 0.01592
46.7 0.01423
46.75 0.01248
46.8 0.01069
46.85 0.00887
46.9 0.00704
46.95 0.00522
47 0.00346
47.05 0.00175
47.1 0.00013
47.15 -0.0014
47.2 -0.00284
47.25 -0.00414
47.3 -0.00531
47.35 -0.00634
47.4 -0.00722
47.45 -0.00794
47.5 -0.00851
47.55 -0.00893
47.6 -0.0092
47.65 -0.00932
47.7 -0.0093
47.75 -0.00911
47.8 -0.00879
47.85 -0.00836
47.9 -0.00783
47.95 -0.0072
48 -0.00653
48.05 -0.00582
48.1 -0.00509
48.15 -0.0043
48.2 -0.0035
48.25 -0.0027
48.3 -0.00189
48.35 -0.00108
48.4 -0.00027
48.45 0.00052
48.5 0.00127
48.55 0.00197
48.6 0.00259
48.65 0.00315
48.7 0.00362
48.75 0.00406
48.8 0.00445
48.85 0.0048
48.9 0.00507
48.95 0.00525
49 0.00533
49.05 0.00536
49.1 0.00535
49.15 0.00528
49.2 0.00518
49.25 0.00504
49.3 0.00487
49.35 0.00467
49.4 0.00445
49.45 0.00421
49.5 0.00395
49.55 0.00365
49.6 0.00334
49.65 0.003
49.7 0.00268
49.75 0.00237
49.8 0.00207
49.85 0.00173
49.9 0.0014
49.95 0.00111
50 0.0008
50.05 0.00048
50.1 0.0002
50.15 -0.00008
50.2 -0.00035
50.25 -0.00062
50.3 -0.00086
50.35 -0.00105
50.4 -0.00124
50.45 -0.0014
50.5 -0.00156
50.55 -0.0017
50.6 -0.00182
50.65 -0.00191
50.7 -0.00202
50.75 -0.0021
50.8 -0.00219
50.85 -0.00224
50.9 -0.00228
50.95 -0.00229
51 -0.00232
51.05 -0.00234
51.1 -0.00233
51.15 -0.00233
51.2 -0.00232
51.25 -0.0023
51.3 -0.00228
51.35 -0.00225
51.4 -0.00221
51.45 -0.00221
51.5 -0.00217
51.55 -0.00213
51.6 -0.00209
51.65 -0.00207
51.7 -0.00206
51.75 -0.00204
51.8 -0.00198
51.85 -0.00194
51.9 -0.00189
51.95 -0.00183
52 -0.00175
52.05 -0.00166
52.1 -0.00157
52.15 -0.0015
52.2 -0.00141
52.25 -0.00134
52.3 -0.00129
52.35 -0.00126
52.4 -0.00124
52.45 -0.00122
52.5 -0.00119
52.55 -0.00117
52.6 -0.00114
52.65 -0.00112
52.7 -0.00108
52.75 -0.00106
52.8 -0.00101
52.85 -0.00097
52.9 -0.00091
52.95 -0.00083
53 -0.00076
53.05 -0.00072
53.1 -0.0007
53.15 -0.00066
53.2 -0.00065
53.25 -0.00064
53.3 -0.00063
53.35 -0.00062
53.4 -0.00061
53.45 -0.00058
53.5 -0.00052
53.55 -0.00049
53.6 -0.0005
53.65 -0.00047
53.7 -0.00044
53.75 -0.00045
53.8 -0.00047
53.85 -0.00049
53.9 -0.00049
53.95 -0.00049
54 -0.00048
54.05 -0.00045
54.1 -0.0004
54.15 -0.00036
54.2 -0.00033
54.25 -0.00031
54.3 -0.00029
54.35 -0.00027
54.4 -0.00026
54.45 -0.00024
54.5 -0.00024
54.55 -0.00025
54.6 -0.00023
54.65 -0.00022
54.7 -0.00021
54.75 -0.0002
54.8 -0.00019
54.85 -0.0002
54.9 -0.00022
54.95 -0.00025
55 -0.00025
55.05 -0.00024
55.1 -0.00023
55.15 -0.00021
55.2 -0.0002
55.25 -0.00019
55.3 -0.00017
55.35 -0.00015
55.4 -0.00014
55.45 -0.00016
55.5 -0.00016
55.55 -0.00017
55.6 -0.00017
55.65 -0.00019
55.7 -0.00022
55.75 -0.00026
55.8 -0.00025
55.85 -0.00023
55.9 -0.00022
55.95 -0.00023
56 -0.00021
56.05 -0.00021
56.1 -0.00019
56.15 -0.00016
56.2 -0.00016
56.25 -0.00015
56.3 -0.00013
56.35 -0.0001
56.4 -0.00011
56.45 -0.0001
56.5 -0.00008
56.55 -0.00008
56.6 -0.00012
56.65 -0.00015
56.7 -0.00015
56.75 -0.00015
56.8 -0.00013
56.85 -0.00012
56.9 -0.00013
56.95 -0.00013
57 -0.00014
57.05 -0.00013
57.1 -0.00014
57.15 -0.00015
57.2 -0.00013
57.25 -0.00013
57.3 -0.00011
57.35 -0.00009
57.4 -0.00008
57.45 -0.00009
57.5 -0.00008
57.55 -0.00009
57.6 -0.0001
57.65 -0.00012
57.7 -0.00012
57.75 -0.00013
57.8 -0.00014
57.85 -0.00015
57.9 -0.00018
57.95 -0.00019
58 -0.00019
58.05 -0.0002
58.1 -0.0002
58.15 -0.00018
58.2 -0.00019
58.25 -0.0002
58.3 -0.00021
58.35 -0.00021
58.4 -0.00018
58.45 -0.00013
58.5 -0.00012
58.55 -0.00009
58.6 -0.00007
58.65 -0.00007
58.7 -0.00007
58.75 -0.0001
58.8 -0.0001
58.85 -0.00012
58.9 -0.0001
58.95 -0.00011
59 -0.00014
59.05 -0.00017
59.1 -0.0002
59.15 -0.00022
59.2 -0.00019
59.25 -0.00016
59.3 -0.00015
59.35 -0.00012
59.4 -0.00008
59.45 -0.00008
59.5 -0.00008
59.55 -0.00006
59.6 -0.00003
59.65 -0.00002
59.7 -0.00001
59.75 -0.00001
59.8 -0.00002
59.85 -0.00003
59.9 -0.00007
59.95 -0.0001
60 -0.00011
60.05 -0.00014
60.1 -0.00013
60.15 -0.00011
60.2 -0.00009
60.25 -0.0001
60.3 -0.00012
60.35 -0.00012
60.4 -0.00012
60.45 -0.00011
60.5 -0.00007
60.55 -0.00005
60.6 -0.00005
60.65 -0.00007
60.7 -0.0001
60.75 -0.00013
60.8 -0.00013
60.85 -0.00012
60.9 -0.00011
60.95 -0.00008
61 -0.00005
61.05 -0.00005
61.1 -0.00006
61.15 -0.00007
61.2 -0.00007
61.25 -0.00005
61.3 -0.00002
61.35 -0.00002
61.4 -0.00005
61.45 -0.00003
61.5 -0.00001
61.55 0.00002
61.6 0.00003
61.65 0.00005
61.7 0.00005
61.75 0.00005
61.8 0.00006
61.85 0.00007
61.9 0.00005
61.95 0.00002
62 -0.00003
62.05 -0.00007
62.1 -0.00009
62.15 -0.00007
62.2 -0.00004
62.25 -0.00003
62.3 -0.00003
62.35 -0.00004
62.4 -0.00007
62.45 -0.00008
62.5 -0.00006
62.55 -0.00006
62.6 -0.00006
62.65 -0.00004
62.7 -0.00003
62.75 -0.00002
62.8 -0
62.85 0.00001
62.9 0.00004
62.95 0.00007
63 0.00008
63.05 0.0001
63.1 0.0001
63.15 0.0001
63.2 0.00011
63.25 0.00011
63.3 0.00011
63.35 0.00011
63.4 0.00009
63.45 0.00009
63.5 0.00008
63.55 0.00007
63.6 0.00004
63.65 0.00002
63.7 -0.00002
63.75 -0.00003
63.8 -0.00005
63.85 -0.00007
63.9 -0.00005
63.95 -0.00005
64 -0.00005
64.05 -0.00004
64.1 -0.00002
64.15 -0
64.2 -0.00001
64.25 -0.00001
64.3 -0.00002
64.35 -0.00004
64.4 -0.00005
64.45 -0.00004
64.5 -0.00003
64.55 -0.00002
64.6 -0.00002
64.65 -0.00005
64.7 -0.00004
64.75 -0.00002
64.8 0
64.85 0.00001
64.9 -0.00001
64.95 -0.00001
65 -0.00001
65.05 -0.00002
65.1 -0.00001
65.15 0.00001
65.2 0.00002
65.25 0
65.3 -0.00004
65.35 -0.00004
65.4 -0.00002
65.45 -0
65.5 0.00002
65.55 0.00005
65.6 0.00005
65.65 0.00004
65.7 -0
65.75 -0.00001
65.8 -0
65.85 0.00002
65.9 0.00003
65.95 0.00001
66 -0.00002
66.05 -0.00003
66.1 -0.00005
66.15 -0.00003
66.2 0.00001
66.25 0.00003
66.3 0.00003
66.35 0.00004
66.4 0.00003
66.45 0.00002
66.5 0.00002
66.55 -0.00001
66.6 -0.00005
66.65 -0.00009
66.7 -0.0001
66.75 -0.00007
66.8 -0.00006
66.85 -0.00003
66.9 -0.00003
66.95 -0.00004
67 -0.00004
67.05 -0.00005
67.1 -0.00006
67.15 -0.00008
67.2 -0.00006
67.25 -0.00005
67.3 -0.00006
67.35 -0.00005
67.4 -0.00002
67.45 0.00002
67.5 0.00001
67.55 0.00001
67.6 -0.00001
67.65 -0
67.7 -0.00002
67.75 -0.00003
67.8 -0.00004
67.85 -0.00004
67.9 -0.00006
67.95 -0.00004
68 -0.00004
68.05 -0.00003
68.1 -0.00003
68.15 -0.00004
68.2 -0.00005
68.25 -0.00007
68.3 -0.00008
68.35 -0.00009
68.4 -0.0001
68.45 -0.00008
68.5 -0.00003
68.55 0.00001
68.6 0.00005
68.65 0.00009
68.7 0.0001
68.75 0.00009
68.8 0.00005
68.85 0.00002
68.9 0.00002
68.95 0.00004
69 0.00007
69.05 0.00006
69.1 0.00006
69.15 0.00004
69.2 0.00001
69.25 -0.00002
69.3 -0.00004
69.35 -0.00007
69.4 -0.00007
69.45 -0.0001
69.5 -0.00008
69.55 -0.00004
69.6 0.00001
69.65 0.00004
69.7 0.00006
69.75 0.00007
69.8 0.00007
69.85 0.00005
69.9 0.00005
69.95 0.00006
70 0.00004
70.05 0.00001
70.1 -0.00003
70.15 -0.00004
70.2 -0.00006
70.25 -0.00005
70.3 -0.00004
70.35 -0.00003
70.4 -0
70.45 0.00003
70.5 0.00005
70.55 0.00004
70.6 0.00005
70.65 0.00007
70.7 0.00009
70.75 0.0001
70.8 0.00008
70.85 0.00005
70.9 0.00003
70.95 0.00003
71 0.00003
71.05 0.00004
71.1 0.00005
71.15 0.00004
71.2 0.00002
71.25 -0.00001
71.3 -0.00003
71.35 -0.00002
71.4 -0
71.45 -0.00001
71.5 0
71.55 0.00002
71.6 0
71.65 -0
71.7 0
71.75 0.00001
71.8 0.00003
71.85 0.00001
71.9 0
71.95 -0.00002
72 -0.00003
72.05 -0.00002
72.1 -0.00001
72.15 0.00002
72.2 0.00004
72.25 0.00004
72.3 0.00004
72.35 0.00004
72.4 0.00002
72.45 0
72.5 -0.00001
72.55 -0.00003
72.6 -0.00003
72.65 -0.00004
72.7 -0.00003
72.75 -0.00004
72.8 -0.00006
72.85 -0.00008
72.9 -0.00012
72.95 -0.00011
73 -0.00009
73.05 -0.00005
73.1 -0
73.15 0.00002
73.2 0.00001
73.25 -0.00002
73.3 -0.00006
73.35 -0.00009
73.4 -0.00011
73.45 -0.00013
73.5 -0.00015
73.55 -0.00016
73.6 -0.00016
73.65 -0.00015
73.7 -0.00015
73.75 -0.00011
73.8 -0.00008
73.85 -0.00004
73.9 -0.00003
73.95 -0.00003
74 -0.00002
74.05 -0.00002
74.1 -0
74.15 -0
74.2 0.00002
74.25 0.00005
74.3 0.00005
74.35 0.00004
74.4 0.00005
74.45 0.00004
74.5 0.00004
74.55 0.00006
74.6 0.00005
74.65 0.00005
74.7 0.00002
74.75 -0.00002
74.8 -0.00002
74.85 -0.00001
74.9 0.00001
74.95 0.00001
75 0.00002
75.05 0.00001
75.1 0.00002
75.15 0.00002
75.2 0.00005
75.25 0.00005
75.3 0.00006
75.35 0.00006
75.4 0.00004
75.45 0.00004
75.5 0.00004
75.55 0.00002
75.6 0.00002
75.65 0
75.7 -0.00003
75.75 -0.00002
75.8 0
75.85 0
75.9 -0.00002
75.95 -0.00001
76 -0.00003
76.05 -0.00006
76.1 -0.00007
76.15 -0.0001
76.2 -0.00011
76.25 -0.00013
76.3 -0.00012
76.35 -0.00009
76.4 -0.00006
76.45 -0.00005
76.5 -0.00006
76.55 -0.00009
76.6 -0.00011
76.65 -0.00014
76.7 -0.00013
76.75 -0.00014
76.8 -0.00014
76.85 -0.00015
76.9 -0.00014
76.95 -0.00013
77 -0.00012
77.05 -0.00008
77.1 -0.00006
77.15 -0.00003
77.2 0.00002
77.25 0.00005
77.3 0.00009
77.35 0.00012
77.4 0.00011
77.45 0.00011
77.5 0.0001
77.55 0.00008
77.6 0.00006
77.65 0.00006
77.7 0.00007
77.75 0.00006
77.8 0.00005
77.85 0.00004
77.9 0.00001
77.95 -0.00003
78 -0.00003
78.05 -0
78.1 0
78.15 0.00002
78.2 0.00001
78.25 -0.00001
78.3 -0
78.35 0.00002
78.4 0.00004
78.45 0.00005
78.5 0.00008
78.55 0.00008
78.6 0.00009
78.65 0.00009
78.7 0.00009
78.75 0.0001
78.8 0.00012
78.85 0.00014
78.9 0.00012
78.95 0.0001
79 0.00009
79.05 0.00007
79.1 0.00003
79.15 0.00001
79.2 0.00001
79.25 0.00003
79.3 0.00006
79.35 0.00005
79.4 0.00002
79.45 -0.00002
79.5 -0.00004
79.55 -0.00004
79.6 -0.00002
79.65 0.00001
79.7 0.00004
79.75 0.00007
79.8 0.00007
79.85 0.00006
79.9 0.00006
79.95 0.00006
80 0.00006
80.05 0.00005
80.1 0.00002
80.15 0
80.2 -0.00003
80.25 -0.00007
80.3 -0.00012
80.35 -0.00014
80.4 -0.00013
80.45 -0.00011
80.5 -0.00009
80.55 -0.00005
80.6 -0.00003
80.65 -0.00001
80.7 0.00001
80.75 0.00002
80.8 0.00004
80.85 0.00003
80.9 0.00002
80.95 0
81 0.00002
81.05 0.00003
81.1 0.00005
81.15 0.00003
81.2 0
81.25 -0.00002
81.3 -0.00002
81.35 0
81.4 -0
81.45 0.00001
81.5 0.00002
81.55 0.00004
81.6 0.00004
81.65 0.00003
81.7 0.00002
81.75 0.00002
81.8 0.00004
81.85 0.00007
81.9 0.00008
81.95 0.00007
82 0.00005
82.05 0.00002
82.1 -0
82.15 -0.00001
82.2 -0.00003
82.25 -0.00007
82.3 -0.00007
82.35 -0.00007
82.4 -0.00008
82.45 -0.00008
82.5 -0.00006
82.55 -0.00004
82.6 -0.00005
82.65 -0.00004
82.7 -0.00002
82.75 0
82.8 -0
82.85 -0
82.9 -0
82.95 -0
83 0.00002
83.05 0.00005
83.1 0.00007
83.15 0.00009
83.2 0.00007
83.25 0.00008
83.3 0.00008
83.35 0.00005
83.4 0.00002
83.45 0.00001
83.5 -0.00002
83.55 -0.00006
83.6 -0.00008
83.65 -0.00011
83.7 -0.00009
83.75 -0.00006
83.8 -0.00006
83.85 -0.00005
83.9 -0.00007
83.95 -0.00005
84 -0.00003
84.05 -0.00003
84.1 -0.00001
84.15 -0.00002
84.2 -0.00004
84.25 -0.00007
84.3 -0.00008
84.35 -0.00007
84.4 -0.00005
84.45 -0.00002
84.5 -0.00002
84.55 -0.00002
84.6 -0.00003
84.65 -0.00002
84.7 0
84.75 0.00004
84.8 0.00004
84.85 0.00005
84.9 0.00005
84.95 0.00003
85 -0
85.05 -0
85.1 0.00001
85.15 0.00001
85.2 0.00001
85.25 0.00001
85.3 -0.00001
85.35 -0
85.4 -0.00002
85.45 -0.00003
85.5 -0.00001
85.55 0.00002
85.6 0.00004
85.65 0.00007
85.7 0.00011
85.75 0.00014
85.8 0.00017
85.85 0.00016
85.9 0.00015
85.95 0.00013
86 0.00011
86.05 0.00009
86.1 0.00005
86.15 0.00003
86.2 0.00004
86.25 0.00005
86.3 0.00003
86.35 0.00003
86.4 0.00002
86.45 0.00001
86.5 -0.00003
86.55 -0.00006
86.6 -0.00008
86.65 -0.0001
86.7 -0.00011
86.75 -0.00009
86.8 -0.00008
86.85 -0.00006
86.9 -0.00005
86.95 -0.00002
87 0
87.05 0.00001
87.1 -0
87.15 -0.00001
87.2 -0.00001
87.25 -0.00001
87.3 -0.00003
87.35 -0.00004
87.4 -0.00005
87.45 -0.00004
87.5 -0.00002
87.55 0
87.6 0.00004
87.65 0.00007
87.7 0.0001
87.75 0.0001
87.8 0.00009
87.85 0.00006
87.9 0.00004
87.95 0
88 -0.00003
88.05 -0.00004
88.1 -0.00005
88.15 -0.00006
88.2 -0.00006
88.25 -0.00005
88.3 -0.00003
88.35 0.00001
88.4 0.00002
88.45 -0.00001
88.5 -0
88.55 -0.00002
88.6 -0.00003
88.65 -0.00001
88.7 0.00001
88.75 0.00003
88.8 0.00005
88.85 0.00008
88.9 0.00011
88.95 0.0001
89 0.00008
89.05 0.00006
89.1 0.00002
89.15 -0
89.2 -0.00003
89.25 -0.00003
89.3 -0.00001
89.35 0
89.4 -0
89.45 -0.00002
89.5 -0.00001
89.55 0
89.6 0.00004
89.65 0.00004
89.7 0.00004
89.75 0.00001
89.8 -0.00002
89.85 -0.00004
89.9 -0.00005
89.95 -0.00004
90 -0.00002
90.05 -0.00003
90.1 -0.00005
90.15 -0.00005
90.2 -0.00003
90.25 -0.00003
90.3 -0.00003
90.35 -0.00001
90.4 -0.00002
90.45 0
90.5 0.00003
90.55 0.00006
90.6 0.00006
90.65 0.00004
90.7 0.00004
90.75 0.00002
90.8 0.00002
90.85 0
90.9 0.00001
90.95 -0
91 0.00001
91.05 0.00003
91.1 0.00003
91.15 0.00002
91.2 -0
91.25 -0.00002
91.3 -0.00004
91.35 -0.00006
91.4 -0.00008
91.45 -0.00008
91.5 -0.00006
91.55 -0.00004
91.6 -0.00004
91.65 -0.00005
91.7 -0.00006
91.75 -0.00006
91.8 -0.00004
91.85 0
91.9 0.00001
91.95 0.00003
92 0.00002
92.05 0.00003
92.1 0.00003
92.15 0.00003
92.2 0.00002
92.25 0
92.3 0
92.35 -0.00002
92.4 -0.00006
92.45 -0.00006
92.5 -0.00008
92.55 -0.00008
92.6 -0.00005
92.65 -0.00001
92.7 0.00001
92.75 0.00003
92.8 0.00003
92.85 0.00002
92.9 -0
92.95 -0.00002
93 -0.00005
93.05 -0.00009
93.1 -0.00012
93.15 -0.00013
93.2 -0.00014
93.25 -0.00016
93.3 -0.00015
93.35 -0.00016
93.4 -0.00015
93.45 -0.00012
93.5 -0.00008
93.55 -0.00006
93.6 -0.00006
93.65 -0.00005
93.7 -0.00002
93.75 0.00002
93.8 0.00003
93.85 0.00004
93.9 0.00003
93.95 0
94 0
94.05 0.00001
94.1 0.00004
94.15 0.00003
94.2 0.00005
94.25 0.00003
94.3 0.00004
94.35 0.00003
94.4 0.00002
94.45 -0.00001
94.5 -0.00002
94.55 -0.00002
94.6 -0.00001
94.65 0
94.7 -0.00002
94.75 -0.00002
94.8 -0.00002
94.85 -0.00004
94.9 -0.00004
94.95 -0.00003
95 -0.00001
95.05 0.00002
95.1 0.00002
95.15 0.00002
95.2 0.00001
95.25 0.00002
95.3 0.00002
95.35 0.00002
95.4 -0
95.45 -0.00001
95.5 -0.00003
95.55 -0.00003
95.6 -0.00001
95.65 0.00001
95.7 0.00002
95.75 0.00005
95.8 0.00004
95.85 0.00004
95.9 0.00002
95.95 0.00002
96 0.00001
96.05 -0.00002
96.1 -0.00002
96.15 -0.00002
96.2 -0.00004
96.25 -0.00006
96.3 -0.00008
96.35 -0.0001
96.4 -0.00008
96.45 -0.00006
96.5 -0.00005
96.55 -0.00004
96.6 -0.00006
96.65 -0.00006
96.7 -0.00008
96.75 -0.0001
96.8 -0.00013
96.85 -0.00012
96.9 -0.00013
96.95 -0.00013
97 -0.0001
97.05 -0.00008
97.1 -0.00006
97.15 -0.00002
97.2 0.00003
97.25 0.00004
97.3 0.00007
97.35 0.0001
97.4 0.00009
97.45 0.00011
97.5 0.00011
97.55 0.00012
97.6 0.00011
97.65 0.00008
97.7 0.00006
97.75 0.00006
97.8 0.00007
97.85 0.00007
97.9 0.00005
97.95 0.00004
98 0.00005
98.05 0.00005
98.1 0.00005
98.15 0.00007
98.2 0.00008
98.25 0.00006
98.3 0.00005
98.35 0.00004
98.4 0.00005
98.45 0.00004
98.5 0.00004
98.55 0.00004
98.6 0.00005
98.65 0.00003
98.7 0.00003
98.75 0.00002
98.8 0.00002
98.85 0.00003
98.9 0.00003
98.95 0.00004
99 0.00007
99.05 0.00006
99.1 0.00005
99.15 0.00005
99.2 0.00003
99.25 0.00004
99.3 0.00003
99.35 0
99.4 -0.00003
99.45 -0.00003
99.5 -0.00001
99.55 0.00001
99.6 0.00001
99.65 0.00004
99.7 0.00005
99.75 0.00003
99.8 0.00003
99.85 0.00002
99.9 -0
99.95 -0.00004
