0 0
0.05 0.00019
0.1 0.00121
0.15 0.00277
0.2 0.0037
0.25 0.0045
0.3 0.00583
0.35 0.00699
0.4 0.00753
0.45 0.00775
0.5 0.00728
0.55 0.0071
0.6 0.00683
0.65 0.00702
0.7 0.00747
0.75 0.00816
0.8 0.00817
0.85 0.00779
0.9 0.00722
0.95 0.0065
1 0.00574
1.05 0.00529
1.1 0.00548
1.15 0.00601
1.2 0.0065
1.25 0.00654
1.3 0.00617
1.35 0.00607
1.4 0.00538
1.45 0.00432
1.5 0.00353
1.55 0.00372
1.6 0.00377
1.65 0.00388
1.7 0.00354
1.75 0.00345
1.8 0.00344
1.85 0.00353
1.9 0.00368
1.95 0.00351
2 0.00296
2.05 0.00293
2.1 0.00313
2.15 0.00346
2.2 0.0043
2.25 0.00487
2.3 0.00556
2.35 0.00578
2.4 0.00603
2.45 0.00651
2.5 0.00669
2.55 0.00706
2.6 0.0074
2.65 0.00675
2.7 0.00592
2.75 0.00535
2.8 0.00501
2.85 0.00447
2.9 0.00425
2.95 0.00384
3 0.00302
3.05 0.00262
3.1 0.00256
3.15 0.0029
3.2 0.0033
3.25 0.0038
3.3 0.00395
3.35 0.0035
3.4 0.00375
3.45 0.00401
3.5 0.00404
3.55 0.00434
3.6 0.0049
3.65 0.00529
3.7 0.00514
3.75 0.00432
3.8 0.00384
3.85 0.00309
3.9 0.00202
3.95 0.00184
4 0.00118
4.05 0.00129
4.1 0.00195
4.15 0.00254
4.2 0.00309
4.25 0.00353
4.3 0.00308
4.35 0.00223
4.4 0.00108
4.45 0.00095
4.5 0.00071
4.55 0.00019
4.6 -0.00005
4.65 -0.00027
4.7 -0.00036
4.75 -0.00031
4.8 -0.00039
4.85 0.00022
4.9 0.00069
4.95 0.00134
5 0.00191
5.05 0.00247
5.1 0.00308
5.15 0.0034
5.2 0.00325
5.25 0.00365
5.3 0.00418
5.35 0.00382
5.4 0.00358
5.45 0.00293
5.5 0.00234
5.55 0.00145
5.6 0.00039
5.65 -0.00012
5.7 -0.00052
5.75 -0.00064
5.8 -0
5.85 0.00092
5.9 0.00094
5.95 0.00087
6 0.00065
6.05 0.00082
6.1 0.00109
6.15 0.00079
6.2 0.00123
6.25 0.00156
6.3 0.00149
6.35 0.00098
6.4 0.00076
6.45 0.00085
6.5 0.00139
6.55 0.00173
6.6 0.00154
6.65 0.00181
6.7 0.00237
6.75 0.00233
6.8 0.00234
6.85 0.00219
6.9 0.00142
6.95 0.00095
7 0.00083
7.05 0.00035
7.1 0.00059
7.15 0.00049
7.2 0.00033
7.25 -0.00026
7.3 0.00004
7.35 0.00082
7.4 0.00175
7.45 0.00217
7.5 0.00218
7.55 0.00182
7.6 0.0009
7.65 0.00077
7.7 0.00126
7.75 0.00087
7.8 0.00013
7.85 -0.00016
7.9 -0.00044
7.95 -0.00028
8 -0.00002
8.05 0.00014
8.1 0.00076
8.15 0.00091
8.2 0.00118
8.25 0.00111
8.3 0.00098
8.35 0.00093
8.4 0.00111
8.45 0.00111
8.5 0.00129
8.55 0.00095
8.6 0.00052
8.65 0.00013
8.7 -0.00047
8.75 -0.00119
8.8 -0.00158
8.85 -0.0023
8.9 -0.00307
8.95 -0.00324
9 -0.00305
9.05 -0.00237
9.1 -0.00128
9.15 -0.00099
9.2 -0.00086
9.25 -0.00051
9.3 -0.00033
9.35 -0.00001
9.4 0.00082
9.45 0.00188
9.5 0.00214
9.55 0.00267
9.6 0.00341
9.65 0.0039
9.7 0.00346
9.75 0.00309
9.8 0.00285
9.85 0.00183
9.9 0.00158
9.95 0.00165
10 0.00163
10.05 0.00167
10.1 0.00128
10.15 0.00042
10.2 0.00026
10.25 0.00004
10.3 -0.00074
10.35 -0.00084
10.4 -0.00093
10.45 -0.00133
10.5 -0.00087
10.55 -0.00102
10.6 -0.00111
10.65 -0.00111
10.7 -0.00048
10.75 -0.00048
10.8 -0.00091
10.85 -0.00073
10.9 -0.00069
10.95 -0.00041
11 0.00031
11.05 0.00012
11.1 0.00032
11.15 0.00016
11.2 -0.00014
11.25 -0.00057
11.3 -0.00022
11.35 -0.00022
11.4 -0.00036
11.45 -0.00097
11.5 -0.0007
11.55 -0.00013
11.6 0.00041
11.65 0.00076
11.7 0.00123
11.75 0.00173
11.8 0.00132
11.85 0.001
11.9 0.001
11.95 0.00053
12 0.00079
12.05 0.00147
12.1 0.00176
12.15 0.00218
12.2 0.00256
12.25 0.00291
12.3 0.003
12.35 0.00272
12.4 0.00281
12.45 0.0031
12.5 0.00354
12.55 0.00388
12.6 0.00343
12.65 0.00321
12.7 0.00273
12.75 0.00172
12.8 0.00109
12.85 0.00043
12.9 -0.00009
12.95 -0.00057
13 -0.00047
13.05 -0.00036
13.1 0.00008
13.15 0.00032
13.2 0.00061
13.25 0.00125
13.3 0.00213
13.35 0.00277
13.4 0.00351
13.45 0.00298
13.5 0.00295
13.55 0.00275
13.6 0.00197
13.65 0.00138
13.7 0.00039
13.75 -0.00012
13.8 -0.00094
13.85 -0.00126
13.9 -0.00103
13.95 -0.00076
14 -0.00081
14.05 -0.00109
14.1 -0.00078
14.15 -0.00124
14.2 -0.00124
14.25 -0.00135
14.3 -0.002
14.35 -0.00216
14.4 -0.00164
14.45 -0.00125
14.5 -0.00064
14.55 -0.00044
14.6 0.00017
14.65 0.00056
14.7 0.00087
14.75 0.00061
14.8 0.00058
14.85 0.00101
14.9 0.00176
14.95 0.0026
15 0.00309
15.05 0.00266
15.1 0.00183
15.15 0.00142
15.2 0.00063
15.25 0.00052
15.3 0.0004
15.35 -0.00004
15.4 -0.00009
15.45 -0.00054
15.5 -0.00088
15.55 -0.00094
15.6 -0.00049
15.65 0.0001
15.7 0.00045
15.75 0.00109
15.8 0.00068
15.85 0.00063
15.9 -0.00017
15.95 -0.00124
16 -0.00129
16.05 -0.00112
16.1 -0.00146
16.15 -0.002
16.2 -0.00241
16.25 -0.00314
16.3 -0.0029
16.35 -0.00248
16.4 -0.00237
16.45 -0.00177
16.5 -0.00077
16.55 -0.0003
16.6 0.00022
16.65 -0.00015
16.7 0.00009
16.75 -0.00024
16.8 -0.00054
16.85 -0.00132
16.9 -0.00163
16.95 -0.00126
17 -0.00116
17.05 -0.00045
17.1 0.00014
17.15 0.00095
17.2 0.00147
17.25 0.00223
17.3 0.00262
17.35 0.00296
17.4 0.00243
17.45 0.00246
17.5 0.00259
17.55 0.00182
17.6 0.00056
17.65 0.00021
17.7 0.00039
17.75 0.00011
17.8 -0.00038
17.85 -0.00061
17.9 -0.00108
17.95 -0.00194
18 -0.00301
18.05 -0.00359
18.1 -0.00355
18.15 -0.00303
18.2 -0.00218
18.25 -0.00115
18.3 -0.00002
18.35 0.00058
18.4 0.00095
18.45 0.00145
18.5 0.00161
18.55 0.00126
18.6 0.00133
18.65 0.00085
18.7 0.00081
18.75 0.00013
18.8 -0.00054
18.85 -0.0008
18.9 -0.00146
18.95 -0.00191
19 -0.00194
19.05 -0.00174
19.1 -0.00216
19.15 -0.00181
19.2 -0.00087
19.25 -0.00036
19.3 -0.0004
19.35 0.0002
19.4 0.00071
19.45 0.00132
19.5 0.00177
19.55 0.0024
19.6 0.0024
19.65 0.00268
19.7 0.00246
19.75 0.00266
19.8 0.00273
19.85 0.00195
19.9 0.00106
19.95 0.00075
20 0.00059
20.05 0.00086
20.1 0.00134
20.15 0.00178
20.2 0.00148
20.25 0.00055
20.3 0.00032
20.35 0.00042
20.4 -0.00003
20.45 -0.00014
20.5 0.00005
20.55 0.00018
20.6 0.00062
20.65 0.0002
20.7 0.00008
20.75 -0.00064
20.8 -0.00073
20.85 -0.00028
20.9 -0.00035
20.95 0.00017
21 -0.0002
21.05 -0.00048
21.1 -0.00057
21.15 -0.00111
21.2 -0.00125
21.25 -0.00152
21.3 -0.00109
21.35 -0.00086
21.4 -0.00064
21.45 -0.001
21.5 -0.00104
21.55 -0.00045
21.6 -0.00033
21.65 -0.00014
21.7 0.00015
21.75 0.00015
21.8 -0.00046
21.85 -0.00104
21.9 -0.00092
21.95 -0.00036
22 0.00052
22.05 0.00118
22.1 0.00169
22.15 0.00155
22.2 0.00086
22.25 0.0008
22.3 0.00058
22.35 0.00069
22.4 0.00121
22.45 0.00132
22.5 0.00149
22.55 0.00127
22.6 0.00156
22.65 0.00166
22.7 0.00171
22.75 0.00167
22.8 0.00097
22.85 0.0009
22.9 0.00057
22.95 0.00062
23 0.00008
23.05 -0.0008
23.1 -0.00153
23.15 -0.00244
23.2 -0.00278
23.25 -0.00238
23.3 -0.00249
23.35 -0.00254
23.4 -0.00255
23.45 -0.00178
23.5 -0.00166
23.55 -0.00138
23.6 -0.00165
23.65 -0.00174
23.7 -0.00214
23.75 -0.00168
23.8 -0.00092
23.85 -0.00037
23.9 -0.00055
23.95 -0.00079
24 -0.00114
24.05 -0.00098
24.1 -0.00133
24.15 -0.0013
24.2 -0.00166
24.25 -0.00129
24.3 -0.00114
24.35 -0.00073
24.4 0.00009
24.45 0.00026
24.5 -0.00013
24.55 -0.00038
24.6 -0.00035
24.65 -0.00074
24.7 -0.00123
24.75 -0.00168
24.8 -0.00199
24.85 -0.0026
24.9 -0.00308
24.95 -0.0038
25 -0.00394
25.05 -0.00378
25.1 -0.00279
25.15 -0.00173
25.2 -0.00145
25.25 -0.00125
25.3 -0.00076
25.35 -0.00091
25.4 -0.0003
25.45 0.00055
25.5 0.00069
25.55 0.00077
25.6 0.00112
25.65 0.0018
25.7 0.00178
25.75 0.00098
25.8 -0.00015
25.85 -0.00113
25.9 -0.0019
25.95 -0.00165
26 -0.00166
26.05 -0.00211
26.1 -0.00251
26.15 -0.00252
26.2 -0.00241
26.25 -0.00272
26.3 -0.00305
26.35 -0.00353
26.4 -0.00305
26.45 -0.00207
26.5 -0.00184
26.55 -0.002
26.6 -0.00219
26.65 -0.00186
26.7 -0.00088
26.75 -0.00012
26.8 0.00035
26.85 0.00028
26.9 0.00014
26.95 0.00044
27 0.00101
27.05 0.00153
27.1 0.0015
27.15 0.00102
27.2 0.001
27.25 0.00102
27.3 0.00138
27.35 0.00212
27.4 0.00296
27.45 0.00296
27.5 0.0024
27.55 0.00145
27.6 0.00132
27.65 0.00144
27.7 0.00147
27.75 0.00094
27.8 0.00029
27.85 -0.00003
27.9 0.0001
27.95 -0.00041
28 -0.0006
28.05 -0.00097
28.1 -0.00107
28.15 -0.0016
28.2 -0.00161
28.25 -0.00199
28.3 -0.00239
28.35 -0.00297
28.4 -0.00285
28.45 -0.00239
28.5 -0.00172
28.55 -0.00158
28.6 -0.00102
28.65 -0.00027
28.7 0.00073
28.75 0.00108
28.8 0.00106
28.85 0.0016
28.9 0.00144
28.95 0.00112
29 0.00089
29.05 0.00064
29.1 0.00097
29.15 0.00129
29.2 0.00118
29.25 0.00139
29.3 0.00175
29.35 0.00162
29.4 0.00081
29.45 -0.0002
29.5 -0.00104
29.55 -0.00187
29.6 -0.00271
29.65 -0.00331
29.7 -0.00331
29.75 -0.00304
29.8 -0.00279
29.85 -0.00193
29.9 -0.00113
29.95 -0.0004
30 0.00066
30.05 0.00068
30.1 0.00089
30.15 0.00055
30.2 0.00082
30.25 0.0012
30.3 0.00088
30.35 0.0003
30.4 -0.00019
30.45 -0.00014
30.5 0.00031
30.55 0.00027
30.6 -0.00037
30.65 -0.00047
30.7 -0.00032
30.75 -0.00011
30.8 0.00065
30.85 0.00157
30.9 0.0015
30.95 0.00179
31 0.00226
31.05 0.00224
31.1 0.00149
31.15 0.00045
31.2 0.00038
31.25 0.00008
31.3 -0.0002
31.35 -0.00028
31.4 0.0002
31.45 0.00039
31.5 0.00065
31.55 0.00101
31.6 0.00085
31.65 0.00079
31.7 0.00005
31.75 -0.00015
31.8 -0.00073
31.85 -0.00086
31.9 -0.00077
31.95 -0.0001
32 -0.0003
32.05 -0.00045
32.1 -0.00072
32.15 -0.00101
32.2 -0.00159
32.25 -0.00236
32.3 -0.00265
32.35 -0.00211
32.4 -0.00182
32.45 -0.00145
32.5 -0.00061
32.55 -0.00046
32.6 -0.00046
32.65 -0.00087
32.7 -0.00126
32.75 -0.00113
32.8 -0.0009
32.85 -0.00116
32.9 -0.00064
32.95 -0.00016
33 0.00052
33.05 0.00083
33.1 0.00159
33.15 0.00251
33.2 0.00236
33.25 0.00172
33.3 0.00128
33.35 0.00129
33.4 0.00152
33.45 0.00157
33.5 0.00093
33.55 0.00104
33.6 0.00063
33.65 0.00065
33.7 0.00062
33.75 0.00063
33.8 0.00016
33.85 -0.00017
33.9 -0.0002
33.95 -0.00039
34 -0.00016
34.05 0.00061
34.1 0.00106
34.15 0.00091
34.2 0.00137
34.25 0.00184
34.3 0.00173
34.35 0.00157
34.4 0.00123
34.45 0.00033
34.5 -0.00006
34.55 -0.00035
34.6 0.00005
34.65 0.00047
34.7 0.00096
34.75 0.00086
34.8 0.00084
34.85 0.00035
34.9 -0.00022
34.95 -0.00102
35 -0.00189
35.05 -0.00275
35.1 -0.0036
35.15 -0.00445
35.2 -0.00414
35.25 -0.00347
35.3 -0.00219
35.35 -0.0018
35.4 -0.00176
35.45 -0.00196
35.5 -0.0016
35.55 -0.00102
35.6 -0.00005
35.65 0.0002
35.7 0.00072
35.75 0.00136
35.8 0.00102
35.85 0.00073
35.9 0.00092
35.95 0.00111
36 0.00071
36.05 0.0001
36.1 -0.00023
36.15 -0.00096
36.2 -0.00119
36.25 -0.00143
36.3 -0.00097
36.35 0.00001
36.4 0.00117
36.45 0.00221
36.5 0.00228
36.55 0.00277
36.6 0.00228
36.65 0.00152
36.7 0.00044
36.75 -0.00003
36.8 -0.00089
36.85 -0.00104
36.9 -0.00134
36.95 -0.00091
37 -0.00076
37.05 -0.00018
37.1 0.00082
37.15 0.00198
37.2 0.00195
37.25 0.00151
37.3 0.00068
37.35 0.00015
37.4 -0.00026
37.45 -0.00058
37.5 -0.00066
37.55 -0.00125
37.6 -0.00104
37.65 -0.00065
37.7 -0.00025
37.75 -0.00057
37.8 -0.00118
37.85 -0.00105
37.9 -0.00065
37.95 0.0001
38 0.00118
38.05 0.00152
38.1 0.00221
38.15 0.00186
38.2 0.00158
38.25 0.00061
38.3 0.00004
38.35 -0.00066
38.4 -0.00131
38.45 -0.00147
38.5 -0.00128
38.55 -0.00163
38.6 -0.00199
38.65 -0.00199
38.7 -0.0013
38.75 -0.00044
38.8 0.00073
38.85 0.00078
38.9 0.00108
38.95 0.0006
39 -0.00033
39.05 -0.00117
39.1 -0.00182
39.15 -0.00268
39.2 -0.00305
39.25 -0.00327
39.3 -0.00264
39.35 -0.00195
39.4 -0.0015
39.45 -0.00148
39.5 -0.00144
39.55 -0.00128
39.6 -0.00153
39.65 -0.00195
39.7 -0.00155
39.75 -0.00065
39.8 0.00058
39.85 0.00096
39.9 0.00132
39.95 0.00198
40 0.00213
40.05 0.0017
40.1 0.00095
40.15 0.0002
40.2 -0.00053
40.25 -0.001
40.3 -0.00067
40.35 -0.00014
40.4 0.00076
40.45 0.00144
40.5 0.0024
40.55 0.00285
40.6 0.00255
40.65 0.00242
40.7 0.0025
40.75 0.00233
40.8 0.00246
40.85 0.00201
40.9 0.00215
40.95 0.00254
41 0.00319
41.05 0.00322
41.1 0.00255
41.15 0.00125
41.2 0.00048
41.25 -0.00008
41.3 -0.00108
41.35 -0.00182
41.4 -0.00249
41.45 -0.00253
41.5 -0.00225
41.55 -0.00217
41.6 -0.00217
41.65 -0.00209
41.7 -0.00215
41.75 -0.00167
41.8 -0.00158
41.85 -0.00173
41.9 -0.00143
41.95 -0.00049
42 0.00071
42.05 0.00203
42.1 0.00214
42.15 0.00263
42.2 0.00289
42.25 0.00308
42.3 0.00243
42.35 0.00123
42.4 0.00027
42.45 -0.00105
42.5 -0.00231
42.55 -0.00331
42.6 -0.00432
42.65 -0.00477
42.7 -0.00561
42.75 -0.00593
42.8 -0.00631
42.85 -0.00669
42.9 -0.00785
42.95 -0.0092
43 -0.01097
43.05 -0.01239
43.1 -0.01467
43.15 -0.01779
43.2 -0.02119
43.25 -0.02468
43.3 -0.02895
43.35 -0.03383
43.4 -0.03839
43.45 -0.04387
43.5 -0.05034
43.55 -0.05661
43.6 -0.06383
43.65 -0.07111
43.7 -0.07948
43.75 -0.08829
43.8 -0.09736
43.85 -0.1071
43.9 -0.1176
43.95 -0.1297
44 -0.14198
44.05 -0.15451
44.1 -0.168
44.15 -0.1821
44.2 -0.19612
44.25 -0.21037
44.3 -0.22429
44.35 -0.23689
44.4 -0.24947
44.45 -0.26109
44.5 -0.27241
44.55 -0.28269
44.6 -0.29205
44.65 -0.30116
44.7 -0.30859
44.75 -0.3154
44.8 -0.32038
44.85 -0.32469
44.9 -0.32726
44.95 -0.3291
45 -0.32936
45.05 -0.32862
45.1 -0.32706
45.15 -0.32416
45.2 -0.32011
45.25 -0.31416
45.3 -0.30627
45.35 -0.29665
45.4 -0.28618
45.45 -0.27509
45.5 -0.26247
45.55 -0.24825
45.6 -0.23218
45.65 -0.21462
45.7 -0.19628
45.75 -0.17677
45.8 -0.15535
45.85 -0.1325
45.9 -0.10914
45.95 -0.08529
46 -0.05991
46.05 -0.03351
46.1 -0.0059
46.15 0.02168
46.2 0.04974
46.25 0.07799
46.3 0.10659
46.35 0.13456
46.4 0.16213
46.45 0.18835
46.5 0.21401
46.55 0.23845
46.6 0.26204
46.65 0.28494
46.7 0.30611
46.75 0.32519
46.8 0.34205
46.85 0.35671
46.9 0.37037
46.95 0.38237
47 0.39234
47.05 0.40052
47.1 0.40717
47.15 0.41138
47.2 0.41375
47.25 0.4141
47.3 0.41337
47.35 0.41129
47.4 0.40747
47.45 0.40197
47.5 0.39535
47.55 0.3882
47.6 0.3796
47.65 0.37102
47.7 0.36114
47.75 0.35045
47.8 0.339
47.85 0.32728
47.9 0.31566
47.95 0.30416
48 0.29309
48.05 0.2817
48.1 0.27049
48.15 0.25958
48.2 0.24907
48.25 0.23876
48.3 0.22834
48.35 0.21734
48.4 0.20642
48.45 0.1961
48.5 0.18523
48.55 0.17489
48.6 0.16485
48.65 0.15543
48.7 0.14554
48.75 0.13595
48.8 0.12643
48.85 0.11775
48.9 0.11004
48.95 0.10226
49 0.09475
49.05 0.08803
49.1 0.08185
49.15 0.07536
49.2 0.06863
49.25 0.06214
49.3 0.05646
49.35 0.05116
49.4 0.04611
49.45 0.04062
49.5 0.03551
49.55 0.03033
49.6 0.02511
49.65 0.01992
49.7 0.01533
49.75 0.0117
49.8 0.00876
49.85 0.00631
49.9 0.00337
49.95 0.00079
50 -0.0026
50.05 -0.00613
50.1 -0.00945
50.15 -0.01229
50.2 -0.01458
50.25 -0.01721
50.3 -0.01911
50.35 -0.02046
50.4 -0.02237
50.45 -0.02398
50.5 -0.02573
50.55 -0.02697
50.6 -0.02817
50.65 -0.02985
50.7 -0.03109
50.75 -0.03304
50.8 -0.03456
50.85 -0.03573
50.9 -0.03726
50.95 -0.03931
51 -0.04118
51.05 -0.042
51.1 -0.04303
51.15 -0.04435
51.2 -0.04585
51.25 -0.04682
51.3 -0.0474
51.35 -0.04778
51.4 -0.04812
51.45 -0.04777
51.5 -0.04698
51.55 -0.04639
51.6 -0.04594
51.65 -0.04597
51.7 -0.04602
51.75 -0.04562
51.8 -0.04509
51.85 -0.0445
51.9 -0.04488
51.95 -0.04569
52 -0.04648
52.05 -0.04669
52.1 -0.04624
52.15 -0.0461
52.2 -0.04553
52.25 -0.0453
52.3 -0.04542
52.35 -0.04562
52.4 -0.04551
52.45 -0.04525
52.5 -0.04486
52.55 -0.04426
52.6 -0.04393
52.65 -0.04409
52.7 -0.04419
52.75 -0.04358
52.8 -0.04321
52.85 -0.04314
52.9 -0.04317
52.95 -0.04226
53 -0.04141
53.05 -0.0404
53.1 -0.03883
53.15 -0.03788
53.2 -0.03679
53.25 -0.03624
53.3 -0.03598
53.35 -0.03539
53.4 -0.035
53.45 -0.03503
53.5 -0.03453
53.55 -0.03432
53.6 -0.03434
53.65 -0.03439
53.7 -0.03398
53.75 -0.03289
53.8 -0.03161
53.85 -0.03044
53.9 -0.02937
53.95 -0.02884
54 -0.02851
54.05 -0.02854
54.1 -0.02894
54.15 -0.02925
54.2 -0.02866
54.25 -0.02816
54.3 -0.02782
54.35 -0.02686
54.4 -0.02618
54.45 -0.02519
54.5 -0.02466
54.55 -0.02387
54.6 -0.02304
54.65 -0.02275
54.7 -0.02293
54.75 -0.02293
54.8 -0.02228
54.85 -0.02132
54.9 -0.02101
54.95 -0.02057
55 -0.02076
55.05 -0.02078
55.1 -0.02117
55.15 -0.02159
55.2 -0.02177
55.25 -0.02153
55.3 -0.0209
55.35 -0.02053
55.4 -0.0201
55.45 -0.01923
55.5 -0.01809
55.55 -0.01764
55.6 -0.01744
55.65 -0.01665
55.7 -0.01627
55.75 -0.01587
55.8 -0.01504
55.85 -0.0152
55.9 -0.01481
55.95 -0.01411
56 -0.01393
56.05 -0.01453
56.1 -0.01517
56.15 -0.01585
56.2 -0.01585
56.25 -0.01622
56.3 -0.01594
56.35 -0.01508
56.4 -0.01497
56.45 -0.01498
56.5 -0.01467
56.55 -0.01383
56.6 -0.01295
56.65 -0.01277
56.7 -0.0131
56.75 -0.013
56.8 -0.01304
56.85 -0.01271
56.9 -0.01177
56.95 -0.01146
57 -0.01153
57.05 -0.01147
57.1 -0.01162
57.15 -0.01155
57.2 -0.01164
57.25 -0.01175
57.3 -0.01219
57.35 -0.01244
57.4 -0.01227
57.45 -0.01144
57.5 -0.01064
57.55 -0.00989
57.6 -0.00974
57.65 -0.00963
57.7 -0.0101
57.75 -0.00978
57.8 -0.00972
57.85 -0.00998
57.9 -0.01013
57.95 -0.00989
58 -0.00892
58.05 -0.00758
58.1 -0.0071
58.15 -0.00685
58.2 -0.00621
58.25 -0.0062
58.3 -0.00618
58.35 -0.00657
58.4 -0.00683
58.45 -0.00642
58.5 -0.00646
58.55 -0.0059
58.6 -0.00496
58.65 -0.0046
58.7 -0.00489
58.75 -0.00497
58.8 -0.00495
58.85 -0.00516
58.9 -0.00488
58.95 -0.00527
59 -0.00616
59.05 -0.00631
59.1 -0.0066
59.15 -0.00651
59.2 -0.0068
59.25 -0.00723
59.3 -0.00677
59.35 -0.00591
59.4 -0.0052
59.45 -0.00502
59.5 -0.00427
59.55 -0.00333
59.6 -0.00241
59.65 -0.00233
59.7 -0.00254
59.75 -0.00238
59.8 -0.00192
59.85 -0.00191
59.9 -0.00245
59.95 -0.00251
60 -0.00214
60.05 -0.00147
60.1 -0.00107
60.15 -0.00159
60.2 -0.0017
60.25 -0.00259
60.3 -0.00337
60.35 -0.00388
60.4 -0.00373
60.45 -0.00341
60.5 -0.0027
60.55 -0.00197
60.6 -0.00166
60.65 -0.00193
60.7 -0.00215
60.75 -0.00191
60.8 -0.00167
60.85 -0.00225
60.9 -0.00228
60.95 -0.00273
61 -0.00358
61.05 -0.00416
61.1 -0.00393
61.15 -0.00318
61.2 -0.00326
61.25 -0.00312
61.3 -0.00298
61.35 -0.00276
61.4 -0.00243
61.45 -0.00278
61.5 -0.00296
61.55 -0.00306
61.6 -0.00289
61.65 -0.00298
61.7 -0.00369
61.75 -0.00384
61.8 -0.00341
61.85 -0.00324
61.9 -0.00299
61.95 -0.00273
62 -0.00241
62.05 -0.0026
62.1 -0.00231
62.15 -0.00235
62.2 -0.00294
62.25 -0.00318
62.3 -0.00393
62.35 -0.00476
62.4 -0.00517
62.45 -0.00462
62.5 -0.00457
62.55 -0.004
62.6 -0.0038
62.65 -0.00293
62.7 -0.00175
62.75 -0.00091
62.8 -0.00097
62.85 -0.0016
62.9 -0.0015
62.95 -0.00199
63 -0.00232
63.05 -0.00285
63.1 -0.00294
63.15 -0.00263
63.2 -0.00215
63.25 -0.00144
63.3 -0.00086
63.35 -0.00097
63.4 -0.0005
63.45 -0.00066
63.5 -0.0008
63.55 -0.00079
63.6 -0.00081
63.65 -0.00124
63.7 -0.00154
63.75 -0.00134
63.8 -0.00184
63.85 -0.00271
63.9 -0.00277
63.95 -0.0022
64 -0.00138
64.05 -0.00065
64.1 0.00028
64.15 0.00051
64.2 0.00066
64.25 0.00031
64.3 -0.00047
64.35 -0.00049
64.4 -0.00124
64.45 -0.00173
64.5 -0.00149
64.55 -0.00085
64.6 -0.00116
64.65 -0.00179
64.7 -0.00186
64.75 -0.00135
64.8 -0.00077
64.85 -0.00043
64.9 -0.00027
64.95 -0.00079
65 -0.00143
65.05 -0.00121
65.1 -0.00164
65.15 -0.00176
65.2 -0.00138
65.25 -0.00111
65.3 -0.00063
65.35 -0.00024
65.4 -0.00019
65.45 0.00014
65.5 -0.00021
65.55 -0.00015
65.6 0.00003
65.65 -0.00055
65.7 -0.00158
65.75 -0.00228
65.8 -0.00315
65.85 -0.00311
65.9 -0.00286
65.95 -0.00264
66 -0.0024
66.05 -0.00196
66.1 -0.00119
66.15 -0.00025
66.2 0.00006
66.25 -0.00016
66.3 0.00007
66.35 0.00004
66.4 0.00047
66.45 0.0012
66.5 0.00145
66.55 0.00162
66.6 0.00151
66.65 0.00159
66.7 0.00182
66.75 0.00215
66.8 0.0025
66.85 0.00288
66.9 0.00296
66.95 0.00217
67 0.00177
67.05 0.0013
67.1 0.00035
67.15 0.00011
67.2 -0.00046
67.25 -0.00141
67.3 -0.00178
67.35 -0.00217
67.4 -0.00189
67.45 -0.0019
67.5 -0.00226
67.55 -0.00284
67.6 -0.0034
67.65 -0.00398
67.7 -0.00467
67.75 -0.00508
67.8 -0.00495
67.85 -0.00403
67.9 -0.00303
67.95 -0.00216
68 -0.00184
68.05 -0.00143
68.1 -0.00083
68.15 0.00005
68.2 0.00067
68.25 0.00138
68.3 0.00154
68.35 0.00106
68.4 0.00123
68.45 0.00142
68.5 0.0014
68.55 0.00112
68.6 0.00061
68.65 0.00043
68.7 0.00022
68.75 -0.00008
68.8 -0.00042
68.85 -0.00053
68.9 -0.00036
68.95 0.00006
69 0.00056
69.05 0.00133
69.1 0.0015
69.15 0.00104
69.2 0.00058
69.25 -0.00037
69.3 -0.00083
69.35 -0.00134
69.4 -0.00193
69.45 -0.0021
69.5 -0.00217
69.55 -0.00187
69.6 -0.00189
69.65 -0.00224
69.7 -0.00222
69.75 -0.00196
69.8 -0.00109
69.85 -0.0001
69.9 -0.00009
69.95 -0.00072
70 -0.00057
70.05 -0.00101
70.1 -0.0018
70.15 -0.00239
70.2 -0.00298
70.25 -0.00274
70.3 -0.00288
70.35 -0.0024
70.4 -0.0025
70.45 -0.00196
70.5 -0.00211
70.55 -0.00186
70.6 -0.00101
70.65 -0.0005
70.7 -0.00003
70.75 0.00043
70.8 0.00079
70.85 0.00047
70.9 0.00075
70.95 0.00094
71 0.00117
71.05 0.0016
71.1 0.00211
71.15 0.00176
71.2 0.00118
71.25 0.00008
71.3 -0.0005
71.35 -0.00133
71.4 -0.00181
71.45 -0.00154
71.5 -0.00192
71.55 -0.00169
71.6 -0.00106
71.65 -0.00122
71.7 -0.0012
71.75 -0.00082
71.8 -0.0001
71.85 -0.00018
71.9 -0.00059
71.95 -0.00074
72 -0.00042
72.05 -0.00009
72.1 -0.00037
72.15 -0.00078
72.2 -0.00073
72.25 -0.00067
72.3 -0.00032
72.35 -0.00042
72.4 -0.00082
72.45 -0.00064
72.5 -0.00047
72.55 -0.00094
72.6 -0.00111
72.65 -0.00147
72.7 -0.00095
72.75 -0.00018
72.8 0.00086
72.85 0.0018
72.9 0.0027
72.95 0.00358
73 0.00328
73.05 0.0027
73.1 0.00229
73.15 0.00145
73.2 0.00016
73.25 -0.00044
73.3 -0.00092
73.35 -0.00182
73.4 -0.00167
73.45 -0.0017
73.5 -0.00153
73.55 -0.00174
73.6 -0.00122
73.65 -0.00078
73.7 -0.00087
73.75 -0.0005
73.8 -0.00016
73.85 0.00008
73.9 0.00037
73.95 0.00114
74 0.00149
74.05 0.00128
74.1 0.00105
74.15 0.00045
74.2 0.00042
74.25 0.00006
74.3 0.00019
74.35 -0.00016
74.4 -0.00104
74.45 -0.00194
74.5 -0.00261
74.55 -0.00283
74.6 -0.00275
74.65 -0.00213
74.7 -0.00133
74.75 -0.0003
74.8 -0.00013
74.85 -0.00011
74.9 -0.00034
74.95 0.00012
75 0.00051
75.05 0.00127
75.1 0.00212
75.15 0.00233
75.2 0.00251
75.25 0.00245
75.3 0.00157
75.35 0.00076
75.4 0.00038
75.45 0.00001
75.5 -0.00071
75.55 -0.00118
75.6 -0.00136
75.65 -0.00088
75.7 -0.00113
75.75 -0.00094
75.8 -0.00122
75.85 -0.00093
75.9 -0.00023
75.95 0.00074
76 0.00075
76.05 0.00043
76.1 0.00051
76.15 0.00079
76.2 0.00045
76.25 0.00003
76.3 -0.00031
76.35 -0.00048
76.4 -0.0002
76.45 -0.00011
76.5 0.00054
76.55 0.00121
76.6 0.00125
76.65 0.0011
76.7 0.00113
76.75 0.00096
76.8 0.00097
76.85 0.00117
76.9 0.00133
76.95 0.00157
77 0.00134
77.05 0.00044
77.1 0.00029
77.15 0.00025
77.2 -0.00007
77.25 -0.00019
77.3 0.00011
77.35 0.00038
77.4 0.00097
77.45 0.00066
77.5 0.00081
77.55 0.00021
77.6 -0.00056
77.65 -0.00047
77.7 -0.00003
77.75 -0.00009
77.8 -0.00014
77.85 0.00021
77.9 0.00072
77.95 0.0006
78 0.00033
78.05 -0.00039
78.1 -0.00066
78.15 -0.00113
78.2 -0.00106
78.25 -0.00156
78.3 -0.00206
78.35 -0.00278
78.4 -0.0031
78.45 -0.00339
78.5 -0.00297
78.55 -0.00256
78.6 -0.00151
78.65 -0.00116
78.7 -0.00054
78.75 0.00011
78.8 0.00053
78.85 0.00124
78.9 0.00122
78.95 0.00123
79 0.00075
79.05 -0.00019
79.1 -0.0012
79.15 -0.00225
79.2 -0.0029
79.25 -0.00348
79.3 -0.00409
79.35 -0.00438
79.4 -0.00425
79.45 -0.00345
79.5 -0.0024
79.55 -0.00157
79.6 -0.00069
79.65 0.00005
79.7 0.00079
79.75 0.00124
79.8 0.00145
79.85 0.00127
79.9 0.00163
79.95 0.00117
80 0.00098
80.05 0.00095
80.1 0.00137
80.15 0.0021
80.2 0.00191
80.25 0.00183
80.3 0.00142
80.35 0.00125
80.4 0.00162
80.45 0.00214
80.5 0.0024
80.55 0.00184
80.6 0.00146
80.65 0.00168
80.7 0.00218
80.75 0.00174
80.8 0.0017
80.85 0.0014
80.9 0.00163
80.95 0.00167
81 0.00094
81.05 0.00022
81.1 0.00014
81.15 -0.00033
81.2 -0.00091
81.25 -0.00163
81.3 -0.00207
81.35 -0.00205
81.4 -0.00239
81.45 -0.00219
81.5 -0.00197
81.55 -0.00122
81.6 -0.00123
81.65 -0.00139
81.7 -0.00158
81.75 -0.0012
81.8 -0.00032
81.85 -0.00028
81.9 0.00024
81.95 0.00071
82 0.00149
82.05 0.00175
82.1 0.0017
82.15 0.00165
82.2 0.00144
82.25 0.00154
82.3 0.00178
82.35 0.00195
82.4 0.00146
82.45 0.00083
82.5 -0.00031
82.55 -0.00117
82.6 -0.00155
82.65 -0.00141
82.7 -0.00087
82.75 -0.00105
82.8 -0.00126
82.85 -0.00105
82.9 -0.00135
82.95 -0.00123
83 -0.00131
83.05 -0.00144
83.1 -0.00095
83.15 -0.00046
83.2 -0.00061
83.25 -0.00071
83.3 -0.00055
83.35 -0.00023
83.4 0.00009
83.45 -0.00037
83.5 -0.00103
83.55 -0.00133
83.6 -0.0019
83.65 -0.00256
83.7 -0.00278
83.75 -0.00283
83.8 -0.00319
83.85 -0.0031
83.9 -0.00268
83.95 -0.00169
84 -0.00097
84.05 -0.00032
84.1 -0.00004
84.15 0.00012
84.2 0.00046
84.25 0.00086
84.3 0.00134
84.35 0.00166
84.4 0.00197
84.45 0.00177
84.5 0.0015
84.55 0.00064
84.6 0.00025
84.65 -0.00027
84.7 -0.0006
84.75 -0.00114
84.8 -0.00121
84.85 -0.0006
84.9 -0.00054
84.95 -0.00076
85 -0.00106
85.05 -0.00132
85.1 -0.0019
85.15 -0.00245
85.2 -0.00253
85.25 -0.0019
85.3 -0.00159
85.35 -0.00135
85.4 -0.00089
85.45 -0.00079
85.5 -0.0001
85.55 0.001
85.6 0.00126
85.65 0.00197
85.7 0.0027
85.75 0.00267
85.8 0.00301
85.85 0.00352
85.9 0.00342
85.95 0.00244
86 0.00134
86.05 0.0002
86.1 -0.00096
86.15 -0.0021
86.2 -0.00298
86.25 -0.00276
86.3 -0.00294
86.35 -0.00224
86.4 -0.00138
86.45 -0.00076
86.5 -0.00049
86.55 0.00025
86.6 0.00065
86.65 0.00048
86.7 0.00077
86.75 0.00115
86.8 0.00168
86.85 0.00222
86.9 0.0027
86.95 0.00275
87 0.00311
87.05 0.00337
87.1 0.00379
87.15 0.00359
87.2 0.00291
87.25 0.00272
87.3 0.00221
87.35 0.00137
87.4 0.00068
87.45 -0.00006
87.5 -0.00075
87.55 -0.00055
87.6 -0.00045
87.65 -0.00055
87.7 -0.00044
87.75 -0.00004
87.8 0.00062
87.85 0.00049
87.9 0.00025
87.95 0.00066
88 0.00123
88.05 0.00133
88.1 0.00089
88.15 0.00107
88.2 0.00138
88.25 0.00148
88.3 0.00077
88.35 0.00035
88.4 0.00014
88.45 0.00046
88.5 0.00046
88.55 0.00057
88.6 0.00089
88.65 0.00033
88.7 -0.00012
88.75 -0.00104
88.8 -0.00131
88.85 -0.00201
88.9 -0.00289
88.95 -0.00267
89 -0.00281
89.05 -0.00283
89.1 -0.00293
89.15 -0.00239
89.2 -0.00144
89.25 -0.00113
89.3 -0.00127
89.35 -0.00119
89.4 -0.00159
89.45 -0.00115
89.5 -0.00131
89.55 -0.00139
89.6 -0.0012
89.65 -0.00128
89.7 -0.00133
89.75 -0.00096
89.8 -0.00125
89.85 -0.0012
89.9 -0.00087
89.95 -0.00122
90 -0.00125
90.05 -0.00104
90.1 -0.00117
90.15 -0.00062
90.2 -0.00083
90.25 -0.00086
90.3 -0.0008
90.35 -0.00129
90.4 -0.00159
90.45 -0.00222
90.5 -0.00195
90.55 -0.00162
90.6 -0.00134
90.65 -0.00147
90.7 -0.00112
90.75 -0.00036
90.8 0.00045
90.85 0.00047
90.9 0.00034
90.95 -0.00021
91 -0.00104
91.05 -0.00099
91.1 -0.0011
91.15 -0.00096
91.2 -0.00118
91.25 -0.00061
91.3 -0.00015
91.35 0.00032
91.4 0.00005
91.45 -0.00048
91.5 -0.00093
91.55 -0.00124
91.6 -0.00169
91.65 -0.00198
91.7 -0.0019
91.75 -0.00223
91.8 -0.00188
91.85 -0.00166
91.9 -0.00115
91.95 -0.00091
92 -0.00002
92.05 -0
92.1 -0.0004
92.15 -0.00081
92.2 -0.00116
92.25 -0.00172
92.3 -0.00238
92.35 -0.00195
92.4 -0.001
92.45 0.00014
92.5 0.00116
92.55 0.00185
92.6 0.00186
92.65 0.00214
92.7 0.00198
92.75 0.00125
92.8 0.00055
92.85 0.00046
92.9 -0.00022
92.95 -0.00077
93 -0.00092
93.05 -0.00098
93.1 -0.00146
93.15 -0.00111
93.2 -0.00121
93.25 -0.00053
93.3 -0.00028
93.35 0.00045
93.4 0.00113
93.45 0.00163
93.5 0.00137
93.55 0.00167
93.6 0.00237
93.65 0.0027
93.7 0.00222
93.75 0.00132
93.8 0.00103
93.85 0.00108
93.9 0.0014
93.95 0.00175
94 0.00147
94.05 0.00176
94.1 0.00131
94.15 0.00057
94.2 -0.00033
94.25 -0.00115
94.3 -0.00104
94.35 -0.0014
94.4 -0.00126
94.45 -0.00138
94.5 -0.00137
94.55 -0.00092
94.6 -0.00023
94.65 0.00038
94.7 0.001
94.75 0.00169
94.8 0.0023
94.85 0.00281
94.9 0.00278
94.95 0.00272
95 0.00269
95.05 0.00208
95.1 0.002
95.15 0.00125
95.2 0.00106
95.25 0.00101
95.3 0.00096
95.35 0.00054
95.4 0.00053
95.45 0.00073
95.5 0.00081
95.55 0.00027
95.6 -0.00058
95.65 -0.00152
95.7 -0.00204
95.75 -0.00185
95.8 -0.00197
95.85 -0.00167
95.9 -0.00075
95.95 0.00014
96 0.00128
96.05 0.00205
96.1 0.00289
96.15 0.00297
96.2 0.00296
96.25 0.00258
96.3 0.00185
96.35 0.00103
96.4 0.00062
96.45 -0.0001
96.5 -0.00039
96.55 -0.00052
96.6 -0.00121
96.65 -0.00098
96.7 -0.00027
96.75 0.00079
96.8 0.00184
96.85 0.00212
96.9 0.00261
96.95 0.00314
97 0.00315
97.05 0.00225
97.1 0.00113
97.15 0.00008
97.2 -0.0003
97.25 -0.00081
97.3 -0.00089
97.35 -0.00084
97.4 -0.00059
97.45 0.00014
97.5 0.00079
97.55 0.0011
97.6 0.00174
97.65 0.00145
97.7 0.00112
97.75 0.00105
97.8 0.00063
97.85 0.0001
97.9 -0.00044
97.95 -0.00047
98 -0.00089
98.05 -0.00065
98.1 -0.00053
98.15 -0.00004
98.2 -0.00015
98.25 -0.00005
98.3 0.00041
98.35 0.00055
98.4 0.0009
98.45 0.00073
98.5 0.00052
98.55 0.00083
98.6 0.00147
98.65 0.00225
98.7 0.00305
98.75 0.00278
98.8 0.00253
98.85 0.00252
98.9 0.00201
98.95 0.00207
99 0.00234
99.05 0.00209
99.1 0.00199
99.15 0.00221
99.2 0.00183
99.25 0.00199
99.3 0.00178
99.35 0.00166
99.4 0.00149
99.45 0.00115
99.5 0.00061
99.55 -0.00009
99.6 -0.00105
99.65 -0.00186
99.7 -0.00253
99.75 -0.00236
99.8 -0.00201
99.85 -0.00148
99.9 -0.00049
99.95 -0.00042
