0 0
0.05 0.00003
0.1 0.00011
0.15 0.00015
0.2 0.00028
0.25 0.00034
0.3 0.00038
0.35 0.00048
0.4 0.0005
0.45 0.00052
0.5 0.00049
0.55 0.00043
0.6 0.00044
0.65 0.0005
0.7 0.00053
0.75 0.0006
0.8 0.0006
0.85 0.00061
0.9 0.0006
0.95 0.00061
1 0.00057
1.05 0.00049
1.1 0.00044
1.15 0.00041
1.2 0.00042
1.25 0.00045
1.3 0.00045
1.35 0.00049
1.4 0.00046
1.45 0.00039
1.5 0.00038
1.55 0.00035
1.6 0.0003
1.65 0.00025
1.7 0.00023
1.75 0.00019
1.8 0.00019
1.85 0.00016
1.9 0.00018
1.95 0.00017
2 0.0002
2.05 0.00021
2.1 0.00028
2.15 0.00031
2.2 0.0003
2.25 0.00032
2.3 0.00029
2.35 0.00024
2.4 0.00018
2.45 0.00013
2.5 0.00016
2.55 0.00021
2.6 0.00028
2.65 0.0003
2.7 0.00029
2.75 0.00029
2.8 0.00032
2.85 0.00035
2.9 0.00038
2.95 0.00043
3 0.00047
3.05 0.00047
3.1 0.00046
3.15 0.00048
3.2 0.00045
3.25 0.00043
3.3 0.00048
3.35 0.0005
3.4 0.00048
3.45 0.00041
3.5 0.00038
3.55 0.00031
3.6 0.00027
3.65 0.00027
3.7 0.0003
3.75 0.00035
3.8 0.00041
3.85 0.00042
3.9 0.00044
3.95 0.0005
4 0.00057
4.05 0.00054
4.1 0.00056
4.15 0.00058
4.2 0.00061
4.25 0.00057
4.3 0.00048
4.35 0.00037
4.4 0.00031
4.45 0.00026
4.5 0.00022
4.55 0.00019
4.6 0.00014
4.65 0.00014
4.7 0.00019
4.75 0.00024
4.8 0.00028
4.85 0.00032
4.9 0.00037
4.95 0.00034
5 0.00033
5.05 0.00029
5.1 0.00027
5.15 0.00023
5.2 0.00022
5.25 0.00018
5.3 0.0001
5.35 0.00002
5.4 -0.00005
5.45 -0.0001
5.5 -0.0001
5.55 -0.00004
5.6 -0.00002
5.65 0.00005
5.7 0.00012
5.75 0.00017
5.8 0.0002
5.85 0.00026
5.9 0.00026
5.95 0.00021
6 0.00012
6.05 0.00005
6.1 -0.00005
6.15 -0.00005
6.2 0.00002
6.25 0.00005
6.3 0.00005
6.35 0.00007
6.4 0.00007
6.45 0.00009
6.5 0.00012
6.55 0.00008
6.6 0.00008
6.65 0.00011
6.7 0.00011
6.75 0.00006
6.8 0.00003
6.85 -0.00001
6.9 -0.00003
6.95 -0.00008
7 -0.00004
7.05 -0.00005
7.1 -0.00004
7.15 -0.00004
7.2 -0.00008
7.25 -0.00011
7.3 -0.00009
7.35 -0.00001
7.4 -0
7.45 0.00004
7.5 0.00005
7.55 0.00005
7.6 0.00006
7.65 0.00008
7.7 0.00004
7.75 0.00003
7.8 0.00002
7.85 0.00008
7.9 0.00017
7.95 0.00024
8 0.00029
8.05 0.00036
8.1 0.00038
8.15 0.00032
8.2 0.00027
8.25 0.00016
8.3 0.00004
8.35 -0.00004
8.4 -0.00005
8.45 -0.0001
8.5 -0.00008
8.55 -0.0001
8.6 -0.00016
8.65 -0.00019
8.7 -0.00017
8.75 -0.0001
8.8 -0.00008
8.85 -0.00009
8.9 -0.00012
8.95 -0.00011
9 -0.00013
9.05 -0.00016
9.1 -0.00021
9.15 -0.00017
9.2 -0.00006
9.25 0.00004
9.3 0.00006
9.35 0.00003
9.4 0.00003
9.45 0.00004
9.5 0.00003
9.55 0.00006
9.6 0.00007
9.65 0.00004
9.7 0.00003
9.75 0.00005
9.8 0.00002
9.85 0.00003
9.9 0.00008
9.95 0.00015
10 0.0002
10.05 0.00022
10.1 0.00021
10.15 0.00023
10.2 0.00025
10.25 0.00021
10.3 0.00017
10.35 0.00012
10.4 0.00012
10.45 0.00016
10.5 0.00016
10.55 0.0001
10.6 0.00006
10.65 0.00006
10.7 0.00007
10.75 0.00012
10.8 0.00011
10.85 0.00011
10.9 0.00011
10.95 0.00017
11 0.00021
11.05 0.00022
11.1 0.00018
11.15 0.00019
11.2 0.0002
11.25 0.0002
11.3 0.00018
11.35 0.00015
11.4 0.00008
11.45 0.00002
11.5 0.00001
11.55 -0.00006
11.6 -0.00011
11.65 -0.00011
11.7 -0.00007
11.75 -0.00003
11.8 0.00005
11.85 0.00013
11.9 0.0002
11.95 0.00023
12 0.0002
12.05 0.00013
12.1 0.00009
12.15 0.00008
12.2 0.00006
12.25 0.00005
12.3 0.00001
12.35 -0.00004
12.4 -0.00007
12.45 -0.00008
12.5 -0.0001
12.55 -0.00014
12.6 -0.00018
12.65 -0.00014
12.7 -0.00015
12.75 -0.00016
12.8 -0.00012
12.85 -0.00009
12.9 -0.00011
12.95 -0.00008
13 -0
13.05 0.00001
13.1 0.00006
13.15 0.00007
13.2 0.00008
13.25 0.00008
13.3 0.0001
13.35 0.00016
13.4 0.00019
13.45 0.00019
13.5 0.00022
13.55 0.00026
13.6 0.00029
13.65 0.00032
13.7 0.00034
13.75 0.00037
13.8 0.00036
13.85 0.00036
13.9 0.00035
13.95 0.00036
14 0.00031
14.05 0.00029
14.1 0.0002
14.15 0.00011
14.2 0.00006
14.25 -0.00004
14.3 -0.00008
14.35 -0.00011
14.4 -0.0001
14.45 -0.00013
14.5 -0.00018
14.55 -0.00019
14.6 -0.00024
14.65 -0.00027
14.7 -0.00029
14.75 -0.00031
14.8 -0.00035
14.85 -0.00035
14.9 -0.00028
14.95 -0.00018
15 -0.00015
15.05 -0.00017
15.1 -0.00017
15.15 -0.00018
15.2 -0.00018
15.25 -0.0002
15.3 -0.00023
15.35 -0.00023
15.4 -0.00017
15.45 -0.00008
15.5 0
15.55 0.00006
15.6 0.00006
15.65 0.00002
15.7 -0.00005
15.75 -0.00006
15.8 -0.00006
15.85 -0.00005
15.9 -0.00005
15.95 -0.00005
16 -0.00009
16.05 -0.00016
16.1 -0.00017
16.15 -0.00013
16.2 -0.00008
16.25 -0.00001
16.3 -0.00003
16.35 -0.00007
16.4 -0.00015
16.45 -0.00015
16.5 -0.00014
16.55 -0.00016
16.6 -0.00015
16.65 -0.00008
16.7 -0.00009
16.75 -0.00011
16.8 -0.00013
16.85 -0.00011
16.9 -0.00007
16.95 -0.00004
17 0
17.05 0.00004
17.1 0.00012
17.15 0.00016
17.2 0.00016
17.25 0.00017
17.3 0.00015
17.35 0.00013
17.4 0.00014
17.45 0.00012
17.5 0.0001
17.55 0.00005
17.6 -0.00002
17.65 -0.00006
17.7 -0.0001
17.75 -0.00008
17.8 -0.00007
17.85 -0.00005
17.9 -0.00002
17.95 -0
18 0.00003
18.05 0.00003
18.1 0.00001
18.15 -0.00006
18.2 -0.00007
18.25 -0.00009
18.3 -0.00012
18.35 -0.00009
18.4 -0.00009
18.45 -0.00003
18.5 -0.00004
18.55 -0.00003
18.6 0.00001
18.65 0.00009
18.7 0.00008
18.75 0.00012
18.8 0.00015
18.85 0.00016
18.9 0.00012
18.95 0.00012
19 0.00011
19.05 0.00009
19.1 0.00003
19.15 0.00002
19.2 -0.00003
19.25 -0.0001
19.3 -0.00017
19.35 -0.00015
19.4 -0.00011
19.45 -0.00012
19.5 -0.00012
19.55 -0.00013
19.6 -0.00008
19.65 0
19.7 0.00002
19.75 0.00002
19.8 0.00001
19.85 -0.00005
19.9 -0.00006
19.95 -0.00002
20 0.00001
20.05 0.00005
20.1 0.00009
20.15 0.00011
20.2 0.00013
20.25 0.00015
20.3 0.0002
20.35 0.00026
20.4 0.00029
20.45 0.00025
20.5 0.0002
20.55 0.00019
20.6 0.0002
20.65 0.00015
20.7 0.00015
20.75 0.00015
20.8 0.00012
20.85 0.00004
20.9 -0.00006
20.95 -0.00013
21 -0.00013
21.05 -0.00007
21.1 -0.00007
21.15 -0.00011
21.2 -0.00012
21.25 -0.00015
21.3 -0.00012
21.35 -0.00014
21.4 -0.00015
21.45 -0.00012
21.5 -0.00014
21.55 -0.00015
21.6 -0.00017
21.65 -0.00015
21.7 -0.00009
21.75 -0.00002
21.8 -0.00001
21.85 0.00004
21.9 0.00003
21.95 0.00007
22 0.00006
22.05 0.00003
22.1 0.00006
22.15 0.00003
22.2 -0.00004
22.25 -0.00013
22.3 -0.00017
22.35 -0.00014
22.4 -0.00008
22.45 -0.00005
22.5 -0.00006
22.55 -0.00003
22.6 -0.00006
22.65 -0.00007
22.7 -0.00011
22.75 -0.00018
22.8 -0.00024
22.85 -0.00028
22.9 -0.00023
22.95 -0.00014
23 -0.0001
23.05 -0.00012
23.1 -0.00012
23.15 -0.0001
23.2 -0.00006
23.25 -0.00008
23.3 -0.00004
23.35 0.00004
23.4 0.00008
23.45 0.0001
23.5 0.00012
23.55 0.00011
23.6 0.00007
23.65 0.00001
23.7 -0.00003
23.75 -0.00005
23.8 -0.00005
23.85 -0.00005
23.9 -0.00009
23.95 -0.0001
24 -0.00011
24.05 -0.00014
24.1 -0.00017
24.15 -0.00016
24.2 -0.00019
24.25 -0.0002
24.3 -0.00015
24.35 -0.00013
24.4 -0.00016
24.45 -0.00018
24.5 -0.00021
24.55 -0.00018
24.6 -0.00018
24.65 -0.00019
24.7 -0.00021
24.75 -0.00022
24.8 -0.00019
24.85 -0.0001
24.9 -0.00005
24.95 0.00004
25 0.00008
25.05 0.00008
25.1 0.00007
25.15 0.00011
25.2 0.00008
25.25 0.00011
25.3 0.0001
25.35 0.00004
25.4 0.00001
25.45 -0.00003
25.5 -0.00003
25.55 -0.00007
25.6 -0.00009
25.65 -0.00014
25.7 -0.00016
25.75 -0.00017
25.8 -0.00014
25.85 -0.00013
25.9 -0.00006
25.95 0.00004
26 0.00013
26.05 0.00024
26.1 0.0003
26.15 0.00028
26.2 0.00027
26.25 0.00022
26.3 0.00012
26.35 0.0001
26.4 0.00013
26.45 0.00015
26.5 0.00017
26.55 0.00023
26.6 0.0002
26.65 0.00022
26.7 0.00021
26.75 0.00016
26.8 0.00012
26.85 0.00007
26.9 -0.00001
26.95 -0.00005
27 -0.00004
27.05 0.00002
27.1 0.00008
27.15 0.00008
27.2 0.00012
27.25 0.00013
27.3 0.00009
27.35 0.00006
27.4 -0.00002
27.45 -0.00008
27.5 -0.00011
27.55 -0.00018
27.6 -0.00015
27.65 -0.00014
27.7 -0.00013
27.75 -0.00016
27.8 -0.00014
27.85 -0.00013
27.9 -0.0001
27.95 -0.00003
28 0.00003
28.05 0.0001
28.1 0.0001
28.15 0.00014
28.2 0.0001
28.25 0.00005
28.3 -0.00003
28.35 -0.00002
28.4 -0.00001
28.45 -0.00005
28.5 -0.0001
28.55 -0.00017
28.6 -0.00016
28.65 -0.0001
28.7 -0.00008
28.75 -0.00006
28.8 -0
28.85 -0.00001
28.9 0.00005
28.95 0.00008
29 0.00015
29.05 0.00023
29.1 0.0003
29.15 0.00027
29.2 0.0002
29.25 0.00017
29.3 0.0001
29.35 0.00001
29.4 -0.00004
29.45 -0.00007
29.5 -0.00012
29.55 -0.00011
29.6 -0.00003
29.65 0.00002
29.7 0.00003
29.75 0.00005
29.8 0.00008
29.85 0.00008
29.9 0.00009
29.95 0.00013
30 0.00016
30.05 0.00012
30.1 0.00003
30.15 -0.00006
30.2 -0.00012
30.25 -0.00015
30.3 -0.00015
30.35 -0.00019
30.4 -0.0002
30.45 -0.00015
30.5 -0.00006
30.55 0.00006
30.6 0.00012
30.65 0.00016
30.7 0.00014
30.75 0.00013
30.8 0.00005
30.85 -0.00005
30.9 -0.00014
30.95 -0.00016
31 -0.00021
31.05 -0.00022
31.1 -0.00021
31.15 -0.00021
31.2 -0.00022
31.25 -0.00021
31.3 -0.00016
31.35 -0.00016
31.4 -0.00012
31.45 -0.00013
31.5 -0.0001
31.55 -0.00005
31.6 -0.00004
31.65 -0.00008
31.7 -0.00012
31.75 -0.00012
31.8 -0.00013
31.85 -0.00013
31.9 -0.00012
31.95 -0.00016
32 -0.00013
32.05 -0.00005
32.1 -0.00001
32.15 -0.00003
32.2 0
32.25 0.00001
32.3 0.00004
32.35 0.00004
32.4 0.00004
32.45 0.00006
32.5 0.00011
32.55 0.00009
32.6 0.00004
32.65 -0.00003
32.7 -0.00011
32.75 -0.00016
32.8 -0.00022
32.85 -0.00025
32.9 -0.00022
32.95 -0.00017
33 -0.00013
33.05 -0.00005
33.1 0.00004
33.15 0.00014
33.2 0.00023
33.25 0.00028
33.3 0.00031
33.35 0.00032
33.4 0.00031
33.45 0.00032
33.5 0.00034
33.55 0.00037
33.6 0.00034
33.65 0.00029
33.7 0.00023
33.75 0.0002
33.8 0.00023
33.85 0.00025
33.9 0.00025
33.95 0.00026
34 0.0003
34.05 0.00032
34.1 0.00029
34.15 0.00024
34.2 0.00013
34.25 0.00009
34.3 0.00006
34.35 0.00009
34.4 0.00004
34.45 -0.00004
34.5 -0.00012
34.55 -0.00011
34.6 -0.00013
34.65 -0.00018
34.7 -0.00024
34.75 -0.00023
34.8 -0.00018
34.85 -0.00017
34.9 -0.00014
34.95 -0.00012
35 -0.00015
35.05 -0.0002
35.1 -0.00026
35.15 -0.00033
35.2 -0.00038
35.25 -0.00046
35.3 -0.00053
35.35 -0.00067
35.4 -0.00086
35.45 -0.00107
35.5 -0.00139
35.55 -0.00174
35.6 -0.00213
35.65 -0.0026
35.7 -0.00316
35.75 -0.00376
35.8 -0.00448
35.85 -0.00534
35.9 -0.00625
35.95 -0.00721
36 -0.00832
36.05 -0.00958
36.1 -0.01101
36.15 -0.01259
36.2 -0.01426
36.25 -0.01598
36.3 -0.01778
36.35 -0.01968
36.4 -0.02155
36.45 -0.02346
36.5 -0.02534
36.55 -0.02726
36.6 -0.02912
36.65 -0.0309
36.7 -0.03244
36.75 -0.03382
36.8 -0.03487
36.85 -0.03558
36.9 -0.03587
36.95 -0.03569
37 -0.03502
37.05 -0.03394
37.1 -0.03234
37.15 -0.03018
37.2 -0.02744
37.25 -0.02416
37.3 -0.02035
37.35 -0.01599
37.4 -0.01115
37.45 -0.00593
37.5 -0.0004
37.55 0.00535
37.6 0.01124
37.65 0.01714
37.7 0.02294
37.75 0.02854
37.8 0.03374
37.85 0.03844
37.9 0.04256
37.95 0.04597
38 0.0486
38.05 0.05041
38.1 0.05127
38.15 0.05116
38.2 0.05013
38.25 0.04817
38.3 0.04543
38.35 0.04194
38.4 0.03775
38.45 0.03294
38.5 0.0276
38.55 0.02196
38.6 0.01611
38.65 0.01012
38.7 0.00418
38.75 -0.00156
38.8 -0.00705
38.85 -0.01212
38.9 -0.01675
38.95 -0.02077
39 -0.02415
39.05 -0.02691
39.1 -0.02897
39.15 -0.03028
39.2 -0.0308
39.25 -0.03063
39.3 -0.02984
39.35 -0.02844
39.4 -0.0265
39.45 -0.02405
39.5 -0.02125
39.55 -0.01807
39.6 -0.01461
39.65 -0.01093
39.7 -0.00724
39.75 -0.00354
39.8 0.00014
39.85 0.00374
39.9 0.00716
39.95 0.01041
40 0.01342
40.05 0.01619
40.1 0.01861
40.15 0.02072
40.2 0.02253
40.25 0.02405
40.3 0.02524
40.35 0.0261
40.4 0.02669
40.45 0.02702
40.5 0.02713
40.55 0.02696
40.6 0.02656
40.65 0.02601
40.7 0.02524
40.75 0.02436
40.8 0.02337
40.85 0.02223
40.9 0.02102
40.95 0.0198
41 0.01852
41.05 0.01721
41.1 0.01591
41.15 0.01459
41.2 0.01328
41.25 0.01201
41.3 0.0108
41.35 0.00961
41.4 0.00849
41.45 0.00747
41.5 0.00646
41.55 0.00552
41.6 0.00468
41.65 0.0039
41.7 0.00324
41.75 0.00263
41.8 0.00206
41.85 0.00159
41.9 0.00113
41.95 0.00067
42 0.00027
42.05 -0.00007
42.1 -0.00041
42.15 -0.00068
42.2 -0.00093
42.25 -0.00107
42.3 -0.00117
42.35 -0.00122
42.4 -0.00124
42.45 -0.00124
42.5 -0.00121
42.55 -0.00123
42.6 -0.00126
42.65 -0.0013
42.7 -0.00129
42.75 -0.00126
42.8 -0.00122
42.85 -0.00123
42.9 -0.00125
42.95 -0.00119
43 -0.00117
43.05 -0.00108
43.1 -0.00099
43.15 -0.00097
43.2 -0.00094
43.25 -0.00097
43.3 -0.00103
43.35 -0.00104
43.4 -0.00103
43.45 -0.001
43.5 -0.00097
43.55 -0.00101
43.6 -0.00108
43.65 -0.00109
43.7 -0.00112
43.75 -0.00113
43.8 -0.00117
43.85 -0.00116
43.9 -0.0012
43.95 -0.00119
44 -0.00125
44.05 -0.00133
44.1 -0.00138
44.15 -0.00142
44.2 -0.00152
44.25 -0.00163
44.3 -0.00169
44.35 -0.00175
44.4 -0.00179
44.45 -0.0018
44.5 -0.00179
44.55 -0.00183
44.6 -0.00188
44.65 -0.00195
44.7 -0.00203
44.75 -0.00211
44.8 -0.00217
44.85 -0.00218
44.9 -0.00224
44.95 -0.00227
45 -0.0023
45.05 -0.00235
45.1 -0.00232
45.15 -0.00227
45.2 -0.00224
45.25 -0.00217
45.3 -0.00212
45.35 -0.00212
45.4 -0.00209
45.45 -0.00213
45.5 -0.00221
45.55 -0.00223
45.6 -0.00226
45.65 -0.00225
45.7 -0.00226
45.75 -0.0023
45.8 -0.00234
45.85 -0.00239
45.9 -0.00242
45.95 -0.00245
46 -0.00241
46.05 -0.00231
46.1 -0.00216
46.15 -0.00206
46.2 -0.00192
46.25 -0.00187
46.3 -0.0018
46.35 -0.00177
46.4 -0.00177
46.45 -0.00174
46.5 -0.00171
46.55 -0.00173
46.6 -0.00177
46.65 -0.00182
46.7 -0.00186
46.75 -0.00191
46.8 -0.00191
46.85 -0.00188
46.9 -0.00177
46.95 -0.00171
47 -0.00163
47.05 -0.00155
47.1 -0.00153
47.15 -0.00153
47.2 -0.00156
47.25 -0.00151
47.3 -0.00151
47.35 -0.00145
47.4 -0.00141
47.45 -0.00141
47.5 -0.00144
47.55 -0.00147
47.6 -0.00144
47.65 -0.00136
47.7 -0.00133
47.75 -0.00127
47.8 -0.0012
47.85 -0.00111
47.9 -0.00109
47.95 -0.00106
48 -0.00104
48.05 -0.00101
48.1 -0.00096
48.15 -0.00089
48.2 -0.00085
48.25 -0.0008
48.3 -0.00077
48.35 -0.00076
48.4 -0.0008
48.45 -0.00086
48.5 -0.00094
48.55 -0.00097
48.6 -0.001
48.65 -0.00106
48.7 -0.00113
48.75 -0.00117
48.8 -0.00111
48.85 -0.00109
48.9 -0.00102
48.95 -0.00097
49 -0.00097
49.05 -0.00095
49.1 -0.00097
49.15 -0.00092
49.2 -0.00086
49.25 -0.00085
49.3 -0.00087
49.35 -0.0009
49.4 -0.00091
49.45 -0.00094
49.5 -0.00096
49.55 -0.00096
49.6 -0.00092
49.65 -0.00091
49.7 -0.00085
49.75 -0.00084
49.8 -0.00081
49.85 -0.00075
49.9 -0.00065
49.95 -0.00057
50 -0.00048
50.05 -0.00048
50.1 -0.00047
50.15 -0.00052
50.2 -0.00058
50.25 -0.00056
50.3 -0.0005
50.35 -0.00052
50.4 -0.00055
50.45 -0.0006
50.5 -0.0006
50.55 -0.00061
50.6 -0.00061
50.65 -0.00054
50.7 -0.00052
50.75 -0.00052
50.8 -0.00046
50.85 -0.00041
50.9 -0.0004
50.95 -0.00044
51 -0.00045
51.05 -0.00044
51.1 -0.00046
51.15 -0.00044
51.2 -0.00047
51.25 -0.00043
51.3 -0.00045
51.35 -0.0005
51.4 -0.00057
51.45 -0.00061
51.5 -0.00062
51.55 -0.00059
51.6 -0.00057
51.65 -0.00057
51.7 -0.00053
51.75 -0.00043
51.8 -0.00038
51.85 -0.00033
51.9 -0.00028
51.95 -0.00027
52 -0.00022
52.05 -0.00018
52.1 -0.00012
52.15 -0.00013
52.2 -0.00017
52.25 -0.00023
52.3 -0.00028
52.35 -0.00032
52.4 -0.00031
52.45 -0.00028
52.5 -0.00019
52.55 -0.00015
52.6 -0.00009
52.65 -0.0001
52.7 -0.00008
52.75 -0.00011
52.8 -0.0001
52.85 -0.00009
52.9 -0.00012
52.95 -0.00017
53 -0.00025
53.05 -0.00027
53.1 -0.00031
53.15 -0.00031
53.2 -0.00036
53.25 -0.00034
53.3 -0.00032
53.35 -0.00024
53.4 -0.00017
53.45 -0.00014
53.5 -0.00012
53.55 -0.00008
53.6 -0.00003
53.65 -0
53.7 0
53.75 0
53.8 0.00003
53.85 0.00006
53.9 0.00003
53.95 0.00005
54 -0
54.05 -0.00006
54.1 -0.00008
54.15 -0.00014
54.2 -0.00019
54.25 -0.00024
54.3 -0.00026
54.35 -0.00026
54.4 -0.00027
54.45 -0.00024
54.5 -0.00019
54.55 -0.00016
54.6 -0.00015
54.65 -0.0001
54.7 -0.00003
54.75 0.00004
54.8 0.00002
54.85 0
54.9 -0.00006
54.95 -0.00015
55 -0.0002
55.05 -0.00026
55.1 -0.00033
55.15 -0.00041
55.2 -0.00047
55.25 -0.00052
55.3 -0.00048
55.35 -0.00037
55.4 -0.00032
55.45 -0.00028
55.5 -0.0002
55.55 -0.00016
55.6 -0.00008
55.65 -0.00005
55.7 -0.00007
55.75 -0.00006
55.8 -0.00009
55.85 -0.0001
55.9 -0.00007
55.95 -0.00002
56 0
56.05 -0.00004
56.1 -0.0001
56.15 -0.00009
56.2 -0.00008
56.25 -0.00003
56.3 0.00005
56.35 0.00006
56.4 0.0001
56.45 0.00009
56.5 0.00005
56.55 0.00003
56.6 0.00001
56.65 0.00001
56.7 0.00004
56.75 0.00006
56.8 0.00009
56.85 0.00012
56.9 0.00007
56.95 -0.00001
57 -0.00003
57.05 -0.00001
57.1 0.00004
57.15 0.00011
57.2 0.00008
57.25 -0
57.3 -0.00011
57.35 -0.00012
57.4 -0.00008
57.45 -0.00004
57.5 -0.00005
57.55 -0.00005
57.6 -0.00007
57.65 -0.00008
57.7 -0.00005
57.75 -0.00006
57.8 -0.00009
57.85 -0.00016
57.9 -0.00024
57.95 -0.00033
58 -0.00031
58.05 -0.00032
58.1 -0.00027
58.15 -0.00021
58.2 -0.00013
58.25 -0.0001
58.3 -0.00004
58.35 -0.00002
58.4 0.00004
58.45 0.00012
58.5 0.0001
58.55 0.00005
58.6 0.00006
58.65 0.00002
58.7 0.00003
58.75 0.00003
58.8 0.00004
58.85 0
58.9 0.00003
58.95 0.00006
59 0.00006
59.05 -0.00001
59.1 -0.00006
59.15 -0.00013
59.2 -0.0002
59.25 -0.00024
59.3 -0.00027
59.35 -0.00021
59.4 -0.00021
59.45 -0.00014
59.5 -0.00013
59.55 -0.00013
59.6 -0.00008
59.65 -0.00003
59.7 0.00003
59.75 0.00007
59.8 0.0001
59.85 0.00012
59.9 0.00015
59.95 0.00016
60 0.00013
60.05 0.00007
60.1 0.00007
60.15 0.00006
60.2 0.00001
60.25 -0.00002
60.3 -0.00001
60.35 -0.00003
60.4 -0.00004
60.45 -0.00001
60.5 0.00006
60.55 0.00005
60.6 -0.00001
60.65 -0.00009
60.7 -0.00009
60.75 -0.00014
60.8 -0.00012
60.85 -0.00005
60.9 -0.00001
60.95 -0.00001
61 0.00004
61.05 0.00006
61.1 0.0001
61.15 0.00013
61.2 0.00012
61.25 0.00005
61.3 -0.00003
61.35 -0.00002
61.4 -0.00004
61.45 -0.00004
61.5 -0.00007
61.55 -0.00013
61.6 -0.00016
61.65 -0.00015
61.7 -0.00018
61.75 -0.00018
61.8 -0.00016
61.85 -0.00019
61.9 -0.00022
61.95 -0.00019
62 -0.00019
62.05 -0.00015
62.1 -0.0001
62.15 -0.00007
62.2 -0.00008
62.25 -0.0001
62.3 -0.00005
62.35 0.00001
62.4 0.00005
62.45 0.00002
62.5 -0.00002
62.55 0.00001
62.6 -0.00002
62.65 0.00001
62.7 0.00009
62.75 0.00009
62.8 0.00004
62.85 -0.00001
62.9 -0.00001
62.95 0.00002
63 0.00007
63.05 0.00014
63.1 0.00022
63.15 0.00021
63.2 0.00015
63.25 0.00014
63.3 0.00015
63.35 0.00012
63.4 0.00011
63.45 0.00015
63.5 0.00019
63.55 0.0002
63.6 0.00019
63.65 0.00011
63.7 0.00005
63.75 0.00003
63.8 0.00008
63.85 0.0001
63.9 0.00013
63.95 0.0001
64 0.00009
64.05 0.00012
64.1 0.00018
64.15 0.00023
64.2 0.00026
64.25 0.0002
64.3 0.00014
64.35 0.00012
64.4 0.00008
64.45 0.00007
64.5 0.00009
64.55 0.0001
64.6 0.00008
64.65 0.00011
64.7 0.0001
64.75 0.00013
64.8 0.00017
64.85 0.00013
64.9 0.00006
64.95 -0.00005
65 -0.00016
65.05 -0.00017
65.1 -0.00016
65.15 -0.00015
65.2 -0.00019
65.25 -0.00015
65.3 -0.00014
65.35 -0.00013
65.4 -0.00005
65.45 -0
65.5 -0.00001
65.55 -0.00002
65.6 -0.00004
65.65 -0.00004
65.7 -0.00003
65.75 0.00003
65.8 0.00009
65.85 0.00017
65.9 0.00018
65.95 0.00016
66 0.0001
66.05 0.00008
66.1 0.00011
66.15 0.00013
66.2 0.00019
66.25 0.00016
66.3 0.00007
66.35 -0.00003
66.4 -0.00013
66.45 -0.00018
66.5 -0.00025
66.55 -0.0003
66.6 -0.00036
66.65 -0.00035
66.7 -0.00033
66.75 -0.00033
66.8 -0.00028
66.85 -0.00023
66.9 -0.00016
66.95 -0.00014
67 -0.00012
67.05 -0.00015
67.1 -0.00018
67.15 -0.00024
67.2 -0.00029
67.25 -0.00026
67.3 -0.00028
67.35 -0.00029
67.4 -0.00032
67.45 -0.00031
67.5 -0.00026
67.55 -0.00021
67.6 -0.00019
67.65 -0.00016
67.7 -0.00008
67.75 0.00002
67.8 0.00008
67.85 0.00011
67.9 0.00009
67.95 0.00011
68 0.00014
68.05 0.00015
68.1 0.00011
68.15 0.0001
68.2 0.00015
68.25 0.00017
68.3 0.0002
68.35 0.00017
68.4 0.0001
68.45 0.00009
68.5 0.00008
68.55 0.0001
68.6 0.00011
68.65 0.00015
68.7 0.00013
68.75 0.00014
68.8 0.0001
68.85 0.00012
68.9 0.00009
68.95 0.00009
69 0.00011
69.05 0.00006
69.1 -0.00004
69.15 -0.00014
69.2 -0.00018
69.25 -0.00023
69.3 -0.00029
69.35 -0.00026
69.4 -0.00018
69.45 -0.00016
69.5 -0.00016
69.55 -0.00011
69.6 -0.00012
69.65 -0.0001
69.7 -0.00008
69.75 -0.00012
69.8 -0.0001
69.85 -0.00003
69.9 0.00001
69.95 0.00004
70 0.00004
70.05 -0
70.1 -0.00006
70.15 -0.00008
70.2 -0.00008
70.25 -0.00001
70.3 0.00007
70.35 0.00009
70.4 0.00004
70.45 -0.00003
70.5 -0.0001
70.55 -0.00013
70.6 -0.00012
70.65 -0.00014
70.7 -0.00014
70.75 -0.00008
70.8 -0.00003
70.85 0.00002
70.9 0.00007
70.95 0.00011
71 0.00016
71.05 0.00021
71.1 0.00021
71.15 0.00021
71.2 0.00023
71.25 0.00027
71.3 0.00033
71.35 0.00036
71.4 0.0004
71.45 0.00036
71.5 0.00034
71.55 0.00029
71.6 0.00026
71.65 0.00016
71.7 0.00009
71.75 0
71.8 -0.00011
71.85 -0.00021
71.9 -0.00031
71.95 -0.00037
72 -0.00043
72.05 -0.00047
72.1 -0.00044
72.15 -0.00034
72.2 -0.00028
72.25 -0.00019
72.3 -0.00007
72.35 -0.00003
72.4 -0.00002
72.45 0.00004
72.5 0.00007
72.55 0.00004
72.6 0.00007
72.65 0.00004
72.7 0.00007
72.75 0.00012
72.8 0.0001
72.85 0.00011
72.9 0.00015
72.95 0.00018
73 0.00014
73.05 0.00011
73.1 0.00009
73.15 0.00011
73.2 0.00014
73.25 0.00013
73.3 0.00008
73.35 0.00009
73.4 0.00003
73.45 -0.00001
73.5 -0.00004
73.55 -0.00007
73.6 -0.00006
73.65 -0.00002
73.7 -0.00001
73.75 0.00002
73.8 0.00008
73.85 0.00008
73.9 0.00012
73.95 0.00016
74 0.00014
74.05 0.00011
74.1 0.00013
74.15 0.0001
74.2 0.00008
74.25 0.00004
74.3 -0.00003
74.35 -0.00012
74.4 -0.00012
74.45 -0.0001
74.5 -0.00006
74.55 -0.00008
74.6 -0.00004
74.65 -0.00005
74.7 -0.00009
74.75 -0.00012
74.8 -0.00007
74.85 -0.00008
74.9 -0.0001
74.95 -0.00011
75 -0.00015
75.05 -0.00014
75.1 -0.00006
75.15 -0.00006
75.2 -0.00011
75.25 -0.00008
75.3 0
75.35 0.0001
75.4 0.00012
75.45 0.00013
75.5 0.00016
75.55 0.00013
75.6 0.00012
75.65 0.00005
75.7 0.00002
75.75 0.00001
75.8 0.00002
75.85 0.00007
75.9 0.00014
75.95 0.00015
76 0.0001
76.05 0.00004
76.1 0.00002
76.15 -0
76.2 -0.00004
76.25 -0.00007
76.3 -0.00011
76.35 -0.00011
76.4 -0.00013
76.45 -0.0001
76.5 -0.00013
76.55 -0.0001
76.6 -0.00011
76.65 -0.00008
76.7 -0.00006
76.75 0.00001
76.8 0.00001
76.85 -0
76.9 -0.00007
76.95 -0.0001
77 -0.00015
77.05 -0.00013
77.1 -0.0001
77.15 -0.00005
77.2 -0.00004
77.25 -0.00008
77.3 -0.0001
77.35 -0.00013
77.4 -0.00018
77.45 -0.00019
77.5 -0.00023
77.55 -0.00018
77.6 -0.00013
77.65 -0.00004
77.7 0.00006
77.75 0.00014
77.8 0.00018
77.85 0.00015
77.9 0.00007
77.95 -0.00001
78 -0.00006
78.05 -0.00012
78.1 -0.00013
78.15 -0.00018
78.2 -0.00016
78.25 -0.00011
78.3 -0.0001
78.35 -0.00009
78.4 -0.00013
78.45 -0.00014
78.5 -0.00012
78.55 -0.00009
78.6 -0.00002
78.65 0.00005
78.7 0.00005
78.75 0.00008
78.8 0.00006
78.85 0.00009
78.9 0.00014
78.95 0.00019
79 0.00022
79.05 0.00016
79.1 0.00012
79.15 0.00009
79.2 0.00011
79.25 0.00013
79.3 0.00008
79.35 0.00007
79.4 0.00004
79.45 0.00005
79.5 0.00006
79.55 0.00004
79.6 0.00002
79.65 0.00003
79.7 0.00005
79.75 0.00004
79.8 0.00001
79.85 -0.00003
79.9 -0.00006
79.95 -0.00012
80 -0.00011
80.05 -0.00007
80.1 -0.00004
80.15 -0.00001
80.2 0.00002
80.25 0.00003
80.3 0.00004
80.35 0.00003
80.4 0.00002
80.45 0.00006
80.5 0.00005
80.55 0.00004
80.6 0.00003
80.65 0.00003
80.7 0.00002
80.75 -0.00002
80.8 -0.00001
80.85 -0.00004
80.9 -0.00005
80.95 -0.00003
81 -0
81.05 0.00003
81.1 -0.00001
81.15 -0.00005
81.2 -0.00008
81.25 -0.00008
81.3 -0.00003
81.35 0.00005
81.4 0.00015
81.45 0.00015
81.5 0.00016
81.55 0.00012
81.6 0.00007
81.65 0.00007
81.7 0.00004
81.75 0.00006
81.8 0.00004
81.85 -0
81.9 -0
81.95 -0.00006
82 -0.00015
82.05 -0.00018
82.1 -0.00017
82.15 -0.0002
82.2 -0.00023
82.25 -0.00021
82.3 -0.00016
82.35 -0.00008
82.4 0.00002
82.45 0.00012
82.5 0.00014
82.55 0.0001
82.6 0.00009
82.65 0.00008
82.7 0.00007
82.75 0.00008
82.8 0.00007
82.85 0.00008
82.9 0.00002
82.95 -0.00005
83 -0.00005
83.05 -0.0001
83.1 -0.00014
83.15 -0.0002
83.2 -0.0002
83.25 -0.00017
83.3 -0.00018
83.35 -0.00022
83.4 -0.00018
83.45 -0.00014
83.5 -0.00009
83.55 -0.00001
83.6 0.00003
83.65 0.00007
83.7 0.00005
83.75 -0.00003
83.8 -0.00006
83.85 -0.00004
83.9 -0.00004
83.95 -0.00004
84 -0.00001
84.05 0.00003
84.1 0.00005
84.15 0.00008
84.2 0.00005
84.25 0.00005
84.3 0.00003
84.35 0.00007
84.4 0.00007
84.45 0.00012
84.5 0.00015
84.55 0.00019
84.6 0.00022
84.65 0.00017
84.7 0.00009
84.75 0.00005
84.8 0.00006
84.85 0.00004
84.9 0.00004
84.95 0.00001
85 -0
85.05 0.00002
85.1 0.00006
85.15 0.00011
85.2 0.00009
85.25 0.00003
85.3 -0.00001
85.35 -0.00002
85.4 -0.00005
85.45 -0.00011
85.5 -0.00017
85.55 -0.00024
85.6 -0.00027
85.65 -0.00028
85.7 -0.0003
85.75 -0.00026
85.8 -0.0002
85.85 -0.00014
85.9 -0.00012
85.95 -0.0001
86 -0.00011
86.05 -0.00011
86.1 -0.00009
86.15 -0.00005
86.2 -0.00001
86.25 0.00002
86.3 0.00008
86.35 0.00012
86.4 0.00013
86.45 0.00008
86.5 0.00007
86.55 0.00005
86.6 0.00003
86.65 0.00003
86.7 -0.00002
86.75 -0.00005
86.8 -0.00006
86.85 -0.00007
86.9 -0.00005
86.95 -0
87 0.00004
87.05 0.00003
87.1 0.00003
87.15 0.00001
87.2 0.00002
87.25 -0.00002
87.3 -0.00004
87.35 -0.00004
87.4 -0.00009
87.45 -0.00015
87.5 -0.0002
87.55 -0.00023
87.6 -0.00026
87.65 -0.00023
87.7 -0.0002
87.75 -0.00021
87.8 -0.00025
87.85 -0.0002
87.9 -0.00018
87.95 -0.00018
88 -0.00019
88.05 -0.00015
88.1 -0.00007
88.15 0.00005
88.2 0.0001
88.25 0.00018
88.3 0.00024
88.35 0.0002
88.4 0.00016
88.45 0.00011
88.5 0.00009
88.55 0.00005
88.6 0.00007
88.65 0.00011
88.7 0.00012
88.75 0.00017
88.8 0.00015
88.85 0.00015
88.9 0.00009
88.95 0
89 -0.00005
89.05 -0.00012
89.1 -0.00016
89.15 -0.00016
89.2 -0.00014
89.25 -0.00008
89.3 -0.00005
89.35 -0.00007
89.4 -0.00008
89.45 -0.00005
89.5 0.00001
89.55 0.00011
89.6 0.00017
89.65 0.00017
89.7 0.00013
89.75 0.00007
89.8 -0.00002
89.85 -0.0001
89.9 -0.00012
89.95 -0.00015
90 -0.00017
90.05 -0.00019
90.1 -0.0002
90.15 -0.00022
90.2 -0.00022
90.25 -0.00016
90.3 -0.00008
90.35 0.00001
90.4 0.00004
90.45 0.0001
90.5 0.00018
90.55 0.00024
90.6 0.00029
90.65 0.0003
90.7 0.00028
90.75 0.0003
90.8 0.00031
90.85 0.00028
90.9 0.00028
90.95 0.00022
91 0.00011
91.05 0.00004
91.1 0.00004
91.15 0
91.2 -0.00004
91.25 -0.00003
91.3 -0
91.35 0.00004
91.4 0.00003
91.45 0.00003
91.5 0.00002
91.55 0.00003
91.6 0.00004
91.65 0.00002
91.7 0.00006
91.75 0.00006
91.8 0.00004
91.85 0.00003
91.9 -0.00001
91.95 -0.00002
92 -0.00003
92.05 -0.00009
92.1 -0.00011
92.15 -0.00015
92.2 -0.00013
92.25 -0.00006
92.3 -0.00002
92.35 0.00004
92.4 0.00009
92.45 0.00011
92.5 0.00013
92.55 0.00017
92.6 0.00019
92.65 0.00016
92.7 0.00015
92.75 0.00018
92.8 0.00016
92.85 0.00015
92.9 0.00017
92.95 0.00018
93 0.0002
93.05 0.00019
93.1 0.00014
93.15 0.00012
93.2 0.00008
93.25 0.00009
93.3 0.00008
93.35 0.00009
93.4 0.00007
93.45 0.00008
93.5 0.00007
93.55 0.00001
93.6 -0.00009
93.65 -0.00018
93.7 -0.00018
93.75 -0.0002
93.8 -0.00017
93.85 -0.0001
93.9 -0.00006
93.95 -0.00005
94 -0.00008
94.05 -0.00005
94.1 0.00001
94.15 0.00005
94.2 0.00006
94.25 0.00001
94.3 0.00001
94.35 -0.00003
94.4 -0.00011
94.45 -0.00018
94.5 -0.00016
94.55 -0.00015
94.6 -0.00007
94.65 -0.00007
94.7 -0.00006
94.75 0.00001
94.8 0.0001
94.85 0.00018
94.9 0.00016
94.95 0.00013
95 0.00006
95.05 -0
95.1 -0.00009
95.15 -0.00015
95.2 -0.00016
95.25 -0.0001
95.3 -0.00002
95.35 0.00008
95.4 0.00018
95.45 0.00018
95.5 0.00015
95.55 0.0001
95.6 0.00011
95.65 0.0001
95.7 0.00009
95.75 0.00009
95.8 0.00011
95.85 0.00016
95.9 0.00013
95.95 0.00005
96 0.00003
96.05 0.00006
96.1 0.00002
96.15 0.00005
96.2 0.00002
96.25 0
96.3 -0.00001
96.35 -0.00004
96.4 -0.00007
96.45 -0.00005
96.5 -0.00001
96.55 0.00001
96.6 -0.00001
96.65 -0.00001
96.7 -0.00003
96.75 0.00001
96.8 0.00008
96.85 0.00006
96.9 -0
96.95 -0
97 -0.00006
97.05 -0.00007
97.1 -0.00008
97.15 -0.00011
97.2 -0.0001
97.25 -0.00004
97.3 -0.00004
97.35 -0.00005
97.4 -0.00004
97.45 -0.00002
97.5 0.00003
97.55 0.00003
97.6 0.00005
97.65 0.00009
97.7 0.00006
97.75 0.00009
97.8 0.00009
97.85 0.00008
97.9 0.00001
97.95 -0
98 -0.00001
98.05 -0.00007
98.1 -0.00015
98.15 -0.00024
98.2 -0.00025
98.25 -0.00026
98.3 -0.0002
98.35 -0.00015
98.4 -0.00016
98.45 -0.00011
98.5 -0.00003
98.55 0.00006
98.6 0.00006
98.65 0.00003
98.7 0.00005
98.75 0.00001
98.8 -0.00008
98.85 -0.00012
98.9 -0.0001
98.95 -0.00009
99 -0.00009
99.05 -0.00005
99.1 -0.00003
99.15 -0.00007
99.2 -0.00011
99.25 -0.00013
99.3 -0.0001
99.35 -0.0001
99.4 -0.00014
99.45 -0.00017
99.5 -0.0002
99.55 -0.00017
99.6 -0.00013
99.65 -0.00004
99.7 -0
99.75 0
99.8 0.00004
99.85 0.00011
99.9 0.0001
99.95 0.00012
