0 0
0.05 0.00013
0.1 0.00029
0.15 0.00042
0.2 0.00058
0.25 0.00085
0.3 0.00099
0.35 0.00123
0.4 0.00144
0.45 0.00166
0.5 0.00183
0.55 0.00178
0.6 0.00169
0.65 0.00159
0.7 0.00143
0.75 0.00144
0.8 0.00147
0.85 0.00143
0.9 0.0014
0.95 0.00137
1 0.00131
1.05 0.0012
1.1 0.0011
1.15 0.00116
1.2 0.0013
1.25 0.00134
1.3 0.00133
1.35 0.00132
1.4 0.00135
1.45 0.00132
1.5 0.00139
1.55 0.00139
1.6 0.00128
1.65 0.00105
1.7 0.00097
1.75 0.00091
1.8 0.00095
1.85 0.00093
1.9 0.00097
1.95 0.00089
2 0.00071
2.05 0.00054
2.1 0.00053
2.15 0.00057
2.2 0.00056
2.25 0.00046
2.3 0.00032
2.35 0.0002
2.4 0.00024
2.45 0.00039
2.5 0.00055
2.55 0.00054
2.6 0.00058
2.65 0.00067
2.7 0.00083
2.75 0.00093
2.8 0.00093
2.85 0.00093
2.9 0.00102
2.95 0.00112
3 0.00119
3.05 0.00123
3.1 0.00128
3.15 0.00118
3.2 0.00114
3.25 0.00116
3.3 0.0012
3.35 0.00121
3.4 0.00103
3.45 0.00079
3.5 0.00071
3.55 0.00071
3.6 0.00071
3.65 0.00079
3.7 0.00084
3.75 0.00095
3.8 0.00107
3.85 0.00108
3.9 0.00101
3.95 0.00098
4 0.0008
4.05 0.00054
4.1 0.00034
4.15 0.00024
4.2 0.0003
4.25 0.00036
4.3 0.00052
4.35 0.00069
4.4 0.00083
4.45 0.00081
4.5 0.00078
4.55 0.00068
4.6 0.00055
4.65 0.00043
4.7 0.00031
4.75 0.00023
4.8 0.00022
4.85 0.00026
4.9 0.0004
4.95 0.00036
5 0.00021
5.05 0.00012
5.1 0.00017
5.15 0.00021
5.2 0.00014
5.25 0.00003
5.3 -0.00005
5.35 -0.00005
5.4 -0.00011
5.45 -0.00004
5.5 0.00004
5.55 0.00006
5.6 0.00011
5.65 0.00011
5.7 0.00014
5.75 0.00028
5.8 0.00026
5.85 0.00027
5.9 0.00031
5.95 0.00036
6 0.00035
6.05 0.0003
6.1 0.00013
6.15 -0.00008
6.2 -0.00026
6.25 -0.00023
6.3 -0.00009
6.35 0.00005
6.4 0.00003
6.45 -0.00008
6.5 -0.00003
6.55 0.00011
6.6 0.00029
6.65 0.00032
6.7 0.00034
6.75 0.00029
6.8 0.00016
6.85 0.00008
6.9 -0.00006
6.95 -0.00004
7 -0.00009
7.05 -0.0001
7.1 -0.00017
7.15 -0.00026
7.2 -0.0002
7.25 -0.00019
7.3 -0.00028
7.35 -0.00018
7.4 -0.00006
7.45 0.00012
7.5 0.00021
7.55 0.00027
7.6 0.00021
7.65 0.00026
7.7 0.0002
7.75 0.00005
7.8 -0.00005
7.85 0.00001
7.9 -0.00002
7.95 -0.00011
8 -0.00021
8.05 -0.00014
8.1 -0.00016
8.15 -0.0001
8.2 -0.00005
8.25 -0.00005
8.3 -0.00004
8.35 -0.00005
8.4 -0.00009
8.45 -0.00008
8.5 -0.00011
8.55 -0.00022
8.6 -0.00031
8.65 -0.00041
8.7 -0.00049
8.75 -0.00037
8.8 -0.00024
8.85 0
8.9 0.00019
8.95 0.00023
9 0.0003
9.05 0.00041
9.1 0.00047
9.15 0.0005
9.2 0.00045
9.25 0.00049
9.3 0.00044
9.35 0.00038
9.4 0.00039
9.45 0.00025
9.5 0.00014
9.55 0.00004
9.6 -0.00002
9.65 0.00005
9.7 0.00016
9.75 0.00024
9.8 0.00034
9.85 0.00033
9.9 0.00024
9.95 0.00006
10 0.00004
10.05 0.00009
10.1 0.00022
10.15 0.00035
10.2 0.00035
10.25 0.00023
10.3 0.00009
10.35 -0.00011
10.4 -0.00022
10.45 -0.00036
10.5 -0.00029
10.55 -0.00017
10.6 -0.0001
10.65 -0.00004
10.7 0.00006
10.75 0.00016
10.8 0.00024
10.85 0.00015
10.9 0.00004
10.95 0.00005
11 -0.00006
11.05 -0.00024
11.1 -0.00044
11.15 -0.00042
11.2 -0.00038
11.25 -0.00029
11.3 -0.00033
11.35 -0.00021
11.4 -0.0001
11.45 -0.00011
11.5 -0.00014
11.55 -0.00014
11.6 -0.00013
11.65 -0.00019
11.7 -0.00021
11.75 -0.00032
11.8 -0.00044
11.85 -0.00045
11.9 -0.00033
11.95 -0.00024
12 -0.00011
12.05 0.00005
12.1 0.00023
12.15 0.00042
12.2 0.00061
12.25 0.00078
12.3 0.00081
12.35 0.00086
12.4 0.00082
12.45 0.00074
12.5 0.0007
12.55 0.00067
12.6 0.0007
12.65 0.00067
12.7 0.00051
12.75 0.00032
12.8 0.00029
12.85 0.00016
12.9 -0.00004
12.95 -0.00008
13 -0.00002
13.05 -0.0001
13.1 -0.00012
13.15 -0.00001
13.2 0
13.25 0.0001
13.3 0.00009
13.35 0.00016
13.4 0.00012
13.45 0.00019
13.5 0.00009
13.55 -0.00009
13.6 -0.00011
13.65 -0.00022
13.7 -0.00016
13.75 0.00001
13.8 0.00017
13.85 0.00025
13.9 0.00018
13.95 0.00009
14 0.0001
14.05 0.00001
14.1 0.00004
14.15 -0.00001
14.2 -0.00003
14.25 -0.00016
14.3 -0.00016
14.35 -0.00004
14.4 0.00006
14.45 0.00021
14.5 0.00023
14.55 0.00031
14.6 0.00026
14.65 0.00023
14.7 0.00028
14.75 0.0003
14.8 0.00027
14.85 0.00028
14.9 0.00014
14.95 0.0001
15 -0.00006
15.05 -0.00018
15.1 -0.00028
15.15 -0.00026
15.2 -0.00015
15.25 0
15.3 -0.00003
15.35 0.00002
15.4 0.00015
15.45 0.00013
15.5 0.00014
15.55 0.00002
15.6 -0.00012
15.65 -0.00026
15.7 -0.00043
15.75 -0.00054
15.8 -0.00052
15.85 -0.00036
15.9 -0.00021
15.95 -0.00005
16 0.00011
16.05 0.00031
16.1 0.0004
16.15 0.00045
16.2 0.00052
16.25 0.00056
16.3 0.00059
16.35 0.00062
16.4 0.00053
16.45 0.00033
16.5 0.00009
16.55 -0.0002
16.6 -0.00038
16.65 -0.00043
16.7 -0.00045
16.75 -0.00031
16.8 -0.00016
16.85 -0.00018
16.9 -0.00022
16.95 -0.00012
17 -0.00016
17.05 -0.00025
17.1 -0.00027
17.15 -0.00016
17.2 0.00001
17.25 0.00012
17.3 0.00024
17.35 0.00021
17.4 0.00007
17.45 -0.00013
17.5 -0.0003
17.55 -0.00051
17.6 -0.0006
17.65 -0.00055
17.7 -0.00042
17.75 -0.00024
17.8 -0.00017
17.85 -0.00004
17.9 0.00012
17.95 0.00011
18 0.00014
18.05 0.00009
18.1 -0.00007
18.15 -0.00012
18.2 -0.00019
18.25 -0.0001
18.3 0.00003
18.35 0.00014
18.4 0.00023
18.45 0.00029
18.5 0.0002
18.55 0.00008
18.6 -0.00005
18.65 -0.00004
18.7 0.00006
18.75 0.00009
18.8 -0.00001
18.85 -0.00002
18.9 0.00007
18.95 0.00022
19 0.00025
19.05 0.00021
19.1 0.00013
19.15 0.00016
19.2 0.00012
19.25 0.00011
19.3 0.00017
19.35 0.00029
19.4 0.00032
19.45 0.00022
19.5 0.00002
19.55 -0.00017
19.6 -0.00027
19.65 -0.00031
19.7 -0.00041
19.75 -0.00032
19.8 -0.00031
19.85 -0.00029
19.9 -0.00018
19.95 -0.00021
20 -0.00014
20.05 -0.00015
20.1 -0.00018
20.15 -0.00024
20.2 -0.00034
20.25 -0.00032
20.3 -0.00038
20.35 -0.00046
20.4 -0.0004
20.45 -0.00028
20.5 -0.00025
20.55 -0.00029
20.6 -0.00036
20.65 -0.00031
20.7 -0.00026
20.75 -0.00012
20.8 0.00007
20.85 0.0002
20.9 0.00021
20.95 0.00019
21 0.00024
21.05 0.00017
21.1 0.00006
21.15 0.00002
21.2 0.00003
21.25 0.00011
21.3 0.00016
21.35 0.00015
21.4 0.00002
21.45 0.00002
21.5 0.00012
21.55 0.00027
21.6 0.0003
21.65 0.00018
21.7 0
21.75 -0.00022
21.8 -0.00045
21.85 -0.00044
21.9 -0.00043
21.95 -0.00046
22 -0.00053
22.05 -0.00054
22.1 -0.00058
22.15 -0.00064
22.2 -0.0007
22.25 -0.00071
22.3 -0.00055
22.35 -0.00049
22.4 -0.00042
22.45 -0.00038
22.5 -0.0003
22.55 -0.00014
22.6 0.00005
22.65 0.00017
22.7 0.00019
22.75 0.00015
22.8 0.00023
22.85 0.00014
22.9 -0.00003
22.95 -0.00019
23 -0.00016
23.05 -0.00003
23.1 -0.00003
23.15 -0.00014
23.2 -0.00014
23.25 -0.00023
23.3 -0.00017
23.35 -0.00006
23.4 0.0001
23.45 0.00028
23.5 0.00032
23.55 0.00035
23.6 0.00041
23.65 0.00031
23.7 0.00028
23.75 0.00017
23.8 0.00013
23.85 0.0002
23.9 0.00032
23.95 0.00029
24 0.00025
24.05 0.00028
24.1 0.00031
24.15 0.00033
24.2 0.00027
24.25 0.00012
24.3 0.00006
24.35 0.0001
24.4 0.00005
24.45 0.00007
24.5 0.00008
24.55 -0.00001
24.6 -0.00019
24.65 -0.00023
24.7 -0.00027
24.75 -0.00034
24.8 -0.00028
24.85 -0.00025
24.9 -0.0002
24.95 -0.00028
25 -0.00035
25.05 -0.00029
25.1 -0.00032
25.15 -0.0004
25.2 -0.00047
25.25 -0.00058
25.3 -0.00049
25.35 -0.00033
25.4 -0.00014
25.45 -0.00006
25.5 0.00005
25.55 0.00016
25.6 0.00015
25.65 0.00016
25.7 0.00017
25.75 0.00018
25.8 0.00028
25.85 0.0003
25.9 0.00025
25.95 0.0001
26 0.00006
26.05 0.00011
26.1 0.00006
26.15 -0.00001
26.2 0.00002
26.25 -0.00006
26.3 -0.00017
26.35 -0.00029
26.4 -0.00022
26.45 -0.0002
26.5 -0.00024
26.55 -0.00014
26.6 -0.00005
26.65 0
26.7 0
26.75 -0.00001
26.8 0.00008
26.85 0.00017
26.9 0.00026
26.95 0.00026
27 0.00026
27.05 0.00035
27.1 0.00049
27.15 0.00066
27.2 0.00079
27.25 0.0009
27.3 0.00085
27.35 0.00074
27.4 0.00066
27.45 0.00063
27.5 0.0005
27.55 0.00044
27.6 0.00023
27.65 0.00016
27.7 0.00015
27.75 0.00015
27.8 0.00013
27.85 0.00021
27.9 0.00027
27.95 0.00036
28 0.00028
28.05 0.00029
28.1 0.00024
28.15 0.00027
28.2 0.00021
28.25 0.00023
28.3 0.00024
28.35 0.00012
28.4 -0.00004
28.45 -0.00026
28.5 -0.00042
28.55 -0.00057
28.6 -0.00073
28.65 -0.00083
28.7 -0.00081
28.75 -0.00085
28.8 -0.00081
28.85 -0.00076
28.9 -0.00066
28.95 -0.00066
29 -0.00072
29.05 -0.0008
29.1 -0.00087
29.15 -0.00072
29.2 -0.00055
29.25 -0.0004
29.3 -0.00016
29.35 -0.00009
29.4 0.00005
29.45 0.00003
29.5 0.00004
29.55 0.00015
29.6 0.00018
29.65 0.00012
29.7 0.00002
29.75 0.00003
29.8 -0.00008
29.85 -0.00018
29.9 -0.0003
29.95 -0.00027
30 -0.0001
30.05 0.00008
30.1 0.00018
30.15 0.0002
30.2 0.00009
30.25 0.00012
30.3 0.00024
30.35 0.00028
30.4 0.00021
30.45 0.00019
30.5 0.00014
30.55 0.00014
30.6 0.00022
30.65 0.00025
30.7 0.00029
30.75 0.0004
30.8 0.0005
30.85 0.00063
30.9 0.00064
30.95 0.00058
31 0.00045
31.05 0.00026
31.1 0.0002
31.15 0.0002
31.2 0.0001
31.25 -0.00005
31.3 -0.00023
31.35 -0.00045
31.4 -0.00058
31.45 -0.00072
31.5 -0.00063
31.55 -0.00047
31.6 -0.00022
31.65 -0.00002
31.7 0.00005
31.75 0
31.8 0.00002
31.85 0.00005
31.9 0.00005
31.95 -0.00001
32 -0.00009
32.05 -0.00025
32.1 -0.00026
32.15 -0.00021
32.2 -0.00028
32.25 -0.00019
32.3 -0.00007
32.35 -0.00007
32.4 -0.00018
32.45 -0.00013
32.5 0.00002
32.55 0.00013
32.6 0.00029
32.65 0.00041
32.7 0.00041
32.75 0.00029
32.8 0.00025
32.85 0.00031
32.9 0.00028
32.95 0.00029
33 0.00026
33.05 0.00028
33.1 0.00018
33.15 0.00003
33.2 -0.00001
33.25 -0.00003
33.3 -0.0001
33.35 -0.00009
33.4 -0.0001
33.45 -0.00001
33.5 0.00001
33.55 -0.00001
33.6 0.00001
33.65 0.00014
33.7 0.00029
33.75 0.00038
33.8 0.0003
33.85 0.00019
33.9 0.00001
33.95 -0.00009
34 -0.00004
34.05 -0.00011
34.1 -0.00008
34.15 -0.00015
34.2 -0.00011
34.25 -0.00013
34.3 -0.00012
34.35 -0.00018
34.4 -0.00015
34.45 -0.00009
34.5 -0.00003
34.55 -0.0001
34.6 -0.00002
34.65 -0.00009
34.7 -0.00006
34.75 -0.00017
34.8 -0.00034
34.85 -0.00052
34.9 -0.00057
34.95 -0.00054
35 -0.00054
35.05 -0.00049
35.1 -0.00049
35.15 -0.00054
35.2 -0.00052
35.25 -0.00044
35.3 -0.00036
35.35 -0.0003
35.4 -0.00014
35.45 -0.00014
35.5 -0.00006
35.55 -0.00003
35.6 0.0001
35.65 0.00029
35.7 0.00043
35.75 0.0005
35.8 0.00044
35.85 0.00046
35.9 0.00034
35.95 0.00016
36 0.00016
36.05 0.00007
36.1 0.0001
36.15 0.00012
36.2 0.00022
36.25 0.00018
36.3 0.00024
36.35 0.00039
36.4 0.00045
36.45 0.00051
36.5 0.00045
36.55 0.00033
36.6 0.00034
36.65 0.00034
36.7 0.00031
36.75 0.0002
36.8 0.00017
36.85 0.00015
36.9 0.00019
36.95 0.00016
37 0.00007
37.05 -0.00004
37.1 -0.00022
37.15 -0.00029
37.2 -0.0002
37.25 -0.00003
37.3 -0
37.35 -0.00005
37.4 -0.00009
37.45 -0.00008
37.5 0.00002
37.55 0.00011
37.6 0.00025
37.65 0.00024
37.7 0.00021
37.75 0.00017
37.8 0.00002
37.85 -0.00019
37.9 -0.00026
37.95 -0.00039
38 -0.00047
38.05 -0.00042
38.1 -0.00031
38.15 -0.00022
38.2 -0.00012
38.25 0.00003
38.3 0.00018
38.35 0.0003
38.4 0.00043
38.45 0.00038
38.5 0.00035
38.55 0.00027
38.6 0.00031
38.65 0.00039
38.7 0.00028
38.75 0.00016
38.8 0.00016
38.85 0.00024
38.9 0.00033
38.95 0.00029
39 0.00028
39.05 0.00034
39.1 0.00043
39.15 0.00044
39.2 0.0004
39.25 0.00016
39.3 -0.00006
39.35 -0.0002
39.4 -0.00035
39.45 -0.00041
39.5 -0.0006
39.55 -0.00085
39.6 -0.00123
39.65 -0.00164
39.7 -0.00212
39.75 -0.00256
39.8 -0.00294
39.85 -0.00336
39.9 -0.00372
39.95 -0.00422
40 -0.00483
40.05 -0.00553
40.1 -0.00621
40.15 -0.00711
40.2 -0.0081
40.25 -0.00927
40.3 -0.01063
40.35 -0.01225
40.4 -0.01395
40.45 -0.01568
40.5 -0.01758
40.55 -0.01959
40.6 -0.02188
40.65 -0.02417
40.7 -0.02669
40.75 -0.02924
40.8 -0.0318
40.85 -0.03449
40.9 -0.03728
40.95 -0.04015
41 -0.04292
41.05 -0.04567
41.1 -0.04818
41.15 -0.05047
41.2 -0.05272
41.25 -0.05477
41.3 -0.05651
41.35 -0.05789
41.4 -0.05896
41.45 -0.05974
41.5 -0.06011
41.55 -0.06021
41.6 -0.05998
41.65 -0.05938
41.7 -0.05841
41.75 -0.05703
41.8 -0.05529
41.85 -0.05316
41.9 -0.05076
41.95 -0.04813
42 -0.04548
42.05 -0.04282
42.1 -0.04007
42.15 -0.03727
42.2 -0.03451
42.25 -0.03191
42.3 -0.02959
42.35 -0.02742
42.4 -0.02539
42.45 -0.02356
42.5 -0.0219
42.55 -0.02045
42.6 -0.01899
42.65 -0.01748
42.7 -0.01605
42.75 -0.01462
42.8 -0.01315
42.85 -0.01182
42.9 -0.01033
42.95 -0.00882
43 -0.00722
43.05 -0.0054
43.1 -0.00344
43.15 -0.00118
43.2 0.00125
43.25 0.00404
43.3 0.00698
43.35 0.01008
43.4 0.01323
43.45 0.01661
43.5 0.02017
43.55 0.02387
43.6 0.02751
43.65 0.03111
43.7 0.03473
43.75 0.03821
43.8 0.04151
43.85 0.04465
43.9 0.04749
43.95 0.05012
44 0.05258
44.05 0.05467
44.1 0.05636
44.15 0.05781
44.2 0.05901
44.25 0.05994
44.3 0.06069
44.35 0.06131
44.4 0.06178
44.45 0.06195
44.5 0.06187
44.55 0.06155
44.6 0.0611
44.65 0.06064
44.7 0.06012
44.75 0.05941
44.8 0.05859
44.85 0.05776
44.9 0.05688
44.95 0.05595
45 0.05494
45.05 0.05395
45.1 0.05283
45.15 0.05183
45.2 0.05093
45.25 0.05001
45.3 0.04909
45.35 0.0481
45.4 0.04713
45.45 0.04617
45.5 0.04506
45.55 0.0438
45.6 0.04257
45.65 0.04138
45.7 0.04029
45.75 0.0392
45.8 0.0381
45.85 0.03711
45.9 0.03614
45.95 0.03516
46 0.03409
46.05 0.03295
46.1 0.03181
46.15 0.03062
46.2 0.02946
46.25 0.02821
46.3 0.02704
46.35 0.02572
46.4 0.02435
46.45 0.02317
46.5 0.022
46.55 0.02092
46.6 0.01971
46.65 0.01859
46.7 0.01745
46.75 0.01636
46.8 0.01527
46.85 0.01414
46.9 0.01318
46.95 0.01232
47 0.0115
47.05 0.01064
47.1 0.00961
47.15 0.0086
47.2 0.00771
47.25 0.00682
47.3 0.00604
47.35 0.00534
47.4 0.00458
47.45 0.00368
47.5 0.0029
47.55 0.00202
47.6 0.00125
47.65 0.00063
47.7 0.00007
47.75 -0.00048
47.8 -0.00103
47.85 -0.00172
47.9 -0.00228
47.95 -0.00294
48 -0.00365
48.05 -0.00431
48.1 -0.00487
48.15 -0.00526
48.2 -0.00563
48.25 -0.00589
48.3 -0.00621
48.35 -0.00649
48.4 -0.00676
48.45 -0.00694
48.5 -0.00713
48.55 -0.00731
48.6 -0.00743
48.65 -0.00754
48.7 -0.0076
48.75 -0.00764
48.8 -0.00778
48.85 -0.00803
48.9 -0.00823
48.95 -0.00837
49 -0.00851
49.05 -0.00861
49.1 -0.00881
49.15 -0.00908
49.2 -0.00942
49.25 -0.00956
49.3 -0.00969
49.35 -0.00971
49.4 -0.00965
49.45 -0.00956
49.5 -0.00951
49.55 -0.00946
49.6 -0.00939
49.65 -0.00935
49.7 -0.00938
49.75 -0.00933
49.8 -0.00923
49.85 -0.00932
49.9 -0.00928
49.95 -0.00922
50 -0.00932
50.05 -0.00929
50.1 -0.00916
50.15 -0.00917
50.2 -0.00912
50.25 -0.00916
50.3 -0.00921
50.35 -0.00914
50.4 -0.00898
50.45 -0.0089
50.5 -0.00877
50.55 -0.00869
50.6 -0.00863
50.65 -0.00847
50.7 -0.00826
50.75 -0.00807
50.8 -0.00805
50.85 -0.00796
50.9 -0.00799
50.95 -0.00794
51 -0.00787
51.05 -0.00769
51.1 -0.00757
51.15 -0.00752
51.2 -0.00754
51.25 -0.00764
51.3 -0.00777
51.35 -0.00781
51.4 -0.00787
51.45 -0.00773
51.5 -0.00764
51.55 -0.00744
51.6 -0.00723
51.65 -0.00695
51.7 -0.0067
51.75 -0.00648
51.8 -0.00628
51.85 -0.00622
51.9 -0.00629
51.95 -0.00638
52 -0.00632
52.05 -0.00624
52.1 -0.00609
52.15 -0.00585
52.2 -0.0058
52.25 -0.0057
52.3 -0.0057
52.35 -0.00562
52.4 -0.00552
52.45 -0.00533
52.5 -0.00515
52.55 -0.00493
52.6 -0.00486
52.65 -0.0048
52.7 -0.00469
52.75 -0.00454
52.8 -0.0045
52.85 -0.00449
52.9 -0.00444
52.95 -0.00432
53 -0.00428
53.05 -0.00425
53.1 -0.00421
53.15 -0.0041
53.2 -0.00394
53.25 -0.00374
53.3 -0.00361
53.35 -0.00349
53.4 -0.00356
53.45 -0.00375
53.5 -0.00391
53.55 -0.00401
53.6 -0.00407
53.65 -0.00407
53.7 -0.00402
53.75 -0.00398
53.8 -0.00386
53.85 -0.00385
53.9 -0.00374
53.95 -0.00363
54 -0.00352
54.05 -0.0034
54.1 -0.00329
54.15 -0.00312
54.2 -0.00312
54.25 -0.00318
54.3 -0.00329
54.35 -0.00325
54.4 -0.00329
54.45 -0.00325
54.5 -0.00328
54.55 -0.00325
54.6 -0.00322
54.65 -0.00316
54.7 -0.00314
54.75 -0.00296
54.8 -0.0029
54.85 -0.00275
54.9 -0.00254
54.95 -0.00237
55 -0.00224
55.05 -0.0021
55.1 -0.00212
55.15 -0.00222
55.2 -0.00234
55.25 -0.00228
55.3 -0.00213
55.35 -0.00213
55.4 -0.00213
55.45 -0.00205
55.5 -0.00208
55.55 -0.00211
55.6 -0.00215
55.65 -0.00224
55.7 -0.00215
55.75 -0.00196
55.8 -0.00195
55.85 -0.00186
55.9 -0.00182
55.95 -0.00187
56 -0.00181
56.05 -0.00176
56.1 -0.00169
56.15 -0.00158
56.2 -0.0015
56.25 -0.00151
56.3 -0.00153
56.35 -0.00143
56.4 -0.00132
56.45 -0.00115
56.5 -0.00112
56.55 -0.00122
56.6 -0.00139
56.65 -0.00154
56.7 -0.00158
56.75 -0.00165
56.8 -0.00163
56.85 -0.00166
56.9 -0.00167
56.95 -0.0017
57 -0.00176
57.05 -0.0017
57.1 -0.00169
57.15 -0.00162
57.2 -0.00146
57.25 -0.00133
57.3 -0.00124
57.35 -0.00108
57.4 -0.001
57.45 -0.00085
57.5 -0.00066
57.55 -0.00065
57.6 -0.00077
57.65 -0.00096
57.7 -0.00112
57.75 -0.00117
57.8 -0.00111
57.85 -0.00112
57.9 -0.00106
57.95 -0.00105
58 -0.00093
58.05 -0.00074
58.1 -0.00063
58.15 -0.00065
58.2 -0.00075
58.25 -0.00078
58.3 -0.00075
58.35 -0.00079
58.4 -0.00075
58.45 -0.0008
58.5 -0.00094
58.55 -0.00102
58.6 -0.00097
58.65 -0.00098
58.7 -0.00107
58.75 -0.00114
58.8 -0.00111
58.85 -0.00096
58.9 -0.00094
58.95 -0.001
59 -0.00103
59.05 -0.00091
59.1 -0.00082
59.15 -0.00085
59.2 -0.00092
59.25 -0.00102
59.3 -0.00107
59.35 -0.00115
59.4 -0.00121
59.45 -0.00118
59.5 -0.00117
59.55 -0.00123
59.6 -0.0012
59.65 -0.00116
59.7 -0.00111
59.75 -0.00091
59.8 -0.00084
59.85 -0.00073
59.9 -0.00075
59.95 -0.00077
60 -0.0008
60.05 -0.00078
60.1 -0.00069
60.15 -0.00049
60.2 -0.00031
60.25 -0.00013
60.3 0
60.35 0.00003
60.4 0.00012
60.45 0.00013
60.5 -0
60.55 -0.00023
60.6 -0.00041
60.65 -0.00056
60.7 -0.00052
60.75 -0.00046
60.8 -0.0004
60.85 -0.00026
60.9 -0.00029
60.95 -0.00026
61 -0.00026
61.05 -0.00033
61.1 -0.00045
61.15 -0.00057
61.2 -0.00065
61.25 -0.00079
61.3 -0.00091
61.35 -0.00084
61.4 -0.00067
61.45 -0.00061
61.5 -0.00066
61.55 -0.00064
61.6 -0.00056
61.65 -0.00051
61.7 -0.00038
61.75 -0.00024
61.8 -0.00025
61.85 -0.0002
61.9 -0.00003
61.95 0.0001
62 0.00022
62.05 0.00033
62.1 0.00048
62.15 0.00057
62.2 0.00045
62.25 0.00035
62.3 0.00023
62.35 0.00024
62.4 0.00021
62.45 0.00026
62.5 0.00013
62.55 -0.00005
62.6 -0.00026
62.65 -0.00037
62.7 -0.00044
62.75 -0.00055
62.8 -0.00064
62.85 -0.00077
62.9 -0.00072
62.95 -0.00073
63 -0.00063
63.05 -0.00059
63.1 -0.00045
63.15 -0.00037
63.2 -0.00027
63.25 -0.00021
63.3 -0.00016
63.35 -0.00015
63.4 -0.00007
63.45 -0.00008
63.5 -0.0002
63.55 -0.00033
63.6 -0.0005
63.65 -0.00059
63.7 -0.00071
63.75 -0.00075
63.8 -0.00073
63.85 -0.00063
63.9 -0.00041
63.95 -0.0002
64 -0.00016
64.05 -0.00019
64.1 -0.00017
64.15 -0.00015
64.2 -0.00025
64.25 -0.00024
64.3 -0.00026
64.35 -0.00037
64.4 -0.00033
64.45 -0.00033
64.5 -0.00028
64.55 -0.00011
64.6 0.00003
64.65 0.00003
64.7 -0.00007
64.75 -0.00023
64.8 -0.00038
64.85 -0.00053
64.9 -0.00055
64.95 -0.0005
65 -0.00037
65.05 -0.00024
65.1 -0.00007
65.15 0.00007
65.2 0.00012
65.25 0.00006
65.3 -0.00004
65.35 -0.0002
65.4 -0.00029
65.45 -0.00022
65.5 -0.00009
65.55 -0.00007
65.6 -0.00015
65.65 -0.00012
65.7 -0.00018
65.75 -0.00009
65.8 -0.00006
65.85 0.00009
65.9 0.00025
65.95 0.00036
66 0.00047
66.05 0.00038
66.1 0.00029
66.15 0.00015
66.2 -0.00006
66.25 -0.00028
66.3 -0.00051
66.35 -0.00065
66.4 -0.00054
66.45 -0.00031
66.5 -0.00025
66.55 -0.00022
66.6 -0.00022
66.65 -0.0003
66.7 -0.00019
66.75 -0.00001
66.8 0.00006
66.85 0.00004
66.9 0.00001
66.95 0.00003
67 0.00017
67.05 0.00022
67.1 0.00014
67.15 0.00009
67.2 -0.00004
67.25 -0.00009
67.3 -0.00008
67.35 -0.00015
67.4 -0.00019
67.45 -0.00019
67.5 -0.00012
67.55 -0.00008
67.6 0.00008
67.65 0.00022
67.7 0.00034
67.75 0.00048
67.8 0.00043
67.85 0.00026
67.9 0.0001
67.95 -0.0001
68 -0.00032
68.05 -0.00045
68.1 -0.00041
68.15 -0.00024
68.2 -0.00018
68.25 -0.00019
68.3 -0.00018
68.35 -0.00011
68.4 -0.00008
68.45 -0.00002
68.5 -0.00002
68.55 -0.00009
68.6 -0.00015
68.65 -0.00021
68.7 -0.00034
68.75 -0.00038
68.8 -0.00042
68.85 -0.00048
68.9 -0.00038
68.95 -0.00039
69 -0.0003
69.05 -0.00017
69.1 -0
69.15 0.00021
69.2 0.00041
69.25 0.00041
69.3 0.00039
69.35 0.00033
69.4 0.00031
69.45 0.00029
69.5 0.00016
69.55 0.00006
69.6 -0.00005
69.65 -0.0001
69.7 -0.00019
69.75 -0.00009
69.8 0.00007
69.85 0.00029
69.9 0.00034
69.95 0.00028
70 0.00031
70.05 0.0002
70.1 0.00009
70.15 0
70.2 -0.00016
70.25 -0.00025
70.3 -0.00034
70.35 -0.00036
70.4 -0.00023
70.45 -0.0002
70.5 -0.00014
70.55 -0.0001
70.6 -0.00016
70.65 -0.00021
70.7 -0.00014
70.75 -0.0001
70.8 -0.00012
70.85 -0.00023
70.9 -0.00033
70.95 -0.00043
71 -0.00033
71.05 -0.00026
71.1 -0.0001
71.15 0
71.2 0.00008
71.25 0.00021
71.3 0.00036
71.35 0.00051
71.4 0.00056
71.45 0.00052
71.5 0.0005
71.55 0.00036
71.6 0.00035
71.65 0.00022
71.7 0.00017
71.75 0.00006
71.8 -0.00005
71.85 -0.00014
71.9 -0.00014
71.95 -0.00006
72 0.00006
72.05 0.0002
72.1 0.00036
72.15 0.00039
72.2 0.0004
72.25 0.00029
72.3 0.00024
72.35 0.00013
72.4 0.00006
72.45 0.00004
72.5 0.00006
72.55 0.0001
72.6 0.00003
72.65 0.00003
72.7 0.00013
72.75 0.00018
72.8 0.00014
72.85 0.00016
72.9 0.00019
72.95 0.00022
73 0.00031
73.05 0.00035
73.1 0.00046
73.15 0.00061
73.2 0.00064
73.25 0.00054
73.3 0.00043
73.35 0.00033
73.4 0.0002
73.45 0.00006
73.5 -0
73.55 -0.0001
73.6 -0.00013
73.65 -0.00019
73.7 -0.0001
73.75 -0.00001
73.8 -0
73.85 0.00006
73.9 0.00015
73.95 0.00027
74 0.00031
74.05 0.00022
74.1 0.00005
74.15 -0.00015
74.2 -0.00021
74.25 -0.00031
74.3 -0.00031
74.35 -0.00037
74.4 -0.00032
74.45 -0.00026
74.5 -0.0003
74.55 -0.00024
74.6 -0.00028
74.65 -0.00024
74.7 -0.00027
74.75 -0.00028
74.8 -0.00014
74.85 -0.00005
74.9 -0.00011
74.95 -0.00018
75 -0.00013
75.05 -0.00019
75.1 -0.00028
75.15 -0.0003
75.2 -0.00021
75.25 -0.00019
75.3 -0.00022
75.35 -0.00014
75.4 -0.00003
75.45 0.00007
75.5 0.00013
75.55 0.00018
75.6 0.00013
75.65 0.00016
75.7 0.00028
75.75 0.0004
75.8 0.00051
75.85 0.00065
75.9 0.00076
75.95 0.00073
76 0.00077
76.05 0.00083
76.1 0.00078
76.15 0.00062
76.2 0.00044
76.25 0.00028
76.3 0.00015
76.35 0.00005
76.4 0.00004
76.45 0.00013
76.5 0.00012
76.55 -0.00002
76.6 -0.0002
76.65 -0.00039
76.7 -0.00044
76.75 -0.00049
76.8 -0.00039
76.85 -0.00034
76.9 -0.00036
76.95 -0.00029
77 -0.00018
77.05 -0.00016
77.1 -0.00014
77.15 -0.00023
77.2 -0.00024
77.25 -0.0003
77.3 -0.00021
77.35 -0.00021
77.4 -0.00008
77.45 -0.00011
77.5 -0.00006
77.55 -0.00013
77.6 -0.00008
77.65 0.00002
77.7 0.00005
77.75 0.00013
77.8 0.00029
77.85 0.00043
77.9 0.00056
77.95 0.00053
78 0.00052
78.05 0.00042
78.1 0.00043
78.15 0.00034
78.2 0.00034
78.25 0.00042
78.3 0.00043
78.35 0.00032
78.4 0.00028
78.45 0.0002
78.5 0.00006
78.55 0.00009
78.6 0.00016
78.65 0.00012
78.7 -0.00004
78.75 -0.00016
78.8 -0.00029
78.85 -0.00029
78.9 -0.00018
78.95 0
79 0.00007
79.05 0.00007
79.1 -0.00003
79.15 -0.00013
79.2 -0.00028
79.25 -0.00047
79.3 -0.00059
79.35 -0.00067
79.4 -0.00067
79.45 -0.00073
79.5 -0.00076
79.55 -0.0006
79.6 -0.00033
79.65 -0.00009
79.7 0.00002
79.75 0.00007
79.8 -0.00002
79.85 0.00004
79.9 -0
79.95 0
80 0.00011
80.05 0.00014
80.1 0.00009
80.15 0.0001
80.2 0.00015
80.25 0.0002
80.3 0.0002
80.35 0.00018
80.4 0.0001
80.45 -0.00002
80.5 0.00003
80.55 0.00012
80.6 0.00024
80.65 0.00028
80.7 0.00034
80.75 0.00039
80.8 0.00037
80.85 0.00038
80.9 0.00025
80.95 0.0002
81 0.00015
81.05 0.00006
81.1 0.00001
81.15 0.00009
81.2 0.00021
81.25 0.00017
81.3 0.0001
81.35 0.00015
81.4 0.00014
81.45 0.00004
81.5 0.00001
81.55 0.00003
81.6 0.0001
81.65 0.00006
81.7 0.00002
81.75 0.00002
81.8 -0.00002
81.85 -0.00017
81.9 -0.00027
81.95 -0.00032
82 -0.00025
82.05 -0.00029
82.1 -0.00021
82.15 -0.00016
82.2 -0.00022
82.25 -0.00021
82.3 -0.00015
82.35 0.00001
82.4 0.00019
82.45 0.00039
82.5 0.00052
82.55 0.00049
82.6 0.00039
82.65 0.00032
82.7 0.00032
82.75 0.00031
82.8 0.00016
82.85 0.00015
82.9 0.00004
82.95 -0.00001
83 -0.00011
83.05 -0.00012
83.1 -0.00001
83.15 0.00002
83.2 0.00005
83.25 0.0001
83.3 0.00022
83.35 0.00034
83.4 0.00045
83.45 0.00039
83.5 0.0003
83.55 0.00027
83.6 0.00026
83.65 0.00023
83.7 0.00012
83.75 0.00013
83.8 0.00006
83.85 0.00009
83.9 0.00009
83.95 0.00015
84 0.00021
84.05 0.00033
84.1 0.00043
84.15 0.00038
84.2 0.00021
84.25 0.00002
84.3 -0.00015
84.35 -0.00032
84.4 -0.0003
84.45 -0.00018
84.5 -0.00008
84.55 -0.00008
84.6 -0.00002
84.65 0.00009
84.7 0.00019
84.75 0.00015
84.8 0.00011
84.85 0.00013
84.9 0.00014
84.95 0.00009
85 0.00003
85.05 -0.00006
85.1 -0.00014
85.15 -0.00019
85.2 -0.00033
85.25 -0.00043
85.3 -0.00044
85.35 -0.00053
85.4 -0.00044
85.45 -0.00026
85.5 -0.00002
85.55 0.00008
85.6 0.00007
85.65 0.00005
85.7 0.00007
85.75 -0.00002
85.8 0.00004
85.85 0.00004
85.9 -0.00001
85.95 0.00004
86 -0.00005
86.05 -0.0002
86.1 -0.0004
86.15 -0.00051
86.2 -0.00045
86.25 -0.00032
86.3 -0.00014
86.35 0.00003
86.4 0.00022
86.45 0.00031
86.5 0.00029
86.55 0.00017
86.6 -0.00001
86.65 -0.0002
86.7 -0.00044
86.75 -0.00058
86.8 -0.00063
86.85 -0.0007
86.9 -0.00072
86.95 -0.00061
87 -0.00037
87.05 -0.00015
87.1 -0.00011
87.15 0.00002
87.2 0.00008
87.25 0.00021
87.3 0.00032
87.35 0.00048
87.4 0.00059
87.45 0.00051
87.5 0.00053
87.55 0.00057
87.6 0.0005
87.65 0.0004
87.7 0.00017
87.75 0.00005
87.8 0.00003
87.85 0.00013
87.9 0.00024
87.95 0.00039
88 0.00042
88.05 0.00032
88.1 0.00012
88.15 -0
88.2 -0.00009
88.25 -0.00006
88.3 0.00003
88.35 0.00015
88.4 0.00025
88.45 0.00037
88.5 0.00048
88.55 0.00042
88.6 0.00039
88.65 0.00033
88.7 0.00031
88.75 0.00021
88.8 0.00021
88.85 0.00025
88.9 0.00019
88.95 0.00016
89 0.00011
89.05 -0.00006
89.1 -0.00026
89.15 -0.00037
89.2 -0.00036
89.25 -0.00045
89.3 -0.00037
89.35 -0.00027
89.4 -0.0002
89.45 -0.00012
89.5 -0.00006
89.55 -0.00016
89.6 -0.00027
89.65 -0.00032
89.7 -0.00036
89.75 -0.00033
89.8 -0.00017
89.85 -0.00013
89.9 -0.00007
89.95 -0.00003
90 -0.00007
90.05 -0.00006
90.1 -0.00015
90.15 -0.0001
90.2 -0.0002
90.25 -0.00025
90.3 -0.00033
90.35 -0.00046
90.4 -0.00048
90.45 -0.00054
90.5 -0.0005
90.55 -0.00034
90.6 -0.00012
90.65 0.00009
90.7 0.00031
90.75 0.00054
90.8 0.00072
90.85 0.00077
90.9 0.00072
90.95 0.00071
91 0.00067
91.05 0.00063
91.1 0.00064
91.15 0.00056
91.2 0.00038
91.25 0.00028
91.3 0.00019
91.35 0.00016
91.4 0.00014
91.45 0.00012
91.5 -0.00003
91.55 -0.00009
91.6 -0.00016
91.65 -0.00026
91.7 -0.00023
91.75 -0.00008
91.8 0.00007
91.85 0.00024
91.9 0.00029
91.95 0.00028
92 0.00021
92.05 0.00003
92.1 -0.00017
92.15 -0.00036
92.2 -0.00051
92.25 -0.00056
92.3 -0.00064
92.35 -0.00056
92.4 -0.00038
92.45 -0.0003
92.5 -0.0002
92.55 -0.00008
92.6 0
92.65 0.00001
92.7 0.00008
92.75 -0.00001
92.8 -0.00011
92.85 -0.0003
92.9 -0.00054
92.95 -0.00062
93 -0.00064
93.05 -0.00065
93.1 -0.00067
93.15 -0.0006
93.2 -0.00054
93.25 -0.00056
93.3 -0.00065
93.35 -0.00058
93.4 -0.00042
93.45 -0.00024
93.5 -0.00007
93.55 0.00008
93.6 0.00025
93.65 0.00031
93.7 0.00025
93.75 0.00013
93.8 0.00005
93.85 0.00009
93.9 0.00012
93.95 0.00012
94 0.00016
94.05 0.00005
94.1 0.00003
94.15 -0.00005
94.2 -0.00003
94.25 0.00007
94.3 0.00018
94.35 0.00029
94.4 0.00024
94.45 0.00028
94.5 0.00025
94.55 0.00013
94.6 0.00015
94.65 0.0001
94.7 0.00002
94.75 -0.00005
94.8 -0.00017
94.85 -0.0003
94.9 -0.00044
94.95 -0.00051
95 -0.00054
95.05 -0.00052
95.1 -0.00052
95.15 -0.00046
95.2 -0.00045
95.25 -0.00041
95.3 -0.0004
95.35 -0.00042
95.4 -0.00049
95.45 -0.00048
95.5 -0.00033
95.55 -0.00015
95.6 -0
95.65 0.00007
95.7 0.00004
95.75 0.00006
95.8 0.00009
95.85 0.00014
95.9 0.00003
95.95 -0.00013
96 -0.00014
96.05 -0.00005
96.1 0.00004
96.15 0.00021
96.2 0.00042
96.25 0.00055
96.3 0.00063
96.35 0.00056
96.4 0.00055
96.45 0.00039
96.5 0.00024
96.55 0.00019
96.6 0.00008
96.65 0.00007
96.7 0.00007
96.75 0.00014
96.8 0.00014
96.85 0.00015
96.9 0.00011
96.95 0.00015
97 0.00007
97.05 -0.00008
97.1 -0.00015
97.15 -0.00032
97.2 -0.00037
97.25 -0.00046
97.3 -0.00047
97.35 -0.00057
97.4 -0.00051
97.45 -0.00051
97.5 -0.00039
97.55 -0.00027
97.6 -0.00012
97.65 0.00006
97.7 0.00019
97.75 0.00036
97.8 0.00033
97.85 0.00035
97.9 0.00028
97.95 0.00011
98 0.00003
98.05 -0.00006
98.1 -0.00005
98.15 0
98.2 -0.00005
98.25 -0.00014
98.3 -0.00023
98.35 -0.00028
98.4 -0.00018
98.45 -0.00016
98.5 -0.00013
98.55 -0.0002
98.6 -0.00016
98.65 -0.00019
98.7 -0.00022
98.75 -0.00011
98.8 0.00006
98.85 0.00009
98.9 0.00004
98.95 0.00005
99 0.00017
99.05 0.00012
99.1 -0.00002
99.15 -0.00014
99.2 -0.00028
99.25 -0.00032
99.3 -0.00027
99.35 -0.00018
99.4 -0.00001
99.45 0.00005
99.5 0.00019
99.55 0.00022
99.6 0.00024
99.65 0.00036
99.7 0.00034
99.75 0.00033
99.8 0.00026
99.85 0.00012
99.9 -0.00007
99.95 -0.00032
