0 0
0.05 0.00001
0.1 0.00001
0.15 0.00007
0.2 0.00014
0.25 0.0002
0.3 0.0003
0.35 0.00038
0.4 0.00043
0.45 0.00052
0.5 0.00056
0.55 0.00057
0.6 0.00056
0.65 0.00051
0.7 0.00048
0.75 0.00042
0.8 0.00037
0.85 0.00034
0.9 0.00033
0.95 0.00035
1 0.00038
1.05 0.00038
1.1 0.00039
1.15 0.00038
1.2 0.0004
1.25 0.00041
1.3 0.00041
1.35 0.00044
1.4 0.00046
1.45 0.0005
1.5 0.00052
1.55 0.00048
1.6 0.00044
1.65 0.00038
1.7 0.00036
1.75 0.00036
1.8 0.00041
1.85 0.00047
1.9 0.00049
1.95 0.0005
2 0.00051
2.05 0.00045
2.1 0.00039
2.15 0.00034
2.2 0.00035
2.25 0.00039
2.3 0.00037
2.35 0.00036
2.4 0.00039
2.45 0.00041
2.5 0.00037
2.55 0.00032
2.6 0.00031
2.65 0.00029
2.7 0.00024
2.75 0.00019
2.8 0.00021
2.85 0.00021
2.9 0.00023
2.95 0.00021
3 0.0002
3.05 0.00018
3.1 0.00018
3.15 0.00014
3.2 0.00015
3.25 0.00018
3.3 0.0002
3.35 0.00019
3.4 0.00016
3.45 0.0002
3.5 0.00025
3.55 0.00026
3.6 0.00024
3.65 0.00019
3.7 0.00014
3.75 0.00011
3.8 0.0001
3.85 0.00015
3.9 0.00022
3.95 0.00026
4 0.00025
4.05 0.00025
4.1 0.00027
4.15 0.00024
4.2 0.00022
4.25 0.00015
4.3 0.0001
4.35 0.00011
4.4 0.00008
4.45 0.00003
4.5 -0.00002
4.55 -0.00008
4.6 -0.00007
4.65 -0.00008
4.7 -0.00004
4.75 -0.00003
4.8 0.00001
4.85 0.00007
4.9 0.00013
4.95 0.0002
5 0.0002
5.05 0.00016
5.1 0.00009
5.15 0.00005
5.2 0.00008
5.25 0.00011
5.3 0.00012
5.35 0.00012
5.4 0.00009
5.45 0.00003
5.5 0.00003
5.55 0.00002
5.6 0
5.65 0.00004
5.7 0.00005
5.75 0.00005
5.8 0.00004
5.85 0.00004
5.9 0.00002
5.95 0.00004
6 0.00008
6.05 0.0001
6.1 0.00015
6.15 0.00018
6.2 0.00017
6.25 0.00017
6.3 0.00016
6.35 0.0001
6.4 0.00003
6.45 -0.00004
6.5 -0.00012
6.55 -0.00012
6.6 -0.00011
6.65 -0.00007
6.7 -0
6.75 0.00003
6.8 0.00003
6.85 0
6.9 0.00002
6.95 0.00001
7 0.00003
7.05 0.00003
7.1 0.00006
7.15 0.00005
7.2 0.00004
7.25 0.00003
7.3 0.00002
7.35 -0.00001
7.4 -0.00004
7.45 -0.00004
7.5 -0.00005
7.55 -0.00001
7.6 0.00003
7.65 0.0001
7.7 0.00011
7.75 0.00007
7.8 0.00001
7.85 -0.00003
7.9 -0.00004
7.95 -0.00002
8 0.00001
8.05 0.00004
8.1 0.0001
8.15 0.00013
8.2 0.00019
8.25 0.00021
8.3 0.00018
8.35 0.00011
8.4 0.00004
8.45 0
8.5 -0.00002
8.55 -0.00003
8.6 -0.00001
8.65 0.00005
8.7 0.0001
8.75 0.00012
8.8 0.00014
8.85 0.00017
8.9 0.00021
8.95 0.00018
9 0.00013
9.05 0.00012
9.1 0.00007
9.15 0.00001
9.2 -0.00001
9.25 -0.00003
9.3 -0.00005
9.35 -0.00009
9.4 -0.0001
9.45 -0.00009
9.5 -0.0001
9.55 -0.00008
9.6 -0.00009
9.65 -0.00012
9.7 -0.00009
9.75 -0.0001
9.8 -0.00012
9.85 -0.00016
9.9 -0.00018
9.95 -0.0002
10 -0.0002
10.05 -0.0002
10.1 -0.00018
10.15 -0.00015
10.2 -0.00013
10.25 -0.00009
10.3 -0.00004
10.35 -0.00003
10.4 -0.00006
10.45 -0.00007
10.5 -0.00002
10.55 0
10.6 -0.00002
10.65 -0.00004
10.7 0
10.75 -0
10.8 0
10.85 -0.00001
10.9 -0.00004
10.95 -0.00006
11 -0.00005
11.05 -0.00004
11.1 -0.00001
11.15 -0
11.2 0
11.25 0.00004
11.3 0.00003
11.35 0.00004
11.4 0.00008
11.45 0.00011
11.5 0.00011
11.55 0.00008
11.6 0.00009
11.65 0.00008
11.7 0.00004
11.75 0
11.8 0
11.85 -0.00001
11.9 -0.00003
11.95 -0.00004
12 -0.00002
12.05 -0.00003
12.1 -0.00006
12.15 -0.00008
12.2 -0.00003
12.25 0.00002
12.3 0.00003
12.35 0.00004
12.4 0.00004
12.45 0.00001
12.5 -0.00003
12.55 -0
12.6 -0.00002
12.65 -0.00001
12.7 0.00005
12.75 0.00011
12.8 0.00012
12.85 0.00013
12.9 0.00018
12.95 0.00016
13 0.00011
13.05 0.00008
13.1 0.00002
13.15 -0.00003
13.2 -0.00001
13.25 0.00004
13.3 0.00007
13.35 0.00006
13.4 0.00004
13.45 0.00007
13.5 0.00006
13.55 0.00005
13.6 0.00008
13.65 0.00007
13.7 0.00009
13.75 0.00011
13.8 0.00014
13.85 0.00017
13.9 0.00019
13.95 0.0002
14 0.00022
14.05 0.00024
14.1 0.00027
14.15 0.00027
14.2 0.00022
14.25 0.00015
14.3 0.00006
14.35 -0.00003
14.4 -0.00004
14.45 -0.00001
14.5 -0.00001
14.55 0.00004
14.6 0.00009
14.65 0.00011
14.7 0.00016
14.75 0.00022
14.8 0.00024
14.85 0.00019
14.9 0.00016
14.95 0.00015
15 0.00013
15.05 0.00009
15.1 0.00002
15.15 0
15.2 -0.00005
15.25 -0.00012
15.3 -0.00013
15.35 -0.00016
15.4 -0.00013
15.45 -0.00013
15.5 -0.00011
15.55 -0.0001
15.6 -0.00007
15.65 -0.00006
15.7 -0.00001
15.75 -0.00001
15.8 -0
15.85 0
15.9 -0.00002
15.95 -0.00002
16 -0.00005
16.05 -0.00009
16.1 -0.00006
16.15 -0
16.2 0.00003
16.25 0.00005
16.3 0.00011
16.35 0.00017
16.4 0.00019
16.45 0.0002
16.5 0.00022
16.55 0.00018
16.6 0.00018
16.65 0.00014
16.7 0.00008
16.75 -0.00001
16.8 -0.00005
16.85 -0.00006
16.9 -0.00008
16.95 -0.00006
17 -0.00005
17.05 -0.00007
17.1 -0.00002
17.15 0.00001
17.2 0.00005
17.25 0.00008
17.3 0.00005
17.35 0.00006
17.4 0.00003
17.45 0.00001
17.5 -0.00001
17.55 -0.00006
17.6 -0.00006
17.65 -0.00007
17.7 -0.00009
17.75 -0.00007
17.8 -0.00005
17.85 0.00002
17.9 0.00008
17.95 0.00009
18 0.00005
18.05 -0
18.1 -0.00001
18.15 -0.00003
18.2 -0.00005
18.25 -0.0001
18.3 -0.00015
18.35 -0.0002
18.4 -0.00017
18.45 -0.00016
18.5 -0.00011
18.55 -0.00009
18.6 -0.00009
18.65 -0.00004
18.7 -0
18.75 0.00001
18.8 0.00004
18.85 0.00009
18.9 0.00012
18.95 0.00016
19 0.00017
19.05 0.0002
19.1 0.00019
19.15 0.00016
19.2 0.00016
19.25 0.00019
19.3 0.00023
19.35 0.00029
19.4 0.00029
19.45 0.00026
19.5 0.00021
19.55 0.00013
19.6 0.00005
19.65 -0.00001
19.7 -0.00003
19.75 -0.00008
19.8 -0.00014
19.85 -0.00018
19.9 -0.00016
19.95 -0.00017
20 -0.00014
20.05 -0.00007
20.1 -0.00004
20.15 -0
20.2 0.00003
20.25 0.00002
20.3 -0.00003
20.35 -0.0001
20.4 -0.00013
20.45 -0.00013
20.5 -0.00016
20.55 -0.00021
20.6 -0.00021
20.65 -0.00015
20.7 -0.0001
20.75 -0.00008
20.8 -0.00005
20.85 -0.00005
20.9 -0.00007
20.95 -0.00008
21 -0.00011
21.05 -0.00016
21.1 -0.00015
21.15 -0.00017
21.2 -0.00019
21.25 -0.00019
21.3 -0.00018
21.35 -0.0002
21.4 -0.00022
21.45 -0.00019
21.5 -0.00017
21.55 -0.00016
21.6 -0.00016
21.65 -0.00013
21.7 -0.00011
21.75 -0.00005
21.8 -0.00003
21.85 0.00002
21.9 0.00009
21.95 0.0001
22 0.00015
22.05 0.00013
22.1 0.00012
22.15 0.00009
22.2 0.00007
22.25 0.00005
22.3 0.00004
22.35 0.00004
22.4 0.00003
22.45 -0
22.5 -0.00004
22.55 -0.00009
22.6 -0.00011
22.65 -0.00012
22.7 -0.00013
22.75 -0.0001
22.8 -0.00005
22.85 0.00003
22.9 0.00008
22.95 0.00012
23 0.00014
23.05 0.00014
23.1 0.00013
23.15 0.00011
23.2 0.00011
23.25 0.00006
23.3 -0
23.35 -0.00004
23.4 -0.00005
23.45 -0.00007
23.5 -0.00009
23.55 -0.0001
23.6 -0.00015
23.65 -0.0002
23.7 -0.0002
23.75 -0.00023
23.8 -0.00018
23.85 -0.00015
23.9 -0.00014
23.95 -0.00011
24 -0.00005
24.05 0.00003
24.1 0.00006
24.15 0.00006
24.2 0.00004
24.25 0.00004
24.3 0.00004
24.35 0.00001
24.4 0.00002
24.45 0.00003
24.5 0.00005
24.55 0.00007
24.6 0.00012
24.65 0.00014
24.7 0.00014
24.75 0.00014
24.8 0.00011
24.85 0.00008
24.9 0.00007
24.95 0.00006
25 0.00004
25.05 0.00004
25.1 0.00004
25.15 0.00004
25.2 0.00004
25.25 0
25.3 -0.00002
25.35 -0.00005
25.4 -0.00009
25.45 -0.00011
25.5 -0.0001
25.55 -0.00008
25.6 -0.0001
25.65 -0.00008
25.7 -0.00005
25.75 -0.00006
25.8 -0.00006
25.85 -0.00007
25.9 -0.00006
25.95 -0.00003
26 0.00002
26.05 0.00003
26.1 0.00002
26.15 -0.00003
26.2 -0.00006
26.25 -0.00005
26.3 -0.00005
26.35 -0.00008
26.4 -0.00009
26.45 -0.00007
26.5 -0.00006
26.55 -0.00004
26.6 0.00003
26.65 0.00006
26.7 0.00006
26.75 0.00009
26.8 0.00012
26.85 0.00012
26.9 0.00012
26.95 0.00015
27 0.00017
27.05 0.00017
27.1 0.00019
27.15 0.00021
27.2 0.00021
27.25 0.00022
27.3 0.00019
27.35 0.00018
27.4 0.00015
27.45 0.00017
27.5 0.00017
27.55 0.00019
27.6 0.00021
27.65 0.00024
27.7 0.00028
27.75 0.00028
27.8 0.00024
27.85 0.00019
27.9 0.0001
27.95 0.00001
28 -0.00007
28.05 -0.00009
28.1 -0.00009
28.15 -0.00005
28.2 -0.00002
28.25 -0.00004
28.3 -0.00002
28.35 0
28.4 -0
28.45 -0.00002
28.5 -0.00003
28.55 -0.00002
28.6 -0.00002
28.65 -0.00002
28.7 0.00002
28.75 0.00004
28.8 0.00007
28.85 0.00005
28.9 0.00006
28.95 0.00009
29 0.00012
29.05 0.00012
29.1 0.0001
29.15 0.00013
29.2 0.00015
29.25 0.00015
29.3 0.00011
29.35 0.00004
29.4 0.00002
29.45 -0.00003
29.5 -0.00003
29.55 -0.00001
29.6 -0.00001
29.65 0.00003
29.7 0.00007
29.75 0.00006
29.8 0.00008
29.85 0.00011
29.9 0.00008
29.95 0.00003
30 -0.00003
30.05 -0.00005
30.1 -0.00009
30.15 -0.00011
30.2 -0.00016
30.25 -0.00017
30.3 -0.00012
30.35 -0.00012
30.4 -0.0001
30.45 -0.00007
30.5 -0.00001
30.55 0.00005
30.6 0.00004
30.65 0.00005
30.7 0.00006
30.75 0.00008
30.8 0.00013
30.85 0.00011
30.9 0.00009
30.95 0.00007
31 0.00002
31.05 -0.00005
31.1 -0.00013
31.15 -0.00016
31.2 -0.00018
31.25 -0.00015
31.3 -0.00013
31.35 -0.00008
31.4 -0.00005
31.45 -0.00005
31.5 -0.00008
31.55 -0.00007
31.6 -0.00009
31.65 -0.0001
31.7 -0.00013
31.75 -0.00011
31.8 -0.00009
31.85 -0.00007
31.9 -0.00001
31.95 0.00001
32 0.00002
32.05 0.00004
32.1 0.00007
32.15 0.00012
32.2 0.0001
32.25 0.00004
32.3 -0.00004
32.35 -0.00009
32.4 -0.00014
32.45 -0.0002
32.5 -0.00026
32.55 -0.0003
32.6 -0.00027
32.65 -0.0002
32.7 -0.00014
32.75 -0.0001
32.8 -0.00004
32.85 -0.00004
32.9 -0.00004
32.95 -0.00006
33 -0.00009
33.05 -0.00006
33.1 0.00001
33.15 0.00003
33.2 0.00001
33.25 0.00003
33.3 0.00003
33.35 0.00003
33.4 0
33.45 -0.00002
33.5 0.00002
33.55 0.00003
33.6 0.00006
33.65 0.00003
33.7 -0.00002
33.75 -0.00004
33.8 -0.00001
33.85 -0.00001
33.9 -0.00003
33.95 -0.00003
34 -0.00003
34.05 -0
34.1 0.00005
34.15 0.00007
34.2 0.00006
34.25 0.00004
34.3 0.00003
34.35 0.00006
34.4 0.00005
34.45 -0.00001
34.5 -0.00004
34.55 -0.00005
34.6 -0.00004
34.65 -0.00003
34.7 -0.00002
34.75 0
34.8 -0.00001
34.85 -0.00001
34.9 -0.00005
34.95 -0.00004
35 -0.00008
35.05 -0.0001
35.1 -0.00008
35.15 -0.00003
35.2 0.00003
35.25 0.00007
35.3 0.00009
35.35 0.0001
35.4 0.00009
35.45 0.00006
35.5 0.00003
35.55 -0.00003
35.6 -0.00006
35.65 -0.0001
35.7 -0.00008
35.75 -0.00002
35.8 0.00001
35.85 0.00006
35.9 0.00007
35.95 0.0001
36 0.0001
36.05 0.00006
36.1 -0
36.15 -0.00005
36.2 -0.00007
36.25 -0.00005
36.3 0.00001
36.35 0.00009
36.4 0.00015
36.45 0.00018
36.5 0.00017
36.55 0.00015
36.6 0.00015
36.65 0.00015
36.7 0.00012
36.75 0.0001
36.8 0.00004
36.85 0
36.9 0
36.95 -0.00001
37 -0.00003
37.05 -0.00003
37.1 -0.00006
37.15 -0.00009
37.2 -0.00006
37.25 -0.00006
37.3 -0.00002
37.35 0.00001
37.4 0.00006
37.45 0.00011
37.5 0.00011
37.55 0.00011
37.6 0.00005
37.65 0.00002
37.7 0
37.75 -0.00001
37.8 -0.00006
37.85 -0.00009
37.9 -0.00007
37.95 -0.00008
38 -0.00014
38.05 -0.00017
38.1 -0.00017
38.15 -0.00017
38.2 -0.00019
38.25 -0.00023
38.3 -0.0003
38.35 -0.00031
38.4 -0.00034
38.45 -0.00041
38.5 -0.00043
38.55 -0.0005
38.6 -0.00058
38.65 -0.0007
38.7 -0.00085
38.75 -0.00095
38.8 -0.001
38.85 -0.00106
38.9 -0.00111
38.95 -0.00117
39 -0.0013
39.05 -0.00147
39.1 -0.00168
39.15 -0.00192
39.2 -0.00218
39.25 -0.00247
39.3 -0.00279
39.35 -0.00311
39.4 -0.00346
39.45 -0.00381
39.5 -0.00418
39.55 -0.00457
39.6 -0.00492
39.65 -0.00527
39.7 -0.00573
39.75 -0.00626
39.8 -0.00682
39.85 -0.00742
39.9 -0.00803
39.95 -0.00865
40 -0.00929
40.05 -0.00996
40.1 -0.01066
40.15 -0.01141
40.2 -0.01217
40.25 -0.01289
40.3 -0.01361
40.35 -0.01437
40.4 -0.01513
40.45 -0.01586
40.5 -0.01655
40.55 -0.01723
40.6 -0.01788
40.65 -0.01851
40.7 -0.01909
40.75 -0.01962
40.8 -0.02011
40.85 -0.02061
40.9 -0.02104
40.95 -0.02142
41 -0.02166
41.05 -0.02184
41.1 -0.02192
41.15 -0.02185
41.2 -0.02167
41.25 -0.0214
41.3 -0.0211
41.35 -0.02065
41.4 -0.0201
41.45 -0.01941
41.5 -0.01866
41.55 -0.01786
41.6 -0.01691
41.65 -0.01587
41.7 -0.01473
41.75 -0.01346
41.8 -0.01216
41.85 -0.01075
41.9 -0.00932
41.95 -0.00781
42 -0.0063
42.05 -0.00477
42.1 -0.00317
42.15 -0.00156
42.2 0.00004
42.25 0.00165
42.3 0.00324
42.35 0.00482
42.4 0.00637
42.45 0.00786
42.5 0.00925
42.55 0.01053
42.6 0.01173
42.65 0.0129
42.7 0.01398
42.75 0.015
42.8 0.0159
42.85 0.01668
42.9 0.01735
42.95 0.01799
43 0.01856
43.05 0.01906
43.1 0.01944
43.15 0.0197
43.2 0.01988
43.25 0.02004
43.3 0.02011
43.35 0.02015
43.4 0.02015
43.45 0.02009
43.5 0.01996
43.55 0.01982
43.6 0.01967
43.65 0.01947
43.7 0.01919
43.75 0.01891
43.8 0.01864
43.85 0.01836
43.9 0.01811
43.95 0.01784
44 0.01751
44.05 0.0172
44.1 0.0169
44.15 0.01657
44.2 0.01625
44.25 0.01591
44.3 0.01556
44.35 0.01523
44.4 0.01491
44.45 0.01465
44.5 0.01439
44.55 0.01419
44.6 0.01399
44.65 0.01382
44.7 0.01365
44.75 0.01346
44.8 0.01328
44.85 0.01306
44.9 0.01285
44.95 0.01264
45 0.01248
45.05 0.01232
45.1 0.01215
45.15 0.01198
45.2 0.01181
45.25 0.01159
45.3 0.01131
45.35 0.01105
45.4 0.0108
45.45 0.01056
45.5 0.01035
45.55 0.01013
45.6 0.00987
45.65 0.00958
45.7 0.00925
45.75 0.00892
45.8 0.00857
45.85 0.00827
45.9 0.008
45.95 0.00774
46 0.00743
46.05 0.00713
46.1 0.00683
46.15 0.0065
46.2 0.0062
46.25 0.00586
46.3 0.00559
46.35 0.00535
46.4 0.00511
46.45 0.00482
46.5 0.0045
46.55 0.00423
46.6 0.00391
46.65 0.00356
46.7 0.0032
46.75 0.00286
46.8 0.00252
46.85 0.00224
46.9 0.00197
46.95 0.0017
47 0.00145
47.05 0.00119
47.1 0.00092
47.15 0.00069
47.2 0.00048
47.25 0.00022
47.3 0.00001
47.35 -0.00025
47.4 -0.00046
47.45 -0.00069
47.5 -0.00091
47.55 -0.00112
47.6 -0.00134
47.65 -0.00155
47.7 -0.00173
47.75 -0.00186
47.8 -0.002
47.85 -0.00217
47.9 -0.00232
47.95 -0.00249
48 -0.00265
48.05 -0.0028
48.1 -0.00294
48.15 -0.00302
48.2 -0.00308
48.25 -0.00312
48.3 -0.0032
48.35 -0.00326
48.4 -0.00331
48.45 -0.00332
48.5 -0.00334
48.55 -0.00335
48.6 -0.00339
48.65 -0.00346
48.7 -0.00356
48.75 -0.00367
48.8 -0.0037
48.85 -0.00376
48.9 -0.00382
48.95 -0.00389
49 -0.00389
49.05 -0.00387
49.1 -0.00381
49.15 -0.00379
49.2 -0.00376
49.25 -0.00378
49.3 -0.00379
49.35 -0.00379
49.4 -0.00379
49.45 -0.00378
49.5 -0.00376
49.55 -0.00371
49.6 -0.00361
49.65 -0.00358
49.7 -0.00352
49.75 -0.00348
49.8 -0.00341
49.85 -0.00335
49.9 -0.00333
49.95 -0.00333
50 -0.00333
50.05 -0.00334
50.1 -0.00331
50.15 -0.00324
50.2 -0.00314
50.25 -0.00301
50.3 -0.00296
50.35 -0.00292
50.4 -0.00291
50.45 -0.00287
50.5 -0.00282
50.55 -0.00281
50.6 -0.00274
50.65 -0.00265
50.7 -0.00256
50.75 -0.00253
50.8 -0.00254
50.85 -0.00253
50.9 -0.00251
50.95 -0.00248
51 -0.00249
51.05 -0.00245
51.1 -0.00245
51.15 -0.0024
51.2 -0.00237
51.25 -0.00233
51.3 -0.00231
51.35 -0.00227
51.4 -0.00227
51.45 -0.00229
51.5 -0.00225
51.55 -0.00217
51.6 -0.00208
51.65 -0.00203
51.7 -0.00203
51.75 -0.00203
51.8 -0.00201
51.85 -0.00197
51.9 -0.00194
51.95 -0.00188
52 -0.00181
52.05 -0.00173
52.1 -0.00171
52.15 -0.00169
52.2 -0.00167
52.25 -0.00168
52.3 -0.00168
52.35 -0.00163
52.4 -0.00159
52.45 -0.00159
52.5 -0.00157
52.55 -0.00156
52.6 -0.00158
52.65 -0.00161
52.7 -0.00156
52.75 -0.00147
52.8 -0.0014
52.85 -0.00135
52.9 -0.00127
52.95 -0.00121
53 -0.00116
53.05 -0.00114
53.1 -0.00111
53.15 -0.00107
53.2 -0.00103
53.25 -0.00105
53.3 -0.00107
53.35 -0.00113
53.4 -0.00119
53.45 -0.00123
53.5 -0.00128
53.55 -0.00133
53.6 -0.00136
53.65 -0.00133
53.7 -0.00124
53.75 -0.00119
53.8 -0.00113
53.85 -0.0011
53.9 -0.00104
53.95 -0.00096
54 -0.00091
54.05 -0.00085
54.1 -0.00081
54.15 -0.00082
54.2 -0.00086
54.25 -0.0009
54.3 -0.00089
54.35 -0.00091
54.4 -0.0009
54.45 -0.00085
54.5 -0.00085
54.55 -0.00085
54.6 -0.00084
54.65 -0.00083
54.7 -0.00079
54.75 -0.00078
54.8 -0.00074
54.85 -0.00071
54.9 -0.00066
54.95 -0.00067
55 -0.0007
55.05 -0.00069
55.1 -0.00068
55.15 -0.00062
55.2 -0.00061
55.25 -0.00059
55.3 -0.00062
55.35 -0.00061
55.4 -0.0006
55.45 -0.00056
55.5 -0.00054
55.55 -0.00049
55.6 -0.00042
55.65 -0.00035
55.7 -0.00028
55.75 -0.0003
55.8 -0.0003
55.85 -0.00028
55.9 -0.0003
55.95 -0.00035
56 -0.00035
56.05 -0.00035
56.1 -0.00032
56.15 -0.00035
56.2 -0.00034
56.25 -0.00032
56.3 -0.00035
56.35 -0.0004
56.4 -0.00043
56.45 -0.00049
56.5 -0.0005
56.55 -0.00052
56.6 -0.00047
56.65 -0.00043
56.7 -0.00044
56.75 -0.00043
56.8 -0.00045
56.85 -0.00043
56.9 -0.00042
56.95 -0.00041
57 -0.00044
57.05 -0.00043
57.1 -0.00045
57.15 -0.00041
57.2 -0.00038
57.25 -0.00038
57.3 -0.00037
57.35 -0.00033
57.4 -0.00035
57.45 -0.00038
57.5 -0.00036
57.55 -0.00034
57.6 -0.00031
57.65 -0.00033
57.7 -0.00037
57.75 -0.00044
57.8 -0.00048
57.85 -0.00047
57.9 -0.00049
57.95 -0.00049
58 -0.00047
58.05 -0.0004
58.1 -0.00034
58.15 -0.00028
58.2 -0.00025
58.25 -0.00027
58.3 -0.00029
58.35 -0.00034
58.4 -0.00037
58.45 -0.00041
58.5 -0.00044
58.55 -0.00047
58.6 -0.00046
58.65 -0.0004
58.7 -0.00035
58.75 -0.00028
58.8 -0.00027
58.85 -0.00021
58.9 -0.00014
58.95 -0.00008
59 -0.00002
59.05 0.00001
59.1 0.00003
59.15 -0.00001
59.2 -0.00002
59.25 -0.00006
59.3 -0.00011
59.35 -0.00018
59.4 -0.00018
59.45 -0.00018
59.5 -0.00018
59.55 -0.00016
59.6 -0.00015
59.65 -0.00015
59.7 -0.00019
59.75 -0.00021
59.8 -0.00025
59.85 -0.00023
59.9 -0.00022
59.95 -0.00018
60 -0.00012
60.05 -0.00011
60.1 -0.00009
60.15 -0.00008
60.2 -0.00012
60.25 -0.00018
60.3 -0.00019
60.35 -0.00018
60.4 -0.00018
60.45 -0.00022
60.5 -0.00024
60.55 -0.00023
60.6 -0.00022
60.65 -0.00024
60.7 -0.00024
60.75 -0.00026
60.8 -0.00024
60.85 -0.00021
60.9 -0.00022
60.95 -0.00026
61 -0.00023
61.05 -0.00023
61.1 -0.00022
61.15 -0.00021
61.2 -0.00021
61.25 -0.00017
61.3 -0.00015
61.35 -0.00009
61.4 -0.00007
61.45 -0.00003
61.5 -0.00001
61.55 -0.00003
61.6 -0.00008
61.65 -0.00011
61.7 -0.00017
61.75 -0.00016
61.8 -0.00014
61.85 -0.00016
61.9 -0.00014
61.95 -0.00016
62 -0.00021
62.05 -0.00021
62.1 -0.00021
62.15 -0.00017
62.2 -0.00015
62.25 -0.00012
62.3 -0.00009
62.35 -0.00005
62.4 -0.00006
62.45 -0.00006
62.5 -0.00009
62.55 -0.00009
62.6 -0.00005
62.65 0.00002
62.7 0.00006
62.75 0.00011
62.8 0.00017
62.85 0.00022
62.9 0.00028
62.95 0.00032
63 0.00028
63.05 0.00023
63.1 0.00022
63.15 0.00016
63.2 0.0001
63.25 0.00007
63.3 0.00006
63.35 0.00002
63.4 -0.00006
63.45 -0.0001
63.5 -0.00016
63.55 -0.00023
63.6 -0.00024
63.65 -0.00027
63.7 -0.00031
63.75 -0.00033
63.8 -0.00036
63.85 -0.00031
63.9 -0.00024
63.95 -0.00018
64 -0.00016
64.05 -0.00013
64.1 -0.00011
64.15 -0.00006
64.2 -0.00001
64.25 -0.00001
64.3 -0.00005
64.35 -0.00006
64.4 -0.00004
64.45 -0.00004
64.5 -0.00006
64.55 -0.00004
64.6 -0.00002
64.65 -0.00001
64.7 0.00003
64.75 0.00003
64.8 0.00003
64.85 0.00002
64.9 0.00003
64.95 -0
65 -0.00004
65.05 -0.00004
65.1 -0.00004
65.15 -0.00001
65.2 0.00005
65.25 0.00012
65.3 0.00013
65.35 0.00014
65.4 0.00011
65.45 0.00008
65.5 0.00008
65.55 0.00009
65.6 0.00012
65.65 0.0001
65.7 0.00005
65.75 0.00005
65.8 0.00007
65.85 0.0001
65.9 0.00014
65.95 0.00011
66 0.00006
66.05 0.00005
66.1 0.00007
66.15 0.00007
66.2 0.00009
66.25 0.00013
66.3 0.00016
66.35 0.00015
66.4 0.0001
66.45 0.00009
66.5 0.00006
66.55 0
66.6 0
66.65 0
66.7 -0.00001
66.75 0.00001
66.8 0.00004
66.85 0.00003
66.9 0.00001
66.95 -0.00001
67 0.00001
67.05 0.00003
67.1 0.00008
67.15 0.00014
67.2 0.00018
67.25 0.00022
67.3 0.00025
67.35 0.00028
67.4 0.00032
67.45 0.0003
67.5 0.0003
67.55 0.00027
67.6 0.00026
67.65 0.00026
67.7 0.00018
67.75 0.00012
67.8 0.00003
67.85 -0.00001
67.9 -0.00008
67.95 -0.00016
68 -0.0002
68.05 -0.00026
68.1 -0.00026
68.15 -0.00025
68.2 -0.00024
68.25 -0.00024
68.3 -0.00026
68.35 -0.0003
68.4 -0.00028
68.45 -0.00024
68.5 -0.00017
68.55 -0.00008
68.6 -0.00004
68.65 -0.00005
68.7 -0.00007
68.75 -0.00004
68.8 -0.00001
68.85 -0
68.9 0.00002
68.95 0.00001
69 0
69.05 -0
69.1 0.00001
69.15 0.00004
69.2 0.00004
69.25 0.00006
69.3 0.00006
69.35 0.00005
69.4 0
69.45 -0.00006
69.5 -0.0001
69.55 -0.00008
69.6 -0.00007
69.65 -0.00004
69.7 -0.00007
69.75 -0.00009
69.8 -0.00013
69.85 -0.00014
69.9 -0.00016
69.95 -0.00014
70 -0.0001
70.05 -0.00004
70.1 0.00004
70.15 0.0001
70.2 0.0001
70.25 0.00008
70.3 0.0001
70.35 0.00006
70.4 0.00003
70.45 0
70.5 -0.00004
70.55 -0.00008
70.6 -0.00007
70.65 -0.00006
70.7 -0.00009
70.75 -0.00011
70.8 -0.00012
70.85 -0.00013
70.9 -0.00012
70.95 -0.00014
71 -0.0001
71.05 -0.00004
71.1 0.00001
71.15 0.00009
71.2 0.0001
71.25 0.00008
71.3 0.00002
71.35 -0.00005
71.4 -0.00014
71.45 -0.00018
71.5 -0.00023
71.55 -0.00024
71.6 -0.00027
71.65 -0.00025
71.7 -0.00019
71.75 -0.00018
71.8 -0.00012
71.85 -0.0001
71.9 -0.00009
71.95 -0.00007
72 -0
72.05 0.00002
72.1 0.00006
72.15 0.00009
72.2 0.00009
72.25 0.00009
72.3 0.0001
72.35 0.00006
72.4 0.00004
72.45 -0.00001
72.5 -0.00008
72.55 -0.00013
72.6 -0.00017
72.65 -0.00022
72.7 -0.00026
72.75 -0.00022
72.8 -0.00014
72.85 -0.00003
72.9 0.00007
72.95 0.00016
73 0.00018
73.05 0.00022
73.1 0.00023
73.15 0.00021
73.2 0.00017
73.25 0.00013
73.3 0.00013
73.35 0.00016
73.4 0.00018
73.45 0.00016
73.5 0.00012
73.55 0.00009
73.6 0.0001
73.65 0.00011
73.7 0.00014
73.75 0.00017
73.8 0.00021
73.85 0.00025
73.9 0.00023
73.95 0.0002
74 0.00018
74.05 0.00015
74.1 0.00013
74.15 0.00013
74.2 0.0001
74.25 0.00005
74.3 -0.00003
74.35 -0.00006
74.4 -0.00008
74.45 -0.00005
74.5 0.00001
74.55 0.00005
74.6 0.0001
74.65 0.00011
74.7 0.00007
74.75 0.00005
74.8 0.00001
74.85 -0.00004
74.9 -0.0001
74.95 -0.00012
75 -0.00014
75.05 -0.00012
75.1 -0.00006
75.15 -0.00001
75.2 0
75.25 -0.00002
75.3 -0.00004
75.35 -0.00002
75.4 -0.00002
75.45 -0.00006
75.5 -0.00011
75.55 -0.00013
75.6 -0.00011
75.65 -0.00009
75.7 -0.00007
75.75 -0.0001
75.8 -0.00015
75.85 -0.00014
75.9 -0.00011
75.95 -0.00005
76 0.00002
76.05 0.0001
76.1 0.00015
76.15 0.0002
76.2 0.00019
76.25 0.00021
76.3 0.00019
76.35 0.00019
76.4 0.00012
76.45 0.00006
76.5 0.00001
76.55 -0.00004
76.6 -0.00004
76.65 -0.00005
76.7 -0.00008
76.75 -0.00009
76.8 -0.00007
76.85 -0.00004
76.9 -0.00004
76.95 -0.00001
77 0.00003
77.05 0.00006
77.1 0.00004
77.15 0.00001
77.2 0
77.25 -0.00004
77.3 -0.00008
77.35 -0.00008
77.4 -0.00009
77.45 -0.00012
77.5 -0.00013
77.55 -0.00013
77.6 -0.00017
77.65 -0.00017
77.7 -0.00013
77.75 -0.00014
77.8 -0.00013
77.85 -0.00013
77.9 -0.00013
77.95 -0.00017
78 -0.00019
78.05 -0.00021
78.1 -0.00025
78.15 -0.00027
78.2 -0.0003
78.25 -0.00028
78.3 -0.00026
78.35 -0.00022
78.4 -0.00013
78.45 -0.00006
78.5 0
78.55 0.00006
78.6 0.00006
78.65 0.00003
78.7 0.00003
78.75 0.00005
78.8 0.00002
78.85 -0.00004
78.9 -0.00011
78.95 -0.00017
79 -0.00018
79.05 -0.0002
79.1 -0.00025
79.15 -0.00025
79.2 -0.00023
79.25 -0.00019
79.3 -0.00019
79.35 -0.00018
79.4 -0.00018
79.45 -0.0002
79.5 -0.0002
79.55 -0.00016
79.6 -0.00014
79.65 -0.00011
79.7 -0.00013
79.75 -0.00012
79.8 -0.00009
79.85 -0.00007
79.9 -0.00003
79.95 0.00001
80 0.00003
80.05 0.00006
80.1 0.00007
80.15 0.00009
80.2 0.00014
80.25 0.00015
80.3 0.00018
80.35 0.00022
80.4 0.00023
80.45 0.00022
80.5 0.00017
80.55 0.00015
80.6 0.00015
80.65 0.00016
80.7 0.00019
80.75 0.0002
80.8 0.00017
80.85 0.00014
80.9 0.00012
80.95 0.00009
81 0.00002
81.05 -0.00007
81.1 -0.00016
81.15 -0.00017
81.2 -0.00014
81.25 -0.00012
81.3 -0.00013
81.35 -0.00012
81.4 -0.00007
81.45 -0.00002
81.5 0.00007
81.55 0.00014
81.6 0.00017
81.65 0.0002
81.7 0.00017
81.75 0.00013
81.8 0.00009
81.85 0.00007
81.9 0.00003
81.95 0.00004
82 0.00006
82.05 0.00006
82.1 0.00005
82.15 0.00007
82.2 0.00005
82.25 0.00003
82.3 -0.00001
82.35 -0.00007
82.4 -0.00014
82.45 -0.00022
82.5 -0.00027
82.55 -0.00028
82.6 -0.00025
82.65 -0.00025
82.7 -0.00019
82.75 -0.00015
82.8 -0.00011
82.85 -0.0001
82.9 -0.00009
82.95 -0.0001
83 -0.00013
83.05 -0.00014
83.1 -0.00011
83.15 -0.00007
83.2 -0.00001
83.25 0.00003
83.3 0.00008
83.35 0.00014
83.4 0.0002
83.45 0.00024
83.5 0.00021
83.55 0.00018
83.6 0.00015
83.65 0.00011
83.7 0.00006
83.75 0.00003
83.8 0.00001
83.85 0.00004
83.9 0.00003
83.95 0.00002
84 0.00002
84.05 0
84.1 0.00001
84.15 0.00006
84.2 0.00011
84.25 0.00009
84.3 0.00004
84.35 -0.00002
84.4 -0.00002
84.45 -0.00001
84.5 0.00002
84.55 -0.00001
84.6 -0.00005
84.65 -0.00008
84.7 -0.00006
84.75 -0.00008
84.8 -0.00011
84.85 -0.00013
84.9 -0.00014
84.95 -0.00015
85 -0.00018
85.05 -0.00017
85.1 -0.00017
85.15 -0.0002
85.2 -0.00021
85.25 -0.00019
85.3 -0.00017
85.35 -0.00014
85.4 -0.00014
85.45 -0.00013
85.5 -0.00014
85.55 -0.00017
85.6 -0.00013
85.65 -0.00007
85.7 -0.00003
85.75 -0.00003
85.8 0
85.85 0.00004
85.9 0.00003
85.95 0.00004
86 0.00007
86.05 0.00009
86.1 0.00014
86.15 0.00016
86.2 0.00016
86.25 0.00018
86.3 0.00016
86.35 0.00015
86.4 0.00016
86.45 0.00019
86.5 0.00021
86.55 0.0002
86.6 0.00022
86.65 0.0002
86.7 0.00016
86.75 0.00014
86.8 0.00008
86.85 0.00003
86.9 0.00002
86.95 -0.00003
87 -0.00008
87.05 -0.00012
87.1 -0.00018
87.15 -0.00021
87.2 -0.00024
87.25 -0.00027
87.3 -0.00026
87.35 -0.00026
87.4 -0.00028
87.45 -0.00023
87.5 -0.00022
87.55 -0.00023
87.6 -0.00024
87.65 -0.00023
87.7 -0.00022
87.75 -0.00021
87.8 -0.0002
87.85 -0.00015
87.9 -0.00006
87.95 0.00004
88 0.00011
88.05 0.00017
88.1 0.0002
88.15 0.00021
88.2 0.00022
88.25 0.0002
88.3 0.00017
88.35 0.00014
88.4 0.00011
88.45 0.00013
88.5 0.00011
88.55 0.00013
88.6 0.00011
88.65 0.00009
88.7 0.00006
88.75 0.00003
88.8 0
88.85 0.00002
88.9 0.00007
88.95 0.00014
89 0.00016
89.05 0.00017
89.1 0.00017
89.15 0.00013
89.2 0.00008
89.25 0.00003
89.3 -0.00002
89.35 -0.00009
89.4 -0.00012
89.45 -0.00011
89.5 -0.00007
89.55 -0.00003
89.6 0.00002
89.65 0.00009
89.7 0.00011
89.75 0.0001
89.8 0.00006
89.85 0.00001
89.9 0.00001
89.95 -0.00002
90 -0.00004
90.05 -0.00003
90.1 0.00002
90.15 0.00005
90.2 0.00006
90.25 0.00006
90.3 0.00005
90.35 0.00001
90.4 -0.00005
90.45 -0.00011
90.5 -0.00013
90.55 -0.00012
90.6 -0.0001
90.65 -0.00006
90.7 -0.00002
90.75 -0.00001
90.8 -0
90.85 0.00003
90.9 0.00009
90.95 0.00016
91 0.00015
91.05 0.00016
91.1 0.00018
91.15 0.0002
91.2 0.00023
91.25 0.00025
91.3 0.00021
91.35 0.00015
91.4 0.0001
91.45 0.00005
91.5 0.00001
91.55 0.00001
91.6 0.00003
91.65 0.00004
91.7 0
91.75 -0.00003
91.8 -0.00001
91.85 -0.00002
91.9 -0.00004
91.95 -0.00005
92 -0.00001
92.05 0.00005
92.1 0.00006
92.15 0.00009
92.2 0.00011
92.25 0.00012
92.3 0.00011
92.35 0.00012
92.4 0.00008
92.45 0
92.5 -0.00004
92.55 -0.00011
92.6 -0.00018
92.65 -0.00019
92.7 -0.00022
92.75 -0.00018
92.8 -0.00015
92.85 -0.00008
92.9 -0.00001
92.95 0.00001
93 -0
93.05 0.00001
93.1 0.00004
93.15 0.00001
93.2 -0.00005
93.25 -0.00009
93.3 -0.00014
93.35 -0.00018
93.4 -0.0002
93.45 -0.00015
93.5 -0.00008
93.55 -0.00003
93.6 0.00004
93.65 0.00009
93.7 0.00012
93.75 0.00014
93.8 0.00016
93.85 0.00013
93.9 0.00009
93.95 0.0001
94 0.00011
94.05 0.00007
94.1 -0.00001
94.15 -0.00007
94.2 -0.00006
94.25 -0.00009
94.3 -0.00013
94.35 -0.0002
94.4 -0.00026
94.45 -0.00024
94.5 -0.00025
94.55 -0.00022
94.6 -0.00017
94.65 -0.00015
94.7 -0.00013
94.75 -0.00009
94.8 -0.00007
94.85 -0.00005
94.9 -0.00006
94.95 -0.00003
95 -0.00001
95.05 -0.00002
95.1 -0
95.15 0.00002
95.2 0.00007
95.25 0.00007
95.3 0.0001
95.35 0.00007
95.4 0.00002
95.45 0.00003
95.5 0.00001
95.55 0.00004
95.6 0.00005
95.65 0.00001
95.7 -0.00006
95.75 -0.00008
95.8 -0.00004
95.85 0.00002
95.9 0.00008
95.95 0.0001
96 0.0001
96.05 0.0001
96.1 0.00011
96.15 0.00008
96.2 0.00002
96.25 -0.00005
96.3 -0.00008
96.35 -0.00007
96.4 -0.00007
96.45 -0.00006
96.5 -0.00003
96.55 0.00001
96.6 0.00006
96.65 0.00012
96.7 0.00013
96.75 0.00014
96.8 0.0001
96.85 0.00003
96.9 0.00003
96.95 0.00004
97 0.00008
97.05 0.00014
97.1 0.00012
97.15 0.00006
97.2 0.00001
97.25 -0.00001
97.3 -0.00007
97.35 -0.00012
97.4 -0.00015
97.45 -0.00018
97.5 -0.00021
97.55 -0.00026
97.6 -0.00022
97.65 -0.00016
97.7 -0.00014
97.75 -0.00006
97.8 0.00002
97.85 0.00008
97.9 0.00008
97.95 0.0001
98 0.00013
98.05 0.00013
98.1 0.00012
98.15 0.00011
98.2 0.00007
98.25 0.00005
98.3 0.00002
98.35 0
98.4 -0.00001
98.45 0.00001
98.5 0.00001
98.55 0.00004
98.6 0.00003
98.65 -0.00002
98.7 -0.00005
98.75 -0.0001
98.8 -0.00013
98.85 -0.0001
98.9 -0.0001
98.95 -0.00006
99 0
99.05 -0
99.1 -0.00003
99.15 -0.00008
99.2 -0.00008
99.25 -0.00011
99.3 -0.00011
99.35 -0.00006
99.4 -0
99.45 0.00004
99.5 0.00004
99.55 0.00002
99.6 0.00005
99.65 0.00006
99.7 0.00006
99.75 0.00008
99.8 0.00012
99.85 0.0001
99.9 0.00009
99.95 0.00004
