0 0
0.05 0.00005
0.1 0.00013
0.15 0.00019
0.2 0.00024
0.25 0.00027
0.3 0.0003
0.35 0.00031
0.4 0.0003
0.45 0.00033
0.5 0.00037
0.55 0.00042
0.6 0.00042
0.65 0.00042
0.7 0.00043
0.75 0.00042
0.8 0.00039
0.85 0.00035
0.9 0.00032
0.95 0.00032
1 0.00035
1.05 0.0004
1.1 0.00044
1.15 0.00047
1.2 0.00044
1.25 0.00045
1.3 0.00043
1.35 0.00039
1.4 0.00038
1.45 0.00039
1.5 0.00038
1.55 0.00035
1.6 0.00033
1.65 0.0003
1.7 0.00029
1.75 0.00031
1.8 0.00031
1.85 0.00029
1.9 0.00026
1.95 0.00026
2 0.00028
2.05 0.00027
2.1 0.00024
2.15 0.00026
2.2 0.00028
2.25 0.00028
2.3 0.00025
2.35 0.0002
2.4 0.00013
2.45 0.00012
2.5 0.00011
2.55 0.00009
2.6 0.0001
2.65 0.00012
2.7 0.00011
2.75 0.00012
2.8 0.00013
2.85 0.00013
2.9 0.00012
2.95 0.00011
3 0.00014
3.05 0.00017
3.1 0.00021
3.15 0.00024
3.2 0.00024
3.25 0.00021
3.3 0.0002
3.35 0.00018
3.4 0.00014
3.45 0.00013
3.5 0.00012
3.55 0.00008
3.6 0.00005
3.65 0
3.7 -0.00002
3.75 -0.00003
3.8 -0.00004
3.85 -0.00001
3.9 0.00003
3.95 0.00003
4 0.00006
4.05 0.00012
4.1 0.00018
4.15 0.00022
4.2 0.00024
4.25 0.00023
4.3 0.00021
4.35 0.00016
4.4 0.00012
4.45 0.00009
4.5 0.00006
4.55 0.00003
4.6 0.00002
4.65 -0.00002
4.7 -0.00006
4.75 -0.0001
4.8 -0.00008
4.85 -0.00004
4.9 -0.00002
4.95 -0.00002
5 0.00002
5.05 0.00008
5.1 0.00012
5.15 0.00017
5.2 0.0002
5.25 0.0002
5.3 0.00023
5.35 0.00023
5.4 0.00019
5.45 0.00014
5.5 0.00007
5.55 -0.00001
5.6 -0.00004
5.65 -0.00004
5.7 -0.00002
5.75 0.00004
5.8 0.0001
5.85 0.00014
5.9 0.00018
5.95 0.00016
6 0.00013
6.05 0.00008
6.1 0.00008
6.15 0.00011
6.2 0.00012
6.25 0.00012
6.3 0.00011
6.35 0.00011
6.4 0.00012
6.45 0.00011
6.5 0.00013
6.55 0.00014
6.6 0.00017
6.65 0.00015
6.7 0.00015
6.75 0.00015
6.8 0.00012
6.85 0.0001
6.9 0.00007
6.95 0.00005
7 0.00006
7.05 0.00004
7.1 0.00001
7.15 0.00001
7.2 0.00004
7.25 0.00009
7.3 0.00013
7.35 0.00014
7.4 0.00016
7.45 0.00014
7.5 0.0001
7.55 0.0001
7.6 0.00007
7.65 0.00007
7.7 0.00008
7.75 0.00012
7.8 0.00014
7.85 0.00011
7.9 0.00009
7.95 0.00006
8 0.00004
8.05 0.00004
8.1 0.00005
8.15 0.00008
8.2 0.0001
8.25 0.00012
8.3 0.00011
8.35 0.0001
8.4 0.00011
8.45 0.0001
8.5 0.00008
8.55 0.0001
8.6 0.0001
8.65 0.0001
8.7 0.00007
8.75 0.00003
8.8 0.00001
8.85 0.00001
8.9 -0.00001
8.95 -0.00006
9 -0.00005
9.05 -0.00002
9.1 -0.00002
9.15 -0.00001
9.2 -0.00001
9.25 -0.00003
9.3 -0.00001
9.35 0.00003
9.4 0.00002
9.45 0.00001
9.5 0.00003
9.55 0.00002
9.6 0.00001
9.65 -0.00002
9.7 -0.00002
9.75 -0.00004
9.8 -0.00005
9.85 -0.00002
9.9 -0.00001
9.95 0
10 -0.00003
10.05 -0.00003
10.1 -0.00001
10.15 -0.00003
10.2 -0.00006
10.25 -0.0001
10.3 -0.00014
10.35 -0.00018
10.4 -0.00015
10.45 -0.00012
10.5 -0.00007
10.55 -0.00001
10.6 0.00006
10.65 0.00014
10.7 0.00017
10.75 0.00016
10.8 0.00011
10.85 0.00011
10.9 0.00011
10.95 0.00012
11 0.00011
11.05 0.00007
11.1 0.00005
11.15 0.00005
11.2 0.00007
11.25 0.00008
11.3 0.00009
11.35 0.00008
11.4 0.0001
11.45 0.00013
11.5 0.00014
11.55 0.00013
11.6 0.00011
11.65 0.00008
11.7 0.00004
11.75 0.00002
11.8 0
11.85 -0.00004
11.9 -0.00004
11.95 -0
12 0
12.05 0.00003
12.1 0.00004
12.15 0.00003
12.2 -0.00001
12.25 -0
12.3 0.00002
12.35 0.00005
12.4 0.00004
12.45 0.00006
12.5 0.00007
12.55 0.00011
12.6 0.00009
12.65 0.00005
12.7 0.00003
12.75 0.00004
12.8 0.00006
12.85 0.00008
12.9 0.00011
12.95 0.00013
13 0.0001
13.05 0.0001
13.1 0.0001
13.15 0.0001
13.2 0.00007
13.25 0.00001
13.3 -0.00003
13.35 -0.00004
13.4 -0.00002
13.45 -0
13.5 -0
13.55 -0
13.6 -0.00001
13.65 -0.00004
13.7 -0.00005
13.75 -0.00009
13.8 -0.00008
13.85 -0.0001
13.9 -0.00013
13.95 -0.00014
14 -0.00012
14.05 -0.00011
14.1 -0.00007
14.15 -0.00004
14.2 -0.00005
14.25 -0.00004
14.3 -0.00002
14.35 -0.00002
14.4 0.00001
14.45 0.00001
14.5 0.00002
14.55 0.00002
14.6 0.00005
14.65 0.00008
14.7 0.00008
14.75 0.00004
14.8 -0
14.85 -0.00005
14.9 -0.00009
14.95 -0.00014
15 -0.00013
15.05 -0.00009
15.1 -0.00008
15.15 -0.00005
15.2 -0.00004
15.25 -0.00006
15.3 -0.00004
15.35 -0.00004
15.4 -0.00004
15.45 -0.00004
15.5 -0.00003
15.55 -0.00003
15.6 -0.00006
15.65 -0.00005
15.7 -0.00005
15.75 -0.00003
15.8 -0.00003
15.85 -0.00005
15.9 -0.00006
15.95 -0.00008
16 -0.00012
16.05 -0.00012
16.1 -0.00015
16.15 -0.00018
16.2 -0.00015
16.25 -0.00016
16.3 -0.00014
16.35 -0.00009
16.4 -0.00008
16.45 -0.00008
16.5 -0.00006
16.55 -0.00006
16.6 -0.00005
16.65 -0.00006
16.7 -0.00004
16.75 -0.00001
16.8 -0.00001
16.85 0
16.9 0.00003
16.95 0.00005
17 0.00003
17.05 0.00003
17.1 0.00007
17.15 0.0001
17.2 0.0001
17.25 0.00009
17.3 0.00009
17.35 0.00008
17.4 0.00008
17.45 0.00008
17.5 0.0001
17.55 0.00011
17.6 0.00015
17.65 0.00016
17.7 0.00015
17.75 0.00013
17.8 0.00012
17.85 0.00008
17.9 0.00003
17.95 -0.00002
18 -0.00007
18.05 -0.00008
18.1 -0.00008
18.15 -0.00005
18.2 -0.00002
18.25 -0.00001
18.3 0
18.35 0.00003
18.4 0.00009
18.45 0.00013
18.5 0.00012
18.55 0.00014
18.6 0.00014
18.65 0.00012
18.7 0.00009
18.75 0.00007
18.8 0.00003
18.85 -0.00002
18.9 -0.00007
18.95 -0.00009
19 -0.00012
19.05 -0.00013
19.1 -0.00011
19.15 -0.00007
19.2 -0.00006
19.25 -0.00002
19.3 -0
19.35 -0.00002
19.4 0
19.45 0
19.5 -0
19.55 0.00002
19.6 0
19.65 -0.00001
19.7 -0.00003
19.75 -0.00002
19.8 -0.00004
19.85 -0.00003
19.9 -0.00002
19.95 0
20 -0
20.05 0.00003
20.1 0.00003
20.15 0.00002
20.2 -0.00001
20.25 -0.00003
20.3 -0.00007
20.35 -0.00008
20.4 -0.00007
20.45 -0.00008
20.5 -0.00009
20.55 -0.00005
20.6 -0.00006
20.65 -0.00005
20.7 -0.00004
20.75 -0.00003
20.8 -0.00002
20.85 -0.00005
20.9 -0.00005
20.95 -0.00002
21 -0
21.05 0.00004
21.1 0.00007
21.15 0.00007
21.2 0.00004
21.25 0.00002
21.3 0.00004
21.35 0.00007
21.4 0.00007
21.45 0.00003
21.5 0.00003
21.55 0.00003
21.6 0.00005
21.65 0.00009
21.7 0.00009
21.75 0.00007
21.8 0.00008
21.85 0.00008
21.9 0.00004
21.95 0.00002
22 -0.00002
22.05 -0.00005
22.1 -0.00008
22.15 -0.00007
22.2 -0.00004
22.25 -0.00004
22.3 -0.00005
22.35 -0.00008
22.4 -0.0001
22.45 -0.00008
22.5 -0.00008
22.55 -0.00007
22.6 -0.00007
22.65 -0.00005
22.7 -0.00002
22.75 0
22.8 0.00002
22.85 0.00007
22.9 0.00009
22.95 0.00012
23 0.00014
23.05 0.00016
23.1 0.00016
23.15 0.00017
23.2 0.00015
23.25 0.00012
23.3 0.00007
23.35 0.00005
23.4 0.00004
23.45 0.00001
23.5 -0.00005
23.55 -0.00008
23.6 -0.00007
23.65 -0.00006
23.7 -0.00009
23.75 -0.0001
23.8 -0.00007
23.85 -0.00008
23.9 -0.00005
23.95 -0.00005
24 -0.00007
24.05 -0.00008
24.1 -0.0001
24.15 -0.00013
24.2 -0.00012
24.25 -0.00009
24.3 -0.00009
24.35 -0.00009
24.4 -0.0001
24.45 -0.00008
24.5 -0.00008
24.55 -0.0001
24.6 -0.00011
24.65 -0.00015
24.7 -0.00013
24.75 -0.00008
24.8 -0.00004
24.85 0.00001
24.9 0.00006
24.95 0.0001
25 0.0001
25.05 0.00009
25.1 0.00004
25.15 0.00002
25.2 -0.00002
25.25 -0.00003
25.3 -0.00007
25.35 -0.00009
25.4 -0.00009
25.45 -0.00005
25.5 -0.00005
25.55 -0.00001
25.6 0.00004
25.65 0.00006
25.7 0.00008
25.75 0.00008
25.8 0.00009
25.85 0.00008
25.9 0.00007
25.95 0.00009
26 0.0001
26.05 0.00008
26.1 0.00007
26.15 0.00007
26.2 0.0001
26.25 0.00012
26.3 0.0001
26.35 0.00005
26.4 0.00004
26.45 0.00006
26.5 0.00005
26.55 0.00002
26.6 -0.00003
26.65 -0.00004
26.7 -0.00002
26.75 0.00002
26.8 0.00005
26.85 0.00009
26.9 0.00011
26.95 0.00008
27 0.00005
27.05 0.00002
27.1 -0.00003
27.15 -0.00008
27.2 -0.00014
27.25 -0.0002
27.3 -0.00019
27.35 -0.00019
27.4 -0.00015
27.45 -0.00008
27.5 -0.00006
27.55 -0.00007
27.6 -0.00008
27.65 -0.00011
27.7 -0.0001
27.75 -0.00011
27.8 -0.00009
27.85 -0.00003
27.9 0.00003
27.95 0.00005
28 0.00004
28.05 0.00004
28.1 0.00002
28.15 0.00003
28.2 0.00005
28.25 0.00004
28.3 0
28.35 -0.00004
28.4 -0.00003
28.45 -0.00004
28.5 -0.00003
28.55 -0.00004
28.6 -0.00003
28.65 0
28.7 0.00006
28.75 0.00009
28.8 0.00013
28.85 0.00016
28.9 0.00017
28.95 0.00013
29 0.0001
29.05 0.00009
29.1 0.00008
29.15 0.00008
29.2 0.00009
29.25 0.00012
29.3 0.0001
29.35 0.00009
29.4 0.00005
29.45 -0.00001
29.5 -0.00003
29.55 -0.00005
29.6 -0.00009
29.65 -0.00013
29.7 -0.00015
29.75 -0.00015
29.8 -0.00014
29.85 -0.00009
29.9 -0.00009
29.95 -0.00009
30 -0.00006
30.05 -0.00006
30.1 -0.00007
30.15 -0.00005
30.2 -0.00003
30.25 0.00001
30.3 0.00003
30.35 0.00003
30.4 0.00004
30.45 0.00003
30.5 0.00002
30.55 -0.00002
30.6 -0.00004
30.65 -0.00004
30.7 -0.00005
30.75 -0.00004
30.8 -0.00003
30.85 -0.00001
30.9 -0.00002
30.95 -0.00006
31 -0.0001
31.05 -0.00015
31.1 -0.00015
31.15 -0.00016
31.2 -0.00011
31.25 -0.00005
31.3 -0.00003
31.35 0.00001
31.4 0.00001
31.45 0
31.5 0
31.55 -0.00001
31.6 -0.00005
31.65 -0.00004
31.7 -0.00005
31.75 -0.00008
31.8 -0.00007
31.85 -0.00008
31.9 -0.00007
31.95 -0.00007
32 -0.0001
32.05 -0.00008
32.1 -0.00004
32.15 -0.00004
32.2 -0.00004
32.25 -0.00003
32.3 -0.00003
32.35 -0.00006
32.4 -0.00005
32.45 -0.00007
32.5 -0.00009
32.55 -0.00009
32.6 -0.00008
32.65 -0.00006
32.7 -0.00007
32.75 -0.00005
32.8 -0.00004
32.85 -0
32.9 0.00006
32.95 0.00009
33 0.00008
33.05 0.00009
33.1 0.00008
33.15 0.00008
33.2 0.0001
33.25 0.00011
33.3 0.00007
33.35 0.00005
33.4 0.00005
33.45 0.00003
33.5 -0.00001
33.55 -0.00005
33.6 -0.00007
33.65 -0.00008
33.7 -0.00009
33.75 -0.0001
33.8 -0.00008
33.85 -0.0001
33.9 -0.00012
33.95 -0.00016
34 -0.00018
34.05 -0.00014
34.1 -0.00013
34.15 -0.0001
34.2 -0.00011
34.25 -0.0001
34.3 -0.00005
34.35 0.00002
34.4 0.00008
34.45 0.00011
34.5 0.00012
34.55 0.00014
34.6 0.00014
34.65 0.00011
34.7 0.0001
34.75 0.00004
34.8 -0.00001
34.85 -0.00002
34.9 -0.00001
34.95 0.00002
35 0.00007
35.05 0.0001
35.1 0.00013
35.15 0.00014
35.2 0.00015
35.25 0.00013
35.3 0.00015
35.35 0.00012
35.4 0.00008
35.45 0.00001
35.5 -0.00006
35.55 -0.00009
35.6 -0.00013
35.65 -0.00017
35.7 -0.00016
35.75 -0.00012
35.8 -0.00007
35.85 -0.00003
35.9 0.00001
35.95 0.00003
36 0.00003
36.05 0.00002
36.1 0.00001
36.15 0.00001
36.2 -0.00003
36.25 -0.00007
36.3 -0.00009
36.35 -0.00012
36.4 -0.00011
36.45 -0.00011
36.5 -0.0001
36.55 -0.0001
36.6 -0.0001
36.65 -0.00008
36.7 -0.00006
36.75 -0.00005
36.8 -0.00005
36.85 -0.00006
36.9 -0.00005
36.95 -0.00002
37 0.00003
37.05 0.0001
37.1 0.00011
37.15 0.00011
37.2 0.00008
37.25 0.00007
37.3 0.00004
37.35 0.00002
37.4 0.00001
37.45 0.00002
37.5 -0.00001
37.55 -0.00006
37.6 -0.00009
37.65 -0.00012
37.7 -0.00012
37.75 -0.00012
37.8 -0.00012
37.85 -0.00011
37.9 -0.00011
37.95 -0.00011
38 -0.00009
38.05 -0.00006
38.1 -0.00004
38.15 -0.00003
38.2 -0.00003
38.25 0.00002
38.3 0.00008
38.35 0.0001
38.4 0.00014
38.45 0.00018
38.5 0.00017
38.55 0.00014
38.6 0.0001
38.65 0.00004
38.7 -0.00002
38.75 -0.00008
38.8 -0.00011
38.85 -0.00014
38.9 -0.00014
38.95 -0.00013
39 -0.00008
39.05 -0.00004
39.1 -0.00001
39.15 0.00004
39.2 0.00004
39.25 0.00003
39.3 0.00004
39.35 0.00008
39.4 0.00012
39.45 0.00011
39.5 0.00013
39.55 0.00014
39.6 0.00015
39.65 0.00017
39.7 0.00017
39.75 0.00012
39.8 0.00007
39.85 0.00005
39.9 -0.00002
39.95 -0.0001
40 -0.00016
40.05 -0.00022
40.1 -0.00031
40.15 -0.00045
40.2 -0.00062
40.25 -0.00076
40.3 -0.00095
40.35 -0.00111
40.4 -0.00133
40.45 -0.00159
40.5 -0.0019
40.55 -0.00222
40.6 -0.00254
40.65 -0.00289
40.7 -0.00331
40.75 -0.00381
40.8 -0.00433
40.85 -0.00492
40.9 -0.00551
40.95 -0.00618
41 -0.00687
41.05 -0.00756
41.1 -0.00831
41.15 -0.00908
41.2 -0.00987
41.25 -0.01063
41.3 -0.01139
41.35 -0.01214
41.4 -0.01281
41.45 -0.01343
41.5 -0.01394
41.55 -0.01432
41.6 -0.01451
41.65 -0.01452
41.7 -0.01429
41.75 -0.01386
41.8 -0.01315
41.85 -0.01216
41.9 -0.0109
41.95 -0.00939
42 -0.00768
42.05 -0.00576
42.1 -0.00362
42.15 -0.00125
42.2 0.0013
42.25 0.00402
42.3 0.00685
42.35 0.00973
42.4 0.01258
42.45 0.01539
42.5 0.01814
42.55 0.02072
42.6 0.02305
42.65 0.02509
42.7 0.0268
42.75 0.02815
42.8 0.0291
42.85 0.02962
42.9 0.02967
42.95 0.0293
43 0.02842
43.05 0.0271
43.1 0.02537
43.15 0.02326
43.2 0.02073
43.25 0.01788
43.3 0.01474
43.35 0.01138
43.4 0.00789
43.45 0.00432
43.5 0.00076
43.55 -0.00272
43.6 -0.00609
43.65 -0.00931
43.7 -0.01232
43.75 -0.01508
43.8 -0.01755
43.85 -0.01974
43.9 -0.02161
43.95 -0.02312
44 -0.0243
44.05 -0.02511
44.1 -0.02552
44.15 -0.02559
44.2 -0.02534
44.25 -0.02481
44.3 -0.02406
44.35 -0.02309
44.4 -0.02195
44.45 -0.02065
44.5 -0.01918
44.55 -0.01758
44.6 -0.01593
44.65 -0.0142
44.7 -0.01244
44.75 -0.01069
44.8 -0.00898
44.85 -0.00733
44.9 -0.0057
44.95 -0.00419
45 -0.00276
45.05 -0.00139
45.1 -0.0001
45.15 0.00114
45.2 0.00224
45.25 0.00327
45.3 0.00419
45.35 0.00504
45.4 0.00581
45.45 0.00647
45.5 0.00711
45.55 0.00768
45.6 0.00814
45.65 0.00851
45.7 0.00884
45.75 0.00912
45.8 0.00935
45.85 0.00955
45.9 0.00968
45.95 0.00981
46 0.00989
46.05 0.00995
46.1 0.00994
46.15 0.00988
46.2 0.00979
46.25 0.00968
46.3 0.00957
46.35 0.00945
46.4 0.00928
46.45 0.00913
46.5 0.00898
46.55 0.00878
46.6 0.00858
46.65 0.00835
46.7 0.00812
46.75 0.00787
46.8 0.00765
46.85 0.00741
46.9 0.00714
46.95 0.00685
47 0.00659
47.05 0.00632
47.1 0.00607
47.15 0.00586
47.2 0.00565
47.25 0.00547
47.3 0.00525
47.35 0.00506
47.4 0.00489
47.45 0.00468
47.5 0.00448
47.55 0.0043
47.6 0.00408
47.65 0.00386
47.7 0.00367
47.75 0.00353
47.8 0.00338
47.85 0.00321
47.9 0.00307
47.95 0.00296
48 0.00282
48.05 0.0027
48.1 0.00258
48.15 0.00244
48.2 0.00231
48.25 0.00218
48.3 0.00208
48.35 0.00197
48.4 0.00185
48.45 0.00175
48.5 0.00162
48.55 0.00147
48.6 0.00134
48.65 0.00124
48.7 0.00117
48.75 0.00108
48.8 0.00097
48.85 0.00086
48.9 0.00074
48.95 0.00065
49 0.00057
49.05 0.00052
49.1 0.00049
49.15 0.00046
49.2 0.00042
49.25 0.00036
49.3 0.00027
49.35 0.00016
49.4 0.00002
49.45 -0.00011
49.5 -0.00023
49.55 -0.0003
49.6 -0.00035
49.65 -0.00043
49.7 -0.00052
49.75 -0.00061
49.8 -0.00069
49.85 -0.00075
49.9 -0.00077
49.95 -0.00076
50 -0.00079
50.05 -0.00083
50.1 -0.00087
50.15 -0.00087
50.2 -0.0009
50.25 -0.00091
50.3 -0.00094
50.35 -0.00096
50.4 -0.00097
50.45 -0.00096
50.5 -0.00094
50.55 -0.00094
50.6 -0.001
50.65 -0.00107
50.7 -0.00109
50.75 -0.00108
50.8 -0.00112
50.85 -0.00115
50.9 -0.00117
50.95 -0.00117
51 -0.0012
51.05 -0.00121
51.1 -0.00123
51.15 -0.00123
51.2 -0.00121
51.25 -0.0012
51.3 -0.0012
51.35 -0.00123
51.4 -0.00123
51.45 -0.00124
51.5 -0.00128
51.55 -0.00132
51.6 -0.00129
51.65 -0.00127
51.7 -0.00122
51.75 -0.00116
51.8 -0.00112
51.85 -0.00108
51.9 -0.00105
51.95 -0.00107
52 -0.00105
52.05 -0.00105
52.1 -0.00103
52.15 -0.00104
52.2 -0.00104
52.25 -0.00106
52.3 -0.00109
52.35 -0.0011
52.4 -0.00111
52.45 -0.00109
52.5 -0.0011
52.55 -0.00109
52.6 -0.00108
52.65 -0.00105
52.7 -0.00099
52.75 -0.00098
52.8 -0.00097
52.85 -0.00097
52.9 -0.00097
52.95 -0.00099
53 -0.00097
53.05 -0.00093
53.1 -0.00087
53.15 -0.00082
53.2 -0.00076
53.25 -0.00074
53.3 -0.0007
53.35 -0.00068
53.4 -0.00069
53.45 -0.00072
53.5 -0.00075
53.55 -0.00076
53.6 -0.00078
53.65 -0.00081
53.7 -0.00082
53.75 -0.00084
53.8 -0.00084
53.85 -0.00085
53.9 -0.00082
53.95 -0.0008
54 -0.00076
54.05 -0.00069
54.1 -0.00067
54.15 -0.00064
54.2 -0.00058
54.25 -0.00054
54.3 -0.00051
54.35 -0.00048
54.4 -0.00045
54.45 -0.00045
54.5 -0.00044
54.55 -0.00041
54.6 -0.0004
54.65 -0.00044
54.7 -0.00049
54.75 -0.00053
54.8 -0.00053
54.85 -0.00054
54.9 -0.00051
54.95 -0.00048
55 -0.00047
55.05 -0.00044
55.1 -0.00041
55.15 -0.00038
55.2 -0.00038
55.25 -0.00041
55.3 -0.00044
55.35 -0.00044
55.4 -0.00046
55.45 -0.00045
55.5 -0.00043
55.55 -0.0004
55.6 -0.00035
55.65 -0.00034
55.7 -0.00036
55.75 -0.00034
55.8 -0.00036
55.85 -0.00038
55.9 -0.00037
55.95 -0.00033
56 -0.00029
56.05 -0.00028
56.1 -0.0003
56.15 -0.00033
56.2 -0.00036
56.25 -0.0004
56.3 -0.00045
56.35 -0.00045
56.4 -0.00041
56.45 -0.00034
56.5 -0.00031
56.55 -0.0003
56.6 -0.0003
56.65 -0.00027
56.7 -0.00024
56.75 -0.00025
56.8 -0.00024
56.85 -0.00022
56.9 -0.00022
56.95 -0.00025
57 -0.0003
57.05 -0.00036
57.1 -0.00037
57.15 -0.00036
57.2 -0.00032
57.25 -0.00031
57.3 -0.00028
57.35 -0.00024
57.4 -0.00017
57.45 -0.00015
57.5 -0.00017
57.55 -0.0002
57.6 -0.00022
57.65 -0.00026
57.7 -0.00026
57.75 -0.00028
57.8 -0.00025
57.85 -0.00022
57.9 -0.00022
57.95 -0.0002
58 -0.00017
58.05 -0.00015
58.1 -0.00013
58.15 -0.00013
58.2 -0.00016
58.25 -0.00019
58.3 -0.00022
58.35 -0.0002
58.4 -0.00021
58.45 -0.00018
58.5 -0.00014
58.55 -0.00013
58.6 -0.0001
58.65 -0.00005
58.7 -0.00003
58.75 0
58.8 -0.00002
58.85 -0.00005
58.9 -0.00004
58.95 -0.00005
59 -0.00009
59.05 -0.00014
59.1 -0.00017
59.15 -0.00017
59.2 -0.00015
59.25 -0.00012
59.3 -0.00012
59.35 -0.00014
59.4 -0.00013
59.45 -0.0001
59.5 -0.00009
59.55 -0.00007
59.6 -0.00004
59.65 -0.00001
59.7 -0.00002
59.75 -0.00002
59.8 -0.00006
59.85 -0.00005
59.9 -0.00004
59.95 -0.00003
60 -0.00002
60.05 -0.00002
60.1 -0.00005
60.15 -0.00011
60.2 -0.00015
60.25 -0.00015
60.3 -0.00014
60.35 -0.00012
60.4 -0.00014
60.45 -0.00017
60.5 -0.00021
60.55 -0.00024
60.6 -0.00027
60.65 -0.00026
60.7 -0.00024
60.75 -0.00026
60.8 -0.00023
60.85 -0.00023
60.9 -0.00025
60.95 -0.00026
61 -0.00029
61.05 -0.00029
61.1 -0.00024
61.15 -0.00018
61.2 -0.00016
61.25 -0.00011
61.3 -0.00004
61.35 0.00002
61.4 0.00006
61.45 0.00008
61.5 0.00009
61.55 0.00011
61.6 0.00011
61.65 0.00009
61.7 0.00009
61.75 0.00007
61.8 0.00005
61.85 0.00001
61.9 -0
61.95 -0
62 -0.00002
62.05 -0.00003
62.1 -0.00002
62.15 -0.00003
62.2 -0.00007
62.25 -0.00009
62.3 -0.00013
62.35 -0.00015
62.4 -0.00019
62.45 -0.00019
62.5 -0.00015
62.55 -0.0001
62.6 -0.00003
62.65 0.00001
62.7 0.00006
62.75 0.00012
62.8 0.00015
62.85 0.00016
62.9 0.00017
62.95 0.00013
63 0.00006
63.05 -0.00003
63.1 -0.00007
63.15 -0.00009
63.2 -0.0001
63.25 -0.00011
63.3 -0.00008
63.35 -0.00006
63.4 -0.00003
63.45 -0.00002
63.5 -0.00002
63.55 -0.00004
63.6 -0.00005
63.65 -0.00008
63.7 -0.00006
63.75 -0.00004
63.8 -0.00006
63.85 -0.00005
63.9 -0.00005
63.95 -0.00003
64 -0
64.05 0.00004
64.1 0.00004
64.15 0
64.2 -0.00003
64.25 -0.00007
64.3 -0.00007
64.35 -0.00009
64.4 -0.00009
64.45 -0.00007
64.5 -0.00008
64.55 -0.00006
64.6 -0.00001
64.65 0
64.7 -0.00001
64.75 -0.00002
64.8 -0.00006
64.85 -0.0001
64.9 -0.00016
64.95 -0.00016
65 -0.00015
65.05 -0.00015
65.1 -0.00015
65.15 -0.00011
65.2 -0.00011
65.25 -0.00011
65.3 -0.00012
65.35 -0.00009
65.4 -0.00009
65.45 -0.00011
65.5 -0.00009
65.55 -0.00008
65.6 -0.00005
65.65 -0.00003
65.7 -0.00003
65.75 -0.00003
65.8 -0.00004
65.85 -0.00004
65.9 -0.00001
65.95 -0.00001
66 -0
66.05 0.00003
66.1 0.00003
66.15 0.00002
66.2 0.00003
66.25 0.00001
66.3 -0.00001
66.35 -0.00005
66.4 -0.0001
66.45 -0.00012
66.5 -0.00012
66.55 -0.00009
66.6 -0.00011
66.65 -0.00007
66.7 -0.00003
66.75 0.00003
66.8 0.00006
66.85 0.00005
66.9 0.00003
66.95 -0.00001
67 -0.00006
67.05 -0.00006
67.1 -0.00003
67.15 0
67.2 0.00005
67.25 0.00005
67.3 0.00004
67.35 0.00003
67.4 0.00003
67.45 0
67.5 0
67.55 0.00002
67.6 0.00003
67.65 0.00002
67.7 -0.00001
67.75 -0.00001
67.8 -0.00002
67.85 0
67.9 0.00004
67.95 0.00006
68 0.00006
68.05 0.00005
68.1 0.00005
68.15 0.00005
68.2 0.00005
68.25 0.00006
68.3 0.00005
68.35 0.00006
68.4 0.00007
68.45 0.00007
68.5 0.00004
68.55 0.00004
68.6 0.00001
68.65 -0.00003
68.7 -0.00002
68.75 0.00002
68.8 0.00006
68.85 0.0001
68.9 0.0001
68.95 0.00005
69 0.00001
69.05 -0.00003
69.1 -0.00007
69.15 -0.0001
69.2 -0.00013
69.25 -0.00015
69.3 -0.00015
69.35 -0.00012
69.4 -0.00007
69.45 -0.00005
69.5 -0.00003
69.55 -0.00004
69.6 -0.00001
69.65 0.00001
69.7 0
69.75 -0.00002
69.8 -0.00007
69.85 -0.00011
69.9 -0.00013
69.95 -0.0001
70 -0.0001
70.05 -0.00008
70.1 -0.00004
70.15 -0.00001
70.2 0.00004
70.25 0.00008
70.3 0.00008
70.35 0.00007
70.4 0.00004
70.45 0.00001
70.5 0
70.55 -0.00002
70.6 -0.00004
70.65 -0.00008
70.7 -0.00012
70.75 -0.00014
70.8 -0.00015
70.85 -0.00015
70.9 -0.00012
70.95 -0.00006
71 -0.00004
71.05 0.00001
71.1 0.00001
71.15 -0.00001
71.2 -0.00002
71.25 -0.00003
71.3 -0
71.35 -0
71.4 -0.00002
71.45 -0.00005
71.5 -0.00009
71.55 -0.00011
71.6 -0.00009
71.65 -0.00004
71.7 -0
71.75 0.00003
71.8 0.00005
71.85 0.00006
71.9 0.00008
71.95 0.00009
72 0.00006
72.05 0.00002
72.1 -0.00001
72.15 -0.00003
72.2 -0.00006
72.25 -0.00009
72.3 -0.00014
72.35 -0.00013
72.4 -0.00009
72.45 -0.00008
72.5 -0.00007
72.55 -0.00009
72.6 -0.00006
72.65 -0.00005
72.7 -0.00003
72.75 -0.00002
72.8 -0
72.85 0.00003
72.9 0.00005
72.95 0.00008
73 0.0001
73.05 0.00013
73.1 0.00017
73.15 0.00017
73.2 0.00018
73.25 0.00018
73.3 0.00017
73.35 0.00019
73.4 0.00016
73.45 0.00014
73.5 0.0001
73.55 0.00007
73.6 0.00004
73.65 -0.00002
73.7 -0.00002
73.75 -0.00002
73.8 -0.00002
73.85 -0.00005
73.9 -0.00006
73.95 -0.00007
74 -0.0001
74.05 -0.00008
74.1 -0.00008
74.15 -0.00008
74.2 -0.0001
74.25 -0.00007
74.3 -0.00002
74.35 -0.00002
74.4 -0.00003
74.45 -0.00001
74.5 0.00002
74.55 0.00004
74.6 0.00003
74.65 0.00004
74.7 0.00004
74.75 0.00006
74.8 0.00005
74.85 0.00002
74.9 0.00002
74.95 0.00001
75 -0.00003
75.05 -0.00007
75.1 -0.00011
75.15 -0.00012
75.2 -0.00012
75.25 -0.00008
75.3 -0.00008
75.35 -0.00009
75.4 -0.00011
75.45 -0.00008
75.5 -0.00005
75.55 -0.00004
75.6 -0.00002
75.65 -0.00003
75.7 0
75.75 0.00001
75.8 0.00003
75.85 0.00007
75.9 0.00008
75.95 0.00007
76 0.00004
76.05 0.00001
76.1 -0.00003
76.15 -0.00006
76.2 -0.00008
76.25 -0.00008
76.3 -0.00006
76.35 -0.00005
76.4 -0.00007
76.45 -0.00008
76.5 -0.00005
76.55 -0.00005
76.6 -0.00001
76.65 -0.00002
76.7 0
76.75 0.00005
76.8 0.0001
76.85 0.00016
76.9 0.00018
76.95 0.00019
77 0.00019
77.05 0.00019
77.1 0.00019
77.15 0.00015
77.2 0.0001
77.25 0.00008
77.3 0.00009
77.35 0.00007
77.4 0.00004
77.45 0.00003
77.5 0.00002
77.55 0.00002
77.6 0.00002
77.65 -0.00001
77.7 -0.00005
77.75 -0.00004
77.8 -0.00003
77.85 -0.00005
77.9 -0.00009
77.95 -0.00011
78 -0.00013
78.05 -0.0001
78.1 -0.00008
78.15 -0.00008
78.2 -0.0001
78.25 -0.0001
78.3 -0.00007
78.35 -0.00006
78.4 -0.00003
78.45 0.00001
78.5 0.00005
78.55 0.00011
78.6 0.00015
78.65 0.00015
78.7 0.00012
78.75 0.00007
78.8 0
78.85 -0.00001
78.9 0
78.95 0.00001
79 0.00002
79.05 0.00001
79.1 -0.00001
79.15 -0.00001
79.2 -0.00003
79.25 -0.00007
79.3 -0.00007
79.35 -0.00006
79.4 -0.00008
79.45 -0.00009
79.5 -0.00009
79.55 -0.00006
79.6 -0.00006
79.65 -0.00005
79.7 -0.00007
79.75 -0.0001
79.8 -0.00014
79.85 -0.00016
79.9 -0.00015
79.95 -0.00016
80 -0.00016
80.05 -0.00014
80.1 -0.0001
80.15 -0.00008
80.2 -0.00008
80.25 -0.00007
80.3 -0.00008
80.35 -0.0001
80.4 -0.00012
80.45 -0.00012
80.5 -0.00014
80.55 -0.00014
80.6 -0.00013
80.65 -0.00011
80.7 -0.00012
80.75 -0.00012
80.8 -0.00013
80.85 -0.00013
80.9 -0.00012
80.95 -0.00013
81 -0.00014
81.05 -0.00013
81.1 -0.00011
81.15 -0.00008
81.2 -0.00008
81.25 -0.00004
81.3 0.00003
81.35 0.00009
81.4 0.00015
81.45 0.00017
81.5 0.00019
81.55 0.0002
81.6 0.0002
81.65 0.0002
81.7 0.00016
81.75 0.00014
81.8 0.00008
81.85 0.00001
81.9 -0.00003
81.95 -0.00008
82 -0.0001
82.05 -0.0001
82.1 -0.00009
82.15 -0.00005
82.2 -0.00001
82.25 0.00002
82.3 0.00001
82.35 0.00004
82.4 0.00004
82.45 0.00004
82.5 0.00006
82.55 0.00003
82.6 0.00002
82.65 -0.00001
82.7 -0.00002
82.75 0.00002
82.8 0.00004
82.85 0.00004
82.9 0.00004
82.95 0.00004
83 0.00003
83.05 -0.00001
83.1 -0.00006
83.15 -0.00011
83.2 -0.0001
83.25 -0.00008
83.3 -0.00003
83.35 -0.00001
83.4 0.00001
83.45 0.00006
83.5 0.0001
83.55 0.00013
83.6 0.00011
83.65 0.00007
83.7 0.00004
83.75 -0
83.8 -0.00002
83.85 -0.00002
83.9 0.00002
83.95 0.00006
84 0.0001
84.05 0.00012
84.1 0.00014
84.15 0.00017
84.2 0.00019
84.25 0.0002
84.3 0.00022
84.35 0.0002
84.4 0.00021
84.45 0.00018
84.5 0.00018
84.55 0.00016
84.6 0.00015
84.65 0.0001
84.7 0.00003
84.75 -0.00001
84.8 -0.00002
84.85 -0.00001
84.9 -0.00001
84.95 0
85 0.00002
85.05 0.00005
85.1 0.00005
85.15 0.00004
85.2 0.00004
85.25 0.00002
85.3 -0
85.35 -0
85.4 -0.00002
85.45 -0.00002
85.5 0
85.55 0.00001
85.6 0.00004
85.65 0.00007
85.7 0.00007
85.75 0.00003
85.8 -0.00002
85.85 -0.00005
85.9 -0.00004
85.95 -0.00003
86 0
86.05 0.00001
86.1 0.00001
86.15 -0
86.2 0.00001
86.25 0.00001
86.3 -0.00003
86.35 -0.00002
86.4 0.00002
86.45 0.00003
86.5 0.00004
86.55 0.00004
86.6 0.00004
86.65 0.00001
86.7 -0
86.75 0.00002
86.8 0.00001
86.85 0.00003
86.9 0
86.95 -0.00001
87 -0
87.05 0.00002
87.1 0.00001
87.15 -0.00003
87.2 -0.00006
87.25 -0.00005
87.3 -0.00004
87.35 -0.00003
87.4 -0.00006
87.45 -0.0001
87.5 -0.00011
87.55 -0.00014
87.6 -0.00014
87.65 -0.00017
87.7 -0.00014
87.75 -0.00013
87.8 -0.00013
87.85 -0.00012
87.9 -0.00012
87.95 -0.00009
88 -0.00005
88.05 0.00002
88.1 0.00004
88.15 0.00004
88.2 0.00006
88.25 0.00005
88.3 0.00005
88.35 0.00007
88.4 0.00004
88.45 0.00002
88.5 -0.00003
88.55 -0.00002
88.6 -0.00004
88.65 -0.00008
88.7 -0.00008
88.75 -0.00008
88.8 -0.00008
88.85 -0.00007
88.9 -0.00004
88.95 -0.00002
89 -0.00002
89.05 -0.00001
89.1 0.00001
89.15 0.00002
89.2 -0
89.25 -0.00005
89.3 -0.00007
89.35 -0.00007
89.4 -0.00007
89.45 -0.00003
89.5 -0.00003
89.55 -0.00001
89.6 0.00002
89.65 0.00002
89.7 0.00003
89.75 0.00003
89.8 0.00002
89.85 0.00003
89.9 -0
89.95 0.00001
90 0.00004
90.05 0.00004
90.1 0.00004
90.15 0.00007
90.2 0.00011
90.25 0.00012
90.3 0.00014
90.35 0.00016
90.4 0.00013
90.45 0.00012
90.5 0.00011
90.55 0.00012
90.6 0.00013
90.65 0.00012
90.7 0.00013
90.75 0.00013
90.8 0.0001
90.85 0.00006
90.9 0.00003
90.95 0.00003
91 0.00001
91.05 0.00003
91.1 0.00006
91.15 0.0001
91.2 0.00014
91.25 0.00012
91.3 0.00009
91.35 0.00006
91.4 0.00004
91.45 0.00001
91.5 -0.00005
91.55 -0.0001
91.6 -0.00014
91.65 -0.00012
91.7 -0.00006
91.75 0.00001
91.8 0.00005
91.85 0.00007
91.9 0.00006
91.95 0.00007
92 0.00006
92.05 0.00006
92.1 0.00003
92.15 -0
92.2 -0.00003
92.25 -0.00006
92.3 -0.00006
92.35 -0.00004
92.4 -0.00002
92.45 -0.00002
92.5 -0.00002
92.55 0.00001
92.6 0.00006
92.65 0.00007
92.7 0.00009
92.75 0.0001
92.8 0.00013
92.85 0.00011
92.9 0.00011
92.95 0.00008
93 0.00005
93.05 0.00002
93.1 0.00003
93.15 0.00003
93.2 0.00006
93.25 0.00005
93.3 0.00006
93.35 0.00008
93.4 0.00007
93.45 0.00004
93.5 0.00002
93.55 0.00004
93.6 0.00002
93.65 -0.00003
93.7 -0.00004
93.75 -0.00002
93.8 -0.00002
93.85 -0.00005
93.9 -0.00005
93.95 -0.00003
94 -0.00002
94.05 0.00002
94.1 0.00004
94.15 0.00006
94.2 0.00009
94.25 0.00008
94.3 0.00007
94.35 0.00003
94.4 0.00001
94.45 -0.00002
94.5 -0.00003
94.55 -0.00006
94.6 -0.00011
94.65 -0.00013
94.7 -0.00016
94.75 -0.00019
94.8 -0.00018
94.85 -0.00016
94.9 -0.00017
94.95 -0.00015
95 -0.00011
95.05 -0.0001
95.1 -0.00008
95.15 -0.00006
95.2 -0.00003
95.25 0.00001
95.3 0.00006
95.35 0.00006
95.4 0.00007
95.45 0.00004
95.5 0.00002
95.55 0.00002
95.6 -0.00002
95.65 -0.00005
95.7 -0.00009
95.75 -0.00009
95.8 -0.00009
95.85 -0.00012
95.9 -0.00014
95.95 -0.00011
96 -0.00011
96.05 -0.00007
96.1 -0.00007
96.15 -0.00005
96.2 -0.00004
96.25 -0.00006
96.3 -0.00005
96.35 -0.00005
96.4 -0.00001
96.45 0.00002
96.5 0.00005
96.55 0.00003
96.6 0.00001
96.65 -0.00001
96.7 -0.00002
96.75 -0.00006
96.8 -0.0001
96.85 -0.00014
96.9 -0.00018
96.95 -0.0002
97 -0.00016
97.05 -0.00016
97.1 -0.00018
97.15 -0.0002
97.2 -0.00018
97.25 -0.00016
97.3 -0.00012
97.35 -0.00011
97.4 -0.00013
97.45 -0.00016
97.5 -0.00018
97.55 -0.00018
97.6 -0.00017
97.65 -0.00014
97.7 -0.0001
97.75 -0.00007
97.8 -0.00006
97.85 -0.00006
97.9 -0.00004
97.95 -0.00003
98 0
98.05 0.00001
98.1 0.00004
98.15 0.00003
98.2 0.00001
98.25 0.00003
98.3 0.00008
98.35 0.00013
98.4 0.00014
98.45 0.00013
98.5 0.00012
98.55 0.00013
98.6 0.00011
98.65 0.00007
98.7 0.00007
98.75 0.00004
98.8 0.00004
98.85 0
98.9 -0
98.95 -0.00002
99 -0.00002
99.05 -0.00002
99.1 -0.00003
99.15 -0.00002
99.2 0.00001
99.25 0.00003
99.3 0.00004
99.35 0.00007
99.4 0.00005
99.45 0.00002
99.5 -0.00002
99.55 -0.00001
99.6 0.00001
99.65 0.00003
99.7 0.00002
99.75 0.00002
99.8 0.00004
99.85 0.00003
99.9 0.00003
99.95 0.00001
