0 0
0.05 0.00003
0.1 0.00098
0.15 0.00161
0.2 0.00331
0.25 0.00535
0.3 0.00715
0.35 0.00852
0.4 0.00921
0.45 0.00908
0.5 0.00925
0.55 0.00856
0.6 0.00849
0.65 0.00899
0.7 0.00951
0.75 0.00956
0.8 0.01032
0.85 0.00993
0.9 0.00896
0.95 0.00752
1 0.00669
1.05 0.00586
1.1 0.00604
1.15 0.0057
1.2 0.00637
1.25 0.00745
1.3 0.00806
1.35 0.0084
1.4 0.008
1.45 0.00741
1.5 0.0062
1.55 0.00594
1.6 0.0051
1.65 0.00412
1.7 0.00437
1.75 0.00461
1.8 0.00517
1.85 0.00587
1.9 0.0062
1.95 0.00575
2 0.00476
2.05 0.00414
2.1 0.00439
2.15 0.00469
2.2 0.00483
2.25 0.00545
2.3 0.00542
2.35 0.00569
2.4 0.00641
2.45 0.00683
2.5 0.00633
2.55 0.00525
2.6 0.00448
2.65 0.00393
2.7 0.00406
2.75 0.00357
2.8 0.00415
2.85 0.00422
2.9 0.00503
2.95 0.00621
3 0.00622
3.05 0.00643
3.1 0.00647
3.15 0.00694
3.2 0.00738
3.25 0.00725
3.3 0.00727
3.35 0.00712
3.4 0.00692
3.45 0.00592
3.5 0.00429
3.55 0.00322
3.6 0.00261
3.65 0.00276
3.7 0.00279
3.75 0.00247
3.8 0.00248
3.85 0.00186
3.9 0.00095
3.95 0.00135
4 0.00186
4.05 0.00175
4.1 0.00234
4.15 0.00232
4.2 0.00279
4.25 0.00305
4.3 0.00352
4.35 0.00426
4.4 0.00544
4.45 0.0062
4.5 0.00598
4.55 0.00568
4.6 0.00605
4.65 0.00635
4.7 0.00633
4.75 0.00638
4.8 0.00565
4.85 0.00448
4.9 0.00302
4.95 0.00135
5 0.00117
5.05 0.00171
5.1 0.00244
5.15 0.00305
5.2 0.00261
5.25 0.00203
5.3 0.00242
5.35 0.00311
5.4 0.00343
5.45 0.00361
5.5 0.00282
5.55 0.00171
5.6 0.00049
5.65 0.00001
5.7 0.0001
5.75 -0.00052
5.8 -0.00038
5.85 -0.00073
5.9 -0.00143
5.95 -0.00166
6 -0.00191
6.05 -0.00234
6.1 -0.00292
6.15 -0.00363
6.2 -0.00315
6.25 -0.00269
6.3 -0.00218
6.35 -0.00125
6.4 -0.00119
6.45 -0.0001
6.5 0.00046
6.55 0.00047
6.6 0.00065
6.65 0.00115
6.7 0.0012
6.75 0.00169
6.8 0.00251
6.85 0.00228
6.9 0.00258
6.95 0.00282
7 0.00327
7.05 0.00378
7.1 0.00429
7.15 0.00411
7.2 0.00331
7.25 0.00241
7.3 0.00223
7.35 0.00169
7.4 0.0014
7.45 0.00089
7.5 0.00086
7.55 0.0008
7.6 0.00066
7.65 0.00108
7.7 0.00097
7.75 0.00011
7.8 -0.00117
7.85 -0.00113
7.9 -0.00163
7.95 -0.00253
8 -0.00356
8.05 -0.00352
8.1 -0.00379
8.15 -0.00315
8.2 -0.00209
8.25 -0.00178
8.3 -0.0006
8.35 0.00033
8.4 0.0003
8.45 -0.00002
8.5 0.00035
8.55 0.00145
8.6 0.00249
8.65 0.00363
8.7 0.00444
8.75 0.0042
8.8 0.00342
8.85 0.00258
8.9 0.00243
8.95 0.00248
9 0.00202
9.05 0.00219
9.1 0.00248
9.15 0.00256
9.2 0.00241
9.25 0.00208
9.3 0.00179
9.35 0.00164
9.4 0.00188
9.45 0.00247
9.5 0.00189
9.55 0.00149
9.6 0.00087
9.65 0.0004
9.7 0.00047
9.75 0.00017
9.8 -0.00077
9.85 -0.00048
9.9 0.00053
9.95 0.00047
10 -0.00003
10.05 -0.00006
10.1 0.00036
10.15 0.00032
10.2 0.00035
10.25 0.00049
10.3 0.00093
10.35 0.00107
10.4 0.00056
10.45 -0.00041
10.5 -0.0006
10.55 -0.00067
10.6 0.00011
10.65 0.00115
10.7 0.00204
10.75 0.00297
10.8 0.00286
10.85 0.00306
10.9 0.00213
10.95 0.00067
11 -0.00082
11.05 -0.00116
11.1 -0.00202
11.15 -0.00307
11.2 -0.00333
11.25 -0.00238
11.3 -0.00192
11.35 -0.00223
11.4 -0.00239
11.45 -0.003
11.5 -0.00342
11.55 -0.00318
11.6 -0.00287
11.65 -0.00202
11.7 -0.00119
11.75 -0.00094
11.8 -0.00124
11.85 -0.00135
11.9 -0.00138
11.95 -0.00077
12 -0.00078
12.05 -0.00104
12.1 -0.00162
12.15 -0.00252
12.2 -0.00209
12.25 -0.00215
12.3 -0.00219
12.35 -0.00137
12.4 -0.00014
12.45 -0.00006
12.5 0.0006
12.55 0.0004
12.6 0.00009
12.65 -0.00083
12.7 -0.00128
12.75 -0.00155
12.8 -0.00065
12.85 0.00087
12.9 0.00204
12.95 0.00226
13 0.00238
13.05 0.00228
13.1 0.00291
13.15 0.0037
13.2 0.00469
13.25 0.00448
13.3 0.00343
13.35 0.00224
13.4 0.00169
13.45 0.00195
13.5 0.00285
13.55 0.00323
13.6 0.00335
13.65 0.00298
13.7 0.00322
13.75 0.00397
13.8 0.00465
13.85 0.00422
13.9 0.00382
13.95 0.00399
14 0.00381
14.05 0.00273
14.1 0.00202
14.15 0.00173
14.2 0.00077
14.25 0.00048
14.3 0.00048
14.35 0.00011
14.4 -0.00003
14.45 -0.00029
14.5 -0.00072
14.55 -0.00091
14.6 -0.00062
14.65 0.00029
14.7 0.00113
14.75 0.00105
14.8 0.00113
14.85 0.00168
14.9 0.00104
14.95 0.00121
15 0.00048
15.05 -0.00004
15.1 -0.00071
15.15 -0.00138
15.2 -0.00206
15.25 -0.0026
15.3 -0.00271
15.35 -0.00189
15.4 -0.0019
15.45 -0.00112
15.5 -0.00131
15.55 -0.00106
15.6 -0.00008
15.65 -0.00015
15.7 0.00044
15.75 0.00118
15.8 0.00142
15.85 0.00068
15.9 0.00014
15.95 -0.0009
16 -0.00186
16.05 -0.00227
16.1 -0.00285
16.15 -0.0022
16.2 -0.00241
16.25 -0.00281
16.3 -0.00211
16.35 -0.00078
16.4 0.00029
16.45 0.00091
16.5 0.00174
16.55 0.00154
16.6 0.00186
16.65 0.00137
16.7 0.00035
16.75 -0.00067
16.8 -0.00203
16.85 -0.0032
16.9 -0.00395
16.95 -0.0045
17 -0.00444
17.05 -0.00363
17.1 -0.00297
17.15 -0.00198
17.2 -0.00175
17.25 -0.00095
17.3 0.00035
17.35 0.00169
17.4 0.00274
17.45 0.00404
17.5 0.0047
17.55 0.00407
17.6 0.00394
17.65 0.00345
17.7 0.00317
17.75 0.00312
17.8 0.00256
17.85 0.00172
17.9 0.0006
17.95 -0.00034
18 -0.00163
18.05 -0.00298
18.1 -0.00402
18.15 -0.00436
18.2 -0.00463
18.25 -0.00508
18.3 -0.00431
18.35 -0.00259
18.4 -0.00118
18.45 -0.00055
18.5 0.00025
18.55 0.00094
18.6 0.001
18.65 0.00108
18.7 0.00118
18.75 0.00178
18.8 0.00183
18.85 0.002
18.9 0.00213
18.95 0.00126
19 0.00081
19.05 0.00103
19.1 0.00068
19.15 0.00062
19.2 0.00073
19.25 0.00117
19.3 0.00197
19.35 0.00291
19.4 0.00296
19.45 0.00252
19.5 0.00231
19.55 0.00117
19.6 0.00076
19.65 0.00074
19.7 0.00027
19.75 -0.00072
19.8 -0.00094
19.85 -0.00103
19.9 -0.00161
19.95 -0.00233
20 -0.00338
20.05 -0.0039
20.1 -0.00405
20.15 -0.00302
20.2 -0.00282
20.25 -0.00307
20.3 -0.00264
20.35 -0.00196
20.4 -0.00077
20.45 -0.00073
20.5 -0.0013
20.55 -0.00167
20.6 -0.00226
20.65 -0.00229
20.7 -0.00287
20.75 -0.00368
20.8 -0.00366
20.85 -0.00324
20.9 -0.0027
20.95 -0.00251
21 -0.00187
21.05 -0.00047
21.1 0.00055
21.15 0.00043
21.2 -0.00025
21.25 -0.00023
21.3 -0.00015
21.35 0.00062
21.4 0.00083
21.45 0.00157
21.5 0.0012
21.55 0.00102
21.6 0.00171
21.65 0.00242
21.7 0.00268
21.75 0.00262
21.8 0.00245
21.85 0.00157
21.9 0.00092
21.95 0.00011
22 0.0001
22.05 -0.00014
22.1 0.00032
22.15 0.00018
22.2 0.00068
22.25 0.00148
22.3 0.00168
22.35 0.0013
22.4 0.00024
22.45 -0.00037
22.5 -0.00115
22.55 -0.00234
22.6 -0.00264
22.65 -0.00185
22.7 -0.0014
22.75 -0.00051
22.8 -0.00028
22.85 -0.00036
22.9 0.00011
22.95 0.00038
23 0.00096
23.05 0.00117
23.1 0.001
23.15 0.00089
23.2 0.00031
23.25 -0.00048
23.3 -0.00171
23.35 -0.00262
23.4 -0.00251
23.45 -0.00225
23.5 -0.00106
23.55 -0.0006
23.6 0.0003
23.65 0.00167
23.7 0.00304
23.75 0.0042
23.8 0.00542
23.85 0.0062
23.9 0.00623
23.95 0.00519
24 0.0048
24.05 0.00442
24.1 0.00377
24.15 0.00381
24.2 0.00431
24.25 0.00354
24.3 0.00237
24.35 0.00058
24.4 -0.00029
24.45 -0.00081
24.5 -0.00165
24.55 -0.00196
24.6 -0.00238
24.65 -0.00207
24.7 -0.00234
24.75 -0.00195
24.8 -0.00229
24.85 -0.00292
24.9 -0.00303
24.95 -0.0022
25 -0.00133
25.05 -0.00043
25.1 -0.00039
25.15 0.00008
25.2 0.0003
25.25 0.00117
25.3 0.00126
25.35 0.00108
25.4 0.0012
25.45 0.00128
25.5 0.00168
25.55 0.00212
25.6 0.00267
25.65 0.00305
25.7 0.00384
25.75 0.0038
25.8 0.00403
25.85 0.00361
25.9 0.00276
25.95 0.00248
26 0.0024
26.05 0.00246
26.1 0.00157
26.15 0.00105
26.2 0.00026
26.25 -0.00007
26.3 -0.00035
26.35 -0.00069
26.4 -0.00019
26.45 -0.00074
26.5 -0.00138
26.55 -0.00226
26.6 -0.00296
26.65 -0.00294
26.7 -0.00297
26.75 -0.00311
26.8 -0.00373
26.85 -0.00424
26.9 -0.00483
26.95 -0.00459
27 -0.00363
27.05 -0.00215
27.1 -0.00044
27.15 0.00131
27.2 0.00153
27.25 0.00085
27.3 -0.00043
27.35 -0.00178
27.4 -0.0031
27.45 -0.00403
27.5 -0.00443
27.55 -0.00456
27.6 -0.004
27.65 -0.00326
27.7 -0.00216
27.75 -0.00098
27.8 0.0004
27.85 0.00124
27.9 0.00198
27.95 0.00187
28 0.00089
28.05 0.00007
28.1 -0.00085
28.15 -0.00142
28.2 -0.00146
28.25 -0.00076
28.3 -0.00035
28.35 -0.00039
28.4 0.00001
28.45 -0.00032
28.5 -0.00067
28.55 -0.00053
28.6 0.0002
28.65 0.00069
28.7 0.00115
28.75 0.00091
28.8 0.00037
28.85 0.00004
28.9 0.00039
28.95 0.00135
29 0.00103
29.05 0.00054
29.1 -0.00055
29.15 -0.00184
29.2 -0.00202
29.25 -0.00156
29.3 -0.00105
29.35 -0.00096
29.4 -0.00116
29.45 -0.0012
29.5 -0.00127
29.55 -0.00162
29.6 -0.00168
29.65 -0.00108
29.7 -0.00024
29.75 -0.0002
29.8 0.00002
29.85 -0.0003
29.9 -0.00043
29.95 -0.0001
30 0.00065
30.05 0.00154
30.1 0.0014
30.15 0.00066
30.2 -0.00066
30.25 -0.00095
30.3 -0.00019
30.35 0.0001
30.4 0.00103
30.45 0.00238
30.5 0.0038
30.55 0.00485
30.6 0.0055
30.65 0.0049
30.7 0.00469
30.75 0.00399
30.8 0.00256
30.85 0.0016
30.9 0.00079
30.95 -0.00035
31 -0.00058
31.05 -0.00078
31.1 -0.00109
31.15 -0.00192
31.2 -0.00233
31.25 -0.00252
31.3 -0.00199
31.35 -0.00212
31.4 -0.00222
31.45 -0.00149
31.5 -0.00046
31.55 -0.00011
31.6 -0.00019
31.65 -0.00087
31.7 -0.0016
31.75 -0.00249
31.8 -0.00292
31.85 -0.00294
31.9 -0.00324
31.95 -0.00249
32 -0.00253
32.05 -0.00198
32.1 -0.0017
32.15 -0.00087
32.2 0.00003
32.25 0.00034
32.3 0.00115
32.35 0.00237
32.4 0.00331
32.45 0.00348
32.5 0.0038
32.55 0.00378
32.6 0.00319
32.65 0.00289
32.7 0.00174
32.75 0.00103
32.8 0.00097
32.85 0.00165
32.9 0.00228
32.95 0.00313
33 0.00373
33.05 0.00429
33.1 0.00442
33.15 0.00465
33.2 0.00505
33.25 0.00426
33.3 0.00277
33.35 0.00126
33.4 0.00001
33.45 -0.00042
33.5 -0.00154
33.55 -0.00208
33.6 -0.00213
33.65 -0.0028
33.7 -0.00333
33.75 -0.00363
33.8 -0.00337
33.85 -0.00224
33.9 -0.00146
33.95 -0.00009
34 -0.00007
34.05 -0.00068
34.1 -0.00074
34.15 -0.0014
34.2 -0.00165
34.25 -0.00219
34.3 -0.00164
34.35 -0.0011
34.4 -0.00055
34.45 0.0004
34.5 0.00133
34.55 0.00165
34.6 0.00219
34.65 0.00298
34.7 0.00401
34.75 0.00456
34.8 0.00502
34.85 0.0044
34.9 0.00383
34.95 0.00295
35 0.00216
35.05 0.00149
35.1 0.00128
35.15 0.00117
35.2 0.00131
35.25 0.00156
35.3 0.00226
35.35 0.0022
35.4 0.00158
35.45 0.00037
35.5 -0.00115
35.55 -0.00258
35.6 -0.0031
35.65 -0.00302
35.7 -0.00226
35.75 -0.00235
35.8 -0.00244
35.85 -0.0031
35.9 -0.00329
35.95 -0.00307
36 -0.00283
36.05 -0.00314
36.1 -0.00246
36.15 -0.00268
36.2 -0.00244
36.25 -0.00288
36.3 -0.0036
36.35 -0.0036
36.4 -0.0037
36.45 -0.0032
36.5 -0.00269
36.55 -0.00133
36.6 -0.00083
36.65 0.00031
36.7 0.00172
36.75 0.00233
36.8 0.00247
36.85 0.00182
36.9 0.00135
36.95 0.001
37 0.0003
37.05 -0.00094
37.1 -0.00095
37.15 -0.00089
37.2 -0.00106
37.25 -0.00074
37.3 -0.00085
37.35 -0.00064
37.4 -0.0006
37.45 -0.00113
37.5 -0.00202
37.55 -0.00245
37.6 -0.00237
37.65 -0.00188
37.7 -0.00171
37.75 -0.00147
37.8 -0.00168
37.85 -0.00115
37.9 -0.00113
37.95 -0.00026
38 -0.00049
38.05 -0.00024
38.1 0.00019
38.15 0.00026
38.2 0.00022
38.25 -0
38.3 0.00003
38.35 -0.00014
38.4 0.00001
38.45 0.00016
38.5 0.00065
38.55 0.00102
38.6 0.00168
38.65 0.00247
38.7 0.00343
38.75 0.00363
38.8 0.00277
38.85 0.00248
38.9 0.00255
38.95 0.00214
39 0.00087
39.05 -0.0008
39.1 -0.00159
39.15 -0.00149
39.2 -0.00145
39.25 -0.00154
39.3 -0.00107
39.35 -0.00066
39.4 -0.0004
39.45 -0.00105
39.5 -0.00075
39.55 -0.00007
39.6 -0.00013
39.65 0.00006
39.7 -0.00009
39.75 0.00063
39.8 0.00137
39.85 0.00114
39.9 0.00122
39.95 0.00038
40 0.00048
40.05 -0.00001
40.1 -0.00075
40.15 -0.0006
40.2 -0.00084
40.25 -0.00017
40.3 0.00073
40.35 0.00076
40.4 0.00101
40.45 0.00136
40.5 0.00216
40.55 0.00205
40.6 0.00107
40.65 -0.00011
40.7 -0.00089
40.75 -0.00147
40.8 -0.00216
40.85 -0.00177
40.9 -0.00205
40.95 -0.00227
41 -0.00151
41.05 -0.00035
41.1 0.00123
41.15 0.00215
41.2 0.00238
41.25 0.00181
41.3 0.00187
41.35 0.00196
41.4 0.00138
41.45 0.00047
41.5 0.00036
41.55 0.00012
41.6 -0.00054
41.65 -0.00111
41.7 -0.00142
41.75 -0.00079
41.8 0.00004
41.85 -0.00014
41.9 -0.00104
41.95 -0.00232
42 -0.00328
42.05 -0.00373
42.1 -0.00287
42.15 -0.00174
42.2 -0.00034
42.25 0.00054
42.3 0.00043
42.35 0.00065
42.4 0.00045
42.45 -0.00001
42.5 -0.00009
42.55 0.00033
42.6 -0.00022
42.65 0.00028
42.7 0.00115
42.75 0.00224
42.8 0.00345
42.85 0.00348
42.9 0.00384
42.95 0.00353
43 0.00305
43.05 0.00234
43.1 0.00092
43.15 0.00038
43.2 -0.00009
43.25 -0.00056
43.3 -0.00164
43.35 -0.00299
43.4 -0.00343
43.45 -0.00314
43.5 -0.00331
43.55 -0.00352
43.6 -0.00326
43.65 -0.00218
43.7 -0.00085
43.75 0.0008
43.8 0.00249
43.85 0.00348
43.9 0.00365
43.95 0.00374
44 0.00289
44.05 0.0018
44.1 0.0017
44.15 0.00079
44.2 0.00015
44.25 -0.00074
44.3 -0.00088
44.35 -0.0005
44.4 -0.00031
44.45 -0.00007
44.5 -0.00061
44.55 -0.00092
44.6 -0.00188
44.65 -0.00243
44.7 -0.003
44.75 -0.00342
44.8 -0.00368
44.85 -0.00374
44.9 -0.00352
44.95 -0.00259
45 -0.00118
45.05 -0.00068
45.1 0.00052
45.15 0.00118
45.2 0.00177
45.25 0.0027
45.3 0.00351
45.35 0.00376
45.4 0.00424
45.45 0.00369
45.5 0.00302
45.55 0.0025
45.6 0.00258
45.65 0.00244
45.7 0.00238
45.75 0.00252
45.8 0.00164
45.85 0.00025
45.9 -0.00131
45.95 -0.00203
46 -0.00176
46.05 -0.00208
46.1 -0.00145
46.15 -0.00078
46.2 -0.00093
46.25 -0.0006
46.3 -0.00047
46.35 -0.00042
46.4 -0.00046
46.45 -0.00082
46.5 -0.00097
46.55 -0.00133
46.6 -0.00205
46.65 -0.00236
46.7 -0.00197
46.75 -0.00083
46.8 0.00055
46.85 0.00113
46.9 0.00141
46.95 0.00111
47 0.00093
47.05 0.00015
47.1 0.00033
47.15 0.00062
47.2 0.00022
47.25 -0.00088
47.3 -0.00077
47.35 -0.0001
47.4 -0.00005
47.45 0.00067
47.5 0.00034
47.55 -0.00057
47.6 -0.00167
47.65 -0.00233
47.7 -0.00267
47.75 -0.00309
47.8 -0.00316
47.85 -0.00375
47.9 -0.00391
47.95 -0.00421
48 -0.00357
48.05 -0.00357
48.1 -0.00347
48.15 -0.0032
48.2 -0.00273
48.25 -0.00233
48.3 -0.00149
48.35 -0.00111
48.4 -0.00136
48.45 -0.00215
48.5 -0.00273
48.55 -0.00296
48.6 -0.00339
48.65 -0.00295
48.7 -0.00179
48.75 -0.00018
48.8 0.00049
48.85 0.0005
48.9 0.00071
48.95 0.00016
49 0.00031
49.05 0.00126
49.1 0.0023
49.15 0.00338
49.2 0.00311
49.25 0.00211
49.3 0.002
49.35 0.0019
49.4 0.0013
49.45 0.001
49.5 0.00145
49.55 0.00174
49.6 0.00136
49.65 0.00049
49.7 -0.0005
49.75 -0.00135
49.8 -0.00255
49.85 -0.00289
49.9 -0.00242
49.95 -0.00154
50 -0.00133
50.05 -0.00036
50.1 -0.00027
50.15 0.00024
50.2 0.00002
50.25 -0.00023
50.3 -0.00007
50.35 0.00049
50.4 0.00161
50.45 0.00147
50.5 0.00091
50.55 -0.00023
50.6 -0.00065
50.65 -0.00146
50.7 -0.0017
50.75 -0.00186
50.8 -0.002
50.85 -0.00114
50.9 -0.00129
50.95 -0.00169
51 -0.00232
51.05 -0.00261
51.1 -0.00261
51.15 -0.00185
51.2 -0.00099
51.25 -0.00079
51.3 -0.00095
51.35 -0.00138
51.4 -0.00069
51.45 0.00025
51.5 0.00104
51.55 0.00159
51.6 0.0021
51.65 0.00268
51.7 0.00328
51.75 0.00321
51.8 0.00354
51.85 0.00408
51.9 0.00459
51.95 0.00407
52 0.00343
52.05 0.00201
52.1 0.00149
52.15 0.00092
52.2 -0.00011
52.25 -0.00092
52.3 -0.00078
52.35 -0.00018
52.4 0.0007
52.45 0.00169
52.5 0.00282
52.55 0.00378
52.6 0.00359
52.65 0.00368
52.7 0.00267
52.75 0.00134
52.8 0.00064
52.85 0.00082
52.9 0.00087
52.95 0.00073
53 -0.00022
53.05 -0.0004
53.1 -0.0001
53.15 0.00005
53.2 -0.00006
53.25 0.00028
53.3 -0.00036
53.35 -0.00059
53.4 -0.00015
53.45 0.00087
53.5 0.00183
53.55 0.00278
53.6 0.00245
53.65 0.00145
53.7 0.00006
53.75 -0.00044
53.8 -0.00066
53.85 -0.00151
53.9 -0.00177
53.95 -0.0013
54 -0.00153
54.05 -0.00203
54.1 -0.00141
54.15 -0.00175
54.2 -0.00265
54.25 -0.00357
54.3 -0.00333
54.35 -0.00243
54.4 -0.00156
54.45 -0.00112
54.5 -0.00086
54.55 -0.00019
54.6 0.00095
54.65 0.00171
54.7 0.0018
54.75 0.00181
54.8 0.00161
54.85 0.00171
54.9 0.00212
54.95 0.00284
55 0.00368
55.05 0.00363
55.1 0.00316
55.15 0.00258
55.2 0.00115
55.25 0.00012
55.3 -0.00127
55.35 -0.00235
55.4 -0.00302
55.45 -0.00257
55.5 -0.00287
55.55 -0.00343
55.6 -0.00338
55.65 -0.00376
55.7 -0.00393
55.75 -0.00341
55.8 -0.00311
55.85 -0.0034
55.9 -0.00271
55.95 -0.00191
56 -0.00126
56.05 -0.00082
56.1 -0.00074
56.15 -0.00003
56.2 -0.00029
56.25 0.00027
56.3 0.00074
56.35 0.00137
56.4 0.00223
56.45 0.00214
56.5 0.00211
56.55 0.00162
56.6 0.00048
56.65 -0.0009
56.7 -0.00132
56.75 -0.00225
56.8 -0.00215
56.85 -0.00205
56.9 -0.00149
56.95 -0.00108
57 -0.00009
57.05 0.0007
57.1 0.00089
57.15 0.00042
57.2 -0.00032
57.25 -0.00106
57.3 -0.00164
57.35 -0.00177
57.4 -0.00143
57.45 -0.00109
57.5 -0.0008
57.55 -0.00006
57.6 0.00046
57.65 0.00086
57.7 0.00076
57.75 -0.00002
57.8 0.00001
57.85 -0.00016
57.9 0.00056
57.95 0.00086
58 0.00131
58.05 0.00092
58.1 0.00136
58.15 0.00093
58.2 0.00009
58.25 -0.00017
58.3 -0.00077
58.35 -0.00136
58.4 -0.00103
58.45 -0.00022
58.5 0.00052
58.55 0.00122
58.6 0.00147
58.65 0.00156
58.7 0.00219
58.75 0.00229
58.8 0.00134
58.85 0.00007
58.9 -0.00122
58.95 -0.00181
59 -0.00223
59.05 -0.00227
59.1 -0.00185
59.15 -0.00093
59.2 0.0002
59.25 0.00099
59.3 0.00112
59.35 0.00146
59.4 0.00156
59.45 0.00219
59.5 0.00209
59.55 0.00207
59.6 0.00251
59.65 0.00252
59.7 0.00238
59.75 0.0023
59.8 0.00157
59.85 0.00154
59.9 0.00122
59.95 0.00057
60 -0.00056
60.05 -0.00078
60.1 -0.0002
60.15 0.00021
60.2 0.00097
60.25 0.00189
60.3 0.00252
60.35 0.002
60.4 0.00161
60.45 0.00135
60.5 0.0004
60.55 -0.00048
60.6 -0.00043
60.65 -0.00123
60.7 -0.00144
60.75 -0.00136
60.8 -0.00069
60.85 0.00056
60.9 0.00119
60.95 0.00205
61 0.00198
61.05 0.00142
61.1 0.001
61.15 0.00144
61.2 0.00166
61.25 0.00122
61.3 0.00023
61.35 -0.00103
61.4 -0.00214
61.45 -0.00271
61.5 -0.00228
61.55 -0.0012
61.6 -0.001
61.65 -0.00092
61.7 -0.00019
61.75 0.00036
61.8 0.00004
61.85 -0.00025
61.9 -0.00029
61.95 0.00031
62 0.00124
62.05 0.00231
62.1 0.00287
62.15 0.00372
62.2 0.00306
62.25 0.00258
62.3 0.00284
62.35 0.00237
62.4 0.00146
62.45 0.00068
62.5 0.00024
62.55 -0.00039
62.6 -0.00067
62.65 -0.00141
62.7 -0.00249
62.75 -0.00342
62.8 -0.00418
62.85 -0.00353
62.9 -0.00303
62.95 -0.00227
63 -0.00125
63.05 -0.00127
63.1 -0.00061
63.15 -0.00062
63.2 -0.00071
63.25 0.00002
63.3 0.00038
63.35 0.00019
63.4 -0.00023
63.45 0.00013
63.5 0.00097
63.55 0.0006
63.6 0.00024
63.65 0.00002
63.7 0.00041
63.75 0.00093
63.8 0.00189
63.85 0.00203
63.9 0.00224
63.95 0.00171
64 0.00162
64.05 0.00153
64.1 0.00095
64.15 0.00015
64.2 -0.00035
64.25 -0.00001
64.3 -0.00022
64.35 -0.00112
64.4 -0.00093
64.45 -0.00156
64.5 -0.0012
64.55 -0.00013
64.6 0.00052
64.65 0.00084
64.7 0.00044
64.75 -0.00032
64.8 -0.00047
64.85 0.00006
64.9 0.00044
64.95 0.00099
65 0.00185
65.05 0.00241
65.1 0.00296
65.15 0.00339
65.2 0.00352
65.25 0.00323
65.3 0.00312
65.35 0.00286
65.4 0.00165
65.45 0.00097
65.5 0.00058
65.55 0.00084
65.6 0.0015
65.65 0.00177
65.7 0.00194
65.75 0.00138
65.8 0.00124
65.85 0.00017
65.9 -0.00172
65.95 -0.00302
66 -0.00427
66.05 -0.00571
66.1 -0.0068
66.15 -0.00886
66.2 -0.01045
66.25 -0.01215
66.3 -0.01451
66.35 -0.01724
66.4 -0.01944
66.45 -0.02167
66.5 -0.02434
66.55 -0.02877
66.6 -0.03376
66.65 -0.03965
66.7 -0.04717
66.75 -0.05509
66.8 -0.06432
66.85 -0.07433
66.9 -0.08469
66.95 -0.09597
67 -0.10915
67.05 -0.12299
67.1 -0.13893
67.15 -0.15644
67.2 -0.17443
67.25 -0.19349
67.3 -0.21482
67.35 -0.23706
67.4 -0.26003
67.45 -0.28408
67.5 -0.30977
67.55 -0.33604
67.6 -0.36246
67.65 -0.38838
67.7 -0.4135
67.75 -0.43804
67.8 -0.46196
67.85 -0.48394
67.9 -0.50494
67.95 -0.5237
68 -0.5404
68.05 -0.55406
68.1 -0.56375
68.15 -0.56898
68.2 -0.56912
68.25 -0.56514
68.3 -0.55665
68.35 -0.54382
68.4 -0.52583
68.45 -0.50399
68.5 -0.47865
68.55 -0.44894
68.6 -0.41628
68.65 -0.3802
68.7 -0.34142
68.75 -0.29931
68.8 -0.25615
68.85 -0.21233
68.9 -0.16714
68.95 -0.12077
69 -0.07447
69.05 -0.02917
69.1 0.01442
69.15 0.05587
69.2 0.0953
69.25 0.13187
69.3 0.16684
69.35 0.19894
69.4 0.22814
69.45 0.2548
69.5 0.27954
69.55 0.30127
69.6 0.32088
69.65 0.33757
69.7 0.35238
69.75 0.36509
69.8 0.37518
69.85 0.38363
69.9 0.39027
69.95 0.3958
70 0.39979
70.05 0.4036
70.1 0.40685
70.15 0.40875
70.2 0.4096
70.25 0.40948
70.3 0.40938
70.35 0.40834
70.4 0.40773
70.45 0.40636
70.5 0.40464
70.55 0.40272
70.6 0.40152
70.65 0.40054
70.7 0.3988
70.75 0.39659
70.8 0.39427
70.85 0.39042
70.9 0.38576
70.95 0.38138
71 0.37663
71.05 0.37084
71.1 0.36516
71.15 0.35934
71.2 0.35223
71.25 0.34507
71.3 0.337
71.35 0.32828
71.4 0.31982
71.45 0.31093
71.5 0.30194
71.55 0.29344
71.6 0.2854
71.65 0.27722
71.7 0.26831
71.75 0.26018
71.8 0.25201
71.85 0.24404
71.9 0.23583
71.95 0.22691
72 0.21713
72.05 0.20715
72.1 0.19708
72.15 0.18771
72.2 0.17853
72.25 0.16892
72.3 0.16058
72.35 0.15257
72.4 0.14438
72.45 0.13674
72.5 0.12939
72.55 0.12231
72.6 0.11573
72.65 0.10968
72.7 0.10326
72.75 0.09722
72.8 0.09083
72.85 0.0845
72.9 0.07801
72.95 0.07168
73 0.06552
73.05 0.05968
73.1 0.05314
73.15 0.04747
73.2 0.04212
73.25 0.03632
73.3 0.03115
73.35 0.02637
73.4 0.02129
73.45 0.01682
73.5 0.01171
73.55 0.00637
73.6 0.00132
73.65 -0.00271
73.7 -0.00691
73.75 -0.01074
73.8 -0.01502
73.85 -0.01959
73.9 -0.02296
73.95 -0.02684
74 -0.02956
74.05 -0.03258
74.1 -0.03529
74.15 -0.03773
74.2 -0.03977
74.25 -0.04242
74.3 -0.04401
74.35 -0.04509
74.4 -0.0459
74.45 -0.04685
74.5 -0.04783
74.55 -0.04862
74.6 -0.05046
74.65 -0.05258
74.7 -0.05387
74.75 -0.05506
74.8 -0.05672
74.85 -0.05814
74.9 -0.05986
74.95 -0.06194
75 -0.06266
75.05 -0.06276
75.1 -0.06294
75.15 -0.0635
75.2 -0.06342
75.25 -0.06405
75.3 -0.06525
75.35 -0.0667
75.4 -0.06669
75.45 -0.0659
75.5 -0.06573
75.55 -0.065
75.6 -0.06423
75.65 -0.06438
75.7 -0.06345
75.75 -0.0626
75.8 -0.06128
75.85 -0.06078
75.9 -0.0601
75.95 -0.05949
76 -0.05923
76.05 -0.05978
76.1 -0.06026
76.15 -0.06069
76.2 -0.06087
76.25 -0.05971
76.3 -0.05806
76.35 -0.05631
76.4 -0.05517
76.45 -0.05415
76.5 -0.05272
76.55 -0.05093
76.6 -0.04988
76.65 -0.0493
76.7 -0.04895
76.75 -0.04792
76.8 -0.04772
76.85 -0.04727
76.9 -0.04637
76.95 -0.04623
77 -0.04657
77.05 -0.04627
77.1 -0.0458
77.15 -0.04493
77.2 -0.04402
77.25 -0.04351
77.3 -0.04313
77.35 -0.04204
77.4 -0.04189
77.45 -0.04224
77.5 -0.04158
77.55 -0.04112
77.6 -0.04042
77.65 -0.03921
77.7 -0.0387
77.75 -0.03784
77.8 -0.03673
77.85 -0.03636
77.9 -0.03524
77.95 -0.03528
78 -0.03497
78.05 -0.03432
78.1 -0.03425
78.15 -0.03433
78.2 -0.03398
78.25 -0.03385
78.3 -0.03286
78.35 -0.03224
78.4 -0.03194
78.45 -0.03102
78.5 -0.03099
78.55 -0.0309
78.6 -0.02989
78.65 -0.0288
78.7 -0.02804
78.75 -0.02751
78.8 -0.02648
78.85 -0.02579
78.9 -0.02458
78.95 -0.02403
79 -0.02324
79.05 -0.02274
79.1 -0.02234
79.15 -0.02151
79.2 -0.0204
79.25 -0.01977
79.3 -0.01933
79.35 -0.0196
79.4 -0.01978
79.45 -0.01998
79.5 -0.01988
79.55 -0.02057
79.6 -0.02063
79.65 -0.02145
79.7 -0.02183
79.75 -0.02151
79.8 -0.02151
79.85 -0.02143
79.9 -0.02165
79.95 -0.0223
80 -0.02325
80.05 -0.02373
80.1 -0.02334
80.15 -0.02244
80.2 -0.02151
80.25 -0.02129
80.3 -0.02017
80.35 -0.01866
80.4 -0.01797
80.45 -0.01762
80.5 -0.01685
80.55 -0.01605
80.6 -0.01582
80.65 -0.01507
80.7 -0.01501
80.75 -0.01524
80.8 -0.01597
80.85 -0.01648
80.9 -0.01705
80.95 -0.01705
81 -0.01737
81.05 -0.01685
81.1 -0.01605
81.15 -0.01522
81.2 -0.01525
81.25 -0.01533
81.3 -0.01571
81.35 -0.01577
81.4 -0.01611
81.45 -0.01667
81.5 -0.01729
81.55 -0.01649
81.6 -0.01553
81.65 -0.01493
81.7 -0.01367
81.75 -0.01274
81.8 -0.01145
81.85 -0.0112
81.9 -0.01061
81.95 -0.01015
82 -0.00905
82.05 -0.00912
82.1 -0.0095
82.15 -0.01007
82.2 -0.00959
82.25 -0.00926
82.3 -0.00819
82.35 -0.00736
82.4 -0.00733
82.45 -0.00692
82.5 -0.00752
82.55 -0.00833
82.6 -0.00844
82.65 -0.00893
82.7 -0.00993
82.75 -0.01032
82.8 -0.00974
82.85 -0.00886
82.9 -0.00736
82.95 -0.00725
83 -0.00761
83.05 -0.00771
83.1 -0.00838
83.15 -0.0081
83.2 -0.0085
83.25 -0.00885
83.3 -0.00959
83.35 -0.00947
83.4 -0.00947
83.45 -0.00903
83.5 -0.00895
83.55 -0.00945
83.6 -0.00932
83.65 -0.00913
83.7 -0.0087
83.75 -0.00751
83.8 -0.00668
83.85 -0.00651
83.9 -0.00569
83.95 -0.0059
84 -0.00575
84.05 -0.00593
84.1 -0.00599
84.15 -0.00614
84.2 -0.00545
84.25 -0.00557
84.3 -0.0053
84.35 -0.00483
84.4 -0.0043
84.45 -0.00325
84.5 -0.00283
84.55 -0.00183
84.6 -0.00174
84.65 -0.00244
84.7 -0.00285
84.75 -0.00375
84.8 -0.00461
84.85 -0.00551
84.9 -0.0064
84.95 -0.00646
85 -0.00664
85.05 -0.0064
85.1 -0.00519
85.15 -0.00457
85.2 -0.00394
85.25 -0.00353
85.3 -0.00247
85.35 -0.00187
85.4 -0.0017
85.45 -0.00242
85.5 -0.00278
85.55 -0.00225
85.6 -0.00253
85.65 -0.00206
85.7 -0.00169
85.75 -0.00202
85.8 -0.00303
85.85 -0.00285
85.9 -0.00273
85.95 -0.0033
86 -0.00324
86.05 -0.00257
86.1 -0.00267
86.15 -0.00332
86.2 -0.00335
86.25 -0.00269
86.3 -0.00288
86.35 -0.00238
86.4 -0.00213
86.45 -0.00191
86.5 -0.00147
86.55 -0.00178
86.6 -0.00221
86.65 -0.00218
86.7 -0.00208
86.75 -0.00254
86.8 -0.00204
86.85 -0.00092
86.9 0.00003
86.95 0.00122
87 0.00163
87.05 0.00222
87.1 0.00151
87.15 0.00129
87.2 0.00126
87.25 0.00175
87.3 0.00141
87.35 0.00133
87.4 0.00151
87.45 0.00067
87.5 0.00041
87.55 0.00059
87.6 -0.00036
87.65 -0.00035
87.7 0.00014
87.75 -0.00033
87.8 -0.00155
87.85 -0.00283
87.9 -0.00358
87.95 -0.00466
88 -0.00442
88.05 -0.00436
88.1 -0.00469
88.15 -0.00504
88.2 -0.00512
88.25 -0.00524
88.3 -0.00431
88.35 -0.00332
88.4 -0.00304
88.45 -0.00321
88.5 -0.00382
88.55 -0.00465
88.6 -0.00417
88.65 -0.00298
88.7 -0.00156
88.75 -0.00087
88.8 -0.00099
88.85 -0.00153
88.9 -0.00178
88.95 -0.0018
89 -0.00227
89.05 -0.00309
89.1 -0.003
89.15 -0.00308
89.2 -0.00339
89.25 -0.00372
89.3 -0.00411
89.35 -0.00377
89.4 -0.00253
89.45 -0.00089
89.5 0.00082
89.55 0.00139
89.6 0.00134
89.65 0.00169
89.7 0.00149
89.75 0.00181
89.8 0.00164
89.85 0.00114
89.9 -0.00013
89.95 -0.00114
90 -0.00164
90.05 -0.00146
90.1 -0.00205
90.15 -0.00235
90.2 -0.00227
90.25 -0.00176
90.3 -0.0009
90.35 -0.00089
90.4 -0.00008
90.45 -0.00018
90.5 -0.00008
90.55 -0.00058
90.6 -0.00091
90.65 -0.00104
90.7 -0.00083
90.75 -0.0015
90.8 -0.00114
90.85 -0.00062
90.9 -0.00105
90.95 -0.00118
91 -0.0005
91.05 -0.00081
91.1 -0.00129
91.15 -0.00215
91.2 -0.00219
91.25 -0.00217
91.3 -0.00253
91.35 -0.00184
91.4 -0.00071
91.45 -0.00071
91.5 -0.00086
91.55 -0.0012
91.6 -0.00155
91.65 -0.00225
91.7 -0.00299
91.75 -0.00397
91.8 -0.00346
91.85 -0.0029
91.9 -0.00242
91.95 -0.00207
92 -0.00112
92.05 -0.00027
92.1 -0.00042
92.15 -0.00126
92.2 -0.0024
92.25 -0.00232
92.3 -0.00248
92.35 -0.00168
92.4 -0.0011
92.45 -0.00006
92.5 -0.00003
92.55 -0.00043
92.6 -0.00047
92.65 -0.00098
92.7 -0.00153
92.75 -0.00253
92.8 -0.00274
92.85 -0.00206
92.9 -0.00219
92.95 -0.00181
93 -0.00179
93.05 -0.00235
93.1 -0.00304
93.15 -0.00387
93.2 -0.00341
93.25 -0.00199
93.3 -0.00024
93.35 0.00086
93.4 0.00154
93.45 0.00162
93.5 0.00094
93.55 0.00102
93.6 0.00174
93.65 0.00201
93.7 0.0022
93.75 0.00136
93.8 0.00093
93.85 0.00113
93.9 0.00106
93.95 0.00071
94 0.00021
94.05 -0.00009
94.1 -0.00006
94.15 0.00007
94.2 -0.00016
94.25 -0.00081
94.3 -0.00055
94.35 -0.00006
94.4 0.00107
94.45 0.00178
94.5 0.00195
94.55 0.00112
94.6 -0.00022
94.65 -0.00074
94.7 -0.00118
94.75 -0.00065
94.8 -0.00099
94.85 -0.00179
94.9 -0.00177
94.95 -0.00206
95 -0.00229
95.05 -0.00294
95.1 -0.00306
95.15 -0.00365
95.2 -0.00292
95.25 -0.00136
95.3 -0.00078
95.35 0.00039
95.4 0.00105
95.45 0.00196
95.5 0.00325
95.55 0.00317
95.6 0.00364
95.65 0.00428
95.7 0.00442
95.75 0.00444
95.8 0.00445
95.85 0.00439
95.9 0.00403
95.95 0.00411
96 0.00458
96.05 0.00451
96.1 0.00443
96.15 0.00426
96.2 0.00374
96.25 0.00373
96.3 0.00334
96.35 0.0022
96.4 0.00201
96.45 0.00112
96.5 0.00126
96.55 0.00106
96.6 0.00152
96.65 0.00248
96.7 0.0028
96.75 0.00342
96.8 0.00395
96.85 0.00461
96.9 0.00481
96.95 0.0047
97 0.00386
97.05 0.00331
97.1 0.00328
97.15 0.00314
97.2 0.00194
97.25 0.00174
97.3 0.00144
97.35 0.0007
97.4 0.00068
97.45 0.00057
97.5 -0.00044
97.55 -0.00046
97.6 -0.00127
97.65 -0.00223
97.7 -0.00293
97.75 -0.00276
97.8 -0.00172
97.85 -0.00068
97.9 0.00074
97.95 0.0012
98 0.0005
98.05 -0.00012
98.1 -0.00141
98.15 -0.00209
98.2 -0.00249
98.25 -0.00307
98.3 -0.00375
98.35 -0.00381
98.4 -0.00415
98.45 -0.00454
98.5 -0.00458
98.55 -0.00504
98.6 -0.00538
98.65 -0.0046
98.7 -0.00367
98.75 -0.00236
98.8 -0.00183
98.85 -0.00207
98.9 -0.00134
98.95 -0.0012
99 -0.00119
99.05 -0.0008
99.1 0.00005
99.15 0.00077
99.2 0.00122
99.25 0.00192
99.3 0.00179
99.35 0.00157
99.4 0.00156
99.45 0.00178
99.5 0.00181
99.55 0.00117
99.6 0.00137
99.65 0.00195
99.7 0.00239
99.75 0.00266
99.8 0.00319
99.85 0.00242
99.9 0.00152
99.95 0.00016
