0 0
0.05 0.00002
0.1 0.00005
0.15 0.00012
0.2 0.00034
0.25 0.00051
0.3 0.0006
0.35 0.00067
0.4 0.0007
0.45 0.00074
0.5 0.00072
0.55 0.00081
0.6 0.0009
0.65 0.00098
0.7 0.00103
0.75 0.00102
0.8 0.00104
0.85 0.00098
0.9 0.00088
0.95 0.0008
1 0.00084
1.05 0.00093
1.1 0.0009
1.15 0.00091
1.2 0.00101
1.25 0.00102
1.3 0.00111
1.35 0.00123
1.4 0.00126
1.45 0.00131
1.5 0.00127
1.55 0.00118
1.6 0.00121
1.65 0.00126
1.7 0.00123
1.75 0.00109
1.8 0.00092
1.85 0.00085
1.9 0.00073
1.95 0.00063
2 0.0005
2.05 0.00043
2.1 0.00046
2.15 0.00042
2.2 0.0005
2.25 0.00051
2.3 0.00064
2.35 0.00068
2.4 0.00062
2.45 0.00062
2.5 0.0006
2.55 0.00061
2.6 0.00061
2.65 0.00058
2.7 0.00064
2.75 0.00062
2.8 0.00063
2.85 0.00059
2.9 0.00053
2.95 0.0005
3 0.00045
3.05 0.00049
3.1 0.00059
3.15 0.00072
3.2 0.00088
3.25 0.00099
3.3 0.00092
3.35 0.00092
3.4 0.00086
3.45 0.00081
3.5 0.00077
3.55 0.00076
3.6 0.00082
3.65 0.00074
3.7 0.00063
3.75 0.00044
3.8 0.00029
3.85 0.00016
3.9 0.00007
3.95 0.00003
4 -0.00005
4.05 -0.00014
4.1 -0.00004
4.15 0.00009
4.2 0.00009
4.25 0.00006
4.3 0.00009
4.35 0.00021
4.4 0.00032
4.45 0.00043
4.5 0.00057
4.55 0.0007
4.6 0.0008
4.65 0.00084
4.7 0.00085
4.75 0.00078
4.8 0.00069
4.85 0.00057
4.9 0.00049
4.95 0.00049
5 0.00054
5.05 0.00065
5.1 0.00075
5.15 0.00069
5.2 0.00057
5.25 0.00036
5.3 0.00019
5.35 0.00002
5.4 0.00002
5.45 0.00004
5.5 0.00009
5.55 0.00018
5.6 0.00036
5.65 0.00053
5.7 0.00052
5.75 0.00056
5.8 0.00062
5.85 0.00054
5.9 0.00042
5.95 0.0004
6 0.00045
6.05 0.00043
6.1 0.00049
6.15 0.00058
6.2 0.00071
6.25 0.00076
6.3 0.00085
6.35 0.00075
6.4 0.0007
6.45 0.00067
6.5 0.00056
6.55 0.0005
6.6 0.00034
6.65 0.00027
6.7 0.00027
6.75 0.00035
6.8 0.00048
6.85 0.00058
6.9 0.00053
6.95 0.00056
7 0.00049
7.05 0.00031
7.1 0.00013
7.15 -0.00008
7.2 -0.0001
7.25 -0.00017
7.3 -0.00013
7.35 -0.0001
7.4 -0.00002
7.45 0.00011
7.5 0.0002
7.55 0.00013
7.6 0.00009
7.65 0.00006
7.7 0.00009
7.75 0.00004
7.8 -0.00007
7.85 -0.00014
7.9 -0.00018
7.95 -0.00028
8 -0.00027
8.05 -0.00028
8.1 -0.00033
8.15 -0.00041
8.2 -0.00038
8.25 -0.00039
8.3 -0.00038
8.35 -0.00029
8.4 -0.00018
8.45 -0.00019
8.5 -0.0002
8.55 -0.00023
8.6 -0.00013
8.65 0.00005
8.7 0.00008
8.75 0.00017
8.8 0.0002
8.85 0.00032
8.9 0.00046
8.95 0.00052
9 0.00057
9.05 0.00063
9.1 0.00068
9.15 0.00074
9.2 0.00065
9.25 0.00054
9.3 0.00041
9.35 0.00041
9.4 0.00039
9.45 0.00032
9.5 0.00023
9.55 0.00021
9.6 0.0001
9.65 0.00011
9.7 0.00014
9.75 0.00024
9.8 0.00032
9.85 0.00035
9.9 0.00039
9.95 0.00039
10 0.0004
10.05 0.00039
10.1 0.00033
10.15 0.00018
10.2 -0.00003
10.25 -0.00022
10.3 -0.00029
10.35 -0.00022
10.4 -0.0001
10.45 -0.00001
10.5 -0.00006
10.55 -0.00016
10.6 -0.0002
10.65 -0.00014
10.7 -0.00013
10.75 -0.00003
10.8 0.00003
10.85 -0.00001
10.9 0.00003
10.95 0.00015
11 0.00023
11.05 0.00018
11.1 0.00011
11.15 -0.00005
11.2 -0.00019
11.25 -0.00016
11.3 -0.00016
11.35 -0.00008
11.4 0.00004
11.45 0.00009
11.5 0.00003
11.55 -0.00007
11.6 -0.00003
11.65 -0.00007
11.7 -0.00005
11.75 -0.00007
11.8 -0.00003
11.85 0.00005
11.9 0.00017
11.95 0.00024
12 0.00028
12.05 0.00028
12.1 0.0002
12.15 0.00002
12.2 -0.00018
12.25 -0.00037
12.3 -0.00046
12.35 -0.0004
12.4 -0.00043
12.45 -0.0004
12.5 -0.00044
12.55 -0.00038
12.6 -0.00028
12.65 -0.00011
12.7 0.00002
12.75 0.00002
12.8 0.00008
12.85 0.00016
12.9 0.00019
12.95 0.00009
13 -0
13.05 -0.00012
13.1 -0.00022
13.15 -0.00019
13.2 -0.00017
13.25 -0.00008
13.3 -0.0001
13.35 -0.00019
13.4 -0.00014
13.45 -0.00009
13.5 -0.00015
13.55 -0.00024
13.6 -0.0002
13.65 -0.00007
13.7 0.0001
13.75 0.00023
13.8 0.0002
13.85 0.00027
13.9 0.00022
13.95 0.00017
14 0.00006
14.05 -0.00012
14.1 -0.00018
14.15 -0.00021
14.2 -0.00029
14.25 -0.00028
14.3 -0.00028
14.35 -0.00029
14.4 -0.00027
14.45 -0.0002
14.5 -0.00013
14.55 0
14.6 0.00014
14.65 0.0002
14.7 0.00019
14.75 0.00008
14.8 0.00001
14.85 -0.00011
14.9 -0.0001
14.95 -0.00017
15 -0.0001
15.05 0.00002
15.1 0.00008
15.15 0.00005
15.2 0.00013
15.25 0.00022
15.3 0.00019
15.35 0.00018
15.4 0.00026
15.45 0.00032
15.5 0.00041
15.55 0.00053
15.6 0.00064
15.65 0.00056
15.7 0.00054
15.75 0.00044
15.8 0.00033
15.85 0.0003
15.9 0.00022
15.95 0.00011
16 0.00013
16.05 0.00006
16.1 0.00011
16.15 0.00012
16.2 0.00022
16.25 0.00033
16.3 0.00039
16.35 0.00045
16.4 0.00046
16.45 0.00047
16.5 0.00048
16.55 0.00038
16.6 0.00017
16.65 0.00012
16.7 0.00017
16.75 0.0001
16.8 0.00001
16.85 -0.00011
16.9 -0.0001
16.95 -0.00003
17 0.00002
17.05 0.00013
17.1 0.00014
17.15 0.00007
17.2 0.00001
17.25 0.00006
17.3 0.00015
17.35 0.00022
17.4 0.00014
17.45 -0.00003
17.5 -0.0001
17.55 -0.00022
17.6 -0.00023
17.65 -0.00023
17.7 -0.00019
17.75 -0.00027
17.8 -0.00023
17.85 -0.00025
17.9 -0.00019
17.95 -0.00019
18 -0.00019
18.05 -0.0002
18.1 -0.00025
18.15 -0.00025
18.2 -0.00032
18.25 -0.00033
18.3 -0.00037
18.35 -0.00041
18.4 -0.0003
18.45 -0.0003
18.5 -0.00032
18.55 -0.00031
18.6 -0.00039
18.65 -0.00032
18.7 -0.00016
18.75 -0.00007
18.8 0.00001
18.85 -0.00002
18.9 -0.00014
18.95 -0.00011
19 -0.00015
19.05 -0.00026
19.1 -0.00037
19.15 -0.00046
19.2 -0.00039
19.25 -0.00034
19.3 -0.00035
19.35 -0.00038
19.4 -0.0004
19.45 -0.00038
19.5 -0.00045
19.55 -0.00039
19.6 -0.00022
19.65 -0.00019
19.7 -0.00006
19.75 0.00014
19.8 0.00017
19.85 0.00013
19.9 0.00013
19.95 0.00021
20 0.00022
20.05 0.00013
20.1 0.00005
20.15 -0.00004
20.2 -0.00016
20.25 -0.00013
20.3 -0.00005
20.35 -0.00005
20.4 -0.00016
20.45 -0.00023
20.5 -0.00022
20.55 -0.00013
20.6 -0.00009
20.65 -0.00014
20.7 -0.00015
20.75 -0.00021
20.8 -0.00011
20.85 -0.00008
20.9 -0.00007
20.95 0.00005
21 0.00023
21.05 0.00024
21.1 0.00022
21.15 0.00014
21.2 -0.00001
21.25 -0.00002
21.3 0.00008
21.35 0.00012
21.4 0.00004
21.45 -0.00007
21.5 -0.00004
21.55 -0.00011
21.6 -0.00005
21.65 0.00005
21.7 0.00011
21.75 0.00009
21.8 -0.00004
21.85 -0.00003
21.9 -0.00002
21.95 0
22 -0.00008
22.05 -0.00004
22.1 -0.00005
22.15 0.00003
22.2 0.00008
22.25 0.00017
22.3 0.00011
22.35 0.00017
22.4 0.00011
22.45 0
22.5 -0.00002
22.55 -0.00002
22.6 0.00005
22.65 0.00004
22.7 -0.00007
22.75 -0.00022
22.8 -0.0003
22.85 -0.00039
22.9 -0.00045
22.95 -0.00053
23 -0.00051
23.05 -0.00045
23.1 -0.0003
23.15 -0.0002
23.2 -0.00008
23.25 0.00008
23.3 0.00022
23.35 0.00018
23.4 0.00011
23.45 0.00008
23.5 0.00016
23.55 0.00015
23.6 0.00011
23.65 0.00003
23.7 -0.00005
23.75 -0.00004
23.8 -0.00011
23.85 -0.00021
23.9 -0.00023
23.95 -0.00014
24 -0.00007
24.05 0.00006
24.1 0.00025
24.15 0.00038
24.2 0.00039
24.25 0.00045
24.3 0.00045
24.35 0.0004
24.4 0.00036
24.45 0.00031
24.5 0.00027
24.55 0.00017
24.6 0.00012
24.65 0.00009
24.7 -0.00001
24.75 -0.00012
24.8 -0.00027
24.85 -0.00042
24.9 -0.00038
24.95 -0.00029
25 -0.00018
25.05 -0.00003
25.1 0.00015
25.15 0.00023
25.2 0.00024
25.25 0.00013
25.3 0.00011
25.35 0.00003
25.4 0.00007
25.45 0.0001
25.5 0.00013
25.55 0.00019
25.6 0.00028
25.65 0.00022
25.7 0.00019
25.75 0.00016
25.8 0.00018
25.85 0.00022
25.9 0.00023
25.95 0.00025
26 0.00027
26.05 0.00033
26.1 0.00038
26.15 0.00044
26.2 0.00037
26.25 0.00018
26.3 0.00014
26.35 0.00009
26.4 -0.00003
26.45 -0.0001
26.5 -0.00014
26.55 -0.00024
26.6 -0.00037
26.65 -0.00041
26.7 -0.00044
26.75 -0.00054
26.8 -0.0005
26.85 -0.0004
26.9 -0.00043
26.95 -0.00031
27 -0.0003
27.05 -0.00031
27.1 -0.00028
27.15 -0.00026
27.2 -0.00024
27.25 -0.00015
27.3 -0.00015
27.35 -0.00007
27.4 0.00002
27.45 0.0001
27.5 0.00008
27.55 -0.00005
27.6 -0.00002
27.65 -0.00008
27.7 -0.00019
27.75 -0.00021
27.8 -0.00012
27.85 0.00004
27.9 0.00005
27.95 0.00008
28 0.0001
28.05 0.0001
28.1 -0.00001
28.15 -0.00016
28.2 -0.00015
28.25 -0.00015
28.3 -0.00021
28.35 -0.00015
28.4 -0.00011
28.45 -0.00018
28.5 -0.00021
28.55 -0.00016
28.6 -0.0002
28.65 -0.00016
28.7 -0.0002
28.75 -0.00027
28.8 -0.00034
28.85 -0.00035
28.9 -0.00033
28.95 -0.00024
29 -0.00011
29.05 0.00001
29.1 -0.00001
29.15 0
29.2 -0.00001
29.25 -0.00011
29.3 -0.00016
29.35 -0.00011
29.4 0.00003
29.45 0.00002
29.5 0.0001
29.55 0.00021
29.6 0.00032
29.65 0.00035
29.7 0.00036
29.75 0.0003
29.8 0.00015
29.85 0.00013
29.9 0.00009
29.95 0.00003
30 -0.00006
30.05 -0.00019
30.1 -0.00035
30.15 -0.00035
30.2 -0.00021
30.25 -0.00011
30.3 -0.00001
30.35 0.00013
30.4 0.0002
30.45 0.00011
30.5 0.00015
30.55 0.00008
30.6 0.00006
30.65 0.0001
30.7 0.00015
30.75 0.00017
30.8 0.00007
30.85 0.00009
30.9 0.0002
30.95 0.00022
31 0.00013
31.05 0.00004
31.1 0.00005
31.15 0.00012
31.2 0.00024
31.25 0.00037
31.3 0.00037
31.35 0.00037
31.4 0.00043
31.45 0.00035
31.5 0.0003
31.55 0.00016
31.6 -0.00005
31.65 -0.00025
31.7 -0.00029
31.75 -0.00036
31.8 -0.00037
31.85 -0.00043
31.9 -0.00037
31.95 -0.00028
32 -0.00021
32.05 -0.00012
32.1 -0.00014
32.15 -0.0002
32.2 -0.00015
32.25 -0.00005
32.3 -0.00005
32.35 -0.00011
32.4 -0.00023
32.45 -0.00034
32.5 -0.00042
32.55 -0.00042
32.6 -0.00046
32.65 -0.00037
32.7 -0.00025
32.75 -0.00025
32.8 -0.00028
32.85 -0.00018
32.9 -0.00001
32.95 0.00007
33 0.00003
33.05 -0.0001
33.1 -0.00021
33.15 -0.00031
33.2 -0.0004
33.25 -0.00032
33.3 -0.00016
33.35 0
33.4 0.00016
33.45 0.00035
33.5 0.00037
33.55 0.00041
33.6 0.00043
33.65 0.00049
33.7 0.00055
33.75 0.00049
33.8 0.00039
33.85 0.00024
33.9 0.00019
33.95 0.00015
34 0.00004
34.05 0.00007
34.1 0.00016
34.15 0.00015
34.2 0.00012
34.25 0.00003
34.3 -0.00004
34.35 -0.00006
34.4 -0.00009
34.45 -0.00013
34.5 -0.00023
34.55 -0.00034
34.6 -0.00033
34.65 -0.00034
34.7 -0.00038
34.75 -0.00035
34.8 -0.00029
34.85 -0.00019
34.9 -0.00002
34.95 0.00005
35 0.00013
35.05 0.00024
35.1 0.00033
35.15 0.00044
35.2 0.00037
35.25 0.00025
35.3 0.00018
35.35 0.00013
35.4 0.00012
35.45 0.00001
35.5 -0.00008
35.55 -0.00021
35.6 -0.00024
35.65 -0.00025
35.7 -0.0003
35.75 -0.0003
35.8 -0.00029
35.85 -0.00033
35.9 -0.00026
35.95 -0.00025
36 -0.00027
36.05 -0.00021
36.1 -0.00022
36.15 -0.00023
36.2 -0.00032
36.25 -0.00039
36.3 -0.00043
36.35 -0.00048
36.4 -0.00043
36.45 -0.00039
36.5 -0.00028
36.55 -0.00022
36.6 -0.00025
36.65 -0.00015
36.7 -0.00004
36.75 -0
36.8 0.00005
36.85 0
36.9 0.00008
36.95 0.00003
37 -0.00009
37.05 -0.00024
37.1 -0.00027
37.15 -0.00035
37.2 -0.00036
37.25 -0.00037
37.3 -0.00033
37.35 -0.00017
37.4 0.00004
37.45 0.00024
37.5 0.00046
37.55 0.0005
37.6 0.00058
37.65 0.00053
37.7 0.00036
37.75 0.00022
37.8 0.0001
37.85 -0.00007
37.9 -0.00013
37.95 -0.00021
38 -0.00024
38.05 -0.00018
38.1 -0.00002
38.15 0.00007
38.2 0.00011
38.25 0.00018
38.3 0.00026
38.35 0.00034
38.4 0.0003
38.45 0.00019
38.5 0.00004
38.55 -0.00011
38.6 -0.00009
38.65 0.00003
38.7 0.0002
38.75 0.00027
38.8 0.00041
38.85 0.00053
38.9 0.00065
38.95 0.00057
39 0.00042
39.05 0.00026
39.1 0.00005
39.15 -0.00003
39.2 -0.00017
39.25 -0.00014
39.3 -0.00014
39.35 -0.00017
39.4 -0.00027
39.45 -0.00031
39.5 -0.00036
39.55 -0.00046
39.6 -0.0004
39.65 -0.00042
39.7 -0.00033
39.75 -0.00026
39.8 -0.00029
39.85 -0.00033
39.9 -0.00041
39.95 -0.00034
40 -0.00034
40.05 -0.00037
40.1 -0.00036
40.15 -0.00029
40.2 -0.00016
40.25 0.00002
40.3 0.00013
40.35 0.00011
40.4 0.00003
40.45 -0.00007
40.5 -0.00001
40.55 0.00003
40.6 -0.00004
40.65 0.00003
40.7 -0.00003
40.75 -0.00012
40.8 -0.00018
40.85 -0.00026
40.9 -0.00035
40.95 -0.00036
41 -0.00028
41.05 -0.00026
41.1 -0.00029
41.15 -0.00027
41.2 -0.00026
41.25 -0.00031
41.3 -0.00023
41.35 -0.0001
41.4 0.00004
41.45 0.00004
41.5 0.00011
41.55 0.00025
41.6 0.00037
41.65 0.00033
41.7 0.00018
41.75 0.00007
41.8 0.00004
41.85 0.00002
41.9 0
41.95 0.00007
42 0.00009
42.05 0.00021
42.1 0.00033
42.15 0.00042
42.2 0.00042
42.25 0.0005
42.3 0.00062
42.35 0.00064
42.4 0.0006
42.45 0.00058
42.5 0.00055
42.55 0.00047
42.6 0.00035
42.65 0.00034
42.7 0.00031
42.75 0.00028
42.8 0.0002
42.85 0.00015
42.9 0.00003
42.95 -0.00005
43 -0.00019
43.05 -0.0003
43.1 -0.00036
43.15 -0.00032
43.2 -0.00033
43.25 -0.00031
43.3 -0.00026
43.35 -0.00012
43.4 -0.00008
43.45 -0.00013
43.5 -0.00015
43.55 -0.0001
43.6 -0.00007
43.65 -0.00013
43.7 -0.00025
43.75 -0.00024
43.8 -0.00019
43.85 -0.00011
43.9 -0.00012
43.95 -0.00001
44 0.00006
44.05 0.00003
44.1 0.00004
44.15 0.00007
44.2 0.00004
44.25 -0.00008
44.3 -0.00003
44.35 0.00007
44.4 0.00013
44.45 0.00023
44.5 0.00025
44.55 0.00027
44.6 0.00023
44.65 0.00018
44.7 0.00008
44.75 0
44.8 -0.00001
44.85 0.00001
44.9 0
44.95 0.00005
45 0.00016
45.05 0.00014
45.1 0.00009
45.15 0.00016
45.2 0.0001
45.25 -0.00005
45.3 -0.00014
45.35 -0.00022
45.4 -0.00014
45.45 -0.00019
45.5 -0.00023
45.55 -0.00012
45.6 0.00005
45.65 0.00016
45.7 0.0002
45.75 0.00015
45.8 0.00021
45.85 0.00024
45.9 0.00034
45.95 0.00028
46 0.0003
46.05 0.0004
46.1 0.00037
46.15 0.00032
46.2 0.00032
46.25 0.00021
46.3 0.00005
46.35 -0.00008
46.4 -0.00005
46.45 -0.00011
46.5 -0.00024
46.55 -0.0004
46.6 -0.0005
46.65 -0.00057
46.7 -0.00064
46.75 -0.00067
46.8 -0.00072
46.85 -0.00061
46.9 -0.00047
46.95 -0.0003
47 -0.00019
47.05 -0.00004
47.1 0.00006
47.15 0.0001
47.2 0.00016
47.25 0.00028
47.3 0.00042
47.35 0.00048
47.4 0.00043
47.45 0.00027
47.5 0.0001
47.55 -0.00006
47.6 -0.00018
47.65 -0.00023
47.7 -0.00019
47.75 -0.00014
47.8 -0.00012
47.85 -0.00018
47.9 -0.00027
47.95 -0.00031
48 -0.00027
48.05 -0.00013
48.1 -0.00005
48.15 0.00004
48.2 0.0001
48.25 0.00019
48.3 0.00022
48.35 0.00019
48.4 0.00016
48.45 0.00005
48.5 -0.0001
48.55 -0.00015
48.6 -0.00018
48.65 -0.0001
48.7 0.00004
48.75 0.00022
48.8 0.00023
48.85 0.00012
48.9 -0.00001
48.95 -0.00018
49 -0.00021
49.05 -0.00014
49.1 -0.00016
49.15 -0.00022
49.2 -0.00027
49.25 -0.00031
49.3 -0.00031
49.35 -0.00032
49.4 -0.0002
49.45 -0.00009
49.5 -0.00006
49.55 -0.00013
49.6 -0.00017
49.65 -0.00014
49.7 -0
49.75 0.0001
49.8 0.00013
49.85 0.00013
49.9 0.00012
49.95 0.00007
50 0.00005
50.05 0.00013
50.1 0.00009
50.15 0.00017
50.2 0.00011
50.25 0.00017
50.3 0.0002
50.35 0.00021
50.4 0.00027
50.45 0.00019
50.5 0.00024
50.55 0.00024
50.6 0.00021
50.65 0.00028
50.7 0.0002
50.75 0.00009
50.8 -0.00007
50.85 -0.00011
50.9 -0.00008
50.95 -0.00005
51 -0.00001
51.05 0.00007
51.1 0.00002
51.15 0.00006
51.2 0.00001
51.25 0
51.3 0.00008
51.35 0.00006
51.4 0.00006
51.45 0.00013
51.5 0.0002
51.55 0.00028
51.6 0.00034
51.65 0.00045
51.7 0.00041
51.75 0.00036
51.8 0.00033
51.85 0.00025
51.9 0.00018
51.95 0.00016
52 0.00005
52.05 -0.00009
52.1 -0.00019
52.15 -0.00022
52.2 -0.00021
52.25 -0.00016
52.3 -0.00012
52.35 -0.00007
52.4 -0.00002
52.45 0.00009
52.5 0.00009
52.55 0.00013
52.6 0.0001
52.65 0.00011
52.7 0.00004
52.75 0.0001
52.8 0.00022
52.85 0.00027
52.9 0.00033
52.95 0.00028
53 0.00023
53.05 0.00012
53.1 0.00009
53.15 -0.00002
53.2 -0.00016
53.25 -0.00024
53.3 -0.00037
53.35 -0.00034
53.4 -0.00031
53.45 -0.00022
53.5 -0.0002
53.55 -0.00018
53.6 -0.00015
53.65 -0.00001
53.7 0.00011
53.75 0.0002
53.8 0.00014
53.85 0.00005
53.9 -0.00008
53.95 -0.00019
54 -0.00021
54.05 -0.00018
54.1 -0.00013
54.15 -0
54.2 0.00003
54.25 -0.00001
54.3 0.00002
54.35 0.00013
54.4 0.00007
54.45 0.00012
54.5 0.00007
54.55 -0.00006
54.6 -0.00009
54.65 -0.00018
54.7 -0.0002
54.75 -0.00009
54.8 -0
54.85 0.00009
54.9 0.00024
54.95 0.00024
55 0.00013
55.05 0.00003
55.1 0.00002
55.15 0.00013
55.2 0.00012
55.25 0.00001
55.3 -0.00007
55.35 -0.0001
55.4 -0.0001
55.45 -0.0001
55.5 -0.00016
55.55 -0.00025
55.6 -0.00035
55.65 -0.00029
55.7 -0.00016
55.75 -0.00004
55.8 0.00008
55.85 0.00016
55.9 0.00026
55.95 0.00034
56 0.00046
56.05 0.0006
56.1 0.00068
56.15 0.00071
56.2 0.00058
56.25 0.00051
56.3 0.0004
56.35 0.00035
56.4 0.00025
56.45 0.00022
56.5 0.00011
56.55 0.00013
56.6 0.00019
56.65 0.00025
56.7 0.00035
56.75 0.00041
56.8 0.00042
56.85 0.00035
56.9 0.00028
56.95 0.0001
57 -0.00002
57.05 -0.00006
57.1 -0.00017
57.15 -0.00025
57.2 -0.00034
57.25 -0.00032
57.3 -0.0002
57.35 -0.00003
57.4 0.00012
57.45 0.00014
57.5 0.00013
57.55 0.00017
57.6 0.00028
57.65 0.00038
57.7 0.0004
57.75 0.00038
57.8 0.00029
57.85 0.00028
57.9 0.00027
57.95 0.00022
58 0.00019
58.05 0.0001
58.1 -0.00011
58.15 -0.00034
58.2 -0.00044
58.25 -0.00052
58.3 -0.00063
58.35 -0.00066
58.4 -0.00083
58.45 -0.00087
58.5 -0.00094
58.55 -0.00105
58.6 -0.00115
58.65 -0.00129
58.7 -0.00157
58.75 -0.00184
58.8 -0.00207
58.85 -0.00237
58.9 -0.00274
58.95 -0.00321
59 -0.00364
59.05 -0.00405
59.1 -0.00459
59.15 -0.00525
59.2 -0.00594
59.25 -0.00658
59.3 -0.0073
59.35 -0.00811
59.4 -0.009
59.45 -0.01002
59.5 -0.01115
59.55 -0.01224
59.6 -0.0134
59.65 -0.01468
59.7 -0.01586
59.75 -0.01715
59.8 -0.01851
59.85 -0.01988
59.9 -0.02141
59.95 -0.023
60 -0.02466
60.05 -0.02629
60.1 -0.02811
60.15 -0.02991
60.2 -0.03171
60.25 -0.03348
60.3 -0.03521
60.35 -0.03713
60.4 -0.03912
60.45 -0.04103
60.5 -0.04283
60.55 -0.04456
60.6 -0.04616
60.65 -0.04759
60.7 -0.04887
60.75 -0.04999
60.8 -0.05089
60.85 -0.0518
60.9 -0.05253
60.95 -0.05297
61 -0.05321
61.05 -0.05317
61.1 -0.05292
61.15 -0.05249
61.2 -0.05177
61.25 -0.05075
61.3 -0.04941
61.35 -0.048
61.4 -0.04639
61.45 -0.04445
61.5 -0.04239
61.55 -0.04
61.6 -0.03734
61.65 -0.03458
61.7 -0.03162
61.75 -0.0285
61.8 -0.02529
61.85 -0.022
61.9 -0.01854
61.95 -0.01492
62 -0.01125
62.05 -0.00753
62.1 -0.00381
62.15 -0.00004
62.2 0.00368
62.25 0.00718
62.3 0.01057
62.35 0.01387
62.4 0.01698
62.45 0.01997
62.5 0.02277
62.55 0.02543
62.6 0.02792
62.65 0.03034
62.7 0.0326
62.75 0.03479
62.8 0.03677
62.85 0.03862
62.9 0.04026
62.95 0.0418
63 0.04309
63.05 0.04419
63.1 0.04525
63.15 0.0462
63.2 0.047
63.25 0.04752
63.3 0.04796
63.35 0.04822
63.4 0.04846
63.45 0.04863
63.5 0.04871
63.55 0.04875
63.6 0.04872
63.65 0.04859
63.7 0.04849
63.75 0.04839
63.8 0.04818
63.85 0.04808
63.9 0.04802
63.95 0.04798
64 0.04779
64.05 0.04764
64.1 0.04752
64.15 0.04743
64.2 0.04731
64.25 0.04718
64.3 0.04697
64.35 0.04658
64.4 0.04622
64.45 0.04586
64.5 0.04533
64.55 0.0448
64.6 0.04417
64.65 0.04359
64.7 0.04304
64.75 0.04251
64.8 0.04195
64.85 0.04127
64.9 0.04055
64.95 0.03965
65 0.0388
65.05 0.03781
65.1 0.03674
65.15 0.03564
65.2 0.03445
65.25 0.03328
65.3 0.03219
65.35 0.03093
65.4 0.02974
65.45 0.02851
65.5 0.02732
65.55 0.02601
65.6 0.02462
65.65 0.02317
65.7 0.02188
65.75 0.02047
65.8 0.01901
65.85 0.0177
65.9 0.01641
65.95 0.01504
66 0.01378
66.05 0.01247
66.1 0.01116
66.15 0.00998
66.2 0.00879
66.25 0.00753
66.3 0.00634
66.35 0.00512
66.4 0.00401
66.45 0.00298
66.5 0.00195
66.55 0.00105
66.6 0.00013
66.65 -0.00065
66.7 -0.00148
66.75 -0.00224
66.8 -0.00294
66.85 -0.00375
66.9 -0.00443
66.95 -0.00515
67 -0.00579
67.05 -0.00642
67.1 -0.00701
67.15 -0.00753
67.2 -0.00805
67.25 -0.00859
67.3 -0.00892
67.35 -0.00923
67.4 -0.00958
67.45 -0.00982
67.5 -0.00996
67.55 -0.01006
67.6 -0.01009
67.65 -0.01015
67.7 -0.01016
67.75 -0.01032
67.8 -0.01042
67.85 -0.01057
67.9 -0.01064
67.95 -0.01075
68 -0.0108
68.05 -0.01077
68.1 -0.01076
68.15 -0.01069
68.2 -0.0106
68.25 -0.0105
68.3 -0.0104
68.35 -0.01026
68.4 -0.01021
68.45 -0.01025
68.5 -0.01034
68.55 -0.01038
68.6 -0.01034
68.65 -0.01038
68.7 -0.01029
68.75 -0.0101
68.8 -0.0099
68.85 -0.0097
68.9 -0.00961
68.95 -0.00958
69 -0.00947
69.05 -0.00926
69.1 -0.00912
69.15 -0.00898
69.2 -0.00885
69.25 -0.0088
69.3 -0.00872
69.35 -0.00865
69.4 -0.00851
69.45 -0.00831
69.5 -0.00808
69.55 -0.00786
69.6 -0.00777
69.65 -0.00777
69.7 -0.0077
69.75 -0.00768
69.8 -0.00756
69.85 -0.00732
69.9 -0.00721
69.95 -0.007
70 -0.00691
70.05 -0.0068
70.1 -0.00673
70.15 -0.00671
70.2 -0.00672
70.25 -0.00664
70.3 -0.00643
70.35 -0.00614
70.4 -0.00583
70.45 -0.00555
70.5 -0.00541
70.55 -0.00543
70.6 -0.00536
70.65 -0.00541
70.7 -0.00532
70.75 -0.00522
70.8 -0.00506
70.85 -0.00492
70.9 -0.00475
70.95 -0.00458
71 -0.00445
71.05 -0.00446
71.1 -0.00445
71.15 -0.00438
71.2 -0.00442
71.25 -0.00438
71.3 -0.00445
71.35 -0.00436
71.4 -0.00419
71.45 -0.00398
71.5 -0.00395
71.55 -0.0039
71.6 -0.00384
71.65 -0.0038
71.7 -0.00371
71.75 -0.00376
71.8 -0.00386
71.85 -0.00392
71.9 -0.00396
71.95 -0.00394
72 -0.00396
72.05 -0.00397
72.1 -0.00398
72.15 -0.00384
72.2 -0.00366
72.25 -0.00347
72.3 -0.00327
72.35 -0.00323
72.4 -0.00323
72.45 -0.00322
72.5 -0.00326
72.55 -0.0033
72.6 -0.00339
72.65 -0.00333
72.7 -0.00332
72.75 -0.00334
72.8 -0.00321
72.85 -0.00297
72.9 -0.00272
72.95 -0.00265
73 -0.00253
73.05 -0.00252
73.1 -0.00256
73.15 -0.00261
73.2 -0.0026
73.25 -0.00255
73.3 -0.0024
73.35 -0.00237
73.4 -0.00231
73.45 -0.00221
73.5 -0.00209
73.55 -0.00203
73.6 -0.00193
73.65 -0.00179
73.7 -0.00176
73.75 -0.00171
73.8 -0.00173
73.85 -0.00182
73.9 -0.00196
73.95 -0.002
74 -0.00195
74.05 -0.00187
74.1 -0.0018
74.15 -0.0017
74.2 -0.00167
74.25 -0.00154
74.3 -0.00156
74.35 -0.00162
74.4 -0.00158
74.45 -0.00155
74.5 -0.00159
74.55 -0.0017
74.6 -0.00173
74.65 -0.00169
74.7 -0.00155
74.75 -0.00155
74.8 -0.0016
74.85 -0.0016
74.9 -0.00162
74.95 -0.00161
75 -0.00167
75.05 -0.00175
75.1 -0.00178
75.15 -0.0018
75.2 -0.00179
75.25 -0.00171
75.3 -0.00165
75.35 -0.00154
75.4 -0.00143
75.45 -0.00128
75.5 -0.00117
75.55 -0.00117
75.6 -0.00114
75.65 -0.00123
75.7 -0.00132
75.75 -0.00131
75.8 -0.00138
75.85 -0.00135
75.9 -0.00139
75.95 -0.00128
76 -0.00123
76.05 -0.00108
76.1 -0.00089
76.15 -0.00081
76.2 -0.00083
76.25 -0.00074
76.3 -0.00071
76.35 -0.00067
76.4 -0.00075
76.45 -0.00082
76.5 -0.0009
76.55 -0.00089
76.6 -0.00095
76.65 -0.00088
76.7 -0.00078
76.75 -0.00078
76.8 -0.00071
76.85 -0.00069
76.9 -0.00065
76.95 -0.00063
77 -0.00062
77.05 -0.00057
77.1 -0.00045
77.15 -0.00041
77.2 -0.00044
77.25 -0.00049
77.3 -0.00062
77.35 -0.0008
77.4 -0.00082
77.45 -0.00086
77.5 -0.00084
77.55 -0.00085
77.6 -0.00092
77.65 -0.00095
77.7 -0.00103
77.75 -0.00096
77.8 -0.00096
77.85 -0.00086
77.9 -0.00084
77.95 -0.00075
78 -0.0007
78.05 -0.00055
78.1 -0.00041
78.15 -0.00022
78.2 -0.0002
78.25 -0.0003
78.3 -0.00033
78.35 -0.00034
78.4 -0.00035
78.45 -0.00028
78.5 -0.0003
78.55 -0.00024
78.6 -0.00014
78.65 -0.00015
78.7 -0.00029
78.75 -0.00037
78.8 -0.00053
78.85 -0.00059
78.9 -0.00069
78.95 -0.00075
79 -0.00085
79.05 -0.00092
79.1 -0.00093
79.15 -0.00089
79.2 -0.00077
79.25 -0.00064
79.3 -0.0005
79.35 -0.00032
79.4 -0.00021
79.45 -0.0001
79.5 -0.00006
79.55 0.00005
79.6 0.00016
79.65 0.0001
79.7 0.00012
79.75 0.00005
79.8 0.00004
79.85 -0.00004
79.9 -0.00006
79.95 -0.00012
80 -0.00021
80.05 -0.00017
80.1 -0.0001
80.15 0.00002
80.2 0.00017
80.25 0.00023
80.3 0.0002
80.35 0.00016
80.4 0.00012
80.45 0.00004
80.5 0.00001
80.55 -0.00015
80.6 -0.00033
80.65 -0.0004
80.7 -0.0005
80.75 -0.00058
80.8 -0.0006
80.85 -0.00058
80.9 -0.0005
80.95 -0.00043
81 -0.00036
81.05 -0.00033
81.1 -0.00035
81.15 -0.00028
81.2 -0.0002
81.25 -0.00017
81.3 -0.00009
81.35 0.00003
81.4 0.00005
81.45 -0.00001
81.5 -0.0001
81.55 -0.00026
81.6 -0.00037
81.65 -0.00042
81.7 -0.00034
81.75 -0.00024
81.8 -0.00017
81.85 -0.00021
81.9 -0.00013
81.95 -0.00006
82 0.00003
82.05 -0
82.1 -0.00008
82.15 -0.00009
82.2 -0.00009
82.25 -0.0001
82.3 -0.00005
82.35 0
82.4 -0.00009
82.45 -0.00026
82.5 -0.00039
82.55 -0.00045
82.6 -0.00048
82.65 -0.00056
82.7 -0.00052
82.75 -0.00056
82.8 -0.00059
82.85 -0.00059
82.9 -0.00057
82.95 -0.00062
83 -0.00056
83.05 -0.00054
83.1 -0.0004
83.15 -0.00039
83.2 -0.00027
83.25 -0.00016
83.3 -0.00001
83.35 0.00012
83.4 0.00015
83.45 0.00008
83.5 0.00012
83.55 0.00015
83.6 0.00013
83.65 0
83.7 -0.00018
83.75 -0.0002
83.8 -0.00013
83.85 0.00002
83.9 0.00005
83.95 0.00014
84 0.0001
84.05 0.00005
84.1 -0.00006
84.15 -0.00023
84.2 -0.00023
84.25 -0.00028
84.3 -0.00018
84.35 -0.00019
84.4 -0.00016
84.45 -0.00009
84.5 0
84.55 -0.00004
84.6 -0.00003
84.65 0.00005
84.7 -0.00001
84.75 -0.00005
84.8 -0.00015
84.85 -0.00015
84.9 -0.00012
84.95 -0.00008
85 -0.00007
85.05 -0.00011
85.1 -0.00013
85.15 -0.00011
85.2 -0.00007
85.25 -0.00012
85.3 -0.00006
85.35 0.00006
85.4 0.00003
85.45 -0.0001
85.5 -0.00026
85.55 -0.00042
85.6 -0.00043
85.65 -0.00029
85.7 -0.00012
85.75 0.00008
85.8 0.00023
85.85 0.00023
85.9 0.0003
85.95 0.0003
86 0.00029
86.05 0.00017
86.1 0.00003
86.15 -0.00008
86.2 -0.00015
86.25 -0.0001
86.3 0.00003
86.35 0.00011
86.4 0.00014
86.45 0.00023
86.5 0.00017
86.55 0.0001
86.6 -0.00002
86.65 -0.00022
86.7 -0.00034
86.75 -0.0003
86.8 -0.00025
86.85 -0.00014
86.9 -0.00012
86.95 -0.00012
87 -0.00014
87.05 -0.00022
87.1 -0.00018
87.15 -0.00007
87.2 -0.00004
87.25 0
87.3 -0.00007
87.35 -0.00014
87.4 -0.00012
87.45 -0.00006
87.5 -0.00002
87.55 0.00003
87.6 0.00011
87.65 0.00006
87.7 0.00001
87.75 -0.00009
87.8 -0.00017
87.85 -0.00028
87.9 -0.00023
87.95 -0.0001
88 0
88.05 0.00013
88.1 0.00026
88.15 0.00037
88.2 0.00029
88.25 0.00021
88.3 0.00004
88.35 -0.00007
88.4 -0.00023
88.45 -0.0004
88.5 -0.00044
88.55 -0.00053
88.6 -0.00046
88.65 -0.00029
88.7 -0.00007
88.75 0.00006
88.8 0.00023
88.85 0.00033
88.9 0.00033
88.95 0.0003
89 0.00016
89.05 -0.00003
89.1 -0.00022
89.15 -0.00028
89.2 -0.00029
89.25 -0.00036
89.3 -0.0004
89.35 -0.0005
89.4 -0.00044
89.45 -0.00037
89.5 -0.00022
89.55 -0.00008
89.6 0.00004
89.65 0.00013
89.7 0.00009
89.75 -0.00003
89.8 0.00001
89.85 -0.00005
89.9 -0.00001
89.95 0.0001
90 0.00012
90.05 0.00016
90.1 0.00008
90.15 0.00013
90.2 0.00017
90.25 0.00024
90.3 0.0002
90.35 0.0001
90.4 0.00004
90.45 0.00001
90.5 -0.00011
90.55 -0.00018
90.6 -0.00019
90.65 -0.00009
90.7 0.00008
90.75 0.00029
90.8 0.00038
90.85 0.00029
90.9 0.00028
90.95 0.0003
91 0.00028
91.05 0.00033
91.1 0.00033
91.15 0.0003
91.2 0.00026
91.25 0.00027
91.3 0.00017
91.35 0.00002
91.4 -0.00017
91.45 -0.00018
91.5 -0.00021
91.55 -0.00023
91.6 -0.0003
91.65 -0.00031
91.7 -0.00035
91.75 -0.00037
91.8 -0.00044
91.85 -0.00044
91.9 -0.00038
91.95 -0.00041
92 -0.00031
92.05 -0.00032
92.1 -0.0003
92.15 -0.00017
92.2 0.00003
92.25 0.00011
92.3 0.00012
92.35 0.00011
92.4 0.00003
92.45 0.00002
92.5 0.00006
92.55 0.00017
92.6 0.00029
92.65 0.00032
92.7 0.0004
92.75 0.00041
92.8 0.00038
92.85 0.00024
92.9 0.00004
92.95 -0.00016
93 -0.00026
93.05 -0.00022
93.1 -0.00022
93.15 -0.00031
93.2 -0.00043
93.25 -0.00042
93.3 -0.0003
93.35 -0.0002
93.4 -0.00023
93.45 -0.00032
93.5 -0.00045
93.55 -0.0004
93.6 -0.00033
93.65 -0.00016
93.7 -0.00013
93.75 -0.00006
93.8 0.00009
93.85 0.00009
93.9 0.00019
93.95 0.0002
94 0.00025
94.05 0.00035
94.1 0.00036
94.15 0.00023
94.2 0.0002
94.25 0.00018
94.3 0.00011
94.35 0.00006
94.4 -0.00003
94.45 -0.00007
94.5 -0.00015
94.55 -0.00008
94.6 0.00006
94.65 0.00008
94.7 0.00017
94.75 0.00031
94.8 0.00047
94.85 0.00054
94.9 0.00053
94.95 0.00047
95 0.00042
95.05 0.00036
95.1 0.00026
95.15 0.00016
95.2 0.00004
95.25 -0.00007
95.3 -0.00004
95.35 -0.00004
95.4 0.00002
95.45 0.00003
95.5 0.00013
95.55 0.00021
95.6 0.00029
95.65 0.00029
95.7 0.0003
95.75 0.00028
95.8 0.00017
95.85 0.0001
95.9 0.00008
95.95 0.00015
96 0.00023
96.05 0.00016
96.1 0.00015
96.15 0.00017
96.2 0.00016
96.25 0.00019
96.3 0.00009
96.35 -0.00007
96.4 -0.0002
96.45 -0.00032
96.5 -0.00041
96.55 -0.00036
96.6 -0.00034
96.65 -0.00041
96.7 -0.00034
96.75 -0.00033
96.8 -0.00024
96.85 -0.00013
96.9 -0.00004
96.95 -0
97 -0.00003
97.05 -0.00002
97.1 0.00005
97.15 0.00016
97.2 0.00025
97.25 0.00027
97.3 0.00024
97.35 0.00023
97.4 0.00031
97.45 0.00042
97.5 0.0004
97.55 0.00037
97.6 0.00039
97.65 0.0003
97.7 0.0002
97.75 0.00008
97.8 0.0001
97.85 0.00009
97.9 0.00004
97.95 0.00006
98 -0.00005
98.05 -0.00016
98.1 -0.00019
98.15 -0.00026
98.2 -0.00023
98.25 -0.00022
98.3 -0.00029
98.35 -0.00033
98.4 -0.00039
98.45 -0.00031
98.5 -0.00019
98.55 -0.00019
98.6 -0.00025
98.65 -0.00027
98.7 -0.00021
98.75 -0.00013
98.8 0.00004
98.85 0.00015
98.9 0.00023
98.95 0.00023
99 0.00029
99.05 0.00028
99.1 0.00027
99.15 0.00031
99.2 0.00038
99.25 0.00045
99.3 0.00035
99.35 0.00021
99.4 0.00017
99.45 0.00015
99.5 0.00007
99.55 -0.00001
99.6 -0.00002
99.65 -0.00001
99.7 0
99.75 0.00011
99.8 0.00019
99.85 0.00026
99.9 0.0003
99.95 0.00032
