0 0
0.05 0.00001
0.1 0.00005
0.15 0.0001
0.2 0.00014
0.25 0.00015
0.3 0.00016
0.35 0.0002
0.4 0.00024
0.45 0.00029
0.5 0.00032
0.55 0.00033
0.6 0.00032
0.65 0.00029
0.7 0.00026
0.75 0.00022
0.8 0.00022
0.85 0.00023
0.9 0.00024
0.95 0.00022
1 0.00021
1.05 0.00021
1.1 0.00023
1.15 0.00027
1.2 0.0003
1.25 0.00032
1.3 0.00032
1.35 0.00031
1.4 0.00031
1.45 0.00029
1.5 0.00026
1.55 0.00023
1.6 0.00023
1.65 0.00023
1.7 0.00024
1.75 0.00022
1.8 0.00018
1.85 0.00017
1.9 0.00019
1.95 0.00022
2 0.00025
2.05 0.00024
2.1 0.00023
2.15 0.00019
2.2 0.00016
2.25 0.00012
2.3 0.00011
2.35 0.00009
2.4 0.0001
2.45 0.00012
2.5 0.00012
2.55 0.00012
2.6 0.00011
2.65 0.00012
2.7 0.0001
2.75 0.00012
2.8 0.00012
2.85 0.00011
2.9 0.00011
2.95 0.0001
3 0.00009
3.05 0.00008
3.1 0.0001
3.15 0.00012
3.2 0.00015
3.25 0.00018
3.3 0.00021
3.35 0.00025
3.4 0.00024
3.45 0.00022
3.5 0.00023
3.55 0.00024
3.6 0.00022
3.65 0.00019
3.7 0.00019
3.75 0.00017
3.8 0.00015
3.85 0.00015
3.9 0.00015
3.95 0.00015
4 0.00014
4.05 0.00011
4.1 0.00007
4.15 0.00007
4.2 0.00009
4.25 0.00008
4.3 0.00005
4.35 0.00003
4.4 0.00001
4.45 0.00003
4.5 0.00004
4.55 0.00003
4.6 0.00005
4.65 0.00009
4.7 0.00013
4.75 0.00014
4.8 0.00015
4.85 0.00015
4.9 0.00017
4.95 0.00016
5 0.00014
5.05 0.00012
5.1 0.00009
5.15 0.00008
5.2 0.00009
5.25 0.00009
5.3 0.00011
5.35 0.00013
5.4 0.00015
5.45 0.00017
5.5 0.00017
5.55 0.00019
5.6 0.00017
5.65 0.00016
5.7 0.00015
5.75 0.00014
5.8 0.00013
5.85 0.00013
5.9 0.00013
5.95 0.0001
6 0.00006
6.05 0.00006
6.1 0.00007
6.15 0.00006
6.2 0.00005
6.25 0.00003
6.3 0.00001
6.35 0
6.4 0
6.45 0
6.5 -0
6.55 -0.00003
6.6 -0.00002
6.65 -0.00001
6.7 0.00001
6.75 -0.00001
6.8 0.00001
6.85 0.00004
6.9 0.00006
6.95 0.00007
7 0.00008
7.05 0.00009
7.1 0.00007
7.15 0.00008
7.2 0.00009
7.25 0.00007
7.3 0.00008
7.35 0.0001
7.4 0.00011
7.45 0.00009
7.5 0.00006
7.55 0.00006
7.6 0.00007
7.65 0.00008
7.7 0.00011
7.75 0.00009
7.8 0.00007
7.85 0.00005
7.9 0.00003
7.95 0.00002
8 0
8.05 0.00001
8.1 -0
8.15 0.00001
8.2 -0.00001
8.25 -0.00001
8.3 -0.00001
8.35 0.00002
8.4 0.00003
8.45 0.00006
8.5 0.0001
8.55 0.0001
8.6 0.00009
8.65 0.00006
8.7 0.00001
8.75 -0.00001
8.8 -0.00004
8.85 -0.00004
8.9 -0.00003
8.95 -0
9 0.00002
9.05 0.00002
9.1 -0.00001
9.15 -0.00003
9.2 -0.00005
9.25 -0.00006
9.3 -0.00005
9.35 -0.00003
9.4 -0.00001
9.45 -0.00002
9.5 -0.00004
9.55 -0.00006
9.6 -0.00003
9.65 0
9.7 0.00003
9.75 0.00004
9.8 0.00005
9.85 0.00006
9.9 0.00008
9.95 0.00008
10 0.00006
10.05 0.00005
10.1 0.00005
10.15 0.00004
10.2 0.00002
10.25 0.00001
10.3 -0.00001
10.35 -0.00001
10.4 -0.00002
10.45 -0.00001
10.5 0.00003
10.55 0.00004
10.6 0.00002
10.65 0.00001
10.7 -0
10.75 0.00001
10.8 0.00002
10.85 0.00003
10.9 0.00005
10.95 0.00007
11 0.00006
11.05 0.00004
11.1 0.00001
11.15 -0.00004
11.2 -0.00008
11.25 -0.0001
11.3 -0.00008
11.35 -0.00006
11.4 -0.00004
11.45 -0.00001
11.5 0.00004
11.55 0.00005
11.6 0.00006
11.65 0.00009
11.7 0.00009
11.75 0.00009
11.8 0.00006
11.85 0.00003
11.9 0.00003
11.95 0.00005
12 0.00004
12.05 0.00004
12.1 0.00002
12.15 0.00001
12.2 -0.00002
12.25 -0.00003
12.3 -0.00002
12.35 -0.00002
12.4 -0.00003
12.45 -0.00005
12.5 -0.00006
12.55 -0.00004
12.6 -0.00005
12.65 -0.00004
12.7 -0.00002
12.75 0.00001
12.8 0.00003
12.85 0.00004
12.9 0.00003
12.95 0.00003
13 0.00005
13.05 0.00005
13.1 0.00004
13.15 0.00003
13.2 0.00005
13.25 0.00006
13.3 0.00007
13.35 0.00004
13.4 0.00003
13.45 0.00005
13.5 0.00005
13.55 0.00003
13.6 0
13.65 0.00001
13.7 -0.00001
13.75 -0.00002
13.8 -0.00002
13.85 -0.00001
13.9 -0.00001
13.95 -0.00004
14 -0.00005
14.05 -0.00007
14.1 -0.00005
14.15 -0.00002
14.2 -0.00001
14.25 0.00001
14.3 0.00001
14.35 -0.00001
14.4 0
14.45 0.00003
14.5 0.00006
14.55 0.00009
14.6 0.00012
14.65 0.0001
14.7 0.00006
14.75 0.00003
14.8 0.00002
14.85 0.00001
14.9 -0.00001
14.95 -0.00001
15 0.00001
15.05 0.00004
15.1 0.00006
15.15 0.00007
15.2 0.00005
15.25 0.00001
15.3 -0.00001
15.35 -0.00001
15.4 0.00001
15.45 0
15.5 -0.00002
15.55 -0.00004
15.6 -0.00004
15.65 -0.00001
15.7 -0
15.75 -0.00001
15.8 -0.00001
15.85 -0.00003
15.9 -0.00007
15.95 -0.00008
16 -0.0001
16.05 -0.00012
16.1 -0.00013
16.15 -0.00012
16.2 -0.00013
16.25 -0.00016
16.3 -0.00019
16.35 -0.00022
16.4 -0.00022
16.45 -0.00019
16.5 -0.00017
16.55 -0.00014
16.6 -0.00008
16.65 -0.00002
16.7 0.00002
16.75 0.00002
16.8 0.00004
16.85 0.00004
16.9 0.00001
16.95 0.00001
17 0.00001
17.05 0.00001
17.1 0
17.15 -0
17.2 -0
17.25 0.00001
17.3 0.00001
17.35 0.00002
17.4 0.00002
17.45 0.00004
17.5 0.00004
17.55 0.00004
17.6 0.00005
17.65 0.00008
17.7 0.00011
17.75 0.00012
17.8 0.00014
17.85 0.00012
17.9 0.0001
17.95 0.00007
18 0.00002
18.05 -0.00002
18.1 -0.00007
18.15 -0.00007
18.2 -0.00009
18.25 -0.00012
18.3 -0.00013
18.35 -0.00011
18.4 -0.00009
18.45 -0.00009
18.5 -0.00005
18.55 -0
18.6 0.00004
18.65 0.00005
18.7 0.00005
18.75 0.00004
18.8 0
18.85 -0.00002
18.9 -0.00002
18.95 0.00001
19 0.00003
19.05 0.00004
19.1 0.00005
19.15 0.00003
19.2 0.00003
19.25 0.00005
19.3 0.00007
19.35 0.00008
19.4 0.0001
19.45 0.00007
19.5 0.00003
19.55 -0.00001
19.6 -0.00003
19.65 -0.00004
19.7 -0.00002
19.75 -0
19.8 -0
19.85 -0.00001
19.9 0
19.95 -0.00002
20 -0.00003
20.05 -0.00001
20.1 -0.00001
20.15 -0
20.2 -0.00001
20.25 -0.00002
20.3 -0.00003
20.35 -0.00002
20.4 0
20.45 -0.00002
20.5 -0
20.55 0
20.6 0.00001
20.65 0.00002
20.7 0.00002
20.75 0.00001
20.8 0.00002
20.85 0.00003
20.9 0.00001
20.95 -0.00003
21 -0.00007
21.05 -0.0001
21.1 -0.00008
21.15 -0.00009
21.2 -0.00011
21.25 -0.00011
21.3 -0.0001
21.35 -0.0001
21.4 -0.00009
21.45 -0.0001
21.5 -0.00009
21.55 -0.00008
21.6 -0.00008
21.65 -0.00009
21.7 -0.00008
21.75 -0.00005
21.8 -0.00003
21.85 -0.00001
21.9 0
21.95 0.00004
22 0.00004
22.05 0.00007
22.1 0.00007
22.15 0.00006
22.2 0.00005
22.25 0.00001
22.3 0
22.35 0.00001
22.4 0.00002
22.45 0.00004
22.5 0.00006
22.55 0.00005
22.6 0.00006
22.65 0.00009
22.7 0.00011
22.75 0.0001
22.8 0.00012
22.85 0.00013
22.9 0.00012
22.95 0.00008
23 0.00007
23.05 0.00004
23.1 0.00005
23.15 0.00006
23.2 0.00005
23.25 0.00005
23.3 0.00001
23.35 -0.00003
23.4 -0.00007
23.45 -0.00008
23.5 -0.00008
23.55 -0.00008
23.6 -0.00005
23.65 -0
23.7 0.00001
23.75 0.00003
23.8 0.00004
23.85 0.00006
23.9 0.00007
23.95 0.00007
24 0.00005
24.05 0.00001
24.1 0.00001
24.15 -0.00002
24.2 -0.00006
24.25 -0.00008
24.3 -0.00009
24.35 -0.0001
24.4 -0.00012
24.45 -0.00014
24.5 -0.00014
24.55 -0.00016
24.6 -0.00016
24.65 -0.00015
24.7 -0.00015
24.75 -0.00014
24.8 -0.00011
24.85 -0.00009
24.9 -0.00005
24.95 0
25 0.00002
25.05 0
25.1 -0
25.15 0.00001
25.2 -0.00001
25.25 -0.00004
25.3 -0.00007
25.35 -0.0001
25.4 -0.00008
25.45 -0.00005
25.5 -0.00004
25.55 -0.00004
25.6 -0.00004
25.65 -0.00001
25.7 0.00003
25.75 0.00006
25.8 0.00005
25.85 0.00003
25.9 0.00002
25.95 0.00002
26 0.00001
26.05 0.00003
26.1 0.00006
26.15 0.00009
26.2 0.00011
26.25 0.0001
26.3 0.00011
26.35 0.00011
26.4 0.0001
26.45 0.00009
26.5 0.0001
26.55 0.0001
26.6 0.0001
26.65 0.00011
26.7 0.00009
26.75 0.00007
26.8 0.00002
26.85 -0.00003
26.9 -0.00004
26.95 -0.00004
27 -0.00003
27.05 -0.00004
27.1 -0.00004
27.15 -0.00006
27.2 -0.00009
27.25 -0.00009
27.3 -0.00007
27.35 -0.00007
27.4 -0.00007
27.45 -0.00007
27.5 -0.00009
27.55 -0.00006
27.6 -0.00003
27.65 0.00001
27.7 0.00003
27.75 0.00002
27.8 0.00004
27.85 0.00006
27.9 0.00009
27.95 0.00008
28 0.00005
28.05 0.00005
28.1 0.00004
28.15 0.00003
28.2 0.00004
28.25 0.00002
28.3 0.00004
28.35 0.00006
28.4 0.00008
28.45 0.00009
28.5 0.00006
28.55 0.00003
28.6 0.00003
28.65 0
28.7 -0.00002
28.75 -0.00004
28.8 -0.00008
28.85 -0.00007
28.9 -0.00009
28.95 -0.00011
29 -0.00015
29.05 -0.00016
29.1 -0.00019
29.15 -0.00023
29.2 -0.0003
29.25 -0.00039
29.3 -0.00043
29.35 -0.00047
29.4 -0.00052
29.45 -0.0006
29.5 -0.00069
29.55 -0.00082
29.6 -0.00098
29.65 -0.00117
29.7 -0.00139
29.75 -0.00164
29.8 -0.00193
29.85 -0.00226
29.9 -0.00267
29.95 -0.00313
30 -0.00363
30.05 -0.0042
30.1 -0.00484
30.15 -0.00554
30.2 -0.00627
30.25 -0.00707
30.3 -0.00791
30.35 -0.00875
30.4 -0.00964
30.45 -0.01058
30.5 -0.01155
30.55 -0.01253
30.6 -0.01349
30.65 -0.01442
30.7 -0.01525
30.75 -0.01602
30.8 -0.01668
30.85 -0.01721
30.9 -0.01759
30.95 -0.0178
31 -0.01781
31.05 -0.01757
31.1 -0.01714
31.15 -0.01646
31.2 -0.01552
31.25 -0.0143
31.3 -0.01278
31.35 -0.01104
31.4 -0.00901
31.45 -0.00676
31.5 -0.0043
31.55 -0.00171
31.6 0.00102
31.65 0.00383
31.7 0.0067
31.75 0.00959
31.8 0.01244
31.85 0.01517
31.9 0.01772
31.95 0.02006
32 0.02218
32.05 0.02401
32.1 0.02552
32.15 0.02664
32.2 0.02734
32.25 0.02764
32.3 0.02757
32.35 0.02712
32.4 0.02629
32.45 0.0251
32.5 0.02361
32.55 0.02183
32.6 0.01981
32.65 0.01765
32.7 0.01537
32.75 0.01305
32.8 0.01071
32.85 0.00838
32.9 0.00616
32.95 0.00407
33 0.00212
33.05 0.00034
33.1 -0.00119
33.15 -0.00249
33.2 -0.00351
33.25 -0.00426
33.3 -0.00475
33.35 -0.00501
33.4 -0.00507
33.45 -0.00494
33.5 -0.00466
33.55 -0.00426
33.6 -0.00373
33.65 -0.0031
33.7 -0.00242
33.75 -0.00173
33.8 -0.00108
33.85 -0.00044
33.9 0.00012
33.95 0.0006
34 0.00102
34.05 0.00132
34.1 0.00151
34.15 0.00161
34.2 0.00157
34.25 0.00146
34.3 0.00123
34.35 0.00088
34.4 0.00044
34.45 -0.00006
34.5 -0.00061
34.55 -0.00121
34.6 -0.00183
34.65 -0.00248
34.7 -0.00314
34.75 -0.0038
34.8 -0.00441
34.85 -0.00498
34.9 -0.00554
34.95 -0.00607
35 -0.00653
35.05 -0.00691
35.1 -0.00722
35.15 -0.00745
35.2 -0.0076
35.25 -0.00767
35.3 -0.00766
35.35 -0.00759
35.4 -0.00741
35.45 -0.00716
35.5 -0.00684
35.55 -0.00649
35.6 -0.00607
35.65 -0.00562
35.7 -0.00513
35.75 -0.00459
35.8 -0.004
35.85 -0.00339
35.9 -0.00278
35.95 -0.00214
36 -0.00152
36.05 -0.00092
36.1 -0.0003
36.15 0.00031
36.2 0.0009
36.25 0.00146
36.3 0.00201
36.35 0.00249
36.4 0.00298
36.45 0.00344
36.5 0.00388
36.55 0.00426
36.6 0.00457
36.65 0.00487
36.7 0.00516
36.75 0.00538
36.8 0.00558
36.85 0.00575
36.9 0.00585
36.95 0.00593
37 0.00595
37.05 0.00595
37.1 0.00594
37.15 0.00591
37.2 0.00587
37.25 0.00578
37.3 0.00569
37.35 0.00559
37.4 0.00546
37.45 0.00532
37.5 0.00518
37.55 0.00503
37.6 0.00484
37.65 0.00466
37.7 0.00449
37.75 0.00431
37.8 0.00411
37.85 0.0039
37.9 0.00369
37.95 0.00347
38 0.00326
38.05 0.00303
38.1 0.00282
38.15 0.00264
38.2 0.00246
38.25 0.00226
38.3 0.00205
38.35 0.00186
38.4 0.00165
38.45 0.00144
38.5 0.00123
38.55 0.00108
38.6 0.00095
38.65 0.00084
38.7 0.00074
38.75 0.00062
38.8 0.00049
38.85 0.00035
38.9 0.00021
38.95 0.00011
39 -0.00001
39.05 -0.00011
39.1 -0.00023
39.15 -0.00034
39.2 -0.00042
39.25 -0.0005
39.3 -0.00054
39.35 -0.00061
39.4 -0.00065
39.45 -0.00067
39.5 -0.0007
39.55 -0.00073
39.6 -0.00076
39.65 -0.00079
39.7 -0.0008
39.75 -0.00085
39.8 -0.00088
39.85 -0.00091
39.9 -0.00093
39.95 -0.00093
40 -0.00096
40.05 -0.00099
40.1 -0.00103
40.15 -0.00108
40.2 -0.0011
40.25 -0.0011
40.3 -0.00109
40.35 -0.00111
40.4 -0.00109
40.45 -0.0011
40.5 -0.00113
40.55 -0.00116
40.6 -0.00116
40.65 -0.00117
40.7 -0.00117
40.75 -0.00114
40.8 -0.0011
40.85 -0.00109
40.9 -0.00109
40.95 -0.00109
41 -0.00109
41.05 -0.00106
41.1 -0.00104
41.15 -0.001
41.2 -0.00098
41.25 -0.00095
41.3 -0.00091
41.35 -0.00087
41.4 -0.00086
41.45 -0.00088
41.5 -0.0009
41.55 -0.00089
41.6 -0.00087
41.65 -0.00084
41.7 -0.00081
41.75 -0.00078
41.8 -0.00076
41.85 -0.00075
41.9 -0.00071
41.95 -0.00069
42 -0.00071
42.05 -0.0007
42.1 -0.0007
42.15 -0.00071
42.2 -0.0007
42.25 -0.00071
42.3 -0.00071
42.35 -0.00073
42.4 -0.00076
42.45 -0.00075
42.5 -0.00072
42.55 -0.00069
42.6 -0.00063
42.65 -0.00059
42.7 -0.0006
42.75 -0.00061
42.8 -0.00064
42.85 -0.00067
42.9 -0.00066
42.95 -0.00065
43 -0.00063
43.05 -0.00062
43.1 -0.00058
43.15 -0.00056
43.2 -0.00052
43.25 -0.00051
43.3 -0.00051
43.35 -0.00051
43.4 -0.00049
43.45 -0.00048
43.5 -0.00045
43.55 -0.00045
43.6 -0.00042
43.65 -0.0004
43.7 -0.00042
43.75 -0.00042
43.8 -0.00039
43.85 -0.0004
43.9 -0.00043
43.95 -0.00044
44 -0.00043
44.05 -0.0004
44.1 -0.00039
44.15 -0.00036
44.2 -0.00037
44.25 -0.00036
44.3 -0.00036
44.35 -0.00038
44.4 -0.00041
44.45 -0.00039
44.5 -0.00038
44.55 -0.00037
44.6 -0.00036
44.65 -0.00034
44.7 -0.00033
44.75 -0.00031
44.8 -0.00031
44.85 -0.00033
44.9 -0.00037
44.95 -0.0004
45 -0.00041
45.05 -0.00042
45.1 -0.0004
45.15 -0.00039
45.2 -0.00037
45.25 -0.00035
45.3 -0.00036
45.35 -0.00033
45.4 -0.00033
45.45 -0.00035
45.5 -0.00036
45.55 -0.00035
45.6 -0.00032
45.65 -0.0003
45.7 -0.00029
45.75 -0.00029
45.8 -0.00031
45.85 -0.00032
45.9 -0.00033
45.95 -0.00033
46 -0.00033
46.05 -0.00034
46.1 -0.00033
46.15 -0.00031
46.2 -0.00028
46.25 -0.00027
46.3 -0.00027
46.35 -0.00025
46.4 -0.00021
46.45 -0.00018
46.5 -0.00016
46.55 -0.00013
46.6 -0.00012
46.65 -0.00012
46.7 -0.00011
46.75 -0.00011
46.8 -0.00013
46.85 -0.00012
46.9 -0.00014
46.95 -0.00017
47 -0.00017
47.05 -0.00017
47.1 -0.00016
47.15 -0.00018
47.2 -0.00021
47.25 -0.00021
47.3 -0.00022
47.35 -0.00023
47.4 -0.00021
47.45 -0.0002
47.5 -0.00021
47.55 -0.00021
47.6 -0.00021
47.65 -0.00017
47.7 -0.00016
47.75 -0.00015
47.8 -0.00011
47.85 -0.00006
47.9 -0.00004
47.95 -0.00002
48 -0
48.05 0.00001
48.1 0
48.15 -0.00003
48.2 -0.00005
48.25 -0.0001
48.3 -0.00011
48.35 -0.00012
48.4 -0.00015
48.45 -0.00016
48.5 -0.00016
48.55 -0.00018
48.6 -0.00019
48.65 -0.00016
48.7 -0.00011
48.75 -0.0001
48.8 -0.00009
48.85 -0.00008
48.9 -0.00006
48.95 -0.00007
49 -0.00009
49.05 -0.00013
49.1 -0.00012
49.15 -0.00012
49.2 -0.00013
49.25 -0.00015
49.3 -0.00013
49.35 -0.00011
49.4 -0.00011
49.45 -0.00012
49.5 -0.00013
49.55 -0.00011
49.6 -0.00011
49.65 -0.00007
49.7 -0.00007
49.75 -0.00004
49.8 -0
49.85 0.00004
49.9 0.00005
49.95 0.00006
50 0.00006
50.05 0.00006
50.1 0.00004
50.15 0.00002
50.2 -0.00002
50.25 -0.00006
50.3 -0.00009
50.35 -0.00013
50.4 -0.00016
50.45 -0.00017
50.5 -0.00019
50.55 -0.00018
50.6 -0.00017
50.65 -0.00018
50.7 -0.00019
50.75 -0.00019
50.8 -0.00017
50.85 -0.00014
50.9 -0.00013
50.95 -0.0001
51 -0.00005
51.05 -0.00004
51.1 -0.00002
51.15 0.00001
51.2 0.00001
51.25 -0.00001
51.3 -0.00002
51.35 -0.00002
51.4 -0.00004
51.45 -0.00002
51.5 -0.00001
51.55 0.00001
51.6 0.00003
51.65 0.00002
51.7 -0.00002
51.75 -0.00001
51.8 0.00002
51.85 0.00002
51.9 0.00001
51.95 0.00002
52 0
52.05 -0
52.1 -0.00001
52.15 0
52.2 0.00002
52.25 0.00002
52.3 0.00003
52.35 0.00002
52.4 -0.00002
52.45 -0.00001
52.5 -0.00001
52.55 -0.00003
52.6 -0.00006
52.65 -0.00005
52.7 -0.00006
52.75 -0.00005
52.8 -0.00004
52.85 -0.00004
52.9 -0.00005
52.95 -0.00007
53 -0.00006
53.05 -0.00004
53.1 -0.00001
53.15 -0.00001
53.2 -0.00001
53.25 -0.00003
53.3 -0.00005
53.35 -0.00008
53.4 -0.00008
53.45 -0.00009
53.5 -0.00008
53.55 -0.00008
53.6 -0.00009
53.65 -0.00011
53.7 -0.00009
53.75 -0.00008
53.8 -0.00005
53.85 -0.00002
53.9 0.00001
53.95 0
54 -0.00001
54.05 -0
54.1 -0.00002
54.15 -0.00001
54.2 0.00002
54.25 0.00001
54.3 0
54.35 0.00002
54.4 0.00003
54.45 0.00005
54.5 0.00006
54.55 0.00004
54.6 0.00004
54.65 0.00004
54.7 0.00007
54.75 0.00009
54.8 0.00007
54.85 0.00004
54.9 0.00003
54.95 0
55 -0.00002
55.05 -0.00006
55.1 -0.00008
55.15 -0.0001
55.2 -0.00013
55.25 -0.00013
55.3 -0.00013
55.35 -0.00011
55.4 -0.00006
55.45 0
55.5 0.00006
55.55 0.00011
55.6 0.00015
55.65 0.00015
55.7 0.00016
55.75 0.00015
55.8 0.00014
55.85 0.00013
55.9 0.00011
55.95 0.0001
56 0.00005
56.05 0.00002
56.1 -0.00002
56.15 -0.00004
56.2 -0.00007
56.25 -0.00006
56.3 -0.00005
56.35 -0.00005
56.4 -0.00004
56.45 -0.00001
56.5 -0.00001
56.55 -0.00002
56.6 -0.00004
56.65 -0.00007
56.7 -0.0001
56.75 -0.0001
56.8 -0.0001
56.85 -0.00009
56.9 -0.0001
56.95 -0.00007
57 -0.00008
57.05 -0.00009
57.1 -0.00012
57.15 -0.0001
57.2 -0.0001
57.25 -0.0001
57.3 -0.00008
57.35 -0.00008
57.4 -0.00008
57.45 -0.00007
57.5 -0.00009
57.55 -0.00011
57.6 -0.00009
57.65 -0.00008
57.7 -0.00004
57.75 0.00001
57.8 0.00007
57.85 0.0001
57.9 0.00014
57.95 0.00015
58 0.00018
58.05 0.00018
58.1 0.00018
58.15 0.00016
58.2 0.00016
58.25 0.00013
58.3 0.00009
58.35 0.00006
58.4 0.00005
58.45 0.00004
58.5 0.00006
58.55 0.00003
58.6 0.00003
58.65 0.00006
58.7 0.00007
58.75 0.00006
58.8 0.00004
58.85 0.00002
58.9 -0.00001
58.95 -0.00002
59 -0.00005
59.05 -0.00009
59.1 -0.0001
59.15 -0.00011
59.2 -0.00008
59.25 -0.00008
59.3 -0.00007
59.35 -0.00006
59.4 -0.00005
59.45 -0.00006
59.5 -0.00008
59.55 -0.0001
59.6 -0.00012
59.65 -0.00015
59.7 -0.00016
59.75 -0.00018
59.8 -0.00016
59.85 -0.00014
59.9 -0.00012
59.95 -0.00012
60 -0.00013
60.05 -0.00012
60.1 -0.00012
60.15 -0.00011
60.2 -0.00009
60.25 -0.00006
60.3 -0.00005
60.35 -0.00004
60.4 -0.00003
60.45 -0.00003
60.5 -0.00003
60.55 -0.00004
60.6 -0.00004
60.65 -0.00004
60.7 -0.00002
60.75 0.00002
60.8 0.00004
60.85 0.00003
60.9 0.00002
60.95 0.00003
61 0.00004
61.05 0.00004
61.1 0.00005
61.15 0.00003
61.2 0
61.25 -0.00002
61.3 -0.00001
61.35 0.00001
61.4 0.00004
61.45 0.00008
61.5 0.00009
61.55 0.00009
61.6 0.0001
61.65 0.00012
61.7 0.00014
61.75 0.00016
61.8 0.00013
61.85 0.00012
61.9 0.0001
61.95 0.0001
62 0.00012
62.05 0.00009
62.1 0.00005
62.15 0.00003
62.2 -0.00001
62.25 -0.00004
62.3 -0.00005
62.35 -0.00008
62.4 -0.00009
62.45 -0.00007
62.5 -0.00006
62.55 -0.00003
62.6 -0
62.65 -0
62.7 -0.00001
62.75 -0
62.8 -0.00002
62.85 -0.00006
62.9 -0.00007
62.95 -0.00008
63 -0.00008
63.05 -0.00004
63.1 -0.00001
63.15 0.00002
63.2 0.00006
63.25 0.00006
63.3 0.00006
63.35 0.00007
63.4 0.00007
63.45 0.00006
63.5 0.00003
63.55 0.00001
63.6 0
63.65 0
63.7 -0.00002
63.75 -0.00001
63.8 -0
63.85 0
63.9 0
63.95 -0.00002
64 -0.00001
64.05 -0
64.1 -0.00001
64.15 0.00001
64.2 0.00003
64.25 0.00006
64.3 0.00004
64.35 0.00001
64.4 -0.00002
64.45 -0.00002
64.5 0.00001
64.55 0.00006
64.6 0.00008
64.65 0.0001
64.7 0.00013
64.75 0.00014
64.8 0.00014
64.85 0.0001
64.9 0.00009
64.95 0.00009
65 0.00008
65.05 0.00004
65.1 0.00003
65.15 0
65.2 0
65.25 0
65.3 -0.00002
65.35 -0.00002
65.4 -0.00001
65.45 0.00001
65.5 0.00004
65.55 0.00003
65.6 0.00004
65.65 0.00002
65.7 0.00002
65.75 0.00002
65.8 -0.00001
65.85 -0.00002
65.9 -0
65.95 0.00003
66 0.00007
66.05 0.00007
66.1 0.00008
66.15 0.0001
66.2 0.00009
66.25 0.00008
66.3 0.0001
66.35 0.00008
66.4 0.00003
66.45 0
66.5 -0.00003
66.55 -0.00008
66.6 -0.00007
66.65 -0.00004
66.7 -0.00001
66.75 0.00002
66.8 0.00003
66.85 0.00002
66.9 0.00001
66.95 -0.00002
67 -0.00005
67.05 -0.00008
67.1 -0.00012
67.15 -0.00012
67.2 -0.00011
67.25 -0.00011
67.3 -0.00009
67.35 -0.00008
67.4 -0.00005
67.45 -0.00003
67.5 -0.00001
67.55 -0.00001
67.6 -0.00003
67.65 -0.00006
67.7 -0.00006
67.75 -0.00003
67.8 0.00001
67.85 0.00001
67.9 -0.00001
67.95 -0.00004
68 -0.00005
68.05 -0.00006
68.1 -0.00005
68.15 -0.00003
68.2 0.00001
68.25 0.00003
68.3 0.00002
68.35 0.00004
68.4 0.00003
68.45 0.00002
68.5 0.00001
68.55 -0.00002
68.6 -0.00005
68.65 -0.00008
68.7 -0.00011
68.75 -0.00011
68.8 -0.00009
68.85 -0.00006
68.9 -0.00003
68.95 -0.00003
69 0
69.05 0.00003
69.1 0.00004
69.15 0.00006
69.2 0.00005
69.25 0.00004
69.3 -0
69.35 -0.00001
69.4 -0.00001
69.45 0.00001
69.5 0
69.55 0.00003
69.6 0.00003
69.65 0.00002
69.7 -0
69.75 -0.00003
69.8 -0.00007
69.85 -0.00009
69.9 -0.0001
69.95 -0.0001
70 -0.00012
70.05 -0.00011
70.1 -0.00007
70.15 -0.00002
70.2 0.00004
70.25 0.00006
70.3 0.00009
70.35 0.00008
70.4 0.00005
70.45 0.00001
70.5 -0.00004
70.55 -0.00009
70.6 -0.00012
70.65 -0.00011
70.7 -0.00008
70.75 -0.00004
70.8 0.00001
70.85 0.00004
70.9 0.00007
70.95 0.00007
71 0.00004
71.05 0.00003
71.1 0.00001
71.15 -0.00003
71.2 -0.00006
71.25 -0.00009
71.3 -0.00013
71.35 -0.00012
71.4 -0.00008
71.45 -0.00002
71.5 0
71.55 0.00002
71.6 0.00003
71.65 0.00005
71.7 0.00005
71.75 0.00007
71.8 0.00007
71.85 0.00007
71.9 0.00005
71.95 0.00005
72 0.00007
72.05 0.00006
72.1 0.00007
72.15 0.00008
72.2 0.00007
72.25 0.00005
72.3 0.00001
72.35 -0.00004
72.4 -0.00007
72.45 -0.00006
72.5 -0.00003
72.55 -0.00003
72.6 -0.00001
72.65 0.00003
72.7 0.00004
72.75 0.00003
72.8 0.00003
72.85 0.00002
72.9 -0.00001
72.95 -0.00004
73 -0.00003
73.05 -0.00002
73.1 0.00001
73.15 0.00005
73.2 0.00005
73.25 0.00003
73.3 0.00001
73.35 -0.00003
73.4 -0.00003
73.45 -0.00001
73.5 -0
73.55 -0.00002
73.6 -0.00003
73.65 -0.00003
73.7 -0.00005
73.75 -0.00007
73.8 -0.00008
73.85 -0.00005
73.9 -0.00001
73.95 0.00001
74 0.00004
74.05 0.00003
74.1 0.00004
74.15 0.00004
74.2 0.00004
74.25 0.00002
74.3 0
74.35 0
74.4 0.00003
74.45 0.00002
74.5 0
74.55 0.00001
74.6 0.00003
74.65 0.00002
74.7 0
74.75 0.00001
74.8 0.00004
74.85 0.00007
74.9 0.0001
74.95 0.00012
75 0.00012
75.05 0.00007
75.1 0.00005
75.15 0.00005
75.2 0.00002
75.25 -0.00001
75.3 -0.00005
75.35 -0.00006
75.4 -0.00004
75.45 0
75.5 0.00005
75.55 0.00008
75.6 0.00008
75.65 0.00007
75.7 0.00005
75.75 0.00003
75.8 0.00004
75.85 0.00001
75.9 0.00001
75.95 -0.00003
76 -0.00002
76.05 -0.00002
76.1 -0.00002
76.15 -0.00003
76.2 -0.00003
76.25 -0.00003
76.3 -0.00002
76.35 -0.00004
76.4 -0.00003
76.45 -0.00004
76.5 -0.00007
76.55 -0.00006
76.6 -0.00008
76.65 -0.00006
76.7 -0.00004
76.75 -0.00003
76.8 -0.00001
76.85 0.00001
76.9 0.00001
76.95 0.00003
77 0.00005
77.05 0.00004
77.1 0.00006
77.15 0.00006
77.2 0.00003
77.25 0.00003
77.3 0.00004
77.35 0.00007
77.4 0.00009
77.45 0.00009
77.5 0.00006
77.55 0.00006
77.6 0.00007
77.65 0.00006
77.7 0.00003
77.75 0.00003
77.8 0.00002
77.85 0.00001
77.9 -0.00001
77.95 -0.00003
78 -0.00003
78.05 -0.00002
78.1 -0.00003
78.15 -0.00002
78.2 0.00001
78.25 0.00002
78.3 -0.00001
78.35 -0.00002
78.4 -0.00001
78.45 -0.00003
78.5 -0.00002
78.55 -0
78.6 -0.00002
78.65 -0.00002
78.7 -0.00002
78.75 -0.00003
78.8 -0.00006
78.85 -0.00011
78.9 -0.0001
78.95 -0.00009
79 -0.0001
79.05 -0.00012
79.1 -0.00012
79.15 -0.00011
79.2 -0.00008
79.25 -0.00008
79.3 -0.00005
79.35 -0.00004
79.4 -0.00005
79.45 -0.00006
79.5 -0.00009
79.55 -0.00011
79.6 -0.00012
79.65 -0.00012
79.7 -0.00011
79.75 -0.00011
79.8 -0.00011
79.85 -0.00008
79.9 -0.00005
79.95 -0.00004
80 -0.00002
80.05 -0.00003
80.1 -0.00006
80.15 -0.0001
80.2 -0.00009
80.25 -0.00007
80.3 -0.00006
80.35 -0.00002
80.4 0
80.45 0.00003
80.5 0.00002
80.55 0.00003
80.6 0.00002
80.65 0.00002
80.7 0.00003
80.75 0.00005
80.8 0.00006
80.85 0.00004
80.9 0
80.95 -0
81 0.00002
81.05 0.00005
81.1 0.00006
81.15 0.00005
81.2 0.00001
81.25 0.00002
81.3 0.00003
81.35 0.00004
81.4 0.00006
81.45 0.0001
81.5 0.00009
81.55 0.00011
81.6 0.00009
81.65 0.00005
81.7 0.00001
81.75 0
81.8 0.00002
81.85 0.00002
81.9 0.00002
81.95 0.00003
82 0.00005
82.05 0.00007
82.1 0.0001
82.15 0.00009
82.2 0.00008
82.25 0.00007
82.3 0.00007
82.35 0.00004
82.4 0.00004
82.45 0.00002
82.5 0.00002
82.55 -0.00002
82.6 -0.00006
82.65 -0.00007
82.7 -0.00009
82.75 -0.00009
82.8 -0.00009
82.85 -0.00006
82.9 -0.00003
82.95 -0.00003
83 -0.00004
83.05 -0.00004
83.1 -0.00003
83.15 -0
83.2 0.00002
83.25 0
83.3 -0.00003
83.35 -0.00004
83.4 -0.00002
83.45 -0.00002
83.5 0.00001
83.55 0.00003
83.6 0.00007
83.65 0.00007
83.7 0.00006
83.75 0.00006
83.8 0.00004
83.85 0.00003
83.9 0.00004
83.95 0.00003
84 0.00003
84.05 0.00002
84.1 0.00001
84.15 0.00001
84.2 -0.00002
84.25 -0.00003
84.3 -0.00002
84.35 -0.00003
84.4 -0.00004
84.45 -0.00003
84.5 -0
84.55 0
84.6 -0.00002
84.65 -0.00005
84.7 -0.00008
84.75 -0.00008
84.8 -0.00006
84.85 -0.00005
84.9 -0.00004
84.95 -0.00005
85 -0.00004
85.05 -0.00005
85.1 -0.00004
85.15 -0
85.2 0.00001
85.25 0
85.3 0.00001
85.35 0.00001
85.4 -0.00002
85.45 -0.00003
85.5 -0.00006
85.55 -0.0001
85.6 -0.00013
85.65 -0.00016
85.7 -0.00015
85.75 -0.00011
85.8 -0.0001
85.85 -0.0001
85.9 -0.00011
85.95 -0.00008
86 -0.00005
86.05 -0.00004
86.1 -0.00004
86.15 -0.00005
86.2 -0.00004
86.25 -0.00005
86.3 -0.00008
86.35 -0.00007
86.4 -0.00005
86.45 -0.00003
86.5 0
86.55 0.00001
86.6 0.00001
86.65 0.00001
86.7 0.00004
86.75 0.00006
86.8 0.00008
86.85 0.00007
86.9 0.00007
86.95 0.00006
87 0.00003
87.05 0.00003
87.1 0.00003
87.15 0.00004
87.2 0.00004
87.25 0.00003
87.3 0.00003
87.35 0.00002
87.4 0.00001
87.45 -0.00001
87.5 -0
87.55 -0
87.6 -0.00001
87.65 -0.00001
87.7 -0.00002
87.75 -0.00001
87.8 0.00002
87.85 0.00003
87.9 0.00002
87.95 0
88 0
88.05 -0.00001
88.1 0.00001
88.15 -0.00001
88.2 -0.00001
88.25 -0.00004
88.3 -0.00005
88.35 -0.00005
88.4 -0.00004
88.45 -0.00006
88.5 -0.00005
88.55 -0.00004
88.6 -0.00005
88.65 -0.00004
88.7 -0.00002
88.75 -0.00001
88.8 0.00001
88.85 0.00002
88.9 0.00003
88.95 0.00002
89 0.00001
89.05 0
89.1 0.00001
89.15 0
89.2 0.00002
89.25 0.00002
89.3 0.00005
89.35 0.00007
89.4 0.00008
89.45 0.00011
89.5 0.00014
89.55 0.00017
89.6 0.00017
89.65 0.00016
89.7 0.00011
89.75 0.00006
89.8 0.00004
89.85 0.00002
89.9 -0.00001
89.95 -0.00004
90 -0.00005
90.05 -0.00006
90.1 -0.00008
90.15 -0.00011
90.2 -0.00013
90.25 -0.00013
90.3 -0.00014
90.35 -0.0001
90.4 -0.00008
90.45 -0.00006
90.5 -0.00003
90.55 -0.00001
90.6 -0
90.65 -0.00001
90.7 -0.00003
90.75 -0.00002
90.8 -0.00001
90.85 -0.00003
90.9 -0.00002
90.95 -0.00003
91 -0.00002
91.05 0.00001
91.1 0.00001
91.15 0.00002
91.2 0.00004
91.25 0.00004
91.3 0.00004
91.35 0.00006
91.4 0.00006
91.45 0.00004
91.5 0
91.55 -0.00002
91.6 -0.00002
91.65 0.00001
91.7 0.00001
91.75 0.00002
91.8 0.00004
91.85 0.00004
91.9 0.00006
91.95 0.00005
92 0.00004
92.05 -0
92.1 -0.00004
92.15 -0.00006
92.2 -0.00008
92.25 -0.00008
92.3 -0.00009
92.35 -0.00007
92.4 -0.00007
92.45 -0.00004
92.5 -0
92.55 0.00001
92.6 0.00001
92.65 0
92.7 -0.00002
92.75 -0.00004
92.8 -0.00006
92.85 -0.00007
92.9 -0.00005
92.95 -0.00003
93 -0.00003
93.05 -0.00002
93.1 -0.00001
93.15 -0.00003
93.2 -0.00006
93.25 -0.00009
93.3 -0.00012
93.35 -0.00014
93.4 -0.00013
93.45 -0.00012
93.5 -0.00011
93.55 -0.00011
93.6 -0.00008
93.65 -0.00006
93.7 -0.00005
93.75 -0
93.8 0.00002
93.85 0.00004
93.9 0.00003
93.95 0.00001
94 -0.00002
94.05 -0.00005
94.1 -0.00008
94.15 -0.00006
94.2 -0.00002
94.25 -0
94.3 0.00001
94.35 0.00003
94.4 0.00004
94.45 0.00004
94.5 0.00004
94.55 0.00005
94.6 0.00004
94.65 0.00004
94.7 0.00003
94.75 0.00003
94.8 0.00003
94.85 0.00002
94.9 -0
94.95 -0.00001
95 -0.00003
95.05 -0.00001
95.1 -0.00001
95.15 -0.00003
95.2 -0.00006
95.25 -0.00007
95.3 -0.00007
95.35 -0.00008
95.4 -0.00008
95.45 -0.00004
95.5 0.00002
95.55 0.00007
95.6 0.00009
95.65 0.00008
95.7 0.00006
95.75 0.00005
95.8 0.00002
95.85 0.00002
95.9 0.00003
95.95 0.00006
96 0.00008
96.05 0.00012
96.1 0.00015
96.15 0.00017
96.2 0.00018
96.25 0.00016
96.3 0.00012
96.35 0.00007
96.4 0.00005
96.45 0.00004
96.5 0.00002
96.55 0.00004
96.6 0.00006
96.65 0.00007
96.7 0.00006
96.75 0.00006
96.8 0.00003
96.85 -0.00001
96.9 -0.00002
96.95 -0.00002
97 -0.00003
97.05 -0.00004
97.1 -0.00005
97.15 -0.00004
97.2 -0.00001
97.25 0.00003
97.3 0.00004
97.35 0.00004
97.4 0.00002
97.45 0.00002
97.5 0
97.55 -0.00003
97.6 -0.00003
97.65 -0.00004
97.7 -0.00005
97.75 -0.00006
97.8 -0.00008
97.85 -0.00009
97.9 -0.00009
97.95 -0.00007
98 -0.00004
98.05 0.00001
98.1 0.00003
98.15 0.00006
98.2 0.00006
98.25 0.00003
98.3 0.00001
98.35 0.00001
98.4 0.00001
98.45 -0.00001
98.5 0.00001
98.55 0.00001
98.6 -0.00002
98.65 -0.00005
98.7 -0.00008
98.75 -0.00006
98.8 -0.00007
98.85 -0.00007
98.9 -0.00007
98.95 -0.00007
99 -0.00009
99.05 -0.00009
99.1 -0.00006
99.15 -0.00005
99.2 -0.00003
99.25 -0.00002
99.3 -0.00003
99.35 -0.00002
99.4 -0.00001
99.45 -0.00002
99.5 -0.00003
99.55 -0.00001
99.6 -0.00001
99.65 0.00001
99.7 0.00002
99.75 0.00001
99.8 -0.00001
99.85 -0.00004
99.9 -0.00004
99.95 -0.00002
