0 0
0.05 0.00474
0.1 0.01372
0.15 0.0213
0.2 0.02533
0.25 0.03325
0.3 0.03566
0.35 0.03557
0.4 0.03641
0.45 0.04173
0.5 0.04438
0.55 0.04621
0.6 0.04471
0.65 0.04655
0.7 0.04507
0.75 0.04921
0.8 0.05053
0.85 0.04814
0.9 0.04712
0.95 0.04624
1 0.04625
1.05 0.04537
1.1 0.04203
1.15 0.03922
1.2 0.04186
1.25 0.04736
1.3 0.05088
1.35 0.0506
1.4 0.04874
1.45 0.04629
1.5 0.0458
1.55 0.0484
1.6 0.04995
1.65 0.05089
1.7 0.04689
1.75 0.04601
1.8 0.04737
1.85 0.04263
1.9 0.03655
1.95 0.03282
2 0.02713
2.05 0.02476
2.1 0.02221
2.15 0.02348
2.2 0.02467
2.25 0.02252
2.3 0.02027
2.35 0.01957
2.4 0.0247
2.45 0.02428
2.5 0.02317
2.55 0.02536
2.6 0.0257
2.65 0.02179
2.7 0.02436
2.75 0.02261
2.8 0.02312
2.85 0.02179
2.9 0.02295
2.95 0.02736
3 0.02992
3.05 0.02917
3.1 0.02455
3.15 0.02091
3.2 0.01692
3.25 0.0155
3.3 0.01503
3.35 0.01364
3.4 0.01306
3.45 0.01384
3.5 0.01705
3.55 0.02032
3.6 0.02666
3.65 0.03128
3.7 0.02867
3.75 0.02173
3.8 0.01932
3.85 0.01971
3.9 0.01551
3.95 0.0165
4 0.01864
4.05 0.01853
4.1 0.02012
4.15 0.02251
4.2 0.02117
4.25 0.01761
4.3 0.01297
4.35 0.01232
4.4 0.01318
4.45 0.01071
4.5 0.00589
4.55 -0.00671
4.6 -0.01759
4.65 -0.03099
4.7 -0.05242
4.75 -0.07876
4.8 -0.10399
4.85 -0.1278
4.9 -0.15854
4.95 -0.19352
5 -0.23333
5.05 -0.27203
5.1 -0.31597
5.15 -0.3632
5.2 -0.42251
5.25 -0.48913
5.3 -0.55833
5.35 -0.63475
5.4 -0.71639
5.45 -0.79859
5.5 -0.88214
5.55 -0.96236
5.6 -1.04406
5.65 -1.12034
5.7 -1.19973
5.75 -1.27593
5.8 -1.34851
5.85 -1.41523
5.9 -1.48171
5.95 -1.54534
6 -1.59647
6.05 -1.6436
6.1 -1.68012
6.15 -1.70842
6.2 -1.73488
6.25 -1.75322
6.3 -1.7659
6.35 -1.77588
6.4 -1.78228
6.45 -1.77775
6.5 -1.76944
6.55 -1.75285
6.6 -1.72632
6.65 -1.6893
6.7 -1.63966
6.75 -1.57971
6.8 -1.51483
6.85 -1.44324
6.9 -1.3575
6.95 -1.26158
7 -1.15435
7.05 -1.04152
7.1 -0.92014
7.15 -0.78885
7.2 -0.64428
7.25 -0.49387
7.3 -0.34281
7.35 -0.18404
7.4 -0.02101
7.45 0.13954
7.5 0.29745
7.55 0.4472
7.6 0.59072
7.65 0.72409
7.7 0.85408
7.75 0.97296
7.8 1.08814
7.85 1.19287
7.9 1.28751
7.95 1.37359
8 1.44716
8.05 1.51099
8.1 1.56889
8.15 1.61718
8.2 1.65335
8.25 1.67813
8.3 1.69903
8.35 1.71507
8.4 1.72343
8.45 1.71916
8.5 1.70752
8.55 1.6918
8.6 1.66924
8.65 1.64454
8.7 1.61942
8.75 1.59374
8.8 1.56538
8.85 1.53624
8.9 1.50249
8.95 1.46855
9 1.43487
9.05 1.39918
9.1 1.36856
9.15 1.34067
9.2 1.31653
9.25 1.29107
9.3 1.26217
9.35 1.2381
9.4 1.21068
9.45 1.18186
9.5 1.15808
9.55 1.13422
9.6 1.10968
9.65 1.08402
9.7 1.06052
9.75 1.0362
9.8 1.01088
9.85 0.98908
9.9 0.96859
9.95 0.95103
10 0.93635
10.05 0.91753
10.1 0.90069
10.15 0.87823
10.2 0.85691
10.25 0.82966
10.3 0.8052
10.35 0.77905
10.4 0.75073
10.45 0.72028
10.5 0.68992
10.55 0.66397
10.6 0.63907
10.65 0.61397
10.7 0.58566
10.75 0.55586
10.8 0.52646
10.85 0.49979
10.9 0.46849
10.95 0.43927
11 0.41454
11.05 0.38871
11.1 0.35904
11.15 0.32906
11.2 0.29774
11.25 0.26624
11.3 0.2334
11.35 0.20022
11.4 0.17316
11.45 0.14925
11.5 0.12537
11.55 0.10142
11.6 0.07505
11.65 0.05603
11.7 0.04094
11.75 0.02148
11.8 0.0001
11.85 -0.0199
11.9 -0.04023
11.95 -0.0537
12 -0.06634
12.05 -0.08246
12.1 -0.09304
12.15 -0.10598
12.2 -0.1225
12.25 -0.13681
12.3 -0.14622
12.35 -0.1526
12.4 -0.15696
12.45 -0.15949
12.5 -0.1625
12.55 -0.17235
12.6 -0.18714
12.65 -0.19868
12.7 -0.21005
12.75 -0.22007
12.8 -0.22827
12.85 -0.23118
12.9 -0.23731
12.95 -0.24313
13 -0.24984
13.05 -0.25329
13.1 -0.25476
13.15 -0.25409
13.2 -0.25531
13.25 -0.25664
13.3 -0.25844
13.35 -0.25586
13.4 -0.25852
13.45 -0.26251
13.5 -0.26635
13.55 -0.2648
13.6 -0.26267
13.65 -0.26438
13.7 -0.2591
13.75 -0.25765
13.8 -0.25038
13.85 -0.24632
13.9 -0.24393
13.95 -0.24122
14 -0.24129
14.05 -0.24336
14.1 -0.24141
14.15 -0.24319
14.2 -0.24057
14.25 -0.23795
14.3 -0.23175
14.35 -0.22663
14.4 -0.2235
14.45 -0.21567
14.5 -0.20519
14.55 -0.19784
14.6 -0.19349
14.65 -0.19278
14.7 -0.19244
14.75 -0.18728
14.8 -0.18745
14.85 -0.19039
14.9 -0.19181
14.95 -0.18705
15 -0.18388
15.05 -0.17971
15.1 -0.18027
15.15 -0.17816
15.2 -0.17443
15.25 -0.17518
15.3 -0.17302
15.35 -0.16869
15.4 -0.16555
15.45 -0.15913
15.5 -0.15006
15.55 -0.13948
15.6 -0.13279
15.65 -0.13221
15.7 -0.13118
15.75 -0.13032
15.8 -0.13219
15.85 -0.13325
15.9 -0.136
15.95 -0.14193
16 -0.14056
16.05 -0.14115
16.1 -0.13685
16.15 -0.13109
16.2 -0.12874
16.25 -0.12975
16.3 -0.12506
16.35 -0.11952
16.4 -0.11258
16.45 -0.1091
16.5 -0.10956
16.55 -0.11075
16.6 -0.10958
16.65 -0.10669
16.7 -0.10199
16.75 -0.10294
16.8 -0.10713
16.85 -0.11219
16.9 -0.11217
16.95 -0.11022
17 -0.10465
17.05 -0.10275
17.1 -0.10378
17.15 -0.0985
17.2 -0.09326
17.25 -0.09144
17.3 -0.09444
17.35 -0.09191
17.4 -0.08786
17.45 -0.08524
17.5 -0.08516
17.55 -0.08398
17.6 -0.08048
17.65 -0.07401
17.7 -0.06779
17.75 -0.06394
17.8 -0.06372
17.85 -0.06612
17.9 -0.06421
17.95 -0.06496
18 -0.06482
18.05 -0.06924
18.1 -0.07025
18.15 -0.06851
18.2 -0.06496
18.25 -0.06145
18.3 -0.05643
18.35 -0.05677
18.4 -0.05783
18.45 -0.06055
18.5 -0.06212
18.55 -0.05907
18.6 -0.05353
18.65 -0.05248
18.7 -0.05294
18.75 -0.05584
18.8 -0.05824
18.85 -0.06158
18.9 -0.06152
18.95 -0.06113
19 -0.05627
19.05 -0.05564
19.1 -0.05071
19.15 -0.0463
19.2 -0.04536
19.25 -0.04369
19.3 -0.04333
19.35 -0.04826
19.4 -0.05159
19.45 -0.05403
19.5 -0.0596
19.55 -0.06628
19.6 -0.06531
19.65 -0.06156
19.7 -0.05799
19.75 -0.05037
19.8 -0.04913
19.85 -0.04509
19.9 -0.04509
19.95 -0.04256
20 -0.04225
20.05 -0.04456
20.1 -0.0487
20.15 -0.048
20.2 -0.04464
20.25 -0.04566
20.3 -0.04851
20.35 -0.05062
20.4 -0.05303
20.45 -0.05496
20.5 -0.05326
20.55 -0.04579
20.6 -0.0444
20.65 -0.04629
20.7 -0.04275
20.75 -0.0367
20.8 -0.0311
20.85 -0.02317
20.9 -0.01636
20.95 -0.01371
21 -0.01444
21.05 -0.01192
21.1 -0.01011
21.15 -0.00695
21.2 -0.00806
21.25 -0.01286
21.3 -0.0207
21.35 -0.02768
21.4 -0.03068
21.45 -0.03241
21.5 -0.0313
21.55 -0.03041
21.6 -0.03263
21.65 -0.03583
21.7 -0.03293
21.75 -0.02682
21.8 -0.02576
21.85 -0.02169
21.9 -0.01871
21.95 -0.01402
22 -0.0129
22.05 -0.01485
22.1 -0.01441
22.15 -0.01423
22.2 -0.01338
22.25 -0.01657
22.3 -0.02289
22.35 -0.02673
22.4 -0.03271
22.45 -0.03397
22.5 -0.03757
22.55 -0.03331
22.6 -0.02689
22.65 -0.02197
22.7 -0.02147
22.75 -0.01869
22.8 -0.02034
22.85 -0.02551
22.9 -0.02873
22.95 -0.02578
23 -0.02362
23.05 -0.02113
23.1 -0.02015
23.15 -0.01482
23.2 -0.01429
23.25 -0.01165
23.3 -0.0058
23.35 0.00012
23.4 0.00413
23.45 0.00878
23.5 0.00724
23.55 0.00679
23.6 0.00702
23.65 0.00363
23.7 0.00328
23.75 0.00395
23.8 0.00699
23.85 0.00545
23.9 0.00083
23.95 -0.00347
24 -0.00695
24.05 -0.00595
24.1 -0.00776
24.15 -0.00967
24.2 -0.01019
24.25 -0.00732
24.3 -0.00679
24.35 -0.00739
24.4 -0.0099
24.45 -0.00802
24.5 -0.00229
24.55 0.0012
24.6 0.00653
24.65 0.00993
24.7 0.01107
24.75 0.00671
24.8 0.00488
24.85 0.00087
24.9 -0.00425
24.95 -0.01164
25 -0.01303
25.05 -0.01668
25.1 -0.01779
25.15 -0.02007
25.2 -0.02294
25.25 -0.02352
25.3 -0.0189
25.35 -0.01427
25.4 -0.00726
25.45 -0.00508
25.5 -0.00775
25.55 -0.01287
25.6 -0.01194
25.65 -0.0153
25.7 -0.02117
25.75 -0.02004
25.8 -0.01655
25.85 -0.01238
25.9 -0.01088
25.95 -0.01338
26 -0.0152
26.05 -0.01847
26.1 -0.02128
26.15 -0.02594
26.2 -0.02238
26.25 -0.0208
26.3 -0.01597
26.35 -0.00829
26.4 -0.00073
26.45 0.00663
26.5 0.00771
26.55 0.00282
26.6 -0.00538
26.65 -0.00612
26.7 -0.00173
26.75 0.00301
26.8 0.00867
26.85 0.01453
26.9 0.01753
26.95 0.01276
27 0.01073
27.05 0.0049
27.1 0.00429
27.15 0.00167
27.2 -0.00076
27.25 -0.00599
27.3 -0.00886
27.35 -0.00652
27.4 -0.00662
27.45 -0.00532
27.5 -0.00832
27.55 -0.01061
27.6 -0.01069
27.65 -0.01462
27.7 -0.01535
27.75 -0.01301
27.8 -0.00797
27.85 -0.00548
27.9 -0.00231
27.95 0.00012
28 -0.00278
28.05 -0.00525
28.1 -0.01305
28.15 -0.01731
28.2 -0.02502
28.25 -0.03611
28.3 -0.04758
28.35 -0.0582
28.4 -0.07206
28.45 -0.0836
28.5 -0.10078
28.55 -0.11976
28.6 -0.13492
28.65 -0.15535
28.7 -0.17402
28.75 -0.19496
28.8 -0.21983
28.85 -0.24586
28.9 -0.26955
28.95 -0.29896
29 -0.32877
29.05 -0.36044
29.1 -0.39468
29.15 -0.42597
29.2 -0.45842
29.25 -0.49115
29.3 -0.52532
29.35 -0.5668
29.4 -0.60598
29.45 -0.64496
29.5 -0.6824
29.55 -0.72391
29.6 -0.76881
29.65 -0.8138
29.7 -0.85607
29.75 -0.88959
29.8 -0.91597
29.85 -0.93822
29.9 -0.95553
29.95 -0.97205
30 -0.98171
30.05 -0.98009
30.1 -0.97145
30.15 -0.95628
30.2 -0.93257
30.25 -0.90373
30.3 -0.86964
30.35 -0.82965
30.4 -0.79377
30.45 -0.7516
30.5 -0.70537
30.55 -0.65531
30.6 -0.5976
30.65 -0.53589
30.7 -0.47455
30.75 -0.41414
30.8 -0.35146
30.85 -0.29062
30.9 -0.2215
30.95 -0.15039
31 -0.08361
31.05 -0.01767
31.1 0.04689
31.15 0.10666
31.2 0.17045
31.25 0.22937
31.3 0.28258
31.35 0.33692
31.4 0.38482
31.45 0.42817
31.5 0.46757
31.55 0.50828
31.6 0.54616
31.65 0.57916
31.7 0.61628
31.75 0.64893
31.8 0.6818
31.85 0.71086
31.9 0.73659
31.95 0.757
32 0.77351
32.05 0.78816
32.1 0.80164
32.15 0.81559
32.2 0.82873
32.25 0.84058
32.3 0.84481
32.35 0.84453
32.4 0.84337
32.45 0.839
32.5 0.83656
32.55 0.82934
32.6 0.82282
32.65 0.81838
32.7 0.80885
32.75 0.80051
32.8 0.79406
32.85 0.78857
32.9 0.77653
32.95 0.76171
33 0.74506
33.05 0.73334
33.1 0.71683
33.15 0.70386
33.2 0.68576
33.25 0.67229
33.3 0.65326
33.35 0.63408
33.4 0.61983
33.45 0.60493
33.5 0.58738
33.55 0.56805
33.6 0.55175
33.65 0.53231
33.7 0.51665
33.75 0.49653
33.8 0.47727
33.85 0.4584
33.9 0.44082
33.95 0.4233
34 0.40695
34.05 0.39303
34.1 0.37691
34.15 0.35992
34.2 0.33949
34.25 0.31895
34.3 0.29542
34.35 0.2754
34.4 0.26107
34.45 0.24288
34.5 0.22939
34.55 0.21443
34.6 0.20089
34.65 0.19099
34.7 0.1797
34.75 0.16614
34.8 0.15012
34.85 0.13513
34.9 0.12485
34.95 0.1173
35 0.11123
35.05 0.10431
35.1 0.09843
35.15 0.09316
35.2 0.08349
35.25 0.07156
35.3 0.06179
35.35 0.05303
35.4 0.04364
35.45 0.03278
35.5 0.02422
35.55 0.0117
35.6 0.00227
35.65 -0.00635
35.7 -0.01462
35.75 -0.02282
35.8 -0.0308
35.85 -0.04163
35.9 -0.0532
35.95 -0.06232
36 -0.07035
36.05 -0.08022
36.1 -0.08881
36.15 -0.09218
36.2 -0.09908
36.25 -0.10689
36.3 -0.10971
36.35 -0.11725
36.4 -0.12197
36.45 -0.12682
36.5 -0.12912
36.55 -0.13342
36.6 -0.13187
36.65 -0.13171
36.7 -0.13205
36.75 -0.12862
36.8 -0.12392
36.85 -0.12207
36.9 -0.11783
36.95 -0.11522
37 -0.11675
37.05 -0.11772
37.1 -0.11642
37.15 -0.1162
37.2 -0.12144
37.25 -0.13047
37.3 -0.1399
37.35 -0.14626
37.4 -0.14497
37.45 -0.14724
37.5 -0.14931
37.55 -0.1486
37.6 -0.14443
37.65 -0.13722
37.7 -0.13224
37.75 -0.1266
37.8 -0.12327
37.85 -0.12207
37.9 -0.11905
37.95 -0.11678
38 -0.11248
38.05 -0.10855
38.1 -0.11066
38.15 -0.11278
38.2 -0.11671
38.25 -0.11811
38.3 -0.11477
38.35 -0.10928
38.4 -0.10687
38.45 -0.10821
38.5 -0.1063
38.55 -0.10957
38.6 -0.11078
38.65 -0.11485
38.7 -0.11867
38.75 -0.11661
38.8 -0.10912
38.85 -0.10589
38.9 -0.10484
38.95 -0.09981
39 -0.09106
39.05 -0.08143
39.1 -0.079
39.15 -0.08109
39.2 -0.08309
39.25 -0.08358
39.3 -0.08435
39.35 -0.08003
39.4 -0.0799
39.45 -0.08362
39.5 -0.08569
39.55 -0.09025
39.6 -0.08768
39.65 -0.08742
39.7 -0.08241
39.75 -0.07409
39.8 -0.06558
39.85 -0.05955
39.9 -0.05236
39.95 -0.04874
40 -0.04336
40.05 -0.03812
40.1 -0.03893
40.15 -0.04601
40.2 -0.05598
40.25 -0.06672
40.3 -0.07028
40.35 -0.07211
40.4 -0.07437
40.45 -0.07398
40.5 -0.07137
40.55 -0.06898
40.6 -0.07082
40.65 -0.073
40.7 -0.07398
40.75 -0.07227
40.8 -0.07121
40.85 -0.06437
40.9 -0.06012
40.95 -0.05629
41 -0.05231
41.05 -0.05258
41.1 -0.04859
41.15 -0.04669
41.2 -0.04692
41.25 -0.04812
41.3 -0.05294
41.35 -0.05888
41.4 -0.06268
41.45 -0.06609
41.5 -0.06715
41.55 -0.06731
41.6 -0.06914
41.65 -0.06781
41.7 -0.06082
41.75 -0.04987
41.8 -0.03946
41.85 -0.03202
41.9 -0.02647
41.95 -0.0258
42 -0.0226
42.05 -0.02192
42.1 -0.02667
42.15 -0.03151
42.2 -0.03154
42.25 -0.02794
42.3 -0.02465
42.35 -0.02602
42.4 -0.03126
42.45 -0.03831
42.5 -0.03772
42.55 -0.03523
42.6 -0.03391
42.65 -0.03458
42.7 -0.03842
42.75 -0.04055
42.8 -0.04409
42.85 -0.04086
42.9 -0.0401
42.95 -0.04014
43 -0.04116
43.05 -0.04231
43.1 -0.04496
43.15 -0.04068
43.2 -0.038
43.25 -0.03572
43.3 -0.03464
43.35 -0.03072
43.4 -0.02976
43.45 -0.03005
43.5 -0.03017
43.55 -0.02668
43.6 -0.02583
43.65 -0.01988
43.7 -0.01548
43.75 -0.01139
43.8 -0.01259
43.85 -0.01534
43.9 -0.01414
43.95 -0.00873
44 -0.01036
44.05 -0.01431
44.1 -0.01557
44.15 -0.0174
44.2 -0.02069
44.25 -0.02354
44.3 -0.02334
44.35 -0.02001
44.4 -0.01497
44.45 -0.01227
44.5 -0.00695
44.55 -0.00097
44.6 0.00428
44.65 0.00189
44.7 -0.00058
44.75 -0.00618
44.8 -0.00983
44.85 -0.01055
44.9 -0.00854
44.95 -0.00428
45 0.00256
45.05 0.0052
45.1 0.00445
45.15 0.00607
45.2 0.00261
45.25 0.00288
45.3 0.00582
45.35 0.00289
45.4 0.00281
45.45 0.00464
45.5 0.00908
45.55 0.00932
45.6 0.00763
45.65 0.00488
45.7 0.00521
45.75 0.00029
45.8 -0.00356
45.85 -0.01004
45.9 -0.0108
45.95 -0.00947
46 -0.00761
46.05 -0.00366
46.1 0.00092
46.15 0.00064
46.2 -0.00105
46.25 -0.00317
46.3 -0.00817
46.35 -0.00911
46.4 -0.00748
46.45 -0.00917
46.5 -0.01198
46.55 -0.01151
46.6 -0.00812
46.65 -0.00714
46.7 -0.00928
46.75 -0.01217
46.8 -0.01189
46.85 -0.01049
46.9 -0.0133
46.95 -0.01529
47 -0.0145
47.05 -0.01561
47.1 -0.01311
47.15 -0.00824
47.2 -0.00448
47.25 0.00032
47.3 0.00254
47.35 0.00099
47.4 0.00366
47.45 0.00077
47.5 -0.00109
47.55 -0.00311
47.6 -0.00538
47.65 -0.01189
47.7 -0.01242
47.75 -0.0152
47.8 -0.02109
47.85 -0.01905
47.9 -0.01337
47.95 -0.01319
48 -0.01149
48.05 -0.00983
48.1 -0.01081
48.15 -0.00736
48.2 -0.00083
48.25 0.00211
48.3 0.00106
48.35 0.00151
48.4 -0.00299
48.45 -0.00352
48.5 -0.00437
48.55 -0.00062
48.6 0.00516
48.65 0.00858
48.7 0.01248
48.75 0.00853
48.8 0.00114
48.85 0.00041
48.9 -0.00097
48.95 -0.00309
49 -0.00816
49.05 -0.0109
49.1 -0.00971
49.15 -0.00814
49.2 -0.00901
49.25 -0.0056
49.3 -0.00804
49.35 -0.00604
49.4 -0.00866
49.45 -0.01231
49.5 -0.01382
49.55 -0.01274
49.6 -0.01629
49.65 -0.02052
49.7 -0.02467
49.75 -0.02398
49.8 -0.02354
49.85 -0.0231
49.9 -0.01678
49.95 -0.01623
50 -0.01351
50.05 -0.00895
50.1 -0.00616
50.15 -0.00392
50.2 -0.00014
50.25 -0.00221
50.3 -0.00276
50.35 -0.00587
50.4 -0.01225
50.45 -0.01673
50.5 -0.01537
50.55 -0.01437
50.6 -0.01268
50.65 -0.00819
50.7 -0.00184
50.75 0.001
50.8 0.00057
50.85 0.0022
50.9 0.00484
50.95 0.00365
51 0.00377
51.05 0.00376
51.1 0.00735
51.15 0.00771
51.2 0.01086
51.25 0.01016
51.3 0.012
51.35 0.00836
51.4 0.00181
51.45 -0.00254
51.5 -0.00378
51.55 -0.0038
51.6 -0.00862
51.65 -0.01225
51.7 -0.01459
51.75 -0.01991
51.8 -0.02505
51.85 -0.02757
51.9 -0.02737
51.95 -0.02863
52 -0.026
52.05 -0.02356
52.1 -0.01729
52.15 -0.0072
52.2 -0.00091
52.25 0.00734
52.3 0.01469
52.35 0.01587
52.4 0.01418
52.45 0.01189
52.5 0.00554
52.55 0.00228
52.6 -0.00248
52.65 -0.00147
52.7 -0.00423
52.75 -0.00507
52.8 -0.00526
52.85 -0.00328
52.9 -0.00019
52.95 -0.00134
53 -0.00079
53.05 -0.0047
53.1 -0.00588
53.15 -0.01012
53.2 -0.01247
53.25 -0.01229
53.3 -0.00725
53.35 -0.00545
53.4 -0.00777
53.45 -0.00865
53.5 -0.00375
53.55 -0.00242
53.6 -0.00077
53.65 -0.00051
53.7 -0.00132
53.75 -0.00076
53.8 0.0015
53.85 0.00541
53.9 0.00374
53.95 0.00369
54 0.0025
54.05 0.00443
54.1 0.00146
54.15 0.0032
54.2 0.0085
54.25 0.0064
54.3 0.00521
54.35 0.00552
54.4 0.00643
54.45 0.00356
54.5 -0.00269
54.55 -0.00172
54.6 0.00369
54.65 0.00483
54.7 0.00115
54.75 0.0008
54.8 0.00233
54.85 -0.00056
54.9 0.00166
54.95 0.00347
55 0.00605
55.05 0.0118
55.1 0.01386
55.15 0.01548
55.2 0.01737
55.25 0.01433
55.3 0.00638
55.35 -0.00108
55.4 -0.00987
55.45 -0.01312
55.5 -0.01531
55.55 -0.01676
55.6 -0.01737
55.65 -0.01412
55.7 -0.01338
55.75 -0.01172
55.8 -0.01238
55.85 -0.00712
55.9 -0.00731
55.95 -0.00544
56 -0.00569
56.05 -0.00105
56.1 0.00389
56.15 0.00804
56.2 0.01306
56.25 0.01563
56.3 0.01143
56.35 0.00337
56.4 0.00033
56.45 0.0005
56.5 0.00149
56.55 0.00336
56.6 0.00854
56.65 0.01185
56.7 0.01418
56.75 0.01534
56.8 0.01501
56.85 0.01062
56.9 0.00608
56.95 -0.00049
57 -0.00621
57.05 -0.0135
57.1 -0.01718
57.15 -0.01761
57.2 -0.01996
57.25 -0.02239
57.3 -0.0269
57.35 -0.02621
57.4 -0.02784
57.45 -0.02552
57.5 -0.02288
57.55 -0.01949
57.6 -0.01414
57.65 -0.01327
57.7 -0.00677
57.75 -0.0068
57.8 -0.00563
57.85 -0.00857
57.9 -0.00814
57.95 -0.00836
58 -0.01111
58.05 -0.00988
58.1 -0.01179
58.15 -0.00891
58.2 -0.00542
58.25 0.00173
58.3 0.01035
58.35 0.01859
58.4 0.02095
58.45 0.01749
58.5 0.01834
58.55 0.01934
58.6 0.01657
58.65 0.00949
58.7 0.00875
58.75 0.00644
58.8 -0.00026
58.85 -0.00398
58.9 -0.00827
58.95 -0.01152
59 -0.01187
59.05 -0.00948
59.1 -0.0039
59.15 0.00293
59.2 0.00241
59.25 -0.00012
59.3 -0.0063
59.35 -0.00604
59.4 -0.00788
59.45 -0.01141
59.5 -0.01333
59.55 -0.01558
59.6 -0.01737
59.65 -0.02051
59.7 -0.01806
59.75 -0.01367
59.8 -0.00478
59.85 0.00312
59.9 0.00809
59.95 0.01546
60 0.01702
60.05 0.01327
60.1 0.01408
60.15 0.01421
60.2 0.01079
60.25 0.00519
60.3 0.00202
60.35 -0.00228
60.4 -0.0002
60.45 0.00571
60.5 0.00524
60.55 0.00321
60.6 0.00311
60.65 0.00439
60.7 0.00159
60.75 0.00451
60.8 0.00415
60.85 -0.00002
60.9 -0.00214
60.95 -0.00416
61 -0.00429
61.05 0.00016
61.1 0.00185
61.15 0.00202
61.2 0.00068
61.25 -0.0023
61.3 -0.00474
61.35 -0.00798
61.4 -0.0066
61.45 -0.00374
61.5 -0.00633
61.55 -0.00281
61.6 -0.00274
61.65 0.00049
61.7 0.00164
61.75 0.00506
61.8 0.00806
61.85 0.01077
61.9 0.0088
61.95 0.00574
62 0.00773
62.05 0.01198
62.1 0.01684
62.15 0.02003
62.2 0.0243
62.25 0.02702
62.3 0.02898
62.35 0.02635
62.4 0.02383
62.45 0.01603
62.5 0.00859
62.55 0.00521
62.6 -0.00007
62.65 -0.00197
62.7 -0.00282
62.75 -0.00212
62.8 0.00245
62.85 0.00218
62.9 -0.00207
62.95 -0.00025
63 -0.00225
63.05 -0.00346
63.1 -0.00676
63.15 -0.01262
63.2 -0.01969
63.25 -0.02067
63.3 -0.02371
63.35 -0.0204
63.4 -0.01262
63.45 -0.00746
63.5 0.00069
63.55 0.0034
63.6 0.00358
63.65 0.00792
63.7 0.00707
63.75 0.00877
63.8 0.01363
63.85 0.01769
63.9 0.01527
63.95 0.0137
64 0.00928
64.05 0.00584
64.1 0.00765
64.15 0.01145
64.2 0.01119
64.25 0.0059
64.3 0.0035
64.35 -0.002
64.4 -0.00631
64.45 -0.00709
64.5 -0.00258
64.55 0.00174
64.6 -0.00031
64.65 -0.00172
64.7 -0.00524
64.75 -0.00303
64.8 -0.00554
64.85 -0.01069
64.9 -0.01273
64.95 -0.01491
65 -0.01194
65.05 -0.01254
65.1 -0.0121
65.15 -0.00864
65.2 -0.00139
65.25 0.00627
65.3 0.01508
65.35 0.01567
65.4 0.01828
65.45 0.02099
65.5 0.0207
65.55 0.02103
65.6 0.02017
65.65 0.0134
65.7 0.00442
65.75 0.00129
65.8 -0.00352
65.85 -0.00748
65.9 -0.01199
65.95 -0.01708
66 -0.02018
66.05 -0.02374
66.1 -0.02575
66.15 -0.02075
66.2 -0.01346
66.25 -0.00797
66.3 -0.00301
66.35 -0.00458
66.4 -0.00132
66.45 0.00367
66.5 0.0083
66.55 0.01084
66.6 0.01299
66.65 0.01611
66.7 0.01813
66.75 0.0143
66.8 0.01337
66.85 0.01168
66.9 0.01087
66.95 0.0078
67 0.00788
67.05 0.00995
67.1 0.01162
67.15 0.01401
67.2 0.01495
67.25 0.00935
67.3 0.00244
67.35 -0.00643
67.4 -0.01102
67.45 -0.00976
67.5 -0.00648
67.55 -0.00128
67.6 -0.00035
67.65 -0.00043
67.7 -0.0045
67.75 -0.00819
67.8 -0.00742
67.85 -0.00962
67.9 -0.00588
67.95 -0.0078
68 -0.01016
68.05 -0.01175
68.1 -0.01278
68.15 -0.01028
68.2 -0.00381
68.25 0.00379
68.3 0.00659
68.35 0.0097
68.4 0.01208
68.45 0.01531
68.5 0.01564
68.55 0.01364
68.6 0.00654
68.65 0.00099
68.7 -0.00486
68.75 -0.01172
68.8 -0.01568
68.85 -0.0182
68.9 -0.0185
68.95 -0.02072
69 -0.02022
69.05 -0.01854
69.1 -0.01238
69.15 -0.00432
69.2 -0.0008
69.25 -0.00304
69.3 -0.00485
69.35 -0.00245
69.4 -0.00495
69.45 -0.0036
69.5 0.00134
69.55 0.00014
69.6 0.00074
69.65 0.00389
69.7 0.00626
69.75 0.00428
69.8 0.00137
69.85 -0.00019
69.9 -0.00074
69.95 -0.00329
70 -0.00463
70.05 -0.00768
70.1 -0.00679
70.15 -0.00454
70.2 -0.00557
70.25 -0.00672
70.3 -0.00874
70.35 -0.01139
70.4 -0.01251
70.45 -0.00934
70.5 -0.00699
70.55 -0.00502
70.6 -0.00457
70.65 0.00042
70.7 0.00647
70.75 0.00798
70.8 0.01024
70.85 0.00743
70.9 0.00621
70.95 0.0028
71 -0.00423
71.05 -0.00698
71.1 -0.00513
71.15 -0.00355
71.2 -0.00599
71.25 -0.00509
71.3 -0.00677
71.35 -0.00367
71.4 0.00325
71.45 0.00845
71.5 0.01391
71.55 0.01293
71.6 0.01041
71.65 0.01017
71.7 0.00654
71.75 0.00673
71.8 0.00857
71.85 0.00926
71.9 0.00901
71.95 0.00457
72 -0.0032
72.05 -0.0044
72.1 -0.00049
72.15 0.0038
72.2 0.00327
72.25 0.00663
72.3 0.00929
72.35 0.01425
72.4 0.01216
72.45 0.01287
72.5 0.00902
72.55 0.00757
72.6 0.00591
72.65 0.00366
72.7 0.00038
72.75 -0.00271
72.8 -0.00273
72.85 -0.00038
72.9 0.0055
72.95 0.00451
73 0.00324
73.05 -0.00277
73.1 -0.00465
73.15 -0.00664
73.2 -0.00736
73.25 -0.00913
73.3 -0.01373
73.35 -0.01909
73.4 -0.02035
73.45 -0.01681
73.5 -0.01286
73.55 -0.01092
73.6 -0.01174
73.65 -0.00868
73.7 -0.00949
73.75 -0.00587
73.8 -0.00747
73.85 -0.00808
73.9 -0.00414
73.95 0.00262
74 0.0039
74.05 0.00288
74.1 0.00011
74.15 -0.00359
74.2 -0.0079
74.25 -0.01118
74.3 -0.008
74.35 -0.00769
74.4 -0.0105
74.45 -0.01033
74.5 -0.00636
74.55 -0.00258
74.6 -0.0046
74.65 -0.00941
74.7 -0.00852
74.75 -0.01067
74.8 -0.01226
74.85 -0.01572
74.9 -0.01463
74.95 -0.01002
75 -0.01001
75.05 -0.01376
75.1 -0.01952
75.15 -0.02282
75.2 -0.0261
75.25 -0.02988
75.3 -0.02675
75.35 -0.02521
75.4 -0.02594
75.45 -0.02078
75.5 -0.01095
75.55 -0.00829
75.6 -0.00234
75.65 0.00464
75.7 0.00873
75.75 0.0061
75.8 0.00373
75.85 0.00418
75.9 0.00475
75.95 0.00638
76 0.00274
76.05 0.00032
76.1 0.00337
76.15 0.00815
76.2 0.01474
76.25 0.02192
76.3 0.02783
76.35 0.02773
76.4 0.02564
76.45 0.02393
76.5 0.01683
76.55 0.00635
76.6 -0.00141
76.65 -0.01007
76.7 -0.01023
76.75 -0.00482
76.8 -0.00417
76.85 -0.00109
76.9 0.00451
76.95 0.01242
77 0.01289
77.05 0.00998
77.1 0.01065
77.15 0.01305
77.2 0.01768
77.25 0.02304
77.3 0.02251
77.35 0.01619
77.4 0.01028
77.45 0.00595
77.5 0.00388
77.55 0.00213
77.6 0.00137
77.65 0.00269
77.7 -0.00102
77.75 -0.00459
77.8 -0.002
77.85 0.00312
77.9 0.00797
77.95 0.01119
78 0.00956
78.05 0.00564
78.1 0.00033
78.15 -0.0018
78.2 -0.00012
78.25 -0.00026
78.3 -0.00063
78.35 -0.00468
78.4 -0.00572
78.45 -0.00618
78.5 -0.00738
78.55 -0.00589
78.6 -0.00412
78.65 -0.00306
78.7 -0.00654
78.75 -0.01011
78.8 -0.01485
78.85 -0.01783
78.9 -0.01596
78.95 -0.01625
79 -0.01929
79.05 -0.01557
79.1 -0.01018
79.15 -0.00649
79.2 -0.00788
79.25 -0.00511
79.3 -0.00035
79.35 0.00702
79.4 0.01432
79.45 0.01746
79.5 0.01901
79.55 0.01871
79.6 0.01872
79.65 0.01252
79.7 0.00481
79.75 -0.00037
79.8 -0.00471
79.85 -0.00779
79.9 -0.00706
79.95 -0.00378
80 -0.00075
80.05 0.00024
80.1 0.00007
80.15 -0.00164
80.2 -0.00588
80.25 -0.00431
80.3 0.00125
80.35 0.00715
80.4 0.01032
80.45 0.00714
80.5 0.00401
80.55 0.00283
80.6 0.00435
80.65 0.00069
80.7 -0.00157
80.75 -0.00428
80.8 -0.01022
80.85 -0.01229
80.9 -0.01487
80.95 -0.01884
81 -0.01899
81.05 -0.01689
81.1 -0.01435
81.15 -0.01623
81.2 -0.019
81.25 -0.01933
81.3 -0.01582
81.35 -0.01357
81.4 -0.01431
81.45 -0.01085
81.5 -0.00338
81.55 -0.00164
81.6 -0.00373
81.65 -0.00279
81.7 -0.00085
81.75 -0.00202
81.8 -0.00163
81.85 -0.00066
81.9 -0.00328
81.95 -0.00325
82 -0.00534
82.05 -0.00452
82.1 -0.00421
82.15 -0.0028
82.2 -0.00299
82.25 0.00137
82.3 0.00165
82.35 0.00017
82.4 -0.00049
82.45 0.00096
82.5 0.00062
82.55 0.00372
82.6 0.00774
82.65 0.0105
82.7 0.00944
82.75 0.01211
82.8 0.01527
82.85 0.01295
82.9 0.01184
82.95 0.01362
83 0.00975
83.05 0.00336
83.1 -0.00553
83.15 -0.01143
83.2 -0.01381
83.25 -0.01179
83.3 -0.01002
83.35 -0.00567
83.4 -0.00027
83.45 0.00729
83.5 0.0094
83.55 0.01417
83.6 0.01178
83.65 0.01048
83.7 0.01213
83.75 0.00759
83.8 0.00587
83.85 0.00835
83.9 0.00587
83.95 0.00504
84 0.0034
84.05 -0.00195
84.1 -0.00442
84.15 -0.00347
84.2 -0.00463
84.25 -0.00852
84.3 -0.01195
84.35 -0.01734
84.4 -0.01549
84.45 -0.01761
84.5 -0.01691
84.55 -0.0196
84.6 -0.01676
84.65 -0.01808
84.7 -0.02123
84.75 -0.02425
84.8 -0.0274
84.85 -0.02689
84.9 -0.0255
84.95 -0.02176
85 -0.01667
85.05 -0.01405
85.1 -0.00623
85.15 0.00261
85.2 0.00914
85.25 0.01049
85.3 0.00881
85.35 0.00883
85.4 0.01249
85.45 0.00986
85.5 0.00456
85.55 -0.00146
85.6 -0.00545
85.65 -0.00925
85.7 -0.00865
85.75 -0.01144
85.8 -0.01445
85.85 -0.01056
85.9 -0.00331
85.95 0.00058
86 0.00568
86.05 0.00463
86.1 0.00284
86.15 0.00407
86.2 0.00032
86.25 0.00284
86.3 0.00397
86.35 0.00591
86.4 0.01042
86.45 0.01738
86.5 0.02184
86.55 0.02766
86.6 0.02658
86.65 0.01903
86.7 0.00913
86.75 0.0006
86.8 -0.00937
86.85 -0.01849
86.9 -0.02654
86.95 -0.03371
87 -0.03277
87.05 -0.03236
87.1 -0.03098
87.15 -0.02883
87.2 -0.02113
87.25 -0.01561
87.3 -0.0114
87.35 -0.00568
87.4 -0.00462
87.45 0.00038
87.5 0.00863
87.55 0.0114
87.6 0.01073
87.65 0.01007
87.7 0.0092
87.75 0.00937
87.8 0.01199
87.85 0.01698
87.9 0.02132
87.95 0.02424
88 0.02705
88.05 0.0234
88.1 0.02246
88.15 0.02189
88.2 0.01701
88.25 0.01275
88.3 0.00658
88.35 0.00215
88.4 -0.00504
88.45 -0.008
88.5 -0.00508
88.55 -0.00679
88.6 -0.01179
88.65 -0.01459
88.7 -0.01563
88.75 -0.01755
88.8 -0.02182
88.85 -0.02413
88.9 -0.02613
88.95 -0.02743
89 -0.02996
89.05 -0.03094
89.1 -0.02704
89.15 -0.02234
89.2 -0.02169
89.25 -0.01419
89.3 -0.00387
89.35 -0.00069
89.4 0.0021
89.45 -0.00028
89.5 -0.00245
89.55 -0.00298
89.6 -0.00726
89.65 -0.00521
89.7 -0.0051
89.75 -0.0041
89.8 0.00136
89.85 0.00103
89.9 -0.00021
89.95 0.00034
90 -0.00275
90.05 0.00013
90.1 0.00504
90.15 0.0108
90.2 0.01466
90.25 0.01309
90.3 0.01055
90.35 0.00775
90.4 0.00648
90.45 0.00132
90.5 0.0008
90.55 0.00381
90.6 0.00767
90.65 0.01107
90.7 0.00935
90.75 0.0097
90.8 0.01048
90.85 0.00571
90.9 0.0057
90.95 0.00689
91 0.00727
91.05 0.00548
91.1 0.0014
91.15 -0.00242
91.2 -0.00131
91.25 -0.00115
91.3 0.00394
91.35 0.00847
91.4 0.01058
91.45 0.00702
91.5 0.00799
91.55 0.01015
91.6 0.0126
91.65 0.00956
91.7 0.00255
91.75 -0.00557
91.8 -0.0117
91.85 -0.01034
91.9 -0.01033
91.95 -0.01347
92 -0.0143
92.05 -0.01789
92.1 -0.02169
92.15 -0.02109
92.2 -0.0154
92.25 -0.01137
92.3 -0.00651
92.35 -0.0064
92.4 -0.00936
92.45 -0.00778
92.5 -0.00651
92.55 -0.0038
92.6 -0.00046
92.65 -0.00105
92.7 -0.00164
92.75 -0.00269
92.8 0.00198
92.85 0.00781
92.9 0.01242
92.95 0.01036
93 0.01052
93.05 0.00985
93.1 0.01254
93.15 0.01423
93.2 0.01109
93.25 0.0083
93.3 0.00984
93.35 0.0089
93.4 0.00931
93.45 0.01097
93.5 0.0158
93.55 0.01721
93.6 0.01973
93.65 0.02069
93.7 0.02218
93.75 0.02556
93.8 0.02996
93.85 0.03502
93.9 0.03901
93.95 0.03829
94 0.03094
94.05 0.01914
94.1 0.01285
94.15 0.01014
94.2 0.0055
94.25 0.00024
94.3 -0.001
94.35 0.00276
94.4 0.00445
94.45 0.00733
94.5 0.0125
94.55 0.01032
94.6 0.00749
94.65 0.0061
94.7 0.00505
94.75 0.00443
94.8 0.00454
94.85 0.0015
94.9 0.00356
94.95 0.00337
95 0.00679
95.05 0.00824
95.1 0.01131
95.15 0.01641
95.2 0.01372
95.25 0.00948
95.3 0.00152
95.35 -0.00266
95.4 -0.00908
95.45 -0.01394
95.5 -0.01409
95.55 -0.01638
95.6 -0.01623
95.65 -0.01323
95.7 -0.01216
95.75 -0.00999
95.8 -0.00452
95.85 -0.00552
95.9 -0.00301
95.95 -0.00312
96 -0.00564
96.05 -0.00393
96.1 -0.00505
96.15 -0.00726
96.2 -0.01189
96.25 -0.01739
96.3 -0.02433
96.35 -0.03088
96.4 -0.03624
96.45 -0.03781
96.5 -0.03859
96.55 -0.03502
96.6 -0.03091
96.65 -0.02867
96.7 -0.02048
96.75 -0.01654
96.8 -0.01041
96.85 -0.00924
96.9 -0.00294
96.95 0.0011
97 0.00104
97.05 0.00026
97.1 -0.00468
97.15 -0.00495
97.2 -0.00713
97.25 -0.00371
97.3 -0.00505
97.35 -0.00552
97.4 -0.0024
97.45 -0.00086
97.5 0.00412
97.55 0.01173
97.6 0.01488
97.65 0.01624
97.7 0.01474
97.75 0.01642
97.8 0.01493
97.85 0.00953
97.9 0.00181
97.95 0.00134
98 -0.00326
98.05 -0.00321
98.1 -0.00748
98.15 -0.00882
98.2 -0.01166
98.25 -0.01382
98.3 -0.01617
98.35 -0.01905
98.4 -0.01541
98.45 -0.01324
98.5 -0.01373
98.55 -0.0091
98.6 -0.00761
98.65 -0.0025
98.7 0.00124
98.75 0.00158
98.8 -0.00258
98.85 -0.00863
98.9 -0.01008
98.95 -0.01071
99 -0.00982
99.05 -0.01098
99.1 -0.00791
99.15 -0.00038
99.2 0.00564
99.25 0.00557
99.3 0.00605
99.35 0.00756
99.4 0.00535
99.45 0.00639
99.5 0.01064
99.55 0.01217
99.6 0.01613
99.65 0.01818
99.7 0.0198
99.75 0.02004
99.8 0.0222
99.85 0.02442
99.9 0.02098
99.95 0.0151
