0 0
0.05 0.00063
0.1 0.00796
0.15 0.01527
0.2 0.02721
0.25 0.03392
0.3 0.04231
0.35 0.05146
0.4 0.05444
0.45 0.05844
0.5 0.05586
0.55 0.05667
0.6 0.05338
0.65 0.05322
0.7 0.05627
0.75 0.05482
0.8 0.05522
0.85 0.05539
0.9 0.051
0.95 0.04514
1 0.04588
1.05 0.04789
1.1 0.0491
1.15 0.04602
1.2 0.04737
1.25 0.04766
1.3 0.05044
1.35 0.05517
1.4 0.05571
1.45 0.0553
1.5 0.05296
1.55 0.04681
1.6 0.04388
1.65 0.04289
1.7 0.04448
1.75 0.04233
1.8 0.04414
1.85 0.04127
1.9 0.04117
1.95 0.03888
2 0.03389
2.05 0.03259
2.1 0.02956
2.15 0.02557
2.2 0.02673
2.25 0.02497
2.3 0.02185
2.35 0.02454
2.4 0.02992
2.45 0.03127
2.5 0.02904
2.55 0.02397
2.6 0.02424
2.65 0.02148
2.7 0.0198
2.75 0.02057
2.8 0.02556
2.85 0.03226
2.9 0.03997
2.95 0.04481
3 0.05004
3.05 0.05262
3.1 0.0543
3.15 0.05106
3.2 0.04682
3.25 0.04345
3.3 0.04215
3.35 0.0433
3.4 0.04293
3.45 0.04316
3.5 0.04088
3.55 0.03592
3.6 0.02993
3.65 0.02779
3.7 0.02541
3.75 0.02721
3.8 0.02349
3.85 0.01932
3.9 0.01136
3.95 0.01028
4 0.01033
4.05 0.00873
4.1 0.00438
4.15 0.00093
4.2 0.00232
4.25 0.00155
4.3 -0.00138
4.35 -0.00073
4.4 -0.00192
4.45 -0.00321
4.5 -0.00794
4.55 -0.01678
4.6 -0.02922
4.65 -0.04685
4.7 -0.07006
4.75 -0.09328
4.8 -0.12222
4.85 -0.14827
4.9 -0.17853
4.95 -0.21069
5 -0.24796
5.05 -0.29147
5.1 -0.34057
5.15 -0.40008
5.2 -0.46129
5.25 -0.53034
5.3 -0.60478
5.35 -0.68571
5.4 -0.77096
5.45 -0.85648
5.5 -0.94187
5.55 -1.03158
5.6 -1.12355
5.65 -1.22096
5.7 -1.3231
5.75 -1.42374
5.8 -1.52322
5.85 -1.62192
5.9 -1.71198
5.95 -1.80074
6 -1.88838
6.05 -1.97239
6.1 -2.05384
6.15 -2.12663
6.2 -2.19262
6.25 -2.24861
6.3 -2.30499
6.35 -2.35411
6.4 -2.39714
6.45 -2.43174
6.5 -2.4619
6.55 -2.48601
6.6 -2.49941
6.65 -2.50257
6.7 -2.49475
6.75 -2.47104
6.8 -2.42815
6.85 -2.36825
6.9 -2.29822
6.95 -2.21152
7 -2.11101
7.05 -1.99636
7.1 -1.86559
7.15 -1.7206
7.2 -1.56239
7.25 -1.39533
7.3 -1.21927
7.35 -1.03121
7.4 -0.8326
7.45 -0.63058
7.5 -0.42916
7.55 -0.22739
7.6 -0.02727
7.65 0.17454
7.7 0.37405
7.75 0.56673
7.8 0.75093
7.85 0.92176
7.9 1.07702
7.95 1.22378
8 1.35878
8.05 1.4822
8.1 1.59227
8.15 1.69196
8.2 1.78334
8.25 1.8619
8.3 1.93456
8.35 1.99468
8.4 2.04622
8.45 2.08878
8.5 2.12324
8.55 2.15468
8.6 2.18007
8.65 2.2021
8.7 2.21094
8.75 2.21891
8.8 2.21669
8.85 2.21115
8.9 2.20505
8.95 2.19279
9 2.17559
9.05 2.16135
9.1 2.14914
9.15 2.13369
9.2 2.12096
9.25 2.10831
9.3 2.09492
9.35 2.08052
9.4 2.05937
9.45 2.03151
9.5 1.99921
9.55 1.96783
9.6 1.94052
9.65 1.90919
9.7 1.87656
9.75 1.84466
9.8 1.81428
9.85 1.785
9.9 1.75633
9.95 1.72899
10 1.69387
10.05 1.65375
10.1 1.60959
10.15 1.56576
10.2 1.5269
10.25 1.48981
10.3 1.45011
10.35 1.40483
10.4 1.35886
10.45 1.30964
10.5 1.26576
10.55 1.22591
10.6 1.18076
10.65 1.13408
10.7 1.08957
10.75 1.04914
10.8 1.00999
10.85 0.96365
10.9 0.91276
10.95 0.86307
11 0.81689
11.05 0.77342
11.1 0.72684
11.15 0.68307
11.2 0.63772
11.25 0.59353
11.3 0.54978
11.35 0.50457
11.4 0.45742
11.45 0.41403
11.5 0.37344
11.55 0.33949
11.6 0.30634
11.65 0.27665
11.7 0.24181
11.75 0.20355
11.8 0.16334
11.85 0.12441
11.9 0.09135
11.95 0.06324
12 0.03253
12.05 0.00484
12.1 -0.02388
12.15 -0.04835
12.2 -0.07163
12.25 -0.0935
12.3 -0.10957
12.35 -0.12845
12.4 -0.14389
12.45 -0.16423
12.5 -0.18716
12.55 -0.20497
12.6 -0.21921
12.65 -0.23327
12.7 -0.24893
12.75 -0.25849
12.8 -0.2728
12.85 -0.2864
12.9 -0.30069
12.95 -0.31039
13 -0.32124
13.05 -0.33197
13.1 -0.34183
13.15 -0.34522
13.2 -0.35158
13.25 -0.35549
13.3 -0.35743
13.35 -0.3555
13.4 -0.35344
13.45 -0.35489
13.5 -0.35974
13.55 -0.36428
13.6 -0.37016
13.65 -0.37281
13.7 -0.37811
13.75 -0.38506
13.8 -0.38996
13.85 -0.39036
13.9 -0.38903
13.95 -0.38822
14 -0.38251
14.05 -0.37483
14.1 -0.37029
14.15 -0.36426
14.2 -0.36336
14.25 -0.36504
14.3 -0.36531
14.35 -0.36631
14.4 -0.36046
14.45 -0.35101
14.5 -0.34068
14.55 -0.33717
14.6 -0.33669
14.65 -0.33499
14.7 -0.3304
14.75 -0.32952
14.8 -0.32935
14.85 -0.32946
14.9 -0.33031
14.95 -0.3276
15 -0.32344
15.05 -0.31323
15.1 -0.30565
15.15 -0.29635
15.2 -0.28775
15.25 -0.2825
15.3 -0.27476
15.35 -0.26588
15.4 -0.2562
15.45 -0.25191
15.5 -0.24775
15.55 -0.24045
15.6 -0.23177
15.65 -0.22939
15.7 -0.22949
15.75 -0.22831
15.8 -0.22758
15.85 -0.2257
15.9 -0.22432
15.95 -0.22523
16 -0.22682
16.05 -0.22687
16.1 -0.22924
16.15 -0.22974
16.2 -0.2264
16.25 -0.22321
16.3 -0.22006
16.35 -0.21311
16.4 -0.20966
16.45 -0.20311
16.5 -0.20108
16.55 -0.19398
16.6 -0.18403
16.65 -0.18008
16.7 -0.18019
16.75 -0.17485
16.8 -0.17261
16.85 -0.17363
16.9 -0.17009
16.95 -0.16386
17 -0.15884
17.05 -0.15301
17.1 -0.14806
17.15 -0.14506
17.2 -0.14154
17.25 -0.13934
17.3 -0.14087
17.35 -0.14065
17.4 -0.1366
17.45 -0.13207
17.5 -0.13036
17.55 -0.13275
17.6 -0.1318
17.65 -0.12844
17.7 -0.12532
17.75 -0.12335
17.8 -0.11874
17.85 -0.11462
17.9 -0.11355
17.95 -0.11628
18 -0.11817
18.05 -0.11805
18.1 -0.11364
18.15 -0.10585
18.2 -0.10321
18.25 -0.09893
18.3 -0.101
18.35 -0.10346
18.4 -0.10216
18.45 -0.09807
18.5 -0.09667
18.55 -0.09637
18.6 -0.09684
18.65 -0.10136
18.7 -0.10367
18.75 -0.10599
18.8 -0.10488
18.85 -0.10435
18.9 -0.10343
18.95 -0.10555
19 -0.10386
19.05 -0.10071
19.1 -0.09664
19.15 -0.08887
19.2 -0.08684
19.25 -0.08876
19.3 -0.0855
19.35 -0.08649
19.4 -0.09019
19.45 -0.09544
19.5 -0.09449
19.55 -0.09431
19.6 -0.09565
19.65 -0.09775
19.7 -0.09275
19.75 -0.08603
19.8 -0.07874
19.85 -0.06808
19.9 -0.05827
19.95 -0.05134
20 -0.05009
20.05 -0.05139
20.1 -0.05114
20.15 -0.05096
20.2 -0.05175
20.25 -0.05509
20.3 -0.05436
20.35 -0.0497
20.4 -0.04655
20.45 -0.04664
20.5 -0.05158
20.55 -0.05087
20.6 -0.05277
20.65 -0.04957
20.7 -0.04437
20.75 -0.04414
20.8 -0.04156
20.85 -0.04101
20.9 -0.03961
20.95 -0.03681
21 -0.03588
21.05 -0.03989
21.1 -0.04067
21.15 -0.03671
21.2 -0.03802
21.25 -0.0407
21.3 -0.04219
21.35 -0.04422
21.4 -0.04461
21.45 -0.04318
21.5 -0.03877
21.55 -0.0348
21.6 -0.03329
21.65 -0.03181
21.7 -0.0312
21.75 -0.02659
21.8 -0.02013
21.85 -0.01297
21.9 -0.01164
21.95 -0.00973
22 -0.01037
22.05 -0.01275
22.1 -0.01691
22.15 -0.01741
22.2 -0.02116
22.25 -0.02248
22.3 -0.023
22.35 -0.02069
22.4 -0.02147
22.45 -0.01938
22.5 -0.02278
22.55 -0.02926
22.6 -0.03239
22.65 -0.0344
22.7 -0.03799
22.75 -0.04364
22.8 -0.04495
22.85 -0.04716
22.9 -0.05021
22.95 -0.05066
23 -0.04707
23.05 -0.04266
23.1 -0.03955
23.15 -0.03735
23.2 -0.03864
23.25 -0.03944
23.3 -0.0407
23.35 -0.04079
23.4 -0.03747
23.45 -0.03572
23.5 -0.03514
23.55 -0.03469
23.6 -0.0324
23.65 -0.0252
23.7 -0.01953
23.75 -0.01124
23.8 -0.00586
23.85 -0.0056
23.9 -0.00856
23.95 -0.00669
24 -0.00792
24.05 -0.00501
24.1 -0.00591
24.15 -0.01191
24.2 -0.01457
24.25 -0.01736
24.3 -0.01977
24.35 -0.02316
24.4 -0.02306
24.45 -0.02003
24.5 -0.01565
24.55 -0.00962
24.6 -0.00712
24.65 -0.00501
24.7 -0.00874
24.75 -0.01495
24.8 -0.02071
24.85 -0.02444
24.9 -0.02152
24.95 -0.02307
25 -0.02113
25.05 -0.01738
25.1 -0.01554
25.15 -0.0152
25.2 -0.01632
25.25 -0.01266
25.3 -0.0106
25.35 -0.01138
25.4 -0.01133
25.45 -0.0123
25.5 -0.01217
25.55 -0.00804
25.6 -0.00824
25.65 -0.00795
25.7 -0.01173
25.75 -0.0166
25.8 -0.02165
25.85 -0.02718
25.9 -0.02648
25.95 -0.02212
26 -0.01419
26.05 -0.00632
26.1 0.00255
26.15 0.00906
26.2 0.01482
26.25 0.01546
26.3 0.0118
26.35 0.00557
26.4 -0.00328
26.45 -0.00548
26.5 -0.00518
26.55 -0.00869
26.6 -0.00701
26.65 -0.00822
26.7 -0.00849
26.75 -0.0073
26.8 -0.011
26.85 -0.01171
26.9 -0.00888
26.95 -0.00352
27 0.00342
27.05 0.00616
27.1 0.00866
27.15 0.01214
27.2 0.01587
27.25 0.01814
27.3 0.02157
27.35 0.01829
27.4 0.01191
27.45 0.00206
27.5 -0.0083
27.55 -0.01769
27.6 -0.02658
27.65 -0.03079
27.7 -0.03142
27.75 -0.02594
27.8 -0.02358
27.85 -0.0198
27.9 -0.01362
27.95 -0.0103
28 -0.00788
28.05 -0.00216
28.1 -0.00118
28.15 -0.00423
28.2 -0.00671
28.25 -0.00913
28.3 -0.00915
28.35 -0.00619
28.4 -0.00156
28.45 -0.00235
28.5 -0.00775
28.55 -0.01353
28.6 -0.01616
28.65 -0.01632
28.7 -0.01712
28.75 -0.01781
28.8 -0.01341
28.85 -0.01466
28.9 -0.01591
28.95 -0.01916
29 -0.02123
29.05 -0.01929
29.1 -0.02054
29.15 -0.02322
29.2 -0.02106
29.25 -0.01612
29.3 -0.0104
29.35 -0.01052
29.4 -0.0126
29.45 -0.0164
29.5 -0.02136
29.55 -0.02397
29.6 -0.02453
29.65 -0.02526
29.7 -0.02174
29.75 -0.01834
29.8 -0.01528
29.85 -0.01456
29.9 -0.0154
29.95 -0.01783
30 -0.02384
30.05 -0.02586
30.1 -0.02957
30.15 -0.03008
30.2 -0.02885
30.25 -0.02744
30.3 -0.02213
30.35 -0.01856
30.4 -0.01301
30.45 -0.01333
30.5 -0.01458
30.55 -0.01455
30.6 -0.01607
30.65 -0.01677
30.7 -0.01175
30.75 -0.01004
30.8 -0.00431
30.85 0.00091
30.9 0.0051
30.95 0.01198
31 0.01637
31.05 0.01506
31.1 0.01368
31.15 0.00922
31.2 0.00449
31.25 0.00328
31.3 0.0078
31.35 0.01084
31.4 0.01202
31.45 0.00979
31.5 0.0084
31.55 0.00938
31.6 0.01316
31.65 0.01353
31.7 0.01242
31.75 0.01077
31.8 0.00831
31.85 0.00714
31.9 0.00795
31.95 0.01315
32 0.02074
32.05 0.02591
32.1 0.02675
32.15 0.02701
32.2 0.02546
32.25 0.02563
32.3 0.02197
32.35 0.01846
32.4 0.01628
32.45 0.01073
32.5 0.00367
32.55 0.00377
32.6 0.00228
32.65 0.00144
32.7 -0.00163
32.75 0.00112
32.8 0.00043
32.85 0.00074
32.9 -0.00048
32.95 0.00442
33 0.00776
33.05 0.01331
33.1 0.01332
33.15 0.01737
33.2 0.01604
33.25 0.01419
33.3 0.01224
33.35 0.0113
33.4 0.01085
33.45 0.01028
33.5 0.00667
33.55 0.00787
33.6 0.00468
33.65 0.00131
33.7 -0.0009
33.75 -0.00078
33.8 0.00247
33.85 0.00106
33.9 0.003
33.95 0.00656
34 0.01249
34.05 0.01725
34.1 0.01849
34.15 0.01892
34.2 0.02009
34.25 0.01827
34.3 0.01837
34.35 0.01983
34.4 0.0184
34.45 0.01604
34.5 0.01568
34.55 0.01791
34.6 0.01756
34.65 0.0146
34.7 0.00985
34.75 0.00343
34.8 -0.00167
34.85 -0.00491
34.9 -0.00807
34.95 -0.01448
35 -0.02096
35.05 -0.02858
35.1 -0.03175
35.15 -0.02986
35.2 -0.02864
35.25 -0.0232
35.3 -0.0141
35.35 -0.01145
35.4 -0.00759
35.45 -0.0019
35.5 -0.00337
35.55 -0.00107
35.6 -0.0006
35.65 -0.00012
35.7 -0.00206
35.75 -0.00267
35.8 -0.00119
35.85 -0.00443
35.9 -0.00511
35.95 -0.00754
36 -0.00598
36.05 -0.00782
36.1 -0.01048
36.15 -0.01352
36.2 -0.01802
36.25 -0.02127
36.3 -0.02142
36.35 -0.02179
36.4 -0.01734
36.45 -0.01508
36.5 -0.00808
36.55 -0.0002
36.6 0.00321
36.65 0.00601
36.7 0.01124
36.75 0.01093
36.8 0.01297
36.85 0.01584
36.9 0.0204
36.95 0.01926
37 0.01835
37.05 0.01838
37.1 0.01738
37.15 0.01537
37.2 0.01108
37.25 0.00457
37.3 -0.00117
37.35 -0.00891
37.4 -0.01297
37.45 -0.01836
37.5 -0.01637
37.55 -0.01816
37.6 -0.01894
37.65 -0.01739
37.7 -0.01094
37.75 -0.00931
37.8 -0.00499
37.85 -0.00209
37.9 0.00228
37.95 0.00752
38 0.0111
38.05 0.01513
38.1 0.01569
38.15 0.01048
38.2 0.00941
38.25 0.00343
38.3 -0.00393
38.35 -0.00468
38.4 -0.00559
38.45 -0.00708
38.5 -0.00975
38.55 -0.00746
38.6 -0.0062
38.65 -0.00857
38.7 -0.00587
38.75 -0.00232
38.8 -0.00099
38.85 -0.00004
38.9 0.00327
38.95 0.00668
39 0.01006
39.05 0.01197
39.1 0.01385
39.15 0.01494
39.2 0.01864
39.25 0.01817
39.3 0.01347
39.35 0.00737
39.4 0.00325
39.45 0.00424
39.5 0.0074
39.55 0.00947
39.6 0.00496
39.65 -0.00276
39.7 -0.00789
39.75 -0.01325
39.8 -0.01896
39.85 -0.02222
39.9 -0.0262
39.95 -0.02683
40 -0.02445
40.05 -0.01704
40.1 -0.00996
40.15 -0.00913
40.2 -0.00528
40.25 -0.00167
40.3 -0.00355
40.35 -0.00331
40.4 -0.00355
40.45 -0.00445
40.5 -0.00662
40.55 -0.01183
40.6 -0.0183
40.65 -0.01889
40.7 -0.02173
40.75 -0.02475
40.8 -0.02204
40.85 -0.01979
40.9 -0.01784
40.95 -0.01431
41 -0.00971
41.05 -0.00797
41.1 -0.0029
41.15 -0.00128
41.2 0.00434
41.25 0.00486
41.3 0.00092
41.35 -0.00333
41.4 -0.00945
41.45 -0.01267
41.5 -0.01753
41.55 -0.01844
41.6 -0.02018
41.65 -0.01972
41.7 -0.01482
41.75 -0.01127
41.8 -0.00404
41.85 -0.00051
41.9 0.00047
41.95 0.00352
42 0.00309
42.05 0.00669
42.1 0.01165
42.15 0.0148
42.2 0.01307
42.25 0.01346
42.3 0.00828
42.35 0.00623
42.4 0.00508
42.45 0.00008
42.5 -0.00432
42.55 -0.00706
42.6 -0.00376
42.65 -0.00293
42.7 -0.005
42.75 -0.00767
42.8 -0.00504
42.85 -0.00474
42.9 -0.00289
42.95 -0.00347
43 -0.00792
43.05 -0.01182
43.1 -0.00911
43.15 -0.00653
43.2 -0.00594
43.25 -0.00955
43.3 -0.01388
43.35 -0.01672
43.4 -0.0148
43.45 -0.01307
43.5 -0.00725
43.55 0.00124
43.6 0.00829
43.65 0.01316
43.7 0.01442
43.75 0.01698
43.8 0.01648
43.85 0.01254
43.9 0.00776
43.95 0.00616
44 0.00162
44.05 -0.00415
44.1 -0.0035
44.15 -0.00614
44.2 -0.00586
44.25 -0.00708
44.3 -0.00336
44.35 -0.0024
44.4 -0.00466
44.45 -0.00835
44.5 -0.01
44.55 -0.00622
44.6 -0.00524
44.65 -0.00858
44.7 -0.00564
44.75 -0.00192
44.8 -0.00182
44.85 -0.00254
44.9 -0.00285
44.95 -0.0012
45 0.00182
45.05 0.00333
45.1 0.00439
45.15 0.00744
45.2 0.01305
45.25 0.01977
45.3 0.01895
45.35 0.01742
45.4 0.01501
45.45 0.01171
45.5 0.01253
45.55 0.01668
45.6 0.01448
45.65 0.01434
45.7 0.00847
45.75 0.00553
45.8 0.00773
45.85 0.01303
45.9 0.013
45.95 0.01522
46 0.01333
46.05 0.01369
46.1 0.01369
46.15 0.01559
46.2 0.01831
46.25 0.02252
46.3 0.02276
46.35 0.02267
46.4 0.02248
46.45 0.01822
46.5 0.01642
46.55 0.01173
46.6 0.00923
46.65 0.00782
46.7 0.00218
46.75 0.00046
46.8 -0.00182
46.85 -0.00503
46.9 -0.0066
46.95 -0.00507
47 -0.0064
47.05 -0.01063
47.1 -0.01638
47.15 -0.01731
47.2 -0.01515
47.25 -0.00897
47.3 -0.00515
47.35 -0.0028
47.4 -0.00308
47.45 -0.00356
47.5 -0.00414
47.55 -0.00668
47.6 -0.01112
47.65 -0.01359
47.7 -0.01363
47.75 -0.01023
47.8 -0.01073
47.85 -0.01433
47.9 -0.01926
47.95 -0.02052
48 -0.01765
48.05 -0.01448
48.1 -0.00783
48.15 -0.00239
48.2 0.00008
48.25 0.0041
48.3 0.0086
48.35 0.01279
48.4 0.0128
48.45 0.00732
48.5 0.00096
48.55 -0.00529
48.6 -0.00531
48.65 -0.00505
48.7 -0.00358
48.75 -0.00252
48.8 0.00152
48.85 0.00553
48.9 0.00984
48.95 0.00737
49 0.00649
49.05 0.00668
49.1 0.00863
49.15 0.00973
49.2 0.00892
49.25 0.00925
49.3 0.00991
49.35 0.00475
49.4 -0.00032
49.45 -0.00448
49.5 -0.01086
49.55 -0.01009
49.6 -0.01322
49.65 -0.01558
49.7 -0.01504
49.75 -0.01488
49.8 -0.01362
49.85 -0.00978
49.9 -0.00518
49.95 -0.00052
50 -0.00204
50.05 -0.00259
50.1 -0.00102
50.15 -0.00382
50.2 -0.00214
50.25 -0.00126
50.3 -0.00228
50.35 -0.00407
50.4 -0.00038
50.45 -0.00117
50.5 -0.00303
50.55 -0.00094
50.6 0.0043
50.65 0.00721
50.7 0.01062
50.75 0.00861
50.8 0.00571
50.85 -0.00044
50.9 -0.00513
50.95 -0.01005
51 -0.01024
51.05 -0.01347
51.1 -0.0115
51.15 -0.00567
51.2 -0.00217
51.25 0.00071
51.3 0.00452
51.35 0.00901
51.4 0.01286
51.45 0.01012
51.5 0.01116
51.55 0.01153
51.6 0.00783
51.65 0.00109
51.7 -0.00651
51.75 -0.00977
51.8 -0.00846
51.85 -0.01089
51.9 -0.01007
51.95 -0.0116
52 -0.01278
52.05 -0.0088
52.1 -0.002
52.15 0.0028
52.2 0.00296
52.25 0.00032
52.3 0.00137
52.35 -0.00184
52.4 0.00007
52.45 0.00189
52.5 0.00121
52.55 0.0016
52.6 -0.00136
52.65 -0.00552
52.7 -0.00475
52.75 0.00066
52.8 0.00815
52.85 0.00878
52.9 0.01272
52.95 0.01825
53 0.01949
53.05 0.01439
53.1 0.0115
53.15 0.01251
53.2 0.01304
53.25 0.01334
53.3 0.00993
53.35 0.00622
53.4 0.00697
53.45 0.00427
53.5 0.00655
53.55 0.01116
53.6 0.0101
53.65 0.00821
53.7 0.00995
53.75 0.01025
53.8 0.0087
53.85 0.01022
53.9 0.0056
53.95 -0.00074
54 -0.00396
54.05 -0.00368
54.1 -0.00166
54.15 0.0025
54.2 0.00243
54.25 0.0023
54.3 0.00408
54.35 0.00077
54.4 -0.00207
54.45 -0.00193
54.5 -0.00474
54.55 -0.00952
54.6 -0.01454
54.65 -0.01489
54.7 -0.01207
54.75 -0.00568
54.8 -0.00606
54.85 -0.00451
54.9 -0.00471
54.95 -0.00781
55 -0.00964
55.05 -0.00815
55.1 -0.00788
55.15 -0.00416
55.2 0.00038
55.25 0.00281
55.3 0.00659
55.35 0.00885
55.4 0.0056
55.45 -0.00103
55.5 -0.00818
55.55 -0.0158
55.6 -0.01943
55.65 -0.01856
55.7 -0.01231
55.75 -0.00377
55.8 0.0007
55.85 0.005
55.9 0.01022
55.95 0.01041
56 0.00939
56.05 0.00389
56.1 -0.00461
56.15 -0.01302
56.2 -0.02076
56.25 -0.02614
56.3 -0.02338
56.35 -0.021
56.4 -0.02184
56.45 -0.01828
56.5 -0.01434
56.55 -0.01019
56.6 -0.0064
56.65 -0.00486
56.7 -0.00293
56.75 -0.00531
56.8 -0.00426
56.85 -0.00321
56.9 0.00008
56.95 0.00437
57 0.00625
57.05 0.00319
57.1 -0.0028
57.15 -0.00589
57.2 -0.00588
57.25 -0.00254
57.3 -0.00432
57.35 -0.0028
57.4 -0.00561
57.45 -0.00925
57.5 -0.01183
57.55 -0.00789
57.6 -0.007
57.65 -0.00303
57.7 -0.00085
57.75 0.00214
57.8 0.00328
57.85 0.0072
57.9 0.00782
57.95 0.00888
58 0.01304
58.05 0.01907
58.1 0.02123
58.15 0.02491
58.2 0.02086
58.25 0.01648
58.3 0.00928
58.35 0.00403
58.4 -0.0026
58.45 -0.00546
58.5 -0.00819
58.55 -0.00766
58.6 -0.00421
58.65 -0.00537
58.7 -0.01026
58.75 -0.01678
58.8 -0.02244
58.85 -0.02804
58.9 -0.03275
58.95 -0.03511
59 -0.0317
59.05 -0.02384
59.1 -0.01457
59.15 -0.00736
59.2 0.00225
59.25 0.00688
59.3 0.01351
59.35 0.01513
59.4 0.01571
59.45 0.01374
59.5 0.00922
59.55 0.00927
59.6 0.01171
59.65 0.01543
59.7 0.01262
59.75 0.01347
59.8 0.00885
59.85 0.00812
59.9 0.00499
59.95 0.00481
60 0.00173
60.05 -0.00455
60.1 -0.01156
60.15 -0.01921
60.2 -0.02665
60.25 -0.02659
60.3 -0.02331
60.35 -0.01667
60.4 -0.01061
60.45 -0.00578
60.5 -0.00211
60.55 0.00178
60.6 0.00362
60.65 0.00319
60.7 0.00113
60.75 0.00032
60.8 -0.00079
60.85 -0.00301
60.9 -0.00124
60.95 0.00245
61 0.00434
61.05 0.00659
61.1 0.00895
61.15 0.01042
61.2 0.01332
61.25 0.01157
61.3 0.0113
61.35 0.00619
61.4 0.00096
61.45 -0.00528
61.5 -0.013
61.55 -0.01784
61.6 -0.02146
61.65 -0.01831
61.7 -0.01556
61.75 -0.01509
61.8 -0.01164
61.85 -0.00409
61.9 0.00472
61.95 0.01146
62 0.01915
62.05 0.02475
62.1 0.03003
62.15 0.03365
62.2 0.03121
62.25 0.02906
62.3 0.02092
62.35 0.01217
62.4 0.00845
62.45 0.00921
62.5 0.00861
62.55 0.01023
62.6 0.01361
62.65 0.0177
62.7 0.02217
62.75 0.01978
62.8 0.02045
62.85 0.02194
62.9 0.01789
62.95 0.01231
63 0.00313
63.05 0.00101
63.1 0.00115
63.15 0.00238
63.2 0.00265
63.25 0.00103
63.3 -0.00057
63.35 -0.0047
63.4 -0.00506
63.45 -0.00208
63.5 -0.00008
63.55 0.00284
63.6 0.00183
63.65 -0.00286
63.7 -0.00263
63.75 -0.00506
63.8 -0.00554
63.85 -0.00468
63.9 -0.00104
63.95 0.0012
64 0.00451
64.05 0.00836
64.1 0.00941
64.15 0.0066
64.2 0.00067
64.25 -0.00612
64.3 -0.0092
64.35 -0.01393
64.4 -0.01355
64.45 -0.01115
64.5 -0.00474
64.55 -0.00177
64.6 0.00288
64.65 0.00463
64.7 0.0086
64.75 0.00765
64.8 0.00656
64.85 0.00234
64.9 -0.00507
64.95 -0.00565
65 -0.00916
65.05 -0.01426
65.1 -0.01704
65.15 -0.01555
65.2 -0.01091
65.25 -0.00483
65.3 -0.0015
65.35 -0.00408
65.4 -0.00411
65.45 -0.00301
65.5 -0.00169
65.55 0.00326
65.6 0.00677
65.65 0.01115
65.7 0.01055
65.75 0.00926
65.8 0.00506
65.85 0.00512
65.9 0.00846
65.95 0.00772
66 0.00927
66.05 0.01214
66.1 0.01007
66.15 0.01162
66.2 0.00733
66.25 0.00402
66.3 0.00577
66.35 0.00283
66.4 -0.0005
66.45 -0.0054
66.5 -0.00617
66.55 -0.00486
66.6 -0.00519
66.65 -0.00355
66.7 -0.00217
66.75 -0.0057
66.8 -0.00576
66.85 -0.00922
66.9 -0.01425
66.95 -0.02119
67 -0.02311
67.05 -0.02241
67.1 -0.02362
67.15 -0.0266
67.2 -0.03088
67.25 -0.02922
67.3 -0.02423
67.35 -0.0156
67.4 -0.0055
67.45 -0.00305
67.5 0.00166
67.55 0.0007
67.6 0.00007
67.65 0.00162
67.7 0.00362
67.75 0.00094
67.8 -0.00097
67.85 0.00142
67.9 0.00734
67.95 0.0081
68 0.00902
68.05 0.00628
68.1 0.00056
68.15 -0.00095
68.2 -0.00435
68.25 -0.00887
68.3 -0.00855
68.35 -0.00558
68.4 -0.00316
68.45 -0.00112
68.5 -0.00237
68.55 -0.00336
68.6 -0.00286
68.65 -0.00674
68.7 -0.00545
68.75 -0.00009
68.8 0.00617
68.85 0.00675
68.9 0.00443
68.95 0.0042
69 0.00794
69.05 0.00887
69.1 0.01124
69.15 0.01182
69.2 0.00896
69.25 0.00361
69.3 -0.00425
69.35 -0.01095
69.4 -0.01164
69.45 -0.00742
69.5 -0.00526
69.55 -0.00213
69.6 0.00228
69.65 0.0013
69.7 0.00313
69.75 0.00333
69.8 -0.00143
69.85 -0.00587
69.9 -0.00891
69.95 -0.00621
70 -0.00245
70.05 -0.00169
70.1 0.0034
70.15 0.0088
70.2 0.00864
70.25 0.00733
70.3 0.00986
70.35 0.01014
70.4 0.01349
70.45 0.01846
70.5 0.01731
70.55 0.01942
70.6 0.01848
70.65 0.02009
70.7 0.02191
70.75 0.0164
70.8 0.01522
70.85 0.01097
70.9 0.00912
70.95 0.00757
71 0.0085
71.05 0.00697
71.1 0.00434
71.15 0.00274
71.2 -0.0035
71.25 -0.00918
71.3 -0.0108
71.35 -0.01331
71.4 -0.01185
71.45 -0.00633
71.5 -0.00067
71.55 0.00224
71.6 0.00585
71.65 0.01033
71.7 0.013
71.75 0.01281
71.8 0.00716
71.85 0.00687
71.9 0.00602
71.95 0.00646
72 0.00928
72.05 0.0101
72.1 0.00679
72.15 0.00272
72.2 -0.0036
72.25 -0.00775
72.3 -0.01045
72.35 -0.00945
72.4 -0.01009
72.45 -0.00676
72.5 -0.00471
72.55 -0.00355
72.6 -0.00085
72.65 -0.00257
72.7 -0.00289
72.75 -0.00377
72.8 -0.0071
72.85 -0.0102
72.9 -0.00876
72.95 -0.00765
73 -0.0032
73.05 0.00014
73.1 0.00181
73.15 0.00421
73.2 0.00572
73.25 0.00129
73.3 -0.00631
73.35 -0.01141
73.4 -0.01145
73.45 -0.00793
73.5 -0.00357
73.55 0.00086
73.6 -0.0004
73.65 0.0001
73.7 0.00325
73.75 0.00128
73.8 -0.00409
73.85 -0.00916
73.9 -0.01236
73.95 -0.01744
74 -0.02255
74.05 -0.02158
74.1 -0.02042
74.15 -0.01561
74.2 -0.01056
74.25 -0.01032
74.3 -0.01048
74.35 -0.0139
74.4 -0.01045
74.45 -0.00469
74.5 -0.00376
74.55 -0.00194
74.6 -0.00498
74.65 -0.00767
74.7 -0.01007
74.75 -0.00904
74.8 -0.00511
74.85 -0.00675
74.9 -0.01049
74.95 -0.01072
75 -0.01383
75.05 -0.01897
75.1 -0.01792
75.15 -0.01831
75.2 -0.01253
75.25 -0.00526
75.3 0.00414
75.35 0.00869
75.4 0.01397
75.45 0.01348
75.5 0.00848
75.55 0.00322
75.6 -0.00333
75.65 -0.00968
75.7 -0.01214
75.75 -0.01136
75.8 -0.01285
75.85 -0.01428
75.9 -0.01654
75.95 -0.01839
76 -0.02052
76.05 -0.02172
76.1 -0.01788
76.15 -0.01299
76.2 -0.0113
76.25 -0.01303
76.3 -0.00861
76.35 -0.0048
76.4 -0.00155
76.45 -0.0021
76.5 -0.00366
76.55 -0.003
76.6 -0.00442
76.65 -0.00736
76.7 -0.01189
76.75 -0.01678
76.8 -0.0155
76.85 -0.01183
76.9 -0.00721
76.95 -0.00027
77 0.00246
77.05 0.00254
77.1 0.00235
77.15 0.00475
77.2 0.00578
77.25 0.00402
77.3 0.00087
77.35 -0.00483
77.4 -0.00396
77.45 -0.0011
77.5 0.00286
77.55 0.00825
77.6 0.01259
77.65 0.01079
77.7 0.00556
77.75 0.0054
77.8 0.00961
77.85 0.00876
77.9 0.00719
77.95 0.00911
78 0.00964
78.05 0.00659
78.1 -0.00028
78.15 -0.00252
78.2 -0.0017
78.25 0.00035
78.3 0.00382
78.35 0.0078
78.4 0.00539
78.45 0.0036
78.5 0.00596
78.55 0.00774
78.6 0.00975
78.65 0.0146
78.7 0.01474
78.75 0.01578
78.8 0.0114
78.85 0.00848
78.9 0.00305
78.95 -0.00022
79 -0.00505
79.05 -0.00796
79.1 -0.01289
79.15 -0.01844
79.2 -0.01668
79.25 -0.01431
79.3 -0.00883
79.35 -0.00076
79.4 0.00197
79.45 0.00504
79.5 0.00551
79.55 0.00975
79.6 0.00837
79.65 0.00777
79.7 0.00907
79.75 0.00662
79.8 0.0089
79.85 0.01057
79.9 0.01113
79.95 0.00855
80 0.01047
80.05 0.00882
80.1 0.00552
80.15 -0.00057
80.2 -0.00307
80.25 -0.00076
80.3 0.0024
80.35 0.00249
80.4 -0.00189
80.45 -0.00292
80.5 0.00118
80.55 0.00691
80.6 0.01424
80.65 0.01676
80.7 0.01312
80.75 0.0134
80.8 0.01344
80.85 0.01524
80.9 0.0135
80.95 0.0147
81 0.01727
81.05 0.01807
81.1 0.01861
81.15 0.01874
81.2 0.01442
81.25 0.00902
81.3 0.00325
81.35 -0.00548
81.4 -0.00798
81.45 -0.01318
81.5 -0.01344
81.55 -0.01495
81.6 -0.01503
81.65 -0.0179
81.7 -0.01978
81.75 -0.0168
81.8 -0.00963
81.85 -0.00333
81.9 0.00092
81.95 0.00798
82 0.00955
82.05 0.00569
82.1 0.00024
82.15 -0.00497
82.2 -0.00872
82.25 -0.00703
82.3 -0.00309
82.35 0.00035
82.4 0.00636
82.45 0.01106
82.5 0.01274
82.55 0.01399
82.6 0.01774
82.65 0.01679
82.7 0.01028
82.75 0.00794
82.8 0.00552
82.85 -0.00137
82.9 -0.00682
82.95 -0.0126
83 -0.01424
83.05 -0.01478
83.1 -0.01565
83.15 -0.01736
83.2 -0.02059
83.25 -0.01705
83.3 -0.01803
83.35 -0.01943
83.4 -0.01504
83.45 -0.01481
83.5 -0.01299
83.55 -0.00973
83.6 -0.01053
83.65 -0.00579
83.7 -0.00301
83.75 -0.00398
83.8 -0.00811
83.85 -0.01121
83.9 -0.00973
83.95 -0.01175
84 -0.01555
84.05 -0.02059
84.1 -0.02283
84.15 -0.01825
84.2 -0.01643
84.25 -0.01203
84.3 -0.00992
84.35 -0.00464
84.4 0.00163
84.45 0.0063
84.5 0.01209
84.55 0.01282
84.6 0.00893
84.65 0.00822
84.7 0.00281
84.75 -0.00059
84.8 -0.00358
84.85 -0.00208
84.9 -0.00489
84.95 -0.00684
85 -0.00681
85.05 -0.00467
85.1 -0.00262
85.15 0.00044
85.2 0.00563
85.25 0.01312
85.3 0.01456
85.35 0.01118
85.4 0.00403
85.45 -0.00318
85.5 -0.00387
85.55 -0.0003
85.6 0.0023
85.65 0.00136
85.7 0.0005
85.75 0.00249
85.8 0.00155
85.85 0.00118
85.9 -0.00007
85.95 -0
86 -0.00416
86.05 -0.00852
86.1 -0.01468
86.15 -0.01974
86.2 -0.02396
86.25 -0.02074
86.3 -0.01842
86.35 -0.01435
86.4 -0.01235
86.45 -0.00592
86.5 -0.00408
86.55 -0.00304
86.6 0.00082
86.65 -0.00001
86.7 -0.00005
86.75 0.00204
86.8 0.00474
86.85 0.00422
86.9 0.00151
86.95 -0.00056
87 -0.00123
87.05 -0.00013
87.1 0.00247
87.15 0.00277
87.2 0.00561
87.25 0.00651
87.3 0.00276
87.35 -0.00174
87.4 -0.00097
87.45 0.00013
87.5 -0.00076
87.55 -0.00024
87.6 -0.00287
87.65 -0.00837
87.7 -0.00692
87.75 -0.00793
87.8 -0.01157
87.85 -0.01408
87.9 -0.01055
87.95 -0.00905
88 -0.01019
88.05 -0.01328
88.1 -0.01384
88.15 -0.01691
88.2 -0.01412
88.25 -0.01272
88.3 -0.00785
88.35 -0.00643
88.4 -0.00315
88.45 0.00255
88.5 0.00752
88.55 0.01348
88.6 0.01811
88.65 0.02218
88.7 0.02389
88.75 0.02108
88.8 0.01544
88.85 0.00715
88.9 0.00391
88.95 0.00216
89 0.00236
89.05 0.00011
89.1 -0.00188
89.15 -0.00509
89.2 -0.0071
89.25 -0.00708
89.3 -0.00655
89.35 -0.00805
89.4 -0.00555
89.45 0.00055
89.5 0.00164
89.55 0.0056
89.6 0.01038
89.65 0.01512
89.7 0.0157
89.75 0.0128
89.8 0.01396
89.85 0.01393
89.9 0.01234
89.95 0.01016
90 0.00698
90.05 -0.00002
90.1 -0.00637
90.15 -0.01391
90.2 -0.0174
90.25 -0.01961
90.3 -0.01467
90.35 -0.00891
90.4 -0.00322
90.45 -0.00153
90.5 0.00124
90.55 0.00671
90.6 0.01174
90.65 0.01248
90.7 0.01668
90.75 0.01848
90.8 0.02001
90.85 0.01823
90.9 0.01413
90.95 0.00727
91 0.00407
91.05 0.00537
91.1 0.00323
91.15 -0.00034
91.2 -0.00208
91.25 -0.00174
91.3 -0.00315
91.35 -0.00745
91.4 -0.01069
91.45 -0.00999
91.5 -0.00532
91.55 0.00149
91.6 0.00382
91.65 0.00475
91.7 0.00183
91.75 -0.00032
91.8 -0.00388
91.85 -0.00749
91.9 -0.00551
91.95 -0.00148
92 0.00559
92.05 0.0053
92.1 0.00079
92.15 -0.00395
92.2 -0.01008
92.25 -0.01633
92.3 -0.02299
92.35 -0.02174
92.4 -0.01869
92.45 -0.01567
92.5 -0.00851
92.55 -0.00673
92.6 -0.00459
92.65 -0.00347
92.7 0.00069
92.75 0.00088
92.8 -0.00152
92.85 -0.00477
92.9 -0.00703
92.95 -0.00609
93 -0.00292
93.05 -0.0019
93.1 0.00324
93.15 0.00493
93.2 0.0077
93.25 0.00525
93.3 0.00669
93.35 0.00269
93.4 0.00396
93.45 0.00822
93.5 0.01009
93.55 0.01019
93.6 0.01284
93.65 0.01547
93.7 0.01537
93.75 0.01055
93.8 0.00875
93.85 0.00719
93.9 0.00398
93.95 -0.00144
94 -0.00215
94.05 -0.00058
94.1 -0.00022
94.15 0.00293
94.2 0.00461
94.25 0.00996
94.3 0.01565
94.35 0.01952
94.4 0.02063
94.45 0.01893
94.5 0.0182
94.55 0.01655
94.6 0.01049
94.65 0.00181
94.7 -0.0007
94.75 -0.00557
94.8 -0.00454
94.85 -0.0046
94.9 -0.00557
94.95 -0.00862
95 -0.00557
95.05 -0.00175
95.1 -0.00233
95.15 -0.0001
95.2 0.00389
95.25 0.00789
95.3 0.00844
95.35 0.00366
95.4 -0.0019
95.45 -0.00264
95.5 -0.0021
95.55 -0.00388
95.6 -0.00706
95.65 -0.01226
95.7 -0.015
95.75 -0.01581
95.8 -0.01404
95.85 -0.01204
95.9 -0.00669
95.95 -0.00468
96 -0.00374
96.05 0.00011
96.1 -0.00184
96.15 -0.00442
96.2 -0.0079
96.25 -0.01152
96.3 -0.00911
96.35 -0.00332
96.4 0.00089
96.45 -0.00056
96.5 -0.00347
96.55 -0.0035
96.6 -0.00372
96.65 -0.0066
96.7 -0.00413
96.75 -0.00121
96.8 0.00449
96.85 0.00354
96.9 -0.00089
96.95 -0.00557
97 -0.00554
97.05 -0.00902
97.1 -0.01248
97.15 -0.01334
97.2 -0.00987
97.25 -0.0041
97.3 0.00109
97.35 0.00701
97.4 0.0099
97.45 0.01559
97.5 0.02191
97.55 0.02685
97.6 0.02524
97.65 0.0188
97.7 0.01717
97.75 0.01475
97.8 0.0085
97.85 0.00763
97.9 0.0086
97.95 0.0094
98 0.00579
98.05 0.00534
98.1 0.00869
98.15 0.01195
98.2 0.00976
98.25 0.00783
98.3 0.00571
98.35 0.0071
98.4 0.01082
98.45 0.01601
98.5 0.01458
98.55 0.00841
98.6 -0.00079
98.65 -0.00432
98.7 -0.00992
98.75 -0.01139
98.8 -0.0117
98.85 -0.01127
98.9 -0.01045
98.95 -0.01226
99 -0.01691
99.05 -0.01897
99.1 -0.01533
99.15 -0.01086
99.2 -0.0091
99.25 -0.00871
99.3 -0.01188
99.35 -0.01311
99.4 -0.01436
99.45 -0.01091
99.5 -0.00519
99.55 -0.00127
99.6 -0.00134
99.65 -0.00365
99.7 -0.00729
99.75 -0.0109
99.8 -0.01384
99.85 -0.01375
99.9 -0.01267
99.95 -0.00853
