0 0
0.05 0.00695
0.1 0.01194
0.15 0.01858
0.2 0.02905
0.25 0.04266
0.3 0.05364
0.35 0.0644
0.4 0.06589
0.45 0.06963
0.5 0.07436
0.55 0.07857
0.6 0.07583
0.65 0.06769
0.7 0.06332
0.75 0.0572
0.8 0.05553
0.85 0.05316
0.9 0.05304
0.95 0.05404
1 0.04932
1.05 0.04159
1.1 0.03647
1.15 0.03295
1.2 0.03087
1.25 0.02595
1.3 0.02187
1.35 0.02264
1.4 0.02637
1.45 0.02976
1.5 0.02961
1.55 0.0317
1.6 0.03187
1.65 0.03624
1.7 0.03999
1.75 0.03903
1.8 0.03349
1.85 0.02581
1.9 0.02089
1.95 0.01515
2 0.01559
2.05 0.02006
2.1 0.02583
2.15 0.02763
2.2 0.02912
2.25 0.03477
2.3 0.03655
2.35 0.03855
2.4 0.03466
2.45 0.03387
2.5 0.03475
2.55 0.03042
2.6 0.03172
2.65 0.0327
2.7 0.02938
2.75 0.02229
2.8 0.01608
2.85 0.01699
2.9 0.01846
2.95 0.0165
3 0.01499
3.05 0.01577
3.1 0.01868
3.15 0.02105
3.2 0.02226
3.25 0.02196
3.3 0.01822
3.35 0.01797
3.4 0.01499
3.45 0.00985
3.5 0.00614
3.55 0.00766
3.6 0.01196
3.65 0.02025
3.7 0.02589
3.75 0.02987
3.8 0.02901
3.85 0.02869
3.9 0.03112
3.95 0.02851
4 0.02578
4.05 0.02188
4.1 0.01938
4.15 0.01337
4.2 0.00785
4.25 -0.00093
4.3 -0.00671
4.35 -0.01257
4.4 -0.01548
4.45 -0.01813
4.5 -0.01754
4.55 -0.0195
4.6 -0.02172
4.65 -0.02842
4.7 -0.03531
4.75 -0.05144
4.8 -0.07092
4.85 -0.09827
4.9 -0.12712
4.95 -0.15664
5 -0.194
5.05 -0.23364
5.1 -0.28121
5.15 -0.33026
5.2 -0.37949
5.25 -0.43538
5.3 -0.493
5.35 -0.54931
5.4 -0.60603
5.45 -0.66906
5.5 -0.73157
5.55 -0.7885
5.6 -0.84185
5.65 -0.89891
5.7 -0.95334
5.75 -1.00414
5.8 -1.04873
5.85 -1.0856
5.9 -1.10666
5.95 -1.11546
6 -1.11588
6.05 -1.11077
6.1 -1.09664
6.15 -1.07111
6.2 -1.04003
6.25 -0.99983
6.3 -0.95417
6.35 -0.90324
6.4 -0.84826
6.45 -0.79592
6.5 -0.7365
6.55 -0.67903
6.6 -0.61602
6.65 -0.55187
6.7 -0.48692
6.75 -0.41939
6.8 -0.35135
6.85 -0.27894
6.9 -0.19791
6.95 -0.11904
7 -0.03377
7.05 0.0523
7.1 0.13732
7.15 0.21849
7.2 0.29483
7.25 0.37235
7.3 0.44995
7.35 0.52484
7.4 0.59293
7.45 0.65562
7.5 0.70831
7.55 0.75085
7.6 0.78926
7.65 0.8181
7.7 0.84639
7.75 0.87265
7.8 0.88958
7.85 0.89726
7.9 0.90487
7.95 0.90836
8 0.90886
8.05 0.90118
8.1 0.89361
8.15 0.88116
8.2 0.86848
8.25 0.85053
8.3 0.83463
8.35 0.82028
8.4 0.80611
8.45 0.79274
8.5 0.77837
8.55 0.75585
8.6 0.73114
8.65 0.70354
8.7 0.67678
8.75 0.6491
8.8 0.62621
8.85 0.60448
8.9 0.58262
8.95 0.56717
9 0.55705
9.05 0.54096
9.1 0.52621
9.15 0.5154
9.2 0.49953
9.25 0.48947
9.3 0.483
9.35 0.47167
9.4 0.45889
9.45 0.44437
9.5 0.42999
9.55 0.42128
9.6 0.4159
9.65 0.41344
9.7 0.40751
9.75 0.40083
9.8 0.3919
9.85 0.38129
9.9 0.37305
9.95 0.36684
10 0.35819
10.05 0.34823
10.1 0.3422
10.15 0.33981
10.2 0.33377
10.25 0.32307
10.3 0.3155
10.35 0.30714
10.4 0.30099
10.45 0.28936
10.5 0.28197
10.55 0.26862
10.6 0.25755
10.65 0.24329
10.7 0.2337
10.75 0.21955
10.8 0.20745
10.85 0.19247
10.9 0.18138
10.95 0.16557
11 0.1538
11.05 0.13748
11.1 0.11921
11.15 0.10344
11.2 0.09393
11.25 0.08266
11.3 0.07384
11.35 0.06683
11.4 0.06122
11.45 0.0558
11.5 0.05093
11.55 0.04454
11.6 0.03376
11.65 0.02437
11.7 0.00962
11.75 -0.00561
11.8 -0.01738
11.85 -0.03193
11.9 -0.04931
11.95 -0.05913
12 -0.067
12.05 -0.07682
12.1 -0.08875
12.15 -0.09933
12.2 -0.11134
12.25 -0.11941
12.3 -0.12876
12.35 -0.13632
12.4 -0.14223
12.45 -0.1426
12.5 -0.14614
12.55 -0.14667
12.6 -0.14389
12.65 -0.14503
12.7 -0.1445
12.75 -0.14669
12.8 -0.14557
12.85 -0.14565
12.9 -0.14326
12.95 -0.1435
13 -0.1384
13.05 -0.13978
13.1 -0.13959
13.15 -0.14004
13.2 -0.14197
13.25 -0.13904
13.3 -0.13922
13.35 -0.13845
13.4 -0.13761
13.45 -0.13942
13.5 -0.13754
13.55 -0.13294
13.6 -0.13086
13.65 -0.13285
13.7 -0.13037
13.75 -0.12469
13.8 -0.12474
13.85 -0.12065
13.9 -0.12148
13.95 -0.11886
14 -0.11224
14.05 -0.11167
14.1 -0.10671
14.15 -0.1058
14.2 -0.10203
14.25 -0.0968
14.3 -0.09827
14.35 -0.10326
14.4 -0.10937
14.45 -0.11618
14.5 -0.11766
14.55 -0.11218
14.6 -0.10956
14.65 -0.10867
14.7 -0.10201
14.75 -0.10066
14.8 -0.09882
14.85 -0.09732
14.9 -0.09615
14.95 -0.09652
15 -0.0979
15.05 -0.09516
15.1 -0.09294
15.15 -0.08622
15.2 -0.07746
15.25 -0.0747
15.3 -0.07526
15.35 -0.07377
15.4 -0.07256
15.45 -0.07087
15.5 -0.06842
15.55 -0.06299
15.6 -0.05534
15.65 -0.05124
15.7 -0.0537
15.75 -0.0559
15.8 -0.05768
15.85 -0.06159
15.9 -0.06654
15.95 -0.06703
16 -0.06203
16.05 -0.06138
16.1 -0.05799
16.15 -0.05934
16.2 -0.05968
16.25 -0.06191
16.3 -0.0635
16.35 -0.06447
16.4 -0.0604
16.45 -0.05721
16.5 -0.05517
16.55 -0.05411
16.6 -0.05534
16.65 -0.0558
16.7 -0.0521
16.75 -0.04717
16.8 -0.04415
16.85 -0.04635
16.9 -0.05167
16.95 -0.051
17 -0.05231
17.05 -0.05191
17.1 -0.04916
17.15 -0.04242
17.2 -0.0361
17.25 -0.02937
17.3 -0.0296
17.35 -0.02855
17.4 -0.03269
17.45 -0.0392
17.5 -0.04052
17.55 -0.0412
17.6 -0.04472
17.65 -0.04674
17.7 -0.04967
17.75 -0.05304
17.8 -0.05214
17.85 -0.05041
17.9 -0.04982
17.95 -0.04739
18 -0.044
18.05 -0.04204
18.1 -0.04015
18.15 -0.04097
18.2 -0.03972
18.25 -0.03984
18.3 -0.04182
18.35 -0.03684
18.4 -0.03679
18.45 -0.03559
18.5 -0.03247
18.55 -0.02557
18.6 -0.02344
18.65 -0.02157
18.7 -0.02188
18.75 -0.02545
18.8 -0.03006
18.85 -0.03049
18.9 -0.02786
18.95 -0.02287
19 -0.02338
19.05 -0.01957
19.1 -0.01756
19.15 -0.01428
19.2 -0.0088
19.25 -0.00454
19.3 -0.00699
19.35 -0.01158
19.4 -0.01021
19.45 -0.01408
19.5 -0.01727
19.55 -0.0155
19.6 -0.0184
19.65 -0.02066
19.7 -0.02173
19.75 -0.02437
19.8 -0.02807
19.85 -0.0244
19.9 -0.01927
19.95 -0.01372
20 -0.00587
20.05 -0.00552
20.1 -0.00102
20.15 0.0049
20.2 0.01048
20.25 0.01478
20.3 0.01949
20.35 0.01569
20.4 0.00971
20.45 -0.00032
20.5 -0.00473
20.55 -0.01227
20.6 -0.02095
20.65 -0.03027
20.7 -0.03387
20.75 -0.03064
20.8 -0.0288
20.85 -0.0292
20.9 -0.03146
20.95 -0.02994
21 -0.02638
21.05 -0.0251
21.1 -0.01842
21.15 -0.01664
21.2 -0.01575
21.25 -0.01544
21.3 -0.01471
21.35 -0.01542
21.4 -0.01522
21.45 -0.01483
21.5 -0.00996
21.55 -0.00539
21.6 0.00025
21.65 0.00005
21.7 -0.00422
21.75 -0.0062
21.8 -0.0073
21.85 -0.00578
21.9 -0.00664
21.95 -0.00816
22 -0.01281
22.05 -0.01122
22.1 -0.01354
22.15 -0.01551
22.2 -0.01484
22.25 -0.01123
22.3 -0.00686
22.35 -0.0085
22.4 -0.0069
22.45 -0.00808
22.5 -0.00784
22.55 -0.00639
22.6 -0.00741
22.65 -0.0075
22.7 -0.01135
22.75 -0.01199
22.8 -0.01142
22.85 -0.01005
22.9 -0.01061
22.95 -0.00748
23 -0.00397
23.05 0.00014
23.1 0.00488
23.15 0.00896
23.2 0.01371
23.25 0.01131
23.3 0.00553
23.35 0.00499
23.4 0.00491
23.45 0.00044
23.5 -0.00461
23.55 -0.00653
23.6 -0.00465
23.65 -0.00605
23.7 -0.00502
23.75 -0.00759
23.8 -0.01196
23.85 -0.01075
23.9 -0.0122
23.95 -0.01331
24 -0.01168
24.05 -0.00663
24.1 -0.00736
24.15 -0.00509
24.2 -0.0062
24.25 -0.00684
24.3 -0.0091
24.35 -0.00874
24.4 -0.0053
24.45 -0.00505
24.5 -0.00908
24.55 -0.00949
24.6 -0.01013
24.65 -0.00971
24.7 -0.01258
24.75 -0.01764
24.8 -0.02127
24.85 -0.02194
24.9 -0.02195
24.95 -0.01739
25 -0.01285
25.05 -0.01044
25.1 -0.00589
25.15 -0.00369
25.2 -0.00394
25.25 -0.00726
25.3 -0.0124
25.35 -0.01786
25.4 -0.01602
25.45 -0.01048
25.5 -0.00219
25.55 0.00376
25.6 0.00971
25.65 0.01483
25.7 0.0215
25.75 0.02027
25.8 0.01919
25.85 0.0185
25.9 0.0201
25.95 0.01814
26 0.01222
26.05 0.00353
26.1 0.00005
26.15 -0.00091
26.2 -0.00304
26.25 -0.00693
26.3 -0.00827
26.35 -0.00479
26.4 -0.00491
26.45 -0.00889
26.5 -0.00906
26.55 -0.01215
26.6 -0.01685
26.65 -0.01393
26.7 -0.01244
26.75 -0.00862
26.8 -0.00323
26.85 0.00028
26.9 0.0037
26.95 0.0029
27 -0.00212
27.05 -0.00756
27.1 -0.01495
27.15 -0.01939
27.2 -0.02238
27.25 -0.0209
27.3 -0.0227
27.35 -0.01815
27.4 -0.01052
27.45 -0.00195
27.5 0.00456
27.55 0.01091
27.6 0.00831
27.65 0.00506
27.7 -0.00275
27.75 -0.00923
27.8 -0.02128
27.85 -0.03119
27.9 -0.04108
27.95 -0.05535
28 -0.07039
28.05 -0.08542
28.1 -0.10234
28.15 -0.11413
28.2 -0.13058
28.25 -0.14769
28.3 -0.17019
28.35 -0.19277
28.4 -0.21507
28.45 -0.24329
28.5 -0.27641
28.55 -0.31737
28.6 -0.36693
28.65 -0.41985
28.7 -0.4803
28.75 -0.53932
28.8 -0.5992
28.85 -0.6679
28.9 -0.74383
28.95 -0.82136
29 -0.89932
29.05 -0.97921
29.1 -1.066
29.15 -1.15248
29.2 -1.2416
29.25 -1.33282
29.3 -1.42255
29.35 -1.50535
29.4 -1.58164
29.45 -1.6549
29.5 -1.72387
29.55 -1.78591
29.6 -1.8416
29.65 -1.88969
29.7 -1.92437
29.75 -1.95106
29.8 -1.96088
29.85 -1.95376
29.9 -1.937
29.95 -1.90724
30 -1.86257
30.05 -1.80473
30.1 -1.7402
30.15 -1.6627
30.2 -1.57333
30.25 -1.4775
30.3 -1.3731
30.35 -1.26342
30.4 -1.14405
30.45 -1.0147
30.5 -0.88597
30.55 -0.75493
30.6 -0.61983
30.65 -0.48101
30.7 -0.33758
30.75 -0.19892
30.8 -0.05984
30.85 0.078
30.9 0.21268
30.95 0.33921
31 0.4642
31.05 0.57982
31.1 0.69289
31.15 0.8012
31.2 0.90591
31.25 1.00068
31.3 1.0845
31.35 1.16049
31.4 1.22824
31.45 1.28384
31.5 1.33382
31.55 1.38102
31.6 1.42252
31.65 1.4604
31.7 1.48543
31.75 1.50307
31.8 1.52143
31.85 1.53805
31.9 1.54856
31.95 1.55771
32 1.56184
32.05 1.55854
32.1 1.55122
32.15 1.53801
32.2 1.52312
32.25 1.51183
32.3 1.50413
32.35 1.49817
32.4 1.49353
32.45 1.48159
32.5 1.47053
32.55 1.45772
32.6 1.43871
32.65 1.42201
32.7 1.40749
32.75 1.39143
32.8 1.37411
32.85 1.35644
32.9 1.33346
32.95 1.30459
33 1.27869
33.05 1.257
33.1 1.22801
33.15 1.19435
33.2 1.15845
33.25 1.12833
33.3 1.10248
33.35 1.07707
33.4 1.04776
33.45 1.01766
33.5 0.98374
33.55 0.9491
33.6 0.91486
33.65 0.8866
33.7 0.8551
33.75 0.82733
33.8 0.79952
33.85 0.77073
33.9 0.73539
33.95 0.70184
34 0.67101
34.05 0.63648
34.1 0.60336
34.15 0.56873
34.2 0.53844
34.25 0.50681
34.3 0.47454
34.35 0.44513
34.4 0.41833
34.45 0.3906
34.5 0.36249
34.55 0.33803
34.6 0.31591
34.65 0.29343
34.7 0.2698
34.75 0.24353
34.8 0.21653
34.85 0.1926
34.9 0.17065
34.95 0.14466
35 0.11873
35.05 0.09863
35.1 0.07711
35.15 0.05867
35.2 0.03793
35.25 0.01754
35.3 0.00433
35.35 -0.00559
35.4 -0.01952
35.45 -0.03127
35.5 -0.04059
35.55 -0.04799
35.6 -0.05643
35.65 -0.07135
35.7 -0.08242
35.75 -0.09866
35.8 -0.1122
35.85 -0.12202
35.9 -0.12892
35.95 -0.1379
36 -0.14862
36.05 -0.15521
36.1 -0.16654
36.15 -0.18187
36.2 -0.19151
36.25 -0.19997
36.3 -0.21021
36.35 -0.21591
36.4 -0.22068
36.45 -0.2251
36.5 -0.22844
36.55 -0.23015
36.6 -0.22818
36.65 -0.2325
36.7 -0.2345
36.75 -0.23375
36.8 -0.23124
36.85 -0.23156
36.9 -0.23352
36.95 -0.2399
37 -0.24226
37.05 -0.24785
37.1 -0.24807
37.15 -0.24744
37.2 -0.25051
37.25 -0.25084
37.3 -0.25187
37.35 -0.25303
37.4 -0.25585
37.45 -0.2572
37.5 -0.25387
37.55 -0.25156
37.6 -0.24999
37.65 -0.24454
37.7 -0.23846
37.75 -0.23713
37.8 -0.23855
37.85 -0.23641
37.9 -0.22912
37.95 -0.22071
38 -0.21752
38.05 -0.21806
38.1 -0.22147
38.15 -0.2242
38.2 -0.22638
38.25 -0.22872
38.3 -0.22628
38.35 -0.21944
38.4 -0.21477
38.45 -0.20795
38.5 -0.19903
38.55 -0.1952
38.6 -0.18692
38.65 -0.18262
38.7 -0.17633
38.75 -0.17395
38.8 -0.176
38.85 -0.17211
38.9 -0.1657
38.95 -0.16416
39 -0.16218
39.05 -0.16192
39.1 -0.15967
39.15 -0.1562
39.2 -0.15759
39.25 -0.15865
39.3 -0.15555
39.35 -0.1567
39.4 -0.15744
39.45 -0.15565
39.5 -0.15723
39.55 -0.15833
39.6 -0.15662
39.65 -0.15768
39.7 -0.15935
39.75 -0.15954
39.8 -0.15293
39.85 -0.14958
39.9 -0.14174
39.95 -0.13563
40 -0.12879
40.05 -0.12286
40.1 -0.11701
40.15 -0.11081
40.2 -0.10393
40.25 -0.09877
40.3 -0.09454
40.35 -0.08885
40.4 -0.08772
40.45 -0.08829
40.5 -0.09313
40.55 -0.09589
40.6 -0.09479
40.65 -0.09136
40.7 -0.09117
40.75 -0.09193
40.8 -0.08881
40.85 -0.08614
40.9 -0.08765
40.95 -0.09237
41 -0.09782
41.05 -0.1008
41.1 -0.09854
41.15 -0.09528
41.2 -0.09143
41.25 -0.08602
41.3 -0.08
41.35 -0.07533
41.4 -0.07586
41.45 -0.07297
41.5 -0.07164
41.55 -0.073
41.6 -0.06935
41.65 -0.06668
41.7 -0.06848
41.75 -0.07137
41.8 -0.074
41.85 -0.07492
41.9 -0.07567
41.95 -0.0751
42 -0.07668
42.05 -0.07406
42.1 -0.07007
42.15 -0.06511
42.2 -0.05792
42.25 -0.05301
42.3 -0.05012
42.35 -0.05218
42.4 -0.05281
42.45 -0.05348
42.5 -0.05712
42.55 -0.05435
42.6 -0.05562
42.65 -0.05138
42.7 -0.045
42.75 -0.03731
42.8 -0.03099
42.85 -0.0248
42.9 -0.02295
42.95 -0.02081
43 -0.0254
43.05 -0.02829
43.1 -0.02873
43.15 -0.03358
43.2 -0.04195
43.25 -0.04399
43.3 -0.04961
43.35 -0.05111
43.4 -0.04909
43.45 -0.04838
43.5 -0.04979
43.55 -0.054
43.6 -0.05597
43.65 -0.05839
43.7 -0.05513
43.75 -0.04795
43.8 -0.04155
43.85 -0.03491
43.9 -0.02942
43.95 -0.02963
44 -0.03265
44.05 -0.03907
44.1 -0.04249
44.15 -0.04039
44.2 -0.03466
44.25 -0.02655
44.3 -0.02262
44.35 -0.02431
44.4 -0.02332
44.45 -0.02109
44.5 -0.01627
44.55 -0.01711
44.6 -0.02184
44.65 -0.0208
44.7 -0.02017
44.75 -0.02394
44.8 -0.02639
44.85 -0.0292
44.9 -0.02846
44.95 -0.02472
45 -0.02331
45.05 -0.02345
45.1 -0.0273
45.15 -0.03283
45.2 -0.03973
45.25 -0.04649
45.3 -0.04485
45.35 -0.04633
45.4 -0.04252
45.45 -0.03778
45.5 -0.03346
45.55 -0.032
45.6 -0.02877
45.65 -0.0247
45.7 -0.02191
45.75 -0.0232
45.8 -0.02498
45.85 -0.02529
45.9 -0.02158
45.95 -0.01804
46 -0.01601
46.05 -0.01725
46.1 -0.01865
46.15 -0.02342
46.2 -0.0249
46.25 -0.02873
46.3 -0.03361
46.35 -0.03393
46.4 -0.03548
46.45 -0.03044
46.5 -0.03033
46.55 -0.02474
46.6 -0.02029
46.65 -0.01382
46.7 -0.01102
46.75 -0.00515
46.8 -0.0003
46.85 0.00096
46.9 0.00182
46.95 0.00389
47 0.00352
47.05 0.00019
47.1 -0.00551
47.15 -0.0102
47.2 -0.014
47.25 -0.02091
47.3 -0.02144
47.35 -0.01737
47.4 -0.01364
47.45 -0.01327
47.5 -0.01448
47.55 -0.0192
47.6 -0.02418
47.65 -0.03054
47.7 -0.02997
47.75 -0.03263
47.8 -0.03174
47.85 -0.03141
47.9 -0.03173
47.95 -0.03456
48 -0.03341
48.05 -0.02601
48.1 -0.01686
48.15 -0.00567
48.2 0.0047
48.25 0.00772
48.3 0.00918
48.35 0.00869
48.4 0.00706
48.45 0.00313
48.5 -0.00219
48.55 -0.00855
48.6 -0.01283
48.65 -0.01436
48.7 -0.01303
48.75 -0.01537
48.8 -0.01824
48.85 -0.0198
48.9 -0.02118
48.95 -0.02483
49 -0.02641
49.05 -0.02939
49.1 -0.03103
49.15 -0.02956
49.2 -0.02771
49.25 -0.02665
49.3 -0.02857
49.35 -0.03103
49.4 -0.03254
49.45 -0.03275
49.5 -0.02635
49.55 -0.02256
49.6 -0.01542
49.65 -0.01293
49.7 -0.01397
49.75 -0.00885
49.8 -0.00336
49.85 -0.0003
49.9 0.00635
49.95 0.00787
50 0.00801
50.05 0.00996
50.1 0.0082
50.15 0.01034
50.2 0.0078
50.25 0.00761
50.3 0.00949
50.35 0.00766
50.4 0.00389
50.45 -0.00334
50.5 -0.00833
50.55 -0.01018
50.6 -0.00825
50.65 -0.00498
50.7 -0.0042
50.75 -0.00444
50.8 -0.0081
50.85 -0.00606
50.9 -0.00704
50.95 -0.00494
51 -0.00478
51.05 -0.00089
51.1 0.00176
51.15 0.00654
51.2 0.01103
51.25 0.01354
51.3 0.01392
51.35 0.01145
51.4 0.00507
51.45 -0.00151
51.5 -0.00305
51.55 0.00039
51.6 0.00494
51.65 0.00565
51.7 0.00585
51.75 0.01012
51.8 0.01427
51.85 0.01803
51.9 0.01836
51.95 0.01441
52 0.01394
52.05 0.0135
52.1 0.00836
52.15 0.00887
52.2 0.0116
52.25 0.01517
52.3 0.0124
52.35 0.01249
52.4 0.01023
52.45 0.00385
52.5 0.00288
52.55 0.00566
52.6 0.00829
52.65 0.01131
52.7 0.00925
52.75 0.00291
52.8 -0.005
52.85 -0.00606
52.9 -0.00668
52.95 -0.00729
53 -0.00799
53.05 -0.00371
53.1 0.00186
53.15 0.00366
53.2 0.00203
53.25 -0.00147
53.3 -0.00398
53.35 -0.00411
53.4 -0.00661
53.45 -0.01033
53.5 -0.01163
53.55 -0.01266
53.6 -0.01288
53.65 -0.01242
53.7 -0.0143
53.75 -0.01006
53.8 -0.01131
53.85 -0.01011
53.9 -0.00402
53.95 -0.00035
54 0.00069
54.05 -0.00248
54.1 -0.0052
54.15 -0.00345
54.2 -0.00482
54.25 -0.00424
54.3 -0.00253
54.35 -0.00128
54.4 0.00051
54.45 -0.00269
54.5 -0.00533
54.55 -0.00602
54.6 -0.00905
54.65 -0.01197
54.7 -0.01182
54.75 -0.00705
54.8 -0.00182
54.85 -0.00292
54.9 -0.00681
54.95 -0.0062
55 -0.00741
55.05 -0.00652
55.1 -0.00926
55.15 -0.01181
55.2 -0.01706
55.25 -0.0188
55.3 -0.018
55.35 -0.01458
55.4 -0.01221
55.45 -0.01208
55.5 -0.01341
55.55 -0.01557
55.6 -0.01279
55.65 -0.01349
55.7 -0.0101
55.75 -0.00343
55.8 -0.00129
55.85 0.00317
55.9 0.00677
55.95 0.00918
56 0.00544
56.05 0.00644
56.1 0.0066
56.15 0.01012
56.2 0.01308
56.25 0.01567
56.3 0.0168
56.35 0.01948
56.4 0.01952
56.45 0.0185
56.5 0.01554
56.55 0.0158
56.6 0.01789
56.65 0.01863
56.7 0.02093
56.75 0.01675
56.8 0.01033
56.85 0.00768
56.9 0.00921
56.95 0.00829
57 0.00299
57.05 -0.00271
57.1 -0.00982
57.15 -0.01322
57.2 -0.01199
57.25 -0.01108
57.3 -0.01013
57.35 -0.01162
57.4 -0.01019
57.45 -0.00955
57.5 -0.00884
57.55 -0.00714
57.6 -0.00215
57.65 -0.00173
57.7 -0.00616
57.75 -0.01322
57.8 -0.01505
57.85 -0.01354
57.9 -0.01295
57.95 -0.01318
58 -0.01222
58.05 -0.01132
58.1 -0.00727
58.15 -0.0064
58.2 -0.0071
58.25 -0.01099
58.3 -0.01645
58.35 -0.01485
58.4 -0.01225
58.45 -0.00529
58.5 0.00316
58.55 0.01186
58.6 0.01803
58.65 0.02045
58.7 0.02424
58.75 0.02649
58.8 0.02936
58.85 0.02447
58.9 0.02237
58.95 0.02059
59 0.02117
59.05 0.02195
59.1 0.01918
59.15 0.02015
59.2 0.01904
59.25 0.01308
59.3 0.01224
59.35 0.00926
59.4 0.00694
59.45 0.004
59.5 0.00225
59.55 -0.00223
59.6 -0.00604
59.65 -0.00574
59.7 -0.01009
59.75 -0.01226
59.8 -0.01041
59.85 -0.00416
59.9 -0.00048
59.95 0.00384
60 0.00727
60.05 0.00809
60.1 0.01048
60.15 0.0073
60.2 0.00515
60.25 0.00185
60.3 -0.00421
60.35 -0.00834
60.4 -0.0108
60.45 -0.01276
60.5 -0.01329
60.55 -0.01091
60.6 -0.00796
60.65 -0.01045
60.7 -0.00728
60.75 -0.00212
60.8 0.00457
60.85 0.00956
60.9 0.01468
60.95 0.01484
61 0.01326
61.05 0.00815
61.1 0.00752
61.15 0.00534
61.2 0.0057
61.25 0.00698
61.3 0.00674
61.35 0.00163
61.4 -0.00135
61.45 -0.00233
61.5 -0.0032
61.55 -0.00133
61.6 -0.00327
61.65 -0.00469
61.7 -0.00557
61.75 -0.00836
61.8 -0.01243
61.85 -0.01499
61.9 -0.01811
61.95 -0.02297
62 -0.02836
62.05 -0.0327
62.1 -0.03679
62.15 -0.03387
62.2 -0.03379
62.25 -0.03559
62.3 -0.03748
62.35 -0.03762
62.4 -0.03847
62.45 -0.03795
62.5 -0.03341
62.55 -0.03124
62.6 -0.02417
62.65 -0.01406
62.7 -0.00164
62.75 0.00641
62.8 0.00714
62.85 0.01107
62.9 0.01185
62.95 0.00951
63 0.00483
63.05 -0.00118
63.1 -0.00083
63.15 -0.00123
63.2 -0.0058
63.25 -0.00833
63.3 -0.00665
63.35 -0.00005
63.4 0.00839
63.45 0.01205
63.5 0.0126
63.55 0.0098
63.6 0.00538
63.65 0.00442
63.7 0.0013
63.75 0.00261
63.8 0.00252
63.85 0.00222
63.9 0.0007
63.95 0.00391
64 0.00836
64.05 0.00757
64.1 0.00262
64.15 -0.00307
64.2 -0.00233
64.25 0.00161
64.3 0.0015
64.35 -0.001
64.4 -0.00493
64.45 -0.0074
64.5 -0.00959
64.55 -0.01059
64.6 -0.01212
64.65 -0.01188
64.7 -0.01096
64.75 -0.014
64.8 -0.01153
64.85 -0.00725
64.9 -0.00596
64.95 -0.00146
65 0.00076
65.05 0.00484
65.1 0.00764
65.15 0.01138
65.2 0.01509
65.25 0.01537
65.3 0.01778
65.35 0.015
65.4 0.01269
65.45 0.00839
65.5 0.00046
65.55 -0.00298
65.6 -0.00676
65.65 -0.00827
65.7 -0.00877
65.75 -0.01151
65.8 -0.01458
65.85 -0.01556
65.9 -0.01705
65.95 -0.01213
66 -0.01084
66.05 -0.00483
66.1 -0.00199
66.15 -0.00153
66.2 0.00256
66.25 0.00945
66.3 0.01769
66.35 0.02319
66.4 0.02237
66.45 0.01694
66.5 0.01564
66.55 0.0096
66.6 0.00333
66.65 0.00177
66.7 0.00288
66.75 0.00674
66.8 0.00715
66.85 0.00542
66.9 0.00339
66.95 0.00172
67 0.00441
67.05 0.00314
67.1 0.0061
67.15 0.00538
67.2 0.00311
67.25 0.00489
67.3 0.0012
67.35 -0.00539
67.4 -0.00953
67.45 -0.01328
67.5 -0.01038
67.55 -0.00824
67.6 -0.00336
67.65 0.00279
67.7 0.00845
67.75 0.01416
67.8 0.02131
67.85 0.02729
67.9 0.02914
67.95 0.02626
68 0.01752
68.05 0.00573
68.1 0.00116
68.15 -0.00092
68.2 -0.0049
68.25 -0.00929
68.3 -0.00942
68.35 -0.01024
68.4 -0.00547
68.45 -0.00238
68.5 -0.00455
68.55 -0.00982
68.6 -0.0112
68.65 -0.00903
68.7 -0.00869
68.75 -0.01055
68.8 -0.00761
68.85 -0.00947
68.9 -0.01153
68.95 -0.01613
69 -0.01311
69.05 -0.00659
69.1 -0.00102
69.15 0.00494
69.2 0.0039
69.25 0.00703
69.3 0.00957
69.35 0.01326
69.4 0.01537
69.45 0.01882
69.5 0.01558
69.55 0.00871
69.6 0.00328
69.65 0.0003
69.7 0.00118
69.75 0.00029
69.8 0.00081
69.85 -0.00219
69.9 -0.00168
69.95 0.00058
70 -0.00207
70.05 -0.00241
70.1 -0.00605
70.15 -0.00811
70.2 -0.01251
70.25 -0.01777
70.3 -0.02432
70.35 -0.02726
70.4 -0.0227
70.45 -0.02087
70.5 -0.01955
70.55 -0.01732
70.6 -0.01208
70.65 -0.00688
70.7 -0.00342
70.75 0.00219
70.8 0.00446
70.85 0.00616
70.9 0.00792
70.95 0.00835
71 0.00758
71.05 0.00964
71.1 0.00691
71.15 0.00882
71.2 0.0066
71.25 0.0029
71.3 -0.00165
71.35 -0.00464
71.4 -0.00735
71.45 -0.0043
71.5 -0.00023
71.55 0.00104
71.6 0.00471
71.65 0.0033
71.7 0.0046
71.75 0.00355
71.8 0.00382
71.85 -0.0009
71.9 -0.0018
71.95 -0.00105
72 -0.00128
72.05 0.00324
72.1 0.00183
72.15 0.00079
72.2 -0.0031
72.25 -0.00113
72.3 -0.00161
72.35 -0.00131
72.4 -0.00179
72.45 -0.00418
72.5 -0.00566
72.55 -0.00465
72.6 -0.00314
72.65 -0.00001
72.7 0.00477
72.75 0.00441
72.8 0.00009
72.85 -0.00223
72.9 -0.00613
72.95 -0.00886
73 -0.01203
73.05 -0.01356
73.1 -0.01531
73.15 -0.01538
73.2 -0.0169
73.25 -0.01638
73.3 -0.01775
73.35 -0.01876
73.4 -0.02001
73.45 -0.01611
73.5 -0.0102
73.55 -0.00268
73.6 0.0005
73.65 0
73.7 -0.00062
73.75 -0.00473
73.8 -0.00731
73.85 -0.00369
73.9 -0.00044
73.95 -0.00233
74 0.00011
74.05 0.00112
74.1 -0.00011
74.15 -0.00139
74.2 -0.00078
74.25 0.00316
74.3 0.00997
74.35 0.00905
74.4 0.0079
74.45 0.00881
74.5 0.00592
74.55 0.0046
74.6 0.00816
74.65 0.00554
74.7 0.00667
74.75 0.00937
74.8 0.01348
74.85 0.01321
74.9 0.01164
74.95 0.00932
75 0.00311
75.05 0.00032
75.1 0.00064
75.15 0.0036
75.2 0.00617
75.25 0.00832
75.3 0.00569
75.35 0.00815
75.4 0.01345
75.45 0.01952
75.5 0.01931
75.55 0.0147
75.6 0.01045
75.65 0.00892
75.7 0.01102
75.75 0.00816
75.8 0.00974
75.85 0.00993
75.9 0.01349
75.95 0.01498
76 0.01604
76.05 0.018
76.1 0.01419
76.15 0.01489
76.2 0.01027
76.25 0.00983
76.3 0.01176
76.35 0.0131
76.4 0.01215
76.45 0.01089
76.5 0.00963
76.55 0.01008
76.6 0.01028
76.65 0.01002
76.7 0.00469
76.75 -0.00039
76.8 -0.00359
76.85 -0.0032
76.9 -0.00689
76.95 -0.01224
77 -0.01827
77.05 -0.02397
77.1 -0.02371
77.15 -0.02327
77.2 -0.01769
77.25 -0.01703
77.3 -0.0158
77.35 -0.012
77.4 -0.00924
77.45 -0.00561
77.5 -0.00536
77.55 -0.00476
77.6 -0.00376
77.65 0.00081
77.7 0.00182
77.75 -0.00082
77.8 -0.00115
77.85 -0.00205
77.9 -0.00432
77.95 -0.00357
78 -0.00582
78.05 -0.01044
78.1 -0.01193
78.15 -0.00781
78.2 -0.00444
78.25 0.00224
78.3 0.00261
78.35 0.00249
78.4 0.00482
78.45 0.00615
78.5 0.01019
78.55 0.0111
78.6 0.00973
78.65 0.0084
78.7 0.00365
78.75 -0.00074
78.8 -0.0014
78.85 -0.00027
78.9 -0.0022
78.95 -0.00168
79 0.00339
79.05 0.00893
79.1 0.01068
79.15 0.0063
79.2 0.0046
79.25 0.00025
79.3 -0.00363
79.35 -0.00432
79.4 -0.005
79.45 -0.00644
79.5 -0.00304
79.55 -0.00326
79.6 -0.00165
79.65 -0.00187
79.7 -0.00667
79.75 -0.00905
79.8 -0.01003
79.85 -0.00618
79.9 -0.00094
79.95 0.00224
80 -0.00007
80.05 -0.00137
80.1 -0.00064
80.15 -0.00259
80.2 -0.00508
80.25 -0.00541
80.3 -0.00387
80.35 -0.00689
80.4 -0.00388
80.45 -0.00312
80.5 0.00054
80.55 0.00082
80.6 0.00494
80.65 0.00685
80.7 0.00671
80.75 0.00839
80.8 0.00863
80.85 0.00514
80.9 0.0065
80.95 0.00394
81 -0.00023
81.05 -0.00215
81.1 -0.0024
81.15 -0.0051
81.2 -0.00551
81.25 -0.00783
81.3 -0.00595
81.35 -0.00797
81.4 -0.00903
81.45 -0.01024
81.5 -0.01116
81.55 -0.01494
81.6 -0.02005
81.65 -0.01807
81.7 -0.01965
81.75 -0.01503
81.8 -0.01212
81.85 -0.01039
81.9 -0.01102
81.95 -0.01194
82 -0.0085
82.05 -0.00811
82.1 -0.00814
82.15 -0.01001
82.2 -0.00655
82.25 -0.00245
82.3 -0.00231
82.35 -0.00526
82.4 -0.00483
82.45 0.00033
82.5 -0.00099
82.55 0.00003
82.6 0.00376
82.65 0.0064
82.7 0.0072
82.75 0.00657
82.8 0.00658
82.85 0.00573
82.9 0.00085
82.95 0.00238
83 -0.00097
83.05 -0.00549
83.1 -0.01117
83.15 -0.01705
83.2 -0.01939
83.25 -0.02117
83.3 -0.01984
83.35 -0.01384
83.4 -0.01082
83.45 -0.00889
83.5 -0.00675
83.55 -0.00585
83.6 -0.00724
83.65 -0.00761
83.7 -0.00793
83.75 -0.00498
83.8 0.00119
83.85 0.00367
83.9 0.00364
83.95 -0.00028
84 0.00179
84.05 0.00669
84.1 0.00633
84.15 0.01022
84.2 0.00765
84.25 0.00873
84.3 0.01121
84.35 0.01508
84.4 0.01261
84.45 0.01426
84.5 0.0147
84.55 0.01658
84.6 0.01409
84.65 0.01207
84.7 0.00587
84.75 -0.00275
84.8 -0.01018
84.85 -0.01554
84.9 -0.02171
84.95 -0.02593
85 -0.02719
85.05 -0.0233
85.1 -0.02112
85.15 -0.01903
85.2 -0.01572
85.25 -0.01272
85.3 -0.01085
85.35 -0.01148
85.4 -0.00985
85.45 -0.0041
85.5 -0.00375
85.55 -0.00057
85.6 0.00656
85.65 0.01145
85.7 0.01473
85.75 0.01405
85.8 0.01667
85.85 0.02139
85.9 0.02053
85.95 0.01559
86 0.01408
86.05 0.01271
86.1 0.01413
86.15 0.01606
86.2 0.01414
86.25 0.01091
86.3 0.0126
86.35 0.0174
86.4 0.01786
86.45 0.02135
86.5 0.02307
86.55 0.01759
86.6 0.01539
86.65 0.01375
86.7 0.01057
86.75 0.01181
86.8 0.00966
86.85 0.00295
86.9 0.00301
86.95 0.00421
87 0.00825
87.05 0.01438
87.1 0.01869
87.15 0.02024
87.2 0.02152
87.25 0.01612
87.3 0.01088
87.35 0.00852
87.4 0.00312
87.45 -0.0016
87.5 -0.00116
87.55 -0.0048
87.6 -0.00219
87.65 -0.00373
87.7 -0.00632
87.75 -0.0052
87.8 0.00007
87.85 0.0034
87.9 0.00167
87.95 0.00298
88 0.00379
88.05 0.00287
88.1 0.00234
88.15 0.00359
88.2 0.00568
88.25 0.01079
88.3 0.01043
88.35 0.01016
88.4 0.01014
88.45 0.00737
88.5 0.00535
88.55 0.00743
88.6 0.01036
88.65 0.00874
88.7 0.00991
88.75 0.01128
88.8 0.01292
88.85 0.0093
88.9 0.00835
88.95 0.00902
89 0.009
89.05 0.00414
89.1 -0.00086
89.15 0.00023
89.2 0.00116
89.25 0.00365
89.3 0.0006
89.35 -0.00425
89.4 -0.00369
89.45 -0.00201
89.5 0.00004
89.55 0.00389
89.6 0.00437
89.65 0.00837
89.7 0.011
89.75 0.00734
89.8 0.00251
89.85 -0.00154
89.9 -0.00102
89.95 -0.0003
90 -0.00144
90.05 -0.00385
90.1 -0.00515
90.15 -0.00506
90.2 -0.00734
90.25 -0.01212
90.3 -0.01467
90.35 -0.01516
90.4 -0.0106
90.45 -0.01056
90.5 -0.01462
90.55 -0.01667
90.6 -0.02093
90.65 -0.01946
90.7 -0.01652
90.75 -0.01321
90.8 -0.00695
90.85 0.0014
90.9 0.00303
90.95 0.00509
91 0.00431
91.05 0.00596
91.1 0.00636
91.15 0.00282
91.2 0.00161
91.25 0.00102
91.3 0.00245
91.35 0.00383
91.4 0.00838
91.45 0.01162
91.5 0.01539
91.55 0.01829
91.6 0.02212
91.65 0.01983
91.7 0.0149
91.75 0.01046
91.8 0.00933
91.85 0.00862
91.9 0.00978
91.95 0.00979
92 0.00971
92.05 0.00971
92.1 0.00935
92.15 0.00955
92.2 0.00963
92.25 0.01197
92.3 0.01228
92.35 0.00988
92.4 0.01113
92.45 0.01178
92.5 0.01472
92.55 0.01646
92.6 0.01208
92.65 0.01105
92.7 0.00982
92.75 0.00518
92.8 -0.00364
92.85 -0.01341
92.9 -0.0186
92.95 -0.02277
93 -0.02035
93.05 -0.01883
93.1 -0.02038
93.15 -0.01646
93.2 -0.00865
93.25 -0.00328
93.3 0.00063
93.35 0.00307
93.4 0.00724
93.45 0.01122
93.5 0.01166
93.55 0.00953
93.6 0.00878
93.65 0.00989
93.7 0.00527
93.75 0.00113
93.8 0.00247
93.85 0.00383
93.9 0.00173
93.95 -0.00503
94 -0.01155
94.05 -0.01807
94.1 -0.02608
94.15 -0.02949
94.2 -0.02727
94.25 -0.02323
94.3 -0.02073
94.35 -0.01988
94.4 -0.01675
94.45 -0.01526
94.5 -0.01116
94.55 -0.01279
94.6 -0.01494
94.65 -0.01434
94.7 -0.01319
94.75 -0.01233
94.8 -0.00737
94.85 -0.00094
94.9 0.00088
94.95 0.00038
95 0.00064
95.05 -0.00417
95.1 -0.01072
95.15 -0.01685
95.2 -0.02383
95.25 -0.02412
95.3 -0.01801
95.35 -0.00876
95.4 0.00064
95.45 0.00536
95.5 0.00796
95.55 0.01165
95.6 0.01195
95.65 0.01065
95.7 0.00432
95.75 -0.00158
95.8 -0.00193
95.85 -0.00086
95.9 0.00324
95.95 0.00479
96 0.00565
96.05 0.00934
96.1 0.00663
96.15 0.00413
96.2 0.00426
96.25 0.0009
96.3 -0.00018
96.35 0.00294
96.4 0.00814
96.45 0.01102
96.5 0.01266
96.55 0.01413
96.6 0.00932
96.65 0.00104
96.7 -0.00631
96.75 -0.01338
96.8 -0.01898
96.85 -0.02448
96.9 -0.0261
96.95 -0.02949
97 -0.03349
97.05 -0.03688
97.1 -0.03371
97.15 -0.02855
97.2 -0.01861
97.25 -0.01285
97.3 -0.01182
97.35 -0.01155
97.4 -0.00603
97.45 0.00259
97.5 0.00793
97.55 0.01508
97.6 0.02099
97.65 0.02346
97.7 0.01941
97.75 0.01386
97.8 0.00652
97.85 -0.00143
97.9 -0.00955
97.95 -0.01635
98 -0.01595
98.05 -0.01707
98.1 -0.0151
98.15 -0.01017
98.2 -0.00681
98.25 -0.00091
98.3 0.00111
98.35 0.00277
98.4 0.00638
98.45 0.00591
98.5 0.00957
98.55 0.0073
98.6 0.0066
98.65 0.00395
98.7 0.00264
98.75 -0.00305
98.8 -0.00197
98.85 -0.00329
98.9 -0.00753
98.95 -0.00966
99 -0.0121
99.05 -0.01233
99.1 -0.0133
99.15 -0.01135
99.2 -0.01364
99.25 -0.01156
99.3 -0.00494
99.35 0.00139
99.4 0.00521
99.45 0.00551
99.5 0.00424
99.55 0.00624
99.6 0.00353
99.65 0.00235
99.7 0.00141
99.75 0.00491
99.8 0.00795
99.85 0.01118
99.9 0.01156
99.95 0.00922
