0 0
0.05 0.00651
0.1 0.01858
0.15 0.02961
0.2 0.04068
0.25 0.05051
0.3 0.06017
0.35 0.06447
0.4 0.06759
0.45 0.06415
0.5 0.06354
0.55 0.05793
0.6 0.05644
0.65 0.05926
0.7 0.06447
0.75 0.06991
0.8 0.06753
0.85 0.0624
0.9 0.06056
0.95 0.05844
1 0.05222
1.05 0.04459
1.1 0.04087
1.15 0.0408
1.2 0.04378
1.25 0.04726
1.3 0.0458
1.35 0.04708
1.4 0.0483
1.45 0.04799
1.5 0.04805
1.55 0.04484
1.6 0.04029
1.65 0.03926
1.7 0.03559
1.75 0.03742
1.8 0.04243
1.85 0.04251
1.9 0.04027
1.95 0.03529
2 0.03405
2.05 0.03546
2.1 0.03442
2.15 0.03332
2.2 0.03105
2.25 0.03258
2.3 0.0303
2.35 0.03251
2.4 0.02915
2.45 0.02634
2.5 0.02888
2.55 0.02555
2.6 0.02571
2.65 0.02195
2.7 0.01512
2.75 0.0088
2.8 0.00896
2.85 0.00829
2.9 0.00524
2.95 0.00251
3 0.00529
3.05 0.01112
3.1 0.01976
3.15 0.02746
3.2 0.03057
3.25 0.03014
3.3 0.02753
3.35 0.02222
3.4 0.01763
3.45 0.01607
3.5 0.01273
3.55 0.01029
3.6 0.00489
3.65 0.00583
3.7 0.00888
3.75 0.01209
3.8 0.01729
3.85 0.01843
3.9 0.01994
3.95 0.01931
4 0.01671
4.05 0.01628
4.1 0.01928
4.15 0.02228
4.2 0.01846
4.25 0.01481
4.3 0.00921
4.35 0.00768
4.4 0.00859
4.45 0.0045
4.5 -0.00594
4.55 -0.01685
4.6 -0.02485
4.65 -0.0337
4.7 -0.05193
4.75 -0.06883
4.8 -0.09008
4.85 -0.1148
4.9 -0.14724
4.95 -0.18366
5 -0.22588
5.05 -0.27175
5.1 -0.31681
5.15 -0.36709
5.2 -0.41974
5.25 -0.47593
5.3 -0.53588
5.35 -0.59922
5.4 -0.66822
5.45 -0.74794
5.5 -0.83376
5.55 -0.92223
5.6 -1.00671
5.65 -1.09092
5.7 -1.17273
5.75 -1.24427
5.8 -1.31398
5.85 -1.37905
5.9 -1.44091
5.95 -1.49758
6 -1.54978
6.05 -1.5902
6.1 -1.62443
6.15 -1.64845
6.2 -1.66158
6.25 -1.67201
6.3 -1.67804
6.35 -1.68077
6.4 -1.67591
6.45 -1.66215
6.5 -1.64158
6.55 -1.61194
6.6 -1.57376
6.65 -1.52635
6.7 -1.47478
6.75 -1.41724
6.8 -1.34963
6.85 -1.27772
6.9 -1.19915
6.95 -1.107
7 -1.00767
7.05 -0.90045
7.1 -0.78312
7.15 -0.65847
7.2 -0.53236
7.25 -0.40739
7.3 -0.27524
7.35 -0.14613
7.4 -0.0138
7.45 0.12074
7.5 0.25537
7.55 0.38134
7.6 0.4976
7.65 0.61009
7.7 0.71403
7.75 0.81665
7.8 0.91383
7.85 0.9968
7.9 1.06966
7.95 1.13641
8 1.20023
8.05 1.2558
8.1 1.30497
8.15 1.34346
8.2 1.37565
8.25 1.39797
8.3 1.41554
8.35 1.43014
8.4 1.44371
8.45 1.4533
8.5 1.45924
8.55 1.46138
8.6 1.46033
8.65 1.45485
8.7 1.44682
8.75 1.44226
8.8 1.43859
8.85 1.43231
8.9 1.42037
8.95 1.40905
9 1.39831
9.05 1.38182
9.1 1.36745
9.15 1.35576
9.2 1.34284
9.25 1.32724
9.3 1.31359
9.35 1.29857
9.4 1.27699
9.45 1.25096
9.5 1.22399
9.55 1.19838
9.6 1.17532
9.65 1.14692
9.7 1.11646
9.75 1.08502
9.8 1.05267
9.85 1.02804
9.9 1.00059
9.95 0.97143
10 0.94621
10.05 0.92538
10.1 0.90329
10.15 0.87885
10.2 0.85631
10.25 0.83347
10.3 0.80971
10.35 0.78589
10.4 0.75794
10.45 0.72489
10.5 0.69633
10.55 0.66748
10.6 0.64059
10.65 0.60878
10.7 0.574
10.75 0.53729
10.8 0.50198
10.85 0.46724
10.9 0.43475
10.95 0.40242
11 0.37111
11.05 0.34476
11.1 0.32549
11.15 0.30819
11.2 0.28762
11.25 0.26417
11.3 0.24473
11.35 0.22779
11.4 0.2064
11.45 0.18382
11.5 0.15706
11.55 0.13017
11.6 0.10446
11.65 0.08614
11.7 0.06963
11.75 0.05395
11.8 0.04112
11.85 0.0222
11.9 -0.00104
11.95 -0.02602
12 -0.04514
12.05 -0.05938
12.1 -0.06897
12.15 -0.07958
12.2 -0.08879
12.25 -0.09948
12.3 -0.10852
12.35 -0.12197
12.4 -0.1319
12.45 -0.13905
12.5 -0.14869
12.55 -0.16162
12.6 -0.16967
12.65 -0.17912
12.7 -0.1855
12.75 -0.18864
12.8 -0.19434
12.85 -0.20404
12.9 -0.21188
12.95 -0.21549
13 -0.21767
13.05 -0.21752
13.1 -0.21778
13.15 -0.22388
13.2 -0.23393
13.25 -0.24172
13.3 -0.24696
13.35 -0.24681
13.4 -0.24624
13.45 -0.24336
13.5 -0.24389
13.55 -0.24108
13.6 -0.23812
13.65 -0.23531
13.7 -0.23029
13.75 -0.22989
13.8 -0.23485
13.85 -0.23814
13.9 -0.2367
13.95 -0.23364
14 -0.23193
14.05 -0.23028
14.1 -0.23202
14.15 -0.22841
14.2 -0.22089
14.25 -0.21307
14.3 -0.2113
14.35 -0.20959
14.4 -0.21104
14.45 -0.20877
14.5 -0.20484
14.55 -0.19831
14.6 -0.19842
14.65 -0.19794
14.7 -0.1975
14.75 -0.19458
14.8 -0.19377
14.85 -0.19057
14.9 -0.18599
14.95 -0.18169
15 -0.18049
15.05 -0.17782
15.1 -0.17888
15.15 -0.18266
15.2 -0.18698
15.25 -0.19121
15.3 -0.19585
15.35 -0.19156
15.4 -0.18403
15.45 -0.17442
15.5 -0.16704
15.55 -0.1564
15.6 -0.1495
15.65 -0.14593
15.7 -0.13898
15.75 -0.13277
15.8 -0.12981
15.85 -0.13274
15.9 -0.13092
15.95 -0.13392
16 -0.13937
16.05 -0.13949
16.1 -0.13607
16.15 -0.1354
16.2 -0.12979
16.25 -0.12393
16.3 -0.11779
16.35 -0.11009
16.4 -0.1093
16.45 -0.10539
16.5 -0.10455
16.55 -0.10318
16.6 -0.10383
16.65 -0.10527
16.7 -0.10262
16.75 -0.10111
16.8 -0.0968
16.85 -0.09766
16.9 -0.1026
16.95 -0.10526
17 -0.10967
17.05 -0.1108
17.1 -0.11484
17.15 -0.11279
17.2 -0.10645
17.25 -0.10065
17.3 -0.09332
17.35 -0.08741
17.4 -0.08683
17.45 -0.08937
17.5 -0.09306
17.55 -0.09033
17.6 -0.08736
17.65 -0.08544
17.7 -0.08718
17.75 -0.08298
17.8 -0.0808
17.85 -0.08066
17.9 -0.08042
17.95 -0.07711
18 -0.07651
18.05 -0.07473
18.1 -0.07763
18.15 -0.08325
18.2 -0.08103
18.25 -0.07455
18.3 -0.0737
18.35 -0.06901
18.4 -0.06958
18.45 -0.07076
18.5 -0.07269
18.55 -0.07263
18.6 -0.07346
18.65 -0.06846
18.7 -0.06531
18.75 -0.06636
18.8 -0.06646
18.85 -0.0609
18.9 -0.06018
18.95 -0.06062
19 -0.06087
19.05 -0.05778
19.1 -0.05839
19.15 -0.05713
19.2 -0.05448
19.25 -0.04882
19.3 -0.04206
19.35 -0.04004
19.4 -0.03655
19.45 -0.03844
19.5 -0.04232
19.55 -0.04565
19.6 -0.04648
19.65 -0.04697
19.7 -0.0478
19.75 -0.04352
19.8 -0.0397
19.85 -0.03467
19.9 -0.02848
19.95 -0.02579
20 -0.02337
20.05 -0.02157
20.1 -0.01776
20.15 -0.01312
20.2 -0.0116
20.25 -0.01507
20.3 -0.01957
20.35 -0.02511
20.4 -0.03182
20.45 -0.03255
20.5 -0.0296
20.55 -0.02996
20.6 -0.0332
20.65 -0.03704
20.7 -0.04005
20.75 -0.04187
20.8 -0.04122
20.85 -0.03578
20.9 -0.03236
20.95 -0.02547
21 -0.02259
21.05 -0.02084
21.1 -0.02115
21.15 -0.01801
21.2 -0.01446
21.25 -0.01418
21.3 -0.01084
21.35 -0.01091
21.4 -0.00811
21.45 -0.00767
21.5 -0.00871
21.55 -0.00647
21.6 -0.00304
21.65 -0.00452
21.7 -0.00476
21.75 -0.00859
21.8 -0.00808
21.85 -0.00618
21.9 -0.00449
21.95 -0.00706
22 -0.01311
22.05 -0.01837
22.1 -0.02498
22.15 -0.02984
22.2 -0.03242
22.25 -0.03005
22.3 -0.0286
22.35 -0.02827
22.4 -0.03083
22.45 -0.02732
22.5 -0.0252
22.55 -0.02525
22.6 -0.02044
22.65 -0.02066
22.7 -0.02258
22.75 -0.02309
22.8 -0.02114
22.85 -0.01673
22.9 -0.01531
22.95 -0.01361
23 -0.00874
23.05 -0.00507
23.1 -0.00762
23.15 -0.01076
23.2 -0.01186
23.25 -0.00969
23.3 -0.01369
23.35 -0.01792
23.4 -0.02175
23.45 -0.02718
23.5 -0.02889
23.55 -0.02789
23.6 -0.02932
23.65 -0.02778
23.7 -0.02387
23.75 -0.02135
23.8 -0.01545
23.85 -0.00958
23.9 -0.00334
23.95 -0.00105
24 -0.00044
24.05 -0.00304
24.1 -0.00556
24.15 -0.01218
24.2 -0.01295
24.25 -0.01547
24.3 -0.02128
24.35 -0.02714
24.4 -0.03134
24.45 -0.03602
24.5 -0.03908
24.55 -0.03481
24.6 -0.02663
24.65 -0.02399
24.7 -0.02332
24.75 -0.02187
24.8 -0.01853
24.85 -0.01598
24.9 -0.01578
24.95 -0.01534
25 -0.01908
25.05 -0.01684
25.1 -0.01599
25.15 -0.01903
25.2 -0.02289
25.25 -0.02449
25.3 -0.02133
25.35 -0.01999
25.4 -0.01811
25.45 -0.01498
25.5 -0.01035
25.55 -0.00722
25.6 -0.00889
25.65 -0.01126
25.7 -0.01344
25.75 -0.01258
25.8 -0.01609
25.85 -0.01317
25.9 -0.01266
25.95 -0.0158
26 -0.02048
26.05 -0.02246
26.1 -0.02396
26.15 -0.01959
26.2 -0.01183
26.25 -0.00281
26.3 0.00426
26.35 0.01209
26.4 0.01464
26.45 0.01517
26.5 0.01082
26.55 0.00864
26.6 0.00481
26.65 0.00301
26.7 0.0049
26.75 0.00773
26.8 0.01168
26.85 0.01085
26.9 0.0083
26.95 0.00149
27 0.001
27.05 0.00373
27.1 0.0071
27.15 0.00952
27.2 0.00632
27.25 0.00533
27.3 0.00633
27.35 0.00179
27.4 -0.00327
27.45 -0.00314
27.5 -0.00356
27.55 -0.00311
27.6 -0.0045
27.65 -0.00259
27.7 -0.00317
27.75 -0.00292
27.8 -0.0016
27.85 -0.00669
27.9 -0.01493
27.95 -0.0225
28 -0.02776
28.05 -0.03171
28.1 -0.03524
28.15 -0.03649
28.2 -0.04415
28.25 -0.05311
28.3 -0.06486
28.35 -0.07315
28.4 -0.08822
28.45 -0.10242
28.5 -0.11342
28.55 -0.12577
28.6 -0.14693
28.65 -0.17264
28.7 -0.20218
28.75 -0.23134
28.8 -0.25773
28.85 -0.28293
28.9 -0.3106
28.95 -0.34534
29 -0.38074
29.05 -0.42374
29.1 -0.46996
29.15 -0.51199
29.2 -0.55442
29.25 -0.59889
29.3 -0.64513
29.35 -0.6893
29.4 -0.73882
29.45 -0.7903
29.5 -0.83487
29.55 -0.87586
29.6 -0.91859
29.65 -0.95734
29.7 -0.99589
29.75 -1.02945
29.8 -1.0525
29.85 -1.07234
29.9 -1.0872
29.95 -1.09185
30 -1.0826
30.05 -1.06227
30.1 -1.03714
30.15 -1.00514
30.2 -0.96341
30.25 -0.91981
30.3 -0.86642
30.35 -0.80667
30.4 -0.74278
30.45 -0.67418
30.5 -0.60085
30.55 -0.52753
30.6 -0.45077
30.65 -0.37605
30.7 -0.30412
30.75 -0.23326
30.8 -0.16115
30.85 -0.08747
30.9 -0.01555
30.95 0.06138
31 0.13398
31.05 0.20241
31.1 0.2723
31.15 0.33816
31.2 0.39781
31.25 0.45074
31.3 0.49431
31.35 0.53748
31.4 0.57638
31.45 0.61395
31.5 0.64161
31.55 0.66353
31.6 0.68009
31.65 0.69746
31.7 0.71505
31.75 0.73035
31.8 0.74168
31.85 0.74474
31.9 0.74924
31.95 0.7514
32 0.75555
32.05 0.75922
32.1 0.7595
32.15 0.75756
32.2 0.75789
32.25 0.76033
32.3 0.76373
32.35 0.76557
32.4 0.76857
32.45 0.76903
32.5 0.76692
32.55 0.76357
32.6 0.76353
32.65 0.76455
32.7 0.76139
32.75 0.75905
32.8 0.76067
32.85 0.76153
32.9 0.75678
32.95 0.7506
33 0.73947
33.05 0.73155
33.1 0.72345
33.15 0.71499
33.2 0.70557
33.25 0.69292
33.3 0.68262
33.35 0.6697
33.4 0.65143
33.45 0.6342
33.5 0.61268
33.55 0.58949
33.6 0.57059
33.65 0.55071
33.7 0.53203
33.75 0.5127
33.8 0.49008
33.85 0.46968
33.9 0.44483
33.95 0.42154
34 0.40043
34.05 0.38003
34.1 0.35879
34.15 0.34006
34.2 0.32338
34.25 0.30503
34.3 0.29018
34.35 0.27775
34.4 0.26543
34.45 0.25545
34.5 0.24291
34.55 0.22709
34.6 0.21368
34.65 0.20035
34.7 0.18449
34.75 0.16679
34.8 0.14852
34.85 0.12851
34.9 0.10628
34.95 0.08482
35 0.06668
35.05 0.05512
35.1 0.04582
35.15 0.0344
35.2 0.02178
35.25 0.01183
35.3 0.00108
35.35 -0.00419
35.4 -0.01111
35.45 -0.01676
35.5 -0.02528
35.55 -0.03527
35.6 -0.04532
35.65 -0.05638
35.7 -0.06014
35.75 -0.06637
35.8 -0.06719
35.85 -0.06809
35.9 -0.06624
35.95 -0.06304
36 -0.06349
36.05 -0.065
36.1 -0.07179
36.15 -0.07471
36.2 -0.0784
36.25 -0.08239
36.3 -0.089
36.35 -0.09874
36.4 -0.10643
36.45 -0.11112
36.5 -0.11805
36.55 -0.12642
36.6 -0.12796
36.65 -0.13003
36.7 -0.13061
36.75 -0.12737
36.8 -0.12289
36.85 -0.11879
36.9 -0.1189
36.95 -0.1184
37 -0.11856
37.05 -0.11932
37.1 -0.11698
37.15 -0.12065
37.2 -0.12048
37.25 -0.12426
37.3 -0.12963
37.35 -0.13227
37.4 -0.13845
37.45 -0.13893
37.5 -0.14219
37.55 -0.14503
37.6 -0.14728
37.65 -0.14383
37.7 -0.13857
37.75 -0.13181
37.8 -0.1315
37.85 -0.12722
37.9 -0.12664
37.95 -0.12744
38 -0.12443
38.05 -0.1211
38.1 -0.1159
38.15 -0.11317
38.2 -0.11303
38.25 -0.11101
38.3 -0.11131
38.35 -0.11151
38.4 -0.11445
38.45 -0.11123
38.5 -0.11081
38.55 -0.10727
38.6 -0.10096
38.65 -0.09658
38.7 -0.09103
38.75 -0.08781
38.8 -0.08315
38.85 -0.08049
38.9 -0.07778
38.95 -0.07701
39 -0.08087
39.05 -0.07993
39.1 -0.08133
39.15 -0.08177
39.2 -0.07811
39.25 -0.07698
39.3 -0.08001
39.35 -0.08277
39.4 -0.08557
39.45 -0.08639
39.5 -0.08647
39.55 -0.08834
39.6 -0.09027
39.65 -0.0907
39.7 -0.08568
39.75 -0.07885
39.8 -0.07299
39.85 -0.07373
39.9 -0.07027
39.95 -0.07062
40 -0.06793
40.05 -0.06964
40.1 -0.07419
40.15 -0.07593
40.2 -0.07513
40.25 -0.07704
40.3 -0.07977
40.35 -0.07694
40.4 -0.07692
40.45 -0.0776
40.5 -0.07672
40.55 -0.07771
40.6 -0.07871
40.65 -0.07607
40.7 -0.07067
40.75 -0.0644
40.8 -0.05495
40.85 -0.04938
40.9 -0.04795
40.95 -0.05182
41 -0.05009
41.05 -0.04816
41.1 -0.05068
41.15 -0.05605
41.2 -0.06028
41.25 -0.06453
41.3 -0.06428
41.35 -0.06696
41.4 -0.0638
41.45 -0.05967
41.5 -0.05463
41.55 -0.05337
41.6 -0.05185
41.65 -0.04802
41.7 -0.04874
41.75 -0.05269
41.8 -0.05452
41.85 -0.05612
41.9 -0.05315
41.95 -0.04944
42 -0.04431
42.05 -0.03797
42.1 -0.03055
42.15 -0.02288
42.2 -0.01569
42.25 -0.01461
42.3 -0.01311
42.35 -0.01564
42.4 -0.01484
42.45 -0.01396
42.5 -0.01263
42.55 -0.01772
42.6 -0.01928
42.65 -0.02331
42.7 -0.02835
42.75 -0.03311
42.8 -0.03149
42.85 -0.02627
42.9 -0.02022
42.95 -0.01249
43 -0.00915
43.05 -0.01313
43.1 -0.02012
43.15 -0.02407
43.2 -0.02882
43.25 -0.03319
43.3 -0.03122
43.35 -0.02657
43.4 -0.02633
43.45 -0.0244
43.5 -0.01944
43.55 -0.01418
43.6 -0.0103
43.65 -0.01041
43.7 -0.01502
43.75 -0.01489
43.8 -0.01797
43.85 -0.02033
43.9 -0.02002
43.95 -0.01734
44 -0.01748
44.05 -0.01825
44.1 -0.01893
44.15 -0.01993
44.2 -0.01791
44.25 -0.01314
44.3 -0.01529
44.35 -0.01975
44.4 -0.02145
44.45 -0.02498
44.5 -0.02437
44.55 -0.02556
44.6 -0.02421
44.65 -0.01913
44.7 -0.01725
44.75 -0.01963
44.8 -0.02172
44.85 -0.01807
44.9 -0.01305
44.95 -0.01067
45 -0.01299
45.05 -0.01252
45.1 -0.00831
45.15 -0.0107
45.2 -0.01045
45.25 -0.0132
45.3 -0.01212
45.35 -0.00868
45.4 -0.0096
45.45 -0.00682
45.5 -0.00405
45.55 -0.00521
45.6 -0.00983
45.65 -0.00887
45.7 -0.01095
45.75 -0.0121
45.8 -0.01585
45.85 -0.02185
45.9 -0.02605
45.95 -0.02546
46 -0.02489
46.05 -0.02331
46.1 -0.01846
46.15 -0.01147
46.2 -0.01161
46.25 -0.01015
46.3 -0.0059
46.35 -0.00251
46.4 0.00119
46.45 -0.00143
46.5 0.00031
46.55 0.00442
46.6 0.00384
46.65 0.00442
46.7 -0.00065
46.75 -0.0087
46.8 -0.0101
46.85 -0.01287
46.9 -0.01302
46.95 -0.01234
47 -0.01019
47.05 -0.00442
47.1 0.00292
47.15 0.00736
47.2 0.01151
47.25 0.00901
47.3 0.00929
47.35 0.01239
47.4 0.01454
47.45 0.01471
47.5 0.01219
47.55 0.00811
47.6 0.00669
47.65 0.0067
47.7 0.00333
47.75 -0.00409
47.8 -0.01305
47.85 -0.02014
47.9 -0.02554
47.95 -0.02475
48 -0.01911
48.05 -0.01088
48.1 -0.00719
48.15 -0.00505
48.2 -0.00688
48.25 -0.01146
48.3 -0.01263
48.35 -0.01607
48.4 -0.01375
48.45 -0.0118
48.5 -0.01233
48.55 -0.01553
48.6 -0.01669
48.65 -0.01915
48.7 -0.01721
48.75 -0.01778
48.8 -0.01309
48.85 -0.00596
48.9 -0.00306
48.95 -0.00271
49 0.00138
49.05 0.00145
49.1 -0.00174
49.15 -0.00687
49.2 -0.00862
49.25 -0.01139
49.3 -0.01111
49.35 -0.00708
49.4 -0.008
49.45 -0.01011
49.5 -0.01013
49.55 -0.00682
49.6 -0.00304
49.65 -0.0008
49.7 0.00293
49.75 0.00698
49.8 0.01132
49.85 0.0111
49.9 0.00634
49.95 0.00298
50 0.00275
50.05 0.00089
50.1 -0.00504
50.15 -0.00768
50.2 -0.01263
50.25 -0.01283
50.3 -0.014
50.35 -0.01309
50.4 -0.01217
50.45 -0.0129
50.5 -0.00954
50.55 -0.0039
50.6 0.00217
50.65 0.005
50.7 0.00998
50.75 0.00997
50.8 0.008
50.85 0.00175
50.9 0.00112
50.95 -0.00119
51 -0.00159
51.05 -0.00222
51.1 -0.00333
51.15 -0.00852
51.2 -0.01354
51.25 -0.01648
51.3 -0.01332
51.35 -0.00708
51.4 -0.00122
51.45 0.00062
51.5 0.0034
51.55 0.00114
51.6 0.00126
51.65 0.00455
51.7 0.00154
51.75 -0.005
51.8 -0.0076
51.85 -0.00634
51.9 -0.00194
51.95 0.00216
52 0.00454
52.05 0.00332
52.1 -0.00154
52.15 -0.0095
52.2 -0.01611
52.25 -0.02208
52.3 -0.02431
52.35 -0.02208
52.4 -0.01833
52.45 -0.0191
52.5 -0.02043
52.55 -0.0203
52.6 -0.01512
52.65 -0.01081
52.7 -0.00938
52.75 -0.00931
52.8 -0.00941
52.85 -0.01153
52.9 -0.01608
52.95 -0.02033
53 -0.0219
53.05 -0.02525
53.1 -0.02539
53.15 -0.02431
53.2 -0.02468
53.25 -0.02414
53.3 -0.02328
53.35 -0.01631
53.4 -0.00679
53.45 0.00215
53.5 0.00531
53.55 0.00768
53.6 0.0045
53.65 0.00212
53.7 -0.00283
53.75 -0.00872
53.8 -0.00886
53.85 -0.00966
53.9 -0.0104
53.95 -0.00743
54 -0.00582
54.05 -0.00214
54.1 -0.00353
54.15 -0.0001
54.2 0.0064
54.25 0.00824
54.3 0.00655
54.35 0.00469
54.4 -0.00033
54.45 -0.00262
54.5 -0.00441
54.55 -0.00863
54.6 -0.01106
54.65 -0.00989
54.7 -0.00409
54.75 0.00175
54.8 0.00244
54.85 0.0057
54.9 0.0083
54.95 0.01345
55 0.01279
55.05 0.0101
55.1 0.00767
55.15 0.00802
55.2 0.00554
55.25 0.00157
55.3 0.00171
55.35 0.00359
55.4 0.00129
55.45 -0.00236
55.5 -0.00472
55.55 -0.00173
55.6 0.00332
55.65 0.00429
55.7 0.00911
55.75 0.01243
55.8 0.01364
55.85 0.0089
55.9 0.00605
55.95 0.00457
56 -0.00061
56.05 -0.0049
56.1 -0.00548
56.15 -0.00162
56.2 0.00238
56.25 0.00188
56.3 0.00154
56.35 0.00225
56.4 0.00686
56.45 0.00949
56.5 0.0136
56.55 0.01453
56.6 0.01636
56.65 0.01306
56.7 0.01393
56.75 0.01029
56.8 0.00927
56.85 0.00485
56.9 -0.00154
56.95 -0.00325
57 -0.00589
57.05 -0.00861
57.1 -0.00992
57.15 -0.00602
57.2 -0.00039
57.25 0.00407
57.3 0.00567
57.35 0.01022
57.4 0.01407
57.45 0.01097
57.5 0.0051
57.55 -0.00069
57.6 -0.00686
57.65 -0.01037
57.7 -0.01034
57.75 -0.01175
57.8 -0.00742
57.85 -0.00512
57.9 -0.00299
57.95 0.00161
58 0.007
58.05 0.01289
58.1 0.01575
58.15 0.01182
58.2 0.00542
58.25 -0.00201
58.3 -0.00892
58.35 -0.00912
58.4 -0.00925
58.45 -0.00892
58.5 -0.00488
58.55 -0.00517
58.6 -0.00816
58.65 -0.01119
58.7 -0.01331
58.75 -0.01788
58.8 -0.01765
58.85 -0.01443
58.9 -0.01433
58.95 -0.01162
59 -0.01148
59.05 -0.01275
59.1 -0.01318
59.15 -0.00903
59.2 -0.00587
59.25 -0.0078
59.3 -0.00995
59.35 -0.00794
59.4 -0.00571
59.45 0.00034
59.5 0.00265
59.55 0.00791
59.6 0.00618
59.65 0.00091
59.7 0.00032
59.75 0.00131
59.8 -0.00152
59.85 0.0003
59.9 -0.00309
59.95 -0.00302
60 -0.0059
60.05 -0.00282
60.1 -0.00086
60.15 0.00199
60.2 0.00401
60.25 0.00105
60.3 -0.00362
60.35 -0.00428
60.4 -0.00024
60.45 0.00059
60.5 -0.00037
60.55 0.00163
60.6 0.00443
60.65 0.00721
60.7 0.00545
60.75 0.00106
60.8 -0.00031
60.85 0.0015
60.9 0.00706
60.95 0.01107
61 0.01202
61.05 0.01356
61.1 0.0143
61.15 0.01465
61.2 0.01326
61.25 0.00672
61.3 0.00652
61.35 0.00278
61.4 -0.00182
61.45 -0.00746
61.5 -0.01253
61.55 -0.01625
61.6 -0.02029
61.65 -0.02435
61.7 -0.02349
61.75 -0.0235
61.8 -0.02112
61.85 -0.01601
61.9 -0.00688
61.95 -0.00199
62 -0.0022
62.05 0.00256
62.1 0.00568
62.15 0.01047
62.2 0.01002
62.25 0.00569
62.3 0.0003
62.35 -0.00765
62.4 -0.00766
62.45 -0.01118
62.5 -0.00946
62.55 -0.00488
62.6 0.00038
62.65 0.0039
62.7 0.00188
62.75 -0.00137
62.8 0.00137
62.85 0.00017
62.9 -0.00006
62.95 -0.00037
63 0.00187
63.05 0.00129
63.1 0.00271
63.15 0.0045
63.2 0.0025
63.25 0.00193
63.3 -0.0027
63.35 -0.00193
63.4 -0.00455
63.45 -0.00434
63.5 -0.0075
63.55 -0.00954
63.6 -0.01359
63.65 -0.01847
63.7 -0.02241
63.75 -0.02319
63.8 -0.02216
63.85 -0.01765
63.9 -0.00944
63.95 -0.004
64 -0.00125
64.05 0.00092
64.1 0.00304
64.15 0.00202
64.2 0.00091
64.25 0.00419
64.3 0.00516
64.35 0.00688
64.4 0.00621
64.45 0.00895
64.5 0.01443
64.55 0.01512
64.6 0.01345
64.65 0.01589
64.7 0.01683
64.75 0.02052
64.8 0.0205
64.85 0.01793
64.9 0.0172
64.95 0.01485
65 0.0163
65.05 0.01464
65.1 0.01479
65.15 0.01678
65.2 0.01708
65.25 0.01416
65.3 0.01114
65.35 0.01272
65.4 0.01229
65.45 0.01085
65.5 0.00971
65.55 0.0047
65.6 0.00026
65.65 -0.0029
65.7 -0.00448
65.75 -0.00448
65.8 -0.00636
65.85 -0.00856
65.9 -0.01154
65.95 -0.01138
66 -0.01265
66.05 -0.01686
66.1 -0.02191
66.15 -0.02005
66.2 -0.01543
66.25 -0.00869
66.3 -0.00498
66.35 -0.00426
66.4 -0.00794
66.45 -0.01217
66.5 -0.01053
66.55 -0.00448
66.6 -0.00233
66.65 0.00343
66.7 0.00932
66.75 0.01213
66.8 0.01384
66.85 0.01128
66.9 0.01288
66.95 0.01296
67 0.01089
67.05 0.0104
67.1 0.00652
67.15 0.00767
67.2 0.00604
67.25 0.00372
67.3 0.00506
67.35 0.00778
67.4 0.00448
67.45 0.00267
67.5 0.00434
67.55 0.00722
67.6 0.01097
67.65 0.0135
67.7 0.01631
67.75 0.01393
67.8 0.01297
67.85 0.0072
67.9 0.00207
67.95 0.00162
68 0.00327
68.05 0.00144
68.1 -0.00174
68.15 -0.00098
68.2 -0.00104
68.25 -0.00437
68.3 -0.00627
68.35 -0.01152
68.4 -0.0109
68.45 -0.01189
68.5 -0.00931
68.55 -0.01022
68.6 -0.00745
68.65 -0.00931
68.7 -0.01157
68.75 -0.01456
68.8 -0.01871
68.85 -0.01881
68.9 -0.01405
68.95 -0.01311
69 -0.00942
69.05 -0.00873
69.1 -0.00924
69.15 -0.00952
69.2 -0.0054
69.25 -0.00558
69.3 -0.00545
69.35 -0.0061
69.4 -0.00791
69.45 -0.00705
69.5 -0.00212
69.55 0.00257
69.6 0.00894
69.65 0.01303
69.7 0.01106
69.75 0.01077
69.8 0.00888
69.85 0.00921
69.9 0.00626
69.95 -0.00003
70 -0.00349
70.05 -0.00146
70.1 -0.00247
70.15 -0.00287
70.2 -0.00141
70.25 -0.00334
70.3 -0.00266
70.35 0.00238
70.4 0.00408
70.45 0.00138
70.5 0.00376
70.55 0.00878
70.6 0.01215
70.65 0.01562
70.7 0.02015
70.75 0.02345
70.8 0.02092
70.85 0.01639
70.9 0.01178
70.95 0.00491
71 0.0012
71.05 -0.00452
71.1 -0.00399
71.15 0.00024
71.2 0.00119
71.25 0.00486
71.3 0.0071
71.35 0.00649
71.4 0.00475
71.45 0.00637
71.5 0.00774
71.55 0.00739
71.6 0.00305
71.65 -0.00425
71.7 -0.00911
71.75 -0.01303
71.8 -0.01406
71.85 -0.01187
71.9 -0.01285
71.95 -0.00972
72 -0.0053
72.05 -0.00579
72.1 -0.00576
72.15 -0.00586
72.2 -0.00314
72.25 -0.00148
72.3 0.00291
72.35 0.0044
72.4 0.00389
72.45 0.00298
72.5 -0.00169
72.55 -0.00072
72.6 0.00431
72.65 0.00577
72.7 0.00238
72.75 0.00286
72.8 -0.00102
72.85 -0.00753
72.9 -0.00782
72.95 -0.00421
73 -0.00381
73.05 0.00006
73.1 0.00155
73.15 0.00509
73.2 0.01043
73.25 0.01435
73.3 0.01201
73.35 0.01139
73.4 0.01401
73.45 0.01801
73.5 0.02151
73.55 0.02163
73.6 0.01542
73.65 0.00708
73.7 -0.00299
73.75 -0.01149
73.8 -0.01436
73.85 -0.01948
73.9 -0.01691
73.95 -0.0099
74 -0.00856
74.05 -0.00973
74.1 -0.01211
74.15 -0.0112
74.2 -0.00849
74.25 -0.01007
74.3 -0.01311
74.35 -0.01303
74.4 -0.00881
74.45 -0.00388
74.5 -0.00451
74.55 -0.00089
74.6 0.00077
74.65 0.0003
74.7 0.00037
74.75 -0.00056
74.8 0.00224
74.85 0.00568
74.9 0.01011
74.95 0.00802
75 0.00862
75.05 0.00858
75.1 0.00359
75.15 0.00037
75.2 0.00162
75.25 -0.00027
75.3 0.00286
75.35 0.00028
75.4 -0.00336
75.45 -0.00993
75.5 -0.01657
75.55 -0.02227
75.6 -0.0208
75.65 -0.0176
75.7 -0.01646
75.75 -0.01557
75.8 -0.01605
75.85 -0.01257
75.9 -0.01305
75.95 -0.0096
76 -0.00292
76.05 0.00574
76.1 0.00761
76.15 0.00966
76.2 0.01236
76.25 0.01163
76.3 0.00922
76.35 0.00499
76.4 -0.00089
76.45 -0.00626
76.5 -0.011
76.55 -0.00989
76.6 -0.00851
76.65 -0.00294
76.7 0.00102
76.75 -0.00053
76.8 -0.00026
76.85 -0.00161
76.9 0.00148
76.95 0.00691
77 0.00542
77.05 0.00688
77.1 0.00561
77.15 0.0087
77.2 0.01233
77.25 0.01268
77.3 0.01482
77.35 0.01821
77.4 0.01611
77.45 0.00967
77.5 0.00898
77.55 0.00886
77.6 0.00615
77.65 0.00438
77.7 0.00117
77.75 -0.00045
77.8 -0.00512
77.85 -0.00453
77.9 -0.00658
77.95 -0.007
78 -0.00666
78.05 -0.0089
78.1 -0.01108
78.15 -0.01539
78.2 -0.01296
78.25 -0.01342
78.3 -0.0118
78.35 -0.0145
78.4 -0.01411
78.45 -0.00834
78.5 -0.00877
78.55 -0.0049
78.6 -0.00353
78.65 -0.00064
78.7 0.00181
78.75 -0.00133
78.8 -0.00191
78.85 -0.00067
78.9 -0.00038
78.95 -0.00272
79 -0.00366
79.05 -0.00787
79.1 -0.00763
79.15 -0.0112
79.2 -0.01378
79.25 -0.01439
79.3 -0.01179
79.35 -0.0082
79.4 -0.00303
79.45 0.00138
79.5 -0.00064
79.55 0.00214
79.6 0.00532
79.65 0.00471
79.7 0.00443
79.75 0.00491
79.8 0.00882
79.85 0.01393
79.9 0.01746
79.95 0.01751
80 0.0199
80.05 0.02026
80.1 0.01404
80.15 0.01257
80.2 0.00919
80.25 0.00429
80.3 0.00046
80.35 -0.00439
80.4 -0.00862
80.45 -0.01074
80.5 -0.00818
80.55 -0.00641
80.6 -0.00281
80.65 -0.00471
80.7 -0.0026
80.75 -0.0016
80.8 -0.00462
80.85 -0.01096
80.9 -0.01849
80.95 -0.02096
81 -0.02378
81.05 -0.01901
81.1 -0.01548
81.15 -0.01084
81.2 -0.00545
81.25 -0.00068
81.3 0.00214
81.35 -0.00062
81.4 0.0005
81.45 0.00357
81.5 0.00398
81.55 0.00157
81.6 0.00287
81.65 0.00011
81.7 0.00143
81.75 0.00429
81.8 0.00902
81.85 0.00864
81.9 0.01103
81.95 0.00915
82 0.00614
82.05 0.00761
82.1 0.01075
82.15 0.00954
82.2 0.00423
82.25 -0.00226
82.3 -0.01074
82.35 -0.01787
82.4 -0.02242
82.45 -0.0271
82.5 -0.03223
82.55 -0.03738
82.6 -0.04068
82.65 -0.03932
82.7 -0.03929
82.75 -0.03648
82.8 -0.0273
82.85 -0.01837
82.9 -0.01422
82.95 -0.01076
83 -0.00967
83.05 -0.00364
83.1 -0.00175
83.15 -0.00376
83.2 -0.0072
83.25 -0.00987
83.3 -0.01296
83.35 -0.01572
83.4 -0.017
83.45 -0.01274
83.5 -0.00774
83.55 -0.00054
83.6 0.00669
83.65 0.01147
83.7 0.01191
83.75 0.00919
83.8 0.00537
83.85 0.00179
83.9 0.00203
83.95 -0.00169
84 -0.00112
84.05 -0.00357
84.1 -0.00436
84.15 -0.00108
84.2 -0.00141
84.25 0.00352
84.3 0.00279
84.35 -0.00196
84.4 -0.0017
84.45 -0.00335
84.5 -0.00193
84.55 -0.00511
84.6 -0.0063
84.65 -0.00932
84.7 -0.0108
84.75 -0.01056
84.8 -0.01026
84.85 -0.00756
84.9 -0.00229
84.95 -0.0022
85 0.00031
85.05 0.00262
85.1 0.00632
85.15 0.00517
85.2 0.00837
85.25 0.01079
85.3 0.01234
85.35 0.00984
85.4 0.00319
85.45 0.00209
85.5 0.00129
85.55 0.00417
85.6 0.0043
85.65 0.00511
85.7 0.00199
85.75 0.00235
85.8 0.00515
85.85 0.00823
85.9 0.01317
85.95 0.01618
86 0.01317
86.05 0.0069
86.1 0.0004
86.15 -0.0074
86.2 -0.00998
86.25 -0.01266
86.3 -0.00941
86.35 -0.00958
86.4 -0.01196
86.45 -0.00976
86.5 -0.01074
86.55 -0.01178
86.6 -0.01051
86.65 -0.00408
86.7 0.0045
86.75 0.01301
86.8 0.0167
86.85 0.01513
86.9 0.01694
86.95 0.01953
87 0.02329
87.05 0.02396
87.1 0.02188
87.15 0.01982
87.2 0.02102
87.25 0.01668
87.3 0.0094
87.35 0.00436
87.4 0.0015
87.45 0.00292
87.5 -0.00099
87.55 -0.0028
87.6 -0.00595
87.65 -0.00345
87.7 -0.00445
87.75 -0.00606
87.8 -0.00807
87.85 -0.01151
87.9 -0.01125
87.95 -0.00774
88 -0.00017
88.05 0.00479
88.1 0.00762
88.15 0.0102
88.2 0.01146
88.25 0.01434
88.3 0.01092
88.35 0.00784
88.4 0.00171
88.45 -0.00665
88.5 -0.01296
88.55 -0.01731
88.6 -0.01462
88.65 -0.01149
88.7 -0.00785
88.75 -0.00165
88.8 0.00108
88.85 -0.00068
88.9 -0.0001
88.95 0.00338
89 0.00167
89.05 0.00042
89.1 0.00104
89.15 0.00454
89.2 0.00618
89.25 0.01001
89.3 0.01068
89.35 0.00886
89.4 0.00706
89.45 0.00881
89.5 0.00797
89.55 0.00905
89.6 0.01092
89.65 0.01255
89.7 0.01139
89.75 0.01029
89.8 0.0063
89.85 0.0039
89.9 -0.00108
89.95 -0.00551
90 -0.00921
90.05 -0.00673
90.1 -0.0036
90.15 -0.00557
90.2 -0.00263
90.25 0.00202
90.3 0.00691
90.35 0.00484
90.4 0.00126
90.45 -0.00497
90.5 -0.00555
90.55 -0.00134
90.6 0.00094
90.65 0.00181
90.7 0.00628
90.75 0.00398
90.8 -0.00114
90.85 -0.00017
90.9 -0.00326
90.95 -0.0076
91 -0.00818
91.05 -0.00621
91.1 -0.00729
91.15 -0.00703
91.2 -0.00996
91.25 -0.01399
91.3 -0.01515
91.35 -0.01888
91.4 -0.01717
91.45 -0.01249
91.5 -0.00834
91.55 -0.00692
91.6 -0.00208
91.65 -0.00267
91.7 -0.00147
91.75 -0.00271
91.8 -0.00663
91.85 -0.00392
91.9 -0.00505
91.95 -0.00684
92 -0.00306
92.05 0.00075
92.1 0.00341
92.15 0.00162
92.2 -0.00056
92.25 -0.00267
92.3 -0.00027
92.35 0.00611
92.4 0.01117
92.45 0.0163
92.5 0.02046
92.55 0.02318
92.6 0.02005
92.65 0.02045
92.7 0.02218
92.75 0.02494
92.8 0.02048
92.85 0.01849
92.9 0.01253
92.95 0.00485
93 -0.00196
93.05 -0.01002
93.1 -0.00997
93.15 -0.00501
93.2 -0.00557
93.25 -0.00866
93.3 -0.00644
93.35 -0.00812
93.4 -0.00938
93.45 -0.00693
93.5 -0.00878
93.55 -0.00716
93.6 -0.00579
93.65 -0.00535
93.7 -0.00717
93.75 -0.00318
93.8 0.0008
93.85 0.00562
93.9 0.00503
93.95 0.00766
94 0.00627
94.05 0.00386
94.1 -0.00226
94.15 -0.00801
94.2 -0.00726
94.25 -0.00426
94.3 0.00154
94.35 0.00504
94.4 0.00977
94.45 0.0125
94.5 0.01364
94.55 0.01302
94.6 0.01002
94.65 0.00721
94.7 0.00717
94.75 0.00473
94.8 0.00618
94.85 0.00207
94.9 -0.00307
94.95 -0.00676
95 -0.0099
95.05 -0.01412
95.1 -0.01274
95.15 -0.01371
95.2 -0.01759
95.25 -0.01676
95.3 -0.01847
95.35 -0.02206
95.4 -0.02302
95.45 -0.01743
95.5 -0.01072
95.55 -0.00179
95.6 0.00243
95.65 0.0035
95.7 0.00491
95.75 0.00889
95.8 0.00649
95.85 0.00853
95.9 0.00783
95.95 0.00219
96 -0.00178
96.05 -0.00862
96.1 -0.01118
96.15 -0.00846
96.2 -0.00703
96.25 -0.00419
96.3 -0.00455
96.35 -0.00584
96.4 -0.00774
96.45 -0.00925
96.5 -0.0126
96.55 -0.01075
96.6 -0.00523
96.65 -0.00246
96.7 0.00295
96.75 0.00415
96.8 0.00826
96.85 0.01318
96.9 0.01411
96.95 0.01725
97 0.01713
97.05 0.01991
97.1 0.02303
97.15 0.02714
97.2 0.03091
97.25 0.02813
97.3 0.02305
97.35 0.01633
97.4 0.00891
97.45 0.00512
97.5 0.00287
97.55 -0.00315
97.6 -0.00418
97.65 -0.00707
97.7 -0.00433
97.75 -0.00306
97.8 0.00067
97.85 -0.00023
97.9 -0.0054
97.95 -0.00467
98 -0.00159
98.05 0.00385
98.1 0.00836
98.15 0.01428
98.2 0.01917
98.25 0.02018
98.3 0.0175
98.35 0.01693
98.4 0.01755
98.45 0.02084
98.5 0.02417
98.55 0.02016
98.6 0.01624
98.65 0.01665
98.7 0.01371
98.75 0.01476
98.8 0.01084
98.85 0.00537
98.9 0.00417
98.95 0.00403
99 0.00128
99.05 0.00168
99.1 -0.00125
99.15 -0.00171
99.2 -0.00508
99.25 -0.00789
99.3 -0.01307
99.35 -0.01838
99.4 -0.02213
99.45 -0.02618
99.5 -0.02684
99.55 -0.02951
99.6 -0.03222
99.65 -0.03285
99.7 -0.03314
99.75 -0.03278
99.8 -0.03447
99.85 -0.02891
99.9 -0.0201
99.95 -0.00845
