0 0
0.05 0.00356
0.1 0.01068
0.15 0.01433
0.2 0.01715
0.25 0.02488
0.3 0.03268
0.35 0.04312
0.4 0.05398
0.45 0.05686
0.5 0.06269
0.55 0.0654
0.6 0.0618
0.65 0.05476
0.7 0.04644
0.75 0.04553
0.8 0.04354
0.85 0.04534
0.9 0.04812
0.95 0.04503
1 0.04012
1.05 0.03663
1.1 0.03626
1.15 0.03912
1.2 0.04223
1.25 0.04066
1.3 0.04128
1.35 0.0394
1.4 0.03813
1.45 0.04045
1.5 0.0398
1.55 0.04197
1.6 0.04071
1.65 0.04009
1.7 0.04203
1.75 0.04406
1.8 0.04591
1.85 0.04246
1.9 0.04109
1.95 0.04053
2 0.03596
2.05 0.03255
2.1 0.03416
2.15 0.03028
2.2 0.029
2.25 0.03144
2.3 0.03547
2.35 0.03426
2.4 0.03248
2.45 0.03148
2.5 0.03407
2.55 0.0387
2.6 0.03648
2.65 0.03805
2.7 0.03728
2.75 0.03781
2.8 0.03622
2.85 0.03078
2.9 0.0283
2.95 0.02174
3 0.02173
3.05 0.01922
3.1 0.0157
3.15 0.01043
3.2 0.00687
3.25 0.00304
3.3 -0.00072
3.35 -0.00272
3.4 0.00157
3.45 0.00134
3.5 0.00401
3.55 0.00507
3.6 0.00598
3.65 0.00972
3.7 0.01652
3.75 0.02204
3.8 0.02687
3.85 0.0265
3.9 0.02697
3.95 0.02592
4 0.02767
4.05 0.02629
4.1 0.02767
4.15 0.02243
4.2 0.02147
4.25 0.01905
4.3 0.01395
4.35 0.00991
4.4 0.00432
4.45 -0.00488
4.5 -0.01348
4.55 -0.02339
4.6 -0.03362
4.65 -0.0388
4.7 -0.04541
4.75 -0.0532
4.8 -0.06088
4.85 -0.07675
4.9 -0.09275
4.95 -0.11274
5 -0.13559
5.05 -0.15992
5.1 -0.18718
5.15 -0.21695
5.2 -0.24777
5.25 -0.27944
5.3 -0.31955
5.35 -0.36114
5.4 -0.3999
5.45 -0.44412
5.5 -0.48678
5.55 -0.52548
5.6 -0.55918
5.65 -0.58528
5.7 -0.60563
5.75 -0.62153
5.8 -0.63014
5.85 -0.62989
5.9 -0.62508
5.95 -0.61276
6 -0.59303
6.05 -0.56541
6.1 -0.52827
6.15 -0.48779
6.2 -0.43916
6.25 -0.3856
6.3 -0.32642
6.35 -0.26885
6.4 -0.20975
6.45 -0.15588
6.5 -0.1
6.55 -0.04445
6.6 0.01161
6.65 0.06586
6.7 0.11358
6.75 0.15756
6.8 0.19724
6.85 0.23286
6.9 0.26616
6.95 0.29379
7 0.3185
7.05 0.34348
7.1 0.36399
7.15 0.38522
7.2 0.40391
7.25 0.41767
7.3 0.42484
7.35 0.43206
7.4 0.43871
7.45 0.4449
7.5 0.45366
7.55 0.46255
7.6 0.46286
7.65 0.46359
7.7 0.45892
7.75 0.45084
7.8 0.44548
7.85 0.44058
7.9 0.44008
7.95 0.44232
8 0.44706
8.05 0.44422
8.1 0.44256
8.15 0.43477
8.2 0.425
8.25 0.41208
8.3 0.40281
8.35 0.39663
8.4 0.38532
8.45 0.37455
8.5 0.36349
8.55 0.35451
8.6 0.34989
8.65 0.34041
8.7 0.32945
8.75 0.31788
8.8 0.30389
8.85 0.29114
8.9 0.27704
8.95 0.26162
9 0.24507
9.05 0.23224
9.1 0.21673
9.15 0.19735
9.2 0.18216
9.25 0.17232
9.3 0.15859
9.35 0.14673
9.4 0.13268
9.45 0.1192
9.5 0.10725
9.55 0.09218
9.6 0.07727
9.65 0.06539
9.7 0.05814
9.75 0.04887
9.8 0.0427
9.85 0.03997
9.9 0.03879
9.95 0.03674
10 0.03471
10.05 0.0321
10.1 0.0244
10.15 0.01955
10.2 0.01447
10.25 0.00552
10.3 -0.00149
10.35 -0.00804
10.4 -0.01506
10.45 -0.02234
10.5 -0.02588
10.55 -0.03162
10.6 -0.03982
10.65 -0.04234
10.7 -0.04646
10.75 -0.04648
10.8 -0.04193
10.85 -0.04393
10.9 -0.0468
10.95 -0.04549
11 -0.04457
11.05 -0.04215
11.1 -0.04365
11.15 -0.04611
11.2 -0.05125
11.25 -0.05083
11.3 -0.04963
11.35 -0.04562
11.4 -0.04204
11.45 -0.03985
11.5 -0.04297
11.55 -0.04853
11.6 -0.05388
11.65 -0.05832
11.7 -0.06565
11.75 -0.06925
11.8 -0.06956
11.85 -0.06599
11.9 -0.0638
11.95 -0.05762
12 -0.05372
12.05 -0.04778
12.1 -0.0454
12.15 -0.04696
12.2 -0.05324
12.25 -0.05919
12.3 -0.06
12.35 -0.05709
12.4 -0.05828
12.45 -0.05514
12.5 -0.05559
12.55 -0.05361
12.6 -0.05437
12.65 -0.05158
12.7 -0.05256
12.75 -0.05159
12.8 -0.05528
12.85 -0.05799
12.9 -0.05428
12.95 -0.04755
13 -0.03973
13.05 -0.0368
13.1 -0.03368
13.15 -0.02821
13.2 -0.02535
13.25 -0.02179
13.3 -0.02271
13.35 -0.02058
13.4 -0.0191
13.45 -0.01912
13.5 -0.01728
13.55 -0.02188
13.6 -0.02873
13.65 -0.0362
13.7 -0.04054
13.75 -0.03946
13.8 -0.03926
13.85 -0.03923
13.9 -0.03834
13.95 -0.03473
14 -0.03053
14.05 -0.0313
14.1 -0.03139
14.15 -0.0287
14.2 -0.02461
14.25 -0.02096
14.3 -0.01964
14.35 -0.01935
14.4 -0.0231
14.45 -0.03069
14.5 -0.03172
14.55 -0.02923
14.6 -0.02565
14.65 -0.02231
14.7 -0.01706
14.75 -0.0109
14.8 -0.0077
14.85 -0.00683
14.9 -0.00892
14.95 -0.01269
15 -0.01823
15.05 -0.02353
15.1 -0.02613
15.15 -0.02528
15.2 -0.02051
15.25 -0.01598
15.3 -0.01038
15.35 -0.00473
15.4 -0.0057
15.45 -0.00692
15.5 -0.01269
15.55 -0.01462
15.6 -0.01297
15.65 -0.01078
15.7 -0.01517
15.75 -0.01852
15.8 -0.02411
15.85 -0.0256
15.9 -0.02997
15.95 -0.03072
16 -0.03302
16.05 -0.03118
16.1 -0.03316
16.15 -0.03494
16.2 -0.03499
16.25 -0.02996
16.3 -0.02957
16.35 -0.02866
16.4 -0.0252
16.45 -0.02455
16.5 -0.02268
16.55 -0.0224
16.6 -0.02158
16.65 -0.0248
16.7 -0.02775
16.75 -0.03028
16.8 -0.0301
16.85 -0.02754
16.9 -0.02266
16.95 -0.02128
17 -0.02442
17.05 -0.02351
17.1 -0.01871
17.15 -0.01384
17.2 -0.01143
17.25 -0.01416
17.3 -0.01279
17.35 -0.01199
17.4 -0.01235
17.45 -0.01066
17.5 -0.00693
17.55 -0.00865
17.6 -0.00774
17.65 -0.00741
17.7 -0.00348
17.75 -0.00281
17.8 -0.00131
17.85 0.00245
17.9 0.00685
17.95 0.004
18 0.00189
18.05 -0.00008
18.1 -0.0067
18.15 -0.01018
18.2 -0.01472
18.25 -0.02033
18.3 -0.02119
18.35 -0.01808
18.4 -0.01111
18.45 -0.00253
18.5 0.00585
18.55 0.00796
18.6 0.00981
18.65 0.01318
18.7 0.01038
18.75 0.00525
18.8 0.00027
18.85 -0.00292
18.9 -0.00657
18.95 -0.00903
19 -0.0128
19.05 -0.01696
19.1 -0.0176
19.15 -0.01378
19.2 -0.00809
19.25 -0.0067
19.3 -0.00696
19.35 -0.00383
19.4 -0.00468
19.45 -0.00958
19.5 -0.01132
19.55 -0.01599
19.6 -0.0151
19.65 -0.01863
19.7 -0.02134
19.75 -0.01966
19.8 -0.01865
19.85 -0.021
19.9 -0.02252
19.95 -0.0267
20 -0.0295
20.05 -0.03258
20.1 -0.03005
20.15 -0.02346
20.2 -0.02164
20.25 -0.02021
20.3 -0.01645
20.35 -0.01242
20.4 -0.01359
20.45 -0.01222
20.5 -0.01043
20.55 -0.00793
20.6 -0.00881
20.65 -0.00853
20.7 -0.00661
20.75 -0.00643
20.8 -0.00519
20.85 -0.00167
20.9 0.00024
20.95 0.00216
21 0.00387
21.05 -0.00018
21.1 0.00048
21.15 -0.00074
21.2 0.00258
21.25 0.00441
21.3 0.00937
21.35 0.01336
21.4 0.01369
21.45 0.00859
21.5 0.00095
21.55 -0.00455
21.6 -0.00407
21.65 -0.00483
21.7 -0.00317
21.75 -0.00173
21.8 -0.00166
21.85 -0.00384
21.9 -0.00261
21.95 0.00069
22 0.0016
22.05 -0.0013
22.1 -0.00576
22.15 -0.01182
22.2 -0.0156
22.25 -0.01335
22.3 -0.01084
22.35 -0.00557
22.4 -0.00588
22.45 -0.00829
22.5 -0.01014
22.55 -0.01323
22.6 -0.01582
22.65 -0.0199
22.7 -0.0254
22.75 -0.0275
22.8 -0.02652
22.85 -0.02832
22.9 -0.02867
22.95 -0.02364
23 -0.02082
23.05 -0.02185
23.1 -0.02059
23.15 -0.0149
23.2 -0.0142
23.25 -0.00851
23.3 0.00025
23.35 0.00991
23.4 0.01956
23.45 0.02142
23.5 0.02217
23.55 0.01808
23.6 0.00989
23.65 0.00057
23.7 -0.00304
23.75 -0.00399
23.8 -0.00386
23.85 -0.00585
23.9 -0.011
23.95 -0.01191
24 -0.01334
24.05 -0.0143
24.1 -0.00933
24.15 -0.00346
24.2 0.00366
24.25 0.00835
24.3 0.00682
24.35 0.00557
24.4 0.00434
24.45 -0.0005
24.5 -0.00372
24.55 -0.00184
24.6 -0.00284
24.65 0.00041
24.7 0.00222
24.75 0.0025
24.8 0.00073
24.85 0.00245
24.9 0.00103
24.95 -0.00315
25 -0.00965
25.05 -0.0111
25.1 -0.01487
25.15 -0.01837
25.2 -0.01932
25.25 -0.01424
25.3 -0.00768
25.35 -0.00407
25.4 -0.0055
25.45 -0.00755
25.5 -0.01129
25.55 -0.01407
25.6 -0.01379
25.65 -0.01015
25.7 -0.00264
25.75 0.00665
25.8 0.01062
25.85 0.01169
25.9 0.00986
25.95 0.00761
26 0.00151
26.05 -0.00379
26.1 -0.00219
26.15 0.00123
26.2 0.00384
26.25 0.00152
26.3 0.00026
26.35 -0.00448
26.4 -0.00347
26.45 -0.00028
26.5 -0.00175
26.55 -0.00453
26.6 -0.00275
26.65 -0.00535
26.7 -0.01093
26.75 -0.01633
26.8 -0.0175
26.85 -0.0202
26.9 -0.01824
26.95 -0.01494
27 -0.01287
27.05 -0.01199
27.1 -0.00675
27.15 -0.00717
27.2 -0.01
27.25 -0.01392
27.3 -0.02018
27.35 -0.0221
27.4 -0.02591
27.45 -0.03008
27.5 -0.03507
27.55 -0.03372
27.6 -0.03514
27.65 -0.03653
27.7 -0.04279
27.75 -0.04673
27.8 -0.05095
27.85 -0.05856
27.9 -0.06515
27.95 -0.07894
28 -0.09448
28.05 -0.11571
28.1 -0.14078
28.15 -0.16468
28.2 -0.19554
28.25 -0.2299
28.3 -0.26285
28.35 -0.30508
28.4 -0.353
28.45 -0.40547
28.5 -0.45766
28.55 -0.51482
28.6 -0.57323
28.65 -0.6355
28.7 -0.70919
28.75 -0.78997
28.8 -0.87794
28.85 -0.9642
28.9 -1.0514
28.95 -1.14372
29 -1.24074
29.05 -1.33609
29.1 -1.43038
29.15 -1.52637
29.2 -1.61806
29.25 -1.70661
29.3 -1.78503
29.35 -1.85519
29.4 -1.92417
29.45 -1.98417
29.5 -2.04141
29.55 -2.0918
29.6 -2.1306
29.65 -2.16067
29.7 -2.1761
29.75 -2.1778
29.8 -2.16523
29.85 -2.1359
29.9 -2.09314
29.95 -2.03942
30 -1.98212
30.05 -1.91368
30.1 -1.84057
30.15 -1.75722
30.2 -1.65991
30.25 -1.55025
30.3 -1.43398
30.35 -1.30896
30.4 -1.18344
30.45 -1.05079
30.5 -0.91344
30.55 -0.77282
30.6 -0.6323
30.65 -0.49617
30.7 -0.35466
30.75 -0.21631
30.8 -0.07805
30.85 0.0631
30.9 0.19814
30.95 0.33296
31 0.46639
31.05 0.59343
31.1 0.71266
31.15 0.82748
31.2 0.93151
31.25 1.03356
31.3 1.12493
31.35 1.20709
31.4 1.28043
31.45 1.35419
31.5 1.42171
31.55 1.48502
31.6 1.54078
31.65 1.59475
31.7 1.64441
31.75 1.68909
31.8 1.72354
31.85 1.75206
31.9 1.7756
31.95 1.79196
32 1.80577
32.05 1.81893
32.1 1.82913
32.15 1.83718
32.2 1.84382
32.25 1.84566
32.3 1.84574
32.35 1.8464
32.4 1.84242
32.45 1.83581
32.5 1.82429
32.55 1.81107
32.6 1.7947
32.65 1.77783
32.7 1.76278
32.75 1.74464
32.8 1.72599
32.85 1.70486
32.9 1.68517
32.95 1.66856
33 1.65249
33.05 1.6317
33.1 1.60981
33.15 1.5847
33.2 1.55394
33.25 1.52047
33.3 1.48244
33.35 1.43927
33.4 1.39871
33.45 1.35447
33.5 1.30967
33.55 1.26911
33.6 1.22479
33.65 1.18162
33.7 1.13823
33.75 1.09718
33.8 1.05309
33.85 1.00966
33.9 0.96793
33.95 0.92398
34 0.88241
34.05 0.84103
34.1 0.80246
34.15 0.76299
34.2 0.72436
34.25 0.68688
34.3 0.64934
34.35 0.60929
34.4 0.5656
34.45 0.52539
34.5 0.48921
34.55 0.44944
34.6 0.41197
34.65 0.3718
34.7 0.32992
34.75 0.29634
34.8 0.26013
34.85 0.2268
34.9 0.19526
34.95 0.16267
35 0.13403
35.05 0.10594
35.1 0.08211
35.15 0.05711
35.2 0.0293
35.25 0.00107
35.3 -0.02432
35.35 -0.04454
35.4 -0.06177
35.45 -0.07678
35.5 -0.08867
35.55 -0.09761
35.6 -0.1114
35.65 -0.12632
35.7 -0.14398
35.75 -0.16242
35.8 -0.18039
35.85 -0.19703
35.9 -0.20699
35.95 -0.2172
36 -0.22849
36.05 -0.24309
36.1 -0.25365
36.15 -0.26241
36.2 -0.27349
36.25 -0.27971
36.3 -0.28829
36.35 -0.29487
36.4 -0.29853
36.45 -0.30148
36.5 -0.30445
36.55 -0.30445
36.6 -0.30438
36.65 -0.30362
36.7 -0.30711
36.75 -0.30867
36.8 -0.30821
36.85 -0.31213
36.9 -0.31769
36.95 -0.32154
37 -0.32556
37.05 -0.32817
37.1 -0.33163
37.15 -0.33583
37.2 -0.33373
37.25 -0.3321
37.3 -0.32459
37.35 -0.31938
37.4 -0.31324
37.45 -0.30626
37.5 -0.29756
37.55 -0.29384
37.6 -0.29077
37.65 -0.29157
37.7 -0.28887
37.75 -0.28832
37.8 -0.28693
37.85 -0.28162
37.9 -0.27763
37.95 -0.27449
38 -0.27136
38.05 -0.26939
38.1 -0.26626
38.15 -0.26223
38.2 -0.25926
38.25 -0.2592
38.3 -0.26153
38.35 -0.26318
38.4 -0.26382
38.45 -0.25961
38.5 -0.25367
38.55 -0.25063
38.6 -0.24364
38.65 -0.24
38.7 -0.23277
38.75 -0.23075
38.8 -0.22801
38.85 -0.22003
38.9 -0.21555
38.95 -0.21347
39 -0.20675
39.05 -0.20494
39.1 -0.2062
39.15 -0.20434
39.2 -0.20343
39.25 -0.19699
39.3 -0.19364
39.35 -0.18789
39.4 -0.18057
39.45 -0.17667
39.5 -0.17687
39.55 -0.17764
39.6 -0.17273
39.65 -0.17242
39.7 -0.17515
39.75 -0.17228
39.8 -0.16931
39.85 -0.16453
39.9 -0.16316
39.95 -0.16487
40 -0.16285
40.05 -0.15575
40.1 -0.14928
40.15 -0.14059
40.2 -0.13847
40.25 -0.13497
40.3 -0.13666
40.35 -0.13723
40.4 -0.13995
40.45 -0.13685
40.5 -0.13605
40.55 -0.13025
40.6 -0.12441
40.65 -0.11719
40.7 -0.11316
40.75 -0.1078
40.8 -0.10276
40.85 -0.10073
40.9 -0.09852
40.95 -0.09834
41 -0.09867
41.05 -0.10029
41.1 -0.10178
41.15 -0.10427
41.2 -0.10765
41.25 -0.11032
41.3 -0.11136
41.35 -0.11419
41.4 -0.11478
41.45 -0.11638
41.5 -0.11091
41.55 -0.10248
41.6 -0.09954
41.65 -0.09973
41.7 -0.09952
41.75 -0.09887
41.8 -0.09713
41.85 -0.09882
41.9 -0.09393
41.95 -0.08841
42 -0.08004
42.05 -0.07099
42.1 -0.06449
42.15 -0.06499
42.2 -0.06468
42.25 -0.06109
42.3 -0.05663
42.35 -0.05418
42.4 -0.05188
42.45 -0.05473
42.5 -0.05481
42.55 -0.05988
42.6 -0.06715
42.65 -0.06736
42.7 -0.06387
42.75 -0.05889
42.8 -0.05416
42.85 -0.055
42.9 -0.05254
42.95 -0.05312
43 -0.05646
43.05 -0.0601
43.1 -0.06522
43.15 -0.06808
43.2 -0.06799
43.25 -0.06941
43.3 -0.06557
43.35 -0.06022
43.4 -0.05424
43.45 -0.05453
43.5 -0.05684
43.55 -0.05325
43.6 -0.04869
43.65 -0.04784
43.7 -0.04633
43.75 -0.04464
43.8 -0.04318
43.85 -0.04323
43.9 -0.04374
43.95 -0.04068
44 -0.03637
44.05 -0.03072
44.1 -0.02752
44.15 -0.02878
44.2 -0.03497
44.25 -0.0425
44.3 -0.04432
44.35 -0.04515
44.4 -0.04532
44.45 -0.04039
44.5 -0.04056
44.55 -0.04254
44.6 -0.04527
44.65 -0.04396
44.7 -0.03887
44.75 -0.03137
44.8 -0.0229
44.85 -0.01651
44.9 -0.01068
44.95 -0.0087
45 -0.00763
45.05 -0.01237
45.1 -0.01666
45.15 -0.02073
45.2 -0.02115
45.25 -0.01758
45.3 -0.01478
45.35 -0.01063
45.4 -0.00528
45.45 -0.00842
45.5 -0.01127
45.55 -0.01342
45.6 -0.01188
45.65 -0.01356
45.7 -0.01865
45.75 -0.02631
45.8 -0.03109
45.85 -0.03638
45.9 -0.04127
45.95 -0.04511
46 -0.04996
46.05 -0.04862
46.1 -0.04907
46.15 -0.04544
46.2 -0.0394
46.25 -0.03499
46.3 -0.03226
46.35 -0.02594
46.4 -0.02189
46.45 -0.01913
46.5 -0.02143
46.55 -0.02483
46.6 -0.02208
46.65 -0.02378
46.7 -0.02204
46.75 -0.01878
46.8 -0.02099
46.85 -0.01803
46.9 -0.01369
46.95 -0.00872
47 -0.0101
47.05 -0.01056
47.1 -0.00712
47.15 -0.00181
47.2 -0.00322
47.25 -0.00263
47.3 -0.00125
47.35 -0.0025
47.4 -0.00415
47.45 -0.00572
47.5 -0.00996
47.55 -0.01702
47.6 -0.0196
47.65 -0.01915
47.7 -0.01526
47.75 -0.0103
47.8 -0.0082
47.85 -0.0041
47.9 0.00145
47.95 0.00295
48 0.006
48.05 0.00694
48.1 0.00314
48.15 -0.00387
48.2 -0.01237
48.25 -0.01757
48.3 -0.02481
48.35 -0.02972
48.4 -0.03144
48.45 -0.03135
48.5 -0.0297
48.55 -0.03091
48.6 -0.03112
48.65 -0.02858
48.7 -0.02862
48.75 -0.02944
48.8 -0.03014
48.85 -0.02511
48.9 -0.01994
48.95 -0.01539
49 -0.01002
49.05 -0.00209
49.1 0.00375
49.15 0.00988
49.2 0.00919
49.25 0.00752
49.3 0.00113
49.35 -0.00422
49.4 -0.00719
49.45 -0.01254
49.5 -0.01185
49.55 -0.00812
49.6 -0.00719
49.65 -0.00245
49.7 -0.00294
49.75 -0.00388
49.8 -0.00442
49.85 -0.00135
49.9 -0.00229
49.95 -0.00682
50 -0.01089
50.05 -0.01513
50.1 -0.01362
50.15 -0.01586
50.2 -0.01359
50.25 -0.00912
50.3 -0.00648
50.35 -0.00884
50.4 -0.00967
50.45 -0.00654
50.5 -0.00508
50.55 -0.0052
50.6 -0.00221
50.65 -0.00188
50.7 -0.00401
50.75 -0.00791
50.8 -0.00706
50.85 -0.0107
50.9 -0.01098
50.95 -0.01213
51 -0.01469
51.05 -0.01842
51.1 -0.02186
51.15 -0.01847
51.2 -0.01309
51.25 -0.01266
51.3 -0.01117
51.35 -0.01177
51.4 -0.01338
51.45 -0.01202
51.5 -0.00857
51.55 -0.00519
51.6 -0.00453
51.65 -0.00275
51.7 -0.00508
51.75 -0.00371
51.8 -0.00687
51.85 -0.01157
51.9 -0.01075
51.95 -0.00772
52 -0.0027
52.05 -0.00369
52.1 -0.00355
52.15 -0.00213
52.2 -0.00151
52.25 -0.00203
52.3 -0.00503
52.35 -0.00312
52.4 0.00213
52.45 0.0068
52.5 0.00637
52.55 0.00804
52.6 0.00627
52.65 0.00462
52.7 -0.00114
52.75 -0.00386
52.8 -0.00725
52.85 -0.01057
52.9 -0.01154
52.95 -0.0144
53 -0.01464
53.05 -0.01119
53.1 -0.01166
53.15 -0.0104
53.2 -0.00913
53.25 -0.00743
53.3 -0.00364
53.35 0.00043
53.4 -0.00144
53.45 -0.00289
53.5 -0.00638
53.55 -0.00901
53.6 -0.01365
53.65 -0.01812
53.7 -0.02306
53.75 -0.02732
53.8 -0.02534
53.85 -0.01992
53.9 -0.01626
53.95 -0.01121
54 -0.01126
54.05 -0.00835
54.1 -0.00529
54.15 -0.00613
54.2 -0.00429
54.25 -0.00623
54.3 -0.00749
54.35 -0.0091
54.4 -0.0085
54.45 -0.00506
54.5 0.00169
54.55 0.00652
54.6 0.005
54.65 0.00232
54.7 0.00349
54.75 0.00574
54.8 0.00759
54.85 0.00736
54.9 0.01072
54.95 0.01254
55 0.0155
55.05 0.01561
55.1 0.01854
55.15 0.02057
55.2 0.01689
55.25 0.00858
55.3 0.00511
55.35 0.00617
55.4 0.00737
55.45 0.00418
55.5 -0.00069
55.55 -0.00353
55.6 -0.0014
55.65 -0.00255
55.7 0.00014
55.75 -0.00025
55.8 0.00269
55.85 0.00378
55.9 0.00589
55.95 0.0042
56 0.00104
56.05 -0.0044
56.1 -0.00877
56.15 -0.00733
56.2 -0.00396
56.25 -0.00093
56.3 -0.00239
56.35 0.00126
56.4 0.00276
56.45 0.00765
56.5 0.00728
56.55 0.00979
56.6 0.01122
56.65 0.01287
56.7 0.01438
56.75 0.01749
56.8 0.02166
56.85 0.02223
56.9 0.02338
56.95 0.02419
57 0.01851
57.05 0.01138
57.1 0.00291
57.15 -0.00579
57.2 -0.01115
57.25 -0.01137
57.3 -0.00725
57.35 -0.00437
57.4 -0.00375
57.45 -0.0078
57.5 -0.00749
57.55 -0.00846
57.6 -0.00435
57.65 -0.00262
57.7 0.00252
57.75 0.00349
57.8 0.00635
57.85 0.01175
57.9 0.01078
57.95 0.00541
58 0.0009
58.05 -0.00434
58.1 -0.01079
58.15 -0.01855
58.2 -0.02633
58.25 -0.02744
58.3 -0.02828
58.35 -0.03105
58.4 -0.02859
58.45 -0.0276
58.5 -0.02818
58.55 -0.02328
58.6 -0.01458
58.65 -0.00798
58.7 -0.00195
58.75 0.00264
58.8 0.00291
58.85 -0.00121
58.9 -0.00427
58.95 -0.00603
59 -0.00316
59.05 0.00198
59.1 0.00752
59.15 0.01441
59.2 0.01468
59.25 0.01738
59.3 0.02209
59.35 0.02334
59.4 0.01839
59.45 0.01658
59.5 0.01573
59.55 0.01362
59.6 0.01278
59.65 0.00762
59.7 0.00493
59.75 -0.00132
59.8 -0.00177
59.85 -0.00638
59.9 -0.01337
59.95 -0.01356
60 -0.01522
60.05 -0.01853
60.1 -0.01732
60.15 -0.0111
60.2 -0.00655
60.25 -0.00243
60.3 0.00035
60.35 0.00392
60.4 0.006
60.45 0.00977
60.5 0.00688
60.55 0.00554
60.6 0.00269
60.65 -0.00038
60.7 0.00116
60.75 0.00068
60.8 0.00211
60.85 0.00249
60.9 -0.00133
60.95 0.00017
61 -0.00034
61.05 0.00189
61.1 0.00232
61.15 0.00573
61.2 0.01083
61.25 0.01395
61.3 0.01164
61.35 0.01035
61.4 0.00996
61.45 0.01217
61.5 0.0108
61.55 0.00672
61.6 0.00109
61.65 -0.00427
61.7 -0.00927
61.75 -0.01256
61.8 -0.00998
61.85 -0.00737
61.9 -0.00701
61.95 -0.01087
62 -0.01197
62.05 -0.01437
62.1 -0.01069
62.15 -0.00644
62.2 -0.0041
62.25 0.00026
62.3 0.00385
62.35 0.00949
62.4 0.01158
62.45 0.00957
62.5 0.0065
62.55 0.00809
62.6 0.00489
62.65 0.00629
62.7 0.00527
62.75 0.00062
62.8 0.00135
62.85 0.00564
62.9 0.00675
62.95 0.00358
63 0.00379
63.05 0.00617
63.1 0.00556
63.15 0.00716
63.2 0.00449
63.25 0.0018
63.3 -0.00136
63.35 0.0009
63.4 0.00153
63.45 0.00468
63.5 0.00198
63.55 0.00028
63.6 -0.00246
63.65 -0.00761
63.7 -0.01053
63.75 -0.01423
63.8 -0.01889
63.85 -0.02457
63.9 -0.03087
63.95 -0.03631
64 -0.03413
64.05 -0.03358
64.1 -0.03321
64.15 -0.02825
64.2 -0.02053
64.25 -0.01021
64.3 -0.00172
64.35 0.00132
64.4 0.00309
64.45 0.00568
64.5 0.0029
64.55 -0.00147
64.6 0
64.65 0.00317
64.7 0.00044
64.75 -0.00156
64.8 -0.00638
64.85 -0.00719
64.9 -0.00963
64.95 -0.01461
65 -0.02077
65.05 -0.02393
65.1 -0.02264
65.15 -0.01743
65.2 -0.0083
65.25 -0.00613
65.3 -0.00504
65.35 -0.00549
65.4 -0.00141
65.45 0.00442
65.5 0.00721
65.55 0.01278
65.6 0.01336
65.65 0.00897
65.7 0.00681
65.75 0.00761
65.8 0.00747
65.85 0.00518
65.9 0.00086
65.95 -0.00178
66 0.00072
66.05 0.00602
66.1 0.00506
66.15 0.00253
66.2 0.00081
66.25 -0.00265
66.3 -0.0065
66.35 -0.00448
66.4 0.00063
66.45 0.00742
66.5 0.0098
66.55 0.00733
66.6 0.00243
66.65 -0.00116
66.7 -0.00497
66.75 -0.00876
66.8 -0.01428
66.85 -0.01391
66.9 -0.01191
66.95 -0.01262
67 -0.01113
67.05 -0.01189
67.1 -0.01241
67.15 -0.01577
67.2 -0.01802
67.25 -0.01999
67.3 -0.01648
67.35 -0.01342
67.4 -0.01295
67.45 -0.01113
67.5 -0.00921
67.55 -0.00923
67.6 -0.00862
67.65 -0.00327
67.7 0.00406
67.75 0.01053
67.8 0.01363
67.85 0.01927
67.9 0.02366
67.95 0.0264
68 0.02854
68.05 0.02373
68.1 0.01682
68.15 0.01414
68.2 0.00891
68.25 0.00207
68.3 -0.00046
68.35 -0.00446
68.4 -0.00413
68.45 -0.00709
68.5 -0.01202
68.55 -0.01796
68.6 -0.02446
68.65 -0.0227
68.7 -0.01825
68.75 -0.01755
68.8 -0.0163
68.85 -0.012
68.9 -0.01181
68.95 -0.00726
69 0.00033
69.05 0.00534
69.1 0.0057
69.15 0.00471
69.2 0.00399
69.25 0.00009
69.3 -0.0066
69.35 -0.00904
69.4 -0.01029
69.45 -0.00911
69.5 -0.00968
69.55 -0.00588
69.6 -0.0067
69.65 -0.00172
69.7 0.00043
69.75 0.00168
69.8 0.00266
69.85 0.00771
69.9 0.01254
69.95 0.0137
70 0.01375
70.05 0.01603
70.1 0.01632
70.15 0.01158
70.2 0.00956
70.25 0.00883
70.3 0.0096
70.35 0.00832
70.4 0.00567
70.45 0.00712
70.5 0.00834
70.55 0.01245
70.6 0.01869
70.65 0.01721
70.7 0.01728
70.75 0.0166
70.8 0.01429
70.85 0.00735
70.9 -0.00165
70.95 -0.00562
71 -0.00349
71.05 -0.00188
71.1 -0.00509
71.15 -0.00448
71.2 -0.00781
71.25 -0.01246
71.3 -0.01059
71.35 -0.00784
71.4 -0.00913
71.45 -0.00995
71.5 -0.00569
71.55 -0.00683
71.6 -0.00656
71.65 -0.00333
71.7 -0.00395
71.75 -0.00755
71.8 -0.00788
71.85 -0.00557
71.9 -0.00505
71.95 -0.00699
72 -0.00301
72.05 -0.00434
72.1 -0.00905
72.15 -0.00663
72.2 -0.00665
72.25 -0.00738
72.3 -0.00571
72.35 -0.00475
72.4 -0.00428
72.45 -0.00202
72.5 0.00146
72.55 0.00481
72.6 0.00336
72.65 0.00085
72.7 0.00305
72.75 0.00187
72.8 -0.00111
72.85 0.00006
72.9 0.00364
72.95 0.00412
73 0.00589
73.05 0.00472
73.1 0.00052
73.15 0.00023
73.2 -0.00243
73.25 -0.00339
73.3 -0.00708
73.35 -0.01199
73.4 -0.01267
73.45 -0.00825
73.5 -0.0042
73.55 -0.00144
73.6 0.00426
73.65 0.00417
73.7 0.00601
73.75 0.01098
73.8 0.01323
73.85 0.01264
73.9 0.01514
73.95 0.01117
74 0.00825
74.05 0.00231
74.1 0.00284
74.15 -0.00013
74.2 -0.00351
74.25 -0.00634
74.3 -0.00454
74.35 0.00026
74.4 0.00678
74.45 0.01067
74.5 0.01611
74.55 0.0158
74.6 0.01568
74.65 0.01834
74.7 0.01642
74.75 0.01484
74.8 0.01683
74.85 0.02081
74.9 0.02553
74.95 0.02985
75 0.0316
75.05 0.03142
75.1 0.02978
75.15 0.02845
75.2 0.02556
75.25 0.0232
75.3 0.02343
75.35 0.02289
75.4 0.01792
75.45 0.00993
75.5 0.00409
75.55 0.00182
75.6 -0.00224
75.65 -0.00516
75.7 -0.01058
75.75 -0.0165
75.8 -0.02128
75.85 -0.02463
75.9 -0.0241
75.95 -0.02208
76 -0.01911
76.05 -0.01323
76.1 -0.01119
76.15 -0.01213
76.2 -0.01228
76.25 -0.00878
76.3 -0.00767
76.35 -0.00619
76.4 -0.00738
76.45 -0.0087
76.5 -0.01276
76.55 -0.01383
76.6 -0.01242
76.65 -0.01109
76.7 -0.00749
76.75 -0.00436
76.8 -0.00003
76.85 0.00176
76.9 0.00144
76.95 0.00225
77 0.00551
77.05 0.01003
77.1 0.00922
77.15 0.00535
77.2 -0.00121
77.25 -0.00182
77.3 -0.00522
77.35 -0.00989
77.4 -0.0127
77.45 -0.01604
77.5 -0.0127
77.55 -0.01182
77.6 -0.0133
77.65 -0.00941
77.7 -0.00265
77.75 0.00317
77.8 0.00474
77.85 0.00298
77.9 0.00421
77.95 0.00882
78 0.01332
78.05 0.01529
78.1 0.01341
78.15 0.01448
78.2 0.0102
78.25 0.00468
78.3 -0.00235
78.35 -0.00675
78.4 -0.00521
78.45 -0.00595
78.5 -0.00172
78.55 0.00265
78.6 0.00523
78.65 0.01062
78.7 0.00936
78.75 0.00933
78.8 0.00784
78.85 0.0091
78.9 0.00668
78.95 0.00877
79 0.00887
79.05 0.01145
79.1 0.01418
79.15 0.01389
79.2 0.01153
79.25 0.0058
79.3 0.00294
79.35 -0.00222
79.4 -0.0018
79.45 -0.00066
79.5 -0.00295
79.55 -0.00242
79.6 -0.00548
79.65 -0.00842
79.7 -0.0108
79.75 -0.01243
79.8 -0.01007
79.85 -0.00517
79.9 -0.00002
79.95 0.00204
80 0.00177
80.05 0.00296
80.1 -0.00127
80.15 -0.00631
80.2 -0.01324
80.25 -0.01678
80.3 -0.01983
80.35 -0.02143
80.4 -0.01868
80.45 -0.01259
80.5 -0.00464
80.55 0.00095
80.6 0.00068
80.65 -0.00232
80.7 -0.00396
80.75 -0.0007
80.8 0.00468
80.85 0.00555
80.9 0.00671
80.95 0.00397
81 0.0041
81.05 0.00418
81.1 0.00784
81.15 0.00666
81.2 0.00579
81.25 0.00358
81.3 -0.00125
81.35 -0.0078
81.4 -0.00932
81.45 -0.01249
81.5 -0.01467
81.55 -0.01093
81.6 -0.01205
81.65 -0.01333
81.7 -0.01476
81.75 -0.01276
81.8 -0.01104
81.85 -0.00944
81.9 -0.01214
81.95 -0.01372
82 -0.0097
82.05 -0.0091
82.1 -0.0087
82.15 -0.01014
82.2 -0.01309
82.25 -0.0177
82.3 -0.02162
82.35 -0.01896
82.4 -0.01177
82.45 -0.00164
82.5 0.0008
82.55 0.00569
82.6 0.00694
82.65 0.00818
82.7 0.00725
82.75 0.00848
82.8 0.01216
82.85 0.00961
82.9 0.0093
82.95 0.00531
83 -0.00099
83.05 -0.00303
83.1 -0.00802
83.15 -0.01482
83.2 -0.01353
83.25 -0.0113
83.3 -0.00532
83.35 0.00221
83.4 0.0103
83.45 0.01292
83.5 0.01378
83.55 0.01551
83.6 0.01152
83.65 0.00584
83.7 -0.00031
83.75 -0.00626
83.8 -0.00536
83.85 -0.00649
83.9 -0.00881
83.95 -0.01195
84 -0.01115
84.05 -0.01397
84.1 -0.01416
84.15 -0.01371
84.2 -0.0087
84.25 -0.00042
84.3 0.00112
84.35 0.00021
84.4 0.00301
84.45 0.00552
84.5 0.00997
84.55 0.01601
84.6 0.0158
84.65 0.01191
84.7 0.00408
84.75 -0.0042
84.8 -0.00518
84.85 -0.00356
84.9 -0.00113
84.95 0.00505
85 0.0044
85.05 0.00193
85.1 0.00426
85.15 0.00554
85.2 0.00409
85.25 0.00353
85.3 0.00441
85.35 0.00301
85.4 0.00329
85.45 0.00552
85.5 0.00877
85.55 0.00767
85.6 0.00417
85.65 -0.00055
85.7 -0.00298
85.75 -0.00263
85.8 -0.00535
85.85 -0.00542
85.9 -0.00503
85.95 -0.00683
86 -0.00559
86.05 -0.00126
86.1 0.00474
86.15 0.007
86.2 0.0068
86.25 0.00347
86.3 0.00395
86.35 0.0016
86.4 -0.00307
86.45 -0.00823
86.5 -0.01179
86.55 -0.00966
86.6 -0.00653
86.65 -0.00649
86.7 -0.00615
86.75 -0.00572
86.8 -0.00165
86.85 0.00211
86.9 0.00124
86.95 0.00059
87 -0.00148
87.05 -0.00518
87.1 -0.01146
87.15 -0.01487
87.2 -0.01902
87.25 -0.02345
87.3 -0.02865
87.35 -0.02748
87.4 -0.02297
87.45 -0.01659
87.5 -0.00865
87.55 -0.00151
87.6 0.00658
87.65 0.01198
87.7 0.0141
87.75 0.01482
87.8 0.01717
87.85 0.01967
87.9 0.01963
87.95 0.01754
88 0.0158
88.05 0.0135
88.1 0.00976
88.15 0.00321
88.2 0.00278
88.25 0.0004
88.3 0.00251
88.35 0.00627
88.4 0.00924
88.45 0.01106
88.5 0.00877
88.55 0.00638
88.6 0.0073
88.65 0.00977
88.7 0.00929
88.75 0.0076
88.8 0.0098
88.85 0.00758
88.9 0.00243
88.95 0.00204
89 0.0048
89.05 0.00803
89.1 0.01093
89.15 0.01222
89.2 0.00742
89.25 0.00766
89.3 0.00303
89.35 -0.00155
89.4 -0.00025
89.45 0.0048
89.5 0.01084
89.55 0.01287
89.6 0.00901
89.65 0.00209
89.7 -0.00272
89.75 -0.00241
89.8 -0.00582
89.85 -0.0089
89.9 -0.01284
89.95 -0.01806
90 -0.0183
90.05 -0.01697
90.1 -0.01851
90.15 -0.01365
90.2 -0.01219
90.25 -0.00584
90.3 -0.00495
90.35 -0.00295
90.4 -0.00264
90.45 -0.00448
90.5 -0.00188
90.55 0.00392
90.6 0.00276
90.65 0.00622
90.7 0.00513
90.75 0.00639
90.8 0.00584
90.85 0.00241
90.9 -0.00195
90.95 -0.00232
91 -0.00189
91.05 0.00034
91.1 -0.00017
91.15 0.00267
91.2 0.00865
91.25 0.01135
91.3 0.01055
91.35 0.00951
91.4 0.00502
91.45 0.00088
91.5 -0.00044
91.55 0.00112
91.6 0.00008
91.65 0.00046
91.7 0.0041
91.75 0.00504
91.8 0.00251
91.85 -0.0028
91.9 -0.00336
91.95 -0.00539
92 -0.00635
92.05 -0.0084
92.1 -0.0052
92.15 0.00031
92.2 0.00704
92.25 0.00733
92.3 0.01027
92.35 0.0119
92.4 0.01051
92.45 0.01085
92.5 0.01089
92.55 0.01299
92.6 0.01596
92.65 0.01442
92.7 0.01142
92.75 0.00423
92.8 -0.0043
92.85 -0.00914
92.9 -0.01516
92.95 -0.02154
93 -0.02253
93.05 -0.02439
93.1 -0.02062
93.15 -0.01787
93.2 -0.01918
93.25 -0.01445
93.3 -0.00628
93.35 0.00201
93.4 0.00376
93.45 0.00627
93.5 0.00955
93.55 0.00679
93.6 0.001
93.65 -0.00712
93.7 -0.00922
93.75 -0.01304
93.8 -0.01107
93.85 -0.00695
93.9 -0.00159
93.95 -0.00229
94 0.00185
94.05 0.00108
94.1 -0.00093
94.15 -0.00112
94.2 0.00221
94.25 0.00684
94.3 0.00874
94.35 0.01365
94.4 0.01807
94.45 0.02341
94.5 0.02916
94.55 0.02819
94.6 0.02278
94.65 0.01371
94.7 0.00379
94.75 -0.0032
94.8 -0.0116
94.85 -0.01994
94.9 -0.02438
94.95 -0.02105
95 -0.01411
95.05 -0.01212
95.1 -0.00692
95.15 -0.00477
95.2 -0.00247
95.25 -0.00074
95.3 -0.00043
95.35 -0.00332
95.4 -0.00507
95.45 -0.00447
95.5 -0.00517
95.55 -0.00715
95.6 -0.00978
95.65 -0.00754
95.7 -0.001
95.75 0.00417
95.8 0.00619
95.85 0.00525
95.9 0.00327
95.95 0.00141
96 -0.00434
96.05 -0.01061
96.1 -0.01297
96.15 -0.01555
96.2 -0.01242
96.25 -0.00849
96.3 -0.00305
96.35 0.00279
96.4 0.002
96.45 0.00071
96.5 -0.00266
96.55 -0.00005
96.6 -0.00193
96.65 0.00021
96.7 0.00105
96.75 -0.00182
96.8 -0.00252
96.85 -0.0066
96.9 -0.00779
96.95 -0.01077
97 -0.00813
97.05 -0.00929
97.1 -0.01244
97.15 -0.01573
97.2 -0.01695
97.25 -0.01401
97.3 -0.00993
97.35 -0.01037
97.4 -0.00823
97.45 -0.00455
97.5 0.00152
97.55 0.0063
97.6 0.00776
97.65 0.00508
97.7 0.00616
97.75 0.007
97.8 0.01076
97.85 0.01117
97.9 0.00604
97.95 -0.00185
98 -0.00394
98.05 -0.00555
98.1 -0.01057
98.15 -0.00971
98.2 -0.01145
98.25 -0.01139
98.3 -0.00754
98.35 -0.0059
98.4 -0.00258
98.45 -0.00048
98.5 -0.00203
98.55 0.00127
98.6 0.0059
98.65 0.00918
98.7 0.00608
98.75 0.00311
98.8 -0.00107
98.85 -0.00606
98.9 -0.00822
98.95 -0.0119
99 -0.01272
99.05 -0.01479
99.1 -0.01217
99.15 -0.00941
99.2 -0.00585
99.25 -0.00694
99.3 -0.00239
99.35 -0.00299
99.4 -0.00165
99.45 -0.00307
99.5 -0.0065
99.55 -0.01131
99.6 -0.01239
99.65 -0.01467
99.7 -0.01389
99.75 -0.01397
99.8 -0.01296
99.85 -0.01103
99.9 -0.00931
99.95 -0.00441
