0 0
0.05 0.00706
0.1 0.01845
0.15 0.02998
0.2 0.04293
0.25 0.05137
0.3 0.05765
0.35 0.06081
0.4 0.06669
0.45 0.06755
0.5 0.0662
0.55 0.06619
0.6 0.06285
0.65 0.0555
0.7 0.05479
0.75 0.053
0.8 0.04821
0.85 0.04928
0.9 0.04558
0.95 0.04769
1 0.04833
1.05 0.0446
1.1 0.04097
1.15 0.03502
1.2 0.02711
1.25 0.02557
1.3 0.02873
1.35 0.02942
1.4 0.02988
1.45 0.0297
1.5 0.02719
1.55 0.02906
1.6 0.03033
1.65 0.03021
1.7 0.026
1.75 0.02578
1.8 0.02498
1.85 0.02621
1.9 0.02722
1.95 0.02505
2 0.02409
2.05 0.02195
2.1 0.02085
2.15 0.0253
2.2 0.0329
2.25 0.03908
2.3 0.04265
2.35 0.04089
2.4 0.03652
2.45 0.0326
2.5 0.03355
2.55 0.03601
2.6 0.04005
2.65 0.04109
2.7 0.03855
2.75 0.03941
2.8 0.039
2.85 0.04054
2.9 0.04065
2.95 0.04172
3 0.04442
3.05 0.04622
3.1 0.04179
3.15 0.03622
3.2 0.03511
3.25 0.03272
3.3 0.02615
3.35 0.02312
3.4 0.0225
3.45 0.01776
3.5 0.01603
3.55 0.01534
3.6 0.01854
3.65 0.02117
3.7 0.02265
3.75 0.02366
3.8 0.02448
3.85 0.0231
3.9 0.01686
3.95 0.0112
4 0.00819
4.05 0.00803
4.1 0.00792
4.15 0.00389
4.2 0.00584
4.25 0.00894
4.3 0.01351
4.35 0.01283
4.4 0.00891
4.45 0.00124
4.5 -0.01178
4.55 -0.02139
4.6 -0.03044
4.65 -0.04539
4.7 -0.06322
4.75 -0.07997
4.8 -0.09651
4.85 -0.11604
4.9 -0.14183
4.95 -0.17563
5 -0.21066
5.05 -0.25214
5.1 -0.29747
5.15 -0.35014
5.2 -0.40717
5.25 -0.46944
5.3 -0.53697
5.35 -0.60703
5.4 -0.6737
5.45 -0.74186
5.5 -0.81114
5.55 -0.88476
5.6 -0.95497
5.65 -1.02613
5.7 -1.09758
5.75 -1.16232
5.8 -1.22036
5.85 -1.27499
5.9 -1.31738
5.95 -1.35708
6 -1.38624
6.05 -1.40828
6.1 -1.41853
6.15 -1.42139
6.2 -1.4163
6.25 -1.40387
6.3 -1.39088
6.35 -1.37481
6.4 -1.35609
6.45 -1.32889
6.5 -1.30041
6.55 -1.26618
6.6 -1.21863
6.65 -1.16342
6.7 -1.10704
6.75 -1.04552
6.8 -0.97771
6.85 -0.89863
6.9 -0.81511
6.95 -0.72925
7 -0.63456
7.05 -0.53557
7.1 -0.42838
7.15 -0.32285
7.2 -0.21184
7.25 -0.103
7.3 0.01056
7.35 0.11846
7.4 0.22776
7.45 0.33675
7.5 0.4435
7.55 0.53975
7.6 0.63226
7.65 0.71893
7.7 0.79812
7.75 0.87457
7.8 0.94581
7.85 1.01089
7.9 1.06592
7.95 1.11272
8 1.15144
8.05 1.18837
8.1 1.22193
8.15 1.24803
8.2 1.26456
8.25 1.27843
8.3 1.29237
8.35 1.301
8.4 1.3039
8.45 1.30472
8.5 1.29877
8.55 1.29264
8.6 1.27946
8.65 1.2637
8.7 1.24332
8.75 1.2226
8.8 1.20073
8.85 1.18018
8.9 1.16011
8.95 1.13659
9 1.11213
9.05 1.08609
9.1 1.06093
9.15 1.03488
9.2 1.00985
9.25 0.98377
9.3 0.95994
9.35 0.94198
9.4 0.91905
9.45 0.90059
9.5 0.87608
9.55 0.84895
9.6 0.82854
9.65 0.80462
9.7 0.78133
9.75 0.75584
9.8 0.73203
9.85 0.71353
9.9 0.69669
9.95 0.677
10 0.66015
10.05 0.64674
10.1 0.62816
10.15 0.60539
10.2 0.58063
10.25 0.56165
10.3 0.53853
10.35 0.51498
10.4 0.49358
10.45 0.47685
10.5 0.45881
10.55 0.44251
10.6 0.42482
10.65 0.40478
10.7 0.3879
10.75 0.36587
10.8 0.34117
10.85 0.32245
10.9 0.29996
10.95 0.27626
11 0.25145
11.05 0.23213
11.1 0.21849
11.15 0.20282
11.2 0.18749
11.25 0.17116
11.3 0.15052
11.35 0.13456
11.4 0.12226
11.45 0.10452
11.5 0.08728
11.55 0.06563
11.6 0.04754
11.65 0.02806
11.7 0.01534
11.75 -0.00015
11.8 -0.01872
11.85 -0.03106
11.9 -0.04484
11.95 -0.05751
12 -0.06468
12.05 -0.07384
12.1 -0.08333
12.15 -0.09491
12.2 -0.10252
12.25 -0.10784
12.3 -0.11237
12.35 -0.11539
12.4 -0.11776
12.45 -0.12534
12.5 -0.13462
12.55 -0.14229
12.6 -0.14879
12.65 -0.1533
12.7 -0.15488
12.75 -0.15556
12.8 -0.16342
12.85 -0.1755
12.9 -0.18048
12.95 -0.18601
13 -0.19048
13.05 -0.19693
13.1 -0.20255
13.15 -0.20892
13.2 -0.21357
13.25 -0.2166
13.3 -0.2173
13.35 -0.21789
13.4 -0.21338
13.45 -0.20742
13.5 -0.20314
13.55 -0.2043
13.6 -0.20514
13.65 -0.20475
13.7 -0.20419
13.75 -0.20716
13.8 -0.21043
13.85 -0.20944
13.9 -0.21019
13.95 -0.21208
14 -0.21168
14.05 -0.20967
14.1 -0.20584
14.15 -0.1957
14.2 -0.1822
14.25 -0.16844
14.3 -0.1623
14.35 -0.15804
14.4 -0.15184
14.45 -0.14435
14.5 -0.14149
14.55 -0.14014
14.6 -0.14191
14.65 -0.14216
14.7 -0.14199
14.75 -0.13819
14.8 -0.13857
14.85 -0.13884
14.9 -0.1415
14.95 -0.14572
15 -0.14308
15.05 -0.13833
15.1 -0.13484
15.15 -0.13181
15.2 -0.13015
15.25 -0.12897
15.3 -0.12956
15.35 -0.12627
15.4 -0.121
15.45 -0.11275
15.5 -0.11174
15.55 -0.11374
15.6 -0.11034
15.65 -0.1124
15.7 -0.11137
15.75 -0.11313
15.8 -0.11626
15.85 -0.11391
15.9 -0.11145
15.95 -0.10964
16 -0.10743
16.05 -0.10138
16.1 -0.09807
16.15 -0.09924
16.2 -0.09626
16.25 -0.08992
16.3 -0.09005
16.35 -0.08709
16.4 -0.08573
16.45 -0.08275
16.5 -0.08297
16.55 -0.08546
16.6 -0.0835
16.65 -0.08382
16.7 -0.07938
16.75 -0.08066
16.8 -0.08491
16.85 -0.08333
16.9 -0.07984
16.95 -0.07335
17 -0.06832
17.05 -0.06574
17.1 -0.06057
17.15 -0.05702
17.2 -0.05544
17.25 -0.0586
17.3 -0.05988
17.35 -0.05639
17.4 -0.05218
17.45 -0.04588
17.5 -0.04242
17.55 -0.04586
17.6 -0.04974
17.65 -0.04878
17.7 -0.05327
17.75 -0.05244
17.8 -0.05031
17.85 -0.04752
17.9 -0.04516
17.95 -0.04769
18 -0.05146
18.05 -0.05509
18.1 -0.05419
18.15 -0.05619
18.2 -0.05386
18.25 -0.04981
18.3 -0.04537
18.35 -0.03877
18.4 -0.03653
18.45 -0.03834
18.5 -0.04462
18.55 -0.04472
18.6 -0.04606
18.65 -0.04682
18.7 -0.04389
18.75 -0.03892
18.8 -0.04043
18.85 -0.04611
18.9 -0.05081
18.95 -0.05048
19 -0.04496
19.05 -0.03691
19.1 -0.03523
19.15 -0.03027
19.2 -0.02934
19.25 -0.0265
19.3 -0.02291
19.35 -0.02013
19.4 -0.01988
19.45 -0.02227
19.5 -0.02486
19.55 -0.02961
19.6 -0.02917
19.65 -0.02872
19.7 -0.02676
19.75 -0.02398
19.8 -0.02457
19.85 -0.02388
19.9 -0.02295
19.95 -0.01883
20 -0.01337
20.05 -0.01163
20.1 -0.00926
20.15 -0.00858
20.2 -0.01333
20.25 -0.01531
20.3 -0.02092
20.35 -0.02122
20.4 -0.01841
20.45 -0.01731
20.5 -0.01324
20.55 -0.00829
20.6 -0.006
20.65 -0.00656
20.7 -0.01065
20.75 -0.01758
20.8 -0.0247
20.85 -0.02692
20.9 -0.02482
20.95 -0.01907
21 -0.0157
21.05 -0.0129
21.1 -0.00834
21.15 -0.00343
21.2 -0.00248
21.25 -0.00317
21.3 -0.00534
21.35 -0.00995
21.4 -0.01844
21.45 -0.02329
21.5 -0.02437
21.55 -0.02337
21.6 -0.02729
21.65 -0.03355
21.7 -0.0355
21.75 -0.03655
21.8 -0.03314
21.85 -0.03116
21.9 -0.02772
21.95 -0.0258
22 -0.02826
22.05 -0.0298
22.1 -0.03283
22.15 -0.03435
22.2 -0.02965
22.25 -0.02299
22.3 -0.0208
22.35 -0.01696
22.4 -0.01285
22.45 -0.00777
22.5 -0.00632
22.55 -0.002
22.6 -0.00037
22.65 0.00189
22.7 -0.00052
22.75 -0.00677
22.8 -0.01054
22.85 -0.00914
22.9 -0.00869
22.95 -0.00631
23 -0.00365
23.05 -0.0011
23.1 -0.0013
23.15 -0.00601
23.2 -0.01446
23.25 -0.02442
23.3 -0.02745
23.35 -0.02668
23.4 -0.02898
23.45 -0.02787
23.5 -0.0297
23.55 -0.02638
23.6 -0.02048
23.65 -0.0127
23.7 -0.01178
23.75 -0.00754
23.8 -0.0083
23.85 -0.0063
23.9 -0.00757
23.95 -0.00931
24 -0.00705
24.05 -0.00208
24.1 -0.00176
24.15 0.00001
24.2 0.00324
24.25 0.0046
24.3 0.00229
24.35 0.00128
24.4 -0.0014
24.45 -0.00269
24.5 -0.00643
24.55 -0.00963
24.6 -0.00785
24.65 -0.00356
24.7 -0.00405
24.75 -0.00278
24.8 -0.00112
24.85 0.00151
24.9 0.00608
24.95 0.01145
25 0.01581
25.05 0.01958
25.1 0.01824
25.15 0.01404
25.2 0.00797
25.25 -0.00111
25.3 -0.01187
25.35 -0.019
25.4 -0.02189
25.45 -0.01847
25.5 -0.02044
25.55 -0.01876
25.6 -0.01676
25.65 -0.01261
25.7 -0.00776
25.75 -0.00394
25.8 -0.00222
25.85 -0.00598
25.9 -0.00652
25.95 -0.00401
26 0.00096
26.05 0.00142
26.1 -0.00204
26.15 -0.00842
26.2 -0.01488
26.25 -0.02236
26.3 -0.02697
26.35 -0.03005
26.4 -0.03415
26.45 -0.03604
26.5 -0.03812
26.55 -0.03821
26.6 -0.03862
26.65 -0.03635
26.7 -0.03302
26.75 -0.03251
26.8 -0.03161
26.85 -0.02642
26.9 -0.02293
26.95 -0.02096
27 -0.01672
27.05 -0.01567
27.1 -0.01201
27.15 -0.01074
27.2 -0.00527
27.25 -0.00242
27.3 0.00122
27.35 0.00709
27.4 0.00631
27.45 0.00227
27.5 0.00205
27.55 -0.00039
27.6 0.0005
27.65 -0.00384
27.7 -0.00746
27.75 -0.00704
27.8 -0.00734
27.85 -0.01492
27.9 -0.02544
27.95 -0.03269
28 -0.03853
28.05 -0.04095
28.1 -0.04988
28.15 -0.05793
28.2 -0.06714
28.25 -0.07893
28.3 -0.0916
28.35 -0.10647
28.4 -0.12402
28.45 -0.14308
28.5 -0.16924
28.55 -0.20156
28.6 -0.23283
28.65 -0.27089
28.7 -0.31336
28.75 -0.35856
28.8 -0.40184
28.85 -0.44519
28.9 -0.4865
28.95 -0.52963
29 -0.57893
29.05 -0.63679
29.1 -0.69481
29.15 -0.75726
29.2 -0.81805
29.25 -0.8785
29.3 -0.939
29.35 -0.9974
29.4 -1.05996
29.45 -1.11841
29.5 -1.17855
29.55 -1.23591
29.6 -1.28705
29.65 -1.32838
29.7 -1.3607
29.75 -1.3874
29.8 -1.40459
29.85 -1.41719
29.9 -1.41709
29.95 -1.41147
30 -1.39695
30.05 -1.37488
30.1 -1.34398
30.15 -1.3037
30.2 -1.25098
30.25 -1.19104
30.3 -1.1216
30.35 -1.04737
30.4 -0.9634
30.45 -0.87631
30.5 -0.78539
30.55 -0.68536
30.6 -0.5801
30.65 -0.47086
30.7 -0.36469
30.75 -0.25606
30.8 -0.14733
30.85 -0.03894
30.9 0.06739
30.95 0.16549
31 0.25517
31.05 0.34042
31.1 0.41681
31.15 0.48818
31.2 0.5524
31.25 0.61019
31.3 0.66241
31.35 0.71041
31.4 0.75033
31.45 0.78962
31.5 0.82549
31.55 0.86281
31.6 0.89682
31.65 0.92992
31.7 0.95947
31.75 0.98107
31.8 0.99849
31.85 1.01634
31.9 1.02685
31.95 1.03502
32 1.04265
32.05 1.05092
32.1 1.0585
32.15 1.05996
32.2 1.06643
32.25 1.07467
32.3 1.08206
32.35 1.08758
32.4 1.09005
32.45 1.09328
32.5 1.09122
32.55 1.09081
32.6 1.08536
32.65 1.07894
32.7 1.07491
32.75 1.06475
32.8 1.05443
32.85 1.04591
32.9 1.03526
32.95 1.02256
33 1.00456
33.05 0.98354
33.1 0.96162
33.15 0.94573
33.2 0.92844
33.25 0.91163
33.3 0.89532
33.35 0.87291
33.4 0.85013
33.45 0.82506
33.5 0.79672
33.55 0.76532
33.6 0.73876
33.65 0.71003
33.7 0.68838
33.75 0.67037
33.8 0.6493
33.85 0.62966
33.9 0.61018
33.95 0.59159
34 0.56984
34.05 0.54928
34.1 0.52258
34.15 0.49391
34.2 0.46811
34.25 0.44542
34.3 0.4198
34.35 0.39073
34.4 0.36673
34.45 0.34212
34.5 0.31902
34.55 0.29494
34.6 0.27508
34.65 0.25764
34.7 0.24116
34.75 0.22446
34.8 0.20399
34.85 0.18105
34.9 0.15375
34.95 0.12516
35 0.09794
35.05 0.07645
35.1 0.06176
35.15 0.04637
35.2 0.03028
35.25 0.01576
35.3 0.00224
35.35 -0.01074
35.4 -0.02009
35.45 -0.02926
35.5 -0.0391
35.55 -0.0452
35.6 -0.04939
35.65 -0.05605
35.7 -0.06108
35.75 -0.07249
35.8 -0.08542
35.85 -0.10055
35.9 -0.11034
35.95 -0.11546
36 -0.11941
36.05 -0.12738
36.1 -0.13155
36.15 -0.13727
36.2 -0.142
36.25 -0.14339
36.3 -0.14456
36.35 -0.14882
36.4 -0.15067
36.45 -0.15386
36.5 -0.15327
36.55 -0.15289
36.6 -0.15432
36.65 -0.15368
36.7 -0.15756
36.75 -0.15898
36.8 -0.15951
36.85 -0.1638
36.9 -0.16804
36.95 -0.17102
37 -0.17436
37.05 -0.18061
37.1 -0.18303
37.15 -0.1854
37.2 -0.18257
37.25 -0.17649
37.3 -0.17549
37.35 -0.17218
37.4 -0.17119
37.45 -0.1739
37.5 -0.18058
37.55 -0.18617
37.6 -0.18912
37.65 -0.18945
37.7 -0.19269
37.75 -0.18885
37.8 -0.18254
37.85 -0.17994
37.9 -0.17805
37.95 -0.17937
38 -0.17481
38.05 -0.17432
38.1 -0.16834
38.15 -0.16415
38.2 -0.1632
38.25 -0.15885
38.3 -0.15442
38.35 -0.15541
38.4 -0.15641
38.45 -0.15988
38.5 -0.16204
38.55 -0.16012
38.6 -0.15437
38.65 -0.14765
38.7 -0.14583
38.75 -0.14401
38.8 -0.1398
38.85 -0.13729
38.9 -0.13621
38.95 -0.13459
39 -0.13357
39.05 -0.13294
39.1 -0.13445
39.15 -0.12994
39.2 -0.12242
39.25 -0.12134
39.3 -0.11609
39.35 -0.10775
39.4 -0.10621
39.45 -0.10602
39.5 -0.10147
39.55 -0.0955
39.6 -0.08835
39.65 -0.0825
39.7 -0.08267
39.75 -0.08561
39.8 -0.08732
39.85 -0.08794
39.9 -0.0933
39.95 -0.09534
40 -0.09191
40.05 -0.09225
40.1 -0.09352
40.15 -0.0904
40.2 -0.08721
40.25 -0.08418
40.3 -0.08085
40.35 -0.0788
40.4 -0.08234
40.45 -0.08733
40.5 -0.0864
40.55 -0.08199
40.6 -0.08095
40.65 -0.07848
40.7 -0.07717
40.75 -0.07366
40.8 -0.06971
40.85 -0.06439
40.9 -0.06383
40.95 -0.06658
41 -0.06452
41.05 -0.0646
41.1 -0.06174
41.15 -0.05701
41.2 -0.05789
41.25 -0.05706
41.3 -0.05494
41.35 -0.05797
41.4 -0.0631
41.45 -0.06187
41.5 -0.05653
41.55 -0.04958
41.6 -0.05061
41.65 -0.05106
41.7 -0.04985
41.75 -0.04672
41.8 -0.0463
41.85 -0.04568
41.9 -0.04927
41.95 -0.05491
42 -0.06012
42.05 -0.06154
42.1 -0.05707
42.15 -0.05556
42.2 -0.05559
42.25 -0.05827
42.3 -0.05443
42.35 -0.04924
42.4 -0.04438
42.45 -0.03896
42.5 -0.03151
42.55 -0.02876
42.6 -0.03287
42.65 -0.03853
42.7 -0.04005
42.75 -0.04211
42.8 -0.03998
42.85 -0.03784
42.9 -0.03498
42.95 -0.03097
43 -0.02777
43.05 -0.02222
43.1 -0.01788
43.15 -0.01385
43.2 -0.01481
43.25 -0.01498
43.3 -0.02024
43.35 -0.02287
43.4 -0.02377
43.45 -0.0244
43.5 -0.02575
43.55 -0.02344
43.6 -0.02254
43.65 -0.02138
43.7 -0.02092
43.75 -0.02329
43.8 -0.02425
43.85 -0.02965
43.9 -0.03436
43.95 -0.03884
44 -0.03809
44.05 -0.03886
44.1 -0.03788
44.15 -0.03634
44.2 -0.03041
44.25 -0.02832
44.3 -0.02587
44.35 -0.02436
44.4 -0.02009
44.45 -0.02121
44.5 -0.0194
44.55 -0.01516
44.6 -0.01416
44.65 -0.0176
44.7 -0.01715
44.75 -0.01614
44.8 -0.01682
44.85 -0.01687
44.9 -0.01776
44.95 -0.01867
45 -0.01723
45.05 -0.01968
45.1 -0.02506
45.15 -0.02816
45.2 -0.02694
45.25 -0.02509
45.3 -0.02801
45.35 -0.03238
45.4 -0.03682
45.45 -0.03383
45.5 -0.03101
45.55 -0.02554
45.6 -0.02243
45.65 -0.0176
45.7 -0.01683
45.75 -0.0169
45.8 -0.01661
45.85 -0.02138
45.9 -0.0231
45.95 -0.02016
46 -0.01437
46.05 -0.01275
46.1 -0.01126
46.15 -0.00722
46.2 -0.00577
46.25 -0.00726
46.3 -0.00908
46.35 -0.00862
46.4 -0.00661
46.45 -0.00841
46.5 -0.01389
46.55 -0.01311
46.6 -0.01032
46.65 -0.00847
46.7 -0.00513
46.75 -0.00291
46.8 0.00106
46.85 0.00183
46.9 -0.00366
46.95 -0.00513
47 -0.00768
47.05 -0.01121
47.1 -0.01464
47.15 -0.01657
47.2 -0.01519
47.25 -0.01177
47.3 -0.01334
47.35 -0.01268
47.4 -0.01328
47.45 -0.01513
47.5 -0.01584
47.55 -0.02048
47.6 -0.02153
47.65 -0.02282
47.7 -0.02102
47.75 -0.01826
47.8 -0.01887
47.85 -0.01714
47.9 -0.01919
47.95 -0.0205
48 -0.02218
48.05 -0.027
48.1 -0.02485
48.15 -0.02653
48.2 -0.03047
48.25 -0.03326
48.3 -0.03249
48.35 -0.02994
48.4 -0.02765
48.45 -0.02706
48.5 -0.02316
48.55 -0.02192
48.6 -0.01966
48.65 -0.01708
48.7 -0.0101
48.75 -0.00358
48.8 0.00159
48.85 0.008
48.9 0.0118
48.95 0.01156
49 0.0142
49.05 0.01568
49.1 0.01501
49.15 0.01611
49.2 0.0153
49.25 0.0137
49.3 0.01446
49.35 0.01072
49.4 0.0091
49.45 0.00404
49.5 -0.00026
49.55 -0.00444
49.6 -0.00484
49.65 -0.00294
49.7 -0.00386
49.75 -0.00302
49.8 -0.00132
49.85 0.00161
49.9 -0.00154
49.95 -0.00577
50 -0.00587
50.05 -0.00384
50.1 -0.00595
50.15 -0.00401
50.2 -0.00173
50.25 -0.00105
50.3 -0.00422
50.35 -0.01016
50.4 -0.01137
50.45 -0.00892
50.5 -0.00984
50.55 -0.0082
50.6 -0.00596
50.65 -0.00649
50.7 -0.00315
50.75 -0.00363
50.8 -0.00322
50.85 -0.00767
50.9 -0.01485
50.95 -0.01867
51 -0.02016
51.05 -0.01801
51.1 -0.01232
51.15 -0.01055
51.2 -0.01018
51.25 -0.00784
51.3 -0.00374
51.35 0.00054
51.4 0.00052
51.45 0.00137
51.5 -0.00275
51.55 -0.00772
51.6 -0.01453
51.65 -0.02065
51.7 -0.02633
51.75 -0.02871
51.8 -0.02474
51.85 -0.02031
51.9 -0.01975
51.95 -0.01805
52 -0.01502
52.05 -0.01346
52.1 -0.01012
52.15 -0.00829
52.2 -0.00905
52.25 -0.00534
52.3 -0.0048
52.35 -0.00742
52.4 -0.00947
52.45 -0.00976
52.5 -0.01012
52.55 -0.00651
52.6 -0.00119
52.65 0.00016
52.7 -0.00035
52.75 -0.00469
52.8 -0.00682
52.85 -0.00334
52.9 -0.00435
52.95 -0.00102
53 -0.00309
53.05 -0.00327
53.1 -0.00606
53.15 -0.00955
53.2 -0.01246
53.25 -0.00923
53.3 -0.00284
53.35 0.00457
53.4 0.00927
53.45 0.01219
53.5 0.01727
53.55 0.02113
53.6 0.02009
53.65 0.01375
53.7 0.01153
53.75 0.00901
53.8 0.009
53.85 0.00919
53.9 0.00386
53.95 0.00166
54 0.00016
54.05 -0.00574
54.1 -0.01175
54.15 -0.01827
54.2 -0.01702
54.25 -0.01127
54.3 -0.00366
54.35 0.00345
54.4 0.00633
54.45 0.01173
54.5 0.01694
54.55 0.01942
54.6 0.0163
54.65 0.01104
54.7 0.01072
54.75 0.01183
54.8 0.01375
54.85 0.00941
54.9 0.00306
54.95 -0.00209
55 -0.00997
55.05 -0.01769
55.1 -0.02266
55.15 -0.02325
55.2 -0.02386
55.25 -0.02709
55.3 -0.02704
55.35 -0.0251
55.4 -0.02487
55.45 -0.02752
55.5 -0.02369
55.55 -0.01833
55.6 -0.01732
55.65 -0.01098
55.7 -0.00656
55.75 -0.00223
55.8 0.00058
55.85 0.00314
55.9 0.00592
55.95 0.01097
56 0.01505
56.05 0.0165
56.1 0.01712
56.15 0.01337
56.2 0.00806
56.25 0.00646
56.3 0.00901
56.35 0.01258
56.4 0.0171
56.45 0.02231
56.5 0.02097
56.55 0.01867
56.6 0.01478
56.65 0.00904
56.7 -0.0003
56.75 -0.00521
56.8 -0.00998
56.85 -0.01249
56.9 -0.00904
56.95 -0.00646
57 -0.00256
57.05 0.00066
57.1 0.00412
57.15 0.00187
57.2 0.00115
57.25 -0.0015
57.3 -0.0006
57.35 0.00309
57.4 0.00684
57.45 0.00637
57.5 0.00961
57.55 0.01288
57.6 0.0095
57.65 0.00731
57.7 0.00276
57.75 -0.00255
57.8 -0.0078
57.85 -0.00902
57.9 -0.00949
57.95 -0.0104
58 -0.00618
58.05 -0.00523
58.1 -0.00316
58.15 -0.00502
58.2 -0.00292
58.25 -0.00591
58.3 -0.00864
58.35 -0.01197
58.4 -0.01284
58.45 -0.0122
58.5 -0.00666
58.55 0.00127
58.6 0.0032
58.65 0.00138
58.7 0.00319
58.75 0.00501
58.8 0.00197
58.85 -0.00116
58.9 -0.00744
58.95 -0.01335
59 -0.01803
59.05 -0.01771
59.1 -0.01937
59.15 -0.0179
59.2 -0.01748
59.25 -0.01915
59.3 -0.01475
59.35 -0.01001
59.4 -0.00677
59.45 -0.00553
59.5 -0.00659
59.55 -0.01114
59.6 -0.01012
59.65 -0.01177
59.7 -0.00765
59.75 -0.00028
59.8 0.00529
59.85 0.01152
59.9 0.01883
59.95 0.01993
60 0.01978
60.05 0.01552
60.1 0.00721
60.15 -0.00085
60.2 -0.00227
60.25 -0.00394
60.3 -0.00542
60.35 -0.00864
60.4 -0.01047
60.45 -0.01216
60.5 -0.01054
60.55 -0.00809
60.6 -0.00629
60.65 -0.00424
60.7 -0.00184
60.75 -0.00428
60.8 -0.00976
60.85 -0.01624
60.9 -0.02294
60.95 -0.02522
61 -0.02336
61.05 -0.01913
61.1 -0.01573
61.15 -0.01085
61.2 -0.00433
61.25 0.00122
61.3 0.00443
61.35 0.0057
61.4 0.0016
61.45 -0.00138
61.5 -0.00381
61.55 -0.00593
61.6 -0.00512
61.65 -0.00384
61.7 0.002
61.75 0.00174
61.8 -0.00064
61.85 0.00145
61.9 0.00667
61.95 0.01338
62 0.02012
62.05 0.02251
62.1 0.02228
62.15 0.02311
62.2 0.0176
62.25 0.01665
62.3 0.01393
62.35 0.00797
62.4 0.00563
62.45 0.00649
62.5 0.00817
62.55 0.01151
62.6 0.01693
62.65 0.01462
62.7 0.01377
62.75 0.01212
62.8 0.01196
62.85 0.01433
62.9 0.0174
62.95 0.01919
63 0.01565
63.05 0.00771
63.1 -0.00038
63.15 -0.00944
63.2 -0.01789
63.25 -0.0259
63.3 -0.02948
63.35 -0.03111
63.4 -0.03181
63.45 -0.0301
63.5 -0.03068
63.55 -0.02945
63.6 -0.02244
63.65 -0.01965
63.7 -0.01314
63.75 -0.00948
63.8 -0.00907
63.85 -0.01181
63.9 -0.00791
63.95 -0.00916
64 -0.00736
64.05 -0.00411
64.1 -0.00199
64.15 0.00067
64.2 0.00364
64.25 0.00647
64.3 0.00519
64.35 0.00687
64.4 0.01052
64.45 0.00733
64.5 0.0053
64.55 0.00566
64.6 0.0024
64.65 -0.00001
64.7 0.00047
64.75 -0.00394
64.8 -0.00676
64.85 -0.00641
64.9 -0.00936
64.95 -0.00627
65 -0.00101
65.05 0.00116
65.1 -0.00126
65.15 -0.00644
65.2 -0.00979
65.25 -0.00834
65.3 -0.00486
65.35 -0.00435
65.4 0.00056
65.45 0.0024
65.5 -0.00055
65.55 -0.00256
65.6 -0.00287
65.65 0.00033
65.7 0.00251
65.75 0.00252
65.8 0.00568
65.85 0.00525
65.9 0.0085
65.95 0.01398
66 0.01212
66.05 0.00726
66.1 -0.00007
66.15 -0.00144
66.2 -0.00456
66.25 -0.00336
66.3 -0.00126
66.35 0.00492
66.4 0.01237
66.45 0.01562
66.5 0.0186
66.55 0.0198
66.6 0.01632
66.65 0.01143
66.7 0.00282
66.75 -0.00544
66.8 -0.0149
66.85 -0.02197
66.9 -0.02529
66.95 -0.02948
67 -0.03211
67.05 -0.03306
67.1 -0.02844
67.15 -0.02611
67.2 -0.02687
67.25 -0.02506
67.3 -0.02437
67.35 -0.02188
67.4 -0.02067
67.45 -0.02186
67.5 -0.0182
67.55 -0.01331
67.6 -0.01144
67.65 -0.01347
67.7 -0.00913
67.75 -0.00373
67.8 0.00179
67.85 0.00224
67.9 0.00678
67.95 0.00543
68 0.00135
68.05 0.00279
68.1 0.0068
68.15 0.01206
68.2 0.01533
68.25 0.01703
68.3 0.01526
68.35 0.01228
68.4 0.0098
68.45 0.00562
68.5 0.00271
68.55 -0.0005
68.6 -0.00408
68.65 -0.00923
68.7 -0.01383
68.75 -0.01171
68.8 -0.00878
68.85 -0.00988
68.9 -0.01156
68.95 -0.00776
69 -0.00546
69.05 -0.00453
69.1 0.00061
69.15 0.00571
69.2 0.00564
69.25 0.00368
69.3 0.00667
69.35 0.00963
69.4 0.01004
69.45 0.01304
69.5 0.01162
69.55 0.00634
69.6 0.00396
69.65 0.00331
69.7 -0.00033
69.75 -0.00526
69.8 -0.00827
69.85 -0.01212
69.9 -0.01066
69.95 -0.01114
70 -0.00628
70.05 -0.00466
70.1 -0.00355
70.15 -0.00574
70.2 -0.01091
70.25 -0.01252
70.3 -0.01514
70.35 -0.01116
70.4 -0.00578
70.45 0.00258
70.5 0.00474
70.55 0.01078
70.6 0.01526
70.65 0.01524
70.7 0.01303
70.75 0.01311
70.8 0.01028
70.85 0.01059
70.9 0.00717
70.95 0.00798
71 0.00739
71.05 0.00783
71.1 0.00819
71.15 0.00405
71.2 -0.00045
71.25 -0.00225
71.3 0.00152
71.35 -0.00056
71.4 -0.00025
71.45 0.003
71.5 0.00685
71.55 0.00707
71.6 0.00597
71.65 0.00333
71.7 -0.00082
71.75 -0.00745
71.8 -0.00907
71.85 -0.00907
71.9 -0.00336
71.95 -0.00387
72 -0.00482
72.05 -0.00823
72.1 -0.00854
72.15 -0.00383
72.2 -0.00383
72.25 -0.00189
72.3 0.00056
72.35 0.00263
72.4 0.00077
72.45 0.00057
72.5 0.00275
72.55 0.00843
72.6 0.01575
72.65 0.01695
72.7 0.01589
72.75 0.01352
72.8 0.01409
72.85 0.01583
72.9 0.01149
72.95 0.00352
73 0.00107
73.05 0.0004
73.1 -0.00253
73.15 -0.00449
73.2 -0.00287
73.25 -0.00028
73.3 0.00523
73.35 0.00434
73.4 -0.00044
73.45 -0.00305
73.5 -0.00251
73.55 -0.00441
73.6 -0.00295
73.65 -0.00074
73.7 0.00128
73.75 0.00552
73.8 0.00475
73.85 0.00614
73.9 0.00722
73.95 0.01024
74 0.01239
74.05 0.01029
74.1 0.01157
74.15 0.01078
74.2 0.00534
74.25 -0.00006
74.3 -0.00548
74.35 -0.00625
74.4 -0.00483
74.45 -0.00225
74.5 -0.00282
74.55 -0.00285
74.6 -0.00488
74.65 -0.00966
74.7 -0.01625
74.75 -0.02228
74.8 -0.02094
74.85 -0.01482
74.9 -0.01329
74.95 -0.01267
75 -0.00971
75.05 -0.01082
75.1 -0.0083
75.15 -0.00747
75.2 -0.00345
75.25 -0.00109
75.3 -0.00186
75.35 -0.00093
75.4 0.00242
75.45 0.00662
75.5 0.0051
75.55 0.00311
75.6 0.00497
75.65 0.00876
75.7 0.01084
75.75 0.00745
75.8 0.00667
75.85 0.00474
75.9 0.00736
75.95 0.00875
76 0.01074
76.05 0.00944
76.1 0.00532
76.15 0.00254
76.2 -0.00084
76.25 0.00156
76.3 -0.00024
76.35 -0.00381
76.4 -0.0051
76.45 -0.0097
76.5 -0.01246
76.55 -0.01566
76.6 -0.01162
76.65 -0.0099
76.7 -0.01023
76.75 -0.01205
76.8 -0.00992
76.85 -0.0074
76.9 -0.00505
76.95 0.00121
77 0.00406
77.05 0.00212
77.1 -0.00133
77.15 -0.00154
77.2 0.00271
77.25 0.00325
77.3 0.0076
77.35 0.01227
77.4 0.01537
77.45 0.0129
77.5 0.01004
77.55 0.00789
77.6 0.00151
77.65 -0.00072
77.7 -0.00248
77.75 -0.00302
77.8 -0.0009
77.85 -0.00177
77.9 -0.00515
77.95 -0.0033
78 0.00187
78.05 0.00578
78.1 0.00756
78.15 0.01101
78.2 0.01401
78.25 0.01862
78.3 0.02036
78.35 0.02252
78.4 0.02001
78.45 0.0157
78.5 0.01117
78.55 0.00527
78.6 -0.00318
78.65 -0.0081
78.7 -0.01316
78.75 -0.01143
78.8 -0.00876
78.85 -0.00858
78.9 -0.00752
78.95 -0.00768
79 -0.00366
79.05 -0.00417
79.1 -0.0062
79.15 -0.01113
79.2 -0.00877
79.25 -0.00226
79.3 0.00097
79.35 -0.00023
79.4 -0.00431
79.45 -0.00535
79.5 -0.00475
79.55 -0.00158
79.6 -0.0023
79.65 -0.00259
79.7 -0.00212
79.75 -0.00282
79.8 -0.00601
79.85 -0.00802
79.9 -0.0065
79.95 -0.00138
80 0.00137
80.05 0.00133
80.1 -0.00045
80.15 -0.00211
80.2 -0.00082
80.25 0.00144
80.3 0.0003
80.35 -0.00217
80.4 0.00121
80.45 0.00704
80.5 0.00675
80.55 0.00171
80.6 -0.00217
80.65 -0.00428
80.7 -0.00565
80.75 -0.00553
80.8 -0.00641
80.85 -0.00851
80.9 -0.01368
80.95 -0.01782
81 -0.02038
81.05 -0.02388
81.1 -0.02462
81.15 -0.02211
81.2 -0.01479
81.25 -0.01303
81.3 -0.01187
81.35 -0.01126
81.4 -0.01303
81.45 -0.0112
81.5 -0.00703
81.55 -0.003
81.6 -0.00287
81.65 -0.001
81.7 0.00066
81.75 -0.00152
81.8 -0.00034
81.85 0.00089
81.9 0.00523
81.95 0.01252
82 0.01376
82.05 0.01804
82.1 0.01848
82.15 0.02011
82.2 0.01518
82.25 0.00687
82.3 -0.00099
82.35 -0.00496
82.4 -0.00266
82.45 0.00211
82.5 0.00538
82.55 0.00483
82.6 0.00151
82.65 0.00338
82.7 0.00159
82.75 0.00274
82.8 0.00071
82.85 -0.00113
82.9 -0.00539
82.95 -0.00834
83 -0.00567
83.05 -0.00551
83.1 -0.00636
83.15 -0.00467
83.2 0.00031
83.25 0.00229
83.3 0.00828
83.35 0.00714
83.4 0.00728
83.45 0.00282
83.5 0.00011
83.55 -0.00277
83.6 -0.00415
83.65 -0.00587
83.7 -0.00719
83.75 -0.01162
83.8 -0.01575
83.85 -0.01582
83.9 -0.01846
83.95 -0.0141
84 -0.01073
84.05 -0.0035
84.1 0.00025
84.15 0.00337
84.2 0.00333
84.25 0.00428
84.3 0.00915
84.35 0.00967
84.4 0.00815
84.45 0.01045
84.5 0.01479
84.55 0.01931
84.6 0.01741
84.65 0.01791
84.7 0.02128
84.75 0.02237
84.8 0.02032
84.85 0.01323
84.9 0.01204
84.95 0.0137
85 0.01219
85.05 0.0132
85.1 0.01071
85.15 0.00974
85.2 0.00403
85.25 0.00203
85.3 0.00225
85.35 0.00461
85.4 0.00976
85.45 0.01222
85.5 0.01085
85.55 0.00522
85.6 -0.0017
85.65 -0.00487
85.7 -0.008
85.75 -0.00927
85.8 -0.01042
85.85 -0.01108
85.9 -0.00819
85.95 -0.0093
86 -0.00636
86.05 0.00025
86.1 0.00778
86.15 0.01655
86.2 0.01658
86.25 0.01923
86.3 0.01497
86.35 0.00802
86.4 -0.00098
86.45 -0.00281
86.5 -0.00321
86.55 -0.00014
86.6 0.00029
86.65 0.00436
86.7 0.00961
86.75 0.01518
86.8 0.02196
86.85 0.02263
86.9 0.01892
86.95 0.01632
87 0.01653
87.05 0.0152
87.1 0.01692
87.15 0.01866
87.2 0.02147
87.25 0.01974
87.3 0.01473
87.35 0.00916
87.4 0.0051
87.45 0.00619
87.5 0.00334
87.55 0.0008
87.6 0.00241
87.65 0.0072
87.7 0.00951
87.75 0.01028
87.8 0.0091
87.85 0.00949
87.9 0.00489
87.95 -0.001
88 -0.00572
88.05 -0.01266
88.1 -0.01978
88.15 -0.02435
88.2 -0.0275
88.25 -0.02859
88.3 -0.02498
88.35 -0.01995
88.4 -0.01433
88.45 -0.0114
88.5 -0.01108
88.55 -0.00853
88.6 -0.00616
88.65 -0.00128
88.7 0.00544
88.75 0.0118
88.8 0.01609
88.85 0.02106
88.9 0.02361
88.95 0.0255
89 0.02223
89.05 0.01403
89.1 0.00729
89.15 0.0037
89.2 0.00248
89.25 0.00514
89.3 0.00582
89.35 0.00281
89.4 -0.00169
89.45 -0.00379
89.5 -0.00991
89.55 -0.00951
89.6 -0.01085
89.65 -0.01305
89.7 -0.01361
89.75 -0.00893
89.8 -0.00241
89.85 0.00291
89.9 0.01019
89.95 0.01621
90 0.02091
90.05 0.0178
90.1 0.01228
90.15 0.00921
90.2 0.00414
90.25 -0.00087
90.3 -0.00913
90.35 -0.01449
90.4 -0.02035
90.45 -0.02105
90.5 -0.02018
90.55 -0.01477
90.6 -0.00689
90.65 0.00232
90.7 0.00618
90.75 0.0118
90.8 0.00982
90.85 0.00718
90.9 0.00691
90.95 0.00407
91 0.00096
91.05 0.00299
91.1 0.00132
91.15 -0.00234
91.2 -0.00687
91.25 -0.00732
91.3 -0.00668
91.35 -0.00721
91.4 -0.00609
91.45 -0.00802
91.5 -0.00704
91.55 -0.0027
91.6 0.00172
91.65 0.00705
91.7 0.01171
91.75 0.01419
91.8 0.01689
91.85 0.01681
91.9 0.01946
91.95 0.02042
92 0.01823
92.05 0.01123
92.1 0.00793
92.15 0.00566
92.2 0.00027
92.25 -0.00474
92.3 -0.00754
92.35 -0.00727
92.4 -0.01159
92.45 -0.0167
92.5 -0.02013
92.55 -0.02304
92.6 -0.02184
92.65 -0.01821
92.7 -0.01126
92.75 -0.0043
92.8 0
92.85 -0.0017
92.9 -0.00586
92.95 -0.01165
93 -0.01277
93.05 -0.01038
93.1 -0.01085
93.15 -0.00681
93.2 -0.00093
93.25 0.00356
93.3 0.00587
93.35 0.0057
93.4 0.00469
93.45 0.00417
93.5 0.00627
93.55 0.0083
93.6 0.00652
93.65 0.00427
93.7 0.0049
93.75 0.00443
93.8 0.00376
93.85 0.00493
93.9 0.00535
93.95 0.00119
94 -0.0037
94.05 -0.01013
94.1 -0.01656
94.15 -0.01808
94.2 -0.01416
94.25 -0.01341
94.3 -0.01462
94.35 -0.01029
94.4 -0.00889
94.45 -0.00418
94.5 -0.00295
94.55 -0.00565
94.6 -0.00264
94.65 -0.00221
94.7 -0.00346
94.75 -0.00429
94.8 -0.00788
94.85 -0.01013
94.9 -0.00806
94.95 -0.00256
95 0.00212
95.05 0.00281
95.1 0.00148
95.15 -0.00378
95.2 -0.00471
95.25 -0.00263
95.3 0.00287
95.35 0.01052
95.4 0.01814
95.45 0.02104
95.5 0.01919
95.55 0.01755
95.6 0.01264
95.65 0.00981
95.7 0.01043
95.75 0.00564
95.8 0.00363
95.85 0.00393
95.9 0.00158
95.95 0.00071
96 0.00046
96.05 -0.00371
96.1 -0.0088
96.15 -0.01151
96.2 -0.01642
96.25 -0.01414
96.3 -0.00933
96.35 -0.00848
96.4 -0.00607
96.45 -0.00177
96.5 0.00192
96.55 0.00106
96.6 -0.00175
96.65 -0.00066
96.7 -0.00443
96.75 -0.00393
96.8 -0.00004
96.85 0.00665
96.9 0.01166
96.95 0.0094
97 0.0057
97.05 0.00243
97.1 0.00015
97.15 -0.00542
97.2 -0.00494
97.25 -0.00551
97.3 -0.00842
97.35 -0.0077
97.4 -0.01134
97.45 -0.01156
97.5 -0.0149
97.55 -0.01983
97.6 -0.0253
97.65 -0.02959
97.7 -0.03109
97.75 -0.02506
97.8 -0.01951
97.85 -0.01713
97.9 -0.0101
97.95 -0.00803
98 -0.00198
98.05 0.00663
98.1 0.01327
98.15 0.02045
98.2 0.02634
98.25 0.02708
98.3 0.02144
98.35 0.01693
98.4 0.01531
98.45 0.01367
98.5 0.01344
98.55 0.01624
98.6 0.01892
98.65 0.01751
98.7 0.01875
98.75 0.02037
98.8 0.01666
98.85 0.01291
98.9 0.01078
98.95 0.01191
99 0.00882
99.05 0.00116
99.1 -0.00594
99.15 -0.01104
99.2 -0.01693
99.25 -0.01603
99.3 -0.01012
99.35 -0.00961
99.4 -0.0078
99.45 -0.00745
99.5 -0.01125
99.55 -0.01054
99.6 -0.0116
99.65 -0.01156
99.7 -0.00919
99.75 -0.00894
99.8 -0.00914
99.85 -0.01039
99.9 -0.00787
99.95 -0.00408
