0 0
0.05 0.00525
0.1 0.01476
0.15 0.02162
0.2 0.02535
0.25 0.03014
0.3 0.03915
0.35 0.04188
0.4 0.0412
0.45 0.03829
0.5 0.03581
0.55 0.03821
0.6 0.03907
0.65 0.04405
0.7 0.04738
0.75 0.04529
0.8 0.04402
0.85 0.04055
0.9 0.04059
0.95 0.03882
1 0.03441
1.05 0.03036
1.1 0.02806
1.15 0.02645
1.2 0.02609
1.25 0.03115
1.3 0.03284
1.35 0.03015
1.4 0.02883
1.45 0.02996
1.5 0.03292
1.55 0.03628
1.6 0.04289
1.65 0.05057
1.7 0.05235
1.75 0.05565
1.8 0.05977
1.85 0.05889
1.9 0.05711
1.95 0.05111
2 0.04287
2.05 0.03557
2.1 0.03456
2.15 0.03035
2.2 0.02636
2.25 0.0205
2.3 0.01888
2.35 0.01716
2.4 0.01733
2.45 0.0179
2.5 0.01548
2.55 0.01296
2.6 0.01053
2.65 0.01437
2.7 0.02042
2.75 0.02514
2.8 0.02733
2.85 0.02666
2.9 0.02935
2.95 0.02743
3 0.02621
3.05 0.0223
3.1 0.01989
3.15 0.01766
3.2 0.01709
3.25 0.01364
3.3 0.009
3.35 0.01033
3.4 0.01256
3.45 0.0188
3.5 0.02105
3.55 0.02496
3.6 0.03006
3.65 0.03641
3.7 0.03849
3.75 0.03711
3.8 0.03451
3.85 0.03524
3.9 0.03852
3.95 0.03987
4 0.03495
4.05 0.02699
4.1 0.01791
4.15 0.00797
4.2 -0.0024
4.25 -0.01063
4.3 -0.0164
4.35 -0.02115
4.4 -0.02397
4.45 -0.02652
4.5 -0.02731
4.55 -0.02689
4.6 -0.02336
4.65 -0.02124
4.7 -0.02413
4.75 -0.0276
4.8 -0.02798
4.85 -0.02977
4.9 -0.03749
4.95 -0.04531
5 -0.05813
5.05 -0.07508
5.1 -0.09435
5.15 -0.11998
5.2 -0.14819
5.25 -0.17139
5.3 -0.19699
5.35 -0.21965
5.4 -0.24114
5.45 -0.2634
5.5 -0.286
5.55 -0.3082
5.6 -0.33315
5.65 -0.35905
5.7 -0.38352
5.75 -0.40783
5.8 -0.42563
5.85 -0.43238
5.9 -0.43606
5.95 -0.43456
6 -0.42529
6.05 -0.41291
6.1 -0.39286
6.15 -0.36656
6.2 -0.3285
6.25 -0.28285
6.3 -0.23646
6.35 -0.19104
6.4 -0.13785
6.45 -0.0887
6.5 -0.03971
6.55 0.00723
6.6 0.05268
6.65 0.10021
6.7 0.14458
6.75 0.18537
6.8 0.22331
6.85 0.26178
6.9 0.29252
6.95 0.32081
7 0.33977
7.05 0.35362
7.1 0.36305
7.15 0.36759
7.2 0.37194
7.25 0.36853
7.3 0.36092
7.35 0.35073
7.4 0.34018
7.45 0.32949
7.5 0.31807
7.55 0.29946
7.6 0.2822
7.65 0.26873
7.7 0.25039
7.75 0.23126
7.8 0.21205
7.85 0.194
7.9 0.18167
7.95 0.17258
8 0.16499
8.05 0.1604
8.1 0.15152
8.15 0.1418
8.2 0.13348
8.25 0.13009
8.3 0.12758
8.35 0.1244
8.4 0.12722
8.45 0.13368
8.5 0.13413
8.55 0.134
8.6 0.13426
8.65 0.13781
8.7 0.14306
8.75 0.14151
8.8 0.13573
8.85 0.12941
8.9 0.1222
8.95 0.1139
9 0.11223
9.05 0.11315
9.1 0.11855
9.15 0.12328
9.2 0.12838
9.25 0.12653
9.3 0.1196
9.35 0.11814
9.4 0.11496
9.45 0.10863
9.5 0.10047
9.55 0.0933
9.6 0.08482
9.65 0.07557
9.7 0.06859
9.75 0.06501
9.8 0.0667
9.85 0.06666
9.9 0.06205
9.95 0.05655
10 0.04827
10.05 0.04089
10.1 0.03916
10.15 0.0359
10.2 0.03445
10.25 0.03508
10.3 0.03122
10.35 0.03022
10.4 0.02918
10.45 0.02347
10.5 0.01725
10.55 0.00779
10.6 -0.00024
10.65 -0.00851
10.7 -0.01089
10.75 -0.01437
10.8 -0.0178
10.85 -0.02114
10.9 -0.02112
10.95 -0.01983
11 -0.0157
11.05 -0.0143
11.1 -0.01778
11.15 -0.02288
11.2 -0.02937
11.25 -0.03383
11.3 -0.03532
11.35 -0.03935
11.4 -0.03948
11.45 -0.03631
11.5 -0.03597
11.55 -0.03317
11.6 -0.03415
11.65 -0.03409
11.7 -0.03549
11.75 -0.03611
11.8 -0.03382
11.85 -0.0344
11.9 -0.03649
11.95 -0.04199
12 -0.04077
12.05 -0.04088
12.1 -0.04353
12.15 -0.04503
12.2 -0.04819
12.25 -0.05257
12.3 -0.05782
12.35 -0.05784
12.4 -0.05266
12.45 -0.04937
12.5 -0.04895
12.55 -0.04412
12.6 -0.03731
12.65 -0.03095
12.7 -0.0269
12.75 -0.02004
12.8 -0.01344
12.85 -0.0093
12.9 -0.00704
12.95 -0.00649
13 -0.00723
13.05 -0.00863
13.1 -0.01122
13.15 -0.01491
13.2 -0.01645
13.25 -0.01969
13.3 -0.0195
13.35 -0.01695
13.4 -0.01861
13.45 -0.02147
13.5 -0.02138
13.55 -0.02469
13.6 -0.0269
13.65 -0.03141
13.7 -0.03491
13.75 -0.03231
13.8 -0.02496
13.85 -0.0192
13.9 -0.01229
13.95 -0.00816
14 -0.00554
14.05 -0.00433
14.1 -0.00696
14.15 -0.00579
14.2 -0.00452
14.25 -0.00782
14.3 -0.01372
14.35 -0.01425
14.4 -0.01641
14.45 -0.016
14.5 -0.01735
14.55 -0.01577
14.6 -0.0139
14.65 -0.01096
14.7 -0.00511
14.75 -0.00092
14.8 0.00513
14.85 0.0067
14.9 0.00703
14.95 0.00316
15 -0.00474
15.05 -0.0062
15.1 -0.01033
15.15 -0.01693
15.2 -0.0192
15.25 -0.01635
15.3 -0.01763
15.35 -0.01393
15.4 -0.01492
15.45 -0.01671
15.5 -0.02182
15.55 -0.02214
15.6 -0.01908
15.65 -0.01235
15.7 -0.0091
15.75 -0.00625
15.8 -0.00338
15.85 -0.00412
15.9 -0.00256
15.95 0.00203
16 0.00694
16.05 0.00698
16.1 0.00773
16.15 0.00274
16.2 -0.00108
16.25 -0.00271
16.3 -0.00574
16.35 -0.00615
16.4 -0.01025
16.45 -0.01516
16.5 -0.01553
16.55 -0.01449
16.6 -0.0147
16.65 -0.01574
16.7 -0.01692
16.75 -0.01278
16.8 -0.00923
16.85 -0.0085
16.9 -0.00919
16.95 -0.00702
17 -0.00677
17.05 -0.00339
17.1 0.00116
17.15 0.00674
17.2 0.00758
17.25 0.00572
17.3 0.00234
17.35 -0.00409
17.4 -0.00529
17.45 -0.00212
17.5 0.00262
17.55 0.00411
17.6 0.00436
17.65 0.00015
17.7 -0.00516
17.75 -0.01034
17.8 -0.01336
17.85 -0.01248
17.9 -0.01077
17.95 -0.00719
18 -0.00392
18.05 0.00035
18.1 -0.00075
18.15 0.00207
18.2 0.0063
18.25 0.01036
18.3 0.00993
18.35 0.0046
18.4 -0.00295
18.45 -0.00463
18.5 -0.00605
18.55 -0.00476
18.6 -0.00742
18.65 -0.00858
18.7 -0.009
18.75 -0.00793
18.8 -0.00818
18.85 -0.0127
18.9 -0.01822
18.95 -0.0183
19 -0.0185
19.05 -0.02201
19.1 -0.023
19.15 -0.02109
19.2 -0.02135
19.25 -0.01642
19.3 -0.0119
19.35 -0.01023
19.4 -0.01093
19.45 -0.01385
19.5 -0.01641
19.55 -0.01467
19.6 -0.0085
19.65 -0.0015
19.7 -0.00128
19.75 -0.0047
19.8 -0.00376
19.85 0.00015
19.9 -0.00082
19.95 0.0003
20 0.00461
20.05 0.00416
20.1 -0.00045
20.15 -0.00212
20.2 -0.00748
20.25 -0.01094
20.3 -0.00817
20.35 -0.00946
20.4 -0.00752
20.45 -0.00222
20.5 0.00019
20.55 0.00526
20.6 0.00839
20.65 0.00929
20.7 0.00729
20.75 0.00447
20.8 -0.00094
20.85 -0.00866
20.9 -0.01264
20.95 -0.01576
21 -0.01356
21.05 -0.01359
21.1 -0.01622
21.15 -0.01495
21.2 -0.01223
21.25 -0.00584
21.3 -0.00203
21.35 -0.0039
21.4 -0.00137
21.45 -0.00063
21.5 -0.00107
21.55 0.0027
21.6 0.00448
21.65 0.00772
21.7 0.01035
21.75 0.01481
21.8 0.01401
21.85 0.00888
21.9 0.00491
21.95 0.00333
22 0.00476
22.05 0.0085
22.1 0.01251
22.15 0.00963
22.2 0.00776
22.25 0.00585
22.3 0.00699
22.35 0.00898
22.4 0.01
22.45 0.01351
22.5 0.01011
22.55 0.00543
22.6 0.00148
22.65 -0.00529
22.7 -0.00657
22.75 -0.00437
22.8 -0.00375
22.85 -0.00717
22.9 -0.00725
22.95 -0.00724
23 -0.0098
23.05 -0.00842
23.1 -0.01108
23.15 -0.00809
23.2 -0.00975
23.25 -0.01218
23.3 -0.01213
23.35 -0.01392
23.4 -0.00987
23.45 -0.00366
23.5 -0.00315
23.55 0.00044
23.6 0.00443
23.65 0.00558
23.7 0.00267
23.75 -0.0035
23.8 -0.01003
23.85 -0.01648
23.9 -0.0172
23.95 -0.01836
24 -0.01563
24.05 -0.01615
24.1 -0.01892
24.15 -0.01532
24.2 -0.01209
24.25 -0.01206
24.3 -0.01018
24.35 -0.01058
24.4 -0.00982
24.45 -0.01199
24.5 -0.01199
24.55 -0.01334
24.6 -0.01155
24.65 -0.00927
24.7 -0.00739
24.75 -0.00803
24.8 -0.0049
24.85 0.0016
24.9 0.00467
24.95 0.0033
25 -0.00202
25.05 -0.00203
25.1 -0.00009
25.15 0.00189
25.2 0.00325
25.25 0.00792
25.3 0.00681
25.35 0.0016
25.4 -0.00167
25.45 -0.00259
25.5 -0.00185
25.55 -0.00086
25.6 0.00112
25.65 -0.00164
25.7 0.00112
25.75 0.00578
25.8 0.00928
25.85 0.01044
25.9 0.01185
25.95 0.01395
26 0.01107
26.05 0.01059
26.1 0.00596
26.15 -0.0008
26.2 -0.00202
26.25 -0.00641
26.3 -0.00685
26.35 -0.00826
26.4 -0.00444
26.45 -0.00236
26.5 -0.00407
26.55 -0.00448
26.6 -0.00188
26.65 -0.00371
26.7 -0.00102
26.75 0.00129
26.8 0.00651
26.85 0.0095
26.9 0.01265
26.95 0.00934
27 0.00664
27.05 0.00526
27.1 0.00783
27.15 0.00492
27.2 -0.00178
27.25 -0.00452
27.3 -0.0084
27.35 -0.01026
27.4 -0.01
27.45 -0.00969
27.5 -0.00869
27.55 -0.00574
27.6 -0.00253
27.65 -0.00188
27.7 -0.00605
27.75 -0.01275
27.8 -0.02262
27.85 -0.03123
27.9 -0.04628
27.95 -0.06158
28 -0.0817
28.05 -0.10268
28.1 -0.12847
28.15 -0.15655
28.2 -0.18717
28.25 -0.22399
28.3 -0.25849
28.35 -0.30016
28.4 -0.34776
28.45 -0.39738
28.5 -0.44764
28.55 -0.50618
28.6 -0.56823
28.65 -0.63661
28.7 -0.7095
28.75 -0.78837
28.8 -0.86873
28.85 -0.95566
28.9 -1.04573
28.95 -1.13636
29 -1.22897
29.05 -1.32273
29.1 -1.4173
29.15 -1.51031
29.2 -1.60363
29.25 -1.69623
29.3 -1.78609
29.35 -1.86975
29.4 -1.95145
29.45 -2.0202
29.5 -2.08079
29.55 -2.13765
29.6 -2.18783
29.65 -2.22939
29.7 -2.25703
29.75 -2.26719
29.8 -2.26661
29.85 -2.25007
29.9 -2.22306
29.95 -2.18043
30 -2.1261
30.05 -2.06291
30.1 -1.98834
30.15 -1.90215
30.2 -1.80668
30.25 -1.70128
30.3 -1.5851
30.35 -1.46463
30.4 -1.34131
30.45 -1.21414
30.5 -1.07826
30.55 -0.93195
30.6 -0.78372
30.65 -0.6291
30.7 -0.47686
30.75 -0.32689
30.8 -0.17605
30.85 -0.02307
30.9 0.13066
30.95 0.27687
31 0.42043
31.05 0.56288
31.1 0.69963
31.15 0.82728
31.2 0.95139
31.25 1.06336
31.3 1.16295
31.35 1.25792
31.4 1.34872
31.45 1.43347
31.5 1.50872
31.55 1.57683
31.6 1.63487
31.65 1.68854
31.7 1.73434
31.75 1.77404
31.8 1.80322
31.85 1.82928
31.9 1.85348
31.95 1.87174
32 1.88313
32.05 1.88988
32.1 1.89411
32.15 1.89304
32.2 1.88708
32.25 1.88178
32.3 1.8805
32.35 1.87616
32.4 1.87132
32.45 1.86185
32.5 1.85319
32.55 1.8394
32.6 1.8288
32.65 1.81447
32.7 1.80227
32.75 1.79209
32.8 1.77706
32.85 1.75878
32.9 1.73663
32.95 1.71226
33 1.69201
33.05 1.67102
33.1 1.64799
33.15 1.62533
33.2 1.59417
33.25 1.55809
33.3 1.5223
33.35 1.48434
33.4 1.44737
33.45 1.41184
33.5 1.37748
33.55 1.33891
33.6 1.30146
33.65 1.25882
33.7 1.21209
33.75 1.16095
33.8 1.10918
33.85 1.0593
33.9 1.01466
33.95 0.97461
34 0.92978
34.05 0.88223
34.1 0.83783
34.15 0.79056
34.2 0.74623
34.25 0.69923
34.3 0.65297
34.35 0.61208
34.4 0.57415
34.45 0.53608
34.5 0.4952
34.55 0.45561
34.6 0.42139
34.65 0.38325
34.7 0.34271
34.75 0.3032
34.8 0.26451
34.85 0.23361
34.9 0.20163
34.95 0.17077
35 0.14088
35.05 0.11758
35.1 0.09638
35.15 0.07664
35.2 0.0534
35.25 0.03254
35.3 0.00662
35.35 -0.01452
35.4 -0.03322
35.45 -0.05488
35.5 -0.07712
35.55 -0.0992
35.6 -0.11954
35.65 -0.1365
35.7 -0.1524
35.75 -0.1636
35.8 -0.17623
35.85 -0.18648
35.9 -0.19687
35.95 -0.2102
36 -0.22207
36.05 -0.23563
36.1 -0.24868
36.15 -0.26269
36.2 -0.27778
36.25 -0.28464
36.3 -0.29039
36.35 -0.29172
36.4 -0.29551
36.45 -0.29994
36.5 -0.30548
36.55 -0.30931
36.6 -0.30882
36.65 -0.30728
36.7 -0.3108
36.75 -0.3153
36.8 -0.31941
36.85 -0.32039
36.9 -0.32011
36.95 -0.32043
37 -0.32024
37.05 -0.32166
37.1 -0.32268
37.15 -0.32124
37.2 -0.32385
37.25 -0.32876
37.3 -0.33028
37.35 -0.33352
37.4 -0.33136
37.45 -0.32735
37.5 -0.32436
37.55 -0.3203
37.6 -0.31285
37.65 -0.3086
37.7 -0.30119
37.75 -0.29651
37.8 -0.29465
37.85 -0.29023
37.9 -0.2896
37.95 -0.28849
38 -0.28962
38.05 -0.28737
38.1 -0.28698
38.15 -0.28833
38.2 -0.28459
38.25 -0.28026
38.3 -0.27614
38.35 -0.2669
38.4 -0.26105
38.45 -0.25272
38.5 -0.24443
38.55 -0.23379
38.6 -0.22974
38.65 -0.22903
38.7 -0.23073
38.75 -0.23241
38.8 -0.23575
38.85 -0.23457
38.9 -0.22941
38.95 -0.22066
39 -0.21661
39.05 -0.21008
39.1 -0.20822
39.15 -0.20565
39.2 -0.20516
39.25 -0.20072
39.3 -0.1953
39.35 -0.19458
39.4 -0.19564
39.45 -0.19699
39.5 -0.19438
39.55 -0.18881
39.6 -0.18508
39.65 -0.18517
39.7 -0.18225
39.75 -0.17717
39.8 -0.17063
39.85 -0.16707
39.9 -0.16693
39.95 -0.16499
40 -0.1612
40.05 -0.15338
40.1 -0.15188
40.15 -0.14683
40.2 -0.14123
40.25 -0.13801
40.3 -0.13862
40.35 -0.1421
40.4 -0.13988
40.45 -0.14019
40.5 -0.13863
40.55 -0.13674
40.6 -0.13125
40.65 -0.1261
40.7 -0.12017
40.75 -0.11567
40.8 -0.11167
40.85 -0.10983
40.9 -0.11224
40.95 -0.11584
41 -0.11442
41.05 -0.11716
41.1 -0.11794
41.15 -0.11388
41.2 -0.10654
41.25 -0.09802
41.3 -0.09157
41.35 -0.0908
41.4 -0.09457
41.45 -0.09698
41.5 -0.09534
41.55 -0.09057
41.6 -0.08813
41.65 -0.08308
41.7 -0.07585
41.75 -0.07076
41.8 -0.06753
41.85 -0.06698
41.9 -0.07178
41.95 -0.07447
42 -0.07801
42.05 -0.08375
42.1 -0.08944
42.15 -0.09616
42.2 -0.10032
42.25 -0.09731
42.3 -0.09254
42.35 -0.09157
42.4 -0.09001
42.45 -0.09131
42.5 -0.08782
42.55 -0.08681
42.6 -0.08078
42.65 -0.0775
42.7 -0.07186
42.75 -0.07024
42.8 -0.07162
42.85 -0.06726
42.9 -0.06565
42.95 -0.06088
43 -0.06138
43.05 -0.05728
43.1 -0.05032
43.15 -0.04839
43.2 -0.05117
43.25 -0.05725
43.3 -0.06425
43.35 -0.06919
43.4 -0.06793
43.45 -0.06896
43.5 -0.06862
43.55 -0.06254
43.6 -0.05581
43.65 -0.05279
43.7 -0.04712
43.75 -0.0464
43.8 -0.04147
43.85 -0.04184
43.9 -0.04649
43.95 -0.05147
44 -0.0523
44.05 -0.05337
44.1 -0.05285
44.15 -0.0535
44.2 -0.0533
44.25 -0.05295
44.3 -0.04839
44.35 -0.04598
44.4 -0.04045
44.45 -0.0397
44.5 -0.03849
44.55 -0.03422
44.6 -0.02783
44.65 -0.02418
44.7 -0.01847
44.75 -0.01555
44.8 -0.01795
44.85 -0.0205
44.9 -0.02064
44.95 -0.02143
45 -0.0207
45.05 -0.01694
45.1 -0.01544
45.15 -0.01792
45.2 -0.02256
45.25 -0.02396
45.3 -0.02461
45.35 -0.02231
45.4 -0.02003
45.45 -0.01551
45.5 -0.01464
45.55 -0.01603
45.6 -0.01902
45.65 -0.02175
45.7 -0.02746
45.75 -0.03436
45.8 -0.03591
45.85 -0.03757
45.9 -0.03471
45.95 -0.02951
46 -0.02954
46.05 -0.02831
46.1 -0.02454
46.15 -0.0249
46.2 -0.0205
46.25 -0.01888
46.3 -0.01451
46.35 -0.01307
46.4 -0.01528
46.45 -0.01632
46.5 -0.01722
46.55 -0.01934
46.6 -0.02435
46.65 -0.02343
46.7 -0.01992
46.75 -0.01344
46.8 -0.00551
46.85 -0.00518
46.9 -0.00224
46.95 -0.00514
47 -0.00821
47.05 -0.01301
47.1 -0.01302
47.15 -0.01618
47.2 -0.01407
47.25 -0.0155
47.3 -0.01296
47.35 -0.00864
47.4 -0.00508
47.45 -0.00134
47.5 0.00004
47.55 0.00022
47.6 0.00235
47.65 0.00493
47.7 0.00136
47.75 0.00017
47.8 -0.00198
47.85 -0.00099
47.9 0.0021
47.95 0.00602
48 0.00229
48.05 -0.00386
48.1 -0.01055
48.15 -0.01699
48.2 -0.01914
48.25 -0.01889
48.3 -0.02079
48.35 -0.02413
48.4 -0.02424
48.45 -0.02091
48.5 -0.01751
48.55 -0.01302
48.6 -0.01392
48.65 -0.01164
48.7 -0.01296
48.75 -0.01368
48.8 -0.01696
48.85 -0.02315
48.9 -0.02273
48.95 -0.02083
49 -0.01456
49.05 -0.01367
49.1 -0.01173
49.15 -0.01263
49.2 -0.01308
49.25 -0.01193
49.3 -0.01109
49.35 -0.00623
49.4 -0.00737
49.45 -0.00904
49.5 -0.00944
49.55 -0.01278
49.6 -0.01089
49.65 -0.01377
49.7 -0.01833
49.75 -0.02138
49.8 -0.02249
49.85 -0.0232
49.9 -0.02468
49.95 -0.02642
50 -0.02434
50.05 -0.01898
50.1 -0.01728
50.15 -0.01844
50.2 -0.01471
50.25 -0.01247
50.3 -0.00894
50.35 -0.01064
50.4 -0.0075
50.45 -0.00572
50.5 -0.00171
50.55 -0.001
50.6 -0.00492
50.65 -0.00417
50.7 0.00047
50.75 -0.00107
50.8 -0.00167
50.85 -0.00307
50.9 -0.00554
50.95 -0.00301
51 0.00106
51.05 0.003
51.1 0.0041
51.15 0.00393
51.2 0.00352
51.25 -0.00092
51.3 -0.00001
51.35 0.00094
51.4 0.00277
51.45 0.00565
51.5 0.00706
51.55 0.00603
51.6 0.00125
51.65 -0.00232
51.7 -0.00386
51.75 -0.00244
51.8 0.00029
51.85 0.00521
51.9 0.00803
51.95 0.01077
52 0.01303
52.05 0.00991
52.1 0.00901
52.15 0.01127
52.2 0.01346
52.25 0.01079
52.3 0.00563
52.35 0.00008
52.4 -0.00084
52.45 -0.0008
52.5 -0.00324
52.55 -0.00324
52.6 -0.00336
52.65 -0.00536
52.7 -0.00568
52.75 -0.00511
52.8 -0.00343
52.85 -0.00096
52.9 0.00134
52.95 0.00229
53 0.00355
53.05 0.00212
53.1 0.00112
53.15 -0.00391
53.2 -0.00375
53.25 -0.00017
53.3 -0.00037
53.35 -0.00103
53.4 0.00078
53.45 -0.00031
53.5 0.0001
53.55 0.00354
53.6 0.0014
53.65 0.0002
53.7 0.00178
53.75 0.00269
53.8 0.00446
53.85 0.00098
53.9 0.0023
53.95 0.00198
54 0.00502
54.05 0.00729
54.1 0.00522
54.15 -0.00029
54.2 -0.00629
54.25 -0.01037
54.3 -0.01001
54.35 -0.01294
54.4 -0.01587
54.45 -0.01645
54.5 -0.01637
54.55 -0.01666
54.6 -0.01655
54.65 -0.01235
54.7 -0.00624
54.75 -0.00543
54.8 -0.00842
54.85 -0.01393
54.9 -0.01281
54.95 -0.01289
55 -0.01052
55.05 -0.01287
55.1 -0.01655
55.15 -0.01988
55.2 -0.02041
55.25 -0.02092
55.3 -0.02331
55.35 -0.02765
55.4 -0.0261
55.45 -0.02716
55.5 -0.02665
55.55 -0.02471
55.6 -0.02173
55.65 -0.01539
55.7 -0.0081
55.75 -0.00332
55.8 -0.00374
55.85 -0.00082
55.9 0.00442
55.95 0.00634
56 0.00518
56.05 0.00804
56.1 0.01058
56.15 0.00732
56.2 0.00846
56.25 0.00504
56.3 0.00477
56.35 0.00411
56.4 0.00688
56.45 0.00895
56.5 0.00918
56.55 0.00851
56.6 0.01005
56.65 0.00879
56.7 0.00805
56.75 0.00471
56.8 -0.00019
56.85 -0.00319
56.9 -0.00119
56.95 0.00091
57 0.00148
57.05 0.00461
57.1 0.00269
57.15 0.00066
57.2 -0.00203
57.25 -0.00272
57.3 -0.0044
57.35 -0.00374
57.4 0.00031
57.45 0.00449
57.5 0.00258
57.55 0.00073
57.6 0.00122
57.65 0.00293
57.7 0.002
57.75 0.00292
57.8 0.00073
57.85 0.00325
57.9 0.00694
57.95 0.01186
58 0.01322
58.05 0.01575
58.1 0.01293
58.15 0.0111
58.2 0.00434
58.25 -0.00019
58.3 -0.00503
58.35 -0.0046
58.4 -0.00219
58.45 0.00117
58.5 0.00185
58.55 0.00101
58.6 -0.00237
58.65 -0.00903
58.7 -0.01131
58.75 -0.01541
58.8 -0.01697
58.85 -0.01782
58.9 -0.01568
58.95 -0.01197
59 -0.00537
59.05 -0.00191
59.1 0.00396
59.15 0.00647
59.2 0.01159
59.25 0.01324
59.3 0.01241
59.35 0.0086
59.4 0.00194
59.45 -0.00227
59.5 -0.00534
59.55 -0.01161
59.6 -0.01913
59.65 -0.02021
59.7 -0.02288
59.75 -0.02476
59.8 -0.02487
59.85 -0.02199
59.9 -0.01454
59.95 -0.00972
60 -0.00945
60.05 -0.00688
60.1 -0.00927
60.15 -0.01178
60.2 -0.01277
60.25 -0.01086
60.3 -0.01062
60.35 -0.01135
60.4 -0.01086
60.45 -0.0057
60.5 -0.00519
60.55 -0.00855
60.6 -0.00592
60.65 -0.00126
60.7 0.00313
60.75 0.00848
60.8 0.0148
60.85 0.01708
60.9 0.01533
60.95 0.0128
61 0.01384
61.05 0.01597
61.1 0.01195
61.15 0.011
61.2 0.01023
61.25 0.00909
61.3 0.00975
61.35 0.00994
61.4 0.00967
61.45 0.01103
61.5 0.00889
61.55 0.00723
61.6 0.00946
61.65 0.01195
61.7 0.01407
61.75 0.01528
61.8 0.01816
61.85 0.02045
61.9 0.01724
61.95 0.0176
62 0.01896
62.05 0.0196
62.1 0.01804
62.15 0.01731
62.2 0.01404
62.25 0.0086
62.3 0.00333
62.35 -0.00089
62.4 -0.00739
62.45 -0.01409
62.5 -0.02128
62.55 -0.02877
62.6 -0.03149
62.65 -0.03342
62.7 -0.03392
62.75 -0.03493
62.8 -0.03288
62.85 -0.03214
62.9 -0.02485
62.95 -0.01972
63 -0.01192
63.05 -0.01024
63.1 -0.00946
63.15 -0.01171
63.2 -0.01327
63.25 -0.01622
63.3 -0.01996
63.35 -0.02466
63.4 -0.02615
63.45 -0.02619
63.5 -0.0201
63.55 -0.01443
63.6 -0.01236
63.65 -0.00598
63.7 -0.00281
63.75 -0.00009
63.8 -0.00247
63.85 -0.0063
63.9 -0.01064
63.95 -0.01141
64 -0.00881
64.05 -0.00456
64.1 0.0008
64.15 0.00823
64.2 0.01385
64.25 0.01971
64.3 0.02129
64.35 0.02081
64.4 0.01798
64.45 0.01318
64.5 0.00648
64.55 -0.00064
64.6 -0.00948
64.65 -0.01048
64.7 -0.00748
64.75 -0.00744
64.8 -0.00916
64.85 -0.00518
64.9 -0.00585
64.95 -0.0062
65 -0.00234
65.05 -0.00138
65.1 0.00346
65.15 0.00283
65.2 0.00665
65.25 0.00726
65.3 0.00905
65.35 0.01273
65.4 0.01218
65.45 0.01402
65.5 0.01483
65.55 0.0176
65.6 0.01522
65.65 0.01427
65.7 0.00834
65.75 0.00268
65.8 0.00005
65.85 -0.00056
65.9 -0.00199
65.95 -0.00498
66 -0.00651
66.05 -0.00574
66.1 -0.0024
66.15 -0.00214
66.2 -0.00542
66.25 -0.00594
66.3 -0.008
66.35 -0.00857
66.4 -0.00697
66.45 -0.00208
66.5 -0.00169
66.55 -0.00248
66.6 -0.00416
66.65 -0.00818
66.7 -0.00936
66.75 -0.00929
66.8 -0.00982
66.85 -0.00668
66.9 -0.0047
66.95 -0.00742
67 -0.00514
67.05 -0.00253
67.1 -0.00431
67.15 -0.00781
67.2 -0.00859
67.25 -0.00892
67.3 -0.01265
67.35 -0.01464
67.4 -0.01062
67.45 -0.00545
67.5 -0.00261
67.55 0.0017
67.6 0.00023
67.65 -0.00491
67.7 -0.00606
67.75 -0.00524
67.8 -0.00322
67.85 -0.00329
67.9 -0.00388
67.95 -0.00625
68 -0.00386
68.05 -0.00216
68.1 0.00323
68.15 0.00684
68.2 0.00876
68.25 0.00626
68.3 0.00074
68.35 0.00109
68.4 -0.00269
68.45 -0.00585
68.5 -0.01024
68.55 -0.0127
68.6 -0.01407
68.65 -0.01365
68.7 -0.01192
68.75 -0.01255
68.8 -0.00904
68.85 -0.008
68.9 -0.0067
68.95 -0.00666
69 -0.00677
69.05 -0.00773
69.1 -0.00608
69.15 -0.00791
69.2 -0.0043
69.25 -0.00317
69.3 -0.00255
69.35 -0.00241
69.4 0.00052
69.45 0.00348
69.5 0.00886
69.55 0.01193
69.6 0.01056
69.65 0.01122
69.7 0.01527
69.75 0.01775
69.8 0.01712
69.85 0.01845
69.9 0.01506
69.95 0.00999
70 0.00993
70.05 0.0108
70.1 0.00656
70.15 0.00237
70.2 -0.00165
70.25 -0.00177
70.3 0.00055
70.35 0.00144
70.4 0.00093
70.45 0.00453
70.5 0.01026
70.55 0.01705
70.6 0.01947
70.65 0.02249
70.7 0.0219
70.75 0.02325
70.8 0.02526
70.85 0.02184
70.9 0.01567
70.95 0.00807
71 0.00004
71.05 -0.00504
71.1 -0.00536
71.15 -0.00798
71.2 -0.00999
71.25 -0.00792
71.3 -0.00622
71.35 -0.00664
71.4 -0.0083
71.45 -0.00896
71.5 -0.0089
71.55 -0.00637
71.6 -0.00417
71.65 -0.00359
71.7 -0.0027
71.75 0.00077
71.8 0.00311
71.85 0.00839
71.9 0.01204
71.95 0.01501
72 0.01437
72.05 0.01642
72.1 0.01761
72.15 0.01587
72.2 0.01545
72.25 0.00924
72.3 0.00235
72.35 -0.00306
72.4 -0.00762
72.45 -0.00958
72.5 -0.00965
72.55 -0.00946
72.6 -0.0049
72.65 -0.002
72.7 -0.00408
72.75 -0.00466
72.8 -0.00869
72.85 -0.00788
72.9 -0.00312
72.95 0.00069
73 0.00656
73.05 0.00545
73.1 0.00463
73.15 0.00009
73.2 -0.00051
73.25 0.00289
73.3 0.00311
73.35 0.00207
73.4 -0.00064
73.45 0.00129
73.5 -0.0006
73.55 -0.00291
73.6 -0.00497
73.65 -0.00218
73.7 -0.00387
73.75 -0.00043
73.8 0.00559
73.85 0.00683
73.9 0.00716
73.95 0.00948
74 0.00909
74.05 0.00794
74.1 0.00618
74.15 0.00828
74.2 0.00599
74.25 0.00474
74.3 0.00238
74.35 0.00121
74.4 0.00017
74.45 -0.00277
74.5 -0.00846
74.55 -0.01277
74.6 -0.01155
74.65 -0.01188
74.7 -0.00699
74.75 -0.00539
74.8 -0.00607
74.85 -0.00423
74.9 -0.00044
74.95 -0.00218
75 -0.00301
75.05 -0.00341
75.1 -0.00723
75.15 -0.01041
75.2 -0.0138
75.25 -0.01205
75.3 -0.01051
75.35 -0.0099
75.4 -0.00651
75.45 -0.00108
75.5 -0.00106
75.55 0.00159
75.6 0.0074
75.65 0.00939
75.7 0.01339
75.75 0.01167
75.8 0.00614
75.85 0.0005
75.9 -0.00459
75.95 -0.0095
76 -0.00959
76.05 -0.00947
76.1 -0.01114
76.15 -0.01391
76.2 -0.01672
76.25 -0.01974
76.3 -0.01759
76.35 -0.0187
76.4 -0.01768
76.45 -0.01796
76.5 -0.0179
76.55 -0.0179
76.6 -0.01666
76.65 -0.01097
76.7 -0.00785
76.75 -0.00103
76.8 0.00171
76.85 0.00517
76.9 0.00665
76.95 0.00282
77 -0.00194
77.05 -0.00615
77.1 -0.00803
77.15 -0.00941
77.2 -0.01182
77.25 -0.01184
77.3 -0.00968
77.35 -0.00876
77.4 -0.00986
77.45 -0.0123
77.5 -0.01162
77.55 -0.01123
77.6 -0.00657
77.65 -0.0065
77.7 -0.00403
77.75 -0.00279
77.8 0.00101
77.85 0.00428
77.9 0.01046
77.95 0.01578
78 0.01788
78.05 0.0193
78.1 0.01854
78.15 0.01628
78.2 0.0095
78.25 0.0087
78.3 0.00491
78.35 -0.00013
78.4 -0.00272
78.45 -0.00644
78.5 -0.00711
78.55 -0.0038
78.6 -0.0018
78.65 -0.00118
78.7 -0.00435
78.75 -0.0095
78.8 -0.01217
78.85 -0.013
78.9 -0.01071
78.95 -0.00393
79 -0.00183
79.05 0.00324
79.1 0.00725
79.15 0.00606
79.2 0.00366
79.25 0.0015
79.3 -0.0002
79.35 -0.00348
79.4 -0.00294
79.45 0.00126
79.5 0.00468
79.55 0.0093
79.6 0.01179
79.65 0.01412
79.7 0.01497
79.75 0.01363
79.8 0.01047
79.85 0.00409
79.9 -0.00058
79.95 -0.00316
80 -0.00177
80.05 -0.00266
80.1 -0.00308
80.15 -0.00582
80.2 -0.01082
80.25 -0.00902
80.3 -0.00725
80.35 -0.00839
80.4 -0.00554
80.45 -0.00531
80.5 -0.00774
80.55 -0.00763
80.6 -0.00912
80.65 -0.00806
80.7 -0.00838
80.75 -0.00654
80.8 -0.00833
80.85 -0.00899
80.9 -0.01032
80.95 -0.00918
81 -0.00678
81.05 -0.00484
81.1 -0.00149
81.15 0.00493
81.2 0.0082
81.25 0.0097
81.3 0.00792
81.35 0.00429
81.4 0.00144
81.45 0.004
81.5 0.00822
81.55 0.00769
81.6 0.01117
81.65 0.01466
81.7 0.01385
81.75 0.01627
81.8 0.01815
81.85 0.01376
81.9 0.01014
81.95 0.00468
82 0.00383
82.05 0.00096
82.1 0.00329
82.15 0.00637
82.2 0.00536
82.25 0.00578
82.3 0.00372
82.35 -0.00192
82.4 -0.00759
82.45 -0.01294
82.5 -0.01205
82.55 -0.00795
82.6 -0.00451
82.65 0.00091
82.7 0.00675
82.75 0.00711
82.8 0.00925
82.85 0.00598
82.9 -0.00007
82.95 -0.00128
83 -0.00409
83.05 -0.00198
83.1 0.00028
83.15 0.00303
83.2 0.00758
83.25 0.01082
83.3 0.01437
83.35 0.01119
83.4 0.01205
83.45 0.01442
83.5 0.01169
83.55 0.00535
83.6 0.00087
83.65 -0.00649
83.7 -0.01365
83.75 -0.02091
83.8 -0.02428
83.85 -0.02736
83.9 -0.03013
83.95 -0.03077
84 -0.02743
84.05 -0.02043
84.1 -0.01626
84.15 -0.01236
84.2 -0.00848
84.25 -0.00654
84.3 -0.0041
84.35 -0.0031
84.4 -0.00189
84.45 0.00126
84.5 0.00081
84.55 -0.00077
84.6 0.00167
84.65 -0.00009
84.7 0.00082
84.75 0.00257
84.8 0.00676
84.85 0.00825
84.9 0.00723
84.95 0.00176
85 -0.00483
85.05 -0.00516
85.1 -0.00274
85.15 0.00222
85.2 0.00502
85.25 0.0048
85.3 0.00194
85.35 -0.00282
85.4 -0.00601
85.45 -0.00997
85.5 -0.00746
85.55 -0.00835
85.6 -0.01113
85.65 -0.00742
85.7 -0.0018
85.75 -0.00134
85.8 -0.00089
85.85 -0.00369
85.9 -0.00365
85.95 0.00054
86 0.006
86.05 0.01295
86.1 0.01524
86.15 0.01966
86.2 0.01666
86.25 0.01469
86.3 0.01567
86.35 0.01661
86.4 0.01451
86.45 0.01381
86.5 0.01101
86.55 0.0045
86.6 -0.00339
86.65 -0.00736
86.7 -0.00974
86.75 -0.01356
86.8 -0.01548
86.85 -0.01335
86.9 -0.00833
86.95 -0.00033
87 0.00127
87.05 -0.00094
87.1 -0.00539
87.15 -0.00425
87.2 -0.00152
87.25 0.00331
87.3 0.00877
87.35 0.01088
87.4 0.01244
87.45 0.00884
87.5 0.00869
87.55 0.00927
87.6 0.0053
87.65 0.00023
87.7 -0.00486
87.75 -0.00535
87.8 -0.00177
87.85 -0.00332
87.9 -0.00812
87.95 -0.01486
88 -0.01397
88.05 -0.00795
88.1 -0.00055
88.15 0.00134
88.2 -0.00038
88.25 -0.00558
88.3 -0.01088
88.35 -0.00989
88.4 -0.00455
88.45 -0.00316
88.5 -0.00141
88.55 0.00293
88.6 0.00193
88.65 -0.00189
88.7 -0.00341
88.75 -0.00603
88.8 -0.00279
88.85 0.00254
88.9 0.00213
88.95 -0.00074
89 -0.00499
89.05 -0.00768
89.1 -0.00987
89.15 -0.01307
89.2 -0.01362
89.25 -0.01028
89.3 -0.00957
89.35 -0.00802
89.4 -0.01034
89.45 -0.00784
89.5 -0.00929
89.55 -0.00989
89.6 -0.01227
89.65 -0.01024
89.7 -0.01093
89.75 -0.01022
89.8 -0.00849
89.85 -0.00294
89.9 0.0022
89.95 0.00935
90 0.01168
90.05 0.00856
90.1 0.00616
90.15 0.00821
90.2 0.00859
90.25 0.00445
90.3 0.00501
90.35 0.00796
90.4 0.00567
90.45 0.00696
90.5 0.00541
90.55 0.00361
90.6 0.00212
90.65 -0.00162
90.7 -0.00177
90.75 -0.0039
90.8 -0.0053
90.85 -0.00576
90.9 -0.00362
90.95 -0.00146
91 0.00161
91.05 0.00522
91.1 0.00914
91.15 0.01235
91.2 0.01243
91.25 0.01531
91.3 0.01464
91.35 0.00942
91.4 0.00732
91.45 0.00784
91.5 0.00491
91.55 0.00086
91.6 0.00185
91.65 0.00661
91.7 0.0067
91.75 0.00644
91.8 0.00508
91.85 0.00317
91.9 0.00615
91.95 0.0103
92 0.0142
92.05 0.01943
92.1 0.0217
92.15 0.02113
92.2 0.02171
92.25 0.01664
92.3 0.01073
92.35 0.00498
92.4 -0.00141
92.45 -0.00837
92.5 -0.01161
92.55 -0.01031
92.6 -0.01216
92.65 -0.01406
92.7 -0.01122
92.75 -0.00563
92.8 0.00229
92.85 0.0056
92.9 0.00554
92.95 0.00773
93 0.00902
93.05 0.01026
93.1 0.01382
93.15 0.01388
93.2 0.01256
93.25 0.01114
93.3 0.01063
93.35 0.01217
93.4 0.01323
93.45 0.01542
93.5 0.01121
93.55 0.0069
93.6 0.00107
93.65 -0.00087
93.7 -0.0002
93.75 0.00209
93.8 0.00052
93.85 0.0022
93.9 0.00716
93.95 0.00557
94 0.00449
94.05 0.00273
94.1 -0.00046
94.15 -0.00511
94.2 -0.0065
94.25 -0.00862
94.3 -0.00681
94.35 -0.00711
94.4 -0.006
94.45 -0.00339
94.5 -0.00168
94.55 -0.00045
94.6 -0.00277
94.65 -0.00278
94.7 0.00161
94.75 0.0058
94.8 0.00398
94.85 0.00663
94.9 0.00311
94.95 0.00479
95 0.0051
95.05 0.00392
95.1 0.00122
95.15 -0.00337
95.2 -0.00676
95.25 -0.00632
95.3 -0.00719
95.35 -0.00846
95.4 -0.00514
95.45 -0.00484
95.5 -0.00161
95.55 0.00222
95.6 0.00434
95.65 0.00948
95.7 0.01292
95.75 0.01366
95.8 0.01203
95.85 0.00912
95.9 0.004
95.95 0.00118
96 -0.00424
96.05 -0.00705
96.1 -0.00664
96.15 -0.00608
96.2 -0.00834
96.25 -0.01266
96.3 -0.01144
96.35 -0.00993
96.4 -0.00587
96.45 -0.00001
96.5 0.00653
96.55 0.00815
96.6 0.00982
96.65 0.01274
96.7 0.01594
96.75 0.01681
96.8 0.01142
96.85 0.00444
96.9 -0.00307
96.95 -0.00845
97 -0.01251
97.05 -0.01703
97.1 -0.02045
97.15 -0.02332
97.2 -0.02545
97.25 -0.02838
97.3 -0.03118
97.35 -0.02917
97.4 -0.02388
97.45 -0.01522
97.5 -0.00433
97.55 0.00571
97.6 0.00933
97.65 0.01373
97.7 0.01312
97.75 0.00799
97.8 0.0031
97.85 0.00184
97.9 0.00011
97.95 -0.00514
98 -0.01168
98.05 -0.01646
98.1 -0.01717
98.15 -0.01457
98.2 -0.0148
98.25 -0.01702
98.3 -0.01764
98.35 -0.01451
98.4 -0.01542
98.45 -0.01833
98.5 -0.02075
98.55 -0.02414
98.6 -0.02432
98.65 -0.02552
98.7 -0.01965
98.75 -0.01113
98.8 -0.00902
98.85 -0.00671
98.9 -0.00455
98.95 -0.00332
99 -0.00326
99.05 -0.00569
99.1 -0.00945
99.15 -0.00677
99.2 -0.00174
99.25 -0.00063
99.3 -0.00155
99.35 -0
99.4 0.0021
99.45 0.00048
99.5 0.00099
99.55 0.00445
99.6 0.00529
99.65 0.00725
99.7 0.00587
99.75 0.00442
99.8 0.00101
99.85 -0.00368
99.9 -0.00876
99.95 -0.01542
