0 0
0.05 0.00222
0.1 0.00467
0.15 0.0116
0.2 0.02271
0.25 0.03388
0.3 0.04639
0.35 0.05177
0.4 0.05686
0.45 0.06259
0.5 0.06982
0.55 0.07562
0.6 0.07543
0.65 0.07624
0.7 0.07512
0.75 0.07538
0.8 0.07485
0.85 0.06827
0.9 0.05989
0.95 0.05573
1 0.04924
1.05 0.04556
1.1 0.04437
1.15 0.04486
1.2 0.048
1.25 0.04576
1.3 0.03951
1.35 0.03187
1.4 0.02699
1.45 0.02381
1.5 0.02641
1.55 0.0267
1.6 0.03082
1.65 0.03262
1.7 0.03307
1.75 0.03604
1.8 0.04131
1.85 0.04576
1.9 0.04889
1.95 0.04864
2 0.04776
2.05 0.04499
2.1 0.04086
2.15 0.04039
2.2 0.04082
2.25 0.03536
2.3 0.03167
2.35 0.02418
2.4 0.02154
2.45 0.01634
2.5 0.01568
2.55 0.01377
2.6 0.01287
2.65 0.01316
2.7 0.0168
2.75 0.02324
2.8 0.02309
2.85 0.02141
2.9 0.01747
2.95 0.01327
3 0.01324
3.05 0.01263
3.1 0.01028
3.15 0.00646
3.2 0.00257
3.25 0.00306
3.3 0.00762
3.35 0.01066
3.4 0.01767
3.45 0.01879
3.5 0.02139
3.55 0.02578
3.6 0.0242
3.65 0.02379
3.7 0.02746
3.75 0.02498
3.8 0.02724
3.85 0.02511
3.9 0.02397
3.95 0.02003
4 0.02003
4.05 0.02134
4.1 0.02097
4.15 0.01826
4.2 0.01252
4.25 0.00975
4.3 0.01039
4.35 0.01264
4.4 0.0109
4.45 0.01029
4.5 0.00015
4.55 -0.01168
4.6 -0.02367
4.65 -0.04246
4.7 -0.06584
4.75 -0.09302
4.8 -0.11928
4.85 -0.14595
4.9 -0.17707
4.95 -0.2151
5 -0.25255
5.05 -0.29795
5.1 -0.34942
5.15 -0.40265
5.2 -0.46574
5.25 -0.53017
5.3 -0.59881
5.35 -0.67252
5.4 -0.75561
5.45 -0.84089
5.5 -0.934
5.55 -1.0307
5.6 -1.12517
5.65 -1.21814
5.7 -1.31135
5.75 -1.40984
5.8 -1.50741
5.85 -1.60061
5.9 -1.69739
5.95 -1.79184
6 -1.88208
6.05 -1.96654
6.1 -2.04908
6.15 -2.12397
6.2 -2.19339
6.25 -2.25489
6.3 -2.30701
6.35 -2.35342
6.4 -2.39549
6.45 -2.43754
6.5 -2.47427
6.55 -2.50254
6.6 -2.51893
6.65 -2.52573
6.7 -2.51806
6.75 -2.49682
6.8 -2.4562
6.85 -2.404
6.9 -2.33107
6.95 -2.24745
7 -2.14708
7.05 -2.02847
7.1 -1.89423
7.15 -1.74929
7.2 -1.59192
7.25 -1.42328
7.3 -1.24455
7.35 -1.05703
7.4 -0.86221
7.45 -0.65784
7.5 -0.45389
7.55 -0.24342
7.6 -0.03013
7.65 0.178
7.7 0.37555
7.75 0.56477
7.8 0.74226
7.85 0.91049
7.9 1.06924
7.95 1.22135
8 1.3592
8.05 1.48475
8.1 1.59834
8.15 1.70582
8.2 1.79899
8.25 1.8831
8.3 1.95756
8.35 2.01886
8.4 2.07269
8.45 2.11507
8.5 2.15476
8.55 2.18838
8.6 2.21451
8.65 2.22876
8.7 2.23471
8.75 2.23522
8.8 2.23206
8.85 2.22552
8.9 2.21723
8.95 2.21204
9 2.20672
9.05 2.20049
9.1 2.19228
9.15 2.17463
9.2 2.15519
9.25 2.13396
9.3 2.10816
9.35 2.07913
9.4 2.0478
9.45 2.02056
9.5 1.99829
9.55 1.97267
9.6 1.94785
9.65 1.92181
9.7 1.89464
9.75 1.86638
9.8 1.83393
9.85 1.79845
9.9 1.76714
9.95 1.73481
10 1.6975
10.05 1.65829
10.1 1.61604
10.15 1.57445
10.2 1.53208
10.25 1.49536
10.3 1.45675
10.35 1.41451
10.4 1.36776
10.45 1.32135
10.5 1.27996
10.55 1.24055
10.6 1.2025
10.65 1.16438
10.7 1.12497
10.75 1.08426
10.8 1.03452
10.85 0.98254
10.9 0.92761
10.95 0.8745
11 0.82766
11.05 0.7832
11.1 0.74215
11.15 0.70029
11.2 0.66024
11.25 0.61912
11.3 0.57524
11.35 0.5305
11.4 0.48905
11.45 0.44334
11.5 0.39674
11.55 0.34872
11.6 0.30303
11.65 0.26086
11.7 0.22154
11.75 0.18638
11.8 0.15304
11.85 0.12057
11.9 0.08606
11.95 0.05369
12 0.02273
12.05 -0.00327
12.1 -0.02556
12.15 -0.05147
12.2 -0.07651
12.25 -0.09528
12.3 -0.1154
12.35 -0.13521
12.4 -0.15694
12.45 -0.17556
12.5 -0.19044
12.55 -0.20386
12.6 -0.21688
12.65 -0.22686
12.7 -0.23976
12.75 -0.24908
12.8 -0.26491
12.85 -0.28387
12.9 -0.29806
12.95 -0.30578
13 -0.31478
13.05 -0.32718
13.1 -0.33479
13.15 -0.33862
13.2 -0.34254
13.25 -0.35118
13.3 -0.36262
13.35 -0.37337
13.4 -0.37773
13.45 -0.38035
13.5 -0.37859
13.55 -0.37849
13.6 -0.37646
13.65 -0.37098
13.7 -0.37125
13.75 -0.37363
13.8 -0.37661
13.85 -0.3755
13.9 -0.36989
13.95 -0.36196
14 -0.3611
14.05 -0.35748
14.1 -0.35385
14.15 -0.35176
14.2 -0.34635
14.25 -0.34001
14.3 -0.33216
14.35 -0.33148
14.4 -0.33292
14.45 -0.33469
14.5 -0.33496
14.55 -0.33026
14.6 -0.32993
14.65 -0.32815
14.7 -0.32539
14.75 -0.32212
14.8 -0.32363
14.85 -0.32
14.9 -0.31229
14.95 -0.30623
15 -0.30152
15.05 -0.30029
15.1 -0.29811
15.15 -0.29817
15.2 -0.29809
15.25 -0.29724
15.3 -0.29042
15.35 -0.28008
15.4 -0.27603
15.45 -0.26775
15.5 -0.26377
15.55 -0.26159
15.6 -0.25854
15.65 -0.26003
15.7 -0.25939
15.75 -0.25292
15.8 -0.24661
15.85 -0.24318
15.9 -0.23656
15.95 -0.2325
16 -0.23028
16.05 -0.2263
16.1 -0.21903
16.15 -0.20969
16.2 -0.20133
16.25 -0.19727
16.3 -0.19301
16.35 -0.18863
16.4 -0.18253
16.45 -0.17989
16.5 -0.18029
16.55 -0.18411
16.6 -0.18728
16.65 -0.18565
16.7 -0.18478
16.75 -0.18559
16.8 -0.18673
16.85 -0.18232
16.9 -0.17421
16.95 -0.16503
17 -0.15551
17.05 -0.14632
17.1 -0.14345
17.15 -0.14271
17.2 -0.13921
17.25 -0.14031
17.3 -0.14135
17.35 -0.14456
17.4 -0.14613
17.45 -0.14806
17.5 -0.14506
17.55 -0.14468
17.6 -0.14344
17.65 -0.1391
17.7 -0.13716
17.75 -0.1359
17.8 -0.13113
17.85 -0.12716
17.9 -0.12191
17.95 -0.11831
18 -0.11607
18.05 -0.11154
18.1 -0.10546
18.15 -0.09815
18.2 -0.09559
18.25 -0.09767
18.3 -0.09995
18.35 -0.10167
18.4 -0.09929
18.45 -0.09879
18.5 -0.09919
18.55 -0.09662
18.6 -0.09969
18.65 -0.09755
18.7 -0.09695
18.75 -0.10081
18.8 -0.10241
18.85 -0.10594
18.9 -0.10555
18.95 -0.10315
19 -0.104
19.05 -0.09893
19.1 -0.09709
19.15 -0.09815
19.2 -0.10102
19.25 -0.10065
19.3 -0.10197
19.35 -0.098
19.4 -0.09401
19.45 -0.08771
19.5 -0.08152
19.55 -0.07257
19.6 -0.0663
19.65 -0.0644
19.7 -0.0663
19.75 -0.07186
19.8 -0.07355
19.85 -0.07079
19.9 -0.06854
19.95 -0.06806
20 -0.067
20.05 -0.064
20.1 -0.06246
20.15 -0.05862
20.2 -0.05782
20.25 -0.05961
20.3 -0.06111
20.35 -0.06631
20.4 -0.06459
20.45 -0.06566
20.5 -0.06498
20.55 -0.06144
20.6 -0.06113
20.65 -0.06484
20.7 -0.06666
20.75 -0.07076
20.8 -0.07452
20.85 -0.07587
20.9 -0.07483
20.95 -0.07097
21 -0.06514
21.05 -0.06203
21.1 -0.06285
21.15 -0.05952
21.2 -0.05169
21.25 -0.04613
21.3 -0.03834
21.35 -0.03439
21.4 -0.02888
21.45 -0.02599
21.5 -0.02301
21.55 -0.02596
21.6 -0.02859
21.65 -0.03548
21.7 -0.0405
21.75 -0.03979
21.8 -0.03769
21.85 -0.03683
21.9 -0.03316
21.95 -0.03255
22 -0.03585
22.05 -0.03822
22.1 -0.04207
22.15 -0.04646
22.2 -0.04845
22.25 -0.05206
22.3 -0.05606
22.35 -0.05914
22.4 -0.06182
22.45 -0.05635
22.5 -0.05404
22.55 -0.05112
22.6 -0.0452
22.65 -0.0403
22.7 -0.03531
22.75 -0.03158
22.8 -0.02769
22.85 -0.02399
22.9 -0.0211
22.95 -0.02021
23 -0.01673
23.05 -0.01198
23.1 -0.0109
23.15 -0.01246
23.2 -0.01517
23.25 -0.01801
23.3 -0.02338
23.35 -0.03126
23.4 -0.03328
23.45 -0.03318
23.5 -0.03413
23.55 -0.03127
23.6 -0.02459
23.65 -0.01904
23.7 -0.01435
23.75 -0.01166
23.8 -0.01254
23.85 -0.01452
23.9 -0.01209
23.95 -0.00783
24 -0.0035
24.05 -0.00509
24.1 -0.00428
24.15 -0.00826
24.2 -0.00763
24.25 -0.00804
24.3 -0.00606
24.35 -0.00757
24.4 -0.00876
24.45 -0.01214
24.5 -0.01846
24.55 -0.01898
24.6 -0.02115
24.65 -0.02163
24.7 -0.02552
24.75 -0.03013
24.8 -0.03292
24.85 -0.03515
24.9 -0.03931
24.95 -0.03937
25 -0.03787
25.05 -0.03437
25.1 -0.029
25.15 -0.0196
25.2 -0.0085
25.25 -0.00536
25.3 -0.00059
25.35 0.00387
25.4 0.0049
25.45 0.0068
25.5 0.00771
25.55 0.00273
25.6 -0.0049
25.65 -0.0066
25.7 -0.01012
25.75 -0.01507
25.8 -0.02168
25.85 -0.02654
25.9 -0.02442
25.95 -0.0202
26 -0.0164
26.05 -0.01521
26.1 -0.01441
26.15 -0.01716
26.2 -0.01455
26.25 -0.01257
26.3 -0.01057
26.35 -0.0068
26.4 -0.00862
26.45 -0.00761
26.5 -0.00966
26.55 -0.01137
26.6 -0.01635
26.65 -0.0153
26.7 -0.00968
26.75 -0.00876
26.8 -0.00606
26.85 -0.00191
26.9 -0.00266
26.95 -0.00433
27 -0.00393
27.05 -0.00673
27.1 -0.00819
27.15 -0.01268
27.2 -0.01853
27.25 -0.02071
27.3 -0.01712
27.35 -0.01551
27.4 -0.01249
27.45 -0.00747
27.5 -0.00751
27.55 -0.00898
27.6 -0.01018
27.65 -0.0092
27.7 -0.00903
27.75 -0.00863
27.8 -0.00627
27.85 -0.0056
27.9 -0.00212
27.95 -0.00286
28 -0.00432
28.05 -0.0031
28.1 0.00025
28.15 0.00036
28.2 0.0041
28.25 0.0027
28.3 0.00388
28.35 0.00386
28.4 0.00357
28.45 0.00173
28.5 0.00124
28.55 -0.00062
28.6 -0.00087
28.65 -0.00314
28.7 -0.00848
28.75 -0.0095
28.8 -0.00674
28.85 -0.00518
28.9 -0.00424
28.95 -0.00637
29 -0.00475
29.05 -0.00773
29.1 -0.00553
29.15 -0.0039
29.2 -0.00424
29.25 -0.00088
29.3 0.00262
29.35 0.00019
29.4 -0.00165
29.45 -0.0048
29.5 -0.00854
29.55 -0.00902
29.6 -0.0048
29.65 -0.00496
29.7 -0.00897
29.75 -0.01506
29.8 -0.01892
29.85 -0.02096
29.9 -0.01854
29.95 -0.01155
30 -0.00652
30.05 -0.00063
30.1 0.00465
30.15 0.00561
30.2 0.00142
30.25 -0.00291
30.3 -0.00267
30.35 0.00199
30.4 0.0049
30.45 0.00778
30.5 0.00679
30.55 0.00795
30.6 0.00505
30.65 0.00235
30.7 -0.00424
30.75 -0.00724
30.8 -0.00732
30.85 -0.00403
30.9 -0.0042
30.95 -0.00494
31 -0.00216
31.05 0.00392
31.1 0.00604
31.15 0.00756
31.2 0.00508
31.25 0.00125
31.3 -0.00322
31.35 -0.00617
31.4 -0.00549
31.45 -0.00808
31.5 -0.01072
31.55 -0.01009
31.6 -0.00568
31.65 0.00059
31.7 0.00212
31.75 -0.00126
31.8 -0.00628
31.85 -0.011
31.9 -0.01418
31.95 -0.01806
32 -0.01665
32.05 -0.01866
32.1 -0.01998
32.15 -0.01908
32.2 -0.01682
32.25 -0.01575
32.3 -0.01816
32.35 -0.0149
32.4 -0.01232
32.45 -0.01171
32.5 -0.01468
32.55 -0.01102
32.6 -0.00416
32.65 0.00202
32.7 0.00244
32.75 0.00189
32.8 0.00192
32.85 0.00111
32.9 0.0024
32.95 0.00174
33 0.00368
33.05 0.00205
33.1 -0.0026
33.15 -0.0075
33.2 -0.01069
33.25 -0.01311
33.3 -0.00908
33.35 -0.00416
33.4 -0.00006
33.45 -0.00015
33.5 -0.00376
33.55 -0.00974
33.6 -0.01151
33.65 -0.01183
33.7 -0.00669
33.75 -0.00689
33.8 -0.00629
33.85 -0.00927
33.9 -0.00577
33.95 -0.0045
34 -0.00705
34.05 -0.01054
34.1 -0.00997
34.15 -0.01066
34.2 -0.0062
34.25 -0.00617
34.3 -0.00616
34.35 -0.00715
34.4 -0.00278
34.45 0.00175
34.5 0.00385
34.55 0.0064
34.6 0.00561
34.65 0.004
34.7 0.00659
34.75 0.00675
34.8 0.00656
34.85 0.00477
34.9 0.00403
34.95 0.0007
35 0.0012
35.05 0.00482
35.1 0.00598
35.15 0.00376
35.2 0.00064
35.25 -0.00184
35.3 -0.00248
35.35 -0.00668
35.4 -0.011
35.45 -0.00929
35.5 -0.00841
35.55 -0.00903
35.6 -0.0101
35.65 -0.01354
35.7 -0.01207
35.75 -0.00687
35.8 -0.00065
35.85 0.00721
35.9 0.00778
35.95 0.00553
36 0.00267
36.05 -0.0015
36.1 -0.00745
36.15 -0.0059
36.2 0.00043
36.25 0.0056
36.3 0.0076
36.35 0.01043
36.4 0.01333
36.45 0.01267
36.5 0.01307
36.55 0.01002
36.6 0.01013
36.65 0.01077
36.7 0.01384
36.75 0.01847
36.8 0.01693
36.85 0.01759
36.9 0.01874
36.95 0.01616
37 0.01465
37.05 0.00946
37.1 0.00388
37.15 0.00098
37.2 -0.00321
37.25 -0.00622
37.3 -0.00332
37.35 0.00232
37.4 0.00621
37.45 0.01058
37.5 0.01159
37.55 0.01098
37.6 0.00643
37.65 0.00746
37.7 0.00808
37.75 0.00708
37.8 0.00784
37.85 0.00382
37.9 0.00548
37.95 0.00218
38 -0.00045
38.05 -0.00364
38.1 -0.00234
38.15 -0.00326
38.2 -0.00484
38.25 -0.00374
38.3 -0.00453
38.35 -0.0009
38.4 0.00143
38.45 0.0067
38.5 0.00892
38.55 0.00617
38.6 0.00134
38.65 0.00044
38.7 -0.004
38.75 -0.00509
38.8 -0.00263
38.85 0.00121
38.9 0.00733
38.95 0.01233
39 0.01042
39.05 0.00873
39.1 0.00293
39.15 0.0026
39.2 0.00455
39.25 0.00787
39.3 0.01066
39.35 0.01099
39.4 0.01146
39.45 0.00726
39.5 0.00789
39.55 0.01092
39.6 0.01035
39.65 0.0094
39.7 0.00909
39.75 0.00985
39.8 0.01107
39.85 0.00848
39.9 0.0028
39.95 0.00164
40 -0.00295
40.05 -0.00338
40.1 -0.00181
40.15 0.00348
40.2 0.0019
40.25 0.00341
40.3 0.00532
40.35 0.00342
40.4 0.00032
40.45 -0.00193
40.5 0.00002
40.55 0.00492
40.6 0.00937
40.65 0.00741
40.7 0.0097
40.75 0.00627
40.8 0.00563
40.85 0.0055
40.9 0.00396
40.95 -0.00065
41 0.00074
41.05 0.00375
41.1 0.00522
41.15 0.00659
41.2 0.00281
41.25 0.00373
41.3 0.00173
41.35 0.00121
41.4 -0.00101
41.45 -0.00403
41.5 -0.00938
41.55 -0.0131
41.6 -0.01117
41.65 -0.00858
41.7 -0.00903
41.75 -0.01126
41.8 -0.00812
41.85 -0.00576
41.9 -0.00127
41.95 0.00496
42 0.00992
42.05 0.01318
42.1 0.01755
42.15 0.0168
42.2 0.01243
42.25 0.00853
42.3 0.00564
42.35 0.00098
42.4 0.00173
42.45 0.00349
42.5 0.00466
42.55 0.00777
42.6 0.01256
42.65 0.01782
42.7 0.02158
42.75 0.02617
42.8 0.02421
42.85 0.01749
42.9 0.00945
42.95 0.00185
43 -0.00388
43.05 -0.00696
43.1 -0.01311
43.15 -0.01688
43.2 -0.01871
43.25 -0.01745
43.3 -0.01464
43.35 -0.01264
43.4 -0.01446
43.45 -0.01454
43.5 -0.01654
43.55 -0.01807
43.6 -0.02176
43.65 -0.02712
43.7 -0.03139
43.75 -0.03073
43.8 -0.02701
43.85 -0.02038
43.9 -0.01593
43.95 -0.01001
44 -0.00148
44.05 0.00728
44.1 0.00856
44.15 0.00908
44.2 0.0093
44.25 0.0092
44.3 0.00481
44.35 0.00423
44.4 0.00775
44.45 0.00513
44.5 0.00264
44.55 0.00447
44.6 0.00267
44.65 -0.00052
44.7 -0.00703
44.75 -0.01029
44.8 -0.01132
44.85 -0.01314
44.9 -0.01318
44.95 -0.01177
45 -0.00714
45.05 -0.0066
45.1 -0.00165
45.15 0.00122
45.2 0.00522
45.25 0.00568
45.3 0.0073
45.35 0.00978
45.4 0.01339
45.45 0.01142
45.5 0.01083
45.55 0.00654
45.6 0.00587
45.65 0.00269
45.7 -0.00181
45.75 -0.00629
45.8 -0.0081
45.85 -0.00786
45.9 -0.00488
45.95 -0.00221
46 0.00381
46.05 0.00975
46.1 0.00915
46.15 0.0101
46.2 0.00961
46.25 0.00455
46.3 0.00447
46.35 0.00341
46.4 -0.00173
46.45 -0.00775
46.5 -0.01315
46.55 -0.01446
46.6 -0.0155
46.65 -0.01502
46.7 -0.01608
46.75 -0.01982
46.8 -0.02033
46.85 -0.02136
46.9 -0.02471
46.95 -0.02697
47 -0.02595
47.05 -0.01996
47.1 -0.0122
47.15 -0.01079
47.2 -0.01316
47.25 -0.0154
47.3 -0.01373
47.35 -0.01384
47.4 -0.01277
47.45 -0.01254
47.5 -0.01001
47.55 -0.01188
47.6 -0.00869
47.65 -0.00351
47.7 0.00141
47.75 0.00843
47.8 0.01431
47.85 0.01408
47.9 0.01545
47.95 0.01489
48 0.01739
48.05 0.02203
48.1 0.02488
48.15 0.02628
48.2 0.02386
48.25 0.02189
48.3 0.01664
48.35 0.00923
48.4 0.00546
48.45 0.0041
48.5 0.00207
48.55 -0.00387
48.6 -0.00875
48.65 -0.01104
48.7 -0.00894
48.75 -0.00315
48.8 0.00378
48.85 0.00903
48.9 0.01412
48.95 0.02029
49 0.02526
49.05 0.02813
49.1 0.02493
49.15 0.01672
49.2 0.01098
49.25 0.00629
49.3 -0.00195
49.35 -0.00927
49.4 -0.01634
49.45 -0.01963
49.5 -0.01603
49.55 -0.0158
49.6 -0.01265
49.65 -0.00667
49.7 0.00205
49.75 0.00942
49.8 0.0109
49.85 0.0132
49.9 0.01353
49.95 0.01673
50 0.01397
50.05 0.00975
50.1 0.00381
50.15 -0.00444
50.2 -0.00638
50.25 -0.0092
50.3 -0.0084
50.35 -0.00731
50.4 -0.00657
50.45 -0.0027
50.5 -0.00032
50.55 0.00109
50.6 -0.00222
50.65 -0.00251
50.7 -0.00388
50.75 -0.00022
50.8 0.00175
50.85 -0.00139
50.9 -0.00715
50.95 -0.01375
51 -0.01766
51.05 -0.01632
51.1 -0.01789
51.15 -0.01923
51.2 -0.01575
51.25 -0.01014
51.3 -0.00802
51.35 -0.00807
51.4 -0.00311
51.45 0.00191
51.5 0.00152
51.55 0.00453
51.6 0.00983
51.65 0.01609
51.7 0.01942
51.75 0.02322
51.8 0.02304
51.85 0.01937
51.9 0.01802
51.95 0.01873
52 0.01337
52.05 0.01176
52.1 0.0062
52.15 -0.00064
52.2 -0.00804
52.25 -0.01058
52.3 -0.01404
52.35 -0.01405
52.4 -0.0098
52.45 -0.00893
52.5 -0.00657
52.55 -0.0005
52.6 0.007
52.65 0.01402
52.7 0.01799
52.75 0.01578
52.8 0.01582
52.85 0.01545
52.9 0.0172
52.95 0.01952
53 0.01465
53.05 0.00832
53.1 0.00484
53.15 -0.00165
53.2 -0.00483
53.25 -0.00596
53.3 -0.00216
53.35 0.00172
53.4 0.00704
53.45 0.01286
53.5 0.01669
53.55 0.01482
53.6 0.01271
53.65 0.01429
53.7 0.01487
53.75 0.00888
53.8 -0.00008
53.85 -0.00692
53.9 -0.00922
53.95 -0.01195
54 -0.01181
54.05 -0.0115
54.1 -0.00801
54.15 -0.00573
54.2 0.0001
54.25 0.00192
54.3 -0.00051
54.35 0.00107
54.4 -0.00206
54.45 -0.00894
54.5 -0.01409
54.55 -0.01417
54.6 -0.01126
54.65 -0.01319
54.7 -0.01813
54.75 -0.0173
54.8 -0.01505
54.85 -0.00858
54.9 -0.00273
54.95 -0.00115
55 0.00062
55.05 0.0007
55.1 0.00183
55.15 0.0001
55.2 0.00296
55.25 0.00038
55.3 0.00171
55.35 0.00466
55.4 0.00617
55.45 0.00213
55.5 0.00359
55.55 0.00473
55.6 0.0072
55.65 0.01009
55.7 0.01482
55.75 0.01153
55.8 0.01251
55.85 0.01273
55.9 0.01445
55.95 0.01062
56 0.00772
56.05 0.00601
56.1 0.00319
56.15 0.00078
56.2 0.0004
56.25 -0.00205
56.3 -0.00298
56.35 -0.00464
56.4 -0.00341
56.45 -0.00517
56.5 -0.00338
56.55 0.00087
56.6 0.0055
56.65 0.00626
56.7 0.00296
56.75 -0.00152
56.8 -0.00329
56.85 -0.00071
56.9 -0.00089
56.95 -0.00336
57 -0.00608
57.05 -0.00867
57.1 -0.01129
57.15 -0.01405
57.2 -0.0109
57.25 -0.00508
57.3 -0.00086
57.35 0.0051
57.4 0.01068
57.45 0.01516
57.5 0.02036
57.55 0.01933
57.6 0.0203
57.65 0.02041
57.7 0.01494
57.75 0.01314
57.8 0.01038
57.85 0.00949
57.9 0.01077
57.95 0.01121
58 0.00873
58.05 0.00493
58.1 -0.00024
58.15 -0.00681
58.2 -0.01438
58.25 -0.01729
58.3 -0.01644
58.35 -0.01134
58.4 -0.00959
58.45 -0.00506
58.5 -0.00474
58.55 -0.00889
58.6 -0.00813
58.65 -0.0066
58.7 -0.00731
58.75 -0.01009
58.8 -0.00931
58.85 -0.00523
58.9 -0.0026
58.95 -0.00141
59 -0.00168
59.05 -0.0066
59.1 -0.00812
59.15 -0.01068
59.2 -0.01001
59.25 -0.00513
59.3 -0.00013
59.35 0.00385
59.4 0.009
59.45 0.00826
59.5 0.01021
59.55 0.00854
59.6 0.00544
59.65 -0.00166
59.7 -0.00714
59.75 -0.01358
59.8 -0.01724
59.85 -0.01601
59.9 -0.01445
59.95 -0.01065
60 -0.00573
60.05 -0.00061
60.1 0.00138
60.15 0.00282
60.2 -0.00074
60.25 -0.00007
60.3 0.00311
60.35 0.00408
60.4 0.00659
60.45 0.00974
60.5 0.01085
60.55 0.00572
60.6 -0.00277
60.65 -0.00801
60.7 -0.01051
60.75 -0.01126
60.8 -0.01346
60.85 -0.0154
60.9 -0.01979
60.95 -0.02188
61 -0.01966
61.05 -0.01934
61.1 -0.01809
61.15 -0.01252
61.2 -0.00761
61.25 -0.0008
61.3 -0.00115
61.35 -0.00383
61.4 -0.00942
61.45 -0.01573
61.5 -0.02236
61.55 -0.02414
61.6 -0.02698
61.65 -0.03097
61.7 -0.02755
61.75 -0.01932
61.8 -0.0154
61.85 -0.01129
61.9 -0.0122
61.95 -0.01219
62 -0.01217
62.05 -0.01012
62.1 -0.00363
62.15 -0.00355
62.2 -0.00759
62.25 -0.01352
62.3 -0.01589
62.35 -0.01876
62.4 -0.0206
62.45 -0.01639
62.5 -0.0169
62.55 -0.01208
62.6 -0.0051
62.65 0.00333
62.7 0.0059
62.75 0.00845
62.8 0.00872
62.85 0.00555
62.9 0.00656
62.95 0.00792
63 0.00898
63.05 0.0085
63.1 0.01002
63.15 0.01335
63.2 0.01468
63.25 0.01347
63.3 0.01182
63.35 0.00837
63.4 0.00301
63.45 -0.00054
63.5 0.00047
63.55 -0.00219
63.6 -0.00608
63.65 -0.00773
63.7 -0.00645
63.75 -0.0018
63.8 0.00155
63.85 0.00055
63.9 0.00298
63.95 0.00319
64 -0.00004
64.05 -0.00292
64.1 -0.00508
64.15 -0.00203
64.2 -0.00142
64.25 -0.0015
64.3 -0.00599
64.35 -0.00648
64.4 -0.00359
64.45 0.00261
64.5 0.00419
64.55 0.00255
64.6 -0.00285
64.65 -0.00603
64.7 -0.01014
64.75 -0.00798
64.8 -0.00517
64.85 -0.00616
64.9 -0.00183
64.95 -0.00004
65 0.00243
65.05 0.00526
65.1 0.0048
65.15 0.00272
65.2 0.00104
65.25 -0.00116
65.3 -0.00353
65.35 -0.00519
65.4 -0.00948
65.45 -0.00978
65.5 -0.00777
65.55 -0.00755
65.6 -0.00227
65.65 -0.00185
65.7 -0.006
65.75 -0.00833
65.8 -0.01248
65.85 -0.01085
65.9 -0.00656
65.95 0.00119
66 0.00557
66.05 0.00847
66.1 0.01383
66.15 0.0146
66.2 0.01165
66.25 0.0062
66.3 0.00378
66.35 -0.00098
66.4 -0.00468
66.45 -0.00903
66.5 -0.00841
66.55 -0.01189
66.6 -0.00987
66.65 -0.0055
66.7 -0.0006
66.75 0.00137
66.8 0.0069
66.85 0.00878
66.9 0.00512
66.95 0.00175
67 0.00064
67.05 -0.00328
67.1 -0.00498
67.15 -0.00331
67.2 -0.00255
67.25 -0.00508
67.3 -0.00369
67.35 -0.0052
67.4 -0.00376
67.45 0.00175
67.5 0.003
67.55 0.00279
67.6 0.00687
67.65 0.00886
67.7 0.00561
67.75 0.00763
67.8 0.00587
67.85 0.00763
67.9 0.00407
67.95 0.00597
68 0.01052
68.05 0.01194
68.1 0.01477
68.15 0.0122
68.2 0.00603
68.25 0.00105
68.3 -0.00554
68.35 -0.00539
68.4 -0.00211
68.45 -0.0037
68.5 -0.00278
68.55 -0.00316
68.6 -0.00313
68.65 0.00107
68.7 0.00361
68.75 0.00692
68.8 0.00842
68.85 0.00402
68.9 -0.00052
68.95 -0.00098
69 0.00229
69.05 0.00281
69.1 0.00331
69.15 0.00369
69.2 0.0076
69.25 0.01171
69.3 0.01541
69.35 0.01316
69.4 0.00714
69.45 0.00332
69.5 0.00177
69.55 -0.00388
69.6 -0.01006
69.65 -0.01091
69.7 -0.01531
69.75 -0.01662
69.8 -0.01368
69.85 -0.00883
69.9 -0.00406
69.95 -0.00258
70 -0.00504
70.05 -0.00468
70.1 -0.0062
70.15 -0.00751
70.2 -0.0112
70.25 -0.01583
70.3 -0.01331
70.35 -0.01056
70.4 -0.00695
70.45 -0.00858
70.5 -0.01185
70.55 -0.01673
70.6 -0.01839
70.65 -0.02005
70.7 -0.02225
70.75 -0.0239
70.8 -0.02463
70.85 -0.02041
70.9 -0.01668
70.95 -0.00975
71 -0.00674
71.05 -0.00748
71.1 -0.00557
71.15 0.0004
71.2 0.0026
71.25 -0.00005
71.3 -0.0047
71.35 -0.00742
71.4 -0.00916
71.45 -0.01113
71.5 -0.0087
71.55 -0.00388
71.6 -0.00394
71.65 -0.00504
71.7 -0.00904
71.75 -0.00618
71.8 -0.00349
71.85 -0.00403
71.9 -0.00642
71.95 -0.0044
72 0.00125
72.05 0.00384
72.1 0.00104
72.15 0.00406
72.2 0.00486
72.25 0.00669
72.3 0.00326
72.35 0.00377
72.4 -0.00021
72.45 -0.00301
72.5 -0.00042
72.55 0.00046
72.6 -0.00082
72.65 0.00222
72.7 0.00345
72.75 0.0004
72.8 -0.00443
72.85 -0.01134
72.9 -0.01727
72.95 -0.02201
73 -0.0216
73.05 -0.01851
73.1 -0.01558
73.15 -0.01607
73.2 -0.01686
73.25 -0.02006
73.3 -0.01551
73.35 -0.00771
73.4 -0.00409
73.45 -0.00335
73.5 -0.00571
73.55 -0.00946
73.6 -0.00701
73.65 -0.00218
73.7 0.00442
73.75 0.00493
73.8 0.00657
73.85 0.0105
73.9 0.00988
73.95 0.00469
74 -0.00245
74.05 -0.00587
74.1 -0.00716
74.15 -0.00812
74.2 -0.00294
74.25 -0.00275
74.3 -0.00195
74.35 0.00095
74.4 0.00601
74.45 0.00664
74.5 0.00771
74.55 0.00801
74.6 0.01183
74.65 0.01492
74.7 0.02054
74.75 0.0235
74.8 0.02807
74.85 0.02866
74.9 0.02601
74.95 0.02256
75 0.02036
75.05 0.01508
75.1 0.01431
75.15 0.01528
75.2 0.01243
75.25 0.00537
75.3 0.00212
75.35 0.00328
75.4 0.00014
75.45 0.00266
75.5 0.00203
75.55 0.00609
75.6 0.00756
75.65 0.00631
75.7 0.00187
75.75 -0.00241
75.8 -0.00033
75.85 0.00009
75.9 -0.0013
75.95 -0.00541
76 -0.00422
76.05 -0.00142
76.1 0.00457
76.15 0.00473
76.2 0.00621
76.25 0.00736
76.3 0.00787
76.35 0.00524
76.4 0.00074
76.45 -0.00304
76.5 -0.00857
76.55 -0.00947
76.6 -0.01025
76.65 -0.00547
76.7 -0.0034
76.75 -0.00283
76.8 0.00222
76.85 0.00482
76.9 0.00347
76.95 -0.00203
77 -0.00862
77.05 -0.01433
77.1 -0.01493
77.15 -0.0124
77.2 -0.00862
77.25 -0.00715
77.3 -0.00731
77.35 -0.01013
77.4 -0.00904
77.45 -0.00677
77.5 -0.0012
77.55 0.00304
77.6 0.00306
77.65 0.00169
77.7 0.00541
77.75 0.00471
77.8 0.00602
77.85 0.00259
77.9 0.00162
77.95 -0.0031
78 -0.00336
78.05 0.00104
78.1 0.00501
78.15 0.00383
78.2 0.00572
78.25 0.00611
78.3 0.00276
78.35 0.00043
78.4 0.00039
78.45 0.00295
78.5 0.00066
78.55 -0.00363
78.6 -0.00501
78.65 -0.00224
78.7 -0.00023
78.75 0.00556
78.8 0.00693
78.85 0.00669
78.9 0.00678
78.95 0.00295
79 0.00311
79.05 0.00344
79.1 0.00555
79.15 0.00807
79.2 0.00509
79.25 0.0002
79.3 -0.00041
79.35 -0.00485
79.4 -0.00487
79.45 -0.00687
79.5 -0.00482
79.55 -0.00152
79.6 -0.00265
79.65 -0.00377
79.7 -0.00428
79.75 -0.00299
79.8 -0.00462
79.85 -0.00459
79.9 -0.00309
79.95 0.00112
80 -0.00023
80.05 0.00255
80.1 0.00678
80.15 0.01057
80.2 0.00833
80.25 0.00608
80.3 0.00237
80.35 -0.00434
80.4 -0.0111
80.45 -0.01541
80.5 -0.01253
80.55 -0.01285
80.6 -0.01016
80.65 -0.00632
80.7 -0.00467
80.75 0.00054
80.8 -0.0002
80.85 -0.00263
80.9 0.0004
80.95 0.00678
81 0.00922
81.05 0.01105
81.1 0.01588
81.15 0.01604
81.2 0.01465
81.25 0.01066
81.3 0.00413
81.35 -0.0013
81.4 -0.0016
81.45 0.00244
81.5 0.00415
81.55 0.00038
81.6 -0.00583
81.65 -0.00877
81.7 -0.00866
81.75 -0.00651
81.8 -0.00508
81.85 -0.00711
81.9 -0.00821
81.95 -0.0058
82 -0.00641
82.05 -0.00886
82.1 -0.01292
82.15 -0.01722
82.2 -0.01987
82.25 -0.02397
82.3 -0.0243
82.35 -0.02116
82.4 -0.0149
82.45 -0.0135
82.5 -0.01004
82.55 -0.00347
82.6 -0.00217
82.65 -0.00068
82.7 0.00093
82.75 0.0066
82.8 0.00655
82.85 0.00507
82.9 0.00839
82.95 0.01062
83 0.01029
83.05 0.00558
83.1 0.00635
83.15 0.00766
83.2 0.00988
83.25 0.01061
83.3 0.00712
83.35 0.00412
83.4 0.0021
83.45 0.00463
83.5 0.00577
83.55 0.00609
83.6 0.00964
83.65 0.00778
83.7 0.00244
83.75 0.00083
83.8 -0.00155
83.85 -0.00129
83.9 -0.00414
83.95 -0.00243
84 -0.00207
84.05 -0.0035
84.1 -0.00743
84.15 -0.01201
84.2 -0.01017
84.25 -0.00627
84.3 -0.00652
84.35 -0.00399
84.4 0.00032
84.45 0.00169
84.5 0.00098
84.55 0.00531
84.6 0.00952
84.65 0.01375
84.7 0.01463
84.75 0.01208
84.8 0.00841
84.85 0.00678
84.9 0.0058
84.95 0.00308
85 -0.00258
85.05 -0.00767
85.1 -0.00724
85.15 -0.00923
85.2 -0.0137
85.25 -0.01357
85.3 -0.01656
85.35 -0.0123
85.4 -0.01074
85.45 -0.01297
85.5 -0.01454
85.55 -0.01011
85.6 -0.00316
85.65 0.00394
85.7 0.00602
85.75 0.00547
85.8 0.00471
85.85 0.00839
85.9 0.00735
85.95 0.0049
86 0.00281
86.05 0.0007
86.1 -0.00368
86.15 -0.00698
86.2 -0.00714
86.25 -0.00597
86.3 -0.00182
86.35 -0.00175
86.4 0.00017
86.45 0.00308
86.5 0.0056
86.55 0.00307
86.6 -0.00079
86.65 -0.00223
86.7 -0.00041
86.75 0.00126
86.8 0.00367
86.85 0.00085
86.9 -0.00232
86.95 -0.00004
87 -0.00253
87.05 -0.00269
87.1 -0.00175
87.15 0.00222
87.2 0.00736
87.25 0.00957
87.3 0.01181
87.35 0.01652
87.4 0.01889
87.45 0.01871
87.5 0.0163
87.55 0.01243
87.6 0.00992
87.65 0.00648
87.7 0.00591
87.75 0.00467
87.8 0.0017
87.85 0.0036
87.9 0.00433
87.95 0.00706
88 0.00385
88.05 0.0041
88.1 0.0038
88.15 0.0026
88.2 0.00442
88.25 0.00521
88.3 0.00634
88.35 0.00735
88.4 0.01118
88.45 0.01381
88.5 0.01047
88.55 0.00984
88.6 0.00471
88.65 -0.0012
88.7 -0.0076
88.75 -0.01331
88.8 -0.01832
88.85 -0.0242
88.9 -0.0254
88.95 -0.02133
89 -0.01459
89.05 -0.00567
89.1 0.00152
89.15 0.00233
89.2 0.00055
89.25 0.00191
89.3 0.00317
89.35 0.00466
89.4 0.00537
89.45 0.00213
89.5 0.00027
89.55 0.00142
89.6 0.00609
89.65 0.01124
89.7 0.01259
89.75 0.00941
89.8 0.01108
89.85 0.00915
89.9 0.00464
89.95 0.00135
90 0.00284
90.05 0.00772
90.1 0.0109
90.15 0.01158
90.2 0.00661
90.25 -0.00123
90.3 -0.00756
90.35 -0.01203
90.4 -0.01659
90.45 -0.01756
90.5 -0.0158
90.55 -0.0117
90.6 -0.00378
90.65 0.00554
90.7 0.01375
90.75 0.0223
90.8 0.02589
90.85 0.02439
90.9 0.02293
90.95 0.02138
91 0.01762
91.05 0.01626
91.1 0.00971
91.15 0.00169
91.2 -0.00655
91.25 -0.01281
91.3 -0.01312
91.35 -0.00827
91.4 -0.00423
91.45 0.00069
91.5 0.00468
91.55 0.00663
91.6 0.01153
91.65 0.01557
91.7 0.01399
91.75 0.00712
91.8 -0.00048
91.85 -0.00792
91.9 -0.00989
91.95 -0.00934
92 -0.00648
92.05 -0.00714
92.1 -0.01106
92.15 -0.01061
92.2 -0.0134
92.25 -0.01515
92.3 -0.01505
92.35 -0.01498
92.4 -0.01351
92.45 -0.00863
92.5 -0.00852
92.55 -0.0036
92.6 -0.00085
92.65 -0.0007
92.7 0.00206
92.75 -0.00017
92.8 -0.0011
92.85 -0.00155
92.9 -0.00291
92.95 0.0009
93 0.0075
93.05 0.01342
93.1 0.02017
93.15 0.02009
93.2 0.02095
93.25 0.0167
93.3 0.01301
93.35 0.00628
93.4 -0.00063
93.45 -0.00548
93.5 -0.0117
93.55 -0.01282
93.6 -0.00856
93.65 -0.00496
93.7 -0.00412
93.75 -0.00005
93.8 0.0051
93.85 0.01238
93.9 0.01433
93.95 0.01259
94 0.00769
94.05 0.00712
94.1 0.00681
94.15 0.00694
94.2 0.00634
94.25 0.00066
94.3 -0.00736
94.35 -0.01628
94.4 -0.02034
94.45 -0.0213
94.5 -0.02471
94.55 -0.02685
94.6 -0.02217
94.65 -0.02184
94.7 -0.01753
94.75 -0.01607
94.8 -0.01431
94.85 -0.01002
94.9 -0.00405
94.95 -0.00174
95 0.00279
95.05 0.00412
95.1 0.00629
95.15 0.00318
95.2 0.00342
95.25 0.00771
95.3 0.00846
95.35 0.00819
95.4 0.00925
95.45 0.01185
95.5 0.0156
95.55 0.01927
95.6 0.0243
95.65 0.02347
95.7 0.02148
95.75 0.01486
95.8 0.00908
95.85 -0.0001
95.9 -0.00286
95.95 -0.00761
96 -0.00968
96.05 -0.00751
96.1 -0.00888
96.15 -0.00462
96.2 -0.00568
96.25 -0.00261
96.3 -0.00224
96.35 -0.00045
96.4 0.0039
96.45 0.00779
96.5 0.00585
96.55 0.00569
96.6 0.00516
96.65 0.00174
96.7 0.00216
96.75 0.00065
96.8 -0.00109
96.85 -0.00353
96.9 -0.00147
96.95 0.00072
97 0.00437
97.05 0.00841
97.1 0.01025
97.15 0.01487
97.2 0.01794
97.25 0.01876
97.3 0.01659
97.35 0.00997
97.4 0.0072
97.45 0.00708
97.5 0.00393
97.55 0.00014
97.6 -0.00553
97.65 -0.01019
97.7 -0.0149
97.75 -0.01283
97.8 -0.01509
97.85 -0.01498
97.9 -0.01403
97.95 -0.01255
98 -0.01119
98.05 -0.00935
98.1 -0.00356
98.15 0.00325
98.2 0.00762
98.25 0.00588
98.3 0.00132
98.35 -0.00377
98.4 -0.00626
98.45 -0.00366
98.5 -0.00329
98.55 0.00073
98.6 0.0062
98.65 0.00908
98.7 0.00741
98.75 0.00165
98.8 0.0022
98.85 0.00184
98.9 0.00493
98.95 0.00525
99 0.00349
99.05 0.00369
99.1 -0.00035
99.15 -0.00061
99.2 0.00216
99.25 0.00068
99.3 0.00073
99.35 0.00136
99.4 0.00259
99.45 0.00457
99.5 0.00518
99.55 0.00552
99.6 0.00073
99.65 -0.0058
99.7 -0.00812
99.75 -0.012
99.8 -0.01819
99.85 -0.01675
99.9 -0.01922
99.95 -0.01639
