0 0
0.05 0.00862
0.1 0.01805
0.15 0.03113
0.2 0.04088
0.25 0.05217
0.3 0.05545
0.35 0.05836
0.4 0.05717
0.45 0.05609
0.5 0.05259
0.55 0.04581
0.6 0.04426
0.65 0.04223
0.7 0.04163
0.75 0.03978
0.8 0.03997
0.85 0.04025
0.9 0.04158
0.95 0.04707
1 0.05209
1.05 0.0574
1.1 0.05639
1.15 0.05126
1.2 0.04636
1.25 0.04381
1.3 0.03892
1.35 0.0365
1.4 0.03603
1.45 0.03583
1.5 0.03908
1.55 0.03774
1.6 0.03397
1.65 0.03246
1.7 0.02775
1.75 0.0267
1.8 0.02796
1.85 0.02598
1.9 0.02358
1.95 0.02609
2 0.02543
2.05 0.03013
2.1 0.03461
2.15 0.04184
2.2 0.04188
2.25 0.0445
2.3 0.04353
2.35 0.04524
2.4 0.04518
2.45 0.0405
2.5 0.03556
2.55 0.03053
2.6 0.02814
2.65 0.02518
2.7 0.02176
2.75 0.01547
2.8 0.01578
2.85 0.02088
2.9 0.02261
2.95 0.02001
3 0.02269
3.05 0.0261
3.1 0.03166
3.15 0.02981
3.2 0.02676
3.25 0.02245
3.3 0.01568
3.35 0.01169
3.4 0.01291
3.45 0.00989
3.5 0.01199
3.55 0.01779
3.6 0.02148
3.65 0.0277
3.7 0.02803
3.75 0.02853
3.8 0.02579
3.85 0.0218
3.9 0.01797
3.95 0.01352
4 0.01462
4.05 0.01272
4.1 0.00986
4.15 0.01166
4.2 0.01355
4.25 0.01261
4.3 0.01052
4.35 0.00632
4.4 0.00422
4.45 -0.00391
4.5 -0.01252
4.55 -0.02221
4.6 -0.02992
4.65 -0.0458
4.7 -0.06414
4.75 -0.08446
4.8 -0.10249
4.85 -0.12594
4.9 -0.15809
4.95 -0.1915
5 -0.22695
5.05 -0.26884
5.1 -0.3187
5.15 -0.37277
5.2 -0.43191
5.25 -0.49764
5.3 -0.57013
5.35 -0.64689
5.4 -0.72343
5.45 -0.79893
5.5 -0.87934
5.55 -0.9616
5.6 -1.04498
5.65 -1.12658
5.7 -1.21081
5.75 -1.29088
5.8 -1.37325
5.85 -1.45425
5.9 -1.5241
5.95 -1.58692
6 -1.642
6.05 -1.69279
6.1 -1.74211
6.15 -1.78082
6.2 -1.81104
6.25 -1.83437
6.3 -1.85721
6.35 -1.87278
6.4 -1.88334
6.45 -1.88373
6.5 -1.87508
6.55 -1.86461
6.6 -1.85091
6.65 -1.82488
6.7 -1.79118
6.75 -1.74277
6.8 -1.68456
6.85 -1.61536
6.9 -1.53815
6.95 -1.44961
7 -1.34889
7.05 -1.23315
7.1 -1.1099
7.15 -0.97832
7.2 -0.83714
7.25 -0.68809
7.3 -0.53104
7.35 -0.36972
7.4 -0.20347
7.45 -0.0332
7.5 0.13696
7.55 0.29723
7.6 0.44677
7.65 0.59514
7.7 0.73116
7.75 0.85871
7.8 0.97782
7.85 1.08858
7.9 1.18545
7.95 1.27137
8 1.35282
8.05 1.42192
8.1 1.48287
8.15 1.53987
8.2 1.58373
8.25 1.62584
8.3 1.66324
8.35 1.68794
8.4 1.70432
8.45 1.71909
8.5 1.72727
8.55 1.72905
8.6 1.72856
8.65 1.72061
8.7 1.70977
8.75 1.698
8.8 1.68314
8.85 1.66174
8.9 1.64153
8.95 1.61848
9 1.59625
9.05 1.57729
9.1 1.55445
9.15 1.53139
9.2 1.51202
9.25 1.49576
9.3 1.47526
9.35 1.45338
9.4 1.43464
9.45 1.41112
9.5 1.38507
9.55 1.36172
9.6 1.34098
9.65 1.32299
9.7 1.29899
9.75 1.27699
9.8 1.25219
9.85 1.23052
9.9 1.20613
9.95 1.17692
10 1.14675
10.05 1.12024
10.1 1.0883
10.15 1.05785
10.2 1.03089
10.25 1.00097
10.3 0.97438
10.35 0.94135
10.4 0.90628
10.45 0.8712
10.5 0.83907
10.55 0.803
10.6 0.7716
10.65 0.74397
10.7 0.71538
10.75 0.68424
10.8 0.6478
10.85 0.61065
10.9 0.57802
10.95 0.54347
11 0.50607
11.05 0.46636
11.1 0.428
11.15 0.39052
11.2 0.35295
11.25 0.32337
11.3 0.29506
11.35 0.26302
11.4 0.23109
11.45 0.1983
11.5 0.17182
11.55 0.14775
11.6 0.12468
11.65 0.10213
11.7 0.08307
11.75 0.06438
11.8 0.04364
11.85 0.02512
11.9 0.0044
11.95 -0.01588
12 -0.03277
12.05 -0.04849
12.1 -0.06952
12.15 -0.08728
12.2 -0.1098
12.25 -0.1304
12.3 -0.1448
12.35 -0.15748
12.4 -0.17283
12.45 -0.19081
12.5 -0.20521
12.55 -0.21657
12.6 -0.22521
12.65 -0.23715
12.7 -0.24766
12.75 -0.25214
12.8 -0.25784
12.85 -0.25888
12.9 -0.25837
12.95 -0.26257
13 -0.27117
13.05 -0.27491
13.1 -0.27419
13.15 -0.27014
13.2 -0.26742
13.25 -0.26728
13.3 -0.27167
13.35 -0.27235
13.4 -0.27233
13.45 -0.27725
13.5 -0.2763
13.55 -0.2797
13.6 -0.28533
13.65 -0.28797
13.7 -0.29263
13.75 -0.29821
13.8 -0.30329
13.85 -0.30379
13.9 -0.30039
13.95 -0.2977
14 -0.29021
14.05 -0.28105
14.1 -0.27604
14.15 -0.27296
14.2 -0.26551
14.25 -0.2628
14.3 -0.25984
14.35 -0.26012
14.4 -0.26108
14.45 -0.25651
14.5 -0.24733
14.55 -0.23667
14.6 -0.22841
14.65 -0.22141
14.7 -0.22072
14.75 -0.22163
14.8 -0.22493
14.85 -0.2301
14.9 -0.2356
14.95 -0.23379
15 -0.22798
15.05 -0.22461
15.1 -0.2171
15.15 -0.20667
15.2 -0.19499
15.25 -0.18323
15.3 -0.17823
15.35 -0.17967
15.4 -0.18344
15.45 -0.18608
15.5 -0.1882
15.55 -0.18589
15.6 -0.18688
15.65 -0.181
15.7 -0.1786
15.75 -0.17082
15.8 -0.16099
15.85 -0.15555
15.9 -0.14795
15.95 -0.14015
16 -0.13897
16.05 -0.13885
16.1 -0.14172
16.15 -0.14308
16.2 -0.14761
16.25 -0.14969
16.3 -0.15167
16.35 -0.15096
16.4 -0.14805
16.45 -0.14119
16.5 -0.13842
16.55 -0.13118
16.6 -0.12591
16.65 -0.12095
16.7 -0.115
16.75 -0.11462
16.8 -0.1148
16.85 -0.11246
16.9 -0.11123
16.95 -0.11239
17 -0.11374
17.05 -0.11479
17.1 -0.11285
17.15 -0.11401
17.2 -0.11404
17.25 -0.11466
17.3 -0.11691
17.35 -0.11939
17.4 -0.11439
17.45 -0.11137
17.5 -0.11043
17.55 -0.10864
17.6 -0.10107
17.65 -0.09155
17.7 -0.08049
17.75 -0.07476
17.8 -0.07077
17.85 -0.07039
17.9 -0.07174
17.95 -0.0741
18 -0.07311
18.05 -0.07741
18.1 -0.08206
18.15 -0.08102
18.2 -0.08195
18.25 -0.08617
18.3 -0.08542
18.35 -0.07945
18.4 -0.07142
18.45 -0.06697
18.5 -0.06754
18.55 -0.06455
18.6 -0.05992
18.65 -0.06048
18.7 -0.06157
18.75 -0.06203
18.8 -0.06693
18.85 -0.065
18.9 -0.06196
18.95 -0.06222
19 -0.05764
19.05 -0.05706
19.1 -0.05277
19.15 -0.04596
19.2 -0.04021
19.25 -0.03982
19.3 -0.03837
19.35 -0.03732
19.4 -0.03815
19.45 -0.03791
19.5 -0.03985
19.55 -0.04159
19.6 -0.04799
19.65 -0.05645
19.7 -0.06343
19.75 -0.06734
19.8 -0.06941
19.85 -0.0706
19.9 -0.06504
19.95 -0.05762
20 -0.05472
20.05 -0.05298
20.1 -0.04779
20.15 -0.04477
20.2 -0.04312
20.25 -0.04169
20.3 -0.0399
20.35 -0.0393
20.4 -0.04182
20.45 -0.04691
20.5 -0.05236
20.55 -0.05627
20.6 -0.05487
20.65 -0.0476
20.7 -0.03984
20.75 -0.03354
20.8 -0.02723
20.85 -0.01901
20.9 -0.01365
20.95 -0.01095
21 -0.01492
21.05 -0.01587
21.1 -0.01541
21.15 -0.01411
21.2 -0.01703
21.25 -0.0213
21.3 -0.02926
21.35 -0.03235
21.4 -0.03546
21.45 -0.03352
21.5 -0.02755
21.55 -0.02264
21.6 -0.02063
21.65 -0.01812
21.7 -0.01903
21.75 -0.01612
21.8 -0.01207
21.85 -0.00906
21.9 -0.01013
21.95 -0.01661
22 -0.02597
22.05 -0.03145
22.1 -0.03433
22.15 -0.03176
22.2 -0.02583
22.25 -0.01966
22.3 -0.02053
22.35 -0.02137
22.4 -0.02517
22.45 -0.03072
22.5 -0.02994
22.55 -0.0261
22.6 -0.01868
22.65 -0.01245
22.7 -0.01058
22.75 -0.00924
22.8 -0.01282
22.85 -0.01164
22.9 -0.01293
22.95 -0.01881
23 -0.02315
23.05 -0.02819
23.1 -0.02865
23.15 -0.02494
23.2 -0.02148
23.25 -0.02051
23.3 -0.01696
23.35 -0.01529
23.4 -0.01271
23.45 -0.00985
23.5 -0.00638
23.55 -0.00708
23.6 -0.00855
23.65 -0.01152
23.7 -0.01622
23.75 -0.02056
23.8 -0.01918
23.85 -0.01989
23.9 -0.01863
23.95 -0.01453
24 -0.01102
24.05 -0.00648
24.1 -0.00173
24.15 -0.00011
24.2 -0.00257
24.25 -0.00047
24.3 -0.0005
24.35 -0.00316
24.4 -0.00283
24.45 -0.00642
24.5 -0.01287
24.55 -0.02117
24.6 -0.02961
24.65 -0.03007
24.7 -0.02593
24.75 -0.02433
24.8 -0.01984
24.85 -0.02081
24.9 -0.02174
24.95 -0.02566
25 -0.02426
25.05 -0.01857
25.1 -0.0179
25.15 -0.01738
25.2 -0.01198
25.25 -0.0114
25.3 -0.01001
25.35 -0.00568
25.4 -0.00607
25.45 -0.00599
25.5 -0.00465
25.55 0.0002
25.6 0.00689
25.65 0.00739
25.7 0.00841
25.75 0.00513
25.8 0.00626
25.85 0.00417
25.9 -0.00282
25.95 -0.00431
26 -0.00833
26.05 -0.01352
26.1 -0.01513
26.15 -0.01626
26.2 -0.01271
26.25 -0.01214
26.3 -0.0144
26.35 -0.01573
26.4 -0.01142
26.45 -0.01185
26.5 -0.00816
26.55 -0.0075
26.6 -0.00979
26.65 -0.01557
26.7 -0.02275
26.75 -0.02427
26.8 -0.02582
26.85 -0.02894
26.9 -0.02983
26.95 -0.02906
27 -0.02393
27.05 -0.02219
27.1 -0.01734
27.15 -0.0169
27.2 -0.01392
27.25 -0.00862
27.3 -0.00372
27.35 0.00391
27.4 0.00389
27.45 0.00561
27.5 0.00119
27.55 -0.00566
27.6 -0.01028
27.65 -0.01665
27.7 -0.02139
27.75 -0.0246
27.8 -0.02439
27.85 -0.02596
27.9 -0.02339
27.95 -0.02021
28 -0.01688
28.05 -0.01171
28.1 -0.00854
28.15 -0.00692
28.2 -0.00678
28.25 -0.01428
28.3 -0.02344
28.35 -0.03728
28.4 -0.04942
28.45 -0.05991
28.5 -0.07118
28.55 -0.08529
28.6 -0.09585
28.65 -0.10904
28.7 -0.12428
28.75 -0.1371
28.8 -0.14876
28.85 -0.16758
28.9 -0.19031
28.95 -0.21997
29 -0.25112
29.05 -0.28218
29.1 -0.31391
29.15 -0.34342
29.2 -0.37222
29.25 -0.40104
29.3 -0.42881
29.35 -0.45636
29.4 -0.48466
29.45 -0.51714
29.5 -0.54797
29.55 -0.58295
29.6 -0.61348
29.65 -0.64816
29.7 -0.68394
29.75 -0.71352
29.8 -0.73698
29.85 -0.76017
29.9 -0.78075
29.95 -0.78957
30 -0.79032
30.05 -0.79107
30.1 -0.78975
30.15 -0.78102
30.2 -0.77035
30.25 -0.75074
30.3 -0.72783
30.35 -0.69541
30.4 -0.65489
30.45 -0.61021
30.5 -0.56648
30.55 -0.51764
30.6 -0.46214
30.65 -0.40226
30.7 -0.34721
30.75 -0.29009
30.8 -0.22998
30.85 -0.17273
30.9 -0.11296
30.95 -0.05473
31 -0.00333
31.05 0.04514
31.1 0.09848
31.15 0.14939
31.2 0.19802
31.25 0.24192
31.3 0.28502
31.35 0.32017
31.4 0.35305
31.45 0.3816
31.5 0.40584
31.55 0.42645
31.6 0.44713
31.65 0.46513
31.7 0.48869
31.75 0.50625
31.8 0.52179
31.85 0.53497
31.9 0.55095
31.95 0.56693
32 0.57972
32.05 0.59224
32.1 0.6039
32.15 0.61312
32.2 0.62009
32.25 0.62846
32.3 0.62977
32.35 0.62889
32.4 0.63138
32.45 0.62924
32.5 0.62841
32.55 0.62772
32.6 0.62123
32.65 0.61728
32.7 0.61613
32.75 0.61012
32.8 0.60608
32.85 0.59958
32.9 0.58819
32.95 0.57405
33 0.55734
33.05 0.54804
33.1 0.54116
33.15 0.53285
33.2 0.52424
33.25 0.5116
33.3 0.50132
33.35 0.48857
33.4 0.47697
33.45 0.46778
33.5 0.46042
33.55 0.44546
33.6 0.43104
33.65 0.4127
33.7 0.39468
33.75 0.37392
33.8 0.35748
33.85 0.3406
33.9 0.32352
33.95 0.3086
34 0.29759
34.05 0.28965
34.1 0.27811
34.15 0.26606
34.2 0.25931
34.25 0.24848
34.3 0.23512
34.35 0.22025
34.4 0.2036
34.45 0.19118
34.5 0.17813
34.55 0.1719
34.6 0.16665
34.65 0.16002
34.7 0.15681
34.75 0.15256
34.8 0.14477
34.85 0.13329
34.9 0.11892
34.95 0.10545
35 0.0891
35.05 0.07212
35.1 0.06247
35.15 0.05599
35.2 0.04938
35.25 0.04352
35.3 0.04102
35.35 0.034
35.4 0.02521
35.45 0.01834
35.5 0.01376
35.55 0.01019
35.6 0.00221
35.65 -0.00847
35.7 -0.01868
35.75 -0.0302
35.8 -0.0396
35.85 -0.045
35.9 -0.04754
35.95 -0.0507
36 -0.04878
36.05 -0.04731
36.1 -0.04323
36.15 -0.04013
36.2 -0.0378
36.25 -0.03971
36.3 -0.04609
36.35 -0.0542
36.4 -0.06505
36.45 -0.07532
36.5 -0.07955
36.55 -0.08029
36.6 -0.07843
36.65 -0.07859
36.7 -0.08187
36.75 -0.08963
36.8 -0.09719
36.85 -0.09994
36.9 -0.10499
36.95 -0.10451
37 -0.10457
37.05 -0.1087
37.1 -0.11402
37.15 -0.11935
37.2 -0.12112
37.25 -0.12227
37.3 -0.122
37.35 -0.12023
37.4 -0.12162
37.45 -0.12328
37.5 -0.11786
37.55 -0.11204
37.6 -0.10729
37.65 -0.09923
37.7 -0.0963
37.75 -0.09415
37.8 -0.08956
37.85 -0.08931
37.9 -0.08567
37.95 -0.08469
38 -0.08429
38.05 -0.08405
38.1 -0.08431
38.15 -0.08111
38.2 -0.07648
38.25 -0.07423
38.3 -0.07416
38.35 -0.07535
38.4 -0.07756
38.45 -0.08374
38.5 -0.08579
38.55 -0.08203
38.6 -0.0781
38.65 -0.07203
38.7 -0.07265
38.75 -0.07301
38.8 -0.07316
38.85 -0.07612
38.9 -0.07593
38.95 -0.07079
39 -0.06303
39.05 -0.05434
39.1 -0.04534
39.15 -0.04292
39.2 -0.04275
39.25 -0.04652
39.3 -0.05303
39.35 -0.05484
39.4 -0.05544
39.45 -0.05841
39.5 -0.06433
39.55 -0.07191
39.6 -0.07907
39.65 -0.08061
39.7 -0.07794
39.75 -0.07251
39.8 -0.06363
39.85 -0.0561
39.9 -0.05387
39.95 -0.04842
40 -0.0449
40.05 -0.04648
40.1 -0.04368
40.15 -0.04697
40.2 -0.04759
40.25 -0.04589
40.3 -0.04891
40.35 -0.04708
40.4 -0.04285
40.45 -0.03618
40.5 -0.02988
40.55 -0.0254
40.6 -0.02629
40.65 -0.02762
40.7 -0.03268
40.75 -0.03933
40.8 -0.04836
40.85 -0.05591
40.9 -0.05681
40.95 -0.05221
41 -0.0489
41.05 -0.04472
41.1 -0.03833
41.15 -0.03583
41.2 -0.03082
41.25 -0.03107
41.3 -0.03241
41.35 -0.03298
41.4 -0.03327
41.45 -0.03175
41.5 -0.0331
41.55 -0.03639
41.6 -0.03672
41.65 -0.0368
41.7 -0.03618
41.75 -0.03654
41.8 -0.03351
41.85 -0.03092
41.9 -0.02527
41.95 -0.01958
42 -0.0142
42.05 -0.00919
42.1 -0.00393
42.15 -0.00556
42.2 -0.00656
42.25 -0.01118
42.3 -0.01264
42.35 -0.01932
42.4 -0.0255
42.45 -0.02987
42.5 -0.03347
42.55 -0.03082
42.6 -0.03085
42.65 -0.03431
42.7 -0.03244
42.75 -0.02644
42.8 -0.02667
42.85 -0.02409
42.9 -0.02249
42.95 -0.02198
43 -0.02476
43.05 -0.02198
43.1 -0.0197
43.15 -0.01434
43.2 -0.01189
43.25 -0.00698
43.3 -0.00265
43.35 0.00081
43.4 0.00478
43.45 0.00462
43.5 0.00025
43.55 -0.00177
43.6 -0.00615
43.65 -0.00699
43.7 -0.00728
43.75 -0.00482
43.8 -0.00717
43.85 -0.01016
43.9 -0.01604
43.95 -0.01992
44 -0.02493
44.05 -0.02745
44.1 -0.02605
44.15 -0.02424
44.2 -0.02679
44.25 -0.02363
44.3 -0.02227
44.35 -0.01726
44.4 -0.01801
44.45 -0.01817
44.5 -0.01967
44.55 -0.02465
44.6 -0.02286
44.65 -0.02068
44.7 -0.02162
44.75 -0.02169
44.8 -0.02249
44.85 -0.02262
44.9 -0.01849
44.95 -0.01285
45 -0.01314
45.05 -0.01738
45.1 -0.02284
45.15 -0.02347
45.2 -0.02445
45.25 -0.02672
45.3 -0.02448
45.35 -0.02199
45.4 -0.016
45.45 -0.00819
45.5 -0.00541
45.55 -0.00566
45.6 -0.00331
45.65 0.0007
45.7 0.00211
45.75 0.00362
45.8 0.00477
45.85 0.00677
45.9 0.00253
45.95 -0.00459
46 -0.01146
46.05 -0.01121
46.1 -0.01498
46.15 -0.01488
46.2 -0.01077
46.25 -0.01156
46.3 -0.00901
46.35 -0.00313
46.4 0.00051
46.45 0.00234
46.5 0.00129
46.55 -0.00438
46.6 -0.00702
46.65 -0.01327
46.7 -0.01791
46.75 -0.01617
46.8 -0.01077
46.85 -0.00659
46.9 -0.00337
46.95 -0.00015
47 0.00491
47.05 0.01066
47.1 0.01447
47.15 0.01099
47.2 0.00885
47.25 0.00974
47.3 0.00514
47.35 0.00123
47.4 -0.0035
47.45 -0.00526
47.5 -0.01072
47.55 -0.01354
47.6 -0.01919
47.65 -0.02624
47.7 -0.02645
47.75 -0.02047
47.8 -0.01299
47.85 -0.00408
47.9 0.0042
47.95 0.00967
48 0.01154
48.05 0.0068
48.1 0.00374
48.15 -0.0016
48.2 -0.00216
48.25 -0.00109
48.3 -0.00278
48.35 -0.00109
48.4 -0.00396
48.45 -0.00479
48.5 -0.00967
48.55 -0.01604
48.6 -0.02295
48.65 -0.03029
48.7 -0.03351
48.75 -0.03064
48.8 -0.02368
48.85 -0.01512
48.9 -0.01045
48.95 -0.01085
49 -0.00963
49.05 -0.00773
49.1 -0.00659
49.15 -0.00943
49.2 -0.01529
49.25 -0.02008
49.3 -0.02561
49.35 -0.03138
49.4 -0.03595
49.45 -0.03402
49.5 -0.03235
49.55 -0.03221
49.6 -0.02959
49.65 -0.0266
49.7 -0.02045
49.75 -0.01509
49.8 -0.0106
49.85 -0.00968
49.9 -0.00483
49.95 0.00216
50 0.00396
50.05 0.00244
50.1 0.00526
50.15 0.00977
50.2 0.01243
50.25 0.01683
50.3 0.01845
50.35 0.01759
50.4 0.01925
50.45 0.02154
50.5 0.02025
50.55 0.01627
50.6 0.01577
50.65 0.01713
50.7 0.01983
50.75 0.01841
50.8 0.01916
50.85 0.01805
50.9 0.0192
50.95 0.02036
51 0.01903
51.05 0.01723
51.1 0.01641
51.15 0.0156
51.2 0.01511
51.25 0.0162
51.3 0.01581
51.35 0.01007
51.4 0.00294
51.45 -0.00095
51.5 -0.00075
51.55 -0.00173
51.6 -0.00248
51.65 -0.00423
51.7 -0.00986
51.75 -0.01344
51.8 -0.01654
51.85 -0.02131
51.9 -0.02386
51.95 -0.02734
52 -0.02521
52.05 -0.02127
52.1 -0.02206
52.15 -0.02081
52.2 -0.01499
52.25 -0.013
52.3 -0.0124
52.35 -0.01393
52.4 -0.01862
52.45 -0.01937
52.5 -0.01876
52.55 -0.01633
52.6 -0.01069
52.65 -0.00707
52.7 -0.00424
52.75 -0.00205
52.8 -0.00407
52.85 -0.00883
52.9 -0.01289
52.95 -0.01349
53 -0.0103
53.05 -0.0057
53.1 -0.0039
53.15 -0.00425
53.2 -0.00853
53.25 -0.00852
53.3 -0.01115
53.35 -0.01478
53.4 -0.01351
53.45 -0.0097
53.5 -0.00332
53.55 0.00419
53.6 0.00637
53.65 0.00421
53.7 -0.00155
53.75 -0.00422
53.8 -0.01018
53.85 -0.00901
53.9 -0.00729
53.95 -0.0033
54 0.00179
54.05 0.00313
54.1 0.00594
54.15 0.00331
54.2 -0.0007
54.25 -0.00048
54.3 -0.00426
54.35 -0.00275
54.4 -0.00418
54.45 -0.00718
54.5 -0.0053
54.55 -0.00174
54.6 -0.00055
54.65 -0.00227
54.7 -0.00193
54.75 -0.00393
54.8 -0.00782
54.85 -0.01334
54.9 -0.0133
54.95 -0.01066
55 -0.00671
55.05 -0.00184
55.1 0.00558
55.15 0.00621
55.2 0.00401
55.25 0.00328
55.3 -0.00054
55.35 -0.00612
55.4 -0.00439
55.45 -0.00691
55.5 -0.01247
55.55 -0.01472
55.6 -0.01393
55.65 -0.00858
55.7 -0.00139
55.75 0.00384
55.8 0.00544
55.85 0.00399
55.9 0.00568
55.95 0.00908
56 0.00917
56.05 0.01007
56.1 0.01155
56.15 0.01499
56.2 0.01724
56.25 0.0167
56.3 0.01085
56.35 0.00843
56.4 0.00832
56.45 0.00883
56.5 0.00623
56.55 0.00095
56.6 -0.00658
56.65 -0.00767
56.7 -0.00739
56.75 -0.00572
56.8 -0.00007
56.85 0.00377
56.9 0.00937
56.95 0.01162
57 0.01551
57.05 0.01387
57.1 0.00685
57.15 -0.0029
57.2 -0.00533
57.25 -0.00816
57.3 -0.00646
57.35 -0.00257
57.4 0.00361
57.45 0.01076
57.5 0.01767
57.55 0.02015
57.6 0.02292
57.65 0.02319
57.7 0.018
57.75 0.0171
57.8 0.01831
57.85 0.01285
57.9 0.00711
57.95 -0.0007
58 -0.01039
58.05 -0.01335
58.1 -0.01435
58.15 -0.01597
58.2 -0.01919
58.25 -0.01708
58.3 -0.01218
58.35 -0.00381
58.4 -0.00074
58.45 -0.00055
58.5 0.00004
58.55 0.00197
58.6 -0.00047
58.65 -0.00395
58.7 -0.00899
58.75 -0.01325
58.8 -0.01416
58.85 -0.01514
58.9 -0.01129
58.95 -0.0113
59 -0.00788
59.05 -0.00305
59.1 0.00003
59.15 0.00502
59.2 0.01226
59.25 0.01567
59.3 0.01823
59.35 0.01442
59.4 0.01431
59.45 0.01504
59.5 0.01219
59.55 0.00502
59.6 -0.00072
59.65 -0.00256
59.7 -0.00609
59.75 -0.00824
59.8 -0.0121
59.85 -0.01511
59.9 -0.01342
59.95 -0.01548
60 -0.01304
60.05 -0.01346
60.1 -0.014
60.15 -0.01281
60.2 -0.01357
60.25 -0.00994
60.3 -0.00331
60.35 -0.00231
60.4 -0.00223
60.45 -0.00378
60.5 -0.00534
60.55 -0.00852
60.6 -0.00899
60.65 -0.00461
60.7 -0.00262
60.75 -0.00374
60.8 -0.00267
60.85 -0.00458
60.9 -0.00603
60.95 -0.01095
61 -0.01664
61.05 -0.02286
61.1 -0.0287
61.15 -0.02697
61.2 -0.02708
61.25 -0.02886
61.3 -0.02962
61.35 -0.03108
61.4 -0.03361
61.45 -0.03642
61.5 -0.03034
61.55 -0.02584
61.6 -0.01831
61.65 -0.00989
61.7 -0.00434
61.75 -0.00437
61.8 -0.00688
61.85 -0.01127
61.9 -0.01339
61.95 -0.00917
62 -0.00817
62.05 -0.00554
62.1 -0.00003
62.15 -0.00002
62.2 0.00165
62.25 0.00639
62.3 0.00864
62.35 0.00962
62.4 0.01227
62.45 0.01551
62.5 0.01283
62.55 0.00849
62.6 0.00928
62.65 0.00805
62.7 0.00938
62.75 0.00844
62.8 0.01137
62.85 0.01533
62.9 0.01594
62.95 0.01754
63 0.01929
63.05 0.02317
63.1 0.02155
63.15 0.01555
63.2 0.00789
63.25 0.00181
63.3 -0.00451
63.35 -0.00793
63.4 -0.01
63.45 -0.00594
63.5 -0.00002
63.55 0.00277
63.6 0.00297
63.65 0.00776
63.7 0.00594
63.75 0.00276
63.8 -0.00302
63.85 -0.00557
63.9 -0.00527
63.95 -0.00769
64 -0.01124
64.05 -0.00984
64.1 -0.01212
64.15 -0.01623
64.2 -0.0217
64.25 -0.01885
64.3 -0.01764
64.35 -0.01666
64.4 -0.01338
64.45 -0.01137
64.5 -0.01304
64.55 -0.01201
64.6 -0.01187
64.65 -0.0081
64.7 -0.00424
64.75 -0.00207
64.8 0.00238
64.85 0.0014
64.9 0.00284
64.95 0.00816
65 0.0094
65.05 0.01146
65.1 0.01208
65.15 0.0088
65.2 0.00965
65.25 0.01174
65.3 0.01519
65.35 0.01332
65.4 0.0136
65.45 0.01292
65.5 0.01036
65.55 0.00428
65.6 -0.00346
65.65 -0.01008
65.7 -0.01064
65.75 -0.01335
65.8 -0.01325
65.85 -0.00937
65.9 -0.00179
65.95 0.00272
66 0.00443
66.05 0.00134
66.1 0.00232
66.15 0
66.2 -0.00531
66.25 -0.01182
66.3 -0.01269
66.35 -0.0078
66.4 -0.00699
66.45 -0.00487
66.5 -0.0006
66.55 0.00338
66.6 0.00311
66.65 -0.00163
66.7 -0.00189
66.75 0.00217
66.8 0.00305
66.85 0.00088
66.9 0.00251
66.95 0.00689
67 0.00876
67.05 0.00833
67.1 0.00985
67.15 0.00698
67.2 0.00138
67.25 -0.00437
67.3 -0.00912
67.35 -0.00789
67.4 -0.00269
67.45 0.00579
67.5 0.01036
67.55 0.01645
67.6 0.01952
67.65 0.0237
67.7 0.02303
67.75 0.0213
67.8 0.0213
67.85 0.01593
67.9 0.01203
67.95 0.00704
68 0.0022
68.05 -0.00012
68.1 0.00098
68.15 0.0032
68.2 0.00282
68.25 0.00349
68.3 0.00648
68.35 0.00531
68.4 0.00157
68.45 -0.00039
68.5 -0.00376
68.55 -0.00901
68.6 -0.01366
68.65 -0.01604
68.7 -0.01743
68.75 -0.01903
68.8 -0.02133
68.85 -0.01645
68.9 -0.01398
68.95 -0.00865
69 -0.00865
69.05 -0.01055
69.1 -0.00983
69.15 -0.00828
69.2 -0.00659
69.25 -0.00749
69.3 -0.00557
69.35 -0.00585
69.4 -0.00576
69.45 -0.00726
69.5 -0.00935
69.55 -0.01024
69.6 -0.00543
69.65 -0.0039
69.7 -0.00623
69.75 -0.00738
69.8 -0.00522
69.85 -0.00114
69.9 0.00309
69.95 0.00538
70 0.00824
70.05 0.00509
70.1 0.00588
70.15 0.00417
70.2 0.00594
70.25 0.01025
70.3 0.01043
70.35 0.01139
70.4 0.00919
70.45 0.0044
70.5 0.00437
70.55 0.00175
70.6 -0.00155
70.65 -0.00374
70.7 -0.00263
70.75 -0.00173
70.8 0.00277
70.85 0.00143
70.9 0.00054
70.95 -0.00433
71 -0.01118
71.05 -0.01551
71.1 -0.01355
71.15 -0.01316
71.2 -0.01216
71.25 -0.01349
71.3 -0.01191
71.35 -0.00877
71.4 -0.0079
71.45 -0.00271
71.5 0.00392
71.55 0.00457
71.6 0.00073
71.65 0.00107
71.7 0.00043
71.75 -0.00316
71.8 -0.00454
71.85 -0.0048
71.9 -0.00703
71.95 -0.00808
72 -0.00566
72.05 -0
72.1 0.00068
72.15 0.0002
72.2 0.00444
72.25 0.01107
72.3 0.01112
72.35 0.01451
72.4 0.01285
72.45 0.01126
72.5 0.01286
72.55 0.01185
72.6 0.01249
72.65 0.00752
72.7 0.00809
72.75 0.0049
72.8 0.00007
72.85 -0.00281
72.9 -0.00067
72.95 0.00237
73 0.00292
73.05 0.00146
73.1 0.00132
73.15 -0.00296
73.2 -0.00721
73.25 -0.00474
73.3 -0.0013
73.35 0.00052
73.4 0.00288
73.45 0.00642
73.5 0.0116
73.55 0.01231
73.6 0.01179
73.65 0.01384
73.7 0.01842
73.75 0.01653
73.8 0.01181
73.85 0.0088
73.9 0.01018
73.95 0.00925
74 0.00646
74.05 0.00331
74.1 -0.00254
74.15 -0.00427
74.2 -0.00801
74.25 -0.00506
74.3 -0.00669
74.35 -0.00964
74.4 -0.01009
74.45 -0.00795
74.5 -0.00805
74.55 -0.00336
74.6 -0.00127
74.65 -0.00391
74.7 -0.00636
74.75 -0.00748
74.8 -0.01148
74.85 -0.01742
74.9 -0.02019
74.95 -0.02019
75 -0.01437
75.05 -0.00699
75.1 0.0011
75.15 0.00746
75.2 0.01495
75.25 0.01553
75.3 0.01383
75.35 0.01543
75.4 0.0198
75.45 0.01904
75.5 0.0215
75.55 0.02339
75.6 0.02461
75.65 0.01977
75.7 0.01142
75.75 0.0044
75.8 -0.00261
75.85 -0.00959
75.9 -0.00997
75.95 -0.00588
76 0.00018
76.05 0.00741
76.1 0.01118
76.15 0.01213
76.2 0.01375
76.25 0.01588
76.3 0.01427
76.35 0.01273
76.4 0.01058
76.45 0.00496
76.5 0.00231
76.55 -0.00408
76.6 -0.0103
76.65 -0.00922
76.7 -0.0101
76.75 -0.00887
76.8 -0.00694
76.85 -0.00734
76.9 -0.01024
76.95 -0.00702
77 -0.00208
77.05 0.00499
77.1 0.00605
77.15 0.00219
77.2 -0.0022
77.25 -0.00138
77.3 -0.00043
77.35 0.00108
77.4 0.00531
77.45 0.0097
77.5 0.0116
77.55 0.01452
77.6 0.01071
77.65 0.00411
77.7 -0.00257
77.75 -0.00808
77.8 -0.01559
77.85 -0.0197
77.9 -0.02294
77.95 -0.02649
78 -0.02263
78.05 -0.02155
78.1 -0.02147
78.15 -0.02126
78.2 -0.01619
78.25 -0.01001
78.3 -0.00501
78.35 0.00311
78.4 0.00684
78.45 0.00996
78.5 0.01422
78.55 0.01692
78.6 0.02183
78.65 0.02735
78.7 0.02416
78.75 0.01865
78.8 0.01206
78.85 0.00259
78.9 -0.0023
78.95 -0.00478
79 -0.00145
79.05 -0.00291
79.1 -0.00069
79.15 -0.003
79.2 -0.00238
79.25 -0.00031
79.3 0.00065
79.35 -0.00004
79.4 -0.00081
79.45 0.00111
79.5 0.0044
79.55 0.00617
79.6 0.01127
79.65 0.01287
79.7 0.01254
79.75 0.01111
79.8 0.00508
79.85 -0.00373
79.9 -0.01261
79.95 -0.01664
80 -0.02159
80.05 -0.02208
80.1 -0.02103
80.15 -0.02064
80.2 -0.01496
80.25 -0.01249
80.3 -0.01185
80.35 -0.00883
80.4 -0.00348
80.45 0.00411
80.5 0.00538
80.55 0.00948
80.6 0.00826
80.65 0.0108
80.7 0.00804
80.75 0.00754
80.8 0.0089
80.85 0.00433
80.9 -0.00277
80.95 -0.00535
81 -0.00537
81.05 -0.00726
81.1 -0.00797
81.15 -0.0045
81.2 -0.0062
81.25 -0.00846
81.3 -0.00846
81.35 -0.01047
81.4 -0.01032
81.45 -0.01158
81.5 -0.00872
81.55 -0.00604
81.6 0.00075
81.65 0.00524
81.7 0.00759
81.75 0.01229
81.8 0.01726
81.85 0.02364
81.9 0.0216
81.95 0.01656
82 0.01154
82.05 0.00709
82.1 0.00288
82.15 0.00254
82.2 -0.00155
82.25 -0.00317
82.3 -0.00216
82.35 0.00277
82.4 0.00899
82.45 0.00808
82.5 0.01122
82.55 0.01604
82.6 0.01532
82.65 0.00936
82.7 0.00055
82.75 -0.00508
82.8 -0.00656
82.85 -0.00657
82.9 -0.00723
82.95 -0.00731
83 -0.00892
83.05 -0.01361
83.1 -0.0186
83.15 -0.02155
83.2 -0.02131
83.25 -0.02341
83.3 -0.01997
83.35 -0.0149
83.4 -0.00796
83.45 0.00171
83.5 0.00357
83.55 0.0061
83.6 0.00443
83.65 0.00473
83.7 0.00788
83.75 0.00814
83.8 0.00776
83.85 0.00691
83.9 0.00326
83.95 0.00089
84 -0.00526
84.05 -0.00413
84.1 -0.00389
84.15 -0.00351
84.2 -0.00238
84.25 0.00113
84.3 0.00513
84.35 0.0106
84.4 0.01432
84.45 0.01202
84.5 0.00987
84.55 0.0108
84.6 0.00745
84.65 0.00226
84.7 -0.00353
84.75 -0.00475
84.8 -0.00193
84.85 0.0034
84.9 0.00257
84.95 0.00433
85 0.00251
85.05 -0.00254
85.1 -0.00955
85.15 -0.01083
85.2 -0.01221
85.25 -0.00915
85.3 -0.00561
85.35 -0.00162
85.4 -0.00185
85.45 -0.0042
85.5 -0.00283
85.55 -0.00058
85.6 -0.0018
85.65 -0.00425
85.7 -0.00864
85.75 -0.01393
85.8 -0.01497
85.85 -0.01396
85.9 -0.01246
85.95 -0.01401
86 -0.01156
86.05 -0.01078
86.1 -0.00767
86.15 -0.00382
86.2 0.00235
86.25 0.00962
86.3 0.01512
86.35 0.02209
86.4 0.02832
86.45 0.02796
86.5 0.02532
86.55 0.026
86.6 0.02221
86.65 0.0147
86.7 0.01147
86.75 0.00954
86.8 0.00678
86.85 0.00115
86.9 -0.00336
86.95 -0.00856
87 -0.01114
87.05 -0.0142
87.1 -0.01308
87.15 -0.0131
87.2 -0.01146
87.25 -0.00936
87.3 -0.00568
87.35 -0.00016
87.4 -0.0011
87.45 -0.00175
87.5 -0.00076
87.55 0.00127
87.6 0.00182
87.65 0.0054
87.7 0.01183
87.75 0.01634
87.8 0.01805
87.85 0.01471
87.9 0.01044
87.95 0.00502
88 -0.00192
88.05 -0.00525
88.1 -0.00801
88.15 -0.00804
88.2 -0.00436
88.25 0.00063
88.3 0.00625
88.35 0.00716
88.4 0.0039
88.45 0.00534
88.5 0.0098
88.55 0.01491
88.6 0.02086
88.65 0.02346
88.7 0.01977
88.75 0.01271
88.8 0.00712
88.85 0.00515
88.9 0.00389
88.95 0.00213
89 0.00434
89.05 0.00351
89.1 0.00109
89.15 -0.00196
89.2 -0.00596
89.25 -0.00649
89.3 -0.01031
89.35 -0.01584
89.4 -0.01922
89.45 -0.02172
89.5 -0.0185
89.55 -0.01087
89.6 -0.0029
89.65 0.00047
89.7 0.00335
89.75 0.00493
89.8 0.0025
89.85 0.00211
89.9 0.00342
89.95 0.00635
90 0.00886
90.05 0.00811
90.1 0.01115
90.15 0.01316
90.2 0.01735
90.25 0.02261
90.3 0.02398
90.35 0.02058
90.4 0.01562
90.45 0.01344
90.5 0.00964
90.55 0.008
90.6 0.0105
90.65 0.00853
90.7 0.00629
90.75 0.00419
90.8 0.00497
90.85 0.00502
90.9 0.00862
90.95 0.01023
91 0.00539
91.05 0.00339
91.1 0.00447
91.15 0.00643
91.2 0.004
91.25 0.00379
91.3 0.004
91.35 0.0065
91.4 0.0111
91.45 0.01034
91.5 0.01249
91.55 0.01189
91.6 0.01294
91.65 0.00919
91.7 0.00298
91.75 0.00256
91.8 -0.00175
91.85 -0.00826
91.9 -0.01438
91.95 -0.02051
92 -0.02534
92.05 -0.02984
92.1 -0.02994
92.15 -0.03161
92.2 -0.03364
92.25 -0.03672
92.3 -0.03252
92.35 -0.02699
92.4 -0.02103
92.45 -0.01965
92.5 -0.01917
92.55 -0.01829
92.6 -0.01994
92.65 -0.02139
92.7 -0.02291
92.75 -0.01874
92.8 -0.01714
92.85 -0.01148
92.9 -0.00838
92.95 -0.00783
93 -0.00318
93.05 -0.00141
93.1 -0.00277
93.15 -0.00167
93.2 -0.00357
93.25 -0.00551
93.3 -0.00816
93.35 -0.00984
93.4 -0.00857
93.45 -0.00714
93.5 -0.00938
93.55 -0.0103
93.6 -0.00723
93.65 -0.00112
93.7 0.00435
93.75 0.0037
93.8 -0.00107
93.85 -0.00416
93.9 -0.0063
93.95 -0.00858
94 -0.00932
94.05 -0.01202
94.1 -0.01683
94.15 -0.01839
94.2 -0.01685
94.25 -0.0139
94.3 -0.00902
94.35 -0.00118
94.4 0.00042
94.45 0.00098
94.5 0.00483
94.55 0.00694
94.6 0.00787
94.65 0.00393
94.7 0.00402
94.75 0.00418
94.8 0.00759
94.85 0.01245
94.9 0.0164
94.95 0.01334
95 0.01198
95.05 0.01221
95.1 0.00818
95.15 0.00285
95.2 0.00057
95.25 0.0021
95.3 0.00542
95.35 0.01147
95.4 0.01023
95.45 0.01242
95.5 0.0096
95.55 0.00889
95.6 0.00833
95.65 0.00613
95.7 0.00124
95.75 0.00184
95.8 0.00386
95.85 0.0091
95.9 0.00945
95.95 0.0052
96 0.0045
96.05 0.00247
96.1 0.00123
96.15 0.00268
96.2 0.0019
96.25 -0.00134
96.3 -0.00319
96.35 -0.00005
96.4 0.00288
96.45 0.00653
96.5 0.00678
96.55 0.00892
96.6 0.00847
96.65 0.00289
96.7 0.00094
96.75 -0.00245
96.8 0.00004
96.85 0.00598
96.9 0.00805
96.95 0.00588
97 0.00318
97.05 -0.00172
97.1 -0.00222
97.15 -0.00666
97.2 -0.00839
97.25 -0.00591
97.3 -0.00129
97.35 -0.00156
97.4 -0.00066
97.45 0.00246
97.5 0.00003
97.55 0.00213
97.6 0.00628
97.65 0.00626
97.7 0.00506
97.75 0.00784
97.8 0.00421
97.85 0.00424
97.9 0.00379
97.95 -0.00121
98 -0.00489
98.05 -0.00373
98.1 -0.00468
98.15 -0.00708
98.2 -0.01117
98.25 -0.01382
98.3 -0.01059
98.35 -0.00436
98.4 -0.00209
98.45 0.00009
98.5 -0.0003
98.55 -0.00436
98.6 -0.00406
98.65 -0.00021
98.7 0.00627
98.75 0.00883
98.8 0.00673
98.85 0.00135
98.9 -0.00414
98.95 -0.00707
99 -0.0116
99.05 -0.01003
99.1 -0.00942
99.15 -0.0073
99.2 -0.00926
99.25 -0.01122
99.3 -0.00761
99.35 -0.00366
99.4 -0.00492
99.45 -0.0041
99.5 -0.0002
99.55 0.0048
99.6 0.00615
99.65 0.00442
99.7 0.00363
99.75 0.00613
99.8 0.01012
99.85 0.00889
99.9 0.01113
99.95 0.01022
