0 0
0.05 0.0018
0.1 0.00366
0.15 0.00476
0.2 0.00593
0.25 0.00777
0.3 0.00908
0.35 0.01525
0.4 0.01874
0.45 0.02625
0.5 0.0343
0.55 0.03673
0.6 0.04069
0.65 0.03976
0.7 0.04163
0.75 0.04263
0.8 0.04497
0.85 0.04879
0.9 0.04868
0.95 0.04607
1 0.0404
1.05 0.03668
1.1 0.03292
1.15 0.02726
1.2 0.02734
1.25 0.03286
1.3 0.03899
1.35 0.04123
1.4 0.04553
1.45 0.04396
1.5 0.04326
1.55 0.04525
1.6 0.04514
1.65 0.04166
1.7 0.04094
1.75 0.04088
1.8 0.04517
1.85 0.05181
1.9 0.05836
1.95 0.0592
2 0.06215
2.05 0.06565
2.1 0.06336
2.15 0.05518
2.2 0.05027
2.25 0.04867
2.3 0.04994
2.35 0.04447
2.4 0.04017
2.45 0.04007
2.5 0.03526
2.55 0.02978
2.6 0.0235
2.65 0.02436
2.7 0.02271
2.75 0.01886
2.8 0.0192
2.85 0.01776
2.9 0.0141
2.95 0.0112
3 0.00607
3.05 0.00724
3.1 0.00819
3.15 0.00731
3.2 0.00869
3.25 0.01044
3.3 0.01389
3.35 0.02027
3.4 0.02767
3.45 0.03283
3.5 0.03576
3.55 0.0355
3.6 0.0331
3.65 0.03011
3.7 0.02926
3.75 0.02584
3.8 0.01987
3.85 0.01263
3.9 0.00884
3.95 0.00475
4 -0.00032
4.05 -0.00218
4.1 -0.00292
4.15 -0.00462
4.2 -0.00185
4.25 0.00386
4.3 0.00422
4.35 0.00139
4.4 -0.00622
4.45 -0.01114
4.5 -0.01924
4.55 -0.02449
4.6 -0.03506
4.65 -0.05205
4.7 -0.07022
4.75 -0.09066
4.8 -0.10903
4.85 -0.13374
4.9 -0.16168
4.95 -0.19303
5 -0.23475
5.05 -0.2819
5.1 -0.33745
5.15 -0.39963
5.2 -0.46577
5.25 -0.53715
5.3 -0.61009
5.35 -0.68219
5.4 -0.75584
5.45 -0.8393
5.5 -0.92921
5.55 -1.02158
5.6 -1.11484
5.65 -1.20535
5.7 -1.30257
5.75 -1.40059
5.8 -1.49642
5.85 -1.58517
5.9 -1.67406
5.95 -1.75792
6 -1.8388
6.05 -1.91213
6.1 -1.98624
6.15 -2.05684
6.2 -2.12557
6.25 -2.1885
6.3 -2.24192
6.35 -2.28965
6.4 -2.33469
6.45 -2.37066
6.5 -2.39982
6.55 -2.42541
6.6 -2.43899
6.65 -2.43765
6.7 -2.42215
6.75 -2.39824
6.8 -2.36377
6.85 -2.3113
6.9 -2.24113
6.95 -2.16246
7 -2.06814
7.05 -1.95787
7.1 -1.82821
7.15 -1.68258
7.2 -1.52379
7.25 -1.35371
7.3 -1.17691
7.35 -0.99318
7.4 -0.80176
7.45 -0.60083
7.5 -0.40346
7.55 -0.20755
7.6 -0.01143
7.65 0.18178
7.7 0.36949
7.75 0.55543
7.8 0.734
7.85 0.90454
7.9 1.07358
7.95 1.23158
8 1.38221
8.05 1.52358
8.1 1.64667
8.15 1.75865
8.2 1.85787
8.25 1.94275
8.3 2.01932
8.35 2.08107
8.4 2.13435
8.45 2.17631
8.5 2.21415
8.55 2.24273
8.6 2.26239
8.65 2.27136
8.7 2.27283
8.75 2.26921
8.8 2.26063
8.85 2.25032
8.9 2.23685
8.95 2.21746
9 2.19701
9.05 2.1726
9.1 2.14848
9.15 2.1248
9.2 2.09928
9.25 2.07359
9.3 2.048
9.35 2.02025
9.4 1.99359
9.45 1.96936
9.5 1.94153
9.55 1.91006
9.6 1.88223
9.65 1.85076
9.7 1.81472
9.75 1.78153
9.8 1.75088
9.85 1.71607
9.9 1.68364
9.95 1.64681
10 1.61195
10.05 1.57298
10.1 1.52834
10.15 1.48742
10.2 1.44864
10.25 1.40628
10.3 1.36276
10.35 1.3175
10.4 1.27559
10.45 1.22818
10.5 1.1805
10.55 1.13705
10.6 1.09286
10.65 1.05121
10.7 1.01253
10.75 0.96841
10.8 0.92328
10.85 0.87817
10.9 0.83482
10.95 0.78774
11 0.74535
11.05 0.70454
11.1 0.6638
11.15 0.62637
11.2 0.58976
11.25 0.55374
11.3 0.51126
11.35 0.47249
11.4 0.43468
11.45 0.39181
11.5 0.35443
11.55 0.31426
11.6 0.27679
11.65 0.24137
11.7 0.20725
11.75 0.1745
11.8 0.1399
11.85 0.10455
11.9 0.07471
11.95 0.04553
12 0.02134
12.05 -0.00363
12.1 -0.02896
12.15 -0.05162
12.2 -0.07577
12.25 -0.0963
12.3 -0.11964
12.35 -0.14091
12.4 -0.15796
12.45 -0.17216
12.5 -0.19106
12.55 -0.20809
12.6 -0.22762
12.65 -0.24815
12.7 -0.26537
12.75 -0.28284
12.8 -0.2946
12.85 -0.30226
12.9 -0.30608
12.95 -0.31414
13 -0.32188
13.05 -0.32892
13.1 -0.33243
13.15 -0.33417
13.2 -0.33723
13.25 -0.33858
13.3 -0.3441
13.35 -0.3464
13.4 -0.34512
13.45 -0.34873
13.5 -0.3536
13.55 -0.36276
13.6 -0.37147
13.65 -0.37515
13.7 -0.37278
13.75 -0.37123
13.8 -0.36628
13.85 -0.36569
13.9 -0.36518
13.95 -0.36028
14 -0.3611
14.05 -0.3628
14.1 -0.36373
14.15 -0.36385
14.2 -0.36548
14.25 -0.36312
14.3 -0.35657
14.35 -0.35446
14.4 -0.34799
14.45 -0.33825
14.5 -0.33261
14.55 -0.32425
14.6 -0.31691
14.65 -0.30832
14.7 -0.30322
14.75 -0.30297
14.8 -0.30307
14.85 -0.30648
14.9 -0.30929
14.95 -0.31303
15 -0.31278
15.05 -0.31278
15.1 -0.30981
15.15 -0.302
15.2 -0.2946
15.25 -0.28827
15.3 -0.28362
15.35 -0.28223
15.4 -0.27468
15.45 -0.26976
15.5 -0.26309
15.55 -0.25225
15.6 -0.23964
15.65 -0.23426
15.7 -0.23256
15.75 -0.23466
15.8 -0.23891
15.85 -0.24163
15.9 -0.23896
15.95 -0.23845
16 -0.23776
16.05 -0.23609
16.1 -0.23555
16.15 -0.22729
16.2 -0.2196
16.25 -0.21195
16.3 -0.20245
16.35 -0.19839
16.4 -0.1987
16.45 -0.19407
16.5 -0.1888
16.55 -0.17971
16.6 -0.17051
16.65 -0.16091
16.7 -0.15581
16.75 -0.14989
16.8 -0.14674
16.85 -0.14462
16.9 -0.14222
16.95 -0.1423
17 -0.14683
17.05 -0.14617
17.1 -0.14944
17.15 -0.1501
17.2 -0.1462
17.25 -0.14517
17.3 -0.14221
17.35 -0.14247
17.4 -0.1407
17.45 -0.14003
17.5 -0.13524
17.55 -0.12914
17.6 -0.12438
17.65 -0.12341
17.7 -0.11808
17.75 -0.1177
17.8 -0.12119
17.85 -0.11839
17.9 -0.1118
17.95 -0.11226
18 -0.11281
18.05 -0.11264
18.1 -0.11659
18.15 -0.11453
18.2 -0.11117
18.25 -0.11222
18.3 -0.10999
18.35 -0.10489
18.4 -0.10343
18.45 -0.10166
18.5 -0.09588
18.55 -0.08869
18.6 -0.08455
18.65 -0.08274
18.7 -0.07916
18.75 -0.07369
18.8 -0.07527
18.85 -0.08131
18.9 -0.0808
18.95 -0.07727
19 -0.07823
19.05 -0.07752
19.1 -0.07546
19.15 -0.076
19.2 -0.07644
19.25 -0.0738
19.3 -0.06769
19.35 -0.06763
19.4 -0.07235
19.45 -0.07822
19.5 -0.08422
19.55 -0.08473
19.6 -0.0844
19.65 -0.07807
19.7 -0.07399
19.75 -0.07334
19.8 -0.07229
19.85 -0.06964
19.9 -0.06643
19.95 -0.06662
20 -0.06765
20.05 -0.06801
20.1 -0.06941
20.15 -0.06501
20.2 -0.06098
20.25 -0.05651
20.3 -0.05578
20.35 -0.05513
20.4 -0.05684
20.45 -0.05383
20.5 -0.05519
20.55 -0.05837
20.6 -0.05507
20.65 -0.05436
20.7 -0.05029
20.75 -0.0516
20.8 -0.04816
20.85 -0.04739
20.9 -0.0493
20.95 -0.04616
21 -0.04332
21.05 -0.04571
21.1 -0.05009
21.15 -0.05336
21.2 -0.05551
21.25 -0.05248
21.3 -0.05207
21.35 -0.05154
21.4 -0.053
21.45 -0.05122
21.5 -0.05096
21.55 -0.05168
21.6 -0.05506
21.65 -0.05937
21.7 -0.05645
21.75 -0.05122
21.8 -0.04736
21.85 -0.04307
21.9 -0.03515
21.95 -0.02683
22 -0.02218
22.05 -0.02051
22.1 -0.0229
22.15 -0.02587
22.2 -0.02792
22.25 -0.0283
22.3 -0.02525
22.35 -0.02532
22.4 -0.02214
22.45 -0.02119
22.5 -0.01931
22.55 -0.01757
22.6 -0.0157
22.65 -0.01799
22.7 -0.02164
22.75 -0.02459
22.8 -0.03103
22.85 -0.03887
22.9 -0.03874
22.95 -0.03652
23 -0.03722
23.05 -0.03901
23.1 -0.04152
23.15 -0.03977
23.2 -0.03354
23.25 -0.02413
23.3 -0.02164
23.35 -0.01969
23.4 -0.0219
23.45 -0.0266
23.5 -0.03298
23.55 -0.03139
23.6 -0.0318
23.65 -0.02792
23.7 -0.02593
23.75 -0.02197
23.8 -0.01972
23.85 -0.01915
23.9 -0.02106
23.95 -0.02489
24 -0.03002
24.05 -0.03607
24.1 -0.03911
24.15 -0.03943
24.2 -0.04162
24.25 -0.04408
24.3 -0.04652
24.35 -0.04756
24.4 -0.04958
24.45 -0.0519
24.5 -0.05174
24.55 -0.0499
24.6 -0.04233
24.65 -0.03692
24.7 -0.02911
24.75 -0.01889
24.8 -0.00868
24.85 -0.00388
24.9 -0.00149
24.95 -0.00111
25 0.00082
25.05 0.00472
25.1 0.00552
25.15 0.00743
25.2 0.01145
25.25 0.01038
25.3 0.01085
25.35 0.01391
25.4 0.01482
25.45 0.01248
25.5 0.0105
25.55 0.00571
25.6 0.00501
25.65 0.00753
25.7 0.01062
25.75 0.01425
25.8 0.01594
25.85 0.0129
25.9 0.00906
25.95 0.00337
26 -0.00489
26.05 -0.00742
26.1 -0.011
26.15 -0.01276
26.2 -0.01621
26.25 -0.01742
26.3 -0.01414
26.35 -0.01238
26.4 -0.01193
26.45 -0.00727
26.5 -0.00424
26.55 -0.00479
26.6 -0.00196
26.65 0.00065
26.7 0.00234
26.75 0.00562
26.8 0.00544
26.85 0.00842
26.9 0.00516
26.95 -0.0015
27 -0.00861
27.05 -0.01727
27.1 -0.02365
27.15 -0.02305
27.2 -0.02066
27.25 -0.02197
27.3 -0.02211
27.35 -0.01614
27.4 -0.00698
27.45 0.00175
27.5 0.00875
27.55 0.01216
27.6 0.01013
27.65 0.00683
27.7 0.00746
27.75 0.01141
27.8 0.01698
27.85 0.01475
27.9 0.01207
27.95 0.01088
28 0.00903
28.05 0.00709
28.1 0.00178
28.15 -0.00586
28.2 -0.01379
28.25 -0.01393
28.3 -0.01587
28.35 -0.01963
28.4 -0.01915
28.45 -0.01467
28.5 -0.00809
28.55 -0.00695
28.6 -0.00588
28.65 -0.00752
28.7 -0.00613
28.75 -0.00312
28.8 -0.00669
28.85 -0.00882
28.9 -0.01051
28.95 -0.0145
29 -0.02267
29.05 -0.03339
29.1 -0.04242
29.15 -0.05417
29.2 -0.06709
29.25 -0.07441
29.3 -0.0805
29.35 -0.08228
29.4 -0.08319
29.45 -0.07992
29.5 -0.07331
29.55 -0.06508
29.6 -0.06355
29.65 -0.06478
29.7 -0.06793
29.75 -0.06881
29.8 -0.06596
29.85 -0.06479
29.9 -0.067
29.95 -0.07193
30 -0.07179
30.05 -0.06921
30.1 -0.06382
30.15 -0.05656
30.2 -0.04694
30.25 -0.04021
30.3 -0.03506
30.35 -0.03467
30.4 -0.0319
30.45 -0.02682
30.5 -0.02446
30.55 -0.02385
30.6 -0.02671
30.65 -0.02889
30.7 -0.03349
30.75 -0.03324
30.8 -0.03049
30.85 -0.02586
30.9 -0.0236
30.95 -0.02307
31 -0.02761
31.05 -0.03227
31.1 -0.04049
31.15 -0.04804
31.2 -0.05257
31.25 -0.05302
31.3 -0.05382
31.35 -0.05309
31.4 -0.05489
31.45 -0.05769
31.5 -0.05614
31.55 -0.05184
31.6 -0.04565
31.65 -0.04314
31.7 -0.03757
31.75 -0.034
31.8 -0.02881
31.85 -0.02446
31.9 -0.01875
31.95 -0.01645
32 -0.01197
32.05 -0.00701
32.1 -0.00298
32.15 -0.00011
32.2 0.00506
32.25 0.00861
32.3 0.0114
32.35 0.02126
32.4 0.0362
32.45 0.04691
32.5 0.05863
32.55 0.06877
32.6 0.07369
32.65 0.0759
32.7 0.07806
32.75 0.07795
32.8 0.08415
32.85 0.09495
32.9 0.10259
32.95 0.10796
33 0.11233
33.05 0.11163
33.1 0.10912
33.15 0.11017
33.2 0.11345
33.25 0.11783
33.3 0.12176
33.35 0.12187
33.4 0.12384
33.45 0.12535
33.5 0.128
33.55 0.12301
33.6 0.12154
33.65 0.11894
33.7 0.11631
33.75 0.11269
33.8 0.10813
33.85 0.09979
33.9 0.08779
33.95 0.0811
34 0.07226
34.05 0.06606
34.1 0.06215
34.15 0.06323
34.2 0.06097
34.25 0.05954
34.3 0.05479
34.35 0.05373
34.4 0.0547
34.45 0.04961
34.5 0.04365
34.55 0.04229
34.6 0.04108
34.65 0.03938
34.7 0.03665
34.75 0.03427
34.8 0.02685
34.85 0.02446
34.9 0.02477
34.95 0.02007
35 0.02044
35.05 0.02176
35.1 0.02499
35.15 0.0264
35.2 0.02768
35.25 0.02577
35.3 0.02574
35.35 0.01985
35.4 0.01216
35.45 0.0087
35.5 0.00635
35.55 0.00177
35.6 -0.00583
35.65 -0.01202
35.7 -0.0155
35.75 -0.02079
35.8 -0.02292
35.85 -0.02604
35.9 -0.02813
35.95 -0.0318
36 -0.03033
36.05 -0.02426
36.1 -0.01715
36.15 -0.00831
36.2 0.00174
36.25 0.00503
36.3 0.00314
36.35 -0.00119
36.4 -0.00715
36.45 -0.01427
36.5 -0.01398
36.55 -0.01733
36.6 -0.01744
36.65 -0.01219
36.7 -0.0073
36.75 -0.00529
36.8 -0.00145
36.85 -0.00221
36.9 0.0003
36.95 0.00256
37 0.00419
37.05 0.00523
37.1 0.00439
37.15 0.00238
37.2 -0.00422
37.25 -0.00462
37.3 -0.00632
37.35 -0.0086
37.4 -0.01109
37.45 -0.01291
37.5 -0.01262
37.55 -0.01543
37.6 -0.01723
37.65 -0.01679
37.7 -0.01293
37.75 -0.01363
37.8 -0.0133
37.85 -0.01207
37.9 -0.01576
37.95 -0.01967
38 -0.01849
38.05 -0.022
38.1 -0.0204
38.15 -0.01749
38.2 -0.01867
38.25 -0.0149
38.3 -0.01299
38.35 -0.01421
38.4 -0.01868
38.45 -0.02268
38.5 -0.02204
38.55 -0.02145
38.6 -0.01677
38.65 -0.01533
38.7 -0.01258
38.75 -0.01373
38.8 -0.01065
38.85 -0.0119
38.9 -0.0137
38.95 -0.01531
39 -0.02071
39.05 -0.0253
39.1 -0.02973
39.15 -0.0312
39.2 -0.0289
39.25 -0.02367
39.3 -0.01712
39.35 -0.01235
39.4 -0.01299
39.45 -0.00924
39.5 -0.0026
39.55 -0.00186
39.6 0.0018
39.65 0.00065
39.7 -0.00459
39.75 -0.00835
39.8 -0.01213
39.85 -0.01494
39.9 -0.02079
39.95 -0.01994
40 -0.02049
40.05 -0.02108
40.1 -0.02085
40.15 -0.01623
40.2 -0.0124
40.25 -0.01377
40.3 -0.01308
40.35 -0.01564
40.4 -0.01798
40.45 -0.02213
40.5 -0.0193
40.55 -0.01837
40.6 -0.01433
40.65 -0.01435
40.7 -0.01393
40.75 -0.01504
40.8 -0.01737
40.85 -0.02051
40.9 -0.02121
40.95 -0.02232
41 -0.01974
41.05 -0.01959
41.1 -0.01996
41.15 -0.01834
41.2 -0.01425
41.25 -0.01451
41.3 -0.01821
41.35 -0.01911
41.4 -0.01983
41.45 -0.01668
41.5 -0.01544
41.55 -0.0153
41.6 -0.00937
41.65 -0.0071
41.7 -0.00954
41.75 -0.0107
41.8 -0.01194
41.85 -0.00848
41.9 -0.00553
41.95 -0.00501
42 -0.00013
42.05 0.00055
42.1 0.00041
42.15 0.00128
42.2 -0.00124
42.25 -0.00469
42.3 -0.00181
42.35 -0.00334
42.4 -0.00117
42.45 0.00112
42.5 0.00109
42.55 -0.00266
42.6 -0.00219
42.65 0.00155
42.7 0.0056
42.75 0.00377
42.8 0.006
42.85 0.00877
42.9 0.00696
42.95 0.00954
43 0.00649
43.05 0.00619
43.1 0.00424
43.15 0.00153
43.2 -0.00236
43.25 -0.00593
43.3 -0.00539
43.35 -0.00158
43.4 0.00144
43.45 0.00211
43.5 0.0032
43.55 0.00237
43.6 0.00327
43.65 0.00088
43.7 0.00012
43.75 -0.00354
43.8 -0.00914
43.85 -0.01243
43.9 -0.0178
43.95 -0.0158
44 -0.01273
44.05 -0.00871
44.1 -0.00809
44.15 -0.00817
44.2 -0.00611
44.25 -0.00713
44.3 -0.00376
44.35 -0.00103
44.4 -0.00327
44.45 -0.00383
44.5 -0.00078
44.55 0.00515
44.6 0.01027
44.65 0.01304
44.7 0.01698
44.75 0.01949
44.8 0.01775
44.85 0.018
44.9 0.01615
44.95 0.01651
45 0.01072
45.05 0.00485
45.1 0.00219
45.15 -0.00261
45.2 -0.00995
45.25 -0.01761
45.3 -0.02492
45.35 -0.0231
45.4 -0.02096
45.45 -0.01368
45.5 -0.00921
45.55 -0.00735
45.6 -0.00473
45.65 -0.00535
45.7 -0.00287
45.75 -0.00558
45.8 -0.00741
45.85 -0.00844
45.9 -0.00511
45.95 0.00093
46 0.00144
46.05 0.00053
46.1 0.0032
46.15 0.00789
46.2 0.00977
46.25 0.00577
46.3 -0.00019
46.35 -0.00564
46.4 -0.01062
46.45 -0.01624
46.5 -0.02128
46.55 -0.01797
46.6 -0.01034
46.65 -0.00882
46.7 -0.00353
46.75 0.00269
46.8 0.00341
46.85 0.00629
46.9 0.00829
46.95 0.00859
47 0.01041
47.05 0.00632
47.1 0.00177
47.15 -0.00195
47.2 -0.00429
47.25 -0.00256
47.3 0.00009
47.35 0.00324
47.4 0.00343
47.45 0.00634
47.5 0.00684
47.55 0.00985
47.6 0.01022
47.65 0.00635
47.7 0.00459
47.75 0.00358
47.8 0.00288
47.85 0.00649
47.9 0.0082
47.95 0.00955
48 0.0103
48.05 0.00722
48.1 0.0011
48.15 -0.00427
48.2 -0.00653
48.25 -0.00301
48.3 0.0017
48.35 0.00204
48.4 0.0018
48.45 0.00299
48.5 0.00625
48.55 0.00373
48.6 0.00543
48.65 0.00572
48.7 0.00368
48.75 0.00398
48.8 -0.00031
48.85 -0.00113
48.9 -0.0059
48.95 -0.00481
49 -0.00791
49.05 -0.00459
49.1 -0.00028
49.15 0.00405
49.2 0.00699
49.25 0.00788
49.3 0.01001
49.35 0.00858
49.4 0.00819
49.45 0.00341
49.5 0.00041
49.55 -0.00359
49.6 -0.0082
49.65 -0.01203
49.7 -0.01204
49.75 -0.01317
49.8 -0.01211
49.85 -0.01425
49.9 -0.01424
49.95 -0.01405
50 -0.01472
50.05 -0.01239
50.1 -0.01282
50.15 -0.01661
50.2 -0.02154
50.25 -0.02326
50.3 -0.02448
50.35 -0.02569
50.4 -0.02366
50.45 -0.02465
50.5 -0.02337
50.55 -0.01621
50.6 -0.00908
50.65 -0.00114
50.7 0.00131
50.75 -0.00103
50.8 -0.0061
50.85 -0.01249
50.9 -0.01918
50.95 -0.02398
51 -0.02784
51.05 -0.0249
51.1 -0.01647
51.15 -0.00911
51.2 -0.00116
51.25 0.00546
51.3 0.01281
51.35 0.01912
51.4 0.01747
51.45 0.01073
51.5 0.0077
51.55 0.00251
51.6 0.00326
51.65 0.00219
51.7 0.00078
51.75 -0.00236
51.8 -0.00279
51.85 -0.00156
51.9 0.00023
51.95 0.00599
52 0.01184
52.05 0.01528
52.1 0.01775
52.15 0.01726
52.2 0.01238
52.25 0.012
52.3 0.01374
52.35 0.01329
52.4 0.01548
52.45 0.01766
52.5 0.01383
52.55 0.01477
52.6 0.01266
52.65 0.01091
52.7 0.00997
52.75 0.01181
52.8 0.01327
52.85 0.0138
52.9 0.01735
52.95 0.02065
53 0.01834
53.05 0.01501
53.1 0.01378
53.15 0.01273
53.2 0.01399
53.25 0.01186
53.3 0.00833
53.35 0.00771
53.4 0.0094
53.45 0.00851
53.5 0.00358
53.55 0.00075
53.6 0.00075
53.65 -0.00399
53.7 -0.0031
53.75 -0.00339
53.8 -0.00557
53.85 -0.00848
53.9 -0.01112
53.95 -0.01294
54 -0.01674
54.05 -0.02135
54.1 -0.02285
54.15 -0.02158
54.2 -0.01592
54.25 -0.01375
54.3 -0.01049
54.35 -0.00755
54.4 -0.00879
54.45 -0.01264
54.5 -0.01402
54.55 -0.01714
54.6 -0.01807
54.65 -0.01956
54.7 -0.02114
54.75 -0.01709
54.8 -0.01548
54.85 -0.01649
54.9 -0.01541
54.95 -0.01613
55 -0.01823
55.05 -0.01556
55.1 -0.00918
55.15 -0.00566
55.2 -0.00267
55.25 0.00177
55.3 0.00598
55.35 0.01184
55.4 0.01504
55.45 0.017
55.5 0.01495
55.55 0.01294
55.6 0.01042
55.65 0.00808
55.7 0.01
55.75 0.0109
55.8 0.01111
55.85 0.01486
55.9 0.02012
55.95 0.01736
56 0.01089
56.05 0.00584
56.1 -0.00067
56.15 -0.00629
56.2 -0.0129
56.25 -0.02012
56.3 -0.02606
56.35 -0.02673
56.4 -0.02246
56.45 -0.01363
56.5 -0.01079
56.55 -0.00846
56.6 -0.00423
56.65 0.00181
56.7 0.00115
56.75 -0.00187
56.8 -0.00594
56.85 -0.01147
56.9 -0.01783
56.95 -0.0234
57 -0.02011
57.05 -0.01562
57.1 -0.01182
57.15 -0.00963
57.2 -0.00906
57.25 -0.00411
57.3 -0.00294
57.35 -0.00176
57.4 0.00031
57.45 0.00652
57.5 0.01498
57.55 0.02401
57.6 0.02653
57.65 0.03005
57.7 0.02997
57.75 0.03032
57.8 0.02377
57.85 0.02232
57.9 0.01823
57.95 0.01618
58 0.01316
58.05 0.01391
58.1 0.01721
58.15 0.02063
58.2 0.02279
58.25 0.01876
58.3 0.0137
58.35 0.00828
58.4 0.00337
58.45 0.00386
58.5 0.00147
58.55 0.0031
58.6 0.00239
58.65 -0.00225
58.7 -0.00652
58.75 -0.00894
58.8 -0.01062
58.85 -0.01483
58.9 -0.01561
58.95 -0.01501
59 -0.01262
59.05 -0.01436
59.1 -0.01027
59.15 -0.01053
59.2 -0.00716
59.25 0.00008
59.3 0.0015
59.35 0.00048
59.4 -0.00436
59.45 -0.00323
59.5 -0.00349
59.55 -0.00729
59.6 -0.0127
59.65 -0.01474
59.7 -0.01461
59.75 -0.01633
59.8 -0.01589
59.85 -0.01872
59.9 -0.02157
59.95 -0.01737
60 -0.01259
60.05 -0.00941
60.1 -0.00744
60.15 -0.00132
60.2 -0.00082
60.25 -0.00025
60.3 0.00172
60.35 0.00131
60.4 0.00516
60.45 0.00987
60.5 0.00939
60.55 0.00513
60.6 -0.00052
60.65 -0.00336
60.7 -0.00643
60.75 -0.00777
60.8 -0.01008
60.85 -0.00918
60.9 -0.0108
60.95 -0.00801
61 -0.00153
61.05 0.0012
61.1 0.00333
61.15 0.00636
61.2 0.00954
61.25 0.01022
61.3 0.00544
61.35 0.00337
61.4 0.00486
61.45 0.00121
61.5 -0.00159
61.55 -0.00167
61.6 0.00164
61.65 0.0057
61.7 0.0056
61.75 0.0095
61.8 0.01573
61.85 0.0209
61.9 0.02404
61.95 0.02478
62 0.02143
62.05 0.01942
62.1 0.01278
62.15 0.00919
62.2 0.0103
62.25 0.01254
62.3 0.0106
62.35 0.00576
62.4 0.00373
62.45 0.00037
62.5 0.00094
62.55 -0.00205
62.6 -0.00612
62.65 -0.00948
62.7 -0.01376
62.75 -0.01059
62.8 -0.00306
62.85 -0.00116
62.9 0.00296
62.95 0.00206
63 0.00514
63.05 0.01095
63.1 0.01433
63.15 0.01368
63.2 0.00987
63.25 0.00996
63.3 0.00449
63.35 0.00308
63.4 0.00325
63.45 0.00069
63.5 -0.00203
63.55 -0.00481
63.6 -0.00317
63.65 -0.00334
63.7 -0.00616
63.75 -0.00896
63.8 -0.01367
63.85 -0.01818
63.9 -0.01889
63.95 -0.02103
64 -0.01825
64.05 -0.01686
64.1 -0.01807
64.15 -0.01601
64.2 -0.01717
64.25 -0.01957
64.3 -0.02114
64.35 -0.01886
64.4 -0.01181
64.45 -0.00533
64.5 -0.00377
64.55 -0.00057
64.6 0.00149
64.65 0.00595
64.7 0.0073
64.75 0.00484
64.8 -0.00122
64.85 -0.00381
64.9 -0.00726
64.95 -0.01048
65 -0.00862
65.05 -0.00477
65.1 0.00022
65.15 0.00368
65.2 0.00256
65.25 0.00402
65.3 0.00587
65.35 0.00269
65.4 -0.00229
65.45 -0.00465
65.5 -0.00794
65.55 -0.00456
65.6 0.00269
65.65 0.00566
65.7 0.00777
65.75 0.00506
65.8 0.00086
65.85 -0.00396
65.9 -0.00928
65.95 -0.01495
66 -0.01804
66.05 -0.02174
66.1 -0.02461
66.15 -0.02556
66.2 -0.02468
66.25 -0.02364
66.3 -0.02522
66.35 -0.02403
66.4 -0.01621
66.45 -0.00792
66.5 -0.0043
66.55 0.00012
66.6 0.00064
66.65 -0.00149
66.7 -0.00076
66.75 0.00349
66.8 0.0037
66.85 0.00315
66.9 0.00099
66.95 -0.00162
67 -0.00487
67.05 -0.00769
67.1 -0.01114
67.15 -0.01168
67.2 -0.00809
67.25 -0.00426
67.3 0.00147
67.35 0.00973
67.4 0.01341
67.45 0.01506
67.5 0.01654
67.55 0.01342
67.6 0.00707
67.65 0.00358
67.7 -0.0017
67.75 0.00028
67.8 0.00605
67.85 0.00701
67.9 0.00646
67.95 0.00504
68 0.00354
68.05 0.00102
68.1 -0.00242
68.15 -0.00541
68.2 -0.00842
68.25 -0.00642
68.3 -0.00652
68.35 -0.00919
68.4 -0.01127
68.45 -0.0077
68.5 -0.00196
68.55 0.0006
68.6 0.00626
68.65 0.00895
68.7 0.0081
68.75 0.00489
68.8 0.00624
68.85 0.0073
68.9 0.01068
68.95 0.01559
69 0.02087
69.05 0.02749
69.1 0.02563
69.15 0.02524
69.2 0.01954
69.25 0.01921
69.3 0.01904
69.35 0.0133
69.4 0.00562
69.45 0.00093
69.5 0.00101
69.55 0.00039
69.6 -0.00206
69.65 -0.00682
69.7 -0.00648
69.75 -0.00936
69.8 -0.0074
69.85 -0.0095
69.9 -0.01144
69.95 -0.00748
70 -0.0034
70.05 -0.00429
70.1 -0.00648
70.15 -0.00847
70.2 -0.01293
70.25 -0.01573
70.3 -0.01697
70.35 -0.01973
70.4 -0.02327
70.45 -0.02044
70.5 -0.01598
70.55 -0.01505
70.6 -0.01535
70.65 -0.01396
70.7 -0.01379
70.75 -0.01537
70.8 -0.0106
70.85 -0.00199
70.9 0.00496
70.95 0.0082
71 0.01094
71.05 0.01106
71.1 0.01328
71.15 0.01443
71.2 0.01183
71.25 0.01326
71.3 0.00892
71.35 0.00527
71.4 0.00562
71.45 0.01027
71.5 0.01482
71.55 0.02097
71.6 0.0228
71.65 0.02016
71.7 0.01303
71.75 0.00751
71.8 0.00372
71.85 -0.00209
71.9 -0.00863
71.95 -0.01078
72 -0.01295
72.05 -0.01482
72.1 -0.01644
72.15 -0.01955
72.2 -0.01594
72.25 -0.00928
72.3 0.00055
72.35 0.00555
72.4 0.01042
72.45 0.01657
72.5 0.02407
72.55 0.02853
72.6 0.02513
72.65 0.0193
72.7 0.01055
72.75 0.00022
72.8 -0.00628
72.85 -0.00517
72.9 -0.00412
72.95 0.00134
73 0.00795
73.05 0.00864
73.1 0.01045
73.15 0.01021
73.2 0.01049
73.25 0.00567
73.3 -0.00212
73.35 -0.00757
73.4 -0.01257
73.45 -0.01775
73.5 -0.01952
73.55 -0.0228
73.6 -0.02356
73.65 -0.02254
73.7 -0.01901
73.75 -0.01103
73.8 -0.00261
73.85 0.00465
73.9 0.00584
73.95 0.00617
74 0.00842
74.05 0.01297
74.1 0.01285
74.15 0.01578
74.2 0.0206
74.25 0.01811
74.3 0.01359
74.35 0.00949
74.4 0.00567
74.45 0.00568
74.5 0.00402
74.55 0.00292
74.6 0.00183
74.65 -0.00097
74.7 -0.00134
74.75 0.00284
74.8 0.00295
74.85 0.00465
74.9 0.00471
74.95 0.00575
75 0.00443
75.05 0.00252
75.1 0.00245
75.15 -0.00039
75.2 -0.00631
75.25 -0.01387
75.3 -0.01781
75.35 -0.01992
75.4 -0.02066
75.45 -0.01685
75.5 -0.01708
75.55 -0.01958
75.6 -0.02118
75.65 -0.01971
75.7 -0.01612
75.75 -0.0148
75.8 -0.01288
75.85 -0.01172
75.9 -0.01214
75.95 -0.0097
76 -0.00442
76.05 -0.00011
76.1 0.00177
76.15 0.00727
76.2 0.01485
76.25 0.01959
76.3 0.02459
76.35 0.02481
76.4 0.0199
76.45 0.0173
76.5 0.00986
76.55 0.00782
76.6 0.00949
76.65 0.00562
76.7 0.00215
76.75 0.00387
76.8 0.00076
76.85 0.00244
76.9 0.00613
76.95 0.00536
77 0.004
77.05 -0.00163
77.1 -0.00098
77.15 0.00131
77.2 0.00277
77.25 0.00132
77.3 0.00153
77.35 0.0044
77.4 0.00525
77.45 0.00891
77.5 0.0132
77.55 0.01255
77.6 0.01378
77.65 0.01028
77.7 0.00914
77.75 0.00997
77.8 0.00708
77.85 0.0001
77.9 -0.00024
77.95 -0.00388
78 -0.00507
78.05 -0.00378
78.1 -0.00364
78.15 -0.00262
78.2 -0.00334
78.25 0.00094
78.3 0.00552
78.35 0.00626
78.4 0.00687
78.45 0.00441
78.5 0.00632
78.55 0.00741
78.6 0.00455
78.65 -0.00141
78.7 -0.00301
78.75 -0.00186
78.8 0.00023
78.85 0.00203
78.9 0.00322
78.95 0.00069
79 -0.00452
79.05 -0.00479
79.1 -0.00775
79.15 -0.00938
79.2 -0.0058
79.25 -0.00071
79.3 0.00074
79.35 -0.00013
79.4 -0.00493
79.45 -0.01036
79.5 -0.01746
79.55 -0.01882
79.6 -0.01333
79.65 -0.01071
79.7 -0.00757
79.75 -0.00925
79.8 -0.01342
79.85 -0.01047
79.9 -0.01119
79.95 -0.01448
80 -0.01935
80.05 -0.01731
80.1 -0.01415
80.15 -0.00995
80.2 -0.00784
80.25 -0.00795
80.3 -0.00991
80.35 -0.00927
80.4 -0.00654
80.45 -0.00051
80.5 -0.00016
80.55 0.00378
80.6 0.00559
80.65 0.0042
80.7 0.00039
80.75 0.00134
80.8 0.00282
80.85 0.0075
80.9 0.00923
80.95 0.00678
81 0.00557
81.05 0.00894
81.1 0.01062
81.15 0.00843
81.2 0.00421
81.25 0.00311
81.3 0.00419
81.35 0.00359
81.4 -0.00058
81.45 -0.00041
81.5 -0.00434
81.55 -0.00186
81.6 0.00355
81.65 0.01034
81.7 0.01693
81.75 0.02053
81.8 0.01749
81.85 0.0121
81.9 0.00469
81.95 -0.00419
82 -0.00615
82.05 -0.0073
82.1 -0.00996
82.15 -0.00632
82.2 -0.00582
82.25 -0.0071
82.3 -0.00339
82.35 -0.00041
82.4 -0.00085
82.45 -0.0008
82.5 -0.00271
82.55 -0.0026
82.6 0.00253
82.65 0.00989
82.7 0.00934
82.75 0.01094
82.8 0.01498
82.85 0.01191
82.9 0.00745
82.95 -0.00056
83 -0.00899
83.05 -0.0118
83.1 -0.00903
83.15 -0.00513
83.2 0.00161
83.25 0.00527
83.3 0.01084
83.35 0.00898
83.4 0.00867
83.45 0.01125
83.5 0.0079
83.55 0.00962
83.6 0.01447
83.65 0.01674
83.7 0.0176
83.75 0.01491
83.8 0.00828
83.85 0.00607
83.9 0.00302
83.95 0.00266
84 0.00365
84.05 0.0071
84.1 0.00579
84.15 0.00371
84.2 0.00263
84.25 0.00179
84.3 0.00105
84.35 -0.00127
84.4 0.00117
84.45 0.00046
84.5 0.00061
84.55 -0.00212
84.6 -0.001
84.65 -0.00346
84.7 -0.00549
84.75 -0.0047
84.8 -0.00419
84.85 -0.0062
84.9 -0.00879
84.95 -0.01335
85 -0.01394
85.05 -0.01672
85.1 -0.01503
85.15 -0.00945
85.2 -0.00577
85.25 0.00061
85.3 0.0061
85.35 0.01082
85.4 0.01001
85.45 0.00478
85.5 0.00494
85.55 0.00198
85.6 0.00038
85.65 0.00112
85.7 0.00446
85.75 0.00303
85.8 0.00416
85.85 0.00873
85.9 0.0127
85.95 0.01259
86 0.01091
86.05 0.00728
86.1 0.00678
86.15 0.00241
86.2 -0.00289
86.25 -0.00227
86.3 0.00078
86.35 0.00672
86.4 0.01041
86.45 0.00989
86.5 0.00507
86.55 0.00155
86.6 0.00324
86.65 0.00236
86.7 0.00083
86.75 -0.0027
86.8 -0.00307
86.85 -0.00494
86.9 -0.00277
86.95 -0.00286
87 -0.00433
87.05 -0.00678
87.1 -0.00977
87.15 -0.01049
87.2 -0.01219
87.25 -0.0081
87.3 -0.00428
87.35 -0.00339
87.4 -0.00053
87.45 0.00431
87.5 0.00954
87.55 0.01239
87.6 0.00869
87.65 0.0033
87.7 -0.00297
87.75 -0.00341
87.8 0.00074
87.85 -0.00137
87.9 -0.00615
87.95 -0.01278
88 -0.01825
88.05 -0.022
88.1 -0.01899
88.15 -0.01833
88.2 -0.01198
88.25 -0.01128
88.3 -0.01223
88.35 -0.01587
88.4 -0.01997
88.45 -0.01795
88.5 -0.01126
88.55 -0.00342
88.6 0.00237
88.65 0.00485
88.7 0.0061
88.75 0.01073
88.8 0.00849
88.85 0.00497
88.9 0.00221
88.95 0.00434
89 0.00166
89.05 0.00167
89.1 -0.00042
89.15 0.00182
89.2 0.00722
89.25 0.01423
89.3 0.01684
89.35 0.02002
89.4 0.02119
89.45 0.01991
89.5 0.014
89.55 0.00713
89.6 0.00096
89.65 -0.00015
89.7 -0.00486
89.75 -0.00487
89.8 -0.00175
89.85 -0.00184
89.9 -0.00192
89.95 -0.00581
90 -0.01151
90.05 -0.01344
90.1 -0.0108
90.15 -0.00573
90.2 -0.00125
90.25 -0.00263
90.3 -0.00372
90.35 -0.00028
90.4 -0.00252
90.45 -0.00445
90.5 -0.00834
90.55 -0.01019
90.6 -0.00686
90.65 0.00018
90.7 0.00265
90.75 0.00589
90.8 0.0098
90.85 0.01454
90.9 0.01355
90.95 0.01107
91 0.00831
91.05 0.00953
91.1 0.00786
91.15 0.00626
91.2 0.00419
91.25 0.00646
91.3 0.01003
91.35 0.01491
91.4 0.02022
91.45 0.01832
91.5 0.01613
91.55 0.01703
91.6 0.02016
91.65 0.02118
91.7 0.01942
91.75 0.0177
91.8 0.01878
91.85 0.01521
91.9 0.0087
91.95 0.00628
92 0.00046
92.05 -0.00037
92.1 -0.00455
92.15 -0.00276
92.2 -0.00009
92.25 -0.00237
92.3 -0.00107
92.35 -0.00167
92.4 -0.00407
92.45 -0.00981
92.5 -0.01363
92.55 -0.01967
92.6 -0.02669
92.65 -0.02945
92.7 -0.02552
92.75 -0.02039
92.8 -0.0119
92.85 -0.0084
92.9 -0.00511
92.95 0.00086
93 0.00775
93.05 0.01191
93.1 0.0092
93.15 0.00233
93.2 -0.00047
93.25 -0.00475
93.3 -0.01085
93.35 -0.01153
93.4 -0.00787
93.45 -0.00271
93.5 -0.00118
93.55 0.00274
93.6 0.00658
93.65 0.01173
93.7 0.01156
93.75 0.0071
93.8 0.00033
93.85 -0.00821
93.9 -0.01315
93.95 -0.01133
94 -0.00671
94.05 -0.00131
94.1 0.00471
94.15 0.0125
94.2 0.01623
94.25 0.01432
94.3 0.01186
94.35 0.01213
94.4 0.0106
94.45 0.01134
94.5 0.01059
94.55 0.01258
94.6 0.01366
94.65 0.01175
94.7 0.01295
94.75 0.01044
94.8 0.01031
94.85 0.00666
94.9 0.00511
94.95 0.0018
95 0.00303
95.05 0.0072
95.1 0.00695
95.15 0.00274
95.2 -0.0006
95.25 -0.00701
95.3 -0.01082
95.35 -0.01507
95.4 -0.01402
95.45 -0.00924
95.5 -0.00556
95.55 -0.00734
95.6 -0.01222
95.65 -0.01463
95.7 -0.01202
95.75 -0.01341
95.8 -0.01682
95.85 -0.01868
95.9 -0.01494
95.95 -0.00764
96 0.00074
96.05 0.00831
96.1 0.01447
96.15 0.02061
96.2 0.02444
96.25 0.02502
96.3 0.01861
96.35 0.01114
96.4 0.00953
96.45 0.0111
96.5 0.01055
96.55 0.00828
96.6 0.00616
96.65 0.00789
96.7 0.00975
96.75 0.00954
96.8 0.0054
96.85 0.00146
96.9 -0.00591
96.95 -0.00886
97 -0.00739
97.05 -0.00604
97.1 -0.00241
97.15 -0.00161
97.2 -0.00249
97.25 -0.00417
97.3 -0.00607
97.35 -0.0095
97.4 -0.01293
97.45 -0.0156
97.5 -0.01268
97.55 -0.00668
97.6 -0.00001
97.65 0.00649
97.7 0.0053
97.75 0.00176
97.8 0.0021
97.85 0.00425
97.9 0.00173
97.95 0.00042
98 0.00053
98.05 -0.00006
98.1 -0.00378
98.15 -0.00884
98.2 -0.00713
98.25 -0.00153
98.3 -0.0026
98.35 -0.00353
98.4 -0.00108
98.45 0.00081
98.5 0.00087
98.55 -0.00229
98.6 -0.00526
98.65 -0.00863
98.7 -0.01226
98.75 -0.01014
98.8 -0.01143
98.85 -0.0078
98.9 -0.00883
98.95 -0.01089
99 -0.01465
99.05 -0.01711
99.1 -0.01724
99.15 -0.01745
99.2 -0.0206
99.25 -0.01686
99.3 -0.01211
99.35 -0.00786
99.4 -0.00213
99.45 -0.00153
99.5 0.0016
99.55 0.00187
99.6 0.0001
99.65 0.00301
99.7 0.00011
99.75 -0.0017
99.8 -0.0036
99.85 -0.00056
99.9 -0.00128
99.95 0.00233
