0 0
0.05 0.00433
0.1 0.00707
0.15 0.01654
0.2 0.02254
0.25 0.02907
0.3 0.03761
0.35 0.04362
0.4 0.04893
0.45 0.05239
0.5 0.05527
0.55 0.05281
0.6 0.05557
0.65 0.05891
0.7 0.06395
0.75 0.06421
0.8 0.06553
0.85 0.06069
0.9 0.0541
0.95 0.04564
1 0.03875
1.05 0.03033
1.1 0.02584
1.15 0.02761
1.2 0.02944
1.25 0.03409
1.3 0.03739
1.35 0.03933
1.4 0.03652
1.45 0.0344
1.5 0.03259
1.55 0.03357
1.6 0.03771
1.65 0.03576
1.7 0.0336
1.75 0.02822
1.8 0.02865
1.85 0.0331
1.9 0.03274
1.95 0.03653
2 0.03571
2.05 0.03903
2.1 0.04435
2.15 0.04963
2.2 0.05388
2.25 0.05018
2.3 0.04284
2.35 0.03301
2.4 0.02342
2.45 0.01494
2.5 0.00863
2.55 0.00365
2.6 0.00389
2.65 0.00258
2.7 0.00594
2.75 0.01385
2.8 0.01789
2.85 0.02352
2.9 0.02279
2.95 0.02101
3 0.01674
3.05 0.01036
3.1 0.00788
3.15 0.0101
3.2 0.01438
3.25 0.01578
3.3 0.0132
3.35 0.01208
3.4 0.01669
3.45 0.02327
3.5 0.02533
3.55 0.02851
3.6 0.03077
3.65 0.03324
3.7 0.03432
3.75 0.03047
3.8 0.02264
3.85 0.01423
3.9 0.01034
3.95 0.01094
4 0.01082
4.05 0.00729
4.1 0.00716
4.15 0.01009
4.2 0.01224
4.25 0.00872
4.3 0.00377
4.35 -0.00254
4.4 -0.00554
4.45 -0.00633
4.5 -0.01365
4.55 -0.02035
4.6 -0.03169
4.65 -0.04168
4.7 -0.05225
4.75 -0.07174
4.8 -0.09422
4.85 -0.11862
4.9 -0.14912
4.95 -0.18117
5 -0.2231
5.05 -0.26763
5.1 -0.31712
5.15 -0.37565
5.2 -0.43933
5.25 -0.50755
5.3 -0.58313
5.35 -0.66895
5.4 -0.75813
5.45 -0.84881
5.5 -0.93803
5.55 -1.03015
5.6 -1.12154
5.65 -1.21469
5.7 -1.30856
5.75 -1.40587
5.8 -1.49957
5.85 -1.59004
5.9 -1.67918
5.95 -1.76807
6 -1.85375
6.05 -1.94139
6.1 -2.02724
6.15 -2.10817
6.2 -2.18008
6.25 -2.24578
6.3 -2.3084
6.35 -2.36167
6.4 -2.41232
6.45 -2.45576
6.5 -2.48767
6.55 -2.51163
6.6 -2.52751
6.65 -2.52817
6.7 -2.51954
6.75 -2.49625
6.8 -2.45694
6.85 -2.40607
6.9 -2.34214
6.95 -2.26092
7 -2.16429
7.05 -2.05136
7.1 -1.92027
7.15 -1.77257
7.2 -1.61134
7.25 -1.43678
7.3 -1.24772
7.35 -1.04879
7.4 -0.84167
7.45 -0.63007
7.5 -0.41834
7.55 -0.21098
7.6 -0.00663
7.65 0.18987
7.7 0.37853
7.75 0.5635
7.8 0.73787
7.85 0.90711
7.9 1.06616
7.95 1.21496
8 1.35634
8.05 1.4886
8.1 1.60463
8.15 1.70784
8.2 1.79796
8.25 1.87925
8.3 1.94976
8.35 2.00894
8.4 2.06211
8.45 2.10981
8.5 2.1487
8.55 2.17591
8.6 2.195
8.65 2.20719
8.7 2.22052
8.75 2.22568
8.8 2.22633
8.85 2.22783
8.9 2.22952
8.95 2.22363
9 2.2149
9.05 2.20293
9.1 2.18985
9.15 2.17243
9.2 2.1555
9.25 2.1318
9.3 2.10903
9.35 2.08211
9.4 2.06055
9.45 2.03821
9.5 2.01506
9.55 1.9864
9.6 1.95503
9.65 1.92488
9.7 1.89267
9.75 1.8621
9.8 1.8332
9.85 1.80379
9.9 1.77459
9.95 1.74215
10 1.71108
10.05 1.67785
10.1 1.64083
10.15 1.60567
10.2 1.56452
10.25 1.51968
10.3 1.47554
10.35 1.42656
10.4 1.37843
10.45 1.33506
10.5 1.28846
10.55 1.24058
10.6 1.19283
10.65 1.14547
10.7 1.10161
10.75 1.05779
10.8 1.01417
10.85 0.96422
10.9 0.91481
10.95 0.86766
11 0.81919
11.05 0.77136
11.1 0.72523
11.15 0.6779
11.2 0.63088
11.25 0.58717
11.3 0.54293
11.35 0.50289
11.4 0.46093
11.45 0.42303
11.5 0.38699
11.55 0.35023
11.6 0.30966
11.65 0.27205
11.7 0.23489
11.75 0.19934
11.8 0.16051
11.85 0.12612
11.9 0.09629
11.95 0.06518
12 0.03907
12.05 0.01499
12.1 -0.00861
12.15 -0.03122
12.2 -0.05195
12.25 -0.07249
12.3 -0.09487
12.35 -0.11574
12.4 -0.13306
12.45 -0.15429
12.5 -0.17134
12.55 -0.1907
12.6 -0.21076
12.65 -0.2297
12.7 -0.25059
12.75 -0.27028
12.8 -0.28407
12.85 -0.2934
12.9 -0.30008
12.95 -0.30887
13 -0.31583
13.05 -0.32439
13.1 -0.32947
13.15 -0.33839
13.2 -0.34738
13.25 -0.35617
13.3 -0.36696
13.35 -0.37816
13.4 -0.38167
13.45 -0.38146
13.5 -0.38258
13.55 -0.37984
13.6 -0.37724
13.65 -0.37715
13.7 -0.37758
13.75 -0.3733
13.8 -0.36954
13.85 -0.37038
13.9 -0.37415
13.95 -0.37534
14 -0.3723
14.05 -0.36963
14.1 -0.36594
14.15 -0.36392
14.2 -0.35879
14.25 -0.35428
14.3 -0.34698
14.35 -0.34176
14.4 -0.33725
14.45 -0.33903
14.5 -0.33852
14.55 -0.34102
14.6 -0.34144
14.65 -0.33995
14.7 -0.33613
14.75 -0.32956
14.8 -0.32504
14.85 -0.31801
14.9 -0.31375
14.95 -0.31253
15 -0.31434
15.05 -0.3162
15.1 -0.31373
15.15 -0.30587
15.2 -0.29752
15.25 -0.28985
15.3 -0.28311
15.35 -0.27651
15.4 -0.2726
15.45 -0.26573
15.5 -0.25834
15.55 -0.25113
15.6 -0.24515
15.65 -0.2419
15.7 -0.23781
15.75 -0.23892
15.8 -0.23712
15.85 -0.23374
15.9 -0.23178
15.95 -0.23336
16 -0.23475
16.05 -0.23082
16.1 -0.22249
16.15 -0.21856
16.2 -0.21717
16.25 -0.21459
16.3 -0.2163
16.35 -0.21581
16.4 -0.21622
16.45 -0.21714
16.5 -0.21103
16.55 -0.20624
16.6 -0.19682
16.65 -0.18931
16.7 -0.18253
16.75 -0.17575
16.8 -0.16957
16.85 -0.16715
16.9 -0.16567
16.95 -0.16146
17 -0.16137
17.05 -0.15885
17.1 -0.15396
17.15 -0.14877
17.2 -0.14334
17.25 -0.14371
17.3 -0.14354
17.35 -0.14577
17.4 -0.14851
17.45 -0.15315
17.5 -0.15081
17.55 -0.14913
17.6 -0.1431
17.65 -0.13699
17.7 -0.12866
17.75 -0.12563
17.8 -0.12218
17.85 -0.11588
17.9 -0.11147
17.95 -0.10542
18 -0.10467
18.05 -0.10851
18.1 -0.10813
18.15 -0.1057
18.2 -0.10433
18.25 -0.10204
18.3 -0.10067
18.35 -0.09841
18.4 -0.0998
18.45 -0.09939
18.5 -0.0984
18.55 -0.09752
18.6 -0.10018
18.65 -0.09841
18.7 -0.09289
18.75 -0.08929
18.8 -0.08934
18.85 -0.0873
18.9 -0.08936
18.95 -0.08953
19 -0.0918
19.05 -0.09649
19.1 -0.10287
19.15 -0.10135
19.2 -0.09608
19.25 -0.08773
19.3 -0.08411
19.35 -0.0823
19.4 -0.07684
19.45 -0.07061
19.5 -0.06792
19.55 -0.06485
19.6 -0.06567
19.65 -0.06376
19.7 -0.06668
19.75 -0.06718
19.8 -0.07087
19.85 -0.06917
19.9 -0.07068
19.95 -0.07194
20 -0.07353
20.05 -0.07027
20.1 -0.07106
20.15 -0.07269
20.2 -0.06836
20.25 -0.06709
20.3 -0.06222
20.35 -0.05641
20.4 -0.0509
20.45 -0.04856
20.5 -0.04813
20.55 -0.04668
20.6 -0.04257
20.65 -0.03897
20.7 -0.04129
20.75 -0.04134
20.8 -0.04628
20.85 -0.05244
20.9 -0.05902
20.95 -0.06453
21 -0.0655
21.05 -0.06538
21.1 -0.06138
21.15 -0.05726
21.2 -0.05211
21.25 -0.04706
21.3 -0.03937
21.35 -0.03438
21.4 -0.03074
21.45 -0.02828
21.5 -0.02455
21.55 -0.01931
21.6 -0.01443
21.65 -0.01126
21.7 -0.01193
21.75 -0.016
21.8 -0.02072
21.85 -0.02706
21.9 -0.03684
21.95 -0.04542
22 -0.0471
22.05 -0.04754
22.1 -0.05167
22.15 -0.05167
22.2 -0.05421
22.25 -0.05121
22.3 -0.04972
22.35 -0.04612
22.4 -0.0425
22.45 -0.04313
22.5 -0.04412
22.55 -0.04336
22.6 -0.04086
22.65 -0.04013
22.7 -0.03942
22.75 -0.03886
22.8 -0.04
22.85 -0.03571
22.9 -0.03635
22.95 -0.03253
23 -0.03004
23.05 -0.02831
23.1 -0.02326
23.15 -0.02305
23.2 -0.02138
23.25 -0.02201
23.3 -0.0273
23.35 -0.03186
23.4 -0.03588
23.45 -0.04038
23.5 -0.04353
23.55 -0.04779
23.6 -0.05124
23.65 -0.04729
23.7 -0.04717
23.75 -0.04278
23.8 -0.03466
23.85 -0.02734
23.9 -0.0226
23.95 -0.01568
24 -0.01224
24.05 -0.01212
24.1 -0.00819
24.15 -0.01028
24.2 -0.01535
24.25 -0.02059
24.3 -0.02727
24.35 -0.0337
24.4 -0.04053
24.45 -0.04548
24.5 -0.04879
24.55 -0.04346
24.6 -0.0388
24.65 -0.03584
24.7 -0.03164
24.75 -0.03149
24.8 -0.02674
24.85 -0.01947
24.9 -0.01161
24.95 -0.00416
25 0.00062
25.05 0.00408
25.1 0.00369
25.15 0.00153
25.2 -0.00259
25.25 -0.00206
25.3 -0.00253
25.35 -0.00219
25.4 0.00023
25.45 0.00511
25.5 0.00707
25.55 0.00373
25.6 -0.00292
25.65 -0.00826
25.7 -0.01149
25.75 -0.01475
25.8 -0.01609
25.85 -0.0127
25.9 -0.0058
25.95 -0.00561
26 -0.00667
26.05 -0.00968
26.1 -0.01605
26.15 -0.02195
26.2 -0.02817
26.25 -0.0343
26.3 -0.03361
26.35 -0.03525
26.4 -0.03057
26.45 -0.02531
26.5 -0.01726
26.55 -0.01497
26.6 -0.01675
26.65 -0.0197
26.7 -0.02004
26.75 -0.02145
26.8 -0.0189
26.85 -0.01965
26.9 -0.01642
26.95 -0.01354
27 -0.01203
27.05 -0.00963
27.1 -0.0088
27.15 -0.00503
27.2 -0.00352
27.25 -0.00231
27.3 -0.00178
27.35 0.00239
27.4 0.00626
27.45 0.00426
27.5 0.00537
27.55 0.00129
27.6 -0.00207
27.65 -0
27.7 -0.00244
27.75 -0.00507
27.8 -0.00669
27.85 -0.00384
27.9 -0.00106
27.95 -0.00307
28 -0.00276
28.05 -0.0027
28.1 -0.00245
28.15 0.00207
28.2 0.00562
28.25 0.00484
28.3 0.00528
28.35 0.00617
28.4 0.00844
28.45 0.00904
28.5 0.00453
28.55 0.00198
28.6 0.00012
28.65 0.00209
28.7 0.00172
28.75 -0.00249
28.8 -0.00599
28.85 -0.01139
28.9 -0.01695
28.95 -0.02098
29 -0.02514
29.05 -0.02904
29.1 -0.02488
29.15 -0.01837
29.2 -0.01173
29.25 -0.00331
29.3 0.00164
29.35 0.00233
29.4 0.00346
29.45 0.00068
29.5 -0.00023
29.55 0.00052
29.6 -0.0011
29.65 0.00165
29.7 -0.00056
29.75 -0.00094
29.8 -0.00024
29.85 0.002
29.9 0.00578
29.95 0.01112
30 0.01751
30.05 0.01573
30.1 0.01452
30.15 0.00777
30.2 0.00399
30.25 0.00011
30.3 -0.001
30.35 -0.00508
30.4 -0.00635
30.45 -0.00565
30.5 -0.0068
30.55 -0.01066
30.6 -0.01343
30.65 -0.01144
30.7 -0.00596
30.75 0.00172
30.8 0.00673
30.85 0.00831
30.9 0.01065
30.95 0.01216
31 0.01134
31.05 0.0136
31.1 0.01443
31.15 0.01643
31.2 0.01282
31.25 0.00596
31.3 0.0024
31.35 0.00004
31.4 0.00134
31.45 0.00387
31.5 0.00161
31.55 -0.00105
31.6 -0.00445
31.65 -0.00907
31.7 -0.00898
31.75 -0.00602
31.8 -0.00188
31.85 -0.00012
31.9 0.00023
31.95 0.0006
32 -0.00126
32.05 -0.00138
32.1 -0.00482
32.15 -0.00886
32.2 -0.01476
32.25 -0.0161
32.3 -0.01411
32.35 -0.01141
32.4 -0.01145
32.45 -0.01359
32.5 -0.01424
32.55 -0.01527
32.6 -0.01415
32.65 -0.0085
32.7 -0.00407
32.75 -0.0051
32.8 -0.0056
32.85 -0.00272
32.9 -0.00268
32.95 -0.00219
33 -0.00055
33.05 0.00324
33.1 0.00586
33.15 0.00478
33.2 0.00283
33.25 -0.00231
33.3 -0.00705
33.35 -0.00624
33.4 -0.00337
33.45 0.0013
33.5 0.00489
33.55 0.0092
33.6 0.01389
33.65 0.01844
33.7 0.02076
33.75 0.0224
33.8 0.01693
33.85 0.01518
33.9 0.01025
33.95 0.00566
34 0.00066
34.05 -0.00256
34.1 -0.00123
34.15 0.0014
34.2 0.00023
34.25 -0.00438
34.3 -0.00336
34.35 0.00146
34.4 -0.00039
34.45 -0.00549
34.5 -0.00954
34.55 -0.0083
34.6 -0.00999
34.65 -0.00592
34.7 0.00079
34.75 0.00627
34.8 0.00447
34.85 0.00272
34.9 0.00086
34.95 -0.00371
35 -0.00926
35.05 -0.01669
35.1 -0.01994
35.15 -0.02031
35.2 -0.01678
35.25 -0.00998
35.3 -0.00877
35.35 -0.01057
35.4 -0.00686
35.45 -0.00822
35.5 -0.01113
35.55 -0.01013
35.6 -0.00461
35.65 -0.00267
35.7 -0.00361
35.75 -0.00605
35.8 -0.00601
35.85 -0.00637
35.9 -0.00936
35.95 -0.01309
36 -0.01055
36.05 -0.00794
36.1 -0.00681
36.15 -0.00387
36.2 -0.00521
36.25 -0.00568
36.3 -0.00099
36.35 0.00577
36.4 0.01015
36.45 0.01068
36.5 0.01075
36.55 0.01219
36.6 0.01062
36.65 0.01003
36.7 0.00717
36.75 0.00364
36.8 0.002
36.85 0.00317
36.9 0.00557
36.95 0.00342
37 0.00461
37.05 0.00429
37.1 0.00338
37.15 -0.00131
37.2 -0.00678
37.25 -0.00533
37.3 -0.00325
37.35 -0.00157
37.4 -0.00174
37.45 -0.00064
37.5 -0.00178
37.55 -0.00648
37.6 -0.0048
37.65 -0.00182
37.7 0.00038
37.75 0.00476
37.8 0.00567
37.85 0.00489
37.9 0.00345
37.95 0.00146
38 0.00094
38.05 0.00033
38.1 -0.00091
38.15 -0.00303
38.2 0.00009
38.25 0.00493
38.3 0.00345
38.35 0.00487
38.4 0.00585
38.45 0.00413
38.5 0.00679
38.55 0.00814
38.6 0.00626
38.65 0.00234
38.7 0.0026
38.75 0.0055
38.8 0.00904
38.85 0.01485
38.9 0.01578
38.95 0.0115
39 0.00607
39.05 0.00391
39.1 -0.00165
39.15 -0.00347
39.2 -0.0003
39.25 0.00115
39.3 -0.00141
39.35 -0.00092
39.4 -0.00366
39.45 -0.00237
39.5 -0.00413
39.55 -0.00752
39.6 -0.00889
39.65 -0.00863
39.7 -0.00616
39.75 -0.0069
39.8 -0.00242
39.85 -0.00254
39.9 -0.00329
39.95 -0.00642
40 -0.00772
40.05 -0.00486
40.1 -0.00452
40.15 -0.00054
40.2 0.00102
40.25 0.00194
40.3 0.00627
40.35 0.00923
40.4 0.01264
40.45 0.01111
40.5 0.00994
40.55 0.00718
40.6 0.00632
40.65 0.00274
40.7 -0.00306
40.75 -0.00997
40.8 -0.01366
40.85 -0.01574
40.9 -0.01139
40.95 -0.00677
41 -0.00209
41.05 -0.00367
41.1 -0.00014
41.15 0.00192
41.2 0.004
41.25 0.00216
41.3 0.00182
41.35 -0.00302
41.4 -0.00957
41.45 -0.00936
41.5 -0.00809
41.55 -0.00689
41.6 -0.00608
41.65 -0.00743
41.7 -0.00898
41.75 -0.01019
41.8 -0.00962
41.85 -0.00675
41.9 -0.00507
41.95 -0.0015
42 0.00391
42.05 0.01112
42.1 0.01227
42.15 0.01428
42.2 0.01061
42.25 0.00387
42.3 -0.00127
42.35 -0.0062
42.4 -0.00603
42.45 -0.00667
42.5 -0.00414
42.55 0.00185
42.6 0.00132
42.65 -0.0034
42.7 -0.00234
42.75 -0.00289
42.8 -0.00597
42.85 -0.00731
42.9 -0.00319
42.95 -0.00242
43 -0.00034
43.05 -0.00285
43.1 -0.00721
43.15 -0.00813
43.2 -0.00444
43.25 -0.00405
43.3 -0.00791
43.35 -0.01404
43.4 -0.01462
43.45 -0.01745
43.5 -0.01895
43.55 -0.01598
43.6 -0.01077
43.65 -0.00419
43.7 0.002
43.75 0.00886
43.8 0.0113
43.85 0.0125
43.9 0.00789
43.95 0.00241
44 0.00311
44.05 0.00139
44.1 -0.00275
44.15 -0.00803
44.2 -0.00683
44.25 -0.00478
44.3 0.00042
44.35 0.00017
44.4 -0.0028
44.45 -0.00248
44.5 -0.00444
44.55 -0.00334
44.6 0.00024
44.65 0.00133
44.7 0.00619
44.75 0.01068
44.8 0.01562
44.85 0.02081
44.9 0.01799
44.95 0.01683
45 0.01859
45.05 0.01547
45.1 0.01584
45.15 0.0106
45.2 0.00591
45.25 0.00641
45.3 0.00681
45.35 0.00587
45.4 0.00084
45.45 -0.00466
45.5 -0.01217
45.55 -0.0128
45.6 -0.01366
45.65 -0.01382
45.7 -0.00846
45.75 -0.00255
45.8 0.00529
45.85 0.01257
45.9 0.01649
45.95 0.01806
46 0.02122
46.05 0.01728
46.1 0.00908
46.15 -0.0007
46.2 -0.0041
46.25 -0.00413
46.3 -0.00798
46.35 -0.0059
46.4 -0.00265
46.45 -0.00352
46.5 -0.00175
46.55 -0.00435
46.6 -0.00185
46.65 -0.00177
46.7 -0.00459
46.75 -0.00161
46.8 0.00336
46.85 0.00245
46.9 -0.00289
46.95 -0.00966
47 -0.01077
47.05 -0.0151
47.1 -0.01276
47.15 -0.0119
47.2 -0.01236
47.25 -0.0096
47.3 -0.00836
47.35 -0.01131
47.4 -0.01298
47.45 -0.00965
47.5 -0.01045
47.55 -0.00921
47.6 -0.00322
47.65 -0.00216
47.7 0.00305
47.75 0.0047
47.8 0.00075
47.85 -0.00121
47.9 -0.00606
47.95 -0.01103
48 -0.0114
48.05 -0.01183
48.1 -0.01456
48.15 -0.0179
48.2 -0.02096
48.25 -0.02089
48.3 -0.01838
48.35 -0.01066
48.4 -0.00102
48.45 0.0092
48.5 0.01726
48.55 0.02246
48.6 0.02009
48.65 0.01497
48.7 0.01458
48.75 0.01428
48.8 0.00891
48.85 0.00391
48.9 0.00186
48.95 -0.00186
49 -0.00054
49.05 -0.00197
49.1 0.00095
49.15 -0.00115
49.2 -0.00146
49.25 -0.00331
49.3 -0.00579
49.35 -0.00551
49.4 -0.00654
49.45 -0.00964
49.5 -0.01426
49.55 -0.01286
49.6 -0.01124
49.65 -0.00506
49.7 -0.00494
49.75 -0.0036
49.8 -0.00458
49.85 -0.00295
49.9 0.00261
49.95 0.00234
50 0.00565
50.05 0.00449
50.1 0.00572
50.15 0.00178
50.2 -0.00208
50.25 -0.00689
50.3 -0.00629
50.35 -0.00524
50.4 -0.00861
50.45 -0.00648
50.5 -0.008
50.55 -0.00543
50.6 -0.00047
50.65 0.00472
50.7 0.00849
50.75 0.0147
50.8 0.01346
50.85 0.00843
50.9 0.00461
50.95 -0.00217
51 -0.00463
51.05 -0.00859
51.1 -0.01427
51.15 -0.01945
51.2 -0.01937
51.25 -0.01993
51.3 -0.0164
51.35 -0.01031
51.4 -0.00204
51.45 0.00014
51.5 0.00212
51.55 0.00608
51.6 0.00672
51.65 0.00404
51.7 -0.00122
51.75 -0.00335
51.8 -0.00491
51.85 -0.0013
51.9 0.00444
51.95 0.00502
52 0.00962
52.05 0.01499
52.1 0.01414
52.15 0.01091
52.2 0.01069
52.25 0.00691
52.3 0.0029
52.35 0.00202
52.4 0.00139
52.45 0.0032
52.5 0.00264
52.55 0.0003
52.6 -0.00305
52.65 -0.00455
52.7 -0.0065
52.75 -0.00985
52.8 -0.01296
52.85 -0.01661
52.9 -0.01658
52.95 -0.01397
53 -0.01561
53.05 -0.01906
53.1 -0.01739
53.15 -0.01161
53.2 -0.00721
53.25 -0.0054
53.3 -0.00654
53.35 -0.00716
53.4 -0.0058
53.45 -0.00021
53.5 0.00818
53.55 0.00954
53.6 0.00604
53.65 0.00544
53.7 0.00662
53.75 0.01137
53.8 0.01727
53.85 0.01701
53.9 0.01662
53.95 0.01706
54 0.01939
54.05 0.02078
54.1 0.02338
54.15 0.02511
54.2 0.02314
54.25 0.01964
54.3 0.01712
54.35 0.0152
54.4 0.0152
54.45 0.01209
54.5 0.00626
54.55 0.00091
54.6 -0.00066
54.65 -0.00028
54.7 -0.00282
54.75 -0.00338
54.8 -0.00134
54.85 0.0014
54.9 0.00421
54.95 0.00973
55 0.01639
55.05 0.02213
55.1 0.02356
55.15 0.01778
55.2 0.01281
55.25 0.00542
55.3 0.00242
55.35 0.0028
55.4 -0.00009
55.45 -0.00407
55.5 -0.00638
55.55 -0.00833
55.6 -0.01213
55.65 -0.0143
55.7 -0.01719
55.75 -0.01703
55.8 -0.01972
55.85 -0.01563
55.9 -0.01537
55.95 -0.01187
56 -0.00724
56.05 0.00069
56.1 0.00619
56.15 0.01053
56.2 0.01097
56.25 0.00601
56.3 0.00231
56.35 0.00018
56.4 0.0022
56.45 0.00199
56.5 0.00023
56.55 0.00294
56.6 0.00762
56.65 0.00846
56.7 0.00776
56.75 0.00359
56.8 0.00425
56.85 0.0013
56.9 -0.00137
56.95 -0.00316
57 -0.00213
57.05 0.0019
57.1 0.00197
57.15 -0.00045
57.2 -0.00645
57.25 -0.01139
57.3 -0.01007
57.35 -0.00747
57.4 -0.00604
57.45 -0.00661
57.5 -0.00485
57.55 -0.00569
57.6 -0.00685
57.65 -0.00297
57.7 0.00087
57.75 0.00513
57.8 0.00305
57.85 0.0049
57.9 0.00603
57.95 0.01058
58 0.01545
58.05 0.01982
58.1 0.01653
58.15 0.01281
58.2 0.0121
58.25 0.01083
58.3 0.00436
58.35 -0.00418
58.4 -0.00937
58.45 -0.00772
58.5 -0.01083
58.55 -0.01343
58.6 -0.01546
58.65 -0.01835
58.7 -0.02062
58.75 -0.0239
58.8 -0.02541
58.85 -0.02722
58.9 -0.0297
58.95 -0.02643
59 -0.02637
59.05 -0.02036
59.1 -0.01352
59.15 -0.00737
59.2 -0.00418
59.25 -0.00594
59.3 -0.01055
59.35 -0.01571
59.4 -0.01872
59.45 -0.01496
59.5 -0.00978
59.55 -0.0012
59.6 0.00183
59.65 -0.00011
59.7 -0.0021
59.75 -0.00185
59.8 -0.00249
59.85 -0.00491
59.9 -0.00695
59.95 -0.01112
60 -0.01606
60.05 -0.01782
60.1 -0.01947
60.15 -0.01891
60.2 -0.01784
60.25 -0.01283
60.3 -0.00517
60.35 0.00386
60.4 0.0085
60.45 0.01249
60.5 0.01523
60.55 0.01292
60.6 0.01133
60.65 0.00912
60.7 0.00752
60.75 0.00227
60.8 -0.004
60.85 -0.00991
60.9 -0.01527
60.95 -0.0157
61 -0.01539
61.05 -0.0093
61.1 -0.00325
61.15 0.00245
61.2 0.01015
61.25 0.01904
61.3 0.02238
61.35 0.02514
61.4 0.02502
61.45 0.02565
61.5 0.02352
61.55 0.0214
61.6 0.02214
61.65 0.02527
61.7 0.02228
61.75 0.01544
61.8 0.01367
61.85 0.01348
61.9 0.01356
61.95 0.01019
62 0.01088
62.05 0.01168
62.1 0.01112
62.15 0.00993
62.2 0.00967
62.25 0.00575
62.3 0.00045
62.35 0.00124
62.4 -0.00003
62.45 0.00204
62.5 0.00251
62.55 -0.00093
62.6 -0.00025
62.65 0.00447
62.7 0.00451
62.75 0.00562
62.8 0.00152
62.85 -0.0059
62.9 -0.00662
62.95 -0.0053
63 -0.00821
63.05 -0.01394
63.1 -0.01699
63.15 -0.01954
63.2 -0.01885
63.25 -0.01243
63.3 -0.00373
63.35 0.0044
63.4 0.01262
63.45 0.01874
63.5 0.01789
63.55 0.01168
63.6 0.00922
63.65 0.00228
63.7 -0.00169
63.75 -0.00406
63.8 -0.00914
63.85 -0.01051
63.9 -0.01122
63.95 -0.01509
64 -0.01239
64.05 -0.01386
64.1 -0.01259
64.15 -0.01496
64.2 -0.01526
64.25 -0.01362
64.3 -0.00778
64.35 -0.00774
64.4 -0.00331
64.45 0.00078
64.5 0.00278
64.55 0.00507
64.6 0.00737
64.65 0.00833
64.7 0.00377
64.75 0.00197
64.8 0.00419
64.85 0.00373
64.9 0.00487
64.95 0.00493
65 -0.00013
65.05 0.00077
65.1 0.00342
65.15 0.00394
65.2 0.00541
65.25 0.00591
65.3 0.00735
65.35 0.00887
65.4 0.00645
65.45 0.00211
65.5 0.00338
65.55 0.00809
65.6 0.01251
65.65 0.01628
65.7 0.02033
65.75 0.02522
65.8 0.02251
65.85 0.01925
65.9 0.01544
65.95 0.01538
66 0.01361
66.05 0.0141
66.1 0.0115
66.15 0.0122
66.2 0.01124
66.25 0.00477
66.3 -0.0017
66.35 -0.0027
66.4 -0.00608
66.45 -0.007
66.5 -0.00753
66.55 -0.00587
66.6 -0.00783
66.65 -0.00969
66.7 -0.01364
66.75 -0.01605
66.8 -0.02083
66.85 -0.01833
66.9 -0.01616
66.95 -0.01638
67 -0.01443
67.05 -0.00984
67.1 -0.00226
67.15 0.00408
67.2 0.00803
67.25 0.0082
67.3 0.00738
67.35 0.00493
67.4 -0.00003
67.45 -0.00792
67.5 -0.01044
67.55 -0.01533
67.6 -0.0215
67.65 -0.02713
67.7 -0.03292
67.75 -0.03697
67.8 -0.03237
67.85 -0.02989
67.9 -0.02447
67.95 -0.01638
68 -0.00856
68.05 -0.00052
68.1 0.00408
68.15 0.00524
68.2 0.00138
68.25 -0.00176
68.3 -0.00384
68.35 -0.00894
68.4 -0.01219
68.45 -0.01172
68.5 -0.01352
68.55 -0.01237
68.6 -0.00691
68.65 -0.00501
68.7 -0.00119
68.75 -0.00295
68.8 -0.00177
68.85 -0.00313
68.9 -0.00364
68.95 0.00009
69 0.00041
69.05 -0.00135
69.1 -0.00435
69.15 -0.00853
69.2 -0.0149
69.25 -0.01815
69.3 -0.01796
69.35 -0.01478
69.4 -0.00861
69.45 -0.00349
69.5 -0.00413
69.55 -0.00608
69.6 -0.00207
69.65 0.00461
69.7 0.01187
69.75 0.01743
69.8 0.0235
69.85 0.0258
69.9 0.0211
69.95 0.01379
70 0.01136
70.05 0.00624
70.1 -0.00074
70.15 -0.00171
70.2 0.00246
70.25 0.00046
70.3 -0.00255
70.35 -0.0017
70.4 0.00285
70.45 0.0026
70.5 0.00498
70.55 0.00523
70.6 0.00355
70.65 0.00199
70.7 0.0027
70.75 0.00527
70.8 0.00192
70.85 -0.00125
70.9 -0.00306
70.95 -0.00777
71 -0.01324
71.05 -0.01322
71.1 -0.01391
71.15 -0.0109
71.2 -0.00945
71.25 -0.00668
71.3 -0.00638
71.35 -0.00803
71.4 -0.00614
71.45 -0.00572
71.5 -0.00155
71.55 -0.00205
71.6 -0.00002
71.65 -0.00039
71.7 -0.00483
71.75 -0.00875
71.8 -0.01028
71.85 -0.01295
71.9 -0.00943
71.95 -0.00452
72 -0.00267
72.05 -0.00512
72.1 -0.00918
72.15 -0.00796
72.2 -0.00467
72.25 -0.00543
72.3 -0.00744
72.35 -0.00411
72.4 -0.00261
72.45 -0.0051
72.5 -0.01042
72.55 -0.01512
72.6 -0.0166
72.65 -0.01978
72.7 -0.02157
72.75 -0.01633
72.8 -0.00919
72.85 -0.00693
72.9 -0.00046
72.95 0.00809
73 0.01324
73.05 0.01123
73.1 0.01372
73.15 0.01904
73.2 0.02274
73.25 0.01898
73.3 0.01553
73.35 0.01489
73.4 0.01179
73.45 0.00497
73.5 0.00419
73.55 -0.00073
73.6 -0.00124
73.65 0.00286
73.7 0.00249
73.75 0.00464
73.8 0.00742
73.85 0.00486
73.9 -0.00081
73.95 -0.00142
74 -0.00005
74.05 0.00246
74.1 0.0006
74.15 -0.00076
74.2 0.00205
74.25 -0.00047
74.3 -0.0028
74.35 -0.00764
74.4 -0.01441
74.45 -0.02065
74.5 -0.02382
74.55 -0.02179
74.6 -0.01506
74.65 -0.00805
74.7 -0.00338
74.75 0.00264
74.8 0.01028
74.85 0.0116
74.9 0.01075
74.95 0.0113
75 0.01147
75.05 0.00788
75.1 0.00772
75.15 0.00471
75.2 0.00203
75.25 -0.00148
75.3 -0.00298
75.35 -0.0006
75.4 -0.00207
75.45 -0.00102
75.5 0.00096
75.55 -0.00213
75.6 -0.00306
75.65 -0.00247
75.7 -0.00307
75.75 -0.00121
75.8 0.00035
75.85 0.00122
75.9 -0.00157
75.95 -0.00735
76 -0.01373
76.05 -0.01608
76.1 -0.01805
76.15 -0.02187
76.2 -0.01838
76.25 -0.01791
76.3 -0.01842
76.35 -0.01821
76.4 -0.01478
76.45 -0.01425
76.5 -0.01135
76.55 -0.00652
76.6 -0.00048
76.65 0.00073
76.7 0.00306
76.75 0.00711
76.8 0.01069
76.85 0.01254
76.9 0.01311
76.95 0.0146
77 0.01717
77.05 0.0142
77.1 0.00899
77.15 0.00388
77.2 -0.00348
77.25 -0.00471
77.3 -0.00496
77.35 -0.00466
77.4 -0.00349
77.45 -0.00031
77.5 -0.00018
77.55 0.00397
77.6 0.00599
77.65 0.00811
77.7 0.01067
77.75 0.00745
77.8 0.00321
77.85 -0.00257
77.9 -0.00461
77.95 -0.00148
78 0.00475
78.05 0.0101
78.1 0.01568
78.15 0.0167
78.2 0.01215
78.25 0.00804
78.3 0.00691
78.35 0.00448
78.4 0.00524
78.45 0.00657
78.5 0.00886
78.55 0.01386
78.6 0.01845
78.65 0.01719
78.7 0.01258
78.75 0.01104
78.8 0.01096
78.85 0.00946
78.9 0.00953
78.95 0.00819
79 0.00215
79.05 -0.00617
79.1 -0.00629
79.15 -0.00203
79.2 0.00122
79.25 0.00258
79.3 0.00138
79.35 0.00181
79.4 0.00279
79.45 0.00413
79.5 0.00677
79.55 0.00782
79.6 0.00784
79.65 0.00366
79.7 -0.0038
79.75 -0.01036
79.8 -0.0154
79.85 -0.01825
79.9 -0.02037
79.95 -0.0205
80 -0.01622
80.05 -0.01336
80.1 -0.01377
80.15 -0.01092
80.2 -0.00418
80.25 -0.00253
80.3 0.00306
80.35 0.00748
80.4 0.00792
80.45 0.00766
80.5 0.01023
80.55 0.01502
80.6 0.01464
80.65 0.013
80.7 0.01061
80.75 0.00696
80.8 0.0003
80.85 -0.00436
80.9 -0.0093
80.95 -0.00724
81 -0.00215
81.05 0.00491
81.1 0.00657
81.15 0.01119
81.2 0.01071
81.25 0.01364
81.3 0.01526
81.35 0.01291
81.4 0.01017
81.45 0.0089
81.5 0.00996
81.55 0.0124
81.6 0.01382
81.65 0.01238
81.7 0.00961
81.75 0.00969
81.8 0.0112
81.85 0.01452
81.9 0.0125
81.95 0.00723
82 0.00615
82.05 0.00024
82.1 -0.00739
82.15 -0.00825
82.2 -0.00988
82.25 -0.00832
82.3 -0.00747
82.35 -0.00207
82.4 -0.00304
82.45 -0.00452
82.5 -0.00233
82.55 -0.00407
82.6 -0.00567
82.65 -0.00256
82.7 -0.0006
82.75 0.00458
82.8 0.00685
82.85 0.00605
82.9 0.00425
82.95 0.00691
83 0.00427
83.05 0.0042
83.1 -0.00036
83.15 -0.00374
83.2 -0.00984
83.25 -0.01046
83.3 -0.01127
83.35 -0.01444
83.4 -0.01952
83.45 -0.02359
83.5 -0.02012
83.55 -0.01652
83.6 -0.01318
83.65 -0.01157
83.7 -0.00795
83.75 -0.00951
83.8 -0.00676
83.85 -0.00604
83.9 -0.00699
83.95 -0.00738
84 -0.01145
84.05 -0.01388
84.1 -0.01223
84.15 -0.0125
84.2 -0.01473
84.25 -0.01931
84.3 -0.01776
84.35 -0.01595
84.4 -0.01071
84.45 -0.00924
84.5 -0.00848
84.55 -0.00724
84.6 -0.00453
84.65 0.00149
84.7 0.00186
84.75 0.00663
84.8 0.01231
84.85 0.01807
84.9 0.02204
84.95 0.0199
85 0.0168
85.05 0.01698
85.1 0.01303
85.15 0.00496
85.2 -0.00493
85.25 -0.00909
85.3 -0.00641
85.35 -0.00735
85.4 -0.00381
85.45 -0.00326
85.5 -0.00428
85.55 -0.00679
85.6 -0.01118
85.65 -0.01383
85.7 -0.01531
85.75 -0.01597
85.8 -0.01403
85.85 -0.01343
85.9 -0.00785
85.95 -0.00671
86 -0.00884
86.05 -0.01144
86.1 -0.0076
86.15 -0.00406
86.2 0.00294
86.25 0.00499
86.3 0.00935
86.35 0.0139
86.4 0.01887
86.45 0.02514
86.5 0.03131
86.55 0.03645
86.6 0.03794
86.65 0.04021
86.7 0.03571
86.75 0.02744
86.8 0.01999
86.85 0.01791
86.9 0.01887
86.95 0.02164
87 0.02128
87.05 0.01993
87.1 0.01348
87.15 0.00925
87.2 0.00788
87.25 0.00798
87.3 0.00869
87.35 0.00639
87.4 0.00559
87.45 0.00073
87.5 0.00139
87.55 0.00263
87.6 0.00598
87.65 0.00879
87.7 0.00816
87.75 0.00789
87.8 0.00687
87.85 0.00076
87.9 -0.00595
87.95 -0.00777
88 -0.00634
88.05 -0.00813
88.1 -0.00445
88.15 0.00044
88.2 0.0006
88.25 0.0009
88.3 0.00436
88.35 0.01044
88.4 0.0094
88.45 0.01167
88.5 0.01144
88.55 0.01138
88.6 0.00555
88.65 0.0002
88.7 -0.00515
88.75 -0.01308
88.8 -0.01435
88.85 -0.01009
88.9 -0.00488
88.95 -0.00523
89 -0.00553
89.05 -0.00147
89.1 -0.0013
89.15 -0.00416
89.2 -0.00698
89.25 -0.00823
89.3 -0.0082
89.35 -0.00616
89.4 -0.00624
89.45 -0.00843
89.5 -0.00782
89.55 -0.00776
89.6 -0.00401
89.65 -0.00342
89.7 -0.00498
89.75 -0.00912
89.8 -0.01071
89.85 -0.00842
89.9 -0.0069
89.95 -0.00834
90 -0.01185
90.05 -0.0146
90.1 -0.0154
90.15 -0.01476
90.2 -0.00886
90.25 -0.00779
90.3 -0.00423
90.35 -0.00231
90.4 -0.00349
90.45 -0.00669
90.5 -0.01209
90.55 -0.0189
90.6 -0.02205
90.65 -0.02369
90.7 -0.01899
90.75 -0.01562
90.8 -0.00806
90.85 0.0016
90.9 0.01046
90.95 0.01704
91 0.01882
91.05 0.01928
91.1 0.01835
91.15 0.02004
91.2 0.01544
91.25 0.01488
91.3 0.01614
91.35 0.01822
91.4 0.01528
91.45 0.01345
91.5 0.00962
91.55 0.00958
91.6 0.01014
91.65 0.01093
91.7 0.01331
91.75 0.01655
91.8 0.01266
91.85 0.01313
91.9 0.01095
91.95 0.00809
92 0.00513
92.05 0.00088
92.1 -0.00564
92.15 -0.00633
92.2 -0.00545
92.25 -0.00709
92.3 -0.01199
92.35 -0.01479
92.4 -0.01625
92.45 -0.01911
92.5 -0.02065
92.55 -0.01701
92.6 -0.01458
92.65 -0.01241
92.7 -0.01355
92.75 -0.01375
92.8 -0.01507
92.85 -0.01671
92.9 -0.02085
92.95 -0.01877
93 -0.01979
93.05 -0.01452
93.1 -0.01041
93.15 -0.00837
93.2 -0.00327
93.25 0.00288
93.3 0.00774
93.35 0.01401
93.4 0.01527
93.45 0.01514
93.5 0.00934
93.55 0.00194
93.6 -0.00125
93.65 -0.00239
93.7 -0.00132
93.75 -0.00287
93.8 -0.00629
93.85 -0.00751
93.9 -0.00448
93.95 -0.00252
94 0.00161
94.05 -0.00013
94.1 -0.00173
94.15 -0.00106
94.2 -0.00035
94.25 -0.00208
94.3 -0.00124
94.35 -0.00514
94.4 -0.0045
94.45 -0.00169
94.5 -0.00382
94.55 -0.00334
94.6 -0.00287
94.65 -0.00348
94.7 -0.00405
94.75 -0.00119
94.8 0.0049
94.85 0.00528
94.9 0.00881
94.95 0.01268
95 0.01852
95.05 0.01604
95.1 0.01735
95.15 0.01639
95.2 0.01603
95.25 0.01537
95.3 0.01703
95.35 0.0166
95.4 0.01523
95.45 0.01597
95.5 0.01438
95.55 0.00899
95.6 0.00431
95.65 0.00273
95.7 -0.00055
95.75 -0.00096
95.8 0.00098
95.85 -0.00141
95.9 -0.00029
95.95 -0.00168
96 -0.00396
96.05 -0.00133
96.1 -0.00111
96.15 -0.00156
96.2 0.00009
96.25 0.00468
96.3 0.0071
96.35 0.00313
96.4 0.00044
96.45 -0.00497
96.5 -0.00956
96.55 -0.01374
96.6 -0.01218
96.65 -0.01334
96.7 -0.0087
96.75 -0.00419
96.8 -0.00079
96.85 0.00071
96.9 0.00015
96.95 -0.00024
97 -0.00451
97.05 -0.00747
97.1 -0.01079
97.15 -0.0118
97.2 -0.01479
97.25 -0.01509
97.3 -0.01094
97.35 -0.01071
97.4 -0.01303
97.45 -0.01124
97.5 -0.0047
97.55 0.00325
97.6 0.0038
97.65 0.00735
97.7 0.00751
97.75 0.008
97.8 0.00983
97.85 0.01073
97.9 0.00814
97.95 0.00291
98 0.00115
98.05 -0.00102
98.1 -0.00266
98.15 -0.00089
98.2 0.00121
98.25 -0.00183
98.3 -0.003
98.35 -0.0076
98.4 -0.01287
98.45 -0.01099
98.5 -0.00783
98.55 -0.00117
98.6 0.00545
98.65 0.0117
98.7 0.01629
98.75 0.01525
98.8 0.01579
98.85 0.01337
98.9 0.00803
98.95 0.00802
99 0.00736
99.05 0.00433
99.1 0.00266
99.15 0.00221
99.2 0.00272
99.25 0.00521
99.3 0.00598
99.35 0.00752
99.4 0.00434
99.45 -0.00053
99.5 -0.00034
99.55 -0.00056
99.6 0.00169
99.65 0.00719
99.7 0.01292
99.75 0.01456
99.8 0.01853
99.85 0.019
99.9 0.01675
99.95 0.01388
