0 0
0.05 0.00842
0.1 0.02074
0.15 0.02909
0.2 0.03552
0.25 0.03891
0.3 0.04219
0.35 0.04595
0.4 0.05075
0.45 0.05469
0.5 0.0546
0.55 0.05427
0.6 0.04948
0.65 0.04732
0.7 0.04922
0.75 0.04733
0.8 0.0485
0.85 0.05049
0.9 0.04781
0.95 0.0492
1 0.0512
1.05 0.04712
1.1 0.04816
1.15 0.05111
1.2 0.05373
1.25 0.05397
1.3 0.04887
1.35 0.04598
1.4 0.04204
1.45 0.03579
1.5 0.03246
1.55 0.02752
1.6 0.02455
1.65 0.02362
1.7 0.0219
1.75 0.02058
1.8 0.01839
1.85 0.01493
1.9 0.01133
1.95 0.01493
2 0.018
2.05 0.01693
2.1 0.01295
2.15 0.01066
2.2 0.00887
2.25 0.00887
2.3 0.01486
2.35 0.0157
2.4 0.01418
2.45 0.01517
2.5 0.0162
2.55 0.01719
2.6 0.0172
2.65 0.02157
2.7 0.02863
2.75 0.03186
2.8 0.03461
2.85 0.03781
2.9 0.03969
2.95 0.04334
3 0.04173
3.05 0.03903
3.1 0.03569
3.15 0.03159
3.2 0.0274
3.25 0.02488
3.3 0.0234
3.35 0.01924
3.4 0.01825
3.45 0.02215
3.5 0.02836
3.55 0.03343
3.6 0.03672
3.65 0.0348
3.7 0.03101
3.75 0.03191
3.8 0.03116
3.85 0.02759
3.9 0.02655
3.95 0.021
4 0.01861
4.05 0.0179
4.1 0.01289
4.15 0.00944
4.2 0.0045
4.25 0.00378
4.3 0.00306
4.35 -0.00102
4.4 -0.00525
4.45 -0.00738
4.5 -0.00896
4.55 -0.00865
4.6 -0.00891
4.65 -0.01383
4.7 -0.02592
4.75 -0.03903
4.8 -0.05085
4.85 -0.06523
4.9 -0.08472
4.95 -0.10641
5 -0.13118
5.05 -0.16277
5.1 -0.19464
5.15 -0.23398
5.2 -0.27363
5.25 -0.3108
5.3 -0.34536
5.35 -0.38292
5.4 -0.42121
5.45 -0.45713
5.5 -0.48939
5.55 -0.52082
5.6 -0.54354
5.65 -0.55828
5.7 -0.56395
5.75 -0.56075
5.8 -0.54986
5.85 -0.5315
5.9 -0.50933
5.95 -0.48183
6 -0.4503
6.05 -0.41191
6.1 -0.36687
6.15 -0.31332
6.2 -0.24949
6.25 -0.17777
6.3 -0.10059
6.35 -0.02909
6.4 0.0439
6.45 0.1161
6.5 0.18576
6.55 0.25027
6.6 0.30814
6.65 0.35939
6.7 0.40423
6.75 0.43658
6.8 0.45743
6.85 0.47476
6.9 0.49207
6.95 0.5036
7 0.5106
7.05 0.5165
7.1 0.51711
7.15 0.51168
7.2 0.50788
7.25 0.50416
7.3 0.49465
7.35 0.48398
7.4 0.47115
7.45 0.45285
7.5 0.43859
7.55 0.42369
7.6 0.41121
7.65 0.39413
7.7 0.37903
7.75 0.36723
7.8 0.35319
7.85 0.33448
7.9 0.31826
7.95 0.29995
8 0.28314
8.05 0.26699
8.1 0.25047
8.15 0.23118
8.2 0.21647
8.25 0.20637
8.3 0.19308
8.35 0.18313
8.4 0.17553
8.45 0.17082
8.5 0.16748
8.55 0.1574
8.6 0.15048
8.65 0.1416
8.7 0.12999
8.75 0.1179
8.8 0.10421
8.85 0.08679
8.9 0.0679
8.95 0.05594
9 0.04434
9.05 0.0315
9.1 0.02087
9.15 0.00789
9.2 -0.00335
9.25 -0.01098
9.3 -0.0141
9.35 -0.02101
9.4 -0.02609
9.45 -0.02673
9.5 -0.02567
9.55 -0.02549
9.6 -0.02772
9.65 -0.02837
9.7 -0.03065
9.75 -0.03703
9.8 -0.04674
9.85 -0.05075
9.9 -0.04977
9.95 -0.05312
10 -0.05544
10.05 -0.05305
10.1 -0.05359
10.15 -0.05105
10.2 -0.05187
10.25 -0.05042
10.3 -0.04833
10.35 -0.04525
10.4 -0.04257
10.45 -0.0409
10.5 -0.04124
10.55 -0.04419
10.6 -0.04371
10.65 -0.04201
10.7 -0.04022
10.75 -0.03653
10.8 -0.03955
10.85 -0.04675
10.9 -0.05485
10.95 -0.0623
11 -0.06844
11.05 -0.07308
11.1 -0.07699
11.15 -0.07526
11.2 -0.07608
11.25 -0.07686
11.3 -0.07761
11.35 -0.07441
11.4 -0.06867
11.45 -0.06558
11.5 -0.06545
11.55 -0.05875
11.6 -0.05656
11.65 -0.05143
11.7 -0.04299
11.75 -0.03631
11.8 -0.03284
11.85 -0.02918
11.9 -0.02856
11.95 -0.02654
12 -0.02793
12.05 -0.03188
12.1 -0.03001
12.15 -0.03173
12.2 -0.03643
12.25 -0.04039
12.3 -0.03966
12.35 -0.04108
12.4 -0.03893
12.45 -0.03979
12.5 -0.03576
12.55 -0.03376
12.6 -0.03005
12.65 -0.02566
12.7 -0.01829
12.75 -0.01234
12.8 -0.00742
12.85 -0.00946
12.9 -0.01341
12.95 -0.01764
13 -0.01945
13.05 -0.01674
13.1 -0.01703
13.15 -0.01817
13.2 -0.01875
13.25 -0.0203
13.3 -0.0194
13.35 -0.01935
13.4 -0.02288
13.45 -0.02748
13.5 -0.02553
13.55 -0.02087
13.6 -0.01843
13.65 -0.01585
13.7 -0.01548
13.75 -0.01669
13.8 -0.0134
13.85 -0.00983
13.9 -0.0085
13.95 -0.01056
14 -0.01659
14.05 -0.01865
14.1 -0.01854
14.15 -0.02118
14.2 -0.02071
14.25 -0.01797
14.3 -0.01499
14.35 -0.01397
14.4 -0.01648
14.45 -0.0211
14.5 -0.01945
14.55 -0.01871
14.6 -0.0179
14.65 -0.01599
14.7 -0.0104
14.75 -0.00903
14.8 -0.01264
14.85 -0.01695
14.9 -0.01569
14.95 -0.01477
15 -0.00977
15.05 -0.00653
15.1 -0.00783
15.15 -0.0071
15.2 -0.01016
15.25 -0.00973
15.3 -0.01235
15.35 -0.01796
15.4 -0.01691
15.45 -0.01944
15.5 -0.02371
15.55 -0.02906
15.6 -0.035
15.65 -0.03712
15.7 -0.03788
15.75 -0.03755
15.8 -0.03022
15.85 -0.02697
15.9 -0.02022
15.95 -0.01584
16 -0.01194
16.05 -0.00527
16.1 0.00112
16.15 0.00239
16.2 -0.00012
16.25 -0.00579
16.3 -0.01243
16.35 -0.01205
16.4 -0.01052
16.45 -0.01023
16.5 -0.01164
16.55 -0.01143
16.6 -0.01386
16.65 -0.01128
16.7 -0.00592
16.75 -0.00481
16.8 -0.00546
16.85 -0.00131
16.9 -0.00106
16.95 0.00007
17 0.00141
17.05 0.00572
17.1 0.01068
17.15 0.00861
17.2 0.00587
17.25 0.00095
17.3 0.00152
17.35 0.00566
17.4 0.00395
17.45 0.00114
17.5 -0.00102
17.55 -0.00242
17.6 -0.00347
17.65 -0.00361
17.7 -0.00267
17.75 0.00054
17.8 0.00207
17.85 -0.00157
17.9 -0.00795
17.95 -0.00918
18 -0.01334
18.05 -0.01083
18.1 -0.00638
18.15 -0.00157
18.2 0.00493
18.25 0.00921
18.3 0.00703
18.35 0.00531
18.4 0.00053
18.45 -0.00355
18.5 -0.00515
18.55 -0.00461
18.6 -0.00789
18.65 -0.00798
18.7 -0.01197
18.75 -0.00935
18.8 -0.00697
18.85 -0.00683
18.9 -0.00177
18.95 0.00435
19 0.00359
19.05 0.00126
19.1 -0.00114
19.15 0.00052
19.2 -0.00149
19.25 -0.00585
19.3 -0.0125
19.35 -0.0125
19.4 -0.00819
19.45 -0.00671
19.5 -0.00183
19.55 0.00363
19.6 0.0094
19.65 0.01295
19.7 0.01048
19.75 0.00818
19.8 0.00892
19.85 0.00929
19.9 0.01161
19.95 0.01267
20 0.01488
20.05 0.01791
20.1 0.01881
20.15 0.01483
20.2 0.01507
20.25 0.00914
20.3 0.00199
20.35 -0.00572
20.4 -0.00678
20.45 -0.0047
20.5 -0.00158
20.55 -0.00255
20.6 -0.0028
20.65 -0.00494
20.7 -0.00724
20.75 -0.00765
20.8 -0.00733
20.85 -0.00257
20.9 0.00346
20.95 0.00383
21 0.00099
21.05 0.00079
21.1 -0.00191
21.15 -0.00549
21.2 -0.00376
21.25 -0.00556
21.3 -0.00923
21.35 -0.01435
21.4 -0.01317
21.45 -0.00881
21.5 -0.00491
21.55 -0.00112
21.6 -0.00074
21.65 0.00038
21.7 -0.00154
21.75 -0.00316
21.8 -0.0058
21.85 -0.00989
21.9 -0.01462
21.95 -0.01929
22 -0.01636
22.05 -0.01334
22.1 -0.00847
22.15 -0.00597
22.2 -0.00465
22.25 -0.00773
22.3 -0.00922
22.35 -0.01095
22.4 -0.00915
22.45 -0.00289
22.5 -0.00167
22.55 -0.00003
22.6 0.0002
22.65 -0.00298
22.7 -0.00051
22.75 -0.00027
22.8 -0.00132
22.85 -0.00185
22.9 -0.00589
22.95 -0.00398
23 -0.00544
23.05 -0.00996
23.1 -0.01462
23.15 -0.01826
23.2 -0.01692
23.25 -0.01084
23.3 -0.0021
23.35 0.00368
23.4 0.00263
23.45 0.00434
23.5 0.00935
23.55 0.00912
23.6 0.00644
23.65 0.00042
23.7 -0.00623
23.75 -0.01218
23.8 -0.01741
23.85 -0.01953
23.9 -0.0165
23.95 -0.01077
24 -0.00957
24.05 -0.00399
24.1 0.00298
24.15 0.00642
24.2 0.00584
24.25 0.00719
24.3 0.0105
24.35 0.01369
24.4 0.01901
24.45 0.02421
24.5 0.02731
24.55 0.0226
24.6 0.01662
24.65 0.00861
24.7 0.0018
24.75 -0.00117
24.8 -0.00122
24.85 -0.00356
24.9 -0.00754
24.95 -0.01071
25 -0.01324
25.05 -0.01484
25.1 -0.0137
25.15 -0.01407
25.2 -0.0149
25.25 -0.0165
25.3 -0.01305
25.35 -0.01216
25.4 -0.01418
25.45 -0.01708
25.5 -0.02085
25.55 -0.02368
25.6 -0.02588
25.65 -0.02684
25.7 -0.02378
25.75 -0.02202
25.8 -0.01706
25.85 -0.01286
25.9 -0.00598
25.95 0.00058
26 0.00784
26.05 0.01671
26.1 0.02263
26.15 0.02602
26.2 0.02342
26.25 0.01872
26.3 0.01814
26.35 0.01872
26.4 0.02159
26.45 0.01873
26.5 0.01914
26.55 0.01694
26.6 0.01734
26.65 0.0204
26.7 0.0241
26.75 0.02313
26.8 0.01886
26.85 0.01264
26.9 0.00659
26.95 0.00074
27 0.00103
27.05 0.00106
27.1 -0.00244
27.15 -0.0093
27.2 -0.00921
27.25 -0.00732
27.3 -0.00835
27.35 -0.00663
27.4 -0.00802
27.45 -0.0076
27.5 -0.00895
27.55 -0.00897
27.6 -0.00913
27.65 -0.01463
27.7 -0.02387
27.75 -0.02955
27.8 -0.04162
27.85 -0.05343
27.9 -0.06712
27.95 -0.08626
28 -0.10779
28.05 -0.13066
28.1 -0.15277
28.15 -0.17356
28.2 -0.19962
28.25 -0.23228
28.3 -0.26897
28.35 -0.31271
28.4 -0.3553
28.45 -0.39737
28.5 -0.44758
28.55 -0.50252
28.6 -0.56081
28.65 -0.62509
28.7 -0.69443
28.75 -0.77318
28.8 -0.86051
28.85 -0.95184
28.9 -1.04859
28.95 -1.15009
29 -1.25626
29.05 -1.35708
29.1 -1.45588
29.15 -1.55689
29.2 -1.65574
29.25 -1.75494
29.3 -1.84434
29.35 -1.93312
29.4 -2.01548
29.45 -2.08684
29.5 -2.14941
29.55 -2.20175
29.6 -2.24286
29.65 -2.27305
29.7 -2.2963
29.75 -2.30637
29.8 -2.30505
29.85 -2.28513
29.9 -2.25203
29.95 -2.20225
30 -2.13891
30.05 -2.0649
30.1 -1.97807
30.15 -1.87994
30.2 -1.77309
30.25 -1.66034
30.3 -1.53719
30.35 -1.40977
30.4 -1.27195
30.45 -1.12646
30.5 -0.97997
30.55 -0.83175
30.6 -0.67688
30.65 -0.5202
30.7 -0.36726
30.75 -0.21381
30.8 -0.06493
30.85 0.08214
30.9 0.2259
30.95 0.36232
31 0.49389
31.05 0.6202
31.1 0.7446
31.15 0.86738
31.2 0.98532
31.25 1.09504
31.3 1.19432
31.35 1.2897
31.4 1.37244
31.45 1.44612
31.5 1.51361
31.55 1.57815
31.6 1.63616
31.65 1.68227
31.7 1.72584
31.75 1.76792
31.8 1.80483
31.85 1.83108
31.9 1.85133
31.95 1.86412
32 1.87429
32.05 1.88231
32.1 1.8899
32.15 1.89803
32.2 1.90524
32.25 1.91123
32.3 1.91376
32.35 1.91168
32.4 1.90976
32.45 1.90354
32.5 1.89297
32.55 1.87707
32.6 1.86424
32.65 1.84527
32.7 1.83087
32.75 1.81523
32.8 1.79904
32.85 1.77991
32.9 1.75989
32.95 1.7405
33 1.71923
33.05 1.69746
33.1 1.67247
33.15 1.63833
33.2 1.59709
33.25 1.55775
33.3 1.5168
33.35 1.47143
33.4 1.42777
33.45 1.38793
33.5 1.34879
33.55 1.30931
33.6 1.26753
33.65 1.2204
33.7 1.17422
33.75 1.12508
33.8 1.08076
33.85 1.03653
33.9 0.99245
33.95 0.95161
34 0.90925
34.05 0.86543
34.1 0.81981
34.15 0.77419
34.2 0.72771
34.25 0.68306
34.3 0.6431
34.35 0.59919
34.4 0.55861
34.45 0.5155
34.5 0.47187
34.55 0.43396
34.6 0.40153
34.65 0.36596
34.7 0.32835
34.75 0.29575
34.8 0.26087
34.85 0.22402
34.9 0.1946
34.95 0.16913
35 0.14193
35.05 0.11284
35.1 0.08711
35.15 0.06076
35.2 0.03418
35.25 0.00751
35.3 -0.01299
35.35 -0.02978
35.4 -0.04996
35.45 -0.06927
35.5 -0.09072
35.55 -0.10957
35.6 -0.13091
35.65 -0.1515
35.7 -0.16512
35.75 -0.17564
35.8 -0.18932
35.85 -0.2001
35.9 -0.20826
35.95 -0.21998
36 -0.23302
36.05 -0.24176
36.1 -0.25501
36.15 -0.26903
36.2 -0.27756
36.25 -0.28265
36.3 -0.29081
36.35 -0.29622
36.4 -0.3017
36.45 -0.30303
36.5 -0.30514
36.55 -0.30369
36.6 -0.30223
36.65 -0.30517
36.7 -0.30946
36.75 -0.31521
36.8 -0.32371
36.85 -0.32954
36.9 -0.33407
36.95 -0.33383
37 -0.32904
37.05 -0.32722
37.1 -0.32581
37.15 -0.32657
37.2 -0.32548
37.25 -0.31984
37.3 -0.31866
37.35 -0.31492
37.4 -0.30793
37.45 -0.30339
37.5 -0.2969
37.55 -0.29005
37.6 -0.28915
37.65 -0.29057
37.7 -0.28979
37.75 -0.28937
37.8 -0.28873
37.85 -0.28736
37.9 -0.28711
37.95 -0.28293
38 -0.27768
38.05 -0.27669
38.1 -0.27791
38.15 -0.27849
38.2 -0.27688
38.25 -0.27086
38.3 -0.27026
38.35 -0.27049
38.4 -0.26563
38.45 -0.26231
38.5 -0.26066
38.55 -0.25356
38.6 -0.25112
38.65 -0.2453
38.7 -0.24423
38.75 -0.24301
38.8 -0.23941
38.85 -0.23101
38.9 -0.22872
38.95 -0.22149
39 -0.21339
39.05 -0.20815
39.1 -0.2004
39.15 -0.1938
39.2 -0.19194
39.25 -0.19303
39.3 -0.18985
39.35 -0.1855
39.4 -0.18564
39.45 -0.18873
39.5 -0.19096
39.55 -0.19128
39.6 -0.18751
39.65 -0.18615
39.7 -0.18142
39.75 -0.17333
39.8 -0.16526
39.85 -0.1598
39.9 -0.15784
39.95 -0.15924
40 -0.15707
40.05 -0.15255
40.1 -0.1462
40.15 -0.14259
40.2 -0.14118
40.25 -0.13732
40.3 -0.13339
40.35 -0.12946
40.4 -0.12641
40.45 -0.12967
40.5 -0.13069
40.55 -0.13589
40.6 -0.13518
40.65 -0.13166
40.7 -0.13051
40.75 -0.12997
40.8 -0.12543
40.85 -0.12515
40.9 -0.12024
40.95 -0.11799
41 -0.11496
41.05 -0.11059
41.1 -0.10574
41.15 -0.1001
41.2 -0.09898
41.25 -0.10316
41.3 -0.10164
41.35 -0.10306
41.4 -0.10519
41.45 -0.10919
41.5 -0.11367
41.55 -0.11508
41.6 -0.11538
41.65 -0.11413
41.7 -0.11352
41.75 -0.11369
41.8 -0.11207
41.85 -0.1121
41.9 -0.10866
41.95 -0.10636
42 -0.10069
42.05 -0.09768
42.1 -0.09114
42.15 -0.08608
42.2 -0.08227
42.25 -0.08227
42.3 -0.08465
42.35 -0.0848
42.4 -0.0877
42.45 -0.08464
42.5 -0.08107
42.55 -0.08115
42.6 -0.08381
42.65 -0.08661
42.7 -0.08869
42.75 -0.09117
42.8 -0.09049
42.85 -0.08738
42.9 -0.0797
42.95 -0.06949
43 -0.0625
43.05 -0.05345
43.1 -0.04386
43.15 -0.0387
43.2 -0.03886
43.25 -0.0404
43.3 -0.04049
43.35 -0.04153
43.4 -0.042
43.45 -0.04391
43.5 -0.04617
43.55 -0.04632
43.6 -0.04537
43.65 -0.04058
43.7 -0.03905
43.75 -0.04161
43.8 -0.0401
43.85 -0.03681
43.9 -0.03751
43.95 -0.0394
44 -0.03792
44.05 -0.03381
44.1 -0.03231
44.15 -0.02779
44.2 -0.02654
44.25 -0.02509
44.3 -0.02478
44.35 -0.02423
44.4 -0.0241
44.45 -0.0225
44.5 -0.0206
44.55 -0.01812
44.6 -0.01595
44.65 -0.01518
44.7 -0.01891
44.75 -0.02574
44.8 -0.03365
44.85 -0.03787
44.9 -0.03714
44.95 -0.03602
45 -0.03686
45.05 -0.03438
45.1 -0.03555
45.15 -0.03546
45.2 -0.03954
45.25 -0.04111
45.3 -0.04595
45.35 -0.04668
45.4 -0.04964
45.45 -0.04884
45.5 -0.04474
45.55 -0.03918
45.6 -0.03165
45.65 -0.0298
45.7 -0.02565
45.75 -0.0229
45.8 -0.02301
45.85 -0.01908
45.9 -0.0139
45.95 -0.00811
46 -0.00824
46.05 -0.00709
46.1 -0.00604
46.15 -0.00493
46.2 -0.00161
46.25 0.00091
46.3 -0.00167
46.35 -0.00686
46.4 -0.0114
46.45 -0.01346
46.5 -0.01327
46.55 -0.01229
46.6 -0.01184
46.65 -0.00853
46.7 -0.00373
46.75 -0.00016
46.8 -0.00199
46.85 -0.00451
46.9 -0.00991
46.95 -0.01194
47 -0.01398
47.05 -0.01189
47.1 -0.01102
47.15 -0.0158
47.2 -0.02066
47.25 -0.01956
47.3 -0.02103
47.35 -0.02197
47.4 -0.02701
47.45 -0.02856
47.5 -0.0255
47.55 -0.02037
47.6 -0.01947
47.65 -0.01543
47.7 -0.01592
47.75 -0.01748
47.8 -0.02276
47.85 -0.02376
47.9 -0.01968
47.95 -0.01516
48 -0.01257
48.05 -0.01422
48.1 -0.01326
48.15 -0.01452
48.2 -0.01482
48.25 -0.01345
48.3 -0.0153
48.35 -0.02099
48.4 -0.02718
48.45 -0.03245
48.5 -0.03853
48.55 -0.04407
48.6 -0.04879
48.65 -0.04959
48.7 -0.04461
48.75 -0.0343
48.8 -0.02654
48.85 -0.02147
48.9 -0.0137
48.95 -0.00709
49 -0.00055
49.05 0.00646
49.1 0.00713
49.15 0.00967
49.2 0.00845
49.25 0.00241
49.3 -0.00596
49.35 -0.01372
49.4 -0.01504
49.45 -0.01741
49.5 -0.01712
49.55 -0.01493
49.6 -0.01555
49.65 -0.01104
49.7 -0.00639
49.75 -0.00353
49.8 -0.00112
49.85 0.00029
49.9 -0.00279
49.95 -0.00358
50 -0.00789
50.05 -0.01308
50.1 -0.02049
50.15 -0.02182
50.2 -0.02243
50.25 -0.01805
50.3 -0.01468
50.35 -0.01507
50.4 -0.01698
50.45 -0.01729
50.5 -0.01408
50.55 -0.00903
50.6 -0.00483
50.65 -0.00241
50.7 -0.00561
50.75 -0.00355
50.8 -0.00682
50.85 -0.01001
50.9 -0.00825
50.95 -0.00793
51 -0.01086
51.05 -0.01383
51.1 -0.01205
51.15 -0.00678
51.2 -0.00136
51.25 0.00303
51.3 0.00495
51.35 0.00623
51.4 0.00528
51.45 0.00109
51.5 -0.00307
51.55 -0.00948
51.6 -0.01318
51.65 -0.01563
51.7 -0.01688
51.75 -0.01957
51.8 -0.02198
51.85 -0.01808
51.9 -0.01513
51.95 -0.01135
52 -0.00482
52.05 -0.00157
52.1 -0.00145
52.15 0.00277
52.2 0.00713
52.25 0.01058
52.3 0.01066
52.35 0.00814
52.4 0.0023
52.45 -0.00586
52.5 -0.00752
52.55 -0.00839
52.6 -0.00832
52.65 -0.00585
52.7 -0.0049
52.75 -0.00417
52.8 -0.00763
52.85 -0.00779
52.9 -0.00425
52.95 -0.00485
53 -0.00542
53.05 -0.0086
53.1 -0.0084
53.15 -0.00739
53.2 -0.00949
53.25 -0.01398
53.3 -0.01795
53.35 -0.01666
53.4 -0.01397
53.45 -0.01298
53.5 -0.00961
53.55 -0.0067
53.6 -0.00753
53.65 -0.00346
53.7 -0.00062
53.75 -0.00002
53.8 -0.00342
53.85 -0.00294
53.9 0.00036
53.95 0.00243
54 0.00363
54.05 0.00696
54.1 0.0053
54.15 0.00262
54.2 -0.00373
54.25 -0.00666
54.3 -0.00417
54.35 -0.00471
54.4 -0.00834
54.45 -0.01262
54.5 -0.01613
54.55 -0.01899
54.6 -0.01667
54.65 -0.0099
54.7 -0.00515
54.75 -0.00392
54.8 -0.00374
54.85 -0.00354
54.9 -0.00356
54.95 0.0006
55 -0.00048
55.05 0.00231
55.1 0.00535
55.15 0.00318
55.2 0.00469
55.25 0.00243
55.3 0.00233
55.35 0.0049
55.4 0.0045
55.45 0.00593
55.5 0.0031
55.55 0.00216
55.6 -0.00112
55.65 -0.00236
55.7 -0.00339
55.75 -0.00272
55.8 -0.00093
55.85 0.00278
55.9 0.0015
55.95 -0.0032
56 -0.00902
56.05 -0.00921
56.1 -0.00988
56.15 -0.00637
56.2 -0.00047
56.25 0.00018
56.3 0.00261
56.35 0.00723
56.4 0.00523
56.45 0.00181
56.5 -0.00095
56.55 -0.0046
56.6 -0.00226
56.65 0.00036
56.7 -0.00076
56.75 0.00127
56.8 -0.00153
56.85 -0.00084
56.9 -0.00314
56.95 -0.00026
57 0.00156
57.05 -0.00133
57.1 -0.00464
57.15 -0.00516
57.2 -0.00608
57.25 -0.00255
57.3 -0.0027
57.35 -0.00416
57.4 -0.00768
57.45 -0.00925
57.5 -0.00575
57.55 -0.00746
57.6 -0.01173
57.65 -0.01271
57.7 -0.01604
57.75 -0.01829
57.8 -0.01545
57.85 -0.01458
57.9 -0.01514
57.95 -0.01018
58 -0.00406
58.05 0.00352
58.1 0.00457
58.15 0.00286
58.2 -0.00229
58.25 -0.00082
58.3 -0.0025
58.35 -0.00211
58.4 0.00285
58.45 0.00697
58.5 0.01139
58.55 0.01411
58.6 0.01869
58.65 0.01563
58.7 0.00838
58.75 0.00256
58.8 -0.00468
58.85 -0.00912
58.9 -0.01434
58.95 -0.01758
59 -0.01774
59.05 -0.01753
59.1 -0.01778
59.15 -0.02069
59.2 -0.02028
59.25 -0.01724
59.3 -0.01075
59.35 -0.00316
59.4 0.00533
59.45 0.0065
59.5 0.01053
59.55 0.01526
59.6 0.01811
59.65 0.02285
59.7 0.02545
59.75 0.02755
59.8 0.02948
59.85 0.02843
59.9 0.0225
59.95 0.02025
60 0.01866
60.05 0.01214
60.1 0.00788
60.15 0.00189
60.2 -0.00472
60.25 -0.00555
60.3 -0.00253
60.35 -0.00156
60.4 0.00195
60.45 0.0082
60.5 0.01454
60.55 0.01907
60.6 0.02424
60.65 0.02552
60.7 0.02702
60.75 0.02473
60.8 0.02175
60.85 0.01746
60.9 0.01015
60.95 0.0074
61 0.00093
61.05 0.00095
61.1 -0.00021
61.15 0.0013
61.2 -0.00131
61.25 -0.00194
61.3 -0.00671
61.35 -0.01199
61.4 -0.01753
61.45 -0.01853
61.5 -0.01884
61.55 -0.02202
61.6 -0.02375
61.65 -0.02758
61.7 -0.02979
61.75 -0.02523
61.8 -0.01939
61.85 -0.01344
61.9 -0.01019
61.95 -0.00283
62 0.00239
62.05 0.00176
62.1 0.00371
62.15 0.00034
62.2 -0.0002
62.25 -0.00335
62.3 -0.00759
62.35 -0.01065
62.4 -0.01216
62.45 -0.01475
62.5 -0.01655
62.55 -0.01699
62.6 -0.0175
62.65 -0.01902
62.7 -0.02087
62.75 -0.02157
62.8 -0.02194
62.85 -0.01936
62.9 -0.01563
62.95 -0.00878
63 0.00101
63.05 0.00979
63.1 0.01867
63.15 0.02667
63.2 0.03214
63.25 0.03163
63.3 0.02824
63.35 0.02121
63.4 0.0153
63.45 0.01407
63.5 0.01432
63.55 0.01708
63.6 0.02075
63.65 0.02444
63.7 0.02391
63.75 0.0231
63.8 0.02462
63.85 0.02164
63.9 0.01414
63.95 0.01032
64 0.00738
64.05 0.00343
64.1 -0.00008
64.15 -0.00502
64.2 -0.00976
64.25 -0.01545
64.3 -0.01737
64.35 -0.01401
64.4 -0.009
64.45 -0.00766
64.5 -0.00682
64.55 -0.01009
64.6 -0.01273
64.65 -0.01252
64.7 -0.01397
64.75 -0.01755
64.8 -0.01507
64.85 -0.0092
64.9 -0.00068
64.95 0.00675
65 0.01052
65.05 0.00996
65.1 0.01092
65.15 0.00759
65.2 0.00753
65.25 0.0031
65.3 0.00202
65.35 0.00285
65.4 -0.00148
65.45 -0.00402
65.5 -0.00866
65.55 -0.01551
65.6 -0.01534
65.65 -0.01518
65.7 -0.01445
65.75 -0.01052
65.8 -0.00949
65.85 -0.00939
65.9 -0.01313
65.95 -0.01543
66 -0.01551
66.05 -0.01086
66.1 -0.00895
66.15 -0.00816
66.2 -0.00672
66.25 -0.00276
66.3 0.00259
66.35 0.0064
66.4 0.01026
66.45 0.00748
66.5 0.00328
66.55 -0.00035
66.6 -0.00719
66.65 -0.01258
66.7 -0.01567
66.75 -0.01499
66.8 -0.01774
66.85 -0.01879
66.9 -0.015
66.95 -0.01327
67 -0.01041
67.05 -0.00884
67.1 -0.00782
67.15 -0.00542
67.2 -0.00478
67.25 -0.00684
67.3 -0.01178
67.35 -0.01411
67.4 -0.01462
67.45 -0.01391
67.5 -0.00773
67.55 -0.00056
67.6 0.00008
67.65 -0.00333
67.7 -0.00058
67.75 -0.00002
67.8 0.00338
67.85 0.00631
67.9 0.00434
67.95 0.00421
68 0.00545
68.05 0.00541
68.1 0.0025
68.15 0.00154
68.2 -0.00243
68.25 -0.00511
68.3 -0.00574
68.35 -0.00358
68.4 -0.00356
68.45 -0.00751
68.5 -0.00627
68.55 -0.00609
68.6 -0.00645
68.65 -0.00377
68.7 0.00229
68.75 0.00613
68.8 0.01108
68.85 0.00933
68.9 0.01123
68.95 0.00922
69 0.00516
69.05 0.00157
69.1 0.00159
69.15 0.00579
69.2 0.00379
69.25 0.00072
69.3 -0.00121
69.35 0.00026
69.4 0.00502
69.45 0.00519
69.5 0.00941
69.55 0.00776
69.6 0.00861
69.65 0.00546
69.7 0.00322
69.75 0.00529
69.8 0.00949
69.85 0.01415
69.9 0.01292
69.95 0.0095
70 0.0054
70.05 -0.00029
70.1 -0.00647
70.15 -0.00987
70.2 -0.01403
70.25 -0.01444
70.3 -0.01316
70.35 -0.00726
70.4 0.00163
70.45 0.00979
70.5 0.01221
70.55 0.00882
70.6 0.00411
70.65 -0.00284
70.7 -0.00644
70.75 -0.00629
70.8 -0.00202
70.85 -0.00282
70.9 -0.00199
70.95 -0.0034
71 -0.00481
71.05 -0.00112
71.1 0.00459
71.15 0.00928
71.2 0.0113
71.25 0.012
71.3 0.00919
71.35 0.00825
71.4 0.0027
71.45 -0.00183
71.5 -0.00612
71.55 -0.01096
71.6 -0.01034
71.65 -0.00574
71.7 -0.00555
71.75 -0.00911
71.8 -0.00712
71.85 -0.00067
71.9 -0.00103
71.95 -0.00144
72 0.00108
72.05 -0.00172
72.1 -0.00177
72.15 -0.00589
72.2 -0.00437
72.25 -0.00742
72.3 -0.01302
72.35 -0.01712
72.4 -0.01905
72.45 -0.01511
72.5 -0.01553
72.55 -0.00986
72.6 -0.00495
72.65 0.00145
72.7 0.00659
72.75 0.00991
72.8 0.01161
72.85 0.00852
72.9 0.00221
72.95 -0.00194
73 -0.00512
73.05 -0.00613
73.1 -0.00958
73.15 -0.01261
73.2 -0.01557
73.25 -0.01857
73.3 -0.02184
73.35 -0.02202
73.4 -0.01742
73.45 -0.01611
73.5 -0.01503
73.55 -0.01482
73.6 -0.01027
73.65 -0.00299
73.7 0.00474
73.75 0.00881
73.8 0.01365
73.85 0.01448
73.9 0.0167
73.95 0.01954
74 0.01993
74.05 0.02021
74.1 0.0199
74.15 0.01967
74.2 0.01507
74.25 0.00959
74.3 0.00577
74.35 0.00312
74.4 -0.00213
74.45 -0.0095
74.5 -0.00973
74.55 -0.00453
74.6 0.0034
74.65 0.00703
74.7 0.0131
74.75 0.01589
74.8 0.02063
74.85 0.02587
74.9 0.02338
74.95 0.01587
75 0.00885
75.05 0.00787
75.1 0.00567
75.15 0.00537
75.2 0.00201
75.25 0.00127
75.3 0.00379
75.35 0.00245
75.4 -0.00231
75.45 -0.00776
75.5 -0.01134
75.55 -0.01595
75.6 -0.01845
75.65 -0.01746
75.7 -0.01085
75.75 -0.00309
75.8 -0.00128
75.85 0.00277
75.9 0.00508
75.95 0.00976
76 0.01059
76.05 0.00789
76.1 0.00654
76.15 0.00899
76.2 0.00934
76.25 0.01177
76.3 0.00887
76.35 0.00721
76.4 0.00537
76.45 0.00278
76.5 -0.00067
76.55 -0.00102
76.6 -0.00386
76.65 -0.00253
76.7 0.00024
76.75 0.00565
76.8 0.01015
76.85 0.01071
76.9 0.00641
76.95 0.00591
77 0.00489
77.05 0.00112
77.1 -0.00069
77.15 -0.0058
77.2 -0.00422
77.25 -0.00753
77.3 -0.01017
77.35 -0.01368
77.4 -0.01359
77.45 -0.01359
77.5 -0.01307
77.55 -0.01538
77.6 -0.01232
77.65 -0.00888
77.7 -0.00644
77.75 -0.00408
77.8 -0.00381
77.85 -0.0001
77.9 0.00241
77.95 0.00492
78 0.00766
78.05 0.0071
78.1 0.0032
78.15 -0.00324
78.2 -0.00344
78.25 -0.00422
78.3 -0.00415
78.35 -0.00654
78.4 -0.00489
78.45 -0.00302
78.5 -0.00144
78.55 0.00334
78.6 0.00739
78.65 0.00628
78.7 0.00447
78.75 0.00497
78.8 0.00376
78.85 0.00152
78.9 0.00098
78.95 0.00363
79 0.0016
79.05 0.00309
79.1 0.00007
79.15 -0.0045
79.2 -0.00481
79.25 -0.00545
79.3 -0.00851
79.35 -0.01405
79.4 -0.01457
79.45 -0.01217
79.5 -0.00793
79.55 -0.00782
79.6 -0.00363
79.65 -0.0011
79.7 0.00112
79.75 -0.0012
79.8 -0.00113
79.85 0.00341
79.9 0.00413
79.95 0.00876
80 0.01084
80.05 0.00961
80.1 0.01083
80.15 0.01239
80.2 0.0164
80.25 0.01419
80.3 0.00935
80.35 0.00835
80.4 0.00975
80.45 0.01407
80.5 0.01498
80.55 0.01539
80.6 0.01192
80.65 0.00657
80.7 0.00663
80.75 0.01009
80.8 0.01375
80.85 0.01212
80.9 0.01193
80.95 0.0104
81 0.01025
81.05 0.00898
81.1 0.00376
81.15 -0.00365
81.2 -0.00859
81.25 -0.00961
81.3 -0.00559
81.35 -0.00415
81.4 0.00023
81.45 0.00586
81.5 0.00504
81.55 0.00428
81.6 0.00708
81.65 0.00367
81.7 0.00251
81.75 -0.00008
81.8 -0.00239
81.85 -0.00184
81.9 -0.00269
81.95 -0.00757
82 -0.00839
82.05 -0.00908
82.1 -0.01236
82.15 -0.01003
82.2 -0.01158
82.25 -0.01291
82.3 -0.01332
82.35 -0.00978
82.4 -0.00451
82.45 0.00185
82.5 0.00282
82.55 0.00619
82.6 0.00427
82.65 0.00205
82.7 0.00314
82.75 0.00631
82.8 0.00812
82.85 0.0071
82.9 0.00663
82.95 0.00286
83 -0.00447
83.05 -0.01322
83.1 -0.0168
83.15 -0.01607
83.2 -0.0143
83.25 -0.01284
83.3 -0.0127
83.35 -0.00969
83.4 -0.01076
83.45 -0.00986
83.5 -0.00994
83.55 -0.00876
83.6 -0.01105
83.65 -0.00994
83.7 -0.0107
83.75 -0.00792
83.8 -0.00292
83.85 0.00084
83.9 0.00282
83.95 0.0035
84 0.00129
84.05 -0.00306
84.1 -0.00243
84.15 -0.00368
84.2 -0.00736
84.25 -0.00771
84.3 -0.00325
84.35 -0.00401
84.4 0.00011
84.45 0.00556
84.5 0.01251
84.55 0.01832
84.6 0.02261
84.65 0.02125
84.7 0.01496
84.75 0.01301
84.8 0.00749
84.85 -0.00115
84.9 -0.00992
84.95 -0.01746
85 -0.0245
85.05 -0.03006
85.1 -0.03302
85.15 -0.02803
85.2 -0.02562
85.25 -0.02513
85.3 -0.02048
85.35 -0.01157
85.4 -0.00818
85.45 -0.00437
85.5 -0.00577
85.55 -0.00668
85.6 -0.00722
85.65 -0.0065
85.7 -0.0054
85.75 -0.00133
85.8 0.00124
85.85 0.00427
85.9 0.01052
85.95 0.01588
86 0.0177
86.05 0.01433
86.1 0.00848
86.15 0.00294
86.2 -0.00229
86.25 -0.00829
86.3 -0.00813
86.35 -0.00807
86.4 -0.00377
86.45 0.00115
86.5 0.00719
86.55 0.00608
86.6 0.00692
86.65 0.00935
86.7 0.01103
86.75 0.00916
86.8 0.00379
86.85 -0.00307
86.9 -0.00998
86.95 -0.0109
87 -0.00814
87.05 -0.00498
87.1 -0.00456
87.15 0.00063
87.2 0.00214
87.25 0.00208
87.3 -0.00104
87.35 0.00093
87.4 0.00318
87.45 0.00027
87.5 0.00302
87.55 0.00341
87.6 0.00101
87.65 -0.00192
87.7 -0.00341
87.75 -0.00754
87.8 -0.01153
87.85 -0.01087
87.9 -0.00808
87.95 -0.0094
88 -0.009
88.05 -0.00719
88.1 -0.0056
88.15 -0.0032
88.2 -0.00453
88.25 -0.00232
88.3 0.00225
88.35 0.00414
88.4 0.00361
88.45 0.00415
88.5 0.00373
88.55 0.00238
88.6 -0.00066
88.65 0.00064
88.7 0.00312
88.75 0.00307
88.8 -0.0005
88.85 -0.0049
88.9 -0.00265
88.95 0.0024
89 0.00568
89.05 0.00667
89.1 0.00279
89.15 -0.00162
89.2 -0.00275
89.25 -0.00317
89.3 0.00056
89.35 0.00602
89.4 0.00621
89.45 0.01042
89.5 0.01456
89.55 0.0193
89.6 0.02448
89.65 0.02236
89.7 0.01632
89.75 0.00899
89.8 0.00593
89.85 0.00102
89.9 0.00047
89.95 0.00097
90 0.00259
90.05 0.00754
90.1 0.00891
90.15 0.00735
90.2 0.00859
90.25 0.00726
90.3 0.00561
90.35 -0.00046
90.4 -0.00853
90.45 -0.01611
90.5 -0.02204
90.55 -0.02076
90.6 -0.01951
90.65 -0.01762
90.7 -0.0183
90.75 -0.01479
90.8 -0.01386
90.85 -0.013
90.9 -0.00824
90.95 -0.00753
91 -0.00216
91.05 -0.00278
91.1 0.00053
91.15 0.00724
91.2 0.00642
91.25 0.006
91.3 0.00823
91.35 0.00698
91.4 0.00617
91.45 0.00574
91.5 0.00163
91.55 -0.00133
91.6 -0.00717
91.65 -0.01184
91.7 -0.01825
91.75 -0.02368
91.8 -0.02164
91.85 -0.01961
91.9 -0.01652
91.95 -0.01266
92 -0.01324
92.05 -0.0091
92.1 -0.00306
92.15 0.00283
92.2 0.00766
92.25 0.00842
92.3 0.00459
92.35 0.00125
92.4 0.00202
92.45 0.00122
92.5 0.00449
92.55 0.01053
92.6 0.01008
92.65 0.00597
92.7 0.00375
92.75 0.00015
92.8 -0.00145
92.85 -0.00325
92.9 -0.00039
92.95 0.00516
93 0.01139
93.05 0.0154
93.1 0.01903
93.15 0.0238
93.2 0.02417
93.25 0.02634
93.3 0.02739
93.35 0.0273
93.4 0.02192
93.45 0.01318
93.5 0.01063
93.55 0.00652
93.6 -0.00081
93.65 -0.00221
93.7 -0.00189
93.75 -0.00213
93.8 -0.00305
93.85 -0.00533
93.9 -0.00268
93.95 -0.00477
94 -0.00907
94.05 -0.0137
94.1 -0.01356
94.15 -0.00892
94.2 -0.00572
94.25 -0.00451
94.3 -0.00003
94.35 0.00328
94.4 0.00841
94.45 0.00923
94.5 0.01273
94.55 0.01719
94.6 0.01528
94.65 0.01611
94.7 0.01855
94.75 0.01975
94.8 0.02101
94.85 0.02277
94.9 0.02497
94.95 0.02782
95 0.02302
95.05 0.01356
95.1 0.00886
95.15 0.00848
95.2 0.00706
95.25 0.00165
95.3 0.00143
95.35 0.00315
95.4 -0.00058
95.45 -0.00033
95.5 -0.00213
95.55 -0.00216
95.6 -0.00193
95.65 -0.00032
95.7 -0.0032
95.75 -0.00667
95.8 -0.00434
95.85 -0.00693
95.9 -0.01288
95.95 -0.01533
96 -0.01308
96.05 -0.01182
96.1 -0.00699
96.15 -0.00647
96.2 -0.00546
96.25 -0.00796
96.3 -0.01244
96.35 -0.01363
96.4 -0.01387
96.45 -0.01078
96.5 -0.00717
96.55 -0.00104
96.6 0.00701
96.65 0.01581
96.7 0.01657
96.75 0.0127
96.8 0.01168
96.85 0.01062
96.9 0.0124
96.95 0.01616
97 0.02036
97.05 0.02023
97.1 0.01812
97.15 0.01372
97.2 0.01319
97.25 0.01461
97.3 0.01454
97.35 0.01319
97.4 0.01502
97.45 0.01886
97.5 0.02017
97.55 0.02257
97.6 0.01851
97.65 0.01216
97.7 0.01035
97.75 0.01172
97.8 0.01522
97.85 0.0118
97.9 0.00354
97.95 0.00107
98 0.00284
98.05 0.00187
98.1 0.00459
98.15 0.00196
98.2 -0.00379
98.25 -0.00403
98.3 -0.00036
98.35 -0.0002
98.4 -0.00132
98.45 -0.00384
98.5 -0.00653
98.55 -0.00715
98.6 -0.00867
98.65 -0.01204
98.7 -0.01732
98.75 -0.02148
98.8 -0.01901
98.85 -0.02054
98.9 -0.01633
98.95 -0.00861
99 -0.00428
99.05 -0.00192
99.1 -0.00532
99.15 -0.00818
99.2 -0.01342
99.25 -0.01992
99.3 -0.02315
99.35 -0.02338
99.4 -0.01769
99.45 -0.01324
99.5 -0.01014
99.55 -0.01228
99.6 -0.01248
99.65 -0.01039
99.7 -0.01258
99.75 -0.00917
99.8 -0.00449
99.85 -0.00029
99.9 -0.00192
99.95 -0.00344
