0 0
0.05 0.00176
0.1 0.00567
0.15 0.0165
0.2 0.02623
0.25 0.03723
0.3 0.04712
0.35 0.05708
0.4 0.06151
0.45 0.06598
0.5 0.06495
0.55 0.0659
0.6 0.06358
0.65 0.05969
0.7 0.05326
0.75 0.05078
0.8 0.04578
0.85 0.04253
0.9 0.04136
0.95 0.03806
1 0.03492
1.05 0.03612
1.1 0.03943
1.15 0.03801
1.2 0.03871
1.25 0.04255
1.3 0.04069
1.35 0.0416
1.4 0.04028
1.45 0.03702
1.5 0.03805
1.55 0.03541
1.6 0.03123
1.65 0.02435
1.7 0.01919
1.75 0.0215
1.8 0.02062
1.85 0.02323
1.9 0.0271
1.95 0.02558
2 0.0282
2.05 0.02771
2.1 0.03193
2.15 0.03604
2.2 0.03924
2.25 0.03973
2.3 0.04116
2.35 0.03737
2.4 0.0358
2.45 0.03439
2.5 0.02859
2.55 0.02472
2.6 0.01973
2.65 0.01839
2.7 0.01449
2.75 0.01279
2.8 0.00878
2.85 0.00606
2.9 0.01065
2.95 0.01945
3 0.02926
3.05 0.0357
3.1 0.03774
3.15 0.04238
3.2 0.0415
3.25 0.03962
3.3 0.03331
3.35 0.02942
3.4 0.02606
3.45 0.02106
3.5 0.0151
3.55 0.00941
3.6 0.00321
3.65 -0.00316
3.7 -0.0014
3.75 -0.00076
3.8 -0.00053
3.85 0.00154
3.9 0.00504
3.95 0.0118
4 0.01613
4.05 0.02324
4.1 0.02635
4.15 0.02727
4.2 0.02324
4.25 0.01874
4.3 0.01105
4.35 0.00395
4.4 -0.00606
4.45 -0.01606
4.5 -0.02034
4.55 -0.0241
4.6 -0.03483
4.65 -0.04698
4.7 -0.0652
4.75 -0.08735
4.8 -0.11301
4.85 -0.13554
4.9 -0.16048
4.95 -0.19304
5 -0.22925
5.05 -0.27154
5.1 -0.32196
5.15 -0.37819
5.2 -0.43301
5.25 -0.49611
5.3 -0.56745
5.35 -0.64262
5.4 -0.71513
5.45 -0.79279
5.5 -0.87549
5.55 -0.96275
5.6 -1.04806
5.65 -1.13363
5.7 -1.21798
5.75 -1.29335
5.8 -1.36289
5.85 -1.42579
5.9 -1.48494
5.95 -1.54396
6 -1.59638
6.05 -1.63971
6.1 -1.67862
6.15 -1.71702
6.2 -1.75155
6.25 -1.78092
6.3 -1.79968
6.35 -1.81482
6.4 -1.81723
6.45 -1.81682
6.5 -1.81135
6.55 -1.79222
6.6 -1.76488
6.65 -1.72665
6.7 -1.68375
6.75 -1.62874
6.8 -1.56023
6.85 -1.48189
6.9 -1.39547
6.95 -1.30226
7 -1.19769
7.05 -1.08243
7.1 -0.9587
7.15 -0.83046
7.2 -0.69772
7.25 -0.56464
7.3 -0.42292
7.35 -0.27492
7.4 -0.12671
7.45 0.02297
7.5 0.16742
7.55 0.3059
7.6 0.43703
7.65 0.55947
7.7 0.67986
7.75 0.79325
7.8 0.89615
7.85 0.99701
7.9 1.086
7.95 1.17028
8 1.24732
8.05 1.31131
8.1 1.365
8.15 1.41187
8.2 1.45201
8.25 1.48437
8.3 1.51443
8.35 1.53521
8.4 1.55276
8.45 1.5715
8.5 1.58235
8.55 1.58745
8.6 1.59068
8.65 1.59317
8.7 1.58975
8.75 1.58279
8.8 1.57292
8.85 1.56523
8.9 1.55929
8.95 1.54853
9 1.53489
9.05 1.51883
9.1 1.49749
9.15 1.47652
9.2 1.45949
9.25 1.43917
9.3 1.4206
9.35 1.40149
9.4 1.38583
9.45 1.36538
9.5 1.34329
9.55 1.32
9.6 1.29525
9.65 1.27556
9.7 1.25645
9.75 1.23831
9.8 1.22003
9.85 1.19667
9.9 1.17141
9.95 1.14862
10 1.12521
10.05 1.09995
10.1 1.07642
10.15 1.05387
10.2 1.0329
10.25 1.01176
10.3 0.9869
10.35 0.96133
10.4 0.93127
10.45 0.894
10.5 0.85845
10.55 0.82468
10.6 0.78683
10.65 0.74887
10.7 0.71598
10.75 0.68544
10.8 0.6489
10.85 0.61663
10.9 0.58657
10.95 0.55502
11 0.52215
11.05 0.49006
11.1 0.4569
11.15 0.42341
11.2 0.38638
11.25 0.35358
11.3 0.32395
11.35 0.28882
11.4 0.25465
11.45 0.22311
11.5 0.18817
11.55 0.1562
11.6 0.13086
11.65 0.1092
11.7 0.08487
11.75 0.05828
11.8 0.03232
11.85 0.01177
11.9 -0.0071
11.95 -0.02708
12 -0.04308
12.05 -0.06173
12.1 -0.07808
12.15 -0.09383
12.2 -0.11112
12.25 -0.13143
12.3 -0.14466
12.35 -0.15501
12.4 -0.16597
12.45 -0.17376
12.5 -0.18027
12.55 -0.18905
12.6 -0.20021
12.65 -0.21432
12.7 -0.22221
12.75 -0.23252
12.8 -0.23695
12.85 -0.2389
12.9 -0.24037
12.95 -0.24547
13 -0.24887
13.05 -0.25691
13.1 -0.26699
13.15 -0.27636
13.2 -0.28087
13.25 -0.27935
13.3 -0.27817
13.35 -0.27573
13.4 -0.26999
13.45 -0.26502
13.5 -0.25973
13.55 -0.2533
13.6 -0.25513
13.65 -0.2556
13.7 -0.25921
13.75 -0.2609
13.8 -0.26536
13.85 -0.2659
13.9 -0.26812
13.95 -0.26866
14 -0.27261
14.05 -0.27278
14.1 -0.27143
14.15 -0.27184
14.2 -0.27304
14.25 -0.26994
14.3 -0.26335
14.35 -0.25825
14.4 -0.25732
14.45 -0.25249
14.5 -0.24312
14.55 -0.23611
14.6 -0.22769
14.65 -0.22423
14.7 -0.225
14.75 -0.22066
14.8 -0.21414
14.85 -0.21297
14.9 -0.21052
14.95 -0.20872
15 -0.20819
15.05 -0.20693
15.1 -0.20837
15.15 -0.20912
15.2 -0.21036
15.25 -0.20821
15.3 -0.20001
15.35 -0.19685
15.4 -0.18937
15.45 -0.17936
15.5 -0.17214
15.55 -0.17158
15.6 -0.16882
15.65 -0.16833
15.7 -0.17118
15.75 -0.16984
15.8 -0.16508
15.85 -0.16043
15.9 -0.15654
15.95 -0.15606
16 -0.15539
16.05 -0.15397
16.1 -0.15479
16.15 -0.15856
16.2 -0.15498
16.25 -0.1475
16.3 -0.1385
16.35 -0.13333
16.4 -0.12506
16.45 -0.12326
16.5 -0.12208
16.55 -0.12424
16.6 -0.12612
16.65 -0.1297
16.7 -0.12887
16.75 -0.12913
16.8 -0.13197
16.85 -0.12957
16.9 -0.12203
16.95 -0.11661
17 -0.11124
17.05 -0.11046
17.1 -0.10605
17.15 -0.10178
17.2 -0.09543
17.25 -0.08698
17.3 -0.08414
17.35 -0.0811
17.4 -0.07634
17.45 -0.07213
17.5 -0.07392
17.55 -0.07578
17.6 -0.08239
17.65 -0.09073
17.7 -0.09387
17.75 -0.09454
17.8 -0.09191
17.85 -0.08934
17.9 -0.08245
17.95 -0.08147
18 -0.08485
18.05 -0.08327
18.1 -0.07784
18.15 -0.07649
18.2 -0.07903
18.25 -0.07744
18.3 -0.07454
18.35 -0.07087
18.4 -0.066
18.45 -0.06478
18.5 -0.06575
18.55 -0.06373
18.6 -0.06192
18.65 -0.05645
18.7 -0.05804
18.75 -0.06339
18.8 -0.06765
18.85 -0.06655
18.9 -0.06832
18.95 -0.06924
19 -0.06648
19.05 -0.06356
19.1 -0.06075
19.15 -0.05611
19.2 -0.05664
19.25 -0.05541
19.3 -0.0554
19.35 -0.0547
19.4 -0.05002
19.45 -0.04428
19.5 -0.03668
19.55 -0.02964
19.6 -0.03139
19.65 -0.03733
19.7 -0.04062
19.75 -0.04546
19.8 -0.04815
19.85 -0.04672
19.9 -0.05028
19.95 -0.04759
20 -0.04847
20.05 -0.05065
20.1 -0.04717
20.15 -0.04784
20.2 -0.04744
20.25 -0.04972
20.3 -0.04828
20.35 -0.04206
20.4 -0.04025
20.45 -0.03579
20.5 -0.02853
20.55 -0.02174
20.6 -0.01737
20.65 -0.01625
20.7 -0.0151
20.75 -0.0146
20.8 -0.01832
20.85 -0.01941
20.9 -0.02386
20.95 -0.03053
21 -0.03618
21.05 -0.04037
21.1 -0.04095
21.15 -0.04174
21.2 -0.04418
21.25 -0.0468
21.3 -0.04896
21.35 -0.04496
21.4 -0.04323
21.45 -0.03776
21.5 -0.03745
21.55 -0.04033
21.6 -0.04195
21.65 -0.04047
21.7 -0.0409
21.75 -0.04432
21.8 -0.04673
21.85 -0.05061
21.9 -0.05457
21.95 -0.0575
22 -0.05895
22.05 -0.05605
22.1 -0.05032
22.15 -0.04857
22.2 -0.04046
22.25 -0.02984
22.3 -0.02409
22.35 -0.02379
22.4 -0.02374
22.45 -0.02346
22.5 -0.02082
22.55 -0.01622
22.6 -0.01449
22.65 -0.01732
22.7 -0.01712
22.75 -0.0145
22.8 -0.01089
22.85 -0.01107
22.9 -0.01509
22.95 -0.02212
23 -0.02239
23.05 -0.02243
23.1 -0.01782
23.15 -0.01795
23.2 -0.01881
23.25 -0.01709
23.3 -0.01655
23.35 -0.01708
23.4 -0.015
23.45 -0.01484
23.5 -0.01296
23.55 -0.01155
23.6 -0.01453
23.65 -0.01679
23.7 -0.01415
23.75 -0.01564
23.8 -0.01616
23.85 -0.0192
23.9 -0.02254
23.95 -0.02513
24 -0.02691
24.05 -0.02422
24.1 -0.02001
24.15 -0.01935
24.2 -0.02194
24.25 -0.02697
24.3 -0.024
24.35 -0.01882
24.4 -0.01904
24.45 -0.01629
24.5 -0.01778
24.55 -0.01437
24.6 -0.00874
24.65 -0.00659
24.7 -0.00845
24.75 -0.00638
24.8 -0.0007
24.85 0.00362
24.9 0.00968
24.95 0.0138
25 0.0171
25.05 0.01357
25.1 0.00857
25.15 -0.00034
25.2 -0.00392
25.25 -0.00255
25.3 -0.0017
25.35 -0.00586
25.4 -0.00723
25.45 -0.00663
25.5 -0.00533
25.55 -0.00817
25.6 -0.01369
25.65 -0.0203
25.7 -0.02525
25.75 -0.02569
25.8 -0.02557
25.85 -0.02506
25.9 -0.02418
25.95 -0.02361
26 -0.01765
26.05 -0.01129
26.1 -0.0087
26.15 -0.00408
26.2 -0.0017
26.25 0.002
26.3 0.00806
26.35 0.01437
26.4 0.0138
26.45 0.00969
26.5 0.00346
26.55 -0.00255
26.6 -0.00267
26.65 0.00059
26.7 0.0068
26.75 0.00586
26.8 -0.00011
26.85 -0.00631
26.9 -0.00532
26.95 -0.00296
27 -0.00332
27.05 -0.0019
27.1 0.00152
27.15 0.00399
27.2 0.00883
27.25 0.01282
27.3 0.01534
27.35 0.01604
27.4 0.017
27.45 0.01249
27.5 0.00906
27.55 0.00932
27.6 0.01
27.65 0.01305
27.7 0.0136
27.75 0.01497
27.8 0.01213
27.85 0.00408
27.9 -0.00493
27.95 -0.01085
28 -0.01581
28.05 -0.02466
28.1 -0.03209
28.15 -0.04009
28.2 -0.04389
28.25 -0.05186
28.3 -0.05883
28.35 -0.06171
28.4 -0.07177
28.45 -0.08391
28.5 -0.09379
28.55 -0.10636
28.6 -0.11808
28.65 -0.13036
28.7 -0.144
28.75 -0.16056
28.8 -0.18231
28.85 -0.21006
28.9 -0.24465
28.95 -0.28166
29 -0.31547
29.05 -0.35139
29.1 -0.38663
29.15 -0.42541
29.2 -0.46285
29.25 -0.49839
29.3 -0.53569
29.35 -0.5767
29.4 -0.62011
29.45 -0.66628
29.5 -0.70573
29.55 -0.74274
29.6 -0.78006
29.65 -0.81061
29.7 -0.84193
29.75 -0.87118
29.8 -0.89505
29.85 -0.91366
29.9 -0.9236
29.95 -0.92236
30 -0.91244
30.05 -0.89493
30.1 -0.86899
30.15 -0.83625
30.2 -0.79672
30.25 -0.75836
30.3 -0.71897
30.35 -0.67045
30.4 -0.62271
30.45 -0.56578
30.5 -0.5028
30.55 -0.43501
30.6 -0.36801
30.65 -0.30274
30.7 -0.23171
30.75 -0.1576
30.8 -0.08573
30.85 -0.01896
30.9 0.04439
30.95 0.10371
31 0.15767
31.05 0.20812
31.1 0.26229
31.15 0.31214
31.2 0.35624
31.25 0.39595
31.3 0.43442
31.35 0.47009
31.4 0.49797
31.45 0.52649
31.5 0.54895
31.55 0.56641
31.6 0.58497
31.65 0.59616
31.7 0.6078
31.75 0.6192
31.8 0.63059
31.85 0.64147
31.9 0.64945
31.95 0.65637
32 0.65572
32.05 0.64973
32.1 0.64408
32.15 0.63797
32.2 0.63569
32.25 0.63561
32.3 0.63279
32.35 0.63394
32.4 0.63529
32.45 0.63407
32.5 0.63017
32.55 0.62932
32.6 0.62867
32.65 0.62834
32.7 0.62331
32.75 0.61834
32.8 0.61052
32.85 0.59785
32.9 0.58126
32.95 0.56799
33 0.5582
33.05 0.54997
33.1 0.53805
33.15 0.52324
33.2 0.50936
33.25 0.49835
33.3 0.48849
33.35 0.48086
33.4 0.47503
33.45 0.46951
33.5 0.45854
33.55 0.4447
33.6 0.4295
33.65 0.4137
33.7 0.3932
33.75 0.37697
33.8 0.35973
33.85 0.34497
33.9 0.33431
33.95 0.32477
34 0.30999
34.05 0.29781
34.1 0.28764
34.15 0.2805
34.2 0.26913
34.25 0.2593
34.3 0.2484
34.35 0.23473
34.4 0.22456
34.45 0.21144
34.5 0.19769
34.55 0.18746
34.6 0.17185
34.65 0.16171
34.7 0.15473
34.75 0.15007
34.8 0.13832
34.85 0.12664
34.9 0.11853
34.95 0.10408
35 0.09282
35.05 0.08242
35.1 0.06934
35.15 0.05817
35.2 0.04374
35.25 0.03116
35.3 0.02143
35.35 0.00894
35.4 -0.00531
35.45 -0.01679
35.5 -0.02766
35.55 -0.03661
35.6 -0.03959
35.65 -0.04616
35.7 -0.05405
35.75 -0.05685
35.8 -0.06068
35.85 -0.0616
35.9 -0.06118
35.95 -0.05836
36 -0.06228
36.05 -0.06716
36.1 -0.07578
36.15 -0.08542
36.2 -0.09013
36.25 -0.09305
36.3 -0.09199
36.35 -0.09313
36.4 -0.09531
36.45 -0.09918
36.5 -0.10053
36.55 -0.10264
36.6 -0.10401
36.65 -0.10621
36.7 -0.10449
36.75 -0.10609
36.8 -0.10809
36.85 -0.10742
36.9 -0.10292
36.95 -0.09634
37 -0.09052
37.05 -0.08793
37.1 -0.08461
37.15 -0.08287
37.2 -0.08263
37.25 -0.0808
37.3 -0.07776
37.35 -0.07715
37.4 -0.07748
37.45 -0.07904
37.5 -0.0811
37.55 -0.08615
37.6 -0.0932
37.65 -0.10184
37.7 -0.1051
37.75 -0.1025
37.8 -0.09917
37.85 -0.09832
37.9 -0.0965
37.95 -0.0968
38 -0.09703
38.05 -0.09822
38.1 -0.09792
38.15 -0.09837
38.2 -0.09562
38.25 -0.09154
38.3 -0.0859
38.35 -0.08211
38.4 -0.08304
38.45 -0.08041
38.5 -0.07581
38.55 -0.07488
38.6 -0.07663
38.65 -0.07945
38.7 -0.08521
38.75 -0.0895
38.8 -0.09483
38.85 -0.09876
38.9 -0.09669
38.95 -0.09263
39 -0.09172
39.05 -0.09035
39.1 -0.08921
39.15 -0.08568
39.2 -0.07789
39.25 -0.07089
39.3 -0.0706
39.35 -0.06608
39.4 -0.06078
39.45 -0.05513
39.5 -0.0503
39.55 -0.04451
39.6 -0.03904
39.65 -0.03968
39.7 -0.04207
39.75 -0.04786
39.8 -0.05467
39.85 -0.06034
39.9 -0.06126
39.95 -0.06537
40 -0.0687
40.05 -0.06647
40.1 -0.06521
40.15 -0.06087
40.2 -0.06011
40.25 -0.05763
40.3 -0.05262
40.35 -0.04799
40.4 -0.04358
40.45 -0.03829
40.5 -0.03155
40.55 -0.03318
40.6 -0.0387
40.65 -0.04559
40.7 -0.04761
40.75 -0.05157
40.8 -0.04959
40.85 -0.04403
40.9 -0.04002
40.95 -0.04184
41 -0.03995
41.05 -0.03862
41.1 -0.03971
41.15 -0.03608
41.2 -0.03256
41.25 -0.029
41.3 -0.02353
41.35 -0.01783
41.4 -0.01493
41.45 -0.01571
41.5 -0.01488
41.55 -0.01296
41.6 -0.0111
41.65 -0.01454
41.7 -0.02159
41.75 -0.03063
41.8 -0.03248
41.85 -0.03257
41.9 -0.03077
41.95 -0.03256
42 -0.03039
42.05 -0.03169
42.1 -0.03458
42.15 -0.03532
42.2 -0.03533
42.25 -0.03652
42.3 -0.03862
42.35 -0.03588
42.4 -0.0369
42.45 -0.03719
42.5 -0.03641
42.55 -0.03136
42.6 -0.02355
42.65 -0.01634
42.7 -0.01069
42.75 -0.00797
42.8 -0.01143
42.85 -0.0183
42.9 -0.02709
42.95 -0.03537
43 -0.03862
43.05 -0.0369
43.1 -0.0388
43.15 -0.04225
43.2 -0.04699
43.25 -0.04769
43.3 -0.04527
43.35 -0.04064
43.4 -0.03403
43.45 -0.02739
43.5 -0.01877
43.55 -0.01709
43.6 -0.01811
43.65 -0.02098
43.7 -0.02342
43.75 -0.02061
43.8 -0.01908
43.85 -0.01721
43.9 -0.01209
43.95 -0.01141
44 -0.00832
44.05 -0.0043
44.1 -0.00613
44.15 -0.00643
44.2 -0.00707
44.25 -0.01269
44.3 -0.01908
44.35 -0.02076
44.4 -0.02018
44.45 -0.02397
44.5 -0.02686
44.55 -0.02662
44.6 -0.02249
44.65 -0.02273
44.7 -0.01998
44.75 -0.02018
44.8 -0.01699
44.85 -0.01778
44.9 -0.01758
44.95 -0.01945
45 -0.01598
45.05 -0.01448
45.1 -0.01348
45.15 -0.01727
45.2 -0.02038
45.25 -0.02161
45.3 -0.02604
45.35 -0.02421
45.4 -0.02253
45.45 -0.02057
45.5 -0.01437
45.55 -0.01258
45.6 -0.01066
45.65 -0.01244
45.7 -0.01612
45.75 -0.01763
45.8 -0.01676
45.85 -0.01777
45.9 -0.01742
45.95 -0.01304
46 -0.01043
46.05 -0.00957
46.1 -0.00973
46.15 -0.01051
46.2 -0.01516
46.25 -0.01482
46.3 -0.01843
46.35 -0.01826
46.4 -0.01579
46.45 -0.01819
46.5 -0.0147
46.55 -0.00763
46.6 -0.00373
46.65 -0.00619
46.7 -0.00705
46.75 -0.00884
46.8 -0.00923
46.85 -0.0077
46.9 -0.00642
46.95 -0.00604
47 -0.00461
47.05 -0.00833
47.1 -0.01182
47.15 -0.01382
47.2 -0.01172
47.25 -0.00839
47.3 -0.01013
47.35 -0.01374
47.4 -0.01479
47.45 -0.01516
47.5 -0.0171
47.55 -0.02008
47.6 -0.02236
47.65 -0.01941
47.7 -0.01755
47.75 -0.01865
47.8 -0.01926
47.85 -0.02213
47.9 -0.01851
47.95 -0.01606
48 -0.01477
48.05 -0.00892
48.1 -0.00777
48.15 -0.00376
48.2 -0.00029
48.25 0.00595
48.3 0.00938
48.35 0.00958
48.4 0.01075
48.45 0.00676
48.5 0.00734
48.55 0.01085
48.6 0.01117
48.65 0.00973
48.7 0.00683
48.75 0.00501
48.8 0.00405
48.85 0.00271
48.9 0.00447
48.95 0.00884
49 0.01432
49.05 0.01353
49.1 0.01382
49.15 0.01335
49.2 0.01301
49.25 0.01002
49.3 0.00542
49.35 -0.00031
49.4 -0.00471
49.45 -0.00449
49.5 -0.00608
49.55 -0.0076
49.6 -0.0124
49.65 -0.01134
49.7 -0.00614
49.75 -0.00258
49.8 0.00338
49.85 0.00663
49.9 0.00621
49.95 0.00609
50 0.00846
50.05 0.00946
50.1 0.01273
50.15 0.0094
50.2 0.00391
50.25 0.00016
50.3 -0.00435
50.35 -0.00874
50.4 -0.00962
50.45 -0.0092
50.5 -0.00548
50.55 -0.00198
50.6 0.00077
50.65 0.0052
50.7 0.00629
50.75 0.00707
50.8 0.00926
50.85 0.00608
50.9 0.00078
50.95 -0.00463
51 -0.00466
51.05 -0.00877
51.1 -0.01055
51.15 -0.00776
51.2 -0.01
51.25 -0.007
51.3 -0.00679
51.35 -0.00897
51.4 -0.00692
51.45 -0.00728
51.5 -0.00749
51.55 -0.00772
51.6 -0.01206
51.65 -0.01771
51.7 -0.02181
51.75 -0.02003
51.8 -0.01488
51.85 -0.00638
51.9 -0.00185
51.95 -0.00318
52 -0.00365
52.05 -0.00584
52.1 -0.00943
52.15 -0.01422
52.2 -0.01872
52.25 -0.02042
52.3 -0.0174
52.35 -0.01149
52.4 -0.00685
52.45 -0.0007
52.5 0.00499
52.55 0.01097
52.6 0.01671
52.65 0.01568
52.7 0.01757
52.75 0.01952
52.8 0.01852
52.85 0.01898
52.9 0.01324
52.95 0.00826
53 0.00518
53.05 -0.00141
53.1 -0.00339
53.15 -0.00752
53.2 -0.01049
53.25 -0.01233
53.3 -0.01154
53.35 -0.00649
53.4 -0.00739
53.45 -0.00481
53.5 -0.00622
53.55 -0.00791
53.6 -0.01297
53.65 -0.01444
53.7 -0.01876
53.75 -0.02395
53.8 -0.02197
53.85 -0.01863
53.9 -0.01772
53.95 -0.019
54 -0.01511
54.05 -0.01227
54.1 -0.01139
54.15 -0.00685
54.2 -0.00685
54.25 -0.01073
54.3 -0.01065
54.35 -0.00909
54.4 -0.00744
54.45 -0.00572
54.5 -0.00704
54.55 -0.00682
54.6 -0.00405
54.65 0.00159
54.7 0.00573
54.75 0.00384
54.8 0.0064
54.85 0.00571
54.9 0.00879
54.95 0.00731
55 0.00224
55.05 -0.00006
55.1 -0.00551
55.15 -0.0108
55.2 -0.01784
55.25 -0.02309
55.3 -0.02736
55.35 -0.02851
55.4 -0.02453
55.45 -0.01995
55.5 -0.01268
55.55 -0.01133
55.6 -0.01282
55.65 -0.01147
55.7 -0.01292
55.75 -0.01061
55.8 -0.00891
55.85 -0.00585
55.9 -0.00711
55.95 -0.0048
56 -0.0009
56.05 -0.00088
56.1 0.00183
56.15 0.00588
56.2 0.00584
56.25 0.00365
56.3 0.00104
56.35 0.00153
56.4 0.00364
56.45 0.00299
56.5 0.0071
56.55 0.01211
56.6 0.01006
56.65 0.00819
56.7 0.00319
56.75 -0.00373
56.8 -0.00874
56.85 -0.01171
56.9 -0.01608
56.95 -0.01434
57 -0.01183
57.05 -0.0069
57.1 -0.00543
57.15 -0.00809
57.2 -0.01089
57.25 -0.00741
57.3 -0.00435
57.35 0.00262
57.4 0.00702
57.45 0.0116
57.5 0.01754
57.55 0.02088
57.6 0.02247
57.65 0.02162
57.7 0.02333
57.75 0.02162
57.8 0.02108
57.85 0.01537
57.9 0.00943
57.95 0.00825
58 0.00229
58.05 0.00119
58.1 0.00191
58.15 0.0037
58.2 0.006
58.25 0.00703
58.3 0.00285
58.35 -0.00119
58.4 -0.00555
58.45 -0.00814
58.5 -0.011
58.55 -0.00723
58.6 -0.00347
58.65 0.0025
58.7 0.006
58.75 0.00736
58.8 0.00633
58.85 0.00472
58.9 0.00749
58.95 0.00873
59 0.00599
59.05 -0.00037
59.1 -0.00857
59.15 -0.01449
59.2 -0.01583
59.25 -0.01305
59.3 -0.01234
59.35 -0.00841
59.4 -0.00811
59.45 -0.011
59.5 -0.01138
59.55 -0.01358
59.6 -0.01241
59.65 -0.0125
59.7 -0.01151
59.75 -0.01014
59.8 -0.01111
59.85 -0.01297
59.9 -0.01411
59.95 -0.01624
60 -0.01456
60.05 -0.00754
60.1 -0.00401
60.15 -0.00291
60.2 0.00138
60.25 0.00044
60.3 -0.00349
60.35 -0.00363
60.4 -0.00444
60.45 -0.00315
60.5 -0.00181
60.55 -0.00468
60.6 -0.00833
60.65 -0.01039
60.7 -0.01108
60.75 -0.00984
60.8 -0.01174
60.85 -0.00813
60.9 -0.00605
60.95 -0.00608
61 -0.00739
61.05 -0.01088
61.1 -0.00917
61.15 -0.00692
61.2 -0.00833
61.25 -0.00587
61.3 -0.00274
61.35 0.00118
61.4 0.00547
61.45 0.01136
61.5 0.01134
61.55 0.00984
61.6 0.01141
61.65 0.00833
61.7 0.01001
61.75 0.01198
61.8 0.01173
61.85 0.00649
61.9 0.0003
61.95 -0.0073
62 -0.01359
62.05 -0.01693
62.1 -0.02073
62.15 -0.0181
62.2 -0.01566
62.25 -0.01455
62.3 -0.01519
62.35 -0.01284
62.4 -0.00867
62.45 -0.0079
62.5 -0.00557
62.55 -0.00752
62.6 -0.00395
62.65 -0.00145
62.7 -0.00014
62.75 -0.00171
62.8 -0.00356
62.85 -0.00452
62.9 -0.00222
62.95 0.00177
63 0.00686
63.05 0.00592
63.1 0.00701
63.15 0.00955
63.2 0.01177
63.25 0.00928
63.3 0.0083
63.35 0.00794
63.4 0.01136
63.45 0.01324
63.5 0.0138
63.55 0.01723
63.6 0.01577
63.65 0.01525
63.7 0.01433
63.75 0.01263
63.8 0.01537
63.85 0.01607
63.9 0.0197
63.95 0.02239
64 0.02506
64.05 0.0251
64.1 0.0194
64.15 0.01552
64.2 0.01607
64.25 0.01379
64.3 0.01471
64.35 0.017
64.4 0.0193
64.45 0.02305
64.5 0.02598
64.55 0.02822
64.6 0.03054
64.65 0.03085
64.7 0.02797
64.75 0.02113
64.8 0.01478
64.85 0.0062
64.9 -0.00361
64.95 -0.00866
65 -0.00882
65.05 -0.00395
65.1 0.00083
65.15 0.0061
65.2 0.00729
65.25 0.00859
65.3 0.0051
65.35 0.00087
65.4 -0.00064
65.45 -0.00237
65.5 -0.00157
65.55 0.00151
65.6 0.00663
65.65 0.01243
65.7 0.01283
65.75 0.00784
65.8 0.00203
65.85 0.00227
65.9 0.00407
65.95 0.00048
66 -0.00475
66.05 -0.01033
66.1 -0.0154
66.15 -0.01753
66.2 -0.01749
66.25 -0.01978
66.3 -0.0191
66.35 -0.0202
66.4 -0.02246
66.45 -0.02382
66.5 -0.02237
66.55 -0.02335
66.6 -0.01853
66.65 -0.01167
66.7 -0.0023
66.75 -0.00072
66.8 -0.00186
66.85 -0.00631
66.9 -0.0103
66.95 -0.00846
67 -0.00957
67.05 -0.01274
67.1 -0.01354
67.15 -0.01682
67.2 -0.021
67.25 -0.01911
67.3 -0.01851
67.35 -0.01997
67.4 -0.02246
67.45 -0.02365
67.5 -0.0189
67.55 -0.01018
67.6 -0.00214
67.65 0.00312
67.7 0.00476
67.75 0.00108
67.8 0.00226
67.85 0.0026
67.9 -0.00055
67.95 0.00107
68 -0.00075
68.05 0.00257
68.1 0.0042
68.15 0.00823
68.2 0.01025
68.25 0.01421
68.3 0.01972
68.35 0.02241
68.4 0.02011
68.45 0.01319
68.5 0.01153
68.55 0.00701
68.6 0.00585
68.65 0.00845
68.7 0.01156
68.75 0.01266
68.8 0.016
68.85 0.0171
68.9 0.01711
68.95 0.0173
69 0.01407
69.05 0.01233
69.1 0.0137
69.15 0.00897
69.2 0.0057
69.25 0.00197
69.3 0.00088
69.35 -0.00218
69.4 -0.00426
69.45 -0.00634
69.5 -0.01088
69.55 -0.00981
69.6 -0.0042
69.65 -0.00313
69.7 -0.00458
69.75 -0.00701
69.8 -0.00938
69.85 -0.00574
69.9 -0.00077
69.95 -0.00228
70 -0.00257
70.05 -0.0018
70.1 0.00277
70.15 0.00358
70.2 0.00253
70.25 -0.00304
70.3 -0.00701
70.35 -0.00734
70.4 -0.00717
70.45 -0.00985
70.5 -0.01092
70.55 -0.00921
70.6 -0.00964
70.65 -0.01257
70.7 -0.00901
70.75 -0.00672
70.8 -0.00902
70.85 -0.00961
70.9 -0.01251
70.95 -0.01153
71 -0.00963
71.05 -0.00471
71.1 -0.00263
71.15 -0.00108
71.2 -0.00422
71.25 -0.0023
71.3 0.00384
71.35 0.00358
71.4 -0.00056
71.45 -0.00198
71.5 -0.00447
71.55 -0.0033
71.6 0.00145
71.65 0.00907
71.7 0.01457
71.75 0.02126
71.8 0.02533
71.85 0.02826
71.9 0.02348
71.95 0.02223
72 0.02247
72.05 0.02405
72.1 0.0187
72.15 0.01773
72.2 0.01987
72.25 0.01911
72.3 0.01864
72.35 0.01517
72.4 0.01488
72.45 0.01146
72.5 0.0053
72.55 0.00412
72.6 -0.00183
72.65 -0.00778
72.7 -0.00844
72.75 -0.00677
72.8 -0.00488
72.85 -0.00491
72.9 -0.00732
72.95 -0.0094
73 -0.00687
73.05 -0.00428
73.1 0.00155
73.15 0.0066
73.2 0.00669
73.25 0.00135
73.3 -0.00014
73.35 -0.00241
73.4 -0.00193
73.45 0.00108
73.5 0.0002
73.55 0.0002
73.6 0.00135
73.65 0.00518
73.7 0.00996
73.75 0.01303
73.8 0.0112
73.85 0.0062
73.9 0.00088
73.95 -0.00263
74 -0.00938
74.05 -0.01077
74.1 -0.00732
74.15 -0.00239
74.2 -0.00034
74.25 -0.00315
74.3 -0.00819
74.35 -0.00873
74.4 -0.00421
74.45 -0.00541
74.5 -0.00873
74.55 -0.01399
74.6 -0.01919
74.65 -0.01947
74.7 -0.02057
74.75 -0.01551
74.8 -0.00679
74.85 0.00142
74.9 0.00969
74.95 0.01669
75 0.01758
75.05 0.01701
75.1 0.01137
75.15 0.00949
75.2 0.01094
75.25 0.00756
75.3 0.00591
75.35 0.00451
75.4 -0.00009
75.45 0.00118
75.5 0.00041
75.55 -0.00059
75.6 -0.00363
75.65 -0.00116
75.7 0.00406
75.75 0.01035
75.8 0.01223
75.85 0.01003
75.9 0.00762
75.95 0.00701
76 0.00136
76.05 0.00075
76.1 -0.00174
76.15 -0.00144
76.2 -0.00417
76.25 -0.00401
76.3 -0.00709
76.35 -0.00507
76.4 0.00084
76.45 0.00043
76.5 -0.00177
76.55 -0.004
76.6 -0.007
76.65 -0.01281
76.7 -0.01525
76.75 -0.01894
76.8 -0.02274
76.85 -0.02125
76.9 -0.01737
76.95 -0.01821
77 -0.01325
77.05 -0.01373
77.1 -0.01751
77.15 -0.021
77.2 -0.02524
77.25 -0.02805
77.3 -0.02314
77.35 -0.01373
77.4 -0.01038
77.45 -0.01106
77.5 -0.01065
77.55 -0.00696
77.6 -0.00834
77.65 -0.01303
77.7 -0.01208
77.75 -0.00708
77.8 0.00081
77.85 0.00687
77.9 0.00834
77.95 0.00816
78 0.0066
78.05 0.00397
78.1 -0.00097
78.15 -0.00207
78.2 -0.00143
78.25 0.00303
78.3 0.00965
78.35 0.01661
78.4 0.023
78.45 0.02078
78.5 0.01862
78.55 0.01881
78.6 0.02048
78.65 0.01579
78.7 0.01049
78.75 0.00367
78.8 0.00298
78.85 0.00115
78.9 -0.00072
78.95 0.00013
79 -0.00215
79.05 -0.00219
79.1 -0.00289
79.15 -0.00767
79.2 -0.01231
79.25 -0.01852
79.3 -0.01996
79.35 -0.01629
79.4 -0.00841
79.45 0.00185
79.5 0.00862
79.55 0.01297
79.6 0.01266
79.65 0.00787
79.7 0.00281
79.75 0.00067
79.8 0.00134
79.85 0.0031
79.9 0.00831
79.95 0.00762
80 0.00994
80.05 0.01136
80.1 0.01117
80.15 0.01066
80.2 0.00935
80.25 0.00777
80.3 0.00752
80.35 0.00631
80.4 0.00474
80.45 -0.00148
80.5 -0.00767
80.55 -0.00704
80.6 -0.00408
80.65 0.00003
80.7 0.00683
80.75 0.00968
80.8 0.01323
80.85 0.01177
80.9 0.01134
80.95 0.01018
81 0.00688
81.05 0.00654
81.1 0.00957
81.15 0.00755
81.2 0.00725
81.25 0.00426
81.3 -0.00037
81.35 -0.00237
81.4 -0.00597
81.45 -0.01074
81.5 -0.0089
81.55 -0.00473
81.6 -0.00346
81.65 -0.00716
81.7 -0.01094
81.75 -0.01706
81.8 -0.02024
81.85 -0.01978
81.9 -0.01825
81.95 -0.0118
82 -0.00694
82.05 -0.00428
82.1 0.00218
82.15 0.00857
82.2 0.01364
82.25 0.01127
82.3 0.01195
82.35 0.00683
82.4 0.00188
82.45 -0.00569
82.5 -0.01181
82.55 -0.01367
82.6 -0.01157
82.65 -0.01227
82.7 -0.01017
82.75 -0.01251
82.8 -0.01772
82.85 -0.01903
82.9 -0.01825
82.95 -0.0184
83 -0.01946
83.05 -0.01719
83.1 -0.01849
83.15 -0.01385
83.2 -0.01401
83.25 -0.0167
83.3 -0.02085
83.35 -0.02621
83.4 -0.02441
83.45 -0.02495
83.5 -0.02122
83.55 -0.01903
83.6 -0.01514
83.65 -0.0106
83.7 -0.00923
83.75 -0.00845
83.8 -0.00861
83.85 -0.00702
83.9 -0.00155
83.95 0.00189
84 0.00715
84.05 0.01476
84.1 0.0223
84.15 0.02869
84.2 0.03338
84.25 0.03824
84.3 0.03862
84.35 0.03157
84.4 0.02335
84.45 0.02047
84.5 0.01985
84.55 0.01918
84.6 0.02021
84.65 0.0166
84.7 0.00834
84.75 0.0005
84.8 -0.00664
84.85 -0.01293
84.9 -0.01851
84.95 -0.02214
85 -0.02382
85.05 -0.02727
85.1 -0.02826
85.15 -0.02538
85.2 -0.02202
85.25 -0.01997
85.3 -0.01996
85.35 -0.01707
85.4 -0.01608
85.45 -0.01664
85.5 -0.01781
85.55 -0.01607
85.6 -0.01598
85.65 -0.01344
85.7 -0.00806
85.75 -0.00232
85.8 0.00428
85.85 0.01151
85.9 0.01477
85.95 0.02002
86 0.02326
86.05 0.02566
86.1 0.02402
86.15 0.02331
86.2 0.01958
86.25 0.01768
86.3 0.01141
86.35 0.00664
86.4 -0.00105
86.45 -0.00779
86.5 -0.01511
86.55 -0.02233
86.6 -0.02173
86.65 -0.01527
86.7 -0.01434
86.75 -0.00881
86.8 -0.00654
86.85 -0.00177
86.9 0.00263
86.95 0.00272
87 -0.0004
87.05 -0.00069
87.1 -0.0051
87.15 -0.00653
87.2 -0.00228
87.25 0.00361
87.3 0.00669
87.35 0.0046
87.4 0.00214
87.45 -0.00287
87.5 -0.00803
87.55 -0.00664
87.6 -0.00667
87.65 -0.0064
87.7 -0.00739
87.75 -0.01108
87.8 -0.0137
87.85 -0.01109
87.9 -0.01111
87.95 -0.00916
88 -0.00856
88.05 -0.01029
88.1 -0.00756
88.15 -0.00856
88.2 -0.00971
88.25 -0.01335
88.3 -0.01037
88.35 -0.01118
88.4 -0.01066
88.45 -0.01035
88.5 -0.00478
88.55 -0.0045
88.6 -0.00194
88.65 0.00113
88.7 0.00798
88.75 0.00827
88.8 0.00893
88.85 0.00886
88.9 0.00494
88.95 -0.0018
89 -0.0091
89.05 -0.00921
89.1 -0.00411
89.15 0.00149
89.2 0.00878
89.25 0.01226
89.3 0.01246
89.35 0.0146
89.4 0.01198
89.45 0.0142
89.5 0.01194
89.55 0.01333
89.6 0.01511
89.65 0.0136
89.7 0.00891
89.75 0.00813
89.8 0.00385
89.85 0.00527
89.9 0.0013
89.95 -0.0058
90 -0.00975
90.05 -0.01189
90.1 -0.01143
90.15 -0.00748
90.2 -0.00619
90.25 -0.00883
90.3 -0.00817
90.35 -0.0047
90.4 0.00227
90.45 0.00428
90.5 0.00318
90.55 0.0016
90.6 -0.00056
90.65 0.00188
90.7 0.00699
90.75 0.013
90.8 0.01396
90.85 0.011
90.9 0.00382
90.95 0.00076
91 -0.00006
91.05 -0.00036
91.1 0.00192
91.15 0.00043
91.2 -0.003
91.25 -0.00896
91.3 -0.01335
91.35 -0.01904
91.4 -0.01827
91.45 -0.01737
91.5 -0.01263
91.55 -0.01167
91.6 -0.0142
91.65 -0.01213
91.7 -0.00924
91.75 -0.00672
91.8 -0.00164
91.85 -0.00221
91.9 -0.00261
91.95 0.00014
92 0.00512
92.05 0.00746
92.1 0.00897
92.15 0.01298
92.2 0.0124
92.25 0.00956
92.3 0.0067
92.35 0.00305
92.4 0.00406
92.45 0.00579
92.5 0.00759
92.55 0.01032
92.6 0.01457
92.65 0.01751
92.7 0.01365
92.75 0.00584
92.8 0.00102
92.85 -0.00551
92.9 -0.00555
92.95 -0.00444
93 -0.00617
93.05 -0.00913
93.1 -0.01073
93.15 -0.00742
93.2 -0.0047
93.25 0.00081
93.3 0.00327
93.35 0.00832
93.4 0.01376
93.45 0.01633
93.5 0.01546
93.55 0.0104
93.6 0.00693
93.65 0.00428
93.7 -0.00158
93.75 -0.00252
93.8 -0.00321
93.85 -0.00502
93.9 -0.00234
93.95 -0.00244
94 -0.00478
94.05 -0.00393
94.1 0.00093
94.15 0.00635
94.2 0.01085
94.25 0.01046
94.3 0.00481
94.35 -0.00086
94.4 -0.00658
94.45 -0.00684
94.5 -0.0019
94.55 -0.00034
94.6 -0.0012
94.65 -0.00506
94.7 -0.0073
94.75 -0.00573
94.8 -0.00347
94.85 0.00205
94.9 0.00353
94.95 0.0063
95 0.00894
95.05 0.00925
95.1 0.01055
95.15 0.01222
95.2 0.00856
95.25 0.00611
95.3 0.00739
95.35 0.00458
95.4 0.00105
95.45 0.00316
95.5 0.00202
95.55 0.00536
95.6 0.00866
95.65 0.0066
95.7 0.00822
95.75 0.00778
95.8 0.01053
95.85 0.01136
95.9 0.01355
95.95 0.0103
96 0.0068
96.05 0.00802
96.1 0.00659
96.15 0.00331
96.2 0.00325
96.25 0.00516
96.3 0.00387
96.35 0.00144
96.4 -0.00231
96.45 -0.00385
96.5 -0.00511
96.55 -0.00921
96.6 -0.01245
96.65 -0.01649
96.7 -0.02207
96.75 -0.02338
96.8 -0.02507
96.85 -0.02761
96.9 -0.02806
96.95 -0.02772
97 -0.02612
97.05 -0.02211
97.1 -0.02135
97.15 -0.02217
97.2 -0.01879
97.25 -0.01084
97.3 -0.00406
97.35 -0.00048
97.4 -0.00118
97.45 0.0031
97.5 0.00387
97.55 0.00819
97.6 0.01172
97.65 0.0132
97.7 0.0136
97.75 0.01445
97.8 0.00934
97.85 0.00848
97.9 0.00506
97.95 -0.00078
98 -0.00838
98.05 -0.01332
98.1 -0.01366
98.15 -0.01216
98.2 -0.01395
98.25 -0.01561
98.3 -0.01425
98.35 -0.00736
98.4 0.00167
98.45 0.0046
98.5 0.00742
98.55 0.0057
98.6 0.0067
98.65 0.00253
98.7 0.00125
98.75 0.002
98.8 0.00485
98.85 0.00368
98.9 0.00263
98.95 0.00328
99 0.00555
99.05 0.00957
99.1 0.00818
99.15 0.00903
99.2 0.01206
99.25 0.00972
99.3 0.00766
99.35 0.008
99.4 0.00713
99.45 0.00244
99.5 0.00217
99.55 0.00107
99.6 -0.00295
99.65 -0.00889
99.7 -0.0144
99.75 -0.01329
99.8 -0.01088
99.85 -0.01086
99.9 -0.00791
99.95 -0.00691
