0 0
0.05 0.00102
0.1 0.01095
0.15 0.01679
0.2 0.02291
0.25 0.02596
0.3 0.02996
0.35 0.03073
0.4 0.02896
0.45 0.02721
0.5 0.02524
0.55 0.02271
0.6 0.0263
0.65 0.0274
0.7 0.03066
0.75 0.03453
0.8 0.03378
0.85 0.03866
0.9 0.04654
0.95 0.04984
1 0.05379
1.05 0.05239
1.1 0.04714
1.15 0.04422
1.2 0.04124
1.25 0.03513
1.3 0.03122
1.35 0.03405
1.4 0.03349
1.45 0.03666
1.5 0.04079
1.55 0.04692
1.6 0.05155
1.65 0.0513
1.7 0.05059
1.75 0.05077
1.8 0.04518
1.85 0.03651
1.9 0.03343
1.95 0.03321
2 0.02873
2.05 0.03025
2.1 0.03402
2.15 0.03925
2.2 0.03828
2.25 0.03811
2.3 0.03765
2.35 0.03529
2.4 0.03569
2.45 0.03716
2.5 0.0422
2.55 0.04414
2.6 0.04569
2.65 0.048
2.7 0.05183
2.75 0.05353
2.8 0.05686
2.85 0.05695
2.9 0.05024
2.95 0.04848
3 0.04237
3.05 0.03644
3.1 0.0348
3.15 0.03507
3.2 0.03415
3.25 0.02842
3.3 0.02011
3.35 0.01393
3.4 0.00735
3.45 0.00331
3.5 0.00209
3.55 0.00458
3.6 0.01061
3.65 0.01764
3.7 0.02553
3.75 0.03052
3.8 0.03338
3.85 0.03799
3.9 0.04298
3.95 0.03995
4 0.03596
4.05 0.02989
4.1 0.02539
4.15 0.01729
4.2 0.00731
4.25 -0.00332
4.3 -0.01334
4.35 -0.02076
4.4 -0.02026
4.45 -0.0188
4.5 -0.02157
4.55 -0.02929
4.6 -0.03939
4.65 -0.0461
4.7 -0.05603
4.75 -0.06832
4.8 -0.08578
4.85 -0.10726
4.9 -0.12585
4.95 -0.14208
5 -0.16249
5.05 -0.18571
5.1 -0.21421
5.15 -0.24614
5.2 -0.27926
5.25 -0.31668
5.3 -0.36151
5.35 -0.40572
5.4 -0.44955
5.45 -0.49594
5.5 -0.53908
5.55 -0.58198
5.6 -0.61932
5.65 -0.64818
5.7 -0.67388
5.75 -0.69144
5.8 -0.70218
5.85 -0.70616
5.9 -0.70226
5.95 -0.69084
6 -0.67103
6.05 -0.6471
6.1 -0.61418
6.15 -0.57546
6.2 -0.53075
6.25 -0.48541
6.3 -0.43608
6.35 -0.3854
6.4 -0.3377
6.45 -0.28863
6.5 -0.23559
6.55 -0.17736
6.6 -0.12322
6.65 -0.06892
6.7 -0.01379
6.75 0.03665
6.8 0.08612
6.85 0.13512
6.9 0.18729
6.95 0.23527
7 0.28557
7.05 0.32968
7.1 0.371
7.15 0.41217
7.2 0.45352
7.25 0.49243
7.3 0.52779
7.35 0.5566
7.4 0.58243
7.45 0.60421
7.5 0.62608
7.55 0.63738
7.6 0.64821
7.65 0.65709
7.7 0.65455
7.75 0.65037
7.8 0.64016
7.85 0.62587
7.9 0.60821
7.95 0.58561
8 0.56411
8.05 0.54411
8.1 0.52698
8.15 0.51022
8.2 0.49158
8.25 0.47027
8.3 0.45078
8.35 0.43431
8.4 0.41857
8.45 0.40238
8.5 0.3793
8.55 0.35952
8.6 0.34431
8.65 0.332
8.7 0.31634
8.75 0.29886
8.8 0.27797
8.85 0.26215
8.9 0.24449
8.95 0.23134
9 0.21956
9.05 0.205
9.1 0.1911
9.15 0.18104
9.2 0.17054
9.25 0.15784
9.3 0.14525
9.35 0.13785
9.4 0.13268
9.45 0.12702
9.5 0.12032
9.55 0.11573
9.6 0.1092
9.65 0.10306
9.7 0.0978
9.75 0.0914
9.8 0.09187
9.85 0.09089
9.9 0.08989
9.95 0.09033
10 0.09369
10.05 0.09733
10.1 0.10032
10.15 0.09821
10.2 0.09748
10.25 0.09037
10.3 0.08575
10.35 0.07483
10.4 0.06585
10.45 0.05492
10.5 0.04894
10.55 0.04375
10.6 0.03314
10.65 0.02043
10.7 0.01044
10.75 0.0042
10.8 -0.00116
10.85 -0.00931
10.9 -0.02036
10.95 -0.02544
11 -0.03043
11.05 -0.03557
11.1 -0.04038
11.15 -0.04296
11.2 -0.04186
11.25 -0.04176
11.3 -0.03881
11.35 -0.03515
11.4 -0.03863
11.45 -0.0386
11.5 -0.0435
11.55 -0.04764
11.6 -0.05215
11.65 -0.05677
11.7 -0.05651
11.75 -0.05478
11.8 -0.0524
11.85 -0.05017
11.9 -0.05233
11.95 -0.05839
12 -0.06867
12.05 -0.0773
12.1 -0.08368
12.15 -0.08682
12.2 -0.08519
12.25 -0.0792
12.3 -0.07858
12.35 -0.08124
12.4 -0.08662
12.45 -0.09133
12.5 -0.09381
12.55 -0.0955
12.6 -0.09342
12.65 -0.09456
12.7 -0.09278
12.75 -0.08857
12.8 -0.08438
12.85 -0.08003
12.9 -0.07714
12.95 -0.07526
13 -0.07524
13.05 -0.0762
13.1 -0.07639
13.15 -0.07905
13.2 -0.08109
13.25 -0.07556
13.3 -0.06911
13.35 -0.0668
13.4 -0.06198
13.45 -0.06069
13.5 -0.05537
13.55 -0.05342
13.6 -0.04942
13.65 -0.04818
13.7 -0.04964
13.75 -0.05415
13.8 -0.06029
13.85 -0.06094
13.9 -0.05644
13.95 -0.05133
14 -0.04469
14.05 -0.03964
14.1 -0.03208
14.15 -0.03186
14.2 -0.02774
14.25 -0.02188
14.3 -0.0215
14.35 -0.01887
14.4 -0.02035
14.45 -0.02207
14.5 -0.02484
14.55 -0.02531
14.6 -0.02573
14.65 -0.02844
14.7 -0.02624
14.75 -0.02295
14.8 -0.02238
14.85 -0.02047
14.9 -0.02418
14.95 -0.03139
15 -0.03119
15.05 -0.03405
15.1 -0.03932
15.15 -0.03778
15.2 -0.03391
15.25 -0.03095
15.3 -0.03011
15.35 -0.02905
15.4 -0.02399
15.45 -0.02188
15.5 -0.01991
15.55 -0.01859
15.6 -0.01922
15.65 -0.02389
15.7 -0.02902
15.75 -0.03612
15.8 -0.04273
15.85 -0.04138
15.9 -0.04316
15.95 -0.04474
16 -0.04586
16.05 -0.04157
16.1 -0.03757
16.15 -0.03144
16.2 -0.0251
16.25 -0.02321
16.3 -0.01968
16.35 -0.02136
16.4 -0.02512
16.45 -0.02337
16.5 -0.0179
16.55 -0.01191
16.6 -0.01231
16.65 -0.01119
16.7 -0.01497
16.75 -0.01905
16.8 -0.01654
16.85 -0.01351
16.9 -0.00998
16.95 -0.00418
17 0.00018
17.05 -0.00189
17.1 -0.00071
17.15 -0.00022
17.2 0.00384
17.25 0.00243
17.3 0.00152
17.35 -0.00334
17.4 -0.00913
17.45 -0.00951
17.5 -0.0106
17.55 -0.00835
17.6 -0.00909
17.65 -0.01156
17.7 -0.01575
17.75 -0.01702
17.8 -0.02113
17.85 -0.02176
17.9 -0.01843
17.95 -0.01548
18 -0.0135
18.05 -0.00769
18.1 -0.00846
18.15 -0.00775
18.2 -0.00835
18.25 -0.0115
18.3 -0.01773
18.35 -0.02134
18.4 -0.01903
18.45 -0.01543
18.5 -0.01247
18.55 -0.01314
18.6 -0.01141
18.65 -0.00731
18.7 -0.00236
18.75 -0.00056
18.8 -0.00249
18.85 -0.00009
18.9 0.00403
18.95 0.00498
19 0.00362
19.05 0.0029
19.1 0.0033
19.15 0.00614
19.2 0.00374
19.25 -0.00029
19.3 -0.00527
19.35 -0.00425
19.4 -0.00466
19.45 -0.00595
19.5 -0.0053
19.55 -0.00397
19.6 -0.00764
19.65 -0.01181
19.7 -0.01472
19.75 -0.01253
19.8 -0.01041
19.85 -0.01001
19.9 -0.00796
19.95 -0.00446
20 -0.00429
20.05 -0.00475
20.1 -0.00594
20.15 -0.00405
20.2 -0.00513
20.25 -0.00404
20.3 -0.00371
20.35 -0.00583
20.4 -0.00253
20.45 -0.00002
20.5 -0.00087
20.55 -0.00576
20.6 -0.01154
20.65 -0.01116
20.7 -0.01113
20.75 -0.01475
20.8 -0.01715
20.85 -0.01471
20.9 -0.01426
20.95 -0.01109
21 -0.01256
21.05 -0.01137
21.1 -0.01463
21.15 -0.01299
21.2 -0.00881
21.25 -0.00895
21.3 -0.00795
21.35 -0.00946
21.4 -0.00866
21.45 -0.00807
21.5 -0.00868
21.55 -0.00663
21.6 -0.00569
21.65 -0.00709
21.7 -0.01007
21.75 -0.01346
21.8 -0.01709
21.85 -0.01359
21.9 -0.01441
21.95 -0.01245
22 -0.01137
22.05 -0.00555
22.1 -0.0024
22.15 -0.00199
22.2 -0.00374
22.25 -0.00145
22.3 0.00248
22.35 0.00908
22.4 0.01231
22.45 0.01053
22.5 0.00916
22.55 0.00859
22.6 0.01148
22.65 0.01462
22.7 0.01211
22.75 0.01179
22.8 0.01514
22.85 0.01476
22.9 0.01443
22.95 0.0127
23 0.0075
23.05 0.00484
23.1 0.00662
23.15 0.00563
23.2 0.0042
23.25 0.00602
23.3 0.00547
23.35 0.00407
23.4 0.00665
23.45 0.00728
23.5 0.00541
23.55 -0.00018
23.6 -0.00026
23.65 -0.00074
23.7 -0.00408
23.75 -0.01053
23.8 -0.01618
23.85 -0.01651
23.9 -0.01567
23.95 -0.01169
24 -0.009
24.05 -0.00564
24.1 -0.00528
24.15 -0.00138
24.2 0.00499
24.25 0.00394
24.3 0.00514
24.35 0.00075
24.4 -0.00058
24.45 -0.00295
24.5 -0.00182
24.55 0.00096
24.6 -0.00208
24.65 -0.00642
24.7 -0.00775
24.75 -0.00961
24.8 -0.00593
24.85 -0.00428
24.9 -0.00274
24.95 -0.00026
25 0.0017
25.05 0.00623
25.1 0.00537
25.15 0.00476
25.2 0.00678
25.25 0.00957
25.3 0.00794
25.35 0.01008
25.4 0.01138
25.45 0.01339
25.5 0.01543
25.55 0.01223
25.6 0.0087
25.65 0.01002
25.7 0.00936
25.75 0.01192
25.8 0.0159
25.85 0.01509
25.9 0.01253
25.95 0.01126
26 0.00574
26.05 -0.00329
26.1 -0.00947
26.15 -0.0172
26.2 -0.02267
26.25 -0.02822
26.3 -0.03387
26.35 -0.03412
26.4 -0.02902
26.45 -0.02563
26.5 -0.02432
26.55 -0.02565
26.6 -0.02315
26.65 -0.01543
26.7 -0.00605
26.75 0.0009
26.8 0.00868
26.85 0.00945
26.9 0.01083
26.95 0.01331
27 0.01092
27.05 0.00527
27.1 0.00159
27.15 0.00199
27.2 -0.00311
27.25 -0.00495
27.3 -0.00671
27.35 -0.00596
27.4 -0.00422
27.45 -0.00921
27.5 -0.01731
27.55 -0.02406
27.6 -0.02986
27.65 -0.03754
27.7 -0.0455
27.75 -0.05202
27.8 -0.06118
27.85 -0.06999
27.9 -0.07667
27.95 -0.08975
28 -0.10802
28.05 -0.12837
28.1 -0.15404
28.15 -0.17773
28.2 -0.20042
28.25 -0.23004
28.3 -0.25953
28.35 -0.29877
28.4 -0.34461
28.45 -0.3886
28.5 -0.43655
28.55 -0.49518
28.6 -0.55662
28.65 -0.62016
28.7 -0.6927
28.75 -0.76894
28.8 -0.84603
28.85 -0.92984
28.9 -1.01526
28.95 -1.10908
29 -1.20157
29.05 -1.2993
29.1 -1.39994
29.15 -1.50283
29.2 -1.60403
29.25 -1.69788
29.3 -1.78739
29.35 -1.8689
29.4 -1.94211
29.45 -2.01097
29.5 -2.07498
29.55 -2.12894
29.6 -2.17407
29.65 -2.20784
29.7 -2.22335
29.75 -2.23032
29.8 -2.22142
29.85 -2.19935
29.9 -2.1628
29.95 -2.11932
30 -2.06538
30.05 -1.99805
30.1 -1.92465
30.15 -1.83647
30.2 -1.73812
30.25 -1.6285
30.3 -1.51239
30.35 -1.38876
30.4 -1.25226
30.45 -1.11423
30.5 -0.96698
30.55 -0.81877
30.6 -0.66545
30.65 -0.51361
30.7 -0.36379
30.75 -0.21309
30.8 -0.06053
30.85 0.09409
30.9 0.24354
30.95 0.39184
31 0.53463
31.05 0.66873
31.1 0.79253
31.15 0.90524
31.2 1.00895
31.25 1.10626
31.3 1.20197
31.35 1.28811
31.4 1.37014
31.45 1.43997
31.5 1.50776
31.55 1.56939
31.6 1.61906
31.65 1.65861
31.7 1.69686
31.75 1.72606
31.8 1.7503
31.85 1.76916
31.9 1.78839
31.95 1.80484
32 1.8148
32.05 1.81719
32.1 1.82216
32.15 1.82409
32.2 1.82363
32.25 1.81639
32.3 1.80685
32.35 1.80129
32.4 1.79496
32.45 1.78861
32.5 1.78389
32.55 1.77869
32.6 1.77106
32.65 1.7543
32.7 1.73886
32.75 1.72149
32.8 1.70619
32.85 1.68506
32.9 1.66096
32.95 1.63275
33 1.60775
33.05 1.57785
33.1 1.55307
33.15 1.52267
33.2 1.49502
33.25 1.46823
33.3 1.43596
33.35 1.3977
33.4 1.35735
33.45 1.3177
33.5 1.27836
33.55 1.23558
33.6 1.19422
33.65 1.1529
33.7 1.11294
33.75 1.07081
33.8 1.02756
33.85 0.99107
33.9 0.95218
33.95 0.90958
34 0.86514
34.05 0.82183
34.1 0.78051
34.15 0.74375
34.2 0.71098
34.25 0.6739
34.3 0.63756
34.35 0.60223
34.4 0.56308
34.45 0.52222
34.5 0.48495
34.55 0.44499
34.6 0.4059
34.65 0.37207
34.7 0.33685
34.75 0.30061
34.8 0.26234
34.85 0.22455
34.9 0.1948
34.95 0.17046
35 0.1443
35.05 0.11727
35.1 0.09051
35.15 0.0686
35.2 0.04921
35.25 0.02579
35.3 0.00441
35.35 -0.0138
35.4 -0.03324
35.45 -0.04962
35.5 -0.06354
35.55 -0.08357
35.6 -0.10498
35.65 -0.12245
35.7 -0.14065
35.75 -0.15664
35.8 -0.17111
35.85 -0.18249
35.9 -0.1924
35.95 -0.19982
36 -0.20549
36.05 -0.21041
36.1 -0.21946
36.15 -0.23457
36.2 -0.24359
36.25 -0.24926
36.3 -0.25252
36.35 -0.25752
36.4 -0.2649
36.45 -0.27379
36.5 -0.28485
36.55 -0.29068
36.6 -0.2978
36.65 -0.30751
36.7 -0.31375
36.75 -0.31964
36.8 -0.32065
36.85 -0.32176
36.9 -0.32538
36.95 -0.32327
37 -0.31959
37.05 -0.31781
37.1 -0.3115
37.15 -0.31054
37.2 -0.31419
37.25 -0.31805
37.3 -0.31489
37.35 -0.31572
37.4 -0.3121
37.45 -0.31006
37.5 -0.30849
37.55 -0.30383
37.6 -0.29788
37.65 -0.29655
37.7 -0.29517
37.75 -0.28984
37.8 -0.28246
37.85 -0.27861
37.9 -0.27546
37.95 -0.27656
38 -0.27422
38.05 -0.26854
38.1 -0.26629
38.15 -0.26501
38.2 -0.26736
38.25 -0.26487
38.3 -0.26541
38.35 -0.25952
38.4 -0.25287
38.45 -0.24356
38.5 -0.23257
38.55 -0.22072
38.6 -0.20905
38.65 -0.20399
38.7 -0.20485
38.75 -0.20762
38.8 -0.2056
38.85 -0.20288
38.9 -0.19806
38.95 -0.19461
39 -0.19025
39.05 -0.18751
39.1 -0.18323
39.15 -0.18448
39.2 -0.18226
39.25 -0.17735
39.3 -0.17622
39.35 -0.17308
39.4 -0.17102
39.45 -0.16578
39.5 -0.15921
39.55 -0.15388
39.6 -0.15353
39.65 -0.15553
39.7 -0.15786
39.75 -0.15999
39.8 -0.16253
39.85 -0.16302
39.9 -0.16361
39.95 -0.1603
40 -0.15601
40.05 -0.1543
40.1 -0.14981
40.15 -0.14906
40.2 -0.14559
40.25 -0.14032
40.3 -0.14101
40.35 -0.13939
40.4 -0.13473
40.45 -0.12958
40.5 -0.1235
40.55 -0.11545
40.6 -0.11358
40.65 -0.11254
40.7 -0.11475
40.75 -0.11311
40.8 -0.11101
40.85 -0.10672
40.9 -0.10777
40.95 -0.10542
41 -0.10772
41.05 -0.11398
41.1 -0.11294
41.15 -0.11535
41.2 -0.11591
41.25 -0.11153
41.3 -0.10922
41.35 -0.10795
41.4 -0.10624
41.45 -0.10369
41.5 -0.1039
41.55 -0.10729
41.6 -0.10827
41.65 -0.11011
41.7 -0.1136
41.75 -0.11224
41.8 -0.10489
41.85 -0.10312
41.9 -0.10161
41.95 -0.10075
42 -0.10162
42.05 -0.1001
42.1 -0.09552
42.15 -0.08768
42.2 -0.08504
42.25 -0.08626
42.3 -0.08336
42.35 -0.07915
42.4 -0.07865
42.45 -0.07328
42.5 -0.06688
42.55 -0.06047
42.6 -0.05468
42.65 -0.04795
42.7 -0.04612
42.75 -0.04695
42.8 -0.04947
42.85 -0.0554
42.9 -0.06391
42.95 -0.06945
43 -0.07527
43.05 -0.08208
43.1 -0.08054
43.15 -0.07543
43.2 -0.07027
43.25 -0.06398
43.3 -0.05877
43.35 -0.05279
43.4 -0.04685
43.45 -0.04499
43.5 -0.04163
43.55 -0.04269
43.6 -0.04042
43.65 -0.03806
43.7 -0.03483
43.75 -0.02966
43.8 -0.02727
43.85 -0.02581
43.9 -0.02206
43.95 -0.02059
44 -0.02167
44.05 -0.0287
44.1 -0.03606
44.15 -0.04468
44.2 -0.0466
44.25 -0.04867
44.3 -0.0456
44.35 -0.04263
44.4 -0.04063
44.45 -0.03979
44.5 -0.04356
44.55 -0.04101
44.6 -0.04279
44.65 -0.04483
44.7 -0.04302
44.75 -0.04165
44.8 -0.03958
44.85 -0.03489
44.9 -0.03147
44.95 -0.03154
45 -0.03449
45.05 -0.03626
45.1 -0.03646
45.15 -0.03281
45.2 -0.03228
45.25 -0.03526
45.3 -0.03988
45.35 -0.03891
45.4 -0.03311
45.45 -0.03192
45.5 -0.03143
45.55 -0.02711
45.6 -0.02913
45.65 -0.02655
45.7 -0.02711
45.75 -0.02903
45.8 -0.03343
45.85 -0.03328
45.9 -0.02898
45.95 -0.02563
46 -0.02677
46.05 -0.02886
46.1 -0.02983
46.15 -0.02735
46.2 -0.02894
46.25 -0.03025
46.3 -0.03425
46.35 -0.0402
46.4 -0.04713
46.45 -0.05074
46.5 -0.04982
46.55 -0.04488
46.6 -0.03601
46.65 -0.02589
46.7 -0.01581
46.75 -0.01223
46.8 -0.00866
46.85 -0.00449
46.9 -0.00163
46.95 0.00254
47 0.00515
47.05 0.00752
47.1 0.01107
47.15 0.01036
47.2 0.00303
47.25 -0.00475
47.3 -0.01304
47.35 -0.01554
47.4 -0.01337
47.45 -0.01161
47.5 -0.00682
47.55 -0.00801
47.6 -0.00745
47.65 -0.00717
47.7 -0.00787
47.75 -0.00822
47.8 -0.00475
47.85 -0.00135
47.9 -0.00445
47.95 -0.00657
48 -0.00567
48.05 -0.00781
48.1 -0.00723
48.15 -0.01084
48.2 -0.01149
48.25 -0.01401
48.3 -0.01387
48.35 -0.01722
48.4 -0.01894
48.45 -0.01641
48.5 -0.01459
48.55 -0.01371
48.6 -0.01335
48.65 -0.01248
48.7 -0.0158
48.75 -0.02151
48.8 -0.02285
48.85 -0.02102
48.9 -0.01926
48.95 -0.01792
49 -0.01866
49.05 -0.0188
49.1 -0.01403
49.15 -0.00683
49.2 -0.00158
49.25 0.00009
49.3 0.00215
49.35 0.00685
49.4 0.01043
49.45 0.00843
49.5 0.00138
49.55 -0.00398
49.6 -0.01012
49.65 -0.01725
49.7 -0.02546
49.75 -0.03023
49.8 -0.03629
49.85 -0.04092
49.9 -0.0452
49.95 -0.04129
50 -0.03629
50.05 -0.02666
50.1 -0.02369
50.15 -0.02179
50.2 -0.01754
50.25 -0.01633
50.3 -0.0158
50.35 -0.01936
50.4 -0.01605
50.45 -0.01409
50.5 -0.01396
50.55 -0.0122
50.6 -0.01149
50.65 -0.01362
50.7 -0.01651
50.75 -0.01969
50.8 -0.01806
50.85 -0.02005
50.9 -0.02213
50.95 -0.02303
51 -0.0225
51.05 -0.02356
51.1 -0.02597
51.15 -0.02674
51.2 -0.02502
51.25 -0.02556
51.3 -0.02721
51.35 -0.02509
51.4 -0.02517
51.45 -0.0229
51.5 -0.02063
51.55 -0.01452
51.6 -0.0106
51.65 -0.01142
51.7 -0.00911
51.75 -0.00736
51.8 -0.00781
51.85 -0.00851
51.9 -0.01113
51.95 -0.01495
52 -0.01887
52.05 -0.01494
52.1 -0.00665
52.15 0.00081
52.2 0.00969
52.25 0.01798
52.3 0.01833
52.35 0.01994
52.4 0.01643
52.45 0.01208
52.5 0.01192
52.55 0.00979
52.6 0.01115
52.65 0.00799
52.7 0.00842
52.75 0.00379
52.8 0.00123
52.85 0.00048
52.9 -0.00401
52.95 -0.00797
53 -0.0074
53.05 -0.00867
53.1 -0.00733
53.15 -0.00562
53.2 -0.0041
53.25 0.00182
53.3 0.00296
53.35 0.00511
53.4 0.00382
53.45 0.00044
53.5 -0.00442
53.55 -0.0092
53.6 -0.01171
53.65 -0.0143
53.7 -0.01279
53.75 -0.00749
53.8 0.00002
53.85 0.00716
53.9 0.0107
53.95 0.00877
54 0.00282
54.05 -0.00531
54.1 -0.01313
54.15 -0.01836
54.2 -0.01927
54.25 -0.01636
54.3 -0.01561
54.35 -0.01498
54.4 -0.01191
54.45 -0.01226
54.5 -0.00762
54.55 -0.00679
54.6 -0.00846
54.65 -0.00965
54.7 -0.00575
54.75 -0.00627
54.8 -0.00921
54.85 -0.00592
54.9 -0.00385
54.95 -0.00419
55 -0.00278
55.05 0.00276
55.1 0.00371
55.15 0.008
55.2 0.01165
55.25 0.01578
55.3 0.01308
55.35 0.00742
55.4 0.0035
55.45 0.00532
55.5 0.00864
55.55 0.01263
55.6 0.01714
55.65 0.01887
55.7 0.01713
55.75 0.01167
55.8 0.00545
55.85 0.00261
55.9 -0.00207
55.95 -0.00329
56 -0.00381
56.05 -0.00517
56.1 -0.00549
56.15 -0.00799
56.2 -0.01319
56.25 -0.01623
56.3 -0.01508
56.35 -0.01141
56.4 -0.0087
56.45 -0.00737
56.5 -0.00705
56.55 -0.00984
56.6 -0.00615
56.65 -0.00348
56.7 0.0021
56.75 0.00764
56.8 0.00961
56.85 0.00839
56.9 0.00639
56.95 0.00705
57 0.00935
57.05 0.01087
57.1 0.00999
57.15 0.00476
57.2 0.00081
57.25 0.00054
57.3 -0.00332
57.35 -0.00594
57.4 -0.00733
57.45 -0.00862
57.5 -0.00411
57.55 0.00278
57.6 0.00491
57.65 0.00422
57.7 0.00811
57.75 0.01334
57.8 0.01178
57.85 0.00531
57.9 0.00537
57.95 0.00129
58 -0.0033
58.05 -0.00949
58.1 -0.01699
58.15 -0.02044
58.2 -0.01605
58.25 -0.01272
58.3 -0.00646
58.35 -0.00476
58.4 -0.00267
58.45 -0.00535
58.5 -0.00292
58.55 -0.00383
58.6 -0.00342
58.65 0.00142
58.7 0.00904
58.75 0.01796
58.8 0.02174
58.85 0.02512
58.9 0.02643
58.95 0.0263
59 0.01973
59.05 0.01538
59.1 0.01433
59.15 0.01455
59.2 0.013
59.25 0.00666
59.3 0.0059
59.35 0.00165
59.4 -0.00162
59.45 -0.0071
59.5 -0.01208
59.55 -0.01724
59.6 -0.0159
59.65 -0.01116
59.7 -0.00273
59.75 0.00751
59.8 0.01589
59.85 0.02117
59.9 0.02025
59.95 0.01693
60 0.01577
60.05 0.01435
60.1 0.00898
60.15 0.00475
60.2 0.0039
60.25 0.0008
60.3 -0.0046
60.35 -0.00816
60.4 -0.0106
60.45 -0.00751
60.5 -0.00912
60.55 -0.00708
60.6 -0.00407
60.65 -0.00493
60.7 -0.00823
60.75 -0.01294
60.8 -0.01916
60.85 -0.02267
60.9 -0.02689
60.95 -0.03147
61 -0.02743
61.05 -0.02691
61.1 -0.02054
61.15 -0.01184
61.2 -0.00197
61.25 0.00256
61.3 0.00406
61.35 0.0076
61.4 0.00908
61.45 0.00823
61.5 0.00648
61.55 0.0014
61.6 -0.0037
61.65 -0.00697
61.7 -0.01172
61.75 -0.00915
61.8 -0.01085
61.85 -0.01036
61.9 -0.00845
61.95 -0.00706
62 -0.00552
62.05 -0.00164
62.1 -0.0022
62.15 -0.00511
62.2 -0.00384
62.25 -0.00504
62.3 -0.0015
62.35 -0.0024
62.4 -0.00618
62.45 -0.00379
62.5 -0.0018
62.55 -0.00469
62.6 -0.00384
62.65 0.0005
62.7 0.00366
62.75 0.00558
62.8 0.00716
62.85 0.0108
62.9 0.00924
62.95 0.01209
63 0.0119
63.05 0.00995
63.1 0.00963
63.15 0.00608
63.2 0.00057
63.25 -0.00065
63.3 -0.00406
63.35 -0.00604
63.4 -0.00869
63.45 -0.00961
63.5 -0.00474
63.55 0.00364
63.6 0.0095
63.65 0.01497
63.7 0.02197
63.75 0.02636
63.8 0.02689
63.85 0.02497
63.9 0.02393
63.95 0.02156
64 0.01808
64.05 0.0139
64.1 0.00929
64.15 0.00981
64.2 0.00583
64.25 0.00019
64.3 -0.00652
64.35 -0.01227
64.4 -0.01226
64.45 -0.00774
64.5 -0.00237
64.55 -0.00111
64.6 -0.00481
64.65 -0.00593
64.7 -0.00702
64.75 -0.01029
64.8 -0.01087
64.85 -0.00561
64.9 -0.00511
64.95 0.00002
65 0.00719
65.05 0.01524
65.1 0.02244
65.15 0.0284
65.2 0.02627
65.25 0.01854
65.3 0.01001
65.35 0.00558
65.4 -0.0007
65.45 -0.00704
65.5 -0.01325
65.55 -0.01687
65.6 -0.01564
65.65 -0.01446
65.7 -0.00821
65.75 -0.00531
65.8 0.00146
65.85 0.0045
65.9 0.00321
65.95 0.00377
66 0.00004
66.05 -0.0008
66.1 -0.0025
66.15 -0.00791
66.2 -0.00914
66.25 -0.00684
66.3 -0.00293
66.35 0.00441
66.4 0.00642
66.45 0.00726
66.5 0.00505
66.55 0.00094
66.6 0.00133
66.65 0.00112
66.7 -0.00344
66.75 -0.00246
66.8 -0.00588
66.85 -0.00864
66.9 -0.0082
66.95 -0.01169
67 -0.01099
67.05 -0.00675
67.1 -0.00278
67.15 0.0004
67.2 0.00175
67.25 0.00461
67.3 0.00756
67.35 0.00906
67.4 0.01155
67.45 0.00943
67.5 0.00873
67.55 0.01165
67.6 0.0124
67.65 0.01376
67.7 0.01491
67.75 0.01332
67.8 0.00641
67.85 0.00188
67.9 0.00162
67.95 -0.0007
68 -0.00041
68.05 0.00099
68.1 0.00285
68.15 -0.00088
68.2 -0.00493
68.25 -0.01013
68.3 -0.0108
68.35 -0.01394
68.4 -0.01179
68.45 -0.01171
68.5 -0.01316
68.55 -0.01273
68.6 -0.01085
68.65 -0.01314
68.7 -0.01753
68.75 -0.01433
68.8 -0.01007
68.85 -0.00315
68.9 0.00116
68.95 0.00417
69 0.00425
69.05 0.0067
69.1 0.0111
69.15 0.01442
69.2 0.01113
69.25 0.01014
69.3 0.00733
69.35 0.00727
69.4 0.00282
69.45 0.00307
69.5 -0.00065
69.55 -0.00147
69.6 0.00222
69.65 0.0044
69.7 0.00608
69.75 0.01121
69.8 0.01239
69.85 0.01509
69.9 0.01579
69.95 0.01875
70 0.02313
70.05 0.02462
70.1 0.02446
70.15 0.01968
70.2 0.01605
70.25 0.01113
70.3 0.00702
70.35 0.00028
70.4 -0.00446
70.45 -0.01122
70.5 -0.01126
70.55 -0.00815
70.6 -0.00155
70.65 -0.00159
70.7 -0.00382
70.75 -0.00508
70.8 -0.00933
70.85 -0.00988
70.9 -0.01343
70.95 -0.01595
71 -0.01562
71.05 -0.01707
71.1 -0.01837
71.15 -0.0207
71.2 -0.02426
71.25 -0.02014
71.3 -0.0145
71.35 -0.00948
71.4 -0.00847
71.45 -0.01127
71.5 -0.01408
71.55 -0.0165
71.6 -0.01545
71.65 -0.01531
71.7 -0.01004
71.75 -0.0038
71.8 0.00477
71.85 0.01437
71.9 0.01529
71.95 0.01089
72 0.00693
72.05 0.00039
72.1 -0.00418
72.15 -0.00952
72.2 -0.01511
72.25 -0.01389
72.3 -0.01086
72.35 -0.00962
72.4 -0.00809
72.45 -0.00887
72.5 -0.01263
72.55 -0.01442
72.6 -0.01782
72.65 -0.01722
72.7 -0.0125
72.75 -0.00909
72.8 -0.00162
72.85 0.00571
72.9 0.01072
72.95 0.01186
73 0.01521
73.05 0.01263
73.1 0.00944
73.15 0.00864
73.2 0.00906
73.25 0.0079
73.3 0.00296
73.35 -0.00019
73.4 0.00002
73.45 0.00459
73.5 0.00468
73.55 0.00789
73.6 0.00809
73.65 0.0108
73.7 0.01093
73.75 0.01294
73.8 0.01258
73.85 0.00678
73.9 -0.00141
73.95 -0.00799
74 -0.01615
74.05 -0.02155
74.1 -0.02769
74.15 -0.03244
74.2 -0.03656
74.25 -0.03517
74.3 -0.03385
74.35 -0.03139
74.4 -0.02474
74.45 -0.01477
74.5 -0.00628
74.55 0.00054
74.6 0.00524
74.65 0.00901
74.7 0.00739
74.75 0.00883
74.8 0.01069
74.85 0.00883
74.9 0.01007
74.95 0.00664
75 0.00637
75.05 0.00336
75.1 -0.002
75.15 -0.00717
75.2 -0.00588
75.25 -0.00593
75.3 -0.00376
75.35 -0.0057
75.4 -0.0053
75.45 -0.00054
75.5 -0.00101
75.55 0.0014
75.6 0.00172
75.65 -0.00245
75.7 -0.00436
75.75 -0.00725
75.8 -0.00783
75.85 -0.0086
75.9 -0.00748
75.95 -0.00246
76 -0.00093
76.05 -0.00101
76.1 0.00354
76.15 0.0097
76.2 0.01274
76.25 0.01426
76.3 0.01381
76.35 0.01482
76.4 0.01311
76.45 0.01474
76.5 0.01884
76.55 0.02404
76.6 0.02899
76.65 0.02774
76.7 0.02083
76.75 0.01829
76.8 0.01384
76.85 0.00764
76.9 0.00621
76.95 0.00076
77 0.0003
77.05 -0.00404
77.1 -0.01078
77.15 -0.01425
77.2 -0.01909
77.25 -0.01928
77.3 -0.01802
77.35 -0.01421
77.4 -0.01131
77.45 -0.00879
77.5 -0.00938
77.55 -0.01112
77.6 -0.0123
77.65 -0.0153
77.7 -0.01212
77.75 -0.01327
77.8 -0.00979
77.85 -0.00385
77.9 0.00398
77.95 0.00892
78 0.01098
78.05 0.01579
78.1 0.02232
78.15 0.02575
78.2 0.03042
78.25 0.02963
78.3 0.02516
78.35 0.01748
78.4 0.01301
78.45 0.00802
78.5 0.00796
78.55 0.00582
78.6 0.00671
78.65 0.00471
78.7 0.00189
78.75 -0.00223
78.8 -0.00062
78.85 -0.0036
78.9 -0.00252
78.95 -0.00264
79 0.00194
79.05 0.00432
79.1 0.0027
79.15 -0.00182
79.2 -0.00542
79.25 -0.00972
79.3 -0.01162
79.35 -0.00859
79.4 -0.00959
79.45 -0.00899
79.5 -0.00354
79.55 0.00148
79.6 0.00301
79.65 0.00452
79.7 0.00379
79.75 0.00443
79.8 0.0083
79.85 0.01358
79.9 0.01191
79.95 0.00732
80 0.00533
80.05 0.00218
80.1 0.00219
80.15 0.0019
80.2 -0.00304
80.25 -0.00425
80.3 -0.00928
80.35 -0.00803
80.4 -0.00838
80.45 -0.00767
80.5 -0.00687
80.55 -0.00219
80.6 0.00089
80.65 -0.00179
80.7 -0.00548
80.75 -0.00669
80.8 -0.01014
80.85 -0.01418
80.9 -0.01853
80.95 -0.01616
81 -0.01311
81.05 -0.01251
81.1 -0.01265
81.15 -0.01586
81.2 -0.01711
81.25 -0.01451
81.3 -0.00718
81.35 -0.00464
81.4 0.00088
81.45 -0.00012
81.5 0.00263
81.55 0.0005
81.6 -0.00209
81.65 -0.0009
81.7 -0.0037
81.75 -0.00319
81.8 -0.00222
81.85 -0.00391
81.9 -0.0011
81.95 0.00304
82 0.00259
82.05 -0.0002
82.1 0.00123
82.15 -0.00005
82.2 -0.00308
82.25 -0.00844
82.3 -0.01256
82.35 -0.01639
82.4 -0.01318
82.45 -0.00721
82.5 -0.00645
82.55 -0.00185
82.6 0.0051
82.65 0.00985
82.7 0.01585
82.75 0.01634
82.8 0.01524
82.85 0.01259
82.9 0.00604
82.95 -0.00231
83 -0.00305
83.05 -0.00157
83.1 0.00259
83.15 0.00087
83.2 0.00348
83.25 0.00458
83.3 0.00773
83.35 0.01014
83.4 0.01272
83.45 0.01253
83.5 0.01292
83.55 0.01247
83.6 0.00674
83.65 0.00419
83.7 0.00617
83.75 0.00361
83.8 0.00315
83.85 0.00268
83.9 0.00542
83.95 0.0043
84 0.00709
84.05 0.01091
84.1 0.00794
84.15 0.00217
84.2 -0.00247
84.25 -0.00215
84.3 -0.00398
84.35 -0.00179
84.4 -0.0024
84.45 0.00079
84.5 0.00311
84.55 0.00154
84.6 -0.00404
84.65 -0.00687
84.7 -0.00511
84.75 -0.00159
84.8 -0.00009
84.85 -0.00309
84.9 -0.00848
84.95 -0.01115
85 -0.01242
85.05 -0.01425
85.1 -0.01766
85.15 -0.0181
85.2 -0.0197
85.25 -0.01566
85.3 -0.01265
85.35 -0.00888
85.4 -0.003
85.45 0.00331
85.5 0.00444
85.55 0.00848
85.6 0.0131
85.65 0.01385
85.7 0.01299
85.75 0.01222
85.8 0.00942
85.85 0.00756
85.9 0.00675
85.95 0.00943
86 0.01123
86.05 0.00807
86.1 0.00119
86.15 -0.00776
86.2 -0.0099
86.25 -0.00941
86.3 -0.01075
86.35 -0.01018
86.4 -0.01032
86.45 -0.00574
86.5 -0.00207
86.55 0.00223
86.6 0.00587
86.65 0.00835
86.7 0.00714
86.75 0.00658
86.8 0.00472
86.85 -0.00149
86.9 -0.00576
86.95 -0.01123
87 -0.0184
87.05 -0.01778
87.1 -0.01691
87.15 -0.013
87.2 -0.00869
87.25 -0.00581
87.3 0.00017
87.35 0.00216
87.4 -0.00118
87.45 -0.00453
87.5 -0.00702
87.55 -0.01034
87.6 -0.01314
87.65 -0.01299
87.7 -0.0085
87.75 -0.00551
87.8 -0.00688
87.85 -0.00521
87.9 -0.00511
87.95 -0.00364
88 0.00127
88.05 0.00734
88.1 0.01206
88.15 0.00994
88.2 0.00854
88.25 0.00402
88.3 0.00538
88.35 0.00942
88.4 0.01183
88.45 0.01166
88.5 0.00628
88.55 0.00303
88.6 -0.00393
88.65 -0.00354
88.7 -0.00013
88.75 0.006
88.8 0.01181
88.85 0.0118
88.9 0.00852
88.95 0.00252
89 -0.00563
89.05 -0.00706
89.1 -0.00391
89.15 -0.00305
89.2 0.00152
89.25 0.00104
89.3 0.00039
89.35 0.00253
89.4 0.00302
89.45 0.00203
89.5 0.00347
89.55 0.00264
89.6 0.00274
89.65 0.00418
89.7 0.00306
89.75 -0.00265
89.8 -0.00969
89.85 -0.00966
89.9 -0.00603
89.95 -0.00264
90 0.00262
90.05 0.00579
90.1 0.0065
90.15 0.0035
90.2 0.00507
90.25 0.00524
90.3 0.00477
90.35 0.0084
90.4 0.01097
90.45 0.00988
90.5 0.01268
90.55 0.0101
90.6 0.01196
90.65 0.00898
90.7 0.00389
90.75 0.00335
90.8 0.00707
90.85 0.0072
90.9 0.00243
90.95 -0.00351
91 -0.00315
91.05 -0.00543
91.1 -0.00887
91.15 -0.01386
91.2 -0.01502
91.25 -0.01118
91.3 -0.01087
91.35 -0.00906
91.4 -0.00599
91.45 -0.00522
91.5 -0.00754
91.55 -0.00467
91.6 0.00032
91.65 0.001
91.7 0.00478
91.75 0.00311
91.8 0.00422
91.85 0.00016
91.9 -0.00213
91.95 -0.0047
92 -0.00281
92.05 0.0018
92.1 0.00721
92.15 0.00748
92.2 0.01032
92.25 0.01141
92.3 0.01272
92.35 0.00901
92.4 0.00434
92.45 -0.0036
92.5 -0.00753
92.55 -0.01109
92.6 -0.01468
92.65 -0.02024
92.7 -0.01831
92.75 -0.01573
92.8 -0.01115
92.85 -0.01143
92.9 -0.01297
92.95 -0.00942
93 -0.00677
93.05 -0.00762
93.1 -0.00636
93.15 -0.00513
93.2 -0.00614
93.25 -0.00386
93.3 0.00006
93.35 0.00051
93.4 -0.00118
93.45 -0.00108
93.5 0.00111
93.55 0.00569
93.6 0.00729
93.65 0.01079
93.7 0.00954
93.75 0.00551
93.8 0.00207
93.85 0.00369
93.9 0.00007
93.95 -0.00289
94 -0.00813
94.05 -0.00838
94.1 -0.00744
94.15 -0.00342
94.2 -0.00393
94.25 -0.00285
94.3 -0.00506
94.35 -0.00247
94.4 0.0019
94.45 0.00292
94.5 0.0072
94.55 0.00972
94.6 0.01081
94.65 0.01135
94.7 0.01038
94.75 0.01183
94.8 0.01426
94.85 0.01106
94.9 0.00872
94.95 0.01052
95 0.01298
95.05 0.01402
95.1 0.01186
95.15 0.01055
95.2 0.01027
95.25 0.01279
95.3 0.00908
95.35 0.00293
95.4 -0.00263
95.45 -0.00757
95.5 -0.01272
95.55 -0.01306
95.6 -0.01606
95.65 -0.01927
95.7 -0.01757
95.75 -0.01439
95.8 -0.00923
95.85 -0.00429
95.9 -0.00064
95.95 0.00349
96 0.00758
96.05 0.00809
96.1 0.00334
96.15 0.00328
96.2 0.00069
96.25 0.00307
96.3 0.00484
96.35 0.00115
96.4 0.00153
96.45 0.0028
96.5 0.00597
96.55 0.00575
96.6 0.00189
96.65 -0.00215
96.7 -0.00452
96.75 -0.00969
96.8 -0.01037
96.85 -0.01265
96.9 -0.01588
96.95 -0.01359
97 -0.00992
97.05 -0.0108
97.1 -0.00912
97.15 -0.00906
97.2 -0.00799
97.25 -0.01055
97.3 -0.01104
97.35 -0.01307
97.4 -0.01312
97.45 -0.01043
97.5 -0.01007
97.55 -0.00886
97.6 -0.01013
97.65 -0.01399
97.7 -0.0147
97.75 -0.01212
97.8 -0.00727
97.85 -0.00048
97.9 0.00379
97.95 0.00224
98 -0.00295
98.05 -0.00122
98.1 -0.00206
98.15 -0.00058
98.2 0.00383
98.25 0.00359
98.3 0.00282
98.35 0.00295
98.4 0.00692
98.45 0.01082
98.5 0.01415
98.55 0.01306
98.6 0.01021
98.65 0.00528
98.7 0.0048
98.75 0.00414
98.8 0.00737
98.85 0.01172
98.9 0.00981
98.95 0.00666
99 0.0039
99.05 0.00504
99.1 0.00486
99.15 0.00413
99.2 -0.00043
99.25 -0.00394
99.3 -0.00171
99.35 0.00401
99.4 0.01131
99.45 0.01135
99.5 0.01285
99.55 0.01504
99.6 0.01922
99.65 0.01557
99.7 0.01113
99.75 0.00545
99.8 0.0057
99.85 0.00153
99.9 -0.00457
99.95 -0.00798
