0 0
0.05 0.0035
0.1 0.00845
0.15 0.01519
0.2 0.01816
0.25 0.01872
0.3 0.019
0.35 0.0211
0.4 0.02622
0.45 0.03079
0.5 0.0377
0.55 0.03901
0.6 0.04246
0.65 0.04636
0.7 0.0473
0.75 0.04934
0.8 0.04813
0.85 0.04936
0.9 0.04628
0.95 0.04181
1 0.03688
1.05 0.03275
1.1 0.03326
1.15 0.03036
1.2 0.029
1.25 0.0297
1.3 0.02779
1.35 0.02939
1.4 0.03086
1.45 0.03278
1.5 0.0347
1.55 0.03505
1.6 0.03631
1.65 0.04038
1.7 0.04364
1.75 0.04639
1.8 0.04841
1.85 0.04801
1.9 0.04322
1.95 0.03786
2 0.02992
2.05 0.02139
2.1 0.01832
2.15 0.01968
2.2 0.01795
2.25 0.01873
2.3 0.01654
2.35 0.01416
2.4 0.01013
2.45 0.01084
2.5 0.01145
2.55 0.0106
2.6 0.00853
2.65 0.00785
2.7 0.00823
2.75 0.01327
2.8 0.01516
2.85 0.01596
2.9 0.01919
2.95 0.02317
3 0.02234
3.05 0.022
3.1 0.02221
3.15 0.02078
3.2 0.02203
3.25 0.02096
3.3 0.02197
3.35 0.02464
3.4 0.02443
3.45 0.02283
3.5 0.0232
3.55 0.02152
3.6 0.0174
3.65 0.01436
3.7 0.01541
3.75 0.01243
3.8 0.01083
3.85 0.00942
3.9 0.00559
3.95 0.00282
4 0.00435
4.05 0.00561
4.1 0.00644
4.15 0.00947
4.2 0.00971
4.25 0.00856
4.3 0.00675
4.35 0.00828
4.4 0.01021
4.45 0.01549
4.5 0.01787
4.55 0.02022
4.6 0.02091
4.65 0.01903
4.7 0.0211
4.75 0.02006
4.8 0.01598
4.85 0.01213
4.9 0.00933
4.95 0.00528
5 0.00355
5.05 0.00309
5.1 0.0053
5.15 0.00746
5.2 0.01229
5.25 0.01611
5.3 0.01888
5.35 0.02266
5.4 0.0269
5.45 0.02456
5.5 0.02333
5.55 0.02321
5.6 0.01981
5.65 0.01594
5.7 0.01476
5.75 0.0104
5.8 0.00484
5.85 0.00181
5.9 0.00111
5.95 0.00158
6 0.00117
6.05 0.0033
6.1 0.00753
6.15 0.00999
6.2 0.01154
6.25 0.0105
6.3 0.01165
6.35 0.01188
6.4 0.00832
6.45 0.00348
6.5 0.00261
6.55 0.00345
6.6 0.00571
6.65 0.00349
6.7 -0.00075
6.75 -0.00431
6.8 -0.0088
6.85 -0.01229
6.9 -0.0125
6.95 -0.01394
7 -0.0131
7.05 -0.01387
7.1 -0.00998
7.15 -0.00609
7.2 -0.00256
7.25 0.00117
7.3 0.00373
7.35 0.00598
7.4 0.00487
7.45 0.0055
7.5 0.00677
7.55 0.00786
7.6 0.0114
7.65 0.01539
7.7 0.01929
7.75 0.0212
7.8 0.02496
7.85 0.02801
7.9 0.0257
7.95 0.02453
8 0.02064
8.05 0.01304
8.1 0.00964
8.15 0.00476
8.2 0.00307
8.25 0.00072
8.3 -0.00426
8.35 -0.00357
8.4 -0.00109
8.45 0.004
8.5 0.0038
8.55 0.00704
8.6 0.00725
8.65 0.0045
8.7 0.00594
8.75 0.00756
8.8 0.00764
8.85 0.00445
8.9 0.00581
8.95 0.00824
9 0.00872
9.05 0.0077
9.1 0.00411
9.15 0.00222
9.2 0.00207
9.25 0.00512
9.3 0.01042
9.35 0.01115
9.4 0.00986
9.45 0.00538
9.5 0.00436
9.55 0.00725
9.6 0.01249
9.65 0.01264
9.7 0.01178
9.75 0.01024
9.8 0.00687
9.85 0.0005
9.9 -0.00709
9.95 -0.00963
10 -0.01285
10.05 -0.01422
10.1 -0.01671
10.15 -0.01486
10.2 -0.01283
10.25 -0.00919
10.3 -0.00548
10.35 0.00144
10.4 0.00484
10.45 0.00912
10.5 0.00881
10.55 0.01032
10.6 0.00766
10.65 0.00603
10.7 0.00631
10.75 0.00921
10.8 0.00909
10.85 0.01018
10.9 0.01155
10.95 0.01124
11 0.00768
11.05 0.00188
11.1 -0.00277
11.15 -0.00424
11.2 -0.00745
11.25 -0.01197
11.3 -0.01376
11.35 -0.01659
11.4 -0.01602
11.45 -0.01569
11.5 -0.01317
11.55 -0.00948
11.6 -0.0075
11.65 -0.0031
11.7 0.00011
11.75 0.00389
11.8 0.00308
11.85 -0.00098
11.9 -0.00496
11.95 -0.00521
12 -0.00765
12.05 -0.0083
12.1 -0.0106
12.15 -0.01215
12.2 -0.01162
12.25 -0.00663
12.3 -0.00529
12.35 -0.0055
12.4 -0.00693
12.45 -0.01037
12.5 -0.01119
12.55 -0.00883
12.6 -0.0074
12.65 -0.00905
12.7 -0.00719
12.75 -0.00319
12.8 -0.0024
12.85 -0.00444
12.9 -0.00851
12.95 -0.00954
13 -0.00593
13.05 -0.00219
13.1 0.00286
13.15 0.00791
13.2 0.00726
13.25 0.00297
13.3 -0.00278
13.35 -0.00801
13.4 -0.00885
13.45 -0.00939
13.5 -0.00779
13.55 -0.00641
13.6 -0.00688
13.65 -0.00926
13.7 -0.00996
13.75 -0.00583
13.8 -0.00331
13.85 -0.00123
13.9 -0.00037
13.95 -0.00213
14 -0.00122
14.05 -0.00041
14.1 -0.00051
14.15 -0.00197
14.2 0.00156
14.25 0.00416
14.3 0.00935
14.35 0.01461
14.4 0.01977
14.45 0.02002
14.5 0.01808
14.55 0.01244
14.6 0.0084
14.65 0.00326
14.7 -0.00299
14.75 -0.00819
14.8 -0.0102
14.85 -0.01062
14.9 -0.00906
14.95 -0.00484
15 0.00225
15.05 0.00777
15.1 0.00898
15.15 0.00631
15.2 0.00293
15.25 0.00052
15.3 -0.0017
15.35 -0.00183
15.4 -0.00156
15.45 0.00099
15.5 0.0045
15.55 0.00473
15.6 0.00769
15.65 0.00642
15.7 0.00626
15.75 0.0064
15.8 0.0045
15.85 0.00501
15.9 0.00519
15.95 0.00356
16 0.00008
16.05 0.00109
16.1 0.0008
16.15 -0.00293
16.2 -0.00643
16.25 -0.00617
16.3 -0.00152
16.35 0.00345
16.4 0.00863
16.45 0.0092
16.5 0.00711
16.55 0.00919
16.6 0.01248
16.65 0.01669
16.7 0.01997
16.75 0.01772
16.8 0.01134
16.85 0.00821
16.9 0.00934
16.95 0.01219
17 0.01476
17.05 0.017
17.1 0.02017
17.15 0.0199
17.2 0.02149
17.25 0.01748
17.3 0.01538
17.35 0.01647
17.4 0.01705
17.45 0.01305
17.5 0.00848
17.55 0.00257
17.6 -0.00461
17.65 -0.00992
17.7 -0.01571
17.75 -0.01978
17.8 -0.01795
17.85 -0.01164
17.9 -0.00307
17.95 0.00039
18 -0.00055
18.05 0.00249
18.1 0.00167
18.15 0.00432
18.2 0.0091
18.25 0.01022
18.3 0.00714
18.35 0.00341
18.4 0.00368
18.45 0.0068
18.5 0.00839
18.55 0.01042
18.6 0.00729
18.65 0.00596
18.7 0.00131
18.75 -0.00135
18.8 -0.00518
18.85 -0.00796
18.9 -0.01287
18.95 -0.01327
19 -0.01324
19.05 -0.01565
19.1 -0.01584
19.15 -0.01134
19.2 -0.00536
19.25 -0.00091
19.3 -0.00039
19.35 -0.00286
19.4 -0.00315
19.45 0.00021
19.5 0.00343
19.55 0.00352
19.6 0.00137
19.65 0.00319
19.7 0.00447
19.75 0.00661
19.8 0.01129
19.85 0.01548
19.9 0.01343
19.95 0.0121
20 0.01019
20.05 0.01006
20.1 0.00729
20.15 0.00232
20.2 -0.00489
20.25 -0.01015
20.3 -0.01493
20.35 -0.01297
20.4 -0.0082
20.45 -0.00089
20.5 0.00348
20.55 0.00972
20.6 0.00994
20.65 0.01131
20.7 0.00962
20.75 0.00576
20.8 0.00399
20.85 0.00591
20.9 0.01021
20.95 0.0091
21 0.00866
21.05 0.00601
21.1 0.00333
21.15 0.00246
21.2 0.00078
21.25 -0.00397
21.3 -0.00827
21.35 -0.01194
21.4 -0.01039
21.45 -0.012
21.5 -0.01568
21.55 -0.01576
21.6 -0.0175
21.65 -0.01637
21.7 -0.01624
21.75 -0.0132
21.8 -0.01204
21.85 -0.00975
21.9 -0.00685
21.95 -0.00106
22 0.00184
22.05 0.00137
22.1 -0.00169
22.15 -0.00349
22.2 -0.00108
22.25 0.00309
22.3 0.00704
22.35 0.01169
22.4 0.01353
22.45 0.01477
22.5 0.01078
22.55 0.007
22.6 0.00733
22.65 0.00934
22.7 0.006
22.75 0.00341
22.8 0.00271
22.85 0.0026
22.9 -0.0014
22.95 -0.0035
23 -0.00572
23.05 -0.00891
23.1 -0.00688
23.15 -0.00403
23.2 -0.00326
23.25 0.00031
23.3 0.00307
23.35 0.00271
23.4 0.0024
23.45 0.00358
23.5 0.0055
23.55 0.00487
23.6 0.0013
23.65 -0.00244
23.7 -0.00326
23.75 -0.00682
23.8 -0.00937
23.85 -0.01059
23.9 -0.01267
23.95 -0.01086
24 -0.00757
24.05 -0.00826
24.1 -0.01103
24.15 -0.01289
24.2 -0.00948
24.25 -0.00733
24.3 -0.00517
24.35 -0.00087
24.4 0.00385
24.45 0.00835
24.5 0.00683
24.55 0.00562
24.6 0.00692
24.65 0.00669
24.7 0.00816
24.75 0.01162
24.8 0.00917
24.85 0.00696
24.9 0.00732
24.95 0.00594
25 0.00621
25.05 0.00876
25.1 0.00869
25.15 0.01075
25.2 0.00913
25.25 0.00783
25.3 0.0095
25.35 0.01134
25.4 0.00959
25.45 0.00712
25.5 0.00421
25.55 0.00064
25.6 0.00122
25.65 -0.00148
25.7 -0.00694
25.75 -0.00637
25.8 -0.00642
25.85 -0.00369
25.9 -0.00196
25.95 -0.00442
26 -0.00324
26.05 -0.00083
26.1 0.00231
26.15 0.00121
26.2 -0.00027
26.25 -0.00081
26.3 0.00113
26.35 -0.00071
26.4 -0.00058
26.45 0.00234
26.5 0.00521
26.55 0.00634
26.6 0.00505
26.65 -0.00015
26.7 -0.00668
26.75 -0.01202
26.8 -0.01654
26.85 -0.015
26.9 -0.0166
26.95 -0.01507
27 -0.00931
27.05 -0.00804
27.1 -0.00638
27.15 -0.00672
27.2 -0.0101
27.25 -0.00878
27.3 -0.01019
27.35 -0.0124
27.4 -0.01487
27.45 -0.01505
27.5 -0.0123
27.55 -0.01297
27.6 -0.01014
27.65 -0.00427
27.7 -0.00205
27.75 0.00211
27.8 0.00309
27.85 0.00418
27.9 0.00496
27.95 0.00037
28 -0.00243
28.05 -0.00496
28.1 -0.01307
28.15 -0.01991
28.2 -0.03065
28.25 -0.04187
28.3 -0.05215
28.35 -0.05971
28.4 -0.06623
28.45 -0.07394
28.5 -0.08548
28.55 -0.0989
28.6 -0.11752
28.65 -0.14173
28.7 -0.17262
28.75 -0.20485
28.8 -0.24589
28.85 -0.28905
28.9 -0.33574
28.95 -0.39104
29 -0.44854
29.05 -0.51086
29.1 -0.58044
29.15 -0.65833
29.2 -0.74095
29.25 -0.82858
29.3 -0.92122
29.35 -1.01535
29.4 -1.11459
29.45 -1.22139
29.5 -1.33263
29.55 -1.4422
29.6 -1.5512
29.65 -1.65967
29.7 -1.76274
29.75 -1.86512
29.8 -1.96103
29.85 -2.05452
29.9 -2.14008
29.95 -2.21768
30 -2.28492
30.05 -2.33813
30.1 -2.37786
30.15 -2.40007
30.2 -2.41065
30.25 -2.40837
30.3 -2.39027
30.35 -2.35894
30.4 -2.30634
30.45 -2.24041
30.5 -2.16112
30.55 -2.06439
30.6 -1.95075
30.65 -1.82322
30.7 -1.68904
30.75 -1.54757
30.8 -1.39234
30.85 -1.23291
30.9 -1.06373
30.95 -0.89204
31 -0.72043
31.05 -0.54836
31.1 -0.37429
31.15 -0.20451
31.2 -0.04018
31.25 0.12492
31.3 0.2822
31.35 0.4351
31.4 0.58072
31.45 0.7202
31.5 0.85366
31.55 0.97755
31.6 1.08833
31.65 1.19007
31.7 1.2874
31.75 1.37446
31.8 1.45033
31.85 1.51924
31.9 1.57898
31.95 1.63137
32 1.67492
32.05 1.71697
32.1 1.75068
32.15 1.77876
32.2 1.79973
32.25 1.81712
32.3 1.83028
32.35 1.84066
32.4 1.84643
32.45 1.85281
32.5 1.85344
32.55 1.8499
32.6 1.84441
32.65 1.84074
32.7 1.83635
32.75 1.83133
32.8 1.82285
32.85 1.81548
32.9 1.80962
32.95 1.80004
33 1.78904
33.05 1.77249
33.1 1.75797
33.15 1.73915
33.2 1.72156
33.25 1.69798
33.3 1.67166
33.35 1.64788
33.4 1.62582
33.45 1.59975
33.5 1.57216
33.55 1.54064
33.6 1.50383
33.65 1.46631
33.7 1.43015
33.75 1.39192
33.8 1.35181
33.85 1.31301
33.9 1.2714
33.95 1.22832
34 1.18993
34.05 1.14956
34.1 1.11008
34.15 1.0685
34.2 1.02704
34.25 0.98841
34.3 0.94562
34.35 0.90356
34.4 0.86338
34.45 0.82
34.5 0.78094
34.55 0.74289
34.6 0.70491
34.65 0.66955
34.7 0.63241
34.75 0.5952
34.8 0.55631
34.85 0.51487
34.9 0.47624
34.95 0.43906
35 0.40497
35.05 0.37148
35.1 0.33636
35.15 0.30033
35.2 0.26476
35.25 0.22917
35.3 0.19206
35.35 0.16185
35.4 0.13476
35.45 0.11034
35.5 0.08522
35.55 0.05685
35.6 0.02677
35.65 -0.00227
35.7 -0.02415
35.75 -0.04771
35.8 -0.06725
35.85 -0.08691
35.9 -0.10797
35.95 -0.12404
36 -0.13735
36.05 -0.15364
36.1 -0.16564
36.15 -0.1803
36.2 -0.1964
36.25 -0.21239
36.3 -0.22222
36.35 -0.23192
36.4 -0.24256
36.45 -0.24986
36.5 -0.25329
36.55 -0.25573
36.6 -0.25953
36.65 -0.26585
36.7 -0.27126
36.75 -0.27679
36.8 -0.28529
36.85 -0.29063
36.9 -0.29701
36.95 -0.29999
37 -0.3026
37.05 -0.3062
37.1 -0.30961
37.15 -0.30929
37.2 -0.30957
37.25 -0.30869
37.3 -0.31089
37.35 -0.31405
37.4 -0.31447
37.45 -0.31272
37.5 -0.31366
37.55 -0.31397
37.6 -0.31391
37.65 -0.31475
37.7 -0.31796
37.75 -0.31624
37.8 -0.3112
37.85 -0.3044
37.9 -0.29754
37.95 -0.29158
38 -0.28967
38.05 -0.28619
38.1 -0.27982
38.15 -0.27882
38.2 -0.27944
38.25 -0.28234
38.3 -0.28193
38.35 -0.27737
38.4 -0.26957
38.45 -0.2643
38.5 -0.25862
38.55 -0.25136
38.6 -0.24564
38.65 -0.24001
38.7 -0.23423
38.75 -0.22985
38.8 -0.22775
38.85 -0.22806
38.9 -0.23186
38.95 -0.23431
39 -0.23802
39.05 -0.23516
39.1 -0.23512
39.15 -0.23358
39.2 -0.22663
39.25 -0.21908
39.3 -0.20964
39.35 -0.20527
39.4 -0.20117
39.45 -0.19532
39.5 -0.18991
39.55 -0.18632
39.6 -0.18151
39.65 -0.17615
39.7 -0.16942
39.75 -0.16939
39.8 -0.16903
39.85 -0.17192
39.9 -0.17436
39.95 -0.17611
40 -0.17578
40.05 -0.17456
40.1 -0.17385
40.15 -0.1748
40.2 -0.17628
40.25 -0.17377
40.3 -0.17173
40.35 -0.17128
40.4 -0.17078
40.45 -0.16477
40.5 -0.15576
40.55 -0.1504
40.6 -0.14732
40.65 -0.14457
40.7 -0.14472
40.75 -0.14286
40.8 -0.1406
40.85 -0.13992
40.9 -0.13601
40.95 -0.13103
41 -0.12411
41.05 -0.11858
41.1 -0.11332
41.15 -0.11202
41.2 -0.11277
41.25 -0.11568
41.3 -0.11539
41.35 -0.11412
41.4 -0.11311
41.45 -0.109
41.5 -0.10244
41.55 -0.09552
41.6 -0.08843
41.65 -0.08658
41.7 -0.08245
41.75 -0.07932
41.8 -0.081
41.85 -0.08336
41.9 -0.08151
41.95 -0.08451
42 -0.08586
42.05 -0.0833
42.1 -0.07897
42.15 -0.07382
42.2 -0.06771
42.25 -0.06143
42.3 -0.0627
42.35 -0.06369
42.4 -0.06517
42.45 -0.07097
42.5 -0.07541
42.55 -0.07439
42.6 -0.07615
42.65 -0.0744
42.7 -0.07425
42.75 -0.07305
42.8 -0.07272
42.85 -0.0725
42.9 -0.06943
42.95 -0.0682
43 -0.0702
43.05 -0.06741
43.1 -0.06861
43.15 -0.06589
43.2 -0.0661
43.25 -0.06202
43.3 -0.05811
43.35 -0.05719
43.4 -0.0555
43.45 -0.05819
43.5 -0.05848
43.55 -0.05977
43.6 -0.06047
43.65 -0.06231
43.7 -0.06073
43.75 -0.05641
43.8 -0.05056
43.85 -0.04478
43.9 -0.04112
43.95 -0.03853
44 -0.0368
44.05 -0.03425
44.1 -0.03615
44.15 -0.03702
44.2 -0.03796
44.25 -0.04159
44.3 -0.04633
44.35 -0.0521
44.4 -0.05182
44.45 -0.05128
44.5 -0.04736
44.55 -0.04578
44.6 -0.04789
44.65 -0.04792
44.7 -0.05009
44.75 -0.05219
44.8 -0.04876
44.85 -0.04832
44.9 -0.04492
44.95 -0.04444
45 -0.04317
45.05 -0.03936
45.1 -0.03715
45.15 -0.0329
45.2 -0.02842
45.25 -0.02967
45.3 -0.03127
45.35 -0.02956
45.4 -0.02631
45.45 -0.02098
45.5 -0.01937
45.55 -0.01569
45.6 -0.01211
45.65 -0.00849
45.7 -0.00453
45.75 -0.00752
45.8 -0.01068
45.85 -0.01052
45.9 -0.01559
45.95 -0.02214
46 -0.02321
46.05 -0.02538
46.1 -0.02322
46.15 -0.02458
46.2 -0.02819
46.25 -0.03408
46.3 -0.03844
46.35 -0.03821
46.4 -0.0376
46.45 -0.03372
46.5 -0.03103
46.55 -0.02558
46.6 -0.02126
46.65 -0.02088
46.7 -0.01867
46.75 -0.0198
46.8 -0.02043
46.85 -0.02455
46.9 -0.0273
46.95 -0.02832
47 -0.03106
47.05 -0.03437
47.1 -0.03502
47.15 -0.03424
47.2 -0.03168
47.25 -0.02527
47.3 -0.02045
47.35 -0.01892
47.4 -0.01962
47.45 -0.01705
47.5 -0.0165
47.55 -0.01362
47.6 -0.00834
47.65 -0.00271
47.7 -0.00136
47.75 -0.00262
47.8 -0.00784
47.85 -0.01455
47.9 -0.01612
47.95 -0.01774
48 -0.0154
48.05 -0.01547
48.1 -0.01208
48.15 -0.00847
48.2 -0.00439
48.25 -0.00613
48.3 -0.00538
48.35 -0.00829
48.4 -0.00983
48.45 -0.01372
48.5 -0.01243
48.55 -0.01218
48.6 -0.01396
48.65 -0.01567
48.7 -0.01367
48.75 -0.01395
48.8 -0.01416
48.85 -0.01217
48.9 -0.0092
48.95 -0.00475
49 0.00065
49.05 0.00305
49.1 0.00279
49.15 -0.00095
49.2 -0.00294
49.25 -0.00699
49.3 -0.00878
49.35 -0.00998
49.4 -0.01384
49.45 -0.01285
49.5 -0.00865
49.55 -0.00698
49.6 -0.00926
49.65 -0.01346
49.7 -0.01454
49.75 -0.01834
49.8 -0.01796
49.85 -0.01597
49.9 -0.01243
49.95 -0.00822
50 -0.00211
50.05 -0.00191
50.1 0.00055
50.15 0.00127
50.2 -0.00012
50.25 -0.00363
50.3 -0.00344
50.35 -0.0077
50.4 -0.01441
50.45 -0.02028
50.5 -0.02092
50.55 -0.02376
50.6 -0.02683
50.65 -0.02662
50.7 -0.02679
50.75 -0.02218
50.8 -0.0191
50.85 -0.01543
50.9 -0.01038
50.95 -0.00745
51 -0.00218
51.05 -0.00207
51.1 -0.00375
51.15 -0.00355
51.2 -0.00185
51.25 -0.00227
51.3 -0.00565
51.35 -0.00955
51.4 -0.01115
51.45 -0.01176
51.5 -0.01238
51.55 -0.01572
51.6 -0.01427
51.65 -0.01363
51.7 -0.01582
51.75 -0.0164
51.8 -0.01438
51.85 -0.01433
51.9 -0.01211
51.95 -0.01227
52 -0.00815
52.05 -0.00423
52.1 -0.00549
52.15 -0.00928
52.2 -0.01128
52.25 -0.00891
52.3 -0.00373
52.35 -0.00354
52.4 -0.00346
52.45 -0.00259
52.5 0.00008
52.55 -0.00025
52.6 -0.00407
52.65 -0.00689
52.7 -0.00586
52.75 -0.00746
52.8 -0.00981
52.85 -0.00983
52.9 -0.01126
52.95 -0.01011
53 -0.00729
53.05 -0.0081
53.1 -0.00808
53.15 -0.00972
53.2 -0.00729
53.25 -0.00535
53.3 -0.00646
53.35 -0.00404
53.4 -0.00157
53.45 -0.00048
53.5 -0.00147
53.55 -0.00424
53.6 -0.00296
53.65 -0.00301
53.7 -0.00053
53.75 0.00382
53.8 0.00783
53.85 0.0126
53.9 0.01187
53.95 0.00727
54 0.00305
54.05 -0.0013
54.1 -0.00565
54.15 -0.01136
54.2 -0.01038
54.25 -0.00809
54.3 -0.00752
54.35 -0.01002
54.4 -0.01307
54.45 -0.01652
54.5 -0.01462
54.55 -0.01072
54.6 -0.00889
54.65 -0.01027
54.7 -0.00934
54.75 -0.00809
54.8 -0.00737
54.85 -0.00564
54.9 -0.0054
54.95 -0.00233
55 -0.0009
55.05 -0.00009
55.1 -0.00161
55.15 -0.00608
55.2 -0.00664
55.25 -0.00648
55.3 -0.00376
55.35 0.00071
55.4 -0.00011
55.45 -0.00137
55.5 -0.00325
55.55 -0.0064
55.6 -0.00757
55.65 -0.00865
55.7 -0.00551
55.75 -0.00412
55.8 -0.0047
55.85 -0.00738
55.9 -0.00553
55.95 -0.00424
56 -0.00428
56.05 -0.00225
56.1 0.00073
56.15 0.00294
56.2 0.00702
56.25 0.00848
56.3 0.01108
56.35 0.01286
56.4 0.01177
56.45 0.00646
56.5 0.00221
56.55 0.00084
56.6 -0.00342
56.65 -0.00517
56.7 -0.00803
56.75 -0.00893
56.8 -0.00487
56.85 -0.00509
56.9 -0.00742
56.95 -0.01201
57 -0.0174
57.05 -0.01909
57.1 -0.01972
57.15 -0.01753
57.2 -0.01527
57.25 -0.01525
57.3 -0.01132
57.35 -0.01094
57.4 -0.00584
57.45 0.00088
57.5 0.00224
57.55 0.00031
57.6 -0.00224
57.65 -0.00381
57.7 -0.0063
57.75 -0.00482
57.8 -0.00128
57.85 -0.00156
57.9 -0.00393
57.95 -0.00376
58 0.00028
58.05 0.00281
58.1 0.00407
58.15 0.00406
58.2 0.00219
58.25 -0.00271
58.3 -0.00759
58.35 -0.006
58.4 -0.00184
58.45 -0.00153
58.5 -0.00019
58.55 0.00174
58.6 0.00058
58.65 0.00293
58.7 0.00082
58.75 0.00185
58.8 0.00239
58.85 0.00315
58.9 0.00024
58.95 0.00143
59 0.00238
59.05 -0.00019
59.1 0.00173
59.15 0.00532
59.2 0.00802
59.25 0.01067
59.3 0.0094
59.35 0.00829
59.4 0.00597
59.45 0.00069
59.5 0.00131
59.55 0.00271
59.6 0.00712
59.65 0.00611
59.7 0.00858
59.75 0.00858
59.8 0.01006
59.85 0.0119
59.9 0.01392
59.95 0.01643
60 0.01641
60.05 0.01617
60.1 0.01849
60.15 0.01762
60.2 0.01447
60.25 0.0076
60.3 0.00545
60.35 -0.00016
60.4 -0.00165
60.45 0.0005
60.5 0.00247
60.55 0.00274
60.6 0.00185
60.65 0.00385
60.7 0.00344
60.75 0.00105
60.8 -0.00062
60.85 -0.00279
60.9 -0.0078
60.95 -0.01012
61 -0.01211
61.05 -0.00897
61.1 -0.00365
61.15 0.00363
61.2 0.00561
61.25 0.0101
61.3 0.00892
61.35 0.0075
61.4 0.00944
61.45 0.00728
61.5 0.00398
61.55 0.0008
61.6 -0.0041
61.65 -0.0048
61.7 -0.00338
61.75 -0.00034
61.8 0.00419
61.85 0.00484
61.9 0.00595
61.95 0.0035
62 0.00521
62.05 0.00873
62.1 0.01246
62.15 0.01136
62.2 0.01038
62.25 0.00826
62.3 0.00734
62.35 0.00357
62.4 0.00155
62.45 -0.0033
62.5 -0.00569
62.55 -0.00486
62.6 -0.0073
62.65 -0.00597
62.7 -0.00836
62.75 -0.00731
62.8 -0.00951
62.85 -0.01322
62.9 -0.01269
62.95 -0.01053
63 -0.00677
63.05 -0.0029
63.1 -0.00052
63.15 0.00167
63.2 0.00622
63.25 0.00901
63.3 0.01376
63.35 0.0171
63.4 0.01681
63.45 0.01494
63.5 0.01384
63.55 0.01339
63.6 0.0133
63.65 0.0088
63.7 0.00355
63.75 -0.00058
63.8 -0.00011
63.85 -0.00312
63.9 -0.00166
63.95 0.00159
64 0.00174
64.05 -0.0006
64.1 -0.00285
64.15 -0.00675
64.2 -0.00827
64.25 -0.00879
64.3 -0.00896
64.35 -0.00916
64.4 -0.00847
64.45 -0.01073
64.5 -0.00932
64.55 -0.00507
64.6 -0.0027
64.65 -0.00186
64.7 -0.00209
64.75 0.00066
64.8 -0.00163
64.85 -0.00203
64.9 -0.00046
64.95 -0.00058
65 0.00038
65.05 0.0001
65.1 -0.00327
65.15 -0.00144
65.2 -0.00377
65.25 -0.00484
65.3 -0.0018
65.35 -0.00138
65.4 0.00041
65.45 -0.0013
65.5 -0.0024
65.55 -0.0059
65.6 -0.00645
65.65 -0.00683
65.7 -0.00286
65.75 0.00133
65.8 0.00215
65.85 0.00242
65.9 0.00124
65.95 0.0014
66 -0.00047
66.05 -0.00184
66.1 -0.00076
66.15 0.00103
66.2 0.00112
66.25 0.00166
66.3 0.00224
66.35 0.00054
66.4 -0.00358
66.45 -0.00783
66.5 -0.01165
66.55 -0.01289
66.6 -0.01066
66.65 -0.01165
66.7 -0.01187
66.75 -0.00846
66.8 -0.00616
66.85 -0.0044
66.9 0.0006
66.95 0.00138
67 0.00394
67.05 0.00276
67.1 -0.00209
67.15 -0.00734
67.2 -0.00942
67.25 -0.01215
67.3 -0.0158
67.35 -0.01703
67.4 -0.01614
67.45 -0.01742
67.5 -0.01462
67.55 -0.01114
67.6 -0.01065
67.65 -0.01041
67.7 -0.00723
67.75 -0.00274
67.8 -0.00094
67.85 0.00368
67.9 0.00309
67.95 0.00113
68 -0.00093
68.05 -0.00051
68.1 0.00173
68.15 0.00374
68.2 0.00331
68.25 0.00334
68.3 0.00288
68.35 0.00065
68.4 -0.0004
68.45 0.00038
68.5 0.00147
68.55 0.00364
68.6 0.00654
68.65 0.00881
68.7 0.00944
68.75 0.01123
68.8 0.00833
68.85 0.00906
68.9 0.01257
68.95 0.01261
69 0.01469
69.05 0.01524
69.1 0.01639
69.15 0.01249
69.2 0.01123
69.25 0.0129
69.3 0.01341
69.35 0.01171
69.4 0.00716
69.45 0.0069
69.5 0.00584
69.55 0.00201
69.6 -0.00325
69.65 -0.00506
69.7 -0.00752
69.75 -0.00814
69.8 -0.00889
69.85 -0.00607
69.9 -0.00535
69.95 -0.00403
70 -0.00138
70.05 0.00112
70.1 0.00387
70.15 0.00359
70.2 0.00072
70.25 -0.0017
70.3 -0.0011
70.35 -0.00371
70.4 -0.00131
70.45 0.00324
70.5 0.00217
70.55 0.00291
70.6 -0.00004
70.65 0.00142
70.7 0.00101
70.75 0.0021
70.8 0.00342
70.85 0.00524
70.9 0.00197
70.95 -0.0028
71 -0.00689
71.05 -0.01017
71.1 -0.00886
71.15 -0.00946
71.2 -0.00975
71.25 -0.01083
71.3 -0.01442
71.35 -0.01451
71.4 -0.01697
71.45 -0.01998
71.5 -0.01774
71.55 -0.01422
71.6 -0.01135
71.65 -0.01092
71.7 -0.00664
71.75 -0.00163
71.8 0.00397
71.85 0.00561
71.9 0.00388
71.95 -0.00034
72 -0.00126
72.05 0.00177
72.1 0.00279
72.15 0.00264
72.2 0.00584
72.25 0.00912
72.3 0.00921
72.35 0.00654
72.4 0.00749
72.45 0.00672
72.5 0.00559
72.55 0.00526
72.6 0.00675
72.65 0.00905
72.7 0.01332
72.75 0.0168
72.8 0.01414
72.85 0.01477
72.9 0.01543
72.95 0.01568
73 0.01739
73.05 0.0148
73.1 0.00839
73.15 0.00118
73.2 -0.00645
73.25 -0.01016
73.3 -0.00998
73.35 -0.01085
73.4 -0.00833
73.45 -0.00508
73.5 -0.00326
73.55 -0.00058
73.6 0.00016
73.65 0.00412
73.7 0.00495
73.75 0.00141
73.8 -0.00058
73.85 0.00165
73.9 0.00317
73.95 0.00091
74 -0.0025
74.05 -0.0017
74.1 -0.00488
74.15 -0.00868
74.2 -0.00879
74.25 -0.0088
74.3 -0.00474
74.35 0.00083
74.4 0.00643
74.45 0.01159
74.5 0.01069
74.55 0.00602
74.6 0.00623
74.65 0.00433
74.7 0.00083
74.75 -0.00361
74.8 -0.00777
74.85 -0.01096
74.9 -0.01456
74.95 -0.01446
75 -0.01259
75.05 -0.01122
75.1 -0.00797
75.15 -0.00763
75.2 -0.00876
75.25 -0.00558
75.3 -0.00548
75.35 -0.00537
75.4 -0.00108
75.45 0.00295
75.5 0.00405
75.55 0.00663
75.6 0.00629
75.65 0.00557
75.7 0.0027
75.75 -0.00308
75.8 -0.00661
75.85 -0.00786
75.9 -0.00455
75.95 -0.00019
76 -0.00117
76.05 -0.00471
76.1 -0.00781
76.15 -0.01197
76.2 -0.0173
76.25 -0.01647
76.3 -0.01177
76.35 -0.00882
76.4 -0.00489
76.45 0.00018
76.5 0.00276
76.55 0.00625
76.6 0.01154
76.65 0.01492
76.7 0.01285
76.75 0.01097
76.8 0.00666
76.85 0.00671
76.9 0.00475
76.95 0.00297
77 0.00444
77.05 0.0034
77.1 0.00093
77.15 -0.00278
77.2 -0.00437
77.25 -0.00609
77.3 -0.00406
77.35 0.00064
77.4 0.00381
77.45 0.00629
77.5 0.00529
77.55 0.00203
77.6 -0.00312
77.65 -0.00794
77.7 -0.00958
77.75 -0.01346
77.8 -0.01382
77.85 -0.01067
77.9 -0.00556
77.95 -0.0022
78 0.0024
78.05 0.00481
78.1 0.0077
78.15 0.01234
78.2 0.01691
78.25 0.0189
78.3 0.01776
78.35 0.01271
78.4 0.01024
78.45 0.0102
78.5 0.00882
78.55 0.00324
78.6 -0.0006
78.65 -0.00163
78.7 -0.00468
78.75 -0.00964
78.8 -0.01118
78.85 -0.01226
78.9 -0.01517
78.95 -0.01548
79 -0.01223
79.05 -0.00578
79.1 -0.00157
79.15 0
79.2 0.00436
79.25 0.00805
79.3 0.00633
79.35 0.00708
79.4 0.00353
79.45 -0.00249
79.5 -0.00874
79.55 -0.01503
79.6 -0.01464
79.65 -0.01488
79.7 -0.01076
79.75 -0.0074
79.8 -0.00624
79.85 -0.00139
79.9 0.00374
79.95 0.00425
80 0.00763
80.05 0.01062
80.1 0.00982
80.15 0.00569
80.2 -0.00039
80.25 -0.00764
80.3 -0.01428
80.35 -0.01642
80.4 -0.01602
80.45 -0.01167
80.5 -0.00523
80.55 -0.00091
80.6 -0.00037
80.65 0.002
80.7 0.00058
80.75 -0.00074
80.8 -0.00198
80.85 -0.00551
80.9 -0.01017
80.95 -0.01542
81 -0.02028
81.05 -0.02332
81.1 -0.02632
81.15 -0.02625
81.2 -0.02078
81.25 -0.01588
81.3 -0.01054
81.35 -0.00815
81.4 -0.00452
81.45 -0.00167
81.5 0.00434
81.55 0.00733
81.6 0.01214
81.65 0.01757
81.7 0.01734
81.75 0.01822
81.8 0.01603
81.85 0.01248
81.9 0.00734
81.95 0.00185
82 -0.0007
82.05 -0.00445
82.1 -0.00583
82.15 -0.00717
82.2 -0.00635
82.25 -0.00756
82.3 -0.0075
82.35 -0.00798
82.4 -0.00541
82.45 -0.00452
82.5 -0.00161
82.55 -0.00166
82.6 -0.00353
82.65 -0.00301
82.7 -0.00056
82.75 -0.00166
82.8 -0.00117
82.85 0.0017
82.9 0.00103
82.95 0.0012
83 -0.0024
83.05 -0.00343
83.1 0.00019
83.15 0.00531
83.2 0.00768
83.25 0.00675
83.3 0.00526
83.35 0.00307
83.4 0.00493
83.45 0.00919
83.5 0.00791
83.55 0.00483
83.6 0.00016
83.65 0.00071
83.7 0.00291
83.75 0.00495
83.8 0.00844
83.85 0.01209
83.9 0.01332
83.95 0.01518
84 0.01476
84.05 0.01513
84.1 0.01167
84.15 0.00994
84.2 0.0104
84.25 0.00811
84.3 0.0068
84.35 0.0065
84.4 0.00513
84.45 0.00425
84.5 0.00451
84.55 0.00497
84.6 0.00801
84.65 0.00953
84.7 0.0081
84.75 0.00967
84.8 0.01082
84.85 0.00921
84.9 0.00599
84.95 0.00591
85 0.00873
85.05 0.00721
85.1 0.00782
85.15 0.00757
85.2 0.00916
85.25 0.01234
85.3 0.01282
85.35 0.00891
85.4 0.0082
85.45 0.01054
85.5 0.01467
85.55 0.0136
85.6 0.01457
85.65 0.01429
85.7 0.0087
85.75 0.00583
85.8 -0.00058
85.85 -0.00481
85.9 -0.00861
85.95 -0.0078
86 -0.01068
86.05 -0.01495
86.1 -0.01295
86.15 -0.0101
86.2 -0.00914
86.25 -0.0075
86.3 -0.00918
86.35 -0.00697
86.4 -0.00638
86.45 -0.0071
86.5 -0.00414
86.55 0.00109
86.6 0.00689
86.65 0.0125
86.7 0.01386
86.75 0.01562
86.8 0.01777
86.85 0.01961
86.9 0.01796
86.95 0.0149
87 0.01226
87.05 0.0073
87.1 0.0029
87.15 0.00171
87.2 -0.00265
87.25 -0.00809
87.3 -0.01414
87.35 -0.01949
87.4 -0.02132
87.45 -0.01918
87.5 -0.01769
87.55 -0.01309
87.6 -0.00986
87.65 -0.01026
87.7 -0.00996
87.75 -0.00746
87.8 -0.00338
87.85 -0.00063
87.9 -0.00074
87.95 -0.00317
88 -0.00644
88.05 -0.00568
88.1 -0.00418
88.15 -0.00197
88.2 -0.00376
88.25 -0.00701
88.3 -0.0049
88.35 -0.00618
88.4 -0.00416
88.45 -0.0001
88.5 0.00438
88.55 0.00372
88.6 0.00418
88.65 0.00036
88.7 -0.00117
88.75 -0.00255
88.8 -0.00225
88.85 -0.00236
88.9 -0.00356
88.95 -0.00236
89 0.00032
89.05 0.00008
89.1 0.0034
89.15 0.00669
89.2 0.00679
89.25 0.00903
89.3 0.01098
89.35 0.01402
89.4 0.01738
89.45 0.01817
89.5 0.02005
89.55 0.02138
89.6 0.02121
89.65 0.01557
89.7 0.01013
89.75 0.00217
89.8 -0.00091
89.85 -0.00168
89.9 -0.0007
89.95 -0.00048
90 0.00045
90.05 0.00321
90.1 0.00694
90.15 0.00446
90.2 0.00085
90.25 -0.00411
90.3 -0.00684
90.35 -0.00782
90.4 -0.00504
90.45 -0.00084
90.5 -0.0023
90.55 -0.00656
90.6 -0.01207
90.65 -0.01385
90.7 -0.0116
90.75 -0.01149
90.8 -0.01
90.85 -0.0124
90.9 -0.01519
90.95 -0.01979
91 -0.01771
91.05 -0.01751
91.1 -0.01346
91.15 -0.00912
91.2 -0.00874
91.25 -0.00927
91.3 -0.0098
91.35 -0.01069
91.4 -0.00682
91.45 -0.0021
91.5 0.00193
91.55 0.00559
91.6 0.00832
91.65 0.00832
91.7 0.00742
91.75 0.00522
91.8 0.007
91.85 0.00943
91.9 0.01295
91.95 0.01424
92 0.01415
92.05 0.00954
92.1 0.00876
92.15 0.00971
92.2 0.01177
92.25 0.01533
92.3 0.01541
92.35 0.01098
92.4 0.00359
92.45 -0.00406
92.5 -0.01124
92.55 -0.01546
92.6 -0.02018
92.65 -0.02096
92.7 -0.01874
92.75 -0.01624
92.8 -0.01087
92.85 -0.00565
92.9 -0.00091
92.95 0.0047
93 0.00742
93.05 0.01103
93.1 0.01502
93.15 0.01611
93.2 0.0185
93.25 0.01706
93.3 0.01128
93.35 0.00961
93.4 0.00854
93.45 0.0079
93.5 0.0056
93.55 0.00597
93.6 0.004
93.65 0.0057
93.7 0.00607
93.75 0.00208
93.8 0.00051
93.85 0.00061
93.9 0.00376
93.95 0.00795
94 0.01048
94.05 0.0103
94.1 0.00911
94.15 0.00902
94.2 0.00592
94.25 -0.00035
94.3 -0.0025
94.35 -0.00528
94.4 -0.00456
94.45 -0.00273
94.5 0.00011
94.55 0.0041
94.6 0.00794
94.65 0.01279
94.7 0.01196
94.75 0.00764
94.8 0.00146
94.85 -0.00186
94.9 -0.00325
94.95 -0.00115
95 0.00222
95.05 0.00692
95.1 0.01085
95.15 0.00957
95.2 0.0106
95.25 0.00926
95.3 0.00629
95.35 0.00593
95.4 0.00274
95.45 0.00095
95.5 -0.00148
95.55 -0.00093
95.6 -0.00139
95.65 -0.00367
95.7 -0.00273
95.75 -0.00324
95.8 -0.00202
95.85 0.0007
95.9 0.00521
95.95 0.00585
96 0.0054
96.05 0.00774
96.1 0.00766
96.15 0.00332
96.2 0.00059
96.25 0.00183
96.3 0.00335
96.35 -0.00005
96.4 -0.00223
96.45 -0.00642
96.5 -0.01227
96.55 -0.01191
96.6 -0.01094
96.65 -0.01226
96.7 -0.01152
96.75 -0.01367
96.8 -0.01633
96.85 -0.01629
96.9 -0.01242
96.95 -0.01148
97 -0.01272
97.05 -0.01656
97.1 -0.01452
97.15 -0.01273
97.2 -0.00976
97.25 -0.00671
97.3 -0.00542
97.35 -0.00632
97.4 -0.00368
97.45 0.0015
97.5 0.00609
97.55 0.01018
97.6 0.01354
97.65 0.01237
97.7 0.00766
97.75 -0.00017
97.8 -0.00911
97.85 -0.01348
97.9 -0.01392
97.95 -0.01459
98 -0.01213
98.05 -0.01275
98.1 -0.01579
98.15 -0.01474
98.2 -0.01126
98.25 -0.01022
98.3 -0.00617
98.35 -0.00315
98.4 -0.00491
98.45 -0.00314
98.5 -0.00572
98.55 -0.00961
98.6 -0.0078
98.65 -0.00927
98.7 -0.01025
98.75 -0.00705
98.8 -0.00143
98.85 -0.0002
98.9 -0.00093
98.95 0.00137
99 -0.00068
99.05 0.00094
99.1 0.00251
99.15 0.00283
99.2 0.00438
99.25 0.00329
99.3 0.00138
99.35 0.00166
99.4 0.00253
99.45 0.00309
99.5 -0.00039
99.55 -0.00268
99.6 -0.00413
99.65 -0.00583
99.7 -0.00573
99.75 -0.00868
99.8 -0.00788
99.85 -0.00359
99.9 -0.0046
99.95 -0.00228
