0 0
0.05 0.00704
0.1 0.01961
0.15 0.03483
0.2 0.04789
0.25 0.0563
0.3 0.05984
0.35 0.06351
0.4 0.06428
0.45 0.0622
0.5 0.05823
0.55 0.05584
0.6 0.05172
0.65 0.04494
0.7 0.04519
0.75 0.04106
0.8 0.03854
0.85 0.03686
0.9 0.03987
0.95 0.03757
1 0.03897
1.05 0.04233
1.1 0.04338
1.15 0.04534
1.2 0.04623
1.25 0.04406
1.3 0.03767
1.35 0.03322
1.4 0.03241
1.45 0.02791
1.5 0.02684
1.55 0.02435
1.6 0.0229
1.65 0.02341
1.7 0.02073
1.75 0.02333
1.8 0.02966
1.85 0.03213
1.9 0.03183
1.95 0.03518
2 0.03814
2.05 0.0419
2.1 0.04276
2.15 0.0398
2.2 0.03518
2.25 0.02966
2.3 0.02747
2.35 0.02473
2.4 0.02188
2.45 0.02499
2.5 0.02934
2.55 0.0339
2.6 0.04024
2.65 0.04604
2.7 0.05275
2.75 0.05436
2.8 0.05537
2.85 0.05066
2.9 0.04392
2.95 0.03542
3 0.03116
3.05 0.02429
3.1 0.02071
3.15 0.0199
3.2 0.0221
3.25 0.02462
3.3 0.02167
3.35 0.01836
3.4 0.01858
3.45 0.0181
3.5 0.02167
3.55 0.02673
3.6 0.02524
3.65 0.02769
3.7 0.03137
3.75 0.0298
3.8 0.02433
3.85 0.02432
3.9 0.0271
3.95 0.02569
4 0.025
4.05 0.02655
4.1 0.03053
4.15 0.02672
4.2 0.02639
4.25 0.01939
4.3 0.01459
4.35 0.01366
4.4 0.00938
4.45 -0.00207
4.5 -0.01082
4.55 -0.01773
4.6 -0.02424
4.65 -0.03942
4.7 -0.05698
4.75 -0.07787
4.8 -0.09935
4.85 -0.122
4.9 -0.15064
4.95 -0.18884
5 -0.22569
5.05 -0.26971
5.1 -0.31397
5.15 -0.36876
5.2 -0.43073
5.25 -0.49786
5.3 -0.57063
5.35 -0.64252
5.4 -0.71541
5.45 -0.78843
5.5 -0.86851
5.55 -0.95074
5.6 -1.03559
5.65 -1.12246
5.7 -1.20294
5.75 -1.2799
5.8 -1.35747
5.85 -1.43022
5.9 -1.50004
5.95 -1.56482
6 -1.61909
6.05 -1.66714
6.1 -1.71157
6.15 -1.74816
6.2 -1.77743
6.25 -1.79793
6.3 -1.80807
6.35 -1.81084
6.4 -1.80734
6.45 -1.79691
6.5 -1.77914
6.55 -1.76129
6.6 -1.73379
6.65 -1.70389
6.7 -1.66261
6.75 -1.61721
6.8 -1.55744
6.85 -1.48919
6.9 -1.41016
6.95 -1.32411
7 -1.22427
7.05 -1.10765
7.1 -0.97969
7.15 -0.84579
7.2 -0.70607
7.25 -0.55559
7.3 -0.40019
7.35 -0.24765
7.4 -0.09686
7.45 0.05246
7.5 0.20295
7.55 0.35015
7.6 0.49749
7.65 0.6426
7.7 0.78087
7.75 0.91399
7.8 1.03979
7.85 1.15978
7.9 1.27208
7.95 1.37158
8 1.45482
8.05 1.52761
8.1 1.58932
8.15 1.6392
8.2 1.68319
8.25 1.71513
8.3 1.74295
8.35 1.76352
8.4 1.77363
8.45 1.77991
8.5 1.78044
8.55 1.77634
8.6 1.76336
8.65 1.74382
8.7 1.72568
8.75 1.69918
8.8 1.67422
8.85 1.65046
8.9 1.62208
8.95 1.59169
9 1.55489
9.05 1.5212
9.1 1.48757
9.15 1.45583
9.2 1.42593
9.25 1.39103
9.3 1.35451
9.35 1.32132
9.4 1.28778
9.45 1.25921
9.5 1.23036
9.55 1.19718
9.6 1.16656
9.65 1.13901
9.7 1.10963
9.75 1.08262
9.8 1.06008
9.85 1.03169
9.9 1.00402
9.95 0.97613
10 0.94726
10.05 0.91469
10.1 0.88916
10.15 0.86252
10.2 0.83811
10.25 0.81343
10.3 0.78527
10.35 0.7563
10.4 0.72903
10.45 0.6997
10.5 0.67606
10.55 0.64846
10.6 0.62428
10.65 0.60188
10.7 0.57666
10.75 0.55188
10.8 0.52912
10.85 0.50335
10.9 0.4755
10.95 0.44913
11 0.42192
11.05 0.39745
11.1 0.37345
11.15 0.3434
11.2 0.31053
11.25 0.27952
11.3 0.25165
11.35 0.22143
11.4 0.19571
11.45 0.17212
11.5 0.14705
11.55 0.1187
11.6 0.09514
11.65 0.075
11.7 0.05814
11.75 0.03487
11.8 0.00811
11.85 -0.02
11.9 -0.04278
11.95 -0.06665
12 -0.08272
12.05 -0.09403
12.1 -0.10369
12.15 -0.11492
12.2 -0.12833
12.25 -0.13827
12.3 -0.14985
12.35 -0.1615
12.4 -0.17042
12.45 -0.17749
12.5 -0.19021
12.55 -0.20349
12.6 -0.21987
12.65 -0.23142
12.7 -0.24523
12.75 -0.25042
12.8 -0.25238
12.85 -0.25747
12.9 -0.26215
12.95 -0.26927
13 -0.27377
13.05 -0.27873
13.1 -0.27997
13.15 -0.28449
13.2 -0.28392
13.25 -0.28597
13.3 -0.28914
13.35 -0.28926
13.4 -0.28976
13.45 -0.28726
13.5 -0.28368
13.55 -0.27764
13.6 -0.26833
13.65 -0.25993
13.7 -0.25745
13.75 -0.25433
13.8 -0.25286
13.85 -0.2525
13.9 -0.251
13.95 -0.24692
14 -0.24392
14.05 -0.24608
14.1 -0.24937
14.15 -0.2464
14.2 -0.24011
14.25 -0.23391
14.3 -0.22473
14.35 -0.21415
14.4 -0.20316
14.45 -0.19832
14.5 -0.19558
14.55 -0.197
14.6 -0.20301
14.65 -0.21025
14.7 -0.21637
14.75 -0.2171
14.8 -0.21486
14.85 -0.21319
14.9 -0.20585
14.95 -0.20194
15 -0.19891
15.05 -0.19756
15.1 -0.19411
15.15 -0.18677
15.2 -0.18268
15.25 -0.18209
15.3 -0.18189
15.35 -0.18222
15.4 -0.18072
15.45 -0.18212
15.5 -0.18539
15.55 -0.1823
15.6 -0.1778
15.65 -0.17079
15.7 -0.16485
15.75 -0.15555
15.8 -0.14841
15.85 -0.14541
15.9 -0.14022
15.95 -0.13732
16 -0.13216
16.05 -0.12484
16.1 -0.1224
16.15 -0.12465
16.2 -0.13033
16.25 -0.12889
16.3 -0.12709
16.35 -0.12833
16.4 -0.12361
16.45 -0.1211
16.5 -0.12196
16.55 -0.11779
16.6 -0.11892
16.65 -0.11681
16.7 -0.11338
16.75 -0.10721
16.8 -0.10156
16.85 -0.09748
16.9 -0.09757
16.95 -0.09554
17 -0.09701
17.05 -0.09462
17.1 -0.08928
17.15 -0.08508
17.2 -0.08655
17.25 -0.08881
17.3 -0.09397
17.35 -0.0956
17.4 -0.09871
17.45 -0.10053
17.5 -0.10102
17.55 -0.09839
17.6 -0.09916
17.65 -0.09658
17.7 -0.09082
17.75 -0.08526
17.8 -0.08483
17.85 -0.08069
17.9 -0.07567
17.95 -0.07277
18 -0.07199
18.05 -0.0677
18.1 -0.06973
18.15 -0.0726
18.2 -0.07806
18.25 -0.08425
18.3 -0.08478
18.35 -0.08319
18.4 -0.08122
18.45 -0.0775
18.5 -0.07096
18.55 -0.06358
18.6 -0.05676
18.65 -0.05223
18.7 -0.04491
18.75 -0.04455
18.8 -0.04926
18.85 -0.04938
18.9 -0.04744
18.95 -0.0427
19 -0.04192
19.05 -0.04068
19.1 -0.03598
19.15 -0.03006
19.2 -0.02531
19.25 -0.02634
19.3 -0.03205
19.35 -0.03374
19.4 -0.03332
19.45 -0.03377
19.5 -0.03497
19.55 -0.03494
19.6 -0.03808
19.65 -0.04088
19.7 -0.03875
19.75 -0.04199
19.8 -0.0402
19.85 -0.0411
19.9 -0.03849
19.95 -0.03458
20 -0.03333
20.05 -0.03031
20.1 -0.03289
20.15 -0.03084
20.2 -0.02753
20.25 -0.02834
20.3 -0.02747
20.35 -0.0233
20.4 -0.01759
20.45 -0.01486
20.5 -0.01413
20.55 -0.01793
20.6 -0.02211
20.65 -0.02291
20.7 -0.02111
20.75 -0.02183
20.8 -0.02122
20.85 -0.02573
20.9 -0.0287
20.95 -0.0323
21 -0.03108
21.05 -0.02666
21.1 -0.02045
21.15 -0.01941
21.2 -0.02048
21.25 -0.0218
21.3 -0.01865
21.35 -0.02089
21.4 -0.02775
21.45 -0.03012
21.5 -0.03476
21.55 -0.04098
21.6 -0.04419
21.65 -0.0402
21.7 -0.03873
21.75 -0.03796
21.8 -0.03898
21.85 -0.0378
21.9 -0.03688
21.95 -0.0399
22 -0.0422
22.05 -0.04251
22.1 -0.03977
22.15 -0.03985
22.2 -0.03949
22.25 -0.03789
22.3 -0.03755
22.35 -0.03599
22.4 -0.03761
22.45 -0.04113
22.5 -0.04489
22.55 -0.04064
22.6 -0.03365
22.65 -0.02303
22.7 -0.01373
22.75 -0.00369
22.8 0.00193
22.85 0.00857
22.9 0.00955
22.95 0.00351
23 -0.00091
23.05 -0.00339
23.1 -0.00243
23.15 -0.00218
23.2 -0.00655
23.25 -0.00634
23.3 -0.00236
23.35 -0.00358
23.4 -0.00538
23.45 -0.01087
23.5 -0.01256
23.55 -0.01651
23.6 -0.01495
23.65 -0.01824
23.7 -0.01817
23.75 -0.01529
23.8 -0.01385
23.85 -0.01725
23.9 -0.02146
23.95 -0.02734
24 -0.0276
24.05 -0.02961
24.1 -0.02784
24.15 -0.0286
24.2 -0.02296
24.25 -0.02223
24.3 -0.01708
24.35 -0.01027
24.4 -0.00179
24.45 0.00272
24.5 0.00103
24.55 0.00097
24.6 0.00122
24.65 0.00406
24.7 0.00679
24.75 0.01028
24.8 0.00664
24.85 -0.00062
24.9 -0.00394
24.95 -0.00322
25 -0.00771
25.05 -0.0111
25.1 -0.01315
25.15 -0.0149
25.2 -0.02036
25.25 -0.02313
25.3 -0.02052
25.35 -0.01652
25.4 -0.0157
25.45 -0.01123
25.5 -0.00799
25.55 -0.00433
25.6 -0.00635
25.65 -0.00304
25.7 -0.00432
25.75 -0.01024
25.8 -0.01489
25.85 -0.01637
25.9 -0.013
25.95 -0.01339
26 -0.01036
26.05 -0.00473
26.1 -0.00361
26.15 -0.00468
26.2 -0.01033
26.25 -0.01475
26.3 -0.01441
26.35 -0.013
26.4 -0.01438
26.45 -0.01488
26.5 -0.01825
26.55 -0.02307
26.6 -0.01991
26.65 -0.01762
26.7 -0.01329
26.75 -0.00886
26.8 -0.00874
26.85 -0.0094
26.9 -0.01389
26.95 -0.01147
27 -0.00992
27.05 -0.00766
27.1 -0.00216
27.15 -0.00292
27.2 -0.00759
27.25 -0.00975
27.3 -0.01497
27.35 -0.01441
27.4 -0.0175
27.45 -0.02119
27.5 -0.02514
27.55 -0.02766
27.6 -0.02907
27.65 -0.02652
27.7 -0.01926
27.75 -0.00987
27.8 -0.00814
27.85 -0.00795
27.9 -0.0117
27.95 -0.01919
28 -0.02447
28.05 -0.03141
28.1 -0.03676
28.15 -0.03728
28.2 -0.03592
28.25 -0.03282
28.3 -0.03315
28.35 -0.03977
28.4 -0.05106
28.45 -0.0658
28.5 -0.08465
28.55 -0.09919
28.6 -0.11138
28.65 -0.12092
28.7 -0.13176
28.75 -0.14459
28.8 -0.16378
28.85 -0.18846
28.9 -0.22061
28.95 -0.2537
29 -0.28341
29.05 -0.31472
29.1 -0.34952
29.15 -0.38556
29.2 -0.42224
29.25 -0.46286
29.3 -0.50677
29.35 -0.55045
29.4 -0.5913
29.45 -0.63364
29.5 -0.67054
29.55 -0.70766
29.6 -0.73787
29.65 -0.76284
29.7 -0.78635
29.75 -0.80691
29.8 -0.82839
29.85 -0.84869
29.9 -0.8669
29.95 -0.88381
30 -0.89519
30.05 -0.89723
30.1 -0.89338
30.15 -0.88389
30.2 -0.8692
30.25 -0.84756
30.3 -0.82588
30.35 -0.79763
30.4 -0.76773
30.45 -0.72856
30.5 -0.68211
30.55 -0.63228
30.6 -0.58443
30.65 -0.53067
30.7 -0.47132
30.75 -0.41511
30.8 -0.35514
30.85 -0.29614
30.9 -0.24111
30.95 -0.18782
31 -0.12849
31.05 -0.07146
31.1 -0.01342
31.15 0.04415
31.2 0.09686
31.25 0.14824
31.3 0.19622
31.35 0.24308
31.4 0.28911
31.45 0.33808
31.5 0.37838
31.55 0.41677
31.6 0.44856
31.65 0.47715
31.7 0.51067
31.75 0.54266
31.8 0.57158
31.85 0.6028
31.9 0.62941
31.95 0.65075
32 0.67105
32.05 0.69343
32.1 0.7177
32.15 0.74025
32.2 0.75791
32.25 0.77325
32.3 0.78892
32.35 0.80414
32.4 0.80972
32.45 0.81456
32.5 0.82048
32.55 0.82624
32.6 0.82632
32.65 0.81957
32.7 0.81621
32.75 0.81178
32.8 0.80765
32.85 0.79632
32.9 0.78697
32.95 0.77535
33 0.75801
33.05 0.74446
33.1 0.73318
33.15 0.719
33.2 0.70416
33.25 0.6849
33.3 0.67035
33.35 0.65644
33.4 0.63994
33.45 0.62369
33.5 0.60619
33.55 0.58295
33.6 0.56018
33.65 0.53669
33.7 0.51319
33.75 0.49311
33.8 0.47009
33.85 0.45193
33.9 0.43462
33.95 0.42144
34 0.40593
34.05 0.38586
34.1 0.36499
34.15 0.34153
34.2 0.31711
34.25 0.2981
34.3 0.2866
34.35 0.27636
34.4 0.26063
34.45 0.25065
34.5 0.2372
34.55 0.21991
34.6 0.2086
34.65 0.19531
34.7 0.17788
34.75 0.15973
34.8 0.14353
34.85 0.12866
34.9 0.11928
34.95 0.11075
35 0.10159
35.05 0.09684
35.1 0.08921
35.15 0.07684
35.2 0.06754
35.25 0.06151
35.3 0.05754
35.35 0.0536
35.4 0.04274
35.45 0.03636
35.5 0.03097
35.55 0.0182
35.6 0.00299
35.65 -0.00912
35.7 -0.0207
35.75 -0.03189
35.8 -0.04147
35.85 -0.05295
35.9 -0.05853
35.95 -0.0641
36 -0.07084
36.05 -0.0718
36.1 -0.07566
36.15 -0.08228
36.2 -0.08847
36.25 -0.09374
36.3 -0.09821
36.35 -0.10022
36.4 -0.10163
36.45 -0.10694
36.5 -0.10945
36.55 -0.111
36.6 -0.11475
36.65 -0.11671
36.7 -0.117
36.75 -0.11402
36.8 -0.11129
36.85 -0.11017
36.9 -0.10785
36.95 -0.10547
37 -0.10843
37.05 -0.11351
37.1 -0.11312
37.15 -0.11588
37.2 -0.12227
37.25 -0.12245
37.3 -0.12361
37.35 -0.11966
37.4 -0.11453
37.45 -0.10838
37.5 -0.1068
37.55 -0.10864
37.6 -0.10697
37.65 -0.10916
37.7 -0.10856
37.75 -0.10504
37.8 -0.10035
37.85 -0.10015
37.9 -0.09944
37.95 -0.09681
38 -0.10014
38.05 -0.10431
38.1 -0.10357
38.15 -0.10378
38.2 -0.10121
38.25 -0.09821
38.3 -0.10066
38.35 -0.10563
38.4 -0.11162
38.45 -0.11317
38.5 -0.11653
38.55 -0.11553
38.6 -0.11297
38.65 -0.10923
38.7 -0.10531
38.75 -0.10293
38.8 -0.10352
38.85 -0.10649
38.9 -0.10548
38.95 -0.09901
39 -0.09767
39.05 -0.09352
39.1 -0.09019
39.15 -0.08331
39.2 -0.07606
39.25 -0.07535
39.3 -0.07341
39.35 -0.07435
39.4 -0.07161
39.45 -0.06763
39.5 -0.06354
39.55 -0.05891
39.6 -0.05909
39.65 -0.06458
39.7 -0.06898
39.75 -0.07027
39.8 -0.07413
39.85 -0.07622
39.9 -0.07628
39.95 -0.07404
40 -0.07585
40.05 -0.07307
40.1 -0.07273
40.15 -0.07049
40.2 -0.07151
40.25 -0.07459
40.3 -0.07728
40.35 -0.07691
40.4 -0.07646
40.45 -0.07654
40.5 -0.07964
40.55 -0.08425
40.6 -0.08223
40.65 -0.07971
40.7 -0.07445
40.75 -0.06951
40.8 -0.06018
40.85 -0.04931
40.9 -0.0441
40.95 -0.03857
41 -0.03418
41.05 -0.03287
41.1 -0.03034
41.15 -0.03035
41.2 -0.02682
41.25 -0.02266
41.3 -0.02637
41.35 -0.02551
41.4 -0.02916
41.45 -0.03343
41.5 -0.0363
41.55 -0.03945
41.6 -0.03792
41.65 -0.03587
41.7 -0.03484
41.75 -0.03719
41.8 -0.04302
41.85 -0.04155
41.9 -0.03716
41.95 -0.03484
42 -0.03217
42.05 -0.03329
42.1 -0.03749
42.15 -0.04126
42.2 -0.04742
42.25 -0.05161
42.3 -0.0568
42.35 -0.05682
42.4 -0.05572
42.45 -0.04933
42.5 -0.04646
42.55 -0.04214
42.6 -0.04116
42.65 -0.04132
42.7 -0.0365
42.75 -0.03215
42.8 -0.03265
42.85 -0.02775
42.9 -0.02451
42.95 -0.02173
43 -0.02302
43.05 -0.0256
43.1 -0.02554
43.15 -0.02231
43.2 -0.02046
43.25 -0.02152
43.3 -0.01845
43.35 -0.01802
43.4 -0.02268
43.45 -0.02452
43.5 -0.02223
43.55 -0.01927
43.6 -0.0201
43.65 -0.01763
43.7 -0.01534
43.75 -0.01795
43.8 -0.0207
43.85 -0.01865
43.9 -0.0182
43.95 -0.01399
44 -0.01469
44.05 -0.01802
44.1 -0.02158
44.15 -0.0241
44.2 -0.02422
44.25 -0.01981
44.3 -0.01462
44.35 -0.01051
44.4 -0.01203
44.45 -0.00861
44.5 -0.0079
44.55 -0.00499
44.6 -0.00456
44.65 -0.00334
44.7 -0.00424
44.75 -0.00797
44.8 -0.01518
44.85 -0.02398
44.9 -0.02493
44.95 -0.02128
45 -0.01773
45.05 -0.02
45.1 -0.02138
45.15 -0.025
45.2 -0.02615
45.25 -0.02842
45.3 -0.02782
45.35 -0.02466
45.4 -0.02212
45.45 -0.01924
45.5 -0.01921
45.55 -0.01491
45.6 -0.01657
45.65 -0.01904
45.7 -0.02068
45.75 -0.02356
45.8 -0.02347
45.85 -0.02685
45.9 -0.02692
45.95 -0.02962
46 -0.02786
46.05 -0.02321
46.1 -0.01831
46.15 -0.01608
46.2 -0.01821
46.25 -0.01401
46.3 -0.00863
46.35 -0.00848
46.4 -0.00416
46.45 -0.00485
46.5 -0.00706
46.55 -0.0112
46.6 -0.01724
46.65 -0.01611
46.7 -0.01075
46.75 -0.00983
46.8 -0.01001
46.85 -0.00769
46.9 -0.00735
46.95 -0.00826
47 -0.00808
47.05 -0.00947
47.1 -0.01429
47.15 -0.01407
47.2 -0.01166
47.25 -0.00513
47.3 -0.00203
47.35 0.00315
47.4 0.00378
47.45 0.00328
47.5 0.00226
47.55 0.0034
47.6 0.0038
47.65 0.00305
47.7 0.0054
47.75 0.00339
47.8 -0.00274
47.85 -0.0089
47.9 -0.01537
47.95 -0.02299
48 -0.02313
48.05 -0.01853
48.1 -0.01413
48.15 -0.00641
48.2 -0.00355
48.25 -0.00359
48.3 -0.00575
48.35 -0.00833
48.4 -0.00671
48.45 -0.00614
48.5 -0.00262
48.55 0.00071
48.6 0.00281
48.65 0.00775
48.7 0.00903
48.75 0.00778
48.8 0.01053
48.85 0.00967
48.9 0.00681
48.95 -0.00057
49 -0.00712
49.05 -0.01298
49.1 -0.01148
49.15 -0.00971
49.2 -0.00496
49.25 0.00076
49.3 0.00416
49.35 0.0098
49.4 0.01542
49.45 0.01555
49.5 0.01111
49.55 0.00511
49.6 0.00044
49.65 -0.002
49.7 0.00015
49.75 0.00429
49.8 0.008
49.85 0.00528
49.9 0.00548
49.95 0.00754
50 0.009
50.05 0.00937
50.1 0.00442
50.15 0.00533
50.2 0.00655
50.25 0.00505
50.3 0.0025
50.35 -0.00131
50.4 0.00059
50.45 0.00482
50.5 0.00892
50.55 0.00662
50.6 0.00002
50.65 -0.00918
50.7 -0.01486
50.75 -0.01988
50.8 -0.02242
50.85 -0.01859
50.9 -0.0156
50.95 -0.0094
51 -0.00414
51.05 -0.0003
51.1 0.00457
51.15 0.00968
51.2 0.01041
51.25 0.01429
51.3 0.01616
51.35 0.01826
51.4 0.02116
51.45 0.01707
51.5 0.00806
51.55 0.00507
51.6 0.00448
51.65 0.00625
51.7 0.00894
51.75 0.01221
51.8 0.0163
51.85 0.01904
51.9 0.01799
51.95 0.01284
52 0.00613
52.05 -0.00092
52.1 -0.00677
52.15 -0.00893
52.2 -0.01324
52.25 -0.01631
52.3 -0.01588
52.35 -0.01878
52.4 -0.01691
52.45 -0.01875
52.5 -0.01484
52.55 -0.01117
52.6 -0.00963
52.65 -0.00642
52.7 -0.00864
52.75 -0.00628
52.8 -0.00348
52.85 -0.00416
52.9 -0.00468
52.95 -0.0046
53 -0.00605
53.05 -0.00722
53.1 -0.00607
53.15 -0.00919
53.2 -0.01274
53.25 -0.00996
53.3 -0.01173
53.35 -0.0105
53.4 -0.01126
53.45 -0.01414
53.5 -0.01096
53.55 -0.00822
53.6 -0.00333
53.65 -0.00072
53.7 0.00071
53.75 0.00367
53.8 0.00423
53.85 0.00113
53.9 -0.00172
53.95 -0.00164
54 0.00004
54.05 0.00219
54.1 0.00298
54.15 -0.00125
54.2 -0.00859
54.25 -0.01471
54.3 -0.01615
54.35 -0.01456
54.4 -0.01293
54.45 -0.01082
54.5 -0.00995
54.55 -0.0041
54.6 -0.00382
54.65 -0.00005
54.7 0.00025
54.75 0.00341
54.8 0.00359
54.85 0.00561
54.9 0.00538
54.95 0.00662
55 0.01018
55.05 0.01054
55.1 0.01163
55.15 0.00731
55.2 0.00184
55.25 -0.00137
55.3 -0.00737
55.35 -0.00754
55.4 -0.00521
55.45 -0.00541
55.5 -0.00452
55.55 -0.00676
55.6 -0.00658
55.65 -0.00548
55.7 -0.00835
55.75 -0.00928
55.8 -0.0076
55.85 -0.00393
55.9 0.00009
55.95 0.00266
56 0.00444
56.05 0.00078
56.1 -0.00237
56.15 -0.00487
56.2 -0.00771
56.25 -0.00944
56.3 -0.0096
56.35 -0.01374
56.4 -0.0135
56.45 -0.0159
56.5 -0.01988
56.55 -0.02016
56.6 -0.0188
56.65 -0.02085
56.7 -0.02181
56.75 -0.01808
56.8 -0.01869
56.85 -0.01674
56.9 -0.0147
56.95 -0.00892
57 -0.00548
57.05 -0.0064
57.1 -0.00721
57.15 -0.00333
57.2 -0.00349
57.25 -0.00502
57.3 -0.0052
57.35 -0.00909
57.4 -0.01326
57.45 -0.01637
57.5 -0.01583
57.55 -0.01007
57.6 -0.00175
57.65 0.00795
57.7 0.01826
57.75 0.02282
57.8 0.02094
57.85 0.02121
57.9 0.01881
57.95 0.01562
58 0.01564
58.05 0.01489
58.1 0.01352
58.15 0.01628
58.2 0.01284
58.25 0.00923
58.3 0.01003
58.35 0.00789
58.4 0.00806
58.45 0.00386
58.5 -0.00278
58.55 -0.00856
58.6 -0.00897
58.65 -0.01176
58.7 -0.0095
58.75 -0.00651
58.8 -0.00212
58.85 0.00319
58.9 0.01092
58.95 0.01664
59 0.01678
59.05 0.0185
59.1 0.02027
59.15 0.0169
59.2 0.0148
59.25 0.01452
59.3 0.01192
59.35 0.00933
59.4 0.0024
59.45 -0.00581
59.5 -0.00595
59.55 -0.0022
59.6 -0.00026
59.65 0.00234
59.7 0.00137
59.75 0.00082
59.8 -0.00226
59.85 0.00009
59.9 0.00407
59.95 0.00471
60 0.00408
60.05 -0.0005
60.1 -0.00006
60.15 -0.00344
60.2 -0.00118
60.25 0.00446
60.3 0.0078
60.35 0.00447
60.4 -0.00027
60.45 -0.0033
60.5 -0.009
60.55 -0.00775
60.6 -0.00876
60.65 -0.01289
60.7 -0.01267
60.75 -0.01463
60.8 -0.01265
60.85 -0.0069
60.9 -0.00429
60.95 -0.00225
61 0.00379
61.05 0.0098
61.1 0.01064
61.15 0.01171
61.2 0.01495
61.25 0.01257
61.3 0.01198
61.35 0.01072
61.4 0.01134
61.45 0.01427
61.5 0.01927
61.55 0.01683
61.6 0.01243
61.65 0.00725
61.7 0.00012
61.75 -0.00791
61.8 -0.00938
61.85 -0.01377
61.9 -0.01477
61.95 -0.01412
62 -0.0082
62.05 -0.00417
62.1 0.0033
62.15 0.00567
62.2 0.00845
62.25 0.01337
62.3 0.01239
62.35 0.00858
62.4 0.00908
62.45 0.00938
62.5 0.00639
62.55 0.00701
62.6 0.00497
62.65 0.00704
62.7 0.00553
62.75 0.00397
62.8 0.00687
62.85 0.00376
62.9 0.00469
62.95 0.0026
63 0.00369
63.05 0.00241
63.1 0.00098
63.15 0.00001
63.2 0.00363
63.25 0.00675
63.3 0.00891
63.35 0.00746
63.4 0.00509
63.45 0.00417
63.5 -0.00119
63.55 -0.00029
63.6 -0.003
63.65 -0.00452
63.7 -0.00308
63.75 -0.0065
63.8 -0.00453
63.85 -0.00425
63.9 -0.00673
63.95 -0.00707
64 -0.00317
64.05 0.00294
64.1 0.00245
64.15 -0.00061
64.2 -0.00102
64.25 0.00019
64.3 0.00015
64.35 0.00295
64.4 0.00089
64.45 0.00324
64.5 0.00202
64.55 0.00209
64.6 -0.00261
64.65 -0.00127
64.7 -0.00517
64.75 -0.00512
64.8 -0.00592
64.85 -0.00378
64.9 0.0019
64.95 0.00883
65 0.01191
65.05 0.01515
65.1 0.01221
65.15 0.01359
65.2 0.01273
65.25 0.01169
65.3 0.00487
65.35 -0.00076
65.4 -0.0018
65.45 -0.0062
65.5 -0.01214
65.55 -0.0135
65.6 -0.01618
65.65 -0.02104
65.7 -0.02567
65.75 -0.02452
65.8 -0.02677
65.85 -0.02889
65.9 -0.03098
65.95 -0.02946
66 -0.02328
66.05 -0.01695
66.1 -0.01249
66.15 -0.00809
66.2 -0.00764
66.25 -0.00378
66.3 0.00282
66.35 0.00793
66.4 0.00675
66.45 0.0014
66.5 0.00168
66.55 -0.00259
66.6 -0.00967
66.65 -0.01277
66.7 -0.01596
66.75 -0.0182
66.8 -0.01917
66.85 -0.01411
66.9 -0.0059
66.95 0.00439
67 0.00579
67.05 0.00222
67.1 0.0001
67.15 0.00286
67.2 0.00459
67.25 0.00061
67.3 -0.00158
67.35 -0.00219
67.4 -0.00638
67.45 -0.01017
67.5 -0.00822
67.55 -0.00884
67.6 -0.0063
67.65 -0.00885
67.7 -0.01336
67.75 -0.01756
67.8 -0.01737
67.85 -0.01195
67.9 -0.00979
67.95 -0.00562
68 0.00028
68.05 0.0023
68.1 0.00742
68.15 0.01156
68.2 0.01551
68.25 0.01358
68.3 0.01306
68.35 0.01387
68.4 0.01549
68.45 0.01585
68.5 0.01191
68.55 0.00393
68.6 -0.00408
68.65 -0.0099
68.7 -0.01082
68.75 -0.0151
68.8 -0.02133
68.85 -0.02419
68.9 -0.02593
68.95 -0.02111
69 -0.0192
69.05 -0.02011
69.1 -0.01575
69.15 -0.01246
69.2 -0.01324
69.25 -0.01171
69.3 -0.01015
69.35 -0.01077
69.4 -0.00984
69.45 -0.00754
69.5 -0.00574
69.55 -0.00636
69.6 -0.0071
69.65 -0.00844
69.7 -0.0109
69.75 -0.01409
69.8 -0.01005
69.85 -0.0098
69.9 -0.01128
69.95 -0.00976
70 -0.01234
70.05 -0.01552
70.1 -0.01353
70.15 -0.00853
70.2 -0.00086
70.25 0.00538
70.3 0.01385
70.35 0.02049
70.4 0.02117
70.45 0.01949
70.5 0.01633
70.55 0.01067
70.6 0.01112
70.65 0.01522
70.7 0.01991
70.75 0.01718
70.8 0.01301
70.85 0.00738
70.9 0.00462
70.95 0.00694
71 0.01218
71.05 0.01377
71.1 0.01649
71.15 0.01898
71.2 0.02044
71.25 0.01908
71.3 0.01462
71.35 0.0084
71.4 0.00375
71.45 -0.00355
71.5 -0.0108
71.55 -0.01434
71.6 -0.01913
71.65 -0.02449
71.7 -0.03037
71.75 -0.02671
71.8 -0.01918
71.85 -0.01684
71.9 -0.01
71.95 -0.0016
72 0.00244
72.05 0.0042
72.1 0.00705
72.15 0.00866
72.2 0.01116
72.25 0.01595
72.3 0.01909
72.35 0.01996
72.4 0.02247
72.45 0.02222
72.5 0.01965
72.55 0.0158
72.6 0.01124
72.65 0.00505
72.7 0.00016
72.75 -0.00431
72.8 -0.00532
72.85 -0.00187
72.9 -0.00169
72.95 0.00259
73 0.00173
73.05 0.00089
73.1 0.00303
73.15 0.00269
73.2 -0.00012
73.25 -0.00256
73.3 -0.00728
73.35 -0.00551
73.4 -0.00276
73.45 0.00078
73.5 0.00578
73.55 0.0081
73.6 0.012
73.65 0.0098
73.7 0.0117
73.75 0.00887
73.8 0.00728
73.85 0.01022
73.9 0.01502
73.95 0.01739
74 0.01327
74.05 0.01269
74.1 0.01237
74.15 0.00888
74.2 0.00715
74.25 0.00505
74.3 0.00445
74.35 -0.00053
74.4 -0.00151
74.45 -0.00238
74.5 0.00164
74.55 0.00425
74.6 0.00977
74.65 0.01581
74.7 0.01734
74.75 0.01401
74.8 0.00793
74.85 0.00619
74.9 -0.00052
74.95 -0.00568
75 -0.00492
75.05 -0.00257
75.1 0.00018
75.15 0.00274
75.2 0.00444
75.25 0.00916
75.3 0.01022
75.35 0.01058
75.4 0.01013
75.45 0.00383
75.5 -0.00276
75.55 -0.00607
75.6 -0.00653
75.65 -0.0083
75.7 -0.00636
75.75 -0.00139
75.8 0.00124
75.85 0.00317
75.9 -0.00023
75.95 -0.00189
76 -0.00177
76.05 -0.00065
76.1 0.00324
76.15 0.0088
76.2 0.01047
76.25 0.00677
76.3 0.00437
76.35 0.00044
76.4 0.00063
76.45 -0.00423
76.5 -0.00636
76.55 -0.00286
76.6 0.00209
76.65 -0
76.7 -0.00599
76.75 -0.0066
76.8 -0.00889
76.85 -0.0093
76.9 -0.00787
76.95 -0.00493
77 -0.00743
77.05 -0.00807
77.1 -0.00467
77.15 -0.004
77.2 -0.00437
77.25 -0.0022
77.3 -0.00308
77.35 -0.00044
77.4 -0.00289
77.45 -0.00029
77.5 0.00241
77.55 0.00592
77.6 0.01064
77.65 0.01209
77.7 0.01102
77.75 0.00741
77.8 -0.00047
77.85 -0.00919
77.9 -0.01149
77.95 -0.01625
78 -0.01847
78.05 -0.02319
78.1 -0.02179
78.15 -0.01628
78.2 -0.00737
78.25 -0.00064
78.3 0.00473
78.35 0.00443
78.4 0.00511
78.45 0.00707
78.5 0.005
78.55 0.00683
78.6 0.00484
78.65 0.00109
78.7 -0.00048
78.75 -0.00089
78.8 0.00056
78.85 -0.00059
78.9 -0.0004
78.95 0.00247
79 0.00482
79.05 0.0097
79.1 0.00959
79.15 0.00581
79.2 0.00038
79.25 -0.00458
79.3 -0.00469
79.35 -0.00542
79.4 -0.01012
79.45 -0.0112
79.5 -0.00821
79.55 -0.00403
79.6 -0.00327
79.65 -0.00503
79.7 -0.00996
79.75 -0.01531
79.8 -0.01719
79.85 -0.01255
79.9 -0.00854
79.95 -0.00386
80 -0.00027
80.05 0.00048
80.1 -0.00128
80.15 -0.00383
80.2 -0.00432
80.25 -0.00586
80.3 -0.00644
80.35 -0.00829
80.4 -0.00478
80.45 -0.00129
80.5 0.00505
80.55 0.00733
80.6 0.00957
80.65 0.00668
80.7 0.00196
80.75 -0.00212
80.8 -0.00836
80.85 -0.01012
80.9 -0.0099
80.95 -0.00725
81 -0.00384
81.05 -0.0032
81.1 -0.00519
81.15 -0.00394
81.2 -0.00544
81.25 -0.009
81.3 -0.00652
81.35 -0.00837
81.4 -0.00681
81.45 -0.00548
81.5 -0.007
81.55 -0.00661
81.6 -0.00527
81.65 -0.00024
81.7 0.00451
81.75 0.00461
81.8 0.00211
81.85 -0.00384
81.9 -0.00805
81.95 -0.0058
82 -0.00445
82.05 -0.00201
82.1 0.00224
82.15 0.00295
82.2 0.0031
82.25 -0.00139
82.3 -0.00321
82.35 -0.00418
82.4 -0.00876
82.45 -0.01042
82.5 -0.00729
82.55 -0.00332
82.6 -0.00476
82.65 -0.00779
82.7 -0.01241
82.75 -0.01776
82.8 -0.01917
82.85 -0.02305
82.9 -0.01888
82.95 -0.01015
83 -0.00722
83.05 -0.00796
83.1 -0.00667
83.15 -0.00669
83.2 -0.00355
83.25 0.00241
83.3 0.0093
83.35 0.01278
83.4 0.01177
83.45 0.00615
83.5 0.00372
83.55 -0.00281
83.6 -0.00589
83.65 -0.00925
83.7 -0.01427
83.75 -0.02036
83.8 -0.02562
83.85 -0.02489
83.9 -0.02073
83.95 -0.01296
84 -0.00616
84.05 -0.00269
84.1 0.00165
84.15 0.00056
84.2 -0.00196
84.25 -0.00436
84.3 -0.00833
84.35 -0.01073
84.4 -0.01149
84.45 -0.00855
84.5 -0.00221
84.55 0.00583
84.6 0.01377
84.65 0.01582
84.7 0.01413
84.75 0.0115
84.8 0.01085
84.85 0.01185
84.9 0.01433
84.95 0.01599
85 0.01536
85.05 0.01325
85.1 0.01073
85.15 0.01144
85.2 0.01531
85.25 0.0213
85.3 0.02476
85.35 0.02398
85.4 0.02601
85.45 0.02734
85.5 0.02242
85.55 0.01857
85.6 0.01512
85.65 0.01507
85.7 0.01409
85.75 0.01342
85.8 0.01396
85.85 0.01314
85.9 0.01329
85.95 0.00747
86 -0.00049
86.05 -0.00697
86.1 -0.00602
86.15 -0.00169
86.2 -0.00078
86.25 -0.0045
86.3 -0.00958
86.35 -0.00995
86.4 -0.00818
86.45 -0.00269
86.5 -0.0018
86.55 -0.00578
86.6 -0.01226
86.65 -0.01817
86.7 -0.02523
86.75 -0.02595
86.8 -0.02825
86.85 -0.02688
86.9 -0.02534
86.95 -0.02204
87 -0.02025
87.05 -0.01345
87.1 -0.0094
87.15 -0.00315
87.2 0.00001
87.25 0.00006
87.3 -0.00164
87.35 -0.00237
87.4 -0.00382
87.45 -0.0051
87.5 -0.00637
87.55 -0.00989
87.6 -0.00691
87.65 -0.00357
87.7 0.00169
87.75 0.00535
87.8 0.00287
87.85 0.00187
87.9 -0.00086
87.95 0.00217
88 0.00131
88.05 -0.00189
88.1 -0.00699
88.15 -0.01129
88.2 -0.01447
88.25 -0.0183
88.3 -0.02016
88.35 -0.02307
88.4 -0.02519
88.45 -0.02558
88.5 -0.02671
88.55 -0.02813
88.6 -0.0272
88.65 -0.02489
88.7 -0.02112
88.75 -0.02066
88.8 -0.01541
88.85 -0.00603
88.9 -0.00191
88.95 0.00215
89 0.00924
89.05 0.00942
89.1 0.0132
89.15 0.01564
89.2 0.0189
89.25 0.01806
89.3 0.01192
89.35 0.01128
89.4 0.01323
89.45 0.01699
89.5 0.01999
89.55 0.0205
89.6 0.01462
89.65 0.00881
89.7 0.00386
89.75 0.00477
89.8 0.00486
89.85 0.00684
89.9 0.00349
89.95 0.00115
90 -0.0008
90.05 0.00026
90.1 -0.0025
90.15 -0.00757
90.2 -0.00562
90.25 -0.00139
90.3 0.00064
90.35 0.00122
90.4 0.00123
90.45 0.00262
90.5 0.00099
90.55 0.0015
90.6 0.00263
90.65 0.00271
90.7 0.00701
90.75 0.01316
90.8 0.01939
90.85 0.02599
90.9 0.02874
90.95 0.02789
91 0.02792
91.05 0.02455
91.1 0.02479
91.15 0.02072
91.2 0.01763
91.25 0.01756
91.3 0.01886
91.35 0.01444
91.4 0.01232
91.45 0.00735
91.5 0.00339
91.55 0.00278
91.6 0.00495
91.65 0.00615
91.7 0.00715
91.75 0.01124
91.8 0.00948
91.85 0.01042
91.9 0.01027
91.95 0.01019
92 0.00941
92.05 0.0032
92.1 0.00119
92.15 0.00392
92.2 0.00549
92.25 0.00255
92.3 -0.00053
92.35 0.00199
92.4 0.00418
92.45 0.00381
92.5 -0.00039
92.55 -0.00223
92.6 -0.0027
92.65 0.00006
92.7 0.00365
92.75 0.00211
92.8 -0.00368
92.85 -0.00297
92.9 -0.00551
92.95 -0.0105
93 -0.00964
93.05 -0.00812
93.1 -0.01159
93.15 -0.01228
93.2 -0.01493
93.25 -0.0178
93.3 -0.0154
93.35 -0.00817
93.4 -0.00024
93.45 0.00191
93.5 -0.00079
93.55 -0.00534
93.6 -0.00651
93.65 -0.00805
93.7 -0.01047
93.75 -0.01579
93.8 -0.01957
93.85 -0.0169
93.9 -0.01814
93.95 -0.01579
94 -0.0083
94.05 0.00021
94.1 0.00704
94.15 0.00746
94.2 0.00741
94.25 0.00986
94.3 0.00953
94.35 0.00745
94.4 0.00074
94.45 -0.00694
94.5 -0.01559
94.55 -0.01984
94.6 -0.01721
94.65 -0.01345
94.7 -0.00673
94.75 -0.00008
94.8 0.00812
94.85 0.01679
94.9 0.02174
94.95 0.02314
95 0.02661
95.05 0.02878
95.1 0.02776
95.15 0.02544
95.2 0.02539
95.25 0.0234
95.3 0.0216
95.35 0.01979
95.4 0.02036
95.45 0.01723
95.5 0.00895
95.55 0.00409
95.6 0.00298
95.65 -0.00024
95.7 -0.00328
95.75 -0.00789
95.8 -0.01156
95.85 -0.01541
95.9 -0.01901
95.95 -0.02163
96 -0.0184
96.05 -0.01326
96.1 -0.01271
96.15 -0.00847
96.2 -0.0018
96.25 0.0016
96.3 0.00466
96.35 0.00451
96.4 0.00789
96.45 0.01025
96.5 0.01051
96.55 0.00745
96.6 0.00476
96.65 -0.0004
96.7 -0.00832
96.75 -0.01447
96.8 -0.01912
96.85 -0.02449
96.9 -0.02772
96.95 -0.03056
97 -0.03288
97.05 -0.03352
97.1 -0.03551
97.15 -0.03154
97.2 -0.02761
97.25 -0.01952
97.3 -0.01756
97.35 -0.01607
97.4 -0.01721
97.45 -0.01428
97.5 -0.00749
97.55 -0.00249
97.6 0.00101
97.65 0.0022
97.7 0.00236
97.75 0.00368
97.8 0.00112
97.85 0.00048
97.9 0.00476
97.95 0.00469
98 0.00024
98.05 -0.00645
98.1 -0.00558
98.15 -0.00728
98.2 -0.00905
98.25 -0.00876
98.3 -0.0049
98.35 0.00248
98.4 0.00765
98.45 0.01416
98.5 0.02104
98.55 0.0203
98.6 0.01424
98.65 0.0061
98.7 0.00106
98.75 -0.00455
98.8 -0.00561
98.85 -0.00421
98.9 0.00092
98.95 0.00742
99 0.00699
99.05 0.00144
99.1 -0.00274
99.15 -0.00233
99.2 0.00036
99.25 0.00424
99.3 0.00613
99.35 0.00736
99.4 0.0106
99.45 0.01135
99.5 0.00889
99.55 0.00667
99.6 0.00638
99.65 0.0072
99.7 0.01138
99.75 0.01126
99.8 0.00808
99.85 0.00102
99.9 -0.00011
99.95 0.00057
