0 0
0.05 0.0004
0.1 0.00165
0.15 0.0029
0.2 0.0039
0.25 0.00527
0.3 0.00569
0.35 0.00653
0.4 0.00689
0.45 0.00674
0.5 0.00712
0.55 0.00775
0.6 0.00752
0.65 0.00763
0.7 0.00735
0.75 0.00702
0.8 0.00665
0.85 0.00679
0.9 0.00679
0.95 0.007
1 0.00695
1.05 0.00668
1.1 0.00686
1.15 0.00638
1.2 0.00558
1.25 0.00545
1.3 0.00538
1.35 0.00515
1.4 0.00456
1.45 0.00408
1.5 0.00385
1.55 0.00394
1.6 0.00429
1.65 0.00477
1.7 0.00556
1.75 0.00612
1.8 0.00679
1.85 0.00648
1.9 0.00649
1.95 0.0058
2 0.00548
2.05 0.00561
2.1 0.00513
2.15 0.00499
2.2 0.00467
2.25 0.00416
2.3 0.00386
2.35 0.00361
2.4 0.00293
2.45 0.00242
2.5 0.00235
2.55 0.0021
2.6 0.00153
2.65 0.00151
2.7 0.00129
2.75 0.0009
2.8 0.00056
2.85 0.00101
2.9 0.00187
2.95 0.00229
3 0.00294
3.05 0.00355
3.1 0.00384
3.15 0.00379
3.2 0.00404
3.25 0.00429
3.3 0.00454
3.35 0.00454
3.4 0.00409
3.45 0.00411
3.5 0.00368
3.55 0.00313
3.6 0.00248
3.65 0.0022
3.7 0.00206
3.75 0.00158
3.8 0.00156
3.85 0.00182
3.9 0.00227
3.95 0.00301
4 0.00324
4.05 0.00277
4.1 0.00241
4.15 0.00265
4.2 0.00321
4.25 0.00386
4.3 0.0037
4.35 0.00306
4.4 0.00252
4.45 0.00241
4.5 0.00251
4.55 0.00272
4.6 0.0022
4.65 0.00141
4.7 0.00097
4.75 0.00089
4.8 0.0006
4.85 0.00001
4.9 -0.00053
4.95 -0.00094
5 -0.00137
5.05 -0.00196
5.1 -0.0016
5.15 -0.00096
5.2 -0.00059
5.25 0.00008
5.3 0.0011
5.35 0.00228
5.4 0.00248
5.45 0.00262
5.5 0.0024
5.55 0.00262
5.6 0.00281
5.65 0.00251
5.7 0.00202
5.75 0.00108
5.8 0.00099
5.85 0.00077
5.9 0.00026
5.95 -0.00032
6 -0.00098
6.05 -0.00071
6.1 -0.00077
6.15 -0.0011
6.2 -0.00088
6.25 -0.00022
6.3 0.00011
6.35 0.00016
6.4 0.00051
6.45 0.00087
6.5 0.00112
6.55 0.00159
6.6 0.00147
6.65 0.00151
6.7 0.00119
6.75 0.00133
6.8 0.0009
6.85 0.00059
6.9 0.00009
6.95 -0.00046
7 -0.00103
7.05 -0.00073
7.1 -0
7.15 0.00027
7.2 -0.00002
7.25 -0.00005
7.3 -0.00023
7.35 -0.00082
7.4 -0.00122
7.45 -0.00154
7.5 -0.002
7.55 -0.00259
7.6 -0.00277
7.65 -0.00208
7.7 -0.00128
7.75 -0.00073
7.8 0.00024
7.85 0.00144
7.9 0.00207
7.95 0.00186
8 0.00141
8.05 0.00069
8.1 0.00052
8.15 0.00087
8.2 0.00066
8.25 0.00083
8.3 0.00076
8.35 0.00027
8.4 -0.00051
8.45 -0.0014
8.5 -0.00216
8.55 -0.00239
8.6 -0.0023
8.65 -0.00172
8.7 -0.00125
8.75 -0.00034
8.8 0.00057
8.85 0.00152
8.9 0.00228
8.95 0.00213
9 0.00158
9.05 0.00076
9.1 -0.00006
9.15 -0.00083
9.2 -0.00074
9.25 -0.00098
9.3 -0.00126
9.35 -0.00086
9.4 -0.00078
9.45 -0.00061
9.5 -0.00013
9.55 0.00031
9.6 0.00019
9.65 0.00044
9.7 0.00052
9.75 0.00045
9.8 0.00026
9.85 -0.00034
9.9 -0.00044
9.95 -0.00009
10 0.00053
10.05 0.00066
10.1 0.00096
10.15 0.00102
10.2 0.00079
10.25 0.00102
10.3 0.00088
10.35 0.00043
10.4 0.00006
10.45 -0.00035
10.5 -0.00058
10.55 -0.00081
10.6 -0.00038
10.65 -0.00006
10.7 -0.00003
10.75 0.00012
10.8 0.00032
10.85 0.00084
10.9 0.0007
10.95 0.00055
11 0.00101
11.05 0.00106
11.1 0.00148
11.15 0.00157
11.2 0.00179
11.25 0.00157
11.3 0.00104
11.35 0.00115
11.4 0.00168
11.45 0.00173
11.5 0.00175
11.55 0.00136
11.6 0.00111
11.65 0.00056
11.7 -0.00012
11.75 -0.00051
11.8 -0.00043
11.85 -0.00056
11.9 -0.00078
11.95 -0.00047
12 -0.00049
12.05 -0.00038
12.1 0.00001
12.15 0.00051
12.2 0.00066
12.25 0.00109
12.3 0.00173
12.35 0.00211
12.4 0.00231
12.45 0.00276
12.5 0.00302
12.55 0.0026
12.6 0.00209
12.65 0.00146
12.7 0.0014
12.75 0.00138
12.8 0.00108
12.85 0.00108
12.9 0.00116
12.95 0.00113
13 0.00087
13.05 0.00036
13.1 0.00009
13.15 -0.00056
13.2 -0.00039
13.25 -0.00044
13.3 -0.00059
13.35 -0.00071
13.4 -0.00085
13.45 -0.00078
13.5 -0.00123
13.55 -0.00113
13.6 -0.00076
13.65 -0.00098
13.7 -0.00156
13.75 -0.00174
13.8 -0.00119
13.85 -0.00122
13.9 -0.00155
13.95 -0.00185
14 -0.00238
14.05 -0.00271
14.1 -0.00256
14.15 -0.00183
14.2 -0.00137
14.25 -0.0009
14.3 -0.00088
14.35 -0.00112
14.4 -0.00116
14.45 -0.00062
14.5 -0.00046
14.55 0.00003
14.6 -0.00013
14.65 -0.00071
14.7 -0.00117
14.75 -0.00127
14.8 -0.00066
14.85 0.00004
14.9 0.00084
14.95 0.00098
15 0.00097
15.05 0.00096
15.1 0.00046
15.15 0.00015
15.2 0.00031
15.25 0.00019
15.3 -0.00006
15.35 0.00035
15.4 0.00013
15.45 0.00034
15.5 0.00038
15.55 0.00026
15.6 -0.00033
15.65 -0.00029
15.7 0.00022
15.75 0.0001
15.8 -0.00005
15.85 0.00037
15.9 0.00064
15.95 0.00131
16 0.00212
16.05 0.00266
16.1 0.00308
16.15 0.00361
16.2 0.0038
16.25 0.00372
16.3 0.00315
16.35 0.00228
16.4 0.00207
16.45 0.00173
16.5 0.00123
16.55 0.00116
16.6 0.00052
16.65 -0.00044
16.7 -0.00106
16.75 -0.00124
16.8 -0.0009
16.85 -0.00091
16.9 -0.00078
16.95 -0.00085
17 -0.00068
17.05 -0.00089
17.1 -0.00073
17.15 -0.00071
17.2 -0.00021
17.25 0.00001
17.3 0.00057
17.35 0.00087
17.4 0.00108
17.45 0.00117
17.5 0.00145
17.55 0.00194
17.6 0.00235
17.65 0.00221
17.7 0.00244
17.75 0.00269
17.8 0.00224
17.85 0.00121
17.9 0.0004
17.95 -0.00052
18 -0.00121
18.05 -0.00126
18.1 -0.00107
18.15 -0.00131
18.2 -0.00084
18.25 -0.00067
18.3 -0.00101
18.35 -0.00121
18.4 -0.00089
18.45 -0.00029
18.5 -0.00015
18.55 0.00011
18.6 -0.00011
18.65 0.00008
18.7 0.00043
18.75 0.00048
18.8 -0.00006
18.85 -0.00038
18.9 -0.0009
18.95 -0.00156
19 -0.00226
19.05 -0.00201
19.1 -0.00172
19.15 -0.00168
19.2 -0.00116
19.25 -0.00057
19.3 -0.00043
19.35 0.00019
19.4 0.00079
19.45 0.00062
19.5 0.00021
19.55 0.00017
19.6 -0.00013
19.65 -0.00022
19.7 -0.00044
19.75 -0.00012
19.8 -0.0001
19.85 -0.00018
19.9 -0.0004
19.95 -0.00093
20 -0.00079
20.05 -0.00043
20.1 0.00012
20.15 0.00078
20.2 0.00164
20.25 0.00155
20.3 0.00162
20.35 0.00186
20.4 0.00174
20.45 0.00187
20.5 0.00125
20.55 0.00058
20.6 -0.00029
20.65 -0.00087
20.7 -0.00109
20.75 -0.00132
20.8 -0.00149
20.85 -0.00168
20.9 -0.00221
20.95 -0.00242
21 -0.00288
21.05 -0.00344
21.1 -0.00296
21.15 -0.00273
21.2 -0.00257
21.25 -0.00267
21.3 -0.00252
21.35 -0.00257
21.4 -0.00197
21.45 -0.00125
21.5 -0.00042
21.55 0.00055
21.6 0.00068
21.65 0.00075
21.7 0.00025
21.75 -0.00013
21.8 -0.00051
21.85 -0.00068
21.9 -0.00089
21.95 -0.00107
22 -0.00054
22.05 0.00037
22.1 0.00108
22.15 0.0016
22.2 0.00158
22.25 0.00125
22.3 0.0014
22.35 0.0013
22.4 0.00165
22.45 0.00198
22.5 0.00218
22.55 0.00214
22.6 0.00224
22.65 0.00266
22.7 0.00218
22.75 0.0019
22.8 0.00205
22.85 0.00172
22.9 0.00119
22.95 0.00122
23 0.0007
23.05 0.0006
23.1 0.00042
23.15 0.00016
23.2 -0.00017
23.25 -0.00083
23.3 -0.00111
23.35 -0.00112
23.4 -0.00105
23.45 -0.00068
23.5 -0.00038
23.55 -0.0001
23.6 0.00016
23.65 0.0006
23.7 0.0005
23.75 0.00068
23.8 0.00098
23.85 0.00084
23.9 0.00058
23.95 0.00055
24 0.0004
24.05 0.00054
24.1 0.00054
24.15 0.00052
24.2 0.00059
24.25 0.00108
24.3 0.00172
24.35 0.00217
24.4 0.00277
24.45 0.00283
24.5 0.00206
24.55 0.00173
24.6 0.00105
24.65 0.00004
24.7 -0.00044
24.75 -0.00033
24.8 -0.00077
24.85 -0.00148
24.9 -0.00154
24.95 -0.00189
25 -0.00216
25.05 -0.00254
25.1 -0.00292
25.15 -0.00339
25.2 -0.00392
25.25 -0.00371
25.3 -0.00291
25.35 -0.00204
25.4 -0.00141
25.45 -0.00089
25.5 -0.00103
25.55 -0.00066
25.6 -0.00033
25.65 -0.00037
25.7 -0.0006
25.75 -0.00071
25.8 -0.00016
25.85 0.00045
25.9 0.00027
25.95 0.00021
26 -0.00029
26.05 -0.00052
26.1 -0.0002
26.15 -0.00009
26.2 0.00016
26.25 0.00067
26.3 0.00119
26.35 0.00159
26.4 0.00212
26.45 0.00258
26.5 0.00217
26.55 0.00219
26.6 0.00218
26.65 0.00208
26.7 0.00207
26.75 0.00219
26.8 0.00204
26.85 0.0017
26.9 0.0016
26.95 0.00134
27 0.00117
27.05 0.0009
27.1 0.00042
27.15 0.00015
27.2 -0.00018
27.25 -0.00069
27.3 -0.0007
27.35 -0.00089
27.4 -0.00078
27.45 -0.00064
27.5 -0.00096
27.55 -0.00071
27.6 -0.00004
27.65 0.00008
27.7 0.00033
27.75 0.00023
27.8 -0.00012
27.85 0.00001
27.9 0.00021
27.95 0.00056
28 0.0005
28.05 0.00002
28.1 -0.00072
28.15 -0.00087
28.2 -0.00087
28.25 -0.00102
28.3 -0.00079
28.35 -0.0005
28.4 0.00006
28.45 0.00071
28.5 0.00158
28.55 0.00172
28.6 0.00164
28.65 0.00128
28.7 0.00034
28.75 -0.0003
28.8 -0.00081
28.85 -0.00091
28.9 -0.00127
28.95 -0.00132
29 -0.00106
29.05 -0.0014
29.1 -0.00188
29.15 -0.00311
29.2 -0.00462
29.25 -0.00597
29.3 -0.00712
29.35 -0.00883
29.4 -0.01006
29.45 -0.01149
29.5 -0.01373
29.55 -0.01643
29.6 -0.01961
29.65 -0.02299
29.7 -0.0267
29.75 -0.0301
29.8 -0.03453
29.85 -0.03973
29.9 -0.04547
29.95 -0.05123
30 -0.05759
30.05 -0.0646
30.1 -0.07222
30.15 -0.08088
30.2 -0.09118
30.25 -0.10238
30.3 -0.11497
30.35 -0.12837
30.4 -0.14217
30.45 -0.1563
30.5 -0.17125
30.55 -0.18666
30.6 -0.20205
30.65 -0.21849
30.7 -0.23507
30.75 -0.25149
30.8 -0.26764
30.85 -0.28302
30.9 -0.29706
30.95 -0.30965
31 -0.32094
31.05 -0.33126
31.1 -0.34005
31.15 -0.34613
31.2 -0.35062
31.25 -0.3521
31.3 -0.35148
31.35 -0.34802
31.4 -0.34243
31.45 -0.33438
31.5 -0.32367
31.55 -0.31083
31.6 -0.29554
31.65 -0.27836
31.7 -0.25884
31.75 -0.23717
31.8 -0.21468
31.85 -0.19076
31.9 -0.16672
31.95 -0.14217
32 -0.11681
32.05 -0.09149
32.1 -0.06646
32.15 -0.04213
32.2 -0.01928
32.25 0.00232
32.3 0.02342
32.35 0.04297
32.4 0.06151
32.45 0.07936
32.5 0.0957
32.55 0.11029
32.6 0.12407
32.65 0.1369
32.7 0.14813
32.75 0.15865
32.8 0.16856
32.85 0.17735
32.9 0.18526
32.95 0.19309
33 0.20014
33.05 0.20748
33.1 0.2149
33.15 0.22242
33.2 0.22978
33.25 0.23627
33.3 0.24203
33.35 0.24807
33.4 0.25382
33.45 0.25921
33.5 0.26474
33.55 0.26988
33.6 0.27423
33.65 0.27846
33.7 0.28192
33.75 0.28432
33.8 0.2866
33.85 0.28851
33.9 0.28908
33.95 0.28879
34 0.28741
34.05 0.28599
34.1 0.28448
34.15 0.28194
34.2 0.27875
34.25 0.27529
34.3 0.2714
34.35 0.26657
34.4 0.26097
34.45 0.25555
34.5 0.24987
34.55 0.24335
34.6 0.23614
34.65 0.22882
34.7 0.22166
34.75 0.2139
34.8 0.20637
34.85 0.19937
34.9 0.19182
34.95 0.18409
35 0.17653
35.05 0.169
35.1 0.16123
35.15 0.15343
35.2 0.14612
35.25 0.13919
35.3 0.1328
35.35 0.12626
35.4 0.1204
35.45 0.11457
35.5 0.10868
35.55 0.10291
35.6 0.09732
35.65 0.09111
35.7 0.08501
35.75 0.0792
35.8 0.07307
35.85 0.06787
35.9 0.063
35.95 0.05785
36 0.05274
36.05 0.04805
36.1 0.04361
36.15 0.03924
36.2 0.03453
36.25 0.02977
36.3 0.02533
36.35 0.02097
36.4 0.01711
36.45 0.01416
36.5 0.01077
36.55 0.00765
36.6 0.00417
36.65 0.00121
36.7 -0.00112
36.75 -0.00377
36.8 -0.00615
36.85 -0.00792
36.9 -0.00997
36.95 -0.01215
37 -0.01426
37.05 -0.01675
37.1 -0.01908
37.15 -0.0213
37.2 -0.02294
37.25 -0.02401
37.3 -0.02513
37.35 -0.02672
37.4 -0.02817
37.45 -0.02986
37.5 -0.0314
37.55 -0.033
37.6 -0.0344
37.65 -0.03554
37.7 -0.03673
37.75 -0.0373
37.8 -0.03762
37.85 -0.03779
37.9 -0.03763
37.95 -0.0377
38 -0.03773
38.05 -0.03769
38.1 -0.03818
38.15 -0.03897
38.2 -0.03957
38.25 -0.03983
38.3 -0.03997
38.35 -0.04026
38.4 -0.04041
38.45 -0.04112
38.5 -0.04182
38.55 -0.04191
38.6 -0.04164
38.65 -0.04136
38.7 -0.04168
38.75 -0.04147
38.8 -0.04101
38.85 -0.04124
38.9 -0.04141
38.95 -0.04104
39 -0.04117
39.05 -0.04081
39.1 -0.04004
39.15 -0.03939
39.2 -0.03918
39.25 -0.03859
39.3 -0.03768
39.35 -0.03684
39.4 -0.03588
39.45 -0.03494
39.5 -0.03431
39.55 -0.03453
39.6 -0.03492
39.65 -0.03557
39.7 -0.03578
39.75 -0.03532
39.8 -0.03451
39.85 -0.0341
39.9 -0.03389
39.95 -0.03345
40 -0.03335
40.05 -0.03309
40.1 -0.0332
40.15 -0.0336
40.2 -0.03344
40.25 -0.03293
40.3 -0.03186
40.35 -0.03132
40.4 -0.03042
40.45 -0.02925
40.5 -0.02835
40.55 -0.02808
40.6 -0.02828
40.65 -0.02789
40.7 -0.0279
40.75 -0.0273
40.8 -0.02665
40.85 -0.02614
40.9 -0.02541
40.95 -0.02537
41 -0.02531
41.05 -0.0255
41.1 -0.02567
41.15 -0.02581
41.2 -0.02524
41.25 -0.02506
41.3 -0.02443
41.35 -0.02336
41.4 -0.02289
41.45 -0.02202
41.5 -0.0217
41.55 -0.02132
41.6 -0.02111
41.65 -0.02044
41.7 -0.01951
41.75 -0.01854
41.8 -0.01752
41.85 -0.01702
41.9 -0.01708
41.95 -0.01774
42 -0.01781
42.05 -0.01765
42.1 -0.01776
42.15 -0.01776
42.2 -0.01741
42.25 -0.01684
42.3 -0.01639
42.35 -0.01638
42.4 -0.01624
42.45 -0.01664
42.5 -0.01694
42.55 -0.01707
42.6 -0.01717
42.65 -0.01708
42.7 -0.01729
42.75 -0.01682
42.8 -0.01676
42.85 -0.01678
42.9 -0.01694
42.95 -0.01683
43 -0.01615
43.05 -0.01532
43.1 -0.01476
43.15 -0.01379
43.2 -0.01291
43.25 -0.01277
43.3 -0.01282
43.35 -0.01331
43.4 -0.01346
43.45 -0.01368
43.5 -0.01333
43.55 -0.01309
43.6 -0.01239
43.65 -0.01163
43.7 -0.0116
43.75 -0.01143
43.8 -0.01128
43.85 -0.01068
43.9 -0.01042
43.95 -0.01039
44 -0.01051
44.05 -0.01079
44.1 -0.01094
44.15 -0.0106
44.2 -0.00992
44.25 -0.00911
44.3 -0.00813
44.35 -0.00722
44.4 -0.00713
44.45 -0.00686
44.5 -0.00628
44.55 -0.00589
44.6 -0.0053
44.65 -0.00552
44.7 -0.00583
44.75 -0.00573
44.8 -0.00591
44.85 -0.00573
44.9 -0.00626
44.95 -0.00634
45 -0.00695
45.05 -0.00734
45.1 -0.00757
45.15 -0.00754
45.2 -0.00734
45.25 -0.00734
45.3 -0.00701
45.35 -0.00691
45.4 -0.00663
45.45 -0.00693
45.5 -0.00742
45.55 -0.00732
45.6 -0.00772
45.65 -0.00834
45.7 -0.00839
45.75 -0.0085
45.8 -0.00839
45.85 -0.00778
45.9 -0.0077
45.95 -0.00718
46 -0.00624
46.05 -0.00548
46.1 -0.00499
46.15 -0.00455
46.2 -0.00425
46.25 -0.00387
46.3 -0.00424
46.35 -0.00506
46.4 -0.00513
46.45 -0.00513
46.5 -0.0053
46.55 -0.00529
46.6 -0.00508
46.65 -0.00492
46.7 -0.00497
46.75 -0.00501
46.8 -0.00446
46.85 -0.00372
46.9 -0.00352
46.95 -0.0039
47 -0.00443
47.05 -0.0046
47.1 -0.00433
47.15 -0.00419
47.2 -0.00429
47.25 -0.00413
47.3 -0.00438
47.35 -0.00436
47.4 -0.00389
47.45 -0.00388
47.5 -0.00406
47.55 -0.00391
47.6 -0.00384
47.65 -0.00337
47.7 -0.00314
47.75 -0.0035
47.8 -0.00358
47.85 -0.00384
47.9 -0.00354
47.95 -0.00328
48 -0.00304
48.05 -0.00236
48.1 -0.00178
48.15 -0.00189
48.2 -0.00171
48.25 -0.00157
48.3 -0.00185
48.35 -0.00258
48.4 -0.00303
48.45 -0.00363
48.5 -0.00435
48.55 -0.00501
48.6 -0.0052
48.65 -0.00465
48.7 -0.00407
48.75 -0.00332
48.8 -0.00252
48.85 -0.00165
48.9 -0.00083
48.95 -0.00052
49 0.00006
49.05 0.00035
49.1 0.0005
49.15 0.00024
49.2 0.00033
49.25 -0.00009
49.3 -0.00007
49.35 -0.00002
49.4 -0.00025
49.45 -0.00095
49.5 -0.00193
49.55 -0.00211
49.6 -0.00213
49.65 -0.00238
49.7 -0.00289
49.75 -0.00317
49.8 -0.00273
49.85 -0.00251
49.9 -0.00258
49.95 -0.00262
50 -0.00263
50.05 -0.00272
50.1 -0.00222
50.15 -0.00187
50.2 -0.00212
50.25 -0.00207
50.3 -0.00179
50.35 -0.00167
50.4 -0.00167
50.45 -0.00184
50.5 -0.00149
50.55 -0.00096
50.6 -0.00096
50.65 -0.00129
50.7 -0.00203
50.75 -0.00197
50.8 -0.00166
50.85 -0.00149
50.9 -0.00144
50.95 -0.00117
51 -0.00062
51.05 0.00004
51.1 0.00066
51.15 0.00047
51.2 -0.0002
51.25 -0.00052
51.3 -0.00061
51.35 -0.00086
51.4 -0.00064
51.45 -0.00021
51.5 -0.00027
51.55 -0.00061
51.6 -0.00127
51.65 -0.00216
51.7 -0.00285
51.75 -0.00345
51.8 -0.00359
51.85 -0.00358
51.9 -0.00317
51.95 -0.00235
52 -0.002
52.05 -0.00211
52.1 -0.00234
52.15 -0.00266
52.2 -0.00249
52.25 -0.00227
52.3 -0.00179
52.35 -0.00125
52.4 -0.00074
52.45 -0.00025
52.5 -0.00046
52.55 -0.00061
52.6 -0.00059
52.65 -0.00106
52.7 -0.00122
52.75 -0.00157
52.8 -0.0022
52.85 -0.00204
52.9 -0.00185
52.95 -0.00178
53 -0.00168
53.05 -0.0019
53.1 -0.002
53.15 -0.00168
53.2 -0.00189
53.25 -0.00223
53.3 -0.00224
53.35 -0.00218
53.4 -0.0017
53.45 -0.00171
53.5 -0.0015
53.55 -0.00089
53.6 0.00001
53.65 0.00006
53.7 -0.00007
53.75 0.0003
53.8 0.00039
53.85 -0.00004
53.9 -0.00065
53.95 -0.00045
54 -0.00026
54.05 -0.00019
54.1 -0.00055
54.15 -0.00069
54.2 -0.00111
54.25 -0.00176
54.3 -0.00236
54.35 -0.00273
54.4 -0.0026
54.45 -0.00284
54.5 -0.00321
54.55 -0.00339
54.6 -0.00286
54.65 -0.00259
54.7 -0.00218
54.75 -0.00147
54.8 -0.00044
54.85 -0.00007
54.9 0.00057
54.95 0.00081
55 0.00038
55.05 -0.00024
55.1 -0.00004
55.15 0.00004
55.2 0.00027
55.25 0.00028
55.3 0.00063
55.35 0.00028
55.4 -0.00045
55.45 -0.00113
55.5 -0.00137
55.55 -0.00188
55.6 -0.00231
55.65 -0.00278
55.7 -0.00245
55.75 -0.00169
55.8 -0.0009
55.85 -0.00067
55.9 -0.00021
55.95 0.00026
56 0.00096
56.05 0.00129
56.1 0.00129
56.15 0.0013
56.2 0.00122
56.25 0.00125
56.3 0.00147
56.35 0.00125
56.4 0.00077
56.45 0.0009
56.5 0.00117
56.55 0.00145
56.6 0.00187
56.65 0.00204
56.7 0.00158
56.75 0.0013
56.8 0.00138
56.85 0.00118
56.9 0.00044
56.95 -0.00021
57 -0.00007
57.05 -0.00029
57.1 -0.00037
57.15 0.00013
57.2 0.0004
57.25 0.001
57.3 0.00116
57.35 0.00163
57.4 0.00234
57.45 0.00258
57.5 0.00212
57.55 0.00201
57.6 0.00203
57.65 0.00241
57.7 0.00284
57.75 0.00257
57.8 0.00175
57.85 0.00104
57.9 0.00085
57.95 0.00054
58 -0.00013
58.05 -0.00036
58.1 -0.00036
58.15 -0.00072
58.2 -0.00088
58.25 -0.00137
58.3 -0.00103
58.35 -0.001
58.4 -0.00035
58.45 -0.00041
58.5 -0.00065
58.55 -0.00091
58.6 -0.00127
58.65 -0.00108
58.7 -0.00119
58.75 -0.00083
58.8 -0.00084
58.85 -0.00059
58.9 -0.0007
58.95 -0.00098
59 -0.00089
59.05 -0.00116
59.1 -0.00099
59.15 -0.00049
59.2 -0.00062
59.25 -0.00072
59.3 -0.00088
59.35 -0.00079
59.4 -0.00105
59.45 -0.00153
59.5 -0.00212
59.55 -0.00199
59.6 -0.00122
59.65 -0.00069
59.7 0.00015
59.75 0.00054
59.8 0.00104
59.85 0.0012
59.9 0.00079
59.95 0.00042
60 -0.00006
60.05 -0.00045
60.1 -0.00017
60.15 -0.0003
60.2 -0.00066
60.25 -0.00051
60.3 -0.00084
60.35 -0.00074
60.4 -0.00071
60.45 -0.00021
60.5 0.00026
60.55 0.00076
60.6 0.00066
60.65 0.00051
60.7 0.00061
60.75 0.00051
60.8 -0.00004
60.85 -0.0007
60.9 -0.00074
60.95 -0.00119
61 -0.00097
61.05 -0.00077
61.1 -0.001
61.15 -0.00129
61.2 -0.00107
61.25 -0.00099
61.3 -0.00043
61.35 -0.00053
61.4 -0.00058
61.45 -0.00027
61.5 -0.00036
61.55 0.00007
61.6 0.00065
61.65 0.00104
61.7 0.00144
61.75 0.00127
61.8 0.0016
61.85 0.00183
61.9 0.00231
61.95 0.0019
62 0.00155
62.05 0.0013
62.1 0.00084
62.15 0.00086
62.2 0.00037
62.25 0.00002
62.3 -0.00072
62.35 -0.00091
62.4 -0.00059
62.45 -0.00051
62.5 -0.00072
62.55 -0.0013
62.6 -0.00132
62.65 -0.00171
62.7 -0.00204
62.75 -0.00156
62.8 -0.00098
62.85 -0.00046
62.9 -0.00027
62.95 -0.00063
63 -0.00059
63.05 -0.00001
63.1 0.00017
63.15 0.0006
63.2 0.00047
63.25 0.00031
63.3 0.00034
63.35 0.00039
63.4 0.00033
63.45 0.00031
63.5 0.00012
63.55 -0.00049
63.6 -0.00027
63.65 -0.00063
63.7 -0.00048
63.75 -0.00027
63.8 -0.00019
63.85 0.00036
63.9 0.00117
63.95 0.00132
64 0.0012
64.05 0.00121
64.1 0.00098
64.15 0.00062
64.2 0.00077
64.25 0.0013
64.3 0.00101
64.35 0.00045
64.4 0
64.45 -0.0006
64.5 -0.0014
64.55 -0.00186
64.6 -0.00216
64.65 -0.00249
64.7 -0.00294
64.75 -0.00271
64.8 -0.00274
64.85 -0.00231
64.9 -0.00136
64.95 -0.0011
65 -0.00084
65.05 -0.0005
65.1 -0.00041
65.15 0.00004
65.2 -0.00005
65.25 -0.00053
65.3 -0.0011
65.35 -0.00113
65.4 -0.00065
65.45 -0.00077
65.5 -0.00033
65.55 0.00032
65.6 0.00089
65.65 0.00095
65.7 0.00148
65.75 0.00207
65.8 0.00176
65.85 0.0014
65.9 0.00147
65.95 0.00134
66 0.00151
66.05 0.00176
66.1 0.00226
66.15 0.00276
66.2 0.00281
66.25 0.00264
66.3 0.00218
66.35 0.00115
66.4 0.0001
66.45 -0.00052
66.5 -0.00128
66.55 -0.00157
66.6 -0.0018
66.65 -0.00204
66.7 -0.00245
66.75 -0.002
66.8 -0.00201
66.85 -0.00205
66.9 -0.00217
66.95 -0.00258
67 -0.00245
67.05 -0.00264
67.1 -0.0022
67.15 -0.00222
67.2 -0.00253
67.25 -0.00276
67.3 -0.00226
67.35 -0.00143
67.4 -0.00091
67.45 -0.00071
67.5 0.00007
67.55 0.00038
67.6 0.00031
67.65 0.00003
67.7 0.00025
67.75 0.00096
67.8 0.00119
67.85 0.00151
67.9 0.00218
67.95 0.00208
68 0.00198
68.05 0.00167
68.1 0.00164
68.15 0.0011
68.2 0.00044
68.25 -0.00013
68.3 -0.0007
68.35 -0.00111
68.4 -0.00143
68.45 -0.00094
68.5 -0.00025
68.55 0.00022
68.6 0.00068
68.65 0.00114
68.7 0.00122
68.75 0.00173
68.8 0.00227
68.85 0.00261
68.9 0.00286
68.95 0.00265
69 0.00278
69.05 0.00299
69.1 0.00239
69.15 0.00141
69.2 0.00078
69.25 0.00045
69.3 -0.00011
69.35 -0.00029
69.4 -0.00059
69.45 -0.00065
69.5 -0.0003
69.55 0.0001
69.6 0.00052
69.65 0.00044
69.7 0.00066
69.75 0.00106
69.8 0.0012
69.85 0.0014
69.9 0.00109
69.95 0.00086
70 0.00015
70.05 -0.00023
70.1 -0.00024
70.15 -0.00003
70.2 -0.00004
70.25 0.00037
70.3 0.00112
70.35 0.00101
70.4 0.00068
70.45 0.00051
70.5 0.00077
70.55 0.00119
70.6 0.00095
70.65 0.00119
70.7 0.00075
70.75 0.00075
70.8 0.00103
70.85 0.00065
70.9 0.00064
70.95 0.00073
71 0.00076
71.05 0.00044
71.1 -0.00036
71.15 -0.00046
71.2 -0.00087
71.25 -0.00109
71.3 -0.00084
71.35 -0.00067
71.4 -0.00074
71.45 -0.00077
71.5 -0.00051
71.55 -0.00042
71.6 -0.00062
71.65 -0.00086
71.7 -0.00081
71.75 -0.00069
71.8 -0.00039
71.85 -0.00073
71.9 -0.00109
71.95 -0.00177
72 -0.0017
72.05 -0.0011
72.1 -0.0006
72.15 0.00007
72.2 0.00064
72.25 0.00111
72.3 0.00157
72.35 0.00158
72.4 0.00188
72.45 0.00231
72.5 0.00208
72.55 0.00151
72.6 0.00061
72.65 -0.00046
72.7 -0.00081
72.75 -0.00104
72.8 -0.00114
72.85 -0.00147
72.9 -0.00202
72.95 -0.00263
73 -0.00263
73.05 -0.00206
73.1 -0.00128
73.15 -0.00073
73.2 -0.00046
73.25 -0.00049
73.3 -0.00097
73.35 -0.00137
73.4 -0.00179
73.45 -0.00137
73.5 -0.00052
73.55 0.00006
73.6 0.00002
73.65 0.00003
73.7 0.00031
73.75 0.00029
73.8 -0.00003
73.85 -0.00041
73.9 -0.00017
73.95 0.00009
74 0.00078
74.05 0.00115
74.1 0.00137
74.15 0.00184
74.2 0.00198
74.25 0.00176
74.3 0.00192
74.35 0.00218
74.4 0.00268
74.45 0.0024
74.5 0.00179
74.55 0.00084
74.6 0.00025
74.65 -0.00015
74.7 -0.00025
74.75 -0.00086
74.8 -0.00154
74.85 -0.0022
74.9 -0.00272
74.95 -0.00237
75 -0.0016
75.05 -0.00047
75.1 -0.00001
75.15 0.00024
75.2 0.0008
75.25 0.00156
75.3 0.00187
75.35 0.00237
75.4 0.00219
75.45 0.00144
75.5 0.00059
75.55 0.00049
75.6 0.00084
75.65 0.00116
75.7 0.00112
75.75 0.00119
75.8 0.00158
75.85 0.00165
75.9 0.00106
75.95 0.00078
76 0.00097
76.05 0.00136
76.1 0.00187
76.15 0.00151
76.2 0.00092
76.25 0.00085
76.3 0.00079
76.35 0.001
76.4 0.00136
76.45 0.001
76.5 0.00049
76.55 -0.00034
76.6 -0.00111
76.65 -0.002
76.7 -0.00228
76.75 -0.00244
76.8 -0.00184
76.85 -0.00092
76.9 0.00024
76.95 0.00104
77 0.00093
77.05 0.00062
77.1 0.00039
77.15 0.00066
77.2 0.00128
77.25 0.00119
77.3 0.00117
77.35 0.0014
77.4 0.00138
77.45 0.00126
77.5 0.00049
77.55 -0.00015
77.6 -0.00064
77.65 -0.00059
77.7 -0.00091
77.75 -0.00118
77.8 -0.00143
77.85 -0.00193
77.9 -0.00267
77.95 -0.0025
78 -0.00271
78.05 -0.00317
78.1 -0.00316
78.15 -0.00277
78.2 -0.00267
78.25 -0.00235
78.3 -0.00238
78.35 -0.0017
78.4 -0.00157
78.45 -0.00178
78.5 -0.0019
78.55 -0.00164
78.6 -0.00087
78.65 -0.00001
78.7 0.0005
78.75 0.00064
78.8 0.00084
78.85 0.0008
78.9 0.00065
78.95 0.00098
79 0.00074
79.05 0.00095
79.1 0.00054
79.15 -0.00021
79.2 -0.00029
79.25 -0.00076
79.3 -0.00066
79.35 -0.00011
79.4 -0.00032
79.45 -0.00011
79.5 0.00019
79.55 0.00043
79.6 0.00107
79.65 0.00156
79.7 0.00194
79.75 0.00227
79.8 0.00221
79.85 0.00233
79.9 0.00236
79.95 0.00267
80 0.00286
80.05 0.0022
80.1 0.00155
80.15 0.00081
80.2 0.00077
80.25 0.00028
80.3 -0.00013
80.35 -0.00085
80.4 -0.00182
80.45 -0.0023
80.5 -0.00269
80.55 -0.00285
80.6 -0.00317
80.65 -0.00357
80.7 -0.00392
80.75 -0.00333
80.8 -0.00217
80.85 -0.00128
80.9 -0.00025
80.95 0.00077
81 0.00166
81.05 0.00207
81.1 0.00223
81.15 0.00236
81.2 0.0025
81.25 0.00255
81.3 0.00289
81.35 0.00316
81.4 0.00289
81.45 0.00228
81.5 0.00165
81.55 0.0009
81.6 -0.00012
81.65 -0.00064
81.7 -0.00054
81.75 0.00002
81.8 0.00039
81.85 0.00018
81.9 -0.00014
81.95 -0.00093
82 -0.00185
82.05 -0.00237
82.1 -0.00269
82.15 -0.00267
82.2 -0.00266
82.25 -0.00285
82.3 -0.00267
82.35 -0.00264
82.4 -0.00282
82.45 -0.00219
82.5 -0.00144
82.55 -0.00055
82.6 0.00021
82.65 0.00115
82.7 0.00175
82.75 0.0019
82.8 0.00203
82.85 0.00142
82.9 0.00046
82.95 -0.00019
83 -0.0002
83.05 -0.00048
83.1 -0.00019
83.15 0.00022
83.2 0.00079
83.25 0.0013
83.3 0.00125
83.35 0.00054
83.4 0.00025
83.45 0.00015
83.5 -0.00008
83.55 -0.00065
83.6 -0.00091
83.65 -0.00056
83.7 -0.00047
83.75 -0.00046
83.8 -0.00045
83.85 -0.0001
83.9 0.00013
83.95 -0
84 -0.0006
84.05 -0.00071
84.1 -0.00127
84.15 -0.0016
84.2 -0.00225
84.25 -0.00295
84.3 -0.00273
84.35 -0.00195
84.4 -0.00118
84.45 -0.00032
84.5 0.00014
84.55 0.00072
84.6 0.00151
84.65 0.00176
84.7 0.00136
84.75 0.00132
84.8 0.00096
84.85 0.0004
84.9 -0.00037
84.95 -0.00031
85 -0.00082
85.05 -0.00108
85.1 -0.00135
85.15 -0.00176
85.2 -0.00158
85.25 -0.00121
85.3 -0.0012
85.35 -0.00106
85.4 -0.00134
85.45 -0.00162
85.5 -0.00153
85.55 -0.00129
85.6 -0.00145
85.65 -0.00183
85.7 -0.00242
85.75 -0.00212
85.8 -0.00217
85.85 -0.00174
85.9 -0.00097
85.95 -0.00066
86 -0.00054
86.05 -0.00027
86.1 -0.00009
86.15 0.00018
86.2 0.00025
86.25 0.00047
86.3 0.0007
86.35 0.00085
86.4 0.0012
86.45 0.00126
86.5 0.00124
86.55 0.00156
86.6 0.00176
86.65 0.00131
86.7 0.00058
86.75 -0.00026
86.8 -0.00039
86.85 -0.00012
86.9 -0.00007
86.95 0.00052
87 0.00114
87.05 0.00134
87.1 0.00149
87.15 0.00129
87.2 0.00151
87.25 0.00111
87.3 0.00116
87.35 0.0016
87.4 0.00212
87.45 0.00194
87.5 0.00121
87.55 0.0002
87.6 -0.00021
87.65 -0.0005
87.7 -0.00016
87.75 -0.00011
87.8 0.00033
87.85 0.00066
87.9 0.00049
87.95 -0.00021
88 -0.0008
88.05 -0.00155
88.1 -0.00245
88.15 -0.00289
88.2 -0.00288
88.25 -0.00289
88.3 -0.0023
88.35 -0.00181
88.4 -0.00171
88.45 -0.00099
88.5 -0.00085
88.55 -0.00047
88.6 0.00029
88.65 0.00057
88.7 0.00081
88.75 0.00087
88.8 0.00135
88.85 0.00184
88.9 0.00174
88.95 0.00184
89 0.00176
89.05 0.0014
89.1 0.00074
89.15 -0.00027
89.2 -0.00096
89.25 -0.00125
89.3 -0.00138
89.35 -0.00169
89.4 -0.00121
89.45 -0.00127
89.5 -0.00151
89.55 -0.001
89.6 -0.00056
89.65 -0.00034
89.7 -0.00037
89.75 -0.0006
89.8 -0.00097
89.85 -0.00148
89.9 -0.00124
89.95 -0.00078
90 -0.0008
90.05 -0.00017
90.1 0.00006
90.15 -0.00003
90.2 0.00001
90.25 -0.00002
90.3 -0.00043
90.35 -0.00095
90.4 -0.00087
90.45 -0.00124
90.5 -0.00113
90.55 -0.00056
90.6 -0.00058
90.65 -0.0002
90.7 0.00059
90.75 0.00084
90.8 0.00095
90.85 0.00063
90.9 0.00093
90.95 0.00145
91 0.00211
91.05 0.00238
91.1 0.00183
91.15 0.00118
91.2 0.0008
91.25 -0.00002
91.3 -0.00035
91.35 -0.00048
91.4 -0.00071
91.45 -0.00025
91.5 -0.00018
91.55 -0.00005
91.6 -0.00043
91.65 -0.00075
91.7 -0.00124
91.75 -0.00135
91.8 -0.00138
91.85 -0.00102
91.9 -0.00125
91.95 -0.00107
92 -0.0013
92.05 -0.00183
92.1 -0.0021
92.15 -0.00245
92.2 -0.00228
92.25 -0.00211
92.3 -0.00197
92.35 -0.00212
92.4 -0.00167
92.45 -0.00107
92.5 -0.00072
92.55 -0.00032
92.6 -0.00055
92.65 -0.00113
92.7 -0.00149
92.75 -0.00181
92.8 -0.00141
92.85 -0.00045
92.9 0.00048
92.95 0.00124
93 0.00185
93.05 0.00176
93.1 0.00153
93.15 0.00112
93.2 0.00068
93.25 0.00056
93.3 0.00054
93.35 0.00003
93.4 -0.00047
93.45 -0.00035
93.5 0.00021
93.55 0.00028
93.6 0.0002
93.65 -0.00018
93.7 0.00018
93.75 0.00049
93.8 0.00115
93.85 0.00199
93.9 0.0026
93.95 0.00311
94 0.00364
94.05 0.00334
94.1 0.00234
94.15 0.00134
94.2 0.0011
94.25 0.00039
94.3 0.00036
94.35 -0.0002
94.4 -0.00062
94.45 -0.00077
94.5 -0.00059
94.55 -0.00065
94.6 -0.00042
94.65 0.00004
94.7 0
94.75 0.00036
94.8 0.00004
94.85 -0.00036
94.9 -0.00083
94.95 -0.0007
95 -0.0003
95.05 -0.00035
95.1 -0.00043
95.15 -0.0007
95.2 -0.00071
95.25 -0.00019
95.3 -0.00031
95.35 -0.00043
95.4 -0.00058
95.45 -0.00078
95.5 -0.0013
95.55 -0.00164
95.6 -0.00209
95.65 -0.00195
95.7 -0.00217
95.75 -0.00227
95.8 -0.00181
95.85 -0.00168
95.9 -0.00123
95.95 -0.0007
96 0.00012
96.05 0.0006
96.1 0.00099
96.15 0.00149
96.2 0.00214
96.25 0.00287
96.3 0.00336
96.35 0.00348
96.4 0.00304
96.45 0.00275
96.5 0.00264
96.55 0.00246
96.6 0.00236
96.65 0.0021
96.7 0.00189
96.75 0.00126
96.8 0.00045
96.85 -0.00026
96.9 -0.00096
96.95 -0.0012
97 -0.00149
97.05 -0.0014
97.1 -0.00081
97.15 -0.00038
97.2 0.00043
97.25 0.00053
97.3 0.00057
97.35 0.00081
97.4 0.00091
97.45 0.00046
97.5 -0.00018
97.55 -0.00092
97.6 -0.00116
97.65 -0.00136
97.7 -0.00092
97.75 -0.00052
97.8 -0.00006
97.85 0.00073
97.9 0.00154
97.95 0.0016
98 0.00166
98.05 0.00139
98.1 0.0006
98.15 -0.00033
98.2 -0.00047
98.25 -0.00071
98.3 -0.00097
98.35 -0.00079
98.4 -0.00052
98.45 -0.00015
98.5 -0.00004
98.55 0.00012
98.6 -0.0002
98.65 -0.00029
98.7 -0.00015
98.75 -0.00021
98.8 -0.00033
98.85 -0.00033
98.9 0.00015
98.95 0.00052
99 0.0011
99.05 0.00191
99.1 0.00247
99.15 0.00222
99.2 0.00153
99.25 0.00108
99.3 0.00063
99.35 0.00075
99.4 0.00047
99.45 0.00001
99.5 -0.00039
99.55 -0.00081
99.6 -0.00157
99.65 -0.0019
99.7 -0.00163
99.75 -0.00086
99.8 -0.00086
99.85 -0.00124
99.9 -0.0018
99.95 -0.00205
