0 0
0.05 0.00482
0.1 0.01303
0.15 0.01964
0.2 0.02574
0.25 0.02892
0.3 0.03576
0.35 0.04239
0.4 0.04724
0.45 0.05259
0.5 0.05675
0.55 0.06294
0.6 0.06591
0.65 0.07021
0.7 0.06898
0.75 0.06655
0.8 0.06787
0.85 0.06921
0.9 0.07024
0.95 0.06678
1 0.0615
1.05 0.06107
1.1 0.05999
1.15 0.05388
1.2 0.04507
1.25 0.04376
1.3 0.04266
1.35 0.0425
1.4 0.04059
1.45 0.03878
1.5 0.04053
1.55 0.0365
1.6 0.03515
1.65 0.03674
1.7 0.04164
1.75 0.04429
1.8 0.04881
1.85 0.05254
1.9 0.05718
1.95 0.06086
2 0.05596
2.05 0.05213
2.1 0.04738
2.15 0.04142
2.2 0.0363
2.25 0.02891
2.3 0.02699
2.35 0.02359
2.4 0.02619
2.45 0.0231
2.5 0.02224
2.55 0.02134
2.6 0.02452
2.65 0.02397
2.7 0.02282
2.75 0.02183
2.8 0.01811
2.85 0.01647
2.9 0.01869
2.95 0.02065
3 0.02275
3.05 0.02624
3.1 0.02632
3.15 0.02668
3.2 0.02798
3.25 0.02887
3.3 0.0286
3.35 0.03112
3.4 0.02766
3.45 0.02735
3.5 0.02216
3.55 0.01501
3.6 0.00653
3.65 0.00496
3.7 0.00898
3.75 0.015
3.8 0.02285
3.85 0.02649
3.9 0.02764
3.95 0.03101
4 0.03052
4.05 0.0328
4.1 0.03007
4.15 0.02327
4.2 0.01793
4.25 0.00824
4.3 0.00154
4.35 -0.00528
4.4 -0.01538
4.45 -0.02847
4.5 -0.04339
4.55 -0.05819
4.6 -0.0707
4.65 -0.08426
4.7 -0.0946
4.75 -0.11017
4.8 -0.12505
4.85 -0.14846
4.9 -0.16992
4.95 -0.19615
5 -0.23228
5.05 -0.27219
5.1 -0.31977
5.15 -0.37669
5.2 -0.43701
5.25 -0.50171
5.3 -0.56769
5.35 -0.63438
5.4 -0.70904
5.45 -0.78929
5.5 -0.86724
5.55 -0.94202
5.6 -1.0161
5.65 -1.09511
5.7 -1.17536
5.75 -1.25575
5.8 -1.33449
5.85 -1.40599
5.9 -1.469
5.95 -1.52522
6 -1.57712
6.05 -1.62032
6.1 -1.66314
6.15 -1.69675
6.2 -1.72183
6.25 -1.7463
6.3 -1.75999
6.35 -1.7641
6.4 -1.76896
6.45 -1.7677
6.5 -1.75595
6.55 -1.73397
6.6 -1.70732
6.65 -1.6688
6.7 -1.6283
6.75 -1.57421
6.8 -1.51191
6.85 -1.44173
6.9 -1.36229
6.95 -1.27458
7 -1.17071
7.05 -1.05406
7.1 -0.93104
7.15 -0.79464
7.2 -0.65201
7.25 -0.5006
7.3 -0.34718
7.35 -0.18903
7.4 -0.02952
7.45 0.12898
7.5 0.28406
7.55 0.43056
7.6 0.5778
7.65 0.72054
7.7 0.85964
7.75 0.98753
7.8 1.10306
7.85 1.21259
7.9 1.30684
7.95 1.38866
8 1.46173
8.05 1.52941
8.1 1.59242
8.15 1.64528
8.2 1.68968
8.25 1.72496
8.3 1.74918
8.35 1.76801
8.4 1.77609
8.45 1.7741
8.5 1.76319
8.55 1.75268
8.6 1.73987
8.65 1.71822
8.7 1.69266
8.75 1.66912
8.8 1.64072
8.85 1.60741
8.9 1.57042
8.95 1.5353
9 1.50476
9.05 1.47075
9.1 1.43315
9.15 1.39772
9.2 1.36185
9.25 1.326
9.3 1.29157
9.35 1.26015
9.4 1.22935
9.45 1.2015
9.5 1.17078
9.55 1.1362
9.6 1.10539
9.65 1.07926
9.7 1.05394
9.75 1.02627
9.8 0.99529
9.85 0.96728
9.9 0.93436
9.95 0.90849
10 0.88215
10.05 0.85285
10.1 0.82806
10.15 0.80071
10.2 0.76985
10.25 0.74628
10.3 0.72479
10.35 0.70395
10.4 0.67892
10.45 0.65243
10.5 0.62519
10.55 0.59775
10.6 0.57272
10.65 0.54676
10.7 0.51915
10.75 0.49253
10.8 0.46747
10.85 0.44545
10.9 0.41983
10.95 0.3974
11 0.37731
11.05 0.35295
11.1 0.32389
11.15 0.2908
11.2 0.26399
11.25 0.23311
11.3 0.20033
11.35 0.17022
11.4 0.14869
11.45 0.12517
11.5 0.09995
11.55 0.07337
11.6 0.05117
11.65 0.03163
11.7 0.01026
11.75 -0.00574
11.8 -0.01576
11.85 -0.03026
11.9 -0.04276
11.95 -0.05537
12 -0.07228
12.05 -0.08899
12.1 -0.10826
12.15 -0.12786
12.2 -0.14782
12.25 -0.16477
12.3 -0.17668
12.35 -0.18587
12.4 -0.19637
12.45 -0.20167
12.5 -0.2088
12.55 -0.21481
12.6 -0.21802
12.65 -0.22461
12.7 -0.22835
12.75 -0.22701
12.8 -0.23121
12.85 -0.23468
12.9 -0.23891
12.95 -0.24067
13 -0.23875
13.05 -0.2366
13.1 -0.23878
13.15 -0.24314
13.2 -0.24825
13.25 -0.24687
13.3 -0.24142
13.35 -0.23391
13.4 -0.23305
13.45 -0.22998
13.5 -0.22874
13.55 -0.23198
13.6 -0.23865
13.65 -0.24416
13.7 -0.24497
13.75 -0.24606
13.8 -0.24269
13.85 -0.24169
13.9 -0.23966
13.95 -0.24196
14 -0.2404
14.05 -0.23873
14.1 -0.23949
14.15 -0.2386
14.2 -0.23787
14.25 -0.23926
14.3 -0.23611
14.35 -0.23467
14.4 -0.23143
14.45 -0.23118
14.5 -0.22509
14.55 -0.22016
14.6 -0.21691
14.65 -0.20796
14.7 -0.20435
14.75 -0.20453
14.8 -0.20669
14.85 -0.20979
14.9 -0.20807
14.95 -0.20494
15 -0.20444
15.05 -0.19913
15.1 -0.1975
15.15 -0.19587
15.2 -0.19339
15.25 -0.18881
15.3 -0.18028
15.35 -0.16754
15.4 -0.15868
15.45 -0.15433
15.5 -0.1543
15.55 -0.15601
15.6 -0.1579
15.65 -0.15557
15.7 -0.14999
15.75 -0.14071
15.8 -0.13591
15.85 -0.12763
15.9 -0.12115
15.95 -0.117
16 -0.11388
16.05 -0.10812
16.1 -0.10143
16.15 -0.10301
16.2 -0.10472
16.25 -0.11052
16.3 -0.11547
16.35 -0.11384
16.4 -0.1143
16.45 -0.11009
16.5 -0.10986
16.55 -0.10463
16.6 -0.10165
16.65 -0.10022
16.7 -0.09591
16.75 -0.09064
16.8 -0.08578
16.85 -0.08159
16.9 -0.07798
16.95 -0.07623
17 -0.07423
17.05 -0.07374
17.1 -0.07042
17.15 -0.06881
17.2 -0.07155
17.25 -0.07727
17.3 -0.07993
17.35 -0.078
17.4 -0.07458
17.45 -0.07751
17.5 -0.08324
17.55 -0.0884
17.6 -0.08854
17.65 -0.08641
17.7 -0.08477
17.75 -0.08709
17.8 -0.08597
17.85 -0.08734
17.9 -0.08885
17.95 -0.08591
18 -0.08227
18.05 -0.07438
18.1 -0.06523
18.15 -0.06069
18.2 -0.06119
18.25 -0.06524
18.3 -0.07111
18.35 -0.07275
18.4 -0.07285
18.45 -0.07221
18.5 -0.07449
18.55 -0.0748
18.6 -0.06958
18.65 -0.06755
18.7 -0.06711
18.75 -0.0646
18.8 -0.06418
18.85 -0.06588
18.9 -0.06932
18.95 -0.06977
19 -0.0649
19.05 -0.05549
19.1 -0.05143
19.15 -0.05011
19.2 -0.05257
19.25 -0.05004
19.3 -0.0513
19.35 -0.05327
19.4 -0.05371
19.45 -0.05742
19.5 -0.05615
19.55 -0.05812
19.6 -0.05529
19.65 -0.04889
19.7 -0.03989
19.75 -0.03522
19.8 -0.03573
19.85 -0.03975
19.9 -0.04149
19.95 -0.0418
20 -0.04004
20.05 -0.04198
20.1 -0.04264
20.15 -0.03762
20.2 -0.03046
20.25 -0.02263
20.3 -0.01816
20.35 -0.01817
20.4 -0.01652
20.45 -0.01705
20.5 -0.01451
20.55 -0.01114
20.6 -0.01133
20.65 -0.01042
20.7 -0.01475
20.75 -0.01742
20.8 -0.01595
20.85 -0.01282
20.9 -0.01514
20.95 -0.01418
21 -0.0191
21.05 -0.01992
21.1 -0.02094
21.15 -0.02584
21.2 -0.02599
21.25 -0.02756
21.3 -0.03283
21.35 -0.03593
21.4 -0.04121
21.45 -0.04224
21.5 -0.03703
21.55 -0.0311
21.6 -0.02495
21.65 -0.01676
21.7 -0.01107
21.75 -0.00566
21.8 -0.00524
21.85 -0.00377
21.9 -0.00883
21.95 -0.00889
22 -0.01105
22.05 -0.01481
22.1 -0.02149
22.15 -0.02855
22.2 -0.03261
22.25 -0.03425
22.3 -0.03302
22.35 -0.02856
22.4 -0.02207
22.45 -0.01462
22.5 -0.01456
22.55 -0.01787
22.6 -0.02418
22.65 -0.02484
22.7 -0.02051
22.75 -0.01711
22.8 -0.01824
22.85 -0.01572
22.9 -0.01509
22.95 -0.01231
23 -0.01262
23.05 -0.015
23.1 -0.0189
23.15 -0.02118
23.2 -0.01956
23.25 -0.0227
23.3 -0.01957
23.35 -0.01547
23.4 -0.00784
23.45 -0.00115
23.5 0.00136
23.55 0.00085
23.6 -0.00403
23.65 -0.00765
23.7 -0.00723
23.75 -0.00467
23.8 -0.00281
23.85 0.00197
23.9 0.00102
23.95 -0.00454
24 -0.0092
24.05 -0.01019
24.1 -0.00952
24.15 -0.01085
24.2 -0.00884
24.25 -0.00711
24.3 -0.00663
24.35 -0.0045
24.4 -0.00079
24.45 0.00134
24.5 -0.00249
24.55 -0.00976
24.6 -0.0181
24.65 -0.02316
24.7 -0.0255
24.75 -0.02336
24.8 -0.01682
24.85 -0.00837
24.9 -0.00311
24.95 -0.00111
25 0.00437
25.05 0.00779
25.1 0.01226
25.15 0.01042
25.2 0.00406
25.25 -0.00393
25.3 -0.01154
25.35 -0.01894
25.4 -0.02049
25.45 -0.02372
25.5 -0.02698
25.55 -0.02671
25.6 -0.02369
25.65 -0.02285
25.7 -0.0186
25.75 -0.01351
25.8 -0.01276
25.85 -0.01145
25.9 -0.00586
25.95 -0.00424
26 -0.00218
26.05 0.00174
26.1 0.00598
26.15 0.00649
26.2 0.00994
26.25 0.00618
26.3 -0.00076
26.35 -0.00304
26.4 -0.00332
26.45 0.00049
26.5 0.00409
26.55 0.00115
26.6 -0.00027
26.65 -0.00264
26.7 -0.00089
26.75 -0.00045
26.8 -0.0022
26.85 -0.00279
26.9 -0.00706
26.95 -0.00823
27 -0.01123
27.05 -0.01632
27.1 -0.01795
27.15 -0.0175
27.2 -0.01838
27.25 -0.01307
27.3 -0.00875
27.35 -0.00638
27.4 -0.00913
27.45 -0.0118
27.5 -0.01145
27.55 -0.00831
27.6 -0.00398
27.65 -0.00071
27.7 0.00184
27.75 0.00061
27.8 -0.00625
27.85 -0.01574
27.9 -0.01989
27.95 -0.01859
28 -0.01743
28.05 -0.01967
28.1 -0.02177
28.15 -0.02831
28.2 -0.03866
28.25 -0.04795
28.3 -0.05244
28.35 -0.06016
28.4 -0.0668
28.45 -0.07614
28.5 -0.08331
28.55 -0.09913
28.6 -0.12054
28.65 -0.1373
28.7 -0.15244
28.75 -0.16705
28.8 -0.18323
28.85 -0.2102
28.9 -0.24016
28.95 -0.27608
29 -0.30951
29.05 -0.34871
29.1 -0.39227
29.15 -0.43329
29.2 -0.47461
29.25 -0.51696
29.3 -0.55532
29.35 -0.59542
29.4 -0.63533
29.45 -0.67298
29.5 -0.70714
29.55 -0.73996
29.6 -0.76918
29.65 -0.80208
29.7 -0.83173
29.75 -0.85625
29.8 -0.88351
29.85 -0.91044
29.9 -0.93714
29.95 -0.95503
30 -0.96389
30.05 -0.96893
30.1 -0.9699
30.15 -0.96187
30.2 -0.94806
30.25 -0.92962
30.3 -0.90606
30.35 -0.87126
30.4 -0.83223
30.45 -0.78616
30.5 -0.7347
30.55 -0.67879
30.6 -0.62359
30.65 -0.56868
30.7 -0.51101
30.75 -0.45158
30.8 -0.3862
30.85 -0.31517
30.9 -0.24804
30.95 -0.18186
31 -0.11946
31.05 -0.05608
31.1 0.00998
31.15 0.07153
31.2 0.12807
31.25 0.18034
31.3 0.23183
31.35 0.28381
31.4 0.33131
31.45 0.37951
31.5 0.42654
31.55 0.46918
31.6 0.50891
31.65 0.54143
31.7 0.56811
31.75 0.59555
31.8 0.61848
31.85 0.64211
31.9 0.66527
31.95 0.68964
32 0.71245
32.05 0.72984
32.1 0.74694
32.15 0.76437
32.2 0.77762
32.25 0.79038
32.3 0.80243
32.35 0.8165
32.4 0.82308
32.45 0.83313
32.5 0.84335
32.55 0.85118
32.6 0.85151
32.65 0.84995
32.7 0.84602
32.75 0.83755
32.8 0.83404
32.85 0.8253
32.9 0.82009
32.95 0.81734
33 0.81531
33.05 0.80972
33.1 0.80354
33.15 0.79308
33.2 0.77772
33.25 0.7579
33.3 0.74161
33.35 0.7204
33.4 0.69645
33.45 0.67095
33.5 0.64832
33.55 0.62959
33.6 0.61324
33.65 0.59431
33.7 0.57361
33.75 0.55572
33.8 0.54057
33.85 0.51772
33.9 0.49027
33.95 0.469
34 0.4491
34.05 0.43049
34.1 0.41043
34.15 0.38677
34.2 0.36575
34.25 0.3495
34.3 0.33058
34.35 0.31151
34.4 0.29641
34.45 0.27786
34.5 0.26048
34.55 0.24489
34.6 0.22908
34.65 0.21596
34.7 0.20559
34.75 0.19474
34.8 0.18051
34.85 0.16053
34.9 0.13765
34.95 0.11613
35 0.09418
35.05 0.08122
35.1 0.07339
35.15 0.06245
35.2 0.05145
35.25 0.03917
35.3 0.03198
35.35 0.02708
35.4 0.02139
35.45 0.01575
35.5 0.01106
35.55 0.00074
35.6 -0.01387
35.65 -0.0293
35.7 -0.03929
35.75 -0.04835
35.8 -0.05721
35.85 -0.06627
35.9 -0.078
35.95 -0.08999
36 -0.09755
36.05 -0.10311
36.1 -0.10376
36.15 -0.10791
36.2 -0.10887
36.25 -0.11034
36.3 -0.11328
36.35 -0.11124
36.4 -0.10714
36.45 -0.10879
36.5 -0.10717
36.55 -0.11236
36.6 -0.11899
36.65 -0.1274
36.7 -0.12871
36.75 -0.12509
36.8 -0.12007
36.85 -0.11314
36.9 -0.10898
36.95 -0.1122
37 -0.11643
37.05 -0.11679
37.1 -0.12142
37.15 -0.12182
37.2 -0.12427
37.25 -0.13065
37.3 -0.13168
37.35 -0.12802
37.4 -0.12827
37.45 -0.12906
37.5 -0.12643
37.55 -0.12543
37.6 -0.12248
37.65 -0.11874
37.7 -0.12043
37.75 -0.12449
37.8 -0.12977
37.85 -0.13635
37.9 -0.13824
37.95 -0.13548
38 -0.13685
38.05 -0.13454
38.1 -0.12887
38.15 -0.12498
38.2 -0.12395
38.25 -0.12279
38.3 -0.12569
38.35 -0.13058
38.4 -0.13603
38.45 -0.13579
38.5 -0.1331
38.55 -0.13118
38.6 -0.13018
38.65 -0.13082
38.7 -0.1314
38.75 -0.13074
38.8 -0.12937
38.85 -0.12876
38.9 -0.12131
38.95 -0.11673
39 -0.11258
39.05 -0.10867
39.1 -0.1064
39.15 -0.10063
39.2 -0.09811
39.25 -0.09791
39.3 -0.09315
39.35 -0.08695
39.4 -0.08032
39.45 -0.07359
39.5 -0.06713
39.55 -0.06693
39.6 -0.06263
39.65 -0.05814
39.7 -0.05341
39.75 -0.04698
39.8 -0.042
39.85 -0.04509
39.9 -0.04798
39.95 -0.05555
40 -0.06079
40.05 -0.05957
40.1 -0.05944
40.15 -0.06235
40.2 -0.05956
40.25 -0.06108
40.3 -0.06267
40.35 -0.06467
40.4 -0.06453
40.45 -0.06381
40.5 -0.06659
40.55 -0.06773
40.6 -0.06529
40.65 -0.05797
40.7 -0.05238
40.75 -0.04824
40.8 -0.05046
40.85 -0.05282
40.9 -0.05383
40.95 -0.05592
41 -0.0593
41.05 -0.05905
41.1 -0.05347
41.15 -0.04653
41.2 -0.04191
41.25 -0.0368
41.3 -0.03415
41.35 -0.03743
41.4 -0.04108
41.45 -0.03862
41.5 -0.03549
41.55 -0.03309
41.6 -0.03011
41.65 -0.03029
41.7 -0.02665
41.75 -0.02411
41.8 -0.02819
41.85 -0.03204
41.9 -0.03118
41.95 -0.02879
42 -0.03226
42.05 -0.03096
42.1 -0.02726
42.15 -0.02336
42.2 -0.02482
42.25 -0.02455
42.3 -0.02398
42.35 -0.02206
42.4 -0.02612
42.45 -0.02588
42.5 -0.02827
42.55 -0.0268
42.6 -0.02228
42.65 -0.02081
42.7 -0.02426
42.75 -0.02386
42.8 -0.02182
42.85 -0.01681
42.9 -0.01254
42.95 -0.01337
43 -0.0119
43.05 -0.01385
43.1 -0.01775
43.15 -0.02133
43.2 -0.02273
43.25 -0.02839
43.3 -0.02917
43.35 -0.03339
43.4 -0.03431
43.45 -0.03074
43.5 -0.02673
43.55 -0.01937
43.6 -0.01754
43.65 -0.01947
43.7 -0.02443
43.75 -0.025
43.8 -0.02342
43.85 -0.02275
43.9 -0.02617
43.95 -0.02939
44 -0.03504
44.05 -0.04017
44.1 -0.04595
44.15 -0.04368
44.2 -0.04323
44.25 -0.04095
44.3 -0.04185
44.35 -0.03918
44.4 -0.03484
44.45 -0.02715
44.5 -0.02002
44.55 -0.01634
44.6 -0.00927
44.65 -0.0012
44.7 0.00159
44.75 0.00242
44.8 0.00582
44.85 0.00583
44.9 0.00402
44.95 0.00344
45 -0.00326
45.05 -0.01064
45.1 -0.01248
45.15 -0.01822
45.2 -0.01777
45.25 -0.01804
45.3 -0.01888
45.35 -0.01907
45.4 -0.01929
45.45 -0.01514
45.5 -0.01069
45.55 -0.00376
45.6 -0.00219
45.65 0.00251
45.7 0.0063
45.75 0.00276
45.8 -0.00096
45.85 -0.00811
45.9 -0.01698
45.95 -0.0184
46 -0.01767
46.05 -0.01681
46.1 -0.02048
46.15 -0.02538
46.2 -0.02602
46.25 -0.02942
46.3 -0.03238
46.35 -0.03249
46.4 -0.02644
46.45 -0.02266
46.5 -0.02305
46.55 -0.01735
46.6 -0.01011
46.65 -0.00811
46.7 -0.01147
46.75 -0.00866
46.8 -0.00946
46.85 -0.01156
46.9 -0.01561
46.95 -0.01581
47 -0.01331
47.05 -0.00831
47.1 -0.00343
47.15 -0.00419
47.2 -0.00739
47.25 -0.01166
47.3 -0.01577
47.35 -0.01845
47.4 -0.02173
47.45 -0.02042
47.5 -0.02235
47.55 -0.02661
47.6 -0.03021
47.65 -0.03329
47.7 -0.02938
47.75 -0.02225
47.8 -0.01216
47.85 -0.00327
47.9 0.00095
47.95 -0.00136
48 -0.00726
48.05 -0.01293
48.1 -0.01248
48.15 -0.00899
48.2 -0.0058
48.25 -0.00178
48.3 0.0022
48.35 0.00834
48.4 0.01435
48.45 0.0135
48.5 0.01207
48.55 0.01196
48.6 0.01141
48.65 0.01303
48.7 0.01645
48.75 0.01529
48.8 0.01504
48.85 0.0178
48.9 0.01832
48.95 0.01366
49 0.00457
49.05 -0.00272
49.1 -0.00724
49.15 -0.00787
49.2 -0.00438
49.25 -0.00276
49.3 -0.00575
49.35 -0.01084
49.4 -0.01116
49.45 -0.00923
49.5 -0.00818
49.55 -0.00919
49.6 -0.0091
49.65 -0.01052
49.7 -0.01224
49.75 -0.01191
49.8 -0.01078
49.85 -0.01111
49.9 -0.00714
49.95 -0.00635
50 -0.00551
50.05 -0.00925
50.1 -0.01184
50.15 -0.00947
50.2 -0.00977
50.25 -0.00959
50.3 -0.00649
50.35 -0.00073
50.4 -0.00081
50.45 -0.00422
50.5 -0.00464
50.55 -0.00267
50.6 -0.00508
50.65 -0.0034
50.7 0.00233
50.75 0.00791
50.8 0.01405
50.85 0.01292
50.9 0.01387
50.95 0.01725
51 0.01891
51.05 0.01716
51.1 0.01314
51.15 0.00997
51.2 0.0053
51.25 -0.002
51.3 -0.01063
51.35 -0.01691
51.4 -0.01634
51.45 -0.0112
51.5 -0.00709
51.55 -0.00601
51.6 -0.00339
51.65 0.00014
51.7 -0.0001
51.75 -0.00079
51.8 -0.00341
51.85 -0.00749
51.9 -0.00929
51.95 -0.01311
52 -0.01916
52.05 -0.02018
52.1 -0.02233
52.15 -0.02087
52.2 -0.02238
52.25 -0.01779
52.3 -0.01199
52.35 -0.01054
52.4 -0.01348
52.45 -0.01048
52.5 -0.00894
52.55 -0.00961
52.6 -0.00802
52.65 -0.00491
52.7 -0.00654
52.75 -0.01019
52.8 -0.01319
52.85 -0.01708
52.9 -0.01435
52.95 -0.01544
53 -0.01169
53.05 -0.00569
53.1 -0.00157
53.15 0.00326
53.2 0.00796
53.25 0.01154
53.3 0.00889
53.35 0.00995
53.4 0.00822
53.45 0.00316
53.5 -0.00407
53.55 -0.00913
53.6 -0.00742
53.65 -0.00224
53.7 0.00034
53.75 -0.00026
53.8 0.00209
53.85 0.00304
53.9 0.00274
53.95 0.00371
54 0.00801
54.05 0.01378
54.1 0.01285
54.15 0.00781
54.2 0.00548
54.25 0.00451
54.3 0.00588
54.35 0.0064
54.4 0.00775
54.45 0.00448
54.5 0.00472
54.55 0.00826
54.6 0.00879
54.65 0.0129
54.7 0.01045
54.75 0.0095
54.8 0.00938
54.85 0.00681
54.9 0.00443
54.95 0.00651
55 0.01134
55.05 0.01241
55.1 0.01289
55.15 0.0091
55.2 0.00366
55.25 0.00405
55.3 0.00604
55.35 0.00605
55.4 0.00572
55.45 0.00504
55.5 0.00768
55.55 0.01275
55.6 0.01146
55.65 0.01062
55.7 0.0058
55.75 -0.00278
55.8 -0.00362
55.85 -0.00688
55.9 -0.01058
55.95 -0.01063
56 -0.01043
56.05 -0.00726
56.1 -0.00711
56.15 -0.00686
56.2 -0.00962
56.25 -0.01304
56.3 -0.01839
56.35 -0.02448
56.4 -0.02781
56.45 -0.02359
56.5 -0.02121
56.55 -0.01837
56.6 -0.01249
56.65 -0.00893
56.7 -0.00433
56.75 0.00092
56.8 0.00777
56.85 0.00856
56.9 0.00881
56.95 0.00652
57 0.00605
57.05 0.00201
57.1 0.00217
57.15 0.00628
57.2 0.00453
57.25 0.00038
57.3 -0.00369
57.35 -0.00763
57.4 -0.00479
57.45 0.00048
57.5 0.00017
57.55 0.0042
57.6 0.00871
57.65 0.0129
57.7 0.01513
57.75 0.01552
57.8 0.01222
57.85 0.00914
57.9 0.00555
57.95 -0.00203
58 -0.00596
58.05 -0.00452
58.1 0.0013
58.15 0.00419
58.2 0.0098
58.25 0.01522
58.3 0.01903
58.35 0.02295
58.4 0.02117
58.45 0.01891
58.5 0.01176
58.55 0.00724
58.6 -0.00086
58.65 -0.00625
58.7 -0.00695
58.75 -0.00621
58.8 -0.00496
58.85 -0.00118
58.9 0.00268
58.95 0.00699
59 0.00599
59.05 0.00871
59.1 0.00515
59.15 0.00493
59.2 0.00517
59.25 -0.00011
59.3 -0.00558
59.35 -0.00728
59.4 -0.00432
59.45 -0.00342
59.5 -0.00039
59.55 0.00065
59.6 0.0011
59.65 -0.00315
59.7 -0.00183
59.75 0.00082
59.8 0.00396
59.85 0.0026
59.9 0.00076
59.95 0.00303
60 0.00582
60.05 0.0085
60.1 0.01215
60.15 0.00919
60.2 0.00333
60.25 0.00325
60.3 -0.00187
60.35 -0.00675
60.4 -0.00502
60.45 -0.00762
60.5 -0.00649
60.55 -0.008
60.6 -0.00838
60.65 -0.00999
60.7 -0.01022
60.75 -0.00509
60.8 -0.00038
60.85 0.00054
60.9 -0.00079
60.95 -0.00266
61 -0.00247
61.05 -0.005
61.1 -0.00321
61.15 -0.00518
61.2 -0.00637
61.25 -0.01004
61.3 -0.01385
61.35 -0.01263
61.4 -0.01366
61.45 -0.01107
61.5 -0.00445
61.55 -0.00243
61.6 -0.00603
61.65 -0.00588
61.7 -0.0029
61.75 -0.00434
61.8 -0.00595
61.85 -0.00389
61.9 0.00067
61.95 0.00565
62 0.01139
62.05 0.01443
62.1 0.01735
62.15 0.01958
62.2 0.02166
62.25 0.01969
62.3 0.01256
62.35 0.00253
62.4 -0.00398
62.45 -0.00536
62.5 -0.00233
62.55 0.00031
62.6 0.00242
62.65 0.00027
62.7 -0.00299
62.75 -0.00829
62.8 -0.00661
62.85 -0.00922
62.9 -0.00902
62.95 -0.01254
63 -0.01009
63.05 -0.0038
63.1 -0.00019
63.15 0.00168
63.2 0.00704
63.25 0.00487
63.3 0.00238
63.35 0.00384
63.4 0.00104
63.45 0.00285
63.5 0.00382
63.55 0.001
63.6 -0.00418
63.65 -0.00929
63.7 -0.01387
63.75 -0.01442
63.8 -0.01468
63.85 -0.01218
63.9 -0.01344
63.95 -0.00916
64 -0.0097
64.05 -0.01397
64.1 -0.01124
64.15 -0.00568
64.2 -0.00542
64.25 -0.00357
64.3 0.00138
64.35 0.0081
64.4 0.01484
64.45 0.02111
64.5 0.02391
64.55 0.0206
64.6 0.01734
64.65 0.00945
64.7 0.00757
64.75 0.00611
64.8 0.00874
64.85 0.00978
64.9 0.01177
64.95 0.00827
65 0.00948
65.05 0.01235
65.1 0.01322
65.15 0.00961
65.2 0.00648
65.25 0.00568
65.3 0.00853
65.35 0.00636
65.4 0.00512
65.45 0.00638
65.5 0.00888
65.55 0.0121
65.6 0.01133
65.65 0.00807
65.7 0.00858
65.75 0.00654
65.8 0.00405
65.85 0.00467
65.9 0.00207
65.95 -0.00364
66 -0.00483
66.05 -0.0047
66.1 -0.00311
66.15 -0.00086
66.2 -0.00195
66.25 -0.00209
66.3 -0.00202
66.35 -0.00246
66.4 -0.00272
66.45 -0.00004
66.5 -0.00163
66.55 -0.00622
66.6 -0.01291
66.65 -0.0118
66.7 -0.01487
66.75 -0.01477
66.8 -0.00945
66.85 -0.00988
66.9 -0.00912
66.95 -0.00901
67 -0.0087
67.05 -0.00851
67.1 -0.01074
67.15 -0.01309
67.2 -0.01855
67.25 -0.02286
67.3 -0.02609
67.35 -0.02823
67.4 -0.03048
67.45 -0.02751
67.5 -0.02674
67.55 -0.01952
67.6 -0.01768
67.65 -0.01087
67.7 -0.00451
67.75 0.00137
67.8 0.00088
67.85 0.00326
67.9 0.00511
67.95 0.01046
68 0.01438
68.05 0.01095
68.1 0.00781
68.15 0.00102
68.2 -0.00801
68.25 -0.01587
68.3 -0.02214
68.35 -0.02682
68.4 -0.02802
68.45 -0.02722
68.5 -0.02626
68.55 -0.02102
68.6 -0.01501
68.65 -0.00706
68.7 -0.00545
68.75 -0.00727
68.8 -0.01197
68.85 -0.01656
68.9 -0.02187
68.95 -0.02254
69 -0.01693
69.05 -0.01444
69.1 -0.01021
69.15 -0.00237
69.2 0.00349
69.25 0.00669
69.3 0.01089
69.35 0.01104
69.4 0.00771
69.45 0.00796
69.5 0.00684
69.55 0.00683
69.6 0.01021
69.65 0.00988
69.7 0.00624
69.75 0.0079
69.8 0.01033
69.85 0.01171
69.9 0.01328
69.95 0.01506
70 0.01527
70.05 0.01733
70.1 0.01802
70.15 0.01955
70.2 0.02083
70.25 0.02405
70.3 0.02065
70.35 0.01468
70.4 0.01213
70.45 0.00929
70.5 0.00186
70.55 0.00028
70.6 -0.00022
70.65 -0.00033
70.7 -0.00197
70.75 -0.00322
70.8 -0.00024
70.85 0.0017
70.9 0.00406
70.95 0.0094
71 0.0119
71.05 0.01448
71.1 0.0101
71.15 0.0014
71.2 0.00026
71.25 -0.00063
71.3 0.00153
71.35 0.00666
71.4 0.00722
71.45 0.00457
71.5 0.00643
71.55 0.00702
71.6 0.00244
71.65 0.00161
71.7 -0.0005
71.75 -0.00454
71.8 -0.00373
71.85 0.00074
71.9 0.00237
71.95 0.00138
72 0.00337
72.05 0.00512
72.1 0.0016
72.15 -0.00402
72.2 -0.00619
72.25 -0.0045
72.3 0.00003
72.35 0.00581
72.4 0.0133
72.45 0.0154
72.5 0.01112
72.55 0.01013
72.6 0.01292
72.65 0.01076
72.7 0.00741
72.75 0.00327
72.8 0.00142
72.85 0.00359
72.9 0.00784
72.95 0.01157
73 0.00996
73.05 0.00383
73.1 0.00016
73.15 -0.00205
73.2 -0.00396
73.25 -0.00246
73.3 0.00139
73.35 0.00168
73.4 0.00125
73.45 0.00183
73.5 -0.00158
73.55 -0.00457
73.6 -0.00455
73.65 -0.00266
73.7 -0.00052
73.75 -0.00329
73.8 -0.00319
73.85 0.00124
73.9 -0.00136
73.95 -0.00012
74 0.00289
74.05 0.00305
74.1 0.00008
74.15 0.00126
74.2 0.0038
74.25 0.00143
74.3 0.00037
74.35 -0.00101
74.4 -0.00125
74.45 -0.00273
74.5 -0.00235
74.55 -0.00456
74.6 -0.00841
74.65 -0.00781
74.7 -0.00904
74.75 -0.00968
74.8 -0.0053
74.85 -0.00257
74.9 -0.00567
74.95 -0.01111
75 -0.01692
75.05 -0.02087
75.1 -0.02109
75.15 -0.01693
75.2 -0.0136
75.25 -0.01272
75.3 -0.01407
75.35 -0.00954
75.4 -0.00772
75.45 -0.0107
75.5 -0.0089
75.55 -0.01006
75.6 -0.01315
75.65 -0.01274
75.7 -0.01483
75.75 -0.0103
75.8 -0.01008
75.85 -0.00932
75.9 -0.00754
75.95 -0.00725
76 -0.00286
76.05 0.0037
76.1 0.01021
76.15 0.01534
76.2 0.02169
76.25 0.02714
76.3 0.02531
76.35 0.02354
76.4 0.01719
76.45 0.01283
76.5 0.00443
76.55 -0.00263
76.6 -0.00989
76.65 -0.01763
76.7 -0.0226
76.75 -0.02643
76.8 -0.02683
76.85 -0.02748
76.9 -0.02817
76.95 -0.02694
77 -0.02785
77.05 -0.02802
77.1 -0.02599
77.15 -0.02695
77.2 -0.02662
77.25 -0.02189
77.3 -0.01858
77.35 -0.01634
77.4 -0.01658
77.45 -0.01468
77.5 -0.01022
77.55 -0.00262
77.6 0.00131
77.65 0.00675
77.7 0.00744
77.75 0.00756
77.8 0.00742
77.85 0.00806
77.9 0.00887
77.95 0.00744
78 0.00267
78.05 0.00088
78.1 -0.00152
78.15 -0.0024
78.2 -0.00145
78.25 0.00092
78.3 0.0045
78.35 0.00449
78.4 0.00772
78.45 0.00522
78.5 0.00239
78.55 -0.00008
78.6 0.00274
78.65 0.00119
78.7 0.00157
78.75 0.00172
78.8 -0.00183
78.85 -0.00127
78.9 0.00151
78.95 0.00751
79 0.00618
79.05 0.00511
79.1 0.00237
79.15 -0.0026
79.2 -0.00478
79.25 -0.00983
79.3 -0.01044
79.35 -0.01466
79.4 -0.01552
79.45 -0.01485
79.5 -0.00989
79.55 -0.002
79.6 0.00076
79.65 -0.0006
79.7 -0.00368
79.75 -0.00077
79.8 0.00147
79.85 0.00291
79.9 0.00431
79.95 0.00128
80 0.00009
80.05 -0.00146
80.1 -0.00112
80.15 -0.00442
80.2 -0.00371
80.25 0.0011
80.3 0.00814
80.35 0.01486
80.4 0.02069
80.45 0.02508
80.5 0.03027
80.55 0.03228
80.6 0.02688
80.65 0.01729
80.7 0.01087
80.75 0.00489
80.8 0.00265
80.85 -0.00225
80.9 -0.00236
80.95 0.00241
81 0.00378
81.05 0.00322
81.1 0.00223
81.15 0.00035
81.2 0.00006
81.25 -0.00349
81.3 -0.00351
81.35 -0.00389
81.4 -0.00316
81.45 -0.0049
81.5 -0.00997
81.55 -0.01614
81.6 -0.02028
81.65 -0.01987
81.7 -0.02162
81.75 -0.0241
81.8 -0.02741
81.85 -0.02358
81.9 -0.01763
81.95 -0.01295
82 -0.01352
82.05 -0.01683
82.1 -0.01555
82.15 -0.01689
82.2 -0.0208
82.25 -0.02171
82.3 -0.01907
82.35 -0.01239
82.4 -0.00219
82.45 0.00475
82.5 0.00656
82.55 0.00979
82.6 0.01045
82.65 0.01229
82.7 0.01469
82.75 0.01637
82.8 0.01918
82.85 0.02376
82.9 0.02487
82.95 0.0188
83 0.01623
83.05 0.01068
83.1 0.00375
83.15 -0.00086
83.2 -0.00381
83.25 -0.00947
83.3 -0.00823
83.35 -0.00692
83.4 -0.00534
83.45 -0.00015
83.5 -0.00135
83.55 -0.00042
83.6 -0.00305
83.65 -0.00607
83.7 -0.00908
83.75 -0.01065
83.8 -0.01425
83.85 -0.01544
83.9 -0.01373
83.95 -0.01532
84 -0.01871
84.05 -0.02384
84.1 -0.02498
84.15 -0.02655
84.2 -0.02984
84.25 -0.03263
84.3 -0.02662
84.35 -0.01541
84.4 -0.00581
84.45 0.00261
84.5 0.00758
84.55 0.01363
84.6 0.01632
84.65 0.01438
84.7 0.00761
84.75 0.00046
84.8 -0.0079
84.85 -0.0168
84.9 -0.02275
84.95 -0.02088
85 -0.01693
85.05 -0.00913
85.1 -0.00543
85.15 -0.00521
85.2 -0.00235
85.25 -0.00088
85.3 0.00511
85.35 0.00926
85.4 0.00726
85.45 0.00273
85.5 0.00191
85.55 0.00396
85.6 0.0015
85.65 -0.00421
85.7 -0.01065
85.75 -0.01579
85.8 -0.02013
85.85 -0.02531
85.9 -0.02195
85.95 -0.02207
86 -0.02393
86.05 -0.0182
86.1 -0.00805
86.15 0.00028
86.2 0.00631
86.25 0.01182
86.3 0.01398
86.35 0.01139
86.4 0.00803
86.45 0.00472
86.5 0.00512
86.55 0.00179
86.6 0.00112
86.65 0.00338
86.7 0.00136
86.75 -0.00243
86.8 0.00019
86.85 0.00435
86.9 0.00804
86.95 0.00662
87 0.00689
87.05 0.00654
87.1 0.00766
87.15 0.00369
87.2 0.00026
87.25 -0.00181
87.3 -0.00382
87.35 -0.00178
87.4 -0.00388
87.45 -0.00046
87.5 0.00165
87.55 0.00666
87.6 0.0053
87.65 0.00855
87.7 0.01426
87.75 0.02024
87.8 0.02739
87.85 0.03386
87.9 0.04
87.95 0.04007
88 0.03674
88.05 0.03044
88.1 0.02052
88.15 0.01236
88.2 0.00677
88.25 0.00351
88.3 0.00426
88.35 0.00471
88.4 0.00074
88.45 0.00109
88.5 0.00102
88.55 0.00466
88.6 0.00188
88.65 -0.00475
88.7 -0.01324
88.75 -0.01298
88.8 -0.01633
88.85 -0.02138
88.9 -0.0201
88.95 -0.0205
89 -0.02221
89.05 -0.02349
89.1 -0.02472
89.15 -0.0268
89.2 -0.02446
89.25 -0.02279
89.3 -0.018
89.35 -0.009
89.4 0.00026
89.45 0.00926
89.5 0.0151
89.55 0.01486
89.6 0.01182
89.65 0.00852
89.7 0.01075
89.75 0.01629
89.8 0.02281
89.85 0.02059
89.9 0.02161
89.95 0.01745
90 0.01235
90.05 0.00463
90.1 0.00304
90.15 0.00466
90.2 0.00132
90.25 -0.00015
90.3 -0.0018
90.35 -0.00228
90.4 -0.00471
90.45 -0.01024
90.5 -0.01515
90.55 -0.01282
90.6 -0.01436
90.65 -0.01375
90.7 -0.0137
90.75 -0.01608
90.8 -0.02031
90.85 -0.0188
90.9 -0.01745
90.95 -0.01099
91 -0.00465
91.05 0.0005
91.1 0.00151
91.15 0.00197
91.2 0.0039
91.25 0.00581
91.3 0.00371
91.35 0.00238
91.4 -0.001
91.45 0.00068
91.5 0.00339
91.55 0.0097
91.6 0.01415
91.65 0.01235
91.7 0.01486
91.75 0.01768
91.8 0.01408
91.85 0.00931
91.9 0.00261
91.95 -0.00348
92 -0.00847
92.05 -0.01509
92.1 -0.01939
92.15 -0.01828
92.2 -0.01555
92.25 -0.01382
92.3 -0.01556
92.35 -0.01022
92.4 -0.0021
92.45 0.00578
92.5 0.01058
92.55 0.01547
92.6 0.0172
92.65 0.02008
92.7 0.02087
92.75 0.01796
92.8 0.01712
92.85 0.0184
92.9 0.02016
92.95 0.02065
93 0.01907
93.05 0.02128
93.1 0.02073
93.15 0.0201
93.2 0.02141
93.25 0.02009
93.3 0.01311
93.35 0.00715
93.4 0.0026
93.45 0.00178
93.5 -0.00217
93.55 -0.0073
93.6 -0.00937
93.65 -0.01299
93.7 -0.01287
93.75 -0.01323
93.8 -0.01157
93.85 -0.01313
93.9 -0.01599
93.95 -0.01587
94 -0.01716
94.05 -0.0177
94.1 -0.01367
94.15 -0.00534
94.2 0.00447
94.25 0.01509
94.3 0.02471
94.35 0.02632
94.4 0.0278
94.45 0.0306
94.5 0.02556
94.55 0.01544
94.6 0.00334
94.65 -0.00421
94.7 -0.00546
94.75 -0.00151
94.8 0.00085
94.85 0.00401
94.9 0.00993
94.95 0.01413
95 0.01254
95.05 0.00871
95.1 0.00885
95.15 0.00842
95.2 0.00803
95.25 0.00586
95.3 0.00514
95.35 0.0053
95.4 0.00948
95.45 0.01434
95.5 0.01441
95.55 0.01712
95.6 0.01675
95.65 0.01525
95.7 0.00917
95.75 0.00204
95.8 0.0015
95.85 0.00398
95.9 0.00463
95.95 0.0083
96 0.01369
96.05 0.01493
96.1 0.01118
96.15 0.0039
96.2 0.00124
96.25 -0.00305
96.3 -0.00907
96.35 -0.01542
96.4 -0.01999
96.45 -0.01744
96.5 -0.01229
96.55 -0.01032
96.6 -0.00529
96.65 -0.00666
96.7 -0.00547
96.75 -0.00708
96.8 -0.00416
96.85 -0.00658
96.9 -0.00654
96.95 -0.00611
97 -0.00123
97.05 0.00589
97.1 0.01053
97.15 0.01478
97.2 0.01172
97.25 0.00747
97.3 0.00841
97.35 0.00897
97.4 0.00396
97.45 -0.00176
97.5 -0.00189
97.55 0.00249
97.6 0.00458
97.65 0.00815
97.7 0.00955
97.75 0.01267
97.8 0.01053
97.85 0.00519
97.9 -0.00185
97.95 -0.00214
98 -0.00469
98.05 -0.00152
98.1 0.00177
98.15 0.00202
98.2 0.00129
98.25 0.00055
98.3 0.00106
98.35 0.00065
98.4 0.00117
98.45 0.00471
98.5 0.00156
98.55 -0.00011
98.6 -0.0059
98.65 -0.00736
98.7 -0.00849
98.75 -0.00858
98.8 -0.00674
98.85 -0.00077
98.9 0.0061
98.95 0.00872
99 0.00758
99.05 0.0066
99.1 0.00649
99.15 0.00355
99.2 -0.00119
99.25 -0.00905
99.3 -0.01293
99.35 -0.0134
99.4 -0.01491
99.45 -0.01455
99.5 -0.0135
99.55 -0.01653
99.6 -0.01428
99.65 -0.01018
99.7 -0.00942
99.75 -0.00681
99.8 -0.00544
99.85 -0.00809
99.9 -0.01287
99.95 -0.01597
