0 0
0.05 0.00622
0.1 0.01673
0.15 0.02212
0.2 0.03083
0.25 0.04194
0.3 0.04579
0.35 0.05289
0.4 0.0583
0.45 0.06323
0.5 0.06955
0.55 0.075
0.6 0.07705
0.65 0.0717
0.7 0.06806
0.75 0.06349
0.8 0.06296
0.85 0.06247
0.9 0.06046
0.95 0.05905
1 0.05603
1.05 0.05531
1.1 0.05037
1.15 0.04646
1.2 0.04326
1.25 0.03901
1.3 0.03967
1.35 0.03526
1.4 0.02968
1.45 0.02527
1.5 0.02216
1.55 0.02219
1.6 0.01963
1.65 0.02115
1.7 0.01853
1.75 0.01915
1.8 0.02183
1.85 0.02522
1.9 0.02844
1.95 0.03139
2 0.03177
2.05 0.02988
2.1 0.03325
2.15 0.0352
2.2 0.03372
2.25 0.0302
2.3 0.02953
2.35 0.02949
2.4 0.03402
2.45 0.03737
2.5 0.03678
2.55 0.03208
2.6 0.02963
2.65 0.0263
2.7 0.01943
2.75 0.01706
2.8 0.01597
2.85 0.01282
2.9 0.00705
2.95 0.00886
3 0.01471
3.05 0.02169
3.1 0.022
3.15 0.01998
3.2 0.01557
3.25 0.01332
3.3 0.01024
3.35 0.00711
3.4 0.0071
3.45 0.01285
3.5 0.02124
3.55 0.03115
3.6 0.03595
3.65 0.03379
3.7 0.03012
3.75 0.02616
3.8 0.02081
3.85 0.01348
3.9 0.00512
3.95 0.00365
4 0.00481
4.05 0.00761
4.1 0.01196
4.15 0.01272
4.2 0.01289
4.25 0.00756
4.3 0.0055
4.35 0.00412
4.4 -0.00139
4.45 -0.00657
4.5 -0.01461
4.55 -0.02302
4.6 -0.03337
4.65 -0.04157
4.7 -0.05263
4.75 -0.06759
4.8 -0.08562
4.85 -0.11287
4.9 -0.14309
4.95 -0.17295
5 -0.21138
5.05 -0.25004
5.1 -0.29358
5.15 -0.3452
5.2 -0.40374
5.25 -0.46454
5.3 -0.52457
5.35 -0.58362
5.4 -0.64504
5.45 -0.70772
5.5 -0.77609
5.55 -0.84582
5.6 -0.91188
5.65 -0.98267
5.7 -1.04964
5.75 -1.11017
5.8 -1.16387
5.85 -1.21345
5.9 -1.25882
5.95 -1.2932
6 -1.32145
6.05 -1.34537
6.1 -1.3588
6.15 -1.36398
6.2 -1.36427
6.25 -1.3538
6.3 -1.33495
6.35 -1.31152
6.4 -1.28109
6.45 -1.24837
6.5 -1.20534
6.55 -1.15617
6.6 -1.1035
6.65 -1.04219
6.7 -0.98055
6.75 -0.91231
6.8 -0.84079
6.85 -0.76064
6.9 -0.67795
6.95 -0.58796
7 -0.49467
7.05 -0.3983
7.1 -0.29564
7.15 -0.19202
7.2 -0.09084
7.25 0.0121
7.3 0.11447
7.35 0.21286
7.4 0.31173
7.45 0.4132
7.5 0.50661
7.55 0.59415
7.6 0.68223
7.65 0.76719
7.7 0.84787
7.75 0.92132
7.8 0.98474
7.85 1.03776
7.9 1.08466
7.95 1.12448
8 1.15545
8.05 1.17926
8.1 1.19886
8.15 1.21689
8.2 1.23246
8.25 1.23951
8.3 1.24375
8.35 1.24521
8.4 1.23895
8.45 1.2279
8.5 1.21623
8.55 1.19645
8.6 1.17662
8.65 1.15723
8.7 1.13288
8.75 1.11008
8.8 1.08634
8.85 1.0611
8.9 1.04123
8.95 1.01828
9 0.99737
9.05 0.97207
9.1 0.95176
9.15 0.92948
9.2 0.90995
9.25 0.88572
9.3 0.85677
9.35 0.82968
9.4 0.80339
9.45 0.783
9.5 0.76083
9.55 0.7406
9.6 0.71594
9.65 0.6961
9.7 0.67586
9.75 0.66122
9.8 0.64451
9.85 0.62927
9.9 0.61006
9.95 0.58699
10 0.57015
10.05 0.55488
10.1 0.53438
10.15 0.51337
10.2 0.49751
10.25 0.48165
10.3 0.46778
10.35 0.45029
10.4 0.43237
10.45 0.41874
10.5 0.40389
10.55 0.3887
10.6 0.37012
10.65 0.35215
10.7 0.33245
10.75 0.3164
10.8 0.29828
10.85 0.27657
10.9 0.25765
10.95 0.24391
11 0.23091
11.05 0.21916
11.1 0.20546
11.15 0.1861
11.2 0.16964
11.25 0.15649
11.3 0.14231
11.35 0.12517
11.4 0.10358
11.45 0.08404
11.5 0.06483
11.55 0.04766
11.6 0.03366
11.65 0.01837
11.7 0.00064
11.75 -0.01469
11.8 -0.0298
11.85 -0.04333
11.9 -0.05649
11.95 -0.06521
12 -0.07817
12.05 -0.08728
12.1 -0.097
12.15 -0.10509
12.2 -0.10953
12.25 -0.11356
12.3 -0.12319
12.35 -0.13575
12.4 -0.14961
12.45 -0.16053
12.5 -0.16912
12.55 -0.17602
12.6 -0.17858
12.65 -0.17572
12.7 -0.17571
12.75 -0.18017
12.8 -0.17935
12.85 -0.1783
12.9 -0.17678
12.95 -0.17597
13 -0.17676
13.05 -0.17895
13.1 -0.18356
13.15 -0.18906
13.2 -0.19437
13.25 -0.19242
13.3 -0.18828
13.35 -0.1828
13.4 -0.17783
13.45 -0.17234
13.5 -0.17182
13.55 -0.17262
13.6 -0.17133
13.65 -0.17265
13.7 -0.17682
13.75 -0.17995
13.8 -0.18348
13.85 -0.18502
13.9 -0.18181
13.95 -0.17531
14 -0.17376
14.05 -0.16867
14.1 -0.16654
14.15 -0.16026
14.2 -0.15741
14.25 -0.15784
14.3 -0.15521
14.35 -0.15396
14.4 -0.14772
14.45 -0.1447
14.5 -0.14301
14.55 -0.14334
14.6 -0.14216
14.65 -0.1375
14.7 -0.13208
14.75 -0.12423
14.8 -0.12026
14.85 -0.12263
14.9 -0.12288
14.95 -0.12712
15 -0.13259
15.05 -0.13753
15.1 -0.14047
15.15 -0.13604
15.2 -0.13572
15.25 -0.13276
15.3 -0.12694
15.35 -0.12376
15.4 -0.11626
15.45 -0.11038
15.5 -0.10894
15.55 -0.10665
15.6 -0.10562
15.65 -0.10401
15.7 -0.10292
15.75 -0.10515
15.8 -0.10681
15.85 -0.10411
15.9 -0.09683
15.95 -0.09303
16 -0.09259
16.05 -0.09114
16.1 -0.09064
16.15 -0.09154
16.2 -0.08851
16.25 -0.08287
16.3 -0.07812
16.35 -0.07228
16.4 -0.07312
16.45 -0.06937
16.5 -0.06827
16.55 -0.07222
16.6 -0.07792
16.65 -0.08102
16.7 -0.08342
16.75 -0.07911
16.8 -0.07233
16.85 -0.06976
16.9 -0.06658
16.95 -0.06292
17 -0.06457
17.05 -0.06811
17.1 -0.07126
17.15 -0.07583
17.2 -0.08098
17.25 -0.08114
17.3 -0.07477
17.35 -0.06711
17.4 -0.05974
17.45 -0.05146
17.5 -0.04407
17.55 -0.04102
17.6 -0.03582
17.65 -0.03504
17.7 -0.03811
17.75 -0.0393
17.8 -0.0442
17.85 -0.051
17.9 -0.05188
17.95 -0.04915
18 -0.04368
18.05 -0.03626
18.1 -0.03384
18.15 -0.03551
18.2 -0.03433
18.25 -0.0352
18.3 -0.03451
18.35 -0.03379
18.4 -0.03535
18.45 -0.03358
18.5 -0.02907
18.55 -0.02566
18.6 -0.0274
18.65 -0.02637
18.7 -0.02259
18.75 -0.01904
18.8 -0.02004
18.85 -0.02025
18.9 -0.02586
18.95 -0.03507
19 -0.03661
19.05 -0.03484
19.1 -0.02914
19.15 -0.02741
19.2 -0.02736
19.25 -0.02985
19.3 -0.03128
19.35 -0.03525
19.4 -0.03597
19.45 -0.03684
19.5 -0.03445
19.55 -0.0291
19.6 -0.02421
19.65 -0.02452
19.7 -0.02701
19.75 -0.03295
19.8 -0.03662
19.85 -0.0365
19.9 -0.03306
19.95 -0.02637
20 -0.01882
20.05 -0.01445
20.1 -0.00802
20.15 -0.00356
20.2 -0.00123
20.25 -0.00627
20.3 -0.00677
20.35 -0.006
20.4 -0.0052
20.45 -0.00368
20.5 -0.00684
20.55 -0.01292
20.6 -0.01398
20.65 -0.01657
20.7 -0.01669
20.75 -0.0157
20.8 -0.01773
20.85 -0.01625
20.9 -0.01988
20.95 -0.02342
21 -0.02572
21.05 -0.03079
21.1 -0.03591
21.15 -0.03383
21.2 -0.02888
21.25 -0.02451
21.3 -0.02082
21.35 -0.01603
21.4 -0.01511
21.45 -0.01236
21.5 -0.01095
21.55 -0.01386
21.6 -0.01894
21.65 -0.02118
21.7 -0.01967
21.75 -0.01981
21.8 -0.01995
21.85 -0.01882
21.9 -0.01837
21.95 -0.0197
22 -0.01939
22.05 -0.01978
22.1 -0.01685
22.15 -0.01684
22.2 -0.02026
22.25 -0.02362
22.3 -0.02742
22.35 -0.03234
22.4 -0.03423
22.45 -0.03409
22.5 -0.02946
22.55 -0.02816
22.6 -0.02659
22.65 -0.02187
22.7 -0.02246
22.75 -0.02354
22.8 -0.022
22.85 -0.02358
22.9 -0.01998
22.95 -0.01385
23 -0.01351
23.05 -0.01769
23.1 -0.02274
23.15 -0.02165
23.2 -0.01579
23.25 -0.00728
23.3 -0.00463
23.35 -0.00288
23.4 -0.00053
23.45 -0.00069
23.5 0.00053
23.55 -0.00087
23.6 -0.00437
23.65 -0.00233
23.7 -0.00122
23.75 0.00051
23.8 0.00359
23.85 0.00875
23.9 0.01026
23.95 0.00993
24 0.00417
24.05 0.00102
24.1 0.00074
24.15 -0.00021
24.2 0.00077
24.25 0.00353
24.3 0.00624
24.35 0.00655
24.4 0.00786
24.45 0.00508
24.5 0.00548
24.55 0.00467
24.6 0.00072
24.65 -0.00733
24.7 -0.01485
24.75 -0.02249
24.8 -0.02675
24.85 -0.02467
24.9 -0.01824
24.95 -0.0109
25 -0.00602
25.05 -0.00308
25.1 -0.00186
25.15 0.00307
25.2 0.0062
25.25 0.00597
25.3 0.00751
25.35 0.0081
25.4 0.00442
25.45 -0.00094
25.5 -0.00375
25.55 -0.00126
25.6 -0.00317
25.65 -0.0046
25.7 -0.00509
25.75 -0.00653
25.8 -0.01159
25.85 -0.01744
25.9 -0.02075
25.95 -0.01845
26 -0.01179
26.05 -0.00366
26.1 0.00272
26.15 0.0079
26.2 0.0079
26.25 0.00508
26.3 0.0065
26.35 0.0097
26.4 0.0102
26.45 0.00473
26.5 -0.00454
26.55 -0.00714
26.6 -0.01258
26.65 -0.01318
26.7 -0.01146
26.75 -0.01443
26.8 -0.01453
26.85 -0.01021
26.9 -0.00491
26.95 -0.00116
27 0.00452
27.05 0.0062
27.1 0.00311
27.15 -0.00318
27.2 -0.00325
27.25 -0.00582
27.3 -0.00466
27.35 -0.00661
27.4 -0.00539
27.45 -0.00517
27.5 -0.00758
27.55 -0.01486
27.6 -0.01872
27.65 -0.01872
27.7 -0.01689
27.75 -0.01361
27.8 -0.01666
27.85 -0.02259
27.9 -0.02913
27.95 -0.03953
28 -0.04522
28.05 -0.05681
28.1 -0.06822
28.15 -0.07594
28.2 -0.08673
28.25 -0.10067
28.3 -0.11998
28.35 -0.13782
28.4 -0.155
28.45 -0.1788
28.5 -0.20252
28.55 -0.22602
28.6 -0.25358
28.65 -0.28403
28.7 -0.31648
28.75 -0.35346
28.8 -0.39355
28.85 -0.44262
28.9 -0.49241
28.95 -0.55002
29 -0.61122
29.05 -0.67581
29.1 -0.7398
29.15 -0.80981
29.2 -0.87831
29.25 -0.94397
29.3 -1.01213
29.35 -1.07797
29.4 -1.14171
29.45 -1.20303
29.5 -1.26382
29.55 -1.31439
29.6 -1.35892
29.65 -1.39724
29.7 -1.43006
29.75 -1.45987
29.8 -1.4827
29.85 -1.50027
29.9 -1.50412
29.95 -1.49569
30 -1.48158
30.05 -1.4541
30.1 -1.42021
30.15 -1.37282
30.2 -1.3219
30.25 -1.26418
30.3 -1.19654
30.35 -1.11756
30.4 -1.02983
30.45 -0.93743
30.5 -0.84087
30.55 -0.74066
30.6 -0.63336
30.65 -0.52712
30.7 -0.42134
30.75 -0.31285
30.8 -0.20027
30.85 -0.09436
30.9 0.01429
30.95 0.1212
31 0.21866
31.05 0.31053
31.1 0.39423
31.15 0.47328
31.2 0.54522
31.25 0.61983
31.3 0.68923
31.35 0.75795
31.4 0.81773
31.45 0.86872
31.5 0.91048
31.55 0.95304
31.6 0.98821
31.65 1.02435
31.7 1.05881
31.75 1.091
31.8 1.11492
31.85 1.13709
31.9 1.15733
31.95 1.16674
32 1.17638
32.05 1.18765
32.1 1.19691
32.15 1.20646
32.2 1.20884
32.25 1.20891
32.3 1.20573
32.35 1.19739
32.4 1.18603
32.45 1.17463
32.5 1.16436
32.55 1.16174
32.6 1.16248
32.65 1.16389
32.7 1.16229
32.75 1.15311
32.8 1.14683
32.85 1.1409
32.9 1.13513
32.95 1.12266
33 1.10446
33.05 1.08852
33.1 1.06458
33.15 1.0419
33.2 1.02203
33.25 1.00096
33.3 0.97349
33.35 0.9463
33.4 0.91345
33.45 0.87956
33.5 0.8472
33.55 0.8205
33.6 0.79449
33.65 0.7705
33.7 0.74207
33.75 0.71066
33.8 0.68106
33.85 0.65115
33.9 0.62436
33.95 0.59413
34 0.56148
34.05 0.53335
34.1 0.50898
34.15 0.48736
34.2 0.46657
34.25 0.44233
34.3 0.41915
34.35 0.39024
34.4 0.36657
34.45 0.33804
34.5 0.30793
34.55 0.27729
34.6 0.25005
34.65 0.22592
34.7 0.1998
34.75 0.17634
34.8 0.15905
34.85 0.1472
34.9 0.13635
34.95 0.11929
35 0.1005
35.05 0.07979
35.1 0.06625
35.15 0.05699
35.2 0.04179
35.25 0.0237
35.3 0.01198
35.35 0.0039
35.4 -0.00668
35.45 -0.01357
35.5 -0.02777
35.55 -0.03942
35.6 -0.05471
35.65 -0.06514
35.7 -0.072
35.75 -0.08422
35.8 -0.09733
35.85 -0.10527
35.9 -0.11591
35.95 -0.12893
36 -0.14336
36.05 -0.15763
36.1 -0.16797
36.15 -0.17864
36.2 -0.18298
36.25 -0.18528
36.3 -0.18255
36.35 -0.17786
36.4 -0.17865
36.45 -0.18364
36.5 -0.18738
36.55 -0.19286
36.6 -0.19784
36.65 -0.20509
36.7 -0.21216
36.75 -0.21565
36.8 -0.2125
36.85 -0.20779
36.9 -0.20471
36.95 -0.19969
37 -0.19273
37.05 -0.18749
37.1 -0.1896
37.15 -0.19082
37.2 -0.19394
37.25 -0.19351
37.3 -0.19248
37.35 -0.19088
37.4 -0.19345
37.45 -0.19576
37.5 -0.19893
37.55 -0.19822
37.6 -0.20049
37.65 -0.20128
37.7 -0.2015
37.75 -0.1963
37.8 -0.19085
37.85 -0.18325
37.9 -0.18213
37.95 -0.17883
38 -0.1747
38.05 -0.17421
38.1 -0.17732
38.15 -0.17742
38.2 -0.177
38.25 -0.17615
38.3 -0.17621
38.35 -0.17099
38.4 -0.16396
38.45 -0.16303
38.5 -0.16389
38.55 -0.16128
38.6 -0.15757
38.65 -0.1491
38.7 -0.14707
38.75 -0.14063
38.8 -0.13724
38.85 -0.13887
38.9 -0.14011
38.95 -0.14129
39 -0.14127
39.05 -0.14273
39.1 -0.13913
39.15 -0.13633
39.2 -0.12852
39.25 -0.1246
39.3 -0.12028
39.35 -0.11715
39.4 -0.1154
39.45 -0.11357
39.5 -0.11175
39.55 -0.11093
39.6 -0.11248
39.65 -0.11328
39.7 -0.1111
39.75 -0.11099
39.8 -0.1122
39.85 -0.10924
39.9 -0.10191
39.95 -0.09332
40 -0.09203
40.05 -0.09161
40.1 -0.0923
40.15 -0.08851
40.2 -0.08208
40.25 -0.08189
40.3 -0.08602
40.35 -0.08771
40.4 -0.09057
40.45 -0.09316
40.5 -0.09586
40.55 -0.09503
40.6 -0.09054
40.65 -0.08612
40.7 -0.08471
40.75 -0.0856
40.8 -0.08364
40.85 -0.08415
40.9 -0.08674
40.95 -0.09043
41 -0.08941
41.05 -0.08289
41.1 -0.07987
41.15 -0.07844
41.2 -0.07369
41.25 -0.07059
41.3 -0.06378
41.35 -0.05491
41.4 -0.04775
41.45 -0.04554
41.5 -0.04498
41.55 -0.04911
41.6 -0.0503
41.65 -0.04848
41.7 -0.04929
41.75 -0.04869
41.8 -0.04659
41.85 -0.04382
41.9 -0.04685
41.95 -0.04436
42 -0.04331
42.05 -0.04041
42.1 -0.03889
42.15 -0.04249
42.2 -0.04505
42.25 -0.0442
42.3 -0.04742
42.35 -0.04907
42.4 -0.0458
42.45 -0.04515
42.5 -0.04434
42.55 -0.04532
42.6 -0.04489
42.65 -0.04699
42.7 -0.04585
42.75 -0.04611
42.8 -0.04111
42.85 -0.03847
42.9 -0.03868
42.95 -0.03799
43 -0.0338
43.05 -0.02871
43.1 -0.02906
43.15 -0.0329
43.2 -0.03704
43.25 -0.03846
43.3 -0.03567
43.35 -0.03207
43.4 -0.02713
43.45 -0.02312
43.5 -0.01855
43.55 -0.0188
43.6 -0.02286
43.65 -0.02806
43.7 -0.03224
43.75 -0.03338
43.8 -0.03593
43.85 -0.03389
43.9 -0.03611
43.95 -0.0351
44 -0.03116
44.05 -0.02913
44.1 -0.02479
44.15 -0.02318
44.2 -0.0268
44.25 -0.03368
44.3 -0.03546
44.35 -0.03426
44.4 -0.03537
44.45 -0.03772
44.5 -0.03922
44.55 -0.03604
44.6 -0.03659
44.65 -0.03875
44.7 -0.0348
44.75 -0.0321
44.8 -0.03047
44.85 -0.02837
44.9 -0.02739
44.95 -0.02678
45 -0.0298
45.05 -0.02606
45.1 -0.01989
45.15 -0.01136
45.2 -0.0082
45.25 -0.0058
45.3 -0.00401
45.35 0.0006
45.4 -0.00249
45.45 -0.00289
45.5 -0.00639
45.55 -0.00735
45.6 -0.00508
45.65 -0.00215
45.7 -0.00346
45.75 -0.00083
45.8 0.0032
45.85 0.00459
45.9 0.00489
45.95 0.00749
46 0.00319
46.05 0.00104
46.1 0.00225
46.15 -0.0014
46.2 -0.00327
46.25 -0.00713
46.3 -0.01384
46.35 -0.01899
46.4 -0.02565
46.45 -0.03324
46.5 -0.03495
46.55 -0.0369
46.6 -0.03311
46.65 -0.02494
46.7 -0.01716
46.75 -0.01528
46.8 -0.00971
46.85 -0.0027
46.9 -0.00243
46.95 -0.0002
47 0.00217
47.05 0.00545
47.1 0.00883
47.15 0.00721
47.2 0.00175
47.25 -0.00254
47.3 -0.0031
47.35 0.00014
47.4 0.00534
47.45 0.00758
47.5 0.00696
47.55 0.0032
47.6 0.00042
47.65 -0.00505
47.7 -0.00918
47.75 -0.0153
47.8 -0.0221
47.85 -0.0274
47.9 -0.03377
47.95 -0.0335
48 -0.03624
48.05 -0.03605
48.1 -0.03387
48.15 -0.0273
48.2 -0.02423
48.25 -0.02403
48.3 -0.02449
48.35 -0.01928
48.4 -0.01926
48.45 -0.01947
48.5 -0.01875
48.55 -0.02102
48.6 -0.0248
48.65 -0.02753
48.7 -0.0275
48.75 -0.02153
48.8 -0.02011
48.85 -0.01897
48.9 -0.02044
48.95 -0.01879
49 -0.01995
49.05 -0.02314
49.1 -0.02025
49.15 -0.01859
49.2 -0.01683
49.25 -0.01278
49.3 -0.013
49.35 -0.01043
49.4 -0.00498
49.45 -0.00448
49.5 0.0001
49.55 0.00363
49.6 0.00357
49.65 0.00751
49.7 0.01163
49.75 0.00958
49.8 0.00283
49.85 -0.00181
49.9 -0.00177
49.95 -0.00535
50 -0.00824
50.05 -0.01037
50.1 -0.00685
50.15 -0.00208
50.2 0.00504
50.25 0.0064
50.3 0.00177
50.35 -0.00133
50.4 -0.00332
50.45 -0.00764
50.5 -0.00846
50.55 -0.01325
50.6 -0.01204
50.65 -0.00682
50.7 -0.00446
50.75 -0.00529
50.8 -0.00583
50.85 -0.0067
50.9 -0.00885
50.95 -0.00813
51 -0.00876
51.05 -0.00388
51.1 0.00255
51.15 0.01003
51.2 0.00903
51.25 0.00354
51.3 0.00267
51.35 -0.00125
51.4 -0.00219
51.45 -0.00157
51.5 -0.00148
51.55 -0.00542
51.6 -0.00559
51.65 -0.00316
51.7 -0.00342
51.75 -0.00649
51.8 -0.01256
51.85 -0.01193
51.9 -0.01533
51.95 -0.01172
52 -0.00953
52.05 -0.01194
52.1 -0.01451
52.15 -0.01527
52.2 -0.01364
52.25 -0.01017
52.3 -0.01012
52.35 -0.00896
52.4 -0.00671
52.45 -0.00114
52.5 0.0002
52.55 -0.00157
52.6 -0.00104
52.65 -0.00359
52.7 -0.00523
52.75 -0.0028
52.8 0.00166
52.85 0.00324
52.9 -0.00067
52.95 -0.00344
53 -0.00534
53.05 -0.00863
53.1 -0.00691
53.15 -0.00139
53.2 -0.00218
53.25 0.0009
53.3 0.00422
53.35 0.0079
53.4 0.00537
53.45 0.00456
53.5 0.00634
53.55 0.00503
53.6 0.00428
53.65 0.00517
53.7 0.00746
53.75 0.01026
53.8 0.01464
53.85 0.01964
53.9 0.02493
53.95 0.0286
54 0.03023
54.05 0.032
54.1 0.03026
54.15 0.02683
54.2 0.02087
54.25 0.01934
54.3 0.01501
54.35 0.00797
54.4 0.00244
54.45 -0.00258
54.5 -0.0064
54.55 -0.01005
54.6 -0.01551
54.65 -0.01933
54.7 -0.02288
54.75 -0.02034
54.8 -0.01757
54.85 -0.01089
54.9 -0.00572
54.95 -0.00127
55 -0.00029
55.05 -0.00264
55.1 0.00025
55.15 0.00373
55.2 0.00571
55.25 0.00171
55.3 0.00188
55.35 0.00431
55.4 0.00373
55.45 0.00564
55.5 0.00722
55.55 0.00798
55.6 0.0036
55.65 0.00327
55.7 0.00231
55.75 0.00337
55.8 -0.00123
55.85 -0.00803
55.9 -0.01427
55.95 -0.01662
56 -0.01486
56.05 -0.00977
56.1 -0.00934
56.15 -0.00436
56.2 -0.00021
56.25 0.00673
56.3 0.01165
56.35 0.0178
56.4 0.01621
56.45 0.0138
56.5 0.00909
56.55 0.00798
56.6 0.00912
56.65 0.00426
56.7 0.00136
56.75 -0.00413
56.8 -0.0037
56.85 0.00004
56.9 0.00012
56.95 0.00015
57 -0.00307
57.05 -0.00442
57.1 -0.00755
57.15 -0.00517
57.2 0.00035
57.25 0.0031
57.3 0.00546
57.35 0.01072
57.4 0.01581
57.45 0.01332
57.5 0.01317
57.55 0.00716
57.6 0.00365
57.65 0.00411
57.7 0.00138
57.75 0.00359
57.8 0.00879
57.85 0.01366
57.9 0.01406
57.95 0.0083
58 -0.00006
58.05 -0.00838
58.1 -0.01036
58.15 -0.00934
58.2 -0.00848
58.25 -0.00449
58.3 -0.00329
58.35 -0.0063
58.4 -0.00593
58.45 -0.00999
58.5 -0.01073
58.55 -0.01362
58.6 -0.01201
58.65 -0.00802
58.7 -0.00802
58.75 -0.00559
58.8 0.00084
58.85 0.00587
58.9 0.00912
58.95 0.0062
59 0.00527
59.05 0.00065
59.1 -0.00352
59.15 -0.00333
59.2 -0.00707
59.25 -0.00446
59.3 -0.0009
59.35 -0.00229
59.4 -0.00003
59.45 -0.00043
59.5 -0.00039
59.55 0.00194
59.6 0.00068
59.65 0.00212
59.7 -0.00067
59.75 -0.00612
59.8 -0.00492
59.85 -0.00293
59.9 -0.00464
59.95 -0.0063
60 -0.00938
60.05 -0.0095
60.1 -0.01032
60.15 -0.01236
60.2 -0.01279
60.25 -0.00817
60.3 -0.00859
60.35 -0.00817
60.4 -0.0035
60.45 -0.00056
60.5 0.00364
60.55 0.00211
60.6 -0.00055
60.65 -0.00654
60.7 -0.01074
60.75 -0.01062
60.8 -0.01419
60.85 -0.01177
60.9 -0.00572
60.95 -0.00069
61 0.00459
61.05 0.00592
61.1 0.00535
61.15 0.00086
61.2 -0.00242
61.25 0.00002
61.3 0.00533
61.35 0.01136
61.4 0.0117
61.45 0.0132
61.5 0.0172
61.55 0.01921
61.6 0.02328
61.65 0.02495
61.7 0.02231
61.75 0.02063
61.8 0.022
61.85 0.02366
61.9 0.02683
61.95 0.02723
62 0.02211
62.05 0.01873
62.1 0.019
62.15 0.01509
62.2 0.0143
62.25 0.01371
62.3 0.01162
62.35 0.00492
62.4 -0.00472
62.45 -0.0111
62.5 -0.01127
62.55 -0.00968
62.6 -0.00469
62.65 -0.00405
62.7 -0.00785
62.75 -0.01464
62.8 -0.01498
62.85 -0.01325
62.9 -0.01209
62.95 -0.00697
63 -0.00054
63.05 0.0021
63.1 0.00359
63.15 0.00221
63.2 0.00364
63.25 0.00513
63.3 0.00635
63.35 0.00396
63.4 0.00035
63.45 -0.00385
63.5 -0.00614
63.55 -0.0095
63.6 -0.01544
63.65 -0.0199
63.7 -0.02113
63.75 -0.0226
63.8 -0.0244
63.85 -0.02783
63.9 -0.02954
63.95 -0.02504
64 -0.02326
64.05 -0.01964
64.1 -0.01502
64.15 -0.00788
64.2 -0.00432
64.25 -0.00549
64.3 -0.00564
64.35 -0.00763
64.4 -0.00602
64.45 -0.00145
64.5 0.00197
64.55 0.00513
64.6 0.00185
64.65 -0.00418
64.7 -0.01119
64.75 -0.01868
64.8 -0.02143
64.85 -0.01694
64.9 -0.01563
64.95 -0.01765
65 -0.02143
65.05 -0.02482
65.1 -0.02128
65.15 -0.01812
65.2 -0.01045
65.25 -0.00582
65.3 -0.00252
65.35 0.00053
65.4 0.00236
65.45 0.00645
65.5 0.00841
65.55 0.01227
65.6 0.01122
65.65 0.00827
65.7 0.00549
65.75 -0.00001
65.8 -0.00718
65.85 -0.00965
65.9 -0.00743
65.95 -0.0037
66 -0.00281
66.05 -0.00268
66.1 -0.00356
66.15 -0.0026
66.2 -0.00179
66.25 0.00186
66.3 0.00616
66.35 0.00568
66.4 0.00671
66.45 0.01112
66.5 0.01129
66.55 0.011
66.6 0.01112
66.65 0.00986
66.7 0.00445
66.75 -0.00311
66.8 -0.00571
66.85 -0.01048
66.9 -0.01717
66.95 -0.02316
67 -0.02306
67.05 -0.02172
67.1 -0.01854
67.15 -0.01563
67.2 -0.00894
67.25 -0.00501
67.3 -0.00485
67.35 -0.0038
67.4 -0.00076
67.45 0.00187
67.5 0.00337
67.55 0.00432
67.6 -0.00003
67.65 -0.00069
67.7 -0.0018
67.75 -0.00659
67.8 -0.01173
67.85 -0.01066
67.9 -0.00548
67.95 -0.00556
68 -0.00697
68.05 -0.00764
68.1 -0.0035
68.15 0.00081
68.2 0.00607
68.25 0.0099
68.3 0.01295
68.35 0.01799
68.4 0.02429
68.45 0.02569
68.5 0.02307
68.55 0.02002
68.6 0.01767
68.65 0.01172
68.7 0.00774
68.75 0.00317
68.8 -0.00132
68.85 -0.00146
68.9 0.00131
68.95 0.00456
69 0.01038
69.05 0.00952
69.1 0.00688
69.15 0.00126
69.2 -0.00117
69.25 -0.0029
69.3 -0.00852
69.35 -0.014
69.4 -0.01772
69.45 -0.01944
69.5 -0.01633
69.55 -0.01204
69.6 -0.01001
69.65 -0.0062
69.7 -0.0065
69.75 -0.00159
69.8 0.0049
69.85 0.01011
69.9 0.01204
69.95 0.00799
70 0.00517
70.05 0.00152
70.1 -0.00002
70.15 0.00271
70.2 0.00223
70.25 -0.0015
70.3 -0.00136
70.35 0.00242
70.4 0.00429
70.45 0.00655
70.5 0.01156
70.55 0.01778
70.6 0.02433
70.65 0.02208
70.7 0.01865
70.75 0.01917
70.8 0.01766
70.85 0.01267
70.9 0.01217
70.95 0.01077
71 0.01131
71.05 0.00829
71.1 0.00579
71.15 0.00753
71.2 0.00362
71.25 -0.00143
71.3 -0.00372
71.35 -0.00288
71.4 -0.00211
71.45 0.00092
71.5 0.00402
71.55 0.00854
71.6 0.00816
71.65 0.01138
71.7 0.00833
71.75 0.00476
71.8 0.00621
71.85 0.0059
71.9 0.00217
71.95 -0.00492
72 -0.00969
72.05 -0.00977
72.1 -0.00916
72.15 -0.0067
72.2 -0.00629
72.25 -0.0053
72.3 -0.00629
72.35 -0.00668
72.4 -0.00433
72.45 -0.00051
72.5 -0.00139
72.55 -0.00426
72.6 -0.00624
72.65 -0.00687
72.7 -0.00521
72.75 -0.0045
72.8 -0.00019
72.85 0.00363
72.9 0.00289
72.95 0.00077
73 0.0004
73.05 0.00303
73.1 0.00356
73.15 0.00459
73.2 0.00042
73.25 -0.00188
73.3 0.00023
73.35 -0.00111
73.4 -0.00327
73.45 -0.00202
73.5 -0.00319
73.55 -0.00499
73.6 -0.00567
73.65 -0.00651
73.7 -0.00741
73.75 -0.00527
73.8 0.00027
73.85 0.00507
73.9 0.00433
73.95 0.00708
74 0.0045
74.05 0.00323
74.1 -0.00043
74.15 -0.0055
74.2 -0.00845
74.25 -0.00618
74.3 -0.00031
74.35 0.00763
74.4 0.009
74.45 0.00734
74.5 0.0087
74.55 0.0115
74.6 0.00969
74.65 0.00658
74.7 0.00843
74.75 0.01128
74.8 0.00914
74.85 0.01087
74.9 0.01016
74.95 0.005
75 -0.00235
75.05 -0.01079
75.1 -0.01183
75.15 -0.01053
75.2 -0.01038
75.25 -0.00725
75.3 -0.00357
75.35 -0.00386
75.4 -0.00685
75.45 -0.00536
75.5 -0.00876
75.55 -0.00997
75.6 -0.00654
75.65 -0.0046
75.7 -0.00431
75.75 -0.00817
75.8 -0.01495
75.85 -0.01406
75.9 -0.0148
75.95 -0.01668
76 -0.01459
76.05 -0.01634
76.1 -0.01239
76.15 -0.00636
76.2 -0.00522
76.25 -0.0087
76.3 -0.01494
76.35 -0.01354
76.4 -0.00737
76.45 -0.00722
76.5 -0.00483
76.55 0.00009
76.6 0.00324
76.65 0.00841
76.7 0.00715
76.75 0.00999
76.8 0.00667
76.85 -0.00053
76.9 -0.00474
76.95 -0.0077
77 -0.00792
77.05 -0.00514
77.1 -0.00391
77.15 0.00181
77.2 0.00874
77.25 0.0079
77.3 0.00412
77.35 -0.00174
77.4 -0.00537
77.45 -0.00351
77.5 -0.00569
77.55 -0.00525
77.6 -0.00099
77.65 0.00276
77.7 0.00323
77.75 0.00307
77.8 0.00259
77.85 0.00267
77.9 -0.00069
77.95 -0.00212
78 -0.0063
78.05 -0.00527
78.1 -0.00699
78.15 -0.00817
78.2 -0.01091
78.25 -0.01616
78.3 -0.02152
78.35 -0.02595
78.4 -0.03007
78.45 -0.03135
78.5 -0.03032
78.55 -0.02995
78.6 -0.02542
78.65 -0.02079
78.7 -0.01461
78.75 -0.01322
78.8 -0.01521
78.85 -0.01206
78.9 -0.00664
78.95 0.00067
79 0.00613
79.05 0.00897
79.1 0.00592
79.15 0.00085
79.2 -0.00061
79.25 -0.00418
79.3 -0.00332
79.35 -0.00233
79.4 -0.00094
79.45 -0.00402
79.5 -0.00957
79.55 -0.0093
79.6 -0.00825
79.65 -0.00741
79.7 -0.00293
79.75 -0.00281
79.8 0.00084
79.85 0.00606
79.9 0.0093
79.95 0.01154
80 0.01663
80.05 0.02063
80.1 0.0199
80.15 0.01606
80.2 0.01261
80.25 0.01054
80.3 0.00653
80.35 0.00269
80.4 -0.00347
80.45 -0.00616
80.5 -0.01011
80.55 -0.01303
80.6 -0.01316
80.65 -0.0078
80.7 -0.00515
80.75 -0.00084
80.8 0.00214
80.85 0.00858
80.9 0.01639
80.95 0.02296
81 0.02946
81.05 0.031
81.1 0.0263
81.15 0.01938
81.2 0.0148
81.25 0.00917
81.3 0.00222
81.35 -0.0055
81.4 -0.01455
81.45 -0.0221
81.5 -0.02611
81.55 -0.02717
81.6 -0.0268
81.65 -0.02023
81.7 -0.01777
81.75 -0.01619
81.8 -0.01216
81.85 -0.01154
81.9 -0.00601
81.95 0.00236
82 0.00675
82.05 0.01008
82.1 0.01386
82.15 0.01844
82.2 0.02188
82.25 0.02402
82.3 0.02044
82.35 0.01518
82.4 0.01098
82.45 0.01156
82.5 0.01062
82.55 0.00715
82.6 0.00049
82.65 -0.00696
82.7 -0.01268
82.75 -0.01196
82.8 -0.00629
82.85 -0.00397
82.9 -0.00609
82.95 -0.00324
83 -0.00176
83.05 -0.00301
83.1 -0.00589
83.15 -0.00831
83.2 -0.00965
83.25 -0.01149
83.3 -0.00825
83.35 -0.0043
83.4 -0.00588
83.45 -0.00959
83.5 -0.0157
83.55 -0.01368
83.6 -0.01488
83.65 -0.01225
83.7 -0.00569
83.75 0.00261
83.8 0.00798
83.85 0.01269
83.9 0.01842
83.95 0.01894
84 0.0142
84.05 0.01325
84.1 0.01276
84.15 0.00967
84.2 0.00948
84.25 0.00488
84.3 -0.0007
84.35 -0.00368
84.4 -0.00967
84.45 -0.00816
84.5 -0.00913
84.55 -0.01044
84.6 -0.00985
84.65 -0.01118
84.7 -0.00773
84.75 -0.00296
84.8 0.00233
84.85 0.0027
84.9 -0.00032
84.95 -0.00206
85 -0.00592
85.05 -0.0056
85.1 -0.00775
85.15 -0.01087
85.2 -0.01051
85.25 -0.00557
85.3 -0.00279
85.35 0.00054
85.4 0.00038
85.45 0.00097
85.5 0.00043
85.55 0.00313
85.6 0.00481
85.65 0.00626
85.7 0.00841
85.75 0.00993
85.8 0.01465
85.85 0.01877
85.9 0.01876
85.95 0.0205
86 0.01533
86.05 0.00653
86.1 -0.00302
86.15 -0.0048
86.2 -0.00188
86.25 -0.00395
86.3 -0.00694
86.35 -0.00514
86.4 -0.00438
86.45 0.00069
86.5 0.00151
86.55 0.00525
86.6 0.01074
86.65 0.01395
86.7 0.01704
86.75 0.01608
86.8 0.01262
86.85 0.01379
86.9 0.01271
86.95 0.00781
87 0.00673
87.05 0.00607
87.1 0.00119
87.15 -0.0045
87.2 -0.00431
87.25 -0.00182
87.3 -0.0028
87.35 -0.00528
87.4 -0.01009
87.45 -0.00889
87.5 -0.00306
87.55 0.0004
87.6 0.00449
87.65 0.0089
87.7 0.01325
87.75 0.01281
87.8 0.011
87.85 0.00642
87.9 0.00267
87.95 -0.00191
88 -0.00765
88.05 -0.015
88.1 -0.01543
88.15 -0.01169
88.2 -0.00573
88.25 -0.00232
88.3 -0.00257
88.35 -0.00293
88.4 -0.00379
88.45 -0.00273
88.5 0.00221
88.55 0.00112
88.6 0.00246
88.65 -0.00046
88.7 0.00079
88.75 0.00422
88.8 0.00606
88.85 0.00527
88.9 0.00857
88.95 0.01009
89 0.00931
89.05 0.01164
89.1 0.01132
89.15 0.01189
89.2 0.00831
89.25 0.00311
89.3 -0.00145
89.35 -0.0035
89.4 -0.00456
89.45 -0.00258
89.5 0.00138
89.55 0.00668
89.6 0.01316
89.65 0.01733
89.7 0.01813
89.75 0.0194
89.8 0.0187
89.85 0.02071
89.9 0.02072
89.95 0.01568
90 0.00631
90.05 0.00116
90.1 -0.00541
90.15 -0.01254
90.2 -0.01474
90.25 -0.01631
90.3 -0.01929
90.35 -0.02443
90.4 -0.02734
90.45 -0.03137
90.5 -0.03136
90.55 -0.02544
90.6 -0.01994
90.65 -0.01715
90.7 -0.00979
90.75 0.00028
90.8 0.00784
90.85 0.01519
90.9 0.01482
90.95 0.01686
91 0.01575
91.05 0.01242
91.1 0.01274
91.15 0.01254
91.2 0.01326
91.25 0.00861
91.3 0.0022
91.35 -0.00029
91.4 0.00241
91.45 0.00672
91.5 0.00577
91.55 0.00647
91.6 0.00879
91.65 0.00845
91.7 0.01014
91.75 0.01153
91.8 0.01405
91.85 0.01067
91.9 0.012
91.95 0.01528
92 0.01714
92.05 0.01389
92.1 0.01236
92.15 0.00761
92.2 0.0009
92.25 -0.00694
92.3 -0.01372
92.35 -0.01561
92.4 -0.01833
92.45 -0.0175
92.5 -0.02035
92.55 -0.01775
92.6 -0.01133
92.65 -0.00942
92.7 -0.00319
92.75 0.00464
92.8 0.00882
92.85 0.00578
92.9 0.00137
92.95 -0.00077
93 -0.00104
93.05 -0.00615
93.1 -0.00943
93.15 -0.01314
93.2 -0.01571
93.25 -0.01602
93.3 -0.01323
93.35 -0.01169
93.4 -0.00745
93.45 0.00007
93.5 0.00143
93.55 -0.00221
93.6 -0.00907
93.65 -0.0111
93.7 -0.01633
93.75 -0.02156
93.8 -0.02761
93.85 -0.02884
93.9 -0.02336
93.95 -0.02247
94 -0.01847
94.05 -0.01633
94.1 -0.01621
94.15 -0.01358
94.2 -0.01113
94.25 -0.00926
94.3 -0.01039
94.35 -0.01421
94.4 -0.01658
94.45 -0.01806
94.5 -0.01945
94.55 -0.02069
94.6 -0.01879
94.65 -0.01679
94.7 -0.01384
94.75 -0.008
94.8 -0.00285
94.85 0.00549
94.9 0.01131
94.95 0.01405
95 0.01631
95.05 0.01814
95.1 0.01947
95.15 0.01603
95.2 0.01376
95.25 0.01047
95.3 0.00364
95.35 0.00353
95.4 -0.00031
95.45 -0.0055
95.5 -0.01021
95.55 -0.01172
95.6 -0.01174
95.65 -0.01133
95.7 -0.00824
95.75 -0.00786
95.8 -0.00994
95.85 -0.01182
95.9 -0.01564
95.95 -0.01752
96 -0.01566
96.05 -0.00949
96.1 -0.00706
96.15 -0.00687
96.2 -0.0075
96.25 -0.00573
96.3 -0.00812
96.35 -0.00681
96.4 -0.0082
96.45 -0.01004
96.5 -0.00988
96.55 -0.01248
96.6 -0.01354
96.65 -0.00949
96.7 -0.00301
96.75 0.00521
96.8 0.01167
96.85 0.01641
96.9 0.02204
96.95 0.02421
97 0.02067
97.05 0.0155
97.1 0.01132
97.15 0.00817
97.2 0.01043
97.25 0.01171
97.3 0.01205
97.35 0.01456
97.4 0.01505
97.45 0.01501
97.5 0.01748
97.55 0.01887
97.6 0.02165
97.65 0.02473
97.7 0.02448
97.75 0.01975
97.8 0.01212
97.85 0.00315
97.9 -0.00053
97.95 -0.00487
98 -0.00509
98.05 -0.00957
98.1 -0.00857
98.15 -0.007
98.2 -0.00669
98.25 -0.00278
98.3 0.00227
98.35 0.00429
98.4 0.00106
98.45 -0.00478
98.5 -0.00551
98.55 -0.00936
98.6 -0.01383
98.65 -0.0175
98.7 -0.02178
98.75 -0.02016
98.8 -0.01927
98.85 -0.01987
98.9 -0.0179
98.95 -0.01597
99 -0.01252
99.05 -0.0069
99.1 -0.00497
99.15 -0.00305
99.2 -0.00448
99.25 -0.00105
99.3 -0.00057
99.35 -0.00117
99.4 0.00087
99.45 0.00368
99.5 0.00609
99.55 0.01172
99.6 0.01905
99.65 0.02166
99.7 0.0187
99.75 0.01552
99.8 0.00827
99.85 0.00661
99.9 0.00409
99.95 -0.00104
