0 0
0.05 0.00917
0.1 0.01638
0.15 0.02111
0.2 0.03122
0.25 0.04434
0.3 0.05371
0.35 0.06275
0.4 0.07233
0.45 0.07354
0.5 0.07383
0.55 0.07294
0.6 0.06567
0.65 0.05932
0.7 0.05871
0.75 0.0561
0.8 0.05155
0.85 0.05127
0.9 0.05301
0.95 0.05509
1 0.05397
1.05 0.05476
1.1 0.05649
1.15 0.06045
1.2 0.06174
1.25 0.06294
1.3 0.06121
1.35 0.0582
1.4 0.054
1.45 0.05251
1.5 0.04537
1.55 0.04042
1.6 0.03542
1.65 0.0306
1.7 0.03128
1.75 0.03251
1.8 0.03491
1.85 0.0372
1.9 0.0356
1.95 0.03472
2 0.03003
2.05 0.02482
2.1 0.01905
2.15 0.01212
2.2 0.01187
2.25 0.00838
2.3 0.00537
2.35 0.00791
2.4 0.0148
2.45 0.01974
2.5 0.02447
2.55 0.0304
2.6 0.0342
2.65 0.03753
2.7 0.03541
2.75 0.0341
2.8 0.03597
2.85 0.03199
2.9 0.03037
2.95 0.02753
3 0.02565
3.05 0.02204
3.1 0.02153
3.15 0.02174
3.2 0.01739
3.25 0.01815
3.3 0.0226
3.35 0.02659
3.4 0.03105
3.45 0.03038
3.5 0.02935
3.55 0.02786
3.6 0.02208
3.65 0.01791
3.7 0.0107
3.75 0.00346
3.8 -0.00174
3.85 -0.00085
3.9 0.0023
3.95 0.00372
4 0.00941
4.05 0.01089
4.1 0.00902
4.15 0.00564
4.2 0.00056
4.25 0.00065
4.3 0.00177
4.35 -0.00318
4.4 -0.01089
4.45 -0.01335
4.5 -0.01748
4.55 -0.02469
4.6 -0.03423
4.65 -0.04266
4.7 -0.05956
4.75 -0.07786
4.8 -0.09946
4.85 -0.12029
4.9 -0.14119
4.95 -0.1733
5 -0.20806
5.05 -0.25205
5.1 -0.30366
5.15 -0.35803
5.2 -0.41032
5.25 -0.46901
5.3 -0.53238
5.35 -0.60239
5.4 -0.66828
5.45 -0.73223
5.5 -0.79906
5.55 -0.86754
5.6 -0.9329
5.65 -1.00313
5.7 -1.07169
5.75 -1.13897
5.8 -1.19811
5.85 -1.25065
5.9 -1.29702
5.95 -1.33512
6 -1.36471
6.05 -1.38374
6.1 -1.40144
6.15 -1.41199
6.2 -1.41571
6.25 -1.4134
6.3 -1.40704
6.35 -1.39758
6.4 -1.38384
6.45 -1.36513
6.5 -1.33788
6.55 -1.2987
6.6 -1.25558
6.65 -1.20362
6.7 -1.14736
6.75 -1.08569
6.8 -1.01572
6.85 -0.93832
6.9 -0.85401
6.95 -0.76581
7 -0.67706
7.05 -0.58394
7.1 -0.48202
7.15 -0.37786
7.2 -0.27111
7.25 -0.15488
7.3 -0.03803
7.35 0.08153
7.4 0.19903
7.45 0.31533
7.5 0.42489
7.55 0.53312
7.6 0.63376
7.65 0.72989
7.7 0.82234
7.75 0.90509
7.8 0.98018
7.85 1.04421
7.9 1.1052
7.95 1.15612
8 1.1973
8.05 1.23709
8.1 1.27364
8.15 1.30523
8.2 1.32944
8.25 1.34542
8.3 1.35322
8.35 1.35376
8.4 1.34989
8.45 1.33992
8.5 1.3332
8.55 1.32447
8.6 1.30911
8.65 1.29222
8.7 1.27678
8.75 1.25739
8.8 1.23742
8.85 1.22047
8.9 1.20238
8.95 1.18256
9 1.15998
9.05 1.13669
9.1 1.11571
9.15 1.09178
9.2 1.06602
9.25 1.04365
9.3 1.01774
9.35 0.98984
9.4 0.95812
9.45 0.92604
9.5 0.90043
9.55 0.87447
9.6 0.85055
9.65 0.82335
9.7 0.79613
9.75 0.77243
9.8 0.74712
9.85 0.7206
9.9 0.69798
9.95 0.67435
10 0.6492
10.05 0.62406
10.1 0.60595
10.15 0.5909
10.2 0.57543
10.25 0.56192
10.3 0.54404
10.35 0.52019
10.4 0.495
10.45 0.47209
10.5 0.44998
10.55 0.4241
10.6 0.40077
10.65 0.37741
10.7 0.35498
10.75 0.33633
10.8 0.31563
10.85 0.29629
10.9 0.27809
10.95 0.25908
11 0.24121
11.05 0.22211
11.1 0.20607
11.15 0.19226
11.2 0.17698
11.25 0.16202
11.3 0.14723
11.35 0.12818
11.4 0.10453
11.45 0.07736
11.5 0.05477
11.55 0.03163
11.6 0.0094
11.65 -0.00501
11.7 -0.02058
11.75 -0.03608
11.8 -0.05217
11.85 -0.06766
11.9 -0.08058
11.95 -0.08901
12 -0.10012
12.05 -0.11191
12.1 -0.1227
12.15 -0.13113
12.2 -0.142
12.25 -0.14856
12.3 -0.14869
12.35 -0.1496
12.4 -0.1507
12.45 -0.15353
12.5 -0.16087
12.55 -0.16716
12.6 -0.17628
12.65 -0.18132
12.7 -0.18473
12.75 -0.18831
12.8 -0.19402
12.85 -0.19554
12.9 -0.20011
12.95 -0.20541
13 -0.20853
13.05 -0.21158
13.1 -0.20886
13.15 -0.20949
13.2 -0.20754
13.25 -0.20447
13.3 -0.19711
13.35 -0.1903
13.4 -0.18871
13.45 -0.18651
13.5 -0.18702
13.55 -0.18663
13.6 -0.18817
13.65 -0.19185
13.7 -0.1942
13.75 -0.19185
13.8 -0.18523
13.85 -0.18031
13.9 -0.17659
13.95 -0.1705
14 -0.17005
14.05 -0.17413
14.1 -0.17608
14.15 -0.17463
14.2 -0.1724
14.25 -0.16814
14.3 -0.16653
14.35 -0.167
14.4 -0.17059
14.45 -0.17407
14.5 -0.17047
14.55 -0.1672
14.6 -0.1587
14.65 -0.14733
14.7 -0.13807
14.75 -0.13639
14.8 -0.13278
14.85 -0.12808
14.9 -0.12213
14.95 -0.12099
15 -0.12055
15.05 -0.11785
15.1 -0.11511
15.15 -0.11548
15.2 -0.11526
15.25 -0.1166
15.3 -0.12125
15.35 -0.11958
15.4 -0.1228
15.45 -0.12566
15.5 -0.12791
15.55 -0.12947
15.6 -0.13296
15.65 -0.13396
15.7 -0.12911
15.75 -0.12047
15.8 -0.11138
15.85 -0.1013
15.9 -0.09011
15.95 -0.08251
16 -0.079
16.05 -0.07522
16.1 -0.07812
16.15 -0.07686
16.2 -0.0745
16.25 -0.07236
16.3 -0.06971
16.35 -0.06487
16.4 -0.06134
16.45 -0.06463
16.5 -0.07105
16.55 -0.07209
16.6 -0.07477
16.65 -0.0726
16.7 -0.07207
16.75 -0.07538
16.8 -0.07432
16.85 -0.06912
16.9 -0.06983
16.95 -0.06841
17 -0.06813
17.05 -0.06638
17.1 -0.06896
17.15 -0.06941
17.2 -0.07128
17.25 -0.07044
17.3 -0.06536
17.35 -0.05945
17.4 -0.05461
17.45 -0.05155
17.5 -0.04644
17.55 -0.04296
17.6 -0.03883
17.65 -0.03974
17.7 -0.04047
17.75 -0.04016
17.8 -0.0462
17.85 -0.05552
17.9 -0.05841
17.95 -0.06303
18 -0.06619
18.05 -0.06805
18.1 -0.07112
18.15 -0.07619
18.2 -0.07437
18.25 -0.073
18.3 -0.07416
18.35 -0.06869
18.4 -0.06088
18.45 -0.05345
18.5 -0.0489
18.55 -0.04962
18.6 -0.05415
18.65 -0.05849
18.7 -0.05797
18.75 -0.06103
18.8 -0.06266
18.85 -0.06314
18.9 -0.06529
18.95 -0.06273
19 -0.05962
19.05 -0.05752
19.1 -0.05647
19.15 -0.05815
19.2 -0.05535
19.25 -0.05447
19.3 -0.05256
19.35 -0.05414
19.4 -0.05736
19.45 -0.05802
19.5 -0.05204
19.55 -0.04641
19.6 -0.03845
19.65 -0.03129
19.7 -0.02261
19.75 -0.01426
19.8 -0.0123
19.85 -0.01077
19.9 -0.01495
19.95 -0.02021
20 -0.02366
20.05 -0.02812
20.1 -0.02941
20.15 -0.03458
20.2 -0.03706
20.25 -0.03456
20.3 -0.02939
20.35 -0.02209
20.4 -0.01714
20.45 -0.01266
20.5 -0.0117
20.55 -0.01062
20.6 -0.00767
20.65 -0.00936
20.7 -0.01585
20.75 -0.02253
20.8 -0.02745
20.85 -0.02862
20.9 -0.03321
20.95 -0.03493
21 -0.03361
21.05 -0.03034
21.1 -0.03158
21.15 -0.03217
21.2 -0.03437
21.25 -0.02972
21.3 -0.02393
21.35 -0.01883
21.4 -0.01338
21.45 -0.00855
21.5 -0.00968
21.55 -0.00804
21.6 -0.0104
21.65 -0.00779
21.7 -0.00597
21.75 -0.00656
21.8 -0.00759
21.85 -0.00747
21.9 -0.00958
21.95 -0.00928
22 -0.01268
22.05 -0.01562
22.1 -0.01569
22.15 -0.01543
22.2 -0.01512
22.25 -0.01462
22.3 -0.01248
22.35 -0.01278
22.4 -0.01137
22.45 -0.01412
22.5 -0.01224
22.55 -0.01457
22.6 -0.0205
22.65 -0.02045
22.7 -0.01507
22.75 -0.00974
22.8 -0.00517
22.85 -0.00485
22.9 -0.00534
22.95 -0.00369
23 -0.00327
23.05 -0.0012
23.1 0.00352
23.15 0.00956
23.2 0.01291
23.25 0.00947
23.3 0.00118
23.35 -0.00582
23.4 -0.01064
23.45 -0.01801
23.5 -0.01748
23.55 -0.01895
23.6 -0.01829
23.65 -0.01411
23.7 -0.00939
23.75 -0.00255
23.8 -0.00186
23.85 -0.0017
23.9 0.00147
23.95 0.00499
24 0.00862
24.05 0.00716
24.1 0.00767
24.15 0.00992
24.2 0.01291
24.25 0.0142
24.3 0.01167
24.35 0.00388
24.4 0.00135
24.45 -0.00133
24.5 -0.00281
24.55 -0.00088
24.6 -0.00341
24.65 -0.01023
24.7 -0.0109
24.75 -0.01559
24.8 -0.018
24.85 -0.01594
24.9 -0.01172
24.95 -0.00515
25 0.00316
25.05 0.00379
25.1 0.00473
25.15 0.00651
25.2 0.00717
25.25 0.00888
25.3 0.00661
25.35 0.0036
25.4 -0.00137
25.45 -0.00399
25.5 -0.00569
25.55 -0.00454
25.6 -0.0052
25.65 -0.00335
25.7 -0.00181
25.75 0.00125
25.8 0.00554
25.85 0.00855
25.9 0.01301
25.95 0.01155
26 0.00587
26.05 0.00181
26.1 0.00008
26.15 -0.0032
26.2 -0.00338
26.25 -0.00458
26.3 -0.00648
26.35 -0.00467
26.4 -0.00201
26.45 -0.00164
26.5 0.00028
26.55 -0.00402
26.6 -0.0033
26.65 -0.0001
26.7 0.00213
26.75 0.00459
26.8 0.00047
26.85 -0.00433
26.9 -0.01025
26.95 -0.01438
27 -0.01444
27.05 -0.01056
27.1 -0.00379
27.15 0.00196
27.2 0.00446
27.25 0.00713
27.3 0.01089
27.35 0.01097
27.4 0.01312
27.45 0.00796
27.5 -0.00117
27.55 -0.01094
27.6 -0.01653
27.65 -0.02003
27.7 -0.01942
27.75 -0.01888
27.8 -0.0256
27.85 -0.03245
27.9 -0.04326
27.95 -0.05059
28 -0.05483
28.05 -0.0594
28.1 -0.06328
28.15 -0.07248
28.2 -0.08373
28.25 -0.09893
28.3 -0.11669
28.35 -0.13379
28.4 -0.15167
28.45 -0.17377
28.5 -0.19627
28.55 -0.22342
28.6 -0.25063
28.65 -0.28519
28.7 -0.32414
28.75 -0.36287
28.8 -0.40448
28.85 -0.45191
28.9 -0.50207
28.95 -0.55252
29 -0.60212
29.05 -0.65278
29.1 -0.70196
29.15 -0.75161
29.2 -0.80118
29.25 -0.85941
29.3 -0.91833
29.35 -0.97317
29.4 -1.03099
29.45 -1.08453
29.5 -1.13544
29.55 -1.17983
29.6 -1.22546
29.65 -1.26478
29.7 -1.29846
29.75 -1.32878
29.8 -1.35043
29.85 -1.36176
29.9 -1.36212
29.95 -1.35286
30 -1.33525
30.05 -1.30802
30.1 -1.2698
30.15 -1.2267
30.2 -1.17408
30.25 -1.11295
30.3 -1.04652
30.35 -0.97372
30.4 -0.8941
30.45 -0.81017
30.5 -0.72886
30.55 -0.64313
30.6 -0.55122
30.65 -0.45622
30.7 -0.35878
30.75 -0.26628
30.8 -0.17396
30.85 -0.08426
30.9 0.00266
30.95 0.08392
31 0.16112
31.05 0.24191
31.1 0.32418
31.15 0.40492
31.2 0.47565
31.25 0.54384
31.3 0.60422
31.35 0.65758
31.4 0.70433
31.45 0.74945
31.5 0.78865
31.55 0.82645
31.6 0.86332
31.65 0.89729
31.7 0.92693
31.75 0.94727
31.8 0.96178
31.85 0.97865
31.9 0.99291
31.95 1.00713
32 1.02075
32.05 1.03484
32.1 1.04342
32.15 1.04733
32.2 1.04807
32.25 1.04605
32.3 1.04441
32.35 1.04192
32.4 1.04153
32.45 1.04707
32.5 1.05746
32.55 1.06279
32.6 1.06961
32.65 1.07704
32.7 1.0804
32.75 1.08216
32.8 1.07443
32.85 1.06703
32.9 1.05836
32.95 1.04479
33 1.02716
33.05 1.01345
33.1 0.99465
33.15 0.97856
33.2 0.95889
33.25 0.94296
33.3 0.92751
33.35 0.90807
33.4 0.88661
33.45 0.86727
33.5 0.84286
33.55 0.81879
33.6 0.79235
33.65 0.76577
33.7 0.73293
33.75 0.69819
33.8 0.6652
33.85 0.6377
33.9 0.61424
33.95 0.59352
34 0.56909
34.05 0.54362
34.1 0.52119
34.15 0.50027
34.2 0.47848
34.25 0.45772
34.3 0.43663
34.35 0.41492
34.4 0.3929
34.45 0.37041
34.5 0.34359
34.55 0.31579
34.6 0.28846
34.65 0.26457
34.7 0.23743
34.75 0.21103
34.8 0.18343
34.85 0.15786
34.9 0.13446
34.95 0.11169
35 0.09386
35.05 0.07964
35.1 0.06236
35.15 0.04429
35.2 0.03117
35.25 0.01395
35.3 -0.00031
35.35 -0.01311
35.4 -0.02856
35.45 -0.04365
35.5 -0.05239
35.55 -0.06028
35.6 -0.06425
35.65 -0.07433
35.7 -0.08795
35.75 -0.10352
35.8 -0.11252
35.85 -0.11994
35.9 -0.12825
35.95 -0.13997
36 -0.14872
36.05 -0.15811
36.1 -0.16752
36.15 -0.17816
36.2 -0.18178
36.25 -0.17905
36.3 -0.18064
36.35 -0.17805
36.4 -0.17722
36.45 -0.1745
36.5 -0.17464
36.55 -0.17323
36.6 -0.17768
36.65 -0.185
36.7 -0.19262
36.75 -0.19453
36.8 -0.19605
36.85 -0.19975
36.9 -0.19711
36.95 -0.19927
37 -0.19598
37.05 -0.19231
37.1 -0.18743
37.15 -0.18064
37.2 -0.1738
37.25 -0.16838
37.3 -0.16674
37.35 -0.17161
37.4 -0.17494
37.45 -0.17422
37.5 -0.17018
37.55 -0.16931
37.6 -0.17426
37.65 -0.17674
37.7 -0.17763
37.75 -0.17488
37.8 -0.17073
37.85 -0.16701
37.9 -0.161
37.95 -0.15751
38 -0.15993
38.05 -0.15943
38.1 -0.16152
38.15 -0.16671
38.2 -0.16619
38.25 -0.16377
38.3 -0.15967
38.35 -0.15345
38.4 -0.14498
38.45 -0.14217
38.5 -0.1452
38.55 -0.14908
38.6 -0.15397
38.65 -0.15967
38.7 -0.16339
38.75 -0.16198
38.8 -0.15885
38.85 -0.15579
38.9 -0.14697
38.95 -0.14222
39 -0.14009
39.05 -0.13331
39.1 -0.12483
39.15 -0.12153
39.2 -0.12087
39.25 -0.12085
39.3 -0.11875
39.35 -0.11812
39.4 -0.11293
39.45 -0.10861
39.5 -0.106
39.55 -0.1064
39.6 -0.10661
39.65 -0.10278
39.7 -0.10321
39.75 -0.10414
39.8 -0.10829
39.85 -0.10977
39.9 -0.11202
39.95 -0.11088
40 -0.10491
40.05 -0.10312
40.1 -0.09685
40.15 -0.09566
40.2 -0.09412
40.25 -0.09538
40.3 -0.09334
40.35 -0.08704
40.4 -0.084
40.45 -0.08025
40.5 -0.0737
40.55 -0.07
40.6 -0.07026
40.65 -0.06596
40.7 -0.06741
40.75 -0.06646
40.8 -0.0648
40.85 -0.06536
40.9 -0.06511
40.95 -0.06809
41 -0.06591
41.05 -0.06758
41.1 -0.06674
41.15 -0.06937
41.2 -0.07447
41.25 -0.07855
41.3 -0.07812
41.35 -0.07552
41.4 -0.06979
41.45 -0.06159
41.5 -0.05598
41.55 -0.04942
41.6 -0.04167
41.65 -0.03478
41.7 -0.02736
41.75 -0.0264
41.8 -0.02436
41.85 -0.02775
41.9 -0.03598
41.95 -0.04112
42 -0.04664
42.05 -0.0519
42.1 -0.05717
42.15 -0.06077
42.2 -0.05769
42.25 -0.05432
42.3 -0.05521
42.35 -0.05328
42.4 -0.05149
42.45 -0.04675
42.5 -0.0449
42.55 -0.04591
42.6 -0.04775
42.65 -0.04422
42.7 -0.03952
42.75 -0.03767
42.8 -0.03647
42.85 -0.03519
42.9 -0.03317
42.95 -0.03523
43 -0.04067
43.05 -0.03939
43.1 -0.03554
43.15 -0.03395
43.2 -0.03479
43.25 -0.03969
43.3 -0.04421
43.35 -0.04697
43.4 -0.04824
43.45 -0.04417
43.5 -0.03921
43.55 -0.0375
43.6 -0.03401
43.65 -0.02776
43.7 -0.0237
43.75 -0.02595
43.8 -0.02895
43.85 -0.03515
43.9 -0.03772
43.95 -0.03599
44 -0.03428
44.05 -0.02808
44.1 -0.02236
44.15 -0.02072
44.2 -0.02361
44.25 -0.02777
44.3 -0.02676
44.35 -0.02208
44.4 -0.0145
44.45 -0.00627
44.5 0.00106
44.55 0.00575
44.6 0.00878
44.65 0.01056
44.7 0.0044
44.75 0.00113
44.8 -0.00293
44.85 -0.00802
44.9 -0.01582
44.95 -0.02018
45 -0.02743
45.05 -0.03545
45.1 -0.03559
45.15 -0.03158
45.2 -0.02563
45.25 -0.02446
45.3 -0.02308
45.35 -0.0194
45.4 -0.01748
45.45 -0.01925
45.5 -0.02118
45.55 -0.02221
45.6 -0.01885
45.65 -0.01518
45.7 -0.01389
45.75 -0.01098
45.8 -0.01435
45.85 -0.01622
45.9 -0.0198
45.95 -0.01851
46 -0.01319
46.05 -0.00775
46.1 -0.00603
46.15 -0.00856
46.2 -0.01459
46.25 -0.01443
46.3 -0.0187
46.35 -0.02216
46.4 -0.02686
46.45 -0.02683
46.5 -0.02974
46.55 -0.03116
46.6 -0.02854
46.65 -0.02816
46.7 -0.02857
46.75 -0.03173
46.8 -0.03202
46.85 -0.02847
46.9 -0.02198
46.95 -0.01722
47 -0.01268
47.05 -0.00876
47.1 -0.00621
47.15 -0.00689
47.2 -0.01131
47.25 -0.0169
47.3 -0.02369
47.35 -0.02702
47.4 -0.0299
47.45 -0.02985
47.5 -0.02986
47.55 -0.0275
47.6 -0.0202
47.65 -0.01733
47.7 -0.01459
47.75 -0.00761
47.8 0.0007
47.85 0.00845
47.9 0.00817
47.95 0.0034
48 -0.00155
48.05 -0.00684
48.1 -0.00554
48.15 -0.00061
48.2 0.00421
48.25 0.00869
48.3 0.0147
48.35 0.01297
48.4 0.01348
48.45 0.01558
48.5 0.01879
48.55 0.02269
48.6 0.01907
48.65 0.01224
48.7 0.01003
48.75 0.00914
48.8 0.00694
48.85 0.00416
48.9 0.00208
48.95 -0.00346
49 -0.00623
49.05 -0.00675
49.1 -0.00305
49.15 -0.00025
49.2 0.0028
49.25 0.00162
49.3 0.0026
49.35 0.00422
49.4 0.00686
49.45 0.0114
49.5 0.01267
49.55 0.01287
49.6 0.00697
49.65 -0.00248
49.7 -0.00886
49.75 -0.0174
49.8 -0.02337
49.85 -0.02651
49.9 -0.02362
49.95 -0.0238
50 -0.02247
50.05 -0.01998
50.1 -0.01962
50.15 -0.0182
50.2 -0.01794
50.25 -0.01408
50.3 -0.01509
50.35 -0.0185
50.4 -0.02017
50.45 -0.01984
50.5 -0.02099
50.55 -0.01828
50.6 -0.01434
50.65 -0.01417
50.7 -0.01404
50.75 -0.01549
50.8 -0.01343
50.85 -0.00686
50.9 -0.00306
50.95 0.00094
51 0.00552
51.05 0.00769
51.1 0.01153
51.15 0.00973
51.2 0.00919
51.25 0.00433
51.3 0.00309
51.35 -0.0015
51.4 -0.00249
51.45 0.0003
51.5 0.00617
51.55 0.00838
51.6 0.00434
51.65 0.00522
51.7 0.00073
51.75 -0.0066
51.8 -0.01007
51.85 -0.01177
51.9 -0.01108
51.95 -0.01062
52 -0.00738
52.05 -0.0015
52.1 -0.00194
52.15 -0.00636
52.2 -0.00468
52.25 0.00045
52.3 0.00013
52.35 -0.00468
52.4 -0.00634
52.45 -0.00492
52.5 0.00018
52.55 0.00147
52.6 0.00621
52.65 0.0066
52.7 0.0017
52.75 -0.00327
52.8 -0.009
52.85 -0.01151
52.9 -0.01592
52.95 -0.01392
53 -0.00865
53.05 -0.00902
53.1 -0.00408
53.15 -0.00068
53.2 -0.00334
53.25 -0.0032
53.3 -0.00345
53.35 -0.00734
53.4 -0.0059
53.45 -0.00029
53.5 -0.00016
53.55 -0.00283
53.6 -0.0078
53.65 -0.00812
53.7 -0.00845
53.75 -0.01216
53.8 -0.0156
53.85 -0.01398
53.9 -0.0164
53.95 -0.0147
54 -0.01402
54.05 -0.01538
54.1 -0.0123
54.15 -0.01342
54.2 -0.01066
54.25 -0.00443
54.3 0.0034
54.35 0.00849
54.4 0.00986
54.45 0.00997
54.5 0.00905
54.55 0.00685
54.6 0.00939
54.65 0.00874
54.7 0.0031
54.75 0.00201
54.8 0.00187
54.85 -0.00191
54.9 -0.0079
54.95 -0.01444
55 -0.01995
55.05 -0.01964
55.1 -0.01896
55.15 -0.02148
55.2 -0.02475
55.25 -0.02921
55.3 -0.02859
55.35 -0.0236
55.4 -0.02073
55.45 -0.02029
55.5 -0.01639
55.55 -0.01478
55.6 -0.00781
55.65 -0.00634
55.7 -0.00298
55.75 -0.00243
55.8 0.00291
55.85 0.00905
55.9 0.01506
55.95 0.01352
56 0.01614
56.05 0.01334
56.1 0.01149
56.15 0.00883
56.2 0.00551
56.25 0.00471
56.3 0.00625
56.35 0.00447
56.4 0.00085
56.45 0.00315
56.5 0.00753
56.55 0.00969
56.6 0.0144
56.65 0.01442
56.7 0.01297
56.75 0.01458
56.8 0.01004
56.85 0.0081
56.9 0.0103
56.95 0.01239
57 0.01337
57.05 0.01573
57.1 0.01413
57.15 0.01039
57.2 0.00595
57.25 0.00266
57.3 0.00295
57.35 0.00365
57.4 0.00405
57.45 0.00198
57.5 0.00354
57.55 0.00083
57.6 0.00079
57.65 0.00238
57.7 0.00524
57.75 0.00383
57.8 0.00716
57.85 0.01217
57.9 0.01498
57.95 0.0148
58 0.01687
58.05 0.01235
58.1 0.00862
58.15 0.00087
58.2 -0.00473
58.25 -0.00885
58.3 -0.00914
58.35 -0.01159
58.4 -0.01338
58.45 -0.01386
58.5 -0.01665
58.55 -0.01306
58.6 -0.00807
58.65 -0.00055
58.7 0.00481
58.75 0.00313
58.8 0.00382
58.85 0.00214
58.9 -0.00032
58.95 -0.00235
59 -0.00679
59.05 -0.01173
59.1 -0.00935
59.15 -0.00576
59.2 -0.00749
59.25 -0.00683
59.3 -0.00468
59.35 -0.00739
59.4 -0.00759
59.45 -0.00687
59.5 -0.00661
59.55 -0.00319
59.6 0.00303
59.65 0.0062
59.7 0.00838
59.75 0.00862
59.8 0.00361
59.85 0.00009
59.9 -0.00407
59.95 -0.00335
60 -0.00304
60.05 -0.00016
60.1 0.00393
60.15 0.00978
60.2 0.01129
60.25 0.00946
60.3 0.00953
60.35 0.00829
60.4 0.00564
60.45 0.00722
60.5 0.0093
60.55 0.01372
60.6 0.01475
60.65 0.00959
60.7 0.00606
60.75 0.00292
60.8 0.00043
60.85 -0.00362
60.9 -0.00505
60.95 -0.00422
61 -0.00616
61.05 -0.00521
61.1 -0.0062
61.15 -0.01082
61.2 -0.0091
61.25 -0.0044
61.3 -0.00531
61.35 -0.00396
61.4 -0.00534
61.45 -0.00679
61.5 -0.00585
61.55 -0.00682
61.6 -0.01092
61.65 -0.01053
61.7 -0.0052
61.75 -0.00201
61.8 0.00245
61.85 0.00179
61.9 -0.00253
61.95 -0.00816
62 -0.01498
62.05 -0.02191
62.1 -0.02036
62.15 -0.0162
62.2 -0.01511
62.25 -0.0157
62.3 -0.019
62.35 -0.01754
62.4 -0.01961
62.45 -0.01929
62.5 -0.01288
62.55 -0.00978
62.6 -0.00504
62.65 -0.00397
62.7 -0.00238
62.75 -0.0051
62.8 -0.00745
62.85 -0.00361
62.9 0.00097
62.95 0.0033
63 0.00891
63.05 0.01114
63.1 0.01215
63.15 0.01164
63.2 0.01277
63.25 0.01471
63.3 0.01573
63.35 0.01575
63.4 0.01521
63.45 0.01482
63.5 0.01659
63.55 0.01525
63.6 0.01119
63.65 0.0066
63.7 0.00514
63.75 0.00115
63.8 0.00211
63.85 0.00663
63.9 0.01332
63.95 0.01788
64 0.0212
64.05 0.02403
64.1 0.02523
64.15 0.02399
64.2 0.02099
64.25 0.01396
64.3 0.00339
64.35 -0.00076
64.4 -0.00222
64.45 -0.00115
64.5 0.00007
64.55 -0.0017
64.6 -0.00327
64.65 -0.00426
64.7 -0.00135
64.75 -0.0014
64.8 0.00218
64.85 0.00819
64.9 0.01069
64.95 0.01548
65 0.01821
65.05 0.02269
65.1 0.0251
65.15 0.02525
65.2 0.02607
65.25 0.02307
65.3 0.01952
65.35 0.0167
65.4 0.01323
65.45 0.0123
65.5 0.00807
65.55 0.00388
65.6 0.00305
65.65 0.00168
65.7 -0.00282
65.75 -0.00166
65.8 0.00275
65.85 0.00354
65.9 0.00491
65.95 0.00621
66 0.00368
66.05 0.00518
66.1 0.00663
66.15 0.00763
66.2 0.00233
66.25 0.0005
66.3 -0.00153
66.35 0.00131
66.4 0.00285
66.45 0.00089
66.5 0.00183
66.55 -0.00222
66.6 -0.00486
66.65 -0.00254
66.7 -0.00311
66.75 -0.00268
66.8 0.00027
66.85 0.00252
66.9 0.00672
66.95 0.00559
67 0.00551
67.05 0.00049
67.1 -0.00063
67.15 -0.00039
67.2 0.00146
67.25 0.00088
67.3 0.0022
67.35 0.00216
67.4 0.00046
67.45 -0.00125
67.5 -0.00269
67.55 -0.00174
67.6 -0.0023
67.65 0.00039
67.7 -0.00317
67.75 -0.00712
67.8 -0.01139
67.85 -0.01692
67.9 -0.02124
67.95 -0.02616
68 -0.03151
68.05 -0.03249
68.1 -0.03442
68.15 -0.03449
68.2 -0.03048
68.25 -0.02895
68.3 -0.02382
68.35 -0.01901
68.4 -0.01231
68.45 -0.00973
68.5 -0.00411
68.55 -0.0009
68.6 0.00356
68.65 0.00146
68.7 0.00365
68.75 0.0012
68.8 0.00273
68.85 0.00216
68.9 0.0029
68.95 0.00177
69 -0.0032
69.05 -0.00937
69.1 -0.01331
69.15 -0.01098
69.2 -0.00604
69.25 0.00046
69.3 0.00545
69.35 0.00573
69.4 0.00624
69.45 0.00719
69.5 0.00977
69.55 0.01038
69.6 0.00812
69.65 0.00798
69.7 0.0041
69.75 0.00207
69.8 -0.00047
69.85 -0.00649
69.9 -0.00701
69.95 -0.01161
70 -0.01011
70.05 -0.00802
70.1 -0.00171
70.15 0.00148
70.2 0.00405
70.25 0.00489
70.3 0.00632
70.35 0.00575
70.4 0.00801
70.45 0.00912
70.5 0.01331
70.55 0.01209
70.6 0.01223
70.65 0.00988
70.7 0.00877
70.75 0.00813
70.8 0.00603
70.85 0.00742
70.9 0.00558
70.95 -0.00031
71 -0.00224
71.05 -0.00663
71.1 -0.01053
71.15 -0.01076
71.2 -0.00654
71.25 -0.00026
71.3 0.00206
71.35 0.00614
71.4 0.00962
71.45 0.01418
71.5 0.01568
71.55 0.01363
71.6 0.01523
71.65 0.01216
71.7 0.00904
71.75 0.00426
71.8 -0.00295
71.85 -0.00566
71.9 -0.00324
71.95 0.00272
72 0.00913
72.05 0.0118
72.1 0.01139
72.15 0.00901
72.2 0.00913
72.25 0.00493
72.3 -0.00069
72.35 -0.00764
72.4 -0.01516
72.45 -0.02365
72.5 -0.03181
72.55 -0.03326
72.6 -0.03115
72.65 -0.02838
72.7 -0.02523
72.75 -0.02386
72.8 -0.01908
72.85 -0.01304
72.9 -0.01287
72.95 -0.01526
73 -0.01473
73.05 -0.00897
73.1 -0.0017
73.15 0.00678
73.2 0.00676
73.25 0.0031
73.3 -0.00008
73.35 -0.0048
73.4 -0.00623
73.45 -0.00555
73.5 -0.0005
73.55 -0.00174
73.6 -0.00171
73.65 -0.00012
73.7 0.00147
73.75 0.00348
73.8 0.00744
73.85 0.01024
73.9 0.00697
73.95 0.00258
74 -0.00535
74.05 -0.01017
74.1 -0.01457
74.15 -0.01845
74.2 -0.01708
74.25 -0.01682
74.3 -0.01534
74.35 -0.01774
74.4 -0.01358
74.45 -0.00604
74.5 -0.00115
74.55 -0.00247
74.6 -0.00323
74.65 -0.00492
74.7 -0.0078
74.75 -0.0099
74.8 -0.01053
74.85 -0.01123
74.9 -0.01121
74.95 -0.01398
75 -0.01138
75.05 -0.01318
75.1 -0.01731
75.15 -0.01882
75.2 -0.01479
75.25 -0.01196
75.3 -0.01216
75.35 -0.00883
75.4 -0.01049
75.45 -0.00677
75.5 -0.00337
75.55 0.00324
75.6 0.01185
75.65 0.01492
75.7 0.01848
75.75 0.01842
75.8 0.01739
75.85 0.0121
75.9 0.00778
75.95 0.00629
76 0.00899
76.05 0.0111
76.1 0.01486
76.15 0.01862
76.2 0.0159
76.25 0.01307
76.3 0.01142
76.35 0.00759
76.4 0.00649
76.45 0.00153
76.5 -0.00369
76.55 -0.01031
76.6 -0.01341
76.65 -0.01634
76.7 -0.01517
76.75 -0.00935
76.8 -0.00797
76.85 -0.00479
76.9 0.00088
76.95 0.00812
77 0.00774
77.05 0.00969
77.1 0.00711
77.15 0.00906
77.2 0.00576
77.25 0.00085
77.3 -0.00221
77.35 -0.00326
77.4 -0.00835
77.45 -0.00745
77.5 -0.00717
77.55 -0.00563
77.6 -0.00295
77.65 0.00257
77.7 0.00592
77.75 0.00503
77.8 0.00124
77.85 -0.00118
77.9 0.0008
77.95 0.0018
78 0.00206
78.05 0.00225
78.1 0.00197
78.15 -0.00115
78.2 -0.00388
78.25 -0.00833
78.3 -0.00968
78.35 -0.01086
78.4 -0.00768
78.45 -0.00408
78.5 -0.00606
78.55 -0.00321
78.6 -0.00292
78.65 -0.00332
78.7 -0.00632
78.75 -0.00466
78.8 -0.00156
78.85 0.00243
78.9 0.00865
78.95 0.01232
79 0.01306
79.05 0.01145
79.1 0.0063
79.15 0.00483
79.2 0.00008
79.25 -0.00155
79.3 -0.00276
79.35 -0.00064
79.4 -0.00334
79.45 -0.00813
79.5 -0.01292
79.55 -0.01949
79.6 -0.01782
79.65 -0.018
79.7 -0.01196
79.75 -0.00421
79.8 -0.00298
79.85 -0.00621
79.9 -0.00865
79.95 -0.00615
80 0.00015
80.05 0.00704
80.1 0.00632
80.15 0.00741
80.2 0.00407
80.25 0.0062
80.3 0.00295
80.35 0.004
80.4 0.00659
80.45 0.00455
80.5 0.001
80.55 0.00055
80.6 -0.00413
80.65 -0.00655
80.7 -0.00496
80.75 -0.00561
80.8 -0.00511
80.85 -0.00034
80.9 0.00028
80.95 0.00099
81 0.00338
81.05 0.00612
81.1 0.0107
81.15 0.0115
81.2 0.01345
81.25 0.01095
81.3 0.00768
81.35 0.00875
81.4 0.00653
81.45 0.00054
81.5 -0.00511
81.55 -0.01159
81.6 -0.01918
81.65 -0.02505
81.7 -0.02636
81.75 -0.02518
81.8 -0.02278
81.85 -0.02278
81.9 -0.01735
81.95 -0.01689
82 -0.01135
82.05 -0.0036
82.1 0.00314
82.15 0.00932
82.2 0.01551
82.25 0.02105
82.3 0.02408
82.35 0.02763
82.4 0.03189
82.45 0.02823
82.5 0.02657
82.55 0.02621
82.6 0.02809
82.65 0.02608
82.7 0.01993
82.75 0.01691
82.8 0.01299
82.85 0.00734
82.9 0.00148
82.95 -0.00398
83 -0.00668
83.05 -0.01262
83.1 -0.019
83.15 -0.02351
83.2 -0.02285
83.25 -0.02382
83.3 -0.02533
83.35 -0.02481
83.4 -0.02121
83.45 -0.01918
83.5 -0.01755
83.55 -0.01066
83.6 -0.0074
83.65 -0.00628
83.7 -0.0049
83.75 -0.00371
83.8 -0.00029
83.85 0.00506
83.9 0.0053
83.95 0.00664
84 0.01046
84.05 0.01411
84.1 0.01045
84.15 0.01114
84.2 0.00619
84.25 -0.00149
84.3 -0.00787
84.35 -0.0077
84.4 -0.01051
84.45 -0.01348
84.5 -0.01067
84.55 -0.0091
84.6 -0.01198
84.65 -0.00836
84.7 -0.0056
84.75 -0.00025
84.8 0.00274
84.85 0.00501
84.9 0.00697
84.95 0.00663
85 0.00716
85.05 0.00556
85.1 0.00629
85.15 0.00378
85.2 0.00561
85.25 0.00998
85.3 0.00962
85.35 0.00644
85.4 0.00147
85.45 0.0005
85.5 0.00376
85.55 0.00329
85.6 0.00497
85.65 0.00295
85.7 0.00475
85.75 0.00089
85.8 -0.00467
85.85 -0.00528
85.9 -0.00358
85.95 -0.00206
86 -0.00341
86.05 -0.00088
86.1 0.00072
86.15 0.00055
86.2 -0.0021
86.25 -0.00363
86.3 -0.00639
86.35 -0.00767
86.4 -0.0114
86.45 -0.01327
86.5 -0.01544
86.55 -0.018
86.6 -0.01994
86.65 -0.0182
86.7 -0.01802
86.75 -0.01303
86.8 -0.01342
86.85 -0.01126
86.9 -0.00841
86.95 -0.0093
87 -0.00617
87.05 0.00073
87.1 0.00232
87.15 -0.00034
87.2 0.00104
87.25 -0.00078
87.3 -0.00079
87.35 -0.00075
87.4 0.00201
87.45 0.00608
87.5 0.01156
87.55 0.0095
87.6 0.01087
87.65 0.01015
87.7 0.00601
87.75 0.00743
87.8 0.01063
87.85 0.00789
87.9 0.00646
87.95 0.00312
88 -0.00256
88.05 -0.00285
88.1 -0.00469
88.15 -0.00195
88.2 -0.00459
88.25 -0.00115
88.3 0.00001
88.35 0.00501
88.4 0.01239
88.45 0.01257
88.5 0.01628
88.55 0.01743
88.6 0.01986
88.65 0.01569
88.7 0.01552
88.75 0.00938
88.8 0.00103
88.85 -0.00186
88.9 -0.00358
88.95 -0.0069
89 -0.00955
89.05 -0.01407
89.1 -0.0197
89.15 -0.02278
89.2 -0.01878
89.25 -0.01482
89.3 -0.00876
89.35 -0.00682
89.4 -0.0038
89.45 -0.0004
89.5 0.00192
89.55 0.00386
89.6 0.00294
89.65 0.00268
89.7 0.00495
89.75 0.00338
89.8 0.00232
89.85 -0.00024
89.9 -0.00486
89.95 -0.00365
90 -0.00412
90.05 -0.00556
90.1 -0.00886
90.15 -0.01219
90.2 -0.01785
90.25 -0.02194
90.3 -0.0183
90.35 -0.0101
90.4 0.00034
90.45 0.004
90.5 0.004
90.55 0.00471
90.6 0.00457
90.65 0.00861
90.7 0.00883
90.75 0.0047
90.8 -0.0027
90.85 -0.0028
90.9 -0.00395
90.95 -0.00654
91 -0.00398
91.05 -0.00332
91.1 -0.00299
91.15 -0.00267
91.2 -0.00024
91.25 0.00386
91.3 0.00963
91.35 0.01433
91.4 0.01192
91.45 0.00641
91.5 0.00462
91.55 0.00298
91.6 0.00553
91.65 0.0073
91.7 0.01189
91.75 0.01643
91.8 0.01806
91.85 0.01926
91.9 0.01502
91.95 0.00821
92 0.00121
92.05 -0.00112
92.1 -0.00232
92.15 -0.00635
92.2 -0.00469
92.25 -0.00272
92.3 -0.00353
92.35 0.0006
92.4 -0.00006
92.45 0.00298
92.5 0.00429
92.55 0.00006
92.6 0.00173
92.65 0.00707
92.7 0.01124
92.75 0.01481
92.8 0.01994
92.85 0.01891
92.9 0.0196
92.95 0.01953
93 0.0193
93.05 0.0195
93.1 0.01313
93.15 0.00728
93.2 0.00181
93.25 0.00125
93.3 0.00135
93.35 -0.00121
93.4 -0.00016
93.45 -0.00331
93.5 -0.00677
93.55 -0.00763
93.6 -0.0056
93.65 0.00034
93.7 0.00448
93.75 0.00186
93.8 -0.0043
93.85 -0.01273
93.9 -0.01322
93.95 -0.01651
94 -0.01294
94.05 -0.01038
94.1 -0.00447
94.15 -0.00279
94.2 0.00182
94.25 0.00904
94.3 0.01674
94.35 0.01917
94.4 0.01993
94.45 0.01671
94.5 0.01329
94.55 0.00816
94.6 0.00788
94.65 0.0109
94.7 0.01591
94.75 0.01499
94.8 0.01017
94.85 0.00668
94.9 0.00771
94.95 0.00837
95 0.00761
95.05 0.00303
95.1 0.00236
95.15 -0.0019
95.2 -0.00489
95.25 -0.00225
95.3 -0.00126
95.35 -0.00222
95.4 -0.00687
95.45 -0.00508
95.5 -0.00637
95.55 -0.00739
95.6 -0.01192
95.65 -0.01732
95.7 -0.02375
95.75 -0.02209
95.8 -0.01811
95.85 -0.01601
95.9 -0.01219
95.95 -0.01014
96 -0.00423
96.05 0.00246
96.1 0.00183
96.15 -0.00373
96.2 -0.00625
96.25 -0.00307
96.3 0.00137
96.35 -0.00076
96.4 -0.00347
96.45 -0.00725
96.5 -0.01332
96.55 -0.01937
96.6 -0.02126
96.65 -0.02226
96.7 -0.01814
96.75 -0.01113
96.8 -0.00308
96.85 -0.00143
96.9 -0.00293
96.95 -0.00777
97 -0.01224
97.05 -0.01119
97.1 -0.01404
97.15 -0.01495
97.2 -0.01252
97.25 -0.01136
97.3 -0.00715
97.35 -0.00296
97.4 -0.00232
97.45 -0.00455
97.5 -0.00095
97.55 0.00138
97.6 0.00479
97.65 0.0047
97.7 0.00437
97.75 0.00052
97.8 0.00222
97.85 0.00674
97.9 0.00806
97.95 0.01163
98 0.01563
98.05 0.01852
98.1 0.01953
98.15 0.02274
98.2 0.02448
98.25 0.02422
98.3 0.02251
98.35 0.01987
98.4 0.01524
98.45 0.01429
98.5 0.01205
98.55 0.01136
98.6 0.01329
98.65 0.01544
98.7 0.0122
98.75 0.01178
98.8 0.01103
98.85 0.01189
98.9 0.01421
98.95 0.01222
99 0.01034
99.05 0.00525
99.1 0.00038
99.15 -0.00396
99.2 -0.00564
99.25 -0.00457
99.3 -0.00486
99.35 -0.00748
99.4 -0.00477
99.45 -0.00274
99.5 -0.00149
99.55 -0.00236
99.6 0.0001
99.65 -0.00242
99.7 -0.00794
99.75 -0.01546
99.8 -0.02378
99.85 -0.03191
99.9 -0.03685
99.95 -0.03513
