0 0
0.05 0.00108
0.1 0.00177
0.15 0.00322
0.2 0.00542
0.25 0.00649
0.3 0.00742
0.35 0.00801
0.4 0.00896
0.45 0.00908
0.5 0.00871
0.55 0.00855
0.6 0.0078
0.65 0.00679
0.7 0.00632
0.75 0.00651
0.8 0.00669
0.85 0.00641
0.9 0.00698
0.95 0.00836
1 0.00845
1.05 0.00951
1.1 0.01008
1.15 0.01105
1.2 0.01113
1.25 0.01076
1.3 0.01084
1.35 0.01018
1.4 0.00921
1.45 0.00832
1.5 0.00701
1.55 0.00711
1.6 0.00795
1.65 0.00884
1.7 0.00933
1.75 0.00903
1.8 0.00887
1.85 0.00928
1.9 0.00897
1.95 0.00923
2 0.00862
2.05 0.00825
2.1 0.00863
2.15 0.00887
2.2 0.0091
2.25 0.00814
2.3 0.0077
2.35 0.00724
2.4 0.00694
2.45 0.00704
2.5 0.00652
2.55 0.00642
2.6 0.00709
2.65 0.00818
2.7 0.00886
2.75 0.00923
2.8 0.00848
2.85 0.00785
2.9 0.007
2.95 0.00559
3 0.00377
3.05 0.00309
3.1 0.00334
3.15 0.00325
3.2 0.00406
3.25 0.00383
3.3 0.00395
3.35 0.00471
3.4 0.00484
3.45 0.00522
3.5 0.00578
3.55 0.00528
3.6 0.00541
3.65 0.00539
3.7 0.00544
3.75 0.00607
3.8 0.00613
3.85 0.0065
3.9 0.00599
3.95 0.0053
4 0.00397
4.05 0.00227
4.1 0.00191
4.15 0.00252
4.2 0.00204
4.25 0.00231
4.3 0.00297
4.35 0.00247
4.4 0.00245
4.45 0.00246
4.5 0.00323
4.55 0.00319
4.6 0.00287
4.65 0.0034
4.7 0.00293
4.75 0.00177
4.8 0.00054
4.85 0.00071
4.9 0.00085
4.95 0.00035
5 0.00077
5.05 0.00103
5.1 0.00133
5.15 0.00077
5.2 0.00111
5.25 0.00068
5.3 0.00011
5.35 -0.00026
5.4 -0.00002
5.45 -0.00059
5.5 -0.00005
5.55 0.00024
5.6 0.00096
5.65 0.00059
5.7 0.00023
5.75 0.00061
5.8 0.00028
5.85 -0.00046
5.9 -0.0006
5.95 -0.0003
6 -0.00014
6.05 0.00069
6.1 0.00182
6.15 0.00297
6.2 0.00325
6.25 0.00239
6.3 0.00208
6.35 0.00188
6.4 0.00163
6.45 0.00065
6.5 -0.00066
6.55 -0.00122
6.6 -0.00056
6.65 0.0002
6.7 0.00062
6.75 0.0017
6.8 0.00206
6.85 0.00167
6.9 0.00189
6.95 0.00227
7 0.00293
7.05 0.00373
7.1 0.00426
7.15 0.00501
7.2 0.0044
7.25 0.00356
7.3 0.00204
7.35 0.00104
7.4 0.00009
7.45 -0.00009
7.5 -0.00077
7.55 -0.00028
7.6 -0.00061
7.65 -0.001
7.7 -0.00157
7.75 -0.00188
7.8 -0.00238
7.85 -0.00185
7.9 -0.00181
7.95 -0.00093
8 0.00006
8.05 0.00056
8.1 0.00054
8.15 0.00067
8.2 0.00128
8.25 0.00108
8.3 0.00103
8.35 0.00156
8.4 0.00225
8.45 0.00305
8.5 0.00269
8.55 0.00209
8.6 0.00122
8.65 0.00052
8.7 0.00015
8.75 0.00052
8.8 0.00084
8.85 0.0003
8.9 0.00084
8.95 0.0017
9 0.00226
9.05 0.00225
9.1 0.00303
9.15 0.00382
9.2 0.00424
9.25 0.004
9.3 0.0031
9.35 0.00175
9.4 -0.00012
9.45 -0.00135
9.5 -0.00134
9.55 -0.00123
9.6 -0.00191
9.65 -0.003
9.7 -0.00377
9.75 -0.00426
9.8 -0.00357
9.85 -0.0019
9.9 -0.00104
9.95 0.00015
10 0.00185
10.05 0.00313
10.1 0.00378
10.15 0.00397
10.2 0.00438
10.25 0.0039
10.3 0.00421
10.35 0.00429
10.4 0.00498
10.45 0.00416
10.5 0.00419
10.55 0.00386
10.6 0.00304
10.65 0.00205
10.7 0.00088
10.75 0.00013
10.8 0.00039
10.85 0.00143
10.9 0.00251
10.95 0.00308
11 0.00401
11.05 0.00458
11.1 0.00543
11.15 0.00634
11.2 0.00549
11.25 0.00395
11.3 0.0034
11.35 0.0027
11.4 0.00158
11.45 0.00054
11.5 -0.00076
11.55 -0.00161
11.6 -0.00155
11.65 -0.00112
11.7 -0.00008
11.75 0.00006
11.8 -0.00069
11.85 -0.0002
11.9 0.00017
11.95 0.00049
12 0.00147
12.05 0.00169
12.1 0.00087
12.15 0.0003
12.2 -0.00101
12.25 -0.00114
12.3 -0.00059
12.35 0.00038
12.4 0.00138
12.45 0.00157
12.5 0.00115
12.55 0.00031
12.6 -0.00079
12.65 -0.00074
12.7 0
12.75 0.00074
12.8 0.00125
12.85 0.0005
12.9 0.00068
12.95 0.00047
13 0.00098
13.05 0.00142
13.1 0.00125
13.15 0.00128
13.2 0.00096
13.25 0.00074
13.3 -0.00013
13.35 -0.00071
13.4 -0.0007
13.45 -0.00054
13.5 -0.00118
13.55 -0.00183
13.6 -0.00289
13.65 -0.0041
13.7 -0.00539
13.75 -0.00587
13.8 -0.00493
13.85 -0.00459
13.9 -0.00403
13.95 -0.00371
14 -0.00346
14.05 -0.00216
14.1 -0.00084
14.15 0.00018
14.2 0.00072
14.25 0.00131
14.3 0.00128
14.35 0.00058
14.4 0.00013
14.45 -0.00017
14.5 -0.00027
14.55 -0.00077
14.6 -0.00078
14.65 0.0001
14.7 0.00099
14.75 0.00153
14.8 0.00117
14.85 0.00118
14.9 0.00175
14.95 0.00215
15 0.00256
15.05 0.00246
15.1 0.00152
15.15 0.0013
15.2 0.00138
15.25 0.0019
15.3 0.00239
15.35 0.00232
15.4 0.00263
15.45 0.00229
15.5 0.00234
15.55 0.00302
15.6 0.00279
15.65 0.00223
15.7 0.00078
15.75 -0.0006
15.8 -0.00123
15.85 -0.00138
15.9 -0.00107
15.95 -0.00042
16 -0.00001
16.05 -0.00028
16.1 -0.00045
16.15 0.00034
16.2 0.00005
16.25 0.0007
16.3 0.00179
16.35 0.00245
16.4 0.00174
16.45 0.00123
16.5 0.00062
16.55 -0.00052
16.6 -0.00116
16.65 -0.00101
16.7 -0.00126
16.75 -0.00231
16.8 -0.00236
16.85 -0.00183
16.9 -0.00186
16.95 -0.00191
17 -0.00099
17.05 0.00017
17.1 0.00153
17.15 0.0019
17.2 0.00242
17.25 0.00155
17.3 0.00043
17.35 -0.00003
17.4 -0.00121
17.45 -0.00249
17.5 -0.00258
17.55 -0.00209
17.6 -0.00082
17.65 0.00083
17.7 0.00261
17.75 0.00411
17.8 0.00551
17.85 0.005
17.9 0.00412
17.95 0.00342
18 0.0021
18.05 0.00014
18.1 -0.00127
18.15 -0.00258
18.2 -0.00319
18.25 -0.00389
18.3 -0.00475
18.35 -0.00434
18.4 -0.00305
18.45 -0.00131
18.5 -0.00043
18.55 0.00076
18.6 0.00218
18.65 0.00205
18.7 0.00167
18.75 0.0008
18.8 0.0009
18.85 0.00002
18.9 -0.00075
18.95 -0.00065
19 -0.00146
19.05 -0.00254
19.1 -0.00261
19.15 -0.00182
19.2 -0.00164
19.25 -0.002
19.3 -0.00147
19.35 -0.0007
19.4 -0.00055
19.45 -0.00014
19.5 0.00052
19.55 -0.00004
19.6 -0.00032
19.65 -0.00093
19.7 -0.00103
19.75 -0.00028
19.8 -0.00059
19.85 -0.00035
19.9 -0.0005
19.95 -0.00118
20 -0.00244
20.05 -0.00236
20.1 -0.00167
20.15 -0.00191
20.2 -0.00278
20.25 -0.00341
20.3 -0.00343
20.35 -0.00266
20.4 -0.00152
20.45 -0.00158
20.5 -0.00161
20.55 -0.00067
20.6 -0.00082
20.65 -0.00005
20.7 0.00017
20.75 -0.00001
20.8 -0.00002
20.85 0.00072
20.9 0.00128
20.95 0.00107
21 -0.00003
21.05 -0.00098
21.1 -0.00136
21.15 -0.00207
21.2 -0.00204
21.25 -0.00205
21.3 -0.00236
21.35 -0.00207
21.4 -0.00154
21.45 -0.00088
21.5 0.00042
21.55 0.00041
21.6 0.00086
21.65 0.00086
21.7 0.00115
21.75 0.00152
21.8 0.00247
21.85 0.00299
21.9 0.00324
21.95 0.0024
22 0.00246
22.05 0.00201
22.1 0.00126
22.15 0.00099
22.2 0.00016
22.25 -0.00075
22.3 -0.00176
22.35 -0.00279
22.4 -0.0039
22.45 -0.00446
22.5 -0.00377
22.55 -0.00236
22.6 -0.00091
22.65 0.0006
22.7 0.00079
22.75 0.00064
22.8 0.00065
22.85 -0.00016
22.9 0.00004
22.95 0.00022
23 0.00004
23.05 0.0008
23.1 0.00184
23.15 0.00245
23.2 0.00264
23.25 0.00234
23.3 0.00159
23.35 0.00057
23.4 -0.00065
23.45 -0.00179
23.5 -0.0017
23.55 -0.00189
23.6 -0.00264
23.65 -0.00198
23.7 -0.00146
23.75 -0.00095
23.8 -0.00038
23.85 0.00028
23.9 0.00148
23.95 0.00151
24 0.00188
24.05 0.00166
24.1 0.00177
24.15 0.00087
24.2 -0.00072
24.25 -0.00104
24.3 -0.00071
24.35 -0.00005
24.4 0.0006
24.45 0.00127
24.5 0.00096
24.55 0.00018
24.6 0.00036
24.65 0.00017
24.7 0.00054
24.75 0.00002
24.8 -0.00065
24.85 -0.00122
24.9 -0.00163
24.95 -0.00169
25 -0.00123
25.05 -0.00073
25.1 -0.00115
25.15 -0.00113
25.2 -0.00153
25.25 -0.00099
25.3 0.00023
25.35 0.00147
25.4 0.00192
25.45 0.0028
25.5 0.00269
25.55 0.00223
25.6 0.00223
25.65 0.00188
25.7 0.0023
25.75 0.00148
25.8 0.00102
25.85 0.00065
25.9 -0.00014
25.95 -0.0009
26 -0.0015
26.05 -0.00239
26.1 -0.00335
26.15 -0.00359
26.2 -0.00383
26.25 -0.0035
26.3 -0.00343
26.35 -0.00351
26.4 -0.00274
26.45 -0.00129
26.5 -0.00037
26.55 0.00011
26.6 0.00041
26.65 -0.00006
26.7 -0.00061
26.75 -0.00085
26.8 -0.00102
26.85 -0.0005
26.9 -0.00019
26.95 -0.00035
27 0.00045
27.05 0.00045
27.1 0.00001
27.15 0.00052
27.2 0.00109
27.25 0.00164
27.3 0.00208
27.35 0.00258
27.4 0.00341
27.45 0.00364
27.5 0.00352
27.55 0.00255
27.6 0.00119
27.65 0.00109
27.7 0.00126
27.75 0.00216
27.8 0.00193
27.85 0.00234
27.9 0.00327
27.95 0.00321
28 0.00192
28.05 0.00033
28.1 -0.00056
28.15 -0.0012
28.2 -0.00095
28.25 0.00018
28.3 0.00034
28.35 0.00117
28.4 0.00222
28.45 0.00274
28.5 0.00281
28.55 0.00198
28.6 0.00039
28.65 -0.00015
28.7 0.00027
28.75 0.00103
28.8 0.00206
28.85 0.00285
28.9 0.00215
28.95 0.00134
29 0.00009
29.05 -0.0012
29.1 -0.00262
29.15 -0.00357
29.2 -0.00373
29.25 -0.00391
29.3 -0.00325
29.35 -0.00227
29.4 -0.00149
29.45 -0.00144
29.5 -0.00184
29.55 -0.00211
29.6 -0.00268
29.65 -0.00283
29.7 -0.00278
29.75 -0.00189
29.8 -0.00108
29.85 -0.00009
29.9 -0.0002
29.95 -0.00052
30 -0.00006
30.05 -0.00032
30.1 -0.00066
30.15 -0.00174
30.2 -0.00206
30.25 -0.00202
30.3 -0.00207
30.35 -0.00257
30.4 -0.00217
30.45 -0.00163
30.5 -0.00073
30.55 0.00065
30.6 0.00111
30.65 0.00129
30.7 0.00133
30.75 0.00139
30.8 0.00064
30.85 0.00011
30.9 0.00049
30.95 0.00094
31 0.00173
31.05 0.00299
31.1 0.00433
31.15 0.00392
31.2 0.00284
31.25 0.00118
31.3 0.00028
31.35 -0.0013
31.4 -0.00225
31.45 -0.00214
31.5 -0.00114
31.55 0.00017
31.6 0.00097
31.65 0.00186
31.7 0.00314
31.75 0.00423
31.8 0.00455
31.85 0.00477
31.9 0.00442
31.95 0.00458
32 0.00506
32.05 0.00485
32.1 0.00488
32.15 0.0038
32.2 0.00182
32.25 0.00023
32.3 0.00006
32.35 -0.00107
32.4 -0.0015
32.45 -0.00098
32.5 0.00019
32.55 0.0001
32.6 0.00055
32.65 0.00132
32.7 0.00163
32.75 0.00133
32.8 0.00107
32.85 -0.0002
32.9 -0.00061
32.95 -0.0014
33 -0.00194
33.05 -0.00201
33.1 -0.00133
33.15 -0.00092
33.2 -0.00085
33.25 -0.00012
33.3 -0.00012
33.35 0.00064
33.4 0.00134
33.45 0.00108
33.5 0.00054
33.55 -0.00083
33.6 -0.00137
33.65 -0.00245
33.7 -0.00252
33.75 -0.00319
33.8 -0.00404
33.85 -0.00345
33.9 -0.00293
33.95 -0.00311
34 -0.00328
34.05 -0.00315
34.1 -0.00242
34.15 -0.00226
34.2 -0.00282
34.25 -0.00244
34.3 -0.00232
34.35 -0.00261
34.4 -0.00303
34.45 -0.00297
34.5 -0.00248
34.55 -0.00139
34.6 -0.00147
34.65 -0.00066
34.7 0.00016
34.75 0.00151
34.8 0.00206
34.85 0.00136
34.9 0.00127
34.95 0.00119
35 0.00113
35.05 0.00066
35.1 0.00042
35.15 0.00108
35.2 0.00197
35.25 0.0029
35.3 0.004
35.35 0.00501
35.4 0.00562
35.45 0.0052
35.5 0.0037
35.55 0.00203
35.6 0.001
35.65 0.00059
35.7 0.00028
35.75 -0.00082
35.8 -0.00059
35.85 -0.00013
35.9 -0.0003
35.95 -0.00113
36 -0.00136
36.05 -0.0013
36.1 -0.00061
36.15 -0.00097
36.2 -0.00164
36.25 -0.00207
36.3 -0.00139
36.35 -0.00064
36.4 -0.00101
36.45 -0.0003
36.5 -0.00021
36.55 -0.00101
36.6 -0.00131
36.65 -0.00095
36.7 0.00018
36.75 0.00056
36.8 0.00106
36.85 0.00113
36.9 0.00181
36.95 0.00275
37 0.00265
37.05 0.003
37.1 0.00271
37.15 0.00293
37.2 0.00322
37.25 0.00233
37.3 0.0008
37.35 -0.00021
37.4 -0.00176
37.45 -0.00231
37.5 -0.00267
37.55 -0.0024
37.6 -0.00181
37.65 -0.00098
37.7 -0.00076
37.75 -0.0015
37.8 -0.0016
37.85 -0.0024
37.9 -0.00211
37.95 -0.00213
38 -0.00134
38.05 -0.00154
38.1 -0.00238
38.15 -0.00194
38.2 -0.00219
38.25 -0.00143
38.3 -0.00115
38.35 -0.00172
38.4 -0.00214
38.45 -0.00276
38.5 -0.00224
38.55 -0.00103
38.6 0.00016
38.65 0.00022
38.7 -0.00019
38.75 -0.00079
38.8 -0.00032
38.85 0.00079
38.9 0.00213
38.95 0.00206
39 0.00151
39.05 0.00056
39.1 -0.00054
39.15 -0.00033
39.2 0.00065
39.25 0.00167
39.3 0.00222
39.35 0.00141
39.4 0.00102
39.45 0.00101
39.5 0.00153
39.55 0.00104
39.6 -0.00014
39.65 -0.00107
39.7 -0.00249
39.75 -0.00286
39.8 -0.00247
39.85 -0.00243
39.9 -0.00274
39.95 -0.00319
40 -0.00333
40.05 -0.00244
40.1 -0.00263
40.15 -0.00291
40.2 -0.00377
40.25 -0.00484
40.3 -0.00446
40.35 -0.00304
40.4 -0.00137
40.45 -0.00063
40.5 -0.00071
40.55 -0.00106
40.6 -0.00168
40.65 -0.00241
40.7 -0.00174
40.75 -0.00104
40.8 0.00044
40.85 0.00163
40.9 0.00222
40.95 0.00274
41 0.00189
41.05 0.0019
41.1 0.0026
41.15 0.00318
41.2 0.00394
41.25 0.00437
41.3 0.00355
41.35 0.00234
41.4 0.00063
41.45 -0.00072
41.5 -0.00135
41.55 -0.00091
41.6 -0.00089
41.65 0.00004
41.7 0.00064
41.75 0.00165
41.8 0.00251
41.85 0.00333
41.9 0.00422
41.95 0.00423
42 0.00433
42.05 0.00305
42.1 0.00114
42.15 0
42.2 -0.00088
42.25 -0.002
42.3 -0.0018
42.35 -0.00151
42.4 -0.00146
42.45 -0.00167
42.5 -0.00214
42.55 -0.00281
42.6 -0.00273
42.65 -0.00258
42.7 -0.00319
42.75 -0.00368
42.8 -0.00279
42.85 -0.00196
42.9 -0.00129
42.95 -0.00044
43 -0.0005
43.05 -0.00038
43.1 -0.00091
43.15 -0.0013
43.2 -0.00108
43.25 -0.0006
43.3 0
43.35 0.00022
43.4 0.00125
43.45 0.00089
43.5 0.00145
43.55 0.00073
43.6 -0.00051
43.65 -0.00097
43.7 -0.00172
43.75 -0.00155
43.8 -0.00194
43.85 -0.00285
43.9 -0.0031
43.95 -0.00255
44 -0.00179
44.05 -0.00183
44.1 -0.00102
44.15 0.00049
44.2 0.00205
44.25 0.00288
44.3 0.0032
44.35 0.00393
44.4 0.00467
44.45 0.00451
44.5 0.00328
44.55 0.00204
44.6 0.00136
44.65 0.00041
44.7 0.00052
44.75 0.00112
44.8 0.00145
44.85 0.00156
44.9 0.00054
44.95 -0.00099
45 -0.00175
45.05 -0.00161
45.1 -0.00079
45.15 0.00011
45.2 0.00149
45.25 0.00238
45.3 0.00181
45.35 0.00045
45.4 -0.00006
45.45 -0.00126
45.5 -0.00205
45.55 -0.00247
45.6 -0.00193
45.65 -0.00189
45.7 -0.00081
45.75 0.00077
45.8 0.00121
45.85 0.00139
45.9 0.00082
45.95 0.00079
46 0.00118
46.05 0.00041
46.1 -0.00028
46.15 0.0001
46.2 -0.0001
46.25 0.00027
46.3 0.00061
46.35 0.00096
46.4 0.00159
46.45 0.00252
46.5 0.00249
46.55 0.00231
46.6 0.00225
46.65 0.00266
46.7 0.003
46.75 0.00334
46.8 0.00307
46.85 0.00269
46.9 0.00133
46.95 -0.00048
47 -0.00238
47.05 -0.00301
47.1 -0.00295
47.15 -0.00331
47.2 -0.00399
47.25 -0.00399
47.3 -0.00382
47.35 -0.00261
47.4 -0.00118
47.45 0.00035
47.5 0.00119
47.55 0.00152
47.6 0.00109
47.65 0.00132
47.7 0.00135
47.75 0.00161
47.8 0.00098
47.85 0.00053
47.9 0.00081
47.95 0.00088
48 0.00172
48.05 0.00281
48.1 0.00229
48.15 0.00226
48.2 0.00274
48.25 0.00226
48.3 0.00094
48.35 -0.0002
48.4 -0.00094
48.45 -0.00165
48.5 -0.0016
48.55 -0.0013
48.6 -0.0017
48.65 -0.0021
48.7 -0.00288
48.75 -0.00276
48.8 -0.0018
48.85 -0.0009
48.9 -0.00034
48.95 0.00043
49 -0.00001
49.05 -0.00093
49.1 -0.00142
49.15 -0.00117
49.2 -0.00006
49.25 -0.0003
49.3 -0.00079
49.35 -0.00045
49.4 -0.00045
49.45 -0.00036
49.5 -0.00065
49.55 0.00009
49.6 0.00035
49.65 0.0005
49.7 0.00074
49.75 0.00134
49.8 0.0007
49.85 -0.00042
49.9 -0.00037
49.95 -0.00108
50 -0.00096
50.05 -0.00022
50.1 -0.00046
50.15 -0.00022
50.2 0.00027
50.25 0.00086
50.3 0.00179
50.35 0.00211
50.4 0.00166
50.45 0.00186
50.5 0.00199
50.55 0.00201
50.6 0.0024
50.65 0.00145
50.7 0.00009
50.75 -0.00038
50.8 -0.00104
50.85 -0.00178
50.9 -0.00268
50.95 -0.00251
51 -0.0016
51.05 -0.00114
51.1 -0.00153
51.15 -0.00217
51.2 -0.00279
51.25 -0.0035
51.3 -0.00296
51.35 -0.00195
51.4 -0.00112
51.45 0.00007
51.5 0.00091
51.55 0.00124
51.6 0.00111
51.65 0.00002
51.7 -0.00105
51.75 -0.00202
51.8 -0.0016
51.85 -0.00117
51.9 -0.00088
51.95 -0.00155
52 -0.00204
52.05 -0.00252
52.1 -0.00262
52.15 -0.00159
52.2 0.00002
52.25 0.00048
52.3 0.00104
52.35 0.00217
52.4 0.00199
52.45 0.00218
52.5 0.00256
52.55 0.00268
52.6 0.00232
52.65 0.00244
52.7 0.00223
52.75 0.00191
52.8 0.00123
52.85 0.00017
52.9 -0.00066
52.95 -0.00141
53 -0.00202
53.05 -0.0032
53.1 -0.00354
53.15 -0.00268
53.2 -0.00186
53.25 -0.00071
53.3 0.00025
53.35 0.0013
53.4 0.00192
53.45 0.00148
53.5 0.00011
53.55 -0.00173
53.6 -0.00323
53.65 -0.00443
53.7 -0.00551
53.75 -0.00605
53.8 -0.00694
53.85 -0.00672
53.9 -0.00615
53.95 -0.00592
54 -0.00587
54.05 -0.00574
54.1 -0.00602
54.15 -0.00643
54.2 -0.00824
54.25 -0.01082
54.3 -0.01344
54.35 -0.01689
54.4 -0.02085
54.45 -0.02457
54.5 -0.02872
54.55 -0.0339
54.6 -0.04026
54.65 -0.04778
54.7 -0.05655
54.75 -0.06599
54.8 -0.0774
54.85 -0.09007
54.9 -0.10374
54.95 -0.11767
55 -0.13341
55.05 -0.15001
55.1 -0.1685
55.15 -0.18864
55.2 -0.21002
55.25 -0.23257
55.3 -0.25526
55.35 -0.27976
55.4 -0.30477
55.45 -0.33041
55.5 -0.35789
55.55 -0.38572
55.6 -0.41342
55.65 -0.44047
55.7 -0.46734
55.75 -0.49286
55.8 -0.51688
55.85 -0.53872
55.9 -0.55859
55.95 -0.57586
56 -0.58933
56.05 -0.60025
56.1 -0.60849
56.15 -0.61321
56.2 -0.61269
56.25 -0.60714
56.3 -0.59629
56.35 -0.58218
56.4 -0.56287
56.45 -0.53878
56.5 -0.51111
56.55 -0.48023
56.6 -0.44708
56.65 -0.41134
56.7 -0.37265
56.75 -0.3307
56.8 -0.28587
56.85 -0.23951
56.9 -0.19341
56.95 -0.14736
57 -0.10053
57.05 -0.05433
57.1 -0.00794
57.15 0.03682
57.2 0.08047
57.25 0.1228
57.3 0.16361
57.35 0.20235
57.4 0.23716
57.45 0.26886
57.5 0.2972
57.55 0.32394
57.6 0.3484
57.65 0.37023
57.7 0.39059
57.75 0.40783
57.8 0.42285
57.85 0.43599
57.9 0.44833
57.95 0.45805
58 0.46743
58.05 0.47464
58.1 0.48076
58.15 0.4847
58.2 0.4871
58.25 0.48813
58.3 0.48835
58.35 0.48807
58.4 0.48633
58.45 0.48371
58.5 0.48107
58.55 0.47796
58.6 0.47443
58.65 0.46867
58.7 0.46304
58.75 0.45608
58.8 0.44888
58.85 0.44024
58.9 0.43214
58.95 0.42263
59 0.41377
59.05 0.40441
59.1 0.39416
59.15 0.38468
59.2 0.37561
59.25 0.36587
59.3 0.35517
59.35 0.34489
59.4 0.33484
59.45 0.32539
59.5 0.31589
59.55 0.3054
59.6 0.29523
59.65 0.28478
59.7 0.27407
59.75 0.26403
59.8 0.2549
59.85 0.24488
59.9 0.23559
59.95 0.2258
60 0.217
60.05 0.20918
60.1 0.20112
60.15 0.19287
60.2 0.18548
60.25 0.17833
60.3 0.17112
60.35 0.16494
60.4 0.15914
60.45 0.15281
60.5 0.14558
60.55 0.13865
60.6 0.13262
60.65 0.12697
60.7 0.12009
60.75 0.11398
60.8 0.10838
60.85 0.1029
60.9 0.09645
60.95 0.09036
61 0.08488
61.05 0.07979
61.1 0.07499
61.15 0.06994
61.2 0.06494
61.25 0.05899
61.3 0.0521
61.35 0.04484
61.4 0.03742
61.45 0.03164
61.5 0.02576
61.55 0.02085
61.6 0.01688
61.65 0.01329
61.7 0.00984
61.75 0.00621
61.8 0.00297
61.85 -0.00076
61.9 -0.00488
61.95 -0.00846
62 -0.01304
62.05 -0.01775
62.1 -0.02153
62.15 -0.02634
62.2 -0.03146
62.25 -0.03623
62.3 -0.04072
62.35 -0.0443
62.4 -0.04679
62.45 -0.04838
62.5 -0.05036
62.55 -0.05276
62.6 -0.0542
62.65 -0.05631
62.7 -0.05745
62.75 -0.05851
62.8 -0.05972
62.85 -0.0603
62.9 -0.06231
62.95 -0.06361
63 -0.06493
63.05 -0.06557
63.1 -0.06685
63.15 -0.06751
63.2 -0.06782
63.25 -0.06796
63.3 -0.06838
63.35 -0.06934
63.4 -0.06991
63.45 -0.06983
63.5 -0.07062
63.55 -0.07104
63.6 -0.07123
63.65 -0.0723
63.7 -0.07347
63.75 -0.07319
63.8 -0.07294
63.85 -0.07219
63.9 -0.07138
63.95 -0.07041
64 -0.0698
64.05 -0.06921
64.1 -0.06852
64.15 -0.06875
64.2 -0.06918
64.25 -0.06893
64.3 -0.0691
64.35 -0.06824
64.4 -0.06733
64.45 -0.06711
64.5 -0.06739
64.55 -0.06637
64.6 -0.06602
64.65 -0.06587
64.7 -0.06576
64.75 -0.0656
64.8 -0.0654
64.85 -0.06431
64.9 -0.06199
64.95 -0.05955
65 -0.05718
65.05 -0.05601
65.1 -0.05483
65.15 -0.05324
65.2 -0.05195
65.25 -0.05183
65.3 -0.05168
65.35 -0.05154
65.4 -0.05139
65.45 -0.05068
65.5 -0.05031
65.55 -0.05048
65.6 -0.04915
65.65 -0.04846
65.7 -0.04825
65.75 -0.04704
65.8 -0.04663
65.85 -0.04575
65.9 -0.0443
65.95 -0.04302
66 -0.04186
66.05 -0.04001
66.1 -0.03828
66.15 -0.03781
66.2 -0.03723
66.25 -0.0374
66.3 -0.03666
66.35 -0.03639
66.4 -0.03534
66.45 -0.03413
66.5 -0.03351
66.55 -0.03396
66.6 -0.03362
66.65 -0.03298
66.7 -0.03264
66.75 -0.0318
66.8 -0.03086
66.85 -0.03043
66.9 -0.03028
66.95 -0.03004
67 -0.0294
67.05 -0.02866
67.1 -0.0286
67.15 -0.02793
67.2 -0.02815
67.25 -0.02776
67.3 -0.02647
67.35 -0.02599
67.4 -0.02476
67.45 -0.02486
67.5 -0.02414
67.55 -0.02277
67.6 -0.02284
67.65 -0.02233
67.7 -0.02138
67.75 -0.02115
67.8 -0.02162
67.85 -0.02267
67.9 -0.02271
67.95 -0.02275
68 -0.02284
68.05 -0.02336
68.1 -0.0242
68.15 -0.02509
68.2 -0.02427
68.25 -0.02423
68.3 -0.02361
68.35 -0.02359
68.4 -0.02223
68.45 -0.02079
68.5 -0.01877
68.55 -0.01762
68.6 -0.01745
68.65 -0.01783
68.7 -0.01816
68.75 -0.0181
68.8 -0.01705
68.85 -0.01718
68.9 -0.01673
68.95 -0.01687
69 -0.01761
69.05 -0.01783
69.1 -0.01724
69.15 -0.01714
69.2 -0.01676
69.25 -0.01667
69.3 -0.01622
69.35 -0.01633
69.4 -0.01611
69.45 -0.01559
69.5 -0.01493
69.55 -0.01376
69.6 -0.01322
69.65 -0.01233
69.7 -0.01139
69.75 -0.01099
69.8 -0.01096
69.85 -0.01182
69.9 -0.01228
69.95 -0.01162
70 -0.01178
70.05 -0.01215
70.1 -0.01288
70.15 -0.0136
70.2 -0.0142
70.25 -0.01336
70.3 -0.01201
70.35 -0.01036
70.4 -0.00962
70.45 -0.00825
70.5 -0.00663
70.55 -0.00635
70.6 -0.00559
70.65 -0.00528
70.7 -0.00545
70.75 -0.00664
70.8 -0.0075
70.85 -0.00877
70.9 -0.01017
70.95 -0.01111
71 -0.01094
71.05 -0.0112
71.1 -0.01039
71.15 -0.01023
71.2 -0.01022
71.25 -0.00991
71.3 -0.0103
71.35 -0.00973
71.4 -0.00936
71.45 -0.0083
71.5 -0.00831
71.55 -0.00907
71.6 -0.00976
71.65 -0.00912
71.7 -0.00891
71.75 -0.00763
71.8 -0.00736
71.85 -0.00612
71.9 -0.00553
71.95 -0.0047
72 -0.00481
72.05 -0.00517
72.1 -0.00485
72.15 -0.00521
72.2 -0.00607
72.25 -0.00617
72.3 -0.00541
72.35 -0.00417
72.4 -0.00426
72.45 -0.0052
72.5 -0.00529
72.55 -0.00462
72.6 -0.00334
72.65 -0.00354
72.7 -0.00281
72.75 -0.0017
72.8 -0.0017
72.85 -0.00137
72.9 -0.00076
72.95 -0.00049
73 -0.00113
73.05 -0.00232
73.1 -0.00284
73.15 -0.00279
73.2 -0.00246
73.25 -0.00165
73.3 -0.00115
73.35 -0.00179
73.4 -0.00291
73.45 -0.00307
73.5 -0.00398
73.55 -0.0038
73.6 -0.00334
73.65 -0.00285
73.7 -0.00194
73.75 -0.00228
73.8 -0.00175
73.85 -0.00182
73.9 -0.00248
73.95 -0.00357
74 -0.00462
74.05 -0.00591
74.1 -0.006
74.15 -0.00617
74.2 -0.00586
74.25 -0.00483
74.3 -0.00439
74.35 -0.00364
74.4 -0.003
74.45 -0.00187
74.5 -0.00099
74.55 0.00022
74.6 -0.00018
74.65 -0.00035
74.7 0.00017
74.75 0.0005
74.8 0.00052
74.85 -0.0006
74.9 -0.00239
74.95 -0.00331
75 -0.00335
75.05 -0.00363
75.1 -0.00466
75.15 -0.00452
75.2 -0.00369
75.25 -0.00369
75.3 -0.00402
75.35 -0.00417
75.4 -0.00457
75.45 -0.00482
75.5 -0.00534
75.55 -0.00464
75.6 -0.00444
75.65 -0.00321
75.7 -0.00312
75.75 -0.00283
75.8 -0.00336
75.85 -0.00331
75.9 -0.00396
75.95 -0.00492
76 -0.00438
76.05 -0.00362
76.1 -0.00224
76.15 -0.00226
76.2 -0.00213
76.25 -0.00114
76.3 0.0001
76.35 0.00154
76.4 0.0028
76.45 0.00257
76.5 0.00181
76.55 0.00109
76.6 0.00066
76.65 0.0011
76.7 0.00133
76.75 0.00035
76.8 0.00032
76.85 0.00016
76.9 -0.00098
76.95 -0.00112
77 -0.00115
77.05 -0.00138
77.1 -0.00064
77.15 -0.00059
77.2 0.0002
77.25 0.0014
77.3 0.00275
77.35 0.00394
77.4 0.00349
77.45 0.0031
77.5 0.0025
77.55 0.00113
77.6 -0.00039
77.65 -0.00114
77.7 -0.0011
77.75 -0.00028
77.8 0.00045
77.85 0.00068
77.9 0.00155
77.95 0.00165
78 0.00109
78.05 0.00083
78.1 -0.00015
78.15 -0.00003
78.2 -0.0001
78.25 -0.00075
78.3 -0.001
78.35 -0.00182
78.4 -0.00312
78.45 -0.00418
78.5 -0.00443
78.55 -0.00347
78.6 -0.00224
78.65 -0.00107
78.7 -0.00124
78.75 -0.00073
78.8 -0.00012
78.85 0.00016
78.9 0.00023
78.95 0.0004
79 0.00021
79.05 -0.00008
79.1 -0.00096
79.15 -0.00245
79.2 -0.00296
79.25 -0.00302
79.3 -0.00274
79.35 -0.00191
79.4 -0.00049
79.45 0.0007
79.5 0.00152
79.55 0.00226
79.6 0.00259
79.65 0.00157
79.7 0.00146
79.75 0.00135
79.8 0.0005
79.85 -0.00003
79.9 -0.00134
79.95 -0.00209
80 -0.00325
80.05 -0.00318
80.1 -0.00238
80.15 -0.0019
80.2 -0.0017
80.25 -0.00209
80.3 -0.00182
80.35 -0.00137
80.4 -0.00062
80.45 -0.0011
80.5 -0.00136
80.55 -0.00176
80.6 -0.00134
80.65 -0.00142
80.7 -0.00154
80.75 -0.00206
80.8 -0.00145
80.85 -0.00101
80.9 0.00011
80.95 0.00101
81 0.00098
81.05 0.00127
81.1 0.00216
81.15 0.0027
81.2 0.00184
81.25 0.00158
81.3 0.00032
81.35 -0.00143
81.4 -0.00282
81.45 -0.00416
81.5 -0.00541
81.55 -0.00547
81.6 -0.00557
81.65 -0.00508
81.7 -0.0037
81.75 -0.00246
81.8 -0.00219
81.85 -0.00274
81.9 -0.00325
81.95 -0.00309
82 -0.00359
82.05 -0.00329
82.1 -0.00354
82.15 -0.00292
82.2 -0.00252
82.25 -0.00181
82.3 -0.00146
82.35 -0.00036
82.4 -0.00018
82.45 0.00036
82.5 0.00107
82.55 0.00096
82.6 0.00004
82.65 -0.00063
82.7 -0.00029
82.75 0.00014
82.8 0.00027
82.85 -0.00003
82.9 0.00014
82.95 0.0007
83 0.00021
83.05 -0.00047
83.1 -0.00178
83.15 -0.0026
83.2 -0.00244
83.25 -0.00279
83.3 -0.00224
83.35 -0.00184
83.4 -0.00191
83.45 -0.00115
83.5 -0.00109
83.55 -0.00017
83.6 0.00036
83.65 0.00119
83.7 0.00093
83.75 0.00015
83.8 0.00056
83.85 0.0002
83.9 0.00044
83.95 0.00029
84 0.00087
84.05 0.00025
84.1 0.00069
84.15 0.0013
84.2 0.00177
84.25 0.0019
84.3 0.00226
84.35 0.00294
84.4 0.00349
84.45 0.0038
84.5 0.00354
84.55 0.00387
84.6 0.00355
84.65 0.0038
84.7 0.00315
84.75 0.00162
84.8 -0.00026
84.85 -0.00146
84.9 -0.0013
84.95 -0.0015
85 -0.00119
85.05 -0.00074
85.1 -0.00031
85.15 -0.00089
85.2 -0.00051
85.25 -0.00106
85.3 -0.00166
85.35 -0.00211
85.4 -0.00134
85.45 0.0001
85.5 0.00092
85.55 0.00219
85.6 0.00298
85.65 0.00326
85.7 0.00231
85.75 0.00116
85.8 -0.00003
85.85 -0.00037
85.9 -0.00046
85.95 -0.00087
86 -0.00072
86.05 -0.00057
86.1 -0.00094
86.15 -0.00025
86.2 -0.0001
86.25 -0.00075
86.3 -0.00036
86.35 0.00043
86.4 0.00012
86.45 -0.00064
86.5 -0.0003
86.55 -0.0006
86.6 -0.00122
86.65 -0.00093
86.7 0.00001
86.75 -0.00033
86.8 0.00036
86.85 0.00095
86.9 0.00078
86.95 0.00014
87 -0.00078
87.05 -0.00112
87.1 -0.00223
87.15 -0.00345
87.2 -0.00314
87.25 -0.00217
87.3 -0.00163
87.35 -0.002
87.4 -0.00124
87.45 -0.00143
87.5 -0.00157
87.55 -0.00211
87.6 -0.00207
87.65 -0.00141
87.7 -0.00011
87.75 0.00146
87.8 0.00271
87.85 0.00329
87.9 0.00355
87.95 0.00321
88 0.00299
88.05 0.00218
88.1 0.00177
88.15 0.00203
88.2 0.00112
88.25 0.00089
88.3 -0.00004
88.35 -0.00138
88.4 -0.00307
88.45 -0.00364
88.5 -0.00461
88.55 -0.00548
88.6 -0.00569
88.65 -0.00614
88.7 -0.00632
88.75 -0.00529
88.8 -0.00373
88.85 -0.00164
88.9 0.00031
88.95 0.00218
89 0.0028
89.05 0.00267
89.1 0.00152
89.15 0.00065
89.2 -0.00035
89.25 -0.00039
89.3 -0.00054
89.35 -0.00109
89.4 -0.0008
89.45 -0.00114
89.5 -0.00209
89.55 -0.00295
89.6 -0.00404
89.65 -0.00356
89.7 -0.00248
89.75 -0.00135
89.8 -0.00148
89.85 -0.00049
89.9 -0.00068
89.95 -0.00117
90 -0.00063
90.05 0.0004
90.1 0.00106
90.15 0.001
90.2 0.00073
90.25 0.00057
90.3 0.00097
90.35 0.00186
90.4 0.00178
90.45 0.00111
90.5 0.00086
90.55 0.00034
90.6 0.00044
90.65 0.00013
90.7 0.00023
90.75 0.00106
90.8 0.00056
90.85 0.00045
90.9 0.00104
90.95 0.00038
91 0.00025
91.05 -0.00025
91.1 0.00006
91.15 0.00021
91.2 0.00074
91.25 0.00148
91.3 0.0009
91.35 0.00129
91.4 0.00228
91.45 0.00219
91.5 0.00177
91.55 0.00131
91.6 0.00083
91.65 0.00078
91.7 0.00113
91.75 0.00082
91.8 0.0014
91.85 0.0013
91.9 0.00156
91.95 0.00249
92 0.00201
92.05 0.00066
92.1 -0.00078
92.15 -0.00259
92.2 -0.00331
92.25 -0.00373
92.3 -0.00434
92.35 -0.00531
92.4 -0.00572
92.45 -0.00489
92.5 -0.0041
92.55 -0.0042
92.6 -0.00399
92.65 -0.00292
92.7 -0.00285
92.75 -0.00277
92.8 -0.00212
92.85 -0.00211
92.9 -0.00199
92.95 -0.00261
93 -0.0022
93.05 -0.00187
93.1 -0.00227
93.15 -0.00187
93.2 -0.002
93.25 -0.00206
93.3 -0.00164
93.35 -0.00167
93.4 -0.00074
93.45 0.00004
93.5 0.00126
93.55 0.00253
93.6 0.00359
93.65 0.00418
93.7 0.00342
93.75 0.00216
93.8 0.00067
93.85 -0.00109
93.9 -0.00198
93.95 -0.00214
94 -0.00177
94.05 -0.00067
94.1 0.00045
94.15 0.00099
94.2 0.00207
94.25 0.0027
94.3 0.00358
94.35 0.00327
94.4 0.00331
94.45 0.00237
94.5 0.00108
94.55 0.00039
94.6 0.00062
94.65 0.0016
94.7 0.00267
94.75 0.00374
94.8 0.00491
94.85 0.00558
94.9 0.00608
94.95 0.00657
95 0.00576
95.05 0.00474
95.1 0.00274
95.15 0.00047
95.2 -0.00162
95.25 -0.00311
95.3 -0.00366
95.35 -0.00312
95.4 -0.00237
95.45 -0.00246
95.5 -0.00246
95.55 -0.00249
95.6 -0.00326
95.65 -0.00301
95.7 -0.00337
95.75 -0.00329
95.8 -0.00318
95.85 -0.00315
95.9 -0.00251
95.95 -0.00284
96 -0.00219
96.05 -0.00094
96.1 -0.00082
96.15 -0.00147
96.2 -0.00152
96.25 -0.00169
96.3 -0.00149
96.35 -0.0007
96.4 0.00081
96.45 0.00085
96.5 0.00136
96.55 0.00223
96.6 0.00278
96.65 0.00331
96.7 0.00316
96.75 0.003
96.8 0.00335
96.85 0.00361
96.9 0.00292
96.95 0.0029
97 0.00185
97.05 0.00096
97.1 -0.00061
97.15 -0.00101
97.2 -0.00118
97.25 -0.00049
97.3 0.00073
97.35 0.00204
97.4 0.00332
97.45 0.00406
97.5 0.00323
97.55 0.00328
97.6 0.00262
97.65 0.00116
97.7 0.00102
97.75 0.00142
97.8 0.00171
97.85 0.00259
97.9 0.00206
97.95 0.00109
98 0.00035
98.05 -0.00063
98.1 -0.00134
98.15 -0.00173
98.2 -0.00256
98.25 -0.00209
98.3 -0.00121
98.35 -0.00056
98.4 0.0001
98.45 0.00021
98.5 0.00034
98.55 0.00033
98.6 0.00074
98.65 0.00164
98.7 0.00146
98.75 0.00058
98.8 0.00052
98.85 -0.00044
98.9 -0.00198
98.95 -0.00324
99 -0.00425
99.05 -0.00537
99.1 -0.00603
99.15 -0.00555
99.2 -0.00399
99.25 -0.00252
99.3 -0.00087
99.35 0.001
99.4 0.00228
99.45 0.00212
99.5 0.00178
99.55 0.00131
99.6 0.00003
99.65 -0.00161
99.7 -0.00223
99.75 -0.00182
99.8 -0.00163
99.85 -0.00124
99.9 -0.00182
99.95 -0.00141
