0 0
0.05 0.00039
0.1 0.00069
0.15 0.00104
0.2 0.00129
0.25 0.00144
0.3 0.00178
0.35 0.00212
0.4 0.0024
0.45 0.00251
0.5 0.00245
0.55 0.0022
0.6 0.00189
0.65 0.00181
0.7 0.00174
0.75 0.00181
0.8 0.00191
0.85 0.00179
0.9 0.00184
0.95 0.00197
1 0.00223
1.05 0.00233
1.1 0.00251
1.15 0.00274
1.2 0.00284
1.25 0.00293
1.3 0.00281
1.35 0.00269
1.4 0.0025
1.45 0.00215
1.5 0.002
1.55 0.002
1.6 0.00189
1.65 0.00178
1.7 0.00164
1.75 0.00161
1.8 0.00159
1.85 0.00151
1.9 0.00163
1.95 0.00154
2 0.00148
2.05 0.00147
2.1 0.00149
2.15 0.00159
2.2 0.00159
2.25 0.00156
2.3 0.00162
2.35 0.0015
2.4 0.00148
2.45 0.00148
2.5 0.00159
2.55 0.00145
2.6 0.00127
2.65 0.00098
2.7 0.00082
2.75 0.00076
2.8 0.00078
2.85 0.00072
2.9 0.00079
2.95 0.0008
3 0.00062
3.05 0.00053
3.1 0.0007
3.15 0.00084
3.2 0.0009
3.25 0.00078
3.3 0.00075
3.35 0.00067
3.4 0.00057
3.45 0.0004
3.5 0.00025
3.55 0.00036
3.6 0.00031
3.65 0.00021
3.7 0.00031
3.75 0.00047
3.8 0.00062
3.85 0.00071
3.9 0.00057
3.95 0.00055
4 0.00065
4.05 0.00073
4.1 0.00087
4.15 0.00104
4.2 0.00128
4.25 0.00124
4.3 0.00123
4.35 0.00131
4.4 0.00132
4.45 0.00122
4.5 0.00095
4.55 0.00066
4.6 0.00056
4.65 0.00044
4.7 0.00038
4.75 0.00047
4.8 0.00068
4.85 0.00073
4.9 0.00077
4.95 0.00081
5 0.00088
5.05 0.00076
5.1 0.0005
5.15 0.00035
5.2 0.00044
5.25 0.0003
5.3 0.00008
5.35 0.00014
5.4 0.00031
5.45 0.00058
5.5 0.00075
5.55 0.00077
5.6 0.00074
5.65 0.00073
5.7 0.00081
5.75 0.00074
5.8 0.00056
5.85 0.00057
5.9 0.00052
5.95 0.00039
6 0.00013
6.05 -0.00015
6.1 -0.00022
6.15 -0.00014
6.2 -0.00016
6.25 0.00004
6.3 0.00029
6.35 0.00055
6.4 0.00078
6.45 0.00074
6.5 0.00069
6.55 0.00045
6.6 0.00008
6.65 -0.00012
6.7 -0.00026
6.75 -0.00051
6.8 -0.00076
6.85 -0.001
6.9 -0.00086
6.95 -0.0005
7 -0.00011
7.05 0.00019
7.1 0.00059
7.15 0.00089
7.2 0.00104
7.25 0.00113
7.3 0.00117
7.35 0.00106
7.4 0.00106
7.45 0.00097
7.5 0.00092
7.55 0.00075
7.6 0.00072
7.65 0.00072
7.7 0.00073
7.75 0.00055
7.8 0.00026
7.85 0.00023
7.9 0.00017
7.95 0.00026
8 0.0003
8.05 0.00013
8.1 -0.00004
8.15 -0.00024
8.2 -0.00015
8.25 0.00003
8.3 0.00008
8.35 0.00029
8.4 0.00058
8.45 0.0007
8.5 0.00079
8.55 0.00073
8.6 0.00068
8.65 0.00047
8.7 0.00023
8.75 0.0001
8.8 0.00007
8.85 0.00021
8.9 0.00009
8.95 0.00003
9 0.00001
9.05 -0.0001
9.1 -0.00036
9.15 -0.00064
9.2 -0.00084
9.25 -0.00076
9.3 -0.00072
9.35 -0.00073
9.4 -0.0007
9.45 -0.00069
9.5 -0.00069
9.55 -0.00053
9.6 -0.00053
9.65 -0.00057
9.7 -0.00049
9.75 -0.0003
9.8 -0.00015
9.85 0.00004
9.9 0.00001
9.95 -0.0001
10 -0.00029
10.05 -0.0005
10.1 -0.00056
10.15 -0.00073
10.2 -0.00071
10.25 -0.00079
10.3 -0.00087
10.35 -0.0008
10.4 -0.00058
10.45 -0.00054
10.5 -0.00052
10.55 -0.00047
10.6 -0.00051
10.65 -0.00057
10.7 -0.00044
10.75 -0.00045
10.8 -0.00059
10.85 -0.00057
10.9 -0.00062
10.95 -0.00072
11 -0.00052
11.05 -0.00051
11.1 -0.00045
11.15 -0.00044
11.2 -0.00037
11.25 -0.00033
11.3 -0.00032
11.35 -0.00033
11.4 -0.00046
11.45 -0.00048
11.5 -0.00045
11.55 -0.00052
11.6 -0.00069
11.65 -0.00065
11.7 -0.00067
11.75 -0.00071
11.8 -0.00074
11.85 -0.00068
11.9 -0.00039
11.95 -0.00001
12 0.00031
12.05 0.00042
12.1 0.00041
12.15 0.00055
12.2 0.00059
12.25 0.00044
12.3 0.0004
12.35 0.00031
12.4 0.00038
12.45 0.00034
12.5 0.00028
12.55 0.00019
12.6 0.00032
12.65 0.00031
12.7 0.00028
12.75 0.00009
12.8 0.00011
12.85 -0.00003
12.9 -0.00025
12.95 -0.00024
13 -0.00032
13.05 -0.00037
13.1 -0.0005
13.15 -0.0007
13.2 -0.00076
13.25 -0.00077
13.3 -0.00054
13.35 -0.00028
13.4 -0
13.45 0.0001
13.5 0.00035
13.55 0.00068
13.6 0.00085
13.65 0.00096
13.7 0.00099
13.75 0.00105
13.8 0.0009
13.85 0.00089
13.9 0.00092
13.95 0.00074
14 0.00052
14.05 0.00047
14.1 0.00036
14.15 0.00029
14.2 0.00015
14.25 0.00015
14.3 0.0003
14.35 0.00041
14.4 0.00029
14.45 0.00001
14.5 0.00005
14.55 0.00026
14.6 0.00033
14.65 0.00017
14.7 0.00023
14.75 0.00021
14.8 0.00015
14.85 0.00005
14.9 0.00005
14.95 -0.00011
15 -0.00033
15.05 -0.00061
15.1 -0.00074
15.15 -0.00087
15.2 -0.00095
15.25 -0.00075
15.3 -0.00038
15.35 -0.00001
15.4 0.00036
15.45 0.00062
15.5 0.00093
15.55 0.001
15.6 0.00081
15.65 0.00076
15.7 0.00076
15.75 0.00076
15.8 0.00072
15.85 0.00055
15.9 0.00032
15.95 0.0002
16 0.00006
16.05 -0.00005
16.1 0.00002
16.15 0.0001
16.2 -0.00004
16.25 -0.00003
16.3 0.00007
16.35 0.00022
16.4 0.00051
16.45 0.00083
16.5 0.00116
16.55 0.00119
16.6 0.00103
16.65 0.00081
16.7 0.00068
16.75 0.0007
16.8 0.00075
16.85 0.00061
16.9 0.00062
16.95 0.00048
17 0.00053
17.05 0.00061
17.1 0.00075
17.15 0.00075
17.2 0.00056
17.25 0.00049
17.3 0.00035
17.35 0.00019
17.4 0.00012
17.45 0.00014
17.5 0.00005
17.55 0.00005
17.6 -0.0001
17.65 -0.00025
17.7 -0.00038
17.75 -0.00037
17.8 -0.00016
17.85 -0.00011
17.9 -0.00024
17.95 -0.00048
18 -0.00055
18.05 -0.0006
18.1 -0.00063
18.15 -0.00078
18.2 -0.00073
18.25 -0.00068
18.3 -0.00057
18.35 -0.0005
18.4 -0.00021
18.45 0
18.5 0.00025
18.55 0.00034
18.6 0.00028
18.65 0.00007
18.7 0.00007
18.75 -0.0001
18.8 -0.00037
18.85 -0.00037
18.9 -0.0005
18.95 -0.00072
19 -0.00079
19.05 -0.00092
19.1 -0.00085
19.15 -0.00092
19.2 -0.00099
19.25 -0.00092
19.3 -0.00079
19.35 -0.00051
19.4 -0.00021
19.45 0.00014
19.5 0.00032
19.55 0.0005
19.6 0.00061
19.65 0.00083
19.7 0.001
19.75 0.00088
19.8 0.00086
19.85 0.00062
19.9 0.00051
19.95 0.0004
20 0.0002
20.05 0.00018
20.1 -0
20.15 -0.00003
20.2 0.0001
20.25 0.00025
20.3 0.00051
20.35 0.00083
20.4 0.00105
20.45 0.00124
20.5 0.00145
20.55 0.00129
20.6 0.00125
20.65 0.00097
20.7 0.00054
20.75 0.00025
20.8 0.00023
20.85 0.00022
20.9 0.00027
20.95 0.00012
21 -0.00008
21.05 -0.00029
21.1 -0.00046
21.15 -0.0004
21.2 -0.00039
21.25 -0.00036
21.3 -0.00043
21.35 -0.00051
21.4 -0.00034
21.45 -0.00002
21.5 0.00022
21.55 0.00026
21.6 0.00005
21.65 -0.00008
21.7 -0.00022
21.75 -0.00019
21.8 -0.00019
21.85 -0.00029
21.9 -0.00016
21.95 -0.00002
22 0.00021
22.05 0.0002
22.1 0.00019
22.15 0.0002
22.2 0.00001
22.25 -0.00015
22.3 -0.00006
22.35 -0.0001
22.4 -0.00016
22.45 -0.00003
22.5 0.00017
22.55 0.00043
22.6 0.00061
22.65 0.00058
22.7 0.00052
22.75 0.00026
22.8 -0.00003
22.85 -0.00014
22.9 -0.00035
22.95 -0.00031
23 -0.00013
23.05 0.00009
23.1 0.00004
23.15 0.00016
23.2 0.00004
23.25 -0.00024
23.3 -0.00044
23.35 -0.00042
23.4 -0.00048
23.45 -0.00046
23.5 -0.00047
23.55 -0.00028
23.6 -0.00005
23.65 0.00024
23.7 0.00052
23.75 0.00067
23.8 0.00076
23.85 0.00085
23.9 0.00078
23.95 0.00071
24 0.00068
24.05 0.00057
24.1 0.00062
24.15 0.00052
24.2 0.00041
24.25 0.00021
24.3 -0.00001
24.35 -0.00026
24.4 -0.00026
24.45 -0.00035
24.5 -0.00039
24.55 -0.00033
24.6 -0.0004
24.65 -0.00054
24.7 -0.00049
24.75 -0.0006
24.8 -0.00073
24.85 -0.00084
24.9 -0.001
24.95 -0.00108
25 -0.00092
25.05 -0.00074
25.1 -0.00061
25.15 -0.00054
25.2 -0.00044
25.25 -0.00038
25.3 -0.00026
25.35 -0.00014
25.4 -0.00023
25.45 -0.00047
25.5 -0.00056
25.55 -0.00051
25.6 -0.00045
25.65 -0.00031
25.7 -0.00011
25.75 -0.00002
25.8 -0.00004
25.85 -0.00012
25.9 0.00002
25.95 0.00023
26 0.00022
26.05 0.00029
26.1 0.0002
26.15 0.00013
26.2 -0.00002
26.25 -0.00004
26.3 -0.00005
26.35 -0.00019
26.4 -0.00043
26.45 -0.00055
26.5 -0.00067
26.55 -0.0006
26.6 -0.00061
26.65 -0.00073
26.7 -0.00083
26.75 -0.00063
26.8 -0.00063
26.85 -0.00069
26.9 -0.00069
26.95 -0.00052
27 -0.00019
27.05 0.00007
27.1 0.00014
27.15 0.00033
27.2 0.00028
27.25 0.00012
27.3 0.0001
27.35 -0.00005
27.4 -0.0001
27.45 -0.00018
27.5 -0.00005
27.55 0.00022
27.6 0.00048
27.65 0.00042
27.7 0.00028
27.75 0.00023
27.8 0.00018
27.85 0.00006
27.9 -0.00016
27.95 -0.00046
28 -0.00048
28.05 -0.00038
28.1 -0.00028
28.15 -0.00003
28.2 0.0001
28.25 0.00018
28.3 0.00022
28.35 0.00017
28.4 0.00012
28.45 0.00005
28.5 -0.0001
28.55 -0
28.6 0.00015
28.65 0.00005
28.7 0.00009
28.75 0.00015
28.8 0.00024
28.85 0.00021
28.9 0.00011
28.95 -0.00003
29 -0.00018
29.05 -0.00031
29.1 -0.0003
29.15 -0.0003
29.2 -0.00044
29.25 -0.00034
29.3 -0.00025
29.35 -0.00015
29.4 -0.00011
29.45 -0.00026
29.5 -0.00051
29.55 -0.00074
29.6 -0.00069
29.65 -0.0006
29.7 -0.00037
29.75 -0.00013
29.8 0.00024
29.85 0.00028
29.9 0.00045
29.95 0.00065
30 0.00068
30.05 0.0007
30.1 0.00067
30.15 0.00045
30.2 0.00046
30.25 0.00058
30.3 0.00075
30.35 0.00084
30.4 0.00074
30.45 0.00062
30.5 0.00051
30.55 0.00048
30.6 0.00037
30.65 0.00026
30.7 0.00014
30.75 -0.00003
30.8 -0.00016
30.85 -0.00012
30.9 0.00001
30.95 -0.00008
31 -0.00012
31.05 -0.00023
31.1 -0.0001
31.15 0.00003
31.2 0.00025
31.25 0.00038
31.3 0.00026
31.35 0.00026
31.4 0.00011
31.45 0.00006
31.5 -0.00006
31.55 -0.00031
31.6 -0.00055
31.65 -0.00056
31.7 -0.00069
31.75 -0.00055
31.8 -0.00055
31.85 -0.00036
31.9 -0.00036
31.95 -0.00019
32 0.00009
32.05 0.00009
32.1 0.00002
32.15 0.00002
32.2 0.00004
32.25 0.00004
32.3 0.00002
32.35 -0.00015
32.4 -0.00009
32.45 -0.00023
32.5 -0.00018
32.55 -0.00013
32.6 -0.00024
32.65 -0.00027
32.7 -0.00014
32.75 -0.00005
32.8 -0.00013
32.85 -0.00009
32.9 0.00013
32.95 0.0004
33 0.00069
33.05 0.00102
33.1 0.00108
33.15 0.00109
33.2 0.00114
33.25 0.00098
33.3 0.00065
33.35 0.0005
33.4 0.00044
33.45 0.00024
33.5 0.00011
33.55 0.00007
33.6 -0.00009
33.65 -0.00027
33.7 -0.00055
33.75 -0.0006
33.8 -0.00045
33.85 -0.00035
33.9 -0.00043
33.95 -0.00047
34 -0.00056
34.05 -0.00074
34.1 -0.00065
34.15 -0.00055
34.2 -0.00053
34.25 -0.00041
34.3 -0.00015
34.35 0.00015
34.4 0.00016
34.45 0.00029
34.5 0.0005
34.55 0.00044
34.6 0.00023
34.65 0.00026
34.7 0.00017
34.75 0.00006
34.8 -0.00011
34.85 -0.0001
34.9 0.00001
34.95 -0.00009
35 -0.00028
35.05 -0.00053
35.1 -0.00067
35.15 -0.00052
35.2 -0.00041
35.25 -0.00018
35.3 -0.0002
35.35 -0.0001
35.4 -0.0001
35.45 -0.00005
35.5 0.00009
35.55 0.00009
35.6 0.00018
35.65 0.00006
35.7 0.00007
35.75 0
35.8 -0.00013
35.85 -0.00011
35.9 -0.00016
35.95 -0.00022
36 -0.00013
36.05 -0.00003
36.1 0.00003
36.15 0.00006
36.2 0.00021
36.25 0.00014
36.3 -0.00001
36.35 -0.00015
36.4 -0.00011
36.45 -0.00006
36.5 0.00002
36.55 0.00001
36.6 0.00007
36.65 -0.00009
36.7 -0.00028
36.75 -0.00023
36.8 -0.00022
36.85 -0.00005
36.9 0.00023
36.95 0.00059
37 0.00075
37.05 0.00086
37.1 0.00091
37.15 0.00074
37.2 0.00062
37.25 0.00064
37.3 0.00039
37.35 0.00018
37.4 -0.00003
37.45 -0.00013
37.5 -0.0001
37.55 0.00001
37.6 -0.00008
37.65 -0.00024
37.7 -0.00056
37.75 -0.00079
37.8 -0.00106
37.85 -0.00145
37.9 -0.00208
37.95 -0.00269
38 -0.00335
38.05 -0.00397
38.1 -0.00454
38.15 -0.00539
38.2 -0.00621
38.25 -0.00728
38.3 -0.00862
38.35 -0.00999
38.4 -0.01157
38.45 -0.01334
38.5 -0.01524
38.55 -0.01725
38.6 -0.01945
38.65 -0.02197
38.7 -0.02453
38.75 -0.02751
38.8 -0.03077
38.85 -0.03398
38.9 -0.03729
38.95 -0.04071
39 -0.04432
39.05 -0.04808
39.1 -0.05179
39.15 -0.05548
39.2 -0.05932
39.25 -0.06284
39.3 -0.06624
39.35 -0.06926
39.4 -0.07181
39.45 -0.07413
39.5 -0.07605
39.55 -0.07766
39.6 -0.07883
39.65 -0.07922
39.7 -0.07889
39.75 -0.07793
39.8 -0.07662
39.85 -0.07471
39.9 -0.07247
39.95 -0.06982
40 -0.06673
40.05 -0.06331
40.1 -0.0597
40.15 -0.05581
40.2 -0.05175
40.25 -0.04779
40.3 -0.04376
40.35 -0.04016
40.4 -0.03659
40.45 -0.03333
40.5 -0.03035
40.55 -0.02798
40.6 -0.0262
40.65 -0.02506
40.7 -0.02424
40.75 -0.02378
40.8 -0.02368
40.85 -0.02403
40.9 -0.02473
40.95 -0.02578
41 -0.02683
41.05 -0.0281
41.1 -0.02924
41.15 -0.03034
41.2 -0.03136
41.25 -0.03205
41.3 -0.03241
41.35 -0.03273
41.4 -0.03247
41.45 -0.03171
41.5 -0.03066
41.55 -0.02921
41.6 -0.02723
41.65 -0.02448
41.7 -0.02108
41.75 -0.01712
41.8 -0.01289
41.85 -0.00814
41.9 -0.00305
41.95 0.00249
42 0.00825
42.05 0.01421
42.1 0.02065
42.15 0.0272
42.2 0.03383
42.25 0.0406
42.3 0.04726
42.35 0.05367
42.4 0.0598
42.45 0.06568
42.5 0.07132
42.55 0.07657
42.6 0.08151
42.65 0.08601
42.7 0.0904
42.75 0.0946
42.8 0.09848
42.85 0.10175
42.9 0.10485
42.95 0.10756
43 0.10966
43.05 0.11128
43.1 0.11279
43.15 0.11392
43.2 0.11477
43.25 0.11531
43.3 0.11528
43.35 0.11477
43.4 0.11398
43.45 0.11321
43.5 0.11235
43.55 0.11125
43.6 0.10974
43.65 0.10776
43.7 0.10573
43.75 0.10369
43.8 0.10128
43.85 0.09878
43.9 0.09608
43.95 0.09327
44 0.09018
44.05 0.08723
44.1 0.08405
44.15 0.08068
44.2 0.07723
44.25 0.07383
44.3 0.07055
44.35 0.06711
44.4 0.06371
44.45 0.06053
44.5 0.05718
44.55 0.0539
44.6 0.05056
44.65 0.04713
44.7 0.04379
44.75 0.0404
44.8 0.03708
44.85 0.03381
44.9 0.0309
44.95 0.02814
45 0.0254
45.05 0.02296
45.1 0.02048
45.15 0.01795
45.2 0.0155
45.25 0.01304
45.3 0.01055
45.35 0.0082
45.4 0.00604
45.45 0.00386
45.5 0.00199
45.55 0.0002
45.6 -0.00152
45.65 -0.00302
45.7 -0.00439
45.75 -0.00569
45.8 -0.00689
45.85 -0.00828
45.9 -0.00969
45.95 -0.01109
46 -0.01218
46.05 -0.01319
46.1 -0.01415
46.15 -0.01512
46.2 -0.01585
46.25 -0.0166
46.3 -0.01735
46.35 -0.01803
46.4 -0.01839
46.45 -0.01858
46.5 -0.01882
46.55 -0.01913
46.6 -0.01956
46.65 -0.01985
46.7 -0.01985
46.75 -0.01976
46.8 -0.01991
46.85 -0.01988
46.9 -0.01984
46.95 -0.0197
47 -0.01955
47.05 -0.01932
47.1 -0.01908
47.15 -0.0189
47.2 -0.01875
47.25 -0.0187
47.3 -0.01868
47.35 -0.0185
47.4 -0.01848
47.45 -0.01854
47.5 -0.01869
47.55 -0.01875
47.6 -0.01879
47.65 -0.01885
47.7 -0.0189
47.75 -0.01875
47.8 -0.01848
47.85 -0.01829
47.9 -0.018
47.95 -0.01753
48 -0.01699
48.05 -0.01666
48.1 -0.0165
48.15 -0.01647
48.2 -0.01647
48.25 -0.01635
48.3 -0.01623
48.35 -0.01598
48.4 -0.01564
48.45 -0.01541
48.5 -0.01503
48.55 -0.01457
48.6 -0.01401
48.65 -0.01355
48.7 -0.01315
48.75 -0.01286
48.8 -0.01249
48.85 -0.01238
48.9 -0.01218
48.95 -0.01194
49 -0.01158
49.05 -0.01134
49.1 -0.01102
49.15 -0.01087
49.2 -0.01065
49.25 -0.01057
49.3 -0.01045
49.35 -0.01057
49.4 -0.01048
49.45 -0.01027
49.5 -0.00995
49.55 -0.00974
49.6 -0.00959
49.65 -0.00935
49.7 -0.00925
49.75 -0.00919
49.8 -0.00933
49.85 -0.00944
49.9 -0.00943
49.95 -0.00937
50 -0.00936
50.05 -0.00945
50.1 -0.00955
50.15 -0.00933
50.2 -0.00915
50.25 -0.00906
50.3 -0.00907
50.35 -0.00895
50.4 -0.00866
50.45 -0.00827
50.5 -0.00795
50.55 -0.0075
50.6 -0.00708
50.65 -0.00687
50.7 -0.00652
50.75 -0.00618
50.8 -0.00607
50.85 -0.00596
50.9 -0.00609
50.95 -0.00612
51 -0.00612
51.05 -0.00598
51.1 -0.00588
51.15 -0.0059
51.2 -0.00594
51.25 -0.00584
51.3 -0.00578
51.35 -0.00576
51.4 -0.00575
51.45 -0.00584
51.5 -0.00593
51.55 -0.00574
51.6 -0.00575
51.65 -0.00567
51.7 -0.00537
51.75 -0.00508
51.8 -0.00486
51.85 -0.00473
51.9 -0.00444
51.95 -0.00426
52 -0.00433
52.05 -0.00418
52.1 -0.00412
52.15 -0.00418
52.2 -0.00405
52.25 -0.00387
52.3 -0.00387
52.35 -0.00383
52.4 -0.00379
52.45 -0.00389
52.5 -0.00379
52.55 -0.00391
52.6 -0.00412
52.65 -0.0042
52.7 -0.00421
52.75 -0.0043
52.8 -0.00411
52.85 -0.00378
52.9 -0.00363
52.95 -0.00345
53 -0.00342
53.05 -0.00323
53.1 -0.0033
53.15 -0.00325
53.2 -0.00313
53.25 -0.00302
53.3 -0.00309
53.35 -0.00314
53.4 -0.00333
53.45 -0.00326
53.5 -0.00309
53.55 -0.00282
53.6 -0.0028
53.65 -0.0026
53.7 -0.00265
53.75 -0.00255
53.8 -0.00237
53.85 -0.00242
53.9 -0.00229
53.95 -0.00232
54 -0.00241
54.05 -0.00248
54.1 -0.0024
54.15 -0.00248
54.2 -0.00255
54.25 -0.00263
54.3 -0.00269
54.35 -0.00286
54.4 -0.0029
54.45 -0.00294
54.5 -0.00307
54.55 -0.0031
54.6 -0.003
54.65 -0.00288
54.7 -0.0027
54.75 -0.00239
54.8 -0.00216
54.85 -0.00204
54.9 -0.00189
54.95 -0.00163
55 -0.00157
55.05 -0.00142
55.1 -0.00117
55.15 -0.00096
55.2 -0.00106
55.25 -0.00108
55.3 -0.00116
55.35 -0.00143
55.4 -0.00142
55.45 -0.00142
55.5 -0.00139
55.55 -0.00148
55.6 -0.00138
55.65 -0.00127
55.7 -0.00122
55.75 -0.00114
55.8 -0.00114
55.85 -0.00117
55.9 -0.00119
55.95 -0.00122
56 -0.00141
56.05 -0.0015
56.1 -0.00161
56.15 -0.00163
56.2 -0.00179
56.25 -0.00172
56.3 -0.00168
56.35 -0.00172
56.4 -0.00172
56.45 -0.00176
56.5 -0.00169
56.55 -0.00168
56.6 -0.00159
56.65 -0.00138
56.7 -0.00106
56.75 -0.00103
56.8 -0.00114
56.85 -0.00105
56.9 -0.00111
56.95 -0.00123
57 -0.00131
57.05 -0.00124
57.1 -0.00135
57.15 -0.00138
57.2 -0.00122
57.25 -0.00095
57.3 -0.00082
57.35 -0.00058
57.4 -0.00034
57.45 -0.00026
57.5 -0.0001
57.55 -0.00003
57.6 -0.00005
57.65 -0.00005
57.7 -0.0003
57.75 -0.00061
57.8 -0.00089
57.85 -0.00098
57.9 -0.0012
57.95 -0.00134
58 -0.0012
58.05 -0.00087
58.1 -0.00077
58.15 -0.00073
58.2 -0.00063
58.25 -0.00053
58.3 -0.00028
58.35 -0.00031
58.4 -0.00042
58.45 -0.00051
58.5 -0.00065
58.55 -0.00083
58.6 -0.00085
58.65 -0.00092
58.7 -0.00085
58.75 -0.00088
58.8 -0.00094
58.85 -0.00109
58.9 -0.00129
58.95 -0.00134
59 -0.0012
59.05 -0.00124
59.1 -0.00134
59.15 -0.00126
59.2 -0.00097
59.25 -0.00054
59.3 -0.00039
59.35 -0.00029
59.4 -0.00004
59.45 0.00023
59.5 0.00034
59.55 0.00055
59.6 0.00055
59.65 0.0006
59.7 0.00066
59.75 0.0008
59.8 0.00063
59.85 0.0003
59.9 -0.00009
59.95 -0.00047
60 -0.00053
60.05 -0.0006
60.1 -0.0008
60.15 -0.00104
60.2 -0.00121
60.25 -0.00109
60.3 -0.0008
60.35 -0.00039
60.4 -0.00026
60.45 -0.00032
60.5 -0.00028
60.55 -0.0002
60.6 -0.00003
60.65 -0.00004
60.7 -0.00024
60.75 -0.00045
60.8 -0.00068
60.85 -0.00074
60.9 -0.00081
60.95 -0.00081
61 -0.00081
61.05 -0.00081
61.1 -0.00072
61.15 -0.00064
61.2 -0.00042
61.25 -0.00041
61.3 -0.00022
61.35 -0.00028
61.4 -0.00034
61.45 -0.0003
61.5 -0.00033
61.55 -0.00026
61.6 -0.00019
61.65 -0.0002
61.7 -0.00012
61.75 -0.00016
61.8 -0.0002
61.85 -0.00013
61.9 0.00008
61.95 0.00026
62 0.00043
62.05 0.00053
62.1 0.00049
62.15 0.00043
62.2 0.00044
62.25 0.0002
62.3 -0.00017
62.35 -0.00057
62.4 -0.00089
62.45 -0.00087
62.5 -0.00068
62.55 -0.00056
62.6 -0.00053
62.65 -0.00043
62.7 -0.00044
62.75 -0.00032
62.8 -0.00008
62.85 0.00006
62.9 0.00014
62.95 0.00021
63 0.00038
63.05 0.00036
63.1 0.00045
63.15 0.00064
63.2 0.00088
63.25 0.00105
63.3 0.00115
63.35 0.00126
63.4 0.0014
63.45 0.00133
63.5 0.00121
63.55 0.00099
63.6 0.0007
63.65 0.00048
63.7 0.00015
63.75 -0.00023
63.8 -0.00046
63.85 -0.00069
63.9 -0.00064
63.95 -0.00073
64 -0.00068
64.05 -0.0008
64.1 -0.0007
64.15 -0.00042
64.2 -0.00038
64.25 -0.00024
64.3 -0.00021
64.35 -0.00015
64.4 -0.00018
64.45 -0.00019
64.5 -0.00027
64.55 -0.00033
64.6 -0.00047
64.65 -0.00046
64.7 -0.00031
64.75 -0.00034
64.8 -0.00042
64.85 -0.00032
64.9 -0.0001
64.95 0.00008
65 0.00012
65.05 0.00001
65.1 -0.00019
65.15 -0.00047
65.2 -0.00078
65.25 -0.00097
65.3 -0.00097
65.35 -0.00076
65.4 -0.00061
65.45 -0.00049
65.5 -0.00024
65.55 0
65.6 0.00015
65.65 0.00015
65.7 0.0003
65.75 0.00039
65.8 0.00053
65.85 0.00057
65.9 0.00074
65.95 0.00061
66 0.0005
66.05 0.00033
66.1 0.00001
66.15 -0.00003
66.2 0.00013
66.25 0.00006
66.3 -0.0002
66.35 -0.0003
66.4 -0.0002
66.45 -0.00023
66.5 -0.00038
66.55 -0.00059
66.6 -0.00074
66.65 -0.00059
66.7 -0.00061
66.75 -0.00065
66.8 -0.0008
66.85 -0.0009
66.9 -0.00089
66.95 -0.00067
67 -0.00029
67.05 -0.0002
67.1 -0.00027
67.15 -0.00018
67.2 -0.00003
67.25 0.00001
67.3 0.00013
67.35 0.00028
67.4 0.00016
67.45 0.00026
67.5 0.00032
67.55 0.00045
67.6 0.00034
67.65 0.00011
67.7 0.00014
67.75 0.00025
67.8 0.00028
67.85 0.0004
67.9 0.00039
67.95 0.00017
68 0.00005
68.05 -0.00018
68.1 -0.0004
68.15 -0.00045
68.2 -0.00045
68.25 -0.00059
68.3 -0.00069
68.35 -0.00053
68.4 -0.00058
68.45 -0.00071
68.5 -0.00086
68.55 -0.00084
68.6 -0.00065
68.65 -0.00047
68.7 -0.00044
68.75 -0.00034
68.8 -0.0004
68.85 -0.00038
68.9 -0.00014
68.95 0.00011
69 0.00018
69.05 0.00035
69.1 0.0003
69.15 0.00015
69.2 -0.00014
69.25 -0.00013
69.3 -0.00005
69.35 0.00018
69.4 0.00046
69.45 0.0005
69.5 0.00061
69.55 0.00067
69.6 0.00056
69.65 0.00032
69.7 0.00004
69.75 0.00001
69.8 -0.00012
69.85 -0.00005
69.9 -0.00016
69.95 -0.00034
70 -0.00041
70.05 -0.00053
70.1 -0.00039
70.15 -0.00036
70.2 -0.0005
70.25 -0.00062
70.3 -0.00054
70.35 -0.00051
70.4 -0.00041
70.45 -0.00013
70.5 0.0001
70.55 0.00031
70.6 0.00048
70.65 0.00068
70.7 0.00059
70.75 0.00053
70.8 0.0003
70.85 0.00027
70.9 0.00039
70.95 0.00028
71 0.00025
71.05 0.00039
71.1 0.00064
71.15 0.00068
71.2 0.00068
71.25 0.00079
71.3 0.00066
71.35 0.00068
71.4 0.00078
71.45 0.00061
71.5 0.00033
71.55 0.00026
71.6 0.00019
71.65 0.00015
71.7 0.00016
71.75 0.00026
71.8 0.00031
71.85 0.00027
71.9 0.00029
71.95 0.00019
72 0.00006
72.05 -0.00016
72.1 -0.00038
72.15 -0.00036
72.2 -0.00038
72.25 -0.0004
72.3 -0.00024
72.35 -0.00018
72.4 -0.0003
72.45 -0.00047
72.5 -0.0006
72.55 -0.00079
72.6 -0.00101
72.65 -0.001
72.7 -0.00087
72.75 -0.00054
72.8 -0.00047
72.85 -0.0003
72.9 -0.00025
72.95 -0.00002
73 -0
73.05 0.0002
73.1 0.00032
73.15 0.00054
73.2 0.00046
73.25 0.00044
73.3 0.00042
73.35 0.00024
73.4 -0.00007
73.45 -0.00016
73.5 -0.00012
73.55 -0.00015
73.6 -0.00004
73.65 0.00016
73.7 0.00019
73.75 0.00037
73.8 0.00027
73.85 0.00029
73.9 0.00017
73.95 0.00018
74 -0.00004
74.05 -0.00022
74.1 -0.00027
74.15 -0.00018
74.2 -0.00021
74.25 -0.00025
74.3 -0.00013
74.35 0.00004
74.4 0.00001
74.45 -0.0001
74.5 -0.00016
74.55 -0.0002
74.6 -0.00004
74.65 0.00021
74.7 0.00044
74.75 0.00044
74.8 0.00042
74.85 0.00045
74.9 0.00053
74.95 0.00057
75 0.0006
75.05 0.0005
75.1 0.00034
75.15 0.00009
75.2 -0.00025
75.25 -0.0003
75.3 -0.00042
75.35 -0.00064
75.4 -0.00056
75.45 -0.00036
75.5 -0.00007
75.55 0.00021
75.6 0.00055
75.65 0.00068
75.7 0.00066
75.75 0.00076
75.8 0.00092
75.85 0.00112
75.9 0.00096
75.95 0.00081
76 0.00054
76.05 0.00012
76.1 -0.00005
76.15 -0.00015
76.2 -0.00003
76.25 0.00022
76.3 0.00028
76.35 0.00029
76.4 0.00009
76.45 0.00009
76.5 -0.00002
76.55 -0.00017
76.6 -0.00022
76.65 -0.00044
76.7 -0.00055
76.75 -0.00055
76.8 -0.00051
76.85 -0.00044
76.9 -0.00036
76.95 -0.00036
77 -0.00033
77.05 -0.00022
77.1 -0.00022
77.15 -0.00029
77.2 -0.00049
77.25 -0.00068
77.3 -0.00081
77.35 -0.00075
77.4 -0.00074
77.45 -0.00054
77.5 -0.00035
77.55 -0.00041
77.6 -0.00028
77.65 -0.00021
77.7 -0.00026
77.75 -0.0003
77.8 -0.00038
77.85 -0.00044
77.9 -0.0006
77.95 -0.00061
78 -0.00046
78.05 -0.00034
78.1 -0.00009
78.15 0.0001
78.2 0.00011
78.25 -0
78.3 0
78.35 -0.00018
78.4 -0.00048
78.45 -0.00073
78.5 -0.00079
78.55 -0.00072
78.6 -0.00076
78.65 -0.00061
78.7 -0.00038
78.75 -0.0002
78.8 -0.00001
78.85 -0.00005
78.9 -0.00013
78.95 -0.00028
79 -0.0005
79.05 -0.0004
79.1 -0.00042
79.15 -0.00019
79.2 0.00012
79.25 0.00042
79.3 0.00074
79.35 0.00088
79.4 0.00089
79.45 0.0009
79.5 0.00068
79.55 0.00033
79.6 -0.0001
79.65 -0.00041
79.7 -0.00038
79.75 -0.00027
79.8 -0.00033
79.85 -0.00036
79.9 -0.0005
79.95 -0.00063
80 -0.00066
80.05 -0.00044
80.1 -0.00013
80.15 0.0001
80.2 0.00015
80.25 -0.00001
80.3 -0.0002
80.35 -0.00035
80.4 -0.00034
80.45 -0.00018
80.5 -0.00024
80.55 -0.00041
80.6 -0.00029
80.65 -0.00027
80.7 -0.00029
80.75 -0.0002
80.8 -0.00031
80.85 -0.00018
80.9 -0.00012
80.95 -0.00017
81 -0.00022
81.05 -0.00039
81.1 -0.00062
81.15 -0.00055
81.2 -0.00058
81.25 -0.00045
81.3 -0.00017
81.35 -0.00004
81.4 0.00017
81.45 0.00049
81.5 0.00072
81.55 0.00062
81.6 0.00067
81.65 0.00077
81.7 0.00072
81.75 0.00068
81.8 0.00067
81.85 0.0007
81.9 0.00048
81.95 0.0004
82 0.00034
82.05 0.00045
82.1 0.00065
82.15 0.00078
82.2 0.00072
82.25 0.00074
82.3 0.00085
82.35 0.00072
82.4 0.00041
82.45 0.00019
82.5 -0.00004
82.55 -0.00012
82.6 -0.0003
82.65 -0.0004
82.7 -0.00031
82.75 -0.00023
82.8 -0.00033
82.85 -0.00053
82.9 -0.00045
82.95 -0.00032
83 -0.00028
83.05 -0.00034
83.1 -0.00049
83.15 -0.00056
83.2 -0.0006
83.25 -0.00054
83.3 -0.00045
83.35 -0.00022
83.4 -0.00023
83.45 -0.00023
83.5 -0.00031
83.55 -0.00038
83.6 -0.00021
83.65 0.00006
83.7 0.00034
83.75 0.00043
83.8 0.00047
83.85 0.00059
83.9 0.00046
83.95 0.0002
84 0.00021
84.05 0.00014
84.1 0
84.15 -0.00027
84.2 -0.00056
84.25 -0.00066
84.3 -0.00049
84.35 -0.00053
84.4 -0.00047
84.45 -0.00049
84.5 -0.00047
84.55 -0.00035
84.6 -0.00031
84.65 -0.00007
84.7 -0.00007
84.75 -0.00002
84.8 0.00009
84.85 -0.00003
84.9 -0.00024
84.95 -0.00044
85 -0.00045
85.05 -0.00053
85.1 -0.0005
85.15 -0.00055
85.2 -0.00063
85.25 -0.00051
85.3 -0.00034
85.35 -0.00037
85.4 -0.00015
85.45 0.00006
85.5 0.00029
85.55 0.00041
85.6 0.00043
85.65 0.00027
85.7 0.00025
85.75 0.00023
85.8 0.00028
85.85 0.00049
85.9 0.00041
85.95 0.00045
86 0.00046
86.05 0.00034
86.1 0.00026
86.15 0.00035
86.2 0.00025
86.25 0.00001
86.3 -0.00027
86.35 -0.00044
86.4 -0.00041
86.45 -0.00055
86.5 -0.00068
86.55 -0.0008
86.6 -0.00069
86.65 -0.00039
86.7 -0.00008
86.75 0.00005
86.8 0.00018
86.85 0.00036
86.9 0.00053
86.95 0.0008
87 0.00093
87.05 0.00107
87.1 0.00111
87.15 0.00093
87.2 0.00072
87.25 0.00045
87.3 0.00028
87.35 0.00009
87.4 -0.00003
87.45 0.00004
87.5 0.0002
87.55 0.00014
87.6 0.00013
87.65 0.00011
87.7 -0.00001
87.75 -0.00015
87.8 -0.00018
87.85 -0.00026
87.9 -0.00024
87.95 -0.00012
88 -0.00001
88.05 -0.00013
88.1 -0.00031
88.15 -0.00046
88.2 -0.00057
88.25 -0.00039
88.3 -0.0003
88.35 -0.00025
88.4 -0.00034
88.45 -0.00046
88.5 -0.00045
88.55 -0.00028
88.6 0.00004
88.65 0.00035
88.7 0.0004
88.75 0.00052
88.8 0.00071
88.85 0.00063
88.9 0.0006
88.95 0.00045
89 0.00045
89.05 0.00054
89.1 0.00053
89.15 0.00045
89.2 0.0005
89.25 0.00039
89.3 0.00045
89.35 0.00045
89.4 0.00036
89.45 0.00021
89.5 0.0001
89.55 -0.00002
89.6 -0.0001
89.65 -0.00034
89.7 -0.00034
89.75 -0.00047
89.8 -0.00061
89.85 -0.00066
89.9 -0.0007
89.95 -0.00071
90 -0.0007
90.05 -0.0007
90.1 -0.00074
90.15 -0.0006
90.2 -0.00028
90.25 -0.00005
90.3 0.00015
90.35 0.00027
90.4 0.00017
90.45 0.00001
90.5 -0.00003
90.55 -0.00019
90.6 -0.00035
90.65 -0.00024
90.7 -0.00009
90.75 -0.00011
90.8 -0.00027
90.85 -0.00035
90.9 -0.00018
90.95 -0.00021
91 -0.00031
91.05 -0.00039
91.1 -0.00053
91.15 -0.00071
91.2 -0.00078
91.25 -0.00077
91.3 -0.00056
91.35 -0.00037
91.4 -0.00019
91.45 0.00013
91.5 0.0005
91.55 0.00064
91.6 0.00087
91.65 0.00114
91.7 0.00142
91.75 0.00143
91.8 0.00114
91.85 0.00086
91.9 0.00076
91.95 0.00048
92 0.00008
92.05 -0.00026
92.1 -0.00026
92.15 -0.00019
92.2 -0.00002
92.25 0.00026
92.3 0.00041
92.35 0.0006
92.4 0.00084
92.45 0.00097
92.5 0.00107
92.55 0.00096
92.6 0.00067
92.65 0.00049
92.7 0.0005
92.75 0.00042
92.8 0.00038
92.85 0.00032
92.9 0.00028
92.95 0.00015
93 0.00018
93.05 0.00008
93.1 0.00001
93.15 -0.00009
93.2 -0.00005
93.25 0.00006
93.3 0.00005
93.35 -0.00011
93.4 -0.00028
93.45 -0.00053
93.5 -0.00078
93.55 -0.00075
93.6 -0.00068
93.65 -0.00055
93.7 -0.00044
93.75 -0.00035
93.8 -0.00019
93.85 0.00008
93.9 0.00028
93.95 0.00025
94 0.00031
94.05 0.00049
94.1 0.00061
94.15 0.00053
94.2 0.00056
94.25 0.00043
94.3 0.00035
94.35 0.00045
94.4 0.00048
94.45 0.00053
94.5 0.00035
94.55 0.00035
94.6 0.00026
94.65 0.00036
94.7 0.00036
94.75 0.00034
94.8 0.00038
94.85 0.0003
94.9 0.00032
94.95 0.00033
95 0.00036
95.05 0.0005
95.1 0.00063
95.15 0.00068
95.2 0.00066
95.25 0.00063
95.3 0.00061
95.35 0.00065
95.4 0.00046
95.45 0.0001
95.5 -0.00002
95.55 0
95.6 -0.00019
95.65 -0.00015
95.7 -0.00012
95.75 -0.00011
95.8 -0.00007
95.85 -0.00017
95.9 -0.00031
95.95 -0.00057
96 -0.00054
96.05 -0.00051
96.1 -0.00053
96.15 -0.00033
96.2 -0.00002
96.25 0.00014
96.3 0.00009
96.35 0.0002
96.4 0.00034
96.45 0.00028
96.5 0.00023
96.55 0.00022
96.6 0.00036
96.65 0.00044
96.7 0.00049
96.75 0.00047
96.8 0.0004
96.85 0.00022
96.9 0.00023
96.95 0.0003
97 0.00049
97.05 0.00064
97.1 0.00085
97.15 0.00098
97.2 0.00114
97.25 0.00092
97.3 0.00069
97.35 0.00033
97.4 -0.0001
97.45 -0.00058
97.5 -0.0009
97.55 -0.00123
97.6 -0.00147
97.65 -0.00155
97.7 -0.0015
97.75 -0.00147
97.8 -0.00148
97.85 -0.00125
97.9 -0.00091
97.95 -0.00048
98 -0.00035
98.05 -0.00029
98.1 -0.00032
98.15 -0.00048
98.2 -0.00046
98.25 -0.00025
98.3 -0.00028
98.35 -0.0003
98.4 -0.00022
98.45 -0.00016
98.5 -0.00021
98.55 -0.00032
98.6 -0.00043
98.65 -0.00033
98.7 -0.00022
98.75 -0.00003
98.8 0.00001
98.85 0.00004
98.9 0.00016
98.95 0.00038
99 0.0006
99.05 0.00058
99.1 0.00033
99.15 -0.00006
99.2 -0.00035
99.25 -0.00048
99.3 -0.00042
99.35 -0.00035
99.4 -0.0001
99.45 0.00019
99.5 0.00027
99.55 0.00047
99.6 0.00052
99.65 0.00046
99.7 0.00026
99.75 0.00006
99.8 -0.00021
99.85 -0.00025
99.9 -0.00014
99.95 -0.00025
