0 0
0.05 0.00014
0.1 0.00032
0.15 0.00076
0.2 0.00123
0.25 0.00155
0.3 0.00201
0.35 0.00245
0.4 0.00276
0.45 0.003
0.5 0.00327
0.55 0.00324
0.6 0.00323
0.65 0.00313
0.7 0.00305
0.75 0.00304
0.8 0.00283
0.85 0.00256
0.9 0.00234
0.95 0.00205
1 0.00183
1.05 0.0017
1.1 0.00181
1.15 0.00189
1.2 0.00207
1.25 0.00237
1.3 0.00237
1.35 0.00239
1.4 0.00242
1.45 0.0023
1.5 0.00199
1.55 0.00162
1.6 0.00127
1.65 0.00126
1.7 0.00145
1.75 0.00167
1.8 0.00195
1.85 0.00189
1.9 0.00164
1.95 0.00156
2 0.0017
2.05 0.00165
2.1 0.00141
2.15 0.00125
2.2 0.00106
2.25 0.00101
2.3 0.00095
2.35 0.00095
2.4 0.00079
2.45 0.00074
2.5 0.00065
2.55 0.00052
2.6 0.00036
2.65 0.00018
2.7 0.00031
2.75 0.00063
2.8 0.00094
2.85 0.00111
2.9 0.00101
2.95 0.00085
3 0.00072
3.05 0.00074
3.1 0.00066
3.15 0.00053
3.2 0.00033
3.25 0.0003
3.3 0.00047
3.35 0.00053
3.4 0.00074
3.45 0.001
3.5 0.00105
3.55 0.0009
3.6 0.00075
3.65 0.00072
3.7 0.00065
3.75 0.00077
3.8 0.00065
3.85 0.00046
3.9 0.00042
3.95 0.00038
4 0.00047
4.05 0.0005
4.1 0.00041
4.15 0.0002
4.2 0.00025
4.25 0.00026
4.3 0.00045
4.35 0.00038
4.4 0.00024
4.45 0.00012
4.5 0.00022
4.55 0.00024
4.6 0.00017
4.65 0.00023
4.7 0.00033
4.75 0.00036
4.8 0.00046
4.85 0.00071
4.9 0.00069
4.95 0.00082
5 0.00104
5.05 0.00103
5.1 0.00081
5.15 0.00052
5.2 0.00033
5.25 0.00044
5.3 0.00071
5.35 0.00105
5.4 0.00134
5.45 0.00167
5.5 0.00184
5.55 0.00181
5.6 0.00155
5.65 0.00145
5.7 0.0013
5.75 0.00096
5.8 0.0006
5.85 0.0003
5.9 0.00025
5.95 0.0002
6 0.00012
6.05 -0.00007
6.1 -0.00017
6.15 0.00001
6.2 -0.00001
6.25 0.00003
6.3 0.00005
6.35 0.0002
6.4 0.00035
6.45 0.00055
6.5 0.00088
6.55 0.00104
6.6 0.00111
6.65 0.00123
6.7 0.00144
6.75 0.00168
6.8 0.00161
6.85 0.00142
6.9 0.00134
6.95 0.00114
7 0.00081
7.05 0.00038
7.1 0.00007
7.15 -0.00024
7.2 -0.00026
7.25 -0.00019
7.3 0.00003
7.35 0.00014
7.4 0.00039
7.45 0.00053
7.5 0.00069
7.55 0.00073
7.6 0.0009
7.65 0.00084
7.7 0.0008
7.75 0.00084
7.8 0.00067
7.85 0.00046
7.9 0.00022
7.95 -0.0001
8 -0.00008
8.05 -0.00004
8.1 -0.00012
8.15 -0.00023
8.2 -0.00041
8.25 -0.00052
8.3 -0.00068
8.35 -0.00067
8.4 -0.00043
8.45 -0.00005
8.5 0.0004
8.55 0.00046
8.6 0.00037
8.65 0.00041
8.7 0.00037
8.75 0.00039
8.8 0.00018
8.85 0.00011
8.9 0.00027
8.95 0.00042
9 0.00062
9.05 0.00089
9.1 0.00082
9.15 0.00057
9.2 0.00055
9.25 0.00051
9.3 0.0006
9.35 0.00079
9.4 0.00083
9.45 0.00069
9.5 0.00046
9.55 0.00033
9.6 0.00012
9.65 -0.00012
9.7 -0.00007
9.75 0.0001
9.8 0.0001
9.85 -0.00011
9.9 -0.00024
9.95 -0.0001
10 0.00002
10.05 0.00004
10.1 -0.0001
10.15 0.00002
10.2 0.00004
10.25 0.00015
10.3 0.00016
10.35 0.00033
10.4 0.00043
10.45 0.00044
10.5 0.0004
10.55 0.00023
10.6 0.00018
10.65 -0.00008
10.7 -0.00037
10.75 -0.00041
10.8 -0.00056
10.85 -0.00074
10.9 -0.00084
10.95 -0.00075
11 -0.00045
11.05 -0.00021
11.1 -0.00002
11.15 0.0002
11.2 0.00044
11.25 0.00045
11.3 0.00046
11.35 0.00055
11.4 0.00058
11.45 0.00048
11.5 0.00026
11.55 0.00023
11.6 0.00033
11.65 0.0002
11.7 0.00014
11.75 0.00012
11.8 -0.00007
11.85 -0.0004
11.9 -0.00046
11.95 -0.00033
12 -0.00025
12.05 -0
12.1 0.00003
12.15 0.0001
12.2 0.00021
12.25 0.00021
12.3 0.00034
12.35 0.00027
12.4 0.00039
12.45 0.00053
12.5 0.00037
12.55 0.00009
12.6 0.00004
12.65 0.00014
12.7 0.00006
12.75 -0.00018
12.8 -0.00037
12.85 -0.00029
12.9 -0.00026
12.95 -0.00023
13 -0.00006
13.05 -0.00013
13.1 -0.00008
13.15 0.00003
13.2 -0.00004
13.25 -0.0001
13.3 -0.00026
13.35 -0.00018
13.4 -0.00018
13.45 -0.00027
13.5 -0.00041
13.55 -0.00063
13.6 -0.00076
13.65 -0.00096
13.7 -0.00105
13.75 -0.00116
13.8 -0.00098
13.85 -0.00067
13.9 -0.00049
13.95 -0.00014
14 0.00023
14.05 0.00034
14.1 0.00045
14.15 0.00036
14.2 0.0002
14.25 0.00013
14.3 0.00011
14.35 0.00015
14.4 0.00016
14.45 -0.00005
14.5 -0.00013
14.55 -0.00014
14.6 -0.00006
14.65 0.00015
14.7 0.0001
14.75 0.00012
14.8 0.00021
14.85 0.00039
14.9 0.00056
14.95 0.00049
15 0.00028
15.05 0.00001
15.1 -0.00017
15.15 -0.00029
15.2 -0.00037
15.25 -0.00038
15.3 -0.00032
15.35 -0.00046
15.4 -0.00062
15.45 -0.00049
15.5 -0.00016
15.55 -0.00013
15.6 -0.00017
15.65 -0.00005
15.7 -0.00001
15.75 0.00013
15.8 0.00006
15.85 0.00008
15.9 0.00012
15.95 -0.00006
16 -0.00026
16.05 -0.00027
16.1 -0.00016
16.15 -0.00027
16.2 -0.0002
16.25 -0.00031
16.3 -0.00026
16.35 -0.00008
16.4 -0.00006
16.45 -0.00007
16.5 -0.00001
16.55 0.00023
16.6 0.00038
16.65 0.00063
16.7 0.00091
16.75 0.00098
16.8 0.00093
16.85 0.00094
16.9 0.00078
16.95 0.00047
17 0.00009
17.05 -0.00019
17.1 -0.00047
17.15 -0.00064
17.2 -0.00089
17.25 -0.00092
17.3 -0.00086
17.35 -0.00083
17.4 -0.00066
17.45 -0.00057
17.5 -0.0006
17.55 -0.00068
17.6 -0.00083
17.65 -0.00088
17.7 -0.00063
17.75 -0.00028
17.8 0.00014
17.85 0.0003
17.9 0.00035
17.95 0.00031
18 0.00028
18.05 0.00017
18.1 0.00016
18.15 0.00032
18.2 0.00043
18.25 0.00037
18.3 0.0002
18.35 0.00013
18.4 0.00016
18.45 0.00003
18.5 -0.00006
18.55 0.00005
18.6 0.00022
18.65 0.00032
18.7 0.00033
18.75 0.00035
18.8 0.00023
18.85 0.00021
18.9 0.00006
18.95 -0
19 -0.00008
19.05 -0.00015
19.1 -0.00023
19.15 -0.00031
19.2 -0.0004
19.25 -0.00039
19.3 -0.00048
19.35 -0.00037
19.4 -0.00043
19.45 -0.00049
19.5 -0.00051
19.55 -0.00031
19.6 -0.00006
19.65 0.0001
19.7 0.00011
19.75 -0.00001
19.8 -0.00025
19.85 -0.00033
19.9 -0.00015
19.95 -0.00012
20 0.00003
20.05 0.0001
20.1 0.00019
20.15 0.00025
20.2 0.00026
20.25 0.00013
20.3 -0.00006
20.35 -0.00023
20.4 -0.00039
20.45 -0.0006
20.5 -0.00081
20.55 -0.00085
20.6 -0.00092
20.65 -0.00072
20.7 -0.00055
20.75 -0.00057
20.8 -0.00031
20.85 -0.00003
20.9 0.00027
20.95 0.00033
21 0.00055
21.05 0.00074
21.1 0.00065
21.15 0.00052
21.2 0.00034
21.25 0.00004
21.3 -0.00013
21.35 -0.00027
21.4 -0.00042
21.45 -0.00063
21.5 -0.00054
21.55 -0.00061
21.6 -0.00065
21.65 -0.00064
21.7 -0.00054
21.75 -0.00047
21.8 -0.00044
21.85 -0.00028
21.9 -0.0002
21.95 0.00003
22 0.00033
22.05 0.00071
22.1 0.00098
22.15 0.00112
22.2 0.00111
22.25 0.00086
22.3 0.00047
22.35 0.00022
22.4 -0
22.45 -0.00008
22.5 -0.00031
22.55 -0.00059
22.6 -0.00084
22.65 -0.00111
22.7 -0.00127
22.75 -0.00123
22.8 -0.00125
22.85 -0.00117
22.9 -0.00112
22.95 -0.0008
23 -0.00063
23.05 -0.00063
23.1 -0.00065
23.15 -0.00076
23.2 -0.00091
23.25 -0.00111
23.3 -0.00112
23.35 -0.00091
23.4 -0.00086
23.45 -0.00053
23.5 -0.00004
23.55 0.00013
23.6 0.00023
23.65 0.00037
23.7 0.0005
23.75 0.0004
23.8 0.00046
23.85 0.00046
23.9 0.00036
23.95 0.00029
24 0.00013
24.05 -0
24.1 0.00002
24.15 -0.00005
24.2 -0.00007
24.25 -0
24.3 0.00004
24.35 -0.00001
24.4 -0.00011
24.45 -0.00014
24.5 -0.00026
24.55 -0.00028
24.6 -0.00011
24.65 -0.00014
24.7 -0.00025
24.75 -0.00046
24.8 -0.00049
24.85 -0.00047
24.9 -0.00023
24.95 -0.00005
25 0.0001
25.05 0.00025
25.1 0.00025
25.15 0.00017
25.2 0.00018
25.25 0.00003
25.3 -0.00017
25.35 -0.00041
25.4 -0.00042
25.45 -0.00026
25.5 -0.0003
25.55 -0.00017
25.6 -0.00001
25.65 0.00024
25.7 0.00048
25.75 0.00081
25.8 0.00115
25.85 0.00135
25.9 0.00152
25.95 0.00132
26 0.00093
26.05 0.0006
26.1 0.00055
26.15 0.00042
26.2 0.00025
26.25 0.00009
26.3 0.00017
26.35 0.00035
26.4 0.00055
26.45 0.00069
26.5 0.00056
26.55 0.00047
26.6 0.00038
26.65 0.00051
26.7 0.0005
26.75 0.00058
26.8 0.00078
26.85 0.00071
26.9 0.0006
26.95 0.00044
27 0.00039
27.05 0.00026
27.1 0.00017
27.15 0.00019
27.2 0.00022
27.25 0.00026
27.3 0.00012
27.35 0.0001
27.4 0.0002
27.45 0.00014
27.5 -0.00011
27.55 -0.00034
27.6 -0.00034
27.65 -0.00023
27.7 -0.0001
27.75 0.00006
27.8 0.00035
27.85 0.00049
27.9 0.00058
27.95 0.00047
28 0.0003
28.05 0.00038
28.1 0.00057
28.15 0.0005
28.2 0.00051
28.25 0.00055
28.3 0.00037
28.35 0.00007
28.4 -0.00017
28.45 -0.00014
28.5 -0.00013
28.55 -0.00009
28.6 -0.00008
28.65 -0.0001
28.7 -0.00015
28.75 -0.00019
28.8 -0.00003
28.85 0.0002
28.9 0.00047
28.95 0.00048
29 0.00056
29.05 0.00046
29.1 0.00028
29.15 0.00007
29.2 -0.00018
29.25 -0.00018
29.3 -0.00008
29.35 0.0001
29.4 0.00038
29.45 0.00056
29.5 0.0006
29.55 0.0004
29.6 0.0004
29.65 0.00033
29.7 0.00031
29.75 0.0003
29.8 0.0001
29.85 0.00016
29.9 0.00035
29.95 0.00041
30 0.00061
30.05 0.00077
30.1 0.00066
30.15 0.00053
30.2 0.00055
30.25 0.00071
30.3 0.00081
30.35 0.00081
30.4 0.00093
30.45 0.00088
30.5 0.00076
30.55 0.00074
30.6 0.00061
30.65 0.00053
30.7 0.00027
30.75 0.00025
30.8 0.00024
30.85 0.00021
30.9 0.00031
30.95 0.00014
31 -0.00007
31.05 -0.00024
31.1 -0.00021
31.15 -0.00021
31.2 -0.00008
31.25 -0.00006
31.3 0.00012
31.35 0.00039
31.4 0.00039
31.45 0.00045
31.5 0.00048
31.55 0.00061
31.6 0.00071
31.65 0.00084
31.7 0.00084
31.75 0.00069
31.8 0.00033
31.85 -0.00009
31.9 -0.00045
31.95 -0.00052
32 -0.00039
32.05 -0.00045
32.1 -0.00037
32.15 -0.00049
32.2 -0.00061
32.25 -0.00046
32.3 -0.00026
32.35 0.00004
32.4 0.00022
32.45 0.00026
32.5 0.00014
32.55 -0.00003
32.6 -0.00032
32.65 -0.00044
32.7 -0.00071
32.75 -0.00064
32.8 -0.00052
32.85 -0.00042
32.9 -0.00029
32.95 -0.00016
33 0.00009
33.05 0.00037
33.1 0.00028
33.15 0.00025
33.2 0.00028
33.25 0.00017
33.3 0.00002
33.35 -0.00016
33.4 -0.0004
33.45 -0.00053
33.5 -0.00053
33.55 -0.00044
33.6 -0.00049
33.65 -0.00054
33.7 -0.0007
33.75 -0.00091
33.8 -0.00083
33.85 -0.00057
33.9 -0.00019
33.95 -0.00004
34 -0.00008
34.05 -0.00001
34.1 -0.00002
34.15 -0.00003
34.2 -0.00022
34.25 -0.00049
34.3 -0.00062
34.35 -0.00046
34.4 -0.00037
34.45 -0.00039
34.5 -0.00059
34.55 -0.00079
34.6 -0.00083
34.65 -0.0006
34.7 -0.00051
34.75 -0.00031
34.8 -0.00008
34.85 0.00014
34.9 0.00014
34.95 0.00032
35 0.00025
35.05 0.00033
35.1 0.00028
35.15 0.00008
35.2 -0.00017
35.25 -0.00015
35.3 -0.00023
35.35 -0.00027
35.4 -0.00045
35.45 -0.00056
35.5 -0.00047
35.55 -0.00059
35.6 -0.00076
35.65 -0.00064
35.7 -0.00056
35.75 -0.00057
35.8 -0.00053
35.85 -0.00055
35.9 -0.00052
35.95 -0.00059
36 -0.00075
36.05 -0.00064
36.1 -0.00071
36.15 -0.0005
36.2 -0.00053
36.25 -0.00039
36.3 -0.00012
36.35 0.00016
36.4 0.00027
36.45 0.00039
36.5 0.00055
36.55 0.00059
36.6 0.00062
36.65 0.00039
36.7 0.00023
36.75 0.00029
36.8 0.00035
36.85 0.00015
36.9 0.00004
36.95 -0
37 -0.00015
37.05 -0.00029
37.1 -0.00039
37.15 -0.00056
37.2 -0.00055
37.25 -0.00053
37.3 -0.00063
37.35 -0.0007
37.4 -0.00064
37.45 -0.00056
37.5 -0.00028
37.55 -0.00027
37.6 -0.0004
37.65 -0.00042
37.7 -0.0005
37.75 -0.0004
37.8 -0.00038
37.85 -0.00034
37.9 -0.00028
37.95 -0.00004
38 0.00014
38.05 0.00023
38.1 0.00007
38.15 0.00004
38.2 0.00001
38.25 -0.00013
38.3 -0.00031
38.35 -0.00057
38.4 -0.00062
38.45 -0.0005
38.5 -0.00018
38.55 0.00014
38.6 0.00039
38.65 0.00037
38.7 0.00023
38.75 0.00031
38.8 0.00021
38.85 -0.00006
38.9 -0.00003
38.95 0.00019
39 0.00038
39.05 0.00026
39.1 0.0003
39.15 0.00026
39.2 0.00035
39.25 0.00024
39.3 0.00007
39.35 -0.0002
39.4 -0.00043
39.45 -0.00033
39.5 -0.00015
39.55 -0.0001
39.6 -0.00012
39.65 -0.00014
39.7 -0.00017
39.75 0.00002
39.8 -0.00001
39.85 -0.00015
39.9 -0.00006
39.95 0.00022
40 0.00048
40.05 0.00068
40.1 0.00089
40.15 0.00106
40.2 0.00126
40.25 0.00117
40.3 0.00109
40.35 0.00073
40.4 0.00029
40.45 -0.00016
40.5 -0.00042
40.55 -0.00068
40.6 -0.00058
40.65 -0.00067
40.7 -0.00075
40.75 -0.00091
40.8 -0.00107
40.85 -0.00109
40.9 -0.00092
40.95 -0.00059
41 -0.0003
41.05 -0.00018
41.1 0.00002
41.15 0.0002
41.2 0.00007
41.25 -0.00022
41.3 -0.00065
41.35 -0.00117
41.4 -0.00168
41.45 -0.00227
41.5 -0.00293
41.55 -0.00374
41.6 -0.00466
41.65 -0.00549
41.7 -0.00638
41.75 -0.00739
41.8 -0.00832
41.85 -0.00929
41.9 -0.01067
41.95 -0.01225
42 -0.01387
42.05 -0.01581
42.1 -0.0179
42.15 -0.02019
42.2 -0.02288
42.25 -0.02582
42.3 -0.02915
42.35 -0.03272
42.4 -0.03668
42.45 -0.04093
42.5 -0.04546
42.55 -0.05018
42.6 -0.0553
42.65 -0.06047
42.7 -0.06556
42.75 -0.07069
42.8 -0.07594
42.85 -0.08098
42.9 -0.08572
42.95 -0.09038
43 -0.09487
43.05 -0.09892
43.1 -0.10219
43.15 -0.10489
43.2 -0.10677
43.25 -0.10786
43.3 -0.10833
43.35 -0.1079
43.4 -0.10685
43.45 -0.10508
43.5 -0.10256
43.55 -0.09893
43.6 -0.0945
43.65 -0.08952
43.7 -0.08363
43.75 -0.07736
43.8 -0.07049
43.85 -0.06319
43.9 -0.05598
43.95 -0.04892
44 -0.04214
44.05 -0.03557
44.1 -0.02939
44.15 -0.02364
44.2 -0.01838
44.25 -0.01375
44.3 -0.00969
44.35 -0.00631
44.4 -0.0036
44.45 -0.00137
44.5 0.00023
44.55 0.00127
44.6 0.00146
44.65 0.00102
44.7 0.00031
44.75 -0.00079
44.8 -0.00183
44.85 -0.00276
44.9 -0.0038
44.95 -0.00488
45 -0.00562
45.05 -0.00574
45.1 -0.00524
45.15 -0.00417
45.2 -0.00276
45.25 -0.00053
45.3 0.00237
45.35 0.00558
45.4 0.00926
45.45 0.01371
45.5 0.0186
45.55 0.02417
45.6 0.02989
45.65 0.03601
45.7 0.0423
45.75 0.04883
45.8 0.0554
45.85 0.06177
45.9 0.0681
45.95 0.07417
46 0.08022
46.05 0.0859
46.1 0.09122
46.15 0.09616
46.2 0.10063
46.25 0.1046
46.3 0.10812
46.35 0.11121
46.4 0.11398
46.45 0.11621
46.5 0.11785
46.55 0.11895
46.6 0.11981
46.65 0.12047
46.7 0.12059
46.75 0.12049
46.8 0.11976
46.85 0.11865
46.9 0.11736
46.95 0.11583
47 0.1139
47.05 0.11201
47.1 0.1099
47.15 0.10768
47.2 0.10536
47.25 0.10278
47.3 0.10004
47.35 0.09734
47.4 0.09455
47.45 0.0917
47.5 0.08861
47.55 0.08522
47.6 0.08187
47.65 0.07849
47.7 0.07531
47.75 0.07207
47.8 0.06878
47.85 0.06538
47.9 0.06189
47.95 0.0583
48 0.05474
48.05 0.05134
48.1 0.04814
48.15 0.04521
48.2 0.04218
48.25 0.03935
48.3 0.0363
48.35 0.03346
48.4 0.03047
48.45 0.02764
48.5 0.02488
48.55 0.02224
48.6 0.01974
48.65 0.01741
48.7 0.01499
48.75 0.01282
48.8 0.01065
48.85 0.00844
48.9 0.00639
48.95 0.00455
49 0.00278
49.05 0.00098
49.1 -0.00052
49.15 -0.00185
49.2 -0.00302
49.25 -0.00419
49.3 -0.00553
49.35 -0.00664
49.4 -0.00774
49.45 -0.00882
49.5 -0.0099
49.55 -0.01103
49.6 -0.01198
49.65 -0.01285
49.7 -0.01363
49.75 -0.01419
49.8 -0.01467
49.85 -0.01539
49.9 -0.01591
49.95 -0.01665
50 -0.01732
50.05 -0.01794
50.1 -0.01865
50.15 -0.01915
50.2 -0.01962
50.25 -0.01976
50.3 -0.02001
50.35 -0.02032
50.4 -0.02052
50.45 -0.02045
50.5 -0.02049
50.55 -0.02038
50.6 -0.02048
50.65 -0.02032
50.7 -0.02013
50.75 -0.02
50.8 -0.02007
50.85 -0.02023
50.9 -0.02044
50.95 -0.02067
51 -0.02087
51.05 -0.02099
51.1 -0.0208
51.15 -0.02067
51.2 -0.02041
51.25 -0.01994
51.3 -0.01947
51.35 -0.01896
51.4 -0.01857
51.45 -0.01819
51.5 -0.01807
51.55 -0.0179
51.6 -0.01776
51.65 -0.01771
51.7 -0.01766
51.75 -0.0174
51.8 -0.01692
51.85 -0.01675
51.9 -0.0167
51.95 -0.01653
52 -0.01634
52.05 -0.01627
52.1 -0.01616
52.15 -0.01609
52.2 -0.01571
52.25 -0.01532
52.3 -0.01478
52.35 -0.01413
52.4 -0.01375
52.45 -0.01366
52.5 -0.01372
52.55 -0.01352
52.6 -0.01315
52.65 -0.01282
52.7 -0.0124
52.75 -0.01224
52.8 -0.01217
52.85 -0.012
52.9 -0.01187
52.95 -0.01186
53 -0.01184
53.05 -0.01155
53.1 -0.01115
53.15 -0.01101
53.2 -0.01069
53.25 -0.01064
53.3 -0.01044
53.35 -0.01014
53.4 -0.0099
53.45 -0.00973
53.5 -0.00968
53.55 -0.00962
53.6 -0.00948
53.65 -0.00915
53.7 -0.00911
53.75 -0.00911
53.8 -0.00891
53.85 -0.00881
53.9 -0.00889
53.95 -0.009
54 -0.00884
54.05 -0.00872
54.1 -0.00836
54.15 -0.00803
54.2 -0.0079
54.25 -0.00763
54.3 -0.00752
54.35 -0.00729
54.4 -0.00712
54.45 -0.00716
54.5 -0.00729
54.55 -0.00728
54.6 -0.00712
54.65 -0.00703
54.7 -0.007
54.75 -0.00695
54.8 -0.00696
54.85 -0.00692
54.9 -0.00696
54.95 -0.0071
55 -0.0069
55.05 -0.00662
55.1 -0.00653
55.15 -0.00631
55.2 -0.00604
55.25 -0.00576
55.3 -0.00543
55.35 -0.00507
55.4 -0.00466
55.45 -0.00444
55.5 -0.00434
55.55 -0.00416
55.6 -0.00395
55.65 -0.00394
55.7 -0.00409
55.75 -0.00412
55.8 -0.00416
55.85 -0.00436
55.9 -0.0044
55.95 -0.00456
56 -0.00452
56.05 -0.00442
56.1 -0.00427
56.15 -0.00432
56.2 -0.00426
56.25 -0.00438
56.3 -0.00424
56.35 -0.00425
56.4 -0.0044
56.45 -0.0044
56.5 -0.00421
56.55 -0.00398
56.6 -0.00365
56.65 -0.00361
56.7 -0.00366
56.75 -0.00371
56.8 -0.00389
56.85 -0.00404
56.9 -0.00426
56.95 -0.0043
57 -0.00422
57.05 -0.00394
57.1 -0.00387
57.15 -0.0039
57.2 -0.0038
57.25 -0.0036
57.3 -0.00326
57.35 -0.00297
57.4 -0.00269
57.45 -0.00252
57.5 -0.00259
57.55 -0.00244
57.6 -0.00227
57.65 -0.00202
57.7 -0.00168
57.75 -0.00172
57.8 -0.00195
57.85 -0.00193
57.9 -0.00181
57.95 -0.00195
58 -0.00224
58.05 -0.00259
58.1 -0.00289
58.15 -0.00284
58.2 -0.00267
58.25 -0.00256
58.3 -0.00246
58.35 -0.00224
58.4 -0.00224
58.45 -0.00205
58.5 -0.00175
58.55 -0.00158
58.6 -0.00161
58.65 -0.00152
58.7 -0.00146
58.75 -0.0016
58.8 -0.00159
58.85 -0.0015
58.9 -0.00159
58.95 -0.00179
59 -0.00174
59.05 -0.00178
59.1 -0.00174
59.15 -0.00172
59.2 -0.00167
59.25 -0.00149
59.3 -0.00123
59.35 -0.00128
59.4 -0.00133
59.45 -0.00157
59.5 -0.00185
59.55 -0.00208
59.6 -0.00209
59.65 -0.00197
59.7 -0.00171
59.75 -0.00168
59.8 -0.00168
59.85 -0.0017
59.9 -0.00154
59.95 -0.00137
60 -0.00103
60.05 -0.00086
60.1 -0.0007
60.15 -0.00059
60.2 -0.00036
60.25 -0.00046
60.3 -0.00064
60.35 -0.00089
60.4 -0.00086
60.45 -0.00084
60.5 -0.00066
60.55 -0.00052
60.6 -0.00054
60.65 -0.00068
60.7 -0.00098
60.75 -0.00135
60.8 -0.00137
60.85 -0.00115
60.9 -0.00097
60.95 -0.00077
61 -0.00051
61.05 -0.00034
61.1 -0.0001
61.15 -0.00011
61.2 0.00003
61.25 0.00004
61.3 -0.00019
61.35 -0.00028
61.4 -0.0005
61.45 -0.00079
61.5 -0.0008
61.55 -0.00081
61.6 -0.0007
61.65 -0.00073
61.7 -0.00067
61.75 -0.00082
61.8 -0.00112
61.85 -0.00114
61.9 -0.0013
61.95 -0.00134
62 -0.00142
62.05 -0.00151
62.1 -0.00142
62.15 -0.00131
62.2 -0.00113
62.25 -0.00112
62.3 -0.00104
62.35 -0.0008
62.4 -0.00053
62.45 -0.00055
62.5 -0.00043
62.55 -0.00048
62.6 -0.0006
62.65 -0.00076
62.7 -0.00074
62.75 -0.00066
62.8 -0.00072
62.85 -0.00074
62.9 -0.00089
62.95 -0.00101
63 -0.00109
63.05 -0.00123
63.1 -0.00129
63.15 -0.00106
63.2 -0.00084
63.25 -0.00074
63.3 -0.00057
63.35 -0.00047
63.4 -0.00035
63.45 -0.00049
63.5 -0.00041
63.55 -0.00019
63.6 -0.00026
63.65 -0.00046
63.7 -0.00051
63.75 -0.0005
63.8 -0.00051
63.85 -0.00041
63.9 -0.00034
63.95 -0.00033
64 -0.00042
64.05 -0.00032
64.1 -0.0003
64.15 -0.00023
64.2 -0.00012
64.25 -0.00026
64.3 -0.00048
64.35 -0.0007
64.4 -0.00099
64.45 -0.00125
64.5 -0.00121
64.55 -0.00115
64.6 -0.00091
64.65 -0.00083
64.7 -0.0009
64.75 -0.00068
64.8 -0.00042
64.85 -0.00034
64.9 -0.0001
64.95 0.00013
65 0.0003
65.05 0.00022
65.1 0.00011
65.15 -0.00004
65.2 -0.00025
65.25 -0.00053
65.3 -0.00077
65.35 -0.00068
65.4 -0.00048
65.45 -0.00027
65.5 -0.00014
65.55 0.00016
65.6 0.00051
65.65 0.00058
65.7 0.00039
65.75 0.00041
65.8 0.00021
65.85 -0.00005
65.9 -0.00039
65.95 -0.00039
66 -0.00034
66.05 -0.00045
66.1 -0.0007
66.15 -0.00061
66.2 -0.00057
66.25 -0.00066
66.3 -0.00048
66.35 -0.00021
66.4 -0.00005
66.45 0.00004
66.5 -0.00007
66.55 -0.00003
66.6 0.00004
66.65 0.00023
66.7 0.0005
66.75 0.00078
66.8 0.00102
66.85 0.00125
66.9 0.00123
66.95 0.00094
67 0.00085
67.05 0.00087
67.1 0.00087
67.15 0.00062
67.2 0.00043
67.25 0.00031
67.3 0.00008
67.35 -0.00002
67.4 -0.00002
67.45 -0.00021
67.5 -0.00031
67.55 -0.00015
67.6 -0.00024
67.65 -0.00016
67.7 -0.00008
67.75 0.00007
67.8 0.00014
67.85 -0.00003
67.9 -0.00035
67.95 -0.00038
68 -0.00024
68.05 -0.00034
68.1 -0.00051
68.15 -0.00076
68.2 -0.00108
68.25 -0.00116
68.3 -0.00117
68.35 -0.00097
68.4 -0.00091
68.45 -0.00091
68.5 -0.00098
68.55 -0.00098
68.6 -0.00075
68.65 -0.00048
68.7 -0.00012
68.75 0.00026
68.8 0.00063
68.85 0.00079
68.9 0.00102
68.95 0.00123
69 0.00109
69.05 0.00103
69.1 0.00081
69.15 0.00042
69.2 0.00018
69.25 -0.00012
69.3 -0.00023
69.35 -0.00043
69.4 -0.00051
69.45 -0.00042
69.5 -0.00026
69.55 -0.00021
69.6 -0.00011
69.65 0.00005
69.7 0.0002
69.75 0.00034
69.8 0.00048
69.85 0.00038
69.9 0.00018
69.95 -0.00006
70 -0.00037
70.05 -0.0005
70.1 -0.00038
70.15 -0.00048
70.2 -0.00041
70.25 -0.00022
70.3 -0
70.35 -0.00007
70.4 -0.00031
70.45 -0.00062
70.5 -0.00089
70.55 -0.00084
70.6 -0.00094
70.65 -0.00112
70.7 -0.00111
70.75 -0.00094
70.8 -0.00086
70.85 -0.00086
70.9 -0.0008
70.95 -0.00071
71 -0.00079
71.05 -0.00077
71.1 -0.0008
71.15 -0.00089
71.2 -0.00072
71.25 -0.00045
71.3 -0.00022
71.35 -0.00022
71.4 -0.00013
71.45 -0.00017
71.5 -0.00023
71.55 -0.00031
71.6 -0.0004
71.65 -0.00038
71.7 -0.00034
71.75 -0.00025
71.8 -0.00025
71.85 -0.00007
71.9 0.00003
71.95 -0.00004
72 0.00009
72.05 0.00033
72.1 0.00051
72.15 0.00071
72.2 0.00069
72.25 0.00072
72.3 0.00086
72.35 0.00078
72.4 0.00088
72.45 0.00104
72.5 0.00115
72.55 0.00115
72.6 0.00107
72.65 0.00083
72.7 0.00059
72.75 0.00027
72.8 -0.00013
72.85 -0.00053
72.9 -0.0007
72.95 -0.00091
73 -0.00077
73.05 -0.00067
73.1 -0.00054
73.15 -0.00033
73.2 -0.00031
73.25 -0.00036
73.3 -0.00035
73.35 -0.00022
73.4 0.00006
73.45 0.0001
73.5 0.00023
73.55 0.00049
73.6 0.00079
73.65 0.00089
73.7 0.00105
73.75 0.00123
73.8 0.00124
73.85 0.0013
73.9 0.00122
73.95 0.00092
74 0.00076
74.05 0.00044
74.1 0.00007
74.15 -0.00002
74.2 -0.00016
74.25 -0.00009
74.3 0.00009
74.35 0.00006
74.4 0.00006
74.45 -0.00012
74.5 -0.00004
74.55 -0.00018
74.6 -0.00046
74.65 -0.00079
74.7 -0.00095
74.75 -0.00107
74.8 -0.00095
74.85 -0.00077
74.9 -0.00065
74.95 -0.00057
75 -0.00054
75.05 -0.00048
75.1 -0.00021
75.15 0.00013
75.2 0.00045
75.25 0.00062
75.3 0.0006
75.35 0.0006
75.4 0.00036
75.45 0.00001
75.5 -0.00024
75.55 -0.00039
75.6 -0.00038
75.65 -0.00023
75.7 0.00003
75.75 0.00012
75.8 0.00036
75.85 0.00051
75.9 0.00065
75.95 0.00081
76 0.0007
76.05 0.00078
76.1 0.00064
76.15 0.00034
76.2 -0.00001
76.25 -0.00039
76.3 -0.00042
76.35 -0.00035
76.4 -0.0001
76.45 -0.00004
76.5 -0.00019
76.55 -0.00024
76.6 -0.00026
76.65 -0.00031
76.7 -0.00038
76.75 -0.00021
76.8 -0.00022
76.85 -0.00026
76.9 -0.00025
76.95 -0.00022
77 -0.00036
77.05 -0.00021
77.1 -0.00009
77.15 -0.0001
77.2 -0.00009
77.25 -0.00014
77.3 -0.00019
77.35 -0.00007
77.4 -0.00012
77.45 -0.00033
77.5 -0.00033
77.55 -0.00036
77.6 -0.00024
77.65 -0.00006
77.7 -0.00011
77.75 -0.00028
77.8 -0.00042
77.85 -0.00061
77.9 -0.00052
77.95 -0.00023
78 0.00017
78.05 0.00036
78.1 0.00038
78.15 0.00034
78.2 0.00017
78.25 0.00005
78.3 0.00003
78.35 -0.00008
78.4 -0.00014
78.45 -0.00023
78.5 -0.00022
78.55 -0.00027
78.6 -0.00008
78.65 0.00014
78.7 0.00017
78.75 -0.00002
78.8 -0.00009
78.85 0.00002
78.9 0.00007
78.95 0.00018
79 0.00011
79.05 -0.00008
79.1 -0.00005
79.15 0
79.2 0.00009
79.25 0.0002
79.3 0.00039
79.35 0.00043
79.4 0.00061
79.45 0.00082
79.5 0.00109
79.55 0.00134
79.6 0.00133
79.65 0.00133
79.7 0.00112
79.75 0.00083
79.8 0.00041
79.85 0.00004
79.9 -0.0003
79.95 -0.00032
80 -0.00042
80.05 -0.0003
80.1 -0.00033
80.15 -0.00018
80.2 0.00007
80.25 0.0001
80.3 0.00026
80.35 0.00026
80.4 0.00034
80.45 0.00023
80.5 -0.00007
80.55 -0.00015
80.6 0
80.65 0.00011
80.7 0.00031
80.75 0.00038
80.8 0.00042
80.85 0.0004
80.9 0.0002
80.95 0.0002
81 0.00006
81.05 -0.00006
81.1 -0.00006
81.15 -0.00017
81.2 -0.00031
81.25 -0.00029
81.3 -0.00045
81.35 -0.0005
81.4 -0.0005
81.45 -0.00056
81.5 -0.00077
81.55 -0.00065
81.6 -0.00053
81.65 -0.00058
81.7 -0.00062
81.75 -0.00053
81.8 -0.00045
81.85 -0.00039
81.9 -0.00014
81.95 0.00018
82 0.00035
82.05 0.00034
82.1 0.0003
82.15 0.00017
82.2 -0.00014
82.25 -0.00015
82.3 -0.00026
82.35 -0.00025
82.4 -0.00005
82.45 0.00007
82.5 0.00024
82.55 0.00036
82.6 0.00051
82.65 0.00073
82.7 0.00066
82.75 0.00038
82.8 0.00022
82.85 -0.00003
82.9 -0.00006
82.95 -0.00002
83 0.00013
83.05 0.00017
83.1 0.00037
83.15 0.00064
83.2 0.00077
83.25 0.00057
83.3 0.00018
83.35 0.0001
83.4 -0.00001
83.45 -0
83.5 0.00018
83.55 0.00027
83.6 0.00035
83.65 0.00055
83.7 0.00079
83.75 0.00085
83.8 0.00067
83.85 0.00035
83.9 -0.00006
83.95 -0.00013
84 -0.00013
84.05 0.00003
84.1 -0.00003
84.15 -0.00012
84.2 -0.00032
84.25 -0.00036
84.3 -0.00039
84.35 -0.00059
84.4 -0.00052
84.45 -0.00035
84.5 -0.00003
84.55 0.00033
84.6 0.0007
84.65 0.00088
84.7 0.00086
84.75 0.00079
84.8 0.00079
84.85 0.00057
84.9 0.00019
84.95 -0.00024
85 -0.00059
85.05 -0.00074
85.1 -0.00087
85.15 -0.00074
85.2 -0.00073
85.25 -0.00068
85.3 -0.00046
85.35 -0.00019
85.4 -0.0002
85.45 -0.00032
85.5 -0.00042
85.55 -0.00064
85.6 -0.00087
85.65 -0.00087
85.7 -0.00065
85.75 -0.00035
85.8 -0.00029
85.85 -0.0003
85.9 -0.00036
85.95 -0.0002
86 0.00006
86.05 0.00026
86.1 0.00035
86.15 0.00024
86.2 0.0001
86.25 -0.0001
86.3 -0.00021
86.35 -0.00025
86.4 -0.00039
86.45 -0.00057
86.5 -0.00085
86.55 -0.00113
86.6 -0.00117
86.65 -0.00096
86.7 -0.00073
86.75 -0.00071
86.8 -0.00079
86.85 -0.00083
86.9 -0.00078
86.95 -0.00085
87 -0.00093
87.05 -0.00102
87.1 -0.0009
87.15 -0.0007
87.2 -0.00065
87.25 -0.00048
87.3 -0.00012
87.35 -0.00006
87.4 0.00001
87.45 -0.00009
87.5 0.00005
87.55 0.00012
87.6 -0
87.65 0.00008
87.7 0.00033
87.75 0.00053
87.8 0.00043
87.85 0.00028
87.9 0.00031
87.95 0.00039
88 0.00036
88.05 0.0003
88.1 0.00044
88.15 0.00035
88.2 0.00022
88.25 0.00017
88.3 0.00019
88.35 0.00018
88.4 0.0003
88.45 0.00051
88.5 0.0005
88.55 0.00056
88.6 0.00072
88.65 0.00077
88.7 0.00067
88.75 0.00046
88.8 0.00033
88.85 0.00018
88.9 0.00004
88.95 0.00009
89 -0.00006
89.05 -0.00002
89.1 0.00016
89.15 0.0003
89.2 0.00052
89.25 0.0004
89.3 0.0002
89.35 -0.00002
89.4 -0.00018
89.45 -0.00015
89.5 -0.00031
89.55 -0.00045
89.6 -0.00043
89.65 -0.0003
89.7 -0.00007
89.75 -0.00008
89.8 -0.00014
89.85 -0.00038
89.9 -0.00032
89.95 -0.00042
90 -0.00048
90.05 -0.00041
90.1 -0.00017
90.15 0.00012
90.2 0.00009
90.25 -0.00013
90.3 -0.00037
90.35 -0.00045
90.4 -0.00064
90.45 -0.00053
90.5 -0.00041
90.55 -0.00023
90.6 0.00009
90.65 0.00042
90.7 0.00061
90.75 0.00069
90.8 0.00059
90.85 0.00058
90.9 0.00032
90.95 0.00002
91 -0.00012
91.05 -0.00038
91.1 -0.00059
91.15 -0.00088
91.2 -0.00084
91.25 -0.00079
91.3 -0.00088
91.35 -0.00086
91.4 -0.00083
91.45 -0.00057
91.5 -0.00022
91.55 0.00022
91.6 0.00064
91.65 0.00099
91.7 0.00121
91.75 0.00135
91.8 0.00123
91.85 0.0011
91.9 0.00087
91.95 0.00062
92 0.00037
92.05 0.00009
92.1 -0.00014
92.15 -0.00013
92.2 -0.00001
92.25 0.00012
92.3 0.00026
92.35 0.0003
92.4 0.0004
92.45 0.00023
92.5 0.00019
92.55 0.00014
92.6 0.00015
92.65 -0.00003
92.7 -0.00013
92.75 -0.00028
92.8 -0.00037
92.85 -0.00027
92.9 -0.00032
92.95 -0.0005
93 -0.00037
93.05 -0.00016
93.1 -0.00019
93.15 -0.0001
93.2 0.00002
93.25 0.00015
93.3 0.00027
93.35 0.00018
93.4 0.00015
93.45 -0.00002
93.5 0.00005
93.55 -0.00004
93.6 -0.00014
93.65 -0.00008
93.7 -0.00022
93.75 -0.00015
93.8 0.0001
93.85 0.00015
93.9 0.00008
93.95 -0.00007
94 -0.00016
94.05 -0.0003
94.1 -0.0002
94.15 0.00002
94.2 0.00026
94.25 0.00019
94.3 0.0003
94.35 0.0005
94.4 0.00047
94.45 0.00053
94.5 0.00045
94.55 0.00045
94.6 0.00033
94.65 0.00041
94.7 0.00038
94.75 0.00045
94.8 0.00033
94.85 0.00026
94.9 0.00014
94.95 -0.00008
95 -0.00007
95.05 -0.00012
95.1 -0.00014
95.15 0.00005
95.2 -0.00002
95.25 0.00005
95.3 0.00008
95.35 0.0001
95.4 -0.00007
95.45 -0.00022
95.5 -0.00026
95.55 -0.00009
95.6 0.00005
95.65 0.00032
95.7 0.00058
95.75 0.00066
95.8 0.00071
95.85 0.00062
95.9 0.00034
95.95 -0.00002
96 -0.00017
96.05 -0.00022
96.1 -0.00014
96.15 -0.00012
96.2 -0.00026
96.25 -0.00037
96.3 -0.00028
96.35 -0.00024
96.4 -0.00018
96.45 -0.0002
96.5 -0.00028
96.55 -0.00031
96.6 -0.00018
96.65 -0.00018
96.7 -0.0001
96.75 -0.00023
96.8 -0.00011
96.85 -0.00002
96.9 -0.00011
96.95 -0.00006
97 0.00013
97.05 0.00014
97.1 0.00004
97.15 -0.00009
97.2 -0.00038
97.25 -0.00061
97.3 -0.00064
97.35 -0.0005
97.4 -0.00055
97.45 -0.00048
97.5 -0.0006
97.55 -0.0006
97.6 -0.00057
97.65 -0.00037
97.7 -0.00038
97.75 -0.00034
97.8 -0.00035
97.85 -0.00048
97.9 -0.00034
97.95 -0.00034
98 -0.00021
98.05 -0.00019
98.1 -0.00037
98.15 -0.0006
98.2 -0.00083
98.25 -0.00086
98.3 -0.00075
98.35 -0.00047
98.4 -0.00024
98.45 0.00002
98.5 0.00018
98.55 0.0003
98.6 0.00044
98.65 0.00038
98.7 0.00021
98.75 0.0001
98.8 -0.00017
98.85 -0.0003
98.9 -0.00044
98.95 -0.00034
99 -0.00019
99.05 0.00005
99.1 0.00016
99.15 0.00038
99.2 0.00067
99.25 0.00099
99.3 0.00119
99.35 0.0012
99.4 0.00106
99.45 0.00081
99.5 0.00075
99.55 0.00074
99.6 0.00054
99.65 0.0002
99.7 -0.00002
99.75 -0.00025
99.8 -0.00055
99.85 -0.00054
99.9 -0.00059
99.95 -0.00052
