0 0
0.05 0.00037
0.1 0.00091
0.15 0.00179
0.2 0.00256
0.25 0.00283
0.3 0.00314
0.35 0.00314
0.4 0.00313
0.45 0.00326
0.5 0.00371
0.55 0.00405
0.6 0.00435
0.65 0.00449
0.7 0.00449
0.75 0.00412
0.8 0.00366
0.85 0.00312
0.9 0.00273
0.95 0.00237
1 0.0019
1.05 0.0017
1.1 0.00173
1.15 0.00182
1.2 0.00211
1.25 0.00233
1.3 0.00246
1.35 0.00271
1.4 0.00255
1.45 0.00238
1.5 0.00233
1.55 0.00231
1.6 0.0023
1.65 0.00252
1.7 0.00296
1.75 0.00306
1.8 0.00317
1.85 0.00317
1.9 0.00338
1.95 0.00323
2 0.00281
2.05 0.00236
2.1 0.00183
2.15 0.00173
2.2 0.00205
2.25 0.00234
2.3 0.00278
2.35 0.00335
2.4 0.00362
2.45 0.00344
2.5 0.00323
2.55 0.00278
2.6 0.0022
2.65 0.00171
2.7 0.00177
2.75 0.00178
2.8 0.00175
2.85 0.00172
2.9 0.00139
2.95 0.0013
3 0.00145
3.05 0.00181
3.1 0.00187
3.15 0.00215
3.2 0.00199
3.25 0.00213
3.3 0.00202
3.35 0.00215
3.4 0.00238
3.45 0.00216
3.5 0.00194
3.55 0.0016
3.6 0.00126
3.65 0.00143
3.7 0.00126
3.75 0.00121
3.8 0.00109
3.85 0.00101
3.9 0.00088
3.95 0.00083
4 0.0011
4.05 0.00152
4.1 0.0021
4.15 0.00242
4.2 0.00251
4.25 0.00213
4.3 0.00184
4.35 0.00158
4.4 0.00157
4.45 0.00167
4.5 0.00137
4.55 0.00115
4.6 0.00121
4.65 0.00112
4.7 0.00116
4.75 0.00136
4.8 0.00174
4.85 0.00188
4.9 0.00186
4.95 0.002
5 0.0017
5.05 0.00135
5.1 0.00102
5.15 0.00052
5.2 0.00053
5.25 0.00056
5.3 0.00096
5.35 0.00104
5.4 0.00136
5.45 0.00146
5.5 0.00154
5.55 0.00141
5.6 0.00136
5.65 0.00152
5.7 0.00156
5.75 0.00142
5.8 0.00099
5.85 0.00067
5.9 0.00037
5.95 0.00001
6 -0.00012
6.05 -0.00018
6.1 0.00007
6.15 0.00007
6.2 -0.00024
6.25 -0.00022
6.3 -0.00002
6.35 0.00026
6.4 0.00063
6.45 0.00062
6.5 0.0005
6.55 0.00032
6.6 0.00023
6.65 0.0005
6.7 0.00078
6.75 0.001
6.8 0.00113
6.85 0.00132
6.9 0.00149
6.95 0.00181
7 0.00178
7.05 0.0018
7.1 0.00161
7.15 0.00154
7.2 0.00173
7.25 0.00206
7.3 0.00232
7.35 0.0023
7.4 0.00212
7.45 0.00176
7.5 0.0012
7.55 0.00077
7.6 0.00017
7.65 -0.00032
7.7 -0.00068
7.75 -0.00117
7.8 -0.00165
7.85 -0.0018
7.9 -0.00166
7.95 -0.00108
8 -0.00037
8.05 0.00033
8.1 0.00062
8.15 0.00059
8.2 0.00052
8.25 0.00017
8.3 -0.00026
8.35 -0.00023
8.4 0.00004
8.45 -0.0001
8.5 0.00002
8.55 0.00023
8.6 0.00033
8.65 0.00022
8.7 0.00026
8.75 0.00042
8.8 0.00077
8.85 0.0007
8.9 0.00049
8.95 0.0006
9 0.00077
9.05 0.00078
9.1 0.00058
9.15 0.00077
9.2 0.00112
9.25 0.00154
9.3 0.00174
9.35 0.00173
9.4 0.00186
9.45 0.00174
9.5 0.00163
9.55 0.00136
9.6 0.00099
9.65 0.00043
9.7 0.00023
9.75 0.00008
9.8 0.00033
9.85 0.00067
9.9 0.00097
9.95 0.00137
10 0.0015
10.05 0.00165
10.1 0.0013
10.15 0.00099
10.2 0.00095
10.25 0.00054
10.3 0.00046
10.35 0.0001
10.4 -0.00033
10.45 -0.00038
10.5 -0.00026
10.55 0.00016
10.6 0.00062
10.65 0.001
10.7 0.00103
10.75 0.0009
10.8 0.00065
10.85 0.00066
10.9 0.00078
10.95 0.00099
11 0.00105
11.05 0.00081
11.1 0.00086
11.15 0.00067
11.2 0.00037
11.25 0.00036
11.3 0
11.35 0.00007
11.4 0.00019
11.45 0.00019
11.5 -0.00007
11.55 -0.00034
11.6 -0.0007
11.65 -0.00066
11.7 -0.00061
11.75 -0.00068
11.8 -0.00106
11.85 -0.00128
11.9 -0.00135
11.95 -0.00108
12 -0.00094
12.05 -0.00085
12.1 -0.00107
12.15 -0.00101
12.2 -0.00123
12.25 -0.00132
12.3 -0.00151
12.35 -0.00184
12.4 -0.00188
12.45 -0.00189
12.5 -0.00187
12.55 -0.00183
12.6 -0.00176
12.65 -0.00144
12.7 -0.00106
12.75 -0.00079
12.8 -0.00054
12.85 -0.00038
12.9 -0.0001
12.95 0.00044
13 0.00049
13.05 0.00047
13.1 0.00015
13.15 -0.00008
13.2 -0.00041
13.25 -0.00039
13.3 -0.00035
13.35 -0.00017
13.4 -0.00008
13.45 -0.00007
13.5 -0.00039
13.55 -0.00048
13.6 -0.00056
13.65 -0.00082
13.7 -0.00068
13.75 -0.00019
13.8 0.00016
13.85 0.00059
13.9 0.00056
13.95 0.00023
14 0.00031
14.05 0.00034
14.1 0.00001
14.15 -0.00027
14.2 -0.00043
14.25 -0.00048
14.3 -0.00061
14.35 -0.00049
14.4 -0.00037
14.45 0.00001
14.5 0.00008
14.55 0.00035
14.6 0.00077
14.65 0.00111
14.7 0.00121
14.75 0.001
14.8 0.00078
14.85 0.00081
14.9 0.00083
14.95 0.00085
15 0.00059
15.05 0.00003
15.1 -0.00009
15.15 -0.00037
15.2 -0.00052
15.25 -0.0009
15.3 -0.00091
15.35 -0.00082
15.4 -0.00055
15.45 -0.00057
15.5 -0.0008
15.55 -0.0006
15.6 -0.0003
15.65 -0.00009
15.7 0.0004
15.75 0.00059
15.8 0.00038
15.85 0.00012
15.9 0.00029
15.95 0.00053
16 0.00073
16.05 0.00058
16.1 0.00046
16.15 0.00045
16.2 0.00075
16.25 0.00064
16.3 0.00048
16.35 0.00012
16.4 0.00023
16.45 0.00038
16.5 0.0006
16.55 0.00041
16.6 0.00042
16.65 0.00013
16.7 -0.00004
16.75 0.00011
16.8 0.00037
16.85 0.00024
16.9 0.00041
16.95 0.00073
17 0.00113
17.05 0.00138
17.1 0.00145
17.15 0.00151
17.2 0.00132
17.25 0.00091
17.3 0.00057
17.35 0.0006
17.4 0.00073
17.45 0.00056
17.5 0.00051
17.55 0.00075
17.6 0.00077
17.65 0.00055
17.7 0.00068
17.75 0.00069
17.8 0.00055
17.85 0.00029
17.9 -0.00017
17.95 -0.00016
18 -0.00024
18.05 -0.00008
18.1 0.00016
18.15 0.00009
18.2 0.00008
18.25 0.00035
18.3 0.00057
18.35 0.00065
18.4 0.00076
18.45 0.00056
18.5 0.00034
18.55 0.00004
18.6 -0.00051
18.65 -0.00078
18.7 -0.00064
18.75 -0.00052
18.8 -0.00064
18.85 -0.00087
18.9 -0.00091
18.95 -0.00079
19 -0.00034
19.05 0.00008
19.1 0.00052
19.15 0.00081
19.2 0.00115
19.25 0.00111
19.3 0.00064
19.35 0.00057
19.4 0.00036
19.45 0.00007
19.5 -0.0001
19.55 -0.00042
19.6 -0.00036
19.65 -0.00012
19.7 0.00003
19.75 0.00042
19.8 0.00025
19.85 0.00007
19.9 -0.00021
19.95 -0.0007
20 -0.00067
20.05 -0.00073
20.1 -0.00089
20.15 -0.0006
20.2 -0.00014
20.25 0.00027
20.3 0.00025
20.35 0.00003
20.4 -0.00015
20.45 -0.00016
20.5 -0.00035
20.55 -0.00041
20.6 -0.00066
20.65 -0.00058
20.7 -0.00053
20.75 -0.00049
20.8 -0.00055
20.85 -0.00045
20.9 -0.00043
20.95 -0.0007
21 -0.00109
21.05 -0.00132
21.1 -0.00114
21.15 -0.00109
21.2 -0.00134
21.25 -0.0015
21.3 -0.00181
21.35 -0.00162
21.4 -0.00164
21.45 -0.00142
21.5 -0.00122
21.55 -0.00064
21.6 -0.00056
21.65 -0.00076
21.7 -0.00065
21.75 -0.00032
21.8 -0.00042
21.85 -0.0008
21.9 -0.00129
21.95 -0.00184
22 -0.00213
22.05 -0.00212
22.1 -0.00191
22.15 -0.00149
22.2 -0.00086
22.25 -0.00007
22.3 0.00038
22.35 0.00038
22.4 0.00045
22.45 0.00022
22.5 0.00017
22.55 -0.00009
22.6 -0.00003
22.65 0.00025
22.7 0.00058
22.75 0.00059
22.8 0.00052
22.85 0.00067
22.9 0.00092
22.95 0.0011
23 0.00142
23.05 0.00131
23.1 0.00142
23.15 0.0011
23.2 0.00089
23.25 0.0007
23.3 0.00033
23.35 -0.00028
23.4 -0.00039
23.45 -0.00041
23.5 -0.00023
23.55 0.0002
23.6 0.00059
23.65 0.0009
23.7 0.00082
23.75 0.00089
23.8 0.00088
23.85 0.00069
23.9 0.00064
23.95 0.00049
24 0.00011
24.05 -0.00023
24.1 -0.00011
24.15 -0.00033
24.2 -0.0005
24.25 -0.00029
24.3 -0.00015
24.35 -0.00042
24.4 -0.00079
24.45 -0.00071
24.5 -0.00069
24.55 -0.00087
24.6 -0.00128
24.65 -0.0016
24.7 -0.00186
24.75 -0.00166
24.8 -0.00114
24.85 -0.0009
24.9 -0.00073
24.95 -0.00066
25 -0.00023
25.05 0.00028
25.1 0.00049
25.15 0.00076
25.2 0.00079
25.25 0.00046
25.3 0.00026
25.35 -0.00009
25.4 -0.00064
25.45 -0.00102
25.5 -0.00084
25.55 -0.00083
25.6 -0.00083
25.65 -0.00075
25.7 -0.00072
25.75 -0.00089
25.8 -0.00075
25.85 -0.00065
25.9 -0.00036
25.95 -0.00047
26 -0.00046
26.05 -0.00041
26.1 -0.00027
26.15 -0.00011
26.2 -0.00031
26.25 -0.00025
26.3 -0.0002
26.35 -0.00046
26.4 -0.0009
26.45 -0.00104
26.5 -0.00137
26.55 -0.00159
26.6 -0.00165
26.65 -0.00127
26.7 -0.00063
26.75 -0.00021
26.8 0.00026
26.85 0.00067
26.9 0.00079
26.95 0.001
27 0.00129
27.05 0.00124
27.1 0.00079
27.15 0.00031
27.2 0.00034
27.25 0.0006
27.3 0.00047
27.35 0.0002
27.4 0.00001
27.45 0.00027
27.5 0.00061
27.55 0.00107
27.6 0.0011
27.65 0.00086
27.7 0.00054
27.75 0.00038
27.8 0.00003
27.85 -0.00037
27.9 -0.00092
27.95 -0.00124
28 -0.00134
28.05 -0.00158
28.1 -0.00133
28.15 -0.00137
28.2 -0.00094
28.25 -0.0006
28.3 -0.00024
28.35 0.00035
28.4 0.00047
28.45 0.00068
28.5 0.00046
28.55 0.00023
28.6 -0.00007
28.65 -0.00042
28.7 -0.00067
28.75 -0.00078
28.8 -0.00098
28.85 -0.00104
28.9 -0.0012
28.95 -0.00129
29 -0.00115
29.05 -0.00124
29.1 -0.00146
29.15 -0.00139
29.2 -0.00101
29.25 -0.00056
29.3 -0.00028
29.35 -0.00007
29.4 0.00026
29.45 0.00052
29.5 0.00044
29.55 0.00037
29.6 0.0005
29.65 0.00053
29.7 0.00089
29.75 0.00096
29.8 0.00107
29.85 0.00102
29.9 0.00103
29.95 0.00099
30 0.00075
30.05 0.00045
30.1 0.00042
30.15 0.00069
30.2 0.00058
30.25 0.00064
30.3 0.00042
30.35 0.00005
30.4 0.00009
30.45 -0.00011
30.5 -0.00053
30.55 -0.00053
30.6 -0.00066
30.65 -0.00043
30.7 -0.00047
30.75 -0.00053
30.8 -0.00029
30.85 0.00021
30.9 0.00059
30.95 0.00088
31 0.00076
31.05 0.00065
31.1 0.00059
31.15 0.00029
31.2 0.00036
31.25 0.00033
31.3 0.00012
31.35 0.00016
31.4 0.00033
31.45 0.00038
31.5 0.00003
31.55 0.00017
31.6 0.00058
31.65 0.00096
31.7 0.00095
31.75 0.00069
31.8 0.00019
31.85 -0.00004
31.9 -0.00014
31.95 -0.00039
32 -0.00066
32.05 -0.00081
32.1 -0.00118
32.15 -0.00134
32.2 -0.00149
32.25 -0.00134
32.3 -0.00126
32.35 -0.00088
32.4 -0.00076
32.45 -0.00091
32.5 -0.00113
32.55 -0.00088
32.6 -0.00065
32.65 -0.00017
32.7 -0.00011
32.75 0.00031
32.8 0.00037
32.85 0.00011
32.9 0.00026
32.95 0.00008
33 -0.00015
33.05 0.00001
33.1 0.00008
33.15 0.00005
33.2 0.00026
33.25 0.00048
33.3 0.00087
33.35 0.00091
33.4 0.00086
33.45 0.00084
33.5 0.00103
33.55 0.00099
33.6 0.00094
33.65 0.00059
33.7 0.00023
33.75 0.00013
33.8 0.00036
33.85 0.00048
33.9 0.00023
33.95 0.00034
34 0.00011
34.05 0.00022
34.1 0.00048
34.15 0.00026
34.2 0.00014
34.25 -0.00019
34.3 -0.00012
34.35 0
34.4 -0.00014
34.45 -0.00018
34.5 -0.00007
34.55 -0.00003
34.6 -0.00023
34.65 -0.00064
34.7 -0.00104
34.75 -0.00093
34.8 -0.00046
34.85 -0.00029
34.9 -0.00043
34.95 -0.00077
35 -0.00088
35.05 -0.00095
35.1 -0.00089
35.15 -0.00106
35.2 -0.00071
35.25 -0.00014
35.3 -0.00009
35.35 0.00016
35.4 0.00046
35.45 0.0009
35.5 0.00131
35.55 0.00166
35.6 0.00148
35.65 0.00125
35.7 0.00118
35.75 0.00093
35.8 0.00096
35.85 0.00114
35.9 0.0012
35.95 0.00119
36 0.00111
36.05 0.00086
36.1 0.00093
36.15 0.00099
36.2 0.00127
36.25 0.00147
36.3 0.00129
36.35 0.00137
36.4 0.0016
36.45 0.00155
36.5 0.00151
36.55 0.00161
36.6 0.00181
36.65 0.00183
36.7 0.00199
36.75 0.0019
36.8 0.00201
36.85 0.00168
36.9 0.00126
36.95 0.00076
37 0.00045
37.05 0.00043
37.1 0.00001
37.15 -0.00043
37.2 -0.00035
37.25 -0.0005
37.3 -0.00028
37.35 -0.00012
37.4 0.0001
37.45 0.00021
37.5 -0.0001
37.55 -0.00021
37.6 -0.00023
37.65 0.00008
37.7 0.00001
37.75 0.00021
37.8 0.00002
37.85 -0.00016
37.9 -0.00025
37.95 -0.00023
38 0.00009
38.05 0.00054
38.1 0.00097
38.15 0.00139
38.2 0.00182
38.25 0.00216
38.3 0.00227
38.35 0.00205
38.4 0.00139
38.45 0.00073
38.5 0.00033
38.55 0.00002
38.6 -0.00009
38.65 -0.00038
38.7 -0.00085
38.75 -0.00135
38.8 -0.00159
38.85 -0.00175
38.9 -0.00168
38.95 -0.00189
39 -0.0022
39.05 -0.00204
39.1 -0.00205
39.15 -0.00159
39.2 -0.00153
39.25 -0.0012
39.3 -0.00068
39.35 -0.00058
39.4 -0.00014
39.45 -0.00016
39.5 0.00003
39.55 0
39.6 -0.00016
39.65 -0.00004
39.7 0.00022
39.75 0.00068
39.8 0.00109
39.85 0.00155
39.9 0.00188
39.95 0.00164
40 0.00101
40.05 0.00033
40.1 -0.00002
40.15 -0.00008
40.2 -0.00029
40.25 -0.00047
40.3 -0.00033
40.35 -0.00042
40.4 -0.00054
40.45 -0.00062
40.5 -0.00064
40.55 -0.0009
40.6 -0.00102
40.65 -0.00072
40.7 -0.00031
40.75 -0.00007
40.8 0.00025
40.85 0.00047
40.9 0.00025
40.95 0.00028
41 0.00056
41.05 0.00063
41.1 0.00038
41.15 0.00024
41.2 -0.00014
41.25 -0.0002
41.3 -0.00012
41.35 0.0001
41.4 0.00014
41.45 -0.00011
41.5 -0.00011
41.55 -0.00002
41.6 0.00013
41.65 0.00015
41.7 0.00046
41.75 0.00051
41.8 0.00042
41.85 0.00056
41.9 0.0004
41.95 0.00035
42 0.00041
42.05 0.00048
42.1 0.00017
42.15 0.00003
42.2 -0.00033
42.25 -0.00116
42.3 -0.00234
42.35 -0.00369
42.4 -0.00519
42.45 -0.00633
42.5 -0.0075
42.55 -0.0084
42.6 -0.00963
42.65 -0.01052
42.7 -0.01153
42.75 -0.01298
42.8 -0.01491
42.85 -0.01697
42.9 -0.01939
42.95 -0.022
43 -0.02546
43.05 -0.02939
43.1 -0.0339
43.15 -0.03896
43.2 -0.04446
43.25 -0.05011
43.3 -0.05615
43.35 -0.0629
43.4 -0.0697
43.45 -0.07701
43.5 -0.08465
43.55 -0.09278
43.6 -0.10173
43.65 -0.11116
43.7 -0.12074
43.75 -0.13052
43.8 -0.13999
43.85 -0.14926
43.9 -0.15876
43.95 -0.16805
44 -0.1768
44.05 -0.18523
44.1 -0.19325
44.15 -0.20039
44.2 -0.20672
44.25 -0.2118
44.3 -0.21571
44.35 -0.21839
44.4 -0.21938
44.45 -0.21893
44.5 -0.21692
44.55 -0.21351
44.6 -0.20841
44.65 -0.20172
44.7 -0.19397
44.75 -0.18479
44.8 -0.17428
44.85 -0.16291
44.9 -0.15061
44.95 -0.13732
45 -0.12364
45.05 -0.10945
45.1 -0.09533
45.15 -0.08075
45.2 -0.06582
45.25 -0.05089
45.3 -0.03611
45.35 -0.02169
45.4 -0.00777
45.45 0.0053
45.5 0.01747
45.55 0.02925
45.6 0.04037
45.65 0.05125
45.7 0.06181
45.75 0.07183
45.8 0.08099
45.85 0.08999
45.9 0.09859
45.95 0.10705
46 0.1149
46.05 0.12262
46.1 0.1298
46.15 0.13683
46.2 0.14316
46.25 0.14904
46.3 0.15501
46.35 0.16054
46.4 0.16575
46.45 0.1712
46.5 0.17629
46.55 0.18065
46.6 0.18472
46.65 0.18865
46.7 0.19211
46.75 0.19527
46.8 0.19746
46.85 0.19887
46.9 0.19997
46.95 0.20074
47 0.20089
47.05 0.20025
47.1 0.19879
47.15 0.19709
47.2 0.19457
47.25 0.19126
47.3 0.18761
47.35 0.18385
47.4 0.18013
47.45 0.17583
47.5 0.17152
47.55 0.16693
47.6 0.16233
47.65 0.15726
47.7 0.1519
47.75 0.14608
47.8 0.1404
47.85 0.13474
47.9 0.129
47.95 0.12339
48 0.11833
48.05 0.11328
48.1 0.10859
48.15 0.10398
48.2 0.09935
48.25 0.09479
48.3 0.09013
48.35 0.08592
48.4 0.08198
48.45 0.0779
48.5 0.07419
48.55 0.07035
48.6 0.06638
48.65 0.06232
48.7 0.05855
48.75 0.05513
48.8 0.05192
48.85 0.04859
48.9 0.04555
48.95 0.04233
49 0.03894
49.05 0.03552
49.1 0.03212
49.15 0.02862
49.2 0.02582
49.25 0.02326
49.3 0.02085
49.35 0.01863
49.4 0.01666
49.45 0.01453
49.5 0.01238
49.55 0.01024
49.6 0.00796
49.65 0.00529
49.7 0.00283
49.75 0.00012
49.8 -0.0023
49.85 -0.00458
49.9 -0.00645
49.95 -0.00819
50 -0.00962
50.05 -0.01077
50.1 -0.01181
50.15 -0.01282
50.2 -0.01384
50.25 -0.01487
50.3 -0.01596
50.35 -0.01746
50.4 -0.01875
50.45 -0.01983
50.5 -0.02072
50.55 -0.02205
50.6 -0.02328
50.65 -0.02445
50.7 -0.02527
50.75 -0.02619
50.8 -0.02714
50.85 -0.0276
50.9 -0.02791
50.95 -0.02796
51 -0.02789
51.05 -0.02807
51.1 -0.02801
51.15 -0.02786
51.2 -0.02762
51.25 -0.02779
51.3 -0.02824
51.35 -0.02836
51.4 -0.02871
51.45 -0.02914
51.5 -0.02976
51.55 -0.03007
51.6 -0.03013
51.65 -0.03018
51.7 -0.0301
51.75 -0.02993
51.8 -0.02942
51.85 -0.02929
51.9 -0.0291
51.95 -0.02854
52 -0.02802
52.05 -0.02761
52.1 -0.02719
52.15 -0.02653
52.2 -0.02611
52.25 -0.02558
52.3 -0.02554
52.35 -0.02514
52.4 -0.02502
52.45 -0.02498
52.5 -0.02506
52.55 -0.02466
52.6 -0.02397
52.65 -0.0234
52.7 -0.02295
52.75 -0.02284
52.8 -0.02282
52.85 -0.02236
52.9 -0.02193
52.95 -0.02194
53 -0.02151
53.05 -0.02088
53.1 -0.02019
53.15 -0.01964
53.2 -0.01957
53.25 -0.0192
53.3 -0.0189
53.35 -0.01898
53.4 -0.01895
53.45 -0.01878
53.5 -0.01869
53.55 -0.01864
53.6 -0.01827
53.65 -0.01809
53.7 -0.01819
53.75 -0.01822
53.8 -0.0181
53.85 -0.018
53.9 -0.01771
53.95 -0.01769
54 -0.01774
54.05 -0.01742
54.1 -0.01689
54.15 -0.01664
54.2 -0.01636
54.25 -0.01581
54.3 -0.01542
54.35 -0.01479
54.4 -0.01443
54.45 -0.01424
54.5 -0.01425
54.55 -0.01378
54.6 -0.0136
54.65 -0.01323
54.7 -0.01312
54.75 -0.013
54.8 -0.01259
54.85 -0.01217
54.9 -0.01191
54.95 -0.01154
55 -0.01148
55.05 -0.01164
55.1 -0.012
55.15 -0.01209
55.2 -0.01168
55.25 -0.01104
55.3 -0.01086
55.35 -0.01083
55.4 -0.01093
55.45 -0.01067
55.5 -0.0104
55.55 -0.00987
55.6 -0.00952
55.65 -0.00925
55.7 -0.00927
55.75 -0.00915
55.8 -0.00931
55.85 -0.00909
55.9 -0.00874
55.95 -0.00845
56 -0.00794
56.05 -0.00749
56.1 -0.00721
56.15 -0.007
56.2 -0.00695
56.25 -0.00664
56.3 -0.00669
56.35 -0.00646
56.4 -0.0064
56.45 -0.00648
56.5 -0.00628
56.55 -0.00651
56.6 -0.00638
56.65 -0.00643
56.7 -0.00661
56.75 -0.00663
56.8 -0.00697
56.85 -0.00742
56.9 -0.00739
56.95 -0.00705
57 -0.00642
57.05 -0.00568
57.1 -0.00557
57.15 -0.00543
57.2 -0.00556
57.25 -0.00532
57.3 -0.00517
57.35 -0.005
57.4 -0.0047
57.45 -0.00487
57.5 -0.00536
57.55 -0.00568
57.6 -0.006
57.65 -0.00612
57.7 -0.00607
57.75 -0.00578
57.8 -0.00533
57.85 -0.00468
57.9 -0.00391
57.95 -0.00345
58 -0.00333
58.05 -0.00334
58.1 -0.00315
58.15 -0.00334
58.2 -0.00377
58.25 -0.00385
58.3 -0.00398
58.35 -0.00388
58.4 -0.00368
58.45 -0.00327
58.5 -0.00321
58.55 -0.00334
58.6 -0.00377
58.65 -0.0037
58.7 -0.00394
58.75 -0.00381
58.8 -0.00353
58.85 -0.00351
58.9 -0.00362
58.95 -0.00397
59 -0.00393
59.05 -0.00398
59.1 -0.00426
59.15 -0.00454
59.2 -0.00463
59.25 -0.00483
59.3 -0.00471
59.35 -0.00449
59.4 -0.00436
59.45 -0.00412
59.5 -0.00368
59.55 -0.00333
59.6 -0.00317
59.65 -0.0031
59.7 -0.00325
59.75 -0.00319
59.8 -0.00333
59.85 -0.00309
59.9 -0.00259
59.95 -0.00233
60 -0.00234
60.05 -0.00238
60.1 -0.00215
60.15 -0.00174
60.2 -0.00177
60.25 -0.00202
60.3 -0.0023
60.35 -0.00248
60.4 -0.00286
60.45 -0.00294
60.5 -0.00318
60.55 -0.00315
60.6 -0.00331
60.65 -0.00319
60.7 -0.00283
60.75 -0.00277
60.8 -0.00284
60.85 -0.00313
60.9 -0.00317
60.95 -0.00297
61 -0.00274
61.05 -0.00275
61.1 -0.00253
61.15 -0.00252
61.2 -0.00269
61.25 -0.00278
61.3 -0.00245
61.35 -0.00236
61.4 -0.00215
61.45 -0.00185
61.5 -0.0013
61.55 -0.00115
61.6 -0.00118
61.65 -0.00154
61.7 -0.00152
61.75 -0.00168
61.8 -0.00166
61.85 -0.00186
61.9 -0.00223
61.95 -0.00209
62 -0.00156
62.05 -0.00142
62.1 -0.00154
62.15 -0.0013
62.2 -0.00085
62.25 -0.00031
62.3 0.00031
62.35 0.00057
62.4 0.00074
62.45 0.00044
62.5 -0.00023
62.55 -0.00035
62.6 -0.00014
62.65 -0.00001
62.7 -0.00009
62.75 -0.00053
62.8 -0.00054
62.85 -0.00071
62.9 -0.00103
62.95 -0.001
63 -0.00085
63.05 -0.00081
63.1 -0.00043
63.15 -0.00054
63.2 -0.00047
63.25 -0.00076
63.3 -0.00107
63.35 -0.00158
63.4 -0.00186
63.45 -0.00213
63.5 -0.00202
63.55 -0.00201
63.6 -0.00206
63.65 -0.00204
63.7 -0.00171
63.75 -0.00164
63.8 -0.00125
63.85 -0.00078
63.9 -0.00021
63.95 -0.00002
64 -0.00004
64.05 -0.00012
64.1 0.00013
64.15 0.00025
64.2 -0
64.25 -0.00018
64.3 -0.00064
64.35 -0.00088
64.4 -0.00124
64.45 -0.00135
64.5 -0.00145
64.55 -0.00121
64.6 -0.00119
64.65 -0.00112
64.7 -0.001
64.75 -0.00086
64.8 -0.00054
64.85 -0.00029
64.9 0.00021
64.95 0.0005
65 0.00054
65.05 0.00083
65.1 0.00094
65.15 0.00082
65.2 0.00035
65.25 0.00023
65.3 -0.00024
65.35 -0.00084
65.4 -0.0012
65.45 -0.00165
65.5 -0.00201
65.55 -0.0021
65.6 -0.00207
65.65 -0.00211
65.7 -0.0017
65.75 -0.00148
65.8 -0.00102
65.85 -0.001
65.9 -0.00079
65.95 -0.00068
66 -0.0004
66.05 -0.0004
66.1 -0.00032
66.15 -0.00052
66.2 -0.00065
66.25 -0.00056
66.3 -0.00073
66.35 -0.001
66.4 -0.00116
66.45 -0.00135
66.5 -0.00115
66.55 -0.00058
66.6 -0.00047
66.65 -0.00006
66.7 0.00011
66.75 0.0001
66.8 0.00031
66.85 0.00059
66.9 0.00055
66.95 0.00066
67 0.00085
67.05 0.00083
67.1 0.00063
67.15 0.00063
67.2 0.00042
67.25 0.00031
67.3 0.00012
67.35 0.00023
67.4 -0.00002
67.45 -0.00038
67.5 -0.00056
67.55 -0.00092
67.6 -0.00129
67.65 -0.00145
67.7 -0.00129
67.75 -0.00125
67.8 -0.00122
67.85 -0.00096
67.9 -0.00045
67.95 0.00011
68 0.00025
68.05 0.00054
68.1 0.00059
68.15 0.00086
68.2 0.0011
68.25 0.00091
68.3 0.00097
68.35 0.0011
68.4 0.00138
68.45 0.00123
68.5 0.00096
68.55 0.00101
68.6 0.00111
68.65 0.00107
68.7 0.00105
68.75 0.00071
68.8 0.0003
68.85 0.00006
68.9 0.00019
68.95 0.00055
69 0.00084
69.05 0.00101
69.1 0.00133
69.15 0.00157
69.2 0.00152
69.25 0.00131
69.3 0.00116
69.35 0.00058
69.4 0.00046
69.45 0.00029
69.5 0.00028
69.55 -0.00013
69.6 -0.00018
69.65 -0.00017
69.7 -0.00021
69.75 -0.0005
69.8 -0.00053
69.85 -0.00085
69.9 -0.00084
69.95 -0.00103
70 -0.00142
70.05 -0.00142
70.1 -0.00098
70.15 -0.00052
70.2 -0.00043
70.25 -0.00037
70.3 -0.00055
70.35 -0.0003
70.4 0.00016
70.45 0.00026
70.5 0.00007
70.55 -0.00032
70.6 -0.00083
70.65 -0.00137
70.7 -0.00176
70.75 -0.00154
70.8 -0.00137
70.85 -0.00137
70.9 -0.00118
70.95 -0.00093
71 -0.00076
71.05 -0.00045
71.1 -0.0002
71.15 0.00032
71.2 0.0007
71.25 0.00123
71.3 0.00154
71.35 0.00155
71.4 0.00174
71.45 0.00143
71.5 0.00118
71.55 0.00098
71.6 0.00095
71.65 0.0007
71.7 0.00077
71.75 0.00041
71.8 0.00001
71.85 -0.00052
71.9 -0.00058
71.95 -0.00072
72 -0.00069
72.05 -0.00098
72.1 -0.0013
72.15 -0.00158
72.2 -0.00155
72.25 -0.00111
72.3 -0.00093
72.35 -0.00093
72.4 -0.00104
72.45 -0.00083
72.5 -0.00038
72.55 -0.00031
72.6 -0.00019
72.65 0.00012
72.7 -0.00002
72.75 0.00009
72.8 0.00022
72.85 -0.00007
72.9 -0.00043
72.95 -0.00093
73 -0.00082
73.05 -0.00089
73.1 -0.00074
73.15 -0.00052
73.2 -0.00066
73.25 -0.00039
73.3 -0.00047
73.35 -0.00062
73.4 -0.00097
73.45 -0.00124
73.5 -0.00146
73.55 -0.00139
73.6 -0.00096
73.65 -0.00067
73.7 -0.00078
73.75 -0.00086
73.8 -0.00049
73.85 0.00013
73.9 0.00041
73.95 0.00048
74 0.0007
74.05 0.00099
74.1 0.00105
74.15 0.00105
74.2 0.00112
74.25 0.00074
74.3 0.00022
74.35 -0.00027
74.4 -0.00057
74.45 -0.00106
74.5 -0.00109
74.55 -0.00067
74.6 -0.00029
74.65 -0.00037
74.7 -0.0001
74.75 -0.00012
74.8 -0.00027
74.85 -0.00065
74.9 -0.00076
74.95 -0.00041
75 -0.00032
75.05 -0.00008
75.1 0.00014
75.15 -0.00006
75.2 -0.00013
75.25 0.00004
75.3 0.00013
75.35 0.00035
75.4 0.00053
75.45 0.00041
75.5 0.00043
75.55 0.00027
75.6 0.0004
75.65 0.00015
75.7 0.00012
75.75 -0.00022
75.8 -0.00045
75.85 -0.00037
75.9 -0.00018
75.95 -0.0002
76 -0.00043
76.05 -0.0004
76.1 -0.00066
76.15 -0.00052
76.2 -0.00041
76.25 -0.0002
76.3 -0.00006
76.35 0.00002
76.4 0.00006
76.45 0.00003
76.5 0.00023
76.55 0.00042
76.6 0.00041
76.65 0.00063
76.7 0.00087
76.75 0.00129
76.8 0.00126
76.85 0.00136
76.9 0.00128
76.95 0.00105
77 0.0005
77.05 -0.00026
77.1 -0.00045
77.15 -0.00088
77.2 -0.00125
77.25 -0.0012
77.3 -0.00127
77.35 -0.00113
77.4 -0.00127
77.45 -0.00144
77.5 -0.0013
77.55 -0.001
77.6 -0.00083
77.65 -0.0007
77.7 -0.00069
77.75 -0.00051
77.8 -0.00034
77.85 -0.00011
77.9 -0.00003
77.95 0.00037
78 0.00081
78.05 0.00089
78.1 0.00052
78.15 0.00021
78.2 -0.0001
78.25 -0.00039
78.3 -0.00031
78.35 -0.00041
78.4 -0.00061
78.45 -0.00071
78.5 -0.00093
78.55 -0.00102
78.6 -0.00073
78.65 -0.00056
78.7 -0.00044
78.75 0.00004
78.8 0.00061
78.85 0.00084
78.9 0.00128
78.95 0.0013
79 0.00153
79.05 0.00141
79.1 0.00104
79.15 0.00041
79.2 -0.00008
79.25 -0.00016
79.3 0.00004
79.35 0.00009
79.4 0.00045
79.45 0.00034
79.5 0.00005
79.55 0.0001
79.6 -0.00015
79.65 -0.00024
79.7 -0.00044
79.75 -0.00052
79.8 -0.00034
79.85 -0.00026
79.9 0.00012
79.95 0.00011
80 -0.00005
80.05 -0.00042
80.1 -0.00048
80.15 -0.00062
80.2 -0.00091
80.25 -0.0013
80.3 -0.00165
80.35 -0.00173
80.4 -0.00134
80.45 -0.00109
80.5 -0.00056
80.55 0.00008
80.6 0.0004
80.65 0.00073
80.7 0.00069
80.75 0.0009
80.8 0.00103
80.85 0.00093
80.9 0.00075
80.95 0.0003
81 0.00034
81.05 0.00012
81.1 -0.00004
81.15 0.00006
81.2 -0.00013
81.25 -0.00009
81.3 -0.00018
81.35 0.0001
81.4 -0.00007
81.45 -0.0001
81.5 0.00021
81.55 0.00005
81.6 -0.00023
81.65 -0.00007
81.7 0.0003
81.75 0.00041
81.8 0.00081
81.85 0.00112
81.9 0.0009
81.95 0.0007
82 0.00056
82.05 0.00056
82.1 0.00024
82.15 0.00027
82.2 0.00023
82.25 0.00004
82.3 -0.0004
82.35 -0.00098
82.4 -0.00138
82.45 -0.00143
82.5 -0.00116
82.55 -0.00122
82.6 -0.00118
82.65 -0.00083
82.7 -0.00035
82.75 -0.00002
82.8 0.00024
82.85 0.00007
82.9 0.00031
82.95 0.00035
83 0.0002
83.05 0.00023
83.1 0.00047
83.15 0.00078
83.2 0.0006
83.25 0.00057
83.3 0.00036
83.35 0.00046
83.4 0.00078
83.45 0.00096
83.5 0.00066
83.55 0.00055
83.6 0.00065
83.65 0.00039
83.7 0.00011
83.75 0.00003
83.8 -0.00008
83.85 0.00002
83.9 0.00011
83.95 0.00013
84 -0.0002
84.05 -0.00048
84.1 -0.00091
84.15 -0.00136
84.2 -0.00184
84.25 -0.00203
84.3 -0.00195
84.35 -0.00183
84.4 -0.00166
84.45 -0.00136
84.5 -0.00096
84.55 -0.00029
84.6 0.0005
84.65 0.00077
84.7 0.00121
84.75 0.00105
84.8 0.00063
84.85 0.00022
84.9 0.0003
84.95 0.00063
85 0.00068
85.05 0.00092
85.1 0.001
85.15 0.00101
85.2 0.00096
85.25 0.00051
85.3 0.00053
85.35 0.00074
85.4 0.00047
85.45 0.00016
85.5 0.00025
85.55 0.00043
85.6 0.00069
85.65 0.00062
85.7 0.00045
85.75 0.00052
85.8 0.00058
85.85 0.00053
85.9 0.00077
85.95 0.00069
86 0.00088
86.05 0.00096
86.1 0.00121
86.15 0.00106
86.2 0.00058
86.25 0.00032
86.3 0.00041
86.35 0.00018
86.4 0.00032
86.45 0.0004
86.5 0.00047
86.55 0.00079
86.6 0.00107
86.65 0.0008
86.7 0.00066
86.75 0.00025
86.8 0.00015
86.85 -0.0002
86.9 -0.00007
86.95 -0.00035
87 -0.00059
87.05 -0.00086
87.1 -0.00128
87.15 -0.00133
87.2 -0.00121
87.25 -0.00109
87.3 -0.00107
87.35 -0.00069
87.4 -0.00047
87.45 -0.00035
87.5 0.0001
87.55 0.00059
87.6 0.00076
87.65 0.00105
87.7 0.00143
87.75 0.00155
87.8 0.0016
87.85 0.00131
87.9 0.00098
87.95 0.00095
88 0.00078
88.05 0.00083
88.1 0.00073
88.15 0.00044
88.2 0.0003
88.25 0.00051
88.3 0.00047
88.35 0.00054
88.4 0.00041
88.45 0.00003
88.5 -0.00039
88.55 -0.00058
88.6 -0.00036
88.65 0.00001
88.7 0.0001
88.75 0.00028
88.8 0.0006
88.85 0.00087
88.9 0.00123
88.95 0.00159
89 0.00158
89.05 0.00172
89.1 0.00186
89.15 0.00183
89.2 0.00156
89.25 0.00087
89.3 0.00026
89.35 -0.00024
89.4 -0.0009
89.45 -0.00144
89.5 -0.00162
89.55 -0.00141
89.6 -0.00119
89.65 -0.00113
89.7 -0.00091
89.75 -0.00038
89.8 -0.00024
89.85 -0.00023
89.9 -0.00057
89.95 -0.00066
90 -0.00048
90.05 -0.00017
90.1 -0.00022
90.15 -0.00061
90.2 -0.00071
90.25 -0.00042
90.3 -0.00052
90.35 -0.00089
90.4 -0.00079
90.45 -0.0005
90.5 -0.00055
90.55 -0.00063
90.6 -0.00039
90.65 -0.00029
90.7 -0.00024
90.75 0.00011
90.8 0.00022
90.85 -0.00008
90.9 -0.00035
90.95 -0.00046
91 -0.00075
91.05 -0.00062
91.1 -0.0008
91.15 -0.00079
91.2 -0.00044
91.25 -0.00013
91.3 0.00003
91.35 0.0004
91.4 0.00083
91.45 0.00086
91.5 0.00044
91.55 0.00041
91.6 0.00015
91.65 0.00009
91.7 0.00017
91.75 -0.00002
91.8 -0.00014
91.85 -0.00024
91.9 -0.00004
91.95 -0.00014
92 0.00008
92.05 0.00031
92.1 0.00013
92.15 0.00031
92.2 0.00071
92.25 0.00078
92.3 0.00087
92.35 0.00103
92.4 0.00072
92.45 0.00022
92.5 0.00006
92.55 0.00014
92.6 0.00005
92.65 0.00017
92.7 -0.00005
92.75 0.00008
92.8 -0.00021
92.85 -0.00008
92.9 0.00013
92.95 -0
93 0.00023
93.05 0.00055
93.1 0.001
93.15 0.00109
93.2 0.00132
93.25 0.00127
93.3 0.00074
93.35 0.00008
93.4 -0.00051
93.45 -0.00061
93.5 -0.00044
93.55 -0.00004
93.6 -0.00013
93.65 -0.00004
93.7 0.00034
93.75 0.00081
93.8 0.00074
93.85 0.00083
93.9 0.00045
93.95 0.00027
94 0.0003
94.05 -0.00009
94.1 -0.00032
94.15 -0.00061
94.2 -0.00057
94.25 -0.00082
94.3 -0.00101
94.35 -0.00143
94.4 -0.00163
94.45 -0.0015
94.5 -0.00107
94.55 -0.00058
94.6 -0.00021
94.65 -0.00019
94.7 -0.00003
94.75 0.00022
94.8 0.00044
94.85 0.0007
94.9 0.00113
94.95 0.0016
95 0.0018
95.05 0.00194
95.1 0.00149
95.15 0.0008
95.2 0.00058
95.25 0.00034
95.3 0.00028
95.35 0.00033
95.4 -0.00006
95.45 -0.00001
95.5 -0.00013
95.55 -0.0003
95.6 -0.00051
95.65 -0.00045
95.7 -0.00073
95.75 -0.00105
95.8 -0.00143
95.85 -0.00178
95.9 -0.00154
95.95 -0.00129
96 -0.00127
96.05 -0.0009
96.1 -0.00028
96.15 -0.00018
96.2 -0.00035
96.25 -0.00056
96.3 -0.00086
96.35 -0.00104
96.4 -0.00091
96.45 -0.00058
96.5 -0.00055
96.55 -0.00028
96.6 0.00019
96.65 0.00052
96.7 0.00075
96.75 0.00085
96.8 0.00062
96.85 0.00068
96.9 0.00073
96.95 0.00057
97 0.00034
97.05 -0.00014
97.1 -0.00063
97.15 -0.00094
97.2 -0.00088
97.25 -0.00046
97.3 -0.00026
97.35 -0.00005
97.4 0.00013
97.45 -0.00012
97.5 -0.00055
97.55 -0.00107
97.6 -0.00114
97.65 -0.00139
97.7 -0.00171
97.75 -0.00163
97.8 -0.00114
97.85 -0.00104
97.9 -0.00063
97.95 0.00001
98 0.00006
98.05 -0.00021
98.1 -0.00065
98.15 -0.00079
98.2 -0.00096
98.25 -0.00105
98.3 -0.00097
98.35 -0.00056
98.4 -0.00031
98.45 -0.00048
98.5 -0.0006
98.55 -0.00086
98.6 -0.00084
98.65 -0.00047
98.7 -0.00039
98.75 -0.00005
98.8 0.00041
98.85 0.00046
98.9 0.00034
98.95 -0.00005
99 -0.0003
99.05 -0.00041
99.1 -0.00025
99.15 -0.00041
99.2 -0.00026
99.25 0.00004
99.3 -0.00011
99.35 -0.00053
99.4 -0.0009
99.45 -0.00129
99.5 -0.00117
99.55 -0.0011
99.6 -0.00119
99.65 -0.00123
99.7 -0.00124
99.75 -0.00109
99.8 -0.0012
99.85 -0.00149
99.9 -0.00171
99.95 -0.0014
