0 0
0.05 0.00052
0.1 0.00083
0.15 0.00156
0.2 0.00259
0.25 0.00341
0.3 0.00414
0.35 0.0046
0.4 0.00453
0.45 0.00444
0.5 0.00468
0.55 0.00488
0.6 0.00473
0.65 0.00453
0.7 0.00405
0.75 0.00344
0.8 0.0033
0.85 0.00311
0.9 0.003
0.95 0.00304
1 0.00309
1.05 0.00319
1.1 0.0032
1.15 0.00296
1.2 0.00299
1.25 0.00334
1.3 0.00388
1.35 0.00431
1.4 0.00443
1.45 0.00464
1.5 0.00495
1.55 0.00466
1.6 0.00404
1.65 0.0036
1.7 0.00299
1.75 0.00222
1.8 0.00203
1.85 0.00216
1.9 0.00226
1.95 0.00213
2 0.00182
2.05 0.00182
2.1 0.00186
2.15 0.00164
2.2 0.00127
2.25 0.00117
2.3 0.00121
2.35 0.00155
2.4 0.00192
2.45 0.00239
2.5 0.00272
2.55 0.00305
2.6 0.00329
2.65 0.00321
2.7 0.00299
2.75 0.00302
2.8 0.00313
2.85 0.00336
2.9 0.00354
2.95 0.00354
3 0.00343
3.05 0.00309
3.1 0.00254
3.15 0.0021
3.2 0.00208
3.25 0.00192
3.3 0.00168
3.35 0.00124
3.4 0.00118
3.45 0.0015
3.5 0.00144
3.55 0.00137
3.6 0.00122
3.65 0.00099
3.7 0.00068
3.75 0.00039
3.8 0.00052
3.85 0.00068
3.9 0.00093
3.95 0.00086
4 0.00115
4.05 0.0014
4.1 0.0013
4.15 0.0015
4.2 0.00182
4.25 0.00205
4.3 0.00178
4.35 0.00152
4.4 0.00143
4.45 0.00114
4.5 0.00061
4.55 0.00024
4.6 0.00013
4.65 0.00009
4.7 0.00024
4.75 0.00023
4.8 0.00046
4.85 0.00098
4.9 0.00121
4.95 0.00147
5 0.00146
5.05 0.00114
5.1 0.00102
5.15 0.00126
5.2 0.00165
5.25 0.00213
5.3 0.0023
5.35 0.00217
5.4 0.00217
5.45 0.00185
5.5 0.0018
5.55 0.00137
5.6 0.00116
5.65 0.00114
5.7 0.00074
5.75 0.00017
5.8 -0.00003
5.85 0.00009
5.9 0.00033
5.95 0.00045
6 0.00084
6.05 0.00122
6.1 0.00155
6.15 0.00139
6.2 0.00143
6.25 0.00151
6.3 0.00137
6.35 0.00095
6.4 0.00044
6.45 0.00044
6.5 0.00025
6.55 0.00023
6.6 0.0005
6.65 0.00043
6.7 0.00069
6.75 0.0005
6.8 0.00043
6.85 0.00069
6.9 0.00112
6.95 0.00145
7 0.00125
7.05 0.00122
7.1 0.00136
7.15 0.00169
7.2 0.00162
7.25 0.00172
7.3 0.00136
7.35 0.00084
7.4 0.00063
7.45 0.00067
7.5 0.00055
7.55 0.00065
7.6 0.00076
7.65 0.00051
7.7 0.00003
7.75 -0.00059
7.8 -0.00122
7.85 -0.00128
7.9 -0.00099
7.95 -0.00059
8 -0.00035
8.05 0.00007
8.1 0.00054
8.15 0.00093
8.2 0.00098
8.25 0.00122
8.3 0.00102
8.35 0.00088
8.4 0.0009
8.45 0.00071
8.5 0.0007
8.55 0.0008
8.6 0.00048
8.65 0.00043
8.7 0.0003
8.75 0.00034
8.8 0.00016
8.85 -0.00013
8.9 -0.0004
8.95 -0.00063
9 -0.00073
9.05 -0.00106
9.1 -0.00104
9.15 -0.00115
9.2 -0.00135
9.25 -0.00133
9.3 -0.00095
9.35 -0.00058
9.4 0.00003
9.45 0.00064
9.5 0.00085
9.55 0.00112
9.6 0.00091
9.65 0.00082
9.7 0.00098
9.75 0.00085
9.8 0.00096
9.85 0.00068
9.9 0.00011
9.95 -0.00004
10 -0.00011
10.05 -0.00023
10.1 0.00005
10.15 -0.00001
10.2 -0.00039
10.25 -0.00093
10.3 -0.00085
10.35 -0.00054
10.4 -0.00035
10.45 -0.00052
10.5 -0.00027
10.55 -0.00035
10.6 -0.00011
10.65 0.00039
10.7 0.00088
10.75 0.00127
10.8 0.00114
10.85 0.00117
10.9 0.00128
10.95 0.00138
11 0.00164
11.05 0.00193
11.1 0.00168
11.15 0.00154
11.2 0.00142
11.25 0.0015
11.3 0.00145
11.35 0.00136
11.4 0.00091
11.45 0.00037
11.5 0.0001
11.55 -0.00009
11.6 -0.00027
11.65 -0.00004
11.7 -0.0002
11.75 -0.00052
11.8 -0.00095
11.85 -0.0014
11.9 -0.00133
11.95 -0.00088
12 -0.00079
12.05 -0.00065
12.1 -0.00045
12.15 -0.00048
12.2 -0.00082
12.25 -0.00104
12.3 -0.00102
12.35 -0.00091
12.4 -0.00092
12.45 -0.00093
12.5 -0.00112
12.55 -0.00133
12.6 -0.00166
12.65 -0.00201
12.7 -0.00209
12.75 -0.00221
12.8 -0.00177
12.85 -0.0013
12.9 -0.00074
12.95 -0.00009
13 0.00038
13.05 0.00042
13.1 0.00034
13.15 0.00033
13.2 -0.00004
13.25 0.00006
13.3 0.0004
13.35 0.00037
13.4 0.00037
13.45 0.00057
13.5 0.00044
13.55 0.00058
13.6 0.00031
13.65 -0.00014
13.7 -0.00052
13.75 -0.0006
13.8 -0.00072
13.85 -0.0005
13.9 -0.00018
13.95 -0.00024
14 -0.00041
14.05 -0.00055
14.1 -0.00072
14.15 -0.00052
14.2 -0.00014
14.25 -0.00025
14.3 -0.00006
14.35 0.00013
14.4 0.00025
14.45 0.00019
14.5 0.00025
14.55 0.00035
14.6 0.00074
14.65 0.00119
14.7 0.00171
14.75 0.00198
14.8 0.00163
14.85 0.00142
14.9 0.00117
14.95 0.00089
15 0.0009
15.05 0.00109
15.1 0.00134
15.15 0.00122
15.2 0.0012
15.25 0.00082
15.3 0.00038
15.35 0.00012
15.4 -0.00002
15.45 -0.00047
15.5 -0.00061
15.55 -0.00073
15.6 -0.00111
15.65 -0.00105
15.7 -0.00122
15.75 -0.00119
15.8 -0.00087
15.85 -0.00065
15.9 -0.00032
15.95 0.00023
16 0.00019
16.05 0.00011
16.1 0.00002
16.15 -0.00036
16.2 -0.00057
16.25 -0.00096
16.3 -0.00145
16.35 -0.0014
16.4 -0.00122
16.45 -0.00123
16.5 -0.0009
16.55 -0.00057
16.6 -0.00007
16.65 -0.00008
16.7 0.00003
16.75 -0.00018
16.8 -0.00002
16.85 -0.00023
16.9 -0.00061
16.95 -0.00046
17 -0.00036
17.05 0.00005
17.1 0.0004
17.15 0.00065
17.2 0.00085
17.25 0.00059
17.3 0.00009
17.35 -0.00013
17.4 -0.00022
17.45 0.00007
17.5 0.00024
17.55 0.00038
17.6 0.00077
17.65 0.00084
17.7 0.00115
17.75 0.00132
17.8 0.00145
17.85 0.00142
17.9 0.00159
17.95 0.00156
18 0.00144
18.05 0.0009
18.1 0.00017
18.15 -0.00039
18.2 -0.00093
18.25 -0.00106
18.3 -0.0014
18.35 -0.00181
18.4 -0.00187
18.45 -0.00206
18.5 -0.00169
18.55 -0.00164
18.6 -0.00154
18.65 -0.00112
18.7 -0.00093
18.75 -0.00058
18.8 -0.00014
18.85 0.00034
18.9 0.00074
18.95 0.00087
19 0.00106
19.05 0.00078
19.1 0.00056
19.15 0.0002
19.2 0.00011
19.25 0.00028
19.3 0.00042
19.35 0.00039
19.4 0.0005
19.45 0.00076
19.5 0.00078
19.55 0.00042
19.6 0.0004
19.65 0.00063
19.7 0.00086
19.75 0.00056
19.8 0.00002
19.85 -0.00003
19.9 0.00006
19.95 0.00002
20 -0.00038
20.05 -0.00047
20.1 -0.0005
20.15 -0.00051
20.2 -0.0005
20.25 -0.00041
20.3 -0.00034
20.35 0.00003
20.4 0.00037
20.45 0.00076
20.5 0.00095
20.55 0.00104
20.6 0.00071
20.65 0.00076
20.7 0.00077
20.75 0.00079
20.8 0.00085
20.85 0.00072
20.9 0.00068
20.95 0.00076
21 0.00062
21.05 0.00034
21.1 0.00042
21.15 0.00016
21.2 0.00017
21.25 -0.00012
21.3 -0.00039
21.35 -0.00065
21.4 -0.00111
21.45 -0.00107
21.5 -0.001
21.55 -0.00066
21.6 -0.0007
21.65 -0.00049
21.7 -0.00018
21.75 -0.0001
21.8 -0.00002
21.85 -0.00004
21.9 -0.00024
21.95 -0.00023
22 -0.00043
22.05 -0.00048
22.1 -0.00051
22.15 -0.0004
22.2 -0.00039
22.25 -0.00033
22.3 -0.00042
22.35 -0.00017
22.4 0.00012
22.45 0.00048
22.5 0.00037
22.55 -0.00001
22.6 -0.00037
22.65 -0.00054
22.7 -0.00084
22.75 -0.00114
22.8 -0.00104
22.85 -0.0007
22.9 -0.00043
22.95 -0.00026
23 -0.00039
23.05 -0.00072
23.1 -0.00058
23.15 -0.00014
23.2 0.00032
23.25 0.00072
23.3 0.00063
23.35 0.00055
23.4 0.0001
23.45 -0.00006
23.5 -0.00008
23.55 -0.00014
23.6 -0.00018
23.65 -0.00021
23.7 -0.00038
23.75 -0.00032
23.8 -0.00003
23.85 0.00013
23.9 0.00008
23.95 0.00012
24 0.00032
24.05 0.00069
24.1 0.00052
24.15 0.00068
24.2 0.00035
24.25 0.00009
24.3 0.00007
24.35 -0.00023
24.4 -0.00025
24.45 -0.00016
24.5 -0.00003
24.55 0.00018
24.6 0.00042
24.65 0.00071
24.7 0.00082
24.75 0.00086
24.8 0.00057
24.85 0.00059
24.9 0.00018
24.95 0.00001
25 -0.00025
25.05 -0.00073
25.1 -0.0013
25.15 -0.0017
25.2 -0.00209
25.25 -0.00195
25.3 -0.00206
25.35 -0.00206
25.4 -0.00184
25.45 -0.00144
25.5 -0.00124
25.55 -0.00073
25.6 -0.00061
25.65 -0.00025
25.7 0.00032
25.75 0.00031
25.8 0.00007
25.85 -0.00009
25.9 0.00005
25.95 -0.0001
26 -0.00001
26.05 0.00017
26.1 0.00013
26.15 0.0001
26.2 -0.00004
26.25 -0.00029
26.3 -0.00038
26.35 -0.00027
26.4 -0.00026
26.45 -0.00028
26.5 -0.00039
26.55 -0.00031
26.6 -0.00058
26.65 -0.00051
26.7 -0.00075
26.75 -0.00092
26.8 -0.00089
26.85 -0.00071
26.9 -0.00055
26.95 -0.00073
27 -0.00078
27.05 -0.00109
27.1 -0.00149
27.15 -0.00141
27.2 -0.00137
27.25 -0.00141
27.3 -0.00102
27.35 -0.00098
27.4 -0.00104
27.45 -0.00117
27.5 -0.0009
27.55 -0.00094
27.6 -0.00098
27.65 -0.00079
27.7 -0.00059
27.75 -0.00063
27.8 -0.00046
27.85 0.00002
27.9 0.00009
27.95 0.00005
28 -0.00031
28.05 -0.0007
28.1 -0.00092
28.15 -0.00117
28.2 -0.00154
28.25 -0.00166
28.3 -0.00136
28.35 -0.00082
28.4 -0.00014
28.45 0.0001
28.5 0.00052
28.55 0.00071
28.6 0.00062
28.65 0.00039
28.7 0.00043
28.75 0.00073
28.8 0.00097
28.85 0.00135
28.9 0.00122
28.95 0.00107
29 0.00095
29.05 0.00108
29.1 0.00105
29.15 0.00124
29.2 0.00125
29.25 0.00092
29.3 0.00064
29.35 0.00069
29.4 0.00089
29.45 0.0008
29.5 0.0006
29.55 0.00073
29.6 0.00079
29.65 0.00104
29.7 0.00096
29.75 0.00118
29.8 0.00094
29.85 0.00089
29.9 0.00077
29.95 0.00058
30 0.00026
30.05 -0.00009
30.1 -0.00011
30.15 -0.0004
30.2 -0.00044
30.25 -0.00061
30.3 -0.00083
30.35 -0.00109
30.4 -0.00084
30.45 -0.00053
30.5 -0.00016
30.55 0.00009
30.6 0.00056
30.65 0.00093
30.7 0.00111
30.75 0.00085
30.8 0.00043
30.85 0.00018
30.9 0.00021
30.95 0.00002
31 -0.00025
31.05 -0.00005
31.1 0.00044
31.15 0.0008
31.2 0.00094
31.25 0.00103
31.3 0.00129
31.35 0.00129
31.4 0.00126
31.45 0.00125
31.5 0.00108
31.55 0.00106
31.6 0.00125
31.65 0.0012
31.7 0.00108
31.75 0.00109
31.8 0.00068
31.85 0.00019
31.9 -0.00017
31.95 -0.00045
32 -0.00048
32.05 -0.00068
32.1 -0.00063
32.15 -0.00075
32.2 -0.00059
32.25 -0.00032
32.3 -0.00046
32.35 -0.00077
32.4 -0.00085
32.45 -0.00073
32.5 -0.00036
32.55 0.00002
32.6 0.00019
32.65 0.00058
32.7 0.00109
32.75 0.00122
32.8 0.00087
32.85 0.0006
32.9 0.00005
32.95 -0.00024
33 -0.00041
33.05 -0.00025
33.1 0
33.15 0.00045
33.2 0.00079
33.25 0.00073
33.3 0.00068
33.35 0.00034
33.4 0.00005
33.45 0.00007
33.5 0.00023
33.55 0.00004
33.6 0.00012
33.65 0.0005
33.7 0.00067
33.75 0.00069
33.8 0.00083
33.85 0.00105
33.9 0.00082
33.95 0.00034
34 -0.00015
34.05 -0.00077
34.1 -0.00135
34.15 -0.00159
34.2 -0.00169
34.25 -0.00167
34.3 -0.00144
34.35 -0.00109
34.4 -0.00115
34.45 -0.00076
34.5 -0.0008
34.55 -0.00078
34.6 -0.00075
34.65 -0.0009
34.7 -0.0006
34.75 -0.00002
34.8 0.00068
34.85 0.00091
34.9 0.00072
34.95 0.00081
35 0.00052
35.05 0.00029
35.1 0.00005
35.15 -0.00007
35.2 -0.00012
35.25 -0.00035
35.3 -0.0007
35.35 -0.00093
35.4 -0.00076
35.45 -0.0003
35.5 0.00017
35.55 0.00065
35.6 0.00082
35.65 0.00072
35.7 0.00079
35.75 0.00111
35.8 0.00109
35.85 0.00131
35.9 0.00159
35.95 0.00186
36 0.00195
36.05 0.00173
36.1 0.00173
36.15 0.00133
36.2 0.00093
36.25 0.0007
36.3 0.00048
36.35 0.00028
36.4 0.0004
36.45 0.00033
36.5 0.00007
36.55 0.00009
36.6 -0.00008
36.65 -0.00042
36.7 -0.00041
36.75 -0.00045
36.8 -0.00018
36.85 -0.00037
36.9 -0.00054
36.95 -0.00055
37 -0.00084
37.05 -0.00104
37.1 -0.0014
37.15 -0.00152
37.2 -0.00155
37.25 -0.00115
37.3 -0.00074
37.35 -0.0005
37.4 -0.00001
37.45 0.00043
37.5 0.00078
37.55 0.00114
37.6 0.00101
37.65 0.00048
37.7 -0.00027
37.75 -0.00056
37.8 -0.00057
37.85 -0.00046
37.9 -0.00029
37.95 -0.00018
38 -0.00038
38.05 -0.00058
38.1 -0.00098
38.15 -0.00133
38.2 -0.00146
38.25 -0.00136
38.3 -0.00138
38.35 -0.0016
38.4 -0.00144
38.45 -0.00126
38.5 -0.00102
38.55 -0.00094
38.6 -0.00098
38.65 -0.00124
38.7 -0.00107
38.75 -0.00117
38.8 -0.00118
38.85 -0.00085
38.9 -0.00055
38.95 -0.0006
39 -0.00039
39.05 0.00006
39.1 0.00057
39.15 0.00087
39.2 0.00091
39.25 0.00093
39.3 0.00079
39.35 0.00035
39.4 -0.00017
39.45 -0.00017
39.5 -0.0005
39.55 -0.00078
39.6 -0.00102
39.65 -0.00132
39.7 -0.00162
39.75 -0.00189
39.8 -0.00193
39.85 -0.00163
39.9 -0.00133
39.95 -0.00071
40 0.00005
40.05 0.00078
40.1 0.00131
40.15 0.00122
40.2 0.00099
40.25 0.001
40.3 0.00066
40.35 0.00012
40.4 0.0001
40.45 -0.00027
40.5 -0.0006
40.55 -0.00107
40.6 -0.00119
40.65 -0.00084
40.7 -0.00026
40.75 -0.00006
40.8 -0.00004
40.85 -0.00017
40.9 0.00008
40.95 -0.00004
41 -0.00025
41.05 -0.00014
41.1 0.00022
41.15 0.00022
41.2 0.00046
41.25 0.00025
41.3 0.00006
41.35 0.00006
41.4 -0.00028
41.45 -0.00012
41.5 -0.00016
41.55 0.00019
41.6 0.00058
41.65 0.00073
41.7 0.0007
41.75 0.00059
41.8 0.00048
41.85 0.00021
41.9 -0.00028
41.95 -0.00077
42 -0.00125
42.05 -0.00152
42.1 -0.00179
42.15 -0.00213
42.2 -0.00226
42.25 -0.00247
42.3 -0.00227
42.35 -0.00195
42.4 -0.00152
42.45 -0.00089
42.5 -0.00047
42.55 -0.00045
42.6 -0.00064
42.65 -0.00069
42.7 -0.0005
42.75 -0.00026
42.8 0.00004
42.85 0.00003
42.9 0.00032
42.95 0.00053
43 0.00077
43.05 0.00076
43.1 0.00068
43.15 0.00089
43.2 0.00116
43.25 0.00098
43.3 0.00083
43.35 0.00046
43.4 0.00054
43.45 0.00091
43.5 0.00104
43.55 0.0014
43.6 0.00157
43.65 0.00125
43.7 0.00065
43.75 -0.00007
43.8 -0.00042
43.85 -0.00027
43.9 -0.0002
43.95 0.00016
44 0.00026
44.05 0.00065
44.1 0.00112
44.15 0.00124
44.2 0.00109
44.25 0.0009
44.3 0.00089
44.35 0.00054
44.4 0.0002
44.45 -0.00013
44.5 -0.00065
44.55 -0.00087
44.6 -0.00069
44.65 -0.00039
44.7 0.00003
44.75 0.00062
44.8 0.00105
44.85 0.00133
44.9 0.00112
44.95 0.00076
45 0.00059
45.05 0.00028
45.1 0.00014
45.15 0.00014
45.2 0.00021
45.25 0.00032
45.3 0.00061
45.35 0.00106
45.4 0.00101
45.45 0.00065
45.5 0.0006
45.55 0.00075
45.6 0.00058
45.65 0.00042
45.7 0.00027
45.75 0.00005
45.8 0.00022
45.85 -0.00005
45.9 -0.00014
45.95 -0.00004
46 0.00031
46.05 0.00022
46.1 -0.00001
46.15 -0.00015
46.2 0.00006
46.25 0.00023
46.3 0.00033
46.35 0.00034
46.4 0.00021
46.45 0.00035
46.5 0.00058
46.55 0.00089
46.6 0.00116
46.65 0.00106
46.7 0.00111
46.75 0.00112
46.8 0.00124
46.85 0.00142
46.9 0.00115
46.95 0.00052
47 -0.00016
47.05 -0.00087
47.1 -0.001
47.15 -0.00112
47.2 -0.00144
47.25 -0.00128
47.3 -0.00133
47.35 -0.00115
47.4 -0.00068
47.45 -0.0004
47.5 0.00012
47.55 0.00068
47.6 0.00112
47.65 0.0016
47.7 0.00189
47.75 0.00203
47.8 0.00168
47.85 0.0011
47.9 0.00028
47.95 -0.00023
48 -0.00036
48.05 -0.00053
48.1 -0.00091
48.15 -0.00113
48.2 -0.00136
48.25 -0.00166
48.3 -0.00181
48.35 -0.00171
48.4 -0.00188
48.45 -0.00187
48.5 -0.00138
48.55 -0.00102
48.6 -0.00098
48.65 -0.0007
48.7 -0.00068
48.75 -0.00062
48.8 -0.00034
48.85 -0.0002
48.9 0.0001
48.95 0.00008
49 -0.0004
49.05 -0.00107
49.1 -0.00162
49.15 -0.00238
49.2 -0.00339
49.25 -0.00398
49.3 -0.00428
49.35 -0.00463
49.4 -0.00555
49.45 -0.00649
49.5 -0.00753
49.55 -0.00844
49.6 -0.00993
49.65 -0.01179
49.7 -0.01379
49.75 -0.01597
49.8 -0.0184
49.85 -0.02133
49.9 -0.02453
49.95 -0.02828
50 -0.03235
50.05 -0.03696
50.1 -0.04194
50.15 -0.0477
50.2 -0.05417
50.25 -0.06131
50.3 -0.06889
50.35 -0.07664
50.4 -0.0852
50.45 -0.09429
50.5 -0.1038
50.55 -0.11387
50.6 -0.12385
50.65 -0.13406
50.7 -0.14388
50.75 -0.15387
50.8 -0.16333
50.85 -0.17223
50.9 -0.18103
50.95 -0.18951
51 -0.19704
51.05 -0.20361
51.1 -0.2093
51.15 -0.21431
51.2 -0.21796
51.25 -0.22008
51.3 -0.22052
51.35 -0.21981
51.4 -0.21724
51.45 -0.21336
51.5 -0.20815
51.55 -0.20147
51.6 -0.19316
51.65 -0.18377
51.7 -0.17305
51.75 -0.16139
51.8 -0.14829
51.85 -0.13425
51.9 -0.11957
51.95 -0.10456
52 -0.089
52.05 -0.07357
52.1 -0.05803
52.15 -0.04331
52.2 -0.02907
52.25 -0.01518
52.3 -0.00206
52.35 0.01048
52.4 0.02238
52.45 0.03393
52.5 0.04486
52.55 0.05514
52.6 0.06441
52.65 0.0732
52.7 0.08144
52.75 0.08888
52.8 0.09557
52.85 0.10171
52.9 0.10755
52.95 0.11371
53 0.11999
53.05 0.12615
53.1 0.13238
53.15 0.13819
53.2 0.14414
53.25 0.14986
53.3 0.15517
53.35 0.16035
53.4 0.16537
53.45 0.17035
53.5 0.17493
53.55 0.17878
53.6 0.18257
53.65 0.18557
53.7 0.18821
53.75 0.19039
53.8 0.19213
53.85 0.19317
53.9 0.19417
53.95 0.19423
54 0.19413
54.05 0.19368
54.1 0.19214
54.15 0.1901
54.2 0.18791
54.25 0.18517
54.3 0.18156
54.35 0.17735
54.4 0.17304
54.45 0.16822
54.5 0.16294
54.55 0.15775
54.6 0.15263
54.65 0.14727
54.7 0.14208
54.75 0.13687
54.8 0.13188
54.85 0.12679
54.9 0.12139
54.95 0.11604
55 0.11099
55.05 0.10616
55.1 0.10108
55.15 0.09622
55.2 0.09162
55.25 0.08717
55.3 0.08279
55.35 0.0786
55.4 0.07437
55.45 0.06997
55.5 0.06549
55.55 0.06135
55.6 0.05763
55.65 0.05357
55.7 0.04995
55.75 0.0463
55.8 0.04259
55.85 0.03882
55.9 0.03546
55.95 0.03243
56 0.02976
56.05 0.02735
56.1 0.02475
56.15 0.02207
56.2 0.01959
56.25 0.01762
56.3 0.01582
56.35 0.01406
56.4 0.01224
56.45 0.01043
56.5 0.00893
56.55 0.00767
56.6 0.00624
56.65 0.00455
56.7 0.00254
56.75 0.00047
56.8 -0.00145
56.85 -0.00334
56.9 -0.00501
56.95 -0.00627
57 -0.00757
57.05 -0.00882
57.1 -0.00963
57.15 -0.01049
57.2 -0.01141
57.25 -0.01218
57.3 -0.01304
57.35 -0.0135
57.4 -0.01382
57.45 -0.01434
57.5 -0.01529
57.55 -0.01639
57.6 -0.01739
57.65 -0.01853
57.7 -0.0191
57.75 -0.01963
57.8 -0.01977
57.85 -0.01967
57.9 -0.01948
57.95 -0.01984
58 -0.01994
58.05 -0.0202
58.1 -0.02039
58.15 -0.02059
58.2 -0.02119
58.25 -0.02208
58.3 -0.02289
58.35 -0.02319
58.4 -0.02344
58.45 -0.02398
58.5 -0.024
58.55 -0.02428
58.6 -0.02431
58.65 -0.02445
58.7 -0.0243
58.75 -0.02431
58.8 -0.02465
58.85 -0.02479
58.9 -0.02507
58.95 -0.02489
59 -0.02435
59.05 -0.02408
59.1 -0.02413
59.15 -0.02446
59.2 -0.02483
59.25 -0.0249
59.3 -0.02488
59.35 -0.02481
59.4 -0.02429
59.45 -0.02377
59.5 -0.02306
59.55 -0.02238
59.6 -0.02161
59.65 -0.02126
59.7 -0.02076
59.75 -0.02084
59.8 -0.02117
59.85 -0.02151
59.9 -0.02194
59.95 -0.02226
60 -0.02236
60.05 -0.02202
60.1 -0.02169
60.15 -0.02147
60.2 -0.02138
60.25 -0.02142
60.3 -0.02148
60.35 -0.02148
60.4 -0.02099
60.45 -0.02076
60.5 -0.02047
60.55 -0.01974
60.6 -0.01938
60.65 -0.01924
60.7 -0.01903
60.75 -0.01849
60.8 -0.01787
60.85 -0.01704
60.9 -0.01669
60.95 -0.01668
61 -0.01678
61.05 -0.0171
61.1 -0.01686
61.15 -0.01627
61.2 -0.01584
61.25 -0.01514
61.3 -0.01453
61.35 -0.01448
61.4 -0.01428
61.45 -0.01408
61.5 -0.01413
61.55 -0.01445
61.6 -0.01465
61.65 -0.01439
61.7 -0.01433
61.75 -0.01435
61.8 -0.01435
61.85 -0.01412
61.9 -0.01358
61.95 -0.013
62 -0.01241
62.05 -0.0121
62.1 -0.01173
62.15 -0.01154
62.2 -0.01147
62.25 -0.01116
62.3 -0.01092
62.35 -0.01103
62.4 -0.01139
62.45 -0.01166
62.5 -0.01141
62.55 -0.01079
62.6 -0.01011
62.65 -0.00931
62.7 -0.00863
62.75 -0.00863
62.8 -0.00871
62.85 -0.00859
62.9 -0.00848
62.95 -0.00845
63 -0.00862
63.05 -0.00849
63.1 -0.00851
63.15 -0.00872
63.2 -0.00876
63.25 -0.00873
63.3 -0.00887
63.35 -0.00889
63.4 -0.0091
63.45 -0.00895
63.5 -0.00883
63.55 -0.00865
63.6 -0.00872
63.65 -0.00852
63.7 -0.00858
63.75 -0.0087
63.8 -0.00895
63.85 -0.00877
63.9 -0.00874
63.95 -0.00881
64 -0.00883
64.05 -0.00898
64.1 -0.00887
64.15 -0.00852
64.2 -0.00785
64.25 -0.00736
64.3 -0.00686
64.35 -0.00618
64.4 -0.00554
64.45 -0.0054
64.5 -0.00497
64.55 -0.00442
64.6 -0.00443
64.65 -0.00473
64.7 -0.00508
64.75 -0.00535
64.8 -0.00571
64.85 -0.00617
64.9 -0.006
64.95 -0.00606
65 -0.00581
65.05 -0.00583
65.1 -0.00591
65.15 -0.00595
65.2 -0.00602
65.25 -0.00621
65.3 -0.00589
65.35 -0.00527
65.4 -0.00485
65.45 -0.00436
65.5 -0.00401
65.55 -0.00385
65.6 -0.00356
65.65 -0.00358
65.7 -0.0039
65.75 -0.00412
65.8 -0.00404
65.85 -0.00408
65.9 -0.00434
65.95 -0.00449
66 -0.0043
66.05 -0.00395
66.1 -0.0037
66.15 -0.00376
66.2 -0.00375
66.25 -0.00353
66.3 -0.00319
66.35 -0.00296
66.4 -0.00311
66.45 -0.00305
66.5 -0.00318
66.55 -0.00289
66.6 -0.00282
66.65 -0.00278
66.7 -0.00296
66.75 -0.00284
66.8 -0.003
66.85 -0.00313
66.9 -0.00346
66.95 -0.00345
67 -0.00325
67.05 -0.00272
67.1 -0.00202
67.15 -0.00175
67.2 -0.00141
67.25 -0.00132
67.3 -0.00164
67.35 -0.00153
67.4 -0.00125
67.45 -0.00116
67.5 -0.00146
67.55 -0.00152
67.6 -0.00187
67.65 -0.00192
67.7 -0.00185
67.75 -0.00182
67.8 -0.00178
67.85 -0.00183
67.9 -0.00202
67.95 -0.00243
68 -0.00244
68.05 -0.00234
68.1 -0.00236
68.15 -0.00202
68.2 -0.00167
68.25 -0.00128
68.3 -0.00107
68.35 -0.00068
68.4 -0.00033
68.45 -0.00002
68.5 0.00006
68.55 -0.00007
68.6 -0.00028
68.65 -0.00081
68.7 -0.00095
68.75 -0.00073
68.8 -0.00095
68.85 -0.00133
68.9 -0.00154
68.95 -0.00175
69 -0.00182
69.05 -0.00182
69.1 -0.00201
69.15 -0.00225
69.2 -0.00196
69.25 -0.00204
69.3 -0.0019
69.35 -0.00189
69.4 -0.00212
69.45 -0.00205
69.5 -0.00187
69.55 -0.00142
69.6 -0.00077
69.65 -0.00032
69.7 -0.00022
69.75 -0.00005
69.8 0.00015
69.85 0.00053
69.9 0.0004
69.95 0.00005
70 -0.00054
70.05 -0.001
70.1 -0.0016
70.15 -0.0019
70.2 -0.00205
70.25 -0.0019
70.3 -0.00152
70.35 -0.00122
70.4 -0.0007
70.45 -0.00032
70.5 -0.00015
70.55 0.00014
70.6 0.00035
70.65 0.00055
70.7 0.00061
70.75 0.00021
70.8 0.00014
70.85 -0.00008
70.9 -0.00063
70.95 -0.00114
71 -0.00119
71.05 -0.00106
71.1 -0.00097
71.15 -0.00081
71.2 -0.00034
71.25 0.00014
71.3 0.00006
71.35 0.00016
71.4 -0.00012
71.45 -0.00011
71.5 -0
71.55 0.00023
71.6 0.00046
71.65 0.00072
71.7 0.00045
71.75 -0.00015
71.8 -0.00036
71.85 -0.00019
71.9 0.00003
71.95 -0.0001
72 -0.00048
72.05 -0.0004
72.1 -0.00014
72.15 -0.00021
72.2 0.00004
72.25 -0.00003
72.3 -0.00022
72.35 -0.00024
72.4 -0.00017
72.45 -0.0005
72.5 -0.00068
72.55 -0.00075
72.6 -0.00055
72.65 -0.00053
72.7 -0.00063
72.75 -0.00041
72.8 -0.00014
72.85 0.00003
72.9 0.00025
72.95 0.00029
73 0.00033
73.05 0.00003
73.1 -0.00002
73.15 -0.00034
73.2 -0.00082
73.25 -0.00094
73.3 -0.00133
73.35 -0.00162
73.4 -0.00172
73.45 -0.00163
73.5 -0.00118
73.55 -0.00096
73.6 -0.00052
73.65 -0.00054
73.7 -0.00067
73.75 -0.0004
73.8 -0.00046
73.85 -0.00074
73.9 -0.00122
73.95 -0.00169
74 -0.00166
74.05 -0.00187
74.1 -0.00223
74.15 -0.0022
74.2 -0.00235
74.25 -0.00243
74.3 -0.00252
74.35 -0.00233
74.4 -0.00201
74.45 -0.00159
74.5 -0.00143
74.55 -0.00137
74.6 -0.00134
74.65 -0.00098
74.7 -0.00084
74.75 -0.00077
74.8 -0.00034
74.85 0.00029
74.9 0.00083
74.95 0.00126
75 0.00146
75.05 0.00114
75.1 0.00089
75.15 0.00091
75.2 0.00116
75.25 0.0013
75.3 0.00097
75.35 0.00085
75.4 0.00035
75.45 0.00032
75.5 -0.00009
75.55 -0.0007
75.6 -0.00069
75.65 -0.00037
75.7 -0.00021
75.75 0.00016
75.8 0.00031
75.85 0.00012
75.9 -0.00023
75.95 -0.0007
76 -0.00074
76.05 -0.00067
76.1 -0.00072
76.15 -0.00046
76.2 0.00005
76.25 0.00069
76.3 0.00111
76.35 0.00139
76.4 0.00165
76.45 0.00132
76.5 0.00081
76.55 0.00038
76.6 0.00013
76.65 0.00025
76.7 -0.00001
76.75 0.00006
76.8 -0.00024
76.85 -0.00049
76.9 -0.0005
76.95 -0.0007
77 -0.00074
77.05 -0.00082
77.1 -0.00068
77.15 -0.0003
77.2 0.00014
77.25 0.00024
77.3 -0.00002
77.35 0.00014
77.4 0.00057
77.45 0.0005
77.5 0.00047
77.55 0.00051
77.6 0.00036
77.65 0.00044
77.7 0.00058
77.75 0.00062
77.8 0.00026
77.85 -0.00024
77.9 -0.00059
77.95 -0.00079
78 -0.00059
78.05 -0.00067
78.1 -0.00058
78.15 -0.00084
78.2 -0.00085
78.25 -0.00063
78.3 -0.00053
78.35 -0.00039
78.4 0.00001
78.45 0.00042
78.5 0.0006
78.55 0.00036
78.6 0.00044
78.65 0.00035
78.7 0.0003
78.75 -0.00011
78.8 -0.00026
78.85 -0.00023
78.9 -0.00008
78.95 -0.00034
79 -0.00066
79.05 -0.00049
79.1 -0.0004
79.15 -0.00021
79.2 -0.00022
79.25 -0.0004
79.3 -0.00042
79.35 -0.00016
79.4 -0.0002
79.45 -0.00034
79.5 -0.00051
79.55 -0.00036
79.6 -0.00013
79.65 0.00013
79.7 0.00028
79.75 0.00033
79.8 0.00008
79.85 0.00003
79.9 0.00003
79.95 -0.0001
80 -0.00008
80.05 0.00025
80.1 0.00012
80.15 -0.00001
80.2 0.00016
80.25 0.00018
80.3 0.00038
80.35 0.00056
80.4 0.00054
80.45 0.00014
80.5 -0.00011
80.55 -0.00038
80.6 -0.00019
80.65 0.00007
80.7 -0.00009
80.75 -0.00028
80.8 -0.00052
80.85 -0.00058
80.9 -0.00023
80.95 0.00021
81 0.0004
81.05 0.00033
81.1 0.00057
81.15 0.00088
81.2 0.00102
81.25 0.00093
81.3 0.00045
81.35 -0.00001
81.4 -0.0004
81.45 -0.00028
81.5 0.00002
81.55 0.00002
81.6 0.0001
81.65 -0.00005
81.7 -0.00036
81.75 -0.00061
81.8 -0.00079
81.85 -0.00063
81.9 -0.00025
81.95 0.00004
82 0.00018
82.05 0.00011
82.1 -0.00015
82.15 -0.00059
82.2 -0.00048
82.25 -0.00049
82.3 -0.00046
82.35 -0.00051
82.4 -0.00035
82.45 -0.00001
82.5 -0.0001
82.55 -0.00022
82.6 -0.00064
82.65 -0.00111
82.7 -0.00157
82.75 -0.00167
82.8 -0.00179
82.85 -0.0017
82.9 -0.00168
82.95 -0.00151
83 -0.001
83.05 -0.00077
83.1 -0.00061
83.15 -0.00044
83.2 -0.0004
83.25 -0.00007
83.3 0.00033
83.35 0.00054
83.4 0.0008
83.45 0.00104
83.5 0.00093
83.55 0.00054
83.6 0.0005
83.65 0.00042
83.7 0.00038
83.75 0.00051
83.8 0.00053
83.85 0.00016
83.9 -0.00026
83.95 -0.0007
84 -0.00117
84.05 -0.00104
84.1 -0.0006
84.15 0.00003
84.2 0.00042
84.25 0.00062
84.3 0.00093
84.35 0.00094
84.4 0.00121
84.45 0.0014
84.5 0.00131
84.55 0.00115
84.6 0.00075
84.65 0.0002
84.7 -0.00027
84.75 -0.0005
84.8 -0.00055
84.85 -0.00066
84.9 -0.00042
84.95 -0.00044
85 -0.0001
85.05 0.00035
85.1 0.00033
85.15 0.00048
85.2 0.00017
85.25 -0.00004
85.3 -0.00022
85.35 0.00001
85.4 -0.00001
85.45 -0.0002
85.5 -0.00046
85.55 -0.00055
85.6 -0.00061
85.65 -0.00027
85.7 -0.00024
85.75 -0.0001
85.8 0.00024
85.85 0.00011
85.9 0.00009
85.95 0.0001
86 -0
86.05 -0.00041
86.1 -0.00049
86.15 -0.00024
86.2 -0.00025
86.25 -0.0002
86.3 -0.00005
86.35 -0.0003
86.4 -0.00009
86.45 -0.00025
86.5 -0.00016
86.55 0.00026
86.6 0.00084
86.65 0.00149
86.7 0.00165
86.75 0.00176
86.8 0.00152
86.85 0.00089
86.9 0.00038
86.95 0.00009
87 0.00007
87.05 0.00004
87.1 -0.00015
87.15 -0.00043
87.2 -0.00045
87.25 -0.00009
87.3 0.00034
87.35 0.00069
87.4 0.00048
87.45 0.00045
87.5 0.00061
87.55 0.00081
87.6 0.00053
87.65 0.00062
87.7 0.0006
87.75 0.00017
87.8 -0.00034
87.85 -0.00087
87.9 -0.00113
87.95 -0.0014
88 -0.00135
88.05 -0.00135
88.1 -0.0014
88.15 -0.00105
88.2 -0.00057
88.25 -0.00035
88.3 -0.0003
88.35 -0.0002
88.4 -0.00026
88.45 -0.00023
88.5 -0.00029
88.55 -0.00043
88.6 -0.00051
88.65 -0.00086
88.7 -0.00125
88.75 -0.00166
88.8 -0.00173
88.85 -0.00145
88.9 -0.00099
88.95 -0.00077
89 -0.00049
89.05 -0.00029
89.1 -0.00049
89.15 -0.00087
89.2 -0.00135
89.25 -0.00127
89.3 -0.00136
89.35 -0.00156
89.4 -0.00161
89.45 -0.00132
89.5 -0.00113
89.55 -0.00072
89.6 -0.00057
89.65 -0.00071
89.7 -0.00098
89.75 -0.00124
89.8 -0.00137
89.85 -0.00151
89.9 -0.00172
89.95 -0.00166
90 -0.00126
90.05 -0.00116
90.1 -0.00071
90.15 -0.00065
90.2 -0.00049
90.25 -0.00005
90.3 0.00053
90.35 0.00086
90.4 0.0013
90.45 0.00148
90.5 0.00186
90.55 0.00168
90.6 0.0018
90.65 0.00195
90.7 0.00179
90.75 0.0017
90.8 0.0012
90.85 0.00047
90.9 0.00017
90.95 -0.00002
91 0.00014
91.05 -0.00007
91.1 0.00017
91.15 0.00032
91.2 0.00072
91.25 0.00098
91.3 0.00141
91.35 0.00189
91.4 0.00232
91.45 0.00223
91.5 0.00181
91.55 0.00114
91.6 0.0006
91.65 0.00013
91.7 0.00009
91.75 0.00017
91.8 -0.00008
91.85 -0.00044
91.9 -0.00081
91.95 -0.0012
92 -0.00138
92.05 -0.00134
92.1 -0.0011
92.15 -0.00115
92.2 -0.0012
92.25 -0.00121
92.3 -0.00109
92.35 -0.00068
92.4 -0.00067
92.45 -0.00089
92.5 -0.0007
92.55 -0.00025
92.6 0.00013
92.65 0.00024
92.7 0.00044
92.75 0.00049
92.8 0.00028
92.85 0.00037
92.9 0.00012
92.95 -0.00013
93 -0.00052
93.05 -0.00077
93.1 -0.00083
93.15 -0.00098
93.2 -0.00086
93.25 -0.00093
93.3 -0.00069
93.35 -0.00052
93.4 -0.00017
93.45 0.00043
93.5 0.0008
93.55 0.00066
93.6 0.00032
93.65 -0.00023
93.7 -0.00045
93.75 -0.00085
93.8 -0.00111
93.85 -0.00085
93.9 -0.00039
93.95 -0.00007
94 0.00003
94.05 0.00004
94.1 -0.00011
94.15 -0.00039
94.2 -0.00039
94.25 -0.00064
94.3 -0.00057
94.35 -0.00046
94.4 -0.00053
94.45 -0.00052
94.5 -0.00071
94.55 -0.00078
94.6 -0.00054
94.65 -0.00019
94.7 0.00009
94.75 0.00004
94.8 -0.00005
94.85 -0.00027
94.9 -0.00006
94.95 -0.00016
95 -0.00003
95.05 0.00014
95.1 0.00025
95.15 0.00015
95.2 0.00006
95.25 0.00032
95.3 0.00049
95.35 0.00045
95.4 0.00067
95.45 0.00065
95.5 0.00046
95.55 0.00009
95.6 -0.00014
95.65 0.00004
95.7 0.00015
95.75 0.00041
95.8 0.00092
95.85 0.00141
95.9 0.0016
95.95 0.00179
96 0.00149
96.05 0.0014
96.1 0.00097
96.15 0.00089
96.2 0.00093
96.25 0.00097
96.3 0.00098
96.35 0.0007
96.4 0.00043
96.45 0.00035
96.5 0.00043
96.55 0.00062
96.6 0.00099
96.65 0.00147
96.7 0.00173
96.75 0.00141
96.8 0.00109
96.85 0.00106
96.9 0.00128
96.95 0.00133
97 0.00142
97.05 0.00166
97.1 0.00173
97.15 0.00137
97.2 0.00134
97.25 0.00094
97.3 0.00023
97.35 -0.00047
97.4 -0.00063
97.45 -0.00063
97.5 -0.00089
97.55 -0.00085
97.6 -0.00052
97.65 -0.00049
97.7 -0.00021
97.75 0.00003
97.8 0.00036
97.85 0.00058
97.9 0.00099
97.95 0.00103
98 0.00081
98.05 0.00077
98.1 0.00067
98.15 0.00037
98.2 0.00009
98.25 0.00021
98.3 0.00044
98.35 0.00078
98.4 0.00089
98.45 0.00081
98.5 0.00075
98.55 0.0003
98.6 -0.00013
98.65 -0.00054
98.7 -0.00074
98.75 -0.00076
98.8 -0.00067
98.85 -0.00054
98.9 -0.00071
98.95 -0.00098
99 -0.00127
99.05 -0.00106
99.1 -0.00061
99.15 -0.00062
99.2 -0.00027
99.25 0.00012
99.3 0.00012
99.35 0.00031
99.4 0.00035
99.45 0.00051
99.5 0.00047
99.55 0.0001
99.6 -0.00026
99.65 -0.00031
99.7 -0.00067
99.75 -0.00054
99.8 -0.00067
99.85 -0.00049
99.9 -0.0002
99.95 -0.00002
