0 0
0.05 0.0008
0.1 0.0016
0.15 0.00243
0.2 0.00366
0.25 0.00455
0.3 0.00474
0.35 0.00499
0.4 0.00518
0.45 0.00535
0.5 0.00509
0.55 0.00506
0.6 0.0049
0.65 0.00459
0.7 0.00437
0.75 0.00424
0.8 0.00391
0.85 0.00339
0.9 0.00276
0.95 0.00251
1 0.00242
1.05 0.00212
1.1 0.00224
1.15 0.00289
1.2 0.00358
1.25 0.00423
1.3 0.00476
1.35 0.00483
1.4 0.00487
1.45 0.005
1.5 0.00459
1.55 0.00438
1.6 0.0042
1.65 0.00396
1.7 0.00397
1.75 0.00374
1.8 0.0033
1.85 0.00313
1.9 0.00277
1.95 0.00277
2 0.00287
2.05 0.00323
2.1 0.00301
2.15 0.00274
2.2 0.00294
2.25 0.00338
2.3 0.00402
2.35 0.00472
2.4 0.0051
2.45 0.00497
2.5 0.00435
2.55 0.00366
2.6 0.00357
2.65 0.00329
2.7 0.00289
2.75 0.00254
2.8 0.00217
2.85 0.00232
2.9 0.00214
2.95 0.00161
3 0.00159
3.05 0.00123
3.1 0.00132
3.15 0.00186
3.2 0.00193
3.25 0.00223
3.3 0.00223
3.35 0.00189
3.4 0.00133
3.45 0.00068
3.5 0.00013
3.55 0.00019
3.6 0.00059
3.65 0.001
3.7 0.0017
3.75 0.00246
3.8 0.00257
3.85 0.00233
3.9 0.00224
3.95 0.00253
4 0.00254
4.05 0.00249
4.1 0.00216
4.15 0.00172
4.2 0.00137
4.25 0.00143
4.3 0.00122
4.35 0.00067
4.4 0.00029
4.45 0.00018
4.5 0.00047
4.55 0.00055
4.6 0.00027
4.65 0.00033
4.7 0.00072
4.75 0.00143
4.8 0.00234
4.85 0.00255
4.9 0.00292
4.95 0.00296
5 0.00267
5.05 0.00226
5.1 0.00219
5.15 0.00196
5.2 0.0021
5.25 0.00233
5.3 0.00271
5.35 0.00318
5.4 0.00307
5.45 0.0027
5.5 0.00258
5.55 0.00267
5.6 0.00277
5.65 0.00239
5.7 0.00209
5.75 0.00195
5.8 0.00181
5.85 0.00161
5.9 0.00187
5.95 0.00179
6 0.00184
6.05 0.00137
6.1 0.0014
6.15 0.00143
6.2 0.00174
6.25 0.00206
6.3 0.00228
6.35 0.00225
6.4 0.00214
6.45 0.00186
6.5 0.00116
6.55 0.00094
6.6 0.00035
6.65 -0.00035
6.7 -0.00072
6.75 -0.00109
6.8 -0.00085
6.85 -0.00073
6.9 -0.001
6.95 -0.00115
7 -0.00092
7.05 -0.00096
7.1 -0.00084
7.15 -0.00053
7.2 -0.00051
7.25 0.00002
7.3 0.00033
7.35 0.0002
7.4 0.00055
7.45 0.00056
7.5 0.00013
7.55 -0.00035
7.6 -0.00065
7.65 -0.00074
7.7 -0.00101
7.75 -0.00076
7.8 -0.00027
7.85 0.0004
7.9 0.00074
7.95 0.0007
8 0.00068
8.05 0.00048
8.1 0.00059
8.15 0.00094
8.2 0.00113
8.25 0.00113
8.3 0.00088
8.35 0.00069
8.4 0.00069
8.45 0.0007
8.5 0.00034
8.55 -0.00015
8.6 -0.00061
8.65 -0.00039
8.7 -0.00063
8.75 -0.0007
8.8 -0.00034
8.85 0.0003
8.9 0.00113
8.95 0.00119
9 0.00142
9.05 0.00116
9.1 0.00084
9.15 0.00071
9.2 0.00043
9.25 0.00064
9.3 0.00056
9.35 0.00085
9.4 0.00105
9.45 0.00073
9.5 0.00035
9.55 0.00052
9.6 0.00092
9.65 0.00137
9.7 0.00115
9.75 0.00124
9.8 0.00154
9.85 0.00173
9.9 0.00213
9.95 0.0021
10 0.00181
10.05 0.00173
10.1 0.00179
10.15 0.00161
10.2 0.00122
10.25 0.00103
10.3 0.00114
10.35 0.00134
10.4 0.00166
10.45 0.00216
10.5 0.00269
10.55 0.00242
10.6 0.00228
10.65 0.00242
10.7 0.00201
10.75 0.00171
10.8 0.00166
10.85 0.00133
10.9 0.00078
10.95 0.00032
11 0.00008
11.05 0.00005
11.1 -0.00014
11.15 -0.00002
11.2 0.00019
11.25 0.00066
11.3 0.00048
11.35 -0.00003
11.4 -0.00074
11.45 -0.00087
11.5 -0.00114
11.55 -0.00093
11.6 -0.00115
11.65 -0.00129
11.7 -0.00112
11.75 -0.00061
11.8 -0.00066
11.85 -0.00051
11.9 0.00002
11.95 0.00068
12 0.00075
12.05 0.00038
12.1 -0.00025
12.15 -0.00028
12.2 -0.00042
12.25 -0.00053
12.3 -0.00092
12.35 -0.00137
12.4 -0.00182
12.45 -0.00156
12.5 -0.0017
12.55 -0.00193
12.6 -0.00195
12.65 -0.00147
12.7 -0.00136
12.75 -0.0015
12.8 -0.00172
12.85 -0.0016
12.9 -0.00139
12.95 -0.00112
13 -0.00055
13.05 -0.00021
13.1 -0.00044
13.15 -0.00024
13.2 -0.00032
13.25 -0.00034
13.3 -0.00046
13.35 -0.00025
13.4 -0.00037
13.45 -0.00032
13.5 -0.0003
13.55 -0.00067
13.6 -0.00118
13.65 -0.00171
13.7 -0.00191
13.75 -0.00219
13.8 -0.00237
13.85 -0.00231
13.9 -0.0023
13.95 -0.00204
14 -0.00137
14.05 -0.00099
14.1 -0.00036
14.15 0.00047
14.2 0.0008
14.25 0.00119
14.3 0.00171
14.35 0.00221
14.4 0.00273
14.45 0.00258
14.5 0.00244
14.55 0.00233
14.6 0.00186
14.65 0.00099
14.7 0.00038
14.75 -0.00011
14.8 -0.00084
14.85 -0.00106
14.9 -0.00087
14.95 -0.00045
15 0.00029
15.05 0.00081
15.1 0.00154
15.15 0.00196
15.2 0.00241
15.25 0.00205
15.3 0.00197
15.35 0.00208
15.4 0.00163
15.45 0.00105
15.5 0.00013
15.55 -0.00072
15.6 -0.00094
15.65 -0.00126
15.7 -0.00149
15.75 -0.0017
15.8 -0.00177
15.85 -0.0014
15.9 -0.0015
15.95 -0.00103
16 -0.00035
16.05 -0.00011
16.1 0.00046
16.15 0.0006
16.2 0.00083
16.25 0.00096
16.3 0.00075
16.35 0.00055
16.4 0.00016
16.45 -0.00007
16.5 -0.00013
16.55 -0.0006
16.6 -0.00111
16.65 -0.00124
16.7 -0.00151
16.75 -0.00114
16.8 -0.0005
16.85 0.00002
16.9 0.00068
16.95 0.00141
17 0.00178
17.05 0.00218
17.1 0.00237
17.15 0.00217
17.2 0.00222
17.25 0.00204
17.3 0.00135
17.35 0.001
17.4 0.00028
17.45 -0.00051
17.5 -0.00103
17.55 -0.00105
17.6 -0.001
17.65 -0.00135
17.7 -0.00186
17.75 -0.00238
17.8 -0.00292
17.85 -0.00301
17.9 -0.00247
17.95 -0.00197
18 -0.00175
18.05 -0.00181
18.1 -0.00172
18.15 -0.00114
18.2 -0.00032
18.25 -0.00001
18.3 0.00005
18.35 0.00033
18.4 0.00082
18.45 0.00086
18.5 0.00048
18.55 0.00046
18.6 0.00012
18.65 0.00033
18.7 0.00055
18.75 0.00021
18.8 0.00017
18.85 -0.00029
18.9 -0.00052
18.95 -0.00072
19 -0.00081
19.05 -0.00047
19.1 0.00021
19.15 0.00034
19.2 0.00063
19.25 0.00092
19.3 0.00066
19.35 0.00037
19.4 0.00039
19.45 0.00055
19.5 0.0003
19.55 -0.00002
19.6 -0.00055
19.65 -0.00075
19.7 -0.0007
19.75 -0.00065
19.8 -0.00053
19.85 -0.00043
19.9 -0.00034
19.95 -0.00046
20 -0.00021
20.05 -0.00027
20.1 -0.00018
20.15 0
20.2 0.00009
20.25 -0.00012
20.3 -0.00017
20.35 0.00007
20.4 0.00066
20.45 0.00086
20.5 0.00136
20.55 0.00153
20.6 0.00114
20.65 0.00049
20.7 0.00018
20.75 0.00035
20.8 0.00081
20.85 0.00073
20.9 0.00038
20.95 0.00017
21 0.00026
21.05 0.00073
21.1 0.00114
21.15 0.00102
21.2 0.00073
21.25 0.00044
21.3 0.00028
21.35 0.00015
21.4 -0.00004
21.45 -0.00063
21.5 -0.00088
21.55 -0.00057
21.6 -0.00047
21.65 -0.00021
21.7 -0.00032
21.75 -0.00034
21.8 -0.00074
21.85 -0.00127
21.9 -0.00179
21.95 -0.00163
22 -0.00166
22.05 -0.00185
22.1 -0.0017
22.15 -0.00105
22.2 -0.00082
22.25 -0.0004
22.3 0.0003
22.35 0.00086
22.4 0.00098
22.45 0.00061
22.5 0.00017
22.55 0.00032
22.6 -0.00007
22.65 -0.00035
22.7 -0.00054
22.75 -0.00066
22.8 -0.00055
22.85 -0.0004
22.9 -0.0003
22.95 0.00012
23 0.00036
23.05 0.00053
23.1 0.00019
23.15 -0.00026
23.2 -0.00086
23.25 -0.00127
23.3 -0.00125
23.35 -0.0015
23.4 -0.00197
23.45 -0.00165
23.5 -0.00117
23.55 -0.00096
23.6 -0.00059
23.65 -0.00062
23.7 -0.00062
23.75 -0.0007
23.8 -0.00057
23.85 -0.00062
23.9 -0.00044
23.95 -0.00026
24 0.00027
24.05 0.00097
24.1 0.00107
24.15 0.00087
24.2 0.00108
24.25 0.00144
24.3 0.00168
24.35 0.0021
24.4 0.00211
24.45 0.00217
24.5 0.00167
24.55 0.00142
24.6 0.00156
24.65 0.00156
24.7 0.00138
24.75 0.00069
24.8 0.00055
24.85 0.00049
24.9 0.00076
24.95 0.00047
25 0.00062
25.05 0.00087
25.1 0.00052
25.15 -0.00012
25.2 -0.00073
25.25 -0.00126
25.3 -0.00184
25.35 -0.00185
25.4 -0.00144
25.45 -0.00134
25.5 -0.00129
25.55 -0.00076
25.6 -0.00064
25.65 -0.00063
25.7 -0.00062
25.75 -0.00031
25.8 -0.00021
25.85 0.00025
25.9 0.00007
25.95 0.00019
26 0.00052
26.05 0.00087
26.1 0.00129
26.15 0.00143
26.2 0.0017
26.25 0.00135
26.3 0.00105
26.35 0.00072
26.4 0.00021
26.45 -0.00059
26.5 -0.00146
26.55 -0.00181
26.6 -0.00205
26.65 -0.00217
26.7 -0.00222
26.75 -0.00218
26.8 -0.00214
26.85 -0.00229
26.9 -0.00243
26.95 -0.0025
27 -0.00274
27.05 -0.00229
27.1 -0.00222
27.15 -0.00196
27.2 -0.00155
27.25 -0.00135
27.3 -0.00097
27.35 -0.00029
27.4 0.0003
27.45 0.00078
27.5 0.00079
27.55 0.00101
27.6 0.00109
27.65 0.00134
27.7 0.00095
27.75 0.00077
27.8 0.00098
27.85 0.00073
27.9 0.00044
27.95 -0.00008
28 -0.00049
28.05 -0.00093
28.1 -0.00113
28.15 -0.00136
28.2 -0.00128
28.25 -0.00142
28.3 -0.00152
28.35 -0.00109
28.4 -0.00049
28.45 -0.00009
28.5 0.00034
28.55 0.00076
28.6 0.00067
28.65 0.00071
28.7 0.001
28.75 0.00101
28.8 0.001
28.85 0.00077
28.9 0.00039
28.95 -0.00011
29 -0.00012
29.05 0.00029
29.1 0.00056
29.15 0.00028
29.2 -0.00033
29.25 -0.00073
29.3 -0.0009
29.35 -0.00047
29.4 0.00021
29.45 0.00095
29.5 0.001
29.55 0.00108
29.6 0.00075
29.65 0.00025
29.7 -0.00014
29.75 -0.00013
29.8 0.0002
29.85 0.00057
29.9 0.00113
29.95 0.00132
30 0.00107
30.05 0.00053
30.1 0.00007
30.15 0.00017
30.2 -0.00012
30.25 -0.00018
30.3 -0.00036
30.35 -0.00037
30.4 -0.00021
30.45 -0.0001
30.5 0.00014
30.55 0.00061
30.6 0.00081
30.65 0.00079
30.7 0.0008
30.75 0.00092
30.8 0.00075
30.85 0.00061
30.9 0.00072
30.95 0.00039
31 0.00041
31.05 0.00014
31.1 -0.00024
31.15 -0.00031
31.2 -0.0004
31.25 -0.0007
31.3 -0.00104
31.35 -0.00103
31.4 -0.00051
31.45 -0.00005
31.5 0.00041
31.55 0.00034
31.6 0.0001
31.65 -0.0001
31.7 -0.00021
31.75 -0.00012
31.8 -0.00036
31.85 -0.00069
31.9 -0.00062
31.95 -0.00013
32 -0.00012
32.05 -0.00031
32.1 -0.00053
32.15 -0.00075
32.2 -0.0009
32.25 -0.0008
32.3 -0.00025
32.35 0.00047
32.4 0.00075
32.45 0.00073
32.5 0.00059
32.55 0.00019
32.6 0.00008
32.65 -0.00028
32.7 -0.00074
32.75 -0.00088
32.8 -0.00083
32.85 -0.00058
32.9 -0.00003
32.95 0.00025
33 0.00035
33.05 0.00078
33.1 0.00127
33.15 0.00136
33.2 0.00155
33.25 0.00117
33.3 0.00056
33.35 -0.00011
33.4 -0.00088
33.45 -0.0011
33.5 -0.00098
33.55 -0.00042
33.6 0.00002
33.65 0.00027
33.7 0.00034
33.75 0.00065
33.8 0.00113
33.85 0.00105
33.9 0.00053
33.95 -0.00005
34 -0.00071
34.05 -0.00112
34.1 -0.00159
34.15 -0.00144
34.2 -0.00129
34.25 -0.00098
34.3 -0.00114
34.35 -0.00076
34.4 -0.00059
34.45 -0.00019
34.5 -0.00016
34.55 -0
34.6 0.0004
34.65 0.00068
34.7 0.00119
34.75 0.00138
34.8 0.00102
34.85 0.00043
34.9 -0.00003
34.95 -0.00025
35 -0.0001
35.05 0.00015
35.1 0.00072
35.15 0.00063
35.2 0.0007
35.25 0.00043
35.3 0.00029
35.35 0.00021
35.4 0.00035
35.45 0.00061
35.5 0.00063
35.55 0.00054
35.6 0.00029
35.65 0.00049
35.7 0.00091
35.75 0.00089
35.8 0.00042
35.85 0.00034
35.9 -0.00006
35.95 -0.00059
36 -0.00042
36.05 0.00002
36.1 0.00022
36.15 0.00042
36.2 0.00075
36.25 0.00133
36.3 0.00161
36.35 0.00205
36.4 0.00221
36.45 0.00169
36.5 0.00125
36.55 0.00104
36.6 0.00121
36.65 0.00111
36.7 0.00105
36.75 0.00071
36.8 0.00057
36.85 0.00003
36.9 -0.00012
36.95 -0.00048
37 -0.00095
37.05 -0.00138
37.1 -0.00117
37.15 -0.00069
37.2 -0.00066
37.25 -0.00018
37.3 0.00044
37.35 0.00031
37.4 -0.00019
37.45 -0.0009
37.5 -0.00157
37.55 -0.00213
37.6 -0.00237
37.65 -0.00252
37.7 -0.00224
37.75 -0.00222
37.8 -0.00223
37.85 -0.00229
37.9 -0.00206
37.95 -0.00215
38 -0.00218
38.05 -0.00229
38.1 -0.0024
38.15 -0.00258
38.2 -0.00273
38.25 -0.00291
38.3 -0.00277
38.35 -0.00218
38.4 -0.00139
38.45 -0.0007
38.5 0.00013
38.55 0.00068
38.6 0.00123
38.65 0.00196
38.7 0.00243
38.75 0.00256
38.8 0.00257
38.85 0.00252
38.9 0.00226
38.95 0.00177
39 0.00093
39.05 0.00066
39.1 0.0007
39.15 0.00048
39.2 0.00077
39.25 0.00102
39.3 0.00144
39.35 0.00156
39.4 0.0012
39.45 0.00059
39.5 -0.00013
39.55 -0.00074
39.6 -0.0009
39.65 -0.0005
39.7 0.00001
39.75 -0.00007
39.8 -0.00022
39.85 -0.00034
39.9 -0.00032
39.95 0.00002
40 0.00014
40.05 0.00037
40.1 0.00072
40.15 0.00077
40.2 0.00116
40.25 0.00158
40.3 0.00206
40.35 0.00264
40.4 0.0026
40.45 0.0027
40.5 0.00206
40.55 0.0014
40.6 0.00101
40.65 0.0008
40.7 0.0009
40.75 0.00118
40.8 0.00084
40.85 0.0008
40.9 0.00023
40.95 -0.00003
41 0.00005
41.05 0.00047
41.1 0.00089
41.15 0.00114
41.2 0.00146
41.25 0.00188
41.3 0.00183
41.35 0.002
41.4 0.00144
41.45 0.00062
41.5 -0.00036
41.55 -0.00118
41.6 -0.00119
41.65 -0.00143
41.7 -0.00134
41.75 -0.00139
41.8 -0.00167
41.85 -0.00159
41.9 -0.00109
41.95 -0.00089
42 -0.00051
42.05 -0.00008
42.1 0.00035
42.15 0.00056
42.2 0.00087
42.25 0.00105
42.3 0.00072
42.35 0.00038
42.4 -0.0001
42.45 -0.00025
42.5 -0.00053
42.55 -0.00111
42.6 -0.00187
42.65 -0.0021
42.7 -0.0024
42.75 -0.00274
42.8 -0.0026
42.85 -0.00194
42.9 -0.00172
42.95 -0.00164
43 -0.0018
43.05 -0.00187
43.1 -0.00171
43.15 -0.00105
43.2 -0.00076
43.25 -0.00055
43.3 -0.00028
43.35 -0.00035
43.4 -0.00011
43.45 0.00043
43.5 0.00109
43.55 0.001
43.6 0.00108
43.65 0.00128
43.7 0.00087
43.75 0.00038
43.8 0.00032
43.85 -0.00015
43.9 0.00001
43.95 0.00034
44 0.00081
44.05 0.00067
44.1 0.00025
44.15 -0.00042
44.2 -0.00094
44.25 -0.00127
44.3 -0.00136
44.35 -0.00163
44.4 -0.00213
44.45 -0.00263
44.5 -0.00251
44.55 -0.00265
44.6 -0.00266
44.65 -0.00221
44.7 -0.00214
44.75 -0.00215
44.8 -0.00201
44.85 -0.00205
44.9 -0.0023
44.95 -0.00265
45 -0.0027
45.05 -0.00221
45.1 -0.00191
45.15 -0.00162
45.2 -0.00136
45.25 -0.00136
45.3 -0.00119
45.35 -0.00061
45.4 -0.00006
45.45 0.00048
45.5 0.00052
45.55 0.00011
45.6 0.00026
45.65 0.00061
45.7 0.00112
45.75 0.00123
45.8 0.00142
45.85 0.0016
45.9 0.00187
45.95 0.00179
46 0.00194
46.05 0.00192
46.1 0.00202
46.15 0.00194
46.2 0.00134
46.25 0.00041
46.3 0.00019
46.35 -0.00012
46.4 -0.00049
46.45 -0.00037
46.5 -0.0006
46.55 -0.00083
46.6 -0.00065
46.65 -0.00058
46.7 -0.00017
46.75 0.00006
46.8 0.00054
46.85 0.00067
46.9 0.00047
46.95 0.00013
47 -0.00047
47.05 -0.00106
47.1 -0.0015
47.15 -0.00151
47.2 -0.00115
47.25 -0.00081
47.3 -0.00041
47.35 0.00008
47.4 0.00059
47.45 0.00079
47.5 0.00119
47.55 0.00097
47.6 0.0004
47.65 -0.00003
47.7 -0.00055
47.75 -0.00105
47.8 -0.00166
47.85 -0.00158
47.9 -0.00124
47.95 -0.00112
48 -0.00084
48.05 -0.00019
48.1 0.00051
48.15 0.00052
48.2 0.00006
48.25 -0.00002
48.3 0.00007
48.35 0.0003
48.4 0.00063
48.45 0.0008
48.5 0.00053
48.55 0.00009
48.6 -0.00012
48.65 -0.00031
48.7 -0.00062
48.75 -0.00122
48.8 -0.00165
48.85 -0.0022
48.9 -0.0028
48.95 -0.00349
49 -0.0034
49.05 -0.00363
49.1 -0.00338
49.15 -0.00355
49.2 -0.00389
49.25 -0.00436
49.3 -0.00535
49.35 -0.00604
49.4 -0.0071
49.45 -0.008
49.5 -0.00884
49.55 -0.01005
49.6 -0.01142
49.65 -0.01312
49.7 -0.01567
49.75 -0.01854
49.8 -0.02205
49.85 -0.02578
49.9 -0.02992
49.95 -0.0346
50 -0.04031
50.05 -0.04642
50.1 -0.05359
50.15 -0.0618
50.2 -0.07089
50.25 -0.08045
50.3 -0.08998
50.35 -0.09978
50.4 -0.11037
50.45 -0.121
50.5 -0.13228
50.55 -0.14356
50.6 -0.15557
50.65 -0.16751
50.7 -0.1801
50.75 -0.19206
50.8 -0.20408
50.85 -0.21554
50.9 -0.22657
50.95 -0.23654
51 -0.24534
51.05 -0.25305
51.1 -0.25938
51.15 -0.26504
51.2 -0.26945
51.25 -0.27216
51.3 -0.27344
51.35 -0.27316
51.4 -0.27107
51.45 -0.26741
51.5 -0.26228
51.55 -0.25567
51.6 -0.24751
51.65 -0.23711
51.7 -0.2252
51.75 -0.21234
51.8 -0.19847
51.85 -0.18337
51.9 -0.16678
51.95 -0.14911
52 -0.1308
52.05 -0.11267
52.1 -0.09443
52.15 -0.07558
52.2 -0.05612
52.25 -0.03713
52.3 -0.01778
52.35 0.00118
52.4 0.02016
52.45 0.03927
52.5 0.05799
52.55 0.07616
52.6 0.09394
52.65 0.11118
52.7 0.12784
52.75 0.14429
52.8 0.1598
52.85 0.17478
52.9 0.18886
52.95 0.20168
53 0.21359
53.05 0.22468
53.1 0.23479
53.15 0.24332
53.2 0.25094
53.25 0.2575
53.3 0.26243
53.35 0.26645
53.4 0.26932
53.45 0.27107
53.5 0.27159
53.55 0.27111
53.6 0.26959
53.65 0.26689
53.7 0.26319
53.75 0.25855
53.8 0.25316
53.85 0.247
53.9 0.24023
53.95 0.23303
54 0.22579
54.05 0.2178
54.1 0.2094
54.15 0.20096
54.2 0.19279
54.25 0.18498
54.3 0.17731
54.35 0.17006
54.4 0.16311
54.45 0.1559
54.5 0.14915
54.55 0.1423
54.6 0.1353
54.65 0.12913
54.7 0.12295
54.75 0.1177
54.8 0.11223
54.85 0.10763
54.9 0.1031
54.95 0.0991
55 0.09478
55.05 0.09051
55.1 0.08692
55.15 0.08386
55.2 0.08056
55.25 0.0773
55.3 0.07401
55.35 0.071
55.4 0.0682
55.45 0.06595
55.5 0.06375
55.55 0.0618
55.6 0.06001
55.65 0.05789
55.7 0.05626
55.75 0.05481
55.8 0.05328
55.85 0.05161
55.9 0.04953
55.95 0.04738
56 0.04511
56.05 0.0434
56.1 0.04131
56.15 0.03914
56.2 0.03744
56.25 0.03572
56.3 0.03392
56.35 0.03194
56.4 0.02956
56.45 0.02754
56.5 0.0259
56.55 0.02423
56.6 0.02224
56.65 0.01993
56.7 0.01771
56.75 0.0153
56.8 0.01307
56.85 0.01073
56.9 0.00862
56.95 0.00637
57 0.00435
57.05 0.00217
57.1 0.00007
57.15 -0.00188
57.2 -0.00387
57.25 -0.00601
57.3 -0.00791
57.35 -0.00942
57.4 -0.01039
57.45 -0.01124
57.5 -0.01202
57.55 -0.01292
57.6 -0.01428
57.65 -0.01563
57.7 -0.01693
57.75 -0.01831
57.8 -0.01948
57.85 -0.02049
57.9 -0.02171
57.95 -0.02298
58 -0.0243
58.05 -0.02525
58.1 -0.02632
58.15 -0.02679
58.2 -0.02737
58.25 -0.02764
58.3 -0.02798
58.35 -0.02796
58.4 -0.02839
58.45 -0.02925
58.5 -0.03
58.55 -0.03059
58.6 -0.03097
58.65 -0.03148
58.7 -0.03197
58.75 -0.03189
58.8 -0.03203
58.85 -0.03198
58.9 -0.03166
58.95 -0.03109
59 -0.03056
59.05 -0.03053
59.1 -0.0306
59.15 -0.03028
59.2 -0.02974
59.25 -0.02997
59.3 -0.03034
59.35 -0.03085
59.4 -0.03081
59.45 -0.03077
59.5 -0.03112
59.55 -0.0315
59.6 -0.03183
59.65 -0.03222
59.7 -0.03228
59.75 -0.03215
59.8 -0.03165
59.85 -0.03072
59.9 -0.03009
59.95 -0.02969
60 -0.02928
60.05 -0.02883
60.1 -0.02865
60.15 -0.02831
60.2 -0.02754
60.25 -0.02709
60.3 -0.027
60.35 -0.02693
60.4 -0.02668
60.45 -0.02639
60.5 -0.02583
60.55 -0.0249
60.6 -0.02434
60.65 -0.02356
60.7 -0.02246
60.75 -0.02202
60.8 -0.02159
60.85 -0.02169
60.9 -0.02199
60.95 -0.02211
61 -0.02209
61.05 -0.02214
61.1 -0.02167
61.15 -0.0214
61.2 -0.02065
61.25 -0.01957
61.3 -0.01861
61.35 -0.01788
61.4 -0.0171
61.45 -0.01615
61.5 -0.01588
61.55 -0.01621
61.6 -0.01674
61.65 -0.01737
61.7 -0.01808
61.75 -0.01861
61.8 -0.01907
61.85 -0.01928
61.9 -0.01898
61.95 -0.0184
62 -0.0173
62.05 -0.01598
62.1 -0.0148
62.15 -0.01432
62.2 -0.01368
62.25 -0.01296
62.3 -0.01226
62.35 -0.01149
62.4 -0.01121
62.45 -0.01092
62.5 -0.01043
62.55 -0.01051
62.6 -0.01028
62.65 -0.01063
62.7 -0.01122
62.75 -0.01172
62.8 -0.0123
62.85 -0.0125
62.9 -0.01277
62.95 -0.01238
63 -0.0124
63.05 -0.01265
63.1 -0.01223
63.15 -0.01168
63.2 -0.01085
63.25 -0.01039
63.3 -0.01028
63.35 -0.00976
63.4 -0.00974
63.45 -0.00924
63.5 -0.00908
63.55 -0.00891
63.6 -0.00923
63.65 -0.00933
63.7 -0.0091
63.75 -0.00909
63.8 -0.00916
63.85 -0.00893
63.9 -0.00831
63.95 -0.00789
64 -0.00729
64.05 -0.00692
64.1 -0.00703
64.15 -0.00721
64.2 -0.00686
64.25 -0.00695
64.3 -0.00686
64.35 -0.00684
64.4 -0.00651
64.45 -0.0065
64.5 -0.00644
64.55 -0.00673
64.6 -0.00733
64.65 -0.00779
64.7 -0.00778
64.75 -0.00743
64.8 -0.0075
64.85 -0.00739
64.9 -0.00705
64.95 -0.00654
65 -0.00647
65.05 -0.00628
65.1 -0.00589
65.15 -0.00565
65.2 -0.00565
65.25 -0.00564
65.3 -0.00567
65.35 -0.00597
65.4 -0.006
65.45 -0.00555
65.5 -0.00503
65.55 -0.00505
65.6 -0.00465
65.65 -0.00438
65.7 -0.00421
65.75 -0.00407
65.8 -0.00366
65.85 -0.00385
65.9 -0.0038
65.95 -0.00391
66 -0.00428
66.05 -0.00445
66.1 -0.0045
66.15 -0.00479
66.2 -0.00528
66.25 -0.00502
66.3 -0.00514
66.35 -0.00535
66.4 -0.00524
66.45 -0.00477
66.5 -0.00405
66.55 -0.00319
66.6 -0.0027
66.65 -0.0028
66.7 -0.00306
66.75 -0.00323
66.8 -0.00356
66.85 -0.00385
66.9 -0.00388
66.95 -0.00415
67 -0.00419
67.05 -0.00387
67.1 -0.00384
67.15 -0.00382
67.2 -0.00386
67.25 -0.00364
67.3 -0.00366
67.35 -0.00397
67.4 -0.00443
67.45 -0.00498
67.5 -0.00492
67.55 -0.00451
67.6 -0.00399
67.65 -0.00395
67.7 -0.00414
67.75 -0.00413
67.8 -0.00411
67.85 -0.00384
67.9 -0.00379
67.95 -0.00316
68 -0.00256
68.05 -0.00218
68.1 -0.0017
68.15 -0.00134
68.2 -0.0012
68.25 -0.00125
68.3 -0.00172
68.35 -0.00201
68.4 -0.00249
68.45 -0.00282
68.5 -0.00307
68.55 -0.00322
68.6 -0.00336
68.65 -0.00322
68.7 -0.00268
68.75 -0.00267
68.8 -0.00262
68.85 -0.00213
68.9 -0.00151
68.95 -0.00116
69 -0.00053
69.05 -0.00028
69.1 0.00004
69.15 -0.00002
69.2 0.00011
69.25 -0.00009
69.3 0.00016
69.35 0.00014
69.4 -0.00038
69.45 -0.00073
69.5 -0.00091
69.55 -0.00064
69.6 -0.00027
69.65 0.00019
69.7 0.00071
69.75 0.00074
69.8 0.00083
69.85 0.00115
69.9 0.0014
69.95 0.00177
70 0.00151
70.05 0.00085
70.1 0.00036
70.15 -0.00004
70.2 -0.00082
70.25 -0.00094
70.3 -0.00131
70.35 -0.00187
70.4 -0.00177
70.45 -0.00171
70.5 -0.00172
70.55 -0.00176
70.6 -0.00185
70.65 -0.00214
70.7 -0.00189
70.75 -0.00124
70.8 -0.00051
70.85 -0.00004
70.9 -0.00016
70.95 -0.00055
71 -0.00083
71.05 -0.00129
71.1 -0.00191
71.15 -0.00214
71.2 -0.00173
71.25 -0.00148
71.3 -0.00096
71.35 -0.00069
71.4 -0.00019
71.45 -0.00014
71.5 -0.00061
71.55 -0.00135
71.6 -0.00216
71.65 -0.00256
71.7 -0.00249
71.75 -0.00233
71.8 -0.00216
71.85 -0.00218
71.9 -0.00228
71.95 -0.00209
72 -0.00198
72.05 -0.0015
72.1 -0.00126
72.15 -0.00063
72.2 -0.00064
72.25 -0.00028
72.3 -0.00008
72.35 0.00043
72.4 0.00109
72.45 0.00144
72.5 0.00143
72.55 0.00143
72.6 0.00131
72.65 0.00153
72.7 0.00125
72.75 0.00095
72.8 0.00031
72.85 -0.00055
72.9 -0.00081
72.95 -0.00063
73 -0.00025
73.05 -0.00038
73.1 -0.00072
73.15 -0.00111
73.2 -0.00162
73.25 -0.00186
73.3 -0.00194
73.35 -0.00188
73.4 -0.00127
73.45 -0.00086
73.5 -0.00042
73.55 -0.00033
73.6 -0.00058
73.65 -0.00071
73.7 -0.00029
73.75 0.00026
73.8 0.00075
73.85 0.0011
73.9 0.00078
73.95 0.00009
74 -0.00001
74.05 0.00035
74.1 0.00093
74.15 0.00111
74.2 0.00074
74.25 0.00061
74.3 0.00047
74.35 0.00013
74.4 -0.00042
74.45 -0.0005
74.5 -0.00055
74.55 -0.00101
74.6 -0.00084
74.65 -0.00065
74.7 -0.00016
74.75 0.00056
74.8 0.00125
74.85 0.0019
74.9 0.00189
74.95 0.00162
75 0.00085
75.05 0.00001
75.1 -0.0008
75.15 -0.00152
75.2 -0.00156
75.25 -0.00168
75.3 -0.00167
75.35 -0.00114
75.4 -0.00039
75.45 0.00014
75.5 0.00084
75.55 0.00106
75.6 0.00101
75.65 0.00122
75.7 0.00102
75.75 0.00071
75.8 0.00033
75.85 -0.00007
75.9 -0.00045
75.95 -0.00057
76 -0.00072
76.05 -0.00103
76.1 -0.00132
76.15 -0.00144
76.2 -0.00143
76.25 -0.00117
76.3 -0.00133
76.35 -0.00147
76.4 -0.00154
76.45 -0.00101
76.5 -0.00036
76.55 0.0002
76.6 0.00064
76.65 0.00053
76.7 0.00016
76.75 0.00018
76.8 0.00016
76.85 0.00024
76.9 0.00009
76.95 0.00026
77 0.00031
77.05 0.00013
77.1 0.0002
77.15 -0.00013
77.2 0.00005
77.25 0.00011
77.3 0.00058
77.35 0.0011
77.4 0.00143
77.45 0.0011
77.5 0.00034
77.55 -0.00005
77.6 -0.00075
77.65 -0.00151
77.7 -0.00161
77.75 -0.00112
77.8 -0.00047
77.85 0.00038
77.9 0.00077
77.95 0.00099
78 0.00104
78.05 0.00068
78.1 0.00012
78.15 -0.00036
78.2 -0.0003
78.25 -0.00047
78.3 -0.00019
78.35 -0.00007
78.4 -0.00034
78.45 -0.0005
78.5 -0.00049
78.55 -0.00092
78.6 -0.00144
78.65 -0.00208
78.7 -0.0023
78.75 -0.00252
78.8 -0.00227
78.85 -0.00233
78.9 -0.00209
78.95 -0.00166
79 -0.00082
79.05 0.00024
79.1 0.00107
79.15 0.00166
79.2 0.0015
79.25 0.00112
79.3 0.00039
79.35 0.00008
79.4 -0.00054
79.45 -0.00069
79.5 -0.00035
79.55 -0.00023
79.6 0.0001
79.65 0.00024
79.7 0.00061
79.75 0.00069
79.8 0.00069
79.85 0.00101
79.9 0.001
79.95 0.00131
80 0.00119
80.05 0.00067
80.1 -0.00007
80.15 -0.00084
80.2 -0.00127
80.25 -0.00148
80.3 -0.00134
80.35 -0.00102
80.4 -0.00037
80.45 0.0001
80.5 0.00033
80.55 0.00014
80.6 0.0001
80.65 -0.00031
80.7 -0.00082
80.75 -0.00072
80.8 -0.0007
80.85 -0.00055
80.9 0.00004
80.95 0.00071
81 0.00097
81.05 0.00135
81.1 0.00148
81.15 0.0014
81.2 0.00129
81.25 0.00086
81.3 0.00056
81.35 0.00045
81.4 0.00041
81.45 0.00056
81.5 0.00087
81.55 0.00054
81.6 0.00019
81.65 -0.00014
81.7 -0.0008
81.75 -0.00144
81.8 -0.00155
81.85 -0.0019
81.9 -0.00178
81.95 -0.00171
82 -0.00174
82.05 -0.00154
82.1 -0.00144
82.15 -0.0013
82.2 -0.00132
82.25 -0.00114
82.3 -0.00077
82.35 -0.00031
82.4 0.00038
82.45 0.00056
82.5 0.00029
82.55 -0.00009
82.6 -0.00075
82.65 -0.00092
82.7 -0.00104
82.75 -0.00071
82.8 -0.00051
82.85 -0.00011
82.9 -0.00025
82.95 -0.0002
83 -0.00006
83.05 -0.00039
83.1 -0.00035
83.15 0.00016
83.2 0.00013
83.25 -0.00017
83.3 -0.00042
83.35 -0.00043
83.4 -0.00054
83.45 -0.0001
83.5 0.00021
83.55 0.00021
83.6 0.00048
83.65 0.00077
83.7 0.0012
83.75 0.00179
83.8 0.00228
83.85 0.00278
83.9 0.0028
83.95 0.00287
84 0.0025
84.05 0.00193
84.1 0.00115
84.15 0.00084
84.2 0.00078
84.25 0.00069
84.3 0.001
84.35 0.00108
84.4 0.00063
84.45 -0.00003
84.5 -0.00013
84.55 -0.00027
84.6 -0.00014
84.65 -0.00036
84.7 -0.00034
84.75 -0.00004
84.8 -0.00021
84.85 -0.0007
84.9 -0.00092
84.95 -0.00133
85 -0.00143
85.05 -0.00124
85.1 -0.00083
85.15 -0.00025
85.2 0.00036
85.25 0.00107
85.3 0.00122
85.35 0.00113
85.4 0.00056
85.45 0.00053
85.5 0.00035
85.55 -0.00004
85.6 -0.00001
85.65 -0.00038
85.7 -0.00031
85.75 -0.00051
85.8 -0.00054
85.85 -0.00022
85.9 0.00026
85.95 0.00041
86 0.0003
86.05 0.00014
86.1 0.00032
86.15 0.00051
86.2 0.0005
86.25 0.00051
86.3 0.0009
86.35 0.00086
86.4 0.00107
86.45 0.00096
86.5 0.00125
86.55 0.00157
86.6 0.00149
86.65 0.00085
86.7 0.00026
86.75 0.00028
86.8 0.00061
86.85 0.00068
86.9 0.00093
86.95 0.00079
87 0.00038
87.05 -0.00013
87.1 -0.00055
87.15 -0.0005
87.2 -0.00073
87.25 -0.00121
87.3 -0.00177
87.35 -0.00164
87.4 -0.00108
87.45 -0.0011
87.5 -0.00061
87.55 -0.00018
87.6 0.00038
87.65 0.00025
87.7 0.00053
87.75 0.001
87.8 0.00082
87.85 0.0007
87.9 0.0001
87.95 -0.00017
88 -0.00075
88.05 -0.00141
88.1 -0.00201
88.15 -0.00195
88.2 -0.00199
88.25 -0.00162
88.3 -0.00163
88.35 -0.0013
88.4 -0.00142
88.45 -0.00098
88.5 -0.00051
88.55 -0.00057
88.6 -0.00093
88.65 -0.00137
88.7 -0.00186
88.75 -0.00202
88.8 -0.00221
88.85 -0.00207
88.9 -0.002
88.95 -0.00168
89 -0.00128
89.05 -0.00088
89.1 -0.00038
89.15 0.00021
89.2 0.00034
89.25 0.00008
89.3 -0.00044
89.35 -0.00103
89.4 -0.00152
89.45 -0.00129
89.5 -0.00109
89.55 -0.00114
89.6 -0.00074
89.65 -0.00005
89.7 0.00016
89.75 0.00008
89.8 -0.0004
89.85 -0.00098
89.9 -0.00098
89.95 -0.00075
90 -0.00026
90.05 -0.00014
90.1 0.00018
90.15 0.00083
90.2 0.00138
90.25 0.00131
90.3 0.00158
90.35 0.0018
90.4 0.00136
90.45 0.00071
90.5 0.00033
90.55 0.00011
90.6 -0.00019
90.65 -0.00078
90.7 -0.00073
90.75 -0.00038
90.8 -0.00005
90.85 -0.00017
90.9 -0.00023
90.95 -0.00069
91 -0.00066
91.05 -0.00099
91.1 -0.00079
91.15 -0.00076
91.2 -0.00049
91.25 -0.00064
91.3 -0.00035
91.35 -0.00011
91.4 0.00043
91.45 0.00082
91.5 0.00101
91.55 0.00093
91.6 0.0008
91.65 0.00068
91.7 0.00064
91.75 0.00014
91.8 -0.00039
91.85 -0.00084
91.9 -0.00139
91.95 -0.00128
92 -0.00145
92.05 -0.00143
92.1 -0.00152
92.15 -0.00138
92.2 -0.00097
92.25 -0.00029
92.3 0.00021
92.35 0.00072
92.4 0.00133
92.45 0.00207
92.5 0.00281
92.55 0.00276
92.6 0.00233
92.65 0.00149
92.7 0.001
92.75 0.00088
92.8 0.00033
92.85 -0.00034
92.9 -0.00058
92.95 -0.00088
93 -0.00065
93.05 -0.00005
93.1 0.00071
93.15 0.00081
93.2 0.00087
93.25 0.00079
93.3 0.00051
93.35 0.00001
93.4 -0.00036
93.45 -0.00024
93.5 -0.00018
93.55 -0.00015
93.6 -0.00026
93.65 -0.00044
93.7 -0.00077
93.75 -0.00069
93.8 -0.00026
93.85 0.00021
93.9 0.00073
93.95 0.00144
94 0.00135
94.05 0.00108
94.1 0.00107
94.15 0.00092
94.2 0.00056
94.25 0.00058
94.3 0.0003
94.35 -0.00009
94.4 -0.00077
94.45 -0.00087
94.5 -0.00058
94.55 -0.00016
94.6 -0.00006
94.65 0.00033
94.7 0.00029
94.75 0.00046
94.8 0.00007
94.85 0
94.9 -0.00048
94.95 -0.0004
95 -0.00021
95.05 -0.00009
95.1 0.00044
95.15 0.00031
95.2 -0.00006
95.25 -0.00075
95.3 -0.00117
95.35 -0.00165
95.4 -0.00157
95.45 -0.00117
95.5 -0.00083
95.55 -0.00025
95.6 -0.00026
95.65 0.00007
95.7 0.00024
95.75 0.00057
95.8 0.00101
95.85 0.0008
95.9 0.00031
95.95 -0.00043
96 -0.0011
96.05 -0.00174
96.1 -0.0019
96.15 -0.00157
96.2 -0.00094
96.25 -0.00064
96.3 -0.00037
96.35 -0.00035
96.4 -0.00071
96.45 -0.00052
96.5 -0.0005
96.55 -0.00035
96.6 -0.00007
96.65 0.00025
96.7 0.00075
96.75 0.00105
96.8 0.00121
96.85 0.00159
96.9 0.00142
96.95 0.00154
97 0.00187
97.05 0.00216
97.1 0.00186
97.15 0.00194
97.2 0.0016
97.25 0.00161
97.3 0.00117
97.35 0.00079
97.4 0.00083
97.45 0.00037
97.5 -0.0004
97.55 -0.00048
97.6 -0.00092
97.65 -0.00079
97.7 -0.00055
97.75 -0.00081
97.8 -0.00116
97.85 -0.0013
97.9 -0.00087
97.95 -0.00025
98 -0.00003
98.05 -0.00014
98.1 -0.00043
98.15 -0.00104
98.2 -0.00115
98.25 -0.0012
98.3 -0.00103
98.35 -0.0013
98.4 -0.00167
98.45 -0.00205
98.5 -0.00201
98.55 -0.00202
98.6 -0.00162
98.65 -0.00109
98.7 -0.00025
98.75 0.00035
98.8 0.00025
98.85 0.00061
98.9 0.0004
98.95 -0.00006
99 -0.00067
99.05 -0.00108
99.1 -0.0016
99.15 -0.00174
99.2 -0.00206
99.25 -0.00185
99.3 -0.00117
99.35 -0.00082
99.4 -0.00078
99.45 -0.00028
99.5 0.00019
99.55 0.0006
99.6 0.00116
99.65 0.00122
99.7 0.00093
99.75 0.00031
99.8 -0.00009
99.85 -0.00066
99.9 -0.00062
99.95 -0.00062
