0 0
0.05 0.00097
0.1 0.00334
0.15 0.00486
0.2 0.00597
0.25 0.00822
0.3 0.00969
0.35 0.01055
0.4 0.01146
0.45 0.0112
0.5 0.01003
0.55 0.00935
0.6 0.00888
0.65 0.00941
0.7 0.00895
0.75 0.00795
0.8 0.00803
0.85 0.00733
0.9 0.0076
0.95 0.00746
1 0.00799
1.05 0.00919
1.1 0.00948
1.15 0.01017
1.2 0.01069
1.25 0.01086
1.3 0.01062
1.35 0.01105
1.4 0.01077
1.45 0.0098
1.5 0.0081
1.55 0.0077
1.6 0.00856
1.65 0.0101
1.7 0.00992
1.75 0.00983
1.8 0.00875
1.85 0.00762
1.9 0.00612
1.95 0.00456
2 0.00401
2.05 0.00473
2.1 0.00487
2.15 0.0053
2.2 0.00638
2.25 0.00694
2.3 0.00682
2.35 0.00717
2.4 0.00677
2.45 0.00691
2.5 0.00638
2.55 0.00514
2.6 0.00446
2.65 0.00393
2.7 0.00374
2.75 0.00451
2.8 0.00564
2.85 0.0062
2.9 0.00584
2.95 0.00497
3 0.00513
3.05 0.00608
3.1 0.00699
3.15 0.00719
3.2 0.0073
3.25 0.00753
3.3 0.00836
3.35 0.00892
3.4 0.00972
3.45 0.01016
3.5 0.01043
3.55 0.01108
3.6 0.01101
3.65 0.01078
3.7 0.01086
3.75 0.00988
3.8 0.00969
3.85 0.0091
3.9 0.00915
3.95 0.00916
4 0.00846
4.05 0.007
4.1 0.00545
4.15 0.0041
4.2 0.00297
4.25 0.00225
4.3 0.00152
4.35 0.00068
4.4 0.00042
4.45 0.00016
4.5 -0.00043
4.55 -0.00031
4.6 0.0008
4.65 0.0012
4.7 0.00199
4.75 0.00175
4.8 0.00106
4.85 0.0014
4.9 0.00226
4.95 0.00282
5 0.00338
5.05 0.00394
5.1 0.00437
5.15 0.00493
5.2 0.00418
5.25 0.00367
5.3 0.00269
5.35 0.00133
5.4 0.00054
5.45 0.00064
5.5 0.00058
5.55 0.00022
5.6 0.00107
5.65 0.00227
5.7 0.00354
5.75 0.00487
5.8 0.00507
5.85 0.00457
5.9 0.00503
5.95 0.00577
6 0.00673
6.05 0.00598
6.1 0.00432
6.15 0.00337
6.2 0.00304
6.25 0.00252
6.3 0.00129
6.35 -0.00051
6.4 -0.00173
6.45 -0.00149
6.5 -0.00209
6.55 -0.00161
6.6 -0.00078
6.65 0.00024
6.7 0.00076
6.75 0.00154
6.8 0.00299
6.85 0.00344
6.9 0.00407
6.95 0.00482
7 0.00581
7.05 0.00625
7.1 0.00623
7.15 0.00593
7.2 0.0048
7.25 0.00327
7.3 0.00135
7.35 0.00097
7.4 0.00154
7.45 0.00086
7.5 -0.00017
7.55 -0.00138
7.6 -0.00254
7.65 -0.00297
7.7 -0.00311
7.75 -0.002
7.8 -0.00199
7.85 -0.00207
7.9 -0.00097
7.95 0.00082
8 0.00113
8.05 0.0007
8.1 -0.00021
8.15 -0.00104
8.2 -0.00172
8.25 -0.00105
8.3 0.00043
8.35 0.00042
8.4 0.00078
8.45 0.00194
8.5 0.00206
8.55 0.00275
8.6 0.00363
8.65 0.00322
8.7 0.00317
8.75 0.00344
8.8 0.00231
8.85 0.00067
8.9 0.00046
8.95 -0.00049
9 -0.00197
9.05 -0.00236
9.1 -0.00236
9.15 -0.00293
9.2 -0.00218
9.25 -0.00069
9.3 0.00043
9.35 0.00147
9.4 0.00212
9.45 0.00163
9.5 0.00159
9.55 0.00053
9.6 -0.00102
9.65 -0.002
9.7 -0.0023
9.75 -0.00227
9.8 -0.00239
9.85 -0.00181
9.9 -0.00097
9.95 -0.00038
10 -0.00004
10.05 0.0007
10.1 0.002
10.15 0.00313
10.2 0.00263
10.25 0.00185
10.3 0.0015
10.35 0.00198
10.4 0.00279
10.45 0.004
10.5 0.00413
10.55 0.00317
10.6 0.00241
10.65 0.00249
10.7 0.00268
10.75 0.00316
10.8 0.00339
10.85 0.00304
10.9 0.00216
10.95 0.00227
11 0.00316
11.05 0.00256
11.1 0.00151
11.15 0.00064
11.2 -0.00085
11.25 -0.00151
11.3 -0.00179
11.35 -0.00248
11.4 -0.00274
11.45 -0.0019
11.5 -0.00201
11.55 -0.00237
11.6 -0.00241
11.65 -0.00278
11.7 -0.00364
11.75 -0.00296
11.8 -0.00184
11.85 0.00007
11.9 0.00048
11.95 0.00042
12 -0.00021
12.05 -0.00084
12.1 -0.00043
12.15 -0.00087
12.2 -0.0002
12.25 -0.0004
12.3 -0.00092
12.35 -0.00133
12.4 -0.00186
12.45 -0.00108
12.5 -0.00028
12.55 0.00082
12.6 0.00099
12.65 0.00048
12.7 -0.0006
12.75 -0.00178
12.8 -0.0021
12.85 -0.00116
12.9 -0.00131
12.95 -0.00078
13 0.0002
13.05 0.00147
13.1 0.00134
13.15 0.00151
13.2 0.00124
13.25 0.00038
13.3 0.00059
13.35 0.00014
13.4 -0.00018
13.45 0.0002
13.5 0.00087
13.55 0.00112
13.6 0.0005
13.65 0.00046
13.7 0.00089
13.75 0.00161
13.8 0.00222
13.85 0.00246
13.9 0.00184
13.95 0.00074
14 -0.00029
14.05 -0.00116
14.1 -0.00237
14.15 -0.00214
14.2 -0.00224
14.25 -0.00294
14.3 -0.00348
14.35 -0.00354
14.4 -0.00272
14.45 -0.00146
14.5 -0.00041
14.55 0.00037
14.6 0.00148
14.65 0.00154
14.7 0.00141
14.75 0.00033
14.8 0.00006
14.85 0.00029
14.9 -0.00006
14.95 0.00008
15 -0.00039
15.05 -0.00019
15.1 -0.00017
15.15 -0.00114
15.2 -0.00227
15.25 -0.00173
15.3 -0.00083
15.35 0.00016
15.4 0.00087
15.45 0.00155
15.5 0.00137
15.55 0.00112
15.6 0.00128
15.65 0.00138
15.7 0.00197
15.75 0.00163
15.8 0.00049
15.85 0.00004
15.9 -0.00089
15.95 -0.00054
16 -0.0007
16.05 -0.00088
16.1 -0.00114
16.15 -0.00174
16.2 -0.003
16.25 -0.00297
16.3 -0.00239
16.35 -0.0026
16.4 -0.00337
16.45 -0.00355
16.5 -0.00389
16.55 -0.00284
16.6 -0.00112
16.65 0.00067
16.7 0.00108
16.75 0.00173
16.8 0.00187
16.85 0.00118
16.9 0.00031
16.95 -0.00056
17 -0.00112
17.05 -0.00193
17.1 -0.00304
17.15 -0.00281
17.2 -0.00262
17.25 -0.00289
17.3 -0.00202
17.35 -0.00186
17.4 -0.00149
17.45 -0.00117
17.5 -0.00146
17.55 -0.00178
17.6 -0.00253
17.65 -0.00361
17.7 -0.00381
17.75 -0.00436
17.8 -0.00342
17.85 -0.00308
17.9 -0.00316
17.95 -0.00295
18 -0.00273
18.05 -0.00128
18.1 0.00004
18.15 0.00011
18.2 0.00012
18.25 0.00045
18.3 0.0017
18.35 0.00166
18.4 0.00146
18.45 0.00211
18.5 0.00143
18.55 0.002
18.6 0.00157
18.65 0.00231
18.7 0.00315
18.75 0.00439
18.8 0.00512
18.85 0.0051
18.9 0.00512
18.95 0.00545
19 0.00561
19.05 0.00493
19.1 0.00497
19.15 0.00539
19.2 0.0061
19.25 0.00698
19.3 0.00775
19.35 0.0077
19.4 0.00707
19.45 0.00607
19.5 0.00554
19.55 0.00373
19.6 0.00128
19.65 0.00033
19.7 -0.00081
19.75 -0.00145
19.8 -0.00182
19.85 -0.00128
19.9 -0.00039
19.95 0.00022
20 0.00076
20.05 0.00137
20.1 0.00059
20.15 0.00034
20.2 0.00012
20.25 -0.00082
20.3 -0.001
20.35 -0.00114
20.4 -0.00097
20.45 -0.0013
20.5 -0.001
20.55 -0.00124
20.6 -0.00215
20.65 -0.00163
20.7 -0.00159
20.75 -0.00074
20.8 0.00051
20.85 0.0009
20.9 0.00167
20.95 0.00299
21 0.00326
21.05 0.00369
21.1 0.00293
21.15 0.00265
21.2 0.00304
21.25 0.00314
21.3 0.00376
21.35 0.00478
21.4 0.00521
21.45 0.00419
21.5 0.0025
21.55 0.00116
21.6 0.00023
21.65 -0.00006
21.7 0.00014
21.75 0.00095
21.8 0.00199
21.85 0.00342
21.9 0.00288
21.95 0.00143
22 0.00124
22.05 0.00066
22.1 0.00002
22.15 -0.00003
22.2 -0.00118
22.25 -0.00124
22.3 -0.00138
22.35 -0.0017
22.4 -0.00109
22.45 0.00009
22.5 0.00038
22.55 0.00122
22.6 0.00117
22.65 0.00094
22.7 0.00089
22.75 0.0015
22.8 0.0006
22.85 0.00015
22.9 -0.00012
22.95 0.00067
23 0.00086
23.05 0.00012
23.1 -0.00128
23.15 -0.00291
23.2 -0.00287
23.25 -0.0031
23.3 -0.00355
23.35 -0.00421
23.4 -0.00411
23.45 -0.00299
23.5 -0.00291
23.55 -0.00375
23.6 -0.00453
23.65 -0.00527
23.7 -0.00433
23.75 -0.00384
23.8 -0.003
23.85 -0.00205
23.9 -0.00222
23.95 -0.00304
24 -0.00419
24.05 -0.00407
24.1 -0.00416
24.15 -0.00453
24.2 -0.00342
24.25 -0.00305
24.3 -0.00252
24.35 -0.00204
24.4 -0.00066
24.45 -0.00015
24.5 0.00065
24.55 0.00142
24.6 0.00178
24.65 0.00133
24.7 0.00104
24.75 0.00034
24.8 -0.00029
24.85 -0.00124
24.9 -0.00183
24.95 -0.00221
25 -0.00238
25.05 -0.0025
25.1 -0.00319
25.15 -0.00397
25.2 -0.0032
25.25 -0.00258
25.3 -0.0018
25.35 -0.00125
25.4 0.00024
25.45 0.00118
25.5 0.00239
25.55 0.00392
25.6 0.00432
25.65 0.00406
25.7 0.00378
25.75 0.00426
25.8 0.00338
25.85 0.00184
25.9 0.00019
25.95 -0.00141
26 -0.00309
26.05 -0.00365
26.1 -0.00341
26.15 -0.00331
26.2 -0.0023
26.25 -0.00164
26.3 -0.00057
26.35 -0.00068
26.4 0.00037
26.45 0.00138
26.5 0.00232
26.55 0.0026
26.6 0.00176
26.65 0.00166
26.7 0.00079
26.75 0.00078
26.8 -0
26.85 -0.00107
26.9 -0.00152
26.95 -0.00199
27 -0.0013
27.05 -0.0017
27.1 -0.00191
27.15 -0.00189
27.2 -0.00245
27.25 -0.00254
27.3 -0.00281
27.35 -0.00171
27.4 -0.00053
27.45 0.00023
27.5 0.00026
27.55 -0.00009
27.6 0.00013
27.65 0.00039
27.7 0.00119
27.75 0.00056
27.8 -0.00021
27.85 0.0002
27.9 0.00126
27.95 0.00262
28 0.00298
28.05 0.00388
28.1 0.00399
28.15 0.00271
28.2 0.00072
28.25 -0.0005
28.3 -0.00142
28.35 -0.00123
28.4 -0.00127
28.45 -0.00136
28.5 -0.00121
28.55 -0.00041
28.6 -0.00052
28.65 -0.00143
28.7 -0.00207
28.75 -0.00273
28.8 -0.00263
28.85 -0.00141
28.9 -0.00116
28.95 -0.0018
29 -0.00204
29.05 -0.0024
29.1 -0.00226
29.15 -0.00124
29.2 -0.00105
29.25 -0.00089
29.3 -0.00022
29.35 0.00029
29.4 0.0014
29.45 0.00244
29.5 0.00257
29.55 0.00144
29.6 0.00111
29.65 -0.00032
29.7 -0.00105
29.75 -0.00213
29.8 -0.00214
29.85 -0.00271
29.9 -0.00315
29.95 -0.00362
30 -0.0044
30.05 -0.00625
30.1 -0.00822
30.15 -0.0116
30.2 -0.01589
30.25 -0.01918
30.3 -0.0227
30.35 -0.02679
30.4 -0.03244
30.45 -0.0392
30.5 -0.04699
30.55 -0.05547
30.6 -0.06356
30.65 -0.07272
30.7 -0.08405
30.75 -0.09537
30.8 -0.10926
30.85 -0.12379
30.9 -0.13908
30.95 -0.15683
31 -0.17718
31.05 -0.19908
31.1 -0.22283
31.15 -0.24705
31.2 -0.27307
31.25 -0.30063
31.3 -0.32954
31.35 -0.35906
31.4 -0.38742
31.45 -0.41537
31.5 -0.44387
31.55 -0.4726
31.6 -0.49951
31.65 -0.52558
31.7 -0.55007
31.75 -0.57221
31.8 -0.5925
31.85 -0.61105
31.9 -0.62565
31.95 -0.63716
32 -0.64381
32.05 -0.64699
32.1 -0.64518
32.15 -0.63884
32.2 -0.62983
32.25 -0.61674
32.3 -0.59873
32.35 -0.57747
32.4 -0.55176
32.45 -0.52369
32.5 -0.49257
32.55 -0.45835
32.6 -0.422
32.65 -0.38322
32.7 -0.34159
32.75 -0.29765
32.8 -0.25384
32.85 -0.21024
32.9 -0.16643
32.95 -0.12203
33 -0.07924
33.05 -0.03768
33.1 0.00335
33.15 0.04292
33.2 0.08022
33.25 0.1157
33.3 0.15018
33.35 0.18435
33.4 0.216
33.45 0.24543
33.5 0.27365
33.55 0.29868
33.6 0.32223
33.65 0.3439
33.7 0.36322
33.75 0.38116
33.8 0.39888
33.85 0.41618
33.9 0.4326
33.95 0.44628
34 0.45941
34.05 0.47221
34.1 0.48323
34.15 0.49229
34.2 0.50072
34.25 0.50869
34.3 0.51512
34.35 0.52028
34.4 0.52458
34.45 0.52834
34.5 0.53107
34.55 0.53274
34.6 0.5336
34.65 0.53318
34.7 0.5322
34.75 0.53083
34.8 0.52852
34.85 0.52571
34.9 0.52218
34.95 0.51631
35 0.50907
35.05 0.50225
35.1 0.49537
35.15 0.48806
35.2 0.48011
35.25 0.47147
35.3 0.46217
35.35 0.45146
35.4 0.44057
35.45 0.42894
35.5 0.41701
35.55 0.40419
35.6 0.39114
35.65 0.37739
35.7 0.36497
35.75 0.35296
35.8 0.341
35.85 0.3301
35.9 0.31807
35.95 0.30545
36 0.29281
36.05 0.2812
36.1 0.26993
36.15 0.25881
36.2 0.24839
36.25 0.23642
36.3 0.2249
36.35 0.21258
36.4 0.19997
36.45 0.18846
36.5 0.17788
36.55 0.16789
36.6 0.15847
36.65 0.14797
36.7 0.13776
36.75 0.12721
36.8 0.11807
36.85 0.10864
36.9 0.09854
36.95 0.08891
37 0.07901
37.05 0.0707
37.1 0.06222
37.15 0.05321
37.2 0.04521
37.25 0.0388
37.3 0.03168
37.35 0.02534
37.4 0.02014
37.45 0.01453
37.5 0.00949
37.55 0.00408
37.6 -0.00084
37.65 -0.00693
37.7 -0.01275
37.75 -0.01831
37.8 -0.02408
37.85 -0.02862
37.9 -0.03239
37.95 -0.03625
38 -0.04102
38.05 -0.04597
38.1 -0.04985
38.15 -0.05265
38.2 -0.05467
38.25 -0.05673
38.3 -0.05938
38.35 -0.06218
38.4 -0.06394
38.45 -0.06678
38.5 -0.06868
38.55 -0.07085
38.6 -0.07334
38.65 -0.07581
38.7 -0.07779
38.75 -0.0788
38.8 -0.08039
38.85 -0.08072
38.9 -0.08169
38.95 -0.0827
39 -0.08327
39.05 -0.08405
39.1 -0.08466
39.15 -0.08412
39.2 -0.08473
39.25 -0.08524
39.3 -0.08505
39.35 -0.08392
39.4 -0.08266
39.45 -0.08102
39.5 -0.07981
39.55 -0.07952
39.6 -0.0794
39.65 -0.07928
39.7 -0.07914
39.75 -0.07871
39.8 -0.07905
39.85 -0.07926
39.9 -0.07854
39.95 -0.07713
40 -0.07585
40.05 -0.07494
40.1 -0.07399
40.15 -0.07417
40.2 -0.07415
40.25 -0.07498
40.3 -0.07498
40.35 -0.07577
40.4 -0.07661
40.45 -0.0761
40.5 -0.07529
40.55 -0.07411
40.6 -0.07191
40.65 -0.071
40.7 -0.06912
40.75 -0.06814
40.8 -0.06714
40.85 -0.06682
40.9 -0.06536
40.95 -0.06366
41 -0.06146
41.05 -0.05979
41.1 -0.05946
41.15 -0.05887
41.2 -0.05736
41.25 -0.05609
41.3 -0.05572
41.35 -0.05455
41.4 -0.05267
41.45 -0.05165
41.5 -0.05204
41.55 -0.05315
41.6 -0.05424
41.65 -0.05361
41.7 -0.05326
41.75 -0.05248
41.8 -0.05118
41.85 -0.04954
41.9 -0.04834
41.95 -0.04798
42 -0.04793
42.05 -0.0465
42.1 -0.04624
42.15 -0.04507
42.2 -0.04342
42.25 -0.04251
42.3 -0.04228
42.35 -0.04206
42.4 -0.04109
42.45 -0.04044
42.5 -0.0392
42.55 -0.03835
42.6 -0.03763
42.65 -0.03761
42.7 -0.03744
42.75 -0.03786
42.8 -0.03766
42.85 -0.03658
42.9 -0.03465
42.95 -0.03339
43 -0.03333
43.05 -0.03387
43.1 -0.03399
43.15 -0.03445
43.2 -0.03425
43.25 -0.03461
43.3 -0.03379
43.35 -0.03322
43.4 -0.03146
43.45 -0.02927
43.5 -0.0276
43.55 -0.02566
43.6 -0.02398
43.65 -0.02392
43.7 -0.02372
43.75 -0.02287
43.8 -0.02151
43.85 -0.02089
43.9 -0.02002
43.95 -0.01927
44 -0.01965
44.05 -0.02068
44.1 -0.02204
44.15 -0.02352
44.2 -0.02517
44.25 -0.02611
44.3 -0.02662
44.35 -0.02718
44.4 -0.02797
44.45 -0.02772
44.5 -0.02673
44.55 -0.02501
44.6 -0.0229
44.65 -0.02115
44.7 -0.02076
44.75 -0.01951
44.8 -0.01814
44.85 -0.01746
44.9 -0.01657
44.95 -0.01517
45 -0.0134
45.05 -0.01351
45.1 -0.01349
45.15 -0.01275
45.2 -0.01254
45.25 -0.01345
45.3 -0.0146
45.35 -0.01613
45.4 -0.0176
45.45 -0.01835
45.5 -0.01807
45.55 -0.01678
45.6 -0.01631
45.65 -0.01674
45.7 -0.01697
45.75 -0.01706
45.8 -0.01615
45.85 -0.0149
45.9 -0.01347
45.95 -0.01215
46 -0.01227
46.05 -0.01294
46.1 -0.01364
46.15 -0.01349
46.2 -0.01424
46.25 -0.01365
46.3 -0.01263
46.35 -0.0109
46.4 -0.01033
46.45 -0.00996
46.5 -0.00972
46.55 -0.01018
46.6 -0.01096
46.65 -0.01113
46.7 -0.01152
46.75 -0.01261
46.8 -0.01217
46.85 -0.01066
46.9 -0.01036
46.95 -0.00943
47 -0.00981
47.05 -0.01092
47.1 -0.01155
47.15 -0.01089
47.2 -0.0109
47.25 -0.00999
47.3 -0.00872
47.35 -0.00869
47.4 -0.00804
47.45 -0.00775
47.5 -0.00693
47.55 -0.00631
47.6 -0.00533
47.65 -0.00582
47.7 -0.00553
47.75 -0.00505
47.8 -0.00558
47.85 -0.00679
47.9 -0.00814
47.95 -0.00794
48 -0.00744
48.05 -0.00699
48.1 -0.00658
48.15 -0.00582
48.2 -0.00573
48.25 -0.0047
48.3 -0.00427
48.35 -0.00463
48.4 -0.00472
48.45 -0.00431
48.5 -0.00328
48.55 -0.00323
48.6 -0.00382
48.65 -0.00423
48.7 -0.00468
48.75 -0.00571
48.8 -0.00569
48.85 -0.00665
48.9 -0.00622
48.95 -0.00658
49 -0.00588
49.05 -0.0048
49.1 -0.00504
49.15 -0.00577
49.2 -0.00605
49.25 -0.00652
49.3 -0.00644
49.35 -0.00623
49.4 -0.00669
49.45 -0.00784
49.5 -0.00925
49.55 -0.00909
49.6 -0.00871
49.65 -0.0084
49.7 -0.00854
49.75 -0.0078
49.8 -0.00603
49.85 -0.00515
49.9 -0.00362
49.95 -0.00297
50 -0.0018
50.05 -0.0008
50.1 -0.00081
50.15 -0.00184
50.2 -0.00233
50.25 -0.00224
50.3 -0.00237
50.35 -0.00151
50.4 -0.00046
50.45 0.00035
50.5 0.00065
50.55 0.00125
50.6 0.00173
50.65 0.00226
50.7 0.00212
50.75 0.00257
50.8 0.00201
50.85 0.00133
50.9 0.00087
50.95 0.00045
51 -0.00069
51.05 -0.00167
51.1 -0.00305
51.15 -0.0033
51.2 -0.00426
51.25 -0.00515
51.3 -0.00581
51.35 -0.00498
51.4 -0.00382
51.45 -0.00377
51.5 -0.00408
51.55 -0.00378
51.6 -0.00269
51.65 -0.00128
51.7 0.00033
51.75 0.00093
51.8 0.00109
51.85 0.00142
51.9 0.00225
51.95 0.00274
52 0.00216
52.05 0.00131
52.1 -0.00038
52.15 -0.00234
52.2 -0.00331
52.25 -0.00299
52.3 -0.00176
52.35 -0.00009
52.4 0.00011
52.45 -0.00053
52.5 -0.00124
52.55 -0.00121
52.6 -0.00221
52.65 -0.00268
52.7 -0.00233
52.75 -0.00159
52.8 -0.00048
52.85 -0.00059
52.9 -0.00097
52.95 -0.00095
53 -0.00026
53.05 0.00036
53.1 0.00008
53.15 -0.00137
53.2 -0.00226
53.25 -0.00285
53.3 -0.00217
53.35 -0.00186
53.4 -0.00251
53.45 -0.00242
53.5 -0.00253
53.55 -0.00185
53.6 -0.00196
53.65 -0.00218
53.7 -0.00212
53.75 -0.00222
53.8 -0.00284
53.85 -0.00307
53.9 -0.00391
53.95 -0.00451
54 -0.00482
54.05 -0.00467
54.1 -0.0034
54.15 -0.00183
54.2 0.00007
54.25 0.00084
54.3 0.00085
54.35 0.0005
54.4 0.00025
54.45 -0.00074
54.5 -0.00081
54.55 -0.00119
54.6 -0.00195
54.65 -0.00168
54.7 -0.00097
54.75 -0.00158
54.8 -0.0021
54.85 -0.00242
54.9 -0.00331
54.95 -0.00306
55 -0.002
55.05 -0.00195
55.1 -0.00243
55.15 -0.00339
55.2 -0.00427
55.25 -0.00438
55.3 -0.00354
55.35 -0.00219
55.4 -0.00031
55.45 -0.00014
55.5 -0.0006
55.55 -0.00032
55.6 -0.00105
55.65 -0.0017
55.7 -0.00293
55.75 -0.00358
55.8 -0.00472
55.85 -0.00607
55.9 -0.00579
55.95 -0.0057
56 -0.00518
56.05 -0.00473
56.1 -0.00433
56.15 -0.00404
56.2 -0.00311
56.25 -0.00138
56.3 -0.00028
56.35 0.00041
56.4 0.00156
56.45 0.00313
56.5 0.00346
56.55 0.00254
56.6 0.00233
56.65 0.00292
56.7 0.00259
56.75 0.00258
56.8 0.00251
56.85 0.00117
56.9 -0.00023
56.95 -0.0015
57 -0.00325
57.05 -0.00333
57.1 -0.00287
57.15 -0.00205
57.2 -0.00046
57.25 0.00143
57.3 0.00231
57.35 0.00159
57.4 0.00104
57.45 0.00077
57.5 0.00033
57.55 -0.00062
57.6 -0.00074
57.65 -0.00107
57.7 -0.00022
57.75 -0.00011
57.8 -0.00028
57.85 -0.00061
57.9 0.0002
57.95 0.00046
58 0.00043
58.05 -0.00003
58.1 -0.00116
58.15 -0.0008
58.2 -0.00002
58.25 -0.00001
58.3 0.00017
58.35 0.00068
58.4 0.0004
58.45 -0.00077
58.5 -0.00137
58.55 -0.0022
58.6 -0.00222
58.65 -0.00318
58.7 -0.00274
58.75 -0.00258
58.8 -0.00258
58.85 -0.0017
58.9 -0.00211
58.95 -0.00243
59 -0.00312
59.05 -0.00347
59.1 -0.00424
59.15 -0.00527
59.2 -0.00453
59.25 -0.0043
59.3 -0.0028
59.35 -0.00256
59.4 -0.00136
59.45 0.00041
59.5 0.00205
59.55 0.00297
59.6 0.00385
59.65 0.00388
59.7 0.00316
59.75 0.00144
59.8 -0.00068
59.85 -0.00249
59.9 -0.00415
59.95 -0.00565
60 -0.00554
60.05 -0.00405
60.1 -0.0035
60.15 -0.00324
60.2 -0.00287
60.25 -0.00228
60.3 -0.00095
60.35 -0.00062
60.4 0.00034
60.45 0.00073
60.5 0.00085
60.55 0.00047
60.6 0.00082
60.65 0.00069
60.7 -0.00036
60.75 -0.00035
60.8 0.0004
60.85 0.00068
60.9 0.00041
60.95 0.00067
61 0.00173
61.05 0.00246
61.1 0.00273
61.15 0.00175
61.2 0.00043
61.25 0.00047
61.3 0.00053
61.35 0.00043
61.4 0.00006
61.45 -0.00068
61.5 -0.00164
61.55 -0.0015
61.6 -0.00076
61.65 -0.00042
61.7 -0.00032
61.75 -0.00009
61.8 0.00107
61.85 0.00234
61.9 0.00292
61.95 0.00389
62 0.00376
62.05 0.00337
62.1 0.00281
62.15 0.00128
62.2 0.00033
62.25 0.00044
62.3 0.00037
62.35 -0.00036
62.4 -0.00146
62.45 -0.0021
62.5 -0.00193
62.55 -0.0027
62.6 -0.0021
62.65 -0.00132
62.7 -0.00022
62.75 0.00115
62.8 0.00173
62.85 0.00132
62.9 0.00081
62.95 0.0005
63 0.00061
63.05 0.00157
63.1 0.00256
63.15 0.0035
63.2 0.00465
63.25 0.00561
63.3 0.00531
63.35 0.00428
63.4 0.00366
63.45 0.00244
63.5 0.00066
63.55 -0.0015
63.6 -0.00332
63.65 -0.00335
63.7 -0.00314
63.75 -0.00187
63.8 -0.00006
63.85 0.00117
63.9 0.00201
63.95 0.0033
64 0.00439
64.05 0.00452
64.1 0.00327
64.15 0.00303
64.2 0.0021
64.25 0.00225
64.3 0.00266
64.35 0.00207
64.4 0.0012
64.45 -0.00032
64.5 -0.00055
64.55 -0.00037
64.6 0.0002
64.65 0.00016
64.7 0.00089
64.75 0.00194
64.8 0.00225
64.85 0.00183
64.9 0.00119
64.95 0.00039
65 -0.00067
65.05 -0.00197
65.1 -0.0036
65.15 -0.0051
65.2 -0.00556
65.25 -0.00461
65.3 -0.00387
65.35 -0.00278
65.4 -0.00211
65.45 -0.00063
65.5 -0.0005
65.55 0.00006
65.6 -0.00061
65.65 -0.0004
65.7 -0.00067
65.75 -0.00101
65.8 -0.00137
65.85 -0.00147
65.9 -0.00101
65.95 -0.0015
66 -0.00188
66.05 -0.00241
66.1 -0.00277
66.15 -0.00301
66.2 -0.0025
66.25 -0.00269
66.3 -0.00327
66.35 -0.00352
66.4 -0.0036
66.45 -0.00315
66.5 -0.00283
66.55 -0.00238
66.6 -0.00113
66.65 -0.00086
66.7 -0.00139
66.75 -0.0012
66.8 -0.00011
66.85 -0.00039
66.9 0.00034
66.95 0.00029
67 0.00116
67.05 0.00128
67.1 0.00155
67.15 0.00183
67.2 0.0015
67.25 0.00147
67.3 0.00061
67.35 0.00036
67.4 0.00036
67.45 -0.00001
67.5 0.0006
67.55 0.00018
67.6 -0.00116
67.65 -0.00181
67.7 -0.00277
67.75 -0.00224
67.8 -0.00089
67.85 -0.00011
67.9 0.00045
67.95 0.00078
68 0.0009
68.05 0.00045
68.1 -0.0001
68.15 -0.00143
68.2 -0.00175
68.25 -0.00262
68.3 -0.00235
68.35 -0.00227
68.4 -0.00239
68.45 -0.00268
68.5 -0.00205
68.55 -0.0025
68.6 -0.00309
68.65 -0.00385
68.7 -0.00399
68.75 -0.00304
68.8 -0.00272
68.85 -0.00318
68.9 -0.00323
68.95 -0.00343
69 -0.00354
69.05 -0.00401
69.1 -0.00394
69.15 -0.00441
69.2 -0.00334
69.25 -0.00216
69.3 -0.00057
69.35 0.00097
69.4 0.00279
69.45 0.00339
69.5 0.00393
69.55 0.00294
69.6 0.00124
69.65 -0.00041
69.7 -0.00234
69.75 -0.00437
69.8 -0.00595
69.85 -0.00691
69.9 -0.00726
69.95 -0.00584
70 -0.0054
70.05 -0.00483
70.1 -0.00386
70.15 -0.00234
70.2 -0.00068
70.25 0.00043
70.3 0.00182
70.35 0.00295
70.4 0.00291
70.45 0.00324
70.5 0.00354
70.55 0.00448
70.6 0.00572
70.65 0.00545
70.7 0.00446
70.75 0.00428
70.8 0.00454
70.85 0.00531
70.9 0.00573
70.95 0.00514
71 0.00336
71.05 0.0015
71.1 0.00119
71.15 0.00054
71.2 0.00007
71.25 0.00027
71.3 0.00032
71.35 -0.00021
71.4 0.00027
71.45 0.00125
71.5 0.00149
71.55 0.00256
71.6 0.00287
71.65 0.00228
71.7 0.00157
71.75 0.00067
71.8 -0.00085
71.85 -0.00195
71.9 -0.00193
71.95 -0.00162
72 -0.00123
72.05 -0.00016
72.1 0.00015
72.15 -0.00011
72.2 -0.00097
72.25 -0.0019
72.3 -0.00135
72.35 -0.00159
72.4 -0.00104
72.45 -0.00116
72.5 -0.00099
72.55 -0.00038
72.6 0.00056
72.65 0.00091
72.7 0.00021
72.75 -0.00088
72.8 -0.00171
72.85 -0.00123
72.9 -0.00058
72.95 0.00074
73 0.00061
73.05 0.00058
73.1 0.00084
73.15 0.00197
73.2 0.00262
73.25 0.00384
73.3 0.00411
73.35 0.00425
73.4 0.00304
73.45 0.0022
73.5 0.00088
73.55 0.0006
73.6 -0.00012
73.65 -0.00119
73.7 -0.00197
73.75 -0.00143
73.8 -0.00118
73.85 -0.00195
73.9 -0.00279
73.95 -0.0038
74 -0.00452
74.05 -0.00447
74.1 -0.0044
74.15 -0.00398
74.2 -0.00304
74.25 -0.00323
74.3 -0.00302
74.35 -0.00219
74.4 -0.00101
74.45 0.00006
74.5 0.00148
74.55 0.00152
74.6 0.00113
74.65 0.00099
74.7 0.00179
74.75 0.00273
74.8 0.0031
74.85 0.0039
74.9 0.00452
74.95 0.00415
75 0.00352
75.05 0.00189
75.1 0.00071
75.15 0.00072
75.2 0.00149
75.25 0.00231
75.3 0.00204
75.35 0.0023
75.4 0.00311
75.45 0.00325
75.5 0.00364
75.55 0.00358
75.6 0.00345
75.65 0.00243
75.7 0.00249
75.75 0.00281
75.8 0.00285
75.85 0.00257
75.9 0.00246
75.95 0.00229
76 0.00193
76.05 0.0012
76.1 0.00115
76.15 0.00016
76.2 -0.00055
76.25 -0.00048
76.3 -0.00081
76.35 -0.00188
76.4 -0.00279
76.45 -0.0027
76.5 -0.00283
76.55 -0.00339
76.6 -0.00427
76.65 -0.00372
76.7 -0.00336
76.75 -0.00253
76.8 -0.00149
76.85 0.00012
76.9 0.00207
76.95 0.00372
77 0.00399
77.05 0.00438
77.1 0.00469
77.15 0.00459
77.2 0.00493
77.25 0.00497
77.3 0.005
77.35 0.00509
77.4 0.00522
77.45 0.00475
77.5 0.00444
77.55 0.00445
77.6 0.00353
77.65 0.00297
77.7 0.00199
77.75 0.00046
77.8 -0.00026
77.85 0.00009
77.9 0.00056
77.95 0.00085
78 0.00013
78.05 -0.0006
78.1 -0.00203
78.15 -0.00218
78.2 -0.00156
78.25 -0.00055
78.3 -0.00012
78.35 -0.00001
78.4 0.00034
78.45 0.00111
78.5 0.0012
78.55 0.00129
78.6 0.00095
78.65 0.00036
78.7 -0.0011
78.75 -0.00118
78.8 -0.00195
78.85 -0.0021
78.9 -0.0012
78.95 -0.00112
79 -0.00049
79.05 -0.00092
79.1 -0.00103
79.15 -0.00124
79.2 -0.00133
79.25 -0.00124
79.3 -0.00167
79.35 -0.00214
79.4 -0.00147
79.45 -0.00072
79.5 -0.00053
79.55 0.00001
79.6 -0.00005
79.65 0.00041
79.7 0.00081
79.75 0.0004
79.8 -0.00029
79.85 -0.00132
79.9 -0.00171
79.95 -0.00184
80 -0.00087
80.05 -0.00074
80.1 0.00022
80.15 0.00135
80.2 0.00145
80.25 0.00088
80.3 0.00113
80.35 0.00023
80.4 -0.00125
80.45 -0.00157
80.5 -0.00177
80.55 -0.00107
80.6 -0.00164
80.65 -0.00134
80.7 -0.00016
80.75 0.00068
80.8 0.00073
80.85 -0.00015
80.9 -0.00113
80.95 -0.00262
81 -0.00323
81.05 -0.00423
81.1 -0.00486
81.15 -0.00521
81.2 -0.00569
81.25 -0.00541
81.3 -0.00407
81.35 -0.00392
81.4 -0.00387
81.45 -0.00315
81.5 -0.00353
81.55 -0.00312
81.6 -0.00198
81.65 -0.00192
81.7 -0.0015
81.75 -0.00201
81.8 -0.00215
81.85 -0.00219
81.9 -0.00107
81.95 0.00003
82 0.00039
82.05 -0.00013
82.1 -0.00154
82.15 -0.00212
82.2 -0.00327
82.25 -0.00318
82.3 -0.00223
82.35 -0.0009
82.4 0.00024
82.45 0.00176
82.5 0.00259
82.55 0.00194
82.6 0.00144
82.65 0.00068
82.7 -0.00024
82.75 -0.00131
82.8 -0.00141
82.85 -0.00044
82.9 0.0006
82.95 0.00111
83 0.00163
83.05 0.00265
83.1 0.00388
83.15 0.00385
83.2 0.00329
83.25 0.00357
83.3 0.00403
83.35 0.00297
83.4 0.00228
83.45 0.002
83.5 0.00218
83.55 0.00162
83.6 0.00164
83.65 0.00111
83.7 -0.00036
83.75 -0.00043
83.8 0.00021
83.85 0.00059
83.9 -0.00026
83.95 -0.00093
84 -0.00213
84.05 -0.0023
84.1 -0.00136
84.15 -0.00054
84.2 -0.00093
84.25 -0.00104
84.3 -0.00177
84.35 -0.00321
84.4 -0.00351
84.45 -0.00269
84.5 -0.00139
84.55 -0.00121
84.6 -0.0011
84.65 -0.00028
84.7 -0.0007
84.75 -0.00112
84.8 -0.00066
84.85 0.0005
84.9 0.00163
84.95 0.00288
85 0.0025
85.05 0.00261
85.1 0.00223
85.15 0.00168
85.2 0.00079
85.25 0.00002
85.3 -0.0001
85.35 0.0005
85.4 0.00052
85.45 -0.00059
85.5 -0.00131
85.55 -0.00072
85.6 -0.00108
85.65 -0.00103
85.7 -0.00159
85.75 -0.00287
85.8 -0.00354
85.85 -0.00299
85.9 -0.00174
85.95 -0.0018
86 -0.00079
86.05 -0.00101
86.1 -0.00052
86.15 0.00061
86.2 0.00141
86.25 0.00189
86.3 0.00174
86.35 0.00108
86.4 0.0015
86.45 0.00253
86.5 0.00298
86.55 0.00275
86.6 0.00157
86.65 0.00103
86.7 -0.00032
86.75 -0.00215
86.8 -0.00426
86.85 -0.00461
86.9 -0.00495
86.95 -0.00517
87 -0.00479
87.05 -0.00463
87.1 -0.00314
87.15 -0.00217
87.2 -0.00207
87.25 -0.00226
87.3 -0.00318
87.35 -0.00356
87.4 -0.0033
87.45 -0.00365
87.5 -0.00425
87.55 -0.00487
87.6 -0.00578
87.65 -0.0067
87.7 -0.00631
87.75 -0.00561
87.8 -0.00406
87.85 -0.00262
87.9 -0.00136
87.95 -0.00131
88 -0.00196
88.05 -0.00296
88.1 -0.00342
88.15 -0.00285
88.2 -0.0027
88.25 -0.00322
88.3 -0.00276
88.35 -0.00235
88.4 -0.00111
88.45 -0.00017
88.5 0.00034
88.55 0.00158
88.6 0.0018
88.65 0.00141
88.7 0.00187
88.75 0.00104
88.8 0.00139
88.85 0.00119
88.9 0.0001
88.95 -0.00007
89 0.00063
89.05 0.00068
89.1 0.00039
89.15 -0.00039
89.2 -0.00177
89.25 -0.00232
89.3 -0.00236
89.35 -0.00293
89.4 -0.0028
89.45 -0.00337
89.5 -0.00412
89.55 -0.00416
89.6 -0.0038
89.65 -0.00369
89.7 -0.00377
89.75 -0.00342
89.8 -0.00269
89.85 -0.00263
89.9 -0.00183
89.95 -0.00089
90 0.00003
90.05 0.00031
90.1 0
90.15 0.00027
90.2 0.00092
90.25 0.00039
90.3 0.00029
90.35 0.00091
90.4 0.00141
90.45 0.00123
90.5 0.00192
90.55 0.00227
90.6 0.00192
90.65 0.002
90.7 0.00123
90.75 0.00078
90.8 0.00041
90.85 0.0008
90.9 0.00045
90.95 -0.00068
91 -0.00177
91.05 -0.00128
91.1 -0.00174
91.15 -0.00199
91.2 -0.00276
91.25 -0.00221
91.3 -0.00058
91.35 0.0013
91.4 0.00272
91.45 0.00397
91.5 0.00387
91.55 0.00422
91.6 0.00347
91.65 0.00182
91.7 0.00166
91.75 0.00109
91.8 0.00164
91.85 0.00294
91.9 0.00403
91.95 0.00375
92 0.00267
92.05 0.0014
92.1 0.0004
92.15 0.00063
92.2 -0.00026
92.25 -0.00059
92.3 0.00002
92.35 0.00062
92.4 0.00145
92.45 0.00207
92.5 0.00277
92.55 0.0022
92.6 0.00275
92.65 0.00316
92.7 0.00383
92.75 0.00497
92.8 0.0062
92.85 0.00571
92.9 0.00571
92.95 0.00523
93 0.0046
93.05 0.00364
93.1 0.00238
93.15 0.00085
93.2 0.00067
93.25 0.0013
93.3 0.00181
93.35 0.00225
93.4 0.00321
93.45 0.0036
93.5 0.0026
93.55 0.00119
93.6 0.00081
93.65 0.00132
93.7 0.00168
93.75 0.00104
93.8 0.00148
93.85 0.00129
93.9 0.00018
93.95 -0.00147
94 -0.00204
94.05 -0.00242
94.1 -0.0027
94.15 -0.00179
94.2 -0.00124
94.25 -0.00133
94.3 -0.00113
94.35 -0.00103
94.4 -0.00132
94.45 -0.00115
94.5 -0.00073
94.55 -0.00107
94.6 -0.00172
94.65 -0.00237
94.7 -0.00167
94.75 -0.00202
94.8 -0.00215
94.85 -0.00293
94.9 -0.00391
94.95 -0.00499
95 -0.00541
95.05 -0.00622
95.1 -0.00691
95.15 -0.00572
95.2 -0.00345
95.25 -0.00078
95.3 0.00199
95.35 0.00389
95.4 0.00513
95.45 0.00555
95.5 0.00502
95.55 0.00458
95.6 0.00393
95.65 0.00355
95.7 0.00367
95.75 0.00259
95.8 0.00132
95.85 0.00005
95.9 -0.0015
95.95 -0.00313
96 -0.0039
96.05 -0.0039
96.1 -0.00296
96.15 -0.00288
96.2 -0.00154
96.25 -0.00009
96.3 0.00041
96.35 0.00083
96.4 0.00083
96.45 -0.00029
96.5 -0.00069
96.55 0.00001
96.6 0.00033
96.65 0.00102
96.7 0.00211
96.75 0.00312
96.8 0.00322
96.85 0.00367
96.9 0.00467
96.95 0.00564
97 0.00571
97.05 0.00444
97.1 0.00229
97.15 0.00103
97.2 0.00025
97.25 -0.00105
97.3 -0.00201
97.35 -0.00186
97.4 -0.00149
97.45 -0.00159
97.5 -0.00219
97.55 -0.00245
97.6 -0.00216
97.65 -0.00078
97.7 0.00018
97.75 0.00163
97.8 0.00148
97.85 0.0004
97.9 -0.00064
97.95 -0.00077
98 -0.00011
98.05 -0.00037
98.1 -0.00007
98.15 0.00092
98.2 0.00205
98.25 0.00209
98.3 0.00143
98.35 0.00012
98.4 -0.00158
98.45 -0.00335
98.5 -0.00474
98.55 -0.00591
98.6 -0.00721
98.65 -0.00752
98.7 -0.00666
98.75 -0.00574
98.8 -0.00372
98.85 -0.00309
98.9 -0.00178
98.95 -0.00081
99 -0.00035
99.05 0.00012
99.1 0.00126
99.15 0.00204
99.2 0.00298
99.25 0.00375
99.3 0.00398
99.35 0.00393
99.4 0.00256
99.45 0.00162
99.5 -0.00006
99.55 -0.00214
99.6 -0.0035
99.65 -0.00315
99.7 -0.00259
99.75 -0.00284
99.8 -0.00177
99.85 -0.00157
99.9 -0.00224
99.95 -0.00308
