0 0
0.05 0.0004
0.1 0.00098
0.15 0.00176
0.2 0.00237
0.25 0.00302
0.3 0.0032
0.35 0.00334
0.4 0.00334
0.45 0.00333
0.5 0.00339
0.55 0.00362
0.6 0.00371
0.65 0.0038
0.7 0.00359
0.75 0.00331
0.8 0.00284
0.85 0.00247
0.9 0.00228
0.95 0.00222
1 0.00223
1.05 0.00216
1.1 0.00235
1.15 0.0026
1.2 0.00252
1.25 0.00222
1.3 0.0019
1.35 0.00187
1.4 0.00207
1.45 0.00196
1.5 0.00179
1.55 0.00187
1.6 0.00216
1.65 0.00227
1.7 0.00245
1.75 0.00266
1.8 0.00252
1.85 0.00216
1.9 0.00178
1.95 0.00139
2 0.00145
2.05 0.00171
2.1 0.00213
2.15 0.00226
2.2 0.00212
2.25 0.00178
2.3 0.00164
2.35 0.00145
2.4 0.00158
2.45 0.00168
2.5 0.00196
2.55 0.00192
2.6 0.00211
2.65 0.00245
2.7 0.00287
2.75 0.00301
2.8 0.00318
2.85 0.00291
2.9 0.0025
2.95 0.00229
3 0.00204
3.05 0.00205
3.1 0.00186
3.15 0.00166
3.2 0.00153
3.25 0.00136
3.3 0.00141
3.35 0.00147
3.4 0.00155
3.45 0.00166
3.5 0.00171
3.55 0.00186
3.6 0.00199
3.65 0.00182
3.7 0.00145
3.75 0.00091
3.8 0.00084
3.85 0.00053
3.9 0.00021
3.95 0.00032
4 0.00018
4.05 0.00004
4.1 0.00025
4.15 0.00046
4.2 0.00053
4.25 0.00075
4.3 0.00086
4.35 0.00091
4.4 0.001
4.45 0.00126
4.5 0.00117
4.55 0.00127
4.6 0.00132
4.65 0.00152
4.7 0.00165
4.75 0.00155
4.8 0.00146
4.85 0.00123
4.9 0.00106
4.95 0.00077
5 0.00071
5.05 0.00084
5.1 0.00071
5.15 0.00034
5.2 0.0003
5.25 0.00048
5.3 0.00037
5.35 0.00024
5.4 -0.00002
5.45 0.00013
5.5 0.00034
5.55 0.00051
5.6 0.0008
5.65 0.00072
5.7 0.00057
5.75 0.00064
5.8 0.00044
5.85 0.00031
5.9 0.00022
5.95 -0.0001
6 -0.0003
6.05 -0.00057
6.1 -0.00087
6.15 -0.00101
6.2 -0.00091
6.25 -0.00068
6.3 -0.00053
6.35 -0.00043
6.4 -0.00041
6.45 -0.00025
6.5 -0.00024
6.55 -0.00014
6.6 -0.00003
6.65 -0.00001
6.7 0.00003
6.75 0.00026
6.8 0.00058
6.85 0.00056
6.9 0.0003
6.95 0.00018
7 0.00015
7.05 0.00004
7.1 0.00024
7.15 0.00018
7.2 0.00038
7.25 0.00065
7.3 0.00066
7.35 0.00058
7.4 0.0004
7.45 0.00048
7.5 0.00065
7.55 0.00089
7.6 0.00076
7.65 0.00089
7.7 0.00107
7.75 0.00095
7.8 0.00091
7.85 0.00069
7.9 0.00024
7.95 -0.00016
8 -0.00046
8.05 -0.0006
8.1 -0.00057
8.15 -0.0006
8.2 -0.00028
8.25 -0.00019
8.3 -0.00011
8.35 0.00008
8.4 -0.00001
8.45 -0.00003
8.5 0.00018
8.55 0.00039
8.6 0.0005
8.65 0.0003
8.7 0.00021
8.75 0.00044
8.8 0.00084
8.85 0.00083
8.9 0.00059
8.95 0.00018
9 -0.00005
9.05 -0.00021
9.1 -0.00031
9.15 -0.00034
9.2 -0.00028
9.25 -0.00026
9.3 -0.00046
9.35 -0.00046
9.4 -0.00024
9.45 -0.00014
9.5 -0.00004
9.55 0.00024
9.6 0.00016
9.65 0.0001
9.7 -0.00016
9.75 -0.00029
9.8 -0.00012
9.85 0.00016
9.9 0.00021
9.95 0.00004
10 -0.0001
10.05 -0.00001
10.1 0.00004
10.15 0.0001
10.2 0.00034
10.25 0.00038
10.3 0.00017
10.35 -0.00001
10.4 0.00006
10.45 0.00004
10.5 -0.00013
10.55 -0.00006
10.6 0.00005
10.65 0.00025
10.7 0.00028
10.75 0.00057
10.8 0.00092
10.85 0.00103
10.9 0.00127
10.95 0.00133
11 0.00147
11.05 0.00147
11.1 0.00112
11.15 0.00056
11.2 0.00035
11.25 0.00031
11.3 0.00009
11.35 -0.00032
11.4 -0.00047
11.45 -0.00043
11.5 -0.00011
11.55 -0.00007
11.6 -0.00028
11.65 -0.00059
11.7 -0.00072
11.75 -0.00075
11.8 -0.00088
11.85 -0.00068
11.9 -0.00049
11.95 -0.00025
12 -0.00022
12.05 -0.0001
12.1 0.00023
12.15 0.00048
12.2 0.00067
12.25 0.00079
12.3 0.00068
12.35 0.00062
12.4 0.00076
12.45 0.00088
12.5 0.00075
12.55 0.00037
12.6 0.00004
12.65 -0
12.7 -0.00008
12.75 -0.00038
12.8 -0.00076
12.85 -0.00112
12.9 -0.00146
12.95 -0.00163
13 -0.00158
13.05 -0.00136
13.1 -0.00107
13.15 -0.00076
13.2 -0.00051
13.25 -0.00046
13.3 -0.00027
13.35 -0.00013
13.4 -0.00004
13.45 0.00018
13.5 0.00009
13.55 -0.00013
13.6 -0.0001
13.65 -0.00028
13.7 -0.00028
13.75 -0.00036
13.8 -0.00033
13.85 -0.00022
13.9 0.0001
13.95 0.00034
14 0.00075
14.05 0.00111
14.1 0.00147
14.15 0.00136
14.2 0.00131
14.25 0.00137
14.3 0.00117
14.35 0.00102
14.4 0.00077
14.45 0.00041
14.5 0.00027
14.55 0.00008
14.6 -0.00019
14.65 -0.00014
14.7 -0.00015
14.75 -0.00009
14.8 -0.00023
14.85 -0.00019
14.9 -0.00029
14.95 -0.0005
15 -0.00043
15.05 -0.00034
15.1 -0.0001
15.15 -0.00002
15.2 -0.00012
15.25 -0.00041
15.3 -0.00029
15.35 -0.00041
15.4 -0.00039
15.45 -0.00039
15.5 -0.00048
15.55 -0.00074
15.6 -0.0006
15.65 -0.0007
15.7 -0.00052
15.75 -0.00039
15.8 -0.00032
15.85 -0.00008
15.9 -0.00006
15.95 0.00004
16 0.00013
16.05 0.00022
16.1 0.00026
16.15 0.00057
16.2 0.0007
16.25 0.00075
16.3 0.00081
16.35 0.00099
16.4 0.0013
16.45 0.00142
16.5 0.0012
16.55 0.00076
16.6 0.00029
16.65 -0.0001
16.7 -0.00048
16.75 -0.00049
16.8 -0.00035
16.85 -0.00022
16.9 -0.00012
16.95 -0.00015
17 -0.00038
17.05 -0.00066
17.1 -0.00074
17.15 -0.00045
17.2 -0.00036
17.25 -0.00054
17.3 -0.00086
17.35 -0.00085
17.4 -0.00059
17.45 -0.00055
17.5 -0.00043
17.55 -0.00047
17.6 -0.00053
17.65 -0.00074
17.7 -0.001
17.75 -0.00106
17.8 -0.00125
17.85 -0.00129
17.9 -0.00141
17.95 -0.00116
18 -0.00102
18.05 -0.00087
18.1 -0.00075
18.15 -0.0004
18.2 -0.00005
18.25 0.00041
18.3 0.0008
18.35 0.00122
18.4 0.0015
18.45 0.0017
18.5 0.00194
18.55 0.00208
18.6 0.00215
18.65 0.00212
18.7 0.00169
18.75 0.0013
18.8 0.00117
18.85 0.00103
18.9 0.00069
18.95 0.00035
19 -0.00006
19.05 -0.00005
19.1 -0.00001
19.15 0.00003
19.2 0.00002
19.25 -0.00003
19.3 -0.00024
19.35 -0.0004
19.4 -0.00021
19.45 0.00015
19.5 0.00022
19.55 0.00039
19.6 0.00051
19.65 0.0004
19.7 0.00057
19.75 0.00066
19.8 0.00061
19.85 0.00057
19.9 0.00056
19.95 0.00048
20 0.00042
20.05 0.00023
20.1 -0.00008
20.15 -0.00006
20.2 0.00008
20.25 -0.00009
20.3 -0.00045
20.35 -0.00061
20.4 -0.00064
20.45 -0.0008
20.5 -0.00073
20.55 -0.00051
20.6 -0.00018
20.65 -0.00019
20.7 0.0001
20.75 0.00024
20.8 0.00014
20.85 0.00002
20.9 0.00006
20.95 -0.00003
21 -0.0003
21.05 -0.00061
21.1 -0.0007
21.15 -0.00051
21.2 -0.00027
21.25 -0.00029
21.3 -0.0004
21.35 -0.00068
21.4 -0.00052
21.45 -0.00055
21.5 -0.00078
21.55 -0.00072
21.6 -0.00071
21.65 -0.00077
21.7 -0.00087
21.75 -0.00069
21.8 -0.00049
21.85 -0.00025
21.9 -0.00003
21.95 0.00015
22 0.00007
22.05 -0.00005
22.1 -0.00037
22.15 -0.00053
22.2 -0.00085
22.25 -0.00122
22.3 -0.00112
22.35 -0.00072
22.4 -0.00059
22.45 -0.00018
22.5 0.00026
22.55 0.00049
22.6 0.00074
22.65 0.00107
22.7 0.00099
22.75 0.00103
22.8 0.00088
22.85 0.00078
22.9 0.00063
22.95 0.00068
23 0.00065
23.05 0.00074
23.1 0.00084
23.15 0.00107
23.2 0.00115
23.25 0.00115
23.3 0.00109
23.35 0.00105
23.4 0.00102
23.45 0.00067
23.5 0.00055
23.55 0.00043
23.6 0.00045
23.65 0.00047
23.7 0.00045
23.75 0.00046
23.8 0.00044
23.85 0.0006
23.9 0.00063
23.95 0.00032
24 0.00014
24.05 -0.00025
24.1 -0.00045
24.15 -0.00039
24.2 -0.00024
24.25 -0.00004
24.3 -0.00006
24.35 -0.00019
24.4 -0.00042
24.45 -0.00041
24.5 -0.00012
24.55 -0.00011
24.6 -0.00031
24.65 -0.0005
24.7 -0.0004
24.75 -0.00057
24.8 -0.00071
24.85 -0.00052
24.9 -0.00053
24.95 -0.00052
25 -0.00033
25.05 -0.00014
25.1 -0.0001
25.15 -0.00012
25.2 -0.00028
25.25 -0.00051
25.3 -0.00043
25.35 -0.00058
25.4 -0.00042
25.45 -0.0004
25.5 -0.0004
25.55 -0.00064
25.6 -0.00085
25.65 -0.00112
25.7 -0.00138
25.75 -0.00141
25.8 -0.00148
25.85 -0.00162
25.9 -0.00142
25.95 -0.00134
26 -0.00139
26.05 -0.00152
26.1 -0.00124
26.15 -0.00119
26.2 -0.00086
26.25 -0.00046
26.3 0.00011
26.35 0.00051
26.4 0.00057
26.45 0.00053
26.5 0.00031
26.55 0.00033
26.6 0.00062
26.65 0.00094
26.7 0.00133
26.75 0.00159
26.8 0.00191
26.85 0.00203
26.9 0.00188
26.95 0.00148
27 0.00113
27.05 0.00063
27.1 0.00016
27.15 0.00001
27.2 0.00001
27.25 0.00011
27.3 0.00015
27.35 0.00001
27.4 -0.00034
27.45 -0.00065
27.5 -0.00104
27.55 -0.0012
27.6 -0.00099
27.65 -0.00083
27.7 -0.00054
27.75 -0.00011
27.8 0.00028
27.85 0.00041
27.9 0.00073
27.95 0.00087
28 0.00075
28.05 0.00038
28.1 -0.00014
28.15 -0.00071
28.2 -0.0009
28.25 -0.00109
28.3 -0.00113
28.35 -0.0013
28.4 -0.00101
28.45 -0.00048
28.5 -0.00013
28.55 -0.00006
28.6 0.00013
28.65 -0.00002
28.7 -0.00012
28.75 -0.00031
28.8 -0.00011
28.85 -0.00022
28.9 -0.00045
28.95 -0.00027
29 -0.00013
29.05 0.00017
29.1 0.00058
29.15 0.00104
29.2 0.00132
29.25 0.00158
29.3 0.00146
29.35 0.00116
29.4 0.00084
29.45 0.0008
29.5 0.00074
29.55 0.00058
29.6 0.00048
29.65 0.00015
29.7 -0.00015
29.75 -0.00013
29.8 -0.00037
29.85 -0.00029
29.9 0.00004
29.95 0.0003
30 0.00067
30.05 0.00093
30.1 0.00123
30.15 0.00135
30.2 0.00141
30.25 0.00114
30.3 0.0011
30.35 0.00096
30.4 0.00056
30.45 0.00024
30.5 -0.00007
30.55 -0.00049
30.6 -0.00047
30.65 -0.00068
30.7 -0.00101
30.75 -0.00117
30.8 -0.00134
30.85 -0.0015
30.9 -0.00134
30.95 -0.00133
31 -0.00121
31.05 -0.00097
31.1 -0.00057
31.15 -0.00041
31.2 -0.00044
31.25 -0.00036
31.3 -0.0005
31.35 -0.00048
31.4 -0.00053
31.45 -0.00078
31.5 -0.00108
31.55 -0.00143
31.6 -0.00135
31.65 -0.00106
31.7 -0.00055
31.75 -0.00019
31.8 0.00024
31.85 0.00064
31.9 0.00084
31.95 0.00103
32 0.00082
32.05 0.00062
32.1 0.00023
32.15 0.00005
32.2 0.00004
32.25 0.00007
32.3 0.00005
32.35 -0.00001
32.4 0.00006
32.45 0.00035
32.5 0.00058
32.55 0.00064
32.6 0.00061
32.65 0.00035
32.7 -0.00009
32.75 -0.00024
32.8 -0.00029
32.85 -0.0002
32.9 -0.0001
32.95 0.00006
33 -0.00002
33.05 -0.00009
33.1 -0.00034
33.15 -0.0006
33.2 -0.0006
33.25 -0.00041
33.3 -0.00046
33.35 -0.00038
33.4 -0.00017
33.45 -0.00019
33.5 -0.0002
33.55 -0
33.6 0.00002
33.65 -0.00001
33.7 -0.00019
33.75 -0.0001
33.8 0.00009
33.85 0.00038
33.9 0.0004
33.95 0.00045
34 0.00025
34.05 0.00013
34.1 0.00028
34.15 0.00033
34.2 0.00009
34.25 0.00002
34.3 0.00022
34.35 0.00048
34.4 0.0004
34.45 0.00022
34.5 -0.0001
34.55 -0.00054
34.6 -0.00086
34.65 -0.00089
34.7 -0.00097
34.75 -0.00104
34.8 -0.00087
34.85 -0.00062
34.9 -0.00015
34.95 -0.0001
35 0.00003
35.05 0.00033
35.1 0.00039
35.15 0.00047
35.2 0.00022
35.25 -0.00012
35.3 -0.00028
35.35 -0.00018
35.4 -0.00035
35.45 -0.00055
35.5 -0.00045
35.55 -0.00025
35.6 -0.00028
35.65 0.00003
35.7 0.0001
35.75 0.00042
35.8 0.00033
35.85 0.00047
35.9 0.00078
35.95 0.00075
36 0.00074
36.05 0.00054
36.1 0.00013
36.15 -0.00022
36.2 -0.00054
36.25 -0.00063
36.3 -0.0007
36.35 -0.00086
36.4 -0.00103
36.45 -0.0013
36.5 -0.00152
36.55 -0.00158
36.6 -0.00162
36.65 -0.00122
36.7 -0.0008
36.75 -0.0006
36.8 -0.00036
36.85 -0.0001
36.9 0.00003
36.95 0.0003
37 0.00029
37.05 0.00033
37.1 0.00011
37.15 0.00015
37.2 0.00038
37.25 0.00035
37.3 0.0002
37.35 0.00002
37.4 -0.00008
37.45 -0.00034
37.5 -0.00031
37.55 -0.00004
37.6 0.00037
37.65 0.00049
37.7 0.00043
37.75 0.0006
37.8 0.00067
37.85 0.00065
37.9 0.00042
37.95 0.00014
38 0
38.05 0.00013
38.1 0.0004
38.15 0.0005
38.2 0.00039
38.25 0.00049
38.3 0.00035
38.35 0.00039
38.4 0.00035
38.45 0.00022
38.5 0.0004
38.55 0.00034
38.6 0.00053
38.65 0.00089
38.7 0.00127
38.75 0.0016
38.8 0.00171
38.85 0.00158
38.9 0.00158
38.95 0.00128
39 0.001
39.05 0.00072
39.1 0.00044
39.15 0.00035
39.2 0.00024
39.25 0.00014
39.3 0.00026
39.35 0.00009
39.4 0.00008
39.45 0.0002
39.5 0.00048
39.55 0.00038
39.6 0.0002
39.65 -0.00018
39.7 -0.00066
39.75 -0.0008
39.8 -0.00058
39.85 -0.0006
39.9 -0.00033
39.95 0.00012
40 0.00023
40.05 0.00046
40.1 0.00059
40.15 0.00052
40.2 0.00023
40.25 -0.00017
40.3 -0.00061
40.35 -0.00099
40.4 -0.00097
40.45 -0.00103
40.5 -0.00075
40.55 -0.00057
40.6 -0.00021
40.65 -0.00002
40.7 -0.00009
40.75 -0.00011
40.8 -0.00018
40.85 -0.00034
40.9 -0.00046
40.95 -0.00061
41 -0.00061
41.05 -0.00042
41.1 -0.00038
41.15 -0.00021
41.2 -0.00028
41.25 -0.00034
41.3 -0.00019
41.35 -0.00011
41.4 -0.0002
41.45 -0.00013
41.5 -0.00034
41.55 -0.00047
41.6 -0.00035
41.65 -0.00017
41.7 -0.00027
41.75 -0.00028
41.8 -0.00065
41.85 -0.00134
41.9 -0.00203
41.95 -0.00263
42 -0.00323
42.05 -0.00373
42.1 -0.00444
42.15 -0.00505
42.2 -0.00566
42.25 -0.00647
42.3 -0.00733
42.35 -0.0087
42.4 -0.01017
42.45 -0.01178
42.5 -0.01356
42.55 -0.01599
42.6 -0.01877
42.65 -0.0216
42.7 -0.0247
42.75 -0.02847
42.8 -0.03224
42.85 -0.03654
42.9 -0.04138
42.95 -0.04652
43 -0.0516
43.05 -0.05675
43.1 -0.06186
43.15 -0.06708
43.2 -0.07242
43.25 -0.0778
43.3 -0.08361
43.35 -0.08953
43.4 -0.09546
43.45 -0.10129
43.5 -0.10661
43.55 -0.11178
43.6 -0.11671
43.65 -0.12139
43.7 -0.12547
43.75 -0.12897
43.8 -0.13191
43.85 -0.1342
43.9 -0.13578
43.95 -0.13631
44 -0.13592
44.05 -0.13507
44.1 -0.13329
44.15 -0.1309
44.2 -0.128
44.25 -0.12496
44.3 -0.12144
44.35 -0.11775
44.4 -0.11381
44.45 -0.10977
44.5 -0.10529
44.55 -0.10078
44.6 -0.09638
44.65 -0.09164
44.7 -0.08663
44.75 -0.08177
44.8 -0.07684
44.85 -0.07212
44.9 -0.06697
44.95 -0.06192
45 -0.05666
45.05 -0.05098
45.1 -0.04526
45.15 -0.03899
45.2 -0.03213
45.25 -0.02485
45.3 -0.01699
45.35 -0.00881
45.4 -0.00008
45.45 0.00908
45.5 0.01862
45.55 0.02852
45.6 0.03929
45.65 0.05045
45.7 0.06189
45.75 0.07373
45.8 0.08566
45.85 0.09748
45.9 0.10908
45.95 0.12022
46 0.13074
46.05 0.14068
46.1 0.15012
46.15 0.15877
46.2 0.16702
46.25 0.17473
46.3 0.18127
46.35 0.18705
46.4 0.19148
46.45 0.19458
46.5 0.1967
46.55 0.19805
46.6 0.19854
46.65 0.19802
46.7 0.19637
46.75 0.19394
46.8 0.19044
46.85 0.18655
46.9 0.18195
46.95 0.17678
47 0.17105
47.05 0.16487
47.1 0.15843
47.15 0.15177
47.2 0.14495
47.25 0.13795
47.3 0.13087
47.35 0.12362
47.4 0.11635
47.45 0.1092
47.5 0.10188
47.55 0.0947
47.6 0.08797
47.65 0.08166
47.7 0.07549
47.75 0.06941
47.8 0.06349
47.85 0.05781
47.9 0.05239
47.95 0.0473
48 0.0427
48.05 0.03857
48.1 0.03479
48.15 0.03109
48.2 0.02767
48.25 0.0243
48.3 0.02111
48.35 0.0184
48.4 0.01586
48.45 0.01369
48.5 0.01144
48.55 0.00962
48.6 0.00793
48.65 0.00608
48.7 0.00469
48.75 0.00357
48.8 0.00219
48.85 0.00102
48.9 0.00001
48.95 -0.00129
49 -0.00268
49.05 -0.00397
49.1 -0.00522
49.15 -0.00641
49.2 -0.00743
49.25 -0.00832
49.3 -0.00897
49.35 -0.00948
49.4 -0.01
49.45 -0.01011
49.5 -0.00996
49.55 -0.01006
49.6 -0.01009
49.65 -0.01033
49.7 -0.0107
49.75 -0.01093
49.8 -0.01124
49.85 -0.01132
49.9 -0.01168
49.95 -0.0119
50 -0.01186
50.05 -0.01201
50.1 -0.01202
50.15 -0.01212
50.2 -0.01239
50.25 -0.01277
50.3 -0.01292
50.35 -0.01331
50.4 -0.01382
50.45 -0.01403
50.5 -0.014
50.55 -0.01404
50.6 -0.01386
50.65 -0.01376
50.7 -0.01364
50.75 -0.01372
50.8 -0.01382
50.85 -0.01415
50.9 -0.01424
50.95 -0.01448
51 -0.01501
51.05 -0.01546
51.1 -0.01561
51.15 -0.01575
51.2 -0.01566
51.25 -0.01561
51.3 -0.0159
51.35 -0.01608
51.4 -0.01616
51.45 -0.01631
51.5 -0.01621
51.55 -0.01603
51.6 -0.01573
51.65 -0.01561
51.7 -0.01565
51.75 -0.01566
51.8 -0.01591
51.85 -0.01602
51.9 -0.0159
51.95 -0.01571
52 -0.01548
52.05 -0.01541
52.1 -0.01546
52.15 -0.01548
52.2 -0.01532
52.25 -0.01505
52.3 -0.01511
52.35 -0.01513
52.4 -0.01527
52.45 -0.01531
52.5 -0.01536
52.55 -0.0155
52.6 -0.01577
52.65 -0.01588
52.7 -0.01595
52.75 -0.01578
52.8 -0.01559
52.85 -0.01515
52.9 -0.01455
52.95 -0.01397
53 -0.01335
53.05 -0.01281
53.1 -0.0126
53.15 -0.0123
53.2 -0.01195
53.25 -0.0118
53.3 -0.01165
53.35 -0.01174
53.4 -0.01173
53.45 -0.01196
53.5 -0.01233
53.55 -0.01228
53.6 -0.01194
53.65 -0.0117
53.7 -0.01148
53.75 -0.01134
53.8 -0.01148
53.85 -0.01135
53.9 -0.0114
53.95 -0.01117
54 -0.01099
54.05 -0.01093
54.1 -0.01078
54.15 -0.01033
54.2 -0.01007
54.25 -0.0097
54.3 -0.00971
54.35 -0.00992
54.4 -0.01011
54.45 -0.01035
54.5 -0.01018
54.55 -0.00995
54.6 -0.00955
54.65 -0.00934
54.7 -0.0093
54.75 -0.00928
54.8 -0.00908
54.85 -0.00899
54.9 -0.00908
54.95 -0.00905
55 -0.00893
55.05 -0.0087
55.1 -0.00865
55.15 -0.00867
55.2 -0.00846
55.25 -0.00794
55.3 -0.00723
55.35 -0.00652
55.4 -0.00613
55.45 -0.00598
55.5 -0.00572
55.55 -0.00536
55.6 -0.00498
55.65 -0.00497
55.7 -0.00479
55.75 -0.0047
55.8 -0.00451
55.85 -0.00432
55.9 -0.00442
55.95 -0.00458
56 -0.00494
56.05 -0.00506
56.1 -0.00504
56.15 -0.00522
56.2 -0.0053
56.25 -0.00532
56.3 -0.00553
56.35 -0.0055
56.4 -0.00523
56.45 -0.00494
56.5 -0.00469
56.55 -0.00455
56.6 -0.00464
56.65 -0.00496
56.7 -0.00504
56.75 -0.00504
56.8 -0.00484
56.85 -0.00487
56.9 -0.0046
56.95 -0.00415
57 -0.00389
57.05 -0.00368
57.1 -0.00342
57.15 -0.00351
57.2 -0.00381
57.25 -0.00428
57.3 -0.00435
57.35 -0.00456
57.4 -0.00471
57.45 -0.00478
57.5 -0.00489
57.55 -0.00487
57.6 -0.00485
57.65 -0.00473
57.7 -0.00449
57.75 -0.00441
57.8 -0.00445
57.85 -0.00454
57.9 -0.00432
57.95 -0.0038
58 -0.00345
58.05 -0.00339
58.1 -0.00358
58.15 -0.00363
58.2 -0.00347
58.25 -0.00311
58.3 -0.00275
58.35 -0.00252
58.4 -0.00221
58.45 -0.00207
58.5 -0.00206
58.55 -0.00182
58.6 -0.00164
58.65 -0.00149
58.7 -0.00138
58.75 -0.00115
58.8 -0.00108
58.85 -0.00091
58.9 -0.00106
58.95 -0.00125
59 -0.00169
59.05 -0.0021
59.1 -0.00213
59.15 -0.0023
59.2 -0.00268
59.25 -0.00315
59.3 -0.00332
59.35 -0.00333
59.4 -0.00321
59.45 -0.00304
59.5 -0.00261
59.55 -0.00239
59.6 -0.00224
59.65 -0.00205
59.7 -0.00175
59.75 -0.00162
59.8 -0.00169
59.85 -0.00184
59.9 -0.00212
59.95 -0.00202
60 -0.00202
60.05 -0.00201
60.1 -0.00176
60.15 -0.0015
60.2 -0.0016
60.25 -0.00186
60.3 -0.00212
60.35 -0.00205
60.4 -0.00181
60.45 -0.00147
60.5 -0.00136
60.55 -0.00126
60.6 -0.00104
60.65 -0.00108
60.7 -0.00102
60.75 -0.00125
60.8 -0.00134
60.85 -0.00168
60.9 -0.00199
60.95 -0.00212
61 -0.00216
61.05 -0.00223
61.1 -0.00238
61.15 -0.00215
61.2 -0.00197
61.25 -0.00168
61.3 -0.00143
61.35 -0.00104
61.4 -0.00067
61.45 -0.00052
61.5 -0.00034
61.55 -0.00027
61.6 -0.00048
61.65 -0.0006
61.7 -0.00056
61.75 -0.00064
61.8 -0.00093
61.85 -0.00097
61.9 -0.00085
61.95 -0.00093
62 -0.00089
62.05 -0.00084
62.1 -0.00064
62.15 -0.00069
62.2 -0.00101
62.25 -0.00141
62.3 -0.00153
62.35 -0.00164
62.4 -0.00153
62.45 -0.00111
62.5 -0.00062
62.55 -0.00051
62.6 -0.00041
62.65 -0.00043
62.7 -0.00037
62.75 -0.00042
62.8 -0.00048
62.85 -0.00029
62.9 0.00007
62.95 0.00033
63 0.00016
63.05 0.0002
63.1 -0.00005
63.15 -0.00008
63.2 -0.0002
63.25 -0.00027
63.3 -0.0002
63.35 -0.00046
63.4 -0.00043
63.45 -0.00062
63.5 -0.00052
63.55 -0.00019
63.6 -0.00017
63.65 -0.0003
63.7 -0.00062
63.75 -0.00067
63.8 -0.00091
63.85 -0.00085
63.9 -0.00097
63.95 -0.0011
64 -0.00141
64.05 -0.00136
64.1 -0.00102
64.15 -0.00103
64.2 -0.00093
64.25 -0.00061
64.3 -0.00049
64.35 -0.00019
64.4 -0.00011
64.45 -0.00002
64.5 0.00005
64.55 0.00001
64.6 0.00002
64.65 -0.00006
64.7 -0.00025
64.75 -0.00036
64.8 -0.00016
64.85 0.00003
64.9 0.00034
64.95 0.00067
65 0.00058
65.05 0.00023
65.1 0.00017
65.15 0.00029
65.2 0.00049
65.25 0.00068
65.3 0.00051
65.35 0.00007
65.4 -0.00027
65.45 -0.00061
65.5 -0.0009
65.55 -0.00125
65.6 -0.00137
65.65 -0.00163
65.7 -0.00175
65.75 -0.00145
65.8 -0.00101
65.85 -0.00039
65.9 0.00022
65.95 0.00041
66 0.0006
66.05 0.00066
66.1 0.00041
66.15 0.00005
66.2 -0.00043
66.25 -0.00074
66.3 -0.00111
66.35 -0.00149
66.4 -0.00179
66.45 -0.0018
66.5 -0.00186
66.55 -0.00176
66.6 -0.00169
66.65 -0.00133
66.7 -0.00116
66.75 -0.00109
66.8 -0.0008
66.85 -0.00065
66.9 -0.00031
66.95 0.00007
67 0.00045
67.05 0.0006
67.1 0.0007
67.15 0.00078
67.2 0.00092
67.25 0.00119
67.3 0.00126
67.35 0.00136
67.4 0.00128
67.45 0.00137
67.5 0.00136
67.55 0.00111
67.6 0.00103
67.65 0.00066
67.7 0.00051
67.75 0.00061
67.8 0.00054
67.85 0.00054
67.9 0.00025
67.95 -0.00009
68 -0.0001
68.05 -0.00027
68.1 -0.00057
68.15 -0.00069
68.2 -0.00047
68.25 -0.00036
68.3 -0.00007
68.35 0.0001
68.4 -0.0001
68.45 -0.00032
68.5 -0.00045
68.55 -0.00055
68.6 -0.00045
68.65 -0.00027
68.7 0.00006
68.75 -0.00004
68.8 -0.00023
68.85 -0.00025
68.9 -0.00034
68.95 -0.00036
69 -0.00042
69.05 -0.00051
69.1 -0.00077
69.15 -0.00075
69.2 -0.00063
69.25 -0.0008
69.3 -0.00108
69.35 -0.00124
69.4 -0.00149
69.45 -0.00161
69.5 -0.00136
69.55 -0.00122
69.6 -0.00109
69.65 -0.00115
69.7 -0.00119
69.75 -0.00129
69.8 -0.00138
69.85 -0.00105
69.9 -0.00059
69.95 -0.00006
70 0.00005
70.05 0.00028
70.1 0.00067
70.15 0.00064
70.2 0.00037
70.25 0.0002
70.3 0.00019
70.35 0
70.4 -0.00004
70.45 -0.00024
70.5 -0.0004
70.55 -0.00049
70.6 -0.00047
70.65 -0.00038
70.7 -0.00044
70.75 -0.00021
70.8 -0.00013
70.85 -0.00014
70.9 0.00002
70.95 0.00038
71 0.00073
71.05 0.00073
71.1 0.00039
71.15 0.00031
71.2 0.00004
71.25 -0.00018
71.3 -0.00058
71.35 -0.00057
71.4 -0.00078
71.45 -0.00084
71.5 -0.00084
71.55 -0.00092
71.6 -0.00089
71.65 -0.00071
71.7 -0.0006
71.75 -0.00033
71.8 -0.00001
71.85 0.00042
71.9 0.00082
71.95 0.00127
72 0.00132
72.05 0.00109
72.1 0.00085
72.15 0.00072
72.2 0.00032
72.25 -0.00003
72.3 -0.00021
72.35 -0.00056
72.4 -0.00066
72.45 -0.00089
72.5 -0.0012
72.55 -0.00128
72.6 -0.00148
72.65 -0.00146
72.7 -0.00147
72.75 -0.00116
72.8 -0.00097
72.85 -0.00084
72.9 -0.00094
72.95 -0.00071
73 -0.00054
73.05 -0.0004
73.1 -0.00006
73.15 -0.00007
73.2 -0.00021
73.25 -0.00035
73.3 -0.00027
73.35 -0.0001
73.4 0.00022
73.45 0.00038
73.5 0.00055
73.55 0.00085
73.6 0.0007
73.65 0.00078
73.7 0.0005
73.75 0.00052
73.8 0.00045
73.85 0.00016
73.9 0.00019
73.95 0.00036
74 0.00041
74.05 0.00054
74.1 0.00033
74.15 0.00015
74.2 0
74.25 -0.00017
74.3 -0.00013
74.35 -0.00026
74.4 -0.00022
74.45 -0.00027
74.5 -0.00022
74.55 -0.00034
74.6 -0.00014
74.65 -0.00021
74.7 -0.00011
74.75 -0.00013
74.8 -0.00024
74.85 -0.00014
74.9 -0.0002
74.95 -0.00042
75 -0.00079
75.05 -0.0007
75.1 -0.00041
75.15 -0.00004
75.2 0.00021
75.25 0.00061
75.3 0.0006
75.35 0.00065
75.4 0.0009
75.45 0.00119
75.5 0.00154
75.55 0.0017
75.6 0.00166
75.65 0.00177
75.7 0.00167
75.75 0.00121
75.8 0.00092
75.85 0.00045
75.9 0.00025
75.95 0.00014
76 0.0003
76.05 0.00057
76.1 0.00045
76.15 0.00047
76.2 0.00027
76.25 0.0002
76.3 0.00033
76.35 0.00049
76.4 0.00027
76.45 0.00028
76.5 0.00024
76.55 0.00021
76.6 0.00037
76.65 0.00025
76.7 0.00029
76.75 0.0001
76.8 -0.00025
76.85 -0.00024
76.9 -0.00022
76.95 -0.00029
77 -0.00023
77.05 0.00003
77.1 0.00021
77.15 0.00011
77.2 0.00025
77.25 0.0002
77.3 0.00015
77.35 -0.00017
77.4 -0.00048
77.45 -0.0007
77.5 -0.00076
77.55 -0.00059
77.6 -0.00061
77.65 -0.00065
77.7 -0.0006
77.75 -0.0003
77.8 0.00001
77.85 -0
77.9 0.00021
77.95 0.00024
78 0.00001
78.05 -0.00032
78.1 -0.00069
78.15 -0.00088
78.2 -0.00108
78.25 -0.00109
78.3 -0.00091
78.35 -0.00066
78.4 -0.00073
78.45 -0.00059
78.5 -0.00051
78.55 -0.00023
78.6 -0.00031
78.65 -0.00042
78.7 -0.00025
78.75 -0.00033
78.8 -0.00059
78.85 -0.00052
78.9 -0.00048
78.95 -0.00044
79 -0.00046
79.05 -0.00017
79.1 -0.00003
79.15 -0.00006
79.2 -0.00011
79.25 -0.00005
79.3 -0.00026
79.35 -0.00024
79.4 -0.00047
79.45 -0.00036
79.5 -0.0004
79.55 -0.00033
79.6 -0.00041
79.65 -0.00045
79.7 -0.0003
79.75 -0.00034
79.8 -0.00022
79.85 -0.00012
79.9 -0.00026
79.95 -0.00049
80 -0.00071
80.05 -0.0007
80.1 -0.0006
80.15 -0.00065
80.2 -0.00075
80.25 -0.00078
80.3 -0.00046
80.35 -0.0001
80.4 0.00035
80.45 0.00055
80.5 0.00054
80.55 0.00061
80.6 0.00062
80.65 0.00032
80.7 0.00037
80.75 0.00059
80.8 0.00076
80.85 0.00102
80.9 0.00115
80.95 0.00107
81 0.0012
81.05 0.00095
81.1 0.00048
81.15 -0.00013
81.2 -0.00042
81.25 -0.00078
81.3 -0.00087
81.35 -0.00092
81.4 -0.0011
81.45 -0.00104
81.5 -0.00073
81.55 -0.00055
81.6 -0.0002
81.65 -0.00012
81.7 -0.00001
81.75 0.00029
81.8 0.00073
81.85 0.00084
81.9 0.00094
81.95 0.00083
82 0.00088
82.05 0.00059
82.1 0.00041
82.15 0.00051
82.2 0.00044
82.25 0.00053
82.3 0.00029
82.35 0.00023
82.4 0.00041
82.45 0.00064
82.5 0.00097
82.55 0.00126
82.6 0.00135
82.65 0.00139
82.7 0.00101
82.75 0.00083
82.8 0.00058
82.85 0.00037
82.9 0.00016
82.95 -0.00025
83 -0.00049
83.05 -0.00041
83.1 -0.00051
83.15 -0.00062
83.2 -0.00044
83.25 -0.0002
83.3 0.00012
83.35 0.00052
83.4 0.00078
83.45 0.00109
83.5 0.00118
83.55 0.00126
83.6 0.00092
83.65 0.00072
83.7 0.00037
83.75 0.00022
83.8 0.00023
83.85 0.00017
83.9 -0.00004
83.95 -0.00011
84 0.0001
84.05 0.00008
84.1 -0.0002
84.15 -0.00027
84.2 -0.00051
84.25 -0.00066
84.3 -0.00064
84.35 -0.00086
84.4 -0.0009
84.45 -0.0006
84.5 -0.00018
84.55 0.0003
84.6 0.00056
84.65 0.00076
84.7 0.00093
84.75 0.00076
84.8 0.00041
84.85 0.00013
84.9 0.00019
84.95 0.00006
85 0.00002
85.05 -0.00005
85.1 -0.00036
85.15 -0.00028
85.2 -0.00006
85.25 0.00026
85.3 0.00052
85.35 0.00069
85.4 0.00097
85.45 0.00124
85.5 0.00118
85.55 0.00104
85.6 0.00099
85.65 0.00101
85.7 0.00102
85.75 0.00088
85.8 0.00073
85.85 0.00046
85.9 0.0002
85.95 -0.00026
86 -0.00055
86.05 -0.00071
86.1 -0.00055
86.15 -0.00039
86.2 -0.0004
86.25 -0.00067
86.3 -0.00074
86.35 -0.00072
86.4 -0.00065
86.45 -0.00079
86.5 -0.00078
86.55 -0.00049
86.6 -0.00021
86.65 -0.00001
86.7 0.00015
86.75 0.00041
86.8 0.00072
86.85 0.00106
86.9 0.0012
86.95 0.00125
87 0.001
87.05 0.00052
87.1 0.00002
87.15 -0.00054
87.2 -0.00083
87.25 -0.0009
87.3 -0.0007
87.35 -0.00038
87.4 -0.00022
87.45 -0.00031
87.5 -0.00058
87.55 -0.001
87.6 -0.00097
87.65 -0.00088
87.7 -0.00061
87.75 -0.00037
87.8 -0.00005
87.85 -0.00013
87.9 0.00009
87.95 0.00019
88 0.00043
88.05 0.00037
88.1 0.00009
88.15 0.00002
88.2 0.00017
88.25 0.00018
88.3 0.00027
88.35 0.0004
88.4 0.00058
88.45 0.00063
88.5 0.0004
88.55 0.00007
88.6 -0.00011
88.65 -0.00048
88.7 -0.00086
88.75 -0.00129
88.8 -0.00124
88.85 -0.00091
88.9 -0.00086
88.95 -0.00095
89 -0.00092
89.05 -0.00095
89.1 -0.00074
89.15 -0.00065
89.2 -0.00045
89.25 -0.00016
89.3 -0.00004
89.35 -0.00019
89.4 -0.00054
89.45 -0.00078
89.5 -0.00072
89.55 -0.00045
89.6 -0.00026
89.65 0.00011
89.7 0.00052
89.75 0.00081
89.8 0.00067
89.85 0.00033
89.9 0.00011
89.95 -0.00015
90 -0.00027
90.05 -0.00057
90.1 -0.00062
90.15 -0.00077
90.2 -0.00053
90.25 -0.00062
90.3 -0.0009
90.35 -0.00126
90.4 -0.00149
90.45 -0.00175
90.5 -0.00162
90.55 -0.00164
90.6 -0.00175
90.65 -0.00139
90.7 -0.00085
90.75 -0.00048
90.8 -0.00043
90.85 -0.0003
90.9 -0.00012
90.95 -0.00006
91 0.00019
91.05 0.00036
91.1 0.00054
91.15 0.00034
91.2 0.00046
91.25 0.00039
91.3 0.00025
91.35 0.00012
91.4 -0.0002
91.45 -0.00016
91.5 0.00015
91.55 0.00009
91.6 0.00008
91.65 0.0003
91.7 0.00068
91.75 0.00072
91.8 0.00053
91.85 0.0005
91.9 0.0005
91.95 0.00044
92 0.0005
92.05 0.00055
92.1 0.00045
92.15 0.00045
92.2 0.00035
92.25 0.00025
92.3 0.00032
92.35 0.00016
92.4 0.00006
92.45 0.00006
92.5 0.00012
92.55 0.00039
92.6 0.00071
92.65 0.00085
92.7 0.0008
92.75 0.00064
92.8 0.00048
92.85 0.00027
92.9 -0.00004
92.95 -0.00036
93 -0.00051
93.05 -0.0007
93.1 -0.00093
93.15 -0.00112
93.2 -0.00117
93.25 -0.00138
93.3 -0.00133
93.35 -0.00138
93.4 -0.00102
93.45 -0.00046
93.5 -0.00021
93.55 0.00017
93.6 0.00054
93.65 0.00047
93.7 0.00034
93.75 0.0003
93.8 0.00031
93.85 0.0005
93.9 0.00054
93.95 0.0005
94 0.00071
94.05 0.00069
94.1 0.00057
94.15 0.00045
94.2 0.00021
94.25 0.00018
94.3 -0.0001
94.35 -0.00028
94.4 -0.0004
94.45 -0.00069
94.5 -0.00104
94.55 -0.00096
94.6 -0.00056
94.65 -0.00044
94.7 -0.00032
94.75 -0.00039
94.8 -0.00016
94.85 0.00019
94.9 0.00012
94.95 -0.00002
95 -0.00031
95.05 -0.00039
95.1 -0.00062
95.15 -0.0008
95.2 -0.00089
95.25 -0.00114
95.3 -0.00119
95.35 -0.0011
95.4 -0.0007
95.45 -0.00025
95.5 -0.00001
95.55 0.00043
95.6 0.00056
95.65 0.00041
95.7 0.00038
95.75 0.00057
95.8 0.00041
95.85 0.00018
95.9 -0.00011
95.95 -0.00022
96 -0.00047
96.05 -0.00056
96.1 -0.00064
96.15 -0.00052
96.2 -0.00024
96.25 0.00012
96.3 0.00032
96.35 0.00045
96.4 0.00077
96.45 0.00097
96.5 0.00126
96.55 0.00114
96.6 0.00082
96.65 0.00033
96.7 -0.00016
96.75 -0.00048
96.8 -0.00085
96.85 -0.00077
96.9 -0.00058
96.95 -0.00019
97 0.00026
97.05 0.00048
97.1 0.00064
97.15 0.00046
97.2 0.00015
97.25 0.00005
97.3 0.00015
97.35 0.00011
97.4 0.00015
97.45 0.00009
97.5 0.00003
97.55 0.00011
97.6 -0.00011
97.65 -0.00007
97.7 -0.00031
97.75 -0.00038
97.8 -0.00013
97.85 0.00008
97.9 0.00046
97.95 0.00093
98 0.00087
98.05 0.00071
98.1 0.0003
98.15 0.0002
98.2 0.00003
98.25 0.00004
98.3 0.00008
98.35 0.00032
98.4 0.00071
98.45 0.00078
98.5 0.00073
98.55 0.00049
98.6 0.00047
98.65 0.00026
98.7 0.00008
98.75 -0
98.8 -0.00031
98.85 -0.00065
98.9 -0.00086
98.95 -0.00086
99 -0.00072
99.05 -0.00046
99.1 -0.00003
99.15 0.00034
99.2 0.00075
99.25 0.00096
99.3 0.00073
99.35 0.00047
99.4 0.00033
99.45 0.00004
99.5 -0.00042
99.55 -0.00073
99.6 -0.00067
99.65 -0.00069
99.7 -0.00084
99.75 -0.00077
99.8 -0.00094
99.85 -0.001
99.9 -0.00101
99.95 -0.00113
