0 0
0.05 0.00082
0.1 0.00182
0.15 0.00278
0.2 0.00377
0.25 0.00534
0.3 0.00662
0.35 0.00758
0.4 0.00876
0.45 0.00875
0.5 0.00835
0.55 0.0085
0.6 0.00786
0.65 0.00762
0.7 0.00676
0.75 0.00606
0.8 0.00599
0.85 0.00605
0.9 0.006
0.95 0.00675
1 0.00749
1.05 0.00763
1.1 0.00798
1.15 0.00792
1.2 0.00774
1.25 0.0071
1.3 0.00636
1.35 0.00528
1.4 0.00505
1.45 0.00462
1.5 0.00493
1.55 0.00584
1.6 0.00598
1.65 0.00599
1.7 0.00598
1.75 0.00544
1.8 0.00451
1.85 0.00459
1.9 0.00468
1.95 0.00413
2 0.00442
2.05 0.00541
2.1 0.00558
2.15 0.00626
2.2 0.00606
2.25 0.00532
2.3 0.00419
2.35 0.00407
2.4 0.00343
2.45 0.00277
2.5 0.00222
2.55 0.00214
2.6 0.00254
2.65 0.00343
2.7 0.00345
2.75 0.00401
2.8 0.00514
2.85 0.00588
2.9 0.00634
2.95 0.00613
3 0.00571
3.05 0.00584
3.1 0.00599
3.15 0.00568
3.2 0.00588
3.25 0.00635
3.3 0.00569
3.35 0.00565
3.4 0.00503
3.45 0.00482
3.5 0.00497
3.55 0.00455
3.6 0.00379
3.65 0.00355
3.7 0.003
3.75 0.00337
3.8 0.00333
3.85 0.00376
3.9 0.00463
3.95 0.0048
4 0.0046
4.05 0.00437
4.1 0.00417
4.15 0.00424
4.2 0.00362
4.25 0.00285
4.3 0.00287
4.35 0.00296
4.4 0.00306
4.45 0.00304
4.5 0.00312
4.55 0.0038
4.6 0.00435
4.65 0.00418
4.7 0.00445
4.75 0.00442
4.8 0.00357
4.85 0.00357
4.9 0.00268
4.95 0.00174
5 0.00059
5.05 -0.0003
5.1 -0.00024
5.15 0.00039
5.2 0.00084
5.25 0.00079
5.3 0.00096
5.35 0.00082
5.4 0.00145
5.45 0.00112
5.5 0.00134
5.55 0.00104
5.6 0.00033
5.65 -0.00003
5.7 0.00011
5.75 -0.0004
5.8 -0.00048
5.85 -0.00027
5.9 0.00036
5.95 0.00029
6 -0.00014
6.05 0.00044
6.1 0.00129
6.15 0.00223
6.2 0.00228
6.25 0.00171
6.3 0.00088
6.35 0.00102
6.4 0.00104
6.45 0.00105
6.5 0.00143
6.55 0.00105
6.6 0.00041
6.65 -0.00035
6.7 -0.00125
6.75 -0.00206
6.8 -0.00186
6.85 -0.00214
6.9 -0.00265
6.95 -0.00312
7 -0.00368
7.05 -0.00304
7.1 -0.00152
7.15 0.00035
7.2 0.0016
7.25 0.00277
7.3 0.00389
7.35 0.00482
7.4 0.00519
7.45 0.00493
7.5 0.00486
7.55 0.0045
7.6 0.0042
7.65 0.00319
7.7 0.00259
7.75 0.00182
7.8 0.00055
7.85 -0.00075
7.9 -0.00078
7.95 -0.00108
8 -0.0007
8.05 -0.00105
8.1 -0.00088
8.15 0.00005
8.2 0.00019
8.25 0.00077
8.3 0.00179
8.35 0.00256
8.4 0.00276
8.45 0.00283
8.5 0.00226
8.55 0.00178
8.6 0.00166
8.65 0.00108
8.7 0.00112
8.75 0.00111
8.8 0.00085
8.85 0.00061
8.9 0.00089
8.95 0.0003
9 0.00052
9.05 0.00094
9.1 0.00155
9.15 0.00233
9.2 0.00272
9.25 0.00229
9.3 0.00209
9.35 0.00215
9.4 0.00179
9.45 0.00128
9.5 0.00158
9.55 0.0023
9.6 0.00306
9.65 0.00321
9.7 0.00339
9.75 0.00274
9.8 0.00174
9.85 0.0003
9.9 -0.00009
9.95 -0.00086
10 -0.00105
10.05 -0.00178
10.1 -0.00252
10.15 -0.00268
10.2 -0.00218
10.25 -0.0018
10.3 -0.00133
10.35 -0.0008
10.4 -0.00045
10.45 -0.00056
10.5 -0.00025
10.55 -0.00017
10.6 -0.00025
10.65 0.00018
10.7 0.00031
10.75 -0.00022
10.8 0.00014
10.85 -0.00028
10.9 -0.00017
10.95 0.00018
11 -0.00026
11.05 -0.00114
11.1 -0.001
11.15 -0.00069
11.2 0.00009
11.25 0.00104
11.3 0.00095
11.35 0.00051
11.4 -0.00024
11.45 -0.00067
11.5 -0.0002
11.55 0.00072
11.6 0.00151
11.65 0.00192
11.7 0.00203
11.75 0.00259
11.8 0.00315
11.85 0.0034
11.9 0.00351
11.95 0.00298
12 0.00258
12.05 0.00243
12.1 0.00192
12.15 0.00185
12.2 0.00132
12.25 0.00151
12.3 0.00088
12.35 -0.00021
12.4 -0.00055
12.45 -0.00132
12.5 -0.0019
12.55 -0.00248
12.6 -0.00321
12.65 -0.00385
12.7 -0.00404
12.75 -0.00317
12.8 -0.00206
12.85 -0.00163
12.9 -0.00079
12.95 -0.0009
13 -0.00028
13.05 -0.00014
13.1 0.00047
13.15 0.00143
13.2 0.00145
13.25 0.00104
13.3 0.00036
13.35 0.00058
13.4 0.00059
13.45 0.00023
13.5 0.00016
13.55 -0.00026
13.6 -0.00044
13.65 -0.00108
13.7 -0.0012
13.75 -0.00091
13.8 -0.00032
13.85 -0.00049
13.9 -0.00034
13.95 0.0002
14 0.00125
14.05 0.00251
14.1 0.00378
14.15 0.00483
14.2 0.0055
14.25 0.00601
14.3 0.00527
14.35 0.00462
14.4 0.00313
14.45 0.0014
14.5 0.00083
14.55 0.00049
14.6 0.00046
14.65 0.00076
14.7 0.00056
14.75 0.00085
14.8 0.00103
14.85 0.00089
14.9 0.00055
14.95 -0.00037
15 -0.00068
15.05 -0.00025
15.1 -0.00033
15.15 -0.00022
15.2 -0.00016
15.25 -0.0007
15.3 -0.00148
15.35 -0.00257
15.4 -0.00303
15.45 -0.00378
15.5 -0.00401
15.55 -0.00372
15.6 -0.00295
15.65 -0.00181
15.7 -0.0014
15.75 -0.00134
15.8 -0.00167
15.85 -0.00178
15.9 -0.00195
15.95 -0.0025
16 -0.00199
16.05 -0.00206
16.1 -0.00256
16.15 -0.00328
16.2 -0.00324
16.25 -0.00229
16.3 -0.00221
16.35 -0.0024
16.4 -0.0028
16.45 -0.00273
16.5 -0.00219
16.55 -0.00123
16.6 0.00005
16.65 0.00013
16.7 0.00012
16.75 0.00025
16.8 0.00062
16.85 0.0002
16.9 -0.00006
16.95 -0.00015
17 -0.00044
17.05 -0.00047
17.1 0.00026
17.15 0.00052
17.2 0.00098
17.25 0.00152
17.3 0.00244
17.35 0.00229
17.4 0.00162
17.45 0.00092
17.5 0.00003
17.55 -0.00098
17.6 -0.00159
17.65 -0.00238
17.7 -0.00251
17.75 -0.00279
17.8 -0.00283
17.85 -0.00257
17.9 -0.00226
17.95 -0.00165
18 -0.00057
18.05 0.00089
18.1 0.00249
18.15 0.00329
18.2 0.00308
18.25 0.00232
18.3 0.00188
18.35 0.00075
18.4 -0.00014
18.45 -0.00102
18.5 -0.00082
18.55 -0.00033
18.6 0.00026
18.65 0.00002
18.7 -0.00082
18.75 -0.00163
18.8 -0.00142
18.85 -0.00107
18.9 -0.00118
18.95 -0.00114
19 -0.00075
19.05 0.00004
19.1 0.00047
19.15 0.00144
19.2 0.00243
19.25 0.00346
19.3 0.00423
19.35 0.00405
19.4 0.00432
19.45 0.00352
19.5 0.00223
19.55 0.00134
19.6 0.00118
19.65 0.00023
19.7 -0.00082
19.75 -0.00083
19.8 -0.00075
19.85 -0.00127
19.9 -0.002
19.95 -0.00228
20 -0.00182
20.05 -0.00113
20.1 -0.00081
20.15 -0.00037
20.2 0.00029
20.25 0.00063
20.3 0.0001
20.35 0.00044
20.4 0.00077
20.45 0.00124
20.5 0.00125
20.55 0.00163
20.6 0.00167
20.65 0.00201
20.7 0.00212
20.75 0.00138
20.8 0.00088
20.85 -0.00009
20.9 -0.00049
20.95 -0.00087
21 -0.00046
21.05 -0.00017
21.1 -0.00017
21.15 -0.00067
21.2 -0.00044
21.25 -0.0003
21.3 -0.00093
21.35 -0.00118
21.4 -0.00149
21.45 -0.00175
21.5 -0.0019
21.55 -0.00195
21.6 -0.00151
21.65 -0.00071
21.7 0.00018
21.75 0.00114
21.8 0.00102
21.85 0.00153
21.9 0.0023
21.95 0.00228
22 0.00187
22.05 0.00145
22.1 0.00154
22.15 0.00094
22.2 0.00029
22.25 0.00029
22.3 -0.0003
22.35 -0.00066
22.4 -0.00142
22.45 -0.00122
22.5 -0.00086
22.55 0.00005
22.6 0.00083
22.65 0.00132
22.7 0.00158
22.75 0.00128
22.8 0.0005
22.85 0.00024
22.9 0.00062
22.95 0.00083
23 0.00148
23.05 0.00169
23.1 0.00155
23.15 0.00115
23.2 0.00123
23.25 0.0015
23.3 0.00087
23.35 -0.00018
23.4 -0.00076
23.45 -0.00095
23.5 -0.00114
23.55 -0.00068
23.6 0.00016
23.65 0.00053
23.7 0.00092
23.75 0.0009
23.8 0.00131
23.85 0.00078
23.9 0.00092
23.95 0.00118
24 0.0012
24.05 0.0011
24.1 0.0012
24.15 0.00071
24.2 0.00008
24.25 0.00022
24.3 0.00022
24.35 -0.00057
24.4 -0.00087
24.45 -0.00124
24.5 -0.00106
24.55 -0.00083
24.6 -0.00019
24.65 -0.00011
24.7 0.00017
24.75 -0.00043
24.8 -0.00011
24.85 0.0005
24.9 0.00122
24.95 0.00144
25 0.00184
25.05 0.0022
25.1 0.00286
25.15 0.00234
25.2 0.00104
25.25 0.00078
25.3 0.00073
25.35 0.00001
25.4 -0.00121
25.45 -0.00174
25.5 -0.00263
25.55 -0.00247
25.6 -0.00247
25.65 -0.00221
25.7 -0.00164
25.75 -0.00104
25.8 -0.00033
25.85 -0.00036
25.9 -0.00035
25.95 -0.00082
26 -0.00037
26.05 -0.00084
26.1 -0.00129
26.15 -0.00198
26.2 -0.00205
26.25 -0.00125
26.3 -0.00123
26.35 -0.00077
26.4 0.00019
26.45 0.00128
26.5 0.00252
26.55 0.00358
26.6 0.00392
26.65 0.00403
26.7 0.00329
26.75 0.00239
26.8 0.00166
26.85 0.00114
26.9 0.00092
26.95 0.00038
27 -0.00055
27.05 -0.00135
27.1 -0.00229
27.15 -0.00264
27.2 -0.00324
27.25 -0.00408
27.3 -0.00363
27.35 -0.00303
27.4 -0.00171
27.45 -0.00069
27.5 -0.00066
27.55 -0.00088
27.6 -0.00133
27.65 -0.00154
27.7 -0.00159
27.75 -0.00159
27.8 -0.00222
27.85 -0.00247
27.9 -0.00242
27.95 -0.00267
28 -0.00328
28.05 -0.00347
28.1 -0.00377
28.15 -0.00327
28.2 -0.00264
28.25 -0.00274
28.3 -0.00265
28.35 -0.00165
28.4 -0.00063
28.45 0.00059
28.5 0.00063
28.55 0.00091
28.6 0.00061
28.65 0.00011
28.7 0.00021
28.75 0.00005
28.8 0.00017
28.85 0.00064
28.9 -0.00013
28.95 -0.00159
29 -0.00256
29.05 -0.00393
29.1 -0.00556
29.15 -0.00668
29.2 -0.0086
29.25 -0.00964
29.3 -0.01054
29.35 -0.01186
29.4 -0.01349
29.45 -0.01552
29.5 -0.0176
29.55 -0.02094
29.6 -0.02482
29.65 -0.0292
29.7 -0.03464
29.75 -0.04039
29.8 -0.04717
29.85 -0.05485
29.9 -0.06346
29.95 -0.07396
30 -0.08487
30.05 -0.09646
30.1 -0.10962
30.15 -0.12329
30.2 -0.13805
30.25 -0.15434
30.3 -0.17245
30.35 -0.19159
30.4 -0.21168
30.45 -0.23283
30.5 -0.25333
30.55 -0.27376
30.6 -0.29519
30.65 -0.31637
30.7 -0.33791
30.75 -0.35814
30.8 -0.37699
30.85 -0.39454
30.9 -0.41118
30.95 -0.42558
31 -0.43881
31.05 -0.44982
31.1 -0.45782
31.15 -0.46317
31.2 -0.46584
31.25 -0.46578
31.3 -0.46219
31.35 -0.45471
31.4 -0.4433
31.45 -0.42883
31.5 -0.41136
31.55 -0.39133
31.6 -0.36909
31.65 -0.34507
31.7 -0.31828
31.75 -0.28937
31.8 -0.25839
31.85 -0.22677
31.9 -0.19404
31.95 -0.16074
32 -0.12708
32.05 -0.09334
32.1 -0.0609
32.15 -0.02973
32.2 0.00116
32.25 0.03127
32.3 0.05937
32.35 0.08629
32.4 0.11117
32.45 0.13508
32.5 0.15726
32.55 0.17812
32.6 0.19755
32.65 0.21565
32.7 0.23259
32.75 0.24944
32.8 0.26494
32.85 0.27984
32.9 0.29434
32.95 0.30821
33 0.32058
33.05 0.33164
33.1 0.34116
33.15 0.3497
33.2 0.35717
33.25 0.36515
33.3 0.3723
33.35 0.37875
33.4 0.38459
33.45 0.38884
33.5 0.3928
33.55 0.39606
33.6 0.39859
33.65 0.39908
33.7 0.39792
33.75 0.39664
33.8 0.39361
33.85 0.38964
33.9 0.38488
33.95 0.37913
34 0.37287
34.05 0.3653
34.1 0.3577
34.15 0.34889
34.2 0.3398
34.25 0.33112
34.3 0.3219
34.35 0.31199
34.4 0.30212
34.45 0.29273
34.5 0.28236
34.55 0.27122
34.6 0.26044
34.65 0.24978
34.7 0.23922
34.75 0.2292
34.8 0.22018
34.85 0.21147
34.9 0.20227
34.95 0.19339
35 0.18521
35.05 0.17683
35.1 0.16785
35.15 0.15993
35.2 0.15272
35.25 0.14579
35.3 0.13856
35.35 0.13072
35.4 0.12327
35.45 0.11619
35.5 0.10914
35.55 0.10224
35.6 0.09623
35.65 0.09108
35.7 0.0863
35.75 0.08137
35.8 0.07626
35.85 0.07108
35.9 0.06575
35.95 0.06005
36 0.0547
36.05 0.05004
36.1 0.04595
36.15 0.04171
36.2 0.03813
36.25 0.0344
36.3 0.0312
36.35 0.02831
36.4 0.02546
36.45 0.02207
36.5 0.0191
36.55 0.01647
36.6 0.01398
36.65 0.01106
36.7 0.00796
36.75 0.00452
36.8 0.00037
36.85 -0.00369
36.9 -0.00719
36.95 -0.01013
37 -0.01356
37.05 -0.01612
37.1 -0.01841
37.15 -0.02085
37.2 -0.0235
37.25 -0.02605
37.3 -0.02885
37.35 -0.03125
37.4 -0.03353
37.45 -0.03546
37.5 -0.03668
37.55 -0.03847
37.6 -0.03958
37.65 -0.04105
37.7 -0.04208
37.75 -0.04356
37.8 -0.04505
37.85 -0.04625
37.9 -0.04644
37.95 -0.04663
38 -0.04695
38.05 -0.04777
38.1 -0.04851
38.15 -0.04977
38.2 -0.05116
38.25 -0.05256
38.3 -0.05342
38.35 -0.05359
38.4 -0.05282
38.45 -0.0522
38.5 -0.05212
38.55 -0.05229
38.6 -0.0524
38.65 -0.05284
38.7 -0.05273
38.75 -0.05181
38.8 -0.05139
38.85 -0.05175
38.9 -0.0519
38.95 -0.05191
39 -0.05137
39.05 -0.05099
39.1 -0.05076
39.15 -0.05059
39.2 -0.05002
39.25 -0.05009
39.3 -0.04975
39.35 -0.0499
39.4 -0.04942
39.45 -0.04939
39.5 -0.04871
39.55 -0.04763
39.6 -0.04748
39.65 -0.04733
39.7 -0.0466
39.75 -0.04574
39.8 -0.04521
39.85 -0.04434
39.9 -0.04388
39.95 -0.04302
40 -0.0426
40.05 -0.04197
40.1 -0.0414
40.15 -0.04072
40.2 -0.04031
40.25 -0.03989
40.3 -0.03886
40.35 -0.03833
40.4 -0.03857
40.45 -0.03853
40.5 -0.03795
40.55 -0.03808
40.6 -0.03795
40.65 -0.03715
40.7 -0.03657
40.75 -0.03525
40.8 -0.03461
40.85 -0.03391
40.9 -0.03318
40.95 -0.03187
41 -0.03136
41.05 -0.03066
41.1 -0.03
41.15 -0.02898
41.2 -0.02773
41.25 -0.02683
41.3 -0.02714
41.35 -0.02676
41.4 -0.02646
41.45 -0.02576
41.5 -0.02528
41.55 -0.02478
41.6 -0.02511
41.65 -0.02588
41.7 -0.02689
41.75 -0.02736
41.8 -0.02677
41.85 -0.02692
41.9 -0.02712
41.95 -0.0272
42 -0.02714
42.05 -0.02735
42.1 -0.02662
42.15 -0.02528
42.2 -0.02346
42.25 -0.02221
42.3 -0.02159
42.35 -0.02131
42.4 -0.02178
42.45 -0.02196
42.5 -0.02215
42.55 -0.02232
42.6 -0.02276
42.65 -0.02202
42.7 -0.02107
42.75 -0.02002
42.8 -0.01873
42.85 -0.01717
42.9 -0.01551
42.95 -0.01424
43 -0.01394
43.05 -0.01341
43.1 -0.01354
43.15 -0.01314
43.2 -0.01278
43.25 -0.01296
43.3 -0.01382
43.35 -0.01377
43.4 -0.01415
43.45 -0.01472
43.5 -0.01524
43.55 -0.01482
43.6 -0.01389
43.65 -0.01262
43.7 -0.01235
43.75 -0.01288
43.8 -0.01364
43.85 -0.01435
43.9 -0.01467
43.95 -0.01542
44 -0.01642
44.05 -0.01604
44.1 -0.01622
44.15 -0.01646
44.2 -0.01663
44.25 -0.01695
44.3 -0.01701
44.35 -0.01584
44.4 -0.01498
44.45 -0.01474
44.5 -0.01372
44.55 -0.01273
44.6 -0.01213
44.65 -0.01167
44.7 -0.01073
44.75 -0.01071
44.8 -0.01066
44.85 -0.01053
44.9 -0.00996
44.95 -0.01014
45 -0.01008
45.05 -0.0097
45.1 -0.00876
45.15 -0.00885
45.2 -0.00835
45.25 -0.00789
45.3 -0.00728
45.35 -0.00653
45.4 -0.00598
45.45 -0.00531
45.5 -0.00452
45.55 -0.00365
45.6 -0.00403
45.65 -0.00525
45.7 -0.0061
45.75 -0.00651
45.8 -0.00651
45.85 -0.00677
45.9 -0.00712
45.95 -0.00741
46 -0.0073
46.05 -0.00696
46.1 -0.00652
46.15 -0.00583
46.2 -0.00575
46.25 -0.00514
46.3 -0.00541
46.35 -0.00498
46.4 -0.00535
46.45 -0.00531
46.5 -0.00567
46.55 -0.00655
46.6 -0.00646
46.65 -0.0069
46.7 -0.00662
46.75 -0.00582
46.8 -0.00503
46.85 -0.00515
46.9 -0.00578
46.95 -0.00681
47 -0.00733
47.05 -0.00768
47.1 -0.0081
47.15 -0.00765
47.2 -0.00646
47.25 -0.00569
47.3 -0.00525
47.35 -0.00473
47.4 -0.0043
47.45 -0.0044
47.5 -0.00503
47.55 -0.00528
47.6 -0.00548
47.65 -0.00566
47.7 -0.00554
47.75 -0.00478
47.8 -0.00461
47.85 -0.00418
47.9 -0.00437
47.95 -0.00512
48 -0.00539
48.05 -0.00604
48.1 -0.00601
48.15 -0.00506
48.2 -0.00483
48.25 -0.00443
48.3 -0.00451
48.35 -0.00422
48.4 -0.00346
48.45 -0.00326
48.5 -0.00299
48.55 -0.0034
48.6 -0.00335
48.65 -0.00312
48.7 -0.00254
48.75 -0.00197
48.8 -0.00221
48.85 -0.00211
48.9 -0.00239
48.95 -0.002
49 -0.00151
49.05 -0.00105
49.1 -0.00117
49.15 -0.00116
49.2 -0.0017
49.25 -0.00226
49.3 -0.00198
49.35 -0.00171
49.4 -0.00178
49.45 -0.0016
49.5 -0.00117
49.55 -0.00161
49.6 -0.00246
49.65 -0.00244
49.7 -0.00186
49.75 -0.00191
49.8 -0.00231
49.85 -0.00276
49.9 -0.0031
49.95 -0.00309
50 -0.00365
50.05 -0.00375
50.1 -0.00326
50.15 -0.00322
50.2 -0.00253
50.25 -0.00199
50.3 -0.00222
50.35 -0.00254
50.4 -0.00271
50.45 -0.00235
50.5 -0.00175
50.55 -0.00131
50.6 -0.00127
50.65 -0.00134
50.7 -0.00179
50.75 -0.00167
50.8 -0.00213
50.85 -0.00307
50.9 -0.00416
50.95 -0.00418
51 -0.00425
51.05 -0.00432
51.1 -0.00458
51.15 -0.00435
51.2 -0.00455
51.25 -0.00378
51.3 -0.00244
51.35 -0.00117
51.4 -0.0006
51.45 -0.00013
51.5 -0.0005
51.55 -0.00045
51.6 -0.00065
51.65 -0.00091
51.7 -0.00071
51.75 -0.00119
51.8 -0.00168
51.85 -0.00122
51.9 -0.00152
51.95 -0.00146
52 -0.00098
52.05 -0.00086
52.1 -0.00131
52.15 -0.00159
52.2 -0.00162
52.25 -0.00185
52.3 -0.00212
52.35 -0.00286
52.4 -0.00374
52.45 -0.00371
52.5 -0.00316
52.55 -0.00293
52.6 -0.00295
52.65 -0.00269
52.7 -0.00199
52.75 -0.00177
52.8 -0.00159
52.85 -0.00115
52.9 -0.00039
52.95 0.00062
53 0.00148
53.05 0.00188
53.1 0.00233
53.15 0.00251
53.2 0.00314
53.25 0.00375
53.3 0.00408
53.35 0.0034
53.4 0.00337
53.45 0.00277
53.5 0.00162
53.55 0.00029
53.6 -0.00058
53.65 -0.00183
53.7 -0.00189
53.75 -0.00207
53.8 -0.0016
53.85 -0.00088
53.9 -0.00052
53.95 -0.00095
54 -0.00114
54.05 -0.00161
54.1 -0.00213
54.15 -0.00175
54.2 -0.00103
54.25 -0.00097
54.3 -0.00062
54.35 0.00033
54.4 0.00129
54.45 0.0021
54.5 0.00288
54.55 0.00268
54.6 0.00213
54.65 0.00106
54.7 0.00031
54.75 -0.00024
54.8 -0.00013
54.85 -0.00051
54.9 -0.0012
54.95 -0.00149
55 -0.00169
55.05 -0.0016
55.1 -0.00215
55.15 -0.0026
55.2 -0.00303
55.25 -0.00343
55.3 -0.004
55.35 -0.00401
55.4 -0.00394
55.45 -0.00385
55.5 -0.00284
55.55 -0.00164
55.6 -0.001
55.65 -0.00105
55.7 -0.00166
55.75 -0.00257
55.8 -0.003
55.85 -0.00275
55.9 -0.00231
55.95 -0.00151
56 -0.00032
56.05 0.00094
56.1 0.0015
56.15 0.00125
56.2 0.00148
56.25 0.00135
56.3 0.0007
56.35 0.00084
56.4 0.00134
56.45 0.00148
56.5 0.00149
56.55 0.00079
56.6 0.00045
56.65 0.00013
56.7 -0.00039
56.75 -0.00096
56.8 -0.00084
56.85 -0.00019
56.9 0.00057
56.95 0.00117
57 0.00095
57.05 0.00058
57.1 0.00053
57.15 -0.00007
57.2 -0.00112
57.25 -0.00172
57.3 -0.00154
57.35 -0.00158
57.4 -0.00187
57.45 -0.00157
57.5 -0.00152
57.55 -0.00077
57.6 0.00002
57.65 0.00051
57.7 0.00084
57.75 0.00147
57.8 0.00189
57.85 0.0026
57.9 0.00244
57.95 0.0028
58 0.00347
58.05 0.00316
58.1 0.00243
58.15 0.00184
58.2 0.00119
58.25 0.00138
58.3 0.00154
58.35 0.00157
58.4 0.00182
58.45 0.00173
58.5 0.0011
58.55 0.00103
58.6 0.00135
58.65 0.00166
58.7 0.00181
58.75 0.00239
58.8 0.00227
58.85 0.00228
58.9 0.00157
58.95 0.00061
59 -0.00005
59.05 -0.00046
59.1 -0.00094
59.15 -0.00049
59.2 -0.00008
59.25 0.00025
59.3 0.00005
59.35 -0.00047
59.4 -0.0004
59.45 -0.00002
59.5 0.00026
59.55 0.0002
59.6 -0.0003
59.65 -0.00056
59.7 -0.00071
59.75 -0.00129
59.8 -0.00121
59.85 -0.00157
59.9 -0.00099
59.95 -0.0002
60 0.00065
60.05 0.0014
60.1 0.00124
60.15 0.00164
60.2 0.00098
60.25 0.00032
60.3 0.00046
60.35 0.0009
60.4 0.00127
60.45 0.00197
60.5 0.00207
60.55 0.00232
60.6 0.00288
60.65 0.00251
60.7 0.00157
60.75 0.00036
60.8 -0.00109
60.85 -0.00175
60.9 -0.00173
60.95 -0.0023
61 -0.0029
61.05 -0.00248
61.1 -0.00261
61.15 -0.00229
61.2 -0.00265
61.25 -0.00238
61.3 -0.00219
61.35 -0.002
61.4 -0.00153
61.45 -0.00179
61.5 -0.0022
61.55 -0.00264
61.6 -0.00312
61.65 -0.00371
61.7 -0.00421
61.75 -0.00422
61.8 -0.00362
61.85 -0.00268
61.9 -0.00172
61.95 -0.00164
62 -0.00198
62.05 -0.00235
62.1 -0.00184
62.15 -0.00174
62.2 -0.00208
62.25 -0.00248
62.3 -0.00214
62.35 -0.00133
62.4 -0.00097
62.45 -0.00013
62.5 0.001
62.55 0.00226
62.6 0.00267
62.65 0.00257
62.7 0.00296
62.75 0.00271
62.8 0.0025
62.85 0.00176
62.9 0.00067
62.95 -0.00056
63 -0.0008
63.05 -0.00036
63.1 0.00064
63.15 0.00176
63.2 0.00159
63.25 0.00156
63.3 0.00113
63.35 0.0013
63.4 0.00103
63.45 0.00128
63.5 0.00167
63.55 0.00227
63.6 0.00309
63.65 0.0037
63.7 0.00313
63.75 0.00231
63.8 0.00201
63.85 0.00151
63.9 0.00131
63.95 0.00172
64 0.00118
64.05 0.00105
64.1 0.00048
64.15 0.00027
64.2 0.00064
64.25 0.00035
64.3 -0.00026
64.35 -0.00045
64.4 -0.00124
64.45 -0.00213
64.5 -0.0027
64.55 -0.00255
64.6 -0.00241
64.65 -0.00224
64.7 -0.00212
64.75 -0.00176
64.8 -0.00091
64.85 -0.00088
64.9 -0.00135
64.95 -0.00209
65 -0.00234
65.05 -0.00242
65.1 -0.00205
65.15 -0.00196
65.2 -0.00175
65.25 -0.00073
65.3 -0.00053
65.35 -0.00096
65.4 -0.00161
65.45 -0.0012
65.5 -0.00128
65.55 -0.00066
65.6 -0.00051
65.65 0.00002
65.7 -0.00021
65.75 -0.00034
65.8 -0.00091
65.85 -0.00061
65.9 -0.00084
65.95 -0.00093
66 -0.0014
66.05 -0.00097
66.1 -0.00127
66.15 -0.00134
66.2 -0.0007
66.25 -0.00073
66.3 -0.00009
66.35 0.00108
66.4 0.00146
66.45 0.00137
66.5 0.00174
66.55 0.00221
66.6 0.00268
66.65 0.00225
66.7 0.00234
66.75 0.00147
66.8 0.00062
66.85 0.00022
66.9 -0.00048
66.95 -0.00075
67 -0.00076
67.05 -0.00022
67.1 0.0007
67.15 0.00072
67.2 0.00038
67.25 0.00029
67.3 0.00058
67.35 0.00057
67.4 0.00044
67.45 -0.00022
67.5 -0.00099
67.55 -0.00155
67.6 -0.00118
67.65 -0.00059
67.7 -0.00012
67.75 0.00076
67.8 0.00086
67.85 0.00127
67.9 0.00112
67.95 0.00108
68 0.00167
68.05 0.00139
68.1 0.00037
68.15 -0.00006
68.2 -0.00071
68.25 -0.00151
68.3 -0.00188
68.35 -0.00144
68.4 -0.00164
68.45 -0.00141
68.5 -0.00173
68.55 -0.00132
68.6 -0.00152
68.65 -0.00173
68.7 -0.00115
68.75 -0.00128
68.8 -0.00097
68.85 -0.00134
68.9 -0.00209
68.95 -0.00175
69 -0.00105
69.05 -0.00013
69.1 0.00064
69.15 0.00036
69.2 0.00084
69.25 0.00159
69.3 0.00153
69.35 0.00075
69.4 0.00038
69.45 0.0004
69.5 0.00105
69.55 0.00139
69.6 0.00185
69.65 0.00239
69.7 0.00303
69.75 0.0035
69.8 0.00363
69.85 0.00378
69.9 0.00423
69.95 0.00472
70 0.00447
70.05 0.00333
70.1 0.00238
70.15 0.00092
70.2 -0.0008
70.25 -0.00244
70.3 -0.00349
70.35 -0.00338
70.4 -0.00332
70.45 -0.00238
70.5 -0.00176
70.55 -0.0019
70.6 -0.00196
70.65 -0.00145
70.7 -0.00166
70.75 -0.00141
70.8 -0.00118
70.85 -0.00145
70.9 -0.00081
70.95 -0.00035
71 0.00055
71.05 0.00087
71.1 0.00106
71.15 0.0009
71.2 0.00065
71.25 0.00038
71.3 0.00024
71.35 -0.00038
71.4 -0.00004
71.45 0.00068
71.5 0.00128
71.55 0.00183
71.6 0.00226
71.65 0.00176
71.7 0.00103
71.75 -0.00026
71.8 -0.00048
71.85 0.00009
71.9 0.00003
71.95 -0.0006
72 -0.0009
72.05 -0.00111
72.1 -0.00099
72.15 -0.00079
72.2 -0.00026
72.25 0.00074
72.3 0.0016
72.35 0.00169
72.4 0.00117
72.45 0.00055
72.5 -0.00052
72.55 -0.00156
72.6 -0.00181
72.65 -0.00228
72.7 -0.00228
72.75 -0.00196
72.8 -0.00106
72.85 -0.00049
72.9 -0.00046
72.95 -0.00034
73 -0.00076
73.05 -0.00124
73.1 -0.00186
73.15 -0.00165
73.2 -0.00123
73.25 -0.00013
73.3 0.00104
73.35 0.00193
73.4 0.00191
73.45 0.00174
73.5 0.00211
73.55 0.00271
73.6 0.00321
73.65 0.00339
73.7 0.00318
73.75 0.00238
73.8 0.00237
73.85 0.00186
73.9 0.0015
73.95 0.00107
74 0.00118
74.05 0.00043
74.1 -0.00016
74.15 0.00004
74.2 0.00036
74.25 0.00031
74.3 0.00065
74.35 0.00115
74.4 0.00158
74.45 0.00096
74.5 0.00081
74.55 0.00103
74.6 0.00087
74.65 0.00018
74.7 0.00027
74.75 0.00023
74.8 -0.00035
74.85 -0.00037
74.9 -0.00006
74.95 0.00074
75 0.00086
75.05 0.00095
75.1 0.00117
75.15 0.00109
75.2 0.00022
75.25 -0.00105
75.3 -0.00233
75.35 -0.00226
75.4 -0.00252
75.45 -0.00289
75.5 -0.00253
75.55 -0.00156
75.6 -0.00095
75.65 -0.00045
75.7 0.00055
75.75 0.00127
75.8 0.00207
75.85 0.00183
75.9 0.00085
75.95 -0.00022
76 -0.00028
76.05 0.00031
76.1 0.00102
76.15 0.00141
76.2 0.00191
76.25 0.00153
76.3 0.00046
76.35 0.00002
76.4 0.00018
76.45 0.00062
76.5 0.0004
76.55 -0.00024
76.6 -0.0008
76.65 -0.0015
76.7 -0.00254
76.75 -0.00251
76.8 -0.00252
76.85 -0.00296
76.9 -0.00362
76.95 -0.0039
77 -0.00427
77.05 -0.00415
77.1 -0.00388
77.15 -0.0028
77.2 -0.00203
77.25 -0.00139
77.3 -0.00154
77.35 -0.00186
77.4 -0.00198
77.45 -0.00217
77.5 -0.00225
77.55 -0.00229
77.6 -0.00179
77.65 -0.002
77.7 -0.00189
77.75 -0.00126
77.8 -0.00029
77.85 0.00029
77.9 0.00015
77.95 0.00001
78 0.00057
78.05 0.00133
78.1 0.00115
78.15 0.00067
78.2 -0.00039
78.25 -0.00061
78.3 -0.00096
78.35 -0.00137
78.4 -0.00129
78.45 -0.00058
78.5 -0.00059
78.55 -0.00095
78.6 -0.0011
78.65 -0.00073
78.7 -0.00045
78.75 -0.0003
78.8 -0.00018
78.85 -0.0004
78.9 -0.00012
78.95 -0.00053
79 -0.00012
79.05 0.00086
79.1 0.00107
79.15 0.00074
79.2 0.00121
79.25 0.00094
79.3 0.00046
79.35 0.00019
79.4 -0.00066
79.45 -0.00073
79.5 -0.00028
79.55 -0.00047
79.6 -0.00065
79.65 -0.00135
79.7 -0.00188
79.75 -0.00193
79.8 -0.00184
79.85 -0.00232
79.9 -0.00209
79.95 -0.00236
80 -0.00254
80.05 -0.00178
80.1 -0.00066
80.15 0.00038
80.2 0.00035
80.25 -0.0003
80.3 -0.00094
80.35 -0.00179
80.4 -0.00276
80.45 -0.00254
80.5 -0.00189
80.55 -0.00141
80.6 -0.00028
80.65 0.00045
80.7 0.0003
80.75 0.00019
80.8 0.00036
80.85 0.00024
80.9 0.00024
80.95 -0.00017
81 -0.00065
81.05 -0.00059
81.1 -0.00116
81.15 -0.0015
81.2 -0.00107
81.25 -0.00024
81.3 0.00093
81.35 0.00134
81.4 0.00193
81.45 0.00162
81.5 0.00117
81.55 0.00088
81.6 0.00025
81.65 0.00061
81.7 0.00138
81.75 0.00143
81.8 0.00152
81.85 0.00088
81.9 0.0007
81.95 0.00069
82 0.00115
82.05 0.00203
82.1 0.00253
82.15 0.00292
82.2 0.00244
82.25 0.00214
82.3 0.00126
82.35 0.00101
82.4 0.00007
82.45 0.00019
82.5 0.00071
82.55 0.00125
82.6 0.00205
82.65 0.00178
82.7 0.00094
82.75 -0.00027
82.8 -0.00128
82.85 -0.0012
82.9 -0.0009
82.95 -0.00077
83 -0.00019
83.05 -0.00019
83.1 0.00054
83.15 0.00084
83.2 0.00069
83.25 0.00127
83.3 0.00118
83.35 0.00133
83.4 0.00177
83.45 0.00118
83.5 -0.00001
83.55 -0.0012
83.6 -0.00199
83.65 -0.00286
83.7 -0.00271
83.75 -0.00201
83.8 -0.00103
83.85 -0.00068
83.9 -0.00031
83.95 0.00048
84 0.00089
84.05 0.00145
84.1 0.00178
84.15 0.00118
84.2 0.00143
84.25 0.00086
84.3 0.00028
84.35 -0.00012
84.4 -0.00057
84.45 -0.00012
84.5 0.00037
84.55 0.00041
84.6 0.00042
84.65 0.00075
84.7 0.0004
84.75 0.00011
84.8 -0.00051
84.85 -0.00122
84.9 -0.00225
84.95 -0.00314
85 -0.00379
85.05 -0.00451
85.1 -0.00394
85.15 -0.00272
85.2 -0.00149
85.25 -0.00028
85.3 0.00043
85.35 0.00077
85.4 0.00077
85.45 0.00128
85.5 0.00165
85.55 0.002
85.6 0.00159
85.65 0.00095
85.7 0.00073
85.75 0.00042
85.8 0.00056
85.85 0.00131
85.9 0.00115
85.95 0.00152
86 0.00122
86.05 0.00066
86.1 0.00087
86.15 0.00047
86.2 0.00045
86.25 0.00046
86.3 0.0007
86.35 0.00036
86.4 0.00023
86.45 -0.00051
86.5 -0.00039
86.55 0.00014
86.6 -0.00026
86.65 -0.00097
86.7 -0.00077
86.75 -0.0012
86.8 -0.00101
86.85 -0.00117
86.9 -0.00164
86.95 -0.00222
87 -0.00229
87.05 -0.00188
87.1 -0.00186
87.15 -0.00127
87.2 -0.00089
87.25 -0.00047
87.3 -0.00029
87.35 0.00059
87.4 0.0004
87.45 0.00032
87.5 -0.00018
87.55 -0.00089
87.6 -0.00054
87.65 -0.00004
87.7 0.00088
87.75 0.00082
87.8 0.00093
87.85 0.00122
87.9 0.00125
87.95 0.00183
88 0.00257
88.05 0.00276
88.1 0.00259
88.15 0.00174
88.2 0.00051
88.25 0.00026
88.3 -0.00032
88.35 -0.00063
88.4 -0.00007
88.45 0.00089
88.5 0.0021
88.55 0.00244
88.6 0.00173
88.65 0.00151
88.7 0.00189
88.75 0.00139
88.8 0.00145
88.85 0.00189
88.9 0.00225
88.95 0.00209
89 0.0023
89.05 0.00237
89.1 0.00223
89.15 0.00141
89.2 0.00107
89.25 0.00086
89.3 0.00067
89.35 -0.00027
89.4 -0.00105
89.45 -0.0019
89.5 -0.00299
89.55 -0.00396
89.6 -0.00459
89.65 -0.00518
89.7 -0.00514
89.75 -0.00466
89.8 -0.00369
89.85 -0.00273
89.9 -0.00194
89.95 -0.00138
90 -0.00106
90.05 -0.00064
90.1 -0.00044
90.15 -0.00088
90.2 -0.00123
90.25 -0.00109
90.3 -0.00045
90.35 0.00055
90.4 0.0006
90.45 0.00114
90.5 0.00131
90.55 0.00104
90.6 0.00133
90.65 0.00195
90.7 0.00149
90.75 0.00078
90.8 -0.00044
90.85 -0.00085
90.9 -0.00077
90.95 -0.00077
91 -0.00141
91.05 -0.00199
91.1 -0.00243
91.15 -0.00315
91.2 -0.00377
91.25 -0.00332
91.3 -0.00247
91.35 -0.00098
91.4 0.00068
91.45 0.00187
91.5 0.00276
91.55 0.00328
91.6 0.00403
91.65 0.00426
91.7 0.00468
91.75 0.00419
91.8 0.00328
91.85 0.0017
91.9 0.00086
91.95 0.00049
92 0.00075
92.05 0.00051
92.1 0.00027
92.15 -0.0002
92.2 -0.00095
92.25 -0.0008
92.3 -0.00044
92.35 0.00011
92.4 0.00052
92.45 0.00106
92.5 0.00131
92.55 0.00151
92.6 0.00112
92.65 0.00083
92.7 0.00041
92.75 -0.00017
92.8 -0.00056
92.85 -0.0003
92.9 -0.00078
92.95 -0.0005
93 -0.00027
93.05 0.00002
93.1 -0.00014
93.15 -0.00015
93.2 0.00028
93.25 0.00026
93.3 0.00039
93.35 -0.00032
93.4 -0.00061
93.45 -0.00067
93.5 -0.00141
93.55 -0.00249
93.6 -0.00267
93.65 -0.00327
93.7 -0.0037
93.75 -0.00307
93.8 -0.00256
93.85 -0.00221
93.9 -0.00137
93.95 -0.00058
94 -0.00065
94.05 0.00001
94.1 0.00011
94.15 -0.00043
94.2 -0.00106
94.25 -0.00112
94.3 -0.00066
94.35 -0.00073
94.4 -0.00084
94.45 -0.00076
94.5 -0.00039
94.55 -0.00019
94.6 -0.00001
94.65 0.00032
94.7 -0.00014
94.75 0.00001
94.8 0.00066
94.85 0.00126
94.9 0.00222
94.95 0.0031
95 0.00357
95.05 0.00343
95.1 0.00264
95.15 0.00122
95.2 0.00049
95.25 0.00026
95.3 -0.00019
95.35 0.00015
95.4 0.00082
95.45 0.00164
95.5 0.00259
95.55 0.00282
95.6 0.00293
95.65 0.00328
95.7 0.0031
95.75 0.00222
95.8 0.00202
95.85 0.00134
95.9 0.00113
95.95 0.00146
96 0.00144
96.05 0.00172
96.1 0.00131
96.15 0.00162
96.2 0.00231
96.25 0.00313
96.3 0.00309
96.35 0.0026
96.4 0.00225
96.45 0.00238
96.5 0.00169
96.55 0.00146
96.6 0.00057
96.65 -0.00017
96.7 -0.00116
96.75 -0.00208
96.8 -0.00192
96.85 -0.00238
96.9 -0.00264
96.95 -0.00329
97 -0.00408
97.05 -0.00477
97.1 -0.0051
97.15 -0.00567
97.2 -0.00633
97.25 -0.00643
97.3 -0.00556
97.35 -0.00393
97.4 -0.00209
97.45 -0.00002
97.5 0.0009
97.55 0.00207
97.6 0.00307
97.65 0.00405
97.7 0.0042
97.75 0.00451
97.8 0.0039
97.85 0.00389
97.9 0.00358
97.95 0.0025
98 0.00136
98.05 0.00066
98.1 -0.00024
98.15 -0.00122
98.2 -0.00217
98.25 -0.00304
98.3 -0.00373
98.35 -0.0045
98.4 -0.00469
98.45 -0.00507
98.5 -0.00471
98.55 -0.00363
98.6 -0.00201
98.65 -0.00011
98.7 0.0011
98.75 0.00126
98.8 0.00096
98.85 0.00094
98.9 0.00023
98.95 -0.00057
99 -0.00122
99.05 -0.00095
99.1 -0.00067
99.15 -0.00087
99.2 -0.00067
99.25 -0.00091
99.3 -0.00164
99.35 -0.00241
99.4 -0.00284
99.45 -0.00297
99.5 -0.00223
99.55 -0.00187
99.6 -0.00205
99.65 -0.00219
99.7 -0.00255
99.75 -0.00271
99.8 -0.00238
99.85 -0.00168
99.9 -0.00036
99.95 0.00102
