0 0
0.05 0.00039
0.1 0.00096
0.15 0.00126
0.2 0.00148
0.25 0.00165
0.3 0.00173
0.35 0.00192
0.4 0.00215
0.45 0.00247
0.5 0.0027
0.55 0.00268
0.6 0.0027
0.65 0.00269
0.7 0.0025
0.75 0.00251
0.8 0.00263
0.85 0.0028
0.9 0.00291
0.95 0.0028
1 0.00265
1.05 0.00256
1.1 0.00255
1.15 0.00237
1.2 0.00224
1.25 0.00227
1.3 0.00212
1.35 0.00209
1.4 0.00186
1.45 0.00166
1.5 0.00158
1.55 0.00137
1.6 0.00139
1.65 0.00143
1.7 0.00165
1.75 0.00161
1.8 0.00175
1.85 0.00177
1.9 0.00178
1.95 0.00165
2 0.00156
2.05 0.00158
2.1 0.00141
2.15 0.00115
2.2 0.00083
2.25 0.00049
2.3 0.00024
2.35 0.00034
2.4 0.00027
2.45 0.00028
2.5 0.00021
2.55 0.00039
2.6 0.00065
2.65 0.00072
2.7 0.00065
2.75 0.00078
2.8 0.00089
2.85 0.00092
2.9 0.00111
2.95 0.00112
3 0.00131
3.05 0.00121
3.1 0.00122
3.15 0.00109
3.2 0.00117
3.25 0.00124
3.3 0.00109
3.35 0.00083
3.4 0.00049
3.45 0.00015
3.5 -0.00009
3.55 -0.00012
3.6 -0.00011
3.65 0.00003
3.7 0.00011
3.75 0.00015
3.8 0.00012
3.85 0.00002
3.9 0.00011
3.95 0.00018
4 0.00033
4.05 0.00063
4.1 0.00065
4.15 0.00071
4.2 0.0006
4.25 0.0007
4.3 0.00072
4.35 0.00065
4.4 0.00056
4.45 0.00054
4.5 0.00042
4.55 0.00052
4.6 0.00046
4.65 0.00056
4.7 0.00083
4.75 0.00085
4.8 0.00091
4.85 0.0009
4.9 0.00074
4.95 0.00052
5 0.00024
5.05 0.00006
5.1 -0.00002
5.15 0.00009
5.2 0.00017
5.25 0.00033
5.3 0.00028
5.35 0.00008
5.4 -0.00018
5.45 -0.00043
5.5 -0.00065
5.55 -0.00069
5.6 -0.00045
5.65 -0.00036
5.7 -0.00021
5.75 0.00007
5.8 0.00042
5.85 0.00069
5.9 0.00084
5.95 0.00077
6 0.00091
6.05 0.00102
6.1 0.00122
6.15 0.00117
6.2 0.00101
6.25 0.00095
6.3 0.00068
6.35 0.00044
6.4 0.00034
6.45 0.00047
6.5 0.00036
6.55 0.00041
6.6 0.00052
6.65 0.0004
6.7 0.00027
6.75 0.00007
6.8 -0.00016
6.85 -0.00026
6.9 -0.00032
6.95 -0.00045
7 -0.00035
7.05 -0.00034
7.1 -0.00009
7.15 0.00018
7.2 0.00047
7.25 0.00047
7.3 0.00044
7.35 0.0006
7.4 0.00084
7.45 0.00104
7.5 0.00104
7.55 0.00079
7.6 0.00042
7.65 0.00021
7.7 0.00011
7.75 0.00002
7.8 0
7.85 -0.00006
7.9 -0.00003
7.95 -0.0001
8 -0.00001
8.05 0.00014
8.1 0.00042
8.15 0.0006
8.2 0.00088
8.25 0.00105
8.3 0.0012
8.35 0.0011
8.4 0.00103
8.45 0.00106
8.5 0.00103
8.55 0.00085
8.6 0.00054
8.65 0.00051
8.7 0.00061
8.75 0.00063
8.8 0.00068
8.85 0.00054
8.9 0.00046
8.95 0.00031
9 0.00031
9.05 0.0002
9.1 0.0001
9.15 0.00022
9.2 0.00028
9.25 0.00013
9.3 0.00002
9.35 -0.00023
9.4 -0.00038
9.45 -0.00033
9.5 -0.00006
9.55 0.00027
9.6 0.00062
9.65 0.00074
9.7 0.00064
9.75 0.0007
9.8 0.00081
9.85 0.00079
9.9 0.0008
9.95 0.00075
10 0.00058
10.05 0.00034
10.1 -0.00002
10.15 -0.00021
10.2 -0.00038
10.25 -0.00049
10.3 -0.00069
10.35 -0.00088
10.4 -0.00081
10.45 -0.00087
10.5 -0.001
10.55 -0.00111
10.6 -0.0011
10.65 -0.00108
10.7 -0.00096
10.75 -0.00094
10.8 -0.00084
10.85 -0.00048
10.9 -0.00037
10.95 -0.00021
11 -0.00005
11.05 0.0001
11.1 0.00024
11.15 0.0002
11.2 0.00016
11.25 0.00013
11.3 0.00014
11.35 0.00027
11.4 0.00042
11.45 0.00039
11.5 0.0003
11.55 0.00003
11.6 -0.00031
11.65 -0.00063
11.7 -0.00092
11.75 -0.00089
11.8 -0.00076
11.85 -0.00042
11.9 -0.0002
11.95 -0.00016
12 0.00005
12.05 0.00012
12.1 0.0003
12.15 0.00022
12.2 0.00013
12.25 -0.00006
12.3 -0.00014
12.35 -0.00005
12.4 0.00006
12.45 0
12.5 -0.00014
12.55 -0.00039
12.6 -0.0004
12.65 -0.00044
12.7 -0.00031
12.75 -0.00032
12.8 -0.00028
12.85 -0.00021
12.9 0.00006
12.95 0.00021
13 0.0005
13.05 0.00069
13.1 0.00065
13.15 0.00071
13.2 0.00062
13.25 0.00073
13.3 0.0009
13.35 0.00086
13.4 0.00074
13.45 0.00042
13.5 0.0003
13.55 0.00037
13.6 0.00042
13.65 0.00033
13.7 0.0003
13.75 0.00008
13.8 -0.00006
13.85 -0.00022
13.9 -0.00038
13.95 -0.00049
14 -0.00064
14.05 -0.00053
14.1 -0.00025
14.15 -0.00001
14.2 0.00033
14.25 0.00058
14.3 0.00087
14.35 0.00081
14.4 0.00078
14.45 0.00076
14.5 0.00073
14.55 0.00059
14.6 0.00057
14.65 0.00056
14.7 0.00051
14.75 0.0005
14.8 0.00054
14.85 0.0007
14.9 0.00081
14.95 0.00088
15 0.00078
15.05 0.00071
15.1 0.0008
15.15 0.00063
15.2 0.00041
15.25 0.00038
15.3 0.00025
15.35 0.00025
15.4 0.0001
15.45 -0.00006
15.5 -0.00015
15.55 -0.00036
15.6 -0.00033
15.65 -0.00035
15.7 -0.00042
15.75 -0.00029
15.8 -0.00026
15.85 -0.00016
15.9 0.00012
15.95 0.00032
16 0.00056
16.05 0.00076
16.1 0.0007
16.15 0.00041
16.2 0.00024
16.25 0.00004
16.3 0.00008
16.35 0
16.4 0.0001
16.45 0.00012
16.5 0.00024
16.55 0.00027
16.6 0.00006
16.65 -0.00011
16.7 -0.00014
16.75 -0.00032
16.8 -0.0004
16.85 -0.00035
16.9 -0.00011
16.95 0.00008
17 -0.00001
17.05 -0.00016
17.1 -0.00039
17.15 -0.00048
17.2 -0.00048
17.25 -0.00056
17.3 -0.00039
17.35 -0.00037
17.4 -0.0003
17.45 -0.00025
17.5 -0.00001
17.55 0.00018
17.6 0.00037
17.65 0.00055
17.7 0.0006
17.75 0.00058
17.8 0.00053
17.85 0.00028
17.9 0.00008
17.95 -0.00003
18 -0.0002
18.05 -0.00036
18.1 -0.00054
18.15 -0.00043
18.2 -0.00027
18.25 -0.00011
18.3 0.00006
18.35 0.00012
18.4 0.00017
18.45 0.00009
18.5 0.00014
18.55 0.00012
18.6 0.00004
18.65 0.00009
18.7 -0.00008
18.75 -0.00016
18.8 -0.00017
18.85 -0.00007
18.9 -0.00015
18.95 -0.00024
19 -0.00038
19.05 -0.00029
19.1 -0.00013
19.15 -0.00004
19.2 0.00016
19.25 0.00033
19.3 0.0006
19.35 0.0006
19.4 0.00054
19.45 0.00049
19.5 0.00052
19.55 0.00037
19.6 0.00021
19.65 -0.00001
19.7 -0.00013
19.75 -0.00013
19.8 -0
19.85 0.00008
19.9 0.00002
19.95 -0.00002
20 0.00002
20.05 0.00011
20.1 0.00026
20.15 0.00037
20.2 0.00038
20.25 0.00018
20.3 -0.00002
20.35 -0.00017
20.4 -0.00041
20.45 -0.00034
20.5 -0.00016
20.55 -0.00018
20.6 -0.00004
20.65 0.00002
20.7 -0.00006
20.75 -0.00014
20.8 -0.00011
20.85 0.00002
20.9 -0.00009
20.95 -0.00033
21 -0.00031
21.05 -0.0002
21.1 -0.00022
21.15 -0.00032
21.2 -0.00024
21.25 -0.00003
21.3 0.00011
21.35 0.00023
21.4 0.00009
21.45 -0.00005
21.5 -0.0003
21.55 -0.00054
21.6 -0.00055
21.65 -0.00059
21.7 -0.00072
21.75 -0.00071
21.8 -0.00067
21.85 -0.00077
21.9 -0.00084
21.95 -0.00079
22 -0.0007
22.05 -0.00037
22.1 -0.00029
22.15 -0.00013
22.2 0.00003
22.25 0.0003
22.3 0.00059
22.35 0.00079
22.4 0.00075
22.45 0.00056
22.5 0.00027
22.55 -0.00011
22.6 -0.00034
22.65 -0.00044
22.7 -0.0006
22.75 -0.00062
22.8 -0.00076
22.85 -0.00068
22.9 -0.00054
22.95 -0.00058
23 -0.00061
23.05 -0.00074
23.1 -0.00088
23.15 -0.00069
23.2 -0.00071
23.25 -0.0008
23.3 -0.00086
23.35 -0.00099
23.4 -0.0008
23.45 -0.00072
23.5 -0.00051
23.55 -0.00024
23.6 -0.00001
23.65 -0.00003
23.7 -0.00017
23.75 -0.00017
23.8 0.00002
23.85 0.00021
23.9 0.00052
23.95 0.00084
24 0.00098
24.05 0.00102
24.1 0.00093
24.15 0.00091
24.2 0.00088
24.25 0.00085
24.3 0.00063
24.35 0.00059
24.4 0.00045
24.45 0.00035
24.5 0.0003
24.55 0.00026
24.6 0.00015
24.65 0
24.7 -0.00028
24.75 -0.00054
24.8 -0.00047
24.85 -0.0003
24.9 0.00004
24.95 0.00046
25 0.00084
25.05 0.00096
25.1 0.00076
25.15 0.0005
25.2 0.00026
25.25 0
25.3 0.00003
25.35 0.00023
25.4 0.0004
25.45 0.00042
25.5 0.00056
25.55 0.00076
25.6 0.00088
25.65 0.00092
25.7 0.00074
25.75 0.00047
25.8 0.00014
25.85 0.00012
25.9 0.0002
25.95 0.00016
26 0.0001
26.05 -0.00015
26.1 -0.00046
26.15 -0.00043
26.2 -0.00053
26.25 -0.00068
26.3 -0.00084
26.35 -0.00083
26.4 -0.00085
26.45 -0.00095
26.5 -0.00081
26.55 -0.0007
26.6 -0.00067
26.65 -0.00067
26.7 -0.00045
26.75 -0.00024
26.8 -0.00028
26.85 -0.00016
26.9 -0.00003
26.95 0.00003
27 0.00005
27.05 -0.00001
27.1 0.00014
27.15 0.00036
27.2 0.00031
27.25 0.00042
27.3 0.00038
27.35 0.00029
27.4 0.0003
27.45 0.00025
27.5 0.00021
27.55 0.00014
27.6 0.00011
27.65 0.00014
27.7 0.00016
27.75 0.00007
27.8 0.00021
27.85 0.00035
27.9 0.00024
27.95 0.0003
28 0.00024
28.05 0.00015
28.1 0.0001
28.15 0.00022
28.2 0.0003
28.25 0.00044
28.3 0.00049
28.35 0.00059
28.4 0.00066
28.45 0.00062
28.5 0.00062
28.55 0.00045
28.6 0.00013
28.65 -0.00006
28.7 -0.00011
28.75 -0.00022
28.8 -0.00012
28.85 -0.00024
28.9 -0.00032
28.95 -0.00053
29 -0.00054
29.05 -0.00067
29.1 -0.00089
29.15 -0.00117
29.2 -0.00121
29.25 -0.00117
29.3 -0.00094
29.35 -0.00052
29.4 -0.00008
29.45 0.00028
29.5 0.00058
29.55 0.00071
29.6 0.00073
29.65 0.0005
29.7 0.00031
29.75 -0.00002
29.8 -0.00036
29.85 -0.00051
29.9 -0.00056
29.95 -0.00069
30 -0.0009
30.05 -0.00096
30.1 -0.00105
30.15 -0.0009
30.2 -0.00081
30.25 -0.00074
30.3 -0.00049
30.35 -0.00014
30.4 0.00011
30.45 0.0002
30.5 0.00011
30.55 0.00017
30.6 0.00008
30.65 0.00003
30.7 -0.00004
30.75 -0.00007
30.8 -0.0001
30.85 0.00004
30.9 -0.00007
30.95 -0.00024
31 -0.00044
31.05 -0.0007
31.1 -0.00083
31.15 -0.00072
31.2 -0.00068
31.25 -0.0004
31.3 -0.00033
31.35 -0.00032
31.4 -0.00009
31.45 0.00004
31.5 0.00028
31.55 0.00044
31.6 0.00038
31.65 0.00021
31.7 -0.00003
31.75 -0.00013
31.8 -0.00037
31.85 -0.00062
31.9 -0.00057
31.95 -0.00041
32 -0.0001
32.05 0.00022
32.1 0.00033
32.15 0.00054
32.2 0.00079
32.25 0.0009
32.3 0.00105
32.35 0.00115
32.4 0.00106
32.45 0.00075
32.5 0.00031
32.55 0.00014
32.6 0
32.65 -0.00013
32.7 -0.00017
32.75 -0.00016
32.8 0.00005
32.85 0.0001
32.9 0.00031
32.95 0.00051
33 0.00061
33.05 0.00046
33.1 0.00033
33.15 0.0004
33.2 0.00059
33.25 0.00076
33.3 0.00066
33.35 0.00041
33.4 0.00014
33.45 -0.00006
33.5 -0.00029
33.55 -0.0003
33.6 -0.00038
33.65 -0.0005
33.7 -0.0006
33.75 -0.00065
33.8 -0.00058
33.85 -0.00042
33.9 -0.00009
33.95 0.00004
34 -0.00004
34.05 -0.00002
34.1 -0.00012
34.15 -0.00035
34.2 -0.00065
34.25 -0.00095
34.3 -0.00117
34.35 -0.00124
34.4 -0.00118
34.45 -0.00121
34.5 -0.00103
34.55 -0.00073
34.6 -0.00061
34.65 -0.00064
34.7 -0.00063
34.75 -0.0005
34.8 -0.00031
34.85 -0.00033
34.9 -0.00022
34.95 0.00003
35 0.00013
35.05 0.00016
35.1 0.00025
35.15 0.00051
35.2 0.00048
35.25 0.00025
35.3 0.00007
35.35 -0
35.4 -0.00002
35.45 0.00014
35.5 0.00021
35.55 0.00006
35.6 -0.00019
35.65 -0.00048
35.7 -0.00071
35.75 -0.00093
35.8 -0.001
35.85 -0.00083
35.9 -0.00069
35.95 -0.0004
36 -0.00021
36.05 -0.00008
36.1 0.00017
36.15 0.00015
36.2 0.00011
36.25 -0.00001
36.3 0.00009
36.35 -0.00002
36.4 0.00008
36.45 0.00025
36.5 0.0004
36.55 0.00046
36.6 0.00052
36.65 0.0007
36.7 0.00095
36.75 0.00118
36.8 0.00114
36.85 0.001
36.9 0.00069
36.95 0.00046
37 0.00046
37.05 0.00033
37.1 0.00029
37.15 0.00015
37.2 -0.00013
37.25 -0.00009
37.3 -0.00021
37.35 -0.00038
37.4 -0.00038
37.45 -0.00039
37.5 -0.00031
37.55 -0.00038
37.6 -0.0005
37.65 -0.00039
37.7 -0.00011
37.75 -0.00005
37.8 0.00018
37.85 0.00038
37.9 0.00039
37.95 0.0004
38 0.00045
38.05 0.00032
38.1 0.0003
38.15 0.00028
38.2 0.00033
38.25 0.00044
38.3 0.00053
38.35 0.00061
38.4 0.00061
38.45 0.00066
38.5 0.00074
38.55 0.0006
38.6 0.00054
38.65 0.00032
38.7 0.00018
38.75 -0.00009
38.8 -0.00026
38.85 -0.00046
38.9 -0.00038
38.95 -0.00025
39 -0.00001
39.05 0.00006
39.1 0.00009
39.15 0.00027
39.2 0.00019
39.25 0.00023
39.3 0.0003
39.35 0.00038
39.4 0.0003
39.45 0.00009
39.5 -0.00009
39.55 -0.00005
39.6 0.00016
39.65 0.00041
39.7 0.00038
39.75 0.00033
39.8 0.00038
39.85 0.00039
39.9 0.00019
39.95 0.00002
40 -0.00028
40.05 -0.00047
40.1 -0.00072
40.15 -0.00094
40.2 -0.00086
40.25 -0.00066
40.3 -0.00054
40.35 -0.00043
40.4 -0.00044
40.45 -0.00044
40.5 -0.00043
40.55 -0.00044
40.6 -0.00049
40.65 -0.00052
40.7 -0.00063
40.75 -0.00051
40.8 -0.00043
40.85 -0.00039
40.9 -0.00045
40.95 -0.00064
41 -0.00081
41.05 -0.00088
41.1 -0.00098
41.15 -0.00108
41.2 -0.00086
41.25 -0.00078
41.3 -0.00064
41.35 -0.00041
41.4 -0.00008
41.45 0.00035
41.5 0.00042
41.55 0.00035
41.6 0.00037
41.65 0.00046
41.7 0.00065
41.75 0.00082
41.8 0.00087
41.85 0.00072
41.9 0.00063
41.95 0.00041
42 0.00041
42.05 0.00057
42.1 0.00065
42.15 0.00074
42.2 0.00075
42.25 0.00074
42.3 0.00068
42.35 0.00044
42.4 0.00008
42.45 -0.00014
42.5 -0.00037
42.55 -0.00041
42.6 -0.0006
42.65 -0.00092
42.7 -0.00128
42.75 -0.00167
42.8 -0.00194
42.85 -0.00194
42.9 -0.00207
42.95 -0.00224
43 -0.00229
43.05 -0.00245
43.1 -0.00287
43.15 -0.00343
43.2 -0.00385
43.25 -0.00459
43.3 -0.0056
43.35 -0.00649
43.4 -0.00733
43.45 -0.00856
43.5 -0.01005
43.55 -0.01178
43.6 -0.01363
43.65 -0.01552
43.7 -0.0177
43.75 -0.02005
43.8 -0.02248
43.85 -0.02517
43.9 -0.02814
43.95 -0.03146
44 -0.03487
44.05 -0.03841
44.1 -0.04245
44.15 -0.04653
44.2 -0.05065
44.25 -0.05507
44.3 -0.05946
44.35 -0.06404
44.4 -0.06876
44.45 -0.07359
44.5 -0.07814
44.55 -0.08234
44.6 -0.08639
44.65 -0.09001
44.7 -0.09325
44.75 -0.09625
44.8 -0.09889
44.85 -0.10107
44.9 -0.10252
44.95 -0.1034
45 -0.10357
45.05 -0.10291
45.1 -0.10182
45.15 -0.09996
45.2 -0.09754
45.25 -0.09473
45.3 -0.09144
45.35 -0.08758
45.4 -0.0834
45.45 -0.07898
45.5 -0.07436
45.55 -0.06943
45.6 -0.06431
45.65 -0.05896
45.7 -0.05356
45.75 -0.04825
45.8 -0.04309
45.85 -0.03808
45.9 -0.03352
45.95 -0.02917
46 -0.02495
46.05 -0.02094
46.1 -0.01722
46.15 -0.01392
46.2 -0.01064
46.25 -0.0074
46.3 -0.00434
46.35 -0.00142
46.4 0.00158
46.45 0.00485
46.5 0.00824
46.55 0.01177
46.6 0.01555
46.65 0.01937
46.7 0.0234
46.75 0.02767
46.8 0.03197
46.85 0.0366
46.9 0.04127
46.95 0.04607
47 0.05071
47.05 0.05539
47.1 0.05984
47.15 0.0643
47.2 0.06857
47.25 0.07266
47.3 0.07651
47.35 0.08025
47.4 0.08371
47.45 0.08676
47.5 0.08957
47.55 0.09222
47.6 0.09438
47.65 0.09629
47.7 0.09779
47.75 0.09884
47.8 0.09967
47.85 0.10014
47.9 0.09998
47.95 0.09962
48 0.09877
48.05 0.09772
48.1 0.09656
48.15 0.09508
48.2 0.09343
48.25 0.09154
48.3 0.08964
48.35 0.08787
48.4 0.08599
48.45 0.08414
48.5 0.08229
48.55 0.08029
48.6 0.07809
48.65 0.07601
48.7 0.074
48.75 0.07196
48.8 0.0699
48.85 0.06782
48.9 0.06599
48.95 0.06407
49 0.06231
49.05 0.06053
49.1 0.05887
49.15 0.05731
49.2 0.05573
49.25 0.0542
49.3 0.05284
49.35 0.0514
49.4 0.04975
49.45 0.0482
49.5 0.04666
49.55 0.04508
49.6 0.0436
49.65 0.04217
49.7 0.04059
49.75 0.03896
49.8 0.03749
49.85 0.03595
49.9 0.03465
49.95 0.03324
50 0.03212
50.05 0.03077
50.1 0.02943
50.15 0.02803
50.2 0.02658
50.25 0.0251
50.3 0.02379
50.35 0.02243
50.4 0.02114
50.45 0.02002
50.5 0.01887
50.55 0.0175
50.6 0.01608
50.65 0.01474
50.7 0.01329
50.75 0.01188
50.8 0.01058
50.85 0.00946
50.9 0.00824
50.95 0.00704
51 0.00588
51.05 0.00493
51.1 0.00393
51.15 0.00299
51.2 0.00194
51.25 0.0008
51.3 -0.00047
51.35 -0.00155
51.4 -0.00269
51.45 -0.00396
51.5 -0.0049
51.55 -0.00575
51.6 -0.00658
51.65 -0.00724
51.7 -0.00778
51.75 -0.0086
51.8 -0.00923
51.85 -0.01006
51.9 -0.01096
51.95 -0.01172
52 -0.01222
52.05 -0.01258
52.1 -0.01292
52.15 -0.01333
52.2 -0.01371
52.25 -0.01403
52.3 -0.01442
52.35 -0.01458
52.4 -0.01468
52.45 -0.01503
52.5 -0.01539
52.55 -0.01585
52.6 -0.01611
52.65 -0.01627
52.7 -0.01644
52.75 -0.01652
52.8 -0.01663
52.85 -0.01674
52.9 -0.01699
52.95 -0.01704
53 -0.01693
53.05 -0.01667
53.1 -0.01661
53.15 -0.01659
53.2 -0.01647
53.25 -0.01623
53.3 -0.01616
53.35 -0.01607
53.4 -0.01586
53.45 -0.01568
53.5 -0.01562
53.55 -0.01559
53.6 -0.01536
53.65 -0.01536
53.7 -0.01529
53.75 -0.01529
53.8 -0.01508
53.85 -0.01476
53.9 -0.01465
53.95 -0.01456
54 -0.0144
54.05 -0.01439
54.1 -0.01446
54.15 -0.01432
54.2 -0.01405
54.25 -0.0137
54.3 -0.01322
54.35 -0.01301
54.4 -0.01269
54.45 -0.01263
54.5 -0.01244
54.55 -0.01211
54.6 -0.01183
54.65 -0.01145
54.7 -0.01117
54.75 -0.01119
54.8 -0.01126
54.85 -0.01138
54.9 -0.01123
54.95 -0.011
55 -0.01089
55.05 -0.01069
55.1 -0.01062
55.15 -0.01034
55.2 -0.01003
55.25 -0.00992
55.3 -0.00997
55.35 -0.0101
55.4 -0.01029
55.45 -0.0103
55.5 -0.01016
55.55 -0.00995
55.6 -0.00982
55.65 -0.00974
55.7 -0.00949
55.75 -0.00928
55.8 -0.00908
55.85 -0.00885
55.9 -0.00875
55.95 -0.00874
56 -0.00851
56.05 -0.00812
56.1 -0.00764
56.15 -0.0072
56.2 -0.00684
56.25 -0.00666
56.3 -0.0065
56.35 -0.00637
56.4 -0.00641
56.45 -0.00653
56.5 -0.00654
56.55 -0.00648
56.6 -0.00639
56.65 -0.00644
56.7 -0.00635
56.75 -0.00641
56.8 -0.00657
56.85 -0.0066
56.9 -0.00666
56.95 -0.00645
57 -0.00637
57.05 -0.0063
57.1 -0.00599
57.15 -0.00557
57.2 -0.0051
57.25 -0.00466
57.3 -0.00455
57.35 -0.00439
57.4 -0.00441
57.45 -0.00458
57.5 -0.00463
57.55 -0.00458
57.6 -0.00445
57.65 -0.00447
57.7 -0.00447
57.75 -0.00442
57.8 -0.00418
57.85 -0.004
57.9 -0.00376
57.95 -0.00365
58 -0.00356
58.05 -0.00336
58.1 -0.00346
58.15 -0.00352
58.2 -0.00361
58.25 -0.00351
58.3 -0.0033
58.35 -0.00339
58.4 -0.0036
58.45 -0.00376
58.5 -0.00388
58.55 -0.00396
58.6 -0.004
58.65 -0.00414
58.7 -0.00429
58.75 -0.00449
58.8 -0.00461
58.85 -0.00456
58.9 -0.0046
58.95 -0.00467
59 -0.00452
59.05 -0.00425
59.1 -0.00383
59.15 -0.00331
59.2 -0.00289
59.25 -0.00254
59.3 -0.00221
59.35 -0.00217
59.4 -0.00223
59.45 -0.00239
59.5 -0.00244
59.55 -0.0023
59.6 -0.00231
59.65 -0.0022
59.7 -0.00198
59.75 -0.00182
59.8 -0.00183
59.85 -0.00177
59.9 -0.00196
59.95 -0.00197
60 -0.00205
60.05 -0.00195
60.1 -0.00187
60.15 -0.00182
60.2 -0.00191
60.25 -0.00192
60.3 -0.00202
60.35 -0.00198
60.4 -0.00178
60.45 -0.00149
60.5 -0.00142
60.55 -0.00137
60.6 -0.00149
60.65 -0.00145
60.7 -0.0016
60.75 -0.00177
60.8 -0.00187
60.85 -0.00202
60.9 -0.00208
60.95 -0.00201
61 -0.00194
61.05 -0.00203
61.1 -0.002
61.15 -0.00205
61.2 -0.00196
61.25 -0.00184
61.3 -0.00175
61.35 -0.0018
61.4 -0.00195
61.45 -0.00213
61.5 -0.00227
61.55 -0.00241
61.6 -0.00255
61.65 -0.00239
61.7 -0.00213
61.75 -0.00178
61.8 -0.00167
61.85 -0.00171
61.9 -0.00179
61.95 -0.00199
62 -0.00211
62.05 -0.00213
62.1 -0.00198
62.15 -0.00173
62.2 -0.00169
62.25 -0.00153
62.3 -0.00118
62.35 -0.00095
62.4 -0.00094
62.45 -0.00103
62.5 -0.001
62.55 -0.00086
62.6 -0.00069
62.65 -0.00046
62.7 -0.00018
62.75 -0.00021
62.8 -0.00013
62.85 -0.00024
62.9 -0.00032
62.95 -0.00053
63 -0.00084
63.05 -0.001
63.1 -0.00117
63.15 -0.00107
63.2 -0.00087
63.25 -0.00058
63.3 -0.00053
63.35 -0.00044
63.4 -0.00061
63.45 -0.00074
63.5 -0.001
63.55 -0.00112
63.6 -0.0013
63.65 -0.00136
63.7 -0.00119
63.75 -0.00087
63.8 -0.00066
63.85 -0.00059
63.9 -0.00064
63.95 -0.00071
64 -0.00086
64.05 -0.00107
64.1 -0.00132
64.15 -0.00151
64.2 -0.00153
64.25 -0.00162
64.3 -0.00142
64.35 -0.00136
64.4 -0.00121
64.45 -0.0011
64.5 -0.0009
64.55 -0.00084
64.6 -0.00096
64.65 -0.00086
64.7 -0.0008
64.75 -0.00059
64.8 -0.00049
64.85 -0.00031
64.9 -0.00034
64.95 -0.00032
65 -0.00033
65.05 -0.00048
65.1 -0.00038
65.15 -0.00032
65.2 -0.00041
65.25 -0.00036
65.3 -0.00028
65.35 -0.00042
65.4 -0.00062
65.45 -0.00068
65.5 -0.00061
65.55 -0.00041
65.6 -0.00014
65.65 0.00022
65.7 0.00035
65.75 0.00028
65.8 0.00014
65.85 0.0002
65.9 0.00001
65.95 -0.00009
66 0.00002
66.05 0.00003
66.1 -0.00012
66.15 -0.00012
66.2 -0.00012
66.25 -0.00008
66.3 -0.00008
66.35 0.00002
66.4 -0.00002
66.45 -0.00023
66.5 -0.00049
66.55 -0.00079
66.6 -0.00084
66.65 -0.00095
66.7 -0.00078
66.75 -0.00068
66.8 -0.00057
66.85 -0.00064
66.9 -0.00075
66.95 -0.0009
67 -0.00102
67.05 -0.00122
67.1 -0.00145
67.15 -0.00148
67.2 -0.00124
67.25 -0.00104
67.3 -0.00083
67.35 -0.00052
67.4 -0.00047
67.45 -0.00047
67.5 -0.00053
67.55 -0.00049
67.6 -0.00056
67.65 -0.00045
67.7 -0.00024
67.75 -0.00015
67.8 0.00007
67.85 0.00033
67.9 0.00063
67.95 0.00066
68 0.00067
68.05 0.00071
68.1 0.00082
68.15 0.0008
68.2 0.00069
68.25 0.00043
68.3 0.00038
68.35 0.00014
68.4 0.00014
68.45 -0.00007
68.5 -0.00033
68.55 -0.00061
68.6 -0.00081
68.65 -0.00084
68.7 -0.00066
68.75 -0.00055
68.8 -0.00027
68.85 0
68.9 0.00035
68.95 0.00037
69 0.00024
69.05 -0.00003
69.1 -0.00034
69.15 -0.0006
69.2 -0.00076
69.25 -0.00079
69.3 -0.0007
69.35 -0.00072
69.4 -0.00058
69.45 -0.00053
69.5 -0.00034
69.55 -0.00013
69.6 -0.00017
69.65 -0.00008
69.7 -0
69.75 -0.00001
69.8 -0.00019
69.85 -0.00041
69.9 -0.00065
69.95 -0.00064
70 -0.00061
70.05 -0.0006
70.1 -0.00059
70.15 -0.00037
70.2 -0.0003
70.25 -0.00026
70.3 -0.00033
70.35 -0.00023
70.4 -0.00006
70.45 0.00017
70.5 0.00044
70.55 0.00076
70.6 0.00093
70.65 0.00115
70.7 0.00131
70.75 0.00131
70.8 0.0011
70.85 0.00102
70.9 0.00081
70.95 0.00056
71 0.00036
71.05 0.00014
71.1 -0.00001
71.15 -0.00007
71.2 0.00002
71.25 -0.00005
71.3 -0.00028
71.35 -0.00023
71.4 -0.00036
71.45 -0.0006
71.5 -0.00084
71.55 -0.00076
71.6 -0.00077
71.65 -0.00052
71.7 -0.00018
71.75 0.00002
71.8 0.00024
71.85 0.00047
71.9 0.00078
71.95 0.00105
72 0.00131
72.05 0.00122
72.1 0.00104
72.15 0.00082
72.2 0.00057
72.25 0.00052
72.3 0.00048
72.35 0.0004
72.4 0.00017
72.45 -0
72.5 -0.00026
72.55 -0.00032
72.6 -0.00028
72.65 -0.00021
72.7 -0.00015
72.75 -0.00008
72.8 -0.00013
72.85 0.00003
72.9 0.0003
72.95 0.00035
73 0.00017
73.05 0.00006
73.1 0.00014
73.15 0.00028
73.2 0.00046
73.25 0.0004
73.3 0.00043
73.35 0.00059
73.4 0.00065
73.45 0.00065
73.5 0.00039
73.55 0.00019
73.6 -0.0001
73.65 -0.00032
73.7 -0.00053
73.75 -0.00054
73.8 -0.00051
73.85 -0.00028
73.9 -0.00011
73.95 -0.00017
74 -0.00039
74.05 -0.0005
74.1 -0.00042
74.15 -0.00016
74.2 -0.0001
74.25 0.00005
74.3 0.00032
74.35 0.00055
74.4 0.00053
74.45 0.00054
74.5 0.00065
74.55 0.00068
74.6 0.00057
74.65 0.00055
74.7 0.00055
74.75 0.00038
74.8 0.00021
74.85 0.00023
74.9 0.00027
74.95 0.00017
75 0.00016
75.05 0.00017
75.1 0.00032
75.15 0.00026
75.2 0.00034
75.25 0.00021
75.3 0.00018
75.35 0.00002
75.4 -0.00016
75.45 -0.00022
75.5 -0.00024
75.55 -0.00009
75.6 -0.00001
75.65 -0.00001
75.7 0.00013
75.75 0.00006
75.8 -0.00019
75.85 -0.00024
75.9 -0.00025
75.95 -0.00035
76 -0.00028
76.05 -0.00033
76.1 -0.00039
76.15 -0.00056
76.2 -0.00057
76.25 -0.00068
76.3 -0.0008
76.35 -0.00077
76.4 -0.00067
76.45 -0.00061
76.5 -0.00039
76.55 -0.00039
76.6 -0.00055
76.65 -0.00057
76.7 -0.00042
76.75 -0.00037
76.8 -0.00045
76.85 -0.00037
76.9 -0.00036
76.95 -0.00052
77 -0.00068
77.05 -0.00068
77.1 -0.00075
77.15 -0.00056
77.2 -0.00023
77.25 -0.00014
77.3 -0.00003
77.35 0.00007
77.4 0.00021
77.45 0.00022
77.5 0.00016
77.55 0.00003
77.6 -0.00004
77.65 -0.00017
77.7 -0.00027
77.75 -0.00033
77.8 -0.00021
77.85 0.00004
77.9 -0.00001
77.95 0.0001
78 0.00033
78.05 0.00027
78.1 0.00005
78.15 -0.00021
78.2 -0.00017
78.25 -0.00029
78.3 -0.00037
78.35 -0.00038
78.4 -0.00048
78.45 -0.00052
78.5 -0.00043
78.55 -0.00025
78.6 -0.00026
78.65 -0.00024
78.7 -0.00013
78.75 -0.00009
78.8 0.00015
78.85 0.0001
78.9 0.00002
78.95 -0.00007
79 0.00007
79.05 0.00015
79.1 0.00008
79.15 -0.00014
79.2 -0.00014
79.25 0.00004
79.3 0.0003
79.35 0.00041
79.4 0.00044
79.45 0.0003
79.5 0.00025
79.55 0.00034
79.6 0.00036
79.65 0.00046
79.7 0.00058
79.75 0.00055
79.8 0.00048
79.85 0.00055
79.9 0.00059
79.95 0.00064
80 0.00051
80.05 0.00021
80.1 0.00014
80.15 0.00019
80.2 0.00014
80.25 0.00024
80.3 0.00043
80.35 0.00061
80.4 0.00073
80.45 0.00053
80.5 0.00019
80.55 -0.00012
80.6 -0.00035
80.65 -0.00046
80.7 -0.00065
80.75 -0.0008
80.8 -0.00098
80.85 -0.00122
80.9 -0.00116
80.95 -0.00097
81 -0.00091
81.05 -0.00096
81.1 -0.00075
81.15 -0.00056
81.2 -0.00023
81.25 -0.00014
81.3 -0.00002
81.35 0.00013
81.4 0.00025
81.45 0.00027
81.5 0.00037
81.55 0.00054
81.6 0.00077
81.65 0.0009
81.7 0.00088
81.75 0.00082
81.8 0.00075
81.85 0.00083
81.9 0.00095
81.95 0.00075
82 0.00071
82.05 0.00042
82.1 0.00016
82.15 0
82.2 -0.00012
82.25 -0.00027
82.3 -0.00021
82.35 -0.00005
82.4 -0.00002
82.45 -0.00008
82.5 -0.00032
82.55 -0.00037
82.6 -0.00049
82.65 -0.0005
82.7 -0.00042
82.75 -0.00051
82.8 -0.00061
82.85 -0.00084
82.9 -0.00074
82.95 -0.00076
83 -0.00063
83.05 -0.00047
83.1 -0.00015
83.15 -0.00005
83.2 0.00006
83.25 -0.00007
83.3 -0.00032
83.35 -0.00032
83.4 -0.00028
83.45 -0.00012
83.5 0.00003
83.55 0.00006
83.6 0.00026
83.65 0.00027
83.7 0.00011
83.75 -0.00019
83.8 -0.00036
83.85 -0.00047
83.9 -0.00057
83.95 -0.00066
84 -0.00079
84.05 -0.0009
84.1 -0.00103
84.15 -0.00097
84.2 -0.00075
84.25 -0.00054
84.3 -0.00055
84.35 -0.00069
84.4 -0.00055
84.45 -0.00039
84.5 -0.00028
84.55 -0.00004
84.6 0.00007
84.65 -0.00006
84.7 -0.00009
84.75 -0.00024
84.8 -0.00049
84.85 -0.00049
84.9 -0.00041
84.95 -0.00049
85 -0.00059
85.05 -0.00063
85.1 -0.00048
85.15 -0.0002
85.2 -0.00015
85.25 -0.0001
85.3 -0.00004
85.35 0.00016
85.4 0.00014
85.45 0.00001
85.5 -0.00014
85.55 -0.00013
85.6 -0.00023
85.65 -0.00026
85.7 -0.00017
85.75 0
85.8 0.00022
85.85 0.00031
85.9 0.00031
85.95 0.00047
86 0.00045
86.05 0.00037
86.1 0.00044
86.15 0.0004
86.2 0.00038
86.25 0.00015
86.3 -0.00008
86.35 -0.00025
86.4 -0.00038
86.45 -0.00027
86.5 -0.0003
86.55 -0.00018
86.6 -0.00024
86.65 -0.00014
86.7 -0.00023
86.75 -0.00024
86.8 -0.00038
86.85 -0.00025
86.9 -0.00004
86.95 0.00031
87 0.00037
87.05 0.00025
87.1 0.00021
87.15 0.00005
87.2 0.00007
87.25 -0.00003
87.3 -0.00016
87.35 -0.00022
87.4 -0.00015
87.45 0.00008
87.5 0.00029
87.55 0.00037
87.6 0.00048
87.65 0.00068
87.7 0.00092
87.75 0.0011
87.8 0.00122
87.85 0.00116
87.9 0.00093
87.95 0.00065
88 0.00038
88.05 0.00033
88.1 0.0001
88.15 -0.00011
88.2 -0.00012
88.25 -0.00019
88.3 -0.0002
88.35 -0.00005
88.4 0.00001
88.45 -0.00005
88.5 0.00005
88.55 0.00005
88.6 -0.00013
88.65 -0.00014
88.7 0.00004
88.75 0.00004
88.8 -0.00005
88.85 -0.00016
88.9 -0.00013
88.95 -0.00027
89 -0.00046
89.05 -0.00069
89.1 -0.00072
89.15 -0.00049
89.2 -0.00016
89.25 0.00023
89.3 0.00052
89.35 0.00081
89.4 0.00087
89.45 0.00069
89.5 0.00033
89.55 -0
89.6 -0.00007
89.65 0.00003
89.7 0.00028
89.75 0.00056
89.8 0.00082
89.85 0.0008
89.9 0.00063
89.95 0.00027
90 -0.00003
90.05 -0.00008
90.1 -0.00002
90.15 0.00016
90.2 0.00031
90.25 0.00026
90.3 0.00031
90.35 0.00014
90.4 -0.00016
90.45 -0.00046
90.5 -0.00069
90.55 -0.00072
90.6 -0.00088
90.65 -0.00094
90.7 -0.00101
90.75 -0.00107
90.8 -0.00097
90.85 -0.00083
90.9 -0.00069
90.95 -0.0007
91 -0.00045
91.05 -0.0003
91.1 -0.00005
91.15 0.0003
91.2 0.00035
91.25 0.00027
91.3 0.00027
91.35 0.00005
91.4 -0.00027
91.45 -0.00036
91.5 -0.0004
91.55 -0.00021
91.6 0.00001
91.65 0.00011
91.7 0.00019
91.75 0.00006
91.8 -0.00022
91.85 -0.00028
91.9 -0.00015
91.95 -0.00017
92 -0.00009
92.05 -0.00014
92.1 -0.00012
92.15 -0.00018
92.2 -0.00032
92.25 -0.00044
92.3 -0.00066
92.35 -0.00072
92.4 -0.00081
92.45 -0.00091
92.5 -0.0008
92.55 -0.00055
92.6 -0.00018
92.65 0.00022
92.7 0.00055
92.75 0.00092
92.8 0.00105
92.85 0.00116
92.9 0.00118
92.95 0.00126
93 0.00119
93.05 0.00114
93.1 0.00092
93.15 0.00062
93.2 0.00025
93.25 -0.00002
93.3 -0.00027
93.35 -0.00029
93.4 -0.00027
93.45 -0.00003
93.5 0.00005
93.55 0.00004
93.6 0.00005
93.65 -0.00009
93.7 -0.0003
93.75 -0.00024
93.8 -0.00009
93.85 0.00014
93.9 0.00013
93.95 -0.00004
94 -0.00009
94.05 -0.00011
94.1 -0.00024
94.15 -0.00047
94.2 -0.00053
94.25 -0.00059
94.3 -0.00061
94.35 -0.00067
94.4 -0.00062
94.45 -0.00041
94.5 -0.00007
94.55 0.00013
94.6 0.00016
94.65 0.00025
94.7 0.00032
94.75 0.00044
94.8 0.00064
94.85 0.00079
94.9 0.00087
94.95 0.00102
95 0.00108
95.05 0.00103
95.1 0.00108
95.15 0.001
95.2 0.00096
95.25 0.00074
95.3 0.00071
95.35 0.00068
95.4 0.0004
95.45 0.00031
95.5 0.00004
95.55 -0.00005
95.6 -0.00025
95.65 -0.00047
95.7 -0.00061
95.75 -0.00081
95.8 -0.00088
95.85 -0.00088
95.9 -0.001
95.95 -0.00083
96 -0.00051
96.05 -0.00031
96.1 0.00001
96.15 0.00014
96.2 0.00017
96.25 0.00026
96.3 0.0003
96.35 0.00032
96.4 0.0002
96.45 0.00024
96.5 0.00042
96.55 0.00068
96.6 0.00094
96.65 0.00085
96.7 0.00065
96.75 0.00041
96.8 0.00004
96.85 -0.00002
96.9 -0.0001
96.95 -0.00023
97 -0.00047
97.05 -0.00043
97.1 -0.00049
97.15 -0.00061
97.2 -0.00064
97.25 -0.00057
97.3 -0.00049
97.35 -0.00046
97.4 -0.00048
97.45 -0.00035
97.5 -0.00037
97.55 -0.00016
97.6 -0.00001
97.65 0.0001
97.7 0.00013
97.75 0.00001
97.8 -0.00026
97.85 -0.00031
97.9 -0.00035
97.95 -0.00034
98 -0.00031
98.05 -0.00019
98.1 -0.00006
98.15 -0.00004
98.2 -0.00001
98.25 -0.00004
98.3 -0.00017
98.35 -0.00005
98.4 -0.00004
98.45 0.00006
98.5 0.00007
98.55 -0.00008
98.6 -0.0001
98.65 -0.00022
98.7 -0.00032
98.75 -0.00041
98.8 -0.00043
98.85 -0.00043
98.9 -0.00027
98.95 0.00004
99 0.00023
99.05 0.00014
99.1 0.00002
99.15 -0.00022
99.2 -0.00031
99.25 -0.00029
99.3 -0.00022
99.35 0.00003
99.4 0.00011
99.45 0.00017
99.5 0.00038
99.55 0.00058
99.6 0.00071
99.65 0.00068
99.7 0.00071
99.75 0.00085
99.8 0.00075
99.85 0.00075
99.9 0.00084
99.95 0.00085
