0 0
0.05 0.00085
0.1 0.00196
0.15 0.00311
0.2 0.00492
0.25 0.00718
0.3 0.00906
0.35 0.00986
0.4 0.01045
0.45 0.01136
0.5 0.01102
0.55 0.01068
0.6 0.01031
0.65 0.00966
0.7 0.00956
0.75 0.00941
0.8 0.00899
0.85 0.0086
0.9 0.00838
0.95 0.0082
1 0.00862
1.05 0.00865
1.1 0.00824
1.15 0.00734
1.2 0.00694
1.25 0.00605
1.3 0.00519
1.35 0.00502
1.4 0.00435
1.45 0.00359
1.5 0.00393
1.55 0.00429
1.6 0.00481
1.65 0.00563
1.7 0.00549
1.75 0.00555
1.8 0.00595
1.85 0.00554
1.9 0.00565
1.95 0.00496
2 0.00398
2.05 0.00293
2.1 0.00231
2.15 0.0027
2.2 0.00358
2.25 0.00396
2.3 0.00446
2.35 0.00457
2.4 0.00495
2.45 0.00524
2.5 0.00468
2.55 0.00416
2.6 0.00413
2.65 0.00445
2.7 0.00463
2.75 0.00446
2.8 0.00456
2.85 0.0049
2.9 0.00564
2.95 0.00619
3 0.00627
3.05 0.0057
3.1 0.00466
3.15 0.00349
3.2 0.00328
3.25 0.00296
3.3 0.00359
3.35 0.00347
3.4 0.00362
3.45 0.00417
3.5 0.00506
3.55 0.00487
3.6 0.00446
3.65 0.00432
3.7 0.00405
3.75 0.00404
3.8 0.00331
3.85 0.00226
3.9 0.00134
3.95 0.00132
4 0.00183
4.05 0.00153
4.1 0.00208
4.15 0.00177
4.2 0.00214
4.25 0.00307
4.3 0.00363
4.35 0.00318
4.4 0.00311
4.45 0.00255
4.5 0.00166
4.55 0.00093
4.6 0.001
4.65 0.00152
4.7 0.0026
4.75 0.0027
4.8 0.0029
4.85 0.00282
4.9 0.00287
4.95 0.0031
5 0.0026
5.05 0.00267
5.1 0.00255
5.15 0.00292
5.2 0.00345
5.25 0.00401
5.3 0.00428
5.35 0.00499
5.4 0.00505
5.45 0.00486
5.5 0.00468
5.55 0.00463
5.6 0.00446
5.65 0.00478
5.7 0.00492
5.75 0.00412
5.8 0.00322
5.85 0.00227
5.9 0.00189
5.95 0.00212
6 0.0027
6.05 0.00362
6.1 0.00475
6.15 0.00446
6.2 0.00437
6.25 0.00367
6.3 0.00335
6.35 0.00219
6.4 0.00204
6.45 0.00125
6.5 0.00063
6.55 0.00074
6.6 0.00024
6.65 -0.00068
6.7 -0.00096
6.75 -0.0014
6.8 -0.00111
6.85 -0.00002
6.9 0.00002
6.95 -0.00024
7 0.00017
7.05 0.00068
7.1 0.00063
7.15 0.00093
7.2 0.00154
7.25 0.00241
7.3 0.00349
7.35 0.00411
7.4 0.00495
7.45 0.00559
7.5 0.00492
7.55 0.00488
7.6 0.00435
7.65 0.00403
7.7 0.00282
7.75 0.00212
7.8 0.00178
7.85 0.00199
7.9 0.00204
7.95 0.0017
8 0.00209
8.05 0.00192
8.1 0.00119
8.15 -0.00011
8.2 -0.00028
8.25 0.00013
8.3 0.001
8.35 0.00141
8.4 0.00085
8.45 -0.00029
8.5 -0.00051
8.55 -0.00097
8.6 -0.00189
8.65 -0.00298
8.7 -0.00318
8.75 -0.00303
8.8 -0.00316
8.85 -0.00336
8.9 -0.00387
8.95 -0.00343
9 -0.0036
9.05 -0.00291
9.1 -0.00277
9.15 -0.00296
9.2 -0.003
9.25 -0.00307
9.3 -0.00332
9.35 -0.00371
9.4 -0.00338
9.45 -0.00313
9.5 -0.00281
9.55 -0.00227
9.6 -0.00097
9.65 -0.00042
9.7 -0.00004
9.75 -0.00046
9.8 -0.00125
9.85 -0.00107
9.9 -0.0011
9.95 -0.00056
10 -0.00044
10.05 -0.00001
10.1 -0.00026
10.15 0.00013
10.2 0.00068
10.25 0.00044
10.3 0.00008
10.35 0.00004
10.4 0.00033
10.45 0.00089
10.5 0.00134
10.55 0.00151
10.6 0.00186
10.65 0.00133
10.7 0.00144
10.75 0.00123
10.8 0.00152
10.85 0.00223
10.9 0.00271
10.95 0.00206
11 0.00084
11.05 -0.00057
11.1 -0.00178
11.15 -0.00192
11.2 -0.0013
11.25 -0.00127
11.3 -0.00173
11.35 -0.00149
11.4 -0.00178
11.45 -0.00114
11.5 -0.00122
11.55 -0.00166
11.6 -0.00203
11.65 -0.00158
11.7 -0.00072
11.75 -0.00077
11.8 0.00001
11.85 -0.00022
11.9 -0.00035
11.95 0.0004
12 0.00034
12.05 0.00034
12.1 -0.00029
12.15 -0.00036
12.2 0.00015
12.25 0.00027
12.3 0.00108
12.35 0.00098
12.4 0.00011
12.45 -0.00096
12.5 -0.00085
12.55 -0.001
12.6 -0.00093
12.65 -0.00077
12.7 -0.00132
12.75 -0.00074
12.8 0.00032
12.85 0.00028
12.9 0.00078
12.95 0.00082
13 0.00111
13.05 0.00071
13.1 0.00079
13.15 0.00052
13.2 0.00085
13.25 0.00073
13.3 0.00023
13.35 -0.0007
13.4 -0.00121
13.45 -0.00106
13.5 -0.001
13.55 -0.00083
13.6 0.00014
13.65 0.00071
13.7 0.00106
13.75 0.00091
13.8 0.00148
13.85 0.00138
13.9 0.00149
13.95 0.00222
14 0.00247
14.05 0.00214
14.1 0.00231
14.15 0.0022
14.2 0.0024
14.25 0.00254
14.3 0.00174
14.35 0.00075
14.4 0.00029
14.45 0.00008
14.5 0.00054
14.55 0.00145
14.6 0.00226
14.65 0.00274
14.7 0.00359
14.75 0.00381
14.8 0.00438
14.85 0.00456
14.9 0.00437
14.95 0.00395
15 0.00376
15.05 0.00379
15.1 0.00396
15.15 0.00305
15.2 0.00214
15.25 0.00202
15.3 0.00166
15.35 0.00068
15.4 -0.00059
15.45 -0.00123
15.5 -0.0019
15.55 -0.00294
15.6 -0.00368
15.65 -0.00389
15.7 -0.00373
15.75 -0.00408
15.8 -0.00474
15.85 -0.0051
15.9 -0.00456
15.95 -0.00461
16 -0.00479
16.05 -0.00501
16.1 -0.00536
16.15 -0.00446
16.2 -0.00353
16.25 -0.00192
16.3 -0.00065
16.35 0.00095
16.4 0.00195
16.45 0.00291
16.5 0.00394
16.55 0.00437
16.6 0.00372
16.65 0.00336
16.7 0.00359
16.75 0.00326
16.8 0.00319
16.85 0.00259
16.9 0.00252
16.95 0.0019
17 0.00127
17.05 0.00134
17.1 0.00113
17.15 0.00018
17.2 0.00025
17.25 0.00023
17.3 0.00086
17.35 0.00172
17.4 0.00208
17.45 0.00226
17.5 0.00177
17.55 0.00064
17.6 -0.00028
17.65 -0.00039
17.7 -0.00093
17.75 -0.00186
17.8 -0.00183
17.85 -0.00112
17.9 -0.00072
17.95 -0.00047
18 0.00045
18.05 0.00134
18.1 0.00223
18.15 0.00332
18.2 0.00432
18.25 0.00533
18.3 0.00486
18.35 0.00433
18.4 0.00409
18.45 0.00347
18.5 0.00319
18.55 0.0026
18.6 0.00267
18.65 0.00308
18.7 0.00237
18.75 0.00172
18.8 0.00166
18.85 0.00139
18.9 0.00134
18.95 0.0006
19 -0.00052
19.05 -0.00199
19.1 -0.00234
19.15 -0.00256
19.2 -0.0018
19.25 -0.00178
19.3 -0.00203
19.35 -0.00181
19.4 -0.00106
19.45 -0.00111
19.5 -0.00172
19.55 -0.00256
19.6 -0.00351
19.65 -0.00349
19.7 -0.00348
19.75 -0.00259
19.8 -0.00147
19.85 -0.0013
19.9 -0.00158
19.95 -0.00112
20 -0.00027
20.05 0.00028
20.1 0.00105
20.15 0.00215
20.2 0.00183
20.25 0.00216
20.3 0.00213
20.35 0.00142
20.4 0.00142
20.45 0.00095
20.5 0.00121
20.55 0.00138
20.6 0.00197
20.65 0.00255
20.7 0.0034
20.75 0.00385
20.8 0.0045
20.85 0.00394
20.9 0.00331
20.95 0.00299
21 0.00284
21.05 0.00241
21.1 0.00208
21.15 0.00157
21.2 0.0016
21.25 0.001
21.3 0.00114
21.35 0.00081
21.4 0.00034
21.45 -0.00035
21.5 -0.0016
21.55 -0.00298
21.6 -0.00351
21.65 -0.00427
21.7 -0.00508
21.75 -0.00497
21.8 -0.00434
21.85 -0.00318
21.9 -0.00204
21.95 -0.001
22 -0.00044
22.05 0.00032
22.1 0.00065
22.15 0.00078
22.2 0.00094
22.25 0.00045
22.3 -0.00037
22.35 -0.00133
22.4 -0.00223
22.45 -0.00242
22.5 -0.00239
22.55 -0.00294
22.6 -0.00242
22.65 -0.00239
22.7 -0.00287
22.75 -0.00277
22.8 -0.00316
22.85 -0.00261
22.9 -0.00281
22.95 -0.00316
23 -0.00278
23.05 -0.00171
23.1 -0.00123
23.15 -0.00131
23.2 -0.00093
23.25 -0.0006
23.3 -0.00056
23.35 -0.00092
23.4 -0.0012
23.45 -0.00151
23.5 -0.00164
23.55 -0.00198
23.6 -0.00253
23.65 -0.00294
23.7 -0.00324
23.75 -0.00289
23.8 -0.00178
23.85 -0.00051
23.9 0.00103
23.95 0.002
24 0.00317
24.05 0.00337
24.1 0.00386
24.15 0.0039
24.2 0.00328
24.25 0.00252
24.3 0.00119
24.35 -0.00047
24.4 -0.00227
24.45 -0.00308
24.5 -0.00387
24.55 -0.00405
24.6 -0.00388
24.65 -0.00359
24.7 -0.00353
24.75 -0.00314
24.8 -0.0031
24.85 -0.00299
24.9 -0.0026
24.95 -0.0019
25 -0.00157
25.05 -0.0015
25.1 -0.00175
25.15 -0.00178
25.2 -0.00237
25.25 -0.00182
25.3 -0.00136
25.35 -0.00027
25.4 0.00084
25.45 0.00216
25.5 0.00258
25.55 0.00268
25.6 0.00324
25.65 0.00402
25.7 0.00437
25.75 0.00488
25.8 0.00546
25.85 0.00533
25.9 0.00405
25.95 0.00253
26 0.00157
26.05 0.00067
26.1 -0.00013
26.15 -0.00025
26.2 -0.001
26.25 -0.00134
26.3 -0.00187
26.35 -0.00251
26.4 -0.00338
26.45 -0.00372
26.5 -0.00293
26.55 -0.00287
26.6 -0.00196
26.65 -0.00175
26.7 -0.00095
26.75 -0.0009
26.8 -0.00144
26.85 -0.0021
26.9 -0.00205
26.95 -0.00195
27 -0.00156
27.05 -0.00119
27.1 -0.00162
27.15 -0.0021
27.2 -0.00295
27.25 -0.00285
27.3 -0.00306
27.35 -0.00242
27.4 -0.00128
27.45 -0.00072
27.5 0.00042
27.55 0.00175
27.6 0.00268
27.65 0.00372
27.7 0.00466
27.75 0.00539
27.8 0.00483
27.85 0.00476
27.9 0.00504
27.95 0.0047
28 0.00475
28.05 0.00468
28.1 0.00479
28.15 0.00489
28.2 0.0052
28.25 0.00479
28.3 0.00465
28.35 0.0038
28.4 0.00236
28.45 0.00174
28.5 0.00168
28.55 0.00217
28.6 0.00257
28.65 0.00208
28.7 0.00142
28.75 0.00038
28.8 0.00035
28.85 -0.00023
28.9 -0.0001
28.95 -0.00009
29 -0.00075
29.05 -0.00108
29.1 -0.00185
29.15 -0.00149
29.2 -0.00184
29.25 -0.00199
29.3 -0.00195
29.35 -0.00135
29.4 -0.00111
29.45 -0.00117
29.5 -0.00126
29.55 -0.00185
29.6 -0.00195
29.65 -0.00175
29.7 -0.0008
29.75 -0.0001
29.8 -0.00046
29.85 -0.00132
29.9 -0.0018
29.95 -0.00132
30 -0.00116
30.05 -0.00153
30.1 -0.00188
30.15 -0.00193
30.2 -0.0017
30.25 -0.00139
30.3 -0.00051
30.35 -0.00031
30.4 -0.00092
30.45 -0.00202
30.5 -0.00334
30.55 -0.0034
30.6 -0.0034
30.65 -0.00296
30.7 -0.00204
30.75 -0.00108
30.8 -0.00107
30.85 -0.00106
30.9 -0.00117
30.95 -0.00151
31 -0.00111
31.05 -0.00134
31.1 -0.00106
31.15 -0.0004
31.2 -0.00005
31.25 0.00055
31.3 0.00064
31.35 -0.00002
31.4 -0.0004
31.45 -0.00063
31.5 -0.00013
31.55 -0.00003
31.6 0.00079
31.65 0.00061
31.7 0.00104
31.75 0.00065
31.8 0.00085
31.85 0.00107
31.9 0.00117
31.95 0.00076
32 0.00061
32.05 -0.00009
32.1 -0.00051
32.15 -0.00101
32.2 -0.00184
32.25 -0.00169
32.3 -0.00097
32.35 -0.00008
32.4 0.00104
32.45 0.00184
32.5 0.00248
32.55 0.00301
32.6 0.00248
32.65 0.0025
32.7 0.00213
32.75 0.00172
32.8 0.00109
32.85 0.00085
32.9 0.00076
32.95 0.00108
33 0.00185
33.05 0.00139
33.1 0.00113
33.15 0.00091
33.2 0.00074
33.25 0.00021
33.3 -0.00066
33.35 -0.0005
33.4 -0.00104
33.45 -0.00109
33.5 -0.00059
33.55 0.00026
33.6 0.00027
33.65 0.00011
33.7 0.00007
33.75 0.00018
33.8 0.00077
33.85 0.0008
33.9 0.00032
33.95 0.0007
34 0.00144
34.05 0.001
34.1 0.00085
34.15 0.00031
34.2 -0.00039
34.25 -0.00121
34.3 -0.00106
34.35 -0.00065
34.4 -0.00003
34.45 0.00099
34.5 0.00114
34.55 0.0018
34.6 0.0016
34.65 0.00148
34.7 0.00142
34.75 0.00173
34.8 0.00152
34.85 0.00114
34.9 0.00084
34.95 0.0006
35 0.00037
35.05 -0
35.1 -0.00107
35.15 -0.00206
35.2 -0.00246
35.25 -0.00302
35.3 -0.00292
35.35 -0.00333
35.4 -0.0041
35.45 -0.00389
35.5 -0.00357
35.55 -0.0034
35.6 -0.00277
35.65 -0.00296
35.7 -0.00338
35.75 -0.00299
35.8 -0.00216
35.85 -0.00169
35.9 -0.00145
35.95 -0.00166
36 -0.00108
36.05 -0.00085
36.1 -0.00075
36.15 -0.00016
36.2 0.00041
36.25 0.00019
36.3 -0.00051
36.35 -0.00038
36.4 -0.00107
36.45 -0.00209
36.5 -0.00327
36.55 -0.00344
36.6 -0.00387
36.65 -0.00447
36.7 -0.00499
36.75 -0.00417
36.8 -0.00372
36.85 -0.00343
36.9 -0.00225
36.95 -0.00087
37 -0.00012
37.05 0.00013
37.1 0.00084
37.15 0.00103
37.2 0.00043
37.25 -0.00017
37.3 0.00014
37.35 0.00067
37.4 0.00022
37.45 0.0006
37.5 0.00085
37.55 0.00115
37.6 0.00104
37.65 0.00133
37.7 0.00164
37.75 0.00123
37.8 0.00097
37.85 0.00017
37.9 -0.00096
37.95 -0.00128
38 -0.00185
38.05 -0.00248
38.1 -0.00293
38.15 -0.00225
38.2 -0.00142
38.25 -0.00126
38.3 -0.00152
38.35 -0.00137
38.4 -0.00174
38.45 -0.00245
38.5 -0.00239
38.55 -0.0021
38.6 -0.00165
38.65 -0.00148
38.7 -0.00055
38.75 -0.00013
38.8 0.00064
38.85 0.00189
38.9 0.00295
38.95 0.00419
39 0.00506
39.05 0.00462
39.1 0.00325
39.15 0.00161
39.2 0.00001
39.25 -0.00076
39.3 -0.00189
39.35 -0.00268
39.4 -0.00229
39.45 -0.00153
39.5 -0.00082
39.55 -0.00041
39.6 -0.0008
39.65 -0.00062
39.7 -0.00035
39.75 0.00051
39.8 0.0011
39.85 0.00217
39.9 0.00214
39.95 0.00158
40 0.00108
40.05 0.00024
40.1 0.00045
40.15 0.00041
40.2 0.00115
40.25 0.00164
40.3 0.00157
40.35 0.00063
40.4 -0.00059
40.45 -0.00123
40.5 -0.00194
40.55 -0.00216
40.6 -0.00135
40.65 -0.00078
40.7 0.00014
40.75 0.00012
40.8 0.00019
40.85 -0.00006
40.9 0.00025
40.95 0.00097
41 0.00132
41.05 0.00201
41.1 0.00245
41.15 0.00273
41.2 0.00246
41.25 0.00219
41.3 0.00208
41.35 0.00182
41.4 0.00138
41.45 0.00024
41.5 -0.00127
41.55 -0.0027
41.6 -0.00386
41.65 -0.00497
41.7 -0.00455
41.75 -0.0041
41.8 -0.0041
41.85 -0.00388
41.9 -0.00358
41.95 -0.00368
42 -0.00414
42.05 -0.00407
42.1 -0.00364
42.15 -0.00349
42.2 -0.00366
42.25 -0.00274
42.3 -0.00258
42.35 -0.00227
42.4 -0.00213
42.45 -0.00225
42.5 -0.00176
42.55 -0.00054
42.6 0.00066
42.65 0.00069
42.7 0.00054
42.75 0.00052
42.8 0.00013
42.85 0.00002
42.9 0.00038
42.95 0.0008
43 0.0009
43.05 0.00153
43.1 0.00174
43.15 0.00244
43.2 0.00213
43.25 0.00222
43.3 0.00267
43.35 0.0022
43.4 0.00152
43.45 0.00135
43.5 0.00137
43.55 0.00177
43.6 0.00156
43.65 0.00115
43.7 0.00051
43.75 -0.0006
43.8 -0.00175
43.85 -0.00242
43.9 -0.00204
43.95 -0.00128
44 -0.00083
44.05 -0.0004
44.1 -0.00068
44.15 -0.00139
44.2 -0.00149
44.25 -0.00113
44.3 -0.00093
44.35 0.00011
44.4 0.00008
44.45 -0.00049
44.5 -0.00033
44.55 0.00039
44.6 0.00152
44.65 0.00164
44.7 0.0021
44.75 0.00188
44.8 0.00203
44.85 0.00191
44.9 0.00189
44.95 0.00145
45 0.00048
45.05 -0.00046
45.1 -0.00041
45.15 -0.00025
45.2 -0.00083
45.25 -0.00131
45.3 -0.0017
45.35 -0.00126
45.4 -0.00149
45.45 -0.00156
45.5 -0.00085
45.55 -0.00097
45.6 -0.00021
45.65 0.00097
45.7 0.00096
45.75 0.00126
45.8 0.0008
45.85 0.00015
45.9 -0.00098
45.95 -0.00224
46 -0.00292
46.05 -0.00304
46.1 -0.00256
46.15 -0.00166
46.2 -0.00027
46.25 0.00141
46.3 0.00285
46.35 0.00363
46.4 0.00353
46.45 0.00344
46.5 0.00351
46.55 0.00384
46.6 0.00366
46.65 0.00324
46.7 0.00239
46.75 0.00109
46.8 0.00036
46.85 0.00049
46.9 0.00128
46.95 0.00182
47 0.00205
47.05 0.00276
47.1 0.00271
47.15 0.00296
47.2 0.0036
47.25 0.004
47.3 0.00411
47.35 0.0034
47.4 0.00251
47.45 0.00211
47.5 0.00146
47.55 0.00113
47.6 0.00128
47.65 0.00076
47.7 0.00001
47.75 0.00015
47.8 0.00079
47.85 0.00068
47.9 0.00093
47.95 0.00145
48 0.00193
48.05 0.00126
48.1 0.00013
48.15 -0.00029
48.2 -0.00119
48.25 -0.00097
48.3 -0.00012
48.35 -0.00034
48.4 -0.00066
48.45 -0.00036
48.5 0.00031
48.55 0.00114
48.6 0.00171
48.65 0.00211
48.7 0.00178
48.75 0.002
48.8 0.00124
48.85 -0.00002
48.9 -0.00053
48.95 -0.00113
49 -0.00114
49.05 -0.00083
49.1 -0.0009
49.15 -0.00112
49.2 -0.00051
49.25 -0.0002
49.3 -0.00059
49.35 -0.0002
49.4 0.00032
49.45 0.00082
49.5 0.00152
49.55 0.00113
49.6 0.00037
49.65 -0.00058
49.7 -0.00111
49.75 -0.00101
49.8 -0.00167
49.85 -0.00124
49.9 -0.00124
49.95 -0.00052
50 -0.00052
50.05 -0.00036
50.1 -0.00101
50.15 -0.00146
50.2 -0.00205
50.25 -0.00273
50.3 -0.00365
50.35 -0.00352
50.4 -0.00307
50.45 -0.00197
50.5 -0.0007
50.55 0.00016
50.6 0.00026
50.65 -0.00021
50.7 -0.00013
50.75 0.0005
50.8 0.00135
50.85 0.00145
50.9 0.00194
50.95 0.0026
51 0.00214
51.05 0.00196
51.1 0.00204
51.15 0.00245
51.2 0.00197
51.25 0.00123
51.3 0.00133
51.35 0.00171
51.4 0.00221
51.45 0.00239
51.5 0.00197
51.55 0.00143
51.6 0.00133
51.65 0.00163
51.7 0.00173
51.75 0.00166
51.8 0.00126
51.85 0.00034
51.9 -0.00098
51.95 -0.00163
52 -0.00148
52.05 -0.00197
52.1 -0.00291
52.15 -0.00276
52.2 -0.00252
52.25 -0.00159
52.3 -0.00141
52.35 -0.00173
52.4 -0.00139
52.45 -0.00091
52.5 -0.00083
52.55 -0.00069
52.6 0.00014
52.65 0.00119
52.7 0.00179
52.75 0.00242
52.8 0.0027
52.85 0.00184
52.9 0.001
52.95 -0.00019
53 -0.0008
53.05 -0.00163
53.1 -0.00193
53.15 -0.00212
53.2 -0.00227
53.25 -0.00296
53.3 -0.00277
53.35 -0.00189
53.4 -0.00069
53.45 0.00045
53.5 0.00152
53.55 0.00216
53.6 0.00273
53.65 0.00242
53.7 0.00259
53.75 0.00177
53.8 0.00117
53.85 0.00014
53.9 -0.00044
53.95 -0.00105
54 -0.00074
54.05 -0.00049
54.1 0.00016
54.15 0.00114
54.2 0.00155
54.25 0.0013
54.3 0.00158
54.35 0.00194
54.4 0.00225
54.45 0.00193
54.5 0.00097
54.55 -0.00015
54.6 -0.00121
54.65 -0.00144
54.7 -0.00128
54.75 -0.00039
54.8 -0.00049
54.85 -0.00045
54.9 -0.00094
54.95 -0.00073
55 -0.00132
55.05 -0.00111
55.1 -0.00045
55.15 0.00002
55.2 0.00063
55.25 0.00097
55.3 0.00118
55.35 0.00152
55.4 0.00101
55.45 0.00065
55.5 0.00007
55.55 -0.00034
55.6 -0.00032
55.65 -0.00109
55.7 -0.00165
55.75 -0.00192
55.8 -0.00179
55.85 -0.00163
55.9 -0.0021
55.95 -0.00302
56 -0.00379
56.05 -0.00355
56.1 -0.00296
56.15 -0.00239
56.2 -0.00147
56.25 -0.00093
56.3 -0.00001
56.35 0.00007
56.4 0.00049
56.45 0.00003
56.5 -0.00003
56.55 0.00041
56.6 0.00032
56.65 0.0007
56.7 0.0011
56.75 0.00186
56.8 0.00227
56.85 0.00236
56.9 0.00143
56.95 0.00122
57 0.00047
57.05 0.00002
57.1 -0.00009
57.15 0.00054
57.2 0.00135
57.25 0.00234
57.3 0.00328
57.35 0.00339
57.4 0.00256
57.45 0.00162
57.5 0.00033
57.55 0.00003
57.6 -0.00064
57.65 -0.00118
57.7 -0.002
57.75 -0.00256
57.8 -0.00298
57.85 -0.00351
57.9 -0.0043
57.95 -0.00378
58 -0.00285
58.05 -0.0016
58.1 -0.00037
58.15 0.00059
58.2 0.00068
58.25 0.00122
58.3 0.00108
58.35 0.00114
58.4 0.0017
58.45 0.00246
58.5 0.00344
58.55 0.00389
58.6 0.00354
58.65 0.00312
58.7 0.0032
58.75 0.00316
58.8 0.00264
58.85 0.00257
58.9 0.00192
58.95 0.00084
59 -0.00013
59.05 -0.0004
59.1 -0.00093
59.15 -0.00165
59.2 -0.00154
59.25 -0.00171
59.3 -0.00119
59.35 -0.00145
59.4 -0.00225
59.45 -0.00263
59.5 -0.00343
59.55 -0.00304
59.6 -0.00273
59.65 -0.00248
59.7 -0.00286
59.75 -0.00358
59.8 -0.00409
59.85 -0.00481
59.9 -0.00549
59.95 -0.0048
60 -0.0036
60.05 -0.00264
60.1 -0.00187
60.15 -0.0013
60.2 -0.00119
60.25 -0.00146
60.3 -0.001
60.35 -0.00014
60.4 0.00006
60.45 0.00076
60.5 0.00143
60.55 0.00181
60.6 0.00234
60.65 0.00247
60.7 0.00199
60.75 0.00188
60.8 0.00166
60.85 0.00091
60.9 0.00012
60.95 0.00021
61 -0.00003
61.05 0.00047
61.1 0.00116
61.15 0.00216
61.2 0.0026
61.25 0.00211
61.3 0.00149
61.35 0.00033
61.4 0.00013
61.45 -0.00011
61.5 -0.00053
61.55 -0.00092
61.6 -0.00158
61.65 -0.00165
61.7 -0.00172
61.75 -0.00193
61.8 -0.00181
61.85 -0.0014
61.9 -0.00165
61.95 -0.00099
62 -0.00019
62.05 0.00092
62.1 0.00096
62.15 0.00084
62.2 0.0001
62.25 -0.0001
62.3 -0.00025
62.35 0.00028
62.4 0.00079
62.45 0.00112
62.5 0.0009
62.55 0.00022
62.6 -0.0002
62.65 -0.00057
62.7 -0.00131
62.75 -0.00176
62.8 -0.00257
62.85 -0.00221
62.9 -0.00141
62.95 -0.0001
63 0.0004
63.05 0.00084
63.1 0.00078
63.15 0.00044
63.2 0.00052
63.25 -0.00023
63.3 -0.00066
63.35 -0.00146
63.4 -0.00174
63.45 -0.00194
63.5 -0.00265
63.55 -0.00212
63.6 -0.00206
63.65 -0.00161
63.7 -0.00092
63.75 -0.00052
63.8 -0.00004
63.85 0.00026
63.9 -0.00032
63.95 -0.00036
64 -0.00109
64.05 -0.00115
64.1 -0.00073
64.15 0.00003
64.2 0.00054
64.25 0.00114
64.3 0.0021
64.35 0.00251
64.4 0.00199
64.45 0.00202
64.5 0.00169
64.55 0.0014
64.6 0.00077
64.65 -0.00027
64.7 -0.00097
64.75 -0.00112
64.8 -0.0015
64.85 -0.00238
64.9 -0.00285
64.95 -0.00259
65 -0.00201
65.05 -0.00157
65.1 -0.00062
65.15 0.00045
65.2 0.00142
65.25 0.00254
65.3 0.00249
65.35 0.00199
65.4 0.00186
65.45 0.00159
65.5 0.00204
65.55 0.00179
65.6 0.00216
65.65 0.00174
65.7 0.00205
65.75 0.00268
65.8 0.00286
65.85 0.00299
65.9 0.00332
65.95 0.00332
66 0.00277
66.05 0.00142
66.1 0.00082
66.15 0.00002
66.2 -0.00018
66.25 -0.00004
66.3 -0.00076
66.35 -0.00171
66.4 -0.00153
66.45 -0.00194
66.5 -0.00273
66.55 -0.00284
66.6 -0.00257
66.65 -0.00266
66.7 -0.00227
66.75 -0.00168
66.8 -0.00055
66.85 0.00046
66.9 0.00104
66.95 0.00187
67 0.00238
67.05 0.00197
67.1 0.001
67.15 0.00099
67.2 0.00052
67.25 0.00057
67.3 0.0006
67.35 0.0002
67.4 -0.00057
67.45 -0.00104
67.5 -0.00195
67.55 -0.00301
67.6 -0.00417
67.65 -0.00441
67.7 -0.00492
67.75 -0.00572
67.8 -0.0063
67.85 -0.00714
67.9 -0.00765
67.95 -0.00793
68 -0.00771
68.05 -0.00846
68.1 -0.00936
68.15 -0.01022
68.2 -0.01138
68.25 -0.01328
68.3 -0.01559
68.35 -0.0184
68.4 -0.02098
68.45 -0.02504
68.5 -0.03011
68.55 -0.03619
68.6 -0.04249
68.65 -0.04868
68.7 -0.05527
68.75 -0.06323
68.8 -0.07328
68.85 -0.08358
68.9 -0.09528
68.95 -0.10794
69 -0.12302
69.05 -0.1393
69.1 -0.15614
69.15 -0.17385
69.2 -0.19311
69.25 -0.21451
69.3 -0.23656
69.35 -0.25998
69.4 -0.28485
69.45 -0.30939
69.5 -0.33362
69.55 -0.35794
69.6 -0.38166
69.65 -0.40494
69.7 -0.42794
69.75 -0.45034
69.8 -0.47036
69.85 -0.48888
69.9 -0.50457
69.95 -0.51657
70 -0.52566
70.05 -0.53005
70.1 -0.53011
70.15 -0.52674
70.2 -0.5191
70.25 -0.50722
70.3 -0.49222
70.35 -0.47298
70.4 -0.44907
70.45 -0.42146
70.5 -0.39141
70.55 -0.35762
70.6 -0.32069
70.65 -0.28135
70.7 -0.24011
70.75 -0.19874
70.8 -0.15627
70.85 -0.11346
70.9 -0.07152
70.95 -0.02995
71 0.01018
71.05 0.04897
71.1 0.08482
71.15 0.11842
71.2 0.15018
71.25 0.17924
71.3 0.20591
71.35 0.23048
71.4 0.25279
71.45 0.2721
71.5 0.2884
71.55 0.30163
71.6 0.31278
71.65 0.32194
71.7 0.32938
71.75 0.33491
71.8 0.33904
71.85 0.34261
71.9 0.34533
71.95 0.34685
72 0.34751
72.05 0.34699
72.1 0.34699
72.15 0.34625
72.2 0.34572
72.25 0.34497
72.3 0.34371
72.35 0.34162
72.4 0.3398
72.45 0.33751
72.5 0.33496
72.55 0.33319
72.6 0.33103
72.65 0.32917
72.7 0.32743
72.75 0.32492
72.8 0.3221
72.85 0.3189
72.9 0.31539
72.95 0.31271
73 0.30956
73.05 0.30655
73.1 0.30347
73.15 0.30066
73.2 0.29689
73.25 0.29279
73.3 0.28761
73.35 0.28307
73.4 0.27875
73.45 0.27442
73.5 0.26895
73.55 0.26413
73.6 0.25948
73.65 0.25368
73.7 0.24855
73.75 0.24356
73.8 0.23777
73.85 0.23138
73.9 0.2256
73.95 0.2201
74 0.21373
74.05 0.20631
74.1 0.19944
74.15 0.19302
74.2 0.18628
74.25 0.17887
74.3 0.17198
74.35 0.16558
74.4 0.15851
74.45 0.15092
74.5 0.14447
74.55 0.13821
74.6 0.13202
74.65 0.12558
74.7 0.11905
74.75 0.11257
74.8 0.1068
74.85 0.10146
74.9 0.09623
74.95 0.0911
75 0.08522
75.05 0.07981
75.1 0.074
75.15 0.06742
75.2 0.06165
75.25 0.05597
75.3 0.04943
75.35 0.04287
75.4 0.03701
75.45 0.03134
75.5 0.02676
75.55 0.02227
75.6 0.01763
75.65 0.01252
75.7 0.00804
75.75 0.00424
75.8 0.00098
75.85 -0.00162
75.9 -0.00455
75.95 -0.00759
76 -0.01057
76.05 -0.01354
76.1 -0.01641
76.15 -0.01876
76.2 -0.02199
76.25 -0.02548
76.3 -0.02873
76.35 -0.03131
76.4 -0.03374
76.45 -0.03574
76.5 -0.03784
76.55 -0.03942
76.6 -0.04201
76.65 -0.04491
76.7 -0.04713
76.75 -0.04925
76.8 -0.05113
76.85 -0.05326
76.9 -0.05496
76.95 -0.05578
77 -0.05574
77.05 -0.05542
77.1 -0.0561
77.15 -0.05753
77.2 -0.05878
77.25 -0.05898
77.3 -0.06002
77.35 -0.06091
77.4 -0.06181
77.45 -0.06164
77.5 -0.06076
77.55 -0.06062
77.6 -0.05986
77.65 -0.05905
77.7 -0.05793
77.75 -0.05769
77.8 -0.05719
77.85 -0.05698
77.9 -0.0573
77.95 -0.05792
78 -0.05882
78.05 -0.05921
78.1 -0.0596
78.15 -0.05943
78.2 -0.05963
78.25 -0.05905
78.3 -0.05917
78.35 -0.05815
78.4 -0.05782
78.45 -0.05805
78.5 -0.05832
78.55 -0.05761
78.6 -0.05737
78.65 -0.05745
78.7 -0.0562
78.75 -0.05456
78.8 -0.05249
78.85 -0.05115
78.9 -0.04958
78.95 -0.04801
79 -0.04749
79.05 -0.0464
79.1 -0.04577
79.15 -0.04592
79.2 -0.04591
79.25 -0.04553
79.3 -0.04508
79.35 -0.04379
79.4 -0.04313
79.45 -0.04262
79.5 -0.04237
79.55 -0.04209
79.6 -0.04196
79.65 -0.04225
79.7 -0.04277
79.75 -0.04283
79.8 -0.04294
79.85 -0.04249
79.9 -0.04126
79.95 -0.03993
80 -0.03819
80.05 -0.03719
80.1 -0.03643
80.15 -0.03505
80.2 -0.03369
80.25 -0.03324
80.3 -0.03283
80.35 -0.03172
80.4 -0.03047
80.45 -0.02914
80.5 -0.02867
80.55 -0.02789
80.6 -0.02707
80.65 -0.02679
80.7 -0.02676
80.75 -0.02723
80.8 -0.02772
80.85 -0.02806
80.9 -0.02843
80.95 -0.02821
81 -0.02799
81.05 -0.02783
81.1 -0.02758
81.15 -0.02702
81.2 -0.02716
81.25 -0.0274
81.3 -0.02666
81.35 -0.02577
81.4 -0.02452
81.45 -0.02402
81.5 -0.02359
81.55 -0.02387
81.6 -0.02305
81.65 -0.02263
81.7 -0.02287
81.75 -0.02294
81.8 -0.02319
81.85 -0.02291
81.9 -0.0226
81.95 -0.02259
82 -0.02271
82.05 -0.02227
82.1 -0.02158
82.15 -0.02142
82.2 -0.02166
82.25 -0.02069
82.3 -0.02003
82.35 -0.0198
82.4 -0.01971
82.45 -0.01861
82.5 -0.01776
82.55 -0.01642
82.6 -0.01614
82.65 -0.01616
82.7 -0.01673
82.75 -0.01714
82.8 -0.01681
82.85 -0.01576
82.9 -0.01468
82.95 -0.01391
83 -0.01396
83.05 -0.01332
83.1 -0.01314
83.15 -0.01323
83.2 -0.01313
83.25 -0.01276
83.3 -0.01277
83.35 -0.01325
83.4 -0.01385
83.45 -0.01452
83.5 -0.01424
83.55 -0.01381
83.6 -0.01305
83.65 -0.01224
83.7 -0.01166
83.75 -0.01071
83.8 -0.00965
83.85 -0.00883
83.9 -0.00856
83.95 -0.00914
84 -0.00934
84.05 -0.00994
84.1 -0.00944
84.15 -0.00859
84.2 -0.00845
84.25 -0.00786
84.3 -0.00708
84.35 -0.00624
84.4 -0.0063
84.45 -0.00724
84.5 -0.00823
84.55 -0.00882
84.6 -0.00916
84.65 -0.00852
84.7 -0.00821
84.75 -0.00728
84.8 -0.00666
84.85 -0.00597
84.9 -0.00612
84.95 -0.00563
85 -0.00569
85.05 -0.0053
85.1 -0.00531
85.15 -0.0051
85.2 -0.00445
85.25 -0.00436
85.3 -0.00446
85.35 -0.0043
85.4 -0.00506
85.45 -0.00486
85.5 -0.00478
85.55 -0.0056
85.6 -0.00633
85.65 -0.00656
85.7 -0.00609
85.75 -0.00596
85.8 -0.0055
85.85 -0.00532
85.9 -0.00565
85.95 -0.00598
86 -0.0064
86.05 -0.00702
86.1 -0.00697
86.15 -0.00689
86.2 -0.00629
86.25 -0.00515
86.3 -0.00474
86.35 -0.00369
86.4 -0.00323
86.45 -0.00376
86.5 -0.00358
86.55 -0.00393
86.6 -0.00448
86.65 -0.00488
86.7 -0.00558
86.75 -0.00536
86.8 -0.00583
86.85 -0.00611
86.9 -0.00587
86.95 -0.00581
87 -0.00536
87.05 -0.00483
87.1 -0.005
87.15 -0.00452
87.2 -0.0037
87.25 -0.00318
87.3 -0.0022
87.35 -0.00179
87.4 -0.00153
87.45 -0.00083
87.5 0.00003
87.55 0.00078
87.6 0.00038
87.65 -0.00081
87.7 -0.00222
87.75 -0.00244
87.8 -0.00204
87.85 -0.00124
87.9 -0.00014
87.95 0.00042
88 0.00073
88.05 0.0013
88.1 0.00156
88.15 0.00086
88.2 -0.0001
88.25 -0.00026
88.3 -0.00039
88.35 -0.00074
88.4 -0.00106
88.45 -0.00095
88.5 -0.00152
88.55 -0.00185
88.6 -0.00177
88.65 -0.00134
88.7 -0.00114
88.75 -0.00108
88.8 -0.0015
88.85 -0.00227
88.9 -0.00303
88.95 -0.00388
89 -0.00462
89.05 -0.00543
89.1 -0.0055
89.15 -0.00452
89.2 -0.00414
89.25 -0.00401
89.3 -0.00379
89.35 -0.00319
89.4 -0.0024
89.45 -0.00116
89.5 -0.00123
89.55 -0.00208
89.6 -0.0031
89.65 -0.00313
89.7 -0.00269
89.75 -0.00231
89.8 -0.00149
89.85 -0.00082
89.9 -0.00122
89.95 -0.00133
90 -0.00218
90.05 -0.00309
90.1 -0.00385
90.15 -0.00358
90.2 -0.00319
90.25 -0.00348
90.3 -0.00429
90.35 -0.00514
90.4 -0.00595
90.45 -0.00589
90.5 -0.00547
90.55 -0.0049
90.6 -0.00498
90.65 -0.00536
90.7 -0.00578
90.75 -0.00514
90.8 -0.00423
90.85 -0.00293
90.9 -0.00213
90.95 -0.00216
91 -0.00284
91.05 -0.00353
91.1 -0.00332
91.15 -0.00226
91.2 -0.0014
91.25 -0.00057
91.3 0.0004
91.35 0.0004
91.4 0.00104
91.45 0.0018
91.5 0.00203
91.55 0.00254
91.6 0.003
91.65 0.00315
91.7 0.00291
91.75 0.00219
91.8 0.00211
91.85 0.00172
91.9 0.0012
91.95 0.0004
92 -0.00002
92.05 -0.00042
92.1 -0.00089
92.15 -0.00052
92.2 0.00026
92.25 0.00121
92.3 0.00212
92.35 0.00261
92.4 0.00195
92.45 0.00182
92.5 0.00071
92.55 0.0003
92.6 0.00021
92.65 -0.00001
92.7 -0.00091
92.75 -0.00078
92.8 -0.00014
92.85 0.00018
92.9 -0.00043
92.95 -0.00047
93 0.00018
93.05 0.00077
93.1 0.00072
93.15 0.00063
93.2 0.00089
93.25 0.00164
93.3 0.00185
93.35 0.00105
93.4 -0.00004
93.45 -0.0003
93.5 0.00014
93.55 0.00017
93.6 -0.00041
93.65 -0.00137
93.7 -0.00221
93.75 -0.00329
93.8 -0.00333
93.85 -0.00327
93.9 -0.00279
93.95 -0.00288
94 -0.00352
94.05 -0.00435
94.1 -0.00467
94.15 -0.00483
94.2 -0.00469
94.25 -0.00355
94.3 -0.00311
94.35 -0.00324
94.4 -0.003
94.45 -0.00225
94.5 -0.00138
94.55 -0.0005
94.6 0.00007
94.65 0.00026
94.7 0.00096
94.75 0.00121
94.8 0.00085
94.85 0.00116
94.9 0.00091
94.95 0.00025
95 0.00009
95.05 0.00006
95.1 0.00056
95.15 0.00045
95.2 0.00001
95.25 -0.00067
95.3 -0.00049
95.35 -0.00037
95.4 -0.00027
95.45 -0.00056
95.5 -0.00033
95.55 0.00038
95.6 0.00023
95.65 -0.00041
95.7 -0.00115
95.75 -0.00092
95.8 -0.0008
95.85 -0.00084
95.9 -0.00047
95.95 -0.00058
96 -0.00014
96.05 -0.00059
96.1 -0.00151
96.15 -0.00269
96.2 -0.00372
96.25 -0.00412
96.3 -0.00417
96.35 -0.00391
96.4 -0.00303
96.45 -0.00152
96.5 -0.00025
96.55 0.00077
96.6 0.00143
96.65 0.00237
96.7 0.0035
96.75 0.00366
96.8 0.00406
96.85 0.00353
96.9 0.00348
96.95 0.00324
97 0.00321
97.05 0.0026
97.1 0.00233
97.15 0.00149
97.2 0.00112
97.25 0
97.3 -0.00053
97.35 -0.00081
97.4 -0.00097
97.45 -0.00127
97.5 -0.00171
97.55 -0.00112
97.6 -0.0005
97.65 0.00058
97.7 0.00186
97.75 0.00228
97.8 0.00223
97.85 0.00167
97.9 0.00052
97.95 0.00018
98 -0.00057
98.05 -0.00116
98.1 -0.00183
98.15 -0.00254
98.2 -0.00228
98.25 -0.00271
98.3 -0.0032
98.35 -0.00257
98.4 -0.00149
98.45 -0.00066
98.5 0.00063
98.55 0.00157
98.6 0.00235
98.65 0.0021
98.7 0.00187
98.75 0.00143
98.8 0.00142
98.85 0.00061
98.9 -0.00025
98.95 -0.00118
99 -0.00225
99.05 -0.0025
99.1 -0.00201
99.15 -0.00174
99.2 -0.00073
99.25 -0.00017
99.3 -0.00062
99.35 -0.00024
99.4 0.00026
99.45 -0.00011
99.5 0
99.55 -0.00043
99.6 -0.00023
99.65 -0.00027
99.7 -0.00077
99.75 -0.00122
99.8 -0.00169
99.85 -0.00237
99.9 -0.00326
99.95 -0.00428
