0 0
0.05 0.00077
0.1 0.00205
0.15 0.00378
0.2 0.0056
0.25 0.00694
0.3 0.00731
0.35 0.00759
0.4 0.00739
0.45 0.00726
0.5 0.00652
0.55 0.00628
0.6 0.00588
0.65 0.00553
0.7 0.00583
0.75 0.00598
0.8 0.00643
0.85 0.00624
0.9 0.00554
0.95 0.00484
1 0.00478
1.05 0.00449
1.1 0.00455
1.15 0.00463
1.2 0.00419
1.25 0.0041
1.3 0.00398
1.35 0.00413
1.4 0.00379
1.45 0.00383
1.5 0.00369
1.55 0.00378
1.6 0.0044
1.65 0.00479
1.7 0.0045
1.75 0.00423
1.8 0.00391
1.85 0.00339
1.9 0.00274
1.95 0.00262
2 0.0029
2.05 0.00369
2.1 0.00393
2.15 0.00459
2.2 0.00479
2.25 0.00428
2.3 0.00396
2.35 0.00417
2.4 0.00425
2.45 0.00378
2.5 0.00364
2.55 0.00347
2.6 0.00331
2.65 0.0031
2.7 0.00272
2.75 0.00258
2.8 0.00199
2.85 0.00191
2.9 0.00185
2.95 0.00143
3 0.00119
3.05 0.00176
3.1 0.00165
3.15 0.002
3.2 0.00286
3.25 0.00384
3.3 0.00401
3.35 0.00443
3.4 0.00511
3.45 0.00535
3.5 0.00583
3.55 0.00596
3.6 0.00593
3.65 0.00522
3.7 0.00446
3.75 0.00339
3.8 0.00282
3.85 0.00283
3.9 0.00261
3.95 0.00279
4 0.00328
4.05 0.00366
4.1 0.00435
4.15 0.00478
4.2 0.00432
4.25 0.00358
4.3 0.00311
4.35 0.00218
4.4 0.00127
4.45 0.00104
4.5 0.00099
4.55 0.00137
4.6 0.00179
4.65 0.00224
4.7 0.00259
4.75 0.0022
4.8 0.00169
4.85 0.00168
4.9 0.00202
4.95 0.00184
5 0.00225
5.05 0.00234
5.1 0.00261
5.15 0.00251
5.2 0.00177
5.25 0.00126
5.3 0.00069
5.35 0.00014
5.4 -0.00069
5.45 -0.00111
5.5 -0.00146
5.55 -0.0012
5.6 -0.00047
5.65 0.00036
5.7 0.00135
5.75 0.00219
5.8 0.00255
5.85 0.00218
5.9 0.00236
5.95 0.00294
6 0.00283
6.05 0.00255
6.1 0.00228
6.15 0.00227
6.2 0.00187
6.25 0.002
6.3 0.00224
6.35 0.00177
6.4 0.00152
6.45 0.0013
6.5 0.00147
6.55 0.00192
6.6 0.00241
6.65 0.00206
6.7 0.00179
6.75 0.00174
6.8 0.0014
6.85 0.00056
6.9 -0.00007
6.95 -0.00072
7 -0.00079
7.05 -0.00072
7.1 -0.00017
7.15 0.00034
7.2 0.00097
7.25 0.00162
7.3 0.00232
7.35 0.00237
7.4 0.00255
7.45 0.00285
7.5 0.00305
7.55 0.00296
7.6 0.00221
7.65 0.00207
7.7 0.00174
7.75 0.00137
7.8 0.00136
7.85 0.0008
7.9 0.00072
7.95 0.00039
8 0.00003
8.05 -0.00071
8.1 -0.00157
8.15 -0.00165
8.2 -0.00109
8.25 -0.0001
8.3 0.00062
8.35 0.00145
8.4 0.00159
8.45 0.00099
8.5 0.00067
8.55 -0.00016
8.6 -0.00017
8.65 -0.00071
8.7 -0.00051
8.75 -0.00033
8.8 0.00016
8.85 -0.00005
8.9 -0.00036
8.95 -0.00068
9 -0.00083
9.05 -0.0008
9.1 -0.00066
9.15 -0.0005
9.2 -0.00075
9.25 -0.00031
9.3 0.00024
9.35 0.00011
9.4 0.00022
9.45 -0.00011
9.5 -0.00074
9.55 -0.00114
9.6 -0.00089
9.65 -0.00112
9.7 -0.00154
9.75 -0.00185
9.8 -0.00209
9.85 -0.00149
9.9 -0.001
9.95 -0.00033
10 0.00048
10.05 0.00108
10.1 0.00147
10.15 0.00133
10.2 0.00089
10.25 0.00009
10.3 -0.00074
10.35 -0.00109
10.4 -0.00074
10.45 -0.00078
10.5 -0.00098
10.55 -0.00139
10.6 -0.00205
10.65 -0.0021
10.7 -0.00198
10.75 -0.00209
10.8 -0.00223
10.85 -0.00249
10.9 -0.00241
10.95 -0.0024
11 -0.00197
11.05 -0.00183
11.1 -0.00151
11.15 -0.00079
11.2 -0.00019
11.25 0.00081
11.3 0.00141
11.35 0.00124
11.4 0.0005
11.45 -0.00034
11.5 -0.00104
11.55 -0.00185
11.6 -0.00252
11.65 -0.00267
11.7 -0.00219
11.75 -0.00109
11.8 0
11.85 0.0007
11.9 0.00134
11.95 0.00115
12 0.00081
12.05 0.00075
12.1 0.00061
12.15 0.00093
12.2 0.00061
12.25 0.00035
12.3 -0.00036
12.35 -0.00129
12.4 -0.00142
12.45 -0.00122
12.5 -0.0014
12.55 -0.00132
12.6 -0.00153
12.65 -0.00165
12.7 -0.00122
12.75 -0.0013
12.8 -0.00093
12.85 -0.00113
12.9 -0.00121
12.95 -0.00053
13 0.00022
13.05 0.00028
13.1 0.00016
13.15 -0.00024
13.2 -0.00031
13.25 -0.00032
13.3 -0.00021
13.35 -0.00016
13.4 0.00001
13.45 0.00033
13.5 0.00053
13.55 0.00076
13.6 0.00105
13.65 0.00145
13.7 0.00194
13.75 0.00184
13.8 0.00211
13.85 0.00162
13.9 0.00072
13.95 -0.00043
14 -0.00116
14.05 -0.00164
14.1 -0.0014
14.15 -0.00058
14.2 0.00055
14.25 0.00084
14.3 0.00112
14.35 0.0011
14.4 0.00108
14.45 0.00059
14.5 -0.00002
14.55 -0.00012
14.6 0.0002
14.65 0.00011
14.7 0.00001
14.75 0.00003
14.8 0.00015
14.85 -0.00002
14.9 -0.00005
14.95 -0.00017
15 0.00017
15.05 0.00008
15.1 0.00027
15.15 -0.00015
15.2 -0.00068
15.25 -0.00052
15.3 -0.00066
15.35 -0.00026
15.4 0.00056
15.45 0.00102
15.5 0.00128
15.55 0.00195
15.6 0.00273
15.65 0.00326
15.7 0.00368
15.75 0.00406
15.8 0.00366
15.85 0.00318
15.9 0.0031
15.95 0.00274
16 0.00252
16.05 0.00232
16.1 0.00212
16.15 0.00165
16.2 0.00165
16.25 0.00166
16.3 0.00139
16.35 0.00164
16.4 0.00123
16.45 0.00106
16.5 0.00063
16.55 0.00038
16.6 0.00059
16.65 0.00051
16.7 -0.00005
16.75 -0.00087
16.8 -0.00185
16.85 -0.00178
16.9 -0.00138
16.95 -0.00152
17 -0.00099
17.05 -0.00014
17.1 0.0004
17.15 0.00047
17.2 0.00011
17.25 -0.00041
17.3 -0.0008
17.35 -0.00154
17.4 -0.00158
17.45 -0.00187
17.5 -0.00231
17.55 -0.00285
17.6 -0.00305
17.65 -0.00323
17.7 -0.0026
17.75 -0.0021
17.8 -0.0021
17.85 -0.0024
17.9 -0.00208
17.95 -0.00114
18 0.00011
18.05 0.00048
18.1 0.00044
18.15 0.00031
18.2 -0.00011
18.25 -0.00011
18.3 -0.00033
18.35 -0.00015
18.4 0.00043
18.45 0.00048
18.5 0.00004
18.55 0.00027
18.6 0.00085
18.65 0.00105
18.7 0.00138
18.75 0.00194
18.8 0.00205
18.85 0.00208
18.9 0.00242
18.95 0.00186
19 0.00118
19.05 0.00072
19.1 0.00094
19.15 0.00049
19.2 0.00007
19.25 -0.0002
19.3 -0.00068
19.35 -0.00071
19.4 -0.00029
19.45 -0.00039
19.5 -0.00009
19.55 -0.00039
19.6 -0.00029
19.65 0.00029
19.7 0.00093
19.75 0.00177
19.8 0.00234
19.85 0.00207
19.9 0.002
19.95 0.00133
20 0.00137
20.05 0.00179
20.1 0.00134
20.15 0.00094
20.2 0.00056
20.25 0.00056
20.3 -0.00001
20.35 -0.00066
20.4 -0.0005
20.45 0.00005
20.5 0.00078
20.55 0.00129
20.6 0.00156
20.65 0.00206
20.7 0.00186
20.75 0.00192
20.8 0.00166
20.85 0.00106
20.9 0.00052
20.95 0.00061
21 0.00002
21.05 -0
21.1 0.0001
21.15 0.00065
21.2 0.00127
21.25 0.00161
21.3 0.00155
21.35 0.00186
21.4 0.00195
21.45 0.00163
21.5 0.00133
21.55 0.00112
21.6 0.00073
21.65 0.00062
21.7 0.00011
21.75 -0.00051
21.8 -0.00054
21.85 -0.00058
21.9 -0.00073
21.95 -0.0013
22 -0.00129
22.05 -0.0008
22.1 -0.00066
22.15 -0.00017
22.2 0.00035
22.25 0.00005
22.3 0.00035
22.35 0.00105
22.4 0.00153
22.45 0.00172
22.5 0.00169
22.55 0.00135
22.6 0.00061
22.65 -0.00055
22.7 -0.00074
22.75 -0.00126
22.8 -0.00173
22.85 -0.00192
22.9 -0.00146
22.95 -0.00095
23 -0.00064
23.05 -0.00065
23.1 -0.00093
23.15 -0.00107
23.2 -0.00069
23.25 0.00012
23.3 0.00072
23.35 0.00074
23.4 0.00036
23.45 -0.00024
23.5 -0.00037
23.55 -0.00017
23.6 0.00034
23.65 0.00037
23.7 0.00009
23.75 0.00031
23.8 -0.00018
23.85 -0.00065
23.9 -0.00145
23.95 -0.00155
24 -0.00116
24.05 -0.00073
24.1 -0.00099
24.15 -0.00092
24.2 -0.00135
24.25 -0.00128
24.3 -0.00114
24.35 -0.00082
24.4 -0.00092
24.45 -0.00047
24.5 0.00009
24.55 -0.0001
24.6 0.00028
24.65 0.00094
24.7 0.00147
24.75 0.00113
24.8 0.00079
24.85 0.00057
24.9 0.00056
24.95 0.00042
25 0.00038
25.05 0.0002
25.1 0.00013
25.15 -0.00012
25.2 -0.00069
25.25 -0.00121
25.3 -0.00099
25.35 -0.00075
25.4 -0.00094
25.45 -0.00084
25.5 -0.00045
25.55 -0.00004
25.6 -0.00018
25.65 -0.00066
25.7 -0.00035
25.75 0.00028
25.8 0.00044
25.85 0.00012
25.9 -0.00046
25.95 -0.00115
26 -0.00134
26.05 -0.00109
26.1 -0.00098
26.15 -0.00097
26.2 -0.00072
26.25 -0.00094
26.3 -0.00108
26.35 -0.0006
26.4 -0.00019
26.45 0.00051
26.5 0.00101
26.55 0.00145
26.6 0.00155
26.65 0.00201
26.7 0.00219
26.75 0.00255
26.8 0.00266
26.85 0.00218
26.9 0.00149
26.95 0.0012
27 0.00142
27.05 0.00108
27.1 0.00083
27.15 0.00038
27.2 0.0005
27.25 0.00014
27.3 -0.0007
27.35 -0.00166
27.4 -0.00191
27.45 -0.00207
27.5 -0.00226
27.55 -0.0024
27.6 -0.00191
27.65 -0.00166
27.7 -0.001
27.75 -0.00011
27.8 0.00075
27.85 0.00107
27.9 0.00095
27.95 0.00117
28 0.00097
28.05 0.00106
28.1 0.00062
28.15 0.00052
28.2 0.00092
28.25 0.00108
28.3 0.00074
28.35 0.00053
28.4 0.00017
28.45 -0.00015
28.5 0.00009
28.55 0.00015
28.6 -0.00012
28.65 -0.00061
28.7 -0.00078
28.75 -0.00115
28.8 -0.00102
28.85 -0.00097
28.9 -0.00073
28.95 -0.00107
29 -0.00157
29.05 -0.00152
29.1 -0.00092
29.15 -0.00072
29.2 -0.00013
29.25 0.00067
29.3 0.00163
29.35 0.00185
29.4 0.00174
29.45 0.00189
29.5 0.00147
29.55 0.00089
29.6 0.00031
29.65 -0.00041
29.7 -0.00057
29.75 -0.00084
29.8 -0.00089
29.85 -0.0006
29.9 -0.00077
29.95 -0.0006
30 -0.00048
30.05 0.00006
30.1 -0.00012
30.15 -0.00006
30.2 -0.00029
30.25 -0.00014
30.3 0.00023
30.35 0.00065
30.4 0.00126
30.45 0.00175
30.5 0.00215
30.55 0.00254
30.6 0.00263
30.65 0.003
30.7 0.0032
30.75 0.00274
30.8 0.00264
30.85 0.00205
30.9 0.00156
30.95 0.00161
31 0.00177
31.05 0.00154
31.1 0.00068
31.15 -0.00052
31.2 -0.0015
31.25 -0.00264
31.3 -0.00342
31.35 -0.00425
31.4 -0.00464
31.45 -0.00405
31.5 -0.00344
31.55 -0.00294
31.6 -0.00224
31.65 -0.00191
31.7 -0.00172
31.75 -0.00122
31.8 -0.00142
31.85 -0.00202
31.9 -0.00219
31.95 -0.00181
32 -0.00091
32.05 -0.00069
32.1 -0.00048
32.15 -0.00081
32.2 -0.00126
32.25 -0.00125
32.3 -0.00057
32.35 -0.00055
32.4 -0.00032
32.45 -0.00025
32.5 -0.00001
32.55 -0.00008
32.6 0.00024
32.65 0.00062
32.7 0.00041
32.75 0.00058
32.8 0.00016
32.85 -0.00018
32.9 -0.00095
32.95 -0.00119
33 -0.00149
33.05 -0.0012
33.1 -0.00143
33.15 -0.00104
33.2 -0.00104
33.25 -0.00137
33.3 -0.00124
33.35 -0.00156
33.4 -0.00123
33.45 -0.00119
33.5 -0.00164
33.55 -0.00193
33.6 -0.00177
33.65 -0.00124
33.7 -0.0007
33.75 -0.00005
33.8 -0
33.85 -0.00014
33.9 0.00013
33.95 -0.00023
34 -0.00099
34.05 -0.00151
34.1 -0.0017
34.15 -0.00185
34.2 -0.00129
34.25 -0.00109
34.3 -0.00052
34.35 -0.00008
34.4 0.00004
34.45 0.00058
34.5 0.00142
34.55 0.00185
34.6 0.00254
34.65 0.00306
34.7 0.0037
34.75 0.00418
34.8 0.00427
34.85 0.00414
34.9 0.00391
34.95 0.00385
35 0.00377
35.05 0.00348
35.1 0.00332
35.15 0.00272
35.2 0.00161
35.25 0.00033
35.3 -0.00099
35.35 -0.00233
35.4 -0.00326
35.45 -0.00373
35.5 -0.00385
35.55 -0.00337
35.6 -0.00336
35.65 -0.00341
35.7 -0.00318
35.75 -0.00222
35.8 -0.00161
35.85 -0.00138
35.9 -0.00071
35.95 0.00023
36 0.00079
36.05 0.00152
36.1 0.00231
36.15 0.00272
36.2 0.00269
36.25 0.00297
36.3 0.00236
36.35 0.00141
36.4 0.00104
36.45 0.00115
36.5 0.00141
36.55 0.00109
36.6 0.00057
36.65 -0.00033
36.7 -0.00073
36.75 -0.00153
36.8 -0.00144
36.85 -0.00087
36.9 -0.00029
36.95 -0.00045
37 -0.00008
37.05 -0.00036
37.1 -0.00089
37.15 -0.00118
37.2 -0.00178
37.25 -0.00175
37.3 -0.00214
37.35 -0.00185
37.4 -0.00195
37.45 -0.00232
37.5 -0.00285
37.55 -0.00284
37.6 -0.00285
37.65 -0.0031
37.7 -0.00274
37.75 -0.00271
37.8 -0.00243
37.85 -0.00238
37.9 -0.00207
37.95 -0.00225
38 -0.00252
38.05 -0.00254
38.1 -0.00199
38.15 -0.0015
38.2 -0.00134
38.25 -0.00147
38.3 -0.00202
38.35 -0.00181
38.4 -0.00208
38.45 -0.00249
38.5 -0.00259
38.55 -0.00292
38.6 -0.00338
38.65 -0.00383
38.7 -0.0046
38.75 -0.00606
38.8 -0.00778
38.85 -0.00929
38.9 -0.01082
38.95 -0.01316
39 -0.01602
39.05 -0.01885
39.1 -0.02222
39.15 -0.02574
39.2 -0.02961
39.25 -0.03457
39.3 -0.03975
39.35 -0.04578
39.4 -0.052
39.45 -0.05906
39.5 -0.06701
39.55 -0.07609
39.6 -0.08625
39.65 -0.09695
39.7 -0.10872
39.75 -0.12152
39.8 -0.13595
39.85 -0.15108
39.9 -0.16746
39.95 -0.18396
40 -0.20067
40.05 -0.21774
40.1 -0.23605
40.15 -0.25399
40.2 -0.27162
40.25 -0.28879
40.3 -0.30554
40.35 -0.32206
40.4 -0.3378
40.45 -0.35144
40.5 -0.36386
40.55 -0.37391
40.6 -0.38185
40.65 -0.38788
40.7 -0.39078
40.75 -0.39054
40.8 -0.38781
40.85 -0.38192
40.9 -0.3732
40.95 -0.36135
41 -0.34678
41.05 -0.32876
41.1 -0.3082
41.15 -0.28481
41.2 -0.25933
41.25 -0.23196
41.3 -0.20288
41.35 -0.1723
41.4 -0.14116
41.45 -0.11023
41.5 -0.07954
41.55 -0.04916
41.6 -0.0187
41.65 0.01155
41.7 0.04082
41.75 0.06784
41.8 0.09289
41.85 0.11658
41.9 0.13797
41.95 0.15809
42 0.17666
42.05 0.19324
42.1 0.20807
42.15 0.22041
42.2 0.23129
42.25 0.23996
42.3 0.24684
42.35 0.25296
42.4 0.25782
42.45 0.26226
42.5 0.26529
42.55 0.26838
42.6 0.27077
42.65 0.27227
42.7 0.27368
42.75 0.27448
42.8 0.27578
42.85 0.27693
42.9 0.2776
42.95 0.27806
43 0.27862
43.05 0.27853
43.1 0.27786
43.15 0.27779
43.2 0.27746
43.25 0.27718
43.3 0.27594
43.35 0.27469
43.4 0.27304
43.45 0.27042
43.5 0.26703
43.55 0.26288
43.6 0.25858
43.65 0.25375
43.7 0.24874
43.75 0.24361
43.8 0.23812
43.85 0.23194
43.9 0.2258
43.95 0.21882
44 0.21109
44.05 0.20356
44.1 0.19661
44.15 0.18915
44.2 0.18198
44.25 0.17487
44.3 0.16786
44.35 0.16087
44.4 0.15449
44.45 0.14808
44.5 0.14243
44.55 0.13726
44.6 0.13208
44.65 0.12646
44.7 0.12067
44.75 0.11585
44.8 0.11154
44.85 0.10737
44.9 0.10317
44.95 0.09899
45 0.09527
45.05 0.09158
45.1 0.08808
45.15 0.08392
45.2 0.07979
45.25 0.07556
45.3 0.07129
45.35 0.06791
45.4 0.0645
45.45 0.06122
45.5 0.05843
45.55 0.05505
45.6 0.05231
45.65 0.04956
45.7 0.04665
45.75 0.04303
45.8 0.03988
45.85 0.03715
45.9 0.03365
45.95 0.03038
46 0.02694
46.05 0.0231
46.1 0.01997
46.15 0.01707
46.2 0.01415
46.25 0.01164
46.3 0.00903
46.35 0.00677
46.4 0.00489
46.45 0.00284
46.5 0.00069
46.55 -0.00128
46.6 -0.00391
46.65 -0.00618
46.7 -0.00838
46.75 -0.01118
46.8 -0.01447
46.85 -0.01701
46.9 -0.01886
46.95 -0.02049
47 -0.02183
47.05 -0.02396
47.1 -0.02651
47.15 -0.02812
47.2 -0.02911
47.25 -0.03068
47.3 -0.03171
47.35 -0.03238
47.4 -0.03302
47.45 -0.03368
47.5 -0.03519
47.55 -0.03606
47.6 -0.03743
47.65 -0.0388
47.7 -0.03975
47.75 -0.04101
47.8 -0.042
47.85 -0.0427
47.9 -0.0427
47.95 -0.0424
48 -0.04206
48.05 -0.04197
48.1 -0.04268
48.15 -0.04275
48.2 -0.04349
48.25 -0.04425
48.3 -0.04509
48.35 -0.04543
48.4 -0.04566
48.45 -0.04606
48.5 -0.04557
48.55 -0.04518
48.6 -0.04417
48.65 -0.04315
48.7 -0.04205
48.75 -0.04147
48.8 -0.04156
48.85 -0.04179
48.9 -0.04177
48.95 -0.04196
49 -0.04221
49.05 -0.04241
49.1 -0.04267
49.15 -0.04276
49.2 -0.04272
49.25 -0.04241
49.3 -0.04164
49.35 -0.04125
49.4 -0.04037
49.45 -0.0392
49.5 -0.03842
49.55 -0.03702
49.6 -0.03575
49.65 -0.03487
49.7 -0.03377
49.75 -0.03312
49.8 -0.0321
49.85 -0.03113
49.9 -0.0301
49.95 -0.02944
50 -0.0295
50.05 -0.03007
50.1 -0.03061
50.15 -0.03108
50.2 -0.03169
50.25 -0.03149
50.3 -0.03103
50.35 -0.03026
50.4 -0.02947
50.45 -0.02843
50.5 -0.02742
50.55 -0.02646
50.6 -0.02553
50.65 -0.02446
50.7 -0.0243
50.75 -0.02401
50.8 -0.02438
50.85 -0.02497
50.9 -0.02492
50.95 -0.0249
51 -0.02474
51.05 -0.02412
51.1 -0.02321
51.15 -0.02295
51.2 -0.02289
51.25 -0.02243
51.3 -0.02144
51.35 -0.02054
51.4 -0.02035
51.45 -0.0199
51.5 -0.01982
51.55 -0.01922
51.6 -0.01912
51.65 -0.01919
51.7 -0.01938
51.75 -0.01989
51.8 -0.01946
51.85 -0.01953
51.9 -0.01888
51.95 -0.01845
52 -0.01807
52.05 -0.01753
52.1 -0.0173
52.15 -0.01749
52.2 -0.01695
52.25 -0.01685
52.3 -0.0167
52.35 -0.01691
52.4 -0.01733
52.45 -0.01761
52.5 -0.01727
52.55 -0.01649
52.6 -0.01624
52.65 -0.01533
52.7 -0.01495
52.75 -0.01472
52.8 -0.01451
52.85 -0.01443
52.9 -0.01357
52.95 -0.01289
53 -0.01276
53.05 -0.01297
53.1 -0.01236
53.15 -0.01127
53.2 -0.01076
53.25 -0.00986
53.3 -0.00907
53.35 -0.0083
53.4 -0.00802
53.45 -0.00816
53.5 -0.00821
53.55 -0.00791
53.6 -0.00829
53.65 -0.00833
53.7 -0.00854
53.75 -0.00864
53.8 -0.00864
53.85 -0.00809
53.9 -0.00789
53.95 -0.00769
54 -0.00807
54.05 -0.00836
54.1 -0.00889
54.15 -0.00959
54.2 -0.0102
54.25 -0.0104
54.3 -0.01067
54.35 -0.01111
54.4 -0.01149
54.45 -0.01093
54.5 -0.01
54.55 -0.00903
54.6 -0.00842
54.65 -0.00738
54.7 -0.007
54.75 -0.00641
54.8 -0.00649
54.85 -0.00705
54.9 -0.00707
54.95 -0.00677
55 -0.00617
55.05 -0.00635
55.1 -0.00671
55.15 -0.00698
55.2 -0.00739
55.25 -0.00788
55.3 -0.00776
55.35 -0.0073
55.4 -0.007
55.45 -0.00628
55.5 -0.00615
55.55 -0.00637
55.6 -0.00601
55.65 -0.0061
55.7 -0.00579
55.75 -0.00603
55.8 -0.00602
55.85 -0.00602
55.9 -0.00614
55.95 -0.00588
56 -0.00599
56.05 -0.006
56.1 -0.00589
56.15 -0.00566
56.2 -0.00553
56.25 -0.00587
56.3 -0.00607
56.35 -0.00655
56.4 -0.00681
56.45 -0.00673
56.5 -0.00639
56.55 -0.00595
56.6 -0.0053
56.65 -0.00476
56.7 -0.00374
56.75 -0.00268
56.8 -0.00151
56.85 -0.00067
56.9 -0.00012
56.95 0.00032
57 0.00063
57.05 0.00034
57.1 0.00003
57.15 -0.0007
57.2 -0.00159
57.25 -0.00227
57.3 -0.00273
57.35 -0.00301
57.4 -0.00301
57.45 -0.0033
57.5 -0.00396
57.55 -0.00368
57.6 -0.00352
57.65 -0.00383
57.7 -0.00442
57.75 -0.00459
57.8 -0.00415
57.85 -0.00374
57.9 -0.00379
57.95 -0.00318
58 -0.0032
58.05 -0.00364
58.1 -0.00378
58.15 -0.00378
58.2 -0.00311
58.25 -0.0026
58.3 -0.00276
58.35 -0.00314
58.4 -0.00357
58.45 -0.00331
58.5 -0.00328
58.55 -0.00357
58.6 -0.0033
58.65 -0.0033
58.7 -0.00288
58.75 -0.00258
58.8 -0.00245
58.85 -0.00223
58.9 -0.00167
58.95 -0.00075
59 -0.00054
59.05 -0.00074
59.1 -0.00108
59.15 -0.00125
59.2 -0.00093
59.25 -0.00124
59.3 -0.00092
59.35 -0.00078
59.4 -0.00089
59.45 -0.00136
59.5 -0.0014
59.55 -0.00092
59.6 -0.00038
59.65 -0.00063
59.7 -0.00047
59.75 -0.00001
59.8 0.00027
59.85 0.00028
59.9 0.00011
59.95 -0.00012
60 -0.00036
60.05 -0.001
60.1 -0.00152
60.15 -0.00161
60.2 -0.00182
60.25 -0.00205
60.3 -0.00167
60.35 -0.00138
60.4 -0.00078
60.45 -0.00085
60.5 -0.00093
60.55 -0.00044
60.6 0.00028
60.65 0.00017
60.7 -0.00008
60.75 -0.00016
60.8 0.00025
60.85 0.00026
60.9 0.00001
60.95 -0.00077
61 -0.00175
61.05 -0.00251
61.1 -0.00312
61.15 -0.00315
61.2 -0.00281
61.25 -0.00227
61.3 -0.00141
61.35 -0.00126
61.4 -0.00088
61.45 -0.00025
61.5 0.00017
61.55 0.00007
61.6 0.00037
61.65 0.00051
61.7 0.00005
61.75 -0.00041
61.8 -0.00073
61.85 -0.00141
61.9 -0.00218
61.95 -0.00276
62 -0.00349
62.05 -0.00424
62.1 -0.00427
62.15 -0.0042
62.2 -0.00401
62.25 -0.00302
62.3 -0.00243
62.35 -0.00151
62.4 -0.00087
62.45 -0.00009
62.5 -0.00012
62.55 0.00031
62.6 0.00105
62.65 0.00146
62.7 0.00182
62.75 0.00169
62.8 0.0015
62.85 0.00168
62.9 0.00116
62.95 0.00098
63 0.00097
63.05 0.00134
63.1 0.00103
63.15 0.00108
63.2 0.00133
63.25 0.00081
63.3 0.00045
63.35 0.00058
63.4 0.00036
63.45 0.00056
63.5 0.00089
63.55 0.00114
63.6 0.00131
63.65 0.00144
63.7 0.00171
63.75 0.00151
63.8 0.0017
63.85 0.00116
63.9 0.00046
63.95 0.00027
64 0.00025
64.05 -0.00014
64.1 -0.00096
64.15 -0.00129
64.2 -0.0015
64.25 -0.00204
64.3 -0.00221
64.35 -0.00229
64.4 -0.00178
64.45 -0.00093
64.5 -0.00038
64.55 -0.00052
64.6 -0.00097
64.65 -0.00174
64.7 -0.00174
64.75 -0.00142
64.8 -0.00085
64.85 -0.00018
64.9 0.00034
64.95 0.00112
65 0.00133
65.05 0.00078
65.1 0.00025
65.15 -0.0003
65.2 -0.00042
65.25 -0.00041
65.3 0.00018
65.35 0.00061
65.4 0.00045
65.45 0.00015
65.5 -0.00018
65.55 -0.00069
65.6 -0.00078
65.65 -0.00082
65.7 -0.00059
65.75 -0.00057
65.8 -0.00005
65.85 -0.00002
65.9 -0.00025
65.95 -0.0009
66 -0.00143
66.05 -0.00109
66.1 -0.00079
66.15 -0.00027
66.2 0.00008
66.25 0.0005
66.3 0.00062
66.35 0.00008
66.4 -0.00065
66.45 -0.00067
66.5 -0.00073
66.55 -0.0004
66.6 -0.00027
66.65 -0.00065
66.7 -0.00087
66.75 -0.00043
66.8 -0.00072
66.85 -0.00061
66.9 -0.00051
66.95 -0.00038
67 -0.00078
67.05 -0.00119
67.1 -0.00087
67.15 -0.00098
67.2 -0.00137
67.25 -0.00125
67.3 -0.00164
67.35 -0.00206
67.4 -0.00208
67.45 -0.00226
67.5 -0.00171
67.55 -0.00108
67.6 -0.00094
67.65 -0.00048
67.7 -0.00061
67.75 -0.00021
67.8 -0.00025
67.85 -0.00074
67.9 -0.00046
67.95 0.00011
68 0.00091
68.05 0.00121
68.1 0.00141
68.15 0.0011
68.2 0.00058
68.25 0.00066
68.3 0.00106
68.35 0.00182
68.4 0.00229
68.45 0.0024
68.5 0.00197
68.55 0.00175
68.6 0.00199
68.65 0.00145
68.7 0.00056
68.75 -0.00025
68.8 -0.00126
68.85 -0.00143
68.9 -0.00161
68.95 -0.00178
69 -0.00224
69.05 -0.00191
69.1 -0.00178
69.15 -0.00148
69.2 -0.00169
69.25 -0.00178
69.3 -0.00188
69.35 -0.00126
69.4 -0.00031
69.45 0.00092
69.5 0.00157
69.55 0.00185
69.6 0.00162
69.65 0.00148
69.7 0.00084
69.75 0
69.8 -0.00107
69.85 -0.00204
69.9 -0.0026
69.95 -0.00293
70 -0.00267
70.05 -0.00235
70.1 -0.00215
70.15 -0.00123
70.2 -0.00094
70.25 -0.00008
70.3 -0.00002
70.35 0.00058
70.4 0.00138
70.45 0.00179
70.5 0.00143
70.55 0.00155
70.6 0.00146
70.65 0.0009
70.7 0.00069
70.75 0.00019
70.8 -0.00009
70.85 -0.00042
70.9 -0.0004
70.95 -0.00003
71 -0.00009
71.05 0.00023
71.1 0.00043
71.15 0.0009
71.2 0.00105
71.25 0.0007
71.3 -0.00013
71.35 -0.00059
71.4 -0.00104
71.45 -0.00106
71.5 -0.00087
71.55 -0.00122
71.6 -0.00141
71.65 -0.00104
71.7 -0.00054
71.75 -0.0003
71.8 0.00009
71.85 0.00007
71.9 -0.00034
71.95 -0.00019
72 0.00036
72.05 0.0002
72.1 0.00036
72.15 0.00057
72.2 0.00123
72.25 0.00153
72.3 0.00163
72.35 0.0017
72.4 0.00206
72.45 0.00187
72.5 0.00136
72.55 0.00102
72.6 0.00078
72.65 0.00074
72.7 0.00076
72.75 0.00031
72.8 0.00036
72.85 0.00002
72.9 0.00031
72.95 -0.00008
73 -0.00083
73.05 -0.00079
73.1 -0.00094
73.15 -0.0004
73.2 0.00008
73.25 0.0006
73.3 0.00038
73.35 0.00027
73.4 -0.00023
73.45 -0.00021
73.5 -0.00004
73.55 -0.00008
73.6 0.00025
73.65 -0.00003
73.7 -0.00042
73.75 -0.00081
73.8 -0.001
73.85 -0.00111
73.9 -0.00153
73.95 -0.00179
74 -0.00132
74.05 -0.00035
74.1 0.0007
74.15 0.00141
74.2 0.00134
74.25 0.00082
74.3 0.001
74.35 0.00102
74.4 0.00116
74.45 0.00144
74.5 0.00107
74.55 0.00086
74.6 0.0006
74.65 0.0007
74.7 0.00122
74.75 0.00136
74.8 0.00177
74.85 0.00158
74.9 0.00151
74.95 0.00088
75 -0.00008
75.05 -0.00098
75.1 -0.0011
75.15 -0.00126
75.2 -0.0009
75.25 -0.00056
75.3 0.00018
75.35 0.0001
75.4 0.00053
75.45 0.00115
75.5 0.00129
75.55 0.00084
75.6 0.00013
75.65 -0.00084
75.7 -0.00184
75.75 -0.00217
75.8 -0.00241
75.85 -0.00276
75.9 -0.00242
75.95 -0.00207
76 -0.00162
76.05 -0.00123
76.1 -0.00063
76.15 0.00032
76.2 0.00138
76.25 0.00144
76.3 0.0018
76.35 0.00131
76.4 0.00129
76.45 0.00081
76.5 -0.00001
76.55 -0.00002
76.6 -0.00026
76.65 -0.00005
76.7 0.00056
76.75 0.00086
76.8 0.00093
76.85 0.00036
76.9 -0.00006
76.95 0.00006
77 -0.0003
77.05 -0.00005
77.1 0.00032
77.15 0.00003
77.2 -0.00012
77.25 -0.00045
77.3 -0.00072
77.35 -0.00118
77.4 -0.00156
77.45 -0.00156
77.5 -0.00181
77.55 -0.00155
77.6 -0.00078
77.65 -0.00005
77.7 -0.00016
77.75 -0.00059
77.8 -0.00063
77.85 -0.00085
77.9 -0.00046
77.95 0.00031
78 0.00125
78.05 0.00177
78.1 0.00209
78.15 0.00226
78.2 0.00234
78.25 0.00204
78.3 0.00197
78.35 0.00151
78.4 0.00073
78.45 0.00021
78.5 0.00035
78.55 0.00024
78.6 0.00053
78.65 0.00085
78.7 0.00065
78.75 0.00067
78.8 0.00066
78.85 0.00087
78.9 0.00124
78.95 0.00144
79 0.00186
79.05 0.00247
79.1 0.00204
79.15 0.00182
79.2 0.00121
79.25 0.00045
79.3 -0.00029
79.35 -0.00022
79.4 -0.00046
79.45 -0.00033
79.5 -0.00065
79.55 -0.0012
79.6 -0.0013
79.65 -0.00116
79.7 -0.00071
79.75 -0.00042
79.8 0.0003
79.85 0.00114
79.9 0.00107
79.95 0.00116
80 0.0015
80.05 0.00098
80.1 0.00048
80.15 0.00018
80.2 0.00052
80.25 0.00101
80.3 0.00116
80.35 0.00153
80.4 0.00178
80.45 0.00183
80.5 0.00192
80.55 0.00154
80.6 0.00111
80.65 0.00103
80.7 0.00089
80.75 0.00047
80.8 -0.00012
80.85 -0.00033
80.9 -0.00001
80.95 0.00044
81 0.00083
81.05 0.00145
81.1 0.00147
81.15 0.00143
81.2 0.00115
81.25 0.00068
81.3 0.00067
81.35 0.00059
81.4 0.00017
81.45 -0.00056
81.5 -0.00156
81.55 -0.0025
81.6 -0.00274
81.65 -0.0026
81.7 -0.00282
81.75 -0.00272
81.8 -0.00281
81.85 -0.00259
81.9 -0.0019
81.95 -0.00178
82 -0.00175
82.05 -0.00122
82.1 -0.00137
82.15 -0.00086
82.2 -0.00037
82.25 -0.00011
82.3 0.00014
82.35 -0.00024
82.4 -0.00045
82.45 -0.0001
82.5 -0.0004
82.55 -0.00088
82.6 -0.00152
82.65 -0.00222
82.7 -0.00209
82.75 -0.00188
82.8 -0.00199
82.85 -0.00152
82.9 -0.00109
82.95 -0.00034
83 0.00005
83.05 0.00042
83.1 0.00077
83.15 0.00111
83.2 0.00097
83.25 0.0013
83.3 0.0015
83.35 0.00158
83.4 0.00166
83.45 0.00098
83.5 0.00064
83.55 0.00018
83.6 -0.00014
83.65 -0.00012
83.7 0.00042
83.75 0.00012
83.8 -0.00012
83.85 -0.00066
83.9 -0.00076
83.95 -0.00073
84 -0.00022
84.05 0.00065
84.1 0.00138
84.15 0.00138
84.2 0.0018
84.25 0.0017
84.3 0.00159
84.35 0.00173
84.4 0.00146
84.45 0.00152
84.5 0.00115
84.55 0.00033
84.6 -0.00031
84.65 -0.00056
84.7 -0.00033
84.75 -0.00022
84.8 -0.00052
84.85 -0.00051
84.9 -0.00056
84.95 -0.00036
85 0.0003
85.05 0.00059
85.1 0.00081
85.15 0.00069
85.2 0.00005
85.25 -0.00018
85.3 -0.00012
85.35 -0.00061
85.4 -0.00073
85.45 -0.001
85.5 -0.00086
85.55 -0.00026
85.6 0.00045
85.65 0.00128
85.7 0.00108
85.75 0.00092
85.8 0.00103
85.85 0.00051
85.9 0.00044
85.95 0.00065
86 0.00063
86.05 -0.00001
86.1 -0.00015
86.15 -0.00021
86.2 0.00023
86.25 0.00064
86.3 0.00096
86.35 0.00118
86.4 0.00097
86.45 0.00047
86.5 -0.0003
86.55 -0.00115
86.6 -0.00155
86.65 -0.0021
86.7 -0.00184
86.75 -0.002
86.8 -0.00238
86.85 -0.0025
86.9 -0.00208
86.95 -0.00172
87 -0.00151
87.05 -0.00076
87.1 -0.00001
87.15 0.00083
87.2 0.00114
87.25 0.00083
87.3 0.0003
87.35 -0.00004
87.4 -0.00008
87.45 -0.00048
87.5 -0.00024
87.55 -0.00014
87.6 -0.00024
87.65 -0.00059
87.7 -0.00045
87.75 0.00008
87.8 0.0009
87.85 0.00108
87.9 0.00114
87.95 0.00074
88 0.0009
88.05 0.00056
88.1 -0.00021
88.15 -0.00057
88.2 -0.00097
88.25 -0.00123
88.3 -0.00161
88.35 -0.00122
88.4 -0.00034
88.45 0.00029
88.5 0.00028
88.55 0.00045
88.6 0.00073
88.65 0.00086
88.7 0.0012
88.75 0.0014
88.8 0.00088
88.85 0.00041
88.9 -0.00006
88.95 -0.00075
89 -0.00133
89.05 -0.00107
89.1 -0.00107
89.15 -0.0009
89.2 -0.00091
89.25 -0.00043
89.3 0.00046
89.35 0.00121
89.4 0.00166
89.45 0.00207
89.5 0.00183
89.55 0.00126
89.6 0.00099
89.65 0.00024
89.7 0.00012
89.75 0.00038
89.8 -0
89.85 0.00004
89.9 0.00027
89.95 -0.00005
90 -0.00036
90.05 -0.00036
90.1 -0.00045
90.15 -0.00036
90.2 -0.00054
90.25 -0.00108
90.3 -0.00117
90.35 -0.00124
90.4 -0.00157
90.45 -0.0016
90.5 -0.00095
90.55 -0.00072
90.6 -0.00064
90.65 -0.00075
90.7 -0.00063
90.75 -0.00001
90.8 0.0009
90.85 0.00152
90.9 0.0018
90.95 0.00145
91 0.00141
91.05 0.00117
91.1 0.00081
91.15 0.00076
91.2 0.00019
91.25 -0.00032
91.3 -0.00039
91.35 -0.00048
91.4 -0.00007
91.45 -0.00012
91.5 0.00039
91.55 0.00093
91.6 0.00163
91.65 0.0023
91.7 0.00292
91.75 0.00312
91.8 0.00235
91.85 0.00169
91.9 0.00153
91.95 0.00086
92 -0.0002
92.05 -0.00085
92.1 -0.00157
92.15 -0.00219
92.2 -0.00289
92.25 -0.00271
92.3 -0.00216
92.35 -0.00157
92.4 -0.00118
92.45 -0.00074
92.5 -0.00081
92.55 -0.00056
92.6 -0.00081
92.65 -0.0004
92.7 -0.00059
92.75 -0.00072
92.8 -0.00115
92.85 -0.00169
92.9 -0.00149
92.95 -0.00119
93 -0.00131
93.05 -0.00139
93.1 -0.00091
93.15 -0.00046
93.2 0.0003
93.25 0.00047
93.3 0.00043
93.35 0.00073
93.4 0.00057
93.45 0.00094
93.5 0.00154
93.55 0.00128
93.6 0.00063
93.65 -0.00014
93.7 -0.00021
93.75 -0.00022
93.8 -0.00056
93.85 -0.00129
93.9 -0.00136
93.95 -0.0011
94 -0.00119
94.05 -0.00109
94.1 -0.00097
94.15 -0.00132
94.2 -0.00176
94.25 -0.00228
94.3 -0.00194
94.35 -0.002
94.4 -0.00237
94.45 -0.00268
94.5 -0.00218
94.55 -0.00176
94.6 -0.00155
94.65 -0.00168
94.7 -0.00219
94.75 -0.00223
94.8 -0.00207
94.85 -0.00225
94.9 -0.00225
94.95 -0.0023
95 -0.00254
95.05 -0.00236
95.1 -0.00261
95.15 -0.00313
95.2 -0.00272
95.25 -0.00164
95.3 -0.00094
95.35 0.00001
95.4 0.00032
95.45 0.00102
95.5 0.00155
95.55 0.00162
95.6 0.00195
95.65 0.00183
95.7 0.00146
95.75 0.00148
95.8 0.00084
95.85 0.0007
95.9 0.00094
95.95 0.00116
96 0.00127
96.05 0.00108
96.1 0.00116
96.15 0.00151
96.2 0.00158
96.25 0.00201
96.3 0.00255
96.35 0.00251
96.4 0.0024
96.45 0.00222
96.5 0.00224
96.55 0.00201
96.6 0.00134
96.65 0.0012
96.7 0.00106
96.75 0.00101
96.8 0.00122
96.85 0.00103
96.9 0.00062
96.95 -0.00003
97 -0.00036
97.05 -0.00115
97.1 -0.00169
97.15 -0.00149
97.2 -0.00087
97.25 -0.00028
97.3 0.00041
97.35 0.00104
97.4 0.00147
97.45 0.00183
97.5 0.0013
97.55 0.00043
97.6 -0.00078
97.65 -0.0011
97.7 -0.00116
97.75 -0.00128
97.8 -0.00136
97.85 -0.00158
97.9 -0.00107
97.95 -0.00019
98 0.00074
98.05 0.0011
98.1 0.00102
98.15 0.0011
98.2 0.0005
98.25 0.00015
98.3 0.00007
98.35 -0.00024
98.4 -0.00092
98.45 -0.0012
98.5 -0.0016
98.55 -0.00227
98.6 -0.00243
98.65 -0.00259
98.7 -0.00264
98.75 -0.00303
98.8 -0.00336
98.85 -0.00383
98.9 -0.00343
98.95 -0.00258
99 -0.00217
99.05 -0.00197
99.1 -0.00208
99.15 -0.00189
99.2 -0.00172
99.25 -0.00157
99.3 -0.00145
99.35 -0.0017
99.4 -0.00217
99.45 -0.00226
99.5 -0.00234
99.55 -0.00177
99.6 -0.0016
99.65 -0.00152
99.7 -0.00132
99.75 -0.00089
99.8 -0.0002
99.85 0.00041
99.9 0.00121
99.95 0.0019
