0 0
0.05 0.00053
0.1 0.0015
0.15 0.00264
0.2 0.00342
0.25 0.00385
0.3 0.00415
0.35 0.00472
0.4 0.00554
0.45 0.00617
0.5 0.00619
0.55 0.00639
0.6 0.00618
0.65 0.0057
0.7 0.00502
0.75 0.00469
0.8 0.00422
0.85 0.00357
0.9 0.00324
0.95 0.00276
1 0.00296
1.05 0.0032
1.1 0.0034
1.15 0.00375
1.2 0.00362
1.25 0.00358
1.3 0.00403
1.35 0.00469
1.4 0.00459
1.45 0.0046
1.5 0.00433
1.55 0.00413
1.6 0.00429
1.65 0.00436
1.7 0.00442
1.75 0.00478
1.8 0.00493
1.85 0.00512
1.9 0.00519
1.95 0.00482
2 0.00445
2.05 0.00443
2.1 0.00446
2.15 0.00465
2.2 0.00487
2.25 0.00529
2.3 0.00488
2.35 0.00457
2.4 0.00395
2.45 0.00377
2.5 0.00368
2.55 0.0035
2.6 0.00302
2.65 0.00298
2.7 0.00273
2.75 0.00255
2.8 0.00215
2.85 0.00216
2.9 0.00169
2.95 0.001
3 0.00031
3.05 -0.00008
3.1 -0.00049
3.15 -0.00019
3.2 0.00033
3.25 0.0012
3.3 0.00138
3.35 0.00199
3.4 0.00254
3.45 0.00277
3.5 0.00306
3.55 0.00356
3.6 0.00419
3.65 0.0048
3.7 0.00462
3.75 0.00413
3.8 0.00405
3.85 0.00386
3.9 0.00398
3.95 0.00411
4 0.00366
4.05 0.00294
4.1 0.00226
4.15 0.00155
4.2 0.00118
4.25 0.00117
4.3 0.0016
4.35 0.00195
4.4 0.00198
4.45 0.00161
4.5 0.00109
4.55 0.00045
4.6 0.00017
4.65 -0.00001
4.7 0.00008
4.75 0.00018
4.8 0.00056
4.85 0.00091
4.9 0.00113
4.95 0.00128
5 0.00112
5.05 0.00121
5.1 0.00131
5.15 0.00128
5.2 0.00114
5.25 0.00123
5.3 0.00157
5.35 0.00188
5.4 0.00181
5.45 0.00148
5.5 0.0016
5.55 0.00191
5.6 0.00212
5.65 0.00238
5.7 0.00213
5.75 0.00195
5.8 0.00188
5.85 0.0014
5.9 0.00133
5.95 0.00084
6 0.00044
6.05 -0.00002
6.1 -0.00014
6.15 -0.00021
6.2 -0.0003
6.25 -0.00021
6.3 0.00027
6.35 0.00102
6.4 0.00128
6.45 0.00133
6.5 0.00102
6.55 0.00071
6.6 0.00069
6.65 0.00036
6.7 0.00053
6.75 0.00059
6.8 0.00017
6.85 -0.00056
6.9 -0.00118
6.95 -0.001
7 -0.00088
7.05 -0.00035
7.1 -0.00017
7.15 0.00035
7.2 0.00042
7.25 0.00001
7.3 0
7.35 -0.00029
7.4 -0.00018
7.45 0.00011
7.5 0.00015
7.55 0.00013
7.6 0.0001
7.65 -0.00029
7.7 -0.00024
7.75 -0.00027
7.8 0.00007
7.85 0.00001
7.9 -0.00013
7.95 -0.00029
8 -0.00027
8.05 -0.00027
8.1 -0.00016
8.15 -0.00027
8.2 -0.00008
8.25 -0.00019
8.3 0.00018
8.35 0.0001
8.4 -0.00014
8.45 -0.00045
8.5 -0.00017
8.55 -0.0003
8.6 -0.00036
8.65 -0.0007
8.7 -0.00049
8.75 -0.00052
8.8 -0.00093
8.85 -0.00135
8.9 -0.00115
8.95 -0.00097
9 -0.00106
9.05 -0.00076
9.1 -0.0008
9.15 -0.00109
9.2 -0.00149
9.25 -0.00182
9.3 -0.00144
9.35 -0.00147
9.4 -0.00118
9.45 -0.00044
9.5 -0.00012
9.55 0.00021
9.6 0.00064
9.65 0.00083
9.7 0.00096
9.75 0.00081
9.8 0.00082
9.85 0.00123
9.9 0.00099
9.95 0.00048
10 0.0006
10.05 0.00073
10.1 0.0007
10.15 0.00039
10.2 0.0001
10.25 0.00001
10.3 0.00042
10.35 0.00069
10.4 0.0012
10.45 0.0017
10.5 0.00226
10.55 0.00218
10.6 0.00155
10.65 0.00088
10.7 0.00031
10.75 0.00009
10.8 -0.00005
10.85 0.00004
10.9 0.00032
10.95 0.00031
11 0.00036
11.05 0.00039
11.1 0.00012
11.15 0.00042
11.2 0.00014
11.25 0.0001
11.3 0.0002
11.35 0.00038
11.4 0.0003
11.45 0.00041
11.5 0.00071
11.55 0.00073
11.6 0.00093
11.65 0.00101
11.7 0.00061
11.75 0.00043
11.8 0.00045
11.85 0.00058
11.9 0.00069
11.95 0.00116
12 0.00125
12.05 0.00105
12.1 0.00043
12.15 0.00002
12.2 0.0002
12.25 0.00052
12.3 0.00058
12.35 0.00075
12.4 0.0005
12.45 -0.00005
12.5 -0.00006
12.55 0
12.6 0.00045
12.65 0.00035
12.7 -0.00002
12.75 -0.00008
12.8 -0.00032
12.85 -0.00075
12.9 -0.00051
12.95 -0.00028
13 -0.00041
13.05 -0.00088
13.1 -0.00146
13.15 -0.00165
13.2 -0.00137
13.25 -0.00076
13.3 0.0001
13.35 0.00029
13.4 0.00066
13.45 0.00124
13.5 0.00191
13.55 0.00195
13.6 0.00194
13.65 0.00216
13.7 0.00188
13.75 0.00139
13.8 0.00099
13.85 0.00091
13.9 0.00065
13.95 0.00038
14 0.00027
14.05 0.00008
14.1 -0.00041
14.15 -0.00077
14.2 -0.00073
14.25 -0.00059
14.3 -0.00022
14.35 0.00001
14.4 -0.00002
14.45 0.00029
14.5 0.00053
14.55 0.00036
14.6 0.00017
14.65 -0.00041
14.7 -0.00038
14.75 -0.00031
14.8 -0.00015
14.85 0.00034
14.9 0.00097
14.95 0.00119
15 0.00146
15.05 0.00158
15.1 0.00142
15.15 0.00077
15.2 0.00044
15.25 0.00007
15.3 0.00007
15.35 -0.00026
15.4 -0.0007
15.45 -0.00138
15.5 -0.00154
15.55 -0.00157
15.6 -0.00142
15.65 -0.00127
15.7 -0.00093
15.75 -0.00035
15.8 0.00032
15.85 0.0004
15.9 0.00022
15.95 0.00015
16 0.0005
16.05 0.00046
16.1 0.00081
16.15 0.00098
16.2 0.00119
16.25 0.00146
16.3 0.00155
16.35 0.00143
16.4 0.00115
16.45 0.001
16.5 0.00113
16.55 0.0014
16.6 0.00103
16.65 0.00051
16.7 0.00006
16.75 -0.00035
16.8 -0.00028
16.85 -0.00054
16.9 -0.00051
16.95 -0.00052
17 -0.00037
17.05 -0.00028
17.1 -0.00058
17.15 -0.0009
17.2 -0.0006
17.25 0.00002
17.3 0.00032
17.35 0.00037
17.4 0.00014
17.45 -0.00014
17.5 0.00002
17.55 -0.00023
17.6 -0.00083
17.65 -0.00153
17.7 -0.00152
17.75 -0.00156
17.8 -0.00136
17.85 -0.00085
17.9 -0.00079
17.95 -0.00087
18 -0.00083
18.05 -0.0006
18.1 -0.00008
18.15 -0.00002
18.2 0.00022
18.25 0.00008
18.3 0.00037
18.35 0.00091
18.4 0.00131
18.45 0.00107
18.5 0.00064
18.55 0.00004
18.6 -0.00009
18.65 -0.00027
18.7 -0.00034
18.75 -0.00074
18.8 -0.00131
18.85 -0.00112
18.9 -0.00135
18.95 -0.00178
19 -0.00207
19.05 -0.00218
19.1 -0.00248
19.15 -0.00252
19.2 -0.00196
19.25 -0.00126
19.3 -0.00068
19.35 -0.00005
19.4 -0.0001
19.45 -0.00002
19.5 0.00008
19.55 0.0004
19.6 0.00091
19.65 0.00125
19.7 0.00124
19.75 0.00088
19.8 0.0006
19.85 0.00015
19.9 -0.00003
19.95 -0.00008
20 0.00003
20.05 0.00028
20.1 0.00073
20.15 0.00071
20.2 0.00098
20.25 0.00096
20.3 0.00102
20.35 0.00107
20.4 0.00117
20.45 0.00084
20.5 0.00078
20.55 0.00102
20.6 0.00068
20.65 -0.00006
20.7 -0.00091
20.75 -0.00095
20.8 -0.00048
20.85 0.00016
20.9 0.00083
20.95 0.00137
21 0.00125
21.05 0.0008
21.1 0.0008
21.15 0.00043
21.2 -0.00025
21.25 -0.00037
21.3 -0.00004
21.35 0.00041
21.4 0.00087
21.45 0.00118
21.5 0.00093
21.55 0.00045
21.6 0.00036
21.65 0.00033
21.7 -0.00001
21.75 -0.00041
21.8 -0.00102
21.85 -0.00117
21.9 -0.00137
21.95 -0.00178
22 -0.00187
22.05 -0.00141
22.1 -0.00087
22.15 -0.00001
22.2 0.00088
22.25 0.00163
22.3 0.00183
22.35 0.00133
22.4 0.00093
22.45 0.00096
22.5 0.00124
22.55 0.001
22.6 0.00049
22.65 -0.00002
22.7 -0.00046
22.75 -0.00029
22.8 0.00004
22.85 -0.00002
22.9 -0.00043
22.95 -0.00052
23 -0.00016
23.05 0.00019
23.1 0.00066
23.15 0.0007
23.2 0.00096
23.25 0.00074
23.3 0.0005
23.35 0.00051
23.4 0.00078
23.45 0.00128
23.5 0.0015
23.55 0.00124
23.6 0.00092
23.65 0.00074
23.7 0.00037
23.75 -0.00033
23.8 -0.00051
23.85 -0.00057
23.9 -0.00104
23.95 -0.00141
24 -0.00197
24.05 -0.00255
24.1 -0.00315
24.15 -0.00372
24.2 -0.00408
24.25 -0.00397
24.3 -0.0038
24.35 -0.00376
24.4 -0.00332
24.45 -0.00278
24.5 -0.00204
24.55 -0.00128
24.6 -0.00113
24.65 -0.00069
24.7 -0.00076
24.75 -0.00071
24.8 -0.0009
24.85 -0.00076
24.9 -0.00084
24.95 -0.00124
25 -0.0017
25.05 -0.00145
25.1 -0.00112
25.15 -0.00103
25.2 -0.00105
25.25 -0.00056
25.3 -0.00018
25.35 0.00056
25.4 0.0007
25.45 0.00119
25.5 0.00181
25.55 0.00188
25.6 0.00166
25.65 0.00104
25.7 0.00081
25.75 0.00059
25.8 0.00065
25.85 0.00055
25.9 0.00092
25.95 0.00145
26 0.00168
26.05 0.00141
26.1 0.00142
26.15 0.00129
26.2 0.00124
26.25 0.00141
26.3 0.00181
26.35 0.0023
26.4 0.00269
26.45 0.00235
26.5 0.0016
26.55 0.00053
26.6 -0.00048
26.65 -0.00109
26.7 -0.00168
26.75 -0.00205
26.8 -0.00166
26.85 -0.00149
26.9 -0.0017
26.95 -0.00176
27 -0.00136
27.05 -0.00102
27.1 -0.00051
27.15 0.00016
27.2 0.00044
27.25 0.00086
27.3 0.00148
27.35 0.00199
27.4 0.00225
27.45 0.00256
27.5 0.00277
27.55 0.00231
27.6 0.00147
27.65 0.00109
27.7 0.00112
27.75 0.00116
27.8 0.00128
27.85 0.00142
27.9 0.00175
27.95 0.00191
28 0.00181
28.05 0.00201
28.1 0.00158
28.15 0.00077
28.2 0.00006
28.25 -0.00056
28.3 -0.00099
28.35 -0.00126
28.4 -0.00138
28.45 -0.00141
28.5 -0.00152
28.55 -0.00182
28.6 -0.00233
28.65 -0.00252
28.7 -0.00246
28.75 -0.00255
28.8 -0.00205
28.85 -0.00171
28.9 -0.00114
28.95 -0.0011
29 -0.00134
29.05 -0.00126
29.1 -0.00136
29.15 -0.00149
29.2 -0.00169
29.25 -0.00183
29.3 -0.00186
29.35 -0.00143
29.4 -0.00116
29.45 -0.00051
29.5 0.0004
29.55 0.00133
29.6 0.00175
29.65 0.00214
29.7 0.00204
29.75 0.00208
29.8 0.00182
29.85 0.00129
29.9 0.00078
29.95 -0.00007
30 -0.00079
30.05 -0.00075
30.1 -0.00055
30.15 -0.00062
30.2 -0.00093
30.25 -0.00089
30.3 -0.00111
30.35 -0.00115
30.4 -0.00075
30.45 -0.00032
30.5 -0.00044
30.55 -0.00035
30.6 0.00012
30.65 0.00063
30.7 0.00092
30.75 0.00074
30.8 0.00028
30.85 -0.0001
30.9 0.00007
30.95 0.00048
31 0.00105
31.05 0.00158
31.1 0.00205
31.15 0.00228
31.2 0.00253
31.25 0.00207
31.3 0.00182
31.35 0.00141
31.4 0.0011
31.45 0.00033
31.5 -0.00042
31.55 -0.00107
31.6 -0.00118
31.65 -0.00089
31.7 -0.00111
31.75 -0.00094
31.8 -0.00089
31.85 -0.00049
31.9 -0.00014
31.95 -0.00039
32 -0.00046
32.05 -0.00034
32.1 0.00006
32.15 -0.00002
32.2 -0.00055
32.25 -0.00055
32.3 -0.0006
32.35 -0.00048
32.4 -0.00033
32.45 0.00016
32.5 0.00061
32.55 0.00048
32.6 0
32.65 -0.0001
32.7 -0.0003
32.75 -0.00015
32.8 0.00041
32.85 0.00081
32.9 0.00135
32.95 0.00126
33 0.00129
33.05 0.00124
33.1 0.00135
33.15 0.00153
33.2 0.00112
33.25 0.00072
33.3 0.00012
33.35 -0.00035
33.4 -0.0007
33.45 -0.00076
33.5 -0.00066
33.55 -0.00012
33.6 0.00012
33.65 0.00021
33.7 0.00009
33.75 -0.00007
33.8 -0.00058
33.85 -0.00044
33.9 -0.00003
33.95 0.0003
34 0.00087
34.05 0.00097
34.1 0.0005
34.15 0.00049
34.2 0.00016
34.25 0.0001
34.3 0.00033
34.35 0.00031
34.4 0.00033
34.45 0.00049
34.5 0.00069
34.55 0.00067
34.6 0.00084
34.65 0.00072
34.7 0.00072
34.75 0.00086
34.8 0.00059
34.85 0.00011
34.9 -0.00067
34.95 -0.00072
35 -0.00107
35.05 -0.00093
35.1 -0.00072
35.15 -0.00061
35.2 -0.00038
35.25 -0.00048
35.3 -0.00032
35.35 -0.00041
35.4 -0
35.45 0.00036
35.5 0.00062
35.55 0.00073
35.6 0.00064
35.65 0.00077
35.7 0.0008
35.75 0.00115
35.8 0.00096
35.85 0.00037
35.9 -0.00018
35.95 -0.00044
36 -0.00097
36.05 -0.00161
36.1 -0.00176
36.15 -0.00197
36.2 -0.00227
36.25 -0.00187
36.3 -0.00111
36.35 -0.00066
36.4 -0.00041
36.45 -0.00007
36.5 0.00036
36.55 0.00017
36.6 0.00013
36.65 0.00021
36.7 0.00067
36.75 0.00119
36.8 0.00154
36.85 0.00155
36.9 0.00172
36.95 0.00177
37 0.00168
37.05 0.00184
37.1 0.00166
37.15 0.00168
37.2 0.00177
37.25 0.00136
37.3 0.00131
37.35 0.00141
37.4 0.00107
37.45 0.00093
37.5 0.00093
37.55 0.0005
37.6 0.00016
37.65 0.00022
37.7 0.00018
37.75 -0.00035
37.8 -0.00103
37.85 -0.00115
37.9 -0.00146
37.95 -0.0013
38 -0.00121
38.05 -0.0013
38.1 -0.00093
38.15 -0.00077
38.2 -0.00097
38.25 -0.00105
38.3 -0.00121
38.35 -0.00083
38.4 -0.00088
38.45 -0.00077
38.5 -0.00086
38.55 -0.00045
38.6 -0.00011
38.65 0.00049
38.7 0.00037
38.75 0.00039
38.8 0.00011
38.85 -0.00007
38.9 -0.00024
38.95 -0.00029
39 0.00008
39.05 -0.00013
39.1 -0.00026
39.15 -0.00004
39.2 0.00008
39.25 -0.00003
39.3 -0.00001
39.35 0.00018
39.4 0.00016
39.45 -0.00001
39.5 -0.00059
39.55 -0.00092
39.6 -0.00092
39.65 -0.00068
39.7 -0.00073
39.75 -0.00112
39.8 -0.0017
39.85 -0.0016
39.9 -0.00155
39.95 -0.0016
40 -0.0011
40.05 -0.00116
40.1 -0.00079
40.15 -0.00011
40.2 -0.00006
40.25 0.00005
40.3 0.00039
40.35 0.00004
40.4 -0.00032
40.45 -0.00072
40.5 -0.00078
40.55 -0.00085
40.6 -0.00078
40.65 -0.00078
40.7 -0.0015
40.75 -0.00256
40.8 -0.00376
40.85 -0.00464
40.9 -0.00606
40.95 -0.0072
41 -0.00827
41.05 -0.00977
41.1 -0.01169
41.15 -0.01448
41.2 -0.01802
41.25 -0.02147
41.3 -0.02545
41.35 -0.02929
41.4 -0.03415
41.45 -0.03946
41.5 -0.04527
41.55 -0.05163
41.6 -0.05837
41.65 -0.06558
41.7 -0.07328
41.75 -0.08221
41.8 -0.09245
41.85 -0.10307
41.9 -0.1143
41.95 -0.12653
42 -0.13912
42.05 -0.15228
42.1 -0.16551
42.15 -0.17927
42.2 -0.19318
42.25 -0.20708
42.3 -0.22161
42.35 -0.23567
42.4 -0.2496
42.45 -0.26255
42.5 -0.2746
42.55 -0.2853
42.6 -0.29471
42.65 -0.30269
42.7 -0.30898
42.75 -0.31345
42.8 -0.31564
42.85 -0.31583
42.9 -0.31345
42.95 -0.30798
43 -0.30014
43.05 -0.28971
43.1 -0.27706
43.15 -0.26247
43.2 -0.2457
43.25 -0.22677
43.3 -0.20571
43.35 -0.18317
43.4 -0.15864
43.45 -0.13336
43.5 -0.10727
43.55 -0.08096
43.6 -0.05449
43.65 -0.02763
43.7 -0.00086
43.75 0.025
43.8 0.05024
43.85 0.07444
43.9 0.09676
43.95 0.11704
44 0.13559
44.05 0.15206
44.1 0.16728
44.15 0.18102
44.2 0.19288
44.25 0.20289
44.3 0.21126
44.35 0.2184
44.4 0.2238
44.45 0.22851
44.5 0.23244
44.55 0.23516
44.6 0.23661
44.65 0.23791
44.7 0.23892
44.75 0.23905
44.8 0.23888
44.85 0.23844
44.9 0.23831
44.95 0.23821
45 0.23767
45.05 0.23709
45.1 0.2361
45.15 0.23519
45.2 0.23418
45.25 0.23269
45.3 0.23143
45.35 0.2298
45.4 0.22835
45.45 0.22606
45.5 0.22311
45.55 0.21969
45.6 0.21674
45.65 0.21332
45.7 0.21001
45.75 0.20593
45.8 0.20205
45.85 0.1974
45.9 0.19246
45.95 0.18764
46 0.18253
46.05 0.17745
46.1 0.17222
46.15 0.16628
46.2 0.15998
46.25 0.15337
46.3 0.14663
46.35 0.14007
46.4 0.13394
46.45 0.12824
46.5 0.12274
46.55 0.11693
46.6 0.11126
46.65 0.10503
46.7 0.09874
46.75 0.09254
46.8 0.08687
46.85 0.08119
46.9 0.07583
46.95 0.07102
47 0.06665
47.05 0.06242
47.1 0.05845
47.15 0.05481
47.2 0.05061
47.25 0.0468
47.3 0.04276
47.35 0.03836
47.4 0.03442
47.45 0.03088
47.5 0.02702
47.55 0.02347
47.6 0.0203
47.65 0.01746
47.7 0.01463
47.75 0.01224
47.8 0.00959
47.85 0.00737
47.9 0.00541
47.95 0.00282
48 -0.00001
48.05 -0.00309
48.1 -0.00608
48.15 -0.00818
48.2 -0.01035
48.25 -0.01204
48.3 -0.01374
48.35 -0.01531
48.4 -0.01655
48.45 -0.01799
48.5 -0.01905
48.55 -0.02016
48.6 -0.02103
48.65 -0.02231
48.7 -0.02359
48.75 -0.02509
48.8 -0.02603
48.85 -0.02723
48.9 -0.02861
48.95 -0.02948
49 -0.02991
49.05 -0.02999
49.1 -0.03004
49.15 -0.03022
49.2 -0.03023
49.25 -0.03088
49.3 -0.03141
49.35 -0.03189
49.4 -0.03197
49.45 -0.03186
49.5 -0.03226
49.55 -0.03299
49.6 -0.03338
49.65 -0.0335
49.7 -0.03318
49.75 -0.03294
49.8 -0.03312
49.85 -0.03317
49.9 -0.03317
49.95 -0.03331
50 -0.03361
50.05 -0.03343
50.1 -0.03338
50.15 -0.03374
50.2 -0.03429
50.25 -0.03477
50.3 -0.03469
50.35 -0.03443
50.4 -0.03397
50.45 -0.03375
50.5 -0.03321
50.55 -0.03253
50.6 -0.03188
50.65 -0.03176
50.7 -0.03145
50.75 -0.03131
50.8 -0.03086
50.85 -0.03
50.9 -0.02943
50.95 -0.02863
51 -0.02839
51.05 -0.02814
51.1 -0.0282
51.15 -0.02808
51.2 -0.02762
51.25 -0.02692
51.3 -0.02685
51.35 -0.02656
51.4 -0.02617
51.45 -0.02559
51.5 -0.02474
51.55 -0.02418
51.6 -0.02336
51.65 -0.0227
51.7 -0.02218
51.75 -0.02207
51.8 -0.0224
51.85 -0.02291
51.9 -0.02297
51.95 -0.02255
52 -0.02223
52.05 -0.0222
52.1 -0.02237
52.15 -0.02252
52.2 -0.02193
52.25 -0.02128
52.3 -0.0207
52.35 -0.0199
52.4 -0.01887
52.45 -0.01844
52.5 -0.01817
52.55 -0.01777
52.6 -0.01728
52.65 -0.01677
52.7 -0.01652
52.75 -0.01646
52.8 -0.01605
52.85 -0.0161
52.9 -0.01613
52.95 -0.01634
53 -0.01648
53.05 -0.01667
53.1 -0.01652
53.15 -0.01659
53.2 -0.0169
53.25 -0.01648
53.3 -0.0164
53.35 -0.01659
53.4 -0.01601
53.45 -0.01499
53.5 -0.01416
53.55 -0.01397
53.6 -0.01399
53.65 -0.01371
53.7 -0.01319
53.75 -0.01253
53.8 -0.01194
53.85 -0.01202
53.9 -0.01172
53.95 -0.01123
54 -0.01123
54.05 -0.01147
54.1 -0.01202
54.15 -0.01235
54.2 -0.01247
54.25 -0.0121
54.3 -0.01164
54.35 -0.01155
54.4 -0.01139
54.45 -0.01132
54.5 -0.01148
54.55 -0.01166
54.6 -0.01204
54.65 -0.01213
54.7 -0.01207
54.75 -0.01149
54.8 -0.01135
54.85 -0.01073
54.9 -0.00989
54.95 -0.00922
55 -0.00869
55.05 -0.00786
55.1 -0.00716
55.15 -0.00647
55.2 -0.00642
55.25 -0.00649
55.3 -0.00673
55.35 -0.0067
55.4 -0.00638
55.45 -0.00614
55.5 -0.00652
55.55 -0.00692
55.6 -0.00714
55.65 -0.00762
55.7 -0.00784
55.75 -0.00753
55.8 -0.00718
55.85 -0.00735
55.9 -0.0071
55.95 -0.00655
56 -0.00582
56.05 -0.00562
56.1 -0.00541
56.15 -0.00527
56.2 -0.00535
56.25 -0.00515
56.3 -0.00488
56.35 -0.00476
56.4 -0.0045
56.45 -0.00478
56.5 -0.00458
56.55 -0.00437
56.6 -0.00471
56.65 -0.00471
56.7 -0.00435
56.75 -0.00434
56.8 -0.00443
56.85 -0.00466
56.9 -0.00444
56.95 -0.00386
57 -0.00392
57.05 -0.00421
57.1 -0.00396
57.15 -0.00421
57.2 -0.00405
57.25 -0.00401
57.3 -0.0043
57.35 -0.00471
57.4 -0.00492
57.45 -0.00528
57.5 -0.00505
57.55 -0.00498
57.6 -0.00459
57.65 -0.00446
57.7 -0.00399
57.75 -0.00321
57.8 -0.00292
57.85 -0.00278
57.9 -0.00257
57.95 -0.0025
58 -0.00267
58.05 -0.00251
58.1 -0.0023
58.15 -0.00258
58.2 -0.00316
58.25 -0.00339
58.3 -0.00396
58.35 -0.00403
58.4 -0.00426
58.45 -0.00438
58.5 -0.00403
58.55 -0.0037
58.6 -0.00324
58.65 -0.0028
58.7 -0.00272
58.75 -0.00246
58.8 -0.00191
58.85 -0.00149
58.9 -0.00149
58.95 -0.00125
59 -0.00085
59.05 -0.00057
59.1 -0.00068
59.15 -0.00088
59.2 -0.00069
59.25 -0.00027
59.3 -0.00043
59.35 -0.0004
59.4 -0.00021
59.45 -0.00019
59.5 -0.00057
59.55 -0.00057
59.6 -0.00117
59.65 -0.00131
59.7 -0.00147
59.75 -0.00127
59.8 -0.00096
59.85 -0.00127
59.9 -0.00139
59.95 -0.00195
60 -0.00279
60.05 -0.00329
60.1 -0.00363
60.15 -0.00345
60.2 -0.00312
60.25 -0.003
60.3 -0.00249
60.35 -0.002
60.4 -0.00201
60.45 -0.00184
60.5 -0.00182
60.55 -0.00216
60.6 -0.00214
60.65 -0.0021
60.7 -0.00249
60.75 -0.00235
60.8 -0.00254
60.85 -0.00224
60.9 -0.00216
60.95 -0.0019
61 -0.00164
61.05 -0.00192
61.1 -0.0016
61.15 -0.00172
61.2 -0.00204
61.25 -0.00201
61.3 -0.00219
61.35 -0.00198
61.4 -0.00172
61.45 -0.00154
61.5 -0.00155
61.55 -0.00173
61.6 -0.00216
61.65 -0.00206
61.7 -0.00184
61.75 -0.00186
61.8 -0.00158
61.85 -0.00116
61.9 -0.00063
61.95 -0.00001
62 0.00001
62.05 -0.00045
62.1 -0.0007
62.15 -0.00132
62.2 -0.00135
62.25 -0.00111
62.3 -0.00106
62.35 -0.00063
62.4 -0.00006
62.45 -0.00016
62.5 -0.00026
62.55 -0.00035
62.6 -0.00049
62.65 -0.00019
62.7 0.00027
62.75 0.00037
62.8 -0.00005
62.85 -0.00024
62.9 -0.00084
62.95 -0.00126
63 -0.00139
63.05 -0.00168
63.1 -0.00166
63.15 -0.00139
63.2 -0.00132
63.25 -0.00171
63.3 -0.00162
63.35 -0.00176
63.4 -0.00201
63.45 -0.00189
63.5 -0.00174
63.55 -0.00185
63.6 -0.00211
63.65 -0.00222
63.7 -0.00213
63.75 -0.00181
63.8 -0.00128
63.85 -0.00115
63.9 -0.00077
63.95 -0.00038
64 -0.00051
64.05 -0.00034
64.1 -0.00046
64.15 -0.00068
64.2 -0.00036
64.25 -0.00038
64.3 -0.00017
64.35 -0.00005
64.4 -0.00018
64.45 -0.00048
64.5 -0.00107
64.55 -0.0011
64.6 -0.00073
64.65 -0.00086
64.7 -0.00058
64.75 -0.00029
64.8 -0.00056
64.85 -0.00103
64.9 -0.00149
64.95 -0.00156
65 -0.00184
65.05 -0.00169
65.1 -0.00117
65.15 -0.00052
65.2 0.00032
65.25 0.00061
65.3 0.00062
65.35 0.00091
65.4 0.00079
65.45 0.00053
65.5 0.00014
65.55 -0.00025
65.6 -0.00015
65.65 0.00029
65.7 0.00026
65.75 0.00025
65.8 -0.00003
65.85 -0.00058
65.9 -0.00056
65.95 -0.00014
66 0.0004
66.05 0.00106
66.1 0.00165
66.15 0.00157
66.2 0.00161
66.25 0.00149
66.3 0.00147
66.35 0.00086
66.4 0.00013
66.45 -0.00043
66.5 -0.00094
66.55 -0.00114
66.6 -0.00135
66.65 -0.00167
66.7 -0.00202
66.75 -0.00208
66.8 -0.00193
66.85 -0.00145
66.9 -0.0015
66.95 -0.00119
67 -0.00117
67.05 -0.00106
67.1 -0.0007
67.15 -0.0005
67.2 -0.00078
67.25 -0.00097
67.3 -0.00143
67.35 -0.00116
67.4 -0.00068
67.45 -0.00071
67.5 -0.0008
67.55 -0.00116
67.6 -0.00176
67.65 -0.0019
67.7 -0.00218
67.75 -0.00237
67.8 -0.00261
67.85 -0.00237
67.9 -0.00195
67.95 -0.00196
68 -0.00189
68.05 -0.00154
68.1 -0.00126
68.15 -0.00076
68.2 -0.00012
68.25 0.00001
68.3 0.0005
68.35 0.00058
68.4 0.00035
68.45 0.00035
68.5 0.00044
68.55 0.00055
68.6 0.00053
68.65 0.00012
68.7 -0.00012
68.75 0.00005
68.8 0.00006
68.85 0.00011
68.9 -0.00025
68.95 -0.00089
69 -0.00087
69.05 -0.00093
69.1 -0.00093
69.15 -0.00125
69.2 -0.00144
69.25 -0.00167
69.3 -0.00171
69.35 -0.00116
69.4 -0.00091
69.45 -0.00085
69.5 -0.00072
69.55 -0.00025
69.6 0.00042
69.65 0.00057
69.7 0.0006
69.75 0.00016
69.8 -0.00001
69.85 -0.00052
69.9 -0.00075
69.95 -0.00042
70 -0.00034
70.05 -0.0002
70.1 -0.00023
70.15 -0.00011
70.2 0.00027
70.25 0.00051
70.3 0.00035
70.35 0.00004
70.4 -0.00049
70.45 -0.00105
70.5 -0.00139
70.55 -0.00188
70.6 -0.0024
70.65 -0.00294
70.7 -0.00303
70.75 -0.0032
70.8 -0.00255
70.85 -0.00148
70.9 -0.0002
70.95 0.00065
71 0.00164
71.05 0.0018
71.1 0.0022
71.15 0.00245
71.2 0.00291
71.25 0.0029
71.3 0.00295
71.35 0.00314
71.4 0.00271
71.45 0.00242
71.5 0.00168
71.55 0.00122
71.6 0.00089
71.65 0.0006
71.7 0.00027
71.75 0.00034
71.8 0.00082
71.85 0.0014
71.9 0.00151
71.95 0.00139
72 0.00113
72.05 0.00043
72.1 -0.00031
72.15 -0.00031
72.2 -0.00053
72.25 -0.00096
72.3 -0.00108
72.35 -0.00077
72.4 -0.00057
72.45 -0.00026
72.5 -0.00007
72.55 -0.00033
72.6 -0.00028
72.65 -0.00049
72.7 -0.00056
72.75 -0.00055
72.8 -0.00051
72.85 -0.00024
72.9 0.00041
72.95 0.00061
73 0.00087
73.05 0.00136
73.1 0.00115
73.15 0.00128
73.2 0.00154
73.25 0.00155
73.3 0.00128
73.35 0.00054
73.4 0.00041
73.45 0.0001
73.5 -0.00048
73.55 -0.00092
73.6 -0.00136
73.65 -0.00163
73.7 -0.00169
73.75 -0.00181
73.8 -0.00127
73.85 -0.00091
73.9 -0.00076
73.95 -0.00049
74 -0.00055
74.05 -0.001
74.1 -0.00154
74.15 -0.00168
74.2 -0.00129
74.25 -0.00133
74.3 -0.00165
74.35 -0.00201
74.4 -0.00184
74.45 -0.00144
74.5 -0.00059
74.55 -0.00006
74.6 0.00029
74.65 0.00092
74.7 0.00132
74.75 0.0011
74.8 0.00105
74.85 0.00135
74.9 0.00147
74.95 0.00118
75 0.00134
75.05 0.00114
75.1 0.00122
75.15 0.001
75.2 0.00091
75.25 0.00088
75.3 0.0009
75.35 0.00126
75.4 0.00155
75.45 0.00161
75.5 0.0017
75.55 0.00122
75.6 0.00114
75.65 0.00107
75.7 0.00107
75.75 0.00076
75.8 0.00025
75.85 -0.00025
75.9 -0.00028
75.95 0
76 0.00028
76.05 0.00041
76.1 0.00065
76.15 0.00054
76.2 0.00031
76.25 -0.0001
76.3 -0.00063
76.35 -0.00054
76.4 -0.00029
76.45 -0.00025
76.5 0.00009
76.55 0.00004
76.6 0.00032
76.65 0.00026
76.7 0.00053
76.75 0.00074
76.8 0.00119
76.85 0.00144
76.9 0.00157
76.95 0.0012
77 0.00064
77.05 0.00027
77.1 -0.00015
77.15 -0.00015
77.2 0.00024
77.25 0.0001
77.3 0.00013
77.35 -0.00004
77.4 -0.00039
77.45 -0.00076
77.5 -0.00131
77.55 -0.00172
77.6 -0.00177
77.65 -0.00143
77.7 -0.00097
77.75 -0.00015
77.8 0.00023
77.85 0.00075
77.9 0.0013
77.95 0.00168
78 0.00179
78.05 0.0016
78.1 0.00161
78.15 0.00131
78.2 0.00105
78.25 0.00101
78.3 0.00129
78.35 0.00091
78.4 0.00043
78.45 0.00024
78.5 0.00001
78.55 0.00003
78.6 0.00021
78.65 0.00066
78.7 0.00041
78.75 0.00014
78.8 0.00012
78.85 -0.00015
78.9 -0.00046
78.95 -0.00105
79 -0.00134
79.05 -0.00157
79.1 -0.00194
79.15 -0.00204
79.2 -0.00172
79.25 -0.00146
79.3 -0.00093
79.35 -0.00027
79.4 0.00006
79.45 0.00008
79.5 0.00012
79.55 0.00056
79.6 0.00097
79.65 0.00078
79.7 0.00087
79.75 0.00089
79.8 0.00087
79.85 0.00046
79.9 0.00009
79.95 -0.00037
80 -0.00103
80.05 -0.00119
80.1 -0.00121
80.15 -0.00078
80.2 -0.00055
80.25 0.00008
80.3 0.00033
80.35 0.0001
80.4 -0.00005
80.45 -0.00029
80.5 -0.0005
80.55 -0.00034
80.6 -0.00008
80.65 0.00031
80.7 0.00093
80.75 0.00146
80.8 0.00171
80.85 0.00186
80.9 0.00218
80.95 0.00229
81 0.00238
81.05 0.00247
81.1 0.00207
81.15 0.00183
81.2 0.00122
81.25 0.00072
81.3 0.00035
81.35 0.00046
81.4 0.00016
81.45 0.00005
81.5 -0.00044
81.55 -0.00071
81.6 -0.00109
81.65 -0.00154
81.7 -0.00171
81.75 -0.00141
81.8 -0.00069
81.85 -0.00012
81.9 0.0006
81.95 0.00126
82 0.00118
82.05 0.00115
82.1 0.00062
82.15 0.00028
82.2 0
82.25 -0.00005
82.3 0.00002
82.35 0.00039
82.4 0.00044
82.45 0.00073
82.5 0.00036
82.55 -0.00036
82.6 -0.00103
82.65 -0.00151
82.7 -0.00203
82.75 -0.00244
82.8 -0.00232
82.85 -0.00238
82.9 -0.00186
82.95 -0.0018
83 -0.00161
83.05 -0.00156
83.1 -0.00101
83.15 -0.00039
83.2 -0.00021
83.25 -0.00041
83.3 -0.00037
83.35 -0.00016
83.4 -0.00014
83.45 -0.00019
83.5 -0.00052
83.55 -0.00094
83.6 -0.00124
83.65 -0.00118
83.7 -0.00098
83.75 -0.00051
83.8 -0.00037
83.85 -0.0002
83.9 -0.00036
83.95 -0.00048
84 -0.00045
84.05 -0.00021
84.1 0.00039
84.15 0.00034
84.2 -0.00014
84.25 -0.00024
84.3 -0.00022
84.35 0.00004
84.4 0.00048
84.45 0.0006
84.5 0.001
84.55 0.00158
84.6 0.00156
84.65 0.00133
84.7 0.00101
84.75 0.00072
84.8 0.00044
84.85 0.00035
84.9 0.00047
84.95 0.0004
85 -0.00005
85.05 -0.00016
85.1 -0.00039
85.15 -0.0001
85.2 -0.00015
85.25 0.00004
85.3 0.00038
85.35 0.00021
85.4 -0.00001
85.45 -0.00009
85.5 -0.00061
85.55 -0.00075
85.6 -0.00054
85.65 -0.00014
85.7 0.00006
85.75 0.00021
85.8 0.00013
85.85 0.00045
85.9 0.0002
85.95 0.00038
86 0.00047
86.05 0.00033
86.1 0.00056
86.15 0.00031
86.2 0.00038
86.25 0.00042
86.3 0.00081
86.35 0.0014
86.4 0.00129
86.45 0.00066
86.5 0.00054
86.55 0.00051
86.6 0.00065
86.65 0.00034
86.7 0.00037
86.75 0.00039
86.8 0.00069
86.85 0.00038
86.9 0.00053
86.95 0.00079
87 0.0005
87.05 0.00019
87.1 -0.00051
87.15 -0.00089
87.2 -0.00125
87.25 -0.00096
87.3 -0.00097
87.35 -0.0008
87.4 -0.00043
87.45 -0.00028
87.5 0.00025
87.55 0.00085
87.6 0.00093
87.65 0.00105
87.7 0.00076
87.75 0.00093
87.8 0.00047
87.85 0.00044
87.9 0.00019
87.95 -0.00029
88 -0.00071
88.05 -0.00121
88.1 -0.00159
88.15 -0.0015
88.2 -0.00115
88.25 -0.00101
88.3 -0.00106
88.35 -0.00118
88.4 -0.00156
88.45 -0.00155
88.5 -0.0018
88.55 -0.00142
88.6 -0.00091
88.65 -0.00058
88.7 0.00011
88.75 0.00041
88.8 0.00011
88.85 0.00021
88.9 0.00032
88.95 0.00042
89 0.00047
89.05 0.00061
89.1 0.00081
89.15 0.00075
89.2 0.00092
89.25 0.00065
89.3 0.00079
89.35 0.00056
89.4 0.00056
89.45 0.00074
89.5 0.0012
89.55 0.00126
89.6 0.00138
89.65 0.00106
89.7 0.00083
89.75 0.00043
89.8 -0.00003
89.85 -0.00081
89.9 -0.00174
89.95 -0.00177
90 -0.00201
90.05 -0.00174
90.1 -0.00162
90.15 -0.00156
90.2 -0.00121
90.25 -0.00071
90.3 -0.0007
90.35 -0.00109
90.4 -0.00153
90.45 -0.00178
90.5 -0.00139
90.55 -0.00081
90.6 -0.00045
90.65 -0.00025
90.7 0.00018
90.75 0.00039
90.8 0.00047
90.85 0.00081
90.9 0.00107
90.95 0.00158
91 0.00198
91.05 0.00163
91.1 0.00149
91.15 0.00083
91.2 0.00039
91.25 -0.00037
91.3 -0.0008
91.35 -0.00068
91.4 -0.00085
91.45 -0.00056
91.5 -0.00071
91.55 -0.00061
91.6 -0.00052
91.65 -0.00022
91.7 -0.00026
91.75 -0.00015
91.8 0.00018
91.85 0.00064
91.9 0.00113
91.95 0.00104
92 0.00122
92.05 0.0015
92.1 0.00191
92.15 0.00234
92.2 0.00228
92.25 0.00242
92.3 0.00189
92.35 0.00145
92.4 0.00147
92.45 0.00093
92.5 0.00005
92.55 -0.00054
92.6 -0.00132
92.65 -0.00151
92.7 -0.00131
92.75 -0.0012
92.8 -0.00137
92.85 -0.00129
92.9 -0.00139
92.95 -0.00134
93 -0.0013
93.05 -0.00112
93.1 -0.00085
93.15 -0.00073
93.2 -0.00096
93.25 -0.00109
93.3 -0.00145
93.35 -0.00204
93.4 -0.00255
93.45 -0.00271
93.5 -0.00255
93.55 -0.00253
93.6 -0.00254
93.65 -0.00191
93.7 -0.00142
93.75 -0.00084
93.8 -0.00014
93.85 0.00031
93.9 0.00093
93.95 0.00086
94 0.00118
94.05 0.00104
94.1 0.00066
94.15 0.00072
94.2 0.00057
94.25 0.00065
94.3 0.0008
94.35 0.00063
94.4 0.00065
94.45 0.0004
94.5 0.00037
94.55 0.00019
94.6 0.00026
94.65 0.00068
94.7 0.00045
94.75 0.00028
94.8 0.00056
94.85 0.00103
94.9 0.00159
94.95 0.0015
95 0.00099
95.05 0.00067
95.1 0.00038
95.15 0.0002
95.2 0.00011
95.25 -0.00002
95.3 -0.00035
95.35 -0.00068
95.4 -0.0005
95.45 -0.00035
95.5 -0.00012
95.55 -0.0004
95.6 -0.00084
95.65 -0.00118
95.7 -0.00116
95.75 -0.00117
95.8 -0.00091
95.85 -0.00077
95.9 -0.00029
95.95 -0.0004
96 -0.00032
96.05 -0.00052
96.1 -0.00034
96.15 0.00002
96.2 0.00005
96.25 -0.00004
96.3 -0.00058
96.35 -0.00084
96.4 -0.00099
96.45 -0.0013
96.5 -0.00134
96.55 -0.00107
96.6 -0.00119
96.65 -0.00096
96.7 -0.00047
96.75 -0.00014
96.8 -0.00038
96.85 -0.00024
96.9 -0.00002
96.95 -0.0003
97 -0.00056
97.05 -0.00074
97.1 -0.00047
97.15 0.00011
97.2 0.00083
97.25 0.00099
97.3 0.00127
97.35 0.00124
97.4 0.00108
97.45 0.00081
97.5 0.00054
97.55 0.00055
97.6 0.00042
97.65 0.00014
97.7 0.00027
97.75 0.0007
97.8 0.00055
97.85 0.00063
97.9 0.00056
97.95 0.00011
98 -0.00006
98.05 -0.00016
98.1 0.00012
98.15 0.00007
98.2 -0.00026
98.25 -0.00065
98.3 -0.00091
98.35 -0.00074
98.4 -0.00017
98.45 0.00046
98.5 0.00054
98.55 0.00073
98.6 0.00068
98.65 0.00024
98.7 -0.00041
98.75 -0.00041
98.8 -0.0007
98.85 -0.00077
98.9 -0.00051
98.95 -0.00041
99 -0.00019
99.05 -0.00049
99.1 -0.00026
99.15 0.00009
99.2 0.00006
99.25 -0.00013
99.3 -0.00073
99.35 -0.00061
99.4 -0.00051
99.45 -0.00079
99.5 -0.00093
99.55 -0.00095
99.6 -0.0011
99.65 -0.00084
99.7 -0.00093
99.75 -0.00083
99.8 -0.00087
99.85 -0.00068
99.9 -0.00063
99.95 -0.00098
