0 0
0.05 0.00009
0.1 0.0013
0.15 0.00299
0.2 0.00447
0.25 0.00526
0.3 0.00631
0.35 0.00644
0.4 0.00716
0.45 0.00806
0.5 0.008
0.55 0.00774
0.6 0.0077
0.65 0.00708
0.7 0.00726
0.75 0.00696
0.8 0.00744
0.85 0.00788
0.9 0.00769
0.95 0.00709
1 0.00632
1.05 0.00586
1.1 0.00602
1.15 0.00693
1.2 0.00779
1.25 0.00879
1.3 0.00904
1.35 0.00964
1.4 0.00944
1.45 0.00858
1.5 0.00794
1.55 0.00748
1.6 0.00662
1.65 0.00598
1.7 0.00504
1.75 0.00486
1.8 0.00461
1.85 0.00447
1.9 0.00465
1.95 0.00433
2 0.00477
2.05 0.00561
2.1 0.00615
2.15 0.0063
2.2 0.00583
2.25 0.00501
2.3 0.00519
2.35 0.00487
2.4 0.00425
2.45 0.00369
2.5 0.00277
2.55 0.00239
2.6 0.00263
2.65 0.00326
2.7 0.00412
2.75 0.00415
2.8 0.00391
2.85 0.00395
2.9 0.00375
2.95 0.00419
3 0.00372
3.05 0.00269
3.1 0.00184
3.15 0.00208
3.2 0.0028
3.25 0.00277
3.3 0.00217
3.35 0.00231
3.4 0.00184
3.45 0.00215
3.5 0.00236
3.55 0.00217
3.6 0.00239
3.65 0.0028
3.7 0.00247
3.75 0.00177
3.8 0.00148
3.85 0.00117
3.9 0.00084
3.95 0.00071
4 0.00074
4.05 0.00028
4.1 -0.00009
4.15 -0.00076
4.2 -0.00148
4.25 -0.00091
4.3 -0.00092
4.35 -0.00043
4.4 0.00089
4.45 0.00216
4.5 0.00244
4.55 0.00222
4.6 0.00221
4.65 0.00238
4.7 0.00325
4.75 0.0032
4.8 0.00273
4.85 0.00196
4.9 0.00094
4.95 -0.00021
5 -0.00001
5.05 0.00046
5.1 0.00029
5.15 0.00045
5.2 0.00143
5.25 0.00215
5.3 0.00191
5.35 0.00231
5.4 0.00187
5.45 0.0023
5.5 0.00317
5.55 0.00327
5.6 0.00393
5.65 0.00447
5.7 0.00401
5.75 0.0042
5.8 0.00413
5.85 0.00401
5.9 0.00336
5.95 0.00303
6 0.00219
6.05 0.0013
6.1 0.00065
6.15 0.00092
6.2 0.00171
6.25 0.00286
6.3 0.00336
6.35 0.00373
6.4 0.00448
6.45 0.00411
6.5 0.00431
6.55 0.00388
6.6 0.00295
6.65 0.00297
6.7 0.00284
6.75 0.00294
6.8 0.00311
6.85 0.00343
6.9 0.00304
6.95 0.0024
7 0.0021
7.05 0.00172
7.1 0.00118
7.15 0.00111
7.2 0.00107
7.25 0.00168
7.3 0.00142
7.35 0.00121
7.4 0.00125
7.45 0.00152
7.5 0.0023
7.55 0.00227
7.6 0.00289
7.65 0.00281
7.7 0.00278
7.75 0.00318
7.8 0.00297
7.85 0.00208
7.9 0.00151
7.95 0.00125
8 0.00109
8.05 0.00026
8.1 -0.00049
8.15 -0.00076
8.2 -0.00053
8.25 -0.00034
8.3 0.00035
8.35 0.00034
8.4 0.00006
8.45 0.00031
8.5 0.00053
8.55 -0.00006
8.6 0.00019
8.65 0.00004
8.7 -0.00044
8.75 -0.00033
8.8 -0.00076
8.85 -0.00138
8.9 -0.00085
8.95 0.00028
9 0.00077
9.05 0.00179
9.1 0.0021
9.15 0.00198
9.2 0.00201
9.25 0.0012
9.3 0.00077
9.35 0.00116
9.4 0.00139
9.45 0.00085
9.5 0.00058
9.55 -0.00004
9.6 -0.00087
9.65 -0.00105
9.7 -0.00135
9.75 -0.00185
9.8 -0.00252
9.85 -0.00304
9.9 -0.00291
9.95 -0.00282
10 -0.00189
10.05 -0.00107
10.1 -0.0011
10.15 -0.00024
10.2 0.00014
10.25 0.00021
10.3 0.00063
10.35 0.00158
10.4 0.00153
10.45 0.00188
10.5 0.00162
10.55 0.00137
10.6 0.00085
10.65 0.00116
10.7 0.00097
10.75 0.00081
10.8 0.00067
10.85 0.00031
10.9 0.00044
10.95 0.00058
11 0.0003
11.05 0.00033
11.1 0.00097
11.15 0.00177
11.2 0.00212
11.25 0.00276
11.3 0.00303
11.35 0.00247
11.4 0.00195
11.45 0.00106
11.5 0.00038
11.55 -0.00028
11.6 -0.00006
11.65 -0.00015
11.7 -0.0008
11.75 -0.00069
11.8 -0.00069
11.85 -0.00032
11.9 0.00005
11.95 0.00059
12 0.00103
12.05 0.00142
12.1 0.00116
12.15 0.00134
12.2 0.00087
12.25 0.00027
12.3 -0.00033
12.35 -0.00087
12.4 -0.00049
12.45 0.00055
12.5 0.00107
12.55 0.00205
12.6 0.0032
12.65 0.00393
12.7 0.00339
12.75 0.00296
12.8 0.00219
12.85 0.00108
12.9 -0.0002
12.95 -0.00111
13 -0.00139
13.05 -0.00078
13.1 0.00034
13.15 0.00034
13.2 0.0005
13.25 0.00118
13.3 0.00085
13.35 0.00015
13.4 -0.00075
13.45 -0.00155
13.5 -0.00246
13.55 -0.00332
13.6 -0.00305
13.65 -0.00197
13.7 -0.0011
13.75 -0.00037
13.8 0.00049
13.85 0.00167
13.9 0.00237
13.95 0.00202
14 0.00129
14.05 0.00059
14.1 0.00045
14.15 -0.00037
14.2 -0.00121
14.25 -0.00106
14.3 -0.00127
14.35 -0.00086
14.4 -0.00081
14.45 -0.00117
14.5 -0.00103
14.55 -0.00011
14.6 0.00002
14.65 -0.00041
14.7 -0.00048
14.75 -0.00086
14.8 -0.00063
14.85 -0.00033
14.9 0.00045
14.95 0.00075
15 0.00143
15.05 0.00164
15.1 0.00099
15.15 0.00125
15.2 0.00143
15.25 0.00126
15.3 0.00106
15.35 0.00086
15.4 0.0007
15.45 0.00058
15.5 0.00107
15.55 0.00122
15.6 0.00052
15.65 -0.0001
15.7 -0.00095
15.75 -0.00139
15.8 -0.00101
15.85 -0.00082
15.9 -0.00062
15.95 -0.00099
16 -0.00175
16.05 -0.00133
16.1 -0.00165
16.15 -0.00164
16.2 -0.00111
16.25 -0.00109
16.3 -0.00111
16.35 -0.0006
16.4 -0.00073
16.45 -0.00046
16.5 -0.00064
16.55 -0.00134
16.6 -0.00105
16.65 -0.00023
16.7 0.00056
16.75 0.00171
16.8 0.00254
16.85 0.00279
16.9 0.00231
16.95 0.0018
17 0.00142
17.05 0.00042
17.1 -0.00033
17.15 -0.00085
17.2 -0.00152
17.25 -0.00189
17.3 -0.00271
17.35 -0.00333
17.4 -0.00331
17.45 -0.00239
17.5 -0.00234
17.55 -0.00161
17.6 -0.0014
17.65 -0.00121
17.7 -0.00124
17.75 -0.00163
17.8 -0.00202
17.85 -0.0027
17.9 -0.00316
17.95 -0.00279
18 -0.00163
18.05 -0.00062
18.1 0.00034
18.15 0.00059
18.2 0.00002
18.25 -0.00003
18.3 0.0007
18.35 0.00179
18.4 0.00272
18.45 0.00369
18.5 0.00382
18.55 0.00412
18.6 0.00384
18.65 0.00295
18.7 0.00212
18.75 0.00078
18.8 -0.00072
18.85 -0.00098
18.9 -0.00121
18.95 -0.00138
19 -0.00099
19.05 -0.00017
19.1 0.00039
19.15 0.00122
19.2 0.00101
19.25 0.00036
19.3 -0.00048
19.35 -0.00116
19.4 -0.00105
19.45 -0.00122
19.5 -0.00181
19.55 -0.00154
19.6 -0.00088
19.65 -0.00053
19.7 -0.0006
19.75 -0.0013
19.8 -0.00232
19.85 -0.00329
19.9 -0.00287
19.95 -0.0028
20 -0.00206
20.05 -0.0013
20.1 -0.00041
20.15 -0.00044
20.2 -0.00051
20.25 -0.00118
20.3 -0.00209
20.35 -0.00262
20.4 -0.00329
20.45 -0.00292
20.5 -0.00275
20.55 -0.00197
20.6 -0.00097
20.65 0.00052
20.7 0.00109
20.75 0.00192
20.8 0.00181
20.85 0.00115
20.9 0.00015
20.95 -0.00059
21 -0.00159
21.05 -0.00221
21.1 -0.00231
21.15 -0.00285
21.2 -0.00313
21.25 -0.00307
21.3 -0.00313
21.35 -0.0027
21.4 -0.00276
21.45 -0.00205
21.5 -0.00071
21.55 0.00087
21.6 0.00255
21.65 0.0036
21.7 0.00403
21.75 0.00435
21.8 0.00391
21.85 0.00402
21.9 0.00424
21.95 0.00456
22 0.00375
22.05 0.00309
22.1 0.00185
22.15 0.00097
22.2 0.0007
22.25 0.00021
22.3 0.0005
22.35 0.00048
22.4 0.00053
22.45 0.00008
22.5 -0.00043
22.55 -0.00042
22.6 -0.00088
22.65 -0.00108
22.7 -0.0008
22.75 -0.0004
22.8 -0.00016
22.85 0.00028
22.9 -0.00005
22.95 0.00006
23 -0.00045
23.05 0
23.1 -0.00043
23.15 -0.00023
23.2 0.00028
23.25 0.00071
23.3 0.00104
23.35 0.00132
23.4 0.00184
23.45 0.00274
23.5 0.00324
23.55 0.00367
23.6 0.00368
23.65 0.00319
23.7 0.00194
23.75 0.00072
23.8 -0.00071
23.85 -0.00091
23.9 -0.0003
23.95 -0.00044
24 -0.00014
24.05 -0.00061
24.1 -0.00111
24.15 -0.00109
24.2 -0.00115
24.25 -0.00154
24.3 -0.00158
24.35 -0.00194
24.4 -0.00165
24.45 -0.00149
24.5 -0.0009
24.55 -0.00104
24.6 -0.00092
24.65 -0.00096
24.7 -0.00109
24.75 -0.0016
24.8 -0.00213
24.85 -0.00267
24.9 -0.00328
24.95 -0.00405
25 -0.00359
25.05 -0.00334
25.1 -0.00333
25.15 -0.00342
25.2 -0.00295
25.25 -0.00282
25.3 -0.00259
25.35 -0.00242
25.4 -0.00207
25.45 -0.00181
25.5 -0.0019
25.55 -0.00152
25.6 -0.0011
25.65 -0.00051
25.7 0.00024
25.75 0.00123
25.8 0.00159
25.85 0.00189
25.9 0.00252
25.95 0.00249
26 0.00182
26.05 0.00104
26.1 0.00013
26.15 -0.00038
26.2 -0.00076
26.25 -0.00159
26.3 -0.00244
26.35 -0.0032
26.4 -0.00401
26.45 -0.00461
26.5 -0.00474
26.55 -0.00406
26.6 -0.00257
26.65 -0.00104
26.7 -0.00001
26.75 0.00011
26.8 0.00079
26.85 0.00165
26.9 0.00158
26.95 0.00189
27 0.00186
27.05 0.00131
27.1 0.00096
27.15 0.00007
27.2 -0.00084
27.25 -0.00169
27.3 -0.00141
27.35 -0.00051
27.4 0.00029
27.45 0.00104
27.5 0.00116
27.55 0.00196
27.6 0.00246
27.65 0.00319
27.7 0.00302
27.75 0.00288
27.8 0.00224
27.85 0.00163
27.9 0.00046
27.95 -0.0005
28 -0.00056
28.05 0.00021
28.1 0.00096
28.15 0.00109
28.2 0.0007
28.25 0.00115
28.3 0.00074
28.35 0.00014
28.4 -0.00054
28.45 -0.00121
28.5 -0.00098
28.55 -0.00056
28.6 -0.00065
28.65 -0.00029
28.7 -0.00072
28.75 -0.00109
28.8 -0.00133
28.85 -0.00128
28.9 -0.00088
28.95 -0.0007
29 -0.00001
29.05 0.00087
29.1 0.00166
29.15 0.00235
29.2 0.00249
29.25 0.00247
29.3 0.00196
29.35 0.00131
29.4 0.00146
29.45 0.00074
29.5 0.00071
29.55 0.00019
29.6 -0.00021
29.65 -0.00036
29.7 -0.00007
29.75 0.00075
29.8 0.00165
29.85 0.00252
29.9 0.00328
29.95 0.00329
30 0.00235
30.05 0.00164
30.1 0.00163
30.15 0.00147
30.2 0.00061
30.25 -0.00067
30.3 -0.0019
30.35 -0.00229
30.4 -0.00254
30.45 -0.00278
30.5 -0.00316
30.55 -0.00319
30.6 -0.00309
30.65 -0.00233
30.7 -0.00123
30.75 -0.00044
30.8 0.00072
30.85 0.00183
30.9 0.00296
30.95 0.00375
31 0.0033
31.05 0.00303
31.1 0.00232
31.15 0.00134
31.2 0.00089
31.25 0.00062
31.3 0.00055
31.35 0.00001
31.4 -0.00048
31.45 -0.00114
31.5 -0.00178
31.55 -0.0024
31.6 -0.00181
31.65 -0.00145
31.7 -0.00076
31.75 -0.00096
31.8 -0.00112
31.85 -0.00125
31.9 -0.00119
31.95 -0.0006
32 -0.00052
32.05 -0.00017
32.1 -0.0005
32.15 -0.00012
32.2 0.00065
32.25 0.00167
32.3 0.00292
32.35 0.00345
32.4 0.00314
32.45 0.00337
32.5 0.00275
32.55 0.00173
32.6 0.00052
32.65 0.00017
32.7 0.00016
32.75 0.00011
32.8 -0.00001
32.85 -0.00016
32.9 0.00038
32.95 0.00031
33 0.00082
33.05 0.00138
33.1 0.00233
33.15 0.00265
33.2 0.00286
33.25 0.00237
33.3 0.00207
33.35 0.00119
33.4 0.00036
33.45 0.00005
33.5 -0.00046
33.55 -0.00112
33.6 -0.00172
33.65 -0.00187
33.7 -0.00223
33.75 -0.00283
33.8 -0.00242
33.85 -0.00268
33.9 -0.00255
33.95 -0.00217
34 -0.00201
34.05 -0.00161
34.1 -0.0012
34.15 -0.00095
34.2 -0.00001
34.25 0.00047
34.3 0.00087
34.35 0.001
34.4 0.00161
34.45 0.0017
34.5 0.00159
34.55 0.00115
34.6 0.00092
34.65 0.00101
34.7 0.00102
34.75 0.00044
34.8 -0.00018
34.85 -0.00112
34.9 -0.00146
34.95 -0.0009
35 0.00013
35.05 0.00017
35.1 0.00048
35.15 0.00037
35.2 0.00011
35.25 -0.00012
35.3 0.00029
35.35 0.00022
35.4 0.00015
35.45 0.00021
35.5 0.00078
35.55 0.00064
35.6 0.00021
35.65 0.00052
35.7 0.00099
35.75 0.00177
35.8 0.00194
35.85 0.00197
35.9 0.00136
35.95 0.00063
36 0.00006
36.05 -0.0002
36.1 -0.00085
36.15 -0.00182
36.2 -0.00267
36.25 -0.00355
36.3 -0.00314
36.35 -0.00188
36.4 -0.00063
36.45 0.00044
36.5 0.0008
36.55 0.00083
36.6 0.00071
36.65 0.00044
36.7 0.00091
36.75 0.00082
36.8 0.00083
36.85 0.00036
36.9 -0.00045
36.95 -0.00094
37 -0.00138
37.05 -0.00212
37.1 -0.003
37.15 -0.0029
37.2 -0.00197
37.25 -0.00119
37.3 -0.0013
37.35 -0.00061
37.4 0.00044
37.45 0.0018
37.5 0.00295
37.55 0.00398
37.6 0.00395
37.65 0.00413
37.7 0.00458
37.75 0.00507
37.8 0.00557
37.85 0.00575
37.9 0.00578
37.95 0.00544
38 0.00435
38.05 0.00321
38.1 0.00245
38.15 0.00233
38.2 0.00227
38.25 0.00137
38.3 0.00131
38.35 0.00071
38.4 0.00007
38.45 -0.00062
38.5 -0.00033
38.55 -0.00088
38.6 -0.0012
38.65 -0.00133
38.7 -0.00205
38.75 -0.0019
38.8 -0.00165
38.85 -0.00137
38.9 -0.00043
38.95 0.00011
39 0.00103
39.05 0.00221
39.1 0.0021
39.15 0.00159
39.2 0.00134
39.25 0.001
39.3 0.0002
39.35 -0.00027
39.4 -0.00088
39.45 -0.00068
39.5 -0.00042
39.55 0.00033
39.6 0.00072
39.65 0.00143
39.7 0.00168
39.75 0.00156
39.8 0.00186
39.85 0.00239
39.9 0.00189
39.95 0.00177
40 0.00205
40.05 0.00187
40.1 0.00178
40.15 0.00176
40.2 0.00113
40.25 0.00034
40.3 -0.00073
40.35 -0.00083
40.4 -0.00016
40.45 0.00046
40.5 0.00107
40.55 0.00064
40.6 0.00034
40.65 0.00032
40.7 0.00045
40.75 0.00042
40.8 -0.00006
40.85 -0.00076
40.9 -0.0015
40.95 -0.00232
41 -0.00297
41.05 -0.00324
41.1 -0.00299
41.15 -0.0031
41.2 -0.00243
41.25 -0.00172
41.3 -0.00193
41.35 -0.00241
41.4 -0.0025
41.45 -0.00285
41.5 -0.0038
41.55 -0.00527
41.6 -0.00735
41.65 -0.00879
41.7 -0.01064
41.75 -0.01304
41.8 -0.01581
41.85 -0.01859
41.9 -0.0219
41.95 -0.02547
42 -0.02966
42.05 -0.03332
42.1 -0.03751
42.15 -0.0429
42.2 -0.04882
42.25 -0.05591
42.3 -0.06386
42.35 -0.07225
42.4 -0.08141
42.45 -0.09161
42.5 -0.10358
42.55 -0.1172
42.6 -0.13173
42.65 -0.14809
42.7 -0.1661
42.75 -0.18541
42.8 -0.20479
42.85 -0.22461
42.9 -0.2455
42.95 -0.26622
43 -0.28644
43.05 -0.30758
43.1 -0.32874
43.15 -0.34984
43.2 -0.37051
43.25 -0.38956
43.3 -0.40721
43.35 -0.42357
43.4 -0.43676
43.45 -0.44738
43.5 -0.45603
43.55 -0.46198
43.6 -0.46572
43.65 -0.46687
43.7 -0.46436
43.75 -0.45927
43.8 -0.45064
43.85 -0.43944
43.9 -0.42534
43.95 -0.40852
44 -0.38914
44.05 -0.36695
44.1 -0.34133
44.15 -0.31339
44.2 -0.28363
44.25 -0.25311
44.3 -0.22063
44.35 -0.1873
44.4 -0.15457
44.45 -0.12096
44.5 -0.0872
44.55 -0.05409
44.6 -0.022
44.65 0.00929
44.7 0.03856
44.75 0.06645
44.8 0.09298
44.85 0.11823
44.9 0.14254
44.95 0.16502
45 0.18569
45.05 0.2045
45.1 0.2217
45.15 0.23733
45.2 0.25168
45.25 0.26421
45.3 0.27496
45.35 0.28408
45.4 0.29228
45.45 0.29989
45.5 0.30672
45.55 0.3115
45.6 0.31553
45.65 0.31919
45.7 0.32247
45.75 0.3251
45.8 0.32725
45.85 0.32804
45.9 0.32878
45.95 0.32874
46 0.32817
46.05 0.32708
46.1 0.32679
46.15 0.32662
46.2 0.32611
46.25 0.32587
46.3 0.3259
46.35 0.32564
46.4 0.32558
46.45 0.32414
46.5 0.32306
46.55 0.32167
46.6 0.32032
46.65 0.31753
46.7 0.31387
46.75 0.30953
46.8 0.30511
46.85 0.30093
46.9 0.29682
46.95 0.29276
47 0.28823
47.05 0.28319
47.1 0.27782
47.15 0.27321
47.2 0.26786
47.25 0.26275
47.3 0.25705
47.35 0.25156
47.4 0.245
47.45 0.23919
47.5 0.23355
47.55 0.22804
47.6 0.22256
47.65 0.21661
47.7 0.20941
47.75 0.20226
47.8 0.19506
47.85 0.18825
47.9 0.18171
47.95 0.17418
48 0.16603
48.05 0.15833
48.1 0.15148
48.15 0.14487
48.2 0.13795
48.25 0.13154
48.3 0.12565
48.35 0.11937
48.4 0.1132
48.45 0.10672
48.5 0.09993
48.55 0.09383
48.6 0.08826
48.65 0.08223
48.7 0.07592
48.75 0.07016
48.8 0.06403
48.85 0.05782
48.9 0.05148
48.95 0.04591
49 0.04109
49.05 0.03661
49.1 0.03144
49.15 0.02684
49.2 0.02228
49.25 0.01723
49.3 0.01291
49.35 0.00878
49.4 0.00506
49.45 0.00155
49.5 -0.00308
49.55 -0.00822
49.6 -0.01311
49.65 -0.018
49.7 -0.02268
49.75 -0.02677
49.8 -0.0304
49.85 -0.03375
49.9 -0.03598
49.95 -0.03748
50 -0.0395
50.05 -0.04164
50.1 -0.04418
50.15 -0.04646
50.2 -0.0484
50.25 -0.05005
50.3 -0.05137
50.35 -0.05318
50.4 -0.05409
50.45 -0.05554
50.5 -0.05704
50.55 -0.058
50.6 -0.05857
50.65 -0.05894
50.7 -0.05961
50.75 -0.05945
50.8 -0.05967
50.85 -0.0598
50.9 -0.05959
50.95 -0.05927
51 -0.05865
51.05 -0.05836
51.1 -0.05865
51.15 -0.0588
51.2 -0.05847
51.25 -0.05839
51.3 -0.05793
51.35 -0.05783
51.4 -0.05806
51.45 -0.05809
51.5 -0.05795
51.55 -0.05821
51.6 -0.05807
51.65 -0.05866
51.7 -0.05861
51.75 -0.05835
51.8 -0.05739
51.85 -0.05685
51.9 -0.05591
51.95 -0.05507
52 -0.05409
52.05 -0.05413
52.1 -0.05385
52.15 -0.05369
52.2 -0.05294
52.25 -0.05282
52.3 -0.05185
52.35 -0.0515
52.4 -0.05146
52.45 -0.05091
52.5 -0.0497
52.55 -0.04849
52.6 -0.04792
52.65 -0.04788
52.7 -0.04778
52.75 -0.04806
52.8 -0.0484
52.85 -0.04791
52.9 -0.04645
52.95 -0.04579
53 -0.04527
53.05 -0.04473
53.1 -0.04388
53.15 -0.04343
53.2 -0.04247
53.25 -0.04081
53.3 -0.03923
53.35 -0.03863
53.4 -0.03822
53.45 -0.0384
53.5 -0.03837
53.55 -0.03806
53.6 -0.03781
53.65 -0.03729
53.7 -0.03658
53.75 -0.03508
53.8 -0.03334
53.85 -0.03274
53.9 -0.03164
53.95 -0.03035
54 -0.02875
54.05 -0.02798
54.1 -0.02776
54.15 -0.02744
54.2 -0.02802
54.25 -0.02886
54.3 -0.02902
54.35 -0.02914
54.4 -0.0289
54.45 -0.02787
54.5 -0.02673
54.55 -0.02624
54.6 -0.02593
54.65 -0.02506
54.7 -0.0242
54.75 -0.0229
54.8 -0.0225
54.85 -0.02192
54.9 -0.0213
54.95 -0.02119
55 -0.021
55.05 -0.02167
55.1 -0.02208
55.15 -0.02191
55.2 -0.02239
55.25 -0.02299
55.3 -0.02325
55.35 -0.02284
55.4 -0.0228
55.45 -0.02275
55.5 -0.02259
55.55 -0.02233
55.6 -0.02184
55.65 -0.0216
55.7 -0.02128
55.75 -0.02143
55.8 -0.02098
55.85 -0.02011
55.9 -0.01864
55.95 -0.01745
56 -0.01648
56.05 -0.01511
56.1 -0.01445
56.15 -0.01438
56.2 -0.01469
56.25 -0.01471
56.3 -0.01444
56.35 -0.01378
56.4 -0.01371
56.45 -0.01419
56.5 -0.01417
56.55 -0.01474
56.6 -0.01463
56.65 -0.01386
56.7 -0.01256
56.75 -0.01207
56.8 -0.01231
56.85 -0.01206
56.9 -0.012
56.95 -0.01268
57 -0.01306
57.05 -0.0139
57.1 -0.01414
57.15 -0.01363
57.2 -0.01362
57.25 -0.01284
57.3 -0.01237
57.35 -0.01227
57.4 -0.01273
57.45 -0.01313
57.5 -0.01314
57.55 -0.01335
57.6 -0.01357
57.65 -0.01285
57.7 -0.01181
57.75 -0.01131
57.8 -0.01137
57.85 -0.01189
57.9 -0.01157
57.95 -0.01092
58 -0.01014
58.05 -0.00889
58.1 -0.00827
58.15 -0.00729
58.2 -0.00734
58.25 -0.00776
58.3 -0.00769
58.35 -0.00822
58.4 -0.00916
58.45 -0.00946
58.5 -0.00957
58.55 -0.00867
58.6 -0.00729
58.65 -0.00706
58.7 -0.00641
58.75 -0.00652
58.8 -0.00723
58.85 -0.0075
58.9 -0.00723
58.95 -0.00696
59 -0.00654
59.05 -0.00559
59.1 -0.00528
59.15 -0.00541
59.2 -0.00512
59.25 -0.00496
59.3 -0.00446
59.35 -0.00446
59.4 -0.00437
59.45 -0.0038
59.5 -0.00361
59.55 -0.00312
59.6 -0.00292
59.65 -0.00248
59.7 -0.00211
59.75 -0.00203
59.8 -0.00213
59.85 -0.00171
59.9 -0.00122
59.95 -0.00077
60 -0.00127
60.05 -0.00138
60.1 -0.00159
60.15 -0.00241
60.2 -0.00288
60.25 -0.00267
60.3 -0.00262
60.35 -0.0031
60.4 -0.0042
60.45 -0.00527
60.5 -0.00552
60.55 -0.00585
60.6 -0.00572
60.65 -0.00557
60.7 -0.00494
60.75 -0.00442
60.8 -0.00357
60.85 -0.00309
60.9 -0.00283
60.95 -0.00263
61 -0.00289
61.05 -0.00251
61.1 -0.00265
61.15 -0.00293
61.2 -0.00271
61.25 -0.00237
61.3 -0.00211
61.35 -0.00205
61.4 -0.00286
61.45 -0.00345
61.5 -0.0037
61.55 -0.00411
61.6 -0.00437
61.65 -0.0039
61.7 -0.00356
61.75 -0.00255
61.8 -0.00173
61.85 -0.00162
61.9 -0.00205
61.95 -0.00303
62 -0.00408
62.05 -0.00445
62.1 -0.00421
62.15 -0.00366
62.2 -0.00293
62.25 -0.00197
62.3 -0.00196
62.35 -0.00218
62.4 -0.0025
62.45 -0.00221
62.5 -0.00162
62.55 -0.0014
62.6 -0.00079
62.65 -0.00036
62.7 -0.0006
62.75 -0.00162
62.8 -0.00229
62.85 -0.00251
62.9 -0.00275
62.95 -0.00353
63 -0.0046
63.05 -0.00509
63.1 -0.00572
63.15 -0.00517
63.2 -0.00501
63.25 -0.00434
63.3 -0.0031
63.35 -0.00186
63.4 -0.00079
63.45 -0.00075
63.5 -0.00069
63.55 -0.00076
63.6 -0.00087
63.65 -0.00118
63.7 -0.00158
63.75 -0.00245
63.8 -0.00235
63.85 -0.00266
63.9 -0.00348
63.95 -0.00313
64 -0.0024
64.05 -0.00218
64.1 -0.00219
64.15 -0.00149
64.2 -0.00062
64.25 -0.0002
64.3 0.00016
64.35 -0.00003
64.4 -0.00018
64.45 -0.00048
64.5 -0.00137
64.55 -0.00192
64.6 -0.00167
64.65 -0.00091
64.7 -0.00009
64.75 0.0003
64.8 -0.00018
64.85 0.00007
64.9 -0.00023
64.95 -0.00043
65 -0.00044
65.05 -0.00035
65.1 0.00033
65.15 0.00044
65.2 0.00084
65.25 0.00021
65.3 -0.00042
65.35 -0.00147
65.4 -0.00233
65.45 -0.0024
65.5 -0.0028
65.55 -0.00253
65.6 -0.00203
65.65 -0.00127
65.7 -0.00041
65.75 0.00048
65.8 0.00042
65.85 -0.00039
65.9 -0.00156
65.95 -0.00191
66 -0.00131
66.05 -0.00089
66.1 -0.0009
66.15 -0.00152
66.2 -0.00177
66.25 -0.00129
66.3 -0.00133
66.35 -0.00072
66.4 0.00028
66.45 0.00111
66.5 0.00102
66.55 0.00039
66.6 0.00059
66.65 -0.00008
66.7 -0.00093
66.75 -0.00074
66.8 0.00008
66.85 0.00075
66.9 0.00102
66.95 0.00032
67 -0.0006
67.05 -0.00176
67.1 -0.00214
67.15 -0.00188
67.2 -0.00108
67.25 0.00012
67.3 0.00063
67.35 0.00014
67.4 -0.00087
67.45 -0.00077
67.5 -0.00116
67.55 -0.00148
67.6 -0.00227
67.65 -0.00241
67.7 -0.0028
67.75 -0.00304
67.8 -0.00285
67.85 -0.00258
67.9 -0.00203
67.95 -0.00097
68 -0.00001
68.05 -0.00013
68.1 -0.0004
68.15 -0.00088
68.2 -0.00098
68.25 -0.00153
68.3 -0.00134
68.35 -0.00127
68.4 -0.00145
68.45 -0.00205
68.5 -0.00263
68.55 -0.00234
68.6 -0.0016
68.65 -0.0006
68.7 0.00078
68.75 0.00216
68.8 0.00357
68.85 0.00401
68.9 0.00347
68.95 0.00333
69 0.00341
69.05 0.003
69.1 0.00297
69.15 0.00253
69.2 0.00144
69.25 0.00077
69.3 0.00083
69.35 0.00125
69.4 0.00128
69.45 0.00046
69.5 -0.00082
69.55 -0.00096
69.6 -0.00033
69.65 0.0001
69.7 0.00041
69.75 0.00049
69.8 0.00106
69.85 0.00109
69.9 0.00104
69.95 0.00074
70 0.00011
70.05 -0.00056
70.1 -0.00038
70.15 -0.00051
70.2 -0.00074
70.25 -0.00155
70.3 -0.00181
70.35 -0.00179
70.4 -0.00191
70.45 -0.00163
70.5 -0.0019
70.55 -0.00207
70.6 -0.00195
70.65 -0.00196
70.7 -0.00228
70.75 -0.0016
70.8 -0.0018
70.85 -0.00218
70.9 -0.00197
70.95 -0.00151
71 -0.00086
71.05 -0.00063
71.1 0.00018
71.15 0.0008
71.2 0.00132
71.25 0.00078
71.3 0.00103
71.35 0.00079
71.4 0.00116
71.45 0.00181
71.5 0.00226
71.55 0.00233
71.6 0.00212
71.65 0.00125
71.7 0.00074
71.75 0.00096
71.8 0.0014
71.85 0.00201
71.9 0.00146
71.95 0.00098
72 0.00023
72.05 -0.00016
72.1 -0.00078
72.15 -0.00137
72.2 -0.00191
72.25 -0.00143
72.3 -0.00056
72.35 -0.00021
72.4 0.00008
72.45 0.00043
72.5 0.00013
72.55 0.00029
72.6 -0.00042
72.65 -0.00077
72.7 -0.00118
72.75 -0.00078
72.8 -0.00022
72.85 0.00032
72.9 0.00098
72.95 0.00057
73 0.0008
73.05 0.00035
73.1 -0.00057
73.15 -0.00164
73.2 -0.00189
73.25 -0.00144
73.3 -0.00091
73.35 -0.00002
73.4 0.00008
73.45 -0.00027
73.5 -0.00058
73.55 -0.00141
73.6 -0.00164
73.65 -0.002
73.7 -0.00145
73.75 -0.00166
73.8 -0.00217
73.85 -0.00292
73.9 -0.0025
73.95 -0.00166
74 -0.00111
74.05 -0.00042
74.1 0.00077
74.15 0.00128
74.2 0.00213
74.25 0.00296
74.3 0.00378
74.35 0.00344
74.4 0.00258
74.45 0.00146
74.5 -0.00016
74.55 -0.0008
74.6 -0.00172
74.65 -0.00187
74.7 -0.00129
74.75 -0.00085
74.8 -0.00048
74.85 -0.00024
74.9 -0.00059
74.95 -0.00088
75 -0.00029
75.05 0.00052
75.1 0.00079
75.15 0.00054
75.2 0.00034
75.25 0.0006
75.3 0.00007
75.35 0.00001
75.4 -0.00023
75.45 -0.00073
75.5 -0.00154
75.55 -0.00221
75.6 -0.00293
75.65 -0.0027
75.7 -0.00281
75.75 -0.00287
75.8 -0.00292
75.85 -0.00232
75.9 -0.00207
75.95 -0.0011
76 -0.00089
76.05 -0.00132
76.1 -0.0013
76.15 -0.00062
76.2 -0.00084
76.25 -0.00158
76.3 -0.00139
76.35 -0.00047
76.4 0.00066
76.45 0.00124
76.5 0.00089
76.55 0.00034
76.6 0.00008
76.65 -0.00001
76.7 -0.00082
76.75 -0.00092
76.8 -0.00121
76.85 -0.00134
76.9 -0.00171
76.95 -0.00251
77 -0.00293
77.05 -0.00277
77.1 -0.00289
77.15 -0.0022
77.2 -0.00141
77.25 -0.00145
77.3 -0.00113
77.35 -0.00138
77.4 -0.0014
77.45 -0.0012
77.5 -0.00041
77.55 -0.00023
77.6 -0.00023
77.65 -0.00066
77.7 -0.0004
77.75 -0.00001
77.8 -0.00014
77.85 0.00021
77.9 0.00064
77.95 0.00077
78 0.00136
78.05 0.00197
78.1 0.0019
78.15 0.00215
78.2 0.00194
78.25 0.002
78.3 0.00116
78.35 0.00021
78.4 0.0001
78.45 -0.00023
78.5 -0.00097
78.55 -0.00096
78.6 -0.00078
78.65 -0.00086
78.7 -0.00141
78.75 -0.00216
78.8 -0.00294
78.85 -0.00364
78.9 -0.00439
78.95 -0.00414
79 -0.00391
79.05 -0.0028
79.1 -0.00146
79.15 -0.00102
79.2 -0.00133
79.25 -0.00078
79.3 -0.00031
79.35 -0.00064
79.4 -0.00114
79.45 -0.00156
79.5 -0.0023
79.55 -0.00245
79.6 -0.00252
79.65 -0.00155
79.7 -0.0004
79.75 0.00041
79.8 0.00073
79.85 0.00092
79.9 0.0013
79.95 0.00117
80 0.00173
80.05 0.00243
80.1 0.00217
80.15 0.00125
80.2 0.00022
80.25 -0.00082
80.3 -0.00123
80.35 -0.0017
80.4 -0.00109
80.45 -0.00082
80.5 -0.00024
80.55 -0.00026
80.6 0.00007
80.65 0.00056
80.7 0.00107
80.75 0.00103
80.8 0.00077
80.85 0.00129
80.9 0.00132
80.95 0.00074
81 -0.00003
81.05 -0.00065
81.1 -0.0012
81.15 -0.00186
81.2 -0.00135
81.25 -0.00047
81.3 0.00016
81.35 0.00059
81.4 0.00064
81.45 0.00136
81.5 0.00121
81.55 0.00159
81.6 0.00142
81.65 0.00137
81.7 0.00146
81.75 0.00132
81.8 0.00095
81.85 0.00087
81.9 0.00089
81.95 0.00076
82 0.00099
82.05 0.00135
82.1 0.00201
82.15 0.00179
82.2 0.00134
82.25 0.00068
82.3 0.00055
82.35 -0.00005
82.4 -0.00067
82.45 -0.00148
82.5 -0.00167
82.55 -0.00193
82.6 -0.00261
82.65 -0.00327
82.7 -0.004
82.75 -0.00427
82.8 -0.00467
82.85 -0.00423
82.9 -0.00396
82.95 -0.00353
83 -0.00323
83.05 -0.0027
83.1 -0.00146
83.15 -0.00041
83.2 -0.00013
83.25 0.00082
83.3 0.00173
83.35 0.00216
83.4 0.00302
83.45 0.00329
83.5 0.00266
83.55 0.00231
83.6 0.00131
83.65 0.00061
83.7 -0.00039
83.75 -0.00076
83.8 -0.0003
83.85 0.00081
83.9 0.00198
83.95 0.00207
84 0.00275
84.05 0.00239
84.1 0.00228
84.15 0.00251
84.2 0.00228
84.25 0.00174
84.3 0.0006
84.35 -0.00057
84.4 -0.00123
84.45 -0.00206
84.5 -0.00196
84.55 -0.00112
84.6 -0.0001
84.65 0.00027
84.7 0.00082
84.75 0.00064
84.8 0.00119
84.85 0.0009
84.9 0.00006
84.95 -0.00064
85 -0.00154
85.05 -0.00197
85.1 -0.00211
85.15 -0.00237
85.2 -0.00282
85.25 -0.00304
85.3 -0.00276
85.35 -0.003
85.4 -0.00264
85.45 -0.00198
85.5 -0.00085
85.55 -0.00071
85.6 -0.00039
85.65 -0.00047
85.7 -0.00043
85.75 0.00024
85.8 0.00064
85.85 0.00137
85.9 0.00194
85.95 0.00183
86 0.00224
86.05 0.00205
86.1 0.0011
86.15 0.00017
86.2 0.00018
86.25 -0.00044
86.3 -0.00076
86.35 -0.00015
86.4 0.0002
86.45 0.00111
86.5 0.00152
86.55 0.00154
86.6 0.001
86.65 0.00002
86.7 -0.00066
86.75 -0.0004
86.8 -0.0003
86.85 0.0001
86.9 0.00003
86.95 0.00027
87 0.0005
87.05 0.00022
87.1 -0.00017
87.15 0.00007
87.2 0.00019
87.25 0.00001
87.3 -0.00017
87.35 0.00008
87.4 0.00068
87.45 0.00036
87.5 0.00081
87.55 0.00042
87.6 0.0009
87.65 0.00047
87.7 -0.00038
87.75 -0.00051
87.8 -0.00052
87.85 -0.00096
87.9 -0.00073
87.95 0.00014
88 0.00097
88.05 0.00197
88.1 0.00264
88.15 0.00304
88.2 0.00378
88.25 0.00326
88.3 0.002
88.35 0.0014
88.4 0.00114
88.45 0.00087
88.5 0.00128
88.55 0.00099
88.6 0.00087
88.65 0.00116
88.7 0.00143
88.75 0.00159
88.8 0.00169
88.85 0.00209
88.9 0.00196
88.95 0.00242
89 0.0018
89.05 0.00136
89.1 0.00031
89.15 0.00034
89.2 0.00028
89.25 0.00018
89.3 0.00042
89.35 -0.00004
89.4 -0.00055
89.45 -0.00036
89.5 -0.00086
89.55 -0.00132
89.6 -0.00085
89.65 -0.00108
89.7 -0.00101
89.75 -0.00031
89.8 0.0004
89.85 0.00078
89.9 0.00071
89.95 0.00106
90 0.00098
90.05 0.0006
90.1 -0.00026
90.15 -0.00076
90.2 -0.00032
90.25 0.00067
90.3 0.0016
90.35 0.00266
90.4 0.00254
90.45 0.00273
90.5 0.00191
90.55 0.00101
90.6 0.00036
90.65 0.00009
90.7 -0
90.75 -0.00058
90.8 -0.00045
90.85 -0.00031
90.9 0.00022
90.95 0.00102
91 0.00183
91.05 0.00251
91.1 0.00328
91.15 0.00407
91.2 0.00345
91.25 0.00223
91.3 0.00088
91.35 -0.0005
91.4 -0.00132
91.45 -0.00181
91.5 -0.00202
91.55 -0.00164
91.6 -0.00165
91.65 -0.00122
91.7 -0.001
91.75 -0.00031
91.8 -0.00047
91.85 -0.00071
91.9 -0.00156
91.95 -0.00239
92 -0.00299
92.05 -0.00372
92.1 -0.00375
92.15 -0.00339
92.2 -0.00273
92.25 -0.00257
92.3 -0.00287
92.35 -0.00211
92.4 -0.00154
92.45 -0.00062
92.5 -0.00015
92.55 -0.0002
92.6 -0.0002
92.65 0.00025
92.7 0.00056
92.75 0.00073
92.8 0.00093
92.85 0.00089
92.9 0.0011
92.95 0.0008
93 0.00012
93.05 -0.00034
93.1 -0.00112
93.15 -0.00115
93.2 -0.00163
93.25 -0.00192
93.3 -0.00132
93.35 -0.00012
93.4 0.00037
93.45 -0.00007
93.5 -0.00008
93.55 0.0001
93.6 0.00037
93.65 0.00043
93.7 0.00024
93.75 -0.00017
93.8 -0.0004
93.85 -0.00105
93.9 -0.00143
93.95 -0.00166
94 -0.00212
94.05 -0.00195
94.1 -0.00116
94.15 -0.00008
94.2 0.00103
94.25 0.00111
94.3 0.00121
94.35 0.00165
94.4 0.00133
94.45 0.00051
94.5 0.00009
94.55 -0.00089
94.6 -0.0021
94.65 -0.00311
94.7 -0.00402
94.75 -0.00408
94.8 -0.00328
94.85 -0.00276
94.9 -0.00142
94.95 0.0003
95 0.00116
95.05 0.00202
95.1 0.00277
95.15 0.00337
95.2 0.00412
95.25 0.00369
95.3 0.00242
95.35 0.00209
95.4 0.00143
95.45 0.00138
95.5 0.00177
95.55 0.00116
95.6 -0.00002
95.65 -0.00025
95.7 -0.00098
95.75 -0.00188
95.8 -0.00209
95.85 -0.00208
95.9 -0.00213
95.95 -0.00147
96 -0.00029
96.05 0.0007
96.1 0.00188
96.15 0.00313
96.2 0.00398
96.25 0.0046
96.3 0.00406
96.35 0.00307
96.4 0.00233
96.45 0.00156
96.5 0.00071
96.55 -0.00066
96.6 -0.00155
96.65 -0.00208
96.7 -0.00266
96.75 -0.00345
96.8 -0.00372
96.85 -0.00314
96.9 -0.0019
96.95 -0.00047
97 0.00017
97.05 0.00085
97.1 0.00098
97.15 0.00152
97.2 0.00243
97.25 0.00313
97.3 0.00322
97.35 0.00317
97.4 0.00301
97.45 0.00275
97.5 0.00259
97.55 0.00264
97.6 0.00308
97.65 0.00335
97.7 0.0038
97.75 0.00318
97.8 0.00198
97.85 0.00174
97.9 0.00209
97.95 0.00223
98 0.00243
98.05 0.0018
98.1 0.00087
98.15 -0.0002
98.2 -0.00075
98.25 -0.00186
98.3 -0.00228
98.35 -0.0023
98.4 -0.00223
98.45 -0.00192
98.5 -0.00163
98.55 -0.00142
98.6 -0.00135
98.65 -0.0015
98.7 -0.00145
98.75 -0.00082
98.8 -0.00086
98.85 -0.00084
98.9 -0.00113
98.95 -0.00054
99 -0.00029
99.05 -0.00077
99.1 -0.00176
99.15 -0.00291
99.2 -0.00289
99.25 -0.00296
99.3 -0.00305
99.35 -0.0022
99.4 -0.001
99.45 0.00054
99.5 0.00196
99.55 0.00338
99.6 0.00361
99.65 0.00381
99.7 0.00305
99.75 0.00232
99.8 0.00223
99.85 0.00237
99.9 0.0021
99.95 0.00121
