0 0
0.05 0.00049
0.1 0.00146
0.15 0.00218
0.2 0.00323
0.25 0.00387
0.3 0.00451
0.35 0.00533
0.4 0.00568
0.45 0.00587
0.5 0.00582
0.55 0.00558
0.6 0.0056
0.65 0.00532
0.7 0.00492
0.75 0.00446
0.8 0.00374
0.85 0.00345
0.9 0.00333
0.95 0.00352
1 0.00395
1.05 0.00431
1.1 0.00409
1.15 0.0037
1.2 0.00308
1.25 0.00305
1.3 0.00344
1.35 0.00336
1.4 0.00291
1.45 0.00299
1.5 0.00304
1.55 0.00288
1.6 0.00255
1.65 0.00271
1.7 0.00286
1.75 0.00327
1.8 0.00389
1.85 0.00458
1.9 0.00458
1.95 0.00438
2 0.004
2.05 0.00376
2.1 0.00327
2.15 0.00326
2.2 0.0031
2.25 0.00305
2.3 0.00307
2.35 0.00265
2.4 0.00217
2.45 0.00208
2.5 0.00211
2.55 0.00211
2.6 0.00202
2.65 0.00165
2.7 0.00166
2.75 0.00195
2.8 0.00213
2.85 0.00223
2.9 0.00226
2.95 0.00191
3 0.00136
3.05 0.00145
3.1 0.00123
3.15 0.00089
3.2 0.00075
3.25 0.00036
3.3 0.00033
3.35 0.00032
3.4 0.00035
3.45 0.00087
3.5 0.00167
3.55 0.00182
3.6 0.00213
3.65 0.00222
3.7 0.00227
3.75 0.002
3.8 0.00209
3.85 0.00184
3.9 0.00136
3.95 0.00139
4 0.00162
4.05 0.00182
4.1 0.00153
4.15 0.00169
4.2 0.00199
4.25 0.00188
4.3 0.00214
4.35 0.00241
4.4 0.00248
4.45 0.00261
4.5 0.00224
4.55 0.00204
4.6 0.00158
4.65 0.00087
4.7 0.00044
4.75 -0.00015
4.8 -0.00006
4.85 0.00009
4.9 0.00056
4.95 0.00104
5 0.00122
5.05 0.00118
5.1 0.00075
5.15 0.00045
5.2 0.0003
5.25 0.00035
5.3 0.00021
5.35 0.00046
5.4 0.0009
5.45 0.0008
5.5 0.00093
5.55 0.00068
5.6 0.00034
5.65 0.00023
5.7 -0.0001
5.75 0.00019
5.8 0.00006
5.85 0.00047
5.9 0.00089
5.95 0.00134
6 0.00184
6.05 0.00185
6.1 0.00168
6.15 0.00119
6.2 0.00117
6.25 0.00105
6.3 0.00091
6.35 0.00116
6.4 0.00166
6.45 0.00207
6.5 0.00185
6.55 0.00184
6.6 0.00143
6.65 0.00136
6.7 0.00154
6.75 0.00178
6.8 0.00157
6.85 0.00115
6.9 0.00072
6.95 0.00062
7 0.0009
7.05 0.00091
7.1 0.00088
7.15 0.00073
7.2 0.00035
7.25 -0.00027
7.3 -0.00055
7.35 -0.00081
7.4 -0.0006
7.45 -0.0005
7.5 -0.00043
7.55 -0.00043
7.6 -0.00022
7.65 0.00033
7.7 0.00094
7.75 0.0011
7.8 0.00152
7.85 0.00165
7.9 0.00201
7.95 0.00178
8 0.00115
8.05 0.00088
8.1 0.00052
8.15 0.00063
8.2 0.00044
8.25 0.00056
8.3 0.00068
8.35 0.00045
8.4 -0.00007
8.45 -0.00041
8.5 -0.00036
8.55 -0.00049
8.6 -0.00056
8.65 -0.00085
8.7 -0.00129
8.75 -0.00111
8.8 -0.00051
8.85 -0.00004
8.9 0.00022
8.95 0.00009
9 0.00017
9.05 0.00034
9.1 0.00056
9.15 0.00107
9.2 0.00122
9.25 0.00099
9.3 0.00095
9.35 0.00051
9.4 -0.00019
9.45 -0.00087
9.5 -0.0016
9.55 -0.00194
9.6 -0.00164
9.65 -0.00152
9.7 -0.0014
9.75 -0.00134
9.8 -0.00138
9.85 -0.00093
9.9 -0.00022
9.95 0.00004
10 -0
10.05 0.00042
10.1 0.00079
10.15 0.00091
10.2 0.00075
10.25 0.00061
10.3 0.00071
10.35 0.00078
10.4 0.00068
10.45 0.00056
10.5 0.0008
10.55 0.00111
10.6 0.00149
10.65 0.00185
10.7 0.00182
10.75 0.00182
10.8 0.00141
10.85 0.00089
10.9 0.00062
10.95 0.00052
11 0.00056
11.05 0.00094
11.1 0.0011
11.15 0.00113
11.2 0.00085
11.25 0.00082
11.3 0.00041
11.35 0.0003
11.4 0.00001
11.45 -0.00019
11.5 -0.00051
11.55 -0.00071
11.6 -0.00111
11.65 -0.00124
11.7 -0.00118
11.75 -0.00083
11.8 -0.00039
11.85 -0.00029
11.9 -0.0004
11.95 -0.00045
12 -0.00029
12.05 0.00018
12.1 0.00079
12.15 0.00122
12.2 0.00109
12.25 0.00096
12.3 0.00117
12.35 0.00145
12.4 0.00141
12.45 0.00094
12.5 0.00093
12.55 0.00091
12.6 0.00094
12.65 0.00118
12.7 0.00108
12.75 0.00096
12.8 0.0009
12.85 0.00061
12.9 0.00039
12.95 0.00052
13 0.00052
13.05 0.00053
13.1 0.00054
13.15 0.00054
13.2 0.00022
13.25 0.00026
13.3 0.00025
13.35 -0.00012
13.4 -0.00055
13.45 -0.00091
13.5 -0.00111
13.55 -0.00079
13.6 -0.00072
13.65 -0.00035
13.7 -0.0004
13.75 -0.00054
13.8 -0.00075
13.85 -0.00116
13.9 -0.00138
13.95 -0.00148
14 -0.00127
14.05 -0.00069
14.1 -0.00025
14.15 -0.00001
14.2 0.0001
14.25 0.00028
14.3 0.00004
14.35 -0.00047
14.4 -0.00049
14.45 -0.0002
14.5 0.00041
14.55 0.00069
14.6 0.0012
14.65 0.00109
14.7 0.00124
14.75 0.00123
14.8 0.00078
14.85 0.00027
14.9 -0
14.95 -0.00004
15 -0.00044
15.05 -0.00095
15.1 -0.00119
15.15 -0.00136
15.2 -0.00153
15.25 -0.00165
15.3 -0.00179
15.35 -0.00181
15.4 -0.0018
15.45 -0.0015
15.5 -0.00086
15.55 -0.00061
15.6 -0.00009
15.65 0.00043
15.7 0.0011
15.75 0.0014
15.8 0.00187
15.85 0.00209
15.9 0.00223
15.95 0.00201
16 0.002
16.05 0.00183
16.1 0.00141
16.15 0.00121
16.2 0.00123
16.25 0.00085
16.3 0.00041
16.35 -0.00031
16.4 -0.00062
16.45 -0.00046
16.5 -0.00036
16.55 -0.00027
16.6 0.00009
16.65 0.00018
16.7 0.00001
16.75 -0.00019
16.8 -0.00072
16.85 -0.00109
16.9 -0.00121
16.95 -0.0012
17 -0.00138
17.05 -0.00127
17.1 -0.0007
17.15 -0.00016
17.2 0.00017
17.25 0.00045
17.3 0.00075
17.35 0.00099
17.4 0.00112
17.45 0.00095
17.5 0.00055
17.55 0.00023
17.6 -0.00023
17.65 -0.00027
17.7 -0.00017
17.75 0.00004
17.8 0.00001
17.85 0.00018
17.9 0.00042
17.95 0.00039
18 0.00033
18.05 0.00066
18.1 0.00069
18.15 0.00028
18.2 0.00037
18.25 0.00048
18.3 0.00066
18.35 0.00095
18.4 0.00116
18.45 0.00125
18.5 0.00106
18.55 0.00115
18.6 0.00124
18.65 0.00144
18.7 0.0018
18.75 0.00162
18.8 0.00104
18.85 0.0005
18.9 0.00037
18.95 0.00055
19 0.00054
19.05 0.00064
19.1 0.00048
19.15 0.00027
19.2 -0.0002
19.25 -0.00012
19.3 -0.00043
19.35 -0.00051
19.4 -0.00038
19.45 -0.0002
19.5 -0.00012
19.55 -0.00042
19.6 -0.00039
19.65 -0.00004
19.7 -0.00003
19.75 -0.00036
19.8 -0.00017
19.85 -0.00027
19.9 -0.00001
19.95 0.00047
20 0.00065
20.05 0.00054
20.1 0.00041
20.15 -0.00003
20.2 -0.00003
20.25 -0.00045
20.3 -0.0005
20.35 -0.00085
20.4 -0.00084
20.45 -0.00056
20.5 -0.00023
20.55 0.00011
20.6 0.00062
20.65 0.00081
20.7 0.00087
20.75 0.00087
20.8 0.00071
20.85 0.00086
20.9 0.00056
20.95 0.00055
21 0.0008
21.05 0.00083
21.1 0.00043
21.15 0.00028
21.2 -0.00024
21.25 -0.00082
21.3 -0.00121
21.35 -0.00105
21.4 -0.00049
21.45 -0.00045
21.5 -0.00076
21.55 -0.00056
21.6 -0.00009
21.65 -0.00009
21.7 -0.00042
21.75 -0.00098
21.8 -0.00138
21.85 -0.00146
21.9 -0.00141
21.95 -0.00091
22 -0.00081
22.05 -0.00109
22.1 -0.00083
22.15 -0.00057
22.2 -0.00047
22.25 -0.00051
22.3 -0.00081
22.35 -0.00126
22.4 -0.00165
22.45 -0.00138
22.5 -0.00087
22.55 -0.00014
22.6 0.00041
22.65 0.00052
22.7 0.00078
22.75 0.00104
22.8 0.00126
22.85 0.00154
22.9 0.00186
22.95 0.0019
23 0.00211
23.05 0.00232
23.1 0.00182
23.15 0.00092
23.2 0.00019
23.25 -0.00039
23.3 -0.00076
23.35 -0.00063
23.4 -0.00091
23.45 -0.0008
23.5 -0.00108
23.55 -0.0015
23.6 -0.00202
23.65 -0.00183
23.7 -0.00194
23.75 -0.00191
23.8 -0.00191
23.85 -0.00174
23.9 -0.00118
23.95 -0.00086
24 -0.00072
24.05 -0.00066
24.1 -0.0008
24.15 -0.00056
24.2 -0.00028
24.25 0.00028
24.3 0.00083
24.35 0.0011
24.4 0.00091
24.45 0.0009
24.5 0.00079
24.55 0.00055
24.6 0.00017
24.65 -0.00021
24.7 -0.00051
24.75 -0.00033
24.8 -0.00058
24.85 -0.00112
24.9 -0.0014
24.95 -0.00128
25 -0.00074
25.05 -0.00013
25.1 0.00054
25.15 0.00122
25.2 0.00113
25.25 0.00077
25.3 0.0006
25.35 0.00061
25.4 0.0004
25.45 -0.00003
25.5 -0.00028
25.55 -0.00044
25.6 -0.00051
25.65 -0.00043
25.7 -0.00012
25.75 0.00028
25.8 0.00038
25.85 0.00022
25.9 0.00041
25.95 0.00035
26 -0.00013
26.05 -0.00039
26.1 -0.00081
26.15 -0.0011
26.2 -0.00091
26.25 -0.00067
26.3 -0.00083
26.35 -0.00067
26.4 -0.00062
26.45 -0.00043
26.5 -0.00001
26.55 0.00002
26.6 0.00013
26.65 -0.00006
26.7 -0.00035
26.75 -0.00089
26.8 -0.00091
26.85 -0.00084
26.9 -0.0007
26.95 -0.00042
27 0.00018
27.05 0.00018
27.1 -0.00015
27.15 -0.00056
27.2 -0.00106
27.25 -0.00159
27.3 -0.00142
27.35 -0.00115
27.4 -0.00063
27.45 -0.00057
27.5 -0.00062
27.55 -0.00049
27.6 -0.00037
27.65 0.00013
27.7 0.00024
27.75 0.00057
27.8 0.00034
27.85 -0.00008
27.9 -0.0002
27.95 -0.00064
28 -0.00114
28.05 -0.00169
28.1 -0.00218
28.15 -0.00228
28.2 -0.00213
28.25 -0.00219
28.3 -0.00242
28.35 -0.00207
28.4 -0.00192
28.45 -0.00167
28.5 -0.00139
28.55 -0.0011
28.6 -0.00096
28.65 -0.00115
28.7 -0.00103
28.75 -0.00081
28.8 -0.00072
28.85 -0.0006
28.9 -0.00018
28.95 -0.00008
29 0.00002
29.05 0.00018
29.1 0.00049
29.15 0.00047
29.2 0.00017
29.25 0.00002
29.3 -0.00031
29.35 -0.00017
29.4 -0.00043
29.45 -0.00076
29.5 -0.00106
29.55 -0.00071
29.6 -0.00038
29.65 0.00022
29.7 0.00079
29.75 0.00111
29.8 0.00133
29.85 0.00154
29.9 0.00151
29.95 0.00104
30 0.00068
30.05 0.00026
30.1 0.00016
30.15 0.00044
30.2 0.00099
30.25 0.00159
30.3 0.00155
30.35 0.0012
30.4 0.00112
30.45 0.00084
30.5 0.00076
30.55 0.00097
30.6 0.00132
30.65 0.00177
30.7 0.00181
30.75 0.0016
30.8 0.001
30.85 0.00075
30.9 0.00046
30.95 -0.00012
31 -0.00032
31.05 -0.00079
31.1 -0.00062
31.15 -0.00005
31.2 0.00071
31.25 0.00083
31.3 0.00105
31.35 0.00081
31.4 0.00045
31.45 0.00053
31.5 0.00076
31.55 0.00069
31.6 0.00021
31.65 -0.00019
31.7 -0.00041
31.75 -0.00022
31.8 -0.00015
31.85 -0.00011
31.9 0.00019
31.95 0.00033
32 0.00038
32.05 0.00014
32.1 0.00029
32.15 0.00041
32.2 0.00067
32.25 0.00055
32.3 0.00064
32.35 0.00065
32.4 0.00081
32.45 0.00074
32.5 0.00079
32.55 0.00068
32.6 0.00038
32.65 0.00015
32.7 0.00001
32.75 -0.0001
32.8 -0.00028
32.85 -0.0003
32.9 -0.00067
32.95 -0.00103
33 -0.00156
33.05 -0.00161
33.1 -0.0017
33.15 -0.00145
33.2 -0.0014
33.25 -0.00145
33.3 -0.00174
33.35 -0.00162
33.4 -0.0014
33.45 -0.00152
33.5 -0.00135
33.55 -0.00074
33.6 -0.00047
33.65 -0.00059
33.7 -0.001
33.75 -0.00089
33.8 -0.00074
33.85 -0.00033
33.9 -0.00013
33.95 0.00007
34 0.0006
34.05 0.00131
34.1 0.00158
34.15 0.00157
34.2 0.00159
34.25 0.00156
34.3 0.00157
34.35 0.00179
34.4 0.00152
34.45 0.00097
34.5 0.00058
34.55 0.00032
34.6 -0.00019
34.65 -0.00018
34.7 -0.0002
34.75 -0.00013
34.8 -0.00025
34.85 -0.00015
34.9 -0.00043
34.95 -0.00094
35 -0.00146
35.05 -0.00153
35.1 -0.00112
35.15 -0.00058
35.2 -0.00003
35.25 0.00022
35.3 0.0001
35.35 -0.00025
35.4 -0.0004
35.45 -0.00063
35.5 -0.00052
35.55 -0.00051
35.6 -0.00078
35.65 -0.00072
35.7 -0.00077
35.75 -0.00083
35.8 -0.00069
35.85 -0.00027
35.9 -0.00013
35.95 -0.00038
36 -0.0008
36.05 -0.00103
36.1 -0.00113
36.15 -0.0011
36.2 -0.00067
36.25 -0.00056
36.3 -0.00013
36.35 0.00038
36.4 0.00036
36.45 0.00008
36.5 0.00012
36.55 0.00043
36.6 0.00058
36.65 0.00049
36.7 0.00018
36.75 0.00035
36.8 0.00025
36.85 -0.00007
36.9 -0.00009
36.95 0.0002
37 0.00018
37.05 0.0002
37.1 0.00032
37.15 0.00038
37.2 0.00045
37.25 0.00027
37.3 0.00012
37.35 -0.00034
37.4 -0.00056
37.45 -0.00058
37.5 -0.00086
37.55 -0.00088
37.6 -0.00051
37.65 -0.00027
37.7 -0.00018
37.75 -0.00045
37.8 -0.00062
37.85 -0.0006
37.9 -0.00019
37.95 0.00033
38 0.00049
38.05 0.00066
38.1 0.00104
38.15 0.00121
38.2 0.00151
38.25 0.00183
38.3 0.00218
38.35 0.00197
38.4 0.00194
38.45 0.0021
38.5 0.00238
38.55 0.00273
38.6 0.00242
38.65 0.00192
38.7 0.00157
38.75 0.00091
38.8 0.00043
38.85 0.00004
38.9 -0.00032
38.95 -0.0004
39 -0.00059
39.05 -0.00039
39.1 -0.00028
39.15 0.00001
39.2 -0.00013
39.25 0.00011
39.3 -0.00017
39.35 -0.00047
39.4 -0.00103
39.45 -0.00131
39.5 -0.00171
39.55 -0.00182
39.6 -0.00163
39.65 -0.00159
39.7 -0.00122
39.75 -0.00089
39.8 -0.00048
39.85 -0.00053
39.9 -0.00087
39.95 -0.00082
40 -0.00088
40.05 -0.00066
40.1 -0.00049
40.15 -0.0001
40.2 0.00045
40.25 0.00104
40.3 0.00097
40.35 0.00075
40.4 0.00093
40.45 0.00098
40.5 0.00091
40.55 0.00112
40.6 0.00112
40.65 0.00082
40.7 0.00053
40.75 0.00037
40.8 0.00057
40.85 0.00075
40.9 0.00091
40.95 0.00093
41 0.00063
41.05 0.00001
41.1 -0.00049
41.15 -0.0011
41.2 -0.00135
41.25 -0.00121
41.3 -0.00113
41.35 -0.00136
41.4 -0.00101
41.45 -0.00039
41.5 0.00035
41.55 0.00064
41.6 0.00074
41.65 0.00103
41.7 0.00103
41.75 0.00081
41.8 0.00038
41.85 0
41.9 -0.00012
41.95 -0.00011
42 0.00016
42.05 0.00069
42.1 0.00118
42.15 0.00125
42.2 0.00117
42.25 0.00075
42.3 0.00025
42.35 -0.00051
42.4 -0.00125
42.45 -0.00201
42.5 -0.00247
42.55 -0.00227
42.6 -0.00162
42.65 -0.00089
42.7 -0.0001
42.75 0.00075
42.8 0.00092
42.85 0.00115
42.9 0.00123
42.95 0.00096
43 0.00064
43.05 0.00049
43.1 -0.00004
43.15 -0.00077
43.2 -0.00136
43.25 -0.00151
43.3 -0.00189
43.35 -0.00223
43.4 -0.00215
43.45 -0.0016
43.5 -0.00137
43.55 -0.00126
43.6 -0.00109
43.65 -0.0007
43.7 -0.00014
43.75 -0.00013
43.8 -0.00001
43.85 -0.00011
43.9 0.0001
43.95 0.00023
44 0.00023
44.05 0.00061
44.1 0.00048
44.15 0.00031
44.2 -0.00017
44.25 -0.00028
44.3 -0.00035
44.35 -0.00073
44.4 -0.00127
44.45 -0.0015
44.5 -0.00144
44.55 -0.00155
44.6 -0.00132
44.65 -0.00115
44.7 -0.00119
44.75 -0.00118
44.8 -0.0013
44.85 -0.00162
44.9 -0.00151
44.95 -0.00129
45 -0.00109
45.05 -0.00116
45.1 -0.00078
45.15 -0.00003
45.2 0.00056
45.25 0.00076
45.3 0.00116
45.35 0.00134
45.4 0.00141
45.45 0.00101
45.5 0.0006
45.55 0.00054
45.6 0.00086
45.65 0.00142
45.7 0.00161
45.75 0.00172
45.8 0.00203
45.85 0.00213
45.9 0.00206
45.95 0.00206
46 0.00156
46.05 0.00133
46.1 0.0007
46.15 0.00018
46.2 0.00012
46.25 -0.00018
46.3 -0.00041
46.35 -0.00021
46.4 0.00025
46.45 0.0005
46.5 0.00094
46.55 0.00106
46.6 0.00136
46.65 0.00116
46.7 0.00057
46.75 0.00012
46.8 0.0002
46.85 0.00023
46.9 0.00011
46.95 0.00016
47 0.00033
47.05 0.00007
47.1 0.00026
47.15 0.00073
47.2 0.00061
47.25 0.00054
47.3 0.00078
47.35 0.00061
47.4 0.00056
47.45 0.00071
47.5 0.00105
47.55 0.00113
47.6 0.00119
47.65 0.0015
47.7 0.00186
47.75 0.0023
47.8 0.00211
47.85 0.00204
47.9 0.00216
47.95 0.00201
48 0.0014
48.05 0.00102
48.1 0.00084
48.15 0.0006
48.2 0.00023
48.25 0.00019
48.3 0.00002
48.35 -0.00032
48.4 -0.00031
48.45 -0.00068
48.5 -0.00089
48.55 -0.00097
48.6 -0.001
48.65 -0.00058
48.7 -0.00038
48.75 -0.00009
48.8 0.00007
48.85 0.00034
48.9 0.00029
48.95 -0.00011
49 -0.00039
49.05 -0.00041
49.1 -0.0007
49.15 -0.00103
49.2 -0.0015
49.25 -0.00203
49.3 -0.00275
49.35 -0.00406
49.4 -0.00563
49.45 -0.00732
49.5 -0.0094
49.55 -0.01113
49.6 -0.01256
49.65 -0.01466
49.7 -0.01706
49.75 -0.01952
49.8 -0.02248
49.85 -0.02621
49.9 -0.03057
49.95 -0.03523
50 -0.04041
50.05 -0.04561
50.1 -0.05148
50.15 -0.05797
50.2 -0.0654
50.25 -0.07302
50.3 -0.08156
50.35 -0.09036
50.4 -0.09989
50.45 -0.11038
50.5 -0.12164
50.55 -0.13368
50.6 -0.1463
50.65 -0.15943
50.7 -0.17238
50.75 -0.18509
50.8 -0.19765
50.85 -0.21004
50.9 -0.22246
50.95 -0.23403
51 -0.24506
51.05 -0.25494
51.1 -0.26371
51.15 -0.2706
51.2 -0.27614
51.25 -0.28006
51.3 -0.28213
51.35 -0.28193
51.4 -0.27938
51.45 -0.27479
51.5 -0.26784
51.55 -0.25858
51.6 -0.24639
51.65 -0.23164
51.7 -0.2148
51.75 -0.19665
51.8 -0.17716
51.85 -0.15649
51.9 -0.13484
51.95 -0.11231
52 -0.08895
52.05 -0.06569
52.1 -0.0421
52.15 -0.01887
52.2 0.00372
52.25 0.02547
52.3 0.04591
52.35 0.06494
52.4 0.08261
52.45 0.09814
52.5 0.11213
52.55 0.12413
52.6 0.1345
52.65 0.14328
52.7 0.15061
52.75 0.1566
52.8 0.16133
52.85 0.16434
52.9 0.16624
52.95 0.16739
53 0.16806
53.05 0.16812
53.1 0.16837
53.15 0.16865
53.2 0.1687
53.25 0.16887
53.3 0.16897
53.35 0.1692
53.4 0.16987
53.45 0.17121
53.5 0.17291
53.55 0.17493
53.6 0.17662
53.65 0.17822
53.7 0.18028
53.75 0.18262
53.8 0.18492
53.85 0.18678
53.9 0.1883
53.95 0.18967
54 0.19069
54.05 0.1908
54.1 0.19082
54.15 0.18996
54.2 0.18894
54.25 0.18698
54.3 0.18484
54.35 0.1825
54.4 0.17966
54.45 0.17623
54.5 0.17213
54.55 0.16779
54.6 0.16361
54.65 0.15877
54.7 0.15343
54.75 0.14808
54.8 0.14298
54.85 0.13786
54.9 0.13237
54.95 0.12657
55 0.12103
55.05 0.11605
55.1 0.11127
55.15 0.1062
55.2 0.10105
55.25 0.09599
55.3 0.09079
55.35 0.08581
55.4 0.08089
55.45 0.07616
55.5 0.07144
55.55 0.06736
55.6 0.06365
55.65 0.06022
55.7 0.05701
55.75 0.05391
55.8 0.05063
55.85 0.04773
55.9 0.04467
55.95 0.04152
56 0.03834
56.05 0.03599
56.1 0.03378
56.15 0.03173
56.2 0.02968
56.25 0.02735
56.3 0.02536
56.35 0.02326
56.4 0.0214
56.45 0.01965
56.5 0.0183
56.55 0.01667
56.6 0.01511
56.65 0.0136
56.7 0.01241
56.75 0.01114
56.8 0.01
56.85 0.00881
56.9 0.00716
56.95 0.00543
57 0.00345
57.05 0.00216
57.1 0.00105
57.15 0.00023
57.2 -0.00091
57.25 -0.00184
57.3 -0.0026
57.35 -0.00401
57.4 -0.00564
57.45 -0.00727
57.5 -0.00906
57.55 -0.0108
57.6 -0.01243
57.65 -0.01337
57.7 -0.01414
57.75 -0.01493
57.8 -0.01543
57.85 -0.01638
57.9 -0.01737
57.95 -0.01862
58 -0.0197
58.05 -0.02016
58.1 -0.0202
58.15 -0.02072
58.2 -0.02125
58.25 -0.02202
58.3 -0.02256
58.35 -0.02348
58.4 -0.02392
58.45 -0.02447
58.5 -0.02472
58.55 -0.0254
58.6 -0.026
58.65 -0.02604
58.7 -0.02612
58.75 -0.02641
58.8 -0.02634
58.85 -0.02658
58.9 -0.02662
58.95 -0.02642
59 -0.02672
59.05 -0.02734
59.1 -0.02783
59.15 -0.02823
59.2 -0.02868
59.25 -0.02928
59.3 -0.02948
59.35 -0.02911
59.4 -0.02904
59.45 -0.02908
59.5 -0.02922
59.55 -0.02892
59.6 -0.02838
59.65 -0.02811
59.7 -0.02758
59.75 -0.02704
59.8 -0.02682
59.85 -0.0267
59.9 -0.02672
59.95 -0.02644
60 -0.02616
60.05 -0.02628
60.1 -0.02635
60.15 -0.02616
60.2 -0.0255
60.25 -0.02468
60.3 -0.02401
60.35 -0.02335
60.4 -0.02269
60.45 -0.02236
60.5 -0.02178
60.55 -0.02123
60.6 -0.02097
60.65 -0.02068
60.7 -0.02078
60.75 -0.02109
60.8 -0.02164
60.85 -0.02231
60.9 -0.02261
60.95 -0.02278
61 -0.02269
61.05 -0.02208
61.1 -0.02114
61.15 -0.02076
61.2 -0.02018
61.25 -0.01994
61.3 -0.01937
61.35 -0.01885
61.4 -0.01817
61.45 -0.01799
61.5 -0.01783
61.55 -0.01752
61.6 -0.01721
61.65 -0.0168
61.7 -0.01676
61.75 -0.01682
61.8 -0.01697
61.85 -0.0171
61.9 -0.01733
61.95 -0.01706
62 -0.01655
62.05 -0.01632
62.1 -0.01612
62.15 -0.01576
62.2 -0.01494
62.25 -0.01404
62.3 -0.0137
62.35 -0.0132
62.4 -0.01322
62.45 -0.01303
62.5 -0.01322
62.55 -0.0134
62.6 -0.01356
62.65 -0.01369
62.7 -0.01343
62.75 -0.01312
62.8 -0.01253
62.85 -0.01176
62.9 -0.01092
62.95 -0.01063
63 -0.01022
63.05 -0.00986
63.1 -0.00996
63.15 -0.01038
63.2 -0.01073
63.25 -0.01085
63.3 -0.01043
63.35 -0.00989
63.4 -0.00914
63.45 -0.00861
63.5 -0.00804
63.55 -0.0078
63.6 -0.00753
63.65 -0.00726
63.7 -0.00729
63.75 -0.00721
63.8 -0.00758
63.85 -0.00814
63.9 -0.0082
63.95 -0.0086
64 -0.00866
64.05 -0.00901
64.1 -0.00922
64.15 -0.00884
64.2 -0.00818
64.25 -0.00771
64.3 -0.00758
64.35 -0.00775
64.4 -0.00809
64.45 -0.00844
64.5 -0.00884
64.55 -0.00901
64.6 -0.00876
64.65 -0.00861
64.7 -0.00836
64.75 -0.00792
64.8 -0.00775
64.85 -0.00751
64.9 -0.00724
64.95 -0.00668
65 -0.00587
65.05 -0.00574
65.1 -0.00526
65.15 -0.00472
65.2 -0.00477
65.25 -0.00482
65.3 -0.00515
65.35 -0.00496
65.4 -0.00497
65.45 -0.00516
65.5 -0.00516
65.55 -0.00516
65.6 -0.00539
65.65 -0.00524
65.7 -0.00505
65.75 -0.00513
65.8 -0.00497
65.85 -0.00461
65.9 -0.00462
65.95 -0.00467
66 -0.00475
66.05 -0.00467
66.1 -0.00441
66.15 -0.00418
66.2 -0.0038
66.25 -0.0039
66.3 -0.00384
66.35 -0.00409
66.4 -0.00446
66.45 -0.00495
66.5 -0.00553
66.55 -0.00575
66.6 -0.00541
66.65 -0.00495
66.7 -0.00447
66.75 -0.00404
66.8 -0.00401
66.85 -0.00417
66.9 -0.00442
66.95 -0.00423
67 -0.00438
67.05 -0.0043
67.1 -0.00384
67.15 -0.00354
67.2 -0.00335
67.25 -0.00323
67.3 -0.00344
67.35 -0.00388
67.4 -0.00398
67.45 -0.00406
67.5 -0.00418
67.55 -0.00399
67.6 -0.00353
67.65 -0.00319
67.7 -0.00315
67.75 -0.00262
67.8 -0.00224
67.85 -0.00203
67.9 -0.00188
67.95 -0.00216
68 -0.00257
68.05 -0.00271
68.1 -0.00263
68.15 -0.0021
68.2 -0.00167
68.25 -0.00168
68.3 -0.00183
68.35 -0.00211
68.4 -0.00221
68.45 -0.00253
68.5 -0.0023
68.55 -0.00212
68.6 -0.002
68.65 -0.00193
68.7 -0.00216
68.75 -0.00253
68.8 -0.00224
68.85 -0.00206
68.9 -0.00164
68.95 -0.00101
69 -0.00099
69.05 -0.00059
69.1 -0.00041
69.15 -0.00015
69.2 0.00008
69.25 -0.00008
69.3 -0.00011
69.35 -0.00005
69.4 -0.00034
69.45 -0.00089
69.5 -0.00085
69.55 -0.00059
69.6 -0.00062
69.65 -0.00085
69.7 -0.00128
69.75 -0.00161
69.8 -0.0018
69.85 -0.00174
69.9 -0.00172
69.95 -0.00137
70 -0.00111
70.05 -0.00117
70.1 -0.00147
70.15 -0.00156
70.2 -0.00117
70.25 -0.001
70.3 -0.00094
70.35 -0.00122
70.4 -0.00103
70.45 -0.00074
70.5 -0.00065
70.55 -0.00095
70.6 -0.0015
70.65 -0.00144
70.7 -0.00101
70.75 -0.00075
70.8 -0.00052
70.85 -0.00062
70.9 -0.00107
70.95 -0.00167
71 -0.00237
71.05 -0.00279
71.1 -0.00326
71.15 -0.00308
71.2 -0.00302
71.25 -0.00305
71.3 -0.00318
71.35 -0.00325
71.4 -0.00319
71.45 -0.00286
71.5 -0.00237
71.55 -0.00151
71.6 -0.00058
71.65 0.00019
71.7 0.00025
71.75 -0.00001
71.8 -0.00003
71.85 -0.00032
71.9 -0.00038
71.95 -0.00071
72 -0.00054
72.05 -0.00044
72.1 -0.00014
72.15 0.0003
72.2 0.00048
72.25 0.00088
72.3 0.00076
72.35 0.00033
72.4 0.00015
72.45 -0.00004
72.5 -0.00054
72.55 -0.00111
72.6 -0.00111
72.65 -0.0011
72.7 -0.00098
72.75 -0.00101
72.8 -0.00136
72.85 -0.00115
72.9 -0.00068
72.95 -0.00047
73 0.00011
73.05 0.00067
73.1 0.00104
73.15 0.00155
73.2 0.00195
73.25 0.00181
73.3 0.00182
73.35 0.00194
73.4 0.00145
73.45 0.00109
73.5 0.00043
73.55 -0.0003
73.6 -0.00065
73.65 -0.00121
73.7 -0.00169
73.75 -0.00155
73.8 -0.00148
73.85 -0.0012
73.9 -0.00087
73.95 -0.00047
74 -0.00036
74.05 0.00004
74.1 0.00021
74.15 0.00061
74.2 0.00117
74.25 0.00114
74.3 0.00131
74.35 0.00148
74.4 0.00132
74.45 0.00116
74.5 0.00131
74.55 0.001
74.6 0.00108
74.65 0.00101
74.7 0.00122
74.75 0.00159
74.8 0.00179
74.85 0.00183
74.9 0.00167
74.95 0.00134
75 0.00131
75.05 0.00086
75.1 0.00073
75.15 0.00044
75.2 0.00032
75.25 0.00002
75.3 -0.00034
75.35 -0.00055
75.4 -0.00076
75.45 -0.00087
75.5 -0.0009
75.55 -0.00072
75.6 -0.00061
75.65 -0.00063
75.7 -0.00062
75.75 -0.00026
75.8 -0.00009
75.85 -0.00016
75.9 -0.00033
75.95 -0.0006
76 -0.00055
76.05 -0.00041
76.1 -0.00024
76.15 -0.00035
76.2 -0.00054
76.25 -0.00051
76.3 -0.00034
76.35 -0.00051
76.4 -0.00078
76.45 -0.00125
76.5 -0.0017
76.55 -0.00189
76.6 -0.00153
76.65 -0.00147
76.7 -0.00136
76.75 -0.00084
76.8 -0.0008
76.85 -0.00031
76.9 0.00001
76.95 0.00017
77 0.00008
77.05 -0.00015
77.1 -0.00013
77.15 -0.00039
77.2 -0.00057
77.25 -0.00026
77.3 0.00003
77.35 0.00005
77.4 -0.00014
77.45 -0.00051
77.5 -0.00093
77.55 -0.00093
77.6 -0.00059
77.65 -0.00005
77.7 0.00042
77.75 0.00086
77.8 0.00081
77.85 0.00056
77.9 0.00038
77.95 0.00031
78 0.00061
78.05 0.00084
78.1 0.0013
78.15 0.00161
78.2 0.00194
78.25 0.00174
78.3 0.00181
78.35 0.00188
78.4 0.00212
78.45 0.00208
78.5 0.00173
78.55 0.00099
78.6 0.00055
78.65 0.00025
78.7 -0.00017
78.75 -0.00078
78.8 -0.00078
78.85 -0.0008
78.9 -0.00091
78.95 -0.00068
79 -0.00068
79.05 -0.00045
79.1 -0.0003
79.15 -0.00039
79.2 -0.00031
79.25 -0.00003
79.3 0.00032
79.35 0.0005
79.4 0.0007
79.45 0.00078
79.5 0.0007
79.55 0.00081
79.6 0.00069
79.65 0.00076
79.7 0.00108
79.75 0.00124
79.8 0.00119
79.85 0.00112
79.9 0.0006
79.95 -0.00017
80 -0.00081
80.05 -0.00158
80.1 -0.00164
80.15 -0.00177
80.2 -0.00207
80.25 -0.00184
80.3 -0.00145
80.35 -0.00126
80.4 -0.00067
80.45 -0.00054
80.5 -0.00057
80.55 -0.00088
80.6 -0.00087
80.65 -0.00072
80.7 -0.00055
80.75 -0.0008
80.8 -0.00118
80.85 -0.00143
80.9 -0.00187
80.95 -0.00214
81 -0.00248
81.05 -0.00265
81.1 -0.00284
81.15 -0.00238
81.2 -0.00199
81.25 -0.00165
81.3 -0.00128
81.35 -0.00071
81.4 -0.00022
81.45 -0.00005
81.5 0.00021
81.55 0.00015
81.6 0.00013
81.65 0.00011
81.7 -0
81.75 0.00031
81.8 0.00046
81.85 0.00039
81.9 0.00055
81.95 0.001
82 0.00149
82.05 0.00129
82.1 0.00083
82.15 0.00054
82.2 0.00038
82.25 0.00047
82.3 0.0005
82.35 0.00046
82.4 0.00001
82.45 0.00002
82.5 0.00014
82.55 -0.00007
82.6 -0.0001
82.65 0.00013
82.7 0.00064
82.75 0.00069
82.8 0.00097
82.85 0.00075
82.9 0.00095
82.95 0.00127
83 0.00103
83.05 0.00107
83.1 0.00102
83.15 0.0005
83.2 -0.00001
83.25 -0.00051
83.3 -0.00044
83.35 -0.00047
83.4 -0.00042
83.45 -0.00004
83.5 0.00042
83.55 0.00085
83.6 0.001
83.65 0.00129
83.7 0.00156
83.75 0.00122
83.8 0.00125
83.85 0.00079
83.9 0.0003
83.95 -0.00029
84 -0.00051
84.05 -0.00045
84.1 -0.00073
84.15 -0.00125
84.2 -0.00145
84.25 -0.00188
84.3 -0.00226
84.35 -0.00231
84.4 -0.00209
84.45 -0.00194
84.5 -0.00173
84.55 -0.00174
84.6 -0.00136
84.65 -0.00064
84.7 -0.00047
84.75 0.00005
84.8 0.00072
84.85 0.00148
84.9 0.0021
84.95 0.00214
85 0.00226
85.05 0.00181
85.1 0.00147
85.15 0.00138
85.2 0.0012
85.25 0.00133
85.3 0.00108
85.35 0.00043
85.4 0.00017
85.45 -0.0002
85.5 -0.00025
85.55 -0.00062
85.6 -0.00073
85.65 -0.00098
85.7 -0.00068
85.75 -0.00015
85.8 0.00044
85.85 0.00071
85.9 0.00066
85.95 0.00022
86 -0.0003
86.05 -0.00073
86.1 -0.00084
86.15 -0.00091
86.2 -0.00051
86.25 -0.00002
86.3 -0.00004
86.35 0.00032
86.4 0.00047
86.45 0.00026
86.5 0.00032
86.55 0.0004
86.6 0.00046
86.65 0.00055
86.7 0.00033
86.75 0.00024
86.8 0.00027
86.85 0.00049
86.9 0.00039
86.95 -0.00011
87 -0.00057
87.05 -0.00099
87.1 -0.00128
87.15 -0.00143
87.2 -0.00112
87.25 -0.00126
87.3 -0.00162
87.35 -0.00156
87.4 -0.00131
87.45 -0.00136
87.5 -0.00108
87.55 -0.00056
87.6 0.00006
87.65 0.00082
87.7 0.0012
87.75 0.00165
87.8 0.00169
87.85 0.00196
87.9 0.00202
87.95 0.00177
88 0.00153
88.05 0.00162
88.1 0.0016
88.15 0.00114
88.2 0.00042
88.25 0.00029
88.3 0.00034
88.35 0.00015
88.4 -0.00041
88.45 -0.00094
88.5 -0.0011
88.55 -0.00138
88.6 -0.00185
88.65 -0.00192
88.7 -0.00153
88.75 -0.00112
88.8 -0.00042
88.85 0.00032
88.9 0.0007
88.95 0.00058
89 0.00031
89.05 0.00049
89.1 0.00066
89.15 0.00066
89.2 0.00037
89.25 0.00045
89.3 0.00037
89.35 0.00015
89.4 0.0001
89.45 0.00029
89.5 0.00074
89.55 0.00133
89.6 0.00176
89.65 0.00154
89.7 0.00095
89.75 0.00065
89.8 0.0004
89.85 -0.00002
89.9 0.00002
89.95 0.00031
90 0.00076
90.05 0.00119
90.1 0.00134
90.15 0.00107
90.2 0.00042
90.25 0.00027
90.3 -0.00013
90.35 -0.00033
90.4 -0.00023
90.45 0.00007
90.5 -0.00006
90.55 -0.00051
90.6 -0.00044
90.65 -0.00069
90.7 -0.00108
90.75 -0.00143
90.8 -0.00188
90.85 -0.00172
90.9 -0.00158
90.95 -0.00105
91 -0.00051
91.05 -0.00037
91.1 -0.00012
91.15 0.00002
91.2 0.00017
91.25 -0.00008
91.3 -0.00047
91.35 -0.00069
91.4 -0.00093
91.45 -0.00107
91.5 -0.00138
91.55 -0.0016
91.6 -0.00144
91.65 -0.00085
91.7 -0.00014
91.75 0.00031
91.8 0.00073
91.85 0.00065
91.9 0.00023
91.95 -0.00006
92 -0.00064
92.05 -0.00077
92.1 -0.00055
92.15 -0.00029
92.2 -0.00048
92.25 -0.00018
92.3 0.00036
92.35 0.00105
92.4 0.00109
92.45 0.00128
92.5 0.00161
92.55 0.00169
92.6 0.00154
92.65 0.00148
92.7 0.00157
92.75 0.00125
92.8 0.00081
92.85 0.00004
92.9 -0.00067
92.95 -0.00107
93 -0.00109
93.05 -0.00087
93.1 -0.00085
93.15 -0.00097
93.2 -0.00108
93.25 -0.00123
93.3 -0.00154
93.35 -0.00174
93.4 -0.0016
93.45 -0.00111
93.5 -0.00088
93.55 -0.00072
93.6 -0.0005
93.65 -0.00016
93.7 0.00014
93.75 0.00005
93.8 -0.00037
93.85 -0.00027
93.9 -0.00029
93.95 -0.00025
94 0.00018
94.05 0.0002
94.1 -0.0001
94.15 -0.00057
94.2 -0.00123
94.25 -0.00192
94.3 -0.00254
94.35 -0.00314
94.4 -0.00309
94.45 -0.00267
94.5 -0.00207
94.55 -0.00146
94.6 -0.00082
94.65 -0.00069
94.7 -0.00089
94.75 -0.00103
94.8 -0.0009
94.85 -0.00077
94.9 -0.00078
94.95 -0.00036
95 0.00007
95.05 0.00012
95.1 -0.00022
95.15 -0.00069
95.2 -0.00095
95.25 -0.00065
95.3 -0.00025
95.35 -0.0003
95.4 0.00007
95.45 0.00053
95.5 0.00043
95.55 0.00072
95.6 0.00073
95.65 0.00094
95.7 0.00124
95.75 0.00172
95.8 0.0021
95.85 0.00201
95.9 0.00138
95.95 0.00063
96 -0.00016
96.05 -0.00092
96.1 -0.0011
96.15 -0.00147
96.2 -0.0014
96.25 -0.00138
96.3 -0.00126
96.35 -0.00097
96.4 -0.00043
96.45 -0.00029
96.5 0.00014
96.55 0.0006
96.6 0.00073
96.65 0.00056
96.7 0.0008
96.75 0.00117
96.8 0.00151
96.85 0.00198
96.9 0.00208
96.95 0.00168
97 0.00101
97.05 0.00036
97.1 -0.00015
97.15 -0.00046
97.2 -0.00068
97.25 -0.0008
97.3 -0.00074
97.35 -0.00042
97.4 0.0002
97.45 0.00031
97.5 0.0003
97.55 0.00017
97.6 0.00047
97.65 0.00082
97.7 0.00065
97.75 0.00066
97.8 0.00077
97.85 0.00046
97.9 0.00036
97.95 0.00015
98 0.00028
98.05 0.00019
98.1 0.00005
98.15 -0.00038
98.2 -0.00057
98.25 -0.00073
98.3 -0.00091
98.35 -0.00122
98.4 -0.00093
98.45 -0.00036
98.5 0.00006
98.55 0.00044
98.6 0.00075
98.65 0.0005
98.7 0.00031
98.75 0.00033
98.8 0.00033
98.85 0.00026
98.9 0.00027
98.95 0.00058
99 0.00072
99.05 0.00096
99.1 0.00081
99.15 0.00083
99.2 0.00104
99.25 0.00121
99.3 0.00126
99.35 0.00137
99.4 0.00159
99.45 0.00155
99.5 0.00173
99.55 0.00198
99.6 0.00194
99.65 0.00151
99.7 0.00094
99.75 0.00035
99.8 -0.00005
99.85 0.00005
99.9 -0.00022
99.95 -0.00023
