0 0
0.05 0.00096
0.1 0.00171
0.15 0.00294
0.2 0.00488
0.25 0.00677
0.3 0.00865
0.35 0.00965
0.4 0.00986
0.45 0.00981
0.5 0.00896
0.55 0.00893
0.6 0.00821
0.65 0.00701
0.7 0.0058
0.75 0.00497
0.8 0.00406
0.85 0.00445
0.9 0.00479
0.95 0.00468
1 0.0046
1.05 0.0051
1.1 0.00535
1.15 0.00567
1.2 0.00644
1.25 0.00676
1.3 0.00701
1.35 0.00724
1.4 0.00691
1.45 0.006
1.5 0.00488
1.55 0.00421
1.6 0.0032
1.65 0.00233
1.7 0.00206
1.75 0.00226
1.8 0.00239
1.85 0.00303
1.9 0.00396
1.95 0.00532
2 0.00688
2.05 0.00827
2.1 0.00835
2.15 0.00859
2.2 0.00821
2.25 0.00735
2.3 0.00718
2.35 0.00729
2.4 0.00736
2.45 0.00777
2.5 0.00787
2.55 0.00714
2.6 0.00581
2.65 0.00467
2.7 0.00367
2.75 0.00275
2.8 0.00291
2.85 0.0034
2.9 0.00305
2.95 0.00327
3 0.00403
3.05 0.00464
3.1 0.00504
3.15 0.00514
3.2 0.00524
3.25 0.00448
3.3 0.00391
3.35 0.00333
3.4 0.00274
3.45 0.00222
3.5 0.00154
3.55 0.00069
3.6 0.00014
3.65 0.00056
3.7 0.00033
3.75 0.00067
3.8 0.00098
3.85 0.00131
3.9 0.00136
3.95 0.00194
4 0.00204
4.05 0.00267
4.1 0.00355
4.15 0.00431
4.2 0.00487
4.25 0.00443
4.3 0.00374
4.35 0.00333
4.4 0.00342
4.45 0.00351
4.5 0.00317
4.55 0.00358
4.6 0.00326
4.65 0.0034
4.7 0.0031
4.75 0.00271
4.8 0.0026
4.85 0.00266
4.9 0.00238
4.95 0.00207
5 0.00134
5.05 0.00133
5.1 0.00175
5.15 0.00238
5.2 0.00295
5.25 0.00386
5.3 0.00459
5.35 0.00513
5.4 0.00535
5.45 0.00518
5.5 0.00511
5.55 0.00474
5.6 0.00444
5.65 0.00464
5.7 0.00466
5.75 0.0042
5.8 0.00338
5.85 0.00194
5.9 0.00159
5.95 0.0007
6 -0.00042
6.05 -0.00086
6.1 -0.00038
6.15 0.00023
6.2 0.00004
6.25 -0.00006
6.3 0.00049
6.35 0.00043
6.4 0.00094
6.45 0.00081
6.5 0.00035
6.55 -0.00019
6.6 0.0002
6.65 0.00073
6.7 0.00095
6.75 0.00125
6.8 0.00103
6.85 0.00108
6.9 0.00101
6.95 0.00137
7 0.00155
7.05 0.00162
7.1 0.00116
7.15 0.00032
7.2 -0.0004
7.25 -0.00053
7.3 -0.0002
7.35 0.00067
7.4 0.00188
7.45 0.00283
7.5 0.00377
7.55 0.00396
7.6 0.00402
7.65 0.00415
7.7 0.00446
7.75 0.00469
7.8 0.00382
7.85 0.00262
7.9 0.00227
7.95 0.00164
8 0.00118
8.05 0.00051
8.1 -0.00041
8.15 -0.00145
8.2 -0.00195
8.25 -0.0021
8.3 -0.00154
8.35 -0.00114
8.4 -0.00024
8.45 0.00087
8.5 0.00108
8.55 0.00085
8.6 0.00059
8.65 0.00074
8.7 0.00077
8.75 0.00135
8.8 0.00104
8.85 0.00107
8.9 0.00048
8.95 0.0004
9 -0.00034
9.05 -0.00058
9.1 -0.00081
9.15 -0.00029
9.2 -0.00018
9.25 -0.00029
9.3 0.00014
9.35 0.00063
9.4 0.00037
9.45 -0.00052
9.5 -0.00148
9.55 -0.00194
9.6 -0.00212
9.65 -0.00165
9.7 -0.00138
9.75 -0.00179
9.8 -0.00196
9.85 -0.00166
9.9 -0.00096
9.95 -0.00095
10 -0.00118
10.05 -0.00119
10.1 -0.00038
10.15 -0.00001
10.2 0.00012
10.25 0.00026
10.3 -0.00034
10.35 -0.00115
10.4 -0.00111
10.45 -0.00066
10.5 -0.00032
10.55 -0.00059
10.6 -0.0008
10.65 -0.00156
10.7 -0.00174
10.75 -0.00167
10.8 -0.00201
10.85 -0.00246
10.9 -0.00202
10.95 -0.00131
11 -0.00123
11.05 -0.00119
11.1 -0.00074
11.15 -0.00083
11.2 -0.00085
11.25 -0.00055
11.3 -0.00064
11.35 -0.00068
11.4 -0.00023
11.45 0.00073
11.5 0.00134
11.55 0.0015
11.6 0.00196
11.65 0.00209
11.7 0.00261
11.75 0.00249
11.8 0.00252
11.85 0.00247
11.9 0.00246
11.95 0.00222
12 0.0021
12.05 0.00214
12.1 0.00212
12.15 0.00177
12.2 0.0018
12.25 0.0021
12.3 0.0018
12.35 0.00202
12.4 0.00212
12.45 0.00144
12.5 0.00048
12.55 -0.00055
12.6 -0.00155
12.65 -0.00161
12.7 -0.00169
12.75 -0.00148
12.8 -0.00185
12.85 -0.00198
12.9 -0.00173
12.95 -0.00157
13 -0.00079
13.05 -0.00073
13.1 -0.00006
13.15 0.00037
13.2 0.00094
13.25 0.00125
13.3 0.00171
13.35 0.00165
13.4 0.0012
13.45 0.00086
13.5 0.00102
13.55 0.00107
13.6 0.00084
13.65 0.00009
13.7 -0.00089
13.75 -0.00157
13.8 -0.00252
13.85 -0.00333
13.9 -0.00326
13.95 -0.00241
14 -0.00141
14.05 -0.00032
14.1 0.00062
14.15 0.00089
14.2 0.00148
14.25 0.00177
14.3 0.00232
14.35 0.00184
14.4 0.00164
14.45 0.00193
14.5 0.00151
14.55 0.00092
14.6 0.00075
14.65 0.00015
14.7 -0.00061
14.75 -0.00138
14.8 -0.00204
14.85 -0.00181
14.9 -0.00125
14.95 -0.00081
15 -0.00065
15.05 -0.00029
15.1 -0.00071
15.15 -0.00038
15.2 -0.00084
15.25 -0.00167
15.3 -0.00277
15.35 -0.0034
15.4 -0.00391
15.45 -0.00441
15.5 -0.00481
15.55 -0.00516
15.6 -0.00504
15.65 -0.00458
15.7 -0.0038
15.75 -0.00251
15.8 -0.00119
15.85 -0.00079
15.9 -0.00056
15.95 -0.00051
16 -0.0002
16.05 0.00005
16.1 -0.0002
16.15 0.00007
16.2 -0.0004
16.25 -0.00094
16.3 -0.00072
16.35 -0.00058
16.4 -0.00051
16.45 -0.00023
16.5 -0.00029
16.55 0.00014
16.6 0.00085
16.65 0.00184
16.7 0.00228
16.75 0.00171
16.8 0.00135
16.85 0.00118
16.9 0.00064
16.95 0.00072
17 0.00044
17.05 -0.00029
17.1 -0.00003
17.15 -0.00046
17.2 -0.00103
17.25 -0.00103
17.3 -0.00066
17.35 -0.00037
17.4 -0.0007
17.45 -0.00015
17.5 -0.0001
17.55 0.00002
17.6 0.00045
17.65 0.00108
17.7 0.00106
17.75 0.00098
17.8 0.00037
17.85 -0.00044
17.9 -0.00122
17.95 -0.00218
18 -0.00275
18.05 -0.00242
18.1 -0.00163
18.15 -0.00069
18.2 -0.00044
18.25 -0.00058
18.3 -0.00022
18.35 0.00034
18.4 0.00045
18.45 0.00043
18.5 0.00097
18.55 0.00167
18.6 0.00214
18.65 0.00195
18.7 0.00193
18.75 0.00244
18.8 0.00231
18.85 0.00172
18.9 0.00059
18.95 0.0005
19 0.00057
19.05 0.00047
19.1 -0.00009
19.15 -0.00009
19.2 0.00061
19.25 0.0009
19.3 0.00131
19.35 0.00209
19.4 0.00285
19.45 0.00275
19.5 0.00268
19.55 0.0025
19.6 0.00278
19.65 0.00252
19.7 0.00199
19.75 0.00199
19.8 0.00141
19.85 0.00022
19.9 -0.00066
19.95 -0.00102
20 -0.00188
20.05 -0.00161
20.1 -0.00108
20.15 -0.00073
20.2 -0.00077
20.25 -0.00042
20.3 -0.00012
20.35 -0.00006
20.4 -0.00032
20.45 -0.00072
20.5 -0.00156
20.55 -0.0025
20.6 -0.00251
20.65 -0.00204
20.7 -0.00211
20.75 -0.00178
20.8 -0.00137
20.85 -0.00166
20.9 -0.00105
20.95 0.00013
21 0.00055
21.05 0.0002
21.1 -0.00014
21.15 -0.00045
21.2 -0.00051
21.25 -0.00037
21.3 -0.00027
21.35 -0.00084
21.4 -0.00058
21.45 0.00027
21.5 0.00015
21.55 -0.00036
21.6 -0.00054
21.65 -0.00082
21.7 -0.00149
21.75 -0.00132
21.8 -0.00165
21.85 -0.00208
21.9 -0.00248
21.95 -0.00179
22 -0.00163
22.05 -0.0018
22.1 -0.00137
22.15 -0.00081
22.2 -0.00072
22.25 -0.00078
22.3 -0.0008
22.35 -0.00039
22.4 -0.00072
22.45 -0.00053
22.5 -0.00078
22.55 -0.00086
22.6 -0.00044
22.65 0.00057
22.7 0.00153
22.75 0.00236
22.8 0.00215
22.85 0.00208
22.9 0.00136
22.95 0.00036
23 -0.00056
23.05 -0.00049
23.1 0.00028
23.15 0.00108
23.2 0.00209
23.25 0.00324
23.3 0.00401
23.35 0.0045
23.4 0.00429
23.45 0.00436
23.5 0.0047
23.55 0.00405
23.6 0.0033
23.65 0.00277
23.7 0.00232
23.75 0.00202
23.8 0.00106
23.85 0.00102
23.9 0.00021
23.95 -0.00086
24 -0.00083
24.05 -0.0011
24.1 -0.00157
24.15 -0.00132
24.2 -0.00172
24.25 -0.00237
24.3 -0.00307
24.35 -0.00317
24.4 -0.00312
24.45 -0.00274
24.5 -0.00221
24.55 -0.00231
24.6 -0.00198
24.65 -0.00176
24.7 -0.00187
24.75 -0.00153
24.8 -0.00045
24.85 -0.0003
24.9 0.00019
24.95 -0.0001
25 -0.00049
25.05 -0.00091
25.1 -0.00136
25.15 -0.00163
25.2 -0.0013
25.25 -0.00098
25.3 -0.00103
25.35 -0.00147
25.4 -0.00175
25.45 -0.00238
25.5 -0.00203
25.55 -0.00147
25.6 -0.00105
25.65 -0.00074
25.7 0.00011
25.75 0.00111
25.8 0.00151
25.85 0.00188
25.9 0.00186
25.95 0.00236
26 0.00247
26.05 0.00198
26.1 0.00169
26.15 0.00187
26.2 0.0016
26.25 0.00187
26.3 0.00219
26.35 0.00196
26.4 0.00148
26.45 0.00152
26.5 0.00193
26.55 0.00191
26.6 0.00179
26.65 0.00227
26.7 0.00173
26.75 0.0015
26.8 0.00053
26.85 -0.00077
26.9 -0.00122
26.95 -0.00074
27 -0.00103
27.05 -0.00168
27.1 -0.00151
27.15 -0.0011
27.2 -0.00117
27.25 -0.00116
27.3 -0.00149
27.35 -0.00102
27.4 -0.00049
27.45 -0.00048
27.5 -0.00049
27.55 -0.00017
27.6 0.00041
27.65 0.00125
27.7 0.00181
27.75 0.00271
27.8 0.00306
27.85 0.00345
27.9 0.00346
27.95 0.00327
28 0.00292
28.05 0.00211
28.1 0.00094
28.15 0.00028
28.2 0.00007
28.25 0.00021
28.3 0.00062
28.35 0.00013
28.4 0.00043
28.45 0.00053
28.5 0.00088
28.55 0.00111
28.6 0.0016
28.65 0.00114
28.7 0.001
28.75 0.00016
28.8 0
28.85 0.00048
28.9 0.00032
28.95 0.00002
29 -0.00017
29.05 -0.00019
29.1 0.00036
29.15 0.00108
29.2 0.0016
29.25 0.00173
29.3 0.00102
29.35 0.00057
29.4 0.00048
29.45 0.00006
29.5 0.00012
29.55 -0.00048
29.6 -0.00019
29.65 0.00059
29.7 0.00131
29.75 0.0022
29.8 0.00272
29.85 0.00288
29.9 0.00303
29.95 0.00284
30 0.00301
30.05 0.00321
30.1 0.00282
30.15 0.00264
30.2 0.00261
30.25 0.00298
30.3 0.00284
30.35 0.00271
30.4 0.00179
30.45 0.00127
30.5 0.00005
30.55 -0.00114
30.6 -0.00169
30.65 -0.00173
30.7 -0.00155
30.75 -0.00071
30.8 -0.00053
30.85 0.0002
30.9 0.00026
30.95 0.00048
31 0.0009
31.05 0.00133
31.1 0.00096
31.15 0.0007
31.2 -0.00009
31.25 -0.00071
31.3 -0.00069
31.35 -0.00121
31.4 -0.00128
31.45 -0.0006
31.5 -0.00053
31.55 -0.00062
31.6 -0.0009
31.65 -0.00125
31.7 -0.00089
31.75 -0.00033
31.8 0.00022
31.85 0.00096
31.9 0.00175
31.95 0.00185
32 0.00116
32.05 0.0004
32.1 0.00006
32.15 0.00032
32.2 0.00092
32.25 0.00138
32.3 0.00129
32.35 0.00089
32.4 0.00066
32.45 0.00106
32.5 0.00126
32.55 0.00054
32.6 -0.00043
32.65 -0.00175
32.7 -0.00241
32.75 -0.00262
32.8 -0.00195
32.85 -0.00141
32.9 -0.00033
32.95 -0.00002
33 0.00079
33.05 0.00048
33.1 -0.00046
33.15 -0.00092
33.2 -0.0011
33.25 -0.0007
33.3 0.00006
33.35 0.00048
33.4 0.0013
33.45 0.00203
33.5 0.00153
33.55 0.00046
33.6 0.00005
33.65 0.00011
33.7 0.00068
33.75 0.00051
33.8 0.00085
33.85 0.00118
33.9 0.00083
33.95 0.00083
34 0.00106
34.05 0.00101
34.1 0.00033
34.15 -0.00091
34.2 -0.00175
34.25 -0.00203
34.3 -0.0027
34.35 -0.00238
34.4 -0.00233
34.45 -0.00155
34.5 -0.00166
34.55 -0.00215
34.6 -0.0024
34.65 -0.00175
34.7 -0.00058
34.75 -0.00025
34.8 -0.00003
34.85 0.00059
34.9 0.00108
34.95 0.00106
35 0.00134
35.05 0.00124
35.1 0.00128
35.15 0.00128
35.2 0.00081
35.25 0.00059
35.3 0.00062
35.35 0.00017
35.4 -0.00046
35.45 -0.00138
35.5 -0.0017
35.55 -0.00169
35.6 -0.00173
35.65 -0.00206
35.7 -0.00272
35.75 -0.00256
35.8 -0.00208
35.85 -0.00191
35.9 -0.00122
35.95 -0.00099
36 -0.00029
36.05 -0.00023
36.1 -0.00053
36.15 -0.00074
36.2 -0.00059
36.25 -0.00091
36.3 -0.00177
36.35 -0.00221
36.4 -0.00286
36.45 -0.00301
36.5 -0.0024
36.55 -0.00144
36.6 -0.00097
36.65 -0.00044
36.7 -0.0002
36.75 0.00059
36.8 0.00127
36.85 0.0021
36.9 0.00187
36.95 0.00153
37 0.00113
37.05 0.0003
37.1 -0.00076
37.15 -0.00102
37.2 -0.0009
37.25 -0.00046
37.3 -0.00008
37.35 0.00059
37.4 0.00107
37.45 0.00144
37.5 0.00204
37.55 0.00196
37.6 0.00145
37.65 0.0006
37.7 -0.0005
37.75 -0.00173
37.8 -0.00281
37.85 -0.00366
37.9 -0.00396
37.95 -0.00442
38 -0.00433
38.05 -0.00355
38.1 -0.00308
38.15 -0.00272
38.2 -0.00252
38.25 -0.00261
38.3 -0.00306
38.35 -0.00287
38.4 -0.00268
38.45 -0.00206
38.5 -0.00129
38.55 0
38.6 0.00053
38.65 0.00053
38.7 0.00013
38.75 -0.0005
38.8 -0.00131
38.85 -0.00201
38.9 -0.00252
38.95 -0.00258
39 -0.00171
39.05 -0.00129
39.1 -0.00114
39.15 -0.00147
39.2 -0.00126
39.25 -0.00035
39.3 -0.00031
39.35 -0.00018
39.4 -0.00066
39.45 -0.00143
39.5 -0.0018
39.55 -0.00204
39.6 -0.00148
39.65 -0.00154
39.7 -0.00191
39.75 -0.00223
39.8 -0.00157
39.85 -0.00134
39.9 -0.00088
39.95 -0.00011
40 0.00021
40.05 0.00005
40.1 0.00007
40.15 -0.00011
40.2 -0.00041
40.25 -0.00072
40.3 -0.00104
40.35 -0.00158
40.4 -0.00198
40.45 -0.00218
40.5 -0.00206
40.55 -0.00216
40.6 -0.00167
40.65 -0.00177
40.7 -0.00124
40.75 -0.00101
40.8 -0.00021
40.85 0.0009
40.9 0.00135
40.95 0.00177
41 0.00195
41.05 0.0025
41.1 0.00293
41.15 0.00238
41.2 0.00139
41.25 0.00093
41.3 0.00025
41.35 0.0003
41.4 0.00089
41.45 0.00111
41.5 0.00067
41.55 0.00031
41.6 -0.00042
41.65 -0.00098
41.7 -0.00107
41.75 -0.00143
41.8 -0.00182
41.85 -0.00131
41.9 -0.0012
41.95 -0.00149
42 -0.00101
42.05 -0.00077
42.1 -0.0004
42.15 -0.00038
42.2 0.0002
42.25 0.00086
42.3 0.00185
42.35 0.00172
42.4 0.00154
42.45 0.00098
42.5 0.00073
42.55 0.00075
42.6 0.00006
42.65 -0.00026
42.7 -0.00094
42.75 -0.00159
42.8 -0.00179
42.85 -0.00186
42.9 -0.00132
42.95 -0.00139
43 -0.00111
43.05 -0.0006
43.1 -0.00064
43.15 -0.00029
43.2 0.0001
43.25 0.00079
43.3 0.00184
43.35 0.0028
43.4 0.00328
43.45 0.00319
43.5 0.00315
43.55 0.00329
43.6 0.00319
43.65 0.00243
43.7 0.00188
43.75 0.00167
43.8 0.00104
43.85 0.00013
43.9 -0.00043
43.95 -0.00098
44 -0.00166
44.05 -0.00133
44.1 -0.0012
44.15 -0.00099
44.2 -0.00052
44.25 -0.00074
44.3 -0.00055
44.35 -0.00033
44.4 -0.0001
44.45 0.00021
44.5 -0.00024
44.55 -0.00083
44.6 -0.0017
44.65 -0.00148
44.7 -0.00159
44.75 -0.00193
44.8 -0.00224
44.85 -0.00271
44.9 -0.00292
44.95 -0.00231
45 -0.00218
45.05 -0.00241
45.1 -0.0028
45.15 -0.00289
45.2 -0.00277
45.25 -0.00229
45.3 -0.00143
45.35 -0.00062
45.4 -0.00068
45.45 -0.00067
45.5 -0.00065
45.55 -0.00026
45.6 0.0004
45.65 0.00036
45.7 0.00073
45.75 0.00069
45.8 0.00064
45.85 0.00101
45.9 0.00093
45.95 0.00052
46 0.00083
46.05 0.00112
46.1 0.00157
46.15 0.0021
46.2 0.00216
46.25 0.00228
46.3 0.00214
46.35 0.00219
46.4 0.00269
46.45 0.00327
46.5 0.00365
46.55 0.00389
46.6 0.00428
46.65 0.00354
46.7 0.00214
46.75 0.00069
46.8 0.00028
46.85 -0.00002
46.9 0.00045
46.95 0.00032
47 0.00073
47.05 0.00146
47.1 0.00136
47.15 0.00176
47.2 0.00224
47.25 0.0028
47.3 0.00315
47.35 0.00244
47.4 0.00148
47.45 0.0012
47.5 0.00136
47.55 0.00129
47.6 0.00097
47.65 0.00097
47.7 0.00034
47.75 0.00028
47.8 0.0009
47.85 0.00163
47.9 0.0024
47.95 0.0025
48 0.00177
48.05 0.00122
48.1 0.00056
48.15 0.00045
48.2 0.00049
48.25 -0.00021
48.3 -0.00009
48.35 -0.00007
48.4 -0.00025
48.45 -0.0003
48.5 -0.0009
48.55 -0.00139
48.6 -0.00125
48.65 -0.00112
48.7 -0.00096
48.75 -0.00116
48.8 -0.00104
48.85 -0.00043
48.9 -0.00074
48.95 -0.00078
49 -0.00039
49.05 -0.00062
49.1 -0.00011
49.15 0.00034
49.2 -0.00007
49.25 -0.00008
49.3 0.0005
49.35 0.00061
49.4 0.00119
49.45 0.00181
49.5 0.00178
49.55 0.00181
49.6 0.00115
49.65 0.0008
49.7 0.0007
49.75 -0.0001
49.8 -0.00122
49.85 -0.00202
49.9 -0.00294
49.95 -0.00387
50 -0.0047
50.05 -0.00544
50.1 -0.006
50.15 -0.00582
50.2 -0.00452
50.25 -0.00381
50.3 -0.00334
50.35 -0.00239
50.4 -0.0016
50.45 -0.00045
50.5 0
50.55 -0.00034
50.6 -0.00035
50.65 -0.00028
50.7 -0.0003
50.75 -0
50.8 0.00028
50.85 0.00107
50.9 0.00209
50.95 0.00216
51 0.00192
51.05 0.00102
51.1 0.00038
51.15 -0.00064
51.2 -0.00101
51.25 -0.00174
51.3 -0.00203
51.35 -0.00264
51.4 -0.00261
51.45 -0.00251
51.5 -0.00197
51.55 -0.00159
51.6 -0.00167
51.65 -0.00212
51.7 -0.00223
51.75 -0.00188
51.8 -0.00183
51.85 -0.00203
51.9 -0.00175
51.95 -0.00094
52 -0.00011
52.05 0.00003
52.1 -0.0001
52.15 -0.00058
52.2 -0.00136
52.25 -0.00124
52.3 -0.00097
52.35 -0.00017
52.4 0.00092
52.45 0.00147
52.5 0.00131
52.55 0.00049
52.6 0.00042
52.65 0.00061
52.7 0.00035
52.75 0.00031
52.8 0.00035
52.85 0.00002
52.9 -0.0005
52.95 -0.00006
53 0.00011
53.05 0.00013
53.1 -0.0001
53.15 -0.00073
53.2 -0.00078
53.25 -0.00038
53.3 0.00064
53.35 0.00075
53.4 0.0003
53.45 -0.00062
53.5 -0.0012
53.55 -0.00208
53.6 -0.00287
53.65 -0.00242
53.7 -0.00183
53.75 -0.00174
53.8 -0.00097
53.85 -0.00008
53.9 0.00096
53.95 0.00208
54 0.00232
54.05 0.00248
54.1 0.00249
54.15 0.002
54.2 0.00149
54.25 0.0007
54.3 0.00053
54.35 0.00111
54.4 0.00109
54.45 0.0012
54.5 0.00064
54.55 -0.00045
54.6 -0.00073
54.65 -0.00143
54.7 -0.00124
54.75 -0.00053
54.8 -0.00002
54.85 0.00081
54.9 0.00173
54.95 0.00157
55 0.002
55.05 0.00183
55.1 0.00215
55.15 0.002
55.2 0.00223
55.25 0.00229
55.3 0.00149
55.35 0.00102
55.4 0.00118
55.45 0.00093
55.5 0.00133
55.55 0.00084
55.6 0.00028
55.65 0.00017
55.7 -0.00053
55.75 -0.00064
55.8 -0.00117
55.85 -0.00084
55.9 0.00008
55.95 0.00093
56 0.00117
56.05 0.00182
56.1 0.00166
56.15 0.0021
56.2 0.00267
56.25 0.00306
56.3 0.00331
56.35 0.00283
56.4 0.00289
56.45 0.00314
56.5 0.00318
56.55 0.003
56.6 0.00244
56.65 0.00115
56.7 0.00014
56.75 -0.00069
56.8 -0.00187
56.85 -0.00281
56.9 -0.00354
56.95 -0.00326
57 -0.00251
57.05 -0.00175
57.1 -0.00169
57.15 -0.00133
57.2 -0.00078
57.25 -0.00092
57.3 -0.00033
57.35 0.00033
57.4 0.00099
57.45 0.00067
57.5 0.00094
57.55 0.00124
57.6 0.00198
57.65 0.00197
57.7 0.00216
57.75 0.00181
57.8 0.00147
57.85 0.00178
57.9 0.00228
57.95 0.00209
58 0.00219
58.05 0.00257
58.1 0.00216
58.15 0.0017
58.2 0.00055
58.25 -0.00063
58.3 -0.00068
58.35 -0.00138
58.4 -0.00204
58.45 -0.00261
58.5 -0.00238
58.55 -0.00229
58.6 -0.00258
58.65 -0.00289
58.7 -0.00307
58.75 -0.00239
58.8 -0.00229
58.85 -0.00236
58.9 -0.00192
58.95 -0.00162
59 -0.00094
59.05 -0.00035
59.1 0.00014
59.15 0.0006
59.2 0.00037
59.25 0.00084
59.3 0.00108
59.35 0.00049
59.4 0.00028
59.45 -0.00057
59.5 -0.00057
59.55 0.00002
59.6 0.00072
59.65 0.00057
59.7 0.00002
59.75 -0.00031
59.8 -0.00033
59.85 0.00007
59.9 -0.0002
59.95 -0.00077
60 -0.00053
60.05 0.00014
60.1 0.0004
60.15 0.00068
60.2 0.00112
60.25 0.0018
60.3 0.00178
60.35 0.00091
60.4 -0.0002
60.45 -0.00077
60.5 -0.00101
60.55 -0.00121
60.6 -0.00073
60.65 -0.00091
60.7 -0.00167
60.75 -0.00186
60.8 -0.00133
60.85 -0.00019
60.9 0.00035
60.95 0.00038
61 -0.00019
61.05 -0.00051
61.1 -0.00115
61.15 -0.00162
61.2 -0.00152
61.25 -0.00135
61.3 -0.00182
61.35 -0.00257
61.4 -0.00236
61.45 -0.00254
61.5 -0.00302
61.55 -0.00351
61.6 -0.00344
61.65 -0.00306
61.7 -0.00277
61.75 -0.00314
61.8 -0.00396
61.85 -0.00496
61.9 -0.00592
61.95 -0.00584
62 -0.00535
62.05 -0.00498
62.1 -0.00438
62.15 -0.00435
62.2 -0.00451
62.25 -0.00469
62.3 -0.00582
62.35 -0.00746
62.4 -0.00979
62.45 -0.01288
62.5 -0.0165
62.55 -0.01984
62.6 -0.02332
62.65 -0.02805
62.7 -0.03285
62.75 -0.03908
62.8 -0.04543
62.85 -0.05277
62.9 -0.0614
62.95 -0.07122
63 -0.08188
63.05 -0.09226
63.1 -0.10371
63.15 -0.11566
63.2 -0.12819
63.25 -0.14231
63.3 -0.15793
63.35 -0.17463
63.4 -0.19164
63.45 -0.20961
63.5 -0.22731
63.55 -0.24595
63.6 -0.26436
63.65 -0.28309
63.7 -0.30212
63.75 -0.32053
63.8 -0.33925
63.85 -0.35685
63.9 -0.37273
63.95 -0.38735
64 -0.40048
64.05 -0.4124
64.1 -0.42141
64.15 -0.42873
64.2 -0.43346
64.25 -0.43537
64.3 -0.43462
64.35 -0.43011
64.4 -0.42293
64.45 -0.41228
64.5 -0.3989
64.55 -0.38316
64.6 -0.36513
64.65 -0.34477
64.7 -0.3214
64.75 -0.29574
64.8 -0.26783
64.85 -0.23855
64.9 -0.20829
64.95 -0.17781
65 -0.14804
65.05 -0.11818
65.1 -0.0878
65.15 -0.0582
65.2 -0.02977
65.25 -0.0025
65.3 0.02464
65.35 0.05114
65.4 0.07674
65.45 0.10025
65.5 0.12301
65.55 0.1442
65.6 0.16421
65.65 0.18218
65.7 0.19824
65.75 0.21416
65.8 0.22869
65.85 0.24217
65.9 0.25431
65.95 0.26594
66 0.27775
66.05 0.28923
66.1 0.29963
66.15 0.3093
66.2 0.31886
66.25 0.32736
66.3 0.33495
66.35 0.34109
66.4 0.34635
66.45 0.35092
66.5 0.35528
66.55 0.35951
66.6 0.36347
66.65 0.36593
66.7 0.36721
66.75 0.36743
66.8 0.36621
66.85 0.3647
66.9 0.36322
66.95 0.36095
67 0.35739
67.05 0.35366
67.1 0.3497
67.15 0.34474
67.2 0.33885
67.25 0.33184
67.3 0.3244
67.35 0.31704
67.4 0.30941
67.45 0.30115
67.5 0.29238
67.55 0.28413
67.6 0.27614
67.65 0.26773
67.7 0.25971
67.75 0.25247
67.8 0.24546
67.85 0.23811
67.9 0.23113
67.95 0.22431
68 0.2164
68.05 0.20845
68.1 0.19968
68.15 0.19097
68.2 0.18287
68.25 0.17482
68.3 0.16683
68.35 0.15865
68.4 0.15071
68.45 0.14341
68.5 0.13616
68.55 0.12967
68.6 0.12388
68.65 0.11864
68.7 0.11318
68.75 0.10706
68.8 0.10053
68.85 0.09444
68.9 0.08856
68.95 0.08289
69 0.07697
69.05 0.07033
69.1 0.06341
69.15 0.05714
69.2 0.05148
69.25 0.04529
69.3 0.03905
69.35 0.03284
69.4 0.02683
69.45 0.02187
69.5 0.01676
69.55 0.01255
69.6 0.00899
69.65 0.00569
69.7 0.00164
69.75 -0.00299
69.8 -0.00776
69.85 -0.01163
69.9 -0.01569
69.95 -0.01901
70 -0.02252
70.05 -0.02499
70.1 -0.02697
70.15 -0.02955
70.2 -0.0321
70.25 -0.03408
70.3 -0.03579
70.35 -0.03739
70.4 -0.03961
70.45 -0.04213
70.5 -0.04413
70.55 -0.04546
70.6 -0.04738
70.65 -0.04867
70.7 -0.04974
70.75 -0.05125
70.8 -0.05194
70.85 -0.05299
70.9 -0.05409
70.95 -0.05435
71 -0.05425
71.05 -0.05426
71.1 -0.05439
71.15 -0.05533
71.2 -0.05644
71.25 -0.05782
71.3 -0.0583
71.35 -0.05904
71.4 -0.0594
71.45 -0.06008
71.5 -0.05999
71.55 -0.05949
71.6 -0.05851
71.65 -0.05759
71.7 -0.05638
71.75 -0.05593
71.8 -0.05499
71.85 -0.05503
71.9 -0.0545
71.95 -0.05382
72 -0.05362
72.05 -0.05289
72.1 -0.05217
72.15 -0.05099
72.2 -0.04977
72.25 -0.04867
72.3 -0.04874
72.35 -0.04894
72.4 -0.04857
72.45 -0.04794
72.5 -0.04777
72.55 -0.04723
72.6 -0.04678
72.65 -0.04602
72.7 -0.04591
72.75 -0.04573
72.8 -0.04576
72.85 -0.04531
72.9 -0.04469
72.95 -0.04466
73 -0.04497
73.05 -0.04494
73.1 -0.04472
73.15 -0.04395
73.2 -0.04234
73.25 -0.04142
73.3 -0.04105
73.35 -0.03975
73.4 -0.0384
73.45 -0.0376
73.5 -0.03657
73.55 -0.03592
73.6 -0.03534
73.65 -0.03515
73.7 -0.03457
73.75 -0.03451
73.8 -0.03439
73.85 -0.03378
73.9 -0.03317
73.95 -0.03205
74 -0.03099
74.05 -0.02996
74.1 -0.0291
74.15 -0.02791
74.2 -0.0276
74.25 -0.02764
74.3 -0.0283
74.35 -0.02894
74.4 -0.02883
74.45 -0.02923
74.5 -0.02864
74.55 -0.02745
74.6 -0.02584
74.65 -0.02456
74.7 -0.02367
74.75 -0.02339
74.8 -0.02333
74.85 -0.02328
74.9 -0.02287
74.95 -0.02271
75 -0.02324
75.05 -0.02276
75.1 -0.02197
75.15 -0.02113
75.2 -0.02097
75.25 -0.0209
75.3 -0.02059
75.35 -0.02053
75.4 -0.02004
75.45 -0.02017
75.5 -0.02012
75.55 -0.01991
75.6 -0.02007
75.65 -0.01936
75.7 -0.01924
75.75 -0.01959
75.8 -0.01951
75.85 -0.01989
75.9 -0.02028
75.95 -0.02039
76 -0.0205
76.05 -0.0202
76.1 -0.01918
76.15 -0.01874
76.2 -0.01791
76.25 -0.01656
76.3 -0.01569
76.35 -0.01491
76.4 -0.01463
76.45 -0.01373
76.5 -0.01255
76.55 -0.01227
76.6 -0.01192
76.65 -0.01247
76.7 -0.01315
76.75 -0.01387
76.8 -0.01378
76.85 -0.01293
76.9 -0.01164
76.95 -0.01148
77 -0.01127
77.05 -0.01048
77.1 -0.00987
77.15 -0.00974
77.2 -0.00924
77.25 -0.00977
77.3 -0.01035
77.35 -0.01097
77.4 -0.01085
77.45 -0.01126
77.5 -0.01164
77.55 -0.01172
77.6 -0.01209
77.65 -0.01166
77.7 -0.01094
77.75 -0.01103
77.8 -0.01101
77.85 -0.01037
77.9 -0.00923
77.95 -0.00788
78 -0.00681
78.05 -0.00657
78.1 -0.0071
78.15 -0.00781
78.2 -0.00823
78.25 -0.0078
78.3 -0.00764
78.35 -0.00724
78.4 -0.00692
78.45 -0.0067
78.5 -0.0067
78.55 -0.0069
78.6 -0.00689
78.65 -0.00705
78.7 -0.00707
78.75 -0.00728
78.8 -0.00693
78.85 -0.0072
78.9 -0.00679
78.95 -0.00693
79 -0.0072
79.05 -0.00751
79.1 -0.00787
79.15 -0.00826
79.2 -0.0084
79.25 -0.00838
79.3 -0.00838
79.35 -0.00841
79.4 -0.00881
79.45 -0.00935
79.5 -0.0088
79.55 -0.00877
79.6 -0.0081
79.65 -0.00731
79.7 -0.00671
79.75 -0.0065
79.8 -0.00572
79.85 -0.00504
79.9 -0.00509
79.95 -0.00562
80 -0.0063
80.05 -0.00598
80.1 -0.00532
80.15 -0.00447
80.2 -0.00326
80.25 -0.00289
80.3 -0.00268
80.35 -0.00234
80.4 -0.00215
80.45 -0.00252
80.5 -0.00275
80.55 -0.00225
80.6 -0.00234
80.65 -0.0018
80.7 -0.0013
80.75 -0.00165
80.8 -0.00237
80.85 -0.0025
80.9 -0.00298
80.95 -0.00366
81 -0.00351
81.05 -0.00373
81.1 -0.00358
81.15 -0.00279
81.2 -0.00219
81.25 -0.00195
81.3 -0.00241
81.35 -0.00319
81.4 -0.00378
81.45 -0.00451
81.5 -0.00493
81.55 -0.00481
81.6 -0.00393
81.65 -0.00297
81.7 -0.00264
81.75 -0.0031
81.8 -0.00301
81.85 -0.00309
81.9 -0.00248
81.95 -0.00195
82 -0.00118
82.05 -0.00065
82.1 0.00014
82.15 -0.00004
82.2 -0.0002
82.25 -0.00102
82.3 -0.00109
82.35 -0.00071
82.4 -0.00096
82.45 -0.00169
82.5 -0.00252
82.55 -0.00245
82.6 -0.00302
82.65 -0.00273
82.7 -0.00245
82.75 -0.00165
82.8 -0.00189
82.85 -0.00185
82.9 -0.00153
82.95 -0.00092
83 -0.00085
83.05 -0.00026
83.1 -0.00071
83.15 -0.0008
83.2 -0.00073
83.25 -0.00148
83.3 -0.00169
83.35 -0.00117
83.4 -0.00157
83.45 -0.00205
83.5 -0.003
83.55 -0.0031
83.6 -0.00299
83.65 -0.0035
83.7 -0.00381
83.75 -0.00454
83.8 -0.00524
83.85 -0.00595
83.9 -0.00664
83.95 -0.00599
84 -0.00463
84.05 -0.00347
84.1 -0.00292
84.15 -0.00239
84.2 -0.00252
84.25 -0.00197
84.3 -0.00208
84.35 -0.00146
84.4 -0.00043
84.45 0.00038
84.5 0.00128
84.55 0.00199
84.6 0.00244
84.65 0.00268
84.7 0.0032
84.75 0.00248
84.8 0.00181
84.85 0.00144
84.9 0.00164
84.95 0.00219
85 0.00291
85.05 0.00297
85.1 0.00223
85.15 0.00178
85.2 0.00068
85.25 -0.00059
85.3 -0.00187
85.35 -0.00252
85.4 -0.00319
85.45 -0.00373
85.5 -0.00361
85.55 -0.00308
85.6 -0.0019
85.65 -0.00098
85.7 -0.00085
85.75 -0.00086
85.8 -0.0008
85.85 -0.00025
85.9 -0.00058
85.95 -0.00093
86 -0.00134
86.05 -0.00123
86.1 -0.00069
86.15 -0.00107
86.2 -0.00112
86.25 -0.00134
86.3 -0.00105
86.35 -0.00138
86.4 -0.00146
86.45 -0.00169
86.5 -0.00219
86.55 -0.0024
86.6 -0.00299
86.65 -0.0026
86.7 -0.00265
86.75 -0.00205
86.8 -0.00225
86.85 -0.00241
86.9 -0.0025
86.95 -0.0018
87 -0.00152
87.05 -0.00155
87.1 -0.00203
87.15 -0.0028
87.2 -0.00291
87.25 -0.00277
87.3 -0.00231
87.35 -0.00249
87.4 -0.0029
87.45 -0.00301
87.5 -0.0034
87.55 -0.00379
87.6 -0.00343
87.65 -0.00322
87.7 -0.00332
87.75 -0.00376
87.8 -0.00326
87.85 -0.00218
87.9 -0.00105
87.95 -0.0007
88 -0.00009
88.05 -0.0001
88.1 0.00015
88.15 0.0008
88.2 0.00052
88.25 -0.00009
88.3 -0.00022
88.35 0.00046
88.4 0.00098
88.45 0.00065
88.5 0.00103
88.55 0.00125
88.6 0.0017
88.65 0.00248
88.7 0.00283
88.75 0.00264
88.8 0.00199
88.85 0.00112
88.9 -0.00017
88.95 -0.00028
89 0.00032
89.05 0.00118
89.1 0.00112
89.15 0.00101
89.2 0.00153
89.25 0.00118
89.3 0.00077
89.35 0.00052
89.4 0.00082
89.45 0.00116
89.5 0.0007
89.55 0.00076
89.6 0.00136
89.65 0.00176
89.7 0.00231
89.75 0.00304
89.8 0.00315
89.85 0.00223
89.9 0.00099
89.95 0.00003
90 -0.00132
90.05 -0.00227
90.1 -0.00288
90.15 -0.00237
90.2 -0.00199
90.25 -0.00092
90.3 -0.00068
90.35 -0.00054
90.4 -0.00097
90.45 -0.00055
90.5 0.00018
90.55 0.00087
90.6 0.00178
90.65 0.00226
90.7 0.00284
90.75 0.00295
90.8 0.00292
90.85 0.00237
90.9 0.00192
90.95 0.00212
91 0.00162
91.05 0.00076
91.1 0.00017
91.15 -0.00037
91.2 -0.0013
91.25 -0.00194
91.3 -0.00163
91.35 -0.00149
91.4 -0.00199
91.45 -0.00154
91.5 -0.00161
91.55 -0.00125
91.6 -0.0007
91.65 -0.00079
91.7 -0.00084
91.75 -0.00025
91.8 0.00035
91.85 0.00112
91.9 0.00148
91.95 0.00211
92 0.00247
92.05 0.00237
92.1 0.00157
92.15 0.00038
92.2 -0.00035
92.25 -0.00054
92.3 -0.00102
92.35 -0.00072
92.4 -0.00071
92.45 -0.00102
92.5 -0.00184
92.55 -0.00157
92.6 -0.00167
92.65 -0.00201
92.7 -0.00205
92.75 -0.00164
92.8 -0.00194
92.85 -0.0014
92.9 -0.00094
92.95 -0.00121
93 -0.0006
93.05 0.00039
93.1 0.00075
93.15 0.00145
93.2 0.00202
93.25 0.00265
93.3 0.00248
93.35 0.00171
93.4 0.00087
93.45 0.00029
93.5 -0.00068
93.55 -0.00078
93.6 -0.00081
93.65 -0.00107
93.7 -0.00119
93.75 -0.00063
93.8 -0.00065
93.85 -0.00133
93.9 -0.00123
93.95 -0.0006
94 -0.00033
94.05 0.00022
94.1 0.00044
94.15 0.00014
94.2 -0.00005
94.25 -0.00061
94.3 -0.0004
94.35 -0.00064
94.4 -0.00112
94.45 -0.00095
94.5 -0.00076
94.55 -0.00053
94.6 -0.00011
94.65 0.00011
94.7 -0.00024
94.75 -0.00079
94.8 -0.00081
94.85 -0.00147
94.9 -0.00204
94.95 -0.00236
95 -0.00199
95.05 -0.00209
95.1 -0.00194
95.15 -0.00158
95.2 -0.00094
95.25 -0.00085
95.3 -0.00141
95.35 -0.00191
95.4 -0.00274
95.45 -0.00252
95.5 -0.00203
95.55 -0.00198
95.6 -0.00139
95.65 -0.00065
95.7 -0.00001
95.75 0.0006
95.8 0.00092
95.85 0.00106
95.9 0.0008
95.95 0.00064
96 0.00056
96.05 0.00036
96.1 0.00001
96.15 -0.00081
96.2 -0.00132
96.25 -0.00132
96.3 -0.00065
96.35 -0.00079
96.4 -0.00027
96.45 0.0006
96.5 0.00057
96.55 0.00057
96.6 0.0007
96.65 0.00027
96.7 -0.00028
96.75 0.00005
96.8 0.00075
96.85 0.00183
96.9 0.00234
96.95 0.00183
97 0.00148
97.05 0.00122
97.1 0.00127
97.15 0.00157
97.2 0.00111
97.25 0.00067
97.3 0.0002
97.35 -0.00017
97.4 -0.00094
97.45 -0.00146
97.5 -0.00219
97.55 -0.00273
97.6 -0.00215
97.65 -0.00153
97.7 -0.00118
97.75 -0.00061
97.8 0.0003
97.85 0.00117
97.9 0.00157
97.95 0.00154
98 0.00107
98.05 0.00039
98.1 0.00057
98.15 0.00108
98.2 0.00165
98.25 0.00154
98.3 0.00139
98.35 0.00096
98.4 0.00096
98.45 0.00111
98.5 0.00075
98.55 0.00094
98.6 0.00121
98.65 0.00062
98.7 -0.0004
98.75 -0.00156
98.8 -0.00203
98.85 -0.00232
98.9 -0.00228
98.95 -0.00273
99 -0.00324
99.05 -0.00314
99.1 -0.00302
99.15 -0.00215
99.2 -0.00188
99.25 -0.0009
99.3 -0.0001
99.35 0.00045
99.4 0.00138
99.45 0.0021
99.5 0.00302
99.55 0.00369
99.6 0.00355
99.65 0.00339
99.7 0.00348
99.75 0.00261
99.8 0.00199
99.85 0.00134
99.9 0.00068
99.95 0.00046
