0 0
0.05 0.0001
0.1 0.00017
0.15 0.0003
0.2 0.00044
0.25 0.00053
0.3 0.00058
0.35 0.00057
0.4 0.00054
0.45 0.00054
0.5 0.0005
0.55 0.00054
0.6 0.00056
0.65 0.00057
0.7 0.00063
0.75 0.0007
0.8 0.00071
0.85 0.00074
0.9 0.00073
0.95 0.0007
1 0.00065
1.05 0.00065
1.1 0.00062
1.15 0.00061
1.2 0.00065
1.25 0.00067
1.3 0.00065
1.35 0.00058
1.4 0.00048
1.45 0.00046
1.5 0.00048
1.55 0.0005
1.6 0.00049
1.65 0.00051
1.7 0.00053
1.75 0.00054
1.8 0.00051
1.85 0.00048
1.9 0.0005
1.95 0.00051
2 0.00053
2.05 0.00047
2.1 0.0004
2.15 0.00035
2.2 0.00027
2.25 0.00028
2.3 0.00026
2.35 0.00024
2.4 0.00027
2.45 0.00024
2.5 0.00026
2.55 0.00032
2.6 0.00032
2.65 0.00034
2.7 0.00032
2.75 0.00034
2.8 0.00035
2.85 0.00039
2.9 0.00041
2.95 0.00039
3 0.00041
3.05 0.00036
3.1 0.00036
3.15 0.00031
3.2 0.00031
3.25 0.00031
3.3 0.00028
3.35 0.00022
3.4 0.00015
3.45 0.00013
3.5 0.00009
3.55 0.00012
3.6 0.00019
3.65 0.00027
3.7 0.00027
3.75 0.00025
3.8 0.00018
3.85 0.00019
3.9 0.00018
3.95 0.00016
4 0.00018
4.05 0.00023
4.1 0.00025
4.15 0.00022
4.2 0.00022
4.25 0.00021
4.3 0.00017
4.35 0.00018
4.4 0.0002
4.45 0.00022
4.5 0.00019
4.55 0.00014
4.6 0.00015
4.65 0.00014
4.7 0.00017
4.75 0.00017
4.8 0.00014
4.85 0.00006
4.9 0.00006
4.95 0.00006
5 0.00007
5.05 0.00013
5.1 0.00015
5.15 0.00018
5.2 0.0002
5.25 0.0002
5.3 0.00015
5.35 0.0001
5.4 0.00002
5.45 -0.00003
5.5 -0.00001
5.55 -0
5.6 0.00005
5.65 0.00012
5.7 0.00014
5.75 0.00013
5.8 0.00008
5.85 0.00003
5.9 -0.00004
5.95 -0.00004
6 -0.00008
6.05 -0.00011
6.1 -0.00015
6.15 -0.00015
6.2 -0.00009
6.25 0
6.3 0.00004
6.35 0.00002
6.4 0.00007
6.45 0.00011
6.5 0.00009
6.55 0.00009
6.6 0.00006
6.65 0.00002
6.7 0.00001
6.75 0.00004
6.8 0.00008
6.85 0.00007
6.9 0.00003
6.95 0.00004
7 0.00006
7.05 0.00012
7.1 0.00013
7.15 0.00011
7.2 0.00006
7.25 -0.00002
7.3 -0.00003
7.35 -0.00001
7.4 -0.00004
7.45 -0.00006
7.5 -0.0001
7.55 -0.00011
7.6 -0.00007
7.65 -0.00001
7.7 0.00007
7.75 0.00013
7.8 0.00018
7.85 0.00017
7.9 0.00017
7.95 0.00015
8 0.00015
8.05 0.00013
8.1 0.00013
8.15 0.00008
8.2 0.00005
8.25 0.00004
8.3 -0
8.35 0.00001
8.4 0.00003
8.45 0.00008
8.5 0.00005
8.55 0.00005
8.6 0.0001
8.65 0.00011
8.7 0.00013
8.75 0.00015
8.8 0.00011
8.85 0.00011
8.9 0.0001
8.95 0.00012
9 0.00014
9.05 0.00016
9.1 0.00015
9.15 0.00015
9.2 0.0001
9.25 0.0001
9.3 0.00007
9.35 0.00006
9.4 0.00007
9.45 0.00011
9.5 0.00011
9.55 0.00006
9.6 0.00005
9.65 0.00004
9.7 -0
9.75 -0.00006
9.8 -0.00011
9.85 -0.00019
9.9 -0.00023
9.95 -0.00027
10 -0.00031
10.05 -0.00028
10.1 -0.00027
10.15 -0.00027
10.2 -0.00022
10.25 -0.00012
10.3 -0.00001
10.35 0.00012
10.4 0.00023
10.45 0.00028
10.5 0.00028
10.55 0.00025
10.6 0.00017
10.65 0.00011
10.7 0.0001
10.75 0.00013
10.8 0.00012
10.85 0.00009
10.9 0.0001
10.95 0.00007
11 0.00006
11.05 0.00004
11.1 0.00003
11.15 0.00001
11.2 0.00003
11.25 0.00001
11.3 0.00003
11.35 0.00007
11.4 0.00011
11.45 0.00013
11.5 0.00011
11.55 0.00014
11.6 0.00013
11.65 0.00007
11.7 0.00001
11.75 -0.00008
11.8 -0.00008
11.85 -0.00007
11.9 -0.00007
11.95 -0.00004
12 -0.00005
12.05 -0.00004
12.1 0
12.15 0.00007
12.2 0.00012
12.25 0.00016
12.3 0.00019
12.35 0.00021
12.4 0.00019
12.45 0.00012
12.5 0.00012
12.55 0.00012
12.6 0.00016
12.65 0.00014
12.7 0.00007
12.75 -0.00002
12.8 -0.00011
12.85 -0.00014
12.9 -0.00014
12.95 -0.0001
13 -0.00002
13.05 0.00002
13.1 0.00008
13.15 0.00015
13.2 0.00022
13.25 0.00021
13.3 0.00019
13.35 0.00018
13.4 0.00018
13.45 0.00015
13.5 0.00009
13.55 0.00003
13.6 -0.00003
13.65 -0.00007
13.7 -0.00005
13.75 -0.00007
13.8 -0.0001
13.85 -0.00015
13.9 -0.00018
13.95 -0.00017
14 -0.00013
14.05 -0.00009
14.1 -0.00003
14.15 0.00003
14.2 0.00008
14.25 0.00014
14.3 0.00015
14.35 0.00015
14.4 0.00011
14.45 0.00012
14.5 0.00013
14.55 0.00015
14.6 0.00012
14.65 0.00013
14.7 0.00012
14.75 0.00011
14.8 0.00011
14.85 0.00008
14.9 0.00007
14.95 0.00001
15 -0.00003
15.05 -0.00005
15.1 -0.00011
15.15 -0.00015
15.2 -0.0002
15.25 -0.0002
15.3 -0.00013
15.35 -0.00011
15.4 -0.00004
15.45 0
15.5 -0.00002
15.55 -0.00004
15.6 -0.00008
15.65 -0.00007
15.7 -0.00004
15.75 -0.00007
15.8 -0.00011
15.85 -0.00011
15.9 -0.00007
15.95 -0.00005
16 -0.00007
16.05 -0.00012
16.1 -0.00016
16.15 -0.0002
16.2 -0.00022
16.25 -0.00024
16.3 -0.00027
16.35 -0.00025
16.4 -0.00017
16.45 -0.00011
16.5 -0.00004
16.55 -0.00004
16.6 -0.00006
16.65 -0.00003
16.7 -0.00003
16.75 -0.00006
16.8 -0.00009
16.85 -0.00012
16.9 -0.00016
16.95 -0.00014
17 -0.00012
17.05 -0.0001
17.1 -0.00006
17.15 -0.00001
17.2 0.00007
17.25 0.0001
17.3 0.00014
17.35 0.00021
17.4 0.00021
17.45 0.00016
17.5 0.00013
17.55 0.00006
17.6 0.00004
17.65 -0.00002
17.7 -0.00009
17.75 -0.00013
17.8 -0.00011
17.85 -0.0001
17.9 -0.00012
17.95 -0.00017
18 -0.00021
18.05 -0.0002
18.1 -0.00023
18.15 -0.00027
18.2 -0.00024
18.25 -0.0002
18.3 -0.00011
18.35 0.00001
18.4 0.00005
18.45 0.00008
18.5 0.00006
18.55 0.00002
18.6 0.00003
18.65 -0.00001
18.7 0.00002
18.75 -0.00002
18.8 0.00001
18.85 0.00007
18.9 0.00006
18.95 0.00007
19 0.00012
19.05 0.00014
19.1 0.00016
19.15 0.0002
19.2 0.00018
19.25 0.00013
19.3 0.00006
19.35 0.00004
19.4 -0.00001
19.45 -0.00007
19.5 -0.00014
19.55 -0.00017
19.6 -0.00013
19.65 -0.00009
19.7 -0.00005
19.75 -0.00003
19.8 0.00004
19.85 0.0001
19.9 0.00007
19.95 0.00009
20 0.00013
20.05 0.00018
20.1 0.00023
20.15 0.00026
20.2 0.00028
20.25 0.00029
20.3 0.00022
20.35 0.00018
20.4 0.00014
20.45 0.00011
20.5 0.00004
20.55 -0.00002
20.6 -0.00003
20.65 -0.00005
20.7 -0.00008
20.75 -0.00006
20.8 -0.00008
20.85 -0.0001
20.9 -0.00007
20.95 -0.00006
21 -0.00009
21.05 -0.00006
21.1 -0.00009
21.15 -0.00008
21.2 -0.00007
21.25 -0.00003
21.3 0
21.35 0.00002
21.4 0.00005
21.45 0.00009
21.5 0.00007
21.55 0.00005
21.6 0.00008
21.65 0.00012
21.7 0.00017
21.75 0.00018
21.8 0.00014
21.85 0.00005
21.9 0.00001
21.95 -0.00001
22 -0.00008
22.05 -0.00008
22.1 -0.00006
22.15 -0.00005
22.2 -0.00007
22.25 -0.0001
22.3 -0.00006
22.35 -0.00008
22.4 -0.00011
22.45 -0.00012
22.5 -0.00012
22.55 -0.00015
22.6 -0.00015
22.65 -0.00011
22.7 -0.00011
22.75 -0.00014
22.8 -0.00013
22.85 -0.00016
22.9 -0.00015
22.95 -0.0001
23 -0.00008
23.05 -0.00004
23.1 0
23.15 -0.00001
23.2 0.00003
23.25 0.00001
23.3 0.00003
23.35 0.00009
23.4 0.00015
23.45 0.00015
23.5 0.0001
23.55 0.00001
23.6 -0.00002
23.65 -0.00006
23.7 -0.00006
23.75 -0.00002
23.8 -0.00002
23.85 0.00002
23.9 0.00003
23.95 0.00006
24 0.00008
24.05 0.00012
24.1 0.00018
24.15 0.00017
24.2 0.00016
24.25 0.00011
24.3 0.00007
24.35 0.00006
24.4 0.00006
24.45 0.00009
24.5 0.00007
24.55 0.00005
24.6 0.00001
24.65 -0.00001
24.7 -0
24.75 0.00005
24.8 0.00009
24.85 0.00006
24.9 0.00004
24.95 0.00001
25 -0.00001
25.05 -0
25.1 -0.00003
25.15 -0.00003
25.2 -0.00003
25.25 0
25.3 0.00001
25.35 0.00003
25.4 0.00009
25.45 0.00013
25.5 0.00012
25.55 0.00006
25.6 0.00001
25.65 0.00002
25.7 0.00002
25.75 -0.00002
25.8 -0.00003
25.85 -0.00009
25.9 -0.00009
25.95 -0.00004
26 -0.00004
26.05 0.00001
26.1 0.00002
26.15 0.00006
26.2 0.00004
26.25 0.00001
26.3 0.00002
26.35 0
26.4 0.00004
26.45 0.00009
26.5 0.00008
26.55 0.00007
26.6 0.00002
26.65 0
26.7 0.00002
26.75 -0
26.8 -0.00002
26.85 0.00001
26.9 0.00006
26.95 0.00005
27 -0.00001
27.05 -0.00002
27.1 -0.00008
27.15 -0.00007
27.2 -0.00005
27.25 -0.00006
27.3 -0.00002
27.35 -0.00002
27.4 -0.00003
27.45 -0.00003
27.5 -0.00002
27.55 0.00001
27.6 0.00003
27.65 0.00007
27.7 0.00004
27.75 -0.00003
27.8 -0.00004
27.85 -0.00004
27.9 0
27.95 -0.00003
28 -0.00003
28.05 -0.00006
28.1 -0.00006
28.15 -0.00008
28.2 -0.00007
28.25 -0.0001
28.3 -0.00011
28.35 -0.00015
28.4 -0.00012
28.45 -0.00008
28.5 -0.00003
28.55 -0.00002
28.6 -0.00004
28.65 -0.0001
28.7 -0.00017
28.75 -0.00022
28.8 -0.00021
28.85 -0.00019
28.9 -0.00013
28.95 -0.0001
29 -0.00005
29.05 0.00001
29.1 0.00009
29.15 0.00008
29.2 0.00003
29.25 -0.00005
29.3 -0.00008
29.35 -0.00005
29.4 -0.00001
29.45 0
29.5 0.00001
29.55 -0.00001
29.6 -0.00007
29.65 -0.0001
29.7 -0.00011
29.75 -0.00017
29.8 -0.00015
29.85 -0.00016
29.9 -0.00017
29.95 -0.00011
30 -0.00011
30.05 -0.00011
30.1 -0.00007
30.15 -0.00002
30.2 0.00001
30.25 0.00004
30.3 0.00006
30.35 0.00005
30.4 0.00008
30.45 0.00014
30.5 0.00017
30.55 0.00021
30.6 0.00024
30.65 0.00026
30.7 0.00028
30.75 0.0003
30.8 0.00032
30.85 0.00028
30.9 0.00019
30.95 0.00011
31 0.00001
31.05 -0.00002
31.1 0.00002
31.15 -0.00002
31.2 -0.00004
31.25 -0.00002
31.3 -0.00004
31.35 -0.00007
31.4 -0.00003
31.45 0.00002
31.5 0.00003
31.55 -0.00001
31.6 -0.00003
31.65 -0.00005
31.7 -0.0001
31.75 -0.00012
31.8 -0.00013
31.85 -0.00009
31.9 -0.00007
31.95 -0.00011
32 -0.00009
32.05 -0.00003
32.1 -0.00004
32.15 -0.00007
32.2 -0.00006
32.25 -0.00004
32.3 0
32.35 0.00002
32.4 0.00006
32.45 0.00013
32.5 0.00018
32.55 0.00021
32.6 0.00016
32.65 0.00011
32.7 0.00003
32.75 -0.00004
32.8 -0.0001
32.85 -0.00018
32.9 -0.00026
32.95 -0.0003
33 -0.00031
33.05 -0.00025
33.1 -0.00024
33.15 -0.00022
33.2 -0.00017
33.25 -0.00009
33.3 -0.00008
33.35 -0.00008
33.4 -0.00008
33.45 -0.00007
33.5 -0.00001
33.55 0.00003
33.6 0.00003
33.65 0.00007
33.7 0.00006
33.75 0.00001
33.8 0.00003
33.85 0.00008
33.9 0.00012
33.95 0.00011
34 0.00005
34.05 -0.00001
34.1 -0.00001
34.15 -0.00003
34.2 -0.00006
34.25 -0.00005
34.3 -0.00001
34.35 0.00007
34.4 0.0001
34.45 0.00014
34.5 0.0001
34.55 0.00006
34.6 0.00001
34.65 -0.00002
34.7 -0.00004
34.75 -0.00001
34.8 0
34.85 0.00006
34.9 0.00012
34.95 0.00019
35 0.00022
35.05 0.00017
35.1 0.00016
35.15 0.0001
35.2 0.00002
35.25 -0.00004
35.3 -0.00011
35.35 -0.00016
35.4 -0.00018
35.45 -0.00019
35.5 -0.0002
35.55 -0.00027
35.6 -0.00034
35.65 -0.00047
35.7 -0.00063
35.75 -0.0008
35.8 -0.00098
35.85 -0.00115
35.9 -0.00136
35.95 -0.00163
36 -0.00193
36.05 -0.00227
36.1 -0.00271
36.15 -0.00319
36.2 -0.00377
36.25 -0.0044
36.3 -0.00504
36.35 -0.00578
36.4 -0.00663
36.45 -0.00756
36.5 -0.00858
36.55 -0.00963
36.6 -0.01083
36.65 -0.01208
36.7 -0.01343
36.75 -0.01479
36.8 -0.01622
36.85 -0.01769
36.9 -0.01924
36.95 -0.02082
37 -0.02238
37.05 -0.0239
37.1 -0.02537
37.15 -0.02672
37.2 -0.02797
37.25 -0.02903
37.3 -0.0299
37.35 -0.03059
37.4 -0.03108
37.45 -0.03128
37.5 -0.03121
37.55 -0.03095
37.6 -0.03043
37.65 -0.02963
37.7 -0.02852
37.75 -0.02713
37.8 -0.02549
37.85 -0.0237
37.9 -0.02172
37.95 -0.0196
38 -0.01736
38.05 -0.015
38.1 -0.01257
38.15 -0.01012
38.2 -0.00774
38.25 -0.0054
38.3 -0.00321
38.35 -0.00121
38.4 0.00056
38.45 0.00217
38.5 0.0035
38.55 0.00462
38.6 0.00549
38.65 0.00604
38.7 0.00633
38.75 0.00638
38.8 0.0062
38.85 0.00589
38.9 0.00545
38.95 0.0049
39 0.00422
39.05 0.00347
39.1 0.00273
39.15 0.00201
39.2 0.00129
39.25 0.00071
39.3 0.00022
39.35 -0.00006
39.4 -0.00022
39.45 -0.00021
39.5 0.00005
39.55 0.0005
39.6 0.00113
39.65 0.00197
39.7 0.00299
39.75 0.00406
39.8 0.00524
39.85 0.00654
39.9 0.00787
39.95 0.00929
40 0.01073
40.05 0.01216
40.1 0.01364
40.15 0.01507
40.2 0.01643
40.25 0.0178
40.3 0.01912
40.35 0.02036
40.4 0.02157
40.45 0.02272
40.5 0.02372
40.55 0.02461
40.6 0.02544
40.65 0.02615
40.7 0.02674
40.75 0.02729
40.8 0.0278
40.85 0.02821
40.9 0.02854
40.95 0.02881
41 0.02903
41.05 0.02922
41.1 0.02936
41.15 0.02943
41.2 0.02938
41.25 0.02929
41.3 0.02918
41.35 0.02901
41.4 0.02872
41.45 0.02837
41.5 0.02793
41.55 0.02744
41.6 0.02685
41.65 0.02624
41.7 0.02558
41.75 0.02485
41.8 0.02406
41.85 0.02321
41.9 0.02235
41.95 0.02145
42 0.02054
42.05 0.01964
42.1 0.01865
42.15 0.0177
42.2 0.01669
42.25 0.01569
42.3 0.01465
42.35 0.01365
42.4 0.01261
42.45 0.01153
42.5 0.0105
42.55 0.00949
42.6 0.00857
42.65 0.00767
42.7 0.00676
42.75 0.00586
42.8 0.00496
42.85 0.00415
42.9 0.00336
42.95 0.00268
43 0.002
43.05 0.00136
43.1 0.00073
43.15 0.0002
43.2 -0.00027
43.25 -0.00069
43.3 -0.00111
43.35 -0.0015
43.4 -0.00185
43.45 -0.00218
43.5 -0.00255
43.55 -0.00289
43.6 -0.00318
43.65 -0.00341
43.7 -0.00366
43.75 -0.00386
43.8 -0.00398
43.85 -0.00412
43.9 -0.00418
43.95 -0.0042
44 -0.00424
44.05 -0.00428
44.1 -0.00437
44.15 -0.00443
44.2 -0.0045
44.25 -0.00452
44.3 -0.00451
44.35 -0.0045
44.4 -0.00452
44.45 -0.00449
44.5 -0.00446
44.55 -0.00444
44.6 -0.00439
44.65 -0.00433
44.7 -0.00425
44.75 -0.00423
44.8 -0.00422
44.85 -0.0042
44.9 -0.00419
44.95 -0.00417
45 -0.00415
45.05 -0.00412
45.1 -0.00409
45.15 -0.00413
45.2 -0.00415
45.25 -0.00413
45.3 -0.00415
45.35 -0.00417
45.4 -0.00423
45.45 -0.00422
45.5 -0.00418
45.55 -0.00418
45.6 -0.00419
45.65 -0.00415
45.7 -0.0041
45.75 -0.00405
45.8 -0.00401
45.85 -0.00393
45.9 -0.00392
45.95 -0.00388
46 -0.00383
46.05 -0.0038
46.1 -0.0038
46.15 -0.00376
46.2 -0.00372
46.25 -0.00373
46.3 -0.00369
46.35 -0.00371
46.4 -0.0037
46.45 -0.00371
46.5 -0.00369
46.55 -0.0037
46.6 -0.00363
46.65 -0.00353
46.7 -0.00346
46.75 -0.0034
46.8 -0.00331
46.85 -0.0033
46.9 -0.00332
46.95 -0.00327
47 -0.00319
47.05 -0.00317
47.1 -0.00313
47.15 -0.00314
47.2 -0.00317
47.25 -0.00322
47.3 -0.00318
47.35 -0.00311
47.4 -0.00309
47.45 -0.00307
47.5 -0.00303
47.55 -0.00302
47.6 -0.00299
47.65 -0.00291
47.7 -0.00278
47.75 -0.00266
47.8 -0.00258
47.85 -0.00254
47.9 -0.0025
47.95 -0.00245
48 -0.00244
48.05 -0.00241
48.1 -0.00239
48.15 -0.00241
48.2 -0.00242
48.25 -0.00244
48.3 -0.00243
48.35 -0.00238
48.4 -0.00238
48.45 -0.00241
48.5 -0.00241
48.55 -0.00236
48.6 -0.00226
48.65 -0.00215
48.7 -0.00206
48.75 -0.00201
48.8 -0.00198
48.85 -0.00197
48.9 -0.002
48.95 -0.00195
49 -0.00192
49.05 -0.00187
49.1 -0.00178
49.15 -0.00167
49.2 -0.00164
49.25 -0.00165
49.3 -0.00164
49.35 -0.00161
49.4 -0.00157
49.45 -0.00159
49.5 -0.00164
49.55 -0.00167
49.6 -0.00168
49.65 -0.00167
49.7 -0.00169
49.75 -0.0017
49.8 -0.00172
49.85 -0.00168
49.9 -0.00165
49.95 -0.00161
50 -0.00152
50.05 -0.00141
50.1 -0.00136
50.15 -0.00136
50.2 -0.0014
50.25 -0.00136
50.3 -0.00134
50.35 -0.00128
50.4 -0.00126
50.45 -0.00122
50.5 -0.00119
50.55 -0.00111
50.6 -0.00108
50.65 -0.00111
50.7 -0.00112
50.75 -0.0011
50.8 -0.00105
50.85 -0.00101
50.9 -0.00101
50.95 -0.00104
51 -0.00106
51.05 -0.00104
51.1 -0.00104
51.15 -0.00105
51.2 -0.001
51.25 -0.00096
51.3 -0.0009
51.35 -0.00081
51.4 -0.00075
51.45 -0.00073
51.5 -0.00071
51.55 -0.00071
51.6 -0.0007
51.65 -0.00069
51.7 -0.00066
51.75 -0.00064
51.8 -0.00065
51.85 -0.00067
51.9 -0.00069
51.95 -0.0007
52 -0.00076
52.05 -0.00082
52.1 -0.00089
52.15 -0.00094
52.2 -0.00095
52.25 -0.0009
52.3 -0.00082
52.35 -0.00072
52.4 -0.0006
52.45 -0.00056
52.5 -0.00055
52.55 -0.00058
52.6 -0.00058
52.65 -0.00062
52.7 -0.00066
52.75 -0.00068
52.8 -0.00071
52.85 -0.00075
52.9 -0.00076
52.95 -0.00074
53 -0.00068
53.05 -0.00057
53.1 -0.00047
53.15 -0.00041
53.2 -0.00036
53.25 -0.00038
53.3 -0.00038
53.35 -0.00043
53.4 -0.00041
53.45 -0.00036
53.5 -0.00034
53.55 -0.00037
53.6 -0.00041
53.65 -0.00039
53.7 -0.00042
53.75 -0.00045
53.8 -0.00047
53.85 -0.00047
53.9 -0.00042
53.95 -0.00033
54 -0.00026
54.05 -0.0002
54.1 -0.00021
54.15 -0.00025
54.2 -0.00024
54.25 -0.00028
54.3 -0.00036
54.35 -0.00039
54.4 -0.00044
54.45 -0.00041
54.5 -0.00037
54.55 -0.00038
54.6 -0.00039
54.65 -0.00038
54.7 -0.00031
54.75 -0.00026
54.8 -0.00027
54.85 -0.00027
54.9 -0.00032
54.95 -0.00035
55 -0.00041
55.05 -0.00046
55.1 -0.0005
55.15 -0.00046
55.2 -0.00036
55.25 -0.00024
55.3 -0.00015
55.35 -0.00009
55.4 -0.0001
55.45 -0.00014
55.5 -0.00015
55.55 -0.0001
55.6 -0.0001
55.65 -0.00012
55.7 -0.00013
55.75 -0.00012
55.8 -0.00016
55.85 -0.00022
55.9 -0.00025
55.95 -0.00026
56 -0.0003
56.05 -0.00028
56.1 -0.00022
56.15 -0.00016
56.2 -0.00009
56.25 -0.00011
56.3 -0.00012
56.35 -0.00017
56.4 -0.0002
56.45 -0.00017
56.5 -0.00015
56.55 -0.00019
56.6 -0.00022
56.65 -0.00021
56.7 -0.00022
56.75 -0.0002
56.8 -0.00015
56.85 -0.00012
56.9 -0.00005
56.95 -0.00006
57 -0.00004
57.05 -0
57.1 -0.00002
57.15 -0.00009
57.2 -0.00013
57.25 -0.00014
57.3 -0.00017
57.35 -0.00016
57.4 -0.00012
57.45 -0.00008
57.5 -0.00003
57.55 -0
57.6 0.00001
57.65 0.00005
57.7 0.00008
57.75 0.00013
57.8 0.00016
57.85 0.00014
57.9 0.00007
57.95 0.00003
58 -0.00003
58.05 -0.00004
58.1 -0.00001
58.15 -0.00005
58.2 -0.00011
58.25 -0.00015
58.3 -0.00016
58.35 -0.00016
58.4 -0.00019
58.45 -0.00022
58.5 -0.00022
58.55 -0.00015
58.6 -0.00007
58.65 0.00003
58.7 0.00012
58.75 0.00017
58.8 0.00021
58.85 0.00024
58.9 0.00028
58.95 0.00026
59 0.00022
59.05 0.00014
59.1 0.00003
59.15 -0.00004
59.2 -0.00004
59.25 -0.00007
59.3 -0.0001
59.35 -0.00008
59.4 -0.00006
59.45 -0.00005
59.5 -0.00001
59.55 -0.00004
59.6 -0.00009
59.65 -0.00016
59.7 -0.00021
59.75 -0.00026
59.8 -0.00033
59.85 -0.00033
59.9 -0.00035
59.95 -0.00035
60 -0.00032
60.05 -0.00025
60.1 -0.00014
60.15 -0.00007
60.2 -0.00005
60.25 -0.00004
60.3 0
60.35 0.00005
60.4 0.00002
60.45 -0.00001
60.5 -0.00002
60.55 -0.00003
60.6 0.00001
60.65 0
60.7 0.00002
60.75 0.00007
60.8 0.00008
60.85 0.00007
60.9 0.0001
60.95 0.00015
61 0.00011
61.05 0.00003
61.1 -0.00005
61.15 -0.00009
61.2 -0.00013
61.25 -0.00019
61.3 -0.00021
61.35 -0.00024
61.4 -0.0002
61.45 -0.00018
61.5 -0.0001
61.55 -0.00011
61.6 -0.0001
61.65 -0.00011
61.7 -0.00014
61.75 -0.00017
61.8 -0.00016
61.85 -0.00019
61.9 -0.00022
61.95 -0.00019
62 -0.00011
62.05 -0.0001
62.1 -0.00003
62.15 -0
62.2 0.00003
62.25 0.00001
62.3 -0.00004
62.35 -0.00004
62.4 0.00001
62.45 0.00002
62.5 0.00004
62.55 0.00006
62.6 0.00004
62.65 0.00001
62.7 -0.00006
62.75 -0.00006
62.8 -0.00002
62.85 -0.00005
62.9 -0.00008
62.95 -0.00006
63 -0.00004
63.05 -0.00005
63.1 -0.00009
63.15 -0.00015
63.2 -0.0002
63.25 -0.0002
63.3 -0.00021
63.35 -0.00017
63.4 -0.00009
63.45 -0
63.5 0.00007
63.55 0.00009
63.6 0.00015
63.65 0.00016
63.7 0.00015
63.75 0.00017
63.8 0.00012
63.85 0.00007
63.9 -0.00002
63.95 -0.00008
64 -0.00012
64.05 -0.00014
64.1 -0.00009
64.15 -0.00007
64.2 -0.0001
64.25 -0.00014
64.3 -0.00017
64.35 -0.00023
64.4 -0.00027
64.45 -0.00031
64.5 -0.00028
64.55 -0.00021
64.6 -0.00012
64.65 -0.00002
64.7 0.00007
64.75 0.00014
64.8 0.00013
64.85 0.00012
64.9 0.00007
64.95 0.00001
65 -0.00007
65.05 -0.00015
65.1 -0.00016
65.15 -0.00012
65.2 -0.00004
65.25 0.00005
65.3 0.00007
65.35 0.00013
65.4 0.00019
65.45 0.0002
65.5 0.00015
65.55 0.00015
65.6 0.00015
65.65 0.00016
65.7 0.00013
65.75 0.00011
65.8 0.00005
65.85 0.00005
65.9 0.00009
65.95 0.00006
66 -0.00001
66.05 -0.00006
66.1 -0.00007
66.15 -0.00005
66.2 -0.00002
66.25 0
66.3 -0.00003
66.35 -0.00002
66.4 -0.00007
66.45 -0.00013
66.5 -0.00014
66.55 -0.0001
66.6 -0.00011
66.65 -0.00007
66.7 -0.00008
66.75 -0.00011
66.8 -0.00012
66.85 -0.00007
66.9 -0.00003
66.95 -0.00003
67 -0.00005
67.05 -0.00007
67.1 -0.00004
67.15 -0.00001
67.2 -0.00004
67.25 -0.00003
67.3 -0.00005
67.35 -0.00006
67.4 -0.0001
67.45 -0.00016
67.5 -0.00015
67.55 -0.00011
67.6 -0.00004
67.65 -0.00001
67.7 0.00002
67.75 0
67.8 -0.00005
67.85 -0.00008
67.9 -0.00014
67.95 -0.00014
68 -0.00012
68.05 -0.00013
68.1 -0.00009
68.15 -0.00002
68.2 0.00001
68.25 0.00007
68.3 0.00008
68.35 0.00009
68.4 0.00005
68.45 0.00002
68.5 0.00004
68.55 0.0001
68.6 0.00011
68.65 0.00014
68.7 0.00011
68.75 0.00008
68.8 0.00007
68.85 0.0001
68.9 0.00016
68.95 0.00022
69 0.00025
69.05 0.00023
69.1 0.00015
69.15 0.00012
69.2 0.00006
69.25 0.00003
69.3 0.00004
69.35 0.00006
69.4 0.00007
69.45 0.00009
69.5 0.00008
69.55 0.00007
69.6 0.00001
69.65 0
69.7 -0.00003
69.75 -0.00007
69.8 -0.0001
69.85 -0.00007
69.9 -0.00005
69.95 0.00001
70 0.00009
70.05 0.00013
70.1 0.00014
70.15 0.00018
70.2 0.00014
70.25 0.00008
70.3 -0.00002
70.35 -0.00013
70.4 -0.00014
70.45 -0.00014
70.5 -0.00013
70.55 -0.00007
70.6 -0
70.65 -0.00001
70.7 -0.00006
70.75 -0.00005
70.8 -0.0001
70.85 -0.00009
70.9 -0.00005
70.95 -0.00003
71 0.00001
71.05 0.00002
71.1 0.00002
71.15 0.00002
71.2 0.00004
71.25 0.00003
71.3 0.00002
71.35 -0.00001
71.4 0.00001
71.45 -0.00003
71.5 -0.00004
71.55 -0.00009
71.6 -0.00017
71.65 -0.00023
71.7 -0.0002
71.75 -0.00013
71.8 -0.00005
71.85 -0.00003
71.9 -0.00004
71.95 -0
72 -0.00002
72.05 0.00002
72.1 0.00009
72.15 0.00016
72.2 0.00016
72.25 0.00014
72.3 0.00015
72.35 0.00009
72.4 0.00007
72.45 0.00004
72.5 0.00002
72.55 0.00005
72.6 0.00004
72.65 0.00001
72.7 -0.00007
72.75 -0.00006
72.8 -0.00007
72.85 -0.00003
72.9 -0.00003
72.95 -0.00008
73 -0.00008
73.05 -0.00003
73.1 -0.00004
73.15 0.00001
73.2 0.00003
73.25 0.00005
73.3 0.00002
73.35 0.00003
73.4 0.00008
73.45 0.00011
73.5 0.00013
73.55 0.00009
73.6 0.00003
73.65 -0.00001
73.7 -0.00001
73.75 -0.00005
73.8 -0.00007
73.85 -0.00003
73.9 0.00002
73.95 0.00003
74 -0
74.05 -0.00002
74.1 0.00001
74.15 -0.00001
74.2 0
74.25 0.00006
74.3 0.00013
74.35 0.00011
74.4 0.00009
74.45 0.00011
74.5 0.00015
74.55 0.00012
74.6 0.00007
74.65 0.00001
74.7 0.00003
74.75 0.00007
74.8 0.00008
74.85 0.00007
74.9 0.00009
74.95 0.00011
75 0.00009
75.05 0.00005
75.1 -0.00001
75.15 -0.00005
75.2 -0.00005
75.25 -0.00007
75.3 -0.00012
75.35 -0.00014
75.4 -0.00015
75.45 -0.00021
75.5 -0.00023
75.55 -0.00029
75.6 -0.00032
75.65 -0.00026
75.7 -0.0002
75.75 -0.00012
75.8 -0.00008
75.85 -0.00001
75.9 0.00001
75.95 0.00006
76 0.00004
76.05 -0.00002
76.1 -0.00007
76.15 -0.00006
76.2 -0.00003
76.25 0.00001
76.3 0.00007
76.35 0.00009
76.4 0.00005
76.45 0.00005
76.5 0.00008
76.55 0.00007
76.6 0.00001
76.65 -0.00001
76.7 -0.00002
76.75 -0.00006
76.8 -0.00011
76.85 -0.00016
76.9 -0.00023
76.95 -0.0003
77 -0.00034
77.05 -0.00028
77.1 -0.00027
77.15 -0.00025
77.2 -0.00025
77.25 -0.00022
77.3 -0.00012
77.35 -0.00001
77.4 0.00006
77.45 0.00013
77.5 0.00021
77.55 0.00022
77.6 0.00015
77.65 0.00006
77.7 0.00003
77.75 0.00004
77.8 0.00008
77.85 0.00013
77.9 0.00017
77.95 0.0002
78 0.00023
78.05 0.0002
78.1 0.00015
78.15 0.00006
78.2 -0.00004
78.25 -0.00011
78.3 -0.0002
78.35 -0.00023
78.4 -0.00024
78.45 -0.00022
78.5 -0.0002
78.55 -0.00019
78.6 -0.00021
78.65 -0.00023
78.7 -0.00017
78.75 -0.00015
78.8 -0.00016
78.85 -0.0002
78.9 -0.0002
78.95 -0.00023
79 -0.0002
79.05 -0.00019
79.1 -0.00021
79.15 -0.00021
79.2 -0.00016
79.25 -0.00009
79.3 0.00002
79.35 0.00007
79.4 0.00013
79.45 0.00011
79.5 0.00007
79.55 0.00006
79.6 0.00003
79.65 0.00003
79.7 -0.00001
79.75 -0.00005
79.8 -0.0001
79.85 -0.0001
79.9 -0.00011
79.95 -0.00008
80 -0.00009
80.05 -0.0001
80.1 -0.00011
80.15 -0.00008
80.2 -0.00008
80.25 -0.00002
80.3 0.00001
80.35 0.00002
80.4 0.00006
80.45 0.00009
80.5 0.00007
80.55 0.00004
80.6 0.00002
80.65 -0.00001
80.7 -0.00006
80.75 -0.00004
80.8 -0.00003
80.85 -0.00003
80.9 0.00002
80.95 0.00007
81 0.00008
81.05 0.00006
81.1 0
81.15 -0.00006
81.2 -0.00012
81.25 -0.00012
81.3 -0.00016
81.35 -0.00014
81.4 -0.00011
81.45 -0.00012
81.5 -0.00008
81.55 0.00001
81.6 0.00007
81.65 0.00012
81.7 0.00014
81.75 0.00019
81.8 0.00018
81.85 0.00019
81.9 0.00019
81.95 0.00015
82 0.00007
82.05 0.00003
82.1 0.00006
82.15 0.00004
82.2 -0.00002
82.25 -0.00005
82.3 -0.00009
82.35 -0.00009
82.4 -0.00011
82.45 -0.00009
82.5 -0.00007
82.55 -0.00008
82.6 -0.00007
82.65 -0.00001
82.7 -0.00001
82.75 -0.00006
82.8 -0.00007
82.85 -0.00003
82.9 0.00004
82.95 0.00009
83 0.0001
83.05 0.0001
83.1 0.00012
83.15 0.00013
83.2 0.00017
83.25 0.00023
83.3 0.00028
83.35 0.00026
83.4 0.00024
83.45 0.00023
83.5 0.00019
83.55 0.00015
83.6 0.00006
83.65 0.00003
83.7 -0.00002
83.75 -0.00006
83.8 -0.00009
83.85 -0.0001
83.9 -0.00008
83.95 -0.00006
84 -0.00004
84.05 0
84.1 0.00008
84.15 0.00009
84.2 0.00014
84.25 0.00017
84.3 0.00018
84.35 0.00017
84.4 0.00014
84.45 0.00011
84.5 0.00005
84.55 0.00001
84.6 -0.00006
84.65 -0.00014
84.7 -0.00013
84.75 -0.00016
84.8 -0.00011
84.85 -0.00005
84.9 -0.00005
84.95 -0.00005
85 -0.00005
85.05 -0.00004
85.1 -0.00002
85.15 0.00004
85.2 0.00009
85.25 0.00015
85.3 0.00013
85.35 0.00011
85.4 0.00003
85.45 -0.00001
85.5 -0.00007
85.55 -0.00013
85.6 -0.00021
85.65 -0.00023
85.7 -0.00025
85.75 -0.00028
85.8 -0.00022
85.85 -0.00015
85.9 -0.00005
85.95 0.00003
86 0.00007
86.05 0.00013
86.1 0.00017
86.15 0.00014
86.2 0.00011
86.25 0.00013
86.3 0.00012
86.35 0.0001
86.4 0.00008
86.45 0.0001
86.5 0.00006
86.55 0.00007
86.6 0.00003
86.65 0.00004
86.7 0.00007
86.75 0.00004
86.8 0.00005
86.85 0.00007
86.9 0.00012
86.95 0.00012
87 0.00015
87.05 0.00012
87.1 0.00011
87.15 0.00008
87.2 0.00002
87.25 -0.00003
87.3 -0.00006
87.35 -0.00003
87.4 0.00002
87.45 0.00009
87.5 0.00018
87.55 0.00025
87.6 0.00025
87.65 0.00022
87.7 0.00021
87.75 0.00014
87.8 0.00005
87.85 -0.00002
87.9 -0.00003
87.95 -0.00003
88 -0.00004
88.05 -0.00006
88.1 -0.00003
88.15 -0.00002
88.2 -0.00002
88.25 0.00001
88.3 0.00003
88.35 0.00005
88.4 0.00007
88.45 0.00001
88.5 -0
88.55 -0.00004
88.6 -0.00007
88.65 -0.00006
88.7 -0.00001
88.75 -0.00003
88.8 -0.00006
88.85 -0.00005
88.9 -0.00002
88.95 -0.00002
89 0.00003
89.05 0.00007
89.1 0.00005
89.15 0
89.2 0.00001
89.25 0.00004
89.3 0
89.35 0.00001
89.4 -0
89.45 -0.00001
89.5 0.00001
89.55 0.00003
89.6 0.00005
89.65 0
89.7 -0.00008
89.75 -0.00008
89.8 -0.00009
89.85 -0.00005
89.9 -0.00002
89.95 -0.00001
90 -0.00001
90.05 0.00002
90.1 0.00002
90.15 0.00002
90.2 0.00002
90.25 0.00002
90.3 0.00006
90.35 0.00003
90.4 0.00005
90.45 0.00009
90.5 0.00012
90.55 0.0001
90.6 0.00009
90.65 0.00005
90.7 0.00001
90.75 -0.00005
90.8 -0.00004
90.85 -0.00008
90.9 -0.00008
90.95 -0.00004
91 0.00002
91.05 0.00002
91.1 -0.00001
91.15 -0.00003
91.2 -0.00002
91.25 -0.00004
91.3 -0.00002
91.35 0.00001
91.4 0.00008
91.45 0.0001
91.5 0.00011
91.55 0.00015
91.6 0.00018
91.65 0.00014
91.7 0.00009
91.75 0.00007
91.8 0.00004
91.85 0.00003
91.9 0.00004
91.95 0.00007
92 0.00011
92.05 0.00016
92.1 0.00017
92.15 0.00013
92.2 0.00011
92.25 0.00008
92.3 0.00007
92.35 0.00005
92.4 0.00001
92.45 -0
92.5 -0.00005
92.55 -0.00004
92.6 -0.00009
92.65 -0.00011
92.7 -0.00011
92.75 -0.00009
92.8 -0.00013
92.85 -0.00012
92.9 -0.00006
92.95 0.00002
93 0.00011
93.05 0.00011
93.1 0.00006
93.15 -0.00003
93.2 -0.00012
93.25 -0.00022
93.3 -0.00028
93.35 -0.00027
93.4 -0.00022
93.45 -0.00016
93.5 -0.00009
93.55 -0.00009
93.6 -0.00005
93.65 0.00003
93.7 0.00008
93.75 0.00009
93.8 0.00005
93.85 -0.00001
93.9 -0.00004
93.95 -0.00007
94 -0.00006
94.05 -0.00003
94.1 -0
94.15 -0.00003
94.2 -0.0001
94.25 -0.00013
94.3 -0.00014
94.35 -0.00018
94.4 -0.00015
94.45 -0.00016
94.5 -0.0002
94.55 -0.0002
94.6 -0.00017
94.65 -0.00019
94.7 -0.0002
94.75 -0.00022
94.8 -0.0002
94.85 -0.00015
94.9 -0.00012
94.95 -0.00012
95 -0.00017
95.05 -0.00016
95.1 -0.00016
95.15 -0.00019
95.2 -0.00017
95.25 -0.00019
95.3 -0.00015
95.35 -0.00011
95.4 -0.00012
95.45 -0.00012
95.5 -0.00007
95.55 -0.00003
95.6 0
95.65 0.00005
95.7 0.00012
95.75 0.00013
95.8 0.00015
95.85 0.00016
95.9 0.0002
95.95 0.00022
96 0.00022
96.05 0.00019
96.1 0.00017
96.15 0.00013
96.2 0.00007
96.25 0.00006
96.3 0.00004
96.35 -0
96.4 0
96.45 -0.00005
96.5 -0.00011
96.55 -0.0001
96.6 -0.00008
96.65 -0.0001
96.7 -0.00007
96.75 -0.00006
96.8 -0.00005
96.85 -0.00006
96.9 -0.00008
96.95 -0.00011
97 -0.00012
97.05 -0.00013
97.1 -0.00016
97.15 -0.00021
97.2 -0.00026
97.25 -0.00027
97.3 -0.00026
97.35 -0.00019
97.4 -0.00014
97.45 -0.00008
97.5 -0.00002
97.55 0.00003
97.6 0.00007
97.65 0.00011
97.7 0.00015
97.75 0.00017
97.8 0.00016
97.85 0.00012
97.9 0.00011
97.95 0.00008
98 0.00002
98.05 -0.00004
98.1 -0.00007
98.15 -0.00003
98.2 -0.00004
98.25 -0.00004
98.3 -0.00007
98.35 -0.00003
98.4 0.00002
98.45 0.00002
98.5 0.00006
98.55 0.00012
98.6 0.00019
98.65 0.00021
98.7 0.00016
98.75 0.00012
98.8 0.00012
98.85 0.00009
98.9 0.00008
98.95 0.00002
99 0.00002
99.05 0
99.1 0.00001
99.15 -0.00002
99.2 -0.00002
99.25 -0.00001
99.3 -0.00002
99.35 -0.00005
99.4 -0.00006
99.45 -0.00002
99.5 0.00002
99.55 0.00005
99.6 0.00003
99.65 0.00003
99.7 -0.00002
99.75 -0.00004
99.8 -0.00004
99.85 -0.00008
99.9 -0.00007
99.95 -0.00003
