0 0
0.05 0.00161
0.1 0.00301
0.15 0.00447
0.2 0.00568
0.25 0.00602
0.3 0.00683
0.35 0.00703
0.4 0.00809
0.45 0.00942
0.5 0.01045
0.55 0.01129
0.6 0.01204
0.65 0.01173
0.7 0.01082
0.75 0.00966
0.8 0.00888
0.85 0.00849
0.9 0.00742
0.95 0.00693
1 0.00658
1.05 0.00579
1.1 0.00522
1.15 0.00474
1.2 0.00479
1.25 0.00483
1.3 0.00439
1.35 0.00392
1.4 0.00321
1.45 0.00273
1.5 0.00237
1.55 0.00244
1.6 0.00303
1.65 0.00436
1.7 0.00608
1.75 0.00666
1.8 0.00715
1.85 0.00745
1.9 0.00784
1.95 0.00798
2 0.00733
2.05 0.00695
2.1 0.00722
2.15 0.00754
2.2 0.00738
2.25 0.00634
2.3 0.00599
2.35 0.00603
2.4 0.00535
2.45 0.00508
2.5 0.00448
2.55 0.00383
2.6 0.00308
2.65 0.00275
2.7 0.00329
2.75 0.00395
2.8 0.00468
2.85 0.00526
2.9 0.00516
2.95 0.00437
3 0.004
3.05 0.00358
3.1 0.00308
3.15 0.00277
3.2 0.00205
3.25 0.00151
3.3 0.00212
3.35 0.00258
3.4 0.00366
3.45 0.0037
3.5 0.00403
3.55 0.00389
3.6 0.00357
3.65 0.00284
3.7 0.00179
3.75 0.00072
3.8 -0.00038
3.85 -0.00099
3.9 -0.00133
3.95 -0.00185
4 -0.0012
4.05 0.0001
4.1 0.00053
4.15 0.00155
4.2 0.00227
4.25 0.00324
4.3 0.00348
4.35 0.00371
4.4 0.00399
4.45 0.00418
4.5 0.00401
4.55 0.00334
4.6 0.00348
4.65 0.00285
4.7 0.00222
4.75 0.00163
4.8 0.00057
4.85 -0.00014
4.9 -0.00094
4.95 -0.00186
5 -0.00198
5.05 -0.00165
5.1 -0.0011
5.15 0.00037
5.2 0.00109
5.25 0.00148
5.3 0.0026
5.35 0.00391
5.4 0.0054
5.45 0.00678
5.5 0.00691
5.55 0.00605
5.6 0.00531
5.65 0.00449
5.7 0.00452
5.75 0.0043
5.8 0.00341
5.85 0.00292
5.9 0.00243
5.95 0.00161
6 0.00188
6.05 0.00266
6.1 0.00286
6.15 0.00266
6.2 0.00235
6.25 0.00146
6.3 0.00175
6.35 0.00148
6.4 0.00165
6.45 0.00257
6.5 0.00349
6.55 0.00316
6.6 0.00234
6.65 0.00115
6.7 0.00093
6.75 0.00167
6.8 0.0016
6.85 0.00159
6.9 0.00153
6.95 0.00112
7 0.00086
7.05 0.00135
7.1 0.00191
7.15 0.00176
7.2 0.00154
7.25 0.00196
7.3 0.00219
7.35 0.00195
7.4 0.0011
7.45 0.0009
7.5 0.00014
7.55 -0.00026
7.6 -0.00011
7.65 0.00026
7.7 0.00036
7.75 0.00117
7.8 0.00244
7.85 0.00351
7.9 0.00446
7.95 0.00537
8 0.00625
8.05 0.00587
8.1 0.00516
8.15 0.00374
8.2 0.00281
8.25 0.00171
8.3 0.00125
8.35 0.00034
8.4 0.00051
8.45 0.00021
8.5 -0.00059
8.55 -0.00171
8.6 -0.00256
8.65 -0.00352
8.7 -0.00331
8.75 -0.00327
8.8 -0.0028
8.85 -0.00154
8.9 -0.00122
8.95 -0.00004
9 0.00106
9.05 0.00147
9.1 0.00244
9.15 0.00366
9.2 0.00373
9.25 0.00366
9.3 0.00334
9.35 0.0031
9.4 0.00283
9.45 0.00252
9.5 0.00193
9.55 0.00131
9.6 0.00068
9.65 0.00093
9.7 0.00043
9.75 0.00002
9.8 -0.00076
9.85 -0.00099
9.9 -0.00173
9.95 -0.00274
10 -0.00334
10.05 -0.00383
10.1 -0.00301
10.15 -0.00241
10.2 -0.00242
10.25 -0.00276
10.3 -0.00314
10.35 -0.00373
10.4 -0.00421
10.45 -0.00394
10.5 -0.00395
10.55 -0.00432
10.6 -0.00478
10.65 -0.00442
10.7 -0.00311
10.75 -0.00121
10.8 -0.00044
10.85 0.00081
10.9 0.00161
10.95 0.00235
11 0.00248
11.05 0.00215
11.1 0.0026
11.15 0.0027
11.2 0.0027
11.25 0.00208
11.3 0.00081
11.35 -0.00034
11.4 -0.00081
11.45 -0.00065
11.5 -0.00036
11.55 0.00062
11.6 0.00124
11.65 0.00131
11.7 0.00105
11.75 0.00083
11.8 0.00144
11.85 0.00256
11.9 0.00375
11.95 0.00387
12 0.00299
12.05 0.00153
12.1 -0.00013
12.15 -0.00143
12.2 -0.00284
12.25 -0.00316
12.3 -0.00348
12.35 -0.00405
12.4 -0.00407
12.45 -0.00369
12.5 -0.00379
12.55 -0.00264
12.6 -0.00188
12.65 -0.00176
12.7 -0.00184
12.75 -0.0023
12.8 -0.00254
12.85 -0.00315
12.9 -0.00358
12.95 -0.00375
13 -0.00364
13.05 -0.00369
13.1 -0.00328
13.15 -0.00241
13.2 -0.00111
13.25 0.00066
13.3 0.00165
13.35 0.00286
13.4 0.00359
13.45 0.00415
13.5 0.00419
13.55 0.00424
13.6 0.00327
13.65 0.00283
13.7 0.00233
13.75 0.00249
13.8 0.00219
13.85 0.00177
13.9 0.00194
13.95 0.00246
14 0.00342
14.05 0.00363
14.1 0.00289
14.15 0.00291
14.2 0.00257
14.25 0.00267
14.3 0.00239
14.35 0.00211
14.4 0.00214
14.45 0.00265
14.5 0.00275
14.55 0.00334
14.6 0.00422
14.65 0.00507
14.7 0.00533
14.75 0.00589
14.8 0.00605
14.85 0.00593
14.9 0.00482
14.95 0.00344
15 0.00154
15.05 0.00006
15.1 -0.00165
15.15 -0.00226
15.2 -0.00185
15.25 -0.00121
15.3 0.00013
15.35 0.00151
15.4 0.00302
15.45 0.00328
15.5 0.00335
15.55 0.00301
15.6 0.00181
15.65 0.00128
15.7 0.00074
15.75 0.00077
15.8 0.0011
15.85 0.00106
15.9 0.00039
15.95 0.00031
16 0.00073
16.05 0.00152
16.1 0.00241
16.15 0.00335
16.2 0.00357
16.25 0.00303
16.3 0.00158
16.35 0.00024
16.4 -0.0007
16.45 -0.00189
16.5 -0.00178
16.55 -0.00169
16.6 -0.00226
16.65 -0.00198
16.7 -0.00233
16.75 -0.00207
16.8 -0.00185
16.85 -0.00183
16.9 -0.00167
16.95 -0.00096
17 -0.00058
17.05 -0.00092
17.1 -0.00157
17.15 -0.00221
17.2 -0.00268
17.25 -0.00289
17.3 -0.00259
17.35 -0.00253
17.4 -0.00254
17.45 -0.00237
17.5 -0.00168
17.55 -0.00109
17.6 -0.00139
17.65 -0.00209
17.7 -0.00299
17.75 -0.00386
17.8 -0.00395
17.85 -0.00406
17.9 -0.00338
17.95 -0.00303
18 -0.00289
18.05 -0.00312
18.1 -0.00283
18.15 -0.00274
18.2 -0.0021
18.25 -0.00172
18.3 -0.00116
18.35 -0.00082
18.4 -0.00125
18.45 -0.00112
18.5 -0.00104
18.55 -0.00127
18.6 -0.00193
18.65 -0.00291
18.7 -0.00389
18.75 -0.00337
18.8 -0.00305
18.85 -0.00216
18.9 -0.00051
18.95 0.00085
19 0.00234
19.05 0.0036
19.1 0.00361
19.15 0.00349
19.2 0.00355
19.25 0.00282
19.3 0.00164
19.35 0.0002
19.4 -0.00049
19.45 -0.0001
19.5 -0.00016
19.55 0.00003
19.6 -0.00012
19.65 0.00057
19.7 0.00074
19.75 0.00039
19.8 -0.00041
19.85 -0.0012
19.9 -0.00191
19.95 -0.00149
20 -0.00034
20.05 0.001
20.1 0.0025
20.15 0.00286
20.2 0.00222
20.25 0.00147
20.3 0.00083
20.35 -0.00023
20.4 -0.00005
20.45 -0.00018
20.5 -0.00064
20.55 -0.00164
20.6 -0.00172
20.65 -0.00093
20.7 -0.00005
20.75 -0.00009
20.8 0.00004
20.85 0.00086
20.9 0.00163
20.95 0.0027
21 0.00399
21.05 0.00377
21.1 0.00287
21.15 0.00262
21.2 0.0022
21.25 0.00255
21.3 0.00316
21.35 0.00311
21.4 0.00252
21.45 0.00196
21.5 0.00155
21.55 0.0015
21.6 0.00102
21.65 -0.00004
21.7 -0.00099
21.75 -0.00138
21.8 -0.00186
21.85 -0.0012
21.9 -0.00134
21.95 -0.00144
22 -0.00127
22.05 -0.00094
22.1 -0.00013
22.15 0.00071
22.2 0.00087
22.25 0.00161
22.3 0.00231
22.35 0.00262
22.4 0.00343
22.45 0.00375
22.5 0.00438
22.55 0.0052
22.6 0.0058
22.65 0.00527
22.7 0.00476
22.75 0.00406
22.8 0.00257
22.85 0.0016
22.9 0.00073
22.95 0.0006
23 0.00095
23.05 0.00181
23.1 0.00169
23.15 0.00074
23.2 -0.00026
23.25 -0.00137
23.3 -0.00183
23.35 -0.0013
23.4 -0.00087
23.45 -0.00123
23.5 -0.00097
23.55 -0.00062
23.6 -0.00053
23.65 0.00032
23.7 0.0015
23.75 0.00256
23.8 0.0033
23.85 0.00304
23.9 0.00294
23.95 0.0024
24 0.001
24.05 0.00072
24.1 0.00004
24.15 -0.0011
24.2 -0.00124
24.25 -0.00056
24.3 -0.00047
24.35 -0.00089
24.4 -0.00179
24.45 -0.00233
24.5 -0.00247
24.55 -0.00258
24.6 -0.00305
24.65 -0.00385
24.7 -0.00381
24.75 -0.00319
24.8 -0.00258
24.85 -0.00187
24.9 -0.00185
24.95 -0.00185
25 -0.00226
25.05 -0.00199
25.1 -0.00174
25.15 -0.00078
25.2 0.00068
25.25 0.00223
25.3 0.00331
25.35 0.00427
25.4 0.00436
25.45 0.0045
25.5 0.00452
25.55 0.00431
25.6 0.00303
25.65 0.00141
25.7 -0.00029
25.75 -0.00152
25.8 -0.00226
25.85 -0.00319
25.9 -0.00401
25.95 -0.00452
26 -0.00502
26.05 -0.00505
26.1 -0.00481
26.15 -0.00408
26.2 -0.00391
26.25 -0.00345
26.3 -0.00323
26.35 -0.00308
26.4 -0.00308
26.45 -0.00339
26.5 -0.00265
26.55 -0.00228
26.6 -0.00127
26.65 -0.00098
26.7 -0.00107
26.75 -0.0005
26.8 0.0001
26.85 0.00074
26.9 0.0009
26.95 0.00039
27 0.00013
27.05 -0.0004
27.1 -0.00092
27.15 -0.00197
27.2 -0.0028
27.25 -0.00337
27.3 -0.00372
27.35 -0.00303
27.4 -0.00265
27.45 -0.00174
27.5 -0.00108
27.55 -0.00047
27.6 -0.00021
27.65 0.0002
27.7 0.00014
27.75 0.00074
27.8 0.0013
27.85 0.00125
27.9 0.00058
27.95 -0.00031
28 -0.00008
28.05 -0.0006
28.1 -0.00076
28.15 -0.00152
28.2 -0.0019
28.25 -0.00255
28.3 -0.00304
28.35 -0.00248
28.4 -0.00151
28.45 -0.00068
28.5 -0.00067
28.55 -0.00005
28.6 0.00117
28.65 0.00272
28.7 0.00318
28.75 0.00395
28.8 0.00347
28.85 0.00284
28.9 0.0017
28.95 0.00115
29 0.00093
29.05 0.00153
29.1 0.0017
29.15 0.00134
29.2 0.00158
29.25 0.00085
29.3 0.00029
29.35 0.0005
29.4 0.00057
29.45 0.00137
29.5 0.00234
29.55 0.0022
29.6 0.0022
29.65 0.00162
29.7 0.00072
29.75 0.00011
29.8 -0.00031
29.85 -0.00094
29.9 -0.0007
29.95 0.00001
30 0.00004
30.05 0.00006
30.1 0.00056
30.15 0.00089
30.2 0.00026
30.25 0.00014
30.3 0.00031
30.35 0.00004
30.4 0.00033
30.45 -0.00021
30.5 -0.00066
30.55 -0.00089
30.6 -0.00111
30.65 -0.00183
30.7 -0.00136
30.75 -0.00079
30.8 0.00039
30.85 0.00156
30.9 0.0028
30.95 0.00297
31 0.00321
31.05 0.0026
31.1 0.00231
31.15 0.00144
31.2 0.00136
31.25 0.00099
31.3 0.00036
31.35 -0.00001
31.4 -0.00041
31.45 -0.00141
31.5 -0.00127
31.55 -0.00165
31.6 -0.00208
31.65 -0.00155
31.7 -0.00178
31.75 -0.00221
31.8 -0.00258
31.85 -0.00243
31.9 -0.00165
31.95 -0.00051
32 0.00039
32.05 0.00107
32.1 0.00105
32.15 0.00067
32.2 0.00024
32.25 -0.00039
32.3 -0.00122
32.35 -0.0024
32.4 -0.00281
32.45 -0.00308
32.5 -0.00243
32.55 -0.00135
32.6 -0.00124
32.65 -0.0011
32.7 -0.00148
32.75 -0.00145
32.8 -0.00066
32.85 -0.00089
32.9 -0.00125
32.95 -0.00107
33 -0.00073
33.05 -0.00115
33.1 -0.00059
33.15 0.00015
33.2 0.00005
33.25 -0.0003
33.3 0.0002
33.35 0.00037
33.4 0.00095
33.45 0.00209
33.5 0.00245
33.55 0.00239
33.6 0.00278
33.65 0.00206
33.7 0.00103
33.75 0.00102
33.8 0.00107
33.85 0.00022
33.9 -0.00099
33.95 -0.00233
34 -0.00284
34.05 -0.00322
34.1 -0.00236
34.15 -0.00211
34.2 -0.00176
34.25 -0.00189
34.3 -0.00198
34.35 -0.00158
34.4 -0.00073
34.45 -0.0009
34.5 -0.00113
34.55 -0.00185
34.6 -0.0027
34.65 -0.00225
34.7 -0.00144
34.75 -0.00085
34.8 -0.00082
34.85 0.00007
34.9 0.00151
34.95 0.00313
35 0.00313
35.05 0.00326
35.1 0.00329
35.15 0.0024
35.2 0.00192
35.25 0.00118
35.3 0.00142
35.35 0.00154
35.4 0.00166
35.45 0.00136
35.5 0.00162
35.55 0.0019
35.6 0.00218
35.65 0.00158
35.7 0.00132
35.75 0.00166
35.8 0.00143
35.85 0.00175
35.9 0.00144
35.95 0.00096
36 0.00041
36.05 -0.00033
36.1 -0.00043
36.15 0.00025
36.2 0.00046
36.25 0.00036
36.3 0.00037
36.35 0.0009
36.4 0.0015
36.45 0.0011
36.5 0.00126
36.55 0.0012
36.6 0.00154
36.65 0.00095
36.7 0.00101
36.75 0.00121
36.8 0.00088
36.85 0.00027
36.9 -0.00013
36.95 -0.00018
37 0.00044
37.05 0.00109
37.1 0.00197
37.15 0.00277
37.2 0.00278
37.25 0.00218
37.3 0.00107
37.35 0.00025
37.4 -0.00066
37.45 -0.00086
37.5 -0.00093
37.55 -0.00025
37.6 0.00079
37.65 0.00162
37.7 0.00201
37.75 0.00269
37.8 0.00229
37.85 0.00187
37.9 0.00063
37.95 -0.00087
38 -0.00239
38.05 -0.00271
38.1 -0.0025
38.15 -0.00273
38.2 -0.00345
38.25 -0.00422
38.3 -0.00491
38.35 -0.00547
38.4 -0.00539
38.45 -0.00477
38.5 -0.00368
38.55 -0.00327
38.6 -0.0023
38.65 -0.00093
38.7 0.0005
38.75 0.00184
38.8 0.00241
38.85 0.00282
38.9 0.00346
38.95 0.0043
39 0.00396
39.05 0.00322
39.1 0.00169
39.15 0.00024
39.2 -0.0014
39.25 -0.00305
39.3 -0.00302
39.35 -0.00234
39.4 -0.00137
39.45 -0.00052
39.5 -0.00031
39.55 -0.00093
39.6 -0.00159
39.65 -0.00129
39.7 -0.00028
39.75 0.00096
39.8 0.002
39.85 0.0032
39.9 0.00408
39.95 0.00405
40 0.00374
40.05 0.00245
40.1 0.00193
40.15 0.00195
40.2 0.002
40.25 0.00108
40.3 0.00107
40.35 0.00101
40.4 0.00043
40.45 -0.0007
40.5 -0.00087
40.55 -0.00098
40.6 -0.00121
40.65 -0.00049
40.7 0.00013
40.75 0.00095
40.8 0.00143
40.85 0.00237
40.9 0.00286
40.95 0.00305
41 0.00317
41.05 0.00293
41.1 0.0021
41.15 0.00156
41.2 0.0009
41.25 -0.0002
41.3 -0.00175
41.35 -0.00275
41.4 -0.00354
41.45 -0.00435
41.5 -0.00408
41.55 -0.00405
41.6 -0.00328
41.65 -0.0032
41.7 -0.00263
41.75 -0.0015
41.8 -0.00005
41.85 0.00099
41.9 0.00184
41.95 0.00293
42 0.00376
42.05 0.00363
42.1 0.00273
42.15 0.00151
42.2 0.00102
42.25 0.00032
42.3 0.00033
42.35 -0.00053
42.4 -0.00093
42.45 -0.00187
42.5 -0.00215
42.55 -0.00147
42.6 -0.00125
42.65 -0.00147
42.7 -0.00082
42.75 -0.00023
42.8 0.0003
42.85 -0.00008
42.9 0.00023
42.95 -0.00014
43 -0.00074
43.05 -0.00166
43.1 -0.00256
43.15 -0.00338
43.2 -0.00398
43.25 -0.00327
43.3 -0.00243
43.35 -0.00134
43.4 -0.00043
43.45 0.00002
43.5 0.00042
43.55 0.00099
43.6 0.00107
43.65 0.00029
43.7 0.00039
43.75 0.00122
43.8 0.00103
43.85 0.00088
43.9 0.00023
43.95 0.0001
44 0.00021
44.05 -0.00033
44.1 -0.00134
44.15 -0.00226
44.2 -0.00338
44.25 -0.00458
44.3 -0.00487
44.35 -0.00467
44.4 -0.00414
44.45 -0.00382
44.5 -0.00363
44.55 -0.00243
44.6 -0.00219
44.65 -0.00106
44.7 -0.00014
44.75 0.00019
44.8 0.00122
44.85 0.0012
44.9 0.00189
44.95 0.00198
45 0.0022
45.05 0.00153
45.1 0.00051
45.15 -0.00016
45.2 -0.00066
45.25 -0.00112
45.3 -0.00053
45.35 0.00046
45.4 0.001
45.45 0.00161
45.5 0.00209
45.55 0.00212
45.6 0.00252
45.65 0.00237
45.7 0.00244
45.75 0.00283
45.8 0.00246
45.85 0.00269
45.9 0.00281
45.95 0.00275
46 0.00192
46.05 0.00133
46.1 0.0005
46.15 0.00041
46.2 0.00087
46.25 0.00153
46.3 0.00206
46.35 0.00221
46.4 0.00253
46.45 0.00203
46.5 0.00226
46.55 0.00232
46.6 0.00203
46.65 0.00109
46.7 0.00056
46.75 -0.00058
46.8 -0.00117
46.85 -0.00193
46.9 -0.00148
46.95 -0.00088
47 -0.00022
47.05 0.00097
47.1 0.00229
47.15 0.00344
47.2 0.00453
47.25 0.00499
47.3 0.00443
47.35 0.0038
47.4 0.00256
47.45 0.00169
47.5 0.00128
47.55 0.00092
47.6 0.00023
47.65 -0.00057
47.7 -0.00075
47.75 -0.00048
47.8 -0.00077
47.85 -0.0009
47.9 -0.0013
47.95 -0.0014
48 -0.00062
48.05 -0.00092
48.1 -0.0014
48.15 -0.0015
48.2 -0.00231
48.25 -0.00293
48.3 -0.00238
48.35 -0.0012
48.4 -0.0002
48.45 0.00039
48.5 -0.00012
48.55 -0.00065
48.6 -0.00094
48.65 -0.00053
48.7 0.00027
48.75 0.00124
48.8 0.00145
48.85 0.00087
48.9 -0.00026
48.95 -0.00097
49 -0.00155
49.05 -0.0016
49.1 -0.00121
49.15 -0.00027
49.2 0.00054
49.25 0.00165
49.3 0.00134
49.35 0.00163
49.4 0.00178
49.45 0.00225
49.5 0.00235
49.55 0.00138
49.6 0.0001
49.65 -0.00021
49.7 -0.00013
49.75 0.00059
49.8 0.00066
49.85 0.00055
49.9 -0.00009
49.95 -0.00132
50 -0.00182
50.05 -0.00137
50.1 -0.00146
50.15 -0.0008
50.2 0.00043
50.25 0.00124
50.3 0.00105
50.35 0.00048
50.4 0.00013
50.45 0.00013
50.5 -0.00075
50.55 -0.00203
50.6 -0.00353
50.65 -0.00408
50.7 -0.00451
50.75 -0.00511
50.8 -0.00487
50.85 -0.00461
50.9 -0.00412
50.95 -0.00314
51 -0.00151
51.05 -0.00094
51.1 -0.00053
51.15 -0.0005
51.2 -0.00092
51.25 -0.00035
51.3 -0.00079
51.35 -0.00069
51.4 -0.00094
51.45 -0.00132
51.5 -0.00158
51.55 -0.00093
51.6 -0.00099
51.65 -0.00087
51.7 -0.00046
51.75 0.00017
51.8 0.0005
51.85 0
51.9 -0.00082
51.95 -0.0005
52 0.00011
52.05 0.00016
52.1 -0.00034
52.15 0.00008
52.2 0.00068
52.25 0.00141
52.3 0.00186
52.35 0.00198
52.4 0.00159
52.45 0.00095
52.5 0.00063
52.55 0.0006
52.6 -0.00013
52.65 -0.00129
52.7 -0.00201
52.75 -0.00241
52.8 -0.00294
52.85 -0.003
52.9 -0.0034
52.95 -0.00299
53 -0.00318
53.05 -0.00245
53.1 -0.00112
53.15 0.00046
53.2 0.00198
53.25 0.00259
53.3 0.00213
53.35 0.00136
53.4 0.00104
53.45 0.00145
53.5 0.00116
53.55 0.00068
53.6 0.00019
53.65 -0.00065
53.7 -0.0009
53.75 -0.00164
53.8 -0.00171
53.85 -0.00098
53.9 -0.00087
53.95 -0.00146
54 -0.00158
54.05 -0.00135
54.1 -0.0008
54.15 0.00025
54.2 0.00146
54.25 0.0015
54.3 0.00071
54.35 -0.00006
54.4 -0.00086
54.45 -0.00122
54.5 -0.0008
54.55 -0.00063
54.6 0.00015
54.65 0.00097
54.7 0.002
54.75 0.00267
54.8 0.00218
54.85 0.0011
54.9 0.0004
54.95 0.00012
55 -0.00018
55.05 -0.00036
55.1 -0.00015
55.15 -0.00029
55.2 0.00037
55.25 0.00001
55.3 0.00017
55.35 -0.00051
55.4 -0.0005
55.45 -0.00063
55.5 -0.00053
55.55 -0.00033
55.6 -0.00025
55.65 -0.00064
55.7 -0.00066
55.75 -0.00073
55.8 -0.00047
55.85 -0.00024
55.9 0.00073
55.95 0.00101
56 0.00063
56.05 -0.00013
56.1 0.0002
56.15 0.00024
56.2 0.00056
56.25 0.00127
56.3 0.00133
56.35 0.00186
56.4 0.00164
56.45 0.00136
56.5 0.00093
56.55 0.00075
56.6 -0.00021
56.65 -0.00057
56.7 -0.00148
56.75 -0.002
56.8 -0.00217
56.85 -0.00262
56.9 -0.00194
56.95 -0.00179
57 -0.00214
57.05 -0.00204
57.1 -0.00252
57.15 -0.0033
57.2 -0.00284
57.25 -0.00234
57.3 -0.00239
57.35 -0.00224
57.4 -0.00203
57.45 -0.00187
57.5 -0.00163
57.55 -0.00065
57.6 -0.00027
57.65 0.00001
57.7 0.001
57.75 0.00236
57.8 0.00309
57.85 0.00343
57.9 0.00282
57.95 0.00244
58 0.0027
58.05 0.00237
58.1 0.00211
58.15 0.00143
58.2 0.001
58.25 0.0005
58.3 0.00007
58.35 -0.00081
58.4 -0.00064
58.45 -0.00027
58.5 -0.00084
58.55 -0.0004
58.6 -0.00086
58.65 -0.00143
58.7 -0.00246
58.75 -0.00283
58.8 -0.0025
58.85 -0.00159
58.9 -0.00137
58.95 -0.00042
59 0.00051
59.05 0.00057
59.1 0.00073
59.15 0.00069
59.2 0.00111
59.25 0.00183
59.3 0.00194
59.35 0.00134
59.4 0.00127
59.45 0.00145
59.5 0.00124
59.55 0.00075
59.6 0.00004
59.65 -0.00053
59.7 -0.0014
59.75 -0.0012
59.8 -0.00065
59.85 -0.00106
59.9 -0.0017
59.95 -0.00206
60 -0.00231
60.05 -0.00216
60.1 -0.0026
60.15 -0.00309
60.2 -0.00292
60.25 -0.00228
60.3 -0.0015
60.35 -0.00048
60.4 0.00029
60.45 -0.00004
60.5 -0.00033
60.55 -0.001
60.6 -0.00104
60.65 -0.00134
60.7 -0.00155
60.75 -0.00085
60.8 -0.00076
60.85 -0.00093
60.9 -0.00026
60.95 0.00039
61 0.0012
61.05 0.00088
61.1 0.00113
61.15 0.00107
61.2 0.00045
61.25 -0.00033
61.3 -0.00015
61.35 -0.00035
61.4 -0.00036
61.45 -0.00089
61.5 -0.00071
61.55 -0.00027
61.6 0.0004
61.65 -0.00001
61.7 -0.00034
61.75 -0.0011
61.8 -0.00152
61.85 -0.00194
61.9 -0.00121
61.95 -0.00076
62 -0.00033
62.05 0.00051
62.1 0.00059
62.15 0.00023
62.2 -0.00053
62.25 -0.00045
62.3 -0.0003
62.35 0.00026
62.4 0.00012
62.45 0.00063
62.5 0.00115
62.55 0.00084
62.6 0.0011
62.65 0.00045
62.7 0.00066
62.75 0.00157
62.8 0.00276
62.85 0.00286
62.9 0.00264
62.95 0.00272
63 0.00321
63.05 0.00335
63.1 0.00363
63.15 0.00386
63.2 0.00379
63.25 0.00378
63.3 0.00309
63.35 0.002
63.4 0.00169
63.45 0.00149
63.5 0.00187
63.55 0.00225
63.6 0.00285
63.65 0.00302
63.7 0.00316
63.75 0.00235
63.8 0.00108
63.85 0.00089
63.9 0.00124
63.95 0.00075
64 0.0001
64.05 0.00024
64.1 -0.00002
64.15 -0.00058
64.2 -0.00136
64.25 -0.0012
64.3 -0.00062
64.35 -0.00089
64.4 -0.00059
64.45 0.00019
64.5 0.00067
64.55 0.00137
64.6 0.00211
64.65 0.00266
64.7 0.00308
64.75 0.0026
64.8 0.00143
64.85 0.00038
64.9 -0.00002
64.95 -0.00028
65 -0.00014
65.05 -0.00058
65.1 -0.00127
65.15 -0.00117
65.2 -0.00084
65.25 -0.00118
65.3 -0.00198
65.35 -0.00281
65.4 -0.00385
65.45 -0.00458
65.5 -0.00437
65.55 -0.0037
65.6 -0.00279
65.65 -0.00282
65.7 -0.00301
65.75 -0.00313
65.8 -0.00248
65.85 -0.00193
65.9 -0.0012
65.95 -0.00002
66 0.00035
66.05 0.00064
66.1 0.00068
66.15 0.00062
66.2 0.00126
66.25 0.00211
66.3 0.00206
66.35 0.00173
66.4 0.00212
66.45 0.00167
66.5 0.00056
66.55 -0.00085
66.6 -0.00166
66.65 -0.0028
66.7 -0.00381
66.75 -0.00357
66.8 -0.00366
66.85 -0.00346
66.9 -0.00298
66.95 -0.00274
67 -0.00184
67.05 -0.00133
67.1 -0.00014
67.15 0.00061
67.2 0.00138
67.25 0.00126
67.3 0.00033
67.35 -0.00075
67.4 -0.00173
67.45 -0.00275
67.5 -0.00335
67.55 -0.00422
67.6 -0.00473
67.65 -0.00477
67.7 -0.00407
67.75 -0.00284
67.8 -0.00252
67.85 -0.00238
67.9 -0.00219
67.95 -0.00172
68 -0.00196
68.05 -0.00243
68.1 -0.00233
68.15 -0.00159
68.2 -0.00071
68.25 -0.00048
68.3 -0.00066
68.35 -0.00123
68.4 -0.00172
68.45 -0.00163
68.5 -0.00106
68.55 -0.00063
68.6 0.00007
68.65 0.0008
68.7 0.00157
68.75 0.0013
68.8 0.00151
68.85 0.00234
68.9 0.00329
68.95 0.00304
69 0.0026
69.05 0.00175
69.1 0.00079
69.15 0.00053
69.2 0.00098
69.25 0.00091
69.3 0.00037
69.35 -0.00046
69.4 -0.00067
69.45 -0.0015
69.5 -0.00184
69.55 -0.00176
69.6 -0.00199
69.65 -0.00216
69.7 -0.00302
69.75 -0.00391
69.8 -0.00394
69.85 -0.00393
69.9 -0.0035
69.95 -0.00342
70 -0.00422
70.05 -0.00456
70.1 -0.00602
70.15 -0.00757
70.2 -0.00839
70.25 -0.00947
70.3 -0.0105
70.35 -0.01188
70.4 -0.0144
70.45 -0.01861
70.5 -0.02264
70.55 -0.02685
70.6 -0.03261
70.65 -0.0398
70.7 -0.04768
70.75 -0.05585
70.8 -0.06456
70.85 -0.07452
70.9 -0.08565
70.95 -0.09695
71 -0.10927
71.05 -0.12376
71.1 -0.13933
71.15 -0.15602
71.2 -0.17397
71.25 -0.19427
71.3 -0.21542
71.35 -0.23851
71.4 -0.26221
71.45 -0.28646
71.5 -0.31103
71.55 -0.33586
71.6 -0.36076
71.65 -0.38642
71.7 -0.41255
71.75 -0.43801
71.8 -0.46273
71.85 -0.48558
71.9 -0.50588
71.95 -0.5229
72 -0.53783
72.05 -0.54856
72.1 -0.55514
72.15 -0.55902
72.2 -0.55845
72.25 -0.55448
72.3 -0.54618
72.35 -0.53218
72.4 -0.51434
72.45 -0.4923
72.5 -0.46545
72.55 -0.43537
72.6 -0.40103
72.65 -0.36317
72.7 -0.32222
72.75 -0.27952
72.8 -0.23522
72.85 -0.18981
72.9 -0.14328
72.95 -0.0971
73 -0.05072
73.05 -0.00414
73.1 0.04181
73.15 0.08542
73.2 0.12601
73.25 0.16487
73.3 0.20077
73.35 0.23341
73.4 0.26226
73.45 0.28916
73.5 0.3136
73.55 0.33479
73.6 0.35251
73.65 0.3675
73.7 0.38023
73.75 0.39158
73.8 0.40061
73.85 0.40719
73.9 0.41201
73.95 0.4155
74 0.41699
74.05 0.41794
74.1 0.41771
74.15 0.41662
74.2 0.4149
74.25 0.41227
74.3 0.40879
74.35 0.40539
74.4 0.40189
74.45 0.39825
74.5 0.3934
74.55 0.38795
74.6 0.38245
74.65 0.37613
74.7 0.37003
74.75 0.36405
74.8 0.35747
74.85 0.35149
74.9 0.34447
74.95 0.33781
75 0.33113
75.05 0.32393
75.1 0.31698
75.15 0.30966
75.2 0.30172
75.25 0.29347
75.3 0.28609
75.35 0.27812
75.4 0.26948
75.45 0.26099
75.5 0.25305
75.55 0.24468
75.6 0.23746
75.65 0.23091
75.7 0.22425
75.75 0.21694
75.8 0.2104
75.85 0.20428
75.9 0.1984
75.95 0.1921
76 0.18553
76.05 0.1791
76.1 0.17324
76.15 0.16767
76.2 0.16233
76.25 0.15644
76.3 0.15103
76.35 0.14473
76.4 0.13873
76.45 0.13191
76.5 0.1255
76.55 0.11866
76.6 0.11266
76.65 0.10764
76.7 0.103
76.75 0.09749
76.8 0.09224
76.85 0.08701
76.9 0.08201
76.95 0.07622
77 0.07133
77.05 0.06712
77.1 0.0629
77.15 0.05783
77.2 0.0521
77.25 0.04747
77.3 0.04207
77.35 0.03623
77.4 0.03181
77.45 0.02737
77.5 0.02356
77.55 0.01951
77.6 0.01599
77.65 0.0125
77.7 0.00908
77.75 0.00487
77.8 0.00093
77.85 -0.00277
77.9 -0.00604
77.95 -0.00887
78 -0.01171
78.05 -0.01561
78.1 -0.01868
78.15 -0.0223
78.2 -0.02497
78.25 -0.02813
78.3 -0.03194
78.35 -0.03496
78.4 -0.03742
78.45 -0.03992
78.5 -0.04297
78.55 -0.04552
78.6 -0.0484
78.65 -0.0508
78.7 -0.05221
78.75 -0.05371
78.8 -0.0552
78.85 -0.05655
78.9 -0.0569
78.95 -0.058
79 -0.05835
79.05 -0.05852
79.1 -0.05926
79.15 -0.05927
79.2 -0.06006
79.25 -0.06105
79.3 -0.06228
79.35 -0.06352
79.4 -0.06414
79.45 -0.06357
79.5 -0.06294
79.55 -0.06285
79.6 -0.06209
79.65 -0.06205
79.7 -0.06125
79.75 -0.06002
79.8 -0.05914
79.85 -0.05849
79.9 -0.05801
79.95 -0.05817
80 -0.05803
80.05 -0.05831
80.1 -0.05835
80.15 -0.05859
80.2 -0.05782
80.25 -0.05625
80.3 -0.05422
80.35 -0.05299
80.4 -0.05227
80.45 -0.05148
80.5 -0.05067
80.55 -0.0502
80.6 -0.05024
80.65 -0.04968
80.7 -0.04955
80.75 -0.049
80.8 -0.04803
80.85 -0.04794
80.9 -0.04697
80.95 -0.04546
81 -0.04372
81.05 -0.04271
81.1 -0.04187
81.15 -0.04195
81.2 -0.04229
81.25 -0.04212
81.3 -0.04185
81.35 -0.04186
81.4 -0.04243
81.45 -0.04244
81.5 -0.04216
81.55 -0.04192
81.6 -0.04105
81.65 -0.04091
81.7 -0.04097
81.75 -0.04085
81.8 -0.04011
81.85 -0.03891
81.9 -0.03706
81.95 -0.03577
82 -0.03545
82.05 -0.03518
82.1 -0.03432
82.15 -0.03304
82.2 -0.03247
82.25 -0.03225
82.3 -0.03249
82.35 -0.03242
82.4 -0.03265
82.45 -0.03251
82.5 -0.0327
82.55 -0.03315
82.6 -0.03352
82.65 -0.03277
82.7 -0.03188
82.75 -0.03037
82.8 -0.02908
82.85 -0.02821
82.9 -0.02799
82.95 -0.02755
83 -0.02746
83.05 -0.02678
83.1 -0.026
83.15 -0.02472
83.2 -0.02313
83.25 -0.02168
83.3 -0.02158
83.35 -0.02144
83.4 -0.02077
83.45 -0.02099
83.5 -0.02141
83.55 -0.02094
83.6 -0.02025
83.65 -0.02049
83.7 -0.02013
83.75 -0.01948
83.8 -0.01904
83.85 -0.01793
83.9 -0.01684
83.95 -0.01552
84 -0.01442
84.05 -0.01469
84.1 -0.0148
84.15 -0.01479
84.2 -0.01518
84.25 -0.01621
84.3 -0.01727
84.35 -0.01815
84.4 -0.01833
84.45 -0.01827
84.5 -0.01772
84.55 -0.01661
84.6 -0.01639
84.65 -0.01574
84.7 -0.01562
84.75 -0.01515
84.8 -0.01514
84.85 -0.01538
84.9 -0.01479
84.95 -0.01449
85 -0.01405
85.05 -0.01335
85.1 -0.01278
85.15 -0.01246
85.2 -0.01281
85.25 -0.01238
85.3 -0.01211
85.35 -0.01271
85.4 -0.01305
85.45 -0.01387
85.5 -0.01373
85.55 -0.01408
85.6 -0.01443
85.65 -0.01415
85.7 -0.01425
85.75 -0.01329
85.8 -0.0131
85.85 -0.0128
85.9 -0.01167
85.95 -0.01068
86 -0.01069
86.05 -0.01005
86.1 -0.01029
86.15 -0.01032
86.2 -0.01084
86.25 -0.01048
86.3 -0.00947
86.35 -0.00941
86.4 -0.00964
86.45 -0.01003
86.5 -0.00965
86.55 -0.00997
86.6 -0.01059
86.65 -0.01116
86.7 -0.01152
86.75 -0.01167
86.8 -0.01118
86.85 -0.01029
86.9 -0.00974
86.95 -0.00924
87 -0.00881
87.05 -0.00797
87.1 -0.00736
87.15 -0.0064
87.2 -0.00568
87.25 -0.00525
87.3 -0.00567
87.35 -0.00673
87.4 -0.00754
87.45 -0.00783
87.5 -0.00757
87.55 -0.00668
87.6 -0.00675
87.65 -0.0062
87.7 -0.00523
87.75 -0.0049
87.8 -0.00529
87.85 -0.00596
87.9 -0.00625
87.95 -0.00649
88 -0.00569
88.05 -0.00438
88.1 -0.00431
88.15 -0.0047
88.2 -0.00429
88.25 -0.00408
88.3 -0.00427
88.35 -0.00353
88.4 -0.00318
88.45 -0.00251
88.5 -0.00194
88.55 -0.00094
88.6 -0.0006
88.65 -0.00079
88.7 -0.00064
88.75 -0.0015
88.8 -0.00279
88.85 -0.00338
88.9 -0.00302
88.95 -0.00233
89 -0.00249
89.05 -0.0032
89.1 -0.00339
89.15 -0.0037
89.2 -0.00363
89.25 -0.00398
89.3 -0.00474
89.35 -0.00575
89.4 -0.00609
89.45 -0.00598
89.5 -0.00632
89.55 -0.00677
89.6 -0.00718
89.65 -0.00666
89.7 -0.00568
89.75 -0.00549
89.8 -0.00517
89.85 -0.00528
89.9 -0.00521
89.95 -0.00498
90 -0.00441
90.05 -0.00313
90.1 -0.00196
90.15 -0.00176
90.2 -0.00238
90.25 -0.00237
90.3 -0.00156
90.35 -0.0014
90.4 -0.00083
90.45 0.00018
90.5 0.00149
90.55 0.00204
90.6 0.00201
90.65 0.00229
90.7 0.00277
90.75 0.00217
90.8 0.00163
90.85 0.00101
90.9 0.00018
90.95 -0.00093
91 -0.00204
91.05 -0.00342
91.1 -0.00438
91.15 -0.00409
91.2 -0.00318
91.25 -0.00278
91.3 -0.00304
91.35 -0.00257
91.4 -0.00278
91.45 -0.00319
91.5 -0.00399
91.55 -0.00461
91.6 -0.00527
91.65 -0.0059
91.7 -0.00632
91.75 -0.00533
91.8 -0.00405
91.85 -0.00332
91.9 -0.00212
91.95 -0.00056
92 0.00008
92.05 -0.00011
92.1 0.00013
92.15 0.00046
92.2 0.00095
92.25 0.00133
92.3 0.00198
92.35 0.00241
92.4 0.00245
92.45 0.00232
92.5 0.00216
92.55 0.00183
92.6 0.00092
92.65 0.0001
92.7 -0.00109
92.75 -0.00179
92.8 -0.00286
92.85 -0.0036
92.9 -0.00449
92.95 -0.00523
93 -0.00541
93.05 -0.00537
93.1 -0.00452
93.15 -0.00388
93.2 -0.00387
93.25 -0.00408
93.3 -0.00414
93.35 -0.00385
93.4 -0.00282
93.45 -0.00241
93.5 -0.00115
93.55 -0.00091
93.6 -0.00053
93.65 -0.00069
93.7 -0.00078
93.75 -0.0008
93.8 -0.00041
93.85 -0.00093
93.9 -0.00042
93.95 0.00071
94 0.00095
94.05 0.0012
94.1 0.00125
94.15 0.0006
94.2 0.00016
94.25 -0.00007
94.3 0.00036
94.35 0.0006
94.4 0.00062
94.45 -0.00024
94.5 -0.00017
94.55 -0.00008
94.6 -0.00076
94.65 -0.00139
94.7 -0.00102
94.75 -0.00075
94.8 -0.00089
94.85 -0.00115
94.9 -0.00139
94.95 -0.00154
95 -0.00197
95.05 -0.00213
95.1 -0.00138
95.15 -0.00127
95.2 -0.00162
95.25 -0.00137
95.3 -0.00188
95.35 -0.00231
95.4 -0.00224
95.45 -0.0019
95.5 -0.00076
95.55 -0.00013
95.6 0.0004
95.65 0.00104
95.7 0.00125
95.75 0.00067
95.8 0.00062
95.85 0.00074
95.9 0.00044
95.95 -0.00059
96 -0.00098
96.05 -0.00134
96.1 -0.00126
96.15 -0.00086
96.2 0.00018
96.25 0.00083
96.3 0.00192
96.35 0.00251
96.4 0.00331
96.45 0.0043
96.5 0.00388
96.55 0.00272
96.6 0.0012
96.65 0.00044
96.7 -0.00046
96.75 -0.00087
96.8 -0.00079
96.85 -0.0013
96.9 -0.00091
96.95 -0.00074
97 0.00013
97.05 0.00025
97.1 0.00045
97.15 0.00129
97.2 0.00106
97.25 0.0013
97.3 0.00193
97.35 0.00257
97.4 0.00297
97.45 0.0033
97.5 0.00357
97.55 0.00327
97.6 0.00295
97.65 0.00217
97.7 0.00096
97.75 -0.00017
97.8 -0.00054
97.85 -0.00074
97.9 -0.00045
97.95 0.00003
98 0.00086
98.05 0.00199
98.1 0.00223
98.15 0.00278
98.2 0.00258
98.25 0.00175
98.3 0.00129
98.35 0.00128
98.4 0.00139
98.45 0.00129
98.5 0.00094
98.55 0.00116
98.6 0.00137
98.65 0.0012
98.7 0.00119
98.75 0.00085
98.8 0.00059
98.85 -0.0005
98.9 -0.00199
98.95 -0.00283
99 -0.00269
99.05 -0.00277
99.1 -0.00342
99.15 -0.0044
99.2 -0.00492
99.25 -0.00473
99.3 -0.00343
99.35 -0.00294
99.4 -0.00257
99.45 -0.00274
99.5 -0.00336
99.55 -0.00267
99.6 -0.00175
99.65 -0.00069
99.7 0.00016
99.75 0.00004
99.8 0.00034
99.85 0.00033
99.9 0.00023
99.95 0.00069
