0 0
0.05 0.00088
0.1 0.00212
0.15 0.00367
0.2 0.00489
0.25 0.00635
0.3 0.00763
0.35 0.00823
0.4 0.00797
0.45 0.00769
0.5 0.00787
0.55 0.0075
0.6 0.0071
0.65 0.00725
0.7 0.00778
0.75 0.00843
0.8 0.00888
0.85 0.00901
0.9 0.00827
0.95 0.00702
1 0.0061
1.05 0.00597
1.1 0.00589
1.15 0.0059
1.2 0.00562
1.25 0.00481
1.3 0.00441
1.35 0.00435
1.4 0.00416
1.45 0.00392
1.5 0.00427
1.55 0.00393
1.6 0.00426
1.65 0.00405
1.7 0.00342
1.75 0.00266
1.8 0.00255
1.85 0.00319
1.9 0.00336
1.95 0.00298
2 0.00255
2.05 0.00218
2.1 0.00227
2.15 0.00218
2.2 0.00245
2.25 0.00269
2.3 0.00304
2.35 0.00373
2.4 0.00401
2.45 0.00417
2.5 0.00389
2.55 0.00326
2.6 0.00241
2.65 0.00215
2.7 0.00177
2.75 0.00127
2.8 0.00057
2.85 0.00033
2.9 0.00036
2.95 0.00047
3 0.00089
3.05 0.00155
3.1 0.00208
3.15 0.00233
3.2 0.00251
3.25 0.00274
3.3 0.00344
3.35 0.00327
3.4 0.00354
3.45 0.00365
3.5 0.0033
3.55 0.0033
3.6 0.00279
3.65 0.00207
3.7 0.00189
3.75 0.00198
3.8 0.00184
3.85 0.00207
3.9 0.00247
3.95 0.00267
4 0.00317
4.05 0.00324
4.1 0.00361
4.15 0.0039
4.2 0.00368
4.25 0.00375
4.3 0.00341
4.35 0.00364
4.4 0.0038
4.45 0.00316
4.5 0.00226
4.55 0.00122
4.6 0.00037
4.65 -0.00018
4.7 -0.00015
4.75 -0.00051
4.8 -0.0004
4.85 0.00031
4.9 0.00083
4.95 0.00071
5 0.00019
5.05 -0.00033
5.1 -0.00018
5.15 0.0002
5.2 0.00031
5.25 0.00006
5.3 0.00003
5.35 0.00055
5.4 0.00058
5.45 0.00045
5.5 0.00055
5.55 0.00053
5.6 0.00082
5.65 0.00073
5.7 0.00094
5.75 0.00109
5.8 0.00181
5.85 0.00209
5.9 0.00229
5.95 0.00228
6 0.00222
6.05 0.00206
6.1 0.00174
6.15 0.00145
6.2 0.00174
6.25 0.00139
6.3 0.0011
6.35 0.00117
6.4 0.00095
6.45 0.00081
6.5 0.00074
6.55 0.00083
6.6 0.00134
6.65 0.00112
6.7 0.00061
6.75 0.00051
6.8 0.00038
6.85 0.00006
6.9 0.0004
6.95 0.00042
7 0.001
7.05 0.00107
7.1 0.00124
7.15 0.00162
7.2 0.00219
7.25 0.00251
7.3 0.00256
7.35 0.00284
7.4 0.00317
7.45 0.00334
7.5 0.00329
7.55 0.00346
7.6 0.00365
7.65 0.0033
7.7 0.00275
7.75 0.00257
7.8 0.0023
7.85 0.00218
7.9 0.00209
7.95 0.00248
8 0.00312
8.05 0.00345
8.1 0.0035
8.15 0.00343
8.2 0.00343
8.25 0.00367
8.3 0.00328
8.35 0.00289
8.4 0.00285
8.45 0.00281
8.5 0.00229
8.55 0.0013
8.6 0.00108
8.65 0.00107
8.7 0.00066
8.75 -0.0002
8.8 -0.00045
8.85 -0.00091
8.9 -0.001
8.95 -0.00048
9 0.00026
9.05 0.00067
9.1 0.00109
9.15 0.00181
9.2 0.00217
9.25 0.0024
9.3 0.00211
9.35 0.00121
9.4 0.00022
9.45 -0.00009
9.5 -0.00042
9.55 -0.00011
9.6 0.00056
9.65 0.0007
9.7 0.00022
9.75 -0.00031
9.8 -0.00112
9.85 -0.00101
9.9 -0.00099
9.95 -0.00119
10 -0.00088
10.05 -0.00068
10.1 -0.00102
10.15 -0.00132
10.2 -0.00158
10.25 -0.00109
10.3 -0.00025
10.35 -0.00021
10.4 0.00002
10.45 0.00058
10.5 0.00111
10.55 0.00182
10.6 0.0022
10.65 0.00199
10.7 0.00188
10.75 0.00215
10.8 0.00239
10.85 0.00212
10.9 0.00206
10.95 0.00157
11 0.00064
11.05 -0.0001
11.1 -0.0011
11.15 -0.00154
11.2 -0.00172
11.25 -0.00199
11.3 -0.00217
11.35 -0.00224
11.4 -0.00267
11.45 -0.00238
11.5 -0.00229
11.55 -0.00165
11.6 -0.00148
11.65 -0.00173
11.7 -0.00201
11.75 -0.0022
11.8 -0.00207
11.85 -0.00176
11.9 -0.00152
11.95 -0.0016
12 -0.00195
12.05 -0.00201
12.1 -0.00171
12.15 -0.00194
12.2 -0.0021
12.25 -0.00151
12.3 -0.00145
12.35 -0.0015
12.4 -0.00125
12.45 -0.00117
12.5 -0.00109
12.55 -0.0007
12.6 -0.00092
12.65 -0.00084
12.7 -0.00014
12.75 -0.00015
12.8 0.00026
12.85 -0.00003
12.9 0.00003
12.95 0.00061
13 0.00151
13.05 0.00173
13.1 0.00159
13.15 0.00173
13.2 0.0017
13.25 0.00184
13.3 0.00186
13.35 0.00147
13.4 0.00139
13.45 0.00158
13.5 0.00177
13.55 0.00221
13.6 0.00263
13.65 0.00253
13.7 0.00267
13.75 0.00201
13.8 0.00104
13.85 0.00089
13.9 0.00066
13.95 0.0003
14 -0.00033
14.05 -0.00072
14.1 -0.00099
14.15 -0.00059
14.2 -0.0009
14.25 -0.00099
14.3 -0.00081
14.35 -0.00061
14.4 -0.00002
14.45 0.00046
14.5 0.00105
14.55 0.00146
14.6 0.00105
14.65 0.00059
14.7 0.00013
14.75 0.00006
14.8 -0.00022
14.85 -0.00044
14.9 -0.00076
14.95 -0.00138
15 -0.00122
15.05 -0.00108
15.1 -0.00114
15.15 -0.00091
15.2 -0.00083
15.25 -0.00106
15.3 -0.00077
15.35 -0.00101
15.4 -0.00134
15.45 -0.00164
15.5 -0.0021
15.55 -0.00178
15.6 -0.00153
15.65 -0.00123
15.7 -0.00109
15.75 -0.00084
15.8 -0.00037
15.85 -0.00062
15.9 -0.00082
15.95 -0.0007
16 -0.00082
16.05 -0.0012
16.1 -0.00167
16.15 -0.00135
16.2 -0.0016
16.25 -0.00173
16.3 -0.00204
16.35 -0.00189
16.4 -0.0018
16.45 -0.00122
16.5 -0.00105
16.55 -0.00057
16.6 0.00016
16.65 0.00089
16.7 0.00182
16.75 0.00269
16.8 0.00271
16.85 0.00236
16.9 0.00218
16.95 0.00176
17 0.00103
17.05 0.00096
17.1 0.00029
17.15 0.00011
17.2 0.00038
17.25 0.00106
17.3 0.00095
17.35 0.00124
17.4 0.00096
17.45 0.00122
17.5 0.00185
17.55 0.00192
17.6 0.00156
17.65 0.00177
17.7 0.0019
17.75 0.00195
17.8 0.00152
17.85 0.00062
17.9 -0.00008
17.95 -0.00063
18 -0.00072
18.05 -0.00072
18.1 -0.00032
18.15 -0.00032
18.2 -0.00023
18.25 -0.00031
18.3 -0.00043
18.35 -0.00091
18.4 -0.00114
18.45 -0.00112
18.5 -0.00099
18.55 -0.00076
18.6 -0.00018
18.65 0.00036
18.7 0.00122
18.75 0.00128
18.8 0.00109
18.85 0.00129
18.9 0.00108
18.95 0.00122
19 0.00178
19.05 0.00155
19.1 0.00128
19.15 0.00119
19.2 0.00142
19.25 0.00171
19.3 0.00163
19.35 0.00182
19.4 0.00142
19.45 0.00121
19.5 0.00081
19.55 0.00054
19.6 0.00002
19.65 -0.00008
19.7 -0.00025
19.75 0.00004
19.8 -0.00019
19.85 -0.00051
19.9 -0.00075
19.95 -0.00033
20 -0.00037
20.05 -0.00003
20.1 -0.00008
20.15 -0.0006
20.2 -0.00032
20.25 0.00031
20.3 0.00097
20.35 0.00094
20.4 0.00108
20.45 0.00073
20.5 0.00089
20.55 0.00069
20.6 0.00023
20.65 -0.00008
20.7 -0.00002
20.75 0.00047
20.8 0.00016
20.85 0.00046
20.9 0.00067
20.95 0.00116
21 0.00176
21.05 0.0019
21.1 0.00125
21.15 0.00025
21.2 -0.00034
21.25 -0.0011
21.3 -0.00149
21.35 -0.00186
21.4 -0.00211
21.45 -0.00228
21.5 -0.00228
21.55 -0.00233
21.6 -0.00242
21.65 -0.00248
21.7 -0.00227
21.75 -0.00254
21.8 -0.00311
21.85 -0.00285
21.9 -0.00261
21.95 -0.00281
22 -0.00302
22.05 -0.00328
22.1 -0.00272
22.15 -0.00182
22.2 -0.00113
22.25 -0.00078
22.3 -0.00046
22.35 -0.00074
22.4 -0.00051
22.45 0.00002
22.5 0.0008
22.55 0.00141
22.6 0.00179
22.65 0.0015
22.7 0.0007
22.75 0.00065
22.8 0.00082
22.85 0.00123
22.9 0.00192
22.95 0.00219
23 0.00267
23.05 0.00312
23.1 0.00329
23.15 0.00351
23.2 0.00351
23.25 0.00281
23.3 0.00161
23.35 0.00098
23.4 0.00089
23.45 0.00035
23.5 -0.00038
23.55 -0.00032
23.6 0.00018
23.65 0.00089
23.7 0.00109
23.75 0.00133
23.8 0.00176
23.85 0.00215
23.9 0.00214
23.95 0.00178
24 0.00166
24.05 0.00188
24.1 0.00133
24.15 0.00049
24.2 -0.00045
24.25 -0.00144
24.3 -0.00161
24.35 -0.00208
24.4 -0.00227
24.45 -0.00228
24.5 -0.00191
24.55 -0.00159
24.6 -0.00099
24.65 -0.001
24.7 -0.0012
24.75 -0.00182
24.8 -0.00161
24.85 -0.00127
24.9 -0.00054
24.95 -0.00013
25 -0.00039
25.05 -0.00061
25.1 -0.00029
25.15 -0.00004
25.2 -0.0004
25.25 -0.00104
25.3 -0.00197
25.35 -0.00192
25.4 -0.00138
25.45 -0.00061
25.5 0.00048
25.55 0.00114
25.6 0.00145
25.65 0.002
25.7 0.00254
25.75 0.00276
25.8 0.00259
25.85 0.00195
25.9 0.00149
25.95 0.00133
26 0.00052
26.05 -0.00057
26.1 -0.00088
26.15 -0.00128
26.2 -0.00105
26.25 -0.00131
26.3 -0.00141
26.35 -0.00105
26.4 -0.00115
26.45 -0.00168
26.5 -0.00189
26.55 -0.00214
26.6 -0.00203
26.65 -0.0013
26.7 -0.00019
26.75 0.00105
26.8 0.00181
26.85 0.00161
26.9 0.00114
26.95 0.00094
27 0.00112
27.05 0.0008
27.1 0.00048
27.15 0.00014
27.2 0.00036
27.25 0.0007
27.3 0.00048
27.35 0.00072
27.4 0.00053
27.45 0.0003
27.5 -0.00026
27.55 -0.00014
27.6 -0.00013
27.65 0.00027
27.7 0.00068
27.75 0.0012
27.8 0.00197
27.85 0.00252
27.9 0.00296
27.95 0.00272
28 0.00177
28.05 0.0007
28.1 -0.00004
28.15 -0.00078
28.2 -0.00067
28.25 -0.00067
28.3 -0.00077
28.35 -0.00083
28.4 -0.00138
28.45 -0.00114
28.5 -0.00055
28.55 -0.00052
28.6 -0.00072
28.65 -0.00124
28.7 -0.00117
28.75 -0.00054
28.8 0.00028
28.85 0.00044
28.9 0
28.95 -0.00032
29 -0.00003
29.05 -0.00014
29.1 -0.00009
29.15 0.00033
29.2 0.00096
29.25 0.00175
29.3 0.00185
29.35 0.00204
29.4 0.00246
29.45 0.00189
29.5 0.00129
29.55 0.00131
29.6 0.00165
29.65 0.00191
29.7 0.00153
29.75 0.00081
29.8 0.00066
29.85 0.00097
29.9 0.00116
29.95 0.00107
30 0.00098
30.05 0.00066
30.1 0.00064
30.15 0.00046
30.2 0.00082
30.25 0.00075
30.3 0.00101
30.35 0.00086
30.4 0.00021
30.45 -0.00032
30.5 -0.0007
30.55 -0.0006
30.6 -0.00012
30.65 0.00065
30.7 0.00067
30.75 0.00054
30.8 0.00045
30.85 -0.00019
30.9 -0.00109
30.95 -0.00181
31 -0.0018
31.05 -0.00199
31.1 -0.0017
31.15 -0.00118
31.2 -0.00076
31.25 0.00005
31.3 0.00065
31.35 0.00124
31.4 0.00167
31.45 0.00194
31.5 0.00174
31.55 0.00115
31.6 0.00079
31.65 0.0009
31.7 0.001
31.75 0.00047
31.8 -0.0003
31.85 -0.00102
31.9 -0.00103
31.95 -0.00113
32 -0.00099
32.05 -0.00061
32.1 -0.00091
32.15 -0.00064
32.2 -0.0008
32.25 -0.00125
32.3 -0.00106
32.35 -0.00138
32.4 -0.00138
32.45 -0.00084
32.5 -0.00013
32.55 0.00042
32.6 0.001
32.65 0.00129
32.7 0.00129
32.75 0.00121
32.8 0.00131
32.85 0.00165
32.9 0.00198
32.95 0.00247
33 0.0026
33.05 0.0022
33.1 0.00179
33.15 0.00178
33.2 0.00093
33.25 0.00011
33.3 -0.00023
33.35 -0.00005
33.4 -0.00041
33.45 -0.00107
33.5 -0.00175
33.55 -0.00232
33.6 -0.00227
33.65 -0.0026
33.7 -0.00322
33.75 -0.00321
33.8 -0.00331
33.85 -0.00359
33.9 -0.00345
33.95 -0.00325
34 -0.00303
34.05 -0.0022
34.1 -0.00138
34.15 -0.00084
34.2 -0.00011
34.25 0.00026
34.3 0.00087
34.35 0.00104
34.4 0.00122
34.45 0.00114
34.5 0.0006
34.55 0.00055
34.6 0.0006
34.65 0.00074
34.7 0.00073
34.75 0.00033
34.8 -0.00038
34.85 -0.00119
34.9 -0.00128
34.95 -0.00079
35 -0.00077
35.05 -0.00128
35.1 -0.00172
35.15 -0.00205
35.2 -0.0027
35.25 -0.00338
35.3 -0.00366
35.35 -0.00394
35.4 -0.00419
35.45 -0.00425
35.5 -0.00434
35.55 -0.00397
35.6 -0.0031
35.65 -0.00256
35.7 -0.00176
35.75 -0.0008
35.8 0.00039
35.85 0.00156
35.9 0.00237
35.95 0.00209
36 0.00206
36.05 0.00171
36.1 0.0015
36.15 0.00132
36.2 0.00089
36.25 0.00016
36.3 -0.00076
36.35 -0.0016
36.4 -0.00241
36.45 -0.00302
36.5 -0.00335
36.55 -0.00314
36.6 -0.00226
36.65 -0.00123
36.7 0
36.75 0.00066
36.8 0.00052
36.85 0.00088
36.9 0.00073
36.95 0.00015
37 -0.00038
37.05 -0.00105
37.1 -0.00144
37.15 -0.00108
37.2 -0.0011
37.25 -0.00099
37.3 -0.00043
37.35 0.00023
37.4 0.00078
37.45 0.00096
37.5 0.00099
37.55 0.00067
37.6 0.00056
37.65 0.00039
37.7 -0.00022
37.75 -0.00064
37.8 -0.00121
37.85 -0.00183
37.9 -0.0017
37.95 -0.00121
38 -0.00129
38.05 -0.00125
38.1 -0.00097
38.15 -0.00049
38.2 0.00019
38.25 0.00056
38.3 0.00048
38.35 0.00078
38.4 0.00127
38.45 0.00129
38.5 0.00092
38.55 0.00095
38.6 0.00096
38.65 0.00122
38.7 0.00108
38.75 0.00092
38.8 0.00056
38.85 0.00044
38.9 0.00014
38.95 -0.00003
39 -0.00028
39.05 -0.00021
39.1 -0.00029
39.15 0.00019
39.2 0.00055
39.25 0.00092
39.3 0.00053
39.35 0.00015
39.4 0.00021
39.45 -0.00023
39.5 -0.00088
39.55 -0.00067
39.6 -0.00058
39.65 -0.00052
39.7 -0.0004
39.75 -0.00059
39.8 -0.00041
39.85 0.0003
39.9 0.00058
39.95 0.00104
40 0.00161
40.05 0.00177
40.1 0.00205
40.15 0.00256
40.2 0.0026
40.25 0.00239
40.3 0.00201
40.35 0.00122
40.4 0.00073
40.45 0.00016
40.5 -0.00052
40.55 -0.00124
40.6 -0.00148
40.65 -0.00196
40.7 -0.00189
40.75 -0.00217
40.8 -0.00181
40.85 -0.00184
40.9 -0.00122
40.95 -0.00045
41 0.00051
41.05 0.0016
41.1 0.00193
41.15 0.00161
41.2 0.00109
41.25 0.00061
41.3 -0.00011
41.35 -0.00055
41.4 -0.00079
41.45 -0.00043
41.5 -0.0002
41.55 -0.00004
41.6 -0.00054
41.65 -0.00102
41.7 -0.00086
41.75 -0.00091
41.8 -0.00083
41.85 -0.00084
41.9 -0.00138
41.95 -0.00129
42 -0.00136
42.05 -0.00108
42.1 -0.00042
42.15 0.00045
42.2 0.00139
42.25 0.0024
42.3 0.00238
42.35 0.0022
42.4 0.00217
42.45 0.00214
42.5 0.00241
42.55 0.0029
42.6 0.00237
42.65 0.0013
42.7 0.00013
42.75 -0.00076
42.8 -0.00144
42.85 -0.0018
42.9 -0.00236
42.95 -0.00259
43 -0.00253
43.05 -0.00255
43.1 -0.00221
43.15 -0.0024
43.2 -0.00226
43.25 -0.00256
43.3 -0.00255
43.35 -0.0028
43.4 -0.00305
43.45 -0.00303
43.5 -0.00268
43.55 -0.00223
43.6 -0.00141
43.65 -0.00046
43.7 -0.0002
43.75 0.00032
43.8 0.00018
43.85 -0.00013
43.9 -0.00079
43.95 -0.00081
44 -0.00085
44.05 -0.00132
44.1 -0.00099
44.15 -0.00116
44.2 -0.0017
44.25 -0.00217
44.3 -0.0026
44.35 -0.00257
44.4 -0.0028
44.45 -0.00241
44.5 -0.00197
44.55 -0.00115
44.6 -0.00026
44.65 0.00036
44.7 0.00108
44.75 0.00204
44.8 0.00209
44.85 0.00222
44.9 0.00219
44.95 0.00229
45 0.00169
45.05 0.00088
45.1 0.00044
45.15 0.00048
45.2 0.00102
45.25 0.00168
45.3 0.0015
45.35 0.00114
45.4 0.00073
45.45 0.0007
45.5 0.00044
45.55 0.00048
45.6 0.00027
45.65 -0.00015
45.7 -0.00003
45.75 -0.00046
45.8 -0.00115
45.85 -0.001
45.9 -0.00113
45.95 -0.0008
46 -0.00071
46.05 -0.00074
46.1 -0.00058
46.15 -0.00069
46.2 -0.00011
46.25 -0.00006
46.3 0.00043
46.35 0.00127
46.4 0.00134
46.45 0.00109
46.5 0.00063
46.55 -0.00027
46.6 -0.00087
46.65 -0.00068
46.7 -0.00004
46.75 0.00005
46.8 -0.00047
46.85 -0.00064
46.9 -0.00067
46.95 -0.00012
47 0.00065
47.05 0.00159
47.1 0.00235
47.15 0.00248
47.2 0.00249
47.25 0.00217
47.3 0.00228
47.35 0.00199
47.4 0.0022
47.45 0.00231
47.5 0.0023
47.55 0.00161
47.6 0.00117
47.65 0.00054
47.7 0.0006
47.75 0.00016
47.8 0.00003
47.85 0.0003
47.9 0.00042
47.95 0.0008
48 0.00116
48.05 0.00101
48.1 0.00117
48.15 0.00106
48.2 0.00063
48.25 -0
48.3 -0.00072
48.35 -0.00086
48.4 -0.00107
48.45 -0.00082
48.5 -0.00043
48.55 0
48.6 0.00034
48.65 0.00064
48.7 0.00068
48.75 0.00006
48.8 -0.00081
48.85 -0.0018
48.9 -0.00198
48.95 -0.00244
49 -0.00271
49.05 -0.00324
49.1 -0.00308
49.15 -0.00299
49.2 -0.00248
49.25 -0.002
49.3 -0.00206
49.35 -0.00245
49.4 -0.00292
49.45 -0.00354
49.5 -0.00371
49.55 -0.00383
49.6 -0.00403
49.65 -0.00404
49.7 -0.00412
49.75 -0.00358
49.8 -0.00319
49.85 -0.0031
49.9 -0.00248
49.95 -0.00224
50 -0.00131
50.05 -0.0001
50.1 0.00119
50.15 0.00161
50.2 0.00163
50.25 0.00199
50.3 0.00166
50.35 0.0012
50.4 0.00046
50.45 -0.00052
50.5 -0.00147
50.55 -0.00245
50.6 -0.00269
50.65 -0.00248
50.7 -0.00212
50.75 -0.00126
50.8 -0.00085
50.85 -0.00077
50.9 -0.00022
50.95 0.00057
51 0.00054
51.05 0.00063
51.1 0.00088
51.15 0.00132
51.2 0.00152
51.25 0.00194
51.3 0.00153
51.35 0.00119
51.4 0.00146
51.45 0.00213
51.5 0.00259
51.55 0.00307
51.6 0.00339
51.65 0.00311
51.7 0.00282
51.75 0.00211
51.8 0.00095
51.85 0.00012
51.9 -0.00019
51.95 -0.0008
52 -0.00151
52.05 -0.00231
52.1 -0.00288
52.15 -0.00338
52.2 -0.00306
52.25 -0.00308
52.3 -0.00295
52.35 -0.00261
52.4 -0.00235
52.45 -0.00246
52.5 -0.00269
52.55 -0.00217
52.6 -0.00163
52.65 -0.00113
52.7 -0.00047
52.75 -0.00053
52.8 -0.00002
52.85 0.00033
52.9 0.00089
52.95 0.00157
53 0.00204
53.05 0.0017
53.1 0.00127
53.15 0.00108
53.2 0.00059
53.25 0.00032
53.3 0.00004
53.35 -0.00036
53.4 -0.00056
53.45 -0.00039
53.5 0.00033
53.55 0.00116
53.6 0.00188
53.65 0.00166
53.7 0.00114
53.75 0.00053
53.8 0.00037
53.85 -0.00024
53.9 -0.00055
53.95 -0.00053
54 -0.00059
54.05 -0.00064
54.1 -0.00033
54.15 0.00001
54.2 0.00018
54.25 -0.00001
54.3 0.00022
54.35 0.00088
54.4 0.00079
54.45 0.00094
54.5 0.00083
54.55 0.00112
54.6 0.0016
54.65 0.00141
54.7 0.00179
54.75 0.00159
54.8 0.00169
54.85 0.00203
54.9 0.00206
54.95 0.00241
55 0.00278
55.05 0.00235
55.1 0.00245
55.15 0.00257
55.2 0.00186
55.25 0.00092
55.3 -0.0003
55.35 -0.00144
55.4 -0.00204
55.45 -0.00214
55.5 -0.00243
55.55 -0.00269
55.6 -0.00313
55.65 -0.00256
55.7 -0.0014
55.75 -0.00077
55.8 -0.00012
55.85 0.00021
55.9 0.00095
55.95 0.00138
56 0.00158
56.05 0.00205
56.1 0.00254
56.15 0.0032
56.2 0.00349
56.25 0.00325
56.3 0.00249
56.35 0.00187
56.4 0.00144
56.45 0.00155
56.5 0.00142
56.55 0.00073
56.6 0.00033
56.65 -0.00043
56.7 -0.00131
56.75 -0.00194
56.8 -0.00252
56.85 -0.00314
56.9 -0.00369
56.95 -0.00388
57 -0.00392
57.05 -0.00381
57.1 -0.0038
57.15 -0.00388
57.2 -0.00412
57.25 -0.00437
57.3 -0.00401
57.35 -0.00387
57.4 -0.00335
57.45 -0.00256
57.5 -0.00151
57.55 -0.00029
57.6 0.00034
57.65 0.00079
57.7 0.0014
57.75 0.00147
57.8 0.00198
57.85 0.00214
57.9 0.00254
57.95 0.00261
58 0.00225
58.05 0.00144
58.1 0.00044
58.15 0.00018
58.2 0.00033
58.25 0.00097
58.3 0.00184
58.35 0.00261
58.4 0.00275
58.45 0.00214
58.5 0.00115
58.55 -0.00009
58.6 -0.00128
58.65 -0.0017
58.7 -0.00222
58.75 -0.00288
58.8 -0.00357
58.85 -0.00383
58.9 -0.00313
58.95 -0.00285
59 -0.00222
59.05 -0.0017
59.1 -0.00121
59.15 -0.00017
59.2 0.00098
59.25 0.00189
59.3 0.00239
59.35 0.00294
59.4 0.00258
59.45 0.00265
59.5 0.00226
59.55 0.00224
59.6 0.0022
59.65 0.00214
59.7 0.00242
59.75 0.00182
59.8 0.00095
59.85 0.00074
59.9 0.00079
59.95 0.00088
60 0.00071
60.05 0.00071
60.1 0.00113
60.15 0.00123
60.2 0.00084
60.25 0.00049
60.3 0.00013
60.35 -0.0003
60.4 -0.00075
60.45 -0.00082
60.5 -0.00041
60.55 -0.00066
60.6 -0.00033
60.65 0.00017
60.7 0.00082
60.75 0.00142
60.8 0.0016
60.85 0.00195
60.9 0.00251
60.95 0.003
61 0.00298
61.05 0.00214
61.1 0.00103
61.15 0.00025
61.2 -0.0004
61.25 -0.00029
61.3 0.0002
61.35 0.00059
61.4 0.00027
61.45 0.00019
61.5 0.00037
61.55 0.00074
61.6 0.00064
61.65 0.00067
61.7 0.00078
61.75 0.00121
61.8 0.00106
61.85 0.00097
61.9 0.00079
61.95 0.00109
62 0.00075
62.05 0.00005
62.1 -0.0002
62.15 0.00011
62.2 0.00016
62.25 0.00009
62.3 -0.00028
62.35 -0.00008
62.4 -0.00048
62.45 -0.0005
62.5 -0.00008
62.55 -0.00017
62.6 0.00006
62.65 -0.00004
62.7 -0.00009
62.75 -0.00052
62.8 -0.00039
62.85 0.00018
62.9 0.0008
62.95 0.00165
63 0.00163
63.05 0.00107
63.1 0.00074
63.15 -0.00007
63.2 -0.00008
63.25 -0.00063
63.3 -0.00074
63.35 -0.00023
63.4 -0.00011
63.45 -0.00051
63.5 -0.00049
63.55 -0.00067
63.6 -0.00048
63.65 -0.00086
63.7 -0.00064
63.75 -0.00093
63.8 -0.00073
63.85 -0.00087
63.9 -0.00103
63.95 -0.00103
64 -0.00064
64.05 -0.0002
64.1 0.00057
64.15 0.00114
64.2 0.00127
64.25 0.00087
64.3 -0.00005
64.35 -0.00034
64.4 0
64.45 0.00031
64.5 0.0009
64.55 0.00124
64.6 0.00134
64.65 0.00148
64.7 0.0019
64.75 0.0021
64.8 0.00221
64.85 0.00236
64.9 0.00256
64.95 0.00188
65 0.00153
65.05 0.00111
65.1 0.00036
65.15 0.00033
65.2 0.00003
65.25 0.00031
65.3 -0.00011
65.35 -0.00031
65.4 -0.00102
65.45 -0.0013
65.5 -0.00093
65.55 -0.00009
65.6 0.00094
65.65 0.00096
65.7 0.00052
65.75 -0.0001
65.8 -0.00009
65.85 0.00024
65.9 0.00033
65.95 0.0004
66 0.00012
66.05 0.00006
66.1 -0.00042
66.15 -0.00049
66.2 -0.00081
66.25 -0.00093
66.3 -0.00059
66.35 -0.00034
66.4 -0.00043
66.45 -0.00032
66.5 -0.00009
66.55 0.00041
66.6 0.00022
66.65 -0.00044
66.7 -0.00035
66.75 -0.00003
66.8 0.00023
66.85 0.00075
66.9 0.00074
66.95 0.00049
67 -0.00007
67.05 -0.00075
67.1 -0.0016
67.15 -0.00233
67.2 -0.00318
67.25 -0.00378
67.3 -0.00393
67.35 -0.00381
67.4 -0.00321
67.45 -0.00292
67.5 -0.00236
67.55 -0.00189
67.6 -0.00203
67.65 -0.00158
67.7 -0.00101
67.75 -0.00023
67.8 0.00064
67.85 0.00063
67.9 0.0003
67.95 -0.00069
68 -0.00145
68.05 -0.00279
68.1 -0.0037
68.15 -0.00465
68.2 -0.00593
68.25 -0.00764
68.3 -0.00939
68.35 -0.01137
68.4 -0.01344
68.45 -0.01525
68.5 -0.0165
68.55 -0.01821
68.6 -0.02053
68.65 -0.02304
68.7 -0.02588
68.75 -0.02923
68.8 -0.03351
68.85 -0.03905
68.9 -0.04531
68.95 -0.05193
69 -0.05947
69.05 -0.06757
69.1 -0.07702
69.15 -0.08766
69.2 -0.09854
69.25 -0.11011
69.3 -0.12306
69.35 -0.13662
69.4 -0.15119
69.45 -0.16687
69.5 -0.18385
69.55 -0.20062
69.6 -0.21765
69.65 -0.23559
69.7 -0.25314
69.75 -0.27083
69.8 -0.28886
69.85 -0.30666
69.9 -0.32352
69.95 -0.33862
70 -0.35223
70.05 -0.36417
70.1 -0.37384
70.15 -0.38174
70.2 -0.38678
70.25 -0.38912
70.3 -0.38906
70.35 -0.38605
70.4 -0.38034
70.45 -0.3717
70.5 -0.36048
70.55 -0.34665
70.6 -0.33045
70.65 -0.31102
70.7 -0.28929
70.75 -0.26492
70.8 -0.23863
70.85 -0.21064
70.9 -0.18063
70.95 -0.14925
71 -0.11691
71.05 -0.08413
71.1 -0.05123
71.15 -0.01825
71.2 0.01446
71.25 0.04548
71.3 0.07493
71.35 0.103
71.4 0.12936
71.45 0.15466
71.5 0.17757
71.55 0.1985
71.6 0.217
71.65 0.2336
71.7 0.24802
71.75 0.26045
71.8 0.27107
71.85 0.28076
71.9 0.28887
71.95 0.29506
72 0.30069
72.05 0.30538
72.1 0.30886
72.15 0.31153
72.2 0.31309
72.25 0.31316
72.3 0.3121
72.35 0.31059
72.4 0.30766
72.45 0.30372
72.5 0.2994
72.55 0.29555
72.6 0.2915
72.65 0.28706
72.7 0.28238
72.75 0.27781
72.8 0.27298
72.85 0.26721
72.9 0.26062
72.95 0.25425
73 0.24766
73.05 0.24028
73.1 0.23232
73.15 0.22428
73.2 0.2167
73.25 0.20886
73.3 0.20177
73.35 0.19424
73.4 0.18651
73.45 0.17866
73.5 0.17137
73.55 0.16502
73.6 0.15886
73.65 0.15232
73.7 0.14614
73.75 0.14056
73.8 0.1348
73.85 0.1298
73.9 0.12456
73.95 0.11955
74 0.11484
74.05 0.11004
74.1 0.10545
74.15 0.10091
74.2 0.09738
74.25 0.09467
74.3 0.09229
74.35 0.09003
74.4 0.08778
74.45 0.08501
74.5 0.08226
74.55 0.07983
74.6 0.07762
74.65 0.07504
74.7 0.07267
74.75 0.07065
74.8 0.06925
74.85 0.068
74.9 0.06626
74.95 0.06394
75 0.06203
75.05 0.05954
75.1 0.05667
75.15 0.05456
75.2 0.05279
75.25 0.05082
75.3 0.04857
75.35 0.04581
75.4 0.04357
75.45 0.04117
75.5 0.03826
75.55 0.0358
75.6 0.03332
75.65 0.03089
75.7 0.02796
75.75 0.02456
75.8 0.02128
75.85 0.01792
75.9 0.01523
75.95 0.01286
76 0.00991
76.05 0.00755
76.1 0.00486
76.15 0.00183
76.2 -0.00092
76.25 -0.00328
76.3 -0.00523
76.35 -0.00771
76.4 -0.01027
76.45 -0.0128
76.5 -0.0146
76.55 -0.01652
76.6 -0.01866
76.65 -0.02026
76.7 -0.02241
76.75 -0.02392
76.8 -0.02524
76.85 -0.0263
76.9 -0.02727
76.95 -0.02895
77 -0.03019
77.05 -0.0309
77.1 -0.03215
77.15 -0.03395
77.2 -0.03549
77.25 -0.03636
77.3 -0.03739
77.35 -0.03805
77.4 -0.03843
77.45 -0.03858
77.5 -0.03937
77.55 -0.0405
77.6 -0.04129
77.65 -0.04131
77.7 -0.04177
77.75 -0.04184
77.8 -0.04141
77.85 -0.04138
77.9 -0.04112
77.95 -0.04115
78 -0.04153
78.05 -0.0412
78.1 -0.04153
78.15 -0.04143
78.2 -0.04135
78.25 -0.0412
78.3 -0.04141
78.35 -0.04183
78.4 -0.04183
78.45 -0.0417
78.5 -0.04184
78.55 -0.04177
78.6 -0.04132
78.65 -0.04037
78.7 -0.03943
78.75 -0.03909
78.8 -0.03862
78.85 -0.03779
78.9 -0.03686
78.95 -0.03627
79 -0.03522
79.05 -0.0347
79.1 -0.0337
79.15 -0.03243
79.2 -0.03123
79.25 -0.03035
79.3 -0.03035
79.35 -0.03082
79.4 -0.03149
79.45 -0.03161
79.5 -0.03104
79.55 -0.03094
79.6 -0.03103
79.65 -0.03077
79.7 -0.02991
79.75 -0.02972
79.8 -0.02967
79.85 -0.02947
79.9 -0.02906
79.95 -0.02902
80 -0.02878
80.05 -0.02812
80.1 -0.02702
80.15 -0.02612
80.2 -0.02547
80.25 -0.025
80.3 -0.02476
80.35 -0.0248
80.4 -0.02482
80.45 -0.02412
80.5 -0.02306
80.55 -0.02215
80.6 -0.02128
80.65 -0.021
80.7 -0.02092
80.75 -0.02048
80.8 -0.02059
80.85 -0.0206
80.9 -0.02015
80.95 -0.01999
81 -0.02021
81.05 -0.0207
81.1 -0.02075
81.15 -0.0206
81.2 -0.01992
81.25 -0.01966
81.3 -0.01935
81.35 -0.01932
81.4 -0.0189
81.45 -0.0187
81.5 -0.01857
81.55 -0.01791
81.6 -0.01721
81.65 -0.01653
81.7 -0.01617
81.75 -0.0153
81.8 -0.01488
81.85 -0.01406
81.9 -0.01398
81.95 -0.01376
82 -0.01372
82.05 -0.01385
82.1 -0.01328
82.15 -0.01285
82.2 -0.0127
82.25 -0.01296
82.3 -0.01339
82.35 -0.01328
82.4 -0.01331
82.45 -0.01274
82.5 -0.0122
82.55 -0.01225
82.6 -0.01178
82.65 -0.01103
82.7 -0.01006
82.75 -0.00949
82.8 -0.00863
82.85 -0.00869
82.9 -0.00868
82.95 -0.00842
83 -0.00856
83.05 -0.00836
83.1 -0.00809
83.15 -0.00781
83.2 -0.00764
83.25 -0.00715
83.3 -0.00709
83.35 -0.00769
83.4 -0.00858
83.45 -0.00926
83.5 -0.00927
83.55 -0.00863
83.6 -0.00868
83.65 -0.00891
83.7 -0.00928
83.75 -0.00964
83.8 -0.00932
83.85 -0.00845
83.9 -0.00745
83.95 -0.00704
84 -0.00651
84.05 -0.00666
84.1 -0.00663
84.15 -0.00615
84.2 -0.0059
84.25 -0.00601
84.3 -0.00615
84.35 -0.00667
84.4 -0.00657
84.45 -0.00595
84.5 -0.0059
84.55 -0.00551
84.6 -0.00536
84.65 -0.00535
84.7 -0.00572
84.75 -0.00637
84.8 -0.00704
84.85 -0.00768
84.9 -0.00775
84.95 -0.00775
85 -0.00762
85.05 -0.00787
85.1 -0.0079
85.15 -0.0076
85.2 -0.00689
85.25 -0.00586
85.3 -0.00542
85.35 -0.00553
85.4 -0.00593
85.45 -0.00596
85.5 -0.00537
85.55 -0.00439
85.6 -0.00371
85.65 -0.00348
85.7 -0.00314
85.75 -0.00307
85.8 -0.00291
85.85 -0.0026
85.9 -0.00196
85.95 -0.00162
86 -0.00163
86.05 -0.00193
86.1 -0.00244
86.15 -0.00258
86.2 -0.00253
86.25 -0.00298
86.3 -0.00387
86.35 -0.00431
86.4 -0.00433
86.45 -0.00375
86.5 -0.00281
86.55 -0.00233
86.6 -0.00257
86.65 -0.00326
86.7 -0.00349
86.75 -0.0039
86.8 -0.00412
86.85 -0.00448
86.9 -0.00466
86.95 -0.00496
87 -0.00453
87.05 -0.00452
87.1 -0.00431
87.15 -0.0044
87.2 -0.00431
87.25 -0.00467
87.3 -0.00467
87.35 -0.0045
87.4 -0.00409
87.45 -0.0035
87.5 -0.00285
87.55 -0.00193
87.6 -0.00105
87.65 -0.00091
87.7 -0.00065
87.75 -0.00066
87.8 -0.00108
87.85 -0.00185
87.9 -0.00206
87.95 -0.00261
88 -0.00278
88.05 -0.0025
88.1 -0.0023
88.15 -0.00181
88.2 -0.00146
88.25 -0.0014
88.3 -0.00184
88.35 -0.00243
88.4 -0.00285
88.45 -0.00269
88.5 -0.00213
88.55 -0.00183
88.6 -0.00177
88.65 -0.00115
88.7 -0.00062
88.75 0.00007
88.8 -0.00023
88.85 -0.00067
88.9 -0.00155
88.95 -0.00246
89 -0.00337
89.05 -0.00436
89.1 -0.00517
89.15 -0.00544
89.2 -0.00556
89.25 -0.0047
89.3 -0.00347
89.35 -0.00274
89.4 -0.00179
89.45 -0.00088
89.5 -0.00044
89.55 0.00007
89.6 0.00023
89.65 0.00062
89.7 0.00106
89.75 0.00126
89.8 0.00169
89.85 0.0023
89.9 0.00225
89.95 0.00204
90 0.00135
90.05 0.00114
90.1 0.00118
90.15 0.00116
90.2 0.00088
90.25 0.00016
90.3 -0.00053
90.35 -0.00076
90.4 -0.0009
90.45 -0.00107
90.5 -0.00108
90.55 -0.00106
90.6 -0.00104
90.65 -0.00089
90.7 -0.00118
90.75 -0.00188
90.8 -0.00264
90.85 -0.00295
90.9 -0.00291
90.95 -0.00306
91 -0.00269
91.05 -0.00242
91.1 -0.00204
91.15 -0.00213
91.2 -0.00198
91.25 -0.00225
91.3 -0.00171
91.35 -0.00099
91.4 -0.00013
91.45 0.00091
91.5 0.00165
91.55 0.00171
91.6 0.00201
91.65 0.00176
91.7 0.0014
91.75 0.00129
91.8 0.00072
91.85 -0
91.9 -0.00088
91.95 -0.00186
92 -0.00189
92.05 -0.00222
92.1 -0.00252
92.15 -0.00206
92.2 -0.00155
92.25 -0.00118
92.3 -0.00033
92.35 0.00042
92.4 0.00129
92.45 0.00225
92.5 0.0021
92.55 0.0016
92.6 0.00143
92.65 0.00084
92.7 -0.00024
92.75 -0.00115
92.8 -0.00198
92.85 -0.00272
92.9 -0.00261
92.95 -0.00269
93 -0.0031
93.05 -0.00293
93.1 -0.00239
93.15 -0.00183
93.2 -0.00127
93.25 -0.00043
93.3 -0.0004
93.35 0.00004
93.4 0.00015
93.45 -0.00014
93.5 -0.00004
93.55 -0.00037
93.6 -0.00058
93.65 -0.0006
93.7 -0.00107
93.75 -0.00159
93.8 -0.00204
93.85 -0.00203
93.9 -0.00201
93.95 -0.00206
94 -0.00191
94.05 -0.00118
94.1 -0.0004
94.15 0.00049
94.2 0.00112
94.25 0.00129
94.3 0.00092
94.35 0.00041
94.4 -0.00014
94.45 -0.00057
94.5 -0.00138
94.55 -0.00163
94.6 -0.00151
94.65 -0.00175
94.7 -0.00183
94.75 -0.00225
94.8 -0.00187
94.85 -0.00207
94.9 -0.00213
94.95 -0.00194
95 -0.00175
95.05 -0.0014
95.1 -0.00118
95.15 -0.00041
95.2 0.00038
95.25 0.00109
95.3 0.00129
95.35 0.00077
95.4 0.00031
95.45 -0.00042
95.5 -0.00059
95.55 -0.00018
95.6 0.00024
95.65 0.00083
95.7 0.00103
95.75 0.00119
95.8 0.00172
95.85 0.00242
95.9 0.00257
95.95 0.00294
96 0.00303
96.05 0.00324
96.1 0.00344
96.15 0.0038
96.2 0.0034
96.25 0.00294
96.3 0.0026
96.35 0.00259
96.4 0.00231
96.45 0.00136
96.5 0.0002
96.55 -0.00059
96.6 -0.00125
96.65 -0.00114
96.7 -0.00089
96.75 -0.00128
96.8 -0.00095
96.85 -0.00111
96.9 -0.00122
96.95 -0.00086
97 -0.00066
97.05 -0.00057
97.1 -0.00045
97.15 0.00001
97.2 0.00023
97.25 0.0004
97.3 0.00021
97.35 0.00047
97.4 0.00092
97.45 0.00162
97.5 0.00238
97.55 0.0031
97.6 0.0038
97.65 0.00437
97.7 0.00486
97.75 0.00498
97.8 0.0049
97.85 0.00431
97.9 0.00343
97.95 0.00241
98 0.00163
98.05 0.00082
98.1 0.00049
98.15 0.0002
98.2 0.00001
98.25 -0.00003
98.3 -0.00073
98.35 -0.00149
98.4 -0.00203
98.45 -0.00243
98.5 -0.00306
98.55 -0.00282
98.6 -0.0022
98.65 -0.00137
98.7 -0.00028
98.75 0.00037
98.8 0.00052
98.85 0.00081
98.9 0.00071
98.95 0.0005
99 -0.00027
99.05 -0.00037
99.1 -0.00062
99.15 -0.00076
99.2 -0.00104
99.25 -0.00153
99.3 -0.00139
99.35 -0.00146
99.4 -0.002
99.45 -0.00227
99.5 -0.00212
99.55 -0.00183
99.6 -0.00182
99.65 -0.00209
99.7 -0.00256
99.75 -0.00263
99.8 -0.00302
99.85 -0.00253
99.9 -0.0023
99.95 -0.00151
