0 0
0.05 0.00075
0.1 0.00168
0.15 0.00238
0.2 0.00341
0.25 0.00449
0.3 0.00511
0.35 0.00544
0.4 0.00603
0.45 0.00663
0.5 0.00661
0.55 0.00621
0.6 0.00626
0.65 0.00596
0.7 0.006
0.75 0.006
0.8 0.00589
0.85 0.00531
0.9 0.0053
0.95 0.00476
1 0.00444
1.05 0.00403
1.1 0.00347
1.15 0.00336
1.2 0.0038
1.25 0.00441
1.3 0.00492
1.35 0.00527
1.4 0.00583
1.45 0.00556
1.5 0.00544
1.55 0.00537
1.6 0.00472
1.65 0.00457
1.7 0.00391
1.75 0.00345
1.8 0.00296
1.85 0.00275
1.9 0.00282
1.95 0.00253
2 0.00275
2.05 0.00292
2.1 0.00296
2.15 0.00326
2.2 0.00371
2.25 0.00387
2.3 0.00422
2.35 0.00411
2.4 0.00406
2.45 0.00412
2.5 0.00389
2.55 0.00347
2.6 0.00335
2.65 0.0033
2.7 0.00296
2.75 0.00299
2.8 0.00345
2.85 0.00351
2.9 0.0032
2.95 0.00338
3 0.00328
3.05 0.00298
3.1 0.00298
3.15 0.00311
3.2 0.00323
3.25 0.0031
3.3 0.00307
3.35 0.00275
3.4 0.00255
3.45 0.00279
3.5 0.00247
3.55 0.00199
3.6 0.00143
3.65 0.00069
3.7 0.00021
3.75 0.00027
3.8 0.00004
3.85 0.00037
3.9 0.00071
3.95 0.00087
4 0.00114
4.05 0.00132
4.1 0.00134
4.15 0.00089
4.2 0.00096
4.25 0.00079
4.3 0.00053
4.35 0.00051
4.4 0.00062
4.45 0.00078
4.5 0.00113
4.55 0.00163
4.6 0.00203
4.65 0.00244
4.7 0.0029
4.75 0.00274
4.8 0.00277
4.85 0.00252
4.9 0.00244
4.95 0.00218
5 0.00145
5.05 0.00093
5.1 0.00084
5.15 0.00048
5.2 0.00039
5.25 0.00071
5.3 0.00046
5.35 0.00015
5.4 0.00037
5.45 0.00077
5.5 0.00122
5.55 0.00107
5.6 0.00139
5.65 0.00109
5.7 0.00084
5.75 0.0011
5.8 0.0015
5.85 0.00195
5.9 0.00181
5.95 0.00211
6 0.00268
6.05 0.00338
6.1 0.00358
6.15 0.00312
6.2 0.00292
6.25 0.00303
6.3 0.0025
6.35 0.0022
6.4 0.00138
6.45 0.00042
6.5 0.00012
6.55 0.00009
6.6 -0.00021
6.65 -0.00008
6.7 0.00049
6.75 0.0005
6.8 0.00049
6.85 0.00041
6.9 -0.00008
6.95 -0.00057
7 -0.00111
7.05 -0.00117
7.1 -0.00062
7.15 -0.00041
7.2 0.00021
7.25 0.00066
7.3 0.0011
7.35 0.00108
7.4 0.00085
7.45 0.00109
7.5 0.00141
7.55 0.00189
7.6 0.00176
7.65 0.00205
7.7 0.00213
7.75 0.00227
7.8 0.00239
7.85 0.00225
7.9 0.00216
7.95 0.0021
8 0.00216
8.05 0.00202
8.1 0.00216
8.15 0.00208
8.2 0.0016
8.25 0.0015
8.3 0.00087
8.35 -0.00004
8.4 -0.0006
8.45 -0.0005
8.5 -0.00043
8.55 -0.00034
8.6 -0.00026
8.65 0.00015
8.7 0.00062
8.75 0.00098
8.8 0.00148
8.85 0.00133
8.9 0.00087
8.95 0.00094
9 0.00054
9.05 0.00053
9.1 0.00087
9.15 0.0005
9.2 0.00039
9.25 0.00027
9.3 0.00061
9.35 0.00077
9.4 0.00034
9.45 -0.00041
9.5 -0.00084
9.55 -0.00141
9.6 -0.0014
9.65 -0.00106
9.7 -0.00113
9.75 -0.00068
9.8 -0.00004
9.85 0.00044
9.9 0.00114
9.95 0.00187
10 0.00175
10.05 0.00144
10.1 0.0013
10.15 0.00106
10.2 0.00057
10.25 0.00015
10.3 -0.00059
10.35 -0.00139
10.4 -0.00214
10.45 -0.00202
10.5 -0.00213
10.55 -0.00168
10.6 -0.00172
10.65 -0.0012
10.7 -0.00031
10.75 0.00011
10.8 0.00011
10.85 0.00051
10.9 0.00115
10.95 0.00101
11 0.00053
11.05 0.00061
11.1 0.00039
11.15 -0.00026
11.2 -0.00025
11.25 -0.00062
11.3 -0.001
11.35 -0.0016
11.4 -0.00139
11.45 -0.00098
11.5 -0.00114
11.55 -0.00094
11.6 -0.00068
11.65 -0.00036
11.7 -0.0003
11.75 0.0002
11.8 0.00056
11.85 0.00047
11.9 0.0008
11.95 0.00132
12 0.00183
12.05 0.00221
12.1 0.00189
12.15 0.00146
12.2 0.00136
12.25 0.00129
12.3 0.00089
12.35 0.00058
12.4 0.00052
12.45 0.00091
12.5 0.00065
12.55 0.00087
12.6 0.00063
12.65 0.00082
12.7 0.00056
12.75 0.00013
12.8 -0.00022
12.85 -0.00048
12.9 -0.00074
12.95 -0.00051
13 -0.00043
13.05 -0.0002
13.1 -0.00019
13.15 0.00005
13.2 0.00041
13.25 0.00106
13.3 0.00174
13.35 0.00175
13.4 0.00152
13.45 0.00116
13.5 0.00121
13.55 0.0015
13.6 0.00112
13.65 0.00089
13.7 0.00091
13.75 0.00096
13.8 0.0004
13.85 0.00042
13.9 0.00076
13.95 0.00116
14 0.00175
14.05 0.00222
14.1 0.00272
14.15 0.00282
14.2 0.00303
14.25 0.00334
14.3 0.00301
14.35 0.00262
14.4 0.00187
14.45 0.00096
14.5 -0.00003
14.55 -0.00084
14.6 -0.00175
14.65 -0.00246
14.7 -0.00286
14.75 -0.00254
14.8 -0.0022
14.85 -0.00155
14.9 -0.0015
14.95 -0.00144
15 -0.00094
15.05 -0.00105
15.1 -0.00084
15.15 -0.00068
15.2 -0.00039
15.25 -0.0002
15.3 -0.00054
15.35 -0.00119
15.4 -0.00184
15.45 -0.00215
15.5 -0.00181
15.55 -0.00111
15.6 -0.00074
15.65 -0.0008
15.7 -0.00063
15.75 -0.0002
15.8 0.00011
15.85 -0.00013
15.9 -0.00012
15.95 -0.00031
16 -0.00034
16.05 -0.00013
16.1 0.00026
16.15 0.00053
16.2 0.00106
16.25 0.00081
16.3 0.00049
16.35 0.00005
16.4 -0.0001
16.45 -0.00071
16.5 -0.00061
16.55 -0.00101
16.6 -0.00078
16.65 -0.00012
16.7 0.00033
16.75 0.00079
16.8 0.0012
16.85 0.00159
16.9 0.0021
16.95 0.00201
17 0.00137
17.05 0.00092
17.1 0.00058
17.15 0.00013
17.2 -0.00061
17.25 -0.00117
17.3 -0.0019
17.35 -0.00219
17.4 -0.00254
17.45 -0.00291
17.5 -0.00318
17.55 -0.00331
17.6 -0.00296
17.65 -0.00285
17.7 -0.00274
17.75 -0.00267
17.8 -0.00209
17.85 -0.00205
17.9 -0.00169
17.95 -0.00138
18 -0.00126
18.05 -0.00124
18.1 -0.0007
18.15 -0.00032
18.2 0.0003
18.25 0.00109
18.3 0.00106
18.35 0.00045
18.4 0.00001
18.45 -0.00045
18.5 -0.00083
18.55 -0.00099
18.6 -0.00088
18.65 -0.00034
18.7 -0.00039
18.75 -0.00069
18.8 -0.00123
18.85 -0.001
18.9 -0.00046
18.95 0.00034
19 0.00123
19.05 0.00155
19.1 0.00173
19.15 0.00172
19.2 0.00117
19.25 0.00095
19.3 0.00122
19.35 0.00133
19.4 0.00168
19.45 0.00222
19.5 0.00225
19.55 0.00254
19.6 0.00201
19.65 0.00101
19.7 -0.00008
19.75 -0.00058
19.8 -0.00058
19.85 -0.00091
19.9 -0.00152
19.95 -0.00211
20 -0.00196
20.05 -0.00212
20.1 -0.00213
20.15 -0.00201
20.2 -0.00198
20.25 -0.00138
20.3 -0.00114
20.35 -0.00088
20.4 -0.00109
20.45 -0.00094
20.5 -0.0003
20.55 -0.00033
20.6 0.00012
20.65 0.00042
20.7 0.00029
20.75 0.00024
20.8 0.00066
20.85 0.0008
20.9 0.00098
20.95 0.00057
21 -0.00018
21.05 -0.00038
21.1 -0.00048
21.15 -0.00058
21.2 -0.00045
21.25 -0.00044
21.3 0.00006
21.35 -0.00005
21.4 0.00001
21.45 0.00017
21.5 -0.00005
21.55 0.00008
21.6 0.00028
21.65 0.00027
21.7 0.0005
21.75 0.00057
21.8 0.0008
21.85 0.0005
21.9 0.00048
21.95 0.00056
22 0.00078
22.05 0.00049
22.1 0.00053
22.15 0.00091
22.2 0.00066
22.25 0.00007
22.3 -0.00007
22.35 -0.00022
22.4 -0.00017
22.45 -0.00048
22.5 -0.00022
22.55 0.00038
22.6 0.00091
22.65 0.00143
22.7 0.00131
22.75 0.00136
22.8 0.001
22.85 0.00104
22.9 0.00066
22.95 -0.00006
23 -0.001
23.05 -0.00155
23.1 -0.00215
23.15 -0.00251
23.2 -0.0026
23.25 -0.00217
23.3 -0.00192
23.35 -0.00117
23.4 -0.00017
23.45 0.00006
23.5 -0.00008
23.55 -0.00032
23.6 -0.00044
23.65 -0.00076
23.7 -0.00087
23.75 -0.00064
23.8 -0.00051
23.85 -0.00072
23.9 -0.00047
23.95 0.00001
24 0.00031
24.05 0.00013
24.1 0.00003
24.15 0.00018
24.2 0.00053
24.25 0.00104
24.3 0.00168
24.35 0.00167
24.4 0.00119
24.45 0.00059
24.5 0.00041
24.55 -0.00005
24.6 -0.00012
24.65 -0.00004
24.7 0.00018
24.75 0.00018
24.8 0.00006
24.85 -0.00035
24.9 -0.00092
24.95 -0.00083
25 -0.00034
25.05 0.0004
25.1 0.00056
25.15 0.00059
25.2 0.00014
25.25 -0.00063
25.3 -0.00062
25.35 -0.00084
25.4 -0.00112
25.45 -0.00133
25.5 -0.00099
25.55 -0.00113
25.6 -0.00153
25.65 -0.00139
25.7 -0.00092
25.75 -0.00043
25.8 -0.00053
25.85 -0.00074
25.9 -0.0007
25.95 -0.00047
26 -0.0002
26.05 -0.00017
26.1 -0.00011
26.15 0.00026
26.2 0.00018
26.25 0.00021
26.3 0.00009
26.35 -0.00039
26.4 -0.0003
26.45 -0.00066
26.5 -0.00049
26.55 0.00002
26.6 0.00028
26.65 -0.00004
26.7 0.00005
26.75 0.00024
26.8 0.00055
26.85 0.00117
26.9 0.0016
26.95 0.00162
27 0.00143
27.05 0.00161
27.1 0.00132
27.15 0.00084
27.2 0.00047
27.25 -0.00003
27.3 -0.00042
27.35 -0.00107
27.4 -0.00136
27.45 -0.00155
27.5 -0.00189
27.55 -0.00172
27.6 -0.00194
27.65 -0.00221
27.7 -0.00221
27.75 -0.00179
27.8 -0.00151
27.85 -0.00089
27.9 -0.00064
27.95 -0.0002
28 -0.00009
28.05 -0.00046
28.1 -0.0005
28.15 -0.00089
28.2 -0.00102
28.25 -0.00141
28.3 -0.00152
28.35 -0.00163
28.4 -0.00179
28.45 -0.00209
28.5 -0.00181
28.55 -0.00158
28.6 -0.00126
28.65 -0.00138
28.7 -0.00115
28.75 -0.00046
28.8 0.0005
28.85 0.00073
28.9 0.00113
28.95 0.00124
29 0.00113
29.05 0.00122
29.1 0.00077
29.15 0.00071
29.2 0.00055
29.25 0.00069
29.3 0.00029
29.35 0.00011
29.4 0.00026
29.45 0.00069
29.5 0.00137
29.55 0.00124
29.6 0.00117
29.65 0.00129
29.7 0.00116
29.75 0.00129
29.8 0.00124
29.85 0.0008
29.9 0.00002
29.95 -0.00089
30 -0.00096
30.05 -0.00052
30.1 -0.00053
30.15 -0.0002
30.2 0.0003
30.25 0.00019
30.3 0.00051
30.35 0.00085
30.4 0.0011
30.45 0.00104
30.5 0.00133
30.55 0.00188
30.6 0.00235
30.65 0.0022
30.7 0.00193
30.75 0.00162
30.8 0.00096
30.85 0.0006
30.9 0.00052
30.95 0.00065
31 0.00097
31.05 0.00073
31.1 0.00079
31.15 0.0003
31.2 -0.00007
31.25 -0.00001
31.3 -0.00015
31.35 0.00017
31.4 0.0005
31.45 0.00045
31.5 0.00052
31.55 0.0002
31.6 0.00044
31.65 0.00083
31.7 0.00099
31.75 0.00051
31.8 0.00059
31.85 0.00091
31.9 0.00111
31.95 0.00087
32 0.00083
32.05 0.00044
32.1 -0.00009
32.15 -0.00068
32.2 -0.00126
32.25 -0.00185
32.3 -0.00211
32.35 -0.00216
32.4 -0.00187
32.45 -0.00123
32.5 -0.00027
32.55 0.00018
32.6 0.00036
32.65 0.00088
32.7 0.00117
32.75 0.00163
32.8 0.00163
32.85 0.00112
32.9 0.00049
32.95 0.00046
33 0.00031
33.05 -0.00028
33.1 -0.0002
33.15 -0.00029
33.2 -0.00005
33.25 0.00024
33.3 0.0007
33.35 0.00044
33.4 0.00031
33.45 0.00063
33.5 0.0008
33.55 0.00098
33.6 0.00049
33.65 -0.00017
33.7 -0.00058
33.75 -0.00087
33.8 -0.00125
33.85 -0.00141
33.9 -0.00161
33.95 -0.00209
34 -0.00191
34.05 -0.00187
34.1 -0.00183
34.15 -0.00157
34.2 -0.00094
34.25 -0.00063
34.3 -0.00082
34.35 -0.00114
34.4 -0.00157
34.45 -0.0017
34.5 -0.00187
34.55 -0.00231
34.6 -0.00271
34.65 -0.00262
34.7 -0.00273
34.75 -0.00228
34.8 -0.0021
34.85 -0.0014
34.9 -0.00104
34.95 -0.00099
35 -0.00096
35.05 -0.00048
35.1 0.0003
35.15 0.00053
35.2 0.00039
35.25 -0.00006
35.3 -0.00032
35.35 -0.00067
35.4 -0.00054
35.45 -0.00052
35.5 -0.00062
35.55 -0.00064
35.6 -0.00088
35.65 -0.00137
35.7 -0.00112
35.75 -0.00094
35.8 -0.00053
35.85 0.00002
35.9 0.00025
35.95 0.00045
36 0.00079
36.05 0.00089
36.1 0.00127
36.15 0.00123
36.2 0.00147
36.25 0.00193
36.3 0.00169
36.35 0.00133
36.4 0.00134
36.45 0.001
36.5 0.00033
36.55 0.00005
36.6 0.0003
36.65 0.00055
36.7 0.00027
36.75 0.00017
36.8 -0.0003
36.85 -0.00045
36.9 -0.00035
36.95 0.00008
37 0.00034
37.05 0.00012
37.1 0.00029
37.15 0.00048
37.2 0.00099
37.25 0.00123
37.3 0.00143
37.35 0.00108
37.4 0.0005
37.45 0.00004
37.5 0.00006
37.55 0.00053
37.6 0.00037
37.65 -0.00024
37.7 -0.00068
37.75 -0.00066
37.8 -0.00071
37.85 -0.00102
37.9 -0.00122
37.95 -0.00122
38 -0.00134
38.05 -0.00133
38.1 -0.00075
38.15 -0.00031
38.2 0.00015
38.25 0.0002
38.3 0.00017
38.35 -0.00028
38.4 -0.00076
38.45 -0.0008
38.5 -0.00074
38.55 -0.00111
38.6 -0.0008
38.65 -0.00078
38.7 -0.00086
38.75 -0.00122
38.8 -0.00152
38.85 -0.00144
38.9 -0.00112
38.95 -0.00064
39 -0.00067
39.05 -0.00044
39.1 0.00013
39.15 0.00017
39.2 0.0001
39.25 0.00007
39.3 -0.00028
39.35 -0.00018
39.4 0.00022
39.45 0.00044
39.5 0.00077
39.55 0.00092
39.6 0.00118
39.65 0.00138
39.7 0.00116
39.75 0.00117
39.8 0.00059
39.85 0.00009
39.9 -0.00016
39.95 -0.00048
40 -0.00032
40.05 0.00015
40.1 0.00048
40.15 0.00105
40.2 0.00095
40.25 0.00105
40.3 0.00057
40.35 0.00052
40.4 0.00038
40.45 -0.00018
40.5 -0.00012
40.55 0.00022
40.6 0.00087
40.65 0.00128
40.7 0.00151
40.75 0.00177
40.8 0.00205
40.85 0.00218
40.9 0.00209
40.95 0.00192
41 0.00138
41.05 0.00124
41.1 0.00067
41.15 0.00051
41.2 0.00042
41.25 0.00014
41.3 -0.00053
41.35 -0.00139
41.4 -0.00138
41.45 -0.0009
41.5 -0.00048
41.55 -0.00055
41.6 -0.00031
41.65 -0.00058
41.7 -0.00106
41.75 -0.00124
41.8 -0.00159
41.85 -0.00152
41.9 -0.00131
41.95 -0.00117
42 -0.00145
42.05 -0.00116
42.1 -0.00039
42.15 0.0003
42.2 0.00093
42.25 0.00141
42.3 0.00194
42.35 0.00207
42.4 0.00209
42.45 0.00197
42.5 0.00219
42.55 0.002
42.6 0.00153
42.65 0.00101
42.7 0.00054
42.75 -0.00001
42.8 -0.00009
42.85 -0.00024
42.9 0.00012
42.95 -0.00011
43 -0.00013
43.05 0.00015
43.1 0.00067
43.15 0.00096
43.2 0.00149
43.25 0.00158
43.3 0.00105
43.35 0.00016
43.4 -0.00057
43.45 -0.00141
43.5 -0.00158
43.55 -0.00168
43.6 -0.00135
43.65 -0.00073
43.7 -0.00031
43.75 0.00024
43.8 0.0008
43.85 0.00107
43.9 0.00122
43.95 0.00087
44 0.00013
44.05 -0.00006
44.1 0.0002
44.15 -0.00008
44.2 0.00013
44.25 0.00065
44.3 0.0012
44.35 0.0019
44.4 0.00241
44.45 0.00278
44.5 0.00275
44.55 0.00279
44.6 0.0024
44.65 0.0023
44.7 0.00155
44.75 0.00057
44.8 -0.0004
44.85 -0.001
44.9 -0.00098
44.95 -0.00073
45 -0.00054
45.05 -0.00085
45.1 -0.00131
45.15 -0.00178
45.2 -0.00189
45.25 -0.00137
45.3 -0.00056
45.35 0.0003
45.4 0.00085
45.45 0.00115
45.5 0.00098
45.55 0.00096
45.6 0.00101
45.65 0.00115
45.7 0.00136
45.75 0.00114
45.8 0.00116
45.85 0.00083
45.9 0.00044
45.95 -0.00003
46 -0.00051
46.05 -0.0008
46.1 -0.00095
46.15 -0.00113
46.2 -0.00098
46.25 -0.00042
46.3 0.00036
46.35 0.00112
46.4 0.00166
46.45 0.00204
46.5 0.00234
46.55 0.00232
46.6 0.0019
46.65 0.00189
46.7 0.00156
46.75 0.00136
46.8 0.00088
46.85 0.00028
46.9 0.00011
46.95 -0.00033
47 -0.00061
47.05 -0.00091
47.1 -0.00089
47.15 -0.00125
47.2 -0.00141
47.25 -0.00111
47.3 -0.00083
47.35 -0.00088
47.4 -0.00133
47.45 -0.00128
47.5 -0.00087
47.55 -0.00026
47.6 -0.00016
47.65 -0.00038
47.7 -0.00017
47.75 0.00026
47.8 0.00011
47.85 -0.00001
47.9 -0.00054
47.95 -0.00096
48 -0.00133
48.05 -0.00194
48.1 -0.00198
48.15 -0.00225
48.2 -0.00247
48.25 -0.00283
48.3 -0.00273
48.35 -0.00239
48.4 -0.00175
48.45 -0.0009
48.5 -0.00064
48.55 -0.00037
48.6 -0.00067
48.65 -0.00036
48.7 -0.00056
48.75 -0.00107
48.8 -0.00157
48.85 -0.00145
48.9 -0.00127
48.95 -0.00128
49 -0.00137
49.05 -0.00085
49.1 -0.0009
49.15 -0.00052
49.2 -0.00045
49.25 -0.00007
49.3 0.00023
49.35 0.00035
49.4 0.00042
49.45 0.00017
49.5 -0.0001
49.55 0.00015
49.6 0.00075
49.65 0.00133
49.7 0.00175
49.75 0.00187
49.8 0.00186
49.85 0.00174
49.9 0.00189
49.95 0.00188
50 0.00188
50.05 0.00175
50.1 0.00107
50.15 0.00046
50.2 0.00018
50.25 -0.00015
50.3 -0.00058
50.35 -0.00057
50.4 -0.00031
50.45 -0.0002
50.5 0.00029
50.55 0.0005
50.6 0.00047
50.65 0.00032
50.7 0.00002
50.75 -0.00027
50.8 -0.0004
50.85 -0.00001
50.9 0.00064
50.95 0.00063
51 0.00028
51.05 0.00018
51.1 -0.00035
51.15 -0.00035
51.2 -0.00069
51.25 -0.00138
51.3 -0.00201
51.35 -0.00228
51.4 -0.0024
51.45 -0.00251
51.5 -0.00278
51.55 -0.00272
51.6 -0.00259
51.65 -0.00245
51.7 -0.00221
51.75 -0.00189
51.8 -0.00192
51.85 -0.00151
51.9 -0.00129
51.95 -0.00089
52 -0.00032
52.05 0.0005
52.1 0.00105
52.15 0.00129
52.2 0.00106
52.25 0.00068
52.3 0.00081
52.35 0.00034
52.4 -0.00028
52.45 -0.00039
52.5 -0.00083
52.55 -0.00131
52.6 -0.00177
52.65 -0.0022
52.7 -0.00211
52.75 -0.00164
52.8 -0.0009
52.85 -0.00018
52.9 0.00006
52.95 -0.0001
53 -0.0003
53.05 -0.00052
53.1 -0.0005
53.15 -0.00025
53.2 -0.00035
53.25 -0.00044
53.3 -0.00062
53.35 -0.00035
53.4 -0.00007
53.45 -0.00005
53.5 -0.00031
53.55 -0.00009
53.6 0.00045
53.65 0.00071
53.7 0.0012
53.75 0.00168
53.8 0.0023
53.85 0.00237
53.9 0.00192
53.95 0.00138
54 0.00124
54.05 0.00117
54.1 0.00129
54.15 0.00094
54.2 0.00074
54.25 0.00057
54.3 0.00051
54.35 0.00006
54.4 -0.00019
54.45 -0.00013
54.5 -0.00039
54.55 -0.00036
54.6 -0.00027
54.65 -0.00001
54.7 0.00046
54.75 0.00074
54.8 0.00097
54.85 0.00095
54.9 0.00046
54.95 0.00007
55 -0.0006
55.05 -0.00063
55.1 -0.00025
55.15 0.00008
55.2 0.0006
55.25 0.00038
55.3 0.00045
55.35 0.00078
55.4 0.00077
55.45 0.00019
55.5 0.00016
55.55 -0.00023
55.6 -0.00096
55.65 -0.00171
55.7 -0.00231
55.75 -0.00296
55.8 -0.00342
55.85 -0.00302
55.9 -0.0023
55.95 -0.00157
56 -0.00066
56.05 -0.00011
56.1 -0.00001
56.15 -0.00034
56.2 -0.00087
56.25 -0.00093
56.3 -0.00109
56.35 -0.00103
56.4 -0.00109
56.45 -0.00092
56.5 -0.00096
56.55 -0.00111
56.6 -0.00073
56.65 -0.00059
56.7 -0.00038
56.75 0.00012
56.8 0.00088
56.85 0.00122
56.9 0.00139
56.95 0.00187
57 0.00203
57.05 0.00245
57.1 0.00278
57.15 0.00234
57.2 0.00145
57.25 0.00118
57.3 0.00103
57.35 0.00105
57.4 0.00112
57.45 0.00084
57.5 0.00034
57.55 -0.00047
57.6 -0.00076
57.65 -0.00117
57.7 -0.00106
57.75 -0.00061
57.8 0.00011
57.85 0.00049
57.9 0.00083
57.95 0.00082
58 0.00055
58.05 -0.00008
58.1 -0.00117
58.15 -0.00178
58.2 -0.00227
58.25 -0.00274
58.3 -0.00368
58.35 -0.00496
58.4 -0.00605
58.45 -0.00723
58.5 -0.00913
58.55 -0.0115
58.6 -0.0138
58.65 -0.01578
58.7 -0.01808
58.75 -0.02036
58.8 -0.02358
58.85 -0.0272
58.9 -0.03157
58.95 -0.03621
59 -0.04144
59.05 -0.04696
59.1 -0.05368
59.15 -0.06097
59.2 -0.06864
59.25 -0.07675
59.3 -0.08524
59.35 -0.09462
59.4 -0.1039
59.45 -0.11381
59.5 -0.12365
59.55 -0.13363
59.6 -0.14364
59.65 -0.1546
59.7 -0.16587
59.75 -0.17714
59.8 -0.18827
59.85 -0.19861
59.9 -0.20779
59.95 -0.2157
60 -0.22312
60.05 -0.2297
60.1 -0.23539
60.15 -0.23937
60.2 -0.24268
60.25 -0.2447
60.3 -0.24488
60.35 -0.2437
60.4 -0.24122
60.45 -0.2379
60.5 -0.23327
60.55 -0.22822
60.6 -0.22205
60.65 -0.2149
60.7 -0.20702
60.75 -0.19882
60.8 -0.19029
60.85 -0.18097
60.9 -0.17165
60.95 -0.16203
61 -0.15226
61.05 -0.14212
61.1 -0.132
61.15 -0.12243
61.2 -0.11299
61.25 -0.10313
61.3 -0.09343
61.35 -0.08304
61.4 -0.07206
61.45 -0.06103
61.5 -0.04998
61.55 -0.03792
61.6 -0.025
61.65 -0.01145
61.7 0.00262
61.75 0.01671
61.8 0.03086
61.85 0.04522
61.9 0.06059
61.95 0.07638
62 0.09245
62.05 0.10858
62.1 0.12481
62.15 0.14106
62.2 0.15653
62.25 0.17132
62.3 0.18563
62.35 0.19954
62.4 0.21304
62.45 0.22549
62.5 0.23672
62.55 0.24697
62.6 0.25603
62.65 0.26356
62.7 0.26992
62.75 0.27485
62.8 0.27901
62.85 0.28199
62.9 0.28406
62.95 0.28504
63 0.28493
63.05 0.28351
63.1 0.28087
63.15 0.27734
63.2 0.2735
63.25 0.26878
63.3 0.26346
63.35 0.2576
63.4 0.25094
63.45 0.24373
63.5 0.23699
63.55 0.23
63.6 0.22331
63.65 0.21671
63.7 0.20976
63.75 0.20256
63.8 0.19476
63.85 0.18648
63.9 0.17828
63.95 0.17034
64 0.1629
64.05 0.15544
64.1 0.14827
64.15 0.14153
64.2 0.13535
64.25 0.12929
64.3 0.1238
64.35 0.11861
64.4 0.11363
64.45 0.10873
64.5 0.10329
64.55 0.09837
64.6 0.09322
64.65 0.08794
64.7 0.08251
64.75 0.07748
64.8 0.07303
64.85 0.0693
64.9 0.0659
64.95 0.06193
65 0.05852
65.05 0.05465
65.1 0.05057
65.15 0.04681
65.2 0.04385
65.25 0.04056
65.3 0.03742
65.35 0.03451
65.4 0.03216
65.45 0.02958
65.5 0.02699
65.55 0.02409
65.6 0.02171
65.65 0.01916
65.7 0.01645
65.75 0.0138
65.8 0.01189
65.85 0.01014
65.9 0.00854
65.95 0.0068
66 0.00498
66.05 0.00279
66.1 0.00082
66.15 -0.0016
66.2 -0.0041
66.25 -0.00635
66.3 -0.00779
66.35 -0.00885
66.4 -0.01049
66.45 -0.01218
66.5 -0.01343
66.55 -0.01438
66.6 -0.01563
66.65 -0.01684
66.7 -0.01816
66.75 -0.01916
66.8 -0.02063
66.85 -0.02195
66.9 -0.02351
66.95 -0.02519
67 -0.02667
67.05 -0.02816
67.1 -0.02939
67.15 -0.03023
67.2 -0.03074
67.25 -0.03066
67.3 -0.0311
67.35 -0.03152
67.4 -0.03146
67.45 -0.0312
67.5 -0.03155
67.55 -0.03156
67.6 -0.03137
67.65 -0.03159
67.7 -0.03201
67.75 -0.03288
67.8 -0.03384
67.85 -0.03494
67.9 -0.03529
67.95 -0.03551
68 -0.03523
68.05 -0.03485
68.1 -0.03443
68.15 -0.03469
68.2 -0.03511
68.25 -0.03498
68.3 -0.03466
68.35 -0.03475
68.4 -0.03474
68.45 -0.03419
68.5 -0.0336
68.55 -0.03343
68.6 -0.03283
68.65 -0.03277
68.7 -0.03295
68.75 -0.03351
68.8 -0.03344
68.85 -0.03344
68.9 -0.03311
68.95 -0.03259
69 -0.03182
69.05 -0.03133
69.1 -0.03114
69.15 -0.03047
69.2 -0.02989
69.25 -0.02945
69.3 -0.02875
69.35 -0.0279
69.4 -0.02749
69.45 -0.02758
69.5 -0.02798
69.55 -0.0278
69.6 -0.02767
69.65 -0.02757
69.7 -0.02736
69.75 -0.02707
69.8 -0.02656
69.85 -0.0257
69.9 -0.02543
69.95 -0.02518
70 -0.02521
70.05 -0.02465
70.1 -0.02418
70.15 -0.02329
70.2 -0.02268
70.25 -0.02185
70.3 -0.02096
70.35 -0.02087
70.4 -0.02065
70.45 -0.02038
70.5 -0.02073
70.55 -0.02081
70.6 -0.02122
70.65 -0.02113
70.7 -0.02058
70.75 -0.01967
70.8 -0.01864
70.85 -0.01792
70.9 -0.01721
70.95 -0.01716
71 -0.01711
71.05 -0.01716
71.1 -0.01749
71.15 -0.0172
71.2 -0.01734
71.25 -0.01746
71.3 -0.01756
71.35 -0.01707
71.4 -0.0162
71.45 -0.01574
71.5 -0.01527
71.55 -0.01537
71.6 -0.01545
71.65 -0.01591
71.7 -0.01622
71.75 -0.01619
71.8 -0.0163
71.85 -0.01648
71.9 -0.01617
71.95 -0.01614
72 -0.01578
72.05 -0.01491
72.1 -0.01369
72.15 -0.01328
72.2 -0.01277
72.25 -0.01277
72.3 -0.01278
72.35 -0.01297
72.4 -0.01334
72.45 -0.01341
72.5 -0.01341
72.55 -0.01307
72.6 -0.01316
72.65 -0.01313
72.7 -0.01309
72.75 -0.01263
72.8 -0.01199
72.85 -0.01109
72.9 -0.01001
72.95 -0.00911
73 -0.00821
73.05 -0.00775
73.1 -0.0072
73.15 -0.00682
73.2 -0.0072
73.25 -0.00788
73.3 -0.00869
73.35 -0.00931
73.4 -0.00977
73.45 -0.01029
73.5 -0.0106
73.55 -0.01009
73.6 -0.00968
73.65 -0.00925
73.7 -0.00923
73.75 -0.00942
73.8 -0.0096
73.85 -0.00996
73.9 -0.00991
73.95 -0.00944
74 -0.0085
74.05 -0.00728
74.1 -0.00603
74.15 -0.00558
74.2 -0.00492
74.25 -0.00416
74.3 -0.00395
74.35 -0.00444
74.4 -0.00451
74.45 -0.00464
74.5 -0.00455
74.55 -0.00478
74.6 -0.00467
74.65 -0.005
74.7 -0.00535
74.75 -0.00547
74.8 -0.00535
74.85 -0.00539
74.9 -0.00507
74.95 -0.0053
75 -0.00498
75.05 -0.00522
75.1 -0.00554
75.15 -0.00577
75.2 -0.00581
75.25 -0.00532
75.3 -0.0046
75.35 -0.00392
75.4 -0.00347
75.45 -0.00368
75.5 -0.0034
75.55 -0.00309
75.6 -0.00273
75.65 -0.00246
75.7 -0.00201
75.75 -0.00161
75.8 -0.00178
75.85 -0.0018
75.9 -0.00187
75.95 -0.00243
76 -0.00274
76.05 -0.00301
76.1 -0.00286
76.15 -0.00314
76.2 -0.00303
76.25 -0.00285
76.3 -0.00276
76.35 -0.00296
76.4 -0.00365
76.45 -0.00419
76.5 -0.00448
76.55 -0.00502
76.6 -0.00517
76.65 -0.00488
76.7 -0.00428
76.75 -0.00421
76.8 -0.00365
76.85 -0.00337
76.9 -0.00341
76.95 -0.00342
77 -0.00343
77.05 -0.00292
77.1 -0.00212
77.15 -0.00181
77.2 -0.00188
77.25 -0.00168
77.3 -0.00145
77.35 -0.00125
77.4 -0.00079
77.45 -0.00043
77.5 -0.00009
77.55 -0.00052
77.6 -0.00099
77.65 -0.00194
77.7 -0.00268
77.75 -0.00319
77.8 -0.00386
77.85 -0.00454
77.9 -0.00432
77.95 -0.00418
78 -0.00413
78.05 -0.00442
78.1 -0.00476
78.15 -0.0052
78.2 -0.00501
78.25 -0.00425
78.3 -0.00325
78.35 -0.00256
78.4 -0.00205
78.45 -0.00154
78.5 -0.00104
78.55 -0.0009
78.6 -0.00084
78.65 -0.00137
78.7 -0.0017
78.75 -0.00165
78.8 -0.00206
78.85 -0.00195
78.9 -0.00184
78.95 -0.00183
79 -0.00151
79.05 -0.00165
79.1 -0.00215
79.15 -0.00196
79.2 -0.002
79.25 -0.00158
79.3 -0.00162
79.35 -0.00123
79.4 -0.00124
79.45 -0.00121
79.5 -0.00073
79.55 -0.0009
79.6 -0.00136
79.65 -0.00176
79.7 -0.00225
79.75 -0.00271
79.8 -0.00329
79.85 -0.00387
79.9 -0.00379
79.95 -0.00365
80 -0.00318
80.05 -0.00274
80.1 -0.00186
80.15 -0.00118
80.2 -0.00034
80.25 0.00012
80.3 0.00008
80.35 0.00027
80.4 -0.00003
80.45 -0.00035
80.5 -0.00106
80.55 -0.00125
80.6 -0.00121
80.65 -0.00138
80.7 -0.00188
80.75 -0.00189
80.8 -0.0014
80.85 -0.00065
80.9 -0.00021
80.95 0.00014
81 0.00062
81.05 0.00033
81.1 0.00027
81.15 -0.00004
81.2 0.00001
81.25 -0.00001
81.3 0.00017
81.35 0.00004
81.4 -0.00014
81.45 -0.00015
81.5 -0.00001
81.55 -0.0001
81.6 -0.00053
81.65 -0.00073
81.7 -0.00085
81.75 -0.00124
81.8 -0.0019
81.85 -0.00201
81.9 -0.00225
81.95 -0.00181
82 -0.00108
82.05 -0.00035
82.1 0.00051
82.15 0.00065
82.2 0.00074
82.25 0.00098
82.3 0.00057
82.35 0.00032
82.4 -0.00003
82.45 -0.00057
82.5 -0.0005
82.55 -0.00046
82.6 -0.00021
82.65 -0.0003
82.7 -0.00009
82.75 0.00008
82.8 0.00054
82.85 0.00052
82.9 0.00043
82.95 0.00072
83 0.00083
83.05 0.00119
83.1 0.0016
83.15 0.00213
83.2 0.00211
83.25 0.0022
83.3 0.00165
83.35 0.00142
83.4 0.0009
83.45 0.00085
83.5 0.00053
83.55 0.00025
83.6 0.00005
83.65 0.00019
83.7 0.00038
83.75 0.00011
83.8 0.00013
83.85 0.00041
83.9 0.00069
83.95 0.00048
84 0.00057
84.05 0.00019
84.1 -0.00002
84.15 -0.00055
84.2 -0.00111
84.25 -0.00168
84.3 -0.00227
84.35 -0.00293
84.4 -0.00301
84.45 -0.00287
84.5 -0.00256
84.55 -0.00225
84.6 -0.0023
84.65 -0.00185
84.7 -0.00177
84.75 -0.00193
84.8 -0.00202
84.85 -0.00161
84.9 -0.00104
84.95 -0.00023
85 0.00008
85.05 0.0005
85.1 0.00088
85.15 0.00062
85.2 0.00069
85.25 0.00076
85.3 0.00102
85.35 0.00112
85.4 0.00141
85.45 0.00109
85.5 0.00085
85.55 0.00086
85.6 0.00063
85.65 0.00041
85.7 0.00038
85.75 -0.00014
85.8 -0.00071
85.85 -0.00143
85.9 -0.00197
85.95 -0.0021
86 -0.00243
86.05 -0.00272
86.1 -0.00235
86.15 -0.00159
86.2 -0.00087
86.25 -0.00014
86.3 -0.00004
86.35 -0.00005
86.4 0.00026
86.45 0.00012
86.5 -0.00027
86.55 -0.00054
86.6 -0.00057
86.65 -0.0003
86.7 -0.00035
86.75 -0.00081
86.8 -0.0015
86.85 -0.00179
86.9 -0.00214
86.95 -0.00193
87 -0.00174
87.05 -0.00163
87.1 -0.00157
87.15 -0.00141
87.2 -0.00138
87.25 -0.0014
87.3 -0.00091
87.35 -0.0002
87.4 0.00018
87.45 0.00039
87.5 0.00029
87.55 0.00058
87.6 0.00084
87.65 0.00097
87.7 0.00104
87.75 0.00143
87.8 0.0019
87.85 0.00174
87.9 0.0012
87.95 0.001
88 0.00092
88.05 0.0003
88.1 -0.00046
88.15 -0.0012
88.2 -0.00119
88.25 -0.00138
88.3 -0.00188
88.35 -0.00194
88.4 -0.00155
88.45 -0.0016
88.5 -0.00136
88.55 -0.00157
88.6 -0.002
88.65 -0.00192
88.7 -0.00219
88.75 -0.00226
88.8 -0.00191
88.85 -0.0019
88.9 -0.00167
88.95 -0.00094
89 -0.00004
89.05 0.00089
89.1 0.00154
89.15 0.00147
89.2 0.00156
89.25 0.00113
89.3 0.00026
89.35 -0.00001
89.4 0.00002
89.45 0.00015
89.5 0.00051
89.55 0.00111
89.6 0.00105
89.65 0.00089
89.7 0.00024
89.75 -0.00005
89.8 -0.00063
89.85 -0.0012
89.9 -0.00104
89.95 -0.00044
90 -0.00048
90.05 -0.00087
90.1 -0.00069
90.15 -0.00083
90.2 -0.00117
90.25 -0.00089
90.3 -0.00074
90.35 -0.0008
90.4 -0.00125
90.45 -0.00191
90.5 -0.00194
90.55 -0.00163
90.6 -0.00161
90.65 -0.00165
90.7 -0.00109
90.75 -0.00029
90.8 -0.00005
90.85 0.0003
90.9 0.0002
90.95 0.00006
91 0.00007
91.05 -0.00003
91.1 -0.00023
91.15 -0.00062
91.2 -0.00084
91.25 -0.0006
91.3 -0.00082
91.35 -0.00065
91.4 -0.00002
91.45 0.00007
91.5 0.00022
91.55 0.00028
91.6 -0.00008
91.65 -0.00019
91.7 -0.00026
91.75 -0.00061
91.8 -0.00069
91.85 -0.00083
91.9 -0.00132
91.95 -0.00118
92 -0.00131
92.05 -0.00142
92.1 -0.00112
92.15 -0.00129
92.2 -0.00124
92.25 -0.00108
92.3 -0.00117
92.35 -0.00091
92.4 -0.00093
92.45 -0.00129
92.5 -0.00113
92.55 -0.00068
92.6 0.00003
92.65 0.00091
92.7 0.00178
92.75 0.0019
92.8 0.00141
92.85 0.00097
92.9 0.00062
92.95 0.00035
93 0.00052
93.05 0.00012
93.1 0.00027
93.15 0.00067
93.2 0.00066
93.25 0.00088
93.3 0.00097
93.35 0.00084
93.4 0.00092
93.45 0.0008
93.5 0.00017
93.55 -0.00049
93.6 -0.00066
93.65 -0.00065
93.7 -0.00036
93.75 -0.00029
93.8 0.00024
93.85 0.00091
93.9 0.00172
93.95 0.00164
94 0.00195
94.05 0.0015
94.1 0.00135
94.15 0.00132
94.2 0.00105
94.25 0.00076
94.3 0.00054
94.35 0.00067
94.4 0.00091
94.45 0.00103
94.5 0.00119
94.55 0.00083
94.6 0.00071
94.65 0.00047
94.7 0.00076
94.75 0.0008
94.8 0.0004
94.85 -0.00024
94.9 -0.00022
94.95 0.00005
95 0.00064
95.05 0.0006
95.1 0.00048
95.15 0.00072
95.2 0.0006
95.25 0.00008
95.3 -0.00012
95.35 0.00006
95.4 -0.00028
95.45 -0.00002
95.5 -0.00035
95.55 -0.00076
95.6 -0.00082
95.65 -0.00125
95.7 -0.0019
95.75 -0.00185
95.8 -0.00159
95.85 -0.00112
95.9 -0.00075
95.95 -0.00013
96 0.00029
96.05 0.00054
96.1 0.00091
96.15 0.00087
96.2 0.00052
96.25 0.00044
96.3 0.00035
96.35 0.00062
96.4 0.00029
96.45 -0.00023
96.5 -0.00052
96.55 -0.00057
96.6 -0.00095
96.65 -0.00133
96.7 -0.001
96.75 -0.00097
96.8 -0.00081
96.85 -0.00026
96.9 0.00017
96.95 0.00025
97 0.00075
97.05 0.00096
97.1 0.0007
97.15 0.00071
97.2 0.00028
97.25 -0.00001
97.3 -0.00007
97.35 0.00029
97.4 0.00068
97.45 0.00117
97.5 0.00102
97.55 0.00067
97.6 0.0001
97.65 -0.00074
97.7 -0.00126
97.75 -0.0015
97.8 -0.00132
97.85 -0.00143
97.9 -0.00092
97.95 -0.00079
98 -0.00048
98.05 0.00023
98.1 0.00027
98.15 -0.00015
98.2 -0.00054
98.25 -0.00109
98.3 -0.00148
98.35 -0.00191
98.4 -0.00164
98.45 -0.00115
98.5 -0.00038
98.55 0.00032
98.6 0.00058
98.65 0.00096
98.7 0.00107
98.75 0.00123
98.8 0.00126
98.85 0.00159
98.9 0.00179
98.95 0.00209
99 0.00173
99.05 0.00149
99.1 0.00124
99.15 0.00105
99.2 0.00126
99.25 0.00102
99.3 0.00033
99.35 0.00021
99.4 -0.00004
99.45 0.00002
99.5 0.00016
99.55 0.00046
99.6 0.00101
99.65 0.00089
99.7 0.00096
99.75 0.00107
99.8 0.00079
99.85 0.00026
99.9 0.00012
99.95 -0.00007
