0 0
0.05 0.00001
0.1 0.00004
0.15 0.00009
0.2 0.00014
0.25 0.00017
0.3 0.00019
0.35 0.00022
0.4 0.00024
0.45 0.00023
0.5 0.00023
0.55 0.00023
0.6 0.00023
0.65 0.00024
0.7 0.00022
0.75 0.00019
0.8 0.00015
0.85 0.00016
0.9 0.00017
0.95 0.00017
1 0.00019
1.05 0.00022
1.1 0.00025
1.15 0.00028
1.2 0.00031
1.25 0.0003
1.3 0.00028
1.35 0.00027
1.4 0.00025
1.45 0.00021
1.5 0.00019
1.55 0.00016
1.6 0.00014
1.65 0.00014
1.7 0.00015
1.75 0.00018
1.8 0.0002
1.85 0.00022
1.9 0.00024
1.95 0.00024
2 0.00022
2.05 0.0002
2.1 0.00019
2.15 0.00017
2.2 0.00014
2.25 0.00012
2.3 0.00012
2.35 0.00011
2.4 0.0001
2.45 0.00012
2.5 0.00014
2.55 0.00013
2.6 0.00013
2.65 0.00014
2.7 0.00013
2.75 0.00012
2.8 0.00009
2.85 0.0001
2.9 0.00012
2.95 0.00014
3 0.00017
3.05 0.00017
3.1 0.00015
3.15 0.00014
3.2 0.00014
3.25 0.00015
3.3 0.00017
3.35 0.00017
3.4 0.00018
3.45 0.00017
3.5 0.00017
3.55 0.00016
3.6 0.00013
3.65 0.00009
3.7 0.00005
3.75 0.00002
3.8 -0
3.85 0.00002
3.9 0.00004
3.95 0.00008
4 0.00011
4.05 0.00015
4.1 0.00015
4.15 0.00014
4.2 0.00014
4.25 0.00012
4.3 0.00012
4.35 0.00011
4.4 0.00007
4.45 0.00006
4.5 0.00005
4.55 0.00005
4.6 0.00005
4.65 0.00007
4.7 0.00007
4.75 0.00008
4.8 0.00008
4.85 0.00008
4.9 0.00008
4.95 0.00008
5 0.00006
5.05 0.00003
5.1 0.00001
5.15 0.00001
5.2 0.00002
5.25 0.00002
5.3 0.00002
5.35 0.00001
5.4 0.00001
5.45 0.00001
5.5 0.00003
5.55 0.00005
5.6 0.00006
5.65 0.00006
5.7 0.00004
5.75 0.00002
5.8 0.00002
5.85 0.00001
5.9 0
5.95 -0.00002
6 -0.00005
6.05 -0.00003
6.1 -0.00003
6.15 -0.00002
6.2 0.00001
6.25 0.00004
6.3 0.00007
6.35 0.00009
6.4 0.0001
6.45 0.00012
6.5 0.00011
6.55 0.00007
6.6 0.00004
6.65 0.00004
6.7 0.00003
6.75 0
6.8 0
6.85 0.00003
6.9 0.00006
6.95 0.00007
7 0.00007
7.05 0.00008
7.1 0.00011
7.15 0.00011
7.2 0.00012
7.25 0.00012
7.3 0.0001
7.35 0.00011
7.4 0.00009
7.45 0.00005
7.5 0.00003
7.55 0.00001
7.6 0.00002
7.65 0.00001
7.7 0.00003
7.75 0.00005
7.8 0.00007
7.85 0.00007
7.9 0.00009
7.95 0.00009
8 0.00006
8.05 0.00002
8.1 -0.00001
8.15 -0.00005
8.2 -0.00007
8.25 -0.00009
8.3 -0.00011
8.35 -0.00013
8.4 -0.00012
8.45 -0.00011
8.5 -0.00008
8.55 -0.00006
8.6 -0.00002
8.65 0.00003
8.7 0.00004
8.75 0.00002
8.8 0.00003
8.85 0.00003
8.9 0.00002
8.95 0.00001
9 0.00001
9.05 0.00002
9.1 0.00005
9.15 0.00007
9.2 0.00008
9.25 0.00008
9.3 0.00007
9.35 0.00004
9.4 0.00004
9.45 0.00004
9.5 0.00005
9.55 0.00003
9.6 0.00002
9.65 -0.00001
9.7 -0.00004
9.75 -0.00007
9.8 -0.00009
9.85 -0.0001
9.9 -0.0001
9.95 -0.0001
10 -0.00009
10.05 -0.00008
10.1 -0.00006
10.15 -0.00003
10.2 -0.00002
10.25 -0.00001
10.3 0.00001
10.35 0.00002
10.4 0.00002
10.45 0.00003
10.5 0.00002
10.55 0.00001
10.6 0
10.65 -0.00002
10.7 -0.00003
10.75 -0.00003
10.8 -0.00003
10.85 -0.00003
10.9 -0.00004
10.95 -0.00003
11 0.00001
11.05 0.00001
11.1 -0.00001
11.15 -0.00001
11.2 0.00002
11.25 0.00001
11.3 0.00002
11.35 0.00001
11.4 0.00001
11.45 0.00003
11.5 0.00005
11.55 0.00007
11.6 0.00007
11.65 0.00006
11.7 0.00005
11.75 0.00004
11.8 0.00002
11.85 0.00001
11.9 -0.00002
11.95 -0.00004
12 -0.00005
12.05 -0.00004
12.1 -0.00003
12.15 -0.00001
12.2 -0
12.25 -0.00001
12.3 -0.00003
12.35 -0.00005
12.4 -0.00008
12.45 -0.00008
12.5 -0.00009
12.55 -0.00008
12.6 -0.00007
12.65 -0.00007
12.7 -0.00006
12.75 -0.00006
12.8 -0.00005
12.85 -0.00004
12.9 -0.00004
12.95 -0.00006
13 -0.00008
13.05 -0.00007
13.1 -0.00006
13.15 -0.00005
13.2 -0.00005
13.25 -0.00006
13.3 -0.00007
13.35 -0.00007
13.4 -0.00006
13.45 -0.00006
13.5 -0.00003
13.55 -0.00003
13.6 -0.00001
13.65 -0.00001
13.7 0.00001
13.75 0.00002
13.8 0.00002
13.85 0.00001
13.9 -0
13.95 0.00001
14 0
14.05 -0
14.1 0
14.15 0.00001
14.2 0.00001
14.25 0
14.3 -0
14.35 0.00001
14.4 0.00001
14.45 0
14.5 0
14.55 0.00001
14.6 0.00003
14.65 0.00003
14.7 0.00004
14.75 0.00006
14.8 0.00008
14.85 0.0001
14.9 0.00009
14.95 0.00008
15 0.00006
15.05 0.00006
15.1 0.00006
15.15 0.00005
15.2 0.00006
15.25 0.00005
15.3 0.00006
15.35 0.00005
15.4 0.00005
15.45 0.00006
15.5 0.00008
15.55 0.00009
15.6 0.00009
15.65 0.00008
15.7 0.00008
15.75 0.00006
15.8 0.00003
15.85 -0.00001
15.9 -0.00006
15.95 -0.0001
16 -0.00013
16.05 -0.00014
16.1 -0.00012
16.15 -0.00011
16.2 -0.00012
16.25 -0.00012
16.3 -0.0001
16.35 -0.0001
16.4 -0.00007
16.45 -0.00006
16.5 -0.00005
16.55 -0.00004
16.6 -0.00002
16.65 -0.00001
16.7 0.00003
16.75 0.00006
16.8 0.00008
16.85 0.00009
16.9 0.00011
16.95 0.00013
17 0.00011
17.05 0.00009
17.1 0.00007
17.15 0.00004
17.2 0.00001
17.25 -0.00001
17.3 -0.00001
17.35 0.00002
17.4 0.00003
17.45 0.00005
17.5 0.00005
17.55 0.00007
17.6 0.00005
17.65 0.00004
17.7 0.00002
17.75 0.00001
17.8 0.00002
17.85 0.00001
17.9 0.00001
17.95 0.00001
18 0.00001
18.05 -0.00002
18.1 -0.00005
18.15 -0.00006
18.2 -0.00006
18.25 -0.00004
18.3 -0.00003
18.35 -0.00004
18.4 -0.00005
18.45 -0.00004
18.5 -0.00001
18.55 -0.00002
18.6 0
18.65 0.00003
18.7 0.00005
18.75 0.00006
18.8 0.00007
18.85 0.00008
18.9 0.00006
18.95 0.00005
19 0.00003
19.05 0.00002
19.1 0.00002
19.15 0.00003
19.2 0.00003
19.25 0.00003
19.3 0.00003
19.35 0.00001
19.4 -0.00002
19.45 -0.00006
19.5 -0.00005
19.55 -0.00003
19.6 -0.00002
19.65 -0.00002
19.7 -0.00001
19.75 0.00001
19.8 0.00002
19.85 0.00002
19.9 0.00001
19.95 -0
20 -0.00001
20.05 0.00002
20.1 0.00003
20.15 0.00002
20.2 0.00003
20.25 0.00002
20.3 0.00001
20.35 0.00003
20.4 0.00003
20.45 0.00004
20.5 0.00004
20.55 0.00003
20.6 0.00004
20.65 0.00002
20.7 0
20.75 0
20.8 -0.00001
20.85 -0.00001
20.9 -0.00002
20.95 -0.00004
21 -0.00004
21.05 -0.00005
21.1 -0.00004
21.15 -0.00005
21.2 -0.00003
21.25 0
21.3 0.00003
21.35 0.00005
21.4 0.00008
21.45 0.00007
21.5 0.00005
21.55 0.00004
21.6 0.00003
21.65 0.00001
21.7 -0.00002
21.75 -0.00004
21.8 -0.00006
21.85 -0.00006
21.9 -0.00007
21.95 -0.00008
22 -0.00009
22.05 -0.00009
22.1 -0.0001
22.15 -0.00007
22.2 -0.00004
22.25 -0.00004
22.3 -0.00004
22.35 -0.00001
22.4 -0.00001
22.45 0
22.5 0.00002
22.55 0.00002
22.6 0.00001
22.65 -0.00002
22.7 -0.00002
22.75 0
22.8 -0
22.85 -0.00001
22.9 -0.00001
22.95 -0.00002
23 -0.00003
23.05 -0.00005
23.1 -0.00006
23.15 -0.00008
23.2 -0.00008
23.25 -0.00008
23.3 -0.00008
23.35 -0.00008
23.4 -0.00007
23.45 -0.00008
23.5 -0.00007
23.55 -0.00005
23.6 -0.00005
23.65 -0.00003
23.7 -0.00002
23.75 -0.00001
23.8 -0.00002
23.85 -0.00003
23.9 -0.00001
23.95 0
24 -0.00001
24.05 0.00001
24.1 0.00001
24.15 0.00002
24.2 0.00003
24.25 0.00003
24.3 0.00004
24.35 0.00004
24.4 0.00002
24.45 0.00003
24.5 0.00006
24.55 0.00009
24.6 0.00012
24.65 0.00013
24.7 0.00012
24.75 0.00008
24.8 0.00005
24.85 0.00002
24.9 -0
24.95 -0
25 -0.00001
25.05 -0.00003
25.1 -0.00005
25.15 -0.00003
25.2 -0
25.25 -0
25.3 -0.00002
25.35 -0.00005
25.4 -0.00004
25.45 -0.00001
25.5 -0
25.55 -0.00001
25.6 0
25.65 -0
25.7 -0.00001
25.75 -0.00002
25.8 -0.00003
25.85 -0.00005
25.9 -0.00004
25.95 -0.00001
26 -0
26.05 -0.00001
26.1 -0.00001
26.15 -0.00001
26.2 0
26.25 0
26.3 0.00002
26.35 0.00001
26.4 0.00002
26.45 0.00001
26.5 -0.00001
26.55 -0.00004
26.6 -0.00007
26.65 -0.00009
26.7 -0.0001
26.75 -0.00008
26.8 -0.00005
26.85 -0.00004
26.9 -0
26.95 0.00003
27 0.00004
27.05 0.00006
27.1 0.00005
27.15 0.00006
27.2 0.00008
27.25 0.00008
27.3 0.00007
27.35 0.00007
27.4 0.00007
27.45 0.00007
27.5 0.00005
27.55 0.00002
27.6 -0
27.65 0.00001
27.7 0.00001
27.75 -0
27.8 -0.00002
27.85 -0.00001
27.9 -0.00002
27.95 -0.00004
28 -0.00005
28.05 -0.00004
28.1 -0.00004
28.15 -0.00003
28.2 -0.00001
28.25 -0.00001
28.3 -0.00002
28.35 -0.00004
28.4 -0.00004
28.45 -0.00002
28.5 -0.00002
28.55 -0.00001
28.6 0.00002
28.65 0.00003
28.7 0.00004
28.75 0.00003
28.8 0.00004
28.85 0.00002
28.9 0
28.95 -0.00003
29 -0.00007
29.05 -0.00006
29.1 -0.00004
29.15 -0
29.2 0
29.25 0.00001
29.3 0.00003
29.35 0.00004
29.4 0.00003
29.45 -0
29.5 -0.00003
29.55 -0.00004
29.6 -0.00003
29.65 -0.00002
29.7 -0.00002
29.75 -0.00004
29.8 -0.00003
29.85 -0.00003
29.9 -0.00004
29.95 -0.00002
30 -0.00002
30.05 -0
30.1 0.00003
30.15 0.00005
30.2 0.00004
30.25 0.00003
30.3 0.00003
30.35 0.00004
30.4 0.00007
30.45 0.0001
30.5 0.0001
30.55 0.00009
30.6 0.00008
30.65 0.00008
30.7 0.00009
30.75 0.00011
30.8 0.00009
30.85 0.00006
30.9 0.00002
30.95 0.00001
31 -0.00001
31.05 -0.00004
31.1 -0.00006
31.15 -0.00008
31.2 -0.00007
31.25 -0.00004
31.3 -0.00004
31.35 -0.00001
31.4 -0.00001
31.45 0
31.5 0.00001
31.55 -0.00001
31.6 -0.00003
31.65 -0.00006
31.7 -0.00008
31.75 -0.0001
31.8 -0.00008
31.85 -0.00006
31.9 -0.00004
31.95 -0.00004
32 -0.00006
32.05 -0.00009
32.1 -0.00007
32.15 -0.00007
32.2 -0.00007
32.25 -0.00007
32.3 -0.00006
32.35 -0.00002
32.4 0
32.45 0.00002
32.5 0.00002
32.55 0.00002
32.6 0.00004
32.65 0.00003
32.7 0.00004
32.75 0.00003
32.8 0.00001
32.85 0
32.9 -0.00001
32.95 -0.00003
33 -0.00003
33.05 -0.00004
33.1 -0.00006
33.15 -0.00007
33.2 -0.00007
33.25 -0.00007
33.3 -0.00005
33.35 -0.00004
33.4 -0.00005
33.45 -0.00005
33.5 -0.00006
33.55 -0.00004
33.6 -0.00001
33.65 0.00001
33.7 0.00002
33.75 0.00004
33.8 0.00005
33.85 0.00005
33.9 0.00004
33.95 0.00001
34 -0.00001
34.05 -0.00003
34.1 -0.00003
34.15 -0.00004
34.2 -0.00005
34.25 -0.00005
34.3 -0.00004
34.35 -0
34.4 0.00004
34.45 0.00007
34.5 0.00009
34.55 0.00008
34.6 0.00006
34.65 0.00003
34.7 0
34.75 -0.00003
34.8 -0.00003
34.85 -0.00003
34.9 -0.00004
34.95 -0.00003
35 -0.00002
35.05 -0.00001
35.1 0.00001
35.15 0.00003
35.2 0.00005
35.25 0.00007
35.3 0.00007
35.35 0.00008
35.4 0.00009
35.45 0.0001
35.5 0.00008
35.55 0.00006
35.6 0.00002
35.65 -0.00003
35.7 -0.00006
35.75 -0.00007
35.8 -0.00008
35.85 -0.00009
35.9 -0.00011
35.95 -0.0001
36 -0.00006
36.05 -0.00003
36.1 -0
36.15 0.00004
36.2 0.00006
36.25 0.00009
36.3 0.00011
36.35 0.0001
36.4 0.00007
36.45 0.00004
36.5 0.00003
36.55 0.00004
36.6 0.00003
36.65 0.00002
36.7 0.00002
36.75 0
36.8 0.00001
36.85 0
36.9 -0.00002
36.95 -0.00001
37 -0.00002
37.05 -0.00001
37.1 -0
37.15 0.00003
37.2 0.00004
37.25 0.00007
37.3 0.00008
37.35 0.00007
37.4 0.00008
37.45 0.0001
37.5 0.00011
37.55 0.00013
37.6 0.00015
37.65 0.00016
37.7 0.00015
37.75 0.00012
37.8 0.00008
37.85 0.00007
37.9 0.00007
37.95 0.00008
38 0.0001
38.05 0.00012
38.1 0.00013
38.15 0.00012
38.2 0.00012
38.25 0.00014
38.3 0.00014
38.35 0.00015
38.4 0.00016
38.45 0.00016
38.5 0.00016
38.55 0.00015
38.6 0.00011
38.65 0.00007
38.7 0.00003
38.75 0
38.8 -0.00002
38.85 -0.00004
38.9 -0.00004
38.95 -0.00003
39 -0.00004
39.05 -0.00004
39.1 -0.00003
39.15 -0.00002
39.2 -0.00002
39.25 -0
39.3 0.00001
39.35 0.00001
39.4 0.00001
39.45 -0
39.5 0
39.55 0.00003
39.6 0.00006
39.65 0.00006
39.7 0.00005
39.75 0.00002
39.8 0.00002
39.85 0.00001
39.9 -0.00003
39.95 -0.00005
40 -0.00006
40.05 -0.00007
40.1 -0.00007
40.15 -0.00007
40.2 -0.00007
40.25 -0.00006
40.3 -0.00004
40.35 -0.00003
40.4 -0.00002
40.45 -0.00002
40.5 -0.00003
40.55 -0.00003
40.6 -0.00001
40.65 0.00001
40.7 0.00004
40.75 0.00004
40.8 0.00003
40.85 0.00003
40.9 0.00002
40.95 -0.00001
41 -0.00002
41.05 -0.00003
41.1 -0.00003
41.15 -0.00001
41.2 -0.00001
41.25 -0.00002
41.3 -0.00004
41.35 -0.00004
41.4 -0.00003
41.45 -0.00005
41.5 -0.00006
41.55 -0.00006
41.6 -0.00004
41.65 -0.00003
41.7 -0.00002
41.75 -0.00002
41.8 -0.00003
41.85 -0.00001
41.9 -0.00002
41.95 -0.00001
42 -0
42.05 0.00001
42.1 0
42.15 -0
42.2 0
42.25 0.00003
42.3 0.00003
42.35 0.00003
42.4 -0
42.45 -0.00001
42.5 -0.00003
42.55 -0.00005
42.6 -0.00007
42.65 -0.00006
42.7 -0.00007
42.75 -0.0001
42.8 -0.00011
42.85 -0.00012
42.9 -0.00016
42.95 -0.00017
43 -0.00019
43.05 -0.0002
43.1 -0.00023
43.15 -0.00025
43.2 -0.00028
43.25 -0.00033
43.3 -0.00039
43.35 -0.00046
43.4 -0.00052
43.45 -0.00059
43.5 -0.00066
43.55 -0.00074
43.6 -0.00085
43.65 -0.00094
43.7 -0.00105
43.75 -0.00117
43.8 -0.00131
43.85 -0.00145
43.9 -0.00161
43.95 -0.00181
44 -0.00203
44.05 -0.00229
44.1 -0.00257
44.15 -0.00284
44.2 -0.00313
44.25 -0.00344
44.3 -0.00374
44.35 -0.00407
44.4 -0.0044
44.45 -0.00478
44.5 -0.00514
44.55 -0.00552
44.6 -0.00593
44.65 -0.00637
44.7 -0.0068
44.75 -0.00722
44.8 -0.00763
44.85 -0.00806
44.9 -0.0085
44.95 -0.00892
45 -0.00933
45.05 -0.00971
45.1 -0.01009
45.15 -0.01043
45.2 -0.01073
45.25 -0.01098
45.3 -0.01118
45.35 -0.01133
45.4 -0.01143
45.45 -0.01147
45.5 -0.01142
45.55 -0.01129
45.6 -0.01107
45.65 -0.01076
45.7 -0.01036
45.75 -0.00989
45.8 -0.00935
45.85 -0.00874
45.9 -0.00804
45.95 -0.00726
46 -0.00637
46.05 -0.00538
46.1 -0.00434
46.15 -0.00323
46.2 -0.00207
46.25 -0.00085
46.3 0.00042
46.35 0.00171
46.4 0.00305
46.45 0.00442
46.5 0.00581
46.55 0.00719
46.6 0.00853
46.65 0.00983
46.7 0.01107
46.75 0.01224
46.8 0.01331
46.85 0.01427
46.9 0.01516
46.95 0.01593
47 0.01657
47.05 0.01707
47.1 0.01745
47.15 0.0177
47.2 0.01784
47.25 0.01784
47.3 0.01773
47.35 0.01749
47.4 0.01711
47.45 0.01662
47.5 0.01601
47.55 0.01529
47.6 0.01447
47.65 0.01354
47.7 0.01255
47.75 0.01145
47.8 0.01029
47.85 0.0091
47.9 0.00789
47.95 0.00665
48 0.00543
48.05 0.00424
48.1 0.00305
48.15 0.00188
48.2 0.00077
48.25 -0.00028
48.3 -0.00127
48.35 -0.0022
48.4 -0.00304
48.45 -0.00375
48.5 -0.00438
48.55 -0.00494
48.6 -0.0054
48.65 -0.00577
48.7 -0.00604
48.75 -0.00622
48.8 -0.00629
48.85 -0.00625
48.9 -0.00614
48.95 -0.00596
49 -0.00571
49.05 -0.00542
49.1 -0.00508
49.15 -0.0047
49.2 -0.00426
49.25 -0.00378
49.3 -0.00328
49.35 -0.00272
49.4 -0.00214
49.45 -0.00158
49.5 -0.00102
49.55 -0.00048
49.6 0.00004
49.65 0.00056
49.7 0.00106
49.75 0.00155
49.8 0.00199
49.85 0.0024
49.9 0.00279
49.95 0.00317
50 0.00351
50.05 0.00383
50.1 0.00408
50.15 0.00429
50.2 0.00445
50.25 0.00461
50.3 0.00471
50.35 0.00478
50.4 0.00485
50.45 0.00487
50.5 0.00483
50.55 0.0048
50.6 0.00474
50.65 0.00469
50.7 0.0046
50.75 0.00451
50.8 0.0044
50.85 0.00427
50.9 0.0041
50.95 0.00391
51 0.00374
51.05 0.00358
51.1 0.00339
51.15 0.00321
51.2 0.00301
51.25 0.00279
51.3 0.00261
51.35 0.00241
51.4 0.00221
51.45 0.00202
51.5 0.00186
51.55 0.00167
51.6 0.00148
51.65 0.00128
51.7 0.00108
51.75 0.00089
51.8 0.00071
51.85 0.00055
51.9 0.00043
51.95 0.00033
52 0.00023
52.05 0.00012
52.1 0
52.15 -0.00013
52.2 -0.00024
52.25 -0.00036
52.3 -0.00047
52.35 -0.00054
52.4 -0.00058
52.45 -0.00062
52.5 -0.00066
52.55 -0.00071
52.6 -0.00074
52.65 -0.00079
52.7 -0.00083
52.75 -0.0009
52.8 -0.00095
52.85 -0.00101
52.9 -0.00107
52.95 -0.0011
53 -0.00112
53.05 -0.00114
53.1 -0.00116
53.15 -0.00117
53.2 -0.00118
53.25 -0.00117
53.3 -0.00115
53.35 -0.00115
53.4 -0.00117
53.45 -0.00121
53.5 -0.00123
53.55 -0.00125
53.6 -0.00129
53.65 -0.00129
53.7 -0.00128
53.75 -0.00129
53.8 -0.00127
53.85 -0.00126
53.9 -0.00124
53.95 -0.00124
54 -0.00124
54.05 -0.00125
54.1 -0.00125
54.15 -0.00124
54.2 -0.00121
54.25 -0.00118
54.3 -0.00114
54.35 -0.0011
54.4 -0.00106
54.45 -0.00104
54.5 -0.00106
54.55 -0.00107
54.6 -0.00109
54.65 -0.00108
54.7 -0.00107
54.75 -0.00105
54.8 -0.00102
54.85 -0.00101
54.9 -0.00102
54.95 -0.00101
55 -0.00102
55.05 -0.00099
55.1 -0.00094
55.15 -0.0009
55.2 -0.00088
55.25 -0.00087
55.3 -0.00088
55.35 -0.00089
55.4 -0.00087
55.45 -0.00087
55.5 -0.00087
55.55 -0.00088
55.6 -0.00086
55.65 -0.00085
55.7 -0.00081
55.75 -0.00075
55.8 -0.00069
55.85 -0.00063
55.9 -0.0006
55.95 -0.00057
56 -0.00056
56.05 -0.00057
56.1 -0.00058
56.15 -0.0006
56.2 -0.0006
56.25 -0.00061
56.3 -0.00063
56.35 -0.00065
56.4 -0.00064
56.45 -0.00061
56.5 -0.00058
56.55 -0.00056
56.6 -0.00054
56.65 -0.00052
56.7 -0.00049
56.75 -0.00046
56.8 -0.00042
56.85 -0.00038
56.9 -0.00035
56.95 -0.00034
57 -0.00033
57.05 -0.00032
57.1 -0.00031
57.15 -0.00034
57.2 -0.00037
57.25 -0.00041
57.3 -0.00041
57.35 -0.00041
57.4 -0.00042
57.45 -0.00041
57.5 -0.00043
57.55 -0.00046
57.6 -0.00049
57.65 -0.00051
57.7 -0.00049
57.75 -0.00048
57.8 -0.00046
57.85 -0.00045
57.9 -0.00044
57.95 -0.00043
58 -0.00043
58.05 -0.00044
58.1 -0.00045
58.15 -0.00048
58.2 -0.00048
58.25 -0.00046
58.3 -0.00042
58.35 -0.0004
58.4 -0.00039
58.45 -0.00037
58.5 -0.00035
58.55 -0.00035
58.6 -0.00035
58.65 -0.00033
58.7 -0.00032
58.75 -0.00032
58.8 -0.00033
58.85 -0.00033
58.9 -0.0003
58.95 -0.00029
59 -0.0003
59.05 -0.00028
59.1 -0.00027
59.15 -0.00025
59.2 -0.00024
59.25 -0.00025
59.3 -0.00026
59.35 -0.00027
59.4 -0.00026
59.45 -0.00024
59.5 -0.00023
59.55 -0.00025
59.6 -0.00024
59.65 -0.00024
59.7 -0.00023
59.75 -0.00023
59.8 -0.00025
59.85 -0.00025
59.9 -0.00023
59.95 -0.00019
60 -0.00018
60.05 -0.00015
60.1 -0.00014
60.15 -0.00013
60.2 -0.00011
60.25 -0.00009
60.3 -0.00008
60.35 -0.00007
60.4 -0.00006
60.45 -0.00007
60.5 -0.00006
60.55 -0.00005
60.6 -0.00007
60.65 -0.00007
60.7 -0.00009
60.75 -0.00009
60.8 -0.00009
60.85 -0.00011
60.9 -0.00014
60.95 -0.00015
61 -0.00016
61.05 -0.00016
61.1 -0.00017
61.15 -0.00015
61.2 -0.00016
61.25 -0.00015
61.3 -0.00013
61.35 -0.00011
61.4 -0.00009
61.45 -0.00009
61.5 -0.00006
61.55 -0.00003
61.6 -0.00004
61.65 -0.00007
61.7 -0.00009
61.75 -0.00009
61.8 -0.00009
61.85 -0.0001
61.9 -0.0001
61.95 -0.00011
62 -0.00012
62.05 -0.00012
62.1 -0.0001
62.15 -0.00008
62.2 -0.00006
62.25 -0.00004
62.3 -0.00005
62.35 -0.00008
62.4 -0.0001
62.45 -0.00013
62.5 -0.00015
62.55 -0.00017
62.6 -0.00019
62.65 -0.00021
62.7 -0.00022
62.75 -0.00023
62.8 -0.00025
62.85 -0.00023
62.9 -0.00021
62.95 -0.00018
63 -0.00014
63.05 -0.0001
63.1 -0.00008
63.15 -0.00006
63.2 -0.00003
63.25 0
63.3 0.00001
63.35 0.00003
63.4 0.00003
63.45 0.00002
63.5 0.00003
63.55 0.00002
63.6 0.00001
63.65 0.00001
63.7 0.00001
63.75 0.00002
63.8 0.00001
63.85 0
63.9 -0.00001
63.95 -0.00004
64 -0.00008
64.05 -0.0001
64.1 -0.00011
64.15 -0.00011
64.2 -0.00011
64.25 -0.0001
64.3 -0.00008
64.35 -0.00008
64.4 -0.00007
64.45 -0.00007
64.5 -0.00006
64.55 -0.00004
64.6 -0.00004
64.65 -0.00007
64.7 -0.00007
64.75 -0.00009
64.8 -0.0001
64.85 -0.00009
64.9 -0.00009
64.95 -0.00006
65 -0.00005
65.05 -0.00002
65.1 -0.00002
65.15 -0.00001
65.2 -0.00001
65.25 0
65.3 0
65.35 -0.00001
65.4 -0.00004
65.45 -0.00005
65.5 -0.00005
65.55 -0.00005
65.6 -0.00002
65.65 -0.00001
65.7 0
65.75 0.00001
65.8 -0.00001
65.85 -0.00002
65.9 -0.00005
65.95 -0.00005
66 -0.00007
66.05 -0.00007
66.1 -0.00006
66.15 -0.00004
66.2 -0.00002
66.25 -0
66.3 -0.00001
66.35 -0.00002
66.4 -0.00005
66.45 -0.00008
66.5 -0.00011
66.55 -0.00011
66.6 -0.0001
66.65 -0.00008
66.7 -0.00006
66.75 -0.00003
66.8 0.00001
66.85 0.00003
66.9 0.00003
66.95 0
67 -0.00003
67.05 -0.00006
67.1 -0.00009
67.15 -0.00008
67.2 -0.00009
67.25 -0.0001
67.3 -0.00008
67.35 -0.00007
67.4 -0.00005
67.45 -0.00003
67.5 -0.00003
67.55 -0.00004
67.6 -0.00004
67.65 -0.00003
67.7 -0.00005
67.75 -0.00006
67.8 -0.00008
67.85 -0.0001
67.9 -0.00012
67.95 -0.00014
68 -0.00015
68.05 -0.00014
68.1 -0.00013
68.15 -0.00009
68.2 -0.00006
68.25 -0.00005
68.3 -0.00003
68.35 -0
68.4 -0.00001
68.45 -0.00002
68.5 -0.00003
68.55 -0.00002
68.6 0.00001
68.65 0.00002
68.7 0.00002
68.75 0.00002
68.8 0.00002
68.85 0.00001
68.9 0.00002
68.95 0.00001
69 -0.00001
69.05 -0.00002
69.1 -0
69.15 0.00003
69.2 0.00004
69.25 0.00004
69.3 0.00004
69.35 0.00005
69.4 0.00007
69.45 0.00007
69.5 0.00008
69.55 0.00008
69.6 0.00009
69.65 0.00007
69.7 0.00007
69.75 0.00007
69.8 0.00006
69.85 0.00004
69.9 0.00001
69.95 -0
70 -0.00002
70.05 -0.00005
70.1 -0.00006
70.15 -0.00009
70.2 -0.00009
70.25 -0.00008
70.3 -0.00007
70.35 -0.00007
70.4 -0.00005
70.45 -0.00003
70.5 -0
70.55 -0
70.6 -0.00002
70.65 -0.00001
70.7 0.00002
70.75 0.00002
70.8 0.00002
70.85 0.00002
70.9 0.00003
70.95 0.00003
71 0.00004
71.05 0.00003
71.1 0
71.15 -0.00004
71.2 -0.00005
71.25 -0.00006
71.3 -0.00008
71.35 -0.00007
71.4 -0.00005
71.45 -0.00001
71.5 0.00001
71.55 0
71.6 0.00002
71.65 0.00001
71.7 0.00002
71.75 0.00004
71.8 0.00002
71.85 0.00003
71.9 0.00005
71.95 0.00007
72 0.00009
72.05 0.0001
72.1 0.0001
72.15 0.00008
72.2 0.00007
72.25 0.00005
72.3 0.00003
72.35 0.00003
72.4 0.00002
72.45 0.00001
72.5 -0.00001
72.55 -0.00002
72.6 -0.00005
72.65 -0.00007
72.7 -0.00008
72.75 -0.00008
72.8 -0.00007
72.85 -0.00005
72.9 -0.00003
72.95 -0.00004
73 -0.00005
73.05 -0.00004
73.1 -0.00003
73.15 -0
73.2 0.00001
73.25 -0.00001
73.3 -0.00004
73.35 -0.00006
73.4 -0.00007
73.45 -0.00006
73.5 -0.00006
73.55 -0.00004
73.6 -0.00005
73.65 -0.00005
73.7 -0.00006
73.75 -0.00008
73.8 -0.00008
73.85 -0.00009
73.9 -0.00007
73.95 -0.00005
74 -0.00004
74.05 -0.00002
74.1 -0.00003
74.15 -0.00004
74.2 -0.00003
74.25 -0.00001
74.3 -0.00001
74.35 -0.00002
74.4 -0.00002
74.45 -0.00003
74.5 -0.00004
74.55 -0.00005
74.6 -0.00005
74.65 -0.00004
74.7 -0.00002
74.75 0
74.8 0
74.85 -0
74.9 -0.00001
74.95 -0.00002
75 -0.00001
75.05 -0
75.1 0.00002
75.15 0.00002
75.2 0.00003
75.25 0.00005
75.3 0.00006
75.35 0.00005
75.4 0.00002
75.45 -0
75.5 -0.00002
75.55 -0.00002
75.6 0.00001
75.65 0.00001
75.7 -0.00001
75.75 -0.00002
75.8 -0.00002
75.85 -0.00002
75.9 -0.00001
75.95 0
76 0
76.05 -0.00002
76.1 -0.00002
76.15 -0.00003
76.2 -0.00004
76.25 -0.00006
76.3 -0.00006
76.35 -0.00005
76.4 -0.00005
76.45 -0.00005
76.5 -0.00003
76.55 -0.00001
76.6 -0.00001
76.65 -0.00003
76.7 -0.00005
76.75 -0.00004
76.8 -0.00003
76.85 -0.00004
76.9 -0.00004
76.95 -0.00003
77 -0.00002
77.05 -0.00001
77.1 0.00001
77.15 0.00003
77.2 0.00004
77.25 0.00004
77.3 0.00003
77.35 0.00003
77.4 0.00003
77.45 0.00002
77.5 0.00002
77.55 0.00001
77.6 0.00002
77.65 0.00002
77.7 0
77.75 0
77.8 0.00002
77.85 0.00003
77.9 0.00001
77.95 0.00002
78 0.00005
78.05 0.00007
78.1 0.00009
78.15 0.00009
78.2 0.0001
78.25 0.00011
78.3 0.00008
78.35 0.00005
78.4 0
78.45 -0.00004
78.5 -0.00006
78.55 -0.0001
78.6 -0.00013
78.65 -0.00016
78.7 -0.00018
78.75 -0.00017
78.8 -0.00015
78.85 -0.00014
78.9 -0.00013
78.95 -0.00012
79 -0.0001
79.05 -0.00008
79.1 -0.00005
79.15 -0.00004
79.2 -0.00001
79.25 0.00002
79.3 0.00005
79.35 0.00007
79.4 0.00009
79.45 0.00012
79.5 0.00014
79.55 0.00013
79.6 0.00011
79.65 0.0001
79.7 0.00009
79.75 0.00006
79.8 0.00004
79.85 0.00004
79.9 0.00005
79.95 0.00005
80 0.00006
80.05 0.00008
80.1 0.00008
80.15 0.00006
80.2 0.00003
80.25 0.00003
80.3 0.00003
80.35 0.00001
80.4 0.00001
80.45 -0
80.5 0
80.55 0.00001
80.6 0.00003
80.65 0.00005
80.7 0.00007
80.75 0.00009
80.8 0.00008
80.85 0.00006
80.9 0.00005
80.95 0.00005
81 0.00003
81.05 0.00003
81.1 0.00001
81.15 0.00002
81.2 0.00001
81.25 -0.00002
81.3 -0.00003
81.35 -0.00002
81.4 -0
81.45 0.00001
81.5 0.00003
81.55 0.00005
81.6 0.00005
81.65 0.00004
81.7 0.00002
81.75 -0
81.8 -0.00002
81.85 -0.00003
81.9 -0.00003
81.95 -0.00004
82 -0.00003
82.05 -0.00004
82.1 -0.00007
82.15 -0.00009
82.2 -0.00011
82.25 -0.00009
82.3 -0.00006
82.35 -0.00005
82.4 -0.00001
82.45 0.00001
82.5 0.00002
82.55 0.00004
82.6 0.00004
82.65 0.00004
82.7 0.00004
82.75 0.00002
82.8 -0.00002
82.85 -0.00003
82.9 -0.00003
82.95 -0.00002
83 0
83.05 0.00001
83.1 0
83.15 -0
83.2 -0
83.25 -0.00003
83.3 -0.00005
83.35 -0.00008
83.4 -0.00009
83.45 -0.00007
83.5 -0.00004
83.55 -0.00001
83.6 -0.00001
83.65 -0.00002
83.7 -0.00004
83.75 -0.00005
83.8 -0.00005
83.85 -0.00003
83.9 -0.00002
83.95 -0.00001
84 0
84.05 0.00002
84.1 0.00001
84.15 0.00001
84.2 -0
84.25 -0.00002
84.3 -0.00003
84.35 -0.00005
84.4 -0.00007
84.45 -0.00006
84.5 -0.00007
84.55 -0.00006
84.6 -0.00003
84.65 0
84.7 0
84.75 -0.00002
84.8 -0.00002
84.85 -0.00002
84.9 0
84.95 0.00003
85 0.00003
85.05 0
85.1 0
85.15 -0.00002
85.2 -0.00003
85.25 -0.00005
85.3 -0.00007
85.35 -0.00009
85.4 -0.00009
85.45 -0.0001
85.5 -0.00009
85.55 -0.00008
85.6 -0.00008
85.65 -0.00005
85.7 -0.00004
85.75 -0.00001
85.8 0.00002
85.85 0.00003
85.9 0.00001
85.95 0.00001
86 0.00001
86.05 0.00003
86.1 0.00001
86.15 0
86.2 0.00001
86.25 0.00001
86.3 0
86.35 0.00001
86.4 0.00002
86.45 0.00002
86.5 -0.00001
86.55 -0.00003
86.6 -0.00004
86.65 -0.00006
86.7 -0.00007
86.75 -0.00008
86.8 -0.00009
86.85 -0.00008
86.9 -0.00008
86.95 -0.00007
87 -0.00005
87.05 -0.00002
87.1 -0.00001
87.15 0
87.2 0.00003
87.25 0.00003
87.3 0.00004
87.35 0.00007
87.4 0.00007
87.45 0.00006
87.5 0.00006
87.55 0.00005
87.6 0.00004
87.65 0.00002
87.7 -0.00001
87.75 -0.00001
87.8 0
87.85 0
87.9 0.00003
87.95 0.00002
88 0.00003
88.05 0.00005
88.1 0.00007
88.15 0.00007
88.2 0.00004
88.25 0.00003
88.3 0.00001
88.35 0.00001
88.4 0.00002
88.45 0.00003
88.5 0.00003
88.55 0.00003
88.6 0.00001
88.65 -0.00002
88.7 -0.00006
88.75 -0.00007
88.8 -0.00007
88.85 -0.00008
88.9 -0.00005
88.95 -0.00005
89 -0.00005
89.05 -0.00004
89.1 -0.00003
89.15 -0
89.2 0.00002
89.25 0.00004
89.3 0.00006
89.35 0.00008
89.4 0.00008
89.45 0.00005
89.5 0.00001
89.55 -0.00002
89.6 -0.00003
89.65 -0.00005
89.7 -0.00005
89.75 -0.00003
89.8 -0.00002
89.85 -0.00001
89.9 -0.00001
89.95 -0.00002
90 -0.00003
90.05 -0.00004
90.1 -0.00006
90.15 -0.00006
90.2 -0.00006
90.25 -0.00003
90.3 -0
90.35 0
90.4 0.00001
90.45 -0.00001
90.5 -0.00003
90.55 -0.00006
90.6 -0.00009
90.65 -0.00012
90.7 -0.00014
90.75 -0.00013
90.8 -0.0001
90.85 -0.00007
90.9 -0.00005
90.95 -0.00001
91 0.00003
91.05 0.00005
91.1 0.00006
91.15 0.00005
91.2 0.00004
91.25 0.00001
91.3 0.00001
91.35 0
91.4 -0.00001
91.45 -0.00003
91.5 -0.00003
91.55 -0
91.6 0.00003
91.65 0.00007
91.7 0.00009
91.75 0.00009
91.8 0.00009
91.85 0.00009
91.9 0.00007
91.95 0.00007
92 0.00006
92.05 0.00005
92.1 0.00002
92.15 0
92.2 -0.00002
92.25 -0.00001
92.3 0.00001
92.35 0.00005
92.4 0.00006
92.45 0.00005
92.5 0.00002
92.55 -0
92.6 0.00001
92.65 0
92.7 -0.00002
92.75 -0.00003
92.8 -0.00002
92.85 -0.00004
92.9 -0.00005
92.95 -0.00008
93 -0.00009
93.05 -0.00009
93.1 -0.00009
93.15 -0.00008
93.2 -0.00007
93.25 -0.00005
93.3 -0.00004
93.35 -0.00002
93.4 -0.00002
93.45 -0
93.5 0
93.55 -0
93.6 0.00001
93.65 0
93.7 0
93.75 0
93.8 0.00002
93.85 0.00005
93.9 0.00008
93.95 0.00011
94 0.00012
94.05 0.00014
94.1 0.00013
94.15 0.0001
94.2 0.00008
94.25 0.00003
94.3 0.00001
94.35 0.00001
94.4 0.00002
94.45 0.00001
94.5 0.00001
94.55 0.00001
94.6 -0.00002
94.65 -0.00005
94.7 -0.00007
94.75 -0.00008
94.8 -0.00008
94.85 -0.00009
94.9 -0.00008
94.95 -0.00008
95 -0.00009
95.05 -0.00008
95.1 -0.00004
95.15 -0.00004
95.2 -0.00001
95.25 0.00002
95.3 0.00005
95.35 0.00009
95.4 0.0001
95.45 0.00012
95.5 0.00011
95.55 0.00007
95.6 0.00002
95.65 -0.00001
95.7 -0.00004
95.75 -0.00007
95.8 -0.00008
95.85 -0.00009
95.9 -0.00008
95.95 -0.00006
96 -0.00003
96.05 -0.00002
96.1 -0
96.15 0.00002
96.2 0.00002
96.25 0.00001
96.3 0.00002
96.35 0.00002
96.4 0.00001
96.45 -0.00001
96.5 -0.00003
96.55 -0.00003
96.6 -0.00004
96.65 -0.00004
96.7 -0.00003
96.75 -0.00003
96.8 -0.00001
96.85 0.00001
96.9 0.00002
96.95 0.00002
97 0.00004
97.05 0.00008
97.1 0.00011
97.15 0.0001
97.2 0.00009
97.25 0.00009
97.3 0.0001
97.35 0.00011
97.4 0.00011
97.45 0.00009
97.5 0.00006
97.55 0.00002
97.6 -0.00001
97.65 -0.00003
97.7 -0.00001
97.75 -0
97.8 -0.00001
97.85 -0.00002
97.9 -0.00001
97.95 -0.00002
98 -0.00002
98.05 -0.00002
98.1 -0.00003
98.15 -0.00004
98.2 -0.00004
98.25 -0.00005
98.3 -0.00007
98.35 -0.00007
98.4 -0.00006
98.45 -0.00004
98.5 -0.00002
98.55 -0
98.6 0.00001
98.65 0.00003
98.7 0.00007
98.75 0.0001
98.8 0.00014
98.85 0.00017
98.9 0.00018
98.95 0.00016
99 0.00015
99.05 0.00011
99.1 0.00008
99.15 0.00008
99.2 0.00006
99.25 0.00006
99.3 0.00006
99.35 0.00007
99.4 0.00008
99.45 0.00007
99.5 0.00003
99.55 -0.00001
99.6 -0.00006
99.65 -0.00011
99.7 -0.00011
99.75 -0.00009
99.8 -0.00007
99.85 -0.00005
99.9 -0.00005
99.95 -0.00002
