0 0
0.05 0.00037
0.1 0.00075
0.15 0.00099
0.2 0.00118
0.25 0.0015
0.3 0.00164
0.35 0.00217
0.4 0.00234
0.45 0.00278
0.5 0.00317
0.55 0.00315
0.6 0.00287
0.65 0.00258
0.7 0.00227
0.75 0.00217
0.8 0.00241
0.85 0.00241
0.9 0.00237
0.95 0.00255
1 0.00278
1.05 0.00319
1.1 0.00356
1.15 0.00369
1.2 0.00354
1.25 0.00326
1.3 0.00295
1.35 0.00256
1.4 0.00219
1.45 0.00218
1.5 0.00228
1.55 0.00239
1.6 0.00224
1.65 0.0019
1.7 0.00195
1.75 0.00209
1.8 0.00218
1.85 0.00224
1.9 0.00242
1.95 0.00256
2 0.00236
2.05 0.00238
2.1 0.00248
2.15 0.00265
2.2 0.00298
2.25 0.00332
2.3 0.00319
2.35 0.00293
2.4 0.00259
2.45 0.00257
2.5 0.00256
2.55 0.00232
2.6 0.00197
2.65 0.00191
2.7 0.00172
2.75 0.00168
2.8 0.00187
2.85 0.00216
2.9 0.00226
2.95 0.00215
3 0.00188
3.05 0.00189
3.1 0.002
3.15 0.00206
3.2 0.00225
3.25 0.00224
3.3 0.00211
3.35 0.00169
3.4 0.00141
3.45 0.00136
3.5 0.00141
3.55 0.00132
3.6 0.00114
3.65 0.00122
3.7 0.00138
3.75 0.00153
3.8 0.00147
3.85 0.00129
3.9 0.00132
3.95 0.00153
4 0.00133
4.05 0.00143
4.1 0.00165
4.15 0.00183
4.2 0.00189
4.25 0.0017
4.3 0.00143
4.35 0.00096
4.4 0.00077
4.45 0.00036
4.5 -0.00003
4.55 -0.00022
4.6 -0.0002
4.65 0.00017
4.7 0.00022
4.75 0.00014
4.8 0.00041
4.85 0.00089
4.9 0.00115
4.95 0.00125
5 0.0014
5.05 0.00162
5.1 0.00182
5.15 0.00187
5.2 0.00194
5.25 0.00208
5.3 0.00217
5.35 0.00202
5.4 0.00186
5.45 0.00139
5.5 0.00123
5.55 0.00133
5.6 0.00126
5.65 0.00091
5.7 0.00059
5.75 0.00034
5.8 0.00015
5.85 0.0001
5.9 0.00009
5.95 0.00037
6 0.00033
6.05 0.00045
6.1 0.00039
6.15 0.00045
6.2 0.0006
6.25 0.00059
6.3 0.00039
6.35 0.00016
6.4 0.00027
6.45 0.00009
6.5 -0.0001
6.55 -0.00006
6.6 -0.00008
6.65 -0.00004
6.7 0.00016
6.75 0.00036
6.8 0.00023
6.85 -0.00001
6.9 -0.00033
6.95 -0.00045
7 -0.00069
7.05 -0.00091
7.1 -0.00074
7.15 -0.00081
7.2 -0.00077
7.25 -0.00082
7.3 -0.00049
7.35 -0.00034
7.4 0.00005
7.45 0.00048
7.5 0.00054
7.55 0.0004
7.6 0.00014
7.65 -0.0003
7.7 -0.00026
7.75 -0.00016
7.8 -0.00033
7.85 -0.00019
7.9 -0.00002
7.95 0.00021
8 0.00016
8.05 0.00028
8.1 0.00008
8.15 -0.00024
8.2 -0.00038
8.25 -0.00062
8.3 -0.00082
8.35 -0.00084
8.4 -0.00093
8.45 -0.00108
8.5 -0.00125
8.55 -0.00117
8.6 -0.00119
8.65 -0.00087
8.7 -0.0003
8.75 0.00014
8.8 0.00029
8.85 0.00019
8.9 0.00014
8.95 0.00034
9 0.0002
9.05 -0.00013
9.1 -0.00042
9.15 -0.00049
9.2 -0.00032
9.25 -0.00012
9.3 -0.00018
9.35 -0.00043
9.4 -0.00078
9.45 -0.00081
9.5 -0.00051
9.55 -0.00022
9.6 0.0002
9.65 0.00064
9.7 0.00097
9.75 0.00113
9.8 0.00136
9.85 0.00131
9.9 0.00144
9.95 0.00138
10 0.00106
10.05 0.00104
10.1 0.0008
10.15 0.00087
10.2 0.00114
10.25 0.00102
10.3 0.00066
10.35 0.00061
10.4 0.00035
10.45 0.00016
10.5 -0.00022
10.55 -0.00064
10.6 -0.00066
10.65 -0.00053
10.7 -0.0005
10.75 -0.00038
10.8 -0.00014
10.85 0.00027
10.9 0.00056
10.95 0.00065
11 0.00077
11.05 0.00085
11.1 0.00109
11.15 0.00094
11.2 0.00058
11.25 0.00008
11.3 -0.0002
11.35 -0.00047
11.4 -0.00047
11.45 -0.00038
11.5 -0.00008
11.55 0.00009
11.6 0.00001
11.65 -0.00001
11.7 -0.00027
11.75 -0.00018
11.8 -0.00003
11.85 0.00006
11.9 0.00011
11.95 0.00022
12 0.00011
12.05 0.00005
12.1 -0.00018
12.15 -0.00038
12.2 -0.00031
12.25 -0.00008
12.3 -0.00011
12.35 -0.0003
12.4 -0.00062
12.45 -0.00082
12.5 -0.00082
12.55 -0.00093
12.6 -0.00066
12.65 -0.00053
12.7 -0.00043
12.75 -0.00042
12.8 -0.0006
12.85 -0.00086
12.9 -0.00118
12.95 -0.00098
13 -0.00055
13.05 -0.00049
13.1 -0.00032
13.15 0.00006
13.2 0.00051
13.25 0.00076
13.3 0.00108
13.35 0.00149
13.4 0.00144
13.45 0.00117
13.5 0.00097
13.55 0.00059
13.6 0.00048
13.65 0.00024
13.7 -0.00018
13.75 -0.00066
13.8 -0.00113
13.85 -0.00158
13.9 -0.00159
13.95 -0.0014
14 -0.00104
14.05 -0.00047
14.1 -0.00003
14.15 0.00046
14.2 0.00082
14.25 0.00127
14.3 0.00132
14.35 0.00147
14.4 0.00163
14.45 0.00168
14.5 0.00163
14.55 0.00122
14.6 0.001
14.65 0.00061
14.7 0.00004
14.75 -0.0003
14.8 -0.00024
14.85 -0.00002
14.9 0.00018
14.95 0.00019
15 0.00005
15.05 -0.00025
15.1 -0.00032
15.15 -0.00007
15.2 0.00006
15.25 0.00038
15.3 0.00062
15.35 0.00079
15.4 0.001
15.45 0.00082
15.5 0.0005
15.55 0.00006
15.6 -0.00036
15.65 -0.00071
15.7 -0.00109
15.75 -0.00141
15.8 -0.00143
15.85 -0.00156
15.9 -0.00137
15.95 -0.00103
16 -0.00052
16.05 -0.00007
16.1 0.00035
16.15 0.00072
16.2 0.00097
16.25 0.00094
16.3 0.0008
16.35 0.0006
16.4 0.00068
16.45 0.00063
16.5 0.00064
16.55 0.00076
16.6 0.00096
16.65 0.00099
16.7 0.00077
16.75 0.00077
16.8 0.00044
16.85 0.0002
16.9 -0.0002
16.95 -0.00053
17 -0.00075
17.05 -0.00105
17.1 -0.00115
17.15 -0.00099
17.2 -0.00101
17.25 -0.00091
17.3 -0.00077
17.35 -0.00062
17.4 -0.00073
17.45 -0.00064
17.5 -0.00054
17.55 -0.00057
17.6 -0.00059
17.65 -0.00036
17.7 -0.00038
17.75 -0.00054
17.8 -0.00047
17.85 -0.0003
17.9 -0.00039
17.95 -0.00041
18 -0.00045
18.05 -0.00023
18.1 0.00012
18.15 0.00033
18.2 0.0007
18.25 0.00071
18.3 0.00075
18.35 0.00046
18.4 0.00005
18.45 -0.00005
18.5 -0.00005
18.55 0.00024
18.6 0.00051
18.65 0.00038
18.7 0.00035
18.75 0.00058
18.8 0.00087
18.85 0.00114
18.9 0.00137
18.95 0.00137
19 0.00101
19.05 0.00066
19.1 0.00023
19.15 0.00001
19.2 0.00001
19.25 0.00028
19.3 0.00024
19.35 0.00002
19.4 -0.00011
19.45 -0.00043
19.5 -0.00073
19.55 -0.00067
19.6 -0.0003
19.65 0.00012
19.7 0.00026
19.75 0.00036
19.8 0.00018
19.85 0.00015
19.9 0.00016
19.95 0.00024
20 0.00042
20.05 0.00032
20.1 0.00003
20.15 -0.0003
20.2 -0.00045
20.25 -0.00032
20.3 -0.00007
20.35 -0.00009
20.4 0.00018
20.45 0.00048
20.5 0.00088
20.55 0.00113
20.6 0.00123
20.65 0.00127
20.7 0.00094
20.75 0.0006
20.8 0.00059
20.85 0.00067
20.9 0.00048
20.95 0.00043
21 0.0004
21.05 0.00024
21.1 0.00025
21.15 -0.00001
21.2 -0.00031
21.25 -0.00057
21.3 -0.00085
21.35 -0.00108
21.4 -0.00089
21.45 -0.00048
21.5 0
21.55 0.0002
21.6 0.00052
21.65 0.00068
21.7 0.00101
21.75 0.00111
21.8 0.00115
21.85 0.00082
21.9 0.0004
21.95 0.00008
22 -0.00017
22.05 -0.00014
22.1 -0.00004
22.15 -0.00009
22.2 -0.00028
22.25 -0.0002
22.3 0.00004
22.35 -0.00011
22.4 -0.00042
22.45 -0.00052
22.5 -0.00055
22.55 -0.00034
22.6 -0.00029
22.65 -0.00004
22.7 0.00005
22.75 -0.00019
22.8 -0.00034
22.85 -0.00049
22.9 -0.00065
22.95 -0.00084
23 -0.00092
23.05 -0.00113
23.1 -0.00122
23.15 -0.00136
23.2 -0.00159
23.25 -0.00168
23.3 -0.0014
23.35 -0.0013
23.4 -0.00111
23.45 -0.00079
23.5 -0.00075
23.55 -0.00046
23.6 0.00001
23.65 0.00034
23.7 0.00068
23.75 0.00062
23.8 0.00033
23.85 0.00029
23.9 0.00038
23.95 0.00028
24 0.00013
24.05 -0.0001
24.1 -0.00025
24.15 -0.00058
24.2 -0.00085
24.25 -0.0011
24.3 -0.00111
24.35 -0.00108
24.4 -0.00102
24.45 -0.00059
24.5 -0.00021
24.55 -0.00022
24.6 -0.00022
24.65 -0.00024
24.7 -0
24.75 0.00045
24.8 0.00064
24.85 0.00049
24.9 0.00047
24.95 0.00052
25 0.00066
25.05 0.00097
25.1 0.00109
25.15 0.00108
25.2 0.00104
25.25 0.00118
25.3 0.00127
25.35 0.00112
25.4 0.00067
25.45 0.00015
25.5 -0.00027
25.55 -0.00061
25.6 -0.00082
25.65 -0.00116
25.7 -0.00111
25.75 -0.00087
25.8 -0.00064
25.85 -0.00069
25.9 -0.00046
25.95 -0.00053
26 -0.00026
26.05 -0.00013
26.1 0.00009
26.15 0.00032
26.2 0.00046
26.25 0.00073
26.3 0.0009
26.35 0.00104
26.4 0.00106
26.45 0.00123
26.5 0.00139
26.55 0.00138
26.6 0.00134
26.65 0.00148
26.7 0.00146
26.75 0.00105
26.8 0.00093
26.85 0.00056
26.9 0.00004
26.95 -0.00048
27 -0.00077
27.05 -0.00063
27.1 -0.00027
27.15 -0.00003
27.2 0.00009
27.25 0.00021
27.3 -0.00002
27.35 -0.00003
27.4 -0.00031
27.45 -0.00032
27.5 -0.00006
27.55 0.00005
27.6 0.00014
27.65 0.00043
27.7 0.00045
27.75 0.00016
27.8 -0.00001
27.85 -0.00009
27.9 -0.00042
27.95 -0.00037
28 -0.00057
28.05 -0.00075
28.1 -0.0006
28.15 -0.00045
28.2 -0.00011
28.25 -0.00017
28.3 -0.00005
28.35 -0.00022
28.4 -0.00002
28.45 0.00034
28.5 0.00039
28.55 0.00054
28.6 0.0007
28.65 0.00064
28.7 0.00047
28.75 0.00047
28.8 0.0007
28.85 0.00058
28.9 0.00053
28.95 0.00051
29 0.00023
29.05 0.00012
29.1 -0.00021
29.15 -0.00017
29.2 -0.00036
29.25 -0.00045
29.3 -0.00043
29.35 -0.00065
29.4 -0.00073
29.45 -0.00087
29.5 -0.00096
29.55 -0.00122
29.6 -0.0014
29.65 -0.00127
29.7 -0.00105
29.75 -0.0008
29.8 -0.00041
29.85 -0.00021
29.9 0.00018
29.95 0.00053
30 0.00042
30.05 0.00041
30.1 0.00057
30.15 0.00067
30.2 0.00043
30.25 0.00037
30.3 0.00034
30.35 0.00014
30.4 -0.00019
30.45 -0.00034
30.5 -0.00018
30.55 -0.00004
30.6 -0.00015
30.65 -0.00015
30.7 -0.00017
30.75 -0.00039
30.8 -0.00025
30.85 -0.00036
30.9 -0.0005
30.95 -0.00028
31 -0.00018
31.05 -0.00038
31.1 -0.00072
31.15 -0.00093
31.2 -0.00072
31.25 -0.00063
31.3 -0.00078
31.35 -0.00091
31.4 -0.00111
31.45 -0.00114
31.5 -0.00123
31.55 -0.00096
31.6 -0.00055
31.65 -0.00017
31.7 0.00034
31.75 0.00088
31.8 0.00129
31.85 0.00133
31.9 0.00139
31.95 0.00105
32 0.00068
32.05 0.00065
32.1 0.00038
32.15 0.00045
32.2 0.00028
32.25 0.0001
32.3 0.00017
32.35 0.00025
32.4 0.00005
32.45 0
32.5 0.00019
32.55 0.00023
32.6 0.00017
32.65 -0.00006
32.7 -0.0003
32.75 -0.00035
32.8 -0.00042
32.85 -0.0006
32.9 -0.00084
32.95 -0.00098
33 -0.00102
33.05 -0.00116
33.1 -0.00109
33.15 -0.00117
33.2 -0.00094
33.25 -0.00084
33.3 -0.00078
33.35 -0.00085
33.4 -0.00092
33.45 -0.00087
33.5 -0.00052
33.55 -0.00039
33.6 -0.00008
33.65 -0.00002
33.7 0.00018
33.75 0.00012
33.8 0.00013
33.85 0.0004
33.9 0.00069
33.95 0.00078
34 0.00054
34.05 0.00059
34.1 0.0007
34.15 0.00058
34.2 0.0004
34.25 0.00041
34.3 0.00059
34.35 0.0006
34.4 0.00082
34.45 0.00109
34.5 0.0012
34.55 0.00126
34.6 0.0014
34.65 0.00112
34.7 0.0008
34.75 0.00067
34.8 0.00048
34.85 0.00015
34.9 -0.00036
34.95 -0.00058
35 -0.00086
35.05 -0.00074
35.1 -0.00077
35.15 -0.00082
35.2 -0.00071
35.25 -0.0006
35.3 -0.00053
35.35 -0.00045
35.4 -0.00017
35.45 -0.00013
35.5 -0.00007
35.55 0.00015
35.6 0.00029
35.65 0.00009
35.7 0.00021
35.75 0.00002
35.8 0.00004
35.85 0.00014
35.9 0.00043
35.95 0.00048
36 0.00053
36.05 0.00059
36.1 0.00082
36.15 0.00106
36.2 0.00084
36.25 0.00072
36.3 0.00041
36.35 0.00035
36.4 0.00012
36.45 0.00011
36.5 -0.00029
36.55 -0.00082
36.6 -0.0011
36.65 -0.0015
36.7 -0.00167
36.75 -0.0018
36.8 -0.00222
36.85 -0.00235
36.9 -0.00253
36.95 -0.00301
37 -0.00341
37.05 -0.00377
37.1 -0.00467
37.15 -0.00547
37.2 -0.00666
37.25 -0.00822
37.3 -0.01
37.35 -0.01187
37.4 -0.014
37.45 -0.01617
37.5 -0.01836
37.55 -0.02106
37.6 -0.0238
37.65 -0.02674
37.7 -0.03042
37.75 -0.03462
37.8 -0.039
37.85 -0.04394
37.9 -0.04889
37.95 -0.05403
38 -0.05989
38.05 -0.06596
38.1 -0.07258
38.15 -0.07941
38.2 -0.08626
38.25 -0.09308
38.3 -0.10028
38.35 -0.10775
38.4 -0.11523
38.45 -0.12235
38.5 -0.12888
38.55 -0.13517
38.6 -0.14127
38.65 -0.14666
38.7 -0.15165
38.75 -0.15559
38.8 -0.15872
38.85 -0.1609
38.9 -0.16254
38.95 -0.16307
39 -0.1629
39.05 -0.16204
39.1 -0.1603
39.15 -0.15751
39.2 -0.15336
39.25 -0.14817
39.3 -0.14204
39.35 -0.13543
39.4 -0.12786
39.45 -0.11958
39.5 -0.11103
39.55 -0.10204
39.6 -0.09283
39.65 -0.08362
39.7 -0.07442
39.75 -0.06477
39.8 -0.05476
39.85 -0.04485
39.9 -0.03506
39.95 -0.02534
40 -0.01593
40.05 -0.00698
40.1 0.00186
40.15 0.01042
40.2 0.01862
40.25 0.02698
40.3 0.03543
40.35 0.04376
40.4 0.05164
40.45 0.05946
40.5 0.0668
40.55 0.07404
40.6 0.0809
40.65 0.08746
40.7 0.09404
40.75 0.10019
40.8 0.10633
40.85 0.11228
40.9 0.11791
40.95 0.12336
41 0.12809
41.05 0.13248
41.1 0.13643
41.15 0.14022
41.2 0.14389
41.25 0.14701
41.3 0.14961
41.35 0.15194
41.4 0.15359
41.45 0.15496
41.5 0.15598
41.55 0.15638
41.6 0.15637
41.65 0.15596
41.7 0.15544
41.75 0.15441
41.8 0.15329
41.85 0.1518
41.9 0.15007
41.95 0.14779
42 0.14536
42.05 0.14276
42.1 0.14008
42.15 0.13722
42.2 0.1342
42.25 0.13087
42.3 0.12709
42.35 0.12348
42.4 0.11969
42.45 0.11588
42.5 0.11232
42.55 0.1085
42.6 0.10466
42.65 0.10068
42.7 0.09698
42.75 0.09312
42.8 0.08945
42.85 0.08559
42.9 0.08152
42.95 0.07747
43 0.07352
43.05 0.06962
43.1 0.06612
43.15 0.06254
43.2 0.0593
43.25 0.05603
43.3 0.05254
43.35 0.04919
43.4 0.04606
43.45 0.04272
43.5 0.03976
43.55 0.03659
43.6 0.03342
43.65 0.0305
43.7 0.02742
43.75 0.02438
43.8 0.02171
43.85 0.01919
43.9 0.017
43.95 0.01471
44 0.01224
44.05 0.0101
44.1 0.00815
44.15 0.00604
44.2 0.00426
44.25 0.00229
44.3 0.00071
44.35 -0.00084
44.4 -0.00222
44.45 -0.00335
44.5 -0.00474
44.55 -0.00583
44.6 -0.00671
44.65 -0.0077
44.7 -0.00898
44.75 -0.01008
44.8 -0.01121
44.85 -0.01232
44.9 -0.01353
44.95 -0.01431
45 -0.01515
45.05 -0.0156
45.1 -0.01622
45.15 -0.01688
45.2 -0.01725
45.25 -0.01753
45.3 -0.01778
45.35 -0.01778
45.4 -0.01805
45.45 -0.01831
45.5 -0.01834
45.55 -0.01845
45.6 -0.01857
45.65 -0.01865
45.7 -0.01893
45.75 -0.01922
45.8 -0.01935
45.85 -0.01976
45.9 -0.02026
45.95 -0.02048
46 -0.02085
46.05 -0.02123
46.1 -0.02126
46.15 -0.0211
46.2 -0.0209
46.25 -0.02055
46.3 -0.02016
46.35 -0.0197
46.4 -0.01949
46.45 -0.01952
46.5 -0.01981
46.55 -0.01984
46.6 -0.01962
46.65 -0.01929
46.7 -0.01941
46.75 -0.01975
46.8 -0.01972
46.85 -0.01947
46.9 -0.01927
46.95 -0.0192
47 -0.01933
47.05 -0.01949
47.1 -0.01958
47.15 -0.01975
47.2 -0.01984
47.25 -0.01974
47.3 -0.01959
47.35 -0.0192
47.4 -0.01863
47.45 -0.01834
47.5 -0.01809
47.55 -0.01788
47.6 -0.01775
47.65 -0.01732
47.7 -0.01707
47.75 -0.01667
47.8 -0.01628
47.85 -0.01587
47.9 -0.01544
47.95 -0.01531
48 -0.01501
48.05 -0.01469
48.1 -0.01483
48.15 -0.0148
48.2 -0.01461
48.25 -0.01447
48.3 -0.01426
48.35 -0.0144
48.4 -0.01469
48.45 -0.01461
48.5 -0.01478
48.55 -0.01461
48.6 -0.0145
48.65 -0.0144
48.7 -0.01437
48.75 -0.01446
48.8 -0.01418
48.85 -0.01401
48.9 -0.01396
48.95 -0.0137
49 -0.01315
49.05 -0.01288
49.1 -0.01269
49.15 -0.01231
49.2 -0.01205
49.25 -0.01195
49.3 -0.01171
49.35 -0.01164
49.4 -0.01166
49.45 -0.0114
49.5 -0.01128
49.55 -0.0111
49.6 -0.01093
49.65 -0.01081
49.7 -0.01057
49.75 -0.01026
49.8 -0.01003
49.85 -0.00997
49.9 -0.00971
49.95 -0.00946
50 -0.00922
50.05 -0.00913
50.1 -0.00902
50.15 -0.00881
50.2 -0.00845
50.25 -0.00805
50.3 -0.00771
50.35 -0.00733
50.4 -0.00724
50.45 -0.00711
50.5 -0.0072
50.55 -0.00742
50.6 -0.00768
50.65 -0.00768
50.7 -0.00757
50.75 -0.00771
50.8 -0.00771
50.85 -0.00742
50.9 -0.00732
50.95 -0.00698
51 -0.00667
51.05 -0.00624
51.1 -0.00604
51.15 -0.00605
51.2 -0.00607
51.25 -0.00607
51.3 -0.00603
51.35 -0.00579
51.4 -0.00572
51.45 -0.00548
51.5 -0.00522
51.55 -0.00478
51.6 -0.00464
51.65 -0.00473
51.7 -0.00479
51.75 -0.00481
51.8 -0.0051
51.85 -0.00549
51.9 -0.00556
51.95 -0.00531
52 -0.005
52.05 -0.00455
52.1 -0.00446
52.15 -0.0045
52.2 -0.00436
52.25 -0.00446
52.3 -0.00432
52.35 -0.00399
52.4 -0.00366
52.45 -0.00322
52.5 -0.00305
52.55 -0.00313
52.6 -0.00324
52.65 -0.00313
52.7 -0.00291
52.75 -0.00273
52.8 -0.003
52.85 -0.00326
52.9 -0.00331
52.95 -0.00324
53 -0.0035
53.05 -0.00348
53.1 -0.00365
53.15 -0.0038
53.2 -0.00383
53.25 -0.00395
53.3 -0.00418
53.35 -0.00428
53.4 -0.00424
53.45 -0.00435
53.5 -0.00444
53.55 -0.00421
53.6 -0.0037
53.65 -0.00334
53.7 -0.00334
53.75 -0.00329
53.8 -0.00347
53.85 -0.00333
53.9 -0.003
53.95 -0.00302
54 -0.0029
54.05 -0.00279
54.1 -0.00277
54.15 -0.00286
54.2 -0.00314
54.25 -0.00298
54.3 -0.00298
54.35 -0.00299
54.4 -0.00294
54.45 -0.00259
54.5 -0.00242
54.55 -0.00214
54.6 -0.002
54.65 -0.00193
54.7 -0.00207
54.75 -0.002
54.8 -0.00195
54.85 -0.00194
54.9 -0.0022
54.95 -0.00237
55 -0.00257
55.05 -0.00265
55.1 -0.00239
55.15 -0.0022
55.2 -0.00187
55.25 -0.00138
55.3 -0.00123
55.35 -0.00104
55.4 -0.00124
55.45 -0.00133
55.5 -0.00144
55.55 -0.0015
55.6 -0.00127
55.65 -0.00128
55.7 -0.00158
55.75 -0.00182
55.8 -0.00168
55.85 -0.00132
55.9 -0.00123
55.95 -0.00144
56 -0.00184
56.05 -0.00194
56.1 -0.002
56.15 -0.002
56.2 -0.00203
56.25 -0.00226
56.3 -0.00241
56.35 -0.00212
56.4 -0.00206
56.45 -0.00204
56.5 -0.00174
56.55 -0.00131
56.6 -0.00082
56.65 -0.00073
56.7 -0.00096
56.75 -0.00096
56.8 -0.00098
56.85 -0.00128
56.9 -0.00162
56.95 -0.00191
57 -0.00187
57.05 -0.00188
57.1 -0.0016
57.15 -0.00153
57.2 -0.00162
57.25 -0.00184
57.3 -0.00161
57.35 -0.00136
57.4 -0.00129
57.45 -0.00144
57.5 -0.00154
57.55 -0.00161
57.6 -0.00186
57.65 -0.00176
57.7 -0.00146
57.75 -0.00142
57.8 -0.00117
57.85 -0.00093
57.9 -0.00057
57.95 -0.00056
58 -0.00069
58.05 -0.00078
58.1 -0.00097
58.15 -0.00107
58.2 -0.00096
58.25 -0.00058
58.3 -0.00011
58.35 0.00039
58.4 0.00086
58.45 0.00098
58.5 0.00067
58.55 0.00055
58.6 0.00029
58.65 0.00018
58.7 0.0002
58.75 0.0002
58.8 0.00013
58.85 -0.00008
58.9 0.00004
58.95 -0.00006
59 -0.00038
59.05 -0.00046
59.1 -0.00059
59.15 -0.00043
59.2 -0.00017
59.25 -0.00008
59.3 -0.00029
59.35 -0.00053
59.4 -0.00064
59.45 -0.00051
59.5 -0.00059
59.55 -0.00056
59.6 -0.00079
59.65 -0.00086
59.7 -0.00105
59.75 -0.0014
59.8 -0.00147
59.85 -0.00165
59.9 -0.00147
59.95 -0.00099
60 -0.00086
60.05 -0.00084
60.1 -0.00096
60.15 -0.00087
60.2 -0.00087
60.25 -0.00089
60.3 -0.00111
60.35 -0.00106
60.4 -0.00119
60.45 -0.00123
60.5 -0.00134
60.55 -0.0015
60.6 -0.00175
60.65 -0.00149
60.7 -0.00145
60.75 -0.00126
60.8 -0.00093
60.85 -0.00088
60.9 -0.00091
60.95 -0.00109
61 -0.00115
61.05 -0.00113
61.1 -0.00073
61.15 -0.00012
61.2 0.00057
61.25 0.00125
61.3 0.00168
61.35 0.00167
61.4 0.00138
61.45 0.00103
61.5 0.00089
61.55 0.00048
61.6 0.00034
61.65 0.00008
61.7 -0.00009
61.75 -0.00014
61.8 -0.00031
61.85 -0.00059
61.9 -0.00059
61.95 -0.00053
62 -0.00045
62.05 -0.00059
62.1 -0.00079
62.15 -0.00102
62.2 -0.00079
62.25 -0.00036
62.3 -0.0003
62.35 -0.00043
62.4 -0.0006
62.45 -0.00055
62.5 -0.00018
62.55 0.00035
62.6 0.00089
62.65 0.00107
62.7 0.00125
62.75 0.00136
62.8 0.00155
62.85 0.00181
62.9 0.00195
62.95 0.00182
63 0.00151
63.05 0.00101
63.1 0.00057
63.15 0.00014
63.2 -0.0003
63.25 -0.00044
63.3 -0.00067
63.35 -0.00086
63.4 -0.00101
63.45 -0.00105
63.5 -0.00071
63.55 -0.00057
63.6 -0.00054
63.65 -0.00057
63.7 -0.00035
63.75 -0.0002
63.8 -0.00024
63.85 -0.0001
63.9 -0.00001
63.95 -0.00025
64 -0.00013
64.05 -0.00031
64.1 -0.00049
64.15 -0.00051
64.2 -0.00026
64.25 -0.00012
64.3 -0.00026
64.35 -0.00051
64.4 -0.00083
64.45 -0.00077
64.5 -0.00081
64.55 -0.00095
64.6 -0.0007
64.65 -0.00061
64.7 -0.00038
64.75 -0.00024
64.8 -0.00007
64.85 -0.00007
64.9 0.00008
64.95 0.00044
65 0.00076
65.05 0.00081
65.1 0.00081
65.15 0.00064
65.2 0.00031
65.25 0.00032
65.3 0.00039
65.35 0.0006
65.4 0.00042
65.45 0.00051
65.5 0.00034
65.55 0.00007
65.6 -0.00015
65.65 -0.00011
65.7 -0.00014
65.75 -0.00029
65.8 -0.00044
65.85 -0.00053
65.9 -0.00053
65.95 -0.00053
66 -0.00057
66.05 -0.00037
66.1 -0.00005
66.15 0.00017
66.2 0.00031
66.25 0.00013
66.3 0
66.35 -0.00021
66.4 -0.0001
66.45 -0.00015
66.5 0.00007
66.55 -0.00004
66.6 -0.00016
66.65 -0.00037
66.7 -0.00057
66.75 -0.00091
66.8 -0.0008
66.85 -0.00089
66.9 -0.00107
66.95 -0.00107
67 -0.0008
67.05 -0.00064
67.1 -0.00062
67.15 -0.00075
67.2 -0.00099
67.25 -0.00124
67.3 -0.00102
67.35 -0.00106
67.4 -0.00113
67.45 -0.00127
67.5 -0.00107
67.55 -0.0009
67.6 -0.00091
67.65 -0.00085
67.7 -0.00054
67.75 -0.00049
67.8 -0.00058
67.85 -0.00074
67.9 -0.00047
67.95 -0.00001
68 0.0006
68.05 0.00073
68.1 0.00078
68.15 0.00077
68.2 0.00048
68.25 0.00041
68.3 0.00017
68.35 -0.00012
68.4 -0.00003
68.45 0.00013
68.5 0.00048
68.55 0.00042
68.6 0.00031
68.65 0.00048
68.7 0.00066
68.75 0.00064
68.8 0.00035
68.85 0.00015
68.9 0.00011
68.95 0.00031
69 0.00038
69.05 0.00061
69.1 0.00055
69.15 0.00076
69.2 0.00067
69.25 0.00037
69.3 0.00042
69.35 0.00059
69.4 0.00056
69.45 0.0003
69.5 0.00023
69.55 0.00028
69.6 0.00023
69.65 0.00007
69.7 0.00019
69.75 -0.00001
69.8 0.00006
69.85 0.00006
69.9 -0.00011
69.95 -0.00021
70 0.00003
70.05 0.0004
70.1 0.00045
70.15 0.00032
70.2 0.00041
70.25 0.00057
70.3 0.00048
70.35 0.00063
70.4 0.00079
70.45 0.00091
70.5 0.00077
70.55 0.00045
70.6 0.00014
70.65 0.00015
70.7 0.00024
70.75 0.00006
70.8 0.00004
70.85 -0.00022
70.9 -0.00014
70.95 -0.00017
71 0.00008
71.05 0.00009
71.1 -0.00009
71.15 -0.00004
71.2 -0.00016
71.25 -0.00011
71.3 0.00018
71.35 0.00038
71.4 0.00026
71.45 0.00012
71.5 0.00029
71.55 0.00059
71.6 0.00055
71.65 0.0003
71.7 0.00033
71.75 0.00055
71.8 0.00035
71.85 0.00032
71.9 0.00036
71.95 0.00038
72 0.00028
72.05 0.00025
72.1 0.00016
72.15 0.0001
72.2 0.00016
72.25 0.0003
72.3 0.00027
72.35 0.00004
72.4 -0.00007
72.45 -0.00032
72.5 -0.00025
72.55 -0.00017
72.6 -0.00031
72.65 -0.00066
72.7 -0.00067
72.75 -0.00046
72.8 -0.00008
72.85 0.00023
72.9 0.00036
72.95 0.00034
73 0.00014
73.05 0.00016
73.1 -0.00006
73.15 -0.00038
73.2 -0.00082
73.25 -0.00077
73.3 -0.00041
73.35 -0.00039
73.4 -0.00012
73.45 0.00006
73.5 -0.00004
73.55 -0.00007
73.6 -0.00013
73.65 0.00007
73.7 0.00007
73.75 -0.00001
73.8 -0.00033
73.85 -0.00078
73.9 -0.00121
73.95 -0.00135
74 -0.00114
74.05 -0.00092
74.1 -0.00081
74.15 -0.0007
74.2 -0.00034
74.25 -0.00012
74.3 0.00012
74.35 0.00038
74.4 0.00043
74.45 0.00061
74.5 0.00052
74.55 0.00067
74.6 0.00072
74.65 0.00064
74.7 0.00047
74.75 0.00056
74.8 0.00032
74.85 -0.00015
74.9 -0.00046
74.95 -0.00066
75 -0.00054
75.05 -0.00043
75.1 -0.00009
75.15 0.0002
75.2 0.00044
75.25 0.00045
75.3 0.00057
75.35 0.00069
75.4 0.00061
75.45 0.00027
75.5 -0.00025
75.55 -0.00054
75.6 -0.00092
75.65 -0.00098
75.7 -0.00079
75.75 -0.00037
75.8 0.00008
75.85 0.0006
75.9 0.00062
75.95 0.00033
76 0.00005
76.05 -0.00039
76.1 -0.00079
76.15 -0.00104
76.2 -0.00113
76.25 -0.00084
76.3 -0.00059
76.35 -0.00015
76.4 0.00001
76.45 0.00002
76.5 0.00002
76.55 0.0003
76.6 0.00023
76.65 0
76.7 -0.00031
76.75 -0.00047
76.8 -0.00056
76.85 -0.00033
76.9 -0.00007
76.95 0.00039
77 0.00043
77.05 0.00042
77.1 0.00061
77.15 0.00067
77.2 0.0005
77.25 0.00007
77.3 0.00004
77.35 -0.00007
77.4 -0.00015
77.45 -0.00045
77.5 -0.00084
77.55 -0.00104
77.6 -0.00115
77.65 -0.00113
77.7 -0.0012
77.75 -0.00142
77.8 -0.00137
77.85 -0.00145
77.9 -0.00126
77.95 -0.00125
78 -0.0013
78.05 -0.00135
78.1 -0.0014
78.15 -0.00116
78.2 -0.00064
78.25 0.00004
78.3 0.00048
78.35 0.00061
78.4 0.00086
78.45 0.00097
78.5 0.00093
78.55 0.00083
78.6 0.00054
78.65 0.0001
78.7 -0.00019
78.75 -0.00059
78.8 -0.00053
78.85 -0.00053
78.9 -0.00065
78.95 -0.00052
79 -0.00056
79.05 -0.00077
79.1 -0.00103
79.15 -0.00129
79.2 -0.00106
79.25 -0.00063
79.3 0
79.35 0.00029
79.4 0.00065
79.45 0.00078
79.5 0.00067
79.55 0.00054
79.6 0.00029
79.65 -0.00007
79.7 -0.00004
79.75 -0.00011
79.8 -0.00022
79.85 -0.00014
79.9 0.00013
79.95 0.00026
80 0.00028
80.05 0.00041
80.1 0.00077
80.15 0.00104
80.2 0.00124
80.25 0.00105
80.3 0.00093
80.35 0.00056
80.4 0.00018
80.45 -0.00017
80.5 -0.00057
80.55 -0.00046
80.6 -0.00051
80.65 -0.00069
80.7 -0.00086
80.75 -0.00116
80.8 -0.00127
80.85 -0.00143
80.9 -0.00165
80.95 -0.00161
81 -0.00122
81.05 -0.00077
81.1 -0.00041
81.15 -0.00029
81.2 0.0001
81.25 0.00035
81.3 0.00079
81.35 0.00119
81.4 0.00147
81.45 0.00128
81.5 0.00107
81.55 0.00086
81.6 0.00065
81.65 0.00038
81.7 0.00033
81.75 0.00042
81.8 0.00071
81.85 0.0009
81.9 0.0011
81.95 0.00101
82 0.00067
82.05 0.00023
82.1 0.00004
82.15 -0.00012
82.2 -0.00042
82.25 -0.00075
82.3 -0.00094
82.35 -0.00082
82.4 -0.00048
82.45 -0.00003
82.5 0.00001
82.55 0.00032
82.6 0.00031
82.65 0.00014
82.7 0.00011
82.75 0.00009
82.8 0.00016
82.85 0.00044
82.9 0.00083
82.95 0.00121
83 0.00117
83.05 0.00118
83.1 0.00088
83.15 0.00085
83.2 0.0009
83.25 0.00094
83.3 0.00113
83.35 0.00089
83.4 0.00048
83.45 -0.00009
83.5 -0.00036
83.55 -0.00069
83.6 -0.00101
83.65 -0.00114
83.7 -0.00097
83.75 -0.00077
83.8 -0.00042
83.85 0.00004
83.9 0.0005
83.95 0.00065
84 0.0009
84.05 0.00094
84.1 0.00113
84.15 0.00118
84.2 0.00134
84.25 0.00123
84.3 0.00103
84.35 0.00104
84.4 0.00098
84.45 0.00106
84.5 0.00103
84.55 0.00077
84.6 0.00073
84.65 0.00038
84.7 0.00021
84.75 -0.0002
84.8 -0.00023
84.85 -0.00026
84.9 -0.00047
84.95 -0.00042
85 -0.00061
85.05 -0.00076
85.1 -0.00085
85.15 -0.00061
85.2 -0.00029
85.25 -0.00031
85.3 -0.00041
85.35 -0.0002
85.4 0.00022
85.45 0.00058
85.5 0.00099
85.55 0.0012
85.6 0.00123
85.65 0.00101
85.7 0.00052
85.75 0.00004
85.8 -0.00045
85.85 -0.00079
85.9 -0.00082
85.95 -0.00073
86 -0.00038
86.05 -0.00042
86.1 -0.0004
86.15 -0.00039
86.2 -0.00039
86.25 -0.00064
86.3 -0.00053
86.35 -0.00041
86.4 -0.00016
86.45 0.00021
86.5 0.0004
86.55 0.00066
86.6 0.00086
86.65 0.00069
86.7 0.0006
86.75 0.00054
86.8 0.00029
86.85 0.00018
86.9 0.00004
86.95 0.00017
87 -0.00002
87.05 0.00004
87.1 0.00009
87.15 -0.00006
87.2 -0.00017
87.25 -0.00043
87.3 -0.00046
87.35 -0.00062
87.4 -0.00054
87.45 -0.0007
87.5 -0.001
87.55 -0.00108
87.6 -0.00111
87.65 -0.001
87.7 -0.00098
87.75 -0.00085
87.8 -0.00046
87.85 -0.00035
87.9 -0.00052
87.95 -0.00044
88 -0.0004
88.05 -0.00026
88.1 -0.00043
88.15 -0.00064
88.2 -0.00075
88.25 -0.00062
88.3 -0.00071
88.35 -0.00089
88.4 -0.00081
88.45 -0.00093
88.5 -0.00092
88.55 -0.00076
88.6 -0.00084
88.65 -0.00089
88.7 -0.00057
88.75 -0.00054
88.8 -0.00067
88.85 -0.00097
88.9 -0.00095
88.95 -0.00072
89 -0.00053
89.05 -0.00054
89.1 -0.00067
89.15 -0.00096
89.2 -0.00086
89.25 -0.00091
89.3 -0.00072
89.35 -0.00061
89.4 -0.0002
89.45 -0.00009
89.5 0.00019
89.55 0.00054
89.6 0.00091
89.65 0.00123
89.7 0.00152
89.75 0.00162
89.8 0.00177
89.85 0.00167
89.9 0.00132
89.95 0.00109
90 0.00102
90.05 0.00081
90.1 0.00055
90.15 0.0001
90.2 -0.00012
90.25 -0.00012
90.3 -0.0001
90.35 -0.00008
90.4 0.00003
90.45 -0.00009
90.5 -0.00017
90.55 0.00006
90.6 0.00036
90.65 0.0007
90.7 0.00064
90.75 0.00045
90.8 0.00002
90.85 -0.00031
90.9 -0.00028
90.95 -0.00009
91 0.00033
91.05 0.0003
91.1 0.00029
91.15 0.00013
91.2 -0.00004
91.25 -0.00041
91.3 -0.00032
91.35 -0.00033
91.4 -0.00003
91.45 0.00034
91.5 0.00043
91.55 0.00037
91.6 0.00023
91.65 0.00026
91.7 0.00032
91.75 0.00011
91.8 0.00012
91.85 0.00013
91.9 0.00018
91.95 0.00034
92 0.00034
92.05 0.00047
92.1 0.00035
92.15 0.00002
92.2 -0.00014
92.25 -0.00031
92.3 -0.00018
92.35 0.00006
92.4 0.00006
92.45 0.00015
92.5 0.00048
92.55 0.00069
92.6 0.00049
92.65 0.0003
92.7 0.0002
92.75 0.00034
92.8 0.0003
92.85 0.00013
92.9 0.00023
92.95 0.00028
93 0.00019
93.05 0.00006
93.1 0.00002
93.15 0.00006
93.2 0.00014
93.25 0.00037
93.3 0.00032
93.35 0.00036
93.4 0.00032
93.45 0.00021
93.5 0.00005
93.55 -0.00006
93.6 -0.00016
93.65 -0.0003
93.7 -0.00045
93.75 -0.00078
93.8 -0.00116
93.85 -0.00114
93.9 -0.00109
93.95 -0.00074
94 -0.00053
94.05 -0.0001
94.1 0.00038
94.15 0.00054
94.2 0.00042
94.25 0.00042
94.3 0.00061
94.35 0.00087
94.4 0.00099
94.45 0.001
94.5 0.00119
94.55 0.00108
94.6 0.00071
94.65 0.00063
94.7 0.00075
94.75 0.00089
94.8 0.00093
94.85 0.00092
94.9 0.00083
94.95 0.00061
95 0.00046
95.05 0.00035
95.1 0.00022
95.15 0.00012
95.2 0.00017
95.25 0.00033
95.3 0.00021
95.35 -0.00018
95.4 -0.00048
95.45 -0.00092
95.5 -0.00112
95.55 -0.00135
95.6 -0.00127
95.65 -0.0014
95.7 -0.00159
95.75 -0.00171
95.8 -0.00174
95.85 -0.00145
95.9 -0.00132
95.95 -0.00104
96 -0.00088
96.05 -0.00071
96.1 -0.00072
96.15 -0.00052
96.2 -0.00023
96.25 0.00007
96.3 0.00013
96.35 0.00039
96.4 0.0008
96.45 0.00108
96.5 0.00107
96.55 0.00075
96.6 0.00041
96.65 0.00027
96.7 -0.00002
96.75 -0.00027
96.8 -0.00017
96.85 -0.00022
96.9 -0.0005
96.95 -0.00045
97 -0.00029
97.05 -0.0004
97.1 -0.00045
97.15 -0.00042
97.2 -0.00014
97.25 -0.00018
97.3 -0.00027
97.35 -0.0005
97.4 -0.00047
97.45 -0.00042
97.5 -0.00011
97.55 0.00002
97.6 -0.00019
97.65 -0.0004
97.7 -0.00042
97.75 -0.00035
97.8 -0
97.85 -0.00006
97.9 0.00019
97.95 0.00045
98 0.00059
98.05 0.00076
98.1 0.00072
98.15 0.00056
98.2 0.00044
98.25 0.00024
98.3 0.00009
98.35 -0.00028
98.4 -0.00035
98.45 -0.00062
98.5 -0.00093
98.55 -0.00121
98.6 -0.00146
98.65 -0.00137
98.7 -0.00127
98.75 -0.00117
98.8 -0.00118
98.85 -0.00124
98.9 -0.00098
98.95 -0.00074
99 -0.00065
99.05 -0.00035
99.1 0.00005
99.15 0.00038
99.2 0.00032
99.25 0.00042
99.3 0.00032
99.35 0.00048
99.4 0.00065
99.45 0.00045
99.5 0.00042
99.55 0.00052
99.6 0.00074
99.65 0.00098
99.7 0.00122
99.75 0.00117
99.8 0.00087
99.85 0.00056
99.9 0.0006
99.95 0.00074
