0 0
0.05 0.00094
0.1 0.00236
0.15 0.00424
0.2 0.00605
0.25 0.00699
0.3 0.0077
0.35 0.00796
0.4 0.00795
0.45 0.0084
0.5 0.00816
0.55 0.0075
0.6 0.00683
0.65 0.00675
0.7 0.00649
0.75 0.00609
0.8 0.00547
0.85 0.00544
0.9 0.00529
0.95 0.00559
1 0.00542
1.05 0.00517
1.1 0.00499
1.15 0.00493
1.2 0.00501
1.25 0.00554
1.3 0.00532
1.35 0.00529
1.4 0.00542
1.45 0.00507
1.5 0.00495
1.55 0.00439
1.6 0.00354
1.65 0.00331
1.7 0.00342
1.75 0.00359
1.8 0.00319
1.85 0.00266
1.9 0.00262
1.95 0.00295
2 0.00314
2.05 0.00397
2.1 0.00478
2.15 0.00577
2.2 0.00568
2.25 0.00534
2.3 0.00469
2.35 0.004
2.4 0.00316
2.45 0.00282
2.5 0.00329
2.55 0.00369
2.6 0.00411
2.65 0.00435
2.7 0.00418
2.75 0.00443
2.8 0.00491
2.85 0.00451
2.9 0.00445
2.95 0.0045
3 0.00454
3.05 0.00439
3.1 0.00436
3.15 0.00411
3.2 0.00345
3.25 0.00319
3.3 0.00314
3.35 0.00352
3.4 0.00348
3.45 0.00287
3.5 0.00205
3.55 0.00205
3.6 0.00149
3.65 0.0014
3.7 0.00131
3.75 0.00113
3.8 0.00163
3.85 0.00146
3.9 0.00148
3.95 0.00203
4 0.00234
4.05 0.00279
4.1 0.00346
4.15 0.00422
4.2 0.00421
4.25 0.0037
4.3 0.00323
4.35 0.00324
4.4 0.00273
4.45 0.00284
4.5 0.00284
4.55 0.00246
4.6 0.00251
4.65 0.00253
4.7 0.00299
4.75 0.00279
4.8 0.00214
4.85 0.00125
4.9 0.00013
4.95 -0.00004
5 -0.00012
5.05 -0.00044
5.1 -0.00085
5.15 -0.00032
5.2 0.00015
5.25 0.00099
5.3 0.00209
5.35 0.00223
5.4 0.00196
5.45 0.0023
5.5 0.00193
5.55 0.00188
5.6 0.00157
5.65 0.00196
5.7 0.002
5.75 0.00243
5.8 0.00266
5.85 0.00206
5.9 0.00172
5.95 0.00107
6 0.00012
6.05 -0.00022
6.1 -0.00065
6.15 -0.00052
6.2 0.00002
6.25 0.00101
6.3 0.00157
6.35 0.00247
6.4 0.00282
6.45 0.00309
6.5 0.00264
6.55 0.00259
6.6 0.00291
6.65 0.00288
6.7 0.00322
6.75 0.00268
6.8 0.00256
6.85 0.00278
6.9 0.00332
6.95 0.00284
7 0.00219
7.05 0.00189
7.1 0.00169
7.15 0.00129
7.2 0.00059
7.25 -0.00012
7.3 -0.00053
7.35 -0.00127
7.4 -0.00111
7.45 -0.00107
7.5 -0.00084
7.55 -0.00084
7.6 -0.00056
7.65 -0.00068
7.7 -0.0012
7.75 -0.00163
7.8 -0.00187
7.85 -0.0015
7.9 -0.00163
7.95 -0.00107
8 -0.0002
8.05 0.00065
8.1 0.00178
8.15 0.00224
8.2 0.0029
8.25 0.00331
8.3 0.00391
8.35 0.00439
8.4 0.00418
8.45 0.00363
8.5 0.00323
8.55 0.00223
8.6 0.002
8.65 0.00201
8.7 0.00176
8.75 0.00102
8.8 -0.00003
8.85 -0.0004
8.9 -0.00029
8.95 -0.00027
9 0.00005
9.05 0.0002
9.1 0.00014
9.15 -0.00017
9.2 0.00022
9.25 0.00092
9.3 0.00132
9.35 0.00204
9.4 0.00292
9.45 0.003
9.5 0.00338
9.55 0.0039
9.6 0.00394
9.65 0.00376
9.7 0.00278
9.75 0.00178
9.8 0.00048
9.85 -0.00056
9.9 -0.00133
9.95 -0.00217
10 -0.00232
10.05 -0.00285
10.1 -0.00318
10.15 -0.00295
10.2 -0.00314
10.25 -0.00277
10.3 -0.00197
10.35 -0.00095
10.4 -0.00073
10.45 -0.00073
10.5 -0.00022
10.55 -0.00017
10.6 -0.00055
10.65 -0.00019
10.7 0.0006
10.75 0.00076
10.8 0.00062
10.85 0.00047
10.9 0.00072
10.95 0.00037
11 0.00031
11.05 0.00022
11.1 -0.00002
11.15 0.00015
11.2 0.00037
11.25 -0.00003
11.3 -0.00029
11.35 -0.00079
11.4 -0.00073
11.45 -0.00065
11.5 -0.00066
11.55 -0.00123
11.6 -0.00136
11.65 -0.00137
11.7 -0.00175
11.75 -0.00241
11.8 -0.00234
11.85 -0.00249
11.9 -0.00198
11.95 -0.00111
12 -0.00062
12.05 0.00033
12.1 0.00081
12.15 0.00141
12.2 0.00197
12.25 0.00265
12.3 0.00242
12.35 0.00246
12.4 0.00193
12.45 0.00129
12.5 0.00044
12.55 0.00046
12.6 0.00095
12.65 0.00164
12.7 0.00173
12.75 0.00116
12.8 0.00021
12.85 -0.00046
12.9 -0.00116
12.95 -0.0021
13 -0.00293
13.05 -0.00277
13.1 -0.00188
13.15 -0.00117
13.2 -0.0006
13.25 0.00018
13.3 0.0005
13.35 0.00042
13.4 0.00044
13.45 0.00071
13.5 0.00062
13.55 0.00094
13.6 0.0007
13.65 0.00034
13.7 0.00037
13.75 0.0002
13.8 0.00001
13.85 -0.00054
13.9 -0.00123
13.95 -0.0013
14 -0.0008
14.05 0.00013
14.1 0.00014
14.15 0.00037
14.2 0.00047
14.25 0.00057
14.3 0.00004
14.35 -0.0007
14.4 -0.00153
14.45 -0.00188
14.5 -0.00148
14.55 -0.00087
14.6 -0.00054
14.65 -0.00063
14.7 -0.00036
14.75 -0.00036
14.8 0.00027
14.85 0.0003
14.9 -0.00028
14.95 -0.00095
15 -0.00184
15.05 -0.00268
15.1 -0.00292
15.15 -0.00291
15.2 -0.00267
15.25 -0.00199
15.3 -0.00174
15.35 -0.00096
15.4 -0.00086
15.45 -0.00022
15.5 0.00005
15.55 0.00085
15.6 0.00158
15.65 0.00173
15.7 0.00161
15.75 0.0011
15.8 0.00064
15.85 0.00072
15.9 0.00045
15.95 0.00058
16 0.00098
16.05 0.00134
16.1 0.00109
16.15 0.00105
16.2 0.00038
16.25 -0.00024
16.3 -0.00068
16.35 -0.001
16.4 -0.00116
16.45 -0.0011
16.5 -0.00138
16.55 -0.00122
16.6 -0.00141
16.65 -0.00105
16.7 -0.00123
16.75 -0.00081
16.8 -0.00081
16.85 -0.00127
16.9 -0.00124
16.95 -0.00153
17 -0.0013
17.05 -0.0012
17.1 -0.00074
17.15 -0.00086
17.2 -0.00039
17.25 -0.00012
17.3 0.00044
17.35 0.00047
17.4 0.0005
17.45 0.00037
17.5 0.00072
17.55 0.00147
17.6 0.00149
17.65 0.00182
17.7 0.00185
17.75 0.0014
17.8 0.00108
17.85 0.00083
17.9 0.00042
17.95 0.00032
18 0.00023
18.05 0.00046
18.1 0.001
18.15 0.00071
18.2 0.00051
18.25 0.00033
18.3 -0.00001
18.35 -0.00041
18.4 -0.00065
18.45 -0.00096
18.5 -0.00155
18.55 -0.00118
18.6 -0.00091
18.65 -0.00007
18.7 0.00025
18.75 0.0004
18.8 0.00061
18.85 0.00126
18.9 0.00129
18.95 0.00068
19 0.00056
19.05 0.00065
19.1 0.00106
19.15 0.00163
19.2 0.00173
19.25 0.00161
19.3 0.00165
19.35 0.00205
19.4 0.00216
19.45 0.00156
19.5 0.00153
19.55 0.00093
19.6 0.001
19.65 0.00119
19.7 0.00116
19.75 0.0005
19.8 0.00011
19.85 -0.00028
19.9 -0.00113
19.95 -0.00147
20 -0.00151
20.05 -0.0015
20.1 -0.00112
20.15 -0.00126
20.2 -0.00121
20.25 -0.00097
20.3 -0.00072
20.35 -0.00085
20.4 -0.00083
20.45 -0.00014
20.5 0.00034
20.55 0.00041
20.6 0.00021
20.65 -0.00011
20.7 -0.00024
20.75 -0.0003
20.8 0.00002
20.85 0.00071
20.9 0.00075
20.95 0.00047
21 0.00015
21.05 0.00003
21.1 0.00027
21.15 0.00047
21.2 0.00069
21.25 0.00061
21.3 0.00108
21.35 0.00176
21.4 0.00263
21.45 0.00274
21.5 0.00309
21.55 0.00284
21.6 0.0021
21.65 0.00173
21.7 0.00187
21.75 0.00198
21.8 0.00201
21.85 0.00128
21.9 0.00087
21.95 0.00012
22 -0.00029
22.05 -0.0003
22.1 -0.00003
22.15 0.0001
22.2 0.00029
22.25 0.00032
22.3 -0.00028
22.35 -0.00056
22.4 -0.00109
22.45 -0.00131
22.5 -0.00128
22.55 -0.00073
22.6 -0.00038
22.65 -0.00004
22.7 -0.00031
22.75 -0.00022
22.8 0.00044
22.85 0.0003
22.9 0.00026
22.95 -0.00015
23 -0.00049
23.05 -0.0011
23.1 -0.00197
23.15 -0.00257
23.2 -0.00266
23.25 -0.00245
23.3 -0.00262
23.35 -0.00242
23.4 -0.00229
23.45 -0.00266
23.5 -0.00225
23.55 -0.0022
23.6 -0.00187
23.65 -0.00178
23.7 -0.00113
23.75 -0.0003
23.8 0.00041
23.85 0.00049
23.9 0.0009
23.95 0.0012
24 0.00108
24.05 0.00048
24.1 0.00004
24.15 -0.00049
24.2 -0.00035
24.25 -0.00023
24.3 -0.00064
24.35 -0.00085
24.4 -0.00101
24.45 -0.00145
24.5 -0.0014
24.55 -0.00178
24.6 -0.00169
24.65 -0.00135
24.7 -0.00061
24.75 0.00005
24.8 0.00066
24.85 0.00052
24.9 -0.00021
24.95 -0.00048
25 -0.00002
25.05 0.00072
25.1 0.00066
25.15 0.00046
25.2 0.00086
25.25 0.00043
25.3 -0.00022
25.35 -0.00095
25.4 -0.00134
25.45 -0.00143
25.5 -0.00119
25.55 -0.00056
25.6 0.00049
25.65 0.0008
25.7 0.00068
25.75 0.00109
25.8 0.00066
25.85 0.00088
25.9 0.0009
25.95 0.00136
26 0.00129
26.05 0.00123
26.1 0.00154
26.15 0.00134
26.2 0.00098
26.25 0.00022
26.3 -0.00006
26.35 0.00003
26.4 0.00038
26.45 0.00081
26.5 0.0015
26.55 0.00167
26.6 0.00172
26.65 0.00124
26.7 0.00117
26.75 0.00076
26.8 0.00042
26.85 0.00064
26.9 0.0003
26.95 -0.00016
27 -0.00061
27.05 -0.00081
27.1 -0.00054
27.15 -0.00056
27.2 0.00006
27.25 0.00096
27.3 0.00142
27.35 0.0015
27.4 0.00133
27.45 0.00143
27.5 0.00161
27.55 0.00163
27.6 0.00178
27.65 0.00133
27.7 0.00098
27.75 0.00095
27.8 0.00053
27.85 -0.00005
27.9 0.00003
27.95 0.00016
28 0.0005
28.05 0.00005
28.1 0
28.15 0.00012
28.2 -0.00012
28.25 -0.00058
28.3 -0.00138
28.35 -0.00184
28.4 -0.00164
28.45 -0.00165
28.5 -0.00191
28.55 -0.00196
28.6 -0.00172
28.65 -0.0014
28.7 -0.00109
28.75 -0.00095
28.8 -0.00118
28.85 -0.00071
28.9 -0.00027
28.95 0.00046
29 0.00088
29.05 0.00082
29.1 0.00039
29.15 -0.00037
29.2 -0.00102
29.25 -0.00183
29.3 -0.00229
29.35 -0.00226
29.4 -0.00251
29.45 -0.00285
29.5 -0.00278
29.55 -0.00252
29.6 -0.00188
29.65 -0.00082
29.7 -0.00001
29.75 0.00105
29.8 0.002
29.85 0.00274
29.9 0.00355
29.95 0.00435
30 0.00453
30.05 0.00468
30.1 0.00401
30.15 0.00376
30.2 0.00382
30.25 0.00292
30.3 0.00225
30.35 0.0022
30.4 0.0021
30.45 0.00224
30.5 0.00165
30.55 0.00133
30.6 0.00124
30.65 0.00115
30.7 0.00149
30.75 0.0014
30.8 0.00095
30.85 0.00004
30.9 -0.00073
30.95 -0.00085
31 -0.00113
31.05 -0.00185
31.1 -0.00162
31.15 -0.0008
31.2 0.00015
31.25 0.00013
31.3 -0.0002
31.35 -0.00054
31.4 -0.00116
31.45 -0.00115
31.5 -0.00133
31.55 -0.001
31.6 -0.00112
31.65 -0.0009
31.7 -0.00019
31.75 0.00081
31.8 0.00103
31.85 0.00055
31.9 0.00027
31.95 0.00003
32 -0.00061
32.05 -0.00089
32.1 -0.00146
32.15 -0.00168
32.2 -0.00116
32.25 -0.00104
32.3 -0.00062
32.35 -0.00062
32.4 -0.00037
32.45 -0.0002
32.5 0.00023
32.55 0.00081
32.6 0.00129
32.65 0.00133
32.7 0.00081
32.75 0.00052
32.8 0.00028
32.85 -0.00019
32.9 -0.00029
32.95 -0.00099
33 -0.00092
33.05 -0.00095
33.1 -0.00129
33.15 -0.00128
33.2 -0.00173
33.25 -0.00138
33.3 -0.00065
33.35 -0.0004
33.4 -0.0005
33.45 -0.00111
33.5 -0.00152
33.55 -0.00108
33.6 -0.0013
33.65 -0.00163
33.7 -0.00158
33.75 -0.00122
33.8 -0.00115
33.85 -0.00121
33.9 -0.00084
33.95 -0.00095
34 -0.00037
34.05 -0.00017
34.1 0.00016
34.15 0.00058
34.2 0.00035
34.25 -0.0001
34.3 -0.00015
34.35 -0.0002
34.4 0.00008
34.45 -0.00038
34.5 -0.00077
34.55 -0.00089
34.6 -0.00139
34.65 -0.00112
34.7 -0.00071
34.75 -0.00004
34.8 0.00017
34.85 0.00002
34.9 -0.00063
34.95 -0.00071
35 -0.00027
35.05 -0.00039
35.1 -0.00057
35.15 -0.00088
35.2 -0.00141
35.25 -0.00213
35.3 -0.0026
35.35 -0.00325
35.4 -0.00286
35.45 -0.00253
35.5 -0.00209
35.55 -0.00138
35.6 -0.00023
35.65 0.00063
35.7 0.00119
35.75 0.00143
35.8 0.00143
35.85 0.00145
35.9 0.00151
35.95 0.00099
36 0.00092
36.05 0.0009
36.1 0.00102
36.15 0.00126
36.2 0.00092
36.25 0.0009
36.3 0.00045
36.35 0.00022
36.4 0.0002
36.45 -0.00031
36.5 -0.00037
36.55 -0.00098
36.6 -0.00179
36.65 -0.00161
36.7 -0.00131
36.75 -0.00064
36.8 -0.00063
36.85 -0.00032
36.9 -0.00065
36.95 -0.00078
37 -0.00126
37.05 -0.00092
37.1 -0.0008
37.15 -0.00074
37.2 -0.00032
37.25 0.00027
37.3 0.0003
37.35 0.0003
37.4 -0.00019
37.45 0.00009
37.5 0.00083
37.55 0.0017
37.6 0.00263
37.65 0.00296
37.7 0.00331
37.75 0.00319
37.8 0.0029
37.85 0.00246
37.9 0.00194
37.95 0.00165
38 0.00145
38.05 0.00127
38.1 0.00075
38.15 -0.00018
38.2 -0.00123
38.25 -0.00201
38.3 -0.00215
38.35 -0.00268
38.4 -0.00251
38.45 -0.00203
38.5 -0.00132
38.55 -0.00096
38.6 -0.00019
38.65 0
38.7 -0.00015
38.75 -0.00074
38.8 -0.00151
38.85 -0.00167
38.9 -0.00223
38.95 -0.00261
39 -0.00258
39.05 -0.0022
39.1 -0.00227
39.15 -0.00269
39.2 -0.00239
39.25 -0.00224
39.3 -0.00215
39.35 -0.00199
39.4 -0.00152
39.45 -0.0013
39.5 -0.00147
39.55 -0.00085
39.6 -0.00089
39.65 -0.0014
39.7 -0.00134
39.75 -0.00132
39.8 -0.00066
39.85 -0.00019
39.9 0.00016
39.95 0.00077
40 0.00169
40.05 0.00172
40.1 0.00116
40.15 0.00118
40.2 0.00102
40.25 0.00051
40.3 0.00061
40.35 0.00124
40.4 0.00102
40.45 0.00113
40.5 0.00054
40.55 0.00038
40.6 0.00054
40.65 0.00086
40.7 0.00121
40.75 0.00174
40.8 0.00195
40.85 0.00153
40.9 0.00058
40.95 -0.00051
41 -0.00147
41.05 -0.00221
41.1 -0.00224
41.15 -0.00208
41.2 -0.00128
41.25 -0.00023
41.3 -0.00015
41.35 -0.00003
41.4 -0.00023
41.45 -0.00047
41.5 -0.00106
41.55 -0.00114
41.6 -0.00087
41.65 -0.00105
41.7 -0.00073
41.75 -0.00055
41.8 -0.00071
41.85 -0.0009
41.9 -0.00092
41.95 -0.00091
42 -0.00065
42.05 -0.00097
42.1 -0.00056
42.15 0.00025
42.2 0.00104
42.25 0.00176
42.3 0.00223
42.35 0.0019
42.4 0.0017
42.45 0.00134
42.5 0.00111
42.55 0.00104
42.6 0.00151
42.65 0.00151
42.7 0.00117
42.75 0.00108
42.8 0.0013
42.85 0.00102
42.9 0.00122
42.95 0.00099
43 0.00053
43.05 -0.00015
43.1 -0.0005
43.15 -0.00105
43.2 -0.00183
43.25 -0.00211
43.3 -0.00173
43.35 -0.00111
43.4 -0.00117
43.45 -0.00115
43.5 -0.00047
43.55 0.00048
43.6 0.00153
43.65 0.00147
43.7 0.00154
43.75 0.00101
43.8 0.001
43.85 0.00068
43.9 0.00031
43.95 0.0004
44 0.00065
44.05 0.00058
44.1 -0.0001
44.15 -0.00079
44.2 -0.00157
44.25 -0.00225
44.3 -0.00308
44.35 -0.00285
44.4 -0.00225
44.45 -0.00153
44.5 -0.00032
44.55 0.00066
44.6 0.00069
44.65 0.00071
44.7 0.0012
44.75 0.00091
44.8 0.00027
44.85 0.0001
44.9 0.00007
44.95 -0.00055
45 -0.00087
45.05 -0.00147
45.1 -0.0023
45.15 -0.00224
45.2 -0.00205
45.25 -0.00202
45.3 -0.00128
45.35 -0.00067
45.4 0.00002
45.45 0.00003
45.5 0.0003
45.55 -0.00016
45.6 -0.00037
45.65 -0.00035
45.7 -0.00089
45.75 -0.00065
45.8 -0.00003
45.85 0.00087
45.9 0.0019
45.95 0.00203
46 0.00235
46.05 0.00278
46.1 0.00337
46.15 0.00313
46.2 0.00228
46.25 0.00214
46.3 0.00169
46.35 0.00185
46.4 0.00184
46.45 0.0013
46.5 0.00143
46.55 0.00104
46.6 0.00079
46.65 0.00079
46.7 0.0008
46.75 0.00042
46.8 0.00058
46.85 0.00082
46.9 0.00049
46.95 0.00071
47 0.00112
47.05 0.00089
47.1 0.00008
47.15 0.00013
47.2 0.00031
47.25 0.00002
47.3 0.00016
47.35 -0.00037
47.4 -0.0002
47.45 0.00037
47.5 0.00118
47.55 0.00121
47.6 0.00051
47.65 -0.00057
47.7 -0.00174
47.75 -0.00177
47.8 -0.00219
47.85 -0.00288
47.9 -0.00298
47.95 -0.00234
48 -0.0021
48.05 -0.00129
48.1 -0.00072
48.15 -0.00021
48.2 0.00025
48.25 0.00048
48.3 0.00089
48.35 0.00092
48.4 0.00081
48.45 0.00083
48.5 0.00078
48.55 0.00041
48.6 -0.00025
48.65 -0.00092
48.7 -0.00189
48.75 -0.00182
48.8 -0.00125
48.85 -0.00065
48.9 0.00004
48.95 0.00067
49 0.00151
49.05 0.00171
49.1 0.0017
49.15 0.00162
49.2 0.00201
49.25 0.00221
49.3 0.00272
49.35 0.00224
49.4 0.00174
49.45 0.00087
49.5 0.00033
49.55 0.00023
49.6 -0.00037
49.65 -0.00118
49.7 -0.00218
49.75 -0.00212
49.8 -0.00201
49.85 -0.0023
49.9 -0.00228
49.95 -0.00235
50 -0.0022
50.05 -0.00162
50.1 -0.00108
50.15 -0.00095
50.2 -0.00071
50.25 -0.00024
50.3 -0.00001
50.35 -0.00021
50.4 0.00015
50.45 0.0001
50.5 -0.00054
50.55 -0.00036
50.6 -0.00003
50.65 0.00058
50.7 0.00037
50.75 -0.00016
50.8 -0.00106
50.85 -0.00181
50.9 -0.00179
50.95 -0.00105
51 -0.00005
51.05 0.00039
51.1 0.00062
51.15 0.00031
51.2 0
51.25 -0.0004
51.3 -0.00044
51.35 -0.00073
51.4 -0.00047
51.45 -0.00059
51.5 -0.00083
51.55 -0.00119
51.6 -0.00144
51.65 -0.00138
51.7 -0.0013
51.75 -0.00066
51.8 -0.00049
51.85 -0.00054
51.9 -0.00113
51.95 -0.00104
52 -0.00138
52.05 -0.00095
52.1 -0.00028
52.15 -0.00004
52.2 -0.0002
52.25 0.00014
52.3 0.00085
52.35 0.00097
52.4 0.0005
52.45 0.00038
52.5 -0.00024
52.55 -0.0012
52.6 -0.00216
52.65 -0.0028
52.7 -0.00269
52.75 -0.00219
52.8 -0.00176
52.85 -0.00118
52.9 -0.00046
52.95 -0.00016
53 -0.00047
53.05 -0.0006
53.1 -0.00103
53.15 -0.00173
53.2 -0.00221
53.25 -0.00206
53.3 -0.00182
53.35 -0.00138
53.4 -0.00039
53.45 0.0005
53.5 0.00052
53.55 0.00099
53.6 0.00095
53.65 0.00137
53.7 0.00204
53.75 0.00279
53.8 0.00297
53.85 0.0024
53.9 0.00146
53.95 0.00021
54 -0.00015
54.05 0.0002
54.1 0.00092
54.15 0.00179
54.2 0.00282
54.25 0.00359
54.3 0.00376
54.35 0.00375
54.4 0.00337
54.45 0.00338
54.5 0.00357
54.55 0.0036
54.6 0.0027
54.65 0.00197
54.7 0.0016
54.75 0.00122
54.8 0.00031
54.85 -0.00087
54.9 -0.00162
54.95 -0.00194
55 -0.00233
55.05 -0.00242
55.1 -0.00217
55.15 -0.00132
55.2 -0.00065
55.25 0.0002
55.3 0.00125
55.35 0.00235
55.4 0.0024
55.45 0.0024
55.5 0.0023
55.55 0.00161
55.6 0.00055
55.65 0.00011
55.7 0.00039
55.75 0.00063
55.8 0.0004
55.85 -0.00005
55.9 -0.00044
55.95 -0.00083
56 -0.00149
56.05 -0.00201
56.1 -0.00232
56.15 -0.00187
56.2 -0.00191
56.25 -0.00159
56.3 -0.00186
56.35 -0.00194
56.4 -0.00244
56.45 -0.00246
56.5 -0.00173
56.55 -0.00156
56.6 -0.00111
56.65 -0.00066
56.7 -0.00013
56.75 0.00053
56.8 0.00054
56.85 0.00048
56.9 0.00046
56.95 0.00091
57 0.0008
57.05 0.00081
57.1 0.00082
57.15 0.00039
57.2 0.00036
57.25 0.00024
57.3 -0.00012
57.35 -0.00014
57.4 -0.00037
57.45 -0.00018
57.5 0.00011
57.55 0.00017
57.6 0.00078
57.65 0.00098
57.7 0.00054
57.75 0.00075
57.8 0.00132
57.85 0.00123
57.9 0.00164
57.95 0.00221
58 0.00241
58.05 0.00289
58.1 0.00235
58.15 0.00224
58.2 0.00134
58.25 0.00064
58.3 0.00048
58.35 -0.00026
58.4 -0.00025
58.45 0.00035
58.5 0.00062
58.55 0.0005
58.6 0.00043
58.65 0.00051
58.7 0.00055
58.75 0.00029
58.8 -0.00023
58.85 -0.00049
58.9 -0.00029
58.95 -0.00024
59 -0.00072
59.05 -0.00054
59.1 -0.00027
59.15 0.0004
59.2 0.0002
59.25 -0.0005
59.3 -0.00124
59.35 -0.00223
59.4 -0.00255
59.45 -0.00221
59.5 -0.00181
59.55 -0.00185
59.6 -0.00168
59.65 -0.00119
59.7 -0.00137
59.75 -0.0018
59.8 -0.00182
59.85 -0.00208
59.9 -0.00156
59.95 -0.00172
60 -0.00124
60.05 -0.00131
60.1 -0.00084
60.15 -0.00078
60.2 -0.00101
60.25 -0.00111
60.3 -0.00075
60.35 -0.00061
60.4 -0.00064
60.45 -0.0006
60.5 -0.00057
60.55 -0.00005
60.6 -0.00022
60.65 -0.00066
60.7 -0.00037
60.75 0.00027
60.8 0.00007
60.85 0.00008
60.9 -0.00031
60.95 -0.00057
61 -0.00116
61.05 -0.00184
61.1 -0.00177
61.15 -0.00114
61.2 -0.00088
61.25 -0.00057
61.3 0.00022
61.35 0.00117
61.4 0.00128
61.45 0.00068
61.5 0.0001
61.55 -0.00059
61.6 -0.00069
61.65 -0.00014
61.7 0.00028
61.75 0.00094
61.8 0.00083
61.85 0.00084
61.9 0.00124
61.95 0.00082
62 0.00008
62.05 -0.00053
62.1 -0.00079
62.15 -0.00117
62.2 -0.00099
62.25 -0.00128
62.3 -0.0011
62.35 -0.00082
62.4 -0.00073
62.45 -0.00007
62.5 0.00036
62.55 0.00117
62.6 0.001
62.65 0.0013
62.7 0.00147
62.75 0.00137
62.8 0.00112
62.85 0.00138
62.9 0.00129
62.95 0.00129
63 0.00158
63.05 0.00213
63.1 0.00186
63.15 0.00094
63.2 -0.00004
63.25 -0.00029
63.3 0.00015
63.35 -0.00005
63.4 0.00017
63.45 0.00027
63.5 0.00001
63.55 -0.00032
63.6 0.00002
63.65 0.00014
63.7 -0.0002
63.75 -0.00031
63.8 -0.00086
63.85 -0.00164
63.9 -0.00171
63.95 -0.0015
64 -0.00071
64.05 -0.00075
64.1 -0.00084
64.15 -0.00026
64.2 -0.00018
64.25 0.00026
64.3 0.0001
64.35 -0.00002
64.4 -0.00026
64.45 0.00001
64.5 0.0006
64.55 0.00126
64.6 0.00116
64.65 0.00039
64.7 -0.0001
64.75 -0.00015
64.8 -0.00011
64.85 -0.00029
64.9 -0.00099
64.95 -0.00163
65 -0.00212
65.05 -0.00203
65.1 -0.00198
65.15 -0.00168
65.2 -0.00185
65.25 -0.0021
65.3 -0.00148
65.35 -0.00065
65.4 -0.00006
65.45 0.00048
65.5 0.00082
65.55 0.0013
65.6 0.00175
65.65 0.00224
65.7 0.00204
65.75 0.0018
65.8 0.00149
65.85 0.00072
65.9 -0.00014
65.95 -0.00117
66 -0.0014
66.05 -0.00085
66.1 0.00013
66.15 0.00041
66.2 0.00104
66.25 0.00088
66.3 0.00114
66.35 0.00106
66.4 0.00082
66.45 0.00114
66.5 0.00082
66.55 0.00082
66.6 0.00111
66.65 0.00117
66.7 0.0007
66.75 -0.0003
66.8 -0.00116
66.85 -0.00144
66.9 -0.00185
66.95 -0.00219
67 -0.00178
67.05 -0.00113
67.1 -0.00034
67.15 0.00009
67.2 0.00059
67.25 0.00028
67.3 -0.00018
67.35 -0.00075
67.4 -0.00137
67.45 -0.00165
67.5 -0.00208
67.55 -0.00232
67.6 -0.00233
67.65 -0.00159
67.7 -0.00144
67.75 -0.00074
67.8 -0.00042
67.85 -0.00082
67.9 -0.00111
67.95 -0.00101
68 -0.00056
68.05 -0.00069
68.1 -0.00162
68.15 -0.0021
68.2 -0.00261
68.25 -0.00313
68.3 -0.00438
68.35 -0.00609
68.4 -0.00848
68.45 -0.01071
68.5 -0.01348
68.55 -0.01617
68.6 -0.01835
68.65 -0.02124
68.7 -0.02394
68.75 -0.02772
68.8 -0.03212
68.85 -0.03667
68.9 -0.04246
68.95 -0.04887
69 -0.05523
69.05 -0.0626
69.1 -0.07086
69.15 -0.08006
69.2 -0.09018
69.25 -0.10175
69.3 -0.1137
69.35 -0.12669
69.4 -0.13973
69.45 -0.15353
69.5 -0.16818
69.55 -0.18328
69.6 -0.19898
69.65 -0.21495
69.7 -0.23161
69.75 -0.24898
69.8 -0.26571
69.85 -0.28158
69.9 -0.29669
69.95 -0.31181
70 -0.32627
70.05 -0.33976
70.1 -0.3507
70.15 -0.35938
70.2 -0.36602
70.25 -0.3714
70.3 -0.37482
70.35 -0.37618
70.4 -0.37432
70.45 -0.37003
70.5 -0.36366
70.55 -0.35495
70.6 -0.34379
70.65 -0.32964
70.7 -0.31338
70.75 -0.29522
70.8 -0.27565
70.85 -0.25411
70.9 -0.23119
70.95 -0.20672
71 -0.18148
71.05 -0.15623
71.1 -0.13047
71.15 -0.10376
71.2 -0.07673
71.25 -0.05037
71.3 -0.02509
71.35 -0.00054
71.4 0.02415
71.45 0.04869
71.5 0.07261
71.55 0.09516
71.6 0.1171
71.65 0.13737
71.7 0.15698
71.75 0.17579
71.8 0.19409
71.85 0.21071
71.9 0.22618
71.95 0.24055
72 0.25437
72.05 0.26766
72.1 0.28062
72.15 0.29283
72.2 0.3041
72.25 0.31467
72.3 0.32457
72.35 0.33308
72.4 0.3406
72.45 0.34796
72.5 0.35361
72.55 0.3584
72.6 0.36258
72.65 0.36619
72.7 0.36776
72.75 0.36835
72.8 0.36754
72.85 0.36577
72.9 0.3631
72.95 0.35973
73 0.35549
73.05 0.35034
73.1 0.34367
73.15 0.3356
73.2 0.32653
73.25 0.31694
73.3 0.30673
73.35 0.29643
73.4 0.28578
73.45 0.27527
73.5 0.26458
73.55 0.25412
73.6 0.24329
73.65 0.232
73.7 0.2216
73.75 0.21058
73.8 0.19986
73.85 0.18926
73.9 0.17854
73.95 0.16774
74 0.15724
74.05 0.14764
74.1 0.13847
74.15 0.13006
74.2 0.12171
74.25 0.11335
74.3 0.1055
74.35 0.09788
74.4 0.09064
74.45 0.08413
74.5 0.07791
74.55 0.07218
74.6 0.06685
74.65 0.06178
74.7 0.05592
74.75 0.05042
74.8 0.04511
74.85 0.03954
74.9 0.03429
74.95 0.02932
75 0.02433
75.05 0.01973
75.1 0.01542
75.15 0.0114
75.2 0.00845
75.25 0.00582
75.3 0.00349
75.35 0.0009
75.4 -0.00131
75.45 -0.00316
75.5 -0.00549
75.55 -0.00829
75.6 -0.01091
75.65 -0.01257
75.7 -0.01368
75.75 -0.01532
75.8 -0.01724
75.85 -0.01934
75.9 -0.02081
75.95 -0.02204
76 -0.02297
76.05 -0.02407
76.1 -0.02546
76.15 -0.02675
76.2 -0.02846
76.25 -0.02957
76.3 -0.03066
76.35 -0.03162
76.4 -0.03296
76.45 -0.03398
76.5 -0.03501
76.55 -0.03504
76.6 -0.03476
76.65 -0.03434
76.7 -0.03378
76.75 -0.03385
76.8 -0.03456
76.85 -0.03527
76.9 -0.03594
76.95 -0.03705
77 -0.03831
77.05 -0.0391
77.1 -0.04012
77.15 -0.04046
77.2 -0.04083
77.25 -0.04147
77.3 -0.04202
77.35 -0.04262
77.4 -0.04284
77.45 -0.04209
77.5 -0.04139
77.55 -0.04088
77.6 -0.03993
77.65 -0.03937
77.7 -0.03935
77.75 -0.03887
77.8 -0.0387
77.85 -0.03875
77.9 -0.03872
77.95 -0.03916
78 -0.03943
78.05 -0.03971
78.1 -0.04002
78.15 -0.04009
78.2 -0.04045
78.25 -0.04043
78.3 -0.03964
78.35 -0.03843
78.4 -0.03801
78.45 -0.03786
78.5 -0.03806
78.55 -0.03776
78.6 -0.03751
78.65 -0.03733
78.7 -0.03688
78.75 -0.03662
78.8 -0.03594
78.85 -0.03509
78.9 -0.03376
78.95 -0.03231
79 -0.03191
79.05 -0.03145
79.1 -0.03092
79.15 -0.03014
79.2 -0.02978
79.25 -0.02985
79.3 -0.02921
79.35 -0.02828
79.4 -0.02741
79.45 -0.02658
79.5 -0.02672
79.55 -0.02742
79.6 -0.02725
79.65 -0.02753
79.7 -0.02761
79.75 -0.02692
79.8 -0.02651
79.85 -0.02586
79.9 -0.02508
79.95 -0.02418
80 -0.02355
80.05 -0.02344
80.1 -0.02323
80.15 -0.0235
80.2 -0.02335
80.25 -0.02333
80.3 -0.0228
80.35 -0.02187
80.4 -0.02114
80.45 -0.02044
80.5 -0.02032
80.55 -0.01983
80.6 -0.01948
80.65 -0.01897
80.7 -0.01902
80.75 -0.01885
80.8 -0.01879
80.85 -0.01867
80.9 -0.01832
80.95 -0.01764
81 -0.01737
81.05 -0.01749
81.1 -0.01758
81.15 -0.01733
81.2 -0.01667
81.25 -0.01583
81.3 -0.01511
81.35 -0.0145
81.4 -0.0139
81.45 -0.01376
81.5 -0.01423
81.55 -0.01427
81.6 -0.01474
81.65 -0.0153
81.7 -0.01616
81.75 -0.01652
81.8 -0.01595
81.85 -0.01553
81.9 -0.0153
81.95 -0.01453
82 -0.01339
82.05 -0.01254
82.1 -0.01205
82.15 -0.01212
82.2 -0.01265
82.25 -0.01253
82.3 -0.01259
82.35 -0.01281
82.4 -0.01235
82.45 -0.012
82.5 -0.01237
82.55 -0.01234
82.6 -0.01248
82.65 -0.01261
82.7 -0.01299
82.75 -0.01301
82.8 -0.0128
82.85 -0.01276
82.9 -0.01271
82.95 -0.01238
83 -0.01197
83.05 -0.01148
83.1 -0.01142
83.15 -0.01068
83.2 -0.01015
83.25 -0.00931
83.3 -0.00875
83.35 -0.00845
83.4 -0.00818
83.45 -0.0075
83.5 -0.00739
83.55 -0.00748
83.6 -0.00734
83.65 -0.00718
83.7 -0.00666
83.75 -0.0062
83.8 -0.00589
83.85 -0.00527
83.9 -0.00525
83.95 -0.00504
84 -0.00476
84.05 -0.00463
84.1 -0.00421
84.15 -0.00395
84.2 -0.00353
84.25 -0.00348
84.3 -0.00424
84.35 -0.0051
84.4 -0.00633
84.45 -0.00707
84.5 -0.00797
84.55 -0.008
84.6 -0.00757
84.65 -0.00721
84.7 -0.0064
84.75 -0.00561
84.8 -0.0054
84.85 -0.00485
84.9 -0.00451
84.95 -0.00473
85 -0.0055
85.05 -0.00635
85.1 -0.00672
85.15 -0.00727
85.2 -0.00761
85.25 -0.00825
85.3 -0.00884
85.35 -0.00919
85.4 -0.00964
85.45 -0.00898
85.5 -0.00787
85.55 -0.00669
85.6 -0.00534
85.65 -0.00448
85.7 -0.00417
85.75 -0.00401
85.8 -0.00386
85.85 -0.00411
85.9 -0.00365
85.95 -0.00299
86 -0.00222
86.05 -0.00246
86.1 -0.00318
86.15 -0.0033
86.2 -0.00389
86.25 -0.00456
86.3 -0.00487
86.35 -0.00504
86.4 -0.00503
86.45 -0.00543
86.5 -0.00556
86.55 -0.00505
86.6 -0.00478
86.65 -0.00436
86.7 -0.0043
86.75 -0.00376
86.8 -0.0028
86.85 -0.00223
86.9 -0.00252
86.95 -0.0022
87 -0.00224
87.05 -0.00285
87.1 -0.0034
87.15 -0.00327
87.2 -0.00334
87.25 -0.00283
87.3 -0.00194
87.35 -0.00088
87.4 0.00013
87.45 0.00022
87.5 0.00047
87.55 0.00006
87.6 -0.00011
87.65 0.00007
87.7 -0.00055
87.75 -0.00093
87.8 -0.00124
87.85 -0.00176
87.9 -0.00208
87.95 -0.00202
88 -0.00175
88.05 -0.00135
88.1 -0.00063
88.15 0.00024
88.2 0.00069
88.25 0.00104
88.3 0.00135
88.35 0.00067
88.4 0.00043
88.45 0.00025
88.5 -0.00035
88.55 -0.00045
88.6 -0.00068
88.65 -0.00075
88.7 -0.00099
88.75 -0.0008
88.8 -0.00055
88.85 -0.00058
88.9 -0.00068
88.95 -0.00092
89 -0.00084
89.05 -0.00146
89.1 -0.00241
89.15 -0.00321
89.2 -0.00317
89.25 -0.00288
89.3 -0.0023
89.35 -0.00184
89.4 -0.00196
89.45 -0.00254
89.5 -0.0023
89.55 -0.00224
89.6 -0.00278
89.65 -0.00288
89.7 -0.00268
89.75 -0.00232
89.8 -0.00157
89.85 -0.00112
89.9 -0.00145
89.95 -0.00163
90 -0.00189
90.05 -0.00144
90.1 -0.0008
90.15 -0.0006
90.2 -0.00051
90.25 -0.00097
90.3 -0.00139
90.35 -0.00191
90.4 -0.00176
90.45 -0.00215
90.5 -0.00217
90.55 -0.00163
90.6 -0.00148
90.65 -0.00078
90.7 -0.00081
90.75 -0.00045
90.8 -0.00024
90.85 -0.00034
90.9 0.0001
90.95 -0.00012
91 -0.00084
91.05 -0.0013
91.1 -0.00191
91.15 -0.00234
91.2 -0.00234
91.25 -0.00213
91.3 -0.00169
91.35 -0.0009
91.4 -0.00027
91.45 0.00012
91.5 -0.00029
91.55 -0.00077
91.6 -0.00148
91.65 -0.00171
91.7 -0.00124
91.75 -0.00041
91.8 -0.00042
91.85 -0.00083
91.9 -0.00102
91.95 -0.00125
92 -0.00146
92.05 -0.00131
92.1 -0.00099
92.15 -0.00029
92.2 -0.00046
92.25 -0.00022
92.3 0.00026
92.35 0.00064
92.4 0.00069
92.45 0.00071
92.5 0.00041
92.55 -0.00011
92.6 -0.00052
92.65 -0.00029
92.7 0.00037
92.75 0.00044
92.8 -0.00015
92.85 -0.00058
92.9 -0.00084
92.95 -0.00083
93 -0.0007
93.05 -0.00012
93.1 -0.00003
93.15 0.00027
93.2 -0.00015
93.25 -0.0009
93.3 -0.00166
93.35 -0.00238
93.4 -0.00299
93.45 -0.00347
93.5 -0.00405
93.55 -0.00465
93.6 -0.00474
93.65 -0.00411
93.7 -0.00332
93.75 -0.00255
93.8 -0.00181
93.85 -0.00124
93.9 -0.00117
93.95 -0.00055
94 -0.00064
94.05 -0.00118
94.1 -0.00109
94.15 -0.00073
94.2 0.00007
94.25 0.00001
94.3 -0.00027
94.35 -0.00024
94.4 -0.00062
94.45 -0.0006
94.5 -0.00116
94.55 -0.00195
94.6 -0.0027
94.65 -0.00352
94.7 -0.00382
94.75 -0.00344
94.8 -0.0033
94.85 -0.00272
94.9 -0.00232
94.95 -0.00229
95 -0.00233
95.05 -0.00237
95.1 -0.00224
95.15 -0.0025
95.2 -0.00266
95.25 -0.00281
95.3 -0.00269
95.35 -0.00282
95.4 -0.00297
95.45 -0.00308
95.5 -0.0023
95.55 -0.00144
95.6 -0.00071
95.65 -0.00061
95.7 0.00003
95.75 0.00011
95.8 -0.00037
95.85 -0.0005
95.9 -0.00089
95.95 -0.00045
96 0.00026
96.05 0.00047
96.1 0.00089
96.15 0.0017
96.2 0.00219
96.25 0.00265
96.3 0.00293
96.35 0.00269
96.4 0.00196
96.45 0.00192
96.5 0.00234
96.55 0.00187
96.6 0.00087
96.65 0.00056
96.7 0.00079
96.75 0.00069
96.8 0.00087
96.85 0.00122
96.9 0.0014
96.95 0.0012
97 0.00078
97.05 0.00091
97.1 0.00083
97.15 0.00049
97.2 -0.00016
97.25 0.00004
97.3 0.00042
97.35 0.00043
97.4 0.00011
97.45 -0.00002
97.5 -0.00062
97.55 -0.00079
97.6 -0.00092
97.65 -0.00144
97.7 -0.00156
97.75 -0.0016
97.8 -0.0014
97.85 -0.00063
97.9 0.00036
97.95 0.00053
98 0.00111
98.05 0.00128
98.1 0.00132
98.15 0.00075
98.2 0.00018
98.25 0.00027
98.3 -0.00007
98.35 0.00016
98.4 0
98.45 0.00021
98.5 0.00014
98.55 0.0001
98.6 -0.00028
98.65 -0.00084
98.7 -0.00115
98.75 -0.0017
98.8 -0.00224
98.85 -0.00234
98.9 -0.00174
98.95 -0.00086
99 -0.00078
99.05 -0.00082
99.1 -0.00027
99.15 -0.0001
99.2 -0.00017
99.25 -0.00012
99.3 0.00003
99.35 0.00062
99.4 0.00099
99.45 0.00156
99.5 0.00122
99.55 0.00112
99.6 0.00054
99.65 0.00006
99.7 -0.00006
99.75 -0.00014
99.8 0.0003
99.85 0.00109
99.9 0.00198
99.95 0.00225
