0 0
0.05 0.00013
0.1 0.00085
0.15 0.0013
0.2 0.002
0.25 0.00264
0.3 0.00338
0.35 0.00375
0.4 0.00393
0.45 0.0046
0.5 0.00517
0.55 0.0053
0.6 0.0056
0.65 0.00543
0.7 0.00572
0.75 0.00548
0.8 0.00495
0.85 0.0049
0.9 0.00438
0.95 0.00422
1 0.00396
1.05 0.00352
1.1 0.00315
1.15 0.00296
1.2 0.00279
1.25 0.00254
1.3 0.00223
1.35 0.0024
1.4 0.00296
1.45 0.00391
1.5 0.00473
1.55 0.00501
1.6 0.00476
1.65 0.00459
1.7 0.00406
1.75 0.00409
1.8 0.00375
1.85 0.00368
1.9 0.00367
1.95 0.00348
2 0.00352
2.05 0.0037
2.1 0.00377
2.15 0.00392
2.2 0.00349
2.25 0.00317
2.3 0.00317
2.35 0.00334
2.4 0.0033
2.45 0.00332
2.5 0.00304
2.55 0.00258
2.6 0.00241
2.65 0.00197
2.7 0.0022
2.75 0.00217
2.8 0.00269
2.85 0.00288
2.9 0.00282
2.95 0.00241
3 0.00208
3.05 0.00225
3.1 0.00288
3.15 0.0031
3.2 0.00311
3.25 0.00321
3.3 0.00343
3.35 0.00375
3.4 0.00415
3.45 0.00437
3.5 0.00458
3.55 0.0045
3.6 0.00448
3.65 0.00457
3.7 0.00467
3.75 0.00439
3.8 0.00407
3.85 0.00358
3.9 0.00267
3.95 0.00166
4 0.00087
4.05 0.00031
4.1 0.00003
4.15 0.0003
4.2 0.00019
4.25 0.00053
4.3 0.00057
4.35 0.00054
4.4 0.00019
4.45 -0.0001
4.5 0.00034
4.55 0.00049
4.6 0.00055
4.65 0.00062
4.7 0.00049
4.75 0.00093
4.8 0.00107
4.85 0.00101
4.9 0.00063
4.95 0.00022
5 -0.00019
5.05 -0.00066
5.1 -0.00121
5.15 -0.00135
5.2 -0.00074
5.25 -0.00038
5.3 0.00039
5.35 0.00089
5.4 0.00166
5.45 0.00227
5.5 0.00285
5.55 0.00359
5.6 0.00376
5.65 0.00351
5.7 0.00312
5.75 0.00303
5.8 0.00305
5.85 0.00278
5.9 0.00231
5.95 0.00237
6 0.00204
6.05 0.00163
6.1 0.00163
6.15 0.00117
6.2 0.00086
6.25 0.00078
6.3 0.00053
6.35 0.00088
6.4 0.00146
6.45 0.0022
6.5 0.00221
6.55 0.00191
6.6 0.00126
6.65 0.00036
6.7 -0.00021
6.75 -0.00039
6.8 -0.00008
6.85 0.00024
6.9 0.00083
6.95 0.00126
7 0.00106
7.05 0.00092
7.1 0.00106
7.15 0.00144
7.2 0.00177
7.25 0.00204
7.3 0.00188
7.35 0.00179
7.4 0.00125
7.45 0.00062
7.5 0.00025
7.55 -0.00022
7.6 -0.00001
7.65 0.00037
7.7 0.00036
7.75 0.00012
7.8 -0.00011
7.85 -0.00017
7.9 0.00035
7.95 0.00037
8 0.00008
8.05 0.00015
8.1 -0.00002
8.15 0.00021
8.2 0.00048
8.25 0.00102
8.3 0.00161
8.35 0.00227
8.4 0.00231
8.45 0.00217
8.5 0.00187
8.55 0.00143
8.6 0.00142
8.65 0.00097
8.7 0.00074
8.75 0.00094
8.8 0.00089
8.85 0.00092
8.9 0.00093
8.95 0.00112
9 0.00138
9.05 0.00134
9.1 0.00125
9.15 0.0007
9.2 0.00029
9.25 0.00017
9.3 -0.00017
9.35 -0.0004
9.4 -0.00084
9.45 -0.00085
9.5 -0.00082
9.55 -0.00121
9.6 -0.00165
9.65 -0.00156
9.7 -0.00094
9.75 -0.00075
9.8 -0.00026
9.85 0.00037
9.9 0.00111
9.95 0.00131
10 0.00114
10.05 0.00089
10.1 0.00074
10.15 0.00027
10.2 -0.00021
10.25 -0.00049
10.3 -0.0006
10.35 -0.00034
10.4 -0.00047
10.45 -0.00083
10.5 -0.00109
10.55 -0.0015
10.6 -0.00198
10.65 -0.00189
10.7 -0.00198
10.75 -0.00222
10.8 -0.00249
10.85 -0.00229
10.9 -0.00213
10.95 -0.00213
11 -0.00171
11.05 -0.00132
11.1 -0.00105
11.15 -0.0011
11.2 -0.00091
11.25 -0.00054
11.3 -0.00012
11.35 0.00027
11.4 0.00092
11.45 0.0015
11.5 0.00178
11.55 0.00196
11.6 0.00205
11.65 0.00204
11.7 0.0023
11.75 0.00207
11.8 0.00175
11.85 0.00186
11.9 0.00141
11.95 0.00089
12 0.00063
12.05 0.00033
12.1 -0.00031
12.15 -0.00041
12.2 -0.0003
12.25 0.0003
12.3 0.00042
12.35 0.0008
12.4 0.00125
12.45 0.00185
12.5 0.00242
12.55 0.00254
12.6 0.00284
12.65 0.00262
12.7 0.0025
12.75 0.00268
12.8 0.0022
12.85 0.00139
12.9 0.00101
12.95 0.00092
13 0.00043
13.05 0.00039
13.1 -0.00001
13.15 -0.00075
13.2 -0.00079
13.25 -0.00089
13.3 -0.00054
13.35 -0.00028
13.4 -0.00034
13.45 0.00009
13.5 0.00083
13.55 0.00165
13.6 0.00187
13.65 0.00183
13.7 0.00172
13.75 0.00145
13.8 0.00151
13.85 0.00178
13.9 0.00189
13.95 0.00146
14 0.00067
14.05 0.00056
14.1 0.00034
14.15 -0.00018
14.2 -0.00068
14.25 -0.00113
14.3 -0.00104
14.35 -0.00112
14.4 -0.00138
14.45 -0.00136
14.5 -0.00154
14.55 -0.00116
14.6 -0.0009
14.65 -0.00107
14.7 -0.00086
14.75 -0.00075
14.8 -0.00014
14.85 0.00032
14.9 0.00067
14.95 0.00038
15 0.00045
15.05 0.00012
15.1 -0.0005
15.15 -0.00066
15.2 -0.00033
15.25 0.00031
15.3 0.0009
15.35 0.00077
15.4 0.00013
15.45 -0.00052
15.5 -0.00086
15.55 -0.00113
15.6 -0.00147
15.65 -0.00124
15.7 -0.00054
15.75 -0.00025
15.8 -0.00051
15.85 -0.00064
15.9 -0.00093
15.95 -0.00092
16 -0.00084
16.05 -0.00087
16.1 -0.00059
16.15 -0.00078
16.2 -0.00054
16.25 -0.00044
16.3 -0.00047
16.35 -0.0002
16.4 0.00004
16.45 -0.00008
16.5 -0.00012
16.55 -0.00011
16.6 0.00022
16.65 0.00047
16.7 0.00077
16.75 0.00084
16.8 0.0006
16.85 0.00059
16.9 0.00027
16.95 0.00027
17 -0.00025
17.05 -0.00032
17.1 -0.00044
17.15 -0.00023
17.2 -0.0002
17.25 0.00014
17.3 0.00019
17.35 0.00049
17.4 0.00074
17.45 0.00117
17.5 0.00136
17.55 0.0011
17.6 0.00133
17.65 0.00105
17.7 0.00117
17.75 0.00102
17.8 0.0007
17.85 0.00041
17.9 0.00047
17.95 0.00054
18 0.00082
18.05 0.0013
18.1 0.00193
18.15 0.00169
18.2 0.00129
18.25 0.00131
18.3 0.00082
18.35 0.00033
18.4 0.00006
18.45 -0.00051
18.5 -0.00113
18.55 -0.0015
18.6 -0.00211
18.65 -0.0025
18.7 -0.00261
18.75 -0.0029
18.8 -0.00285
18.85 -0.00267
18.9 -0.00192
18.95 -0.00157
19 -0.00111
19.05 -0.00087
19.1 -0.00051
19.15 0.00019
19.2 0.00042
19.25 0.00048
19.3 0.00006
19.35 0.00028
19.4 0.00054
19.45 0.00067
19.5 0.00099
19.55 0.00066
19.6 0.00052
19.65 0.00023
19.7 0.00045
19.75 0.001
19.8 0.00079
19.85 0.00061
19.9 0.00047
19.95 0.0004
20 0.00064
20.05 0.00087
20.1 0.0014
20.15 0.00209
20.2 0.00221
20.25 0.00232
20.3 0.00263
20.35 0.00217
20.4 0.00212
20.45 0.00204
20.5 0.00228
20.55 0.00178
20.6 0.00095
20.65 0.00025
20.7 -0.00069
20.75 -0.00107
20.8 -0.00166
20.85 -0.00197
20.9 -0.00165
20.95 -0.0011
21 -0.00043
21.05 0.00019
21.1 0.00103
21.15 0.00184
21.2 0.00252
21.25 0.00261
21.3 0.00228
21.35 0.00188
21.4 0.00158
21.45 0.00103
21.5 0.00103
21.55 0.00041
21.6 -0.00053
21.65 -0.00067
21.7 -0.00046
21.75 0.00009
21.8 0.00038
21.85 0.0004
21.9 0.00044
21.95 0.00004
22 -0.00028
22.05 -0.00061
22.1 -0.00082
22.15 -0.00124
22.2 -0.00119
22.25 -0.0011
22.3 -0.00066
22.35 0.00001
22.4 0.00078
22.45 0.00107
22.5 0.00129
22.55 0.00159
22.6 0.00132
22.65 0.00068
22.7 0.00047
22.75 0.00066
22.8 0.00106
22.85 0.00159
22.9 0.00178
22.95 0.00122
23 0.0005
23.05 0.00036
23.1 0.00027
23.15 0.00026
23.2 0.00037
23.25 0.00032
23.3 -0.00001
23.35 -0.00071
23.4 -0.00149
23.45 -0.00213
23.5 -0.00281
23.55 -0.00318
23.6 -0.00335
23.65 -0.00366
23.7 -0.00394
23.75 -0.00403
23.8 -0.00392
23.85 -0.00324
23.9 -0.00301
23.95 -0.00271
24 -0.00272
24.05 -0.00271
24.1 -0.00256
24.15 -0.00205
24.2 -0.00127
24.25 -0.00087
24.3 -0.00037
24.35 -0.00003
24.4 0.00018
24.45 -0.00006
24.5 -0.00005
24.55 0.00038
24.6 0.00083
24.65 0.00076
24.7 0.00053
24.75 -0.00008
24.8 -0.00056
24.85 -0.00046
24.9 -0.00002
24.95 0.00064
25 0.00067
25.05 0.00055
25.1 0.0009
25.15 0.00126
25.2 0.00168
25.25 0.00195
25.3 0.00205
25.35 0.00143
25.4 0.00118
25.45 0.00097
25.5 0.00078
25.55 0.00053
25.6 -0.00003
25.65 -0.00069
25.7 -0.00077
25.75 -0.00084
25.8 -0.00067
25.85 -0.00009
25.9 0.00028
25.95 0.00058
26 0.00104
26.05 0.00105
26.1 0.00118
26.15 0.00113
26.2 0.00087
26.25 0.0002
26.3 -0.00005
26.35 0.00017
26.4 0.00044
26.45 0.00005
26.5 -0.00049
26.55 -0.0008
26.6 -0.00145
26.65 -0.00213
26.7 -0.0021
26.75 -0.00182
26.8 -0.00121
26.85 -0.00039
26.9 -0.00027
26.95 0.00024
27 0.00027
27.05 0.00006
27.1 0.00018
27.15 -0.00019
27.2 -0.00072
27.25 -0.00065
27.3 -0.00059
27.35 -0.00101
27.4 -0.00083
27.45 -0.001
27.5 -0.00094
27.55 -0.00054
27.6 0.00011
27.65 0.00052
27.7 0.00103
27.75 0.00129
27.8 0.00162
27.85 0.00157
27.9 0.00161
27.95 0.001
28 0.00014
28.05 -0.00083
28.1 -0.00121
28.15 -0.00108
28.2 -0.00052
28.25 -0.00037
28.3 -0.00031
28.35 -0.00014
28.4 0.00033
28.45 0.00066
28.5 0.00033
28.55 -0.00031
28.6 -0.00096
28.65 -0.00131
28.7 -0.00188
28.75 -0.00213
28.8 -0.00195
28.85 -0.00188
28.9 -0.00142
28.95 -0.00141
29 -0.00082
29.05 -0.00066
29.1 -0.00065
29.15 -0.00043
29.2 0.00002
29.25 0.00044
29.3 0.00047
29.35 0.0004
29.4 0.00059
29.45 0.00028
29.5 -0.00024
29.55 -0.00062
29.6 -0.00052
29.65 -0.00081
29.7 -0.0014
29.75 -0.00162
29.8 -0.00194
29.85 -0.00171
29.9 -0.00114
29.95 -0.00068
30 -0.00044
30.05 -0.00012
30.1 -0.00017
30.15 -0.00008
30.2 0.00022
30.25 0.00025
30.3 0.00066
30.35 0.00051
30.4 0.00028
30.45 0.00059
30.5 0.00062
30.55 0.00023
30.6 0.00037
30.65 0.00058
30.7 0.00093
30.75 0.00098
30.8 0.00139
30.85 0.00184
30.9 0.00212
30.95 0.00211
31 0.00176
31.05 0.0009
31.1 0.00038
31.15 -0.00041
31.2 -0.00055
31.25 -0.00083
31.3 -0.00129
31.35 -0.00175
31.4 -0.00171
31.45 -0.00163
31.5 -0.00148
31.55 -0.0014
31.6 -0.00073
31.65 -0.00019
31.7 -0.00031
31.75 -0.00038
31.8 -0.00062
31.85 -0.00023
31.9 0.00034
31.95 0.0007
32 0.0012
32.05 0.0019
32.1 0.00225
32.15 0.00213
32.2 0.00155
32.25 0.00129
32.3 0.00126
32.35 0.00137
32.4 0.00178
32.45 0.0023
32.5 0.00216
32.55 0.00168
32.6 0.00133
32.65 0.00065
32.7 0.00005
32.75 -0.00076
32.8 -0.00133
32.85 -0.00198
32.9 -0.002
32.95 -0.00155
33 -0.00093
33.05 -0.0001
33.1 0.00007
33.15 -0.00002
33.2 -0.00035
33.25 -0.00097
33.3 -0.00097
33.35 -0.00049
33.4 0.00017
33.45 0.00082
33.5 0.00074
33.55 0.00091
33.6 0.00096
33.65 0.00096
33.7 0.0008
33.75 0.00052
33.8 0.00007
33.85 -0.00054
33.9 -0.00041
33.95 -0.00079
34 -0.00062
34.05 -0.00045
34.1 -0.00033
34.15 -0.00004
34.2 -0.00029
34.25 -0.00082
34.3 -0.00101
34.35 -0.00137
34.4 -0.0013
34.45 -0.00109
34.5 -0.00112
34.55 -0.00078
34.6 -0.00009
34.65 -0.00007
34.7 0.00022
34.75 -0.00008
34.8 -0.00016
34.85 -0.00042
34.9 -0.0001
34.95 0.0002
35 0.00041
35.05 0.00089
35.1 0.00069
35.15 0.00093
35.2 0.00147
35.25 0.00207
35.3 0.00229
35.35 0.00268
35.4 0.00259
35.45 0.0018
35.5 0.00145
35.55 0.00115
35.6 0.00115
35.65 0.0013
35.7 0.00107
35.75 0.00096
35.8 0.00033
35.85 0.0003
35.9 0.0002
35.95 -0.00002
36 -0.00028
36.05 -0.00065
36.1 -0.00136
36.15 -0.00173
36.2 -0.00169
36.25 -0.00139
36.3 -0.00143
36.35 -0.00094
36.4 -0.00045
36.45 -0.00011
36.5 0.00017
36.55 0.00022
36.6 0.0005
36.65 0.00038
36.7 0.00039
36.75 0.00076
36.8 0.00095
36.85 0.00049
36.9 0.00032
36.95 0.00041
37 0.00012
37.05 0.00004
37.1 0.00005
37.15 -0.00012
37.2 0.00011
37.25 0.00059
37.3 0.00104
37.35 0.00139
37.4 0.00128
37.45 0.00145
37.5 0.00169
37.55 0.00208
37.6 0.002
37.65 0.00161
37.7 0.00149
37.75 0.00161
37.8 0.0015
37.85 0.00158
37.9 0.00097
37.95 0.00016
38 -0.00055
38.05 -0.00126
38.1 -0.00213
38.15 -0.00274
38.2 -0.00286
38.25 -0.0026
38.3 -0.00208
38.35 -0.00159
38.4 -0.00098
38.45 -0.00077
38.5 -0.00107
38.55 -0.00091
38.6 -0.00112
38.65 -0.00116
38.7 -0.00159
38.75 -0.00144
38.8 -0.00173
38.85 -0.0017
38.9 -0.0013
38.95 -0.00123
39 -0.00134
39.05 -0.00179
39.1 -0.00151
39.15 -0.00131
39.2 -0.00117
39.25 -0.00132
39.3 -0.00128
39.35 -0.00156
39.4 -0.00204
39.45 -0.00233
39.5 -0.002
39.55 -0.00154
39.6 -0.00149
39.65 -0.00157
39.7 -0.00168
39.75 -0.00162
39.8 -0.00177
39.85 -0.00131
39.9 -0.00118
39.95 -0.00058
40 -0.00004
40.05 0.00047
40.1 0.00071
40.15 0.00107
40.2 0.00146
40.25 0.00173
40.3 0.00133
40.35 0.00049
40.4 0.00002
40.45 -0.00066
40.5 -0.00094
40.55 -0.00098
40.6 -0.00046
40.65 -0.00037
40.7 -0.00022
40.75 -0.00025
40.8 -0.00031
40.85 -0.00032
40.9 -0.00062
40.95 -0.00047
41 -0.0008
41.05 -0.00056
41.1 -0.00046
41.15 -0.00001
41.2 0.00015
41.25 -0.00013
41.3 0.00008
41.35 0.00045
41.4 0.00101
41.45 0.00146
41.5 0.00164
41.55 0.00186
41.6 0.00213
41.65 0.0022
41.7 0.00162
41.75 0.00137
41.8 0.00093
41.85 0.00051
41.9 0.00047
41.95 0.00089
42 0.0013
42.05 0.00102
42.1 0.00117
42.15 0.00137
42.2 0.00155
42.25 0.00133
42.3 0.00086
42.35 0.00057
42.4 0.00052
42.45 0.00069
42.5 0.00092
42.55 0.00048
42.6 -0.00037
42.65 -0.00134
42.7 -0.00246
42.75 -0.0032
42.8 -0.00379
42.85 -0.00433
42.9 -0.00526
42.95 -0.00692
43 -0.00925
43.05 -0.01183
43.1 -0.01452
43.15 -0.0172
43.2 -0.02038
43.25 -0.02423
43.3 -0.02856
43.35 -0.03305
43.4 -0.03724
43.45 -0.04237
43.5 -0.04778
43.55 -0.05389
43.6 -0.06091
43.65 -0.06806
43.7 -0.07587
43.75 -0.08425
43.8 -0.09346
43.85 -0.10329
43.9 -0.11459
43.95 -0.12621
44 -0.13894
44.05 -0.15203
44.1 -0.16521
44.15 -0.1789
44.2 -0.19236
44.25 -0.20598
44.3 -0.2197
44.35 -0.23339
44.4 -0.24657
44.45 -0.25912
44.5 -0.27062
44.55 -0.28086
44.6 -0.28898
44.65 -0.29522
44.7 -0.30014
44.75 -0.30343
44.8 -0.30475
44.85 -0.30397
44.9 -0.30081
44.95 -0.29567
45 -0.28874
45.05 -0.27974
45.1 -0.26946
45.15 -0.25745
45.2 -0.24349
45.25 -0.22791
45.3 -0.21056
45.35 -0.19198
45.4 -0.17302
45.45 -0.15322
45.5 -0.13336
45.55 -0.11336
45.6 -0.09336
45.65 -0.07259
45.7 -0.05225
45.75 -0.03268
45.8 -0.01364
45.85 0.00498
45.9 0.02297
45.95 0.04052
46 0.05729
46.05 0.07347
46.1 0.08858
46.15 0.10249
46.2 0.11534
46.25 0.12715
46.3 0.1384
46.35 0.14872
46.4 0.15867
46.45 0.16814
46.5 0.17731
46.55 0.18662
46.6 0.19506
46.65 0.20317
46.7 0.21056
46.75 0.21796
46.8 0.2252
46.85 0.23155
46.9 0.23802
46.95 0.24407
47 0.24945
47.05 0.25423
47.1 0.25836
47.15 0.26209
47.2 0.26495
47.25 0.26769
47.3 0.26925
47.35 0.27008
47.4 0.2704
47.45 0.27004
47.5 0.26863
47.55 0.26672
47.6 0.2641
47.65 0.26084
47.7 0.25713
47.75 0.25249
47.8 0.24753
47.85 0.24218
47.9 0.23613
47.95 0.22973
48 0.22347
48.05 0.21664
48.1 0.21
48.15 0.20276
48.2 0.19492
48.25 0.18759
48.3 0.18005
48.35 0.17302
48.4 0.1657
48.45 0.15843
48.5 0.15096
48.55 0.14392
48.6 0.13649
48.65 0.12944
48.7 0.12288
48.75 0.11594
48.8 0.1096
48.85 0.10302
48.9 0.09701
48.95 0.09096
49 0.08483
49.05 0.07948
49.1 0.07477
49.15 0.07064
49.2 0.06663
49.25 0.06267
49.3 0.05823
49.35 0.0536
49.4 0.04925
49.45 0.04556
49.5 0.04141
49.55 0.03705
49.6 0.0328
49.65 0.02878
49.7 0.02483
49.75 0.02125
49.8 0.01781
49.85 0.01494
49.9 0.01236
49.95 0.01027
50 0.0084
50.05 0.00637
50.1 0.00451
50.15 0.00306
50.2 0.00168
50.25 0.00039
50.3 -0.00146
50.35 -0.00351
50.4 -0.00576
50.45 -0.00735
50.5 -0.00873
50.55 -0.01
50.6 -0.01134
50.65 -0.01276
50.7 -0.01409
50.75 -0.01542
50.8 -0.01634
50.85 -0.01735
50.9 -0.01821
50.95 -0.01891
51 -0.01943
51.05 -0.02021
51.1 -0.02128
51.15 -0.02284
51.2 -0.02451
51.25 -0.02594
51.3 -0.02683
51.35 -0.02748
51.4 -0.02855
51.45 -0.02913
51.5 -0.02943
51.55 -0.03012
51.6 -0.0311
51.65 -0.03243
51.7 -0.03322
51.75 -0.03427
51.8 -0.03497
51.85 -0.0352
51.9 -0.03565
51.95 -0.03567
52 -0.03539
52.05 -0.03472
52.1 -0.03462
52.15 -0.03436
52.2 -0.03388
52.25 -0.0336
52.3 -0.03381
52.35 -0.03376
52.4 -0.03349
52.45 -0.03327
52.5 -0.0333
52.55 -0.03337
52.6 -0.03367
52.65 -0.03384
52.7 -0.03402
52.75 -0.03376
52.8 -0.03327
52.85 -0.03311
52.9 -0.03272
52.95 -0.03298
53 -0.03287
53.05 -0.03233
53.1 -0.0316
53.15 -0.03121
53.2 -0.03098
53.25 -0.03125
53.3 -0.03132
53.35 -0.03178
53.4 -0.03172
53.45 -0.03169
53.5 -0.03161
53.55 -0.03158
53.6 -0.03168
53.65 -0.03138
53.7 -0.03095
53.75 -0.03009
53.8 -0.02914
53.85 -0.02837
53.9 -0.02739
53.95 -0.02644
54 -0.02604
54.05 -0.02613
54.1 -0.0256
54.15 -0.02487
54.2 -0.02475
54.25 -0.02457
54.3 -0.02448
54.35 -0.02463
54.4 -0.02442
54.45 -0.02427
54.5 -0.0244
54.55 -0.02439
54.6 -0.02436
54.65 -0.02448
54.7 -0.02429
54.75 -0.02397
54.8 -0.0232
54.85 -0.02224
54.9 -0.02142
54.95 -0.02093
55 -0.02059
55.05 -0.02051
55.1 -0.0201
55.15 -0.01945
55.2 -0.019
55.25 -0.01828
55.3 -0.01794
55.35 -0.01764
55.4 -0.01713
55.45 -0.01714
55.5 -0.01742
55.55 -0.01778
55.6 -0.01776
55.65 -0.0171
55.7 -0.01633
55.75 -0.0157
55.8 -0.01517
55.85 -0.01464
55.9 -0.01389
55.95 -0.01351
56 -0.01362
56.05 -0.01346
56.1 -0.0131
56.15 -0.01307
56.2 -0.01339
56.25 -0.01319
56.3 -0.01261
56.35 -0.01176
56.4 -0.01129
56.45 -0.01117
56.5 -0.01157
56.55 -0.01168
56.6 -0.01208
56.65 -0.0125
56.7 -0.01271
56.75 -0.01238
56.8 -0.01176
56.85 -0.01147
56.9 -0.0116
56.95 -0.01145
57 -0.01146
57.05 -0.0117
57.1 -0.01155
57.15 -0.01129
57.2 -0.01074
57.25 -0.01032
57.3 -0.00964
57.35 -0.00959
57.4 -0.00964
57.45 -0.0095
57.5 -0.00956
57.55 -0.00922
57.6 -0.00896
57.65 -0.00865
57.7 -0.00824
57.75 -0.00784
57.8 -0.00712
57.85 -0.00698
57.9 -0.00711
57.95 -0.00712
58 -0.00708
58.05 -0.00681
58.1 -0.00682
58.15 -0.0065
58.2 -0.00624
58.25 -0.00594
58.3 -0.00536
58.35 -0.00513
58.4 -0.005
58.45 -0.00528
58.5 -0.00569
58.55 -0.0056
58.6 -0.00564
58.65 -0.00543
58.7 -0.00524
58.75 -0.00479
58.8 -0.00447
58.85 -0.00484
58.9 -0.00556
58.95 -0.00614
59 -0.00684
59.05 -0.0075
59.1 -0.00766
59.15 -0.00785
59.2 -0.00738
59.25 -0.007
59.3 -0.00622
59.35 -0.00514
59.4 -0.00407
59.45 -0.00366
59.5 -0.00353
59.55 -0.00383
59.6 -0.0041
59.65 -0.0046
59.7 -0.00474
59.75 -0.00514
59.8 -0.00576
59.85 -0.00588
59.9 -0.00549
59.95 -0.0055
60 -0.00548
60.05 -0.00546
60.1 -0.00518
60.15 -0.00527
60.2 -0.00537
60.25 -0.00554
60.3 -0.00557
60.35 -0.00575
60.4 -0.00598
60.45 -0.00554
60.5 -0.00519
60.55 -0.00484
60.6 -0.00479
60.65 -0.00452
60.7 -0.00399
60.75 -0.00368
60.8 -0.00326
60.85 -0.00272
60.9 -0.00262
60.95 -0.00251
61 -0.00271
61.05 -0.0032
61.1 -0.00341
61.15 -0.00329
61.2 -0.00281
61.25 -0.00294
61.3 -0.0033
61.35 -0.00339
61.4 -0.0035
61.45 -0.0033
61.5 -0.00277
61.55 -0.00242
61.6 -0.00249
61.65 -0.00266
61.7 -0.00246
61.75 -0.00249
61.8 -0.00269
61.85 -0.00318
61.9 -0.00369
61.95 -0.00368
62 -0.00362
62.05 -0.00351
62.1 -0.00301
62.15 -0.00229
62.2 -0.00158
62.25 -0.00111
62.3 -0.00049
62.35 0.00024
62.4 0.00012
62.45 -0.00029
62.5 -0.00091
62.55 -0.00088
62.6 -0.00083
62.65 -0.00132
62.7 -0.00159
62.75 -0.00176
62.8 -0.00214
62.85 -0.00212
62.9 -0.00208
62.95 -0.00158
63 -0.00138
63.05 -0.00168
63.1 -0.00141
63.15 -0.00144
63.2 -0.00171
63.25 -0.00191
63.3 -0.00219
63.35 -0.0023
63.4 -0.00227
63.45 -0.00254
63.5 -0.0024
63.55 -0.002
63.6 -0.00126
63.65 -0.00072
63.7 -0.00005
63.75 0.00029
63.8 -0.00004
63.85 -0.0007
63.9 -0.00151
63.95 -0.00228
64 -0.0026
64.05 -0.00293
64.1 -0.00255
64.15 -0.00205
64.2 -0.00144
64.25 -0.00056
64.3 0.00023
64.35 0.00069
64.4 0.00056
64.45 0.00036
64.5 0.0001
64.55 -0.00007
64.6 -0.00063
64.65 -0.00079
64.7 -0.00073
64.75 -0.00034
64.8 0.00019
64.85 0.00041
64.9 0.00016
64.95 -0.00009
65 -0.00006
65.05 -0.0001
65.1 -0.00029
65.15 -0.00014
65.2 0.00008
65.25 0.0003
65.3 0.00004
65.35 -0.00036
65.4 -0.00072
65.45 -0.00098
65.5 -0.00109
65.55 -0.00075
65.6 -0.00072
65.65 -0.0007
65.7 -0.00076
65.75 -0.00032
65.8 -0.00048
65.85 -0.00011
65.9 0.00001
65.95 -0.00017
66 -0.00002
66.05 -0.0002
66.1 -0.00027
66.15 -0.00076
66.2 -0.00068
66.25 -0.00016
66.3 0.00021
66.35 0.00003
66.4 -0.00019
66.45 0.00001
66.5 0.0005
66.55 0.00117
66.6 0.00137
66.65 0.00178
66.7 0.00217
66.75 0.00239
66.8 0.00262
66.85 0.00209
66.9 0.00113
66.95 0.00002
67 -0.00062
67.05 -0.00149
67.1 -0.00231
67.15 -0.003
67.2 -0.00275
67.25 -0.00211
67.3 -0.00159
67.35 -0.00121
67.4 -0.00081
67.45 -0.00044
67.5 0.0001
67.55 0.00008
67.6 0.00045
67.65 0.00071
67.7 0.00036
67.75 -0.00016
67.8 -0.00023
67.85 0.00017
67.9 0.00002
67.95 0.00002
68 -0.0003
68.05 -0.00094
68.1 -0.00137
68.15 -0.00128
68.2 -0.0008
68.25 -0.00066
68.3 -0.00075
68.35 -0.00108
68.4 -0.00167
68.45 -0.00145
68.5 -0.00099
68.55 -0.00052
68.6 -0.00049
68.65 -0.00023
68.7 0.00004
68.75 -0.0002
68.8 -0.00009
68.85 0.00001
68.9 -0.00021
68.95 -0.00047
69 -0.0007
69.05 -0.00082
69.1 -0.00091
69.15 -0.00124
69.2 -0.00161
69.25 -0.00215
69.3 -0.00203
69.35 -0.00176
69.4 -0.00149
69.45 -0.00162
69.5 -0.00131
69.55 -0.00129
69.6 -0.00123
69.65 -0.00138
69.7 -0.00101
69.75 -0.00051
69.8 0.00017
69.85 0.00041
69.9 0.00068
69.95 0.00068
70 0.00091
70.05 0.00146
70.1 0.0015
70.15 0.00183
70.2 0.00227
70.25 0.00264
70.3 0.00278
70.35 0.00311
70.4 0.00309
70.45 0.00231
70.5 0.00151
70.55 0.00037
70.6 -0.00077
70.65 -0.00175
70.7 -0.00224
70.75 -0.00222
70.8 -0.00228
70.85 -0.00187
70.9 -0.001
70.95 -0.00061
71 -0.00081
71.05 -0.00076
71.1 -0.00116
71.15 -0.00145
71.2 -0.00155
71.25 -0.00106
71.3 -0.00018
71.35 0.00086
71.4 0.00125
71.45 0.00164
71.5 0.00162
71.55 0.00122
71.6 0.00042
71.65 0.00003
71.7 -0.00012
71.75 -0.00053
71.8 -0.00029
71.85 -0.00025
71.9 -0.00065
71.95 -0.00105
72 -0.00126
72.05 -0.00178
72.1 -0.002
72.15 -0.00223
72.2 -0.0025
72.25 -0.00223
72.3 -0.00165
72.35 -0.00102
72.4 -0.00051
72.45 -0.0003
72.5 -0.00029
72.55 0.00004
72.6 -0.00001
72.65 0.00033
72.7 0.0003
72.75 0.00039
72.8 0.00082
72.85 0.00112
72.9 0.00116
72.95 0.00133
73 0.00146
73.05 0.00148
73.1 0.00096
73.15 0.0004
73.2 -0.00006
73.25 0.00003
73.3 0.00033
73.35 0.00061
73.4 0.00061
73.45 0.00097
73.5 0.00064
73.55 0.00064
73.6 0.00075
73.65 0.00076
73.7 0.00057
73.75 0.00007
73.8 -0.00024
73.85 -0.00046
73.9 -0.00092
73.95 -0.00071
74 -0.00068
74.05 -0.00034
74.1 0.00007
74.15 0.00004
74.2 -0.00034
74.25 -0.00083
74.3 -0.00106
74.35 -0.00142
74.4 -0.00109
74.45 -0.00071
74.5 -0.0002
74.55 -0.00025
74.6 -0.00014
74.65 -0.00002
74.7 -0.00043
74.75 -0.00037
74.8 -0.00062
74.85 -0.0008
74.9 -0.00109
74.95 -0.00133
75 -0.00122
75.05 -0.00134
75.1 -0.00146
75.15 -0.00128
75.2 -0.00125
75.25 -0.00083
75.3 -0.00065
75.35 -0.00081
75.4 -0.00082
75.45 -0.00096
75.5 -0.00079
75.55 -0.00106
75.6 -0.00106
75.65 -0.00054
75.7 -0.00031
75.75 0.00025
75.8 0.00077
75.85 0.00135
75.9 0.00147
75.95 0.00191
76 0.00155
76.05 0.00074
76.1 0.00044
76.15 0.00062
76.2 0.00042
76.25 -0.00016
76.3 -0.0001
76.35 -0.00001
76.4 0.00023
76.45 -0.00005
76.5 -0.00042
76.55 -0.00086
76.6 -0.00127
76.65 -0.00158
76.7 -0.00192
76.75 -0.0023
76.8 -0.00205
76.85 -0.00165
76.9 -0.00083
76.95 0.00018
77 0.00045
77.05 0.00018
77.1 -0.00025
77.15 -0.0002
77.2 -0.00007
77.25 0.00055
77.3 0.00057
77.35 0.00078
77.4 0.00094
77.45 0.00057
77.5 0.00007
77.55 -0.00008
77.6 -0.00002
77.65 0.00022
77.7 0.00044
77.75 0.00049
77.8 0.00027
77.85 -0.00019
77.9 -0.00076
77.95 -0.00065
78 -0.00087
78.05 -0.00065
78.1 -0.00078
78.15 -0.00116
78.2 -0.00136
78.25 -0.00169
78.3 -0.00213
78.35 -0.00207
78.4 -0.00205
78.45 -0.00179
78.5 -0.00161
78.55 -0.0017
78.6 -0.0018
78.65 -0.00182
78.7 -0.00138
78.75 -0.00088
78.8 -0.0003
78.85 0.00015
78.9 0.00058
78.95 0.00058
79 0.00083
79.05 0.00138
79.1 0.00146
79.15 0.00115
79.2 0.00098
79.25 0.00129
79.3 0.00118
79.35 0.00115
79.4 0.00108
79.45 0.00131
79.5 0.00115
79.55 0.00065
79.6 0.00042
79.65 0.00073
79.7 0.00053
79.75 -0.00008
79.8 -0.00033
79.85 -0.0001
79.9 -0.0004
79.95 -0.00085
80 -0.00102
80.05 -0.00122
80.1 -0.00163
80.15 -0.00217
80.2 -0.00217
80.25 -0.00232
80.3 -0.00258
80.35 -0.00229
80.4 -0.0018
80.45 -0.00166
80.5 -0.00161
80.55 -0.00158
80.6 -0.00118
80.65 -0.00051
80.7 0.00027
80.75 0.0009
80.8 0.00102
80.85 0.00105
80.9 0.00069
80.95 0.00029
81 0.00043
81.05 0.00051
81.1 0.00024
81.15 0.00045
81.2 0.00014
81.25 -0.00005
81.3 -0.00017
81.35 -0.0006
81.4 -0.00035
81.45 0.0001
81.5 0.00078
81.55 0.00094
81.6 0.00119
81.65 0.0009
81.7 0.00096
81.75 0.00099
81.8 0.00081
81.85 0.00038
81.9 -0.0002
81.95 -0.00096
82 -0.00142
82.05 -0.00183
82.1 -0.00206
82.15 -0.00183
82.2 -0.0018
82.25 -0.00193
82.3 -0.00203
82.35 -0.00171
82.4 -0.00159
82.45 -0.00123
82.5 -0.00096
82.55 -0.00021
82.6 -0.00008
82.65 0.00039
82.7 0.00064
82.75 0.00095
82.8 0.00147
82.85 0.00155
82.9 0.00154
82.95 0.00119
83 0.00075
83.05 0.00043
83.1 -0.00019
83.15 -0.00092
83.2 -0.00095
83.25 -0.00099
83.3 -0.00121
83.35 -0.00148
83.4 -0.00167
83.45 -0.00156
83.5 -0.00119
83.55 -0.00042
83.6 0.00017
83.65 0.0004
83.7 0.00066
83.75 0.0006
83.8 0.00034
83.85 0.00012
83.9 -0.00036
83.95 -0.00082
84 -0.00119
84.05 -0.0015
84.1 -0.00156
84.15 -0.00168
84.2 -0.00173
84.25 -0.00116
84.3 -0.00098
84.35 -0.0011
84.4 -0.00101
84.45 -0.00032
84.5 0.00026
84.55 0.00061
84.6 0.00063
84.65 0.00054
84.7 0.00062
84.75 0.00081
84.8 0.0006
84.85 0.0009
84.9 0.00111
84.95 0.00172
85 0.00209
85.05 0.00248
85.1 0.00246
85.15 0.00275
85.2 0.00324
85.25 0.00374
85.3 0.00388
85.35 0.00337
85.4 0.00281
85.45 0.00244
85.5 0.00229
85.55 0.00232
85.6 0.00213
85.65 0.00163
85.7 0.00098
85.75 0.00039
85.8 -0.00009
85.85 -0.00056
85.9 -0.00088
85.95 -0.0011
86 -0.00109
86.05 -0.00067
86.1 -0.00058
86.15 -0.00086
86.2 -0.00089
86.25 -0.00034
86.3 -0.00026
86.35 -0.00028
86.4 -0.00062
86.45 -0.00121
86.5 -0.0017
86.55 -0.00158
86.6 -0.00086
86.65 -0.00041
86.7 0.00025
86.75 0.00116
86.8 0.00133
86.85 0.00151
86.9 0.00199
86.95 0.00224
87 0.00215
87.05 0.00161
87.1 0.00132
87.15 0.00141
87.2 0.00127
87.25 0.00116
87.3 0.00093
87.35 0.00068
87.4 0.00093
87.45 0.00141
87.5 0.00199
87.55 0.00182
87.6 0.00182
87.65 0.00193
87.7 0.00219
87.75 0.00236
87.8 0.00213
87.85 0.00222
87.9 0.00212
87.95 0.00236
88 0.00279
88.05 0.00265
88.1 0.00242
88.15 0.00187
88.2 0.00095
88.25 0.00047
88.3 0.00046
88.35 0.00007
88.4 -0.00036
88.45 -0.00056
88.5 -0.00103
88.55 -0.00177
88.6 -0.00237
88.65 -0.00257
88.7 -0.00264
88.75 -0.00276
88.8 -0.00213
88.85 -0.00111
88.9 -0.00044
88.95 0.00037
89 0.00133
89.05 0.00169
89.1 0.00192
89.15 0.00222
89.2 0.00231
89.25 0.00199
89.3 0.00155
89.35 0.00133
89.4 0.00126
89.45 0.00068
89.5 0
89.55 -0.00035
89.6 -0.00057
89.65 -0.00024
89.7 0.00039
89.75 0.00087
89.8 0.00096
89.85 0.00081
89.9 0.00068
89.95 0.0002
90 -0.00058
90.05 -0.00088
90.1 -0.00135
90.15 -0.00118
90.2 -0.00063
90.25 -0.00013
90.3 0.00037
90.35 0.00097
90.4 0.00107
90.45 0.00137
90.5 0.00165
90.55 0.00138
90.6 0.00128
90.65 0.00106
90.7 0.0007
90.75 0.00015
90.8 0.00017
90.85 0.0004
90.9 0.0004
90.95 0.00059
91 0.00106
91.05 0.00167
91.1 0.00202
91.15 0.00226
91.2 0.00179
91.25 0.00098
91.3 0.0007
91.35 0.00025
91.4 -0.0001
91.45 -0.00074
91.5 -0.00087
91.55 -0.0013
91.6 -0.00177
91.65 -0.0017
91.7 -0.00106
91.75 -0.00076
91.8 -0.00093
91.85 -0.00084
91.9 -0.00083
91.95 -0.00073
92 -0.00043
92.05 -0.00013
92.1 -0.00012
92.15 -0.00008
92.2 -0.00006
92.25 -0.00032
92.3 -0.00032
92.35 -0.00054
92.4 -0.00032
92.45 -0.00016
92.5 -0.00034
92.55 0.00004
92.6 0.00039
92.65 0.00015
92.7 0.00033
92.75 0.00018
92.8 0.00042
92.85 0.0002
92.9 0.00049
92.95 0.00045
93 -0.00002
93.05 -0.00046
93.1 -0.00105
93.15 -0.00186
93.2 -0.00196
93.25 -0.00178
93.3 -0.00138
93.35 -0.00128
93.4 -0.00151
93.45 -0.00186
93.5 -0.00242
93.55 -0.00255
93.6 -0.00276
93.65 -0.00243
93.7 -0.00221
93.75 -0.0019
93.8 -0.00174
93.85 -0.00145
93.9 -0.00105
93.95 -0.00046
94 -0.00046
94.05 -0.00004
94.1 0.00027
94.15 0.00071
94.2 0.00119
94.25 0.00114
94.3 0.00094
94.35 0.00028
94.4 -0.00027
94.45 -0.00104
94.5 -0.0013
94.55 -0.00095
94.6 -0.00036
94.65 0.00037
94.7 0.00084
94.75 0.00098
94.8 0.00095
94.85 0.00043
94.9 -0.00028
94.95 -0.00077
95 -0.00137
95.05 -0.00139
95.1 -0.00109
95.15 -0.00094
95.2 -0.00028
95.25 0.00028
95.3 0.0002
95.35 0.00056
95.4 0.00024
95.45 0.00033
95.5 0.00053
95.55 0.00096
95.6 0.00087
95.65 0.00025
95.7 -0.00035
95.75 -0.00067
95.8 -0.00047
95.85 -0.00064
95.9 -0.00038
95.95 0.00025
96 0.00023
96.05 0.00063
96.1 0.00033
96.15 0.0004
96.2 -0.00007
96.25 -0.00034
96.3 -0.00083
96.35 -0.00133
96.4 -0.00113
96.45 -0.0005
96.5 -0.00041
96.55 -0.00057
96.6 -0.00062
96.65 -0.00058
96.7 -0.00031
96.75 -0.00043
96.8 -0.00038
96.85 -0.00042
96.9 -0.00074
96.95 -0.00054
97 -0.00051
97.05 -0.00073
97.1 -0.00039
97.15 -0.00009
97.2 0.0001
97.25 -0.00012
97.3 -0.00029
97.35 -0.00086
97.4 -0.00087
97.45 -0.00112
97.5 -0.00121
97.55 -0.00155
97.6 -0.00141
97.65 -0.00096
97.7 -0.00065
97.75 -0.00016
97.8 0.00046
97.85 0.00106
97.9 0.00148
97.95 0.00206
98 0.00176
98.05 0.00134
98.1 0.00068
98.15 0.00006
98.2 -0.00005
98.25 -0.00027
98.3 0.00003
98.35 -0.00022
98.4 -0.00015
98.45 -0.00048
98.5 -0.00101
98.55 -0.00133
98.6 -0.00097
98.65 -0.00032
98.7 -0.00013
98.75 -0.00016
98.8 0.0001
98.85 0.00076
98.9 0.00119
98.95 0.00139
99 0.00142
99.05 0.0015
99.1 0.00182
99.15 0.00216
99.2 0.00177
99.25 0.00159
99.3 0.00085
99.35 0.00001
99.4 -0.00094
99.45 -0.00114
99.5 -0.00093
99.55 -0.00043
99.6 -0.00025
99.65 -0.00004
99.7 -0.00019
99.75 -0.00008
99.8 -0.0001
99.85 0.00026
99.9 0.0006
99.95 0.00102
