0 0
0.05 0.00076
0.1 0.00212
0.15 0.00319
0.2 0.00489
0.25 0.00609
0.3 0.00724
0.35 0.00876
0.4 0.00961
0.45 0.00934
0.5 0.0094
0.55 0.00922
0.6 0.00828
0.65 0.00721
0.7 0.00592
0.75 0.00461
0.8 0.00411
0.85 0.00467
0.9 0.00597
0.95 0.00717
1 0.00749
1.05 0.00797
1.1 0.00886
1.15 0.00889
1.2 0.00927
1.25 0.00956
1.3 0.0095
1.35 0.00909
1.4 0.00827
1.45 0.00815
1.5 0.00801
1.55 0.00725
1.6 0.00645
1.65 0.00575
1.7 0.00545
1.75 0.00512
1.8 0.00562
1.85 0.00534
1.9 0.0045
1.95 0.0038
2 0.00423
2.05 0.00479
2.1 0.00538
2.15 0.00562
2.2 0.00512
2.25 0.00488
2.3 0.0044
2.35 0.00406
2.4 0.00379
2.45 0.00449
2.5 0.00572
2.55 0.00696
2.6 0.00822
2.65 0.00897
2.7 0.00917
2.75 0.0084
2.8 0.00687
2.85 0.00604
2.9 0.00487
2.95 0.00394
3 0.00368
3.05 0.00343
3.1 0.00399
3.15 0.00365
3.2 0.00386
3.25 0.0047
3.3 0.00455
3.35 0.00372
3.4 0.00285
3.45 0.00258
3.5 0.00208
3.55 0.00153
3.6 0.00103
3.65 0.00044
3.7 -0.00001
3.75 -0.00065
3.8 -0.00145
3.85 -0.00231
3.9 -0.00194
3.95 -0.00111
4 0.00036
4.05 0.00161
4.1 0.00258
4.15 0.0031
4.2 0.00402
4.25 0.00477
4.3 0.00511
4.35 0.00584
4.4 0.00548
4.45 0.0043
4.5 0.00345
4.55 0.00251
4.6 0.0019
4.65 0.00192
4.7 0.00231
4.75 0.00203
4.8 0.00129
4.85 0.00124
4.9 0.00208
4.95 0.00261
5 0.00293
5.05 0.00301
5.1 0.00361
5.15 0.00456
5.2 0.00542
5.25 0.00625
5.3 0.00663
5.35 0.00647
5.4 0.0057
5.45 0.00531
5.5 0.00409
5.55 0.00254
5.6 0.00081
5.65 0.00024
5.7 0.00048
5.75 0.00114
5.8 0.00167
5.85 0.0018
5.9 0.00237
5.95 0.00323
6 0.00408
6.05 0.00363
6.1 0.00382
6.15 0.00418
6.2 0.00463
6.25 0.00504
6.3 0.0055
6.35 0.00611
6.4 0.00637
6.45 0.00616
6.5 0.00607
6.55 0.00555
6.6 0.00551
6.65 0.00541
6.7 0.00527
6.75 0.00537
6.8 0.00511
6.85 0.00394
6.9 0.003
6.95 0.00211
7 0.00061
7.05 -0.00059
7.1 -0.00154
7.15 -0.00242
7.2 -0.00344
7.25 -0.00306
7.3 -0.00218
7.35 -0.00103
7.4 -0.00007
7.45 0.00051
7.5 0.00016
7.55 -0.00068
7.6 -0.00049
7.65 0.00017
7.7 0.00082
7.75 0.00083
7.8 0.00029
7.85 0.00049
7.9 0.00041
7.95 -0.00023
8 -0.00095
8.05 -0.00157
8.1 -0.00187
8.15 -0.00217
8.2 -0.00263
8.25 -0.00336
8.3 -0.00414
8.35 -0.0046
8.4 -0.00393
8.45 -0.00255
8.5 -0.00186
8.55 -0.00137
8.6 -0.00014
8.65 0.00097
8.7 0.00241
8.75 0.00247
8.8 0.00272
8.85 0.00245
8.9 0.00239
8.95 0.00229
9 0.00221
9.05 0.00223
9.1 0.00192
9.15 0.00126
9.2 0.00023
9.25 -0.00011
9.3 -0.00084
9.35 -0.00053
9.4 -0.00086
9.45 -0.00028
9.5 0.00009
9.55 0.00029
9.6 0.00067
9.65 0.00061
9.7 0.00031
9.75 0.00089
9.8 0.00114
9.85 0.0007
9.9 0.00103
9.95 0.00187
10 0.00195
10.05 0.00132
10.1 0.00153
10.15 0.00093
10.2 -0.00015
10.25 -0.00015
10.3 -0.00058
10.35 -0.00126
10.4 -0.00229
10.45 -0.00281
10.5 -0.00278
10.55 -0.00176
10.6 -0.00115
10.65 -0.00129
10.7 -0.00183
10.75 -0.00219
10.8 -0.00277
10.85 -0.00271
10.9 -0.00293
10.95 -0.00328
11 -0.00383
11.05 -0.00399
11.1 -0.00347
11.15 -0.00223
11.2 -0.00101
11.25 -0.00057
11.3 -0.00058
11.35 -0.00105
11.4 -0.00124
11.45 -0.00059
11.5 0.00009
11.55 0.00128
11.6 0.0025
11.65 0.00305
11.7 0.00254
11.75 0.00272
11.8 0.0034
11.85 0.00295
11.9 0.00169
11.95 0.00092
12 0.00049
12.05 0.00042
12.1 -0.00007
12.15 0.00015
12.2 0.00001
12.25 -0.0006
12.3 -0.00094
12.35 -0.00069
12.4 -0.00012
12.45 0.00093
12.5 0.00198
12.55 0.00274
12.6 0.00338
12.65 0.00426
12.7 0.00426
12.75 0.00466
12.8 0.00528
12.85 0.00463
12.9 0.00331
12.95 0.00169
13 0.0004
13.05 -0.00041
13.1 -0.00075
13.15 -0.00118
13.2 -0.0016
13.25 -0.00235
13.3 -0.00255
13.35 -0.00301
13.4 -0.00275
13.45 -0.00228
13.5 -0.00212
13.55 -0.00191
13.6 -0.00204
13.65 -0.00158
13.7 -0.00046
13.75 0.00051
13.8 0.00033
13.85 -0.0002
13.9 -0.00053
13.95 -0.00062
14 -0.00064
14.05 -0.00047
14.1 0.00014
14.15 -0.00023
14.2 -0.00066
14.25 -0.00155
14.3 -0.00141
14.35 -0.00078
14.4 -0.00106
14.45 -0.00169
14.5 -0.00171
14.55 -0.00136
14.6 -0.00127
14.65 -0.00119
14.7 -0.00037
14.75 -0.00042
14.8 -0.00094
14.85 -0.0019
14.9 -0.00157
14.95 -0.0008
15 0.00053
15.05 0.00186
15.1 0.00231
15.15 0.00282
15.2 0.00265
15.25 0.00184
15.3 0.00086
15.35 0.00063
15.4 0.00006
15.45 -0.00102
15.5 -0.00186
15.55 -0.00231
15.6 -0.00199
15.65 -0.00169
15.7 -0.0015
15.75 -0.00131
15.8 -0.00078
15.85 -0.00087
15.9 -0.00141
15.95 -0.00162
16 -0.00222
16.05 -0.00178
16.1 -0.00194
16.15 -0.00163
16.2 -0.00124
16.25 -0.00057
16.3 0.00072
16.35 0.00148
16.4 0.0015
16.45 0.00162
16.5 0.00219
16.55 0.0019
16.6 0.00158
16.65 0.00172
16.7 0.00165
16.75 0.00167
16.8 0.00197
16.85 0.00159
16.9 0.0009
16.95 0.00037
17 -0.00058
17.05 -0.00056
17.1 -0.00002
17.15 0.00011
17.2 0.00012
17.25 0.00063
17.3 0.00033
17.35 0.00089
17.4 0.00162
17.45 0.0021
17.5 0.00196
17.55 0.00232
17.6 0.00245
17.65 0.00209
17.7 0.00194
17.75 0.0023
17.8 0.0022
17.85 0.00153
17.9 0.00153
17.95 0.00119
18 0.00031
18.05 -0.00105
18.1 -0.00218
18.15 -0.00264
18.2 -0.00267
18.25 -0.00175
18.3 -0.00178
18.35 -0.00211
18.4 -0.00202
18.45 -0.00187
18.5 -0.00141
18.55 -0.00116
18.6 -0.00104
18.65 -0.00111
18.7 -0.00034
18.75 0.00045
18.8 0.00099
18.85 0.00088
18.9 0.00143
18.95 0.00156
19 0.00119
19.05 0.00086
19.1 0.00011
19.15 -0.00021
19.2 0.00009
19.25 -0.0003
19.3 -0.00126
19.35 -0.00142
19.4 -0.00117
19.45 -0.00138
19.5 -0.00148
19.55 -0.00188
19.6 -0.00174
19.65 -0.00146
19.7 -0.00127
19.75 -0.00168
19.8 -0.00138
19.85 -0.00157
19.9 -0.00166
19.95 -0.00106
20 -0.00028
20.05 0.00032
20.1 0.00043
20.15 0.00018
20.2 -0.00022
20.25 -0.00055
20.3 -0.00108
20.35 -0.00126
20.4 -0.00113
20.45 -0.00057
20.5 0
20.55 0.00014
20.6 0.00094
20.65 0.00074
20.7 -0.00021
20.75 -0.00018
20.8 0.00025
20.85 0.00098
20.9 0.00173
20.95 0.00186
21 0.00136
21.05 0.00067
21.1 -0.00023
21.15 -0.00028
21.2 -0.00078
21.25 -0.00133
21.3 -0.00112
21.35 -0.0005
21.4 -0.00031
21.45 -0.00033
21.5 0.00001
21.55 -0.00035
21.6 0.00001
21.65 -0.00008
21.7 -0.00004
21.75 -0.00064
21.8 -0.00109
21.85 -0.00141
21.9 -0.00121
21.95 -0.00088
22 -0.00066
22.05 0.00008
22.1 0.00033
22.15 0.00013
22.2 -0.00038
22.25 -0.00135
22.3 -0.00187
22.35 -0.00213
22.4 -0.0023
22.45 -0.00235
22.5 -0.00206
22.55 -0.00149
22.6 -0.00154
22.65 -0.00084
22.7 -0.00092
22.75 -0.00048
22.8 -0.00062
22.85 -0.00088
22.9 -0.00116
22.95 -0.00187
23 -0.00236
23.05 -0.00202
23.1 -0.00217
23.15 -0.00165
23.2 -0.00191
23.25 -0.0013
23.3 -0.00054
23.35 0.00074
23.4 0.00162
23.45 0.00204
23.5 0.00181
23.55 0.00172
23.6 0.00164
23.65 0.00146
23.7 0.00181
23.75 0.00169
23.8 0.00144
23.85 0.00106
23.9 0.00021
23.95 0.00008
24 0.00026
24.05 0.00049
24.1 0.0003
24.15 0.00044
24.2 0.00001
24.25 -0.00017
24.3 -0.00034
24.35 0.00001
24.4 0.00074
24.45 0.00134
24.5 0.00117
24.55 0.00091
24.6 0.00038
24.65 -0.00063
24.7 -0.00169
24.75 -0.00286
24.8 -0.00298
24.85 -0.0031
24.9 -0.00284
24.95 -0.00194
25 -0.00101
25.05 -0.00069
25.1 0.00019
25.15 0.00155
25.2 0.00156
25.25 0.00165
25.3 0.00119
25.35 0.0001
25.4 -0.00011
25.45 -0.00037
25.5 0.00021
25.55 0.00049
25.6 0.00095
25.65 0.0012
25.7 0.00151
25.75 0.00108
25.8 0.00131
25.85 0.00206
25.9 0.00243
25.95 0.00255
26 0.00297
26.05 0.00313
26.1 0.00249
26.15 0.00176
26.2 0.00041
26.25 -0.00072
26.3 -0.00114
26.35 -0.00153
26.4 -0.00092
26.45 -0.00078
26.5 -0.00095
26.55 -0.00163
26.6 -0.00125
26.65 -0.00033
26.7 -0.00036
26.75 0.00018
26.8 0.0003
26.85 0.00016
26.9 0.00019
26.95 -0.00037
27 0.00001
27.05 0.00057
27.1 0.00152
27.15 0.00266
27.2 0.00245
27.25 0.00194
27.3 0.00144
27.35 0.0011
27.4 0.00135
27.45 0.00212
27.5 0.00185
27.55 0.00191
27.6 0.0025
27.65 0.00325
27.7 0.00418
27.75 0.00426
27.8 0.0043
27.85 0.00409
27.9 0.00299
27.95 0.00272
28 0.0016
28.05 0.00026
28.1 0.00005
28.15 0.00019
28.2 -0.00013
28.25 0.0004
28.3 0.00078
28.35 0.00105
28.4 0.00066
28.45 0.00007
28.5 -0.00035
28.55 -0.00124
28.6 -0.0013
28.65 -0.00051
28.7 -0.00028
28.75 -0.00033
28.8 -0.00046
28.85 -0.00122
28.9 -0.00199
28.95 -0.00196
29 -0.002
29.05 -0.00161
29.1 -0.00142
29.15 -0.00165
29.2 -0.00239
29.25 -0.00308
29.3 -0.00348
29.35 -0.00338
29.4 -0.00313
29.45 -0.00341
29.5 -0.00306
29.55 -0.00188
29.6 -0.00165
29.65 -0.00161
29.7 -0.00132
29.75 -0.00144
29.8 -0.002
29.85 -0.00244
29.9 -0.00253
29.95 -0.00299
30 -0.003
30.05 -0.00315
30.1 -0.00358
30.15 -0.00334
30.2 -0.00312
30.25 -0.00249
30.3 -0.00259
30.35 -0.00315
30.4 -0.00306
30.45 -0.00205
30.5 -0.00069
30.55 0.00082
30.6 0.00116
30.65 0.0011
30.7 0.00168
30.75 0.00193
30.8 0.00129
30.85 0.00122
30.9 0.00157
30.95 0.00234
31 0.00269
31.05 0.00267
31.1 0.00277
31.15 0.00328
31.2 0.0028
31.25 0.00215
31.3 0.00185
31.35 0.00129
31.4 0.00135
31.45 0.00093
31.5 0.00015
31.55 -0.00029
31.6 -0.00033
31.65 -0.00019
31.7 -0.00076
31.75 -0.00153
31.8 -0.00263
31.85 -0.00289
31.9 -0.00223
31.95 -0.0019
32 -0.00182
32.05 -0.00092
32.1 -0.0008
32.15 -0.00097
32.2 -0.0015
32.25 -0.00134
32.3 -0.00167
32.35 -0.0017
32.4 -0.00103
32.45 -0.00096
32.5 -0.00152
32.55 -0.00121
32.6 -0.00089
32.65 -0.00027
32.7 -0.00026
32.75 0.00059
32.8 0.00095
32.85 0.00089
32.9 0.00104
32.95 0.00128
33 0.00137
33.05 0.00182
33.1 0.00184
33.15 0.00231
33.2 0.00186
33.25 0.00209
33.3 0.00139
33.35 0.00071
33.4 -0.00046
33.45 -0.00047
33.5 -0.00034
33.55 0.00037
33.6 0.00152
33.65 0.00165
33.7 0.00209
33.75 0.00177
33.8 0.00111
33.85 0.00069
33.9 0.00109
33.95 0.00151
34 0.00129
34.05 0.00165
34.1 0.0015
34.15 0.00145
34.2 0.00086
34.25 0.00054
34.3 -0.00017
34.35 -0.00104
34.4 -0.00102
34.45 -0.00134
34.5 -0.00102
34.55 -0.0009
34.6 -0.00024
34.65 0.00047
34.7 0.00036
34.75 0.00026
34.8 0.00012
34.85 -0.00075
34.9 -0.00134
34.95 -0.00228
35 -0.00308
35.05 -0.0028
35.1 -0.00196
35.15 -0.0016
35.2 -0.00199
35.25 -0.00211
35.3 -0.00238
35.35 -0.00303
35.4 -0.00295
35.45 -0.00274
35.5 -0.00221
35.55 -0.00238
35.6 -0.0016
35.65 -0.00092
35.7 -0.00019
35.75 0.00025
35.8 0.00016
35.85 -0.00055
35.9 -0.00115
35.95 -0.0021
36 -0.00235
36.05 -0.00188
36.1 -0.00198
36.15 -0.00249
36.2 -0.00299
36.25 -0.0025
36.3 -0.00176
36.35 -0.00177
36.4 -0.00218
36.45 -0.00211
36.5 -0.00255
36.55 -0.00214
36.6 -0.00087
36.65 0.00048
36.7 0.00117
36.75 0.00132
36.8 0.00061
36.85 -0.0005
36.9 -0.00091
36.95 -0.00136
37 -0.00179
37.05 -0.00133
37.1 -0.00058
37.15 0.00064
37.2 0.00143
37.25 0.00176
37.3 0.00259
37.35 0.00303
37.4 0.00286
37.45 0.00267
37.5 0.00294
37.55 0.00244
37.6 0.00211
37.65 0.00165
37.7 0.00062
37.75 0.00005
37.8 -0.00063
37.85 -0.00167
37.9 -0.00216
37.95 -0.00209
38 -0.00128
38.05 -0.00001
38.1 0.00073
38.15 0.00136
38.2 0.00151
38.25 0.00107
38.3 0.00003
38.35 -0.00069
38.4 -0.0009
38.45 -0.00159
38.5 -0.0017
38.55 -0.00138
38.6 -0.00106
38.65 -0.00094
38.7 -0.0005
38.75 -0.00028
38.8 0.00068
38.85 0.00206
38.9 0.0027
38.95 0.00289
39 0.00255
39.05 0.00216
39.1 0.00218
39.15 0.00228
39.2 0.0016
39.25 0.00127
39.3 0.00145
39.35 0.00217
39.4 0.00229
39.45 0.00289
39.5 0.00275
39.55 0.00311
39.6 0.00278
39.65 0.00173
39.7 0.00051
39.75 -0.00052
39.8 -0.00061
39.85 -0.00131
39.9 -0.00088
39.95 -0.00088
40 -0.00009
40.05 0.00056
40.1 0.0013
40.15 0.00137
40.2 0.00171
40.25 0.00156
40.3 0.0011
40.35 0.00096
40.4 0.00105
40.45 0.00083
40.5 0.00007
40.55 0.00028
40.6 0.00007
40.65 -0.00046
40.7 -0.00118
40.75 -0.0022
40.8 -0.00199
40.85 -0.00175
40.9 -0.0022
40.95 -0.00224
41 -0.00176
41.05 -0.00205
41.1 -0.00206
41.15 -0.00232
41.2 -0.00166
41.25 -0.00121
41.3 -0.00033
41.35 0.00046
41.4 0.00118
41.45 0.00223
41.5 0.00204
41.55 0.00224
41.6 0.00211
41.65 0.00188
41.7 0.00209
41.75 0.00246
41.8 0.00268
41.85 0.00283
41.9 0.00335
41.95 0.00403
42 0.00449
42.05 0.00433
42.1 0.00378
42.15 0.00324
42.2 0.00317
42.25 0.00235
42.3 0.00142
42.35 0.00028
42.4 -0.00059
42.45 -0.00182
42.5 -0.00286
42.55 -0.00409
42.6 -0.00497
42.65 -0.00566
42.7 -0.00502
42.75 -0.00348
42.8 -0.00194
42.85 -0.00052
42.9 -0.00021
42.95 -0.00018
43 -0.00073
43.05 -0.00175
43.1 -0.00295
43.15 -0.00362
43.2 -0.00378
43.25 -0.00378
43.3 -0.00323
43.35 -0.00291
43.4 -0.00283
43.45 -0.00236
43.5 -0.00127
43.55 -0.00105
43.6 -0.00023
43.65 -0.00038
43.7 -0.00043
43.75 -0.00084
43.8 -0.00054
43.85 -0.00094
43.9 -0.00171
43.95 -0.00125
44 -0.00112
44.05 -0.00154
44.1 -0.00232
44.15 -0.00192
44.2 -0.00174
44.25 -0.0017
44.3 -0.00145
44.35 -0.00036
44.4 0.00107
44.45 0.00153
44.5 0.00236
44.55 0.00323
44.6 0.00392
44.65 0.00342
44.7 0.00245
44.75 0.00131
44.8 0.00066
44.85 0.00006
44.9 0.00032
44.95 0.00026
45 0.00032
45.05 0.00022
45.1 0.00006
45.15 0.00015
45.2 -0.00031
45.25 -0.00092
45.3 -0.00051
45.35 -0.00079
45.4 -0.00038
45.45 0.00015
45.5 0.00006
45.55 -0.00059
45.6 -0.00155
45.65 -0.00194
45.7 -0.00183
45.75 -0.00177
45.8 -0.00189
45.85 -0.00201
45.9 -0.00181
45.95 -0.00089
46 -0.00027
46.05 0.00096
46.1 0.00102
46.15 0.00068
46.2 0.00051
46.25 0.00046
46.3 -0.00007
46.35 -0.00082
46.4 -0.00051
46.45 -0.00093
46.5 -0.00117
46.55 -0.0008
46.6 -0.00052
46.65 0.00004
46.7 0.00005
46.75 -0.00045
46.8 -0.00079
46.85 -0.00109
46.9 -0.00181
46.95 -0.00162
47 -0.00083
47.05 -0.00032
47.1 0.00088
47.15 0.00211
47.2 0.00256
47.25 0.00294
47.3 0.003
47.35 0.00215
47.4 0.0011
47.45 -0.00003
47.5 -0.00071
47.55 -0.00082
47.6 -0.00064
47.65 -0.00006
47.7 0.00006
47.75 0.00042
47.8 0.00141
47.85 0.00132
47.9 0.00156
47.95 0.00155
48 0.00186
48.05 0.00197
48.1 0.00226
48.15 0.00196
48.2 0.00147
48.25 0.00054
48.3 -0.00055
48.35 -0.00173
48.4 -0.00223
48.45 -0.00215
48.5 -0.0011
48.55 0.00019
48.6 0.00027
48.65 0.0011
48.7 0.00202
48.75 0.00198
48.8 0.00243
48.85 0.00228
48.9 0.00123
48.95 0.00033
49 -0.00028
49.05 -0.00055
49.1 -0.00013
49.15 0.00011
49.2 -0.00017
49.25 0.00003
49.3 -0.00051
49.35 -0.00036
49.4 0.00034
49.45 0.00068
49.5 0.00075
49.55 0.0014
49.6 0.00166
49.65 0.00204
49.7 0.00214
49.75 0.00228
49.8 0.00171
49.85 0.00178
49.9 0.0016
49.95 0.00081
50 -0.00025
50.05 -0.00097
50.1 -0.00177
50.15 -0.00283
50.2 -0.00275
50.25 -0.00306
50.3 -0.00231
50.35 -0.00228
50.4 -0.00262
50.45 -0.00258
50.5 -0.00288
50.55 -0.00352
50.6 -0.00344
50.65 -0.00383
50.7 -0.00354
50.75 -0.00228
50.8 -0.00197
50.85 -0.00157
50.9 -0.001
50.95 -0.00085
51 -0.00063
51.05 -0.00091
51.1 -0.00018
51.15 0.00053
51.2 0.00111
51.25 0.00116
51.3 0.0017
51.35 0.00179
51.4 0.00103
51.45 0.00011
51.5 0.00025
51.55 0.00061
51.6 0.00124
51.65 0.00083
51.7 0.00035
51.75 0.00077
51.8 0.00089
51.85 0.00099
51.9 0.00172
51.95 0.00145
52 0.00052
52.05 0.00068
52.1 0.0007
52.15 0.00082
52.2 0.00067
52.25 0.00058
52.3 0.00051
52.35 0.00042
52.4 -0.00013
52.45 0.00028
52.5 0.00033
52.55 0.0006
52.6 0.00041
52.65 -0.00039
52.7 -0.00144
52.75 -0.00224
52.8 -0.00297
52.85 -0.00355
52.9 -0.00401
52.95 -0.0041
53 -0.00336
53.05 -0.00198
53.1 -0.00027
53.15 0.0001
53.2 0.00051
53.25 0.0013
53.3 0.00133
53.35 0.00094
53.4 -0.0001
53.45 -0.00031
53.5 0.00038
53.55 0.00154
53.6 0.0016
53.65 0.00142
53.7 0.00171
53.75 0.00183
53.8 0.00198
53.85 0.00151
53.9 0.00039
53.95 -0.00002
54 -0.00094
54.05 -0.00109
54.1 -0.00061
54.15 -0.0003
54.2 -0.00031
54.25 -0.00005
54.3 0.00021
54.35 0.00048
54.4 0.00095
54.45 0.00079
54.5 -0
54.55 -0.00076
54.6 -0.00133
54.65 -0.00211
54.7 -0.00202
54.75 -0.00142
54.8 -0.00114
54.85 -0.00051
54.9 -0.00077
54.95 -0.0016
55 -0.00248
55.05 -0.00344
55.1 -0.00379
55.15 -0.00291
55.2 -0.0021
55.25 -0.00118
55.3 -0.00061
55.35 -0.00016
55.4 -0.00015
55.45 -0.0008
55.5 -0.00179
55.55 -0.00211
55.6 -0.00238
55.65 -0.00214
55.7 -0.00245
55.75 -0.00185
55.8 -0.00122
55.85 -0.00039
55.9 0.00001
55.95 0.00068
56 0.00101
56.05 0.0016
56.1 0.00193
56.15 0.0022
56.2 0.0029
56.25 0.00295
56.3 0.00232
56.35 0.00245
56.4 0.00284
56.45 0.00364
56.5 0.00454
56.55 0.00475
56.6 0.00423
56.65 0.00301
56.7 0.00278
56.75 0.00318
56.8 0.00319
56.85 0.00373
56.9 0.00321
56.95 0.00287
57 0.00309
57.05 0.00254
57.1 0.00194
57.15 0.00118
57.2 0.00018
57.25 -0.0004
57.3 -0.00116
57.35 -0.00174
57.4 -0.00177
57.45 -0.00183
57.5 -0.00167
57.55 -0.00136
57.6 -0.00026
57.65 -0.00013
57.7 -0.00055
57.75 -0.00092
57.8 -0.00124
57.85 -0.00212
57.9 -0.00224
57.95 -0.00262
58 -0.00237
58.05 -0.00127
58.1 -0.00001
58.15 0.00122
58.2 0.00232
58.25 0.00254
58.3 0.00269
58.35 0.00227
58.4 0.00204
58.45 0.00155
58.5 0.0008
58.55 0.0004
58.6 -0.0001
58.65 -0.00062
58.7 -0.00116
58.75 -0.00197
58.8 -0.00255
58.85 -0.00239
58.9 -0.00163
58.95 -0.00164
59 -0.00084
59.05 -0.00006
59.1 0.00085
59.15 0.00185
59.2 0.00251
59.25 0.00343
59.3 0.00383
59.35 0.00311
59.4 0.00181
59.45 0.0005
59.5 0.00009
59.55 -0.00032
59.6 0.00008
59.65 0.00055
59.7 0.00042
59.75 0.00007
59.8 0.00004
59.85 0.00034
59.9 0.00004
59.95 -0.0007
60 -0.0015
60.05 -0.00258
60.1 -0.00351
60.15 -0.00453
60.2 -0.00466
60.25 -0.00432
60.3 -0.00306
60.35 -0.00235
60.4 -0.00226
60.45 -0.00178
60.5 -0.00194
60.55 -0.00154
60.6 -0.00071
60.65 -0.00042
60.7 -0.00024
60.75 -0.00053
60.8 -0.00035
60.85 0.00015
60.9 0.00037
60.95 0.00079
61 0.00074
61.05 0.00141
61.1 0.00165
61.15 0.00116
61.2 0.00016
61.25 -0.00026
61.3 -0.00122
61.35 -0.00239
61.4 -0.0032
61.45 -0.00383
61.5 -0.00453
61.55 -0.00524
61.6 -0.00596
61.65 -0.00518
61.7 -0.00427
61.75 -0.00362
61.8 -0.00221
61.85 -0.00087
61.9 -0.00013
61.95 0.00023
62 0.00001
62.05 0.00072
62.1 0.0011
62.15 0.00074
62.2 0.00083
62.25 0.00026
62.3 -0.00064
62.35 -0.0009
62.4 -0.00057
62.45 -0.00003
62.5 0.0004
62.55 0.00116
62.6 0.00201
62.65 0.0022
62.7 0.00243
62.75 0.00188
62.8 0.00089
62.85 -0.00002
62.9 -0.00097
62.95 -0.00195
63 -0.00155
63.05 -0.00045
63.1 0.00113
63.15 0.00252
63.2 0.003
63.25 0.0025
63.3 0.00147
63.35 0.0008
63.4 0.0001
63.45 -0.0008
63.5 -0.00166
63.55 -0.00217
63.6 -0.00237
63.65 -0.00248
63.7 -0.00288
63.75 -0.00308
63.8 -0.00278
63.85 -0.00214
63.9 -0.00099
63.95 -0.00018
64 0.00038
64.05 0.00145
64.1 0.00198
64.15 0.0025
64.2 0.00327
64.25 0.00372
64.3 0.00316
64.35 0.00323
64.4 0.00262
64.45 0.00198
64.5 0.00121
64.55 0.00117
64.6 0.00122
64.65 0.00132
64.7 0.001
64.75 0.00046
64.8 -0.00044
64.85 -0.00066
64.9 -0.00066
64.95 -0.00026
65 -0.00019
65.05 -0.00057
65.1 -0.0003
65.15 -0.00082
65.2 -0.00054
65.25 -0.00073
65.3 -0.00031
65.35 -0.00022
65.4 -0.0008
65.45 -0.00137
65.5 -0.0023
65.55 -0.00282
65.6 -0.00317
65.65 -0.0038
65.7 -0.00457
65.75 -0.00443
65.8 -0.00454
65.85 -0.00441
65.9 -0.0034
65.95 -0.00177
66 0.00019
66.05 0.00171
66.1 0.00214
66.15 0.00261
66.2 0.00312
66.25 0.00348
66.3 0.00331
66.35 0.00264
66.4 0.00264
66.45 0.00273
66.5 0.0031
66.55 0.0028
66.6 0.00269
66.65 0.00214
66.7 0.0022
66.75 0.00174
66.8 0.00062
66.85 -0.00031
66.9 -0.00132
66.95 -0.00187
67 -0.0022
67.05 -0.00247
67.1 -0.00207
67.15 -0.00185
67.2 -0.00106
67.25 -0.00059
67.3 0.00006
67.35 0.0004
67.4 0.00032
67.45 0.00004
67.5 0.00026
67.55 0.00071
67.6 0.00153
67.65 0.00196
67.7 0.00161
67.75 0.00188
67.8 0.00147
67.85 0.00073
67.9 -0.00005
67.95 -0.00069
68 -0.00065
68.05 -0.0008
68.1 -0.00119
68.15 -0.00102
68.2 -0.0007
68.25 -0.00088
68.3 -0.0006
68.35 -0.00055
68.4 -0.00016
68.45 0.00012
68.5 -0.00039
68.55 -0.00008
68.6 -0.00012
68.65 0.00056
68.7 0.00107
68.75 0.00137
68.8 0.00172
68.85 0.0014
68.9 0.0004
68.95 -0.00042
69 -0.0006
69.05 -0.00044
69.1 -0.00082
69.15 -0.00106
69.2 -0.00175
69.25 -0.00166
69.3 -0.00094
69.35 -0.00105
69.4 -0.00093
69.45 -0.00055
69.5 0.00025
69.55 0.00044
69.6 0.00008
69.65 0.0002
69.7 0.00026
69.75 0.00038
69.8 -0.00019
69.85 -0.00078
69.9 -0.00117
69.95 -0.0007
70 -0.00048
70.05 0.00043
70.1 0.00038
70.15 0.00008
70.2 -0.00034
70.25 -0.00029
70.3 -0.00009
70.35 -0.00068
70.4 -0.00041
70.45 0.00024
70.5 0.00009
70.55 -0.00034
70.6 -0.00031
70.65 0.00023
70.7 0.00122
70.75 0.0021
70.8 0.00223
70.85 0.00226
70.9 0.00211
70.95 0.00253
71 0.00311
71.05 0.00344
71.1 0.00317
71.15 0.00294
71.2 0.00305
71.25 0.00249
71.3 0.00128
71.35 0.00057
71.4 0.00072
71.45 0.00116
71.5 0.00092
71.55 -0.00002
71.6 -0.00043
71.65 -0.00019
71.7 0.00009
71.75 -0.00018
71.8 -0.00114
71.85 -0.00191
71.9 -0.00199
71.95 -0.00245
72 -0.00233
72.05 -0.00258
72.1 -0.00347
72.15 -0.00423
72.2 -0.00571
72.25 -0.00741
72.3 -0.01004
72.35 -0.0127
72.4 -0.01459
72.45 -0.0167
72.5 -0.01931
72.55 -0.0221
72.6 -0.02524
72.65 -0.02894
72.7 -0.03338
72.75 -0.03924
72.8 -0.04668
72.85 -0.05553
72.9 -0.0649
72.95 -0.07473
73 -0.08589
73.05 -0.09774
73.1 -0.11041
73.15 -0.12387
73.2 -0.13854
73.25 -0.15444
73.3 -0.17192
73.35 -0.19056
73.4 -0.20999
73.45 -0.23009
73.5 -0.25028
73.55 -0.27089
73.6 -0.29161
73.65 -0.31352
73.7 -0.3362
73.75 -0.35787
73.8 -0.37866
73.85 -0.39933
73.9 -0.41881
73.95 -0.43765
74 -0.4544
74.05 -0.46877
74.1 -0.48095
74.15 -0.49058
74.2 -0.49766
74.25 -0.50198
74.3 -0.50242
74.35 -0.4994
74.4 -0.49332
74.45 -0.48254
74.5 -0.46757
74.55 -0.44956
74.6 -0.42835
74.65 -0.40393
74.7 -0.37712
74.75 -0.34805
74.8 -0.31663
74.85 -0.28284
74.9 -0.2464
74.95 -0.20812
75 -0.16912
75.05 -0.12919
75.1 -0.08897
75.15 -0.04987
75.2 -0.01185
75.25 0.02586
75.3 0.06158
75.35 0.09649
75.4 0.12891
75.45 0.15951
75.5 0.18868
75.55 0.21521
75.6 0.23983
75.65 0.26271
75.7 0.28297
75.75 0.30106
75.8 0.31732
75.85 0.33211
75.9 0.34481
75.95 0.35513
76 0.36367
76.05 0.37186
76.1 0.37929
76.15 0.3856
76.2 0.39091
76.25 0.39446
76.3 0.39639
76.35 0.39866
76.4 0.40054
76.45 0.40135
76.5 0.40162
76.55 0.40092
76.6 0.39959
76.65 0.39759
76.7 0.39477
76.75 0.39136
76.8 0.38722
76.85 0.38329
76.9 0.37945
76.95 0.37602
77 0.37221
77.05 0.36692
77.1 0.36145
77.15 0.35559
77.2 0.34896
77.25 0.34138
77.3 0.33431
77.35 0.32672
77.4 0.31895
77.45 0.31062
77.5 0.30229
77.55 0.29406
77.6 0.28571
77.65 0.27635
77.7 0.26689
77.75 0.25716
77.8 0.24706
77.85 0.23689
77.9 0.22778
77.95 0.21943
78 0.2116
78.05 0.20285
78.1 0.19402
78.15 0.18445
78.2 0.17496
78.25 0.16642
78.3 0.1575
78.35 0.14922
78.4 0.14134
78.45 0.13382
78.5 0.12618
78.55 0.11814
78.6 0.11039
78.65 0.10258
78.7 0.09591
78.75 0.08901
78.8 0.08324
78.85 0.07714
78.9 0.07076
78.95 0.06519
79 0.0601
79.05 0.05437
79.1 0.04845
79.15 0.04321
79.2 0.038
79.25 0.03373
79.3 0.02996
79.35 0.02647
79.4 0.02343
79.45 0.01996
79.5 0.0159
79.55 0.01262
79.6 0.00844
79.65 0.00459
79.7 0.00147
79.75 -0.00133
79.8 -0.00394
79.85 -0.00652
79.9 -0.00994
79.95 -0.01315
80 -0.01682
80.05 -0.02071
80.1 -0.0244
80.15 -0.0277
80.2 -0.03051
80.25 -0.0322
80.3 -0.03392
80.35 -0.03537
80.4 -0.03737
80.45 -0.03932
80.5 -0.04152
80.55 -0.0433
80.6 -0.04509
80.65 -0.04616
80.7 -0.04772
80.75 -0.04879
80.8 -0.04944
80.85 -0.04996
80.9 -0.05088
80.95 -0.05111
81 -0.05113
81.05 -0.05156
81.1 -0.05262
81.15 -0.05337
81.2 -0.05488
81.25 -0.05522
81.3 -0.05577
81.35 -0.05601
81.4 -0.0557
81.45 -0.05519
81.5 -0.05582
81.55 -0.05689
81.6 -0.05796
81.65 -0.05933
81.7 -0.06072
81.75 -0.06101
81.8 -0.06075
81.85 -0.05948
81.9 -0.05813
81.95 -0.05629
82 -0.05431
82.05 -0.05307
82.1 -0.05293
82.15 -0.05269
82.2 -0.05281
82.25 -0.0536
82.3 -0.05368
82.35 -0.05412
82.4 -0.05374
82.45 -0.05264
82.5 -0.0512
82.55 -0.04967
82.6 -0.04825
82.65 -0.04735
82.7 -0.04697
82.75 -0.04673
82.8 -0.04717
82.85 -0.04671
82.9 -0.04596
82.95 -0.04554
83 -0.0444
83.05 -0.04348
83.1 -0.04218
83.15 -0.04152
83.2 -0.04133
83.25 -0.04191
83.3 -0.04283
83.35 -0.04379
83.4 -0.04361
83.45 -0.04286
83.5 -0.04136
83.55 -0.0401
83.6 -0.03976
83.65 -0.03932
83.7 -0.03929
83.75 -0.03967
83.8 -0.03882
83.85 -0.03856
83.9 -0.03873
83.95 -0.03779
84 -0.03696
84.05 -0.03591
84.1 -0.03489
84.15 -0.03457
84.2 -0.03399
84.25 -0.03247
84.3 -0.03152
84.35 -0.0301
84.4 -0.02824
84.45 -0.02743
84.5 -0.02729
84.55 -0.02685
84.6 -0.0264
84.65 -0.02681
84.7 -0.02657
84.75 -0.02627
84.8 -0.02554
84.85 -0.02488
84.9 -0.02501
84.95 -0.02503
85 -0.02531
85.05 -0.02462
85.1 -0.02331
85.15 -0.02178
85.2 -0.02056
85.25 -0.02026
85.3 -0.02011
85.35 -0.01981
85.4 -0.01937
85.45 -0.01921
85.5 -0.01982
85.55 -0.02049
85.6 -0.02068
85.65 -0.02101
85.7 -0.02181
85.75 -0.02249
85.8 -0.02233
85.85 -0.02172
85.9 -0.02053
85.95 -0.01964
86 -0.0188
86.05 -0.0178
86.1 -0.01658
86.15 -0.01579
86.2 -0.01461
86.25 -0.01476
86.3 -0.01567
86.35 -0.016
86.4 -0.01672
86.45 -0.01766
86.5 -0.01806
86.55 -0.01761
86.6 -0.01699
86.65 -0.01556
86.7 -0.01453
86.75 -0.01375
86.8 -0.0128
86.85 -0.01195
86.9 -0.01078
86.95 -0.01052
87 -0.0109
87.05 -0.01145
87.1 -0.01226
87.15 -0.01273
87.2 -0.01244
87.25 -0.01204
87.3 -0.01135
87.35 -0.01068
87.4 -0.01009
87.45 -0.00981
87.5 -0.01018
87.55 -0.00973
87.6 -0.00927
87.65 -0.00962
87.7 -0.01026
87.75 -0.01093
87.8 -0.01056
87.85 -0.00993
87.9 -0.01023
87.95 -0.00971
88 -0.00983
88.05 -0.01061
88.1 -0.01064
88.15 -0.00992
88.2 -0.00967
88.25 -0.00984
88.3 -0.01023
88.35 -0.00995
88.4 -0.00946
88.45 -0.00912
88.5 -0.0082
88.55 -0.0076
88.6 -0.00735
88.65 -0.00684
88.7 -0.00587
88.75 -0.00547
88.8 -0.00576
88.85 -0.0063
88.9 -0.00627
88.95 -0.00688
89 -0.00777
89.05 -0.00884
89.1 -0.00965
89.15 -0.00975
89.2 -0.00915
89.25 -0.00834
89.3 -0.00701
89.35 -0.00656
89.4 -0.00631
89.45 -0.00539
89.5 -0.00475
89.55 -0.00511
89.6 -0.00611
89.65 -0.00607
89.7 -0.00569
89.75 -0.00477
89.8 -0.00415
89.85 -0.00362
89.9 -0.00349
89.95 -0.00318
90 -0.00259
90.05 -0.00193
90.1 -0.00182
90.15 -0.00249
90.2 -0.00334
90.25 -0.00332
90.3 -0.00398
90.35 -0.00462
90.4 -0.00479
90.45 -0.00471
90.5 -0.00431
90.55 -0.00389
90.6 -0.00442
90.65 -0.00528
90.7 -0.00633
90.75 -0.00736
90.8 -0.00817
90.85 -0.00871
90.9 -0.00834
90.95 -0.00748
91 -0.00634
91.05 -0.0058
91.1 -0.00516
91.15 -0.0054
91.2 -0.00551
91.25 -0.00494
91.3 -0.00412
91.35 -0.00369
91.4 -0.003
91.45 -0.00286
91.5 -0.00297
91.55 -0.00296
91.6 -0.00268
91.65 -0.00296
91.7 -0.00316
91.75 -0.00353
91.8 -0.00356
91.85 -0.00316
91.9 -0.00258
91.95 -0.00274
92 -0.00292
92.05 -0.00287
92.1 -0.00287
92.15 -0.00351
92.2 -0.00336
92.25 -0.00301
92.3 -0.00292
92.35 -0.00249
92.4 -0.00232
92.45 -0.00184
92.5 -0.00228
92.55 -0.00182
92.6 -0.00077
92.65 -0.00054
92.7 -0.00076
92.75 -0.00058
92.8 -0.00072
92.85 -0.00033
92.9 -0.00102
92.95 -0.00102
93 -0.00127
93.05 -0.00189
93.1 -0.00272
93.15 -0.00349
93.2 -0.00424
93.25 -0.00501
93.3 -0.00505
93.35 -0.00452
93.4 -0.00424
93.45 -0.00426
93.5 -0.00349
93.55 -0.00265
93.6 -0.00148
93.65 -0.00009
93.7 0.00029
93.75 0.0009
93.8 0.00051
93.85 -0.00035
93.9 -0.00048
93.95 -0.00065
94 -0.00078
94.05 -0.00051
94.1 -0.00027
94.15 0.00013
94.2 0.00082
94.25 0.00154
94.3 0.00216
94.35 0.00269
94.4 0.0024
94.45 0.00169
94.5 0.00089
94.55 0.00045
94.6 0.00067
94.65 0.00046
94.7 -0.00026
94.75 -0.00057
94.8 -0.00097
94.85 -0.00115
94.9 -0.00207
94.95 -0.00326
95 -0.0046
95.05 -0.00529
95.1 -0.0055
95.15 -0.00524
95.2 -0.00482
95.25 -0.00473
95.3 -0.00504
95.35 -0.00421
95.4 -0.00392
95.45 -0.00398
95.5 -0.00449
95.55 -0.00519
95.6 -0.00601
95.65 -0.00538
95.7 -0.00471
95.75 -0.00377
95.8 -0.00361
95.85 -0.00347
95.9 -0.00264
95.95 -0.00241
96 -0.00174
96.05 -0.00085
96.1 -0.00022
96.15 -0.00011
96.2 0.00011
96.25 0.00095
96.3 0.00072
96.35 0.00071
96.4 0.00087
96.45 0.00017
96.5 -0.00104
96.55 -0.00124
96.6 -0.00138
96.65 -0.00119
96.7 -0.00041
96.75 0.00026
96.8 0.00139
96.85 0.00235
96.9 0.00222
96.95 0.00266
97 0.00218
97.05 0.00105
97.1 0.00004
97.15 -0.00042
97.2 -0.00127
97.25 -0.00111
97.3 -0.00108
97.35 -0.00118
97.4 -0.00174
97.45 -0.00166
97.5 -0.00161
97.55 -0.00134
97.6 -0.0004
97.65 0.00073
97.7 0.00127
97.75 0.00142
97.8 0.00195
97.85 0.00276
97.9 0.00289
97.95 0.00275
98 0.00194
98.05 0.00154
98.1 0.00079
98.15 -0.00022
98.2 -0.00101
98.25 -0.00167
98.3 -0.00183
98.35 -0.00129
98.4 -0.0013
98.45 -0.00115
98.5 -0.00031
98.55 0.00088
98.6 0.00137
98.65 0.00084
98.7 0.00015
98.75 -0.00005
98.8 0.00027
98.85 0.00035
98.9 0.00105
98.95 0.00095
99 0.00032
99.05 -0.00054
99.1 -0.00101
99.15 -0.00053
99.2 -0.00007
99.25 0.00079
99.3 0.00162
99.35 0.00232
99.4 0.00311
99.45 0.00383
99.5 0.00445
99.55 0.00398
99.6 0.0035
99.65 0.00214
99.7 0.00159
99.75 0.00133
99.8 0.00096
99.85 0.00074
99.9 0.00103
99.95 0.00026
