0 0
0.05 0.00084
0.1 0.00273
0.15 0.00622
0.2 0.00932
0.25 0.01135
0.3 0.01298
0.35 0.01308
0.4 0.01217
0.45 0.01253
0.5 0.0133
0.55 0.01339
0.6 0.01405
0.65 0.01481
0.7 0.01542
0.75 0.01579
0.8 0.01485
0.85 0.01323
0.9 0.01171
0.95 0.01127
1 0.01167
1.05 0.01229
1.1 0.01201
1.15 0.01192
1.2 0.01299
1.25 0.01472
1.3 0.01427
1.35 0.01418
1.4 0.01285
1.45 0.01102
1.5 0.00871
1.55 0.00832
1.6 0.00935
1.65 0.00881
1.7 0.00772
1.75 0.0069
1.8 0.00787
1.85 0.00937
1.9 0.01018
1.95 0.01127
2 0.01103
2.05 0.0098
2.1 0.00918
2.15 0.00783
2.2 0.00654
2.25 0.00628
2.3 0.00537
2.35 0.00455
2.4 0.00376
2.45 0.00479
2.5 0.00536
2.55 0.0064
2.6 0.00687
2.65 0.00758
2.7 0.0079
2.75 0.00928
2.8 0.01044
2.85 0.01056
2.9 0.01037
2.95 0.01092
3 0.01023
3.05 0.00997
3.1 0.00898
3.15 0.00811
3.2 0.00843
3.25 0.00908
3.3 0.0091
3.35 0.00898
3.4 0.00743
3.45 0.00607
3.5 0.00507
3.55 0.00329
3.6 0.00208
3.65 0.00092
3.7 0.00151
3.75 0.00192
3.8 0.00324
3.85 0.00348
3.9 0.00449
3.95 0.0047
4 0.00456
4.05 0.00544
4.1 0.0063
4.15 0.00654
4.2 0.00777
4.25 0.00898
4.3 0.01009
4.35 0.01079
4.4 0.01154
4.45 0.01155
4.5 0.01176
4.55 0.0103
4.6 0.00911
4.65 0.00719
4.7 0.00543
4.75 0.00304
4.8 0.00269
4.85 0.00163
4.9 0.00009
4.95 0.00026
5 0.00025
5.05 -0.00069
5.1 -0.00049
5.15 0.00089
5.2 0.00289
5.25 0.00519
5.3 0.00751
5.35 0.00964
5.4 0.00999
5.45 0.00921
5.5 0.00761
5.55 0.00733
5.6 0.00663
5.65 0.00454
5.7 0.00193
5.75 -0.00048
5.8 -0.00145
5.85 -0.00154
5.9 -0.00095
5.95 -0.00151
6 -0.00167
6.05 -0.00094
6.1 -0.00092
6.15 -0.00054
6.2 -0.00091
6.25 -0.00104
6.3 0.00022
6.35 0.0012
6.4 0.00132
6.45 0.0005
6.5 0.00071
6.55 0.00017
6.6 0.00122
6.65 0.00185
6.7 0.001
6.75 0.00078
6.8 0.00014
6.85 0.00006
6.9 -0.00106
6.95 -0.00114
7 -0.00201
7.05 -0.001
7.1 -0.00045
7.15 0.00058
7.2 0.0008
7.25 0.00167
7.3 0.00339
7.35 0.00376
7.4 0.0046
7.45 0.00369
7.5 0.00229
7.55 0.00258
7.6 0.00344
7.65 0.00498
7.7 0.00438
7.75 0.00382
7.8 0.00452
7.85 0.00493
7.9 0.00585
7.95 0.00671
8 0.00759
8.05 0.00772
8.1 0.00843
8.15 0.00896
8.2 0.00851
8.25 0.0065
8.3 0.00477
8.35 0.00233
8.4 0.00081
8.45 0.00096
8.5 -0.00015
8.55 -0.00194
8.6 -0.00211
8.65 -0.00258
8.7 -0.00301
8.75 -0.00211
8.8 -0.00091
8.85 -0.00129
8.9 -0.00081
8.95 -0.00122
9 -0.00242
9.05 -0.0022
9.1 -0.00117
9.15 0.00001
9.2 0.00173
9.25 0.00327
9.3 0.00469
9.35 0.00651
9.4 0.00706
9.45 0.00758
9.5 0.00708
9.55 0.0057
9.6 0.00331
9.65 0.00125
9.7 -0.00095
9.75 -0.00121
9.8 -0.00119
9.85 -0.00233
9.9 -0.00344
9.95 -0.00473
10 -0.00563
10.05 -0.00487
10.1 -0.00457
10.15 -0.00299
10.2 -0.00114
10.25 0.00052
10.3 0.00108
10.35 0.00214
10.4 0.00373
10.45 0.00354
10.5 0.00284
10.55 0.00164
10.6 0.00075
10.65 0.00106
10.7 0.00153
10.75 0.00157
10.8 0.00086
10.85 -0.00035
10.9 0.00008
10.95 0.00082
11 0.00234
11.05 0.00286
11.1 0.0026
11.15 0.00097
11.2 -0.00032
11.25 -0.00225
11.3 -0.0037
11.35 -0.00516
11.4 -0.00482
11.45 -0.005
11.5 -0.00526
11.55 -0.00422
11.6 -0.00199
11.65 -0.00099
11.7 -0.00032
11.75 -0.00115
11.8 -0.00122
11.85 -0.00087
11.9 -0.00103
11.95 -0.00148
12 -0.00124
12.05 -0.00028
12.1 0.00117
12.15 0.00211
12.2 0.00332
12.25 0.00381
12.3 0.00314
12.35 0.00144
12.4 -0.00025
12.45 -0.00201
12.5 -0.00265
12.55 -0.0022
12.6 -0.00248
12.65 -0.00179
12.7 -0.00206
12.75 -0.00078
12.8 -0.00063
12.85 0.00063
12.9 0.00247
12.95 0.00432
13 0.00608
13.05 0.00769
13.1 0.00857
13.15 0.00777
13.2 0.007
13.25 0.00701
13.3 0.00625
13.35 0.00577
13.4 0.00406
13.45 0.00173
13.5 0.00123
13.55 -0.00009
13.6 -0.00047
13.65 0.00032
13.7 0.00067
13.75 0.00052
13.8 -0.00059
13.85 -0.0021
13.9 -0.00253
13.95 -0.00358
14 -0.00483
14.05 -0.00413
14.1 -0.00366
14.15 -0.00311
14.2 -0.00215
14.25 -0.00034
14.3 -0.00043
14.35 0.00037
14.4 0.00096
14.45 0.0002
14.5 -0.00069
14.55 -0.00131
14.6 -0.0018
14.65 -0.00217
14.7 -0.00264
14.75 -0.00398
14.8 -0.00554
14.85 -0.00546
14.9 -0.0049
14.95 -0.00489
15 -0.00456
15.05 -0.00436
15.1 -0.00464
15.15 -0.00313
15.2 -0.00204
15.25 -0.00089
15.3 -0.00022
15.35 -0.00032
15.4 -0.00153
15.45 -0.0031
15.5 -0.00286
15.55 -0.00231
15.6 -0.00136
15.65 -0.00072
15.7 0.00056
15.75 0.00171
15.8 0.00202
15.85 0.00334
15.9 0.0037
15.95 0.00291
16 0.00146
16.05 0.00082
16.1 0.00071
16.15 0.00156
16.2 0.00076
16.25 -0.00054
16.3 -0.00145
16.35 -0.00296
16.4 -0.00289
16.45 -0.00193
16.5 -0.00108
16.55 -0.00113
16.6 0.00019
16.65 0.00212
16.7 0.0029
16.75 0.00287
16.8 0.00204
16.85 0.00123
16.9 0.00066
16.95 0.00132
17 0.00143
17.05 0.00188
17.1 0.00083
17.15 0.00065
17.2 0.00119
17.25 0.00042
17.3 0.00051
17.35 0.00041
17.4 0.00085
17.45 0.00098
17.5 0.00133
17.55 0.00159
17.6 0.00198
17.65 0.00266
17.7 0.00159
17.75 -0.00004
17.8 -0.00064
17.85 -0.00005
17.9 0.00042
17.95 0.00071
18 0.00055
18.05 -0.00014
18.1 0.00035
18.15 -0.00058
18.2 -0.00101
18.25 -0.0012
18.3 -0.00111
18.35 -0.00148
18.4 -0.00208
18.45 -0.00197
18.5 -0.00121
18.55 -0.00141
18.6 -0.00236
18.65 -0.00311
18.7 -0.00408
18.75 -0.00413
18.8 -0.00504
18.85 -0.00569
18.9 -0.00628
18.95 -0.0061
19 -0.00451
19.05 -0.00199
19.1 0.00063
19.15 0.00102
19.2 0.00095
19.25 0.00037
19.3 -0.00081
19.35 -0.00185
19.4 -0.00122
19.45 -0.00007
19.5 0.00155
19.55 0.00185
19.6 0.00189
19.65 0.00141
19.7 0.00219
19.75 0.00293
19.8 0.00393
19.85 0.00511
19.9 0.00653
19.95 0.00738
20 0.0072
20.05 0.00527
20.1 0.00479
20.15 0.00337
20.2 0.00232
20.25 0.00225
20.3 0.00085
20.35 -0.00116
20.4 -0.0022
20.45 -0.00275
20.5 -0.00288
20.55 -0.0031
20.6 -0.00181
20.65 0.00007
20.7 -0.00001
20.75 0.00053
20.8 0.00146
20.85 0.00287
20.9 0.00364
20.95 0.00415
21 0.00323
21.05 0.00275
21.1 0.00223
21.15 0.00084
21.2 -0.00026
21.25 -0.0019
21.3 -0.00193
21.35 -0.00242
21.4 -0.00221
21.45 -0.0026
21.5 -0.00193
21.55 -0.00199
21.6 -0.00164
21.65 -0.00056
21.7 -0.00098
21.75 -0.00116
21.8 -0.00128
21.85 -0.00187
21.9 -0.00325
21.95 -0.0028
22 -0.00149
22.05 -0.00082
22.1 -0.00121
22.15 -0.00064
22.2 -0.00096
22.25 0.00005
22.3 0.00125
22.35 0.00147
22.4 0.00171
22.45 0.00183
22.5 0.00269
22.55 0.00342
22.6 0.00269
22.65 0.00296
22.7 0.00335
22.75 0.00298
22.8 0.00301
22.85 0.00164
22.9 -0.00042
22.95 -0.00303
23 -0.00521
23.05 -0.00606
23.1 -0.00624
23.15 -0.00526
23.2 -0.00524
23.25 -0.00385
23.3 -0.00164
23.35 -0.00006
23.4 0.00031
23.45 -0.00064
23.5 -0.00031
23.55 -0.00081
23.6 -0.00169
23.65 -0.0018
23.7 -0.00105
23.75 0.00072
23.8 0.00165
23.85 0.00171
23.9 0.00143
23.95 0.00154
24 0.00149
24.05 0.00109
24.1 0.00195
24.15 0.0023
24.2 0.00299
24.25 0.00262
24.3 0.00133
24.35 0.00106
24.4 -0.0003
24.45 -0.0003
24.5 0.00091
24.55 0.00237
24.6 0.00411
24.65 0.00356
24.7 0.0032
24.75 0.00151
24.8 0.00062
24.85 -0.00114
24.9 -0.00143
24.95 -0.0016
25 -0.00217
25.05 -0.00239
25.1 -0.00164
25.15 -0.00231
25.2 -0.00257
25.25 -0.00308
25.3 -0.00309
25.35 -0.00365
25.4 -0.00317
25.45 -0.00264
25.5 -0.00172
25.55 -0.00038
25.6 -0.0004
25.65 -0.00153
25.7 -0.00104
25.75 0.00062
25.8 0.00032
25.85 0.00121
25.9 0.0026
25.95 0.00398
26 0.00459
26.05 0.00524
26.1 0.00567
26.15 0.00603
26.2 0.00628
26.25 0.0062
26.3 0.00655
26.35 0.00526
26.4 0.00277
26.45 0.00022
26.5 -0.00183
26.55 -0.00345
26.6 -0.00408
26.65 -0.00546
26.7 -0.00502
26.75 -0.00431
26.8 -0.0033
26.85 -0.0034
26.9 -0.00337
26.95 -0.00277
27 -0.00263
27.05 -0.00138
27.1 -0.00181
27.15 -0.0031
27.2 -0.00254
27.25 -0.00224
27.3 -0.00238
27.35 -0.00221
27.4 -0.0023
27.45 -0.00177
27.5 -0.00233
27.55 -0.00237
27.6 -0.00327
27.65 -0.0036
27.7 -0.0042
27.75 -0.00465
27.8 -0.00361
27.85 -0.00207
27.9 -0.00089
27.95 0.00049
28 0.00187
28.05 0.00302
28.1 0.00311
28.15 0.00194
28.2 0.00146
28.25 0.00087
28.3 0.00111
28.35 0.00199
28.4 0.0026
28.45 0.00308
28.5 0.00277
28.55 0.00186
28.6 -0.00024
28.65 -0.00257
28.7 -0.00398
28.75 -0.00645
28.8 -0.00753
28.85 -0.00789
28.9 -0.00781
28.95 -0.00765
29 -0.00932
29.05 -0.01248
29.1 -0.01592
29.15 -0.02072
29.2 -0.02672
29.25 -0.03148
29.3 -0.03759
29.35 -0.04408
29.4 -0.05077
29.45 -0.05785
29.5 -0.06609
29.55 -0.07623
29.6 -0.08647
29.65 -0.09804
29.7 -0.11106
29.75 -0.12718
29.8 -0.14478
29.85 -0.16465
29.9 -0.18771
29.95 -0.21213
30 -0.23933
30.05 -0.26789
30.1 -0.29763
30.15 -0.32847
30.2 -0.36122
30.25 -0.39711
30.3 -0.43548
30.35 -0.47373
30.4 -0.51259
30.45 -0.55215
30.5 -0.59184
30.55 -0.63056
30.6 -0.66612
30.65 -0.7002
30.7 -0.73046
30.75 -0.7567
30.8 -0.78077
30.85 -0.80006
30.9 -0.81529
30.95 -0.82495
31 -0.8309
31.05 -0.83044
31.1 -0.8235
31.15 -0.81073
31.2 -0.79175
31.25 -0.76884
31.3 -0.73938
31.35 -0.70367
31.4 -0.66339
31.45 -0.61875
31.5 -0.56874
31.55 -0.51552
31.6 -0.45877
31.65 -0.39971
31.7 -0.33863
31.75 -0.27559
31.8 -0.21167
31.85 -0.1483
31.9 -0.08502
31.95 -0.0225
32 0.03731
32.05 0.09264
32.1 0.14598
32.15 0.19672
32.2 0.24236
32.25 0.28344
32.3 0.3213
32.35 0.35447
32.4 0.38391
32.45 0.41087
32.5 0.43638
32.55 0.45831
32.6 0.47789
32.65 0.49425
32.7 0.50815
32.75 0.52078
32.8 0.53073
32.85 0.53886
32.9 0.54612
32.95 0.55314
33 0.55897
33.05 0.5634
33.1 0.567
33.15 0.57097
33.2 0.57369
33.25 0.5768
33.3 0.57892
33.35 0.58184
33.4 0.58579
33.45 0.58838
33.5 0.59179
33.55 0.59423
33.6 0.59679
33.65 0.59906
33.7 0.60156
33.75 0.60262
33.8 0.60124
33.85 0.5988
33.9 0.5961
33.95 0.59216
34 0.58696
34.05 0.58199
34.1 0.57565
34.15 0.56961
34.2 0.56338
34.25 0.55654
34.3 0.54679
34.35 0.53719
34.4 0.52757
34.45 0.51583
34.5 0.50229
34.55 0.48717
34.6 0.47325
34.65 0.45906
34.7 0.44451
34.75 0.42901
34.8 0.41398
34.85 0.39935
34.9 0.38354
34.95 0.36807
35 0.35401
35.05 0.33991
35.1 0.32548
35.15 0.31154
35.2 0.29759
35.25 0.28351
35.3 0.26839
35.35 0.25288
35.4 0.23708
35.45 0.22228
35.5 0.2068
35.55 0.19307
35.6 0.18039
35.65 0.16911
35.7 0.157
35.75 0.14452
35.8 0.13272
35.85 0.12221
35.9 0.11047
35.95 0.09878
36 0.08692
36.05 0.07655
36.1 0.06569
36.15 0.05564
36.2 0.04543
36.25 0.03487
36.3 0.02655
36.35 0.01846
36.4 0.01042
36.45 0.00179
36.5 -0.00665
36.55 -0.0138
36.6 -0.02061
36.65 -0.02683
36.7 -0.03329
36.75 -0.03845
36.8 -0.04348
36.85 -0.04904
36.9 -0.05389
36.95 -0.059
37 -0.06312
37.05 -0.06791
37.1 -0.0725
37.15 -0.07664
37.2 -0.08006
37.25 -0.08234
37.3 -0.08474
37.35 -0.08815
37.4 -0.09026
37.45 -0.0913
37.5 -0.09188
37.55 -0.09245
37.6 -0.09363
37.65 -0.09625
37.7 -0.09953
37.75 -0.10083
37.8 -0.1029
37.85 -0.10442
37.9 -0.105
37.95 -0.10491
38 -0.10392
38.05 -0.10362
38.1 -0.10386
38.15 -0.10452
38.2 -0.10387
38.25 -0.10417
38.3 -0.10315
38.35 -0.1035
38.4 -0.10372
38.45 -0.1045
38.5 -0.10609
38.55 -0.10559
38.6 -0.10498
38.65 -0.10317
38.7 -0.10109
38.75 -0.10063
38.8 -0.10078
38.85 -0.10072
38.9 -0.10099
38.95 -0.1016
39 -0.10152
39.05 -0.09955
39.1 -0.09783
39.15 -0.09672
39.2 -0.09547
39.25 -0.09494
39.3 -0.09364
39.35 -0.09298
39.4 -0.09189
39.45 -0.09015
39.5 -0.08799
39.55 -0.08618
39.6 -0.08548
39.65 -0.08461
39.7 -0.08221
39.75 -0.0807
39.8 -0.078
39.85 -0.07613
39.9 -0.07367
39.95 -0.07083
40 -0.06896
40.05 -0.06669
40.1 -0.06571
40.15 -0.06397
40.2 -0.06227
40.25 -0.0609
40.3 -0.06132
40.35 -0.06055
40.4 -0.06142
40.45 -0.06157
40.5 -0.06276
40.55 -0.06254
40.6 -0.06164
40.65 -0.0618
40.7 -0.06173
40.75 -0.06241
40.8 -0.06279
40.85 -0.06152
40.9 -0.05926
40.95 -0.056
41 -0.05354
41.05 -0.05278
41.1 -0.05116
41.15 -0.04883
41.2 -0.04602
41.25 -0.04515
41.3 -0.04376
41.35 -0.04398
41.4 -0.04397
41.45 -0.04386
41.5 -0.04382
41.55 -0.04412
41.6 -0.04464
41.65 -0.04577
41.7 -0.04541
41.75 -0.04529
41.8 -0.04413
41.85 -0.04205
41.9 -0.0412
41.95 -0.04063
42 -0.03927
42.05 -0.03867
42.1 -0.03684
42.15 -0.03637
42.2 -0.03623
42.25 -0.03571
42.3 -0.03579
42.35 -0.03448
42.4 -0.03452
42.45 -0.03394
42.5 -0.03219
42.55 -0.03204
42.6 -0.03141
42.65 -0.03047
42.7 -0.02971
42.75 -0.03048
42.8 -0.0319
42.85 -0.03241
42.9 -0.03113
42.95 -0.02891
43 -0.02642
43.05 -0.0247
43.1 -0.02434
43.15 -0.02388
43.2 -0.02317
43.25 -0.02411
43.3 -0.02586
43.35 -0.02641
43.4 -0.02655
43.45 -0.02621
43.5 -0.02456
43.55 -0.02269
43.6 -0.02144
43.65 -0.02031
43.7 -0.0187
43.75 -0.0181
43.8 -0.01843
43.85 -0.01967
43.9 -0.02192
43.95 -0.02441
44 -0.02481
44.05 -0.02346
44.1 -0.02155
44.15 -0.01977
44.2 -0.01811
44.25 -0.01666
44.3 -0.01606
44.35 -0.01513
44.4 -0.01565
44.45 -0.01665
44.5 -0.01778
44.55 -0.01953
44.6 -0.02149
44.65 -0.02149
44.7 -0.02225
44.75 -0.02244
44.8 -0.02217
44.85 -0.02086
44.9 -0.01904
44.95 -0.01662
45 -0.01561
45.05 -0.01533
45.1 -0.01488
45.15 -0.01566
45.2 -0.01695
45.25 -0.01716
45.3 -0.016
45.35 -0.01481
45.4 -0.0141
45.45 -0.01436
45.5 -0.0149
45.55 -0.01595
45.6 -0.01514
45.65 -0.01381
45.7 -0.01413
45.75 -0.01481
45.8 -0.01572
45.85 -0.01678
45.9 -0.01674
45.95 -0.01706
46 -0.0163
46.05 -0.01546
46.1 -0.01472
46.15 -0.01399
46.2 -0.01204
46.25 -0.01115
46.3 -0.01095
46.35 -0.01164
46.4 -0.01087
46.45 -0.00936
46.5 -0.00716
46.55 -0.00622
46.6 -0.00625
46.65 -0.00613
46.7 -0.00497
46.75 -0.0057
46.8 -0.00708
46.85 -0.00804
46.9 -0.00794
46.95 -0.00856
47 -0.00928
47.05 -0.0105
47.1 -0.0103
47.15 -0.00941
47.2 -0.00745
47.25 -0.00696
47.3 -0.00699
47.35 -0.00775
47.4 -0.00746
47.45 -0.00766
47.5 -0.00767
47.55 -0.00734
47.6 -0.00787
47.65 -0.00868
47.7 -0.00971
47.75 -0.01057
47.8 -0.0105
47.85 -0.00983
47.9 -0.00875
47.95 -0.00774
48 -0.00564
48.05 -0.0038
48.1 -0.00227
48.15 -0.00202
48.2 -0.00337
48.25 -0.00313
48.3 -0.00269
48.35 -0.00254
48.4 -0.00293
48.45 -0.00261
48.5 -0.0034
48.55 -0.00474
48.6 -0.00577
48.65 -0.00585
48.7 -0.00526
48.75 -0.00366
48.8 -0.00187
48.85 -0.0005
48.9 -0.00122
48.95 -0.00258
49 -0.00241
49.05 -0.00358
49.1 -0.00406
49.15 -0.00334
49.2 -0.00322
49.25 -0.00445
49.3 -0.00397
49.35 -0.00301
49.4 -0.00298
49.45 -0.00304
49.5 -0.00356
49.55 -0.00414
49.6 -0.00478
49.65 -0.00459
49.7 -0.00552
49.75 -0.00567
49.8 -0.00663
49.85 -0.00789
49.9 -0.00801
49.95 -0.00651
50 -0.00497
50.05 -0.00415
50.1 -0.00322
50.15 -0.00243
50.2 -0.00128
50.25 -0.00092
50.3 -0.00093
50.35 -0.00169
50.4 -0.00182
50.45 -0.00247
50.5 -0.00234
50.55 -0.00333
50.6 -0.00307
50.65 -0.00194
50.7 -0.00056
50.75 0.00036
50.8 -0.00048
50.85 -0.00091
50.9 -0.00061
50.95 -0.00101
51 -0.00251
51.05 -0.00318
51.1 -0.00354
51.15 -0.0033
51.2 -0.00243
51.25 -0.001
51.3 0.00025
51.35 0.00035
51.4 0.00147
51.45 0.00207
51.5 0.00211
51.55 0.00094
51.6 0.00116
51.65 0.00207
51.7 0.00299
51.75 0.00369
51.8 0.00352
51.85 0.00239
51.9 0.00004
51.95 -0.00097
52 -0.00083
52.05 -0.00126
52.1 -0.00116
52.15 -0.00105
52.2 -0.00116
52.25 -0.0005
52.3 -0.00116
52.35 -0.00267
52.4 -0.00422
52.45 -0.00495
52.5 -0.00484
52.55 -0.00394
52.6 -0.00307
52.65 -0.00339
52.7 -0.00225
52.75 -0.002
52.8 -0.0021
52.85 -0.00214
52.9 -0.00125
52.95 -0.00121
53 -0.00247
53.05 -0.00406
53.1 -0.00544
53.15 -0.00595
53.2 -0.00576
53.25 -0.00558
53.3 -0.00568
53.35 -0.00423
53.4 -0.0035
53.45 -0.00367
53.5 -0.00289
53.55 -0.00309
53.6 -0.00395
53.65 -0.00399
53.7 -0.00374
53.75 -0.00254
53.8 -0.00276
53.85 -0.00377
53.9 -0.00463
53.95 -0.00425
54 -0.00468
54.05 -0.00524
54.1 -0.00458
54.15 -0.00511
54.2 -0.00537
54.25 -0.00587
54.3 -0.00472
54.35 -0.00411
54.4 -0.00413
54.45 -0.00365
54.5 -0.00376
54.55 -0.00426
54.6 -0.00312
54.65 -0.00285
54.7 -0.00175
54.75 -0.00203
54.8 -0.00166
54.85 -0.0024
54.9 -0.00259
54.95 -0.00348
55 -0.00333
55.05 -0.0028
55.1 -0.00225
55.15 -0.00048
55.2 0.00018
55.25 -0.00047
55.3 -0.00124
55.35 -0.00055
55.4 0.00093
55.45 0.00168
55.5 0.00243
55.55 0.00211
55.6 0.00171
55.65 0.00169
55.7 0.00274
55.75 0.00394
55.8 0.00442
55.85 0.00358
55.9 0.00224
55.95 -0.00008
56 -0.00101
56.05 -0.00105
56.1 -0.00081
56.15 -0.00079
56.2 -0.00039
56.25 0.00022
56.3 0.00118
56.35 0.00092
56.4 -0.00029
56.45 -0.00084
56.5 -0.00038
56.55 0.00011
56.6 -0.00014
56.65 -0.00012
56.7 0.00049
56.75 0.00121
56.8 0.00203
56.85 0.00362
56.9 0.00381
56.95 0.00359
57 0.00368
57.05 0.00223
57.1 0.00204
57.15 0.00135
57.2 0.00199
57.25 0.00262
57.3 0.00303
57.35 0.0042
57.4 0.00338
57.45 0.00225
57.5 0.00035
57.55 -0.0016
57.6 -0.00298
57.65 -0.0027
57.7 -0.00143
57.75 -0.00018
57.8 -0.00005
57.85 -0.00027
57.9 -0.00149
57.95 -0.0023
58 -0.00332
58.05 -0.00422
58.1 -0.00405
58.15 -0.00386
58.2 -0.00464
58.25 -0.0051
58.3 -0.00543
58.35 -0.00526
58.4 -0.00496
58.45 -0.00342
58.5 -0.00263
58.55 -0.00072
58.6 0.0009
58.65 0.00227
58.7 0.00408
58.75 0.00595
58.8 0.00635
58.85 0.00614
58.9 0.00539
58.95 0.00434
59 0.00239
59.05 0.00201
59.1 0.0011
59.15 0.0007
59.2 0.00046
59.25 -0.00018
59.3 -0.00037
59.35 -0.00064
59.4 -0.0008
59.45 -0.00119
59.5 -0.00164
59.55 -0.00181
59.6 -0.00185
59.65 -0.0029
59.7 -0.00284
59.75 -0.00148
59.8 -0.00127
59.85 -0.0007
59.9 -0.00114
59.95 -0.00201
60 -0.00243
60.05 -0.00359
60.1 -0.003
60.15 -0.00225
60.2 -0.00085
60.25 0.00123
60.3 0.0016
60.35 0.00231
60.4 0.00177
60.45 0.00219
60.5 0.00107
60.55 -0.00016
60.6 -0.00158
60.65 -0.00129
60.7 -0.00171
60.75 -0.00072
60.8 0.00076
60.85 0.00172
60.9 0.00195
60.95 0.00114
61 -0.00071
61.05 -0.00266
61.1 -0.00349
61.15 -0.0037
61.2 -0.0029
61.25 -0.00119
61.3 -0.00069
61.35 -0.00084
61.4 -0.00088
61.45 -0.00135
61.5 -0.00204
61.55 -0.00243
61.6 -0.00276
61.65 -0.00271
61.7 -0.00251
61.75 -0.00339
61.8 -0.00338
61.85 -0.00427
61.9 -0.00417
61.95 -0.00377
62 -0.00352
62.05 -0.00387
62.1 -0.00482
62.15 -0.00589
62.2 -0.00595
62.25 -0.00435
62.3 -0.00328
62.35 -0.00109
62.4 0.00068
62.45 0.00178
62.5 0.00338
62.55 0.0034
62.6 0.00281
62.65 0.00218
62.7 0.00262
62.75 0.00316
62.8 0.00412
62.85 0.00372
62.9 0.00349
62.95 0.00321
63 0.00152
63.05 0.00078
63.1 -0.0007
63.15 -0.00121
63.2 -0.00085
63.25 -0.00066
63.3 0.00022
63.35 0.00039
63.4 -0.00042
63.45 -0.00095
63.5 -0.00107
63.55 -0.00021
63.6 0.00016
63.65 0.00096
63.7 0.00093
63.75 0.00071
63.8 0.00087
63.85 0.00103
63.9 0.00026
63.95 -0.00052
64 -0.00161
64.05 -0.00261
64.1 -0.00286
64.15 -0.00382
64.2 -0.00331
64.25 -0.00299
64.3 -0.00345
64.35 -0.00216
64.4 -0.0023
64.45 -0.00251
64.5 -0.00243
64.55 -0.0014
64.6 -0.00016
64.65 0.00105
64.7 0.00055
64.75 0.00146
64.8 0.00137
64.85 0.00212
64.9 0.00249
64.95 0.00312
65 0.00417
65.05 0.00374
65.1 0.00306
65.15 0.00331
65.2 0.00384
65.25 0.00356
65.3 0.00312
65.35 0.00313
65.4 0.00326
65.45 0.00271
65.5 0.00202
65.55 0.00043
65.6 0.00016
65.65 -0.00098
65.7 -0.00201
65.75 -0.00262
65.8 -0.00198
65.85 -0.00199
65.9 -0.00249
65.95 -0.00302
66 -0.00373
66.05 -0.00279
66.1 -0.00193
66.15 -0.00098
66.2 0.0004
66.25 0.00067
66.3 -0.00013
66.35 -0.00142
66.4 -0.00272
66.45 -0.00279
66.5 -0.00275
66.55 -0.00154
66.6 -0.00112
66.65 0.00049
66.7 0.00041
66.75 0.00122
66.8 0.00076
66.85 -0.00077
66.9 -0.00113
66.95 -0.00158
67 -0.00221
67.05 -0.00336
67.1 -0.00387
67.15 -0.00324
67.2 -0.00176
67.25 -0.00183
67.3 -0.00275
67.35 -0.00232
67.4 -0.00178
67.45 -0.00072
67.5 0.00111
67.55 0.00301
67.6 0.00517
67.65 0.00701
67.7 0.00689
67.75 0.0071
67.8 0.0075
67.85 0.00735
67.9 0.00636
67.95 0.00554
68 0.00538
68.05 0.00556
68.1 0.00496
68.15 0.00422
68.2 0.00352
68.25 0.00386
68.3 0.00452
68.35 0.0033
68.4 0.00273
68.45 0.00335
68.5 0.00389
68.55 0.00295
68.6 0.00186
68.65 -0.00007
68.7 -0.00056
68.75 -0.0017
68.8 -0.00266
68.85 -0.00319
68.9 -0.00382
68.95 -0.00381
69 -0.0038
69.05 -0.00324
69.1 -0.00251
69.15 -0.00272
69.2 -0.00206
69.25 -0.00156
69.3 -0.00203
69.35 -0.00219
69.4 -0.00168
69.45 -0.00112
69.5 0.00004
69.55 0.00117
69.6 0.00236
69.65 0.00323
69.7 0.00462
69.75 0.00457
69.8 0.00383
69.85 0.00297
69.9 0.00143
69.95 0.00152
70 0.00201
70.05 0.00275
70.1 0.00385
70.15 0.00467
70.2 0.0052
70.25 0.00587
70.3 0.00522
70.35 0.00526
70.4 0.00535
70.45 0.00559
70.5 0.00487
70.55 0.00437
70.6 0.00345
70.65 0.00343
70.7 0.00345
70.75 0.00379
70.8 0.00231
70.85 -0.00021
70.9 -0.00247
70.95 -0.00503
71 -0.00554
71.05 -0.00576
71.1 -0.00431
71.15 -0.00378
71.2 -0.00337
71.25 -0.00262
71.3 -0.00117
71.35 -0.00003
71.4 -0.00064
71.45 -0.00141
71.5 -0.00306
71.55 -0.00309
71.6 -0.00372
71.65 -0.00507
71.7 -0.00649
71.75 -0.00742
71.8 -0.00733
71.85 -0.0057
71.9 -0.00518
71.95 -0.00358
72 -0.00195
72.05 -0.00199
72.1 -0.00101
72.15 -0.00131
72.2 -0.0017
72.25 -0.00067
72.3 -0.00079
72.35 -0.00063
72.4 0.00065
72.45 0.0002
72.5 0.00009
72.55 0.00053
72.6 0.00196
72.65 0.00197
72.7 0.00055
72.75 0.00051
72.8 -0.00001
72.85 -0.00041
72.9 -0.00146
72.95 -0.00108
73 -0.00202
73.05 -0.00372
73.1 -0.00549
73.15 -0.00725
73.2 -0.00852
73.25 -0.00973
73.3 -0.01018
73.35 -0.01053
73.4 -0.00992
73.45 -0.00936
73.5 -0.00874
73.55 -0.00827
73.6 -0.00746
73.65 -0.00732
73.7 -0.00557
73.75 -0.00315
73.8 -0.0021
73.85 -0.00016
73.9 0.0006
73.95 0.0007
74 0.00093
74.05 0.00104
74.1 0.00231
74.15 0.00262
74.2 0.0039
74.25 0.00482
74.3 0.00504
74.35 0.0049
74.4 0.0036
74.45 0.00131
74.5 -0.00003
74.55 -0.00143
74.6 -0.00226
74.65 -0.00343
74.7 -0.00276
74.75 -0.00205
74.8 -0.00045
74.85 0.00188
74.9 0.0031
74.95 0.00352
75 0.0033
75.05 0.00281
75.1 0.00142
75.15 -0.00068
75.2 -0.00076
75.25 0.00024
75.3 0.00024
75.35 0.00076
75.4 0.00182
75.45 0.00247
75.5 0.00216
75.55 0.0013
75.6 -0.00004
75.65 -0.00048
75.7 -0.00095
75.75 -0.00169
75.8 -0.00123
75.85 0.00019
75.9 0.00148
75.95 0.00159
76 0.00237
76.05 0.00398
76.1 0.00445
76.15 0.0038
76.2 0.00244
76.25 0.00171
76.3 0.00237
76.35 0.00193
76.4 0.00083
76.45 0.00037
76.5 0.00066
76.55 0
76.6 -0.0005
76.65 -0.00072
76.7 -0.00065
76.75 -0.00126
76.8 -0.00244
76.85 -0.00426
76.9 -0.00554
76.95 -0.00631
77 -0.00676
77.05 -0.00764
77.1 -0.00624
77.15 -0.00361
77.2 -0.00188
77.25 -0.00004
77.3 0.00068
77.35 0.00137
77.4 0.0029
77.45 0.00273
77.5 0.0014
77.55 0.00085
77.6 0.00013
77.65 -0.00076
77.7 -0.00037
77.75 0.00073
77.8 0.00248
77.85 0.00352
77.9 0.00507
77.95 0.00533
78 0.00595
78.05 0.00619
78.1 0.00587
78.15 0.00627
78.2 0.00718
78.25 0.0076
78.3 0.00812
78.35 0.00831
78.4 0.00783
78.45 0.0071
78.5 0.00567
78.55 0.00381
78.6 0.00124
78.65 -0.00046
78.7 -0.0026
78.75 -0.0049
78.8 -0.00619
78.85 -0.00711
78.9 -0.00788
78.95 -0.0077
79 -0.0081
79.05 -0.00642
79.1 -0.00467
79.15 -0.00272
79.2 -0.00187
79.25 -0.00104
79.3 -0.0005
79.35 -0.00023
79.4 -0.00031
79.45 -0.00015
79.5 0.00002
79.55 0.00003
79.6 -0.00124
79.65 -0.00171
79.7 -0.00193
79.75 -0.0012
79.8 -0.00054
79.85 0.00021
79.9 0.00031
79.95 -0.00064
80 -0.00205
80.05 -0.00315
80.1 -0.00416
80.15 -0.00469
80.2 -0.00456
80.25 -0.00495
80.3 -0.00358
80.35 -0.00357
80.4 -0.00219
80.45 -0.00155
80.5 -0.00066
80.55 -0.00074
80.6 -0.00012
80.65 -0.00015
80.7 0.00092
80.75 0.00274
80.8 0.00466
80.85 0.00568
80.9 0.00661
80.95 0.00546
81 0.00364
81.05 0.00248
81.1 0.00261
81.15 0.00264
81.2 0.00328
81.25 0.00363
81.3 0.00272
81.35 0.00289
81.4 0.00327
81.45 0.00405
81.5 0.00297
81.55 0.00156
81.6 0.00078
81.65 0.00086
81.7 -0.00013
81.75 -0.00109
81.8 -0.00181
81.85 -0.00282
81.9 -0.00325
81.95 -0.00367
82 -0.00257
82.05 -0.00239
82.1 -0.00305
82.15 -0.0028
82.2 -0.00238
82.25 -0.00273
82.3 -0.00302
82.35 -0.00176
82.4 -0.00173
82.45 -0.00169
82.5 -0.00176
82.55 -0.00218
82.6 -0.00347
82.65 -0.00385
82.7 -0.00403
82.75 -0.00417
82.8 -0.0048
82.85 -0.00364
82.9 -0.00155
82.95 0.00099
83 0.00259
83.05 0.003
83.1 0.00275
83.15 0.00256
83.2 0.00219
83.25 0.00261
83.3 0.00281
83.35 0.00323
83.4 0.00318
83.45 0.00359
83.5 0.00372
83.55 0.0034
83.6 0.00388
83.65 0.00318
83.7 0.00335
83.75 0.00427
83.8 0.0043
83.85 0.00338
83.9 0.00198
83.95 0.00139
84 0.00148
84.05 0.00205
84.1 0.00326
84.15 0.00498
84.2 0.00682
84.25 0.00714
84.3 0.00586
84.35 0.0047
84.4 0.00447
84.45 0.00311
84.5 0.00186
84.55 0.00184
84.6 0.00168
84.65 0.00157
84.7 0.00167
84.75 0.00176
84.8 0.0028
84.85 0.00376
84.9 0.00474
84.95 0.00359
85 0.00165
85.05 -0.00071
85.1 -0.00281
85.15 -0.0031
85.2 -0.00347
85.25 -0.00464
85.3 -0.00632
85.35 -0.0068
85.4 -0.00676
85.45 -0.00663
85.5 -0.00556
85.55 -0.00429
85.6 -0.00414
85.65 -0.00264
85.7 -0.00092
85.75 -0.0007
85.8 0.00035
85.85 0.00156
85.9 0.00228
85.95 0.00313
86 0.0036
86.05 0.00349
86.1 0.00382
86.15 0.00326
86.2 0.00149
86.25 0.00039
86.3 -0.00116
86.35 -0.0027
86.4 -0.00277
86.45 -0.00365
86.5 -0.00384
86.55 -0.00476
86.6 -0.00462
86.65 -0.00498
86.7 -0.00382
86.75 -0.00338
86.8 -0.00312
86.85 -0.00199
86.9 0.00003
86.95 0.0009
87 0.00088
87.05 -0.00047
87.1 -0.00149
87.15 -0.00196
87.2 -0.00282
87.25 -0.00192
87.3 -0.00151
87.35 -0.00093
87.4 -0.00133
87.45 -0.00249
87.5 -0.00389
87.55 -0.00571
87.6 -0.00682
87.65 -0.00607
87.7 -0.00615
87.75 -0.00542
87.8 -0.00401
87.85 -0.00322
87.9 -0.00305
87.95 -0.00347
88 -0.00418
88.05 -0.00519
88.1 -0.00531
88.15 -0.00367
88.2 -0.00317
88.25 -0.00316
88.3 -0.00244
88.35 -0.00211
88.4 -0.00094
88.45 0.00105
88.5 0.00118
88.55 0.00067
88.6 0.00101
88.65 0.00203
88.7 0.00262
88.75 0.00243
88.8 0.00097
88.85 -0.00014
88.9 0.00023
88.95 0.0009
89 0.00151
89.05 0.00072
89.1 0.00072
89.15 0.00047
89.2 0.00056
89.25 -0.00031
89.3 0.00005
89.35 -0.00016
89.4 0.00038
89.45 0.00063
89.5 0.00129
89.55 0.00219
89.6 0.0025
89.65 0.00172
89.7 0.00161
89.75 0.00101
89.8 0.00007
89.85 0.00022
89.9 -0.00071
89.95 -0.00164
90 -0.00127
90.05 0.00012
90.1 0.0007
90.15 0.00156
90.2 0.00236
90.25 0.00265
90.3 0.00282
90.35 0.00222
90.4 0.00216
90.45 0.00206
90.5 0.00185
90.55 0.00098
90.6 0.00024
90.65 -0.00111
90.7 -0.0014
90.75 -0.00224
90.8 -0.00197
90.85 -0.00039
90.9 0.00119
90.95 0.0018
91 0.00222
91.05 0.00152
91.1 0.00055
91.15 -0.00072
91.2 -0.00177
91.25 -0.00167
91.3 -0.00124
91.35 -0.0017
91.4 -0.0024
91.45 -0.00391
91.5 -0.00437
91.55 -0.00505
91.6 -0.00565
91.65 -0.00533
91.7 -0.00579
91.75 -0.00473
91.8 -0.00298
91.85 -0.00163
91.9 -0.00006
91.95 -0.00018
92 0.00033
92.05 0.00117
92.1 0.00205
92.15 0.00178
92.2 0.0025
92.25 0.00229
92.3 0.00236
92.35 0.00255
92.4 0.00245
92.45 0.00349
92.5 0.00489
92.55 0.00413
92.6 0.00355
92.65 0.00277
92.7 0.00165
92.75 0.00139
92.8 0.00057
92.85 -0.00051
92.9 -0.0003
92.95 0.00034
93 0.00033
93.05 0.0015
93.1 0.00293
93.15 0.00472
93.2 0.0055
93.25 0.00484
93.3 0.00367
93.35 0.00231
93.4 0.00123
93.45 0.00119
93.5 0.00099
93.55 0.00116
93.6 0.00099
93.65 -0.00021
93.7 -0.00199
93.75 -0.00258
93.8 -0.00208
93.85 -0.00185
93.9 -0.00186
93.95 -0.00099
94 0.00025
94.05 0.00058
94.1 0.0008
94.15 -0.00043
94.2 -0.00049
94.25 -0.00107
94.3 -0.00058
94.35 -0.00092
94.4 -0.0022
94.45 -0.00202
94.5 -0.00052
94.55 0.00019
94.6 0.00101
94.65 0.0018
94.7 0.00123
94.75 -0.00034
94.8 -0.0025
94.85 -0.00335
94.9 -0.0028
94.95 -0.00175
95 -0.00196
95.05 -0.00071
95.1 -0.00033
95.15 -0.00118
95.2 -0.00056
95.25 0.00087
95.3 0.0017
95.35 0.00293
95.4 0.00283
95.45 0.00174
95.5 0.00145
95.55 0.00211
95.6 0.00278
95.65 0.00293
95.7 0.00282
95.75 0.00227
95.8 0.00135
95.85 0.00076
95.9 0.00097
95.95 0.00016
96 -0.00026
96.05 -0.00126
96.1 -0.00151
96.15 -0.00135
96.2 -0.0018
96.25 -0.00189
96.3 -0.0017
96.35 -0.00138
96.4 -0.0023
96.45 -0.00304
96.5 -0.00332
96.55 -0.00269
96.6 -0.00113
96.65 -0.00031
96.7 0.00128
96.75 0.00259
96.8 0.00372
96.85 0.00536
96.9 0.00709
96.95 0.00677
97 0.00565
97.05 0.00397
97.1 0.00169
97.15 0.00014
97.2 -0.00219
97.25 -0.00442
97.3 -0.00532
97.35 -0.00602
97.4 -0.005
97.45 -0.00317
97.5 -0.00224
97.55 -0.00178
97.6 -0.00216
97.65 -0.00295
97.7 -0.00274
97.75 -0.00133
97.8 -0.00062
97.85 -0.00074
97.9 -0.0016
97.95 -0.00173
98 -0.00206
98.05 -0.00173
98.1 -0.0009
98.15 0.00005
98.2 0.00137
98.25 0.00299
98.3 0.00273
98.35 0.00134
98.4 -0.00018
98.45 -0.0002
98.5 -0.00131
98.55 -0.00164
98.6 -0.00051
98.65 0.00074
98.7 0.0008
98.75 0.00092
98.8 0.00106
98.85 0.00138
98.9 0.00109
98.95 0.00174
99 0.00142
99.05 0.001
99.1 -0.00046
99.15 -0.00094
99.2 -0.00028
99.25 -0.00009
99.3 -0.00126
99.35 -0.0024
99.4 -0.00422
99.45 -0.00455
99.5 -0.00535
99.55 -0.00583
99.6 -0.00497
99.65 -0.00282
99.7 -0.00019
99.75 0.00156
99.8 0.00228
99.85 0.00188
99.9 0.00256
99.95 0.00287
