0 0
0.05 0.00199
0.1 0.00563
0.15 0.0084
0.2 0.00967
0.25 0.01207
0.3 0.01528
0.35 0.01736
0.4 0.01792
0.45 0.01929
0.5 0.01984
0.55 0.01904
0.6 0.01915
0.65 0.01807
0.7 0.01677
0.75 0.01686
0.8 0.01779
0.85 0.01842
0.9 0.01971
0.95 0.02017
1 0.01912
1.05 0.01869
1.1 0.01766
1.15 0.01627
1.2 0.01402
1.25 0.01169
1.3 0.00997
1.35 0.00785
1.4 0.00707
1.45 0.00718
1.5 0.00713
1.55 0.00642
1.6 0.00729
1.65 0.00867
1.7 0.01004
1.75 0.01149
1.8 0.01302
1.85 0.01469
1.9 0.01534
1.95 0.01432
2 0.01425
2.05 0.01256
2.1 0.01097
2.15 0.01046
2.2 0.00982
2.25 0.00905
2.3 0.00708
2.35 0.00725
2.4 0.00787
2.45 0.00789
2.5 0.00668
2.55 0.00599
2.6 0.00504
2.65 0.00472
2.7 0.00413
2.75 0.00334
2.8 0.00314
2.85 0.00212
2.9 0.00198
2.95 0.00366
3 0.00611
3.05 0.00769
3.1 0.00891
3.15 0.00903
3.2 0.00883
3.25 0.00867
3.3 0.0072
3.35 0.007
3.4 0.00598
3.45 0.00437
3.5 0.00294
3.55 0.00353
3.6 0.0034
3.65 0.00402
3.7 0.00468
3.75 0.00519
3.8 0.00669
3.85 0.0069
3.9 0.00738
3.95 0.00837
4 0.0093
4.05 0.00977
4.1 0.00859
4.15 0.00704
4.2 0.00711
4.25 0.00579
4.3 0.00419
4.35 0.00328
4.4 0.0029
4.45 0.00157
4.5 0.0005
4.55 0.00098
4.6 0.00145
4.65 0.00185
4.7 0.00269
4.75 0.00435
4.8 0.00482
4.85 0.00593
4.9 0.00594
4.95 0.00515
5 0.00355
5.05 0.00137
5.1 -0.00058
5.15 -0.00043
5.2 0.00101
5.25 0.00089
5.3 0.00006
5.35 -0.00039
5.4 -0.00042
5.45 0.00053
5.5 0.00064
5.55 0.00162
5.6 0.00121
5.65 0.00048
5.7 0.00091
5.75 0.00093
5.8 -0.00027
5.85 -0.00118
5.9 -0.00065
5.95 0.00127
6 0.00146
6.05 0.00053
6.1 0.00007
6.15 0.00078
6.2 0.0014
6.25 0.00241
6.3 0.00178
6.35 0.00268
6.4 0.00308
6.45 0.00446
6.5 0.00515
6.55 0.00471
6.6 0.00338
6.65 0.00314
6.7 0.00275
6.75 0.00344
6.8 0.00374
6.85 0.00282
6.9 0.00344
6.95 0.00252
7 0.00317
7.05 0.00212
7.1 0.00181
7.15 0.00262
7.2 0.00196
7.25 0.00213
7.3 0.00148
7.35 0.00077
7.4 0.00128
7.45 0.00228
7.5 0.00297
7.55 0.00454
7.6 0.00633
7.65 0.00593
7.7 0.00681
7.75 0.00807
7.8 0.0075
7.85 0.00759
7.9 0.00612
7.95 0.00438
8 0.00345
8.05 0.0031
8.1 0.00253
8.15 0.00159
8.2 0.00033
8.25 -0.00063
8.3 0.00014
8.35 -0.00015
8.4 0.0002
8.45 0.00068
8.5 0.00126
8.55 0.00271
8.6 0.00256
8.65 0.00109
8.7 0.00022
8.75 -0.00027
8.8 -0.00005
8.85 0.00012
8.9 0.00161
8.95 0.00335
9 0.00319
9.05 0.00255
9.1 0.00096
9.15 -0.00144
9.2 -0.00353
9.25 -0.00502
9.3 -0.00649
9.35 -0.00567
9.4 -0.00464
9.45 -0.00448
9.5 -0.00328
9.55 -0.00116
9.6 0.0008
9.65 0.00089
9.7 0.00103
9.75 0.00087
9.8 0.0009
9.85 0.00089
9.9 0.00138
9.95 0.00269
10 0.00462
10.05 0.00507
10.1 0.00395
10.15 0.00313
10.2 0.00206
10.25 0.00247
10.3 0.00374
10.35 0.00355
10.4 0.00454
10.45 0.00346
10.5 0.0025
10.55 0.00234
10.6 0.00309
10.65 0.00339
10.7 0.0031
10.75 0.00268
10.8 0.00176
10.85 0.00045
10.9 0.00038
10.95 -0.00087
11 -0.00203
11.05 -0.0028
11.1 -0.00242
11.15 -0.00265
11.2 -0.00345
11.25 -0.00385
11.3 -0.00375
11.35 -0.00363
11.4 -0.00435
11.45 -0.00572
11.5 -0.00585
11.55 -0.00577
11.6 -0.00517
11.65 -0.00375
11.7 -0.00368
11.75 -0.00281
11.8 -0.00287
11.85 -0.00297
11.9 -0.00329
11.95 -0.00234
12 -0.00139
12.05 -0.00166
12.1 -0.00196
12.15 -0.00218
12.2 -0.00277
12.25 -0.00203
12.3 -0.00192
12.35 -0.00259
12.4 -0.00358
12.45 -0.00407
12.5 -0.00419
12.55 -0.00296
12.6 -0.00053
12.65 0.00047
12.7 0.00104
12.75 0.00122
12.8 0.0021
12.85 0.00186
12.9 0.00282
12.95 0.00293
13 0.00265
13.05 0.00158
13.1 -0.00051
13.15 -0.00155
13.2 -0.00314
13.25 -0.00509
13.3 -0.00708
13.35 -0.00748
13.4 -0.00761
13.45 -0.00818
13.5 -0.00737
13.55 -0.00687
13.6 -0.00657
13.65 -0.0047
13.7 -0.00164
13.75 -0.00073
13.8 0.00153
13.85 0.00182
13.9 0.00268
13.95 0.00305
14 0.0024
14.05 0.00198
14.1 0.00163
14.15 0.00204
14.2 0.00285
14.25 0.00423
14.3 0.00615
14.35 0.00837
14.4 0.00867
14.45 0.00707
14.5 0.00541
14.55 0.00505
14.6 0.00501
14.65 0.00491
14.7 0.0045
14.75 0.00293
14.8 0.00053
14.85 -0.00115
14.9 -0.00175
14.95 -0.00177
15 -0.00251
15.05 -0.00226
15.1 -0.00291
15.15 -0.00211
15.2 -0.00021
15.25 0.00139
15.3 0.00254
15.35 0.00355
15.4 0.00323
15.45 0.00357
15.5 0.00265
15.55 0.00321
15.6 0.00212
15.65 0.00248
15.7 0.00312
15.75 0.00424
15.8 0.00518
15.85 0.00579
15.9 0.00569
15.95 0.00542
16 0.0045
16.05 0.00264
16.1 0.00235
16.15 0.0018
16.2 0.00135
16.25 0.00158
16.3 0.00159
16.35 0.00258
16.4 0.00387
16.45 0.00577
16.5 0.0059
16.55 0.00481
16.6 0.00276
16.65 0.00054
16.7 -0.00048
16.75 -0.0011
16.8 -0.0005
16.85 0.00042
16.9 0.00193
16.95 0.00218
17 0.00321
17.05 0.0041
17.1 0.00293
17.15 0.00285
17.2 0.00255
17.25 0.0022
17.3 0.00264
17.35 0.00212
17.4 0.00106
17.45 0.00067
17.5 0.00053
17.55 -0.00003
17.6 -0.00087
17.65 -0.00156
17.7 -0.00058
17.75 0.00025
17.8 0.00217
17.85 0.00229
17.9 0.00281
17.95 0.00324
18 0.00266
18.05 0.00289
18.1 0.00146
18.15 -0.00017
18.2 -0.00047
18.25 -0.00136
18.3 -0.00299
18.35 -0.00467
18.4 -0.00435
18.45 -0.00322
18.5 -0.00237
18.55 -0.00115
18.6 -0.00119
18.65 0.00013
18.7 0.00064
18.75 0.00173
18.8 0.00302
18.85 0.00328
18.9 0.00324
18.95 0.00416
19 0.00359
19.05 0.00318
19.1 0.00392
19.15 0.00417
19.2 0.00257
19.25 0.00189
19.3 0.00188
19.35 0.00224
19.4 0.00332
19.45 0.00448
19.5 0.00485
19.55 0.006
19.6 0.00509
19.65 0.00543
19.7 0.00564
19.75 0.00423
19.8 0.00153
19.85 -0.00126
19.9 -0.00398
19.95 -0.00402
20 -0.0038
20.05 -0.00302
20.1 -0.00099
20.15 0.00044
20.2 0.00191
20.25 0.00266
20.3 0.00204
20.35 0.00056
20.4 0.00085
20.45 0.00032
20.5 0.00063
20.55 0.00049
20.6 0.00009
20.65 0.00022
20.7 0.00162
20.75 0.00213
20.8 0.00211
20.85 0.00132
20.9 0.00199
20.95 0.00234
21 0.00367
21.05 0.00484
21.1 0.00503
21.15 0.0058
21.2 0.00547
21.25 0.00325
21.3 0.00219
21.35 0.00067
21.4 -0.00047
21.45 -0.00258
21.5 -0.00442
21.55 -0.00482
21.6 -0.00515
21.65 -0.00404
21.7 -0.00194
21.75 0.00082
21.8 0.00189
21.85 0.00211
21.9 0.00201
21.95 0.00153
22 0.00217
22.05 0.00299
22.1 0.00454
22.15 0.00469
22.2 0.00492
22.25 0.00375
22.3 0.00197
22.35 0.00072
22.4 -0.00162
22.45 -0.00227
22.5 -0.00376
22.55 -0.00374
22.6 -0.00501
22.65 -0.00518
22.7 -0.0052
22.75 -0.00404
22.8 -0.00343
22.85 -0.00379
22.9 -0.0034
22.95 -0.00247
23 -0.00277
23.05 -0.00236
23.1 -0.00067
23.15 0.0006
23.2 0.00237
23.25 0.00315
23.3 0.00247
23.35 0.00135
23.4 0.00033
23.45 0.00073
23.5 0.00205
23.55 0.00254
23.6 0.00121
23.65 -0.00095
23.7 -0.00372
23.75 -0.00613
23.8 -0.00773
23.85 -0.00949
23.9 -0.00971
23.95 -0.01038
24 -0.00952
24.05 -0.00728
24.1 -0.00659
24.15 -0.00515
24.2 -0.00427
24.25 -0.00481
24.3 -0.00473
24.35 -0.00379
24.4 -0.00212
24.45 -0.00062
24.5 0.00132
24.55 0.00155
24.6 0.0021
24.65 0.00226
24.7 0.00096
24.75 0.00041
24.8 -0.00096
24.85 -0.00278
24.9 -0.00257
24.95 -0.00081
25 0.00145
25.05 0.00128
25.1 0.00111
25.15 0.00159
25.2 0.00239
25.25 0.0017
25.3 0.00244
25.35 0.00228
25.4 0.00283
25.45 0.00303
25.5 0.00334
25.55 0.00301
25.6 0.00242
25.65 0.00215
25.7 0.00192
25.75 0.00118
25.8 0.00064
25.85 0.00109
25.9 0.00186
25.95 0.00269
26 0.00405
26.05 0.00326
26.1 0.00252
26.15 0.0026
26.2 0.00108
26.25 0.00024
26.3 0.00062
26.35 0.00102
26.4 0.00037
26.45 0.00053
26.5 0.00148
26.55 0.00235
26.6 0.00224
26.65 0.00138
26.7 0.00157
26.75 0.00081
26.8 0.00078
26.85 0.00103
26.9 0.00057
26.95 0.0015
27 0.00099
27.05 0.00024
27.1 -0.00172
27.15 -0.00312
27.2 -0.00377
27.25 -0.00448
27.3 -0.00399
27.35 -0.00449
27.4 -0.00462
27.45 -0.00394
27.5 -0.00333
27.55 -0.00162
27.6 -0.00003
27.65 0.00112
27.7 0.00175
27.75 0.0018
27.8 0.00096
27.85 0.00122
27.9 0.00148
27.95 0.00222
28 0.00249
28.05 0.00265
28.1 0.00108
28.15 0.00062
28.2 0.00148
28.25 0.00081
28.3 -0.00081
28.35 -0.00299
28.4 -0.00302
28.45 -0.00328
28.5 -0.0028
28.55 -0.00219
28.6 -0.00177
28.65 -0.00131
28.7 -0.00168
28.75 -0.00262
28.8 -0.00172
28.85 -0.00017
28.9 0.0015
28.95 0.00365
29 0.00402
29.05 0.0039
29.1 0.00363
29.15 0.00203
29.2 0.00213
29.25 0.00255
29.3 0.00148
29.35 0.0012
29.4 0.00051
29.45 -0.00061
29.5 -0.00247
29.55 -0.00327
29.6 -0.0038
29.65 -0.00276
29.7 -0.00083
29.75 -0.00024
29.8 -0.00104
29.85 -0.0011
29.9 -0.00233
29.95 -0.00212
30 -0.0022
30.05 -0.003
30.1 -0.00193
30.15 -0.0026
30.2 -0.00396
30.25 -0.00593
30.3 -0.00547
30.35 -0.00362
30.4 -0.00295
30.45 -0.00175
30.5 0.00044
30.55 0.00128
30.6 0.00106
30.65 0.00118
30.7 0.00078
30.75 0.00026
30.8 -0.00052
30.85 -0.00067
30.9 -0.00013
30.95 -0.0007
31 -0.00014
31.05 -0.00064
31.1 -0.0021
31.15 -0.00184
31.2 -0.00201
31.25 -0.00273
31.3 -0.0017
31.35 -0.00079
31.4 -0.00016
31.45 -0.00001
31.5 -0.00038
31.55 -0.00092
31.6 -0.00094
31.65 -0.00017
31.7 0.00169
31.75 0.00392
31.8 0.00378
31.85 0.00346
31.9 0.00378
31.95 0.00505
32 0.006
32.05 0.00624
32.1 0.00445
32.15 0.00273
32.2 0.00029
32.25 -0.00085
32.3 -0.00237
32.35 -0.00358
32.4 -0.0031
32.45 -0.00135
32.5 -0.0015
32.55 -0.00132
32.6 -0.00021
32.65 0.00088
32.7 0.00256
32.75 0.00461
32.8 0.00633
32.85 0.00706
32.9 0.00737
32.95 0.00737
33 0.00716
33.05 0.00574
33.1 0.00511
33.15 0.00396
33.2 0.00386
33.25 0.00436
33.3 0.00294
33.35 0.00054
33.4 0.00007
33.45 0.00095
33.5 -0.00006
33.55 -0.00064
33.6 -0.0012
33.65 -0.00156
33.7 -0.00167
33.75 -0.00199
33.8 -0.00267
33.85 -0.00401
33.9 -0.00596
33.95 -0.00587
34 -0.00677
34.05 -0.00775
34.1 -0.00839
34.15 -0.00758
34.2 -0.00691
34.25 -0.00472
34.3 -0.00315
34.35 -0.00244
34.4 -0.00057
34.45 0.00012
34.5 0.00109
34.55 0.00202
34.6 0.00163
34.65 0.00091
34.7 0.00093
34.75 0.00058
34.8 -0.00057
34.85 -0.00097
34.9 0.00002
34.95 0.0001
35 -0.00078
35.05 -0.00221
35.1 -0.00174
35.15 -0.00192
35.2 -0.00237
35.25 -0.00153
35.3 -0.00021
35.35 0.00173
35.4 0.00393
35.45 0.00379
35.5 0.00292
35.55 0.00074
35.6 -0.00068
35.65 -0.00186
35.7 -0.00386
35.75 -0.00618
35.8 -0.00859
35.85 -0.01059
35.9 -0.01075
35.95 -0.00993
36 -0.00959
36.05 -0.00794
36.1 -0.00724
36.15 -0.00603
36.2 -0.00562
36.25 -0.00517
36.3 -0.00476
36.35 -0.00443
36.4 -0.00451
36.45 -0.00386
36.5 -0.00421
36.55 -0.00446
36.6 -0.00521
36.65 -0.00581
36.7 -0.005
36.75 -0.00264
36.8 -0.00149
36.85 -0.00159
36.9 -0.00134
36.95 0.0003
37 0.00131
37.05 0.00322
37.1 0.00402
37.15 0.0051
37.2 0.00556
37.25 0.00625
37.3 0.00643
37.35 0.00525
37.4 0.00373
37.45 0.0026
37.5 0.00159
37.55 0.00214
37.6 0.00102
37.65 0.00015
37.7 -0.00113
37.75 -0.0006
37.8 -0.00022
37.85 -0.00133
37.9 -0.0009
37.95 0.00004
38 0.00059
38.05 0.00013
38.1 -0.00148
38.15 -0.00328
38.2 -0.00403
38.25 -0.00347
38.3 -0.00239
38.35 -0.0028
38.4 -0.00185
38.45 -0.00112
38.5 0.00013
38.55 -0.00033
38.6 -0.0011
38.65 -0.00086
38.7 -0.00034
38.75 0.00116
38.8 0.0028
38.85 0.00471
38.9 0.00561
38.95 0.00432
39 0.00305
39.05 0.00064
39.1 -0.00155
39.15 -0.00314
39.2 -0.0036
39.25 -0.00318
39.3 -0.00329
39.35 -0.00292
39.4 -0.00122
39.45 0.00113
39.5 0.00392
39.55 0.00483
39.6 0.00583
39.65 0.00603
39.7 0.00493
39.75 0.00418
39.8 0.0044
39.85 0.00312
39.9 0.00167
39.95 0.00111
40 -0.00077
40.05 -0.00068
40.1 -0.00032
40.15 0.00006
40.2 0.00155
40.25 0.00194
40.3 0.00068
40.35 0.00106
40.4 0.00099
40.45 0.00195
40.5 0.00277
40.55 0.00286
40.6 0.00291
40.65 0.00394
40.7 0.00367
40.75 0.00294
40.8 0.00248
40.85 0.00265
40.9 0.003
40.95 0.00261
41 0.00099
41.05 -0.00002
41.1 -0
41.15 -0.00149
41.2 -0.00334
41.25 -0.00289
41.3 -0.00169
41.35 -0.0022
41.4 -0.0016
41.45 -0.00249
41.5 -0.00265
41.55 -0.00141
41.6 -0.00097
41.65 -0.00113
41.7 -0.0009
41.75 -0.00186
41.8 -0.00153
41.85 -0.00103
41.9 -0.00007
41.95 0.00003
42 0.00097
42.05 0.00068
42.1 0.00156
42.15 0.0011
42.2 0.00033
42.25 0.00044
42.3 -0.00072
42.35 -0.00182
42.4 -0.0027
42.45 -0.00383
42.5 -0.00437
42.55 -0.0034
42.6 -0.00383
42.65 -0.00308
42.7 -0.00146
42.75 -0.00156
42.8 -0.00073
42.85 0.00098
42.9 0.00285
42.95 0.00334
43 0.00382
43.05 0.00513
43.1 0.00641
43.15 0.00521
43.2 0.00312
43.25 0.001
43.3 -0.00069
43.35 -0.0014
43.4 -0.00276
43.45 -0.00333
43.5 -0.00375
43.55 -0.00383
43.6 -0.00281
43.65 -0.0024
43.7 -0.00103
43.75 -0.00068
43.8 0.00099
43.85 0.00235
43.9 0.00432
43.95 0.00418
44 0.00442
44.05 0.00551
44.1 0.0066
44.15 0.00541
44.2 0.004
44.25 0.00396
44.3 0.00285
44.35 0.00073
44.4 -0.00194
44.45 -0.00338
44.5 -0.00351
44.55 -0.00428
44.6 -0.00481
44.65 -0.00449
44.7 -0.00468
44.75 -0.00642
44.8 -0.00904
44.85 -0.01151
44.9 -0.01485
44.95 -0.01873
45 -0.02251
45.05 -0.02731
45.1 -0.03272
45.15 -0.03882
45.2 -0.0447
45.25 -0.05031
45.3 -0.05848
45.35 -0.06629
45.4 -0.0752
45.45 -0.08564
45.5 -0.0979
45.55 -0.11194
45.6 -0.13024
45.65 -0.15154
45.7 -0.17612
45.75 -0.201
45.8 -0.22721
45.85 -0.25712
45.9 -0.28843
45.95 -0.32269
46 -0.35874
46.05 -0.39698
46.1 -0.43674
46.15 -0.47916
46.2 -0.52254
46.25 -0.5662
46.3 -0.60976
46.35 -0.65321
46.4 -0.69649
46.45 -0.73999
46.5 -0.7822
46.55 -0.82006
46.6 -0.85423
46.65 -0.88466
46.7 -0.91117
46.75 -0.93178
46.8 -0.94813
46.85 -0.95818
46.9 -0.96241
46.95 -0.95867
47 -0.94672
47.05 -0.92617
47.1 -0.89845
47.15 -0.86302
47.2 -0.82069
47.25 -0.77195
47.3 -0.71798
47.35 -0.65922
47.4 -0.59696
47.45 -0.52962
47.5 -0.45924
47.55 -0.38669
47.6 -0.31381
47.65 -0.24031
47.7 -0.16592
47.75 -0.09385
47.8 -0.0232
47.85 0.04364
47.9 0.10938
47.95 0.17105
48 0.22696
48.05 0.27882
48.1 0.32537
48.15 0.36763
48.2 0.40404
48.25 0.43636
48.3 0.46538
48.35 0.48968
48.4 0.50903
48.45 0.52409
48.5 0.53651
48.55 0.5463
48.6 0.55488
48.65 0.56138
48.7 0.56594
48.75 0.56765
48.8 0.57015
48.85 0.57063
48.9 0.57083
48.95 0.57251
49 0.57555
49.05 0.57779
49.1 0.57966
49.15 0.58065
49.2 0.58239
49.25 0.58491
49.3 0.58811
49.35 0.59227
49.4 0.59743
49.45 0.60294
49.5 0.60953
49.55 0.61457
49.6 0.61912
49.65 0.62281
49.7 0.62422
49.75 0.62478
49.8 0.62432
49.85 0.62441
49.9 0.62466
49.95 0.62295
50 0.62046
50.05 0.61861
50.1 0.61517
50.15 0.61036
50.2 0.60483
50.25 0.59847
50.3 0.59163
50.35 0.58149
50.4 0.57115
50.45 0.56006
50.5 0.54672
50.55 0.53268
50.6 0.51783
50.65 0.50373
50.7 0.4886
50.75 0.47442
50.8 0.4611
50.85 0.44573
50.9 0.42946
50.95 0.41334
51 0.39847
51.05 0.38317
51.1 0.36677
51.15 0.34949
51.2 0.33173
51.25 0.31474
51.3 0.29814
51.35 0.28213
51.4 0.26842
51.45 0.25457
51.5 0.24129
51.55 0.22843
51.6 0.2154
51.65 0.20119
51.7 0.18736
51.75 0.17346
51.8 0.1613
51.85 0.14992
51.9 0.13812
51.95 0.12592
52 0.11398
52.05 0.10216
52.1 0.09129
52.15 0.08085
52.2 0.0695
52.25 0.05808
52.3 0.04786
52.35 0.0376
52.4 0.02663
52.45 0.01674
52.5 0.00647
52.55 -0.00344
52.6 -0.01234
52.65 -0.02196
52.7 -0.03169
52.75 -0.0402
52.8 -0.04901
52.85 -0.05706
52.9 -0.06483
52.95 -0.07183
53 -0.07831
53.05 -0.08375
53.1 -0.08856
53.15 -0.09242
53.2 -0.09409
53.25 -0.09556
53.3 -0.09766
53.35 -0.09958
53.4 -0.1026
53.45 -0.10578
53.5 -0.10808
53.55 -0.10878
53.6 -0.10882
53.65 -0.11018
53.7 -0.11132
53.75 -0.11338
53.8 -0.11469
53.85 -0.11711
53.9 -0.12033
53.95 -0.12245
54 -0.12323
54.05 -0.12446
54.1 -0.12568
54.15 -0.1269
54.2 -0.12763
54.25 -0.12812
54.3 -0.1274
54.35 -0.12532
54.4 -0.12362
54.45 -0.12201
54.5 -0.1213
54.55 -0.11949
54.6 -0.118
54.65 -0.11756
54.7 -0.11672
54.75 -0.11521
54.8 -0.11485
54.85 -0.1134
54.9 -0.11238
54.95 -0.11201
55 -0.11195
55.05 -0.11224
55.1 -0.11254
55.15 -0.11119
55.2 -0.10981
55.25 -0.10783
55.3 -0.10503
55.35 -0.10196
55.4 -0.10001
55.45 -0.09938
55.5 -0.09948
55.55 -0.09784
55.6 -0.09749
55.65 -0.09717
55.7 -0.0969
55.75 -0.09438
55.8 -0.09046
55.85 -0.08815
55.9 -0.08522
55.95 -0.08183
56 -0.08024
56.05 -0.07773
56.1 -0.07615
56.15 -0.0748
56.2 -0.07536
56.25 -0.07578
56.3 -0.07571
56.35 -0.07522
56.4 -0.0758
56.45 -0.07495
56.5 -0.07505
56.55 -0.07583
56.6 -0.07421
56.65 -0.07384
56.7 -0.07141
56.75 -0.06999
56.8 -0.06966
56.85 -0.06763
56.9 -0.06492
56.95 -0.06277
57 -0.06003
57.05 -0.05939
57.1 -0.05907
57.15 -0.05978
57.2 -0.05929
57.25 -0.0586
57.3 -0.05866
57.35 -0.05671
57.4 -0.05459
57.45 -0.05317
57.5 -0.05089
57.55 -0.04816
57.6 -0.04688
57.65 -0.04577
57.7 -0.04583
57.75 -0.04678
57.8 -0.04661
57.85 -0.04624
57.9 -0.04449
57.95 -0.04326
58 -0.04361
58.05 -0.04445
58.1 -0.04401
58.15 -0.04211
58.2 -0.04118
58.25 -0.04159
58.3 -0.04291
58.35 -0.04363
58.4 -0.04487
58.45 -0.04605
58.5 -0.04558
58.55 -0.04486
58.6 -0.04369
58.65 -0.04242
58.7 -0.03946
58.75 -0.03795
58.8 -0.03544
58.85 -0.03281
58.9 -0.03229
58.95 -0.03313
59 -0.03392
59.05 -0.03529
59.1 -0.03696
59.15 -0.03788
59.2 -0.03822
59.25 -0.03888
59.3 -0.03935
59.35 -0.039
59.4 -0.03659
59.45 -0.03441
59.5 -0.03093
59.55 -0.02879
59.6 -0.02785
59.65 -0.02565
59.7 -0.02508
59.75 -0.02433
59.8 -0.02333
59.85 -0.02282
59.9 -0.02143
59.95 -0.02159
60 -0.02049
60.05 -0.0191
60.1 -0.01835
60.15 -0.01894
60.2 -0.01867
60.25 -0.01859
60.3 -0.01938
60.35 -0.01883
60.4 -0.01864
60.45 -0.01876
60.5 -0.01934
60.55 -0.02026
60.6 -0.02027
60.65 -0.02115
60.7 -0.02154
60.75 -0.02246
60.8 -0.02274
60.85 -0.02351
60.9 -0.02327
60.95 -0.02155
61 -0.01918
61.05 -0.0186
61.1 -0.01684
61.15 -0.01484
61.2 -0.01395
61.25 -0.01194
61.3 -0.01022
61.35 -0.01006
61.4 -0.01137
61.45 -0.01313
61.5 -0.01483
61.55 -0.01689
61.6 -0.01802
61.65 -0.01947
61.7 -0.02052
61.75 -0.0212
61.8 -0.02181
61.85 -0.02061
61.9 -0.02022
61.95 -0.02024
62 -0.01861
62.05 -0.01762
62.1 -0.01652
62.15 -0.01651
62.2 -0.01684
62.25 -0.01761
62.3 -0.01658
62.35 -0.01611
62.4 -0.0165
62.45 -0.01739
62.5 -0.01664
62.55 -0.01682
62.6 -0.01586
62.65 -0.01458
62.7 -0.01315
62.75 -0.01303
62.8 -0.01108
62.85 -0.00814
62.9 -0.00532
62.95 -0.00484
63 -0.00461
63.05 -0.00385
63.1 -0.00376
63.15 -0.00312
63.2 -0.00258
63.25 -0.00393
63.3 -0.00613
63.35 -0.00717
63.4 -0.00761
63.45 -0.00849
63.5 -0.01023
63.55 -0.01158
63.6 -0.01296
63.65 -0.01179
63.7 -0.009
63.75 -0.00704
63.8 -0.00516
63.85 -0.00362
63.9 -0.00273
63.95 -0.00096
64 -0.00146
64.05 -0.00171
64.1 -0.00067
64.15 -0.00139
64.2 -0.00112
64.25 -0.00032
64.3 -0.0003
64.35 -0.00115
64.4 -0.00072
64.45 -0.00012
64.5 -0.00089
64.55 -0.00204
64.6 -0.00296
64.65 -0.00461
64.7 -0.00418
64.75 -0.00322
64.8 -0.00189
64.85 -0.00019
64.9 0.00052
64.95 0.00182
65 0.00359
65.05 0.00406
65.1 0.00496
65.15 0.00585
65.2 0.00427
65.25 0.00119
65.3 -0.00014
65.35 -0.00125
65.4 -0.0011
65.45 0.00007
65.5 -0.0005
65.55 -0.00164
65.6 -0.0019
65.65 -0.00168
65.7 -0.00179
65.75 -0.00205
65.8 -0.00227
65.85 -0.00187
65.9 -0.00073
65.95 -0.00102
66 -0.00093
66.05 0.00005
66.1 -0.00042
66.15 -0.00196
66.2 -0.00332
66.25 -0.00334
66.3 -0.00332
66.35 -0.00395
66.4 -0.00299
66.45 -0.00249
66.5 -0.00303
66.55 -0.00384
66.6 -0.00571
66.65 -0.00649
66.7 -0.00613
66.75 -0.00639
66.8 -0.00718
66.85 -0.00758
66.9 -0.00712
66.95 -0.00701
67 -0.00718
67.05 -0.00559
67.1 -0.00548
67.15 -0.00393
67.2 -0.00161
67.25 -0.0016
67.3 -0.00125
67.35 -0.00212
67.4 -0.00359
67.45 -0.00524
67.5 -0.00647
67.55 -0.0079
67.6 -0.00803
67.65 -0.00767
67.7 -0.00706
67.75 -0.00622
67.8 -0.00554
67.85 -0.00415
67.9 -0.003
67.95 -0.00291
68 -0.00198
68.05 -0.00073
68.1 0.00129
68.15 0.00315
68.2 0.0048
68.25 0.0047
68.3 0.00394
68.35 0.0016
68.4 -0.00071
68.45 -0.001
68.5 -0.00196
68.55 -0.00189
68.6 -0.00172
68.65 -0.00019
68.7 -0.0004
68.75 -0.00078
68.8 -0.00211
68.85 -0.00391
68.9 -0.00541
68.95 -0.00546
69 -0.00497
69.05 -0.00491
69.1 -0.00583
69.15 -0.00697
69.2 -0.00693
69.25 -0.00657
69.3 -0.00652
69.35 -0.00465
69.4 -0.00273
69.45 -0.00207
69.5 -0.00021
69.55 0.00197
69.6 0.00196
69.65 0.00294
69.7 0.00345
69.75 0.00269
69.8 0.00273
69.85 0.00318
69.9 0.003
69.95 0.00397
70 0.00395
70.05 0.00384
70.1 0.00235
70.15 0.00205
70.2 0.00124
70.25 0.00024
70.3 0.00032
70.35 -0.00013
70.4 -0.00108
70.45 -0.00098
70.5 -0.00231
70.55 -0.00365
70.6 -0.00568
70.65 -0.00691
70.7 -0.00806
70.75 -0.00733
70.8 -0.00493
70.85 -0.00449
70.9 -0.00434
70.95 -0.00324
71 -0.00152
71.05 -0.00142
71.1 -0.00271
71.15 -0.00389
71.2 -0.00433
71.25 -0.00306
71.3 -0.00242
71.35 -0.00129
71.4 -0.00031
71.45 -0.00059
71.5 -0.0014
71.55 -0.00258
71.6 -0.00328
71.65 -0.00374
71.7 -0.0044
71.75 -0.00478
71.8 -0.0035
71.85 -0.00354
71.9 -0.00291
71.95 -0.00108
72 -0.00011
72.05 -0.00072
72.1 -0.00087
72.15 -0.00196
72.2 -0.00128
72.25 -0.00067
72.3 0.00027
72.35 0.00104
72.4 0.00185
72.45 0.00328
72.5 0.00393
72.55 0.00442
72.6 0.00535
72.65 0.00596
72.7 0.00728
72.75 0.00638
72.8 0.0053
72.85 0.00306
72.9 0.0028
72.95 0.00345
73 0.00485
73.05 0.00654
73.1 0.00809
73.15 0.00837
73.2 0.00864
73.25 0.00693
73.3 0.00538
73.35 0.00426
73.4 0.00394
73.45 0.00299
73.5 0.00294
73.55 0.0014
73.6 0.00069
73.65 0.00078
73.7 0.00086
73.75 0.00179
73.8 0.00161
73.85 0.00027
73.9 0.00052
73.95 -0.00067
74 -0.00205
74.05 -0.0021
74.1 -0.00122
74.15 -0.00053
74.2 -0.00097
74.25 -0.00221
74.3 -0.00237
74.35 -0.00095
74.4 -0.00043
74.45 0.00094
74.5 0.0029
74.55 0.00417
74.6 0.00404
74.65 0.00431
74.7 0.00343
74.75 0.00349
74.8 0.0031
74.85 0.00294
74.9 0.00321
74.95 0.00243
75 0.00069
75.05 -0.00181
75.1 -0.00465
75.15 -0.00661
75.2 -0.00641
75.25 -0.00505
75.3 -0.00314
75.35 -0.00148
75.4 -0.00164
75.45 -0.00299
75.5 -0.00428
75.55 -0.0055
75.6 -0.00637
75.65 -0.00697
75.7 -0.00591
75.75 -0.00596
75.8 -0.0043
75.85 -0.0021
75.9 0.00008
75.95 0.0026
76 0.00526
76.05 0.00542
76.1 0.00396
76.15 0.00204
76.2 -0.00021
76.25 -0.00181
76.3 -0.00294
76.35 -0.00369
76.4 -0.0043
76.45 -0.00463
76.5 -0.00532
76.55 -0.00427
76.6 -0.00355
76.65 -0.00188
76.7 -0.00026
76.75 -0.0006
76.8 -0.00007
76.85 0.00108
76.9 0.00028
76.95 0.00074
77 0.00201
77.05 0.00223
77.1 0.00137
77.15 0.00158
77.2 0.00133
77.25 -0.00007
77.3 -0.0016
77.35 -0.00246
77.4 -0.00378
77.45 -0.00477
77.5 -0.00536
77.55 -0.00562
77.6 -0.00402
77.65 -0.00314
77.7 -0.00139
77.75 -0.00042
77.8 -0.00082
77.85 -0.00118
77.9 -0.00275
77.95 -0.00314
78 -0.00295
78.05 -0.00133
78.1 -0.00106
78.15 -0.00201
78.2 -0.00331
78.25 -0.00319
78.3 -0.0019
78.35 -0.00113
78.4 -0.00181
78.45 -0.00202
78.5 -0.00344
78.55 -0.00279
78.6 -0.00122
78.65 -0.00114
78.7 -0.00219
78.75 -0.00135
78.8 0.00024
78.85 -0.0002
78.9 0.00058
78.95 0.00174
79 0.0011
79.05 0.00112
79.1 0.00115
79.15 -0.00031
79.2 -0.00171
79.25 -0.00254
79.3 -0.00211
79.35 -0.00101
79.4 0.00034
79.45 0.00257
79.5 0.00508
79.55 0.00626
79.6 0.00576
79.65 0.0063
79.7 0.00545
79.75 0.00507
79.8 0.00315
79.85 0.00071
79.9 -0.00125
79.95 -0.00127
80 -0.00152
80.05 -0.00134
80.1 -0.00016
80.15 0.0006
80.2 -0.00023
80.25 0.00042
80.3 0.00208
80.35 0.00262
80.4 0.00317
80.45 0.00341
80.5 0.00231
80.55 0.00258
80.6 0.00307
80.65 0.00161
80.7 0.00156
80.75 0.0007
80.8 0.00126
80.85 0.00142
80.9 0.00128
80.95 0.00041
81 0.00087
81.05 0.00067
81.1 0.0015
81.15 0.00124
81.2 0.00143
81.25 0.00141
81.3 -0.00014
81.35 -0.00075
81.4 -0.00256
81.45 -0.00223
81.5 -0.00174
81.55 -0.00189
81.6 -0.00151
81.65 -0.00128
81.7 -0.00187
81.75 -0.00222
81.8 -0.0011
81.85 0.00002
81.9 0.00196
81.95 0.00339
82 0.00423
82.05 0.00332
82.1 0.00176
82.15 0.00187
82.2 0.00149
82.25 0.00176
82.3 0.00141
82.35 0.00137
82.4 0.00119
82.45 -0.00051
82.5 -0.00278
82.55 -0.00531
82.6 -0.00578
82.65 -0.00546
82.7 -0.00368
82.75 -0.00271
82.8 -0.0022
82.85 -0.00195
82.9 -0.00296
82.95 -0.00464
83 -0.00575
83.05 -0.00569
83.1 -0.0064
83.15 -0.00554
83.2 -0.00468
83.25 -0.00274
83.3 -0.00096
83.35 -0.00116
83.4 -0.00014
83.45 0.00164
83.5 0.00258
83.55 0.00282
83.6 0.00329
83.65 0.004
83.7 0.00292
83.75 0.00187
83.8 0.00061
83.85 -0.00034
83.9 -0.00178
83.95 -0.00179
84 -0.00047
84.05 -0.00071
84.1 -0.00206
84.15 -0.0026
84.2 -0.00355
84.25 -0.00286
84.3 -0.00145
84.35 -0.00115
84.4 -0.0001
84.45 0.00193
84.5 0.00189
84.55 0.00034
84.6 0.00071
84.65 -0.00057
84.7 -0.00103
84.75 -0.00133
84.8 -0.0024
84.85 -0.00431
84.9 -0.00442
84.95 -0.00294
85 -0.00262
85.05 -0.00297
85.1 -0.00414
85.15 -0.00442
85.2 -0.00413
85.25 -0.0039
85.3 -0.00396
85.35 -0.00253
85.4 -0.00225
85.45 -0.00306
85.5 -0.00357
85.55 -0.00448
85.6 -0.00482
85.65 -0.00458
85.7 -0.00431
85.75 -0.003
85.8 -0.00304
85.85 -0.00144
85.9 0.00104
85.95 0.00149
86 0.00219
86.05 0.00349
86.1 0.00418
86.15 0.00354
86.2 0.00327
86.25 0.00202
86.3 0.00037
86.35 0.0005
86.4 0.00127
86.45 0.00206
86.5 0.00233
86.55 0.00134
86.6 0.00111
86.65 0.002
86.7 0.00153
86.75 0.00135
86.8 0.0013
86.85 0.00182
86.9 0.00174
86.95 0.00272
87 0.00225
87.05 0.00125
87.1 -0.00001
87.15 0.00054
87.2 0.001
87.25 0.00217
87.3 0.00396
87.35 0.00432
87.4 0.00418
87.45 0.00318
87.5 0.00189
87.55 0.00023
87.6 -0.00082
87.65 -0.00201
87.7 -0.00387
87.75 -0.00335
87.8 -0.00233
87.85 -0.0013
87.9 -0.00068
87.95 -0.00087
88 -0.00197
88.05 -0.00162
88.1 -0.00091
88.15 0.00047
88.2 0.00103
88.25 0.00164
88.3 0.00154
88.35 0.00133
88.4 0.00176
88.45 0.00268
88.5 0.00169
88.55 -0.00038
88.6 -0.0017
88.65 -0.00247
88.7 -0.00402
88.75 -0.00356
88.8 -0.002
88.85 -0.00102
88.9 -0.00136
88.95 -0.00225
89 -0.00274
89.05 -0.00251
89.1 -0.00314
89.15 -0.0045
89.2 -0.00482
89.25 -0.00405
89.3 -0.00272
89.35 -0.00151
89.4 0.00038
89.45 0.00034
89.5 -0.00064
89.55 -0.00198
89.6 -0.00153
89.65 -0.00168
89.7 -0.00174
89.75 -0.00023
89.8 0.00002
89.85 0.0016
89.9 0.00334
89.95 0.00535
90 0.006
90.05 0.00475
90.1 0.00379
90.15 0.00338
90.2 0.00312
90.25 0.00239
90.3 0.00091
90.35 0.00032
90.4 -0.00097
90.45 -0.00274
90.5 -0.0025
90.55 -0.00314
90.6 -0.00275
90.65 -0.00212
90.7 -0.00118
90.75 -0.00174
90.8 -0.00258
90.85 -0.00413
90.9 -0.00391
90.95 -0.00314
91 -0.00202
91.05 0.00022
91.1 0.00048
91.15 0.00113
91.2 0.00241
91.25 0.00165
91.3 -0.00038
91.35 -0.00221
91.4 -0.00439
91.45 -0.00504
91.5 -0.00423
91.55 -0.00232
91.6 -0.00092
91.65 0.0015
91.7 0.00414
91.75 0.00408
91.8 0.00287
91.85 0.00233
91.9 0.0027
91.95 0.00266
92 0.00165
92.05 0.00057
92.1 0.00026
92.15 0.00069
92.2 0.00149
92.25 0.00315
92.3 0.00427
92.35 0.00407
92.4 0.00286
92.45 0.00086
92.5 0.00047
92.55 -0.00115
92.6 -0.00219
92.65 -0.00259
92.7 -0.00295
92.75 -0.00413
92.8 -0.00524
92.85 -0.0046
92.9 -0.00244
92.95 -0.00117
93 0.00017
93.05 0.00247
93.1 0.00458
93.15 0.00642
93.2 0.00746
93.25 0.0065
93.3 0.00557
93.35 0.00485
93.4 0.00307
93.45 0.00037
93.5 -0.00126
93.55 -0.00109
93.6 0.00046
93.65 0.00183
93.7 0.00331
93.75 0.00411
93.8 0.00336
93.85 0.00368
93.9 0.00224
93.95 -0.00032
94 -0.00336
94.05 -0.00484
94.1 -0.0046
94.15 -0.00551
94.2 -0.00565
94.25 -0.00595
94.3 -0.0058
94.35 -0.00429
94.4 -0.00389
94.45 -0.00352
94.5 -0.00263
94.55 -0.001
94.6 0.00003
94.65 0.00019
94.7 0.00075
94.75 0.00229
94.8 0.00197
94.85 0.00152
94.9 -0.00014
94.95 -0.0026
95 -0.00267
95.05 -0.00285
95.1 -0.00325
95.15 -0.00237
95.2 -0.0007
95.25 -0.00084
95.3 -0.0014
95.35 -0.00065
95.4 0.00018
95.45 0.00052
95.5 0.00131
95.55 0.00141
95.6 0.00123
95.65 0.00022
95.7 -0.0012
95.75 -0.00303
95.8 -0.00405
95.85 -0.00513
95.9 -0.00658
95.95 -0.0058
96 -0.00359
96.05 -0.00094
96.1 -0.0001
96.15 0.00174
96.2 0.00162
96.25 0.00189
96.3 0.00306
96.35 0.0037
96.4 0.00386
96.45 0.00239
96.5 0.00087
96.55 0.00004
96.6 0.00041
96.65 0.00003
96.7 0.00096
96.75 0.0022
96.8 0.00324
96.85 0.00288
96.9 0.00307
96.95 0.00406
97 0.0055
97.05 0.00533
97.1 0.00403
97.15 0.00371
97.2 0.00223
97.25 -0.00032
97.3 -0.00177
97.35 -0.00383
97.4 -0.00401
97.45 -0.00371
97.5 -0.0024
97.55 -0.00057
97.6 0.00153
97.65 0.00301
97.7 0.00272
97.75 0.00249
97.8 0.00215
97.85 0.00122
97.9 0.00014
97.95 0.0004
98 0.00172
98.05 0.0027
98.1 0.0039
98.15 0.00472
98.2 0.00606
98.25 0.00679
98.3 0.00795
98.35 0.00799
98.4 0.00686
98.45 0.00545
98.5 0.00295
98.55 0.0003
98.6 -0.00067
98.65 -0.00032
98.7 -0.00004
98.75 -0.00129
98.8 -0.00256
98.85 -0.00231
98.9 -0.00256
98.95 -0.00336
99 -0.00486
99.05 -0.00595
99.1 -0.0064
99.15 -0.00552
99.2 -0.00475
99.25 -0.00292
99.3 -0.00197
99.35 -0.00179
99.4 -0.00041
99.45 0.00089
99.5 0.00113
99.55 0.00235
99.6 0.0023
99.65 0.00331
99.7 0.00258
99.75 0.00046
99.8 -0.00153
99.85 -0.00155
99.9 -0.00214
99.95 -0.00127
