0 0
0.05 0.00042
0.1 0.00153
0.15 0.00275
0.2 0.00423
0.25 0.00481
0.3 0.00632
0.35 0.00737
0.4 0.00833
0.45 0.00921
0.5 0.00896
0.55 0.00864
0.6 0.0092
0.65 0.00884
0.7 0.00918
0.75 0.00884
0.8 0.00903
0.85 0.00892
0.9 0.00841
0.95 0.00877
1 0.00835
1.05 0.00858
1.1 0.00828
1.15 0.00801
1.2 0.00828
1.25 0.00757
1.3 0.00761
1.35 0.00747
1.4 0.00679
1.45 0.00619
1.5 0.00527
1.55 0.00458
1.6 0.0044
1.65 0.00479
1.7 0.00494
1.75 0.00573
1.8 0.00594
1.85 0.00603
1.9 0.00646
1.95 0.00654
2 0.00694
2.05 0.00751
2.1 0.00797
2.15 0.00845
2.2 0.00827
2.25 0.00724
2.3 0.00694
2.35 0.00702
2.4 0.00654
2.45 0.00668
2.5 0.00597
2.55 0.00542
2.6 0.00482
2.65 0.0046
2.7 0.0049
2.75 0.00546
2.8 0.00567
2.85 0.00498
2.9 0.00481
2.95 0.00508
3 0.00585
3.05 0.0057
3.1 0.0061
3.15 0.00653
3.2 0.00619
3.25 0.00596
3.3 0.00562
3.35 0.00574
3.4 0.00485
3.45 0.00408
3.5 0.00407
3.55 0.00363
3.6 0.00371
3.65 0.00384
3.7 0.00443
3.75 0.00455
3.8 0.00446
3.85 0.00354
3.9 0.00315
3.95 0.00271
4 0.00303
4.05 0.00375
4.1 0.00428
4.15 0.004
4.2 0.00355
4.25 0.00305
4.3 0.00335
4.35 0.00395
4.4 0.00349
4.45 0.0025
4.5 0.00195
4.55 0.00128
4.6 0.00149
4.65 0.00219
4.7 0.00323
4.75 0.0034
4.8 0.00264
4.85 0.00153
4.9 0.0009
4.95 0.00081
5 0.00137
5.05 0.00158
5.1 0.00214
5.15 0.00206
5.2 0.00165
5.25 0.00188
5.3 0.00251
5.35 0.00283
5.4 0.00314
5.45 0.00375
5.5 0.00404
5.55 0.00335
5.6 0.0032
5.65 0.00276
5.7 0.00162
5.75 0.0014
5.8 0.00151
5.85 0.0014
5.9 0.00192
5.95 0.00276
6 0.00366
6.05 0.00433
6.1 0.00481
6.15 0.00499
6.2 0.00474
6.25 0.00426
6.3 0.00427
6.35 0.00408
6.4 0.00349
6.45 0.00214
6.5 0.00159
6.55 0.00127
6.6 0.0013
6.65 0.00157
6.7 0.00103
6.75 0.00121
6.8 0.00085
6.85 0.00021
6.9 -0.00074
6.95 -0.00162
7 -0.00139
7.05 -0.00051
7.1 0.00086
7.15 0.00102
7.2 0.001
7.25 0.00063
7.3 0.00109
7.35 0.00074
7.4 0.00111
7.45 0.00106
7.5 0.00027
7.55 -0.00068
7.6 -0.00126
7.65 -0.00227
7.7 -0.00346
7.75 -0.00358
7.8 -0.00287
7.85 -0.00287
7.9 -0.00228
7.95 -0.00194
8 -0.00143
8.05 -0.00018
8.1 0.00107
8.15 0.00235
8.2 0.00311
8.25 0.00271
8.3 0.00162
8.35 0.00085
8.4 0.00036
8.45 -0.0007
8.5 -0.00125
8.55 -0.00201
8.6 -0.00211
8.65 -0.00271
8.7 -0.00304
8.75 -0.00349
8.8 -0.00287
8.85 -0.00263
8.9 -0.00275
8.95 -0.00234
9 -0.00112
9.05 0.00009
9.1 0.00035
9.15 0.00046
9.2 0.0008
9.25 0.00142
9.3 0.00113
9.35 0.00045
9.4 -0.00039
9.45 -0.00084
9.5 -0.00107
9.55 -0.00166
9.6 -0.00218
9.65 -0.00302
9.7 -0.00313
9.75 -0.00215
9.8 -0.00209
9.85 -0.00133
9.9 -0.0012
9.95 -0.00159
10 -0.00208
10.05 -0.00188
10.1 -0.00166
10.15 -0.00077
10.2 -0.00044
10.25 0.00062
10.3 0.00084
10.35 0.00062
10.4 0.00094
10.45 0.00128
10.5 0.00192
10.55 0.00223
10.6 0.00297
10.65 0.00281
10.7 0.00232
10.75 0.00235
10.8 0.00261
10.85 0.00191
10.9 0.00189
10.95 0.00168
11 0.00108
11.05 0.00136
11.1 0.00109
11.15 0.00112
11.2 0.0017
11.25 0.00176
11.3 0.00209
11.35 0.00189
11.4 0.00196
11.45 0.00174
11.5 0.00224
11.55 0.00164
11.6 0.00184
11.65 0.0024
11.7 0.00209
11.75 0.00201
11.8 0.00164
11.85 0.00127
11.9 0.00044
11.95 -0.0006
12 -0.001
12.05 -0.00182
12.1 -0.00178
12.15 -0.00105
12.2 -0.00058
12.25 0.00011
12.3 -0.00018
12.35 0.00001
12.4 0.00057
12.45 0.00103
12.5 0.00199
12.55 0.002
12.6 0.00249
12.65 0.00284
12.7 0.00207
12.75 0.00082
12.8 0.00009
12.85 -0.00059
12.9 -0.00137
12.95 -0.00237
13 -0.00256
13.05 -0.00216
13.1 -0.00171
13.15 -0.0012
13.2 -0.00081
13.25 -0.00098
13.3 -0.00096
13.35 -0.00111
13.4 -0.00191
13.45 -0.00241
13.5 -0.00217
13.55 -0.0014
13.6 -0.00108
13.65 -0.00106
13.7 -0.0012
13.75 -0.0018
13.8 -0.00224
13.85 -0.00272
13.9 -0.00289
13.95 -0.00226
14 -0.00125
14.05 -0.0011
14.1 -0.00147
14.15 -0.00186
14.2 -0.00164
14.25 -0.00148
14.3 -0.00109
14.35 -0.00152
14.4 -0.00235
14.45 -0.00219
14.5 -0.00157
14.55 -0.00143
14.6 -0.0016
14.65 -0.00113
14.7 -0.00068
14.75 -0.0009
14.8 -0.00062
14.85 -0.00078
14.9 -0.00025
14.95 0.00048
15 0.00163
15.05 0.00202
15.1 0.00233
15.15 0.00162
15.2 0.00104
15.25 0.00074
15.3 -0.00008
15.35 -0.00011
15.4 -0.00015
15.45 -0.00085
15.5 -0.00089
15.55 -0.00027
15.6 -0.00047
15.65 -0.00121
15.7 -0.00229
15.75 -0.00239
15.8 -0.0018
15.85 -0.00195
15.9 -0.00104
15.95 0.00017
16 0.00044
16.05 0.00027
16.1 0.0007
16.15 0.00136
16.2 0.00198
16.25 0.00217
16.3 0.00158
16.35 0.00065
16.4 0.00003
16.45 0.00016
16.5 -0.00028
16.55 0.00028
16.6 0.00104
16.65 0.00087
16.7 0.00018
16.75 0.00028
16.8 0.00088
16.85 0.00054
16.9 -0.00042
16.95 -0.00109
17 -0.00121
17.05 -0.00107
17.1 -0.00128
17.15 -0.00174
17.2 -0.00198
17.25 -0.00178
17.3 -0.00089
17.35 0.0001
17.4 0.00056
17.45 0.00073
17.5 0.00045
17.55 0.00019
17.6 -0.00041
17.65 -0.00122
17.7 -0.00171
17.75 -0.0019
17.8 -0.00126
17.85 -0.00135
17.9 -0.00053
17.95 -0.0003
18 -0.00018
18.05 0.00021
18.1 0.00018
18.15 -0.00034
18.2 -0.00015
18.25 -0.00058
18.3 -0.00117
18.35 -0.00111
18.4 -0.00021
18.45 0.00007
18.5 0.00091
18.55 0.00183
18.6 0.00179
18.65 0.00189
18.7 0.00147
18.75 0.00112
18.8 0.0009
18.85 0.00105
18.9 0.00041
18.95 0.00021
19 0.00003
19.05 -0.00016
19.1 -0.00088
19.15 -0.00117
19.2 -0.00196
19.25 -0.00226
19.3 -0.00269
19.35 -0.00237
19.4 -0.00243
19.45 -0.00249
19.5 -0.0015
19.55 0.00007
19.6 0.00057
19.65 0.00039
19.7 -0.00036
19.75 -0.0006
19.8 -0.00094
19.85 -0.00174
19.9 -0.0014
19.95 -0.00064
20 -0.00058
20.05 -0.00041
20.1 0.00043
20.15 0.00059
20.2 0.00063
20.25 0.0003
20.3 0.00018
20.35 -0.00003
20.4 0.00015
20.45 0.00065
20.5 0.00055
20.55 0.00023
20.6 0.00018
20.65 -0.00008
20.7 -0.00093
20.75 -0.00197
20.8 -0.00209
20.85 -0.00248
20.9 -0.00311
20.95 -0.00326
21 -0.0024
21.05 -0.00193
21.1 -0.00183
21.15 -0.00111
21.2 -0.00072
21.25 -0.00033
21.3 0.00071
21.35 0.0021
21.4 0.00237
21.45 0.0031
21.5 0.00265
21.55 0.00165
21.6 0.00124
21.65 0.00167
21.7 0.00198
21.75 0.00244
21.8 0.00284
21.85 0.00231
21.9 0.00173
21.95 0.00157
22 0.00212
22.05 0.00299
22.1 0.00307
22.15 0.00304
22.2 0.00204
22.25 0.00113
22.3 0.00103
22.35 0.00093
22.4 0.00041
22.45 0.00009
22.5 0.0003
22.55 0.00067
22.6 0.00073
22.65 0.00153
22.7 0.00157
22.75 0.00145
22.8 0.00178
22.85 0.00241
22.9 0.00293
22.95 0.00269
23 0.00237
23.05 0.00163
23.1 0.00092
23.15 0.00047
23.2 -0.0004
23.25 -0.00074
23.3 -0.00024
23.35 -0.00006
23.4 0.00077
23.45 0.00161
23.5 0.00159
23.55 0.00194
23.6 0.00163
23.65 0.00136
23.7 0.00053
23.75 0.00055
23.8 0.00017
23.85 0.00044
23.9 -0.00012
23.95 -0.00021
24 0.0002
24.05 -0.00018
24.1 -0.00065
24.15 -0.00043
24.2 -0.00076
24.25 -0.00156
24.3 -0.00231
24.35 -0.00272
24.4 -0.00208
24.45 -0.00223
24.5 -0.00171
24.55 -0.00116
24.6 -0.00015
24.65 0.00072
24.7 0.00184
24.75 0.00309
24.8 0.00321
24.85 0.00347
24.9 0.00377
24.95 0.00287
25 0.00241
25.05 0.00237
25.1 0.00248
25.15 0.00196
25.2 0.00079
25.25 -0.00081
25.3 -0.00102
25.35 -0.00113
25.4 -0.00086
25.45 -0.00034
25.5 0.00068
25.55 0.00111
25.6 0.00175
25.65 0.00229
25.7 0.00255
25.75 0.00291
25.8 0.00294
25.85 0.00296
25.9 0.00189
25.95 0.00117
26 -0.00002
26.05 -0.00101
26.1 -0.00186
26.15 -0.00289
26.2 -0.00375
26.25 -0.00445
26.3 -0.00409
26.35 -0.00325
26.4 -0.00229
26.45 -0.0012
26.5 -0.00043
26.55 -0.00018
26.6 -0.00026
26.65 -0.00014
26.7 0.00052
26.75 0.0011
26.8 0.00192
26.85 0.00187
26.9 0.0018
26.95 0.00176
27 0.00111
27.05 0.00033
27.1 -0.00034
27.15 -0.00121
27.2 -0.00139
27.25 -0.00152
27.3 -0.00084
27.35 0.00031
27.4 0.00023
27.45 0.00009
27.5 -0.00014
27.55 -0.00081
27.6 -0.00051
27.65 -0.00005
27.7 -0.0005
27.75 -0.00036
27.8 0.00043
27.85 0.00007
27.9 0.00033
27.95 0.00097
28 0.00064
28.05 0.00014
28.1 0.00023
28.15 0.00087
28.2 0.00169
28.25 0.00273
28.3 0.00388
28.35 0.00446
28.4 0.00421
28.45 0.00369
28.5 0.00285
28.55 0.00141
28.6 0.00082
28.65 -0.00034
28.7 -0.00084
28.75 -0.00182
28.8 -0.00222
28.85 -0.00243
28.9 -0.00306
28.95 -0.00343
29 -0.00312
29.05 -0.00304
29.1 -0.00314
29.15 -0.0034
29.2 -0.00262
29.25 -0.00189
29.3 -0.00091
29.35 0.00014
29.4 0.00017
29.45 0.00059
29.5 0.00147
29.55 0.00211
29.6 0.00177
29.65 0.00173
29.7 0.0021
29.75 0.00265
29.8 0.00202
29.85 0.00065
29.9 0.00033
29.95 -0.00001
30 0.00001
30.05 -0.00045
30.1 0.00002
30.15 -0.00041
30.2 -0.00044
30.25 0.00024
30.3 0.00058
30.35 0.00107
30.4 0.00108
30.45 0.00108
30.5 0.00156
30.55 0.002
30.6 0.00285
30.65 0.00326
30.7 0.00391
30.75 0.00429
30.8 0.00379
30.85 0.0023
30.9 0.00124
30.95 0.00001
31 -0.00021
31.05 0.00009
31.1 0.00028
31.15 0.00021
31.2 0.0001
31.25 -0.00086
31.3 -0.00093
31.35 -0.00135
31.4 -0.0008
31.45 0.00011
31.5 0.00089
31.55 0.0011
31.6 0.00169
31.65 0.00141
31.7 0.00135
31.75 0.00176
31.8 0.00239
31.85 0.00293
31.9 0.00264
31.95 0.00147
32 -0
32.05 -0.00125
32.1 -0.00252
32.15 -0.00305
32.2 -0.00294
32.25 -0.00259
32.3 -0.00184
32.35 -0.00077
32.4 -0.0005
32.45 -0.00059
32.5 -0.00083
32.55 -0.00165
32.6 -0.00191
32.65 -0.0021
32.7 -0.00266
32.75 -0.00269
32.8 -0.00312
32.85 -0.00343
32.9 -0.00353
32.95 -0.00321
33 -0.00291
33.05 -0.0021
33.1 -0.00188
33.15 -0.00111
33.2 -0.00039
33.25 -0.00041
33.3 -0.00014
33.35 0.00028
33.4 0.00036
33.45 0.00059
33.5 0.00029
33.55 0.00057
33.6 0.00083
33.65 0.00058
33.7 -0.00019
33.75 -0.00129
33.8 -0.0012
33.85 -0.00167
33.9 -0.00226
33.95 -0.00284
34 -0.0037
34.05 -0.00456
34.1 -0.0052
34.15 -0.0054
34.2 -0.00521
34.25 -0.00534
34.3 -0.0044
34.35 -0.00278
34.4 -0.00163
34.45 -0.00035
34.5 0.00074
34.55 0.00109
34.6 0.00152
34.65 0.00109
34.7 0.00067
34.75 -0.00032
34.8 -0.00123
34.85 -0.00188
34.9 -0.00286
34.95 -0.00318
35 -0.0035
35.05 -0.00349
35.1 -0.00311
35.15 -0.00261
35.2 -0.00143
35.25 -0.00072
35.3 0.00039
35.35 0.00185
35.4 0.00195
35.45 0.00166
35.5 0.0006
35.55 -0.0006
35.6 -0.00194
35.65 -0.00266
35.7 -0.00357
35.75 -0.00311
35.8 -0.00187
35.85 -0.00092
35.9 -0.00018
35.95 -0.00029
36 -0.00017
36.05 -0.00063
36.1 -0.00129
36.15 -0.00082
36.2 0.00003
36.25 0.00054
36.3 0.00091
36.35 0.00037
36.4 -0.00065
36.45 -0.00124
36.5 -0.00179
36.55 -0.00195
36.6 -0.00153
36.65 -0.00091
36.7 0.0003
36.75 0.00096
36.8 0.00165
36.85 0.00245
36.9 0.00341
36.95 0.00299
37 0.00314
37.05 0.00263
37.1 0.00204
37.15 0.00082
37.2 -0.00046
37.25 -0.00096
37.3 -0.00179
37.35 -0.00201
37.4 -0.00223
37.45 -0.00269
37.5 -0.00207
37.55 -0.00131
37.6 -0.00089
37.65 -0.00021
37.7 0.00058
37.75 0.00065
37.8 0.0011
37.85 0.00157
37.9 0.00165
37.95 0.00178
38 0.00203
38.05 0.00261
38.1 0.00214
38.15 0.00173
38.2 0.00081
38.25 0.00003
38.3 0.00004
38.35 -0.00006
38.4 0.00002
38.45 0.00078
38.5 0.00122
38.55 0.00089
38.6 -0.00015
38.65 -0.00067
38.7 -0.00165
38.75 -0.00137
38.8 -0.00122
38.85 -0.00175
38.9 -0.00116
38.95 -0.00033
39 0.00057
39.05 0.00055
39.1 0.00007
39.15 0.00006
39.2 -0.00071
39.25 -0.00089
39.3 -0.00124
39.35 -0.00124
39.4 -0.0015
39.45 -0.00132
39.5 -0.00078
39.55 -0.00002
39.6 0.001
39.65 0.0008
39.7 0.00008
39.75 0.00006
39.8 0.00086
39.85 0.00072
39.9 0.00001
39.95 -0.00076
40 -0.00118
40.05 -0.00091
40.1 -0.00014
40.15 0.00045
40.2 0.00136
40.25 0.0026
40.3 0.00351
40.35 0.00321
40.4 0.00295
40.45 0.00326
40.5 0.00283
40.55 0.00204
40.6 0.00132
40.65 0.00145
40.7 0.00185
40.75 0.0022
40.8 0.00203
40.85 0.00252
40.9 0.00289
40.95 0.00323
41 0.00294
41.05 0.00314
41.1 0.00307
41.15 0.00227
41.2 0.00158
41.25 0.00055
41.3 -0.00027
41.35 -0.00155
41.4 -0.00205
41.45 -0.00178
41.5 -0.00099
41.55 0.00003
41.6 0.00074
41.65 0.00054
41.7 0.00005
41.75 -0.00008
41.8 -0.00071
41.85 -0.00109
41.9 -0.00124
41.95 -0.00129
42 -0.00049
42.05 -0.00059
42.1 -0.00068
42.15 -0.00146
42.2 -0.00232
42.25 -0.0023
42.3 -0.00285
42.35 -0.00289
42.4 -0.00279
42.45 -0.0022
42.5 -0.0022
42.55 -0.00135
42.6 -0.00038
42.65 0.00093
42.7 0.00119
42.75 0.00119
42.8 0.00029
42.85 -0.00016
42.9 -0.00014
42.95 0.00008
43 -0.0005
43.05 -0.00018
43.1 -0.00011
43.15 0.00047
43.2 0.00044
43.25 0.00074
43.3 0.00119
43.35 0.00064
43.4 0.00074
43.45 0.00016
43.5 -0.00005
43.55 0.00046
43.6 -0.00007
43.65 -0.00086
43.7 -0.00062
43.75 -0.00035
43.8 0.00011
43.85 0.00111
43.9 0.0021
43.95 0.003
44 0.00394
44.05 0.00351
44.1 0.0037
44.15 0.004
44.2 0.0043
44.25 0.00337
44.3 0.00202
44.35 0.00148
44.4 0.00108
44.45 0.00001
44.5 0.00007
44.55 -0.00019
44.6 -0.0006
44.65 -0.00058
44.7 -0.00001
44.75 0.00094
44.8 0.00159
44.85 0.00245
44.9 0.00318
44.95 0.00289
45 0.00258
45.05 0.00271
45.1 0.00223
45.15 0.00128
45.2 0.00029
45.25 -0.00017
45.3 -0.0009
45.35 -0.0016
45.4 -0.00269
45.45 -0.00264
45.5 -0.00216
45.55 -0.00205
45.6 -0.00231
45.65 -0.00247
45.7 -0.00301
45.75 -0.00366
45.8 -0.00359
45.85 -0.0036
45.9 -0.00323
45.95 -0.00264
46 -0.00133
46.05 -0.00113
46.1 -0.00038
46.15 0.00052
46.2 0.00141
46.25 0.0014
46.3 0.00149
46.35 0.00174
46.4 0.00206
46.45 0.00136
46.5 0.00126
46.55 0.00121
46.6 0.00129
46.65 0.00152
46.7 0.00178
46.75 0.00245
46.8 0.00297
46.85 0.00338
46.9 0.00392
46.95 0.0038
47 0.00345
47.05 0.00307
47.1 0.00318
47.15 0.00341
47.2 0.00353
47.25 0.00378
47.3 0.00276
47.35 0.00168
47.4 0.00076
47.45 -0.00067
47.5 -0.00167
47.55 -0.0015
47.6 -0.00095
47.65 -0.00142
47.7 -0.00197
47.75 -0.0019
47.8 -0.00162
47.85 -0.00172
47.9 -0.00215
47.95 -0.00286
48 -0.00284
48.05 -0.00327
48.1 -0.00258
48.15 -0.00139
48.2 -0.00022
48.25 -0.0001
48.3 0.00063
48.35 0.00128
48.4 0.00198
48.45 0.00269
48.5 0.00344
48.55 0.00389
48.6 0.00324
48.65 0.00246
48.7 0.00133
48.75 0.00031
48.8 -0.00119
48.85 -0.00217
48.9 -0.00224
48.95 -0.00184
49 -0.00218
49.05 -0.00285
49.1 -0.00272
49.15 -0.00219
49.2 -0.00225
49.25 -0.00239
49.3 -0.00234
49.35 -0.00283
49.4 -0.00223
49.45 -0.00247
49.5 -0.00248
49.55 -0.00238
49.6 -0.0019
49.65 -0.00193
49.7 -0.00233
49.75 -0.00214
49.8 -0.00263
49.85 -0.00225
49.9 -0.00158
49.95 -0.00108
50 -0.00024
50.05 -0.0005
50.1 -0.00144
50.15 -0.00261
50.2 -0.00297
50.25 -0.0033
50.3 -0.00359
50.35 -0.00365
50.4 -0.0029
50.45 -0.00174
50.5 -0.0007
50.55 -0.00071
50.6 -0.00009
50.65 -0.00047
50.7 -0.00076
50.75 -0.00118
50.8 -0.00202
50.85 -0.00181
50.9 -0.00203
50.95 -0.00143
51 -0.00153
51.05 -0.00205
51.1 -0.00185
51.15 -0.00131
51.2 -0.00154
51.25 -0.00104
51.3 -0.00134
51.35 -0.00172
51.4 -0.00238
51.45 -0.00262
51.5 -0.00207
51.55 -0.00101
51.6 -0.00101
51.65 -0.00019
51.7 -0.00029
51.75 -0.00054
51.8 -0.00028
51.85 -0.00059
51.9 -0.00035
51.95 -0.00069
52 -0.00056
52.05 -0.00084
52.1 -0.00117
52.15 -0.00075
52.2 -0.00028
52.25 -0.0001
52.3 0.00009
52.35 -0.00002
52.4 -0.00056
52.45 -0.00033
52.5 0.0004
52.55 0.0006
52.6 0.00079
52.65 0.0003
52.7 0.00023
52.75 -0.0003
52.8 -0.00107
52.85 -0.00091
52.9 -0.00122
52.95 -0.00076
53 -0.0008
53.05 -0.0015
53.1 -0.00249
53.15 -0.00338
53.2 -0.00327
53.25 -0.00234
53.3 -0.00144
53.35 0.00009
53.4 0.0017
53.45 0.00262
53.5 0.00287
53.55 0.00306
53.6 0.00266
53.65 0.00158
53.7 0.00073
53.75 0
53.8 -0.00092
53.85 -0.00214
53.9 -0.00204
53.95 -0.0022
54 -0.002
54.05 -0.00102
54.1 0.00021
54.15 0.00132
54.2 0.00125
54.25 0.00048
54.3 0.00059
54.35 0.00127
54.4 0.00089
54.45 0.00026
54.5 0.00004
54.55 -0.00003
54.6 0.00004
54.65 -0.00064
54.7 -0.0007
54.75 -0.00016
54.8 -0.00015
54.85 0.00043
54.9 0.00041
54.95 0.00013
55 0.00064
55.05 0.0004
55.1 -0.00043
55.15 -0.00025
55.2 -0.00084
55.25 -0.00069
55.3 -0.00118
55.35 -0.0017
55.4 -0.00118
55.45 -0.00036
55.5 0.00082
55.55 0.00193
55.6 0.00235
55.65 0.00185
55.7 0.00183
55.75 0.00209
55.8 0.00159
55.85 0.00091
55.9 0.00028
55.95 -0.00067
56 -0.00143
56.05 -0.00112
56.1 -0.00047
56.15 -0.00031
56.2 -0.00072
56.25 -0.00115
56.3 -0.00157
56.35 -0.0014
56.4 -0.00124
56.45 -0.00094
56.5 -0.00046
56.55 0.00057
56.6 0.00045
56.65 -0.00039
56.7 -0.00051
56.75 -0.00006
56.8 0.00002
56.85 0.00075
56.9 0.00117
56.95 0.00072
57 0.00057
57.05 0.00064
57.1 0.00064
57.15 0.00081
57.2 0.00016
57.25 0.00044
57.3 0.00041
57.35 0.00115
57.4 0.00208
57.45 0.00279
57.5 0.00308
57.55 0.00281
57.6 0.0031
57.65 0.00266
57.7 0.00151
57.75 0.00092
57.8 0.0009
57.85 0.00007
57.9 -0.00093
57.95 -0.00111
58 -0.00171
58.05 -0.00134
58.1 -0.00049
58.15 -0.00038
58.2 -0.00094
58.25 -0.00103
58.3 -0.00022
58.35 -0.00031
58.4 0.00042
58.45 0.00046
58.5 0.00079
58.55 0.00041
58.6 -0.00024
58.65 -0.00027
58.7 -0.00032
58.75 -0.0005
58.8 -0.00109
58.85 -0.00107
58.9 -0.00123
58.95 -0.00078
59 -0.0008
59.05 -0.00052
59.1 0.00046
59.15 0.00115
59.2 0.00101
59.25 0.00158
59.3 0.0024
59.35 0.00306
59.4 0.00271
59.45 0.0023
59.5 0.0019
59.55 0.00127
59.6 0.00027
59.65 -0.00109
59.7 -0.00195
59.75 -0.00264
59.8 -0.00362
59.85 -0.00482
59.9 -0.00483
59.95 -0.00438
60 -0.00509
60.05 -0.006
60.1 -0.00715
60.15 -0.00873
60.2 -0.00951
60.25 -0.01032
60.3 -0.01225
60.35 -0.01456
60.4 -0.01762
60.45 -0.02116
60.5 -0.02519
60.55 -0.02888
60.6 -0.0341
60.65 -0.04055
60.7 -0.04805
60.75 -0.05622
60.8 -0.06413
60.85 -0.07373
60.9 -0.08468
60.95 -0.09638
61 -0.10909
61.05 -0.1237
61.1 -0.13965
61.15 -0.15684
61.2 -0.17462
61.25 -0.19367
61.3 -0.21318
61.35 -0.23312
61.4 -0.2541
61.45 -0.27543
61.5 -0.29795
61.55 -0.32011
61.6 -0.34264
61.65 -0.36407
61.7 -0.38459
61.75 -0.4048
61.8 -0.42336
61.85 -0.44147
61.9 -0.45679
61.95 -0.46985
62 -0.48058
62.05 -0.48847
62.1 -0.49414
62.15 -0.49621
62.2 -0.49427
62.25 -0.48941
62.3 -0.48045
62.35 -0.469
62.4 -0.45383
62.45 -0.43591
62.5 -0.41528
62.55 -0.39096
62.6 -0.36459
62.65 -0.3361
62.7 -0.305
62.75 -0.27128
62.8 -0.23656
62.85 -0.2014
62.9 -0.16618
62.95 -0.13067
63 -0.09483
63.05 -0.05943
63.1 -0.02508
63.15 0.00748
63.2 0.03829
63.25 0.06852
63.3 0.09737
63.35 0.12381
63.4 0.14885
63.45 0.17287
63.5 0.19517
63.55 0.21552
63.6 0.23422
63.65 0.25142
63.7 0.26642
63.75 0.27949
63.8 0.29194
63.85 0.30372
63.9 0.31425
63.95 0.32391
64 0.33278
64.05 0.34199
64.1 0.35033
64.15 0.35784
64.2 0.36461
64.25 0.3717
64.3 0.3773
64.35 0.38328
64.4 0.38854
64.45 0.39357
64.5 0.3974
64.55 0.40025
64.6 0.40303
64.65 0.4052
64.7 0.40632
64.75 0.40593
64.8 0.40488
64.85 0.40286
64.9 0.39992
64.95 0.39616
65 0.39128
65.05 0.38615
65.1 0.38084
65.15 0.37528
65.2 0.36875
65.25 0.36117
65.3 0.35381
65.35 0.34546
65.4 0.3374
65.45 0.32847
65.5 0.31954
65.55 0.31055
65.6 0.3012
65.65 0.29191
65.7 0.28297
65.75 0.274
65.8 0.26523
65.85 0.25628
65.9 0.24709
65.95 0.23688
66 0.22563
66.05 0.21406
66.1 0.20383
66.15 0.19398
66.2 0.18493
66.25 0.17575
66.3 0.16609
66.35 0.15698
66.4 0.14852
66.45 0.13986
66.5 0.1319
66.55 0.12347
66.6 0.1158
66.65 0.10864
66.7 0.10074
66.75 0.09256
66.8 0.08455
66.85 0.07675
66.9 0.06921
66.95 0.06255
67 0.05599
67.05 0.04982
67.1 0.04477
67.15 0.03908
67.2 0.03412
67.25 0.02972
67.3 0.02465
67.35 0.01952
67.4 0.01489
67.45 0.01016
67.5 0.00525
67.55 0.00116
67.6 -0.00295
67.65 -0.00605
67.7 -0.00986
67.75 -0.01363
67.8 -0.01706
67.85 -0.02006
67.9 -0.02338
67.95 -0.02604
68 -0.02919
68.05 -0.03171
68.1 -0.03354
68.15 -0.03513
68.2 -0.03723
68.25 -0.03958
68.3 -0.04208
68.35 -0.04419
68.4 -0.04587
68.45 -0.04789
68.5 -0.05037
68.55 -0.05302
68.6 -0.05421
68.65 -0.05493
68.7 -0.05568
68.75 -0.0559
68.8 -0.0556
68.85 -0.05595
68.9 -0.05597
68.95 -0.05636
69 -0.05752
69.05 -0.05887
69.1 -0.0606
69.15 -0.06148
69.2 -0.06224
69.25 -0.06305
69.3 -0.06259
69.35 -0.06221
69.4 -0.0622
69.45 -0.06143
69.5 -0.06048
69.55 -0.0603
69.6 -0.0595
69.65 -0.05837
69.7 -0.05756
69.75 -0.05649
69.8 -0.05562
69.85 -0.05534
69.9 -0.05504
69.95 -0.05516
70 -0.05519
70.05 -0.05531
70.1 -0.05561
70.15 -0.0564
70.2 -0.05667
70.25 -0.05616
70.3 -0.05511
70.35 -0.05415
70.4 -0.05322
70.45 -0.05234
70.5 -0.05198
70.55 -0.05202
70.6 -0.05226
70.65 -0.05239
70.7 -0.05224
70.75 -0.05178
70.8 -0.05179
70.85 -0.05098
70.9 -0.05025
70.95 -0.04905
71 -0.04781
71.05 -0.04685
71.1 -0.04646
71.15 -0.04506
71.2 -0.04337
71.25 -0.04233
71.3 -0.04086
71.35 -0.03914
71.4 -0.03763
71.45 -0.03703
71.5 -0.03684
71.55 -0.03652
71.6 -0.0364
71.65 -0.03629
71.7 -0.03584
71.75 -0.03613
71.8 -0.03545
71.85 -0.03426
71.9 -0.03338
71.95 -0.03222
72 -0.03221
72.05 -0.03229
72.1 -0.03269
72.15 -0.03275
72.2 -0.0319
72.25 -0.03121
72.3 -0.0308
72.35 -0.02993
72.4 -0.02982
72.45 -0.02896
72.5 -0.02795
72.55 -0.02707
72.6 -0.0272
72.65 -0.02707
72.7 -0.02739
72.75 -0.02723
72.8 -0.02695
72.85 -0.02667
72.9 -0.02651
72.95 -0.02681
73 -0.02734
73.05 -0.02765
73.1 -0.02679
73.15 -0.0262
73.2 -0.02537
73.25 -0.02494
73.3 -0.02429
73.35 -0.02385
73.4 -0.02406
73.45 -0.02382
73.5 -0.02401
73.55 -0.02384
73.6 -0.02278
73.65 -0.02148
73.7 -0.02005
73.75 -0.01938
73.8 -0.01845
73.85 -0.01843
73.9 -0.01855
73.95 -0.01851
74 -0.01803
74.05 -0.01716
74.1 -0.01614
74.15 -0.01592
74.2 -0.01507
74.25 -0.01398
74.3 -0.01422
74.35 -0.01525
74.4 -0.01669
74.45 -0.0171
74.5 -0.01696
74.55 -0.0161
74.6 -0.01558
74.65 -0.01473
74.7 -0.01354
74.75 -0.01268
74.8 -0.01167
74.85 -0.01084
74.9 -0.01042
74.95 -0.01057
75 -0.01072
75.05 -0.0116
75.1 -0.01154
75.15 -0.01209
75.2 -0.01269
75.25 -0.01317
75.3 -0.01314
75.35 -0.01325
75.4 -0.01258
75.45 -0.01273
75.5 -0.01268
75.55 -0.01252
75.6 -0.01308
75.65 -0.01258
75.7 -0.0115
75.75 -0.01033
75.8 -0.00961
75.85 -0.00905
75.9 -0.00953
75.95 -0.00935
76 -0.00987
76.05 -0.01094
76.1 -0.01173
76.15 -0.01177
76.2 -0.01205
76.25 -0.01244
76.3 -0.01198
76.35 -0.01156
76.4 -0.01077
76.45 -0.01074
76.5 -0.01089
76.55 -0.01136
76.6 -0.01194
76.65 -0.01253
76.7 -0.01217
76.75 -0.01167
76.8 -0.01155
76.85 -0.01044
76.9 -0.00906
76.95 -0.0076
77 -0.00683
77.05 -0.00559
77.1 -0.00554
77.15 -0.00638
77.2 -0.00713
77.25 -0.00753
77.3 -0.00736
77.35 -0.00704
77.4 -0.00692
77.45 -0.00601
77.5 -0.00512
77.55 -0.00408
77.6 -0.00332
77.65 -0.00343
77.7 -0.0042
77.75 -0.00443
77.8 -0.00541
77.85 -0.00679
77.9 -0.00716
77.95 -0.00735
78 -0.00759
78.05 -0.00781
78.1 -0.0084
78.15 -0.00902
78.2 -0.00851
78.25 -0.00772
78.3 -0.00761
78.35 -0.00664
78.4 -0.00554
78.45 -0.0052
78.5 -0.00413
78.55 -0.00331
78.6 -0.00318
78.65 -0.00374
78.7 -0.00349
78.75 -0.00402
78.8 -0.00499
78.85 -0.0056
78.9 -0.00551
78.95 -0.00587
79 -0.00586
79.05 -0.00628
79.1 -0.00685
79.15 -0.00742
79.2 -0.00754
79.25 -0.00754
79.3 -0.0071
79.35 -0.00624
79.4 -0.00461
79.45 -0.00396
79.5 -0.00311
79.55 -0.00322
79.6 -0.00346
79.65 -0.00301
79.7 -0.00271
79.75 -0.00279
79.8 -0.00257
79.85 -0.00244
79.9 -0.00251
79.95 -0.0025
80 -0.00313
80.05 -0.00369
80.1 -0.00463
80.15 -0.00515
80.2 -0.00549
80.25 -0.00594
80.3 -0.00516
80.35 -0.00454
80.4 -0.00393
80.45 -0.00318
80.5 -0.00331
80.55 -0.00394
80.6 -0.00406
80.65 -0.00441
80.7 -0.00476
80.75 -0.00416
80.8 -0.00301
80.85 -0.00264
80.9 -0.00183
80.95 -0.00152
81 -0.0006
81.05 -0.00045
81.1 -0.0004
81.15 0.00028
81.2 0.0005
81.25 0.00032
81.3 0.00015
81.35 -0.0003
81.4 -0.00032
81.45 0.00003
81.5 -0.0005
81.55 -0.00076
81.6 -0.00147
81.65 -0.00221
81.7 -0.00328
81.75 -0.00321
81.8 -0.00327
81.85 -0.00306
81.9 -0.00295
81.95 -0.00325
82 -0.00352
82.05 -0.00352
82.1 -0.0032
82.15 -0.00273
82.2 -0.00146
82.25 0.00009
82.3 0.00143
82.35 0.00212
82.4 0.00225
82.45 0.00174
82.5 0.00134
82.55 0.00062
82.6 0.00043
82.65 0.00073
82.7 0.00088
82.75 0.00073
82.8 0.00021
82.85 -0.00051
82.9 -0.001
82.95 -0.00201
83 -0.00173
83.05 -0.00166
83.1 -0.00141
83.15 -0.00169
83.2 -0.00136
83.25 -0.00049
83.3 0.00023
83.35 0.00041
83.4 0.0002
83.45 -0.00006
83.5 -0.0002
83.55 -0.00055
83.6 -0.00103
83.65 -0.00079
83.7 -0.00119
83.75 -0.00069
83.8 -0.00027
83.85 -0.00033
83.9 0.00007
83.95 0.00052
84 0.00147
84.05 0.00131
84.1 0.00108
84.15 0.0001
84.2 0.00014
84.25 0.00067
84.3 0.00104
84.35 0.00119
84.4 0.0019
84.45 0.00281
84.5 0.00352
84.55 0.00342
84.6 0.00266
84.65 0.00205
84.7 0.00124
84.75 0.00125
84.8 0.00066
84.85 -0.00062
84.9 -0.00217
84.95 -0.00319
85 -0.00299
85.05 -0.00326
85.1 -0.00312
85.15 -0.00313
85.2 -0.00338
85.25 -0.00262
85.3 -0.00225
85.35 -0.0014
85.4 -0.00074
85.45 -0.00017
85.5 0.00031
85.55 0.00092
85.6 0.0011
85.65 0.00061
85.7 -0.00052
85.75 -0.00078
85.8 -0.00072
85.85 -0.00054
85.9 -0.00008
85.95 -0.00057
86 -0.00116
86.05 -0.00187
86.1 -0.00271
86.15 -0.00357
86.2 -0.0044
86.25 -0.00431
86.3 -0.00391
86.35 -0.0028
86.4 -0.00207
86.45 -0.0018
86.5 -0.00081
86.55 0.00019
86.6 0.00055
86.65 0.00009
86.7 0.00041
86.75 0.00028
86.8 0.00043
86.85 0.001
86.9 0.00055
86.95 0.0008
87 0.0012
87.05 0.00124
87.1 0.0012
87.15 0.0016
87.2 0.00193
87.25 0.00131
87.3 0.00086
87.35 0.0003
87.4 -0.00031
87.45 -0.00067
87.5 -0.00052
87.55 0.00004
87.6 0.00071
87.65 0.00178
87.7 0.00204
87.75 0.00236
87.8 0.00241
87.85 0.00238
87.9 0.00288
87.95 0.0029
88 0.00245
88.05 0.00207
88.1 0.00215
88.15 0.00249
88.2 0.00264
88.25 0.00309
88.3 0.00267
88.35 0.00249
88.4 0.00254
88.45 0.00286
88.5 0.00319
88.55 0.00316
88.6 0.0025
88.65 0.00179
88.7 0.00081
88.75 -0.00008
88.8 -0.00028
88.85 0.00005
88.9 0.00066
88.95 0.00106
89 0.0015
89.05 0.00191
89.1 0.00204
89.15 0.00172
89.2 0.00064
89.25 -0.00013
89.3 -0.00084
89.35 -0.00059
89.4 -0.00074
89.45 -0.00112
89.5 -0.00096
89.55 -0.00087
89.6 -0.00128
89.65 -0.00183
89.7 -0.0023
89.75 -0.00313
89.8 -0.00382
89.85 -0.00479
89.9 -0.00451
89.95 -0.00458
90 -0.00403
90.05 -0.0034
90.1 -0.00221
90.15 -0.0012
90.2 -0.00072
90.25 -0.00109
90.3 -0.00138
90.35 -0.0016
90.4 -0.00175
90.45 -0.0016
90.5 -0.00128
90.55 -0.00092
90.6 -0.00023
90.65 -0
90.7 -0.0002
90.75 -0.00096
90.8 -0.00176
90.85 -0.00179
90.9 -0.00243
90.95 -0.00251
91 -0.00273
91.05 -0.00341
91.1 -0.00302
91.15 -0.00307
91.2 -0.00339
91.25 -0.00355
91.3 -0.00342
91.35 -0.00292
91.4 -0.00216
91.45 -0.00227
91.5 -0.00175
91.55 -0.00061
91.6 -0.00003
91.65 0.00029
91.7 -0.0003
91.75 -0.00014
91.8 -0.00062
91.85 -0.00151
91.9 -0.0012
91.95 -0.00087
92 -0.00014
92.05 0.00038
92.1 0.00068
92.15 0.00067
92.2 0.00126
92.25 0.0016
92.3 0.00242
92.35 0.00321
92.4 0.00306
92.45 0.00234
92.5 0.00166
92.55 0.00147
92.6 0.0006
92.65 0.00027
92.7 0.00021
92.75 0.00002
92.8 0
92.85 0.00057
92.9 0.00123
92.95 0.00155
93 0.00109
93.05 0.00141
93.1 0.00157
93.15 0.00202
93.2 0.00276
93.25 0.00372
93.3 0.00353
93.35 0.00307
93.4 0.00314
93.45 0.0026
93.5 0.00198
93.55 0.00158
93.6 0.00182
93.65 0.00234
93.7 0.00198
93.75 0.00118
93.8 0.00127
93.85 0.00069
93.9 0.00085
93.95 0.00072
94 -0.00002
94.05 -0.0001
94.1 -0.00068
94.15 -0.0009
94.2 -0.00024
94.25 0.00088
94.3 0.00134
94.35 0.00219
94.4 0.00173
94.45 0.00177
94.5 0.00147
94.55 0.00153
94.6 0.00129
94.65 0.00025
94.7 -0.00075
94.75 -0.00192
94.8 -0.00227
94.85 -0.00261
94.9 -0.00224
94.95 -0.00176
95 -0.00191
95.05 -0.00127
95.1 -0.00104
95.15 -0.00029
95.2 0.00046
95.25 0.00067
95.3 0.00121
95.35 0.00149
95.4 0.00172
95.45 0.00173
95.5 0.00145
95.55 0.00142
95.6 0.00063
95.65 0.00079
95.7 0.00066
95.75 0.00051
95.8 -0.00023
95.85 -0.0009
95.9 -0.00135
95.95 -0.0012
96 -0.00094
96.05 -0.00126
96.1 -0.00159
96.15 -0.00121
96.2 -0.00031
96.25 0.00043
96.3 0.00127
96.35 0.00241
96.4 0.0023
96.45 0.00251
96.5 0.00258
96.55 0.0022
96.6 0.0019
96.65 0.00071
96.7 -0.00075
96.75 -0.00175
96.8 -0.00229
96.85 -0.00176
96.9 -0.00144
96.95 -0.00151
97 -0.0008
97.05 -0.00033
97.1 0.00001
97.15 0.00069
97.2 0.00114
97.25 0.00074
97.3 -0.00007
97.35 -0.00088
97.4 -0.00088
97.45 -0.00071
97.5 0.00008
97.55 0.00068
97.6 0.00064
97.65 0.00127
97.7 0.0011
97.75 0.00116
97.8 0.00037
97.85 -0.00073
97.9 -0.00116
97.95 -0.00145
98 -0.00143
98.05 -0.00111
98.1 -0.00014
98.15 0.00061
98.2 0.00172
98.25 0.00281
98.3 0.00308
98.35 0.00227
98.4 0.00164
98.45 0.00106
98.5 -0.00013
98.55 -0.0003
98.6 -0.0011
98.65 -0.00148
98.7 -0.00102
98.75 -0.00042
98.8 0.00035
98.85 0.00123
98.9 0.00175
98.95 0.00227
99 0.00199
99.05 0.00222
99.1 0.00169
99.15 0.00072
99.2 -0.00055
99.25 -0.00064
99.3 0.00005
99.35 0.00035
99.4 -0.00008
99.45 0.00022
99.5 0.00019
99.55 0.00051
99.6 0.00033
99.65 -0.00018
99.7 0.0002
99.75 -0.00012
99.8 -0.00032
99.85 0.0002
99.9 0.00078
99.95 0.00091
