0 0
0.05 0.00025
0.1 0.00062
0.15 0.00133
0.2 0.00215
0.25 0.00302
0.3 0.00349
0.35 0.00353
0.4 0.00382
0.45 0.00404
0.5 0.00393
0.55 0.00382
0.6 0.00356
0.65 0.00314
0.7 0.00282
0.75 0.00234
0.8 0.0023
0.85 0.00254
0.9 0.00244
0.95 0.00246
1 0.00247
1.05 0.00232
1.1 0.00252
1.15 0.00288
1.2 0.00326
1.25 0.00361
1.3 0.00393
1.35 0.00395
1.4 0.00361
1.45 0.00342
1.5 0.00331
1.55 0.00313
1.6 0.0032
1.65 0.00308
1.7 0.00269
1.75 0.00254
1.8 0.00215
1.85 0.00213
1.9 0.00207
1.95 0.00223
2 0.0021
2.05 0.00206
2.1 0.00224
2.15 0.00258
2.2 0.00284
2.25 0.00289
2.3 0.00296
2.35 0.00299
2.4 0.00262
2.45 0.00258
2.5 0.00222
2.55 0.0019
2.6 0.00181
2.65 0.00144
2.7 0.00148
2.75 0.00176
2.8 0.00173
2.85 0.00158
2.9 0.00138
2.95 0.00104
3 0.00107
3.05 0.00128
3.1 0.00163
3.15 0.00203
3.2 0.00244
3.25 0.00252
3.3 0.00261
3.35 0.00279
3.4 0.00268
3.45 0.00229
3.5 0.00221
3.55 0.00228
3.6 0.00246
3.65 0.00247
3.7 0.00226
3.75 0.00193
3.8 0.00172
3.85 0.00162
3.9 0.00127
3.95 0.00083
4 0.00069
4.05 0.00064
4.1 0.00083
4.15 0.00083
4.2 0.00077
4.25 0.00092
4.3 0.00112
4.35 0.00092
4.4 0.00085
4.45 0.00102
4.5 0.00103
4.55 0.0012
4.6 0.00115
4.65 0.00122
4.7 0.00131
4.75 0.00126
4.8 0.00128
4.85 0.00112
4.9 0.00119
4.95 0.001
5 0.00068
5.05 0.00015
5.1 0.00008
5.15 -0.00021
5.2 -0.00029
5.25 -0.00023
5.3 0.00001
5.35 -0.00002
5.4 0.00018
5.45 0.00045
5.5 0.00054
5.55 0.00087
5.6 0.00121
5.65 0.00107
5.7 0.00083
5.75 0.00036
5.8 -0.00021
5.85 -0.00037
5.9 -0.00066
5.95 -0.00064
6 -0.00069
6.05 -0.00064
6.1 -0.00078
6.15 -0.00058
6.2 -0.00028
6.25 -0.00022
6.3 -0.00006
6.35 0.00001
6.4 -0.00002
6.45 -0.00018
6.5 -0.00038
6.55 -0.00046
6.6 -0.00055
6.65 -0.00046
6.7 -0.00051
6.75 -0.00044
6.8 -0.00029
6.85 -0.00027
6.9 -0.00015
6.95 -0.00005
7 -0.00022
7.05 -0.00044
7.1 -0.00064
7.15 -0.00061
7.2 -0.00078
7.25 -0.00075
7.3 -0.00086
7.35 -0.0008
7.4 -0.00078
7.45 -0.0009
7.5 -0.00062
7.55 -0.00023
7.6 -0.00003
7.65 0.00004
7.7 -0.00009
7.75 -0.00032
7.8 -0.00034
7.85 -0.00008
7.9 0.00041
7.95 0.00101
8 0.00137
8.05 0.00145
8.1 0.0012
8.15 0.00103
8.2 0.00093
8.25 0.00075
8.3 0.00045
8.35 0.00014
8.4 -0.00007
8.45 -0.0003
8.5 -0.00042
8.55 -0.00073
8.6 -0.00098
8.65 -0.00109
8.7 -0.00101
8.75 -0.00114
8.8 -0.00101
8.85 -0.00064
8.9 -0.0002
8.95 -0.00001
9 -0.00013
9.05 -0.0001
9.1 -0.00007
9.15 0.00006
9.2 0.00027
9.25 0.00045
9.3 0.00042
9.35 0.0006
9.4 0.00083
9.45 0.00122
9.5 0.00141
9.55 0.00162
9.6 0.00161
9.65 0.00143
9.7 0.00112
9.75 0.00071
9.8 0.00028
9.85 0.00008
9.9 0.00017
9.95 0.00004
10 -0.00011
10.05 -0.00016
10.1 0.0001
10.15 0.00046
10.2 0.00053
10.25 0.00065
10.3 0.00049
10.35 0.00034
10.4 0.00049
10.45 0.00053
10.5 0.00071
10.55 0.00097
10.6 0.00098
10.65 0.00095
10.7 0.00093
10.75 0.00112
10.8 0.00135
10.85 0.00148
10.9 0.00154
10.95 0.00141
11 0.00146
11.05 0.00159
11.1 0.00138
11.15 0.00133
11.2 0.00104
11.25 0.00087
11.3 0.00091
11.35 0.0008
11.4 0.00062
11.45 0.00022
11.5 -0.00016
11.55 -0.00031
11.6 -0.00034
11.65 -0.00047
11.7 -0.00071
11.75 -0.00093
11.8 -0.00124
11.85 -0.00156
11.9 -0.00156
11.95 -0.00152
12 -0.0016
12.05 -0.00144
12.1 -0.00098
12.15 -0.00038
12.2 -0
12.25 0.0002
12.3 0.00056
12.35 0.00075
12.4 0.00064
12.45 0.00046
12.5 0.00008
12.55 -0.00015
12.6 -0.00029
12.65 -0.00031
12.7 -0.00036
12.75 -0.00038
12.8 -0.00058
12.85 -0.00075
12.9 -0.0009
12.95 -0.00076
13 -0.00067
13.05 -0.00045
13.1 -0.00005
13.15 0.00044
13.2 0.00053
13.25 0.00078
13.3 0.00061
13.35 0.00051
13.4 0.00037
13.45 0.00033
13.5 0.00041
13.55 0.00059
13.6 0.00058
13.65 0.00078
13.7 0.00112
13.75 0.00113
13.8 0.00081
13.85 0.00041
13.9 -0
13.95 -0.00007
14 -0.00017
14.05 -0.0005
14.1 -0.00046
14.15 -0.00013
14.2 0.00031
14.25 0.00031
14.3 0.00041
14.35 0.00069
14.4 0.00094
14.45 0.0011
14.5 0.00091
14.55 0.00067
14.6 0.00074
14.65 0.00098
14.7 0.00132
14.75 0.00159
14.8 0.00147
14.85 0.00114
14.9 0.00057
14.95 -0.00003
15 -0.00056
15.05 -0.00072
15.1 -0.00085
15.15 -0.00088
15.2 -0.00091
15.25 -0.00106
15.3 -0.00096
15.35 -0.00081
15.4 -0.00042
15.45 -0.00033
15.5 -0.00032
15.55 -0.00052
15.6 -0.00034
15.65 -0.00021
15.7 -0.00026
15.75 -0.00008
15.8 -0.00004
15.85 -0.00005
15.9 -0.0003
15.95 -0.00019
16 -0.00021
16.05 -0.00005
16.1 0.0001
16.15 -0.00005
16.2 -0.00026
16.25 -0.00032
16.3 -0.00028
16.35 -0.0002
16.4 -0.00037
16.45 -0.00063
16.5 -0.00075
16.55 -0.00063
16.6 -0.00023
16.65 0.00001
16.7 0.00039
16.75 0.00044
16.8 0.0006
16.85 0.00039
16.9 0.00036
16.95 0.00018
17 -0.00002
17.05 0.00008
17.1 -0.00008
17.15 -0.00041
17.2 -0.00066
17.25 -0.0009
17.3 -0.00115
17.35 -0.00147
17.4 -0.00158
17.45 -0.00157
17.5 -0.00153
17.55 -0.00146
17.6 -0.00102
17.65 -0.00043
17.7 -0.00009
17.75 -0.00002
17.8 0.00004
17.85 0.0001
17.9 -0.00015
17.95 -0.00046
18 -0.00041
18.05 -0.00052
18.1 -0.00054
18.15 -0.00078
18.2 -0.00092
18.25 -0.00096
18.3 -0.001
18.35 -0.00113
18.4 -0.00127
18.45 -0.00132
18.5 -0.00133
18.55 -0.00129
18.6 -0.00104
18.65 -0.00053
18.7 -0.00024
18.75 0.00002
18.8 -0
18.85 -0.00025
18.9 -0.00053
18.95 -0.00093
19 -0.00095
19.05 -0.00105
19.1 -0.00121
19.15 -0.00116
19.2 -0.00072
19.25 -0.00011
19.3 0.00007
19.35 0.00024
19.4 0.00009
19.45 0.00009
19.5 -0.00003
19.55 -0.00005
19.6 -0.00018
19.65 -0.00026
19.7 -0.00021
19.75 -0.00015
19.8 -0.00014
19.85 -0.0001
19.9 -0.00033
19.95 -0.00031
20 -0.00044
20.05 -0.00061
20.1 -0.00037
20.15 0.00009
20.2 0.00016
20.25 0.00034
20.3 0.00056
20.35 0.0008
20.4 0.00078
20.45 0.00048
20.5 0.00016
20.55 -0.00002
20.6 -0.00039
20.65 -0.00059
20.7 -0.0007
20.75 -0.00061
20.8 -0.00027
20.85 0.00001
20.9 0.00026
20.95 0.00066
21 0.00062
21.05 0.00055
21.1 0.00066
21.15 0.00065
21.2 0.00075
21.25 0.00062
21.3 0.0005
21.35 0.00051
21.4 0.00053
21.45 0.00024
21.5 0.00025
21.55 0.00011
21.6 0.00015
21.65 0.00027
21.7 0.00048
21.75 0.00071
21.8 0.00079
21.85 0.00054
21.9 0.00063
21.95 0.00044
22 0.00055
22.05 0.00043
22.1 0.00045
22.15 0.00017
22.2 0.00011
22.25 0.00019
22.3 0.00044
22.35 0.00033
22.4 0.00053
22.45 0.00052
22.5 0.00057
22.55 0.00037
22.6 0.0005
22.65 0.00057
22.7 0.00044
22.75 0.00007
22.8 -0.00001
22.85 -0.00026
22.9 -0.00057
22.95 -0.0009
23 -0.00122
23.05 -0.00149
23.1 -0.00176
23.15 -0.00159
23.2 -0.00116
23.25 -0.00081
23.3 -0.00055
23.35 -0.0001
23.4 -0.00002
23.45 0.00031
23.5 0.0007
23.55 0.00098
23.6 0.0011
23.65 0.00081
23.7 0.00038
23.75 -0.00004
23.8 -0.00045
23.85 -0.00052
23.9 -0.00037
23.95 -0.00013
24 -0.00015
24.05 -0.00025
24.1 0.00002
24.15 0.00031
24.2 0.00046
24.25 0.00054
24.3 0.00067
24.35 0.00091
24.4 0.00088
24.45 0.00063
24.5 0.00019
24.55 -0.00005
24.6 -0.00024
24.65 -0.00011
24.7 -0.00029
24.75 -0.00053
24.8 -0.00071
24.85 -0.00097
24.9 -0.0012
24.95 -0.00109
25 -0.00088
25.05 -0.00072
25.1 -0.00025
25.15 0.00027
25.2 0.00062
25.25 0.00061
25.3 0.00035
25.35 0.00024
25.4 -0.00008
25.45 -0.00029
25.5 -0.00011
25.55 0.00001
25.6 0.00035
25.65 0.00052
25.7 0.00057
25.75 0.00063
25.8 0.00067
25.85 0.0009
25.9 0.00109
25.95 0.00093
26 0.00089
26.05 0.00075
26.1 0.00067
26.15 0.00078
26.2 0.00099
26.25 0.00088
26.3 0.00071
26.35 0.0008
26.4 0.00065
26.45 0.00047
26.5 0.00028
26.55 -0.00016
26.6 -0.00054
26.65 -0.00056
26.7 -0.00043
26.75 -0.00036
26.8 -0.00031
26.85 -0.00003
26.9 0.00025
26.95 0.00028
27 0.00046
27.05 0.00075
27.1 0.00076
27.15 0.00058
27.2 0.00036
27.25 0.00034
27.3 0.00024
27.35 0.00029
27.4 0.0001
27.45 0.00018
27.5 0.00009
27.55 0.00004
27.6 0.00018
27.65 0.00027
27.7 0.00052
27.75 0.00037
27.8 -0.00002
27.85 -0.00043
27.9 -0.00049
27.95 -0.00078
28 -0.00071
28.05 -0.00047
28.1 -0.00017
28.15 -0.00021
28.2 -0.00011
28.25 -0.00013
28.3 -0.00006
28.35 -0.00021
28.4 -0.00002
28.45 -0.00005
28.5 -0.00035
28.55 -0.00053
28.6 -0.00066
28.65 -0.00074
28.7 -0.00101
28.75 -0.00119
28.8 -0.00136
28.85 -0.00138
28.9 -0.00128
28.95 -0.00107
29 -0.00082
29.05 -0.00073
29.1 -0.00052
29.15 -0.00053
29.2 -0.00073
29.25 -0.00104
29.3 -0.00094
29.35 -0.00054
29.4 -0.0001
29.45 0.00034
29.5 0.00032
29.55 0.00025
29.6 0.00012
29.65 0.00028
29.7 0.00016
29.75 0.00032
29.8 0.00032
29.85 0.00046
29.9 0.00059
29.95 0.00085
30 0.00082
30.05 0.00088
30.1 0.00058
30.15 0.00058
30.2 0.00066
30.25 0.00071
30.3 0.0007
30.35 0.00089
30.4 0.00112
30.45 0.00108
30.5 0.00098
30.55 0.00088
30.6 0.00059
30.65 0.0001
30.7 -0.00043
30.75 -0.0007
30.8 -0.00094
30.85 -0.001
30.9 -0.00108
30.95 -0.0012
31 -0.00101
31.05 -0.00085
31.1 -0.00077
31.15 -0.00066
31.2 -0.00024
31.25 0
31.3 -0.00008
31.35 -0.00007
31.4 0.00008
31.45 -0.00001
31.5 -0.00019
31.55 -0.00015
31.6 0.00017
31.65 0.00022
31.7 0.00012
31.75 -0.00005
31.8 -0.00009
31.85 -0.00011
31.9 -0.00006
31.95 0.00016
32 0.0005
32.05 0.00073
32.1 0.001
32.15 0.00117
32.2 0.00117
32.25 0.00079
32.3 0.00063
32.35 0.00044
32.4 0.00022
32.45 0.00028
32.5 0.00046
32.55 0.00071
32.6 0.00103
32.65 0.0011
32.7 0.00113
32.75 0.0011
32.8 0.00122
32.85 0.00123
32.9 0.00133
32.95 0.00141
33 0.00145
33.05 0.00137
33.1 0.00143
33.15 0.00147
33.2 0.00153
33.25 0.00118
33.3 0.00058
33.35 0.00025
33.4 0.00014
33.45 -0.00022
33.5 -0.00042
33.55 -0.00067
33.6 -0.00103
33.65 -0.00113
33.7 -0.00116
33.75 -0.00085
33.8 -0.00077
33.85 -0.00078
33.9 -0.00058
33.95 -0.00018
34 0.00003
34.05 0.0001
34.1 -0.00016
34.15 -0.00036
34.2 -0.00066
34.25 -0.00062
34.3 -0.00051
34.35 -0.00057
34.4 -0.00047
34.45 -0.00056
34.5 -0.00039
34.55 -0.00009
34.6 0.00029
34.65 0.00078
34.7 0.00122
34.75 0.00156
34.8 0.00135
34.85 0.00106
34.9 0.00094
34.95 0.00066
35 0.00021
35.05 -0.00021
35.1 -0.00023
35.15 -0.00052
35.2 -0.0008
35.25 -0.00105
35.3 -0.00139
35.35 -0.00129
35.4 -0.00142
35.45 -0.00115
35.5 -0.00092
35.55 -0.00099
35.6 -0.0007
35.65 -0.00038
35.7 -0.00041
35.75 -0.00039
35.8 -0.00056
35.85 -0.00051
35.9 -0.00035
35.95 -0.0004
36 -0.00022
36.05 -0.00019
36.1 -0.00004
36.15 0.00017
36.2 0.00027
36.25 0.00029
36.3 0.00055
36.35 0.00061
36.4 0.0006
36.45 0.00027
36.5 0.00016
36.55 -0.00014
36.6 -0.00021
36.65 0.00001
36.7 -0.00014
36.75 -0.00001
36.8 0.00006
36.85 0.00003
36.9 0.00027
36.95 0.00028
37 0.00051
37.05 0.00072
37.1 0.00068
37.15 0.00038
37.2 0.00017
37.25 0.0001
37.3 0.00002
37.35 -0.00023
37.4 -0.00015
37.45 -0.00027
37.5 -0.00028
37.55 -0.00048
37.6 -0.00044
37.65 -0.00045
37.7 -0.0006
37.75 -0.00048
37.8 -0.0005
37.85 -0.00021
37.9 -0.00014
37.95 -0.0003
38 -0.00064
38.05 -0.0006
38.1 -0.00042
38.15 -0.00012
38.2 0.00029
38.25 0.00074
38.3 0.00078
38.35 0.00099
38.4 0.00103
38.45 0.00083
38.5 0.00089
38.55 0.00074
38.6 0.00061
38.65 0.00025
38.7 -0.00004
38.75 -0.00039
38.8 -0.00054
38.85 -0.00063
38.9 -0.00094
38.95 -0.00104
39 -0.00088
39.05 -0.00048
39.1 -0.00037
39.15 -0.00047
39.2 -0.00028
39.25 -0.00019
39.3 0.00004
39.35 0.0004
39.4 0.00043
39.45 0.00038
39.5 0.00056
39.55 0.00053
39.6 0.00042
39.65 0.0003
39.7 0.00013
39.75 -0.00022
39.8 -0.00069
39.85 -0.00087
39.9 -0.0012
39.95 -0.00105
40 -0.00082
40.05 -0.00037
40.1 -0.0003
40.15 -0.00012
40.2 0.00004
40.25 -0.00006
40.3 -0.00041
40.35 -0.00043
40.4 -0.00047
40.45 -0.0002
40.5 -0.00023
40.55 -0.00024
40.6 -0.00013
40.65 0.00006
40.7 0.00046
40.75 0.00041
40.8 0.00058
40.85 0.0008
40.9 0.00101
40.95 0.0012
41 0.00111
41.05 0.001
41.1 0.00091
41.15 0.00081
41.2 0.0007
41.25 0.00042
41.3 0.00036
41.35 0.00047
41.4 0.00063
41.45 0.00051
41.5 0.00064
41.55 0.00085
41.6 0.00101
41.65 0.00121
41.7 0.00112
41.75 0.00068
41.8 0.00019
41.85 -0.00032
41.9 -0.00082
41.95 -0.00115
42 -0.00126
42.05 -0.00114
42.1 -0.00109
42.15 -0.00112
42.2 -0.00107
42.25 -0.001
42.3 -0.00081
42.35 -0.0008
42.4 -0.00066
42.45 -0.00038
42.5 -0.0001
42.55 0.00019
42.6 0.00014
42.65 -0.00007
42.7 0.00002
42.75 -0.00022
42.8 -0.00009
42.85 -0.00019
42.9 -0.00026
42.95 -0.00019
43 -0.00037
43.05 -0.00062
43.1 -0.00051
43.15 -0.00023
43.2 -0.00012
43.25 0.00018
43.3 0.00031
43.35 0.00014
43.4 0.00002
43.45 0.00007
43.5 -0.00002
43.55 -0.0002
43.6 -0.00044
43.65 -0.00062
43.7 -0.00098
43.75 -0.00097
43.8 -0.00115
43.85 -0.00135
43.9 -0.00153
43.95 -0.00152
44 -0.00133
44.05 -0.00094
44.1 -0.00049
44.15 -0.00011
44.2 -0.00007
44.25 0.00006
44.3 0.00034
44.35 0.00054
44.4 0.00054
44.45 0.0005
44.5 0.00014
44.55 -0.00029
44.6 -0.00027
44.65 0.00002
44.7 0.00022
44.75 0.0001
44.8 -0.00001
44.85 0.00008
44.9 -0.0001
44.95 -0.00032
45 -0.00017
45.05 -0.00005
45.1 -0.00019
45.15 -0.00027
45.2 -0.00034
45.25 -0.00047
45.3 -0.00057
45.35 -0.00045
45.4 -0.00028
45.45 0.00001
45.5 0.00049
45.55 0.00078
45.6 0.00085
45.65 0.00096
45.7 0.00111
45.75 0.00127
45.8 0.00134
45.85 0.0013
45.9 0.00106
45.95 0.00078
46 0.00073
46.05 0.00036
46.1 0.00013
46.15 0.00007
46.2 0.00012
46.25 0.00038
46.3 0.00043
46.35 0.00055
46.4 0.00076
46.45 0.00104
46.5 0.00115
46.55 0.00105
46.6 0.00071
46.65 0.00059
46.7 0.00046
46.75 0.00038
46.8 0.0003
46.85 0.00044
46.9 0.00075
46.95 0.00078
47 0.00074
47.05 0.00047
47.1 0.00006
47.15 -0.0004
47.2 -0.00041
47.25 -0.00042
47.3 -0.00049
47.35 -0.00041
47.4 -0.00023
47.45 -0.00006
47.5 0.00029
47.55 0.00018
47.6 0.00016
47.65 0.00009
47.7 0.00019
47.75 0.00022
47.8 0.00033
47.85 0.00011
47.9 -0.0001
47.95 -0.00008
48 -0.00015
48.05 -0.00006
48.1 -0.00024
48.15 -0.00029
48.2 -0.0001
48.25 -0.0002
48.3 -0.00041
48.35 -0.00042
48.4 -0.00065
48.45 -0.00048
48.5 -0.00022
48.55 -0.00021
48.6 -0.00023
48.65 -0.00001
48.7 -0.00001
48.75 -0.00006
48.8 -0.0003
48.85 -0.00034
48.9 -0.00011
48.95 -0.00003
49 -0.00001
49.05 -0.00017
49.1 -0.00018
49.15 -0.00002
49.2 -0.00019
49.25 -0.00054
49.3 -0.00101
49.35 -0.00125
49.4 -0.00154
49.45 -0.00184
49.5 -0.00214
49.55 -0.00215
49.6 -0.00214
49.65 -0.00212
49.7 -0.002
49.75 -0.00159
49.8 -0.00142
49.85 -0.00146
49.9 -0.00154
49.95 -0.00138
50 -0.00144
50.05 -0.00108
50.1 -0.00089
50.15 -0.00082
50.2 -0.00081
50.25 -0.00077
50.3 -0.0007
50.35 -0.00029
50.4 0.00012
50.45 0.00066
50.5 0.00096
50.55 0.0011
50.6 0.00124
50.65 0.00123
50.7 0.00115
50.75 0.0012
50.8 0.00124
50.85 0.00117
50.9 0.00103
50.95 0.00084
51 0.00051
51.05 0.00025
51.1 0.00027
51.15 0.00014
51.2 -0.00011
51.25 -0.00032
51.3 -0.00071
51.35 -0.00112
51.4 -0.00104
51.45 -0.00104
51.5 -0.00097
51.55 -0.00101
51.6 -0.00087
51.65 -0.00088
51.7 -0.00088
51.75 -0.00103
51.8 -0.00085
51.85 -0.00082
51.9 -0.00098
51.95 -0.00126
52 -0.00143
52.05 -0.00111
52.1 -0.00079
52.15 -0.00059
52.2 -0.00035
52.25 -0.0002
52.3 -0.00004
52.35 -0.00014
52.4 -0.00001
52.45 0.0003
52.5 0.00038
52.55 0.00042
52.6 0.00024
52.65 0.00004
52.7 0.00021
52.75 0.00009
52.8 0.00017
52.85 0.00014
52.9 0.00019
52.95 0.00031
53 0.00041
53.05 0.00066
53.1 0.00068
53.15 0.00048
53.2 0.00033
53.25 -0.00005
53.3 -0.00011
53.35 0.00001
53.4 -0.00008
53.45 -0.00024
53.5 -0.00016
53.55 -0.00027
53.6 -0.00001
53.65 0.00006
53.7 0.00032
53.75 0.00032
53.8 0.00036
53.85 0.00025
53.9 -0.00006
53.95 -0.00018
54 -0
54.05 0.00001
54.1 0.00021
54.15 0.0006
54.2 0.00091
54.25 0.00124
54.3 0.00155
54.35 0.00139
54.4 0.00126
54.45 0.00104
54.5 0.00067
54.55 0.00035
54.6 -0.00005
54.65 -0.00052
54.7 -0.00054
54.75 -0.00031
54.8 -0.00038
54.85 -0.00041
54.9 -0.00056
54.95 -0.00075
55 -0.00092
55.05 -0.00074
55.1 -0.0005
55.15 -0.00014
55.2 0.00026
55.25 0.00025
55.3 -0.00001
55.35 -0.00023
55.4 -0.00007
55.45 0.00012
55.5 0.0001
55.55 0.00036
55.6 0.00026
55.65 0.00012
55.7 -0.00006
55.75 0.00012
55.8 -0.00005
55.85 -0.00004
55.9 0.00012
55.95 0.00014
56 0.00014
56.05 0.00032
56.1 0.00027
56.15 0.00048
56.2 0.00072
56.25 0.00064
56.3 0.00034
56.35 0.00011
56.4 0.00018
56.45 0.00032
56.5 0.00044
56.55 0.00074
56.6 0.00093
56.65 0.00112
56.7 0.00109
56.75 0.00089
56.8 0.00064
56.85 0.00067
56.9 0.00054
56.95 0.00039
57 0.00005
57.05 0.0001
57.1 0.00016
57.15 0.00003
57.2 0.00007
57.25 -0.00009
57.3 -0.00042
57.35 -0.00081
57.4 -0.00082
57.45 -0.00054
57.5 -0.00004
57.55 0.00013
57.6 0.00002
57.65 0.00017
57.7 0.0004
57.75 0.00036
57.8 0.00007
57.85 -0.00025
57.9 -0.00051
57.95 -0.00065
58 -0.00074
58.05 -0.0009
58.1 -0.00103
58.15 -0.00103
58.2 -0.00101
58.25 -0.00103
58.3 -0.00123
58.35 -0.00171
58.4 -0.00214
58.45 -0.00263
58.5 -0.00317
58.55 -0.0042
58.6 -0.00524
58.65 -0.00664
58.7 -0.00829
58.75 -0.01015
58.8 -0.01215
58.85 -0.01418
58.9 -0.01646
58.95 -0.01877
59 -0.02098
59.05 -0.02335
59.1 -0.02642
59.15 -0.02987
59.2 -0.03381
59.25 -0.03815
59.3 -0.04277
59.35 -0.04811
59.4 -0.05383
59.45 -0.06025
59.5 -0.06718
59.55 -0.07412
59.6 -0.08107
59.65 -0.08825
59.7 -0.09592
59.75 -0.10362
59.8 -0.1116
59.85 -0.11981
59.9 -0.12772
59.95 -0.13568
60 -0.14296
60.05 -0.14979
60.1 -0.15595
60.15 -0.16134
60.2 -0.1659
60.25 -0.16969
60.3 -0.17262
60.35 -0.17447
60.4 -0.1754
60.45 -0.17532
60.5 -0.17382
60.55 -0.17101
60.6 -0.16736
60.65 -0.16249
60.7 -0.15644
60.75 -0.14949
60.8 -0.14175
60.85 -0.13318
60.9 -0.12371
60.95 -0.11312
61 -0.1021
61.05 -0.09036
61.1 -0.07867
61.15 -0.0669
61.2 -0.05532
61.25 -0.04401
61.3 -0.03277
61.35 -0.02145
61.4 -0.01032
61.45 0.00045
61.5 0.01039
61.55 0.02011
61.6 0.02935
61.65 0.03764
61.7 0.04534
61.75 0.05246
61.8 0.05926
61.85 0.06586
61.9 0.07239
61.95 0.07826
62 0.08364
62.05 0.08886
62.1 0.09424
62.15 0.09971
62.2 0.10485
62.25 0.10969
62.3 0.11436
62.35 0.11878
62.4 0.12297
62.45 0.12747
62.5 0.13203
62.55 0.13648
62.6 0.1406
62.65 0.1443
62.7 0.14774
62.75 0.15065
62.8 0.15325
62.85 0.15557
62.9 0.15762
62.95 0.15927
63 0.16081
63.05 0.16189
63.1 0.16255
63.15 0.16289
63.2 0.16294
63.25 0.16261
63.3 0.16217
63.35 0.1614
63.4 0.16006
63.45 0.15854
63.5 0.15631
63.55 0.15396
63.6 0.15112
63.65 0.14826
63.7 0.14494
63.75 0.14128
63.8 0.13761
63.85 0.13347
63.9 0.12901
63.95 0.12446
64 0.11975
64.05 0.11474
64.1 0.11
64.15 0.10499
64.2 0.09992
64.25 0.09494
64.3 0.08989
64.35 0.08502
64.4 0.08
64.45 0.0751
64.5 0.07035
64.55 0.06525
64.6 0.06043
64.65 0.05527
64.7 0.05043
64.75 0.04572
64.8 0.04112
64.85 0.03639
64.9 0.03175
64.95 0.02769
65 0.02366
65.05 0.0197
65.1 0.01602
65.15 0.01286
65.2 0.00981
65.25 0.00663
65.3 0.00375
65.35 0.00117
65.4 -0.00099
65.45 -0.00314
65.5 -0.00502
65.55 -0.00681
65.6 -0.00885
65.65 -0.01088
65.7 -0.01274
65.75 -0.01464
65.8 -0.01606
65.85 -0.01735
65.9 -0.01867
65.95 -0.01944
66 -0.02016
66.05 -0.02087
66.1 -0.02127
66.15 -0.02183
66.2 -0.02254
66.25 -0.023
66.3 -0.02336
66.35 -0.02351
66.4 -0.02372
66.45 -0.0239
66.5 -0.02374
66.55 -0.02352
66.6 -0.02341
66.65 -0.02336
66.7 -0.02345
66.75 -0.02369
66.8 -0.02403
66.85 -0.02388
66.9 -0.02372
66.95 -0.02372
67 -0.02348
67.05 -0.02316
67.1 -0.02297
67.15 -0.02291
67.2 -0.02257
67.25 -0.02211
67.3 -0.02191
67.35 -0.02143
67.4 -0.02123
67.45 -0.02079
67.5 -0.02018
67.55 -0.0197
67.6 -0.01968
67.65 -0.01953
67.7 -0.0193
67.75 -0.01916
67.8 -0.01916
67.85 -0.01899
67.9 -0.01902
67.95 -0.01882
68 -0.0186
68.05 -0.01856
68.1 -0.01862
68.15 -0.01847
68.2 -0.01843
68.25 -0.01828
68.3 -0.01807
68.35 -0.01768
68.4 -0.01719
68.45 -0.01711
68.5 -0.01712
68.55 -0.01708
68.6 -0.01728
68.65 -0.01719
68.7 -0.01684
68.75 -0.01651
68.8 -0.01602
68.85 -0.01589
68.9 -0.01599
68.95 -0.01613
69 -0.01608
69.05 -0.01601
69.1 -0.01571
69.15 -0.01535
69.2 -0.01527
69.25 -0.01543
69.3 -0.01574
69.35 -0.01596
69.4 -0.0162
69.45 -0.01612
69.5 -0.01569
69.55 -0.01495
69.6 -0.01433
69.65 -0.0139
69.7 -0.01374
69.75 -0.01356
69.8 -0.01346
69.85 -0.01356
69.9 -0.01348
69.95 -0.01325
70 -0.01318
70.05 -0.01285
70.1 -0.0126
70.15 -0.01262
70.2 -0.01255
70.25 -0.01265
70.3 -0.01247
70.35 -0.01217
70.4 -0.01206
70.45 -0.01192
70.5 -0.01164
70.55 -0.01135
70.6 -0.0113
70.65 -0.01138
70.7 -0.01137
70.75 -0.01127
70.8 -0.01077
70.85 -0.01015
70.9 -0.00963
70.95 -0.00909
71 -0.00846
71.05 -0.00781
71.1 -0.0076
71.15 -0.00759
71.2 -0.00747
71.25 -0.00752
71.3 -0.00742
71.35 -0.00727
71.4 -0.00705
71.45 -0.00668
71.5 -0.00677
71.55 -0.00671
71.6 -0.00683
71.65 -0.00687
71.7 -0.00719
71.75 -0.00735
71.8 -0.00767
71.85 -0.00755
71.9 -0.00718
71.95 -0.00719
72 -0.00743
72.05 -0.00737
72.1 -0.0074
72.15 -0.00742
72.2 -0.00758
72.25 -0.00739
72.3 -0.00739
72.35 -0.00722
72.4 -0.00711
72.45 -0.0067
72.5 -0.00608
72.55 -0.00584
72.6 -0.00561
72.65 -0.00527
72.7 -0.00496
72.75 -0.0049
72.8 -0.00489
72.85 -0.00503
72.9 -0.00517
72.95 -0.00511
73 -0.00512
73.05 -0.00527
73.1 -0.00511
73.15 -0.00473
73.2 -0.00427
73.25 -0.00408
73.3 -0.00396
73.35 -0.00383
73.4 -0.0037
73.45 -0.00338
73.5 -0.00338
73.55 -0.00315
73.6 -0.00334
73.65 -0.00331
73.7 -0.00346
73.75 -0.0035
73.8 -0.00358
73.85 -0.00358
73.9 -0.00379
73.95 -0.00406
74 -0.00399
74.05 -0.00382
74.1 -0.00376
74.15 -0.00385
74.2 -0.00413
74.25 -0.00405
74.3 -0.00374
74.35 -0.00376
74.4 -0.00368
74.45 -0.00337
74.5 -0.00325
74.55 -0.00301
74.6 -0.00302
74.65 -0.00286
74.7 -0.00273
74.75 -0.00279
74.8 -0.00296
74.85 -0.00323
74.9 -0.00356
74.95 -0.00377
75 -0.00352
75.05 -0.0035
75.1 -0.00355
75.15 -0.00349
75.2 -0.00309
75.25 -0.00258
75.3 -0.00238
75.35 -0.00241
75.4 -0.00262
75.45 -0.00243
75.5 -0.00231
75.55 -0.00242
75.6 -0.00229
75.65 -0.00242
75.7 -0.00224
75.75 -0.00211
75.8 -0.00215
75.85 -0.00199
75.9 -0.00213
75.95 -0.00221
76 -0.00197
76.05 -0.00154
76.1 -0.00113
76.15 -0.00065
76.2 -0.00039
76.25 -0.00057
76.3 -0.0007
76.35 -0.00077
76.4 -0.00095
76.45 -0.00085
76.5 -0.00111
76.55 -0.00135
76.6 -0.00137
76.65 -0.00135
76.7 -0.00136
76.75 -0.00142
76.8 -0.00163
76.85 -0.00148
76.9 -0.00159
76.95 -0.00178
77 -0.00194
77.05 -0.00214
77.1 -0.00248
77.15 -0.00252
77.2 -0.00238
77.25 -0.00232
77.3 -0.00192
77.35 -0.00163
77.4 -0.00144
77.45 -0.0012
77.5 -0.00097
77.55 -0.00071
77.6 -0.00069
77.65 -0.00064
77.7 -0.00067
77.75 -0.00071
77.8 -0.00075
77.85 -0.00108
77.9 -0.00141
77.95 -0.00146
78 -0.00137
78.05 -0.001
78.1 -0.00065
78.15 -0.00019
78.2 0.00011
78.25 0.00045
78.3 0.00078
78.35 0.00067
78.4 0.00056
78.45 0.0005
78.5 0.0006
78.55 0.00052
78.6 0.00011
78.65 -0.00019
78.7 -0.00043
78.75 -0.00035
78.8 -0.0006
78.85 -0.00094
78.9 -0.00136
78.95 -0.00164
79 -0.00162
79.05 -0.00151
79.1 -0.00129
79.15 -0.00124
79.2 -0.00109
79.25 -0.0008
79.3 -0.00045
79.35 -0.00055
79.4 -0.00091
79.45 -0.00125
79.5 -0.00131
79.55 -0.00121
79.6 -0.00098
79.65 -0.00071
79.7 -0.00032
79.75 -0.00003
79.8 0.00011
79.85 -0.00003
79.9 -0.00035
79.95 -0.00081
80 -0.00101
80.05 -0.00083
80.1 -0.00083
80.15 -0.00063
80.2 -0.00048
80.25 -0.00065
80.3 -0.0009
80.35 -0.00091
80.4 -0.00082
80.45 -0.00052
80.5 -0.0005
80.55 -0.00024
80.6 -0.0002
80.65 -0.00022
80.7 -0.00026
80.75 -0.00056
80.8 -0.00048
80.85 -0.00073
80.9 -0.00106
80.95 -0.00151
81 -0.00192
81.05 -0.00211
81.1 -0.00211
81.15 -0.00197
81.2 -0.00168
81.25 -0.00166
81.3 -0.0015
81.35 -0.00138
81.4 -0.00133
81.45 -0.00106
81.5 -0.00066
81.55 -0.00045
81.6 -0.00049
81.65 -0.00066
81.7 -0.00075
81.75 -0.00061
81.8 -0.00065
81.85 -0.00087
81.9 -0.0012
81.95 -0.00142
82 -0.00123
82.05 -0.0012
82.1 -0.00115
82.15 -0.00117
82.2 -0.0011
82.25 -0.00093
82.3 -0.00053
82.35 -0.00049
82.4 -0.00017
82.45 0.00006
82.5 0.00022
82.55 0.00011
82.6 0.00008
82.65 0.00004
82.7 -0.00003
82.75 -0.00026
82.8 -0.00019
82.85 -0.00013
82.9 0.00008
82.95 0.00036
83 0.00056
83.05 0.0007
83.1 0.00087
83.15 0.0007
83.2 0.00049
83.25 0.00036
83.3 0.00026
83.35 -0.00013
83.4 -0.0006
83.45 -0.00068
83.5 -0.00098
83.55 -0.00127
83.6 -0.00137
83.65 -0.00107
83.7 -0.00065
83.75 -0.00033
83.8 -0.00031
83.85 -0.00028
83.9 -0.0001
83.95 -0.00027
84 -0.00053
84.05 -0.00048
84.1 -0.00061
84.15 -0.00081
84.2 -0.00083
84.25 -0.00075
84.3 -0.00061
84.35 -0.00057
84.4 -0.00039
84.45 -0.0004
84.5 -0.00024
84.55 -0.00023
84.6 0.00002
84.65 0.00038
84.7 0.0004
84.75 0.00067
84.8 0.00084
84.85 0.00091
84.9 0.00108
84.95 0.00088
85 0.0009
85.05 0.0006
85.1 0.0004
85.15 0.00039
85.2 0.00011
85.25 -0.00023
85.3 -0.00067
85.35 -0.00105
85.4 -0.00115
85.45 -0.00139
85.5 -0.00161
85.55 -0.00172
85.6 -0.00154
85.65 -0.00121
85.7 -0.00065
85.75 -0.00041
85.8 -0.00004
85.85 0.0004
85.9 0.0005
85.95 0.0007
86 0.00049
86.05 0.00025
86.1 -0.00018
86.15 -0.0005
86.2 -0.00055
86.25 -0.00036
86.3 -0.00008
86.35 -0.00001
86.4 0.00015
86.45 0.00011
86.5 0.00019
86.55 0.00029
86.6 0.00045
86.65 0.00067
86.7 0.00095
86.75 0.00132
86.8 0.00164
86.85 0.00177
86.9 0.00142
86.95 0.00094
87 0.00053
87.05 -0.00002
87.1 -0.00034
87.15 -0.00054
87.2 -0.00084
87.25 -0.00097
87.3 -0.00107
87.35 -0.001
87.4 -0.00081
87.45 -0.00039
87.5 0.00003
87.55 0.00057
87.6 0.00074
87.65 0.00087
87.7 0.001
87.75 0.0012
87.8 0.0012
87.85 0.00108
87.9 0.00073
87.95 0.00036
88 -0.00018
88.05 -0.00034
88.1 -0.00051
88.15 -0.00084
88.2 -0.0012
88.25 -0.00127
88.3 -0.00125
88.35 -0.00089
88.4 -0.0005
88.45 -0.00031
88.5 0.00009
88.55 0.00059
88.6 0.00106
88.65 0.00144
88.7 0.00178
88.75 0.00173
88.8 0.00136
88.85 0.00085
88.9 0.00035
88.95 0.00009
89 0.00006
89.05 -0.0002
89.1 -0.00014
89.15 0.00015
89.2 0.00034
89.25 0.00037
89.3 0.00043
89.35 0.00054
89.4 0.00038
89.45 0.00023
89.5 0.00038
89.55 0.0004
89.6 0.00035
89.65 0.00009
89.7 -0.00034
89.75 -0.00036
89.8 -0.00051
89.85 -0.00073
89.9 -0.0011
89.95 -0.00111
90 -0.0011
90.05 -0.00084
90.1 -0.0004
90.15 -0.00027
90.2 0.00005
90.25 -0.00004
90.3 -0.00008
90.35 -0.00039
90.4 -0.00071
90.45 -0.0008
90.5 -0.00109
90.55 -0.00143
90.6 -0.00183
90.65 -0.00207
90.7 -0.00222
90.75 -0.0024
90.8 -0.0026
90.85 -0.00243
90.9 -0.00236
90.95 -0.00236
91 -0.00208
91.05 -0.00196
91.1 -0.00142
91.15 -0.00121
91.2 -0.00098
91.25 -0.00047
91.3 0.00014
91.35 0.00083
91.4 0.00149
91.45 0.00204
91.5 0.00239
91.55 0.00269
91.6 0.00271
91.65 0.00239
91.7 0.00177
91.75 0.00112
91.8 0.00061
91.85 0.00044
91.9 0.00011
91.95 0.00012
92 -0.00011
92.05 -0.00021
92.1 -0.00005
92.15 0.00026
92.2 0.00025
92.25 0.00039
92.3 0.00015
92.35 0.00009
92.4 0.00015
92.45 -0
92.5 0.00007
92.55 -0.00002
92.6 -0.0001
92.65 -0.00032
92.7 -0.00049
92.75 -0.00054
92.8 -0.00042
92.85 -0.00026
92.9 0.00011
92.95 0.00041
93 0.00078
93.05 0.00096
93.1 0.00079
93.15 0.00071
93.2 0.00083
93.25 0.00063
93.3 0.00021
93.35 0.00002
93.4 -0.00032
93.45 -0.00044
93.5 -0.00023
93.55 -0.00002
93.6 0.00004
93.65 0.00005
93.7 0.00017
93.75 0.00018
93.8 0.00018
93.85 0.00022
93.9 0.00045
93.95 0.00049
94 0.00036
94.05 0.00043
94.1 0.00061
94.15 0.00071
94.2 0.00045
94.25 0.00015
94.3 -0.00012
94.35 -0.00053
94.4 -0.00067
94.45 -0.00045
94.5 -0.00026
94.55 0.00012
94.6 0.00062
94.65 0.00059
94.7 0.00042
94.75 0.00023
94.8 0.00019
94.85 0.00033
94.9 0.0006
94.95 0.00096
95 0.00093
95.05 0.00063
95.1 0.00052
95.15 0.00062
95.2 0.00057
95.25 0.00067
95.3 0.0008
95.35 0.00066
95.4 0.00026
95.45 -0.00023
95.5 -0.00053
95.55 -0.00088
95.6 -0.001
95.65 -0.00092
95.7 -0.00092
95.75 -0.0008
95.8 -0.0008
95.85 -0.00091
95.9 -0.00113
95.95 -0.00096
96 -0.00056
96.05 -0.00006
96.1 0.00032
96.15 0.00037
96.2 0.00063
96.25 0.00045
96.3 0.00013
96.35 -0.00034
96.4 -0.00042
96.45 -0.00046
96.5 -0.00043
96.55 -0.00055
96.6 -0.00051
96.65 -0.00018
96.7 -0.00017
96.75 -0.00041
96.8 -0.0005
96.85 -0.00038
96.9 -0.0005
96.95 -0.00078
97 -0.00076
97.05 -0.00071
97.1 -0.0006
97.15 -0.00076
97.2 -0.0008
97.25 -0.00072
97.3 -0.00051
97.35 -0.00036
97.4 -0.00022
97.45 -0.00002
97.5 -0.00007
97.55 -0.0003
97.6 -0.00071
97.65 -0.00112
97.7 -0.00113
97.75 -0.00127
97.8 -0.00128
97.85 -0.0011
97.9 -0.00097
97.95 -0.00058
98 -0.00016
98.05 0.00028
98.1 0.00079
98.15 0.0013
98.2 0.00131
98.25 0.00097
98.3 0.00045
98.35 -0.00015
98.4 -0.00065
98.45 -0.00089
98.5 -0.00069
98.55 -0.0006
98.6 -0.00026
98.65 0.00011
98.7 0.00058
98.75 0.00092
98.8 0.00085
98.85 0.00073
98.9 0.00087
98.95 0.0011
99 0.00094
99.05 0.0005
99.1 0.00045
99.15 0.00017
99.2 -0.00008
99.25 -0.00015
99.3 -0.00028
99.35 -0.00008
99.4 0.00025
99.45 0.00047
99.5 0.00051
99.55 0.00021
99.6 0.00003
99.65 0.00004
99.7 0.00018
99.75 0.0001
99.8 0.00014
99.85 0.00038
99.9 0.00032
99.95 0.00045
