0 0
0.05 0.00035
0.1 0.00075
0.15 0.00098
0.2 0.00105
0.25 0.00106
0.3 0.00153
0.35 0.00175
0.4 0.00213
0.45 0.00248
0.5 0.00292
0.55 0.00329
0.6 0.00373
0.65 0.00404
0.7 0.00432
0.75 0.00462
0.8 0.00466
0.85 0.0045
0.9 0.00451
0.95 0.00442
1 0.00441
1.05 0.00438
1.1 0.00444
1.15 0.00416
1.2 0.00384
1.25 0.00328
1.3 0.00306
1.35 0.00298
1.4 0.00272
1.45 0.00256
1.5 0.00266
1.55 0.00284
1.6 0.00314
1.65 0.00307
1.7 0.00286
1.75 0.00277
1.8 0.00252
1.85 0.00245
1.9 0.00235
1.95 0.00206
2 0.00205
2.05 0.00213
2.1 0.00208
2.15 0.00196
2.2 0.00203
2.25 0.00213
2.3 0.00233
2.35 0.00243
2.4 0.00252
2.45 0.00262
2.5 0.00272
2.55 0.00287
2.6 0.00301
2.65 0.00269
2.7 0.00215
2.75 0.00155
2.8 0.00134
2.85 0.00113
2.9 0.00092
2.95 0.00095
3 0.00083
3.05 0.0007
3.1 0.00086
3.15 0.00121
3.2 0.00142
3.25 0.00172
3.3 0.00191
3.35 0.00197
3.4 0.00186
3.45 0.0019
3.5 0.00172
3.55 0.00145
3.6 0.00114
3.65 0.00105
3.7 0.00096
3.75 0.00101
3.8 0.00091
3.85 0.00066
3.9 0.00066
3.95 0.00088
4 0.00088
4.05 0.00101
4.1 0.00127
4.15 0.00138
4.2 0.00162
4.25 0.00149
4.3 0.00129
4.35 0.00083
4.4 0.00037
4.45 0.00019
4.5 -0.00007
4.55 -0.00031
4.6 -0.00065
4.65 -0.00095
4.7 -0.00102
4.75 -0.00098
4.8 -0.00084
4.85 -0.00069
4.9 -0.00033
4.95 -0.00027
5 0.00011
5.05 0.00065
5.1 0.00079
5.15 0.00072
5.2 0.00091
5.25 0.00078
5.3 0.00044
5.35 0.00044
5.4 0.0007
5.45 0.00067
5.5 0.00071
5.55 0.00076
5.6 0.00051
5.65 0.00057
5.7 0.00072
5.75 0.00056
5.8 0.00044
5.85 0.00019
5.9 0.00019
5.95 0.00008
6 -0.00009
6.05 0.00007
6.1 0.00017
6.15 0.00005
6.2 0.00006
6.25 -0.00001
6.3 0.00015
6.35 0.0003
6.4 0.00014
6.45 -0.00018
6.5 -0.00012
6.55 0.00002
6.6 0.00033
6.65 0.00043
6.7 0.00051
6.75 0.00078
6.8 0.00086
6.85 0.00069
6.9 0.00081
6.95 0.00068
7 0.00072
7.05 0.00046
7.1 0.00026
7.15 0.00007
7.2 -0.00003
7.25 0.00011
7.3 0.00025
7.35 0.00009
7.4 0.0002
7.45 0.00016
7.5 0.00009
7.55 0.00033
7.6 0.00034
7.65 0.00008
7.7 -0.00023
7.75 -0.00032
7.8 -0.00058
7.85 -0.00076
7.9 -0.00072
7.95 -0.00066
8 -0.00076
8.05 -0.00049
8.1 -0.00021
8.15 -0.00008
8.2 -0.00019
8.25 -0.00048
8.3 -0.00044
8.35 -0.00024
8.4 -0.00027
8.45 -0.00036
8.5 -0.00035
8.55 -0.00047
8.6 -0.00049
8.65 -0.00025
8.7 -0.00025
8.75 -0.00018
8.8 -0.00033
8.85 -0.00032
8.9 -0.00042
8.95 -0.00025
9 -0.00033
9.05 -0.00032
9.1 -0.00042
9.15 -0.00069
9.2 -0.00075
9.25 -0.00042
9.3 -0.00009
9.35 0.0004
9.4 0.00095
9.45 0.00139
9.5 0.00171
9.55 0.00162
9.6 0.00164
9.65 0.00182
9.7 0.00165
9.75 0.00125
9.8 0.00071
9.85 0.00019
9.9 -0.00021
9.95 -0.00061
10 -0.00094
10.05 -0.00101
10.1 -0.00077
10.15 -0.00072
10.2 -0.00042
10.25 0.00003
10.3 0.00055
10.35 0.00104
10.4 0.00107
10.45 0.00086
10.5 0.00082
10.55 0.00046
10.6 0.00036
10.65 0.00012
10.7 -0.00006
10.75 0.00001
10.8 0.00031
10.85 0.00075
10.9 0.00121
10.95 0.00145
11 0.00132
11.05 0.00102
11.1 0.0006
11.15 0.00039
11.2 0.00024
11.25 0.00035
11.3 0.0005
11.35 0.00058
11.4 0.00065
11.45 0.00069
11.5 0.00092
11.55 0.00104
11.6 0.00105
11.65 0.00106
11.7 0.00075
11.75 0.00061
11.8 0.0007
11.85 0.00063
11.9 0.00059
11.95 0.00055
12 0.00053
12.05 0.00029
12.1 -0.00008
12.15 -0.00008
12.2 -0.00019
12.25 -0.00009
12.3 -0.00015
12.35 -0.00031
12.4 -0.00033
12.45 -0.0006
12.5 -0.00085
12.55 -0.00101
12.6 -0.00084
12.65 -0.00079
12.7 -0.00083
12.75 -0.00103
12.8 -0.00099
12.85 -0.00087
12.9 -0.00047
12.95 -0.0001
13 0.00028
13.05 0.00068
13.1 0.00071
13.15 0.00056
13.2 0.00021
13.25 -0.0003
13.3 -0.00067
13.35 -0.00059
13.4 -0.0003
13.45 0.00001
13.5 -0.00006
13.55 0.00016
13.6 0.00041
13.65 0.00059
13.7 0.0006
13.75 0.0005
13.8 0.00023
13.85 0.00001
13.9 -0.00021
13.95 -0.00007
14 -0.00014
14.05 -0.00017
14.1 -0.00025
14.15 -0.00036
14.2 -0.00038
14.25 -0.00046
14.3 -0.00023
14.35 0.00008
14.4 0.00024
14.45 0.00026
14.5 0.00021
14.55 0.00022
14.6 0.00035
14.65 0.00018
14.7 0.00026
14.75 0.00043
14.8 0.00073
14.85 0.00065
14.9 0.00034
14.95 0.00008
15 -0.00019
15.05 -0.0004
15.1 -0.00072
15.15 -0.0007
15.2 -0.00037
15.25 -0.00028
15.3 -0.00034
15.35 -0.00022
15.4 0.00003
15.45 0.00005
15.5 0.00012
15.55 0.00019
15.6 -0.00001
15.65 -0.00018
15.7 -0.00031
15.75 -0.00047
15.8 -0.00045
15.85 -0.00056
15.9 -0.00064
15.95 -0.00038
16 -0.00036
16.05 -0.00022
16.1 -0.00036
16.15 -0.00043
16.2 -0.00025
16.25 0.00001
16.3 0.00026
16.35 0.00024
16.4 0.00037
16.45 0.0003
16.5 0.00047
16.55 0.00072
16.6 0.00061
16.65 0.00025
16.7 -0.00024
16.75 -0.00064
16.8 -0.00089
16.85 -0.00073
16.9 -0.00067
16.95 -0.00031
17 -0.00025
17.05 -0.0002
17.1 -0.00016
17.15 -0.00014
17.2 0.00007
17.25 0.00023
17.3 0.00031
17.35 0.00012
17.4 -0.00008
17.45 -0.00044
17.5 -0.00064
17.55 -0.00064
17.6 -0.0006
17.65 -0.00026
17.7 -0.00026
17.75 -0.00008
17.8 0.00025
17.85 0.00026
17.9 0.00027
17.95 0.00021
18 0.0002
18.05 0.00009
18.1 -0.00015
18.15 -0.00032
18.2 -0.00067
18.25 -0.00068
18.3 -0.00072
18.35 -0.00084
18.4 -0.00057
18.45 -0.00031
18.5 -0.00036
18.55 -0.00031
18.6 -0.00047
18.65 -0.00062
18.7 -0.00085
18.75 -0.00077
18.8 -0.00087
18.85 -0.0006
18.9 -0.00014
18.95 0.00038
19 0.00058
19.05 0.00079
19.1 0.00061
19.15 0.00062
19.2 0.00031
19.25 0.00031
19.3 0.00036
19.35 0.00062
19.4 0.00053
19.45 0.0003
19.5 -0.00013
19.55 -0.00015
19.6 -0.0001
19.65 0.00016
19.7 0.00028
19.75 0.00027
19.8 0.0004
19.85 0.00033
19.9 0.00047
19.95 0.0003
20 0.00018
20.05 0.00016
20.1 0.00009
20.15 0.00031
20.2 0.0006
20.25 0.0008
20.3 0.00068
20.35 0.00049
20.4 0.0005
20.45 0.00051
20.5 0.00029
20.55 0.00021
20.6 0.00041
20.65 0.00051
20.7 0.00034
20.75 -0.00002
20.8 -0.00043
20.85 -0.00068
20.9 -0.00102
20.95 -0.00114
21 -0.00124
21.05 -0.00113
21.1 -0.00109
21.15 -0.00073
21.2 -0.00056
21.25 -0.0003
21.3 -0.00006
21.35 0.00015
21.4 0.00034
21.45 0.00035
21.5 0.00043
21.55 0.0002
21.6 0.00012
21.65 0.00012
21.7 0.00009
21.75 0.00018
21.8 0.00016
21.85 -0.00014
21.9 -0.00033
21.95 -0.00035
22 -0.00047
22.05 -0.00046
22.1 -0.00022
22.15 -0.00019
22.2 -0.00038
22.25 -0.00069
22.3 -0.001
22.35 -0.00121
22.4 -0.00121
22.45 -0.00132
22.5 -0.00147
22.55 -0.00124
22.6 -0.00082
22.65 -0.00046
22.7 -0.00012
22.75 0.00006
22.8 0.00003
22.85 -0.00012
22.9 -0.00012
22.95 -0.00012
23 -0.00002
23.05 -0.00005
23.1 -0.00005
23.15 0.00004
23.2 0.00032
23.25 0.00047
23.3 0.00042
23.35 0.00046
23.4 0.00056
23.45 0.00048
23.5 0.00021
23.55 0.00016
23.6 0.00024
23.65 0.00018
23.7 0.00035
23.75 0.00025
23.8 0.00019
23.85 0.00013
23.9 -0.00009
23.95 -0.00011
24 0.00007
24.05 0.00015
24.1 0.00026
24.15 0.00006
24.2 -0.00022
24.25 -0.00026
24.3 -0.00041
24.35 -0.00059
24.4 -0.00081
24.45 -0.00077
24.5 -0.00062
24.55 -0.00055
24.6 -0.00026
24.65 0.00004
24.7 0
24.75 0.00014
24.8 0.00012
24.85 0.00001
24.9 -0.00021
24.95 -0.0002
25 -0.00015
25.05 -0.00036
25.1 -0.00059
25.15 -0.00055
25.2 -0.00053
25.25 -0.0002
25.3 -0.00019
25.35 -0.00032
25.4 -0.0002
25.45 0.00005
25.5 0.00025
25.55 0.00049
25.6 0.00084
25.65 0.00124
25.7 0.00115
25.75 0.00127
25.8 0.00115
25.85 0.00108
25.9 0.00076
25.95 0.00028
26 0.00011
26.05 0.0002
26.1 0.00029
26.15 0.00042
26.2 0.00026
26.25 -0.00001
26.3 -0.00028
26.35 -0.00056
26.4 -0.00079
26.45 -0.00103
26.5 -0.00117
26.55 -0.00132
26.6 -0.00145
26.65 -0.00153
26.7 -0.00121
26.75 -0.00071
26.8 -0.00041
26.85 -0.00033
26.9 -0
26.95 0.00036
27 0.00085
27.05 0.00104
27.1 0.00084
27.15 0.00049
27.2 0.00015
27.25 -0.00027
27.3 -0.00025
27.35 0.00003
27.4 0.00035
27.45 0.00034
27.5 0.00037
27.55 0.00055
27.6 0.00079
27.65 0.00108
27.7 0.00101
27.75 0.00068
27.8 0.00045
27.85 0.00032
27.9 0.00037
27.95 0.00031
28 0.00023
28.05 0.00016
28.1 -0.00006
28.15 -0.00031
28.2 -0.00019
28.25 0.0001
28.3 0.00037
28.35 0.00062
28.4 0.00089
28.45 0.0009
28.5 0.00085
28.55 0.00094
28.6 0.00089
28.65 0.00078
28.7 0.00084
28.75 0.00071
28.8 0.00076
28.85 0.00089
28.9 0.00062
28.95 0.00064
29 0.00062
29.05 0.00075
29.1 0.00061
29.15 0.00061
29.2 0.00057
29.25 0.00045
29.3 0.00012
29.35 -0.00034
29.4 -0.00083
29.45 -0.0012
29.5 -0.00125
29.55 -0.00107
29.6 -0.00067
29.65 -0.00051
29.7 -0.00033
29.75 -0.00046
29.8 -0.00025
29.85 -0.00005
29.9 -0.00011
29.95 -0.0003
30 -0.00027
30.05 -0.00028
30.1 -0
30.15 -0.00003
30.2 -0.00023
30.25 -0.00024
30.3 -0.00046
30.35 -0.00064
30.4 -0.00082
30.45 -0.00074
30.5 -0.00046
30.55 -0.00001
30.6 0.00035
30.65 0.00053
30.7 0.0004
30.75 0.00002
30.8 -0.00011
30.85 -0.00039
30.9 -0.00073
30.95 -0.00099
31 -0.00108
31.05 -0.00083
31.1 -0.00053
31.15 -0.00039
31.2 -0.0002
31.25 0.00017
31.3 0.00061
31.35 0.00107
31.4 0.00128
31.45 0.00105
31.5 0.00098
31.55 0.00072
31.6 0.00065
31.65 0.00074
31.7 0.00085
31.75 0.0007
31.8 0.0004
31.85 0.00025
31.9 0.00004
31.95 -0.00024
32 -0.00033
32.05 -0.00052
32.1 -0.00063
32.15 -0.00054
32.2 -0.00043
32.25 -0.00023
32.3 -0
32.35 0.00039
32.4 0.00087
32.45 0.00089
32.5 0.00062
32.55 0.00064
32.6 0.00031
32.65 0.00031
32.7 0.00014
32.75 0.00028
32.8 0.00039
32.85 0.00024
32.9 0.00017
32.95 0.00022
33 0.00015
33.05 -0.00016
33.1 -0.00054
33.15 -0.00093
33.2 -0.00135
33.25 -0.00174
33.3 -0.00189
33.35 -0.00191
33.4 -0.00178
33.45 -0.00136
33.5 -0.00085
33.55 -0.00041
33.6 -0.00003
33.65 0.00022
33.7 0.00056
33.75 0.00069
33.8 0.00065
33.85 0.00083
33.9 0.00094
33.95 0.00065
34 0.0005
34.05 0.00057
34.1 0.0006
34.15 0.00066
34.2 0.0005
34.25 0.00017
34.3 -0.00008
34.35 -0.00051
34.4 -0.00084
34.45 -0.00104
34.5 -0.00092
34.55 -0.0008
34.6 -0.00069
34.65 -0.00071
34.7 -0.00092
34.75 -0.00085
34.8 -0.00057
34.85 -0.00028
34.9 0.00019
34.95 0.00021
35 0.00018
35.05 -0.00005
35.1 -0.00052
35.15 -0.00059
35.2 -0.00093
35.25 -0.00105
35.3 -0.00096
35.35 -0.00108
35.4 -0.00136
35.45 -0.00189
35.5 -0.00209
35.55 -0.00221
35.6 -0.00239
35.65 -0.00268
35.7 -0.00336
35.75 -0.00422
35.8 -0.00509
35.85 -0.00615
35.9 -0.00723
35.95 -0.00806
36 -0.00912
36.05 -0.01022
36.1 -0.01164
36.15 -0.01321
36.2 -0.01493
36.25 -0.01719
36.3 -0.01976
36.35 -0.02255
36.4 -0.02547
36.45 -0.02864
36.5 -0.03188
36.55 -0.03547
36.6 -0.03911
36.65 -0.04304
36.7 -0.04707
36.75 -0.05157
36.8 -0.05625
36.85 -0.06105
36.9 -0.06596
36.95 -0.07133
37 -0.07672
37.05 -0.0826
37.1 -0.08865
37.15 -0.0947
37.2 -0.10048
37.25 -0.10614
37.3 -0.11144
37.35 -0.1165
37.4 -0.12104
37.45 -0.12525
37.5 -0.12883
37.55 -0.13168
37.6 -0.13379
37.65 -0.1357
37.7 -0.13688
37.75 -0.13744
37.8 -0.13775
37.85 -0.1376
37.9 -0.13696
37.95 -0.13572
38 -0.13412
38.05 -0.13169
38.1 -0.12909
38.15 -0.12613
38.2 -0.12252
38.25 -0.11863
38.3 -0.11428
38.35 -0.10946
38.4 -0.10419
38.45 -0.09828
38.5 -0.09184
38.55 -0.08462
38.6 -0.07656
38.65 -0.06806
38.7 -0.0591
38.75 -0.04983
38.8 -0.03992
38.85 -0.02987
38.9 -0.01952
38.95 -0.00882
39 0.00229
39.05 0.01383
39.1 0.02572
39.15 0.03802
39.2 0.0501
39.25 0.06248
39.3 0.07457
39.35 0.08644
39.4 0.09825
39.45 0.10983
39.5 0.12062
39.55 0.13093
39.6 0.1404
39.65 0.14933
39.7 0.15771
39.75 0.16523
39.8 0.17186
39.85 0.17722
39.9 0.18173
39.95 0.18516
40 0.18758
40.05 0.18925
40.1 0.19011
40.15 0.18998
40.2 0.18893
40.25 0.18681
40.3 0.184
40.35 0.18084
40.4 0.17706
40.45 0.17268
40.5 0.1677
40.55 0.16208
40.6 0.15648
40.65 0.15051
40.7 0.1445
40.75 0.13843
40.8 0.13221
40.85 0.12595
40.9 0.11976
40.95 0.11363
41 0.10756
41.05 0.10134
41.1 0.09516
41.15 0.08924
41.2 0.08358
41.25 0.07824
41.3 0.07309
41.35 0.06822
41.4 0.06371
41.45 0.05956
41.5 0.05568
41.55 0.05163
41.6 0.04805
41.65 0.04439
41.7 0.0408
41.75 0.03755
41.8 0.03441
41.85 0.03135
41.9 0.02855
41.95 0.02611
42 0.02349
42.05 0.02135
42.1 0.0192
42.15 0.01725
42.2 0.01552
42.25 0.01373
42.3 0.01209
42.35 0.01035
42.4 0.00844
42.45 0.00665
42.5 0.00529
42.55 0.00417
42.6 0.00304
42.65 0.00212
42.7 0.00108
42.75 0.00006
42.8 -0.00118
42.85 -0.00256
42.9 -0.00393
42.95 -0.00516
43 -0.00588
43.05 -0.00661
43.1 -0.00725
43.15 -0.00769
43.2 -0.00809
43.25 -0.0084
43.3 -0.00895
43.35 -0.0094
43.4 -0.01004
43.45 -0.0108
43.5 -0.01129
43.55 -0.0117
43.6 -0.012
43.65 -0.01213
43.7 -0.01254
43.75 -0.01284
43.8 -0.01319
43.85 -0.01377
43.9 -0.01432
43.95 -0.01479
44 -0.015
44.05 -0.01503
44.1 -0.01536
44.15 -0.01543
44.2 -0.01578
44.25 -0.01622
44.3 -0.01679
44.35 -0.01736
44.4 -0.01772
44.45 -0.018
44.5 -0.01806
44.55 -0.01808
44.6 -0.0178
44.65 -0.01754
44.7 -0.01712
44.75 -0.0168
44.8 -0.0167
44.85 -0.01666
44.9 -0.01668
44.95 -0.01652
45 -0.01646
45.05 -0.01634
45.1 -0.0161
45.15 -0.01589
45.2 -0.01597
45.25 -0.01617
45.3 -0.01611
45.35 -0.01608
45.4 -0.01593
45.45 -0.01617
45.5 -0.01621
45.55 -0.01624
45.6 -0.0163
45.65 -0.01649
45.7 -0.01679
45.75 -0.01704
45.8 -0.017
45.85 -0.0168
45.9 -0.01645
45.95 -0.01587
46 -0.01524
46.05 -0.01479
46.1 -0.01453
46.15 -0.01431
46.2 -0.0142
46.25 -0.01423
46.3 -0.01443
46.35 -0.01444
46.4 -0.01462
46.45 -0.01461
46.5 -0.01457
46.55 -0.01438
46.6 -0.01397
46.65 -0.01362
46.7 -0.01333
46.75 -0.01318
46.8 -0.01283
46.85 -0.01232
46.9 -0.01206
46.95 -0.01209
47 -0.01211
47.05 -0.01226
47.1 -0.01228
47.15 -0.0124
47.2 -0.01243
47.25 -0.01213
47.3 -0.01163
47.35 -0.01114
47.4 -0.01067
47.45 -0.01023
47.5 -0.00985
47.55 -0.00935
47.6 -0.00931
47.65 -0.00957
47.7 -0.0096
47.75 -0.00956
47.8 -0.00925
47.85 -0.00908
47.9 -0.00919
47.95 -0.00923
48 -0.00912
48.05 -0.00875
48.1 -0.00839
48.15 -0.0079
48.2 -0.00748
48.25 -0.00752
48.3 -0.0075
48.35 -0.00735
48.4 -0.00739
48.45 -0.00732
48.5 -0.00731
48.55 -0.00721
48.6 -0.00718
48.65 -0.00703
48.7 -0.0067
48.75 -0.00665
48.8 -0.0064
48.85 -0.00624
48.9 -0.0061
48.95 -0.00603
49 -0.0063
49.05 -0.00623
49.1 -0.00623
49.15 -0.00601
49.2 -0.0057
49.25 -0.00557
49.3 -0.0058
49.35 -0.00617
49.4 -0.00637
49.45 -0.00637
49.5 -0.00653
49.55 -0.00665
49.6 -0.00687
49.65 -0.00696
49.7 -0.00688
49.75 -0.00677
49.8 -0.00649
49.85 -0.00643
49.9 -0.0064
49.95 -0.00617
50 -0.00569
50.05 -0.00516
50.1 -0.00475
50.15 -0.00466
50.2 -0.00471
50.25 -0.00454
50.3 -0.00418
50.35 -0.00417
50.4 -0.00443
50.45 -0.00464
50.5 -0.00481
50.55 -0.00477
50.6 -0.00446
50.65 -0.00436
50.7 -0.00399
50.75 -0.00392
50.8 -0.00374
50.85 -0.00375
50.9 -0.00348
50.95 -0.00327
51 -0.00326
51.05 -0.00342
51.1 -0.00343
51.15 -0.00353
51.2 -0.00362
51.25 -0.00382
51.3 -0.00366
51.35 -0.00367
51.4 -0.00377
51.45 -0.00368
51.5 -0.00345
51.55 -0.00325
51.6 -0.0031
51.65 -0.00284
51.7 -0.00288
51.75 -0.00279
51.8 -0.00264
51.85 -0.0027
51.9 -0.00288
51.95 -0.00293
52 -0.00286
52.05 -0.00283
52.1 -0.00274
52.15 -0.00263
52.2 -0.00259
52.25 -0.00258
52.3 -0.00276
52.35 -0.00306
52.4 -0.00345
52.45 -0.00351
52.5 -0.00366
52.55 -0.00373
52.6 -0.00366
52.65 -0.00343
52.7 -0.00332
52.75 -0.00305
52.8 -0.00281
52.85 -0.0028
52.9 -0.0029
52.95 -0.00279
53 -0.00242
53.05 -0.00202
53.1 -0.00194
53.15 -0.00186
53.2 -0.00193
53.25 -0.00181
53.3 -0.00173
53.35 -0.00192
53.4 -0.00174
53.45 -0.00178
53.5 -0.00203
53.55 -0.002
53.6 -0.00217
53.65 -0.00239
53.7 -0.00235
53.75 -0.002
53.8 -0.00191
53.85 -0.00166
53.9 -0.00132
53.95 -0.0012
54 -0.00123
54.05 -0.00132
54.1 -0.00121
54.15 -0.00112
54.2 -0.00085
54.25 -0.00089
54.3 -0.00099
54.35 -0.00083
54.4 -0.00048
54.45 -0.00004
54.5 0.00033
54.55 0.00067
54.6 0.00079
54.65 0.00073
54.7 0.00081
54.75 0.00087
54.8 0.00082
54.85 0.00068
54.9 0.00021
54.95 0.00004
55 0.00012
55.05 0.00004
55.1 0.00003
55.15 0.00021
55.2 0.00047
55.25 0.00071
55.3 0.00067
55.35 0.0006
55.4 0.00015
55.45 0.00004
55.5 -0.00008
55.55 -0.00023
55.6 -0.00028
55.65 -0.0006
55.7 -0.00088
55.75 -0.0011
55.8 -0.0012
55.85 -0.00119
55.9 -0.00125
55.95 -0.00128
56 -0.00103
56.05 -0.00067
56.1 -0.00043
56.15 -0.00038
56.2 -0.00025
56.25 -0.00046
56.3 -0.0005
56.35 -0.00071
56.4 -0.00082
56.45 -0.00067
56.5 -0.00046
56.55 -0.00012
56.6 0.00009
56.65 0.00008
56.7 -0.00027
56.75 -0.00032
56.8 -0.00064
56.85 -0.00102
56.9 -0.00122
56.95 -0.0013
57 -0.00128
57.05 -0.00136
57.1 -0.00118
57.15 -0.00115
57.2 -0.00134
57.25 -0.00119
57.3 -0.00118
57.35 -0.00104
57.4 -0.00118
57.45 -0.00137
57.5 -0.00136
57.55 -0.00145
57.6 -0.00144
57.65 -0.00147
57.7 -0.00119
57.75 -0.00076
57.8 -0.00026
57.85 0.0003
57.9 0.00081
57.95 0.00111
58 0.00141
58.05 0.00123
58.1 0.00106
58.15 0.00066
58.2 0.00051
58.25 0.00054
58.3 0.00026
58.35 0.00012
58.4 0.00005
58.45 -0.00014
58.5 -0.0001
58.55 0.00001
58.6 -0.00015
58.65 -0.00024
58.7 -0.0003
58.75 -0.00048
58.8 -0.00049
58.85 -0.00027
58.9 0.00001
58.95 0.00015
59 -0.00008
59.05 -0.00019
59.1 -0.00015
59.15 -0.00007
59.2 -0.00027
59.25 -0.00066
59.3 -0.00108
59.35 -0.00122
59.4 -0.00127
59.45 -0.00148
59.5 -0.00173
59.55 -0.00151
59.6 -0.00149
59.65 -0.00114
59.7 -0.00073
59.75 -0.00022
59.8 0.00005
59.85 0.0003
59.9 0.00033
59.95 0.00049
60 0.00069
60.05 0.00094
60.1 0.00079
60.15 0.00041
60.2 0.00031
60.25 0.00007
60.3 -0.00004
60.35 0.00002
60.4 0.00016
60.45 0.00027
60.5 0.00051
60.55 0.00042
60.6 0.00031
60.65 0.00018
60.7 0.00023
60.75 0.00043
60.8 0.00062
60.85 0.00073
60.9 0.00046
60.95 0.00014
61 -0.00011
61.05 -0.0005
61.1 -0.00056
61.15 -0.00034
61.2 -0.00048
61.25 -0.00032
61.3 -0.00037
61.35 -0.00049
61.4 -0.00076
61.45 -0.0007
61.5 -0.0009
61.55 -0.00074
61.6 -0.00059
61.65 -0.0004
61.7 -0.00054
61.75 -0.00062
61.8 -0.00079
61.85 -0.00107
61.9 -0.00094
61.95 -0.00097
62 -0.00067
62.05 -0.00036
62.1 -0.00028
62.15 -0.00016
62.2 0.00011
62.25 -0.00002
62.3 -0.0001
62.35 -0.00016
62.4 -0.00042
62.45 -0.00048
62.5 -0.00025
62.55 -0.00038
62.6 -0.00025
62.65 0.00001
62.7 0.00035
62.75 0.00059
62.8 0.00052
62.85 0.00039
62.9 0.00038
62.95 0.00013
63 0.00009
63.05 0.00011
63.1 -0.00005
63.15 -0.00003
63.2 -0.00018
63.25 -0.00053
63.3 -0.0009
63.35 -0.00088
63.4 -0.00089
63.45 -0.0006
63.5 -0.00035
63.55 -0.00039
63.6 -0.00057
63.65 -0.0005
63.7 -0.00034
63.75 -0.00004
63.8 0.00006
63.85 -0.00018
63.9 -0.00056
63.95 -0.00055
64 -0.00065
64.05 -0.00044
64.1 -0.00002
64.15 0.00032
64.2 0.0003
64.25 0.00049
64.3 0.00052
64.35 0.00071
64.4 0.00076
64.45 0.00081
64.5 0.00058
64.55 0.00055
64.6 0.00031
64.65 0.0001
64.7 -0.00011
64.75 -0.00014
64.8 -0.00014
64.85 -0.00027
64.9 -0.00016
64.95 -0.00013
65 -0.00009
65.05 -0.00004
65.1 -0.00003
65.15 -0.00013
65.2 -0.00006
65.25 -0.00017
65.3 -0.00006
65.35 0.00008
65.4 0.00032
65.45 0.00057
65.5 0.00038
65.55 0.00023
65.6 0.00016
65.65 -0.00009
65.7 -0.00007
65.75 -0.00013
65.8 -0.00011
65.85 0.00008
65.9 0.00018
65.95 0.00008
66 -0.00005
66.05 -0.00039
66.1 -0.00066
66.15 -0.00101
66.2 -0.001
66.25 -0.00106
66.3 -0.00089
66.35 -0.00081
66.4 -0.00082
66.45 -0.00089
66.5 -0.00091
66.55 -0.00078
66.6 -0.00054
66.65 -0.00012
66.7 0.00008
66.75 0.00024
66.8 0.00027
66.85 0.00004
66.9 -0.00013
66.95 -0.00029
67 -0.00027
67.05 0.00001
67.1 0.00006
67.15 -0.00013
67.2 -0.00003
67.25 0.00022
67.3 0.00031
67.35 0.00034
67.4 0.00037
67.45 0.00024
67.5 -0.0001
67.55 -0.00013
67.6 -0.00024
67.65 -0.00005
67.7 0.00009
67.75 0.00011
67.8 0.00031
67.85 0.00062
67.9 0.00047
67.95 0.00026
68 0.00018
68.05 0.00004
68.1 -0.00003
68.15 -0.00024
68.2 -0.00043
68.25 -0.00066
68.3 -0.00058
68.35 -0.00032
68.4 -0.00024
68.45 -0.0003
68.5 -0.00029
68.55 -0.00052
68.6 -0.00081
68.65 -0.00082
68.7 -0.00103
68.75 -0.00134
68.8 -0.00128
68.85 -0.0014
68.9 -0.00158
68.95 -0.00143
69 -0.001
69.05 -0.00075
69.1 -0.00076
69.15 -0.00052
69.2 -0.00038
69.25 -0.00024
69.3 -0.00031
69.35 -0.00024
69.4 -0.00011
69.45 -0.00023
69.5 -0.00024
69.55 -0.00017
69.6 0.00008
69.65 0.00047
69.7 0.0005
69.75 0.00023
69.8 0.00026
69.85 0.00047
69.9 0.00062
69.95 0.00062
70 0.00057
70.05 0.00028
70.1 0.00018
70.15 0.00016
70.2 0.00025
70.25 0.00006
70.3 0.00006
70.35 -0.00013
70.4 -0.00049
70.45 -0.00045
70.5 -0.00021
70.55 -0.00027
70.6 -0.00019
70.65 -0.00019
70.7 -0.00031
70.75 -0.00019
70.8 -0.00021
70.85 -0.00006
70.9 -0.00007
70.95 0.00018
71 0.00015
71.05 0.00007
71.1 0.00016
71.15 0.00014
71.2 0.00019
71.25 -0.00001
71.3 -0.00038
71.35 -0.00055
71.4 -0.0005
71.45 -0.00018
71.5 -0.00012
71.55 -0.00019
71.6 -0.00047
71.65 -0.00079
71.7 -0.00114
71.75 -0.00128
71.8 -0.00112
71.85 -0.0008
71.9 -0.00051
71.95 -0.00009
72 -0.00005
72.05 -0.00007
72.1 0.00012
72.15 0.00025
72.2 0.00028
72.25 0.00002
72.3 -0.00018
72.35 -0.0001
72.4 0.00006
72.45 0.00043
72.5 0.00077
72.55 0.00072
72.6 0.0009
72.65 0.00094
72.7 0.00079
72.75 0.00052
72.8 0.00034
72.85 0.00011
72.9 -0.00004
72.95 -0.00039
73 -0.00078
73.05 -0.00096
73.1 -0.00077
73.15 -0.0007
73.2 -0.00064
73.25 -0.00074
73.3 -0.00075
73.35 -0.00066
73.4 -0.00045
73.45 -0.00022
73.5 -0.00016
73.55 0.00017
73.6 0.00027
73.65 0.00044
73.7 0.00049
73.75 0.00044
73.8 0.00023
73.85 0.00008
73.9 -0.00029
73.95 -0.00065
74 -0.00098
74.05 -0.00115
74.1 -0.00095
74.15 -0.00052
74.2 -0.00027
74.25 0.00004
74.3 0.00006
74.35 0.00032
74.4 0.00021
74.45 0.00017
74.5 0.00003
74.55 0.00005
74.6 -0.00008
74.65 0.00011
74.7 0.0003
74.75 0.00062
74.8 0.0005
74.85 0.00026
74.9 -0.00006
74.95 -0.0004
75 -0.00036
75.05 -0.00026
75.1 0.00007
75.15 0.00045
75.2 0.00054
75.25 0.00067
75.3 0.00057
75.35 0.00047
75.4 0.00029
75.45 0.00029
75.5 0.00034
75.55 0.00008
75.6 0.00004
75.65 -0.00022
75.7 -0.00046
75.75 -0.0004
75.8 -0.00041
75.85 -0.00024
75.9 0.00001
75.95 0.00041
76 0.00086
76.05 0.0008
76.1 0.00091
76.15 0.00081
76.2 0.00089
76.25 0.00092
76.3 0.00089
76.35 0.00053
76.4 -0.00002
76.45 -0.0003
76.5 -0.00068
76.55 -0.0008
76.6 -0.00077
76.65 -0.00075
76.7 -0.00087
76.75 -0.00093
76.8 -0.00085
76.85 -0.00101
76.9 -0.00124
76.95 -0.00149
77 -0.00127
77.05 -0.00097
77.1 -0.00082
77.15 -0.00063
77.2 -0.00034
77.25 0.00008
77.3 0.00031
77.35 0.00071
77.4 0.0011
77.45 0.00147
77.5 0.00172
77.55 0.00177
77.6 0.00147
77.65 0.00095
77.7 0.00069
77.75 0.00024
77.8 -0.00019
77.85 -0.00048
77.9 -0.00063
77.95 -0.00066
78 -0.00075
78.05 -0.00099
78.1 -0.0008
78.15 -0.00076
78.2 -0.00086
78.25 -0.00082
78.3 -0.00077
78.35 -0.00056
78.4 -0.00046
78.45 -0.00029
78.5 -0.00034
78.55 -0.00038
78.6 -0.00057
78.65 -0.00075
78.7 -0.00088
78.75 -0.00113
78.8 -0.00099
78.85 -0.00107
78.9 -0.00115
78.95 -0.00106
79 -0.00075
79.05 -0.00067
79.1 -0.00066
79.15 -0.00081
79.2 -0.00054
79.25 -0.00018
79.3 -0
79.35 0.00009
79.4 0.00017
79.45 0.00015
79.5 0.00034
79.55 0.00031
79.6 0.00051
79.65 0.00038
79.7 0.00035
79.75 0.00053
79.8 0.00051
79.85 0.00032
79.9 0.00044
79.95 0.00071
80 0.00101
80.05 0.00131
80.1 0.00125
80.15 0.00093
80.2 0.00053
80.25 0.00005
80.3 -0.00034
80.35 -0.00031
80.4 -0.00046
80.45 -0.00036
80.5 -0.0003
80.55 0.00002
80.6 0.00049
80.65 0.0009
80.7 0.001
80.75 0.00116
80.8 0.00141
80.85 0.00148
80.9 0.00153
80.95 0.00133
81 0.00115
81.05 0.00088
81.1 0.0008
81.15 0.00088
81.2 0.00089
81.25 0.00068
81.3 0.00033
81.35 0.00011
81.4 -0.00014
81.45 -0.0004
81.5 -0.00061
81.55 -0.00059
81.6 -0.00066
81.65 -0.00085
81.7 -0.00098
81.75 -0.00098
81.8 -0.00091
81.85 -0.00073
81.9 -0.00064
81.95 -0.00078
82 -0.00058
82.05 -0.00067
82.1 -0.0009
82.15 -0.00089
82.2 -0.00068
82.25 -0.00065
82.3 -0.00047
82.35 -0.00047
82.4 -0.00046
82.45 -0.00025
82.5 -0.00034
82.55 -0.00011
82.6 0.00002
82.65 0.00007
82.7 0.0001
82.75 0.00035
82.8 0.00044
82.85 0.00048
82.9 0.00069
82.95 0.00099
83 0.00108
83.05 0.00127
83.1 0.00116
83.15 0.00084
83.2 0.00033
83.25 0.00011
83.3 0.00002
83.35 -0.00015
83.4 -0.00032
83.45 -0.00044
83.5 -0.0006
83.55 -0.00092
83.6 -0.00107
83.65 -0.00098
83.7 -0.00062
83.75 -0.00054
83.8 -0.00068
83.85 -0.00047
83.9 -0.00024
83.95 -0.0003
84 -0.00023
84.05 -0.00037
84.1 -0.00022
84.15 -0.00019
84.2 -0.0002
84.25 0.00007
84.3 0.00037
84.35 0.0007
84.4 0.00067
84.45 0.00037
84.5 -0.00001
84.55 -0.00004
84.6 -0.00004
84.65 -0.0003
84.7 -0.00071
84.75 -0.00117
84.8 -0.00159
84.85 -0.00147
84.9 -0.00149
84.95 -0.00146
85 -0.00149
85.05 -0.00157
85.1 -0.00127
85.15 -0.00105
85.2 -0.00079
85.25 -0.00082
85.3 -0.00078
85.35 -0.00086
85.4 -0.00107
85.45 -0.00087
85.5 -0.00037
85.55 -0.00009
85.6 0.00004
85.65 0.0004
85.7 0.00077
85.75 0.00093
85.8 0.0012
85.85 0.00111
85.9 0.0012
85.95 0.00105
86 0.00081
86.05 0.00054
86.1 0.00027
86.15 0.00003
86.2 -0.00032
86.25 -0.00056
86.3 -0.00089
86.35 -0.00121
86.4 -0.00142
86.45 -0.00167
86.5 -0.00169
86.55 -0.00127
86.6 -0.00062
86.65 -0.00001
86.7 0.00029
86.75 0.00035
86.8 0.00027
86.85 0.00005
86.9 0.00014
86.95 0.00003
87 -0.00016
87.05 0.00001
87.1 0.00012
87.15 0.00042
87.2 0.00042
87.25 0.00058
87.3 0.00064
87.35 0.0006
87.4 0.00041
87.45 0.00022
87.5 0.00034
87.55 0.00021
87.6 0.00039
87.65 0.00037
87.7 0.00038
87.75 0.00037
87.8 0.00046
87.85 0.00058
87.9 0.00058
87.95 0.00068
88 0.00077
88.05 0.0007
88.1 0.00051
88.15 0.00024
88.2 -0.00016
88.25 -0.00027
88.3 -0.00009
88.35 -0.00014
88.4 -0.00006
88.45 -0.00015
88.5 0.00007
88.55 0.00043
88.6 0.00083
88.65 0.00112
88.7 0.00107
88.75 0.00101
88.8 0.00074
88.85 0.00076
88.9 0.00098
88.95 0.0008
89 0.00085
89.05 0.00091
89.1 0.00102
89.15 0.00081
89.2 0.00041
89.25 0.00023
89.3 -0.00002
89.35 -0.00005
89.4 0.00021
89.45 0.00057
89.5 0.00052
89.55 0.00063
89.6 0.0005
89.65 0.00046
89.7 0.00019
89.75 0.00017
89.8 -0.00002
89.85 -0.00025
89.9 -0.00058
89.95 -0.00049
90 -0.00035
90.05 -0.00046
90.1 -0.00028
90.15 -0.00013
90.2 -0.00006
90.25 -0.00004
90.3 -0.00007
90.35 0.00012
90.4 0.00029
90.45 0.00033
90.5 0.00059
90.55 0.00082
90.6 0.00106
90.65 0.00113
90.7 0.00131
90.75 0.00117
90.8 0.00084
90.85 0.00045
90.9 -0.00003
90.95 -0.00025
91 -0.00017
91.05 -0.00033
91.1 -0.00058
91.15 -0.00081
91.2 -0.00083
91.25 -0.00071
91.3 -0.00072
91.35 -0.00077
91.4 -0.00098
91.45 -0.00083
91.5 -0.00048
91.55 -0.00044
91.6 -0.00021
91.65 -0.00027
91.7 -0.00056
91.75 -0.00052
91.8 -0.00046
91.85 -0.00028
91.9 -0.00002
91.95 -0.00012
92 -0.00003
92.05 -0.00012
92.1 -0.0001
92.15 -0.00029
92.2 -0.00058
92.25 -0.00096
92.3 -0.00117
92.35 -0.00099
92.4 -0.00084
92.45 -0.00068
92.5 -0.00076
92.55 -0.00057
92.6 -0.0006
92.65 -0.00068
92.7 -0.00087
92.75 -0.00065
92.8 -0.00045
92.85 -0.0002
92.9 -0.00011
92.95 -0.00015
93 0.00002
93.05 0.00028
93.1 0.00048
93.15 0.00063
93.2 0.00082
93.25 0.0009
93.3 0.00074
93.35 0.00055
93.4 0.00014
93.45 -0.00017
93.5 -0.00008
93.55 -0.00009
93.6 -0.00019
93.65 -0.00007
93.7 -0.00006
93.75 0.00017
93.8 0.00004
93.85 -0.00003
93.9 0.00001
93.95 0.00022
94 0.00044
94.05 0.0006
94.1 0.00049
94.15 0.00041
94.2 0.00054
94.25 0.0005
94.3 0.00065
94.35 0.00054
94.4 0.00041
94.45 0.00001
94.5 -0.0001
94.55 -0.00007
94.6 0.00008
94.65 -0.00007
94.7 -0.0001
94.75 -0.00032
94.8 -0.00031
94.85 -0.00026
94.9 -0.00047
94.95 -0.00035
95 -0.00031
95.05 -0
95.1 0.00019
95.15 0.00008
95.2 0.00024
95.25 0.0003
95.3 0.00021
95.35 0.00031
95.4 0.00055
95.45 0.00069
95.5 0.00049
95.55 0.00055
95.6 0.00038
95.65 0.00027
95.7 0.00034
95.75 0.00039
95.8 0.00063
95.85 0.00092
95.9 0.00116
95.95 0.00139
96 0.00128
96.05 0.00086
96.1 0.00056
96.15 0.00025
96.2 0.00012
96.25 -0.00023
96.3 -0.00033
96.35 -0.00024
96.4 -0.00023
96.45 -0.0004
96.5 -0.00048
96.55 -0.00065
96.6 -0.00089
96.65 -0.00116
96.7 -0.00146
96.75 -0.00131
96.8 -0.00097
96.85 -0.00049
96.9 -0.00017
96.95 0.00024
97 0.00059
97.05 0.00068
97.1 0.00077
97.15 0.00068
97.2 0.00035
97.25 0.00012
97.3 0.0001
97.35 0.00008
97.4 0.00002
97.45 -0.00004
97.5 -0.00023
97.55 -0.00019
97.6 -0.00037
97.65 -0.00019
97.7 -0
97.75 0.00003
97.8 0.00003
97.85 0.00008
97.9 0.00002
97.95 0.00011
98 0.00011
98.05 0.00035
98.1 0.00065
98.15 0.0008
98.2 0.00104
98.25 0.0011
98.3 0.00119
98.35 0.00109
98.4 0.00104
98.45 0.00091
98.5 0.00085
98.55 0.00095
98.6 0.00111
98.65 0.00115
98.7 0.00114
98.75 0.00086
98.8 0.00076
98.85 0.00086
98.9 0.00091
98.95 0.00094
99 0.00113
99.05 0.00133
99.1 0.00121
99.15 0.001
99.2 0.00064
99.25 0.00024
99.3 0.00002
99.35 -0.00024
99.4 -0.00017
99.45 0.00001
99.5 0.00003
99.55 0.00004
99.6 -0.00006
99.65 -0.00025
99.7 -0.00016
99.75 -0.0003
99.8 -0.00051
99.85 -0.00052
99.9 -0.00051
99.95 -0.0007
