0 0
0.05 0.00046
0.1 0.00102
0.15 0.0013
0.2 0.00169
0.25 0.00225
0.3 0.00261
0.35 0.00289
0.4 0.00313
0.45 0.0034
0.5 0.00336
0.55 0.00304
0.6 0.00275
0.65 0.00257
0.7 0.00259
0.75 0.00267
0.8 0.00264
0.85 0.00236
0.9 0.00206
0.95 0.0021
1 0.00218
1.05 0.00243
1.1 0.00241
1.15 0.00249
1.2 0.00245
1.25 0.00216
1.3 0.00218
1.35 0.00223
1.4 0.00208
1.45 0.00215
1.5 0.00213
1.55 0.00234
1.6 0.00248
1.65 0.00255
1.7 0.00257
1.75 0.00251
1.8 0.0026
1.85 0.00255
1.9 0.00232
1.95 0.00205
2 0.00177
2.05 0.0014
2.1 0.00104
2.15 0.00078
2.2 0.00068
2.25 0.00054
2.3 0.00059
2.35 0.0005
2.4 0.00074
2.45 0.00088
2.5 0.00088
2.55 0.00104
2.6 0.00102
2.65 0.00125
2.7 0.0013
2.75 0.00151
2.8 0.00174
2.85 0.00209
2.9 0.00204
2.95 0.00189
3 0.00165
3.05 0.00153
3.1 0.00142
3.15 0.00152
3.2 0.00152
3.25 0.00168
3.3 0.00168
3.35 0.00168
3.4 0.0015
3.45 0.0014
3.5 0.00114
3.55 0.00079
3.6 0.00066
3.65 0.00072
3.7 0.0007
3.75 0.00092
3.8 0.00095
3.85 0.00107
3.9 0.00122
3.95 0.00114
4 0.00097
4.05 0.00073
4.1 0.00049
4.15 0.0006
4.2 0.00055
4.25 0.00062
4.3 0.00061
4.35 0.00063
4.4 0.00075
4.45 0.00063
4.5 0.00039
4.55 0.00024
4.6 0.00001
4.65 -0.00032
4.7 -0.00057
4.75 -0.00065
4.8 -0.00049
4.85 -0.00021
4.9 0.00023
4.95 0.00034
5 0.00031
5.05 0.00029
5.1 0.00029
5.15 0.00055
5.2 0.00085
5.25 0.0012
5.3 0.00117
5.35 0.0011
5.4 0.00125
5.45 0.00114
5.5 0.00121
5.55 0.00144
5.6 0.00164
5.65 0.00155
5.7 0.00147
5.75 0.00129
5.8 0.00113
5.85 0.00119
5.9 0.00117
5.95 0.00117
6 0.00126
6.05 0.00129
6.1 0.00147
6.15 0.00163
6.2 0.00156
6.25 0.00125
6.3 0.0009
6.35 0.00049
6.4 0.00018
6.45 0.0002
6.5 0.00047
6.55 0.00087
6.6 0.00107
6.65 0.00118
6.7 0.00112
6.75 0.00104
6.8 0.00091
6.85 0.00055
6.9 0.00008
6.95 -0.00023
7 -0.00042
7.05 -0.00065
7.1 -0.00085
7.15 -0.00096
7.2 -0.0009
7.25 -0.00087
7.3 -0.00097
7.35 -0.00077
7.4 -0.00075
7.45 -0.00088
7.5 -0.00104
7.55 -0.0008
7.6 -0.00068
7.65 -0.00056
7.7 -0.00063
7.75 -0.00067
7.8 -0.00043
7.85 -0.00014
7.9 0.00015
7.95 0.00055
8 0.00095
8.05 0.00107
8.1 0.00103
8.15 0.00118
8.2 0.00103
8.25 0.00109
8.3 0.00088
8.35 0.00082
8.4 0.00074
8.45 0.00049
8.5 0.00018
8.55 -0.00003
8.6 -0.00021
8.65 -0.00038
8.7 -0.00056
8.75 -0.0008
8.8 -0.00079
8.85 -0.00063
8.9 -0.00047
8.95 -0.00021
9 -0.0002
9.05 -0.00019
9.1 -0.00023
9.15 -0.00039
9.2 -0.00044
9.25 -0.00063
9.3 -0.00048
9.35 -0.00032
9.4 0.00004
9.45 0.00043
9.5 0.00073
9.55 0.00107
9.6 0.00115
9.65 0.00098
9.7 0.00065
9.75 0.00029
9.8 0.00009
9.85 -0.00015
9.9 -0.00026
9.95 -0.00009
10 0.00014
10.05 0.00028
10.1 0.00043
10.15 0.00048
10.2 0.00073
10.25 0.00081
10.3 0.00098
10.35 0.00101
10.4 0.00078
10.45 0.00066
10.5 0.00079
10.55 0.00097
10.6 0.00098
10.65 0.00088
10.7 0.00066
10.75 0.00069
10.8 0.00063
10.85 0.00034
10.9 0.00028
10.95 0.00022
11 -0
11.05 -0.0003
11.1 -0.00035
11.15 -0.00049
11.2 -0.00071
11.25 -0.00092
11.3 -0.00119
11.35 -0.00102
11.4 -0.00079
11.45 -0.00036
11.5 -0.00009
11.55 0.00018
11.6 0.00053
11.65 0.00089
11.7 0.00083
11.75 0.00088
11.8 0.00087
11.85 0.00098
11.9 0.00082
11.95 0.00065
12 0.00049
12.05 0.00015
12.1 0.00015
12.15 0.00006
12.2 -0.0001
12.25 -0.00022
12.3 -0.00027
12.35 -0.00028
12.4 -0.00009
12.45 -0.00012
12.5 0.00009
12.55 0.00021
12.6 0.00012
12.65 0.00028
12.7 0.00011
12.75 0.00023
12.8 0.0003
12.85 0.00023
12.9 0.00021
12.95 0.00038
13 0.00043
13.05 0.00052
13.1 0.00041
13.15 0.00013
13.2 0.00003
13.25 0.00003
13.3 0.00006
13.35 0.00024
13.4 0.0001
13.45 0.00017
13.5 0.00014
13.55 -0.00011
13.6 -0.00015
13.65 -0.00018
13.7 -0.00015
13.75 -0.00027
13.8 -0.00052
13.85 -0.00075
13.9 -0.00086
13.95 -0.00104
14 -0.001
14.05 -0.00087
14.1 -0.00072
14.15 -0.00061
14.2 -0.00063
14.25 -0.00057
14.3 -0.00071
14.35 -0.00066
14.4 -0.00032
14.45 -0.00003
14.5 0.00032
14.55 0.00048
14.6 0.00068
14.65 0.00077
14.7 0.00084
14.75 0.00063
14.8 0.00064
14.85 0.00055
14.9 0.00042
14.95 0.0003
15 0.00035
15.05 0.00036
15.1 0.00029
15.15 -0.00001
15.2 -0.00005
15.25 0.00009
15.3 0.00014
15.35 0.00011
15.4 0.00015
15.45 0.00025
15.5 0.00018
15.55 0.00002
15.6 0.00009
15.65 -0.00003
15.7 -0.00021
15.75 -0.00034
15.8 -0.00059
15.85 -0.00078
15.9 -0.00099
15.95 -0.0008
16 -0.0007
16.05 -0.00051
16.1 -0.00053
16.15 -0.00052
16.2 -0.00025
16.25 0.00018
16.3 0.00037
16.35 0.00056
16.4 0.0007
16.45 0.00057
16.5 0.00029
16.55 -0
16.6 -0.00001
16.65 0.00007
16.7 0.00019
16.75 0.00023
16.8 0.00028
16.85 0.0003
16.9 0.0004
16.95 0.00068
17 0.00077
17.05 0.00065
17.1 0.00043
17.15 0.00031
17.2 0.00033
17.25 0.0005
17.3 0.00056
17.35 0.00055
17.4 0.00046
17.45 0.00027
17.5 0.00029
17.55 0.00044
17.6 0.00066
17.65 0.00061
17.7 0.00038
17.75 -0.00001
17.8 -0.00036
17.85 -0.00057
17.9 -0.00058
17.95 -0.00032
18 -0.00024
18.05 -0.00012
18.1 -0.00021
18.15 -0.00022
18.2 -0.00046
18.25 -0.00064
18.3 -0.00085
18.35 -0.001
18.4 -0.00095
18.45 -0.00075
18.5 -0.00032
18.55 0.00021
18.6 0.00057
18.65 0.00078
18.7 0.00102
18.75 0.00106
18.8 0.00079
18.85 0.00077
18.9 0.00079
18.95 0.00056
19 0.00026
19.05 0.00025
19.1 0.00012
19.15 0.00005
19.2 -0.00016
19.25 -0.00047
19.3 -0.00064
19.35 -0.0009
19.4 -0.00099
19.45 -0.00111
19.5 -0.00097
19.55 -0.00098
19.6 -0.00099
19.65 -0.00072
19.7 -0.00028
19.75 0.00023
19.8 0.00059
19.85 0.00062
19.9 0.00076
19.95 0.00073
20 0.0007
20.05 0.00055
20.1 0.00023
20.15 0.00003
20.2 -0.00016
20.25 -0.00035
20.3 -0.00049
20.35 -0.00056
20.4 -0.00052
20.45 -0.00031
20.5 -0.00038
20.55 -0.00028
20.6 -0.00021
20.65 -0.00032
20.7 -0.00033
20.75 -0.00043
20.8 -0.00062
20.85 -0.00046
20.9 -0.00024
20.95 0.00008
21 0.00048
21.05 0.00048
21.1 0.00039
21.15 0.0005
21.2 0.00053
21.25 0.00045
21.3 0.0003
21.35 0.00036
21.4 0.00029
21.45 0.0001
21.5 0.00019
21.55 0.00011
21.6 0.00011
21.65 0.00007
21.7 0.0001
21.75 0.00026
21.8 0.00038
21.85 0.00037
21.9 0.00048
21.95 0.0006
22 0.00077
22.05 0.00063
22.1 0.00066
22.15 0.00059
22.2 0.00027
22.25 -0.00017
22.3 -0.00042
22.35 -0.00035
22.4 -0.00021
22.45 0.00002
22.5 0.00016
22.55 0.00017
22.6 0.00008
22.65 0.00014
22.7 -0.00004
22.75 -0.00001
22.8 -0.0001
22.85 0.00004
22.9 0.00025
22.95 0.00052
23 0.00057
23.05 0.0003
23.1 0.00028
23.15 0.00037
23.2 0.00019
23.25 0.00004
23.3 0.00011
23.35 0.00001
23.4 -0.00032
23.45 -0.00071
23.5 -0.0011
23.55 -0.00123
23.6 -0.00133
23.65 -0.00108
23.7 -0.00087
23.75 -0.00079
23.8 -0.0009
23.85 -0.00089
23.9 -0.0009
23.95 -0.00062
24 -0.00048
24.05 -0.00037
24.1 -0.00004
24.15 -0.00003
24.2 -0.00012
24.25 -0.00019
24.3 -0.0004
24.35 -0.00059
24.4 -0.00067
24.45 -0.00088
24.5 -0.00113
24.55 -0.00122
24.6 -0.00118
24.65 -0.00092
24.7 -0.00069
24.75 -0.0004
24.8 -0.00005
24.85 0.00041
24.9 0.00086
24.95 0.00086
25 0.00096
25.05 0.00103
25.1 0.00092
25.15 0.00072
25.2 0.00064
25.25 0.00046
25.3 0.00049
25.35 0.00049
25.4 0.00034
25.45 0.0004
25.5 0.00025
25.55 0.00023
25.6 -0.00004
25.65 -0.00015
25.7 -0.00021
25.75 -0.00002
25.8 -0.00011
25.85 -0.00024
25.9 -0.00048
25.95 -0.00056
26 -0.00064
26.05 -0.00047
26.1 -0.00021
26.15 0.00017
26.2 0.00058
26.25 0.00059
26.3 0.00067
26.35 0.00059
26.4 0.0006
26.45 0.00061
26.5 0.00051
26.55 0.00023
26.6 0.00017
26.65 0.00016
26.7 0.00013
26.75 -0.00013
26.8 -0.00025
26.85 -0.0001
26.9 0.00003
26.95 -0.00005
27 0.00005
27.05 -0.00002
27.1 -0.00027
27.15 -0.00066
27.2 -0.00078
27.25 -0.00073
27.3 -0.00058
27.35 -0.00036
27.4 -0.00028
27.45 -0.00011
27.5 0.0002
27.55 0.00057
27.6 0.00079
27.65 0.00088
27.7 0.0008
27.75 0.00072
27.8 0.00038
27.85 0.00015
27.9 -0.00012
27.95 -0.00051
28 -0.00083
28.05 -0.00109
28.1 -0.00092
28.15 -0.00057
28.2 -0.00047
28.25 -0.00057
28.3 -0.00038
28.35 0
28.4 0.00048
28.45 0.00061
28.5 0.00065
28.55 0.00085
28.6 0.00076
28.65 0.00088
28.7 0.00079
28.75 0.00074
28.8 0.00058
28.85 0.00064
28.9 0.00074
28.95 0.00093
29 0.0011
29.05 0.00094
29.1 0.00055
29.15 0.00015
29.2 0.00004
29.25 0.00015
29.3 0
29.35 -0.00022
29.4 -0.00028
29.45 -0.00009
29.5 -0.0002
29.55 -0.00041
29.6 -0.00058
29.65 -0.00058
29.7 -0.00057
29.75 -0.00049
29.8 -0.00051
29.85 -0.00028
29.9 -0.00028
29.95 -0.00044
30 -0.00047
30.05 -0.00045
30.1 -0.0005
30.15 -0.00071
30.2 -0.00084
30.25 -0.00094
30.3 -0.001
30.35 -0.00091
30.4 -0.00053
30.45 -0.00015
30.5 -0.00001
30.55 0.00002
30.6 0.00006
30.65 -0.00016
30.7 -0.00008
30.75 -0.00014
30.8 -0.00019
30.85 -0.00023
30.9 -0.00004
30.95 -0.00011
31 -0.00038
31.05 -0.0006
31.1 -0.00076
31.15 -0.00101
31.2 -0.00095
31.25 -0.00073
31.3 -0.00049
31.35 -0.00008
31.4 0.00002
31.45 0.00017
31.5 0.00027
31.55 0.00045
31.6 0.00033
31.65 0.00035
31.7 0.00052
31.75 0.00035
31.8 0.00023
31.85 -0.00003
31.9 -0.00037
31.95 -0.00075
32 -0.00092
32.05 -0.00096
32.1 -0.00071
32.15 -0.00031
32.2 0.00018
32.25 0.00032
32.3 0.00021
32.35 0.00024
32.4 0.00018
32.45 -0.00005
32.5 -0.0004
32.55 -0.00073
32.6 -0.00075
32.65 -0.00056
32.7 -0.00046
32.75 -0.0003
32.8 -0.00035
32.85 -0.00012
32.9 -0.00016
32.95 0.00005
33 0.00003
33.05 -0.00022
33.1 -0.00046
33.15 -0.00044
33.2 -0.00031
33.25 -0.00001
33.3 0.00039
33.35 0.00073
33.4 0.00073
33.45 0.00063
33.5 0.00046
33.55 0.00021
33.6 -0.00021
33.65 -0.0005
33.7 -0.00082
33.75 -0.00084
33.8 -0.00083
33.85 -0.00055
33.9 -0.0005
33.95 -0.00039
34 -0.00044
34.05 -0.00053
34.1 -0.00063
34.15 -0.00073
34.2 -0.00079
34.25 -0.00097
34.3 -0.0011
34.35 -0.00111
34.4 -0.00087
34.45 -0.00077
34.5 -0.00045
34.55 -0.00022
34.6 0.00008
34.65 0.00012
34.7 -0.00007
34.75 -0.00007
34.8 0.00008
34.85 0.00008
34.9 0.00005
34.95 0.00014
35 -0.00004
35.05 -0.00028
35.1 -0.00049
35.15 -0.00043
35.2 -0.00018
35.25 -0.00002
35.3 -0
35.35 -0.00006
35.4 -0.00026
35.45 -0.00051
35.5 -0.00049
35.55 -0.0002
35.6 0.00013
35.65 0.00039
35.7 0.00069
35.75 0.00093
35.8 0.00108
35.85 0.00121
35.9 0.00123
35.95 0.00114
36 0.00083
36.05 0.00059
36.1 0.00029
36.15 -0.00009
36.2 -0.00052
36.25 -0.00048
36.3 -0.00045
36.35 -0.00058
36.4 -0.00071
36.45 -0.00067
36.5 -0.00063
36.55 -0.00042
36.6 -0.00034
36.65 -0.00016
36.7 0.00003
36.75 0.0003
36.8 0.00062
36.85 0.00055
36.9 0.00041
36.95 0.00022
37 -0.00013
37.05 -0.00049
37.1 -0.0007
37.15 -0.00088
37.2 -0.00077
37.25 -0.00059
37.3 -0.00035
37.35 -0.0002
37.4 0.00009
37.45 0.00016
37.5 0.00025
37.55 0.00022
37.6 0.00043
37.65 0.00049
37.7 0.0003
37.75 0.0001
37.8 -0.00006
37.85 0.00005
37.9 0.00028
37.95 0.00052
38 0.00079
38.05 0.00102
38.1 0.00122
38.15 0.00146
38.2 0.00165
38.25 0.0014
38.3 0.00109
38.35 0.00071
38.4 0.00025
38.45 0.00009
38.5 -0.00002
38.55 -0.00013
38.6 -0.00033
38.65 -0.00022
38.7 0.0001
38.75 0.0001
38.8 0.00026
38.85 0.00017
38.9 -0.00006
38.95 -0.00008
39 -0.0003
39.05 -0.00033
39.1 -0.00057
39.15 -0.00094
39.2 -0.00128
39.25 -0.00181
39.3 -0.00241
39.35 -0.00291
39.4 -0.00335
39.45 -0.00392
39.5 -0.00451
39.55 -0.00518
39.6 -0.00607
39.65 -0.00672
39.7 -0.0073
39.75 -0.00827
39.8 -0.00952
39.85 -0.01108
39.9 -0.01299
39.95 -0.01491
40 -0.0172
40.05 -0.01946
40.1 -0.02191
40.15 -0.02431
40.2 -0.02718
40.25 -0.03038
40.3 -0.034
40.35 -0.03762
40.4 -0.04137
40.45 -0.04506
40.5 -0.0489
40.55 -0.05304
40.6 -0.05746
40.65 -0.06164
40.7 -0.06595
40.75 -0.07033
40.8 -0.07434
40.85 -0.0782
40.9 -0.08166
40.95 -0.08508
41 -0.08805
41.05 -0.09107
41.1 -0.09353
41.15 -0.09555
41.2 -0.09742
41.25 -0.09869
41.3 -0.0993
41.35 -0.09951
41.4 -0.0991
41.45 -0.09866
41.5 -0.09786
41.55 -0.09688
41.6 -0.09526
41.65 -0.09343
41.7 -0.09127
41.75 -0.08889
41.8 -0.08661
41.85 -0.08425
41.9 -0.08188
41.95 -0.07953
42 -0.07694
42.05 -0.07435
42.1 -0.07191
42.15 -0.06968
42.2 -0.06722
42.25 -0.0648
42.3 -0.06242
42.35 -0.06009
42.4 -0.05781
42.45 -0.05548
42.5 -0.05281
42.55 -0.05009
42.6 -0.04702
42.65 -0.04363
42.7 -0.03998
42.75 -0.03607
42.8 -0.03169
42.85 -0.02721
42.9 -0.02236
42.95 -0.017
43 -0.01111
43.05 -0.00507
43.1 0.0016
43.15 0.00875
43.2 0.0161
43.25 0.02356
43.3 0.03122
43.35 0.03862
43.4 0.04593
43.45 0.05336
43.5 0.06064
43.55 0.06807
43.6 0.07537
43.65 0.08242
43.7 0.08916
43.75 0.09547
43.8 0.1016
43.85 0.10749
43.9 0.11284
43.95 0.11758
44 0.12152
44.05 0.12486
44.1 0.12764
44.15 0.13003
44.2 0.13195
44.25 0.13366
44.3 0.13485
44.35 0.13575
44.4 0.13612
44.45 0.13615
44.5 0.13568
44.55 0.13455
44.6 0.13319
44.65 0.13139
44.7 0.12961
44.75 0.12768
44.8 0.12548
44.85 0.12327
44.9 0.12088
44.95 0.11803
45 0.11505
45.05 0.11207
45.1 0.10886
45.15 0.10562
45.2 0.10219
45.25 0.09865
45.3 0.09508
45.35 0.09154
45.4 0.08836
45.45 0.08518
45.5 0.08209
45.55 0.07891
45.6 0.07573
45.65 0.0729
45.7 0.07032
45.75 0.06757
45.8 0.0649
45.85 0.06226
45.9 0.05972
45.95 0.05709
46 0.05456
46.05 0.05213
46.1 0.04955
46.15 0.04707
46.2 0.04472
46.25 0.04215
46.3 0.03966
46.35 0.03725
46.4 0.03491
46.45 0.03252
46.5 0.03016
46.55 0.02795
46.6 0.0256
46.65 0.02343
46.7 0.02099
46.75 0.01866
46.8 0.01656
46.85 0.01455
46.9 0.01255
46.95 0.01057
47 0.00878
47.05 0.00671
47.1 0.00475
47.15 0.00268
47.2 0.00081
47.25 -0.0007
47.3 -0.00208
47.35 -0.00342
47.4 -0.0046
47.45 -0.00562
47.5 -0.00676
47.55 -0.00781
47.6 -0.00881
47.65 -0.00985
47.7 -0.01087
47.75 -0.0117
47.8 -0.01249
47.85 -0.01352
47.9 -0.01437
47.95 -0.01498
48 -0.01542
48.05 -0.01589
48.1 -0.01653
48.15 -0.01733
48.2 -0.01816
48.25 -0.01871
48.3 -0.01899
48.35 -0.01938
48.4 -0.01955
48.45 -0.01981
48.5 -0.01989
48.55 -0.02015
48.6 -0.02037
48.65 -0.02071
48.7 -0.02091
48.75 -0.02089
48.8 -0.0208
48.85 -0.02077
48.9 -0.02052
48.95 -0.02037
49 -0.02015
49.05 -0.02013
49.1 -0.02011
49.15 -0.02007
49.2 -0.02009
49.25 -0.02008
49.3 -0.02008
49.35 -0.02005
49.4 -0.02017
49.45 -0.02017
49.5 -0.0199
49.55 -0.01973
49.6 -0.0193
49.65 -0.01899
49.7 -0.01876
49.75 -0.01864
49.8 -0.01865
49.85 -0.01848
49.9 -0.01852
49.95 -0.01854
50 -0.01846
50.05 -0.01807
50.1 -0.01758
50.15 -0.01693
50.2 -0.01666
50.25 -0.01622
50.3 -0.01607
50.35 -0.01616
50.4 -0.01634
50.45 -0.01643
50.5 -0.01616
50.55 -0.0161
50.6 -0.01595
50.65 -0.01556
50.7 -0.01512
50.75 -0.01471
50.8 -0.01453
50.85 -0.01424
50.9 -0.01386
50.95 -0.01363
51 -0.01318
51.05 -0.01291
51.1 -0.01285
51.15 -0.01258
51.2 -0.01257
51.25 -0.01233
51.3 -0.01205
51.35 -0.01165
51.4 -0.01123
51.45 -0.01079
51.5 -0.01068
51.55 -0.01049
51.6 -0.01049
51.65 -0.01049
51.7 -0.01037
51.75 -0.01022
51.8 -0.01
51.85 -0.01002
51.9 -0.00986
51.95 -0.00988
52 -0.00967
52.05 -0.00943
52.1 -0.00931
52.15 -0.0094
52.2 -0.00948
52.25 -0.00925
52.3 -0.00928
52.35 -0.00922
52.4 -0.00897
52.45 -0.00879
52.5 -0.00869
52.55 -0.00869
52.6 -0.00866
52.65 -0.00867
52.7 -0.00839
52.75 -0.008
52.8 -0.00767
52.85 -0.00728
52.9 -0.00685
52.95 -0.00671
53 -0.00665
53.05 -0.00684
53.1 -0.00681
53.15 -0.00694
53.2 -0.00692
53.25 -0.00667
53.3 -0.0063
53.35 -0.006
53.4 -0.00587
53.45 -0.00573
53.5 -0.00574
53.55 -0.00583
53.6 -0.00607
53.65 -0.00606
53.7 -0.00598
53.75 -0.00585
53.8 -0.00577
53.85 -0.0055
53.9 -0.00545
53.95 -0.00521
54 -0.00485
54.05 -0.00475
54.1 -0.00477
54.15 -0.00497
54.2 -0.00491
54.25 -0.00493
54.3 -0.00493
54.35 -0.00511
54.4 -0.005
54.45 -0.00498
54.5 -0.00512
54.55 -0.00525
54.6 -0.00539
54.65 -0.00558
54.7 -0.00583
54.75 -0.00594
54.8 -0.00585
54.85 -0.00571
54.9 -0.00535
54.95 -0.00521
55 -0.00487
55.05 -0.00443
55.1 -0.00398
55.15 -0.0036
55.2 -0.00336
55.25 -0.00338
55.3 -0.00323
55.35 -0.00306
55.4 -0.00281
55.45 -0.00256
55.5 -0.0025
55.55 -0.00259
55.6 -0.00264
55.65 -0.00273
55.7 -0.00285
55.75 -0.00283
55.8 -0.00293
55.85 -0.00313
55.9 -0.00338
55.95 -0.00334
56 -0.00348
56.05 -0.00369
56.1 -0.00371
56.15 -0.00383
56.2 -0.00368
56.25 -0.0033
56.3 -0.00275
56.35 -0.00254
56.4 -0.00232
56.45 -0.00204
56.5 -0.00166
56.55 -0.00139
56.6 -0.00131
56.65 -0.00125
56.7 -0.00115
56.75 -0.00113
56.8 -0.00123
56.85 -0.00149
56.9 -0.00152
56.95 -0.00136
57 -0.00115
57.05 -0.0013
57.1 -0.00156
57.15 -0.0017
57.2 -0.00169
57.25 -0.00195
57.3 -0.002
57.35 -0.00218
57.4 -0.00228
57.45 -0.00216
57.5 -0.00212
57.55 -0.0023
57.6 -0.00246
57.65 -0.00246
57.7 -0.00226
57.75 -0.00224
57.8 -0.00222
57.85 -0.00213
57.9 -0.00209
57.95 -0.00214
58 -0.00228
58.05 -0.0021
58.1 -0.00181
58.15 -0.00157
58.2 -0.0012
58.25 -0.00106
58.3 -0.00119
58.35 -0.00127
58.4 -0.00137
58.45 -0.00145
58.5 -0.00149
58.55 -0.00128
58.6 -0.00095
58.65 -0.00098
58.7 -0.00111
58.75 -0.00096
58.8 -0.00067
58.85 -0.00029
58.9 -0.00011
58.95 0
59 -0.00023
59.05 -0.00044
59.1 -0.00089
59.15 -0.00114
59.2 -0.00113
59.25 -0.00109
59.3 -0.00101
59.35 -0.00118
59.4 -0.0014
59.45 -0.00161
59.5 -0.00148
59.55 -0.00125
59.6 -0.00131
59.65 -0.00125
59.7 -0.00097
59.75 -0.00068
59.8 -0.00076
59.85 -0.00065
59.9 -0.00042
59.95 -0.0004
60 -0.00057
60.05 -0.00078
60.1 -0.00075
60.15 -0.00085
60.2 -0.00095
60.25 -0.0012
60.3 -0.00156
60.35 -0.00187
60.4 -0.00181
60.45 -0.0019
60.5 -0.00186
60.55 -0.00193
60.6 -0.00197
60.65 -0.00179
60.7 -0.00174
60.75 -0.00151
60.8 -0.0015
60.85 -0.00118
60.9 -0.00083
60.95 -0.00059
61 -0.00044
61.05 -0.00038
61.1 -0.00021
61.15 0.00002
61.2 0.00005
61.25 -0.00001
61.3 -0.0003
61.35 -0.00069
61.4 -0.00106
61.45 -0.00116
61.5 -0.00124
61.55 -0.00111
61.6 -0.00075
61.65 -0.00028
61.7 0.00017
61.75 0.0005
61.8 0.00066
61.85 0.00079
61.9 0.00074
61.95 0.00081
62 0.00074
62.05 0.00044
62.1 0.00019
62.15 -0.00018
62.2 -0.00056
62.25 -0.00093
62.3 -0.0013
62.35 -0.00124
62.4 -0.00091
62.45 -0.00084
62.5 -0.00071
62.55 -0.00041
62.6 -0.00023
62.65 -0.00029
62.7 -0.00042
62.75 -0.00032
62.8 -0.00003
62.85 0.00023
62.9 0.00042
62.95 0.00061
63 0.00088
63.05 0.00113
63.1 0.00107
63.15 0.00071
63.2 0.00059
63.25 0.00048
63.3 0.00052
63.35 0.00068
63.4 0.00074
63.45 0.00075
63.5 0.00053
63.55 0.00037
63.6 0.00028
63.65 0.00019
63.7 0.0002
63.75 0.00036
63.8 0.0003
63.85 0.00019
63.9 0.00003
63.95 -0.00015
64 -0.00021
64.05 -0.00016
64.1 -0.00028
64.15 -0.00062
64.2 -0.001
64.25 -0.00139
64.3 -0.00139
64.35 -0.00139
64.4 -0.00132
64.45 -0.00123
64.5 -0.00089
64.55 -0.00072
64.6 -0.0007
64.65 -0.00058
64.7 -0.00029
64.75 -0.00017
64.8 0
64.85 0.00027
64.9 0.00052
64.95 0.00043
65 0.00006
65.05 -0.00041
65.1 -0.00061
65.15 -0.00053
65.2 -0.00059
65.25 -0.00083
65.3 -0.00079
65.35 -0.00049
65.4 -0.00051
65.45 -0.00049
65.5 -0.00058
65.55 -0.00059
65.6 -0.00065
65.65 -0.00048
65.7 -0.00035
65.75 -0.00019
65.8 -0.00011
65.85 -0.00016
65.9 -0.00026
65.95 -0.00014
66 0
66.05 0.00026
66.1 0.00053
66.15 0.00072
66.2 0.00072
66.25 0.00048
66.3 0.00032
66.35 0.00039
66.4 0.00018
66.45 0.00012
66.5 -0.00018
66.55 -0.00052
66.6 -0.00074
66.65 -0.00084
66.7 -0.00066
66.75 -0.00033
66.8 -0.0003
66.85 -0.00027
66.9 -0.00037
66.95 -0.00028
67 -0.00006
67.05 -0.00001
67.1 -0.0001
67.15 -0.00024
67.2 -0.00043
67.25 -0.00064
67.3 -0.0006
67.35 -0.00075
67.4 -0.00091
67.45 -0.00097
67.5 -0.00097
67.55 -0.00102
67.6 -0.00107
67.65 -0.00078
67.7 -0.0004
67.75 0.00011
67.8 0.00029
67.85 0.00042
67.9 0.00053
67.95 0.00037
68 0.00017
68.05 0.00018
68.1 -0.00001
68.15 -0
68.2 -0.00008
68.25 -0.00027
68.3 -0.0003
68.35 -0.00022
68.4 -0.00025
68.45 -0.00016
68.5 -0.00009
68.55 -0.00017
68.6 -0.00024
68.65 -0.00013
68.7 -0.00014
68.75 0.00007
68.8 0.00013
68.85 -0.00009
68.9 -0.00026
68.95 -0.00054
69 -0.00081
69.05 -0.00096
69.1 -0.00099
69.15 -0.0008
69.2 -0.00052
69.25 -0.0003
69.3 -0.00009
69.35 0.00022
69.4 0.00036
69.45 0.00029
69.5 0.00017
69.55 0.00029
69.6 0.00037
69.65 0.00042
69.7 0.00042
69.75 0.00061
69.8 0.00065
69.85 0.00073
69.9 0.00057
69.95 0.0005
70 0.00027
70.05 -0.00008
70.1 -0.0002
70.15 -0.00024
70.2 -0.00036
70.25 -0.00058
70.3 -0.00051
70.35 -0.00055
70.4 -0.00047
70.45 -0.00052
70.5 -0.00037
70.55 -0.00041
70.6 -0.0006
70.65 -0.0005
70.7 -0.00052
70.75 -0.00044
70.8 -0.00023
70.85 0.00009
70.9 0.00037
70.95 0.00066
71 0.00097
71.05 0.00104
71.1 0.00087
71.15 0.00074
71.2 0.00065
71.25 0.00058
71.3 0.00032
71.35 0.0003
71.4 0.00037
71.45 0.00012
71.5 -0.00019
71.55 -0.00044
71.6 -0.00074
71.65 -0.0009
71.7 -0.00114
71.75 -0.00134
71.8 -0.00149
71.85 -0.00135
71.9 -0.00091
71.95 -0.00033
72 -0.00012
72.05 -0.00013
72.1 0.00006
72.15 0.00031
72.2 0.00037
72.25 0.00028
72.3 0.00021
72.35 -0.00009
72.4 -0.00013
72.45 -0.00003
72.5 -0.00016
72.55 -0
72.6 0.0003
72.65 0.0006
72.7 0.00087
72.75 0.00072
72.8 0.0008
72.85 0.00075
72.9 0.00046
72.95 0.00001
73 -0.00025
73.05 -0.00019
73.1 -0.00023
73.15 -0.00041
73.2 -0.00066
73.25 -0.00057
73.3 -0.00055
73.35 -0.00051
73.4 -0.0005
73.45 -0.00029
73.5 -0.0001
73.55 -0.0002
73.6 -0.00003
73.65 0.00017
73.7 0.00019
73.75 0.00034
73.8 0.00058
73.85 0.00063
73.9 0.00042
73.95 0.0004
74 0.00046
74.05 0.00047
74.1 0.00056
74.15 0.00034
74.2 -0.00004
74.25 -0.00016
74.3 -0.00012
74.35 0.00012
74.4 0.00008
74.45 0.00003
74.5 0.00011
74.55 0.00001
74.6 -0.00025
74.65 -0.00049
74.7 -0.00053
74.75 -0.00051
74.8 -0.00063
74.85 -0.00043
74.9 -0.00022
74.95 0.00009
75 0.00034
75.05 0.00056
75.1 0.00083
75.15 0.001
75.2 0.00119
75.25 0.00121
75.3 0.00097
75.35 0.00052
75.4 -0.00008
75.45 -0.00061
75.5 -0.00105
75.55 -0.00138
75.6 -0.00138
75.65 -0.00125
75.7 -0.00098
75.75 -0.00072
75.8 -0.00041
75.85 -0.00011
75.9 0.00025
75.95 0.0005
76 0.00083
76.05 0.00078
76.1 0.00067
76.15 0.00048
76.2 0.00055
76.25 0.00033
76.3 0.00023
76.35 0.00013
76.4 -0.00016
76.45 -0.00026
76.5 -0.00044
76.55 -0.00035
76.6 -0.00015
76.65 -0.00012
76.7 0.00005
76.75 0.00017
76.8 0.00032
76.85 0.00031
76.9 0.00032
76.95 0.00042
77 0.00061
77.05 0.00047
77.1 0.00037
77.15 0.00006
77.2 -0.0003
77.25 -0.00045
77.3 -0.00045
77.35 -0.00057
77.4 -0.00078
77.45 -0.001
77.5 -0.00104
77.55 -0.00093
77.6 -0.0008
77.65 -0.00072
77.7 -0.00044
77.75 -0.00002
77.8 0.00006
77.85 0.00002
77.9 -0.00015
77.95 -0.00032
78 -0.00032
78.05 -0.00033
78.1 -0.00044
78.15 -0.00053
78.2 -0.00056
78.25 -0.0005
78.3 -0.00054
78.35 -0.00049
78.4 -0.00049
78.45 -0.00032
78.5 -0.00043
78.55 -0.00049
78.6 -0.00032
78.65 -0.00011
78.7 0.00009
78.75 0.00037
78.8 0.00032
78.85 0.00006
78.9 -0.00025
78.95 -0.00033
79 -0.00051
79.05 -0.00065
79.1 -0.00092
79.15 -0.00119
79.2 -0.00106
79.25 -0.00104
79.3 -0.00086
79.35 -0.00078
79.4 -0.00087
79.45 -0.00101
79.5 -0.00118
79.55 -0.00117
79.6 -0.00127
79.65 -0.00098
79.7 -0.0006
79.75 -0.00019
79.8 -0.00012
79.85 0.0001
79.9 0.00047
79.95 0.00052
80 0.00068
80.05 0.00079
80.1 0.00066
80.15 0.00037
80.2 0.00008
80.25 0.00013
80.3 -0.00006
80.35 -0.00023
80.4 -0.00051
80.45 -0.00048
80.5 -0.00029
80.55 -0.00006
80.6 0.0001
80.65 0.00015
80.7 0.00013
80.75 -0.00008
80.8 0
80.85 0.00028
80.9 0.00027
80.95 0.00036
81 0.00024
81.05 0.0001
81.1 0.00005
81.15 0.00013
81.2 -0.00007
81.25 -0.00009
81.3 -0.00004
81.35 -0.00009
81.4 0.00008
81.45 0.00006
81.5 -0.00009
81.55 -0.00008
81.6 -0.00001
81.65 0.00005
81.7 0.00006
81.75 0.00021
81.8 0.00049
81.85 0.00085
81.9 0.00098
81.95 0.00105
82 0.001
82.05 0.00095
82.1 0.001
82.15 0.00105
82.2 0.00099
82.25 0.00062
82.3 0.00031
82.35 0.00031
82.4 0.00049
82.45 0.00032
82.5 0.00008
82.55 -0.00023
82.6 -0.00045
82.65 -0.00041
82.7 -0.00013
82.75 0
82.8 -0.00015
82.85 -0.00048
82.9 -0.00052
82.95 -0.00053
83 -0.00042
83.05 -0.00056
83.1 -0.00076
83.15 -0.00089
83.2 -0.001
83.25 -0.00084
83.3 -0.00063
83.35 -0.0003
83.4 -0.00013
83.45 -0.00015
83.5 -0.0002
83.55 -0.00005
83.6 -0.00019
83.65 -0.00051
83.7 -0.00049
83.75 -0.00058
83.8 -0.00052
83.85 -0.00064
83.9 -0.00074
83.95 -0.00078
84 -0.00083
84.05 -0.00063
84.1 -0.00061
84.15 -0.00035
84.2 -0.00029
84.25 -0.0003
84.3 -0.00047
84.35 -0.0005
84.4 -0.00064
84.45 -0.0007
84.5 -0.00082
84.55 -0.00079
84.6 -0.00076
84.65 -0.00069
84.7 -0.00074
84.75 -0.00093
84.8 -0.00091
84.85 -0.00086
84.9 -0.00059
84.95 -0.00056
85 -0.00047
85.05 -0.00059
85.1 -0.00058
85.15 -0.00047
85.2 -0.00052
85.25 -0.00032
85.3 0.0001
85.35 0.00049
85.4 0.00061
85.45 0.0006
85.5 0.00057
85.55 0.00063
85.6 0.00077
85.65 0.00106
85.7 0.00114
85.75 0.00107
85.8 0.00098
85.85 0.00103
85.9 0.00101
85.95 0.00087
86 0.00076
86.05 0.00041
86.1 0.00016
86.15 -0.00007
86.2 -0.00002
86.25 -0.00014
86.3 -0.0002
86.35 -0.00018
86.4 -0.00026
86.45 -0.00041
86.5 -0.0005
86.55 -0.00073
86.6 -0.00069
86.65 -0.00063
86.7 -0.00063
86.75 -0.00054
86.8 -0.00051
86.85 -0.00036
86.9 -0.00031
86.95 0.00001
87 0.00047
87.05 0.00073
87.1 0.00074
87.15 0.00085
87.2 0.00073
87.25 0.00071
87.3 0.00076
87.35 0.00093
87.4 0.001
87.45 0.00108
87.5 0.00093
87.55 0.00088
87.6 0.00094
87.65 0.00082
87.7 0.0008
87.75 0.00075
87.8 0.0007
87.85 0.00042
87.9 0.00007
87.95 -0.0003
88 -0.00049
88.05 -0.00033
88.1 -0.00003
88.15 -0.00003
88.2 -0.00018
88.25 -0.0001
88.3 -0.00017
88.35 -0.00031
88.4 -0.00015
88.45 0.00018
88.5 0.00019
88.55 0.00009
88.6 0.00007
88.65 -0.00005
88.7 -0.00033
88.75 -0.00065
88.8 -0.0007
88.85 -0.00057
88.9 -0.00047
88.95 -0.00027
89 0.00009
89.05 0.00021
89.1 0.00019
89.15 0.00009
89.2 0.00026
89.25 0.00021
89.3 0.00013
89.35 0.00011
89.4 0.00009
89.45 -0.00007
89.5 -0.00019
89.55 -0.0002
89.6 -0.00003
89.65 0.00011
89.7 -0.00002
89.75 -0.00017
89.8 -0.00004
89.85 0.00011
89.9 0.00025
89.95 0.00018
90 0.00036
90.05 0.00058
90.1 0.00077
90.15 0.00099
90.2 0.00079
90.25 0.00051
90.3 0.00026
90.35 0.00006
90.4 -0
90.45 0.00002
90.5 0.00004
90.55 0.00027
90.6 0.00063
90.65 0.00098
90.7 0.00097
90.75 0.00092
90.8 0.00071
90.85 0.00038
90.9 0.00025
90.95 0.00025
91 0.00014
91.05 0.00008
91.1 0.0001
91.15 -0.00002
91.2 -0.00012
91.25 -0.00024
91.3 -0.00049
91.35 -0.00073
91.4 -0.00081
91.45 -0.0009
91.5 -0.00069
91.55 -0.00032
91.6 -0.00009
91.65 0.00019
91.7 0.00058
91.75 0.00069
91.8 0.00087
91.85 0.00098
91.9 0.00071
91.95 0.00065
92 0.00048
92.05 0.00008
92.1 -0.00004
92.15 0.00008
92.2 0.00028
92.25 0.0004
92.3 0.00067
92.35 0.00073
92.4 0.00048
92.45 0.00004
92.5 -0.00047
92.55 -0.00079
92.6 -0.00116
92.65 -0.00107
92.7 -0.001
92.75 -0.00089
92.8 -0.001
92.85 -0.0009
92.9 -0.00053
92.95 -0.00001
93 0.00053
93.05 0.00084
93.1 0.00116
93.15 0.00135
93.2 0.00137
93.25 0.00108
93.3 0.00102
93.35 0.0007
93.4 0.00058
93.45 0.00065
93.5 0.00074
93.55 0.00055
93.6 0.00057
93.65 0.00072
93.7 0.00068
93.75 0.0007
93.8 0.00066
93.85 0.00032
93.9 -0.00019
93.95 -0.00049
94 -0.00068
94.05 -0.0009
94.1 -0.00085
94.15 -0.00098
94.2 -0.00102
94.25 -0.00096
94.3 -0.00102
94.35 -0.00116
94.4 -0.00122
94.45 -0.00093
94.5 -0.00065
94.55 -0.00027
94.6 -0.00013
94.65 0.00007
94.7 -0.00004
94.75 -0.00011
94.8 -0.00011
94.85 -0.00031
94.9 -0.00022
94.95 -0.00021
95 -0.00009
95.05 0.00004
95.1 0.00014
95.15 0.00027
95.2 0.00049
95.25 0.0005
95.3 0.00037
95.35 0.00034
95.4 0.00015
95.45 0.00003
95.5 0.0001
95.55 0.00028
95.6 0.00016
95.65 -0.00003
95.7 -0.00033
95.75 -0.00056
95.8 -0.00072
95.85 -0.00081
95.9 -0.00065
95.95 -0.00072
96 -0.00062
96.05 -0.00073
96.1 -0.00096
96.15 -0.00095
96.2 -0.00097
96.25 -0.0008
96.3 -0.00053
96.35 -0.00015
96.4 0.00028
96.45 0.00052
96.5 0.00039
96.55 0.00023
96.6 0.00002
96.65 -0.0001
96.7 -0.00036
96.75 -0.00032
96.8 -0.00017
96.85 -0.00005
96.9 0.00011
96.95 0.00001
97 -0.00005
97.05 -0.00009
97.1 -0.00028
97.15 -0.00017
97.2 -0.00012
97.25 0.00014
97.3 0.00047
97.35 0.00086
97.4 0.00113
97.45 0.00112
97.5 0.00105
97.55 0.00087
97.6 0.00091
97.65 0.00103
97.7 0.00108
97.75 0.00077
97.8 0.00068
97.85 0.00066
97.9 0.00037
97.95 -0.00011
98 -0.00029
98.05 -0.00033
98.1 -0.00039
98.15 -0.00037
98.2 -0.0001
98.25 0.00018
98.3 0.00046
98.35 0.00063
98.4 0.0006
98.45 0.00062
98.5 0.00061
98.55 0.00036
98.6 0.00036
98.65 0.00046
98.7 0.00039
98.75 0.0002
98.8 0.00013
98.85 0.00002
98.9 -0.00023
98.95 -0.00047
99 -0.00042
99.05 -0.0003
99.1 0.00001
99.15 0.00024
99.2 0.0003
99.25 0.00048
99.3 0.00033
99.35 0.00002
99.4 -0.00006
99.45 -0.00006
99.5 -0.00031
99.55 -0.00026
99.6 -0.00035
99.65 -0.00038
99.7 -0.00059
99.75 -0.00092
99.8 -0.00084
99.85 -0.0008
99.9 -0.00096
99.95 -0.00105
