0 0
0.05 0.00605
0.1 0.0119
0.15 0.01526
0.2 0.02391
0.25 0.03237
0.3 0.03955
0.35 0.04709
0.4 0.05093
0.45 0.05108
0.5 0.05282
0.55 0.05777
0.6 0.05674
0.65 0.05575
0.7 0.0589
0.75 0.06071
0.8 0.05893
0.85 0.05403
0.9 0.04617
0.95 0.04181
1 0.04265
1.05 0.04128
1.1 0.03994
1.15 0.03586
1.2 0.03636
1.25 0.04035
1.3 0.04769
1.35 0.04801
1.4 0.04605
1.45 0.04443
1.5 0.04376
1.55 0.04103
1.6 0.03961
1.65 0.03395
1.7 0.03202
1.75 0.02785
1.8 0.02644
1.85 0.02307
1.9 0.02424
1.95 0.02658
2 0.02501
2.05 0.02105
2.1 0.02435
2.15 0.03034
2.2 0.03847
2.25 0.04205
2.3 0.03989
2.35 0.04153
2.4 0.04413
2.45 0.04596
2.5 0.0487
2.55 0.04691
2.6 0.04821
2.65 0.0446
2.7 0.04499
2.75 0.04117
2.8 0.04221
2.85 0.04599
2.9 0.05132
2.95 0.05247
3 0.0503
3.05 0.04436
3.1 0.03971
3.15 0.03146
3.2 0.02558
3.25 0.02179
3.3 0.01651
3.35 0.01436
3.4 0.01637
3.45 0.01383
3.5 0.01201
3.55 0.00713
3.6 0.00153
3.65 0.00355
3.7 0.0048
3.75 0.00506
3.8 0.00728
3.85 0.0128
3.9 0.01512
3.95 0.01297
4 0.01554
4.05 0.01476
4.1 0.01426
4.15 0.01326
4.2 0.00794
4.25 0.00451
4.3 -0.00039
4.35 -0.00052
4.4 -0.00452
4.45 -0.00865
4.5 -0.01436
4.55 -0.01813
4.6 -0.02173
4.65 -0.03494
4.7 -0.04728
4.75 -0.06441
4.8 -0.08871
4.85 -0.11158
4.9 -0.1357
4.95 -0.16448
5 -0.19744
5.05 -0.24099
5.1 -0.28585
5.15 -0.33979
5.2 -0.39547
5.25 -0.45468
5.3 -0.52013
5.35 -0.58542
5.4 -0.65041
5.45 -0.7244
5.5 -0.79493
5.55 -0.86561
5.6 -0.93398
5.65 -1.00598
5.7 -1.0706
5.75 -1.13305
5.8 -1.18986
5.85 -1.23817
5.9 -1.27896
5.95 -1.31134
6 -1.34322
6.05 -1.3654
6.1 -1.37775
6.15 -1.38317
6.2 -1.3862
6.25 -1.38166
6.3 -1.37313
6.35 -1.35588
6.4 -1.32963
6.45 -1.29496
6.5 -1.25417
6.55 -1.20616
6.6 -1.15634
6.65 -1.10509
6.7 -1.04944
6.75 -0.98753
6.8 -0.92015
6.85 -0.84234
6.9 -0.75547
6.95 -0.65807
7 -0.55107
7.05 -0.43606
7.1 -0.32046
7.15 -0.20049
7.2 -0.07769
7.25 0.03899
7.3 0.15639
7.35 0.27215
7.4 0.38748
7.45 0.50171
7.5 0.61262
7.55 0.71521
7.6 0.81189
7.65 0.89547
7.7 0.97305
7.75 1.04429
7.8 1.10365
7.85 1.15817
7.9 1.20243
7.95 1.24145
8 1.27155
8.05 1.28754
8.1 1.29671
8.15 1.30237
8.2 1.30296
8.25 1.29997
8.3 1.29536
8.35 1.28767
8.4 1.27714
8.45 1.26217
8.5 1.2426
8.55 1.21925
8.6 1.19335
8.65 1.16595
8.7 1.1395
8.75 1.11087
8.8 1.07964
8.85 1.05252
8.9 1.02504
8.95 0.99982
9 0.97559
9.05 0.94802
9.1 0.91859
9.15 0.89263
9.2 0.87023
9.25 0.84417
9.3 0.82348
9.35 0.80213
9.4 0.77708
9.45 0.75097
9.5 0.72387
9.55 0.70444
9.6 0.68828
9.65 0.66927
9.7 0.65037
9.75 0.63128
9.8 0.60992
9.85 0.59163
9.9 0.57348
9.95 0.55503
10 0.53653
10.05 0.51806
10.1 0.50135
10.15 0.48806
10.2 0.47812
10.25 0.46532
10.3 0.45182
10.35 0.43641
10.4 0.42433
10.45 0.41318
10.5 0.40071
10.55 0.38369
10.6 0.36514
10.65 0.34062
10.7 0.32026
10.75 0.2969
10.8 0.27911
10.85 0.26537
10.9 0.24743
10.95 0.22666
11 0.20547
11.05 0.18745
11.1 0.16625
11.15 0.14543
11.2 0.12514
11.25 0.10516
11.3 0.0932
11.35 0.08269
11.4 0.0759
11.45 0.07014
11.5 0.06306
11.55 0.05166
11.6 0.03693
11.65 0.01876
11.7 0.00156
11.75 -0.01714
11.8 -0.02885
11.85 -0.04109
11.9 -0.05489
11.95 -0.06211
12 -0.07075
12.05 -0.08161
12.1 -0.08831
12.15 -0.09368
12.2 -0.1021
12.25 -0.11355
12.3 -0.12131
12.35 -0.1329
12.4 -0.13714
12.45 -0.14518
12.5 -0.14805
12.55 -0.14712
12.6 -0.14966
12.65 -0.15369
12.7 -0.15415
12.75 -0.15892
12.8 -0.16577
12.85 -0.16987
12.9 -0.17451
12.95 -0.17323
13 -0.17313
13.05 -0.17001
13.1 -0.1645
13.15 -0.15787
13.2 -0.15143
13.25 -0.152
13.3 -0.15609
13.35 -0.16266
13.4 -0.16631
13.45 -0.17083
13.5 -0.17687
13.55 -0.18413
13.6 -0.18444
13.65 -0.18188
13.7 -0.17667
13.75 -0.17477
13.8 -0.17161
13.85 -0.17205
13.9 -0.1728
13.95 -0.16883
14 -0.16136
14.05 -0.15611
14.1 -0.15218
14.15 -0.1505
14.2 -0.14726
14.25 -0.14624
14.3 -0.15024
14.35 -0.15585
14.4 -0.15904
14.45 -0.16036
14.5 -0.15993
14.55 -0.16046
14.6 -0.15667
14.65 -0.14979
14.7 -0.14706
14.75 -0.14777
14.8 -0.14414
14.85 -0.14321
14.9 -0.13718
14.95 -0.13429
15 -0.13276
15.05 -0.12811
15.1 -0.12279
15.15 -0.11601
15.2 -0.10746
15.25 -0.10018
15.3 -0.09416
15.35 -0.09131
15.4 -0.09067
15.45 -0.09369
15.5 -0.10065
15.55 -0.10654
15.6 -0.10763
15.65 -0.10986
15.7 -0.10811
15.75 -0.10738
15.8 -0.1032
15.85 -0.0966
15.9 -0.08954
15.95 -0.08344
16 -0.08343
16.05 -0.08835
16.1 -0.09571
16.15 -0.10393
16.2 -0.10313
16.25 -0.09633
16.3 -0.09181
16.35 -0.08648
16.4 -0.08445
16.45 -0.08556
16.5 -0.08864
16.55 -0.08773
16.6 -0.08571
16.65 -0.08012
16.7 -0.07506
16.75 -0.07526
16.8 -0.07728
16.85 -0.07415
16.9 -0.06711
16.95 -0.05879
17 -0.04991
17.05 -0.04412
17.1 -0.04028
17.15 -0.03621
17.2 -0.03506
17.25 -0.03506
17.3 -0.03378
17.35 -0.03377
17.4 -0.03245
17.45 -0.03174
17.5 -0.03425
17.55 -0.03971
17.6 -0.04777
17.65 -0.05275
17.7 -0.05756
17.75 -0.06466
17.8 -0.07023
17.85 -0.07369
17.9 -0.07769
17.95 -0.07694
18 -0.07133
18.05 -0.06192
18.1 -0.05692
18.15 -0.0573
18.2 -0.05353
18.25 -0.05123
18.3 -0.04778
18.35 -0.04605
18.4 -0.04452
18.45 -0.04026
18.5 -0.03754
18.55 -0.03915
18.6 -0.04097
18.65 -0.03964
18.7 -0.0394
18.75 -0.03679
18.8 -0.03148
18.85 -0.0327
18.9 -0.03689
18.95 -0.04236
19 -0.0502
19.05 -0.05239
19.1 -0.05582
19.15 -0.05868
19.2 -0.05725
19.25 -0.05647
19.3 -0.05423
19.35 -0.04761
19.4 -0.03805
19.45 -0.03566
19.5 -0.0317
19.55 -0.03265
19.6 -0.02939
19.65 -0.02261
19.7 -0.01878
19.75 -0.02131
19.8 -0.02116
19.85 -0.01715
19.9 -0.01981
19.95 -0.02196
20 -0.02144
20.05 -0.02407
20.1 -0.0296
20.15 -0.02856
20.2 -0.02457
20.25 -0.02103
20.3 -0.01831
20.35 -0.01283
20.4 -0.01161
20.45 -0.00728
20.5 -0.00778
20.55 -0.00916
20.6 -0.01435
20.65 -0.02093
20.7 -0.02829
20.75 -0.03592
20.8 -0.03759
20.85 -0.03824
20.9 -0.03528
20.95 -0.03017
21 -0.02934
21.05 -0.03026
21.1 -0.02984
21.15 -0.02851
21.2 -0.03124
21.25 -0.03287
21.3 -0.03341
21.35 -0.03029
21.4 -0.02547
21.45 -0.02055
21.5 -0.01607
21.55 -0.00921
21.6 -0.00429
21.65 -0.0024
21.7 -0.00628
21.75 -0.00643
21.8 -0.00314
21.85 -0.00514
21.9 -0.00925
21.95 -0.01192
22 -0.01738
22.05 -0.01674
22.1 -0.01176
22.15 -0.00884
22.2 -0.01152
22.25 -0.01014
22.3 -0.00652
22.35 -0.00847
22.4 -0.00638
22.45 -0.00128
22.5 -0.00121
22.55 0.00221
22.6 0.00004
22.65 -0.00278
22.7 -0.00439
22.75 -0.00425
22.8 -0.00241
22.85 -0.00299
22.9 -0.00434
22.95 -0.00247
23 -0.00375
23.05 -0.00228
23.1 -0.00466
23.15 -0.00529
23.2 -0.00701
23.25 -0.00556
23.3 -0.00242
23.35 -0.00027
23.4 0.00362
23.45 0.00259
23.5 0.00527
23.55 0.00924
23.6 0.00962
23.65 0.00366
23.7 -0.0041
23.75 -0.00863
23.8 -0.01622
23.85 -0.01742
23.9 -0.01958
23.95 -0.02418
24 -0.02872
24.05 -0.0317
24.1 -0.03364
24.15 -0.03453
24.2 -0.03164
24.25 -0.02518
24.3 -0.01869
24.35 -0.01136
24.4 -0.00604
24.45 -0.00201
24.5 0.00277
24.55 0.00932
24.6 0.00975
24.65 0.01279
24.7 0.01461
24.75 0.01072
24.8 0.01076
24.85 0.01197
24.9 0.00757
24.95 0.0004
25 -0.00613
25.05 -0.01021
25.1 -0.01062
25.15 -0.00806
25.2 -0.00637
25.25 -0.00141
25.3 0.00536
25.35 0.00689
25.4 0.00457
25.45 0.00573
25.5 0.00272
25.55 -0.00202
25.6 -0.00099
25.65 -0.00224
25.7 -0.00856
25.75 -0.01056
25.8 -0.00922
25.85 -0.00658
25.9 -0.00277
25.95 0.00184
26 0.00316
26.05 -0.00094
26.1 -0.00884
26.15 -0.01729
26.2 -0.01982
26.25 -0.02221
26.3 -0.02507
26.35 -0.02573
26.4 -0.02335
26.45 -0.01714
26.5 -0.01277
26.55 -0.00531
26.6 -0.00094
26.65 0.00318
26.7 0.00007
26.75 0.00159
26.8 0.0004
26.85 -0.0033
26.9 -0.00834
26.95 -0.00904
27 -0.01048
27.05 -0.01089
27.1 -0.01533
27.15 -0.02117
27.2 -0.02341
27.25 -0.02296
27.3 -0.01673
27.35 -0.01631
27.4 -0.01482
27.45 -0.01048
27.5 -0.01062
27.55 -0.01551
27.6 -0.01783
27.65 -0.02193
27.7 -0.02239
27.75 -0.02444
27.8 -0.02489
27.85 -0.02784
27.9 -0.03543
27.95 -0.04221
28 -0.05103
28.05 -0.0626
28.1 -0.07296
28.15 -0.0854
28.2 -0.09815
28.25 -0.11388
28.3 -0.12714
28.35 -0.13948
28.4 -0.15652
28.45 -0.17869
28.5 -0.20195
28.55 -0.22847
28.6 -0.25388
28.65 -0.27929
28.7 -0.30911
28.75 -0.3503
28.8 -0.39613
28.85 -0.44488
28.9 -0.49974
28.95 -0.55482
29 -0.61258
29.05 -0.67493
29.1 -0.73489
29.15 -0.79937
29.2 -0.86576
29.25 -0.9331
29.3 -0.99534
29.35 -1.06207
29.4 -1.1287
29.45 -1.19518
29.5 -1.25488
29.55 -1.30628
29.6 -1.3542
29.65 -1.39595
29.7 -1.43188
29.75 -1.46547
29.8 -1.49151
29.85 -1.50823
29.9 -1.52068
29.95 -1.52682
30 -1.52161
30.05 -1.50219
30.1 -1.47227
30.15 -1.43231
30.2 -1.38424
30.25 -1.32805
30.3 -1.25663
30.35 -1.17293
30.4 -1.08231
30.45 -0.98484
30.5 -0.88382
30.55 -0.78144
30.6 -0.6723
30.65 -0.56035
30.7 -0.44638
30.75 -0.33626
30.8 -0.22845
30.85 -0.11777
30.9 -0.00816
30.95 0.10138
31 0.2041
31.05 0.29777
31.1 0.38575
31.15 0.47427
31.2 0.55343
31.25 0.63235
31.3 0.70909
31.35 0.77509
31.4 0.83243
31.45 0.88477
31.5 0.93619
31.55 0.98552
31.6 1.02557
31.65 1.05744
31.7 1.08489
31.75 1.1045
31.8 1.12107
31.85 1.13655
31.9 1.14923
31.95 1.16501
32 1.17932
32.05 1.19332
32.1 1.20365
32.15 1.21289
32.2 1.21867
32.25 1.22156
32.3 1.22442
32.35 1.22773
32.4 1.22952
32.45 1.22521
32.5 1.21527
32.55 1.20477
32.6 1.19184
32.65 1.18257
32.7 1.17722
32.75 1.16747
32.8 1.1589
32.85 1.15029
32.9 1.13507
32.95 1.11866
33 1.10654
33.05 1.09186
33.1 1.07223
33.15 1.05181
33.2 1.03014
33.25 1.01217
33.3 0.99089
33.35 0.96473
33.4 0.93864
33.45 0.91406
33.5 0.88374
33.55 0.85526
33.6 0.82755
33.65 0.79601
33.7 0.76235
33.75 0.73071
33.8 0.69923
33.85 0.66623
33.9 0.63455
33.95 0.60826
34 0.57958
34.05 0.54953
34.1 0.52484
34.15 0.50315
34.2 0.48061
34.25 0.45294
34.3 0.42678
34.35 0.39702
34.4 0.37303
34.45 0.34451
34.5 0.31674
34.55 0.28751
34.6 0.26244
34.65 0.23416
34.7 0.20667
34.75 0.179
34.8 0.15128
34.85 0.12802
34.9 0.10794
34.95 0.08865
35 0.07421
35.05 0.06056
35.1 0.04806
35.15 0.03841
35.2 0.02341
35.25 0.00641
35.3 -0.01162
35.35 -0.03036
35.4 -0.04594
35.45 -0.0552
35.5 -0.06062
35.55 -0.0664
35.6 -0.0689
35.65 -0.07682
35.7 -0.08458
35.75 -0.09295
35.8 -0.10006
35.85 -0.1057
35.9 -0.11677
35.95 -0.12551
36 -0.12994
36.05 -0.13101
36.1 -0.13223
36.15 -0.13681
36.2 -0.14247
36.25 -0.15163
36.3 -0.15556
36.35 -0.16452
36.4 -0.16953
36.45 -0.17612
36.5 -0.17964
36.55 -0.18591
36.6 -0.1886
36.65 -0.18883
36.7 -0.19181
36.75 -0.19031
36.8 -0.18663
36.85 -0.18682
36.9 -0.18927
36.95 -0.1882
37 -0.19131
37.05 -0.19629
37.1 -0.20154
37.15 -0.20742
37.2 -0.21324
37.25 -0.21898
37.3 -0.22237
37.35 -0.2256
37.4 -0.22342
37.45 -0.22291
37.5 -0.21861
37.55 -0.21556
37.6 -0.20756
37.65 -0.20286
37.7 -0.1944
37.75 -0.18453
37.8 -0.17536
37.85 -0.16929
37.9 -0.16128
37.95 -0.15988
38 -0.15671
38.05 -0.15744
38.1 -0.15724
38.15 -0.15905
38.2 -0.16104
38.25 -0.15861
38.3 -0.15462
38.35 -0.15117
38.4 -0.1516
38.45 -0.14865
38.5 -0.14651
38.55 -0.1495
38.6 -0.1537
38.65 -0.1595
38.7 -0.15887
38.75 -0.16118
38.8 -0.16096
38.85 -0.16097
38.9 -0.15443
38.95 -0.14955
39 -0.14671
39.05 -0.14044
39.1 -0.13347
39.15 -0.1273
39.2 -0.11946
39.25 -0.11205
39.3 -0.10807
39.35 -0.10183
39.4 -0.09776
39.45 -0.0973
39.5 -0.09478
39.55 -0.09153
39.6 -0.09121
39.65 -0.09254
39.7 -0.09314
39.75 -0.09495
39.8 -0.09832
39.85 -0.10011
39.9 -0.10408
39.95 -0.10508
40 -0.10775
40.05 -0.1113
40.1 -0.11471
40.15 -0.1154
40.2 -0.1115
40.25 -0.11055
40.3 -0.10546
40.35 -0.10373
40.4 -0.09926
40.45 -0.09655
40.5 -0.09704
40.55 -0.09326
40.6 -0.08715
40.65 -0.08692
40.7 -0.083
40.75 -0.07941
40.8 -0.08102
40.85 -0.08534
40.9 -0.08884
40.95 -0.0929
41 -0.09765
41.05 -0.09882
41.1 -0.09667
41.15 -0.08904
41.2 -0.0792
41.25 -0.06682
41.3 -0.05799
41.35 -0.04798
41.4 -0.03997
41.45 -0.04073
41.5 -0.03791
41.55 -0.0394
41.6 -0.03708
41.65 -0.03947
41.7 -0.03886
41.75 -0.03686
41.8 -0.03607
41.85 -0.03246
41.9 -0.03491
41.95 -0.04178
42 -0.04839
42.05 -0.05103
42.1 -0.05645
42.15 -0.05966
42.2 -0.05599
42.25 -0.05274
42.3 -0.05442
42.35 -0.05924
42.4 -0.06102
42.45 -0.059
42.5 -0.05757
42.55 -0.05859
42.6 -0.05909
42.65 -0.05598
42.7 -0.0558
42.75 -0.05098
42.8 -0.05133
42.85 -0.05261
42.9 -0.0515
42.95 -0.05318
43 -0.05092
43.05 -0.05203
43.1 -0.05264
43.15 -0.04721
43.2 -0.0452
43.25 -0.04086
43.3 -0.03735
43.35 -0.03766
43.4 -0.0328
43.45 -0.03343
43.5 -0.03613
43.55 -0.03934
43.6 -0.03872
43.65 -0.04158
43.7 -0.04534
43.75 -0.04316
43.8 -0.0422
43.85 -0.03576
43.9 -0.0285
43.95 -0.01955
44 -0.0173
44.05 -0.01906
44.1 -0.0191
44.15 -0.02096
44.2 -0.01984
44.25 -0.02362
44.3 -0.02148
44.35 -0.01616
44.4 -0.0136
44.45 -0.00976
44.5 -0.00677
44.55 -0.00896
44.6 -0.00713
44.65 -0.00884
44.7 -0.00816
44.75 -0.00422
44.8 -0.00124
44.85 -0.00501
44.9 -0.01261
44.95 -0.01621
45 -0.02135
45.05 -0.02289
45.1 -0.02516
45.15 -0.02155
45.2 -0.01453
45.25 -0.01432
45.3 -0.01129
45.35 -0.01028
45.4 -0.01363
45.45 -0.0206
45.5 -0.02813
45.55 -0.03586
45.6 -0.04298
45.65 -0.04803
45.7 -0.04682
45.75 -0.04041
45.8 -0.03007
45.85 -0.02462
45.9 -0.02006
45.95 -0.0172
46 -0.0164
46.05 -0.01114
46.1 -0.01092
46.15 -0.01305
46.2 -0.0129
46.25 -0.00964
46.3 -0.00744
46.35 -0.01014
46.4 -0.01595
46.45 -0.02336
46.5 -0.02317
46.55 -0.02269
46.6 -0.02215
46.65 -0.02156
46.7 -0.01874
46.75 -0.01774
46.8 -0.01794
46.85 -0.01476
46.9 -0.0166
46.95 -0.01582
47 -0.01676
47.05 -0.01481
47.1 -0.00901
47.15 -0.00994
47.2 -0.00641
47.25 -0.0008
47.3 0.00517
47.35 0.00447
47.4 -0.00152
47.45 -0.0058
47.5 -0.01258
47.55 -0.01433
47.6 -0.01602
47.65 -0.01835
47.7 -0.01593
47.75 -0.01795
47.8 -0.01344
47.85 -0.00536
47.9 -0.00126
47.95 -0.00184
48 -0.00571
48.05 -0.00361
48.1 -0.00558
48.15 -0.00518
48.2 -0.0042
48.25 -0.00086
48.3 0.00139
48.35 0.00527
48.4 0.00798
48.45 0.00615
48.5 0.00572
48.55 0.005
48.6 -0.00076
48.65 -0.0044
48.7 -0.00882
48.75 -0.01352
48.8 -0.01511
48.85 -0.01777
48.9 -0.01872
48.95 -0.02109
49 -0.01863
49.05 -0.01774
49.1 -0.01429
49.15 -0.00669
49.2 -0.00566
49.25 -0.00118
49.3 0.0019
49.35 -0.00128
49.4 -0.00692
49.45 -0.00933
49.5 -0.00759
49.55 -0.00508
49.6 -0.00683
49.65 -0.00801
49.7 -0.01185
49.75 -0.01513
49.8 -0.01461
49.85 -0.01488
49.9 -0.01361
49.95 -0.00976
50 -0.00616
50.05 0.00117
50.1 0.00364
50.15 0.00295
50.2 0.00648
50.25 0.0094
50.3 0.01398
50.35 0.01642
50.4 0.01559
50.45 0.01484
50.5 0.01481
50.55 0.00972
50.6 0.00841
50.65 0.006
50.7 0.0041
50.75 0.00296
50.8 0.00405
50.85 0.00003
50.9 -0.00506
50.95 -0.00492
51 -0.00533
51.05 -0.00851
51.1 -0.00562
51.15 -0.00188
51.2 -0.00229
51.25 -0.00198
51.3 -0.00544
51.35 -0.00576
51.4 -0.006
51.45 -0.00732
51.5 -0.00965
51.55 -0.01456
51.6 -0.01954
51.65 -0.01673
51.7 -0.01676
51.75 -0.01251
51.8 -0.00832
51.85 -0.00611
51.9 -0.00406
51.95 0.00176
52 0.00338
52.05 0.0006
52.1 -0.00588
52.15 -0.00694
52.2 -0.00771
52.25 -0.01023
52.3 -0.00709
52.35 -0.00443
52.4 -0.00342
52.45 -0.00333
52.5 -0.00573
52.55 -0.00219
52.6 0.0039
52.65 0.00838
52.7 0.01163
52.75 0.01367
52.8 0.01443
52.85 0.01793
52.9 0.01469
52.95 0.0087
53 0.0087
53.05 0.01108
53.1 0.00774
53.15 0.00768
53.2 0.00812
53.25 0.00567
53.3 0.00391
53.35 -0.00197
53.4 -0.00566
53.45 -0.0048
53.5 -0.0045
53.55 0.00057
53.6 0.0006
53.65 0.00128
53.7 0.00118
53.75 -0.00218
53.8 -0.00497
53.85 -0.01028
53.9 -0.00849
53.95 -0.01013
54 -0.01401
54.05 -0.01252
54.1 -0.00616
54.15 -0.00065
54.2 0.00619
54.25 0.01349
54.3 0.01829
54.35 0.0191
54.4 0.01634
54.45 0.01175
54.5 0.00536
54.55 -0.00374
54.6 -0.00624
54.65 -0.00652
54.7 -0.00763
54.75 -0.00364
54.8 0.00252
54.85 0.00172
54.9 -0.00322
54.95 -0.00464
55 -0.00177
55.05 0.00414
55.1 0.00943
55.15 0.01412
55.2 0.01854
55.25 0.02073
55.3 0.0243
55.35 0.02411
55.4 0.01896
55.45 0.0125
55.5 0.00273
55.55 -0.00699
55.6 -0.01136
55.65 -0.00935
55.7 -0.00769
55.75 -0.00406
55.8 -0.00629
55.85 -0.00958
55.9 -0.01432
55.95 -0.01735
56 -0.02204
56.05 -0.02394
56.1 -0.02775
56.15 -0.03208
56.2 -0.03635
56.25 -0.03437
56.3 -0.03042
56.35 -0.02648
56.4 -0.02655
56.45 -0.02677
56.5 -0.02313
56.55 -0.01764
56.6 -0.01023
56.65 -0.00352
56.7 0.00441
56.75 0.00914
56.8 0.01281
56.85 0.01014
56.9 0.00947
56.95 0.01243
57 0.01121
57.05 0.00667
57.1 0.00026
57.15 0.0001
57.2 -0.00376
57.25 -0.01057
57.3 -0.01298
57.35 -0.01265
57.4 -0.01018
57.45 -0.00573
57.5 0.00088
57.55 0.00402
57.6 0.00438
57.65 0.00583
57.7 0.00433
57.75 0.00739
57.8 0.00653
57.85 0.01023
57.9 0.01643
57.95 0.0207
58 0.02356
58.05 0.02063
58.1 0.01593
58.15 0.00946
58.2 0.00032
58.25 -0.00643
58.3 -0.00813
58.35 -0.00403
58.4 -0.00351
58.45 -0.00167
58.5 -0.00298
58.55 -0.00649
58.6 -0.00561
58.65 -0.00012
58.7 0.00543
58.75 0.00942
58.8 0.00684
58.85 0.00592
58.9 0.00488
58.95 0.00079
59 0.00103
59.05 -0.00191
59.1 -0.00527
59.15 -0.00405
59.2 -0.00253
59.25 -0.00072
59.3 0.00236
59.35 0.00724
59.4 0.01123
59.45 0.01005
59.5 0.01146
59.55 0.00744
59.6 0.00706
59.65 0.00276
59.7 0.00315
59.75 0.00458
59.8 0.00694
59.85 0.01114
59.9 0.01564
59.95 0.01958
60 0.02224
60.05 0.02316
60.1 0.0205
60.15 0.0125
60.2 0.00553
60.25 0.00268
60.3 -0.00098
60.35 -0.00439
60.4 -0.00287
60.45 -0.00628
60.5 -0.00551
60.55 -0.00552
60.6 -0.00548
60.65 -0.00171
60.7 -0.00212
60.75 -0.00146
60.8 -0.00544
60.85 -0.00895
60.9 -0.01053
60.95 -0.00866
61 -0.00425
61.05 -0.00596
61.1 -0.0115
61.15 -0.01824
61.2 -0.02288
61.25 -0.01997
61.3 -0.01536
61.35 -0.00703
61.4 0.00165
61.45 0.01074
61.5 0.01554
61.55 0.01235
61.6 0.0073
61.65 0.00121
61.7 -0.00218
61.75 -0.00839
61.8 -0.00915
61.85 -0.01309
61.9 -0.01559
61.95 -0.01884
62 -0.02183
62.05 -0.02181
62.1 -0.02087
62.15 -0.0234
62.2 -0.026
62.25 -0.02114
62.3 -0.01205
62.35 -0.00465
62.4 0.00162
62.45 0.00642
62.5 0.00869
62.55 0.01301
62.6 0.01156
62.65 0.00833
62.7 0.00524
62.75 0.00553
62.8 0.00597
62.85 0.00213
62.9 0.00413
62.95 0.00229
63 -0.00054
63.05 -0.0011
63.1 0.00197
63.15 0.00132
63.2 0.00182
63.25 0.00601
63.3 0.00697
63.35 0.00987
63.4 0.0096
63.45 0.00408
63.5 -0.00326
63.55 -0.00419
63.6 0.00013
63.65 -0.00185
63.7 -0.00557
63.75 -0.00397
63.8 -0.00447
63.85 -0.00823
63.9 -0.01425
63.95 -0.01375
64 -0.00837
64.05 -0.00829
64.1 -0.00299
64.15 -0.0003
64.2 0.00057
64.25 -0.0018
64.3 -0.00717
64.35 -0.00605
64.4 -0.00369
64.45 -0.00305
64.5 0.00184
64.55 0.00487
64.6 0.00156
64.65 -0.00343
64.7 -0.00748
64.75 -0.00754
64.8 -0.00553
64.85 -0.00145
64.9 0.00028
64.95 -0.00326
65 -0.00403
65.05 -0.00448
65.1 -0.00264
65.15 0.00117
65.2 -0.00082
65.25 -0.00463
65.3 -0.00634
65.35 -0.00257
65.4 0.0007
65.45 -0.00113
65.5 0.00157
65.55 0.00539
65.6 0.00682
65.65 0.00531
65.7 0.00455
65.75 0.00268
65.8 0.00026
65.85 -0.00204
65.9 -0.00699
65.95 -0.00575
66 -0.00035
66.05 0.00708
66.1 0.01136
66.15 0.00876
66.2 0.00336
66.25 -0.00361
66.3 -0.00938
66.35 -0.01168
66.4 -0.01293
66.45 -0.01167
66.5 -0.01206
66.55 -0.01278
66.6 -0.01158
66.65 -0.00941
66.7 -0.00414
66.75 -0.00109
66.8 0.00498
66.85 0.00965
66.9 0.01589
66.95 0.02245
67 0.02639
67.05 0.02704
67.1 0.02233
67.15 0.02036
67.2 0.0188
67.25 0.01902
67.3 0.01825
67.35 0.02067
67.4 0.02362
67.45 0.0274
67.5 0.02975
67.55 0.02555
67.6 0.01875
67.65 0.01117
67.7 0.0025
67.75 -0.00097
67.8 -0.00408
67.85 -0.00357
67.9 -0.0077
67.95 -0.00738
68 -0.00547
68.05 -0.00748
68.1 -0.01286
68.15 -0.01986
68.2 -0.0274
68.25 -0.03002
68.3 -0.03099
68.35 -0.02767
68.4 -0.02774
68.45 -0.02082
68.5 -0.01491
68.55 -0.01118
68.6 -0.00942
68.65 -0.01187
68.7 -0.01411
68.75 -0.01814
68.8 -0.02124
68.85 -0.0171
68.9 -0.01638
68.95 -0.01126
69 -0.01076
69.05 -0.01343
69.1 -0.00911
69.15 -0.00121
69.2 0.00072
69.25 0.00504
69.3 0.01074
69.35 0.00953
69.4 0.01236
69.45 0.01601
69.5 0.01825
69.55 0.02198
69.6 0.02494
69.65 0.02229
69.7 0.02055
69.75 0.01425
69.8 0.0054
69.85 0.00191
69.9 -0.00105
69.95 -0.0016
70 0.0008
70.05 -0.0018
70.1 -0.00644
70.15 -0.01074
70.2 -0.01264
70.25 -0.01204
70.3 -0.01192
70.35 -0.00861
70.4 -0.00111
70.45 0.00803
70.5 0.01132
70.55 0.01616
70.6 0.01432
70.65 0.01068
70.7 0.00928
70.75 0.01003
70.8 0.0117
70.85 0.00837
70.9 0.00412
70.95 0.0046
71 0.00383
71.05 0.00292
71.1 0.00529
71.15 0.00395
71.2 -0.00139
71.25 -0.00458
71.3 -0.00195
71.35 0.00176
71.4 0.0062
71.45 0.00461
71.5 0.00335
71.55 0.00168
71.6 -0.0016
71.65 -0.00322
71.7 -0.00497
71.75 -0.00477
71.8 -0.00268
71.85 0.00343
71.9 0.0098
71.95 0.01419
72 0.01267
72.05 0.00661
72.1 0.00233
72.15 -0.00314
72.2 -0.00378
72.25 -0.00621
72.3 -0.00287
72.35 0.00304
72.4 0.01057
72.45 0.01522
72.5 0.01508
72.55 0.01641
72.6 0.01309
72.65 0.01286
72.7 0.00957
72.75 0.00597
72.8 0.00224
72.85 -0.00266
72.9 -0.00652
72.95 -0.0092
73 -0.00972
73.05 -0.01189
73.1 -0.01651
73.15 -0.01495
73.2 -0.01784
73.25 -0.02213
73.3 -0.0188
73.35 -0.01978
73.4 -0.01603
73.45 -0.00866
73.5 -0.00594
73.55 -0.00226
73.6 -0.00239
73.65 -0.00462
73.7 -0.00729
73.75 -0.00906
73.8 -0.01115
73.85 -0.0121
73.9 -0.00902
73.95 -0.00587
74 -0.00541
74.05 -0.00465
74.1 -0.0057
74.15 -0.00334
74.2 -0.00085
74.25 0.00427
74.3 0.0109
74.35 0.01806
74.4 0.02343
74.45 0.02624
74.5 0.02894
74.55 0.02834
74.6 0.02219
74.65 0.01741
74.7 0.01733
74.75 0.01236
74.8 0.01246
74.85 0.00657
74.9 -0.00216
74.95 -0.00947
75 -0.01765
75.05 -0.0191
75.1 -0.01935
75.15 -0.01493
75.2 -0.00933
75.25 -0.00394
75.3 -0.00233
75.35 0.00138
75.4 0.00073
75.45 -0.0038
75.5 -0.00404
75.55 -0.00366
75.6 0.00135
75.65 0.0035
75.7 0.00517
75.75 0.0074
75.8 0.00521
75.85 0.0034
75.9 0.00011
75.95 0.00124
76 -0.00178
76.05 -0.00012
76.1 0.00185
76.15 0.00405
76.2 0.00371
76.25 0.0018
76.3 0.004
76.35 0.0059
76.4 0.0101
76.45 0.01385
76.5 0.01841
76.55 0.02037
76.6 0.01731
76.65 0.01114
76.7 0.00702
76.75 0.00725
76.8 0.0111
76.85 0.01415
76.9 0.01155
76.95 0.00527
77 -0.00318
77.05 -0.00716
77.1 -0.01118
77.15 -0.01725
77.2 -0.02127
77.25 -0.023
77.3 -0.02476
77.35 -0.02383
77.4 -0.02403
77.45 -0.02156
77.5 -0.02129
77.55 -0.01933
77.6 -0.02031
77.65 -0.02399
77.7 -0.02195
77.75 -0.02046
77.8 -0.02268
77.85 -0.02022
77.9 -0.02115
77.95 -0.01787
78 -0.00959
78.05 -0.00042
78.1 0.00067
78.15 0.00591
78.2 0.00469
78.25 0.00632
78.3 0.002
78.35 -0.00446
78.4 -0.00978
78.45 -0.0118
78.5 -0.01233
78.55 -0.00709
78.6 -0.00618
78.65 -0.00319
78.7 -0.00546
78.75 -0.00205
78.8 0.00185
78.85 0.00611
78.9 0.00813
78.95 0.00934
79 0.00643
79.05 0.00763
79.1 0.00365
79.15 0.00086
79.2 -0.00509
79.25 -0.00552
79.3 -0.00203
79.35 0.00162
79.4 0.00533
79.45 0.00564
79.5 0.00321
79.55 -0.0026
79.6 -0.00704
79.65 -0.01195
79.7 -0.0145
79.75 -0.01497
79.8 -0.00977
79.85 -0.00616
79.9 -0.00245
79.95 -0.00099
80 0.0025
80.05 0.00277
80.1 0.00692
80.15 0.00668
80.2 0.00634
80.25 0.00107
80.3 -0.00544
80.35 -0.00607
80.4 -0.0031
80.45 -0.00351
80.5 0.00018
80.55 0.00587
80.6 0.00766
80.65 0.01002
80.7 0.01433
80.75 0.01541
80.8 0.01007
80.85 0.00782
80.9 0.00442
80.95 0.00433
81 0.00814
81.05 0.00783
81.1 0.00241
81.15 -0.00276
81.2 -0.00401
81.25 -0.00372
81.3 -0.00116
81.35 -0.00245
81.4 0.00067
81.45 0.00709
81.5 0.00747
81.55 0.0055
81.6 0.00357
81.65 0.00619
81.7 0.00879
81.75 0.00706
81.8 0.00121
81.85 -0.00581
81.9 -0.00881
81.95 -0.00682
82 -0.00347
82.05 -0.00581
82.1 -0.00784
82.15 -0.013
82.2 -0.01657
82.25 -0.01654
82.3 -0.01406
82.35 -0.01605
82.4 -0.01535
82.45 -0.01465
82.5 -0.01466
82.55 -0.01522
82.6 -0.01106
82.65 -0.00269
82.7 -0.00115
82.75 -0.00067
82.8 0.00163
82.85 -0.00151
82.9 -0.00608
82.95 -0.00757
83 -0.00426
83.05 -0.00452
83.1 -0.0022
83.15 -0.00396
83.2 -0.00353
83.25 -0.0059
83.3 -0.0091
83.35 -0.00578
83.4 -0.00284
83.45 0.00416
83.5 0.01216
83.55 0.01697
83.6 0.01916
83.65 0.01696
83.7 0.0124
83.75 0.00726
83.8 -0.00121
83.85 -0.00797
83.9 -0.01402
83.95 -0.01224
84 -0.01274
84.05 -0.01405
84.1 -0.01836
84.15 -0.01909
84.2 -0.01968
84.25 -0.01876
84.3 -0.02023
84.35 -0.02403
84.4 -0.02408
84.45 -0.02625
84.5 -0.02202
84.55 -0.02007
84.6 -0.02092
84.65 -0.01828
84.7 -0.01286
84.75 -0.01223
84.8 -0.00656
84.85 0.00142
84.9 0.00422
84.95 0.00383
85 0.0048
85.05 0.00598
85.1 0.00754
85.15 0.00347
85.2 0.00318
85.25 -0.00096
85.3 -0.00414
85.35 -0.00131
85.4 -0.00009
85.45 -0.00318
85.5 -0.00121
85.55 0.00174
85.6 0.00671
85.65 0.0091
85.7 0.00614
85.75 0.00819
85.8 0.00696
85.85 0.0092
85.9 0.01231
85.95 0.01105
86 0.01308
86.05 0.01515
86.1 0.019
86.15 0.02052
86.2 0.02253
86.25 0.01848
86.3 0.01072
86.35 0.00657
86.4 0.00744
86.45 0.00575
86.5 0.00655
86.55 0.01137
86.6 0.01539
86.65 0.01517
86.7 0.01783
86.75 0.02245
86.8 0.02314
86.85 0.01732
86.9 0.01209
86.95 0.00436
87 -0.00441
87.05 -0.00698
87.1 -0.01276
87.15 -0.01439
87.2 -0.01705
87.25 -0.01524
87.3 -0.00904
87.35 -0.00906
87.4 -0.00645
87.45 -0.00629
87.5 -0.00386
87.55 0.00061
87.6 0.00436
87.65 0.01074
87.7 0.01077
87.75 0.00703
87.8 0.00084
87.85 -0.00527
87.9 -0.0099
87.95 -0.01663
88 -0.0206
88.05 -0.02386
88.1 -0.02423
88.15 -0.02321
88.2 -0.02108
88.25 -0.01678
88.3 -0.01213
88.35 -0.00609
88.4 -0.00473
88.45 -0.00268
88.5 -0.0031
88.55 -0.00173
88.6 -0.00426
88.65 -0.00907
88.7 -0.01029
88.75 -0.00886
88.8 -0.00764
88.85 -0.00991
88.9 -0.01446
88.95 -0.01598
89 -0.01069
89.05 -0.0026
89.1 0.00171
89.15 0.00875
89.2 0.01314
89.25 0.01621
89.3 0.01692
89.35 0.01364
89.4 0.01236
89.45 0.01085
89.5 0.01084
89.55 0.00827
89.6 0.00948
89.65 0.01029
89.7 0.01376
89.75 0.01913
89.8 0.02498
89.85 0.02256
89.9 0.02115
89.95 0.021
90 0.02229
90.05 0.02537
90.1 0.02235
90.15 0.01407
90.2 0.00405
90.25 -0.00546
90.3 -0.01152
90.35 -0.01247
90.4 -0.00976
90.45 -0.00912
90.5 -0.01026
90.55 -0.01033
90.6 -0.00814
90.65 -0.00224
90.7 0.00138
90.75 0.00105
90.8 0.00069
90.85 0.00515
90.9 0.0033
90.95 0.00481
91 0.00392
91.05 0.00556
91.1 0.00553
91.15 0.00559
91.2 0.00487
91.25 0.00698
91.3 0.00922
91.35 0.00572
91.4 0.00587
91.45 0.0082
91.5 0.00974
91.55 0.00565
91.6 0.00395
91.65 -0.00192
91.7 -0.00232
91.75 -0.00234
91.8 -0.00555
91.85 -0.01171
91.9 -0.01165
91.95 -0.00909
92 -0.00927
92.05 -0.00623
92.1 -0.00549
92.15 -0.00765
92.2 -0.01126
92.25 -0.01285
92.3 -0.01719
92.35 -0.02193
92.4 -0.0222
92.45 -0.02309
92.5 -0.02064
92.55 -0.02104
92.6 -0.01841
92.65 -0.01658
92.7 -0.01667
92.75 -0.01283
92.8 -0.01197
92.85 -0.01
92.9 -0.00894
92.95 -0.00586
93 0.00147
93.05 0.0047
93.1 0.01036
93.15 0.01164
93.2 0.00745
93.25 0.00119
93.3 -0.00474
93.35 -0.0119
93.4 -0.01474
93.45 -0.0127
93.5 -0.00977
93.55 -0.00486
93.6 -0.00056
93.65 0.00312
93.7 0.00587
93.75 0.00868
93.8 0.00814
93.85 0.00489
93.9 0.00413
93.95 0.00803
94 0.01293
94.05 0.01693
94.1 0.01672
94.15 0.01476
94.2 0.009
94.25 0.00925
94.3 0.00964
94.35 0.00447
94.4 -0.00292
94.45 -0.01193
94.5 -0.01746
94.55 -0.02239
94.6 -0.02601
94.65 -0.02895
94.7 -0.0265
94.75 -0.02188
94.8 -0.01404
94.85 -0.00331
94.9 0.00876
94.95 0.01525
95 0.01996
95.05 0.02122
95.1 0.02335
95.15 0.02137
95.2 0.02168
95.25 0.01556
95.3 0.00772
95.35 0.00519
95.4 -0.00014
95.45 -0.00426
95.5 -0.00278
95.55 -0.00463
95.6 -0.00284
95.65 0.00016
95.7 0.00158
95.75 0.00383
95.8 0.00221
95.85 -0.00219
95.9 -0.00371
95.95 -0.00619
96 -0.00266
96.05 -0.00094
96.1 -0.00275
96.15 -0.00179
96.2 -0.0027
96.25 -0.00431
96.3 -0.00517
96.35 -0.00967
96.4 -0.01269
96.45 -0.01065
96.5 -0.00602
96.55 0.00186
96.6 0.00907
96.65 0.01065
96.7 0.00674
96.75 0.00471
96.8 0.0079
96.85 0.00579
96.9 0.00394
96.95 0.00678
97 0.00414
97.05 -0.00212
97.1 -0.01027
97.15 -0.01122
97.2 -0.00783
97.25 -0.007
97.3 -0.00469
97.35 -0.00058
97.4 -0.00261
97.45 -0.00072
97.5 -0.00252
97.55 -0.00734
97.6 -0.01244
97.65 -0.01097
97.7 -0.00797
97.75 -0.00504
97.8 -0.00564
97.85 -0.0068
97.9 -0.00561
97.95 -0.00611
98 -0.00267
98.05 -0.0014
98.1 0.00356
98.15 0.01113
98.2 0.01874
98.25 0.01999
98.3 0.01642
98.35 0.01193
98.4 0.00552
98.45 0.00151
98.5 -0.00172
98.55 -0.00725
98.6 -0.00927
98.65 -0.00853
98.7 -0.01049
98.75 -0.01206
98.8 -0.0138
98.85 -0.01127
98.9 -0.01331
98.95 -0.01112
99 -0.00937
99.05 -0.00281
99.1 0.00605
99.15 0.01062
99.2 0.01726
99.25 0.01573
99.3 0.0158
99.35 0.01636
99.4 0.01596
99.45 0.01227
99.5 0.01284
99.55 0.01332
99.6 0.0121
99.65 0.00995
99.7 0.01195
99.75 0.01033
99.8 0.00824
99.85 0.0044
99.9 0.00539
99.95 0.00347
