0 0
0.05 0.00753
0.1 0.01889
0.15 0.02657
0.2 0.03079
0.25 0.034
0.3 0.03466
0.35 0.03253
0.4 0.03304
0.45 0.03793
0.5 0.0436
0.55 0.04606
0.6 0.04939
0.65 0.04769
0.7 0.04542
0.75 0.04861
0.8 0.05299
0.85 0.0563
0.9 0.05827
0.95 0.05399
1 0.0544
1.05 0.05525
1.1 0.05838
1.15 0.06002
1.2 0.0606
1.25 0.05465
1.3 0.053
1.35 0.05449
1.4 0.05085
1.45 0.04573
1.5 0.04394
1.55 0.04031
1.6 0.04094
1.65 0.04374
1.7 0.04185
1.75 0.0407
1.8 0.03816
1.85 0.03174
1.9 0.02924
1.95 0.0251
2 0.02073
2.05 0.01953
2.1 0.02245
2.15 0.02114
2.2 0.02505
2.25 0.02974
2.3 0.03763
2.35 0.03818
2.4 0.03597
2.45 0.03616
2.5 0.03241
2.55 0.03324
2.6 0.03552
2.65 0.03925
2.7 0.04147
2.75 0.03957
2.8 0.03771
2.85 0.0365
2.9 0.0313
2.95 0.0238
3 0.02317
3.05 0.02659
3.1 0.03114
3.15 0.02981
3.2 0.03001
3.25 0.02875
3.3 0.03126
3.35 0.02762
3.4 0.02578
3.45 0.02883
3.5 0.0263
3.55 0.02479
3.6 0.02583
3.65 0.02941
3.7 0.0345
3.75 0.03203
3.8 0.03207
3.85 0.02993
3.9 0.02702
3.95 0.02386
4 0.0242
4.05 0.02101
4.1 0.01848
4.15 0.01352
4.2 0.01164
4.25 0.00577
4.3 -0.00089
4.35 -0.00417
4.4 -0.0121
4.45 -0.01504
4.5 -0.01772
4.55 -0.02582
4.6 -0.03316
4.65 -0.04123
4.7 -0.05115
4.75 -0.06687
4.8 -0.08277
4.85 -0.10299
4.9 -0.12459
4.95 -0.14769
5 -0.18042
5.05 -0.21614
5.1 -0.25383
5.15 -0.29363
5.2 -0.33792
5.25 -0.3883
5.3 -0.44321
5.35 -0.49912
5.4 -0.5576
5.45 -0.61219
5.5 -0.67205
5.55 -0.72763
5.6 -0.77815
5.65 -0.82867
5.7 -0.86887
5.75 -0.90455
5.8 -0.92793
5.85 -0.94042
5.9 -0.94653
5.95 -0.94879
6 -0.94069
6.05 -0.92524
6.1 -0.90008
6.15 -0.87402
6.2 -0.84545
6.25 -0.80856
6.3 -0.76146
6.35 -0.70887
6.4 -0.65769
6.45 -0.60348
6.5 -0.54607
6.55 -0.49245
6.6 -0.44025
6.65 -0.38546
6.7 -0.32429
6.75 -0.26321
6.8 -0.20454
6.85 -0.14743
6.9 -0.08167
6.95 -0.01756
7 0.05308
7.05 0.12372
7.1 0.19661
7.15 0.26461
7.2 0.3291
7.25 0.39653
7.3 0.46714
7.35 0.53828
7.4 0.60642
7.45 0.66607
7.5 0.71644
7.55 0.76226
7.6 0.80805
7.65 0.85069
7.7 0.88997
7.75 0.91502
7.8 0.93674
7.85 0.9534
7.9 0.96615
7.95 0.97392
8 0.97203
8.05 0.9659
8.1 0.95351
8.15 0.93297
8.2 0.91001
8.25 0.88701
8.3 0.85959
8.35 0.82679
8.4 0.79294
8.45 0.75659
8.5 0.72458
8.55 0.68713
8.6 0.65292
8.65 0.62265
8.7 0.59024
8.75 0.55409
8.8 0.52022
8.85 0.49062
8.9 0.461
8.95 0.4308
9 0.4072
9.05 0.38643
9.1 0.36738
9.15 0.34916
9.2 0.33393
9.25 0.32101
9.3 0.3061
9.35 0.29126
9.4 0.27166
9.45 0.25211
9.5 0.23474
9.55 0.22385
9.6 0.20853
9.65 0.19358
9.7 0.18236
9.75 0.17449
9.8 0.16757
9.85 0.15709
9.9 0.1533
9.95 0.1466
10 0.14009
10.05 0.13834
10.1 0.13786
10.15 0.13956
10.2 0.14023
10.25 0.13894
10.3 0.13068
10.35 0.11899
10.4 0.10679
10.45 0.0918
10.5 0.07673
10.55 0.06467
10.6 0.05629
10.65 0.04864
10.7 0.04369
10.75 0.04283
10.8 0.04248
10.85 0.0435
10.9 0.03868
10.95 0.03456
11 0.02717
11.05 0.01995
11.1 0.01201
11.15 0.00723
11.2 0.00467
11.25 0.00319
11.3 0.00234
11.35 -0.00238
11.4 -0.01096
11.45 -0.01793
11.5 -0.02837
11.55 -0.03771
11.6 -0.04961
11.65 -0.05382
11.7 -0.05838
11.75 -0.0618
11.8 -0.0649
11.85 -0.06389
11.9 -0.06759
11.95 -0.0664
12 -0.06209
12.05 -0.05846
12.1 -0.05588
12.15 -0.06014
12.2 -0.06204
12.25 -0.06765
12.3 -0.07673
12.35 -0.07948
12.4 -0.08534
12.45 -0.08772
12.5 -0.08793
12.55 -0.08637
12.6 -0.0833
12.65 -0.07984
12.7 -0.07546
12.75 -0.07025
12.8 -0.07238
12.85 -0.07306
12.9 -0.07871
12.95 -0.08436
13 -0.0909
13.05 -0.09301
13.1 -0.0945
13.15 -0.09791
13.2 -0.09633
13.25 -0.09085
13.3 -0.08338
13.35 -0.07877
13.4 -0.07457
13.45 -0.07744
13.5 -0.08355
13.55 -0.08681
13.6 -0.08476
13.65 -0.08499
13.7 -0.08919
13.75 -0.08905
13.8 -0.09237
13.85 -0.0921
13.9 -0.08785
13.95 -0.07973
14 -0.07767
14.05 -0.07261
14.1 -0.07319
14.15 -0.07697
14.2 -0.07523
14.25 -0.07749
14.3 -0.07619
14.35 -0.07518
14.4 -0.07603
14.45 -0.07903
14.5 -0.08159
14.55 -0.07717
14.6 -0.07636
14.65 -0.07687
14.7 -0.07408
14.75 -0.076
14.8 -0.07911
14.85 -0.07998
14.9 -0.08025
14.95 -0.07547
15 -0.06669
15.05 -0.05554
15.1 -0.05256
15.15 -0.05133
15.2 -0.05251
15.25 -0.05145
15.3 -0.04811
15.35 -0.04302
15.4 -0.04085
15.45 -0.04381
15.5 -0.04797
15.55 -0.05402
15.6 -0.06186
15.65 -0.06184
15.7 -0.05669
15.75 -0.04797
15.8 -0.03813
15.85 -0.03047
15.9 -0.02779
15.95 -0.03036
16 -0.03124
16.05 -0.03179
16.1 -0.03277
16.15 -0.03691
16.2 -0.03709
16.25 -0.03397
16.3 -0.03291
16.35 -0.02964
16.4 -0.02541
16.45 -0.02108
16.5 -0.02325
16.55 -0.02197
16.6 -0.01887
16.65 -0.01606
16.7 -0.0164
16.75 -0.01662
16.8 -0.02166
16.85 -0.02199
16.9 -0.02267
16.95 -0.02256
17 -0.02363
17.05 -0.02534
17.1 -0.02479
17.15 -0.02941
17.2 -0.03737
17.25 -0.04024
17.3 -0.03919
17.35 -0.03978
17.4 -0.03796
17.45 -0.03653
17.5 -0.03274
17.55 -0.03283
17.6 -0.03736
17.65 -0.03658
17.7 -0.03625
17.75 -0.03222
17.8 -0.02994
17.85 -0.02415
17.9 -0.02271
17.95 -0.0239
18 -0.02379
18.05 -0.02098
18.1 -0.02375
18.15 -0.02745
18.2 -0.02565
18.25 -0.02554
18.3 -0.02763
18.35 -0.02699
18.4 -0.02153
18.45 -0.01567
18.5 -0.00775
18.55 -0.00347
18.6 -0.00405
18.65 -0.00525
18.7 -0.00816
18.75 -0.01107
18.8 -0.01191
18.85 -0.01446
18.9 -0.01704
18.95 -0.01989
19 -0.02268
19.05 -0.0221
19.1 -0.01858
19.15 -0.02045
19.2 -0.0208
19.25 -0.01784
19.3 -0.01469
19.35 -0.01413
19.4 -0.01079
19.45 -0.0095
19.5 -0.00472
19.55 -0.00676
19.6 -0.00638
19.65 -0.00957
19.7 -0.01295
19.75 -0.01092
19.8 -0.00999
19.85 -0.00721
19.9 -0.00182
19.95 0.00162
20 0.00456
20.05 0.00017
20.1 -0.00483
20.15 -0.00778
20.2 -0.00593
20.25 -0.00577
20.3 -0.00475
20.35 -0.00713
20.4 -0.00756
20.45 -0.00388
20.5 -0.00045
20.55 0.00109
20.6 -0.00384
20.65 -0.0078
20.7 -0.01224
20.75 -0.01138
20.8 -0.00827
20.85 -0.01184
20.9 -0.01558
20.95 -0.01661
21 -0.0125
21.05 -0.00636
21.1 -0.00802
21.15 -0.01223
21.2 -0.01896
21.25 -0.02552
21.3 -0.02899
21.35 -0.02614
21.4 -0.02734
21.45 -0.0233
21.5 -0.01607
21.55 -0.01155
21.6 -0.00408
21.65 0.00012
21.7 -0.00044
21.75 0.00174
21.8 0.00536
21.85 0.00226
21.9 -0.00493
21.95 -0.01089
22 -0.01334
22.05 -0.01382
22.1 -0.01847
22.15 -0.02104
22.2 -0.02283
22.25 -0.02357
22.3 -0.01861
22.35 -0.0115
22.4 -0.00225
22.45 0.00263
22.5 0.00143
22.55 -0.00451
22.6 -0.01155
22.65 -0.01209
22.7 -0.01433
22.75 -0.02016
22.8 -0.02185
22.85 -0.01825
22.9 -0.01975
22.95 -0.02408
23 -0.02278
23.05 -0.01714
23.1 -0.01003
23.15 -0.00301
23.2 -0.0015
23.25 0.00229
23.3 0.00379
23.35 0.00132
23.4 0.00049
23.45 0.00033
23.5 0.00141
23.55 0.00073
23.6 -0.00144
23.65 -0.00174
23.7 -0.00699
23.75 -0.00827
23.8 -0.00566
23.85 -0.00375
23.9 0.00146
23.95 0.00632
24 0.00607
24.05 0.0073
24.1 0.00214
24.15 0.0008
24.2 0.00163
24.25 0.00542
24.3 0.00399
24.35 0.00597
24.4 0.00445
24.45 0.00098
24.5 -0.00258
24.55 -0.00425
24.6 -0.00182
24.65 -0.00567
24.7 -0.00739
24.75 -0.01242
24.8 -0.0137
24.85 -0.01028
24.9 -0.01033
24.95 -0.01217
25 -0.01489
25.05 -0.01525
25.1 -0.01214
25.15 -0.01352
25.2 -0.01441
25.25 -0.01333
25.3 -0.01656
25.35 -0.01689
25.4 -0.01918
25.45 -0.01786
25.5 -0.01963
25.55 -0.02281
25.6 -0.02772
25.65 -0.02685
25.7 -0.02187
25.75 -0.01584
25.8 -0.01269
25.85 -0.00811
25.9 -0.00071
25.95 0.00776
26 0.01144
26.05 0.00816
26.1 0.0071
26.15 0.00334
26.2 -0.00179
26.25 -0.00684
26.3 -0.00915
26.35 -0.00718
26.4 -0.00168
26.45 -0.00085
26.5 0.00364
26.55 0.00836
26.6 0.00845
26.65 0.00312
26.7 0.00077
26.75 -0.00335
26.8 -0.00441
26.85 -0.00374
26.9 -0.00005
26.95 -0.00151
27 -0.00016
27.05 0.00406
27.1 0.00384
27.15 0.00304
27.2 -0.0003
27.25 -0.00217
27.3 -0.00279
27.35 -0.00365
27.4 -0.00899
27.45 -0.00899
27.5 -0.00829
27.55 -0.01454
27.6 -0.02066
27.65 -0.03092
27.7 -0.03537
27.75 -0.04535
27.8 -0.05815
27.85 -0.06512
27.9 -0.07257
27.95 -0.08098
28 -0.0934
28.05 -0.11223
28.1 -0.13237
28.15 -0.15147
28.2 -0.17428
28.25 -0.20329
28.3 -0.22899
28.35 -0.2533
28.4 -0.28557
28.45 -0.3187
28.5 -0.35595
28.55 -0.40002
28.6 -0.4471
28.65 -0.50284
28.7 -0.56595
28.75 -0.63096
28.8 -0.69859
28.85 -0.768
28.9 -0.84361
28.95 -0.92382
29 -0.99913
29.05 -1.0748
29.1 -1.14802
29.15 -1.21974
29.2 -1.2986
29.25 -1.37396
29.3 -1.44615
29.35 -1.51444
29.4 -1.58041
29.45 -1.6505
29.5 -1.71571
29.55 -1.77432
29.6 -1.82864
29.65 -1.8712
29.7 -1.90831
29.75 -1.93697
29.8 -1.95136
29.85 -1.96001
29.9 -1.95722
29.95 -1.93939
30 -1.91666
30.05 -1.87987
30.1 -1.82977
30.15 -1.7719
30.2 -1.70785
30.25 -1.62745
30.3 -1.53382
30.35 -1.43622
30.4 -1.32769
30.45 -1.21262
30.5 -1.093
30.55 -0.96548
30.6 -0.8309
30.65 -0.69694
30.7 -0.55504
30.75 -0.41412
30.8 -0.26789
30.85 -0.12414
30.9 0.014
30.95 0.15232
31 0.28789
31.05 0.41728
31.1 0.5452
31.15 0.66396
31.2 0.78343
31.25 0.8935
31.3 0.99351
31.35 1.08815
31.4 1.1784
31.45 1.26302
31.5 1.34368
31.55 1.40947
31.6 1.47013
31.65 1.52142
31.7 1.56472
31.75 1.60429
31.8 1.63892
31.85 1.66335
31.9 1.68711
31.95 1.70971
32 1.72586
32.05 1.73302
32.1 1.73674
32.15 1.73949
32.2 1.74215
32.25 1.74123
32.3 1.73142
32.35 1.71995
32.4 1.70446
32.45 1.68535
32.5 1.67129
32.55 1.65324
32.6 1.64181
32.65 1.62804
32.7 1.61627
32.75 1.59992
32.8 1.58602
32.85 1.57266
32.9 1.5568
32.95 1.53972
33 1.51591
33.05 1.48789
33.1 1.45717
33.15 1.42315
33.2 1.3913
33.25 1.35936
33.3 1.32143
33.35 1.28115
33.4 1.24015
33.45 1.19623
33.5 1.15202
33.55 1.10708
33.6 1.06254
33.65 1.02391
33.7 0.9916
33.75 0.958
33.8 0.92711
33.85 0.89342
33.9 0.8602
33.95 0.82644
34 0.79225
34.05 0.75453
34.1 0.71524
34.15 0.67104
34.2 0.62692
34.25 0.58898
34.3 0.55253
34.35 0.51357
34.4 0.47848
34.45 0.44762
34.5 0.41146
34.55 0.37603
34.6 0.34514
34.65 0.31603
34.7 0.28911
34.75 0.25855
34.8 0.2273
34.85 0.19529
34.9 0.16611
34.95 0.13462
35 0.10551
35.05 0.07548
35.1 0.05235
35.15 0.03504
35.2 0.01499
35.25 -0.00577
35.3 -0.0258
35.35 -0.04842
35.4 -0.06709
35.45 -0.0832
35.5 -0.09584
35.55 -0.10975
35.6 -0.12652
35.65 -0.13809
35.7 -0.14837
35.75 -0.15822
35.8 -0.16393
35.85 -0.16627
35.9 -0.17381
35.95 -0.18016
36 -0.18484
36.05 -0.19583
36.1 -0.21051
36.15 -0.22147
36.2 -0.23449
36.25 -0.24725
36.3 -0.25258
36.35 -0.25566
36.4 -0.25971
36.45 -0.25979
36.5 -0.25839
36.55 -0.25728
36.6 -0.25494
36.65 -0.25778
36.7 -0.26352
36.75 -0.27016
36.8 -0.27982
36.85 -0.28574
36.9 -0.29065
36.95 -0.29271
37 -0.29424
37.05 -0.29826
37.1 -0.30193
37.15 -0.30556
37.2 -0.30414
37.25 -0.30339
37.3 -0.30288
37.35 -0.2952
37.4 -0.28881
37.45 -0.28462
37.5 -0.28302
37.55 -0.27722
37.6 -0.26857
37.65 -0.26412
37.7 -0.26353
37.75 -0.26009
37.8 -0.25602
37.85 -0.25633
37.9 -0.25544
37.95 -0.24876
38 -0.24491
38.05 -0.2369
38.1 -0.22688
38.15 -0.21823
38.2 -0.21724
38.25 -0.21706
38.3 -0.21856
38.35 -0.21685
38.4 -0.21022
38.45 -0.20828
38.5 -0.20402
38.55 -0.20168
38.6 -0.19891
38.65 -0.20139
38.7 -0.20377
38.75 -0.20428
38.8 -0.20472
38.85 -0.20098
38.9 -0.19615
38.95 -0.18894
39 -0.18022
39.05 -0.17012
39.1 -0.16697
39.15 -0.16863
39.2 -0.16859
39.25 -0.16639
39.3 -0.16702
39.35 -0.16661
39.4 -0.16113
39.45 -0.15332
39.5 -0.1449
39.55 -0.139
39.6 -0.13656
39.65 -0.13647
39.7 -0.13465
39.75 -0.1313
39.8 -0.12784
39.85 -0.12562
39.9 -0.1217
39.95 -0.11911
40 -0.12012
40.05 -0.1178
40.1 -0.11438
40.15 -0.11631
40.2 -0.11976
40.25 -0.11827
40.3 -0.11898
40.35 -0.11704
40.4 -0.11659
40.45 -0.11361
40.5 -0.11525
40.55 -0.11151
40.6 -0.10987
40.65 -0.11317
40.7 -0.11577
40.75 -0.11324
40.8 -0.1152
40.85 -0.1144
40.9 -0.10985
40.95 -0.1074
41 -0.10128
41.05 -0.09324
41.1 -0.08493
41.15 -0.08138
41.2 -0.08353
41.25 -0.0815
41.3 -0.07755
41.35 -0.07134
41.4 -0.07013
41.45 -0.06963
41.5 -0.07086
41.55 -0.07143
41.6 -0.06888
41.65 -0.07193
41.7 -0.07336
41.75 -0.07234
41.8 -0.06966
41.85 -0.06598
41.9 -0.06388
41.95 -0.06596
42 -0.06553
42.05 -0.06201
42.1 -0.0614
42.15 -0.06613
42.2 -0.06745
42.25 -0.07143
42.3 -0.07158
42.35 -0.0759
42.4 -0.07937
42.45 -0.07564
42.5 -0.0685
42.55 -0.06113
42.6 -0.05885
42.65 -0.05863
42.7 -0.0554
42.75 -0.04997
42.8 -0.05207
42.85 -0.04937
42.9 -0.04426
42.95 -0.04391
43 -0.0495
43.05 -0.05371
43.1 -0.05626
43.15 -0.06237
43.2 -0.06814
43.25 -0.07196
43.3 -0.07104
43.35 -0.06822
43.4 -0.06478
43.45 -0.05967
43.5 -0.05714
43.55 -0.0579
43.6 -0.05509
43.65 -0.04927
43.7 -0.04122
43.75 -0.03854
43.8 -0.03579
43.85 -0.03164
43.9 -0.02968
43.95 -0.03162
44 -0.03422
44.05 -0.0328
44.1 -0.03689
44.15 -0.03514
44.2 -0.0354
44.25 -0.03315
44.3 -0.03278
44.35 -0.02848
44.4 -0.0285
44.45 -0.0271
44.5 -0.02924
44.55 -0.03067
44.6 -0.02776
44.65 -0.02795
44.7 -0.02912
44.75 -0.02966
44.8 -0.02815
44.85 -0.02715
44.9 -0.02437
44.95 -0.02366
45 -0.02547
45.05 -0.03159
45.1 -0.03814
45.15 -0.03882
45.2 -0.03984
45.25 -0.03927
45.3 -0.04151
45.35 -0.03802
45.4 -0.03881
45.45 -0.0421
45.5 -0.04037
45.55 -0.0414
45.6 -0.04481
45.65 -0.04234
45.7 -0.04272
45.75 -0.03804
45.8 -0.03637
45.85 -0.0333
45.9 -0.03178
45.95 -0.02783
46 -0.02384
46.05 -0.01957
46.1 -0.01637
46.15 -0.01752
46.2 -0.01537
46.25 -0.01838
46.3 -0.01976
46.35 -0.01707
46.4 -0.0179
46.45 -0.0178
46.5 -0.01361
46.55 -0.01388
46.6 -0.0182
46.65 -0.01904
46.7 -0.01796
46.75 -0.02111
46.8 -0.02173
46.85 -0.01853
46.9 -0.01915
46.95 -0.02401
47 -0.02485
47.05 -0.02657
47.1 -0.02828
47.15 -0.03181
47.2 -0.02851
47.25 -0.023
47.3 -0.0167
47.35 -0.0104
47.4 -0.01101
47.45 -0.01569
47.5 -0.01737
47.55 -0.0164
47.6 -0.0119
47.65 -0.00624
47.7 0.00103
47.75 0.00838
47.8 0.00762
47.85 0.00083
47.9 0.00007
47.95 0.00082
48 0.00382
48.05 0.00384
48.1 -0.00159
48.15 -0.00969
48.2 -0.01118
48.25 -0.00995
48.3 -0.00889
48.35 -0.00889
48.4 -0.00487
48.45 0.00189
48.5 0.00357
48.55 0.00237
48.6 0.001
48.65 0.00239
48.7 0.00322
48.75 0.00302
48.8 0.00575
48.85 0.01022
48.9 0.00981
48.95 0.00912
49 0.00317
49.05 0.00106
49.1 0.00141
49.15 -0.00386
49.2 -0.00714
49.25 -0.00523
49.3 -0.00734
49.35 -0.00572
49.4 -0.00351
49.45 0.00144
49.5 0.00612
49.55 0.01165
49.6 0.01654
49.65 0.01302
49.7 0.0056
49.75 0.0006
49.8 -0.00405
49.85 -0.00355
49.9 -0.00529
49.95 -0.0054
50 -0.00894
50.05 -0.00858
50.1 -0.00484
50.15 -0.00137
50.2 0.00432
50.25 0.00325
50.3 -0.00091
50.35 -0.0088
50.4 -0.00923
50.45 -0.01073
50.5 -0.0115
50.55 -0.00765
50.6 -0.0023
50.65 0.00166
50.7 0.00588
50.75 0.0075
50.8 0.00412
50.85 -0.00033
50.9 -0.00382
50.95 -0.00482
51 -0.00518
51.05 -0.00739
51.1 -0.00929
51.15 -0.01487
51.2 -0.01359
51.25 -0.0165
51.3 -0.01647
51.35 -0.01336
51.4 -0.0071
51.45 -0.00559
51.5 -0.00617
51.55 -0.00957
51.6 -0.00993
51.65 -0.00825
51.7 -0.00813
51.75 -0.00558
51.8 -0.00517
51.85 -0.00556
51.9 -0.00755
51.95 -0.01308
52 -0.01224
52.05 -0.01381
52.1 -0.01487
52.15 -0.01135
52.2 -0.01358
52.25 -0.01062
52.3 -0.0072
52.35 -0.00908
52.4 -0.00583
52.45 -0.00258
52.5 -0.00569
52.55 -0.00744
52.6 -0.0104
52.65 -0.00755
52.7 -0.00336
52.75 0.00262
52.8 0.0104
52.85 0.01001
52.9 0.01149
52.95 0.00897
53 0.00744
53.05 0.00793
53.1 0.00357
53.15 0.00288
53.2 0.00111
53.25 -0.00286
53.3 -0.00927
53.35 -0.01297
53.4 -0.01369
53.45 -0.00975
53.5 -0.00637
53.55 -0.00226
53.6 -0.00096
53.65 0.00046
53.7 -0.00066
53.75 -0.00074
53.8 -0.00221
53.85 -0.00054
53.9 0.00111
53.95 -0.00275
54 -0.00437
54.05 -0.00525
54.1 -0.00222
54.15 -0.00335
54.2 -0.00895
54.25 -0.01309
54.3 -0.01757
54.35 -0.01849
54.4 -0.01786
54.45 -0.01167
54.5 -0.00277
54.55 0.00178
54.6 0.00398
54.65 0.00497
54.7 0.00284
54.75 -0.00308
54.8 -0.00288
54.85 -0.00752
54.9 -0.00916
54.95 -0.00822
55 -0.0082
55.05 -0.00424
55.1 0.0022
55.15 0.00839
55.2 0.01246
55.25 0.01431
55.3 0.01858
55.35 0.01955
55.4 0.01843
55.45 0.01238
55.5 0.00878
55.55 0.00681
55.6 0.00878
55.65 0.01024
55.7 0.01207
55.75 0.01554
55.8 0.01355
55.85 0.00894
55.9 0.00915
55.95 0.00995
56 0.01278
56.05 0.01407
56.1 0.01032
56.15 0.00634
56.2 -0.00064
56.25 -0.01014
56.3 -0.0158
56.35 -0.01659
56.4 -0.01426
56.45 -0.0148
56.5 -0.01346
56.55 -0.00759
56.6 -0.00878
56.65 -0.00692
56.7 -0.0065
56.75 -0.00953
56.8 -0.00872
56.85 -0.00793
56.9 -0.00931
56.95 -0.00876
57 -0.00582
57.05 -0.00617
57.1 -0.01057
57.15 -0.01263
57.2 -0.00882
57.25 -0.00284
57.3 -0.00336
57.35 -0.00093
57.4 0.00287
57.45 0.0047
57.5 0.00544
57.55 0.00868
57.6 0.01034
57.65 0.01258
57.7 0.00825
57.75 0.00277
57.8 0.00286
57.85 0.0044
57.9 0.00733
57.95 0.00854
58 0.01016
58.05 0.00734
58.1 0.00232
58.15 -0.00033
58.2 -0.00347
58.25 -0.00421
58.3 -0.00695
58.35 -0.01005
58.4 -0.008
58.45 -0.00579
58.5 -0.00541
58.55 -0.00747
58.6 -0.00894
58.65 -0.01286
58.7 -0.01803
58.75 -0.01871
58.8 -0.01557
58.85 -0.01698
58.9 -0.02096
58.95 -0.02412
59 -0.02347
59.05 -0.02196
59.1 -0.02398
59.15 -0.02693
59.2 -0.02555
59.25 -0.02592
59.3 -0.02067
59.35 -0.01642
59.4 -0.01169
59.45 -0.00482
59.5 0.00417
59.55 0.0067
59.6 0.00694
59.65 0.01059
59.7 0.01291
59.75 0.00837
59.8 0.00279
59.85 0.00016
59.9 -0.0051
59.95 -0.01003
60 -0.0154
60.05 -0.01739
60.1 -0.01388
60.15 -0.01323
60.2 -0.00867
60.25 -0.01001
60.3 -0.00866
60.35 -0.0071
60.4 -0.00677
60.45 -0.00606
60.5 -0.00378
60.55 -0.00535
60.6 -0.00594
60.65 -0.01004
60.7 -0.00879
60.75 -0.00837
60.8 -0.00802
60.85 -0.01129
60.9 -0.01051
60.95 -0.00824
61 -0.0061
61.05 -0.00602
61.1 -0.00659
61.15 -0.00265
61.2 0.00052
61.25 0.00139
61.3 -0.00302
61.35 -0.00574
61.4 -0.0026
61.45 -0.00509
61.5 -0.00456
61.55 -0.00375
61.6 -0.00443
61.65 -0.00247
61.7 -0.005
61.75 -0.00281
61.8 -0.00221
61.85 0.00079
61.9 0.00641
61.95 0.00856
62 0.00546
62.05 0.00695
62.1 0.00916
62.15 0.00669
62.2 0.00466
62.25 0.00544
62.3 0.00814
62.35 0.00441
62.4 0.00464
62.45 0.00682
62.5 0.00769
62.55 0.01036
62.6 0.00815
62.65 0.00489
62.7 -0.00197
62.75 -0.00916
62.8 -0.01041
62.85 -0.00673
62.9 -0.00644
62.95 -0.00456
63 -0.00424
63.05 -0.00849
63.1 -0.01202
63.15 -0.01559
63.2 -0.0207
63.25 -0.0239
63.3 -0.02761
63.35 -0.02749
63.4 -0.02743
63.45 -0.02858
63.5 -0.02651
63.55 -0.02587
63.6 -0.01946
63.65 -0.01699
63.7 -0.01207
63.75 -0.00412
63.8 0.00476
63.85 0.01076
63.9 0.01673
63.95 0.02331
64 0.02272
64.05 0.02071
64.1 0.01718
64.15 0.01181
64.2 0.01173
64.25 0.01449
64.3 0.01789
64.35 0.0199
64.4 0.02369
64.45 0.02043
64.5 0.01823
64.55 0.01702
64.6 0.0194
64.65 0.02053
64.7 0.0202
64.75 0.01659
64.8 0.00955
64.85 -0.00042
64.9 -0.00621
64.95 -0.00997
65 -0.01332
65.05 -0.01139
65.1 -0.01029
65.15 -0.0131
65.2 -0.00935
65.25 -0.01009
65.3 -0.0109
65.35 -0.00998
65.4 -0.00417
65.45 0.00171
65.5 0.00409
65.55 0.00664
65.6 0.00483
65.65 0.00576
65.7 0.00439
65.75 -0.00128
65.8 -0.00327
65.85 -0.0078
65.9 -0.00796
65.95 -0.00307
66 -0.0019
66.05 0.00069
66.1 0.00253
66.15 0.00014
66.2 -0.00452
66.25 -0.00427
66.3 -0.00856
66.35 -0.00827
66.4 -0.00687
66.45 -0.00402
66.5 0.00154
66.55 0.00662
66.6 0.01321
66.65 0.01971
66.7 0.02373
66.75 0.02707
66.8 0.02207
66.85 0.01929
66.9 0.02053
66.95 0.02131
67 0.0151
67.05 0.00827
67.1 0.00473
67.15 0.00618
67.2 0.00582
67.25 0.00482
67.3 0.00679
67.35 0.00404
67.4 -0.00117
67.45 -0.00871
67.5 -0.01692
67.55 -0.01619
67.6 -0.01836
67.65 -0.01619
67.7 -0.01146
67.75 -0.0047
67.8 -0.0005
67.85 0.00354
67.9 0.00129
67.95 0.00252
68 0.00502
68.05 0.00327
68.1 0.00344
68.15 0.00019
68.2 -0.00251
68.25 -0.00562
68.3 -0.01057
68.35 -0.01729
68.4 -0.02347
68.45 -0.02619
68.5 -0.02767
68.55 -0.02761
68.6 -0.02637
68.65 -0.02226
68.7 -0.01677
68.75 -0.01336
68.8 -0.01042
68.85 -0.00378
68.9 -0.00242
68.95 0.00306
69 0.00815
69.05 0.01059
69.1 0.00906
69.15 0.00903
69.2 0.009
69.25 0.0034
69.3 0.00098
69.35 0.0019
69.4 0.00337
69.45 0.00206
69.5 0.00348
69.55 0.00428
69.6 0.00288
69.65 -0.00026
69.7 0.00015
69.75 0.00102
69.8 0.00299
69.85 0.00302
69.9 -0.00156
69.95 -0.00854
70 -0.01142
70.05 -0.0117
70.1 -0.01237
70.15 -0.01557
70.2 -0.01531
70.25 -0.01144
70.3 -0.00973
70.35 -0.01091
70.4 -0.01524
70.45 -0.01908
70.5 -0.01784
70.55 -0.01214
70.6 -0.01039
70.65 -0.0077
70.7 -0.00096
70.75 0.00106
70.8 0.00477
70.85 0.002
70.9 -0.00123
70.95 0.00137
71 -0.00058
71.05 -0.00116
71.1 0.0017
71.15 -0.00026
71.2 -0.00426
71.25 -0.00691
71.3 -0.00561
71.35 -0.00399
71.4 -0.00021
71.45 0.00025
71.5 0.00265
71.55 0.00409
71.6 0.00109
71.65 -0.00205
71.7 -0.00766
71.75 -0.00637
71.8 -0.00606
71.85 -0.0035
71.9 0.0026
71.95 0.00878
72 0.01403
72.05 0.01222
72.1 0.01005
72.15 0.01166
72.2 0.01366
72.25 0.01625
72.3 0.01807
72.35 0.02083
72.4 0.02541
72.45 0.02575
72.5 0.02859
72.55 0.03069
72.6 0.02511
72.65 0.01562
72.7 0.01222
72.75 0.01211
72.8 0.00881
72.85 0.00092
72.9 -0.00433
72.95 -0.01216
73 -0.01177
73.05 -0.00715
73.1 -0.00095
73.15 0.00368
73.2 0.00375
73.25 -0.00139
73.3 -0.00438
73.35 -0.00528
73.4 -0.00982
73.45 -0.00966
73.5 -0.01048
73.55 -0.00741
73.6 -0.00459
73.65 -0.00164
73.7 -0.00374
73.75 -0.00698
73.8 -0.01101
73.85 -0.00988
73.9 -0.00757
73.95 -0.00926
74 -0.00993
74.05 -0.01364
74.1 -0.01489
74.15 -0.01863
74.2 -0.01486
74.25 -0.00654
74.3 -0.00212
74.35 -0.00309
74.4 -0.00561
74.45 -0.0097
74.5 -0.01033
74.55 -0.00995
74.6 -0.00847
74.65 -0.00816
74.7 -0.00489
74.75 -0.00189
74.8 -0.0009
74.85 0.00459
74.9 0.01232
74.95 0.01358
75 0.0106
75.05 0.01002
75.1 0.00997
75.15 0.00631
75.2 0.00048
75.25 -0.00508
75.3 -0.006
75.35 -0.0082
75.4 -0.0097
75.45 -0.01403
75.5 -0.01514
75.55 -0.01447
75.6 -0.01628
75.65 -0.01602
75.7 -0.01513
75.75 -0.01632
75.8 -0.01911
75.85 -0.02383
75.9 -0.02212
75.95 -0.01673
76 -0.01584
76.05 -0.01548
76.1 -0.01843
76.15 -0.02081
76.2 -0.01973
76.25 -0.02045
76.3 -0.02093
76.35 -0.02205
76.4 -0.02347
76.45 -0.02096
76.5 -0.01676
76.55 -0.01636
76.6 -0.01434
76.65 -0.0159
76.7 -0.01713
76.75 -0.01148
76.8 -0.01032
76.85 -0.00368
76.9 0.00205
76.95 0.00365
77 0.00913
77.05 0.00827
77.1 0.00449
77.15 -0.00035
77.2 -0.00141
77.25 -0.00184
77.3 -0.00463
77.35 -0.00593
77.4 -0.00991
77.45 -0.00803
77.5 -0.00839
77.55 -0.006
77.6 -0.00067
77.65 0.00158
77.7 -0.00133
77.75 -0.00412
77.8 -0.00636
77.85 -0.01061
77.9 -0.0129
77.95 -0.00928
78 -0.00644
78.05 0.00064
78.1 0.01045
78.15 0.01651
78.2 0.02138
78.25 0.02078
78.3 0.01489
78.35 0.00835
78.4 -0.00044
78.45 -0.00409
78.5 -0.00677
78.55 -0.01176
78.6 -0.0121
78.65 -0.01248
78.7 -0.0107
78.75 -0.00382
78.8 0.00403
78.85 0.00755
78.9 0.00822
78.95 0.01234
79 0.01198
79.05 0.01477
79.1 0.01642
79.15 0.01694
79.2 0.01945
79.25 0.02038
79.3 0.01975
79.35 0.01646
79.4 0.00918
79.45 0.0076
79.5 0.005
79.55 0.00265
79.6 0.00377
79.65 0.00738
79.7 0.0116
79.75 0.01247
79.8 0.00938
79.85 0.01032
79.9 0.01322
79.95 0.01095
80 0.01293
80.05 0.0106
80.1 0.0067
80.15 0.00519
80.2 0.00524
80.25 0.00349
80.3 0.00526
80.35 0.00577
80.4 0.01025
80.45 0.01517
80.5 0.01695
80.55 0.01266
80.6 0.00523
80.65 0.004
80.7 0.00776
80.75 0.0056
80.8 0.00223
80.85 0.00311
80.9 0.00338
80.95 0.00591
81 0.00612
81.05 0.00729
81.1 0.00514
81.15 0.00744
81.2 0.00479
81.25 0.0001
81.3 -0.00658
81.35 -0.00998
81.4 -0.0104
81.45 -0.01238
81.5 -0.01043
81.55 -0.01281
81.6 -0.01043
81.65 -0.00308
81.7 -0.00185
81.75 0.00338
81.8 0.00891
81.85 0.00708
81.9 0.00346
81.95 0.00389
82 0.00112
82.05 0.00238
82.1 0.00685
82.15 0.0073
82.2 0.00512
82.25 0.00348
82.3 0.00544
82.35 0.0035
82.4 0.00506
82.45 0.00714
82.5 0.01005
82.55 0.01099
82.6 0.01277
82.65 0.00976
82.7 0.00686
82.75 0.00844
82.8 0.00512
82.85 0.00695
82.9 0.01213
82.95 0.01504
83 0.01492
83.05 0.01757
83.1 0.02036
83.15 0.02204
83.2 0.01671
83.25 0.01296
83.3 0.00756
83.35 0.00731
83.4 0.0034
83.45 -0.0031
83.5 -0.005
83.55 -0.00701
83.6 -0.01174
83.65 -0.01039
83.7 -0.00524
83.75 -0.00604
83.8 -0.00967
83.85 -0.01559
83.9 -0.01694
83.95 -0.01499
84 -0.0173
84.05 -0.01429
84.1 -0.00892
84.15 -0.00538
84.2 -0.00457
84.25 -0.00095
84.3 0.0031
84.35 0.00611
84.4 0.00912
84.45 0.00822
84.5 0.0062
84.55 -0.00049
84.6 -0.00483
84.65 -0.01107
84.7 -0.01474
84.75 -0.01574
84.8 -0.019
84.85 -0.0224
84.9 -0.02747
84.95 -0.02371
85 -0.01916
85.05 -0.01739
85.1 -0.01275
85.15 -0.00703
85.2 -0.00592
85.25 -0.00557
85.3 -0.00859
85.35 -0.00845
85.4 -0.00855
85.45 -0.00533
85.5 -0.00311
85.55 0.00186
85.6 0.00122
85.65 -0.00262
85.7 -0.00882
85.75 -0.01051
85.8 -0.00588
85.85 0.00158
85.9 0.0099
85.95 0.01702
86 0.01562
86.05 0.01112
86.1 0.01103
86.15 0.00935
86.2 0.00287
86.25 -0.00266
86.3 -0.00539
86.35 -0.00211
86.4 0.00487
86.45 0.0112
86.5 0.01457
86.55 0.01597
86.6 0.01742
86.65 0.01705
86.7 0.01538
86.75 0.01515
86.8 0.01314
86.85 0.01091
86.9 0.0064
86.95 -0.0015
87 -0.00935
87.05 -0.0183
87.1 -0.02255
87.15 -0.02013
87.2 -0.02136
87.25 -0.02074
87.3 -0.01675
87.35 -0.01422
87.4 -0.0085
87.45 -0.00201
87.5 0.00531
87.55 0.00816
87.6 0.0138
87.65 0.01911
87.7 0.01874
87.75 0.01286
87.8 0.00682
87.85 0.00393
87.9 0.00225
87.95 -0.0022
88 -0.00527
88.05 -0.00431
88.1 -0.00184
88.15 0.00378
88.2 0.0085
88.25 0.00991
88.3 0.00535
88.35 0.00116
88.4 -0.00337
88.45 -0.00115
88.5 -0.0039
88.55 -0.00758
88.6 -0.01038
88.65 -0.01462
88.7 -0.01289
88.75 -0.00704
88.8 -0.0055
88.85 0.00059
88.9 0.00694
88.95 0.01204
89 0.01125
89.05 0.00641
89.1 0.00417
89.15 0.00701
89.2 0.00585
89.25 0.00489
89.3 0.0065
89.35 0.00914
89.4 0.01429
89.45 0.01702
89.5 0.0216
89.55 0.02742
89.6 0.02658
89.65 0.0213
89.7 0.02032
89.75 0.01625
89.8 0.0161
89.85 0.01833
89.9 0.01429
89.95 0.01116
90 0.00915
90.05 0.00649
90.1 0.00123
90.15 -0.00168
90.2 0.00031
90.25 -0.00172
90.3 -0.00278
90.35 -0.00101
90.4 -0.00146
90.45 0.00055
90.5 0.00251
90.55 0.00006
90.6 -0.00433
90.65 -0.01186
90.7 -0.01328
90.75 -0.0101
90.8 -0.00863
90.85 -0.0073
90.9 -0.00722
90.95 -0.00564
91 -0.00719
91.05 -0.0043
91.1 0.00239
91.15 0.0031
91.2 0.00526
91.25 0.00905
91.3 0.00862
91.35 0.0073
91.4 0.00563
91.45 0.00349
91.5 -0.00279
91.55 -0.00568
91.6 -0.00279
91.65 0.00285
91.7 0.00148
91.75 -0.00174
91.8 -0.00267
91.85 -0.00791
91.9 -0.01547
91.95 -0.01662
92 -0.01407
92.05 -0.01143
92.1 -0.00455
92.15 0.00428
92.2 0.00674
92.25 0.00679
92.3 0.00124
92.35 0.0011
92.4 0.00046
92.45 -0.00249
92.5 -0.00835
92.55 -0.00844
92.6 -0.0115
92.65 -0.01618
92.7 -0.01716
92.75 -0.01361
92.8 -0.01208
92.85 -0.01476
92.9 -0.01157
92.95 -0.00449
93 -0.00303
93.05 -0.00616
93.1 -0.01026
93.15 -0.01587
93.2 -0.02012
93.25 -0.02311
93.3 -0.02779
93.35 -0.0273
93.4 -0.02712
93.45 -0.02229
93.5 -0.01711
93.55 -0.01041
93.6 -0.00626
93.65 -0.00199
93.7 -0.00016
93.75 0.00383
93.8 0.00574
93.85 0.00712
93.9 0.01139
93.95 0.01002
94 0.00856
94.05 0.00488
94.1 -0.00176
94.15 -0.00339
94.2 -0.00157
94.25 0.00363
94.3 0.00691
94.35 0.01287
94.4 0.01958
94.45 0.01857
94.5 0.01256
94.55 0.00333
94.6 -0.00062
94.65 -0.00304
94.7 -0.00644
94.75 -0.00348
94.8 0.00104
94.85 0.00563
94.9 0.00992
94.95 0.015
95 0.01776
95.05 0.01599
95.1 0.01793
95.15 0.01455
95.2 0.01584
95.25 0.01379
95.3 0.00635
95.35 0.00253
95.4 -0.00292
95.45 -0.00655
95.5 -0.00933
95.55 -0.01037
95.6 -0.00743
95.65 -0.00564
95.7 -0.00561
95.75 -0.00115
95.8 -0.00279
95.85 -0.00126
95.9 0.00366
95.95 0.00866
96 0.01459
96.05 0.02072
96.1 0.01841
96.15 0.01162
96.2 0.00942
96.25 0.01144
96.3 0.00885
96.35 0.00773
96.4 0.00818
96.45 0.00573
96.5 0.00736
96.55 0.01007
96.6 0.00656
96.65 0.00205
96.7 -0.00565
96.75 -0.01183
96.8 -0.01421
96.85 -0.01411
96.9 -0.01277
96.95 -0.01074
97 -0.0113
97.05 -0.01178
97.1 -0.00857
97.15 -0.0073
97.2 -0.00449
97.25 0.00197
97.3 0.00482
97.35 0.00224
97.4 -0.00406
97.45 -0.0035
97.5 0.00036
97.55 0.00204
97.6 0.00481
97.65 0.00908
97.7 0.00708
97.75 0.00736
97.8 0.01033
97.85 0.01401
97.9 0.01047
97.95 0.00875
98 0.00382
98.05 -0.00352
98.1 -0.01154
98.15 -0.0168
98.2 -0.01906
98.25 -0.01995
98.3 -0.01861
98.35 -0.01633
98.4 -0.0109
98.45 -0.00858
98.5 -0.00691
98.55 -0.0078
98.6 -0.01173
98.65 -0.01666
98.7 -0.01687
98.75 -0.01085
98.8 -0.00689
98.85 -0.00432
98.9 -0.0035
98.95 -0.00251
99 -0.00388
99.05 -0.00822
99.1 -0.01117
99.15 -0.00736
99.2 -0.0017
99.25 0.00246
99.3 0.00719
99.35 0.00792
99.4 0.00394
99.45 0.00262
99.5 0.0006
99.55 -0.00223
99.6 -0.00469
99.65 -0.0061
99.7 -0.00904
99.75 -0.00678
99.8 -0.00077
99.85 0.00023
99.9 0.00426
99.95 0.00495
