0 0
0.05 0.00226
0.1 0.00993
0.15 0.01925
0.2 0.03032
0.25 0.03927
0.3 0.04364
0.35 0.04857
0.4 0.05324
0.45 0.05735
0.5 0.06279
0.55 0.06545
0.6 0.06781
0.65 0.07184
0.7 0.07655
0.75 0.07349
0.8 0.06622
0.85 0.06341
0.9 0.0629
0.95 0.05968
1 0.06056
1.05 0.05815
1.1 0.05635
1.15 0.05161
1.2 0.05134
1.25 0.04815
1.3 0.04416
1.35 0.044
1.4 0.04674
1.45 0.0481
1.5 0.0479
1.55 0.04667
1.6 0.04623
1.65 0.04566
1.7 0.04588
1.75 0.04506
1.8 0.0413
1.85 0.04186
1.9 0.04412
1.95 0.04118
2 0.04261
2.05 0.04449
2.1 0.04864
2.15 0.04589
2.2 0.04143
2.25 0.03885
2.3 0.03198
2.35 0.02842
2.4 0.02674
2.45 0.02301
2.5 0.01951
2.55 0.01675
2.6 0.01854
2.65 0.02234
2.7 0.02624
2.75 0.02586
2.8 0.02857
2.85 0.02657
2.9 0.021
2.95 0.0145
3 0.00905
3.05 0.01047
3.1 0.01513
3.15 0.02269
3.2 0.03075
3.25 0.03669
3.3 0.03488
3.35 0.03194
3.4 0.02627
3.45 0.01758
3.5 0.00894
3.55 0.00081
3.6 -0.00314
3.65 -0.00505
3.7 -0.00239
3.75 0.00186
3.8 0.00639
3.85 0.00557
3.9 0.00652
3.95 0.01216
4 0.01517
4.05 0.01668
4.1 0.01273
4.15 0.01339
4.2 0.01177
4.25 0.00687
4.3 0.00041
4.35 -0.00338
4.4 -0.00462
4.45 -0.00604
4.5 -0.01145
4.55 -0.01813
4.6 -0.02382
4.65 -0.03169
4.7 -0.04537
4.75 -0.06185
4.8 -0.08529
4.85 -0.10531
4.9 -0.12507
4.95 -0.14558
5 -0.16869
5.05 -0.20076
5.1 -0.24049
5.15 -0.28071
5.2 -0.32736
5.25 -0.37951
5.3 -0.42973
5.35 -0.48536
5.4 -0.54077
5.45 -0.58985
5.5 -0.63923
5.55 -0.68335
5.6 -0.72338
5.65 -0.75968
5.7 -0.79405
5.75 -0.81488
5.8 -0.8303
5.85 -0.83195
5.9 -0.82209
5.95 -0.81017
6 -0.79284
6.05 -0.7661
6.1 -0.72932
6.15 -0.68348
6.2 -0.63736
6.25 -0.58135
6.3 -0.52322
6.35 -0.46368
6.4 -0.39847
6.45 -0.33639
6.5 -0.27722
6.55 -0.22203
6.6 -0.16179
6.65 -0.10184
6.7 -0.04851
6.75 0.00174
6.8 0.05477
6.85 0.10335
6.9 0.1545
6.95 0.20006
7 0.24404
7.05 0.28678
7.1 0.32683
7.15 0.3718
7.2 0.41228
7.25 0.45292
7.3 0.48958
7.35 0.52271
7.4 0.56142
7.45 0.6007
7.5 0.63792
7.55 0.66572
7.6 0.6953
7.65 0.72
7.7 0.74253
7.75 0.76338
7.8 0.78113
7.85 0.79322
7.9 0.80074
7.95 0.79903
8 0.79336
8.05 0.78062
8.1 0.76475
8.15 0.74743
8.2 0.72365
8.25 0.70046
8.3 0.67271
8.35 0.64343
8.4 0.61107
8.45 0.5757
8.5 0.54107
8.55 0.50785
8.6 0.47874
8.65 0.45401
8.7 0.43051
8.75 0.40702
8.8 0.3798
8.85 0.35332
8.9 0.32313
8.95 0.29658
9 0.26826
9.05 0.24355
9.1 0.22422
9.15 0.20872
9.2 0.19398
9.25 0.17894
9.3 0.15953
9.35 0.1449
9.4 0.13198
9.45 0.12235
9.5 0.11522
9.55 0.10996
9.6 0.10154
9.65 0.09527
9.7 0.09002
9.75 0.08826
9.8 0.08804
9.85 0.08438
9.9 0.07976
9.95 0.07047
10 0.06494
10.05 0.06207
10.1 0.05829
10.15 0.04997
10.2 0.04076
10.25 0.03099
10.3 0.02914
10.35 0.02404
10.4 0.02117
10.45 0.02004
10.5 0.01983
10.55 0.01525
10.6 0.01062
10.65 0.00662
10.7 0.00003
10.75 -0.00267
10.8 -0.00337
10.85 -0.0077
10.9 -0.01079
10.95 -0.01774
11 -0.02444
11.05 -0.0243
11.1 -0.02419
11.15 -0.02599
11.2 -0.02558
11.25 -0.02689
11.3 -0.03153
11.35 -0.0316
11.4 -0.02903
11.45 -0.02572
11.5 -0.02927
11.55 -0.0301
11.6 -0.02869
11.65 -0.02957
11.7 -0.02832
11.75 -0.02892
11.8 -0.02914
11.85 -0.03224
11.9 -0.03983
11.95 -0.05136
12 -0.05846
12.05 -0.06505
12.1 -0.06665
12.15 -0.073
12.2 -0.07389
12.25 -0.0787
12.3 -0.08095
12.35 -0.07994
12.4 -0.0758
12.45 -0.0774
12.5 -0.07543
12.55 -0.07314
12.6 -0.07429
12.65 -0.07503
12.7 -0.08022
12.75 -0.08219
12.8 -0.08548
12.85 -0.08709
12.9 -0.08965
12.95 -0.09173
13 -0.08922
13.05 -0.08885
13.1 -0.08509
13.15 -0.08172
13.2 -0.08039
13.25 -0.07816
13.3 -0.07656
13.35 -0.07866
13.4 -0.08332
13.45 -0.08776
13.5 -0.09055
13.55 -0.09271
13.6 -0.09065
13.65 -0.08345
13.7 -0.07572
13.75 -0.07298
13.8 -0.06816
13.85 -0.06783
13.9 -0.06439
13.95 -0.05711
14 -0.05062
14.05 -0.04481
14.1 -0.0451
14.15 -0.04092
14.2 -0.03866
14.25 -0.03822
14.3 -0.0431
14.35 -0.05025
14.4 -0.05336
14.45 -0.05083
14.5 -0.05205
14.55 -0.04754
14.6 -0.03993
14.65 -0.03032
14.7 -0.02246
14.75 -0.01599
14.8 -0.01213
14.85 -0.0151
14.9 -0.01456
14.95 -0.0121
15 -0.00919
15.05 -0.01294
15.1 -0.01358
15.15 -0.01359
15.2 -0.01475
15.25 -0.01946
15.3 -0.02141
15.35 -0.02587
15.4 -0.02551
15.45 -0.02435
15.5 -0.02304
15.55 -0.02198
15.6 -0.01859
15.65 -0.01601
15.7 -0.01726
15.75 -0.02259
15.8 -0.02605
15.85 -0.03088
15.9 -0.03262
15.95 -0.02915
16 -0.02833
16.05 -0.02877
16.1 -0.03146
16.15 -0.03395
16.2 -0.03113
16.25 -0.02459
16.3 -0.01693
16.35 -0.01181
16.4 -0.01255
16.45 -0.01626
16.5 -0.02182
16.55 -0.02696
16.6 -0.03134
16.65 -0.03204
16.7 -0.02857
16.75 -0.02731
16.8 -0.02662
16.85 -0.02532
16.9 -0.02808
16.95 -0.02833
17 -0.0263
17.05 -0.0207
17.1 -0.01735
17.15 -0.01656
17.2 -0.02075
17.25 -0.01969
17.3 -0.02163
17.35 -0.02117
17.4 -0.01753
17.45 -0.019
17.5 -0.02391
17.55 -0.02466
17.6 -0.02501
17.65 -0.02878
17.7 -0.03095
17.75 -0.02854
17.8 -0.02322
17.85 -0.01929
17.9 -0.01903
17.95 -0.01832
18 -0.01532
18.05 -0.00957
18.1 -0.00212
18.15 -0.00069
18.2 -0.00343
18.25 -0.00604
18.3 -0.01158
18.35 -0.01566
18.4 -0.01946
18.45 -0.02387
18.5 -0.02483
18.55 -0.02211
18.6 -0.01876
18.65 -0.01384
18.7 -0.01064
18.75 -0.00566
18.8 -0.00494
18.85 -0.0009
18.9 0.00142
18.95 0.00112
19 -0.00351
19.05 -0.00859
19.1 -0.00786
19.15 -0.00888
19.2 -0.01241
19.25 -0.01561
19.3 -0.0206
19.35 -0.02458
19.4 -0.03049
19.45 -0.03253
19.5 -0.0305
19.55 -0.02612
19.6 -0.02024
19.65 -0.01252
19.7 -0.00575
19.75 -0.00641
19.8 -0.00957
19.85 -0.01141
19.9 -0.01593
19.95 -0.0212
20 -0.02167
20.05 -0.02093
20.1 -0.02228
20.15 -0.02511
20.2 -0.02941
20.25 -0.02949
20.3 -0.02345
20.35 -0.01563
20.4 -0.01341
20.45 -0.01125
20.5 -0.00556
20.55 -0.00405
20.6 -0.00014
20.65 0.00029
20.7 0.00193
20.75 -0.00019
20.8 0.00125
20.85 0.00605
20.9 0.00424
20.95 -0.00189
21 -0.00994
21.05 -0.01404
21.1 -0.02058
21.15 -0.02428
21.2 -0.0275
21.25 -0.02824
21.3 -0.02875
21.35 -0.02738
21.4 -0.0225
21.45 -0.0144
21.5 -0.00989
21.55 -0.00639
21.6 -0.00864
21.65 -0.01247
21.7 -0.01051
21.75 -0.00993
21.8 -0.00721
21.85 -0.00975
21.9 -0.00659
21.95 -0.0016
22 -0.0028
22.05 -0.00152
22.1 -0.00282
22.15 -0.00417
22.2 -0.00275
22.25 -0.00176
22.3 -0.00166
22.35 -0.00294
22.4 -0.0005
22.45 -0.00304
22.5 -0.00302
22.55 -0.00166
22.6 -0.00076
22.65 -0.00219
22.7 -0.00039
22.75 0.00235
22.8 0.00638
22.85 0.01048
22.9 0.01067
22.95 0.00682
23 0.00299
23.05 0.00313
23.1 -0.00048
23.15 -0.00128
23.2 -0.00396
23.25 -0.00724
23.3 -0.00458
23.35 -0.00325
23.4 -0.00063
23.45 0.00412
23.5 0.00876
23.55 0.0138
23.6 0.01726
23.65 0.01998
23.7 0.01933
23.75 0.01665
23.8 0.01576
23.85 0.01541
23.9 0.01803
23.95 0.02057
24 0.02456
24.05 0.02713
24.1 0.03034
24.15 0.02966
24.2 0.02177
24.25 0.0191
24.3 0.01833
24.35 0.0113
24.4 0.00501
24.45 0.00109
24.5 0.00158
24.55 -0.00339
24.6 -0.00544
24.65 -0.00526
24.7 -0.00686
24.75 -0.00493
24.8 -0.00523
24.85 -0.00576
24.9 -0.00495
24.95 -0.0005
25 0.00632
25.05 0.00756
25.1 0.00335
25.15 -0.00255
25.2 -0.00217
25.25 0.00051
25.3 -0.00162
25.35 -0.00501
25.4 -0.00645
25.45 -0.00553
25.5 -0.00086
25.55 0.00369
25.6 0.00414
25.65 0.00766
25.7 0.01293
25.75 0.01512
25.8 0.01209
25.85 0.00812
25.9 0.00437
25.95 0.00001
26 -0.00617
26.05 -0.01125
26.1 -0.01637
26.15 -0.01695
26.2 -0.01781
26.25 -0.0134
26.3 -0.00656
26.35 0.00088
26.4 0.00629
26.45 0.01146
26.5 0.01567
26.55 0.01909
26.6 0.01619
26.65 0.01308
26.7 0.00535
26.75 -0.00545
26.8 -0.00975
26.85 -0.0145
26.9 -0.01422
26.95 -0.01058
27 -0.00833
27.05 -0.01126
27.1 -0.01346
27.15 -0.01897
27.2 -0.02057
27.25 -0.01701
27.3 -0.01109
27.35 -0.00896
27.4 -0.01214
27.45 -0.01854
27.5 -0.01919
27.55 -0.01855
27.6 -0.01834
27.65 -0.02075
27.7 -0.0259
27.75 -0.03028
27.8 -0.03475
27.85 -0.04255
27.9 -0.05893
27.95 -0.07726
28 -0.10232
28.05 -0.12304
28.1 -0.14304
28.15 -0.16585
28.2 -0.19783
28.25 -0.23237
28.3 -0.26699
28.35 -0.30196
28.4 -0.34281
28.45 -0.39448
28.5 -0.45392
28.55 -0.52036
28.6 -0.58737
28.65 -0.65932
28.7 -0.72928
28.75 -0.80536
28.8 -0.87951
28.85 -0.95992
28.9 -1.03756
28.95 -1.11674
29 -1.20049
29.05 -1.28397
29.1 -1.36596
29.15 -1.4493
29.2 -1.53662
29.25 -1.6163
29.3 -1.69014
29.35 -1.76271
29.4 -1.82849
29.45 -1.89038
29.5 -1.9481
29.55 -2.00094
29.6 -2.04524
29.65 -2.07554
29.7 -2.09432
29.75 -2.10045
29.8 -2.10038
29.85 -2.08517
29.9 -2.05458
29.95 -2.01133
30 -1.95928
30.05 -1.90088
30.1 -1.83268
30.15 -1.75684
30.2 -1.66631
30.25 -1.56896
30.3 -1.46586
30.35 -1.35218
30.4 -1.22856
30.45 -1.10404
30.5 -0.97773
30.55 -0.84067
30.6 -0.70398
30.65 -0.56647
30.7 -0.42318
30.75 -0.27942
30.8 -0.13803
30.85 0.00714
30.9 0.148
30.95 0.28995
31 0.42861
31.05 0.5658
31.1 0.69918
31.15 0.82451
31.2 0.94639
31.25 1.06241
31.3 1.16792
31.35 1.26341
31.4 1.35302
31.45 1.43215
31.5 1.50213
31.55 1.56592
31.6 1.62191
31.65 1.66506
31.7 1.69893
31.75 1.72672
31.8 1.74672
31.85 1.76048
31.9 1.77704
31.95 1.78961
32 1.80267
32.05 1.81224
32.1 1.81575
32.15 1.81291
32.2 1.81197
32.25 1.80504
32.3 1.79603
32.35 1.79199
32.4 1.78383
32.45 1.77923
32.5 1.776
32.55 1.76696
32.6 1.75001
32.65 1.73479
32.7 1.71607
32.75 1.6966
32.8 1.67095
32.85 1.64451
32.9 1.61921
32.95 1.59687
33 1.57409
33.05 1.54511
33.1 1.51963
33.15 1.48982
33.2 1.46069
33.25 1.42703
33.3 1.38879
33.35 1.35289
33.4 1.31178
33.45 1.27476
33.5 1.23486
33.55 1.19856
33.6 1.15875
33.65 1.11338
33.7 1.07402
33.75 1.0328
33.8 0.99491
33.85 0.95964
33.9 0.92027
33.95 0.87857
34 0.83559
34.05 0.78818
34.1 0.74165
34.15 0.70181
34.2 0.66492
34.25 0.62816
34.3 0.58965
34.35 0.54888
34.4 0.50469
34.45 0.46767
34.5 0.4268
34.55 0.39242
34.6 0.36157
34.65 0.32894
34.7 0.29273
34.75 0.26083
34.8 0.2283
34.85 0.20051
34.9 0.17159
34.95 0.14866
35 0.1284
35.05 0.10967
35.1 0.08373
35.15 0.06243
35.2 0.03518
35.25 0.00883
35.3 -0.01449
35.35 -0.03199
35.4 -0.04723
35.45 -0.06791
35.5 -0.08662
35.55 -0.104
35.6 -0.12101
35.65 -0.13458
35.7 -0.14889
35.75 -0.15901
35.8 -0.17019
35.85 -0.18013
35.9 -0.18827
35.95 -0.19603
36 -0.20535
36.05 -0.21807
36.1 -0.23336
36.15 -0.24937
36.2 -0.26072
36.25 -0.27002
36.3 -0.27359
36.35 -0.27862
36.4 -0.28479
36.45 -0.29424
36.5 -0.30309
36.55 -0.31341
36.6 -0.32345
36.65 -0.33028
36.7 -0.33501
36.75 -0.33651
36.8 -0.33575
36.85 -0.33476
36.9 -0.32966
36.95 -0.32727
37 -0.32684
37.05 -0.32452
37.1 -0.32105
37.15 -0.31652
37.2 -0.31378
37.25 -0.31301
37.3 -0.30809
37.35 -0.30655
37.4 -0.30742
37.45 -0.30911
37.5 -0.30318
37.55 -0.30048
37.6 -0.29356
37.65 -0.28588
37.7 -0.27886
37.75 -0.27654
37.8 -0.27674
37.85 -0.27767
37.9 -0.27628
37.95 -0.269
38 -0.26303
38.05 -0.25429
38.1 -0.24891
38.15 -0.24028
38.2 -0.2364
38.25 -0.23265
38.3 -0.23501
38.35 -0.23831
38.4 -0.23481
38.45 -0.23069
38.5 -0.22436
38.55 -0.21521
38.6 -0.2127
38.65 -0.21018
38.7 -0.20745
38.75 -0.20665
38.8 -0.20448
38.85 -0.20738
38.9 -0.20429
38.95 -0.20408
39 -0.20247
39.05 -0.19879
39.1 -0.19471
39.15 -0.19027
39.2 -0.18961
39.25 -0.18954
39.3 -0.18803
39.35 -0.18276
39.4 -0.17371
39.45 -0.16982
39.5 -0.16528
39.55 -0.16609
39.6 -0.16837
39.65 -0.17017
39.7 -0.17017
39.75 -0.16719
39.8 -0.16519
39.85 -0.16116
39.9 -0.15375
39.95 -0.14936
40 -0.14579
40.05 -0.14251
40.1 -0.14422
40.15 -0.14351
40.2 -0.14287
40.25 -0.14125
40.3 -0.13531
40.35 -0.12639
40.4 -0.12253
40.45 -0.12224
40.5 -0.11714
40.55 -0.11441
40.6 -0.11293
40.65 -0.10757
40.7 -0.10302
40.75 -0.10508
40.8 -0.10955
40.85 -0.11672
40.9 -0.12187
40.95 -0.12593
41 -0.12685
41.05 -0.12374
41.1 -0.11685
41.15 -0.1063
41.2 -0.10342
41.25 -0.10235
41.3 -0.10084
41.35 -0.10382
41.4 -0.10837
41.45 -0.1111
41.5 -0.11012
41.55 -0.11116
41.6 -0.10809
41.65 -0.10782
41.7 -0.10234
41.75 -0.097
41.8 -0.09655
41.85 -0.09558
41.9 -0.09622
41.95 -0.09112
42 -0.08663
42.05 -0.08203
42.1 -0.07374
42.15 -0.07077
42.2 -0.07101
42.25 -0.06819
42.3 -0.069
42.35 -0.07335
42.4 -0.07156
42.45 -0.07413
42.5 -0.0729
42.55 -0.07251
42.6 -0.06774
42.65 -0.06454
42.7 -0.0635
42.75 -0.06456
42.8 -0.05982
42.85 -0.05971
42.9 -0.05584
42.95 -0.05649
43 -0.05981
43.05 -0.06182
43.1 -0.06599
43.15 -0.0677
43.2 -0.06423
43.25 -0.06465
43.3 -0.06238
43.35 -0.05956
43.4 -0.0547
43.45 -0.04606
43.5 -0.0447
43.55 -0.0395
43.6 -0.03711
43.65 -0.03944
43.7 -0.04212
43.75 -0.0451
43.8 -0.04499
43.85 -0.04569
43.9 -0.04546
43.95 -0.04855
44 -0.05411
44.05 -0.05221
44.1 -0.04539
44.15 -0.04245
44.2 -0.03752
44.25 -0.03521
44.3 -0.02889
44.35 -0.02266
44.4 -0.02004
44.45 -0.02007
44.5 -0.02076
44.55 -0.02355
44.6 -0.02653
44.65 -0.02668
44.7 -0.02365
44.75 -0.02552
44.8 -0.03035
44.85 -0.03547
44.9 -0.04112
44.95 -0.04629
45 -0.05047
45.05 -0.05072
45.1 -0.04591
45.15 -0.04012
45.2 -0.03625
45.25 -0.03204
45.3 -0.0292
45.35 -0.02307
45.4 -0.01967
45.45 -0.02236
45.5 -0.02686
45.55 -0.02841
45.6 -0.02408
45.65 -0.02295
45.7 -0.02577
45.75 -0.02529
45.8 -0.02574
45.85 -0.0235
45.9 -0.02137
45.95 -0.01669
46 -0.01565
46.05 -0.01708
46.1 -0.01423
46.15 -0.01349
46.2 -0.01699
46.25 -0.01458
46.3 -0.01571
46.35 -0.01788
46.4 -0.01437
46.45 -0.00799
46.5 -0.00912
46.55 -0.00825
46.6 -0.00958
46.65 -0.00688
46.7 -0.00222
46.75 0.00359
46.8 0.00709
46.85 0.0069
46.9 0.00105
46.95 -0.00768
47 -0.01117
47.05 -0.01544
47.1 -0.01918
47.15 -0.02557
47.2 -0.02686
47.25 -0.03088
47.3 -0.02902
47.35 -0.03071
47.4 -0.0263
47.45 -0.0196
47.5 -0.01261
47.55 -0.00642
47.6 0.00085
47.65 0.00738
47.7 0.00917
47.75 0.00718
47.8 0.00734
47.85 0.00162
47.9 -0.0043
47.95 -0.01098
48 -0.01648
48.05 -0.01877
48.1 -0.01503
48.15 -0.01257
48.2 -0.00941
48.25 -0.00276
48.3 -0.00004
48.35 0.00079
48.4 -0.00422
48.45 -0.00889
48.5 -0.01097
48.55 -0.01036
48.6 -0.01406
48.65 -0.01213
48.7 -0.00628
48.75 -0.00383
48.8 -0.00042
48.85 0.00097
48.9 0.00165
48.95 -0.00222
49 -0.0088
49.05 -0.01644
49.1 -0.02089
49.15 -0.02564
49.2 -0.02329
49.25 -0.02018
49.3 -0.01411
49.35 -0.01299
49.4 -0.01663
49.45 -0.02177
49.5 -0.02751
49.55 -0.03215
49.6 -0.02947
49.65 -0.023
49.7 -0.02096
49.75 -0.01862
49.8 -0.01351
49.85 -0.01186
49.9 -0.00552
49.95 0.00278
50 0.00699
50.05 0.00795
50.1 0.00487
50.15 -0.00054
50.2 -0.00885
50.25 -0.01484
50.3 -0.0198
50.35 -0.01963
50.4 -0.01381
50.45 -0.01308
50.5 -0.01302
50.55 -0.00928
50.6 -0.00907
50.65 -0.00666
50.7 -0.00635
50.75 -0.003
50.8 0.00155
50.85 0.00422
50.9 0.00427
50.95 0.008
51 0.01113
51.05 0.00939
51.1 0.00501
51.15 0.00557
51.2 0.00671
51.25 0.00726
51.3 0.00225
51.35 0.00028
51.4 0.00286
51.45 0.00548
51.5 0.00884
51.55 0.00811
51.6 0.01064
51.65 0.00983
51.7 0.0052
51.75 0.00551
51.8 0.00899
51.85 0.00995
51.9 0.00484
51.95 0.00531
52 0.00017
52.05 -0.00582
52.1 -0.01035
52.15 -0.01746
52.2 -0.01679
52.25 -0.01808
52.3 -0.02102
52.35 -0.01962
52.4 -0.02204
52.45 -0.0232
52.5 -0.02114
52.55 -0.02013
52.6 -0.01976
52.65 -0.02107
52.7 -0.02344
52.75 -0.01846
52.8 -0.00956
52.85 -0.0008
52.9 0.00054
52.95 0.0031
53 0.00686
53.05 0.01132
53.1 0.01549
53.15 0.01241
53.2 0.00999
53.25 0.01012
53.3 0.01354
53.35 0.01588
53.4 0.01326
53.45 0.01081
53.5 0.0067
53.55 0.00159
53.6 -0.00219
53.65 -0.00552
53.7 -0.01061
53.75 -0.01594
53.8 -0.01428
53.85 -0.01535
53.9 -0.01953
53.95 -0.0227
54 -0.02517
54.05 -0.02225
54.1 -0.02332
54.15 -0.01812
54.2 -0.01786
54.25 -0.016
54.3 -0.01468
54.35 -0.01107
54.4 -0.00838
54.45 -0.00378
54.5 -0.00435
54.55 -0.00263
54.6 -0.00475
54.65 -0.00855
54.7 -0.01084
54.75 -0.00661
54.8 -0.00661
54.85 -0.00304
54.9 0.00077
54.95 -0.00029
55 -0.00262
55.05 -0.00675
55.1 -0.01136
55.15 -0.01425
55.2 -0.01056
55.25 -0.00838
55.3 -0.0047
55.35 0.00129
55.4 0.00378
55.45 0.00662
55.5 0.00772
55.55 0.01208
55.6 0.0098
55.65 0.01221
55.7 0.01017
55.75 0.00702
55.8 0.00922
55.85 0.01354
55.9 0.01702
55.95 0.02127
56 0.01964
56.05 0.01588
56.1 0.01153
56.15 0.00774
56.2 0.00472
56.25 -0.00204
56.3 -0.00611
56.35 -0.00631
56.4 -0.00495
56.45 -0.0027
56.5 0.001
56.55 0.00219
56.6 0.00325
56.65 0.0006
56.7 -0.00512
56.75 -0.00414
56.8 -0.00322
56.85 0.0019
56.9 0.00949
56.95 0.00904
57 0.01141
57.05 0.01272
57.1 0.01646
57.15 0.02048
57.2 0.01863
57.25 0.01944
57.3 0.01705
57.35 0.01268
57.4 0.00498
57.45 -0.00024
57.5 -0.00438
57.55 -0.00754
57.6 -0.00541
57.65 -0.00494
57.7 -0.00012
57.75 -0.0003
57.8 -0.00173
57.85 0.00175
57.9 -0.00077
57.95 -0.00655
58 -0.01461
58.05 -0.01564
58.1 -0.01866
58.15 -0.01867
58.2 -0.01577
58.25 -0.01035
58.3 -0.00368
58.35 0.00341
58.4 0.00762
58.45 0.01183
58.5 0.00993
58.55 0.01136
58.6 0.01136
58.65 0.00877
58.7 0.00518
58.75 -0.00003
58.8 -0.00466
58.85 -0.01135
58.9 -0.01275
58.95 -0.00851
59 -0.00997
59.05 -0.01304
59.1 -0.00994
59.15 -0.00571
59.2 -0.00017
59.25 0.0038
59.3 0.00599
59.35 0.00741
59.4 0.00316
59.45 -0.00274
59.5 -0.00423
59.55 -0.00828
59.6 -0.00852
59.65 -0.00972
59.7 -0.0111
59.75 -0.00855
59.8 -0.00973
59.85 -0.00592
59.9 -0.00296
59.95 0.00263
60 0.00583
60.05 0.00497
60.1 -0.00053
60.15 -0.00438
60.2 -0.00843
60.25 -0.01141
60.3 -0.01348
60.35 -0.01834
60.4 -0.01838
60.45 -0.01899
60.5 -0.01926
60.55 -0.02103
60.6 -0.02416
60.65 -0.02757
60.7 -0.02968
60.75 -0.03276
60.8 -0.0309
60.85 -0.02523
60.9 -0.01813
60.95 -0.01457
61 -0.01039
61.05 -0.00214
61.1 0.00306
61.15 0.00318
61.2 0.00456
61.25 0.0037
61.3 0.00754
61.35 0.00952
61.4 0.00756
61.45 0.00264
61.5 -0.00051
61.55 -0.00002
61.6 -0.00082
61.65 -0.00335
61.7 -0.00192
61.75 0.00025
61.8 0.00339
61.85 0.00353
61.9 0.00016
61.95 -0.00533
62 -0.0052
62.05 -0.00012
62.1 0.00277
62.15 0.00906
62.2 0.00866
62.25 0.0066
62.3 0.00264
62.35 -0.00202
62.4 -0.0063
62.45 -0.00949
62.5 -0.01195
62.55 -0.0115
62.6 -0.00562
62.65 -0.00565
62.7 -0.00843
62.75 -0.0054
62.8 -0.00622
62.85 -0.00528
62.9 -0.006
62.95 -0.00172
63 0.00407
63.05 0.00758
63.1 0.00769
63.15 0.00319
63.2 0.00375
63.25 0.00226
63.3 -0.00198
63.35 -0.00435
63.4 -0.00614
63.45 -0.01053
63.5 -0.0165
63.55 -0.016
63.6 -0.01509
63.65 -0.01524
63.7 -0.01331
63.75 -0.01294
63.8 -0.00965
63.85 -0.00797
63.9 -0.00277
63.95 0.00158
64 0.00166
64.05 0.00093
64.1 0.00061
64.15 0.0002
64.2 0.00377
64.25 0.00778
64.3 0.01299
64.35 0.01312
64.4 0.01437
64.45 0.01812
64.5 0.01897
64.55 0.0204
64.6 0.022
64.65 0.02137
64.7 0.02406
64.75 0.02542
64.8 0.02234
64.85 0.02058
64.9 0.01825
64.95 0.01913
65 0.02106
65.05 0.02074
65.1 0.01708
65.15 0.01346
65.2 0.00863
65.25 0.00184
65.3 -0.00587
65.35 -0.01255
65.4 -0.01725
65.45 -0.01729
65.5 -0.01741
65.55 -0.02058
65.6 -0.02485
65.65 -0.02981
65.7 -0.02613
65.75 -0.02082
65.8 -0.01977
65.85 -0.01499
65.9 -0.00675
65.95 -0.00509
66 -0.00681
66.05 -0.01132
66.1 -0.01186
66.15 -0.01464
66.2 -0.01465
66.25 -0.00992
66.3 -0.00105
66.35 0.00511
66.4 0.00895
66.45 0.0104
66.5 0.01414
66.55 0.0141
66.6 0.01766
66.65 0.01477
66.7 0.01666
66.75 0.01893
66.8 0.0217
66.85 0.02633
66.9 0.02858
66.95 0.02443
67 0.02198
67.05 0.01578
67.1 0.01056
67.15 0.0077
67.2 0.00099
67.25 0.00052
67.3 -0.00043
67.35 0.00024
67.4 0.00169
67.45 -0.0022
67.5 -0.00156
67.55 -0.00438
67.6 -0.01013
67.65 -0.01126
67.7 -0.01275
67.75 -0.00836
67.8 -0.00956
67.85 -0.00557
67.9 -0.00042
67.95 0.00051
68 -0.00335
68.05 -0.00368
68.1 -0.00033
68.15 0.00368
68.2 0.00549
68.25 0.00962
68.3 0.00736
68.35 0.00386
68.4 0.00529
68.45 0.00795
68.5 0.0066
68.55 0.00898
68.6 0.01343
68.65 0.01412
68.7 0.01121
68.75 0.00448
68.8 -0.00254
68.85 -0.00372
68.9 -0.00517
68.95 -0.00687
69 -0.01191
69.05 -0.01024
69.1 -0.00595
69.15 -0.00029
69.2 0.00213
69.25 0.0041
69.3 0.0036
69.35 0.00086
69.4 -0.00173
69.45 -0.00035
69.5 -0.00383
69.55 -0.00377
69.6 -0.00241
69.65 -0.0037
69.7 -0.00319
69.75 0.00142
69.8 0.00041
69.85 0.00196
69.9 0.00734
69.95 0.01212
70 0.01307
70.05 0.01112
70.1 0.00899
70.15 0.00518
70.2 -0.00194
70.25 -0.00362
70.3 -0.00747
70.35 -0.01311
70.4 -0.01149
70.45 -0.01345
70.5 -0.01736
70.55 -0.02267
70.6 -0.02128
70.65 -0.02109
70.7 -0.01624
70.75 -0.00725
70.8 -0.00211
70.85 -0.00078
70.9 0.00174
70.95 -0.00046
71 0.00034
71.05 0.00063
71.1 -0.00161
71.15 0.00068
71.2 0.00537
71.25 0.00831
71.3 0.00924
71.35 0.00626
71.4 0.00116
71.45 -0.00682
71.5 -0.01354
71.55 -0.01291
71.6 -0.00809
71.65 -0.00234
71.7 0.00466
71.75 0.00944
71.8 0.01236
71.85 0.01645
71.9 0.02041
71.95 0.02554
72 0.02947
72.05 0.03363
72.1 0.02967
72.15 0.02034
72.2 0.00858
72.25 -0.00044
72.3 -0.00905
72.35 -0.01261
72.4 -0.01209
72.45 -0.00797
72.5 -0.00435
72.55 -0.00361
72.6 -0.00667
72.65 -0.01138
72.7 -0.01734
72.75 -0.01523
72.8 -0.01575
72.85 -0.01458
72.9 -0.00873
72.95 -0.00761
73 -0.00299
73.05 -0.00403
73.1 -0.00421
73.15 -0.00847
73.2 -0.00973
73.25 -0.00517
73.3 -0.00375
73.35 -0.00177
73.4 0.00421
73.45 0.01241
73.5 0.01596
73.55 0.01392
73.6 0.01242
73.65 0.00777
73.7 0.0082
73.75 0.01135
73.8 0.01473
73.85 0.01862
73.9 0.02392
73.95 0.0243
74 0.02556
74.05 0.02594
74.1 0.02106
74.15 0.01982
74.2 0.02095
74.25 0.01587
74.3 0.00911
74.35 0.0078
74.4 0.00259
74.45 -0.00421
74.5 -0.00464
74.55 -0.00562
74.6 -0.00648
74.65 -0.00801
74.7 -0.00774
74.75 -0.01072
74.8 -0.01051
74.85 -0.01118
74.9 -0.00736
74.95 -0.00906
75 -0.00909
75.05 -0.01324
75.1 -0.01681
75.15 -0.01576
75.2 -0.00941
75.25 -0.00546
75.3 0.00092
75.35 0.00225
75.4 0.00365
75.45 0.0026
75.5 0.003
75.55 -0.0009
75.6 -0.0011
75.65 -0.00327
75.7 -0.0053
75.75 -0.00624
75.8 -0.00652
75.85 -0.00663
75.9 -0.01043
75.95 -0.0081
76 -0.00357
76.05 -0.00455
76.1 -0.00531
76.15 -0.00609
76.2 -0.00323
76.25 0.00148
76.3 -0.00014
76.35 0.00321
76.4 0.00172
76.45 0.00489
76.5 0.00777
76.55 0.00835
76.6 0.01207
76.65 0.01329
76.7 0.01409
76.75 0.00849
76.8 0.0042
76.85 0.00439
76.9 0.00228
76.95 0.00118
77 0.00329
77.05 0.00294
77.1 0.00179
77.15 -0.00168
77.2 -0.00156
77.25 -0.00396
77.3 -0.00543
77.35 -0.00994
77.4 -0.01
77.45 -0.00944
77.5 -0.01307
77.55 -0.0161
77.6 -0.01905
77.65 -0.023
77.7 -0.02482
77.75 -0.02407
77.8 -0.01686
77.85 -0.00643
77.9 0.00356
77.95 0.00724
78 0.01079
78.05 0.01627
78.1 0.0181
78.15 0.01777
78.2 0.01163
78.25 0.00886
78.3 0.00356
78.35 0.00082
78.4 -0.00491
78.45 -0.01198
78.5 -0.01983
78.55 -0.02237
78.6 -0.01924
78.65 -0.01253
78.7 -0.00706
78.75 0.00074
78.8 0.00724
78.85 0.00905
78.9 0.00978
78.95 0.01397
79 0.0144
79.05 0.01806
79.1 0.01708
79.15 0.01813
79.2 0.01312
79.25 0.0112
79.3 0.00723
79.35 -0.00077
79.4 -0.00223
79.45 -0.00605
79.5 -0.01179
79.55 -0.01779
79.6 -0.02363
79.65 -0.02146
79.7 -0.01519
79.75 -0.00828
79.8 -0.00551
79.85 -0.0016
79.9 -0.00217
79.95 0.00188
80 0.00416
80.05 0.00788
80.1 0.01343
80.15 0.01393
80.2 0.00859
80.25 0.0051
80.3 0.00262
80.35 0.00279
80.4 0.00003
80.45 -0.00265
80.5 -0.00021
80.55 -0.00355
80.6 -0.00941
80.65 -0.00796
80.7 -0.01075
80.75 -0.00834
80.8 -0.01092
80.85 -0.0141
80.9 -0.01893
80.95 -0.02413
81 -0.02346
81.05 -0.0227
81.1 -0.01757
81.15 -0.00828
81.2 0.00069
81.25 0.00768
81.3 0.0154
81.35 0.01502
81.4 0.01731
81.45 0.01634
81.5 0.01867
81.55 0.01671
81.6 0.01071
81.65 0.00547
81.7 0.00404
81.75 -0.00048
81.8 -0.00404
81.85 -0.01056
81.9 -0.01409
81.95 -0.01671
82 -0.01478
82.05 -0.00925
82.1 -0.00036
82.15 0.00107
82.2 -0.00083
82.25 -0.00093
82.3 0.00236
82.35 0.00049
82.4 0.00112
82.45 -0.00067
82.5 -0.00544
82.55 -0.00898
82.6 -0.00684
82.65 -0.00912
82.7 -0.00944
82.75 -0.01335
82.8 -0.01661
82.85 -0.01393
82.9 -0.00685
82.95 -0.00113
83 0.00526
83.05 0.00889
83.1 0.0112
83.15 0.00804
83.2 0.0039
83.25 0.00462
83.3 0.00551
83.35 0.00488
83.4 0.0064
83.45 0.00236
83.5 0.00224
83.55 0.00581
83.6 0.01118
83.65 0.01638
83.7 0.0136
83.75 0.01376
83.8 0.01082
83.85 0.00729
83.9 0.00665
83.95 0.00634
84 0.004
84.05 0.00504
84.1 0.00339
84.15 0.00651
84.2 0.00489
84.25 0.00255
84.3 0.0033
84.35 0.00774
84.4 0.01189
84.45 0.01298
84.5 0.01536
84.55 0.01148
84.6 0.00556
84.65 0.00584
84.7 0.00199
84.75 -0.00178
84.8 -0.00486
84.85 -0.00681
84.9 -0.00322
84.95 0.00257
85 0.00432
85.05 0.00953
85.1 0.01216
85.15 0.01612
85.2 0.02158
85.25 0.0207
85.3 0.01791
85.35 0.01623
85.4 0.01428
85.45 0.0136
85.5 0.01023
85.55 0.00777
85.6 0.00665
85.65 0.00153
85.7 -0.00623
85.75 -0.00826
85.8 -0.01281
85.85 -0.01487
85.9 -0.01545
85.95 -0.01858
86 -0.01617
86.05 -0.00892
86.1 0.00036
86.15 0.00444
86.2 0.00528
86.25 0.0039
86.3 0.00382
86.35 0.00466
86.4 0.00468
86.45 -0.00032
86.5 -0.00183
86.55 -0.00091
86.6 -0.00314
86.65 -0.00729
86.7 -0.0126
86.75 -0.01849
86.8 -0.02247
86.85 -0.01891
86.9 -0.01529
86.95 -0.01578
87 -0.01259
87.05 -0.01214
87.1 -0.0135
87.15 -0.01564
87.2 -0.01999
87.25 -0.02314
87.3 -0.02234
87.35 -0.02353
87.4 -0.02252
87.45 -0.01964
87.5 -0.01646
87.55 -0.01523
87.6 -0.01477
87.65 -0.01645
87.7 -0.01742
87.75 -0.01571
87.8 -0.01513
87.85 -0.00932
87.9 -0.00122
87.95 0.00673
88 0.00882
88.05 0.01165
88.1 0.01481
88.15 0.01858
88.2 0.01692
88.25 0.01542
88.3 0.01084
88.35 0.00604
88.4 0.00635
88.45 0.00709
88.5 0.00772
88.55 0.01114
88.6 0.00789
88.65 0.00185
88.7 -0.002
88.75 -0.0084
88.8 -0.01491
88.85 -0.01721
88.9 -0.01868
88.95 -0.01839
89 -0.0192
89.05 -0.02283
89.1 -0.02079
89.15 -0.01691
89.2 -0.01683
89.25 -0.01212
89.3 -0.01271
89.35 -0.00991
89.4 -0.00338
89.45 -0.00159
89.5 0.00178
89.55 0.002
89.6 0.00529
89.65 0.00386
89.7 0.0007
89.75 0.00334
89.8 0.00482
89.85 0.00448
89.9 0.00318
89.95 0.00259
90 -0.0016
90.05 -0.00416
90.1 -0.00488
90.15 -0.00843
90.2 -0.0097
90.25 -0.01254
90.3 -0.01077
90.35 -0.00575
90.4 -0.00229
90.45 -0.00098
90.5 0.00404
90.55 0.0064
90.6 0.00887
90.65 0.00736
90.7 0.00352
90.75 0.00338
90.8 0.00501
90.85 0.00216
90.9 -0.00056
90.95 -0.00052
91 0.00245
91.05 0.00869
91.1 0.01357
91.15 0.0204
91.2 0.02307
91.25 0.01873
91.3 0.01246
91.35 0.00987
91.4 0.00492
91.45 0.00072
91.5 0.00132
91.55 0.00332
91.6 0.0004
91.65 -0.0046
91.7 -0.00452
91.75 -0.00855
91.8 -0.00911
91.85 -0.01278
91.9 -0.01822
91.95 -0.01902
92 -0.02026
92.05 -0.02065
92.1 -0.0143
92.15 -0.01206
92.2 -0.00819
92.25 -0.00829
92.3 -0.00475
92.35 -0.00158
92.4 -0.00248
92.45 0.00103
92.5 0.00316
92.55 0.0001
92.6 -0.00184
92.65 -0.0063
92.7 -0.00735
92.75 -0.0063
92.8 -0.00017
92.85 0.00739
92.9 0.00768
92.95 0.0053
93 0.00596
93.05 0.00555
93.1 0.00781
93.15 0.00537
93.2 -0.00077
93.25 -0.00291
93.3 -0.00097
93.35 -0.00159
93.4 -0.00606
93.45 -0.01043
93.5 -0.01159
93.55 -0.01091
93.6 -0.00535
93.65 0.00096
93.7 0.00745
93.75 0.01482
93.8 0.01762
93.85 0.01515
93.9 0.00992
93.95 0.005
94 -0.00295
94.05 -0.00971
94.1 -0.01167
94.15 -0.00759
94.2 -0.00151
94.25 -0.00086
94.3 0.00251
94.35 0.00719
94.4 0.00908
94.45 0.01139
94.5 0.00944
94.55 0.00738
94.6 0.00672
94.65 0.00779
94.7 0.00667
94.75 0.00828
94.8 0.01243
94.85 0.01438
94.9 0.01707
94.95 0.0164
95 0.01593
95.05 0.01763
95.1 0.02127
95.15 0.02635
95.2 0.02582
95.25 0.02642
95.3 0.02213
95.35 0.01809
95.4 0.01211
95.45 0.00871
95.5 0.01001
95.55 0.0097
95.6 0.00892
95.65 0.00951
95.7 0.00554
95.75 -0.00241
95.8 -0.00764
95.85 -0.0105
95.9 -0.01613
95.95 -0.01905
96 -0.02052
96.05 -0.01933
96.1 -0.01433
96.15 -0.01032
96.2 -0.00986
96.25 -0.0053
96.3 -0.00089
96.35 0.00276
96.4 0.00122
96.45 0.00063
96.5 0.00175
96.55 0.00264
96.6 0.00613
96.65 0.00979
96.7 0.00935
96.75 0.0106
96.8 0.01167
96.85 0.00678
96.9 0.00167
96.95 -0.00546
97 -0.00544
97.05 -0.00846
97.1 -0.00948
97.15 -0.0063
97.2 -0.00591
97.25 -0.00992
97.3 -0.00941
97.35 -0.00453
97.4 -0.00314
97.45 -0.00078
97.5 -0.00078
97.55 -0.00275
97.6 -0.00639
97.65 -0.00405
97.7 -0.0008
97.75 -0.00112
97.8 -0.00209
97.85 -0.00593
97.9 -0.00429
97.95 -0.00315
98 -0.0065
98.05 -0.0085
98.1 -0.00976
98.15 -0.00985
98.2 -0.01212
98.25 -0.01704
98.3 -0.01903
98.35 -0.02251
98.4 -0.02695
98.45 -0.02488
98.5 -0.01955
98.55 -0.01337
98.6 -0.00834
98.65 -0.00612
98.7 -0.00247
98.75 0.00276
98.8 0.0093
98.85 0.01561
98.9 0.0176
98.95 0.02061
99 0.01622
99.05 0.01562
99.1 0.01475
99.15 0.01292
99.2 0.01259
99.25 0.00969
99.3 0.00455
99.35 0.00166
99.4 0.00126
99.45 0.00232
99.5 0.0006
99.55 -0.0016
99.6 -0.00694
99.65 -0.00585
99.7 -0.00548
99.75 -0.00161
99.8 -0.00293
99.85 0.00008
99.9 -0.00174
99.95 -0.00648
