0 0
0.05 0.00335
0.1 0.0079
0.15 0.01914
0.2 0.03345
0.25 0.04221
0.3 0.05058
0.35 0.05244
0.4 0.05724
0.45 0.0636
0.5 0.06286
0.55 0.06277
0.6 0.0651
0.65 0.0693
0.7 0.06562
0.75 0.05992
0.8 0.05491
0.85 0.05419
0.9 0.05458
0.95 0.05202
1 0.05004
1.05 0.05278
1.1 0.05396
1.15 0.05241
1.2 0.05253
1.25 0.05513
1.3 0.05216
1.35 0.04487
1.4 0.03949
1.45 0.03186
1.5 0.02437
1.55 0.0254
1.6 0.02228
1.65 0.02131
1.7 0.02053
1.75 0.02476
1.8 0.02459
1.85 0.02675
1.9 0.0257
1.95 0.02802
2 0.02546
2.05 0.02807
2.1 0.0305
2.15 0.03574
2.2 0.03542
2.25 0.0336
2.3 0.03082
2.35 0.02456
2.4 0.02221
2.45 0.02314
2.5 0.02138
2.55 0.02272
2.6 0.02075
2.65 0.01592
2.7 0.01517
2.75 0.02039
2.8 0.01956
2.85 0.01534
2.9 0.01195
2.95 0.01298
3 0.01276
3.05 0.00897
3.1 0.00598
3.15 0.00866
3.2 0.01641
3.25 0.02227
3.3 0.02219
3.35 0.02674
3.4 0.03043
3.45 0.02761
3.5 0.02294
3.55 0.01605
3.6 0.01542
3.65 0.01978
3.7 0.02073
3.75 0.01981
3.8 0.01701
3.85 0.01917
3.9 0.01975
3.95 0.01702
4 0.0136
4.05 0.00947
4.1 0.01148
4.15 0.0083
4.2 0.00648
4.25 0.00747
4.3 0.00476
4.35 0.00015
4.4 -0.00869
4.45 -0.01974
4.5 -0.02677
4.55 -0.03225
4.6 -0.03761
4.65 -0.04126
4.7 -0.05038
4.75 -0.06526
4.8 -0.08167
4.85 -0.0982
4.9 -0.11749
4.95 -0.14011
5 -0.17063
5.05 -0.20509
5.1 -0.24337
5.15 -0.2933
5.2 -0.34957
5.25 -0.4138
5.3 -0.48275
5.35 -0.55565
5.4 -0.62466
5.45 -0.69188
5.5 -0.75423
5.55 -0.81461
5.6 -0.87729
5.65 -0.93729
5.7 -0.98822
5.75 -1.03365
5.8 -1.07819
5.85 -1.11118
5.9 -1.13765
5.95 -1.15983
6 -1.16744
6.05 -1.16895
6.1 -1.15853
6.15 -1.14407
6.2 -1.12651
6.25 -1.09595
6.3 -1.05749
6.35 -1.01897
6.4 -0.97348
6.45 -0.91975
6.5 -0.86758
6.55 -0.81464
6.6 -0.75911
6.65 -0.70034
6.7 -0.63926
6.75 -0.57178
6.8 -0.49373
6.85 -0.40945
6.9 -0.32551
6.95 -0.24126
7 -0.15498
7.05 -0.06882
7.1 0.01453
7.15 0.10156
7.2 0.19106
7.25 0.28028
7.3 0.36936
7.35 0.45714
7.4 0.54279
7.45 0.61785
7.5 0.68503
7.55 0.74801
7.6 0.80454
7.65 0.85107
7.7 0.89345
7.75 0.93536
7.8 0.97372
7.85 1.00131
7.9 1.02108
7.95 1.03199
8 1.04478
8.05 1.0498
8.1 1.05353
8.15 1.04978
8.2 1.03966
8.25 1.03267
8.3 1.02071
8.35 1.00181
8.4 0.97922
8.45 0.95369
8.5 0.93362
8.55 0.91801
8.6 0.89653
8.65 0.87456
8.7 0.84802
8.75 0.82051
8.8 0.79728
8.85 0.77569
8.9 0.75727
8.95 0.73298
9 0.7097
9.05 0.68534
9.1 0.66003
9.15 0.63378
9.2 0.60684
9.25 0.5819
9.3 0.56319
9.35 0.54205
9.4 0.52335
9.45 0.50346
9.5 0.49034
9.55 0.47823
9.6 0.47119
9.65 0.46639
9.7 0.45962
9.75 0.44791
9.8 0.43631
9.85 0.42337
9.9 0.40482
9.95 0.38379
10 0.36342
10.05 0.34725
10.1 0.33478
10.15 0.32415
10.2 0.31716
10.25 0.31038
10.3 0.29862
10.35 0.2825
10.4 0.26607
10.45 0.25617
10.5 0.24701
10.55 0.23561
10.6 0.22092
10.65 0.20349
10.7 0.19223
10.75 0.18113
10.8 0.16521
10.85 0.15286
10.9 0.14401
10.95 0.13014
11 0.11952
11.05 0.10423
11.1 0.09315
11.15 0.08144
11.2 0.06526
11.25 0.04559
11.3 0.03362
11.35 0.02346
11.4 0.01583
11.45 0.01006
11.5 0.00462
11.55 -0.00431
11.6 -0.01824
11.65 -0.03377
11.7 -0.0454
11.75 -0.05806
11.8 -0.06709
11.85 -0.07528
11.9 -0.07895
11.95 -0.08281
12 -0.08485
12.05 -0.09275
12.1 -0.10079
12.15 -0.11169
12.2 -0.11993
12.25 -0.12659
12.3 -0.13176
12.35 -0.13701
12.4 -0.14129
12.45 -0.14192
12.5 -0.14575
12.55 -0.15027
12.6 -0.15428
12.65 -0.1566
12.7 -0.1541
12.75 -0.15439
12.8 -0.15086
12.85 -0.15126
12.9 -0.1496
12.95 -0.14449
13 -0.13845
13.05 -0.13885
13.1 -0.13908
13.15 -0.1351
13.2 -0.13133
13.25 -0.13315
13.3 -0.13252
13.35 -0.13676
13.4 -0.14183
13.45 -0.14904
13.5 -0.14936
13.55 -0.15213
13.6 -0.15301
13.65 -0.15002
13.7 -0.14739
13.75 -0.14076
13.8 -0.13929
13.85 -0.1318
13.9 -0.12487
13.95 -0.1222
14 -0.11957
14.05 -0.11518
14.1 -0.11096
14.15 -0.11118
14.2 -0.11495
14.25 -0.11334
14.3 -0.11196
14.35 -0.10832
14.4 -0.10078
14.45 -0.09822
14.5 -0.09704
14.55 -0.09892
14.6 -0.09628
14.65 -0.09385
14.7 -0.08727
14.75 -0.08563
14.8 -0.08609
14.85 -0.08907
14.9 -0.09109
14.95 -0.09367
15 -0.09376
15.05 -0.09634
15.1 -0.0966
15.15 -0.09908
15.2 -0.10299
15.25 -0.10407
15.3 -0.1065
15.35 -0.10957
15.4 -0.11218
15.45 -0.1142
15.5 -0.11477
15.55 -0.10643
15.6 -0.10207
15.65 -0.09218
15.7 -0.08032
15.75 -0.06844
15.8 -0.05806
15.85 -0.05464
15.9 -0.05045
15.95 -0.04617
16 -0.04591
16.05 -0.04791
16.1 -0.04588
16.15 -0.04666
16.2 -0.04274
16.25 -0.04111
16.3 -0.03781
16.35 -0.0401
16.4 -0.03792
16.45 -0.0365
16.5 -0.03346
16.55 -0.0303
16.6 -0.03138
16.65 -0.03325
16.7 -0.0309
16.75 -0.02812
16.8 -0.0281
16.85 -0.03418
16.9 -0.04335
16.95 -0.04697
17 -0.04702
17.05 -0.04337
17.1 -0.04219
17.15 -0.03901
17.2 -0.03818
17.25 -0.03381
17.3 -0.02835
17.35 -0.02604
17.4 -0.02951
17.45 -0.03002
17.5 -0.03047
17.55 -0.03349
17.6 -0.03653
17.65 -0.03536
17.7 -0.03121
17.75 -0.03342
17.8 -0.03555
17.85 -0.03394
17.9 -0.02894
17.95 -0.02918
18 -0.03385
18.05 -0.03819
18.1 -0.0435
18.15 -0.05015
18.2 -0.05035
18.25 -0.0526
18.3 -0.05201
18.35 -0.05152
18.4 -0.05321
18.45 -0.05673
18.5 -0.05692
18.55 -0.05058
18.6 -0.04609
18.65 -0.0459
18.7 -0.04402
18.75 -0.0442
18.8 -0.03901
18.85 -0.03549
18.9 -0.02825
18.95 -0.0241
19 -0.01762
19.05 -0.01472
19.1 -0.01429
19.15 -0.0106
19.2 -0.00838
19.25 -0.01225
19.3 -0.01921
19.35 -0.02232
19.4 -0.02038
19.45 -0.01991
19.5 -0.0153
19.55 -0.0136
19.6 -0.00843
19.65 -0.00336
19.7 -0.00003
19.75 0.00218
19.8 0.00502
19.85 0.00953
19.9 0.0146
19.95 0.01234
20 0.01219
20.05 0.00881
20.1 0.00277
20.15 0.00145
20.2 0.00273
20.25 -0.00102
20.3 -0.00012
20.35 0.00105
20.4 -0.0046
20.45 -0.00781
20.5 -0.0113
20.55 -0.01031
20.6 -0.01249
20.65 -0.00962
20.7 -0.01111
20.75 -0.01366
20.8 -0.01872
20.85 -0.02053
20.9 -0.0256
20.95 -0.02344
21 -0.02354
21.05 -0.02655
21.1 -0.03191
21.15 -0.0353
21.2 -0.03368
21.25 -0.02726
21.3 -0.01926
21.35 -0.01766
21.4 -0.01282
21.45 -0.00939
21.5 -0.00762
21.55 -0.00596
21.6 -0.00689
21.65 -0.00752
21.7 -0.01168
21.75 -0.01728
21.8 -0.02357
21.85 -0.02897
21.9 -0.03548
21.95 -0.03846
22 -0.03808
22.05 -0.03907
22.1 -0.03751
22.15 -0.03422
22.2 -0.031
22.25 -0.02904
22.3 -0.02314
22.35 -0.0149
22.4 -0.01106
22.45 -0.00478
22.5 -0.00422
22.55 -0.00335
22.6 0.00061
22.65 0.0055
22.7 0.00295
22.75 0.00036
22.8 -0.00133
22.85 -0.00537
22.9 -0.00616
22.95 -0.00812
23 -0.01133
23.05 -0.00898
23.1 -0.00914
23.15 -0.00584
23.2 -0.00338
23.25 -0.00625
23.3 -0.00743
23.35 -0.00649
23.4 -0.00734
23.45 -0.0122
23.5 -0.01915
23.55 -0.02059
23.6 -0.02473
23.65 -0.02612
23.7 -0.02895
23.75 -0.02507
23.8 -0.02101
23.85 -0.0126
23.9 -0.01049
23.95 -0.00556
24 -0.00326
24.05 -0.00286
24.1 -0.00691
24.15 -0.0049
24.2 -0.00546
24.25 -0.00427
24.3 -0.00365
24.35 -0.0023
24.4 -0.00144
24.45 0.00184
24.5 0.00842
24.55 0.01308
24.6 0.01573
24.65 0.01673
24.7 0.01888
24.75 0.01675
24.8 0.01476
24.85 0.01025
24.9 0.00508
24.95 -0.00343
25 -0.0055
25.05 -0.00723
25.1 -0.0061
25.15 -0.00369
25.2 -0.0009
25.25 -0.00177
25.3 -0.00327
25.35 -0.00674
25.4 -0.00732
25.45 -0.00454
25.5 -0.00723
25.55 -0.00475
25.6 -0.00343
25.65 -0.00603
25.7 -0.00953
25.75 -0.01351
25.8 -0.01976
25.85 -0.0202
25.9 -0.01977
25.95 -0.01655
26 -0.01622
26.05 -0.01701
26.1 -0.01659
26.15 -0.01667
26.2 -0.01303
26.25 -0.01106
26.3 -0.01354
26.35 -0.01148
26.4 -0.00973
26.45 -0.00389
26.5 0.00377
26.55 0.01283
26.6 0.01709
26.65 0.01876
26.7 0.01414
26.75 0.00954
26.8 0.00212
26.85 0.00155
26.9 0.00079
26.95 0.00402
27 0.00768
27.05 0.00771
27.1 0.00694
27.15 0.00472
27.2 0.00052
27.25 -0.00212
27.3 -0.00698
27.35 -0.0122
27.4 -0.01832
27.45 -0.01734
27.5 -0.0207
27.55 -0.01891
27.6 -0.02239
27.65 -0.024
27.7 -0.02522
27.75 -0.03097
27.8 -0.03581
27.85 -0.0413
27.9 -0.04239
27.95 -0.04799
28 -0.05427
28.05 -0.06359
28.1 -0.0773
28.15 -0.09118
28.2 -0.10588
28.25 -0.12724
28.3 -0.15424
28.35 -0.17664
28.4 -0.19842
28.45 -0.22052
28.5 -0.24716
28.55 -0.28472
28.6 -0.3271
28.65 -0.37229
28.7 -0.42129
28.75 -0.47625
28.8 -0.53002
28.85 -0.58502
28.9 -0.65087
28.95 -0.72096
29 -0.7945
29.05 -0.87406
29.1 -0.95043
29.15 -1.03292
29.2 -1.11323
29.25 -1.19053
29.3 -1.2672
29.35 -1.34266
29.4 -1.4165
29.45 -1.48308
29.5 -1.54378
29.55 -1.60267
29.6 -1.65603
29.65 -1.7016
29.7 -1.74067
29.75 -1.77335
29.8 -1.79062
29.85 -1.80208
29.9 -1.79922
29.95 -1.78583
30 -1.76116
30.05 -1.72305
30.1 -1.67772
30.15 -1.61841
30.2 -1.54838
30.25 -1.47553
30.3 -1.39056
30.35 -1.29727
30.4 -1.1941
30.45 -1.08841
30.5 -0.97747
30.55 -0.86326
30.6 -0.74615
30.65 -0.6271
30.7 -0.50138
30.75 -0.37016
30.8 -0.24353
30.85 -0.11738
30.9 0.00682
30.95 0.12884
31 0.2494
31.05 0.36277
31.1 0.47376
31.15 0.57746
31.2 0.67957
31.25 0.77592
31.3 0.86951
31.35 0.95421
31.4 1.02879
31.45 1.09375
31.5 1.14951
31.55 1.20179
31.6 1.24487
31.65 1.28289
31.7 1.31713
31.75 1.34354
31.8 1.37043
31.85 1.38969
31.9 1.40556
31.95 1.42067
32 1.43202
32.05 1.4461
32.1 1.45914
32.15 1.46285
32.2 1.46176
32.25 1.46379
32.3 1.46347
32.35 1.46504
32.4 1.46122
32.45 1.45791
32.5 1.45202
32.55 1.4419
32.6 1.42705
32.65 1.40975
32.7 1.38851
32.75 1.36944
32.8 1.34799
32.85 1.32843
32.9 1.31021
32.95 1.29353
33 1.2785
33.05 1.2617
33.1 1.24159
33.15 1.22195
33.2 1.19733
33.25 1.1754
33.3 1.15407
33.35 1.13241
33.4 1.10186
33.45 1.06711
33.5 1.03216
33.55 1.00016
33.6 0.96739
33.65 0.93192
33.7 0.89665
33.75 0.86302
33.8 0.83429
33.85 0.80633
33.9 0.77372
33.95 0.74518
34 0.71979
34.05 0.69313
34.1 0.66475
34.15 0.6335
34.2 0.60474
34.25 0.57529
34.3 0.54561
34.35 0.50962
34.4 0.47835
34.45 0.44223
34.5 0.41248
34.55 0.3825
34.6 0.35237
34.65 0.32658
34.7 0.29973
34.75 0.26911
34.8 0.24313
34.85 0.2198
34.9 0.19445
34.95 0.16913
35 0.14362
35.05 0.11626
35.1 0.09681
35.15 0.0794
35.2 0.05898
35.25 0.03836
35.3 0.01862
35.35 -0.0011
35.4 -0.016
35.45 -0.02838
35.5 -0.04271
35.55 -0.05698
35.6 -0.06922
35.65 -0.0833
35.7 -0.09204
35.75 -0.09826
35.8 -0.10599
35.85 -0.11259
35.9 -0.125
35.95 -0.14195
36 -0.15423
36.05 -0.16902
36.1 -0.17981
36.15 -0.19254
36.2 -0.2066
36.25 -0.21996
36.3 -0.23155
36.35 -0.24282
36.4 -0.24815
36.45 -0.2503
36.5 -0.25107
36.55 -0.24874
36.6 -0.24393
36.65 -0.23909
36.7 -0.23219
36.75 -0.22996
36.8 -0.22942
36.85 -0.22984
36.9 -0.23212
36.95 -0.23774
37 -0.24308
37.05 -0.24967
37.1 -0.25032
37.15 -0.25412
37.2 -0.25384
37.25 -0.25389
37.3 -0.25592
37.35 -0.25452
37.4 -0.25267
37.45 -0.24772
37.5 -0.2393
37.55 -0.23375
37.6 -0.22818
37.65 -0.22399
37.7 -0.21645
37.75 -0.21455
37.8 -0.20878
37.85 -0.20212
37.9 -0.19533
37.95 -0.19034
38 -0.18688
38.05 -0.18359
38.1 -0.18605
38.15 -0.18727
38.2 -0.19041
38.25 -0.1974
38.3 -0.19767
38.35 -0.19579
38.4 -0.19701
38.45 -0.19467
38.5 -0.18905
38.55 -0.18434
38.6 -0.17821
38.65 -0.16994
38.7 -0.16929
38.75 -0.16695
38.8 -0.16183
38.85 -0.16215
38.9 -0.16361
38.95 -0.16588
39 -0.17078
39.05 -0.16923
39.1 -0.16509
39.15 -0.16375
39.2 -0.15924
39.25 -0.15246
39.3 -0.14349
39.35 -0.13765
39.4 -0.13239
39.45 -0.12963
39.5 -0.1296
39.55 -0.12844
39.6 -0.12441
39.65 -0.11816
39.7 -0.11784
39.75 -0.12175
39.8 -0.12812
39.85 -0.13269
39.9 -0.13633
39.95 -0.13306
40 -0.13227
40.05 -0.12745
40.1 -0.1187
40.15 -0.11154
40.2 -0.10824
40.25 -0.10701
40.3 -0.11019
40.35 -0.11676
40.4 -0.11565
40.45 -0.11484
40.5 -0.11594
40.55 -0.11217
40.6 -0.10955
40.65 -0.10678
40.7 -0.10533
40.75 -0.10795
40.8 -0.10955
40.85 -0.11308
40.9 -0.1143
40.95 -0.11428
41 -0.10767
41.05 -0.09766
41.1 -0.08692
41.15 -0.07877
41.2 -0.0748
41.25 -0.07487
41.3 -0.07099
41.35 -0.06993
41.4 -0.0733
41.45 -0.07426
41.5 -0.07433
41.55 -0.07757
41.6 -0.07946
41.65 -0.08388
41.7 -0.08937
41.75 -0.09273
41.8 -0.09051
41.85 -0.08601
41.9 -0.08211
41.95 -0.07955
42 -0.07744
42.05 -0.07397
42.1 -0.07171
42.15 -0.07273
42.2 -0.07695
42.25 -0.0742
42.3 -0.07166
42.35 -0.0714
42.4 -0.06519
42.45 -0.05565
42.5 -0.05375
42.55 -0.05363
42.6 -0.05432
42.65 -0.05904
42.7 -0.057
42.75 -0.05881
42.8 -0.05587
42.85 -0.05529
42.9 -0.05711
42.95 -0.05969
43 -0.05701
43.05 -0.0563
43.1 -0.05661
43.15 -0.06022
43.2 -0.06382
43.25 -0.06025
43.3 -0.05405
43.35 -0.04617
43.4 -0.03735
43.45 -0.03288
43.5 -0.0324
43.55 -0.03132
43.6 -0.03111
43.65 -0.0346
43.7 -0.04103
43.75 -0.04505
43.8 -0.0482
43.85 -0.04434
43.9 -0.04325
43.95 -0.04506
44 -0.04254
44.05 -0.04429
44.1 -0.04666
44.15 -0.04613
44.2 -0.04455
44.25 -0.03878
44.3 -0.03781
44.35 -0.03192
44.4 -0.02783
44.45 -0.02561
44.5 -0.02814
44.55 -0.03018
44.6 -0.02889
44.65 -0.02364
44.7 -0.02073
44.75 -0.01912
44.8 -0.01966
44.85 -0.01925
44.9 -0.02027
44.95 -0.01723
45 -0.01544
45.05 -0.01781
45.1 -0.02152
45.15 -0.02053
45.2 -0.01552
45.25 -0.00993
45.3 -0.00918
45.35 -0.00498
45.4 -0.00819
45.45 -0.01269
45.5 -0.01625
45.55 -0.02248
45.6 -0.0284
45.65 -0.03357
45.7 -0.03673
45.75 -0.03693
45.8 -0.03604
45.85 -0.03177
45.9 -0.02655
45.95 -0.02241
46 -0.01584
46.05 -0.00701
46.1 -0.00631
46.15 -0.00944
46.2 -0.01287
46.25 -0.01339
46.3 -0.01826
46.35 -0.0201
46.4 -0.01702
46.45 -0.01226
46.5 -0.00957
46.55 -0.00966
46.6 -0.01183
46.65 -0.01011
46.7 -0.01218
46.75 -0.01497
46.8 -0.0195
46.85 -0.01845
46.9 -0.01491
46.95 -0.0149
47 -0.01627
47.05 -0.01793
47.1 -0.01768
47.15 -0.01403
47.2 -0.01292
47.25 -0.00825
47.3 -0.00694
47.35 -0.00162
47.4 0.00294
47.45 0.00664
47.5 0.01178
47.55 0.01153
47.6 0.00761
47.65 -0.00075
47.7 -0.00984
47.75 -0.01885
47.8 -0.02355
47.85 -0.02982
47.9 -0.03308
47.95 -0.03532
48 -0.03846
48.05 -0.03716
48.1 -0.03559
48.15 -0.03102
48.2 -0.02905
48.25 -0.02506
48.3 -0.0175
48.35 -0.00695
48.4 0.00043
48.45 0.00062
48.5 0.00051
48.55 -0.00091
48.6 0.00202
48.65 0.00423
48.7 0.00617
48.75 0.00922
48.8 0.00802
48.85 0.00585
48.9 0.00147
48.95 -0.00108
49 -0.00376
49.05 -0.00719
49.1 -0.01007
49.15 -0.01433
49.2 -0.02009
49.25 -0.02671
49.3 -0.02684
49.35 -0.02715
49.4 -0.02722
49.45 -0.02271
49.5 -0.01633
49.55 -0.00918
49.6 -0.00324
49.65 0.00096
49.7 0.0044
49.75 0.00546
49.8 0.0097
49.85 0.01138
49.9 0.01222
49.95 0.01352
50 0.00848
50.05 0.00647
50.1 0.00437
50.15 -0.00177
50.2 -0.00131
50.25 -0.00223
50.3 -0.00226
50.35 -0.00281
50.4 -0.00481
50.45 -0.00894
50.5 -0.0101
50.55 -0.00741
50.6 -0.00659
50.65 -0.00473
50.7 -0.00615
50.75 -0.00961
50.8 -0.00978
50.85 -0.01097
50.9 -0.0065
50.95 -0.00589
51 -0.00897
51.05 -0.01236
51.1 -0.0123
51.15 -0.00883
51.2 -0.00756
51.25 -0.00716
51.3 -0.01094
51.35 -0.0133
51.4 -0.01331
51.45 -0.01663
51.5 -0.01511
51.55 -0.01456
51.6 -0.01715
51.65 -0.01588
51.7 -0.01221
51.75 -0.0121
51.8 -0.01325
51.85 -0.00936
51.9 -0.00729
51.95 -0.00926
52 -0.01247
52.05 -0.01419
52.1 -0.01675
52.15 -0.01884
52.2 -0.01428
52.25 -0.01334
52.3 -0.01167
52.35 -0.01275
52.4 -0.00767
52.45 0.00056
52.5 0.00385
52.55 0.00118
52.6 -0.00174
52.65 -0.00626
52.7 -0.00896
52.75 -0.0074
52.8 -0.00161
52.85 0.00103
52.9 -0.00086
52.95 0.00209
53 0.00804
53.05 0.0152
53.1 0.01692
53.15 0.01772
53.2 0.01868
53.25 0.02196
53.3 0.0255
53.35 0.02252
53.4 0.02256
53.45 0.02534
53.5 0.02756
53.55 0.02397
53.6 0.01648
53.65 0.01022
53.7 0.00097
53.75 -0.00601
53.8 -0.00995
53.85 -0.0095
53.9 -0.00662
53.95 -0.00626
54 -0.00633
54.05 -0.00258
54.1 -0.00056
54.15 0.00285
54.2 0.00668
54.25 0.01277
54.3 0.01101
54.35 0.00706
54.4 -0.00064
54.45 -0.00621
54.5 -0.01044
54.55 -0.0159
54.6 -0.01484
54.65 -0.01723
54.7 -0.02018
54.75 -0.0206
54.8 -0.01576
54.85 -0.01122
54.9 -0.00612
54.95 -0.00154
55 0.00551
55.05 0.00502
55.1 0
55.15 -0.00538
55.2 -0.01153
55.25 -0.01111
55.3 -0.00674
55.35 0.00044
55.4 0.00097
55.45 0.00527
55.5 0.00676
55.55 0.00441
55.6 0.00497
55.65 0.00304
55.7 -0.00119
55.75 -0.00226
55.8 -0.0037
55.85 -0.00863
55.9 -0.0101
55.95 -0.00706
56 -0.00512
56.05 -0.00594
56.1 -0.00362
56.15 -0.00031
56.2 -0.00111
56.25 -0.00439
56.3 -0.00757
56.35 -0.00689
56.4 -0.00959
56.45 -0.01209
56.5 -0.01117
56.55 -0.00868
56.6 -0.00689
56.65 -0.0076
56.7 -0.01048
56.75 -0.0128
56.8 -0.01583
56.85 -0.01882
56.9 -0.02346
56.95 -0.01951
57 -0.01958
57.05 -0.02148
57.1 -0.02436
57.15 -0.01915
57.2 -0.01631
57.25 -0.01353
57.3 -0.01405
57.35 -0.01159
57.4 -0.00438
57.45 -0.00212
57.5 -0.00308
57.55 -0.00102
57.6 0.00435
57.65 0.01119
57.7 0.01087
57.75 0.01423
57.8 0.01451
57.85 0.01119
57.9 0.00639
57.95 0.00386
58 0.0014
58.05 -0.00082
58.1 0.00173
58.15 -0.00107
58.2 0.0008
58.25 0.00367
58.3 0.00147
58.35 -0.00077
58.4 -0.00559
58.45 -0.00932
58.5 -0.01357
58.55 -0.01388
58.6 -0.01483
58.65 -0.0118
58.7 -0.00979
58.75 -0.00618
58.8 -0.00473
58.85 -0.00707
58.9 -0.00735
58.95 -0.00601
59 0.00046
59.05 0.00793
59.1 0.01544
59.15 0.01701
59.2 0.01617
59.25 0.01011
59.3 0.00259
59.35 -0.00488
59.4 -0.01247
59.45 -0.01913
59.5 -0.01654
59.55 -0.00863
59.6 -0.00478
59.65 -0.00164
59.7 0.00013
59.75 0.00241
59.8 0.0023
59.85 0.00094
59.9 -0.00087
59.95 -0.00098
60 -0.00188
60.05 -0.00076
60.1 -0.00089
60.15 0.00297
60.2 0.00527
60.25 0.00777
60.3 0.00718
60.35 0.00863
60.4 0.00589
60.45 -0.00058
60.5 -0.00883
60.55 -0.01529
60.6 -0.01793
60.65 -0.01333
60.7 -0.00797
60.75 -0.00241
60.8 -0.00261
60.85 -0.00088
60.9 0.00372
60.95 0.00874
61 0.00942
61.05 0.00655
61.1 0.00854
61.15 0.01118
61.2 0.00817
61.25 0.00783
61.3 0.00691
61.35 0.00364
61.4 0.00321
61.45 0.00569
61.5 0.00287
61.55 0.00365
61.6 0.00278
61.65 -0.00007
61.7 0.00245
61.75 0.00813
61.8 0.01398
61.85 0.0207
61.9 0.02056
61.95 0.01783
62 0.01749
62.05 0.0137
62.1 0.01439
62.15 0.01444
62.2 0.00902
62.25 0.00199
62.3 -0.00491
62.35 -0.00448
62.4 -0.00455
62.45 -0.00608
62.5 -0.00947
62.55 -0.00605
62.6 -0.00657
62.65 -0.01046
62.7 -0.01522
62.75 -0.01261
62.8 -0.0072
62.85 -0.00235
62.9 0.00001
62.95 -0.00292
63 -0.00646
63.05 -0.00812
63.1 -0.00583
63.15 -0.00308
63.2 0.00185
63.25 0.00573
63.3 0.00794
63.35 0.01258
63.4 0.01512
63.45 0.01894
63.5 0.01933
63.55 0.01726
63.6 0.01207
63.65 0.00958
63.7 0.00322
63.75 0.00041
63.8 0.00024
63.85 0.0046
63.9 0.01021
63.95 0.01759
64 0.02472
64.05 0.0262
64.1 0.02472
64.15 0.02211
64.2 0.02288
64.25 0.0221
64.3 0.01608
64.35 0.0078
64.4 0.00306
64.45 -0.00242
64.5 -0.00785
64.55 -0.00748
64.6 -0.00761
64.65 -0.00308
64.7 0.00414
64.75 0.00617
64.8 0.00486
64.85 0.00389
64.9 0.00116
64.95 -0.00419
65 -0.00763
65.05 -0.0136
65.1 -0.01497
65.15 -0.01278
65.2 -0.01412
65.25 -0.01017
65.3 -0.0023
65.35 0.00299
65.4 0.0062
65.45 0.00349
65.5 0.00316
65.55 0.00479
65.6 0.00969
65.65 0.00923
65.7 0.01095
65.75 0.01367
65.8 0.01356
65.85 0.01274
65.9 0.00911
65.95 0.00287
66 -0.00146
66.05 -0.00719
66.1 -0.00899
66.15 -0.00648
66.2 -0.00221
66.25 0.00256
66.3 0.0065
66.35 0.007
66.4 0.00648
66.45 0.00655
66.5 0.00752
66.55 0.01089
66.6 0.01579
66.65 0.01272
66.7 0.00579
66.75 0.00454
66.8 0.00102
66.85 -0.00269
66.9 -0.00932
66.95 -0.00854
67 -0.01051
67.05 -0.01113
67.1 -0.00906
67.15 -0.00773
67.2 -0.00571
67.25 -0.00517
67.3 -0.00668
67.35 -0.01154
67.4 -0.00945
67.45 -0.00428
67.5 -0.00351
67.55 -0.00538
67.6 -0.01074
67.65 -0.01306
67.7 -0.01606
67.75 -0.01531
67.8 -0.01756
67.85 -0.01328
67.9 -0.01243
67.95 -0.00658
68 -0.00691
68.05 -0.00399
68.1 -0.00069
68.15 0.00382
68.2 0.00577
68.25 0.00923
68.3 0.0104
68.35 0.00893
68.4 0.01073
68.45 0.01474
68.5 0.01367
68.55 0.01208
68.6 0.00546
68.65 -0.0002
68.7 -0.00195
68.75 0.00062
68.8 -0.0009
68.85 -0.00134
68.9 -0.00202
68.95 -0.00586
69 -0.0074
69.05 -0.00647
69.1 -0.00263
69.15 0.00251
69.2 0.00414
69.25 0.00398
69.3 0.00219
69.35 -0.00091
69.4 -0.00307
69.45 -0.00037
69.5 0.0006
69.55 0.0034
69.6 0.00065
69.65 0.00163
69.7 -0.0022
69.75 -0.00927
69.8 -0.01074
69.85 -0.00689
69.9 -0.0033
69.95 -0.00283
70 -0.00251
70.05 -0.00676
70.1 -0.00549
70.15 -0.0003
70.2 0.00576
70.25 0.00819
70.3 0.00731
70.35 0.00837
70.4 0.0097
70.45 0.00799
70.5 0.01008
70.55 0.01349
70.6 0.01459
70.65 0.01096
70.7 0.01095
70.75 0.00608
70.8 0.00689
70.85 0.00317
70.9 -0.00164
70.95 -0.00845
71 -0.0133
71.05 -0.01118
71.1 -0.0047
71.15 -0.00374
71.2 0.00176
71.25 0.00904
71.3 0.0174
71.35 0.02306
71.4 0.02578
71.45 0.02719
71.5 0.02692
71.55 0.02091
71.6 0.01751
71.65 0.0095
71.7 0.00336
71.75 -0.00133
71.8 -0.00414
71.85 -0.0095
71.9 -0.00911
71.95 -0.009
72 -0.00794
72.05 -0.00728
72.1 -0.01009
72.15 -0.00859
72.2 -0.01142
72.25 -0.01241
72.3 -0.00825
72.35 -0.00474
72.4 0.00058
72.45 0.00454
72.5 0.01038
72.55 0.01505
72.6 0.0142
72.65 0.01343
72.7 0.01418
72.75 0.01404
72.8 0.01024
72.85 0.00726
72.9 0.00865
72.95 0.00579
73 0.00249
73.05 0.00192
73.1 0.00352
73.15 0.00274
73.2 -0.00289
73.25 -0.00902
73.3 -0.01162
73.35 -0.0161
73.4 -0.01492
73.45 -0.00893
73.5 -0.00508
73.55 -0.00653
73.6 -0.00415
73.65 -0.00448
73.7 -0.00286
73.75 0.0008
73.8 0.0004
73.85 0.00027
73.9 -0.00257
73.95 -0.00332
74 -0.00269
74.05 -0.00648
74.1 -0.00644
74.15 -0.00371
74.2 -0.00372
74.25 -0.00681
74.3 -0.01164
74.35 -0.01734
74.4 -0.01796
74.45 -0.01798
74.5 -0.01362
74.55 -0.01451
74.6 -0.01363
74.65 -0.01331
74.7 -0.01265
74.75 -0.01357
74.8 -0.0143
74.85 -0.0094
74.9 -0.00295
74.95 0.00026
75 0.00693
75.05 0.0063
75.1 0.00794
75.15 0.00994
75.2 0.00961
75.25 0.00812
75.3 0.0067
75.35 0.00984
75.4 0.00861
75.45 0.00686
75.5 0.00134
75.55 -0.00098
75.6 -0.00168
75.65 -0.00446
75.7 -0.01075
75.75 -0.01459
75.8 -0.01581
75.85 -0.01953
75.9 -0.01808
75.95 -0.01685
76 -0.01262
76.05 -0.007
76.1 0.00039
76.15 0.00645
76.2 0.00725
76.25 0.00236
76.3 -0.00001
76.35 -0.00539
76.4 -0.00535
76.45 -0.00579
76.5 -0.00271
76.55 0.00082
76.6 0.00732
76.65 0.01297
76.7 0.01529
76.75 0.01659
76.8 0.01637
76.85 0.01703
76.9 0.01803
76.95 0.01861
77 0.02009
77.05 0.01793
77.1 0.0134
77.15 0.0097
77.2 0.00348
77.25 -0.00142
77.3 -0.00703
77.35 -0.00997
77.4 -0.00771
77.45 -0.00129
77.5 0.00531
77.55 0.00846
77.6 0.00717
77.65 0.00891
77.7 0.01216
77.75 0.00842
77.8 0.00831
77.85 0.0031
77.9 0.00088
77.95 0.0007
78 0.00327
78.05 0.00558
78.1 0.00714
78.15 0.01028
78.2 0.0156
78.25 0.02032
78.3 0.02029
78.35 0.01763
78.4 0.01661
78.45 0.0124
78.5 0.00559
78.55 -0.00424
78.6 -0.00769
78.65 -0.00566
78.7 -0.00808
78.75 -0.00587
78.8 -0.00569
78.85 -0.00943
78.9 -0.00775
78.95 -0.00596
79 -0.00042
79.05 0.00668
79.1 0.01402
79.15 0.01732
79.2 0.01767
79.25 0.01313
79.3 0.01055
79.35 0.01201
79.4 0.01555
79.45 0.01666
79.5 0.01113
79.55 0.00948
79.6 0.00269
79.65 -0.00304
79.7 -0.00653
79.75 -0.01203
79.8 -0.0116
79.85 -0.01016
79.9 -0.00767
79.95 -0.00326
80 0.00124
80.05 0.00083
80.1 -0.004
80.15 -0.00847
80.2 -0.01164
80.25 -0.01202
80.3 -0.00741
80.35 -0.00868
80.4 -0.00685
80.45 -0.00577
80.5 -0.00822
80.55 -0.01206
80.6 -0.01231
80.65 -0.01058
80.7 -0.00572
80.75 -0.00479
80.8 -0.00701
80.85 -0.01196
80.9 -0.0172
80.95 -0.01579
81 -0.0183
81.05 -0.01547
81.1 -0.01014
81.15 -0.00552
81.2 -0.00396
81.25 0.00048
81.3 -0.00067
81.35 -0.00352
81.4 -0.00652
81.45 -0.00635
81.5 -0.01003
81.55 -0.01066
81.6 -0.00771
81.65 -0.00088
81.7 0.00623
81.75 0.01016
81.8 0.00972
81.85 0.00439
81.9 -0.00373
81.95 -0.0132
82 -0.01926
82.05 -0.01889
82.1 -0.01773
82.15 -0.01848
82.2 -0.01974
82.25 -0.02107
82.3 -0.01937
82.35 -0.01373
82.4 -0.00465
82.45 -0.00118
82.5 -0.00365
82.55 -0.00156
82.6 -0.00078
82.65 -0.00125
82.7 -0.00307
82.75 0.00052
82.8 0.007
82.85 0.01298
82.9 0.01684
82.95 0.01877
83 0.02149
83.05 0.02121
83.1 0.01565
83.15 0.01289
83.2 0.00754
83.25 0.00341
83.3 0.00464
83.35 0.00373
83.4 0.00599
83.45 0.00791
83.5 0.01182
83.55 0.00849
83.6 0.00682
83.65 0.00318
83.7 0.00073
83.75 0.00323
83.8 0.00563
83.85 0.00465
83.9 0.00546
83.95 0.0082
84 0.00428
84.05 -0.00271
84.1 -0.0041
84.15 -0.00132
84.2 -0.00281
84.25 -0.00573
84.3 -0.00272
84.35 0.00198
84.4 -0.00007
84.45 0.00074
84.5 -0.00087
84.55 -0
84.6 -0.00417
84.65 -0.00597
84.7 -0.00481
84.75 -0.00414
84.8 -0.00288
84.85 -0.00296
84.9 -0.00731
84.95 -0.00573
85 -0.00831
85.05 -0.01325
85.1 -0.01307
85.15 -0.01208
85.2 -0.01385
85.25 -0.00945
85.3 -0.00655
85.35 -0.009
85.4 -0.00712
85.45 -0.00417
85.5 -0.00696
85.55 -0.00541
85.6 -0.00753
85.65 -0.00402
85.7 -0.00629
85.75 -0.00851
85.8 -0.00907
85.85 -0.00862
85.9 -0.01219
85.95 -0.01714
86 -0.02003
86.05 -0.02278
86.1 -0.02073
86.15 -0.01827
86.2 -0.01579
86.25 -0.01261
86.3 -0.01036
86.35 -0.00559
86.4 0.00175
86.45 0.00462
86.5 0.00849
86.55 0.00731
86.6 0.00752
86.65 0.00258
86.7 -0.00438
86.75 -0.00777
86.8 -0.01032
86.85 -0.01556
86.9 -0.01924
86.95 -0.02049
87 -0.01783
87.05 -0.01938
87.1 -0.02124
87.15 -0.01746
87.2 -0.0103
87.25 -0.00228
87.3 0.00134
87.35 0.00808
87.4 0.01128
87.45 0.01399
87.5 0.01529
87.55 0.01214
87.6 0.00879
87.65 0.0093
87.7 0.00496
87.75 0.00425
87.8 0.00306
87.85 0.00625
87.9 0.01255
87.95 0.01244
88 0.01482
88.05 0.01622
88.1 0.01197
88.15 0.01157
88.2 0.01349
88.25 0.01712
88.3 0.01974
88.35 0.01913
88.4 0.01278
88.45 0.00378
88.5 -0.00136
88.55 -0.00505
88.6 -0.01075
88.65 -0.01206
88.7 -0.01359
88.75 -0.01618
88.8 -0.01504
88.85 -0.01298
88.9 -0.00762
88.95 -0.00452
89 -0.00259
89.05 0.00307
89.1 0.00444
89.15 0.00679
89.2 0.00797
89.25 0.00321
89.3 -0.00073
89.35 -0.0068
89.4 -0.01309
89.45 -0.01421
89.5 -0.01713
89.55 -0.01609
89.6 -0.01221
89.65 -0.01023
89.7 -0.0098
89.75 -0.00708
89.8 -0.00804
89.85 -0.00624
89.9 -0.00914
89.95 -0.01182
90 -0.0157
90.05 -0.01727
90.1 -0.01642
90.15 -0.01453
90.2 -0.01464
90.25 -0.01523
90.3 -0.01169
90.35 -0.00472
90.4 -0.00394
90.45 0.00077
90.5 0.00164
90.55 -0.0024
90.6 -0.00169
90.65 -0.00128
90.7 0.00248
90.75 0.00061
90.8 -0.00231
90.85 -0.00008
90.9 0.00074
90.95 -0.00148
91 -0.00426
91.05 -0.00499
91.1 -0.00535
91.15 -0.00927
91.2 -0.01077
91.25 -0.01132
91.3 -0.00986
91.35 -0.00761
91.4 -0.0093
91.45 -0.00552
91.5 -0.00429
91.55 -0.00427
91.6 0.00114
91.65 0.0036
91.7 0.00773
91.75 0.00782
91.8 0.01006
91.85 0.00767
91.9 0.01047
91.95 0.01062
92 0.00707
92.05 0.00833
92.1 0.00903
92.15 0.00422
92.2 0.00224
92.25 0.00163
92.3 0.00575
92.35 0.00526
92.4 0.00495
92.45 0.00388
92.5 0.00497
92.55 0.00522
92.6 0.00228
92.65 0.00377
92.7 0.00488
92.75 0.00224
92.8 0.00316
92.85 -0.00062
92.9 -0.0067
92.95 -0.01002
93 -0.007
93.05 -0.00451
93.1 -0.00349
93.15 0.002
93.2 0.00585
93.25 0.00407
93.3 0.00181
93.35 -0.00066
93.4 -0.00645
93.45 -0.00978
93.5 -0.01115
93.55 -0.00734
93.6 -0.00787
93.65 -0.01104
93.7 -0.0128
93.75 -0.01377
93.8 -0.01096
93.85 -0.00662
93.9 -0.00388
93.95 -0.00182
94 -0.00424
94.05 -0.00203
94.1 0.00041
94.15 0.0022
94.2 0.00165
94.25 0.0023
94.3 0.00441
94.35 0.00155
94.4 -0.0024
94.45 -0.00485
94.5 -0.0039
94.55 -0.00565
94.6 -0.00983
94.65 -0.01378
94.7 -0.01879
94.75 -0.02115
94.8 -0.02435
94.85 -0.02265
94.9 -0.02315
94.95 -0.01715
95 -0.00814
95.05 -0.00582
95.1 -0.00161
95.15 0.00291
95.2 0.00349
95.25 0.00747
95.3 0.01009
95.35 0.0148
95.4 0.0142
95.45 0.00882
95.5 0.00721
95.55 0.00812
95.6 0.00476
95.65 -0.00199
95.7 -0.00398
95.75 -0.00828
95.8 -0.00649
95.85 -0.0028
95.9 -0.00099
95.95 -0.00012
96 0.00532
96.05 0.01077
96.1 0.01104
96.15 0.01101
96.2 0.01082
96.25 0.00934
96.3 0.00982
96.35 0.00965
96.4 0.00553
96.45 -0.00084
96.5 -0.00394
96.55 -0.00673
96.6 -0.00492
96.65 -0.00568
96.7 -0.00565
96.75 -0.00583
96.8 -0.00034
96.85 0.00641
96.9 0.01259
96.95 0.01277
97 0.01476
97.05 0.01385
97.1 0.01122
97.15 0.0119
97.2 0.01342
97.25 0.01529
97.3 0.01248
97.35 0.00561
97.4 0.00267
97.45 0.00017
97.5 -0.00146
97.55 -0.00404
97.6 -0.00553
97.65 -0.01021
97.7 -0.01142
97.75 -0.01097
97.8 -0.01021
97.85 -0.00869
97.9 -0.00412
97.95 0.00246
98 0.00556
98.05 0.00521
98.1 0.00197
98.15 0.00376
98.2 0.00706
98.25 0.00483
98.3 0.00471
98.35 0.00571
98.4 0.00847
98.45 0.01259
98.5 0.01389
98.55 0.01513
98.6 0.01832
98.65 0.02184
98.7 0.02026
98.75 0.01522
98.8 0.00939
98.85 0.00295
98.9 -0.00555
98.95 -0.00734
99 -0.00864
99.05 -0.00893
99.1 -0.01048
99.15 -0.01326
99.2 -0.01428
99.25 -0.01662
99.3 -0.01424
99.35 -0.01291
99.4 -0.01406
99.45 -0.01486
99.5 -0.01674
99.55 -0.01333
99.6 -0.01227
99.65 -0.01349
99.7 -0.01631
99.75 -0.0133
99.8 -0.00821
99.85 -0.0017
99.9 0.00667
99.95 0.00817
