0 0
0.05 0.00038
0.1 0.00732
0.15 0.01213
0.2 0.01867
0.25 0.02551
0.3 0.03
0.35 0.03842
0.4 0.04387
0.45 0.04384
0.5 0.04002
0.55 0.04158
0.6 0.04365
0.65 0.04875
0.7 0.05371
0.75 0.05625
0.8 0.05366
0.85 0.05068
0.9 0.04443
0.95 0.04279
1 0.04416
1.05 0.04551
1.1 0.04571
1.15 0.04766
1.2 0.05192
1.25 0.05507
1.3 0.05266
1.35 0.04874
1.4 0.04572
1.45 0.04106
1.5 0.03862
1.55 0.03364
1.6 0.0307
1.65 0.02566
1.7 0.02193
1.75 0.01619
1.8 0.01591
1.85 0.01443
1.9 0.01184
1.95 0.00892
2 0.01224
2.05 0.01435
2.1 0.01293
2.15 0.01158
2.2 0.01149
2.25 0.00909
2.3 0.00721
2.35 0.00365
2.4 0.00295
2.45 0.00672
2.5 0.01117
2.55 0.01729
2.6 0.02621
2.65 0.03372
2.7 0.03799
2.75 0.03679
2.8 0.03877
2.85 0.03834
2.9 0.03831
2.95 0.04123
3 0.04507
3.05 0.04668
3.1 0.04699
3.15 0.0439
3.2 0.03983
3.25 0.03474
3.3 0.02718
3.35 0.02054
3.4 0.01399
3.45 0.00936
3.5 0.006
3.55 0.00151
3.6 -0.00216
3.65 -0.00568
3.7 -0.01001
3.75 -0.01249
3.8 -0.0081
3.85 -0.00537
3.9 -0.00244
3.95 0.0046
4 0.00863
4.05 0.00781
4.1 0.00729
4.15 0.01113
4.2 0.01251
4.25 0.0104
4.3 0.01223
4.35 0.01358
4.4 0.01249
4.45 0.01132
4.5 0.00857
4.55 0.00713
4.6 -0.00035
4.65 -0.00983
4.7 -0.01757
4.75 -0.02179
4.8 -0.02778
4.85 -0.03833
4.9 -0.05163
4.95 -0.06374
5 -0.07699
5.05 -0.09486
5.1 -0.11254
5.15 -0.12987
5.2 -0.14414
5.25 -0.15869
5.3 -0.17055
5.35 -0.18394
5.4 -0.19552
5.45 -0.20719
5.5 -0.21442
5.55 -0.21892
5.6 -0.22427
5.65 -0.22586
5.7 -0.21981
5.75 -0.2097
5.8 -0.19542
5.85 -0.18071
5.9 -0.161
5.95 -0.13695
6 -0.10973
6.05 -0.08146
6.1 -0.04812
6.15 -0.00798
6.2 0.02715
6.25 0.05854
6.3 0.09359
6.35 0.12887
6.4 0.15551
6.45 0.18063
6.5 0.19962
6.55 0.212
6.6 0.22094
6.65 0.22415
6.7 0.21807
6.75 0.20811
6.8 0.19406
6.85 0.18005
6.9 0.16654
6.95 0.15643
7 0.14496
7.05 0.13258
7.1 0.11983
7.15 0.10768
7.2 0.10124
7.25 0.09323
7.3 0.08867
7.35 0.085
7.4 0.08171
7.45 0.08282
7.5 0.09077
7.55 0.10015
7.6 0.10673
7.65 0.11566
7.7 0.1229
7.75 0.12753
7.8 0.12784
7.85 0.12901
7.9 0.13109
7.95 0.12926
8 0.12756
8.05 0.12756
8.1 0.1237
8.15 0.12211
8.2 0.12018
8.25 0.11576
8.3 0.10672
8.35 0.10155
8.4 0.09371
8.45 0.08707
8.5 0.07644
8.55 0.06649
8.6 0.05919
8.65 0.04905
8.7 0.03709
8.75 0.02906
8.8 0.02066
8.85 0.01732
8.9 0.01571
8.95 0.01366
9 0.00871
9.05 0.00417
9.1 0.00132
9.15 -0.00587
9.2 -0.01151
9.25 -0.01946
9.3 -0.02664
9.35 -0.03039
9.4 -0.03214
9.45 -0.03356
9.5 -0.03246
9.55 -0.0304
9.6 -0.0286
9.65 -0.02894
9.7 -0.03198
9.75 -0.03566
9.8 -0.03231
9.85 -0.02543
9.9 -0.02167
9.95 -0.02072
10 -0.01869
10.05 -0.01868
10.1 -0.0193
10.15 -0.01719
10.2 -0.01567
10.25 -0.01032
10.3 -0.00722
10.35 -0.00838
10.4 -0.00618
10.45 -0.00366
10.5 -0.00329
10.55 -0.00721
10.6 -0.00769
10.65 -0.00808
10.7 -0.00687
10.75 -0.00245
10.8 -0.00095
10.85 -0.00357
10.9 -0.00779
10.95 -0.0066
11 -0.00183
11.05 -0.00335
11.1 -0.00842
11.15 -0.01182
11.2 -0.01739
11.25 -0.0196
11.3 -0.01602
11.35 -0.0129
11.4 -0.0141
11.45 -0.01622
11.5 -0.01356
11.55 -0.00884
11.6 -0.00623
11.65 -0.00724
11.7 -0.00437
11.75 -0.00395
11.8 -0.0076
11.85 -0.00919
11.9 -0.00951
11.95 -0.00937
12 -0.01214
12.05 -0.0134
12.1 -0.01589
12.15 -0.01424
12.2 -0.01226
12.25 -0.01295
12.3 -0.01598
12.35 -0.02051
12.4 -0.02244
12.45 -0.02216
12.5 -0.01725
12.55 -0.01533
12.6 -0.01017
12.65 -0.00591
12.7 -0.00136
12.75 -0.00196
12.8 -0.00269
12.85 -0.00142
12.9 0.00333
12.95 0.00727
13 0.00496
13.05 0.00555
13.1 0.00562
13.15 0.00753
13.2 0.00701
13.25 0.0073
13.3 0.00942
13.35 0.01254
13.4 0.01309
13.45 0.01397
13.5 0.01559
13.55 0.01242
13.6 0.00989
13.65 0.00596
13.7 0.00111
13.75 -0.00462
13.8 -0.00528
13.85 -0.00799
13.9 -0.00592
13.95 -0.003
14 0.00025
14.05 -0.00232
14.1 -0.00497
14.15 -0.00599
14.2 -0.00387
14.25 -0.00375
14.3 -0.00417
14.35 -0.00847
14.4 -0.01106
14.45 -0.01549
14.5 -0.01482
14.55 -0.01008
14.6 -0.00625
14.65 -0.0008
14.7 0.00519
14.75 0.00469
14.8 0.00774
14.85 0.01173
14.9 0.01119
14.95 0.01097
15 0.00667
15.05 0.00476
15.1 -0.00121
15.15 -0.00488
15.2 -0.00749
15.25 -0.01268
15.3 -0.01831
15.35 -0.02079
15.4 -0.02218
15.45 -0.02213
15.5 -0.02153
15.55 -0.01818
15.6 -0.01717
15.65 -0.01857
15.7 -0.01908
15.75 -0.02039
15.8 -0.02353
15.85 -0.02664
15.9 -0.03063
15.95 -0.0282
16 -0.02128
16.05 -0.01823
16.1 -0.01641
16.15 -0.01137
16.2 -0.00535
16.25 0.00247
16.3 0.00761
16.35 0.00612
16.4 0.00119
16.45 0.00087
16.5 -0.002
16.55 -0.0007
16.6 0.00407
16.65 0.00498
16.7 0.002
16.75 -0.0005
16.8 -0.00493
16.85 -0.00406
16.9 -0.00674
16.95 -0.01178
17 -0.01757
17.05 -0.02053
17.1 -0.01753
17.15 -0.0114
17.2 -0.00454
17.25 0.00413
17.3 0.00764
17.35 0.01037
17.4 0.0154
17.45 0.01805
17.5 0.01581
17.55 0.01185
17.6 0.00986
17.65 0.00795
17.7 0.0093
17.75 0.01188
17.8 0.01493
17.85 0.01133
17.9 0.01213
17.95 0.00958
18 0.00294
18.05 -0.00348
18.1 -0.00993
18.15 -0.01194
18.2 -0.01146
18.25 -0.00619
18.3 0.00178
18.35 0.00475
18.4 0.00306
18.45 0.00238
18.5 0.0001
18.55 0.00223
18.6 0.00386
18.65 0.00823
18.7 0.00964
18.75 0.01308
18.8 0.01764
18.85 0.01834
18.9 0.01343
18.95 0.0123
19 0.00829
19.05 0.00156
19.1 -0.0027
19.15 -0.00485
19.2 -0.00596
19.25 -0.00411
19.3 -0.00051
19.35 0.0049
19.4 0.00992
19.45 0.01154
19.5 0.0091
19.55 0.00762
19.6 0.00653
19.65 0.00238
19.7 0.00327
19.75 0.00441
19.8 0.00166
19.85 -0.00098
19.9 -0.00159
19.95 -0.00589
20 -0.00596
20.05 -0.00698
20.1 -0.00451
20.15 -0.00668
20.2 -0.00951
20.25 -0.00815
20.3 -0.00421
20.35 -0.00405
20.4 -0.00508
20.45 -0.00421
20.5 0.00035
20.55 0.00122
20.6 0.00441
20.65 0.00174
20.7 0.00293
20.75 0.00675
20.8 0.00494
20.85 0.00616
20.9 0.0083
20.95 0.00832
21 0.00678
21.05 0.00394
21.1 0.00326
21.15 -0.00191
21.2 -0.00483
21.25 -0.00293
21.3 -0.00064
21.35 0.00295
21.4 0.00809
21.45 0.00743
21.5 0.00688
21.55 0.00785
21.6 0.0088
21.65 0.00593
21.7 0.00487
21.75 0.00413
21.8 0.00035
21.85 -0.00091
21.9 -0.00141
21.95 -0.00503
22 -0.00842
22.05 -0.00961
22.1 -0.00886
22.15 -0.01069
22.2 -0.01103
22.25 -0.00882
22.3 -0.00678
22.35 -0.00454
22.4 -0.00606
22.45 -0.00903
22.5 -0.01424
22.55 -0.01677
22.6 -0.01629
22.65 -0.01592
22.7 -0.01049
22.75 -0.00368
22.8 -0.00165
22.85 -0.00027
22.9 0.00023
22.95 -0.00334
23 -0.00747
23.05 -0.01081
23.1 -0.01256
23.15 -0.01662
23.2 -0.01472
23.25 -0.01169
23.3 -0.00841
23.35 -0.00225
23.4 0.00234
23.45 0.00456
23.5 0.00598
23.55 0.00404
23.6 0.0017
23.65 0.00317
23.7 0.00353
23.75 -0.00031
23.8 -0.00275
23.85 -0.00563
23.9 -0.00795
23.95 -0.0078
24 -0.00795
24.05 -0.01166
24.1 -0.01327
24.15 -0.00936
24.2 -0.00519
24.25 -0.00423
24.3 -0.00024
24.35 0.00251
24.4 0.00251
24.45 -0.00094
24.5 0.00057
24.55 -0.00169
24.6 -0.00538
24.65 -0.00938
24.7 -0.00815
24.75 -0.01054
24.8 -0.00771
24.85 -0.00848
24.9 -0.00814
24.95 -0.00659
25 -0.00751
25.05 -0.00581
25.1 -0.00325
25.15 -0.00259
25.2 -0.00093
25.25 -0.00255
25.3 -0.005
25.35 -0.00198
25.4 -0.00068
25.45 0.00007
25.5 0.00149
25.55 0.00289
25.6 -0.00045
25.65 -0.0032
25.7 -0.0014
25.75 0.00054
25.8 -0.00225
25.85 -0.00569
25.9 -0.00564
25.95 -0.00515
26 -0.00656
26.05 -0.00372
26.1 0.00121
26.15 0.00264
26.2 0.00598
26.25 0.00686
26.3 0.0074
26.35 0.00797
26.4 0.00748
26.45 0.00937
26.5 0.00616
26.55 0.0046
26.6 0.00504
26.65 0.0041
26.7 0.00306
26.75 -0.0012
26.8 -0.00446
26.85 -0.0074
26.9 -0.01233
26.95 -0.01781
27 -0.0208
27.05 -0.0221
27.1 -0.02388
27.15 -0.02612
27.2 -0.02872
27.25 -0.02765
27.3 -0.02261
27.35 -0.01703
27.4 -0.01141
27.45 -0.0081
27.5 -0.00264
27.55 -0.00451
27.6 -0.00876
27.65 -0.01021
27.7 -0.01059
27.75 -0.01123
27.8 -0.01173
27.85 -0.01717
27.9 -0.02336
27.95 -0.0333
28 -0.0446
28.05 -0.06104
28.1 -0.08093
28.15 -0.10696
28.2 -0.13704
28.25 -0.17134
28.3 -0.20893
28.35 -0.24489
28.4 -0.28
28.45 -0.32032
28.5 -0.36782
28.55 -0.41747
28.6 -0.4703
28.65 -0.53201
28.7 -0.59321
28.75 -0.66288
28.8 -0.73702
28.85 -0.81795
28.9 -0.90553
28.95 -0.99962
29 -1.09292
29.05 -1.19127
29.1 -1.28633
29.15 -1.38207
29.2 -1.47952
29.25 -1.57862
29.3 -1.67961
29.35 -1.77921
29.4 -1.87365
29.45 -1.96487
29.5 -2.05013
29.55 -2.12423
29.6 -2.18303
29.65 -2.22995
29.7 -2.26989
29.75 -2.29479
29.8 -2.30564
29.85 -2.30494
29.9 -2.29226
29.95 -2.27096
30 -2.24071
30.05 -2.19494
30.1 -2.13861
30.15 -2.06757
30.2 -1.98075
30.25 -1.88723
30.3 -1.78419
30.35 -1.67107
30.4 -1.54917
30.45 -1.41499
30.5 -1.27596
30.55 -1.13086
30.6 -0.97797
30.65 -0.82333
30.7 -0.66743
30.75 -0.51281
30.8 -0.35541
30.85 -0.19544
30.9 -0.03601
30.95 0.11837
31 0.26769
31.05 0.40911
31.1 0.54968
31.15 0.68486
31.2 0.81643
31.25 0.94391
31.3 1.06425
31.35 1.17652
31.4 1.28024
31.45 1.37439
31.5 1.45483
31.55 1.52549
31.6 1.58793
31.65 1.64218
31.7 1.69284
31.75 1.74084
31.8 1.78223
31.85 1.81308
31.9 1.84023
31.95 1.86413
32 1.87914
32.05 1.88803
32.1 1.8957
32.15 1.90053
32.2 1.90234
32.25 1.90481
32.3 1.90468
32.35 1.89995
32.4 1.89394
32.45 1.88707
32.5 1.88236
32.55 1.87882
32.6 1.87186
32.65 1.86478
32.7 1.85348
32.75 1.83894
32.8 1.82386
32.85 1.80419
32.9 1.78698
32.95 1.76851
33 1.74614
33.05 1.71923
33.1 1.68917
33.15 1.66237
33.2 1.63117
33.25 1.59662
33.3 1.56459
33.35 1.52841
33.4 1.49556
33.45 1.45793
33.5 1.41813
33.55 1.37786
33.6 1.33983
33.65 1.2968
33.7 1.24978
33.75 1.19984
33.8 1.15043
33.85 1.10171
33.9 1.0598
33.95 1.02098
34 0.97994
34.05 0.94028
34.1 0.89783
34.15 0.85855
34.2 0.81483
34.25 0.76773
34.3 0.71946
34.35 0.67174
34.4 0.6299
34.45 0.58921
34.5 0.55051
34.55 0.51029
34.6 0.47454
34.65 0.4392
34.7 0.40225
34.75 0.36233
34.8 0.32536
34.85 0.29313
34.9 0.25809
34.95 0.22293
35 0.18976
35.05 0.15681
35.1 0.12487
35.15 0.09861
35.2 0.07094
35.25 0.04799
35.3 0.026
35.35 0.0022
35.4 -0.02237
35.45 -0.04597
35.5 -0.06863
35.55 -0.09062
35.6 -0.10773
35.65 -0.11934
35.7 -0.13411
35.75 -0.14717
35.8 -0.15884
35.85 -0.17489
35.9 -0.19062
35.95 -0.20318
36 -0.213
36.05 -0.22219
36.1 -0.22972
36.15 -0.23733
36.2 -0.2469
36.25 -0.2529
36.3 -0.26109
36.35 -0.27054
36.4 -0.28129
36.45 -0.29261
36.5 -0.30055
36.55 -0.3054
36.6 -0.31208
36.65 -0.31345
36.7 -0.31425
36.75 -0.31647
36.8 -0.32172
36.85 -0.32806
36.9 -0.33376
36.95 -0.3396
37 -0.3443
37.05 -0.34613
37.1 -0.34534
37.15 -0.34673
37.2 -0.34132
37.25 -0.33478
37.3 -0.33268
37.35 -0.33042
37.4 -0.3249
37.45 -0.31589
37.5 -0.31117
37.55 -0.30361
37.6 -0.29596
37.65 -0.29184
37.7 -0.28634
37.75 -0.28456
37.8 -0.28296
37.85 -0.28445
37.9 -0.28112
37.95 -0.27966
38 -0.28136
38.05 -0.27992
38.1 -0.27916
38.15 -0.27814
38.2 -0.27821
38.25 -0.28048
38.3 -0.27689
38.35 -0.27073
38.4 -0.26188
38.45 -0.25598
38.5 -0.24686
38.55 -0.23672
38.6 -0.2313
38.65 -0.22934
38.7 -0.22763
38.75 -0.22879
38.8 -0.22928
38.85 -0.23027
38.9 -0.22828
38.95 -0.22842
39 -0.22343
39.05 -0.22208
39.1 -0.22101
39.15 -0.22164
39.2 -0.22083
39.25 -0.2143
39.3 -0.20966
39.35 -0.20906
39.4 -0.20256
39.45 -0.1931
39.5 -0.18834
39.55 -0.18721
39.6 -0.18437
39.65 -0.18416
39.7 -0.18112
39.75 -0.17666
39.8 -0.17091
39.85 -0.16583
39.9 -0.161
39.95 -0.15664
40 -0.15515
40.05 -0.15722
40.1 -0.1579
40.15 -0.15465
40.2 -0.15559
40.25 -0.15279
40.3 -0.15133
40.35 -0.14859
40.4 -0.14268
40.45 -0.14198
40.5 -0.13965
40.55 -0.13487
40.6 -0.12825
40.65 -0.12514
40.7 -0.12178
40.75 -0.11974
40.8 -0.12196
40.85 -0.12263
40.9 -0.12258
40.95 -0.12201
41 -0.12212
41.05 -0.11848
41.1 -0.1129
41.15 -0.10757
41.2 -0.10324
41.25 -0.09911
41.3 -0.09442
41.35 -0.09494
41.4 -0.09176
41.45 -0.08862
41.5 -0.0887
41.55 -0.09261
41.6 -0.09295
41.65 -0.09258
41.7 -0.09376
41.75 -0.09773
41.8 -0.0956
41.85 -0.09173
41.9 -0.09248
41.95 -0.0907
42 -0.08891
42.05 -0.08988
42.1 -0.08765
42.15 -0.08809
42.2 -0.08651
42.25 -0.08109
42.3 -0.0781
42.35 -0.07176
42.4 -0.06392
42.45 -0.059
42.5 -0.05922
42.55 -0.05758
42.6 -0.05576
42.65 -0.05683
42.7 -0.0583
42.75 -0.05624
42.8 -0.05258
42.85 -0.05285
42.9 -0.05511
42.95 -0.05494
43 -0.05536
43.05 -0.0554
43.1 -0.05415
43.15 -0.05049
43.2 -0.05245
43.25 -0.05221
43.3 -0.05568
43.35 -0.05756
43.4 -0.05669
43.45 -0.05639
43.5 -0.05576
43.55 -0.0544
43.6 -0.05355
43.65 -0.05598
43.7 -0.05912
43.75 -0.06134
43.8 -0.05815
43.85 -0.05253
43.9 -0.04552
43.95 -0.04264
44 -0.04124
44.05 -0.04284
44.1 -0.04178
44.15 -0.04296
44.2 -0.04421
44.25 -0.04773
44.3 -0.0455
44.35 -0.0457
44.4 -0.04438
44.45 -0.0432
44.5 -0.04465
44.55 -0.04415
44.6 -0.04001
44.65 -0.04039
44.7 -0.04349
44.75 -0.04304
44.8 -0.04627
44.85 -0.04472
44.9 -0.04721
44.95 -0.04953
45 -0.04887
45.05 -0.04592
45.1 -0.04389
45.15 -0.04033
45.2 -0.03527
45.25 -0.03499
45.3 -0.03062
45.35 -0.02973
45.4 -0.02773
45.45 -0.0297
45.5 -0.03049
45.55 -0.03476
45.6 -0.03802
45.65 -0.03745
45.7 -0.03426
45.75 -0.02944
45.8 -0.02472
45.85 -0.01961
45.9 -0.0167
45.95 -0.01462
46 -0.01704
46.05 -0.02127
46.1 -0.02035
46.15 -0.01828
46.2 -0.01472
46.25 -0.00922
46.3 -0.00694
46.35 -0.00959
46.4 -0.00996
46.45 -0.00742
46.5 -0.01035
46.55 -0.01362
46.6 -0.0173
46.65 -0.01877
46.7 -0.01847
46.75 -0.01811
46.8 -0.01862
46.85 -0.02245
46.9 -0.024
46.95 -0.02102
47 -0.01736
47.05 -0.01407
47.1 -0.01284
47.15 -0.01033
47.2 -0.00736
47.25 -0.00807
47.3 -0.01072
47.35 -0.00906
47.4 -0.00679
47.45 -0.00613
47.5 -0.00792
47.55 -0.01225
47.6 -0.01204
47.65 -0.00933
47.7 -0.01077
47.75 -0.00956
47.8 -0.00891
47.85 -0.00625
47.9 -0.00853
47.95 -0.0089
48 -0.00662
48.05 -0.00875
48.1 -0.00925
48.15 -0.01003
48.2 -0.00849
48.25 -0.01057
48.3 -0.01076
48.35 -0.00985
48.4 -0.00853
48.45 -0.01062
48.5 -0.01052
48.55 -0.01411
48.6 -0.01276
48.65 -0.00859
48.7 -0.00368
48.75 -0.005
48.8 -0.00438
48.85 -0.00632
48.9 -0.01181
48.95 -0.01394
49 -0.01718
49.05 -0.02294
49.1 -0.02895
49.15 -0.02936
49.2 -0.02593
49.25 -0.01958
49.3 -0.01111
49.35 -0.00497
49.4 0.00037
49.45 -0.00002
49.5 -0.00411
49.55 -0.00375
49.6 -0.00677
49.65 -0.00769
49.7 -0.01206
49.75 -0.0133
49.8 -0.01083
49.85 -0.01067
49.9 -0.01452
49.95 -0.01508
50 -0.01754
50.05 -0.02109
50.1 -0.02129
50.15 -0.01647
50.2 -0.0116
50.25 -0.00903
50.3 -0.01161
50.35 -0.01507
50.4 -0.01952
50.45 -0.01963
50.5 -0.01993
50.55 -0.01931
50.6 -0.02062
50.65 -0.02057
50.7 -0.01949
50.75 -0.0193
50.8 -0.01724
50.85 -0.01821
50.9 -0.02126
50.95 -0.01821
51 -0.01806
51.05 -0.01421
51.1 -0.00769
51.15 -0.00717
51.2 -0.00798
51.25 -0.01097
51.3 -0.01371
51.35 -0.0147
51.4 -0.01291
51.45 -0.01221
51.5 -0.00737
51.55 -0.00555
51.6 -0.00088
51.65 -0.00127
51.7 -0.00119
51.75 -0.00547
51.8 -0.00397
51.85 0.00064
51.9 0.00319
51.95 0.00348
52 0.00141
52.05 -0.00283
52.1 -0.00437
52.15 -0.00836
52.2 -0.01457
52.25 -0.01804
52.3 -0.02222
52.35 -0.02706
52.4 -0.02421
52.45 -0.02244
52.5 -0.02128
52.55 -0.01862
52.6 -0.01952
52.65 -0.02145
52.7 -0.01962
52.75 -0.0151
52.8 -0.01339
52.85 -0.00894
52.9 -0.00412
52.95 0.00231
53 0.00557
53.05 0.006
53.1 0.00837
53.15 0.00899
53.2 0.01135
53.25 0.01265
53.3 0.00956
53.35 0.0055
53.4 0.00478
53.45 0.00183
53.5 -0.00086
53.55 0.00104
53.6 0.00065
53.65 0.00171
53.7 0.00366
53.75 0.0017
53.8 0.0012
53.85 0.00413
53.9 0.00862
53.95 0.0124
54 0.01052
54.05 0.00717
54.1 0.00132
54.15 -0.00027
54.2 -0.00279
54.25 -0.00514
54.3 -0.00413
54.35 0.00049
54.4 0.00617
54.45 0.01131
54.5 0.01284
54.55 0.00922
54.6 0.00664
54.65 0.00647
54.7 0.00192
54.75 -0.00086
54.8 -0.00649
54.85 -0.00692
54.9 -0.00887
54.95 -0.01211
55 -0.01203
55.05 -0.01392
55.1 -0.0172
55.15 -0.02151
55.2 -0.0211
55.25 -0.01737
55.3 -0.01739
55.35 -0.01495
55.4 -0.00821
55.45 -0.0035
55.5 -0.0025
55.55 0.00011
55.6 0.00133
55.65 0.00403
55.7 0.00478
55.75 0.00806
55.8 0.01036
55.85 0.00806
55.9 0.00836
55.95 0.00773
56 0.00645
56.05 0.00915
56.1 0.00923
56.15 0.00829
56.2 0.00616
56.25 0.00186
56.3 -0.00366
56.35 -0.01113
56.4 -0.0147
56.45 -0.01715
56.5 -0.0151
56.55 -0.01204
56.6 -0.01127
56.65 -0.00935
56.7 -0.01122
56.75 -0.00788
56.8 -0.00325
56.85 -0.00025
56.9 0.00582
56.95 0.00582
57 0.0039
57.05 0.00553
57.1 0.0022
57.15 -0.00214
57.2 -0.00249
57.25 -0.00479
57.3 -0.00355
57.35 -0.00523
57.4 -0.0035
57.45 -0.00428
57.5 -0.00799
57.55 -0.01168
57.6 -0.00961
57.65 -0.00992
57.7 -0.01304
57.75 -0.01129
57.8 -0.00711
57.85 -0.00166
57.9 -0.0013
57.95 -0.00362
58 -0.00705
58.05 -0.00742
58.1 -0.0029
58.15 -0.00154
58.2 0.00224
58.25 0.00799
58.3 0.01389
58.35 0.01588
58.4 0.01848
58.45 0.02095
58.5 0.01966
58.55 0.01373
58.6 0.00938
58.65 0.00774
58.7 0.00504
58.75 0.00584
58.8 0.00343
58.85 0.00181
58.9 0.00046
58.95 0.00175
59 0.00119
59.05 0.00244
59.1 0.00261
59.15 -0.00088
59.2 -0.00704
59.25 -0.0074
59.3 -0.00945
59.35 -0.01136
59.4 -0.00829
59.45 -0.00937
59.5 -0.00818
59.55 -0.00787
59.6 -0.00735
59.65 -0.00855
59.7 -0.00444
59.75 -0.00404
59.8 -0.00752
59.85 -0.00533
59.9 -0.00115
59.95 0.00457
60 0.00699
60.05 0.00724
60.1 0.00266
60.15 -0.00072
60.2 -0.00038
60.25 0.00005
60.3 0.00304
60.35 0.00844
60.4 0.00947
60.45 0.01234
60.5 0.01439
60.55 0.01337
60.6 0.01508
60.65 0.01225
60.7 0.00769
60.75 0.0073
60.8 0.00842
60.85 0.00412
60.9 -0.00255
60.95 -0.01066
61 -0.01096
61.05 -0.01262
61.1 -0.01361
61.15 -0.01583
61.2 -0.01448
61.25 -0.01623
61.3 -0.01633
61.35 -0.01367
61.4 -0.00694
61.45 -0.00135
61.5 0.00127
61.55 0.0021
61.6 0.003
61.65 0.00567
61.7 0.00461
61.75 0.00201
61.8 -0.00236
61.85 -0.00189
61.9 0.00114
61.95 0.0065
62 0.0058
62.05 0.00791
62.1 0.00839
62.15 0.0074
62.2 0.00778
62.25 0.00699
62.3 0.00792
62.35 0.00893
62.4 0.01279
62.45 0.01463
62.5 0.01278
62.55 0.01355
62.6 0.01138
62.65 0.0091
62.7 0.00978
62.75 0.00576
62.8 0.0002
62.85 -0.00122
62.9 -0.00178
62.95 -0.00392
63 -0.00497
63.05 -0.00837
63.1 -0.01189
63.15 -0.0162
63.2 -0.01633
63.25 -0.01367
63.3 -0.01006
63.35 -0.003
63.4 -0.0007
63.45 0.00473
63.5 0.00675
63.55 0.00547
63.6 0.00614
63.65 0.00821
63.7 0.01208
63.75 0.01308
63.8 0.01307
63.85 0.00934
63.9 0.00344
63.95 -0.00351
64 -0.0118
64.05 -0.01388
64.1 -0.01517
64.15 -0.01395
64.2 -0.01373
64.25 -0.01203
64.3 -0.00861
64.35 -0.00805
64.4 -0.00658
64.45 -0.00312
64.5 -0.00348
64.55 0.00005
64.6 0.0054
64.65 0.01027
64.7 0.01118
64.75 0.00719
64.8 0.00257
64.85 -0.00109
64.9 -0.00744
64.95 -0.01244
65 -0.01143
65.05 -0.01024
65.1 -0.01139
65.15 -0.01469
65.2 -0.01677
65.25 -0.01417
65.3 -0.01202
65.35 -0.00821
65.4 -0.00736
65.45 -0.00921
65.5 -0.01295
65.55 -0.01158
65.6 -0.01258
65.65 -0.0087
65.7 -0.0062
65.75 -0.00291
65.8 -0.00274
65.85 -0.00087
65.9 -0.00227
65.95 -0.00252
66 -0.0012
66.05 0.00378
66.1 0.00638
66.15 0.0103
66.2 0.0105
66.25 0.0138
66.3 0.01161
66.35 0.00978
66.4 0.00939
66.45 0.0065
66.5 0.00809
66.55 0.00677
66.6 0.0042
66.65 0.0003
66.7 -0.00223
66.75 -0.00195
66.8 0.00186
66.85 0.0066
66.9 0.00662
66.95 0.00846
67 0.0096
67.05 0.00742
67.1 0.00907
67.15 0.00804
67.2 0.00597
67.25 0.00144
67.3 0.00168
67.35 -0.00132
67.4 -0.00206
67.45 -0.00251
67.5 -0.00458
67.55 -0.00978
67.6 -0.01211
67.65 -0.01377
67.7 -0.01401
67.75 -0.01536
67.8 -0.01655
67.85 -0.0127
67.9 -0.01047
67.95 -0.00454
68 0.00163
68.05 0.00793
68.1 0.00737
68.15 0.0086
68.2 0.01229
68.25 0.01764
68.3 0.02237
68.35 0.02491
68.4 0.02481
68.45 0.01964
68.5 0.01447
68.55 0.00729
68.6 0.00162
68.65 -0.00284
68.7 -0.00566
68.75 -0.00785
68.8 -0.00651
68.85 -0.0085
68.9 -0.00517
68.95 -0.00154
69 0.00311
69.05 0.00895
69.1 0.0117
69.15 0.01065
69.2 0.00757
69.25 0.00345
69.3 -0.0024
69.35 -0.01015
69.4 -0.01219
69.45 -0.01578
69.5 -0.01317
69.55 -0.01119
69.6 -0.01189
69.65 -0.00782
69.7 -0.00252
69.75 0.00049
69.8 -0.00188
69.85 -0.00541
69.9 -0.00667
69.95 -0.0112
70 -0.01624
70.05 -0.01421
70.1 -0.01561
70.15 -0.01686
70.2 -0.01622
70.25 -0.01682
70.3 -0.01722
70.35 -0.01264
70.4 -0.0101
70.45 -0.00472
70.5 0.00189
70.55 0.00585
70.6 0.00679
70.65 0.00305
70.7 -0.00132
70.75 -0.00299
70.8 -0.00481
70.85 -0.00534
70.9 -0.00345
70.95 0.00023
71 0.00351
71.05 0.0047
71.1 0.00148
71.15 -0.00226
71.2 -0.00645
71.25 -0.0044
71.3 -0.00182
71.35 -0.00131
71.4 -0.00009
71.45 0.00176
71.5 0.00604
71.55 0.00861
71.6 0.0137
71.65 0.01501
71.7 0.01188
71.75 0.00557
71.8 0.00017
71.85 0.00008
71.9 0.00062
71.95 0.00287
72 0.00018
72.05 0.00176
72.1 0.00075
72.15 0.00315
72.2 0.00465
72.25 0.00792
72.3 0.01004
72.35 0.01167
72.4 0.01141
72.45 0.01276
72.5 0.01472
72.55 0.01748
72.6 0.01851
72.65 0.0149
72.7 0.01172
72.75 0.00611
72.8 -0.00199
72.85 -0.0031
72.9 -0.00568
72.95 -0.00984
73 -0.00961
73.05 -0.00921
73.1 -0.0048
73.15 -0.00002
73.2 0.00629
73.25 0.00885
73.3 0.0115
73.35 0.00829
73.4 0.00296
73.45 0.00164
73.5 0.00388
73.55 0.00854
73.6 0.01038
73.65 0.00773
73.7 0.00773
73.75 0.00267
73.8 -0.00441
73.85 -0.0094
73.9 -0.01055
73.95 -0.01472
74 -0.01451
74.05 -0.01225
74.1 -0.01047
74.15 -0.01228
74.2 -0.01358
74.25 -0.01281
74.3 -0.01124
74.35 -0.00649
74.4 0.00016
74.45 0.00212
74.5 0.00098
74.55 -0.00231
74.6 -0.00273
74.65 -0.00508
74.7 -0.00771
74.75 -0.00906
74.8 -0.00957
74.85 -0.00849
74.9 -0.00741
74.95 -0.00862
75 -0.0112
75.05 -0.00891
75.1 -0.00409
75.15 0.00258
75.2 0.01005
75.25 0.0112
75.3 0.01178
75.35 0.01137
75.4 0.00627
75.45 0.00015
75.5 -0.00648
75.55 -0.00743
75.6 -0.0092
75.65 -0.0093
75.7 -0.01215
75.75 -0.0144
75.8 -0.01274
75.85 -0.01062
75.9 -0.01094
75.95 -0.00737
76 -0.0082
76.05 -0.0098
76.1 -0.00922
76.15 -0.00903
76.2 -0.00706
76.25 -0.00901
76.3 -0.00644
76.35 -0.00417
76.4 -0.00229
76.45 -0.0025
76.5 -0.00085
76.55 0.00061
76.6 0.00259
76.65 0.00312
76.7 0.00004
76.75 0.00029
76.8 0.00183
76.85 0.00204
76.9 -0.00174
76.95 -0.0068
77 -0.01124
77.05 -0.00933
77.1 -0.00746
77.15 -0.00595
77.2 -0.00304
77.25 0.00247
77.3 0.00671
77.35 0.00956
77.4 0.00783
77.45 0.00403
77.5 -0.00156
77.55 -0.00173
77.6 0.001
77.65 0.00545
77.7 0.01132
77.75 0.01354
77.8 0.01242
77.85 0.00888
77.9 0.00444
77.95 0.00252
78 0.00464
78.05 0.00293
78.1 0.00566
78.15 0.00707
78.2 0.01104
78.25 0.01122
78.3 0.01193
78.35 0.00977
78.4 0.00879
78.45 0.00451
78.5 0.00015
78.55 -0.00184
78.6 -0.00251
78.65 0.00074
78.7 -0.00031
78.75 0.00004
78.8 0.00352
78.85 0.00907
78.9 0.01498
78.95 0.01364
79 0.01354
79.05 0.00815
79.1 0.00467
79.15 -0.00146
79.2 -0.0055
79.25 -0.01056
79.3 -0.01112
79.35 -0.0101
79.4 -0.00721
79.45 -0.00317
79.5 0.00248
79.55 0.00677
79.6 0.01028
79.65 0.01322
79.7 0.01368
79.75 0.00906
79.8 0.00334
79.85 -0.00339
79.9 -0.00768
79.95 -0.0141
80 -0.01892
80.05 -0.0212
80.1 -0.02109
80.15 -0.01706
80.2 -0.01041
80.25 -0.00225
80.3 0.00661
80.35 0.01403
80.4 0.01676
80.45 0.01369
80.5 0.01117
80.55 0.01151
80.6 0.007
80.65 0.00738
80.7 0.00285
80.75 0.00187
80.8 -0.00288
80.85 -0.00316
80.9 0.00084
80.95 0.00102
81 0.00102
81.05 0.00206
81.1 0.00022
81.15 0.00292
81.2 0.0007
81.25 -0.00432
81.3 -0.01067
81.35 -0.01318
81.4 -0.01724
81.45 -0.01482
81.5 -0.00966
81.55 -0.00896
81.6 -0.00772
81.65 -0.00953
81.7 -0.01167
81.75 -0.01502
81.8 -0.01493
81.85 -0.01229
81.9 -0.00843
81.95 -0.00405
82 0.00167
82.05 0.00516
82.1 0.00282
82.15 0.00133
82.2 0.00166
82.25 0.00011
82.3 -0.00379
82.35 -0.00929
82.4 -0.00979
82.45 -0.01127
82.5 -0.00858
82.55 -0.00879
82.6 -0.00585
82.65 -0.00302
82.7 0.00104
82.75 0.00174
82.8 0.00051
82.85 0.00003
82.9 -0.00321
82.95 -0.00644
83 -0.01147
83.05 -0.01203
83.1 -0.0092
83.15 -0.00797
83.2 -0.00943
83.25 -0.00838
83.3 -0.00302
83.35 0.00088
83.4 0.00627
83.45 0.00884
83.5 0.01094
83.55 0.01556
83.6 0.01309
83.65 0.01205
83.7 0.01003
83.75 0.00499
83.8 0.00099
83.85 0.0009
83.9 0.00477
83.95 0.00634
84 0.00367
84.05 -0.00143
84.1 -0.00373
84.15 -0.00353
84.2 -0.00039
84.25 0.00289
84.3 0.00795
84.35 0.01107
84.4 0.00919
84.45 0.00714
84.5 0.00261
84.55 0.00347
84.6 0.00236
84.65 0.00358
84.7 0.00024
84.75 -0.00199
84.8 -0.00376
84.85 -0.00561
84.9 -0.00533
84.95 -0.00226
85 0.00196
85.05 0.00086
85.1 -0.00204
85.15 -0.00142
85.2 0.00057
85.25 0.00362
85.3 0.00564
85.35 0.00669
85.4 0.00747
85.45 0.00632
85.5 0.00209
85.55 0.00031
85.6 -0.00397
85.65 -0.00666
85.7 -0.01017
85.75 -0.01531
85.8 -0.02058
85.85 -0.02617
85.9 -0.02497
85.95 -0.02584
86 -0.02783
86.05 -0.02719
86.1 -0.02718
86.15 -0.02411
86.2 -0.01686
86.25 -0.00651
86.3 -0.00318
86.35 0.00046
86.4 0.00698
86.45 0.01449
86.5 0.01679
86.55 0.01521
86.6 0.01063
86.65 0.00854
86.7 0.00858
86.75 0.00769
86.8 0.00982
86.85 0.01007
86.9 0.00608
86.95 0.00492
87 0.0041
87.05 0.00073
87.1 0.00045
87.15 0.00181
87.2 0.00428
87.25 0.00456
87.3 0.00593
87.35 0.00799
87.4 0.00467
87.45 0.00518
87.5 0.00577
87.55 0.00211
87.6 -0.00107
87.65 -0.00119
87.7 0.00059
87.75 0.00233
87.8 0.00026
87.85 -0.00272
87.9 -0.00155
87.95 -0.00356
88 -0.00304
88.05 -0.00527
88.1 -0.00905
88.15 -0.01439
88.2 -0.01961
88.25 -0.02068
88.3 -0.02212
88.35 -0.02046
88.4 -0.01389
88.45 -0.01249
88.5 -0.00638
88.55 -0.00062
88.6 0.00163
88.65 0.00441
88.7 0.00895
88.75 0.01199
88.8 0.01187
88.85 0.0138
88.9 0.01621
88.95 0.01907
89 0.02344
89.05 0.02714
89.1 0.03135
89.15 0.02966
89.2 0.02204
89.25 0.01696
89.3 0.01425
89.35 0.00884
89.4 0.00151
89.45 -0.00329
89.5 -0.0021
89.55 -0.00139
89.6 -0.00368
89.65 -0.00357
89.7 -0.00184
89.75 0.00022
89.8 -0.00047
89.85 -0.00263
89.9 -0.0079
89.95 -0.01054
90 -0.01069
90.05 -0.00887
90.1 -0.00813
90.15 -0.00936
90.2 -0.01286
90.25 -0.01007
90.3 -0.01103
90.35 -0.01015
90.4 -0.01095
90.45 -0.00815
90.5 -0.00849
90.55 -0.00465
90.6 0.00078
90.65 0.00025
90.7 -0.00087
90.75 -0.0044
90.8 -0.00269
90.85 -0.00382
90.9 -0.00541
90.95 -0.00915
91 -0.01126
91.05 -0.01259
91.1 -0.0156
91.15 -0.01426
91.2 -0.01281
91.25 -0.01032
91.3 -0.00746
91.35 -0.00221
91.4 -0.00095
91.45 -0.00271
91.5 -0.00414
91.55 -0.003
91.6 -0.00262
91.65 -0.00091
91.7 -0.00131
91.75 -0.00105
91.8 0.00357
91.85 0.00886
91.9 0.01283
91.95 0.01328
92 0.01074
92.05 0.00811
92.1 0.00815
92.15 0.0053
92.2 0.00191
92.25 0.00229
92.3 -0.00155
92.35 -0.00332
92.4 -0.0052
92.45 -0.00882
92.5 -0.00701
92.55 -0.00825
92.6 -0.00677
92.65 -0.00148
92.7 0.00595
92.75 0.01153
92.8 0.01369
92.85 0.01282
92.9 0.0107
92.95 0.00483
93 0.00112
93.05 0.00029
93.1 -0.00298
93.15 -0.00273
93.2 -0.00285
93.25 -0.00085
93.3 -0.00155
93.35 -0.00404
93.4 -0.00841
93.45 -0.01321
93.5 -0.01839
93.55 -0.01641
93.6 -0.01219
93.65 -0.0121
93.7 -0.01394
93.75 -0.01225
93.8 -0.01116
93.85 -0.01288
93.9 -0.01432
93.95 -0.01102
94 -0.01082
94.05 -0.01014
94.1 -0.01057
94.15 -0.00974
94.2 -0.0103
94.25 -0.01356
94.3 -0.01305
94.35 -0.01473
94.4 -0.01415
94.45 -0.01365
94.5 -0.01375
94.55 -0.01065
94.6 -0.00815
94.65 -0.00512
94.7 0.00018
94.75 0.0017
94.8 -0.00089
94.85 -0.0019
94.9 -0.00406
94.95 -0.00526
95 -0.00209
95.05 0.00213
95.1 0.00297
95.15 0.00183
95.2 0.00201
95.25 0.0019
95.3 0.00074
95.35 0.0023
95.4 0.00408
95.45 0.00814
95.5 0.01143
95.55 0.01672
95.6 0.01503
95.65 0.00958
95.7 0.00676
95.75 0.0014
95.8 -0.00444
95.85 -0.01077
95.9 -0.0166
95.95 -0.01992
96 -0.02073
96.05 -0.01649
96.1 -0.01167
96.15 -0.00587
96.2 -0.00346
96.25 0.00056
96.3 0.00609
96.35 0.00872
96.4 0.00704
96.45 0.00462
96.5 0.00738
96.55 0.00909
96.6 0.00944
96.65 0.01323
96.7 0.01252
96.75 0.01285
96.8 0.00857
96.85 0.00426
96.9 0.00545
96.95 0.00841
97 0.00634
97.05 0.00793
97.1 0.00644
97.15 0.00891
97.2 0.01101
97.25 0.01361
97.3 0.01135
97.35 0.00671
97.4 0.00246
97.45 -0.00144
97.5 -0.0071
97.55 -0.00623
97.6 -0.00864
97.65 -0.00511
97.7 -0.00636
97.75 -0.00678
97.8 -0.00434
97.85 0.00035
97.9 0.0017
97.95 0.00062
98 0.00017
98.05 -0.00171
98.1 -0.00317
98.15 -0.00335
98.2 -0.00046
98.25 -0
98.3 0.00361
98.35 0.00978
98.4 0.01169
98.45 0.01383
98.5 0.01366
98.55 0.01431
98.6 0.01778
98.65 0.02098
98.7 0.0218
98.75 0.02148
98.8 0.01811
98.85 0.01164
98.9 0.00354
98.95 -0.00438
99 -0.00479
99.05 -0.00092
99.1 0.00355
99.15 0.00779
99.2 0.00846
99.25 0.01133
99.3 0.01317
99.35 0.01125
99.4 0.00533
99.45 0.00283
99.5 0.00274
99.55 0.00573
99.6 0.00693
99.65 0.00561
99.7 0.00272
99.75 0.00074
99.8 -0.00107
99.85 -0.00127
99.9 -0.00225
99.95 -0.00478
