0 0
0.05 0.00914
0.1 0.01592
0.15 0.02492
0.2 0.02989
0.25 0.03096
0.3 0.03563
0.35 0.04321
0.4 0.05367
0.45 0.05881
0.5 0.06012
0.55 0.06037
0.6 0.0563
0.65 0.0555
0.7 0.05442
0.75 0.05563
0.8 0.05135
0.85 0.05066
0.9 0.05207
0.95 0.05516
1 0.05701
1.05 0.05303
1.1 0.04933
1.15 0.04192
1.2 0.03462
1.25 0.03062
1.3 0.02998
1.35 0.02989
1.4 0.03463
1.45 0.03482
1.5 0.03514
1.55 0.0357
1.6 0.03743
1.65 0.04122
1.7 0.03896
1.75 0.03598
1.8 0.03017
1.85 0.02865
1.9 0.03095
1.95 0.03203
2 0.03548
2.05 0.03862
2.1 0.04442
2.15 0.04705
2.2 0.05183
2.25 0.05404
2.3 0.05106
2.35 0.04657
2.4 0.0459
2.45 0.04724
2.5 0.05046
2.55 0.04741
2.6 0.04587
2.65 0.04782
2.7 0.04846
2.75 0.0441
2.8 0.0429
2.85 0.0408
2.9 0.03348
2.95 0.02357
3 0.0191
3.05 0.01277
3.1 0.00829
3.15 0.00487
3.2 0.00771
3.25 0.01509
3.3 0.02077
3.35 0.02408
3.4 0.02999
3.45 0.0328
3.5 0.03492
3.55 0.03826
3.6 0.03454
3.65 0.02771
3.7 0.0199
3.75 0.01241
3.8 0.0071
3.85 0.00559
3.9 0.00056
3.95 -0.00434
4 -0.00135
4.05 0.00255
4.1 0.00707
4.15 0.00536
4.2 0.00774
4.25 0.00767
4.3 0.00687
4.35 0.00449
4.4 -0.0009
4.45 -0.00744
4.5 -0.01076
4.55 -0.0158
4.6 -0.02313
4.65 -0.03217
4.7 -0.04395
4.75 -0.05911
4.8 -0.08314
4.85 -0.10769
4.9 -0.13638
4.95 -0.16895
5 -0.20544
5.05 -0.24696
5.1 -0.2985
5.15 -0.35678
5.2 -0.42149
5.25 -0.48803
5.3 -0.5585
5.35 -0.63309
5.4 -0.71308
5.45 -0.79984
5.5 -0.8912
5.55 -0.98014
5.6 -1.0657
5.65 -1.14637
5.7 -1.23132
5.75 -1.3128
5.8 -1.39392
5.85 -1.47267
5.9 -1.54886
5.95 -1.61507
6 -1.67273
6.05 -1.726
6.1 -1.77144
6.15 -1.80752
6.2 -1.83836
6.25 -1.86204
6.3 -1.88666
6.35 -1.90693
6.4 -1.91935
6.45 -1.92861
6.5 -1.92686
6.55 -1.91434
6.6 -1.89011
6.65 -1.85997
6.7 -1.81796
6.75 -1.77
6.8 -1.70657
6.85 -1.63371
6.9 -1.54583
6.95 -1.44796
7 -1.33931
7.05 -1.21969
7.1 -1.09064
7.15 -0.95578
7.2 -0.80861
7.25 -0.65705
7.3 -0.49569
7.35 -0.3355
7.4 -0.17112
7.45 -0.00485
7.5 0.15539
7.55 0.31145
7.6 0.46035
7.65 0.60439
7.7 0.74528
7.75 0.88191
7.8 1.01429
7.85 1.1346
7.9 1.24811
7.95 1.35107
8 1.44614
8.05 1.52983
8.1 1.60239
8.15 1.66521
8.2 1.71773
8.25 1.76037
8.3 1.79523
8.35 1.82474
8.4 1.84335
8.45 1.852
8.5 1.85543
8.55 1.85607
8.6 1.8499
8.65 1.84553
8.7 1.84209
8.75 1.83032
8.8 1.81967
8.85 1.80476
8.9 1.78391
8.95 1.75919
9 1.73238
9.05 1.70465
9.1 1.67835
9.15 1.64857
9.2 1.61598
9.25 1.58405
9.3 1.55659
9.35 1.53005
9.4 1.49939
9.45 1.46987
9.5 1.43861
9.55 1.40344
9.6 1.36716
9.65 1.32608
9.7 1.28714
9.75 1.24891
9.8 1.21511
9.85 1.18423
9.9 1.14694
9.95 1.11353
10 1.07391
10.05 1.03285
10.1 0.99028
10.15 0.95425
10.2 0.91541
10.25 0.87599
10.3 0.8344
10.35 0.79836
10.4 0.76054
10.45 0.72979
10.5 0.6971
10.55 0.66384
10.6 0.63231
10.65 0.59818
10.7 0.56507
10.75 0.53458
10.8 0.50822
10.85 0.47519
10.9 0.44183
10.95 0.41236
11 0.38274
11.05 0.35257
11.1 0.32015
11.15 0.28525
11.2 0.25493
11.25 0.22313
11.3 0.19442
11.35 0.17056
11.4 0.14912
11.45 0.12736
11.5 0.10678
11.55 0.08091
11.6 0.05723
11.65 0.03188
11.7 0.00781
11.75 -0.01189
11.8 -0.03124
11.85 -0.04687
11.9 -0.06557
11.95 -0.08724
12 -0.11042
12.05 -0.12785
12.1 -0.14467
12.15 -0.15762
12.2 -0.17314
12.25 -0.18434
12.3 -0.19092
12.35 -0.19342
12.4 -0.19806
12.45 -0.20184
12.5 -0.20744
12.55 -0.217
12.6 -0.22833
12.65 -0.24082
12.7 -0.24779
12.75 -0.25642
12.8 -0.26056
12.85 -0.26322
12.9 -0.26812
12.95 -0.27067
13 -0.26864
13.05 -0.2693
13.1 -0.27358
13.15 -0.27464
13.2 -0.27515
13.25 -0.27221
13.3 -0.27056
13.35 -0.27056
13.4 -0.26877
13.45 -0.26859
13.5 -0.27119
13.55 -0.27301
13.6 -0.27153
13.65 -0.26656
13.7 -0.26342
13.75 -0.25862
13.8 -0.26032
13.85 -0.25664
13.9 -0.24982
13.95 -0.24818
14 -0.24411
14.05 -0.24037
14.1 -0.2354
14.15 -0.22999
14.2 -0.23162
14.25 -0.2303
14.3 -0.22907
14.35 -0.22932
14.4 -0.22688
14.45 -0.22245
14.5 -0.22068
14.55 -0.21614
14.6 -0.21733
14.65 -0.21442
14.7 -0.21182
14.75 -0.20591
14.8 -0.20681
14.85 -0.20677
14.9 -0.20306
14.95 -0.20214
15 -0.20474
15.05 -0.20272
15.1 -0.19935
15.15 -0.19446
15.2 -0.19034
15.25 -0.18968
15.3 -0.18916
15.35 -0.1923
15.4 -0.19449
15.45 -0.18983
15.5 -0.18672
15.55 -0.18448
15.6 -0.1769
15.65 -0.16643
15.7 -0.15828
15.75 -0.15556
15.8 -0.15382
15.85 -0.1512
15.9 -0.14448
15.95 -0.13937
16 -0.13784
16.05 -0.13862
16.1 -0.14387
16.15 -0.14865
16.2 -0.1475
16.25 -0.14259
16.3 -0.1395
16.35 -0.13803
16.4 -0.13911
16.45 -0.13753
16.5 -0.13211
16.55 -0.12603
16.6 -0.12557
16.65 -0.11991
16.7 -0.11565
16.75 -0.11481
16.8 -0.11718
16.85 -0.12122
16.9 -0.12124
16.95 -0.11578
17 -0.10785
17.05 -0.10138
17.1 -0.09318
17.15 -0.08544
17.2 -0.07997
17.25 -0.07495
17.3 -0.07505
17.35 -0.07571
17.4 -0.07739
17.45 -0.08318
17.5 -0.08439
17.55 -0.08499
17.6 -0.08569
17.65 -0.09019
17.7 -0.0891
17.75 -0.08816
17.8 -0.09151
17.85 -0.09475
17.9 -0.09887
17.95 -0.1002
18 -0.10295
18.05 -0.10598
18.1 -0.10498
18.15 -0.10247
18.2 -0.09543
18.25 -0.0898
18.3 -0.08494
18.35 -0.08077
18.4 -0.07393
18.45 -0.06954
18.5 -0.0684
18.55 -0.06484
18.6 -0.06609
18.65 -0.06452
18.7 -0.05882
18.75 -0.05575
18.8 -0.05331
18.85 -0.0551
18.9 -0.05832
18.95 -0.06477
19 -0.06428
19.05 -0.06603
19.1 -0.06565
19.15 -0.06375
19.2 -0.06472
19.25 -0.06768
19.3 -0.06575
19.35 -0.06306
19.4 -0.05558
19.45 -0.05219
19.5 -0.0516
19.55 -0.05293
19.6 -0.04844
19.65 -0.0499
19.7 -0.05179
19.75 -0.04976
19.8 -0.04557
19.85 -0.04518
19.9 -0.04262
19.95 -0.0372
20 -0.0302
20.05 -0.02897
20.1 -0.02937
20.15 -0.03292
20.2 -0.03792
20.25 -0.04253
20.3 -0.04876
20.35 -0.05439
20.4 -0.05511
20.45 -0.05587
20.5 -0.0539
20.55 -0.04991
20.6 -0.0504
20.65 -0.05084
20.7 -0.04922
20.75 -0.04478
20.8 -0.03776
20.85 -0.03044
20.9 -0.02707
20.95 -0.02565
21 -0.02025
21.05 -0.0209
21.1 -0.02505
21.15 -0.03144
21.2 -0.03434
21.25 -0.03781
21.3 -0.03424
21.35 -0.03388
21.4 -0.03354
21.45 -0.03316
21.5 -0.03373
21.55 -0.03036
21.6 -0.02904
21.65 -0.02333
21.7 -0.02283
21.75 -0.02677
21.8 -0.02463
21.85 -0.0242
21.9 -0.02565
21.95 -0.02295
22 -0.02327
22.05 -0.02279
22.1 -0.01928
22.15 -0.01871
22.2 -0.0174
22.25 -0.01891
22.3 -0.01925
22.35 -0.01694
22.4 -0.01803
22.45 -0.01827
22.5 -0.01415
22.55 -0.01273
22.6 -0.00767
22.65 -0.00447
22.7 -0.00339
22.75 -0.00083
22.8 0.00255
22.85 0.00346
22.9 0.00542
22.95 0.00884
23 0.0099
23.05 0.00385
23.1 -0.0034
23.15 -0.00863
23.2 -0.01607
23.25 -0.01682
23.3 -0.0193
23.35 -0.02228
23.4 -0.027
23.45 -0.02503
23.5 -0.02131
23.55 -0.0182
23.6 -0.01422
23.65 -0.00867
23.7 -0.009
23.75 -0.00643
23.8 -0.00804
23.85 -0.00575
23.9 -0.0033
23.95 -0.00476
24 -0.00392
24.05 -0.00732
24.1 -0.00602
24.15 -0.00329
24.2 0.00052
24.25 0.00503
24.3 0.01083
24.35 0.01691
24.4 0.02138
24.45 0.01683
24.5 0.00919
24.55 -0.00153
24.6 -0.00899
24.65 -0.01394
24.7 -0.02174
24.75 -0.02889
24.8 -0.02732
24.85 -0.02365
24.9 -0.01569
24.95 -0.01013
25 -0.0081
25.05 -0.01024
25.1 -0.00822
25.15 -0.00279
25.2 -0.00075
25.25 0.00316
25.3 0.00247
25.35 0.00201
25.4 0.00018
25.45 -0.00406
25.5 -0.01049
25.55 -0.0115
25.6 -0.01179
25.65 -0.00828
25.7 -0.00325
25.75 0.00008
25.8 -0.00196
25.85 -0.00804
25.9 -0.00743
25.95 -0.00606
26 -0.00993
26.05 -0.01262
26.1 -0.01257
26.15 -0.00927
26.2 -0.0064
26.25 -0.0038
26.3 -0.00049
26.35 0.0003
26.4 -0.0008
26.45 -0.00531
26.5 -0.01084
26.55 -0.01443
26.6 -0.01189
26.65 -0.01089
26.7 -0.01095
26.75 -0.01041
26.8 -0.01281
26.85 -0.00938
26.9 -0.00295
26.95 -0.00031
27 0.00497
27.05 0.00259
27.1 0.00399
27.15 0.00433
27.2 0.00042
27.25 -0.00183
27.3 -0.00375
27.35 -0.00735
27.4 -0.00957
27.45 -0.01575
27.5 -0.0155
27.55 -0.01841
27.6 -0.01829
27.65 -0.01822
27.7 -0.02081
27.75 -0.0258
27.8 -0.03229
27.85 -0.0381
27.9 -0.03812
27.95 -0.03377
28 -0.02667
28.05 -0.02094
28.1 -0.01664
28.15 -0.01356
28.2 -0.01092
28.25 -0.01478
28.3 -0.02096
28.35 -0.02581
28.4 -0.02994
28.45 -0.03346
28.5 -0.04303
28.55 -0.05308
28.6 -0.06202
28.65 -0.07199
28.7 -0.08382
28.75 -0.09617
28.8 -0.11264
28.85 -0.1371
28.9 -0.16291
28.95 -0.18912
29 -0.2184
29.05 -0.24647
29.1 -0.27991
29.15 -0.31698
29.2 -0.35583
29.25 -0.3888
29.3 -0.42601
29.35 -0.46681
29.4 -0.50684
29.45 -0.54367
29.5 -0.58024
29.55 -0.61835
29.6 -0.65395
29.65 -0.68805
29.7 -0.71674
29.75 -0.74537
29.8 -0.76997
29.85 -0.79094
29.9 -0.80155
29.95 -0.81076
30 -0.8126
30.05 -0.81363
30.1 -0.81139
30.15 -0.79816
30.2 -0.77632
30.25 -0.75259
30.3 -0.72381
30.35 -0.68771
30.4 -0.6516
30.45 -0.60958
30.5 -0.56982
30.55 -0.53131
30.6 -0.49245
30.65 -0.44994
30.7 -0.40367
30.75 -0.35501
30.8 -0.29948
30.85 -0.24578
30.9 -0.19122
30.95 -0.13765
31 -0.08036
31.05 -0.02453
31.1 0.02407
31.15 0.07197
31.2 0.11879
31.25 0.15556
31.3 0.18508
31.35 0.21188
31.4 0.23508
31.45 0.25814
31.5 0.27825
31.55 0.29441
31.6 0.30858
31.65 0.32134
31.7 0.34062
31.75 0.35638
31.8 0.37462
31.85 0.39248
31.9 0.40696
31.95 0.41885
32 0.43243
32.05 0.45232
32.1 0.47142
32.15 0.4904
32.2 0.51013
32.25 0.52403
32.3 0.53461
32.35 0.54207
32.4 0.55453
32.45 0.56937
32.5 0.58319
32.55 0.59501
32.6 0.60803
32.65 0.61957
32.7 0.62987
32.75 0.6389
32.8 0.64154
32.85 0.64104
32.9 0.64037
32.95 0.64388
33 0.64671
33.05 0.65249
33.1 0.65535
33.15 0.6586
33.2 0.65614
33.25 0.64782
33.3 0.63983
33.35 0.63304
33.4 0.62143
33.45 0.60524
33.5 0.58724
33.55 0.56949
33.6 0.55404
33.65 0.53626
33.7 0.52375
33.75 0.51031
33.8 0.49693
33.85 0.47853
33.9 0.4637
33.95 0.45071
34 0.43814
34.05 0.42481
34.1 0.41374
34.15 0.40092
34.2 0.38891
34.25 0.36977
34.3 0.34701
34.35 0.32826
34.4 0.31016
34.45 0.28986
34.5 0.27112
34.55 0.25807
34.6 0.24553
34.65 0.23134
34.7 0.21977
34.75 0.20897
34.8 0.19666
34.85 0.1827
34.9 0.16812
34.95 0.15182
35 0.14091
35.05 0.12951
35.1 0.11728
35.15 0.10519
35.2 0.09371
35.25 0.08014
35.3 0.0638
35.35 0.04594
35.4 0.03548
35.45 0.03053
35.5 0.02743
35.55 0.02133
35.6 0.01411
35.65 0.00216
35.7 -0.01265
35.75 -0.02541
35.8 -0.0335
35.85 -0.04097
35.9 -0.04917
35.95 -0.05788
36 -0.06777
36.05 -0.07722
36.1 -0.08518
36.15 -0.09035
36.2 -0.09291
36.25 -0.09606
36.3 -0.1021
36.35 -0.10987
36.4 -0.10944
36.45 -0.10477
36.5 -0.09834
36.55 -0.09076
36.6 -0.08733
36.65 -0.08431
36.7 -0.08736
36.75 -0.08832
36.8 -0.08655
36.85 -0.08865
36.9 -0.09459
36.95 -0.10366
37 -0.10927
37.05 -0.11022
37.1 -0.11407
37.15 -0.11843
37.2 -0.12498
37.25 -0.12785
37.3 -0.12809
37.35 -0.12884
37.4 -0.12607
37.45 -0.12044
37.5 -0.11278
37.55 -0.11192
37.6 -0.11275
37.65 -0.11648
37.7 -0.11992
37.75 -0.11695
37.8 -0.11087
37.85 -0.10974
37.9 -0.10887
37.95 -0.10862
38 -0.1071
38.05 -0.10438
38.1 -0.10102
38.15 -0.0984
38.2 -0.09176
38.25 -0.08803
38.3 -0.08258
38.35 -0.08163
38.4 -0.08141
38.45 -0.07994
38.5 -0.08035
38.55 -0.08517
38.6 -0.09128
38.65 -0.09534
38.7 -0.09249
38.75 -0.09019
38.8 -0.08728
38.85 -0.08913
38.9 -0.08826
38.95 -0.08465
39 -0.07728
39.05 -0.07553
39.1 -0.07091
39.15 -0.07285
39.2 -0.07741
39.25 -0.08089
39.3 -0.0836
39.35 -0.08059
39.4 -0.08043
39.45 -0.0752
39.5 -0.07551
39.55 -0.07795
39.6 -0.08286
39.65 -0.0886
39.7 -0.08597
39.75 -0.08122
39.8 -0.07509
39.85 -0.06594
39.9 -0.06278
39.95 -0.06023
40 -0.05435
40.05 -0.0505
40.1 -0.05195
40.15 -0.04985
40.2 -0.05015
40.25 -0.04944
40.3 -0.05289
40.35 -0.0559
40.4 -0.05557
40.45 -0.05656
40.5 -0.05437
40.55 -0.05503
40.6 -0.05588
40.65 -0.05327
40.7 -0.04864
40.75 -0.04723
40.8 -0.04453
40.85 -0.04127
40.9 -0.03884
40.95 -0.04023
41 -0.04534
41.05 -0.05145
41.1 -0.05692
41.15 -0.05761
41.2 -0.05632
41.25 -0.05438
41.3 -0.05249
41.35 -0.04961
41.4 -0.04458
41.45 -0.04506
41.5 -0.04024
41.55 -0.03812
41.6 -0.03427
41.65 -0.02888
41.7 -0.02237
41.75 -0.01457
41.8 -0.00709
41.85 -0.00179
41.9 -0.00096
41.95 -0.00139
42 -0.00195
42.05 -0.00205
42.1 -0.00676
42.15 -0.01206
42.2 -0.01797
42.25 -0.02215
42.3 -0.02886
42.35 -0.03247
42.4 -0.03709
42.45 -0.03982
42.5 -0.04401
42.55 -0.04355
42.6 -0.04349
42.65 -0.04234
42.7 -0.03729
42.75 -0.03014
42.8 -0.02911
42.85 -0.03078
42.9 -0.03359
42.95 -0.03457
43 -0.03461
43.05 -0.03361
43.1 -0.0339
43.15 -0.03199
43.2 -0.03455
43.25 -0.03085
43.3 -0.03066
43.35 -0.03162
43.4 -0.0314
43.45 -0.03315
43.5 -0.03156
43.55 -0.02938
43.6 -0.02326
43.65 -0.01753
43.7 -0.01464
43.75 -0.00878
43.8 -0.0055
43.85 -0.00551
43.9 -0.006
43.95 -0.00452
44 -0.00556
44.05 -0.00749
44.1 -0.00494
44.15 -0.00217
44.2 0.00045
44.25 -0.0004
44.3 -0.00481
44.35 -0.00855
44.4 -0.01351
44.45 -0.01845
44.5 -0.02359
44.55 -0.02443
44.6 -0.02852
44.65 -0.02719
44.7 -0.02515
44.75 -0.02624
44.8 -0.02532
44.85 -0.02387
44.9 -0.02094
44.95 -0.02137
45 -0.0239
45.05 -0.02543
45.1 -0.02451
45.15 -0.02444
45.2 -0.02542
45.25 -0.0214
45.3 -0.0156
45.35 -0.01017
45.4 -0.00312
45.45 -0.00203
45.5 0.00125
45.55 -0.00209
45.6 -0.0018
45.65 0.00087
45.7 0.00641
45.75 0.00913
45.8 0.00477
45.85 -0.00064
45.9 -0.00911
45.95 -0.015
46 -0.01439
46.05 -0.01797
46.1 -0.02178
46.15 -0.02182
46.2 -0.01856
46.25 -0.01604
46.3 -0.01551
46.35 -0.0156
46.4 -0.01541
46.45 -0.01851
46.5 -0.01698
46.55 -0.01697
46.6 -0.01419
46.65 -0.00869
46.7 -0.00207
46.75 0.00275
46.8 0.00351
46.85 0.00257
46.9 -0.00129
46.95 -0.00822
47 -0.00781
47.05 -0.00909
47.1 -0.01192
47.15 -0.01058
47.2 -0.00933
47.25 -0.00544
47.3 -0.00677
47.35 -0.00712
47.4 -0.00358
47.45 -0.00615
47.5 -0.00629
47.55 -0.00269
47.6 0.00427
47.65 0.01066
47.7 0.0155
47.75 0.02084
47.8 0.02059
47.85 0.02107
47.9 0.01903
47.95 0.01228
48 0.01124
48.05 0.01192
48.1 0.01377
48.15 0.01385
48.2 0.01235
48.25 0.0117
48.3 0.01259
48.35 0.01589
48.4 0.01704
48.45 0.01136
48.5 0.00684
48.55 0.00336
48.6 0.00411
48.65 0.00342
48.7 0.00258
48.75 -0.00153
48.8 -0.00653
48.85 -0.00939
48.9 -0.01407
48.95 -0.01491
49 -0.0146
49.05 -0.01161
49.1 -0.01225
49.15 -0.0154
49.2 -0.01865
49.25 -0.02066
49.3 -0.01921
49.35 -0.0125
49.4 -0.01224
49.45 -0.01005
49.5 -0.00722
49.55 -0.00338
49.6 0.00189
49.65 0.00468
49.7 0.00275
49.75 -0.00106
49.8 -0.00396
49.85 -0.0084
49.9 -0.01053
49.95 -0.01082
50 -0.00963
50.05 -0.00564
50.1 -0.00179
50.15 0.00285
50.2 0.00586
50.25 0.00601
50.3 0.00436
50.35 -0.00201
50.4 -0.0043
50.45 -0.00668
50.5 -0.00825
50.55 -0.00909
50.6 -0.01329
50.65 -0.01617
50.7 -0.01282
50.75 -0.00618
50.8 -0.00071
50.85 0.00271
50.9 0.00665
50.95 0.00679
51 0.00226
51.05 -0.00087
51.1 -0.00693
51.15 -0.01487
51.2 -0.02189
51.25 -0.02233
51.3 -0.02029
51.35 -0.01528
51.4 -0.01066
51.45 -0.00235
51.5 0.00149
51.55 0.00534
51.6 0.01129
51.65 0.0118
51.7 0.00825
51.75 0.00352
51.8 -0.00173
51.85 -0.00563
51.9 -0.0121
51.95 -0.01859
52 -0.01919
52.05 -0.02174
52.1 -0.02573
52.15 -0.03013
52.2 -0.02744
52.25 -0.02427
52.3 -0.01961
52.35 -0.01963
52.4 -0.01533
52.45 -0.01326
52.5 -0.00905
52.55 -0.00187
52.6 0.00195
52.65 0.00794
52.7 0.01113
52.75 0.01174
52.8 0.01323
52.85 0.01485
52.9 0.01903
52.95 0.02189
53 0.02421
53.05 0.02402
53.1 0.01714
53.15 0.01202
53.2 0.01115
53.25 0.01349
53.3 0.00984
53.35 0.00256
53.4 -0
53.45 -0.00093
53.5 -0.00427
53.55 -0.00957
53.6 -0.01502
53.65 -0.01697
53.7 -0.01409
53.75 -0.01126
53.8 -0.00469
53.85 -0.00486
53.9 -0.00907
53.95 -0.01232
54 -0.01248
54.05 -0.0136
54.1 -0.00995
54.15 -0.00604
54.2 -0.00223
54.25 0.00304
54.3 0.00153
54.35 -0.00196
54.4 -0.00764
54.45 -0.01248
54.5 -0.01713
54.55 -0.01845
54.6 -0.0169
54.65 -0.01543
54.7 -0.01679
54.75 -0.01513
54.8 -0.00919
54.85 -0.00465
54.9 -0.00387
54.95 -0.00648
55 -0.00417
55.05 -0.00057
55.1 -0.00006
55.15 -0.0004
55.2 -0.00201
55.25 -0.00312
55.3 -0.00599
55.35 -0.01004
55.4 -0.01373
55.45 -0.0123
55.5 -0.01036
55.55 -0.00905
55.6 -0.01003
55.65 -0.0076
55.7 -0.00851
55.75 -0.00956
55.8 -0.00448
55.85 0.00119
55.9 0.00325
55.95 0.00847
56 0.0106
56.05 0.01587
56.1 0.02051
56.15 0.02006
56.2 0.01763
56.25 0.01108
56.3 0.00764
56.35 0.00542
56.4 0.00469
56.45 0.00831
56.5 0.00779
56.55 0.00641
56.6 0.00245
56.65 0.00287
56.7 0.00502
56.75 0.00131
56.8 -0.00312
56.85 -0.00324
56.9 -0.00725
56.95 -0.00445
57 -0.00024
57.05 0.00072
57.1 0.00092
57.15 -0.0024
57.2 -0.00326
57.25 -0.00067
57.3 -0.00168
57.35 -0.00518
57.4 -0.00712
57.45 -0.00682
57.5 -0.00553
57.55 -0.00613
57.6 -0.00807
57.65 -0.01146
57.7 -0.01338
57.75 -0.01492
57.8 -0.01569
57.85 -0.01233
57.9 -0.00541
57.95 -0.00272
58 -0.0044
58.05 -0.00458
58.1 -0.00547
58.15 -0.00387
58.2 0.00064
58.25 0.00076
58.3 0.00243
58.35 0.00339
58.4 0.00217
58.45 0.00369
58.5 0.00553
58.55 0.00221
58.6 -0.00161
58.65 -0.00351
58.7 -0.00497
58.75 -0.00565
58.8 -0.006
58.85 -0.00519
58.9 -0.00236
58.95 0.00018
59 0.00383
59.05 0.00415
59.1 0.00525
59.15 0.00286
59.2 0.00184
59.25 0.00139
59.3 0.00319
59.35 0.00681
59.4 0.00579
59.45 0.00458
59.5 0.00237
59.55 0.00067
59.6 -0.00351
59.65 -0.00129
59.7 -0.00358
59.75 0.00006
59.8 0.00351
59.85 0.00981
59.9 0.01692
59.95 0.01651
60 0.01911
60.05 0.02235
60.1 0.02443
60.15 0.02175
60.2 0.01486
60.25 0.01047
60.3 0.00632
60.35 0.00336
60.4 -0.00273
60.45 -0.00554
60.5 -0.00314
60.55 -0.00616
60.6 -0.00731
60.65 -0.01123
60.7 -0.01057
60.75 -0.01213
60.8 -0.01414
60.85 -0.01049
60.9 -0.00933
60.95 -0.00666
61 -0.00277
61.05 0.00003
61.1 0.0013
61.15 0.00649
61.2 0.00514
61.25 0.00019
61.3 -0.0003
61.35 0.00013
61.4 0.00329
61.45 0.00428
61.5 0.00034
61.55 -0.00433
61.6 -0.00762
61.65 -0.01039
61.7 -0.00948
61.75 -0.00456
61.8 -0.00509
61.85 -0.0016
61.9 -0.00194
61.95 -0.00156
62 0.00334
62.05 0.00602
62.1 0.01001
62.15 0.00836
62.2 0.00965
62.25 0.01008
62.3 0.00702
62.35 0.00579
62.4 0.00642
62.45 0.0024
62.5 0.0001
62.55 0.00263
62.6 -0.00015
62.65 -0.00439
62.7 -0.005
62.75 -0.00141
62.8 0.00067
62.85 0.00441
62.9 0.01084
62.95 0.01836
63 0.0177
63.05 0.01706
63.1 0.01915
63.15 0.01484
63.2 0.01136
63.25 0.01033
63.3 0.01138
63.35 0.00669
63.4 0.0073
63.45 0.00322
63.5 -0.00279
63.55 -0.00451
63.6 -0.00993
63.65 -0.01736
63.7 -0.01637
63.75 -0.01284
63.8 -0.01187
63.85 -0.01003
63.9 -0.00748
63.95 -0.00118
64 0.00395
64.05 0.00685
64.1 0.0095
64.15 0.00756
64.2 0.00971
64.25 0.0117
64.3 0.01496
64.35 0.01375
64.4 0.01258
64.45 0.01223
64.5 0.00783
64.55 0.00768
64.6 0.00484
64.65 -0.00226
64.7 -0.01003
64.75 -0.01507
64.8 -0.01589
64.85 -0.01225
64.9 -0.00767
64.95 -0.00596
65 -0.00905
65.05 -0.01389
65.1 -0.01919
65.15 -0.02078
65.2 -0.01906
65.25 -0.01191
65.3 -0.01016
65.35 -0.00516
65.4 0.00061
65.45 0.00632
65.5 0.01023
65.55 0.00857
65.6 0.00281
65.65 -0.00487
65.7 -0.00744
65.75 -0.01111
65.8 -0.01626
65.85 -0.02281
65.9 -0.02146
65.95 -0.02152
66 -0.01805
66.05 -0.01054
66.1 -0.0004
66.15 0.00324
66.2 0.002
66.25 -0.00078
66.3 -0.00502
66.35 -0.00252
66.4 0.0008
66.45 0.00296
66.5 0.00103
66.55 0.00125
66.6 0.00187
66.65 0.00353
66.7 0.00822
66.75 0.0075
66.8 0.00643
66.85 0.00116
66.9 -0.00091
66.95 0.00246
67 0.00544
67.05 0.00256
67.1 -0.003
67.15 -0.00343
67.2 -0.00616
67.25 -0.00541
67.3 -0.00777
67.35 -0.00555
67.4 0.00109
67.45 0.00684
67.5 0.00904
67.55 0.0095
67.6 0.00984
67.65 0.00751
67.7 0.001
67.75 -0.00511
67.8 -0.0097
67.85 -0.00864
67.9 -0.00727
67.95 -0.00298
68 0.0032
68.05 0.00822
68.1 0.01122
68.15 0.00818
68.2 0.00753
68.25 0.01071
68.3 0.00902
68.35 0.00553
68.4 -0.00038
68.45 -0.00805
68.5 -0.01198
68.55 -0.01278
68.6 -0.01161
68.65 -0.00912
68.7 -0.00459
68.75 0.00127
68.8 0.00269
68.85 0.00282
68.9 0.0029
68.95 -0.00029
69 -0.00634
69.05 -0.01155
69.1 -0.01679
69.15 -0.02072
69.2 -0.01836
69.25 -0.01525
69.3 -0.00795
69.35 -0.00277
69.4 -0.0031
69.45 0.00146
69.5 0.00632
69.55 0.01173
69.6 0.01311
69.65 0.00936
69.7 0.00751
69.75 0.00651
69.8 0.00748
69.85 0.00933
69.9 0.00551
69.95 -0.00134
70 -0.00654
70.05 -0.01063
70.1 -0.01242
70.15 -0.01499
70.2 -0.01514
70.25 -0.01246
70.3 -0.00747
70.35 -0.00068
70.4 0.00006
70.45 0.00123
70.5 0.00063
70.55 -0.00136
70.6 -0.0006
70.65 -0.00199
70.7 -0.00685
70.75 -0.00718
70.8 -0.00542
70.85 -0.00175
70.9 0.00177
70.95 0.00652
71 0.00713
71.05 0.00994
71.1 0.01203
71.15 0.01541
71.2 0.01561
71.25 0.01227
71.3 0.00851
71.35 0.00155
71.4 -0.00494
71.45 -0.00471
71.5 -0.0078
71.55 -0.01178
71.6 -0.01774
71.65 -0.0208
71.7 -0.02268
71.75 -0.02517
71.8 -0.02161
71.85 -0.02077
71.9 -0.01821
71.95 -0.01111
72 -0.00322
72.05 0.00109
72.1 0.00292
72.15 0.00615
72.2 0.00359
72.25 0.00072
72.3 0.0033
72.35 0.006
72.4 0.00716
72.45 0.00496
72.5 0.00424
72.55 0.00773
72.6 0.01222
72.65 0.01119
72.7 0.01329
72.75 0.01592
72.8 0.01448
72.85 0.01199
72.9 0.00482
72.95 0.00352
73 -0.00015
73.05 -0.00458
73.1 -0.0072
73.15 -0.00659
73.2 -0.00977
73.25 -0.00663
73.3 -0.00363
73.35 0.00089
73.4 0.00541
73.45 0.00433
73.5 -0.00072
73.55 -0.00719
73.6 -0.01374
73.65 -0.01632
73.7 -0.01171
73.75 -0.0097
73.8 -0.00732
73.85 -0.00447
73.9 -0.00392
73.95 -0.00117
74 0.00264
74.05 0.00939
74.1 0.00992
74.15 0.01183
74.2 0.00933
74.25 0.01054
74.3 0.00808
74.35 0.00986
74.4 0.00567
74.45 0.00705
74.5 0.00735
74.55 0.00285
74.6 -0.00195
74.65 -0.00346
74.7 -0.00328
74.75 -0.00514
74.8 -0.00203
74.85 0.00475
74.9 0.00677
74.95 0.00731
75 0.01163
75.05 0.01495
75.1 0.01846
75.15 0.02188
75.2 0.023
75.25 0.02166
75.3 0.02265
75.35 0.02215
75.4 0.01615
75.45 0.00844
75.5 0.00449
75.55 0.00517
75.6 0.00411
75.65 -0.00034
75.7 0.00024
75.75 -0.00002
75.8 -0.00191
75.85 0.00145
75.9 0.0078
75.95 0.01375
76 0.01137
76.05 0.00522
76.1 -0.00014
76.15 -0.00362
76.2 -0.00572
76.25 -0.00376
76.3 -0.0023
76.35 0.00031
76.4 0.00593
76.45 0.00689
76.5 0.00635
76.55 0.00164
76.6 -0.00529
76.65 -0.00549
76.7 -0.00615
76.75 -0.00611
76.8 -0.00425
76.85 -0.00477
76.9 -0.00911
76.95 -0.01329
77 -0.01689
77.05 -0.01632
77.1 -0.0143
77.15 -0.00763
77.2 -0.00052
77.25 0.00454
77.3 0.0048
77.35 0.0058
77.4 0.00845
77.45 0.01225
77.5 0.01325
77.55 0.0165
77.6 0.01296
77.65 0.01157
77.7 0.00732
77.75 0.00716
77.8 0.00408
77.85 0.00271
77.9 0.00058
77.95 0.00109
78 -0.00001
78.05 -0.00409
78.1 -0.01106
78.15 -0.0192
78.2 -0.02474
78.25 -0.02635
78.3 -0.02531
78.35 -0.01806
78.4 -0.01495
78.45 -0.01099
78.5 -0.0032
78.55 0.00501
78.6 0.00496
78.65 0.00461
78.7 0.00285
78.75 -0.00017
78.8 -0.00465
78.85 -0.00552
78.9 -0.00208
78.95 -0.00335
79 -0.00223
79.05 0.00052
79.1 -0.00058
79.15 -0.00603
79.2 -0.00679
79.25 -0.00663
79.3 -0.00751
79.35 -0.00437
79.4 -0.00388
79.45 -0.00696
79.5 -0.01083
79.55 -0.00975
79.6 -0.01054
79.65 -0.0129
79.7 -0.01105
79.75 -0.00568
79.8 0.00256
79.85 0.0033
79.9 0.00596
79.95 0.00829
80 0.01364
80.05 0.01837
80.1 0.02443
80.15 0.025
80.2 0.02664
80.25 0.02888
80.3 0.02395
80.35 0.01646
80.4 0.00997
80.45 0.00292
80.5 -0.00074
80.55 -0.00511
80.6 -0.00389
80.65 -0.00503
80.7 -0.0018
80.75 -0.00026
80.8 0.00132
80.85 -0.00085
80.9 0.00022
80.95 0.00411
81 0.00455
81.05 0.00095
81.1 0.00036
81.15 -0.00013
81.2 0.0015
81.25 0.00344
81.3 0.00832
81.35 0.00862
81.4 0.00689
81.45 0.00088
81.5 0.00101
81.55 0.00231
81.6 0.00626
81.65 0.00865
81.7 0.00523
81.75 -0.00168
81.8 -0.00361
81.85 -0.00654
81.9 -0.00753
81.95 -0.01119
82 -0.01672
82.05 -0.02001
82.1 -0.02395
82.15 -0.02365
82.2 -0.02378
82.25 -0.01756
82.3 -0.00895
82.35 0.00135
82.4 0.00394
82.45 0.00525
82.5 0.00887
82.55 0.01405
82.6 0.01478
82.65 0.01078
82.7 0.00765
82.75 0.00887
82.8 0.01011
82.85 0.01121
82.9 0.01324
82.95 0.01312
83 0.01557
83.05 0.0111
83.1 0.01093
83.15 0.00941
83.2 0.00489
83.25 0.00443
83.3 0.0063
83.35 0.00609
83.4 0.00646
83.45 0.00476
83.5 0.00257
83.55 -0.00324
83.6 -0.00338
83.65 -0.00723
83.7 -0.00817
83.75 -0.0103
83.8 -0.0133
83.85 -0.01332
83.9 -0.01039
83.95 -0.00905
84 -0.00606
84.05 -0.00322
84.1 -0.00019
84.15 0.00097
84.2 0.00594
84.25 0.00561
84.3 0.00904
84.35 0.01025
84.4 0.00867
84.45 0.00333
84.5 -0.00101
84.55 -0.00745
84.6 -0.00809
84.65 -0.00614
84.7 -0.00172
84.75 -0.00314
84.8 -0.00409
84.85 -0.00575
84.9 -0.00769
84.95 -0.01252
85 -0.01548
85.05 -0.01922
85.1 -0.02078
85.15 -0.01664
85.2 -0.01513
85.25 -0.01693
85.3 -0.01397
85.35 -0.01095
85.4 -0.00579
85.45 -0.00172
85.5 -0.00036
85.55 -0.00347
85.6 -0.00308
85.65 -0.00219
85.7 0.00036
85.75 0.00619
85.8 0.00492
85.85 0.00056
85.9 -0.00385
85.95 -0.00362
86 -0.00024
86.05 0.00363
86.1 0.0015
86.15 -0.00217
86.2 -0.00844
86.25 -0.00931
86.3 -0.00696
86.35 -0.00108
86.4 -0.00208
86.45 -0.00345
86.5 -0.00614
86.55 -0.00599
86.6 -0.00655
86.65 -0.00807
86.7 -0.0094
86.75 -0.0052
86.8 0.00201
86.85 0.00208
86.9 -0.00108
86.95 -0.00367
87 -0.00869
87.05 -0.00889
87.1 -0.01295
87.15 -0.01749
87.2 -0.02062
87.25 -0.02092
87.3 -0.02143
87.35 -0.02141
87.4 -0.01858
87.45 -0.01611
87.5 -0.01534
87.55 -0.01784
87.6 -0.01569
87.65 -0.01185
87.7 -0.01072
87.75 -0.01199
87.8 -0.00823
87.85 -0.00405
87.9 -0.00173
87.95 0.0043
88 0.00497
88.05 0.00891
88.1 0.01398
88.15 0.01173
88.2 0.01059
88.25 0.00462
88.3 -0.00298
88.35 -0.00391
88.4 -0.00071
88.45 0.00217
88.5 0.00532
88.55 0.01071
88.6 0.01419
88.65 0.0133
88.7 0.01329
88.75 0.00997
88.8 0.01027
88.85 0.00937
88.9 0.00828
88.95 0.01004
89 0.01489
89.05 0.01534
89.1 0.01606
89.15 0.01232
89.2 0.0062
89.25 0.00144
89.3 -0.00242
89.35 -0.00573
89.4 -0.00689
89.45 -0.00786
89.5 -0.01003
89.55 -0.00685
89.6 -0.00075
89.65 0.00141
89.7 -0.00091
89.75 0.00068
89.8 0.00434
89.85 0.00686
89.9 0.0042
89.95 0.00523
90 0.00344
90.05 -0.00141
90.1 -0.00867
90.15 -0.01675
90.2 -0.01752
90.25 -0.02013
90.3 -0.01748
90.35 -0.01594
90.4 -0.0092
90.45 0.00013
90.5 0.00216
90.55 -0.0012
90.6 -0.00575
90.65 -0.00541
90.7 -0.00534
90.75 -0.00735
90.8 -0.00627
90.85 -0.00207
90.9 -0.00166
90.95 -0.00359
91 -0.00878
91.05 -0.0099
91.1 -0.00703
91.15 -0.00124
91.2 0.00683
91.25 0.01409
91.3 0.01612
91.35 0.02067
91.4 0.01928
91.45 0.02081
91.5 0.02218
91.55 0.02213
91.6 0.01953
91.65 0.01668
91.7 0.01229
91.75 0.0088
91.8 0.0077
91.85 0.01096
91.9 0.00862
91.95 0.01075
92 0.0155
92.05 0.01606
92.1 0.01929
92.15 0.01731
92.2 0.01667
92.25 0.01819
92.3 0.02144
92.35 0.02112
92.4 0.0205
92.45 0.02274
92.5 0.01751
92.55 0.01142
92.6 0.00195
92.65 -0.00569
92.7 -0.00681
92.75 -0.00283
92.8 -0.00376
92.85 -0.00816
92.9 -0.01483
92.95 -0.01501
93 -0.01776
93.05 -0.01683
93.1 -0.01573
93.15 -0.01322
93.2 -0.00718
93.25 -0.00466
93.3 0.00102
93.35 0.00482
93.4 0.00676
93.45 0.00862
93.5 0.00519
93.55 0.00465
93.6 0.00045
93.65 -0.00549
93.7 -0.00885
93.75 -0.01367
93.8 -0.01906
93.85 -0.01758
93.9 -0.01854
93.95 -0.01818
94 -0.01768
94.05 -0.01636
94.1 -0.01039
94.15 -0.00313
94.2 0.00586
94.25 0.01014
94.3 0.01556
94.35 0.01902
94.4 0.01768
94.45 0.01496
94.5 0.00723
94.55 -0.00085
94.6 -0.00976
94.65 -0.01842
94.7 -0.02207
94.75 -0.02577
94.8 -0.02401
94.85 -0.01954
94.9 -0.0127
94.95 -0.00731
95 -0.00626
95.05 -0.00644
95.1 -0.00173
95.15 0.00508
95.2 0.01042
95.25 0.01476
95.3 0.0196
95.35 0.02046
95.4 0.01938
95.45 0.01977
95.5 0.02232
95.55 0.02537
95.6 0.02088
95.65 0.0126
95.7 0.00779
95.75 0.00581
95.8 0.00497
95.85 0.00052
95.9 -0.00332
95.95 -0.00375
96 -0.00328
96.05 -0.00712
96.1 -0.01346
96.15 -0.02053
96.2 -0.01892
96.25 -0.01383
96.3 -0.0054
96.35 -0.00086
96.4 0.00287
96.45 0.00339
96.5 0.00419
96.55 0.00614
96.6 0.01059
96.65 0.0129
96.7 0.01291
96.75 0.00877
96.8 0.00345
96.85 0.00117
96.9 -0.00232
96.95 -0.0091
97 -0.01156
97.05 -0.01231
97.1 -0.01431
97.15 -0.01224
97.2 -0.0063
97.25 -0.0061
97.3 -0.0067
97.35 -0.00907
97.4 -0.00745
97.45 -0.00994
97.5 -0.0081
97.55 -0.00196
97.6 -0.00197
97.65 -0.00576
97.7 -0.01009
97.75 -0.00837
97.8 -0.00452
97.85 0.00244
97.9 0.00414
97.95 0.00653
98 0.00478
98.05 0.00072
98.1 -0.00005
98.15 -0.00137
98.2 0.00213
98.25 0.00766
98.3 0.00627
98.35 0.00225
98.4 -0.00492
98.45 -0.00571
98.5 -0.00702
98.55 -0.00908
98.6 -0.00723
98.65 -0.00114
98.7 -0.00048
98.75 -0.0048
98.8 -0.01202
98.85 -0.01553
98.9 -0.01311
98.95 -0.00656
99 -0.00415
99.05 -0.00461
99.1 -0.00533
99.15 -0.00971
99.2 -0.00815
99.25 -0.01054
99.3 -0.01159
99.35 -0.00789
99.4 -0.00177
99.45 0.00333
99.5 0.00284
99.55 -0.00146
99.6 0.00057
99.65 0.00355
99.7 0.00223
99.75 -0.00248
99.8 -0.00265
99.85 -0.00426
99.9 -0.0029
99.95 0.00029
