0 0
0.05 0.00535
0.1 0.01553
0.15 0.02396
0.2 0.03442
0.25 0.04438
0.3 0.05388
0.35 0.05745
0.4 0.06265
0.45 0.06058
0.5 0.06115
0.55 0.06475
0.6 0.06603
0.65 0.06071
0.7 0.05504
0.75 0.05487
0.8 0.05023
0.85 0.04653
0.9 0.03991
0.95 0.03424
1 0.02717
1.05 0.02509
1.1 0.02519
1.15 0.023
1.2 0.02244
1.25 0.023
1.3 0.02664
1.35 0.03124
1.4 0.03221
1.45 0.03793
1.5 0.04323
1.55 0.04932
1.6 0.05391
1.65 0.05252
1.7 0.05045
1.75 0.05118
1.8 0.04926
1.85 0.04623
1.9 0.04803
1.95 0.04944
2 0.04515
2.05 0.03947
2.1 0.03371
2.15 0.02563
2.2 0.02167
2.25 0.01898
2.3 0.01405
2.35 0.00788
2.4 0.00882
2.45 0.01387
2.5 0.01688
2.55 0.01603
2.6 0.01303
2.65 0.009
2.7 0.00541
2.75 0.00338
2.8 0.00401
2.85 0.00587
2.9 0.01175
2.95 0.01972
3 0.02182
3.05 0.02292
3.1 0.02542
3.15 0.02768
3.2 0.03322
3.25 0.03978
3.3 0.0468
3.35 0.04787
3.4 0.04766
3.45 0.04297
3.5 0.04172
3.55 0.03594
3.6 0.03135
3.65 0.02511
3.7 0.01755
3.75 0.01313
3.8 0.0094
3.85 0.0033
3.9 -0.00173
3.95 -0.0018
4 -0.00226
4.05 0.00092
4.1 0.00049
4.15 0.00344
4.2 0.0064
4.25 0.0068
4.3 0.00173
4.35 -0.00344
4.4 -0.00757
4.45 -0.01315
4.5 -0.02126
4.55 -0.03182
4.6 -0.04479
4.65 -0.06049
4.7 -0.07418
4.75 -0.08725
4.8 -0.10581
4.85 -0.13184
4.9 -0.15623
4.95 -0.18282
5 -0.21619
5.05 -0.25483
5.1 -0.29846
5.15 -0.35198
5.2 -0.40917
5.25 -0.46798
5.3 -0.53012
5.35 -0.59892
5.4 -0.66676
5.45 -0.73529
5.5 -0.8055
5.55 -0.88237
5.6 -0.95987
5.65 -1.03531
5.7 -1.11416
5.75 -1.19253
5.8 -1.25961
5.85 -1.3201
5.9 -1.37044
5.95 -1.41785
6 -1.45704
6.05 -1.49255
6.1 -1.52125
6.15 -1.54271
6.2 -1.55769
6.25 -1.56109
6.3 -1.55603
6.35 -1.54201
6.4 -1.5236
6.45 -1.49388
6.5 -1.45845
6.55 -1.42301
6.6 -1.38071
6.65 -1.3275
6.7 -1.26655
6.75 -1.19903
6.8 -1.12249
6.85 -1.04349
6.9 -0.95614
6.95 -0.86294
7 -0.76256
7.05 -0.65289
7.1 -0.53427
7.15 -0.4146
7.2 -0.28998
7.25 -0.15707
7.3 -0.02347
7.35 0.10576
7.4 0.23453
7.45 0.36611
7.5 0.49466
7.55 0.61157
7.6 0.72449
7.65 0.83151
7.7 0.93182
7.75 1.02123
7.8 1.09914
7.85 1.17064
7.9 1.22771
7.95 1.27813
8 1.31693
8.05 1.35088
8.1 1.37726
8.15 1.39968
8.2 1.41277
8.25 1.41473
8.3 1.40783
8.35 1.40067
8.4 1.39141
8.45 1.38201
8.5 1.36804
8.55 1.34738
8.6 1.3291
8.65 1.3065
8.7 1.28181
8.75 1.25846
8.8 1.23721
8.85 1.21619
8.9 1.18921
8.95 1.16363
9 1.14308
9.05 1.12151
9.1 1.10422
9.15 1.08036
9.2 1.06105
9.25 1.04065
9.3 1.02409
9.35 1.00751
9.4 0.98735
9.45 0.96291
9.5 0.94127
9.55 0.91689
9.6 0.89501
9.65 0.87855
9.7 0.86091
9.75 0.83988
9.8 0.81958
9.85 0.79828
9.9 0.7825
9.95 0.76961
10 0.75236
10.05 0.73924
10.1 0.72064
10.15 0.69835
10.2 0.68157
10.25 0.66181
10.3 0.64378
10.35 0.62909
10.4 0.60848
10.45 0.58771
10.5 0.57028
10.55 0.54601
10.6 0.51866
10.65 0.49294
10.7 0.46578
10.75 0.43953
10.8 0.41128
10.85 0.38616
10.9 0.36411
10.95 0.34611
11 0.3283
11.05 0.30364
11.1 0.28067
11.15 0.25362
11.2 0.22532
11.25 0.19767
11.3 0.16809
11.35 0.1406
11.4 0.11366
11.45 0.09224
11.5 0.07417
11.55 0.06072
11.6 0.0441
11.65 0.02716
11.7 0.01076
11.75 -0.00251
11.8 -0.01688
11.85 -0.02764
11.9 -0.04063
11.95 -0.05701
12 -0.07404
12.05 -0.09296
12.1 -0.1063
12.15 -0.12084
12.2 -0.13526
12.25 -0.14887
12.3 -0.15663
12.35 -0.16628
12.4 -0.17637
12.45 -0.18699
12.5 -0.19627
12.55 -0.20135
12.6 -0.20723
12.65 -0.2069
12.7 -0.20764
12.75 -0.20639
12.8 -0.20382
12.85 -0.20506
12.9 -0.20323
12.95 -0.20544
13 -0.20645
13.05 -0.20626
13.1 -0.20453
13.15 -0.20801
13.2 -0.21103
13.25 -0.20988
13.3 -0.209
13.35 -0.21204
13.4 -0.21727
13.45 -0.22086
13.5 -0.22103
13.55 -0.21914
13.6 -0.21976
13.65 -0.21808
13.7 -0.21471
13.75 -0.21117
13.8 -0.21201
13.85 -0.21184
13.9 -0.20629
13.95 -0.19945
14 -0.19432
14.05 -0.19014
14.1 -0.1867
14.15 -0.1877
14.2 -0.19089
14.25 -0.18887
14.3 -0.19052
14.35 -0.18716
14.4 -0.18603
14.45 -0.18371
14.5 -0.17649
14.55 -0.17399
14.6 -0.16891
14.65 -0.16287
14.7 -0.15678
14.75 -0.1523
14.8 -0.15225
14.85 -0.15274
14.9 -0.14948
14.95 -0.14336
15 -0.13533
15.05 -0.13393
15.1 -0.12951
15.15 -0.12722
15.2 -0.13091
15.25 -0.12918
15.3 -0.13229
15.35 -0.13519
15.4 -0.13857
15.45 -0.14198
15.5 -0.14532
15.55 -0.14793
15.6 -0.14957
15.65 -0.14405
15.7 -0.13541
15.75 -0.12763
15.8 -0.12017
15.85 -0.11424
15.9 -0.11262
15.95 -0.11129
16 -0.10916
16.05 -0.10286
16.1 -0.10103
16.15 -0.09659
16.2 -0.09382
16.25 -0.09449
16.3 -0.09263
16.35 -0.09606
16.4 -0.09599
16.45 -0.09373
16.5 -0.09528
16.55 -0.09656
16.6 -0.09577
16.65 -0.091
16.7 -0.08676
16.75 -0.08503
16.8 -0.08259
16.85 -0.08523
16.9 -0.08231
16.95 -0.07669
17 -0.06997
17.05 -0.06875
17.1 -0.0727
17.15 -0.07414
17.2 -0.07258
17.25 -0.06892
17.3 -0.06672
17.35 -0.06547
17.4 -0.06312
17.45 -0.06266
17.5 -0.06668
17.55 -0.06516
17.6 -0.06146
17.65 -0.06043
17.7 -0.06447
17.75 -0.07148
17.8 -0.07791
17.85 -0.08078
17.9 -0.07897
17.95 -0.07986
18 -0.07483
18.05 -0.06873
18.1 -0.05923
18.15 -0.04992
18.2 -0.04128
18.25 -0.0397
18.3 -0.04067
18.35 -0.04497
18.4 -0.04836
18.45 -0.04899
18.5 -0.04578
18.55 -0.04427
18.6 -0.04256
18.65 -0.0386
18.7 -0.03882
18.75 -0.04127
18.8 -0.04672
18.85 -0.05217
18.9 -0.05202
18.95 -0.05256
19 -0.04841
19.05 -0.04604
19.1 -0.0486
19.15 -0.04764
19.2 -0.04195
19.25 -0.03423
19.3 -0.03465
19.35 -0.03322
19.4 -0.0333
19.45 -0.03749
19.5 -0.03844
19.55 -0.04176
19.6 -0.04154
19.65 -0.04141
19.7 -0.04304
19.75 -0.04576
19.8 -0.0504
19.85 -0.05326
19.9 -0.05098
19.95 -0.04813
20 -0.04717
20.05 -0.04253
20.1 -0.03791
20.15 -0.03805
20.2 -0.0411
20.25 -0.04303
20.3 -0.0473
20.35 -0.04842
20.4 -0.04604
20.45 -0.0407
20.5 -0.03881
20.55 -0.03758
20.6 -0.03387
20.65 -0.03366
20.7 -0.03523
20.75 -0.03825
20.8 -0.04151
20.85 -0.03755
20.9 -0.0292
20.95 -0.02067
21 -0.0139
21.05 -0.01204
21.1 -0.008
21.15 -0.00634
21.2 -0.01116
21.25 -0.01225
21.3 -0.01747
21.35 -0.02546
21.4 -0.02607
21.45 -0.02163
21.5 -0.01545
21.55 -0.01527
21.6 -0.01673
21.65 -0.02217
21.7 -0.0227
21.75 -0.02464
21.8 -0.02451
21.85 -0.02615
21.9 -0.02194
21.95 -0.02016
22 -0.02309
22.05 -0.02437
22.1 -0.02249
22.15 -0.0218
22.2 -0.02083
22.25 -0.01715
22.3 -0.01362
22.35 -0.01387
22.4 -0.00954
22.45 -0.00796
22.5 -0.00439
22.55 -0.00033
22.6 0.00328
22.65 0.00252
22.7 -0.00194
22.75 -0.01043
22.8 -0.01382
22.85 -0.01815
22.9 -0.02312
22.95 -0.02346
23 -0.02432
23.05 -0.02762
23.1 -0.02976
23.15 -0.03428
23.2 -0.03154
23.25 -0.02624
23.3 -0.01742
23.35 -0.00922
23.4 -0.00565
23.45 -0.00485
23.5 -0.00407
23.55 0.00039
23.6 0.00223
23.65 -0.00079
23.7 -0.00742
23.75 -0.01131
23.8 -0.01128
23.85 -0.01308
23.9 -0.01773
23.95 -0.02168
24 -0.02261
24.05 -0.02564
24.1 -0.0257
24.15 -0.02702
24.2 -0.03023
24.25 -0.02813
24.3 -0.02483
24.35 -0.01859
24.4 -0.01639
24.45 -0.01617
24.5 -0.01872
24.55 -0.01829
24.6 -0.01408
24.65 -0.00595
24.7 -0.00173
24.75 -0.0001
24.8 0.00365
24.85 0.00606
24.9 0.011
24.95 0.01762
25 0.01896
25.05 0.02248
25.1 0.02678
25.15 0.02251
25.2 0.01651
25.25 0.01461
25.3 0.01196
25.35 0.00882
25.4 0.00387
25.45 -0.00436
25.5 -0.01298
25.55 -0.01715
25.6 -0.01433
25.65 -0.01179
25.7 -0.00829
25.75 -0.00254
25.8 0.00341
25.85 0.00756
25.9 0.0103
25.95 0.01062
26 0.0121
26.05 0.01545
26.1 0.01223
26.15 0.00824
26.2 0.00017
26.25 -0.00701
26.3 -0.01217
26.35 -0.0196
26.4 -0.02329
26.45 -0.02454
26.5 -0.02725
26.55 -0.02489
26.6 -0.02396
26.65 -0.0215
26.7 -0.01654
26.75 -0.01473
26.8 -0.00987
26.85 -0.01069
26.9 -0.01134
26.95 -0.00959
27 -0.01046
27.05 -0.00768
27.1 -0.00599
27.15 -0.00514
27.2 -0.00895
27.25 -0.01022
27.3 -0.00732
27.35 -0.0063
27.4 -0.01016
27.45 -0.01374
27.5 -0.01914
27.55 -0.02326
27.6 -0.02275
27.65 -0.02402
27.7 -0.02
27.75 -0.01759
27.8 -0.01613
27.85 -0.01635
27.9 -0.01518
27.95 -0.0123
28 -0.01624
28.05 -0.02094
28.1 -0.02758
28.15 -0.03407
28.2 -0.04723
28.25 -0.05656
28.3 -0.07254
28.35 -0.08859
28.4 -0.10312
28.45 -0.12405
28.5 -0.14595
28.55 -0.16586
28.6 -0.18829
28.65 -0.2165
28.7 -0.24293
28.75 -0.27403
28.8 -0.30748
28.85 -0.34841
28.9 -0.38762
28.95 -0.43143
29 -0.47382
29.05 -0.52273
29.1 -0.56987
29.15 -0.61741
29.2 -0.67233
29.25 -0.7271
29.3 -0.78814
29.35 -0.85057
29.4 -0.90912
29.45 -0.96884
29.5 -1.03052
29.55 -1.09197
29.6 -1.15013
29.65 -1.19982
29.7 -1.24456
29.75 -1.28219
29.8 -1.30897
29.85 -1.32423
29.9 -1.33702
29.95 -1.3407
30 -1.33259
30.05 -1.31901
30.1 -1.29683
30.15 -1.26608
30.2 -1.2322
30.25 -1.18895
30.3 -1.13715
30.35 -1.07593
30.4 -1.00325
30.45 -0.92262
30.5 -0.83882
30.55 -0.75472
30.6 -0.66786
30.65 -0.57266
30.7 -0.47383
30.75 -0.37274
30.8 -0.27558
30.85 -0.17827
30.9 -0.08033
30.95 0.01254
31 0.10439
31.05 0.19106
31.1 0.27566
31.15 0.36128
31.2 0.44454
31.25 0.5189
31.3 0.58851
31.35 0.6551
31.4 0.7182
31.45 0.76918
31.5 0.81079
31.55 0.84852
31.6 0.87898
31.65 0.90713
31.7 0.93339
31.75 0.95734
31.8 0.98089
31.85 1.00546
31.9 1.02412
31.95 1.0392
32 1.05318
32.05 1.0613
32.1 1.06129
32.15 1.05941
32.2 1.06028
32.25 1.06248
32.3 1.05816
32.35 1.0481
32.4 1.04102
32.45 1.03764
32.5 1.03399
32.55 1.03236
32.6 1.02845
32.65 1.01946
32.7 1.01016
32.75 0.99896
32.8 0.98636
32.85 0.96694
32.9 0.94665
32.95 0.92496
33 0.90182
33.05 0.87949
33.1 0.85799
33.15 0.84085
33.2 0.82625
33.25 0.80923
33.3 0.78962
33.35 0.76597
33.4 0.74192
33.45 0.72371
33.5 0.70718
33.55 0.69221
33.6 0.67809
33.65 0.66232
33.7 0.64246
33.75 0.61711
33.8 0.58915
33.85 0.56307
33.9 0.53619
33.95 0.50737
34 0.48342
34.05 0.46459
34.1 0.44161
34.15 0.41958
34.2 0.39776
34.25 0.38004
34.3 0.35943
34.35 0.34033
34.4 0.32628
34.45 0.3142
34.5 0.29583
34.55 0.27378
34.6 0.24848
34.65 0.22716
34.7 0.2059
34.75 0.18969
34.8 0.17869
34.85 0.16728
34.9 0.15258
34.95 0.13375
35 0.11643
35.05 0.10335
35.1 0.08836
35.15 0.07478
35.2 0.06393
35.25 0.05594
35.3 0.04162
35.35 0.0303
35.4 0.02051
35.45 0.01023
35.5 -0.00164
35.55 -0.01213
35.6 -0.02481
35.65 -0.03622
35.7 -0.04882
35.75 -0.05946
35.8 -0.06613
35.85 -0.07395
35.9 -0.07712
35.95 -0.08437
36 -0.08828
36.05 -0.09389
36.1 -0.09741
36.15 -0.09865
36.2 -0.10401
36.25 -0.10615
36.3 -0.11122
36.35 -0.11325
36.4 -0.12161
36.45 -0.12746
36.5 -0.13596
36.55 -0.14369
36.6 -0.15008
36.65 -0.15188
36.7 -0.15479
36.75 -0.15386
36.8 -0.1507
36.85 -0.1467
36.9 -0.1437
36.95 -0.14089
37 -0.13691
37.05 -0.1344
37.1 -0.13821
37.15 -0.14737
37.2 -0.15609
37.25 -0.16648
37.3 -0.17598
37.35 -0.17825
37.4 -0.1752
37.45 -0.16975
37.5 -0.16713
37.55 -0.16233
37.6 -0.15662
37.65 -0.15106
37.7 -0.14478
37.75 -0.14611
37.8 -0.14735
37.85 -0.1476
37.9 -0.15035
37.95 -0.14905
38 -0.14598
38.05 -0.14047
38.1 -0.13509
38.15 -0.13692
38.2 -0.14284
38.25 -0.14606
38.3 -0.14783
38.35 -0.14918
38.4 -0.14649
38.45 -0.14202
38.5 -0.13406
38.55 -0.1299
38.6 -0.13113
38.65 -0.13197
38.7 -0.12785
38.75 -0.12194
38.8 -0.11676
38.85 -0.11497
38.9 -0.11768
38.95 -0.11608
39 -0.11936
39.05 -0.12388
39.1 -0.13031
39.15 -0.13366
39.2 -0.12977
39.25 -0.12099
39.3 -0.11624
39.35 -0.11512
39.4 -0.11708
39.45 -0.11517
39.5 -0.10845
39.55 -0.10704
39.6 -0.1011
39.65 -0.09779
39.7 -0.0989
39.75 -0.10309
39.8 -0.10821
39.85 -0.10515
39.9 -0.0986
39.95 -0.09116
40 -0.08152
40.05 -0.07728
40.1 -0.07733
40.15 -0.07846
40.2 -0.07632
40.25 -0.07385
40.3 -0.07288
40.35 -0.07744
40.4 -0.07951
40.45 -0.08422
40.5 -0.08926
40.55 -0.09424
40.6 -0.09494
40.65 -0.09136
40.7 -0.09104
40.75 -0.08785
40.8 -0.08072
40.85 -0.07608
40.9 -0.06992
40.95 -0.06852
41 -0.06441
41.05 -0.06246
41.1 -0.06117
41.15 -0.06383
41.2 -0.06388
41.25 -0.06292
41.3 -0.06205
41.35 -0.05903
41.4 -0.05395
41.45 -0.05139
41.5 -0.04703
41.55 -0.04598
41.6 -0.04567
41.65 -0.04173
41.7 -0.04209
41.75 -0.04012
41.8 -0.04042
41.85 -0.04476
41.9 -0.04679
41.95 -0.04739
42 -0.04746
42.05 -0.04786
42.1 -0.05228
42.15 -0.05442
42.2 -0.05111
42.25 -0.05104
42.3 -0.04656
42.35 -0.04287
42.4 -0.04077
42.45 -0.03512
42.5 -0.03589
42.55 -0.03496
42.6 -0.03121
42.65 -0.0278
42.7 -0.02818
42.75 -0.02902
42.8 -0.03048
42.85 -0.02882
42.9 -0.03307
42.95 -0.03265
43 -0.03308
43.05 -0.03733
43.1 -0.03561
43.15 -0.03376
43.2 -0.03276
43.25 -0.03357
43.3 -0.03057
43.35 -0.02929
43.4 -0.0271
43.45 -0.0248
43.5 -0.02085
43.55 -0.01775
43.6 -0.01959
43.65 -0.01868
43.7 -0.01551
43.75 -0.01706
43.8 -0.01713
43.85 -0.02267
43.9 -0.02415
43.95 -0.0237
44 -0.0268
44.05 -0.02861
44.1 -0.03201
44.15 -0.0291
44.2 -0.02346
44.25 -0.01743
44.3 -0.01067
44.35 -0.01034
44.4 -0.00792
44.45 -0.00999
44.5 -0.0109
44.55 -0.01448
44.6 -0.02034
44.65 -0.02707
44.7 -0.03165
44.75 -0.03247
44.8 -0.02987
44.85 -0.02552
44.9 -0.02316
44.95 -0.01925
45 -0.01224
45.05 -0.00396
45.1 0.0014
45.15 0.00735
45.2 0.00605
45.25 0.00539
45.3 0.00302
45.35 -0.00377
45.4 -0.00748
45.45 -0.0123
45.5 -0.01879
45.55 -0.02248
45.6 -0.02589
45.65 -0.03185
45.7 -0.03842
45.75 -0.03659
45.8 -0.0359
45.85 -0.03569
45.9 -0.03433
45.95 -0.03182
46 -0.03312
46.05 -0.03649
46.1 -0.03334
46.15 -0.03436
46.2 -0.03319
46.25 -0.03312
46.3 -0.02745
46.35 -0.02324
46.4 -0.024
46.45 -0.02394
46.5 -0.02154
46.55 -0.02283
46.6 -0.01814
46.65 -0.01136
46.7 -0.00908
46.75 -0.0054
46.8 0.00039
46.85 0.00144
46.9 -0.00352
46.95 -0.00931
47 -0.01733
47.05 -0.02342
47.1 -0.02892
47.15 -0.02618
47.2 -0.01834
47.25 -0.01546
47.3 -0.01053
47.35 -0.0088
47.4 -0.00571
47.45 -0.00452
47.5 -0.0042
47.55 -0.0037
47.6 -0.00102
47.65 -0.0001
47.7 0.00066
47.75 0.00229
47.8 -0.00194
47.85 -0.00505
47.9 -0.00878
47.95 -0.01553
48 -0.02084
48.05 -0.02386
48.1 -0.02691
48.15 -0.02253
48.2 -0.02298
48.25 -0.02228
48.3 -0.02344
48.35 -0.02067
48.4 -0.01758
48.45 -0.01491
48.5 -0.01576
48.55 -0.01855
48.6 -0.01682
48.65 -0.01883
48.7 -0.01618
48.75 -0.01533
48.8 -0.01336
48.85 -0.01475
48.9 -0.01822
48.95 -0.02176
49 -0.02627
49.05 -0.02905
49.1 -0.02561
49.15 -0.01692
49.2 -0.00648
49.25 0.0038
49.3 0.01181
49.35 0.01661
49.4 0.02141
49.45 0.0253
49.5 0.0233
49.55 0.02207
49.6 0.01626
49.65 0.00947
49.7 0.00087
49.75 -0.00182
49.8 -0.00515
49.85 -0.00418
49.9 -0.00573
49.95 -0.00786
50 -0.00903
50.05 -0.00627
50.1 -0.00443
50.15 -0.00506
50.2 -0.00564
50.25 -0.00949
50.3 -0.00778
50.35 -0.01023
50.4 -0.01351
50.45 -0.01391
50.5 -0.01259
50.55 -0.00761
50.6 -0.00455
50.65 -0.00008
50.7 0.00188
50.75 0.00529
50.8 0.00522
50.85 0.00025
50.9 -0.00288
50.95 -0.00386
51 -0.002
51.05 -0.0004
51.1 -0.00114
51.15 -0.00369
51.2 -0.00217
51.25 -0.001
51.3 0.00422
51.35 0.00803
51.4 0.00622
51.45 0.00812
51.5 0.00475
51.55 0.00229
51.6 -0.00304
51.65 -0.00462
51.7 -0.00505
51.75 -0.00195
51.8 0.00084
51.85 -0.00149
51.9 -0.00338
51.95 -0.00048
52 0.00081
52.05 -0.00227
52.1 0.00016
52.15 0.00211
52.2 0.00344
52.25 0.00222
52.3 0.00017
52.35 -0.00095
52.4 -0.00173
52.45 -0.00557
52.5 -0.00646
52.55 -0.00578
52.6 -0.00038
52.65 -0.0013
52.7 0.00206
52.75 0.00306
52.8 0.00712
52.85 0.01117
52.9 0.01227
52.95 0.01103
53 0.00538
53.05 -0.00016
53.1 -0.00348
53.15 -0.00839
53.2 -0.01055
53.25 -0.0131
53.3 -0.01629
53.35 -0.01717
53.4 -0.01679
53.45 -0.0139
53.5 -0.00736
53.55 -0.00226
53.6 -0.00045
53.65 0.00347
53.7 0.01002
53.75 0.01011
53.8 0.00578
53.85 0.00275
53.9 -0.00409
53.95 -0.00423
54 -0.0027
54.05 -0.00433
54.1 -0.00074
54.15 0.00621
54.2 0.0065
54.25 0.00182
54.3 -0.00423
54.35 -0.00787
54.4 -0.0137
54.45 -0.0166
54.5 -0.01683
54.55 -0.01671
54.6 -0.01924
54.65 -0.02058
54.7 -0.02078
54.75 -0.01892
54.8 -0.01552
54.85 -0.01339
54.9 -0.00994
54.95 -0.00352
55 0.00485
55.05 0.00978
55.1 0.01164
55.15 0.00939
55.2 0.01036
55.25 0.01386
55.3 0.01515
55.35 0.01363
55.4 0.00859
55.45 0.00153
55.5 -0.0062
55.55 -0.01381
55.6 -0.01644
55.65 -0.01724
55.7 -0.02027
55.75 -0.01951
55.8 -0.01992
55.85 -0.01903
55.9 -0.01813
55.95 -0.01533
56 -0.01348
56.05 -0.0127
56.1 -0.01271
56.15 -0.00912
56.2 -0.01012
56.25 -0.00881
56.3 -0.0067
56.35 -0.00814
56.4 -0.01035
56.45 -0.00904
56.5 -0.00579
56.55 -0.00119
56.6 -0.00261
56.65 0.00124
56.7 0.00171
56.75 0.00072
56.8 0.00274
56.85 0.00856
56.9 0.01251
56.95 0.01503
57 0.01559
57.05 0.01166
57.1 0.00402
57.15 -0.00439
57.2 -0.00592
57.25 -0.00568
57.3 -0.00196
57.35 0.00196
57.4 0.00098
57.45 -0.00157
57.5 0.00168
57.55 0.00407
57.6 0.00073
57.65 0.00044
57.7 0.00119
57.75 -0.00046
57.8 -0.0028
57.85 -0.00229
57.9 -0.00459
57.95 -0.00413
58 -0.00294
58.05 -0.00426
58.1 -0.00309
58.15 0.00056
58.2 -0.00079
58.25 -0.00164
58.3 -0.00279
58.35 -0.00564
58.4 -0.00859
58.45 -0.01208
58.5 -0.01682
58.55 -0.01476
58.6 -0.01181
58.65 -0.0089
58.7 -0.01075
58.75 -0.01111
58.8 -0.00897
58.85 -0.00759
58.9 -0.00139
58.95 -0.00098
59 -0.0028
59.05 -0.00627
59.1 -0.00417
59.15 -0.00034
59.2 0.00309
59.25 0.00688
59.3 0.00747
59.35 0.01161
59.4 0.0093
59.45 0.0093
59.5 0.00815
59.55 0.00712
59.6 0.01033
59.65 0.01162
59.7 0.0121
59.75 0.0136
59.8 0.00963
59.85 0.00799
59.9 0.00282
59.95 -0.00246
60 -0.00346
60.05 -0.00807
60.1 -0.01136
60.15 -0.01478
60.2 -0.01605
60.25 -0.01681
60.3 -0.0128
60.35 -0.00507
60.4 0.00111
60.45 0.00816
60.5 0.01205
60.55 0.01201
60.6 0.00955
60.65 0.01003
60.7 0.01404
60.75 0.01483
60.8 0.01092
60.85 0.00598
60.9 0.00466
60.95 0.00566
61 0.00897
61.05 0.00723
61.1 0.00093
61.15 -0.0075
61.2 -0.00906
61.25 -0.00686
61.3 -0.00376
61.35 -0.00337
61.4 0.00121
61.45 0.0024
61.5 0.00393
61.55 0.00364
61.6 -0.00051
61.65 -0.00083
61.7 -0.00153
61.75 -0.00409
61.8 -0.0047
61.85 -0.00248
61.9 0.00327
61.95 0.00295
62 0.00119
62.05 0.00299
62.1 0.00644
62.15 0.01148
62.2 0.01586
62.25 0.01654
62.3 0.01652
62.35 0.01222
62.4 0.00385
62.45 -0.00593
62.5 -0.01495
62.55 -0.01594
62.6 -0.01318
62.65 -0.00595
62.7 -0.00226
62.75 0.0017
62.8 0.00583
62.85 0.01267
62.9 0.01528
62.95 0.01857
63 0.01789
63.05 0.02015
63.1 0.02156
63.15 0.01963
63.2 0.0196
63.25 0.0195
63.3 0.02126
63.35 0.02183
63.4 0.02302
63.45 0.01707
63.5 0.0098
63.55 0.00359
63.6 0.00114
63.65 0.00257
63.7 -0.00058
63.75 -0.00355
63.8 -0.00373
63.85 -0.00535
63.9 -0.00186
63.95 0.0029
64 0.00394
64.05 0.00231
64.1 0.00227
64.15 -0.00166
64.2 -0.0044
64.25 -0.00382
64.3 0.00011
64.35 0.00207
64.4 0.00568
64.45 0.01071
64.5 0.00877
64.55 0.00938
64.6 0.00502
64.65 -0.00035
64.7 -0.00821
64.75 -0.01651
64.8 -0.01918
64.85 -0.01831
64.9 -0.01305
64.95 -0.00966
65 -0.00596
65.05 -0.0073
65.1 -0.01026
65.15 -0.01388
65.2 -0.01344
65.25 -0.01158
65.3 -0.00707
65.35 -0.00488
65.4 -0.00755
65.45 -0.00515
65.5 -0.00053
65.55 0.00468
65.6 0.0058
65.65 0.0061
65.7 0.0061
65.75 0.00623
65.8 0.00114
65.85 -0.0019
65.9 -0.00393
65.95 -0.00846
66 -0.01485
66.05 -0.0137
66.1 -0.01088
66.15 -0.01271
66.2 -0.00887
66.25 -0.00667
66.3 -0.00408
66.35 -0.00393
66.4 -0.00134
66.45 -0.00228
66.5 -0.00438
66.55 -0.00945
66.6 -0.00738
66.65 -0.00676
66.7 -0.00601
66.75 -0.00807
66.8 -0.01281
66.85 -0.01423
66.9 -0.01194
66.95 -0.01221
67 -0.0145
67.05 -0.01016
67.1 -0.00724
67.15 -0.00762
67.2 -0.00789
67.25 -0.00986
67.3 -0.01205
67.35 -0.01412
67.4 -0.01831
67.45 -0.01795
67.5 -0.01659
67.55 -0.01139
67.6 -0.01009
67.65 -0.01194
67.7 -0.01055
67.75 -0.00684
67.8 -0.00657
67.85 -0.00458
67.9 0.00023
67.95 0.00023
68 -0.00163
68.05 0.00076
68.1 0.00294
68.15 0.00097
68.2 0.00308
68.25 0.00363
68.3 0.00616
68.35 0.01173
68.4 0.01175
68.45 0.01133
68.5 0.00738
68.55 0.00308
68.6 0.00491
68.65 0.01053
68.7 0.01738
68.75 0.02252
68.8 0.02813
68.85 0.03056
68.9 0.03111
68.95 0.03073
69 0.02394
69.05 0.01807
69.1 0.01078
69.15 0.00396
69.2 0.00253
69.25 0.0014
69.3 -0.0007
69.35 0.00006
69.4 0.00311
69.45 0.00004
69.5 0.00215
69.55 0.00548
69.6 0.01051
69.65 0.01344
69.7 0.0172
69.75 0.02225
69.8 0.02418
69.85 0.02414
69.9 0.01943
69.95 0.01114
70 0.00902
70.05 0.00871
70.1 0.0047
70.15 -0.00043
70.2 -0.00431
70.25 -0.00456
70.3 -0.00357
70.35 -0.00147
70.4 0.00262
70.45 0.00111
70.5 -0.00488
70.55 -0.0062
70.6 -0.00566
70.65 -0.00549
70.7 -0.00786
70.75 -0.01163
70.8 -0.01242
70.85 -0.01348
70.9 -0.01024
70.95 -0.00529
71 0.00234
71.05 0.00368
71.1 0.00756
71.15 0.01392
71.2 0.01969
71.25 0.02342
71.3 0.02429
71.35 0.02332
71.4 0.02484
71.45 0.01922
71.5 0.01634
71.55 0.01287
71.6 0.01295
71.65 0.01078
71.7 0.00645
71.75 0.00678
71.8 0.00358
71.85 0.00257
71.9 0.00409
71.95 0.00476
72 0.00615
72.05 0.00516
72.1 -0.00052
72.15 -0.00223
72.2 -0.00227
72.25 0.00015
72.3 0.00196
72.35 0.00557
72.4 0.00676
72.45 0.00437
72.5 -0.00158
72.55 -0.00302
72.6 -0.00253
72.65 0.00188
72.7 0.00451
72.75 0.00808
72.8 0.0134
72.85 0.01119
72.9 0.00831
72.95 0.00275
73 -0.00523
73.05 -0.0061
73.1 -0.00461
73.15 -0.00558
73.2 -0.00268
73.25 0.00334
73.3 0.00899
73.35 0.00683
73.4 0.00483
73.45 0.00387
73.5 0.0045
73.55 0.00807
73.6 0.00648
73.65 0.0046
73.7 0.00421
73.75 -0.00049
73.8 -0.00597
73.85 -0.01426
73.9 -0.01723
73.95 -0.0146
74 -0.01396
74.05 -0.00998
74.1 -0.0081
74.15 -0.00545
74.2 -0.00693
74.25 -0.00587
74.3 -0.0044
74.35 -0.00574
74.4 -0.00792
74.45 -0.01319
74.5 -0.01927
74.55 -0.02042
74.6 -0.01572
74.65 -0.0085
74.7 -0.00339
74.75 -0.00501
74.8 -0.00386
74.85 -0.00067
74.9 0.00326
74.95 0.00248
75 -0.00074
75.05 -0.00464
75.1 -0.00418
75.15 -0.0066
75.2 -0.0069
75.25 -0.00818
75.3 -0.01313
75.35 -0.01393
75.4 -0.01017
75.45 -0.00473
75.5 0.00138
75.55 0.00549
75.6 0.01165
75.65 0.01023
75.7 0.00868
75.75 0.00391
75.8 0.00175
75.85 0.00101
75.9 -0.00412
75.95 -0.00758
76 -0.00704
76.05 -0.0064
76.1 -0.00446
76.15 0.00084
76.2 0.00489
76.25 0.00705
76.3 0.00617
76.35 0.00124
76.4 -0.00499
76.45 -0.00705
76.5 -0.00429
76.55 0.00151
76.6 0.00406
76.65 0.00618
76.7 0.0027
76.75 -0.00471
76.8 -0.01068
76.85 -0.01567
76.9 -0.01359
76.95 -0.00907
77 -0.00167
77.05 -0.00004
77.1 -0.00016
77.15 -0.00412
77.2 -0.00265
77.25 0.00183
77.3 0.00462
77.35 0.00373
77.4 0.00113
77.45 -0.0013
77.5 -0.00147
77.55 -0.00477
77.6 -0.00407
77.65 -0.00776
77.7 -0.00786
77.75 -0.00793
77.8 -0.00728
77.85 -0.00248
77.9 -0.00394
77.95 -0.00432
78 -0.00566
78.05 -0.00401
78.1 -0.00449
78.15 -0.00246
78.2 0.00147
78.25 0.00497
78.3 0.01124
78.35 0.01464
78.4 0.01455
78.45 0.01045
78.5 0.00738
78.55 0.00113
78.6 0.0006
78.65 0.00036
78.7 0.0041
78.75 0.00681
78.8 0.00547
78.85 0.00733
78.9 0.01027
78.95 0.01042
79 0.01181
79.05 0.01046
79.1 0.00392
79.15 -0.00544
79.2 -0.00905
79.25 -0.00794
79.3 -0.00341
79.35 -0.00243
79.4 -0.00403
79.45 -0.00721
79.5 -0.01249
79.55 -0.01231
79.6 -0.00796
79.65 -0.00138
79.7 0.00259
79.75 0.00928
79.8 0.01452
79.85 0.01532
79.9 0.01203
79.95 0.00845
80 0.00449
80.05 0.0022
80.1 -0.00214
80.15 -0.00209
80.2 -0.00062
80.25 0.00457
80.3 0.0052
80.35 0.00912
80.4 0.01325
80.45 0.01028
80.5 0.01071
80.55 0.00734
80.6 0.00154
80.65 -0.00517
80.7 -0.01072
80.75 -0.01033
80.8 -0.00977
80.85 -0.01358
80.9 -0.01936
80.95 -0.02036
81 -0.02388
81.05 -0.02263
81.1 -0.02078
81.15 -0.01542
81.2 -0.00769
81.25 -0.00599
81.3 -0.00359
81.35 -0.00062
81.4 0.0006
81.45 0.00146
81.5 -0.00066
81.55 0.00028
81.6 -0.00133
81.65 0.00213
81.7 0.00545
81.75 0.0027
81.8 0.00152
81.85 0.00223
81.9 -0.00195
81.95 -0.00665
82 -0.01178
82.05 -0.01252
82.1 -0.01192
82.15 -0.00822
82.2 -0.00391
82.25 0.00114
82.3 0.00139
82.35 -0.00024
82.4 0.00014
82.45 -0.0026
82.5 -0.00615
82.55 -0.00785
82.6 -0.01144
82.65 -0.01008
82.7 -0.00726
82.75 -0.00282
82.8 0.00359
82.85 0.00284
82.9 -0.0012
82.95 -0.00614
83 -0.01032
83.05 -0.0135
83.1 -0.01641
83.15 -0.01271
83.2 -0.00497
83.25 0.00193
83.3 0.00267
83.35 0.00717
83.4 0.01151
83.45 0.0107
83.5 0.01101
83.55 0.00975
83.6 0.00344
83.65 0.00342
83.7 0.00522
83.75 0.00244
83.8 0.0008
83.85 -0.00258
83.9 -0.00295
83.95 -0.00001
84 -0.00253
84.05 -0.00447
84.1 -0.0036
84.15 0.0008
84.2 0.0081
84.25 0.01407
84.3 0.01291
84.35 0.00887
84.4 0.00207
84.45 -0.00523
84.5 -0.00687
84.55 -0.0088
84.6 -0.00827
84.65 -0.01098
84.7 -0.01183
84.75 -0.00974
84.8 -0.00787
84.85 -0.00439
84.9 -0.00295
84.95 0.00185
85 0.00154
85.05 -0.00235
85.1 -0.00838
85.15 -0.0089
85.2 -0.01282
85.25 -0.01375
85.3 -0.01561
85.35 -0.01345
85.4 -0.01295
85.45 -0.00819
85.5 -0.00317
85.55 -0.00065
85.6 -0.0007
85.65 0.00384
85.7 0.00844
85.75 0.014
85.8 0.01996
85.85 0.0205
85.9 0.01704
85.95 0.01804
86 0.01313
86.05 0.00624
86.1 -0.001
86.15 -0.00972
86.2 -0.01733
86.25 -0.02047
86.3 -0.01849
86.35 -0.01657
86.4 -0.01553
86.45 -0.00997
86.5 -0.00752
86.55 -0.00466
86.6 0.00176
86.65 0.00759
86.7 0.01061
86.75 0.00847
86.8 0.00992
86.85 0.01467
86.9 0.01415
86.95 0.0083
87 0.00539
87.05 -0.00067
87.1 -0.00503
87.15 -0.0089
87.2 -0.00703
87.25 -0.00153
87.3 0.00398
87.35 0.0043
87.4 0.00548
87.45 0.00738
87.5 0.01107
87.55 0.0165
87.6 0.0227
87.65 0.02667
87.7 0.03075
87.75 0.03377
87.8 0.0365
87.85 0.03536
87.9 0.03426
87.95 0.02892
88 0.02711
88.05 0.02265
88.1 0.0137
88.15 0.00233
88.2 -0.00283
88.25 -0.00996
88.3 -0.01638
88.35 -0.02076
88.4 -0.01766
88.45 -0.01571
88.5 -0.01515
88.55 -0.01373
88.6 -0.01119
88.65 -0.00582
88.7 0.00007
88.75 0.00483
88.8 0.00348
88.85 0.00073
88.9 -0.00006
88.95 -0.00386
89 -0.01028
89.05 -0.01213
89.1 -0.01279
89.15 -0.011
89.2 -0.00555
89.25 0.00081
89.3 0.0007
89.35 0.00104
89.4 0.0037
89.45 0.00399
89.5 0.00768
89.55 0.01135
89.6 0.01277
89.65 0.01259
89.7 0.01356
89.75 0.01051
89.8 0.00715
89.85 0.00723
89.9 0.00538
89.95 0.00359
90 0.00173
90.05 -0.00013
90.1 -0.00074
90.15 0.00252
90.2 0.0011
90.25 0.00004
90.3 -0.00054
90.35 0.00253
90.4 0.00689
90.45 0.01178
90.5 0.00982
90.55 0.00701
90.6 0.00709
90.65 0.00273
90.7 0.00284
90.75 0.0006
90.8 -0.00431
90.85 -0.00642
90.9 -0.01152
90.95 -0.0096
91 -0.00462
91.05 0.00254
91.1 0.00661
91.15 0.00629
91.2 0.00119
91.25 -0.00483
91.3 -0.00805
91.35 -0.01015
91.4 -0.01338
91.45 -0.01871
91.5 -0.02566
91.55 -0.02389
91.6 -0.02588
91.65 -0.02169
91.7 -0.02027
91.75 -0.01824
91.8 -0.0198
91.85 -0.02013
91.9 -0.01765
91.95 -0.01567
92 -0.01039
92.05 -0.00557
92.1 -0.00102
92.15 0.0012
92.2 0.00072
92.25 -0.00462
92.3 -0.00553
92.35 -0.00848
92.4 -0.00733
92.45 -0.00766
92.5 -0.01109
92.55 -0.01629
92.6 -0.01456
92.65 -0.00795
92.7 -0.00709
92.75 -0.0107
92.8 -0.00974
92.85 -0.00504
92.9 -0.00589
92.95 -0.00811
93 -0.00875
93.05 -0.00576
93.1 -0.00796
93.15 -0.01121
93.2 -0.01096
93.25 -0.0098
93.3 -0.01272
93.35 -0.00876
93.4 -0.00313
93.45 0.00061
93.5 -0.00124
93.55 -0.0019
93.6 0.00157
93.65 0.00468
93.7 0.00162
93.75 0.00165
93.8 0.00075
93.85 0.00161
93.9 -0.0002
93.95 -0.00361
94 -0.00234
94.05 -0.00466
94.1 -0.00456
94.15 -0.00768
94.2 -0.00762
94.25 -0.00933
94.3 -0.00944
94.35 -0.01322
94.4 -0.01625
94.45 -0.02121
94.5 -0.02602
94.55 -0.02433
94.6 -0.0187
94.65 -0.01265
94.7 -0.00915
94.75 -0.00658
94.8 -0.00417
94.85 -0.00287
94.9 -0.00109
94.95 -0.00107
95 -0.00054
95.05 0.00446
95.1 0.00383
95.15 0.00153
95.2 -0.00419
95.25 -0.00626
95.3 -0.00882
95.35 -0.00565
95.4 -0.0017
95.45 0.00432
95.5 0.01117
95.55 0.01044
95.6 0.01388
95.65 0.01688
95.7 0.02183
95.75 0.02347
95.8 0.01977
95.85 0.01502
95.9 0.01068
95.95 0.01136
96 0.00639
96.05 0.00559
96.1 0.00354
96.15 0.00473
96.2 0.00803
96.25 0.00675
96.3 0.00067
96.35 -0.00133
96.4 -0.0052
96.45 -0.0049
96.5 -0.00796
96.55 -0.01233
96.6 -0.01456
96.65 -0.01061
96.7 -0.00856
96.75 -0.00856
96.8 -0.00443
96.85 -0.00313
96.9 -0.00095
96.95 0.00148
97 0.00007
97.05 -0.00118
97.1 0.0016
97.15 0.00788
97.2 0.0101
97.25 0.01218
97.3 0.00841
97.35 0.00366
97.4 0.00181
97.45 -0.0019
97.5 -0.00654
97.55 -0.01073
97.6 -0.01046
97.65 -0.01126
97.7 -0.0076
97.75 -0.002
97.8 0.00008
97.85 -0.00199
97.9 0.00044
97.95 -0.00234
98 -0.00045
98.05 0.0054
98.1 0.00735
98.15 0.01091
98.2 0.01345
98.25 0.01178
98.3 0.01407
98.35 0.01573
98.4 0.01197
98.45 0.00477
98.5 -0.00001
98.55 -0.00148
98.6 -0.00628
98.65 -0.0048
98.7 0.00117
98.75 0.0067
98.8 0.00735
98.85 0.00891
98.9 0.01092
98.95 0.01328
99 0.01815
99.05 0.01716
99.1 0.01556
99.15 0.01113
99.2 0.01157
99.25 0.00637
99.3 0.00435
99.35 0.00185
99.4 -0.00078
99.45 -0.00457
99.5 -0.00924
99.55 -0.01261
99.6 -0.01865
99.65 -0.02164
99.7 -0.01823
99.75 -0.01493
99.8 -0.00982
99.85 -0.00306
99.9 -0.00034
99.95 0.002
