0 0
0.05 0.00794
0.1 0.01995
0.15 0.03346
0.2 0.04781
0.25 0.05357
0.3 0.05301
0.35 0.05573
0.4 0.05553
0.45 0.0582
0.5 0.05897
0.55 0.06
0.6 0.06235
0.65 0.05826
0.7 0.05032
0.75 0.04908
0.8 0.0498
0.85 0.05397
0.9 0.05483
0.95 0.05308
1 0.04641
1.05 0.04407
1.1 0.03883
1.15 0.0334
1.2 0.03234
1.25 0.0301
1.3 0.03195
1.35 0.03097
1.4 0.03126
1.45 0.03187
1.5 0.0318
1.55 0.02995
1.6 0.02678
1.65 0.02628
1.7 0.02563
1.75 0.02789
1.8 0.02777
1.85 0.03262
1.9 0.0346
1.95 0.03642
2 0.03435
2.05 0.03322
2.1 0.03314
2.15 0.03651
2.2 0.03657
2.25 0.03784
2.3 0.03699
2.35 0.03649
2.4 0.03221
2.45 0.02914
2.5 0.0316
2.55 0.03732
2.6 0.04036
2.65 0.04155
2.7 0.04531
2.75 0.04492
2.8 0.04753
2.85 0.04629
2.9 0.04733
2.95 0.04782
3 0.04448
3.05 0.04285
3.1 0.03797
3.15 0.03013
3.2 0.02148
3.25 0.01677
3.3 0.01443
3.35 0.01646
3.4 0.01854
3.45 0.02015
3.5 0.0251
3.55 0.0316
3.6 0.03832
3.65 0.04138
3.7 0.03943
3.75 0.03151
3.8 0.02494
3.85 0.01744
3.9 0.01149
3.95 0.00864
4 0.01013
4.05 0.01527
4.1 0.0198
4.15 0.02344
4.2 0.02208
4.25 0.02287
4.3 0.02479
4.35 0.0236
4.4 0.02158
4.45 0.01449
4.5 0.00828
4.55 -0.00555
4.6 -0.02359
4.65 -0.04351
4.7 -0.0594
4.75 -0.07664
4.8 -0.09638
4.85 -0.11532
4.9 -0.13828
4.95 -0.16513
5 -0.19416
5.05 -0.22655
5.1 -0.26678
5.15 -0.3127
5.2 -0.36511
5.25 -0.42767
5.3 -0.49335
5.35 -0.55887
5.4 -0.62678
5.45 -0.70085
5.5 -0.77327
5.55 -0.84704
5.6 -0.91931
5.65 -0.98042
5.7 -1.04053
5.75 -1.09604
5.8 -1.14283
5.85 -1.18515
5.9 -1.21842
5.95 -1.24125
6 -1.25781
6.05 -1.26487
6.1 -1.26915
6.15 -1.26166
6.2 -1.24517
6.25 -1.22944
6.3 -1.20443
6.35 -1.17826
6.4 -1.1494
6.45 -1.11658
6.5 -1.07942
6.55 -1.03938
6.6 -0.99283
6.65 -0.9437
6.7 -0.88982
6.75 -0.83309
6.8 -0.77483
6.85 -0.71006
6.9 -0.64045
6.95 -0.56988
7 -0.49489
7.05 -0.41069
7.1 -0.3223
7.15 -0.23463
7.2 -0.14297
7.25 -0.04919
7.3 0.04955
7.35 0.15073
7.4 0.24889
7.45 0.34752
7.5 0.43695
7.55 0.51878
7.6 0.601
7.65 0.68012
7.7 0.75444
7.75 0.82438
7.8 0.88926
7.85 0.94281
7.9 0.99371
7.95 1.03219
8 1.06132
8.05 1.0848
8.1 1.10785
8.15 1.13122
8.2 1.15203
8.25 1.16905
8.3 1.17891
8.35 1.1829
8.4 1.18006
8.45 1.17177
8.5 1.15667
8.55 1.14438
8.6 1.1313
8.65 1.11403
8.7 1.09132
8.75 1.07116
8.8 1.04932
8.85 1.02848
8.9 1.00902
8.95 0.9892
9 0.96891
9.05 0.94848
9.1 0.92233
9.15 0.89586
9.2 0.87283
9.25 0.85369
9.3 0.83491
9.35 0.81296
9.4 0.7892
9.45 0.76601
9.5 0.74193
9.55 0.72057
9.6 0.69768
9.65 0.67969
9.7 0.66562
9.75 0.64705
9.8 0.63136
9.85 0.61263
9.9 0.59887
9.95 0.58764
10 0.57632
10.05 0.56164
10.1 0.5489
10.15 0.53736
10.2 0.52566
10.25 0.50862
10.3 0.48562
10.35 0.46625
10.4 0.44894
10.45 0.43247
10.5 0.41197
10.55 0.38937
10.6 0.36757
10.65 0.35072
10.7 0.33613
10.75 0.31477
10.8 0.29337
10.85 0.27668
10.9 0.25558
10.95 0.22995
11 0.20413
11.05 0.17946
11.1 0.15494
11.15 0.13568
11.2 0.11537
11.25 0.09886
11.3 0.07914
11.35 0.06658
11.4 0.05613
11.45 0.04391
11.5 0.02722
11.55 0.01313
11.6 0.00154
11.65 -0.01494
11.7 -0.03195
11.75 -0.04338
11.8 -0.05754
11.85 -0.07174
11.9 -0.08518
11.95 -0.09436
12 -0.10051
12.05 -0.10448
12.1 -0.10959
12.15 -0.1165
12.2 -0.127
12.25 -0.13874
12.3 -0.15026
12.35 -0.1624
12.4 -0.17441
12.45 -0.185
12.5 -0.1883
12.55 -0.19119
12.6 -0.1917
12.65 -0.18838
12.7 -0.18052
12.75 -0.17548
12.8 -0.17114
12.85 -0.17336
12.9 -0.17559
12.95 -0.17529
13 -0.17608
13.05 -0.17285
13.1 -0.17492
13.15 -0.17996
13.2 -0.18553
13.25 -0.18489
13.3 -0.17907
13.35 -0.17679
13.4 -0.17519
13.45 -0.17196
13.5 -0.17008
13.55 -0.16597
13.6 -0.16129
13.65 -0.15601
13.7 -0.15615
13.75 -0.15587
13.8 -0.15816
13.85 -0.16153
13.9 -0.15994
13.95 -0.16091
14 -0.15989
14.05 -0.16046
14.1 -0.15576
14.15 -0.15553
14.2 -0.15596
14.25 -0.15762
14.3 -0.15253
14.35 -0.15062
14.4 -0.14535
14.45 -0.14211
14.5 -0.13553
14.55 -0.13105
14.6 -0.13139
14.65 -0.13074
14.7 -0.1261
14.75 -0.1253
14.8 -0.12323
14.85 -0.11925
14.9 -0.11733
14.95 -0.11991
15 -0.12425
15.05 -0.12216
15.1 -0.12052
15.15 -0.11909
15.2 -0.11725
15.25 -0.11056
15.3 -0.10323
15.35 -0.0943
15.4 -0.08589
15.45 -0.08187
15.5 -0.08069
15.55 -0.08039
15.6 -0.08328
15.65 -0.08429
15.7 -0.08406
15.75 -0.08134
15.8 -0.07961
15.85 -0.07623
15.9 -0.07909
15.95 -0.08591
16 -0.09344
16.05 -0.09263
16.1 -0.09302
16.15 -0.09451
16.2 -0.09846
16.25 -0.10248
16.3 -0.09919
16.35 -0.0932
16.4 -0.08979
16.45 -0.08345
16.5 -0.08285
16.55 -0.08362
16.6 -0.081
16.65 -0.07664
16.7 -0.07035
16.75 -0.06152
16.8 -0.05384
16.85 -0.04902
16.9 -0.04938
16.95 -0.05396
17 -0.06081
17.05 -0.06145
17.1 -0.05896
17.15 -0.05408
17.2 -0.0551
17.25 -0.05969
17.3 -0.06035
17.35 -0.06071
17.4 -0.05881
17.45 -0.05998
17.5 -0.05963
17.55 -0.0576
17.6 -0.06016
17.65 -0.05719
17.7 -0.05315
17.75 -0.04714
17.8 -0.04592
17.85 -0.04095
17.9 -0.03654
17.95 -0.03789
18 -0.03525
18.05 -0.03548
18.1 -0.03268
18.15 -0.03132
18.2 -0.03056
18.25 -0.02758
18.3 -0.03069
18.35 -0.03592
18.4 -0.03866
18.45 -0.04227
18.5 -0.0426
18.55 -0.0464
18.6 -0.04793
18.65 -0.0467
18.7 -0.04572
18.75 -0.04805
18.8 -0.0471
18.85 -0.045
18.9 -0.03968
18.95 -0.03421
19 -0.03419
19.05 -0.03022
19.1 -0.03144
19.15 -0.03381
19.2 -0.0361
19.25 -0.0359
19.3 -0.03407
19.35 -0.02929
19.4 -0.02356
19.45 -0.02474
19.5 -0.02383
19.55 -0.02513
19.6 -0.02843
19.65 -0.03141
19.7 -0.03445
19.75 -0.03433
19.8 -0.0352
19.85 -0.03584
19.9 -0.03527
19.95 -0.03707
20 -0.03326
20.05 -0.02613
20.1 -0.02127
20.15 -0.01741
20.2 -0.0179
20.25 -0.02273
20.3 -0.0243
20.35 -0.02273
20.4 -0.02019
20.45 -0.02148
20.5 -0.02517
20.55 -0.02341
20.6 -0.02457
20.65 -0.02048
20.7 -0.02138
20.75 -0.02293
20.8 -0.01956
20.85 -0.01657
20.9 -0.011
20.95 -0.00948
21 -0.01018
21.05 -0.01309
21.1 -0.01638
21.15 -0.01521
21.2 -0.01154
21.25 -0.00694
21.3 -0.00045
21.35 -0.00227
21.4 -0.00288
21.45 -0.00573
21.5 -0.00707
21.55 -0.00755
21.6 -0.00393
21.65 0.00212
21.7 0.00394
21.75 0.0037
21.8 0.00223
21.85 -0.00365
21.9 -0.00516
21.95 -0.00524
22 -0.00784
22.05 -0.01044
22.1 -0.00909
22.15 -0.0076
22.2 -0.00342
22.25 -0.00026
22.3 0.00511
22.35 0.00517
22.4 0.00204
22.45 -0.0024
22.5 -0.0062
22.55 -0.01086
22.6 -0.00946
22.65 -0.00849
22.7 -0.00961
22.75 -0.0079
22.8 -0.01008
22.85 -0.01338
22.9 -0.01228
22.95 -0.00834
23 -0.00807
23.05 -0.00862
23.1 -0.00713
23.15 -0.00596
23.2 -0.00462
23.25 -0.00742
23.3 -0.00948
23.35 -0.01529
23.4 -0.02274
23.45 -0.0281
23.5 -0.02916
23.55 -0.02555
23.6 -0.02482
23.65 -0.02326
23.7 -0.01852
23.75 -0.01865
23.8 -0.01341
23.85 -0.00877
23.9 -0.00957
23.95 -0.00593
24 -0.00834
24.05 -0.00795
24.1 -0.00767
24.15 -0.005
24.2 -0.00045
24.25 0.00564
24.3 0.00546
24.35 0.00875
24.4 0.00858
24.45 0.00863
24.5 0.00256
24.55 -0.00342
24.6 -0.00737
24.65 -0.00698
24.7 -0.0113
24.75 -0.01335
24.8 -0.0167
24.85 -0.01926
24.9 -0.02164
24.95 -0.02495
25 -0.02563
25.05 -0.0238
25.1 -0.01798
25.15 -0.01217
25.2 -0.01103
25.25 -0.00762
25.3 -0.00272
25.35 -0.00391
25.4 -0.0044
25.45 -0.00892
25.5 -0.00931
25.55 -0.01289
25.6 -0.01157
25.65 -0.01377
25.7 -0.01036
25.75 -0.0059
25.8 -0.00129
25.85 0.00032
25.9 -0.0033
25.95 -0.00856
26 -0.01145
26.05 -0.0118
26.1 -0.01451
26.15 -0.01808
26.2 -0.02033
26.25 -0.0181
26.3 -0.01658
26.35 -0.01772
26.4 -0.01853
26.45 -0.01869
26.5 -0.01676
26.55 -0.01338
26.6 -0.01218
26.65 -0.01106
26.7 -0.01163
26.75 -0.01277
26.8 -0.01056
26.85 -0.00414
26.9 0.00412
26.95 0.00433
27 0.00514
27.05 0.00495
27.1 0.00218
27.15 -0.00309
27.2 -0.01025
27.25 -0.01537
27.3 -0.01421
27.35 -0.01135
27.4 -0.01128
27.45 -0.00848
27.5 -0.00401
27.55 0.00008
27.6 0.0009
27.65 -0.00044
27.7 -0.00227
27.75 -0.00945
27.8 -0.01366
27.85 -0.0246
27.9 -0.03851
27.95 -0.05495
28 -0.07027
28.05 -0.08026
28.1 -0.08686
28.15 -0.09459
28.2 -0.10146
28.25 -0.11147
28.3 -0.13106
28.35 -0.15039
28.4 -0.17539
28.45 -0.20661
28.5 -0.24334
28.55 -0.28217
28.6 -0.32519
28.65 -0.36977
28.7 -0.41155
28.75 -0.45707
28.8 -0.50825
28.85 -0.55678
28.9 -0.60395
28.95 -0.6572
29 -0.71712
29.05 -0.77571
29.1 -0.83682
29.15 -0.90062
29.2 -0.96445
29.25 -1.02851
29.3 -1.08847
29.35 -1.14903
29.4 -1.20533
29.45 -1.26071
29.5 -1.31324
29.55 -1.36375
29.6 -1.40824
29.65 -1.44773
29.7 -1.47309
29.75 -1.48765
29.8 -1.49637
29.85 -1.49952
29.9 -1.4889
29.95 -1.47033
30 -1.44178
30.05 -1.40613
30.1 -1.36686
30.15 -1.32108
30.2 -1.26934
30.25 -1.21056
30.3 -1.13778
30.35 -1.05582
30.4 -0.96632
30.45 -0.87382
30.5 -0.78166
30.55 -0.68209
30.6 -0.57832
30.65 -0.47355
30.7 -0.36684
30.75 -0.26255
30.8 -0.16131
30.85 -0.05845
30.9 0.03895
30.95 0.14106
31 0.24125
31.05 0.33928
31.1 0.43401
31.15 0.52095
31.2 0.5976
31.25 0.66973
31.3 0.73274
31.35 0.79242
31.4 0.84319
31.45 0.88995
31.5 0.9377
31.55 0.97977
31.6 1.01346
31.65 1.04146
31.7 1.0658
31.75 1.0864
31.8 1.10189
31.85 1.12129
31.9 1.13723
31.95 1.15454
32 1.17216
32.05 1.18993
32.1 1.2066
32.15 1.21977
32.2 1.23012
32.25 1.23503
32.3 1.23173
32.35 1.22539
32.4 1.21554
32.45 1.20385
32.5 1.19038
32.55 1.18014
32.6 1.17032
32.65 1.16003
32.7 1.15069
32.75 1.14678
32.8 1.14293
32.85 1.14006
32.9 1.13204
32.95 1.12097
33 1.1101
33.05 1.09284
33.1 1.07289
33.15 1.05449
33.2 1.03043
33.25 1.01117
33.3 0.9873
33.35 0.96269
33.4 0.93754
33.45 0.90956
33.5 0.8847
33.55 0.85735
33.6 0.83463
33.65 0.80696
33.7 0.78289
33.75 0.75635
33.8 0.72992
33.85 0.70616
33.9 0.68135
33.95 0.65021
34 0.61905
34.05 0.59017
34.1 0.56347
34.15 0.53885
34.2 0.51547
34.25 0.48656
34.3 0.45501
34.35 0.42119
34.4 0.3904
34.45 0.36623
34.5 0.34475
34.55 0.319
34.6 0.2913
34.65 0.26361
34.7 0.23855
34.75 0.21882
34.8 0.19574
34.85 0.17244
34.9 0.15055
34.95 0.12803
35 0.10676
35.05 0.09313
35.1 0.08415
35.15 0.07221
35.2 0.05668
35.25 0.04264
35.3 0.02921
35.35 0.01709
35.4 0.00618
35.45 -0.0025
35.5 -0.01524
35.55 -0.02622
35.6 -0.03555
35.65 -0.04821
35.7 -0.05886
35.75 -0.07313
35.8 -0.08804
35.85 -0.09796
35.9 -0.10397
35.95 -0.11083
36 -0.12207
36.05 -0.13578
36.1 -0.14558
36.15 -0.15464
36.2 -0.16022
36.25 -0.16824
36.3 -0.1736
36.35 -0.18138
36.4 -0.18597
36.45 -0.18539
36.5 -0.1863
36.55 -0.1852
36.6 -0.18787
36.65 -0.19263
36.7 -0.19615
36.75 -0.20058
36.8 -0.20832
36.85 -0.21259
36.9 -0.21837
36.95 -0.22589
37 -0.23093
37.05 -0.23329
37.1 -0.22866
37.15 -0.22555
37.2 -0.2178
37.25 -0.20762
37.3 -0.20502
37.35 -0.20527
37.4 -0.20409
37.45 -0.19917
37.5 -0.19541
37.55 -0.19727
37.6 -0.20257
37.65 -0.20497
37.7 -0.2014
37.75 -0.20163
37.8 -0.20128
37.85 -0.19759
37.9 -0.19177
37.95 -0.19017
38 -0.19056
38.05 -0.19345
38.1 -0.19426
38.15 -0.19103
38.2 -0.18807
38.25 -0.18
38.3 -0.17515
38.35 -0.1664
38.4 -0.16424
38.45 -0.16605
38.5 -0.16161
38.55 -0.15942
38.6 -0.15267
38.65 -0.15135
38.7 -0.15165
38.75 -0.15503
38.8 -0.15534
38.85 -0.15604
38.9 -0.15285
38.95 -0.14943
39 -0.14985
39.05 -0.15079
39.1 -0.14926
39.15 -0.15023
39.2 -0.14553
39.25 -0.14329
39.3 -0.14153
39.35 -0.1386
39.4 -0.13363
39.45 -0.12736
39.5 -0.12132
39.55 -0.11209
39.6 -0.10309
39.65 -0.09543
39.7 -0.08858
39.75 -0.08732
39.8 -0.08726
39.85 -0.08377
39.9 -0.08755
39.95 -0.09235
40 -0.09983
40.05 -0.10873
40.1 -0.1101
40.15 -0.11037
40.2 -0.11208
40.25 -0.11035
40.3 -0.10571
40.35 -0.10047
40.4 -0.09469
40.45 -0.09238
40.5 -0.09117
40.55 -0.08898
40.6 -0.0838
40.65 -0.07581
40.7 -0.0672
40.75 -0.06251
40.8 -0.05676
40.85 -0.05858
40.9 -0.06501
40.95 -0.07424
41 -0.07739
41.05 -0.0812
41.1 -0.08584
41.15 -0.08898
41.2 -0.08743
41.25 -0.08161
41.3 -0.07198
41.35 -0.0681
41.4 -0.0681
41.45 -0.07107
41.5 -0.07513
41.55 -0.07456
41.6 -0.07372
41.65 -0.0707
41.7 -0.0703
41.75 -0.06897
41.8 -0.06222
41.85 -0.0608
41.9 -0.05716
41.95 -0.05626
42 -0.05731
42.05 -0.05915
42.1 -0.06091
42.15 -0.06389
42.2 -0.06106
42.25 -0.05935
42.3 -0.05824
42.35 -0.05771
42.4 -0.0605
42.45 -0.06097
42.5 -0.05953
42.55 -0.05667
42.6 -0.05398
42.65 -0.05018
42.7 -0.04812
42.75 -0.04333
42.8 -0.04226
42.85 -0.04399
42.9 -0.04158
42.95 -0.04167
43 -0.04465
43.05 -0.04506
43.1 -0.04154
43.15 -0.04307
43.2 -0.04264
43.25 -0.04433
43.3 -0.04765
43.35 -0.05041
43.4 -0.05271
43.45 -0.05411
43.5 -0.05455
43.55 -0.04945
43.6 -0.04572
43.65 -0.04043
43.7 -0.04036
43.75 -0.04085
43.8 -0.03546
43.85 -0.02755
43.9 -0.01992
43.95 -0.01659
44 -0.01378
44.05 -0.01105
44.1 -0.00996
44.15 -0.00802
44.2 -0.01101
44.25 -0.01186
44.3 -0.01552
44.35 -0.01832
44.4 -0.01631
44.45 -0.01605
44.5 -0.01445
44.55 -0.01053
44.6 -0.01236
44.65 -0.01525
44.7 -0.01896
44.75 -0.02452
44.8 -0.02325
44.85 -0.02571
44.9 -0.03128
44.95 -0.03695
45 -0.03782
45.05 -0.03557
45.1 -0.03417
45.15 -0.03535
45.2 -0.02985
45.25 -0.02592
45.3 -0.02077
45.35 -0.01612
45.4 -0.01052
45.45 -0.00372
45.5 -0.00094
45.55 0.00002
45.6 -0.00353
45.65 -0.00718
45.7 -0.01424
45.75 -0.01413
45.8 -0.01706
45.85 -0.01616
45.9 -0.01536
45.95 -0.01799
46 -0.01872
46.05 -0.01677
46.1 -0.01949
46.15 -0.01865
46.2 -0.01728
46.25 -0.01987
46.3 -0.01645
46.35 -0.01833
46.4 -0.0223
46.45 -0.02841
46.5 -0.02847
46.55 -0.02685
46.6 -0.0277
46.65 -0.02842
46.7 -0.02579
46.75 -0.02642
46.8 -0.02493
46.85 -0.02401
46.9 -0.02228
46.95 -0.02266
47 -0.02574
47.05 -0.02203
47.1 -0.01873
47.15 -0.01992
47.2 -0.02386
47.25 -0.02124
47.3 -0.01487
47.35 -0.01136
47.4 -0.00833
47.45 -0.00533
47.5 -0.00764
47.55 -0.01256
47.6 -0.01229
47.65 -0.00769
47.7 -0.00203
47.75 -0.00009
47.8 -0.00235
47.85 -0.00516
47.9 -0.01108
47.95 -0.0181
48 -0.01704
48.05 -0.01771
48.1 -0.01969
48.15 -0.02004
48.2 -0.01396
48.25 -0.00917
48.3 -0.00537
48.35 -0.00297
48.4 0.00035
48.45 0.00105
48.5 0.00174
48.55 0.00403
48.6 0.00278
48.65 -0.00164
48.7 -0.00433
48.75 -0.00711
48.8 -0.01078
48.85 -0.01233
48.9 -0.01178
48.95 -0.00636
49 -0.00257
49.05 -0.00113
49.1 -0.00442
49.15 -0.00235
49.2 0.00303
49.25 0.00192
49.3 -0.00236
49.35 -0.00293
49.4 -0.0027
49.45 -0.00503
49.5 -0.00204
49.55 -0.00302
49.6 -0.00577
49.65 -0.00656
49.7 -0.00309
49.75 0.00094
49.8 0.00339
49.85 0.00457
49.9 0.00097
49.95 0.00132
50 0.00467
50.05 0.00896
50.1 0.01208
50.15 0.01227
50.2 0.0098
50.25 0.01185
50.3 0.01069
50.35 0.01086
50.4 0.01368
50.45 0.0151
50.5 0.01911
50.55 0.01901
50.6 0.01421
50.65 0.01251
50.7 0.00669
50.75 0.00683
50.8 0.01021
50.85 0.00671
50.9 0.00835
50.95 0.00405
51 -0.0011
51.05 -0.00701
51.1 -0.00594
51.15 -0.00478
51.2 -0.00222
51.25 -0.00368
51.3 -0.00228
51.35 0.00072
51.4 -0
51.45 -0.00042
51.5 -0.00326
51.55 -0.0019
51.6 0.00235
51.65 0.00413
51.7 0.0063
51.75 0.0091
51.8 0.01241
51.85 0.00899
51.9 0.00544
51.95 0.00339
52 0.00132
52.05 0.00281
52.1 0.00418
52.15 0.00682
52.2 0.00669
52.25 0.00179
52.3 0.00054
52.35 0.00026
52.4 0.00197
52.45 0.00106
52.5 0.00434
52.55 0.00945
52.6 0.01507
52.65 0.01382
52.7 0.01377
52.75 0.01648
52.8 0.01888
52.85 0.02247
52.9 0.02248
52.95 0.0189
53 0.01689
53.05 0.01418
53.1 0.01285
53.15 0.00676
53.2 0.00507
53.25 0.00194
53.3 0.00288
53.35 0.00714
53.4 0.01237
53.45 0.0132
53.5 0.01558
53.55 0.01806
53.6 0.01869
53.65 0.01283
53.7 0.00646
53.75 0.00017
53.8 -0.0023
53.85 -0.00288
53.9 0.00026
53.95 0.00597
54 0.00995
54.05 0.01012
54.1 0.00471
54.15 0.00113
54.2 -0.00312
54.25 -0.00445
54.3 -0.00535
54.35 -0.00674
54.4 -0.01019
54.45 -0.01013
54.5 -0.00575
54.55 -0.00586
54.6 -0.01044
54.65 -0.01433
54.7 -0.01775
54.75 -0.01672
54.8 -0.01687
54.85 -0.01625
54.9 -0.01113
54.95 -0.00886
55 -0.00784
55.05 -0.003
55.1 -0.00143
55.15 -0.0012
55.2 -0.00533
55.25 -0.00857
55.3 -0.00687
55.35 -0.00668
55.4 -0.00226
55.45 0.00331
55.5 0.00309
55.55 0.00558
55.6 0.0044
55.65 0.00654
55.7 0.00897
55.75 0.01202
55.8 0.01557
55.85 0.01649
55.9 0.01185
55.95 0.01074
56 0.00995
56.05 0.00572
56.1 0.00271
56.15 0.00184
56.2 0.00286
56.25 -0.00185
56.3 -0.0043
56.35 -0.00608
56.4 -0.00569
56.45 -0.00485
56.5 -0.006
56.55 -0.00996
56.6 -0.014
56.65 -0.0205
56.7 -0.02088
56.75 -0.02052
56.8 -0.01535
56.85 -0.00931
56.9 -0.00694
56.95 -0.00907
57 -0.00934
57.05 -0.00663
57.1 -0.00252
57.15 -0.00341
57.2 -0.00441
57.25 -0.00637
57.3 -0.0063
57.35 -0.00794
57.4 -0.00786
57.45 -0.00469
57.5 0.0011
57.55 -0.0004
57.6 -0.00492
57.65 -0.01227
57.7 -0.01525
57.75 -0.01867
57.8 -0.02144
57.85 -0.02258
57.9 -0.0212
57.95 -0.02214
58 -0.01913
58.05 -0.01401
58.1 -0.01085
58.15 -0.01005
58.2 -0.00699
58.25 -0.00455
58.3 -0.0013
58.35 0.00535
58.4 0.01235
58.45 0.01917
58.5 0.02027
58.55 0.0223
58.6 0.0245
58.65 0.02644
58.7 0.0294
58.75 0.03191
58.8 0.03023
58.85 0.02328
58.9 0.01407
58.95 0.00436
59 0.00182
59.05 -0.00159
59.1 -0.00096
59.15 0.00216
59.2 0.00475
59.25 0.00523
59.3 0.00031
59.35 -0.0022
59.4 -0.00479
59.45 -0.00995
59.5 -0.0103
59.55 -0.00549
59.6 -0.00113
59.65 0.00221
59.7 0.00743
59.75 0.01379
59.8 0.01446
59.85 0.0169
59.9 0.01354
59.95 0.01147
60 0.00642
60.05 -0.00248
60.1 -0.00621
60.15 -0.01284
60.2 -0.01548
60.25 -0.01277
60.3 -0.00596
60.35 -0.00318
60.4 0.00014
60.45 0.00374
60.5 0.00394
60.55 0.00256
60.6 -0.00159
60.65 -0.0007
60.7 -0.00291
60.75 -0.00919
60.8 -0.01748
60.85 -0.0214
60.9 -0.02588
60.95 -0.02501
61 -0.0193
61.05 -0.01281
61.1 -0.00559
61.15 0.00156
61.2 0.00258
61.25 0.0034
61.3 0.00404
61.35 0.00479
61.4 -0.00024
61.45 -0.00146
61.5 -0.00482
61.55 -0.00721
61.6 -0.00551
61.65 -0.00622
61.7 -0.00738
61.75 -0.00787
61.8 -0.01243
61.85 -0.01619
61.9 -0.0148
61.95 -0.01128
62 -0.01048
62.05 -0.00772
62.1 -0.00114
62.15 0.00615
62.2 0.01197
62.25 0.01744
62.3 0.01904
62.35 0.0195
62.4 0.02097
62.45 0.01788
62.5 0.00999
62.55 0.00233
62.6 -0.00386
62.65 -0.00585
62.7 -0.0074
62.75 -0.00689
62.8 -0.00221
62.85 0.00012
62.9 0.00074
62.95 -0.00086
63 -0.00255
63.05 -0.00494
63.1 -0.00304
63.15 -0.00562
63.2 -0.00369
63.25 -0.00292
63.3 -0.00052
63.35 0.00421
63.4 0.00966
63.45 0.01514
63.5 0.0148
63.55 0.01263
63.6 0.00712
63.65 0.00547
63.7 0.00174
63.75 0.00039
63.8 -0.00289
63.85 -0.00441
63.9 -0.00192
63.95 -0.00236
64 -0.00642
64.05 -0.00444
64.1 -0.00064
64.15 0.00155
64.2 -0.00118
64.25 -0.00064
64.3 -0.00441
64.35 -0.0062
64.4 -0.01093
64.45 -0.00995
64.5 -0.00822
64.55 -0.01007
64.6 -0.01174
64.65 -0.00937
64.7 -0.00508
64.75 0.00066
64.8 0.00738
64.85 0.00848
64.9 0.00359
64.95 0.0006
65 -0.00178
65.05 -0.00117
65.1 0.00125
65.15 0.00419
65.2 0.00622
65.25 0.00926
65.3 0.00766
65.35 0.00338
65.4 -0.00429
65.45 -0.01126
65.5 -0.01953
65.55 -0.02511
65.6 -0.02747
65.65 -0.03046
65.7 -0.03284
65.75 -0.02914
65.8 -0.02203
65.85 -0.01958
65.9 -0.01879
65.95 -0.01306
66 -0.01046
66.05 -0.00511
66.1 -0.00581
66.15 -0.0025
66.2 0.00206
66.25 0.00848
66.3 0.00972
66.35 0.006
66.4 -0.00092
66.45 -0.0058
66.5 -0.00908
66.55 -0.00812
66.6 -0.01068
66.65 -0.01163
66.7 -0.01018
66.75 -0.01318
66.8 -0.01764
66.85 -0.02031
66.9 -0.01658
66.95 -0.01211
67 -0.01132
67.05 -0.01022
67.1 -0.01006
67.15 -0.0116
67.2 -0.01422
67.25 -0.01784
67.3 -0.01689
67.35 -0.01057
67.4 -0.00404
67.45 0.0032
67.5 0.00453
67.55 0.00193
67.6 0.0022
67.65 0.00142
67.7 -0.00231
67.75 -0.00006
67.8 -0.00065
67.85 0.00289
67.9 0.00577
67.95 0.00272
68 0.00078
68.05 0.00179
68.1 0.00617
68.15 0.00919
68.2 0.01383
68.25 0.01439
68.3 0.01217
68.35 0.00562
68.4 0.00433
68.45 0.00582
68.5 0.00549
68.55 0.00709
68.6 0.00448
68.65 -0.00078
68.7 -0.00175
68.75 -0.00158
68.8 -0.00275
68.85 0.001
68.9 0.00362
68.95 0.00911
69 0.01232
69.05 0.00937
69.1 0.00462
69.15 -0.0024
69.2 -0.0061
69.25 -0.00406
69.3 0.00201
69.35 0.00953
69.4 0.01176
69.45 0.01652
69.5 0.0215
69.55 0.02153
69.6 0.01632
69.65 0.00866
69.7 0.00225
69.75 0.00059
69.8 0.001
69.85 0.0014
69.9 0.00231
69.95 0.00091
70 -0.00222
70.05 -0.005
70.1 -0.00982
70.15 -0.00819
70.2 -0.00858
70.25 -0.01097
70.3 -0.00996
70.35 -0.00475
70.4 -0.00551
70.45 -0.00151
70.5 -0.00267
70.55 -0.00749
70.6 -0.00579
70.65 -0.0078
70.7 -0.01217
70.75 -0.01719
70.8 -0.01712
70.85 -0.01986
70.9 -0.01538
70.95 -0.00995
71 -0.00161
71.05 0.0015
71.1 -0
71.15 -0.00071
71.2 -0.00185
71.25 0.00121
71.3 0.00459
71.35 0.00699
71.4 0.00327
71.45 -0.0011
71.5 -0.00154
71.55 -0.00629
71.6 -0.0078
71.65 -0.00639
71.7 -0.00057
71.75 0.00279
71.8 0.00157
71.85 0.0039
71.9 0.00432
71.95 0.00058
72 0.00149
72.05 -0.00054
72.1 0.0012
72.15 0.0003
72.2 0.00013
72.25 0.00225
72.3 0.00132
72.35 0.00366
72.4 0.00466
72.45 0.00476
72.5 0.00042
72.55 -0.00517
72.6 -0.01213
72.65 -0.01085
72.7 -0.01342
72.75 -0.01672
72.8 -0.01391
72.85 -0.00981
72.9 -0.00475
72.95 -0.0015
73 0.00517
73.05 0.00955
73.1 0.01133
73.15 0.00873
73.2 0.00308
73.25 -0.0036
73.3 -0.00426
73.35 -0.00753
73.4 -0.00633
73.45 -0.00565
73.5 -0.00464
73.55 -0.0007
73.6 -0.00214
73.65 -0.0062
73.7 -0.00704
73.75 -0.01059
73.8 -0.00724
73.85 -0.00396
73.9 0.00175
73.95 0.00667
74 0.01368
74.05 0.01817
74.1 0.02215
74.15 0.02592
74.2 0.02435
74.25 0.02589
74.3 0.02909
74.35 0.02991
74.4 0.02452
74.45 0.01514
74.5 0.01209
74.55 0.01118
74.6 0.0117
74.65 0.01093
74.7 0.01249
74.75 0.01098
74.8 0.00655
74.85 -0.00029
74.9 -0.00268
74.95 -0.00004
75 0.00234
75.05 0.0043
75.1 0.00524
75.15 0.00208
75.2 -0.00264
75.25 -0.00247
75.3 -0.00098
75.35 -0.00263
75.4 -0.00025
75.45 0.00005
75.5 0.00317
75.55 0.00192
75.6 -0.00157
75.65 -0.00274
75.7 -0.00138
75.75 -0.00426
75.8 -0.00684
75.85 -0.01043
75.9 -0.0122
75.95 -0.00789
76 -0.00737
76.05 -0.00895
76.1 -0.00674
76.15 -0.00078
76.2 -0.00059
76.25 0.0019
76.3 0.00186
76.35 -0.00244
76.4 -0.00755
76.45 -0.01469
76.5 -0.01674
76.55 -0.01459
76.6 -0.01604
76.65 -0.01557
76.7 -0.0171
76.75 -0.02142
76.8 -0.02592
76.85 -0.02754
76.9 -0.02937
76.95 -0.02353
77 -0.01354
77.05 -0.00179
77.1 0.00264
77.15 0.00561
77.2 0.00434
77.25 0.00545
77.3 0.00493
77.35 0.00472
77.4 0.00515
77.45 0.00041
77.5 0.00132
77.55 0.00611
77.6 0.01142
77.65 0.01687
77.7 0.02046
77.75 0.02278
77.8 0.02218
77.85 0.02007
77.9 0.01721
77.95 0.01764
78 0.0181
78.05 0.01623
78.1 0.00904
78.15 0.00348
78.2 -0.00279
78.25 -0.00707
78.3 -0.01032
78.35 -0.00832
78.4 -0.00581
78.45 0.00029
78.5 0.00542
78.55 0.00793
78.6 0.0103
78.65 0.01113
78.7 0.01083
78.75 0.00994
78.8 0.00595
78.85 0.00492
78.9 -0.0001
78.95 -0.00652
79 -0.00813
79.05 -0.006
79.1 -0.00684
79.15 -0.00569
79.2 -0.0089
79.25 -0.01333
79.3 -0.01816
79.35 -0.01846
79.4 -0.01477
79.45 -0.01554
79.5 -0.01551
79.55 -0.01311
79.6 -0.00631
79.65 -0.00329
79.7 -0.00306
79.75 -0.00159
79.8 0.00136
79.85 0.00419
79.9 0.01013
79.95 0.01478
80 0.01225
80.05 0.0062
80.1 -0.00021
80.15 -0.00389
80.2 -0.00258
80.25 -0.00316
80.3 0.0006
80.35 -0.00184
80.4 -0.00244
80.45 -0.00004
80.5 -0.00211
80.55 -0.00196
80.6 0.002
80.65 0.00834
80.7 0.0091
80.75 0.01095
80.8 0.01209
80.85 0.01149
80.9 0.00545
80.95 0.00485
81 0.00787
81.05 0.0088
81.1 0.01085
81.15 0.01305
81.2 0.0172
81.25 0.01594
81.3 0.01617
81.35 0.01513
81.4 0.01508
81.45 0.01021
81.5 0.00407
81.55 -0.00016
81.6 -0.00644
81.65 -0.00621
81.7 -0.00516
81.75 -0.00496
81.8 -0.0023
81.85 0.00094
81.9 -0.00167
81.95 -0.00334
82 -0.00345
82.05 -0.00441
82.1 -0.00683
82.15 -0.00902
82.2 -0.0124
82.25 -0.01593
82.3 -0.01368
82.35 -0.00765
82.4 -0.00145
82.45 0.00632
82.5 0.00785
82.55 0.0078
82.6 0.00716
82.65 0.00864
82.7 0.01296
82.75 0.00978
82.8 0.00297
82.85 -0.00374
82.9 -0.00577
82.95 -0.00583
83 -0.00305
83.05 -0.00123
83.1 -0.00237
83.15 -0.00272
83.2 -0.00408
83.25 -0.00546
83.3 -0.00841
83.35 -0.01345
83.4 -0.0183
83.45 -0.01799
83.5 -0.01924
83.55 -0.01492
83.6 -0.01171
83.65 -0.00605
83.7 -0.00052
83.75 -0.00018
83.8 0.00392
83.85 0.0014
83.9 0.00279
83.95 0.00182
84 0.00277
84.05 0.002
84.1 0.00375
84.15 0.00096
84.2 0.00017
84.25 -0.00502
84.3 -0.00584
84.35 -0.00424
84.4 -0.00029
84.45 0.00389
84.5 0.00824
84.55 0.00667
84.6 0.00135
84.65 0.00221
84.7 0.00409
84.75 0.00258
84.8 -0.00035
84.85 -0.00451
84.9 -0.00706
84.95 -0.00706
85 -0.00887
85.05 -0.01144
85.1 -0.01354
85.15 -0.01198
85.2 -0.00596
85.25 -0.00332
85.3 -0.00161
85.35 0.00164
85.4 0.00383
85.45 0.0091
85.5 0.01257
85.55 0.01643
85.6 0.01933
85.65 0.01759
85.7 0.01337
85.75 0.0082
85.8 0.00724
85.85 0.00869
85.9 0.00984
85.95 0.00873
86 0.00855
86.05 0.00386
86.1 -0.00194
86.15 -0.003
86.2 -0.00125
86.25 -0.00027
86.3 0.0012
86.35 -0.00177
86.4 0.0004
86.45 0.00538
86.5 0.00523
86.55 0.00714
86.6 0.00945
86.65 0.00514
86.7 0.00115
86.75 -0.00554
86.8 -0.00666
86.85 -0.00842
86.9 -0.00981
86.95 -0.00722
87 -0.00447
87.05 0.00174
87.1 0.00408
87.15 0.00599
87.2 0.00782
87.25 0.00966
87.3 0.00842
87.35 0.00934
87.4 0.01116
87.45 0.00745
87.5 0.00015
87.55 -0.00138
87.6 -0.00234
87.65 -0.00692
87.7 -0.00902
87.75 -0.01244
87.8 -0.01245
87.85 -0.00945
87.9 -0.00912
87.95 -0.01115
88 -0.01529
88.05 -0.01693
88.1 -0.01284
88.15 -0.01308
88.2 -0.01433
88.25 -0.0124
88.3 -0.00643
88.35 0.00173
88.4 0.01114
88.45 0.01336
88.5 0.0094
88.55 0.00522
88.6 -0.00001
88.65 -0.00279
88.7 -0.00391
88.75 -0.00814
88.8 -0.01139
88.85 -0.01318
88.9 -0.01558
88.95 -0.0151
89 -0.0137
89.05 -0.01413
89.1 -0.01295
89.15 -0.01248
89.2 -0.01263
89.25 -0.01072
89.3 -0.00657
89.35 0.00047
89.4 0.00096
89.45 -0.00005
89.5 0.00359
89.55 0.0035
89.6 0.00377
89.65 0.00546
89.7 0.00505
89.75 0.00833
89.8 0.01232
89.85 0.0176
89.9 0.02024
89.95 0.01542
90 0.00873
90.05 0.00385
90.1 0.00132
90.15 -0.0027
90.2 -0.00341
90.25 -0.0085
90.3 -0.01209
90.35 -0.01544
90.4 -0.01912
90.45 -0.02346
90.5 -0.02845
90.55 -0.03045
90.6 -0.0277
90.65 -0.02767
90.7 -0.02094
90.75 -0.01139
90.8 -0.0042
90.85 -0.00364
90.9 -0.00715
90.95 -0.01121
91 -0.01378
91.05 -0.0127
91.1 -0.01272
91.15 -0.01596
91.2 -0.01318
91.25 -0.01444
91.3 -0.01818
91.35 -0.01523
91.4 -0.01105
91.45 -0.00283
91.5 0.00503
91.55 0.01191
91.6 0.01307
91.65 0.01474
91.7 0.0181
91.75 0.01894
91.8 0.02163
91.85 0.0192
91.9 0.01916
91.95 0.01924
92 0.01823
92.05 0.01695
92.1 0.01099
92.15 0.00354
92.2 -0.00287
92.25 -0.00651
92.3 -0.00856
92.35 -0.01228
92.4 -0.01506
92.45 -0.01773
92.5 -0.01663
92.55 -0.01133
92.6 -0.00386
92.65 -0.00122
92.7 0.00333
92.75 0.00676
92.8 0.0107
92.85 0.01034
92.9 0.00624
92.95 0.00331
93 0.00016
93.05 0.00186
93.1 0.00097
93.15 0.00375
93.2 0.00446
93.25 0.00654
93.3 0.00648
93.35 0.00778
93.4 0.00896
93.45 0.00988
93.5 0.01023
93.55 0.00895
93.6 0.01135
93.65 0.00881
93.7 0.00286
93.75 0.00231
93.8 0.00261
93.85 0.00111
93.9 -0.002
93.95 -0.00576
94 -0.00419
94.05 -0.00622
94.1 -0.00957
94.15 -0.01301
94.2 -0.01112
94.25 -0.01169
94.3 -0.01076
94.35 -0.01138
94.4 -0.00801
94.45 -0.0082
94.5 -0.00509
94.55 -0.00493
94.6 -0.00729
94.65 -0.00437
94.7 -0.0012
94.75 0.00258
94.8 0.00599
94.85 0.0047
94.9 0.00059
94.95 -0.00581
95 -0.01354
95.05 -0.01892
95.1 -0.0197
95.15 -0.01535
95.2 -0.01448
95.25 -0.01689
95.3 -0.01651
95.35 -0.01497
95.4 -0.00831
95.45 -0.00651
95.5 -0.00016
95.55 0.00226
95.6 0.0075
95.65 0.00681
95.7 0.00454
95.75 0.00636
95.8 0.0056
95.85 0.0045
95.9 0.0014
95.95 0.00119
96 -0.00158
96.05 -0.00363
96.1 -0.00622
96.15 -0.00659
96.2 -0.00555
96.25 -0.00901
96.3 -0.01464
96.35 -0.01955
96.4 -0.01934
96.45 -0.01641
96.5 -0.0165
96.55 -0.01886
96.6 -0.01481
96.65 -0.01046
96.7 -0.00433
96.75 0.00302
96.8 0.01059
96.85 0.01712
96.9 0.02438
96.95 0.02406
97 0.02067
97.05 0.01743
97.1 0.01717
97.15 0.01237
97.2 0.00536
97.25 -0.00309
97.3 -0.00733
97.35 -0.00698
97.4 -0.00531
97.45 -0.00679
97.5 -0.00627
97.55 -0.00207
97.6 0.00448
97.65 0.01242
97.7 0.02116
97.75 0.02338
97.8 0.01904
97.85 0.01784
97.9 0.01298
97.95 0.01232
98 0.00761
98.05 0.00744
98.1 0.00319
98.15 0.00392
98.2 0.00486
98.25 0.00414
98.3 0.00298
98.35 0.00532
98.4 0.01027
98.45 0.00858
98.5 0.01128
98.55 0.0096
98.6 0.00504
98.65 0.00389
98.7 0.00348
98.75 0.00637
98.8 0.00297
98.85 0.00208
98.9 -0.00151
98.95 -0.0061
99 -0.00478
99.05 -0.00249
99.1 -0.00163
99.15 0.00157
99.2 0.00539
99.25 0.00387
99.3 -0.0014
99.35 -0.00425
99.4 -0.00919
99.45 -0.00865
99.5 -0.00994
99.55 -0.01218
99.6 -0.01014
99.65 -0.01209
99.7 -0.01389
99.75 -0.01255
99.8 -0.00637
99.85 -0.00049
99.9 0.00009
99.95 -0.00188
