0 0
0.05 0.00806
0.1 0.02041
0.15 0.03496
0.2 0.04127
0.25 0.04943
0.3 0.05314
0.35 0.0571
0.4 0.06112
0.45 0.06128
0.5 0.06194
0.55 0.06466
0.6 0.06474
0.65 0.05971
0.7 0.05734
0.75 0.05326
0.8 0.04565
0.85 0.03865
0.9 0.03531
0.95 0.03718
1 0.03814
1.05 0.03833
1.1 0.03431
1.15 0.02857
1.2 0.02751
1.25 0.02402
1.3 0.0209
1.35 0.0165
1.4 0.01225
1.45 0.01506
1.5 0.0212
1.55 0.02737
1.6 0.03509
1.65 0.04238
1.7 0.05105
1.75 0.05836
1.8 0.05864
1.85 0.05817
1.9 0.0534
1.95 0.04999
2 0.05005
2.05 0.04473
2.1 0.03797
2.15 0.0288
2.2 0.02605
2.25 0.02179
2.3 0.01767
2.35 0.01443
2.4 0.01103
2.45 0.00822
2.5 0.01006
2.55 0.00815
2.6 0.00908
2.65 0.01387
2.7 0.02242
2.75 0.02789
2.8 0.03059
2.85 0.03479
2.9 0.041
2.95 0.03923
3 0.03331
3.05 0.02647
3.1 0.01875
3.15 0.01386
3.2 0.01069
3.25 0.00714
3.3 0.00756
3.35 0.00833
3.4 0.00725
3.45 0.00374
3.5 0.00118
3.55 0.00517
3.6 0.01248
3.65 0.01526
3.7 0.02044
3.75 0.02603
3.8 0.03251
3.85 0.03461
3.9 0.03565
3.95 0.03337
4 0.0316
4.05 0.03041
4.1 0.02717
4.15 0.02313
4.2 0.02332
4.25 0.019
4.3 0.01723
4.35 0.01643
4.4 0.01103
4.45 -0.00086
4.5 -0.01179
4.55 -0.02552
4.6 -0.04398
4.65 -0.06118
4.7 -0.07576
4.75 -0.09394
4.8 -0.11723
4.85 -0.13865
4.9 -0.16103
4.95 -0.18725
5 -0.22022
5.05 -0.25759
5.1 -0.30041
5.15 -0.35107
5.2 -0.41589
5.25 -0.49037
5.3 -0.56407
5.35 -0.64121
5.4 -0.72216
5.45 -0.81228
5.5 -0.9057
5.55 -0.99801
5.6 -1.09163
5.65 -1.18103
5.7 -1.26845
5.75 -1.35499
5.8 -1.43624
5.85 -1.51837
5.9 -1.59807
5.95 -1.67746
6 -1.74691
6.05 -1.81436
6.1 -1.87816
6.15 -1.93962
6.2 -1.99693
6.25 -2.04137
6.3 -2.07755
6.35 -2.10496
6.4 -2.12858
6.45 -2.15021
6.5 -2.16544
6.55 -2.17372
6.6 -2.16839
6.65 -2.15252
6.7 -2.13029
6.75 -2.09884
6.8 -2.05639
6.85 -1.9955
6.9 -1.92229
6.95 -1.83225
7 -1.72834
7.05 -1.60797
7.1 -1.48108
7.15 -1.33872
7.2 -1.18699
7.25 -1.03161
7.3 -0.86889
7.35 -0.7004
7.4 -0.52471
7.45 -0.34968
7.5 -0.1708
7.55 0.00273
7.6 0.17892
7.65 0.34634
7.7 0.50461
7.75 0.6558
7.8 0.80162
7.85 0.94055
7.9 1.07527
7.95 1.20008
8 1.31896
8.05 1.42606
8.1 1.52183
8.15 1.60866
8.2 1.68179
8.25 1.74271
8.3 1.79858
8.35 1.84859
8.4 1.8899
8.45 1.92369
8.5 1.94958
8.55 1.97058
8.6 1.98869
8.65 2.00362
8.7 2.00702
8.75 2.0089
8.8 2.00598
8.85 1.99411
8.9 1.98277
8.95 1.96949
9 1.95222
9.05 1.93281
9.1 1.91177
9.15 1.88977
9.2 1.86213
9.25 1.83455
9.3 1.80506
9.35 1.77713
9.4 1.74574
9.45 1.7183
9.5 1.69334
9.55 1.66811
9.6 1.64432
9.65 1.61285
9.7 1.57629
9.75 1.53928
9.8 1.5011
9.85 1.46381
9.9 1.43131
9.95 1.39921
10 1.37181
10.05 1.34565
10.1 1.315
10.15 1.28099
10.2 1.24406
10.25 1.20508
10.3 1.16979
10.35 1.13647
10.4 1.1018
10.45 1.0645
10.5 1.0295
10.55 0.99844
10.6 0.96553
10.65 0.93267
10.7 0.89559
10.75 0.86137
10.8 0.82677
10.85 0.79435
10.9 0.76266
10.95 0.73024
11 0.69299
11.05 0.65387
11.1 0.61537
11.15 0.57492
11.2 0.53304
11.25 0.49166
11.3 0.45381
11.35 0.41726
11.4 0.38501
11.45 0.35373
11.5 0.32167
11.55 0.28817
11.6 0.2505
11.65 0.21809
11.7 0.18436
11.75 0.1504
11.8 0.11453
11.85 0.08199
11.9 0.05319
11.95 0.02506
12 0.00208
12.05 -0.0235
12.1 -0.04457
12.15 -0.06367
12.2 -0.08144
12.25 -0.09637
12.3 -0.11713
12.35 -0.14106
12.4 -0.16419
12.45 -0.18756
12.5 -0.20239
12.55 -0.21266
12.6 -0.22008
12.65 -0.23276
12.7 -0.2422
12.75 -0.25464
12.8 -0.2709
12.85 -0.28548
12.9 -0.30151
12.95 -0.31365
13 -0.31822
13.05 -0.32607
13.1 -0.33083
13.15 -0.33836
13.2 -0.34271
13.25 -0.3432
13.3 -0.34122
13.35 -0.33962
13.4 -0.33787
13.45 -0.34171
13.5 -0.34562
13.55 -0.35005
13.6 -0.35092
13.65 -0.34607
13.7 -0.34476
13.75 -0.34425
13.8 -0.34609
13.85 -0.34232
13.9 -0.33584
13.95 -0.32748
14 -0.31838
14.05 -0.31582
14.1 -0.31451
14.15 -0.3157
14.2 -0.31765
14.25 -0.31688
14.3 -0.31084
14.35 -0.30779
14.4 -0.30889
14.45 -0.31103
14.5 -0.31074
14.55 -0.30739
14.6 -0.30599
14.65 -0.30468
14.7 -0.30313
14.75 -0.29937
14.8 -0.29784
14.85 -0.28926
14.9 -0.27746
14.95 -0.26529
15 -0.2594
15.05 -0.25142
15.1 -0.24545
15.15 -0.24488
15.2 -0.2419
15.25 -0.23993
15.3 -0.23823
15.35 -0.23841
15.4 -0.23675
15.45 -0.23728
15.5 -0.237
15.55 -0.23808
15.6 -0.23477
15.65 -0.22931
15.7 -0.21963
15.75 -0.2086
15.8 -0.19642
15.85 -0.1864
15.9 -0.18077
15.95 -0.17862
16 -0.18084
16.05 -0.18522
16.1 -0.18322
16.15 -0.18372
16.2 -0.17822
16.25 -0.17767
16.3 -0.17898
16.35 -0.18077
16.4 -0.18237
16.45 -0.17679
16.5 -0.16797
16.55 -0.16315
16.6 -0.1623
16.65 -0.16073
16.7 -0.15508
16.75 -0.15255
16.8 -0.14597
16.85 -0.13653
16.9 -0.13308
16.95 -0.13339
17 -0.1311
17.05 -0.13119
17.1 -0.13281
17.15 -0.13543
17.2 -0.13313
17.25 -0.13207
17.3 -0.12911
17.35 -0.12678
17.4 -0.12217
17.45 -0.12187
17.5 -0.11728
17.55 -0.11007
17.6 -0.10933
17.65 -0.11068
17.7 -0.11194
17.75 -0.10788
17.8 -0.10796
17.85 -0.109
17.9 -0.11024
17.95 -0.11368
18 -0.1128
18.05 -0.10769
18.1 -0.09926
18.15 -0.08904
18.2 -0.07854
18.25 -0.06949
18.3 -0.06944
18.35 -0.07006
18.4 -0.06863
18.45 -0.06672
18.5 -0.06674
18.55 -0.07051
18.6 -0.07465
18.65 -0.07489
18.7 -0.07303
18.75 -0.07258
18.8 -0.07638
18.85 -0.08105
18.9 -0.08157
18.95 -0.07772
19 -0.07096
19.05 -0.06297
19.1 -0.06064
19.15 -0.05734
19.2 -0.05569
19.25 -0.05939
19.3 -0.06004
19.35 -0.05735
19.4 -0.05308
19.45 -0.05267
19.5 -0.05039
19.55 -0.05295
19.6 -0.05552
19.65 -0.05839
19.7 -0.05583
19.75 -0.05316
19.8 -0.05028
19.85 -0.04593
19.9 -0.04025
19.95 -0.03892
20 -0.03863
20.05 -0.04134
20.1 -0.04477
20.15 -0.05008
20.2 -0.05821
20.25 -0.06308
20.3 -0.06798
20.35 -0.07361
20.4 -0.07587
20.45 -0.07893
20.5 -0.07784
20.55 -0.07834
20.6 -0.07379
20.65 -0.06412
20.7 -0.05736
20.75 -0.04741
20.8 -0.04041
20.85 -0.03848
20.9 -0.04063
20.95 -0.04334
21 -0.0442
21.05 -0.04597
21.1 -0.04849
21.15 -0.04474
21.2 -0.04012
21.25 -0.03767
21.3 -0.04024
21.35 -0.04408
21.4 -0.04194
21.45 -0.03613
21.5 -0.03007
21.55 -0.03056
21.6 -0.03402
21.65 -0.03715
21.7 -0.03849
21.75 -0.03452
21.8 -0.03048
21.85 -0.02631
21.9 -0.02214
21.95 -0.02209
22 -0.01823
22.05 -0.01774
22.1 -0.02202
22.15 -0.0281
22.2 -0.03642
22.25 -0.0388
22.3 -0.03571
22.35 -0.03222
22.4 -0.03327
22.45 -0.03394
22.5 -0.03701
22.55 -0.04184
22.6 -0.04479
22.65 -0.04223
22.7 -0.0363
22.75 -0.03006
22.8 -0.02363
22.85 -0.01959
22.9 -0.01412
22.95 -0.01546
23 -0.01516
23.05 -0.01988
23.1 -0.01947
23.15 -0.01971
23.2 -0.01691
23.25 -0.01069
23.3 -0.00967
23.35 -0.00994
23.4 -0.00919
23.45 -0.01046
23.5 -0.01386
23.55 -0.01995
23.6 -0.02422
23.65 -0.02789
23.7 -0.0323
23.75 -0.03351
23.8 -0.02942
23.85 -0.02536
23.9 -0.02126
23.95 -0.02251
24 -0.02215
24.05 -0.01954
24.1 -0.01623
24.15 -0.01279
24.2 -0.01231
24.25 -0.01122
24.3 -0.00755
24.35 -0.00493
24.4 -0.00528
24.45 -0.00322
24.5 0.00055
24.55 0.00431
24.6 0.0083
24.65 0.01229
24.7 0.01421
24.75 0.01718
24.8 0.01848
24.85 0.01869
24.9 0.02002
24.95 0.01806
25 0.01059
25.05 0.00725
25.1 0.00576
25.15 0.00384
25.2 0.00144
25.25 0.00217
25.3 -0.00312
25.35 -0.01172
25.4 -0.01695
25.45 -0.01994
25.5 -0.01768
25.55 -0.01447
25.6 -0.00982
25.65 -0.0043
25.7 -0.00186
25.75 -0.00523
25.8 -0.00902
25.85 -0.01607
25.9 -0.01824
25.95 -0.02092
26 -0.02643
26.05 -0.02416
26.1 -0.02065
26.15 -0.01959
26.2 -0.01719
26.25 -0.01757
26.3 -0.01625
26.35 -0.01475
26.4 -0.01764
26.45 -0.01825
26.5 -0.01725
26.55 -0.01596
26.6 -0.01166
26.65 -0.01064
26.7 -0.00934
26.75 -0.01137
26.8 -0.00914
26.85 -0.01037
26.9 -0.01312
26.95 -0.01088
27 -0.00737
27.05 -0.00404
27.1 -0.00049
27.15 0.00079
27.2 0.00341
27.25 0.00042
27.3 -0.00653
27.35 -0.00692
27.4 -0.00957
27.45 -0.01401
27.5 -0.02043
27.55 -0.0235
27.6 -0.02017
27.65 -0.01313
27.7 -0.01246
27.75 -0.00729
27.8 -0.00517
27.85 -0.00113
27.9 0.00188
27.95 -0.00053
28 -0.00688
28.05 -0.01343
28.1 -0.01955
28.15 -0.02566
28.2 -0.03329
28.25 -0.0353
28.3 -0.03237
28.35 -0.03007
28.4 -0.02743
28.45 -0.02951
28.5 -0.02973
28.55 -0.03501
28.6 -0.03954
28.65 -0.04188
28.7 -0.05063
28.75 -0.06486
28.8 -0.07843
28.85 -0.09371
28.9 -0.11184
28.95 -0.12958
29 -0.14445
29.05 -0.15844
29.1 -0.17116
29.15 -0.18698
29.2 -0.19904
29.25 -0.21622
29.3 -0.23556
29.35 -0.25741
29.4 -0.27462
29.45 -0.29551
29.5 -0.31092
29.55 -0.32594
29.6 -0.3377
29.65 -0.35284
29.7 -0.36242
29.75 -0.36951
29.8 -0.3764
29.85 -0.38303
29.9 -0.38994
29.95 -0.39476
30 -0.39585
30.05 -0.39169
30.1 -0.38629
30.15 -0.37911
30.2 -0.37037
30.25 -0.36108
30.3 -0.35007
30.35 -0.33888
30.4 -0.32677
30.45 -0.30551
30.5 -0.28432
30.55 -0.26041
30.6 -0.23125
30.65 -0.19739
30.7 -0.16415
30.75 -0.12821
30.8 -0.09701
30.85 -0.06743
30.9 -0.03786
30.95 -0.00682
31 0.02482
31.05 0.05013
31.1 0.07109
31.15 0.09212
31.2 0.10953
31.25 0.12729
31.3 0.14395
31.35 0.15611
31.4 0.16823
31.45 0.18117
31.5 0.19306
31.55 0.19981
31.6 0.20896
31.65 0.21769
31.7 0.22447
31.75 0.23166
31.8 0.2351
31.85 0.24334
31.9 0.24636
31.95 0.24986
32 0.25613
32.05 0.25897
32.1 0.26253
32.15 0.26963
32.2 0.28023
32.25 0.28638
32.3 0.2888
32.35 0.29118
32.4 0.29826
32.45 0.3047
32.5 0.31253
32.55 0.32132
32.6 0.3321
32.65 0.33736
32.7 0.33888
32.75 0.33984
32.8 0.33803
32.85 0.33716
32.9 0.33938
32.95 0.33735
33 0.3298
33.05 0.3247
33.1 0.31396
33.15 0.30334
33.2 0.29507
33.25 0.28707
33.3 0.28296
33.35 0.2778
33.4 0.27325
33.45 0.26903
33.5 0.26158
33.55 0.25128
33.6 0.24381
33.65 0.23597
33.7 0.22245
33.75 0.21272
33.8 0.2057
33.85 0.19726
33.9 0.18377
33.95 0.17254
34 0.1606
34.05 0.15166
34.1 0.14613
34.15 0.13745
34.2 0.1321
34.25 0.12829
34.3 0.1221
34.35 0.11808
34.4 0.11258
34.45 0.10469
34.5 0.09318
34.55 0.08434
34.6 0.07567
34.65 0.06643
34.7 0.05439
34.75 0.04419
34.8 0.03183
34.85 0.02248
34.9 0.01655
34.95 0.01191
35 0.0133
35.05 0.01518
35.1 0.01546
35.15 0.01441
35.2 0.01695
35.25 0.0201
35.3 0.01615
35.35 0.00848
35.4 -0.00097
35.45 -0.00732
35.5 -0.0126
35.55 -0.01632
35.6 -0.0158
35.65 -0.0159
35.7 -0.01553
35.75 -0.01255
35.8 -0.00759
35.85 -0.00204
35.9 0.00313
35.95 0.00307
36 -0.00192
36.05 -0.00258
36.1 -0.00911
36.15 -0.01174
36.2 -0.01368
36.25 -0.01841
36.3 -0.0267
36.35 -0.03674
36.4 -0.04224
36.45 -0.04903
36.5 -0.05225
36.55 -0.05647
36.6 -0.06078
36.65 -0.06152
36.7 -0.05567
36.75 -0.0522
36.8 -0.04695
36.85 -0.04253
36.9 -0.04006
36.95 -0.03756
37 -0.0364
37.05 -0.03704
37.1 -0.04067
37.15 -0.04213
37.2 -0.04102
37.25 -0.03599
37.3 -0.03791
37.35 -0.04409
37.4 -0.04408
37.45 -0.04677
37.5 -0.05199
37.55 -0.05041
37.6 -0.0483
37.65 -0.04242
37.7 -0.04314
37.75 -0.04757
37.8 -0.04863
37.85 -0.05279
37.9 -0.05697
37.95 -0.05731
38 -0.05986
38.05 -0.06133
38.1 -0.06133
38.15 -0.06078
38.2 -0.05872
38.25 -0.05163
38.3 -0.04309
38.35 -0.04211
38.4 -0.04042
38.45 -0.03681
38.5 -0.03946
38.55 -0.03973
38.6 -0.03577
38.65 -0.03488
38.7 -0.03364
38.75 -0.03651
38.8 -0.04204
38.85 -0.04296
38.9 -0.04018
38.95 -0.04051
39 -0.04446
39.05 -0.04552
39.1 -0.04659
39.15 -0.04594
39.2 -0.04099
39.25 -0.03741
39.3 -0.03117
39.35 -0.03202
39.4 -0.03172
39.45 -0.03185
39.5 -0.03415
39.55 -0.03457
39.6 -0.03516
39.65 -0.03579
39.7 -0.03188
39.75 -0.02682
39.8 -0.02075
39.85 -0.01571
39.9 -0.01616
39.95 -0.02135
40 -0.02371
40.05 -0.02658
40.1 -0.03234
40.15 -0.03817
40.2 -0.04539
40.25 -0.0517
40.3 -0.0547
40.35 -0.05226
40.4 -0.04612
40.45 -0.0403
40.5 -0.0349
40.55 -0.02603
40.6 -0.01695
40.65 -0.00806
40.7 -0.00622
40.75 -0.01054
40.8 -0.01755
40.85 -0.02535
40.9 -0.02797
40.95 -0.02597
41 -0.02081
41.05 -0.022
41.1 -0.02678
41.15 -0.03269
41.2 -0.0373
41.25 -0.03798
41.3 -0.03422
41.35 -0.02789
41.4 -0.02633
41.45 -0.02835
41.5 -0.02621
41.55 -0.01958
41.6 -0.01389
41.65 -0.00984
41.7 -0.00437
41.75 -0.00411
41.8 -0.00751
41.85 -0.00628
41.9 -0.00175
41.95 0.00455
42 0.00367
42.05 0.00615
42.1 0.00849
42.15 0.00822
42.2 0.0054
42.25 0.00005
42.3 -0.00571
42.35 -0.01334
42.4 -0.0177
42.45 -0.01798
42.5 -0.01812
42.55 -0.01979
42.6 -0.02355
42.65 -0.02557
42.7 -0.02693
42.75 -0.02998
42.8 -0.0286
42.85 -0.03076
42.9 -0.03184
42.95 -0.02653
43 -0.02351
43.05 -0.01926
43.1 -0.01363
43.15 -0.01372
43.2 -0.00959
43.25 -0.00417
43.3 -0.00262
43.35 -0.00652
43.4 -0.00979
43.45 -0.01508
43.5 -0.0162
43.55 -0.01721
43.6 -0.01705
43.65 -0.01819
43.7 -0.022
43.75 -0.02099
43.8 -0.01528
43.85 -0.01175
43.9 -0.00786
43.95 -0.00859
44 -0.01
44.05 -0.00693
44.1 -0.00156
44.15 0.00316
44.2 0.00569
44.25 0.0033
44.3 0.00166
44.35 -0.0004
44.4 -0.00206
44.45 -0.00648
44.5 -0.01208
44.55 -0.01764
44.6 -0.02407
44.65 -0.02324
44.7 -0.01956
44.75 -0.01748
44.8 -0.01953
44.85 -0.01945
44.9 -0.0146
44.95 -0.0068
45 0.00086
45.05 0.00636
45.1 0.01193
45.15 0.01708
45.2 0.02081
45.25 0.02248
45.3 0.0179
45.35 0.00839
45.4 0.00511
45.45 0.00389
45.5 0.00623
45.55 0.00289
45.6 0.00225
45.65 0.0003
45.7 -0.00337
45.75 -0.00942
45.8 -0.00976
45.85 -0.01398
45.9 -0.01696
45.95 -0.01969
46 -0.02368
46.05 -0.02049
46.1 -0.01436
46.15 -0.00976
46.2 -0.01017
46.25 -0.01148
46.3 -0.01571
46.35 -0.0216
46.4 -0.02774
46.45 -0.02796
46.5 -0.02344
46.55 -0.02184
46.6 -0.01969
46.65 -0.01308
46.7 -0.00903
46.75 -0.00403
46.8 0.00362
46.85 0.00877
46.9 0.00942
46.95 0.00828
47 0.0047
47.05 -0.00174
47.1 -0.00359
47.15 -0.00749
47.2 -0.00543
47.25 -0.00431
47.3 -0.00629
47.35 -0.01088
47.4 -0.01515
47.45 -0.0192
47.5 -0.02258
47.55 -0.01897
47.6 -0.0153
47.65 -0.01246
47.7 -0.00721
47.75 -0.00367
47.8 -0.00176
47.85 0.00383
47.9 0.00533
47.95 0.00812
48 0.01055
48.05 0.01386
48.1 0.01191
48.15 0.00703
48.2 -0.00061
48.25 -0.00122
48.3 0.0014
48.35 0.0014
48.4 -0.00302
48.45 -0.00103
48.5 -0.00176
48.55 -0.00309
48.6 -0.00643
48.65 -0.01134
48.7 -0.01111
48.75 -0.01065
48.8 -0.00611
48.85 -0.00578
48.9 -0.00501
48.95 -0.00611
49 -0.00879
49.05 -0.00833
49.1 -0.00593
49.15 -0.00299
49.2 -0.0018
49.25 0.00176
49.3 0.0004
49.35 0.00246
49.4 0.0012
49.45 0.00085
49.5 -0.0034
49.55 -0.00499
49.6 -0.00209
49.65 -0.0034
49.7 -0.00525
49.75 -0.01058
49.8 -0.01596
49.85 -0.01365
49.9 -0.01445
49.95 -0.01315
50 -0.01015
50.05 -0.00391
50.1 -0.0033
50.15 -0.00507
50.2 -0.00524
50.25 -0.00072
50.3 0.00439
50.35 0.00749
50.4 0.01107
50.45 0.01334
50.5 0.01445
50.55 0.0147
50.6 0.01374
50.65 0.0105
50.7 0.01136
50.75 0.01405
50.8 0.0104
50.85 0.00687
50.9 0.00843
50.95 0.00897
51 0.01033
51.05 0.01201
51.1 0.01379
51.15 0.01646
51.2 0.01916
51.25 0.01655
51.3 0.01728
51.35 0.01771
51.4 0.0198
51.45 0.0192
51.5 0.01364
51.55 0.00784
51.6 -0.0006
51.65 -0.00222
51.7 -0.0049
51.75 -0.00943
51.8 -0.0136
51.85 -0.01346
51.9 -0.01207
51.95 -0.00677
52 0.00156
52.05 0.0076
52.1 0.00643
52.15 0.0037
52.2 0.00204
52.25 -0.00201
52.3 -0.00896
52.35 -0.01008
52.4 -0.00773
52.45 -0.00555
52.5 -0.00597
52.55 -0.00602
52.6 -0.00918
52.65 -0.00892
52.7 -0.01266
52.75 -0.01432
52.8 -0.01137
52.85 -0.00888
52.9 -0.00515
52.95 -0.00227
53 0.00335
53.05 0.00986
53.1 0.00964
53.15 0.00707
53.2 0.0018
53.25 0.00042
53.3 0.00056
53.35 0.00252
53.4 0.00352
53.45 0.00339
53.5 0.00497
53.55 0.00324
53.6 0.00287
53.65 0.0019
53.7 -0.00092
53.75 -0.00622
53.8 -0.01184
53.85 -0.01786
53.9 -0.01568
53.95 -0.01746
54 -0.02178
54.05 -0.02421
54.1 -0.02836
54.15 -0.03013
54.2 -0.02872
54.25 -0.02111
54.3 -0.01577
54.35 -0.01035
54.4 -0.00322
54.45 -0.00061
54.5 0.00005
54.55 -0.0028
54.6 -0.00114
54.65 0.00232
54.7 0.00544
54.75 0.00688
54.8 0.00722
54.85 0.01124
54.9 0.01167
54.95 0.01536
55 0.01393
55.05 0.01612
55.1 0.02048
55.15 0.01848
55.2 0.01551
55.25 0.00926
55.3 0.00761
55.35 0.00285
55.4 -0.00094
55.45 -0.00719
55.5 -0.01419
55.55 -0.01845
55.6 -0.01774
55.65 -0.01598
55.7 -0.014
55.75 -0.01079
55.8 -0.01205
55.85 -0.01087
55.9 -0.00671
55.95 -0.00675
56 -0.00281
56.05 -0.00446
56.1 -0.00946
56.15 -0.00881
56.2 -0.00661
56.25 -0.00893
56.3 -0.01074
56.35 -0.01348
56.4 -0.01525
56.45 -0.01152
56.5 -0.00656
56.55 -0.00355
56.6 0.00214
56.65 0.00846
56.7 0.00758
56.75 0.00991
56.8 0.00703
56.85 0.00479
56.9 0.00019
56.95 -0.00065
57 -0.00048
57.05 0.00138
57.1 0.00498
57.15 0.00481
57.2 0.00634
57.25 0.01031
57.3 0.01526
57.35 0.02157
57.4 0.02122
57.45 0.01595
57.5 0.01147
57.55 0.01167
57.6 0.01438
57.65 0.01796
57.7 0.0157
57.75 0.0105
57.8 0.00354
57.85 -0.00577
57.9 -0.00804
57.95 -0.01323
58 -0.01927
58.05 -0.02499
58.1 -0.02594
58.15 -0.02036
58.2 -0.01333
58.25 -0.00358
58.3 0.0068
58.35 0.01232
58.4 0.01575
58.45 0.02114
58.5 0.02623
58.55 0.02371
58.6 0.01996
58.65 0.01959
58.7 0.0158
58.75 0.01653
58.8 0.01635
58.85 0.0117
58.9 0.00484
58.95 -0.00409
59 -0.00615
59.05 -0.00572
59.1 -0.00145
59.15 -0.0031
59.2 -0.00832
59.25 -0.0152
59.3 -0.01692
59.35 -0.01753
59.4 -0.01453
59.45 -0.00974
59.5 -0.0045
59.55 -0.00029
59.6 0.00056
59.65 0.00413
59.7 0.0067
59.75 0.00317
59.8 0.0027
59.85 0.00111
59.9 -0.00297
59.95 -0.00724
60 -0.00571
60.05 -0.00617
60.1 -0.00383
60.15 -0.00167
60.2 -0.00033
60.25 -0.00239
60.3 -0.00519
60.35 -0.00573
60.4 -0.00379
60.45 -0.00223
60.5 -0.00177
60.55 -0.00467
60.6 -0.00477
60.65 -0.009
60.7 -0.01384
60.75 -0.02032
60.8 -0.0215
60.85 -0.02207
60.9 -0.02094
60.95 -0.01572
61 -0.01092
61.05 -0.00762
61.1 -0.00532
61.15 0.00086
61.2 0.00584
61.25 0.01163
61.3 0.01302
61.35 0.01039
61.4 0.00993
61.45 0.00502
61.5 0.00296
61.55 0.00326
61.6 0.00042
61.65 0.00187
61.7 0.00223
61.75 0.00359
61.8 0.0083
61.85 0.01121
61.9 0.00767
61.95 0.00664
62 0.00409
62.05 -0.00006
62.1 -0.00129
62.15 -0.00428
62.2 -0.00379
62.25 -0.00308
62.3 0.00148
62.35 0.00004
62.4 -0.004
62.45 -0.00396
62.5 -0.00016
62.55 0.00431
62.6 0.00909
62.65 0.01389
62.7 0.01935
62.75 0.01991
62.8 0.01806
62.85 0.0117
62.9 0.00787
62.95 0.00891
63 0.00815
63.05 0.003
63.1 -0.00356
63.15 -0.00608
63.2 -0.00584
63.25 -0.00464
63.3 -0.00534
63.35 -0.00439
63.4 -0.00364
63.45 -0.00595
63.5 -0.0031
63.55 0.00136
63.6 0.00331
63.65 0.00249
63.7 0.00467
63.75 0.00642
63.8 0.00822
63.85 0.00966
63.9 0.00837
63.95 0.00727
64 0.00764
64.05 0.00602
64.1 0.00851
64.15 0.00575
64.2 -0.00001
64.25 -0.00207
64.3 -0.00715
64.35 -0.00608
64.4 -0.00694
64.45 -0.00458
64.5 -0.00233
64.55 -0.00201
64.6 -0.00358
64.65 -0.0086
64.7 -0.00727
64.75 -0.0092
64.8 -0.01091
64.85 -0.01499
64.9 -0.01837
64.95 -0.01839
65 -0.01794
65.05 -0.02009
65.1 -0.01673
65.15 -0.01289
65.2 -0.01313
65.25 -0.01284
65.3 -0.01068
65.35 -0.01167
65.4 -0.01025
65.45 -0.01222
65.5 -0.01379
65.55 -0.00975
65.6 -0.00696
65.65 0.00015
65.7 0.0015
65.75 0.0016
65.8 0.00555
65.85 0.01065
65.9 0.00956
65.95 0.00945
66 0.00444
66.05 0.00462
66.1 0.00026
66.15 -0.00045
66.2 -0.00432
66.25 -0.0027
66.3 -0.00049
66.35 0.00043
66.4 0.00197
66.45 -0.00172
66.5 -0.00583
66.55 -0.01245
66.6 -0.01868
66.65 -0.0239
66.7 -0.02966
66.75 -0.02886
66.8 -0.02245
66.85 -0.01304
66.9 -0.00698
66.95 -0.00248
67 0.00358
67.05 0.00483
67.1 0.00241
67.15 -0
67.2 -0.00134
67.25 0.00226
67.3 0.00195
67.35 0.00302
67.4 -0.0003
67.45 -0.00546
67.5 -0.00531
67.55 -0.00112
67.6 0.00292
67.65 0.00917
67.7 0.01347
67.75 0.01701
67.8 0.01459
67.85 0.01389
67.9 0.00939
67.95 0.00785
68 0.00312
68.05 0.00006
68.1 0.00007
68.15 0.00126
68.2 0.00099
68.25 0.001
68.3 0.00211
68.35 0.00608
68.4 0.01091
68.45 0.01119
68.5 0.01229
68.55 0.01581
68.6 0.0131
68.65 0.01003
68.7 0.01131
68.75 0.01206
68.8 0.00774
68.85 0.00369
68.9 -0.00032
68.95 0.00058
69 0.00426
69.05 0.00963
69.1 0.01478
69.15 0.01955
69.2 0.0244
69.25 0.02117
69.3 0.01432
69.35 0.00639
69.4 -0.00066
69.45 -0.00092
69.5 0.00101
69.55 0.00658
69.6 0.00631
69.65 0.00266
69.7 -0.00307
69.75 -0.00807
69.8 -0.00699
69.85 -0.00374
69.9 -0.00229
69.95 0.00118
70 -0.00045
70.05 -0.00602
70.1 -0.00618
70.15 -0.00315
70.2 -0.00518
70.25 -0.00909
70.3 -0.0155
70.35 -0.01578
70.4 -0.01193
70.45 -0.01322
70.5 -0.01073
70.55 -0.00369
70.6 0.00075
70.65 0.0038
70.7 0.00932
70.75 0.01048
70.8 0.01335
70.85 0.01165
70.9 0.01017
70.95 0.00945
71 0.00453
71.05 0.00523
71.1 0.00633
71.15 0.00441
71.2 -0.00139
71.25 -0.00762
71.3 -0.00923
71.35 -0.00793
71.4 -0.01027
71.45 -0.00767
71.5 -0.00344
71.55 0.00169
71.6 0.00862
71.65 0.01047
71.7 0.01165
71.75 0.00868
71.8 0.0105
71.85 0.01302
71.9 0.01604
71.95 0.01872
72 0.01538
72.05 0.00911
72.1 0.00843
72.15 0.00719
72.2 0.00251
72.25 -0.00188
72.3 -0.00203
72.35 -0.00568
72.4 -0.00381
72.45 -0.00684
72.5 -0.00653
72.55 -0.00658
72.6 -0.00299
72.65 -0.00078
72.7 0.0035
72.75 0.00984
72.8 0.01462
72.85 0.01678
72.9 0.01945
72.95 0.01638
73 0.0135
73.05 0.00808
73.1 0.00414
73.15 -0.00038
73.2 -0.00628
73.25 -0.0138
73.3 -0.01727
73.35 -0.01575
73.4 -0.01424
73.45 -0.00894
73.5 -0.00305
73.55 0.00361
73.6 0.00693
73.65 0.00944
73.7 0.00659
73.75 0.00637
73.8 0.00438
73.85 -0.00194
73.9 -0.00614
73.95 -0.00467
74 -0.00121
74.05 0.00452
74.1 0.00733
74.15 0.00618
74.2 0.00155
74.25 0.00062
74.3 0.0001
74.35 -0.00238
74.4 -0.00051
74.45 0.00189
74.5 0.0005
74.55 -0.00226
74.6 -0.0088
74.65 -0.00817
74.7 -0.01086
74.75 -0.01272
74.8 -0.01641
74.85 -0.01545
74.9 -0.01674
74.95 -0.0143
75 -0.00799
75.05 -0.00756
75.1 -0.00649
75.15 -0.00938
75.2 -0.00632
75.25 -0.00834
75.3 -0.00447
75.35 -0.00356
75.4 -0.00497
75.45 -0.00829
75.5 -0.00744
75.55 -0.0099
75.6 -0.0063
75.65 -0.00098
75.7 0.00447
75.75 0.00667
75.8 0.00388
75.85 0.00272
75.9 -0.00154
75.95 -0.00347
76 -0.00861
76.05 -0.01374
76.1 -0.01543
76.15 -0.01548
76.2 -0.01729
76.25 -0.02126
76.3 -0.02186
76.35 -0.0237
76.4 -0.02182
76.45 -0.01931
76.5 -0.01461
76.55 -0.01206
76.6 -0.00781
76.65 -0.00365
76.7 0.00188
76.75 0.00916
76.8 0.00884
76.85 0.01138
76.9 0.01004
76.95 0.00983
77 0.00809
77.05 0.00215
77.1 -0.00419
77.15 -0.00648
77.2 -0.00851
77.25 -0.00566
77.3 -0.00448
77.35 -0.00102
77.4 0.00409
77.45 0.01096
77.5 0.01249
77.55 0.00797
77.6 0.00223
77.65 -0.0026
77.7 -0.0071
77.75 -0.01207
77.8 -0.0143
77.85 -0.01486
77.9 -0.01299
77.95 -0.00932
78 -0.00202
78.05 0.00216
78.1 0.0054
78.15 0.00624
78.2 0.00193
78.25 -0.00221
78.3 -0.00468
78.35 -0.00339
78.4 0.0017
78.45 0.00916
78.5 0.01239
78.55 0.00974
78.6 0.01048
78.65 0.0086
78.7 0.00289
78.75 0.00313
78.8 0.00142
78.85 0.00107
78.9 0.00528
78.95 0.00329
79 -0.00204
79.05 -0.00706
79.1 -0.0122
79.15 -0.01672
79.2 -0.01983
79.25 -0.01591
79.3 -0.01369
79.35 -0.00772
79.4 -0.00385
79.45 -0.00558
79.5 -0.00835
79.55 -0.00863
79.6 -0.00363
79.65 0.00154
79.7 0.00135
79.75 -0.00025
79.8 0.00118
79.85 0.0013
79.9 -0.00014
79.95 -0.00449
80 -0.00743
80.05 -0.00817
80.1 -0.00836
80.15 -0.00316
80.2 -0.0015
80.25 -0.00292
80.3 -0.0008
80.35 -0.00041
80.4 -0.00059
80.45 0.00382
80.5 0.00599
80.55 0.00682
80.6 0.00942
80.65 0.00622
80.7 0.00394
80.75 0.00663
80.8 0.00639
80.85 0.00163
80.9 -0.0049
80.95 -0.00998
81 -0.01177
81.05 -0.01094
81.1 -0.00643
81.15 -0.00637
81.2 -0.00784
81.25 -0.00498
81.3 -0.00343
81.35 -0.0066
81.4 -0.00611
81.45 -0.00645
81.5 -0.00348
81.55 0.00188
81.6 0.0016
81.65 0.00024
81.7 -0.00373
81.75 -0.0101
81.8 -0.01213
81.85 -0.00797
81.9 -0.00753
81.95 -0.00388
82 -0.00196
82.05 -0.00447
82.1 -0.00104
82.15 -0.00057
82.2 0.00259
82.25 0.0027
82.3 0.00635
82.35 0.01095
82.4 0.01212
82.45 0.01657
82.5 0.02146
82.55 0.01967
82.6 0.01708
82.65 0.01613
82.7 0.0165
82.75 0.01281
82.8 0.01141
82.85 0.00793
82.9 0.00074
82.95 -0.00625
83 -0.00773
83.05 -0.01062
83.1 -0.01117
83.15 -0.00998
83.2 -0.00797
83.25 -0.00811
83.3 -0.00749
83.35 -0.01026
83.4 -0.01018
83.45 -0.01188
83.5 -0.00895
83.55 -0.00861
83.6 -0.01039
83.65 -0.00776
83.7 -0.00734
83.75 -0.00367
83.8 0.00169
83.85 0.00481
83.9 0.00502
83.95 0.0037
84 0.00241
84.05 -0.00046
84.1 -0.00464
84.15 -0.00505
84.2 -0.00517
84.25 -0.00729
84.3 -0.00717
84.35 -0.00224
84.4 -0.0014
84.45 0.00251
84.5 0.00927
84.55 0.01215
84.6 0.00918
84.65 0.00662
84.7 0.00453
84.75 0.00397
84.8 0.00749
84.85 0.01222
84.9 0.01223
84.95 0.01565
85 0.02062
85.05 0.01998
85.1 0.01814
85.15 0.01337
85.2 0.00856
85.25 0.00922
85.3 0.00517
85.35 0.00307
85.4 0.00563
85.45 0.01109
85.5 0.01387
85.55 0.01788
85.6 0.02067
85.65 0.01646
85.7 0.01535
85.75 0.01552
85.8 0.01552
85.85 0.01184
85.9 0.00473
85.95 -0.00284
86 -0.0052
86.05 -0.00299
86.1 -0.00034
86.15 -0.00086
86.2 -0.00219
86.25 -0.00336
86.3 -0.00363
86.35 -0.00031
86.4 0.006
86.45 0.00768
86.5 0.00351
86.55 0.00223
86.6 0.00043
86.65 0.00147
86.7 -0.00085
86.75 -0.0068
86.8 -0.0146
86.85 -0.0178
86.9 -0.01462
86.95 -0.01474
87 -0.01769
87.05 -0.02182
87.1 -0.02311
87.15 -0.02177
87.2 -0.01624
87.25 -0.01049
87.3 -0.0042
87.35 -0.00067
87.4 0.00011
87.45 0.00188
87.5 0.0065
87.55 0.01258
87.6 0.01696
87.65 0.02053
87.7 0.01898
87.75 0.01268
87.8 0.01079
87.85 0.01108
87.9 0.01423
87.95 0.01136
88 0.01166
88.05 0.0063
88.1 -0.00062
88.15 -0.00148
88.2 -0.00169
88.25 -0.00217
88.3 0.00178
88.35 0.00828
88.4 0.00782
88.45 0.00431
88.5 0.0051
88.55 0.00395
88.6 0.00537
88.65 0.00361
88.7 -0.00037
88.75 -0.00268
88.8 -0.001
88.85 -0.00276
88.9 -0.00822
88.95 -0.01579
89 -0.01624
89.05 -0.01835
89.1 -0.01511
89.15 -0.00977
89.2 -0.009
89.25 -0.00648
89.3 -0.00384
89.35 -0.00661
89.4 -0.00568
89.45 -0.00763
89.5 -0.00599
89.55 -0.00406
89.6 -0.00118
89.65 0.00125
89.7 0.00294
89.75 0.00289
89.8 -0.00159
89.85 -0.00453
89.9 -0.00817
89.95 -0.00885
90 -0.0122
90.05 -0.01697
90.1 -0.02228
90.15 -0.02151
90.2 -0.02218
90.25 -0.02133
90.3 -0.02015
90.35 -0.01993
90.4 -0.0221
90.45 -0.02318
90.5 -0.02355
90.55 -0.02232
90.6 -0.01531
90.65 -0.0087
90.7 -0.00598
90.75 -0.00793
90.8 -0.00364
90.85 -0.00372
90.9 -0.0042
90.95 -0.00353
91 0.00066
91.05 0.00546
91.1 0.00987
91.15 0.01195
91.2 0.01646
91.25 0.02005
91.3 0.02345
91.35 0.02219
91.4 0.01624
91.45 0.01196
91.5 0.01061
91.55 0.01039
91.6 0.00708
91.65 0.00709
91.7 0.00248
91.75 -0.00163
91.8 -0.0036
91.85 -0.00277
91.9 0.00227
91.95 0.00522
92 0.00418
92.05 0.00567
92.1 0.00618
92.15 0.00761
92.2 0.00772
92.25 0.00545
92.3 0.00721
92.35 0.00502
92.4 0.00496
92.45 0.00643
92.5 0.00223
92.55 0.00035
92.6 0.00163
92.65 0.00549
92.7 0.01157
92.75 0.0137
92.8 0.01374
92.85 0.01062
92.9 0.00809
92.95 0.00131
93 -0.00316
93.05 -0.00304
93.1 -0.00028
93.15 -0.00052
93.2 -0.00484
93.25 -0.00588
93.3 -0.00737
93.35 -0.00585
93.4 -0.00467
93.45 -0.00529
93.5 -0.00564
93.55 -0.00794
93.6 -0.01321
93.65 -0.01595
93.7 -0.0149
93.75 -0.01152
93.8 -0.01103
93.85 -0.00515
93.9 -0.00001
93.95 0.00673
94 0.01154
94.05 0.01609
94.1 0.01655
94.15 0.01567
94.2 0.01532
94.25 0.01101
94.3 0.00922
94.35 0.00539
94.4 0.00296
94.45 0.00096
94.5 -0.00045
94.55 0.00045
94.6 -0.00371
94.65 -0.00719
94.7 -0.00684
94.75 -0.00342
94.8 -0.0019
94.85 -0.00179
94.9 0.00062
94.95 -0.00229
95 -0.00716
95.05 -0.00547
95.1 -0.0035
95.15 -0.00204
95.2 0.00134
95.25 0.00007
95.3 0.00081
95.35 -0.00116
95.4 0.00206
95.45 0.00633
95.5 0.01165
95.55 0.01778
95.6 0.0212
95.65 0.02361
95.7 0.02571
95.75 0.02367
95.8 0.01683
95.85 0.0087
95.9 0.00192
95.95 -0.00746
96 -0.01735
96.05 -0.02509
96.1 -0.02543
96.15 -0.01939
96.2 -0.0161
96.25 -0.00957
96.3 -0.00784
96.35 -0.00808
96.4 -0.00704
96.45 -0.00304
96.5 -0.00295
96.55 -0.00144
96.6 0.00334
96.65 0.0104
96.7 0.01118
96.75 0.01034
96.8 0.00718
96.85 0.00553
96.9 0.00228
96.95 0.00041
97 0.00348
97.05 0.00124
97.1 0.00155
97.15 -0.00317
97.2 -0.00368
97.25 -0.00403
97.3 -0.00273
97.35 -0.0001
97.4 0.0006
97.45 0.00066
97.5 0.00229
97.55 -0.00081
97.6 -0.0064
97.65 -0.0062
97.7 -0.00443
97.75 -0.00028
97.8 0.00494
97.85 0.00645
97.9 0.00686
97.95 0.01041
98 0.01266
98.05 0.01513
98.1 0.01636
98.15 0.01958
98.2 0.02413
98.25 0.02193
98.3 0.01483
98.35 0.01237
98.4 0.00885
98.45 0.00924
98.5 0.009
98.55 0.00737
98.6 0.00505
98.65 0.00537
98.7 0.00103
98.75 -0.00413
98.8 -0.00936
98.85 -0.00795
98.9 -0.00578
98.95 -0.00765
99 -0.00595
99.05 -0.0044
99.1 -0.00614
99.15 -0.00343
99.2 -0.00521
99.25 -0.00815
99.3 -0.01111
99.35 -0.01042
99.4 -0.01374
99.45 -0.01591
99.5 -0.01367
99.55 -0.01498
99.6 -0.01851
99.65 -0.01957
99.7 -0.02066
99.75 -0.01531
99.8 -0.00983
99.85 -0.00243
99.9 0.00049
99.95 0.00384
