0 0
0.05 0.00262
0.1 0.01296
0.15 0.02649
0.2 0.03323
0.25 0.03609
0.3 0.03794
0.35 0.04305
0.4 0.04454
0.45 0.04374
0.5 0.04049
0.55 0.03557
0.6 0.03298
0.65 0.03637
0.7 0.04053
0.75 0.04476
0.8 0.04376
0.85 0.04514
0.9 0.04917
0.95 0.0553
1 0.05466
1.05 0.05284
1.1 0.0543
1.15 0.05618
1.2 0.05794
1.25 0.05791
1.3 0.05698
1.35 0.05196
1.4 0.04528
1.45 0.04406
1.5 0.04545
1.55 0.04833
1.6 0.04699
1.65 0.04352
1.7 0.03926
1.75 0.03582
1.8 0.03161
1.85 0.03093
1.9 0.0275
1.95 0.0236
2 0.02101
2.05 0.02183
2.1 0.02783
2.15 0.03218
2.2 0.03701
2.25 0.04054
2.3 0.03746
2.35 0.03808
2.4 0.03928
2.45 0.03645
2.5 0.03088
2.55 0.02861
2.6 0.03077
2.65 0.03442
2.7 0.03513
2.75 0.03854
2.8 0.04397
2.85 0.04291
2.9 0.04242
2.95 0.03887
3 0.03848
3.05 0.0403
3.1 0.0379
3.15 0.03182
3.2 0.0293
3.25 0.02682
3.3 0.02091
3.35 0.01404
3.4 0.01193
3.45 0.01397
3.5 0.01248
3.55 0.00934
3.6 0.00619
3.65 0.0084
3.7 0.01162
3.75 0.01668
3.8 0.02164
3.85 0.02261
3.9 0.01998
3.95 0.01937
4 0.01434
4.05 0.01374
4.1 0.00871
4.15 0.0033
4.2 -0.00433
4.25 -0.00846
4.3 -0.00658
4.35 -0.00873
4.4 -0.01052
4.45 -0.01517
4.5 -0.02289
4.55 -0.03404
4.6 -0.04584
4.65 -0.06135
4.7 -0.07277
4.75 -0.08415
4.8 -0.10179
4.85 -0.12589
4.9 -0.1548
4.95 -0.18543
5 -0.22329
5.05 -0.27004
5.1 -0.31617
5.15 -0.36444
5.2 -0.42293
5.25 -0.48978
5.3 -0.56023
5.35 -0.63438
5.4 -0.70734
5.45 -0.78578
5.5 -0.86796
5.55 -0.94968
5.6 -1.02736
5.65 -1.10514
5.7 -1.18223
5.75 -1.26194
5.8 -1.34107
5.85 -1.41837
5.9 -1.48939
5.95 -1.54808
6 -1.59489
6.05 -1.63838
6.1 -1.68026
6.15 -1.7137
6.2 -1.74282
6.25 -1.76456
6.3 -1.78135
6.35 -1.79043
6.4 -1.78849
6.45 -1.7803
6.5 -1.75885
6.55 -1.72844
6.6 -1.69662
6.65 -1.65259
6.7 -1.59945
6.75 -1.54124
6.8 -1.47067
6.85 -1.39502
6.9 -1.30726
6.95 -1.20778
7 -1.09743
7.05 -0.97673
7.1 -0.85149
7.15 -0.72268
7.2 -0.59118
7.25 -0.45539
7.3 -0.31899
7.35 -0.1795
7.4 -0.04103
7.45 0.09728
7.5 0.24051
7.55 0.37775
7.6 0.51092
7.65 0.63773
7.7 0.75622
7.75 0.86548
7.8 0.96773
7.85 1.06714
7.9 1.15718
7.95 1.23468
8 1.30209
8.05 1.35968
8.1 1.40554
8.15 1.4493
8.2 1.48537
8.25 1.51501
8.3 1.53928
8.35 1.55806
8.4 1.56716
8.45 1.57298
8.5 1.57262
8.55 1.56788
8.6 1.56293
8.65 1.55872
8.7 1.55318
8.75 1.54382
8.8 1.5303
8.85 1.51577
8.9 1.5025
8.95 1.48924
9 1.47589
9.05 1.46013
9.1 1.44739
9.15 1.43604
9.2 1.42548
9.25 1.41468
9.3 1.39942
9.35 1.3781
9.4 1.35216
9.45 1.32457
9.5 1.30117
9.55 1.27961
9.6 1.25548
9.65 1.22778
9.7 1.20113
9.75 1.17602
9.8 1.15168
9.85 1.13055
9.9 1.10396
9.95 1.08077
10 1.05575
10.05 1.0333
10.1 1.00961
10.15 0.97889
10.2 0.95066
10.25 0.91906
10.3 0.88645
10.35 0.85412
10.4 0.81655
10.45 0.78477
10.5 0.75007
10.55 0.71227
10.6 0.67551
10.65 0.6395
10.7 0.60914
10.75 0.57473
10.8 0.54495
10.85 0.51748
10.9 0.48424
10.95 0.45561
11 0.42368
11.05 0.39238
11.1 0.36193
11.15 0.32934
11.2 0.2954
11.25 0.26056
11.3 0.22923
11.35 0.1994
11.4 0.1745
11.45 0.15238
11.5 0.13037
11.55 0.10246
11.6 0.07534
11.65 0.05379
11.7 0.03558
11.75 0.01266
11.8 -0.01348
11.85 -0.04007
11.9 -0.05857
11.95 -0.07587
12 -0.09704
12.05 -0.11604
12.1 -0.12942
12.15 -0.14045
12.2 -0.15193
12.25 -0.15882
12.3 -0.1677
12.35 -0.18162
12.4 -0.19686
12.45 -0.20902
12.5 -0.22357
12.55 -0.23544
12.6 -0.24359
12.65 -0.24975
12.7 -0.25927
12.75 -0.26157
12.8 -0.25908
12.85 -0.25627
12.9 -0.2556
12.95 -0.25843
13 -0.26543
13.05 -0.26639
13.1 -0.26397
13.15 -0.26554
13.2 -0.26543
13.25 -0.26612
13.3 -0.27079
13.35 -0.27047
13.4 -0.2678
13.45 -0.26894
13.5 -0.27037
13.55 -0.27183
13.6 -0.26995
13.65 -0.26955
13.7 -0.26756
13.75 -0.26846
13.8 -0.2637
13.85 -0.26408
13.9 -0.26539
13.95 -0.26374
14 -0.26025
14.05 -0.25172
14.1 -0.24421
14.15 -0.2401
14.2 -0.2352
14.25 -0.22841
14.3 -0.22562
14.35 -0.22188
14.4 -0.21634
14.45 -0.2081
14.5 -0.20242
14.55 -0.19951
14.6 -0.19639
14.65 -0.19714
14.7 -0.19594
14.75 -0.19707
14.8 -0.19653
14.85 -0.19294
14.9 -0.192
14.95 -0.1892
15 -0.19019
15.05 -0.18963
15.1 -0.18936
15.15 -0.18709
15.2 -0.1818
15.25 -0.17311
15.3 -0.16565
15.35 -0.15631
15.4 -0.14611
15.45 -0.14163
15.5 -0.1379
15.55 -0.14115
15.6 -0.14021
15.65 -0.14185
15.7 -0.14771
15.75 -0.15056
15.8 -0.15545
15.85 -0.16173
15.9 -0.16531
15.95 -0.1635
16 -0.16219
16.05 -0.1553
16.1 -0.15124
16.15 -0.14204
16.2 -0.13465
16.25 -0.12462
16.3 -0.11591
16.35 -0.11283
16.4 -0.11478
16.45 -0.11523
16.5 -0.11372
16.55 -0.11347
16.6 -0.10909
16.65 -0.10591
16.7 -0.10437
16.75 -0.106
16.8 -0.11115
16.85 -0.11412
16.9 -0.11249
16.95 -0.10693
17 -0.1002
17.05 -0.0907
17.1 -0.08651
17.15 -0.08203
17.2 -0.08357
17.25 -0.08807
17.3 -0.08627
17.35 -0.08257
17.4 -0.08291
17.45 -0.07994
17.5 -0.08066
17.55 -0.07849
17.6 -0.07257
17.65 -0.06734
17.7 -0.06234
17.75 -0.06404
17.8 -0.06773
17.85 -0.07448
17.9 -0.08303
17.95 -0.08698
18 -0.08575
18.05 -0.08366
18.1 -0.08505
18.15 -0.08844
18.2 -0.08979
18.25 -0.08585
18.3 -0.08139
18.35 -0.07963
18.4 -0.07921
18.45 -0.07876
18.5 -0.07758
18.55 -0.0791
18.6 -0.08225
18.65 -0.07938
18.7 -0.0775
18.75 -0.06971
18.8 -0.06708
18.85 -0.06079
18.9 -0.05997
18.95 -0.05714
19 -0.05226
19.05 -0.04907
19.1 -0.04909
19.15 -0.05319
19.2 -0.05941
19.25 -0.06294
19.3 -0.06762
19.35 -0.07129
19.4 -0.07193
19.45 -0.07151
19.5 -0.06532
19.55 -0.05633
19.6 -0.04876
19.65 -0.04373
19.7 -0.03821
19.75 -0.03916
19.8 -0.03578
19.85 -0.03802
19.9 -0.04242
19.95 -0.04513
20 -0.04301
20.05 -0.0436
20.1 -0.04458
20.15 -0.04141
20.2 -0.03569
20.25 -0.02694
20.3 -0.01791
20.35 -0.01155
20.4 -0.00898
20.45 -0.00802
20.5 -0.01284
20.55 -0.01566
20.6 -0.01644
20.65 -0.02069
20.7 -0.02161
20.75 -0.02293
20.8 -0.0281
20.85 -0.03037
20.9 -0.03184
20.95 -0.0318
21 -0.03319
21.05 -0.03171
21.1 -0.03289
21.15 -0.0294
21.2 -0.03005
21.25 -0.03449
21.3 -0.03509
21.35 -0.03863
21.4 -0.04102
21.45 -0.04207
21.5 -0.04229
21.55 -0.04421
21.6 -0.04216
21.65 -0.03973
21.7 -0.03298
21.75 -0.02716
21.8 -0.0256
21.85 -0.02043
21.9 -0.02083
21.95 -0.02488
22 -0.0269
22.05 -0.02465
22.1 -0.02147
22.15 -0.01435
22.2 -0.00618
22.25 -0.0027
22.3 -0.00062
22.35 -0.00262
22.4 -0.00764
22.45 -0.01342
22.5 -0.02081
22.55 -0.02257
22.6 -0.01945
22.65 -0.0216
22.7 -0.02375
22.75 -0.02504
22.8 -0.02477
22.85 -0.02222
22.9 -0.02264
22.95 -0.02437
23 -0.02736
23.05 -0.02382
23.1 -0.01994
23.15 -0.01463
23.2 -0.00905
23.25 -0.00516
23.3 -0.00728
23.35 -0.01073
23.4 -0.01161
23.45 -0.01287
23.5 -0.01647
23.55 -0.0151
23.6 -0.01022
23.65 -0.0089
23.7 -0.00869
23.75 -0.00651
23.8 -0.00788
23.85 -0.00793
23.9 -0.00515
23.95 -0.00716
24 -0.00501
24.05 -0.00228
24.1 -0.00137
24.15 -0.00432
24.2 -0.00398
24.25 -0.00615
24.3 -0.00329
24.35 -0.00218
24.4 -0.0022
24.45 -0.00259
24.5 -0.00726
24.55 -0.00913
24.6 -0.00954
24.65 -0.00928
24.7 -0.00605
24.75 -0.00094
24.8 0.00159
24.85 0.00433
24.9 0.00709
24.95 0.00826
25 0.00874
25.05 0.00759
25.1 0.00992
25.15 0.00865
25.2 0.00706
25.25 0.00454
25.3 0.00438
25.35 0.00159
25.4 0.00021
25.45 0.00264
25.5 0.0018
25.55 0.00361
25.6 -0.00077
25.65 -0.0071
25.7 -0.01564
25.75 -0.0177
25.8 -0.01455
25.85 -0.01322
25.9 -0.0072
25.95 -0.00416
26 0.00079
26.05 0.00803
26.1 0.0158
26.15 0.01649
26.2 0.01673
26.25 0.01759
26.3 0.01384
26.35 0.00907
26.4 0.00711
26.45 0.00177
26.5 0.0002
26.55 0.00068
26.6 0.00418
26.65 0.00277
26.7 0.00536
26.75 0.00441
26.8 -0.00124
26.85 -0.00123
26.9 -0.00388
26.95 -0.00729
27 -0.01416
27.05 -0.01523
27.1 -0.01752
27.15 -0.02123
27.2 -0.02201
27.25 -0.0184
27.3 -0.01656
27.35 -0.01872
27.4 -0.02136
27.45 -0.02654
27.5 -0.0287
27.55 -0.0317
27.6 -0.03071
27.65 -0.02985
27.7 -0.02871
27.75 -0.02545
27.8 -0.02282
27.85 -0.02221
27.9 -0.01759
27.95 -0.01665
28 -0.01523
28.05 -0.01548
28.1 -0.02264
28.15 -0.02729
28.2 -0.03646
28.25 -0.04457
28.3 -0.05729
28.35 -0.06843
28.4 -0.07891
28.45 -0.08483
28.5 -0.09223
28.55 -0.10383
28.6 -0.11759
28.65 -0.13167
28.7 -0.15392
28.75 -0.17299
28.8 -0.19144
28.85 -0.21409
28.9 -0.24334
28.95 -0.2773
29 -0.31675
29.05 -0.36144
29.1 -0.40364
29.15 -0.4459
29.2 -0.48917
29.25 -0.53295
29.3 -0.57395
29.35 -0.61867
29.4 -0.66333
29.45 -0.70775
29.5 -0.74951
29.55 -0.79463
29.6 -0.83948
29.65 -0.87781
29.7 -0.90933
29.75 -0.93324
29.8 -0.95739
29.85 -0.98161
29.9 -0.99438
29.95 -1.00057
30 -1.0015
30.05 -0.9921
30.1 -0.98176
30.15 -0.96623
30.2 -0.94468
30.25 -0.91165
30.3 -0.87404
30.35 -0.8269
30.4 -0.77386
30.45 -0.71239
30.5 -0.64413
30.55 -0.57346
30.6 -0.50061
30.65 -0.42258
30.7 -0.34421
30.75 -0.26282
30.8 -0.18507
30.85 -0.1132
30.9 -0.0391
30.95 0.03102
31 0.09446
31.05 0.15929
31.1 0.21924
31.15 0.27697
31.2 0.32829
31.25 0.37338
31.3 0.41425
31.35 0.45141
31.4 0.48896
31.45 0.52719
31.5 0.56158
31.55 0.59349
31.6 0.61971
31.65 0.64326
31.7 0.65877
31.75 0.66747
31.8 0.67261
31.85 0.67243
31.9 0.67622
31.95 0.67606
32 0.67563
32.05 0.67918
32.1 0.68298
32.15 0.6895
32.2 0.69685
32.25 0.70424
32.3 0.70553
32.35 0.70079
32.4 0.69955
32.45 0.70265
32.5 0.70448
32.55 0.70802
32.6 0.70776
32.65 0.70083
32.7 0.69025
32.75 0.68248
32.8 0.67889
32.85 0.6705
32.9 0.66572
32.95 0.6615
33 0.65711
33.05 0.65286
33.1 0.64713
33.15 0.63854
33.2 0.62662
33.25 0.60922
33.3 0.59086
33.35 0.57419
33.4 0.55733
33.45 0.54692
33.5 0.53602
33.55 0.52006
33.6 0.50127
33.65 0.48418
33.7 0.47353
33.75 0.46497
33.8 0.45354
33.85 0.43742
33.9 0.42238
33.95 0.41023
34 0.40097
34.05 0.38567
34.1 0.36975
34.15 0.35395
34.2 0.33595
34.25 0.31663
34.3 0.30278
34.35 0.28905
34.4 0.27487
34.45 0.2584
34.5 0.24527
34.55 0.23402
34.6 0.22081
34.65 0.20872
34.7 0.20224
34.75 0.19193
34.8 0.17976
34.85 0.16627
34.9 0.15316
34.95 0.14408
35 0.13623
35.05 0.12642
35.1 0.11753
35.15 0.10562
35.2 0.08939
35.25 0.07483
35.3 0.06085
35.35 0.04685
35.4 0.03887
35.45 0.03335
35.5 0.02314
35.55 0.01409
35.6 0.00791
35.65 0.00182
35.7 -0.00379
35.75 -0.00728
35.8 -0.00824
35.85 -0.01052
35.9 -0.01171
35.95 -0.01233
36 -0.02103
36.05 -0.03348
36.1 -0.0464
36.15 -0.05389
36.2 -0.0624
36.25 -0.06816
36.3 -0.07195
36.35 -0.07324
36.4 -0.07251
36.45 -0.07445
36.5 -0.07664
36.55 -0.08439
36.6 -0.08754
36.65 -0.09481
36.7 -0.09753
36.75 -0.10022
36.8 -0.10033
36.85 -0.09957
36.9 -0.09739
36.95 -0.09694
37 -0.09742
37.05 -0.10485
37.1 -0.10834
37.15 -0.10863
37.2 -0.11046
37.25 -0.11113
37.3 -0.10922
37.35 -0.10693
37.4 -0.10538
37.45 -0.10552
37.5 -0.10351
37.55 -0.10413
37.6 -0.1044
37.65 -0.10493
37.7 -0.10401
37.75 -0.10694
37.8 -0.10616
37.85 -0.10526
37.9 -0.10572
37.95 -0.11202
38 -0.1174
38.05 -0.11907
38.1 -0.11882
38.15 -0.12288
38.2 -0.12544
38.25 -0.12458
38.3 -0.12338
38.35 -0.12246
38.4 -0.11685
38.45 -0.1091
38.5 -0.10251
38.55 -0.09652
38.6 -0.09768
38.65 -0.09691
38.7 -0.09279
38.75 -0.08656
38.8 -0.08743
38.85 -0.08512
38.9 -0.08563
38.95 -0.08509
39 -0.0866
39.05 -0.08762
39.1 -0.08592
39.15 -0.08648
39.2 -0.08876
39.25 -0.09265
39.3 -0.09236
39.35 -0.09283
39.4 -0.09217
39.45 -0.09071
39.5 -0.09228
39.55 -0.09699
39.6 -0.09666
39.65 -0.09818
39.7 -0.09426
39.75 -0.08695
39.8 -0.07938
39.85 -0.07155
39.9 -0.06702
39.95 -0.06856
40 -0.06515
40.05 -0.06641
40.1 -0.06431
40.15 -0.05864
40.2 -0.05113
40.25 -0.05028
40.3 -0.05576
40.35 -0.058
40.4 -0.05945
40.45 -0.06276
40.5 -0.0642
40.55 -0.06181
40.6 -0.05606
40.65 -0.05116
40.7 -0.0507
40.75 -0.04969
40.8 -0.04555
40.85 -0.04398
40.9 -0.04125
40.95 -0.04235
41 -0.04568
41.05 -0.0445
41.1 -0.04111
41.15 -0.03902
41.2 -0.04328
41.25 -0.04362
41.3 -0.04545
41.35 -0.04673
41.4 -0.0457
41.45 -0.04242
41.5 -0.04342
41.55 -0.04129
41.6 -0.03743
41.65 -0.03329
41.7 -0.02768
41.75 -0.02208
41.8 -0.02123
41.85 -0.02073
41.9 -0.02553
41.95 -0.03142
42 -0.03702
42.05 -0.03973
42.1 -0.04378
42.15 -0.05021
42.2 -0.05823
42.25 -0.05952
42.3 -0.05671
42.35 -0.05045
42.4 -0.04447
42.45 -0.03807
42.5 -0.03614
42.55 -0.03109
42.6 -0.02752
42.65 -0.02216
42.7 -0.02207
42.75 -0.01889
42.8 -0.02071
42.85 -0.02113
42.9 -0.02165
42.95 -0.01976
43 -0.02063
43.05 -0.02114
43.1 -0.01892
43.15 -0.02126
43.2 -0.02672
43.25 -0.03445
43.3 -0.04026
43.35 -0.04533
43.4 -0.04777
43.45 -0.04652
43.5 -0.04359
43.55 -0.0441
43.6 -0.04201
43.65 -0.03826
43.7 -0.03786
43.75 -0.03452
43.8 -0.03456
43.85 -0.03634
43.9 -0.03912
43.95 -0.03618
44 -0.03749
44.05 -0.0367
44.1 -0.03654
44.15 -0.03449
44.2 -0.0306
44.25 -0.0319
44.3 -0.03273
44.35 -0.02766
44.4 -0.02782
44.45 -0.02618
44.5 -0.02163
44.55 -0.01517
44.6 -0.01248
44.65 -0.00681
44.7 -0.00703
44.75 -0.00639
44.8 -0.00294
44.85 -0.00597
44.9 -0.01196
44.95 -0.01861
45 -0.01821
45.05 -0.01841
45.1 -0.01428
45.15 -0.01656
45.2 -0.01919
45.25 -0.01597
45.3 -0.01647
45.35 -0.01656
45.4 -0.01726
45.45 -0.02078
45.5 -0.02493
45.55 -0.0277
45.6 -0.02916
45.65 -0.02875
45.7 -0.02847
45.75 -0.02405
45.8 -0.02302
45.85 -0.02061
45.9 -0.01423
45.95 -0.0062
46 0.00124
46.05 0.00184
46.1 0.00346
46.15 0.00392
46.2 -0.00162
46.25 -0.00845
46.3 -0.01103
46.35 -0.01404
46.4 -0.01567
46.45 -0.01735
46.5 -0.01377
46.55 -0.01487
46.6 -0.01487
46.65 -0.0144
46.7 -0.01338
46.75 -0.01628
46.8 -0.0179
46.85 -0.02014
46.9 -0.0209
46.95 -0.01569
47 -0.01118
47.05 -0.00865
47.1 -0.00945
47.15 -0.01319
47.2 -0.01673
47.25 -0.02254
47.3 -0.02448
47.35 -0.0214
47.4 -0.01679
47.45 -0.0142
47.5 -0.00925
47.55 -0.01055
47.6 -0.01503
47.65 -0.02076
47.7 -0.01964
47.75 -0.01337
47.8 -0.00697
47.85 -0.0049
47.9 -0.0078
47.95 -0.01145
48 -0.01242
48.05 -0.01691
48.1 -0.02176
48.15 -0.02176
48.2 -0.02165
48.25 -0.02106
48.3 -0.02077
48.35 -0.01524
48.4 -0.00885
48.45 -0.00193
48.5 -0.00067
48.55 -0.00404
48.6 -0.00722
48.65 -0.00951
48.7 -0.00878
48.75 -0.00542
48.8 -0.00547
48.85 -0.00378
48.9 0.00035
48.95 0.00109
49 0.00477
49.05 0.00511
49.1 0.00767
49.15 0.0103
49.2 0.00654
49.25 0.00491
49.3 -0.00092
49.35 -0.00854
49.4 -0.01493
49.45 -0.01707
49.5 -0.01675
49.55 -0.01373
49.6 -0.00619
49.65 -0.00495
49.7 -0.00152
49.75 0.00242
49.8 0.0064
49.85 0.00617
49.9 0.00428
49.95 -0.00133
50 -0.00346
50.05 -0.00611
50.1 -0.01115
50.15 -0.01028
50.2 -0.00823
50.25 -0.00503
50.3 -0.00578
50.35 -0.00416
50.4 0.00103
50.45 0.00264
50.5 0.00714
50.55 0.0126
50.6 0.01168
50.65 0.01304
50.7 0.01683
50.75 0.02057
50.8 0.02301
50.85 0.02136
50.9 0.01917
50.95 0.01698
51 0.01843
51.05 0.01977
51.1 0.01437
51.15 0.00993
51.2 0.00967
51.25 0.01206
51.3 0.0137
51.35 0.01518
51.4 0.01397
51.45 0.0134
51.5 0.01171
51.55 0.00711
51.6 0.00489
51.65 -0.00009
51.7 -0.0075
51.75 -0.01029
51.8 -0.01331
51.85 -0.01146
51.9 -0.01345
51.95 -0.01405
52 -0.01574
52.05 -0.01779
52.1 -0.01492
52.15 -0.00758
52.2 -0.00307
52.25 0.00241
52.3 0.00436
52.35 0.00153
52.4 0.00015
52.45 -0.00428
52.5 -0.00852
52.55 -0.01134
52.6 -0.01433
52.65 -0.01068
52.7 -0.01172
52.75 -0.01026
52.8 -0.01116
52.85 -0.01324
52.9 -0.01789
52.95 -0.02371
53 -0.02114
53.05 -0.01811
53.1 -0.01699
53.15 -0.01617
53.2 -0.01762
53.25 -0.01927
53.3 -0.01494
53.35 -0.01042
53.4 -0.00388
53.45 -0.00178
53.5 -0.00272
53.55 -0.00471
53.6 -0.006
53.65 -0.00309
53.7 -0.00177
53.75 -0.00467
53.8 -0.00336
53.85 -0.00224
53.9 -0.00362
53.95 -0.00649
54 -0.0075
54.05 -0.00838
54.1 -0.01109
54.15 -0.00952
54.2 -0.00916
54.25 -0.01074
54.3 -0.01402
54.35 -0.01543
54.4 -0.01573
54.45 -0.01861
54.5 -0.01922
54.55 -0.02187
54.6 -0.02491
54.65 -0.02906
54.7 -0.02467
54.75 -0.01612
54.8 -0.00512
54.85 -0.00144
54.9 -0.00125
54.95 0.00032
55 -0.00176
55.05 -0.00559
55.1 -0.00503
55.15 -0.00296
55.2 -0.00515
55.25 -0.00482
55.3 -0.00606
55.35 -0.00959
55.4 -0.0061
55.45 -0.00474
55.5 -0.00554
55.55 -0.00527
55.6 -0.00137
55.65 0.00238
55.7 0.00713
55.75 0.00604
55.8 0.00327
55.85 -0.00264
55.9 -0.00711
55.95 -0.00874
56 -0.01192
56.05 -0.01713
56.1 -0.0208
56.15 -0.01964
56.2 -0.01493
56.25 -0.00865
56.3 -0.00639
56.35 -0.00365
56.4 -0.00528
56.45 -0.00131
56.5 -0.00257
56.55 0.00165
56.6 0.00518
56.65 0.00941
56.7 0.01012
56.75 0.00567
56.8 0.0055
56.85 0.00939
56.9 0.01448
56.95 0.01995
57 0.02315
57.05 0.02635
57.1 0.02872
57.15 0.02629
57.2 0.0234
57.25 0.02419
57.3 0.02024
57.35 0.02021
57.4 0.01616
57.45 0.01027
57.5 0.00333
57.55 -0.0034
57.6 -0.00483
57.65 -0.00254
57.7 -0.00009
57.75 0.00593
57.8 0.01275
57.85 0.01616
57.9 0.01671
57.95 0.01453
58 0.01553
58.05 0.01304
58.1 0.00712
58.15 0.00562
58.2 0.00637
58.25 0.00857
58.3 0.01257
58.35 0.01675
58.4 0.01441
58.45 0.01268
58.5 0.01286
58.55 0.00812
58.6 0.00155
58.65 -0.00745
58.7 -0.01652
58.75 -0.01834
58.8 -0.01956
58.85 -0.01793
58.9 -0.01309
58.95 -0.01106
59 -0.01225
59.05 -0.01189
59.1 -0.00728
59.15 -0.00268
59.2 0.00041
59.25 0.00024
59.3 -0.0037
59.35 -0.00525
59.4 -0.00942
59.45 -0.01318
59.5 -0.01808
59.55 -0.01708
59.6 -0.01816
59.65 -0.01808
59.7 -0.02038
59.75 -0.01772
59.8 -0.01433
59.85 -0.01248
59.9 -0.00546
59.95 -0.00381
60 -0.0019
60.05 0.00256
60.1 0.00697
60.15 0.01111
60.2 0.01528
60.25 0.01399
60.3 0.00882
60.35 0.00438
60.4 0.00613
60.45 0.00745
60.5 0.00987
60.55 0.01263
60.6 0.01022
60.65 0.00407
60.7 -0.00298
60.75 -0.00982
60.8 -0.01525
60.85 -0.02027
60.9 -0.02195
60.95 -0.02057
61 -0.01955
61.05 -0.01553
61.1 -0.0121
61.15 -0.00505
61.2 0.00117
61.25 0.00137
61.3 -0.00292
61.35 -0.00672
61.4 -0.00628
61.45 -0.00881
61.5 -0.01278
61.55 -0.00957
61.6 -0.00509
61.65 -0.00433
61.7 0.00023
61.75 0.00744
61.8 0.00981
61.85 0.01118
61.9 0.00692
61.95 0.00179
62 0.00181
62.05 0.00209
62.1 0.00239
62.15 0.00252
62.2 -0.00091
62.25 -0.00538
62.3 -0.00577
62.35 -0.0028
62.4 0.00076
62.45 0.00609
62.5 0.0114
62.55 0.01041
62.6 0.00469
62.65 0.00211
62.7 -0.00291
62.75 -0.0068
62.8 -0.00682
62.85 -0.00182
62.9 -0.00065
62.95 0.00448
63 0.00645
63.05 0.00477
63.1 0.00586
63.15 0.01027
63.2 0.01569
63.25 0.01775
63.3 0.01827
63.35 0.01299
63.4 0.00465
63.45 -0.0029
63.5 -0.01035
63.55 -0.01821
63.6 -0.01797
63.65 -0.01746
63.7 -0.01638
63.75 -0.01808
63.8 -0.01906
63.85 -0.01891
63.9 -0.02052
63.95 -0.01817
64 -0.01236
64.05 -0.01094
64.1 -0.01237
64.15 -0.01351
64.2 -0.01648
64.25 -0.01885
64.3 -0.01389
64.35 -0.01142
64.4 -0.00915
64.45 -0.00448
64.5 0.00071
64.55 0.00709
64.6 0.00698
64.65 0.00378
64.7 0.00394
64.75 0.005
64.8 0.00204
64.85 0.00483
64.9 0.00403
64.95 0.00336
65 0.00324
65.05 -0.00063
65.1 -0.00124
65.15 0.00239
65.2 0.00566
65.25 0.00573
65.3 0.00888
65.35 0.01348
65.4 0.016
65.45 0.02133
65.5 0.02531
65.55 0.0283
65.6 0.02462
65.65 0.01624
65.7 0.00517
65.75 -0.00565
65.8 -0.01182
65.85 -0.01288
65.9 -0.01064
65.95 -0.01162
66 -0.00739
66.05 -0.00043
66.1 0.00462
66.15 0.00584
66.2 0.00721
66.25 0.0054
66.3 0.00091
66.35 0.0024
66.4 0.00806
66.45 0.01224
66.5 0.01161
66.55 0.01001
66.6 0.01186
66.65 0.01278
66.7 0.01357
66.75 0.01687
66.8 0.01911
66.85 0.01469
66.9 0.01347
66.95 0.01495
67 0.01273
67.05 0.0086
67.1 0.00507
67.15 0.00325
67.2 -0.00278
67.25 -0.01018
67.3 -0.01658
67.35 -0.0187
67.4 -0.01945
67.45 -0.02065
67.5 -0.02359
67.55 -0.02306
67.6 -0.02086
67.65 -0.01766
67.7 -0.01177
67.75 -0.00511
67.8 0.0027
67.85 0.012
67.9 0.01594
67.95 0.01376
68 0.01605
68.05 0.01284
68.1 0.01216
68.15 0.01551
68.2 0.01952
68.25 0.01766
68.3 0.01236
68.35 0.00801
68.4 0.00155
68.45 -0.00408
68.5 -0.00737
68.55 -0.0099
68.6 -0.01174
68.65 -0.01111
68.7 -0.00712
68.75 -0.00227
68.8 0.0008
68.85 -0.00134
68.9 -0.00227
68.95 -0.00397
69 -0.00482
69.05 -0.00902
69.1 -0.01013
69.15 -0.00821
69.2 -0.0036
69.25 -0.00091
69.3 0.00447
69.35 0.0097
69.4 0.01603
69.45 0.02225
69.5 0.02006
69.55 0.01617
69.6 0.00815
69.65 0.00208
69.7 0.00081
69.75 0.00442
69.8 0.00622
69.85 0.00578
69.9 0.00498
69.95 0.00354
70 0.00658
70.05 0.01009
70.1 0.01016
70.15 0.00524
70.2 0.00296
70.25 0.0003
70.3 -0.00408
70.35 -0.01033
70.4 -0.01302
70.45 -0.01659
70.5 -0.01894
70.55 -0.01751
70.6 -0.01439
70.65 -0.00978
70.7 -0.00367
70.75 -0.00106
70.8 0.0006
70.85 0.00299
70.9 0.00867
70.95 0.01512
71 0.01905
71.05 0.02072
71.1 0.02193
71.15 0.02007
71.2 0.016
71.25 0.01155
71.3 0.00968
71.35 0.00773
71.4 0.0066
71.45 0.00785
71.5 0.01063
71.55 0.0116
71.6 0.00786
71.65 0.00452
71.7 -0.00065
71.75 -0.00168
71.8 0.00205
71.85 0.00375
71.9 0.00669
71.95 0.00687
72 0.00761
72.05 0.00636
72.1 0.00788
72.15 0.0123
72.2 0.0134
72.25 0.0169
72.3 0.01551
72.35 0.0175
72.4 0.01883
72.45 0.02062
72.5 0.01721
72.55 0.01424
72.6 0.00661
72.65 -0.00337
72.7 -0.00957
72.75 -0.0118
72.8 -0.01245
72.85 -0.00965
72.9 -0.00496
72.95 -0.00048
73 0.00634
73.05 0.01345
73.1 0.01381
73.15 0.01064
73.2 0.00421
73.25 0.00326
73.3 0.00425
73.35 0.00315
73.4 0.00277
73.45 0.00082
73.5 0.0036
73.55 0.00624
73.6 0.00473
73.65 0.00701
73.7 0.00318
73.75 0.00056
73.8 0.00232
73.85 0.00276
73.9 -0.00059
73.95 -0.0053
74 -0.00958
74.05 -0.01456
74.1 -0.0198
74.15 -0.01768
74.2 -0.01533
74.25 -0.01659
74.3 -0.01891
74.35 -0.02278
74.4 -0.02242
74.45 -0.02413
74.5 -0.01883
74.55 -0.01689
74.6 -0.01722
74.65 -0.01215
74.7 -0.00856
74.75 -0.00885
74.8 -0.00662
74.85 -0.00165
74.9 -0.00266
74.95 -0.00494
75 -0.00481
75.05 -0.00079
75.1 0.00446
75.15 0.01124
75.2 0.01784
75.25 0.01627
75.3 0.01432
75.35 0.01502
75.4 0.01054
75.45 0.01078
75.5 0.00578
75.55 0.0035
75.6 -0.0028
75.65 -0.00286
75.7 0.00089
75.75 0.00124
75.8 0.00123
75.85 -0.00173
75.9 -0.00533
75.95 -0.00788
76 -0.01341
76.05 -0.01443
76.1 -0.01537
76.15 -0.011
76.2 -0.00562
76.25 0.00164
76.3 0.00848
76.35 0.0132
76.4 0.01146
76.45 0.0076
76.5 0.00729
76.55 0.00693
76.6 0.00841
76.65 0.00548
76.7 0.00016
76.75 -0.00195
76.8 -0.00731
76.85 -0.0128
76.9 -0.01917
76.95 -0.02416
77 -0.02815
77.05 -0.02641
77.1 -0.01905
77.15 -0.01401
77.2 -0.00612
77.25 -0.00517
77.3 -0.0032
77.35 -0.00053
77.4 0.00067
77.45 0.00163
77.5 0.00302
77.55 -0.00066
77.6 -0.0072
77.65 -0.00891
77.7 -0.01257
77.75 -0.01086
77.8 -0.00637
77.85 0.0004
77.9 0.00334
77.95 0.00859
78 0.00842
78.05 0.00976
78.1 0.00794
78.15 0.00818
78.2 0.00624
78.25 0.00608
78.3 0.00492
78.35 0.00637
78.4 0.00343
78.45 -0.0003
78.5 -0.00149
78.55 -0.00591
78.6 -0.01235
78.65 -0.02002
78.7 -0.0275
78.75 -0.02983
78.8 -0.02529
78.85 -0.02127
78.9 -0.01683
78.95 -0.01189
79 -0.01236
79.05 -0.01496
79.1 -0.01208
79.15 -0.00845
79.2 -0.00998
79.25 -0.00908
79.3 -0.00694
79.35 -0.00079
79.4 0.0001
79.45 0.00289
79.5 0.00768
79.55 0.01093
79.6 0.01498
79.65 0.02003
79.7 0.02563
79.75 0.02951
79.8 0.03118
79.85 0.03235
79.9 0.02876
79.95 0.02558
80 0.0222
80.05 0.01603
80.1 0.01139
80.15 0.00297
80.2 -0.00317
80.25 -0.01143
80.3 -0.02007
80.35 -0.02403
80.4 -0.0263
80.45 -0.02581
80.5 -0.0201
80.55 -0.01755
80.6 -0.01789
80.65 -0.01563
80.7 -0.01049
80.75 -0.00463
80.8 -0.00004
80.85 0.00739
80.9 0.01279
80.95 0.01119
81 0.0114
81.05 0.01376
81.1 0.01874
81.15 0.02335
81.2 0.02008
81.25 0.01741
81.3 0.01738
81.35 0.01365
81.4 0.00927
81.45 0.00257
81.5 0.00097
81.55 -0.00022
81.6 -0.00501
81.65 -0.00519
81.7 -0.00648
81.75 -0.00802
81.8 -0.00997
81.85 -0.01172
81.9 -0.01252
81.95 -0.00964
82 -0.00619
82.05 -0.0041
82.1 -0.00495
82.15 -0.00215
82.2 -0.00273
82.25 -0.00037
82.3 -0.001
82.35 -0.00585
82.4 -0.01108
82.45 -0.01654
82.5 -0.02033
82.55 -0.02506
82.6 -0.02649
82.65 -0.02735
82.7 -0.02144
82.75 -0.01493
82.8 -0.00644
82.85 0.00001
82.9 0.00876
82.95 0.01814
83 0.02274
83.05 0.02034
83.1 0.02105
83.15 0.02405
83.2 0.02599
83.25 0.02433
83.3 0.01703
83.35 0.00631
83.4 -0.0014
83.45 -0.00299
83.5 -0.00667
83.55 -0.00712
83.6 -0.01045
83.65 -0.01122
83.7 -0.01357
83.75 -0.00991
83.8 -0.00679
83.85 -0.0017
83.9 -0.00304
83.95 -0.00395
84 -0.00652
84.05 -0.00378
84.1 0.00214
84.15 0.0018
84.2 0.00176
84.25 -0.0028
84.3 -0.00773
84.35 -0.01341
84.4 -0.01898
84.45 -0.01637
84.5 -0.01623
84.55 -0.0164
84.6 -0.01901
84.65 -0.02201
84.7 -0.0199
84.75 -0.01242
84.8 -0.00775
84.85 -0.00836
84.9 -0.00712
84.95 -0.00726
85 -0.00944
85.05 -0.01093
85.1 -0.00881
85.15 -0.00565
85.2 -0.00188
85.25 0.00356
85.3 0.00246
85.35 0.00355
85.4 0.00486
85.45 0.00357
85.5 0.0064
85.55 0.00848
85.6 0.01017
85.65 0.00759
85.7 0.00698
85.75 0.00425
85.8 -0.00227
85.85 -0.00356
85.9 -0.00245
85.95 0.0028
86 0.00431
86.05 0.00281
86.1 0.0034
86.15 0.00379
86.2 0.00631
86.25 0.00316
86.3 0.00391
86.35 0.00763
86.4 0.00835
86.45 0.00476
86.5 0.00458
86.55 0.00387
86.6 0.00389
86.65 0.00114
86.7 0.00308
86.75 0.00419
86.8 0.00512
86.85 0.00706
86.9 0.0102
86.95 0.01035
87 0.00915
87.05 0.00399
87.1 -0.00164
87.15 -0.00693
87.2 -0.01226
87.25 -0.01437
87.3 -0.01322
87.35 -0.009
87.4 -0.00726
87.45 -0.00563
87.5 -0.00248
87.55 0.00027
87.6 0.00409
87.65 0.00342
87.7 0.00473
87.75 0.00697
87.8 0.00508
87.85 0.00595
87.9 0.00904
87.95 0.01298
88 0.01467
88.05 0.01759
88.1 0.02193
88.15 0.02695
88.2 0.02966
88.25 0.02863
88.3 0.02708
88.35 0.02363
88.4 0.02363
88.45 0.0216
88.5 0.01942
88.55 0.01479
88.6 0.01155
88.65 0.01185
88.7 0.0067
88.75 -0.0016
88.8 -0.00492
88.85 -0.00815
88.9 -0.00629
88.95 -0.00462
89 -0.00527
89.05 -0.00326
89.1 0.00016
89.15 -0.00228
89.2 -0.00458
89.25 -0.00261
89.3 -0.00084
89.35 -0.00151
89.4 0.00117
89.45 -0.00119
89.5 -0.00469
89.55 -0.00962
89.6 -0.01557
89.65 -0.01512
89.7 -0.01216
89.75 -0.01161
89.8 -0.01271
89.85 -0.01032
89.9 -0.00724
89.95 -0.00254
90 -0.00087
90.05 0.0014
90.1 0.00269
90.15 0.00746
90.2 0.00968
90.25 0.00702
90.3 0.00208
90.35 0.00213
90.4 -0.00232
90.45 -0.00228
90.5 0.00037
90.55 -0.00154
90.6 -0.00284
90.65 0.00058
90.7 0.00229
90.75 0.00325
90.8 0.00574
90.85 0.00676
90.9 0.00876
90.95 0.00485
91 0.0059
91.05 0.00356
91.1 0.00467
91.15 0.00763
91.2 0.00933
91.25 0.0123
91.3 0.01618
91.35 0.01305
91.4 0.00892
91.45 0.00137
91.5 -0.0016
91.55 -0.00177
91.6 -0.00668
91.65 -0.01344
91.7 -0.01368
91.75 -0.00836
91.8 -0
91.85 0.007
91.9 0.01072
91.95 0.0157
92 0.01852
92.05 0.01784
92.1 0.01745
92.15 0.01187
92.2 0.0064
92.25 0.00618
92.3 0.00268
92.35 0.00361
92.4 -0.00077
92.45 0.00031
92.5 -0.00128
92.55 -0.00301
92.6 -0.00133
92.65 0.00083
92.7 -0
92.75 0.00046
92.8 0.00376
92.85 0.00881
92.9 0.01366
92.95 0.01343
93 0.01488
93.05 0.01268
93.1 0.01348
93.15 0.01226
93.2 0.00917
93.25 0.0057
93.3 0.00338
93.35 -0.00177
93.4 -0.00593
93.45 -0.00438
93.5 -0.00435
93.55 -0.00778
93.6 -0.00889
93.65 -0.00808
93.7 -0.0041
93.75 0.0027
93.8 0.00633
93.85 0.01099
93.9 0.01601
93.95 0.0213
94 0.02601
94.05 0.03001
94.1 0.03167
94.15 0.02844
94.2 0.02223
94.25 0.01258
94.3 0.00609
94.35 0.00016
94.4 -0.00285
94.45 -0.00515
94.5 -0.00332
94.55 0
94.6 -0.00279
94.65 -0.00504
94.7 -0.00224
94.75 -0.00029
94.8 -0.0038
94.85 -0.0099
94.9 -0.01215
94.95 -0.01671
95 -0.0159
95.05 -0.0118
95.1 -0.00971
95.15 -0.0087
95.2 -0.00901
95.25 -0.00513
95.3 -0.00356
95.35 -0.00536
95.4 -0.00379
95.45 -0.00579
95.5 -0.00474
95.55 -0.00419
95.6 -0.00472
95.65 -0.00191
95.7 0.00189
95.75 0.00262
95.8 0.0066
95.85 0.00838
95.9 0.00831
95.95 0.00412
96 -0.0005
96.05 -0.00431
96.1 -0.00957
96.15 -0.00905
96.2 -0.0126
96.25 -0.0152
96.3 -0.01445
96.35 -0.01141
96.4 -0.00987
96.45 -0.00929
96.5 -0.00973
96.55 -0.01224
96.6 -0.01788
96.65 -0.01809
96.7 -0.01783
96.75 -0.01467
96.8 -0.01144
96.85 -0.00717
96.9 0.00034
96.95 0.00883
97 0.01214
97.05 0.01016
97.1 0.00394
97.15 -0.00304
97.2 -0.00318
97.25 -0.00815
97.3 -0.01067
97.35 -0.01291
97.4 -0.01627
97.45 -0.02201
97.5 -0.02412
97.55 -0.02765
97.6 -0.02582
97.65 -0.0255
97.7 -0.02129
97.75 -0.01534
97.8 -0.01398
97.85 -0.00923
97.9 -0.00692
97.95 -0.00944
98 -0.01413
98.05 -0.01664
98.1 -0.01787
98.15 -0.02086
98.2 -0.02052
98.25 -0.02339
98.3 -0.02265
98.35 -0.02147
98.4 -0.01656
98.45 -0.01593
98.5 -0.01802
98.55 -0.02036
98.6 -0.01741
98.65 -0.01477
98.7 -0.01172
98.75 -0.01093
98.8 -0.00577
98.85 -0.00187
98.9 -0.00216
98.95 -0.0013
99 -0.00032
99.05 -0.00235
99.1 -0.00352
99.15 -0.00353
99.2 -0.00615
99.25 -0.00773
99.3 -0.0097
99.35 -0.01374
99.4 -0.01152
99.45 -0.00905
99.5 -0.00881
99.55 -0.00683
99.6 -0.00495
99.65 -0.00037
99.7 0.00456
99.75 0.00464
99.8 0.00458
99.85 0.00073
99.9 -0.00554
99.95 -0.01182
