0 0
0.05 0.00107
0.1 0.00598
0.15 0.01561
0.2 0.02315
0.25 0.02708
0.3 0.02963
0.35 0.02877
0.4 0.02887
0.45 0.03418
0.5 0.0355
0.55 0.03611
0.6 0.03613
0.65 0.03377
0.7 0.03303
0.75 0.02981
0.8 0.02663
0.85 0.02733
0.9 0.02669
0.95 0.02803
1 0.02963
1.05 0.0299
1.1 0.031
1.15 0.02944
1.2 0.02559
1.25 0.02246
1.3 0.02139
1.35 0.02248
1.4 0.02544
1.45 0.02561
1.5 0.02818
1.55 0.0331
1.6 0.03987
1.65 0.04073
1.7 0.03936
1.75 0.03668
1.8 0.03343
1.85 0.02931
1.9 0.02746
1.95 0.02355
2 0.02117
2.05 0.02362
2.1 0.0238
2.15 0.02586
2.2 0.02804
2.25 0.0301
2.3 0.03246
2.35 0.03655
2.4 0.04064
2.45 0.04545
2.5 0.04308
2.55 0.03751
2.6 0.03479
2.65 0.03109
2.7 0.03162
2.75 0.03473
2.8 0.03203
2.85 0.03277
2.9 0.02857
2.95 0.02397
3 0.01892
3.05 0.01641
3.1 0.01129
3.15 0.00548
3.2 0.00149
3.25 -0.00136
3.3 0.00145
3.35 0.00802
3.4 0.01458
3.45 0.01671
3.5 0.01466
3.55 0.01577
3.6 0.01777
3.65 0.02074
3.7 0.0262
3.75 0.03088
3.8 0.03056
3.85 0.02992
3.9 0.03245
3.95 0.03203
4 0.02893
4.05 0.02828
4.1 0.0289
4.15 0.03027
4.2 0.03087
4.25 0.02628
4.3 0.02608
4.35 0.02838
4.4 0.03008
4.45 0.03114
4.5 0.02663
4.55 0.01914
4.6 0.01337
4.65 0.01064
4.7 0.00796
4.75 0.00513
4.8 0.00461
4.85 0.00084
4.9 0.0019
4.95 -0.00046
5 -0.00479
5.05 -0.0041
5.1 -0.00312
5.15 -0.00012
5.2 -0.00079
5.25 0.00302
5.3 0.00981
5.35 0.01796
5.4 0.01967
5.45 0.01711
5.5 0.01139
5.55 0.00458
5.6 -0.0031
5.65 -0.00563
5.7 -0.00961
5.75 -0.00654
5.8 -0.00075
5.85 0.00143
5.9 0.0035
5.95 0.00541
6 0.00355
6.05 -0.00059
6.1 -0.0023
6.15 -0.00083
6.2 0.00274
6.25 0.00801
6.3 0.01343
6.35 0.0169
6.4 0.01796
6.45 0.02172
6.5 0.02618
6.55 0.02359
6.6 0.02046
6.65 0.01451
6.7 0.01304
6.75 0.01419
6.8 0.01723
6.85 0.01742
6.9 0.01954
6.95 0.0202
7 0.01935
7.05 0.02161
7.1 0.01824
7.15 0.01374
7.2 0.01403
7.25 0.01707
7.3 0.01456
7.35 0.01555
7.4 0.01229
7.45 0.01198
7.5 0.01154
7.55 0.01408
7.6 0.01354
7.65 0.01622
7.7 0.01598
7.75 0.01118
7.8 0.00891
7.85 0.00442
7.9 0.00445
7.95 0.00812
8 0.00816
8.05 0.00561
8.1 0.00648
8.15 0.00668
8.2 0.00249
8.25 0.0022
8.3 -0.0001
8.35 -0.00407
8.4 -0.00866
8.45 -0.00672
8.5 -0.00669
8.55 -0.00826
8.6 -0.01139
8.65 -0.00914
8.7 -0.00282
8.75 0.00054
8.8 0.00621
8.85 0.00758
8.9 0.00894
8.95 0.00739
9 0.00969
9.05 0.0119
9.1 0.0099
9.15 0.01005
9.2 0.00914
9.25 0.00546
9.3 0.00283
9.35 0.00141
9.4 -0.00227
9.45 -0.00373
9.5 -0.00803
9.55 -0.00775
9.6 -0.00359
9.65 0.00283
9.7 0.00417
9.75 0.00355
9.8 0.00277
9.85 0.00499
9.9 0.00639
9.95 0.00689
10 0.00654
10.05 0.00563
10.1 0.00145
10.15 -0.00221
10.2 -0.00549
10.25 -0.00955
10.3 -0.00889
10.35 -0.00616
10.4 -0.0051
10.45 -0.00413
10.5 -0.00627
10.55 -0.005
10.6 -0.00261
10.65 -0.00233
10.7 -0.00202
10.75 -0.00257
10.8 -0.00617
10.85 -0.00595
10.9 -0.00639
10.95 -0.00407
11 -0.00288
11.05 -0.00094
11.1 0.00247
11.15 0.00767
11.2 0.00737
11.25 0.00296
11.3 0.00291
11.35 0.00346
11.4 0.0046
11.45 0.00481
11.5 0.00505
11.55 0.00683
11.6 0.00396
11.65 0.00288
11.7 0.00022
11.75 -0.00116
11.8 0.00064
11.85 0.00303
11.9 0.00781
11.95 0.01015
12 0.01351
12.05 0.01248
12.1 0.00726
12.15 0.00578
12.2 0.00172
12.25 0.00289
12.3 0.0067
12.35 0.01084
12.4 0.01273
12.45 0.01477
12.5 0.01391
12.55 0.01132
12.6 0.01055
12.65 0.00647
12.7 -0.0002
12.75 -0.00699
12.8 -0.00923
12.85 -0.00941
12.9 -0.00966
12.95 -0.00684
13 -0.00447
13.05 -0.00145
13.1 0.00312
13.15 0.00418
13.2 0.00706
13.25 0.00972
13.3 0.01012
13.35 0.01174
13.4 0.01304
13.45 0.01285
13.5 0.00838
13.55 0.00423
13.6 0.0025
13.65 0.003
13.7 0.00515
13.75 0.00582
13.8 0.00406
13.85 -0.00005
13.9 0.00057
13.95 0.003
14 0.00431
14.05 0.00459
14.1 0.00457
14.15 0.00577
14.2 0.00412
14.25 -0.00006
14.3 0.00016
14.35 0.00317
14.4 0.00553
14.45 0.00923
14.5 0.00743
14.55 0.00569
14.6 0.00077
14.65 -0.00469
14.7 -0.00507
14.75 -0.002
14.8 -0.00167
14.85 -0.00531
14.9 -0.00972
14.95 -0.00959
15 -0.01252
15.05 -0.01107
15.1 -0.01107
15.15 -0.00877
15.2 -0.00549
15.25 -0.00223
15.3 -0.00218
15.35 -0.00072
15.4 0.002
15.45 0.00095
15.5 0.00162
15.55 -0.00069
15.6 -0.00192
15.65 -0.00127
15.7 0.00216
15.75 0.00657
15.8 0.0052
15.85 0.00287
15.9 0.00137
15.95 -0.00266
16 -0.00506
16.05 -0.00908
16.1 -0.00973
16.15 -0.01099
16.2 -0.01351
16.25 -0.01668
16.3 -0.0168
16.35 -0.01669
16.4 -0.01183
16.45 -0.01164
16.5 -0.01172
16.55 -0.00847
16.6 -0.0042
16.65 0.00161
16.7 0.00884
16.75 0.00987
16.8 0.00696
16.85 0.00177
16.9 -0.00365
16.95 -0.00744
17 -0.00883
17.05 -0.00544
17.1 -0.00481
17.15 -0.0042
17.2 -0.00095
17.25 0.00417
17.3 0.00785
17.35 0.00893
17.4 0.00719
17.45 0.00685
17.5 0.00829
17.55 0.01238
17.6 0.01268
17.65 0.01131
17.7 0.01219
17.75 0.01125
17.8 0.00857
17.85 0.00952
17.9 0.01257
17.95 0.01702
18 0.01851
18.05 0.0152
18.1 0.01192
18.15 0.00471
18.2 0.0026
18.25 -0.00217
18.3 -0.00441
18.35 -0.0019
18.4 -0.00041
18.45 0.00306
18.5 0.00759
18.55 0.011
18.6 0.00817
18.65 0.00276
18.7 0.00104
18.75 0.00001
18.8 -0.00114
18.85 -0.00286
18.9 -0.00601
18.95 -0.00455
19 -0.00043
19.05 0.00119
19.1 0.00418
19.15 0.00468
19.2 0.00376
19.25 0.0033
19.3 0.00352
19.35 0.00306
19.4 0.00275
19.45 0.00078
19.5 0.00262
19.55 0.00584
19.6 0.00424
19.65 0.00358
19.7 -0.0008
19.75 -0.00579
19.8 -0.00745
19.85 -0.00938
19.9 -0.01024
19.95 -0.01143
20 -0.01152
20.05 -0.00697
20.1 -0.00773
20.15 -0.01018
20.2 -0.01039
20.25 -0.00768
20.3 -0.00835
20.35 -0.00523
20.4 0.00058
20.45 0.00242
20.5 0.0009
20.55 -0.00069
20.6 -0.00323
20.65 -0.00736
20.7 -0.00837
20.75 -0.00634
20.8 -0.00419
20.85 -0.00169
20.9 -0.00058
20.95 0.00165
21 0.00311
21.05 0.00394
21.1 0.00653
21.15 0.00798
21.2 0.00405
21.25 0.00229
21.3 -0.00232
21.35 -0.00317
21.4 -0.00595
21.45 -0.00564
21.5 -0.00402
21.55 -0.00293
21.6 -0.00354
21.65 -0.0018
21.7 -0.00096
21.75 0.00117
21.8 -0.00118
21.85 -0.00314
21.9 -0.00189
21.95 0.00109
22 0.00353
22.05 0.00576
22.1 0.00599
22.15 0.00649
22.2 0.00743
22.25 0.00883
22.3 0.01204
22.35 0.01257
22.4 0.01197
22.45 0.0092
22.5 0.00791
22.55 0.00901
22.6 0.0111
22.65 0.00904
22.7 0.00655
22.75 0.00278
22.8 0.00229
22.85 0.00319
22.9 0.00613
22.95 0.00554
23 0.00465
23.05 0.00349
23.1 -0.00077
23.15 -0.00039
23.2 0.00019
23.25 -0.00125
23.3 -0.00637
23.35 -0.01095
23.4 -0.01584
23.45 -0.01761
23.5 -0.01552
23.55 -0.00929
23.6 -0.00391
23.65 -0.0042
23.7 -0.0053
23.75 -0.00958
23.8 -0.00874
23.85 -0.01145
23.9 -0.01216
23.95 -0.00955
24 -0.00442
24.05 -0.00307
24.1 -0.00172
24.15 -0.00245
24.2 -0.00127
24.25 -0.00311
24.3 -0.00685
24.35 -0.00525
24.4 -0.00575
24.45 -0.00556
24.5 -0.00634
24.55 -0.00598
24.6 -0.006
24.65 -0.00234
24.7 0.00075
24.75 0.0063
24.8 0.01015
24.85 0.01087
24.9 0.01224
24.95 0.00925
25 0.00439
25.05 -0.00185
25.1 -0.00209
25.15 -0.00205
25.2 -0.00466
25.25 -0.00696
25.3 -0.01005
25.35 -0.0129
25.4 -0.01514
25.45 -0.01167
25.5 -0.00489
25.55 -0.00405
25.6 -0.00222
25.65 -0.00158
25.7 -0.00474
25.75 -0.00834
25.8 -0.00757
25.85 -0.00267
25.9 -0.00014
25.95 0.00035
26 0.0036
26.05 0.00508
26.1 0.00231
26.15 0.00198
26.2 0.00214
26.25 -0.00191
26.3 -0.00139
26.35 -0.00061
26.4 -0.00293
26.45 -0.00066
26.5 0.00387
26.55 0.00571
26.6 0.00414
26.65 0.00377
26.7 0.00605
26.75 0.00878
26.8 0.01204
26.85 0.00902
26.9 0.00606
26.95 0.00254
27 0.00135
27.05 0.00235
27.1 0.00297
27.15 0.00665
27.2 0.01106
27.25 0.00959
27.3 0.00586
27.35 0.0014
27.4 -0.00194
27.45 -0.00833
27.5 -0.01441
27.55 -0.01864
27.6 -0.01765
27.65 -0.01849
27.7 -0.02013
27.75 -0.02304
27.8 -0.02878
27.85 -0.03558
27.9 -0.04298
27.95 -0.05131
28 -0.06129
28.05 -0.07244
28.1 -0.08052
28.15 -0.08923
28.2 -0.09487
28.25 -0.09972
28.3 -0.11225
28.35 -0.12773
28.4 -0.15134
28.45 -0.17581
28.5 -0.20506
28.55 -0.23546
28.6 -0.26944
28.65 -0.31482
28.7 -0.36831
28.75 -0.42655
28.8 -0.48611
28.85 -0.55389
28.9 -0.62198
28.95 -0.69746
29 -0.77525
29.05 -0.85774
29.1 -0.94565
29.15 -1.0381
29.2 -1.13479
29.25 -1.23222
29.3 -1.33476
29.35 -1.44101
29.4 -1.55097
29.45 -1.65721
29.5 -1.76145
29.55 -1.86324
29.6 -1.95759
29.65 -2.04514
29.7 -2.12587
29.75 -2.19193
29.8 -2.24742
29.85 -2.28837
29.9 -2.32254
29.95 -2.34428
30 -2.35309
30.05 -2.34581
30.1 -2.32538
30.15 -2.29462
30.2 -2.25033
30.25 -2.18832
30.3 -2.11032
30.35 -2.02567
30.4 -1.9266
30.45 -1.81467
30.5 -1.69608
30.55 -1.57023
30.6 -1.43352
30.65 -1.29402
30.7 -1.15053
30.75 -0.99846
30.8 -0.84613
30.85 -0.68668
30.9 -0.52808
30.95 -0.36673
31 -0.20546
31.05 -0.05002
31.1 0.10754
31.15 0.25777
31.2 0.40084
31.25 0.53663
31.3 0.66779
31.35 0.79933
31.4 0.92151
31.45 1.04109
31.5 1.15059
31.55 1.25248
31.6 1.34621
31.65 1.42815
31.7 1.50082
31.75 1.57003
31.8 1.6368
31.85 1.69663
31.9 1.75088
31.95 1.79873
32 1.83513
32.05 1.86229
32.1 1.88815
32.15 1.91183
32.2 1.92816
32.25 1.93879
32.3 1.94908
32.35 1.95528
32.4 1.95488
32.45 1.94753
32.5 1.93536
32.55 1.92438
32.6 1.91672
32.65 1.90354
32.7 1.89281
32.75 1.87725
32.8 1.86477
32.85 1.84841
32.9 1.82767
32.95 1.81088
33 1.78977
33.05 1.76871
33.1 1.74921
33.15 1.72454
33.2 1.69515
33.25 1.6649
33.3 1.63236
33.35 1.60307
33.4 1.57009
33.45 1.5331
33.5 1.49624
33.55 1.46359
33.6 1.42828
33.65 1.39488
33.7 1.35592
33.75 1.31839
33.8 1.27874
33.85 1.23641
33.9 1.18957
33.95 1.14466
34 1.09696
34.05 1.0485
34.1 1.00517
34.15 0.96236
34.2 0.92202
34.25 0.88457
34.3 0.84251
34.35 0.80275
34.4 0.76322
34.45 0.72218
34.5 0.68101
34.55 0.63763
34.6 0.59238
34.65 0.54753
34.7 0.50888
34.75 0.47041
34.8 0.43214
34.85 0.39234
34.9 0.35351
34.95 0.3146
35 0.28092
35.05 0.24972
35.1 0.22271
35.15 0.19858
35.2 0.17263
35.25 0.14424
35.3 0.11683
35.35 0.08896
35.4 0.06177
35.45 0.03902
35.5 0.01456
35.55 -0.00709
35.6 -0.02793
35.65 -0.05175
35.7 -0.07435
35.75 -0.09594
35.8 -0.11806
35.85 -0.1348
35.9 -0.14948
35.95 -0.16133
36 -0.17333
36.05 -0.18893
36.1 -0.20546
36.15 -0.22089
36.2 -0.23329
36.25 -0.24748
36.3 -0.25618
36.35 -0.2663
36.4 -0.27427
36.45 -0.28263
36.5 -0.2921
36.55 -0.30213
36.6 -0.30871
36.65 -0.31256
36.7 -0.31147
36.75 -0.31375
36.8 -0.31914
36.85 -0.32499
36.9 -0.33178
36.95 -0.33643
37 -0.33611
37.05 -0.33542
37.1 -0.33759
37.15 -0.33472
37.2 -0.33221
37.25 -0.32931
37.3 -0.32698
37.35 -0.32735
37.4 -0.32585
37.45 -0.32629
37.5 -0.32691
37.55 -0.32691
37.6 -0.3292
37.65 -0.32669
37.7 -0.32603
37.75 -0.31997
37.8 -0.31488
37.85 -0.30766
37.9 -0.30321
37.95 -0.3005
38 -0.2955
38.05 -0.2921
38.1 -0.2926
38.15 -0.29467
38.2 -0.29463
38.25 -0.29223
38.3 -0.2858
38.35 -0.28102
38.4 -0.27298
38.45 -0.26501
38.5 -0.25967
38.55 -0.25714
38.6 -0.25298
38.65 -0.24715
38.7 -0.23924
38.75 -0.2368
38.8 -0.2319
38.85 -0.22751
38.9 -0.22478
38.95 -0.22127
39 -0.21963
39.05 -0.21636
39.1 -0.21393
39.15 -0.21291
39.2 -0.21264
39.25 -0.20942
39.3 -0.20589
39.35 -0.19959
39.4 -0.19091
39.45 -0.18793
39.5 -0.18194
39.55 -0.17898
39.6 -0.17605
39.65 -0.17535
39.7 -0.1783
39.75 -0.1803
39.8 -0.17875
39.85 -0.1749
39.9 -0.17191
39.95 -0.17055
40 -0.17162
40.05 -0.17134
40.1 -0.16879
40.15 -0.16599
40.2 -0.16476
40.25 -0.16153
40.3 -0.15589
40.35 -0.15357
40.4 -0.15425
40.45 -0.15556
40.5 -0.15352
40.55 -0.15324
40.6 -0.14809
40.65 -0.14003
40.7 -0.1308
40.75 -0.12491
40.8 -0.11777
40.85 -0.11259
40.9 -0.11218
40.95 -0.10978
41 -0.10756
41.05 -0.10314
41.1 -0.10078
41.15 -0.09996
41.2 -0.10212
41.25 -0.1055
41.3 -0.10849
41.35 -0.11194
41.4 -0.11153
41.45 -0.10972
41.5 -0.10675
41.55 -0.10382
41.6 -0.10365
41.65 -0.09902
41.7 -0.09962
41.75 -0.10287
41.8 -0.10532
41.85 -0.10267
41.9 -0.10354
41.95 -0.10388
42 -0.10026
42.05 -0.094
42.1 -0.0918
42.15 -0.0913
42.2 -0.08611
42.25 -0.08128
42.3 -0.07497
42.35 -0.07315
42.4 -0.06903
42.45 -0.0635
42.5 -0.06355
42.55 -0.06669
42.6 -0.06605
42.65 -0.06659
42.7 -0.06722
42.75 -0.06756
42.8 -0.06674
42.85 -0.06592
42.9 -0.06341
42.95 -0.06551
43 -0.06607
43.05 -0.06705
43.1 -0.0679
43.15 -0.06961
43.2 -0.07334
43.25 -0.07308
43.3 -0.07259
43.35 -0.07007
43.4 -0.06866
43.45 -0.06437
43.5 -0.0633
43.55 -0.06353
43.6 -0.06507
43.65 -0.0656
43.7 -0.06518
43.75 -0.06547
43.8 -0.06141
43.85 -0.05546
43.9 -0.04824
43.95 -0.04094
44 -0.03451
44.05 -0.0288
44.1 -0.02825
44.15 -0.03286
44.2 -0.03937
44.25 -0.04286
44.3 -0.04453
44.35 -0.04235
44.4 -0.03718
44.45 -0.03392
44.5 -0.03048
44.55 -0.02905
44.6 -0.02503
44.65 -0.02048
44.7 -0.01935
44.75 -0.02411
44.8 -0.03003
44.85 -0.03593
44.9 -0.04125
44.95 -0.04378
45 -0.0425
45.05 -0.0375
45.1 -0.03146
45.15 -0.02585
45.2 -0.02589
45.25 -0.02278
45.3 -0.02424
45.35 -0.02471
45.4 -0.02797
45.45 -0.03083
45.5 -0.03628
45.55 -0.03977
45.6 -0.03845
45.65 -0.03478
45.7 -0.02856
45.75 -0.02166
45.8 -0.01409
45.85 -0.00934
45.9 -0.00976
45.95 -0.00901
46 -0.0132
46.05 -0.01315
46.1 -0.01478
46.15 -0.01364
46.2 -0.0173
46.25 -0.02405
46.3 -0.02936
46.35 -0.02985
46.4 -0.03137
46.45 -0.03345
46.5 -0.03467
46.55 -0.03228
46.6 -0.02681
46.65 -0.02531
46.7 -0.02119
46.75 -0.02036
46.8 -0.01676
46.85 -0.01738
46.9 -0.01825
46.95 -0.02235
47 -0.02249
47.05 -0.02527
47.1 -0.02574
47.15 -0.02449
47.2 -0.02673
47.25 -0.02726
47.3 -0.02389
47.35 -0.01811
47.4 -0.01829
47.45 -0.01916
47.5 -0.01746
47.55 -0.0152
47.6 -0.01622
47.65 -0.02046
47.7 -0.02634
47.75 -0.02851
47.8 -0.02972
47.85 -0.02629
47.9 -0.02422
47.95 -0.01811
48 -0.01062
48.05 -0.00784
48.1 -0.00342
48.15 -0.00202
48.2 -0.00202
48.25 0.00078
48.3 0.00502
48.35 0.00305
48.4 0.00163
48.45 -0.00186
48.5 -0.00782
48.55 -0.01192
48.6 -0.0107
48.65 -0.01045
48.7 -0.00863
48.75 -0.00837
48.8 -0.01105
48.85 -0.01387
48.9 -0.0161
48.95 -0.0178
49 -0.0166
49.05 -0.0164
49.1 -0.01284
49.15 -0.01209
49.2 -0.01117
49.25 -0.00738
49.3 -0.00218
49.35 0.0016
49.4 -0.00007
49.45 -0.00052
49.5 -0.00537
49.55 -0.00538
49.6 -0.00272
49.65 -0.00548
49.7 -0.00927
49.75 -0.00859
49.8 -0.01171
49.85 -0.01268
49.9 -0.01559
49.95 -0.01825
50 -0.01639
50.05 -0.01536
50.1 -0.0158
50.15 -0.01581
50.2 -0.01289
50.25 -0.00826
50.3 -0.00712
50.35 -0.0034
50.4 -0.00517
50.45 -0.00637
50.5 -0.00412
50.55 -0.00295
50.6 0.00101
50.65 0.00533
50.7 0.00642
50.75 0.0033
50.8 0.00199
50.85 -0.00009
50.9 -0.00154
50.95 0.00057
51 0.00372
51.05 0.00479
51.1 0.00535
51.15 0.00279
51.2 0.00414
51.25 0.00311
51.3 0.002
51.35 -0.00256
51.4 -0.00906
51.45 -0.01484
51.5 -0.02194
51.55 -0.02597
51.6 -0.0305
51.65 -0.03124
51.7 -0.03217
51.75 -0.02948
51.8 -0.02236
51.85 -0.01678
51.9 -0.01287
51.95 -0.00725
52 -0.00683
52.05 -0.0035
52.1 -0.00413
52.15 -0.00147
52.2 -0.00386
52.25 -0.00901
52.3 -0.00934
52.35 -0.01145
52.4 -0.00841
52.45 -0.00667
52.5 -0.00515
52.55 -0.00574
52.6 -0.00956
52.65 -0.0095
52.7 -0.01053
52.75 -0.01236
52.8 -0.01559
52.85 -0.01422
52.9 -0.01392
52.95 -0.01528
53 -0.0128
53.05 -0.00701
53.1 -0.00354
53.15 0.00144
53.2 0.0079
53.25 0.01184
53.3 0.01186
53.35 0.01337
53.4 0.01175
53.45 0.01302
53.5 0.01458
53.55 0.01657
53.6 0.01488
53.65 0.01576
53.7 0.01643
53.75 0.01233
53.8 0.01171
53.85 0.00708
53.9 0.00555
53.95 0.00135
54 0.00199
54.05 0.00317
54.1 0.00493
54.15 0.00897
54.2 0.01053
54.25 0.00728
54.3 0.0071
54.35 0.00559
54.4 0.00719
54.45 0.0088
54.5 0.00754
54.55 0.00194
54.6 -0.00002
54.65 -0.00227
54.7 -0.00406
54.75 -0.00855
54.8 -0.01045
54.85 -0.01357
54.9 -0.01175
54.95 -0.01391
55 -0.01182
55.05 -0.00981
55.1 -0.00822
55.15 -0.00648
55.2 -0.00614
55.25 -0.00852
55.3 -0.00811
55.35 -0.01035
55.4 -0.00873
55.45 -0.00533
55.5 -0.00233
55.55 -0.00142
55.6 -0.00023
55.65 0.00084
55.7 0.00181
55.75 0.0016
55.8 -0.00001
55.85 0.00211
55.9 0.00344
55.95 0.00363
56 0.00141
56.05 0.00016
56.1 -0.00044
56.15 -0.00034
56.2 -0.00117
56.25 -0.00376
56.3 -0.0019
56.35 0.00227
56.4 0.00796
56.45 0.01316
56.5 0.01237
56.55 0.01182
56.6 0.0062
56.65 -0.00204
56.7 -0.00397
56.75 -0.00711
56.8 -0.00709
56.85 -0.00886
56.9 -0.01069
56.95 -0.00997
57 -0.00684
57.05 -0.00652
57.1 -0.00859
57.15 -0.01126
57.2 -0.01544
57.25 -0.01331
57.3 -0.01249
57.35 -0.01198
57.4 -0.00924
57.45 -0.00823
57.5 -0.00914
57.55 -0.01025
57.6 -0.01083
57.65 -0.00765
57.7 -0.00295
57.75 -0.00384
57.8 -0.00786
57.85 -0.01302
57.9 -0.01818
57.95 -0.01953
58 -0.01741
58.05 -0.01765
58.1 -0.01573
58.15 -0.01393
58.2 -0.01217
58.25 -0.00635
58.3 -0.0034
58.35 -0.0012
58.4 -0.00075
58.45 0.0035
58.5 0.00805
58.55 0.00911
58.6 0.01119
58.65 0.00891
58.7 0.00994
58.75 0.01137
58.8 0.01157
58.85 0.00731
58.9 0.00241
58.95 0.0019
59 0.00065
59.05 -0.00272
59.1 -0.00257
59.15 -0.00069
59.2 -0.00262
59.25 -0.00478
59.3 -0.00827
59.35 -0.01223
59.4 -0.01319
59.45 -0.00965
59.5 -0.00806
59.55 -0.0042
59.6 -0.00436
59.65 -0.00245
59.7 0.00017
59.75 0.00466
59.8 0.00368
59.85 0.00467
59.9 0.00739
59.95 0.0058
60 0.00556
60.05 0.00207
60.1 0.00072
60.15 0.00286
60.2 0.00729
60.25 0.01074
60.3 0.00971
60.35 0.0056
60.4 0.00139
60.45 0.00115
60.5 0.00346
60.55 0.00669
60.6 0.0058
60.65 0.00783
60.7 0.00896
60.75 0.00871
60.8 0.00407
60.85 0.00386
60.9 0.00616
60.95 0.00847
61 0.00831
61.05 0.00358
61.1 0.00386
61.15 0.00359
61.2 0.00393
61.25 0.00719
61.3 0.00787
61.35 0.00906
61.4 0.01263
61.45 0.01191
61.5 0.01116
61.55 0.01146
61.6 0.00937
61.65 0.00886
61.7 0.00772
61.75 0.00494
61.8 0.00612
61.85 0.00632
61.9 0.00813
61.95 0.00776
62 0.00563
62.05 0.00235
62.1 -0.00369
62.15 -0.00601
62.2 -0.00361
62.25 -0.0013
62.3 0.00094
62.35 0.00491
62.4 0.00775
62.45 0.00494
62.5 0.00221
62.55 0.00077
62.6 -0.00008
62.65 0.00275
62.7 0.00435
62.75 0.00248
62.8 0.00446
62.85 0.00256
62.9 -0.00284
62.95 -0.00947
63 -0.01571
63.05 -0.01588
63.1 -0.01358
63.15 -0.00836
63.2 -0.00856
63.25 -0.00867
63.3 -0.01004
63.35 -0.01424
63.4 -0.02003
63.45 -0.02398
63.5 -0.02121
63.55 -0.01946
63.6 -0.01393
63.65 -0.00677
63.7 -0.00303
63.75 0.00179
63.8 0.00214
63.85 0.00331
63.9 0.00359
63.95 0.00231
64 0.00449
64.05 0.00369
64.1 0.00208
64.15 -0.00333
64.2 -0.01069
64.25 -0.01168
64.3 -0.01181
64.35 -0.01205
64.4 -0.01339
64.45 -0.01581
64.5 -0.01518
64.55 -0.01506
64.6 -0.01018
64.65 -0.0099
64.7 -0.01038
64.75 -0.01357
64.8 -0.01479
64.85 -0.01516
64.9 -0.01291
64.95 -0.01357
65 -0.01291
65.05 -0.01139
65.1 -0.00616
65.15 -0.0005
65.2 0.00681
65.25 0.01028
65.3 0.01214
65.35 0.00884
65.4 0.00962
65.45 0.00756
65.5 0.00774
65.55 0.00505
65.6 0.00512
65.65 0.00351
65.7 -0.00152
65.75 -0.00567
65.8 -0.01001
65.85 -0.01086
65.9 -0.01308
65.95 -0.00944
66 -0.00403
66.05 0.00053
66.1 0.00143
66.15 0.00137
66.2 -0.00208
66.25 -0.00668
66.3 -0.01077
66.35 -0.01143
66.4 -0.00908
66.45 -0.0105
66.5 -0.01286
66.55 -0.01663
66.6 -0.01755
66.65 -0.01693
66.7 -0.01117
66.75 -0.00961
66.8 -0.00956
66.85 -0.0077
66.9 -0.00244
66.95 0.00363
67 0.00945
67.05 0.01233
67.1 0.01435
67.15 0.01087
67.2 0.00703
67.25 0.00606
67.3 0.00239
67.35 -0.00026
67.4 -0.00402
67.45 -0.00878
67.5 -0.00905
67.55 -0.0064
67.6 -0.00399
67.65 -0.00528
67.7 -0.00555
67.75 -0.00416
67.8 -0.00114
67.85 0.00304
67.9 0.00925
67.95 0.00992
68 0.00621
68.05 0.00289
68.1 0.00057
68.15 0.00311
68.2 0.00181
68.25 -0.00296
68.3 -0.0065
68.35 -0.00483
68.4 -0.0005
68.45 0.0041
68.5 0.0099
68.55 0.01153
68.6 0.00806
68.65 0.00336
68.7 0.00285
68.75 0.00358
68.8 0.00753
68.85 0.01078
68.9 0.01552
68.95 0.01617
69 0.01508
69.05 0.01534
69.1 0.0135
69.15 0.0078
69.2 0.00251
69.25 -0.00223
69.3 -0.00222
69.35 -0.00288
69.4 -0.00602
69.45 -0.00848
69.5 -0.0059
69.55 -0.00065
69.6 0.00167
69.65 0.00442
69.7 0.00564
69.75 0.00374
69.8 0.00166
69.85 0.00208
69.9 0.00366
69.95 0.00387
70 0.00198
70.05 0.002
70.1 0.00194
70.15 -0.00186
70.2 -0.00343
70.25 -0.00769
70.3 -0.00798
70.35 -0.00892
70.4 -0.00749
70.45 -0.00934
70.5 -0.00711
70.55 -0.00354
70.6 -0.0016
70.65 -0.0032
70.7 -0.00258
70.75 -0.00026
70.8 -0.00106
70.85 -0.00079
70.9 0.00118
70.95 0.00079
71 -0.0028
71.05 -0.00271
71.1 -0.00073
71.15 0.00002
71.2 0.00176
71.25 0.0042
71.3 0.00318
71.35 0.0011
71.4 -0.0034
71.45 -0.00776
71.5 -0.01136
71.55 -0.01673
71.6 -0.02136
71.65 -0.02571
71.7 -0.02381
71.75 -0.01975
71.8 -0.01628
71.85 -0.01306
71.9 -0.00807
71.95 -0.00728
72 -0.00326
72.05 -0.00392
72.1 -0.00058
72.15 -0.00023
72.2 -0.00373
72.25 -0.0092
72.3 -0.01286
72.35 -0.01551
72.4 -0.01403
72.45 -0.01504
72.5 -0.01512
72.55 -0.01205
72.6 -0.01203
72.65 -0.01449
72.7 -0.01265
72.75 -0.00721
72.8 0.00087
72.85 0.00269
72.9 0.00562
72.95 0.00583
73 0.00203
73.05 0.00336
73.1 0.00317
73.15 -0.00033
73.2 -0.00145
73.25 -0.00212
73.3 -0.00255
73.35 -0.00379
73.4 -0.00257
73.45 0.00251
73.5 0.0085
73.55 0.01115
73.6 0.01202
73.65 0.01009
73.7 0.00737
73.75 0.00717
73.8 0.00721
73.85 0.00904
73.9 0.00655
73.95 0.00362
74 0.00291
74.05 -0.00024
74.1 -0.00248
74.15 -0.00051
74.2 -0.0017
74.25 -0.00402
74.3 -0.00404
74.35 0.00024
74.4 0.00227
74.45 0.00238
74.5 -0.001
74.55 -0.00019
74.6 0.00088
74.65 0.00283
74.7 0.00574
74.75 0.00369
74.8 -0.0002
74.85 -0.00083
74.9 0.00155
74.95 -0.00057
75 -0.004
75.05 -0.00586
75.1 -0.00502
75.15 -0.00781
75.2 -0.00548
75.25 -0.00689
75.3 -0.00759
75.35 -0.00454
75.4 0.00149
75.45 0.00638
75.5 0.00605
75.55 0.00621
75.6 0.0063
75.65 0.00496
75.7 0.00298
75.75 0.0012
75.8 0.00195
75.85 0.00132
75.9 0.00234
75.95 0.00503
76 0.00632
76.05 0.00721
76.1 0.01121
76.15 0.0099
76.2 0.00687
76.25 0.00805
76.3 0.00672
76.35 0.00907
76.4 0.00764
76.45 0.00246
76.5 -0.00315
76.55 -0.00978
76.6 -0.01002
76.65 -0.00981
76.7 -0.00915
76.75 -0.01112
76.8 -0.00933
76.85 -0.00928
76.9 -0.01113
76.95 -0.01133
77 -0.00766
77.05 -0.00396
77.1 0.00266
77.15 0.00383
77.2 0.00237
77.25 0.00365
77.3 0.00383
77.35 0.00724
77.4 0.01133
77.45 0.00963
77.5 0.00917
77.55 0.00594
77.6 0.00561
77.65 0.00731
77.7 0.00669
77.75 0.0079
77.8 0.00618
77.85 0.00458
77.9 0.0052
77.95 0.00582
78 0.00948
78.05 0.01407
78.1 0.01461
78.15 0.01268
78.2 0.01013
78.25 0.00894
78.3 0.00714
78.35 0.00686
78.4 0.00324
78.45 0.00224
78.5 0.00486
78.55 0.00573
78.6 0.00535
78.65 0.00308
78.7 0.00494
78.75 0.00515
78.8 0.00163
78.85 0.00111
78.9 0.00181
78.95 0.00299
79 0.00281
79.05 0.00055
79.1 0.00137
79.15 0.00013
79.2 -0
79.25 -0.00224
79.3 -0.00618
79.35 -0.00519
79.4 -0.00163
79.45 0.00147
79.5 -0.00029
79.55 0.00047
79.6 -0.00014
79.65 -0.00294
79.7 -0.00088
79.75 -0.00303
79.8 -0.00271
79.85 -0.00407
79.9 -0.0033
79.95 -0.0043
80 -0.00691
80.05 -0.00565
80.1 -0.00071
80.15 -0.00059
80.2 -0.00182
80.25 -0.00242
80.3 -0.00328
80.35 -0.00627
80.4 -0.01014
80.45 -0.0098
80.5 -0.01056
80.55 -0.00867
80.6 -0.00788
80.65 -0.00584
80.7 -0.00797
80.75 -0.01034
80.8 -0.01279
80.85 -0.01344
80.9 -0.01074
80.95 -0.00725
81 -0.00486
81.05 -0.0056
81.1 -0.00269
81.15 0.00307
81.2 0.00258
81.25 -0.00136
81.3 -0.00028
81.35 -0.00181
81.4 -0.0022
81.45 0.00089
81.5 0.00349
81.55 0.00694
81.6 0.01055
81.65 0.01065
81.7 0.0138
81.75 0.01461
81.8 0.0139
81.85 0.0106
81.9 0.00763
81.95 0.00383
82 0.00335
82.05 0.00331
82.1 0.00167
82.15 0.00055
82.2 0.00339
82.25 0.00256
82.3 0.00113
82.35 -0.0028
82.4 -0.00663
82.45 -0.00639
82.5 -0.00954
82.55 -0.00948
82.6 -0.01056
82.65 -0.00871
82.7 -0.00658
82.75 -0.00749
82.8 -0.01083
82.85 -0.01351
82.9 -0.01496
82.95 -0.01307
83 -0.00826
83.05 -0.00103
83.1 0.00269
83.15 0.00422
83.2 0.00204
83.25 0.00095
83.3 -0.00077
83.35 -0.00156
83.4 0.00022
83.45 0.00516
83.5 0.00433
83.55 0.00632
83.6 0.00452
83.65 0.00462
83.7 0.00426
83.75 0.0023
83.8 -0.00008
83.85 0.00105
83.9 -0.00131
83.95 -0.00341
84 -0.00778
84.05 -0.00638
84.1 -0.00603
84.15 -0.00638
84.2 -0.00837
84.25 -0.00606
84.3 -0.00055
84.35 0.00567
84.4 0.01276
84.45 0.01786
84.5 0.01789
84.55 0.01655
84.6 0.01732
84.65 0.01621
84.7 0.01258
84.75 0.0092
84.8 0.00761
84.85 0.00617
84.9 0.00369
84.95 0.00285
85 0.00115
85.05 -0.00348
85.1 -0.0035
85.15 -0.00629
85.2 -0.00607
85.25 -0.00192
85.3 -0.00228
85.35 -0.00605
85.4 -0.01189
85.45 -0.0181
85.5 -0.02307
85.55 -0.02699
85.6 -0.02639
85.65 -0.02589
85.7 -0.0247
85.75 -0.01993
85.8 -0.01817
85.85 -0.01255
85.9 -0.01076
85.95 -0.00973
86 -0.00625
86.05 -0.00625
86.1 -0.00916
86.15 -0.01159
86.2 -0.00944
86.25 -0.00991
86.3 -0.01048
86.35 -0.00758
86.4 -0.00157
86.45 0.00496
86.5 0.01068
86.55 0.01438
86.6 0.01967
86.65 0.02238
86.7 0.02639
86.75 0.02371
86.8 0.02385
86.85 0.02141
86.9 0.01966
86.95 0.01612
87 0.00986
87.05 0.00136
87.1 -0.0009
87.15 -0.00391
87.2 -0.00423
87.25 -0.00325
87.3 0.00128
87.35 0.00764
87.4 0.00969
87.45 0.01039
87.5 0.00978
87.55 0.00876
87.6 0.0048
87.65 -0.00076
87.7 -0.00369
87.75 -0.00151
87.8 0.00094
87.85 -0.00012
87.9 0.00281
87.95 0.00315
88 0.00232
88.05 -0.00194
88.1 -0.00603
88.15 -0.00889
88.2 -0.00975
88.25 -0.00992
88.3 -0.00761
88.35 -0.00622
88.4 -0.00551
88.45 -0.00374
88.5 -0.00354
88.55 -0.00512
88.6 -0.00209
88.65 -0.00339
88.7 -0.00555
88.75 -0.00245
88.8 -0.00349
88.85 -0.00683
88.9 -0.0117
88.95 -0.01767
89 -0.02103
89.05 -0.0225
89.1 -0.01771
89.15 -0.01369
89.2 -0.00686
89.25 0.00093
89.3 0.00564
89.35 0.01031
89.4 0.01529
89.45 0.01379
89.5 0.01101
89.55 0.01201
89.6 0.01347
89.65 0.01292
89.7 0.01036
89.75 0.01002
89.8 0.0114
89.85 0.00933
89.9 0.00421
89.95 0.0033
90 -0.00092
90.05 -0.00095
90.1 0.00115
90.15 0.00033
90.2 -0.00024
90.25 0.00237
90.3 0.00679
90.35 0.00948
90.4 0.00989
90.45 0.01121
90.5 0.00743
90.55 0.00542
90.6 0.00673
90.65 0.00951
90.7 0.01232
90.75 0.01255
90.8 0.01189
90.85 0.01154
90.9 0.01001
90.95 0.00724
91 0.0032
91.05 -0.00374
91.1 -0.00426
91.15 -0.00688
91.2 -0.00778
91.25 -0.00609
91.3 -0.00415
91.35 -0.0029
91.4 0.00181
91.45 0.00294
91.5 0.00413
91.55 0.00838
91.6 0.01097
91.65 0.01417
91.7 0.01252
91.75 0.01132
91.8 0.00847
91.85 0.00761
91.9 0.00726
91.95 0.00509
92 0.00473
92.05 0.0016
92.1 0.00014
92.15 -0.00146
92.2 -0.0062
92.25 -0.01192
92.3 -0.01097
92.35 -0.00813
92.4 -0.00353
92.45 0.0024
92.5 0.00394
92.55 0.00593
92.6 0.00437
92.65 -0.00085
92.7 -0.003
92.75 -0.00611
92.8 -0.00995
92.85 -0.00825
92.9 -0.00457
92.95 -0.00333
93 -0.00246
93.05 0.00104
93.1 0.00019
93.15 -0.00188
93.2 -0.00335
93.25 -0.00189
93.3 0.0029
93.35 0.00476
93.4 0.00359
93.45 -0.00021
93.5 -0.00419
93.55 -0.00937
93.6 -0.01203
93.65 -0.01397
93.7 -0.01735
93.75 -0.01888
93.8 -0.01532
93.85 -0.00827
93.9 -0.00009
93.95 0.0049
94 0.01109
94.05 0.0104
94.1 0.00811
94.15 0.0032
94.2 -0.00029
94.25 -0.00551
94.3 -0.01166
94.35 -0.01177
94.4 -0.01124
94.45 -0.01182
94.5 -0.01019
94.55 -0.01125
94.6 -0.01354
94.65 -0.01294
94.7 -0.01508
94.75 -0.01697
94.8 -0.01546
94.85 -0.0143
94.9 -0.009
94.95 -0.00384
95 0.00305
95.05 0.00899
95.1 0.0156
95.15 0.01862
95.2 0.01762
95.25 0.01541
95.3 0.0152
95.35 0.01344
95.4 0.00769
95.45 0.00459
95.5 -0.00104
95.55 -0.00681
95.6 -0.0124
95.65 -0.01227
95.7 -0.01176
95.75 -0.01394
95.8 -0.0166
95.85 -0.01599
95.9 -0.01342
95.95 -0.01303
96 -0.01382
96.05 -0.01614
96.1 -0.01407
96.15 -0.00789
96.2 -0.00249
96.25 0.00061
96.3 0.00558
96.35 0.00996
96.4 0.00964
96.45 0.00582
96.5 0.00105
96.55 -0.0057
96.6 -0.01193
96.65 -0.01127
96.7 -0.0099
96.75 -0.00641
96.8 -0.006
96.85 -0.0081
96.9 -0.00716
96.95 -0.00622
97 -0.00146
97.05 0.00272
97.1 0.00258
97.15 0.00194
97.2 -0.00227
97.25 -0.0011
97.3 0.00049
97.35 0.00245
97.4 0.00315
97.45 0.00648
97.5 0.00892
97.55 0.00999
97.6 0.00602
97.65 0.00223
97.7 0.00306
97.75 0.0049
97.8 0.00673
97.85 0.00594
97.9 0.00596
97.95 0.00664
98 0.00582
98.05 0.00322
98.1 0.00366
98.15 0.0071
98.2 0.01021
98.25 0.01358
98.3 0.0183
98.35 0.02065
98.4 0.01982
98.45 0.02155
98.5 0.01834
98.55 0.01309
98.6 0.0101
98.65 0.00993
98.7 0.0081
98.75 0.00323
98.8 0.00238
98.85 0.00107
98.9 -0.00172
98.95 -0.00406
99 -0.00598
99.05 -0.00831
99.1 -0.01142
99.15 -0.01121
99.2 -0.01218
99.25 -0.01466
99.3 -0.01435
99.35 -0.00989
99.4 -0.00702
99.45 -0.00248
99.5 -0.00175
99.55 -0.00348
99.6 -0.00035
99.65 0.00148
99.7 -0.00029
99.75 -0.00339
99.8 -0.0067
99.85 -0.0112
99.9 -0.01192
99.95 -0.01519
