0 0
0.05 0.00487
0.1 0.01032
0.15 0.01956
0.2 0.0312
0.25 0.03983
0.3 0.04844
0.35 0.0534
0.4 0.05577
0.45 0.05397
0.5 0.04949
0.55 0.04844
0.6 0.0509
0.65 0.05156
0.7 0.05415
0.75 0.05522
0.8 0.05587
0.85 0.05744
0.9 0.05859
0.95 0.05431
1 0.04917
1.05 0.04317
1.1 0.03591
1.15 0.03273
1.2 0.03081
1.25 0.03089
1.3 0.03338
1.35 0.03459
1.4 0.03464
1.45 0.03639
1.5 0.03744
1.55 0.03655
1.6 0.03728
1.65 0.03643
1.7 0.03204
1.75 0.02536
1.8 0.01769
1.85 0.01434
1.9 0.01238
1.95 0.00864
2 0.01002
2.05 0.01226
2.1 0.01614
2.15 0.02273
2.2 0.02983
2.25 0.03069
2.3 0.03429
2.35 0.03442
2.4 0.03689
2.45 0.04124
2.5 0.04094
2.55 0.0412
2.6 0.04139
2.65 0.0433
2.7 0.04647
2.75 0.04242
2.8 0.03403
2.85 0.02344
2.9 0.01383
2.95 0.01064
3 0.00744
3.05 0.00506
3.1 0.00321
3.15 0.00289
3.2 0.00712
3.25 0.01003
3.3 0.01456
3.35 0.01402
3.4 0.01658
3.45 0.01478
3.5 0.01668
3.55 0.01902
3.6 0.01951
3.65 0.01915
3.7 0.01907
3.75 0.02088
3.8 0.02316
3.85 0.02585
3.9 0.02907
3.95 0.03212
4 0.03457
4.05 0.03068
4.1 0.02964
4.15 0.02805
4.2 0.02252
4.25 0.01859
4.3 0.01166
4.35 0.00626
4.4 -0.00066
4.45 -0.00168
4.5 0.0025
4.55 0.00241
4.6 0.00572
4.65 0.00716
4.7 0.00882
4.75 0.01025
4.8 0.01054
4.85 0.00779
4.9 0.00779
4.95 0.01106
5 0.01277
5.05 0.01443
5.1 0.01096
5.15 0.00485
5.2 -0.00151
5.25 -0.00307
5.3 -0.00452
5.35 -0.00139
5.4 0.00439
5.45 0.01061
5.5 0.01062
5.55 0.00823
5.6 0.0075
5.65 0.0053
5.7 0.00179
5.75 -0.00104
5.8 -0.00504
5.85 -0.00877
5.9 -0.00977
5.95 -0.00588
6 -0.00339
6.05 0.00144
6.1 0.00613
6.15 0.00758
6.2 0.00753
6.25 0.00706
6.3 0.00864
6.35 0.0093
6.4 0.00936
6.45 0.0058
6.5 0.00497
6.55 0.00153
6.6 0.00343
6.65 0.00434
6.7 0.00847
6.75 0.01201
6.8 0.01397
6.85 0.01467
6.9 0.01098
6.95 0.00419
7 0.00336
7.05 0.00207
7.1 -0.00242
7.15 -0.00273
7.2 0.00022
7.25 0.00469
7.3 0.00917
7.35 0.01392
7.4 0.01954
7.45 0.01819
7.5 0.01259
7.55 0.00994
7.6 0.00786
7.65 0.0032
7.7 0.00184
7.75 0.00218
7.8 0.00549
7.85 0.00775
7.9 0.00755
7.95 0.00857
8 0.01093
8.05 0.00947
8.1 0.008
8.15 0.00533
8.2 0.00709
8.25 0.00604
8.3 0.00549
8.35 0.0024
8.4 0.00356
8.45 0.00189
8.5 0.00213
8.55 0.00405
8.6 0.00864
8.65 0.01034
8.7 0.01219
8.75 0.01315
8.8 0.01035
8.85 0.00901
8.9 0.00864
8.95 0.00895
9 0.01058
9.05 0.01446
9.1 0.01777
9.15 0.01695
9.2 0.01327
9.25 0.00935
9.3 0.00498
9.35 0.00174
9.4 0.00275
9.45 0.00256
9.5 0.00045
9.55 -0.00327
9.6 -0.00449
9.65 -0.00156
9.7 -0.00282
9.75 -0.00585
9.8 -0.01072
9.85 -0.01135
9.9 -0.01334
9.95 -0.0132
10 -0.01003
10.05 -0.00459
10.1 0.00252
10.15 0.00384
10.2 0.00076
10.25 -0.0013
10.3 -0.00216
10.35 0.00051
10.4 0.00324
10.45 0.00494
10.5 0.00837
10.55 0.00959
10.6 0.01268
10.65 0.01367
10.7 0.012
10.75 0.01364
10.8 0.01559
10.85 0.01251
10.9 0.00932
10.95 0.00948
11 0.01097
11.05 0.00971
11.1 0.00702
11.15 0.00808
11.2 0.00513
11.25 -0.00127
11.3 -0.00424
11.35 -0.00579
11.4 -0.00895
11.45 -0.01028
11.5 -0.01132
11.55 -0.00957
11.6 -0.00918
11.65 -0.00459
11.7 -0.0039
11.75 -0.00117
11.8 -0.00288
11.85 -0.00611
11.9 -0.00618
11.95 -0.00645
12 -0.0028
12.05 -0.00245
12.1 -0.00238
12.15 -0.00436
12.2 -0.00512
12.25 -0.0014
12.3 0.00329
12.35 0.00433
12.4 0.0049
12.45 0.00748
12.5 0.00965
12.55 0.01381
12.6 0.01824
12.65 0.02307
12.7 0.02161
12.75 0.01564
12.8 0.0135
12.85 0.00716
12.9 -0.00128
12.95 -0.00501
13 -0.00982
13.05 -0.01193
13.1 -0.01551
13.15 -0.01907
13.2 -0.02054
13.25 -0.01596
13.3 -0.01449
13.35 -0.00945
13.4 -0.00509
13.45 0.00036
13.5 0.00292
13.55 0.00691
13.6 0.01238
13.65 0.01662
13.7 0.01466
13.75 0.01152
13.8 0.00564
13.85 0.00315
13.9 0.00406
13.95 0.0028
14 -0.00139
14.05 -0.00626
14.1 -0.00809
14.15 -0.00527
14.2 -0.00537
14.25 -0.00544
14.3 -0.00854
14.35 -0.01304
14.4 -0.01527
14.45 -0.01183
14.5 -0.00724
14.55 -0.00424
14.6 0.00014
14.65 0.00379
14.7 0.00241
14.75 0.00216
14.8 0.00122
14.85 -0.00032
14.9 0.00137
14.95 0.00546
15 0.00358
15.05 0.00451
15.1 0.0063
15.15 0.01065
15.2 0.00907
15.25 0.00633
15.3 0.00124
15.35 -0.00321
15.4 -0.00912
15.45 -0.00929
15.5 -0.00996
15.55 -0.00839
15.6 -0.00549
15.65 -0.00705
15.7 -0.00415
15.75 -0.00501
15.8 -0.00607
15.85 -0.00976
15.9 -0.01131
15.95 -0.01223
16 -0.01114
16.05 -0.00652
16.1 -0.00414
16.15 -0.00204
16.2 0.00213
16.25 0.00712
16.3 0.00882
16.35 0.00829
16.4 0.00922
16.45 0.00875
16.5 0.01015
16.55 0.00744
16.6 0.00373
16.65 -0.00066
16.7 -0.00431
16.75 -0.00604
16.8 -0.0045
16.85 -0.00436
16.9 -0.00488
16.95 -0.00328
17 -0.00374
17.05 -0.00737
17.1 -0.01195
17.15 -0.01093
17.2 -0.00629
17.25 -0.0046
17.3 -0.0002
17.35 0.00147
17.4 0.00298
17.45 0.00507
17.5 0.00671
17.55 0.00981
17.6 0.01034
17.65 0.00728
17.7 0.00472
17.75 -0.00042
17.8 -0.00248
17.85 -0.00023
17.9 0.00021
17.95 0.00398
18 0.004
18.05 0.00068
18.1 0.00103
18.15 0.00389
18.2 0.00622
18.25 0.01087
18.3 0.00997
18.35 0.01167
18.4 0.01145
18.45 0.00885
18.5 0.00835
18.55 0.00433
18.6 -0.00013
18.65 -0.00201
18.7 -0.00072
18.75 -0.00201
18.8 -0.0043
18.85 -0.0026
18.9 -0.00071
18.95 0.0004
19 0.00465
19.05 0.00896
19.1 0.01452
19.15 0.01385
19.2 0.00833
19.25 0.00699
19.3 0.00651
19.35 0.00202
19.4 0.00019
19.45 -0.00349
19.5 -0.00357
19.55 -0.00012
19.6 -0.00054
19.65 -0.00369
19.7 -0.00534
19.75 -0.0082
19.8 -0.01304
19.85 -0.01202
19.9 -0.01451
19.95 -0.01634
20 -0.01412
20.05 -0.01168
20.1 -0.00892
20.15 -0.00547
20.2 -0.00092
20.25 -0.00162
20.3 -0.00342
20.35 -0.00248
20.4 -0.00021
20.45 -0.0005
20.5 -0.0005
20.55 -0.00162
20.6 -0.00333
20.65 -0.00307
20.7 -0.00052
20.75 0.00288
20.8 0.00161
20.85 -0.00222
20.9 -0.00732
20.95 -0.0086
21 -0.0092
21.05 -0.00961
21.1 -0.01281
21.15 -0.011
21.2 -0.01078
21.25 -0.00944
21.3 -0.00744
21.35 -0.00791
21.4 -0.00946
21.45 -0.01212
21.5 -0.01626
21.55 -0.01888
21.6 -0.01678
21.65 -0.01192
21.7 -0.00625
21.75 -0.00183
21.8 0.0022
21.85 0.00378
21.9 0.00111
21.95 -0.00384
22 -0.00473
22.05 -0.00332
22.1 -0.00585
22.15 -0.00455
22.2 -0.00703
22.25 -0.00572
22.3 -0.00817
22.35 -0.0083
22.4 -0.01099
22.45 -0.01408
22.5 -0.01735
22.55 -0.01772
22.6 -0.01452
22.65 -0.00763
22.7 -0.00627
22.75 -0.00188
22.8 0.00449
22.85 0.0053
22.9 0.0071
22.95 0.01088
23 0.01371
23.05 0.01139
23.1 0.00802
23.15 0.00306
23.2 0.00151
23.25 -0.00234
23.3 -0.00565
23.35 -0.00986
23.4 -0.01337
23.45 -0.01617
23.5 -0.01999
23.55 -0.02166
23.6 -0.01687
23.65 -0.01558
23.7 -0.01515
23.75 -0.00959
23.8 -0.00308
23.85 0.00178
23.9 0.0016
23.95 0.00232
24 0.00078
24.05 -0.00146
24.1 0.00014
24.15 0.00225
24.2 0.00702
24.25 0.00876
24.3 0.01166
24.35 0.01495
24.4 0.01878
24.45 0.01971
24.5 0.01905
24.55 0.01855
24.6 0.01467
24.65 0.00996
24.7 0.00305
24.75 -0.00485
24.8 -0.00607
24.85 -0.00582
24.9 -0.00301
24.95 0.00011
25 0.00111
25.05 0.00537
25.1 0.00722
25.15 0.00815
25.2 0.00492
25.25 0.00585
25.3 0.00509
25.35 0.0008
25.4 -0.00406
25.45 -0.01015
25.5 -0.01252
25.55 -0.01642
25.6 -0.01815
25.65 -0.01955
25.7 -0.01673
25.75 -0.01035
25.8 -0.00296
25.85 0.00046
25.9 0.00498
25.95 0.00776
26 0.00525
26.05 0.00058
26.1 -0.00492
26.15 -0.00805
26.2 -0.00837
26.25 -0.00664
26.3 -0.00825
26.35 -0.00535
26.4 -0.00017
26.45 0.00504
26.5 0.00677
26.55 0.0101
26.6 0.00925
26.65 0.01002
26.7 0.00817
26.75 0.00678
26.8 0.00376
26.85 0.00452
26.9 0.00841
26.95 0.00699
27 0.00763
27.05 0.00817
27.1 0.00705
27.15 0.00541
27.2 0.00475
27.25 0.00623
27.3 0.00836
27.35 0.01143
27.4 0.0111
27.45 0.0068
27.5 0.00088
27.55 -0.00248
27.6 -0.00408
27.65 -0.00197
27.7 -0.00304
27.75 -0.00725
27.8 -0.01346
27.85 -0.01844
27.9 -0.02334
27.95 -0.02441
28 -0.02575
28.05 -0.02908
28.1 -0.02948
28.15 -0.03081
28.2 -0.03759
28.25 -0.04668
28.3 -0.05788
28.35 -0.07271
28.4 -0.08613
28.45 -0.10168
28.5 -0.12164
28.55 -0.14313
28.6 -0.16744
28.65 -0.19792
28.7 -0.23933
28.75 -0.28648
28.8 -0.34144
28.85 -0.39919
28.9 -0.45917
28.95 -0.52583
29 -0.59328
29.05 -0.6678
29.1 -0.74828
29.15 -0.83188
29.2 -0.92465
29.25 -1.0224
29.3 -1.12605
29.35 -1.2348
29.4 -1.34504
29.45 -1.45929
29.5 -1.57433
29.55 -1.68203
29.6 -1.78912
29.65 -1.88946
29.7 -1.98378
29.75 -2.07694
29.8 -2.16552
29.85 -2.24088
29.9 -2.30654
29.95 -2.3583
30 -2.39502
30.05 -2.41509
30.1 -2.42118
30.15 -2.41287
30.2 -2.38917
30.25 -2.35003
30.3 -2.30274
30.35 -2.23854
30.4 -2.16123
30.45 -2.06703
30.5 -1.95838
30.55 -1.83797
30.6 -1.70643
30.65 -1.56848
30.7 -1.42371
30.75 -1.27136
30.8 -1.11285
30.85 -0.95161
30.9 -0.79122
30.95 -0.62522
31 -0.46157
31.05 -0.30226
31.1 -0.1451
31.15 0.00897
31.2 0.16126
31.25 0.31061
31.3 0.45652
31.35 0.59874
31.4 0.73737
31.45 0.86617
31.5 0.98482
31.55 1.09242
31.6 1.1947
31.65 1.29228
31.7 1.37782
31.75 1.45715
31.8 1.52904
31.85 1.58999
31.9 1.64196
31.95 1.69207
32 1.73813
32.05 1.77401
32.1 1.80672
32.15 1.83859
32.2 1.86749
32.25 1.8931
32.3 1.9107
32.35 1.92201
32.4 1.92494
32.45 1.92649
32.5 1.9291
32.55 1.92757
32.6 1.92193
32.65 1.91587
32.7 1.90501
32.75 1.8922
32.8 1.88039
32.85 1.87156
32.9 1.86027
32.95 1.84506
33 1.83091
33.05 1.81486
33.1 1.79818
33.15 1.78149
33.2 1.76188
33.25 1.73976
33.3 1.71745
33.35 1.68986
33.4 1.65862
33.45 1.6223
33.5 1.58792
33.55 1.5558
33.6 1.51875
33.65 1.47925
33.7 1.43916
33.75 1.40276
33.8 1.36152
33.85 1.32207
33.9 1.28487
33.95 1.245
34 1.20518
34.05 1.16307
34.1 1.11932
34.15 1.07758
34.2 1.03105
34.25 0.98238
34.3 0.93514
34.35 0.88457
34.4 0.83855
34.45 0.78951
34.5 0.7446
34.55 0.70315
34.6 0.6579
34.65 0.61507
34.7 0.57593
34.75 0.53315
34.8 0.49452
34.85 0.45275
34.9 0.41093
34.95 0.3711
35 0.33041
35.05 0.29238
35.1 0.26063
35.15 0.22951
35.2 0.19758
35.25 0.1652
35.3 0.13624
35.35 0.11025
35.4 0.08422
35.45 0.06004
35.5 0.03523
35.55 0.01345
35.6 -0.01003
35.65 -0.0326
35.7 -0.05106
35.75 -0.07194
35.8 -0.0894
35.85 -0.10665
35.9 -0.12478
35.95 -0.14138
36 -0.15557
36.05 -0.16804
36.1 -0.17906
36.15 -0.18815
36.2 -0.20238
36.25 -0.21498
36.3 -0.22466
36.35 -0.2393
36.4 -0.25469
36.45 -0.26977
36.5 -0.28149
36.55 -0.29056
36.6 -0.29613
36.65 -0.29904
36.7 -0.30416
36.75 -0.30808
36.8 -0.3141
36.85 -0.31619
36.9 -0.32231
36.95 -0.32585
37 -0.32883
37.05 -0.33355
37.1 -0.33999
37.15 -0.34611
37.2 -0.34779
37.25 -0.3491
37.3 -0.34853
37.35 -0.3437
37.4 -0.34271
37.45 -0.34133
37.5 -0.33881
37.55 -0.33473
37.6 -0.32673
37.65 -0.32176
37.7 -0.31535
37.75 -0.31344
37.8 -0.30764
37.85 -0.30401
37.9 -0.30411
37.95 -0.3042
38 -0.30361
38.05 -0.2998
38.1 -0.29704
38.15 -0.29581
38.2 -0.29532
38.25 -0.29486
38.3 -0.29273
38.35 -0.29279
38.4 -0.28639
38.45 -0.28092
38.5 -0.27318
38.55 -0.26642
38.6 -0.25931
38.65 -0.2503
38.7 -0.24264
38.75 -0.23986
38.8 -0.2375
38.85 -0.23328
38.9 -0.23004
38.95 -0.22798
39 -0.22834
39.05 -0.23008
39.1 -0.22652
39.15 -0.22327
39.2 -0.22197
39.25 -0.21997
39.3 -0.21618
39.35 -0.21641
39.4 -0.21557
39.45 -0.21538
39.5 -0.21245
39.55 -0.2104
39.6 -0.21038
39.65 -0.20775
39.7 -0.2006
39.75 -0.19278
39.8 -0.18256
39.85 -0.17596
39.9 -0.1698
39.95 -0.16408
40 -0.15793
40.05 -0.15173
40.1 -0.14498
40.15 -0.13776
40.2 -0.13731
40.25 -0.13976
40.3 -0.1402
40.35 -0.13949
40.4 -0.13698
40.45 -0.13573
40.5 -0.13683
40.55 -0.13513
40.6 -0.1338
40.65 -0.13033
40.7 -0.12654
40.75 -0.12665
40.8 -0.12895
40.85 -0.12833
40.9 -0.12621
40.95 -0.12418
41 -0.119
41.05 -0.1182
41.1 -0.11955
41.15 -0.12082
41.2 -0.11982
41.25 -0.11572
41.3 -0.11292
41.35 -0.1109
41.4 -0.11116
41.45 -0.11254
41.5 -0.1156
41.55 -0.11633
41.6 -0.118
41.65 -0.11748
41.7 -0.1167
41.75 -0.11593
41.8 -0.11211
41.85 -0.10599
41.9 -0.10443
41.95 -0.10376
42 -0.10354
42.05 -0.10589
42.1 -0.10945
42.15 -0.11351
42.2 -0.11591
42.25 -0.11653
42.3 -0.11422
42.35 -0.10844
42.4 -0.09964
42.45 -0.08992
42.5 -0.08616
42.55 -0.08071
42.6 -0.07729
42.65 -0.07195
42.7 -0.07028
42.75 -0.06723
42.8 -0.06479
42.85 -0.06118
42.9 -0.05674
42.95 -0.05305
43 -0.05467
43.05 -0.05379
43.1 -0.05096
43.15 -0.05312
43.2 -0.05637
43.25 -0.05851
43.3 -0.06315
43.35 -0.06357
43.4 -0.06479
43.45 -0.0663
43.5 -0.06532
43.55 -0.06186
43.6 -0.05811
43.65 -0.05285
43.7 -0.04991
43.75 -0.0479
43.8 -0.049
43.85 -0.04621
43.9 -0.04439
43.95 -0.04495
44 -0.0417
44.05 -0.03602
44.1 -0.03406
44.15 -0.03682
44.2 -0.03667
44.25 -0.04096
44.3 -0.0462
44.35 -0.04704
44.4 -0.05091
44.45 -0.05374
44.5 -0.0524
44.55 -0.04892
44.6 -0.04224
44.65 -0.04078
44.7 -0.04243
44.75 -0.04002
44.8 -0.03849
44.85 -0.03509
44.9 -0.03182
44.95 -0.0278
45 -0.02329
45.05 -0.02364
45.1 -0.02292
45.15 -0.01943
45.2 -0.01602
45.25 -0.015
45.3 -0.01433
45.35 -0.0149
45.4 -0.01649
45.45 -0.01827
45.5 -0.01869
45.55 -0.01808
45.6 -0.02163
45.65 -0.02231
45.7 -0.02486
45.75 -0.03048
45.8 -0.03766
45.85 -0.03983
45.9 -0.04269
45.95 -0.03984
46 -0.0344
46.05 -0.02872
46.1 -0.02109
46.15 -0.01625
46.2 -0.01268
46.25 -0.01546
46.3 -0.01541
46.35 -0.02004
46.4 -0.0216
46.45 -0.02069
46.5 -0.01751
46.55 -0.01285
46.6 -0.00797
46.65 -0.00959
46.7 -0.01252
46.75 -0.01894
46.8 -0.0219
46.85 -0.02404
46.9 -0.02643
46.95 -0.02761
47 -0.03103
47.05 -0.03066
47.1 -0.0272
47.15 -0.02226
47.2 -0.01935
47.25 -0.01776
47.3 -0.01751
47.35 -0.01411
47.4 -0.01597
47.45 -0.01956
47.5 -0.02081
47.55 -0.02178
47.6 -0.01941
47.65 -0.01484
47.7 -0.01195
47.75 -0.00756
47.8 -0.00772
47.85 -0.00991
47.9 -0.01137
47.95 -0.0133
48 -0.01782
48.05 -0.02199
48.1 -0.02168
48.15 -0.02093
48.2 -0.01605
48.25 -0.01679
48.3 -0.02097
48.35 -0.02258
48.4 -0.01902
48.45 -0.02007
48.5 -0.01888
48.55 -0.01745
48.6 -0.0163
48.65 -0.012
48.7 -0.01002
48.75 -0.01154
48.8 -0.01366
48.85 -0.01192
48.9 -0.01471
48.95 -0.01498
49 -0.01212
49.05 -0.01174
49.1 -0.01163
49.15 -0.00799
49.2 -0.00979
49.25 -0.01409
49.3 -0.01491
49.35 -0.01726
49.4 -0.01482
49.45 -0.01162
49.5 -0.01073
49.55 -0.00629
49.6 -0.00121
49.65 0.00272
49.7 0.00804
49.75 0.00604
49.8 0.00066
49.85 -0.00648
49.9 -0.01458
49.95 -0.02313
50 -0.02363
50.05 -0.021
50.1 -0.02184
50.15 -0.01949
50.2 -0.01709
50.25 -0.01107
50.3 -0.00821
50.35 -0.00595
50.4 -0.0038
50.45 0.00123
50.5 0.00712
50.55 0.00981
50.6 0.00963
50.65 0.00547
50.7 0.0048
50.75 -0.00018
50.8 -0.0029
50.85 -0.00527
50.9 -0.00892
50.95 -0.00948
51 -0.0089
51.05 -0.01109
51.1 -0.01356
51.15 -0.01062
51.2 -0.00734
51.25 -0.00235
51.3 0.00315
51.35 0.00422
51.4 0.00222
51.45 -0.00107
51.5 -0.00386
51.55 -0.00199
51.6 -0.0033
51.65 -0.00636
51.7 -0.0048
51.75 -0.00639
51.8 -0.00967
51.85 -0.01148
51.9 -0.00888
51.95 -0.0077
52 -0.00855
52.05 -0.01272
52.1 -0.0137
52.15 -0.01623
52.2 -0.01917
52.25 -0.01702
52.3 -0.01235
52.35 -0.00917
52.4 -0.00535
52.45 -0.00301
52.5 0.00058
52.55 0.0051
52.6 0.00617
52.65 0.00885
52.7 0.01268
52.75 0.0102
52.8 0.00991
52.85 0.00635
52.9 0.00267
52.95 -0.00134
53 -0.00588
53.05 -0.0108
53.1 -0.01167
53.15 -0.00984
53.2 -0.00544
53.25 -0.00647
53.3 -0.00495
53.35 -0.00295
53.4 -0.00389
53.45 -0.00245
53.5 -0.0004
53.55 0.0017
53.6 0.0007
53.65 -0.00071
53.7 -0.00151
53.75 0.00116
53.8 0.00157
53.85 0.00419
53.9 0.00888
53.95 0.01416
54 0.01658
54.05 0.01413
54.1 0.00983
54.15 0.00671
54.2 0.00328
54.25 -0.00356
54.3 -0.01183
54.35 -0.02046
54.4 -0.02833
54.45 -0.03258
54.5 -0.03316
54.55 -0.03313
54.6 -0.03304
54.65 -0.03103
54.7 -0.02588
54.75 -0.01674
54.8 -0.00878
54.85 -0.00213
54.9 -0.00027
54.95 0.00428
55 0.00373
55.05 0.00432
55.1 0.0026
55.15 -0.00239
55.2 -0.00258
55.25 -0.0014
55.3 0.00056
55.35 0.00007
55.4 0.00279
55.45 0.00022
55.5 -0.00291
55.55 -0.00117
55.6 -0.00266
55.65 -0.00255
55.7 -0.00264
55.75 0.00046
55.8 -0.00028
55.85 0.00127
55.9 0.00365
55.95 0.00158
56 0.0013
56.05 -0.00313
56.1 -0.00657
56.15 -0.01128
56.2 -0.01294
56.25 -0.00906
56.3 -0.00673
56.35 -0.00807
56.4 -0.00695
56.45 -0.00259
56.5 0.00289
56.55 0.00442
56.6 0.00234
56.65 -0.00213
56.7 -0.0018
56.75 -0.00299
56.8 -0.00241
56.85 -0.00216
56.9 -0.00326
56.95 -0.0012
57 -0.00115
57.05 -0.00048
57.1 -0.00142
57.15 -0.00372
57.2 -0.00189
57.25 0.0025
57.3 0.00221
57.35 0.00537
57.4 0.00699
57.45 0.00462
57.5 0.00573
57.55 0.00727
57.6 0.0058
57.65 0.00514
57.7 0.00045
57.75 0.00013
57.8 -0.00299
57.85 -0.00706
57.9 -0.01143
57.95 -0.01554
58 -0.01837
58.05 -0.01525
58.1 -0.01009
58.15 -0.0073
58.2 -0.00625
58.25 -0.00438
58.3 -0.00493
58.35 -0.00845
58.4 -0.00891
58.45 -0.01038
58.5 -0.01104
58.55 -0.01447
58.6 -0.0165
58.65 -0.01545
58.7 -0.01115
58.75 -0.00396
58.8 -0.0019
58.85 -0.00122
58.9 -0.00155
58.95 -0.00238
59 -0.00239
59.05 -0.00425
59.1 -0.00523
59.15 -0.00319
59.2 -0.00188
59.25 0.0013
59.3 0.00038
59.35 -0.00027
59.4 0.0023
59.45 0.00455
59.5 0.00288
59.55 -0.00201
59.6 -0.0081
59.65 -0.01069
59.7 -0.0095
59.75 -0.00684
59.8 -0.00427
59.85 0.00008
59.9 0.00433
59.95 0.00468
60 0.00605
60.05 0.00291
60.1 0.0018
60.15 0.00267
60.2 0.00026
60.25 -0.0005
60.3 0.00173
60.35 0.00215
60.4 -0.00054
60.45 -0.00154
60.5 0.00003
60.55 -0.00141
60.6 -0.00373
60.65 -0.00511
60.7 -0.00444
60.75 -0.00614
60.8 -0.00488
60.85 -0.00714
60.9 -0.00837
60.95 -0.01016
61 -0.00748
61.05 -0.00877
61.1 -0.00862
61.15 -0.00816
61.2 -0.01035
61.25 -0.00708
61.3 -0.00491
61.35 -0.00395
61.4 -0.00655
61.45 -0.00465
61.5 0.00017
61.55 0.00596
61.6 0.00597
61.65 0.00185
61.7 -0.00443
61.75 -0.00696
61.8 -0.00997
61.85 -0.0128
61.9 -0.01601
61.95 -0.01255
62 -0.00681
62.05 -0.00398
62.1 -0.00274
62.15 -0.00515
62.2 -0.00971
62.25 -0.01174
62.3 -0.01269
62.35 -0.01011
62.4 -0.00448
62.45 -0.00283
62.5 0.00171
62.55 0.00713
62.6 0.00661
62.65 0.00515
62.7 0.00642
62.75 0.00827
62.8 0.00912
62.85 0.00944
62.9 0.01227
62.95 0.01275
63 0.01066
63.05 0.00961
63.1 0.00547
63.15 0.00348
63.2 0.00203
63.25 -0.00112
63.3 -0.00675
63.35 -0.01318
63.4 -0.01573
63.45 -0.01383
63.5 -0.01054
63.55 -0.00572
63.6 0.00069
63.65 0.00366
63.7 0.0092
63.75 0.01614
63.8 0.01859
63.85 0.02217
63.9 0.02183
63.95 0.02191
64 0.01962
64.05 0.01463
64.1 0.01424
64.15 0.01196
64.2 0.01108
64.25 0.00712
64.3 0.00619
64.35 0.00589
64.4 0.00574
64.45 0.00217
64.5 -0.00064
64.55 -0.0022
64.6 0.00018
64.65 -0.00116
64.7 0.00011
64.75 0.00013
64.8 -0.00353
64.85 -0.00562
64.9 -0.00846
64.95 -0.01346
65 -0.01427
65.05 -0.00982
65.1 -0.00438
65.15 0.00341
65.2 0.00727
65.25 0.00648
65.3 0.00472
65.35 0.00166
65.4 -0.00311
65.45 -0.00404
65.5 -0.00025
65.55 0.00496
65.6 0.00776
65.65 0.00823
65.7 0.00975
65.75 0.01211
65.8 0.01163
65.85 0.01112
65.9 0.01297
65.95 0.0119
66 0.00991
66.05 0.00641
66.1 0.0046
66.15 0.00433
66.2 0.0055
66.25 0.00593
66.3 0.00739
66.35 0.00651
66.4 0.00728
66.45 0.00874
66.5 0.00604
66.55 0.00326
66.6 0.00058
66.65 -0.00387
66.7 -0.00262
66.75 -0.0053
66.8 -0.00557
66.85 -0.00188
66.9 -0.00177
66.95 -0.00191
67 0.00198
67.05 0.0035
67.1 0.00493
67.15 0.00845
67.2 0.01109
67.25 0.01287
67.3 0.01167
67.35 0.0059
67.4 -0.00119
67.45 -0.00413
67.5 -0.0027
67.55 -0.00502
67.6 -0.00391
67.65 -0.00541
67.7 -0.00642
67.75 -0.00293
67.8 -0.0004
67.85 0.00471
67.9 0.00896
67.95 0.01195
68 0.00978
68.05 0.00537
68.1 0.00118
68.15 0.00066
68.2 0.00208
68.25 0.0057
68.3 0.01045
68.35 0.0104
68.4 0.01093
68.45 0.01263
68.5 0.01308
68.55 0.0133
68.6 0.01314
68.65 0.0149
68.7 0.01177
68.75 0.00701
68.8 0.00188
68.85 0.00103
68.9 0.00152
68.95 0.00245
69 0.00608
69.05 0.01118
69.1 0.01439
69.15 0.01108
69.2 0.00413
69.25 -0.00405
69.3 -0.013
69.35 -0.01762
69.4 -0.01851
69.45 -0.01391
69.5 -0.01306
69.55 -0.01331
69.6 -0.01559
69.65 -0.01499
69.7 -0.01124
69.75 -0.0058
69.8 -0.00198
69.85 0.00393
69.9 0.00715
69.95 0.01072
70 0.01536
70.05 0.01619
70.1 0.01475
70.15 0.01041
70.2 0.00425
70.25 -0.00161
70.3 -0.00946
70.35 -0.01354
70.4 -0.01701
70.45 -0.02027
70.5 -0.02085
70.55 -0.02322
70.6 -0.02485
70.65 -0.02037
70.7 -0.01693
70.75 -0.01068
70.8 -0.00562
70.85 0.0014
70.9 0.00377
70.95 0.00689
71 0.01088
71.05 0.00975
71.1 0.01023
71.15 0.00846
71.2 0.00397
71.25 0.00105
71.3 -0.00233
71.35 -0.00469
71.4 -0.00976
71.45 -0.00895
71.5 -0.01024
71.55 -0.00874
71.6 -0.0086
71.65 -0.00625
71.7 -0.00062
71.75 0.00481
71.8 0.01074
71.85 0.01184
71.9 0.01467
71.95 0.01775
72 0.01605
72.05 0.01543
72.1 0.01248
72.15 0.00738
72.2 -0.00018
72.25 -0.00615
72.3 -0.00665
72.35 -0.00905
72.4 -0.01122
72.45 -0.01286
72.5 -0.0096
72.55 -0.0053
72.6 0.00031
72.65 0.00564
72.7 0.0064
72.75 0.0043
72.8 0.00395
72.85 -0.00028
72.9 -0.00236
72.95 -0.00409
73 -0.00533
73.05 -0.00429
73.1 -0.00219
73.15 0.00275
73.2 0.00281
73.25 0.00516
73.3 0.00256
73.35 0.00247
73.4 0.00277
73.45 0.00039
73.5 -0.00211
73.55 -0.00609
73.6 -0.0112
73.65 -0.01668
73.7 -0.01886
73.75 -0.0176
73.8 -0.01179
73.85 -0.00892
73.9 -0.00851
73.95 -0.00737
74 -0.00407
74.05 -0.00025
74.1 0.00524
74.15 0.01155
74.2 0.01421
74.25 0.0168
74.3 0.014
74.35 0.01055
74.4 0.00798
74.45 0.00169
74.5 -0.00446
74.55 -0.00812
74.6 -0.00813
74.65 -0.00872
74.7 -0.01154
74.75 -0.00858
74.8 -0.00939
74.85 -0.00844
74.9 -0.00756
74.95 -0.00689
75 -0.00727
75.05 -0.00989
75.1 -0.01204
75.15 -0.0106
75.2 -0.01152
75.25 -0.00879
75.3 -0.00988
75.35 -0.01131
75.4 -0.01023
75.45 -0.00803
75.5 -0.00407
75.55 -0.00377
75.6 -0.00113
75.65 0.00085
75.7 0.00375
75.75 0.00427
75.8 0.00527
75.85 0.00481
75.9 0.00022
75.95 -0.00452
76 -0.00903
76.05 -0.00878
76.1 -0.01147
76.15 -0.01353
76.2 -0.01413
76.25 -0.01483
76.3 -0.01093
76.35 -0.00854
76.4 -0.00862
76.45 -0.0053
76.5 -0.00076
76.55 -0.00051
76.6 -0.00109
76.65 -0.0015
76.7 -0.00003
76.75 -0.00249
76.8 -0.00423
76.85 -0.00631
76.9 -0.00669
76.95 -0.00779
77 -0.0078
77.05 -0.0052
77.1 0.00003
77.15 0.00469
77.2 0.01091
77.25 0.01091
77.3 0.00909
77.35 0.00856
77.4 0.00483
77.45 0.00196
77.5 0.00387
77.55 0.00152
77.6 0.00164
77.65 -0.00045
77.7 -0.00006
77.75 0.00086
77.8 -0.00034
77.85 -0.00036
77.9 -0.0041
77.95 -0.00449
78 -0.004
78.05 -0.00577
78.1 -0.00416
78.15 -0.00569
78.2 -0.00242
78.25 -0.00145
78.3 -0.00001
78.35 -0.00192
78.4 -0.00158
78.45 0.002
78.5 0.00448
78.55 0.00522
78.6 0.00603
78.65 0.00827
78.7 0.01157
78.75 0.01052
78.8 0.0089
78.85 0.00797
78.9 0.00518
78.95 0.00299
79 -0.00189
79.05 -0.00724
79.1 -0.01156
79.15 -0.01198
79.2 -0.0082
79.25 -0.00199
79.3 0.00136
79.35 0.00045
79.4 -0.00024
79.45 -0.00036
79.5 -0.00091
79.55 0.00172
79.6 0.00559
79.65 0.00576
79.7 0.00456
79.75 0.00525
79.8 0.00164
79.85 0.00226
79.9 0.0037
79.95 0.00199
80 -0.00167
80.05 -0.00584
80.1 -0.00624
80.15 -0.00935
80.2 -0.00797
80.25 -0.00589
80.3 -0.00019
80.35 0.00535
80.4 0.00893
80.45 0.01271
80.5 0.01568
80.55 0.01593
80.6 0.01212
80.65 0.0074
80.7 0.00284
80.75 0.00226
80.8 0.00033
80.85 -0.00152
80.9 -0.00394
80.95 -0.00381
81 -0.00203
81.05 0.00041
81.1 -0.0018
81.15 -0.00364
81.2 -0.00661
81.25 -0.00584
81.3 -0.00666
81.35 -0.00489
81.4 -0.003
81.45 -0.00518
81.5 -0.00527
81.55 -0.00794
81.6 -0.01056
81.65 -0.00964
81.7 -0.01216
81.75 -0.01357
81.8 -0.01487
81.85 -0.01621
81.9 -0.01212
81.95 -0.00699
82 -0.00009
82.05 0.00768
82.1 0.00825
82.15 0.01143
82.2 0.01289
82.25 0.01265
82.3 0.01476
82.35 0.01323
82.4 0.00846
82.45 0.004
82.5 0.00117
82.55 -0.00114
82.6 0.00076
82.65 0.00344
82.7 0.0034
82.75 0.00224
82.8 0.00503
82.85 0.00275
82.9 -0.00205
82.95 -0.00168
83 -0.00051
83.05 -0.0003
83.1 0.00372
83.15 0.00804
83.2 0.01117
83.25 0.01229
83.3 0.00846
83.35 0.00699
83.4 0.00193
83.45 -0.00488
83.5 -0.00888
83.55 -0.01074
83.6 -0.01129
83.65 -0.00755
83.7 -0.00244
83.75 -0.00055
83.8 0.00256
83.85 0.00448
83.9 0.00368
83.95 0.00549
84 0.00257
84.05 -0.0023
84.1 -0.00134
84.15 -0.00233
84.2 0.0006
84.25 -0.00134
84.3 -0.00626
84.35 -0.01247
84.4 -0.01709
84.45 -0.01533
84.5 -0.00913
84.55 -0.00087
84.6 0.00214
84.65 0.00364
84.7 0.00236
84.75 0.00444
84.8 0.00189
84.85 -0.00053
84.9 -0.00586
84.95 -0.01089
85 -0.00931
85.05 -0.00978
85.1 -0.01234
85.15 -0.01552
85.2 -0.01321
85.25 -0.00902
85.3 -0.00533
85.35 -0.00204
85.4 0.00379
85.45 0.00773
85.5 0.00885
85.55 0.01013
85.6 0.01223
85.65 0.00897
85.7 0.00965
85.75 0.01289
85.8 0.01579
85.85 0.01481
85.9 0.01061
85.95 0.005
86 0.00064
86.05 -0.00138
86.1 -0.00644
86.15 -0.00934
86.2 -0.01372
86.25 -0.01223
86.3 -0.01331
86.35 -0.01648
86.4 -0.01626
86.45 -0.01462
86.5 -0.01313
86.55 -0.00818
86.6 -0.00114
86.65 0.00087
86.7 0.00197
86.75 0.00658
86.8 0.00759
86.85 0.01097
86.9 0.01005
86.95 0.01116
87 0.01027
87.05 0.01178
87.1 0.01095
87.15 0.00553
87.2 0.00297
87.25 0.00443
87.3 0.00488
87.35 0.00533
87.4 0.00438
87.45 0.00136
87.5 -0.00123
87.55 -0.00057
87.6 0.00093
87.65 -0.00142
87.7 -0.00405
87.75 -0.00592
87.8 -0.0046
87.85 -0.00446
87.9 -0.00755
87.95 -0.00565
88 -0.00207
88.05 -0.00116
88.1 -0.00162
88.15 -0.00233
88.2 -0.00592
88.25 -0.0102
88.3 -0.01267
88.35 -0.01142
88.4 -0.01026
88.45 -0.00649
88.5 -0.00201
88.55 0.00084
88.6 0.00092
88.65 -0.00109
88.7 -0.00595
88.75 -0.01193
88.8 -0.01277
88.85 -0.00978
88.9 -0.00697
88.95 -0.00419
89 -0.0053
89.05 -0.00315
89.1 -0.00292
89.15 -0.00535
89.2 -0.00975
89.25 -0.01054
89.3 -0.01247
89.35 -0.01089
89.4 -0.00541
89.45 -0.00159
89.5 -0.00159
89.55 0.00047
89.6 0.00536
89.65 0.00488
89.7 0.00187
89.75 -0.00304
89.8 -0.0025
89.85 -0.00567
89.9 -0.01094
89.95 -0.01094
90 -0.00634
90.05 -0.00525
90.1 -0.00472
90.15 -0.00495
90.2 -0.00446
90.25 -0.00306
90.3 0.0023
90.35 0.00253
90.4 0.00342
90.45 0.0067
90.5 0.00915
90.55 0.00984
90.6 0.00809
90.65 0.00622
90.7 0.00239
90.75 -0.00107
90.8 -0.00262
90.85 -0.00391
90.9 -0.00588
90.95 -0.00334
91 -0.00464
91.05 -0.00255
91.1 -0.00353
91.15 -0.00703
91.2 -0.00969
91.25 -0.0107
91.3 -0.00653
91.35 -0.00655
91.4 -0.00408
91.45 0.00101
91.5 0.00783
91.55 0.01512
91.6 0.02154
91.65 0.02152
91.7 0.02009
91.75 0.01494
91.8 0.00692
91.85 0.0017
91.9 -0.00036
91.95 0.00088
92 0.00533
92.05 0.00849
92.1 0.01018
92.15 0.01039
92.2 0.0101
92.25 0.00523
92.3 0.00012
92.35 -0.00406
92.4 -0.00946
92.45 -0.01028
92.5 -0.00934
92.55 -0.00789
92.6 -0.00751
92.65 -0.00693
92.7 -0.00366
92.75 0.00231
92.8 0.00916
92.85 0.01039
92.9 0.01075
92.95 0.00867
93 0.00306
93.05 0.00098
93.1 -0.00345
93.15 -0.00969
93.2 -0.01079
93.25 -0.00959
93.3 -0.01024
93.35 -0.01167
93.4 -0.01187
93.45 -0.00829
93.5 -0.0015
93.55 0.00658
93.6 0.00933
93.65 0.00912
93.7 0.01118
93.75 0.01442
93.8 0.01141
93.85 0.0064
93.9 0.00456
93.95 0.00118
94 0.00275
94.05 0.00056
94.1 -0.00474
94.15 -0.00979
94.2 -0.01146
94.25 -0.00983
94.3 -0.00995
94.35 -0.00619
94.4 -0.00317
94.45 -0.00204
94.5 0.00137
94.55 0.00717
94.6 0.00655
94.65 0.00727
94.7 0.00797
94.75 0.00475
94.8 0.00081
94.85 0.00164
94.9 -0.00119
94.95 -0.00215
95 -0.00235
95.05 -0.00398
95.1 -0.00351
95.15 -0.00485
95.2 -0.00497
95.25 -0.00099
95.3 0.00268
95.35 0.00573
95.4 0.0085
95.45 0.00612
95.5 0.00175
95.55 -0.00448
95.6 -0.00581
95.65 -0.0099
95.7 -0.00879
95.75 -0.00649
95.8 -0.00227
95.85 0.00398
95.9 0.00474
95.95 0.00518
96 0.00586
96.05 0.00638
96.1 0.00274
96.15 0.00077
96.2 -0.00414
96.25 -0.00324
96.3 -0.0011
96.35 0.00232
96.4 0.00185
96.45 0.00041
96.5 -0.00386
96.55 -0.00269
96.6 -0.0033
96.65 -0.00305
96.7 -0.00161
96.75 -0.00018
96.8 0.00116
96.85 0.00374
96.9 0.00588
96.95 0.00877
97 0.01007
97.05 0.00653
97.1 0.00507
97.15 0.00567
97.2 0.00936
97.25 0.01026
97.3 0.01345
97.35 0.0165
97.4 0.01764
97.45 0.01827
97.5 0.01634
97.55 0.01356
97.6 0.01359
97.65 0.01329
97.7 0.01444
97.75 0.01635
97.8 0.0172
97.85 0.01634
97.9 0.01154
97.95 0.00726
98 0.00047
98.05 -0.00454
98.1 -0.00854
98.15 -0.01145
98.2 -0.01417
98.25 -0.01251
98.3 -0.00874
98.35 -0.00913
98.4 -0.01124
98.45 -0.01049
98.5 -0.00916
98.55 -0.00847
98.6 -0.00954
98.65 -0.0067
98.7 -0.00579
98.75 -0.00689
98.8 -0.00643
98.85 -0.00236
98.9 -0.00036
98.95 0.00234
99 0.00182
99.05 -0.00017
99.1 0.00057
99.15 -0.00192
99.2 -0.00454
99.25 -0.00723
99.3 -0.00642
99.35 -0.00567
99.4 -0.00261
99.45 0.0009
99.5 0.00097
99.55 0.00386
99.6 0.00211
99.65 0.0005
99.7 0.00179
99.75 -0.00103
99.8 -0.00667
99.85 -0.00646
99.9 -0.00466
99.95 -0.00507
