0 0
0.05 0.00273
0.1 0.00591
0.15 0.01465
0.2 0.02121
0.25 0.03164
0.3 0.04304
0.35 0.05378
0.4 0.06273
0.45 0.06529
0.5 0.06695
0.55 0.07116
0.6 0.0691
0.65 0.06581
0.7 0.06572
0.75 0.05941
0.8 0.05524
0.85 0.05012
0.9 0.04369
0.95 0.03894
1 0.03324
1.05 0.03083
1.1 0.0269
1.15 0.02557
1.2 0.02598
1.25 0.02403
1.3 0.02246
1.35 0.02482
1.4 0.02348
1.45 0.02805
1.5 0.03097
1.55 0.03643
1.6 0.04294
1.65 0.04205
1.7 0.03919
1.75 0.03537
1.8 0.03315
1.85 0.03625
1.9 0.04108
1.95 0.04333
2 0.03945
2.05 0.03458
2.1 0.02776
2.15 0.0208
2.2 0.01608
2.25 0.01022
2.3 0.00703
2.35 0.00965
2.4 0.01322
2.45 0.01961
2.5 0.02744
2.55 0.03487
2.6 0.04036
2.65 0.04302
2.7 0.04591
2.75 0.04518
2.8 0.03935
2.85 0.03901
2.9 0.03631
2.95 0.03426
3 0.03218
3.05 0.02912
3.1 0.02211
3.15 0.01351
3.2 0.00543
3.25 0.00471
3.3 0.00897
3.35 0.01317
3.4 0.02108
3.45 0.02176
3.5 0.01838
3.55 0.01235
3.6 0.01063
3.65 0.01457
3.7 0.02036
3.75 0.02878
3.8 0.03743
3.85 0.04533
3.9 0.04688
3.95 0.04675
4 0.04543
4.05 0.04402
4.1 0.03702
4.15 0.02824
4.2 0.02369
4.25 0.01908
4.3 0.01617
4.35 0.0099
4.4 0.00606
4.45 0.00204
4.5 -0.00579
4.55 -0.01256
4.6 -0.0235
4.65 -0.03508
4.7 -0.04945
4.75 -0.06653
4.8 -0.08241
4.85 -0.10068
4.9 -0.12684
4.95 -0.15274
5 -0.18393
5.05 -0.22437
5.1 -0.26603
5.15 -0.3102
5.2 -0.35372
5.25 -0.39826
5.3 -0.45274
5.35 -0.50805
5.4 -0.56552
5.45 -0.62726
5.5 -0.68812
5.55 -0.7483
5.6 -0.79773
5.65 -0.84458
5.7 -0.88226
5.75 -0.91374
5.8 -0.93888
5.85 -0.95384
5.9 -0.96192
5.95 -0.96827
6 -0.96658
6.05 -0.95467
6.1 -0.93811
6.15 -0.9125
6.2 -0.88122
6.25 -0.84641
6.3 -0.80076
6.35 -0.74907
6.4 -0.69178
6.45 -0.6321
6.5 -0.57871
6.55 -0.52704
6.6 -0.47666
6.65 -0.42136
6.7 -0.36669
6.75 -0.3069
6.8 -0.25218
6.85 -0.20073
6.9 -0.14994
6.95 -0.09186
7 -0.03193
7.05 0.0244
7.1 0.08069
7.15 0.13404
7.2 0.19414
7.25 0.25147
7.3 0.30877
7.35 0.36583
7.4 0.41919
7.45 0.47544
7.5 0.52927
7.55 0.5769
7.6 0.61764
7.65 0.6593
7.7 0.69748
7.75 0.72825
7.8 0.7546
7.85 0.77373
7.9 0.78639
7.95 0.79649
8 0.80846
8.05 0.8158
8.1 0.81981
8.15 0.82694
8.2 0.83357
8.25 0.83402
8.3 0.82632
8.35 0.81281
8.4 0.8028
8.45 0.7897
8.5 0.77938
8.55 0.764
8.6 0.74166
8.65 0.72014
8.7 0.70049
8.75 0.6796
8.8 0.65798
8.85 0.63903
8.9 0.62278
8.95 0.60471
9 0.58393
9.05 0.56211
9.1 0.53817
9.15 0.51708
9.2 0.49246
9.25 0.47182
9.3 0.4551
9.35 0.43531
9.4 0.41633
9.45 0.39973
9.5 0.38199
9.55 0.37088
9.6 0.35813
9.65 0.34787
9.7 0.34216
9.75 0.33325
9.8 0.32345
9.85 0.3093
9.9 0.29531
9.95 0.28815
10 0.2771
10.05 0.27088
10.1 0.26202
10.15 0.24925
10.2 0.24119
10.25 0.23842
10.3 0.23601
10.35 0.23209
10.4 0.22934
10.45 0.22181
10.5 0.21564
10.55 0.20544
10.6 0.19336
10.65 0.18426
10.7 0.17744
10.75 0.16434
10.8 0.14823
10.85 0.1303
10.9 0.11137
10.95 0.09173
11 0.07261
11.05 0.05532
11.1 0.04068
11.15 0.03111
11.2 0.02442
11.25 0.01999
11.3 0.01458
11.35 0.0066
11.4 -0.00341
11.45 -0.00854
11.5 -0.01089
11.55 -0.0164
11.6 -0.01894
11.65 -0.01957
11.7 -0.02731
11.75 -0.0366
11.8 -0.04926
11.85 -0.06084
11.9 -0.07482
11.95 -0.08491
12 -0.0922
12.05 -0.09304
12.1 -0.09454
12.15 -0.0986
12.2 -0.10285
12.25 -0.10412
12.3 -0.10242
12.35 -0.10172
12.4 -0.10172
12.45 -0.1016
12.5 -0.10225
12.55 -0.10281
12.6 -0.10328
12.65 -0.10763
12.7 -0.1158
12.75 -0.12259
12.8 -0.12524
12.85 -0.12366
12.9 -0.11887
12.95 -0.11835
13 -0.11446
13.05 -0.11286
13.1 -0.11112
13.15 -0.10688
13.2 -0.1065
13.25 -0.10567
13.3 -0.10769
13.35 -0.11253
13.4 -0.11947
13.45 -0.12705
13.5 -0.13302
13.55 -0.13375
13.6 -0.13424
13.65 -0.1304
13.7 -0.12958
13.75 -0.1231
13.8 -0.11321
13.85 -0.10293
13.9 -0.09583
13.95 -0.08634
14 -0.07782
14.05 -0.07454
14.1 -0.07049
14.15 -0.06989
14.2 -0.07382
14.25 -0.0758
14.3 -0.07694
14.35 -0.07776
14.4 -0.07495
14.45 -0.07367
14.5 -0.0778
14.55 -0.08204
14.6 -0.08135
14.65 -0.07598
14.7 -0.07684
14.75 -0.07692
14.8 -0.07799
14.85 -0.07668
14.9 -0.0771
14.95 -0.07582
15 -0.07478
15.05 -0.07295
15.1 -0.06752
15.15 -0.06628
15.2 -0.0671
15.25 -0.07131
15.3 -0.07233
15.35 -0.071
15.4 -0.06602
15.45 -0.05805
15.5 -0.04875
15.55 -0.04428
15.6 -0.04161
15.65 -0.04089
15.7 -0.04592
15.75 -0.04675
15.8 -0.04757
15.85 -0.04908
15.9 -0.05214
15.95 -0.05548
16 -0.05702
16.05 -0.05787
16.1 -0.05308
16.15 -0.04729
16.2 -0.0393
16.25 -0.03709
16.3 -0.03585
16.35 -0.03639
16.4 -0.04058
16.45 -0.04662
16.5 -0.04884
16.55 -0.05042
16.6 -0.05017
16.65 -0.04755
16.7 -0.04568
16.75 -0.04495
16.8 -0.04272
16.85 -0.04006
16.9 -0.04203
16.95 -0.04683
17 -0.05271
17.05 -0.05166
17.1 -0.04667
17.15 -0.04023
17.2 -0.03959
17.25 -0.0361
17.3 -0.02904
17.35 -0.02335
17.4 -0.01904
17.45 -0.01618
17.5 -0.01181
17.55 -0.00955
17.6 -0.01073
17.65 -0.01581
17.7 -0.01768
17.75 -0.02045
17.8 -0.0217
17.85 -0.02241
17.9 -0.02
17.95 -0.02077
18 -0.02609
18.05 -0.02546
18.1 -0.02465
18.15 -0.02899
18.2 -0.03572
18.25 -0.04288
18.3 -0.04545
18.35 -0.0442
18.4 -0.04574
18.45 -0.04517
18.5 -0.03953
18.55 -0.03804
18.6 -0.03281
18.65 -0.03054
18.7 -0.03266
18.75 -0.02931
18.8 -0.02599
18.85 -0.02462
18.9 -0.0209
18.95 -0.01885
19 -0.01701
19.05 -0.01362
19.1 -0.00996
19.15 -0.00517
19.2 -0.00723
19.25 -0.01347
19.3 -0.01929
19.35 -0.02721
19.4 -0.02921
19.45 -0.02529
19.5 -0.022
19.55 -0.02175
19.6 -0.01858
19.65 -0.02105
19.7 -0.02247
19.75 -0.0267
19.8 -0.02782
19.85 -0.02806
19.9 -0.03138
19.95 -0.02879
20 -0.02974
20.05 -0.03131
20.1 -0.03474
20.15 -0.03562
20.2 -0.03693
20.25 -0.03916
20.3 -0.04045
20.35 -0.04033
20.4 -0.03903
20.45 -0.03687
20.5 -0.03151
20.55 -0.02441
20.6 -0.01954
20.65 -0.01505
20.7 -0.01464
20.75 -0.01521
20.8 -0.01108
20.85 -0.01242
20.9 -0.01013
20.95 -0.004
21 -0.00398
21.05 -0.00318
21.1 -0.00002
21.15 0.00347
21.2 0.00081
21.25 -0.00098
21.3 -0.00384
21.35 -0.0035
21.4 -0.00523
21.45 -0.00673
21.5 -0.01054
21.55 -0.01563
21.6 -0.01699
21.65 -0.01684
21.7 -0.01498
21.75 -0.01505
21.8 -0.01256
21.85 -0.01132
21.9 -0.01245
21.95 -0.01073
22 -0.01261
22.05 -0.0162
22.1 -0.01847
22.15 -0.01968
22.2 -0.01663
22.25 -0.01076
22.3 -0.00408
22.35 0.00338
22.4 0.00907
22.45 0.00922
22.5 0.01075
22.55 0.01412
22.6 0.01261
22.65 0.01275
22.7 0.01551
22.75 0.01998
22.8 0.02137
22.85 0.01637
22.9 0.0131
22.95 0.01144
23 0.0063
23.05 0.00496
23.1 -0.00022
23.15 -0.00774
23.2 -0.01504
23.25 -0.01593
23.3 -0.0196
23.35 -0.0196
23.4 -0.02232
23.45 -0.02039
23.5 -0.01637
23.55 -0.01043
23.6 -0.00865
23.65 -0.00936
23.7 -0.01062
23.75 -0.01507
23.8 -0.01792
23.85 -0.0173
23.9 -0.0118
23.95 -0.01076
24 -0.01107
24.05 -0.0106
24.1 -0.01146
24.15 -0.01258
24.2 -0.01425
24.25 -0.01338
24.3 -0.01353
24.35 -0.01154
24.4 -0.00648
24.45 0.00115
24.5 0.00385
24.55 0.00727
24.6 0.00428
24.65 0.00348
24.7 0.00293
24.75 0.00536
24.8 0.00626
24.85 0.01028
24.9 0.01062
24.95 0.00834
25 0.00382
25.05 0.00431
25.1 0.00032
25.15 -0.00113
25.2 -0.00233
25.25 -0.00503
25.3 -0.00684
25.35 -0.00617
25.4 -0.00106
25.45 0.00513
25.5 0.00852
25.55 0.00795
25.6 0.00225
25.65 -0.00517
25.7 -0.00784
25.75 -0.00669
25.8 -0.01008
25.85 -0.0119
25.9 -0.01439
25.95 -0.01581
26 -0.01451
26.05 -0.01167
26.1 -0.00612
26.15 -0.00341
26.2 0.00194
26.25 0.00852
26.3 0.01227
26.35 0.01773
26.4 0.02151
26.45 0.02013
26.5 0.01309
26.55 0.0106
26.6 0.01152
26.65 0.01327
26.7 0.01124
26.75 0.00628
26.8 -0.0018
26.85 -0.00886
26.9 -0.00909
26.95 -0.01284
27 -0.01718
27.05 -0.01798
27.1 -0.01954
27.15 -0.01786
27.2 -0.01725
27.25 -0.01975
27.3 -0.01843
27.35 -0.01799
27.4 -0.01823
27.45 -0.01908
27.5 -0.01687
27.55 -0.0183
27.6 -0.01968
27.65 -0.01773
27.7 -0.02326
27.75 -0.02551
27.8 -0.02678
27.85 -0.03555
27.9 -0.04271
27.95 -0.05612
28 -0.07058
28.05 -0.08583
28.1 -0.10725
28.15 -0.12836
28.2 -0.15369
28.25 -0.1844
28.3 -0.21548
28.35 -0.2457
28.4 -0.27864
28.45 -0.31975
28.5 -0.36665
28.55 -0.41597
28.6 -0.47154
28.65 -0.53117
28.7 -0.5924
28.75 -0.65735
28.8 -0.72248
28.85 -0.79411
28.9 -0.8719
28.95 -0.95504
29 -1.03886
29.05 -1.11621
29.1 -1.19004
29.15 -1.26238
29.2 -1.34056
29.25 -1.41791
29.3 -1.48746
29.35 -1.5517
29.4 -1.61377
29.45 -1.66812
29.5 -1.71796
29.55 -1.75861
29.6 -1.7921
29.65 -1.82253
29.7 -1.84288
29.75 -1.85952
29.8 -1.86526
29.85 -1.85598
29.9 -1.83229
29.95 -1.80042
30 -1.76023
30.05 -1.70661
30.1 -1.64502
30.15 -1.57882
30.2 -1.50268
30.25 -1.41798
30.3 -1.31963
30.35 -1.2118
30.4 -1.09629
30.45 -0.98114
30.5 -0.86162
30.55 -0.73916
30.6 -0.61598
30.65 -0.4845
30.7 -0.35169
30.75 -0.21996
30.8 -0.0854
30.85 0.04776
30.9 0.17445
30.95 0.29807
31 0.41195
31.05 0.52247
31.1 0.6252
31.15 0.72851
31.2 0.82693
31.25 0.91933
31.3 1.00299
31.35 1.07694
31.4 1.14385
31.45 1.20315
31.5 1.25673
31.55 1.30411
31.6 1.34862
31.65 1.3888
31.7 1.42276
31.75 1.45213
31.8 1.47985
31.85 1.50097
31.9 1.51775
31.95 1.53776
32 1.54971
32.05 1.55705
32.1 1.56484
32.15 1.56683
32.2 1.56879
32.25 1.57389
32.3 1.57961
32.35 1.58363
32.4 1.58128
32.45 1.57707
32.5 1.57008
32.55 1.55972
32.6 1.54189
32.65 1.51952
32.7 1.49395
32.75 1.47183
32.8 1.45139
32.85 1.43039
32.9 1.41055
32.95 1.39384
33 1.37663
33.05 1.35948
33.1 1.33792
33.15 1.31342
33.2 1.28371
33.25 1.25054
33.3 1.21487
33.35 1.17812
33.4 1.14639
33.45 1.11349
33.5 1.08269
33.55 1.0529
33.6 1.02373
33.65 0.99562
33.7 0.96637
33.75 0.92946
33.8 0.88919
33.85 0.85146
33.9 0.81542
33.95 0.77848
34 0.73857
34.05 0.69685
34.1 0.66222
34.15 0.62903
34.2 0.59412
34.25 0.55612
34.3 0.52041
34.35 0.48619
34.4 0.45177
34.45 0.4238
34.5 0.39344
34.55 0.36651
34.6 0.34402
34.65 0.3206
34.7 0.29582
34.75 0.27207
34.8 0.25055
34.85 0.22521
34.9 0.20092
34.95 0.17256
35 0.14654
35.05 0.11787
35.1 0.09379
35.15 0.07469
35.2 0.05373
35.25 0.02915
35.3 0.00298
35.35 -0.01809
35.4 -0.04131
35.45 -0.05887
35.5 -0.07562
35.55 -0.09445
35.6 -0.11142
35.65 -0.12773
35.7 -0.13658
35.75 -0.14749
35.8 -0.16074
35.85 -0.1741
35.9 -0.17981
35.95 -0.18644
36 -0.19379
36.05 -0.20389
36.1 -0.21037
36.15 -0.21914
36.2 -0.22984
36.25 -0.2368
36.3 -0.24457
36.35 -0.24934
36.4 -0.24922
36.45 -0.24644
36.5 -0.2428
36.55 -0.24203
36.6 -0.24484
36.65 -0.2519
36.7 -0.25982
36.75 -0.26378
36.8 -0.26498
36.85 -0.26954
36.9 -0.26784
36.95 -0.26834
37 -0.26689
37.05 -0.26627
37.1 -0.26251
37.15 -0.26152
37.2 -0.25976
37.25 -0.26061
37.3 -0.26423
37.35 -0.26243
37.4 -0.26018
37.45 -0.25972
37.5 -0.26092
37.55 -0.26257
37.6 -0.2607
37.65 -0.25368
37.7 -0.25068
37.75 -0.25203
37.8 -0.25083
37.85 -0.25263
37.9 -0.25447
37.95 -0.2514
38 -0.24624
38.05 -0.24467
38.1 -0.24354
38.15 -0.23699
38.2 -0.22612
38.25 -0.22216
38.3 -0.21424
38.35 -0.21118
38.4 -0.20728
38.45 -0.20487
38.5 -0.20083
38.55 -0.19602
38.6 -0.18847
38.65 -0.18383
38.7 -0.17909
38.75 -0.17477
38.8 -0.17209
38.85 -0.16598
38.9 -0.15856
38.95 -0.1558
39 -0.15175
39.05 -0.15338
39.1 -0.15284
39.15 -0.15624
39.2 -0.15892
39.25 -0.16056
39.3 -0.16035
39.35 -0.15697
39.4 -0.15057
39.45 -0.14862
39.5 -0.14855
39.55 -0.151
39.6 -0.15093
39.65 -0.15345
39.7 -0.15372
39.75 -0.15048
39.8 -0.14515
39.85 -0.13986
39.9 -0.13156
39.95 -0.12861
40 -0.12336
40.05 -0.11776
40.1 -0.11149
40.15 -0.1077
40.2 -0.10973
40.25 -0.1077
40.3 -0.10882
40.35 -0.11373
40.4 -0.12088
40.45 -0.12408
40.5 -0.12757
40.55 -0.1292
40.6 -0.13042
40.65 -0.12433
40.7 -0.12125
40.75 -0.11731
40.8 -0.10871
40.85 -0.09796
40.9 -0.08805
40.95 -0.08222
41 -0.07586
41.05 -0.07339
41.1 -0.07706
41.15 -0.08423
41.2 -0.08857
41.25 -0.0952
41.3 -0.09781
41.35 -0.09657
41.4 -0.09181
41.45 -0.09151
41.5 -0.08942
41.55 -0.08803
41.6 -0.08168
41.65 -0.0771
41.7 -0.07212
41.75 -0.06848
41.8 -0.06358
41.85 -0.06295
41.9 -0.05925
41.95 -0.05438
42 -0.05311
42.05 -0.05221
42.1 -0.05699
42.15 -0.06517
42.2 -0.06699
42.25 -0.06517
42.3 -0.06085
42.35 -0.06206
42.4 -0.06732
42.45 -0.0701
42.5 -0.07291
42.55 -0.07016
42.6 -0.06542
42.65 -0.06275
42.7 -0.06311
42.75 -0.06414
42.8 -0.06154
42.85 -0.05595
42.9 -0.05043
42.95 -0.04662
43 -0.0448
43.05 -0.04054
43.1 -0.03878
43.15 -0.04248
43.2 -0.04511
43.25 -0.04961
43.3 -0.04792
43.35 -0.04643
43.4 -0.04488
43.45 -0.04428
43.5 -0.04002
43.55 -0.03513
43.6 -0.0353
43.65 -0.03155
43.7 -0.02597
43.75 -0.01996
43.8 -0.01416
43.85 -0.01373
43.9 -0.01962
43.95 -0.02484
44 -0.02785
44.05 -0.03072
44.1 -0.03574
44.15 -0.04033
44.2 -0.04148
44.25 -0.03936
44.3 -0.03383
44.35 -0.03458
44.4 -0.03182
44.45 -0.03238
44.5 -0.03047
44.55 -0.03185
44.6 -0.03132
44.65 -0.03163
44.7 -0.02985
44.75 -0.03111
44.8 -0.02971
44.85 -0.02952
44.9 -0.02808
44.95 -0.02688
45 -0.02896
45.05 -0.02792
45.1 -0.02695
45.15 -0.03043
45.2 -0.03121
45.25 -0.02832
45.3 -0.0238
45.35 -0.02142
45.4 -0.02245
45.45 -0.02497
45.5 -0.02504
45.55 -0.02204
45.6 -0.01786
45.65 -0.01129
45.7 -0.01194
45.75 -0.01791
45.8 -0.01917
45.85 -0.02263
45.9 -0.02026
45.95 -0.01445
46 -0.00884
46.05 -0.0076
46.1 -0.00851
46.15 -0.01168
46.2 -0.01788
46.25 -0.02289
46.3 -0.02525
46.35 -0.022
46.4 -0.02421
46.45 -0.02212
46.5 -0.02128
46.55 -0.02401
46.6 -0.02647
46.65 -0.02593
46.7 -0.02236
46.75 -0.01865
46.8 -0.01985
46.85 -0.02502
46.9 -0.026
46.95 -0.0286
47 -0.03169
47.05 -0.03486
47.1 -0.03408
47.15 -0.03355
47.2 -0.0279
47.25 -0.02485
47.3 -0.02119
47.35 -0.01398
47.4 -0.0129
47.45 -0.01172
47.5 -0.0126
47.55 -0.01725
47.6 -0.01537
47.65 -0.0113
47.7 -0.01151
47.75 -0.01169
47.8 -0.0081
47.85 -0.00785
47.9 -0.01046
47.95 -0.011
48 -0.01203
48.05 -0.01256
48.1 -0.0174
48.15 -0.01878
48.2 -0.01489
48.25 -0.01282
48.3 -0.01212
48.35 -0.01593
48.4 -0.02067
48.45 -0.01822
48.5 -0.01529
48.55 -0.01079
48.6 -0.00886
48.65 -0.00937
48.7 -0.00679
48.75 -0.0024
48.8 -0.00068
48.85 -0.00275
48.9 -0.00363
48.95 -0.004
49 -0.00289
49.05 -0.00057
49.1 0.00236
49.15 0.0035
49.2 0.00586
49.25 0.00686
49.3 0.00823
49.35 0.0066
49.4 0.00592
49.45 0.0068
49.5 0.00968
49.55 0.01367
49.6 0.01222
49.65 0.00993
49.7 0.01013
49.75 0.01106
49.8 0.00569
49.85 -0.00313
49.9 -0.01005
49.95 -0.01577
50 -0.01888
50.05 -0.02282
50.1 -0.0263
50.15 -0.02911
50.2 -0.02566
50.25 -0.02471
50.3 -0.02243
50.35 -0.01693
50.4 -0.01729
50.45 -0.01261
50.5 -0.00779
50.55 -0.00228
50.6 -0.0012
50.65 0.00193
50.7 0.00564
50.75 0.01115
50.8 0.01032
50.85 0.00659
50.9 0.00321
50.95 0.00288
51 0.00565
51.05 0.01042
51.1 0.01654
51.15 0.01982
51.2 0.01818
51.25 0.01888
51.3 0.01385
51.35 0.0111
51.4 0.0064
51.45 0.00358
51.5 0.00175
51.55 0.00323
51.6 -0.00044
51.65 0.00005
51.7 0.00246
51.75 0.00306
51.8 0.00624
51.85 0.00259
51.9 -0.00016
51.95 -0.00454
52 -0.01183
52.05 -0.01513
52.1 -0.01722
52.15 -0.0179
52.2 -0.02016
52.25 -0.01827
52.3 -0.0194
52.35 -0.01624
52.4 -0.01047
52.45 -0.00869
52.5 -0.00326
52.55 0.00381
52.6 0.00999
52.65 0.00955
52.7 0.01141
52.75 0.0085
52.8 0.00098
52.85 -0.00443
52.9 -0.01173
52.95 -0.0181
53 -0.0227
53.05 -0.02189
53.1 -0.0203
53.15 -0.02133
53.2 -0.02363
53.25 -0.02123
53.3 -0.0149
53.35 -0.01124
53.4 -0.00841
53.45 -0.00478
53.5 -0.00475
53.55 -0.00343
53.6 0.00037
53.65 -0.00052
53.7 0.00077
53.75 0.00205
53.8 0.00077
53.85 -0.00108
53.9 -0.00492
53.95 -0.01096
54 -0.01876
54.05 -0.02725
54.1 -0.03268
54.15 -0.03764
54.2 -0.03684
54.25 -0.03766
54.3 -0.03461
54.35 -0.02551
54.4 -0.01382
54.45 -0.00568
54.5 -0.00202
54.55 -0.00401
54.6 -0.00965
54.65 -0.01527
54.7 -0.01893
54.75 -0.02067
54.8 -0.01822
54.85 -0.01672
54.9 -0.01277
54.95 -0.00967
55 -0.00756
55.05 -0.00746
55.1 -0.01098
55.15 -0.01145
55.2 -0.01159
55.25 -0.0132
55.3 -0.01406
55.35 -0.01079
55.4 -0.0095
55.45 -0.01116
55.5 -0.0093
55.55 -0.0084
55.6 -0.00773
55.65 -0.01088
55.7 -0.01493
55.75 -0.01662
55.8 -0.01665
55.85 -0.01633
55.9 -0.0119
55.95 -0.00395
56 0.00137
56.05 0.0077
56.1 0.01077
56.15 0.0102
56.2 0.01224
56.25 0.00859
56.3 0.00812
56.35 0.01151
56.4 0.01337
56.45 0.01112
56.5 0.01266
56.55 0.01068
56.6 0.00817
56.65 0.00363
56.7 -0.00374
56.75 -0.00597
56.8 -0.00992
56.85 -0.01518
56.9 -0.01507
56.95 -0.01027
57 -0.00941
57.05 -0.01229
57.1 -0.01301
57.15 -0.00988
57.2 -0.00634
57.25 0.00118
57.3 0.00295
57.35 0.0008
57.4 0.00313
57.45 0.00619
57.5 0.00575
57.55 0.00842
57.6 0.00583
57.65 0.00085
57.7 -0.00358
57.75 -0.0022
57.8 0.00231
57.85 0.00866
57.9 0.01648
57.95 0.01684
58 0.01991
58.05 0.02361
58.1 0.01976
58.15 0.01324
58.2 0.01097
58.25 0.00406
58.3 -0.00496
58.35 -0.01412
58.4 -0.01979
58.45 -0.02112
58.5 -0.02391
58.55 -0.02439
58.6 -0.02612
58.65 -0.02816
58.7 -0.02944
58.75 -0.02723
58.8 -0.01972
58.85 -0.01069
58.9 -0.00079
58.95 0.0082
59 0.01098
59.05 0.01669
59.1 0.01865
59.15 0.01901
59.2 0.0173
59.25 0.01072
59.3 0.00284
59.35 -0.00396
59.4 -0.01048
59.45 -0.01664
59.5 -0.02361
59.55 -0.02647
59.6 -0.02239
59.65 -0.02005
59.7 -0.01262
59.75 -0.00758
59.8 0.00109
59.85 0.00746
59.9 0.01295
59.95 0.01176
60 0.00702
60.05 0.00216
60.1 0.00214
60.15 0.00226
60.2 0.00346
60.25 0.00371
60.3 0.00484
60.35 0.00882
60.4 0.01486
60.45 0.01378
60.5 0.01371
60.55 0.01446
60.6 0.01742
60.65 0.01935
60.7 0.01479
60.75 0.00894
60.8 0.00756
60.85 0.01043
60.9 0.01478
60.95 0.01322
61 0.01334
61.05 0.00931
61.1 0.00765
61.15 0.00685
61.2 0.0104
61.25 0.00976
61.3 0.00784
61.35 0.00866
61.4 0.00942
61.45 0.01293
61.5 0.01775
61.55 0.01993
61.6 0.01922
61.65 0.01385
61.7 0.0055
61.75 0.00146
61.8 -0.00065
61.85 -0.00513
61.9 -0.01111
61.95 -0.01318
62 -0.01101
62.05 -0.01033
62.1 -0.00713
62.15 -0.00741
62.2 -0.00423
62.25 -0.0019
62.3 -0.00212
62.35 -0.00083
62.4 -0.00457
62.45 -0.01023
62.5 -0.01024
62.55 -0.00641
62.6 -0.00019
62.65 0.00685
62.7 0.01498
62.75 0.01771
62.8 0.02003
62.85 0.01556
62.9 0.01223
62.95 0.01282
63 0.01455
63.05 0.01777
63.1 0.01874
63.15 0.01522
63.2 0.01324
63.25 0.01499
63.3 0.01537
63.35 0.01295
63.4 0.00545
63.45 0.00007
63.5 -0.00678
63.55 -0.01018
63.6 -0.00977
63.65 -0.00907
63.7 -0.01204
63.75 -0.01368
63.8 -0.01347
63.85 -0.01353
63.9 -0.01479
63.95 -0.01601
64 -0.01713
64.05 -0.01874
64.1 -0.01459
64.15 -0.01256
64.2 -0.00738
64.25 -0.00822
64.3 -0.00687
64.35 -0.00727
64.4 -0.00659
64.45 -0.00569
64.5 -0.00131
64.55 0.00051
64.6 0.00128
64.65 -0.0015
64.7 -0.0034
64.75 -0.00626
64.8 -0.01136
64.85 -0.01545
64.9 -0.01453
64.95 -0.01463
65 -0.01098
65.05 -0.00863
65.1 -0.00982
65.15 -0.01445
65.2 -0.01821
65.25 -0.01985
65.3 -0.01526
65.35 -0.00815
65.4 -0.00546
65.45 -0.00109
65.5 -0.00014
65.55 0.00262
65.6 0.00727
65.65 0.01202
65.7 0.01636
65.75 0.01819
65.8 0.01388
65.85 0.00538
65.9 -0.00358
65.95 -0.0067
66 -0.00784
66.05 -0.0098
66.1 -0.00944
66.15 -0.01292
66.2 -0.01568
66.25 -0.01413
66.3 -0.01182
66.35 -0.01152
66.4 -0.00684
66.45 -0.00667
66.5 -0.0028
66.55 -0.00176
66.6 -0.00027
66.65 0.00262
66.7 0.00006
66.75 -0.00443
66.8 -0.00819
66.85 -0.01089
66.9 -0.01177
66.95 -0.01137
67 -0.00565
67.05 -0.00129
67.1 0.00492
67.15 0.00449
67.2 0.00633
67.25 0.00997
67.3 0.00718
67.35 0.00588
67.4 0.00906
67.45 0.00848
67.5 0.01016
67.55 0.00702
67.6 0.002
67.65 -0.00575
67.7 -0.00712
67.75 -0.00358
67.8 -0.00042
67.85 -0.00216
67.9 -0.00738
67.95 -0.01321
68 -0.01949
68.05 -0.02027
68.1 -0.01465
68.15 -0.01015
68.2 -0.00811
68.25 -0.00633
68.3 -0.00719
68.35 -0.00744
68.4 -0.00527
68.45 0.00022
68.5 0.0051
68.55 0.00682
68.6 0.00692
68.65 0.00627
68.7 0.00672
68.75 0.00632
68.8 0.00507
68.85 0.00126
68.9 -0.00245
68.95 -0.0043
69 -0.00391
69.05 -0.00326
69.1 0.00131
69.15 0.00634
69.2 0.01145
69.25 0.01434
69.3 0.01391
69.35 0.01713
69.4 0.01572
69.45 0.01364
69.5 0.01266
69.55 0.01451
69.6 0.01267
69.65 0.0117
69.7 0.00932
69.75 0.00427
69.8 0.0021
69.85 0.00218
69.9 0.00001
69.95 -0.00293
70 -0.00477
70.05 -0.00505
70.1 -0.00533
70.15 -0.00804
70.2 -0.00664
70.25 -0.00556
70.3 -0.00087
70.35 0.00483
70.4 0.00554
70.45 0.00146
70.5 -0.00482
70.55 -0.0119
70.6 -0.01897
70.65 -0.02071
70.7 -0.01815
70.75 -0.01737
70.8 -0.01988
70.85 -0.01797
70.9 -0.01912
70.95 -0.01539
71 -0.00779
71.05 -0.00022
71.1 0.00091
71.15 0.00457
71.2 0.00209
71.25 0.00356
71.3 0.00241
71.35 -0.00241
71.4 -0.00262
71.45 -0.00668
71.5 -0.00863
71.55 -0.01298
71.6 -0.01367
71.65 -0.01178
71.7 -0.01288
71.75 -0.01012
71.8 -0.00628
71.85 -0.00572
71.9 -0.00108
71.95 0.00603
72 0.01318
72.05 0.02099
72.1 0.02704
72.15 0.02658
72.2 0.02875
72.25 0.02864
72.3 0.02207
72.35 0.0119
72.4 0.00389
72.45 -0.00562
72.5 -0.01312
72.55 -0.01817
72.6 -0.01579
72.65 -0.01442
72.7 -0.0131
72.75 -0.00908
72.8 -0.0044
72.85 0.00042
72.9 0.0015
72.95 0.00024
73 -0.00164
73.05 -0.00629
73.1 -0.01244
73.15 -0.01781
73.2 -0.02028
73.25 -0.02314
73.3 -0.0261
73.35 -0.02504
73.4 -0.02174
73.45 -0.02032
73.5 -0.01459
73.55 -0.01169
73.6 -0.00743
73.65 -0.00732
73.7 -0.00811
73.75 -0.01095
73.8 -0.00911
73.85 -0.00278
73.9 0.00276
73.95 0.00561
74 0.00862
74.05 0.00825
74.1 0.00953
74.15 0.00933
74.2 0.01229
74.25 0.01339
74.3 0.01246
74.35 0.01463
74.4 0.01619
74.45 0.01302
74.5 0.01292
74.55 0.0163
74.6 0.0133
74.65 0.01168
74.7 0.00683
74.75 0.00455
74.8 0.00384
74.85 -0.00004
74.9 -0.0008
74.95 0.00171
75 0.00415
75.05 0.00858
75.1 0.01322
75.15 0.01566
75.2 0.01781
75.25 0.01545
75.3 0.01626
75.35 0.02017
75.4 0.02509
75.45 0.0287
75.5 0.02485
75.55 0.0163
75.6 0.01038
75.65 0.00446
75.7 -0.0014
75.75 -0.00912
75.8 -0.0128
75.85 -0.01416
75.9 -0.01532
75.95 -0.01542
76 -0.01098
76.05 -0.00882
76.1 -0.0088
76.15 -0.01062
76.2 -0.00738
76.25 -0.00761
76.3 -0.00566
76.35 -0.00246
76.4 0.00027
76.45 0.00002
76.5 -0.00336
76.55 -0.0074
76.6 -0.01197
76.65 -0.01042
76.7 -0.01202
76.75 -0.00914
76.8 -0.0049
76.85 -0.00484
76.9 -0.00075
76.95 -0.00197
77 -0.00504
77.05 -0.0098
77.1 -0.01504
77.15 -0.0206
77.2 -0.01781
77.25 -0.01627
77.3 -0.01037
77.35 -0.00834
77.4 -0.00569
77.45 0.00133
77.5 0.00923
77.55 0.00979
77.6 0.00724
77.65 0.00406
77.7 0.0053
77.75 0.00984
77.8 0.01632
77.85 0.0153
77.9 0.01317
77.95 0.0117
78 0.01001
78.05 0.00671
78.1 0.00275
78.15 0.00296
78.2 0.00103
78.25 -0.00384
78.3 -0.01041
78.35 -0.01307
78.4 -0.01815
78.45 -0.01552
78.5 -0.01619
78.55 -0.01305
78.6 -0.00653
78.65 -0.00298
78.7 0.00412
78.75 0.01261
78.8 0.01817
78.85 0.02494
78.9 0.0235
78.95 0.0227
79 0.02406
79.05 0.02011
79.1 0.01229
79.15 0.01002
79.2 0.00992
79.25 0.0095
79.3 0.00476
79.35 -0.00077
79.4 -0.0018
79.45 -0.00337
79.5 -0.00776
79.55 -0.01146
79.6 -0.01097
79.65 -0.00822
79.7 -0.00709
79.75 -0.00217
79.8 0.00161
79.85 0.00264
79.9 0.00252
79.95 0.00168
80 0.00161
80.05 -0.00079
80.1 -0.00503
80.15 -0.0045
80.2 -0.006
80.25 -0.00307
80.3 -0.00085
80.35 0.0024
80.4 0.00403
80.45 0.00405
80.5 0.00672
80.55 0.00887
80.6 0.00594
80.65 0.00353
80.7 -0.00015
80.75 -0.00297
80.8 -0.00681
80.85 -0.0124
80.9 -0.01762
80.95 -0.01492
81 -0.0141
81.05 -0.01361
81.1 -0.01294
81.15 -0.01263
81.2 -0.00852
81.25 -0.00086
81.3 0.00039
81.35 0.0007
81.4 -0.0026
81.45 -0.00386
81.5 -0.00257
81.55 0.00214
81.6 0.00305
81.65 0.00797
81.7 0.00999
81.75 0.00948
81.8 0.00468
81.85 -0.00223
81.9 -0.00246
81.95 -0.00024
82 0.00242
82.05 -0.0004
82.1 0.00006
82.15 0.00082
82.2 0.00102
82.25 -0.00161
82.3 -0.00496
82.35 -0.00883
82.4 -0.01252
82.45 -0.01413
82.5 -0.01637
82.55 -0.01664
82.6 -0.01493
82.65 -0.01665
82.7 -0.01662
82.75 -0.01114
82.8 -0.00567
82.85 -0.00358
82.9 0.00217
82.95 0.0105
83 0.01459
83.05 0.01291
83.1 0.00875
83.15 0.00187
83.2 -0.0045
83.25 -0.00381
83.3 -0.00167
83.35 0.0017
83.4 0.00192
83.45 0.00641
83.5 0.0047
83.55 0.00339
83.6 0.00328
83.65 0.00168
83.7 0.0034
83.75 0.00426
83.8 0.0031
83.85 0.00385
83.9 0.00481
83.95 0.00387
84 0.00181
84.05 0.00213
84.1 0.00472
84.15 0.00556
84.2 0.0056
84.25 0.00183
84.3 0.00292
84.35 0.00257
84.4 0.00688
84.45 0.00781
84.5 0.00787
84.55 0.01184
84.6 0.01188
84.65 0.01492
84.7 0.01311
84.75 0.01023
84.8 0.0033
84.85 -0.005
84.9 -0.01146
84.95 -0.01822
85 -0.02073
85.05 -0.01608
85.1 -0.01204
85.15 -0.00739
85.2 0.00041
85.25 0.00908
85.3 0.0161
85.35 0.02155
85.4 0.01913
85.45 0.01614
85.5 0.01193
85.55 0.00559
85.6 -0.00292
85.65 -0.01106
85.7 -0.0131
85.75 -0.01133
85.8 -0.00482
85.85 -0.00435
85.9 -0.0049
85.95 -0.00784
86 -0.01184
86.05 -0.01734
86.1 -0.02323
86.15 -0.0262
86.2 -0.02688
86.25 -0.02239
86.3 -0.01305
86.35 -0.00357
86.4 0.00761
86.45 0.01775
86.5 0.02156
86.55 0.02531
86.6 0.02925
86.65 0.02755
86.7 0.02356
86.75 0.0153
86.8 0.00518
86.85 -0.00323
86.9 -0.00496
86.95 -0.00897
87 -0.00732
87.05 -0.00816
87.1 -0.00993
87.15 -0.00719
87.2 -0.00843
87.25 -0.00645
87.3 -0.00438
87.35 -0.00599
87.4 -0.01065
87.45 -0.01326
87.5 -0.01457
87.55 -0.0151
87.6 -0.01738
87.65 -0.01982
87.7 -0.01711
87.75 -0.01405
87.8 -0.01071
87.85 -0.00315
87.9 0.00012
87.95 0.00003
88 -0.00239
88.05 -0.00251
88.1 -0.00213
88.15 -0.00372
88.2 -0.00154
88.25 0.0014
88.3 0.00199
88.35 -0.00188
88.4 -0.00416
88.45 -0.00147
88.5 0.0052
88.55 0.00961
88.6 0.00798
88.65 0.01099
88.7 0.0139
88.75 0.01093
88.8 0.01035
88.85 0.00939
88.9 0.00611
88.95 -0.00083
89 -0.00464
89.05 -0.00607
89.1 -0.00876
89.15 -0.01208
89.2 -0.01575
89.25 -0.0159
89.3 -0.01729
89.35 -0.02028
89.4 -0.01698
89.45 -0.01279
89.5 -0.00681
89.55 -0.00222
89.6 0.00117
89.65 0.00382
89.7 0.00474
89.75 0.002
89.8 -0.00305
89.85 -0.00689
89.9 -0.00944
89.95 -0.01126
90 -0.00975
90.05 -0.00384
90.1 0.00395
90.15 0.00902
90.2 0.0137
90.25 0.01682
90.3 0.02094
90.35 0.02228
90.4 0.01927
90.45 0.01886
90.5 0.01752
90.55 0.01577
90.6 0.01634
90.65 0.0139
90.7 0.00807
90.75 0.00257
90.8 -0.00423
90.85 -0.01187
90.9 -0.01519
90.95 -0.01249
91 -0.00616
91.05 -0.00604
91.1 -0.00939
91.15 -0.00946
91.2 -0.00801
91.25 -0.00333
91.3 0.00431
91.35 0.01026
91.4 0.01592
91.45 0.01583
91.5 0.01311
91.55 0.01399
91.6 0.00975
91.65 0.00995
91.7 0.00991
91.75 0.00779
91.8 0.0106
91.85 0.01613
91.9 0.01458
91.95 0.00793
92 0.00029
92.05 -0.00454
92.1 -0.01187
92.15 -0.01439
92.2 -0.01194
92.25 -0.00988
92.3 -0.00327
92.35 0.00237
92.4 0.00455
92.45 0.00592
92.5 0.0067
92.55 0.0094
92.6 0.01227
92.65 0.01085
92.7 0.00691
92.75 0.0071
92.8 0.00738
92.85 0.01012
92.9 0.01092
92.95 0.01192
93 0.00782
93.05 0.0083
93.1 0.01002
93.15 0.01163
93.2 0.01598
93.25 0.01721
93.3 0.01496
93.35 0.01027
93.4 0.00734
93.45 0.00523
93.5 0.00091
93.55 -0.00606
93.6 -0.01323
93.65 -0.02009
93.7 -0.02071
93.75 -0.01568
93.8 -0.0125
93.85 -0.00856
93.9 -0.00285
93.95 0.00485
94 0.0068
94.05 0.00382
94.1 0.00583
94.15 0.00348
94.2 0.00422
94.25 0.00628
94.3 0.00617
94.35 0.00319
94.4 -0.00379
94.45 -0.00447
94.5 -0.00183
94.55 0.00123
94.6 -0.00119
94.65 -0.00693
94.7 -0.01279
94.75 -0.01512
94.8 -0.01905
94.85 -0.02427
94.9 -0.02398
94.95 -0.01722
95 -0.00951
95.05 -0.00739
95.1 -0.00797
95.15 -0.01124
95.2 -0.01346
95.25 -0.01686
95.3 -0.01845
95.35 -0.02155
95.4 -0.01864
95.45 -0.01746
95.5 -0.01096
95.55 -0.00578
95.6 0.00234
95.65 0.00881
95.7 0.00996
95.75 0.01182
95.8 0.01355
95.85 0.01659
95.9 0.01301
95.95 0.01253
96 0.01103
96.05 0.01241
96.1 0.0159
96.15 0.01629
96.2 0.01256
96.25 0.01001
96.3 0.00452
96.35 -0.00397
96.4 -0.00932
96.45 -0.0156
96.5 -0.0188
96.55 -0.02228
96.6 -0.02245
96.65 -0.01691
96.7 -0.01586
96.75 -0.01719
96.8 -0.01887
96.85 -0.02064
96.9 -0.01598
96.95 -0.01181
97 -0.00687
97.05 -0.00424
97.1 -0.00348
97.15 -0.00418
97.2 -0.00577
97.25 -0.00438
97.3 -0.00362
97.35 -0.00079
97.4 -0.00236
97.45 -0.00171
97.5 0.00135
97.55 0.00332
97.6 0.00133
97.65 -0.00073
97.7 -0.00402
97.75 -0.0061
97.8 -0.00885
97.85 -0.01315
97.9 -0.01329
97.95 -0.01483
98 -0.01332
98.05 -0.01179
98.1 -0.00877
98.15 -0.00354
98.2 0.00505
98.25 0.01325
98.3 0.01405
98.35 0.01457
98.4 0.01205
98.45 0.00605
98.5 -0.00031
98.55 -0.00289
98.6 -0.00344
98.65 -0.00211
98.7 0.00285
98.75 0.00872
98.8 0.0082
98.85 0.00397
98.9 -0.00128
98.95 -0.00087
99 0.00032
99.05 0.00441
99.1 0.01062
99.15 0.01855
99.2 0.01968
99.25 0.0173
99.3 0.0135
99.35 0.01464
99.4 0.01556
99.45 0.01688
99.5 0.01448
99.55 0.00943
99.6 0.0058
99.65 0.00753
99.7 0.01048
99.75 0.015
99.8 0.02011
99.85 0.01752
99.9 0.01306
99.95 0.00936
