0 0
0.05 0.00437
0.1 0.01575
0.15 0.02846
0.2 0.04267
0.25 0.05334
0.3 0.05598
0.35 0.05937
0.4 0.0623
0.45 0.05872
0.5 0.05927
0.55 0.0554
0.6 0.05109
0.65 0.05009
0.7 0.04617
0.75 0.04231
0.8 0.03752
0.85 0.0382
0.9 0.03643
0.95 0.03824
1 0.03619
1.05 0.03206
1.1 0.02765
1.15 0.03052
1.2 0.03654
1.25 0.04279
1.3 0.04265
1.35 0.03776
1.4 0.0358
1.45 0.03629
1.5 0.03406
1.55 0.03476
1.6 0.03566
1.65 0.03232
1.7 0.03087
1.75 0.03231
1.8 0.03018
1.85 0.02912
1.9 0.02855
1.95 0.03243
2 0.03078
2.05 0.02893
2.1 0.02809
2.15 0.02996
2.2 0.03319
2.25 0.03281
2.3 0.03649
2.35 0.0416
2.4 0.04248
2.45 0.03859
2.5 0.03746
2.55 0.03309
2.6 0.03211
2.65 0.03106
2.7 0.0261
2.75 0.02671
2.8 0.0273
2.85 0.02973
2.9 0.03485
2.95 0.03949
3 0.04417
3.05 0.0427
3.1 0.04259
3.15 0.04374
3.2 0.0392
3.25 0.03384
3.3 0.02842
3.35 0.02351
3.4 0.01932
3.45 0.01684
3.5 0.01686
3.55 0.01519
3.6 0.01685
3.65 0.01559
3.7 0.01941
3.75 0.01872
3.8 0.01557
3.85 0.01628
3.9 0.02027
3.95 0.02114
4 0.02511
4.05 0.02849
4.1 0.02535
4.15 0.02056
4.2 0.02005
4.25 0.01861
4.3 0.01182
4.35 0.00464
4.4 -0.0006
4.45 -0.00753
4.5 -0.01757
4.55 -0.02887
4.6 -0.04288
4.65 -0.05848
4.7 -0.0786
4.75 -0.10309
4.8 -0.12853
4.85 -0.15305
4.9 -0.18279
4.95 -0.21425
5 -0.24779
5.05 -0.29162
5.1 -0.33689
5.15 -0.39386
5.2 -0.45371
5.25 -0.51984
5.3 -0.59033
5.35 -0.66375
5.4 -0.74741
5.45 -0.83856
5.5 -0.93344
5.55 -1.02729
5.6 -1.1253
5.65 -1.22734
5.7 -1.32991
5.75 -1.42819
5.8 -1.52548
5.85 -1.62449
5.9 -1.71722
5.95 -1.80235
6 -1.88635
6.05 -1.96366
6.1 -2.04057
6.15 -2.11318
6.2 -2.18364
6.25 -2.25062
6.3 -2.30924
6.35 -2.35772
6.4 -2.40069
6.45 -2.44157
6.5 -2.47226
6.55 -2.49204
6.6 -2.50671
6.65 -2.51516
6.7 -2.51209
6.75 -2.49579
6.8 -2.46316
6.85 -2.41737
6.9 -2.35213
6.95 -2.2675
7 -2.16792
7.05 -2.04941
7.1 -1.91401
7.15 -1.76696
7.2 -1.60423
7.25 -1.42867
7.3 -1.24628
7.35 -1.05482
7.4 -0.8562
7.45 -0.65343
7.5 -0.44397
7.55 -0.23055
7.6 -0.0173
7.65 0.19068
7.7 0.39488
7.75 0.59157
7.8 0.77987
7.85 0.95701
7.9 1.11645
7.95 1.26318
8 1.39586
8.05 1.51534
8.1 1.62933
8.15 1.73404
8.2 1.82789
8.25 1.91163
8.3 1.98101
8.35 2.03816
8.4 2.08676
8.45 2.12972
8.5 2.1669
8.55 2.19922
8.6 2.22376
8.65 2.23854
8.7 2.24731
8.75 2.24537
8.8 2.23944
8.85 2.23092
8.9 2.22217
8.95 2.21001
9 2.19338
9.05 2.17802
9.1 2.16598
9.15 2.15406
9.2 2.13531
9.25 2.11181
9.3 2.08581
9.35 2.05785
9.4 2.02883
9.45 2.00197
9.5 1.97528
9.55 1.95175
9.6 1.92933
9.65 1.90312
9.7 1.87684
9.75 1.85327
9.8 1.83221
9.85 1.80893
9.9 1.77963
9.95 1.74698
10 1.71365
10.05 1.67435
10.1 1.63736
10.15 1.60106
10.2 1.55854
10.25 1.51642
10.3 1.46917
10.35 1.42239
10.4 1.37187
10.45 1.31875
10.5 1.26991
10.55 1.22218
10.6 1.17548
10.65 1.13018
10.7 1.08985
10.75 1.05064
10.8 1.00858
10.85 0.96367
10.9 0.91818
10.95 0.87292
11 0.83013
11.05 0.78299
11.1 0.73223
11.15 0.68738
11.2 0.64141
11.25 0.59343
11.3 0.54312
11.35 0.50013
11.4 0.45708
11.45 0.41191
11.5 0.3712
11.55 0.33278
11.6 0.2988
11.65 0.2685
11.7 0.23521
11.75 0.20061
11.8 0.16595
11.85 0.1365
11.9 0.10411
11.95 0.07464
12 0.04461
12.05 0.01916
12.1 -0.00462
12.15 -0.03253
12.2 -0.06228
12.25 -0.09285
12.3 -0.12181
12.35 -0.14373
12.4 -0.16566
12.45 -0.1821
12.5 -0.19432
12.55 -0.20908
12.6 -0.22255
12.65 -0.2373
12.7 -0.25186
12.75 -0.26541
12.8 -0.27885
12.85 -0.2896
12.9 -0.29741
12.95 -0.30471
13 -0.3103
13.05 -0.31745
13.1 -0.32323
13.15 -0.32969
13.2 -0.33714
13.25 -0.3399
13.3 -0.34506
13.35 -0.34771
13.4 -0.35445
13.45 -0.35735
13.5 -0.36293
13.55 -0.3633
13.6 -0.3678
13.65 -0.36907
13.7 -0.36837
13.75 -0.36461
13.8 -0.36109
13.85 -0.35983
13.9 -0.36061
13.95 -0.36275
14 -0.36329
14.05 -0.36797
14.1 -0.37397
14.15 -0.37577
14.2 -0.37168
14.25 -0.37077
14.3 -0.37052
14.35 -0.36715
14.4 -0.36588
14.45 -0.36714
14.5 -0.36139
14.55 -0.35479
14.6 -0.35257
14.65 -0.34951
14.7 -0.34422
14.75 -0.33803
14.8 -0.33271
14.85 -0.3238
14.9 -0.3154
14.95 -0.31284
15 -0.30571
15.05 -0.29917
15.1 -0.29583
15.15 -0.29141
15.2 -0.29182
15.25 -0.29185
15.3 -0.28918
15.35 -0.28643
15.4 -0.28693
15.45 -0.28647
15.5 -0.2796
15.55 -0.26869
15.6 -0.26178
15.65 -0.25419
15.7 -0.24552
15.75 -0.24225
15.8 -0.24113
15.85 -0.24315
15.9 -0.2401
15.95 -0.23507
16 -0.23374
16.05 -0.23404
16.1 -0.2345
16.15 -0.23161
16.2 -0.2266
16.25 -0.22325
16.3 -0.22112
16.35 -0.21755
16.4 -0.21452
16.45 -0.20956
16.5 -0.20003
16.55 -0.19286
16.6 -0.18742
16.65 -0.18308
16.7 -0.17548
16.75 -0.16933
16.8 -0.1649
16.85 -0.1618
16.9 -0.16398
16.95 -0.16739
17 -0.16534
17.05 -0.16591
17.1 -0.16274
17.15 -0.15689
17.2 -0.15111
17.25 -0.14531
17.3 -0.14296
17.35 -0.14208
17.4 -0.13864
17.45 -0.13253
17.5 -0.12756
17.55 -0.12764
17.6 -0.13204
17.65 -0.13122
17.7 -0.12573
17.75 -0.12488
17.8 -0.12757
17.85 -0.12903
17.9 -0.12887
17.95 -0.12792
18 -0.12348
18.05 -0.12041
18.1 -0.11772
18.15 -0.11903
18.2 -0.12061
18.25 -0.12389
18.3 -0.12431
18.35 -0.12199
18.4 -0.1191
18.45 -0.11447
18.5 -0.11079
18.55 -0.11102
18.6 -0.11254
18.65 -0.11058
18.7 -0.11022
18.75 -0.1091
18.8 -0.10715
18.85 -0.10097
18.9 -0.09564
18.95 -0.09407
19 -0.0921
19.05 -0.09197
19.1 -0.0894
19.15 -0.08369
19.2 -0.08344
19.25 -0.08118
19.3 -0.08135
19.35 -0.08532
19.4 -0.08345
19.45 -0.07867
19.5 -0.07942
19.55 -0.08105
19.6 -0.08102
19.65 -0.07733
19.7 -0.07004
19.75 -0.06843
19.8 -0.07134
19.85 -0.07306
19.9 -0.07432
19.95 -0.07586
20 -0.07703
20.05 -0.07988
20.1 -0.07944
20.15 -0.0751
20.2 -0.06633
20.25 -0.05602
20.3 -0.05043
20.35 -0.04934
20.4 -0.04733
20.45 -0.05045
20.5 -0.05288
20.55 -0.05153
20.6 -0.04813
20.65 -0.0458
20.7 -0.04142
20.75 -0.03443
20.8 -0.02836
20.85 -0.02761
20.9 -0.02735
20.95 -0.02836
21 -0.02908
21.05 -0.03517
21.1 -0.04071
21.15 -0.04054
21.2 -0.0392
21.25 -0.03471
21.3 -0.03263
21.35 -0.03429
21.4 -0.03374
21.45 -0.03724
21.5 -0.04005
21.55 -0.03796
21.6 -0.03995
21.65 -0.04247
21.7 -0.03967
21.75 -0.03789
21.8 -0.03263
21.85 -0.03107
21.9 -0.02675
21.95 -0.02728
22 -0.02791
22.05 -0.02432
22.1 -0.02469
22.15 -0.02912
22.2 -0.03447
22.25 -0.03561
22.3 -0.03609
22.35 -0.03947
22.4 -0.03938
22.45 -0.04134
22.5 -0.04589
22.55 -0.04889
22.6 -0.04726
22.65 -0.04026
22.7 -0.03037
22.75 -0.0211
22.8 -0.01237
22.85 -0.00671
22.9 -0.00768
22.95 -0.00706
23 -0.01181
23.05 -0.01551
23.1 -0.02212
23.15 -0.02225
23.2 -0.02222
23.25 -0.01924
23.3 -0.01825
23.35 -0.01392
23.4 -0.00781
23.45 -0.00161
23.5 -0.0005
23.55 -0.00412
23.6 -0.00372
23.65 -0.00903
23.7 -0.01753
23.75 -0.02425
23.8 -0.02644
23.85 -0.03093
23.9 -0.02995
23.95 -0.03247
24 -0.03061
24.05 -0.02403
24.1 -0.01598
24.15 -0.0129
24.2 -0.01249
24.25 -0.01332
24.3 -0.01474
24.35 -0.01292
24.4 -0.00763
24.45 -0.0043
24.5 -0.00548
24.55 -0.00516
24.6 -0.00565
24.65 -0.00743
24.7 -0.01128
24.75 -0.01566
24.8 -0.0142
24.85 -0.01339
24.9 -0.00916
24.95 -0.00265
25 -0.00042
25.05 0.00334
25.1 0.00579
25.15 0.00187
25.2 -0.00553
25.25 -0.00958
25.3 -0.01131
25.35 -0.01059
25.4 -0.01065
25.45 -0.00986
25.5 -0.00917
25.55 -0.00608
25.6 -0.00357
25.65 -0.00064
25.7 -0.00044
25.75 -0.00354
25.8 -0.00812
25.85 -0.00909
25.9 -0.00584
25.95 -0.00012
26 0.00233
26.05 -0.00049
26.1 0.00001
26.15 -0.00468
26.2 -0.00895
26.25 -0.01337
26.3 -0.01374
26.35 -0.01313
26.4 -0.01402
26.45 -0.01583
26.5 -0.01911
26.55 -0.01771
26.6 -0.01213
26.65 -0.01243
26.7 -0.01232
26.75 -0.01112
26.8 -0.01183
26.85 -0.01253
26.9 -0.01618
26.95 -0.02043
27 -0.02008
27.05 -0.01694
27.1 -0.00996
27.15 -0.00649
27.2 -0.00451
27.25 -0.00716
27.3 -0.00907
27.35 -0.00774
27.4 -0.0059
27.45 -0.00588
27.5 -0.00748
27.55 -0.00459
27.6 -0.00004
27.65 0.00274
27.7 0.00774
27.75 0.01046
27.8 0.01482
27.85 0.01981
27.9 0.02334
27.95 0.02204
28 0.02167
28.05 0.01677
28.1 0.01136
28.15 0.00652
28.2 0.00084
28.25 -0.00049
28.3 -0.00239
28.35 -0.00098
28.4 -0.00426
28.45 -0.00963
28.5 -0.01395
28.55 -0.01893
28.6 -0.02076
28.65 -0.02125
28.7 -0.02487
28.75 -0.02224
28.8 -0.01815
28.85 -0.01177
28.9 -0.01102
28.95 -0.01383
29 -0.01457
29.05 -0.01153
29.1 -0.00761
29.15 -0.00876
29.2 -0.01226
29.25 -0.01854
29.3 -0.02169
29.35 -0.02191
29.4 -0.0179
29.45 -0.01158
29.5 -0.01191
29.55 -0.0115
29.6 -0.00839
29.65 -0.00849
29.7 -0.0078
29.75 -0.00433
29.8 0.00094
29.85 0.00623
29.9 0.00453
29.95 0.00593
30 0.00702
30.05 0.007
30.1 0.00944
30.15 0.01183
30.2 0.01245
30.25 0.01497
30.3 0.01871
30.35 0.01472
30.4 0.00647
30.45 -0.00102
30.5 -0.00282
30.55 -0.00211
30.6 -0.00351
30.65 -0.00345
30.7 -0.00813
30.75 -0.00784
30.8 -0.0076
30.85 -0.00832
30.9 -0.00531
30.95 0.00045
31 0.00274
31.05 0.00136
31.1 -0.00238
31.15 -0.00468
31.2 -0.01062
31.25 -0.01319
31.3 -0.01172
31.35 -0.00844
31.4 -0.00739
31.45 -0.00786
31.5 -0.0112
31.55 -0.01386
31.6 -0.01841
31.65 -0.0224
31.7 -0.02243
31.75 -0.02309
31.8 -0.0209
31.85 -0.01761
31.9 -0.0122
31.95 -0.00517
32 -0.00063
32.05 -0.00172
32.1 -0.00564
32.15 -0.00578
32.2 -0.00845
32.25 -0.01394
32.3 -0.01665
32.35 -0.0137
32.4 -0.00949
32.45 -0.01069
32.5 -0.00961
32.55 -0.00585
32.6 -0.00465
32.65 -0.00085
32.7 0.00012
32.75 0.00036
32.8 0.00188
32.85 0.00404
32.9 0.00028
32.95 -0.00664
33 -0.01079
33.05 -0.01594
33.1 -0.01655
33.15 -0.0193
33.2 -0.01535
33.25 -0.00973
33.3 -0.00453
33.35 0.00211
33.4 0.00924
33.45 0.01145
33.5 0.01121
33.55 0.00818
33.6 0.00471
33.65 0.00061
33.7 0.00119
33.75 0.00307
33.8 0.00569
33.85 0.00604
33.9 0.0055
33.95 0.00092
34 -0.00685
34.05 -0.00976
34.1 -0.01213
34.15 -0.00977
34.2 -0.00417
34.25 -0.00216
34.3 -0.0027
34.35 -0.00655
34.4 -0.00797
34.45 -0.00633
34.5 -0.00172
34.55 0.00307
34.6 0.00295
34.65 0.00592
34.7 0.00635
34.75 0.00945
34.8 0.01189
34.85 0.01183
34.9 0.00919
34.95 0.00337
35 0.00327
35.05 0.00408
35.1 0.00031
35.15 0.00171
35.2 0.00338
35.25 -0.00041
35.3 -0.00608
35.35 -0.00691
35.4 -0.00849
35.45 -0.01092
35.5 -0.01342
35.55 -0.01379
35.6 -0.01718
35.65 -0.01401
35.7 -0.00675
35.75 -0.00227
35.8 0.00478
35.85 0.01271
35.9 0.0147
35.95 0.01763
36 0.01814
36.05 0.0211
36.1 0.01752
36.15 0.01289
36.2 0.00597
36.25 -0.00333
36.3 -0.01091
36.35 -0.01616
36.4 -0.02083
36.45 -0.02488
36.5 -0.02413
36.55 -0.02446
36.6 -0.02162
36.65 -0.01725
36.7 -0.0146
36.75 -0.00859
36.8 -0.00137
36.85 0.00139
36.9 0.00508
36.95 0.0114
37 0.01332
37.05 0.01211
37.1 0.01348
37.15 0.01273
37.2 0.01087
37.25 0.01065
37.3 0.01318
37.35 0.01504
37.4 0.01273
37.45 0.01426
37.5 0.01696
37.55 0.01871
37.6 0.0191
37.65 0.01304
37.7 0.00942
37.75 0.00781
37.8 0.00433
37.85 0.00373
37.9 0.00503
37.95 0.00925
38 0.01384
38.05 0.01102
38.1 0.00978
38.15 0.01218
38.2 0.01165
38.25 0.01172
38.3 0.00638
38.35 0.00251
38.4 -0.00081
38.45 -0.00262
38.5 -0.00826
38.55 -0.00866
38.6 -0.005
38.65 -0.00695
38.7 -0.00673
38.75 -0.01071
38.8 -0.0141
38.85 -0.01937
38.9 -0.02501
38.95 -0.02543
39 -0.02166
39.05 -0.02166
39.1 -0.02481
39.15 -0.02352
39.2 -0.01959
39.25 -0.01624
39.3 -0.0148
39.35 -0.00892
39.4 -0.00698
39.45 -0.00451
39.5 -0.00496
39.55 -0.00304
39.6 -0.0011
39.65 0.00261
39.7 0.00318
39.75 0.00253
39.8 0.00408
39.85 0.00607
39.9 0.00618
39.95 0.00914
40 0.00739
40.05 0.00812
40.1 0.00351
40.15 -0.00449
40.2 -0.01312
40.25 -0.02239
40.3 -0.02962
40.35 -0.02781
40.4 -0.0234
40.45 -0.02094
40.5 -0.01493
40.55 -0.01205
40.6 -0.01374
40.65 -0.01099
40.7 -0.01265
40.75 -0.01547
40.8 -0.0114
40.85 -0.00677
40.9 -0.00746
40.95 -0.0033
41 -0.00169
41.05 -0.00499
41.1 -0.00767
41.15 -0.00532
41.2 -0.00215
41.25 0.00139
41.3 0.00529
41.35 0.01027
41.4 0.00817
41.45 0.00597
41.5 0.00014
41.55 -0.00712
41.6 -0.00678
41.65 -0.00283
41.7 -0.00465
41.75 -0.00438
41.8 0.00017
41.85 -0.00098
41.9 -0.00291
41.95 -0.00556
42 -0.00401
42.05 -0.00723
42.1 -0.0073
42.15 -0.00215
42.2 0.00092
42.25 -0.00048
42.3 -0.00346
42.35 -0.00047
42.4 0.00269
42.45 0.00823
42.5 0.01261
42.55 0.01518
42.6 0.01168
42.65 0.01142
42.7 0.01376
42.75 0.0125
42.8 0.0119
42.85 0.00814
42.9 0.00829
42.95 0.00395
43 -0.00112
43.05 -0.00223
43.1 -0.00318
43.15 -0.00489
43.2 -0.00286
43.25 -0.00274
43.3 -0.00144
43.35 -0.00219
43.4 0.00104
43.45 0.00231
43.5 0.00164
43.55 -0.00309
43.6 -0.01039
43.65 -0.01813
43.7 -0.02393
43.75 -0.03014
43.8 -0.03388
43.85 -0.03184
43.9 -0.0314
43.95 -0.0327
44 -0.03125
44.05 -0.02331
44.1 -0.01699
44.15 -0.00828
44.2 -0.00396
44.25 0.00317
44.3 0.0038
44.35 0.00503
44.4 0.0036
44.45 0.00498
44.5 0.00199
44.55 0.00313
44.6 0.00837
44.65 0.00847
44.7 0.01078
44.75 0.0097
44.8 0.01119
44.85 0.01314
44.9 0.0126
44.95 0.0075
45 0.00003
45.05 -0.00904
45.1 -0.01252
45.15 -0.01569
45.2 -0.01887
45.25 -0.02273
45.3 -0.02009
45.35 -0.01503
45.4 -0.00762
45.45 -0.00098
45.5 0.00337
45.55 0.00973
45.6 0.01535
45.65 0.01667
45.7 0.02077
45.75 0.0244
45.8 0.0284
45.85 0.02738
45.9 0.02532
45.95 0.02471
46 0.01873
46.05 0.01123
46.1 0.00175
46.15 0.00018
46.2 0.00292
46.25 0.00652
46.3 0.01144
46.35 0.00925
46.4 0.00457
46.45 -0.00208
46.5 -0.00757
46.55 -0.00735
46.6 -0.00563
46.65 -0.00799
46.7 -0.01203
46.75 -0.0094
46.8 -0.0058
46.85 -0.00193
46.9 -0.00272
46.95 0.00159
47 0.00278
47.05 0.00236
47.1 0.00029
47.15 -0.00338
47.2 -0.00916
47.25 -0.01165
47.3 -0.00928
47.35 -0.00946
47.4 -0.01337
47.45 -0.01349
47.5 -0.01577
47.55 -0.01975
47.6 -0.01835
47.65 -0.01537
47.7 -0.0124
47.75 -0.00985
47.8 -0.00747
47.85 -0.00757
47.9 -0.00941
47.95 -0.01173
48 -0.00769
48.05 -0.00452
48.1 0.00003
48.15 0.00435
48.2 0.00264
48.25 -0.0015
48.3 0.00038
48.35 -0.00252
48.4 -0.00376
48.45 -0.00549
48.5 -0.00442
48.55 -0.00124
48.6 0.00485
48.65 0.00675
48.7 0.00765
48.75 0.00945
48.8 0.00871
48.85 0.01006
48.9 0.01095
48.95 0.00912
49 0.01141
49.05 0.00845
49.1 0.00847
49.15 0.00483
49.2 -0.00173
49.25 -0.00177
49.3 -0.00015
49.35 -0.0013
49.4 -0.00386
49.45 -0.00872
49.5 -0.00828
49.55 -0.00524
49.6 -0.00608
49.65 -0.00508
49.7 -0.00663
49.75 -0.00287
49.8 -0.00189
49.85 -0.00343
49.9 -0.00011
49.95 0.00265
50 0.00115
50.05 0.00243
50.1 -0.00109
50.15 -0.00561
50.2 -0.00941
50.25 -0.01134
50.3 -0.0081
50.35 -0.00335
50.4 0.00424
50.45 0.00956
50.5 0.01563
50.55 0.01818
50.6 0.02092
50.65 0.02486
50.7 0.02295
50.75 0.01785
50.8 0.00892
50.85 0.00208
50.9 0.00149
50.95 0.00148
51 0.00427
51.05 0.00773
51.1 0.00875
51.15 0.01092
51.2 0.00751
51.25 0.00579
51.3 0.00267
51.35 -0.00237
51.4 -0.00271
51.45 -0.00715
51.5 -0.00633
51.55 -0.00875
51.6 -0.01366
51.65 -0.01258
51.7 -0.00853
51.75 -0.00872
51.8 -0.00574
51.85 0.00099
51.9 0.00578
51.95 0.00407
52 0.00163
52.05 -0.00044
52.1 -0.00409
52.15 -0.00473
52.2 -0.00014
52.25 0.00613
52.3 0.01111
52.35 0.01012
52.4 0.0075
52.45 0.00415
52.5 0.00352
52.55 0.0029
52.6 0.00234
52.65 0.00046
52.7 -0.00497
52.75 -0.00946
52.8 -0.01156
52.85 -0.01601
52.9 -0.02154
52.95 -0.02167
53 -0.01885
53.05 -0.01305
53.1 -0.00709
53.15 -0.00062
53.2 0.00324
53.25 0.00325
53.3 -0.00097
53.35 -0.00127
53.4 -0.00392
53.45 -0.00496
53.5 -0.00315
53.55 -0.00447
53.6 -0.00815
53.65 -0.0088
53.7 -0.0083
53.75 -0.00591
53.8 -0.00382
53.85 0.00041
53.9 0.00241
53.95 0.00302
54 0.0056
54.05 0.00985
54.1 0.00849
54.15 0.00793
54.2 0.01146
54.25 0.01031
54.3 0.01008
54.35 0.00656
54.4 0.00701
54.45 0.00519
54.5 0.00469
54.55 0.0036
54.6 -0.00004
54.65 0.00211
54.7 0.00699
54.75 0.01003
54.8 0.00695
54.85 0.00487
54.9 0.00031
54.95 -0.00689
55 -0.01064
55.05 -0.00791
55.1 -0.00868
55.15 -0.01125
55.2 -0.0109
55.25 -0.01379
55.3 -0.01781
55.35 -0.01481
55.4 -0.00947
55.45 -0.00101
55.5 0.00254
55.55 0.00252
55.6 -0.00116
55.65 -0.0022
55.7 0.00107
55.75 -0.00078
55.8 -0.00141
55.85 0.00123
55.9 0.00669
55.95 0.00721
56 0.0028
56.05 -0.00022
56.1 -0.00056
56.15 0.00278
56.2 0.00175
56.25 0.00326
56.3 0.00622
56.35 0.00677
56.4 0.01079
56.45 0.01436
56.5 0.01794
56.55 0.02122
56.6 0.021
56.65 0.017
56.7 0.01401
56.75 0.01233
56.8 0.0097
56.85 0.0038
56.9 -0.00444
56.95 -0.00885
57 -0.01388
57.05 -0.0202
57.1 -0.019
57.15 -0.02007
57.2 -0.0207
57.25 -0.01847
57.3 -0.01811
57.35 -0.01386
57.4 -0.00561
57.45 -0.00051
57.5 0.0067
57.55 0.00678
57.6 0.00525
57.65 0.00132
57.7 0.00019
57.75 0.0038
57.8 0.00425
57.85 0.00864
57.9 0.0126
57.95 0.00953
58 0.01107
58.05 0.01546
58.1 0.01687
58.15 0.01943
58.2 0.0151
58.25 0.01442
58.3 0.01705
58.35 0.01311
58.4 0.00593
58.45 0.00518
58.5 0.00569
58.55 0.00352
58.6 -0.00197
58.65 -0.00126
58.7 -0.00266
58.75 0.00092
58.8 0.00739
58.85 0.01493
58.9 0.01596
58.95 0.01093
59 0.00689
59.05 0.00019
59.1 -0.00839
59.15 -0.01665
59.2 -0.019
59.25 -0.02298
59.3 -0.02399
59.35 -0.02407
59.4 -0.02641
59.45 -0.02891
59.5 -0.03152
59.55 -0.02752
59.6 -0.02711
59.65 -0.02065
59.7 -0.01856
59.75 -0.01167
59.8 -0.00784
59.85 -0.00053
59.9 0.00823
59.95 0.01128
60 0.014
60.05 0.0139
60.1 0.00858
60.15 0.00127
60.2 -0.00443
60.25 -0.0106
60.3 -0.01803
60.35 -0.0209
60.4 -0.02037
60.45 -0.01391
60.5 -0.00758
60.55 -0.0061
60.6 -0.00705
60.65 -0.00459
60.7 -0.00459
60.75 -0.00172
60.8 0.0025
60.85 0.00957
60.9 0.01139
60.95 0.01007
61 0.01151
61.05 0.00867
61.1 0.0077
61.15 0.00201
61.2 0.00248
61.25 0.00475
61.3 0.00568
61.35 0.00465
61.4 0.00056
61.45 -0.00435
61.5 -0.00429
61.55 -0.00458
61.6 -0.00174
61.65 -0.00315
61.7 -0.00397
61.75 0.00014
61.8 0.00585
61.85 0.0072
61.9 0.01214
61.95 0.01794
62 0.02205
62.05 0.02601
62.1 0.02276
62.15 0.01919
62.2 0.01336
62.25 0.00545
62.3 -0.00005
62.35 -0.00373
62.4 -0.00213
62.45 0.00294
62.5 0.00715
62.55 0.00502
62.6 -0.00055
62.65 -0.00394
62.7 -0.00144
62.75 0.00113
62.8 0.00182
62.85 0.00411
62.9 0.0025
62.95 -0.00068
63 -0.00384
63.05 -0.01018
63.1 -0.01264
63.15 -0.01114
63.2 -0.01371
63.25 -0.01008
63.3 -0.01032
63.35 -0.01027
63.4 -0.00898
63.45 -0.00487
63.5 -0.00476
63.55 -0.00483
63.6 -0.00041
63.65 -0.00218
63.7 0.00127
63.75 0.00667
63.8 0.00506
63.85 -0.00085
63.9 -0.00502
63.95 -0.00338
64 -0.00524
64.05 -0.01037
64.1 -0.00881
64.15 -0.0088
64.2 -0.00932
64.25 -0.00779
64.3 -0.00228
64.35 -0.00264
64.4 -0.00517
64.45 -0.00865
64.5 -0.01292
64.55 -0.01874
64.6 -0.02358
64.65 -0.02755
64.7 -0.02858
64.75 -0.03104
64.8 -0.02969
64.85 -0.0257
64.9 -0.02335
64.95 -0.02134
65 -0.01607
65.05 -0.00683
65.1 -0.00375
65.15 0.00238
65.2 0.00575
65.25 0.00705
65.3 0.01221
65.35 0.01722
65.4 0.02102
65.45 0.02126
65.5 0.01968
65.55 0.01704
65.6 0.01091
65.65 0.00811
65.7 0.00931
65.75 0.00635
65.8 0.00348
65.85 0.00172
65.9 0.00212
65.95 0.00623
66 0.01025
66.05 0.01297
66.1 0.01398
66.15 0.0152
66.2 0.01756
66.25 0.0208
66.3 0.02526
66.35 0.02285
66.4 0.01989
66.45 0.01372
66.5 0.00426
66.55 0.00043
66.6 -0.00269
66.65 -0.00614
66.7 -0.00567
66.75 -0.00422
66.8 -0.00647
66.85 -0.00882
66.9 -0.0126
66.95 -0.01618
67 -0.01346
67.05 -0.01405
67.1 -0.0097
67.15 -0.00504
67.2 -0.00021
67.25 -0.00022
67.3 0.00008
67.35 -0.00351
67.4 -0.00952
67.45 -0.00963
67.5 -0.01052
67.55 -0.00725
67.6 -0.00458
67.65 -0.00301
67.7 0.00112
67.75 -0.00075
67.8 -0.00367
67.85 -0.00067
67.9 0.00095
67.95 0.00496
68 0.01004
68.05 0.00854
68.1 0.00781
68.15 0.00388
68.2 -0.00285
68.25 -0.01085
68.3 -0.01261
68.35 -0.01508
68.4 -0.01872
68.45 -0.02195
68.5 -0.02182
68.55 -0.02247
68.6 -0.02524
68.65 -0.02174
68.7 -0.01903
68.75 -0.01774
68.8 -0.01734
68.85 -0.01781
68.9 -0.01797
68.95 -0.01808
69 -0.01392
69.05 -0.00787
69.1 -0.00133
69.15 0.00488
69.2 0.00932
69.25 0.0097
69.3 0.00919
69.35 0.00983
69.4 0.01263
69.45 0.01256
69.5 0.01384
69.55 0.01427
69.6 0.01392
69.65 0.01135
69.7 0.0077
69.75 0.00958
69.8 0.01077
69.85 0.01358
69.9 0.01751
69.95 0.01996
70 0.018
70.05 0.01847
70.1 0.01361
70.15 0.00525
70.2 -0.00473
70.25 -0.00881
70.3 -0.00976
70.35 -0.01037
70.4 -0.01185
70.45 -0.01414
70.5 -0.01473
70.55 -0.01565
70.6 -0.01151
70.65 -0.00793
70.7 -0.00704
70.75 -0.00839
70.8 -0.00974
70.85 -0.01114
70.9 -0.01065
70.95 -0.01042
71 -0.0056
71.05 0.00158
71.1 0.00592
71.15 0.00436
71.2 -0.00033
71.25 -0.00744
71.3 -0.01398
71.35 -0.01249
71.4 -0.01296
71.45 -0.01078
71.5 -0.00922
71.55 -0.00397
71.6 -0.00428
71.65 -0.00101
71.7 -0.00004
71.75 0.00385
71.8 0.00593
71.85 0.00536
71.9 0.00457
71.95 0.0002
72 0.00127
72.05 0.00016
72.1 -0.00006
72.15 0.00174
72.2 0.00611
72.25 0.00513
72.3 0.00495
72.35 0.00596
72.4 0.00476
72.45 0.00382
72.5 0.00293
72.55 0.00505
72.6 0.00262
72.65 0.00356
72.7 0.00785
72.75 0.01236
72.8 0.01797
72.85 0.02225
72.9 0.02433
72.95 0.02408
73 0.02264
73.05 0.01857
73.1 0.01363
73.15 0.0092
73.2 0.006
73.25 0.00052
73.3 -0.00206
73.35 -0.00415
73.4 -0.00344
73.45 -0.00091
73.5 -0.00322
73.55 -0.00414
73.6 -0.00364
73.65 -0.00042
73.7 0.00065
73.75 -0.00113
73.8 0.00171
73.85 0.00046
73.9 0.00077
73.95 0.00229
74 0.00474
74.05 0.00801
74.1 0.00939
74.15 0.00691
74.2 0.00044
74.25 -0.0029
74.3 -0.00361
74.35 -0.00407
74.4 -0.00696
74.45 -0.00548
74.5 -0.00532
74.55 -0.00323
74.6 0.00035
74.65 -0.0011
74.7 -0.00054
74.75 -0.00153
74.8 -0.00653
74.85 -0.00972
74.9 -0.00635
74.95 -0.00699
75 -0.00736
75.05 -0.00606
75.1 -0.00724
75.15 -0.00723
75.2 -0.00346
75.25 -0.00426
75.3 -0.00617
75.35 -0.00904
75.4 -0.00663
75.45 0.00003
75.5 0.00678
75.55 0.01182
75.6 0.01237
75.65 0.01227
75.7 0.01479
75.75 0.01811
75.8 0.01657
75.85 0.00968
75.9 0.00588
75.95 0.00411
76 0.00352
76.05 0.00461
76.1 0.0008
76.15 -0.00058
76.2 -0.00018
76.25 0.00443
76.3 0.00258
76.35 -0.00077
76.4 -0.00423
76.45 -0.00514
76.5 -0.00614
76.55 -0.00797
76.6 -0.00787
76.65 -0.01038
76.7 -0.01367
76.75 -0.01845
76.8 -0.02439
76.85 -0.02422
76.9 -0.02416
76.95 -0.02605
77 -0.02884
77.05 -0.0238
77.1 -0.01691
77.15 -0.01415
77.2 -0.0149
77.25 -0.01032
77.3 -0.00424
77.35 0.00415
77.4 0.01307
77.45 0.01397
77.5 0.01615
77.55 0.01547
77.6 0.01445
77.65 0.01355
77.7 0.00958
77.75 0.0042
77.8 0.0049
77.85 0.00184
77.9 -0.00209
77.95 -0.00629
78 -0.00381
78.05 0.00038
78.1 0.00656
78.15 0.00973
78.2 0.00698
78.25 0.00649
78.3 0.00838
78.35 0.00858
78.4 0.00854
78.45 0.00483
78.5 0.00371
78.55 0.00626
78.6 0.01109
78.65 0.01163
78.7 0.01181
78.75 0.01244
78.8 0.00938
78.85 0.00249
78.9 0.00098
78.95 0.00213
79 -0.00088
79.05 -0.0013
79.1 -0.00443
79.15 -0.0078
79.2 -0.01307
79.25 -0.01806
79.3 -0.01874
79.35 -0.01828
79.4 -0.0126
79.45 -0.0114
79.5 -0.00629
79.55 -0.0001
79.6 0.00816
79.65 0.01306
79.7 0.01091
79.75 0.00817
79.8 0.00382
79.85 0.0034
79.9 0.00065
79.95 -0.00422
80 -0.00827
80.05 -0.00639
80.1 -0.00784
80.15 -0.0046
80.2 -0.00479
80.25 0.00002
80.3 0.00723
80.35 0.01118
80.4 0.01034
80.45 0.00558
80.5 0.00628
80.55 0.00325
80.6 -0.00253
80.65 -0.00928
80.7 -0.01494
80.75 -0.01256
80.8 -0.00618
80.85 0.00295
80.9 0.00862
80.95 0.0131
81 0.01459
81.05 0.01172
81.1 0.00493
81.15 -0.00227
81.2 -0.00819
81.25 -0.01294
81.3 -0.01869
81.35 -0.0161
81.4 -0.01289
81.45 -0.00844
81.5 -0.00854
81.55 -0.00817
81.6 -0.00733
81.65 -0.00394
81.7 0.00072
81.75 0.0034
81.8 0.00248
81.85 0.00316
81.9 -0.00061
81.95 -0.00682
82 -0.00886
82.05 -0.00941
82.1 -0.012
82.15 -0.00777
82.2 -0.00722
82.25 -0.00688
82.3 -0.00394
82.35 -0.00366
82.4 -0.00153
82.45 -0.00049
82.5 0.0025
82.55 0.00148
82.6 0.00438
82.65 0.00499
82.7 0.00514
82.75 0.00178
82.8 0.00193
82.85 -0.00082
82.9 -0.00068
82.95 -0.00023
83 0.00215
83.05 0.00485
83.1 0.00704
83.15 0.01266
83.2 0.01126
83.25 0.01376
83.3 0.01107
83.35 0.01234
83.4 0.01349
83.45 0.01079
83.5 0.00554
83.55 0.00066
83.6 -0.00371
83.65 -0.00557
83.7 -0.00551
83.75 -0.00749
83.8 -0.0111
83.85 -0.01635
83.9 -0.01472
83.95 -0.01359
84 -0.01169
84.05 -0.00755
84.1 -0.00494
84.15 0.00198
84.2 0.00444
84.25 0.00311
84.3 0.00381
84.35 0.00866
84.4 0.00927
84.45 0.00866
84.5 0.00644
84.55 0.00008
84.6 -0.00405
84.65 -0.0093
84.7 -0.00927
84.75 -0.00591
84.8 -0.00338
84.85 -0.00068
84.9 0.00181
84.95 -0.00014
85 0.00189
85.05 0.00385
85.1 0.00841
85.15 0.01255
85.2 0.01171
85.25 0.01435
85.3 0.01311
85.35 0.01303
85.4 0.00787
85.45 0.00716
85.5 0.00465
85.55 0.00272
85.6 0.00455
85.65 0.00518
85.7 0.00413
85.75 0.00247
85.8 0.00383
85.85 0.00129
85.9 0.00374
85.95 0.0058
86 0.00806
86.05 0.00716
86.1 0.00222
86.15 -0.00208
86.2 -0.00558
86.25 -0.00506
86.3 -0.00236
86.35 -0.00358
86.4 -0.0018
86.45 0.00188
86.5 0.00247
86.55 0.00457
86.6 0.0061
86.65 0.00363
86.7 0.00001
86.75 -0.00154
86.8 -0.00154
86.85 -0.00002
86.9 0.00171
86.95 0.00715
87 0.01349
87.05 0.01482
87.1 0.01671
87.15 0.01799
87.2 0.01741
87.25 0.01207
87.3 0.00859
87.35 0.00752
87.4 0.00585
87.45 0.00104
87.5 -0.00091
87.55 0.00006
87.6 -0.00039
87.65 0.00174
87.7 -0.0017
87.75 0.00062
87.8 0.00184
87.85 0.00064
87.9 0.00387
87.95 0.00553
88 0.00339
88.05 0.00276
88.1 -0.00092
88.15 -0.00488
88.2 -0.00505
88.25 -0.00461
88.3 -0.00613
88.35 -0.01078
88.4 -0.01386
88.45 -0.01269
88.5 -0.01328
88.55 -0.01174
88.6 -0.00664
88.65 0.00154
88.7 0.0107
88.75 0.01702
88.8 0.0233
88.85 0.0207
88.9 0.02122
88.95 0.01547
89 0.00624
89.05 -0.00214
89.1 -0.0076
89.15 -0.01432
89.2 -0.01627
89.25 -0.01342
89.3 -0.01
89.35 -0.00944
89.4 -0.01287
89.45 -0.01082
89.5 -0.01145
89.55 -0.00949
89.6 -0.00736
89.65 -0.00826
89.7 -0.00713
89.75 -0.0082
89.8 -0.00868
89.85 -0.0095
89.9 -0.01275
89.95 -0.0171
90 -0.01943
90.05 -0.01485
90.1 -0.01138
90.15 -0.01064
90.2 -0.00693
90.25 -0.00632
90.3 -0.00734
90.35 -0.00851
90.4 -0.0074
90.45 -0.00946
90.5 -0.01345
90.55 -0.01259
90.6 -0.01146
90.65 -0.00589
90.7 -0.00421
90.75 -0.00544
90.8 -0.00231
90.85 0.00321
90.9 0.00914
90.95 0.01522
91 0.01744
91.05 0.01431
91.1 0.00964
91.15 0.00975
91.2 0.01043
91.25 0.01141
91.3 0.01054
91.35 0.00567
91.4 0.00146
91.45 -0.00232
91.5 0.00006
91.55 0.00149
91.6 0.0029
91.65 -0.00046
91.7 -0.00336
91.75 -0.00498
91.8 -0.005
91.85 -0.00873
91.9 -0.01339
91.95 -0.01719
92 -0.02117
92.05 -0.01783
92.1 -0.01863
92.15 -0.0169
92.2 -0.01234
92.25 -0.00587
92.3 -0.00038
92.35 0.00644
92.4 0.00587
92.45 0.00387
92.5 0.00512
92.55 0.00761
92.6 0.01093
92.65 0.01662
92.7 0.01931
92.75 0.01627
92.8 0.0126
92.85 0.01193
92.9 0.01243
92.95 0.00815
93 0.00432
93.05 -0.0019
93.1 -0.00644
93.15 -0.00913
93.2 -0.00592
93.25 -0.0006
93.3 0.0067
93.35 0.01283
93.4 0.0144
93.45 0.01461
93.5 0.01803
93.55 0.01692
93.6 0.01136
93.65 0.00709
93.7 0.00047
93.75 -0.00287
93.8 -0.00623
93.85 -0.00633
93.9 -0.00755
93.95 -0.00581
94 -0.00037
94.05 0.00643
94.1 0.01222
94.15 0.01844
94.2 0.02424
94.25 0.02415
94.3 0.0256
94.35 0.02258
94.4 0.01653
94.45 0.01403
94.5 0.01403
94.55 0.00952
94.6 0.00372
94.65 -0.00427
94.7 -0.01326
94.75 -0.02027
94.8 -0.02288
94.85 -0.02107
94.9 -0.01848
94.95 -0.01852
95 -0.01735
95.05 -0.01966
95.1 -0.02271
95.15 -0.01976
95.2 -0.0173
95.25 -0.00991
95.3 -0.00517
95.35 -0.00531
95.4 -0.00321
95.45 -0.00415
95.5 -0.00186
95.55 -0.00306
95.6 -0.00023
95.65 -0.00227
95.7 -0.0013
95.75 0.00403
95.8 0.0081
95.85 0.0062
95.9 -0.00006
95.95 -0.00823
96 -0.00888
96.05 -0.01024
96.1 -0.00616
96.15 -0.0019
96.2 0.00347
96.25 0.00383
96.3 0.00641
96.35 0.00746
96.4 0.00826
96.45 0.01046
96.5 0.00789
96.55 0.00423
96.6 0.00462
96.65 0.00118
96.7 -0.00142
96.75 0.00095
96.8 0.00377
96.85 0.00912
96.9 0.00801
96.95 0.00848
97 0.00878
97.05 0.01092
97.1 0.01011
97.15 0.00868
97.2 0.00587
97.25 0.00199
97.3 -0.0033
97.35 -0.00815
97.4 -0.01095
97.45 -0.00899
97.5 -0.00263
97.55 0.00164
97.6 0.00607
97.65 0.00793
97.7 0.00851
97.75 0.01259
97.8 0.00949
97.85 0.00535
97.9 0.00549
97.95 0.00778
98 0.0038
98.05 0.00141
98.1 -0.00083
98.15 -0.00064
98.2 0.00046
98.25 -0.00014
98.3 0.00077
98.35 0.00533
98.4 0.00567
98.45 0.00484
98.5 -0.00001
98.55 -0.00046
98.6 -0.00203
98.65 0.00012
98.7 0.00254
98.75 0.00823
98.8 0.01077
98.85 0.00906
98.9 0.00764
98.95 0.00226
99 -0.00603
99.05 -0.00795
99.1 -0.00723
99.15 -0.00454
99.2 -0.00682
99.25 -0.00747
99.3 -0.00964
99.35 -0.01464
99.4 -0.02023
99.45 -0.0228
99.5 -0.02204
99.55 -0.01599
99.6 -0.01391
99.65 -0.01117
99.7 -0.00877
99.75 -0.0079
99.8 -0.00971
99.85 -0.00785
99.9 -0.00804
99.95 -0.00886
