0 0
0.05 0.00548
0.1 0.01247
0.15 0.01803
0.2 0.02022
0.25 0.02907
0.3 0.03842
0.35 0.04499
0.4 0.04695
0.45 0.048
0.5 0.04889
0.55 0.04894
0.6 0.0516
0.65 0.04999
0.7 0.05155
0.75 0.04792
0.8 0.04227
0.85 0.03677
0.9 0.03759
0.95 0.03809
1 0.04068
1.05 0.04438
1.1 0.04991
1.15 0.0488
1.2 0.04567
1.25 0.04153
1.3 0.04358
1.35 0.04569
1.4 0.04361
1.45 0.0382
1.5 0.03714
1.55 0.03251
1.6 0.02562
1.65 0.0191
1.7 0.01532
1.75 0.01669
1.8 0.01891
1.85 0.02062
1.9 0.02373
1.95 0.0232
2 0.02316
2.05 0.0201
2.1 0.01803
2.15 0.01408
2.2 0.01668
2.25 0.02355
2.3 0.02642
2.35 0.02498
2.4 0.02337
2.45 0.02394
2.5 0.02502
2.55 0.02651
2.6 0.02821
2.65 0.03086
2.7 0.0338
2.75 0.03155
2.8 0.02732
2.85 0.02824
2.9 0.03081
2.95 0.02871
3 0.02625
3.05 0.02111
3.1 0.02303
3.15 0.02479
3.2 0.02911
3.25 0.03488
3.3 0.03742
3.35 0.03939
3.4 0.03859
3.45 0.03394
3.5 0.03296
3.55 0.03365
3.6 0.03216
3.65 0.02639
3.7 0.018
3.75 0.01465
3.8 0.00934
3.85 0.0036
3.9 -0.00145
3.95 -0.00693
4 -0.00639
4.05 0.00003
4.1 0.00404
4.15 0.00789
4.2 0.00994
4.25 0.00815
4.3 0.00832
4.35 0.00387
4.4 0.0022
4.45 -0.00021
4.5 -0.00089
4.55 -0.00452
4.6 -0.01062
4.65 -0.02039
4.7 -0.03202
4.75 -0.05208
4.8 -0.07257
4.85 -0.10286
4.9 -0.13925
4.95 -0.17644
5 -0.21929
5.05 -0.26678
5.1 -0.3215
5.15 -0.37877
5.2 -0.44065
5.25 -0.50436
5.3 -0.5697
5.35 -0.63709
5.4 -0.70935
5.45 -0.7825
5.5 -0.85891
5.55 -0.93763
5.6 -1.02187
5.65 -1.10272
5.7 -1.18539
5.75 -1.26236
5.8 -1.34115
5.85 -1.41162
5.9 -1.47466
5.95 -1.53879
6 -1.59571
6.05 -1.64972
6.1 -1.69948
6.15 -1.74422
6.2 -1.77685
6.25 -1.79847
6.3 -1.81134
6.35 -1.82292
6.4 -1.82718
6.45 -1.82866
6.5 -1.82579
6.55 -1.81178
6.6 -1.78843
6.65 -1.75925
6.7 -1.71719
6.75 -1.66397
6.8 -1.60457
6.85 -1.5334
6.9 -1.45085
6.95 -1.35521
7 -1.24497
7.05 -1.13103
7.1 -1.00604
7.15 -0.87014
7.2 -0.72744
7.25 -0.5803
7.3 -0.43105
7.35 -0.27874
7.4 -0.12767
7.45 0.023
7.5 0.16893
7.55 0.31608
7.6 0.46047
7.65 0.59951
7.7 0.73563
7.75 0.85755
7.8 0.96956
7.85 1.0743
7.9 1.17489
7.95 1.26687
8 1.34375
8.05 1.41199
8.1 1.46838
8.15 1.51723
8.2 1.56223
8.25 1.6025
8.3 1.63771
8.35 1.66395
8.4 1.68001
8.45 1.68454
8.5 1.6801
8.55 1.67863
8.6 1.67263
8.65 1.65969
8.7 1.64806
8.75 1.63169
8.8 1.61156
8.85 1.59517
8.9 1.57461
8.95 1.55144
9 1.53305
9.05 1.51311
9.1 1.49296
9.15 1.47549
9.2 1.45699
9.25 1.43448
9.3 1.41042
9.35 1.38829
9.4 1.3668
9.45 1.34191
9.5 1.32091
9.55 1.30209
9.6 1.2824
9.65 1.25706
9.7 1.23427
9.75 1.20595
9.8 1.18042
9.85 1.15569
9.9 1.12848
9.95 1.1016
10 1.07475
10.05 1.04627
10.1 1.01949
10.15 0.98883
10.2 0.96053
10.25 0.93476
10.3 0.90329
10.35 0.87001
10.4 0.83955
10.45 0.80722
10.5 0.77289
10.55 0.73821
10.6 0.70166
10.65 0.67022
10.7 0.64237
10.75 0.6145
10.8 0.58847
10.85 0.56184
10.9 0.53751
10.95 0.51126
11 0.47842
11.05 0.44699
11.1 0.41515
11.15 0.38566
11.2 0.35724
11.25 0.32817
11.3 0.29528
11.35 0.26001
11.4 0.22958
11.45 0.20387
11.5 0.18181
11.55 0.16181
11.6 0.13804
11.65 0.11702
11.7 0.09073
11.75 0.0607
11.8 0.03714
11.85 0.01279
11.9 -0.00946
11.95 -0.03323
12 -0.05865
12.05 -0.07744
12.1 -0.0903
12.15 -0.10413
12.2 -0.11415
12.25 -0.13013
12.3 -0.1417
12.35 -0.15219
12.4 -0.16366
12.45 -0.1739
12.5 -0.18618
12.55 -0.2007
12.6 -0.21432
12.65 -0.22444
12.7 -0.22867
12.75 -0.23393
12.8 -0.23957
12.85 -0.24495
12.9 -0.25222
12.95 -0.26208
13 -0.26546
13.05 -0.2715
13.1 -0.27408
13.15 -0.27552
13.2 -0.27325
13.25 -0.27239
13.3 -0.27439
13.35 -0.27759
13.4 -0.28344
13.45 -0.28988
13.5 -0.28876
13.55 -0.28949
13.6 -0.28619
13.65 -0.27826
13.7 -0.26999
13.75 -0.26232
13.8 -0.26112
13.85 -0.2593
13.9 -0.25464
13.95 -0.24717
14 -0.24296
14.05 -0.24264
14.1 -0.24091
14.15 -0.24058
14.2 -0.23843
14.25 -0.23896
14.3 -0.24225
14.35 -0.24168
14.4 -0.24125
14.45 -0.23852
14.5 -0.23145
14.55 -0.22521
14.6 -0.21802
14.65 -0.21179
14.7 -0.2079
14.75 -0.21007
14.8 -0.21555
14.85 -0.2138
14.9 -0.21204
14.95 -0.20898
15 -0.20971
15.05 -0.20499
15.1 -0.19876
15.15 -0.19663
15.2 -0.19389
15.25 -0.19306
15.3 -0.19441
15.35 -0.19012
15.4 -0.18137
15.45 -0.17045
15.5 -0.16767
15.55 -0.16328
15.6 -0.16384
15.65 -0.16836
15.7 -0.16598
15.75 -0.16595
15.8 -0.16148
15.85 -0.15404
15.9 -0.14993
15.95 -0.14941
16 -0.1486
16.05 -0.1451
16.1 -0.14178
16.15 -0.14113
16.2 -0.13769
16.25 -0.13459
16.3 -0.13254
16.35 -0.13254
16.4 -0.13016
16.45 -0.1292
16.5 -0.12446
16.55 -0.12284
16.6 -0.11996
16.65 -0.1194
16.7 -0.12028
16.75 -0.11653
16.8 -0.11762
16.85 -0.11858
16.9 -0.11595
16.95 -0.11318
17 -0.10689
17.05 -0.10736
17.1 -0.10621
17.15 -0.10123
17.2 -0.09996
17.25 -0.10122
17.3 -0.10368
17.35 -0.10603
17.4 -0.10961
17.45 -0.11005
17.5 -0.10856
17.55 -0.10977
17.6 -0.1046
17.65 -0.09924
17.7 -0.09784
17.75 -0.09919
17.8 -0.09606
17.85 -0.09527
17.9 -0.09347
17.95 -0.08653
18 -0.08436
18.05 -0.08266
18.1 -0.07886
18.15 -0.07345
18.2 -0.07221
18.25 -0.0669
18.3 -0.06061
18.35 -0.05694
18.4 -0.05248
18.45 -0.05297
18.5 -0.05403
18.55 -0.0529
18.6 -0.05234
18.65 -0.05396
18.7 -0.05219
18.75 -0.05077
18.8 -0.04887
18.85 -0.04881
18.9 -0.04583
18.95 -0.04096
19 -0.04207
19.05 -0.04164
19.1 -0.04263
19.15 -0.04019
19.2 -0.03843
19.25 -0.0404
19.3 -0.0435
19.35 -0.04584
19.4 -0.05191
19.45 -0.057
19.5 -0.06386
19.55 -0.0695
19.6 -0.07342
19.65 -0.07006
19.7 -0.06594
19.75 -0.06635
19.8 -0.06769
19.85 -0.06243
19.9 -0.05296
19.95 -0.04232
20 -0.03821
20.05 -0.03599
20.1 -0.03262
20.15 -0.0344
20.2 -0.03658
20.25 -0.03885
20.3 -0.03923
20.35 -0.0424
20.4 -0.04264
20.45 -0.04433
20.5 -0.04734
20.55 -0.04887
20.6 -0.04855
20.65 -0.0516
20.7 -0.05575
20.75 -0.05326
20.8 -0.05077
20.85 -0.04346
20.9 -0.04047
20.95 -0.04016
21 -0.03914
21.05 -0.03843
21.1 -0.03781
21.15 -0.03445
21.2 -0.02969
21.25 -0.02602
21.3 -0.02792
21.35 -0.02881
21.4 -0.03177
21.45 -0.03321
21.5 -0.03098
21.55 -0.02669
21.6 -0.02377
21.65 -0.02643
21.7 -0.02346
21.75 -0.01814
21.8 -0.0158
21.85 -0.01862
21.9 -0.01794
21.95 -0.0213
22 -0.02067
22.05 -0.01649
22.1 -0.01826
22.15 -0.01973
22.2 -0.01986
22.25 -0.01897
22.3 -0.01519
22.35 -0.0173
22.4 -0.016
22.45 -0.01902
22.5 -0.02497
22.55 -0.02526
22.6 -0.0239
22.65 -0.02565
22.7 -0.0237
22.75 -0.01734
22.8 -0.01434
22.85 -0.0155
22.9 -0.01955
22.95 -0.02028
23 -0.01629
23.05 -0.01667
23.1 -0.01397
23.15 -0.01512
23.2 -0.0177
23.25 -0.01472
23.3 -0.01563
23.35 -0.0188
23.4 -0.01642
23.45 -0.01687
23.5 -0.0176
23.55 -0.0171
23.6 -0.01862
23.65 -0.01612
23.7 -0.01614
23.75 -0.01897
23.8 -0.02322
23.85 -0.02394
23.9 -0.02575
23.95 -0.02736
24 -0.02445
24.05 -0.01761
24.1 -0.01603
24.15 -0.01045
24.2 -0.00827
24.25 -0.00505
24.3 -0.0017
24.35 0.00027
24.4 -0.00188
24.45 0.00071
24.5 0.00521
24.55 0.00813
24.6 0.01152
24.65 0.01437
24.7 0.01258
24.75 0.01097
24.8 0.01085
24.85 0.01112
24.9 0.00952
24.95 0.00496
25 0.00469
25.05 0.00079
25.1 -0.00044
25.15 0.0002
25.2 -0.00471
25.25 -0.00645
25.3 -0.0072
25.35 -0.00747
25.4 -0.00552
25.45 -0.0061
25.5 -0.0093
25.55 -0.01475
25.6 -0.02003
25.65 -0.02349
25.7 -0.02643
25.75 -0.0257
25.8 -0.02011
25.85 -0.0155
25.9 -0.01551
25.95 -0.0183
26 -0.0226
26.05 -0.01994
26.1 -0.02143
26.15 -0.02047
26.2 -0.02031
26.25 -0.02344
26.3 -0.02653
26.35 -0.0249
26.4 -0.0184
26.45 -0.01454
26.5 -0.00972
26.55 -0.00181
26.6 0.00286
26.65 0.00557
26.7 0.00716
26.75 0.01148
26.8 0.01288
26.85 0.01332
26.9 0.01165
26.95 0.0086
27 0.0039
27.05 0.00428
27.1 0.0079
27.15 0.00962
27.2 0.00597
27.25 0.00493
27.3 0.00327
27.35 0.00444
27.4 0.00567
27.45 0.00894
27.5 0.00744
27.55 0.00143
27.6 -0.00586
27.65 -0.00875
27.7 -0.00859
27.75 -0.00523
27.8 -0.00663
27.85 -0.01278
27.9 -0.01937
27.95 -0.02449
28 -0.02422
28.05 -0.02852
28.1 -0.03535
28.15 -0.03663
28.2 -0.03953
28.25 -0.04016
28.3 -0.04808
28.35 -0.05586
28.4 -0.06616
28.45 -0.07823
28.5 -0.08927
28.55 -0.10345
28.6 -0.1195
28.65 -0.14054
28.7 -0.15998
28.75 -0.17562
28.8 -0.19628
28.85 -0.22034
28.9 -0.24709
28.95 -0.27783
29 -0.30745
29.05 -0.33778
29.1 -0.36605
29.15 -0.40003
29.2 -0.43709
29.25 -0.47162
29.3 -0.5079
29.35 -0.54923
29.4 -0.59037
29.45 -0.62736
29.5 -0.66758
29.55 -0.70702
29.6 -0.74361
29.65 -0.77488
29.7 -0.80053
29.75 -0.82342
29.8 -0.84238
29.85 -0.85661
29.9 -0.86676
29.95 -0.87168
30 -0.86918
30.05 -0.86333
30.1 -0.85032
30.15 -0.83018
30.2 -0.80801
30.25 -0.78405
30.3 -0.75049
30.35 -0.71329
30.4 -0.67347
30.45 -0.62747
30.5 -0.57864
30.55 -0.52633
30.6 -0.47289
30.65 -0.41223
30.7 -0.34504
30.75 -0.27589
30.8 -0.20571
30.85 -0.13605
30.9 -0.07188
30.95 -0.01131
31 0.04727
31.05 0.10264
31.1 0.15455
31.15 0.20094
31.2 0.24908
31.25 0.29294
31.3 0.33049
31.35 0.36784
31.4 0.399
31.45 0.43229
31.5 0.46263
31.55 0.49255
31.6 0.5193
31.65 0.54148
31.7 0.56249
31.75 0.58309
31.8 0.60165
31.85 0.61792
31.9 0.6257
31.95 0.63496
32 0.64289
32.05 0.64442
32.1 0.64347
32.15 0.64754
32.2 0.64951
32.25 0.6565
32.3 0.66693
32.35 0.67121
32.4 0.67068
32.45 0.6707
32.5 0.67622
32.55 0.68429
32.6 0.68657
32.65 0.68901
32.7 0.6892
32.75 0.6827
32.8 0.67378
32.85 0.66766
32.9 0.66285
32.95 0.65746
33 0.64615
33.05 0.63653
33.1 0.62511
33.15 0.60908
33.2 0.59016
33.25 0.57626
33.3 0.56082
33.35 0.54852
33.4 0.534
33.45 0.52235
33.5 0.50659
33.55 0.49338
33.6 0.4838
33.65 0.47598
33.7 0.46837
33.75 0.45926
33.8 0.44251
33.85 0.42418
33.9 0.40617
33.95 0.3849
34 0.36453
34.05 0.3435
34.1 0.31968
34.15 0.29739
34.2 0.28078
34.25 0.26101
34.3 0.24713
34.35 0.23089
34.4 0.22002
34.45 0.20589
34.5 0.19713
34.55 0.19032
34.6 0.18061
34.65 0.17364
34.7 0.16771
34.75 0.15567
34.8 0.14288
34.85 0.13033
34.9 0.12089
34.95 0.11261
35 0.10322
35.05 0.09372
35.1 0.08273
35.15 0.0685
35.2 0.05335
35.25 0.03907
35.3 0.02637
35.35 0.01433
35.4 0.00678
35.45 0.00222
35.5 0.00074
35.55 -0.00087
35.6 -0.00353
35.65 -0.00887
35.7 -0.01428
35.75 -0.0249
35.8 -0.03698
35.85 -0.04439
35.9 -0.04774
35.95 -0.05317
36 -0.05814
36.05 -0.06462
36.1 -0.06726
36.15 -0.07243
36.2 -0.08024
36.25 -0.08556
36.3 -0.09406
36.35 -0.09948
36.4 -0.09901
36.45 -0.103
36.5 -0.1032
36.55 -0.106
36.6 -0.10402
36.65 -0.10224
36.7 -0.10352
36.75 -0.10697
36.8 -0.11117
36.85 -0.11306
36.9 -0.11891
36.95 -0.11975
37 -0.11963
37.05 -0.12383
37.1 -0.12877
37.15 -0.12828
37.2 -0.12516
37.25 -0.12351
37.3 -0.12116
37.35 -0.11774
37.4 -0.11204
37.45 -0.11118
37.5 -0.10881
37.55 -0.11095
37.6 -0.11554
37.65 -0.12155
37.7 -0.1254
37.75 -0.12622
37.8 -0.1237
37.85 -0.12309
37.9 -0.12198
37.95 -0.12192
38 -0.11757
38.05 -0.10954
38.1 -0.10497
38.15 -0.10495
38.2 -0.10712
38.25 -0.10749
38.3 -0.10247
38.35 -0.09519
38.4 -0.09446
38.45 -0.0906
38.5 -0.08632
38.55 -0.08477
38.6 -0.08871
38.65 -0.09239
38.7 -0.09384
38.75 -0.09221
38.8 -0.0884
38.85 -0.08077
38.9 -0.07347
38.95 -0.07115
39 -0.06819
39.05 -0.06908
39.1 -0.06916
39.15 -0.07144
39.2 -0.0729
39.25 -0.07125
39.3 -0.0733
39.35 -0.06995
39.4 -0.06641
39.45 -0.06266
39.5 -0.06387
39.55 -0.06712
39.6 -0.06673
39.65 -0.06749
39.7 -0.06975
39.75 -0.074
39.8 -0.07204
39.85 -0.06896
39.9 -0.06662
39.95 -0.064
40 -0.06066
40.05 -0.06151
40.1 -0.06199
40.15 -0.05768
40.2 -0.05557
40.25 -0.05186
40.3 -0.05062
40.35 -0.05342
40.4 -0.05161
40.45 -0.05229
40.5 -0.05682
40.55 -0.05633
40.6 -0.05513
40.65 -0.05017
40.7 -0.04557
40.75 -0.04128
40.8 -0.04118
40.85 -0.03807
40.9 -0.03553
40.95 -0.03184
41 -0.03059
41.05 -0.0333
41.1 -0.03912
41.15 -0.04349
41.2 -0.04333
41.25 -0.04632
41.3 -0.0432
41.35 -0.03748
41.4 -0.03676
41.45 -0.03611
41.5 -0.03141
41.55 -0.02571
41.6 -0.02065
41.65 -0.02348
41.7 -0.02977
41.75 -0.03465
41.8 -0.0397
41.85 -0.03937
41.9 -0.04228
41.95 -0.04766
42 -0.04627
42.05 -0.04434
42.1 -0.04619
42.15 -0.04297
42.2 -0.04429
42.25 -0.04529
42.3 -0.04816
42.35 -0.05033
42.4 -0.04988
42.45 -0.04321
42.5 -0.04154
42.55 -0.04379
42.6 -0.04081
42.65 -0.03418
42.7 -0.02862
42.75 -0.02025
42.8 -0.01904
42.85 -0.01631
42.9 -0.01902
42.95 -0.01722
43 -0.01919
43.05 -0.02254
43.1 -0.02376
43.15 -0.01967
43.2 -0.01271
43.25 -0.00949
43.3 -0.01265
43.35 -0.01656
43.4 -0.01502
43.45 -0.0118
43.5 -0.01188
43.55 -0.01296
43.6 -0.01185
43.65 -0.01491
43.7 -0.01803
43.75 -0.02454
43.8 -0.02352
43.85 -0.02562
43.9 -0.02543
43.95 -0.02484
44 -0.02056
44.05 -0.01401
44.1 -0.01112
44.15 -0.01243
44.2 -0.01124
44.25 -0.00915
44.3 -0.01169
44.35 -0.01058
44.4 -0.01079
44.45 -0.01124
44.5 -0.01398
44.55 -0.01693
44.6 -0.0197
44.65 -0.02043
44.7 -0.01595
44.75 -0.01268
44.8 -0.01211
44.85 -0.0072
44.9 -0.00737
44.95 -0.00595
45 -0.00775
45.05 -0.01024
45.1 -0.00926
45.15 -0.00629
45.2 -0.00289
45.25 0.00266
45.3 0.00109
45.35 0.00328
45.4 0.00125
45.45 0.00196
45.5 0.00387
45.55 0.00541
45.6 0.0075
45.65 0.01013
45.7 0.01073
45.75 0.00971
45.8 0.00681
45.85 0.00603
45.9 0.00526
45.95 0.00508
46 0.00684
46.05 0.00881
46.1 0.00635
46.15 0.00497
46.2 0.00106
46.25 -0.00482
46.3 -0.01369
46.35 -0.01561
46.4 -0.01787
46.45 -0.01813
46.5 -0.01613
46.55 -0.01175
46.6 -0.00608
46.65 -0.00249
46.7 -0.00268
46.75 -0.00577
46.8 -0.00798
46.85 -0.01203
46.9 -0.01724
46.95 -0.01895
47 -0.02141
47.05 -0.02488
47.1 -0.03034
47.15 -0.02907
47.2 -0.03018
47.25 -0.03176
47.3 -0.02669
47.35 -0.0177
47.4 -0.00867
47.45 -0.0053
47.5 -0.00466
47.55 -0.00828
47.6 -0.01106
47.65 -0.01435
47.7 -0.01715
47.75 -0.01742
47.8 -0.01285
47.85 -0.00953
47.9 -0.00334
47.95 -0.00089
48 -0.00314
48.05 -0.00197
48.1 -0.00412
48.15 -0.00124
48.2 -0.00319
48.25 -0.00168
48.3 -0.00384
48.35 -0.00301
48.4 0.00101
48.45 0.00161
48.5 0.00519
48.55 0.00173
48.6 -0.00058
48.65 0.00065
48.7 0.00378
48.75 0.00804
48.8 0.01302
48.85 0.01438
48.9 0.0102
48.95 0.00565
49 -0.0018
49.05 -0.00832
49.1 -0.0156
49.15 -0.01779
49.2 -0.01872
49.25 -0.01388
49.3 -0.00951
49.35 -0.00887
49.4 -0.0098
49.45 -0.01022
49.5 -0.01324
49.55 -0.01686
49.6 -0.01519
49.65 -0.01414
49.7 -0.01598
49.75 -0.01445
49.8 -0.01356
49.85 -0.01358
49.9 -0.01142
49.95 -0.00846
50 -0.00853
50.05 -0.00642
50.1 -0.00467
50.15 0.00093
50.2 0.00578
50.25 0.0105
50.3 0.01368
50.35 0.01363
50.4 0.00951
50.45 0.00231
50.5 0.00087
50.55 -0.00527
50.6 -0.00613
50.65 -0.00955
50.7 -0.01115
50.75 -0.00852
50.8 -0.00463
50.85 -0.0008
50.9 0.00462
50.95 0.0028
51 0.00396
51.05 -0.0005
51.1 -0.00574
51.15 -0.01175
51.2 -0.01755
51.25 -0.0245
51.3 -0.02798
51.35 -0.02487
51.4 -0.02451
51.45 -0.02649
51.5 -0.02524
51.55 -0.01828
51.6 -0.01073
51.65 -0.00636
51.7 -0.00754
51.75 -0.00829
51.8 -0.00898
51.85 -0.00965
51.9 -0.01268
51.95 -0.01653
52 -0.01406
52.05 -0.01452
52.1 -0.0134
52.15 -0.01324
52.2 -0.01296
52.25 -0.0134
52.3 -0.01702
52.35 -0.01753
52.4 -0.0197
52.45 -0.02013
52.5 -0.01452
52.55 -0.01433
52.6 -0.01517
52.65 -0.00958
52.7 -0.00679
52.75 0.00013
52.8 0.00748
52.85 0.00866
52.9 0.00432
52.95 -0.0001
53 -0.00415
53.05 -0.01081
53.1 -0.01334
53.15 -0.01681
53.2 -0.02005
53.25 -0.02424
53.3 -0.02201
53.35 -0.01633
53.4 -0.01511
53.45 -0.0097
53.5 -0.0066
53.55 -0.00143
53.6 0.003
53.65 0.0074
53.7 0.0062
53.75 0.00238
53.8 -0.00066
53.85 0.00175
53.9 0.00783
53.95 0.01108
54 0.01463
54.05 0.02057
54.1 0.0248
54.15 0.02178
54.2 0.01643
54.25 0.00938
54.3 0.00852
54.35 0.00529
54.4 0.00563
54.45 0.00538
54.5 0.00632
54.55 0.01018
54.6 0.01523
54.65 0.02189
54.7 0.023
54.75 0.02247
54.8 0.01801
54.85 0.01804
54.9 0.01489
54.95 0.0083
55 0.00039
55.05 -0.00806
55.1 -0.01438
55.15 -0.01787
55.2 -0.01491
55.25 -0.0102
55.3 -0.00491
55.35 0.0017
55.4 0.00443
55.45 0.01013
55.5 0.0108
55.55 0.0092
55.6 0.00759
55.65 0.005
55.7 0.00534
55.75 0.00297
55.8 0.00211
55.85 0.00228
55.9 0.00341
55.95 0.00829
56 0.01177
56.05 0.01
56.1 0.00822
56.15 0.00254
56.2 0.00198
56.25 0.00171
56.3 -0.00197
56.35 -0.00471
56.4 -0.00742
56.45 -0.01201
56.5 -0.01181
56.55 -0.00641
56.6 -0.00379
56.65 -0.00392
56.7 -0.00783
56.75 -0.01436
56.8 -0.01918
56.85 -0.02236
56.9 -0.02132
56.95 -0.0189
57 -0.0126
57.05 -0.00493
57.1 0.00196
57.15 0.00748
57.2 0.00623
57.25 0.00877
57.3 0.00683
57.35 0.00148
57.4 -0.00412
57.45 -0.00909
57.5 -0.01505
57.55 -0.01743
57.6 -0.01615
57.65 -0.01018
57.7 -0.00514
57.75 0.00126
57.8 0.00764
57.85 0.01564
57.9 0.01948
57.95 0.0179
58 0.01262
58.05 0.0043
58.1 0.0027
58.15 0.00118
58.2 -0.00012
58.25 0.00294
58.3 0.00443
58.35 0.00687
58.4 0.00735
58.45 0.00382
58.5 0.00275
58.55 0.00363
58.6 -0.00051
58.65 -0.00033
58.7 -0.00476
58.75 -0.01105
58.8 -0.01009
58.85 -0.01185
58.9 -0.01019
58.95 -0.00841
59 -0.00441
59.05 -0.00135
59.1 -0.00314
59.15 -0.00425
59.2 -0.00063
59.25 0.00188
59.3 0.004
59.35 0.00525
59.4 0.00278
59.45 0.00442
59.5 0.00316
59.55 -0.00259
59.6 -0.00357
59.65 -0.00404
59.7 -0.00496
59.75 -0.00629
59.8 -0.00226
59.85 0.00176
59.9 0.00698
59.95 0.00978
60 0.01258
60.05 0.0161
60.1 0.01781
60.15 0.01352
60.2 0.00913
60.25 0.00646
60.3 0.00003
60.35 -0.00695
60.4 -0.00932
60.45 -0.00853
60.5 -0.00463
60.55 -0.00101
60.6 0.00265
60.65 0.00142
60.7 -0.00226
60.75 -0.00335
60.8 -0.00336
60.85 -0.00266
60.9 -0.00483
60.95 -0.00596
61 -0.00642
61.05 -0.00518
61.1 -0.00811
61.15 -0.01253
61.2 -0.01084
61.25 -0.01054
61.3 -0.01274
61.35 -0.01358
61.4 -0.01256
61.45 -0.01104
61.5 -0.01233
61.55 -0.01001
61.6 -0.00365
61.65 0.00318
61.7 0.00906
61.75 0.00841
61.8 0.00999
61.85 0.00715
61.9 0.00263
61.95 -0.0018
62 -0.00137
62.05 -0.00143
62.1 -0.00126
62.15 -0.00364
62.2 -0.00722
62.25 -0.01337
62.3 -0.01796
62.35 -0.01477
62.4 -0.00695
62.45 -0.00061
62.5 0.00383
62.55 0.0065
62.6 0.00346
62.65 0.0004
62.7 -0.00144
62.75 -0.00273
62.8 0.00064
62.85 -0.00061
62.9 0.00232
62.95 0.00288
63 -0.00094
63.05 -0.00247
63.1 -0.00394
63.15 -0.00261
63.2 -0.00086
63.25 0.00116
63.3 -0.00099
63.35 -0.00161
63.4 -0.00485
63.45 -0.00706
63.5 -0.00314
63.55 -0.00053
63.6 -0.00013
63.65 0.00447
63.7 0.00306
63.75 -0.00025
63.8 0.00058
63.85 -0.00282
63.9 -0.00189
63.95 -0.00318
64 -0.00182
64.05 0.00357
64.1 0.00469
64.15 0.00402
64.2 0.00186
64.25 -0.00131
64.3 -0.00552
64.35 -0.0102
64.4 -0.00933
64.45 -0.00708
64.5 -0.00589
64.55 -0.00054
64.6 0.00478
64.65 0.00457
64.7 0.00206
64.75 0.00449
64.8 0.00961
64.85 0.00939
64.9 0.01153
64.95 0.01313
65 0.01459
65.05 0.01873
65.1 0.02347
65.15 0.02802
65.2 0.02564
65.25 0.0195
65.3 0.0096
65.35 0.00182
65.4 -0.00431
65.45 -0.01178
65.5 -0.01585
65.55 -0.01647
65.6 -0.01866
65.65 -0.01521
65.7 -0.01451
65.75 -0.01323
65.8 -0.00752
65.85 -0.00098
65.9 0.00682
65.95 0.01388
66 0.01469
66.05 0.01166
66.1 0.00716
66.15 0.00169
66.2 -0.00488
66.25 -0.00683
66.3 -0.0066
66.35 -0.0076
66.4 -0.00623
66.45 -0.00403
66.5 -0.0044
66.55 -0.00887
66.6 -0.00768
66.65 -0.00981
66.7 -0.0096
66.75 -0.01002
66.8 -0.01263
66.85 -0.0137
66.9 -0.01216
66.95 -0.01171
67 -0.00594
67.05 -0.00241
67.1 -0.0004
67.15 -0.00148
67.2 -0.0065
67.25 -0.0093
67.3 -0.00798
67.35 -0.00689
67.4 -0.00396
67.45 -0.0061
67.5 -0.00905
67.55 -0.01248
67.6 -0.01676
67.65 -0.01587
67.7 -0.01796
67.75 -0.01525
67.8 -0.01029
67.85 -0.00642
67.9 -0.00769
67.95 -0.00566
68 -0.00214
68.05 0.001
68.1 0.00782
68.15 0.01117
68.2 0.01628
68.25 0.0157
68.3 0.01434
68.35 0.01283
68.4 0.01562
68.45 0.01518
68.5 0.01015
68.55 0.00736
68.6 0.0053
68.65 0.00011
68.7 -0.00476
68.75 -0.01181
68.8 -0.01624
68.85 -0.0173
68.9 -0.01392
68.95 -0.01085
69 -0.00755
69.05 -0.00618
69.1 0.00012
69.15 0.00325
69.2 0.00467
69.25 0.0081
69.3 0.01314
69.35 0.01547
69.4 0.01547
69.45 0.01084
69.5 0.00954
69.55 0.00928
69.6 0.0042
69.65 0.00432
69.7 0.00743
69.75 0.00679
69.8 0.00741
69.85 0.00311
69.9 -0.003
69.95 -0.00672
70 -0.00587
70.05 -0.00429
70.1 0.001
70.15 0.00522
70.2 0.00909
70.25 0.00852
70.3 0.00943
70.35 0.00969
70.4 0.0106
70.45 0.01497
70.5 0.01966
70.55 0.01977
70.6 0.0154
70.65 0.01447
70.7 0.01039
70.75 0.00221
70.8 -0.00774
70.85 -0.01671
70.9 -0.02204
70.95 -0.02006
71 -0.02037
71.05 -0.01601
71.1 -0.00974
71.15 -0.00555
71.2 -0.0028
71.25 0.00153
71.3 0.00803
71.35 0.01189
71.4 0.01078
71.45 0.01172
71.5 0.0104
71.55 0.00894
71.6 0.00721
71.65 0.00302
71.7 -0.001
71.75 0.00041
71.8 0.00021
71.85 -0
71.9 0.00378
71.95 0.00969
72 0.01147
72.05 0.00794
72.1 0.0053
72.15 0.00197
72.2 -0.00225
72.25 -0.0087
72.3 -0.00918
72.35 -0.01086
72.4 -0.00687
72.45 -0.00752
72.5 -0.00847
72.55 -0.00726
72.6 -0.00955
72.65 -0.01308
72.7 -0.01046
72.75 -0.00808
72.8 -0.00491
72.85 -0.00469
72.9 -0.00515
72.95 -0.00928
73 -0.01071
73.05 -0.00827
73.1 -0.00898
73.15 -0.00957
73.2 -0.00491
73.25 -0.00606
73.3 -0.00806
73.35 -0.00752
73.4 -0.01051
73.45 -0.00692
73.5 0.00036
73.55 0.00649
73.6 0.00898
73.65 0.01095
73.7 0.00711
73.75 0.00691
73.8 0.00727
73.85 0.00852
73.9 0.00636
73.95 0.00496
74 0.00818
74.05 0.01081
74.1 0.01161
74.15 0.01201
74.2 0.00682
74.25 -0.00082
74.3 -0.00238
74.35 -0.00093
74.4 -0.00403
74.45 -0.00679
74.5 -0.00393
74.55 0.00155
74.6 0.00376
74.65 0.00941
74.7 0.01132
74.75 0.01183
74.8 0.0136
74.85 0.01208
74.9 0.00833
74.95 0.00352
75 0.00187
75.05 -0.00111
75.1 -0.00122
75.15 0.00201
75.2 0.00163
75.25 -0.00193
75.3 -0.00823
75.35 -0.01529
75.4 -0.01683
75.45 -0.02043
75.5 -0.02025
75.55 -0.02071
75.6 -0.0215
75.65 -0.01836
75.7 -0.01374
75.75 -0.00858
75.8 -0.00128
75.85 -0.00043
75.9 0.00113
75.95 0.00243
76 0.00153
76.05 0.00547
76.1 0.00345
76.15 -0.0027
76.2 -0.00563
76.25 -0.00654
76.3 -0.01013
76.35 -0.00956
76.4 -0.00485
76.45 -0.00055
76.5 0.0055
76.55 0.01216
76.6 0.01475
76.65 0.01078
76.7 0.00597
76.75 0.00333
76.8 0.00597
76.85 0.00463
76.9 0.00725
76.95 0.00698
77 0.0083
77.05 0.01217
77.1 0.01792
77.15 0.01736
77.2 0.01412
77.25 0.01351
77.3 0.00872
77.35 0.00579
77.4 0.00692
77.45 0.00645
77.5 0.00792
77.55 0.00899
77.6 0.00492
77.65 -0.00037
77.7 0.00068
77.75 0.00017
77.8 -0.00117
77.85 -0.00353
77.9 -0.00165
77.95 0.00283
78 0.00995
78.05 0.00957
78.1 0.00406
78.15 0.00302
78.2 0.00055
78.25 -0.00573
78.3 -0.01202
78.35 -0.01434
78.4 -0.01168
78.45 -0.00538
78.5 0.00259
78.55 0.00856
78.6 0.01209
78.65 0.01
78.7 0.00998
78.75 0.00457
78.8 -0.00021
78.85 -0.00101
78.9 0.00207
78.95 0.00799
79 0.0083
79.05 0.00725
79.1 0.00878
79.15 0.0076
79.2 0.0087
79.25 0.00706
79.3 0.00549
79.35 -0.00063
79.4 -0.00574
79.45 -0.01144
79.5 -0.01589
79.55 -0.02042
79.6 -0.02073
79.65 -0.01766
79.7 -0.01711
79.75 -0.0126
79.8 -0.00898
79.85 -0.00597
79.9 -0.00221
79.95 -0.00333
80 -0.00298
80.05 -0.00481
80.1 -0.00136
80.15 0.00507
80.2 0.00469
80.25 -0.00036
80.3 -0.00112
80.35 0.00184
80.4 0.00553
80.45 0.01034
80.5 0.0149
80.55 0.01372
80.6 0.0106
80.65 0.01028
80.7 0.01156
80.75 0.01135
80.8 0.00923
80.85 0.00355
80.9 -0.00087
80.95 -0.00448
81 -0.01002
81.05 -0.01651
81.1 -0.02043
81.15 -0.02052
81.2 -0.01454
81.25 -0.0113
81.3 -0.01048
81.35 -0.00911
81.4 -0.01208
81.45 -0.01736
81.5 -0.02176
81.55 -0.02575
81.6 -0.02166
81.65 -0.01413
81.7 -0.00785
81.75 -0.00547
81.8 -0.00143
81.85 0.00301
81.9 0.00894
81.95 0.01095
82 0.01009
82.05 0.01268
82.1 0.00995
82.15 0.0108
82.2 0.00705
82.25 0.00125
82.3 0.00129
82.35 0.00309
82.4 0.00418
82.45 0.0039
82.5 0.00731
82.55 0.00717
82.6 0.00746
82.65 0.00876
82.7 0.00466
82.75 -0.00237
82.8 -0.00652
82.85 -0.01298
82.9 -0.01459
82.95 -0.01664
83 -0.01308
83.05 -0.00642
83.1 -0.00386
83.15 0.00175
83.2 0.00269
83.25 0.00101
83.3 0.00131
83.35 0.00428
83.4 0.00391
83.45 0.00241
83.5 0.00229
83.55 -0.00257
83.6 -0.00761
83.65 -0.01298
83.7 -0.01774
83.75 -0.01899
83.8 -0.01612
83.85 -0.01244
83.9 -0.0046
83.95 0.00238
84 0.00744
84.05 0.00825
84.1 0.00513
84.15 0.00393
84.2 0.00345
84.25 -0.00152
84.3 -0.00893
84.35 -0.01002
84.4 -0.01028
84.45 -0.01342
84.5 -0.01647
84.55 -0.01384
84.6 -0.01165
84.65 -0.00948
84.7 -0.0073
84.75 -0.00833
84.8 -0.01137
84.85 -0.01241
84.9 -0.0132
84.95 -0.01047
85 -0.01077
85.05 -0.0139
85.1 -0.01482
85.15 -0.01516
85.2 -0.01485
85.25 -0.00954
85.3 -0.00254
85.35 0.00084
85.4 -0.00006
85.45 0.00407
85.5 0.00603
85.55 0.00683
85.6 0.00667
85.65 0.00805
85.7 0.01011
85.75 0.0115
85.8 0.00897
85.85 0.00852
85.9 0.00546
85.95 -0.00103
86 -0.00382
86.05 -0.00621
86.1 -0.00368
86.15 -0.00295
86.2 -0.00181
86.25 -0.00084
86.3 -0.0044
86.35 -0.00507
86.4 -0.0081
86.45 -0.00762
86.5 -0.00865
86.55 -0.00637
86.6 -0.00464
86.65 -0.00072
86.7 0.00588
86.75 0.01449
86.8 0.01633
86.85 0.01409
86.9 0.01569
86.95 0.0159
87 0.01902
87.05 0.0178
87.1 0.01235
87.15 0.00392
87.2 -0.00404
87.25 -0.01077
87.3 -0.01684
87.35 -0.02179
87.4 -0.02535
87.45 -0.02134
87.5 -0.01294
87.55 -0.00515
87.6 0.00101
87.65 0.00204
87.7 0.00362
87.75 0.00597
87.8 0.00986
87.85 0.01368
87.9 0.0164
87.95 0.01866
88 0.02098
88.05 0.02528
88.1 0.02593
88.15 0.0225
88.2 0.01979
88.25 0.01676
88.3 0.00918
88.35 0.00243
88.4 -0.00206
88.45 -0.0091
88.5 -0.01255
88.55 -0.01472
88.6 -0.01087
88.65 -0.00367
88.7 -0.00227
88.75 -0.00541
88.8 -0.0089
88.85 -0.00936
88.9 -0.0092
88.95 -0.01209
89 -0.0086
89.05 -0.00749
89.1 -0.00605
89.15 -0.00477
89.2 0.00104
89.25 0.00023
89.3 0.003
89.35 0.00666
89.4 0.00442
89.45 0.00235
89.5 -0.00245
89.55 -0.00845
89.6 -0.01429
89.65 -0.01936
89.7 -0.01835
89.75 -0.01992
89.8 -0.01941
89.85 -0.01387
89.9 -0.00987
89.95 -0.01002
90 -0.01163
90.05 -0.00792
90.1 -0.00476
90.15 -0.00393
90.2 -0.0035
90.25 -0.003
90.3 -0.0003
90.35 0.00376
90.4 0.00634
90.45 0.00713
90.5 0.00997
90.55 0.00798
90.6 0.00846
90.65 0.00712
90.7 0.00394
90.75 0.00164
90.8 -0.00235
90.85 -0.00084
90.9 -0.00231
90.95 -0.00315
91 -0.00558
91.05 -0.00974
91.1 -0.01435
91.15 -0.01414
91.2 -0.01301
91.25 -0.00839
91.3 -0.00209
91.35 -0.00062
91.4 0.00457
91.45 0.00979
91.5 0.01636
91.55 0.01832
91.6 0.02152
91.65 0.01881
91.7 0.01545
91.75 0.00937
91.8 0.00617
91.85 0.00199
91.9 0.00195
91.95 0.00053
92 0.00354
92.05 0.00417
92.1 0.00082
92.15 -0.0059
92.2 -0.00707
92.25 -0.00452
92.3 0.00176
92.35 0.00665
92.4 0.00665
92.45 0.00728
92.5 0.01104
92.55 0.01475
92.6 0.0135
92.65 0.00816
92.7 0.00067
92.75 -0.00136
92.8 -0.00452
92.85 -0.00223
92.9 0.00184
92.95 0.0017
93 0.00242
93.05 0.00169
93.1 -0.00199
93.15 -0.00162
93.2 0.00141
93.25 -0.00023
93.3 0.00203
93.35 -0.00004
93.4 -0.00361
93.45 -0.00228
93.5 -0.00095
93.55 0.00249
93.6 0.00346
93.65 0.00601
93.7 0.0054
93.75 0.00249
93.8 0.00477
93.85 0.00501
93.9 0.00406
93.95 0.00022
94 -0.00175
94.05 -0.00191
94.1 -0.0041
94.15 -0.00482
94.2 -0.00717
94.25 -0.00542
94.3 -0.00514
94.35 -0.00914
94.4 -0.00868
94.45 -0.01001
94.5 -0.00982
94.55 -0.01055
94.6 -0.01207
94.65 -0.01346
94.7 -0.01731
94.75 -0.02216
94.8 -0.02678
94.85 -0.03125
94.9 -0.02795
94.95 -0.02576
95 -0.02308
95.05 -0.02154
95.1 -0.0218
95.15 -0.02399
95.2 -0.02017
95.25 -0.01467
95.3 -0.00902
95.35 -0.00534
95.4 -0.00514
95.45 -0.00816
95.5 -0.01195
95.55 -0.0116
95.6 -0.00688
95.65 -0.00074
95.7 0.00403
95.75 0.00802
95.8 0.00856
95.85 0.0116
95.9 0.01479
95.95 0.01395
96 0.0152
96.05 0.01492
96.1 0.01274
96.15 0.0097
96.2 0.00987
96.25 0.0079
96.3 0.00555
96.35 0.00571
96.4 0.00689
96.45 0.01186
96.5 0.01006
96.55 0.01061
96.6 0.01156
96.65 0.01072
96.7 0.01395
96.75 0.01656
96.8 0.01425
96.85 0.00973
96.9 0.00312
96.95 -0.00182
97 -0.00314
97.05 -0.00711
97.1 -0.00903
97.15 -0.01252
97.2 -0.01572
97.25 -0.01626
97.3 -0.01028
97.35 -0.00972
97.4 -0.00377
97.45 0.00421
97.5 0.00516
97.55 0.00681
97.6 0.00469
97.65 0.00217
97.7 0.00197
97.75 0.00465
97.8 0.01013
97.85 0.01627
97.9 0.0157
97.95 0.01867
98 0.02356
98.05 0.02257
98.1 0.02486
98.15 0.02377
98.2 0.02168
98.25 0.01606
98.3 0.01436
98.35 0.01366
98.4 0.0116
98.45 0.01255
98.5 0.01289
98.55 0.01108
98.6 0.01103
98.65 0.01055
98.7 0.00598
98.75 0.00666
98.8 0.00711
98.85 0.00681
98.9 0.00351
98.95 0.00089
99 -0.00156
99.05 -0.00386
99.1 -0.00407
99.15 -0.00813
99.2 -0.00683
99.25 -0.00956
99.3 -0.01345
99.35 -0.01937
99.4 -0.02619
99.45 -0.02604
99.5 -0.02419
99.55 -0.02548
99.6 -0.02717
99.65 -0.02244
99.7 -0.0203
99.75 -0.01882
99.8 -0.01835
99.85 -0.01228
99.9 -0.00566
99.95 -0.00256
