0 0
0.05 0.00159
0.1 0.01009
0.15 0.02059
0.2 0.03051
0.25 0.03916
0.3 0.04855
0.35 0.05234
0.4 0.05614
0.45 0.05689
0.5 0.05307
0.55 0.05044
0.6 0.05201
0.65 0.05228
0.7 0.05502
0.75 0.05208
0.8 0.04929
0.85 0.04985
0.9 0.04536
0.95 0.04236
1 0.03991
1.05 0.03469
1.1 0.03316
1.15 0.03613
1.2 0.04176
1.25 0.04734
1.3 0.04632
1.35 0.04465
1.4 0.04533
1.45 0.04796
1.5 0.04845
1.55 0.0449
1.6 0.03985
1.65 0.03808
1.7 0.0346
1.75 0.03253
1.8 0.03197
1.85 0.02913
1.9 0.02457
1.95 0.02089
2 0.01943
2.05 0.01736
2.1 0.02021
2.15 0.02077
2.2 0.02146
2.25 0.02281
2.3 0.02155
2.35 0.02146
2.4 0.02516
2.45 0.02822
2.5 0.03113
2.55 0.02996
2.6 0.03192
2.65 0.03459
2.7 0.03705
2.75 0.04076
2.8 0.03919
2.85 0.03489
2.9 0.03148
2.95 0.02651
3 0.02282
3.05 0.01696
3.1 0.01626
3.15 0.0131
3.2 0.00799
3.25 0.0062
3.3 0.003
3.35 0.00565
3.4 0.00752
3.45 0.0108
3.5 0.01492
3.55 0.01666
3.6 0.01968
3.65 0.02147
3.7 0.01844
3.75 0.01633
3.8 0.01464
3.85 0.01659
3.9 0.01524
3.95 0.01014
4 0.01054
4.05 0.0106
4.1 0.01464
4.15 0.01878
4.2 0.01713
4.25 0.01381
4.3 0.01102
4.35 0.0087
4.4 0.00566
4.45 0.0024
4.5 0.00357
4.55 0.00812
4.6 0.00956
4.65 0.0119
4.7 0.00927
4.75 0.00819
4.8 0.00527
4.85 0.00517
4.9 -0.0004
4.95 -0.00253
5 -0.00516
5.05 -0.00749
5.1 -0.01222
5.15 -0.01909
5.2 -0.02646
5.25 -0.03006
5.3 -0.03832
5.35 -0.04468
5.4 -0.05308
5.45 -0.0571
5.5 -0.06293
5.55 -0.06466
5.6 -0.06737
5.65 -0.07003
5.7 -0.07209
5.75 -0.06827
5.8 -0.05946
5.85 -0.05018
5.9 -0.04192
5.95 -0.03201
6 -0.02456
6.05 -0.01482
6.1 -0.00895
6.15 -0.00524
6.2 -0.00329
6.25 0.00354
6.3 0.00919
6.35 0.01646
6.4 0.02337
6.45 0.02837
6.5 0.03455
6.55 0.04181
6.6 0.04957
6.65 0.05305
6.7 0.05228
6.75 0.05197
6.8 0.05135
6.85 0.05269
6.9 0.05312
6.95 0.05297
7 0.04891
7.05 0.04884
7.1 0.05034
7.15 0.04925
7.2 0.04452
7.25 0.04296
7.3 0.03988
7.35 0.04079
7.4 0.04481
7.45 0.04901
7.5 0.04747
7.55 0.0422
7.6 0.03507
7.65 0.03107
7.7 0.02736
7.75 0.02815
7.8 0.02844
7.85 0.03012
7.9 0.0288
7.95 0.02721
8 0.02915
8.05 0.02663
8.1 0.02212
8.15 0.02262
8.2 0.01941
8.25 0.01823
8.3 0.01623
8.35 0.01752
8.4 0.02048
8.45 0.02482
8.5 0.02321
8.55 0.02297
8.6 0.02641
8.65 0.02839
8.7 0.0312
8.75 0.03002
8.8 0.03077
8.85 0.02834
8.9 0.02623
8.95 0.02034
9 0.01683
9.05 0.01741
9.1 0.01538
9.15 0.01106
9.2 0.00761
9.25 0.00523
9.3 0.00735
9.35 0.01245
9.4 0.01451
9.45 0.01577
9.5 0.01375
9.55 0.01031
9.6 0.00729
9.65 0.00199
9.7 -0.00536
9.75 -0.00957
9.8 -0.00785
9.85 -0.00356
9.9 -0.0018
9.95 -0.00445
10 -0.00771
10.05 -0.00602
10.1 -0.00512
10.15 -0.00509
10.2 -0.00649
10.25 -0.00629
10.3 -0.00276
10.35 -0.00052
10.4 0.00438
10.45 0.00499
10.5 0.00737
10.55 0.00759
10.6 0.00313
10.65 -0.00404
10.7 -0.00559
10.75 -0.01058
10.8 -0.01223
10.85 -0.01437
10.9 -0.01134
10.95 -0.01176
11 -0.01128
11.05 -0.01151
11.1 -0.0141
11.15 -0.01307
11.2 -0.0128
11.25 -0.01567
11.3 -0.01261
11.35 -0.00696
11.4 -0.00359
11.45 -0.00451
11.5 -0.00735
11.55 -0.00767
11.6 -0.00843
11.65 -0.00751
11.7 -0.00522
11.75 -0.00697
11.8 -0.01111
11.85 -0.01211
11.9 -0.01536
11.95 -0.01952
12 -0.02469
12.05 -0.0249
12.1 -0.02538
12.15 -0.02702
12.2 -0.02357
12.25 -0.02183
12.3 -0.01994
12.35 -0.01507
12.4 -0.0131
12.45 -0.01433
12.5 -0.01784
12.55 -0.02017
12.6 -0.01949
12.65 -0.02037
12.7 -0.01749
12.75 -0.01772
12.8 -0.01239
12.85 -0.01038
12.9 -0.00499
12.95 -0.0016
13 0.00087
13.05 0.00662
13.1 0.00953
13.15 0.01212
13.2 0.01515
13.25 0.01223
13.3 0.00683
13.35 0.00599
13.4 0.00147
13.45 -0.00465
13.5 -0.01169
13.55 -0.01626
13.6 -0.01501
13.65 -0.01306
13.7 -0.01391
13.75 -0.01637
13.8 -0.01927
13.85 -0.02158
13.9 -0.02161
13.95 -0.01581
14 -0.00793
14.05 -0.00158
14.1 0.00539
14.15 0.01275
14.2 0.01959
14.25 0.02177
14.3 0.02017
14.35 0.01411
14.4 0.00949
14.45 0.00483
14.5 0.00161
14.55 0.00143
14.6 0.00126
14.65 -0.00096
14.7 0.0007
14.75 0.00602
14.8 0.00777
14.85 0.00528
14.9 0.00153
14.95 0.00201
15 0.00293
15.05 0.00082
15.1 0.00294
15.15 0.00432
15.2 0.00607
15.25 0.00376
15.3 0.00295
15.35 0.00207
15.4 0.00279
15.45 0.0015
15.5 0.0048
15.55 0.00342
15.6 0.0028
15.65 -0.00038
15.7 0.00021
15.75 -0.00083
15.8 0.00118
15.85 0.00113
15.9 -0.0018
15.95 -0.0072
16 -0.00938
16.05 -0.01156
16.1 -0.01187
16.15 -0.01005
16.2 -0.00471
16.25 0.00249
16.3 0.01037
16.35 0.01389
16.4 0.01911
16.45 0.02499
16.5 0.02527
16.55 0.02693
16.6 0.02659
16.65 0.02315
16.7 0.0165
16.75 0.01309
16.8 0.00755
16.85 0.00276
16.9 -0.00258
16.95 -0.00354
17 -0.00566
17.05 -0.00501
17.1 -0.00266
17.15 -0.00261
17.2 -0.00326
17.25 0.00065
17.3 0.00027
17.35 0.00071
17.4 -0.00104
17.45 -0.00531
17.5 -0.00672
17.55 -0.00869
17.6 -0.00755
17.65 -0.00624
17.7 -0.00345
17.75 -0.00022
17.8 -0.00019
17.85 0.00077
17.9 0.0045
17.95 0.00888
18 0.01277
18.05 0.01595
18.1 0.01543
18.15 0.0108
18.2 0.01052
18.25 0.01104
18.3 0.00628
18.35 0.00114
18.4 -0.00377
18.45 -0.00969
18.5 -0.01059
18.55 -0.0123
18.6 -0.00874
18.65 -0.00565
18.7 -0.00608
18.75 -0.00824
18.8 -0.00518
18.85 -0.00656
18.9 -0.00321
18.95 -0.00395
19 -0.00324
19.05 -0.00138
19.1 -0.00119
19.15 -0.00474
19.2 -0.00495
19.25 -0.00538
19.3 -0.00553
19.35 -0.00255
19.4 -0.00156
19.45 -0.00454
19.5 -0.00325
19.55 0.00115
19.6 -0.00006
19.65 -0.00349
19.7 -0.00267
19.75 -0.00535
19.8 -0.00413
19.85 0.00104
19.9 0.0046
19.95 0.00895
20 0.00906
20.05 0.00981
20.1 0.00693
20.15 0.00153
20.2 -0.0027
20.25 -0.00157
20.3 0.00297
20.35 0.00416
20.4 0.0043
20.45 0.00664
20.5 0.00785
20.55 0.0111
20.6 0.01449
20.65 0.01596
20.7 0.01413
20.75 0.00997
20.8 0.00813
20.85 0.00812
20.9 0.00838
20.95 0.00746
21 0.00783
21.05 0.00871
21.1 0.00477
21.15 -0.0016
21.2 -0.00658
21.25 -0.01178
21.3 -0.01272
21.35 -0.01078
21.4 -0.00895
21.45 -0.00733
21.5 -0.00349
21.55 0.00306
21.6 0.01037
21.65 0.0114
21.7 0.00935
21.75 0.00433
21.8 -0.00075
21.85 -0.00371
21.9 -0.00508
21.95 -0.00632
22 -0.00291
22.05 -0.00345
22.1 -0.00529
22.15 -0.00343
22.2 -0.00013
22.25 0.0015
22.3 -0.00142
22.35 -0.00524
22.4 -0.00422
22.45 -0.00683
22.5 -0.00917
22.55 -0.01003
22.6 -0.01226
22.65 -0.00959
22.7 -0.00511
22.75 -0.00198
22.8 -0.00163
22.85 -0.00446
22.9 -0.00415
22.95 -0.00508
23 -0.00555
23.05 -0.00417
23.1 -0.00328
23.15 -0.00117
23.2 0.00364
23.25 0.00791
23.3 0.00762
23.35 0.00649
23.4 0.0058
23.45 0.00077
23.5 -0.00186
23.55 -0.00521
23.6 -0.00422
23.65 -0.00546
23.7 -0.00547
23.75 -0.00538
23.8 -0.00859
23.85 -0.01222
23.9 -0.01562
23.95 -0.01354
24 -0.01435
24.05 -0.0115
24.1 -0.00933
24.15 -0.00489
24.2 -0.00505
24.25 -0.00772
24.3 -0.00531
24.35 -0.005
24.4 -0.00674
24.45 -0.00874
24.5 -0.0127
24.55 -0.01088
24.6 -0.0075
24.65 -0.00621
24.7 -0.00645
24.75 -0.00352
24.8 0.00229
24.85 0.00708
24.9 0.00772
24.95 0.00865
25 0.01132
25.05 0.01607
25.1 0.01743
25.15 0.01834
25.2 0.01743
25.25 0.01865
25.3 0.01966
25.35 0.02065
25.4 0.02184
25.45 0.02367
25.5 0.02437
25.55 0.02242
25.6 0.01562
25.65 0.00593
25.7 0.00084
25.75 0.00047
25.8 -0.00283
25.85 -0.00476
25.9 -0.00585
25.95 -0.00725
26 -0.00369
26.05 -0.00373
26.1 -0.0071
26.15 -0.00945
26.2 -0.00767
26.25 -0.00287
26.3 -0.00064
26.35 0.00442
26.4 0.00693
26.45 0.00872
26.5 0.00553
26.55 0.00656
26.6 0.00554
26.65 0.00203
26.7 -0.00444
26.75 -0.00769
26.8 -0.00995
26.85 -0.01321
26.9 -0.01172
26.95 -0.01199
27 -0.0098
27.05 -0.00816
27.1 -0.00779
27.15 -0.01095
27.2 -0.01155
27.25 -0.01285
27.3 -0.00903
27.35 -0.01027
27.4 -0.01309
27.45 -0.01396
27.5 -0.01208
27.55 -0.01389
27.6 -0.01544
27.65 -0.01785
27.7 -0.02219
27.75 -0.02358
27.8 -0.02666
27.85 -0.0346
27.9 -0.04638
27.95 -0.05337
28 -0.05971
28.05 -0.07063
28.1 -0.0879
28.15 -0.10962
28.2 -0.13351
28.25 -0.16123
28.3 -0.18703
28.35 -0.2135
28.4 -0.24493
28.45 -0.2824
28.5 -0.32648
28.55 -0.37309
28.6 -0.42325
28.65 -0.47986
28.7 -0.53998
28.75 -0.60757
28.8 -0.68288
28.85 -0.75811
28.9 -0.8357
28.95 -0.92201
29 -1.01025
29.05 -1.10552
29.1 -1.20728
29.15 -1.30791
29.2 -1.40996
29.25 -1.51434
29.3 -1.61382
29.35 -1.70834
29.4 -1.79919
29.45 -1.88692
29.5 -1.97019
29.55 -2.04651
29.6 -2.11388
29.65 -2.17269
29.7 -2.22248
29.75 -2.26233
29.8 -2.29392
29.85 -2.31116
29.9 -2.31585
29.95 -2.30505
30 -2.28153
30.05 -2.24999
30.1 -2.20073
30.15 -2.1378
30.2 -2.06091
30.25 -1.97418
30.3 -1.8724
30.35 -1.7639
30.4 -1.64487
30.45 -1.51334
30.5 -1.37812
30.55 -1.23273
30.6 -1.0847
30.65 -0.9325
30.7 -0.77345
30.75 -0.61433
30.8 -0.45222
30.85 -0.29172
30.9 -0.13466
30.95 0.02387
31 0.17612
31.05 0.32711
31.1 0.47027
31.15 0.61263
31.2 0.74783
31.25 0.87346
31.3 0.99074
31.35 1.09771
31.4 1.19972
31.45 1.29336
31.5 1.38073
31.55 1.46463
31.6 1.53917
31.65 1.60328
31.7 1.65732
31.75 1.70372
31.8 1.7438
31.85 1.776
31.9 1.80672
31.95 1.83743
32 1.85931
32.05 1.88101
32.1 1.90077
32.15 1.91758
32.2 1.92494
32.25 1.92828
32.3 1.93146
32.35 1.92738
32.4 1.92388
32.45 1.91605
32.5 1.90375
32.55 1.89298
32.6 1.88393
32.65 1.87139
32.7 1.85964
32.75 1.84332
32.8 1.82692
32.85 1.81238
32.9 1.79644
32.95 1.7759
33 1.7546
33.05 1.73388
33.1 1.71204
33.15 1.68672
33.2 1.66171
33.25 1.62936
33.3 1.5925
33.35 1.55489
33.4 1.52002
33.45 1.48019
33.5 1.43715
33.55 1.39886
33.6 1.35546
33.65 1.30985
33.7 1.26186
33.75 1.21824
33.8 1.17304
33.85 1.13155
33.9 1.08866
33.95 1.04639
34 1.00776
34.05 0.96725
34.1 0.92138
34.15 0.87806
34.2 0.83747
34.25 0.7927
34.3 0.74979
34.35 0.70421
34.4 0.66111
34.45 0.61492
34.5 0.57404
34.55 0.53185
34.6 0.48978
34.65 0.44618
34.7 0.40523
34.75 0.36397
34.8 0.3263
34.85 0.29609
34.9 0.26513
34.95 0.23672
35 0.20802
35.05 0.17665
35.1 0.14516
35.15 0.113
35.2 0.08688
35.25 0.06165
35.3 0.038
35.35 0.0155
35.4 -0.00511
35.45 -0.02949
35.5 -0.05582
35.55 -0.08178
35.6 -0.10111
35.65 -0.12225
35.7 -0.14148
35.75 -0.15917
35.8 -0.17439
35.85 -0.18643
35.9 -0.19727
35.95 -0.20573
36 -0.21039
36.05 -0.21575
36.1 -0.22681
36.15 -0.23922
36.2 -0.2475
36.25 -0.25742
36.3 -0.26687
36.35 -0.27699
36.4 -0.28891
36.45 -0.29649
36.5 -0.29912
36.55 -0.30119
36.6 -0.30457
36.65 -0.30911
36.7 -0.31226
36.75 -0.31796
36.8 -0.32584
36.85 -0.33278
36.9 -0.33227
36.95 -0.33466
37 -0.33284
37.05 -0.33119
37.1 -0.32692
37.15 -0.32522
37.2 -0.32075
37.25 -0.31834
37.3 -0.31827
37.35 -0.31868
37.4 -0.32118
37.45 -0.3176
37.5 -0.31516
37.55 -0.309
37.6 -0.3052
37.65 -0.30608
37.7 -0.30457
37.75 -0.29919
37.8 -0.29861
37.85 -0.29816
37.9 -0.29949
37.95 -0.29505
38 -0.29439
38.05 -0.29534
38.1 -0.28998
38.15 -0.28453
38.2 -0.27637
38.25 -0.26632
38.3 -0.25916
38.35 -0.25356
38.4 -0.2514
38.45 -0.24732
38.5 -0.24754
38.55 -0.2485
38.6 -0.25186
38.65 -0.24821
38.7 -0.24228
38.75 -0.2409
38.8 -0.23542
38.85 -0.22912
38.9 -0.22114
38.95 -0.21846
39 -0.2149
39.05 -0.21577
39.1 -0.21295
39.15 -0.21347
39.2 -0.20958
39.25 -0.20587
39.3 -0.20355
39.35 -0.1977
39.4 -0.18956
39.45 -0.18597
39.5 -0.18447
39.55 -0.18127
39.6 -0.17933
39.65 -0.17363
39.7 -0.16837
39.75 -0.16574
39.8 -0.16206
39.85 -0.15762
39.9 -0.15643
39.95 -0.15327
40 -0.14876
40.05 -0.14606
40.1 -0.14536
40.15 -0.14574
40.2 -0.14632
40.25 -0.14822
40.3 -0.14835
40.35 -0.14674
40.4 -0.1447
40.45 -0.14271
40.5 -0.13896
40.55 -0.13522
40.6 -0.13337
40.65 -0.13348
40.7 -0.12941
40.75 -0.12383
40.8 -0.12136
40.85 -0.11995
40.9 -0.11855
40.95 -0.11509
41 -0.11097
41.05 -0.10822
41.1 -0.10536
41.15 -0.10214
41.2 -0.10169
41.25 -0.10362
41.3 -0.10252
41.35 -0.10424
41.4 -0.1087
41.45 -0.10988
41.5 -0.1091
41.55 -0.10897
41.6 -0.10525
41.65 -0.10066
41.7 -0.09847
41.75 -0.09285
41.8 -0.08951
41.85 -0.0876
41.9 -0.08918
41.95 -0.08783
42 -0.08952
42.05 -0.08966
42.1 -0.08858
42.15 -0.08493
42.2 -0.08111
42.25 -0.08182
42.3 -0.07827
42.35 -0.07777
42.4 -0.07994
42.45 -0.07974
42.5 -0.07551
42.55 -0.06885
42.6 -0.06542
42.65 -0.06542
42.7 -0.06328
42.75 -0.06351
42.8 -0.06256
42.85 -0.06167
42.9 -0.05837
42.95 -0.0563
43 -0.05432
43.05 -0.05249
43.1 -0.05178
43.15 -0.05396
43.2 -0.05834
43.25 -0.0571
43.3 -0.05807
43.35 -0.06126
43.4 -0.06213
43.45 -0.06159
43.5 -0.06023
43.55 -0.05535
43.6 -0.04893
43.65 -0.04703
43.7 -0.04449
43.75 -0.04044
43.8 -0.03698
43.85 -0.03511
43.9 -0.03904
43.95 -0.04468
44 -0.05089
44.05 -0.05497
44.1 -0.058
44.15 -0.05994
44.2 -0.06319
44.25 -0.06232
44.3 -0.05671
44.35 -0.05518
44.4 -0.05381
44.45 -0.05488
44.5 -0.05698
44.55 -0.05666
44.6 -0.05118
44.65 -0.04998
44.7 -0.05103
44.75 -0.05347
44.8 -0.05137
44.85 -0.05202
44.9 -0.05208
44.95 -0.04687
45 -0.03847
45.05 -0.03655
45.1 -0.03814
45.15 -0.03456
45.2 -0.0358
45.25 -0.03424
45.3 -0.03005
45.35 -0.02587
45.4 -0.02325
45.45 -0.02533
45.5 -0.02394
45.55 -0.02371
45.6 -0.02203
45.65 -0.01818
45.7 -0.01238
45.75 -0.01268
45.8 -0.01063
45.85 -0.01248
45.9 -0.0138
45.95 -0.01244
46 -0.01664
46.05 -0.01923
46.1 -0.02296
46.15 -0.02252
46.2 -0.0244
46.25 -0.02822
46.3 -0.03397
46.35 -0.03348
46.4 -0.03291
46.45 -0.03108
46.5 -0.02603
46.55 -0.02239
46.6 -0.01928
46.65 -0.01831
46.7 -0.01522
46.75 -0.00957
46.8 -0.00567
46.85 -0.00193
46.9 -0.00429
46.95 -0.00732
47 -0.01194
47.05 -0.01461
47.1 -0.01755
47.15 -0.01974
47.2 -0.02378
47.25 -0.02633
47.3 -0.02588
47.35 -0.02888
47.4 -0.03307
47.45 -0.03482
47.5 -0.03201
47.55 -0.02913
47.6 -0.02683
47.65 -0.02247
47.7 -0.01666
47.75 -0.01397
47.8 -0.00827
47.85 -0.00582
47.9 -0.00122
47.95 -0.00115
48 -0.00011
48.05 0.00202
48.1 0.00248
48.15 0.00332
48.2 0.00645
48.25 0.00633
48.3 0.00126
48.35 -0.00426
48.4 -0.009
48.45 -0.01113
48.5 -0.01337
48.55 -0.0111
48.6 -0.00888
48.65 -0.00594
48.7 -0.00233
48.75 -0.00212
48.8 -0.00348
48.85 -0.0065
48.9 -0.00906
48.95 -0.0142
49 -0.01868
49.05 -0.01753
49.1 -0.02037
49.15 -0.02389
49.2 -0.02423
49.25 -0.02334
49.3 -0.0251
49.35 -0.02539
49.4 -0.02458
49.45 -0.02665
49.5 -0.02832
49.55 -0.02944
49.6 -0.02588
49.65 -0.01975
49.7 -0.01365
49.75 -0.00853
49.8 -0.00633
49.85 -0.00571
49.9 -0.00499
49.95 -0.00746
50 -0.00606
50.05 -0.00626
50.1 -0.01024
50.15 -0.01227
50.2 -0.01138
50.25 -0.00856
50.3 -0.00566
50.35 -0.00008
50.4 0.0008
50.45 -0.00317
50.5 -0.00394
50.55 -0.00775
50.6 -0.01175
50.65 -0.01154
50.7 -0.01493
50.75 -0.02029
50.8 -0.02401
50.85 -0.02604
50.9 -0.0239
50.95 -0.02402
51 -0.02098
51.05 -0.01648
51.1 -0.00937
51.15 -0.00036
51.2 0.0022
51.25 0.00045
51.3 -0.00096
51.35 0.00046
51.4 0.0018
51.45 0.00192
51.5 -0.00056
51.55 -0.00068
51.6 -0.00167
51.65 0.00085
51.7 0.00078
51.75 0.0026
51.8 0.00646
51.85 0.01062
51.9 0.01076
51.95 0.00818
52 0.00805
52.05 0.01048
52.1 0.00673
52.15 0.00379
52.2 0.00095
52.25 -0.00131
52.3 -0.00313
52.35 -0.00361
52.4 -0
52.45 0.00389
52.5 0.00687
52.55 0.01189
52.6 0.01352
52.65 0.01072
52.7 0.00571
52.75 0.00193
52.8 -0.00419
52.85 -0.00754
52.9 -0.01149
52.95 -0.01099
53 -0.00776
53.05 -0.00534
53.1 0.00028
53.15 0.00294
53.2 0.00255
53.25 -0.00068
53.3 0.00031
53.35 -0.00165
53.4 -0.004
53.45 -0.00317
53.5 -0.00656
53.55 -0.01022
53.6 -0.00987
53.65 -0.00948
53.7 -0.00885
53.75 -0.00978
53.8 -0.01185
53.85 -0.01298
53.9 -0.01619
53.95 -0.01372
54 -0.01467
54.05 -0.01818
54.1 -0.02191
54.15 -0.02027
54.2 -0.01383
54.25 -0.01005
54.3 -0.00445
54.35 -0.0009
54.4 0.00065
54.45 0.00121
54.5 0.00422
54.55 0.00891
54.6 0.01493
54.65 0.01533
54.7 0.01105
54.75 0.0034
54.8 -0.00306
54.85 -0.00521
54.9 -0.00354
54.95 -0.00315
55 -0.0041
55.05 -0.00167
55.1 -0.00152
55.15 -0.00161
55.2 -0.00306
55.25 -0.00629
55.3 -0.00626
55.35 -0.00617
55.4 -0.00739
55.45 -0.00825
55.5 -0.00605
55.55 -0.00076
55.6 0.00229
55.65 0.00307
55.7 0.00371
55.75 0.00646
55.8 0.00451
55.85 0.00358
55.9 0.00211
55.95 -0.00109
56 0.00015
56.05 0.00288
56.1 0.00283
56.15 0.00468
56.2 0.00158
56.25 -0.00148
56.3 -0.00509
56.35 -0.00547
56.4 -0.00175
56.45 -0.00315
56.5 -0.0057
56.55 -0.00297
56.6 -0.00494
56.65 -0.00447
56.7 -0.00255
56.75 -0.00193
56.8 0.00043
56.85 0.00132
56.9 0.00011
56.95 -0.00102
57 -0.00575
57.05 -0.0067
57.1 -0.00921
57.15 -0.00989
57.2 -0.01185
57.25 -0.01391
57.3 -0.01374
57.35 -0.01592
57.4 -0.01441
57.45 -0.01354
57.5 -0.01203
57.55 -0.01345
57.6 -0.0124
57.65 -0.01456
57.7 -0.01663
57.75 -0.01939
57.8 -0.01602
57.85 -0.01469
57.9 -0.01068
57.95 -0.00436
58 0.00047
58.05 0.00599
58.1 0.00723
58.15 0.00686
58.2 0.00568
58.25 0.00675
58.3 0.00876
58.35 0.01293
58.4 0.01765
58.45 0.02246
58.5 0.02149
58.55 0.01753
58.6 0.01325
58.65 0.00549
58.7 0.00174
58.75 0.00164
58.8 0.00188
58.85 0.00471
58.9 0.00611
58.95 0.00339
59 -0.00024
59.05 -0.00167
59.1 -0.00133
59.15 0.00184
59.2 0.00767
59.25 0.01346
59.3 0.01596
59.35 0.01746
59.4 0.01301
59.45 0.00742
59.5 0.00306
59.55 0.00261
59.6 -0.00058
59.65 0.00012
59.7 0.00251
59.75 0.00415
59.8 0.00848
59.85 0.00627
59.9 0.00111
59.95 0.00036
60 -0.00241
60.05 -0.00261
60.1 -0.00646
60.15 -0.01152
60.2 -0.01474
60.25 -0.01936
60.3 -0.02405
60.35 -0.02532
60.4 -0.02734
60.45 -0.02392
60.5 -0.02146
60.55 -0.01695
60.6 -0.00933
60.65 -0.00491
60.7 -0.00178
60.75 0.00057
60.8 0.00309
60.85 0.0042
60.9 0.00262
60.95 -0.00098
61 -0.00674
61.05 -0.00893
61.1 -0.01108
61.15 -0.01392
61.2 -0.01486
61.25 -0.0119
61.3 -0.00507
61.35 0.00226
61.4 0.00677
61.45 0.00932
61.5 0.01006
61.55 0.01275
61.6 0.01018
61.65 0.00869
61.7 0.00772
61.75 0.00321
61.8 0.00107
61.85 -0.00394
61.9 -0.00959
61.95 -0.01097
62 -0.01218
62.05 -0.01233
62.1 -0.01438
62.15 -0.01032
62.2 -0.00794
62.25 -0.0025
62.3 0.00474
62.35 0.00982
62.4 0.01501
62.45 0.01797
62.5 0.01626
62.55 0.01152
62.6 0.01003
62.65 0.00946
62.7 0.00695
62.75 0.00795
62.8 0.00746
62.85 0.00612
62.9 0.00815
62.95 0.00647
63 0.00564
63.05 0.00663
63.1 0.00661
63.15 0.00805
63.2 0.01125
63.25 0.01307
63.3 0.01572
63.35 0.01506
63.4 0.01321
63.45 0.01292
63.5 0.01542
63.55 0.01823
63.6 0.01725
63.65 0.01889
63.7 0.02023
63.75 0.01613
63.8 0.01058
63.85 0.00672
63.9 0.00027
63.95 -0.00057
64 0.00112
64.05 0.0025
64.1 0.00041
64.15 -0.00163
64.2 -0.00372
64.25 -0.00814
64.3 -0.0117
64.35 -0.0098
64.4 -0.0102
64.45 -0.01349
64.5 -0.01695
64.55 -0.02073
64.6 -0.02488
64.65 -0.02334
64.7 -0.02028
64.75 -0.01487
64.8 -0.00744
64.85 -0.0024
64.9 -0.0029
64.95 -0.00239
65 0.00096
65.05 0.00292
65.1 0.00718
65.15 0.0052
65.2 0.00667
65.25 0.00362
65.3 0.00506
65.35 0.00716
65.4 0.00769
65.45 0.01077
65.5 0.01191
65.55 0.01396
65.6 0.01726
65.65 0.0196
65.7 0.02107
65.75 0.02362
65.8 0.02644
65.85 0.02668
65.9 0.0221
65.95 0.01478
66 0.00816
66.05 0.00047
66.1 -0.00733
66.15 -0.00853
66.2 -0.00656
66.25 -0.00169
66.3 -0.00073
66.35 -0.00318
66.4 -0.00813
66.45 -0.00728
66.5 -0.01002
66.55 -0.01384
66.6 -0.01934
66.65 -0.02049
66.7 -0.02013
66.75 -0.02014
66.8 -0.01936
66.85 -0.01583
66.9 -0.01526
66.95 -0.01405
67 -0.00986
67.05 -0.0062
67.1 -0.00518
67.15 -0.00728
67.2 -0.01059
67.25 -0.00831
67.3 -0.0091
67.35 -0.01188
67.4 -0.0104
67.45 -0.0073
67.5 -0.00498
67.55 -0.0012
67.6 -0.00194
67.65 -0.00324
67.7 -0.00695
67.75 -0.00589
67.8 -0.00468
67.85 -0.00295
67.9 -0.00019
67.95 0.00098
68 0.00246
68.05 0.0058
68.1 0.00389
68.15 0.00185
68.2 -0.00256
68.25 -0.00817
68.3 -0.01004
68.35 -0.01007
68.4 -0.00727
68.45 -0.00873
68.5 -0.00988
68.55 -0.00686
68.6 -0.0067
68.65 -0.00362
68.7 0.00103
68.75 0.00015
68.8 -0.00279
68.85 -0.00388
68.9 -0.00117
68.95 -0.00049
69 0.00377
69.05 0.00995
69.1 0.01062
69.15 0.012
69.2 0.01378
69.25 0.0149
69.3 0.01695
69.35 0.0166
69.4 0.01341
69.45 0.00812
69.5 0.00192
69.55 -0.00541
69.6 -0.0079
69.65 -0.00874
69.7 -0.01028
69.75 -0.01098
69.8 -0.00839
69.85 -0.0055
69.9 -0.00385
69.95 -0.00379
70 -0.00177
70.05 0.00306
70.1 0.00544
70.15 0.00986
70.2 0.0123
70.25 0.0124
70.3 0.01112
70.35 0.0107
70.4 0.00542
70.45 0.00159
70.5 0.00128
70.55 0.00087
70.6 -0.00322
70.65 -0.00211
70.7 -0.00326
70.75 -0.00451
70.8 -0.00322
70.85 -0.00228
70.9 -0.00173
70.95 -0.00433
71 -0.0092
71.05 -0.00791
71.1 -0.00703
71.15 -0.00671
71.2 -0.00337
71.25 0.00139
71.3 0.00224
71.35 0.00157
71.4 0.00237
71.45 0.00015
71.5 0.00003
71.55 -0.00193
71.6 -0.00576
71.65 -0.0088
71.7 -0.01063
71.75 -0.01147
71.8 -0.00957
71.85 -0.00616
71.9 0.00055
71.95 0.00224
72 0.00328
72.05 0.00478
72.1 0.00212
72.15 -0.00386
72.2 -0.00495
72.25 -0.00523
72.3 -0.00351
72.35 0.00071
72.4 0.00691
72.45 0.0072
72.5 0.00838
72.55 0.00953
72.6 0.00681
72.65 0.00657
72.7 0.00513
72.75 0.00594
72.8 0.00374
72.85 0.00403
72.9 0.00039
72.95 -0.00447
73 -0.00355
73.05 -0.00406
73.1 -0.00025
73.15 0.00091
73.2 -0.00072
73.25 -0.00301
73.3 -0.00621
73.35 -0.00958
73.4 -0.00852
73.45 -0.01002
73.5 -0.00996
73.55 -0.01244
73.6 -0.01691
73.65 -0.01957
73.7 -0.02117
73.75 -0.01654
73.8 -0.01049
73.85 -0.0091
73.9 -0.00936
73.95 -0.00501
74 -0.00094
74.05 0.00423
74.1 0.00955
74.15 0.01089
74.2 0.01175
74.25 0.01244
74.3 0.00787
74.35 0.00724
74.4 0.00546
74.45 0.00027
74.5 -0.00582
74.55 -0.01049
74.6 -0.01401
74.65 -0.01844
74.7 -0.02313
74.75 -0.02198
74.8 -0.01757
74.85 -0.01051
74.9 -0.0028
74.95 -0.00104
75 -0.00237
75.05 -0.00176
75.1 -0.00233
75.15 -0.00066
75.2 0.00432
75.25 0.00677
75.3 0.00688
75.35 0.00809
75.4 0.00491
75.45 0.00576
75.5 0.006
75.55 0.00887
75.6 0.00857
75.65 0.00792
75.7 0.00549
75.75 0.00225
75.8 -0.00305
75.85 -0.006
75.9 -0.00396
75.95 -0.0012
76 -0.00107
76.05 -0.00142
76.1 0.00233
76.15 0.0072
76.2 0.01127
76.25 0.00982
76.3 0.00649
76.35 0.00631
76.4 0.00892
76.45 0.00654
76.5 0.00683
76.55 0.00263
76.6 0.00352
76.65 0.00453
76.7 0.00626
76.75 0.00279
76.8 0.00424
76.85 0.00271
76.9 0.00012
76.95 -0.00331
77 -0.00788
77.05 -0.01095
77.1 -0.00949
77.15 -0.00633
77.2 -0.00354
77.25 -0.0055
77.3 -0.01026
77.35 -0.01631
77.4 -0.0161
77.45 -0.01333
77.5 -0.01322
77.55 -0.00917
77.6 -0.00945
77.65 -0.0096
77.7 -0.01091
77.75 -0.00992
77.8 -0.01236
77.85 -0.00913
77.9 -0.00685
77.95 -0.00741
78 -0.0069
78.05 -0.00725
78.1 -0.00582
78.15 -0.00714
78.2 -0.00785
78.25 -0.00981
78.3 -0.00741
78.35 -0.00367
78.4 -0.00272
78.45 0.00242
78.5 0.00953
78.55 0.01476
78.6 0.01827
78.65 0.0167
78.7 0.01689
78.75 0.01205
78.8 0.0046
78.85 0.00228
78.9 0.00222
78.95 0.0045
79 0.00916
79.05 0.00904
79.1 0.01112
79.15 0.01272
79.2 0.01673
79.25 0.01608
79.3 0.01289
79.35 0.00633
79.4 0.00025
79.45 -0.00605
79.5 -0.00872
79.55 -0.01069
79.6 -0.00746
79.65 -0.0061
79.7 -0.00328
79.75 -0.00119
79.8 -0.00222
79.85 -0.00215
79.9 -0.00265
79.95 -0.00435
80 -0.00903
80.05 -0.01192
80.1 -0.00998
80.15 -0.00628
80.2 -0.00514
80.25 -0.00032
80.3 -0.00109
80.35 -0.00144
80.4 -0.00549
80.45 -0.00482
80.5 -0.00286
80.55 -0.00452
80.6 -0.00316
80.65 -0.0056
80.7 -0.00975
80.75 -0.01145
80.8 -0.0098
80.85 -0.00843
80.9 -0.00436
80.95 0.00259
81 0.004
81.05 0.00376
81.1 0.00547
81.15 0.00631
81.2 0.00836
81.25 0.01067
81.3 0.01159
81.35 0.015
81.4 0.01245
81.45 0.00655
81.5 -0.00099
81.55 -0.0095
81.6 -0.01582
81.65 -0.01782
81.7 -0.0176
81.75 -0.01437
81.8 -0.00774
81.85 -0.00165
81.9 0.00532
81.95 0.01079
82 0.01579
82.05 0.02054
82.1 0.01914
82.15 0.0182
82.2 0.01959
82.25 0.02186
82.3 0.0198
82.35 0.01581
82.4 0.01153
82.45 0.00937
82.5 0.00558
82.55 0.00143
82.6 0.00206
82.65 0.00358
82.7 0.00814
82.75 0.00763
82.8 0.0051
82.85 0.00675
82.9 0.01089
82.95 0.01647
83 0.02048
83.05 0.01963
83.1 0.0158
83.15 0.00975
83.2 0.0009
83.25 -0.00862
83.3 -0.0182
83.35 -0.02662
83.4 -0.02909
83.45 -0.0309
83.5 -0.0286
83.55 -0.02113
83.6 -0.01418
83.65 -0.00797
83.7 -0.004
83.75 -0.00484
83.8 -0.00865
83.85 -0.01038
83.9 -0.01074
83.95 -0.01302
84 -0.00987
84.05 -0.00939
84.1 -0.00583
84.15 0.00074
84.2 0.00898
84.25 0.01032
84.3 0.01019
84.35 0.01142
84.4 0.01533
84.45 0.01491
84.5 0.01328
84.55 0.01412
84.6 0.00996
84.65 0.00873
84.7 0.00683
84.75 0.00656
84.8 0.00441
84.85 0.00085
84.9 0.00019
84.95 -0.00229
85 -0.00625
85.05 -0.01118
85.1 -0.01705
85.15 -0.02079
85.2 -0.01871
85.25 -0.01308
85.3 -0.00878
85.35 -0.00702
85.4 -0.00676
85.45 -0.00614
85.5 -0.00803
85.55 -0.011
85.6 -0.01533
85.65 -0.01798
85.7 -0.01603
85.75 -0.01096
85.8 -0.00593
85.85 -0.00605
85.9 -0.0062
85.95 -0.00271
86 -0.00293
86.05 -0.00478
86.1 -0.00145
86.15 0.00489
86.2 0.00764
86.25 0.00695
86.3 0.00294
86.35 0.00199
86.4 -0.00194
86.45 -0.00704
86.5 -0.01195
86.55 -0.01766
86.6 -0.01629
86.65 -0.0119
86.7 -0.00463
86.75 0.00021
86.8 0.00156
86.85 0.0057
86.9 0.00793
86.95 0.00499
87 0.00371
87.05 0.00649
87.1 0.00531
87.15 0.00381
87.2 0.00145
87.25 0.00369
87.3 0.00815
87.35 0.01369
87.4 0.01342
87.45 0.01299
87.5 0.01015
87.55 0.00373
87.6 0.00158
87.65 0.00206
87.7 0.0036
87.75 0.00436
87.8 0.00136
87.85 -0.00272
87.9 -0.00312
87.95 -0.00091
88 0.00191
88.05 0.00623
88.1 0.00892
88.15 0.0122
88.2 0.0118
88.25 0.00751
88.3 0.00689
88.35 0.00214
88.4 0.00145
88.45 -0.00154
88.5 -0.00337
88.55 -0.00272
88.6 -0.0008
88.65 0.00186
88.7 -0.00025
88.75 -0.00246
88.8 -0.00741
88.85 -0.00697
88.9 -0.0098
88.95 -0.01107
89 -0.00714
89.05 -0.00129
89.1 0.00283
89.15 0.00735
89.2 0.00632
89.25 0.00488
89.3 0.00151
89.35 -0.00277
89.4 -0.00311
89.45 -0.00236
89.5 -0.00219
89.55 -0.00376
89.6 -0.00073
89.65 0.00513
89.7 0.01119
89.75 0.01229
89.8 0.01254
89.85 0.01511
89.9 0.0163
89.95 0.01484
90 0.00896
90.05 0.00297
90.1 -0.00494
90.15 -0.01347
90.2 -0.01604
90.25 -0.01752
90.3 -0.01856
90.35 -0.01683
90.4 -0.01818
90.45 -0.01653
90.5 -0.0162
90.55 -0.01777
90.6 -0.01405
90.65 -0.00885
90.7 -0.00801
90.75 -0.00511
90.8 -0.00089
90.85 0.00125
90.9 0.00168
90.95 0.00469
91 0.01005
91.05 0.01302
91.1 0.01084
91.15 0.00947
91.2 0.01001
91.25 0.00578
91.3 0.00587
91.35 0.00667
91.4 0.00928
91.45 0.00617
91.5 0.00352
91.55 0.00047
91.6 0.00145
91.65 -0.0014
91.7 -0.00474
91.75 -0.00354
91.8 -0.00507
91.85 -0.00704
91.9 -0.00944
91.95 -0.01137
92 -0.01038
92.05 -0.00908
92.1 -0.01082
92.15 -0.01104
92.2 -0.00993
92.25 -0.00876
92.3 -0.00589
92.35 -0.00677
92.4 -0.00465
92.45 -0.00181
92.5 -0.00084
92.55 -0.00381
92.6 -0.00208
92.65 0.00272
92.7 0.00814
92.75 0.01013
92.8 0.00883
92.85 0.01042
92.9 0.00883
92.95 0.00723
93 0.00935
93.05 0.00981
93.1 0.01207
93.15 0.01114
93.2 0.00703
93.25 0.00008
93.3 -0.00522
93.35 -0.01166
93.4 -0.01333
93.45 -0.01533
93.5 -0.01888
93.55 -0.0195
93.6 -0.01504
93.65 -0.00995
93.7 -0.00644
93.75 -0.0071
93.8 -0.00656
93.85 -0.00672
93.9 -0.00356
93.95 -0.00044
94 -0.00034
94.05 -0.00184
94.1 -0.00636
94.15 -0.00923
94.2 -0.0067
94.25 -0.00402
94.3 -0.00434
94.35 -0.00763
94.4 -0.00581
94.45 -0.00289
94.5 -0.0002
94.55 0.00138
94.6 0.00226
94.65 0.0068
94.7 0.00619
94.75 0.00646
94.8 0.00369
94.85 -0.00159
94.9 -0.00112
94.95 0.00247
95 0.00282
95.05 0.0012
95.1 0.00168
95.15 0.00362
95.2 0.00696
95.25 0.00995
95.3 0.00824
95.35 0.00432
95.4 -0.00156
95.45 -0.00451
95.5 -0.00488
95.55 -0.00787
95.6 -0.01254
95.65 -0.01811
95.7 -0.01626
95.75 -0.01595
95.8 -0.01438
95.85 -0.00795
95.9 -0.00278
95.95 0.00157
96 0.00179
96.05 0.00484
96.1 0.00863
96.15 0.01235
96.2 0.01632
96.25 0.0152
96.3 0.01713
96.35 0.01374
96.4 0.01143
96.45 0.00874
96.5 0.00911
96.55 0.00713
96.6 0.00168
96.65 -0.00259
96.7 -0.00401
96.75 -0.00209
96.8 -0.00393
96.85 -0.00535
96.9 -0.00675
96.95 -0.00662
97 -0.00219
97.05 -0.00127
97.1 -0.0013
97.15 -0.00422
97.2 -0.00365
97.25 -0.00307
97.3 0.00102
97.35 0.00327
97.4 0.00228
97.45 0.00177
97.5 0.00306
97.55 0.00423
97.6 0.00333
97.65 0.00517
97.7 0.00315
97.75 -0.00117
97.8 -0.00265
97.85 -0.00227
97.9 -0.001
97.95 0.00392
98 0.00563
98.05 0.00918
98.1 0.00973
98.15 0.00547
98.2 0.00502
98.25 0.00822
98.3 0.00973
98.35 0.00966
98.4 0.00683
98.45 0.0072
98.5 0.00919
98.55 0.00885
98.6 0.0056
98.65 0.00675
98.7 0.00863
98.75 0.00623
98.8 0.00635
98.85 0.00191
98.9 -0.00091
98.95 -0.00359
99 -0.00596
99.05 -0.00865
99.1 -0.00903
99.15 -0.00851
99.2 -0.00696
99.25 -0.00774
99.3 -0.00957
99.35 -0.01121
99.4 -0.00975
99.45 -0.00728
99.5 -0.005
99.55 0.00096
99.6 0.0038
99.65 0.00854
99.7 0.01108
99.75 0.00966
99.8 0.00527
99.85 0.0026
99.9 -0.00253
99.95 -0.00823
