0 0
0.05 0.00171
0.1 0.00673
0.15 0.01803
0.2 0.02951
0.25 0.04156
0.3 0.04989
0.35 0.05472
0.4 0.05372
0.45 0.05671
0.5 0.06065
0.55 0.06592
0.6 0.07044
0.65 0.07112
0.7 0.07057
0.75 0.06686
0.8 0.06428
0.85 0.06096
0.9 0.05343
0.95 0.05196
1 0.04775
1.05 0.04031
1.1 0.04017
1.15 0.04188
1.2 0.04191
1.25 0.04093
1.3 0.043
1.35 0.03937
1.4 0.03445
1.45 0.02708
1.5 0.02407
1.55 0.02748
1.6 0.02726
1.65 0.02766
1.7 0.02522
1.75 0.02097
1.8 0.01767
1.85 0.01356
1.9 0.0143
1.95 0.01227
2 0.01031
2.05 0.01146
2.1 0.01748
2.15 0.02696
2.2 0.03147
2.25 0.0354
2.3 0.03732
2.35 0.03501
2.4 0.03319
2.45 0.03197
2.5 0.03461
2.55 0.0397
2.6 0.03865
2.65 0.03333
2.7 0.02829
2.75 0.02844
2.8 0.02472
2.85 0.01992
2.9 0.01641
2.95 0.01344
3 0.00891
3.05 0.00612
3.1 0.00821
3.15 0.01117
3.2 0.01334
3.25 0.01898
3.3 0.02686
3.35 0.03084
3.4 0.03398
3.45 0.03314
3.5 0.03494
3.55 0.03076
3.6 0.02856
3.65 0.02307
3.7 0.01519
3.75 0.01313
3.8 0.0083
3.85 0.00807
3.9 0.00843
3.95 0.01125
4 0.01411
4.05 0.01308
4.1 0.00942
4.15 0.00531
4.2 -0.00135
4.25 -0.00185
4.3 -0.005
4.35 -0.00891
4.4 -0.01517
4.45 -0.02385
4.5 -0.02689
4.55 -0.0332
4.6 -0.04314
4.65 -0.05942
4.7 -0.07445
4.75 -0.09248
4.8 -0.11764
4.85 -0.14369
4.9 -0.17675
4.95 -0.21582
5 -0.26022
5.05 -0.31004
5.1 -0.35691
5.15 -0.40849
5.2 -0.46439
5.25 -0.52829
5.3 -0.5996
5.35 -0.67792
5.4 -0.76347
5.45 -0.85302
5.5 -0.94093
5.55 -1.03325
5.6 -1.1249
5.65 -1.223
5.7 -1.32504
5.75 -1.42081
5.8 -1.52
5.85 -1.61826
5.9 -1.71121
5.95 -1.79684
6 -1.87662
6.05 -1.95586
6.1 -2.036
6.15 -2.10833
6.2 -2.17502
6.25 -2.23935
6.3 -2.30065
6.35 -2.35886
6.4 -2.40482
6.45 -2.44426
6.5 -2.47129
6.55 -2.48784
6.6 -2.49935
6.65 -2.50034
6.7 -2.4905
6.75 -2.47182
6.8 -2.43619
6.85 -2.38363
6.9 -2.31847
6.95 -2.23648
7 -2.13912
7.05 -2.02575
7.1 -1.89886
7.15 -1.75132
7.2 -1.5903
7.25 -1.41953
7.3 -1.23354
7.35 -1.04057
7.4 -0.83736
7.45 -0.62881
7.5 -0.41671
7.55 -0.20627
7.6 0.00147
7.65 0.19968
7.7 0.3919
7.75 0.57695
7.8 0.75316
7.85 0.92466
7.9 1.08165
7.95 1.2289
8 1.36363
8.05 1.49244
8.1 1.60718
8.15 1.70896
8.2 1.79928
8.25 1.88361
8.3 1.95594
8.35 2.02295
8.4 2.07891
8.45 2.12785
8.5 2.16684
8.55 2.19714
8.6 2.22308
8.65 2.23905
8.7 2.24368
8.75 2.2484
8.8 2.24441
8.85 2.23962
8.9 2.22782
8.95 2.21268
9 2.19815
9.05 2.18242
9.1 2.17022
9.15 2.16029
9.2 2.15034
9.25 2.13177
9.3 2.11593
9.35 2.09891
9.4 2.07563
9.45 2.05334
9.5 2.0306
9.55 2.0064
9.6 1.97889
9.65 1.94938
9.7 1.91774
9.75 1.88825
9.8 1.85587
9.85 1.82065
9.9 1.78861
9.95 1.75041
10 1.71111
10.05 1.67122
10.1 1.62758
10.15 1.58193
10.2 1.53378
10.25 1.48889
10.3 1.44618
10.35 1.3993
10.4 1.3514
10.45 1.30358
10.5 1.26067
10.55 1.21363
10.6 1.16697
10.65 1.12287
10.7 1.07717
10.75 1.0334
10.8 0.98626
10.85 0.94108
10.9 0.90014
10.95 0.85663
11 0.81021
11.05 0.76326
11.1 0.71447
11.15 0.6671
11.2 0.62195
11.25 0.57681
11.3 0.53345
11.35 0.49653
11.4 0.45486
11.45 0.41314
11.5 0.37352
11.55 0.34011
11.6 0.30184
11.65 0.26091
11.7 0.22718
11.75 0.19745
11.8 0.16677
11.85 0.13953
11.9 0.10706
11.95 0.0712
12 0.04071
12.05 0.01421
12.1 -0.01214
12.15 -0.03923
12.2 -0.06555
12.25 -0.08649
12.3 -0.10751
12.35 -0.12346
12.4 -0.14373
12.45 -0.16243
12.5 -0.17694
12.55 -0.19064
12.6 -0.20448
12.65 -0.22113
12.7 -0.24193
12.75 -0.25826
12.8 -0.27329
12.85 -0.28993
12.9 -0.30788
12.95 -0.32528
13 -0.34103
13.05 -0.35606
13.1 -0.36779
13.15 -0.37267
13.2 -0.37811
13.25 -0.38269
13.3 -0.38554
13.35 -0.38193
13.4 -0.37713
13.45 -0.37726
13.5 -0.37274
13.55 -0.36682
13.6 -0.3588
13.65 -0.35432
13.7 -0.35299
13.75 -0.34907
13.8 -0.3525
13.85 -0.35808
13.9 -0.36106
13.95 -0.36414
14 -0.36379
14.05 -0.35886
14.1 -0.35693
14.15 -0.35503
14.2 -0.35473
14.25 -0.35759
14.3 -0.35724
14.35 -0.35301
14.4 -0.3471
14.45 -0.34138
14.5 -0.3337
14.55 -0.32722
14.6 -0.32204
14.65 -0.32129
14.7 -0.31761
14.75 -0.31314
14.8 -0.30605
14.85 -0.3023
14.9 -0.30235
14.95 -0.2987
15 -0.29558
15.05 -0.29113
15.1 -0.28738
15.15 -0.28182
15.2 -0.27403
15.25 -0.26547
15.3 -0.26
15.35 -0.25627
15.4 -0.25413
15.45 -0.25605
15.5 -0.25496
15.55 -0.25689
15.6 -0.26171
15.65 -0.26632
15.7 -0.26649
15.75 -0.2605
15.8 -0.25231
15.85 -0.24111
15.9 -0.23704
15.95 -0.23061
16 -0.22682
16.05 -0.22487
16.1 -0.21844
16.15 -0.21266
16.2 -0.20408
16.25 -0.20217
16.3 -0.19799
16.35 -0.19446
16.4 -0.19491
16.45 -0.19893
16.5 -0.19655
16.55 -0.19125
16.6 -0.19144
16.65 -0.19241
16.7 -0.19175
16.75 -0.1874
16.8 -0.18704
16.85 -0.18399
16.9 -0.17962
16.95 -0.17718
17 -0.17646
17.05 -0.17351
17.1 -0.17203
17.15 -0.16762
17.2 -0.16457
17.25 -0.16359
17.3 -0.16252
17.35 -0.15673
17.4 -0.1472
17.45 -0.14426
17.5 -0.14462
17.55 -0.14432
17.6 -0.14579
17.65 -0.14191
17.7 -0.13686
17.75 -0.1341
17.8 -0.13152
17.85 -0.13123
17.9 -0.13464
17.95 -0.13581
18 -0.1365
18.05 -0.13829
18.1 -0.13873
18.15 -0.14057
18.2 -0.14232
18.25 -0.14424
18.3 -0.14662
18.35 -0.14765
18.4 -0.14057
18.45 -0.1349
18.5 -0.12407
18.55 -0.11014
18.6 -0.0958
18.65 -0.08755
18.7 -0.07852
18.75 -0.07708
18.8 -0.07794
18.85 -0.08005
18.9 -0.08234
18.95 -0.08369
19 -0.08066
19.05 -0.07501
19.1 -0.06923
19.15 -0.06232
19.2 -0.0608
19.25 -0.05739
19.3 -0.06069
19.35 -0.06839
19.4 -0.07091
19.45 -0.07263
19.5 -0.07177
19.55 -0.07223
19.6 -0.07537
19.65 -0.07767
19.7 -0.07615
19.75 -0.07525
19.8 -0.07776
19.85 -0.07668
19.9 -0.07399
19.95 -0.07363
20 -0.0689
20.05 -0.06136
20.1 -0.05666
20.15 -0.05553
20.2 -0.05801
20.25 -0.0564
20.3 -0.05569
20.35 -0.05355
20.4 -0.04924
20.45 -0.05094
20.5 -0.04954
20.55 -0.04613
20.6 -0.04375
20.65 -0.04473
20.7 -0.04455
20.75 -0.04331
20.8 -0.04634
20.85 -0.0504
20.9 -0.05595
20.95 -0.05852
21 -0.06208
21.05 -0.06583
21.1 -0.06817
21.15 -0.06904
21.2 -0.06701
21.25 -0.06801
21.3 -0.06935
21.35 -0.06437
21.4 -0.05585
21.45 -0.05209
21.5 -0.05274
21.55 -0.0473
21.6 -0.04408
21.65 -0.04467
21.7 -0.04455
21.75 -0.04399
21.8 -0.04473
21.85 -0.0419
21.9 -0.04252
21.95 -0.04588
22 -0.04731
22.05 -0.05002
22.1 -0.04668
22.15 -0.04727
22.2 -0.04548
22.25 -0.04389
22.3 -0.04365
22.35 -0.04004
22.4 -0.03524
22.45 -0.0357
22.5 -0.03202
22.55 -0.02731
22.6 -0.01984
22.65 -0.0137
22.7 -0.01281
22.75 -0.01587
22.8 -0.0165
22.85 -0.01724
22.9 -0.01361
22.95 -0.01036
23 -0.00547
23.05 -0.00436
23.1 -0.00501
23.15 -0.005
23.2 -0.00714
23.25 -0.01151
23.3 -0.018
23.35 -0.01983
23.4 -0.02294
23.45 -0.0265
23.5 -0.03154
23.55 -0.03651
23.6 -0.04093
23.65 -0.04114
23.7 -0.03869
23.75 -0.03539
23.8 -0.03428
23.85 -0.03277
23.9 -0.02916
23.95 -0.02812
24 -0.02241
24.05 -0.01654
24.1 -0.01233
24.15 -0.00808
24.2 -0.00883
24.25 -0.01304
24.3 -0.01924
24.35 -0.0265
24.4 -0.03243
24.45 -0.03082
24.5 -0.02782
24.55 -0.02394
24.6 -0.02321
24.65 -0.02005
24.7 -0.02126
24.75 -0.02282
24.8 -0.01925
24.85 -0.01393
24.9 -0.01343
24.95 -0.00894
25 -0.00816
25.05 -0.007
25.1 -0.00863
25.15 -0.01378
25.2 -0.01372
25.25 -0.01737
25.3 -0.01652
25.35 -0.01812
25.4 -0.01939
25.45 -0.02367
25.5 -0.02685
25.55 -0.02912
25.6 -0.02419
25.65 -0.01605
25.7 -0.00604
25.75 0.00228
25.8 0.00765
25.85 0.00947
25.9 0.01383
25.95 0.01901
26 0.01641
26.05 0.00896
26.1 0.00122
26.15 -0.00741
26.2 -0.01423
26.25 -0.0202
26.3 -0.02442
26.35 -0.02336
26.4 -0.01803
26.45 -0.00983
26.5 -0.00516
26.55 -0.00611
26.6 -0.00311
26.65 -0.00499
26.7 -0.01063
26.75 -0.0093
26.8 -0.00962
26.85 -0.01316
26.9 -0.01157
26.95 -0.01416
27 -0.01866
27.05 -0.02025
27.1 -0.01836
27.15 -0.0134
27.2 -0.00792
27.25 -0.00646
27.3 -0.00202
27.35 0.00398
27.4 0.00886
27.45 0.01098
27.5 0.00715
27.55 0.00241
27.6 0.00306
27.65 0.00284
27.7 -0.0014
27.75 -0.0019
27.8 -0.00554
27.85 -0.00619
27.9 -0.00765
27.95 -0.00869
28 -0.01114
28.05 -0.00922
28.1 -0.01114
28.15 -0.01129
28.2 -0.01431
28.25 -0.01293
28.3 -0.00833
28.35 -0.00914
28.4 -0.01218
28.45 -0.01533
28.5 -0.01467
28.55 -0.01598
28.6 -0.01235
28.65 -0.00772
28.7 -0.00389
28.75 0.00075
28.8 0.00777
28.85 0.01022
28.9 0.01071
28.95 0.00785
29 0.00272
29.05 0.0006
29.1 -0.00015
29.15 -0.00029
29.2 0.00163
29.25 0.00704
29.3 0.01109
29.35 0.01002
29.4 0.00684
29.45 0.00783
29.5 0.01155
29.55 0.0118
29.6 0.01346
29.65 0.01517
29.7 0.01357
29.75 0.01064
29.8 0.00638
29.85 0.00561
29.9 0.00379
29.95 0.00455
30 0.00186
30.05 0.00206
30.1 0.00381
30.15 0.0052
30.2 0.00833
30.25 0.01006
30.3 0.01421
30.35 0.01782
30.4 0.01843
30.45 0.01427
30.5 0.01383
30.55 0.01282
30.6 0.01403
30.65 0.01308
30.7 0.01432
30.75 0.01643
30.8 0.01566
30.85 0.01775
30.9 0.01502
30.95 0.00977
31 0.00491
31.05 -0.00354
31.1 -0.00581
31.15 -0.01065
31.2 -0.0179
31.25 -0.02439
31.3 -0.02799
31.35 -0.02521
31.4 -0.01918
31.45 -0.0155
31.5 -0.00882
31.55 -0.00808
31.6 -0.0077
31.65 -0.01115
31.7 -0.01237
31.75 -0.00878
31.8 -0.00533
31.85 0.00116
31.9 0.00266
31.95 0.00763
32 0.00909
32.05 0.0108
32.1 0.01295
32.15 0.014
32.2 0.00921
32.25 0.00775
32.3 0.00822
32.35 0.00321
32.4 -0.00143
32.45 -0.00122
32.5 -0.00519
32.55 -0.01145
32.6 -0.01647
32.65 -0.01496
32.7 -0.01016
32.75 -0.00928
32.8 -0.00598
32.85 -0.00647
32.9 -0.00437
32.95 0.00163
33 0.00709
33.05 0.01397
33.1 0.0144
33.15 0.01302
33.2 0.01025
33.25 0.00394
33.3 -0.00265
33.35 -0.00692
33.4 -0.00587
33.45 -0.00623
33.5 -0.00742
33.55 -0.00499
33.6 -0.00646
33.65 -0.00716
33.7 -0.01026
33.75 -0.01434
33.8 -0.01758
33.85 -0.0156
33.9 -0.01576
33.95 -0.01517
34 -0.01586
34.05 -0.01359
34.1 -0.01482
34.15 -0.01309
34.2 -0.01405
34.25 -0.01553
34.3 -0.01852
34.35 -0.01653
34.4 -0.01172
34.45 -0.00639
34.5 0.00187
34.55 0.01046
34.6 0.01606
34.65 0.01768
34.7 0.01295
34.75 0.00885
34.8 0.00497
34.85 0.00224
34.9 0.00262
34.95 0.00672
35 0.01131
35.05 0.00939
35.1 0.00617
35.15 0.0017
35.2 0.00267
35.25 -0.00044
35.3 -0.00599
35.35 -0.00997
35.4 -0.01189
35.45 -0.01041
35.5 -0.01129
35.55 -0.00838
35.6 -0.00272
35.65 0.00453
35.7 0.01208
35.75 0.01222
35.8 0.01292
35.85 0.00902
35.9 0.00205
35.95 -0.00342
36 -0.00658
36.05 -0.01258
36.1 -0.0154
36.15 -0.02064
36.2 -0.01817
36.25 -0.0198
36.3 -0.01726
36.35 -0.01529
36.4 -0.01244
36.45 -0.00519
36.5 -0.00072
36.55 0.0022
36.6 -0.00032
36.65 0.00203
36.7 0.00183
36.75 0.00347
36.8 0.00106
36.85 -0.00208
36.9 -0.00186
36.95 0.00229
37 0.00484
37.05 0.00438
37.1 0.00646
37.15 0.0075
37.2 0.01085
37.25 0.01365
37.3 0.01152
37.35 0.01232
37.4 0.01488
37.45 0.0125
37.5 0.00807
37.55 0.00396
37.6 0.00128
37.65 -0.0015
37.7 -0.00205
37.75 -0.00335
37.8 -0.00314
37.85 -0.00188
37.9 -0.00299
37.95 -0.00792
38 -0.01449
38.05 -0.02058
38.1 -0.01842
38.15 -0.01124
38.2 -0.00438
38.25 -0.00067
38.3 -0.00016
38.35 -0.00326
38.4 -0.00796
38.45 -0.00965
38.5 -0.01426
38.55 -0.01407
38.6 -0.01428
38.65 -0.01613
38.7 -0.01585
38.75 -0.01382
38.8 -0.01594
38.85 -0.01807
38.9 -0.02023
38.95 -0.01614
39 -0.01533
39.05 -0.01161
39.1 -0.00931
39.15 -0.01066
39.2 -0.00953
39.25 -0.00635
39.3 0.00041
39.35 0.00904
39.4 0.01271
39.45 0.01539
39.5 0.0158
39.55 0.0121
39.6 0.00788
39.65 0.00713
39.7 0.00884
39.75 0.01249
39.8 0.01625
39.85 0.01487
39.9 0.01456
39.95 0.01435
40 0.01168
40.05 0.01303
40.1 0.00847
40.15 0.00909
40.2 0.0047
40.25 0.00337
40.3 -0.00244
40.35 -0.00257
40.4 -0.00482
40.45 -0.00551
40.5 -0.00402
40.55 -0.00036
40.6 -0.0014
40.65 -0.00265
40.7 0.00015
40.75 -0.00053
40.8 -0.0018
40.85 0.00079
40.9 0.0053
40.95 0.01163
41 0.01712
41.05 0.02062
41.1 0.02431
41.15 0.02849
41.2 0.03126
41.25 0.0314
41.3 0.02405
41.35 0.01839
41.4 0.0151
41.45 0.01581
41.5 0.01737
41.55 0.01548
41.6 0.01053
41.65 0.0033
41.7 0.0009
41.75 -0.00382
41.8 -0.00777
41.85 -0.00829
41.9 -0.00451
41.95 -0.00002
42 0.0023
42.05 -0.00138
42.1 -0.00569
42.15 -0.00956
42.2 -0.01512
42.25 -0.02078
42.3 -0.02267
42.35 -0.02427
42.4 -0.02295
42.45 -0.02471
42.5 -0.02475
42.55 -0.02059
42.6 -0.0201
42.65 -0.01673
42.7 -0.01432
42.75 -0.01369
42.8 -0.01054
42.85 -0.00849
42.9 -0.00565
42.95 -0.00378
43 -0.002
43.05 0.00331
43.1 0.00762
43.15 0.0076
43.2 0.00502
43.25 -0.00039
43.3 -0.00833
43.35 -0.01026
43.4 -0.01268
43.45 -0.0171
43.5 -0.01404
43.55 -0.00683
43.6 -0.00361
43.65 0.00233
43.7 0.00963
43.75 0.01107
43.8 0.00755
43.85 0.00102
43.9 -0.00178
43.95 -0.00568
44 -0.00658
44.05 -0.00982
44.1 -0.01009
44.15 -0.01374
44.2 -0.01319
44.25 -0.01352
44.3 -0.01551
44.35 -0.01804
44.4 -0.02192
44.45 -0.02434
44.5 -0.02112
44.55 -0.01336
44.6 -0.00857
44.65 -0.00562
44.7 0.00133
44.75 0.00673
44.8 0.00781
44.85 0.00507
44.9 0.00419
44.95 0.00237
45 0.00418
45.05 0.00919
45.1 0.01095
45.15 0.01079
45.2 0.00555
45.25 0.00236
45.3 -0.0037
45.35 -0.01122
45.4 -0.01796
45.45 -0.01893
45.5 -0.01489
45.55 -0.01359
45.6 -0.01129
45.65 -0.01097
45.7 -0.01046
45.75 -0.00554
45.8 -0.00209
45.85 0.00139
45.9 0.00324
45.95 0.00731
46 0.00743
46.05 0.01139
46.1 0.01479
46.15 0.01241
46.2 0.00904
46.25 0.01063
46.3 0.01236
46.35 0.00854
46.4 0.00695
46.45 0.00202
46.5 0.00201
46.55 -0.00135
46.6 -0.00341
46.65 -0.00251
46.7 -0.00142
46.75 -0.00422
46.8 -0.00869
46.85 -0.01414
46.9 -0.01486
46.95 -0.01603
47 -0.0132
47.05 -0.00891
47.1 -0.00283
47.15 0.00465
47.2 0.00629
47.25 0.01121
47.3 0.01412
47.35 0.01404
47.4 0.0154
47.45 0.0174
47.5 0.02009
47.55 0.02245
47.6 0.0249
47.65 0.02866
47.7 0.02606
47.75 0.01905
47.8 0.00881
47.85 0.00012
47.9 -0.00869
47.95 -0.01745
48 -0.02077
48.05 -0.02276
48.1 -0.0232
48.15 -0.02014
48.2 -0.01672
48.25 -0.01196
48.3 -0.00721
48.35 -0.00106
48.4 0.00603
48.45 0.00926
48.5 0.00789
48.55 0.00346
48.6 -0.00025
48.65 -0.00421
48.7 -0.00499
48.75 -0.00598
48.8 -0.00632
48.85 -0.00902
48.9 -0.01132
48.95 -0.01141
49 -0.0117
49.05 -0.01271
49.1 -0.01019
49.15 -0.00379
49.2 0.00186
49.25 0.00229
49.3 0.0007
49.35 0.00062
49.4 -0.00178
49.45 -0.00586
49.5 -0.00891
49.55 -0.01232
49.6 -0.01234
49.65 -0.00667
49.7 0.00126
49.75 0.00551
49.8 0.00743
49.85 0.009
49.9 0.01337
49.95 0.01651
50 0.01903
50.05 0.0149
50.1 0.01394
50.15 0.0085
50.2 0.00071
50.25 -0.00656
50.3 -0.01137
50.35 -0.0111
50.4 -0.01241
50.45 -0.01654
50.5 -0.01585
50.55 -0.01822
50.6 -0.01574
50.65 -0.01338
50.7 -0.01267
50.75 -0.01159
50.8 -0.00879
50.85 -0.00577
50.9 -0.00616
50.95 -0.00715
51 -0.00253
51.05 -0.00095
51.1 0.00277
51.15 0.00118
51.2 -0.00184
51.25 -0.00129
51.3 0.00089
51.35 0.00256
51.4 0.00262
51.45 -0.00168
51.5 -0.00476
51.55 -0.00317
51.6 0.00285
51.65 0.00988
51.7 0.00952
51.75 0.01174
51.8 0.01657
51.85 0.02196
51.9 0.02392
51.95 0.02633
52 0.02813
52.05 0.02326
52.1 0.01849
52.15 0.01677
52.2 0.01619
52.25 0.01571
52.3 0.01128
52.35 0.01026
52.4 0.00566
52.45 -0.00077
52.5 -0.00854
52.55 -0.0102
52.6 -0.01248
52.65 -0.01682
52.7 -0.01804
52.75 -0.02143
52.8 -0.02415
52.85 -0.0244
52.9 -0.02128
52.95 -0.01708
53 -0.01002
53.05 -0.0073
53.1 -0.0007
53.15 -0.00044
53.2 0.00311
53.25 0.00542
53.3 0.00511
53.35 0.0038
53.4 -0.00111
53.45 -0.0021
53.5 0.00105
53.55 0.00064
53.6 -0.00053
53.65 0.00242
53.7 0.0026
53.75 0.00162
53.8 -0.00291
53.85 -0.00462
53.9 -0.00924
53.95 -0.01252
54 -0.01502
54.05 -0.01417
54.1 -0.01433
54.15 -0.01664
54.2 -0.01871
54.25 -0.02141
54.3 -0.02332
54.35 -0.01883
54.4 -0.0138
54.45 -0.01028
54.5 -0.00635
54.55 -0.00094
54.6 -0.00034
54.65 0.00223
54.7 0.00291
54.75 0.00745
54.8 0.01373
54.85 0.01692
54.9 0.01741
54.95 0.01273
55 0.00599
55.05 0.00152
55.1 0.00325
55.15 0.00077
55.2 -0.00122
55.25 -0.00245
55.3 -0.00724
55.35 -0.00655
55.4 -0.00231
55.45 -0.00206
55.5 0.0013
55.55 0.00799
55.6 0.01433
55.65 0.01505
55.7 0.01874
55.75 0.02354
55.8 0.02436
55.85 0.02166
55.9 0.02063
55.95 0.02223
56 0.01685
56.05 0.01179
56.1 0.00789
56.15 0.00335
56.2 -0.00017
56.25 -0.00603
56.3 -0.0077
56.35 -0.01181
56.4 -0.01734
56.45 -0.02256
56.5 -0.02619
56.55 -0.02606
56.6 -0.02329
56.65 -0.01542
56.7 -0.00994
56.75 -0.00738
56.8 -0.00719
56.85 -0.00619
56.9 -0.00929
56.95 -0.00984
57 -0.01091
57.05 -0.015
57.1 -0.01652
57.15 -0.01138
57.2 -0.00752
57.25 -0.00685
57.3 -0.00182
57.35 -0.00241
57.4 -0.00258
57.45 0.00132
57.5 -0.00024
57.55 -0.00506
57.6 -0.01067
57.65 -0.00921
57.7 -0.00583
57.75 -0.00346
57.8 -0.0031
57.85 -0.00601
57.9 -0.00986
57.95 -0.00772
58 -0.00368
58.05 -0.00418
58.1 -0.00138
58.15 -0.00149
58.2 -0.00298
58.25 -0.00497
58.3 -0.00601
58.35 -0.00439
58.4 -0.00072
58.45 0.0016
58.5 0.00423
58.55 0.00929
58.6 0.01529
58.65 0.02132
58.7 0.02062
58.75 0.01748
58.8 0.01057
58.85 0.00388
58.9 0.00389
58.95 0.00552
59 0.00908
59.05 0.01244
59.1 0.01544
59.15 0.01693
59.2 0.01259
59.25 0.0135
59.3 0.01765
59.35 0.02011
59.4 0.02433
59.45 0.0258
59.5 0.02385
59.55 0.01618
59.6 0.01216
59.65 0.01241
59.7 0.01067
59.75 0.00812
59.8 0.00893
59.85 0.01036
59.9 0.00631
59.95 0.00545
60 0.00647
60.05 0.01066
60.1 0.01196
60.15 0.01008
60.2 0.00792
60.25 0.00674
60.3 0.00479
60.35 0.00035
60.4 -0.00368
60.45 -0.00732
60.5 -0.01335
60.55 -0.01407
60.6 -0.00922
60.65 -0.0084
60.7 -0.00866
60.75 -0.00785
60.8 -0.00426
60.85 -0.00465
60.9 -0.00127
60.95 -0.00032
61 0.00282
61.05 0.00225
61.1 0.00403
61.15 0.00822
61.2 0.01048
61.25 0.00649
61.3 0.00434
61.35 0.00608
61.4 0.00791
61.45 0.00462
61.5 -0.00145
61.55 -0.00309
61.6 -0.00599
61.65 -0.0062
61.7 -0.00494
61.75 -0.00276
61.8 -0.00473
61.85 -0.00606
61.9 -0.00521
61.95 -0.00491
62 0.00016
62.05 0.00493
62.1 0.00506
62.15 0.00347
62.2 0.00536
62.25 0.0035
62.3 0.00332
62.35 0.00009
62.4 -0.00018
62.45 -0.00067
62.5 -0.00371
62.55 -0.00724
62.6 -0.005
62.65 -0.00496
62.7 -0.00283
62.75 0.00001
62.8 0.00179
62.85 0.00554
62.9 0.00728
62.95 0.00443
63 -0.0007
63.05 -0.00682
63.1 -0.00796
63.15 -0.00858
63.2 -0.0087
63.25 -0.01268
63.3 -0.01516
63.35 -0.0153
63.4 -0.01273
63.45 -0.01345
63.5 -0.01103
63.55 -0.00709
63.6 -0.00792
63.65 -0.00465
63.7 -0.00463
63.75 0.00012
63.8 0.00171
63.85 -0.00017
63.9 -0.00445
63.95 -0.00363
64 -0.00319
64.05 0.00171
64.1 0.00379
64.15 0.00903
64.2 0.00939
64.25 0.00841
64.3 0.00372
64.35 0.00451
64.4 0.00213
64.45 -0.00363
64.5 -0.00282
64.55 -0.00566
64.6 -0.00981
64.65 -0.00728
64.7 -0.00946
64.75 -0.00721
64.8 -0.00179
64.85 0.00362
64.9 0.01053
64.95 0.01178
65 0.01294
65.05 0.01328
65.1 0.00904
65.15 0.00505
65.2 0.00653
65.25 0.00874
65.3 0.01343
65.35 0.01132
65.4 0.00555
65.45 0.00105
65.5 0.00025
65.55 0.00109
65.6 0.00419
65.65 0.00719
65.7 0.00491
65.75 0.00395
65.8 0.0028
65.85 -0.00221
65.9 -0.00944
65.95 -0.0122
66 -0.01023
66.05 -0.00773
66.1 -0.00182
66.15 0.00339
66.2 0.00267
66.25 0.00505
66.3 0.01044
66.35 0.01205
66.4 0.00974
66.45 0.01078
66.5 0.01054
66.55 0.01376
66.6 0.01066
66.65 0.01035
66.7 0.00784
66.75 0.00742
66.8 0.0036
66.85 0.00268
66.9 0.00103
66.95 0.00339
67 0.00761
67.05 0.00555
67.1 -0.00012
67.15 -0.00715
67.2 -0.00694
67.25 -0.00556
67.3 -0.00302
67.35 -0.00138
67.4 0.00071
67.45 0.00479
67.5 0.00545
67.55 0.00859
67.6 0.00879
67.65 0.00334
67.7 0.00271
67.75 0.0032
67.8 0.00612
67.85 0.01153
67.9 0.01567
67.95 0.01657
68 0.01513
68.05 0.00806
68.1 0.00486
68.15 0.00295
68.2 0.00043
68.25 -0.0062
68.3 -0.01411
68.35 -0.01834
68.4 -0.01909
68.45 -0.01916
68.5 -0.02178
68.55 -0.01905
68.6 -0.01651
68.65 -0.01191
68.7 -0.00712
68.75 -0.0033
68.8 -0.00409
68.85 -0.00764
68.9 -0.01135
68.95 -0.01555
69 -0.01582
69.05 -0.01649
69.1 -0.0201
69.15 -0.02084
69.2 -0.02289
69.25 -0.02518
69.3 -0.02302
69.35 -0.02262
69.4 -0.01797
69.45 -0.01077
69.5 -0.00171
69.55 0.00856
69.6 0.01429
69.65 0.01952
69.7 0.01998
69.75 0.02129
69.8 0.02373
69.85 0.02727
69.9 0.02339
69.95 0.02137
70 0.02023
70.05 0.01427
70.1 0.01335
70.15 0.00872
70.2 0.00712
70.25 0.00739
70.3 0.00552
70.35 0.00416
70.4 0.00034
70.45 -0.00109
70.5 -0.00595
70.55 -0.0102
70.6 -0.01368
70.65 -0.01876
70.7 -0.02139
70.75 -0.02143
70.8 -0.02364
70.85 -0.02469
70.9 -0.02318
70.95 -0.02468
71 -0.01982
71.05 -0.01223
71.1 -0.00795
71.15 -0.00117
71.2 0.00684
71.25 0.01009
71.3 0.01316
71.35 0.0121
71.4 0.01432
71.45 0.01462
71.5 0.01151
71.55 0.01087
71.6 0.01175
71.65 0.00804
71.7 0.00481
71.75 0.00363
71.8 0.00112
71.85 0.00194
71.9 0.0019
71.95 0.00084
72 0.00377
72.05 0.00159
72.1 0.0028
72.15 0.00232
72.2 0.00301
72.25 0.00656
72.3 0.01256
72.35 0.01885
72.4 0.02207
72.45 0.02458
72.5 0.02204
72.55 0.01703
72.6 0.01172
72.65 0.00865
72.7 0.00169
72.75 0.00085
72.8 -0.00048
72.85 0.00062
72.9 -0.00133
72.95 -0.00327
73 -0.00734
73.05 -0.00799
73.1 -0.00479
73.15 -0.0045
73.2 -0.00701
73.25 -0.00494
73.3 -0.00477
73.35 -0.00741
73.4 -0.00656
73.45 -0.00699
73.5 -0.00588
73.55 -0.00838
73.6 -0.00684
73.65 -0.0055
73.7 -0.00764
73.75 -0.01316
73.8 -0.01231
73.85 -0.0145
73.9 -0.01867
73.95 -0.01699
74 -0.01013
74.05 -0.00185
74.1 -0.00066
74.15 0.00223
74.2 0.00364
74.25 0.00365
74.3 0.00265
74.35 0.00204
74.4 -0.00258
74.45 -0.0048
74.5 -0.00555
74.55 -0.00133
74.6 0.00077
74.65 0.00193
74.7 0.0056
74.75 0.00822
74.8 0.007
74.85 0.00383
74.9 0.00311
74.95 0.00641
75 0.0085
75.05 0.0114
75.1 0.01573
75.15 0.02102
75.2 0.01801
75.25 0.01806
75.3 0.01366
75.35 0.00695
75.4 0.00188
75.45 -0.00065
75.5 -0.00596
75.55 -0.00699
75.6 -0.01014
75.65 -0.01591
75.7 -0.01575
75.75 -0.0162
75.8 -0.01119
75.85 -0.00997
75.9 -0.00818
75.95 -0.00405
76 0.00203
76.05 0.00123
76.1 -0.00267
76.15 -0.00972
76.2 -0.01052
76.25 -0.00954
76.3 -0.00483
76.35 -0.00528
76.4 -0.00748
76.45 -0.01281
76.5 -0.01634
76.55 -0.02186
76.6 -0.02464
76.65 -0.02651
76.7 -0.02219
76.75 -0.02096
76.8 -0.02244
76.85 -0.0245
76.9 -0.02645
76.95 -0.0268
77 -0.0286
77.05 -0.02572
77.1 -0.01768
77.15 -0.01434
77.2 -0.01535
77.25 -0.01588
77.3 -0.01451
77.35 -0.01333
77.4 -0.0075
77.45 -0.00006
77.5 0.00914
77.55 0.01771
77.6 0.02243
77.65 0.0204
77.7 0.01466
77.75 0.00894
77.8 0.00506
77.85 0.00354
77.9 -0.00107
77.95 -0.00139
78 -0.00382
78.05 -0.00095
78.1 0.00416
78.15 0.00686
78.2 0.007
78.25 0.00719
78.3 0.00982
78.35 0.00637
78.4 0.00479
78.45 0.00586
78.5 0.00523
78.55 0.00598
78.6 0.00432
78.65 -0.0007
78.7 -0.00541
78.75 -0.01008
78.8 -0.01411
78.85 -0.01079
78.9 -0.00805
78.95 -0.00165
79 0.0068
79.05 0.01554
79.1 0.02088
79.15 0.02468
79.2 0.02193
79.25 0.01421
79.3 0.00958
79.35 0.00308
79.4 -0.00153
79.45 -0.00596
79.5 -0.00769
79.55 -0.00918
79.6 -0.00489
79.65 0.00008
79.7 0.00594
79.75 0.01184
79.8 0.01477
79.85 0.01437
79.9 0.01202
79.95 0.00649
80 0.00627
80.05 0.00816
80.1 0.00755
80.15 0.00853
80.2 0.00934
80.25 0.01335
80.3 0.01074
80.35 0.00554
80.4 0.00232
80.45 -0.00228
80.5 -0.00339
80.55 -0.0013
80.6 -0.00423
80.65 -0.00711
80.7 -0.01273
80.75 -0.01082
80.8 -0.00583
80.85 0.0016
80.9 0.00641
80.95 0.00941
81 0.00952
81.05 0.0083
81.1 0.0069
81.15 0.00486
81.2 0.00098
81.25 -0.00374
81.3 -0.00604
81.35 -0.00746
81.4 -0.00358
81.45 -0.0005
81.5 0.00034
81.55 0.00507
81.6 0.00583
81.65 0.00474
81.7 0.00352
81.75 0.0044
81.8 0.00581
81.85 0.00309
81.9 0.00556
81.95 0.00475
82 0.00782
82.05 0.01038
82.1 0.01395
82.15 0.01766
82.2 0.01755
82.25 0.01744
82.3 0.01809
82.35 0.02111
82.4 0.0254
82.45 0.0283
82.5 0.02962
82.55 0.02898
82.6 0.0228
82.65 0.01459
82.7 0.00643
82.75 0.00439
82.8 0.00008
82.85 -0.00212
82.9 -0.00535
82.95 -0.00487
83 -0.00374
83.05 0.00136
83.1 0.00609
83.15 0.00636
83.2 0.00975
83.25 0.00897
83.3 0.00775
83.35 0.00257
83.4 -0.00284
83.45 -0.00677
83.5 -0.0113
83.55 -0.01352
83.6 -0.01831
83.65 -0.02191
83.7 -0.02652
83.75 -0.02977
83.8 -0.02654
83.85 -0.01916
83.9 -0.01772
83.95 -0.0186
84 -0.01552
84.05 -0.00982
84.1 -0.00582
84.15 -0.00772
84.2 -0.01002
84.25 -0.01402
84.3 -0.01538
84.35 -0.01408
84.4 -0.01511
84.45 -0.01293
84.5 -0.00651
84.55 0.0023
84.6 0.01154
84.65 0.0145
84.7 0.01865
84.75 0.02111
84.8 0.02376
84.85 0.02548
84.9 0.02715
84.95 0.02753
85 0.02079
85.05 0.01666
85.1 0.00888
85.15 0.00223
85.2 -0.00269
85.25 -0.00442
85.3 -0.00455
85.35 -0.003
85.4 -0.00596
85.45 -0.00758
85.5 -0.00709
85.55 -0.00341
85.6 -0.00055
85.65 0.00226
85.7 0.00686
85.75 0.00426
85.8 0.00481
85.85 0.00278
85.9 0.00303
85.95 0.00128
86 -0.00194
86.05 -0.00146
86.1 0.00006
86.15 0.00098
86.2 -0.00183
86.25 -0.00511
86.3 -0.00795
86.35 -0.01136
86.4 -0.01739
86.45 -0.0218
86.5 -0.02578
86.55 -0.02681
86.6 -0.02258
86.65 -0.01894
86.7 -0.01349
86.75 -0.01155
86.8 -0.01179
86.85 -0.01341
86.9 -0.01008
86.95 -0.00546
87 -0.00072
87.05 -0.00239
87.1 -0.00534
87.15 -0.00364
87.2 -0.00664
87.25 -0.00989
87.3 -0.00907
87.35 -0.00538
87.4 -0.00652
87.45 -0.01017
87.5 -0.01141
87.55 -0.00677
87.6 -0.00615
87.65 -0.00926
87.7 -0.01127
87.75 -0.00817
87.8 -0.00415
87.85 -0.00368
87.9 -0.0014
87.95 0.00241
88 0.00198
88.05 0.00203
88.1 0.0042
88.15 0.00309
88.2 0.00032
88.25 -0.0031
88.3 -0.00879
88.35 -0.01577
88.4 -0.01668
88.45 -0.01163
88.5 -0.00681
88.55 -0.00422
88.6 0.00055
88.65 0.00031
88.7 0.00363
88.75 0.00897
88.8 0.00825
88.85 0.01157
88.9 0.01501
88.95 0.01205
89 0.00805
89.05 0.00315
89.1 -0.00489
89.15 -0.01332
89.2 -0.02206
89.25 -0.02826
89.3 -0.03277
89.35 -0.03676
89.4 -0.03792
89.45 -0.03607
89.5 -0.03606
89.55 -0.0315
89.6 -0.02573
89.65 -0.02057
89.7 -0.01685
89.75 -0.01326
89.8 -0.00931
89.85 -0.00523
89.9 0.00151
89.95 0.00624
90 0.01063
90.05 0.01154
90.1 0.0126
90.15 0.01412
90.2 0.01579
90.25 0.02005
90.3 0.01878
90.35 0.01896
90.4 0.01808
90.45 0.01443
90.5 0.01335
90.55 0.01382
90.6 0.01105
90.65 0.01011
90.7 0.01127
90.75 0.00935
90.8 0.00635
90.85 0.0051
90.9 0.00497
90.95 0.00059
91 -0.00076
91.05 -0.00426
91.1 -0.01047
91.15 -0.01187
91.2 -0.01334
91.25 -0.01725
91.3 -0.017
91.35 -0.01409
91.4 -0.0152
91.45 -0.01202
91.5 -0.00841
91.55 -0.00432
91.6 -0.00112
91.65 0.00011
91.7 0.00034
91.75 -0.00328
91.8 -0.00138
91.85 0.00192
91.9 -0.00024
91.95 -0.00534
92 -0.00973
92.05 -0.00859
92.1 -0.00871
92.15 -0.01221
92.2 -0.01345
92.25 -0.00937
92.3 -0.00789
92.35 -0.0044
92.4 -0.00381
92.45 -0.00302
92.5 0.00248
92.55 0.01044
92.6 0.01811
92.65 0.02061
92.7 0.0164
92.75 0.01569
92.8 0.01687
92.85 0.01209
92.9 0.00674
92.95 -0.00159
93 -0.00727
93.05 -0.00829
93.1 -0.00744
93.15 -0.0049
93.2 0.00184
93.25 0.00344
93.3 0.00334
93.35 0.0048
93.4 0.00336
93.45 -0.00074
93.5 -0.00722
93.55 -0.01406
93.6 -0.01496
93.65 -0.0129
93.7 -0.0092
93.75 -0.00487
93.8 0.00142
93.85 0.00659
93.9 0.00681
93.95 0.00583
94 0.00139
94.05 -0.00173
94.1 -0.00511
94.15 -0.00519
94.2 -0.00873
94.25 -0.01295
94.3 -0.01847
94.35 -0.01586
94.4 -0.01537
94.45 -0.0127
94.5 -0.0081
94.55 -0.00252
94.6 0.00539
94.65 0.01349
94.7 0.01663
94.75 0.01913
94.8 0.02383
94.85 0.02417
94.9 0.02488
94.95 0.02215
95 0.02058
95.05 0.01619
95.1 0.01231
95.15 0.0132
95.2 0.01261
95.25 0.01077
95.3 0.00927
95.35 0.00729
95.4 0.00681
95.45 0.01032
95.5 0.01019
95.55 0.01232
95.6 0.01219
95.65 0.00999
95.7 0.01018
95.75 0.01031
95.8 0.00497
95.85 0.00041
95.9 -0.00066
95.95 -0.00167
96 -0.00014
96.05 -0.00238
96.1 0.00088
96.15 0.00135
96.2 -0.00026
96.25 -0.00118
96.3 0.00084
96.35 -0.00206
96.4 -0.00367
96.45 -0.00612
96.5 -0.00684
96.55 -0.00899
96.6 -0.00964
96.65 -0.00527
96.7 0.00078
96.75 0.00777
96.8 0.00741
96.85 0.0087
96.9 0.00431
96.95 -0.00137
97 -0.0068
97.05 -0.01427
97.1 -0.01826
97.15 -0.01931
97.2 -0.01884
97.25 -0.01879
97.3 -0.01858
97.35 -0.02116
97.4 -0.01662
97.45 -0.00797
97.5 -0.00031
97.55 0.0032
97.6 0.00547
97.65 0.00502
97.7 0.00802
97.75 0.00651
97.8 0.00218
97.85 -0.00523
97.9 -0.00842
97.95 -0.0121
98 -0.0166
98.05 -0.01566
98.1 -0.00974
98.15 -0.00496
98.2 0.00175
98.25 0.00925
98.3 0.01289
98.35 0.01744
98.4 0.01733
98.45 0.01293
98.5 0.00954
98.55 0.00857
98.6 0.01095
98.65 0.01287
98.7 0.0142
98.75 0.01572
98.8 0.01925
98.85 0.02179
98.9 0.0237
98.95 0.02034
99 0.01816
99.05 0.01377
99.1 0.00551
99.15 -0.00115
99.2 -0.00153
99.25 0.00133
99.3 0.00094
99.35 -0.00336
99.4 -0.00838
99.45 -0.01448
99.5 -0.01689
99.55 -0.01468
99.6 -0.01209
99.65 -0.00688
99.7 -0.00157
99.75 -0.00114
99.8 -0.00119
99.85 -0.00488
99.9 -0.00951
99.95 -0.01012
