0 0
0.05 0.00044
0.1 0.0069
0.15 0.01368
0.2 0.02388
0.25 0.03246
0.3 0.03686
0.35 0.03822
0.4 0.04383
0.45 0.0493
0.5 0.05641
0.55 0.05814
0.6 0.06181
0.65 0.06041
0.7 0.05454
0.75 0.05075
0.8 0.04717
0.85 0.04291
0.9 0.03865
0.95 0.03907
1 0.04208
1.05 0.04467
1.1 0.04957
1.15 0.05377
1.2 0.05273
1.25 0.05181
1.3 0.05106
1.35 0.05027
1.4 0.04808
1.45 0.0487
1.5 0.04927
1.55 0.04624
1.6 0.04512
1.65 0.04017
1.7 0.03482
1.75 0.03367
1.8 0.0295
1.85 0.02501
1.9 0.02704
1.95 0.02819
2 0.02703
2.05 0.03044
2.1 0.03421
2.15 0.03395
2.2 0.03756
2.25 0.03738
2.3 0.03959
2.35 0.03893
2.4 0.0412
2.45 0.04461
2.5 0.04838
2.55 0.04758
2.6 0.0409
2.65 0.03315
2.7 0.02463
2.75 0.01651
2.8 0.01406
2.85 0.01337
2.9 0.01522
2.95 0.01465
3 0.01126
3.05 0.00843
3.1 0.00932
3.15 0.0095
3.2 0.00767
3.25 0.00842
3.3 0.00948
3.35 0.01171
3.4 0.0143
3.45 0.01889
3.5 0.02391
3.55 0.02706
3.6 0.02793
3.65 0.02334
3.7 0.02388
3.75 0.02383
3.8 0.02111
3.85 0.01638
3.9 0.01751
3.95 0.02058
4 0.01819
4.05 0.01511
4.1 0.01375
4.15 0.01577
4.2 0.01306
4.25 0.01327
4.3 0.01207
4.35 0.00678
4.4 -0.00021
4.45 -0.00586
4.5 -0.01454
4.55 -0.02041
4.6 -0.02646
4.65 -0.03683
4.7 -0.04904
4.75 -0.06555
4.8 -0.08945
4.85 -0.11729
4.9 -0.15055
4.95 -0.1901
5 -0.23003
5.05 -0.27307
5.1 -0.32111
5.15 -0.37347
5.2 -0.43184
5.25 -0.49505
5.3 -0.56517
5.35 -0.63985
5.4 -0.72182
5.45 -0.81422
5.5 -0.91123
5.55 -1.00935
5.6 -1.10481
5.65 -1.19693
5.7 -1.28648
5.75 -1.37359
5.8 -1.45869
5.85 -1.54027
5.9 -1.61921
5.95 -1.70268
6 -1.78209
6.05 -1.85648
6.1 -1.92698
6.15 -1.99375
6.2 -2.05367
6.25 -2.10357
6.3 -2.15014
6.35 -2.19596
6.4 -2.23399
6.45 -2.26572
6.5 -2.28869
6.55 -2.30038
6.6 -2.30488
6.65 -2.29438
6.7 -2.27051
6.75 -2.23427
6.8 -2.18313
6.85 -2.12465
6.9 -2.0504
6.95 -1.96568
7 -1.86285
7.05 -1.74278
7.1 -1.61394
7.15 -1.47688
7.2 -1.32463
7.25 -1.16641
7.3 -0.99579
7.35 -0.81908
7.4 -0.63612
7.45 -0.45032
7.5 -0.26107
7.55 -0.0769
7.6 0.09989
7.65 0.27229
7.7 0.44314
7.75 0.60285
7.8 0.75938
7.85 0.90576
7.9 1.04317
7.95 1.17541
8 1.2963
8.05 1.40339
8.1 1.50257
8.15 1.59172
8.2 1.66822
8.25 1.73562
8.3 1.79034
8.35 1.8363
8.4 1.87745
8.45 1.90798
8.5 1.93759
8.55 1.95984
8.6 1.97296
8.65 1.98117
8.7 1.98343
8.75 1.98466
8.8 1.98292
8.85 1.98125
8.9 1.97783
8.95 1.96911
9 1.95905
9.05 1.95226
9.1 1.93937
9.15 1.9246
9.2 1.91295
9.25 1.90101
9.3 1.88956
9.35 1.8751
9.4 1.85902
9.45 1.83995
9.5 1.81521
9.55 1.78477
9.6 1.75522
9.65 1.7207
9.7 1.69157
9.75 1.66472
9.8 1.63284
9.85 1.59884
9.9 1.56559
9.95 1.53018
10 1.49439
10.05 1.45988
10.1 1.42718
10.15 1.39955
10.2 1.37067
10.25 1.34156
10.3 1.30978
10.35 1.27603
10.4 1.24424
10.45 1.21131
10.5 1.17377
10.55 1.13118
10.6 1.08954
10.65 1.04643
10.7 1.00545
10.75 0.96336
10.8 0.92431
10.85 0.88219
10.9 0.84394
10.95 0.8098
11 0.77061
11.05 0.72784
11.1 0.68696
11.15 0.65022
11.2 0.61027
11.25 0.57446
11.3 0.53504
11.35 0.49779
11.4 0.45851
11.45 0.42127
11.5 0.38785
11.55 0.34946
11.6 0.31309
11.65 0.27997
11.7 0.24888
11.75 0.21328
11.8 0.18098
11.85 0.14716
11.9 0.11944
11.95 0.09258
12 0.06744
12.05 0.04117
12.1 0.01736
12.15 -0.01077
12.2 -0.04057
12.25 -0.06235
12.3 -0.08241
12.35 -0.10113
12.4 -0.12341
12.45 -0.1475
12.5 -0.16683
12.55 -0.1865
12.6 -0.20521
12.65 -0.22433
12.7 -0.23635
12.75 -0.24497
12.8 -0.25509
12.85 -0.26021
12.9 -0.26949
12.95 -0.28254
13 -0.28997
13.05 -0.29789
13.1 -0.301
13.15 -0.30611
13.2 -0.31227
13.25 -0.32082
13.3 -0.32815
13.35 -0.33094
13.4 -0.32913
13.45 -0.33144
13.5 -0.33642
13.55 -0.33937
13.6 -0.34085
13.65 -0.34141
13.7 -0.34133
13.75 -0.34168
13.8 -0.34155
13.85 -0.34477
13.9 -0.34848
13.95 -0.35363
14 -0.35866
14.05 -0.35587
14.1 -0.35009
14.15 -0.34636
14.2 -0.33912
14.25 -0.33391
14.3 -0.33264
14.35 -0.33154
14.4 -0.32665
14.45 -0.32263
14.5 -0.31564
14.55 -0.31181
14.6 -0.30506
14.65 -0.30338
14.7 -0.29743
14.75 -0.29183
14.8 -0.28545
14.85 -0.27648
14.9 -0.26798
14.95 -0.2671
15 -0.26353
15.05 -0.26197
15.1 -0.26005
15.15 -0.25597
15.2 -0.25719
15.25 -0.25939
15.3 -0.25682
15.35 -0.25697
15.4 -0.25728
15.45 -0.25607
15.5 -0.25227
15.55 -0.25057
15.6 -0.24347
15.65 -0.23335
15.7 -0.22441
15.75 -0.21686
15.8 -0.20976
15.85 -0.20385
15.9 -0.19645
15.95 -0.19156
16 -0.18885
16.05 -0.18763
16.1 -0.1857
16.15 -0.18579
16.2 -0.18663
16.25 -0.18948
16.3 -0.19347
16.35 -0.19262
16.4 -0.18979
16.45 -0.18565
16.5 -0.1784
16.55 -0.17097
16.6 -0.16734
16.65 -0.16587
16.7 -0.16927
16.75 -0.16774
16.8 -0.16844
16.85 -0.16365
16.9 -0.15915
16.95 -0.15632
17 -0.15567
17.05 -0.15287
17.1 -0.15225
17.15 -0.14756
17.2 -0.14759
17.25 -0.15078
17.3 -0.15573
17.35 -0.16109
17.4 -0.16061
17.45 -0.15806
17.5 -0.15662
17.55 -0.14972
17.6 -0.14479
17.65 -0.13535
17.7 -0.12699
17.75 -0.12065
17.8 -0.11222
17.85 -0.10958
17.9 -0.10522
17.95 -0.10545
18 -0.10563
18.05 -0.10521
18.1 -0.10979
18.15 -0.11247
18.2 -0.11018
18.25 -0.10667
18.3 -0.10728
18.35 -0.10835
18.4 -0.1089
18.45 -0.10688
18.5 -0.10341
18.55 -0.10228
18.6 -0.10075
18.65 -0.10068
18.7 -0.09655
18.75 -0.08931
18.8 -0.08147
18.85 -0.07901
18.9 -0.07975
18.95 -0.08283
19 -0.08698
19.05 -0.0926
19.1 -0.09849
19.15 -0.09814
19.2 -0.093
19.25 -0.09194
19.3 -0.08658
19.35 -0.08534
19.4 -0.08779
19.45 -0.08384
19.5 -0.08332
19.55 -0.07928
19.6 -0.07266
19.65 -0.07196
19.7 -0.07453
19.75 -0.07443
19.8 -0.07284
19.85 -0.06662
19.9 -0.06167
19.95 -0.0541
20 -0.05323
20.05 -0.04992
20.1 -0.04979
20.15 -0.04952
20.2 -0.05397
20.25 -0.05383
20.3 -0.05719
20.35 -0.05586
20.4 -0.05103
20.45 -0.04465
20.5 -0.03886
20.55 -0.03872
20.6 -0.0403
20.65 -0.04183
20.7 -0.04052
20.75 -0.04102
20.8 -0.04262
20.85 -0.04567
20.9 -0.04622
20.95 -0.04536
21 -0.04283
21.05 -0.04086
21.1 -0.0416
21.15 -0.03888
21.2 -0.0357
21.25 -0.03599
21.3 -0.03352
21.35 -0.03415
21.4 -0.033
21.45 -0.02867
21.5 -0.02952
21.55 -0.03222
21.6 -0.03713
21.65 -0.04041
21.7 -0.03891
21.75 -0.03416
21.8 -0.02887
21.85 -0.02972
21.9 -0.03255
21.95 -0.0318
22 -0.03241
22.05 -0.03212
22.1 -0.0346
22.15 -0.03719
22.2 -0.04272
22.25 -0.0456
22.3 -0.04654
22.35 -0.04631
22.4 -0.04185
22.45 -0.03664
22.5 -0.0368
22.55 -0.03267
22.6 -0.03278
22.65 -0.032
22.7 -0.03172
22.75 -0.03229
22.8 -0.03457
22.85 -0.03077
22.9 -0.02902
22.95 -0.02805
23 -0.02421
23.05 -0.01801
23.1 -0.01785
23.15 -0.01635
23.2 -0.01781
23.25 -0.02231
23.3 -0.02708
23.35 -0.02599
23.4 -0.02519
23.45 -0.02894
23.5 -0.02924
23.55 -0.02612
23.6 -0.02548
23.65 -0.0252
23.7 -0.02347
23.75 -0.02244
23.8 -0.01908
23.85 -0.01252
23.9 -0.00731
23.95 -0.00259
24 -0.00417
24.05 -0.00587
24.1 -0.00584
24.15 -0.0095
24.2 -0.00931
24.25 -0.0067
24.3 -0.00813
24.35 -0.01194
24.4 -0.01249
24.45 -0.01083
24.5 -0.00775
24.55 -0.00381
24.6 0.00172
24.65 0.00612
24.7 0.00555
24.75 0.00114
24.8 -0.00474
24.85 -0.00974
24.9 -0.01427
24.95 -0.0143
25 -0.01103
25.05 -0.01248
25.1 -0.01036
25.15 -0.01405
25.2 -0.0178
25.25 -0.01561
25.3 -0.01182
25.35 -0.00573
25.4 -0.00626
25.45 -0.00278
25.5 0.002
25.55 0.00726
25.6 0.00553
25.65 -0.00187
25.7 -0.01015
25.75 -0.01592
25.8 -0.01525
25.85 -0.01593
25.9 -0.02024
25.95 -0.02047
26 -0.02189
26.05 -0.02459
26.1 -0.02571
26.15 -0.02657
26.2 -0.0245
26.25 -0.02249
26.3 -0.01587
26.35 -0.01343
26.4 -0.01184
26.45 -0.00761
26.5 -0.00568
26.55 -0.00681
26.6 -0.00713
26.65 -0.01034
26.7 -0.01209
26.75 -0.01164
26.8 -0.01212
26.85 -0.00892
26.9 -0.0059
26.95 -0.00337
27 0.0011
27.05 0.0013
27.1 -0.00099
27.15 -0.00266
27.2 -0.00195
27.25 0.00098
27.3 0.00168
27.35 0.00171
27.4 -0.00302
27.45 -0.00414
27.5 -0.00336
27.55 -0.0046
27.6 -0.00523
27.65 -0.01018
27.7 -0.01775
27.75 -0.02219
27.8 -0.02084
27.85 -0.01958
27.9 -0.01526
27.95 -0.01656
28 -0.0186
28.05 -0.02029
28.1 -0.02392
28.15 -0.0274
28.2 -0.02972
28.25 -0.03471
28.3 -0.03297
28.35 -0.02852
28.4 -0.02352
28.45 -0.01987
28.5 -0.01719
28.55 -0.01793
28.6 -0.01929
28.65 -0.02024
28.7 -0.02861
28.75 -0.03888
28.8 -0.04586
28.85 -0.05497
28.9 -0.06445
28.95 -0.06971
29 -0.07983
29.05 -0.09145
29.1 -0.10656
29.15 -0.12443
29.2 -0.1354
29.25 -0.14705
29.3 -0.1603
29.35 -0.1745
29.4 -0.19102
29.45 -0.2042
29.5 -0.2122
29.55 -0.22188
29.6 -0.2341
29.65 -0.247
29.7 -0.26002
29.75 -0.26972
29.8 -0.27369
29.85 -0.27789
29.9 -0.27763
29.95 -0.27767
30 -0.27492
30.05 -0.27136
30.1 -0.26712
30.15 -0.26084
30.2 -0.25164
30.25 -0.24081
30.3 -0.22543
30.35 -0.21029
30.4 -0.1912
30.45 -0.17785
30.5 -0.1658
30.55 -0.14879
30.6 -0.12838
30.65 -0.10682
30.7 -0.082
30.75 -0.05894
30.8 -0.03337
30.85 -0.00847
30.9 0.01573
30.95 0.0391
31 0.06634
31.05 0.09501
31.1 0.11872
31.15 0.13582
31.2 0.15435
31.25 0.17376
31.3 0.19195
31.35 0.2002
31.4 0.20324
31.45 0.20237
31.5 0.20105
31.55 0.20218
31.6 0.20181
31.65 0.20268
31.7 0.2007
31.75 0.19785
31.8 0.19624
31.85 0.19575
31.9 0.19201
31.95 0.1957
32 0.1969
32.05 0.20125
32.1 0.20815
32.15 0.21253
32.2 0.21673
32.25 0.22089
32.3 0.22216
32.35 0.22415
32.4 0.22633
32.45 0.22576
32.5 0.22652
32.55 0.22207
32.6 0.21293
32.65 0.2065
32.7 0.1992
32.75 0.19341
32.8 0.18803
32.85 0.18055
32.9 0.17643
32.95 0.17519
33 0.17831
33.05 0.17972
33.1 0.17767
33.15 0.1777
33.2 0.17136
33.25 0.1642
33.3 0.1547
33.35 0.1427
33.4 0.13577
33.45 0.12929
33.5 0.12085
33.55 0.11598
33.6 0.10888
33.65 0.09925
33.7 0.09185
33.75 0.08362
33.8 0.07481
33.85 0.0641
33.9 0.05182
33.95 0.04214
34 0.03595
34.05 0.03529
34.1 0.03331
34.15 0.03026
34.2 0.02682
34.25 0.02298
34.3 0.02126
34.35 0.01475
34.4 0.00569
34.45 -0.0026
34.5 -0.0113
34.55 -0.01729
34.6 -0.01802
34.65 -0.01799
34.7 -0.01898
34.75 -0.02061
34.8 -0.02612
34.85 -0.03264
34.9 -0.03516
34.95 -0.0353
35 -0.0384
35.05 -0.03783
35.1 -0.03603
35.15 -0.0331
35.2 -0.03266
35.25 -0.03528
35.3 -0.03423
35.35 -0.02938
35.4 -0.02257
35.45 -0.01682
35.5 -0.01863
35.55 -0.01703
35.6 -0.01386
35.65 -0.01178
35.7 -0.0157
35.75 -0.02123
35.8 -0.02398
35.85 -0.02329
35.9 -0.01976
35.95 -0.01714
36 -0.01765
36.05 -0.01829
36.1 -0.02117
36.15 -0.02208
36.2 -0.02228
36.25 -0.02179
36.3 -0.01942
36.35 -0.01866
36.4 -0.02186
36.45 -0.02311
36.5 -0.0292
36.55 -0.03024
36.6 -0.02705
36.65 -0.02769
36.7 -0.02933
36.75 -0.03017
36.8 -0.02809
36.85 -0.02637
36.9 -0.0291
36.95 -0.03023
37 -0.03098
37.05 -0.02696
37.1 -0.02362
37.15 -0.01966
37.2 -0.01949
37.25 -0.01607
37.3 -0.01169
37.35 -0.00591
37.4 -0.00385
37.45 -0.00926
37.5 -0.01552
37.55 -0.01716
37.6 -0.02338
37.65 -0.02571
37.7 -0.02997
37.75 -0.03035
37.8 -0.02775
37.85 -0.02672
37.9 -0.02503
37.95 -0.02339
38 -0.02299
38.05 -0.02747
38.1 -0.02857
38.15 -0.02598
38.2 -0.02119
38.25 -0.02258
38.3 -0.02076
38.35 -0.02171
38.4 -0.02561
38.45 -0.02676
38.5 -0.02984
38.55 -0.03021
38.6 -0.03225
38.65 -0.03493
38.7 -0.03592
38.75 -0.03923
38.8 -0.03542
38.85 -0.02751
38.9 -0.0248
38.95 -0.0236
39 -0.02581
39.05 -0.02575
39.1 -0.0279
39.15 -0.02977
39.2 -0.03385
39.25 -0.03248
39.3 -0.02636
39.35 -0.02295
39.4 -0.01878
39.45 -0.02012
39.5 -0.02084
39.55 -0.02414
39.6 -0.02117
39.65 -0.02126
39.7 -0.0164
39.75 -0.01354
39.8 -0.0138
39.85 -0.0092
39.9 -0.00295
39.95 0.00252
40 0.00913
40.05 0.01536
40.1 0.0166
40.15 0.0147
40.2 0.01546
40.25 0.0137
40.3 0.01307
40.35 0.00614
40.4 0.0041
40.45 -0.0021
40.5 -0.00246
40.55 -0.00228
40.6 -0.0003
40.65 -0.00298
40.7 -0.00493
40.75 -0.00337
40.8 -0.0075
40.85 -0.01243
40.9 -0.01161
40.95 -0.01454
41 -0.01844
41.05 -0.01621
41.1 -0.01212
41.15 -0.01115
41.2 -0.01423
41.25 -0.0164
41.3 -0.02126
41.35 -0.02238
41.4 -0.02221
41.45 -0.0206
41.5 -0.02246
41.55 -0.02067
41.6 -0.01515
41.65 -0.0137
41.7 -0.01514
41.75 -0.01405
41.8 -0.01508
41.85 -0.0161
41.9 -0.01228
41.95 -0.00965
42 -0.0056
42.05 -0.00233
42.1 0.00092
42.15 0.00224
42.2 0.00131
42.25 -0.00268
42.3 -0.0056
42.35 -0.00481
42.4 -0.00542
42.45 -0.00598
42.5 -0.00736
42.55 -0.00668
42.6 -0.0038
42.65 -0.00208
42.7 -0.00129
42.75 0.0025
42.8 0.00046
42.85 0.00254
42.9 0.00429
42.95 0.00296
43 -0.00058
43.05 -0.00771
43.1 -0.01274
43.15 -0.01154
43.2 -0.01015
43.25 -0.01127
43.3 -0.01143
43.35 -0.01147
43.4 -0.01063
43.45 -0.01079
43.5 -0.00917
43.55 -0.00614
43.6 -0.00419
43.65 -0.00095
43.7 -0.00114
43.75 -0.00609
43.8 -0.00727
43.85 -0.00491
43.9 -0.00195
43.95 0.00054
44 -0.00191
44.05 -0.00276
44.1 -0.00207
44.15 -0.00637
44.2 -0.01179
44.25 -0.01239
44.3 -0.0109
44.35 -0.00776
44.4 -0.00212
44.45 -0.0017
44.5 -0.00132
44.55 0.00327
44.6 0.00232
44.65 -0.00077
44.7 -0.00718
44.75 -0.01263
44.8 -0.01184
44.85 -0.00879
44.9 -0.00694
44.95 -0.00843
45 -0.00931
45.05 -0.01127
45.1 -0.01372
45.15 -0.01527
45.2 -0.0154
45.25 -0.01834
45.3 -0.02216
45.35 -0.02225
45.4 -0.0235
45.45 -0.02444
45.5 -0.0221
45.55 -0.01642
45.6 -0.01139
45.65 -0.00608
45.7 -0.00612
45.75 -0.00505
45.8 -0.00394
45.85 -0.00339
45.9 -0.00392
45.95 -0.00669
46 -0.01035
46.05 -0.01127
46.1 -0.01413
46.15 -0.01015
46.2 -0.0065
46.25 -0.00198
46.3 -0.00337
46.35 -0.00371
46.4 -0.00166
46.45 0.00121
46.5 0.00294
46.55 0.00433
46.6 0.00588
46.65 0.00232
46.7 0.00253
46.75 -0.00002
46.8 0.00275
46.85 0.00431
46.9 0.00502
46.95 0.00097
47 0.00276
47.05 0.00419
47.1 0.002
47.15 0.00471
47.2 0.00574
47.25 0.00436
47.3 0.00043
47.35 -0.0063
47.4 -0.0065
47.45 -0.00471
47.5 -0.00672
47.55 -0.00527
47.6 -0.00442
47.65 -0.00791
47.7 -0.00762
47.75 -0.00597
47.8 -0.00422
47.85 -0.00584
47.9 -0.00711
47.95 -0.00664
48 -0.00733
48.05 -0.01104
48.1 -0.01413
48.15 -0.01608
48.2 -0.01669
48.25 -0.01408
48.3 -0.00692
48.35 -0.00504
48.4 -0.00483
48.45 -0.00342
48.5 -0.00014
48.55 0.00089
48.6 -0.00197
48.65 -0.00788
48.7 -0.01243
48.75 -0.01512
48.8 -0.01278
48.85 -0.01089
48.9 -0.01264
48.95 -0.00962
49 -0.00843
49.05 -0.0101
49.1 -0.0113
49.15 -0.01158
49.2 -0.00747
49.25 -0.00693
49.3 -0.00177
49.35 0.00651
49.4 0.01344
49.45 0.01999
49.5 0.02399
49.55 0.02908
49.6 0.03155
49.65 0.03287
49.7 0.03264
49.75 0.02897
49.8 0.02262
49.85 0.01598
49.9 0.00819
49.95 0.00077
50 -0.00553
50.05 -0.01151
50.1 -0.01534
50.15 -0.0199
50.2 -0.01655
50.25 -0.01222
50.3 -0.00598
50.35 -0.00228
50.4 0.003
50.45 0.01024
50.5 0.01603
50.55 0.01705
50.6 0.01455
50.65 0.01042
50.7 0.01123
50.75 0.01301
50.8 0.01519
50.85 0.01532
50.9 0.01862
50.95 0.02116
51 0.01872
51.05 0.01524
51.1 0.01568
51.15 0.01837
51.2 0.01799
51.25 0.01381
51.3 0.01152
51.35 0.00988
51.4 0.00522
51.45 0.00111
51.5 -0.00103
51.55 -0.00544
51.6 -0.00591
51.65 -0.0045
51.7 -0.00788
51.75 -0.0082
51.8 -0.01134
51.85 -0.00834
51.9 -0.00647
51.95 -0.00544
52 -0.00643
52.05 -0.00996
52.1 -0.01436
52.15 -0.01921
52.2 -0.02506
52.25 -0.02643
52.3 -0.02382
52.35 -0.02291
52.4 -0.01791
52.45 -0.00926
52.5 -0.00168
52.55 0.00065
52.6 0.0003
52.65 0.00117
52.7 -0.00047
52.75 0.00171
52.8 0.00626
52.85 0.00794
52.9 0.00646
52.95 0.00487
53 -0.0001
53.05 -0.00393
53.1 -0.0066
53.15 -0.00457
53.2 -0.00677
53.25 -0.00815
53.3 -0.00631
53.35 -0.00753
53.4 -0.01078
53.45 -0.0143
53.5 -0.01199
53.55 -0.0132
53.6 -0.01107
53.65 -0.01047
53.7 -0.00895
53.75 -0.00544
53.8 -0.00206
53.85 -0.00385
53.9 -0.00228
53.95 -0.00274
54 -0.00512
54.05 -0.00551
54.1 -0.00431
54.15 -0.00169
54.2 0.00023
54.25 0.00273
54.3 0.00253
54.35 -0.0013
54.4 -0.00729
54.45 -0.00751
54.5 -0.0027
54.55 0.00312
54.6 0.00219
54.65 0.00206
54.7 -0.0005
54.75 -0.00215
54.8 0.00026
54.85 0.0061
54.9 0.00676
54.95 0.00552
55 0.00904
55.05 0.01217
55.1 0.01515
55.15 0.01593
55.2 0.0134
55.25 0.01506
55.3 0.01078
55.35 0.00842
55.4 0.0052
55.45 0.00716
55.5 0.00491
55.55 0.00466
55.6 0.00678
55.65 0.00935
55.7 0.00718
55.75 0.00087
55.8 0.00056
55.85 -0.00314
55.9 -0.00245
55.95 -0.00602
56 -0.00763
56.05 -0.00765
56.1 -0.00632
56.15 -0.00704
56.2 -0.0105
56.25 -0.00899
56.3 -0.0029
56.35 -0.00098
56.4 0.00159
56.45 -0.00136
56.5 -0.0061
56.55 -0.0044
56.6 -0.0039
56.65 -0.00132
56.7 0.00405
56.75 0.00274
56.8 -0.00174
56.85 -0.00517
56.9 -0.01042
56.95 -0.01239
57 -0.01468
57.05 -0.01882
57.1 -0.01727
57.15 -0.0143
57.2 -0.01145
57.25 -0.01181
57.3 -0.01287
57.35 -0.0112
57.4 -0.01238
57.45 -0.00953
57.5 -0.01062
57.55 -0.01258
57.6 -0.00856
57.65 -0.00515
57.7 0.00073
57.75 0.00181
57.8 0.00015
57.85 -0.00131
57.9 -0.00551
57.95 -0.00801
58 -0.00479
58.05 0.0006
58.1 0.00637
58.15 0.01241
58.2 0.01654
58.25 0.01657
58.3 0.01678
58.35 0.01162
58.4 0.00848
58.45 0.00483
58.5 0.00498
58.55 0.00525
58.6 0.00284
58.65 0.00359
58.7 0.00505
58.75 0.0054
58.8 0.00805
58.85 0.01107
58.9 0.01191
58.95 0.01077
59 0.01041
59.05 0.01391
59.1 0.01866
59.15 0.02443
59.2 0.03058
59.25 0.03181
59.3 0.02992
59.35 0.02488
59.4 0.01925
59.45 0.01546
59.5 0.01291
59.55 0.01077
59.6 0.01027
59.65 0.01257
59.7 0.01028
59.75 0.00349
59.8 -0.00173
59.85 -0.00386
59.9 -0.00961
59.95 -0.01534
60 -0.01503
60.05 -0.00936
60.1 -0.00943
60.15 -0.00991
60.2 -0.00528
60.25 -0.00129
60.3 0.00559
60.35 0.00668
60.4 0.00518
60.45 0.00768
60.5 0.00748
60.55 0.00288
60.6 -0.00211
60.65 -0.0062
60.7 -0.00849
60.75 -0.00486
60.8 -0.00638
60.85 -0.01152
60.9 -0.01564
60.95 -0.02151
61 -0.02695
61.05 -0.02579
61.1 -0.02262
61.15 -0.0214
61.2 -0.01649
61.25 -0.00863
61.3 -0.00471
61.35 -0.0002
61.4 0.00238
61.45 0.004
61.5 0.0049
61.55 0.00672
61.6 0.01087
61.65 0.01682
61.7 0.01498
61.75 0.01477
61.8 0.01022
61.85 0.00925
61.9 0.0047
61.95 0.00597
62 0.00464
62.05 0.00072
62.1 -0.00231
62.15 -0.00775
62.2 -0.0107
62.25 -0.01592
62.3 -0.01415
62.35 -0.01109
62.4 -0.01124
62.45 -0.00651
62.5 -0.0001
62.55 0.00542
62.6 0.01182
62.65 0.01195
62.7 0.00915
62.75 0.00743
62.8 0.00815
62.85 0.00983
62.9 0.00625
62.95 0.00015
63 -0.00468
63.05 -0.00434
63.1 -0.00772
63.15 -0.00611
63.2 -0.00381
63.25 -0.00566
63.3 -0.00376
63.35 -0.00012
63.4 0.00231
63.45 0.00116
63.5 0.00352
63.55 0.00833
63.6 0.01189
63.65 0.0174
63.7 0.0211
63.75 0.02559
63.8 0.02927
63.85 0.02579
63.9 0.02127
63.95 0.01863
64 0.01345
64.05 0.00992
64.1 0.00754
64.15 0.0025
64.2 -0.00465
64.25 -0.01249
64.3 -0.01321
64.35 -0.01011
64.4 -0.01156
64.45 -0.00809
64.5 -0.00244
64.55 0.00044
64.6 -0.00252
64.65 -0.00283
64.7 -0.00562
64.75 -0.00996
64.8 -0.01442
64.85 -0.02061
64.9 -0.01944
64.95 -0.01515
65 -0.00965
65.05 -0.00664
65.1 -0.004
65.15 -0.00158
65.2 0.00435
65.25 0.0048
65.3 0.00875
65.35 0.01313
65.4 0.01811
65.45 0.01542
65.5 0.01519
65.55 0.01549
65.6 0.01812
65.65 0.01676
65.7 0.0175
65.75 0.0162
65.8 0.01672
65.85 0.01303
65.9 0.01172
65.95 0.00519
66 -0.00086
66.05 -0.00561
66.1 -0.00788
66.15 -0.01192
66.2 -0.00951
66.25 -0.00394
66.3 -0.00047
66.35 0.00078
66.4 0.00458
66.45 0.00163
66.5 0.00107
66.55 -0.00104
66.6 -0.00223
66.65 -0.00054
66.7 -0.00158
66.75 -0.00581
66.8 -0.00983
66.85 -0.01401
66.9 -0.01779
66.95 -0.01952
67 -0.01923
67.05 -0.01929
67.1 -0.01707
67.15 -0.01231
67.2 -0.00682
67.25 -0.00006
67.3 0.00823
67.35 0.01538
67.4 0.01599
67.45 0.01625
67.5 0.01384
67.55 0.00803
67.6 0.00719
67.65 0.0038
67.7 -0.00115
67.75 -0.00665
67.8 -0.01337
67.85 -0.01282
67.9 -0.01468
67.95 -0.01167
68 -0.00876
68.05 -0.00841
68.1 -0.00625
68.15 -0.00159
68.2 0.00421
68.25 0.00885
68.3 0.0139
68.35 0.01556
68.4 0.01715
68.45 0.02038
68.5 0.02122
68.55 0.01741
68.6 0.01679
68.65 0.01257
68.7 0.00482
68.75 -0.00493
68.8 -0.01139
68.85 -0.01113
68.9 -0.01015
68.95 -0.00581
69 -0.00577
69.05 -0.00904
69.1 -0.00848
69.15 -0.0059
69.2 -0.00255
69.25 -0.00483
69.3 -0.00157
69.35 -0.00033
69.4 0.00459
69.45 0.01025
69.5 0.00961
69.55 0.01234
69.6 0.00823
69.65 0.00475
69.7 0.00523
69.75 0.00394
69.8 0.00511
69.85 0.00754
69.9 0.00912
69.95 0.00988
70 0.00512
70.05 0.0017
70.1 -0.00078
70.15 -0.00161
70.2 -0.00182
70.25 -0.00154
70.3 0.00026
70.35 -0.00169
70.4 -0.00149
70.45 0.00228
70.5 0.0051
70.55 0.01022
70.6 0.01188
70.65 0.01278
70.7 0.00892
70.75 0.00572
70.8 -0.00138
70.85 -0.00391
70.9 -0.00527
70.95 -0.00777
71 -0.00978
71.05 -0.00916
71.1 -0.01085
71.15 -0.01227
71.2 -0.01053
71.25 -0.00936
71.3 -0.00411
71.35 -0.00254
71.4 -0.00253
71.45 -0.0029
71.5 -0.00349
71.55 -0.00568
71.6 -0.00757
71.65 -0.00675
71.7 -0.00438
71.75 -0.00293
71.8 0.00052
71.85 -0.00054
71.9 -0.00003
71.95 -0.00038
72 0.00144
72.05 0.00518
72.1 0.00361
72.15 0.00124
72.2 -0.00082
72.25 -0.00624
72.3 -0.00782
72.35 -0.00712
72.4 -0.00477
72.45 -0.00638
72.5 -0.01054
72.55 -0.01075
72.6 -0.00793
72.65 -0.00241
72.7 0.0001
72.75 -0.0027
72.8 -0.00209
72.85 0.00203
72.9 0.0004
72.95 0.00018
73 0.00026
73.05 -0.00293
73.1 -0.00674
73.15 -0.01129
73.2 -0.01359
73.25 -0.01106
73.3 -0.00475
73.35 -0.00261
73.4 -0.00464
73.45 -0.00496
73.5 -0.00804
73.55 -0.00839
73.6 -0.00483
73.65 0.0008
73.7 0.0062
73.75 0.00624
73.8 0.00297
73.85 -0.0018
73.9 -0.00877
73.95 -0.0139
74 -0.01678
74.05 -0.02187
74.1 -0.02344
74.15 -0.01904
74.2 -0.01194
74.25 -0.00909
74.3 -0.00537
74.35 -0.00362
74.4 -0.00326
74.45 0.00167
74.5 0.00415
74.55 0.00659
74.6 0.00821
74.65 0.01211
74.7 0.00964
74.75 0.01131
74.8 0.00841
74.85 0.00511
74.9 -0.00065
74.95 -0.00046
75 -0.00156
75.05 -0.00578
75.1 -0.00617
75.15 -0.01059
75.2 -0.00841
75.25 -0.00842
75.3 -0.00831
75.35 -0.00432
75.4 -0.00286
75.45 -0.00548
75.5 -0.0043
75.55 -0.00473
75.6 -0.00168
75.65 0.00273
75.7 0.00155
75.75 0.00065
75.8 0.00029
75.85 0.00325
75.9 0.00748
75.95 0.00616
76 0.0058
76.05 0.00478
76.1 0.00556
76.15 0.00462
76.2 -0.00021
76.25 -0.00699
76.3 -0.01464
76.35 -0.01891
76.4 -0.01804
76.45 -0.01929
76.5 -0.02223
76.55 -0.02469
76.6 -0.02342
76.65 -0.01844
76.7 -0.013
76.75 -0.00628
76.8 -0.00534
76.85 -0.00286
76.9 -0.00326
76.95 -0.00208
77 0.00093
77.05 -0.00003
77.1 -0.00014
77.15 0.00073
77.2 0.00163
77.25 0.0015
77.3 0.00356
77.35 0.00442
77.4 0.00654
77.45 0.00759
77.5 0.01062
77.55 0.00865
77.6 0.00299
77.65 0.0006
77.7 0.00285
77.75 0.00408
77.8 0.0005
77.85 0.00209
77.9 0.00206
77.95 0.00469
78 0.00812
78.05 0.00872
78.1 0.00835
78.15 0.00756
78.2 0.00584
78.25 0.00783
78.3 0.01022
78.35 0.0078
78.4 0.0083
78.45 0.01181
78.5 0.01133
78.55 0.01342
78.6 0.01749
78.65 0.0182
78.7 0.01916
78.75 0.02051
78.8 0.01721
78.85 0.01594
78.9 0.01113
78.95 0.00407
79 0.0023
79.05 -0.00245
79.1 -0.0088
79.15 -0.01158
79.2 -0.01477
79.25 -0.019
79.3 -0.01978
79.35 -0.02292
79.4 -0.02753
79.45 -0.02941
79.5 -0.02639
79.55 -0.02527
79.6 -0.02027
79.65 -0.01881
79.7 -0.01577
79.75 -0.0134
79.8 -0.00685
79.85 -0.00005
79.9 0.00618
79.95 0.01223
80 0.01062
80.05 0.00633
80.1 0.00621
80.15 0.00872
80.2 0.00836
80.25 0.00529
80.3 0.00371
80.35 0.00526
80.4 0.0084
80.45 0.01111
80.5 0.01243
80.55 0.00802
80.6 0.00527
80.65 0.00503
80.7 0.00355
80.75 -0.00115
80.8 -0.00177
80.85 -0.0045
80.9 -0.0016
80.95 -0.00383
81 -0.00319
81.05 -0.00607
81.1 -0.01035
81.15 -0.00799
81.2 -0.00248
81.25 0.00407
81.3 0.00828
81.35 0.01437
81.4 0.0132
81.45 0.01111
81.5 0.00613
81.55 -0.00209
81.6 -0.00273
81.65 -0.0021
81.7 0.00196
81.75 0.0034
81.8 0.00187
81.85 0.00061
81.9 0.0029
81.95 0.00549
82 0.00469
82.05 0.0059
82.1 0.00178
82.15 -0.00462
82.2 -0.00401
82.25 -0.00633
82.3 -0.00854
82.35 -0.00615
82.4 0.00023
82.45 0.00167
82.5 0.00558
82.55 0.01093
82.6 0.01536
82.65 0.01427
82.7 0.01581
82.75 0.0125
82.8 0.0117
82.85 0.01216
82.9 0.01343
82.95 0.00832
83 0.00184
83.05 -0.00515
83.1 -0.01011
83.15 -0.01103
83.2 -0.01056
83.25 -0.01381
83.3 -0.01256
83.35 -0.01206
83.4 -0.01339
83.45 -0.01631
83.5 -0.0152
83.55 -0.01413
83.6 -0.00786
83.65 -0.00495
83.7 0.00092
83.75 0.00127
83.8 -0.00002
83.85 0.00277
83.9 0.00058
83.95 0.00253
84 -0.00037
84.05 -0.00484
84.1 -0.01065
84.15 -0.01758
84.2 -0.01803
84.25 -0.01833
84.3 -0.02044
84.35 -0.02155
84.4 -0.01705
84.45 -0.01267
84.5 -0.00848
84.55 -0.00241
84.6 -0.00054
84.65 0.00282
84.7 0.00838
84.75 0.00965
84.8 0.01095
84.85 0.01514
84.9 0.01485
84.95 0.01624
85 0.01834
85.05 0.01472
85.1 0.01363
85.15 0.0126
85.2 0.01394
85.25 0.01376
85.3 0.00836
85.35 0.00689
85.4 0.0032
85.45 -0.00333
85.5 -0.00801
85.55 -0.00887
85.6 -0.01311
85.65 -0.01927
85.7 -0.02523
85.75 -0.02824
85.8 -0.02536
85.85 -0.02611
85.9 -0.02641
85.95 -0.02774
86 -0.024
86.05 -0.0163
86.1 -0.00653
86.15 0.00243
86.2 0.0048
86.25 0.00711
86.3 0.00908
86.35 0.00616
86.4 0.0002
86.45 -0.00214
86.5 -0.00048
86.55 0.0026
86.6 0.00333
86.65 -0.00055
86.7 -0.0013
86.75 0.00058
86.8 0.0039
86.85 0.00732
86.9 0.0059
86.95 0.00059
87 -0.0005
87.05 0.0008
87.1 0.0023
87.15 0.00147
87.2 -0.00357
87.25 -0.00756
87.3 -0.00763
87.35 -0.01131
87.4 -0.01287
87.45 -0.01469
87.5 -0.01207
87.55 -0.00612
87.6 0.0017
87.65 0.00754
87.7 0.01432
87.75 0.01841
87.8 0.01505
87.85 0.01536
87.9 0.01251
87.95 0.01208
88 0.01217
88.05 0.00812
88.1 0.00724
88.15 0.01015
88.2 0.01162
88.25 0.01284
88.3 0.01214
88.35 0.00766
88.4 0.00626
88.45 0.00861
88.5 0.01237
88.55 0.00953
88.6 0.00847
88.65 0.00617
88.7 0.00091
88.75 -0.00532
88.8 -0.01276
88.85 -0.01713
88.9 -0.02265
88.95 -0.02586
89 -0.02784
89.05 -0.02507
89.1 -0.02324
89.15 -0.01846
89.2 -0.01296
89.25 -0.00391
89.3 0.00527
89.35 0.01375
89.4 0.01399
89.45 0.01318
89.5 0.0071
89.55 0.00514
89.6 0.00018
89.65 -0.00367
89.7 -0.00846
89.75 -0.01165
89.8 -0.01436
89.85 -0.01777
89.9 -0.01725
89.95 -0.01831
90 -0.01517
90.05 -0.01467
90.1 -0.01571
90.15 -0.01072
90.2 -0.00476
90.25 0.00399
90.3 0.00793
90.35 0.01346
90.4 0.01188
90.45 0.00955
90.5 0.00746
90.55 0.0045
90.6 -0.00001
90.65 -0.00548
90.7 -0.00977
90.75 -0.01154
90.8 -0.0135
90.85 -0.01686
90.9 -0.02024
90.95 -0.02383
91 -0.02824
91.05 -0.02933
91.1 -0.02373
91.15 -0.02254
91.2 -0.02304
91.25 -0.02105
91.3 -0.02024
91.35 -0.01853
91.4 -0.0123
91.45 -0.00933
91.5 -0.00972
91.55 -0.01145
91.6 -0.01371
91.65 -0.0154
91.7 -0.01256
91.75 -0.01198
91.8 -0.01451
91.85 -0.01212
91.9 -0.01114
91.95 -0.01188
92 -0.00969
92.05 -0.0048
92.1 -0.00059
92.15 -0.00091
92.2 -0.00144
92.25 0.001
92.3 0.00767
92.35 0.01421
92.4 0.02068
92.45 0.02716
92.5 0.02606
92.55 0.0223
92.6 0.0207
92.65 0.01878
92.7 0.01388
92.75 0.00896
92.8 0.00585
92.85 0.00137
92.9 -0.00102
92.95 -0.00355
93 -0.00555
93.05 -0.00463
93.1 -0.0004
93.15 0.0023
93.2 0.00283
93.25 0.00164
93.3 -0.00193
93.35 -0.00807
93.4 -0.00818
93.45 -0.00758
93.5 -0.00388
93.55 0.00048
93.6 0.00574
93.65 0.01212
93.7 0.01153
93.75 0.01151
93.8 0.00847
93.85 0.00701
93.9 0.00866
93.95 0.01076
94 0.00905
94.05 0.00988
94.1 0.00602
94.15 0.00347
94.2 0.00614
94.25 0.00723
94.3 0.0106
94.35 0.01612
94.4 0.02109
94.45 0.01859
94.5 0.01584
94.55 0.01405
94.6 0.01126
94.65 0.0111
94.7 0.00603
94.75 0.00499
94.8 0.00232
94.85 -0.00139
94.9 0.00021
94.95 -0.00214
95 -0.00345
95.05 -0.00533
95.1 -0.00888
95.15 -0.01434
95.2 -0.0184
95.25 -0.02306
95.3 -0.02574
95.35 -0.02387
95.4 -0.01941
95.45 -0.01439
95.5 -0.01319
95.55 -0.00963
95.6 -0.00404
95.65 -0.0022
95.7 0.00169
95.75 0.00184
95.8 0.00287
95.85 0.00728
95.9 0.00995
95.95 0.00654
96 0.00827
96.05 0.00496
96.1 0.0029
96.15 0.00448
96.2 0.00219
96.25 0.00501
96.3 0.00726
96.35 0.00965
96.4 0.01415
96.45 0.012
96.5 0.00928
96.55 0.00874
96.6 0.00954
96.65 0.00835
96.7 0.00971
96.75 0.00951
96.8 0.0131
96.85 0.01178
96.9 0.00814
96.95 0.00441
97 0.00351
97.05 0.00503
97.1 0.00653
97.15 0.00322
97.2 0.00448
97.25 0.00353
97.3 -0.00067
97.35 -0.00512
97.4 -0.00403
97.45 -0.00094
97.5 0.00563
97.55 0.01209
97.6 0.0138
97.65 0.01258
97.7 0.00763
97.75 -0.00035
97.8 -0.00946
97.85 -0.01598
97.9 -0.01786
97.95 -0.01731
98 -0.01785
98.05 -0.01693
98.1 -0.0176
98.15 -0.01586
98.2 -0.01771
98.25 -0.01376
98.3 -0.00553
98.35 -0.00278
98.4 -0.00144
98.45 -0.00166
98.5 -0.0044
98.55 -0.00403
98.6 -0.00538
98.65 -0.00776
98.7 -0.00487
98.75 -0.00526
98.8 -0.00941
98.85 -0.01266
98.9 -0.01727
98.95 -0.0185
99 -0.0207
99.05 -0.02383
99.1 -0.02059
99.15 -0.02013
99.2 -0.0199
99.25 -0.01599
99.3 -0.01492
99.35 -0.01065
99.4 -0.00303
99.45 0.00474
99.5 0.00719
99.55 0.00785
99.6 0.00395
99.65 0.00335
99.7 0.00355
99.75 0.00614
99.8 0.00729
99.85 0.00525
99.9 0.00009
99.95 -0.00557
