0 0
0.05 0.00837
0.1 0.01721
0.15 0.02753
0.2 0.03823
0.25 0.04224
0.3 0.04909
0.35 0.05468
0.4 0.05419
0.45 0.05045
0.5 0.04357
0.55 0.03666
0.6 0.03097
0.65 0.03059
0.7 0.03491
0.75 0.0365
0.8 0.03979
0.85 0.0446
0.9 0.04537
0.95 0.04647
1 0.04385
1.05 0.03763
1.1 0.03336
1.15 0.03425
1.2 0.03794
1.25 0.04496
1.3 0.04707
1.35 0.04737
1.4 0.04697
1.45 0.04305
1.5 0.0365
1.55 0.03627
1.6 0.03211
1.65 0.02606
1.7 0.02692
1.75 0.02978
1.8 0.02746
1.85 0.03117
1.9 0.03209
1.95 0.03326
2 0.03241
2.05 0.03226
2.1 0.03633
2.15 0.0401
2.2 0.04295
2.25 0.04578
2.3 0.04305
2.35 0.04089
2.4 0.03649
2.45 0.03729
2.5 0.03475
2.55 0.02994
2.6 0.02869
2.65 0.02909
2.7 0.02521
2.75 0.01987
2.8 0.01696
2.85 0.01665
2.9 0.0146
2.95 0.0119
3 0.01503
3.05 0.01386
3.1 0.01859
3.15 0.02314
3.2 0.02744
3.25 0.02975
3.3 0.03423
3.35 0.03834
3.4 0.03914
3.45 0.03828
3.5 0.03692
3.55 0.03558
3.6 0.03711
3.65 0.03795
3.7 0.03524
3.75 0.03678
3.8 0.03767
3.85 0.03432
3.9 0.02798
3.95 0.02398
4 0.01865
4.05 0.01153
4.1 0.0033
4.15 0.00244
4.2 0.00272
4.25 0.00417
4.3 0.0056
4.35 0.00099
4.4 -0.00374
4.45 -0.01229
4.5 -0.01906
4.55 -0.02225
4.6 -0.03164
4.65 -0.04152
4.7 -0.04991
4.75 -0.06121
4.8 -0.07356
4.85 -0.09137
4.9 -0.11632
4.95 -0.14673
5 -0.18077
5.05 -0.21394
5.1 -0.25066
5.15 -0.29223
5.2 -0.34154
5.25 -0.39224
5.3 -0.44729
5.35 -0.50522
5.4 -0.55767
5.45 -0.61054
5.5 -0.65703
5.55 -0.701
5.6 -0.74691
5.65 -0.79129
5.7 -0.83121
5.75 -0.85838
5.8 -0.88252
5.85 -0.8948
5.9 -0.8955
5.95 -0.89313
6 -0.88375
6.05 -0.8693
6.1 -0.84457
6.15 -0.81365
6.2 -0.77477
6.25 -0.73106
6.3 -0.67698
6.35 -0.61606
6.4 -0.55731
6.45 -0.50163
6.5 -0.445
6.55 -0.38511
6.6 -0.32516
6.65 -0.26893
6.7 -0.2162
6.75 -0.15999
6.8 -0.10515
6.85 -0.05224
6.9 0.00266
6.95 0.05807
7 0.11005
7.05 0.15709
7.1 0.19963
7.15 0.23792
7.2 0.28203
7.25 0.32316
7.3 0.36781
7.35 0.41326
7.4 0.45846
7.45 0.49555
7.5 0.53009
7.55 0.56814
7.6 0.60331
7.65 0.63475
7.7 0.6625
7.75 0.69129
7.8 0.7189
7.85 0.74191
7.9 0.7605
7.95 0.77221
8 0.78326
8.05 0.78636
8.1 0.79079
8.15 0.7906
8.2 0.78973
8.25 0.78212
8.3 0.76844
8.35 0.75053
8.4 0.73614
8.45 0.72165
8.5 0.70607
8.55 0.69221
8.6 0.67347
8.65 0.647
8.7 0.61695
8.75 0.58884
8.8 0.55912
8.85 0.52674
8.9 0.49721
8.95 0.47429
9 0.45398
9.05 0.43556
9.1 0.41315
9.15 0.39213
9.2 0.36682
9.25 0.33965
9.3 0.31587
9.35 0.29707
9.4 0.28048
9.45 0.26384
9.5 0.24818
9.55 0.23045
9.6 0.21949
9.65 0.21209
9.7 0.20417
9.75 0.19322
9.8 0.18587
9.85 0.18119
9.9 0.17905
9.95 0.17744
10 0.17442
10.05 0.16945
10.1 0.15924
10.15 0.15178
10.2 0.14857
10.25 0.14276
10.3 0.13347
10.35 0.12561
10.4 0.11994
10.45 0.11261
10.5 0.10214
10.55 0.09354
10.6 0.09023
10.65 0.08276
10.7 0.07488
10.75 0.06496
10.8 0.05775
10.85 0.05125
10.9 0.04271
10.95 0.04024
11 0.03607
11.05 0.0349
11.1 0.03079
11.15 0.02648
11.2 0.0181
11.25 0.01026
11.3 0.00454
11.35 0.00246
11.4 -0.00017
11.45 -0.00569
11.5 -0.01112
11.55 -0.01416
11.6 -0.02081
11.65 -0.02734
11.7 -0.02895
11.75 -0.03462
11.8 -0.03569
11.85 -0.04179
11.9 -0.04445
11.95 -0.04532
12 -0.04359
12.05 -0.04427
12.1 -0.04834
12.15 -0.05365
12.2 -0.05564
12.25 -0.059
12.3 -0.06242
12.35 -0.06589
12.4 -0.07079
12.45 -0.07513
12.5 -0.07901
12.55 -0.08292
12.6 -0.09007
12.65 -0.09718
12.7 -0.10026
12.75 -0.09783
12.8 -0.09113
12.85 -0.08662
12.9 -0.08322
12.95 -0.07723
13 -0.07877
13.05 -0.08074
13.1 -0.0859
13.15 -0.08983
13.2 -0.09549
13.25 -0.09594
13.3 -0.09237
13.35 -0.09158
13.4 -0.09001
13.45 -0.09143
13.5 -0.09321
13.55 -0.09568
13.6 -0.09847
13.65 -0.09434
13.7 -0.09443
13.75 -0.0906
13.8 -0.08522
13.85 -0.07955
13.9 -0.07459
13.95 -0.07447
14 -0.07108
14.05 -0.06872
14.1 -0.06803
14.15 -0.06463
14.2 -0.06245
14.25 -0.05856
14.3 -0.05423
14.35 -0.05353
14.4 -0.05004
14.45 -0.04537
14.5 -0.04292
14.55 -0.04735
14.6 -0.05278
14.65 -0.05963
14.7 -0.061
14.75 -0.06422
14.8 -0.06424
14.85 -0.06817
14.9 -0.06695
14.95 -0.06414
15 -0.0612
15.05 -0.05981
15.1 -0.05514
15.15 -0.05415
15.2 -0.05332
15.25 -0.05358
15.3 -0.05315
15.35 -0.04933
15.4 -0.05124
15.45 -0.05292
15.5 -0.05389
15.55 -0.05168
15.6 -0.04529
15.65 -0.03954
15.7 -0.03327
15.75 -0.03231
15.8 -0.02916
15.85 -0.02513
15.9 -0.02563
15.95 -0.02294
16 -0.02194
16.05 -0.02642
16.1 -0.03036
16.15 -0.03214
16.2 -0.02938
16.25 -0.03203
16.3 -0.03323
16.35 -0.03745
16.4 -0.04122
16.45 -0.04409
16.5 -0.04464
16.55 -0.04077
16.6 -0.03726
16.65 -0.03539
16.7 -0.03456
16.75 -0.03265
16.8 -0.03453
16.85 -0.03886
16.9 -0.03709
16.95 -0.03724
17 -0.03688
17.05 -0.03731
17.1 -0.03301
17.15 -0.0315
17.2 -0.0292
17.25 -0.02619
17.3 -0.02107
17.35 -0.01607
17.4 -0.01265
17.45 -0.00867
17.5 -0.00336
17.55 -0.0012
17.6 -0.00152
17.65 -0.00325
17.7 -0.00841
17.75 -0.01512
17.8 -0.02419
17.85 -0.03148
17.9 -0.03786
17.95 -0.04441
18 -0.04934
18.05 -0.05253
18.1 -0.05501
18.15 -0.05708
18.2 -0.05302
18.25 -0.04728
18.3 -0.04488
18.35 -0.03928
18.4 -0.03378
18.45 -0.02957
18.5 -0.028
18.55 -0.02777
18.6 -0.02632
18.65 -0.02656
18.7 -0.02387
18.75 -0.02367
18.8 -0.01852
18.85 -0.01926
18.9 -0.01943
18.95 -0.0213
19 -0.02378
19.05 -0.02048
19.1 -0.02021
19.15 -0.02384
19.2 -0.02582
19.25 -0.02546
19.3 -0.02051
19.35 -0.01708
19.4 -0.01606
19.45 -0.01236
19.5 -0.01323
19.55 -0.01548
19.6 -0.01231
19.65 -0.01178
19.7 -0.01409
19.75 -0.01941
19.8 -0.01861
19.85 -0.0175
19.9 -0.02042
19.95 -0.01943
20 -0.01894
20.05 -0.01866
20.1 -0.02219
20.15 -0.02472
20.2 -0.02971
20.25 -0.03541
20.3 -0.0399
20.35 -0.04312
20.4 -0.04054
20.45 -0.03987
20.5 -0.03921
20.55 -0.03561
20.6 -0.03549
20.65 -0.03171
20.7 -0.026
20.75 -0.01662
20.8 -0.01125
20.85 -0.01115
20.9 -0.0118
20.95 -0.01531
21 -0.01307
21.05 -0.01044
21.1 -0.00785
21.15 -0.0091
21.2 -0.00741
21.25 -0.00958
21.3 -0.01435
21.35 -0.01323
21.4 -0.01065
21.45 -0.00475
21.5 -0.00412
21.55 -0.00464
21.6 -0.0073
21.65 -0.01027
21.7 -0.01039
21.75 -0.01252
21.8 -0.01142
21.85 -0.00855
21.9 -0.01043
21.95 -0.01103
22 -0.01369
22.05 -0.01243
22.1 -0.01462
22.15 -0.01301
22.2 -0.0118
22.25 -0.00982
22.3 -0.00869
22.35 -0.00423
22.4 -0.00292
22.45 -0.00172
22.5 -0.00502
22.55 -0.0095
22.6 -0.01069
22.65 -0.0093
22.7 -0.00327
22.75 -0.00131
22.8 -0.00394
22.85 -0.00553
22.9 -0.00393
22.95 0.0003
23 0.00008
23.05 0.00171
23.1 0.00592
23.15 0.0113
23.2 0.01146
23.25 0.01469
23.3 0.01533
23.35 0.01259
23.4 0.00693
23.45 0.00399
23.5 0.00335
23.55 -0.00122
23.6 -0.00653
23.65 -0.00781
23.7 -0.00419
23.75 -0.00197
23.8 -0.00488
23.85 -0.0047
23.9 -0.00498
23.95 -0.00111
24 0.00052
24.05 0.00367
24.1 0.00365
24.15 0.00574
24.2 0.0088
24.25 0.00544
24.3 -0.00094
24.35 -0.0017
24.4 -0.00462
24.45 -0.0057
24.5 -0.00571
24.55 -0.00847
24.6 -0.01164
24.65 -0.01675
24.7 -0.02142
24.75 -0.02092
24.8 -0.0228
24.85 -0.02378
24.9 -0.02402
24.95 -0.02454
25 -0.02411
25.05 -0.01975
25.1 -0.01707
25.15 -0.01526
25.2 -0.00965
25.25 -0.00723
25.3 -0.00116
25.35 0.00289
25.4 0.00693
25.45 0.01272
25.5 0.01584
25.55 0.01706
25.6 0.01875
25.65 0.01787
25.7 0.01393
25.75 0.01404
25.8 0.01445
25.85 0.01672
25.9 0.01869
25.95 0.01493
26 0.0103
26.05 0.01032
26.1 0.0088
26.15 0.01082
26.2 0.01569
26.25 0.01663
26.3 0.01219
26.35 0.00699
26.4 0.00181
26.45 0.00015
26.5 -0.00145
26.55 -0.00262
26.6 -0.00532
26.65 -0.00672
26.7 -0.00541
26.75 -0.00794
26.8 -0.0134
26.85 -0.01167
26.9 -0.0115
26.95 -0.00691
27 -0.0077
27.05 -0.00878
27.1 -0.00812
27.15 -0.00795
27.2 -0.00509
27.25 -0.00143
27.3 0.00403
27.35 0.00319
27.4 0.00351
27.45 0.00428
27.5 0.00476
27.55 -0.00016
27.6 -0.00688
27.65 -0.011
27.7 -0.01927
27.75 -0.02405
27.8 -0.03431
27.85 -0.04519
27.9 -0.05351
27.95 -0.06237
28 -0.07232
28.05 -0.08599
28.1 -0.10461
28.15 -0.12872
28.2 -0.15914
28.25 -0.19019
28.3 -0.22062
28.35 -0.25886
28.4 -0.30108
28.45 -0.34982
28.5 -0.40178
28.55 -0.46144
28.6 -0.51874
28.65 -0.57807
28.7 -0.64235
28.75 -0.71022
28.8 -0.78828
28.85 -0.86673
28.9 -0.95095
28.95 -1.038
29 -1.12282
29.05 -1.20632
29.1 -1.29661
29.15 -1.38778
29.2 -1.47192
29.25 -1.55771
29.3 -1.63815
29.35 -1.71032
29.4 -1.77878
29.45 -1.84085
29.5 -1.89705
29.55 -1.94445
29.6 -1.9789
29.65 -1.99997
29.7 -2.00936
29.75 -2.00633
29.8 -1.99299
29.85 -1.96965
29.9 -1.93362
29.95 -1.88884
30 -1.83833
30.05 -1.77756
30.1 -1.70744
30.15 -1.62195
30.2 -1.52992
30.25 -1.43226
30.3 -1.32914
30.35 -1.21663
30.4 -1.10136
30.45 -0.98142
30.5 -0.85588
30.55 -0.72566
30.6 -0.58961
30.65 -0.4528
30.7 -0.31284
30.75 -0.17534
30.8 -0.04399
30.85 0.08678
30.9 0.20975
30.95 0.33416
31 0.45719
31.05 0.57443
31.1 0.68663
31.15 0.79143
31.2 0.88928
31.25 0.98262
31.3 1.06523
31.35 1.14398
31.4 1.21771
31.45 1.28043
31.5 1.33934
31.55 1.39634
31.6 1.44504
31.65 1.48605
31.7 1.52074
31.75 1.55745
31.8 1.59026
31.85 1.61962
31.9 1.63998
31.95 1.66009
32 1.67388
32.05 1.68124
32.1 1.68895
32.15 1.69282
32.2 1.69916
32.25 1.70341
32.3 1.70009
32.35 1.69251
32.4 1.68029
32.45 1.66613
32.5 1.65452
32.55 1.64056
32.6 1.63181
32.65 1.62456
32.7 1.61784
32.75 1.60214
32.8 1.58024
32.85 1.55557
32.9 1.53307
32.95 1.50665
33 1.48039
33.05 1.45242
33.1 1.42221
33.15 1.39085
33.2 1.36204
33.25 1.3323
33.3 1.30184
33.35 1.26629
33.4 1.23343
33.45 1.20236
33.5 1.16865
33.55 1.1286
33.6 1.09019
33.65 1.054
33.7 1.01381
33.75 0.97497
33.8 0.93565
33.85 0.89258
33.9 0.8474
33.95 0.80852
34 0.77359
34.05 0.73823
34.1 0.70009
34.15 0.66182
34.2 0.62805
34.25 0.59411
34.3 0.55549
34.35 0.52035
34.4 0.48241
34.45 0.44276
34.5 0.40325
34.55 0.36705
34.6 0.33168
34.65 0.2983
34.7 0.26388
34.75 0.23049
34.8 0.1985
34.85 0.17257
34.9 0.14652
34.95 0.12233
35 0.09591
35.05 0.07572
35.1 0.05806
35.15 0.04346
35.2 0.02318
35.25 0.00261
35.3 -0.01946
35.35 -0.04133
35.4 -0.05824
35.45 -0.07245
35.5 -0.08444
35.55 -0.09298
35.6 -0.10647
35.65 -0.11847
35.7 -0.13039
35.75 -0.1412
35.8 -0.1494
35.85 -0.16031
35.9 -0.16892
35.95 -0.18421
36 -0.19494
36.05 -0.20304
36.1 -0.21105
36.15 -0.21702
36.2 -0.22527
36.25 -0.23384
36.3 -0.24055
36.35 -0.24744
36.4 -0.25485
36.45 -0.26487
36.5 -0.27598
36.55 -0.28683
36.6 -0.29641
36.65 -0.30266
36.7 -0.30338
36.75 -0.30624
36.8 -0.30778
36.85 -0.30986
36.9 -0.31167
36.95 -0.31304
37 -0.31315
37.05 -0.31002
37.1 -0.3058
37.15 -0.29917
37.2 -0.29201
37.25 -0.28645
37.3 -0.28646
37.35 -0.28876
37.4 -0.28616
37.45 -0.28726
37.5 -0.28834
37.55 -0.28912
37.6 -0.2823
37.65 -0.27173
37.7 -0.26566
37.75 -0.26097
37.8 -0.25813
37.85 -0.25203
37.9 -0.24858
37.95 -0.24938
38 -0.24769
38.05 -0.24369
38.1 -0.24053
38.15 -0.241
38.2 -0.23572
38.25 -0.23222
38.3 -0.23241
38.35 -0.22651
38.4 -0.22283
38.45 -0.21666
38.5 -0.2137
38.55 -0.20838
38.6 -0.20643
38.65 -0.20834
38.7 -0.20438
38.75 -0.19758
38.8 -0.1968
38.85 -0.19785
38.9 -0.19414
38.95 -0.19089
39 -0.1859
39.05 -0.17997
39.1 -0.17235
39.15 -0.1628
39.2 -0.15365
39.25 -0.15104
39.3 -0.15493
39.35 -0.15352
39.4 -0.15383
39.45 -0.15546
39.5 -0.15256
39.55 -0.14744
39.6 -0.1426
39.65 -0.14157
39.7 -0.14033
39.75 -0.14192
39.8 -0.1405
39.85 -0.14065
39.9 -0.13779
39.95 -0.13305
40 -0.13163
40.05 -0.12912
40.1 -0.12371
40.15 -0.11743
40.2 -0.10948
40.25 -0.10177
40.3 -0.09636
40.35 -0.09499
40.4 -0.09405
40.45 -0.0978
40.5 -0.10255
40.55 -0.10963
40.6 -0.11474
40.65 -0.1176
40.7 -0.11494
40.75 -0.10837
40.8 -0.10234
40.85 -0.09985
40.9 -0.09757
40.95 -0.09265
41 -0.09348
41.05 -0.09042
41.1 -0.09115
41.15 -0.09639
41.2 -0.09845
41.25 -0.1004
41.3 -0.1032
41.35 -0.10294
41.4 -0.09875
41.45 -0.09433
41.5 -0.0948
41.55 -0.09665
41.6 -0.09638
41.65 -0.09871
41.7 -0.10049
41.75 -0.09769
41.8 -0.09436
41.85 -0.08725
41.9 -0.08409
41.95 -0.08491
42 -0.07981
42.05 -0.07895
42.1 -0.07486
42.15 -0.06914
42.2 -0.061
42.25 -0.05266
42.3 -0.05039
42.35 -0.05272
42.4 -0.0507
42.45 -0.05298
42.5 -0.05328
42.55 -0.05648
42.6 -0.05984
42.65 -0.06133
42.7 -0.05892
42.75 -0.06115
42.8 -0.05827
42.85 -0.05506
42.9 -0.05247
42.95 -0.05442
43 -0.05877
43.05 -0.06524
43.1 -0.06969
43.15 -0.06636
43.2 -0.06635
43.25 -0.06809
43.3 -0.07113
43.35 -0.06681
43.4 -0.05845
43.45 -0.04857
43.5 -0.04558
43.55 -0.04125
43.6 -0.03903
43.65 -0.03329
43.7 -0.02976
43.75 -0.02726
43.8 -0.03106
43.85 -0.03579
43.9 -0.03939
43.95 -0.04456
44 -0.0515
44.05 -0.05179
44.1 -0.05467
44.15 -0.0517
44.2 -0.04998
44.25 -0.05116
44.3 -0.04981
44.35 -0.04833
44.4 -0.0465
44.45 -0.04126
44.5 -0.03608
44.55 -0.03412
44.6 -0.03475
44.65 -0.03932
44.7 -0.0415
44.75 -0.044
44.8 -0.04611
44.85 -0.0505
44.9 -0.05471
44.95 -0.05618
45 -0.05582
45.05 -0.05619
45.1 -0.05501
45.15 -0.04965
45.2 -0.04366
45.25 -0.04123
45.3 -0.04237
45.35 -0.03757
45.4 -0.03151
45.45 -0.02668
45.5 -0.02017
45.55 -0.01151
45.6 -0.00365
45.65 -0.00352
45.7 -0.00861
45.75 -0.01571
45.8 -0.01592
45.85 -0.01989
45.9 -0.01934
45.95 -0.01754
46 -0.01612
46.05 -0.01619
46.1 -0.01867
46.15 -0.01969
46.2 -0.01881
46.25 -0.01721
46.3 -0.01185
46.35 -0.00427
46.4 0.0005
46.45 0.00226
46.5 0.00106
46.55 0.00004
46.6 0.00161
46.65 0.00365
46.7 0.0038
46.75 0.00017
46.8 0.0011
46.85 0.00458
46.9 0.00588
46.95 0.00652
47 0.00147
47.05 -0.00386
47.1 -0.01232
47.15 -0.02263
47.2 -0.02734
47.25 -0.03101
47.3 -0.03409
47.35 -0.03536
47.4 -0.03247
47.45 -0.02662
47.5 -0.01724
47.55 -0.00655
47.6 -0.0037
47.65 -0.00127
47.7 -0.00487
47.75 -0.01233
47.8 -0.01431
47.85 -0.01395
47.9 -0.01038
47.95 -0.00496
48 -0.00152
48.05 -0.00483
48.1 -0.00704
48.15 -0.00681
48.2 -0.00513
48.25 -0.00708
48.3 -0.01057
48.35 -0.0099
48.4 -0.00531
48.45 -0.00651
48.5 -0.00922
48.55 -0.01051
48.6 -0.00888
48.65 -0.01131
48.7 -0.01439
48.75 -0.01165
48.8 -0.00807
48.85 -0.00859
48.9 -0.00939
48.95 -0.00875
49 -0.01051
49.05 -0.01225
49.1 -0.01004
49.15 -0.00436
49.2 -0.00006
49.25 0.00437
49.3 0.00747
49.35 0.01152
49.4 0.01299
49.45 0.00789
49.5 0.00212
49.55 0.00205
49.6 0.0023
49.65 0.00089
49.7 -0.00256
49.75 -0.00086
49.8 0.0032
49.85 0.00585
49.9 0.00161
49.95 -0.00669
50 -0.01569
50.05 -0.01867
50.1 -0.02444
50.15 -0.02885
50.2 -0.02763
50.25 -0.02592
50.3 -0.01951
50.35 -0.01156
50.4 -0.00676
50.45 0.00056
50.5 0.00775
50.55 0.01042
50.6 0.01495
50.65 0.01267
50.7 0.0111
50.75 0.00705
50.8 0.00199
50.85 -0.00223
50.9 -0.00844
50.95 -0.01291
51 -0.01515
51.05 -0.02053
51.1 -0.02189
51.15 -0.02078
51.2 -0.02128
51.25 -0.01915
51.3 -0.01683
51.35 -0.01746
51.4 -0.02141
51.45 -0.0207
51.5 -0.01551
51.55 -0.01144
51.6 -0.01134
51.65 -0.01194
51.7 -0.01543
51.75 -0.01485
51.8 -0.01655
51.85 -0.01355
51.9 -0.00883
51.95 -0.00811
52 -0.00819
52.05 -0.00374
52.1 -0.00099
52.15 0.002
52.2 0.00724
52.25 0.0103
52.3 0.00708
52.35 0.00265
52.4 0.0039
52.45 0.00693
52.5 0.00393
52.55 0.00504
52.6 0.00619
52.65 0.00832
52.7 0.00563
52.75 0.00694
52.8 0.00416
52.85 0.00495
52.9 0.008
52.95 0.01312
53 0.01222
53.05 0.00947
53.1 0.00196
53.15 -0.00247
53.2 -0.00622
53.25 -0.00894
53.3 -0.01258
53.35 -0.0098
53.4 -0.00805
53.45 -0.00248
53.5 0.00353
53.55 0.00311
53.6 -0.00167
53.65 -0.00967
53.7 -0.01871
53.75 -0.02469
53.8 -0.02385
53.85 -0.01784
53.9 -0.01108
53.95 -0.00203
54 0.00366
54.05 0.01126
54.1 0.0109
54.15 0.00489
54.2 -0.00147
54.25 -0.00674
54.3 -0.00794
54.35 -0.00764
54.4 -0.00863
54.45 -0.00747
54.5 -0.00537
54.55 -0.00499
54.6 -0.00468
54.65 -0.0027
54.7 -0.00512
54.75 -0.00721
54.8 -0.00548
54.85 -0.00051
54.9 0.00616
54.95 0.0055
55 0.00709
55.05 0.00279
55.1 -0.0045
55.15 -0.00741
55.2 -0.01071
55.25 -0.00823
55.3 -0.0052
55.35 -0.00671
55.4 -0.00418
55.45 -0.00328
55.5 -0.0043
55.55 -0.0034
55.6 -0.00721
55.65 -0.00637
55.7 -0.00536
55.75 -0.00581
55.8 -0.00508
55.85 -0.00717
55.9 -0.00342
55.95 0.00364
56 0.00554
56.05 0.00991
56.1 0.01528
56.15 0.02147
56.2 0.02047
56.25 0.01521
56.3 0.00563
56.35 -0.00469
56.4 -0.00679
56.45 -0.00365
56.5 -0.00557
56.55 -0.00735
56.6 -0.01167
56.65 -0.01191
56.7 -0.0115
56.75 -0.01315
56.8 -0.01222
56.85 -0.01528
56.9 -0.02022
56.95 -0.02073
57 -0.0171
57.05 -0.00936
57.1 -0.00513
57.15 -0.00285
57.2 -0.00162
57.25 -0.00507
57.3 -0.00447
57.35 -0.00375
57.4 -0.00247
57.45 0.00253
57.5 0.00884
57.55 0.00822
57.6 0.00888
57.65 0.0054
57.7 0.00363
57.75 0.00381
57.8 0.00679
57.85 0.01208
57.9 0.0163
57.95 0.01741
58 0.01978
58.05 0.01831
58.1 0.0177
58.15 0.01954
58.2 0.01591
58.25 0.01636
58.3 0.01192
58.35 0.01074
58.4 0.00497
58.45 -0.00212
58.5 -0.00762
58.55 -0.01262
58.6 -0.01666
58.65 -0.01563
58.7 -0.01587
58.75 -0.01191
58.8 -0.00745
58.85 -0.00614
58.9 -0.00931
58.95 -0.00894
59 -0.01112
59.05 -0.01193
59.1 -0.00712
59.15 -0.00445
59.2 -0.00165
59.25 -0.00246
59.3 -0.00253
59.35 -0.00259
59.4 -0.00578
59.45 -0.00944
59.5 -0.00908
59.55 -0.00607
59.6 -0.00588
59.65 -0.00211
59.7 0.00399
59.75 0.00374
59.8 0.0066
59.85 0.00879
59.9 0.00582
59.95 0.00547
60 0.00335
60.05 -0.00221
60.1 -0.00555
60.15 -0.00729
60.2 -0.01241
60.25 -0.01264
60.3 -0.01024
60.35 -0.00839
60.4 -0.00598
60.45 -0.00004
60.5 0.00341
60.55 0.00655
60.6 0.00472
60.65 0.00632
60.7 0.00246
60.75 -0.00296
60.8 -0.0016
60.85 0.00285
60.9 0.00677
60.95 0.0123
61 0.01262
61.05 0.00753
61.1 0.00224
61.15 -0.00148
61.2 -0.00024
61.25 0.00027
61.3 0.00041
61.35 0.00182
61.4 0.00459
61.45 0.00715
61.5 0.01177
61.55 0.01226
61.6 0.0139
61.65 0.01315
61.7 0.00722
61.75 0.00388
61.8 0.00443
61.85 0.00445
61.9 0.00013
61.95 -0.00159
62 -0.00679
62.05 -0.0115
62.1 -0.01603
62.15 -0.01661
62.2 -0.01881
62.25 -0.02124
62.3 -0.02353
62.35 -0.02739
62.4 -0.02549
62.45 -0.02649
62.5 -0.02353
62.55 -0.01634
62.6 -0.01152
62.65 -0.00912
62.7 -0.00534
62.75 -0.00481
62.8 -0.00562
62.85 -0.00252
62.9 -0.00315
62.95 -0.00758
63 -0.00537
63.05 -0.00722
63.1 -0.00599
63.15 -0.00594
63.2 -0.00111
63.25 0.00628
63.3 0.01287
63.35 0.01826
63.4 0.02044
63.45 0.01927
63.5 0.01895
63.55 0.01557
63.6 0.01249
63.65 0.00871
63.7 0.00306
63.75 0.00214
63.8 0.00023
63.85 -0.00064
63.9 0.00227
63.95 0.00354
64 0.00525
64.05 0.00192
64.1 0.00259
64.15 0.00694
64.2 0.00778
64.25 0.00887
64.3 0.00585
64.35 0.00581
64.4 0.00735
64.45 0.01145
64.5 0.01263
64.55 0.01216
64.6 0.00923
64.65 0.00256
64.7 -0.00117
64.75 0.00045
64.8 0.00135
64.85 0.00619
64.9 0.01067
64.95 0.01016
65 0.01278
65.05 0.01684
65.1 0.01925
65.15 0.01716
65.2 0.01857
65.25 0.01737
65.3 0.01619
65.35 0.01706
65.4 0.01198
65.45 0.01141
65.5 0.00728
65.55 -0.00088
65.6 -0.00269
65.65 -0.00554
65.7 -0.01101
65.75 -0.01157
65.8 -0.00705
65.85 -0.00347
65.9 -0.00177
65.95 0.00308
66 0.00395
66.05 0.0055
66.1 0.00135
66.15 -0.00373
66.2 -0.00489
66.25 -0.00948
66.3 -0.01437
66.35 -0.01645
66.4 -0.02043
66.45 -0.02583
66.5 -0.02913
66.55 -0.03287
66.6 -0.03094
66.65 -0.02279
66.7 -0.02005
66.75 -0.01554
66.8 -0.01297
66.85 -0.01476
66.9 -0.01819
66.95 -0.01695
67 -0.01219
67.05 -0.00539
67.1 0.00356
67.15 0.00892
67.2 0.01296
67.25 0.01881
67.3 0.02031
67.35 0.01954
67.4 0.02141
67.45 0.01915
67.5 0.01309
67.55 0.01106
67.6 0.00838
67.65 0.00673
67.7 0.00546
67.75 0.00031
67.8 -0.00327
67.85 -0.00582
67.9 -0.00713
67.95 -0.00631
68 -0.00438
68.05 -0.00761
68.1 -0.00505
68.15 -0.00044
68.2 -0.00122
68.25 -0.00237
68.3 -0.0073
68.35 -0.01265
68.4 -0.01863
68.45 -0.02394
68.5 -0.02999
68.55 -0.02937
68.6 -0.02913
68.65 -0.02257
68.7 -0.01971
68.75 -0.01695
68.8 -0.00996
68.85 -0.0093
68.9 -0.00985
68.95 -0.00469
69 0.00092
69.05 0.00846
69.1 0.01056
69.15 0.00651
69.2 0.00547
69.25 0.00476
69.3 0.00292
69.35 0.0043
69.4 0.00467
69.45 0.00227
69.5 0.00106
69.55 0.00474
69.6 0.00825
69.65 0.01349
69.7 0.01424
69.75 0.01003
69.8 0.00556
69.85 0.00152
69.9 -0.00421
69.95 -0.00394
70 -0.00708
70.05 -0.01224
70.1 -0.01182
70.15 -0.00628
70.2 -0.0062
70.25 -0.00204
70.3 -0.00032
70.35 0.00323
70.4 0.00608
70.45 0.00914
70.5 0.01087
70.55 0.01252
70.6 0.00785
70.65 0.0008
70.7 -0.00292
70.75 -0.00899
70.8 -0.01374
70.85 -0.012
70.9 -0.00677
70.95 -0.00494
71 -0.00773
71.05 -0.01137
71.1 -0.0158
71.15 -0.01443
71.2 -0.01344
71.25 -0.00896
71.3 -0.00964
71.35 -0.00562
71.4 0.00128
71.45 0.00399
71.5 0.01
71.55 0.01254
71.6 0.01294
71.65 0.01465
71.7 0.01817
71.75 0.0218
71.8 0.02224
71.85 0.02241
71.9 0.01899
71.95 0.01926
72 0.01321
72.05 0.0035
72.1 -0.00283
72.15 -0.01068
72.2 -0.0191
72.25 -0.02564
72.3 -0.02983
72.35 -0.03042
72.4 -0.02389
72.45 -0.01342
72.5 -0.00581
72.55 0.00296
72.6 0.00719
72.65 0.00594
72.7 0.00288
72.75 0.00087
72.8 -0.00161
72.85 -0.00742
72.9 -0.00588
72.95 -0.00166
73 0.00508
73.05 0.01238
73.1 0.01925
73.15 0.01912
73.2 0.01327
73.25 0.01287
73.3 0.01352
73.35 0.01557
73.4 0.01209
73.45 0.01104
73.5 0.00567
73.55 -0.00225
73.6 -0.00769
73.65 -0.01018
73.7 -0.0129
73.75 -0.0132
73.8 -0.01057
73.85 -0.00857
73.9 -0.00901
73.95 -0.00912
74 -0.00781
74.05 -0.00523
74.1 0.00026
74.15 0.0044
74.2 0.00358
74.25 0.00088
74.3 0.0023
74.35 0.00375
74.4 -0.00034
74.45 -0.00084
74.5 -0.00062
74.55 0.00335
74.6 0.00569
74.65 0.00608
74.7 0.00236
74.75 0.00018
74.8 0.00316
74.85 0.00573
74.9 0.01059
74.95 0.0144
75 0.01446
75.05 0.01737
75.1 0.01899
75.15 0.01834
75.2 0.02038
75.25 0.02003
75.3 0.01643
75.35 0.01695
75.4 0.01094
75.45 0.00348
75.5 0.00206
75.55 0.00102
75.6 0.00091
75.65 -0.00287
75.7 -0.007
75.75 -0.00501
75.8 -0.00473
75.85 -0.00602
75.9 -0.00521
75.95 -0.00366
76 0.00084
76.05 0.00154
76.1 0.0039
76.15 0.00068
76.2 0.00057
76.25 0.00239
76.3 0.0034
76.35 0.00783
76.4 0.00835
76.45 0.00425
76.5 0.00378
76.55 0.00527
76.6 0.00833
76.65 0.00594
76.7 0.002
76.75 -0.00158
76.8 -0.00362
76.85 -0.0082
76.9 -0.01263
76.95 -0.01901
77 -0.0257
77.05 -0.03021
77.1 -0.03434
77.15 -0.02978
77.2 -0.02525
77.25 -0.02152
77.3 -0.02066
77.35 -0.01391
77.4 -0.01003
77.45 -0.0094
77.5 -0.00468
77.55 0.00017
77.6 0.00351
77.65 0.00634
77.7 0.00868
77.75 0.01094
77.8 0.01576
77.85 0.01794
77.9 0.01909
77.95 0.01479
78 0.0107
78.05 0.00578
78.1 -0.00034
78.15 -0.00457
78.2 -0.00377
78.25 -0.00017
78.3 0.00634
78.35 0.00514
78.4 0.00494
78.45 0.00093
78.5 -0.00601
78.55 -0.00885
78.6 -0.01474
78.65 -0.02212
78.7 -0.02561
78.75 -0.02541
78.8 -0.02749
78.85 -0.03046
78.9 -0.03417
78.95 -0.03569
79 -0.03717
79.05 -0.03387
79.1 -0.02863
79.15 -0.02736
79.2 -0.02353
79.25 -0.01437
79.3 -0.0025
79.35 0.0073
79.4 0.01384
79.45 0.02123
79.5 0.0277
79.55 0.02941
79.6 0.02433
79.65 0.01856
79.7 0.01465
79.75 0.00879
79.8 0.00759
79.85 0.00981
79.9 0.01435
79.95 0.01622
80 0.01586
80.05 0.01523
80.1 0.00983
80.15 0.00467
80.2 -0.00202
80.25 -0.00735
80.3 -0.00907
80.35 -0.00852
80.4 -0.01223
80.45 -0.01267
80.5 -0.01115
80.55 -0.00842
80.6 -0.00975
80.65 -0.01161
80.7 -0.01495
80.75 -0.01233
80.8 -0.00755
80.85 -0.00163
80.9 0.00131
80.95 0.00771
81 0.01459
81.05 0.01773
81.1 0.01766
81.15 0.01741
81.2 0.01867
81.25 0.01385
81.3 0.00537
81.35 0.00034
81.4 -0.00602
81.45 -0.00511
81.5 -0.00395
81.55 0.00071
81.6 0.00112
81.65 0.00586
81.7 0.00433
81.75 0.00535
81.8 0.00866
81.85 0.01281
81.9 0.01227
81.95 0.00993
82 0.00794
82.05 0.00759
82.1 0.00463
82.15 0.00179
82.2 0.00268
82.25 -0.00099
82.3 -0.00736
82.35 -0.01055
82.4 -0.0117
82.45 -0.00807
82.5 -0.00739
82.55 -0.00403
82.6 -0.00468
82.65 -0.00952
82.7 -0.00798
82.75 -0.00555
82.8 -0.00724
82.85 -0.01121
82.9 -0.00865
82.95 -0.00801
83 -0.00411
83.05 0.00158
83.1 0.00779
83.15 0.01025
83.2 0.01544
83.25 0.01791
83.3 0.01871
83.35 0.0215
83.4 0.02416
83.45 0.02276
83.5 0.01513
83.55 0.01059
83.6 0.00317
83.65 -0.00023
83.7 -0.00077
83.75 -0.00402
83.8 -0.01016
83.85 -0.01088
83.9 -0.01072
83.95 -0.00684
84 0.00006
84.05 -0.00044
84.1 -0.00152
84.15 -0.00342
84.2 -0.0059
84.25 -0.00943
84.3 -0.00954
84.35 -0.00655
84.4 -0.00567
84.45 -0.00653
84.5 -0.0042
84.55 -0.0043
84.6 0
84.65 0.00567
84.7 0.00685
84.75 0.00963
84.8 0.00645
84.85 0.00696
84.9 0.0048
84.95 0.00183
85 0.00003
85.05 -0.00173
85.1 -0.00342
85.15 -0.00543
85.2 -0.01065
85.25 -0.00918
85.3 -0.00579
85.35 -0.00647
85.4 -0.0094
85.45 -0.01137
85.5 -0.01534
85.55 -0.01573
85.6 -0.01556
85.65 -0.01368
85.7 -0.00891
85.75 -0.00633
85.8 -0.00591
85.85 -0.00802
85.9 -0.00624
85.95 -0.00553
86 -0.00935
86.05 -0.01403
86.1 -0.02022
86.15 -0.02528
86.2 -0.03087
86.25 -0.03518
86.3 -0.03582
86.35 -0.035
86.4 -0.028
86.45 -0.02096
86.5 -0.01612
86.55 -0.01079
86.6 -0.00664
86.65 -0.00681
86.7 -0.00254
86.75 0.00333
86.8 0.00595
86.85 0.00531
86.9 0.00243
86.95 -0.00328
87 -0.00367
87.05 0.00096
87.1 -0.0006
87.15 0.00042
87.2 -0.00223
87.25 -0.00638
87.3 -0.01145
87.35 -0.01115
87.4 -0.01406
87.45 -0.01702
87.5 -0.02074
87.55 -0.02239
87.6 -0.02326
87.65 -0.02243
87.7 -0.01862
87.75 -0.01404
87.8 -0.00561
87.85 0.00207
87.9 0.0075
87.95 0.00888
88 0.00886
88.05 0.00744
88.1 0.00767
88.15 0.00877
88.2 0.00777
88.25 0.00602
88.3 0.00853
88.35 0.01179
88.4 0.01008
88.45 0.00457
88.5 -0.00153
88.55 -0.00166
88.6 -0.00233
88.65 0.00149
88.7 0.00397
88.75 0.00959
88.8 0.01195
88.85 0.01278
88.9 0.01435
88.95 0.01325
89 0.01304
89.05 0.01468
89.1 0.01742
89.15 0.02152
89.2 0.02644
89.25 0.02525
89.3 0.01912
89.35 0.00921
89.4 0.00137
89.45 -0.0036
89.5 -0.0109
89.55 -0.01909
89.6 -0.01909
89.65 -0.01429
89.7 -0.01422
89.75 -0.01115
89.8 -0.01019
89.85 -0.00908
89.9 -0.00798
89.95 -0.00926
90 -0.00577
90.05 -0.00495
90.1 -0.00339
90.15 -0.00222
90.2 0.00071
90.25 0.00183
90.3 0.00321
90.35 0.00543
90.4 0.00801
90.45 0.01373
90.5 0.01314
90.55 0.0161
90.6 0.01996
90.65 0.01846
90.7 0.01722
90.75 0.01921
90.8 0.01664
90.85 0.01327
90.9 0.0141
90.95 0.0113
91 0.01245
91.05 0.01426
91.1 0.01825
91.15 0.01902
91.2 0.01796
91.25 0.01339
91.3 0.00651
91.35 -0.0015
91.4 -0.00629
91.45 -0.00521
91.5 0.00041
91.55 0.001
91.6 0.00575
91.65 0.01074
91.7 0.01361
91.75 0.01196
91.8 0.0127
91.85 0.01291
91.9 0.0109
91.95 0.00547
92 -0.00257
92.05 -0.01054
92.1 -0.01324
92.15 -0.01053
92.2 -0.00744
92.25 -0.00954
92.3 -0.01403
92.35 -0.01562
92.4 -0.01515
92.45 -0.01813
92.5 -0.01525
92.55 -0.01252
92.6 -0.01049
92.65 -0.01171
92.7 -0.01389
92.75 -0.01121
92.8 -0.00715
92.85 0.00068
92.9 0.01007
92.95 0.01585
93 0.02217
93.05 0.02625
93.1 0.02234
93.15 0.01983
93.2 0.01305
93.25 0.00367
93.3 0.00017
93.35 -0.00358
93.4 -0.00161
93.45 -0.00438
93.5 -0.009
93.55 -0.00883
93.6 -0.01071
93.65 -0.01375
93.7 -0.01269
93.75 -0.01037
93.8 -0.00405
93.85 0.00371
93.9 0.00766
93.95 0.00858
94 0.00778
94.05 0.0082
94.1 0.00932
94.15 0.00949
94.2 0.01115
94.25 0.01157
94.3 0.00877
94.35 0.00745
94.4 0.00452
94.45 0.00026
94.5 0.00163
94.55 -0.00108
94.6 -0.00436
94.65 -0.00992
94.7 -0.00898
94.75 -0.0032
94.8 -0.00334
94.85 -0.00595
94.9 -0.0058
94.95 -0.00729
95 -0.01119
95.05 -0.01137
95.1 -0.01521
95.15 -0.01502
95.2 -0.01594
95.25 -0.01665
95.3 -0.01852
95.35 -0.0227
95.4 -0.02556
95.45 -0.02512
95.5 -0.01826
95.55 -0.01669
95.6 -0.00999
95.65 -0.00733
95.7 -0.00452
95.75 -0.00271
95.8 0.0035
95.85 0.00338
95.9 0.00211
95.95 0.00545
96 0.00855
96.05 0.01215
96.1 0.01187
96.15 0.00851
96.2 0.00569
96.25 0.00622
96.3 0.0066
96.35 0.00346
96.4 -0.00109
96.45 -0.0013
96.5 0.00037
96.55 -0.00223
96.6 -0.00443
96.65 -0.00557
96.7 -0.00664
96.75 -0.00677
96.8 -0.003
96.85 -0.00474
96.9 -0.00903
96.95 -0.01092
97 -0.00954
97.05 -0.00807
97.1 -0.00447
97.15 0.00017
97.2 0.00179
97.25 0.00199
97.3 0.0044
97.35 0.0086
97.4 0.00779
97.45 0.01095
97.5 0.01481
97.55 0.02018
97.6 0.02445
97.65 0.0268
97.7 0.0302
97.75 0.03089
97.8 0.03287
97.85 0.03013
97.9 0.03039
97.95 0.02432
98 0.01712
98.05 0.00933
98.1 0.00722
98.15 0.00462
98.2 -0.0012
98.25 -0.00728
98.3 -0.00919
98.35 -0.00605
98.4 -0.00817
98.45 -0.01343
98.5 -0.02047
98.55 -0.02232
98.6 -0.02177
98.65 -0.02274
98.7 -0.02424
98.75 -0.01883
98.8 -0.01315
98.85 -0.00514
98.9 0.0026
98.95 0.00913
99 0.01128
99.05 0.0093
99.1 0.01028
99.15 0.00869
99.2 0.01101
99.25 0.00834
99.3 0.00707
99.35 0.0012
99.4 -0.00358
99.45 -0.00909
99.5 -0.01026
99.55 -0.01202
99.6 -0.01232
99.65 -0.01496
99.7 -0.01507
99.75 -0.0176
99.8 -0.01754
99.85 -0.01288
99.9 -0.00625
99.95 -0.00249
