0 0
0.05 0.00903
0.1 0.02171
0.15 0.03597
0.2 0.04431
0.25 0.04645
0.3 0.04825
0.35 0.04746
0.4 0.04801
0.45 0.04943
0.5 0.04723
0.55 0.04801
0.6 0.04931
0.65 0.04798
0.7 0.04969
0.75 0.05277
0.8 0.0515
0.85 0.04859
0.9 0.05091
0.95 0.04716
1 0.03995
1.05 0.03971
1.1 0.03871
1.15 0.04137
1.2 0.04406
1.25 0.04096
1.3 0.03983
1.35 0.0379
1.4 0.03457
1.45 0.03117
1.5 0.03116
1.55 0.03085
1.6 0.02849
1.65 0.03048
1.7 0.0364
1.75 0.03924
1.8 0.04007
1.85 0.03858
1.9 0.03597
1.95 0.03757
2 0.034
2.05 0.02791
2.1 0.02014
2.15 0.01914
2.2 0.02379
2.25 0.02873
2.3 0.02999
2.35 0.02662
2.4 0.02164
2.45 0.02091
2.5 0.01995
2.55 0.0155
2.6 0.00964
2.65 0.00376
2.7 0.00363
2.75 0.00214
2.8 0.00606
2.85 0.01372
2.9 0.02314
2.95 0.02487
3 0.0269
3.05 0.02764
3.1 0.03212
3.15 0.03156
3.2 0.02666
3.25 0.02234
3.3 0.02033
3.35 0.01551
3.4 0.01623
3.45 0.0163
3.5 0.01333
3.55 0.00998
3.6 0.00567
3.65 0.00544
3.7 0.01066
3.75 0.01478
3.8 0.01842
3.85 0.02045
3.9 0.02616
3.95 0.0331
4 0.04019
4.05 0.0397
4.1 0.03995
4.15 0.03421
4.2 0.02516
4.25 0.02014
4.3 0.01102
4.35 0.00008
4.4 -0.00553
4.45 -0.00719
4.5 -0.01505
4.55 -0.02596
4.6 -0.03995
4.65 -0.05401
4.7 -0.0666
4.75 -0.08207
4.8 -0.10485
4.85 -0.13379
4.9 -0.16971
4.95 -0.20671
5 -0.24637
5.05 -0.28521
5.1 -0.33112
5.15 -0.38194
5.2 -0.44161
5.25 -0.5106
5.3 -0.58129
5.35 -0.66061
5.4 -0.74232
5.45 -0.82811
5.5 -0.91587
5.55 -1.00754
5.6 -1.09942
5.65 -1.18936
5.7 -1.28194
5.75 -1.37152
5.8 -1.46139
5.85 -1.54264
5.9 -1.62317
5.95 -1.69837
6 -1.76491
6.05 -1.8308
6.1 -1.8891
6.15 -1.94028
6.2 -1.98816
6.25 -2.03355
6.3 -2.07096
6.35 -2.10363
6.4 -2.12862
6.45 -2.14753
6.5 -2.15438
6.55 -2.14936
6.6 -2.1397
6.65 -2.11931
6.7 -2.09225
6.75 -2.04952
6.8 -1.99629
6.85 -1.92866
6.9 -1.85481
6.95 -1.76633
7 -1.66707
7.05 -1.55354
7.1 -1.4274
7.15 -1.28621
7.2 -1.13628
7.25 -0.97734
7.3 -0.81468
7.35 -0.64355
7.4 -0.47289
7.45 -0.30044
7.5 -0.13214
7.55 0.03104
7.6 0.18976
7.65 0.35145
7.7 0.51104
7.75 0.65881
7.8 0.79537
7.85 0.92422
7.9 1.04966
7.95 1.16959
8 1.28244
8.05 1.37824
8.1 1.46239
8.15 1.53874
8.2 1.60509
8.25 1.66314
8.3 1.71166
8.35 1.75342
8.4 1.79062
8.45 1.82376
8.5 1.85377
8.55 1.87961
8.6 1.89367
8.65 1.89906
8.7 1.89867
8.75 1.90087
8.8 1.90405
8.85 1.90599
8.9 1.90336
8.95 1.89911
9 1.89482
9.05 1.88789
9.1 1.87263
9.15 1.85468
9.2 1.83925
9.25 1.82278
9.3 1.80405
9.35 1.78348
9.4 1.7644
9.45 1.73883
9.5 1.71564
9.55 1.69234
9.6 1.66328
9.65 1.6304
9.7 1.60071
9.75 1.57334
9.8 1.5443
9.85 1.51512
9.9 1.48471
9.95 1.45812
10 1.4307
10.05 1.40464
10.1 1.36969
10.15 1.33594
10.2 1.2979
10.25 1.25494
10.3 1.21472
10.35 1.17344
10.4 1.12868
10.45 1.08668
10.5 1.04285
10.55 1.0057
10.6 0.96415
10.65 0.92548
10.7 0.8868
10.75 0.84743
10.8 0.80803
10.85 0.76841
10.9 0.73363
10.95 0.6967
11 0.65938
11.05 0.61742
11.1 0.57713
11.15 0.53729
11.2 0.50256
11.25 0.46346
11.3 0.42701
11.35 0.39543
11.4 0.35892
11.45 0.32105
11.5 0.28882
11.55 0.2564
11.6 0.22975
11.65 0.20087
11.7 0.17338
11.75 0.14821
11.8 0.12711
11.85 0.10084
11.9 0.07891
11.95 0.0596
12 0.03764
12.05 0.01527
12.1 -0.01109
12.15 -0.04051
12.2 -0.06565
12.25 -0.09232
12.3 -0.11087
12.35 -0.12358
12.4 -0.13993
12.45 -0.15363
12.5 -0.1678
12.55 -0.18041
12.6 -0.18987
12.65 -0.2017
12.7 -0.21204
12.75 -0.21999
12.8 -0.22578
12.85 -0.23421
12.9 -0.24597
12.95 -0.25294
13 -0.25844
13.05 -0.26786
13.1 -0.27912
13.15 -0.2852
13.2 -0.29071
13.25 -0.29339
13.3 -0.29763
13.35 -0.29794
13.4 -0.30117
13.45 -0.30676
13.5 -0.30894
13.55 -0.31287
13.6 -0.31832
13.65 -0.32586
13.7 -0.33231
13.75 -0.33939
13.8 -0.34031
13.85 -0.33901
13.9 -0.33823
13.95 -0.33882
14 -0.34095
14.05 -0.33745
14.1 -0.332
14.15 -0.32318
14.2 -0.3161
14.25 -0.31219
14.3 -0.30443
14.35 -0.3001
14.4 -0.29174
14.45 -0.29027
14.5 -0.28736
14.55 -0.28029
14.6 -0.27698
14.65 -0.2735
14.7 -0.27217
14.75 -0.27339
14.8 -0.26874
14.85 -0.26543
14.9 -0.26493
14.95 -0.26734
15 -0.26631
15.05 -0.26057
15.1 -0.25166
15.15 -0.2483
15.2 -0.2445
15.25 -0.23891
15.3 -0.23827
15.35 -0.2341
15.4 -0.22763
15.45 -0.22448
15.5 -0.22128
15.55 -0.22015
15.6 -0.22137
15.65 -0.22066
15.7 -0.21871
15.75 -0.21754
15.8 -0.21505
15.85 -0.20735
15.9 -0.20157
15.95 -0.19797
16 -0.193
16.05 -0.18758
16.1 -0.18398
16.15 -0.1836
16.2 -0.18207
16.25 -0.17567
16.3 -0.17229
16.35 -0.16836
16.4 -0.16482
16.45 -0.16664
16.5 -0.16387
16.55 -0.15838
16.6 -0.15632
16.65 -0.15228
16.7 -0.14684
16.75 -0.14782
16.8 -0.1445
16.85 -0.13932
16.9 -0.13935
16.95 -0.1407
17 -0.14039
17.05 -0.13945
17.1 -0.14134
17.15 -0.143
17.2 -0.14339
17.25 -0.14259
17.3 -0.14304
17.35 -0.1417
17.4 -0.13884
17.45 -0.13906
17.5 -0.13964
17.55 -0.14171
17.6 -0.14179
17.65 -0.13869
17.7 -0.13593
17.75 -0.12719
17.8 -0.12004
17.85 -0.10987
17.9 -0.1031
17.95 -0.10078
18 -0.10231
18.05 -0.0997
18.1 -0.09712
18.15 -0.09529
18.2 -0.09237
18.25 -0.08661
18.3 -0.07931
18.35 -0.0732
18.4 -0.06702
18.45 -0.06347
18.5 -0.06462
18.55 -0.06645
18.6 -0.07065
18.65 -0.07778
18.7 -0.08216
18.75 -0.08665
18.8 -0.08946
18.85 -0.08925
18.9 -0.08966
18.95 -0.0853
19 -0.08329
19.05 -0.07699
19.1 -0.07646
19.15 -0.07163
19.2 -0.07148
19.25 -0.07022
19.3 -0.07279
19.35 -0.07107
19.4 -0.06849
19.45 -0.06953
19.5 -0.07138
19.55 -0.07043
19.6 -0.07301
19.65 -0.06962
19.7 -0.06369
19.75 -0.0638
19.8 -0.06649
19.85 -0.0677
19.9 -0.0651
19.95 -0.06229
20 -0.05918
20.05 -0.0564
20.1 -0.05046
20.15 -0.04394
20.2 -0.03626
20.25 -0.0363
20.3 -0.03906
20.35 -0.03951
20.4 -0.04236
20.45 -0.04338
20.5 -0.04557
20.55 -0.04283
20.6 -0.04334
20.65 -0.04536
20.7 -0.05046
20.75 -0.04989
20.8 -0.04649
20.85 -0.03986
20.9 -0.03461
20.95 -0.02772
21 -0.02328
21.05 -0.01725
21.1 -0.01143
21.15 -0.0078
21.2 -0.00836
21.25 -0.01044
21.3 -0.01665
21.35 -0.02299
21.4 -0.02836
21.45 -0.03613
21.5 -0.03849
21.55 -0.03677
21.6 -0.03967
21.65 -0.04397
21.7 -0.04231
21.75 -0.04375
21.8 -0.04592
21.85 -0.04533
21.9 -0.0409
21.95 -0.03986
22 -0.03794
22.05 -0.03285
22.1 -0.02914
22.15 -0.03086
22.2 -0.02756
22.25 -0.0255
22.3 -0.02467
22.35 -0.02414
22.4 -0.02273
22.45 -0.01804
22.5 -0.01612
22.55 -0.01929
22.6 -0.02526
22.65 -0.03126
22.7 -0.03354
22.75 -0.02978
22.8 -0.02427
22.85 -0.02503
22.9 -0.02296
22.95 -0.02468
23 -0.02328
23.05 -0.02
23.1 -0.01364
23.15 -0.01261
23.2 -0.01405
23.25 -0.0184
23.3 -0.02129
23.35 -0.02109
23.4 -0.02087
23.45 -0.02177
23.5 -0.02019
23.55 -0.02242
23.6 -0.02609
23.65 -0.02687
23.7 -0.02736
23.75 -0.02675
23.8 -0.02266
23.85 -0.02018
23.9 -0.01748
23.95 -0.02024
24 -0.02134
24.05 -0.0234
24.1 -0.02713
24.15 -0.02899
24.2 -0.026
24.25 -0.02508
24.3 -0.02488
24.35 -0.02278
24.4 -0.02095
24.45 -0.02062
24.5 -0.02274
24.55 -0.01873
24.6 -0.01294
24.65 -0.01123
24.7 -0.01178
24.75 -0.01036
24.8 -0.01118
24.85 -0.01007
24.9 -0.00512
24.95 -0.00566
25 -0.0028
25.05 -0.00229
25.1 0.00126
25.15 0.00299
25.2 0.00015
25.25 -0.00037
25.3 -0.00491
25.35 -0.00382
25.4 -0.0059
25.45 -0.00994
25.5 -0.01671
25.55 -0.02112
25.6 -0.02715
25.65 -0.0306
25.7 -0.03008
25.75 -0.02674
25.8 -0.02069
25.85 -0.01869
25.9 -0.01811
25.95 -0.01835
26 -0.0223
26.05 -0.02258
26.1 -0.01936
26.15 -0.01266
26.2 -0.00433
26.25 0.00269
26.3 0.00812
26.35 0.01295
26.4 0.01031
26.45 0.00627
26.5 0.00224
26.55 -0.00031
26.6 -0.00041
26.65 0.00239
26.7 0.00608
26.75 0.00735
26.8 0.01018
26.85 0.01037
26.9 0.00968
26.95 0.00453
27 0.00407
27.05 0.00668
27.1 0.00469
27.15 -0.00147
27.2 -0.00452
27.25 -0.0033
27.3 -0.00209
27.35 -0.00234
27.4 -0.00765
27.45 -0.01208
27.5 -0.01328
27.55 -0.01663
27.6 -0.02183
27.65 -0.02471
27.7 -0.02905
27.75 -0.03057
27.8 -0.0287
27.85 -0.026
27.9 -0.01919
27.95 -0.01367
28 -0.01083
28.05 -0.00522
28.1 -0.00354
28.15 -0.00306
28.2 -0.00438
28.25 -0.01074
28.3 -0.01663
28.35 -0.02203
28.4 -0.02332
28.45 -0.02632
28.5 -0.03522
28.55 -0.04229
28.6 -0.05274
28.65 -0.06368
28.7 -0.07703
28.75 -0.08562
28.8 -0.09096
28.85 -0.0963
28.9 -0.10123
28.95 -0.11079
29 -0.12408
29.05 -0.14014
29.1 -0.15799
29.15 -0.17618
29.2 -0.19742
29.25 -0.21778
29.3 -0.23765
29.35 -0.25983
29.4 -0.28582
29.45 -0.31273
29.5 -0.33914
29.55 -0.36266
29.6 -0.37945
29.65 -0.39692
29.7 -0.41697
29.75 -0.4322
29.8 -0.44461
29.85 -0.45617
29.9 -0.46229
29.95 -0.46812
30 -0.46914
30.05 -0.46995
30.1 -0.46174
30.15 -0.44615
30.2 -0.42687
30.25 -0.40883
30.3 -0.38431
30.35 -0.36198
30.4 -0.33707
30.45 -0.31366
30.5 -0.28129
30.55 -0.24438
30.6 -0.20436
30.65 -0.16078
30.7 -0.12203
30.75 -0.08161
30.8 -0.04166
30.85 -0.00786
30.9 0.02822
30.95 0.05898
31 0.08762
31.05 0.11446
31.1 0.14515
31.15 0.17226
31.2 0.19855
31.25 0.22366
31.3 0.24158
31.35 0.2585
31.4 0.27202
31.45 0.28793
31.5 0.30027
31.55 0.31022
31.6 0.31149
31.65 0.30873
31.7 0.30308
31.75 0.29828
31.8 0.29353
31.85 0.28976
31.9 0.28325
31.95 0.2753
32 0.2735
32.05 0.27663
32.1 0.27476
32.15 0.27587
32.2 0.27321
32.25 0.26774
32.3 0.26264
32.35 0.25885
32.4 0.25861
32.45 0.26399
32.5 0.26974
32.55 0.27799
32.6 0.28363
32.65 0.28242
32.7 0.28263
32.75 0.28658
32.8 0.28809
32.85 0.28368
32.9 0.28265
32.95 0.28108
33 0.27608
33.05 0.27582
33.1 0.27687
33.15 0.27179
33.2 0.26822
33.25 0.26348
33.3 0.25431
33.35 0.24291
33.4 0.23059
33.45 0.22137
33.5 0.21708
33.55 0.21665
33.6 0.21816
33.65 0.21751
33.7 0.21149
33.75 0.20804
33.8 0.20163
33.85 0.19754
33.9 0.19162
33.95 0.18157
34 0.17153
34.05 0.15999
34.1 0.14808
34.15 0.13779
34.2 0.13339
34.25 0.12743
34.3 0.1222
34.35 0.12006
34.4 0.11327
34.45 0.10301
34.5 0.09162
34.55 0.08622
34.6 0.08161
34.65 0.07562
34.7 0.06554
34.75 0.05923
34.8 0.05294
34.85 0.05111
34.9 0.04492
34.95 0.0355
35 0.0286
35.05 0.02032
35.1 0.01093
35.15 0.0005
35.2 -0.01062
35.25 -0.01772
35.3 -0.02417
35.35 -0.02526
35.4 -0.02955
35.45 -0.03567
35.5 -0.03718
35.55 -0.03564
35.6 -0.03117
35.65 -0.02845
35.7 -0.02591
35.75 -0.02235
35.8 -0.02621
35.85 -0.03348
35.9 -0.0354
35.95 -0.04097
36 -0.04309
36.05 -0.04489
36.1 -0.04301
36.15 -0.03818
36.2 -0.03694
36.25 -0.03633
36.3 -0.03353
36.35 -0.03276
36.4 -0.03082
36.45 -0.03349
36.5 -0.03929
36.55 -0.04
36.6 -0.03985
36.65 -0.04161
36.7 -0.04147
36.75 -0.04373
36.8 -0.0449
36.85 -0.0455
36.9 -0.04838
36.95 -0.05304
37 -0.05537
37.05 -0.05775
37.1 -0.05995
37.15 -0.05771
37.2 -0.05817
37.25 -0.05825
37.3 -0.06228
37.35 -0.06296
37.4 -0.06511
37.45 -0.0631
37.5 -0.06021
37.55 -0.05892
37.6 -0.06008
37.65 -0.06326
37.7 -0.06772
37.75 -0.06441
37.8 -0.0641
37.85 -0.06569
37.9 -0.06689
37.95 -0.0689
38 -0.07252
38.05 -0.07566
38.1 -0.07122
38.15 -0.06669
38.2 -0.06292
38.25 -0.05929
38.3 -0.05244
38.35 -0.04653
38.4 -0.04566
38.45 -0.04356
38.5 -0.03814
38.55 -0.03569
38.6 -0.03444
38.65 -0.03339
38.7 -0.0288
38.75 -0.0301
38.8 -0.03279
38.85 -0.03319
38.9 -0.03033
38.95 -0.02495
39 -0.0194
39.05 -0.01459
39.1 -0.01326
39.15 -0.01399
39.2 -0.01393
39.25 -0.01197
39.3 -0.0121
39.35 -0.01399
39.4 -0.02024
39.45 -0.02882
39.5 -0.02948
39.55 -0.02581
39.6 -0.02246
39.65 -0.01623
39.7 -0.01618
39.75 -0.01734
39.8 -0.01535
39.85 -0.01764
39.9 -0.02197
39.95 -0.02935
40 -0.03633
40.05 -0.04179
40.1 -0.0455
40.15 -0.04395
40.2 -0.03864
40.25 -0.03248
40.3 -0.02592
40.35 -0.01698
40.4 -0.00946
40.45 -0.00701
40.5 -0.00704
40.55 -0.00948
40.6 -0.01291
40.65 -0.01298
40.7 -0.01664
40.75 -0.0222
40.8 -0.0264
40.85 -0.03058
40.9 -0.02765
40.95 -0.02945
41 -0.02951
41.05 -0.03237
41.1 -0.03702
41.15 -0.03632
41.2 -0.03214
41.25 -0.02924
41.3 -0.02874
41.35 -0.02946
41.4 -0.02727
41.45 -0.02392
41.5 -0.02044
41.55 -0.01974
41.6 -0.02027
41.65 -0.01573
41.7 -0.01598
41.75 -0.01577
41.8 -0.01701
41.85 -0.01731
41.9 -0.01591
41.95 -0.01443
42 -0.01698
42.05 -0.01491
42.1 -0.01196
42.15 -0.0142
42.2 -0.0153
42.25 -0.01569
42.3 -0.01461
42.35 -0.00972
42.4 -0.00545
42.45 -0.00334
42.5 -0.00391
42.55 -0.00169
42.6 -0.00416
42.65 -0.00267
42.7 -0.0042
42.75 -0.00597
42.8 -0.00462
42.85 -0.00765
42.9 -0.00539
42.95 -0.00771
43 -0.00663
43.05 -0.00928
43.1 -0.01176
43.15 -0.01689
43.2 -0.01718
43.25 -0.01929
43.3 -0.0161
43.35 -0.01565
43.4 -0.01506
43.45 -0.01695
43.5 -0.0195
43.55 -0.02101
43.6 -0.02153
43.65 -0.0166
43.7 -0.01005
43.75 -0.00146
43.8 0.0049
43.85 0.00407
43.9 0.00153
43.95 -0.00471
44 -0.00609
44.05 -0.00535
44.1 -0.00046
44.15 -0.00145
44.2 0.00102
44.25 0.00478
44.3 0.00497
44.35 0.00173
44.4 -0.00396
44.45 -0.00424
44.5 -0.00752
44.55 -0.00479
44.6 -0.00611
44.65 -0.00364
44.7 -0.00567
44.75 -0.00675
44.8 -0.00891
44.85 -0.01121
44.9 -0.01129
44.95 -0.01455
45 -0.01529
45.05 -0.0147
45.1 -0.01459
45.15 -0.01286
45.2 -0.01362
45.25 -0.01507
45.3 -0.0137
45.35 -0.0157
45.4 -0.01943
45.45 -0.01938
45.5 -0.01484
45.55 -0.01208
45.6 -0.00736
45.65 -0.00635
45.7 -0.00128
45.75 0.00648
45.8 0.01226
45.85 0.01732
45.9 0.02199
45.95 0.02222
46 0.02148
46.05 0.02324
46.1 0.02568
46.15 0.02094
46.2 0.01827
46.25 0.01635
46.3 0.00956
46.35 0.00788
46.4 0.00602
46.45 0.00076
46.5 -0.00408
46.55 -0.00988
46.6 -0.0128
46.65 -0.01325
46.7 -0.0107
46.75 -0.0107
46.8 -0.00779
46.85 -0.00147
46.9 0.00119
46.95 0.00557
47 0.01123
47.05 0.01164
47.1 0.00668
47.15 0.00362
47.2 -0.00087
47.25 0.00033
47.3 -0.00235
47.35 -0.00276
47.4 0.00029
47.45 0.00181
47.5 0.00393
47.55 0.0025
47.6 -0.00113
47.65 -0.00404
47.7 -0.00227
47.75 0.00087
47.8 -0.00148
47.85 -0.00149
47.9 -0.00219
47.95 -0.00559
48 -0.00721
48.05 -0.0073
48.1 -0.00776
48.15 -0.00722
48.2 -0.00428
48.25 -0.00246
48.3 -0.00483
48.35 -0.00232
48.4 -0.00066
48.45 0.00343
48.5 0.00698
48.55 0.00685
48.6 0.0085
48.65 0.00466
48.7 0.00005
48.75 -0.0032
48.8 -0.00866
48.85 -0.01094
48.9 -0.01582
48.95 -0.01721
49 -0.01579
49.05 -0.01125
49.1 -0.00407
49.15 0.00143
49.2 0.00592
49.25 0.00802
49.3 0.0096
49.35 0.01064
49.4 0.00574
49.45 -0.00103
49.5 -0.00861
49.55 -0.01335
49.6 -0.0133
49.65 -0.00776
49.7 0.00071
49.75 0.00853
49.8 0.0084
49.85 0.00695
49.9 0.0074
49.95 0.00857
50 0.0127
50.05 0.01795
50.1 0.01662
50.15 0.01269
50.2 0.01141
50.25 0.00937
50.3 0.00765
50.35 0.00942
50.4 0.01169
50.45 0.01152
50.5 0.00687
50.55 -0.00037
50.6 -0.00473
50.65 -0.00975
50.7 -0.01332
50.75 -0.0126
50.8 -0.01476
50.85 -0.01228
50.9 -0.01287
50.95 -0.01635
51 -0.01387
51.05 -0.01411
51.1 -0.01639
51.15 -0.01491
51.2 -0.01458
51.25 -0.0125
51.3 -0.00659
51.35 -0.00218
51.4 -0.00274
51.45 -0.00748
51.5 -0.00918
51.55 -0.00518
51.6 -0.00183
51.65 -0.00231
51.7 -0.00418
51.75 -0.00757
51.8 -0.00659
51.85 -0.00281
51.9 -0.00175
51.95 -0.00298
52 -0.00069
52.05 0.00276
52.1 0.00182
52.15 0.0012
52.2 0.00378
52.25 0.00306
52.3 0.00057
52.35 0.00259
52.4 0.00418
52.45 0.00581
52.5 0.00827
52.55 0.01198
52.6 0.01448
52.65 0.01255
52.7 0.01387
52.75 0.0173
52.8 0.01622
52.85 0.01771
52.9 0.01369
52.95 0.01198
53 0.00627
53.05 0.00316
53.1 -0.00028
53.15 -0.00407
53.2 -0.00238
53.25 -0.00305
53.3 -0.00731
53.35 -0.01195
53.4 -0.01459
53.45 -0.01791
53.5 -0.01514
53.55 -0.01432
53.6 -0.01062
53.65 -0.00912
53.7 -0.0086
53.75 -0.00577
53.8 -0.00556
53.85 -0.0085
53.9 -0.01222
53.95 -0.01323
54 -0.01688
54.05 -0.017
54.1 -0.01171
54.15 -0.00484
54.2 -0.00072
54.25 0.00006
54.3 -0.00381
54.35 -0.00626
54.4 -0.00504
54.45 -0.00117
54.5 0.00385
54.55 0.00678
54.6 0.00773
54.65 0.00731
54.7 0.00746
54.75 0.008
54.8 0.0076
54.85 0.00308
54.9 -0.0014
54.95 -0.00832
55 -0.01304
55.05 -0.0133
55.1 -0.01219
55.15 -0.00828
55.2 -0.00551
55.25 -0.00086
55.3 0.00582
55.35 0.01278
55.4 0.02
55.45 0.02114
55.5 0.02458
55.55 0.02147
55.6 0.01482
55.65 0.00708
55.7 0.00573
55.75 0.00211
55.8 -0.00125
55.85 0.00016
55.9 -0.00005
55.95 -0.00063
56 0.00335
56.05 0.00539
56.1 0.01064
56.15 0.01712
56.2 0.02327
56.25 0.0235
56.3 0.02315
56.35 0.018
56.4 0.00917
56.45 0.00404
56.5 -0.0017
56.55 -0.00584
56.6 -0.00788
56.65 -0.00808
56.7 -0.01057
56.75 -0.00848
56.8 -0.0065
56.85 -0.00344
56.9 -0.00043
56.95 0.00452
57 0.00806
57.05 0.00789
57.1 0.00736
57.15 0.00393
57.2 -0.00017
57.25 -0.00255
57.3 -0.00471
57.35 -0.00701
57.4 -0.00597
57.45 -0.00272
57.5 -0.00257
57.55 -0.00033
57.6 0.00125
57.65 -0.00208
57.7 -0.00295
57.75 -0.00369
57.8 -0.0002
57.85 -0.00159
57.9 -0.00139
57.95 0.00119
58 -0.00185
58.05 -0.0044
58.1 -0.00974
58.15 -0.01242
58.2 -0.01024
58.25 -0.00461
58.3 -0.00161
58.35 0.00032
58.4 0.00028
58.45 0.00365
58.5 0.00236
58.55 -0.00155
58.6 -0.00774
58.65 -0.01048
58.7 -0.01435
58.75 -0.01453
58.8 -0.01498
58.85 -0.01333
58.9 -0.00851
58.95 -0.00344
59 0.0029
59.05 0.00638
59.1 0.01193
59.15 0.01694
59.2 0.02293
59.25 0.02911
59.3 0.03264
59.35 0.02899
59.4 0.02235
59.45 0.01377
59.5 0.00985
59.55 0.0025
59.6 -0.00409
59.65 -0.00591
59.7 -0.00399
59.75 -0.00102
59.8 -0.00336
59.85 -0.00461
59.9 -0.00738
59.95 -0.01188
60 -0.00965
60.05 -0.00542
60.1 -0.00485
60.15 -0.00832
60.2 -0.01291
60.25 -0.01577
60.3 -0.01286
60.35 -0.00744
60.4 -0.00555
60.45 -0.00157
60.5 0.00445
60.55 0.01147
60.6 0.01853
60.65 0.02084
60.7 0.01707
60.75 0.00949
60.8 -0.00074
60.85 -0.01194
60.9 -0.01887
60.95 -0.02093
61 -0.02507
61.05 -0.02628
61.1 -0.02935
61.15 -0.03234
61.2 -0.03366
61.25 -0.0324
61.3 -0.02646
61.35 -0.02074
61.4 -0.01879
61.45 -0.01183
61.5 -0.00303
61.55 0.00361
61.6 0.00738
61.65 0.00927
61.7 0.01427
61.75 0.01711
61.8 0.01481
61.85 0.01387
61.9 0.00776
61.95 0.00563
62 0.00584
62.05 0.00182
62.1 0.00139
62.15 0.00061
62.2 0.00324
62.25 0.00136
62.3 -0.00067
62.35 0.00101
62.4 -0.00166
62.45 -0.00457
62.5 -0.00972
62.55 -0.01068
62.6 -0.0132
62.65 -0.01096
62.7 -0.00659
62.75 -0.00379
62.8 -0.00621
62.85 -0.00461
62.9 -0.00047
62.95 -0.00159
63 -0.00377
63.05 -0.00058
63.1 0.00469
63.15 0.00361
63.2 0.00207
63.25 -0.00227
63.3 -0.00171
63.35 -0.00113
63.4 0.00141
63.45 0.00143
63.5 -0.00058
63.55 -0.00622
63.6 -0.00472
63.65 -0.00096
63.7 0.00367
63.75 0.00607
63.8 0.00332
63.85 0.00159
63.9 -0.00337
63.95 -0.00801
64 -0.00589
64.05 -0.00831
64.1 -0.00668
64.15 -0.00166
64.2 0.00229
64.25 0.00056
64.3 0.00028
64.35 0.00254
64.4 0.00556
64.45 0.00961
64.5 0.00731
64.55 0.00576
64.6 0.0003
64.65 0.00033
64.7 -0.00116
64.75 0.00177
64.8 -0.00077
64.85 -0.00334
64.9 -0.00441
64.95 -0.00037
65 0.00242
65.05 0.00223
65.1 0.00507
65.15 0.009
65.2 0.01392
65.25 0.01921
65.3 0.02365
65.35 0.02547
65.4 0.02888
65.45 0.03139
65.5 0.03319
65.55 0.03048
65.6 0.02705
65.65 0.02241
65.7 0.019
65.75 0.01746
65.8 0.01016
65.85 0.00127
65.9 -0.0061
65.95 -0.0071
66 -0.00605
66.05 -0.0052
66.1 -0.00029
66.15 0.00638
66.2 0.01228
66.25 0.01778
66.3 0.01484
66.35 0.00733
66.4 0.00314
66.45 0.00347
66.5 0.00174
66.55 0.00122
66.6 0.00324
66.65 0.00588
66.7 0.00871
66.75 0.00882
66.8 0.00625
66.85 0.00473
66.9 -0.00083
66.95 -0.00048
67 -0.00239
67.05 -0.00424
67.1 -0.00675
67.15 -0.00663
67.2 -0.00623
67.25 -0.00541
67.3 -0.00657
67.35 -0.00524
67.4 -0.00489
67.45 -0.00894
67.5 -0.00791
67.55 -0.00453
67.6 0.0018
67.65 0.00837
67.7 0.01024
67.75 0.01308
67.8 0.0092
67.85 0.00476
67.9 0.00044
67.95 -0.00675
68 -0.00892
68.05 -0.0068
68.1 -0.00328
68.15 0.00299
68.2 0.00818
68.25 0.00842
68.3 0.0082
68.35 0.00586
68.4 0.00762
68.45 0.00832
68.5 0.01043
68.55 0.00702
68.6 -0.00022
68.65 -0.00658
68.7 -0.01042
68.75 -0.00861
68.8 -0.01138
68.85 -0.01349
68.9 -0.01514
68.95 -0.0134
69 -0.00833
69.05 -0.00398
69.1 -0.00384
69.15 0.00007
69.2 -0.00183
69.25 -0.00417
69.3 -0.00993
69.35 -0.01577
69.4 -0.02293
69.45 -0.02642
69.5 -0.0251
69.55 -0.02513
69.6 -0.02109
69.65 -0.01579
69.7 -0.00869
69.75 -0.00037
69.8 0.00857
69.85 0.01764
69.9 0.02183
69.95 0.02598
70 0.03009
70.05 0.02732
70.1 0.02013
70.15 0.01539
70.2 0.01033
70.25 0.00423
70.3 -0.00179
70.35 -0.01038
70.4 -0.01876
70.45 -0.0262
70.5 -0.03064
70.55 -0.02901
70.6 -0.02431
70.65 -0.02379
70.7 -0.02102
70.75 -0.02243
70.8 -0.01769
70.85 -0.01098
70.9 -0.00759
70.95 -0.00562
71 -0.00815
71.05 -0.01262
71.1 -0.0172
71.15 -0.01457
71.2 -0.01149
71.25 -0.00502
71.3 0.00042
71.35 0.00351
71.4 0.00724
71.45 0.0123
71.5 0.01242
71.55 0.0106
71.6 0.01234
71.65 0.01511
71.7 0.01954
71.75 0.0234
71.8 0.02109
71.85 0.02046
71.9 0.02014
71.95 0.02205
72 0.01842
72.05 0.01215
72.1 0.01016
72.15 0.00428
72.2 -0.00168
72.25 -0.00624
72.3 -0.00728
72.35 -0.00652
72.4 -0.00921
72.45 -0.00737
72.5 -0.00934
72.55 -0.01092
72.6 -0.01013
72.65 -0.00985
72.7 -0.00504
72.75 -0.00065
72.8 0.0058
72.85 0.01155
72.9 0.01236
72.95 0.00939
73 0.00385
73.05 -0.00117
73.1 -0.00249
73.15 -0.00715
73.2 -0.00634
73.25 -0.00684
73.3 -0.00481
73.35 -0.00717
73.4 -0.0119
73.45 -0.01072
73.5 -0.00501
73.55 -0.00482
73.6 -0.00528
73.65 -0.0038
73.7 0.00116
73.75 0.00232
73.8 -0.00035
73.85 -0.00284
73.9 -0.00819
73.95 -0.01009
74 -0.01072
74.05 -0.00916
74.1 -0.01123
74.15 -0.01388
74.2 -0.01463
74.25 -0.01343
74.3 -0.01042
74.35 -0.00902
74.4 -0.00759
74.45 -0.00727
74.5 -0.00444
74.55 -0.00347
74.6 -0.00051
74.65 0.00363
74.7 0.00494
74.75 0.00492
74.8 0.00102
74.85 -0.00536
74.9 -0.01329
74.95 -0.01432
75 -0.01168
75.05 -0.00964
75.1 -0.00375
75.15 0.004
75.2 0.00416
75.25 0.00551
75.3 0.00881
75.35 0.01284
75.4 0.01402
75.45 0.01218
75.5 0.00887
75.55 0.00334
75.6 0.00161
75.65 -0.00273
75.7 -0.00891
75.75 -0.01649
75.8 -0.02391
75.85 -0.03126
75.9 -0.0334
75.95 -0.03438
76 -0.03104
76.05 -0.02506
76.1 -0.01487
76.15 -0.00991
76.2 -0.00523
76.25 -0.00217
76.3 0.00059
76.35 0.00181
76.4 0.00549
76.45 0.01106
76.5 0.01172
76.55 0.0092
76.6 0.00701
76.65 0.00728
76.7 0.00316
76.75 0.00009
76.8 -0.00534
76.85 -0.0084
76.9 -0.00897
76.95 -0.01039
77 -0.00749
77.05 -0.00525
77.1 -0.00098
77.15 0.00503
77.2 0.00867
77.25 0.01201
77.3 0.01701
77.35 0.02032
77.4 0.01744
77.45 0.01356
77.5 0.0053
77.55 0.00173
77.6 0.00211
77.65 -0.00096
77.7 -0.00226
77.75 -0.00603
77.8 -0.00365
77.85 -0.00324
77.9 -0.00508
77.95 -0.00527
78 -0.00558
78.05 -0.00855
78.1 -0.01389
78.15 -0.01676
78.2 -0.02175
78.25 -0.02754
78.3 -0.03128
78.35 -0.02836
78.4 -0.02394
78.45 -0.0165
78.5 -0.00979
78.55 -0.00667
78.6 -0.00266
78.65 0.0002
78.7 0.00433
78.75 0.00962
78.8 0.01402
78.85 0.01128
78.9 0.00512
78.95 -0.00052
79 -0.00222
79.05 -0.00597
79.1 -0.01197
79.15 -0.01569
79.2 -0.01886
79.25 -0.01768
79.3 -0.01286
79.35 -0.00464
79.4 -0.00036
79.45 0.00514
79.5 0.01105
79.55 0.01427
79.6 0.0178
79.65 0.02221
79.7 0.02564
79.75 0.0285
79.8 0.02725
79.85 0.02469
79.9 0.02537
79.95 0.02752
80 0.03072
80.05 0.03059
80.1 0.02708
80.15 0.02324
80.2 0.01553
80.25 0.00842
80.3 0.0012
80.35 -0.00317
80.4 -0.00381
80.45 -0.00535
80.5 -0.00756
80.55 -0.00422
80.6 -0.00606
80.65 -0.00459
80.7 -0.0057
80.75 -0.00405
80.8 -0.0017
80.85 -0.00239
80.9 0.00097
80.95 0.00343
81 0.00618
81.05 0.01085
81.1 0.01167
81.15 0.01406
81.2 0.01868
81.25 0.02407
81.3 0.02435
81.35 0.02317
81.4 0.01919
81.45 0.01789
81.5 0.01845
81.55 0.01835
81.6 0.01704
81.65 0.01308
81.7 0.00647
81.75 0.00131
81.8 -0.00357
81.85 -0.00636
81.9 -0.01107
81.95 -0.00935
82 -0.00719
82.05 -0.00814
82.1 -0.0059
82.15 -0.00025
82.2 0.00236
82.25 0.0058
82.3 0.00864
82.35 0.00896
82.4 0.00489
82.45 0.0012
82.5 -0.00327
82.55 -0.0081
82.6 -0.01223
82.65 -0.01483
82.7 -0.0191
82.75 -0.01711
82.8 -0.01913
82.85 -0.01656
82.9 -0.01168
82.95 -0.01057
83 -0.01353
83.05 -0.01809
83.1 -0.01906
83.15 -0.02046
83.2 -0.01933
83.25 -0.01629
83.3 -0.01046
83.35 -0.00267
83.4 0.00239
83.45 0.00768
83.5 0.00842
83.55 0.01225
83.6 0.01433
83.65 0.0149
83.7 0.01639
83.75 0.0133
83.8 0.0094
83.85 0.01025
83.9 0.00974
83.95 0.01218
84 0.0168
84.05 0.01344
84.1 0.00784
84.15 0.00087
84.2 -0.00834
84.25 -0.01312
84.3 -0.01941
84.35 -0.02554
84.4 -0.03018
84.45 -0.02629
84.5 -0.02209
84.55 -0.01581
84.6 -0.01354
84.65 -0.01561
84.7 -0.0164
84.75 -0.01551
84.8 -0.01791
84.85 -0.02121
84.9 -0.02267
84.95 -0.02108
85 -0.01878
85.05 -0.01979
85.1 -0.01667
85.15 -0.01392
85.2 -0.00834
85.25 -0.00622
85.3 -0.00097
85.35 0.00303
85.4 0.00086
85.45 0.001
85.5 -0.00044
85.55 0.00033
85.6 0.00158
85.65 -0.00092
85.7 -0.00475
85.75 -0.00689
85.8 -0.00425
85.85 -0.00598
85.9 -0.00468
85.95 -0.00222
86 -0.00382
86.05 -0.00335
86.1 0.00155
86.15 0.00786
86.2 0.01553
86.25 0.02003
86.3 0.01739
86.35 0.00987
86.4 0.00332
86.45 -0.00287
86.5 -0.00604
86.55 -0.00978
86.6 -0.00902
86.65 -0.00917
86.7 -0.00795
86.75 -0.00863
86.8 -0.00996
86.85 -0.00723
86.9 -0.00141
86.95 0.00661
87 0.01214
87.05 0.01204
87.1 0.00994
87.15 0.00776
87.2 0.00772
87.25 0.00436
87.3 0.0008
87.35 -0.002
87.4 -0.00815
87.45 -0.00898
87.5 -0.00784
87.55 -0.00431
87.6 0.00026
87.65 0.0016
87.7 0.00632
87.75 0.00562
87.8 0.00461
87.85 0.00389
87.9 0.00316
87.95 0.005
88 0.00585
88.05 0.00905
88.1 0.0085
88.15 0.00537
88.2 0.00382
88.25 0.00212
88.3 -0.0009
88.35 -0.00018
88.4 -0.00184
88.45 -0.00574
88.5 -0.00803
88.55 -0.00845
88.6 -0.00741
88.65 -0.0018
88.7 -0.00105
88.75 0.00001
88.8 -0.00008
88.85 -0.0021
88.9 -0.00429
88.95 -0.0055
89 -0.00748
89.05 -0.01215
89.1 -0.01534
89.15 -0.01971
89.2 -0.01911
89.25 -0.02104
89.3 -0.01907
89.35 -0.01742
89.4 -0.01018
89.45 -0.00358
89.5 -0.00133
89.55 0.00469
89.6 0.0095
89.65 0.01133
89.7 0.01154
89.75 0.01471
89.8 0.01326
89.85 0.0112
89.9 0.00869
89.95 0.00464
90 0.00312
90.05 -0.00069
90.1 0.00011
90.15 0.00128
90.2 0.00493
90.25 0.00535
90.3 0.0044
90.35 0.00641
90.4 0.00574
90.45 0.00294
90.5 0.00017
90.55 -0.0001
90.6 -0.00197
90.65 -0.00698
90.7 -0.00706
90.75 -0.00231
90.8 -0.00273
90.85 0.0002
90.9 -0.00103
90.95 -0.00621
91 -0.01293
91.05 -0.0166
91.1 -0.01397
91.15 -0.01556
91.2 -0.01786
91.25 -0.01963
91.3 -0.01982
91.35 -0.01504
91.4 -0.0102
91.45 -0.00825
91.5 -0.00897
91.55 -0.0126
91.6 -0.01293
91.65 -0.00851
91.7 -0.00409
91.75 0.00062
91.8 0.00592
91.85 0.00552
91.9 0.00046
91.95 -0.00035
92 -0.00253
92.05 -0.00633
92.1 -0.00877
92.15 -0.00564
92.2 -0.00394
92.25 -0.00142
92.3 -0.00233
92.35 -0.00216
92.4 -0.00323
92.45 -0.00159
92.5 0.00411
92.55 0.00683
92.6 0.005
92.65 0.00305
92.7 0.00439
92.75 0.00856
92.8 0.0069
92.85 0.01013
92.9 0.0138
92.95 0.01758
93 0.02137
93.05 0.01925
93.1 0.01621
93.15 0.01052
93.2 0.00927
93.25 0.01194
93.3 0.01687
93.35 0.01642
93.4 0.01274
93.45 0.00601
93.5 0.00113
93.55 -0.00519
93.6 -0.01316
93.65 -0.0172
93.7 -0.01767
93.75 -0.01868
93.8 -0.01963
93.85 -0.0175
93.9 -0.01679
93.95 -0.01162
94 -0.01171
94.05 -0.013
94.1 -0.0106
94.15 -0.00597
94.2 -0.00369
94.25 -0.0062
94.3 -0.01119
94.35 -0.01231
94.4 -0.00737
94.45 -0.00162
94.5 0.00396
94.55 0.00732
94.6 0.01232
94.65 0.01224
94.7 0.01003
94.75 0.00708
94.8 0.00606
94.85 0.00187
94.9 -0.00221
94.95 -0.00342
95 -0.00411
95.05 -0.00805
95.1 -0.00863
95.15 -0.0077
95.2 -0.00776
95.25 -0.01132
95.3 -0.01588
95.35 -0.01675
95.4 -0.01272
95.45 -0.00492
95.5 0.00361
95.55 0.0106
95.6 0.01549
95.65 0.01326
95.7 0.01003
95.75 0.00622
95.8 0.0033
95.85 -0.00202
95.9 -0.00219
95.95 -0.0054
96 -0.01053
96.05 -0.01354
96.1 -0.01651
96.15 -0.02077
96.2 -0.02172
96.25 -0.02238
96.3 -0.02071
96.35 -0.02104
96.4 -0.01872
96.45 -0.01863
96.5 -0.01269
96.55 -0.0071
96.6 0.00157
96.65 0.0075
96.7 0.00843
96.75 0.00713
96.8 0.00503
96.85 0.00787
96.9 0.00815
96.95 0.00486
97 0.00555
97.05 0.00198
97.1 -0.00434
97.15 -0.00477
97.2 -0.00035
97.25 0.00258
97.3 0.00575
97.35 0.00972
97.4 0.00979
97.45 0.01327
97.5 0.01568
97.55 0.01474
97.6 0.00981
97.65 0.00815
97.7 0.00233
97.75 -0.0038
97.8 -0.00369
97.85 -0.00273
97.9 0.0024
97.95 0.00829
98 0.01415
98.05 0.01264
98.1 0.01187
98.15 0.01394
98.2 0.01861
98.25 0.01938
98.3 0.01645
98.35 0.01482
98.4 0.00973
98.45 0.0103
98.5 0.01345
98.55 0.01088
98.6 0.00675
98.65 0.00359
98.7 0.0049
98.75 0.00536
98.8 0.00941
98.85 0.01421
98.9 0.01317
98.95 0.01539
99 0.0111
99.05 0.00958
99.1 0.00526
99.15 0.00095
99.2 -0.00261
99.25 -0.0036
99.3 -0.00833
99.35 -0.01392
99.4 -0.01553
99.45 -0.01526
99.5 -0.0164
99.55 -0.01382
99.6 -0.00911
99.65 -0.0088
99.7 -0.00982
99.75 -0.00604
99.8 -0.00312
99.85 -0.00011
99.9 0.00067
99.95 -0.00065
