0 0
0.05 0.00196
0.1 0.01134
0.15 0.02077
0.2 0.02751
0.25 0.03026
0.3 0.0323
0.35 0.0398
0.4 0.04527
0.45 0.04741
0.5 0.04764
0.55 0.04501
0.6 0.04797
0.65 0.04892
0.7 0.04714
0.75 0.04241
0.8 0.04293
0.85 0.0449
0.9 0.04342
0.95 0.04442
1 0.04885
1.05 0.05523
1.1 0.05974
1.15 0.06538
1.2 0.06763
1.25 0.06355
1.3 0.05792
1.35 0.0546
1.4 0.05415
1.45 0.04978
1.5 0.04396
1.55 0.0358
1.6 0.02828
1.65 0.02871
1.7 0.0314
1.75 0.03186
1.8 0.0351
1.85 0.04007
1.9 0.04058
1.95 0.03618
2 0.03042
2.05 0.0284
2.1 0.03169
2.15 0.03013
2.2 0.03252
2.25 0.03778
2.3 0.04039
2.35 0.03795
2.4 0.03448
2.45 0.03372
2.5 0.03329
2.55 0.03631
2.6 0.03855
2.65 0.04317
2.7 0.04924
2.75 0.05336
2.8 0.05396
2.85 0.0545
2.9 0.04872
2.95 0.04289
3 0.03698
3.05 0.02773
3.1 0.02394
3.15 0.01651
3.2 0.01278
3.25 0.01238
3.3 0.00875
3.35 0.00704
3.4 0.00996
3.45 0.0102
3.5 0.01068
3.55 0.01108
3.6 0.01136
3.65 0.01233
3.7 0.01
3.75 0.01281
3.8 0.01741
3.85 0.02006
3.9 0.01949
3.95 0.01993
4 0.02341
4.05 0.02746
4.1 0.02698
4.15 0.02464
4.2 0.02317
4.25 0.01666
4.3 0.01506
4.35 0.01558
4.4 0.01281
4.45 0.00241
4.5 -0.01335
4.55 -0.03005
4.6 -0.04115
4.65 -0.05249
4.7 -0.06191
4.75 -0.07821
4.8 -0.10205
4.85 -0.12807
4.9 -0.15733
4.95 -0.18981
5 -0.22626
5.05 -0.27175
5.1 -0.32186
5.15 -0.37657
5.2 -0.43169
5.25 -0.49276
5.3 -0.56198
5.35 -0.63824
5.4 -0.71338
5.45 -0.79319
5.5 -0.87266
5.55 -0.95303
5.6 -1.03245
5.65 -1.11027
5.7 -1.18906
5.75 -1.2671
5.8 -1.34226
5.85 -1.41656
5.9 -1.4877
5.95 -1.5547
6 -1.61045
6.05 -1.66202
6.1 -1.70279
6.15 -1.74237
6.2 -1.77714
6.25 -1.80697
6.3 -1.82776
6.35 -1.83653
6.4 -1.84361
6.45 -1.84364
6.5 -1.83144
6.55 -1.8121
6.6 -1.78281
6.65 -1.75199
6.7 -1.71298
6.75 -1.66342
6.8 -1.60785
6.85 -1.5433
6.9 -1.46708
6.95 -1.38104
7 -1.28275
7.05 -1.17604
7.1 -1.0594
7.15 -0.934
7.2 -0.79638
7.25 -0.64663
7.3 -0.48765
7.35 -0.32369
7.4 -0.16169
7.45 0.00156
7.5 0.16313
7.55 0.31553
7.6 0.45767
7.65 0.59196
7.7 0.72247
7.75 0.84181
7.8 0.95941
7.85 1.06837
7.9 1.1706
7.95 1.26181
8 1.34546
8.05 1.41631
8.1 1.47744
8.15 1.53511
8.2 1.58051
8.25 1.61941
8.3 1.65072
8.35 1.67505
8.4 1.69207
8.45 1.70046
8.5 1.70716
8.55 1.70442
8.6 1.70009
8.65 1.69139
8.7 1.68426
8.75 1.67597
8.8 1.665
8.85 1.64847
8.9 1.62768
8.95 1.60757
9 1.58799
9.05 1.56512
9.1 1.53679
9.15 1.51065
9.2 1.4826
9.25 1.4579
9.3 1.43004
9.35 1.40209
9.4 1.37504
9.45 1.34857
9.5 1.32363
9.55 1.29545
9.6 1.26646
9.65 1.2368
9.7 1.21094
9.75 1.18842
9.8 1.15916
9.85 1.13451
9.9 1.10412
9.95 1.07353
10 1.04521
10.05 1.019
10.1 0.99243
10.15 0.96686
10.2 0.94399
10.25 0.9208
10.3 0.89043
10.35 0.85871
10.4 0.82606
10.45 0.79508
10.5 0.76298
10.55 0.73645
10.6 0.70862
10.65 0.67824
10.7 0.64315
10.75 0.61426
10.8 0.58306
10.85 0.55374
10.9 0.52687
10.95 0.50245
11 0.47486
11.05 0.4452
11.1 0.41698
11.15 0.39083
11.2 0.35844
11.25 0.32872
11.3 0.30351
11.35 0.27177
11.4 0.24535
11.45 0.2219
11.5 0.20094
11.55 0.17948
11.6 0.15747
11.65 0.12981
11.7 0.10417
11.75 0.0816
11.8 0.05616
11.85 0.02656
11.9 0.00167
11.95 -0.01678
12 -0.03713
12.05 -0.05648
12.1 -0.07665
12.15 -0.09103
12.2 -0.1045
12.25 -0.12302
12.3 -0.14336
12.35 -0.16338
12.4 -0.18364
12.45 -0.19984
12.5 -0.21073
12.55 -0.21867
12.6 -0.22835
12.65 -0.23947
12.7 -0.24522
12.75 -0.2451
12.8 -0.24531
12.85 -0.24665
12.9 -0.25136
12.95 -0.25634
13 -0.2631
13.05 -0.27167
13.1 -0.2742
13.15 -0.27366
13.2 -0.2727
13.25 -0.26793
13.3 -0.26102
13.35 -0.2624
13.4 -0.26328
13.45 -0.26367
13.5 -0.26342
13.55 -0.26604
13.6 -0.27278
13.65 -0.27406
13.7 -0.27897
13.75 -0.2831
13.8 -0.28773
13.85 -0.28663
13.9 -0.28572
13.95 -0.27954
14 -0.26972
14.05 -0.25981
14.1 -0.24836
14.15 -0.23998
14.2 -0.23644
14.25 -0.23729
14.3 -0.23915
14.35 -0.2405
14.4 -0.23791
14.45 -0.23361
14.5 -0.23127
14.55 -0.22897
14.6 -0.22253
14.65 -0.21365
14.7 -0.20628
14.75 -0.20273
14.8 -0.20414
14.85 -0.20468
14.9 -0.20667
14.95 -0.21193
15 -0.21343
15.05 -0.21612
15.1 -0.21497
15.15 -0.20787
15.2 -0.20309
15.25 -0.19581
15.3 -0.19099
15.35 -0.18526
15.4 -0.18231
15.45 -0.18014
15.5 -0.17398
15.55 -0.16833
15.6 -0.16407
15.65 -0.16209
15.7 -0.16503
15.75 -0.16361
15.8 -0.1604
15.85 -0.15751
15.9 -0.15864
15.95 -0.15962
16 -0.15928
16.05 -0.15831
16.1 -0.1605
16.15 -0.15923
16.2 -0.15369
16.25 -0.14433
16.3 -0.13564
16.35 -0.1299
16.4 -0.1271
16.45 -0.12806
16.5 -0.12558
16.55 -0.11943
16.6 -0.11958
16.65 -0.11876
16.7 -0.11623
16.75 -0.11426
16.8 -0.11398
16.85 -0.11186
16.9 -0.11066
16.95 -0.11418
17 -0.11827
17.05 -0.1237
17.1 -0.12362
17.15 -0.12526
17.2 -0.12238
17.25 -0.11542
17.3 -0.10464
17.35 -0.10086
17.4 -0.09381
17.45 -0.08444
17.5 -0.07611
17.55 -0.07586
17.6 -0.07252
17.65 -0.07576
17.7 -0.07952
17.75 -0.08384
17.8 -0.08784
17.85 -0.08765
17.9 -0.0833
17.95 -0.07829
18 -0.07133
18.05 -0.06464
18.1 -0.05898
18.15 -0.05741
18.2 -0.05424
18.25 -0.05625
18.3 -0.06201
18.35 -0.06723
18.4 -0.06694
18.45 -0.06621
18.5 -0.06941
18.55 -0.06692
18.6 -0.06398
18.65 -0.06551
18.7 -0.06502
18.75 -0.06301
18.8 -0.065
18.85 -0.06997
18.9 -0.07538
18.95 -0.07975
19 -0.07729
19.05 -0.06998
19.1 -0.06672
19.15 -0.06796
19.2 -0.06678
19.25 -0.06828
19.3 -0.07244
19.35 -0.0765
19.4 -0.07861
19.45 -0.08172
19.5 -0.08269
19.55 -0.07613
19.6 -0.06523
19.65 -0.05532
19.7 -0.045
19.75 -0.03697
19.8 -0.02817
19.85 -0.02496
19.9 -0.02615
19.95 -0.03136
20 -0.03726
20.05 -0.03862
20.1 -0.04177
20.15 -0.04389
20.2 -0.04139
20.25 -0.04189
20.3 -0.04224
20.35 -0.04241
20.4 -0.04607
20.45 -0.05126
20.5 -0.05343
20.55 -0.05594
20.6 -0.05991
20.65 -0.05592
20.7 -0.04923
20.75 -0.041
20.8 -0.03634
20.85 -0.03388
20.9 -0.03261
20.95 -0.03269
21 -0.03205
21.05 -0.03186
21.1 -0.02995
21.15 -0.02777
21.2 -0.0297
21.25 -0.034
21.3 -0.03248
21.35 -0.03186
21.4 -0.0269
21.45 -0.0209
21.5 -0.01598
21.55 -0.00929
21.6 -0.00399
21.65 -0.00326
21.7 -0.00861
21.75 -0.01045
21.8 -0.01341
21.85 -0.01687
21.9 -0.01593
21.95 -0.01281
22 -0.01357
22.05 -0.01923
22.1 -0.02758
22.15 -0.03024
22.2 -0.02742
22.25 -0.02736
22.3 -0.02299
22.35 -0.01713
22.4 -0.01398
22.45 -0.00955
22.5 -0.01095
22.55 -0.01036
22.6 -0.01078
22.65 -0.01255
22.7 -0.01467
22.75 -0.01592
22.8 -0.0166
22.85 -0.01387
22.9 -0.0145
22.95 -0.01533
23 -0.01247
23.05 -0.0085
23.1 -0.00754
23.15 -0.00892
23.2 -0.01007
23.25 -0.01397
23.3 -0.01526
23.35 -0.01451
23.4 -0.01719
23.45 -0.01438
23.5 -0.01193
23.55 -0.00734
23.6 -0.00819
23.65 -0.00559
23.7 -0.00844
23.75 -0.01088
23.8 -0.01626
23.85 -0.02126
23.9 -0.0214
23.95 -0.02283
24 -0.02275
24.05 -0.02438
24.1 -0.0209
24.15 -0.02014
24.2 -0.01438
24.25 -0.00744
24.3 -0.00364
24.35 -0.00164
24.4 0.00339
24.45 0.00766
24.5 0.00919
24.55 0.00637
24.6 0.00132
24.65 -0.00426
24.7 -0.01095
24.75 -0.01541
24.8 -0.0144
24.85 -0.01054
24.9 -0.00391
24.95 0.00173
25 0.00525
25.05 0.00577
25.1 0.00092
25.15 -0.00595
25.2 -0.01096
25.25 -0.01381
25.3 -0.01659
25.35 -0.01946
25.4 -0.02195
25.45 -0.02187
25.5 -0.02506
25.55 -0.0256
25.6 -0.02228
25.65 -0.02331
25.7 -0.02699
25.75 -0.02895
25.8 -0.03246
25.85 -0.03215
25.9 -0.03096
25.95 -0.0286
26 -0.02277
26.05 -0.01457
26.1 -0.01297
26.15 -0.00956
26.2 -0.0077
26.25 -0.0041
26.3 -0.00566
26.35 -0.01089
26.4 -0.01233
26.45 -0.00919
26.5 -0.00386
26.55 -0.00408
26.6 -0.00536
26.65 -0.01061
26.7 -0.01657
26.75 -0.02192
26.8 -0.0224
26.85 -0.01866
26.9 -0.01792
26.95 -0.01441
27 -0.007
27.05 -0.00121
27.1 0.00526
27.15 0.01194
27.2 0.01491
27.25 0.01178
27.3 0.00849
27.35 0.00078
27.4 -0.00719
27.45 -0.01429
27.5 -0.01746
27.55 -0.02199
27.6 -0.02532
27.65 -0.0232
27.7 -0.0251
27.75 -0.0289
27.8 -0.02955
27.85 -0.02552
27.9 -0.02217
27.95 -0.02469
28 -0.02549
28.05 -0.02443
28.1 -0.02696
28.15 -0.02976
28.2 -0.03719
28.25 -0.04217
28.3 -0.0517
28.35 -0.06357
28.4 -0.07693
28.45 -0.08656
28.5 -0.09809
28.55 -0.11127
28.6 -0.12777
28.65 -0.14589
28.7 -0.16647
28.75 -0.18283
28.8 -0.20451
28.85 -0.23007
28.9 -0.25513
28.95 -0.28138
29 -0.30513
29.05 -0.32913
29.1 -0.35767
29.15 -0.38993
29.2 -0.4232
29.25 -0.45989
29.3 -0.49981
29.35 -0.53291
29.4 -0.56164
29.45 -0.59197
29.5 -0.62759
29.55 -0.66245
29.6 -0.69161
29.65 -0.72069
29.7 -0.74897
29.75 -0.77533
29.8 -0.79679
29.85 -0.81451
29.9 -0.82455
29.95 -0.83508
30 -0.83871
30.05 -0.83522
30.1 -0.82236
30.15 -0.80644
30.2 -0.78585
30.25 -0.76038
30.3 -0.73093
30.35 -0.69572
30.4 -0.65432
30.45 -0.60764
30.5 -0.55639
30.55 -0.50385
30.6 -0.44919
30.65 -0.39052
30.7 -0.33512
30.75 -0.27679
30.8 -0.217
30.85 -0.15683
30.9 -0.09897
30.95 -0.04508
31 0.01226
31.05 0.06747
31.1 0.12436
31.15 0.17437
31.2 0.22055
31.25 0.26396
31.3 0.30631
31.35 0.34027
31.4 0.3754
31.45 0.41137
31.5 0.44287
31.55 0.46699
31.6 0.49377
31.65 0.51898
31.7 0.54215
31.75 0.56438
31.8 0.58301
31.85 0.59558
31.9 0.6081
31.95 0.62134
32 0.62801
32.05 0.63918
32.1 0.64919
32.15 0.66062
32.2 0.66666
32.25 0.67595
32.3 0.68613
32.35 0.69595
32.4 0.7039
32.45 0.70745
32.5 0.71311
32.55 0.71298
32.6 0.71282
32.65 0.70631
32.7 0.69644
32.75 0.69215
32.8 0.68447
32.85 0.67929
32.9 0.67617
32.95 0.67292
33 0.66881
33.05 0.66321
33.1 0.65024
33.15 0.63276
33.2 0.61563
33.25 0.59518
33.3 0.57225
33.35 0.54894
33.4 0.52767
33.45 0.51212
33.5 0.49826
33.55 0.48614
33.6 0.46986
33.65 0.45147
33.7 0.43445
33.75 0.41888
33.8 0.40317
33.85 0.38972
33.9 0.37423
33.95 0.35445
34 0.33419
34.05 0.31231
34.1 0.29001
34.15 0.26753
34.2 0.2487
34.25 0.2326
34.3 0.21747
34.35 0.20482
34.4 0.18986
34.45 0.17575
34.5 0.16371
34.55 0.15388
34.6 0.14278
34.65 0.13106
34.7 0.12573
34.75 0.12335
34.8 0.12279
34.85 0.12039
34.9 0.1116
34.95 0.09736
35 0.08751
35.05 0.08068
35.1 0.06847
35.15 0.05458
35.2 0.04625
35.25 0.0367
35.3 0.02572
35.35 0.01322
35.4 0.00386
35.45 -0.00649
35.5 -0.01823
35.55 -0.02844
35.6 -0.0368
35.65 -0.04051
35.7 -0.04735
35.75 -0.05438
35.8 -0.06128
35.85 -0.06366
35.9 -0.06679
35.95 -0.06908
36 -0.07486
36.05 -0.07638
36.1 -0.07458
36.15 -0.06971
36.2 -0.06679
36.25 -0.06334
36.3 -0.0678
36.35 -0.07539
36.4 -0.08545
36.45 -0.09384
36.5 -0.0964
36.55 -0.10228
36.6 -0.10575
36.65 -0.11132
36.7 -0.11678
36.75 -0.12255
36.8 -0.12245
36.85 -0.11673
36.9 -0.10943
36.95 -0.1007
37 -0.09462
37.05 -0.08766
37.1 -0.08236
37.15 -0.07715
37.2 -0.07501
37.25 -0.07885
37.3 -0.08042
37.35 -0.08448
37.4 -0.09039
37.45 -0.09274
37.5 -0.09513
37.55 -0.09774
37.6 -0.09747
37.65 -0.09748
37.7 -0.09993
37.75 -0.10292
37.8 -0.10335
37.85 -0.10345
37.9 -0.10183
37.95 -0.10021
38 -0.10255
38.05 -0.10591
38.1 -0.10947
38.15 -0.10917
38.2 -0.10792
38.25 -0.1059
38.3 -0.10756
38.35 -0.11026
38.4 -0.10702
38.45 -0.10313
38.5 -0.10246
38.55 -0.10158
38.6 -0.10322
38.65 -0.10653
38.7 -0.10393
38.75 -0.09693
38.8 -0.08985
38.85 -0.08314
38.9 -0.08035
38.95 -0.08146
39 -0.07659
39.05 -0.07039
39.1 -0.06439
39.15 -0.06074
39.2 -0.06073
39.25 -0.0587
39.3 -0.05675
39.35 -0.05395
39.4 -0.05294
39.45 -0.05334
39.5 -0.05762
39.55 -0.06157
39.6 -0.06548
39.65 -0.06697
39.7 -0.06361
39.75 -0.05896
39.8 -0.05489
39.85 -0.05114
39.9 -0.04748
39.95 -0.04649
40 -0.04385
40.05 -0.0465
40.1 -0.04451
40.15 -0.04382
40.2 -0.04257
40.25 -0.03849
40.3 -0.03632
40.35 -0.033
40.4 -0.02874
40.45 -0.03239
40.5 -0.03434
40.55 -0.03506
40.6 -0.03268
40.65 -0.03377
40.7 -0.03936
40.75 -0.04584
40.8 -0.05319
40.85 -0.06057
40.9 -0.06058
40.95 -0.06278
41 -0.0578
41.05 -0.05514
41.1 -0.04935
41.15 -0.04839
41.2 -0.05079
41.25 -0.05307
41.3 -0.04881
41.35 -0.0437
41.4 -0.0375
41.45 -0.03622
41.5 -0.03114
41.55 -0.02854
41.6 -0.02822
41.65 -0.02974
41.7 -0.03561
41.75 -0.03669
41.8 -0.0396
41.85 -0.03751
41.9 -0.03448
41.95 -0.03562
42 -0.03946
42.05 -0.03951
42.1 -0.03437
42.15 -0.03397
42.2 -0.03219
42.25 -0.03088
42.3 -0.03049
42.35 -0.03085
42.4 -0.03377
42.45 -0.03339
42.5 -0.03134
42.55 -0.02894
42.6 -0.02843
42.65 -0.0306
42.7 -0.03302
42.75 -0.03642
42.8 -0.04017
42.85 -0.03834
42.9 -0.03691
42.95 -0.03032
43 -0.02145
43.05 -0.01778
43.1 -0.01617
43.15 -0.01515
43.2 -0.01349
43.25 -0.01049
43.3 -0.00819
43.35 -0.00352
43.4 0.00041
43.45 0.0015
43.5 0.00272
43.55 0.00418
43.6 0.0018
43.65 -0.00474
43.7 -0.01433
43.75 -0.02456
43.8 -0.03041
43.85 -0.03192
43.9 -0.02956
43.95 -0.02304
44 -0.01885
44.05 -0.01282
44.1 -0.01203
44.15 -0.01018
44.2 -0.00762
44.25 -0.00919
44.3 -0.00597
44.35 -0.00718
44.4 -0.01302
44.45 -0.01687
44.5 -0.01566
44.55 -0.01298
44.6 -0.00689
44.65 -0.00542
44.7 -0.00142
44.75 -0.00186
44.8 0.00065
44.85 0.0015
44.9 -0.00369
44.95 -0.00947
45 -0.01722
45.05 -0.0199
45.1 -0.01892
45.15 -0.01409
45.2 -0.01022
45.25 -0.00358
45.3 0.003
45.35 0.00515
45.4 0.00198
45.45 -0.00408
45.5 -0.01042
45.55 -0.01744
45.6 -0.02493
45.65 -0.02449
45.7 -0.02256
45.75 -0.02276
45.8 -0.0216
45.85 -0.01934
45.9 -0.0131
45.95 -0.00458
46 0.00213
46.05 0.00427
46.1 0.00404
46.15 0.00639
46.2 0.00719
46.25 0.00281
46.3 0.00133
46.35 0.00191
46.4 0.00224
46.45 0.00347
46.5 0.00035
46.55 0.00183
46.6 0.0006
46.65 -0.00525
46.7 -0.01088
46.75 -0.01286
46.8 -0.01272
46.85 -0.01419
46.9 -0.01795
46.95 -0.01965
47 -0.01674
47.05 -0.01612
47.1 -0.01097
47.15 -0.00641
47.2 -0.00287
47.25 0.00029
47.3 0.00296
47.35 0.00073
47.4 -0.00079
47.45 0.00159
47.5 0.00256
47.55 0.00333
47.6 0.00276
47.65 -0.00168
47.7 -0.00862
47.75 -0.01464
47.8 -0.02096
47.85 -0.02571
47.9 -0.02304
47.95 -0.02114
48 -0.01465
48.05 -0.01335
48.1 -0.00909
48.15 -0.00938
48.2 -0.01208
48.25 -0.01499
48.3 -0.01726
48.35 -0.02181
48.4 -0.02583
48.45 -0.03029
48.5 -0.0347
48.55 -0.03502
48.6 -0.03682
48.65 -0.03429
48.7 -0.03223
48.75 -0.03027
48.8 -0.02356
48.85 -0.01359
48.9 -0.01007
48.95 -0.00541
49 0.00074
49.05 0.00317
49.1 0.00268
49.15 0.00225
49.2 0.00353
49.25 -0.00035
49.3 -0.00104
49.35 -0.00163
49.4 -0.00204
49.45 -0.00083
49.5 -0.00471
49.55 -0.00722
49.6 -0.00474
49.65 -0.00698
49.7 -0.00916
49.75 -0.01123
49.8 -0.01179
49.85 -0.00997
49.9 -0.01225
49.95 -0.01553
50 -0.01728
50.05 -0.01866
50.1 -0.01755
50.15 -0.0199
50.2 -0.01662
50.25 -0.01293
50.3 -0.00881
50.35 -0.00868
50.4 -0.01121
50.45 -0.01636
50.5 -0.02267
50.55 -0.02324
50.6 -0.01882
50.65 -0.01627
50.7 -0.00923
50.75 -0.00002
50.8 0.00532
50.85 0.00941
50.9 0.00702
50.95 0.00816
51 0.0044
51.05 -0.002
51.1 -0.0063
51.15 -0.00545
51.2 -0.00434
51.25 0.00062
51.3 0.0072
51.35 0.00721
51.4 0.00515
51.45 0.00078
51.5 -0.0002
51.55 0.00107
51.6 0.00617
51.65 0.00831
51.7 0.01315
51.75 0.01974
51.8 0.02458
51.85 0.02796
51.9 0.02908
51.95 0.02346
52 0.02238
52.05 0.02367
52.1 0.01886
52.15 0.01302
52.2 0.00527
52.25 0.00147
52.3 -0.00364
52.35 -0.00246
52.4 0.00232
52.45 0.00907
52.5 0.01196
52.55 0.00992
52.6 0.00474
52.65 0.00297
52.7 -0.00176
52.75 -0.00395
52.8 -0.00579
52.85 -0.0106
52.9 -0.01464
52.95 -0.01669
53 -0.01955
53.05 -0.02289
53.1 -0.02316
53.15 -0.02257
53.2 -0.02135
53.25 -0.02105
53.3 -0.02055
53.35 -0.0167
53.4 -0.01262
53.45 -0.0055
53.5 -0.00471
53.55 -0.00273
53.6 -0.00446
53.65 -0.00139
53.7 -0.00308
53.75 -0.00352
53.8 -0.00157
53.85 0.00108
53.9 -0.00033
53.95 -0.0038
54 -0.00092
54.05 -0.00248
54.1 -0.0043
54.15 -0.00256
54.2 0.00329
54.25 0.00313
54.3 0.00278
54.35 0.00303
54.4 0.00558
54.45 0.00605
54.5 0.01029
54.55 0.01115
54.6 0.01014
54.65 0.01125
54.7 0.01473
54.75 0.01472
54.8 0.00902
54.85 0.00043
54.9 -0.00218
54.95 -0.00609
55 -0.00542
55.05 -0.00626
55.1 -0.00553
55.15 -0.00426
55.2 -0.00575
55.25 -0.00751
55.3 -0.01104
55.35 -0.01503
55.4 -0.01229
55.45 -0.01352
55.5 -0.01614
55.55 -0.01987
55.6 -0.01808
55.65 -0.01198
55.7 -0.00896
55.75 -0.00425
55.8 0.00148
55.85 0.00873
55.9 0.00894
55.95 0.00749
56 0.01036
56.05 0.01122
56.1 0.00908
56.15 0.00989
56.2 0.01266
56.25 0.01488
56.3 0.01692
56.35 0.01423
56.4 0.00907
56.45 0.00669
56.5 0.00732
56.55 0.00358
56.6 0.00551
56.65 0.00735
56.7 0.01165
56.75 0.00913
56.8 0.00317
56.85 0.00359
56.9 -0.00089
56.95 -0.00377
57 -0.00223
57.05 0.00183
57.1 0.00305
57.15 0.00701
57.2 0.00927
57.25 0.00816
57.3 0.01013
57.35 0.01251
57.4 0.01439
57.45 0.01443
57.5 0.01205
57.55 0.0078
57.6 0.00089
57.65 -0.00533
57.7 -0.00728
57.75 -0.00945
57.8 -0.00906
57.85 -0.00755
57.9 -0.00252
57.95 -0.00171
58 -0.00409
58.05 -0.00823
58.1 -0.01479
58.15 -0.02178
58.2 -0.02225
58.25 -0.01838
58.3 -0.01398
58.35 -0.00577
58.4 -0.00376
58.45 0.00246
58.5 0.00971
58.55 0.00905
58.6 0.00564
58.65 0.00549
58.7 0.00797
58.75 0.00837
58.8 0.00507
58.85 0.00188
58.9 -0.00121
58.95 -0.00405
59 -0.00423
59.05 -0.00446
59.1 -0.0083
59.15 -0.01377
59.2 -0.01412
59.25 -0.01271
59.3 -0.0061
59.35 0.00256
59.4 0.0098
59.45 0.01096
59.5 0.01018
59.55 0.00798
59.6 0.00581
59.65 0.00574
59.7 0.00573
59.75 0.00236
59.8 -0.00263
59.85 -0.00187
59.9 -0.00503
59.95 -0.00966
60 -0.00819
60.05 -0.00345
60.1 0.00242
60.15 0.00136
60.2 0.00288
60.25 0.00315
60.3 0.00752
60.35 0.00509
60.4 0.00302
60.45 -0.0017
60.5 -0.0043
60.55 -0.00126
60.6 -0.00041
60.65 -0.00121
60.7 0.00289
60.75 0.00108
60.8 -0.00464
60.85 -0.00884
60.9 -0.00924
60.95 -0.01288
61 -0.01864
61.05 -0.02155
61.1 -0.02154
61.15 -0.02217
61.2 -0.02108
61.25 -0.02098
61.3 -0.02335
61.35 -0.0243
61.4 -0.02713
61.45 -0.02763
61.5 -0.02386
61.55 -0.01835
61.6 -0.00838
61.65 0.00351
61.7 0.00936
61.75 0.0112
61.8 0.01209
61.85 0.01465
61.9 0.01516
61.95 0.01429
62 0.01585
62.05 0.01368
62.1 0.00704
62.15 0.00021
62.2 -0.00108
62.25 0.00051
62.3 -0.00175
62.35 -0.00219
62.4 -0.00209
62.45 -0.00316
62.5 0.00028
62.55 0.00605
62.6 0.00677
62.65 0.0058
62.7 0.00716
62.75 0.01192
62.8 0.01263
62.85 0.00955
62.9 0.00455
62.95 0.00267
63 -0.00273
63.05 -0.00294
63.1 -0.00259
63.15 0.00234
63.2 0.00532
63.25 0.00263
63.3 0.00016
63.35 -0.00545
63.4 -0.00409
63.45 -0.00715
63.5 -0.01116
63.55 -0.01458
63.6 -0.01789
63.65 -0.02128
63.7 -0.02482
63.75 -0.02917
63.8 -0.0278
63.85 -0.02258
63.9 -0.0209
63.95 -0.01634
64 -0.00866
64.05 -0.00061
64.1 0.00113
64.15 0.00697
64.2 0.01209
64.25 0.01486
64.3 0.01109
64.35 0.00378
64.4 -0.00535
64.45 -0.00675
64.5 -0.00293
64.55 0.00087
64.6 0.00709
64.65 0.01154
64.7 0.01003
64.75 0.00665
64.8 0.00773
64.85 0.00454
64.9 0.00235
64.95 0.00561
65 0.01161
65.05 0.01104
65.1 0.00951
65.15 0.00873
65.2 0.00847
65.25 0.00425
65.3 0.00458
65.35 0.00328
65.4 0.00111
65.45 -0.00427
65.5 -0.00713
65.55 -0.00448
65.6 -0.0019
65.65 0.00271
65.7 0.00766
65.75 0.01409
65.8 0.01793
65.85 0.01561
65.9 0.01027
65.95 0.00946
66 0.0104
66.05 0.00615
66.1 0.005
66.15 0.00696
66.2 0.00382
66.25 0.00222
66.3 -0.00117
66.35 -0.00498
66.4 -0.01017
66.45 -0.01349
66.5 -0.01254
66.55 -0.00891
66.6 -0.00262
66.65 -0.00238
66.7 -0.00184
66.75 -0.00165
66.8 -0.00572
66.85 -0.0069
66.9 -0.00603
66.95 -0.00539
67 -0.00707
67.05 -0.00525
67.1 0.00052
67.15 0.00502
67.2 0.01022
67.25 0.01606
67.3 0.01489
67.35 0.01377
67.4 0.01164
67.45 0.01123
67.5 0.00975
67.55 0.00929
67.6 0.00558
67.65 0.00109
67.7 -0.00052
67.75 0.0012
67.8 -0.00068
67.85 0.00296
67.9 0.0057
67.95 0.00413
68 0.00149
68.05 0.00409
68.1 0.0068
68.15 0.0098
68.2 0.01059
68.25 0.01338
68.3 0.01312
68.35 0.01264
68.4 0.01365
68.45 0.01732
68.5 0.01603
68.55 0.01428
68.6 0.01325
68.65 0.0076
68.7 0.00742
68.75 0.00272
68.8 -0.00219
68.85 -0.00214
68.9 0.00118
68.95 -0.00015
69 0.00159
69.05 -0.00124
69.1 -0.0035
69.15 -0.0029
69.2 -0.00638
69.25 -0.01196
69.3 -0.0148
69.35 -0.0185
69.4 -0.01925
69.45 -0.0161
69.5 -0.01606
69.55 -0.01287
69.6 -0.01346
69.65 -0.00827
69.7 -0.00671
69.75 -0.0023
69.8 0.00055
69.85 0.00002
69.9 0.00378
69.95 0.00178
70 0.00443
70.05 0.00508
70.1 0.0034
70.15 0.00033
70.2 0.00253
70.25 -0.00055
70.3 -0.00287
70.35 -0.00328
70.4 0.00066
70.45 0.00735
70.5 0.00776
70.55 0.00345
70.6 0.00498
70.65 0.00511
70.7 0.00119
70.75 0.00263
70.8 0.00196
70.85 0.00031
70.9 0.00063
70.95 0.00454
71 0.00643
71.05 0.00806
71.1 0.00922
71.15 0.0074
71.2 0.00623
71.25 0.00906
71.3 0.01232
71.35 0.01673
71.4 0.02129
71.45 0.02047
71.5 0.02159
71.55 0.01993
71.6 0.02074
71.65 0.01641
71.7 0.00843
71.75 -0.00081
71.8 -0.01113
71.85 -0.01337
71.9 -0.01622
71.95 -0.01395
72 -0.01005
72.05 -0.00522
72.1 -0.00013
72.15 0.00136
72.2 0.00239
72.25 0.00519
72.3 0.00634
72.35 0.00556
72.4 0.00292
72.45 0.00007
72.5 -0.0047
72.55 -0.01119
72.6 -0.01818
72.65 -0.02357
72.7 -0.02889
72.75 -0.02638
72.8 -0.02199
72.85 -0.01861
72.9 -0.01811
72.95 -0.01453
73 -0.00907
73.05 -0.00341
73.1 0.00098
73.15 0.00047
73.2 0.00188
73.25 0.00562
73.3 0.00958
73.35 0.00726
73.4 0.00738
73.45 0.0089
73.5 0.01257
73.55 0.01224
73.6 0.0152
73.65 0.01109
73.7 0.00713
73.75 -0.00029
73.8 -0.00499
73.85 -0.01018
73.9 -0.00905
73.95 -0.00774
74 -0.00438
74.05 0.00042
74.1 0.00026
74.15 0.00129
74.2 0.00431
74.25 0.00987
74.3 0.00806
74.35 0.00403
74.4 -0.00334
74.45 -0.00684
74.5 -0.00527
74.55 -0.00703
74.6 -0.00834
74.65 -0.01011
74.7 -0.00966
74.75 -0.00437
74.8 0.00111
74.85 0.00818
74.9 0.01414
74.95 0.01761
75 0.02245
75.05 0.01907
75.1 0.0163
75.15 0.01678
75.2 0.01461
75.25 0.0154
75.3 0.01078
75.35 0.00468
75.4 -0.00322
75.45 -0.00794
75.5 -0.01329
75.55 -0.01228
75.6 -0.00785
75.65 -0.00438
75.7 -0.00629
75.75 -0.00696
75.8 -0.01041
75.85 -0.00936
75.9 -0.00791
75.95 -0.00648
76 -0.00414
76.05 0.00105
76.1 0.0027
76.15 0.00599
76.2 0.01103
76.25 0.0162
76.3 0.02141
76.35 0.02613
76.4 0.02813
76.45 0.02211
76.5 0.01638
76.55 0.00693
76.6 -0.00057
76.65 -0.00602
76.7 -0.00508
76.75 -0.00857
76.8 -0.01334
76.85 -0.01145
76.9 -0.01061
76.95 -0.0136
77 -0.01136
77.05 -0.00947
77.1 -0.00618
77.15 -0.00714
77.2 -0.00889
77.25 -0.01409
77.3 -0.01518
77.35 -0.0102
77.4 -0.00646
77.45 -0.00667
77.5 -0.00686
77.55 -0.00264
77.6 0.00092
77.65 0.00491
77.7 0.00708
77.75 0.00478
77.8 -0.00136
77.85 -0.00745
77.9 -0.00716
77.95 -0.00898
78 -0.00601
78.05 -0.00067
78.1 0.00341
78.15 0.00137
78.2 0.00097
78.25 0.00411
78.3 0.00091
78.35 -0.00507
78.4 -0.00856
78.45 -0.01036
78.5 -0.00745
78.55 -0.00318
78.6 -0.00151
78.65 0.00352
78.7 0.00757
78.75 0.0094
78.8 0.00563
78.85 0.00179
78.9 -0.00522
78.95 -0.00972
79 -0.01489
79.05 -0.01591
79.1 -0.01355
79.15 -0.00849
79.2 -0.0089
79.25 -0.00841
79.3 -0.00377
79.35 -0.00302
79.4 0.00092
79.45 0.00787
79.5 0.00866
79.55 0.00437
79.6 0.00288
79.65 0.00234
79.7 -0.00073
79.75 -0.0055
79.8 -0.00604
79.85 -0.00347
79.9 -0.00199
79.95 -0.00387
80 -0.00569
80.05 -0.00435
80.1 0.00031
80.15 0.00181
80.2 0.00021
80.25 0.00239
80.3 0.00627
80.35 0.00952
80.4 0.0065
80.45 0.00753
80.5 0.0032
80.55 0.00472
80.6 0.00414
80.65 0.00256
80.7 0.00116
80.75 0.00443
80.8 0.00389
80.85 0.00208
80.9 -0.00184
80.95 -0.00814
81 -0.01567
81.05 -0.02184
81.1 -0.02705
81.15 -0.02717
81.2 -0.02848
81.25 -0.02539
81.3 -0.02069
81.35 -0.01952
81.4 -0.02057
81.45 -0.01782
81.5 -0.01355
81.55 -0.00737
81.6 0.00031
81.65 0.00261
81.7 0.00751
81.75 0.01293
81.8 0.01499
81.85 0.01766
81.9 0.01797
81.95 0.01235
82 0.0114
82.05 0.01271
82.1 0.01314
82.15 0.01544
82.2 0.01201
82.25 0.00491
82.3 -0.00255
82.35 -0.01093
82.4 -0.0163
82.45 -0.02021
82.5 -0.02106
82.55 -0.01828
82.6 -0.01186
82.65 -0.00987
82.7 -0.01166
82.75 -0.01533
82.8 -0.02083
82.85 -0.02156
82.9 -0.01978
82.95 -0.01519
83 -0.01534
83.05 -0.01754
83.1 -0.0162
83.15 -0.0179
83.2 -0.01436
83.25 -0.00949
83.3 -0.00252
83.35 0.00243
83.4 0.00431
83.45 0.00405
83.5 0.00338
83.55 0.00136
83.6 -0.00159
83.65 -0.00447
83.7 -0.00573
83.75 -0.00737
83.8 -0.00798
83.85 -0.00565
83.9 -0.00495
83.95 -0.00196
84 -0.00155
84.05 -0.00229
84.1 0.00053
84.15 0.00065
84.2 -0.00309
84.25 -0.00773
84.3 -0.01185
84.35 -0.01719
84.4 -0.02323
84.45 -0.02809
84.5 -0.02885
84.55 -0.02684
84.6 -0.02526
84.65 -0.02025
84.7 -0.01771
84.75 -0.01596
84.8 -0.01681
84.85 -0.01394
84.9 -0.00713
84.95 0.0024
85 0.01267
85.05 0.01694
85.1 0.01928
85.15 0.01593
85.2 0.00911
85.25 0.00222
85.3 0.00017
85.35 -0.00517
85.4 -0.01217
85.45 -0.01468
85.5 -0.01466
85.55 -0.01031
85.6 -0.00384
85.65 0.00018
85.7 0.00695
85.75 0.01306
85.8 0.01502
85.85 0.01441
85.9 0.0155
85.95 0.01432
86 0.01054
86.05 0.01017
86.1 0.0108
86.15 0.0112
86.2 0.01021
86.25 0.0055
86.3 0.00144
86.35 -0.00059
86.4 0.00208
86.45 0.00206
86.5 0.00168
86.55 -0.00246
86.6 -0.00867
86.65 -0.01126
86.7 -0.01572
86.75 -0.01415
86.8 -0.01557
86.85 -0.01152
86.9 -0.00825
86.95 -0.00032
87 0.00777
87.05 0.00974
87.1 0.00648
87.15 0.00504
87.2 0.00737
87.25 0.01287
87.3 0.01763
87.35 0.01581
87.4 0.01802
87.45 0.0158
87.5 0.01658
87.55 0.01194
87.6 0.01195
87.65 0.00861
87.7 0.00418
87.75 0.00104
87.8 -0.00227
87.85 -0.00601
87.9 -0.00647
87.95 -0.00906
88 -0.00678
88.05 -0.00614
88.1 -0.00505
88.15 -0.00602
88.2 -0.00615
88.25 -0.00638
88.3 -0.00122
88.35 0.00616
88.4 0.01099
88.45 0.01176
88.5 0.01323
88.55 0.0137
88.6 0.01777
88.65 0.01966
88.7 0.02294
88.75 0.02435
88.8 0.02473
88.85 0.02017
88.9 0.01319
88.95 0.0098
89 0.00355
89.05 0.00172
89.1 -0.00072
89.15 -0.00674
89.2 -0.01285
89.25 -0.01496
89.3 -0.01244
89.35 -0.01007
89.4 -0.007
89.45 -0.00332
89.5 -0.00495
89.55 -0.00409
89.6 -0.00481
89.65 -0.00029
89.7 0.00593
89.75 0.00684
89.8 0.00615
89.85 0.00566
89.9 0.00664
89.95 0.0066
90 0.00886
90.05 0.00817
90.1 0.00388
90.15 0.00525
90.2 0.00579
90.25 0.00515
90.3 0.00036
90.35 0.00145
90.4 -0.00196
90.45 -0.00462
90.5 -0.00475
90.55 -0.00553
90.6 -0.00303
90.65 -0.00017
90.7 0.00444
90.75 0.00327
90.8 0.0043
90.85 0.00204
90.9 0.00374
90.95 0.00868
91 0.0093
91.05 0.00767
91.1 0.00228
91.15 -0.00373
91.2 -0.01088
91.25 -0.0104
91.3 -0.01371
91.35 -0.01553
91.4 -0.01059
91.45 -0.0056
91.5 0.00101
91.55 0.00837
91.6 0.01703
91.65 0.02345
91.7 0.02297
91.75 0.02285
91.8 0.01794
91.85 0.00987
91.9 0.00281
91.95 -0.00074
92 -0.00706
92.05 -0.01004
92.1 -0.01092
92.15 -0.01072
92.2 -0.01423
92.25 -0.01339
92.3 -0.00974
92.35 -0.00639
92.4 -0.00129
92.45 0.00168
92.5 0.00372
92.55 0.00242
92.6 0.00202
92.65 0.00539
92.7 0.00619
92.75 0.00436
92.8 0.0072
92.85 0.00917
92.9 0.00709
92.95 0.00487
93 0.00375
93.05 0.00189
93.1 -0.00021
93.15 -0.00193
93.2 -0.00516
93.25 -0.00575
93.3 -0.00822
93.35 -0.00615
93.4 -0.00206
93.45 0.00011
93.5 0.00172
93.55 0.00366
93.6 0.00918
93.65 0.00737
93.7 0.0077
93.75 0.00431
93.8 0.00251
93.85 0.00499
93.9 0.00801
93.95 0.00803
94 0.00344
94.05 -0.00446
94.1 -0.00535
94.15 -0.0038
94.2 -0.00292
94.25 -0.00472
94.3 -0.00335
94.35 -0.00142
94.4 0.00209
94.45 0.00368
94.5 0.00482
94.55 0.00172
94.6 -0.00117
94.65 -0.0039
94.7 -0.00667
94.75 -0.01026
94.8 -0.01634
94.85 -0.01825
94.9 -0.02229
94.95 -0.02437
95 -0.02225
95.05 -0.01613
95.1 -0.00674
95.15 0.00134
95.2 0.0043
95.25 0.00958
95.3 0.01681
95.35 0.02294
95.4 0.02804
95.45 0.02504
95.5 0.01911
95.55 0.01364
95.6 0.01299
95.65 0.00673
95.7 0.0004
95.75 -0.00229
95.8 -0.00001
95.85 0.0048
95.9 0.00633
95.95 0.0107
96 0.014
96.05 0.01916
96.1 0.02017
96.15 0.01662
96.2 0.01461
96.25 0.00863
96.3 0.00762
96.35 0.01063
96.4 0.01176
96.45 0.00914
96.5 0.0096
96.55 0.00827
96.6 0.00574
96.65 0.00613
96.7 0.00738
96.75 0.00844
96.8 0.00653
96.85 0.00119
96.9 -0.00588
96.95 -0.01029
97 -0.01281
97.05 -0.01548
97.1 -0.01878
97.15 -0.01956
97.2 -0.02236
97.25 -0.02603
97.3 -0.02356
97.35 -0.0227
97.4 -0.02089
97.45 -0.01472
97.5 -0.00674
97.55 -0.00482
97.6 0.00035
97.65 0.00215
97.7 0.00287
97.75 -0.00151
97.8 -0.00344
97.85 -0.0058
97.9 -0.0059
97.95 -0.00091
98 0.00579
98.05 0.00756
98.1 0.00476
98.15 0.00079
98.2 -0.00492
98.25 -0.00545
98.3 -0.00292
98.35 -0.00547
98.4 -0.00453
98.45 -0.00466
98.5 -0.00426
98.55 -0.00681
98.6 -0.00956
98.65 -0.01169
98.7 -0.00776
98.75 -0.00752
98.8 -0.00566
98.85 -0.00857
98.9 -0.00754
98.95 -0.00252
99 -0.00026
99.05 -0.00223
99.1 -0.0048
99.15 -0.00997
99.2 -0.01512
99.25 -0.01262
99.3 -0.01166
99.35 -0.00878
99.4 -0.00337
99.45 0.00412
99.5 0.00894
99.55 0.00811
99.6 0.01039
99.65 0.00669
99.7 0.00111
99.75 -0.00081
99.8 -0.00415
99.85 -0.002
99.9 -0.00133
99.95 0.00222
