0 0
0.05 0.00047
0.1 0.00134
0.15 0.00797
0.2 0.01771
0.25 0.02909
0.3 0.03755
0.35 0.04766
0.4 0.0509
0.45 0.05465
0.5 0.05767
0.55 0.06219
0.6 0.06439
0.65 0.06716
0.7 0.06322
0.75 0.06175
0.8 0.06388
0.85 0.06343
0.9 0.0621
0.95 0.06393
1 0.06313
1.05 0.06072
1.1 0.0535
1.15 0.0498
1.2 0.04542
1.25 0.04189
1.3 0.03762
1.35 0.03148
1.4 0.02812
1.45 0.02532
1.5 0.02837
1.55 0.03313
1.6 0.03766
1.65 0.03855
1.7 0.04001
1.75 0.04127
1.8 0.03944
1.85 0.04102
1.9 0.04398
1.95 0.04609
2 0.04793
2.05 0.05217
2.1 0.05385
2.15 0.05135
2.2 0.04491
2.25 0.04269
2.3 0.03604
2.35 0.02677
2.4 0.01946
2.45 0.01084
2.5 0.00748
2.55 0.00339
2.6 0.00125
2.65 0.00637
2.7 0.01051
2.75 0.0161
2.8 0.01713
2.85 0.0223
2.9 0.02731
2.95 0.02983
3 0.02761
3.05 0.02434
3.1 0.01976
3.15 0.01809
3.2 0.01714
3.25 0.02049
3.3 0.02612
3.35 0.0277
3.4 0.02663
3.45 0.02494
3.5 0.01984
3.55 0.01673
3.6 0.0113
3.65 0.00646
3.7 0.00405
3.75 0.00106
3.8 0.00167
3.85 -0.00059
3.9 -0.00153
3.95 -0.00176
4 -0.00001
4.05 0.00094
4.1 -0.0009
4.15 -0.00447
4.2 -0.00631
4.25 -0.00716
4.3 -0.00424
4.35 0.00053
4.4 0.00202
4.45 -0.0045
4.5 -0.01096
4.55 -0.02149
4.6 -0.03214
4.65 -0.04696
4.7 -0.06571
4.75 -0.08591
4.8 -0.10622
4.85 -0.12699
4.9 -0.14725
4.95 -0.17179
5 -0.20641
5.05 -0.24432
5.1 -0.29236
5.15 -0.34264
5.2 -0.39492
5.25 -0.44866
5.3 -0.51226
5.35 -0.58017
5.4 -0.65593
5.45 -0.72954
5.5 -0.80242
5.55 -0.87534
5.6 -0.94311
5.65 -1.00624
5.7 -1.07198
5.75 -1.13205
5.8 -1.18845
5.85 -1.23793
5.9 -1.28479
5.95 -1.32648
6 -1.36054
6.05 -1.39176
6.1 -1.41036
6.15 -1.42154
6.2 -1.42361
6.25 -1.41711
6.3 -1.40241
6.35 -1.37915
6.4 -1.35132
6.45 -1.31772
6.5 -1.28211
6.55 -1.2434
6.6 -1.2033
6.65 -1.15809
6.7 -1.10559
6.75 -1.04178
6.8 -0.97001
6.85 -0.89325
6.9 -0.81388
6.95 -0.72761
7 -0.63417
7.05 -0.53343
7.1 -0.43055
7.15 -0.31972
7.2 -0.20429
7.25 -0.08564
7.3 0.02644
7.35 0.13577
7.4 0.24392
7.45 0.35089
7.5 0.45798
7.55 0.55949
7.6 0.65786
7.65 0.74974
7.7 0.83145
7.75 0.90348
7.8 0.9627
7.85 1.01464
7.9 1.05717
7.95 1.09233
8 1.1247
8.05 1.15507
8.1 1.18208
8.15 1.20391
8.2 1.218
8.25 1.22541
8.3 1.22909
8.35 1.23415
8.4 1.23521
8.45 1.2367
8.5 1.23348
8.55 1.22738
8.6 1.21468
8.65 1.20312
8.7 1.18683
8.75 1.17446
8.8 1.16297
8.85 1.14572
8.9 1.12962
8.95 1.10968
9 1.08663
9.05 1.06772
9.1 1.04806
9.15 1.02768
9.2 1.00631
9.25 0.98694
9.3 0.963
9.35 0.93892
9.4 0.91612
9.45 0.89724
9.5 0.87464
9.55 0.85373
9.6 0.83474
9.65 0.81937
9.7 0.80459
9.75 0.7886
9.8 0.76567
9.85 0.74585
9.9 0.72151
9.95 0.70034
10 0.677
10.05 0.65255
10.1 0.63473
10.15 0.61174
10.2 0.59462
10.25 0.57222
10.3 0.55348
10.35 0.53102
10.4 0.50568
10.45 0.48789
10.5 0.46814
10.55 0.45072
10.6 0.43159
10.65 0.40971
10.7 0.39285
10.75 0.37892
10.8 0.36116
10.85 0.34274
10.9 0.32787
10.95 0.30747
11 0.28909
11.05 0.26701
11.1 0.24853
11.15 0.22781
11.2 0.20839
11.25 0.18855
11.3 0.16757
11.35 0.14773
11.4 0.1267
11.45 0.11029
11.5 0.09289
11.55 0.0739
11.6 0.06044
11.65 0.04289
11.7 0.02826
11.75 0.01536
11.8 -0.00121
11.85 -0.01842
11.9 -0.03573
11.95 -0.0545
12 -0.0704
12.05 -0.08189
12.1 -0.09113
12.15 -0.09748
12.2 -0.10461
12.25 -0.11002
12.3 -0.11305
12.35 -0.11438
12.4 -0.11729
12.45 -0.12678
12.5 -0.13488
12.55 -0.14095
12.6 -0.14765
12.65 -0.1499
12.7 -0.15794
12.75 -0.169
12.8 -0.17506
12.85 -0.18199
12.9 -0.19052
12.95 -0.19293
13 -0.19575
13.05 -0.19498
13.1 -0.19593
13.15 -0.1961
13.2 -0.19135
13.25 -0.19283
13.3 -0.19035
13.35 -0.18544
13.4 -0.18129
13.45 -0.18009
13.5 -0.1788
13.55 -0.18249
13.6 -0.18773
13.65 -0.1914
13.7 -0.19012
13.75 -0.18667
13.8 -0.18736
13.85 -0.1908
13.9 -0.19632
13.95 -0.20173
14 -0.20728
14.05 -0.20729
14.1 -0.20849
14.15 -0.20692
14.2 -0.19896
14.25 -0.18744
14.3 -0.17842
14.35 -0.17322
14.4 -0.16531
14.45 -0.15498
14.5 -0.144
14.55 -0.13979
14.6 -0.13743
14.65 -0.13661
14.7 -0.13559
14.75 -0.14001
14.8 -0.14101
14.85 -0.13704
14.9 -0.13548
14.95 -0.13655
15 -0.13402
15.05 -0.12946
15.1 -0.12668
15.15 -0.12746
15.2 -0.12811
15.25 -0.12555
15.3 -0.12547
15.35 -0.12381
15.4 -0.12573
15.45 -0.13023
15.5 -0.13067
15.55 -0.1284
15.6 -0.12766
15.65 -0.12514
15.7 -0.12435
15.75 -0.12293
15.8 -0.1185
15.85 -0.1187
15.9 -0.11328
15.95 -0.1052
16 -0.09573
16.05 -0.09003
16.1 -0.08404
16.15 -0.07969
16.2 -0.07681
16.25 -0.07955
16.3 -0.07974
16.35 -0.08058
16.4 -0.08415
16.45 -0.09081
16.5 -0.09761
16.55 -0.09796
16.6 -0.09973
16.65 -0.0969
16.7 -0.09045
16.75 -0.08461
16.8 -0.08377
16.85 -0.08358
16.9 -0.08039
16.95 -0.07694
17 -0.078
17.05 -0.0813
17.1 -0.0785
17.15 -0.07262
17.2 -0.06412
17.25 -0.06279
17.3 -0.06432
17.35 -0.06651
17.4 -0.06478
17.45 -0.05922
17.5 -0.05182
17.55 -0.05073
17.6 -0.05481
17.65 -0.06245
17.7 -0.06347
17.75 -0.05917
17.8 -0.05796
17.85 -0.05733
17.9 -0.05997
17.95 -0.0632
18 -0.06114
18.05 -0.06312
18.1 -0.06488
18.15 -0.06514
18.2 -0.06447
18.25 -0.06573
18.3 -0.06449
18.35 -0.06077
18.4 -0.05438
18.45 -0.04556
18.5 -0.04347
18.55 -0.03908
18.6 -0.04129
18.65 -0.04368
18.7 -0.04654
18.75 -0.0435
18.8 -0.04286
18.85 -0.03786
18.9 -0.03871
18.95 -0.03821
19 -0.03853
19.05 -0.03757
19.1 -0.03675
19.15 -0.03192
19.2 -0.02571
19.25 -0.02634
19.3 -0.02299
19.35 -0.01744
19.4 -0.0185
19.45 -0.02366
19.5 -0.02497
19.55 -0.0291
19.6 -0.03361
19.65 -0.03644
19.7 -0.0415
19.75 -0.04104
19.8 -0.04029
19.85 -0.0405
19.9 -0.04189
19.95 -0.04503
20 -0.04577
20.05 -0.04284
20.1 -0.03747
20.15 -0.03074
20.2 -0.02602
20.25 -0.01848
20.3 -0.01309
20.35 -0.01224
20.4 -0.01288
20.45 -0.01577
20.5 -0.02198
20.55 -0.02697
20.6 -0.03279
20.65 -0.03962
20.7 -0.03862
20.75 -0.03624
20.8 -0.03272
20.85 -0.03308
20.9 -0.03485
20.95 -0.03164
21 -0.02688
21.05 -0.02685
21.1 -0.03053
21.15 -0.02815
21.2 -0.02196
21.25 -0.01605
21.3 -0.0101
21.35 -0.00827
21.4 -0.00504
21.45 -0.00839
21.5 -0.01097
21.55 -0.0098
21.6 -0.00744
21.65 -0.00428
21.7 -0.00329
21.75 -0.00522
21.8 -0.0045
21.85 -0.00849
21.9 -0.01368
21.95 -0.01896
22 -0.01972
22.05 -0.01837
22.1 -0.01481
22.15 -0.0167
22.2 -0.02193
22.25 -0.02704
22.3 -0.03086
22.35 -0.03014
22.4 -0.03232
22.45 -0.02864
22.5 -0.02055
22.55 -0.01757
22.6 -0.01309
22.65 -0.00562
22.7 0.00046
22.75 0.00734
22.8 0.00713
22.85 0.00417
22.9 0.00352
22.95 0.00219
23 -0.00054
23.05 0.00139
23.1 -0.00166
23.15 -0.0009
23.2 0.00283
23.25 0.00056
23.3 -0.00207
23.35 -0.0024
23.4 -0.00271
23.45 -0.00487
23.5 -0.00896
23.55 -0.0142
23.6 -0.01893
23.65 -0.01983
23.7 -0.02157
23.75 -0.02341
23.8 -0.02167
23.85 -0.01676
23.9 -0.00944
23.95 -0.00728
24 -0.00449
24.05 -0.00326
24.1 0.001
24.15 0.00204
24.2 -0.00208
24.25 -0.00074
24.3 -0.00185
24.35 -0.00114
24.4 -0.00174
24.45 -0.00365
24.5 -0.00564
24.55 -0.00623
24.6 -0.00591
24.65 -0.00641
24.7 -0.00266
24.75 -0.00448
24.8 -0.00168
24.85 -0.00122
24.9 0.00013
24.95 -0.0038
25 -0.00932
25.05 -0.00882
25.1 -0.0041
25.15 0.00095
25.2 0.00093
25.25 0.00256
25.3 0.0069
25.35 0.00424
25.4 -0.00315
25.45 -0.00787
25.5 -0.00649
25.55 -0.0076
25.6 -0.00886
25.65 -0.00783
25.7 -0.00594
25.75 -0.00959
25.8 -0.01234
25.85 -0.01837
25.9 -0.02589
25.95 -0.0313
26 -0.035
26.05 -0.03296
26.1 -0.02847
26.15 -0.02825
26.2 -0.03014
26.25 -0.03279
26.3 -0.03219
26.35 -0.02536
26.4 -0.01521
26.45 -0.00764
26.5 -0.00635
26.55 -0.00347
26.6 -0.0025
26.65 -0.00298
26.7 -0.00464
26.75 -0.00751
26.8 -0.00929
26.85 -0.00815
26.9 -0.00905
26.95 -0.01167
27 -0.0081
27.05 -0.00215
27.1 0.00327
27.15 0.00654
27.2 0.00922
27.25 0.00596
27.3 -0.00047
27.35 -0.00585
27.4 -0.01072
27.45 -0.00987
27.5 -0.0069
27.55 -0.00682
27.6 -0.01144
27.65 -0.01495
27.7 -0.0185
27.75 -0.01674
27.8 -0.0163
27.85 -0.02036
27.9 -0.02656
27.95 -0.03579
28 -0.0449
28.05 -0.0511
28.1 -0.05309
28.15 -0.05896
28.2 -0.06475
28.25 -0.0716
28.3 -0.08273
28.35 -0.09448
28.4 -0.11283
28.45 -0.13659
28.5 -0.15986
28.55 -0.1818
28.6 -0.20726
28.65 -0.23885
28.7 -0.27344
28.75 -0.3102
28.8 -0.35234
28.85 -0.39418
28.9 -0.43819
28.95 -0.48341
29 -0.53287
29.05 -0.59295
29.1 -0.66041
29.15 -0.72347
29.2 -0.78836
29.25 -0.85151
29.3 -0.91243
29.35 -0.97703
29.4 -1.0423
29.45 -1.10082
29.5 -1.15928
29.55 -1.21669
29.6 -1.2683
29.65 -1.31089
29.7 -1.34864
29.75 -1.38347
29.8 -1.40607
29.85 -1.42128
29.9 -1.43139
29.95 -1.42749
30 -1.41949
30.05 -1.40037
30.1 -1.3698
30.15 -1.33327
30.2 -1.28517
30.25 -1.22965
30.3 -1.16046
30.35 -1.08291
30.4 -0.99646
30.45 -0.90137
30.5 -0.80208
30.55 -0.70392
30.6 -0.60287
30.65 -0.50302
30.7 -0.39826
30.75 -0.29024
30.8 -0.18631
30.85 -0.07937
30.9 0.02834
30.95 0.12669
31 0.21813
31.05 0.31063
31.1 0.39636
31.15 0.47886
31.2 0.55891
31.25 0.62583
31.3 0.68433
31.35 0.74144
31.4 0.79336
31.45 0.83529
31.5 0.87741
31.55 0.909
31.6 0.94163
31.65 0.966
31.7 0.98287
31.75 1.00209
31.8 1.0157
31.85 1.02373
31.9 1.03088
31.95 1.04353
32 1.05679
32.05 1.06698
32.1 1.07677
32.15 1.08154
32.2 1.08332
32.25 1.08389
32.3 1.08018
32.35 1.07678
32.4 1.07067
32.45 1.07187
32.5 1.07583
32.55 1.08118
32.6 1.08593
32.65 1.08628
32.7 1.08108
32.75 1.06989
32.8 1.05769
32.85 1.04418
32.9 1.03271
32.95 1.02056
33 1.00703
33.05 0.99411
33.1 0.9764
33.15 0.96151
33.2 0.94192
33.25 0.92505
33.3 0.9039
33.35 0.88137
33.4 0.85977
33.45 0.83545
33.5 0.80586
33.55 0.77286
33.6 0.73746
33.65 0.70166
33.7 0.67037
33.75 0.64388
33.8 0.62175
33.85 0.60091
33.9 0.57506
33.95 0.55454
34 0.52928
34.05 0.50469
34.1 0.47879
34.15 0.4504
34.2 0.42815
34.25 0.40453
34.3 0.38461
34.35 0.3638
34.4 0.34609
34.45 0.33084
34.5 0.30995
34.55 0.29087
34.6 0.27157
34.65 0.24746
34.7 0.22796
34.75 0.20857
34.8 0.1919
34.85 0.1757
34.9 0.16167
34.95 0.1417
35 0.12167
35.05 0.09925
35.1 0.07862
35.15 0.05602
35.2 0.03614
35.25 0.02286
35.3 0.00743
35.35 -0.00895
35.4 -0.01976
35.45 -0.03396
35.5 -0.04147
35.55 -0.05208
35.6 -0.06217
35.65 -0.0725
35.7 -0.08147
35.75 -0.08649
35.8 -0.0968
35.85 -0.10923
35.9 -0.12326
35.95 -0.13802
36 -0.14441
36.05 -0.15256
36.1 -0.15631
36.15 -0.16215
36.2 -0.16555
36.25 -0.16348
36.3 -0.15976
36.35 -0.1613
36.4 -0.16319
36.45 -0.16572
36.5 -0.167
36.55 -0.16968
36.6 -0.17042
36.65 -0.16964
36.7 -0.16803
36.75 -0.17266
36.8 -0.17948
36.85 -0.18038
36.9 -0.17771
36.95 -0.17627
37 -0.1772
37.05 -0.18264
37.1 -0.18751
37.15 -0.18908
37.2 -0.1863
37.25 -0.18615
37.3 -0.18952
37.35 -0.19316
37.4 -0.19291
37.45 -0.19429
37.5 -0.19605
37.55 -0.19732
37.6 -0.19954
37.65 -0.20312
37.7 -0.20621
37.75 -0.20842
37.8 -0.20776
37.85 -0.1998
37.9 -0.18886
37.95 -0.18196
38 -0.17897
38.05 -0.1742
38.1 -0.1715
38.15 -0.16736
38.2 -0.16455
38.25 -0.1603
38.3 -0.15687
38.35 -0.15085
38.4 -0.14303
38.45 -0.13485
38.5 -0.12873
38.55 -0.12807
38.6 -0.13138
38.65 -0.13753
38.7 -0.13844
38.75 -0.13844
38.8 -0.13689
38.85 -0.13214
38.9 -0.12366
38.95 -0.12093
39 -0.12301
39.05 -0.12583
39.1 -0.12671
39.15 -0.13016
39.2 -0.13138
39.25 -0.1304
39.3 -0.13183
39.35 -0.1322
39.4 -0.13
39.45 -0.1236
39.5 -0.11334
39.55 -0.10816
39.6 -0.10144
39.65 -0.09631
39.7 -0.09064
39.75 -0.08855
39.8 -0.08302
39.85 -0.07575
39.9 -0.06792
39.95 -0.06608
40 -0.06416
40.05 -0.06551
40.1 -0.07021
40.15 -0.07344
40.2 -0.07474
40.25 -0.08031
40.3 -0.08525
40.35 -0.08434
40.4 -0.07864
40.45 -0.07546
40.5 -0.07369
40.55 -0.07201
40.6 -0.0754
40.65 -0.0756
40.7 -0.07111
40.75 -0.07141
40.8 -0.0705
40.85 -0.06548
40.9 -0.06103
40.95 -0.05647
41 -0.05514
41.05 -0.05784
41.1 -0.06414
41.15 -0.06866
41.2 -0.07505
41.25 -0.07564
41.3 -0.0723
41.35 -0.07195
41.4 -0.06847
41.45 -0.06602
41.5 -0.06498
41.55 -0.06179
41.6 -0.06278
41.65 -0.06164
41.7 -0.05969
41.75 -0.05339
41.8 -0.04567
41.85 -0.0446
41.9 -0.04549
41.95 -0.04693
42 -0.04391
42.05 -0.04235
42.1 -0.04235
42.15 -0.04398
42.2 -0.04581
42.25 -0.04463
42.3 -0.04611
42.35 -0.0445
42.4 -0.0389
42.45 -0.03271
42.5 -0.03285
42.55 -0.03429
42.6 -0.03635
42.65 -0.03402
42.7 -0.03512
42.75 -0.03282
42.8 -0.02786
42.85 -0.02443
42.9 -0.02156
42.95 -0.02053
43 -0.01978
43.05 -0.01657
43.1 -0.01845
43.15 -0.02286
43.2 -0.02615
43.25 -0.02481
43.3 -0.02889
43.35 -0.03061
43.4 -0.03091
43.45 -0.03364
43.5 -0.03858
43.55 -0.0397
43.6 -0.03874
43.65 -0.03829
43.7 -0.03523
43.75 -0.03294
43.8 -0.03499
43.85 -0.03713
43.9 -0.04139
43.95 -0.04053
44 -0.03519
44.05 -0.02719
44.1 -0.01902
44.15 -0.01579
44.2 -0.01841
44.25 -0.02411
44.3 -0.02298
44.35 -0.02242
44.4 -0.02373
44.45 -0.02023
44.5 -0.01705
44.55 -0.01395
44.6 -0.01489
44.65 -0.01986
44.7 -0.02625
44.75 -0.02983
44.8 -0.03049
44.85 -0.02529
44.9 -0.01915
44.95 -0.01543
45 -0.01323
45.05 -0.01385
45.1 -0.01205
45.15 -0.00729
45.2 -0.00676
45.25 -0.00315
45.3 0.00258
45.35 0.00175
45.4 -0.00379
45.45 -0.00439
45.5 -0.0087
45.55 -0.01119
45.6 -0.01232
45.65 -0.01457
45.7 -0.01192
45.75 -0.0108
45.8 -0.00922
45.85 -0.01081
45.9 -0.01481
45.95 -0.01341
46 -0.01166
46.05 -0.01084
46.1 -0.00826
46.15 -0.00777
46.2 -0.00957
46.25 -0.00976
46.3 -0.00562
46.35 -0.00306
46.4 0.00211
46.45 0.00617
46.5 0.0077
46.55 0.00853
46.6 0.00386
46.65 0.00028
46.7 0.001
46.75 0.00214
46.8 -0.00065
46.85 -0.00525
46.9 -0.00746
46.95 -0.00809
47 -0.01087
47.05 -0.01291
47.1 -0.01586
47.15 -0.02069
47.2 -0.02465
47.25 -0.02488
47.3 -0.02722
47.35 -0.03042
47.4 -0.02796
47.45 -0.02965
47.5 -0.02553
47.55 -0.02608
47.6 -0.02265
47.65 -0.01627
47.7 -0.00703
47.75 -0.00003
47.8 0.00826
47.85 0.00937
47.9 0.0111
47.95 0.01029
48 0.00789
48.05 0.00102
48.1 -0.00517
48.15 -0.00777
48.2 -0.01085
48.25 -0.01664
48.3 -0.02426
48.35 -0.0249
48.4 -0.02458
48.45 -0.02096
48.5 -0.02174
48.55 -0.02049
48.6 -0.01731
48.65 -0.01866
48.7 -0.01574
48.75 -0.00895
48.8 -0.00331
48.85 0.00168
48.9 0.00767
48.95 0.01313
49 0.01706
49.05 0.01494
49.1 0.01231
49.15 0.00441
49.2 -0.00524
49.25 -0.01237
49.3 -0.01383
49.35 -0.01585
49.4 -0.012
49.45 -0.01054
49.5 -0.00725
49.55 -0.00373
49.6 0.00105
49.65 0.00801
49.7 0.00836
49.75 0.00678
49.8 0.00849
49.85 0.00813
49.9 0.00475
49.95 -0.00197
50 -0.00242
50.05 0.00143
50.1 -0.0013
50.15 -0.00405
50.2 -0.00635
50.25 -0.01054
50.3 -0.01742
50.35 -0.02044
50.4 -0.01757
50.45 -0.01376
50.5 -0.0136
50.55 -0.01238
50.6 -0.01358
50.65 -0.01211
50.7 -0.01098
50.75 -0.00814
50.8 -0.00846
50.85 -0.00401
50.9 -0.00382
50.95 -0.00399
51 -0.00704
51.05 -0.00671
51.1 -0.00689
51.15 -0.01118
51.2 -0.01052
51.25 -0.01033
51.3 -0.01016
51.35 -0.00536
51.4 -0.00392
51.45 -0.00555
51.5 -0.00462
51.55 -0.00408
51.6 -0.00242
51.65 -0.00045
51.7 0.00118
51.75 0.0045
51.8 0.00643
51.85 0.00313
51.9 -0.00003
51.95 -0.00346
52 -0.00754
52.05 -0.0104
52.1 -0.0079
52.15 -0.00505
52.2 -0.00463
52.25 -0.00401
52.3 -0.00252
52.35 0.00244
52.4 0.00186
52.45 -0.00302
52.5 -0.00625
52.55 -0.00347
52.6 -0.00043
52.65 0.00282
52.7 0.0044
52.75 0.0048
52.8 0.00895
52.85 0.01444
52.9 0.01928
52.95 0.02421
53 0.02055
53.05 0.01883
53.1 0.01533
53.15 0.01482
53.2 0.01515
53.25 0.01814
53.3 0.02131
53.35 0.02246
53.4 0.02122
53.45 0.01801
53.5 0.01569
53.55 0.01369
53.6 0.01424
53.65 0.00903
53.7 0.0067
53.75 0.00363
53.8 -0.00393
53.85 -0.0096
53.9 -0.01499
53.95 -0.01669
54 -0.01583
54.05 -0.01915
54.1 -0.02192
54.15 -0.01965
54.2 -0.019
54.25 -0.01321
54.3 -0.0121
54.35 -0.01196
54.4 -0.01399
54.45 -0.01767
54.5 -0.0233
54.55 -0.02254
54.6 -0.01788
54.65 -0.01626
54.7 -0.01585
54.75 -0.01279
54.8 -0.01455
54.85 -0.01172
54.9 -0.00965
54.95 -0.00792
55 -0.00487
55.05 -0.00629
55.1 -0.00294
55.15 -0.00069
55.2 0.00363
55.25 0.00859
55.3 0.00664
55.35 0.00572
55.4 0.00099
55.45 -0.00093
55.5 0.00023
55.55 0.00031
55.6 0.00385
55.65 0.00927
55.7 0.01625
55.75 0.01749
55.8 0.01734
55.85 0.01803
55.9 0.01571
55.95 0.01066
56 0.00784
56.05 0.00942
56.1 0.00612
56.15 -0.00107
56.2 -0.00885
56.25 -0.01724
56.3 -0.01844
56.35 -0.01741
56.4 -0.01137
56.45 -0.00292
56.5 0.00558
56.55 0.00671
56.6 0.00765
56.65 0.00655
56.7 0.00474
56.75 0.00362
56.8 -0.00162
56.85 -0.00573
56.9 -0.00874
56.95 -0.0116
57 -0.01
57.05 -0.00894
57.1 -0.01052
57.15 -0.01207
57.2 -0.01138
57.25 -0.00585
57.3 -0.00365
57.35 -0.00477
57.4 -0.00216
57.45 0.00387
57.5 0.00396
57.55 0.0012
57.6 -0.00503
57.65 -0.01026
57.7 -0.00883
57.75 -0.00647
57.8 -0.00323
57.85 -0.00236
57.9 0.00125
57.95 -0.00044
58 -0.0035
58.05 -0.00866
58.1 -0.01521
58.15 -0.02123
58.2 -0.0204
58.25 -0.02001
58.3 -0.01546
58.35 -0.01029
58.4 -0.00862
58.45 -0.0067
58.5 -0.00127
58.55 0.00593
58.6 0.01212
58.65 0.01867
58.7 0.02508
58.75 0.02222
58.8 0.02167
58.85 0.01672
58.9 0.00889
58.95 -0.00028
59 -0.00977
59.05 -0.0143
59.1 -0.0125
59.15 -0.01508
59.2 -0.01953
59.25 -0.02561
59.3 -0.02824
59.35 -0.02716
59.4 -0.02463
59.45 -0.01736
59.5 -0.01222
59.55 -0.01122
59.6 -0.00569
59.65 -0.00072
59.7 0.0061
59.75 0.00982
59.8 0.01414
59.85 0.01466
59.9 0.01374
59.95 0.0117
60 0.01004
60.05 0.00449
60.1 -0.00359
60.15 -0.0061
60.2 -0.01069
60.25 -0.01062
60.3 -0.00747
60.35 -0.0055
60.4 -0.00207
60.45 -0.00196
60.5 0.00144
60.55 -0.00049
60.6 -0.0031
60.65 -0.00352
60.7 -0.00581
60.75 -0.00599
60.8 -0.00876
60.85 -0.00573
60.9 0.001
60.95 0.0025
61 0.00015
61.05 0.00194
61.1 0.00647
61.15 0.00473
61.2 0.00515
61.25 0.0016
61.3 0.00107
61.35 0.00509
61.4 0.01062
61.45 0.01087
61.5 0.01324
61.55 0.01177
61.6 0.00851
61.65 0.00238
61.7 0.00107
61.75 -0.00141
61.8 -0.00218
61.85 -0.00204
61.9 0.00098
61.95 0.00048
62 0.0022
62.05 0.00193
62.1 -0.00225
62.15 -0.00321
62.2 -0.00362
62.25 0.00027
62.3 -0.00007
62.35 -0.00383
62.4 -0.00691
62.45 -0.0094
62.5 -0.01145
62.55 -0.01328
62.6 -0.01591
62.65 -0.01481
62.7 -0.0161
62.75 -0.01569
62.8 -0.00986
62.85 -0.00914
62.9 -0.00927
62.95 -0.00663
63 -0.00808
63.05 -0.01125
63.1 -0.01432
63.15 -0.019
63.2 -0.01948
63.25 -0.01354
63.3 -0.00402
63.35 0.00603
63.4 0.01062
63.45 0.01133
63.5 0.01052
63.55 0.0126
63.6 0.00893
63.65 0.01007
63.7 0.00767
63.75 0.00979
63.8 0.00819
63.85 0.0079
63.9 0.00465
63.95 -0.00199
64 -0.00324
64.05 -0.0083
64.1 -0.01232
64.15 -0.01265
64.2 -0.00846
64.25 -0.00051
64.3 0.00299
64.35 0.00161
64.4 0.00389
64.45 0.00246
64.5 0.00323
64.55 0.00026
64.6 -0.00158
64.65 0.00203
64.7 0.00349
64.75 0.00102
64.8 0.00065
64.85 -0.00324
64.9 -0.00562
64.95 -0.0073
65 -0.00425
65.05 -0.00607
65.1 -0.00714
65.15 -0.00377
65.2 -0.00193
65.25 0.00328
65.3 0.00576
65.35 0.00451
65.4 0.00636
65.45 0.00783
65.5 0.0114
65.55 0.01055
65.6 0.01095
65.65 0.00789
65.7 0.00091
65.75 -0.00482
65.8 -0.01171
65.85 -0.01909
65.9 -0.02273
65.95 -0.02753
66 -0.03073
66.05 -0.02571
66.1 -0.01943
66.15 -0.01077
66.2 -0.00509
66.25 -0.00412
66.3 -0.00634
66.35 -0.00752
66.4 -0.00751
66.45 -0.00823
66.5 -0.00739
66.55 -0.00755
66.6 -0.00706
66.65 -0.00476
66.7 -0.00344
66.75 0.00246
66.8 0.00667
66.85 0.01162
66.9 0.01208
66.95 0.01038
67 0.01186
67.05 0.00725
67.1 0.0024
67.15 0.00262
67.2 0.00306
67.25 0.00781
67.3 0.00687
67.35 0.00667
67.4 0.00485
67.45 0.00192
67.5 0.00108
67.55 0.00361
67.6 0.00664
67.65 0.01163
67.7 0.01064
67.75 0.01304
67.8 0.01087
67.85 0.00606
67.9 0.00669
67.95 0.00563
68 0.00024
68.05 0.00068
68.1 -0.00111
68.15 0.00077
68.2 0.0011
68.25 -0.00235
68.3 -0.0038
68.35 -0.00906
68.4 -0.00819
68.45 -0.00569
68.5 -0.00072
68.55 -0.00183
68.6 0.00159
68.65 0.00464
68.7 0.00949
68.75 0.0149
68.8 0.01996
68.85 0.02157
68.9 0.0246
68.95 0.02112
69 0.02017
69.05 0.01444
69.1 0.00815
69.15 0.00324
69.2 0.00163
69.25 -0.00074
69.3 -0.0047
69.35 -0.0066
69.4 -0.00924
69.45 -0.01115
69.5 -0.0104
69.55 -0.00802
69.6 -0.00432
69.65 -0.00492
69.7 -0.00496
69.75 -0.00208
69.8 -0.00388
69.85 -0.00733
69.9 -0.00824
69.95 -0.01233
70 -0.01496
70.05 -0.01549
70.1 -0.01567
70.15 -0.0142
70.2 -0.01665
70.25 -0.01359
70.3 -0.0098
70.35 -0.00852
70.4 -0.00943
70.45 -0.0078
70.5 -0.00435
70.55 -0.00326
70.6 -0.00243
70.65 0.00225
70.7 0.00183
70.75 -0.00124
70.8 -0.00418
70.85 -0.00305
70.9 -0.00484
70.95 -0.00141
71 -0.00184
71.05 -0.00201
71.1 -0.00495
71.15 -0.00613
71.2 -0.01012
71.25 -0.01393
71.3 -0.01312
71.35 -0.01588
71.4 -0.01503
71.45 -0.00912
71.5 -0.00044
71.55 0.00205
71.6 0.00748
71.65 0.01444
71.7 0.01541
71.75 0.01625
71.8 0.01405
71.85 0.01019
71.9 0.00518
71.95 0.00343
72 0.00015
72.05 -0.00518
72.1 -0.00834
72.15 -0.00936
72.2 -0.01243
72.25 -0.01431
72.3 -0.01654
72.35 -0.01642
72.4 -0.0194
72.45 -0.02096
72.5 -0.01748
72.55 -0.00896
72.6 -0.00691
72.65 -0.00085
72.7 0.00686
72.75 0.00904
72.8 0.00925
72.85 0.00634
72.9 0.00336
72.95 0.00168
73 -0.00027
73.05 -0.0024
73.1 -0.00628
73.15 -0.0039
73.2 -0.00365
73.25 0.00051
73.3 -0.00116
73.35 0.0015
73.4 0.00208
73.45 0.00501
73.5 0.00375
73.55 0.00241
73.6 0.00507
73.65 0.00554
73.7 0.00963
73.75 0.00873
73.8 0.01162
73.85 0.01024
73.9 0.01119
73.95 0.01217
74 0.00964
74.05 0.01164
74.1 0.01101
74.15 0.0062
74.2 0.00016
74.25 -0.00601
74.3 -0.00714
74.35 -0.00282
74.4 0.00122
74.45 0.00164
74.5 0.00379
74.55 0.00121
74.6 -0.00217
74.65 -0.00657
74.7 -0.00548
74.75 -0.0025
74.8 -0.00218
74.85 0.00087
74.9 0.00375
74.95 0.00782
75 0.00686
75.05 0.00753
75.1 0.00957
75.15 0.01303
75.2 0.01214
75.25 0.00856
75.3 0.0058
75.35 0.00085
75.4 0.0001
75.45 0.00357
75.5 0.00093
75.55 -0.00324
75.6 -0.00689
75.65 -0.00649
75.7 -0.00386
75.75 -0.00407
75.8 -0.00479
75.85 -0.00293
75.9 -0.00548
75.95 -0.00909
76 -0.00699
76.05 -0.00715
76.1 -0.01113
76.15 -0.01487
76.2 -0.01233
76.25 -0.00522
76.3 -0.0032
76.35 -0.00011
76.4 0.00005
76.45 0.00414
76.5 0.00398
76.55 0.0058
76.6 0.00196
76.65 0.00381
76.7 0.00062
76.75 0.00212
76.8 0.0027
76.85 0.00191
76.9 0.00521
76.95 0.00457
77 0.00235
77.05 0.00201
77.1 -0.0023
77.15 -0.00672
77.2 -0.00714
77.25 -0.0021
77.3 -0.00182
77.35 -0.00411
77.4 -0.00436
77.45 -0.00777
77.5 -0.00949
77.55 -0.00694
77.6 -0.00256
77.65 0.00148
77.7 0.00096
77.75 -0.00125
77.8 -0.00023
77.85 0.00165
77.9 0.00291
77.95 0.00368
78 0.00448
78.05 0.00939
78.1 0.01567
78.15 0.02167
78.2 0.01932
78.25 0.013
78.3 0.00754
78.35 0.00767
78.4 0.00658
78.45 0.00425
78.5 0.00388
78.55 0.00395
78.6 0.00091
78.65 0.0009
78.7 0.00169
78.75 -0.00136
78.8 -0.00338
78.85 -0.00397
78.9 -0.00708
78.95 -0.01182
79 -0.01253
79.05 -0.00738
79.1 -0.00035
79.15 0.00355
79.2 0.00929
79.25 0.00871
79.3 0.00938
79.35 0.01061
79.4 0.00966
79.45 0.01037
79.5 0.01093
79.55 0.00719
79.6 0.005
79.65 -0.00142
79.7 -0.00121
79.75 -0.0049
79.8 -0.00717
79.85 -0.00955
79.9 -0.01414
79.95 -0.0191
80 -0.02505
80.05 -0.02492
80.1 -0.02635
80.15 -0.02966
80.2 -0.03246
80.25 -0.03401
80.3 -0.02814
80.35 -0.01727
80.4 -0.00451
80.45 0.00052
80.5 0.00115
80.55 0.00117
80.6 0.0056
80.65 0.01242
80.7 0.01922
80.75 0.02033
80.8 0.02179
80.85 0.02172
80.9 0.01818
80.95 0.01583
81 0.01169
81.05 0.00856
81.1 0.00526
81.15 0.00538
81.2 0.00826
81.25 0.0081
81.3 0.01065
81.35 0.01387
81.4 0.01812
81.45 0.01545
81.5 0.00829
81.55 0.00076
81.6 -0.00102
81.65 -0.00315
81.7 -0.00316
81.75 -0.00597
81.8 -0.00455
81.85 -0.00158
81.9 -0.00138
81.95 -0.00124
82 -0.0013
82.05 -0.00542
82.1 -0.00933
82.15 -0.00883
82.2 -0.00904
82.25 -0.00991
82.3 -0.00875
82.35 -0.00921
82.4 -0.00473
82.45 0.00262
82.5 0.00996
82.55 0.00994
82.6 0.00529
82.65 0.00116
82.7 -0.00589
82.75 -0.00528
82.8 -0.00398
82.85 -0.00632
82.9 -0.00802
82.95 -0.01166
83 -0.01172
83.05 -0.00851
83.1 -0.00449
83.15 0.00043
83.2 0.00277
83.25 0.00321
83.3 0.00703
83.35 0.00451
83.4 0.00251
83.45 -0.00147
83.5 -0.00195
83.55 -0.00022
83.6 -0.00184
83.65 -0.00374
83.7 -0.00095
83.75 -0.00186
83.8 -0.00357
83.85 -0.00813
83.9 -0.01118
83.95 -0.00969
84 -0.01178
84.05 -0.01316
84.1 -0.01724
84.15 -0.01653
84.2 -0.01133
84.25 -0.00636
84.3 0.00057
84.35 0.005
84.4 0.01158
84.45 0.01738
84.5 0.016
84.55 0.01356
84.6 0.01492
84.65 0.01779
84.7 0.02059
84.75 0.01598
84.8 0.01476
84.85 0.01639
84.9 0.01822
84.95 0.01807
85 0.01594
85.05 0.01658
85.1 0.01382
85.15 0.00731
85.2 0.00504
85.25 0.00709
85.3 0.00846
85.35 0.00493
85.4 0.00185
85.45 0.00303
85.5 -0.00097
85.55 -0.00373
85.6 -0.00961
85.65 -0.01534
85.7 -0.02082
85.75 -0.02565
85.8 -0.03
85.85 -0.02624
85.9 -0.01746
85.95 -0.00773
86 -0.0004
86.05 0.00779
86.1 0.01343
86.15 0.01112
86.2 0.00975
86.25 0.00328
86.3 0.00219
86.35 -0.00076
86.4 -0.00504
86.45 -0.00382
86.5 0.00093
86.55 0.00522
86.6 0.00365
86.65 -0.00191
86.7 -0.0014
86.75 -0.00332
86.8 -0.00551
86.85 -0.00309
86.9 -0.00009
86.95 0.00359
87 0.00105
87.05 -0.0013
87.1 -0.00669
87.15 -0.00562
87.2 -0.00796
87.25 -0.01149
87.3 -0.01387
87.35 -0.01792
87.4 -0.0147
87.45 -0.0118
87.5 -0.01326
87.55 -0.01585
87.6 -0.02029
87.65 -0.0226
87.7 -0.01933
87.75 -0.01459
87.8 -0.0086
87.85 -0.00085
87.9 0.00713
87.95 0.00845
88 0.0042
88.05 -0.0011
88.1 -0.00615
88.15 -0.00719
88.2 -0.00521
88.25 -0.00287
88.3 -0.0057
88.35 -0.01082
88.4 -0.01762
88.45 -0.0213
88.5 -0.02402
88.55 -0.02772
88.6 -0.03208
88.65 -0.03356
88.7 -0.03113
88.75 -0.02571
88.8 -0.01739
88.85 -0.01382
88.9 -0.01037
88.95 -0.00615
89 0.00057
89.05 0.00503
89.1 0.00461
89.15 0.00102
89.2 0.00336
89.25 0.00733
89.3 0.01118
89.35 0.01108
89.4 0.01229
89.45 0.00968
89.5 0.00486
89.55 0.00409
89.6 0.00674
89.65 0.01114
89.7 0.01259
89.75 0.01326
89.8 0.01036
89.85 0.00749
89.9 0.00488
89.95 -0.00116
90 -0.00902
90.05 -0.01071
90.1 -0.0117
90.15 -0.01018
90.2 -0.00983
90.25 -0.00718
90.3 -0.00268
90.35 0.0039
90.4 0.00533
90.45 0.00555
90.5 0.00987
90.55 0.01121
90.6 0.01082
90.65 0.00913
90.7 0.01177
90.75 0.01392
90.8 0.01775
90.85 0.02138
90.9 0.0254
90.95 0.02332
91 0.02193
91.05 0.02216
91.1 0.02443
91.15 0.0199
91.2 0.01223
91.25 0.00909
91.3 0.01093
91.35 0.01419
91.4 0.01512
91.45 0.01428
91.5 0.01099
91.55 0.00515
91.6 0.0049
91.65 0.00305
91.7 0.00363
91.75 0.00381
91.8 -0.00017
91.85 -0.00498
91.9 -0.00854
91.95 -0.00786
92 -0.00348
92.05 -0.00053
92.1 0.00122
92.15 0.00228
92.2 0.00105
92.25 0.00225
92.3 -0.00042
92.35 -0.00609
92.4 -0.00562
92.45 -0.00749
92.5 -0.01119
92.55 -0.0093
92.6 -0.01035
92.65 -0.00743
92.7 -0.0024
92.75 0.00223
92.8 0.00068
92.85 -0.00104
92.9 0.00144
92.95 0.00239
93 0.00328
93.05 0.00503
93.1 0.00102
93.15 -0.00072
93.2 -0.00354
93.25 -0.00516
93.3 -0.00181
93.35 0.00204
93.4 0.00524
93.45 0.00417
93.5 0.00139
93.55 -0.00151
93.6 -0.00418
93.65 -0.00358
93.7 -0.00525
93.75 -0.00585
93.8 -0.00185
93.85 -0.00268
93.9 -0.00461
93.95 -0.00707
94 -0.01024
94.05 -0.01481
94.1 -0.01667
94.15 -0.0174
94.2 -0.01614
94.25 -0.00993
94.3 -0.00361
94.35 -0.0021
94.4 -0.00549
94.45 -0.00285
94.5 -0.00295
94.55 -0.00605
94.6 -0.00996
94.65 -0.0069
94.7 -0.00539
94.75 -0.00015
94.8 0.00129
94.85 0.00423
94.9 0.00167
94.95 0.00023
95 0.00325
95.05 0.00286
95.1 0.00313
95.15 0.00115
95.2 -0.00017
95.25 -0.00445
95.3 -0.00372
95.35 -0.00242
95.4 0.00075
95.45 0.00744
95.5 0.01276
95.55 0.01855
95.6 0.01875
95.65 0.022
95.7 0.0246
95.75 0.02359
95.8 0.01999
95.85 0.01796
95.9 0.0171
95.95 0.01885
96 0.0162
96.05 0.01455
96.1 0.00881
96.15 0.00703
96.2 0.00116
96.25 -0.0018
96.3 -0.00324
96.35 -0.00604
96.4 -0.00407
96.45 -0.00664
96.5 -0.0091
96.55 -0.00989
96.6 -0.01212
96.65 -0.00964
96.7 -0.00567
96.75 -0.007
96.8 -0.00682
96.85 -0.0092
96.9 -0.01332
96.95 -0.0152
97 -0.0119
97.05 -0.01312
97.1 -0.01428
97.15 -0.01503
97.2 -0.01495
97.25 -0.01436
97.3 -0.01275
97.35 -0.00669
97.4 -0.0005
97.45 0.00801
97.5 0.01632
97.55 0.02148
97.6 0.02089
97.65 0.01802
97.7 0.01791
97.75 0.0141
97.8 0.01034
97.85 0.00332
97.9 -0.00055
97.95 -0.0014
98 0.00105
98.05 0.00019
98.1 -0.00265
98.15 -0.0031
98.2 -0.0041
98.25 -0.00883
98.3 -0.0092
98.35 -0.00935
98.4 -0.00475
98.45 0.00142
98.5 0.00966
98.55 0.01063
98.6 0.01306
98.65 0.01199
98.7 0.0138
98.75 0.01391
98.8 0.015
98.85 0.00972
98.9 0.00379
98.95 -0.00255
99 -0.00657
99.05 -0.00787
99.1 -0.00682
99.15 -0.0055
99.2 -0.00617
99.25 -0.00843
99.3 -0.01351
99.35 -0.01701
99.4 -0.02227
99.45 -0.02807
99.5 -0.02773
99.55 -0.02057
99.6 -0.01259
99.65 -0.01066
99.7 -0.00819
99.75 -0.00932
99.8 -0.01002
99.85 -0.01192
99.9 -0.01115
99.95 -0.01001
