0 0
0.05 0.00868
0.1 0.014
0.15 0.01757
0.2 0.02532
0.25 0.03707
0.3 0.04894
0.35 0.05548
0.4 0.05828
0.45 0.06131
0.5 0.06622
0.55 0.06389
0.6 0.06017
0.65 0.05799
0.7 0.0536
0.75 0.04869
0.8 0.04124
0.85 0.03598
0.9 0.0376
0.95 0.04071
1 0.04738
1.05 0.04756
1.1 0.04593
1.15 0.0472
1.2 0.0515
1.25 0.05755
1.3 0.05994
1.35 0.05621
1.4 0.04971
1.45 0.04561
1.5 0.04275
1.55 0.03923
1.6 0.03553
1.65 0.03496
1.7 0.03009
1.75 0.02523
1.8 0.02346
1.85 0.02464
1.9 0.02532
1.95 0.02263
2 0.0216
2.05 0.02317
2.1 0.02255
2.15 0.02246
2.2 0.02171
2.25 0.02243
2.3 0.02002
2.35 0.01962
2.4 0.02116
2.45 0.02519
2.5 0.0237
2.55 0.02258
2.6 0.02261
2.65 0.0242
2.7 0.02514
2.75 0.02234
2.8 0.02512
2.85 0.02599
2.9 0.0298
2.95 0.02838
3 0.02673
3.05 0.02282
3.1 0.02089
3.15 0.02233
3.2 0.02218
3.25 0.02481
3.3 0.02289
3.35 0.01705
3.4 0.00969
3.45 0.00659
3.5 0.00391
3.55 0.0032
3.6 0.00146
3.65 0.00075
3.7 0.00581
3.75 0.01073
3.8 0.01286
3.85 0.01308
3.9 0.0128
3.95 0.01365
4 0.01584
4.05 0.01262
4.1 0.00887
4.15 0.00239
4.2 0.00059
4.25 -0.00292
4.3 -0.00364
4.35 -0.00818
4.4 -0.01251
4.45 -0.01405
4.5 -0.02152
4.55 -0.02954
4.6 -0.04009
4.65 -0.05477
4.7 -0.07163
4.75 -0.09322
4.8 -0.11732
4.85 -0.14089
4.9 -0.16367
4.95 -0.19015
5 -0.21988
5.05 -0.26304
5.1 -0.31143
5.15 -0.36293
5.2 -0.42004
5.25 -0.48802
5.3 -0.56005
5.35 -0.63626
5.4 -0.71224
5.45 -0.79128
5.5 -0.87722
5.55 -0.96659
5.6 -1.05308
5.65 -1.13817
5.7 -1.22231
5.75 -1.30383
5.8 -1.38632
5.85 -1.46486
5.9 -1.53857
5.95 -1.60986
6 -1.67756
6.05 -1.73697
6.1 -1.79391
6.15 -1.84951
6.2 -1.89837
6.25 -1.93827
6.3 -1.96988
6.35 -1.99446
6.4 -2.01555
6.45 -2.03266
6.5 -2.04607
6.55 -2.05107
6.6 -2.04912
6.65 -2.0337
6.7 -2.00227
6.75 -1.95994
6.8 -1.91114
6.85 -1.8478
6.9 -1.76857
6.95 -1.68195
7 -1.58593
7.05 -1.47797
7.1 -1.36021
7.15 -1.22566
7.2 -1.08325
7.25 -0.93551
7.3 -0.78466
7.35 -0.62245
7.4 -0.45386
7.45 -0.28584
7.5 -0.12206
7.55 0.04145
7.6 0.20351
7.65 0.36201
7.7 0.51447
7.75 0.66177
7.8 0.80223
7.85 0.93017
7.9 1.04878
7.95 1.15742
8 1.25213
8.05 1.33778
8.1 1.41725
8.15 1.48416
8.2 1.54618
8.25 1.60573
8.3 1.65478
8.35 1.69839
8.4 1.73424
8.45 1.76293
8.5 1.79086
8.55 1.81044
8.6 1.82161
8.65 1.83404
8.7 1.84558
8.75 1.85353
8.8 1.86012
8.85 1.86352
8.9 1.86259
8.95 1.85824
9 1.85372
9.05 1.84428
9.1 1.82764
9.15 1.81235
9.2 1.79857
9.25 1.78048
9.3 1.76205
9.35 1.73851
9.4 1.71317
9.45 1.69218
9.5 1.66629
9.55 1.63715
9.6 1.61194
9.65 1.58948
9.7 1.5623
9.75 1.53202
9.8 1.5024
9.85 1.47061
9.9 1.43984
9.95 1.40706
10 1.37541
10.05 1.34724
10.1 1.31534
10.15 1.27971
10.2 1.24634
10.25 1.20812
10.3 1.17363
10.35 1.13639
10.4 1.09809
10.45 1.05939
10.5 1.02187
10.55 0.9824
10.6 0.9404
10.65 0.89883
10.7 0.85912
10.75 0.81572
10.8 0.76952
10.85 0.72341
10.9 0.68177
10.95 0.64326
11 0.60434
11.05 0.56428
11.1 0.52694
11.15 0.49129
11.2 0.45518
11.25 0.4243
11.3 0.38967
11.35 0.35743
11.4 0.32075
11.45 0.28649
11.5 0.2503
11.55 0.21698
11.6 0.18151
11.65 0.14963
11.7 0.1241
11.75 0.10103
11.8 0.08055
11.85 0.05367
11.9 0.02742
11.95 0.00303
12 -0.02006
12.05 -0.04089
12.1 -0.06223
12.15 -0.08139
12.2 -0.10522
12.25 -0.12999
12.3 -0.15313
12.35 -0.17481
12.4 -0.19388
12.45 -0.20841
12.5 -0.22267
12.55 -0.23577
12.6 -0.2499
12.65 -0.25652
12.7 -0.26383
12.75 -0.27368
12.8 -0.27748
12.85 -0.28205
12.9 -0.28525
12.95 -0.28641
13 -0.2868
13.05 -0.29017
13.1 -0.29245
13.15 -0.29386
13.2 -0.29473
13.25 -0.29741
13.3 -0.30111
13.35 -0.3025
13.4 -0.30104
13.45 -0.30467
13.5 -0.30726
13.55 -0.31397
13.6 -0.32038
13.65 -0.32312
13.7 -0.32642
13.75 -0.32574
13.8 -0.32325
13.85 -0.32412
13.9 -0.32744
13.95 -0.33136
14 -0.3334
14.05 -0.33186
14.1 -0.32399
14.15 -0.31958
14.2 -0.31805
14.25 -0.31779
14.3 -0.31422
14.35 -0.31171
14.4 -0.30252
14.45 -0.29439
14.5 -0.29114
14.55 -0.29035
14.6 -0.28928
14.65 -0.28463
14.7 -0.27433
14.75 -0.26501
14.8 -0.26071
14.85 -0.25372
14.9 -0.24346
14.95 -0.23169
15 -0.22662
15.05 -0.22614
15.1 -0.22245
15.15 -0.22375
15.2 -0.22334
15.25 -0.22362
15.3 -0.21863
15.35 -0.21426
15.4 -0.206
15.45 -0.1979
15.5 -0.19454
15.55 -0.18886
15.6 -0.18282
15.65 -0.18024
15.7 -0.17712
15.75 -0.17905
15.8 -0.18358
15.85 -0.18215
15.9 -0.17648
15.95 -0.16933
16 -0.16715
16.05 -0.16269
16.1 -0.15906
16.15 -0.15706
16.2 -0.15762
16.25 -0.162
16.3 -0.16214
16.35 -0.15934
16.4 -0.15772
16.45 -0.15335
16.5 -0.15008
16.55 -0.14428
16.6 -0.13952
16.65 -0.13537
16.7 -0.13702
16.75 -0.13665
16.8 -0.13256
16.85 -0.13333
16.9 -0.13669
16.95 -0.14047
17 -0.14029
17.05 -0.14254
17.1 -0.13871
17.15 -0.13885
17.2 -0.13691
17.25 -0.13081
17.3 -0.12571
17.35 -0.12067
17.4 -0.12087
17.45 -0.12352
17.5 -0.12355
17.55 -0.12125
17.6 -0.11442
17.65 -0.1051
17.7 -0.0948
17.75 -0.09028
17.8 -0.0838
17.85 -0.07887
17.9 -0.07359
17.95 -0.07466
18 -0.07415
18.05 -0.07904
18.1 -0.08343
18.15 -0.08989
18.2 -0.09635
18.25 -0.10246
18.3 -0.10677
18.35 -0.1059
18.4 -0.10355
18.45 -0.09587
18.5 -0.08578
18.55 -0.07462
18.6 -0.06659
18.65 -0.06056
18.7 -0.06183
18.75 -0.06577
18.8 -0.07271
18.85 -0.07753
18.9 -0.08126
18.95 -0.0796
19 -0.07603
19.05 -0.0686
19.1 -0.0625
19.15 -0.06217
19.2 -0.06438
19.25 -0.06262
19.3 -0.06532
19.35 -0.06867
19.4 -0.07115
19.45 -0.07367
19.5 -0.07424
19.55 -0.06873
19.6 -0.0627
19.65 -0.05807
19.7 -0.05872
19.75 -0.05879
19.8 -0.05549
19.85 -0.05531
19.9 -0.05223
19.95 -0.04894
20 -0.04687
20.05 -0.04568
20.1 -0.04699
20.15 -0.04953
20.2 -0.05385
20.25 -0.06014
20.3 -0.06552
20.35 -0.06339
20.4 -0.05825
20.45 -0.05802
20.5 -0.06061
20.55 -0.05811
20.6 -0.05824
20.65 -0.05714
20.7 -0.05943
20.75 -0.05546
20.8 -0.04889
20.85 -0.04747
20.9 -0.04827
20.95 -0.04541
21 -0.04419
21.05 -0.04263
21.1 -0.03814
21.15 -0.03734
21.2 -0.03233
21.25 -0.02839
21.3 -0.02947
21.35 -0.03132
21.4 -0.03601
21.45 -0.03658
21.5 -0.03625
21.55 -0.03663
21.6 -0.03308
21.65 -0.03184
21.7 -0.02933
21.75 -0.02813
21.8 -0.02669
21.85 -0.02807
21.9 -0.03008
21.95 -0.02876
22 -0.02867
22.05 -0.02861
22.1 -0.0311
22.15 -0.03357
22.2 -0.03135
22.25 -0.02865
22.3 -0.02402
22.35 -0.02352
22.4 -0.02427
22.45 -0.0253
22.5 -0.02906
22.55 -0.0263
22.6 -0.02586
22.65 -0.02058
22.7 -0.01555
22.75 -0.01251
22.8 -0.01066
22.85 -0.01463
22.9 -0.01305
22.95 -0.01357
23 -0.01337
23.05 -0.01047
23.1 -0.00691
23.15 -0.0079
23.2 -0.00668
23.25 -0.00832
23.3 -0.00771
23.35 -0.00616
23.4 -0.00212
23.45 0.0012
23.5 -0.00052
23.55 -0.00037
23.6 0.00024
23.65 0.00262
23.7 0.00599
23.75 0.00454
23.8 0.00191
23.85 -0.00582
23.9 -0.01067
23.95 -0.01625
24 -0.01678
24.05 -0.01477
24.1 -0.0156
24.15 -0.01283
24.2 -0.01383
24.25 -0.01017
24.3 -0.01207
24.35 -0.01455
24.4 -0.01834
24.45 -0.01815
24.5 -0.0153
24.55 -0.0129
24.6 -0.01216
24.65 -0.0093
24.7 -0.01185
24.75 -0.01381
24.8 -0.01682
24.85 -0.01975
24.9 -0.02063
24.95 -0.02332
25 -0.02192
25.05 -0.0215
25.1 -0.01963
25.15 -0.0174
25.2 -0.01472
25.25 -0.01536
25.3 -0.01347
25.35 -0.01214
25.4 -0.01358
25.45 -0.01725
25.5 -0.0194
25.55 -0.02448
25.6 -0.02563
25.65 -0.0239
25.7 -0.01697
25.75 -0.00958
25.8 -0.00559
25.85 0.00039
25.9 -0.00072
25.95 -0.0054
26 -0.0064
26.05 -0.00309
26.1 0.00298
26.15 0.0029
26.2 0.00313
26.25 0.00586
26.3 0.00556
26.35 0.00634
26.4 0.00365
26.45 -0.00197
26.5 -0.0035
26.55 -0.00879
26.6 -0.01531
26.65 -0.01554
26.7 -0.01579
26.75 -0.01668
26.8 -0.01414
26.85 -0.00776
26.9 -0.00137
26.95 0.00534
27 0.01248
27.05 0.01176
27.1 0.0064
27.15 -0.00038
27.2 -0.00378
27.25 -0.00533
27.3 -0.00397
27.35 -0.00266
27.4 -0.0013
27.45 -0.00258
27.5 -0.00299
27.55 -0.00089
27.6 0.00232
27.65 0.00197
27.7 -0.00271
27.75 -0.00533
27.8 -0.00729
27.85 -0.00859
27.9 -0.0101
27.95 -0.00769
28 -0.01026
28.05 -0.01145
28.1 -0.01664
28.15 -0.02222
28.2 -0.02371
28.25 -0.02848
28.3 -0.02943
28.35 -0.03635
28.4 -0.0407
28.45 -0.05005
28.5 -0.05421
28.55 -0.06277
28.6 -0.07164
28.65 -0.08516
28.7 -0.09808
28.75 -0.11228
28.8 -0.12245
28.85 -0.13743
28.9 -0.15686
28.95 -0.1777
29 -0.1984
29.05 -0.22087
29.1 -0.2449
29.15 -0.26716
29.2 -0.28503
29.25 -0.30928
29.3 -0.32998
29.35 -0.35062
29.4 -0.37231
29.45 -0.39702
29.5 -0.42104
29.55 -0.44493
29.6 -0.46437
29.65 -0.48648
29.7 -0.50484
29.75 -0.52526
29.8 -0.54581
29.85 -0.55725
29.9 -0.56646
29.95 -0.56607
30 -0.56647
30.05 -0.56294
30.1 -0.54945
30.15 -0.53576
30.2 -0.51812
30.25 -0.498
30.3 -0.47071
30.35 -0.43579
30.4 -0.39744
30.45 -0.35301
30.5 -0.30938
30.55 -0.26557
30.6 -0.21597
30.65 -0.1675
30.7 -0.12036
30.75 -0.07806
30.8 -0.0375
30.85 -0.00032
30.9 0.0436
30.95 0.08842
31 0.12587
31.05 0.16605
31.1 0.19884
31.15 0.22821
31.2 0.25735
31.25 0.28134
31.3 0.29814
31.35 0.31071
31.4 0.32405
31.45 0.33114
31.5 0.34189
31.55 0.35307
31.6 0.35981
31.65 0.36452
31.7 0.36516
31.75 0.36506
31.8 0.36291
31.85 0.3635
31.9 0.35802
31.95 0.34786
32 0.34094
32.05 0.33266
32.1 0.3296
32.15 0.3301
32.2 0.3315
32.25 0.33004
32.3 0.32925
32.35 0.32773
32.4 0.32385
32.45 0.32253
32.5 0.31945
32.55 0.32131
32.6 0.32276
32.65 0.32079
32.7 0.31829
32.75 0.31462
32.8 0.30983
32.85 0.31148
32.9 0.31626
32.95 0.32024
33 0.31877
33.05 0.31454
33.1 0.30923
33.15 0.3073
33.2 0.30958
33.25 0.3055
33.3 0.30532
33.35 0.2997
33.4 0.29014
33.45 0.27906
33.5 0.27244
33.55 0.26412
33.6 0.25822
33.65 0.25597
33.7 0.25247
33.75 0.24609
33.8 0.24093
33.85 0.2369
33.9 0.23556
33.95 0.22897
34 0.21996
34.05 0.21294
34.1 0.2078
34.15 0.19942
34.2 0.18632
34.25 0.1721
34.3 0.15629
34.35 0.14395
34.4 0.13721
34.45 0.13325
34.5 0.13263
34.55 0.12762
34.6 0.12333
34.65 0.11893
34.7 0.11725
34.75 0.1086
34.8 0.09904
34.85 0.09036
34.9 0.08486
34.95 0.07756
35 0.07355
35.05 0.0689
35.1 0.06087
35.15 0.04996
35.2 0.04489
35.25 0.04262
35.3 0.03872
35.35 0.03374
35.4 0.03109
35.45 0.02451
35.5 0.01542
35.55 0.01058
35.6 0.00613
35.65 0.00143
35.7 -0.00272
35.75 -0.00917
35.8 -0.01659
35.85 -0.02584
35.9 -0.02814
35.95 -0.03372
36 -0.03466
36.05 -0.03516
36.1 -0.03697
36.15 -0.0363
36.2 -0.03503
36.25 -0.03401
36.3 -0.03929
36.35 -0.04013
36.4 -0.04006
36.45 -0.04471
36.5 -0.04666
36.55 -0.04843
36.6 -0.04925
36.65 -0.04827
36.7 -0.04855
36.75 -0.05386
36.8 -0.05535
36.85 -0.05372
36.9 -0.05027
36.95 -0.04922
37 -0.04958
37.05 -0.05046
37.1 -0.05016
37.15 -0.05165
37.2 -0.05237
37.25 -0.05044
37.3 -0.04662
37.35 -0.04591
37.4 -0.04412
37.45 -0.04339
37.5 -0.04105
37.55 -0.04042
37.6 -0.03999
37.65 -0.04186
37.7 -0.04165
37.75 -0.04582
37.8 -0.0461
37.85 -0.045
37.9 -0.04825
37.95 -0.05556
38 -0.06198
38.05 -0.06395
38.1 -0.06115
38.15 -0.06069
38.2 -0.0641
38.25 -0.06847
38.3 -0.06782
38.35 -0.06285
38.4 -0.05526
38.45 -0.04917
38.5 -0.04936
38.55 -0.05307
38.6 -0.05311
38.65 -0.05429
38.7 -0.05288
38.75 -0.04913
38.8 -0.05187
38.85 -0.05578
38.9 -0.05482
38.95 -0.0506
39 -0.05262
39.05 -0.0563
39.1 -0.05624
39.15 -0.0519
39.2 -0.05332
39.25 -0.05777
39.3 -0.06108
39.35 -0.06509
39.4 -0.07
39.45 -0.07409
39.5 -0.07299
39.55 -0.06827
39.6 -0.065
39.65 -0.05892
39.7 -0.05649
39.75 -0.05433
39.8 -0.05144
39.85 -0.04954
39.9 -0.04708
39.95 -0.04574
40 -0.04289
40.05 -0.04028
40.1 -0.0375
40.15 -0.03163
40.2 -0.03229
40.25 -0.03557
40.3 -0.03961
40.35 -0.04164
40.4 -0.04384
40.45 -0.04438
40.5 -0.04643
40.55 -0.04373
40.6 -0.03673
40.65 -0.03338
40.7 -0.02668
40.75 -0.02021
40.8 -0.01748
40.85 -0.01977
40.9 -0.02486
40.95 -0.02626
41 -0.02958
41.05 -0.02986
41.1 -0.02722
41.15 -0.02664
41.2 -0.02841
41.25 -0.02705
41.3 -0.0215
41.35 -0.01822
41.4 -0.01545
41.45 -0.01108
41.5 -0.01157
41.55 -0.01488
41.6 -0.01625
41.65 -0.01402
41.7 -0.01126
41.75 -0.0143
41.8 -0.01485
41.85 -0.01626
41.9 -0.01852
41.95 -0.0214
42 -0.02416
42.05 -0.02647
42.1 -0.02421
42.15 -0.02238
42.2 -0.02177
42.25 -0.01976
42.3 -0.01386
42.35 -0.01313
42.4 -0.00864
42.45 -0.00547
42.5 -0.00523
42.55 -0.0099
42.6 -0.01569
42.65 -0.02244
42.7 -0.02933
42.75 -0.03103
42.8 -0.03132
42.85 -0.0331
42.9 -0.03363
42.95 -0.03073
43 -0.03065
43.05 -0.03127
43.1 -0.03409
43.15 -0.03474
43.2 -0.03745
43.25 -0.03543
43.3 -0.03155
43.35 -0.02533
43.4 -0.01711
43.45 -0.01448
43.5 -0.01664
43.55 -0.01933
43.6 -0.01634
43.65 -0.01818
43.7 -0.02309
43.75 -0.02377
43.8 -0.02025
43.85 -0.017
43.9 -0.01166
43.95 -0.00433
44 -0.00311
44.05 0.00158
44.1 0.00374
44.15 0.00592
44.2 0.0095
44.25 0.01089
44.3 0.00867
44.35 0.01026
44.4 0.01271
44.45 0.01383
44.5 0.01638
44.55 0.01389
44.6 0.00975
44.65 0.00239
44.7 -0.00715
44.75 -0.01239
44.8 -0.01289
44.85 -0.01348
44.9 -0.01243
44.95 -0.01207
45 -0.00772
45.05 -0.00425
45.1 -0.00069
45.15 0.00366
45.2 0.00522
45.25 0.00463
45.3 0.00465
45.35 0.00615
45.4 0.0032
45.45 -0.00299
45.5 -0.00298
45.55 -0.00349
45.6 -0.00763
45.65 -0.0131
45.7 -0.0127
45.75 -0.01148
45.8 -0.01373
45.85 -0.01076
45.9 -0.01105
45.95 -0.00696
46 -0.00277
46.05 0.0001
46.1 0.00041
46.15 -0.00294
46.2 -0.00963
46.25 -0.00912
46.3 -0.0121
46.35 -0.01182
46.4 -0.00994
46.45 -0.00441
46.5 -0.00265
46.55 -0.00245
46.6 -0.00639
46.65 -0.01247
46.7 -0.01625
46.75 -0.02156
46.8 -0.02043
46.85 -0.02091
46.9 -0.02192
46.95 -0.02124
47 -0.02358
47.05 -0.02225
47.1 -0.02072
47.15 -0.01628
47.2 -0.01321
47.25 -0.01462
47.3 -0.01743
47.35 -0.02067
47.4 -0.02243
47.45 -0.02425
47.5 -0.02791
47.55 -0.03129
47.6 -0.02965
47.65 -0.02814
47.7 -0.02297
47.75 -0.01872
47.8 -0.01868
47.85 -0.01552
47.9 -0.0085
47.95 -0.00606
48 -0.00327
48.05 0.00327
48.1 0.01043
48.15 0.01877
48.2 0.02282
48.25 0.02362
48.3 0.02218
48.35 0.01848
48.4 0.01474
48.45 0.00693
48.5 0.00483
48.55 0.00245
48.6 0.00152
48.65 0.0039
48.7 0.00665
48.75 0.00626
48.8 0.00728
48.85 0.00599
48.9 0.00482
48.95 0.00412
49 0.00757
49.05 0.00614
49.1 -0.00004
49.15 -0.00792
49.2 -0.00969
49.25 -0.0122
49.3 -0.01678
49.35 -0.01492
49.4 -0.01532
49.45 -0.018
49.5 -0.02148
49.55 -0.01732
49.6 -0.01708
49.65 -0.01643
49.7 -0.01128
49.75 -0.01121
49.8 -0.01473
49.85 -0.01656
49.9 -0.01534
49.95 -0.01336
50 -0.01032
50.05 -0.00706
50.1 -0.00684
50.15 -0.00235
50.2 -0.00361
50.25 -0.00169
50.3 -0.00388
50.35 -0.00431
50.4 -0.00836
50.45 -0.00687
50.5 -0.00961
50.55 -0.01248
50.6 -0.00992
50.65 -0.0095
50.7 -0.00504
50.75 -0.00393
50.8 -0.00578
50.85 -0.00512
50.9 -0.00704
50.95 -0.00639
51 -0.00383
51.05 -0.00452
51.1 -0.00634
51.15 -0.00882
51.2 -0.01363
51.25 -0.01585
51.3 -0.01227
51.35 -0.01272
51.4 -0.00826
51.45 -0.00045
51.5 0.00896
51.55 0.01365
51.6 0.01661
51.65 0.01657
51.7 0.01408
51.75 0.01055
51.8 0.00836
51.85 0.01014
51.9 0.0136
51.95 0.01554
52 0.01165
52.05 0.01195
52.1 0.0123
52.15 0.00855
52.2 0.00819
52.25 0.00283
52.3 -0.00477
52.35 -0.00865
52.4 -0.012
52.45 -0.01062
52.5 -0.01238
52.55 -0.0084
52.6 -0.0039
52.65 0.00272
52.7 0.00276
52.75 0.00493
52.8 0.00675
52.85 0.00497
52.9 0.00384
52.95 0.00001
53 -0.00606
53.05 -0.00693
53.1 -0.00882
53.15 -0.00806
53.2 -0.01041
53.25 -0.00782
53.3 -0.00704
53.35 -0.00422
53.4 -0.0062
53.45 -0.0093
53.5 -0.01254
53.55 -0.01325
53.6 -0.0101
53.65 -0.004
53.7 -0.00288
53.75 -0.00579
53.8 -0.00838
53.85 -0.00702
53.9 -0.00341
53.95 0.00403
54 0.00681
54.05 0.00796
54.1 0.01144
54.15 0.00863
54.2 0.00731
54.25 0.00641
54.3 0.00732
54.35 0.00421
54.4 0.0011
54.45 0.00071
54.5 0.00006
54.55 0.00092
54.6 0.00402
54.65 0.00332
54.7 0.00018
54.75 -0.00464
54.8 -0.01156
54.85 -0.0193
54.9 -0.02547
54.95 -0.02335
55 -0.02065
55.05 -0.02095
55.1 -0.01707
55.15 -0.01362
55.2 -0.01338
55.25 -0.01319
55.3 -0.01011
55.35 -0.00511
55.4 0.00129
55.45 0.00296
55.5 0.00282
55.55 0.00404
55.6 0.00804
55.65 0.00676
55.7 0.00887
55.75 0.01347
55.8 0.01665
55.85 0.02016
55.9 0.01722
55.95 0.01858
56 0.0153
56.05 0.01104
56.1 0.01229
56.15 0.00996
56.2 0.00918
56.25 0.01178
56.3 0.01582
56.35 0.01578
56.4 0.01416
56.45 0.00829
56.5 0.00125
56.55 -0.00719
56.6 -0.00834
56.65 -0.00908
56.7 -0.01019
56.75 -0.00812
56.8 -0.00593
56.85 -0.00728
56.9 -0.00304
56.95 -0.0039
57 -0.00586
57.05 -0.00268
57.1 -0.00198
57.15 -0.00017
57.2 0.00333
57.25 0.00225
57.3 0.00503
57.35 0.00414
57.4 0.00618
57.45 0.0039
57.5 0.00123
57.55 -0.00115
57.6 -0.00297
57.65 -0.00739
57.7 -0.00826
57.75 -0.00762
57.8 -0.01027
57.85 -0.01403
57.9 -0.01442
57.95 -0.01465
58 -0.01059
58.05 -0.00918
58.1 -0.00733
58.15 -0.00302
58.2 -0.00433
58.25 -0.00502
58.3 -0.00749
58.35 -0.00678
58.4 -0.00304
58.45 0.00307
58.5 0.00649
58.55 0.01201
58.6 0.01641
58.65 0.01518
58.7 0.00959
58.75 0.00754
58.8 0.00597
58.85 0.00767
58.9 0.0058
58.95 0.00822
59 0.00702
59.05 0.00488
59.1 0.00542
59.15 0.00654
59.2 0.00527
59.25 0.00144
59.3 -0.00406
59.35 -0.00596
59.4 -0.00974
59.45 -0.01332
59.5 -0.01743
59.55 -0.01929
59.6 -0.0143
59.65 -0.01373
59.7 -0.01109
59.75 -0.00407
59.8 -0.00187
59.85 -0.00187
59.9 0.00118
59.95 0.00192
60 0.00675
60.05 0.00718
60.1 0.0035
60.15 -0.00045
60.2 0.00124
60.25 0.00667
60.3 0.00606
60.35 0.00967
60.4 0.01027
60.45 0.00706
60.5 0.00922
60.55 0.00955
60.6 0.00549
60.65 0.00538
60.7 0.00326
60.75 -0.0018
60.8 -0.00913
60.85 -0.01315
60.9 -0.01338
60.95 -0.01022
61 -0.01141
61.05 -0.01109
61.1 -0.01281
61.15 -0.01704
61.2 -0.01351
61.25 -0.01331
61.3 -0.01122
61.35 -0.00956
61.4 -0.00877
61.45 -0.01091
61.5 -0.01051
61.55 -0.00663
61.6 -0.00587
61.65 -0.00297
61.7 0.00316
61.75 0.00304
61.8 0.00122
61.85 0.00028
61.9 0.00126
61.95 0.00195
62 0.0014
62.05 -0.00031
62.1 0.00124
62.15 0.00566
62.2 0.0111
62.25 0.0173
62.3 0.0212
62.35 0.02294
62.4 0.01878
62.45 0.01172
62.5 0.002
62.55 -0.0017
62.6 -0.00201
62.65 -0.00072
62.7 -0.0001
62.75 0.00077
62.8 0.00388
62.85 0.00946
62.9 0.00949
62.95 0.0128
63 0.01756
63.05 0.01637
63.1 0.01825
63.15 0.0136
63.2 0.01243
63.25 0.01213
63.3 0.00878
63.35 0.00572
63.4 0.00453
63.45 0.00352
63.5 -0.00117
63.55 -0.00184
63.6 0.00041
63.65 0.00533
63.7 0.00679
63.75 0.00873
63.8 0.01139
63.85 0.00922
63.9 0.00254
63.95 0.00105
64 -0.00111
64.05 -0.00376
64.1 -0.00359
64.15 -0.00556
64.2 -0.00495
64.25 -0.00288
64.3 -0.00558
64.35 -0.00335
64.4 -0.00519
64.45 -0.00258
64.5 -0.00064
64.55 -0.00255
64.6 -0.00006
64.65 0.00339
64.7 0.004
64.75 0.00051
64.8 -0.00168
64.85 0.00078
64.9 0.00652
64.95 0.00702
65 0.00926
65.05 0.00994
65.1 0.00876
65.15 0.01103
65.2 0.01407
65.25 0.01689
65.3 0.01469
65.35 0.01078
65.4 0.00304
65.45 -0.00116
65.5 -0.00431
65.55 -0.00196
65.6 0.00205
65.65 0.00364
65.7 0.00476
65.75 0.004
65.8 0.00116
65.85 0.00103
65.9 -0.00166
65.95 -0.002
66 -0.00572
66.05 -0.00479
66.1 -0.00352
66.15 -0.00266
66.2 -0.00174
66.25 -0.00297
66.3 -0.00052
66.35 0.00259
66.4 0.00162
66.45 0.00031
66.5 -0.00421
66.55 -0.00272
66.6 -0.0025
66.65 -0.00366
66.7 -0.00097
66.75 0.00138
66.8 0.00217
66.85 -0.00186
66.9 -0.00417
66.95 -0.00223
67 0.00074
67.05 0.00374
67.1 0.00572
67.15 0.0099
67.2 0.01253
67.25 0.01695
67.3 0.01387
67.35 0.01092
67.4 0.00451
67.45 -0.00149
67.5 -0.00116
67.55 -0.00229
67.6 -0.00219
67.65 -0.0015
67.7 -0.00291
67.75 -0.00587
67.8 -0.00384
67.85 -0.00508
67.9 -0.00611
67.95 -0.01006
68 -0.00893
68.05 -0.01127
68.1 -0.01159
68.15 -0.0129
68.2 -0.01694
68.25 -0.0219
68.3 -0.02
68.35 -0.01639
68.4 -0.00968
68.45 -0.00506
68.5 0.00173
68.55 0.0034
68.6 0.00656
68.65 0.00371
68.7 0.00505
68.75 0.00166
68.8 -0.00454
68.85 -0.00742
68.9 -0.00637
68.95 -0.00337
69 -0.00159
69.05 0.00368
69.1 0.00459
69.15 0.00035
69.2 0.00149
69.25 0.00433
69.3 0.00145
69.35 -0.00304
69.4 -0.0031
69.45 -0.00303
69.5 -0.00437
69.55 -0.00109
69.6 -0.00114
69.65 -0.00493
69.7 -0.00906
69.75 -0.01409
69.8 -0.01819
69.85 -0.02305
69.9 -0.0254
69.95 -0.02692
70 -0.02631
70.05 -0.02253
70.1 -0.02038
70.15 -0.02152
70.2 -0.02379
70.25 -0.02054
70.3 -0.01725
70.35 -0.01315
70.4 -0.00455
70.45 0.00235
70.5 0.00987
70.55 0.01428
70.6 0.01417
70.65 0.01189
70.7 0.00814
70.75 0.00863
70.8 0.00474
70.85 0.00606
70.9 0.00837
70.95 0.0063
71 0.00917
71.05 0.01063
71.1 0.01358
71.15 0.01263
71.2 0.01518
71.25 0.0201
71.3 0.02068
71.35 0.01668
71.4 0.01073
71.45 0.004
71.5 -0.00307
71.55 -0.00474
71.6 -0.00291
71.65 0.00197
71.7 0.00086
71.75 -0.00138
71.8 -0.00616
71.85 -0.01228
71.9 -0.01577
71.95 -0.01306
72 -0.00791
72.05 -0.00658
72.1 -0.00654
72.15 -0.00701
72.2 -0.00723
72.25 -0.0111
72.3 -0.0136
72.35 -0.01481
72.4 -0.0186
72.45 -0.01459
72.5 -0.00866
72.55 0.00002
72.6 0.00805
72.65 0.01589
72.7 0.02222
72.75 0.02044
72.8 0.01574
72.85 0.01555
72.9 0.01071
72.95 0.00797
73 0.00669
73.05 0.00812
73.1 0.0125
73.15 0.01733
73.2 0.0188
73.25 0.01647
73.3 0.01379
73.35 0.01107
73.4 0.01096
73.45 0.00596
73.5 0.00127
73.55 -0.00619
73.6 -0.0103
73.65 -0.01152
73.7 -0.00722
73.75 -0.0016
73.8 0.00607
73.85 0.00585
73.9 0.00187
73.95 0.00158
74 -0.00326
74.05 -0.00332
74.1 -0.00762
74.15 -0.0092
74.2 -0.01009
74.25 -0.01334
74.3 -0.01504
74.35 -0.01387
74.4 -0.01077
74.45 -0.01235
74.5 -0.01643
74.55 -0.02122
74.6 -0.02504
74.65 -0.02214
74.7 -0.01728
74.75 -0.01178
74.8 -0.00858
74.85 -0.00122
74.9 0.00187
74.95 0.00785
75 0.00705
75.05 0.00195
75.1 -0.00228
75.15 -0.00186
75.2 0.00161
75.25 0.00521
75.3 0.01048
75.35 0.01666
75.4 0.02105
75.45 0.02323
75.5 0.02185
75.55 0.01617
75.6 0.0128
75.65 0.01364
75.7 0.01053
75.75 0.01007
75.8 0.00865
75.85 0.00616
75.9 -0.0001
75.95 -0.0052
76 -0.00975
76.05 -0.00739
76.1 -0.00273
76.15 -0.00303
76.2 -0.00162
76.25 0.00099
76.3 -0.0007
76.35 0.0009
76.4 0.00392
76.45 0.00393
76.5 0.00237
76.55 -0.00304
76.6 -0.00696
76.65 -0.00727
76.7 -0.00672
76.75 -0.00236
76.8 -0.00263
76.85 -0.00109
76.9 0.00446
76.95 0.00871
77 0.00897
77.05 0.01259
77.1 0.01692
77.15 0.02039
77.2 0.02377
77.25 0.02774
77.3 0.02504
77.35 0.02193
77.4 0.01874
77.45 0.017
77.5 0.01231
77.55 0.00727
77.6 -0.00098
77.65 -0.0098
77.7 -0.01314
77.75 -0.01483
77.8 -0.01364
77.85 -0.01618
77.9 -0.01415
77.95 -0.01487
78 -0.01624
78.05 -0.02011
78.1 -0.02435
78.15 -0.02281
78.2 -0.01809
78.25 -0.01819
78.3 -0.01445
78.35 -0.01459
78.4 -0.0174
78.45 -0.01712
78.5 -0.01609
78.55 -0.01339
78.6 -0.01209
78.65 -0.01462
78.7 -0.01841
78.75 -0.01884
78.8 -0.01355
78.85 -0.00821
78.9 -0.00166
78.95 0.00201
79 0.00195
79.05 0.00443
79.1 0.00545
79.15 0.00311
79.2 0.00153
79.25 0.00072
79.3 0.00478
79.35 0.01063
79.4 0.0165
79.45 0.02085
79.5 0.02363
79.55 0.02062
79.6 0.0204
79.65 0.02266
79.7 0.02514
79.75 0.02828
79.8 0.02473
79.85 0.02413
79.9 0.02562
79.95 0.0279
80 0.02541
80.05 0.02472
80.1 0.0185
80.15 0.0124
80.2 0.00705
80.25 0.00546
80.3 0.00126
80.35 0.0011
80.4 0.00048
80.45 0.00028
80.5 0.00105
80.55 -0.00301
80.6 -0.00739
80.65 -0.0055
80.7 -0.00647
80.75 -0.0042
80.8 -0.00579
80.85 -0.00793
80.9 -0.01298
80.95 -0.0177
81 -0.01718
81.05 -0.01776
81.1 -0.02083
81.15 -0.01808
81.2 -0.01349
81.25 -0.01169
81.3 -0.0138
81.35 -0.0171
81.4 -0.01504
81.45 -0.01072
81.5 -0.01109
81.55 -0.0058
81.6 -0.0022
81.65 0.0015
81.7 0.00625
81.75 0.01151
81.8 0.01345
81.85 0.01611
81.9 0.0128
81.95 0.01078
82 0.00399
82.05 -0.0025
82.1 -0.00333
82.15 -0.00577
82.2 -0.01092
82.25 -0.011
82.3 -0.00928
82.35 -0.01121
82.4 -0.01174
82.45 -0.00902
82.5 -0.00201
82.55 0.00422
82.6 0.00477
82.65 0.0029
82.7 -0.00047
82.75 0.00086
82.8 0.00312
82.85 0.00133
82.9 0.00269
82.95 -0.00043
83 0.00172
83.05 -0.00148
83.1 -0.00018
83.15 0.00017
83.2 -0.00047
83.25 0.0032
83.3 0.00113
83.35 0.0019
83.4 0.00414
83.45 0.00702
83.5 0.00756
83.55 0.00773
83.6 0.01084
83.65 0.00832
83.7 0.00185
83.75 -0.00283
83.8 -0.00694
83.85 -0.0132
83.9 -0.01255
83.95 -0.0105
84 -0.01154
84.05 -0.01148
84.1 -0.01133
84.15 -0.01382
84.2 -0.01366
84.25 -0.01102
84.3 -0.00955
84.35 -0.01046
84.4 -0.0119
84.45 -0.01211
84.5 -0.01227
84.55 -0.01219
84.6 -0.01487
84.65 -0.01934
84.7 -0.02113
84.75 -0.01752
84.8 -0.01322
84.85 -0.0116
84.9 -0.01355
84.95 -0.01634
85 -0.01521
85.05 -0.01376
85.1 -0.00933
85.15 -0.00311
85.2 0.00447
85.25 0.00945
85.3 0.01133
85.35 0.01252
85.4 0.00854
85.45 0.00174
85.5 -0.00431
85.55 -0.00291
85.6 0.00141
85.65 0.00343
85.7 0.00477
85.75 0.00137
85.8 0.00236
85.85 0.00763
85.9 0.01242
85.95 0.01527
86 0.0149
86.05 0.0138
86.1 0.01661
86.15 0.01754
86.2 0.0206
86.25 0.0238
86.3 0.02312
86.35 0.02162
86.4 0.02269
86.45 0.01923
86.5 0.01904
86.55 0.01448
86.6 0.01425
86.65 0.0096
86.7 0.00768
86.75 0.00325
86.8 -0.00207
86.85 -0.00183
86.9 -0.00167
86.95 -0.00343
87 -0.0015
87.05 -0.00142
87.1 -0.00145
87.15 -0.00057
87.2 0.00288
87.25 0.00652
87.3 0.00702
87.35 0.00697
87.4 0.0049
87.45 0.00526
87.5 0.00933
87.55 0.01012
87.6 0.007
87.65 0.00562
87.7 0.00116
87.75 -0.00126
87.8 -0.00108
87.85 0.00248
87.9 0.00201
87.95 -0.00272
88 -0.00351
88.05 -0.00807
88.1 -0.00799
88.15 -0.00618
88.2 -0.00707
88.25 -0.00276
88.3 0.00377
88.35 0.00676
88.4 0.00573
88.45 0.00233
88.5 0.0006
88.55 -0.00041
88.6 0.00228
88.65 -0.00079
88.7 -0.00281
88.75 -0.00503
88.8 -0.00721
88.85 -0.0074
88.9 -0.00648
88.95 -0.00612
89 -0.0074
89.05 -0.01195
89.1 -0.01411
89.15 -0.0184
89.2 -0.02322
89.25 -0.02452
89.3 -0.02027
89.35 -0.01891
89.4 -0.01355
89.45 -0.01112
89.5 -0.00744
89.55 -0.00757
89.6 -0.01075
89.65 -0.01392
89.7 -0.01889
89.75 -0.02483
89.8 -0.03028
89.85 -0.03095
89.9 -0.02911
89.95 -0.02108
90 -0.01392
90.05 -0.00712
90.1 -0.00513
90.15 -0.00702
90.2 -0.0078
90.25 -0.00987
90.3 -0.00622
90.35 -0.0003
90.4 0.00809
90.45 0.01105
90.5 0.01575
90.55 0.02172
90.6 0.01962
90.65 0.01397
90.7 0.00931
90.75 0.00294
90.8 0.00327
90.85 0.00595
90.9 0.00458
90.95 0.0079
91 0.0105
91.05 0.01188
91.1 0.01036
91.15 0.01086
91.2 0.01426
91.25 0.01755
91.3 0.02034
91.35 0.02161
91.4 0.02438
91.45 0.02701
91.5 0.02335
91.55 0.0203
91.6 0.01761
91.65 0.01814
91.7 0.01785
91.75 0.01647
91.8 0.00971
91.85 0.00013
91.9 -0.00882
91.95 -0.01422
92 -0.01385
92.05 -0.0156
92.1 -0.01613
92.15 -0.0171
92.2 -0.01209
92.25 -0.01149
92.3 -0.00571
92.35 -0.0028
92.4 -0.00306
92.45 -0.00449
92.5 -0.0065
92.55 -0.01071
92.6 -0.01314
92.65 -0.01576
92.7 -0.01844
92.75 -0.02298
92.8 -0.0261
92.85 -0.02808
92.9 -0.03012
92.95 -0.02462
93 -0.01831
93.05 -0.01067
93.1 -0.00936
93.15 -0.00446
93.2 0.00074
93.25 0.00075
93.3 -0.00085
93.35 -0.00073
93.4 -0.0034
93.45 -0.00546
93.5 -0.00619
93.55 -0.00689
93.6 -0.00344
93.65 -0.00323
93.7 -0.00707
93.75 -0.00523
93.8 -0.00306
93.85 -0.00255
93.9 0.00014
93.95 -0.0016
94 -0.00579
94.05 -0.00917
94.1 -0.0082
94.15 -0.01
94.2 -0.01457
94.25 -0.01513
94.3 -0.01258
94.35 -0.01087
94.4 -0.00647
94.45 -0.00166
94.5 0.00548
94.55 0.00766
94.6 0.01245
94.65 0.01141
94.7 0.00997
94.75 0.01249
94.8 0.00886
94.85 0.00868
94.9 0.0107
94.95 0.00961
95 0.00743
95.05 0.00506
95.1 0.00177
95.15 -0.00249
95.2 -0.00215
95.25 -0.00001
95.3 0.00211
95.35 0.0019
95.4 0.00142
95.45 0.00552
95.5 0.00548
95.55 0.00862
95.6 0.01348
95.65 0.01774
95.7 0.01508
95.75 0.01587
95.8 0.01943
95.85 0.01718
95.9 0.0162
95.95 0.01116
96 0.00448
96.05 0.0042
96.1 0.00807
96.15 0.00993
96.2 0.01158
96.25 0.01553
96.3 0.01814
96.35 0.01496
96.4 0.00998
96.45 0.00302
96.5 -0.00414
96.55 -0.00394
96.6 -0.00431
96.65 -0.00054
96.7 0.00595
96.75 0.00504
96.8 0.00394
96.85 0.00653
96.9 0.00308
96.95 -0.00237
97 -0.00793
97.05 -0.00624
97.1 -0.00388
97.15 -0.00089
97.2 0.0018
97.25 -0.00095
97.3 -0.00267
97.35 -0.00805
97.4 -0.00903
97.45 -0.01007
97.5 -0.01205
97.55 -0.01543
97.6 -0.01212
97.65 -0.01099
97.7 -0.01124
97.75 -0.0107
97.8 -0.00897
97.85 -0.00511
97.9 -0.00547
97.95 -0.0044
98 -0.00009
98.05 0.00567
98.1 0.00728
98.15 0.01216
98.2 0.01497
98.25 0.0113
98.3 0.00918
98.35 0.00979
98.4 0.0102
98.45 0.01167
98.5 0.01076
98.55 0.00979
98.6 0.00407
98.65 -0.00436
98.7 -0.00621
98.75 -0.00733
98.8 -0.01118
98.85 -0.01419
98.9 -0.01086
98.95 -0.00839
99 -0.00675
99.05 -0.00452
99.1 0.00152
99.15 0.00861
99.2 0.01371
99.25 0.01358
99.3 0.01061
99.35 0.00416
99.4 0.00253
99.45 -0.00162
99.5 -0.00425
99.55 -0.00571
99.6 -0.00159
99.65 0.00485
99.7 0.00488
99.75 0.00871
99.8 0.01082
99.85 0.01164
99.9 0.00946
99.95 0.01101
