0 0
0.05 0.004
0.1 0.00834
0.15 0.01681
0.2 0.02087
0.25 0.029
0.3 0.03506
0.35 0.03621
0.4 0.0387
0.45 0.04189
0.5 0.04021
0.55 0.04429
0.6 0.04845
0.65 0.05443
0.7 0.06153
0.75 0.06524
0.8 0.06555
0.85 0.06833
0.9 0.06536
0.95 0.06452
1 0.06454
1.05 0.06084
1.1 0.05562
1.15 0.05043
1.2 0.04239
1.25 0.03488
1.3 0.03138
1.35 0.03224
1.4 0.03516
1.45 0.03933
1.5 0.04091
1.55 0.04011
1.6 0.03756
1.65 0.03355
1.7 0.02821
1.75 0.02483
1.8 0.02723
1.85 0.03136
1.9 0.03706
1.95 0.03637
2 0.03833
2.05 0.0372
2.1 0.04052
2.15 0.04091
2.2 0.04403
2.25 0.04046
2.3 0.03261
2.35 0.02938
2.4 0.02788
2.45 0.02691
2.5 0.02437
2.55 0.01949
2.6 0.01405
2.65 0.01508
2.7 0.0209
2.75 0.02348
2.8 0.02173
2.85 0.01774
2.9 0.0169
2.95 0.01848
3 0.01574
3.05 0.01457
3.1 0.0177
3.15 0.01943
3.2 0.02215
3.25 0.02189
3.3 0.02113
3.35 0.0182
3.4 0.01598
3.45 0.01342
3.5 0.01188
3.55 0.00836
3.6 0.01146
3.65 0.01087
3.7 0.01086
3.75 0.01594
3.8 0.0171
3.85 0.0187
3.9 0.01947
3.95 0.01578
4 0.01283
4.05 0.00806
4.1 0.00087
4.15 -0.00294
4.2 -0.00421
4.25 -0.00156
4.3 -0.00075
4.35 0.00141
4.4 0.00238
4.45 0.00259
4.5 0.00258
4.55 -0.0064
4.6 -0.01633
4.65 -0.03438
4.7 -0.05849
4.75 -0.08229
4.8 -0.10357
4.85 -0.12799
4.9 -0.15519
4.95 -0.1865
5 -0.22227
5.05 -0.26537
5.1 -0.31694
5.15 -0.37594
5.2 -0.4377
5.25 -0.50413
5.3 -0.58013
5.35 -0.66097
5.4 -0.74711
5.45 -0.83423
5.5 -0.92687
5.55 -1.02248
5.6 -1.1234
5.65 -1.22316
5.7 -1.32669
5.75 -1.43141
5.8 -1.53449
5.85 -1.63386
5.9 -1.72642
5.95 -1.81547
6 -1.90107
6.05 -1.98242
6.1 -2.05449
6.15 -2.12205
6.2 -2.18292
6.25 -2.24019
6.3 -2.29814
6.35 -2.35081
6.4 -2.40003
6.45 -2.44486
6.5 -2.48437
6.55 -2.50882
6.6 -2.52421
6.65 -2.52329
6.7 -2.51142
6.75 -2.48954
6.8 -2.45543
6.85 -2.40338
6.9 -2.33439
6.95 -2.24895
7 -2.14379
7.05 -2.02569
7.1 -1.89077
7.15 -1.74192
7.2 -1.57669
7.25 -1.40111
7.3 -1.21312
7.35 -1.02413
7.4 -0.82679
7.45 -0.62255
7.5 -0.42116
7.55 -0.22028
7.6 -0.01852
7.65 0.18243
7.7 0.37663
7.75 0.56499
7.8 0.74183
7.85 0.91495
7.9 1.07403
7.95 1.22045
8 1.35359
8.05 1.4785
8.1 1.59274
8.15 1.69741
8.2 1.79221
8.25 1.87611
8.3 1.94757
8.35 2.00985
8.4 2.06583
8.45 2.10902
8.5 2.14403
8.55 2.17308
8.6 2.19963
8.65 2.22303
8.7 2.23446
8.75 2.2435
8.8 2.24713
8.85 2.24607
8.9 2.24185
8.95 2.23144
9 2.21494
9.05 2.1992
9.1 2.17919
9.15 2.16143
9.2 2.14463
9.25 2.12376
9.3 2.10239
9.35 2.08282
9.4 2.06537
9.45 2.04361
9.5 2.01504
9.55 1.9857
9.6 1.95226
9.65 1.92169
9.7 1.89457
9.75 1.86804
9.8 1.8384
9.85 1.80404
9.9 1.76674
9.95 1.7336
10 1.7017
10.05 1.66961
10.1 1.636
10.15 1.59679
10.2 1.55553
10.25 1.51717
10.3 1.47399
10.35 1.42473
10.4 1.37627
10.45 1.32722
10.5 1.27905
10.55 1.22928
10.6 1.1815
10.65 1.13239
10.7 1.08439
10.75 1.03475
10.8 0.98919
10.85 0.94602
10.9 0.89813
10.95 0.84761
11 0.80432
11.05 0.76462
11.1 0.72097
11.15 0.67419
11.2 0.62667
11.25 0.58412
11.3 0.54265
11.35 0.50047
11.4 0.4597
11.45 0.41787
11.5 0.37381
11.55 0.33363
11.6 0.29471
11.65 0.25747
11.7 0.21921
11.75 0.18409
11.8 0.15552
11.85 0.12547
11.9 0.09988
11.95 0.07236
12 0.0422
12.05 0.01324
12.1 -0.01478
12.15 -0.0455
12.2 -0.06817
12.25 -0.08989
12.3 -0.11008
12.35 -0.12587
12.4 -0.14621
12.45 -0.16335
12.5 -0.17936
12.55 -0.19968
12.6 -0.21701
12.65 -0.23625
12.7 -0.25498
12.75 -0.26809
12.8 -0.28033
12.85 -0.28897
12.9 -0.30206
12.95 -0.31263
13 -0.32128
13.05 -0.32704
13.1 -0.32968
13.15 -0.33594
13.2 -0.34617
13.25 -0.35398
13.3 -0.35647
13.35 -0.361
13.4 -0.36008
13.45 -0.36095
13.5 -0.36592
13.55 -0.37055
13.6 -0.36921
13.65 -0.36782
13.7 -0.36308
13.75 -0.36241
13.8 -0.36472
13.85 -0.36697
13.9 -0.36964
13.95 -0.36676
14 -0.36306
14.05 -0.36277
14.1 -0.36149
14.15 -0.36074
14.2 -0.35539
14.25 -0.34846
14.3 -0.34637
14.35 -0.34715
14.4 -0.34885
14.45 -0.34648
14.5 -0.34626
14.55 -0.34418
14.6 -0.34108
14.65 -0.3381
14.7 -0.3341
14.75 -0.33242
14.8 -0.33202
14.85 -0.3274
14.9 -0.31818
14.95 -0.31485
15 -0.31132
15.05 -0.30886
15.1 -0.30098
15.15 -0.29599
15.2 -0.2922
15.25 -0.2836
15.3 -0.27808
15.35 -0.27189
15.4 -0.26575
15.45 -0.2656
15.5 -0.26128
15.55 -0.25858
15.6 -0.25184
15.65 -0.24905
15.7 -0.24592
15.75 -0.23869
15.8 -0.23225
15.85 -0.22691
15.9 -0.22658
15.95 -0.22831
16 -0.2288
16.05 -0.22824
16.1 -0.22405
16.15 -0.22439
16.2 -0.22465
16.25 -0.22671
16.3 -0.2293
16.35 -0.22923
16.4 -0.22316
16.45 -0.21272
16.5 -0.20134
16.55 -0.19517
16.6 -0.18717
16.65 -0.17909
16.7 -0.17731
16.75 -0.17151
16.8 -0.17085
16.85 -0.17334
16.9 -0.1725
16.95 -0.17368
17 -0.1708
17.05 -0.17082
17.1 -0.16618
17.15 -0.1645
17.2 -0.1593
17.25 -0.1536
17.3 -0.14521
17.35 -0.14066
17.4 -0.13792
17.45 -0.13641
17.5 -0.1308
17.55 -0.12456
17.6 -0.1231
17.65 -0.12336
17.7 -0.12545
17.75 -0.1273
17.8 -0.13002
17.85 -0.12998
17.9 -0.12926
17.95 -0.12729
18 -0.12911
18.05 -0.13188
18.1 -0.12736
18.15 -0.12082
18.2 -0.11772
18.25 -0.11106
18.3 -0.10643
18.35 -0.09902
18.4 -0.0959
18.45 -0.09165
18.5 -0.08752
18.55 -0.08258
18.6 -0.08413
18.65 -0.08774
18.7 -0.08798
18.75 -0.09038
18.8 -0.08837
18.85 -0.08322
18.9 -0.08395
18.95 -0.08793
19 -0.08619
19.05 -0.08191
19.1 -0.07784
19.15 -0.07981
19.2 -0.08151
19.25 -0.08127
19.3 -0.08083
19.35 -0.07851
19.4 -0.07928
19.45 -0.08128
19.5 -0.08624
19.55 -0.09149
19.6 -0.09208
19.65 -0.09085
19.7 -0.08827
19.75 -0.08576
19.8 -0.08645
19.85 -0.08709
19.9 -0.08951
19.95 -0.092
20 -0.08781
20.05 -0.0864
20.1 -0.08259
20.15 -0.07832
20.2 -0.07299
20.25 -0.06422
20.3 -0.05687
20.35 -0.05227
20.4 -0.05224
20.45 -0.05418
20.5 -0.05747
20.55 -0.05842
20.6 -0.06213
20.65 -0.05951
20.7 -0.05861
20.75 -0.0605
20.8 -0.06422
20.85 -0.06675
20.9 -0.06469
20.95 -0.06579
21 -0.0647
21.05 -0.0576
21.1 -0.05512
21.15 -0.04922
21.2 -0.04189
21.25 -0.03254
21.3 -0.0261
21.35 -0.02224
21.4 -0.01799
21.45 -0.0166
21.5 -0.01648
21.55 -0.02165
21.6 -0.02344
21.65 -0.0285
21.7 -0.02791
21.75 -0.02803
21.8 -0.03241
21.85 -0.03686
21.9 -0.0434
21.95 -0.05123
22 -0.05889
22.05 -0.05952
22.1 -0.06194
22.15 -0.06492
22.2 -0.06346
22.25 -0.06034
22.3 -0.05218
22.35 -0.04473
22.4 -0.0346
22.45 -0.03173
22.5 -0.03154
22.55 -0.03298
22.6 -0.03458
22.65 -0.03438
22.7 -0.02864
22.75 -0.02304
22.8 -0.02194
22.85 -0.02444
22.9 -0.02411
22.95 -0.02653
23 -0.0293
23.05 -0.02692
23.1 -0.02128
23.15 -0.02145
23.2 -0.02028
23.25 -0.0179
23.3 -0.01815
23.35 -0.0166
23.4 -0.01339
23.45 -0.00813
23.5 -0.00851
23.55 -0.01085
23.6 -0.01494
23.65 -0.01648
23.7 -0.01395
23.75 -0.00936
23.8 -0.00285
23.85 -0.00024
23.9 0.00353
23.95 0.00427
24 0.00593
24.05 0.00091
24.1 -0.00749
24.15 -0.01773
24.2 -0.02133
24.25 -0.02216
24.3 -0.01845
24.35 -0.01665
24.4 -0.01421
24.45 -0.00959
24.5 -0.00371
24.55 0.00321
24.6 0.00554
24.65 0.00636
24.7 0.00242
24.75 -0.00526
24.8 -0.01428
24.85 -0.01752
24.9 -0.01782
24.95 -0.02162
25 -0.02664
25.05 -0.03035
25.1 -0.03557
25.15 -0.04136
25.2 -0.03993
25.25 -0.03503
25.3 -0.03029
25.35 -0.02295
25.4 -0.01625
25.45 -0.0088
25.5 -0.00371
25.55 0.00349
25.6 0.00823
25.65 0.01309
25.7 0.01217
25.75 0.01149
25.8 0.00849
25.85 0.00662
25.9 0.00368
25.95 -0.00252
26 -0.00316
26.05 -0.00244
26.1 -0.0057
26.15 -0.00492
26.2 -0.00449
26.25 -0.00907
26.3 -0.01617
26.35 -0.02119
26.4 -0.01926
26.45 -0.01713
26.5 -0.01878
26.55 -0.01975
26.6 -0.01607
26.65 -0.01436
26.7 -0.01081
26.75 -0.00539
26.8 -0.00572
26.85 -0.00463
26.9 -0.0072
26.95 -0.00936
27 -0.01318
27.05 -0.01823
27.1 -0.02423
27.15 -0.02729
27.2 -0.03074
27.25 -0.03465
27.3 -0.0387
27.35 -0.03389
27.4 -0.02827
27.45 -0.02553
27.5 -0.0235
27.55 -0.02475
27.6 -0.02316
27.65 -0.01797
27.7 -0.01173
27.75 -0.00356
27.8 0.00431
27.85 0.00694
27.9 0.01231
27.95 0.01887
28 0.01711
28.05 0.01068
28.1 0.00416
28.15 0.00045
28.2 -0.00415
28.25 -0.00614
28.3 -0.00609
28.35 -0.00806
28.4 -0.00911
28.45 -0.00572
28.5 -0.00633
28.55 -0.00699
28.6 -0.01089
28.65 -0.01684
28.7 -0.02177
28.75 -0.02672
28.8 -0.02951
28.85 -0.02903
28.9 -0.03008
28.95 -0.02918
29 -0.02564
29.05 -0.0246
29.1 -0.02627
29.15 -0.02616
29.2 -0.02803
29.25 -0.02694
29.3 -0.02734
29.35 -0.021
29.4 -0.01116
29.45 0.00003
29.5 0.01063
29.55 0.0174
29.6 0.02298
29.65 0.02675
29.7 0.02803
29.75 0.02677
29.8 0.02526
29.85 0.02275
29.9 0.02303
29.95 0.01914
30 0.0188
30.05 0.01815
30.1 0.0158
30.15 0.00885
30.2 0.00291
30.25 -0.00086
30.3 -0.0072
30.35 -0.00855
30.4 -0.00595
30.45 -0.00537
30.5 -0.00133
30.55 0.00074
30.6 0.00522
30.65 0.00954
30.7 0.00693
30.75 0.00874
30.8 0.0118
30.85 0.01426
30.9 0.01558
30.95 0.01194
31 0.00636
31.05 -0.00148
31.1 -0.00892
31.15 -0.01111
31.2 -0.00859
31.25 -0.00759
31.3 -0.00589
31.35 0.00001
31.4 0.00196
31.45 -0.00053
31.5 -0.00438
31.55 -0.00994
31.6 -0.0106
31.65 -0.00611
31.7 -0.00468
31.75 -0.00702
31.8 -0.00354
31.85 -0.00084
31.9 -0.00301
31.95 0.00037
32 0.00512
32.05 0.00311
32.1 0.0005
32.15 -0.00236
32.2 -0.0043
32.25 -0.00627
32.3 -0.00973
32.35 -0.01039
32.4 -0.01229
32.45 -0.01607
32.5 -0.01472
32.55 -0.01408
32.6 -0.00797
32.65 -0.00064
32.7 0.00053
32.75 -0.00248
32.8 -0.00109
32.85 -0.00247
32.9 0.00015
32.95 -0.00127
33 -0.00346
33.05 -0.0077
33.1 -0.00588
33.15 -0.00235
33.2 -0.00175
33.25 0.00046
33.3 0.00563
33.35 0.00413
33.4 0.00662
33.45 0.00468
33.5 0.00287
33.55 0.00399
33.6 0.00831
33.65 0.01316
33.7 0.01318
33.75 0.00865
33.8 0.00403
33.85 -0.0031
33.9 -0.00776
33.95 -0.00558
34 -0.00714
34.05 -0.01181
34.1 -0.01061
34.15 -0.00799
34.2 -0.00578
34.25 -0.0035
34.3 0.00122
34.35 0.00213
34.4 0.00519
34.45 0.00232
34.5 0.00103
34.55 -0.00428
34.6 -0.00957
34.65 -0.01417
34.7 -0.01277
34.75 -0.00816
34.8 -0.00105
34.85 0.00554
34.9 0.00738
34.95 0.00506
35 0.00619
35.05 0.00664
35.1 0.00864
35.15 0.00696
35.2 0.00623
35.25 0.00072
35.3 0.00073
35.35 -0.00031
35.4 0.00316
35.45 0.00682
35.5 0.00848
35.55 0.01141
35.6 0.00824
35.65 0.00194
35.7 -0.00315
35.75 -0.00646
35.8 -0.01082
35.85 -0.00942
35.9 -0.01058
35.95 -0.01024
36 -0.01291
36.05 -0.01171
36.1 -0.01305
36.15 -0.01627
36.2 -0.02077
36.25 -0.02586
36.3 -0.02887
36.35 -0.02458
36.4 -0.01613
36.45 -0.00908
36.5 -0.00398
36.55 -0.00001
36.6 0.00012
36.65 0.00004
36.7 -0.00024
36.75 0.00021
36.8 0.00046
36.85 -0.00135
36.9 -0.00016
36.95 -0.00279
37 -0.00435
37.05 -0.00201
37.1 -0.00456
37.15 -0.00235
37.2 -0.0017
37.25 -0.00035
37.3 -0.00376
37.35 -0.00982
37.4 -0.01196
37.45 -0.00936
37.5 -0.01077
37.55 -0.0068
37.6 -0.00218
37.65 0.00074
37.7 0.00239
37.75 0.00511
37.8 0.00847
37.85 0.00897
37.9 0.00884
37.95 0.00515
38 0.00105
38.05 0.00245
38.1 0.00625
38.15 0.00733
38.2 0.00335
38.25 0.0044
38.3 0.00328
38.35 0.00074
38.4 -0.00305
38.45 -0.00833
38.5 -0.01297
38.55 -0.01842
38.6 -0.02272
38.65 -0.02145
38.7 -0.02216
38.75 -0.01704
38.8 -0.01498
38.85 -0.01166
38.9 -0.0102
38.95 -0.009
39 -0.00942
39.05 -0.00649
39.1 -0.00042
39.15 0.0058
39.2 0.00658
39.25 0.01078
39.3 0.0087
39.35 0.00994
39.4 0.00849
39.45 0.01166
39.5 0.01576
39.55 0.01774
39.6 0.01809
39.65 0.0132
39.7 0.01166
39.75 0.01131
39.8 0.01071
39.85 0.00654
39.9 0.00391
39.95 0.00557
40 0.00777
40.05 0.01267
40.1 0.01844
40.15 0.02457
40.2 0.02709
40.25 0.02741
40.3 0.02821
40.35 0.02325
40.4 0.02024
40.45 0.01959
40.5 0.01448
40.55 0.0101
40.6 0.00746
40.65 0.00388
40.7 0.0023
40.75 -0.00272
40.8 -0.00152
40.85 0.00031
40.9 0.0048
40.95 0.00384
41 0.00085
41.05 -0.00198
41.1 -0.00204
41.15 -0.00446
41.2 -0.00999
41.25 -0.00967
41.3 -0.00726
41.35 -0.00977
41.4 -0.01166
41.45 -0.00973
41.5 -0.00985
41.55 -0.0098
41.6 -0.00693
41.65 -0.00179
41.7 -0.00241
41.75 -0.00568
41.8 -0.00829
41.85 -0.01252
41.9 -0.01868
41.95 -0.01863
42 -0.01305
42.05 -0.00689
42.1 -0.00238
42.15 -0.00349
42.2 -0.00392
42.25 -0.00671
42.3 -0.01097
42.35 -0.00859
42.4 -0.00447
42.45 0.00014
42.5 -0.00067
42.55 -0.00076
42.6 -0.00337
42.65 -0.00816
42.7 -0.01077
42.75 -0.01215
42.8 -0.00859
42.85 -0.00863
42.9 -0.00329
42.95 0.00188
43 0.00096
43.05 -0.00291
43.1 -0.00443
43.15 -0.00434
43.2 -0.00551
43.25 -0.00958
43.3 -0.00775
43.35 -0.00349
43.4 0.0022
43.45 0.00243
43.5 0.00335
43.55 0.00557
43.6 0.00412
43.65 0.00716
43.7 0.01051
43.75 0.01293
43.8 0.00993
43.85 0.01001
43.9 0.00902
43.95 0.0119
44 0.01356
44.05 0.01576
44.1 0.01197
44.15 0.00486
44.2 -0.00368
44.25 -0.00653
44.3 -0.00398
44.35 -0.00539
44.4 -0.0024
44.45 0.00392
44.5 0.00921
44.55 0.00747
44.6 0.00436
44.65 -0.00188
44.7 -0.00772
44.75 -0.00645
44.8 -0.00199
44.85 0.00396
44.9 0.00859
44.95 0.01155
45 0.01587
45.05 0.01733
45.1 0.01903
45.15 0.01914
45.2 0.01878
45.25 0.01781
45.3 0.01928
45.35 0.01661
45.4 0.01221
45.45 0.01161
45.5 0.00926
45.55 0.00298
45.6 0.00097
45.65 -0.00268
45.7 -0.00148
45.75 -0.00032
45.8 -0.00378
45.85 -0.00294
45.9 -0.00399
45.95 -0.0043
46 -0.00374
46.05 -0.00721
46.1 -0.00597
46.15 -0.0092
46.2 -0.0119
46.25 -0.00867
46.3 -0.00578
46.35 -0.00354
46.4 -0.00362
46.45 -0.00164
46.5 0.00383
46.55 0.00724
46.6 0.00526
46.65 0.00436
46.7 0.00484
46.75 0.00406
46.8 -0.00055
46.85 -0.00609
46.9 -0.0124
46.95 -0.0167
47 -0.0199
47.05 -0.02339
47.1 -0.02182
47.15 -0.02206
47.2 -0.01622
47.25 -0.00718
47.3 0.00124
47.35 0.0086
47.4 0.00804
47.45 0.00802
47.5 0.0096
47.55 0.00764
47.6 0.01021
47.65 0.01181
47.7 0.01272
47.75 0.0101
47.8 0.0077
47.85 0.00493
47.9 -0.00044
47.95 -0.0044
48 -0.00533
48.05 -0.00965
48.1 -0.0077
48.15 -0.00487
48.2 -0.00087
48.25 0.00284
48.3 0.00378
48.35 0.00664
48.4 0.00385
48.45 -0.00287
48.5 -0.01153
48.55 -0.01877
48.6 -0.01888
48.65 -0.01422
48.7 -0.0144
48.75 -0.01077
48.8 -0.00932
48.85 -0.00943
48.9 -0.00485
48.95 -0.00297
49 0.00062
49.05 0.00027
49.1 -0.00032
49.15 -0.00283
49.2 -0.00034
49.25 -0.00021
49.3 -0.00133
49.35 0.00037
49.4 0.00556
49.45 0.0088
49.5 0.01101
49.55 0.01553
49.6 0.01279
49.65 0.00748
49.7 0.00412
49.75 -0.00068
49.8 -0.0075
49.85 -0.01197
49.9 -0.01047
49.95 -0.00503
50 -0.0033
50.05 0.00119
50.1 0.00148
50.15 0.00242
50.2 0.00424
50.25 0.00926
50.3 0.01207
50.35 0.01121
50.4 0.01058
50.45 0.01261
50.5 0.01617
50.55 0.01264
50.6 0.0061
50.65 0.0055
50.7 0.00662
50.75 0.00719
50.8 0.00509
50.85 0.00429
50.9 -0.00067
50.95 -0.00296
51 -0.00835
51.05 -0.01006
51.1 -0.00724
51.15 -0.00227
51.2 0.00436
51.25 0.00467
51.3 0.00486
51.35 0.00079
51.4 -0.00603
51.45 -0.01084
51.5 -0.01384
51.55 -0.01574
51.6 -0.01261
51.65 -0.0076
51.7 -0.00007
51.75 0.0011
51.8 0.00302
51.85 0.00226
51.9 0.00145
51.95 0.00098
52 0.00091
52.05 -0.0021
52.1 -0.00389
52.15 -0.00324
52.2 0.00168
52.25 0.00853
52.3 0.01496
52.35 0.01837
52.4 0.01494
52.45 0.00953
52.5 0.00951
52.55 0.00689
52.6 0.00428
52.65 0.00608
52.7 0.0101
52.75 0.01154
52.8 0.01271
52.85 0.00859
52.9 0.00207
52.95 0.00117
53 0.00363
53.05 0.00805
53.1 0.0083
53.15 0.00356
53.2 0.00112
53.25 -0.00142
53.3 -0.00174
53.35 0.00214
53.4 0.0012
53.45 0.00052
53.5 -0.00313
53.55 -0.00136
53.6 -0.00043
53.65 -0.00082
53.7 0.00149
53.75 0.00584
53.8 0.00605
53.85 0.00965
53.9 0.00818
53.95 0.00646
54 0.00829
54.05 0.00412
54.1 0.00033
54.15 -0.00694
54.2 -0.01534
54.25 -0.02207
54.3 -0.02776
54.35 -0.02993
54.4 -0.0308
54.45 -0.03348
54.5 -0.0318
54.55 -0.02748
54.6 -0.02167
54.65 -0.01687
54.7 -0.01085
54.75 -0.01072
54.8 -0.00728
54.85 -0.00545
54.9 -0.00676
54.95 -0.00409
55 0.00218
55.05 0.00395
55.1 0.00182
55.15 0.00423
55.2 0.00375
55.25 0.00714
55.3 0.01018
55.35 0.01369
55.4 0.01842
55.45 0.02126
55.5 0.01804
55.55 0.01078
55.6 0.00594
55.65 0.00511
55.7 0.00152
55.75 -0.00529
55.8 -0.01104
55.85 -0.01116
55.9 -0.01067
55.95 -0.01027
56 -0.00784
56.05 -0.00563
56.1 -0.00674
56.15 -0.00447
56.2 0.00089
56.25 0.00667
56.3 0.00981
56.35 0.01346
56.4 0.01478
56.45 0.0174
56.5 0.01346
56.55 0.00657
56.6 0.00547
56.65 0.00779
56.7 0.01033
56.75 0.01265
56.8 0.01289
56.85 0.01033
56.9 0.01214
56.95 0.00855
57 0.00331
57.05 0.00208
57.1 -0.00057
57.15 -0.00274
57.2 -0.00545
57.25 -0.00521
57.3 -0.00257
57.35 0.00221
57.4 0.00902
57.45 0.01189
57.5 0.01604
57.55 0.01668
57.6 0.01262
57.65 0.01053
57.7 0.0076
57.75 0.00369
57.8 0.00378
57.85 0.00455
57.9 0.0015
57.95 -0.00449
58 -0.00973
58.05 -0.0155
58.1 -0.01566
58.15 -0.01292
58.2 -0.0098
58.25 -0.01062
58.3 -0.01194
58.35 -0.00965
58.4 -0.00694
58.45 -0.00306
58.5 -0.00492
58.55 -0.0057
58.6 -0.0069
58.65 -0.00374
58.7 0.00259
58.75 0.00495
58.8 0.00762
58.85 0.0118
58.9 0.01623
58.95 0.01339
59 0.01323
59.05 0.00862
59.1 0.00213
59.15 -0.00039
59.2 -0.00541
59.25 -0.00442
59.3 -0.00061
59.35 0.00228
59.4 0.00077
59.45 -0.0041
59.5 -0.0113
59.55 -0.01352
59.6 -0.01702
59.65 -0.01626
59.7 -0.01052
59.75 -0.00993
59.8 -0.01054
59.85 -0.01214
59.9 -0.00778
59.95 -0.00427
60 0.0003
60.05 0.00684
60.1 0.01464
60.15 0.02236
60.2 0.0238
60.25 0.01923
60.3 0.0182
60.35 0.01703
60.4 0.01186
60.45 0.01096
60.5 0.00969
60.55 0.01135
60.6 0.0152
60.65 0.01686
60.7 0.01602
60.75 0.01668
60.8 0.01696
60.85 0.01887
60.9 0.02228
60.95 0.02562
61 0.02675
61.05 0.0202
61.1 0.01085
61.15 0.00019
61.2 -0.01096
61.25 -0.01882
61.3 -0.01887
61.35 -0.0137
61.4 -0.01087
61.45 -0.00952
61.5 -0.01307
61.55 -0.01749
61.6 -0.01725
61.65 -0.01594
61.7 -0.01157
61.75 -0.0074
61.8 -0.00467
61.85 -0.0028
61.9 -0.00363
61.95 -0.00077
62 0.00385
62.05 0.00391
62.1 0.00298
62.15 0.00301
62.2 0.00594
62.25 0.00306
62.3 0.00292
62.35 0.00034
62.4 -0.00267
62.45 -0.00089
62.5 -0.00342
62.55 -0.00399
62.6 -0.00157
62.65 0.00182
62.7 0.00495
62.75 0.00627
62.8 0.00197
62.85 -0.0049
62.9 -0.00899
62.95 -0.01574
63 -0.0179
63.05 -0.01432
63.1 -0.01001
63.15 -0.00335
63.2 0.0053
63.25 0.01072
63.3 0.01097
63.35 0.01296
63.4 0.01421
63.45 0.00924
63.5 0.0026
63.55 -0.0034
63.6 -0.00867
63.65 -0.01514
63.7 -0.01433
63.75 -0.01194
63.8 -0.01083
63.85 -0.00653
63.9 -0.0066
63.95 -0.0071
64 -0.01025
64.05 -0.01055
64.1 -0.01414
64.15 -0.01468
64.2 -0.01241
64.25 -0.01334
64.3 -0.00961
64.35 -0.00495
64.4 -0.00634
64.45 -0.01081
64.5 -0.0168
64.55 -0.0178
64.6 -0.01379
64.65 -0.01154
64.7 -0.0067
64.75 0.00094
64.8 0.00143
64.85 0.00557
64.9 0.0079
64.95 0.00941
65 0.01197
65.05 0.01283
65.1 0.01492
65.15 0.01319
65.2 0.00615
65.25 -0.0008
65.3 -0.00256
65.35 -0.00637
65.4 -0.01118
65.45 -0.01556
65.5 -0.01887
65.55 -0.02284
65.6 -0.02748
65.65 -0.02651
65.7 -0.0212
65.75 -0.01214
65.8 -0.00817
65.85 -0.00079
65.9 0.00022
65.95 -0.00149
66 -0.00471
66.05 -0.00777
66.1 -0.00726
66.15 -0.00495
66.2 -0.00488
66.25 -0.00426
66.3 -0.00035
66.35 0.00441
66.4 0.00392
66.45 0.00461
66.5 0.00329
66.55 0.00488
66.6 0.00647
66.65 0.00588
66.7 0.0025
66.75 -0.00206
66.8 -0.00508
66.85 -0.00539
66.9 -0.00685
66.95 -0.00954
67 -0.01307
67.05 -0.01118
67.1 -0.00693
67.15 -0.00493
67.2 -0.00096
67.25 0.0058
67.3 0.01303
67.35 0.01493
67.4 0.01509
67.45 0.00953
67.5 0.0048
67.55 0.00222
67.6 0.00456
67.65 0.00874
67.7 0.01325
67.75 0.01051
67.8 0.00628
67.85 0.00438
67.9 0.00673
67.95 0.00643
68 0.0024
68.05 0.00107
68.1 -0.00253
68.15 -0.00734
68.2 -0.00689
68.25 -0.00439
68.3 -0.00252
68.35 0.00103
68.4 -0.0005
68.45 -0.00264
68.5 -0.00598
68.55 -0.00686
68.6 -0.00439
68.65 -0.0002
68.7 0.0043
68.75 0.00615
68.8 0.00937
68.85 0.0129
68.9 0.01832
68.95 0.01916
69 0.01935
69.05 0.01546
69.1 0.01589
69.15 0.01169
69.2 0.01232
69.25 0.01072
69.3 0.01198
69.35 0.01061
69.4 0.00802
69.45 0.00158
69.5 -0.00447
69.55 -0.0044
69.6 -0.00311
69.65 0.00113
69.7 0.00212
69.75 0.00224
69.8 -0.00021
69.85 -0.00092
69.9 -0.0057
69.95 -0.0104
70 -0.01395
70.05 -0.01892
70.1 -0.02156
70.15 -0.01731
70.2 -0.015
70.25 -0.01355
70.3 -0.01245
70.35 -0.00649
70.4 -0.00129
70.45 0.0024
70.5 0.0041
70.55 0.00355
70.6 0.0021
70.65 0.00119
70.7 0.00482
70.75 0.00346
70.8 -0.00213
70.85 -0.00721
70.9 -0.00917
70.95 -0.01043
71 -0.01064
71.05 -0.01456
71.1 -0.01916
71.15 -0.01862
71.2 -0.0186
71.25 -0.01965
71.3 -0.02288
71.35 -0.02366
71.4 -0.02147
71.45 -0.02226
71.5 -0.01827
71.55 -0.01294
71.6 -0.00838
71.65 -0.00328
71.7 -0.00357
71.75 -0.00688
71.8 -0.01048
71.85 -0.01153
71.9 -0.01428
71.95 -0.01214
72 -0.01032
72.05 -0.00659
72.1 -0.00397
72.15 -0.00643
72.2 -0.00571
72.25 -0.00049
72.3 0.00527
72.35 0.00555
72.4 0.00921
72.45 0.01382
72.5 0.02006
72.55 0.02243
72.6 0.01906
72.65 0.01549
72.7 0.00988
72.75 0.00171
72.8 -0.0019
72.85 -0.00657
72.9 -0.01139
72.95 -0.01354
73 -0.01058
73.05 -0.00826
73.1 -0.00835
73.15 -0.01184
73.2 -0.01309
73.25 -0.01374
73.3 -0.0163
73.35 -0.02032
73.4 -0.02547
73.45 -0.02987
73.5 -0.02594
73.55 -0.02461
73.6 -0.02168
73.65 -0.01815
73.7 -0.01019
73.75 -0.00241
73.8 0.00363
73.85 0.00534
73.9 0.00428
73.95 0.00205
74 -0.00311
74.05 -0.01037
74.1 -0.00943
74.15 -0.0058
74.2 -0.00045
74.25 0.00691
74.3 0.01151
74.35 0.01066
74.4 0.01319
74.45 0.01513
74.5 0.01411
74.55 0.01362
74.6 0.01485
74.65 0.01787
74.7 0.01613
74.75 0.01053
74.8 0.00409
74.85 0.0021
74.9 -0.00318
74.95 -0.00314
75 -0.0034
75.05 -0.00572
75.1 -0.00874
75.15 -0.01202
75.2 -0.01215
75.25 -0.01035
75.3 -0.01007
75.35 -0.00534
75.4 -0.00273
75.45 0.00165
75.5 0.00505
75.55 0.00887
75.6 0.01125
75.65 0.00822
75.7 0.00341
75.75 -0.00334
75.8 -0.01152
75.85 -0.01825
75.9 -0.02423
75.95 -0.03015
76 -0.02748
76.05 -0.02401
76.1 -0.01966
76.15 -0.01705
76.2 -0.00971
76.25 -0.00467
76.3 -0.00074
76.35 0.00464
76.4 0.00505
76.45 0.00081
76.5 -0.00189
76.55 -0.00675
76.6 -0.01032
76.65 -0.01498
76.7 -0.01859
76.75 -0.02169
76.8 -0.0176
76.85 -0.01195
76.9 -0.01079
76.95 -0.00523
77 -0.00176
77.05 -0.00302
77.1 -0.00011
77.15 0.00447
77.2 0.01154
77.25 0.01743
77.3 0.01733
77.35 0.01335
77.4 0.01137
77.45 0.00583
77.5 0.00118
77.55 -0.00527
77.6 -0.00575
77.65 -0.00064
77.7 0.00366
77.75 0.00832
77.8 0.00906
77.85 0.01291
77.9 0.01615
77.95 0.01443
78 0.014
78.05 0.01144
78.1 0.01018
78.15 0.00924
78.2 0.00807
78.25 0.00928
78.3 0.01293
78.35 0.01603
78.4 0.02108
78.45 0.02667
78.5 0.03154
78.55 0.0325
78.6 0.03497
78.65 0.03397
78.7 0.02779
78.75 0.0183
78.8 0.01297
78.85 0.00907
78.9 0.00321
78.95 -0.00045
79 -0.00359
79.05 -0.00265
79.1 -0.00096
79.15 0.00216
79.2 0.00433
79.25 0.00655
79.3 0.0038
79.35 0.00152
79.4 -0.00418
79.45 -0.00647
79.5 -0.00657
79.55 -0.0052
79.6 -0.00662
79.65 -0.00245
79.7 -0.00055
79.75 0.00525
79.8 0.00902
79.85 0.01062
79.9 0.01117
79.95 0.00982
80 0.01107
80.05 0.01228
80.1 0.0123
80.15 0.01213
80.2 0.00758
80.25 0.00569
80.3 0.00526
80.35 0.00865
80.4 0.01431
80.45 0.01536
80.5 0.01248
80.55 0.01325
80.6 0.01003
80.65 0.00659
80.7 0.00162
80.75 -0.00516
80.8 -0.00645
80.85 -0.00938
80.9 -0.01514
80.95 -0.01926
81 -0.01889
81.05 -0.0177
81.1 -0.0125
81.15 -0.00645
81.2 -0.00162
81.25 0.00504
81.3 0.00904
81.35 0.0073
81.4 0.00633
81.45 0.00949
81.5 0.01508
81.55 0.01886
81.6 0.02186
81.65 0.01837
81.7 0.01665
81.75 0.00939
81.8 -0.00001
81.85 -0.00212
81.9 -0.00822
81.95 -0.00851
82 -0.00377
82.05 0.00369
82.1 0.00902
82.15 0.01032
82.2 0.01435
82.25 0.01772
82.3 0.01865
82.35 0.01793
82.4 0.01159
82.45 0.00366
82.5 -0.00114
82.55 -0.00812
82.6 -0.01595
82.65 -0.02147
82.7 -0.02478
82.75 -0.02289
82.8 -0.02317
82.85 -0.02277
82.9 -0.01748
82.95 -0.01468
83 -0.01138
83.05 -0.0105
83.1 -0.01217
83.15 -0.00825
83.2 -0.00185
83.25 0.0018
83.3 0.00463
83.35 0.00681
83.4 0.00482
83.45 0.00392
83.5 0.00141
83.55 0.00102
83.6 0.00035
83.65 0.0018
83.7 0.00598
83.75 0.01108
83.8 0.01455
83.85 0.01583
83.9 0.01869
83.95 0.01875
84 0.0129
84.05 0.0103
84.1 0.012
84.15 0.00795
84.2 0.00368
84.25 0.00276
84.3 0.00224
84.35 0.00287
84.4 0.00592
84.45 0.00467
84.5 -0.00084
84.55 -0.00355
84.6 -0.0081
84.65 -0.01166
84.7 -0.011
84.75 -0.00583
84.8 -0.0056
84.85 -0.00757
84.9 -0.00746
84.95 -0.01163
85 -0.01624
85.05 -0.02194
85.1 -0.02209
85.15 -0.02247
85.2 -0.0172
85.25 -0.01589
85.3 -0.01586
85.35 -0.01282
85.4 -0.01442
85.45 -0.01799
85.5 -0.01471
85.55 -0.01149
85.6 -0.00951
85.65 -0.00964
85.7 -0.00703
85.75 -0.00428
85.8 -0.00136
85.85 0.00263
85.9 0.00519
85.95 0.0069
86 0.01024
86.05 0.01598
86.1 0.0189
86.15 0.0172
86.2 0.01173
86.25 0.0104
86.3 0.00842
86.35 0.01067
86.4 0.01372
86.45 0.01756
86.5 0.01389
86.55 0.01321
86.6 0.01186
86.65 0.00924
86.7 0.00964
86.75 0.0108
86.8 0.00586
86.85 0.005
86.9 0.00108
86.95 0.00183
87 -0.00053
87.05 -0.00466
87.1 -0.00395
87.15 0.00039
87.2 0.00207
87.25 -0.00157
87.3 -0.00404
87.35 -0.00517
87.4 -0.00596
87.45 -0.0038
87.5 -0.00243
87.55 -0.00299
87.6 -0.00077
87.65 -0.00114
87.7 0.00007
87.75 -0.00138
87.8 -0.00294
87.85 -0.00211
87.9 -0.00446
87.95 -0.00783
88 -0.00855
88.05 -0.00804
88.1 -0.01067
88.15 -0.01594
88.2 -0.02202
88.25 -0.02789
88.3 -0.03026
88.35 -0.03124
88.4 -0.02799
88.45 -0.02286
88.5 -0.01322
88.55 -0.00978
88.6 -0.00308
88.65 -0.00314
88.7 -0.00199
88.75 -0.0044
88.8 -0.00647
88.85 -0.00913
88.9 -0.01055
88.95 -0.00704
89 -0.00711
89.05 -0.00736
89.1 -0.00556
89.15 -0.00144
89.2 0.00146
89.25 -0.00134
89.3 0.00143
89.35 -0.00046
89.4 0.00082
89.45 0.00309
89.5 0.00656
89.55 0.01247
89.6 0.01874
89.65 0.0189
89.7 0.0138
89.75 0.01078
89.8 0.00364
89.85 0.00163
89.9 -0.00118
89.95 -0.00398
90 -0.00223
90.05 0.00202
90.1 0.0081
90.15 0.00825
90.2 0.00479
90.25 0.00123
90.3 0.00086
90.35 0.00433
90.4 0.00942
90.45 0.00992
90.5 0.0071
90.55 0.00432
90.6 0.00272
90.65 0.00333
90.7 -0.00095
90.75 -0.00401
90.8 -0.00633
90.85 -0.005
90.9 0.00068
90.95 0.00807
91 0.01296
91.05 0.01516
91.1 0.01343
91.15 0.01395
91.2 0.01132
91.25 0.00623
91.3 0.00595
91.35 0.0061
91.4 0.00187
91.45 0.00263
91.5 0.00238
91.55 -0.00186
91.6 -0.00738
91.65 -0.01317
91.7 -0.01657
91.75 -0.0133
91.8 -0.01073
91.85 -0.00876
91.9 -0.00922
91.95 -0.00444
92 -0.00329
92.05 0.0013
92.1 0.00804
92.15 0.01481
92.2 0.01352
92.25 0.00845
92.3 0.00851
92.35 0.00822
92.4 0.00852
92.45 0.00908
92.5 0.0049
92.55 0.00562
92.6 0.0039
92.65 0.00614
92.7 0.00271
92.75 0.00227
92.8 0.00029
92.85 -0.00272
92.9 -0.0049
92.95 -0.00157
93 0.00457
93.05 0.01096
93.1 0.01224
93.15 0.01132
93.2 0.00824
93.25 0.00574
93.3 0.00707
93.35 0.00365
93.4 0.00403
93.45 0.00408
93.5 0.00694
93.55 0.01211
93.6 0.0177
93.65 0.01645
93.7 0.01448
93.75 0.01611
93.8 0.01673
93.85 0.01846
93.9 0.01554
93.95 0.00968
94 0.00091
94.05 -0.00505
94.1 -0.00679
94.15 -0.00397
94.2 -0.00268
94.25 -0.0058
94.3 -0.00466
94.35 -0.00736
94.4 -0.00759
94.45 -0.01089
94.5 -0.01441
94.55 -0.01707
94.6 -0.01514
94.65 -0.01
94.7 -0.00743
94.75 -0.00468
94.8 0.00101
94.85 0.0083
94.9 0.00835
94.95 0.00793
95 0.00541
95.05 0.00699
95.1 0.00612
95.15 0.00468
95.2 0.00723
95.25 0.00731
95.3 0.00533
95.35 0.00079
95.4 -0.0046
95.45 -0.00666
95.5 -0.00906
95.55 -0.00729
95.6 -0.0104
95.65 -0.0088
95.7 -0.00643
95.75 -0.00807
95.8 -0.01084
95.85 -0.01436
95.9 -0.01751
95.95 -0.0163
96 -0.01168
96.05 -0.0064
96.1 -0.00723
96.15 -0.00739
96.2 -0.00859
96.25 -0.00492
96.3 -0.00417
96.35 -0.00425
96.4 -0.00448
96.45 -0.00719
96.5 -0.00852
96.55 -0.00705
96.6 -0.00944
96.65 -0.00992
96.7 -0.0103
96.75 -0.00867
96.8 -0.01159
96.85 -0.0134
96.9 -0.01617
96.95 -0.01451
97 -0.01411
97.05 -0.01682
97.1 -0.01326
97.15 -0.00768
97.2 -0.00189
97.25 0.00324
97.3 0.00712
97.35 0.00825
97.4 0.01043
97.45 0.01396
97.5 0.0124
97.55 0.01024
97.6 0.00761
97.65 0.00284
97.7 -0.00083
97.75 -0.00551
97.8 -0.0122
97.85 -0.01802
97.9 -0.01839
97.95 -0.0179
98 -0.01248
98.05 -0.00852
98.1 -0.00728
98.15 -0.00784
98.2 -0.00623
98.25 -0.00872
98.3 -0.01195
98.35 -0.01403
98.4 -0.01349
98.45 -0.01022
98.5 -0.00317
98.55 0.00483
98.6 0.00788
98.65 0.013
98.7 0.01368
98.75 0.01046
98.8 0.0054
98.85 0.00524
98.9 0.00469
98.95 0.00386
99 0.00333
99.05 0.00096
99.1 -0.00517
99.15 -0.0131
99.2 -0.01675
99.25 -0.01829
99.3 -0.01457
99.35 -0.00901
99.4 -0.00516
99.45 -0.00359
99.5 0.00117
99.55 0.00558
99.6 0.00337
99.65 -0.00254
99.7 -0.00959
99.75 -0.01383
99.8 -0.01181
99.85 -0.01222
99.9 -0.0152
99.95 -0.01365
