0 0
0.05 0.00592
0.1 0.01617
0.15 0.02303
0.2 0.03206
0.25 0.03533
0.3 0.03456
0.35 0.03242
0.4 0.03112
0.45 0.03711
0.5 0.03914
0.55 0.04151
0.6 0.04699
0.65 0.04725
0.7 0.0467
0.75 0.04955
0.8 0.04702
0.85 0.0459
0.9 0.04246
0.95 0.03685
1 0.03324
1.05 0.03461
1.1 0.03538
1.15 0.03558
1.2 0.03917
1.25 0.04448
1.3 0.05214
1.35 0.05351
1.4 0.05461
1.45 0.05634
1.5 0.05932
1.55 0.058
1.6 0.05857
1.65 0.05501
1.7 0.04726
1.75 0.03982
1.8 0.03332
1.85 0.02809
1.9 0.02633
1.95 0.0279
2 0.0247
2.05 0.02176
2.1 0.02585
2.15 0.02719
2.2 0.03023
2.25 0.0279
2.3 0.02488
2.35 0.02115
2.4 0.02453
2.45 0.03125
2.5 0.03451
2.55 0.03862
2.6 0.04442
2.65 0.04657
2.7 0.0482
2.75 0.04833
2.8 0.04819
2.85 0.04284
2.9 0.03759
2.95 0.03566
3 0.02932
3.05 0.02731
3.1 0.02582
3.15 0.02023
3.2 0.01861
3.25 0.01648
3.3 0.01795
3.35 0.02275
3.4 0.02091
3.45 0.02298
3.5 0.02853
3.55 0.03481
3.6 0.03765
3.65 0.03542
3.7 0.03284
3.75 0.03403
3.8 0.03213
3.85 0.03155
3.9 0.02995
3.95 0.02953
4 0.02382
4.05 0.01551
4.1 0.00693
4.15 0.00517
4.2 0.00053
4.25 -0.00212
4.3 0.00061
4.35 0.0029
4.4 -0.00064
4.45 -0.01001
4.5 -0.0233
4.55 -0.03835
4.6 -0.04845
4.65 -0.05711
4.7 -0.07141
4.75 -0.08685
4.8 -0.1057
4.85 -0.13076
4.9 -0.16036
4.95 -0.19077
5 -0.22435
5.05 -0.25629
5.1 -0.28904
5.15 -0.32492
5.2 -0.36975
5.25 -0.4217
5.3 -0.47578
5.35 -0.53848
5.4 -0.60435
5.45 -0.66802
5.5 -0.73056
5.55 -0.79506
5.6 -0.85554
5.65 -0.91687
5.7 -0.97236
5.75 -1.02157
5.8 -1.06507
5.85 -1.10654
5.9 -1.13827
5.95 -1.16495
6 -1.18423
6.05 -1.19256
6.1 -1.19133
6.15 -1.18207
6.2 -1.16187
6.25 -1.13575
6.3 -1.10517
6.35 -1.06698
6.4 -1.02029
6.45 -0.97546
6.5 -0.92741
6.55 -0.8742
6.6 -0.82091
6.65 -0.76173
6.7 -0.69431
6.75 -0.6256
6.8 -0.54862
6.85 -0.47287
6.9 -0.38775
6.95 -0.30195
7 -0.214
7.05 -0.12551
7.1 -0.03131
7.15 0.06595
7.2 0.16668
7.25 0.26314
7.3 0.36007
7.35 0.45858
7.4 0.55053
7.45 0.64107
7.5 0.7235
7.55 0.79967
7.6 0.87306
7.65 0.93654
7.7 0.99607
7.75 1.04467
7.8 1.08669
7.85 1.11702
7.9 1.14626
7.95 1.17135
8 1.18495
8.05 1.18723
8.1 1.18936
8.15 1.18841
8.2 1.18304
8.25 1.1747
8.3 1.15916
8.35 1.14194
8.4 1.11702
8.45 1.09268
8.5 1.06747
8.55 1.03469
8.6 1.00405
8.65 0.96885
8.7 0.93194
8.75 0.89764
8.8 0.86082
8.85 0.82777
8.9 0.78985
8.95 0.75043
9 0.71836
9.05 0.68617
9.1 0.65314
9.15 0.6189
9.2 0.58469
9.25 0.55804
9.3 0.53884
9.35 0.52425
9.4 0.51124
9.45 0.49733
9.5 0.48365
9.55 0.4645
9.6 0.44626
9.65 0.42393
9.7 0.39967
9.75 0.3817
9.8 0.36577
9.85 0.35153
9.9 0.3331
9.95 0.31136
10 0.28764
10.05 0.26426
10.1 0.2465
10.15 0.23715
10.2 0.22424
10.25 0.20997
10.3 0.19618
10.35 0.18891
10.4 0.18092
10.45 0.17725
10.5 0.16825
10.55 0.16279
10.6 0.15317
10.65 0.14638
10.7 0.13763
10.75 0.12802
10.8 0.11605
10.85 0.10457
10.9 0.08905
10.95 0.07322
11 0.05655
11.05 0.03996
11.1 0.02643
11.15 0.01353
11.2 0.00276
11.25 -0.00586
11.3 -0.00757
11.35 -0.00837
11.4 -0.01093
11.45 -0.01543
11.5 -0.01736
11.55 -0.02516
11.6 -0.03747
11.65 -0.04824
11.7 -0.05949
11.75 -0.06519
11.8 -0.07487
11.85 -0.08162
11.9 -0.08261
11.95 -0.08351
12 -0.08892
12.05 -0.09306
12.1 -0.09372
12.15 -0.0915
12.2 -0.08886
12.25 -0.08845
12.3 -0.08927
12.35 -0.08935
12.4 -0.09237
12.45 -0.10072
12.5 -0.10795
12.55 -0.11193
12.6 -0.1133
12.65 -0.11892
12.7 -0.12148
12.75 -0.12123
12.8 -0.12139
12.85 -0.12264
12.9 -0.12375
12.95 -0.12663
13 -0.12896
13.05 -0.12549
13.1 -0.12314
13.15 -0.11791
13.2 -0.11613
13.25 -0.11088
13.3 -0.10947
13.35 -0.11442
13.4 -0.11622
13.45 -0.11942
13.5 -0.12172
13.55 -0.12141
13.6 -0.11639
13.65 -0.10962
13.7 -0.10554
13.75 -0.10717
13.8 -0.11224
13.85 -0.11772
13.9 -0.11645
13.95 -0.11137
14 -0.10705
14.05 -0.10083
14.1 -0.09484
14.15 -0.09499
14.2 -0.09865
14.25 -0.1007
14.3 -0.10172
14.35 -0.0998
14.4 -0.10342
14.45 -0.10918
14.5 -0.11574
14.55 -0.11511
14.6 -0.11531
14.65 -0.11423
14.7 -0.11373
14.75 -0.10664
14.8 -0.09783
14.85 -0.09606
14.9 -0.09426
14.95 -0.09066
15 -0.09013
15.05 -0.08909
15.1 -0.08774
15.15 -0.08238
15.2 -0.07659
15.25 -0.07579
15.3 -0.07367
15.35 -0.0684
15.4 -0.06267
15.45 -0.06066
15.5 -0.06156
15.55 -0.06741
15.6 -0.07557
15.65 -0.08151
15.7 -0.08646
15.75 -0.08319
15.8 -0.08362
15.85 -0.08084
15.9 -0.07664
15.95 -0.07309
16 -0.07025
16.05 -0.06836
16.1 -0.06972
16.15 -0.07435
16.2 -0.07808
16.25 -0.07997
16.3 -0.07438
16.35 -0.06876
16.4 -0.06094
16.45 -0.05467
16.5 -0.04584
16.55 -0.03751
16.6 -0.03712
16.65 -0.03617
16.7 -0.03805
16.75 -0.04417
16.8 -0.04765
16.85 -0.04773
16.9 -0.05049
16.95 -0.05123
17 -0.05553
17.05 -0.05691
17.1 -0.06017
17.15 -0.06167
17.2 -0.06094
17.25 -0.05676
17.3 -0.05386
17.35 -0.05235
17.4 -0.05282
17.45 -0.04807
17.5 -0.04741
17.55 -0.04964
17.6 -0.05291
17.65 -0.05602
17.7 -0.06013
17.75 -0.06158
17.8 -0.05896
17.85 -0.05943
17.9 -0.05431
17.95 -0.05241
18 -0.05011
18.05 -0.04974
18.1 -0.04343
18.15 -0.0373
18.2 -0.03083
18.25 -0.02642
18.3 -0.02347
18.35 -0.02612
18.4 -0.03184
18.45 -0.03771
18.5 -0.03744
18.55 -0.03621
18.6 -0.03682
18.65 -0.03784
18.7 -0.04022
18.75 -0.03722
18.8 -0.03785
18.85 -0.03978
18.9 -0.03699
18.95 -0.03684
19 -0.03732
19.05 -0.03987
19.1 -0.04319
19.15 -0.0423
19.2 -0.03782
19.25 -0.03267
19.3 -0.02589
19.35 -0.02134
19.4 -0.01498
19.45 -0.01435
19.5 -0.01497
19.55 -0.01937
19.6 -0.02013
19.65 -0.02374
19.7 -0.02402
19.75 -0.02697
19.8 -0.03053
19.85 -0.02653
19.9 -0.02012
19.95 -0.01475
20 -0.01529
20.05 -0.01048
20.1 -0.00685
20.15 -0.00044
20.2 0.0056
20.25 0.01119
20.3 0.01641
20.35 0.01749
20.4 0.02037
20.45 0.02374
20.5 0.0221
20.55 0.02105
20.6 0.01396
20.65 0.00694
20.7 0.00444
20.75 0.00451
20.8 0.00004
20.85 0.00061
20.9 0.00305
20.95 0.0004
21 -0.00215
21.05 -0.00424
21.1 -0.01101
21.15 -0.01383
21.2 -0.01463
21.25 -0.01659
21.3 -0.01902
21.35 -0.02414
21.4 -0.02253
21.45 -0.023
21.5 -0.01884
21.55 -0.0148
21.6 -0.0074
21.65 0.00092
21.7 0.00473
21.75 0.00344
21.8 0.00302
21.85 -0.00297
21.9 -0.00491
21.95 -0.00796
22 -0.00842
22.05 -0.00659
22.1 -0.00536
22.15 -0.00212
22.2 0.00043
22.25 0.00385
22.3 0.00387
22.35 0.00678
22.4 0.00887
22.45 0.00748
22.5 0.00112
22.55 -0.00762
22.6 -0.01132
22.65 -0.01386
22.7 -0.0189
22.75 -0.02578
22.8 -0.02888
22.85 -0.03181
22.9 -0.0298
22.95 -0.03053
23 -0.03168
23.05 -0.031
23.1 -0.03131
23.15 -0.02647
23.2 -0.02402
23.25 -0.01928
23.3 -0.01409
23.35 -0.0136
23.4 -0.01706
23.45 -0.01788
23.5 -0.01402
23.55 -0.01525
23.6 -0.01944
23.65 -0.02309
23.7 -0.01898
23.75 -0.0164
23.8 -0.01312
23.85 -0.01493
23.9 -0.01144
23.95 -0.01199
24 -0.00771
24.05 -0.00923
24.1 -0.01365
24.15 -0.01133
24.2 -0.00627
24.25 0.00088
24.3 0.00061
24.35 -0.00378
24.4 -0.00833
24.45 -0.01212
24.5 -0.00973
24.55 -0.00464
24.6 0.00034
24.65 0.00665
24.7 0.006
24.75 0.00412
24.8 0.00092
24.85 -0.00136
24.9 -0.00654
24.95 -0.00964
25 -0.0134
25.05 -0.01446
25.1 -0.01099
25.15 -0.00644
25.2 -0.00466
25.25 -0.00387
25.3 -0.00335
25.35 -0.00059
25.4 0.00517
25.45 0.00508
25.5 0.00139
25.55 -0.00281
25.6 -0.00233
25.65 -0.00174
25.7 0.00017
25.75 -0.00313
25.8 -0.00764
25.85 -0.00508
25.9 0.00176
25.95 0.00672
26 0.00759
26.05 0.00621
26.1 0.00431
26.15 0.00431
26.2 0.00188
26.25 -0.0012
26.3 -0.00015
26.35 -0.00393
26.4 -0.00688
26.45 -0.00476
26.5 0.00165
26.55 0.00185
26.6 0.00542
26.65 0.00278
26.7 0.00324
26.75 0.00347
26.8 0.00242
26.85 -0.00321
26.9 -0.00369
26.95 -0.0005
27 -0.00032
27.05 -0.00278
27.1 0.00016
27.15 0.00171
27.2 -0.00058
27.25 -0.00279
27.3 -0.0047
27.35 -0.00998
27.4 -0.01446
27.45 -0.0191
27.5 -0.0229
27.55 -0.02315
27.6 -0.02602
27.65 -0.02874
27.7 -0.0349
27.75 -0.03814
27.8 -0.04385
27.85 -0.05134
27.9 -0.0593
27.95 -0.06999
28 -0.07558
28.05 -0.08088
28.1 -0.09012
28.15 -0.10437
28.2 -0.12165
28.25 -0.13925
28.3 -0.15347
28.35 -0.1735
28.4 -0.19719
28.45 -0.22295
28.5 -0.25385
28.55 -0.28915
28.6 -0.32444
28.65 -0.36315
28.7 -0.40464
28.75 -0.44913
28.8 -0.4984
28.85 -0.55762
28.9 -0.61522
28.95 -0.67546
29 -0.74088
29.05 -0.80956
29.1 -0.88391
29.15 -0.95797
29.2 -1.03648
29.25 -1.1126
29.3 -1.18358
29.35 -1.25486
29.4 -1.32324
29.45 -1.387
29.5 -1.45385
29.55 -1.5194
29.6 -1.57767
29.65 -1.63057
29.7 -1.67279
29.75 -1.71117
29.8 -1.74495
29.85 -1.76971
29.9 -1.78654
29.95 -1.7926
30 -1.78327
30.05 -1.7601
30.1 -1.73117
30.15 -1.69433
30.2 -1.64114
30.25 -1.57635
30.3 -1.50287
30.35 -1.41974
30.4 -1.32728
30.45 -1.22892
30.5 -1.12329
30.55 -1.00951
30.6 -0.88488
30.65 -0.76033
30.7 -0.62755
30.75 -0.49326
30.8 -0.36261
30.85 -0.23005
30.9 -0.09719
30.95 0.03577
31 0.16642
31.05 0.29559
31.1 0.4119
31.15 0.52648
31.2 0.62866
31.25 0.72024
31.3 0.80786
31.35 0.88792
31.4 0.96283
31.45 1.02865
31.5 1.09253
31.55 1.15515
31.6 1.21164
31.65 1.25781
31.7 1.29422
31.75 1.33163
31.8 1.36159
31.85 1.39275
31.9 1.42036
31.95 1.44179
32 1.45735
32.05 1.46956
32.1 1.48252
32.15 1.48975
32.2 1.49797
32.25 1.5053
32.3 1.5062
32.35 1.50933
32.4 1.50476
32.45 1.49534
32.5 1.48817
32.55 1.47711
32.6 1.46508
32.65 1.45309
32.7 1.43813
32.75 1.43039
32.8 1.418
32.85 1.40661
32.9 1.39622
32.95 1.3812
33 1.36689
33.05 1.35036
33.1 1.32882
33.15 1.30644
33.2 1.28716
33.25 1.26662
33.3 1.23984
33.35 1.20696
33.4 1.17147
33.45 1.13775
33.5 1.10514
33.55 1.07576
33.6 1.04726
33.65 1.01824
33.7 0.98605
33.75 0.94532
33.8 0.90896
33.85 0.86873
33.9 0.82993
33.95 0.79324
34 0.7535
34.05 0.71408
34.1 0.67363
34.15 0.63037
34.2 0.59235
34.25 0.55992
34.3 0.52364
34.35 0.48475
34.4 0.44536
34.45 0.40702
34.5 0.36893
34.55 0.33772
34.6 0.30788
34.65 0.27979
34.7 0.25864
34.75 0.24094
34.8 0.22516
34.85 0.20306
34.9 0.17597
34.95 0.14706
35 0.12421
35.05 0.09995
35.1 0.07418
35.15 0.0478
35.2 0.02365
35.25 -0.00007
35.3 -0.02193
35.35 -0.0352
35.4 -0.04686
35.45 -0.05465
35.5 -0.06137
35.55 -0.07059
35.6 -0.08477
35.65 -0.10313
35.7 -0.11473
35.75 -0.1276
35.8 -0.13508
35.85 -0.14506
35.9 -0.15151
35.95 -0.15437
36 -0.1564
36.05 -0.15997
36.1 -0.16766
36.15 -0.17564
36.2 -0.1874
36.25 -0.19563
36.3 -0.20828
36.35 -0.21597
36.4 -0.226
36.45 -0.23733
36.5 -0.24452
36.55 -0.24753
36.6 -0.2486
36.65 -0.25175
36.7 -0.2508
36.75 -0.25038
36.8 -0.24621
36.85 -0.24687
36.9 -0.24318
36.95 -0.24486
37 -0.24448
37.05 -0.24805
37.1 -0.24594
37.15 -0.24294
37.2 -0.24553
37.25 -0.24232
37.3 -0.24346
37.35 -0.24827
37.4 -0.25173
37.45 -0.25038
37.5 -0.24587
37.55 -0.239
37.6 -0.22944
37.65 -0.2183
37.7 -0.21593
37.75 -0.2135
37.8 -0.20918
37.85 -0.20818
37.9 -0.207
37.95 -0.21056
38 -0.21171
38.05 -0.21069
38.1 -0.20523
38.15 -0.20519
38.2 -0.20722
38.25 -0.2097
38.3 -0.21214
38.35 -0.21677
38.4 -0.22103
38.45 -0.21675
38.5 -0.20662
38.55 -0.19703
38.6 -0.18584
38.65 -0.18179
38.7 -0.17851
38.75 -0.17652
38.8 -0.17478
38.85 -0.17714
38.9 -0.17714
38.95 -0.1784
39 -0.1812
39.05 -0.18357
39.1 -0.18721
39.15 -0.19001
39.2 -0.1839
39.25 -0.17252
39.3 -0.16671
39.35 -0.15988
39.4 -0.15635
39.45 -0.1503
39.5 -0.14964
39.55 -0.14689
39.6 -0.14517
39.65 -0.13853
39.7 -0.12978
39.75 -0.12214
39.8 -0.12113
39.85 -0.11873
39.9 -0.1151
39.95 -0.1169
40 -0.11767
40.05 -0.11402
40.1 -0.11454
40.15 -0.1113
40.2 -0.10565
40.25 -0.09897
40.3 -0.0914
40.35 -0.08512
40.4 -0.07941
40.45 -0.07651
40.5 -0.07315
40.55 -0.06826
40.6 -0.06253
40.65 -0.06006
40.7 -0.06594
40.75 -0.07252
40.8 -0.0767
40.85 -0.08154
40.9 -0.087
40.95 -0.08819
41 -0.08876
41.05 -0.08991
41.1 -0.08655
41.15 -0.08261
41.2 -0.08191
41.25 -0.07667
41.3 -0.0722
41.35 -0.06704
41.4 -0.06363
41.45 -0.06454
41.5 -0.06716
41.55 -0.07347
41.6 -0.07917
41.65 -0.07829
41.7 -0.07409
41.75 -0.07109
41.8 -0.06857
41.85 -0.06644
41.9 -0.06867
41.95 -0.07244
42 -0.07342
42.05 -0.06836
42.1 -0.06433
42.15 -0.06462
42.2 -0.06015
42.25 -0.05675
42.3 -0.05913
42.35 -0.06118
42.4 -0.06018
42.45 -0.05736
42.5 -0.05101
42.55 -0.04911
42.6 -0.04753
42.65 -0.0502
42.7 -0.05595
42.75 -0.06369
42.8 -0.07029
42.85 -0.07692
42.9 -0.07966
42.95 -0.07473
43 -0.06918
43.05 -0.06356
43.1 -0.05794
43.15 -0.051
43.2 -0.04238
43.25 -0.04054
43.3 -0.0378
43.35 -0.03392
43.4 -0.03165
43.45 -0.03394
43.5 -0.03387
43.55 -0.03872
43.6 -0.03813
43.65 -0.03705
43.7 -0.04092
43.75 -0.04538
43.8 -0.04724
43.85 -0.05043
43.9 -0.05238
43.95 -0.04858
44 -0.04863
44.05 -0.0516
44.1 -0.05484
44.15 -0.05933
44.2 -0.05511
44.25 -0.04808
44.3 -0.04322
44.35 -0.04239
44.4 -0.04089
44.45 -0.03521
44.5 -0.02765
44.55 -0.02243
44.6 -0.01475
44.65 -0.00879
44.7 -0.00278
44.75 -0.00288
44.8 -0.00245
44.85 -0.00752
44.9 -0.01329
44.95 -0.0209
45 -0.02704
45.05 -0.02784
45.1 -0.02948
45.15 -0.03451
45.2 -0.04121
45.25 -0.04357
45.3 -0.04431
45.35 -0.04485
45.4 -0.03961
45.45 -0.03868
45.5 -0.03593
45.55 -0.03296
45.6 -0.02983
45.65 -0.0264
45.7 -0.02591
45.75 -0.02856
45.8 -0.03376
45.85 -0.03123
45.9 -0.02676
45.95 -0.01914
46 -0.01299
46.05 -0.01265
46.1 -0.01222
46.15 -0.01559
46.2 -0.02139
46.25 -0.02516
46.3 -0.02693
46.35 -0.02837
46.4 -0.02728
46.45 -0.02573
46.5 -0.02808
46.55 -0.02712
46.6 -0.02434
46.65 -0.0219
46.7 -0.01972
46.75 -0.01992
46.8 -0.01763
46.85 -0.01795
46.9 -0.02054
46.95 -0.02218
47 -0.01975
47.05 -0.01567
47.1 -0.0169
47.15 -0.01829
47.2 -0.02109
47.25 -0.02609
47.3 -0.02718
47.35 -0.02767
47.4 -0.02746
47.45 -0.02616
47.5 -0.02723
47.55 -0.02258
47.6 -0.01537
47.65 -0.00712
47.7 -0.0005
47.75 -0.00005
47.8 0.0018
47.85 0.00441
47.9 0.00099
47.95 -0.00072
48 0.00125
48.05 -0.00074
48.1 -0.00713
48.15 -0.00915
48.2 -0.00997
48.25 -0.01026
48.3 -0.00942
48.35 -0.00735
48.4 -0.00348
48.45 0.00209
48.5 0.00709
48.55 0.00756
48.6 0.01113
48.65 0.00901
48.7 0.0112
48.75 0.01004
48.8 0.01207
48.85 0.01403
48.9 0.01054
48.95 0.00751
49 0.0044
49.05 -0.00075
49.1 -0.00643
49.15 -0.0097
49.2 -0.00945
49.25 -0.00622
49.3 -0.00495
49.35 -0.00827
49.4 -0.0134
49.45 -0.0152
49.5 -0.01607
49.55 -0.01079
49.6 -0.01107
49.65 -0.01389
49.7 -0.01932
49.75 -0.02576
49.8 -0.02538
49.85 -0.02152
49.9 -0.01302
49.95 -0.00368
50 -0.00134
50.05 0.00292
50.1 0.00354
50.15 0.00098
50.2 0.00232
50.25 0.00689
50.3 0.00602
50.35 0.00902
50.4 0.00794
50.45 0.00582
50.5 0.00514
50.55 0.00165
50.6 0.0013
50.65 0.00475
50.7 0.00476
50.75 0.0079
50.8 0.00976
50.85 0.01195
50.9 0.0121
50.95 0.00668
51 0.00542
51.05 0.00776
51.1 0.00442
51.15 -0.00164
51.2 -0.00889
51.25 -0.00953
51.3 -0.00839
51.35 -0.00627
51.4 -0.00252
51.45 -0.00481
51.5 -0.00242
51.55 -0.00015
51.6 -0.0012
51.65 -0.005
51.7 -0.01018
51.75 -0.00842
51.8 -0.00903
51.85 -0.00812
51.9 -0.00599
51.95 -0.00915
52 -0.01397
52.05 -0.01323
52.1 -0.00908
52.15 -0.00513
52.2 -0.00298
52.25 -0.0009
52.3 0.00328
52.35 0.00309
52.4 0.0032
52.45 0.00191
52.5 -0.00362
52.55 -0.00595
52.6 -0.00885
52.65 -0.01095
52.7 -0.01383
52.75 -0.01941
52.8 -0.02537
52.85 -0.03098
52.9 -0.03197
52.95 -0.02528
53 -0.0207
53.05 -0.01564
53.1 -0.00981
53.15 -0.00921
53.2 -0.01137
53.25 -0.00834
53.3 -0.00944
53.35 -0.01293
53.4 -0.01181
53.45 -0.00515
53.5 0.00204
53.55 0.00555
53.6 0.00844
53.65 0.00482
53.7 -0.0023
53.75 -0.0075
53.8 -0.01113
53.85 -0.01174
53.9 -0.01215
53.95 -0.01298
54 -0.01462
54.05 -0.01156
54.1 -0.01063
54.15 -0.00919
54.2 -0.00764
54.25 -0.0105
54.3 -0.00684
54.35 -0.00293
54.4 0.0024
54.45 0.00761
54.5 0.01205
54.55 0.01292
54.6 0.00837
54.65 0.00329
54.7 -0.00394
54.75 -0.00666
54.8 -0.00812
54.85 -0.00524
54.9 -0.00129
54.95 0.0059
55 0.01007
55.05 0.00741
55.1 0.0054
55.15 0.00085
55.2 -0.00111
55.25 -0.00322
55.3 -0.00052
55.35 0.00393
55.4 0.00584
55.45 0.00328
55.5 -0.00239
55.55 -0.00589
55.6 -0.00712
55.65 -0.00232
55.7 -0.00141
55.75 0.00423
55.8 0.0035
55.85 0.00128
55.9 -0.00036
55.95 -0.00409
56 -0.01029
56.05 -0.01513
56.1 -0.01916
56.15 -0.01866
56.2 -0.01771
56.25 -0.01052
56.3 -0.00461
56.35 0.00055
56.4 -0.00071
56.45 -0.0042
56.5 -0.00454
56.55 0.00064
56.6 0.00409
56.65 0.0087
56.7 0.0093
56.75 0.00979
56.8 0.01102
56.85 0.0145
56.9 0.01569
56.95 0.01573
57 0.01366
57.05 0.01101
57.1 0.01004
57.15 0.00739
57.2 0.0067
57.25 0.00957
57.3 0.01473
57.35 0.01651
57.4 0.01455
57.45 0.01225
57.5 0.00625
57.55 0.00587
57.6 0.00467
57.65 0.00642
57.7 0.00255
57.75 -0.00125
57.8 -0.0074
57.85 -0.01283
57.9 -0.01539
57.95 -0.01496
58 -0.01258
58.05 -0.01277
58.1 -0.00969
58.15 -0.00932
58.2 -0.01302
58.25 -0.01009
58.3 -0.00901
58.35 -0.00481
58.4 0.00314
58.45 0.0107
58.5 0.01847
58.55 0.02066
58.6 0.01906
58.65 0.01926
58.7 0.01347
58.75 0.01111
58.8 0.00926
58.85 0.00814
58.9 0.00571
58.95 0.00822
59 0.00541
59.05 0.00095
59.1 -0.00531
59.15 -0.00429
59.2 -0.00399
59.25 -0.00243
59.3 0.00348
59.35 0.00948
59.4 0.01072
59.45 0.01422
59.5 0.01153
59.55 0.01349
59.6 0.01556
59.65 0.01452
59.7 0.01095
59.75 0.0083
59.8 0.00883
59.85 0.00879
59.9 0.0037
59.95 -0.00117
60 -0.00298
60.05 -0.00818
60.1 -0.00697
60.15 -0.00316
60.2 0.00361
60.25 0.01232
60.3 0.01663
60.35 0.01787
60.4 0.0166
60.45 0.01335
60.5 0.00988
60.55 0.00396
60.6 0.00408
60.65 0.00096
60.7 0.00188
60.75 0.00584
60.8 0.0074
60.85 0.00723
60.9 0.00147
60.95 -0.0068
61 -0.0129
61.05 -0.0153
61.1 -0.01364
61.15 -0.01108
61.2 -0.00412
61.25 -0.00293
61.3 0.00158
61.35 0.00092
61.4 0.00066
61.45 0.00485
61.5 0.00444
61.55 0.00673
61.6 0.00307
61.65 0.00088
61.7 0.00272
61.75 0.0042
61.8 -0.00021
61.85 -0.00435
61.9 -0.00703
61.95 -0.013
62 -0.01412
62.05 -0.01833
62.1 -0.01982
62.15 -0.01488
62.2 -0.00798
62.25 -0.00376
62.3 0.0038
62.35 0.00774
62.4 0.00662
62.45 0.00415
62.5 -0.00081
62.55 -0.00063
62.6 -0.00348
62.65 -0.00422
62.7 -0.00609
62.75 -0.00755
62.8 -0.00864
62.85 -0.00857
62.9 -0.01266
62.95 -0.01355
63 -0.01495
63.05 -0.01072
63.1 -0.00481
63.15 -0.00461
63.2 -0.00057
63.25 0.00176
63.3 -0.00023
63.35 -0.00023
63.4 0.0016
63.45 0.0031
63.5 0.00041
63.55 0.00065
63.6 0.00251
63.65 0.00704
63.7 0.00554
63.75 0.00109
63.8 -0.004
63.85 -0.01057
63.9 -0.01246
63.95 -0.01597
64 -0.01463
64.05 -0.00937
64.1 -0.0096
64.15 -0.01215
64.2 -0.0095
64.25 -0.00935
64.3 -0.00469
64.35 -0.00377
64.4 -0.00471
64.45 -0.00826
64.5 -0.01061
64.55 -0.01012
64.6 -0.00874
64.65 -0.003
64.7 0.00557
64.75 0.01384
64.8 0.02111
64.85 0.02265
64.9 0.01996
64.95 0.0178
65 0.01378
65.05 0.01212
65.1 0.01486
65.15 0.01826
65.2 0.01817
65.25 0.01818
65.3 0.02095
65.35 0.01762
65.4 0.01279
65.45 0.01225
65.5 0.00584
65.55 0.00386
65.6 -0.00001
65.65 -0.00595
65.7 -0.01316
65.75 -0.02008
65.8 -0.02607
65.85 -0.02495
65.9 -0.02394
65.95 -0.02003
66 -0.0116
66.05 -0.00374
66.1 0.00254
66.15 0.00924
66.2 0.00775
66.25 0.00226
66.3 -0.00229
66.35 -0.00553
66.4 -0.01079
66.45 -0.0169
66.5 -0.02316
66.55 -0.02709
66.6 -0.02925
66.65 -0.03165
66.7 -0.02935
66.75 -0.02528
66.8 -0.01585
66.85 -0.00828
66.9 0.00039
66.95 0.00294
67 0.0089
67.05 0.0154
67.1 0.01912
67.15 0.0182
67.2 0.01307
67.25 0.00816
67.3 0.00753
67.35 0.00969
67.4 0.00691
67.45 0.00436
67.5 -0.00011
67.55 0.00119
67.6 -0.00272
67.65 -0.00871
67.7 -0.01484
67.75 -0.02184
67.8 -0.02541
67.85 -0.02975
67.9 -0.03006
67.95 -0.02479
68 -0.01471
68.05 -0.00784
68.1 -0.00624
68.15 -0.00051
68.2 -0.00068
68.25 0.00393
68.3 0.0109
68.35 0.01195
68.4 0.00899
68.45 0.01016
68.5 0.01132
68.55 0.01463
68.6 0.01813
68.65 0.01663
68.7 0.01571
68.75 0.00983
68.8 0.00884
68.85 0.00499
68.9 0.00255
68.95 0.00567
69 0.01085
69.05 0.01798
69.1 0.02082
69.15 0.01599
69.2 0.01637
69.25 0.01764
69.3 0.01347
69.35 0.00787
69.4 0.00544
69.45 0.00774
69.5 0.00834
69.55 0.01028
69.6 0.00703
69.65 0.00021
69.7 -0.00515
69.75 -0.00585
69.8 -0.00368
69.85 -0.00648
69.9 -0.00779
69.95 -0.01101
70 -0.01663
70.05 -0.02348
70.1 -0.02706
70.15 -0.02653
70.2 -0.02167
70.25 -0.01799
70.3 -0.01021
70.35 -0.00825
70.4 -0.00797
70.45 -0.00217
70.5 0.00651
70.55 0.01366
70.6 0.01464
70.65 0.00947
70.7 0.00284
70.75 -0.00019
70.8 0.00049
70.85 -0.00329
70.9 -0.00422
70.95 -0.00067
71 -0.00177
71.05 -0.00686
71.1 -0.01383
71.15 -0.01826
71.2 -0.02162
71.25 -0.02458
71.3 -0.02462
71.35 -0.02535
71.4 -0.0208
71.45 -0.01671
71.5 -0.01525
71.55 -0.01494
71.6 -0.01145
71.65 -0.00538
71.7 -0.00044
71.75 0.00069
71.8 0.00152
71.85 0.00105
71.9 0.00086
71.95 0.00337
72 0.00789
72.05 0.0092
72.1 0.01218
72.15 0.01564
72.2 0.01957
72.25 0.01774
72.3 0.01287
72.35 0.01192
72.4 0.01231
72.45 0.00754
72.5 0.00586
72.55 0.00524
72.6 0.00325
72.65 -0.00014
72.7 -0.00133
72.75 -0.00601
72.8 -0.00429
72.85 -0.00731
72.9 -0.00891
72.95 -0.00579
73 -0.0013
73.05 0.00231
73.1 0.00039
73.15 -0.0055
73.2 -0.01198
73.25 -0.0179
73.3 -0.02092
73.35 -0.02205
73.4 -0.01615
73.45 -0.00804
73.5 -0.00607
73.55 -0.00322
73.6 -0.0002
73.65 -0.00264
73.7 -0.00625
73.75 -0.00977
73.8 -0.0098
73.85 -0.01253
73.9 -0.01441
73.95 -0.01455
74 -0.01072
74.05 -0.00414
74.1 0.00175
74.15 0.00543
74.2 0.00921
74.25 0.01019
74.3 0.00671
74.35 0.00071
74.4 -0.00659
74.45 -0.01227
74.5 -0.01264
74.55 -0.0085
74.6 -0.00403
74.65 -0.00319
74.7 -0.00329
74.75 0.00171
74.8 0.0024
74.85 0.00731
74.9 0.01504
74.95 0.01457
75 0.01313
75.05 0.01564
75.1 0.01485
75.15 0.01386
75.2 0.00887
75.25 0.00513
75.3 0.00324
75.35 -0.00156
75.4 -0.00171
75.45 0.00051
75.5 -0.00155
75.55 -0.00368
75.6 0.00006
75.65 -0.00178
75.7 -0.00581
75.75 -0.00622
75.8 -0.00436
75.85 0.00057
75.9 0.00328
75.95 0.00464
76 0.00226
76.05 0.00494
76.1 0.00454
76.15 0.00458
76.2 0.00009
76.25 -0.00267
76.3 -0.00849
76.35 -0.0139
76.4 -0.01684
76.45 -0.01682
76.5 -0.01938
76.55 -0.0182
76.6 -0.01158
76.65 -0.00307
76.7 0.00481
76.75 0.00762
76.8 0.01055
76.85 0.0115
76.9 0.00765
76.95 0.00831
77 0.01058
77.05 0.01548
77.1 0.01282
77.15 0.01025
77.2 0.00486
77.25 0.00092
77.3 -0.00258
77.35 -0.00598
77.4 -0.01139
77.45 -0.01538
77.5 -0.01897
77.55 -0.01826
77.6 -0.01393
77.65 -0.00731
77.7 -0.00451
77.75 -0.00039
77.8 0.00212
77.85 0.00763
77.9 0.00879
77.95 0.00778
78 0.00491
78.05 -0.00183
78.1 -0.00718
78.15 -0.01219
78.2 -0.01658
78.25 -0.02149
78.3 -0.02661
78.35 -0.02425
78.4 -0.0209
78.45 -0.01924
78.5 -0.01132
78.55 -0.00625
78.6 -0.00401
78.65 -0.00133
78.7 0.0009
78.75 -0.00008
78.8 0.00409
78.85 0.00954
78.9 0.01127
78.95 0.00967
79 0.00431
79.05 0.00196
79.1 0.00383
79.15 0.00038
79.2 0.00165
79.25 0.0043
79.3 0.00655
79.35 0.00409
79.4 -0.00005
79.45 0.00236
79.5 0.00405
79.55 0.00378
79.6 0.00091
79.65 0.00347
79.7 0.00128
79.75 -0.00346
79.8 -0.00856
79.85 -0.0105
79.9 -0.01238
79.95 -0.0136
80 -0.0175
80.05 -0.01939
80.1 -0.0143
80.15 -0.00708
80.2 -0.00125
80.25 0.00136
80.3 0.0041
80.35 0.00278
80.4 0.00424
80.45 0.00341
80.5 0.00274
80.55 0.00049
80.6 -0.00214
80.65 -0.00587
80.7 -0.00388
80.75 -0.00174
80.8 0.00168
80.85 0.0083
80.9 0.0138
80.95 0.0174
81 0.01991
81.05 0.01556
81.1 0.00958
81.15 0.00995
81.2 0.0137
81.25 0.01361
81.3 0.01682
81.35 0.01762
81.4 0.01575
81.45 0.01137
81.5 0.0071
81.55 0.00434
81.6 -0.00093
81.65 -0.00202
81.7 -0.00386
81.75 -0.00727
81.8 -0.01297
81.85 -0.01689
81.9 -0.01702
81.95 -0.01868
82 -0.01944
82.05 -0.01529
82.1 -0.00867
82.15 -0.00698
82.2 -0.00249
82.25 0.00391
82.3 0.00715
82.35 0.00473
82.4 0.00014
82.45 -0.00007
82.5 -0.00213
82.55 -0.00608
82.6 -0.00667
82.65 -0.01061
82.7 -0.00836
82.75 -0.00778
82.8 -0.00416
82.85 -0.00273
82.9 0.00072
82.95 -0.00039
83 -0.00284
83.05 0.00107
83.1 0.00276
83.15 0.00599
83.2 0.00565
83.25 0.00565
83.3 0.00739
83.35 0.00814
83.4 0.01017
83.45 0.01146
83.5 0.00761
83.55 0.00311
83.6 0.00279
83.65 0.00048
83.7 -0.00036
83.75 0.0006
83.8 0.00025
83.85 -0.00032
83.9 -0.00185
83.95 0.00091
84 0.00027
84.05 -0.00364
84.1 -0.00796
84.15 -0.01154
84.2 -0.00764
84.25 0.00061
84.3 0.00893
84.35 0.01516
84.4 0.02212
84.45 0.02625
84.5 0.03142
84.55 0.0291
84.6 0.02977
84.65 0.0293
84.7 0.02212
84.75 0.01677
84.8 0.00801
84.85 -0.00228
84.9 -0.01296
84.95 -0.02093
85 -0.0274
85.05 -0.02618
85.1 -0.02523
85.15 -0.02162
85.2 -0.01342
85.25 -0.00601
85.3 -0.00133
85.35 0.00607
85.4 0.0099
85.45 0.01021
85.5 0.01238
85.55 0.01142
85.6 0.01151
85.65 0.01472
85.7 0.01919
85.75 0.02451
85.8 0.03013
85.85 0.02919
85.9 0.02825
85.95 0.02518
86 0.0178
86.05 0.01106
86.1 0.00457
86.15 -0.00461
86.2 -0.00856
86.25 -0.00596
86.3 -0.00644
86.35 -0.00924
86.4 -0.01007
86.45 -0.01289
86.5 -0.00893
86.55 -0.00087
86.6 0.00116
86.65 0.00505
86.7 0.00539
86.75 0.00351
86.8 0.00645
86.85 0.00954
86.9 0.00921
86.95 0.00541
87 0.00483
87.05 0.00749
87.1 0.01243
87.15 0.01026
87.2 0.01199
87.25 0.00885
87.3 0.00331
87.35 0.00191
87.4 0.00086
87.45 0.00052
87.5 0.00044
87.55 0.00414
87.6 0.00602
87.65 0.00826
87.7 0.00902
87.75 0.00956
87.8 0.0126
87.85 0.01699
87.9 0.01661
87.95 0.01846
88 0.02071
88.05 0.01803
88.1 0.01542
88.15 0.01691
88.2 0.0182
88.25 0.01709
88.3 0.01163
88.35 0.00624
88.4 0.00458
88.45 0.00254
88.5 -0.0038
88.55 -0.00771
88.6 -0.01267
88.65 -0.01482
88.7 -0.01868
88.75 -0.0234
88.8 -0.02122
88.85 -0.01539
88.9 -0.01529
88.95 -0.01696
89 -0.01457
89.05 -0.01142
89.1 -0.00595
89.15 -0.00661
89.2 -0.00864
89.25 -0.01156
89.3 -0.00839
89.35 -0.00316
89.4 0.00032
89.45 0.00186
89.5 0.00619
89.55 0.01098
89.6 0.01636
89.65 0.01938
89.7 0.02334
89.75 0.02499
89.8 0.02424
89.85 0.02482
89.9 0.02419
89.95 0.02001
90 0.01615
90.05 0.01573
90.1 0.01536
90.15 0.01606
90.2 0.01829
90.25 0.01887
90.3 0.0161
90.35 0.01106
90.4 0.00832
90.45 0.00277
90.5 -0.00139
90.55 -0.00821
90.6 -0.01113
90.65 -0.01222
90.7 -0.01504
90.75 -0.02061
90.8 -0.02167
90.85 -0.01686
90.9 -0.01419
90.95 -0.01532
91 -0.01636
91.05 -0.01304
91.1 -0.01081
91.15 -0.0095
91.2 -0.00354
91.25 0.00179
91.3 0.00372
91.35 0.00901
91.4 0.00746
91.45 0.00522
91.5 0.0024
91.55 0.00097
91.6 0.00403
91.65 0.00089
91.7 0.00043
91.75 -0.00327
91.8 -0.00294
91.85 -0.00062
91.9 0.00075
91.95 0.00066
92 -0.00221
92.05 -0.00265
92.1 -0.00153
92.15 0.00285
92.2 0.00719
92.25 0.00977
92.3 0.01303
92.35 0.01817
92.4 0.02261
92.45 0.02682
92.5 0.02507
92.55 0.0257
92.6 0.02787
92.65 0.02628
92.7 0.02678
92.75 0.02564
92.8 0.024
92.85 0.0238
92.9 0.02529
92.95 0.02318
93 0.01841
93.05 0.01691
93.1 0.01744
93.15 0.01472
93.2 0.01526
93.25 0.0175
93.3 0.01285
93.35 0.01173
93.4 0.00958
93.45 0.00882
93.5 0.00457
93.55 0.00131
93.6 -0.00155
93.65 -0.00643
93.7 -0.00831
93.75 -0.01418
93.8 -0.01597
93.85 -0.01697
93.9 -0.01621
93.95 -0.01758
94 -0.01956
94.05 -0.02313
94.1 -0.02064
94.15 -0.0195
94.2 -0.01939
94.25 -0.02298
94.3 -0.02899
94.35 -0.02974
94.4 -0.02454
94.45 -0.01899
94.5 -0.01181
94.55 -0.01111
94.6 -0.01026
94.65 -0.00573
94.7 -0.00247
94.75 0.00233
94.8 0.00598
94.85 0.01152
94.9 0.01651
94.95 0.01964
95 0.02279
95.05 0.01744
95.1 0.01051
95.15 0.0008
95.2 -0.00689
95.25 -0.00785
95.3 -0.00661
95.35 -0.00341
95.4 -0.00467
95.45 -0.00467
95.5 -0.00598
95.55 -0.00955
95.6 -0.00918
95.65 -0.01377
95.7 -0.01516
95.75 -0.01124
95.8 -0.00815
95.85 -0.00393
95.9 -0.00031
95.95 0.00041
96 -0.00238
96.05 -0.00623
96.1 -0.00458
96.15 -0.00462
96.2 -0.00155
96.25 -0.00468
96.3 -0.00893
96.35 -0.01026
96.4 -0.00813
96.45 -0.01001
96.5 -0.01414
96.55 -0.01822
96.6 -0.02159
96.65 -0.01972
96.7 -0.01649
96.75 -0.01251
96.8 -0.00702
96.85 -0.00006
96.9 0.00666
96.95 0.01307
97 0.01337
97.05 0.00977
97.1 0.00318
97.15 0.00213
97.2 -0.00208
97.25 -0.0072
97.3 -0.00584
97.35 -0.00736
97.4 -0.00526
97.45 -0.00248
97.5 -0.00408
97.55 -0.00672
97.6 -0.00569
97.65 -0.00836
97.7 -0.0072
97.75 -0.00664
97.8 -0.0092
97.85 -0.00882
97.9 -0.00878
97.95 -0.0131
98 -0.01313
98.05 -0.0131
98.1 -0.01665
98.15 -0.01812
98.2 -0.01677
98.25 -0.01164
98.3 -0.00653
98.35 -0.00761
98.4 -0.00793
98.45 -0.00412
98.5 -0.00563
98.55 -0.00343
98.6 -0.00221
98.65 -0.00534
98.7 -0.01126
98.75 -0.01905
98.8 -0.01907
98.85 -0.01592
98.9 -0.01029
98.95 -0.01042
99 -0.00941
99.05 -0.01253
99.1 -0.01314
99.15 -0.0156
99.2 -0.01281
99.25 -0.01052
99.3 -0.00472
99.35 -0.00305
99.4 -0.00018
99.45 0.00597
99.5 0.00829
99.55 0.00627
99.6 0.00563
99.65 0.00933
99.7 0.01507
99.75 0.02103
99.8 0.02606
99.85 0.0264
99.9 0.02597
99.95 0.02186
