0 0
0.05 0.00098
0.1 0.0038
0.15 0.0138
0.2 0.0257
0.25 0.03934
0.3 0.04488
0.35 0.04673
0.4 0.04417
0.45 0.043
0.5 0.04411
0.55 0.04838
0.6 0.05077
0.65 0.0515
0.7 0.05396
0.75 0.05604
0.8 0.05909
0.85 0.06447
0.9 0.06321
0.95 0.0627
1 0.062
1.05 0.058
1.1 0.05119
1.15 0.05039
1.2 0.05058
1.25 0.04545
1.3 0.03826
1.35 0.03076
1.4 0.02542
1.45 0.0212
1.5 0.01557
1.55 0.01501
1.6 0.01619
1.65 0.01577
1.7 0.02133
1.75 0.02637
1.8 0.02863
1.85 0.02748
1.9 0.02337
1.95 0.02351
2 0.02746
2.05 0.02836
2.1 0.02699
2.15 0.02765
2.2 0.02418
2.25 0.0181
2.3 0.01545
2.35 0.01773
2.4 0.01777
2.45 0.01448
2.5 0.01629
2.55 0.02192
2.6 0.02819
2.65 0.03578
2.7 0.04288
2.75 0.04409
2.8 0.042
2.85 0.04311
2.9 0.04302
2.95 0.03818
3 0.03412
3.05 0.02814
3.1 0.02837
3.15 0.02781
3.2 0.02654
3.25 0.02612
3.3 0.02218
3.35 0.01818
3.4 0.01977
3.45 0.02181
3.5 0.02343
3.55 0.02103
3.6 0.01709
3.65 0.01078
3.7 0.00813
3.75 0.01131
3.8 0.01002
3.85 0.00775
3.9 0.00333
3.95 0.00196
4 0.00076
4.05 0.00166
4.1 0.00456
4.15 0.01064
4.2 0.01701
4.25 0.01681
4.3 0.01665
4.35 0.01368
4.4 0.01308
4.45 0.00887
4.5 0.00276
4.55 -0.01124
4.6 -0.02368
4.65 -0.03724
4.7 -0.05303
4.75 -0.07417
4.8 -0.09561
4.85 -0.12319
4.9 -0.15965
4.95 -0.19526
5 -0.23839
5.05 -0.28157
5.1 -0.32857
5.15 -0.38202
5.2 -0.44416
5.25 -0.5158
5.3 -0.59225
5.35 -0.67361
5.4 -0.75703
5.45 -0.84216
5.5 -0.93072
5.55 -1.02056
5.6 -1.11486
5.65 -1.20875
5.7 -1.3074
5.75 -1.40676
5.8 -1.50359
5.85 -1.59653
5.9 -1.68641
5.95 -1.77484
6 -1.85987
6.05 -1.94783
6.1 -2.0324
6.15 -2.11392
6.2 -2.1913
6.25 -2.26212
6.3 -2.32561
6.35 -2.38316
6.4 -2.42822
6.45 -2.463
6.5 -2.48724
6.55 -2.50975
6.6 -2.52673
6.65 -2.53003
6.7 -2.51932
6.75 -2.49808
6.8 -2.45935
6.85 -2.40367
6.9 -2.33766
6.95 -2.25008
7 -2.14968
7.05 -2.02847
7.1 -1.89042
7.15 -1.74001
7.2 -1.58146
7.25 -1.40968
7.3 -1.22872
7.35 -1.04205
7.4 -0.84598
7.45 -0.64336
7.5 -0.43512
7.55 -0.22482
7.6 -0.01507
7.65 0.18459
7.7 0.37793
7.75 0.56525
7.8 0.74106
7.85 0.90809
7.9 1.06942
7.95 1.22078
8 1.36073
8.05 1.49148
8.1 1.61192
8.15 1.71635
8.2 1.80914
8.25 1.8927
8.3 1.96405
8.35 2.03009
8.4 2.0819
8.45 2.12532
8.5 2.16184
8.55 2.19298
8.6 2.21215
8.65 2.22307
8.7 2.22976
8.75 2.23275
8.8 2.23288
8.85 2.22824
8.9 2.22576
8.95 2.21849
9 2.2057
9.05 2.19043
9.1 2.17291
9.15 2.1532
9.2 2.13106
9.25 2.11383
9.3 2.0975
9.35 2.07549
9.4 2.05666
9.45 2.03178
9.5 2.00966
9.55 1.98177
9.6 1.95004
9.65 1.92448
9.7 1.89441
9.75 1.861
9.8 1.83025
9.85 1.79981
9.9 1.77189
9.95 1.73712
10 1.70184
10.05 1.66928
10.1 1.63175
10.15 1.58927
10.2 1.54865
10.25 1.50318
10.3 1.45826
10.35 1.41694
10.4 1.37881
10.45 1.33338
10.5 1.28416
10.55 1.23189
10.6 1.17806
10.65 1.12475
10.7 1.07952
10.75 1.03461
10.8 0.98952
10.85 0.94927
10.9 0.90775
10.95 0.86518
11 0.82045
11.05 0.772
11.1 0.72841
11.15 0.68044
11.2 0.6318
11.25 0.58752
11.3 0.54692
11.35 0.50926
11.4 0.47357
11.45 0.43812
11.5 0.39672
11.55 0.3514
11.6 0.30444
11.65 0.25765
11.7 0.21446
11.75 0.17291
11.8 0.14022
11.85 0.10746
11.9 0.07703
11.95 0.04594
12 0.01875
12.05 -0.00364
12.1 -0.02674
12.15 -0.053
12.2 -0.0788
12.25 -0.09862
12.3 -0.12192
12.35 -0.14129
12.4 -0.16325
12.45 -0.18102
12.5 -0.19811
12.55 -0.21721
12.6 -0.23042
12.65 -0.24423
12.7 -0.25208
12.75 -0.26367
12.8 -0.27415
12.85 -0.28397
12.9 -0.29494
12.95 -0.30564
13 -0.31843
13.05 -0.32869
13.1 -0.34008
13.15 -0.34376
13.2 -0.34466
13.25 -0.34567
13.3 -0.34934
13.35 -0.3494
13.4 -0.34979
13.45 -0.35382
13.5 -0.36228
13.55 -0.37055
13.6 -0.37282
13.65 -0.37289
13.7 -0.37316
13.75 -0.37398
13.8 -0.37276
13.85 -0.36777
13.9 -0.36151
13.95 -0.36119
14 -0.35879
14.05 -0.36032
14.1 -0.36139
14.15 -0.36354
14.2 -0.3631
14.25 -0.3656
14.3 -0.36932
14.35 -0.37267
14.4 -0.36824
14.45 -0.35997
14.5 -0.35033
14.55 -0.33919
14.6 -0.33319
14.65 -0.3303
14.7 -0.32427
14.75 -0.32352
14.8 -0.32256
14.85 -0.32054
14.9 -0.31701
14.95 -0.31688
15 -0.31854
15.05 -0.31996
15.1 -0.31288
15.15 -0.30401
15.2 -0.29219
15.25 -0.28251
15.3 -0.27836
15.35 -0.27682
15.4 -0.27337
15.45 -0.27052
15.5 -0.26943
15.55 -0.26326
15.6 -0.26034
15.65 -0.2525
15.7 -0.24875
15.75 -0.24339
15.8 -0.23527
15.85 -0.23331
15.9 -0.23369
15.95 -0.23482
16 -0.23025
16.05 -0.22825
16.1 -0.22541
16.15 -0.22505
16.2 -0.21989
16.25 -0.21864
16.3 -0.21159
16.35 -0.20466
16.4 -0.19739
16.45 -0.19248
16.5 -0.18841
16.55 -0.18241
16.6 -0.17438
16.65 -0.16487
16.7 -0.15677
16.75 -0.15321
16.8 -0.15473
16.85 -0.15573
16.9 -0.15819
16.95 -0.15566
17 -0.15521
17.05 -0.15219
17.1 -0.15363
17.15 -0.15182
17.2 -0.14754
17.25 -0.14048
17.3 -0.13798
17.35 -0.14115
17.4 -0.1465
17.45 -0.15148
17.5 -0.15617
17.55 -0.15551
17.6 -0.15079
17.65 -0.14495
17.7 -0.13994
17.75 -0.13308
17.8 -0.12675
17.85 -0.12416
17.9 -0.12164
17.95 -0.12149
18 -0.11925
18.05 -0.11859
18.1 -0.11303
18.15 -0.10736
18.2 -0.09948
18.25 -0.09295
18.3 -0.0881
18.35 -0.0887
18.4 -0.09321
18.45 -0.09935
18.5 -0.10483
18.55 -0.10429
18.6 -0.10109
18.65 -0.09827
18.7 -0.09305
18.75 -0.09422
18.8 -0.09748
18.85 -0.09807
18.9 -0.09501
18.95 -0.0916
19 -0.08515
19.05 -0.07712
19.1 -0.07462
19.15 -0.07397
19.2 -0.07708
19.25 -0.08309
19.3 -0.09102
19.35 -0.0966
19.4 -0.09836
19.45 -0.09725
19.5 -0.09327
19.55 -0.0925
19.6 -0.09387
19.65 -0.09122
19.7 -0.08705
19.75 -0.07993
19.8 -0.07361
19.85 -0.07267
19.9 -0.07212
19.95 -0.06702
20 -0.06209
20.05 -0.06092
20.1 -0.06072
20.15 -0.0571
20.2 -0.05497
20.25 -0.054
20.3 -0.05167
20.35 -0.04778
20.4 -0.0487
20.45 -0.0491
20.5 -0.05203
20.55 -0.05275
20.6 -0.04917
20.65 -0.05083
20.7 -0.0544
20.75 -0.06042
20.8 -0.06201
20.85 -0.06611
20.9 -0.06604
20.95 -0.06754
21 -0.06374
21.05 -0.05646
21.1 -0.04873
21.15 -0.04374
21.2 -0.03857
21.25 -0.03365
21.3 -0.03028
21.35 -0.02827
21.4 -0.03132
21.45 -0.03563
21.5 -0.0379
21.55 -0.03778
21.6 -0.03574
21.65 -0.03524
21.7 -0.0347
21.75 -0.03573
21.8 -0.03519
21.85 -0.03243
21.9 -0.0333
21.95 -0.03696
22 -0.03479
22.05 -0.03603
22.1 -0.03519
22.15 -0.03668
22.2 -0.03842
22.25 -0.0422
22.3 -0.04324
22.35 -0.03836
22.4 -0.0324
22.45 -0.03193
22.5 -0.02733
22.55 -0.02064
22.6 -0.0215
22.65 -0.02479
22.7 -0.02878
22.75 -0.02834
22.8 -0.03122
22.85 -0.0294
22.9 -0.02742
22.95 -0.0257
23 -0.02665
23.05 -0.02582
23.1 -0.02305
23.15 -0.02228
23.2 -0.01733
23.25 -0.01097
23.3 -0.00663
23.35 -0.00331
23.4 -0.00183
23.45 0.00122
23.5 -0.00148
23.55 -0.00717
23.6 -0.01284
23.65 -0.01359
23.7 -0.01855
23.75 -0.02187
23.8 -0.0239
23.85 -0.02274
23.9 -0.02597
23.95 -0.0237
24 -0.02597
24.05 -0.0263
24.1 -0.02154
24.15 -0.0187
24.2 -0.01558
24.25 -0.01499
24.3 -0.01184
24.35 -0.01043
24.4 -0.01441
24.45 -0.01757
24.5 -0.01972
24.55 -0.01791
24.6 -0.01328
24.65 -0.00884
24.7 -0.00753
24.75 -0.00916
24.8 -0.0078
24.85 -0.00899
24.9 -0.00931
24.95 -0.00957
25 -0.00742
25.05 -0.00984
25.1 -0.01471
25.15 -0.01666
25.2 -0.01362
25.25 -0.0086
25.3 -0.00151
25.35 0.00348
25.4 0.00502
25.45 0.00868
25.5 0.01055
25.55 0.01271
25.6 0.0086
25.65 0.00657
25.7 0.00339
25.75 0.00406
25.8 0.00181
25.85 -0.00166
25.9 -0.00367
25.95 -0.00351
26 -0.00659
26.05 -0.01066
26.1 -0.0115
26.15 -0.01471
26.2 -0.01568
26.25 -0.01739
26.3 -0.01698
26.35 -0.01386
26.4 -0.00771
26.45 -0.00807
26.5 -0.01092
26.55 -0.01118
26.6 -0.0132
26.65 -0.01879
26.7 -0.0246
26.75 -0.02285
26.8 -0.02276
26.85 -0.02552
26.9 -0.02725
26.95 -0.02386
27 -0.02097
27.05 -0.01602
27.1 -0.01345
27.15 -0.01136
27.2 -0.00811
27.25 -0.01005
27.3 -0.00932
27.35 -0.01064
27.4 -0.01139
27.45 -0.01206
27.5 -0.01266
27.55 -0.0081
27.6 -0.00558
27.65 -0.0058
27.7 -0.00183
27.75 -0.00088
27.8 0.00069
27.85 0.00343
27.9 0.00409
27.95 0.00272
28 -0.00032
28.05 -0.00302
28.1 -0.00335
28.15 -0.00852
28.2 -0.0075
28.25 -0.01007
28.3 -0.00936
28.35 -0.0131
28.4 -0.01297
28.45 -0.01045
28.5 -0.00749
28.55 -0.0036
28.6 0.0017
28.65 0.00364
28.7 0.00502
28.75 0.00255
28.8 0.00465
28.85 0.00767
28.9 0.00562
28.95 0.00526
29 0.00312
29.05 0.00289
29.1 0.005
29.15 0.00343
29.2 0.00496
29.25 0.00119
29.3 -0.00257
29.35 -0.00899
29.4 -0.01186
29.45 -0.0133
29.5 -0.01777
29.55 -0.0203
29.6 -0.02174
29.65 -0.02018
29.7 -0.01522
29.75 -0.00874
29.8 -0.00418
29.85 -0.00248
29.9 0.00243
29.95 0.00686
30 0.00797
30.05 0.00579
30.1 0.00074
30.15 -0.00104
30.2 0.00121
30.25 0.00439
30.3 0.007
30.35 0.0104
30.4 0.01322
30.45 0.01351
30.5 0.00887
30.55 0.00591
30.6 0.00436
30.65 0.00216
30.7 -0.00336
30.75 -0.00928
30.8 -0.01422
30.85 -0.01785
30.9 -0.01996
30.95 -0.02294
31 -0.02196
31.05 -0.02277
31.1 -0.02105
31.15 -0.02105
31.2 -0.02351
31.25 -0.0255
31.3 -0.02846
31.35 -0.03153
31.4 -0.03293
31.45 -0.03491
31.5 -0.03698
31.55 -0.03478
31.6 -0.03278
31.65 -0.02617
31.7 -0.01589
31.75 -0.01042
31.8 -0.00457
31.85 0.00379
31.9 0.00905
31.95 0.01346
32 0.01935
32.05 0.02342
32.1 0.02617
32.15 0.02884
32.2 0.03236
32.25 0.03523
32.3 0.034
32.35 0.02572
32.4 0.01961
32.45 0.01123
32.5 0.00028
32.55 -0.00856
32.6 -0.01773
32.65 -0.02426
32.7 -0.02351
32.75 -0.02336
32.8 -0.01884
32.85 -0.01889
32.9 -0.01409
32.95 -0.00656
33 0.00171
33.05 0.00961
33.1 0.01251
33.15 0.01166
33.2 0.0106
33.25 0.00683
33.3 0.00082
33.35 -0.0051
33.4 -0.0054
33.45 -0.00837
33.5 -0.00559
33.55 -0.00265
33.6 -0.00249
33.65 -0.00247
33.7 0.00021
33.75 0.005
33.8 0.00947
33.85 0.00897
33.9 0.00585
33.95 0.00316
34 -0.00302
34.05 -0.00519
34.1 -0.00951
34.15 -0.01385
34.2 -0.01178
34.25 -0.01403
34.3 -0.01156
34.35 -0.01236
34.4 -0.01625
34.45 -0.01501
34.5 -0.01517
34.55 -0.01517
34.6 -0.00981
34.65 -0.00112
34.7 0.00602
34.75 0.00569
34.8 0.00419
34.85 0.0025
34.9 0.00303
34.95 0.00087
35 -0.00239
35.05 -0.00829
35.1 -0.0101
35.15 -0.01408
35.2 -0.01559
35.25 -0.01408
35.3 -0.0093
35.35 -0.0052
35.4 -0.00218
35.45 -0.00043
35.5 0.0017
35.55 0.00739
35.6 0.00615
35.65 0.00632
35.7 0.00838
35.75 0.00691
35.8 0.00973
35.85 0.01286
35.9 0.01462
35.95 0.01867
36 0.02067
36.05 0.01798
36.1 0.011
36.15 0.00971
36.2 0.01245
36.25 0.00932
36.3 0.01074
36.35 0.01466
36.4 0.02026
36.45 0.02633
36.5 0.02581
36.55 0.02747
36.6 0.02648
36.65 0.02576
36.7 0.02601
36.75 0.02543
36.8 0.02676
36.85 0.02888
36.9 0.0228
36.95 0.02088
37 0.01298
37.05 0.00819
37.1 0.00043
37.15 -0.00145
37.2 -0.00416
37.25 -0.00157
37.3 -0.00167
37.35 0.00113
37.4 0.00628
37.45 0.0071
37.5 0.00687
37.55 0.00889
37.6 0.01309
37.65 0.01154
37.7 0.00903
37.75 0.00403
37.8 -0.00152
37.85 -0.00986
37.9 -0.01274
37.95 -0.01766
38 -0.02196
38.05 -0.02594
38.1 -0.03074
38.15 -0.03566
38.2 -0.03514
38.25 -0.02796
38.3 -0.02472
38.35 -0.01656
38.4 -0.01479
38.45 -0.01037
38.5 -0.01163
38.55 -0.01032
38.6 -0.01058
38.65 -0.01088
38.7 -0.01245
38.75 -0.00951
38.8 -0.00709
38.85 -0.00183
38.9 0.00368
38.95 0.00815
39 0.01385
39.05 0.01341
39.1 0.01352
39.15 0.00754
39.2 0.00518
39.25 0.00184
39.3 -0.00472
39.35 -0.01135
39.4 -0.01725
39.45 -0.01883
39.5 -0.01704
39.55 -0.01908
39.6 -0.01468
39.65 -0.01252
39.7 -0.00754
39.75 -0.00371
39.8 -0.00517
39.85 -0.00698
39.9 -0.00834
39.95 -0.01218
40 -0.00953
40.05 -0.00432
40.1 -0.00351
40.15 -0.0001
40.2 -0.00231
40.25 -0.0034
40.3 -0.00388
40.35 -0.00046
40.4 0.00544
40.45 0.0076
40.5 0.00364
40.55 0.00253
40.6 -0.00272
40.65 -0.01031
40.7 -0.01559
40.75 -0.01747
40.8 -0.01493
40.85 -0.00839
40.9 -0.00734
40.95 -0.00372
41 0.00068
41.05 0.00264
41.1 0.00435
41.15 0.00465
41.2 0.00553
41.25 0.00403
41.3 0.00226
41.35 0.00053
41.4 -0.0019
41.45 -0.00532
41.5 -0.0099
41.55 -0.01111
41.6 -0.0108
41.65 -0.01253
41.7 -0.00864
41.75 -0.00104
41.8 0.00051
41.85 0.00454
41.9 0.01006
41.95 0.00859
42 0.00307
42.05 -0.00092
42.1 -0.00083
42.15 0.00144
42.2 0.0029
42.25 0.00048
42.3 -0.00459
42.35 -0.00292
42.4 0.00226
42.45 0.00214
42.5 -0.00099
42.55 -0.0048
42.6 -0.00386
42.65 0.00121
42.7 0.00656
42.75 0.01094
42.8 0.00921
42.85 0.00995
42.9 0.00657
42.95 0.00149
43 -0.00219
43.05 -0.00402
43.1 -0.00866
43.15 -0.01391
43.2 -0.01401
43.25 -0.01083
43.3 -0.00768
43.35 -0.00921
43.4 -0.00699
43.45 -0.00213
43.5 0.00479
43.55 0.00608
43.6 0.00597
43.65 0.00954
43.7 0.01305
43.75 0.01002
43.8 0.00953
43.85 0.00576
43.9 0.00652
43.95 0.01026
44 0.01437
44.05 0.01616
44.1 0.01188
44.15 0.00488
44.2 -0.00176
44.25 -0.00245
44.3 -0.00505
44.35 -0.00337
44.4 -0.00415
44.45 -0.00532
44.5 -0.00694
44.55 -0.00471
44.6 -0.00193
44.65 0.00122
44.7 0.00479
44.75 0.00309
44.8 0.00419
44.85 0.00424
44.9 0.00696
44.95 0.00561
45 0.00293
45.05 0.0008
45.1 0.00108
45.15 0.00554
45.2 0.00991
45.25 0.01551
45.3 0.01572
45.35 0.01296
45.4 0.01286
45.45 0.01344
45.5 0.01149
45.55 0.01077
45.6 0.00495
45.65 0.00313
45.7 0.00253
45.75 0.00008
45.8 -0.00398
45.85 -0.005
45.9 -0.00278
45.95 -0.00008
46 0.00454
46.05 0.00292
46.1 -0.00299
46.15 -0.00998
46.2 -0.01462
46.25 -0.01967
46.3 -0.02139
46.35 -0.01913
46.4 -0.0181
46.45 -0.01522
46.5 -0.00884
46.55 -0.00366
46.6 -0.00356
46.65 -0.00122
46.7 -0.0019
46.75 -0.00551
46.8 -0.00787
46.85 -0.00996
46.9 -0.00833
46.95 -0.00257
47 -0.00164
47.05 -0.00412
47.1 -0.00295
47.15 -0.00116
47.2 -0.00091
47.25 -0.00369
47.3 -0.0081
47.35 -0.01045
47.4 -0.01495
47.45 -0.01759
47.5 -0.01714
47.55 -0.01721
47.6 -0.01504
47.65 -0.01569
47.7 -0.01538
47.75 -0.01601
47.8 -0.01801
47.85 -0.01868
47.9 -0.01943
47.95 -0.01521
48 -0.0076
48.05 -0.00367
48.1 0.00134
48.15 0.00356
48.2 0.00569
48.25 0.00771
48.3 0.00481
48.35 -0.00099
48.4 -0.00213
48.45 -0.00628
48.5 -0.01001
48.55 -0.01399
48.6 -0.01358
48.65 -0.01346
48.7 -0.01224
48.75 -0.01271
48.8 -0.00988
48.85 -0.00714
48.9 -0.0076
48.95 -0.00975
49 -0.0066
49.05 -0.00062
49.1 0.00407
49.15 0.00807
49.2 0.01245
49.25 0.01729
49.3 0.02332
49.35 0.02167
49.4 0.0187
49.45 0.01254
49.5 0.00782
49.55 0.00081
49.6 -0.00172
49.65 -0.00483
49.7 -0.0038
49.75 -0.00363
49.8 -0.00325
49.85 -0.00554
49.9 -0.01096
49.95 -0.01196
50 -0.0124
50.05 -0.00965
50.1 -0.00434
50.15 -0.0024
50.2 -0.00023
50.25 0.0039
50.3 0.00633
50.35 0.00334
50.4 -0.00097
50.45 -0.00173
50.5 0.00083
50.55 0.00268
50.6 0.00684
50.65 0.01209
50.7 0.01874
50.75 0.02077
50.8 0.02251
50.85 0.02602
50.9 0.02351
50.95 0.024
51 0.02661
51.05 0.0232
51.1 0.01641
51.15 0.00718
51.2 0.00158
51.25 -0.00505
51.3 -0.01253
51.35 -0.01483
51.4 -0.0111
51.45 -0.00856
51.5 -0.00884
51.55 -0.01222
51.6 -0.01677
51.65 -0.02246
51.7 -0.02679
51.75 -0.02277
51.8 -0.02144
51.85 -0.01829
51.9 -0.01313
51.95 -0.01102
52 -0.0089
52.05 -0.00917
52.1 -0.01116
52.15 -0.0101
52.2 -0.01211
52.25 -0.00951
52.3 -0.00342
52.35 -0.00124
52.4 0.00491
52.45 0.00488
52.5 0.00437
52.55 0.008
52.6 0.00997
52.65 0.00778
52.7 0.00127
52.75 -0.0008
52.8 -0.0038
52.85 -0.00645
52.9 -0.00966
52.95 -0.01505
53 -0.01382
53.05 -0.01219
53.1 -0.00742
53.15 -0.00419
53.2 -0.00449
53.25 -0.00069
53.3 0.00614
53.35 0.00574
53.4 0.00467
53.45 0.00192
53.5 -0.00078
53.55 0.00092
53.6 0.00416
53.65 0.0058
53.7 0.00884
53.75 0.01448
53.8 0.01915
53.85 0.02159
53.9 0.02009
53.95 0.01573
54 0.009
54.05 0.00519
54.1 -0.00056
54.15 0.00046
54.2 0.00074
54.25 0.0033
54.3 0.00264
54.35 0.00558
54.4 0.00986
54.45 0.00755
54.5 0.00127
54.55 -0.00021
54.6 -0.00121
54.65 0.00215
54.7 0.00871
54.75 0.00766
54.8 0.00221
54.85 -0.00065
54.9 0.00044
54.95 0.00049
55 -0.00414
55.05 -0.0068
55.1 -0.00784
55.15 -0.01224
55.2 -0.01482
55.25 -0.01688
55.3 -0.01626
55.35 -0.01569
55.4 -0.00959
55.45 -0.00311
55.5 0.00175
55.55 0.00439
55.6 0.00786
55.65 0.00749
55.7 0.01066
55.75 0.01386
55.8 0.012
55.85 0.00648
55.9 0.00576
55.95 0.00651
56 0.00435
56.05 0.00317
56.1 0.00527
56.15 0.00593
56.2 0.00533
56.25 0.00758
56.3 0.008
56.35 0.00504
56.4 0.00342
56.45 0.00174
56.5 0.00196
56.55 0.00002
56.6 -0.00331
56.65 -0.00088
56.7 0.00036
56.75 0.00363
56.8 0.00402
56.85 0.00075
56.9 -0.0031
56.95 -0.004
57 -0.002
57.05 -0.00222
57.1 -0.00521
57.15 -0.00357
57.2 -0.00501
57.25 -0.00145
57.3 0.0012
57.35 0.00594
57.4 0.00424
57.45 0.00197
57.5 0.00191
57.55 0.00128
57.6 0.00402
57.65 0.00923
57.7 0.01584
57.75 0.01501
57.8 0.01504
57.85 0.01293
57.9 0.00583
57.95 0.00121
58 -0.00457
58.05 -0.00369
58.1 -0.00653
58.15 -0.00664
58.2 -0.00193
58.25 0.00263
58.3 0.00712
58.35 0.01102
58.4 0.01154
58.45 0.00683
58.5 0.00228
58.55 -0.00258
58.6 -0.00593
58.65 -0.00997
58.7 -0.01379
58.75 -0.01609
58.8 -0.01598
58.85 -0.01418
58.9 -0.01275
58.95 -0.00842
59 -0.00699
59.05 -0.0017
59.1 0.00492
59.15 0.00712
59.2 0.00349
59.25 0.00184
59.3 -0.00084
59.35 -0.00269
59.4 -0.00756
59.45 -0.01129
59.5 -0.01642
59.55 -0.01473
59.6 -0.01155
59.65 -0.01
59.7 -0.00772
59.75 -0.0043
59.8 0.00073
59.85 0.00565
59.9 0.00697
59.95 0.00345
60 -0.00123
60.05 -0.00662
60.1 -0.01296
60.15 -0.0146
60.2 -0.01899
60.25 -0.0202
60.3 -0.02213
60.35 -0.01809
60.4 -0.01825
60.45 -0.01752
60.5 -0.01812
60.55 -0.01843
60.6 -0.01687
60.65 -0.01115
60.7 -0.00219
60.75 0.00778
60.8 0.00924
60.85 0.0109
60.9 0.01184
60.95 0.01463
61 0.01838
61.05 0.01744
61.1 0.01492
61.15 0.00802
61.2 0.00125
61.25 -0.00258
61.3 -0.00614
61.35 -0.01148
61.4 -0.01574
61.45 -0.01649
61.5 -0.01947
61.55 -0.02084
61.6 -0.01864
61.65 -0.0151
61.7 -0.0135
61.75 -0.00854
61.8 -0.00017
61.85 0.00459
61.9 0.00873
61.95 0.01385
62 0.01897
62.05 0.02191
62.1 0.02357
62.15 0.02664
62.2 0.02303
62.25 0.01545
62.3 0.00977
62.35 0.00338
62.4 -0.00027
62.45 0.00065
62.5 0.00486
62.55 0.00874
62.6 0.01079
62.65 0.01047
62.7 0.01165
62.75 0.01199
62.8 0.015
62.85 0.01366
62.9 0.01037
62.95 0.00351
63 -0.0034
63.05 -0.00581
63.1 -0.0096
63.15 -0.01075
63.2 -0.01065
63.25 -0.00841
63.3 -0.00185
63.35 0.00166
63.4 0.00095
63.45 -0.00336
63.5 -0.00696
63.55 -0.011
63.6 -0.01277
63.65 -0.00959
63.7 -0.0048
63.75 0.00133
63.8 0.00343
63.85 0.00595
63.9 0.01083
63.95 0.00995
64 0.01204
64.05 0.01172
64.1 0.01347
64.15 0.00892
64.2 0.00303
64.25 -0.00033
64.3 0.00141
64.35 0.00429
64.4 0.00405
64.45 0.00291
64.5 0.00418
64.55 0.00832
64.6 0.00567
64.65 0.0011
64.7 -0.00387
64.75 -0.00911
64.8 -0.00843
64.85 -0.01162
64.9 -0.01015
64.95 -0.00881
65 -0.00644
65.05 -0.0008
65.1 0.00556
65.15 0.0051
65.2 0.0007
65.25 -0.00378
65.3 -0.00245
65.35 -0.00033
65.4 0.0055
65.45 0.00978
65.5 0.00852
65.55 0.00702
65.6 0.00897
65.65 0.01226
65.7 0.0152
65.75 0.01725
65.8 0.02102
65.85 0.02018
65.9 0.01644
65.95 0.01545
66 0.01108
66.05 0.0084
66.1 0.00915
66.15 0.00689
66.2 0.00136
66.25 -0.00608
66.3 -0.00972
66.35 -0.01018
66.4 -0.01014
66.45 -0.00913
66.5 -0.00459
66.55 -0.0059
66.6 -0.01082
66.65 -0.01515
66.7 -0.01286
66.75 -0.01395
66.8 -0.01555
66.85 -0.01935
66.9 -0.02443
66.95 -0.0273
67 -0.03
67.05 -0.03246
67.1 -0.03149
67.15 -0.03181
67.2 -0.02725
67.25 -0.0209
67.3 -0.01254
67.35 -0.00231
67.4 -0.00009
67.45 0.0028
67.5 0.00468
67.55 0.00826
67.6 0.00617
67.65 0.00125
67.7 -0.00101
67.75 0.00165
67.8 0.00328
67.85 0.00106
67.9 -0.00459
67.95 -0.00404
68 -0.00779
68.05 -0.00541
68.1 -0.00147
68.15 0.00368
68.2 0.00859
68.25 0.01537
68.3 0.01966
68.35 0.0192
68.4 0.01885
68.45 0.01603
68.5 0.01696
68.55 0.01272
68.6 0.00927
68.65 0.00387
68.7 0.00105
68.75 0.00032
68.8 -0.00089
68.85 -0.00619
68.9 -0.01231
68.95 -0.01687
69 -0.02057
69.05 -0.0236
69.1 -0.02094
69.15 -0.01414
69.2 -0.00534
69.25 0.0053
69.3 0.0141
69.35 0.02207
69.4 0.02355
69.45 0.02516
69.5 0.02315
69.55 0.02191
69.6 0.01821
69.65 0.01783
69.7 0.01865
69.75 0.01519
69.8 0.01226
69.85 0.0055
69.9 -0.00331
69.95 -0.01318
70 -0.01847
70.05 -0.01976
70.1 -0.01777
70.15 -0.01157
70.2 -0.00876
70.25 -0.00292
70.3 0.0025
70.35 0.00851
70.4 0.01582
70.45 0.01656
70.5 0.01528
70.55 0.01736
70.6 0.01288
70.65 0.01224
70.7 0.01101
70.75 0.0108
70.8 0.01013
70.85 0.00651
70.9 0.00789
70.95 0.01136
71 0.01444
71.05 0.01629
71.1 0.01751
71.15 0.01422
71.2 0.00986
71.25 0.00302
71.3 0.00056
71.35 0.00202
71.4 -0.00035
71.45 -0.00663
71.5 -0.01058
71.55 -0.01045
71.6 -0.00805
71.65 -0.00201
71.7 0.00427
71.75 0.00878
71.8 0.00758
71.85 0.0051
71.9 0.00005
71.95 0.0007
72 0.00015
72.05 -0.00109
72.1 -0.00237
72.15 -0.00091
72.2 0.00083
72.25 0.00067
72.3 0.00075
72.35 0.00129
72.4 0.0036
72.45 0.00745
72.5 0.00957
72.55 0.00772
72.6 0.00525
72.65 0.00523
72.7 0.0069
72.75 0.00375
72.8 0.00209
72.85 -0.00322
72.9 -0.00488
72.95 -0.00385
73 -0.00143
73.05 0.0043
73.1 0.00284
73.15 0.00569
73.2 0.01008
73.25 0.00792
73.3 0.00271
73.35 -0.00187
73.4 -0.00156
73.45 -0.00347
73.5 -0.00547
73.55 -0.00538
73.6 -0.00468
73.65 -0.00226
73.7 0.00302
73.75 0.00186
73.8 0.00312
73.85 0.00119
73.9 -0.0002
73.95 -0.00469
74 -0.00944
74.05 -0.0158
74.1 -0.01572
74.15 -0.01379
74.2 -0.00911
74.25 -0.0042
74.3 -0.00263
74.35 0.00209
74.4 0.003
74.45 -0.0007
74.5 -0.00208
74.55 0.00088
74.6 -0.00198
74.65 -0.00593
74.7 -0.01156
74.75 -0.01413
74.8 -0.01147
74.85 -0.01064
74.9 -0.00669
74.95 -0.00464
75 -0.00305
75.05 0.00145
75.1 0.00628
75.15 0.01049
75.2 0.01126
75.25 0.00939
75.3 0.01051
75.35 0.01159
75.4 0.01344
75.45 0.0105
75.5 0.01155
75.55 0.01457
75.6 0.01366
75.65 0.00866
75.7 0.00508
75.75 -0.00101
75.8 -0.00375
75.85 -0.00977
75.9 -0.00873
75.95 -0.00763
76 -0.01032
76.05 -0.00917
76.1 -0.00881
76.15 -0.01162
76.2 -0.01278
76.25 -0.01202
76.3 -0.00726
76.35 -0.00155
76.4 0.00034
76.45 0.00053
76.5 0.00205
76.55 -0.00092
76.6 -0.00271
76.65 -0.00335
76.7 -0.00292
76.75 -0.00301
76.8 -0.00397
76.85 -0.00409
76.9 0.00021
76.95 0.00479
77 0.00603
77.05 0.00315
77.1 -0.00247
77.15 -0.0067
77.2 -0.00604
77.25 -0.0072
77.3 -0.00496
77.35 -0.00688
77.4 -0.0102
77.45 -0.0123
77.5 -0.01126
77.55 -0.01253
77.6 -0.01458
77.65 -0.01087
77.7 -0.00544
77.75 -0.00439
77.8 -0.00328
77.85 -0.00281
77.9 -0.00021
77.95 -0.00057
78 0.00093
78.05 0.00286
78.1 0.0039
78.15 -0.00014
78.2 -0.00066
78.25 -0.00335
78.3 -0.00624
78.35 -0.01076
78.4 -0.01288
78.45 -0.00921
78.5 -0.00826
78.55 -0.00841
78.6 -0.00835
78.65 -0.00645
78.7 -0.00281
78.75 0.00134
78.8 0.00589
78.85 0.00646
78.9 0.00804
78.95 0.00844
79 0.00852
79.05 0.00548
79.1 0.00162
79.15 0.00075
79.2 0.0029
79.25 0.00112
79.3 -0.00008
79.35 -0.00238
79.4 -0.00232
79.45 -0.00396
79.5 -0.00459
79.55 -0.00025
79.6 0.00075
79.65 0.00492
79.7 0.00393
79.75 0.0024
79.8 0.0023
79.85 0.00636
79.9 0.01068
79.95 0.01469
80 0.01777
80.05 0.02183
80.1 0.01904
80.15 0.01183
80.2 0.00424
80.25 0.00245
80.3 -0.00355
80.35 -0.00803
80.4 -0.0142
80.45 -0.01603
80.5 -0.02051
80.55 -0.01858
80.6 -0.01578
80.65 -0.01658
80.7 -0.01231
80.75 -0.00964
80.8 -0.0076
80.85 -0.00543
80.9 -0.00554
80.95 -0.00771
81 -0.00548
81.05 -0.00496
81.1 -0.00305
81.15 -0.00632
81.2 -0.00397
81.25 -0.00326
81.3 -0.00225
81.35 -0.00175
81.4 -0.00595
81.45 -0.0056
81.5 -0.0064
81.55 -0.00363
81.6 0.0016
81.65 0.0073
81.7 0.00902
81.75 0.01336
81.8 0.01803
81.85 0.02336
81.9 0.02109
81.95 0.01394
82 0.00345
82.05 -0.00545
82.1 -0.01157
82.15 -0.01265
82.2 -0.01704
82.25 -0.021
82.3 -0.02491
82.35 -0.02903
82.4 -0.03313
82.45 -0.03541
82.5 -0.03622
82.55 -0.03271
82.6 -0.0241
82.65 -0.02062
82.7 -0.01642
82.75 -0.01423
82.8 -0.01377
82.85 -0.01514
82.9 -0.01227
82.95 -0.01017
83 -0.00557
83.05 0.00118
83.1 0.00311
83.15 0.00681
83.2 0.00849
83.25 0.00771
83.3 0.00841
83.35 0.0065
83.4 0.00532
83.45 0.00247
83.5 0.00296
83.55 0.00602
83.6 0.01065
83.65 0.0124
83.7 0.01049
83.75 0.01071
83.8 0.00903
83.85 0.00619
83.9 0.00468
83.95 0.00621
84 0.00425
84.05 -0.00123
84.1 -0.00848
84.15 -0.00802
84.2 -0.00866
84.25 -0.00738
84.3 -0.00732
84.35 -0.00931
84.4 -0.00538
84.45 -0.00457
84.5 -0.00415
84.55 -0.00583
84.6 -0.00272
84.65 0.0034
84.7 0.00417
84.75 0.00396
84.8 -0.00003
84.85 -0.00018
84.9 -0.00131
84.95 -0.00168
85 0.00222
85.05 0.00297
85.1 0.00587
85.15 0.00869
85.2 0.01296
85.25 0.01734
85.3 0.02024
85.35 0.023
85.4 0.02043
85.45 0.01917
85.5 0.0174
85.55 0.01731
85.6 0.01162
85.65 0.0093
85.7 0.00612
85.75 0.00453
85.8 0.00123
85.85 0.00165
85.9 -0.00275
85.95 -0.00588
86 -0.00418
86.05 -0.00006
86.1 0.00193
86.15 0.00357
86.2 -0.0004
86.25 0.00111
86.3 0.00515
86.35 0.00902
86.4 0.0132
86.45 0.01381
86.5 0.01106
86.55 0.00747
86.6 0.00098
86.65 -0.00269
86.7 -0.00304
86.75 -0.00581
86.8 -0.00311
86.85 -0.00097
86.9 0.00169
86.95 0.002
87 -0.0004
87.05 -0.00476
87.1 -0.00594
87.15 -0.00212
87.2 -0.00077
87.25 0.00075
87.3 0.00022
87.35 0.00351
87.4 0.00942
87.45 0.00919
87.5 0.00718
87.55 0.00253
87.6 -0.00316
87.65 -0.00545
87.7 -0.00513
87.75 -0.00387
87.8 -0.00082
87.85 -0.00369
87.9 -0.00666
87.95 -0.00866
88 -0.00721
88.05 -0.00584
88.1 -0.00902
88.15 -0.01261
88.2 -0.01039
88.25 -0.0073
88.3 -0.00407
88.35 -0.00267
88.4 0.00107
88.45 0.00369
88.5 0.00711
88.55 0.00836
88.6 0.00802
88.65 0.00269
88.7 -0.00146
88.75 -0.00367
88.8 -0.00874
88.85 -0.01226
88.9 -0.01539
88.95 -0.01374
89 -0.0082
89.05 -0.00612
89.1 -0.00228
89.15 0.00129
89.2 0.0048
89.25 0.01077
89.3 0.01032
89.35 0.00832
89.4 0.00717
89.45 0.00438
89.5 -0.00243
89.55 -0.00339
89.6 -0.00512
89.65 -0.00745
89.7 -0.01075
89.75 -0.00927
89.8 -0.00709
89.85 -0.00206
89.9 -0.00308
89.95 -0.00417
90 -0.0091
90.05 -0.01024
90.1 -0.00899
90.15 -0.00952
90.2 -0.00741
90.25 -0.00609
90.3 -0.00729
90.35 -0.00451
90.4 -0.00083
90.45 0.00374
90.5 0.01036
90.55 0.01249
90.6 0.01559
90.65 0.01394
90.7 0.01025
90.75 0.00497
90.8 0.00307
90.85 0.0002
90.9 -0.00169
90.95 -0.00114
91 -0.0043
91.05 -0.00182
91.1 -0.00162
91.15 0.00163
91.2 0.00341
91.25 0.00183
91.3 0.00056
91.35 0.00134
91.4 0.00251
91.45 0.00622
91.5 0.0092
91.55 0.00674
91.6 0.00695
91.65 0.00378
91.7 -0.0013
91.75 -0.00432
91.8 -0.00889
91.85 -0.00937
91.9 -0.00988
91.95 -0.01186
92 -0.01549
92.05 -0.01887
92.1 -0.01844
92.15 -0.01887
92.2 -0.01499
92.25 -0.0095
92.3 -0.00328
92.35 -0.00021
92.4 0.00017
92.45 -0.00384
92.5 -0.00609
92.55 -0.00854
92.6 -0.01298
92.65 -0.01921
92.7 -0.02195
92.75 -0.01929
92.8 -0.01257
92.85 -0.00571
92.9 -0.00463
92.95 -0.00693
93 -0.01094
93.05 -0.00975
93.1 -0.00797
93.15 -0.0062
93.2 -0.00362
93.25 -0.00458
93.3 -0.00123
93.35 0.00479
93.4 0.01039
93.45 0.01258
93.5 0.01378
93.55 0.01676
93.6 0.01404
93.65 0.0105
93.7 0.01102
93.75 0.01062
93.8 0.00769
93.85 0.0072
93.9 0.00685
93.95 0.00766
94 0.00418
94.05 -0
94.1 0.00128
94.15 0.00381
94.2 0.00272
94.25 0.00552
94.3 0.00624
94.35 0.0058
94.4 0.00785
94.45 0.00677
94.5 0.00322
94.55 0.0025
94.6 0.0058
94.65 0.00331
94.7 -0.00217
94.75 -0.00634
94.8 -0.00989
94.85 -0.0075
94.9 -0.00209
94.95 0.00325
95 0.00742
95.05 0.00566
95.1 0.00482
95.15 0.00655
95.2 0.00454
95.25 0.00225
95.3 -0.00123
95.35 -0.00545
95.4 -0.00436
95.45 -0.00536
95.5 -0.00669
95.55 -0.00249
95.6 -0.00315
95.65 -0.00466
95.7 -0.00289
95.75 0.00136
95.8 0.00773
95.85 0.00976
95.9 0.00786
95.95 0.00495
96 0.0008
96.05 0.00189
96.1 0.00374
96.15 0.00515
96.2 0.0049
96.25 0.00288
96.3 0.00052
96.35 0.00182
96.4 0.00372
96.45 0.00771
96.5 0.00648
96.55 0.00813
96.6 0.00682
96.65 0.00779
96.7 0.01201
96.75 0.01098
96.8 0.00995
96.85 0.00752
96.9 0.00541
96.95 0.00379
97 0.0045
97.05 0.0074
97.1 0.00539
97.15 0.00689
97.2 0.0078
97.25 0.00424
97.3 0.00129
97.35 -0.00556
97.4 -0.01159
97.45 -0.01177
97.5 -0.00937
97.55 -0.01036
97.6 -0.01351
97.65 -0.01131
97.7 -0.00467
97.75 0.00249
97.8 0.00405
97.85 0.00711
97.9 0.00529
97.95 0.00682
98 0.00484
98.05 0.00655
98.1 0.0068
98.15 0.0107
98.2 0.0082
98.25 0.00258
98.3 -0.00024
98.35 -0.00321
98.4 -0.00268
98.45 0.00053
98.5 0.0028
98.55 0.00016
98.6 -0.00645
98.65 -0.01456
98.7 -0.01995
98.75 -0.022
98.8 -0.02377
98.85 -0.02053
98.9 -0.0143
98.95 -0.00786
99 -0.00194
99.05 -0.00208
99.1 -0.00033
99.15 -0.00159
99.2 -0.00233
99.25 -0.00462
99.3 -0.00141
99.35 -0.00391
99.4 -0.00401
99.45 -0.00495
99.5 -0.00476
99.55 -0.00437
99.6 -0.00826
99.65 -0.01118
99.7 -0.01297
99.75 -0.01715
99.8 -0.01528
99.85 -0.00916
99.9 -0.00302
99.95 0.00559
