0 0
0.05 0.00402
0.1 0.0155
0.15 0.02737
0.2 0.03261
0.25 0.03707
0.3 0.04386
0.35 0.04925
0.4 0.04956
0.45 0.04693
0.5 0.04349
0.55 0.03867
0.6 0.03379
0.65 0.03487
0.7 0.03632
0.75 0.03819
0.8 0.03675
0.85 0.0379
0.9 0.037
0.95 0.03307
1 0.03017
1.05 0.03183
1.1 0.03181
1.15 0.0309
1.2 0.02764
1.25 0.02593
1.3 0.02845
1.35 0.02706
1.4 0.02565
1.45 0.02416
1.5 0.02516
1.55 0.02399
1.6 0.02548
1.65 0.02906
1.7 0.03521
1.75 0.04327
1.8 0.04544
1.85 0.04802
1.9 0.05315
1.95 0.05382
2 0.05484
2.05 0.05743
2.1 0.05949
2.15 0.05682
2.2 0.0516
2.25 0.04657
2.3 0.03907
2.35 0.03786
2.4 0.03749
2.45 0.03333
2.5 0.02699
2.55 0.01918
2.6 0.01717
2.65 0.01673
2.7 0.01694
2.75 0.01802
2.8 0.02185
2.85 0.02346
2.9 0.02128
2.95 0.02413
3 0.02554
3.05 0.03053
3.1 0.03518
3.15 0.03768
3.2 0.03835
3.25 0.03923
3.3 0.03877
3.35 0.03839
3.4 0.03793
3.45 0.03464
3.5 0.02918
3.55 0.02362
3.6 0.01575
3.65 0.01524
3.7 0.01127
3.75 0.01015
3.8 0.01355
3.85 0.01739
3.9 0.01808
3.95 0.01616
4 0.01253
4.05 0.01246
4.1 0.00798
4.15 0.00681
4.2 0.00815
4.25 0.00443
4.3 -0.00199
4.35 -0.00346
4.4 -0.00492
4.45 -0.00709
4.5 -0.01294
4.55 -0.02142
4.6 -0.03283
4.65 -0.04502
4.7 -0.06071
4.75 -0.07643
4.8 -0.09814
4.85 -0.1229
4.9 -0.14937
4.95 -0.17891
5 -0.20597
5.05 -0.24179
5.1 -0.2837
5.15 -0.32694
5.2 -0.37285
5.25 -0.42332
5.3 -0.47312
5.35 -0.52288
5.4 -0.57947
5.45 -0.63122
5.5 -0.68506
5.55 -0.73544
5.6 -0.78294
5.65 -0.83226
5.7 -0.87278
5.75 -0.90741
5.8 -0.93906
5.85 -0.96379
5.9 -0.98247
5.95 -0.99384
6 -0.99008
6.05 -0.97747
6.1 -0.95272
6.15 -0.9181
6.2 -0.87854
6.25 -0.84118
6.3 -0.80043
6.35 -0.75705
6.4 -0.70964
6.45 -0.66329
6.5 -0.61451
6.55 -0.56125
6.6 -0.50943
6.65 -0.45522
6.7 -0.40119
6.75 -0.34748
6.8 -0.29641
6.85 -0.24397
6.9 -0.18949
6.95 -0.13187
7 -0.07559
7.05 -0.01609
7.1 0.03931
7.15 0.09645
7.2 0.15118
7.25 0.2118
7.3 0.26857
7.35 0.32541
7.4 0.37604
7.45 0.42582
7.5 0.47836
7.55 0.52925
7.6 0.57136
7.65 0.60578
7.7 0.64237
7.75 0.67568
7.8 0.70075
7.85 0.72151
7.9 0.7371
7.95 0.75154
8 0.7697
8.05 0.78839
8.1 0.80234
8.15 0.81643
8.2 0.82613
8.25 0.83313
8.3 0.83803
8.35 0.84075
8.4 0.84053
8.45 0.83748
8.5 0.82957
8.55 0.81361
8.6 0.79154
8.65 0.76824
8.7 0.74494
8.75 0.7223
8.8 0.70612
8.85 0.69204
8.9 0.67686
8.95 0.66155
9 0.64983
9.05 0.63693
9.1 0.61737
9.15 0.60069
9.2 0.58548
9.25 0.57302
9.3 0.55943
9.35 0.53865
9.4 0.51451
9.45 0.49758
9.5 0.48119
9.55 0.46243
9.6 0.44977
9.65 0.43446
9.7 0.41805
9.75 0.39834
9.8 0.37812
9.85 0.36348
9.9 0.3476
9.95 0.33851
10 0.32847
10.05 0.32273
10.1 0.31584
10.15 0.30603
10.2 0.29111
10.25 0.27576
10.3 0.25866
10.35 0.24341
10.4 0.22605
10.45 0.21688
10.5 0.20892
10.55 0.20292
10.6 0.19237
10.65 0.18129
10.7 0.16543
10.75 0.14911
10.8 0.133
10.85 0.11941
10.9 0.11062
10.95 0.10227
11 0.0908
11.05 0.07927
11.1 0.07029
11.15 0.06297
11.2 0.05364
11.25 0.04282
11.3 0.03354
11.35 0.02561
11.4 0.01352
11.45 0.00164
11.5 -0.01294
11.55 -0.02109
11.6 -0.02723
11.65 -0.03279
11.7 -0.03667
11.75 -0.0429
11.8 -0.05319
11.85 -0.06275
11.9 -0.06807
11.95 -0.07207
12 -0.07267
12.05 -0.07428
12.1 -0.07684
12.15 -0.08246
12.2 -0.08917
12.25 -0.09992
12.3 -0.11192
12.35 -0.12188
12.4 -0.13148
12.45 -0.13363
12.5 -0.13582
12.55 -0.13192
12.6 -0.12678
12.65 -0.12808
12.7 -0.13059
12.75 -0.13528
12.8 -0.1374
12.85 -0.13947
12.9 -0.13864
12.95 -0.13645
13 -0.13711
13.05 -0.13966
13.1 -0.1406
13.15 -0.14352
13.2 -0.13906
13.25 -0.1371
13.3 -0.13759
13.35 -0.13705
13.4 -0.13746
13.45 -0.13175
13.5 -0.12625
13.55 -0.12458
13.6 -0.1244
13.65 -0.12507
13.7 -0.12317
13.75 -0.11983
13.8 -0.11565
13.85 -0.11615
13.9 -0.11868
13.95 -0.11864
14 -0.11441
14.05 -0.10821
14.1 -0.09828
14.15 -0.0925
14.2 -0.08802
14.25 -0.0883
14.3 -0.08715
14.35 -0.08398
14.4 -0.07814
14.45 -0.07013
14.5 -0.06352
14.55 -0.0566
14.6 -0.05024
14.65 -0.04799
14.7 -0.04575
14.75 -0.04245
14.8 -0.04773
14.85 -0.05621
14.9 -0.06057
14.95 -0.06109
15 -0.06066
15.05 -0.05715
15.1 -0.05329
15.15 -0.05143
15.2 -0.05251
15.25 -0.05741
15.3 -0.05897
15.35 -0.06444
15.4 -0.06633
15.45 -0.07179
15.5 -0.07713
15.55 -0.07477
15.6 -0.07162
15.65 -0.06438
15.7 -0.06228
15.75 -0.05725
15.8 -0.04984
15.85 -0.04347
15.9 -0.04394
15.95 -0.0448
16 -0.04569
16.05 -0.04849
16.1 -0.04884
16.15 -0.04638
16.2 -0.04078
16.25 -0.03477
16.3 -0.03029
16.35 -0.02882
16.4 -0.02578
16.45 -0.02592
16.5 -0.03037
16.55 -0.03187
16.6 -0.0341
16.65 -0.03601
16.7 -0.0372
16.75 -0.04116
16.8 -0.03992
16.85 -0.03772
16.9 -0.03773
16.95 -0.04217
17 -0.046
17.05 -0.05106
17.1 -0.05465
17.15 -0.05568
17.2 -0.05399
17.25 -0.04859
17.3 -0.04358
17.35 -0.03602
17.4 -0.02744
17.45 -0.02518
17.5 -0.02188
17.55 -0.02178
17.6 -0.02617
17.65 -0.0287
17.7 -0.0283
17.75 -0.02626
17.8 -0.02853
17.85 -0.03135
17.9 -0.03611
17.95 -0.03674
18 -0.0357
18.05 -0.03346
18.1 -0.03206
18.15 -0.03327
18.2 -0.03132
18.25 -0.03459
18.3 -0.03384
18.35 -0.03371
18.4 -0.03678
18.45 -0.03544
18.5 -0.03098
18.55 -0.02917
18.6 -0.02597
18.65 -0.02529
18.7 -0.02049
18.75 -0.0185
18.8 -0.01794
18.85 -0.01976
18.9 -0.01917
18.95 -0.01774
19 -0.01821
19.05 -0.01547
19.1 -0.01578
19.15 -0.01802
19.2 -0.01877
19.25 -0.02355
19.3 -0.02998
19.35 -0.03776
19.4 -0.04352
19.45 -0.04336
19.5 -0.04584
19.55 -0.04287
19.6 -0.03695
19.65 -0.03486
19.7 -0.03549
19.75 -0.03601
19.8 -0.03285
19.85 -0.02898
19.9 -0.02089
19.95 -0.01615
20 -0.01613
20.05 -0.01722
20.1 -0.01322
20.15 -0.01274
20.2 -0.01465
20.25 -0.01311
20.3 -0.01444
20.35 -0.01459
20.4 -0.01152
20.45 -0.01089
20.5 -0.01538
20.55 -0.01854
20.6 -0.02474
20.65 -0.03201
20.7 -0.03202
20.75 -0.02613
20.8 -0.01764
20.85 -0.00909
20.9 -0.00063
20.95 0.00052
21 0.00287
21.05 0.00536
21.1 0.00379
21.15 -0.00016
21.2 -0.00252
21.25 -0.00716
21.3 -0.01414
21.35 -0.01951
21.4 -0.01782
21.45 -0.01475
21.5 -0.01596
21.55 -0.01506
21.6 -0.01178
21.65 -0.00547
21.7 -0.00179
21.75 0.00364
21.8 0.0027
21.85 -0.00321
21.9 -0.00451
21.95 -0.00873
22 -0.01502
22.05 -0.0217
22.1 -0.02251
22.15 -0.01906
22.2 -0.01331
22.25 -0.01388
22.3 -0.01465
22.35 -0.01661
22.4 -0.01311
22.45 -0.00819
22.5 -0.00443
22.55 -0.0028
22.6 -0.00322
22.65 -0.00471
22.7 -0.00297
22.75 -0.00439
22.8 -0.00243
22.85 0.00001
22.9 -0.00069
22.95 -0.00079
23 -0.0047
23.05 -0.01024
23.1 -0.01313
23.15 -0.01904
23.2 -0.02169
23.25 -0.02562
23.3 -0.0247
23.35 -0.02588
23.4 -0.02536
23.45 -0.02721
23.5 -0.02767
23.55 -0.02915
23.6 -0.0271
23.65 -0.02277
23.7 -0.01554
23.75 -0.00952
23.8 -0.00472
23.85 0.00267
23.9 0.00791
23.95 0.0135
24 0.01202
24.05 0.00745
24.1 0.00012
24.15 -0.00818
24.2 -0.01552
24.25 -0.02029
24.3 -0.0243
24.35 -0.02565
24.4 -0.02307
24.45 -0.02413
24.5 -0.01924
24.55 -0.01216
24.6 -0.00663
24.65 -0.00597
24.7 -0.00135
24.75 0.00345
24.8 0.00243
24.85 0.004
24.9 0.00859
24.95 0.01036
25 0.01073
25.05 0.01224
25.1 0.0147
25.15 0.01525
25.2 0.01448
25.25 0.01055
25.3 0.0032
25.35 -0.00534
25.4 -0.01448
25.45 -0.02294
25.5 -0.02627
25.55 -0.02258
25.6 -0.01697
25.65 -0.01198
25.7 -0.00689
25.75 -0.00402
25.8 -0.00026
25.85 -0.00215
25.9 0.00082
25.95 0.00457
26 0.01094
26.05 0.00975
26.1 0.00651
26.15 0.00122
26.2 -0.00636
26.25 -0.01205
26.3 -0.01792
26.35 -0.01584
26.4 -0.01483
26.45 -0.01592
26.5 -0.01678
26.55 -0.0142
26.6 -0.01369
26.65 -0.01369
26.7 -0.01356
26.75 -0.01504
26.8 -0.01255
26.85 -0.01139
26.9 -0.0086
26.95 -0.00751
27 -0.00288
27.05 -0.00241
27.1 -0.00234
27.15 -0.00676
27.2 -0.00895
27.25 -0.00954
27.3 -0.00858
27.35 -0.00405
27.4 -0.00401
27.45 -0.00176
27.5 0.00096
27.55 0.00005
27.6 -0.00428
27.65 -0.01105
27.7 -0.02197
27.75 -0.03572
27.8 -0.0453
27.85 -0.05356
27.9 -0.0617
27.95 -0.07355
28 -0.08699
28.05 -0.10185
28.1 -0.11872
28.15 -0.13446
28.2 -0.15475
28.25 -0.18012
28.3 -0.21115
28.35 -0.24344
28.4 -0.28438
28.45 -0.32552
28.5 -0.371
28.55 -0.42519
28.6 -0.47823
28.65 -0.53838
28.7 -0.59954
28.75 -0.66198
28.8 -0.7304
28.85 -0.80485
28.9 -0.87903
28.95 -0.95532
29 -1.02955
29.05 -1.10366
29.1 -1.18027
29.15 -1.26173
29.2 -1.33977
29.25 -1.41439
29.3 -1.48378
29.35 -1.545
29.4 -1.60765
29.45 -1.66668
29.5 -1.71474
29.55 -1.75877
29.6 -1.79455
29.65 -1.81541
29.7 -1.83073
29.75 -1.8365
29.8 -1.83017
29.85 -1.81159
29.9 -1.77764
29.95 -1.73778
30 -1.6915
30.05 -1.63384
30.1 -1.56135
30.15 -1.47934
30.2 -1.3941
30.25 -1.30134
30.3 -1.19746
30.35 -1.09283
30.4 -0.9774
30.45 -0.85622
30.5 -0.73595
30.55 -0.61716
30.6 -0.4972
30.65 -0.37779
30.7 -0.25381
30.75 -0.12679
30.8 0.00248
30.85 0.13132
30.9 0.24971
30.95 0.36194
31 0.47046
31.05 0.56905
31.1 0.66341
31.15 0.75611
31.2 0.84151
31.25 0.92303
31.3 0.99603
31.35 1.06617
31.4 1.13258
31.45 1.19089
31.5 1.24401
31.55 1.28958
31.6 1.32513
31.65 1.35176
31.7 1.37068
31.75 1.39337
31.8 1.41048
31.85 1.42403
31.9 1.439
31.95 1.45411
32 1.46559
32.05 1.47004
32.1 1.46989
32.15 1.47283
32.2 1.47517
32.25 1.47555
32.3 1.47676
32.35 1.47774
32.4 1.47351
32.45 1.46695
32.5 1.46219
32.55 1.45974
32.6 1.45251
32.65 1.44596
32.7 1.43363
32.75 1.41678
32.8 1.40218
32.85 1.3853
32.9 1.36653
32.95 1.35059
33 1.3278
33.05 1.30222
33.1 1.28
33.15 1.25694
33.2 1.22977
33.25 1.2071
33.3 1.18055
33.35 1.15087
33.4 1.12507
33.45 1.09603
33.5 1.06588
33.55 1.03199
33.6 1.00053
33.65 0.96426
33.7 0.92889
33.75 0.89515
33.8 0.86171
33.85 0.82414
33.9 0.79166
33.95 0.75923
34 0.72246
34.05 0.69036
34.1 0.66048
34.15 0.6317
34.2 0.60397
34.25 0.57081
34.3 0.53798
34.35 0.50574
34.4 0.47083
34.45 0.44058
34.5 0.40588
34.55 0.37636
34.6 0.34234
34.65 0.31197
34.7 0.28084
34.75 0.25331
34.8 0.22365
34.85 0.19999
34.9 0.18067
34.95 0.16437
35 0.14414
35.05 0.12345
35.1 0.10619
35.15 0.08245
35.2 0.061
35.25 0.03778
35.3 0.01839
35.35 0.0024
35.4 -0.01474
35.45 -0.03384
35.5 -0.05664
35.55 -0.07445
35.6 -0.08613
35.65 -0.10033
35.7 -0.11122
35.75 -0.12078
35.8 -0.13134
35.85 -0.139
35.9 -0.15099
35.95 -0.1661
36 -0.18305
36.05 -0.1997
36.1 -0.20927
36.15 -0.21382
36.2 -0.21534
36.25 -0.21667
36.3 -0.2232
36.35 -0.23169
36.4 -0.24226
36.45 -0.24551
36.5 -0.24524
36.55 -0.243
36.6 -0.24217
36.65 -0.24304
36.7 -0.24884
36.75 -0.25017
36.8 -0.25519
36.85 -0.25789
36.9 -0.25809
36.95 -0.26085
37 -0.25886
37.05 -0.25794
37.1 -0.25939
37.15 -0.26056
37.2 -0.26516
37.25 -0.26396
37.3 -0.2666
37.35 -0.26948
37.4 -0.26797
37.45 -0.26779
37.5 -0.26278
37.55 -0.25945
37.6 -0.25368
37.65 -0.25083
37.7 -0.25213
37.75 -0.24941
37.8 -0.24981
37.85 -0.25294
37.9 -0.253
37.95 -0.25209
38 -0.24591
38.05 -0.24171
38.1 -0.23558
38.15 -0.23145
38.2 -0.22553
38.25 -0.22112
38.3 -0.22027
38.35 -0.22053
38.4 -0.22177
38.45 -0.21858
38.5 -0.21719
38.55 -0.21789
38.6 -0.21959
38.65 -0.21561
38.7 -0.20784
38.75 -0.19635
38.8 -0.18364
38.85 -0.17629
38.9 -0.16909
38.95 -0.1645
39 -0.16164
39.05 -0.1618
39.1 -0.16512
39.15 -0.16922
39.2 -0.17328
39.25 -0.17184
39.3 -0.16467
39.35 -0.15926
39.4 -0.15238
39.45 -0.15107
39.5 -0.15259
39.55 -0.15062
39.6 -0.14864
39.65 -0.14197
39.7 -0.1376
39.75 -0.13684
39.8 -0.1355
39.85 -0.13197
39.9 -0.13137
39.95 -0.13201
40 -0.12861
40.05 -0.12234
40.1 -0.11691
40.15 -0.11288
40.2 -0.10575
40.25 -0.10308
40.3 -0.10574
40.35 -0.10859
40.4 -0.10945
40.45 -0.10793
40.5 -0.10782
40.55 -0.10864
40.6 -0.11242
40.65 -0.11266
40.7 -0.10703
40.75 -0.10477
40.8 -0.1033
40.85 -0.09859
40.9 -0.0967
40.95 -0.09227
41 -0.09155
41.05 -0.08747
41.1 -0.08763
41.15 -0.08635
41.2 -0.08797
41.25 -0.08897
41.3 -0.09301
41.35 -0.09408
41.4 -0.09119
41.45 -0.08548
41.5 -0.08171
41.55 -0.07758
41.6 -0.07722
41.65 -0.0783
41.7 -0.08008
41.75 -0.07906
41.8 -0.07571
41.85 -0.07288
41.9 -0.07445
41.95 -0.07884
42 -0.08286
42.05 -0.08591
42.1 -0.08154
42.15 -0.07975
42.2 -0.07948
42.25 -0.07468
42.3 -0.06602
42.35 -0.06419
42.4 -0.05909
42.45 -0.05646
42.5 -0.05467
42.55 -0.05017
42.6 -0.04569
42.65 -0.03925
42.7 -0.03541
42.75 -0.03592
42.8 -0.03822
42.85 -0.04388
42.9 -0.04761
42.95 -0.04878
43 -0.04728
43.05 -0.04285
43.1 -0.04054
43.15 -0.04318
43.2 -0.04053
43.25 -0.03999
43.3 -0.04106
43.35 -0.03787
43.4 -0.03535
43.45 -0.0324
43.5 -0.02909
43.55 -0.02613
43.6 -0.02619
43.65 -0.02532
43.7 -0.02384
43.75 -0.02424
43.8 -0.02993
43.85 -0.03872
43.9 -0.04008
43.95 -0.03937
44 -0.03868
44.05 -0.03387
44.1 -0.02688
44.15 -0.02315
44.2 -0.01918
44.25 -0.02194
44.3 -0.02654
44.35 -0.03229
44.4 -0.03472
44.45 -0.03966
44.5 -0.04072
44.55 -0.04012
44.6 -0.04306
44.65 -0.0465
44.7 -0.04819
44.75 -0.04899
44.8 -0.04726
44.85 -0.04657
44.9 -0.04396
44.95 -0.03772
45 -0.03537
45.05 -0.02835
45.1 -0.02755
45.15 -0.02284
45.2 -0.02349
45.25 -0.02339
45.3 -0.02263
45.35 -0.0193
45.4 -0.02194
45.45 -0.0211
45.5 -0.02316
45.55 -0.02118
45.6 -0.02413
45.65 -0.02337
45.7 -0.0197
45.75 -0.01934
45.8 -0.02265
45.85 -0.02266
45.9 -0.02111
45.95 -0.01562
46 -0.01445
46.05 -0.0168
46.1 -0.02248
46.15 -0.02343
46.2 -0.02656
46.25 -0.02647
46.3 -0.03001
46.35 -0.03363
46.4 -0.03762
46.45 -0.03628
46.5 -0.03287
46.55 -0.03356
46.6 -0.03532
46.65 -0.03702
46.7 -0.03138
46.75 -0.02685
46.8 -0.01994
46.85 -0.01239
46.9 -0.00645
46.95 -0.00657
47 -0.00938
47.05 -0.01522
47.1 -0.01735
47.15 -0.02259
47.2 -0.02725
47.25 -0.02974
47.3 -0.02681
47.35 -0.02375
47.4 -0.01719
47.45 -0.00863
47.5 -0.00174
47.55 0.00647
47.6 0.00789
47.65 0.00563
47.7 0.00132
47.75 0.00102
47.8 -0.00257
47.85 -0.00838
47.9 -0.00936
47.95 -0.00934
48 -0.00684
48.05 -0.00744
48.1 -0.00673
48.15 -0.00963
48.2 -0.01277
48.25 -0.01417
48.3 -0.01481
48.35 -0.01331
48.4 -0.00924
48.45 -0.00373
48.5 0.00402
48.55 0.0063
48.6 0.01097
48.65 0.01458
48.7 0.0195
48.75 0.02237
48.8 0.02251
48.85 0.01994
48.9 0.01352
48.95 0.00571
49 -0.00083
49.05 -0.0055
49.1 -0.01319
49.15 -0.02195
49.2 -0.02293
49.25 -0.01833
49.3 -0.01561
49.35 -0.0096
49.4 -0.00833
49.45 -0.01173
49.5 -0.01016
49.55 -0.01135
49.6 -0.0128
49.65 -0.01181
49.7 -0.01494
49.75 -0.01396
49.8 -0.01467
49.85 -0.0189
49.9 -0.0173
49.95 -0.01524
50 -0.01011
50.05 -0.00494
50.1 0.00208
50.15 0.00953
50.2 0.01122
50.25 0.01499
50.3 0.01903
50.35 0.01718
50.4 0.01201
50.45 0.00912
50.5 0.00622
50.55 0.00455
50.6 0.00517
50.65 0.00516
50.7 0.00874
50.75 0.01078
50.8 0.00884
50.85 0.01079
50.9 0.0087
50.95 0.00717
51 0.00399
51.05 0.0043
51.1 0.00314
51.15 0.00129
51.2 0.00087
51.25 -0.00227
51.3 -0.00545
51.35 -0.00827
51.4 -0.01457
51.45 -0.01343
51.5 -0.01124
51.55 -0.00791
51.6 -0.00108
51.65 0.00216
51.7 0.00775
51.75 0.01471
51.8 0.01556
51.85 0.01043
51.9 0.00616
51.95 0.00336
52 -0.00092
52.05 0.00002
52.1 0.00182
52.15 0.00439
52.2 0.00444
52.25 0.00673
52.3 0.00915
52.35 0.01015
52.4 0.01273
52.45 0.01591
52.5 0.01241
52.55 0.00541
52.6 0.00373
52.65 -0.0022
52.7 -0.00668
52.75 -0.01097
52.8 -0.01234
52.85 -0.01595
52.9 -0.0153
52.95 -0.01527
53 -0.01123
53.05 -0.01265
53.1 -0.01566
53.15 -0.01432
53.2 -0.01
53.25 -0.0034
53.3 0.00249
53.35 0.00754
53.4 0.00677
53.45 0.00906
53.5 0.00678
53.55 0.00577
53.6 -0.0003
53.65 -0.00074
53.7 -0.00292
53.75 -0.00584
53.8 -0.00917
53.85 -0.0072
53.9 -0.00287
53.95 -0.00258
54 0.00018
54.05 0.00312
54.1 0.00051
54.15 0.00222
54.2 0.00455
54.25 0.00773
54.3 0.00662
54.35 0.00598
54.4 0.00668
54.45 0.00247
54.5 0.00336
54.55 -0.00138
54.6 -0.00212
54.65 -0.00154
54.7 -0.00316
54.75 -0.00865
54.8 -0.01184
54.85 -0.01412
54.9 -0.01517
54.95 -0.01474
55 -0.01021
55.05 -0.00452
55.1 -0.00078
55.15 0.00158
55.2 0.00353
55.25 0.00689
55.3 0.01003
55.35 0.00665
55.4 0.00409
55.45 -0.00177
55.5 -0.01008
55.55 -0.01446
55.6 -0.01829
55.65 -0.01543
55.7 -0.01628
55.75 -0.0145
55.8 -0.01163
55.85 -0.00924
55.9 -0.00383
55.95 0.00143
56 0.00159
56.05 0.00567
56.1 0.00945
56.15 0.01439
56.2 0.01813
56.25 0.02287
56.3 0.01997
56.35 0.01344
56.4 0.01012
56.45 0.00459
56.5 -0.00106
56.55 -0.0089
56.6 -0.01173
56.65 -0.01584
56.7 -0.02138
56.75 -0.0255
56.8 -0.02958
56.85 -0.032
56.9 -0.03502
56.95 -0.03215
57 -0.02919
57.05 -0.02849
57.1 -0.02692
57.15 -0.02411
57.2 -0.01872
57.25 -0.01637
57.3 -0.01467
57.35 -0.00906
57.4 -0.0028
57.45 0.00154
57.5 0.00061
57.55 -0.00479
57.6 -0.0075
57.65 -0.01036
57.7 -0.01299
57.75 -0.00926
57.8 -0.00735
57.85 -0.00313
57.9 0.00414
57.95 0.00881
58 0.01043
58.05 0.01425
58.1 0.01684
58.15 0.01407
58.2 0.01097
58.25 0.01118
58.3 0.01201
58.35 0.01411
58.4 0.01643
58.45 0.01884
58.5 0.01736
58.55 0.01428
58.6 0.01118
58.65 0.00748
58.7 0.00296
58.75 0.00286
58.8 0.00611
58.85 0.00529
58.9 0.00257
58.95 0.00026
59 -0.00496
59.05 -0.0097
59.1 -0.01264
59.15 -0.01459
59.2 -0.01695
59.25 -0.01973
59.3 -0.02458
59.35 -0.0215
59.4 -0.0225
59.45 -0.01898
59.5 -0.01642
59.55 -0.01655
59.6 -0.01287
59.65 -0.00799
59.7 -0.00639
59.75 -0.00885
59.8 -0.00709
59.85 -0.00586
59.9 -0.00597
59.95 -0.00154
60 0.0054
60.05 0.01263
60.1 0.01149
60.15 0.01016
60.2 0.01285
60.25 0.01204
60.3 0.01043
60.35 0.00687
60.4 0.00214
60.45 -0.00285
60.5 -0.00238
60.55 0.00001
60.6 0.00351
60.65 0.00334
60.7 0.00395
60.75 0.00061
60.8 -0.00545
60.85 -0.00854
60.9 -0.01024
60.95 -0.01409
61 -0.0122
61.05 -0.01343
61.1 -0.01673
61.15 -0.01497
61.2 -0.01118
61.25 -0.00515
61.3 0.00065
61.35 0.00809
61.4 0.01067
61.45 0.00904
61.5 0.01058
61.55 0.006
61.6 0.00105
61.65 -0.00557
61.7 -0.0133
61.75 -0.01334
61.8 -0.01183
61.85 -0.01348
61.9 -0.01667
61.95 -0.01672
62 -0.01496
62.05 -0.01163
62.1 -0.00617
62.15 -0.00563
62.2 -0.006
62.25 -0.00454
62.3 0.00021
62.35 0.00573
62.4 0.00495
62.45 0.00039
62.5 -0.00229
62.55 -0.00712
62.6 -0.01036
62.65 -0.01326
62.7 -0.01288
62.75 -0.01289
62.8 -0.01313
62.85 -0.01188
62.9 -0.00686
62.95 -0.00233
63 0.00527
63.05 0.00983
63.1 0.01177
63.15 0.01091
63.2 0.01094
63.25 0.0068
63.3 0.00549
63.35 0.00489
63.4 0.0005
63.45 -0.00411
63.5 -0.00667
63.55 -0.00593
63.6 -0.00154
63.65 -0.0013
63.7 -0.00307
63.75 -0.00766
63.8 -0.01214
63.85 -0.01286
63.9 -0.01502
63.95 -0.01575
64 -0.01669
64.05 -0.01661
64.1 -0.0178
64.15 -0.01853
64.2 -0.01984
64.25 -0.01496
64.3 -0.00925
64.35 -0.00587
64.4 -0.00556
64.45 -0.00442
64.5 -0.00184
64.55 0.00093
64.6 0.00239
64.65 0.0023
64.7 0.00562
64.75 0.00634
64.8 0.00854
64.85 0.01011
64.9 0.01139
64.95 0.01138
65 0.01373
65.05 0.01379
65.1 0.01596
65.15 0.01215
65.2 0.00955
65.25 0.0034
65.3 -0.00302
65.35 -0.00771
65.4 -0.00923
65.45 -0.01344
65.5 -0.01024
65.55 -0.00793
65.6 -0.00561
65.65 -0.00359
65.7 0.00219
65.75 0.00182
65.8 0.00411
65.85 0.0018
65.9 -0.00315
65.95 -0.00979
66 -0.00894
66.05 -0.00651
66.1 -0.0057
66.15 -0.00527
66.2 -0.00125
66.25 0.00621
66.3 0.00901
66.35 0.01023
66.4 0.00592
66.45 0.00569
66.5 0.00092
66.55 -0.00048
66.6 0.00199
66.65 0.00799
66.7 0.00766
66.75 0.00477
66.8 0.00518
66.85 0.00401
66.9 -0.00029
66.95 -0.00662
67 -0.0109
67.05 -0.00806
67.1 -0.0018
67.15 -0.0019
67.2 -0.00346
67.25 -0.00841
67.3 -0.01462
67.35 -0.01677
67.4 -0.01438
67.45 -0.01499
67.5 -0.01413
67.55 -0.01549
67.6 -0.0123
67.65 -0.00787
67.7 -0.00417
67.75 -0.00548
67.8 -0.00104
67.85 0.00475
67.9 0.00675
67.95 0.01046
68 0.0107
68.05 0.01157
68.1 0.01509
68.15 0.01549
68.2 0.01894
68.25 0.01808
68.3 0.01807
68.35 0.01425
68.4 0.00912
68.45 0.00937
68.5 0.00927
68.55 0.01036
68.6 0.0131
68.65 0.01488
68.7 0.01775
68.75 0.01801
68.8 0.01546
68.85 0.01426
68.9 0.01353
68.95 0.0129
69 0.01031
69.05 0.0118
69.1 0.01456
69.15 0.01457
69.2 0.01073
69.25 0.00863
69.3 0.01017
69.35 0.01081
69.4 0.00837
69.45 0.00159
69.5 -0.0065
69.55 -0.01122
69.6 -0.0123
69.65 -0.01406
69.7 -0.01811
69.75 -0.01501
69.8 -0.00866
69.85 -0.00566
69.9 -0.00411
69.95 0.00031
70 -0.00076
70.05 -0.00436
70.1 -0.00322
70.15 -0.00241
70.2 -0.00378
70.25 -0.00384
70.3 -0.00499
70.35 -0.00724
70.4 -0.00346
70.45 0.00157
70.5 0.00261
70.55 -0.00114
70.6 -0.00493
70.65 -0.00779
70.7 -0.00699
70.75 -0.00808
70.8 -0.00416
70.85 -0.00205
70.9 0.004
70.95 0.00638
71 0.00989
71.05 0.01388
71.1 0.0177
71.15 0.01406
71.2 0.00789
71.25 0.00406
71.3 -0.00271
71.35 -0.00922
71.4 -0.01451
71.45 -0.01316
71.5 -0.00826
71.55 -0.00404
71.6 -0.00155
71.65 -0.00369
71.7 -0.00829
71.75 -0.01336
71.8 -0.01685
71.85 -0.01975
71.9 -0.02146
71.95 -0.01833
72 -0.01079
72.05 -0.00955
72.1 -0.00675
72.15 0.00031
72.2 0.0045
72.25 0.00662
72.3 0.0037
72.35 0.00173
72.4 0.00177
72.45 -0.00284
72.5 -0.00686
72.55 -0.01082
72.6 -0.01528
72.65 -0.0134
72.7 -0.01255
72.75 -0.00619
72.8 -0.00374
72.85 -0.00161
72.9 0.00408
72.95 0.01213
73 0.01923
73.05 0.02554
73.1 0.02954
73.15 0.02888
73.2 0.03029
73.25 0.02888
73.3 0.02476
73.35 0.02324
73.4 0.01982
73.45 0.01841
73.5 0.01741
73.55 0.01744
73.6 0.01439
73.65 0.01398
73.7 0.0133
73.75 0.01245
73.8 0.00678
73.85 0.00403
73.9 0.00022
73.95 -0.00337
74 -0.00349
74.05 -0.00154
74.1 -0.00026
74.15 -0.00401
74.2 -0.0049
74.25 -0.00812
74.3 -0.01124
74.35 -0.00959
74.4 -0.00962
74.45 -0.0053
74.5 -0.00444
74.55 -0.00794
74.6 -0.01044
74.65 -0.01421
74.7 -0.01132
74.75 -0.01063
74.8 -0.01061
74.85 -0.00707
74.9 -0.00818
74.95 -0.0044
75 -0.0054
75.05 -0.00478
75.1 -0.00447
75.15 -0.0013
75.2 -0.00186
75.25 -0.00227
75.3 -0.00347
75.35 -0.00864
75.4 -0.01144
75.45 -0.00788
75.5 -0.0025
75.55 -0.0006
75.6 0.00231
75.65 0.00207
75.7 -0.00188
75.75 -0.0073
75.8 -0.01078
75.85 -0.01226
75.9 -0.0119
75.95 -0.01351
76 -0.01444
76.05 -0.01404
76.1 -0.01041
76.15 -0.00357
76.2 0.00372
76.25 0.00653
76.3 0.00729
76.35 0.00563
76.4 0.00794
76.45 0.00843
76.5 0.00833
76.55 0.00953
76.6 0.00734
76.65 0.00075
76.7 -0.00529
76.75 -0.01054
76.8 -0.01004
76.85 -0.00491
76.9 -0.00366
76.95 -0.00238
77 -0.00123
77.05 0.00168
77.1 0.00077
77.15 0.0035
77.2 0.00045
77.25 -0.00266
77.3 -0.00849
77.35 -0.00749
77.4 -0.0028
77.45 0.00442
77.5 0.01137
77.55 0.0114
77.6 0.01476
77.65 0.01119
77.7 0.00843
77.75 0.00611
77.8 0.00392
77.85 0.00556
77.9 0.00549
77.95 0.00654
78 0.00806
78.05 0.00695
78.1 0.00191
78.15 0.00271
78.2 0.00746
78.25 0.0092
78.3 0.01343
78.35 0.01147
78.4 0.0091
78.45 0.00637
78.5 0.00714
78.55 0.00291
78.6 0.001
78.65 0.00367
78.7 0.00931
78.75 0.00918
78.8 0.0068
78.85 0.00063
78.9 -0.00649
78.95 -0.01058
79 -0.01079
79.05 -0.01135
79.1 -0.01198
79.15 -0.01573
79.2 -0.01665
79.25 -0.01189
79.3 -0.00835
79.35 -0.00578
79.4 -0.00263
79.45 -0.00136
79.5 -0.00461
79.55 -0.0068
79.6 -0.00885
79.65 -0.00557
79.7 -0.00471
79.75 -0.00169
79.8 -0.00148
79.85 -0.00367
79.9 -0.00939
79.95 -0.0132
80 -0.01193
80.05 -0.00556
80.1 0.00143
80.15 0.00955
80.2 0.00964
80.25 0.01249
80.3 0.01745
80.35 0.02132
80.4 0.02485
80.45 0.02057
80.5 0.01176
80.55 0.0063
80.6 0.00212
80.65 0.00048
80.7 -0.00163
80.75 -0.00558
80.8 -0.01049
80.85 -0.00866
80.9 -0.00404
80.95 -0.00401
81 -0.00242
81.05 0.00104
81.1 -0.00076
81.15 -0.00662
81.2 -0.01056
81.25 -0.01017
81.3 -0.01114
81.35 -0.01026
81.4 -0.01023
81.45 -0.00863
81.5 -0.00945
81.55 -0.00975
81.6 -0.00812
81.65 -0.00819
81.7 -0.01013
81.75 -0.01039
81.8 -0.01247
81.85 -0.01032
81.9 -0.01214
81.95 -0.00877
82 -0.00502
82.05 -0.00231
82.1 0.00388
82.15 0.00525
82.2 0.00644
82.25 0.00289
82.3 0.00053
82.35 -0.00169
82.4 -0.00135
82.45 -0.00471
82.5 -0.00247
82.55 -0.00115
82.6 -0.00101
82.65 -0.00277
82.7 0.00097
82.75 0.00167
82.8 -0.00224
82.85 -0.00623
82.9 -0.00944
82.95 -0.00739
83 -0.00269
83.05 0.00262
83.1 0.00767
83.15 0.00738
83.2 0.01063
83.25 0.01419
83.3 0.01112
83.35 0.01114
83.4 0.00966
83.45 0.01028
83.5 0.01313
83.55 0.01039
83.6 0.01052
83.65 0.01195
83.7 0.01006
83.75 0.00858
83.8 0.01013
83.85 0.00965
83.9 0.01174
83.95 0.01507
84 0.01389
84.05 0.01616
84.1 0.01807
84.15 0.01723
84.2 0.01498
84.25 0.01287
84.3 0.00705
84.35 0.00557
84.4 0.00643
84.45 0.00324
84.5 -0.00288
84.55 -0.00776
84.6 -0.01149
84.65 -0.01416
84.7 -0.01529
84.75 -0.01374
84.8 -0.01241
84.85 -0.015
84.9 -0.01112
84.95 -0.0069
85 0.00074
85.05 0.00381
85.1 0.00514
85.15 0.00583
85.2 0.00669
85.25 0.01003
85.3 0.008
85.35 0.00378
85.4 -0.00224
85.45 -0.00219
85.5 -0.00347
85.55 -0.00669
85.6 -0.00703
85.65 -0.00964
85.7 -0.00968
85.75 -0.008
85.8 -0.0035
85.85 -0.00169
85.9 -0.00054
85.95 -0.00173
86 -0.00475
86.05 -0.00924
86.1 -0.01128
86.15 -0.01251
86.2 -0.00796
86.25 -0.00369
86.3 -0.00174
86.35 0.00099
86.4 0.00414
86.45 0.00493
86.5 0.00136
86.55 -0.0029
86.6 -0.00867
86.65 -0.00935
86.7 -0.0063
86.75 -0.00653
86.8 -0.00498
86.85 -0.00251
86.9 -0.00546
86.95 -0.01062
87 -0.00933
87.05 -0.00773
87.1 -0.00949
87.15 -0.0111
87.2 -0.0154
87.25 -0.01937
87.3 -0.01943
87.35 -0.02246
87.4 -0.0232
87.45 -0.02048
87.5 -0.01994
87.55 -0.02117
87.6 -0.02309
87.65 -0.02669
87.7 -0.02794
87.75 -0.02536
87.8 -0.02112
87.85 -0.01658
87.9 -0.01402
87.95 -0.01501
88 -0.01603
88.05 -0.01961
88.1 -0.01792
88.15 -0.01194
88.2 -0.0045
88.25 0.00387
88.3 0.0118
88.35 0.01331
88.4 0.01284
88.45 0.01236
88.5 0.01435
88.55 0.01488
88.6 0.01409
88.65 0.01352
88.7 0.00959
88.75 0.00778
88.8 0.00714
88.85 0.00402
88.9 0.00317
88.95 0.00632
89 0.00855
89.05 0.01377
89.1 0.01736
89.15 0.02087
89.2 0.02115
89.25 0.0241
89.3 0.02772
89.35 0.02699
89.4 0.02493
89.45 0.02244
89.5 0.01555
89.55 0.01276
89.6 0.01045
89.65 0.00686
89.7 0.00017
89.75 -0.0017
89.8 -0.00023
89.85 0.00404
89.9 0.00302
89.95 0.00191
90 0.00033
90.05 -0.00063
90.1 -0.00191
90.15 -0.00038
90.2 0.00182
90.25 0.00517
90.3 0.00649
90.35 0.01114
90.4 0.0107
90.45 0.00899
90.5 0.00507
90.55 0.00321
90.6 -0.00277
90.65 -0.00816
90.7 -0.00742
90.75 -0.00695
90.8 -0.00293
90.85 -0.00388
90.9 -0.00064
90.95 0.00538
91 0.01164
91.05 0.01301
91.1 0.01537
91.15 0.01675
91.2 0.01387
91.25 0.01052
91.3 0.00284
91.35 0.00132
91.4 -0.00019
91.45 -0.00466
91.5 -0.00872
91.55 -0.01022
91.6 -0.01436
91.65 -0.01768
91.7 -0.02274
91.75 -0.02819
91.8 -0.02858
91.85 -0.02326
91.9 -0.01386
91.95 -0.01047
92 -0.0092
92.05 -0.00686
92.1 -0.00386
92.15 -0.00073
92.2 0.00363
92.25 0.00912
92.3 0.00778
92.35 0.00343
92.4 0.00089
92.45 -0.00103
92.5 -0.00028
92.55 0.00048
92.6 -0.00274
92.65 -0.00295
92.7 -0.00002
92.75 0.0046
92.8 0.00852
92.85 0.01263
92.9 0.01021
92.95 0.01137
93 0.01027
93.05 0.00614
93.1 0.00422
93.15 0.00547
93.2 0.00227
93.25 0.00121
93.3 -0.00406
93.35 -0.00925
93.4 -0.01172
93.45 -0.013
93.5 -0.01556
93.55 -0.01303
93.6 -0.01439
93.65 -0.0133
93.7 -0.01456
93.75 -0.01289
93.8 -0.0101
93.85 -0.00312
93.9 -0.00156
93.95 -0.00491
94 -0.00883
94.05 -0.00886
94.1 -0.00568
94.15 -0.00695
94.2 -0.00772
94.25 -0.01161
94.3 -0.01337
94.35 -0.0172
94.4 -0.01564
94.45 -0.01381
94.5 -0.01138
94.55 -0.01236
94.6 -0.00723
94.65 0.00002
94.7 0.00491
94.75 0.00761
94.8 0.00655
94.85 0.00284
94.9 -0.00389
94.95 -0.00818
95 -0.01125
95.05 -0.01471
95.1 -0.0192
95.15 -0.01823
95.2 -0.01394
95.25 -0.00846
95.3 -0.00334
95.35 0.0008
95.4 0.00232
95.45 0.00759
95.5 0.00662
95.55 0.00467
95.6 0.00189
95.65 0.00197
95.7 -0.0005
95.75 -0.00293
95.8 -0.00468
95.85 -0.00354
95.9 -0.00541
95.95 -0.00952
96 -0.00672
96.05 -0.00684
96.1 -0.00985
96.15 -0.00631
96.2 -0.00682
96.25 -0.00294
96.3 -0.0014
96.35 0.00196
96.4 0.0081
96.45 0.00935
96.5 0.00726
96.55 0.00963
96.6 0.01387
96.65 0.01985
96.7 0.0243
96.75 0.02161
96.8 0.01809
96.85 0.01379
96.9 0.01423
96.95 0.01715
97 0.01601
97.05 0.01298
97.1 0.01368
97.15 0.01739
97.2 0.01744
97.25 0.01951
97.3 0.02327
97.35 0.02511
97.4 0.02818
97.45 0.03126
97.5 0.02586
97.55 0.02393
97.6 0.02302
97.65 0.01625
97.7 0.01086
97.75 0.00415
97.8 -0.00367
97.85 -0.00797
97.9 -0.01217
97.95 -0.01022
98 -0.00844
98.05 -0.01019
98.1 -0.0064
98.15 -0.00237
98.2 0.00213
98.25 0.00494
98.3 0.00747
98.35 0.00511
98.4 -0.00029
98.45 -0.00362
98.5 -0.0019
98.55 -0.00382
98.6 -0.00417
98.65 -0.00758
98.7 -0.01023
98.75 -0.01038
98.8 -0.00579
98.85 -0.00401
98.9 -0.00147
98.95 0.00104
99 0.00682
99.05 0.01399
99.1 0.01841
99.15 0.02108
99.2 0.02403
99.25 0.02307
99.3 0.02424
99.35 0.02695
99.4 0.02376
99.45 0.01679
99.5 0.01054
99.55 0.00426
99.6 0.0005
99.65 -0.004
99.7 -0.00768
99.75 -0.00949
99.8 -0.0128
99.85 -0.01576
99.9 -0.018
99.95 -0.01968
