0 0
0.05 0.00637
0.1 0.01383
0.15 0.02028
0.2 0.03159
0.25 0.04377
0.3 0.05255
0.35 0.05537
0.4 0.05679
0.45 0.05838
0.5 0.05524
0.55 0.05468
0.6 0.05385
0.65 0.04933
0.7 0.04511
0.75 0.04247
0.8 0.03714
0.85 0.03474
0.9 0.0312
0.95 0.03244
1 0.03392
1.05 0.03679
1.1 0.03876
1.15 0.04245
1.2 0.04276
1.25 0.04469
1.3 0.0479
1.35 0.04631
1.4 0.04194
1.45 0.03568
1.5 0.03084
1.55 0.02478
1.6 0.02274
1.65 0.02055
1.7 0.01685
1.75 0.01803
1.8 0.01862
1.85 0.02053
1.9 0.02334
1.95 0.02196
2 0.01985
2.05 0.01527
2.1 0.01709
2.15 0.02034
2.2 0.02159
2.25 0.02208
2.3 0.02589
2.35 0.0293
2.4 0.03045
2.45 0.02822
2.5 0.02755
2.55 0.02283
2.6 0.02293
2.65 0.02631
2.7 0.02444
2.75 0.02106
2.8 0.01699
2.85 0.01407
2.9 0.012
2.95 0.01469
3 0.01779
3.05 0.01727
3.1 0.01932
3.15 0.02525
3.2 0.03246
3.25 0.03961
3.3 0.04038
3.35 0.04105
3.4 0.03819
3.45 0.03108
3.5 0.02449
3.55 0.01706
3.6 0.01182
3.65 0.01037
3.7 0.00641
3.75 0.0042
3.8 0.00449
3.85 0.00931
3.9 0.01626
3.95 0.02294
4 0.02252
4.05 0.01839
4.1 0.0197
4.15 0.01944
4.2 0.01397
4.25 0.01039
4.3 0.01011
4.35 0.00652
4.4 0.00021
4.45 -0.00385
4.5 -0.00618
4.55 -0.00928
4.6 -0.02017
4.65 -0.03373
4.7 -0.04751
4.75 -0.06986
4.8 -0.09597
4.85 -0.1206
4.9 -0.15347
4.95 -0.19169
5 -0.22951
5.05 -0.2772
5.1 -0.32605
5.15 -0.38217
5.2 -0.44598
5.25 -0.51898
5.3 -0.59927
5.35 -0.68101
5.4 -0.76419
5.45 -0.84889
5.5 -0.94295
5.55 -1.04226
5.6 -1.13787
5.65 -1.23508
5.7 -1.33071
5.75 -1.42958
5.8 -1.52212
5.85 -1.61804
5.9 -1.71299
5.95 -1.80112
6 -1.88299
6.05 -1.95702
6.1 -2.03335
6.15 -2.10304
6.2 -2.16879
6.25 -2.22646
6.3 -2.2796
6.35 -2.33047
6.4 -2.37659
6.45 -2.41685
6.5 -2.45176
6.55 -2.48056
6.6 -2.49467
6.65 -2.50277
6.7 -2.49953
6.75 -2.47746
6.8 -2.43677
6.85 -2.38505
6.9 -2.31983
6.95 -2.24078
7 -2.14443
7.05 -2.0336
7.1 -1.90965
7.15 -1.7696
7.2 -1.61569
7.25 -1.44198
7.3 -1.25926
7.35 -1.06725
7.4 -0.86707
7.45 -0.66604
7.5 -0.45763
7.55 -0.254
7.6 -0.05535
7.65 0.14165
7.7 0.33123
7.75 0.52217
7.8 0.70721
7.85 0.88678
7.9 1.05572
7.95 1.21376
8 1.3534
8.05 1.48445
8.1 1.60047
8.15 1.70072
8.2 1.79225
8.25 1.87139
8.3 1.94162
8.35 2.00273
8.4 2.05979
8.45 2.10973
8.5 2.15057
8.55 2.18611
8.6 2.21331
8.65 2.23349
8.7 2.24418
8.75 2.24935
8.8 2.24968
8.85 2.24948
8.9 2.2436
8.95 2.2365
9 2.22626
9.05 2.21478
9.1 2.19794
9.15 2.18185
9.2 2.1607
9.25 2.13724
9.3 2.11273
9.35 2.08783
9.4 2.06489
9.45 2.04537
9.5 2.02216
9.55 1.99341
9.6 1.96487
9.65 1.93822
9.7 1.90578
9.75 1.87179
9.8 1.84226
9.85 1.81354
9.9 1.7804
9.95 1.74221
10 1.70136
10.05 1.66366
10.1 1.62577
10.15 1.58652
10.2 1.54398
10.25 1.50414
10.3 1.4632
10.35 1.42444
10.4 1.38055
10.45 1.33314
10.5 1.2824
10.55 1.23455
10.6 1.18569
10.65 1.13499
10.7 1.0857
10.75 1.04289
10.8 0.99919
10.85 0.95909
10.9 0.91356
10.95 0.87021
11 0.82802
11.05 0.78754
11.1 0.74254
11.15 0.69346
11.2 0.64755
11.25 0.60619
11.3 0.56503
11.35 0.52297
11.4 0.47591
11.45 0.43012
11.5 0.38261
11.55 0.33483
11.6 0.29503
11.65 0.25405
11.7 0.21742
11.75 0.18181
11.8 0.15288
11.85 0.12112
11.9 0.08911
11.95 0.06283
12 0.03839
12.05 0.01552
12.1 -0.0122
12.15 -0.04129
12.2 -0.06602
12.25 -0.08591
12.3 -0.10273
12.35 -0.11883
12.4 -0.135
12.45 -0.15586
12.5 -0.18057
12.55 -0.20464
12.6 -0.22308
12.65 -0.24201
12.7 -0.25692
12.75 -0.26798
12.8 -0.28305
12.85 -0.29884
12.9 -0.31353
12.95 -0.32513
13 -0.33445
13.05 -0.33969
13.1 -0.34379
13.15 -0.34851
13.2 -0.35609
13.25 -0.35706
13.3 -0.35636
13.35 -0.35225
13.4 -0.35546
13.45 -0.36172
13.5 -0.36297
13.55 -0.36345
13.6 -0.36114
13.65 -0.36195
13.7 -0.36448
13.75 -0.3642
13.8 -0.36041
13.85 -0.36055
13.9 -0.36353
13.95 -0.36467
14 -0.36422
14.05 -0.36636
14.1 -0.3671
14.15 -0.36841
14.2 -0.36945
14.25 -0.364
14.3 -0.36232
14.35 -0.36073
14.4 -0.36119
14.45 -0.35776
14.5 -0.34916
14.55 -0.34017
14.6 -0.33615
14.65 -0.33609
14.7 -0.32992
14.75 -0.32233
14.8 -0.31348
14.85 -0.30999
14.9 -0.30242
14.95 -0.29553
15 -0.29487
15.05 -0.28986
15.1 -0.29005
15.15 -0.28938
15.2 -0.28776
15.25 -0.28772
15.3 -0.28885
15.35 -0.28851
15.4 -0.28551
15.45 -0.2769
15.5 -0.26935
15.55 -0.26581
15.6 -0.25759
15.65 -0.24832
15.7 -0.23773
15.75 -0.227
15.8 -0.22029
15.85 -0.21769
15.9 -0.21265
15.95 -0.2076
16 -0.20571
16.05 -0.20529
16.1 -0.20975
16.15 -0.21658
16.2 -0.22229
16.25 -0.22243
16.3 -0.21621
16.35 -0.21502
16.4 -0.21466
16.45 -0.21007
16.5 -0.20687
16.55 -0.20061
16.6 -0.19081
16.65 -0.18782
16.7 -0.18137
16.75 -0.17637
16.8 -0.17529
16.85 -0.17268
16.9 -0.1728
16.95 -0.17353
17 -0.16967
17.05 -0.17045
17.1 -0.16529
17.15 -0.16155
17.2 -0.16189
17.25 -0.16179
17.3 -0.1628
17.35 -0.15832
17.4 -0.15509
17.45 -0.15105
17.5 -0.14559
17.55 -0.13858
17.6 -0.13762
17.65 -0.138
17.7 -0.14128
17.75 -0.14234
17.8 -0.13805
17.85 -0.13495
17.9 -0.12701
17.95 -0.12223
18 -0.11465
18.05 -0.10815
18.1 -0.10765
18.15 -0.1049
18.2 -0.10184
18.25 -0.09615
18.3 -0.09272
18.35 -0.09465
18.4 -0.09765
18.45 -0.09918
18.5 -0.10124
18.55 -0.10074
18.6 -0.09595
18.65 -0.09326
18.7 -0.08947
18.75 -0.09023
18.8 -0.09347
18.85 -0.09436
18.9 -0.08988
18.95 -0.08917
19 -0.09049
19.05 -0.09418
19.1 -0.0966
19.15 -0.09476
19.2 -0.09566
19.25 -0.09422
19.3 -0.09596
19.35 -0.09877
19.4 -0.09521
19.45 -0.09178
19.5 -0.08842
19.55 -0.08656
19.6 -0.08852
19.65 -0.08367
19.7 -0.07518
19.75 -0.06886
19.8 -0.06771
19.85 -0.06852
19.9 -0.07232
19.95 -0.07523
20 -0.07896
20.05 -0.07718
20.1 -0.07212
20.15 -0.07036
20.2 -0.06387
20.25 -0.06304
20.3 -0.06351
20.35 -0.05843
20.4 -0.05435
20.45 -0.05014
20.5 -0.04672
20.55 -0.04886
20.6 -0.0508
20.65 -0.05267
20.7 -0.05503
20.75 -0.05884
20.8 -0.05873
20.85 -0.05319
20.9 -0.05168
20.95 -0.05241
21 -0.05085
21.05 -0.05038
21.1 -0.04571
21.15 -0.04571
21.2 -0.04589
21.25 -0.04164
21.3 -0.0421
21.35 -0.04454
21.4 -0.04719
21.45 -0.04721
21.5 -0.04577
21.55 -0.04231
21.6 -0.0373
21.65 -0.03256
21.7 -0.02683
21.75 -0.02228
21.8 -0.02233
21.85 -0.0266
21.9 -0.03018
21.95 -0.03614
22 -0.03505
22.05 -0.03437
22.1 -0.03066
22.15 -0.03033
22.2 -0.0292
22.25 -0.02772
22.3 -0.0301
22.35 -0.02975
22.4 -0.03275
22.45 -0.03679
22.5 -0.03709
22.55 -0.03509
22.6 -0.03681
22.65 -0.04038
22.7 -0.04085
22.75 -0.03782
22.8 -0.03905
22.85 -0.038
22.9 -0.03756
22.95 -0.03723
23 -0.03606
23.05 -0.03766
23.1 -0.04142
23.15 -0.03759
23.2 -0.03063
23.25 -0.02373
23.3 -0.01526
23.35 -0.01458
23.4 -0.01522
23.45 -0.01955
23.5 -0.02389
23.55 -0.02176
23.6 -0.01604
23.65 -0.01065
23.7 -0.00638
23.75 0.0001
23.8 -0.00183
23.85 -0.00573
23.9 -0.01015
23.95 -0.00897
24 -0.005
24.05 0.00081
24.1 0.00418
24.15 0.00821
24.2 0.00408
24.25 -0.00115
24.3 -0.0097
24.35 -0.01727
24.4 -0.02634
24.45 -0.03109
24.5 -0.03143
24.55 -0.03178
24.6 -0.02716
24.65 -0.02631
24.7 -0.02289
24.75 -0.01544
24.8 -0.01112
24.85 -0.00459
24.9 0.00295
24.95 0.00424
25 0.00613
25.05 0.0061
25.1 0.00686
25.15 0.00615
25.2 0.00252
25.25 -0.00417
25.3 -0.01158
25.35 -0.01193
25.4 -0.01059
25.45 -0.00845
25.5 -0.01124
25.55 -0.01442
25.6 -0.01679
25.65 -0.01376
25.7 -0.00967
25.75 -0.00649
25.8 -0.0051
25.85 -0.00729
25.9 -0.00902
25.95 -0.00617
26 -0.0031
26.05 0.00253
26.1 0.0035
26.15 0.00436
26.2 0.00491
26.25 0.00293
26.3 0.00499
26.35 0.0042
26.4 0.00615
26.45 0.01044
26.5 0.01039
26.55 0.00599
26.6 0.00531
26.65 0.00277
26.7 -0.00411
26.75 -0.01024
26.8 -0.01866
26.85 -0.0233
26.9 -0.02765
26.95 -0.03046
27 -0.0272
27.05 -0.02056
27.1 -0.01253
27.15 -0.00925
27.2 -0.00267
27.25 0.00149
27.3 0.00379
27.35 0.00746
27.4 0.01153
27.45 0.01592
27.5 0.0169
27.55 0.01641
27.6 0.01192
27.65 0.01164
27.7 0.01262
27.75 0.00939
27.8 0.00891
27.85 0.00775
27.9 0.00368
27.95 -0.0026
28 -0.01073
28.05 -0.01154
28.1 -0.01196
28.15 -0.0094
28.2 -0.00466
28.25 -0.00099
28.3 0.00289
28.35 0.00393
28.4 0.00155
28.45 -0.00526
28.5 -0.01196
28.55 -0.01585
28.6 -0.0155
28.65 -0.012
28.7 -0.00741
28.75 -0.0071
28.8 -0.00764
28.85 -0.00862
28.9 -0.0088
28.95 -0.01231
29 -0.01382
29.05 -0.01962
29.1 -0.0272
29.15 -0.03396
29.2 -0.03808
29.25 -0.03498
29.3 -0.02968
29.35 -0.02774
29.4 -0.02247
29.45 -0.01887
29.5 -0.01379
29.55 -0.01507
29.6 -0.0198
29.65 -0.01935
29.7 -0.01716
29.75 -0.01774
29.8 -0.01379
29.85 -0.01028
29.9 -0.0063
29.95 -0.00211
30 0.00245
30.05 0.0088
30.1 0.01506
30.15 0.01818
30.2 0.01916
30.25 0.02065
30.3 0.01785
30.35 0.01111
30.4 0.00837
30.45 0.00879
30.5 0.00706
30.55 0.0064
30.6 0.01032
30.65 0.01778
30.7 0.02604
30.75 0.02907
30.8 0.02724
30.85 0.02529
30.9 0.02222
30.95 0.01999
31 0.02324
31.05 0.02169
31.1 0.01983
31.15 0.01481
31.2 0.01408
31.25 0.01056
31.3 0.00754
31.35 0.00296
31.4 0.00179
31.45 0.00149
31.5 0.00232
31.55 0.00229
31.6 0.00073
31.65 0.001
31.7 -0.00231
31.75 -0.00507
31.8 -0.00673
31.85 -0.00631
31.9 -0.00847
31.95 -0.00677
32 -0.00677
32.05 -0.00727
32.1 -0.01298
32.15 -0.0211
32.2 -0.02539
32.25 -0.02989
32.3 -0.03237
32.35 -0.03499
32.4 -0.03957
32.45 -0.04456
32.5 -0.04938
32.55 -0.04806
32.6 -0.04808
32.65 -0.0414
32.7 -0.03909
32.75 -0.03227
32.8 -0.02477
32.85 -0.01812
32.9 -0.00983
32.95 -0.00063
33 0.00582
33.05 0.00652
33.1 0.0051
33.15 0.00092
33.2 0.00055
33.25 0.00063
33.3 0.00226
33.35 -0.00026
33.4 0.00134
33.45 -0.00273
33.5 -0.00163
33.55 -0.00199
33.6 0.00069
33.65 0.00266
33.7 0.00478
33.75 0.00935
33.8 0.01499
33.85 0.02141
33.9 0.0267
33.95 0.02446
34 0.01692
34.05 0.00719
34.1 0.00394
34.15 -0.00109
34.2 -0.00639
34.25 -0.00659
34.3 -0.00723
34.35 -0.00559
34.4 -0.00228
34.45 -0.00257
34.5 -0.00275
34.55 -0.00668
34.6 -0.01053
34.65 -0.01638
34.7 -0.0204
34.75 -0.01814
34.8 -0.01206
34.85 -0.00597
34.9 -0.00389
34.95 -0.0068
35 -0.00591
35.05 -0.00073
35.1 0.00292
35.15 0.00932
35.2 0.00833
35.25 0.0075
35.3 0.00271
35.35 -0.00068
35.4 -0.00273
35.45 -0.00791
35.5 -0.0119
35.55 -0.0109
35.6 -0.00876
35.65 -0.00545
35.7 0.00031
35.75 0.00162
35.8 0.00306
35.85 0.0068
35.9 0.00967
35.95 0.00795
36 0.00547
36.05 -0.00071
36.1 -0.00596
36.15 -0.01363
36.2 -0.01684
36.25 -0.01898
36.3 -0.02336
36.35 -0.02132
36.4 -0.01749
36.45 -0.00926
36.5 -0.00511
36.55 -0.00121
36.6 -0.00323
36.65 -0.00826
36.7 -0.01198
36.75 -0.01342
36.8 -0.01188
36.85 -0.01224
36.9 -0.01109
36.95 -0.00841
37 -0.00574
37.05 -0.00397
37.1 0.00109
37.15 0.00041
37.2 0.00373
37.25 0.00467
37.3 0.00799
37.35 0.01108
37.4 0.01662
37.45 0.0184
37.5 0.01632
37.55 0.00912
37.6 0.00539
37.65 -0.00055
37.7 -0.00201
37.75 -0.00657
37.8 -0.00896
37.85 -0.00954
37.9 -0.00674
37.95 -0.00181
38 -0.0019
38.05 0.00184
38.1 0.00506
38.15 0.00922
38.2 0.00661
38.25 0.00363
38.3 0.00057
38.35 -0.00349
38.4 -0.00867
38.45 -0.00669
38.5 -0.00048
38.55 0.00075
38.6 0.00294
38.65 0.00101
38.7 0.00062
38.75 -0.00283
38.8 -0.00881
38.85 -0.00746
38.9 -0.00973
38.95 -0.01232
39 -0.01666
39.05 -0.014
39.1 -0.00693
39.15 -0.00063
39.2 0.00551
39.25 0.012
39.3 0.0125
39.35 0.00755
39.4 0.00569
39.45 0.00227
39.5 -0.00246
39.55 -0.00602
39.6 -0.01099
39.65 -0.011
39.7 -0.00832
39.75 -0.00464
39.8 -0.0043
39.85 -0.0003
39.9 0.004
39.95 0.01057
40 0.01142
40.05 0.01078
40.1 0.00761
40.15 0.00181
40.2 -0.0045
40.25 -0.00823
40.3 -0.01093
40.35 -0.00915
40.4 -0.00498
40.45 0.00207
40.5 0.00436
40.55 0.00224
40.6 -0.0003
40.65 -0.00648
40.7 -0.01103
40.75 -0.00934
40.8 -0.00693
40.85 -0.00445
40.9 0.0008
40.95 0.00708
41 0.01215
41.05 0.01194
41.1 0.00972
41.15 0.00726
41.2 0.00354
41.25 0.00263
41.3 -0.00017
41.35 -0.00327
41.4 -0.00095
41.45 -0.0013
41.5 -0.00288
41.55 -0.00674
41.6 -0.01253
41.65 -0.01655
41.7 -0.01389
41.75 -0.00701
41.8 -0.00579
41.85 -0.00085
41.9 -0.0001
41.95 0.00498
42 0.0068
42.05 0.00617
42.1 0.00484
42.15 0.0004
42.2 -0.00288
42.25 -0.00127
42.3 0.00117
42.35 0.00149
42.4 0.00013
42.45 -0.00224
42.5 -0.00201
42.55 -0.00501
42.6 -0.00667
42.65 -0.00835
42.7 -0.00936
42.75 -0.01303
42.8 -0.01627
42.85 -0.01261
42.9 -0.01231
42.95 -0.01122
43 -0.01251
43.05 -0.01465
43.1 -0.01823
43.15 -0.01538
43.2 -0.00806
43.25 -0.00549
43.3 0.00018
43.35 0.00529
43.4 0.01273
43.45 0.01656
43.5 0.02232
43.55 0.02099
43.6 0.02081
43.65 0.02079
43.7 0.01959
43.75 0.02039
43.8 0.02046
43.85 0.01687
43.9 0.00919
43.95 0.00062
44 -0.00769
44.05 -0.0133
44.1 -0.01724
44.15 -0.02183
44.2 -0.02166
44.25 -0.02168
44.3 -0.02126
44.35 -0.02053
44.4 -0.01788
44.45 -0.0178
44.5 -0.01978
44.55 -0.02069
44.6 -0.02344
44.65 -0.02239
44.7 -0.01523
44.75 -0.00857
44.8 -0.00501
44.85 -0.00014
44.9 0.00058
44.95 0.00015
45 -0.00438
45.05 -0.00492
45.1 -0.00544
45.15 -0.00908
45.2 -0.01006
45.25 -0.00836
45.3 -0.0104
45.35 -0.01005
45.4 -0.0048
45.45 -0.00456
45.5 -0.00313
45.55 0.00241
45.6 0.00336
45.65 0.00729
45.7 0.00674
45.75 0.00317
45.8 -0.00057
45.85 -0.00406
45.9 -0.00597
45.95 -0.00968
46 -0.00648
46.05 0.00048
46.1 0.00282
46.15 0.00768
46.2 0.0077
46.25 0.0089
46.3 0.0055
46.35 -0.00121
46.4 -0.00311
46.45 -0.00632
46.5 -0.00655
46.55 -0.00398
46.6 -0.00137
46.65 0.00429
46.7 0.00626
46.75 0.00672
46.8 0.00542
46.85 0.0044
46.9 0.007
46.95 0.01047
47 0.01641
47.05 0.02135
47.1 0.01917
47.15 0.02103
47.2 0.02228
47.25 0.02476
47.3 0.02356
47.35 0.01823
47.4 0.01638
47.45 0.01038
47.5 0.00382
47.55 -0.00365
47.6 -0.01005
47.65 -0.00936
47.7 -0.00774
47.75 -0.0067
47.8 -0.00578
47.85 -0.00329
47.9 -0.00564
47.95 -0.01002
48 -0.01301
48.05 -0.01509
48.1 -0.01885
48.15 -0.0202
48.2 -0.02265
48.25 -0.01944
48.3 -0.01789
48.35 -0.01447
48.4 -0.00634
48.45 0.00179
48.5 0.00642
48.55 0.00975
48.6 0.0119
48.65 0.01159
48.7 0.01202
48.75 0.00726
48.8 0.00537
48.85 0.00856
48.9 0.00959
48.95 0.01417
49 0.01219
49.05 0.00756
49.1 0.00608
49.15 0.00315
49.2 0.00466
49.25 0.00808
49.3 0.01041
49.35 0.00854
49.4 0.01051
49.45 0.01507
49.5 0.01362
49.55 0.00703
49.6 0.00306
49.65 0.00475
49.7 0.00309
49.75 0.00364
49.8 0.00753
49.85 0.0107
49.9 0.00715
49.95 0.00264
50 0.00172
50.05 0.00256
50.1 0.00048
50.15 0.00216
50.2 -0.00015
50.25 0.00282
50.3 0.00121
50.35 0.00252
50.4 0.00513
50.45 0.00873
50.5 0.01332
50.55 0.01818
50.6 0.02217
50.65 0.02027
50.7 0.0152
50.75 0.00787
50.8 0.0063
50.85 0.00715
50.9 0.00798
50.95 0.00876
51 0.00441
51.05 -0.00265
51.1 -0.00869
51.15 -0.01269
51.2 -0.01028
51.25 -0.0085
51.3 -0.00662
51.35 -0.00739
51.4 -0.01113
51.45 -0.00887
51.5 -0.00409
51.55 -0.00313
51.6 -0.00515
51.65 -0.00582
51.7 -0.00676
51.75 -0.0029
51.8 0.00193
51.85 0.0061
51.9 0.01163
51.95 0.01773
52 0.02387
52.05 0.02528
52.1 0.01986
52.15 0.01481
52.2 0.00878
52.25 0.00807
52.3 0.01054
52.35 0.0154
52.4 0.01846
52.45 0.0156
52.5 0.01524
52.55 0.01742
52.6 0.01655
52.65 0.01718
52.7 0.01878
52.75 0.01682
52.8 0.00953
52.85 -0.00037
52.9 -0.00429
52.95 -0.00286
53 0.00034
53.05 -0.00187
53.1 -0.00406
53.15 -0.00904
53.2 -0.01464
53.25 -0.01535
53.3 -0.01454
53.35 -0.01486
53.4 -0.01006
53.45 -0.00672
53.5 -0.00036
53.55 0.00301
53.6 0.00102
53.65 -0.00258
53.7 -0.00145
53.75 -0.00149
53.8 -0.00138
53.85 0.00157
53.9 0.00493
53.95 0.00539
54 0.00068
54.05 -0.0038
54.1 -0.00327
54.15 -0.00403
54.2 -0.00755
54.25 -0.01164
54.3 -0.01294
54.35 -0.01689
54.4 -0.01922
54.45 -0.01718
54.5 -0.01703
54.55 -0.01556
54.6 -0.00947
54.65 -0.00145
54.7 0.00709
54.75 0.01216
54.8 0.01851
54.85 0.01924
54.9 0.01322
54.95 0.00403
55 -0.00316
55.05 -0.00882
55.1 -0.01535
55.15 -0.0204
55.2 -0.0224
55.25 -0.02064
55.3 -0.01643
55.35 -0.01717
55.4 -0.01212
55.45 -0.00447
55.5 -0.00307
55.55 -0.00499
55.6 -0.00612
55.65 -0.0026
55.7 0.00068
55.75 0.0013
55.8 -0.00292
55.85 -0.00415
55.9 -0.00461
55.95 -0.00084
56 0.00133
56.05 0.00691
56.1 0.00911
56.15 0.0118
56.2 0.01539
56.25 0.01616
56.3 0.01863
56.35 0.02268
56.4 0.02424
56.45 0.02726
56.5 0.024
56.55 0.02158
56.6 0.01703
56.65 0.01022
56.7 0.00006
56.75 -0.00444
56.8 -0.01045
56.85 -0.01181
56.9 -0.01461
56.95 -0.01728
57 -0.02193
57.05 -0.02357
57.1 -0.02554
57.15 -0.02474
57.2 -0.01843
57.25 -0.00958
57.3 -0.00624
57.35 -0.00084
57.4 0.00425
57.45 0.01097
57.5 0.01257
57.55 0.01646
57.6 0.01454
57.65 0.00822
57.7 0.00434
57.75 0.00162
57.8 -0.00133
57.85 -0.00527
57.9 -0.01164
57.95 -0.01246
58 -0.00911
58.05 -0.00507
58.1 -0.00344
58.15 -0.00382
58.2 -0.00272
58.25 -0.00203
58.3 -0.00512
58.35 -0.00434
58.4 -0.00404
58.45 -0.00561
58.5 -0.00447
58.55 -0.00766
58.6 -0.01098
58.65 -0.01072
58.7 -0.00989
58.75 -0.00481
58.8 -0.00351
58.85 -0.00156
58.9 -0.00192
58.95 -0.00612
59 -0.01118
59.05 -0.01796
59.1 -0.02165
59.15 -0.0218
59.2 -0.02005
59.25 -0.01534
59.3 -0.01214
59.35 -0.00765
59.4 -0.00661
59.45 -0.00378
59.5 -0.00478
59.55 -0.00171
59.6 0.00318
59.65 0.00335
59.7 0.00151
59.75 0.00468
59.8 0.00519
59.85 0.00541
59.9 0.00684
59.95 0.0034
60 0.00532
60.05 0.01004
60.1 0.01517
60.15 0.01906
60.2 0.02059
60.25 0.02173
60.3 0.02107
60.35 0.01671
60.4 0.0155
60.45 0.01351
60.5 0.01357
60.55 0.01442
60.6 0.01522
60.65 0.01846
60.7 0.02286
60.75 0.02082
60.8 0.01531
60.85 0.00862
60.9 0.00314
60.95 -0.0021
61 -0.00627
61.05 -0.01206
61.1 -0.01512
61.15 -0.01881
61.2 -0.02035
61.25 -0.01765
61.3 -0.01306
61.35 -0.01269
61.4 -0.00822
61.45 -0.00134
61.5 0.0009
61.55 0.00461
61.6 0.00285
61.65 -0.00183
61.7 -0.00611
61.75 -0.00487
61.8 -0.00079
61.85 0.00382
61.9 0.00497
61.95 0.00229
62 -0.0021
62.05 -0.00637
62.1 -0.0117
62.15 -0.01003
62.2 -0.00974
62.25 -0.00889
62.3 -0.00824
62.35 -0.00487
62.4 -0.00309
62.45 -0.00238
62.5 0.00169
62.55 0.00478
62.6 0.0017
62.65 0.0015
62.7 0.00316
62.75 0.00779
62.8 0.01344
62.85 0.01469
62.9 0.01244
62.95 0.01179
63 0.0134
63.05 0.01107
63.1 0.00372
63.15 0.00274
63.2 0.00597
63.25 0.00452
63.3 0.0062
63.35 0.00242
63.4 -0.00466
63.45 -0.00649
63.5 -0.00694
63.55 -0.00645
63.6 -0.00566
63.65 -0.00583
63.7 -0.0101
63.75 -0.00848
63.8 -0.00501
63.85 0.00159
63.9 0.00437
63.95 0.00682
64 0.00664
64.05 0.00728
64.1 0.00359
64.15 -0.00342
64.2 -0.00813
64.25 -0.01048
64.3 -0.00803
64.35 -0.00729
64.4 -0.01045
64.45 -0.01296
64.5 -0.00917
64.55 -0.0102
64.6 -0.01043
64.65 -0.01348
64.7 -0.01275
64.75 -0.00823
64.8 -0.00789
64.85 -0.00527
64.9 -0.00297
64.95 -0.00191
65 -0.00235
65.05 -0.00716
65.1 -0.01398
65.15 -0.01923
65.2 -0.02261
65.25 -0.02418
65.3 -0.01859
65.35 -0.01403
65.4 -0.01383
65.45 -0.01542
65.5 -0.01826
65.55 -0.01735
65.6 -0.01366
65.65 -0.01279
65.7 -0.01532
65.75 -0.01112
65.8 -0.00763
65.85 -0.00326
65.9 -0.00021
65.95 0.00269
66 0.00734
66.05 0.00747
66.1 0.00375
66.15 -0.00013
66.2 -0.00347
66.25 -0.00927
66.3 -0.01159
66.35 -0.00766
66.4 -0.00647
66.45 -0.00187
66.5 0.00233
66.55 0.00152
66.6 0.00161
66.65 -0.00091
66.7 0.00199
66.75 0.00381
66.8 0.00589
66.85 0.00276
66.9 -0
66.95 -0.00466
67 -0.00908
67.05 -0.00677
67.1 -0.00718
67.15 -0.0054
67.2 -0.00174
67.25 0.00155
67.3 0.0017
67.35 0.00381
67.4 0.00958
67.45 0.01046
67.5 0.00817
67.55 0.00207
67.6 0.00199
67.65 0.00123
67.7 -0.00193
67.75 -0.00706
67.8 -0.01341
67.85 -0.02021
67.9 -0.01857
67.95 -0.01401
68 -0.01241
68.05 -0.00853
68.1 -0.00375
68.15 0.00027
68.2 0.004
68.25 0.00692
68.3 0.0104
68.35 0.01447
68.4 0.01542
68.45 0.01651
68.5 0.01266
68.55 0.01018
68.6 0.00911
68.65 0.00708
68.7 0.00606
68.75 0.00906
68.8 0.00658
68.85 0.00467
68.9 0.00557
68.95 0.00953
69 0.01186
69.05 0.00794
69.1 0.00696
69.15 0.00669
69.2 0.00749
69.25 0.01166
69.3 0.01721
69.35 0.01669
69.4 0.01521
69.45 0.0129
69.5 0.0096
69.55 0.00198
69.6 -0.00698
69.65 -0.01002
69.7 -0.01227
69.75 -0.01649
69.8 -0.01594
69.85 -0.01364
69.9 -0.01198
69.95 -0.00798
70 -0.0002
70.05 0.00124
70.1 0.00171
70.15 0.00295
70.2 0.00065
70.25 -0.00532
70.3 -0.00912
70.35 -0.01116
70.4 -0.00722
70.45 -0.00617
70.5 -0.00248
70.55 0.00206
70.6 0.00779
70.65 0.01172
70.7 0.0103
70.75 0.0092
70.8 0.00805
70.85 0.00711
70.9 0.01044
70.95 0.01456
71 0.01128
71.05 0.00896
71.1 0.003
71.15 -0.00153
71.2 -0.00765
71.25 -0.00796
71.3 -0.00656
71.35 -0.0092
71.4 -0.01104
71.45 -0.013
71.5 -0.01406
71.55 -0.01089
71.6 -0.00337
71.65 0.00367
71.7 0.00759
71.75 0.00739
71.8 0.00425
71.85 0.00135
71.9 -0.00354
71.95 -0.00682
72 -0.00816
72.05 -0.01279
72.1 -0.01323
72.15 -0.0139
72.2 -0.01473
72.25 -0.01273
72.3 -0.01458
72.35 -0.01616
72.4 -0.01929
72.45 -0.01655
72.5 -0.0178
72.55 -0.01428
72.6 -0.01342
72.65 -0.01552
72.7 -0.01861
72.75 -0.01915
72.8 -0.02135
72.85 -0.02406
72.9 -0.02411
72.95 -0.01899
73 -0.01823
73.05 -0.02048
73.1 -0.02186
73.15 -0.02144
73.2 -0.02158
73.25 -0.02375
73.3 -0.02198
73.35 -0.01646
73.4 -0.01565
73.45 -0.00886
73.5 -0.00341
73.55 -0.00033
73.6 -0.00184
73.65 -0.00172
73.7 0.00044
73.75 0.0056
73.8 0.0097
73.85 0.01475
73.9 0.01529
73.95 0.01816
74 0.0172
74.05 0.01881
74.1 0.01984
74.15 0.01763
74.2 0.01627
74.25 0.01142
74.3 0.00883
74.35 0.00948
74.4 0.01024
74.45 0.0107
74.5 0.01241
74.55 0.00895
74.6 0.00459
74.65 0.00281
74.7 0.00503
74.75 0.00312
74.8 0.00019
74.85 -0.00552
74.9 -0.01107
74.95 -0.01453
75 -0.0141
75.05 -0.01668
75.1 -0.0139
75.15 -0.00617
75.2 -0.00481
75.25 -0.00594
75.3 -0.00174
75.35 -0.00144
75.4 -0.00249
75.45 -0.00581
75.5 -0.00974
75.55 -0.00812
75.6 -0.00314
75.65 0.00426
75.7 0.01247
75.75 0.01938
75.8 0.01891
75.85 0.01939
75.9 0.01855
75.95 0.015
76 0.01589
76.05 0.01313
76.1 0.01345
76.15 0.01601
76.2 0.0155
76.25 0.0184
76.3 0.02017
76.35 0.01983
76.4 0.02202
76.45 0.02274
76.5 0.02577
76.55 0.02548
76.6 0.02218
76.65 0.02264
76.7 0.01636
76.75 0.01345
76.8 0.00958
76.85 0.00347
76.9 -0.0052
76.95 -0.01054
77 -0.01723
77.05 -0.01719
77.1 -0.01656
77.15 -0.01359
77.2 -0.0081
77.25 -0.00425
77.3 0.00253
77.35 0.00818
77.4 0.01386
77.45 0.0172
77.5 0.01436
77.55 0.00689
77.6 -0.00093
77.65 -0.00543
77.7 -0.00761
77.75 -0.01275
77.8 -0.01129
77.85 -0.00556
77.9 -0.00228
77.95 0.00007
78 0.0059
78.05 0.01359
78.1 0.02032
78.15 0.02589
78.2 0.02511
78.25 0.01923
78.3 0.01297
78.35 0.00828
78.4 0.00368
78.45 0.00476
78.5 0.0032
78.55 0.00211
78.6 0.00503
78.65 0.00873
78.7 0.00629
78.75 -0.00052
78.8 -0.00244
78.85 -0.00262
78.9 0.00137
78.95 0.00125
79 -0.00239
79.05 -0.0051
79.1 -0.00615
79.15 -0.00838
79.2 -0.00912
79.25 -0.005
79.3 -0.00369
79.35 -0.00011
79.4 0.00126
79.45 0.00526
79.5 0.00369
79.55 0.00611
79.6 0.00458
79.65 0.00594
79.7 0.00744
79.75 0.00901
79.8 0.00992
79.85 0.00692
79.9 0.00775
79.95 0.00623
80 0.00283
80.05 0.00427
80.1 0.009
80.15 0.01267
80.2 0.01511
80.25 0.01048
80.3 0.00598
80.35 0.0032
80.4 -0.00345
80.45 -0.00896
80.5 -0.01475
80.55 -0.01394
80.6 -0.01411
80.65 -0.01252
80.7 -0.01075
80.75 -0.01021
80.8 -0.01079
80.85 -0.01094
80.9 -0.00725
80.95 -0.00131
81 -0.0007
81.05 -0.00056
81.1 0.0039
81.15 0.00613
81.2 0.00444
81.25 0.0003
81.3 -0.00722
81.35 -0.00756
81.4 -0.01185
81.45 -0.01212
81.5 -0.01366
81.55 -0.01257
81.6 -0.00982
81.65 -0.00822
81.7 -0.00224
81.75 0.00406
81.8 0.01136
81.85 0.01845
81.9 0.02194
81.95 0.02592
82 0.02926
82.05 0.02924
82.1 0.02723
82.15 0.02786
82.2 0.02864
82.25 0.02279
82.3 0.0158
82.35 0.00597
82.4 -0.00134
82.45 -0.00837
82.5 -0.01291
82.55 -0.01756
82.6 -0.01583
82.65 -0.01172
82.7 -0.00516
82.75 -0.00024
82.8 -0.0001
82.85 -0.00232
82.9 -0.00684
82.95 -0.00658
83 -0.00344
83.05 -0.00027
83.1 -0.00232
83.15 -0.00487
83.2 -0.00704
83.25 -0.00486
83.3 -0.00379
83.35 -0.00371
83.4 -0.00096
83.45 0.00272
83.5 0.00246
83.55 0.00225
83.6 -0.00069
83.65 0.00057
83.7 -0.00265
83.75 -0.00823
83.8 -0.01328
83.85 -0.01608
83.9 -0.01538
83.95 -0.01841
84 -0.02331
84.05 -0.02443
84.1 -0.02338
84.15 -0.02419
84.2 -0.02732
84.25 -0.0316
84.3 -0.02805
84.35 -0.0198
84.4 -0.01275
84.45 -0.00652
84.5 -0.00212
84.55 -0.00035
84.6 -0.00134
84.65 0.00226
84.7 0.00495
84.75 0.00289
84.8 -0.00238
84.85 -0.00717
84.9 -0.0109
84.95 -0.01035
85 -0.00738
85.05 -0.00261
85.1 0.00043
85.15 0.00383
85.2 0.00151
85.25 -0.00456
85.3 -0.00369
85.35 -0.00386
85.4 -0.00212
85.45 0.00332
85.5 0.00407
85.55 0.0042
85.6 0.00498
85.65 0.00375
85.7 -0.00009
85.75 -0.00614
85.8 -0.01295
85.85 -0.01324
85.9 -0.01354
85.95 -0.0111
86 -0.01162
86.05 -0.01443
86.1 -0.01271
86.15 -0.00984
86.2 -0.00665
86.25 -0.00463
86.3 -0.00159
86.35 0.00142
86.4 -0.00028
86.45 -0.0044
86.5 -0.00933
86.55 -0.0093
86.6 -0.01051
86.65 -0.01453
86.7 -0.01473
86.75 -0.01282
86.8 -0.00618
86.85 -0.00254
86.9 0.00072
86.95 0.00665
87 0.00989
87.05 0.01402
87.1 0.01554
87.15 0.0138
87.2 0.01485
87.25 0.01251
87.3 0.00901
87.35 0.00508
87.4 0.00287
87.45 -0.00076
87.5 0.00004
87.55 0.00356
87.6 0.00724
87.65 0.00931
87.7 0.00568
87.75 0.00254
87.8 0.00071
87.85 -0.00068
87.9 -0.00129
87.95 0.0012
88 0.00012
88.05 0.00375
88.1 0.00284
88.15 0.00514
88.2 0.009
88.25 0.00679
88.3 0.0039
88.35 0.00422
88.4 -0.00039
88.45 -0.00204
88.5 0.00149
88.55 0.00607
88.6 0.00897
88.65 0.00777
88.7 0.00325
88.75 -0.00029
88.8 -0.00544
88.85 -0.0053
88.9 -0.00926
88.95 -0.00944
89 -0.00963
89.05 -0.0107
89.1 -0.01108
89.15 -0.00853
89.2 -0.00959
89.25 -0.01029
89.3 -0.00627
89.35 -0.00141
89.4 -0.00149
89.45 0.00169
89.5 0.00235
89.55 0.00325
89.6 0.00681
89.65 0.01133
89.7 0.01407
89.75 0.0172
89.8 0.01961
89.85 0.01729
89.9 0.01808
89.95 0.01334
90 0.00862
90.05 0.00901
90.1 0.00956
90.15 0.00545
90.2 0.0049
90.25 0.00005
90.3 -0.00053
90.35 0.00342
90.4 0.00956
90.45 0.00967
90.5 0.00675
90.55 0.0085
90.6 0.00969
90.65 0.01198
90.7 0.01372
90.75 0.01611
90.8 0.01605
90.85 0.01877
90.9 0.0169
90.95 0.01135
91 0.00908
91.05 0.00772
91.1 0.00278
91.15 -0.00466
91.2 -0.00753
91.25 -0.00753
91.3 -0.00926
91.35 -0.01138
91.4 -0.01386
91.45 -0.01184
91.5 -0.00813
91.55 -0.00792
91.6 -0.00836
91.65 -0.01174
91.7 -0.01656
91.75 -0.01865
91.8 -0.02087
91.85 -0.0242
91.9 -0.02787
91.95 -0.02907
92 -0.02789
92.05 -0.02429
92.1 -0.0178
92.15 -0.0097
92.2 -0.00467
92.25 0.0034
92.3 0.00432
92.35 0.00731
92.4 0.00624
92.45 0.00943
92.5 0.0112
92.55 0.00932
92.6 0.00318
92.65 0.00108
92.7 0.00414
92.75 0.00876
92.8 0.01244
92.85 0.01056
92.9 0.00964
92.95 0.00433
93 0.00464
93.05 0.00687
93.1 0.00628
93.15 0.00287
93.2 -0.00152
93.25 -0.00788
93.3 -0.01143
93.35 -0.01424
93.4 -0.0137
93.45 -0.01355
93.5 -0.01595
93.55 -0.01994
93.6 -0.01895
93.65 -0.01904
93.7 -0.01471
93.75 -0.01108
93.8 -0.01233
93.85 -0.01263
93.9 -0.01155
93.95 -0.00528
94 -0.00446
94.05 -0.00044
94.1 0.00458
94.15 0.00859
94.2 0.01349
94.25 0.01305
94.3 0.01028
94.35 0.00862
94.4 0.01137
94.45 0.01234
94.5 0.01236
94.55 0.01035
94.6 0.00537
94.65 0.00267
94.7 -0.001
94.75 -0.00135
94.8 -0.00388
94.85 -0.00159
94.9 -0.00019
94.95 -0.00328
95 -0.00288
95.05 -0.00697
95.1 -0.00606
95.15 -0.00772
95.2 -0.00353
95.25 -0.00158
95.3 -0.00056
95.35 0.00455
95.4 0.00778
95.45 0.0121
95.5 0.01307
95.55 0.01477
95.6 0.01164
95.65 0.00406
95.7 0.00322
95.75 0.00653
95.8 0.00651
95.85 0.00419
95.9 0.00626
95.95 0.01146
96 0.01427
96.05 0.01666
96.1 0.01975
96.15 0.02204
96.2 0.02113
96.25 0.01908
96.3 0.01805
96.35 0.01816
96.4 0.01819
96.45 0.01504
96.5 0.00968
96.55 0.00908
96.6 0.00644
96.65 0.00802
96.7 0.01043
96.75 0.0104
96.8 0.00471
96.85 0.00237
96.9 -0.00201
96.95 -0.00301
97 -0.00717
97.05 -0.01211
97.1 -0.01457
97.15 -0.0166
97.2 -0.01865
97.25 -0.01679
97.3 -0.01432
97.35 -0.01012
97.4 -0.00412
97.45 -0.00242
97.5 -0.00107
97.55 0.00416
97.6 0.00859
97.65 0.00574
97.7 0.00602
97.75 0.00285
97.8 0.00283
97.85 0.00401
97.9 0.00687
97.95 0.00941
98 0.00936
98.05 0.01007
98.1 0.00947
98.15 0.00753
98.2 0.00582
98.25 0.00324
98.3 0.00147
98.35 0.00055
98.4 -0.00388
98.45 -0.00503
98.5 -0.00603
98.55 -0.00449
98.6 -0.00409
98.65 -0.0021
98.7 -0.00018
98.75 -0.00249
98.8 -0.00369
98.85 -0.00247
98.9 -0.00209
98.95 0.00193
99 -0.00037
99.05 0.00042
99.1 -0.00187
99.15 -0.00001
99.2 0.00421
99.25 0.00713
99.3 0.00426
99.35 0.00094
99.4 0.00098
99.45 0.00432
99.5 0.00341
99.55 0.00109
99.6 0.00213
99.65 0.00562
99.7 0.0035
99.75 -0.00215
99.8 -0.00397
99.85 -0.0099
99.9 -0.01216
99.95 -0.01151
