0 0
0.05 0.00866
0.1 0.01647
0.15 0.027
0.2 0.03647
0.25 0.04608
0.3 0.05075
0.35 0.05598
0.4 0.05718
0.45 0.06134
0.5 0.05916
0.55 0.0524
0.6 0.04899
0.65 0.05043
0.7 0.05248
0.75 0.05076
0.8 0.04593
0.85 0.04433
0.9 0.04456
0.95 0.04723
1 0.05227
1.05 0.05626
1.1 0.05587
1.15 0.05695
1.2 0.05356
1.25 0.04793
1.3 0.04413
1.35 0.04485
1.4 0.0465
1.45 0.04671
1.5 0.04719
1.55 0.04687
1.6 0.04766
1.65 0.04533
1.7 0.04705
1.75 0.04325
1.8 0.04241
1.85 0.04428
1.9 0.04436
1.95 0.04437
2 0.04324
2.05 0.04469
2.1 0.045
2.15 0.04676
2.2 0.04475
2.25 0.04077
2.3 0.03479
2.35 0.0297
2.4 0.02519
2.45 0.02371
2.5 0.02183
2.55 0.02132
2.6 0.02495
2.65 0.02773
2.7 0.03192
2.75 0.02947
2.8 0.02655
2.85 0.02247
2.9 0.01895
2.95 0.01512
3 0.01429
3.05 0.01011
3.1 0.00928
3.15 0.00759
3.2 0.00845
3.25 0.00758
3.3 0.00643
3.35 0.00854
3.4 0.00986
3.45 0.01542
3.5 0.01911
3.55 0.01905
3.6 0.01423
3.65 0.00834
3.7 0.00384
3.75 0.00124
3.8 -0.00264
3.85 -0.00189
3.9 -0.00013
3.95 -0.00077
4 0.00404
4.05 0.00856
4.1 0.00692
4.15 0.004
4.2 0.00162
4.25 0.00223
4.3 0.00652
4.35 0.00893
4.4 0.00997
4.45 0.00952
4.5 0.00203
4.55 -0.0109
4.6 -0.02733
4.65 -0.04273
4.7 -0.06398
4.75 -0.09017
4.8 -0.11768
4.85 -0.15007
4.9 -0.18027
4.95 -0.213
5 -0.25458
5.05 -0.29661
5.1 -0.34799
5.15 -0.40124
5.2 -0.45704
5.25 -0.52349
5.3 -0.59781
5.35 -0.67601
5.4 -0.76043
5.45 -0.84695
5.5 -0.93653
5.55 -1.02948
5.6 -1.12662
5.65 -1.22513
5.7 -1.32182
5.75 -1.41655
5.8 -1.51238
5.85 -1.60677
5.9 -1.69261
5.95 -1.77904
6 -1.85939
6.05 -1.93653
6.1 -2.00897
6.15 -2.07609
6.2 -2.14176
6.25 -2.2016
6.3 -2.25347
6.35 -2.29729
6.4 -2.33651
6.45 -2.36952
6.5 -2.39283
6.55 -2.41253
6.6 -2.42602
6.65 -2.42755
6.7 -2.41943
6.75 -2.39701
6.8 -2.36129
6.85 -2.3109
6.9 -2.23815
6.95 -2.14717
7 -2.04283
7.05 -1.92411
7.1 -1.7928
7.15 -1.64362
7.2 -1.48094
7.25 -1.30631
7.3 -1.12218
7.35 -0.93376
7.4 -0.7385
7.45 -0.54021
7.5 -0.33898
7.55 -0.13498
7.6 0.06284
7.65 0.25936
7.7 0.44604
7.75 0.62836
7.8 0.80377
7.85 0.96533
7.9 1.11356
7.95 1.25302
8 1.37986
8.05 1.49307
8.1 1.59841
8.15 1.69619
8.2 1.78552
8.25 1.86497
8.3 1.9312
8.35 1.98727
8.4 2.03326
8.45 2.06792
8.5 2.0889
8.55 2.1089
8.6 2.12116
8.65 2.13131
8.7 2.13269
8.75 2.12846
8.8 2.11933
8.85 2.10636
8.9 2.09382
8.95 2.07753
9 2.06374
9.05 2.05237
9.1 2.04017
9.15 2.03042
9.2 2.02068
9.25 2.00853
9.3 1.9953
9.35 1.97528
9.4 1.95649
9.45 1.93511
9.5 1.91115
9.55 1.88586
9.6 1.85947
9.65 1.82998
9.7 1.79993
9.75 1.77315
9.8 1.74478
9.85 1.7134
9.9 1.68014
9.95 1.65163
10 1.62122
10.05 1.58711
10.1 1.55017
10.15 1.51193
10.2 1.47464
10.25 1.44234
10.3 1.40503
10.35 1.36593
10.4 1.32845
10.45 1.2913
10.5 1.25076
10.55 1.20621
10.6 1.16141
10.65 1.11552
10.7 1.0682
10.75 1.02366
10.8 0.98075
10.85 0.93722
10.9 0.8932
10.95 0.85153
11 0.80998
11.05 0.76527
11.1 0.72378
11.15 0.68003
11.2 0.6325
11.25 0.58243
11.3 0.5331
11.35 0.48768
11.4 0.4445
11.45 0.40737
11.5 0.36749
11.55 0.33109
11.6 0.29612
11.65 0.26389
11.7 0.23343
11.75 0.20102
11.8 0.16518
11.85 0.13078
11.9 0.0986
11.95 0.06571
12 0.03066
12.05 -0.00519
12.1 -0.03492
12.15 -0.05719
12.2 -0.07549
12.25 -0.09085
12.3 -0.10513
12.35 -0.12158
12.4 -0.13949
12.45 -0.15474
12.5 -0.17382
12.55 -0.19188
12.6 -0.2085
12.65 -0.22615
12.7 -0.23986
12.75 -0.25418
12.8 -0.27088
12.85 -0.28123
12.9 -0.28845
12.95 -0.29293
13 -0.29927
13.05 -0.30766
13.1 -0.31284
13.15 -0.32044
13.2 -0.32711
13.25 -0.33002
13.3 -0.33303
13.35 -0.33439
13.4 -0.33327
13.45 -0.33521
13.5 -0.33549
13.55 -0.34256
13.6 -0.35313
13.65 -0.36446
13.7 -0.36902
13.75 -0.37277
13.8 -0.37372
13.85 -0.37167
13.9 -0.37204
13.95 -0.36931
14 -0.36395
14.05 -0.35958
14.1 -0.35708
14.15 -0.35293
14.2 -0.34904
14.25 -0.34288
14.3 -0.33489
14.35 -0.32785
14.4 -0.31896
14.45 -0.31183
14.5 -0.30577
14.55 -0.30114
14.6 -0.30349
14.65 -0.30252
14.7 -0.30614
14.75 -0.30802
14.8 -0.30749
14.85 -0.30379
14.9 -0.297
14.95 -0.29576
15 -0.28993
15.05 -0.28249
15.1 -0.2818
15.15 -0.28063
15.2 -0.27526
15.25 -0.27003
15.3 -0.26646
15.35 -0.26512
15.4 -0.25933
15.45 -0.25557
15.5 -0.25254
15.55 -0.25266
15.6 -0.25615
15.65 -0.25784
15.7 -0.25873
15.75 -0.25609
15.8 -0.25562
15.85 -0.25335
15.9 -0.25139
15.95 -0.24789
16 -0.24069
16.05 -0.22984
16.1 -0.21729
16.15 -0.20505
16.2 -0.19604
16.25 -0.18636
16.3 -0.18108
16.35 -0.17545
16.4 -0.17055
16.45 -0.17031
16.5 -0.16771
16.55 -0.16265
16.6 -0.16428
16.65 -0.17076
16.7 -0.1782
16.75 -0.17808
16.8 -0.17847
16.85 -0.17516
16.9 -0.17477
16.95 -0.17552
17 -0.17156
17.05 -0.16886
17.1 -0.16724
17.15 -0.16107
17.2 -0.15552
17.25 -0.15131
17.3 -0.14365
17.35 -0.1346
17.4 -0.13279
17.45 -0.13381
17.5 -0.13809
17.55 -0.14394
17.6 -0.14857
17.65 -0.15044
17.7 -0.15147
17.75 -0.15232
17.8 -0.15447
17.85 -0.15204
17.9 -0.14968
17.95 -0.14894
18 -0.144
18.05 -0.13966
18.1 -0.13127
18.15 -0.12743
18.2 -0.12622
18.25 -0.12341
18.3 -0.11716
18.35 -0.10911
18.4 -0.10138
18.45 -0.09906
18.5 -0.09712
18.55 -0.09981
18.6 -0.09892
18.65 -0.0993
18.7 -0.0989
18.75 -0.09332
18.8 -0.09011
18.85 -0.09062
18.9 -0.08694
18.95 -0.08875
19 -0.08519
19.05 -0.07815
19.1 -0.07198
19.15 -0.07146
19.2 -0.07499
19.25 -0.07825
19.3 -0.07563
19.35 -0.07319
19.4 -0.06977
19.45 -0.06506
19.5 -0.06039
19.55 -0.05579
19.6 -0.05445
19.65 -0.05412
19.7 -0.05317
19.75 -0.05391
19.8 -0.05472
19.85 -0.05673
19.9 -0.06001
19.95 -0.05878
20 -0.05405
20.05 -0.04734
20.1 -0.04825
20.15 -0.05207
20.2 -0.05701
20.25 -0.06161
20.3 -0.06242
20.35 -0.06535
20.4 -0.07066
20.45 -0.07501
20.5 -0.07437
20.55 -0.06906
20.6 -0.06679
20.65 -0.06315
20.7 -0.06115
20.75 -0.05564
20.8 -0.05548
20.85 -0.05444
20.9 -0.0521
20.95 -0.04636
21 -0.04697
21.05 -0.04623
21.1 -0.04598
21.15 -0.04593
21.2 -0.04188
21.25 -0.04092
21.3 -0.04228
21.35 -0.03942
21.4 -0.03394
21.45 -0.03184
21.5 -0.0356
21.55 -0.04221
21.6 -0.04586
21.65 -0.05176
21.7 -0.05775
21.75 -0.05971
21.8 -0.05422
21.85 -0.04983
21.9 -0.04212
21.95 -0.04009
22 -0.0412
22.05 -0.03682
22.1 -0.02936
22.15 -0.0266
22.2 -0.02153
22.25 -0.01843
22.3 -0.02149
22.35 -0.0267
22.4 -0.03087
22.45 -0.03546
22.5 -0.03564
22.55 -0.03229
22.6 -0.03298
22.65 -0.03196
22.7 -0.03335
22.75 -0.03741
22.8 -0.03504
22.85 -0.03526
22.9 -0.0326
22.95 -0.02599
23 -0.02174
23.05 -0.01641
23.1 -0.01129
23.15 -0.0057
23.2 -0.00118
23.25 0.00127
23.3 -0.00129
23.35 -0.00846
23.4 -0.00967
23.45 -0.01261
23.5 -0.01553
23.55 -0.01588
23.6 -0.01376
23.65 -0.0129
23.7 -0.01544
23.75 -0.01558
23.8 -0.0174
23.85 -0.02041
23.9 -0.026
23.95 -0.02705
24 -0.02791
24.05 -0.0236
24.1 -0.01594
24.15 -0.01062
24.2 -0.00988
24.25 -0.01016
24.3 -0.00643
24.35 -0.00117
24.4 -0.00185
24.45 -0.00651
24.5 -0.00611
24.55 -0.01048
24.6 -0.01652
24.65 -0.02383
24.7 -0.02686
24.75 -0.02811
24.8 -0.0313
24.85 -0.03372
24.9 -0.03456
24.95 -0.02895
25 -0.02649
25.05 -0.02633
25.1 -0.02067
25.15 -0.01915
25.2 -0.01672
25.25 -0.01336
25.3 -0.01308
25.35 -0.01313
25.4 -0.01737
25.45 -0.02053
25.5 -0.01742
25.55 -0.01319
25.6 -0.00768
25.65 -0.00683
25.7 -0.00373
25.75 0.00083
25.8 0.00361
25.85 0.00844
25.9 0.00625
25.95 -0.00047
26 -0.0076
26.05 -0.00998
26.1 -0.00738
26.15 -0.00167
26.2 0.00283
26.25 0.00685
26.3 0.0064
26.35 0.00127
26.4 -0.00362
26.45 -0.00428
26.5 -0.00125
26.55 0.00372
26.6 0.00204
26.65 0.00111
26.7 0.00385
26.75 0.00038
26.8 -0.00341
26.85 -0.00553
26.9 -0.00613
26.95 -0.01079
27 -0.01794
27.05 -0.02011
27.1 -0.01982
27.15 -0.0205
27.2 -0.01775
27.25 -0.01147
27.3 -0.01009
27.35 -0.01079
27.4 -0.01384
27.45 -0.01267
27.5 -0.00859
27.55 -0.00836
27.6 -0.00758
27.65 -0.00624
27.7 -0.00535
27.75 -0.0007
27.8 0.00187
27.85 0.00504
27.9 0.00245
27.95 -0.00036
28 -0.00499
28.05 -0.00727
28.1 -0.01163
28.15 -0.01136
28.2 -0.00814
28.25 -0.00581
28.3 -0.00884
28.35 -0.01225
28.4 -0.0175
28.45 -0.02415
28.5 -0.02961
28.55 -0.03361
28.6 -0.0378
28.65 -0.04341
28.7 -0.04337
28.75 -0.04016
28.8 -0.0415
28.85 -0.03964
28.9 -0.03513
28.95 -0.02961
29 -0.02733
29.05 -0.0304
29.1 -0.03838
29.15 -0.0445
29.2 -0.04577
29.25 -0.05079
29.3 -0.05184
29.35 -0.0579
29.4 -0.06787
29.45 -0.07875
29.5 -0.08486
29.55 -0.09084
29.6 -0.09222
29.65 -0.09625
29.7 -0.10195
29.75 -0.10698
29.8 -0.11077
29.85 -0.11495
29.9 -0.11867
29.95 -0.12239
30 -0.12122
30.05 -0.12482
30.1 -0.12271
30.15 -0.11772
30.2 -0.11641
30.25 -0.11914
30.3 -0.11815
30.35 -0.11797
30.4 -0.11658
30.45 -0.11151
30.5 -0.10596
30.55 -0.09772
30.6 -0.08699
30.65 -0.07627
30.7 -0.06714
30.75 -0.05427
30.8 -0.04318
30.85 -0.03562
30.9 -0.02693
30.95 -0.0188
31 -0.01289
31.05 -0.00485
31.1 0.00687
31.15 0.01438
31.2 0.01991
31.25 0.02912
31.3 0.04354
31.35 0.05607
31.4 0.06675
31.45 0.07263
31.5 0.07777
31.55 0.08213
31.6 0.08251
31.65 0.08774
31.7 0.09773
31.75 0.10717
31.8 0.11276
31.85 0.11269
31.9 0.10955
31.95 0.1068
32 0.10145
32.05 0.09744
32.1 0.09333
32.15 0.09545
32.2 0.09837
32.25 0.10539
32.3 0.10656
32.35 0.10269
32.4 0.09568
32.45 0.09581
32.5 0.09541
32.55 0.09389
32.6 0.08894
32.65 0.08097
32.7 0.07208
32.75 0.06212
32.8 0.0584
32.85 0.0559
32.9 0.05757
32.95 0.05724
33 0.0549
33.05 0.05616
33.1 0.05321
33.15 0.05187
33.2 0.04578
33.25 0.03989
33.3 0.03439
33.35 0.03044
33.4 0.03159
33.45 0.03343
33.5 0.03507
33.55 0.03288
33.6 0.03358
33.65 0.03643
33.7 0.04141
33.75 0.04231
33.8 0.04116
33.85 0.04209
33.9 0.03889
33.95 0.03857
34 0.03317
34.05 0.02418
34.1 0.01519
34.15 0.01356
34.2 0.0128
34.25 0.01041
34.3 0.00531
34.35 0.00641
34.4 0.00998
34.45 0.01648
34.5 0.02215
34.55 0.02842
34.6 0.0335
34.65 0.03346
34.7 0.02799
34.75 0.02606
34.8 0.02098
34.85 0.01536
34.9 0.01536
34.95 0.01392
35 0.00951
35.05 0.00951
35.1 0.00967
35.15 0.01442
35.2 0.01258
35.25 0.01214
35.3 0.01625
35.35 0.01399
35.4 0.01623
35.45 0.02056
35.5 0.02446
35.55 0.02816
35.6 0.03048
35.65 0.02602
35.7 0.02152
35.75 0.02097
35.8 0.01582
35.85 0.01244
35.9 0.0137
35.95 0.01687
36 0.01616
36.05 0.01308
36.1 0.01028
36.15 0.01013
36.2 0.01004
36.25 0.00653
36.3 0.00749
36.35 0.00631
36.4 0.00643
36.45 0.00434
36.5 0.0051
36.55 0.00799
36.6 0.01224
36.65 0.00919
36.7 0.00196
36.75 -0.00691
36.8 -0.01673
36.85 -0.02196
36.9 -0.02467
36.95 -0.02603
37 -0.02343
37.05 -0.0178
37.1 -0.0123
37.15 -0.01046
37.2 -0.0113
37.25 -0.01172
37.3 -0.01179
37.35 -0.01448
37.4 -0.01489
37.45 -0.01655
37.5 -0.02172
37.55 -0.02641
37.6 -0.03104
37.65 -0.03534
37.7 -0.03564
37.75 -0.03771
37.8 -0.03997
37.85 -0.03852
37.9 -0.03205
37.95 -0.03036
38 -0.03082
38.05 -0.03263
38.1 -0.02843
38.15 -0.02462
38.2 -0.01684
38.25 -0.00946
38.3 -0.00507
38.35 -0.00471
38.4 -0.00845
38.45 -0.00833
38.5 -0.01209
38.55 -0.01001
38.6 -0.0124
38.65 -0.015
38.7 -0.01556
38.75 -0.01737
38.8 -0.01526
38.85 -0.01435
38.9 -0.0149
38.95 -0.01421
39 -0.00976
39.05 -0.00476
39.1 -0.0032
39.15 -0.00668
39.2 -0.01351
39.25 -0.01784
39.3 -0.01628
39.35 -0.01481
39.4 -0.00873
39.45 -0.00549
39.5 -0.00231
39.55 0.0017
39.6 0.00553
39.65 0.00749
39.7 0.00778
39.75 0.00417
39.8 -0.00083
39.85 -0.00534
39.9 -0.00957
39.95 -0.01111
40 -0.01106
40.05 -0.00726
40.1 -0.00256
40.15 -0.00215
40.2 -0.00348
40.25 -0.00879
40.3 -0.00946
40.35 -0.00958
40.4 -0.00971
40.45 -0.00497
40.5 -0.0052
40.55 -0.00877
40.6 -0.00855
40.65 -0.0104
40.7 -0.0152
40.75 -0.01449
40.8 -0.01269
40.85 -0.01
40.9 -0.00869
40.95 -0.00978
41 -0.01368
41.05 -0.01605
41.1 -0.01832
41.15 -0.01501
41.2 -0.01384
41.25 -0.01269
41.3 -0.01417
41.35 -0.01401
41.4 -0.0107
41.45 -0.00847
41.5 -0.00207
41.55 0.00129
41.6 0.00489
41.65 0.0041
41.7 0.00572
41.75 0.00568
41.8 0.00642
41.85 0.01022
41.9 0.0097
41.95 0.01221
42 0.01548
42.05 0.01808
42.1 0.02239
42.15 0.02497
42.2 0.02525
42.25 0.02595
42.3 0.02207
42.35 0.01644
42.4 0.00984
42.45 -0.00019
42.5 -0.00648
42.55 -0.0065
42.6 -0.00377
42.65 -0.00264
42.7 -0.00335
42.75 -0.00416
42.8 -0.00446
42.85 -0.00197
42.9 0.0038
42.95 0.00424
43 0.00621
43.05 0.00342
43.1 0.00111
43.15 -0.00151
43.2 -0.00117
43.25 -0.00446
43.3 -0.00809
43.35 -0.01141
43.4 -0.01572
43.45 -0.02159
43.5 -0.02113
43.55 -0.01783
43.6 -0.00996
43.65 -0.00829
43.7 -0.01136
43.75 -0.01205
43.8 -0.01387
43.85 -0.01809
43.9 -0.01882
43.95 -0.01367
44 -0.00814
44.05 -0.00187
44.1 -0.00212
44.15 0.00234
44.2 0.00658
44.25 0.01199
44.3 0.01342
44.35 0.00956
44.4 0.00233
44.45 -0.00363
44.5 -0.01023
44.55 -0.01301
44.6 -0.01703
44.65 -0.02136
44.7 -0.02607
44.75 -0.02913
44.8 -0.02668
44.85 -0.02512
44.9 -0.01893
44.95 -0.01793
45 -0.01863
45.05 -0.01967
45.1 -0.01619
45.15 -0.0122
45.2 -0.00555
45.25 0.00281
45.3 0.00916
45.35 0.01519
45.4 0.02168
45.45 0.02015
45.5 0.01464
45.55 0.00648
45.6 0.00153
45.65 -0.00014
45.7 -0.00363
45.75 -0.00794
45.8 -0.01182
45.85 -0.01721
45.9 -0.01459
45.95 -0.00707
46 -0.00393
46.05 0.00056
46.1 0.00445
46.15 0.00208
46.2 0.00213
46.25 0.00242
46.3 -0.00208
46.35 -0.00513
46.4 -0.00987
46.45 -0.01444
46.5 -0.01235
46.55 -0.01009
46.6 -0.00495
46.65 -0.00231
46.7 -0.00431
46.75 -0.0037
46.8 0.00163
46.85 0.00788
46.9 0.0118
46.95 0.018
47 0.02157
47.05 0.0205
47.1 0.0153
47.15 0.01143
47.2 0.01135
47.25 0.01282
47.3 0.01285
47.35 0.00736
47.4 0.00381
47.45 -0.00191
47.5 -0.00331
47.55 -0.00717
47.6 -0.00687
47.65 -0.00968
47.7 -0.011
47.75 -0.01116
47.8 -0.01434
47.85 -0.01593
47.9 -0.01982
47.95 -0.02057
48 -0.02134
48.05 -0.01766
48.1 -0.01469
48.15 -0.00808
48.2 -0.00314
48.25 0.00095
48.3 0.00547
48.35 0.0073
48.4 0.00795
48.45 0.00482
48.5 0.00011
48.55 -0.00636
48.6 -0.00659
48.65 -0.003
48.7 -0.00163
48.75 0.00194
48.8 0.00333
48.85 0.00623
48.9 0.0039
48.95 -0.00215
49 -0.00244
49.05 0.0023
49.1 0.00722
49.15 0.00674
49.2 0.00846
49.25 0.00552
49.3 0.00195
49.35 0.00324
49.4 0.0017
49.45 0.00343
49.5 0.00215
49.55 -0.00055
49.6 -0.00234
49.65 -0.00117
49.7 0.00269
49.75 0.00619
49.8 0.00868
49.85 0.01338
49.9 0.01768
49.95 0.02129
50 0.02073
50.05 0.02278
50.1 0.02217
50.15 0.01955
50.2 0.01502
50.25 0.01159
50.3 0.00858
50.35 0.00979
50.4 0.00897
50.45 0.01033
50.5 0.01368
50.55 0.0109
50.6 0.00424
50.65 -0.00157
50.7 -0.00881
50.75 -0.00939
50.8 -0.0099
50.85 -0.01224
50.9 -0.01222
50.95 -0.00795
51 -0.001
51.05 0.00436
51.1 0.01123
51.15 0.01701
51.2 0.02237
51.25 0.0259
51.3 0.02894
51.35 0.0246
51.4 0.02399
51.45 0.01978
51.5 0.01699
51.55 0.01315
51.6 0.01073
51.65 0.0036
51.7 -0.00162
51.75 -0.0081
51.8 -0.01296
51.85 -0.01755
51.9 -0.02255
51.95 -0.02542
52 -0.02389
52.05 -0.01798
52.1 -0.01035
52.15 -0.00455
52.2 -0.00324
52.25 -0.00124
52.3 -0.00401
52.35 -0.00563
52.4 -0.00931
52.45 -0.01015
52.5 -0.00893
52.55 -0.00601
52.6 -0.00811
52.65 -0.00443
52.7 -0.00047
52.75 0.00378
52.8 0.00275
52.85 0.00438
52.9 0.00222
52.95 -0.00122
53 -0.00512
53.05 -0.00563
53.1 -0.00238
53.15 -0.00484
53.2 -0.00612
53.25 -0.00393
53.3 0.00034
53.35 0.00517
53.4 0.01042
53.45 0.00898
53.5 0.00358
53.55 0.0034
53.6 0.00629
53.65 0.00924
53.7 0.00673
53.75 0.00265
53.8 0.00302
53.85 -0.00021
53.9 0.00009
53.95 0.00421
54 0.00892
54.05 0.01041
54.1 0.00558
54.15 0.00149
54.2 -0.00501
54.25 -0.00594
54.3 -0.00306
54.35 0.00243
54.4 0.00877
54.45 0.00894
54.5 0.01048
54.55 0.01434
54.6 0.01208
54.65 0.0053
54.7 -0.00322
54.75 -0.00984
54.8 -0.01159
54.85 -0.00961
54.9 -0.00505
54.95 0.0013
55 0.00866
55.05 0.00861
55.1 0.01013
55.15 0.01153
55.2 0.01243
55.25 0.0137
55.3 0.01193
55.35 0.01314
55.4 0.00936
55.45 0.00781
55.5 0.00909
55.55 0.00742
55.6 0.00328
55.65 -0.00253
55.7 -0.00905
55.75 -0.01039
55.8 -0.01332
55.85 -0.01357
55.9 -0.01385
55.95 -0.0126
56 -0.00983
56.05 -0.00462
56.1 0.00177
56.15 0.00686
56.2 0.00974
56.25 0.01042
56.3 0.00539
56.35 -0.00043
56.4 -0.00541
56.45 -0.00602
56.5 -0.00669
56.55 -0.00661
56.6 -0.00919
56.65 -0.01068
56.7 -0.01285
56.75 -0.01696
56.8 -0.01973
56.85 -0.01853
56.9 -0.01993
56.95 -0.02312
57 -0.0273
57.05 -0.02928
57.1 -0.03244
57.15 -0.02768
57.2 -0.02389
57.25 -0.02044
57.3 -0.02039
57.35 -0.02165
57.4 -0.02005
57.45 -0.01834
57.5 -0.01429
57.55 -0.00619
57.6 0.00362
57.65 0.01026
57.7 0.01639
57.75 0.02096
57.8 0.02618
57.85 0.02998
57.9 0.0343
57.95 0.03643
58 0.03891
58.05 0.03349
58.1 0.02316
58.15 0.01399
58.2 0.0068
58.25 -0.00082
58.3 -0.00844
58.35 -0.01511
58.4 -0.01824
58.45 -0.01664
58.5 -0.01669
58.55 -0.0181
58.6 -0.01592
58.65 -0.0174
58.7 -0.01258
58.75 -0.01268
58.8 -0.00831
58.85 -0.0071
58.9 -0.00824
58.95 -0.00971
59 -0.01304
59.05 -0.01679
59.1 -0.01786
59.15 -0.01974
59.2 -0.01566
59.25 -0.01598
59.3 -0.01072
59.35 -0.00548
59.4 -0.00625
59.45 -0.00529
59.5 -0.00275
59.55 -0.00044
59.6 -0.00095
59.65 -0.00437
59.7 -0.00558
59.75 -0.00529
59.8 -0.00617
59.85 -0.00783
59.9 -0.01094
59.95 -0.01528
60 -0.01987
60.05 -0.0168
60.1 -0.01354
60.15 -0.0101
60.2 -0.00287
60.25 0.00253
60.3 0.00483
60.35 0.00596
60.4 0.00936
60.45 0.00757
60.5 0.00978
60.55 0.00811
60.6 0.01014
60.65 0.0111
60.7 0.01457
60.75 0.01566
60.8 0.01453
60.85 0.01284
60.9 0.01124
60.95 0.00648
61 -0.00045
61.05 -0.0018
61.1 0.00083
61.15 0.00087
61.2 -0.00271
61.25 -0.00936
61.3 -0.01063
61.35 -0.00681
61.4 -0.00421
61.45 -0.00257
61.5 -0.00462
61.55 -0.00408
61.6 -0.00146
61.65 0.00172
61.7 0.00799
61.75 0.01378
61.8 0.01641
61.85 0.01292
61.9 0.00866
61.95 0.00103
62 -0.0063
62.05 -0.0082
62.1 -0.00438
62.15 -0.00133
62.2 0.00233
62.25 0.00118
62.3 0.00073
62.35 -0.00019
62.4 0.00135
62.45 -0.00083
62.5 -0.00452
62.55 -0.00203
62.6 0.00325
62.65 0.00395
62.7 0.00405
62.75 0.00645
62.8 0.01107
62.85 0.01427
62.9 0.01096
62.95 0.01025
63 0.01176
63.05 0.01531
63.1 0.01603
63.15 0.01525
63.2 0.01763
63.25 0.01673
63.3 0.01388
63.35 0.00893
63.4 0.00057
63.45 -0.00125
63.5 -0.00504
63.55 -0.00832
63.6 -0.00873
63.65 -0.00536
63.7 -0.00585
63.75 -0.00682
63.8 -0.00263
63.85 -0.0036
63.9 -0.00163
63.95 0.00109
64 0.00495
64.05 0.00693
64.1 0.00786
64.15 0.00876
64.2 0.01111
64.25 0.01016
64.3 0.0113
64.35 0.00678
64.4 0.00404
64.45 -0.00197
64.5 -0.00564
64.55 -0.00364
64.6 -0.00153
64.65 0.00356
64.7 0.00879
64.75 0.01161
64.8 0.01082
64.85 0.0058
64.9 -0.00088
64.95 -0.00903
65 -0.01384
65.05 -0.01549
65.1 -0.01999
65.15 -0.02551
65.2 -0.02703
65.25 -0.02923
65.3 -0.0256
65.35 -0.02158
65.4 -0.01702
65.45 -0.01615
65.5 -0.01199
65.55 -0.006
65.6 -0.00391
65.65 -0.00589
65.7 -0.00407
65.75 -0.00028
65.8 0.00149
65.85 0.00249
65.9 0.00612
65.95 0.00737
66 0.01205
66.05 0.00994
66.1 0.01029
66.15 0.00915
66.2 0.0081
66.25 0.00954
66.3 0.00908
66.35 0.00451
66.4 0.00062
66.45 -0.00375
66.5 -0.00331
66.55 -0.00589
66.6 -0.00406
66.65 -0.00055
66.7 0.00569
66.75 0.01214
66.8 0.01259
66.85 0.01132
66.9 0.00672
66.95 -0.00107
67 -0.00769
67.05 -0.01477
67.1 -0.01398
67.15 -0.01378
67.2 -0.00951
67.25 -0.00581
67.3 -0.00686
67.35 -0.00279
67.4 0.00149
67.45 0.0012
67.5 -0.00129
67.55 -0.00444
67.6 -0.01037
67.65 -0.01265
67.7 -0.01275
67.75 -0.01389
67.8 -0.01145
67.85 -0.01335
67.9 -0.00975
67.95 -0.00224
68 0.00457
68.05 0.00972
68.1 0.0138
68.15 0.01315
68.2 0.00696
68.25 -0.00026
68.3 -0.00376
68.35 -0.00771
68.4 -0.01343
68.45 -0.01975
68.5 -0.02564
68.55 -0.02632
68.6 -0.02148
68.65 -0.01212
68.7 -0.0024
68.75 0.00426
68.8 0.00659
68.85 0.00831
68.9 0.01198
68.95 0.01001
69 0.00569
69.05 0.00531
69.1 0.00283
69.15 0.00008
69.2 -0.00012
69.25 -0.00422
69.3 -0.00868
69.35 -0.01075
69.4 -0.01445
69.45 -0.01433
69.5 -0.01023
69.55 -0.0098
69.6 -0.00844
69.65 -0.00355
69.7 0.00443
69.75 0.0121
69.8 0.02058
69.85 0.02082
69.9 0.02108
69.95 0.02008
70 0.01857
70.05 0.01547
70.1 0.01414
70.15 0.01136
70.2 0.00826
70.25 0.00624
70.3 0.0051
70.35 0.00293
70.4 0.001
70.45 0.00147
70.5 -0.00135
70.55 0.00123
70.6 0.00336
70.65 0.00277
70.7 0.00653
70.75 0.00416
70.8 0.00336
70.85 0.00395
70.9 -0.00064
70.95 -0.002
71 -0.00703
71.05 -0.00559
71.1 -0.00298
71.15 -0.00251
71.2 -0.00245
71.25 0.00061
71.3 -0.00207
71.35 0.00056
71.4 0.00067
71.45 -0.00008
71.5 0.00153
71.55 0.00239
71.6 -0.00141
71.65 0.00044
71.7 -0.00089
71.75 0.00019
71.8 -0.00045
71.85 -0.00389
71.9 -0.0039
71.95 -0.00765
72 -0.00654
72.05 -0.00296
72.1 0.00305
72.15 0.00889
72.2 0.0139
72.25 0.01688
72.3 0.019
72.35 0.01545
72.4 0.0144
72.45 0.01396
72.5 0.01394
72.55 0.01167
72.6 0.00635
72.65 0.00258
72.7 0.00056
72.75 -0.00243
72.8 -0.00154
72.85 0.0023
72.9 0.00502
72.95 0.00261
73 0.00342
73.05 0.00476
73.1 0.00364
73.15 0.00654
73.2 0.00758
73.25 0.00516
73.3 0.00572
73.35 0.00713
73.4 0.00576
73.45 0.00797
73.5 0.00462
73.55 0.00358
73.6 0.00502
73.65 0.00928
73.7 0.01029
73.75 0.00898
73.8 0.00994
73.85 0.01059
73.9 0.01309
73.95 0.01689
74 0.01763
74.05 0.01505
74.1 0.00981
74.15 0.00237
74.2 -0.00265
74.25 -0.00772
74.3 -0.01102
74.35 -0.01017
74.4 -0.01138
74.45 -0.01291
74.5 -0.01143
74.55 -0.00917
74.6 -0.01026
74.65 -0.007
74.7 -0.004
74.75 -0.0042
74.8 -0.00339
74.85 -0.00246
74.9 -0.00367
74.95 -0.00749
75 -0.01306
75.05 -0.01468
75.1 -0.01164
75.15 -0.00542
75.2 -0.00443
75.25 -0.0084
75.3 -0.01135
75.35 -0.00966
75.4 -0.00851
75.45 -0.0106
75.5 -0.01581
75.55 -0.02204
75.6 -0.02498
75.65 -0.02916
75.7 -0.02698
75.75 -0.02301
75.8 -0.01463
75.85 -0.01243
75.9 -0.01322
75.95 -0.01608
76 -0.02068
76.05 -0.02151
76.1 -0.0193
76.15 -0.01722
76.2 -0.01323
76.25 -0.01415
76.3 -0.01383
76.35 -0.01467
76.4 -0.01745
76.45 -0.02013
76.5 -0.0164
76.55 -0.01525
76.6 -0.01017
76.65 -0.00252
76.7 -0.00004
76.75 0.00061
76.8 0.00244
76.85 0.00513
76.9 0.01118
76.95 0.01181
77 0.01232
77.05 0.01212
77.1 0.0153
77.15 0.01531
77.2 0.01223
77.25 0.00633
77.3 0.00444
77.35 0.00122
77.4 -0.0018
77.45 0.00033
77.5 -0.00228
77.55 -0.0078
77.6 -0.01439
77.65 -0.01652
77.7 -0.01241
77.75 -0.00819
77.8 -0.00081
77.85 0.00116
77.9 0.00658
77.95 0.00555
78 0.0034
78.05 0.00449
78.1 0.00235
78.15 -0.00313
78.2 -0.00511
78.25 -0.00823
78.3 -0.00735
78.35 -0.00319
78.4 0.0019
78.45 0.00425
78.5 0.00911
78.55 0.00903
78.6 0.00913
78.65 0.01264
78.7 0.01209
78.75 0.00979
78.8 0.00529
78.85 -0.00203
78.9 -0.00418
78.95 -0.00714
79 -0.00958
79.05 -0.00964
79.1 -0.01338
79.15 -0.01188
79.2 -0.0096
79.25 -0.00297
79.3 -0.00113
79.35 -0.0007
79.4 -0.00256
79.45 -0.00215
79.5 -0.00592
79.55 -0.00603
79.6 -0.00824
79.65 -0.00427
79.7 -0.00109
79.75 0.00138
79.8 0.00657
79.85 0.01365
79.9 0.01915
79.95 0.02535
80 0.03126
80.05 0.03114
80.1 0.02735
80.15 0.02373
80.2 0.01862
80.25 0.01492
80.3 0.00907
80.35 0.00093
80.4 -0.00638
80.45 -0.01024
80.5 -0.01095
80.55 -0.01471
80.6 -0.01711
80.65 -0.01976
80.7 -0.02249
80.75 -0.01806
80.8 -0.0132
80.85 -0.01331
80.9 -0.01168
80.95 -0.01139
81 -0.01412
81.05 -0.01397
81.1 -0.01635
81.15 -0.01748
81.2 -0.01279
81.25 -0.01084
81.3 -0.00921
81.35 -0.00924
81.4 -0.01029
81.45 -0.00883
81.5 -0.00276
81.55 -0.00249
81.6 -0.00526
81.65 -0.00589
81.7 -0.00401
81.75 0.00047
81.8 0.00169
81.85 0.00321
81.9 0.00479
81.95 0.00572
82 0.00969
82.05 0.00706
82.1 0.00154
82.15 -0.00549
82.2 -0.00604
82.25 -0.00901
82.3 -0.00821
82.35 -0.00589
82.4 -0.00476
82.45 -0.00017
82.5 0.00452
82.55 0.00805
82.6 0.00811
82.65 0.0072
82.7 0.00665
82.75 0.00689
82.8 0.00823
82.85 0.00668
82.9 0.00397
82.95 0.00394
83 0.00183
83.05 -0.00172
83.1 -0.00328
83.15 -0.00392
83.2 -0.00688
83.25 -0.00963
83.3 -0.01066
83.35 -0.01258
83.4 -0.0128
83.45 -0.01298
83.5 -0.00937
83.55 -0.0035
83.6 -0.0034
83.65 -0.00081
83.7 0.00529
83.75 0.00601
83.8 0.00397
83.85 0.00008
83.9 -0.00007
83.95 -0.00135
84 -0.00193
84.05 -0.00422
84.1 -0.00049
84.15 0.00293
84.2 0.00744
84.25 0.00989
84.3 0.01255
84.35 0.01787
84.4 0.01591
84.45 0.00894
84.5 0.0084
84.55 0.01004
84.6 0.01447
84.65 0.01796
84.7 0.01567
84.75 0.01356
84.8 0.0138
84.85 0.00905
84.9 0.00868
84.95 0.00632
85 0.00144
85.05 -0.00387
85.1 -0.00531
85.15 -0.00969
85.2 -0.01247
85.25 -0.0155
85.3 -0.0139
85.35 -0.00849
85.4 -0.00481
85.45 -0.00616
85.5 -0.00411
85.55 -0.00693
85.6 -0.01132
85.65 -0.01593
85.7 -0.01968
85.75 -0.0229
85.8 -0.02073
85.85 -0.01815
85.9 -0.01173
85.95 -0.0046
86 0.0045
86.05 0.01123
86.1 0.01058
86.15 0.00827
86.2 0.00907
86.25 0.00454
86.3 0.00151
86.35 0.00186
86.4 0.00435
86.45 0.00352
86.5 0.00168
86.55 -0.00034
86.6 -0.00531
86.65 -0.00617
86.7 -0.00884
86.75 -0.00976
86.8 -0.00706
86.85 -0.00613
86.9 -0.00426
86.95 -0.00386
87 -0.00544
87.05 -0.00158
87.1 -0.00008
87.15 -0.00091
87.2 -0.00395
87.25 -0.00686
87.3 -0.01154
87.35 -0.01324
87.4 -0.01735
87.45 -0.01922
87.5 -0.01683
87.55 -0.01804
87.6 -0.01781
87.65 -0.01944
87.7 -0.01963
87.75 -0.01618
87.8 -0.01519
87.85 -0.01353
87.9 -0.00717
87.95 0.00221
88 0.0057
88.05 0.00753
88.1 0.00661
88.15 0.00985
88.2 0.01287
88.25 0.01529
88.3 0.01369
88.35 0.00879
88.4 0.00683
88.45 0.00852
88.5 0.00983
88.55 0.01261
88.6 0.01208
88.65 0.01108
88.7 0.01109
88.75 0.013
88.8 0.0092
88.85 0.0098
88.9 0.00633
88.95 0.00448
89 -0.00089
89.05 -0.00592
89.1 -0.00423
89.15 -0.00612
89.2 -0.0085
89.25 -0.00617
89.3 -0.00723
89.35 -0.00324
89.4 0.00115
89.45 0.00211
89.5 0.00106
89.55 -0.00114
89.6 -0.0032
89.65 0.00047
89.7 0.00134
89.75 -0.00111
89.8 -0.0062
89.85 -0.0067
89.9 -0.01018
89.95 -0.00823
90 -0.00568
90.05 -0.00737
90.1 -0.00419
90.15 -0.00375
90.2 -0.00431
90.25 -0.00696
90.3 -0.00576
90.35 -0.0065
90.4 -0.00197
90.45 0.00278
90.5 0.00234
90.55 0.00452
90.6 0.00412
90.65 0.00118
90.7 -0.00294
90.75 -0.00813
90.8 -0.00948
90.85 -0.01063
90.9 -0.0107
90.95 -0.01053
91 -0.007
91.05 -0.00465
91.1 -0.0024
91.15 0.00302
91.2 0.00607
91.25 0.00785
91.3 0.00731
91.35 0.01042
91.4 0.00993
91.45 0.00628
91.5 0.00506
91.55 0.0034
91.6 0.00446
91.65 0.00252
91.7 0.00306
91.75 0.00588
91.8 0.00478
91.85 0.00184
91.9 0.00077
91.95 -0.00307
92 -0.0052
92.05 -0.00663
92.1 -0.00804
92.15 -0.01223
92.2 -0.00925
92.25 -0.00922
92.3 -0.01153
92.35 -0.01072
92.4 -0.01
92.45 -0.00605
92.5 0.00194
92.55 0.00833
92.6 0.01612
92.65 0.02112
92.7 0.02226
92.75 0.02458
92.8 0.0251
92.85 0.01914
92.9 0.01494
92.95 0.01119
93 0.00548
93.05 0.00038
93.1 -0.0027
93.15 -0.00843
93.2 -0.01569
93.25 -0.0209
93.3 -0.01952
93.35 -0.01417
93.4 -0.00665
93.45 -0.00496
93.5 -0.00677
93.55 -0.00913
93.6 -0.0111
93.65 -0.01137
93.7 -0.01002
93.75 -0.00596
93.8 0.00053
93.85 0.00177
93.9 0.00377
93.95 0.00759
94 0.01277
94.05 0.01866
94.1 0.01898
94.15 0.02132
94.2 0.02532
94.25 0.02634
94.3 0.02063
94.35 0.01972
94.4 0.0177
94.45 0.01143
94.5 0.01062
94.55 0.00611
94.6 0.00159
94.65 -0.00434
94.7 -0.0056
94.75 -0.00852
94.8 -0.01143
94.85 -0.00884
94.9 -0.00974
94.95 -0.0093
95 -0.00623
95.05 -0.00512
95.1 -0.0041
95.15 0.00111
95.2 0.00304
95.25 0.00416
95.3 0.00549
95.35 0.00424
95.4 0.00368
95.45 0.00107
95.5 0.00085
95.55 0.00245
95.6 0.00397
95.65 0.00012
95.7 -0.0006
95.75 0.00238
95.8 0.00025
95.85 0.00074
95.9 -0.0033
95.95 -0.00911
96 -0.00751
96.05 -0.00737
96.1 -0.007
96.15 -0.00621
96.2 -0.0042
96.25 -0.00654
96.3 -0.01052
96.35 -0.01471
96.4 -0.01522
96.45 -0.01238
96.5 -0.0071
96.55 -0.00605
96.6 -0.00506
96.65 -0.00018
96.7 0.00367
96.75 0.00222
96.8 0.00339
96.85 0.00525
96.9 0.00169
96.95 0.00125
97 0.00543
97.05 0.00619
97.1 0.00261
97.15 -0.00346
97.2 -0.00931
97.25 -0.00893
97.3 -0.0111
97.35 -0.00946
97.4 -0.01109
97.45 -0.00895
97.5 -0.00935
97.55 -0.01151
97.6 -0.00927
97.65 -0.00271
97.7 0.00048
97.75 0.00039
97.8 -0.00256
97.85 -0.00778
97.9 -0.00633
97.95 -0.00149
98 -0.00162
98.05 0.0026
98.1 0.00884
98.15 0.01332
98.2 0.0179
98.25 0.02045
98.3 0.02406
98.35 0.02774
98.4 0.02844
98.45 0.02906
98.5 0.02453
98.55 0.01999
98.6 0.01859
98.65 0.01604
98.7 0.01567
98.75 0.01708
98.8 0.0148
98.85 0.01219
98.9 0.01279
98.95 0.00916
99 0.00262
99.05 0.00273
99.1 0.00529
99.15 0.0039
99.2 0.00469
99.25 0.00831
99.3 0.01402
99.35 0.01567
99.4 0.0108
99.45 0.00479
99.5 -0.00298
99.55 -0.00939
99.6 -0.00931
99.65 -0.01287
99.7 -0.01473
99.75 -0.01795
99.8 -0.02095
99.85 -0.02078
99.9 -0.01821
99.95 -0.01708
