0 0
0.05 0.00243
0.1 0.00457
0.15 0.01191
0.2 0.02313
0.25 0.03433
0.3 0.04241
0.35 0.0497
0.4 0.05376
0.45 0.05394
0.5 0.05007
0.55 0.04415
0.6 0.03877
0.65 0.03182
0.7 0.02976
0.75 0.02677
0.8 0.02576
0.85 0.02889
0.9 0.02822
0.95 0.0301
1 0.03726
1.05 0.03845
1.1 0.03743
1.15 0.03896
1.2 0.03586
1.25 0.03052
1.3 0.02611
1.35 0.02742
1.4 0.0251
1.45 0.0233
1.5 0.01912
1.55 0.01836
1.6 0.0178
1.65 0.01715
1.7 0.01843
1.75 0.01696
1.8 0.01848
1.85 0.01762
1.9 0.01656
1.95 0.01697
2 0.02172
2.05 0.02433
2.1 0.02787
2.15 0.0335
2.2 0.03736
2.25 0.04208
2.3 0.04836
2.35 0.05091
2.4 0.05576
2.45 0.0533
2.5 0.04902
2.55 0.04786
2.6 0.04424
2.65 0.04546
2.7 0.04858
2.75 0.05127
2.8 0.05378
2.85 0.04966
2.9 0.04901
2.95 0.04669
3 0.04249
3.05 0.04245
3.1 0.04248
3.15 0.04267
3.2 0.04007
3.25 0.03327
3.3 0.0284
3.35 0.02101
3.4 0.01934
3.45 0.01864
3.5 0.02107
3.55 0.01811
3.6 0.01527
3.65 0.01219
3.7 0.01279
3.75 0.01718
3.8 0.01916
3.85 0.01642
3.9 0.01341
3.95 0.01548
4 0.01911
4.05 0.02413
4.1 0.02477
4.15 0.02275
4.2 0.02301
4.25 0.02517
4.3 0.02778
4.35 0.02423
4.4 0.02229
4.45 0.02003
4.5 0.01254
4.55 0.00346
4.6 -0.00527
4.65 -0.01808
4.7 -0.03061
4.75 -0.05042
4.8 -0.07527
4.85 -0.10552
4.9 -0.13769
4.95 -0.17485
5 -0.21835
5.05 -0.26117
5.1 -0.30581
5.15 -0.35355
5.2 -0.40918
5.25 -0.46767
5.3 -0.52523
5.35 -0.59191
5.4 -0.66517
5.45 -0.74134
5.5 -0.8172
5.55 -0.88789
5.6 -0.95842
5.65 -1.02151
5.7 -1.07881
5.75 -1.13127
5.8 -1.18466
5.85 -1.22998
5.9 -1.26748
5.95 -1.29625
6 -1.32391
6.05 -1.34404
6.1 -1.35535
6.15 -1.35943
6.2 -1.35562
6.25 -1.34314
6.3 -1.33068
6.35 -1.31179
6.4 -1.29138
6.45 -1.26048
6.5 -1.22324
6.55 -1.18061
6.6 -1.12985
6.65 -1.07553
6.7 -1.01669
6.75 -0.95344
6.8 -0.88499
6.85 -0.81167
6.9 -0.72916
6.95 -0.6408
7 -0.5517
7.05 -0.45255
7.1 -0.35323
7.15 -0.25066
7.2 -0.14333
7.25 -0.03036
7.3 0.0851
7.35 0.19523
7.4 0.30466
7.45 0.40459
7.5 0.49691
7.55 0.58638
7.6 0.66918
7.65 0.74617
7.7 0.82077
7.75 0.8913
7.8 0.95716
7.85 1.01528
7.9 1.07114
7.95 1.12094
8 1.16007
8.05 1.18934
8.1 1.21126
8.15 1.2299
8.2 1.24736
8.25 1.26224
8.3 1.27097
8.35 1.27171
8.4 1.26774
8.45 1.26706
8.5 1.26285
8.55 1.25328
8.6 1.24228
8.65 1.22753
8.7 1.20881
8.75 1.19319
8.8 1.17445
8.85 1.14884
8.9 1.12157
8.95 1.09441
9 1.07161
9.05 1.04477
9.1 1.0204
9.15 0.99463
9.2 0.97104
9.25 0.94622
9.3 0.91654
9.35 0.88337
9.4 0.8546
9.45 0.82605
9.5 0.79852
9.55 0.77195
9.6 0.75054
9.65 0.72966
9.7 0.70312
9.75 0.68212
9.8 0.65818
9.85 0.63742
9.9 0.61431
9.95 0.58918
10 0.564
10.05 0.53901
10.1 0.52022
10.15 0.50136
10.2 0.48741
10.25 0.47467
10.3 0.46148
10.35 0.4499
10.4 0.43866
10.45 0.41895
10.5 0.40146
10.55 0.38318
10.6 0.36521
10.65 0.34393
10.7 0.32014
10.75 0.2949
10.8 0.27714
10.85 0.25855
10.9 0.24246
10.95 0.2241
11 0.20521
11.05 0.18631
11.1 0.17328
11.15 0.15519
11.2 0.14228
11.25 0.13249
11.3 0.12226
11.35 0.10767
11.4 0.08725
11.45 0.06886
11.5 0.04834
11.55 0.02708
11.6 0.00519
11.65 -0.00843
11.7 -0.02394
11.75 -0.04174
11.8 -0.06011
11.85 -0.07738
11.9 -0.09094
11.95 -0.10036
12 -0.11073
12.05 -0.11411
12.1 -0.11849
12.15 -0.12452
12.2 -0.13367
12.25 -0.14403
12.3 -0.15178
12.35 -0.1574
12.4 -0.16136
12.45 -0.16735
12.5 -0.17154
12.55 -0.17126
12.6 -0.17086
12.65 -0.17117
12.7 -0.17542
12.75 -0.18101
12.8 -0.18064
12.85 -0.18143
12.9 -0.18105
12.95 -0.18436
13 -0.18903
13.05 -0.18707
13.1 -0.18435
13.15 -0.17839
13.2 -0.17166
13.25 -0.16753
13.3 -0.17017
13.35 -0.17062
13.4 -0.17157
13.45 -0.17094
13.5 -0.17312
13.55 -0.17356
13.6 -0.17446
13.65 -0.1789
13.7 -0.18217
13.75 -0.17921
13.8 -0.17387
13.85 -0.17279
13.9 -0.16641
13.95 -0.15805
14 -0.15431
14.05 -0.15184
14.1 -0.14888
14.15 -0.14385
14.2 -0.14173
14.25 -0.1398
14.3 -0.13766
14.35 -0.1321
14.4 -0.12713
14.45 -0.1278
14.5 -0.13049
14.55 -0.13444
14.6 -0.14026
14.65 -0.14778
14.7 -0.15326
14.75 -0.15681
14.8 -0.16005
14.85 -0.15959
14.9 -0.15582
14.95 -0.15381
15 -0.14894
15.05 -0.14517
15.1 -0.14173
15.15 -0.13686
15.2 -0.13043
15.25 -0.12348
15.3 -0.11506
15.35 -0.10807
15.4 -0.09875
15.45 -0.09443
15.5 -0.09587
15.55 -0.09503
15.6 -0.09832
15.65 -0.09788
15.7 -0.09933
15.75 -0.10043
15.8 -0.10369
15.85 -0.10576
15.9 -0.10164
15.95 -0.09338
16 -0.08657
16.05 -0.07803
16.1 -0.07161
16.15 -0.06802
16.2 -0.06773
16.25 -0.07294
16.3 -0.07305
16.35 -0.07038
16.4 -0.07367
16.45 -0.07505
16.5 -0.07677
16.55 -0.07772
16.6 -0.08122
16.65 -0.08165
16.7 -0.08241
16.75 -0.08495
16.8 -0.08094
16.85 -0.07548
16.9 -0.07298
16.95 -0.07455
17 -0.07514
17.05 -0.07329
17.1 -0.07432
17.15 -0.07578
17.2 -0.07394
17.25 -0.07247
17.3 -0.0737
17.35 -0.0743
17.4 -0.07497
17.45 -0.06878
17.5 -0.06314
17.55 -0.06152
17.6 -0.05889
17.65 -0.05464
17.7 -0.05443
17.75 -0.04906
17.8 -0.04416
17.85 -0.04483
17.9 -0.04886
17.95 -0.04774
18 -0.04901
18.05 -0.05374
18.1 -0.05115
18.15 -0.05
18.2 -0.05045
18.25 -0.04532
18.3 -0.04226
18.35 -0.04429
18.4 -0.04167
18.45 -0.03625
18.5 -0.03037
18.55 -0.02421
18.6 -0.02287
18.65 -0.02044
18.7 -0.01681
18.75 -0.0185
18.8 -0.02274
18.85 -0.02367
18.9 -0.02343
18.95 -0.02405
19 -0.02387
19.05 -0.02609
19.1 -0.02393
19.15 -0.02543
19.2 -0.02649
19.25 -0.02567
19.3 -0.03024
19.35 -0.03442
19.4 -0.03532
19.45 -0.03904
19.5 -0.03996
19.55 -0.04316
19.6 -0.04587
19.65 -0.05025
19.7 -0.04934
19.75 -0.04542
19.8 -0.04184
19.85 -0.03341
19.9 -0.02981
19.95 -0.0232
20 -0.02001
20.05 -0.02238
20.1 -0.02116
20.15 -0.02286
20.2 -0.02101
20.25 -0.01624
20.3 -0.01256
20.35 -0.00852
20.4 -0.00491
20.45 -0.00207
20.5 -0.00531
20.55 -0.00446
20.6 -0.00195
20.65 0.00122
20.7 -0.00305
20.75 -0.00756
20.8 -0.01577
20.85 -0.0203
20.9 -0.01992
20.95 -0.01613
21 -0.01573
21.05 -0.01698
21.1 -0.01694
21.15 -0.01373
21.2 -0.01184
21.25 -0.0127
21.3 -0.0134
21.35 -0.01724
21.4 -0.01819
21.45 -0.02283
21.5 -0.02851
21.55 -0.03283
21.6 -0.03332
21.65 -0.03155
21.7 -0.0265
21.75 -0.02131
21.8 -0.01717
21.85 -0.01344
21.9 -0.01463
21.95 -0.01924
22 -0.0225
22.05 -0.02731
22.1 -0.02798
22.15 -0.02876
22.2 -0.02929
22.25 -0.02498
22.3 -0.02489
22.35 -0.0192
22.4 -0.01663
22.45 -0.01777
22.5 -0.0173
22.55 -0.01693
22.6 -0.01227
22.65 -0.00624
22.7 -0.00091
22.75 0.00459
22.8 0.00849
22.85 0.00949
22.9 0.00499
22.95 0.00468
23 0.00138
23.05 -0.00325
23.1 -0.00296
23.15 -0.00075
23.2 -0.00278
23.25 -0.0064
23.3 -0.01315
23.35 -0.01531
23.4 -0.01427
23.45 -0.00932
23.5 -0.00892
23.55 -0.00998
23.6 -0.00649
23.65 -0.0048
23.7 -0.00208
23.75 0.00061
23.8 0.00226
23.85 -0.00162
23.9 -0.0004
23.95 0.00044
24 0.0018
24.05 -0.00177
24.1 -0.00873
24.15 -0.0153
24.2 -0.01877
24.25 -0.02259
24.3 -0.02132
24.35 -0.01732
24.4 -0.01478
24.45 -0.00968
24.5 -0.00431
24.55 -0.00495
24.6 -0.00302
24.65 0.00084
24.7 -0.00011
24.75 0.00178
24.8 0.00507
24.85 0.00598
24.9 0.00419
24.95 -0.0025
25 -0.01126
25.05 -0.01988
25.1 -0.02081
25.15 -0.01917
25.2 -0.02082
25.25 -0.01747
25.3 -0.0178
25.35 -0.0198
25.4 -0.0206
25.45 -0.02007
25.5 -0.02039
25.55 -0.01928
25.6 -0.02098
25.65 -0.02044
25.7 -0.02035
25.75 -0.01841
25.8 -0.01215
25.85 -0.00268
25.9 0.00785
25.95 0.01818
26 0.02173
26.05 0.01833
26.1 0.01445
26.15 0.00613
26.2 0.00089
26.25 0.00008
26.3 0.00348
26.35 0.00586
26.4 0.00927
26.45 0.00793
26.5 0.00581
26.55 0.00075
26.6 -0.00426
26.65 -0.01139
26.7 -0.01395
26.75 -0.01906
26.8 -0.02001
26.85 -0.01727
26.9 -0.01121
26.95 -0.00519
27 0.0027
27.05 0.00343
27.1 0.00276
27.15 0.00116
27.2 -0.00322
27.25 -0.00174
27.3 0.00036
27.35 0.00079
27.4 -0.00038
27.45 0.00032
27.5 0.00156
27.55 0.00116
27.6 -0.00334
27.65 -0.01017
27.7 -0.01631
27.75 -0.0192
27.8 -0.01987
27.85 -0.02222
27.9 -0.02789
27.95 -0.03461
28 -0.04591
28.05 -0.05289
28.1 -0.06453
28.15 -0.07539
28.2 -0.08313
28.25 -0.09395
28.3 -0.11028
28.35 -0.12753
28.4 -0.14513
28.45 -0.16375
28.5 -0.1905
28.55 -0.21874
28.6 -0.25332
28.65 -0.28945
28.7 -0.33111
28.75 -0.36938
28.8 -0.41513
28.85 -0.4636
28.9 -0.51559
28.95 -0.5689
29 -0.62468
29.05 -0.68176
29.1 -0.73893
29.15 -0.80316
29.2 -0.87024
29.25 -0.93703
29.3 -0.99701
29.35 -1.06056
29.4 -1.12186
29.45 -1.18442
29.5 -1.24099
29.55 -1.29499
29.6 -1.33865
29.65 -1.38137
29.7 -1.41688
29.75 -1.44682
29.8 -1.46488
29.85 -1.47019
29.9 -1.46927
29.95 -1.45751
30 -1.43837
30.05 -1.41499
30.1 -1.38302
30.15 -1.34221
30.2 -1.28906
30.25 -1.22866
30.3 -1.15538
30.35 -1.07862
30.4 -0.99876
30.45 -0.91484
30.5 -0.82404
30.55 -0.72253
30.6 -0.61688
30.65 -0.51292
30.7 -0.40696
30.75 -0.30386
30.8 -0.20006
30.85 -0.09614
30.9 0.00112
30.95 0.09256
31 0.18262
31.05 0.26831
31.1 0.34986
31.15 0.43185
31.2 0.50597
31.25 0.57282
31.3 0.63838
31.35 0.69996
31.4 0.75203
31.45 0.79812
31.5 0.84376
31.55 0.88504
31.6 0.92486
31.65 0.95821
31.7 0.98622
31.75 1.01082
31.8 1.03366
31.85 1.05607
31.9 1.07147
31.95 1.08545
32 1.10264
32.05 1.11817
32.1 1.13172
32.15 1.14212
32.2 1.15434
32.25 1.16657
32.3 1.17478
32.35 1.18098
32.4 1.18667
32.45 1.18859
32.5 1.1917
32.55 1.19027
32.6 1.18815
32.65 1.18417
32.7 1.17467
32.75 1.16455
32.8 1.15675
32.85 1.14855
32.9 1.13318
32.95 1.11984
33 1.10704
33.05 1.09243
33.1 1.07618
33.15 1.05932
33.2 1.03636
33.25 1.01437
33.3 0.99447
33.35 0.97201
33.4 0.94795
33.45 0.92561
33.5 0.89518
33.55 0.86559
33.6 0.83085
33.65 0.79799
33.7 0.77099
33.75 0.74278
33.8 0.71345
33.85 0.68777
33.9 0.65966
33.95 0.63238
34 0.60535
34.05 0.5786
34.1 0.54765
34.15 0.51727
34.2 0.48659
34.25 0.45697
34.3 0.43148
34.35 0.40257
34.4 0.37332
34.45 0.34829
34.5 0.3246
34.55 0.29916
34.6 0.27899
34.65 0.25454
34.7 0.22765
34.75 0.20474
34.8 0.18273
34.85 0.16066
34.9 0.1402
34.95 0.11872
35 0.10217
35.05 0.09093
35.1 0.0765
35.15 0.05883
35.2 0.03922
35.25 0.02424
35.3 0.00598
35.35 -0.00497
35.4 -0.01381
35.45 -0.02108
35.5 -0.02834
35.55 -0.03951
35.6 -0.05201
35.65 -0.06343
35.7 -0.07866
35.75 -0.09572
35.8 -0.11
35.85 -0.12569
35.9 -0.14153
35.95 -0.15635
36 -0.16489
36.05 -0.17222
36.1 -0.17483
36.15 -0.17883
36.2 -0.18342
36.25 -0.18178
36.3 -0.18404
36.35 -0.18574
36.4 -0.18675
36.45 -0.18674
36.5 -0.18384
36.55 -0.18016
36.6 -0.17853
36.65 -0.17949
36.7 -0.18227
36.75 -0.18091
36.8 -0.18542
36.85 -0.18812
36.9 -0.18739
36.95 -0.18966
37 -0.19414
37.05 -0.19644
37.1 -0.20173
37.15 -0.20047
37.2 -0.19638
37.25 -0.19483
37.3 -0.1942
37.35 -0.19816
37.4 -0.20017
37.45 -0.19971
37.5 -0.20088
37.55 -0.19934
37.6 -0.19838
37.65 -0.1997
37.7 -0.19635
37.75 -0.19178
37.8 -0.18977
37.85 -0.18933
37.9 -0.1853
37.95 -0.17772
38 -0.17381
38.05 -0.16813
38.1 -0.16642
38.15 -0.16371
38.2 -0.15873
38.25 -0.15601
38.3 -0.15819
38.35 -0.16223
38.4 -0.16649
38.45 -0.16869
38.5 -0.17231
38.55 -0.16805
38.6 -0.16443
38.65 -0.15819
38.7 -0.1534
38.75 -0.14495
38.8 -0.13559
38.85 -0.12753
38.9 -0.12592
38.95 -0.12395
39 -0.1276
39.05 -0.1258
39.1 -0.12815
39.15 -0.12902
39.2 -0.13179
39.25 -0.13084
39.3 -0.12545
39.35 -0.12032
39.4 -0.11548
39.45 -0.11172
39.5 -0.11247
39.55 -0.10816
39.6 -0.10223
39.65 -0.10049
39.7 -0.09505
39.75 -0.09637
39.8 -0.09308
39.85 -0.09284
39.9 -0.09063
39.95 -0.09205
40 -0.09499
40.05 -0.10002
40.1 -0.1056
40.15 -0.10943
40.2 -0.11421
40.25 -0.11625
40.3 -0.11754
40.35 -0.1167
40.4 -0.10986
40.45 -0.09867
40.5 -0.08844
40.55 -0.08131
40.6 -0.07693
40.65 -0.07121
40.7 -0.06446
40.75 -0.06102
40.8 -0.0572
40.85 -0.05638
40.9 -0.05863
40.95 -0.05621
41 -0.05602
41.05 -0.05552
41.1 -0.05703
41.15 -0.05703
41.2 -0.05376
41.25 -0.05036
41.3 -0.04825
41.35 -0.04601
41.4 -0.04932
41.45 -0.05592
41.5 -0.05971
41.55 -0.06462
41.6 -0.06669
41.65 -0.06518
41.7 -0.06812
41.75 -0.07165
41.8 -0.07385
41.85 -0.06963
41.9 -0.06751
41.95 -0.0653
42 -0.06607
42.05 -0.06146
42.1 -0.05354
42.15 -0.04757
42.2 -0.03994
42.25 -0.04008
42.3 -0.03729
42.35 -0.03749
42.4 -0.03413
42.45 -0.03719
42.5 -0.04246
42.55 -0.0469
42.6 -0.04665
42.65 -0.04203
42.7 -0.04067
42.75 -0.0358
42.8 -0.03217
42.85 -0.02695
42.9 -0.02248
42.95 -0.02116
43 -0.02271
43.05 -0.02093
43.1 -0.02031
43.15 -0.02147
43.2 -0.02747
43.25 -0.03063
43.3 -0.03116
43.35 -0.03489
43.4 -0.03454
43.45 -0.03786
43.5 -0.03515
43.55 -0.03114
43.6 -0.02922
43.65 -0.03076
43.7 -0.03163
43.75 -0.0318
43.8 -0.03664
43.85 -0.03856
43.9 -0.04002
43.95 -0.04267
44 -0.04338
44.05 -0.04479
44.1 -0.04273
44.15 -0.04428
44.2 -0.04674
44.25 -0.05129
44.3 -0.05195
44.35 -0.05119
44.4 -0.05169
44.45 -0.05293
44.5 -0.05072
44.55 -0.04935
44.6 -0.04945
44.65 -0.04422
44.7 -0.04261
44.75 -0.04002
44.8 -0.03699
44.85 -0.03542
44.9 -0.03169
44.95 -0.02925
45 -0.02937
45.05 -0.02577
45.1 -0.01843
45.15 -0.01021
45.2 -0.01012
45.25 -0.00792
45.3 -0.01128
45.35 -0.0148
45.4 -0.01353
45.45 -0.00957
45.5 -0.00537
45.55 0.00044
45.6 0.00251
45.65 -0.00119
45.7 -0.0034
45.75 -0.00575
45.8 -0.00827
45.85 -0.00584
45.9 -0.00339
45.95 0.00084
46 0.00467
46.05 0.00282
46.1 0.00401
46.15 0.00003
46.2 -0.00053
46.25 0.00031
46.3 -0.00214
46.35 -0.002
46.4 -0.00235
46.45 -0.00569
46.5 -0.00616
46.55 -0.0071
46.6 -0.00596
46.65 -0.00676
46.7 -0.01129
46.75 -0.01498
46.8 -0.01621
46.85 -0.01698
46.9 -0.0152
46.95 -0.0179
47 -0.01905
47.05 -0.01963
47.1 -0.02186
47.15 -0.02045
47.2 -0.01763
47.25 -0.01281
47.3 -0.00729
47.35 0.00001
47.4 0.00043
47.45 0.00369
47.5 0.00238
47.55 0.00399
47.6 0.00091
47.65 0.00083
47.7 0.00001
47.75 -0.00509
47.8 -0.0049
47.85 -0.00092
47.9 -0.00151
47.95 -0.00107
48 0.00037
48.05 -0.00301
48.1 -0.00888
48.15 -0.01674
48.2 -0.0252
48.25 -0.02892
48.3 -0.02505
48.35 -0.02368
48.4 -0.02563
48.45 -0.02916
48.5 -0.03328
48.55 -0.03112
48.6 -0.02884
48.65 -0.02952
48.7 -0.03155
48.75 -0.03201
48.8 -0.03314
48.85 -0.02796
48.9 -0.02229
48.95 -0.01904
49 -0.01605
49.05 -0.01257
49.1 -0.01105
49.15 -0.01138
49.2 -0.01547
49.25 -0.01367
49.3 -0.01115
49.35 -0.0101
49.4 -0.01311
49.45 -0.01533
49.5 -0.01127
49.55 -0.00835
49.6 -0.0107
49.65 -0.01299
49.7 -0.0089
49.75 -0.00121
49.8 0.00811
49.85 0.01684
49.9 0.02453
49.95 0.02835
50 0.0325
50.05 0.03593
50.1 0.0355
50.15 0.0282
50.2 0.01824
50.25 0.01103
50.3 0.00129
50.35 -0.00738
50.4 -0.01008
50.45 -0.01447
50.5 -0.01252
50.55 -0.01208
50.6 -0.012
50.65 -0.01337
50.7 -0.01262
50.75 -0.01094
50.8 -0.00708
50.85 -0.00073
50.9 0.0006
50.95 0.00144
51 0.00203
51.05 0.00112
51.1 0.00299
51.15 0.00357
51.2 0.00742
51.25 0.00707
51.3 0.0037
51.35 -0.00266
51.4 -0.01117
51.45 -0.02063
51.5 -0.02114
51.55 -0.02363
51.6 -0.02452
51.65 -0.02283
51.7 -0.02167
51.75 -0.01722
51.8 -0.01695
51.85 -0.01541
51.9 -0.01435
51.95 -0.01687
52 -0.01517
52.05 -0.01546
52.1 -0.01228
52.15 -0.00496
52.2 -0.00292
52.25 -0.00352
52.3 -0.00189
52.35 0.00214
52.4 0.00348
52.45 0.00481
52.5 0.00989
52.55 0.01469
52.6 0.01259
52.65 0.0057
52.7 -0.00198
52.75 -0.00928
52.8 -0.01568
52.85 -0.01374
52.9 -0.01199
52.95 -0.00936
53 -0.00487
53.05 -0.00532
53.1 -0.00235
53.15 -0.0013
53.2 -0.00243
53.25 -0.00336
53.3 -0.00624
53.35 -0.01129
53.4 -0.01112
53.45 -0.00987
53.5 -0.01225
53.55 -0.01688
53.6 -0.01897
53.65 -0.01848
53.7 -0.01349
53.75 -0.00574
53.8 0.00269
53.85 0.00356
53.9 0.0079
53.95 0.01036
54 0.01021
54.05 0.01127
54.1 0.01177
54.15 0.00788
54.2 0.00619
54.25 0.00905
54.3 0.01053
54.35 0.01113
54.4 0.00595
54.45 0.00208
54.5 0.00233
54.55 0.00374
54.6 0.00496
54.65 0.00204
54.7 -0.00405
54.75 -0.00829
54.8 -0.00734
54.85 -0.00866
54.9 -0.00788
54.95 -0.00509
55 -0.00589
55.05 -0.00577
55.1 -0.00427
55.15 -0.00228
55.2 -0.00296
55.25 -0.00119
55.3 -0.00309
55.35 -0.00456
55.4 -0.00029
55.45 -0.00165
55.5 -0.00699
55.55 -0.01171
55.6 -0.0134
55.65 -0.01674
55.7 -0.01607
55.75 -0.0142
55.8 -0.01003
55.85 -0.00871
55.9 -0.00938
55.95 -0.00981
56 -0.01332
56.05 -0.01007
56.1 -0.00833
56.15 -0.0051
56.2 0.00024
56.25 0.00062
56.3 0.0024
56.35 0.00719
56.4 0.01379
56.45 0.01623
56.5 0.01507
56.55 0.0091
56.6 0.0043
56.65 0.00249
56.7 0.00136
56.75 0.0046
56.8 0.00551
56.85 0.00308
56.9 -0.00036
56.95 0.0018
57 0.00173
57.05 0.00452
57.1 0.00316
57.15 0.00479
57.2 0.00279
57.25 -0.0004
57.3 -0.0028
57.35 -0.00692
57.4 -0.00778
57.45 -0.01192
57.5 -0.01564
57.55 -0.0157
57.6 -0.01442
57.65 -0.00994
57.7 -0.00272
57.75 0.00039
57.8 0.00645
57.85 0.01287
57.9 0.01547
57.95 0.01881
58 0.01855
58.05 0.01677
58.1 0.01287
58.15 0.01149
58.2 0.01241
58.25 0.01471
58.3 0.01539
58.35 0.01877
58.4 0.01562
58.45 0.00804
58.5 -0.00172
58.55 -0.00512
58.6 -0.00526
58.65 -0.00143
58.7 0.00201
58.75 0.00019
58.8 -0.00455
58.85 -0.00435
58.9 -0.00004
58.95 0.00192
59 0.00334
59.05 0.00432
59.1 0.00628
59.15 0.01116
59.2 0.01416
59.25 0.01937
59.3 0.01734
59.35 0.01077
59.4 0.00984
59.45 0.00613
59.5 0.00214
59.55 -0.0009
59.6 -0.00757
59.65 -0.01552
59.7 -0.02335
59.75 -0.02452
59.8 -0.01992
59.85 -0.01925
59.9 -0.01366
59.95 -0.00633
60 -0.00379
60.05 0.00095
60.1 0.00256
60.15 0.00065
60.2 0.0008
60.25 0.00099
60.3 0.00355
60.35 0.00305
60.4 0.00666
60.45 0.00528
60.5 0.00653
60.55 0.008
60.6 0.00485
60.65 0.00112
60.7 -0.00007
60.75 0.00035
60.8 0.00493
60.85 0.00352
60.9 0.00318
60.95 0.00111
61 -0.00022
61.05 -0.00308
61.1 -0.00311
61.15 -0.0013
61.2 0.00323
61.25 0.00509
61.3 0.00554
61.35 0.00767
61.4 0.00739
61.45 0.01109
61.5 0.01373
61.55 0.01676
61.6 0.02081
61.65 0.02577
61.7 0.02759
61.75 0.02332
61.8 0.02068
61.85 0.01524
61.9 0.01088
61.95 0.00389
62 -0.00222
62.05 -0.00977
62.1 -0.01711
62.15 -0.02349
62.2 -0.02186
62.25 -0.02393
62.3 -0.02379
62.35 -0.01963
62.4 -0.01273
62.45 -0.00466
62.5 -0.00254
62.55 0.00038
62.6 0.00127
62.65 0.00178
62.7 -0.00208
62.75 -0.0001
62.8 -0.00276
62.85 -0.00636
62.9 -0.01258
62.95 -0.01451
63 -0.01893
63.05 -0.02277
63.1 -0.02122
63.15 -0.01619
63.2 -0.01135
63.25 -0.0074
63.3 0.00009
63.35 0.00512
63.4 0.00596
63.45 0.00254
63.5 -0.00219
63.55 -0.00697
63.6 -0.00895
63.65 -0.00632
63.7 -0.00549
63.75 -0.00569
63.8 -0.0043
63.85 -0.00184
63.9 -0.00381
63.95 -0.00784
64 -0.00926
64.05 -0.01171
64.1 -0.01512
64.15 -0.01261
64.2 -0.01076
64.25 -0.01242
64.3 -0.00842
64.35 -0.00549
64.4 0.00059
64.45 0.00644
64.5 0.00729
64.55 0.00828
64.6 0.00675
64.65 0.00418
64.7 0.00509
64.75 0.00453
64.8 0.00009
64.85 -0.00125
64.9 -0.00601
64.95 -0.01091
65 -0.00859
65.05 -0.0078
65.1 -0.00375
65.15 -0.00318
65.2 -0.0035
65.25 -0.00277
65.3 -0.0005
65.35 0.00096
65.4 0.0058
65.45 0.00434
65.5 0.00574
65.55 0.008
65.6 0.0113
65.65 0.01263
65.7 0.01591
65.75 0.01975
65.8 0.01744
65.85 0.01424
65.9 0.0132
65.95 0.0129
66 0.01117
66.05 0.00771
66.1 0.00118
66.15 -0.004
66.2 -0.01085
66.25 -0.01543
66.3 -0.01651
66.35 -0.01879
66.4 -0.01848
66.45 -0.01242
66.5 -0.01213
66.55 -0.01393
66.6 -0.01573
66.65 -0.01782
66.7 -0.01769
66.75 -0.01841
66.8 -0.0166
66.85 -0.01363
66.9 -0.00785
66.95 -0.00463
67 -0.00268
67.05 -0.00477
67.1 -0.00251
67.15 -0.00261
67.2 -0.00517
67.25 -0.00907
67.3 -0.00857
67.35 -0.00385
67.4 0.00086
67.45 0.00409
67.5 0.00837
67.55 0.01219
67.6 0.01509
67.65 0.01159
67.7 0.00533
67.75 -0.00185
67.8 -0.01069
67.85 -0.01511
67.9 -0.01811
67.95 -0.02222
68 -0.02309
68.05 -0.02074
68.1 -0.01721
68.15 -0.00896
68.2 -0.00092
68.25 0.00794
68.3 0.01587
68.35 0.02353
68.4 0.02629
68.45 0.02191
68.5 0.01535
68.55 0.00599
68.6 0.00336
68.65 -0.00287
68.7 -0.00244
68.75 0.00147
68.8 0.00081
68.85 -0.00057
68.9 -0.00172
68.95 -0.00538
69 -0.00807
69.05 -0.00593
69.1 -0.00673
69.15 -0.00576
69.2 -0.00483
69.25 -0.00419
69.3 -0.00398
69.35 0.00018
69.4 0.00246
69.45 0.00364
69.5 0.00662
69.55 0.01268
69.6 0.01366
69.65 0.01658
69.7 0.01498
69.75 0.00815
69.8 0.00279
69.85 0.00179
69.9 0.00011
69.95 -0.00399
70 -0.00615
70.05 -0.00312
70.1 -0.00269
70.15 0.00055
70.2 0.0029
70.25 0.00282
70.3 0.00245
70.35 0.00547
70.4 0.00381
70.45 0.00601
70.5 0.00242
70.55 0.00028
70.6 -0.00003
70.65 -0.00202
70.7 -0.00685
70.75 -0.01286
70.8 -0.01926
70.85 -0.02612
70.9 -0.02427
70.95 -0.01894
71 -0.01394
71.05 -0.00622
71.1 0.00299
71.15 0.00466
71.2 0.00394
71.25 -0.00078
71.3 -0.00073
71.35 -0.00486
71.4 -0.00914
71.45 -0.01166
71.5 -0.01094
71.55 -0.00651
71.6 -0.00145
71.65 0.00533
71.7 0.01059
71.75 0.00883
71.8 0.0109
71.85 0.01472
71.9 0.01394
71.95 0.01368
72 0.01439
72.05 0.01356
72.1 0.01594
72.15 0.01557
72.2 0.01771
72.25 0.01336
72.3 0.00644
72.35 0.00251
72.4 -0.00448
72.45 -0.00982
72.5 -0.01532
72.55 -0.02106
72.6 -0.0246
72.65 -0.0231
72.7 -0.02071
72.75 -0.01638
72.8 -0.0139
72.85 -0.01047
72.9 -0.01004
72.95 -0.00783
73 -0.00311
73.05 0.00069
73.1 0.00732
73.15 0.01312
73.2 0.0137
73.25 0.01408
73.3 0.01642
73.35 0.01336
73.4 0.0123
73.45 0.01375
73.5 0.01209
73.55 0.01112
73.6 0.00875
73.65 0.00983
73.7 0.01173
73.75 0.00961
73.8 0.00845
73.85 0.00573
73.9 -0.00015
73.95 -0.00817
74 -0.01254
74.05 -0.01325
74.1 -0.01489
74.15 -0.01226
74.2 -0.00699
74.25 -0.0039
74.3 -0.00317
74.35 0.00089
74.4 -0.00018
74.45 0.00363
74.5 0.00574
74.55 0.01132
74.6 0.01348
74.65 0.01707
74.7 0.02108
74.75 0.02539
74.8 0.02211
74.85 0.02227
74.9 0.02374
74.95 0.02657
75 0.02199
75.05 0.01856
75.1 0.01136
75.15 0.00986
75.2 0.00709
75.25 0.00236
75.3 0.00282
75.35 0.00501
75.4 0.00509
75.45 0.0009
75.5 -0.00676
75.55 -0.01019
75.6 -0.01573
75.65 -0.02101
75.7 -0.02112
75.75 -0.01699
75.8 -0.01661
75.85 -0.01941
75.9 -0.02021
75.95 -0.02085
76 -0.01698
76.05 -0.0102
76.1 -0.00097
76.15 0.00404
76.2 0.01014
76.25 0.0087
76.3 0.01126
76.35 0.01009
76.4 0.0092
76.45 0.01243
76.5 0.01541
76.55 0.01645
76.6 0.01113
76.65 0.00717
76.7 -0.0006
76.75 -0.00673
76.8 -0.00579
76.85 -0.00057
76.9 0.0072
76.95 0.0149
77 0.01435
77.05 0.01132
77.1 0.00433
77.15 -0.00282
77.2 -0.00531
77.25 -0.00292
77.3 0.00281
77.35 0.00588
77.4 0.00493
77.45 0.00373
77.5 0.00408
77.55 0.00143
77.6 0.00101
77.65 -0.0014
77.7 -0.00048
77.75 -0.0021
77.8 0.00014
77.85 0.00548
77.9 0.0067
77.95 0.00572
78 0.00361
78.05 0.00574
78.1 0.00682
78.15 0.0103
78.2 0.00749
78.25 0.00529
78.3 0.00547
78.35 0.0033
78.4 -0.00137
78.45 -0.00579
78.5 -0.00673
78.55 -0.00494
78.6 -0.00565
78.65 -0.00969
78.7 -0.01014
78.75 -0.00809
78.8 -0.00349
78.85 0.00396
78.9 0.00426
78.95 0.00005
79 0.00101
79.05 -0.00092
79.1 -0.00526
79.15 -0.00927
79.2 -0.01562
79.25 -0.01968
79.3 -0.0242
79.35 -0.0208
79.4 -0.01821
79.45 -0.01969
79.5 -0.02242
79.55 -0.02339
79.6 -0.02352
79.65 -0.01911
79.7 -0.012
79.75 -0.00392
79.8 -0.00014
79.85 0.00535
79.9 0.00833
79.95 0.00719
80 0.00491
80.05 0.00752
80.1 0.00925
80.15 0.01264
80.2 0.01028
80.25 0.00713
80.3 0.00331
80.35 -0.00051
80.4 -0.0013
80.45 0.00066
80.5 0.00283
80.55 0.00695
80.6 0.00629
80.65 0.00347
80.7 0.00578
80.75 0.00835
80.8 0.01115
80.85 0.0165
80.9 0.01633
80.95 0.01497
81 0.01055
81.05 0.0027
81.1 -0.00402
81.15 -0.01096
81.2 -0.01762
81.25 -0.02008
81.3 -0.01816
81.35 -0.01236
81.4 -0.00797
81.45 -0.00778
81.5 -0.00239
81.55 -0.00189
81.6 -0.00464
81.65 -0.0097
81.7 -0.00812
81.75 -0.00529
81.8 -0.00289
81.85 0.00175
81.9 0.00564
81.95 0.00471
82 0.00091
82.05 -0.00346
82.1 -0.00597
82.15 -0.01026
82.2 -0.0105
82.25 -0.01253
82.3 -0.01197
82.35 -0.00592
82.4 -0.00593
82.45 -0.00369
82.5 0.0024
82.55 0.0106
82.6 0.01424
82.65 0.01238
82.7 0.01447
82.75 0.01422
82.8 0.00908
82.85 0.00631
82.9 0.00064
82.95 -0.00412
83 -0.00707
83.05 -0.00563
83.1 -0.00033
83.15 0.00451
83.2 0.0041
83.25 0.00099
83.3 0.0004
83.35 -0.00232
83.4 0.00005
83.45 0.00372
83.5 0.0037
83.55 0.00684
83.6 0.01091
83.65 0.01209
83.7 0.0136
83.75 0.01358
83.8 0.00808
83.85 0.00439
83.9 -0.00119
83.95 -0.00816
84 -0.01476
84.05 -0.0189
84.1 -0.02367
84.15 -0.02404
84.2 -0.02539
84.25 -0.0202
84.3 -0.01767
84.35 -0.01177
84.4 -0.00953
84.45 -0.00839
84.5 -0.00643
84.55 -0.00349
84.6 -0.00516
84.65 -0.00716
84.7 -0.00746
84.75 -0.00414
84.8 0.00296
84.85 0.00525
84.9 0.00876
84.95 0.01078
85 0.01043
85.05 0.00934
85.1 0.0103
85.15 0.00555
85.2 0.00167
85.25 -0.00522
85.3 -0.00739
85.35 -0.01282
85.4 -0.01176
85.45 -0.00884
85.5 -0.00206
85.55 0.00546
85.6 0.01135
85.65 0.01388
85.7 0.01791
85.75 0.01909
85.8 0.02224
85.85 0.02513
85.9 0.02412
85.95 0.01982
86 0.01433
86.05 0.01391
86.1 0.00899
86.15 0.00046
86.2 -0.00133
86.25 -0.00569
86.3 -0.00721
86.35 -0.00677
86.4 -0.00993
86.45 -0.01252
86.5 -0.01094
86.55 -0.01157
86.6 -0.00662
86.65 -0.00518
86.7 -0.00851
86.75 -0.01214
86.8 -0.01511
86.85 -0.01708
86.9 -0.01844
86.95 -0.01837
87 -0.01389
87.05 -0.01265
87.1 -0.01314
87.15 -0.01211
87.2 -0.00722
87.25 -0.00782
87.3 -0.00596
87.35 -0.00189
87.4 -0.00335
87.45 -0.00856
87.5 -0.01123
87.55 -0.0114
87.6 -0.01356
87.65 -0.01365
87.7 -0.01228
87.75 -0.01359
87.8 -0.01307
87.85 -0.00845
87.9 -0.00412
87.95 0.00035
88 0.00226
88.05 0.00549
88.1 0.00786
88.15 0.0094
88.2 0.01374
88.25 0.01548
88.3 0.01314
88.35 0.01233
88.4 0.0088
88.45 0.01019
88.5 0.0065
88.55 0.00618
88.6 0.00754
88.65 0.01079
88.7 0.01539
88.75 0.01975
88.8 0.01765
88.85 0.01469
88.9 0.01306
88.95 0.00759
89 -0.00107
89.05 -0.00781
89.1 -0.01447
89.15 -0.02006
89.2 -0.02486
89.25 -0.02653
89.3 -0.02752
89.35 -0.02628
89.4 -0.01909
89.45 -0.00955
89.5 0.00091
89.55 0.01006
89.6 0.0166
89.65 0.02259
89.7 0.0253
89.75 0.02852
89.8 0.03029
89.85 0.0279
89.9 0.02392
89.95 0.01792
90 0.01571
90.05 0.01325
90.1 0.00839
90.15 0.00494
90.2 0.00248
90.25 -0.00377
90.3 -0.00581
90.35 -0.00523
90.4 -0.00655
90.45 -0.00894
90.5 -0.00971
90.55 -0.00559
90.6 0.00042
90.65 0.00393
90.7 0.00595
90.75 0.00969
90.8 0.01288
90.85 0.00983
90.9 0.00313
90.95 -0.00095
91 -0.00458
91.05 -0.00364
91.1 -0.00058
91.15 0.00011
91.2 0.00057
91.25 0.00488
91.3 0.01108
91.35 0.01696
91.4 0.01436
91.45 0.0148
91.5 0.01414
91.55 0.01173
91.6 0.0078
91.65 0.00275
91.7 0.00148
91.75 0.00357
91.8 0.00623
91.85 0.00465
91.9 -0.00017
91.95 -0.00423
92 -0.006
92.05 -0.01079
92.1 -0.01567
92.15 -0.02117
92.2 -0.02279
92.25 -0.02404
92.3 -0.02527
92.35 -0.01986
92.4 -0.01698
92.45 -0.01231
92.5 -0.01305
92.55 -0.01048
92.6 -0.01075
92.65 -0.00931
92.7 -0.00299
92.75 0.00282
92.8 0.00619
92.85 0.00941
92.9 0.00641
92.95 0.0036
93 0.00443
93.05 0.0048
93.1 0.00297
93.15 -0.00106
93.2 -0.00328
93.25 -0.00498
93.3 -0.00307
93.35 -0.00421
93.4 -0.0026
93.45 -0.00244
93.5 0.00051
93.55 0.00283
93.6 0.0068
93.65 0.01301
93.7 0.015
93.75 0.01703
93.8 0.01466
93.85 0.01374
93.9 0.01427
93.95 0.01001
94 0.00182
94.05 -0.00676
94.1 -0.0089
94.15 -0.01055
94.2 -0.01563
94.25 -0.01497
94.3 -0.0164
94.35 -0.01872
94.4 -0.01989
94.45 -0.01491
94.5 -0.0101
94.55 -0.00307
94.6 -0.00204
94.65 -0.00533
94.7 -0.00983
94.75 -0.01107
94.8 -0.00755
94.85 -0.0027
94.9 -0.00282
94.95 -0.00622
95 -0.00369
95.05 -0.00408
95.1 -0.00094
95.15 0.00574
95.2 0.00609
95.25 0.01022
95.3 0.01329
95.35 0.01442
95.4 0.01221
95.45 0.01041
95.5 0.00439
95.55 -0.00428
95.6 -0.00747
95.65 -0.00454
95.7 0.0009
95.75 0.00308
95.8 0.00068
95.85 0.0005
95.9 -0.00364
95.95 -0.00238
96 0.00148
96.05 0.00045
96.1 -0.00356
96.15 -0.00402
96.2 -0.00331
96.25 0.00042
96.3 0.00511
96.35 0.00839
96.4 0.012
96.45 0.01411
96.5 0.01432
96.55 0.01182
96.6 0.01086
96.65 0.01171
96.7 0.01015
96.75 0.00827
96.8 0.00568
96.85 0.00794
96.9 0.00525
96.95 0.00503
97 0.00397
97.05 0.00666
97.1 0.00619
97.15 0.00423
97.2 0.00126
97.25 -0.0037
97.3 -0.01119
97.35 -0.01258
97.4 -0.01301
97.45 -0.01716
97.5 -0.02079
97.55 -0.01795
97.6 -0.01782
97.65 -0.01485
97.7 -0.0153
97.75 -0.01428
97.8 -0.01199
97.85 -0.00861
97.9 -0.00315
97.95 0.00019
98 0.00321
98.05 0.00475
98.1 0.00156
98.15 -0.00518
98.2 -0.00857
98.25 -0.00828
98.3 -0.00482
98.35 -0.00136
98.4 0.00252
98.45 0.0069
98.5 0.01251
98.55 0.01403
98.6 0.01579
98.65 0.01422
98.7 0.01026
98.75 0.01093
98.8 0.00705
98.85 0.00747
98.9 0.00297
98.95 0.00081
99 -0.00343
99.05 -0.00598
99.1 -0.01179
99.15 -0.01826
99.2 -0.01893
99.25 -0.01892
99.3 -0.01462
99.35 -0.00835
99.4 -0.00481
99.45 0.00059
99.5 0.00346
99.55 0.00739
99.6 0.00702
99.65 0.0032
99.7 0.00048
99.75 -0.0016
99.8 0.00178
99.85 0.00362
99.9 0.00769
99.95 0.00737
