0 0
0.05 0.00681
0.1 0.01509
0.15 0.02594
0.2 0.0341
0.25 0.03931
0.3 0.04529
0.35 0.04697
0.4 0.04612
0.45 0.04815
0.5 0.05083
0.55 0.0523
0.6 0.05167
0.65 0.0489
0.7 0.04919
0.75 0.04897
0.8 0.0479
0.85 0.04902
0.9 0.04785
0.95 0.04568
1 0.04483
1.05 0.04239
1.1 0.03759
1.15 0.03583
1.2 0.03192
1.25 0.02968
1.3 0.03107
1.35 0.03327
1.4 0.03568
1.45 0.03318
1.5 0.02751
1.55 0.02175
1.6 0.01946
1.65 0.01826
1.7 0.02002
1.75 0.02449
1.8 0.02382
1.85 0.01998
1.9 0.02001
1.95 0.0182
2 0.01532
2.05 0.01056
2.1 0.00518
2.15 0.00079
2.2 0.00151
2.25 0.00131
2.3 0.00394
2.35 0.00863
2.4 0.01507
2.45 0.01619
2.5 0.01959
2.55 0.0249
2.6 0.02607
2.65 0.02858
2.7 0.03113
2.75 0.02838
2.8 0.02702
2.85 0.02771
2.9 0.03044
2.95 0.03216
3 0.03257
3.05 0.02887
3.1 0.02198
3.15 0.01752
3.2 0.01656
3.25 0.01491
3.3 0.01538
3.35 0.01755
3.4 0.01942
3.45 0.01989
3.5 0.02314
3.55 0.02596
3.6 0.02942
3.65 0.02926
3.7 0.02868
3.75 0.03015
3.8 0.02771
3.85 0.02641
3.9 0.02746
3.95 0.02685
4 0.02221
4.05 0.02132
4.1 0.02229
4.15 0.024
4.2 0.02224
4.25 0.0195
4.3 0.01984
4.35 0.01805
4.4 0.0177
4.45 0.01408
4.5 0.00895
4.55 0.00241
4.6 0.00151
4.65 0.00179
4.7 -0.00077
4.75 -0.0029
4.8 -0.0064
4.85 -0.0102
4.9 -0.01294
4.95 -0.01543
5 -0.0137
5.05 -0.00883
5.1 -0.00468
5.15 0.00143
5.2 0.00409
5.25 0.00942
5.3 0.00995
5.35 0.01235
5.4 0.0158
5.45 0.01803
5.5 0.01868
5.55 0.01695
5.6 0.0174
5.65 0.01773
5.7 0.01637
5.75 0.01756
5.8 0.01906
5.85 0.01731
5.9 0.01421
5.95 0.01194
6 0.01258
6.05 0.00993
6.1 0.00899
6.15 0.00865
6.2 0.00795
6.25 0.00853
6.3 0.00985
6.35 0.01132
6.4 0.00986
6.45 0.00698
6.5 0.00551
6.55 0.00619
6.6 0.00602
6.65 0.00655
6.7 0.00692
6.75 0.00906
6.8 0.01159
6.85 0.01129
6.9 0.00967
6.95 0.00594
7 0.00232
7.05 -0.00338
7.1 -0.00633
7.15 -0.00737
7.2 -0.0094
7.25 -0.0097
7.3 -0.00917
7.35 -0.0114
7.4 -0.0111
7.45 -0.0126
7.5 -0.0126
7.55 -0.01127
7.6 -0.00898
7.65 -0.00741
7.7 -0.00379
7.75 0.00191
7.8 0.00245
7.85 0.00329
7.9 0.00482
7.95 0.00895
8 0.01225
8.05 0.01131
8.1 0.00687
8.15 0.00706
8.2 0.00822
8.25 0.00641
8.3 0.0032
8.35 0.00215
8.4 0.00114
8.45 0.00356
8.5 0.00773
8.55 0.01121
8.6 0.01547
8.65 0.01792
8.7 0.01679
8.75 0.01693
8.8 0.01382
8.85 0.01146
8.9 0.00804
8.95 0.00205
9 -0.00354
9.05 -0.00411
9.1 -0.00483
9.15 -0.00656
9.2 -0.00525
9.25 -0.0067
9.3 -0.00586
9.35 -0.00364
9.4 -0.0048
9.45 -0.00695
9.5 -0.01049
9.55 -0.00844
9.6 -0.00779
9.65 -0.00655
9.7 -0.00177
9.75 0.00352
9.8 0.00362
9.85 0.00372
9.9 0.00572
9.95 0.00939
10 0.01032
10.05 0.01201
10.1 0.0135
10.15 0.01457
10.2 0.01169
10.25 0.00963
10.3 0.00637
10.35 0.00717
10.4 0.0082
10.45 0.00568
10.5 0.00347
10.55 0.00408
10.6 0.0054
10.65 0.0076
10.7 0.00786
10.75 0.00822
10.8 0.00565
10.85 0.00598
10.9 0.0059
10.95 0.00172
11 -0.00472
11.05 -0.00823
11.1 -0.01117
11.15 -0.00883
11.2 -0.01005
11.25 -0.00903
11.3 -0.00445
11.35 0.00189
11.4 0.00517
11.45 0.0097
11.5 0.01221
11.55 0.01454
11.6 0.01248
11.65 0.00955
11.7 0.00472
11.75 0.00037
11.8 -0.00394
11.85 -0.00356
11.9 -0.00425
11.95 -0.00273
12 -0.00042
12.05 -0.00098
12.1 -0.00442
12.15 -0.00495
12.2 -0.00752
12.25 -0.01082
12.3 -0.01299
12.35 -0.01107
12.4 -0.01002
12.45 -0.00663
12.5 -0.00391
12.55 -0.005
12.6 -0.00579
12.65 -0.00242
12.7 -0.00075
12.75 -0.00061
12.8 -0.00296
12.85 -0.00167
12.9 -0.0016
12.95 -0.00226
13 -0.00198
13.05 -0.0001
13.1 -0.00101
13.15 -0.00204
13.2 -0.00085
13.25 -0.00278
13.3 -0.00104
13.35 -0.00263
13.4 -0.00086
13.45 0.00308
13.5 0.00761
13.55 0.01223
13.6 0.01138
13.65 0.0113
13.7 0.00864
13.75 0.00674
13.8 0.00582
13.85 0.00242
13.9 -0.00167
13.95 -0.00514
14 -0.00433
14.05 -0.00392
14.1 -0.00631
14.15 -0.00488
14.2 -0.00089
14.25 0.00464
14.3 0.00709
14.35 0.00684
14.4 0.00358
14.45 0.00427
14.5 0.00095
14.55 0.00137
14.6 -0.00128
14.65 -0.00421
14.7 -0.00263
14.75 -0.00097
14.8 -0.00037
14.85 -0.00339
14.9 -0.00685
14.95 -0.00783
15 -0.01124
15.05 -0.01588
15.1 -0.01613
15.15 -0.01539
15.2 -0.01124
15.25 -0.00773
15.3 -0.00458
15.35 -0.00345
15.4 -0.00298
15.45 -0.00571
15.5 -0.00705
15.55 -0.00852
15.6 -0.00923
15.65 -0.00602
15.7 -0.00081
15.75 0.00159
15.8 0.00366
15.85 0.00117
15.9 0.00028
15.95 0.0029
16 0.00571
16.05 0.00374
16.1 -0.00024
16.15 0.00055
16.2 0.00223
16.25 0.00225
16.3 0.00095
16.35 -0.00167
16.4 -0.00366
16.45 -0.00743
16.5 -0.01142
16.55 -0.01013
16.6 -0.01152
16.65 -0.01482
16.7 -0.01759
16.75 -0.01587
16.8 -0.01415
16.85 -0.00849
16.9 -0.00627
16.95 -0.00651
17 -0.00364
17.05 -0.004
17.1 -0.0008
17.15 0.00302
17.2 0.00552
17.25 0.00965
17.3 0.01094
17.35 0.01355
17.4 0.01461
17.45 0.01617
17.5 0.01248
17.55 0.00787
17.6 0.00702
17.65 0.0071
17.7 0.00723
17.75 0.00362
17.8 -0.00065
17.85 -0.00482
17.9 -0.01056
17.95 -0.01042
18 -0.01165
18.05 -0.00927
18.1 -0.00739
18.15 -0.00755
18.2 -0.00975
18.25 -0.01334
18.3 -0.0167
18.35 -0.01388
18.4 -0.00854
18.45 -0.00312
18.5 -0.00117
18.55 0.00101
18.6 0.0007
18.65 -0.00241
18.7 -0.00418
18.75 -0.00653
18.8 -0.00514
18.85 -0.00396
18.9 -0.00371
18.95 -0.00238
19 -0.0046
19.05 -0.00362
19.1 -0.00384
19.15 -0.00582
19.2 -0.00431
19.25 -0.00524
19.3 -0.00648
19.35 -0.00347
19.4 0.00239
19.45 0.00926
19.5 0.0153
19.55 0.01946
19.6 0.01948
19.65 0.01702
19.7 0.01369
19.75 0.00849
19.8 0.00168
19.85 -0.00311
19.9 -0.0069
19.95 -0.00994
20 -0.00799
20.05 -0.00726
20.1 -0.00607
20.15 -0.00596
20.2 -0.00534
20.25 -0.00743
20.3 -0.00541
20.35 -0.0055
20.4 -0.00537
20.45 -0.00413
20.5 0.00008
20.55 0.00305
20.6 0.00789
20.65 0.01002
20.7 0.01273
20.75 0.01399
20.8 0.01189
20.85 0.00714
20.9 0.0008
20.95 -0.00446
21 -0.00395
21.05 -0.0014
21.1 -0.00091
21.15 -0.00309
21.2 -0.00222
21.25 -0.00422
21.3 -0.0065
21.35 -0.00761
21.4 -0.01094
21.45 -0.01347
21.5 -0.01628
21.55 -0.01705
21.6 -0.01582
21.65 -0.01027
21.7 -0.00243
21.75 0.00351
21.8 0.00552
21.85 0.00649
21.9 0.0071
21.95 0.00862
22 0.0114
22.05 0.01107
22.1 0.0096
22.15 0.00787
22.2 0.00944
22.25 0.01218
22.3 0.01466
22.35 0.01829
22.4 0.02092
22.45 0.02056
22.5 0.01858
22.55 0.01833
22.6 0.0167
22.65 0.01648
22.7 0.01284
22.75 0.01108
22.8 0.01188
22.85 0.00849
22.9 0.00263
22.95 -0.00394
23 -0.00836
23.05 -0.00941
23.1 -0.00867
23.15 -0.01061
23.2 -0.01334
23.25 -0.01433
23.3 -0.01511
23.35 -0.01295
23.4 -0.01384
23.45 -0.01107
23.5 -0.01181
23.55 -0.0142
23.6 -0.01377
23.65 -0.0156
23.7 -0.01645
23.75 -0.01537
23.8 -0.01369
23.85 -0.01388
23.9 -0.00956
23.95 -0.00688
24 -0.00167
24.05 -0.00043
24.1 -0.00253
24.15 -0.00516
24.2 -0.00642
24.25 -0.00672
24.3 -0.00706
24.35 -0.00768
24.4 -0.00819
24.45 -0.01014
24.5 -0.01094
24.55 -0.0132
24.6 -0.0159
24.65 -0.01359
24.7 -0.01065
24.75 -0.00446
24.8 -0.003
24.85 -0.00373
24.9 -0.00117
24.95 0.0034
25 0.00287
25.05 0.00368
25.1 0.00256
25.15 0.00259
25.2 0.00442
25.25 0.00839
25.3 0.00927
25.35 0.00941
25.4 0.01165
25.45 0.01303
25.5 0.01349
25.55 0.01586
25.6 0.01772
25.65 0.02071
25.7 0.02325
25.75 0.02426
25.8 0.02642
25.85 0.02896
25.9 0.03093
25.95 0.02711
26 0.02335
26.05 0.02079
26.1 0.01451
26.15 0.01209
26.2 0.00693
26.25 0.00547
26.3 0.00647
26.35 0.00874
26.4 0.00619
26.45 0.00733
26.5 0.00703
26.55 0.00336
26.6 0.00049
26.65 -0.0038
26.7 -0.00584
26.75 -0.00765
26.8 -0.0111
26.85 -0.01091
26.9 -0.00883
26.95 -0.00365
27 -0.00064
27.05 0.00284
27.1 0.002
27.15 0.00237
27.2 0.00256
27.25 0.00318
27.3 0.00637
27.35 0.00693
27.4 0.00576
27.45 0.00474
27.5 0.00328
27.55 0.00206
27.6 -0.00029
27.65 -0.00038
27.7 -0.00187
27.75 -0.00259
27.8 -0.00645
27.85 -0.00992
27.9 -0.01141
27.95 -0.00869
28 -0.0092
28.05 -0.01061
28.1 -0.01455
28.15 -0.01613
28.2 -0.01904
28.25 -0.02044
28.3 -0.0232
28.35 -0.02592
28.4 -0.03332
28.45 -0.03834
28.5 -0.04209
28.55 -0.05167
28.6 -0.06067
28.65 -0.07102
28.7 -0.08278
28.75 -0.09947
28.8 -0.12393
28.85 -0.15412
28.9 -0.18338
28.95 -0.21401
29 -0.25015
29.05 -0.28952
29.1 -0.33709
29.15 -0.38704
29.2 -0.44252
29.25 -0.50169
29.3 -0.56411
29.35 -0.62984
29.4 -0.70499
29.45 -0.78621
29.5 -0.87422
29.55 -0.96476
29.6 -1.06111
29.65 -1.1632
29.7 -1.26665
29.75 -1.36923
29.8 -1.46857
29.85 -1.56679
29.9 -1.66752
29.95 -1.76621
30 -1.85782
30.05 -1.94069
30.1 -2.01219
30.15 -2.0759
30.2 -2.12937
30.25 -2.17341
30.3 -2.20598
30.35 -2.22475
30.4 -2.22942
30.45 -2.22033
30.5 -2.19659
30.55 -2.15642
30.6 -2.10023
30.65 -2.02875
30.7 -1.94021
30.75 -1.83565
30.8 -1.71793
30.85 -1.58776
30.9 -1.45055
30.95 -1.30931
31 -1.16455
31.05 -1.01248
31.1 -0.8527
31.15 -0.69159
31.2 -0.52787
31.25 -0.36514
31.3 -0.20711
31.35 -0.05383
31.4 0.09868
31.45 0.24482
31.5 0.38269
31.55 0.5172
31.6 0.64166
31.65 0.76173
31.7 0.87619
31.75 0.97842
31.8 1.0703
31.85 1.15436
31.9 1.22987
31.95 1.29815
32 1.36429
32.05 1.42386
32.1 1.47784
32.15 1.52438
32.2 1.56382
32.25 1.60312
32.3 1.63701
32.35 1.66392
32.4 1.68981
32.45 1.71169
32.5 1.73162
32.55 1.74372
32.6 1.74978
32.65 1.75091
32.7 1.75119
32.75 1.75037
32.8 1.75112
32.85 1.74729
32.9 1.73948
32.95 1.73211
33 1.72461
33.05 1.71075
33.1 1.69816
33.15 1.68437
33.2 1.66753
33.25 1.64516
33.3 1.62083
33.35 1.59535
33.4 1.56786
33.45 1.54258
33.5 1.51737
33.55 1.48994
33.6 1.45843
33.65 1.42807
33.7 1.39711
33.75 1.36548
33.8 1.33428
33.85 1.2996
33.9 1.26141
33.95 1.21984
34 1.17764
34.05 1.13518
34.1 1.09615
34.15 1.06039
34.2 1.02238
34.25 0.98038
34.3 0.93838
34.35 0.89955
34.4 0.85759
34.45 0.81621
34.5 0.77717
34.55 0.74059
34.6 0.70272
34.65 0.66567
34.7 0.62916
34.75 0.59056
34.8 0.5514
34.85 0.51525
34.9 0.48281
34.95 0.45345
35 0.42551
35.05 0.39487
35.1 0.36364
35.15 0.32924
35.2 0.29778
35.25 0.26917
35.3 0.2404
35.35 0.2122
35.4 0.18433
35.45 0.15618
35.5 0.12787
35.55 0.10226
35.6 0.08007
35.65 0.05815
35.7 0.03328
35.75 0.0126
35.8 -0.00463
35.85 -0.02142
35.9 -0.04288
35.95 -0.06404
36 -0.08366
36.05 -0.09963
36.1 -0.11638
36.15 -0.13188
36.2 -0.14692
36.25 -0.16368
36.3 -0.17593
36.35 -0.18725
36.4 -0.19584
36.45 -0.20774
36.5 -0.21506
36.55 -0.21907
36.6 -0.22738
36.65 -0.23269
36.7 -0.2367
36.75 -0.24449
36.8 -0.25203
36.85 -0.2576
36.9 -0.26356
36.95 -0.26635
37 -0.26748
37.05 -0.26924
37.1 -0.26968
37.15 -0.2719
37.2 -0.27206
37.25 -0.27254
37.3 -0.27501
37.35 -0.27676
37.4 -0.28144
37.45 -0.28148
37.5 -0.28535
37.55 -0.2891
37.6 -0.29336
37.65 -0.29485
37.7 -0.29459
37.75 -0.29374
37.8 -0.28825
37.85 -0.28159
37.9 -0.27543
37.95 -0.27264
38 -0.27111
38.05 -0.26773
38.1 -0.26484
38.15 -0.26376
38.2 -0.25954
38.25 -0.25677
38.3 -0.25609
38.35 -0.25403
38.4 -0.24951
38.45 -0.24589
38.5 -0.24197
38.55 -0.24204
38.6 -0.23898
38.65 -0.23795
38.7 -0.2337
38.75 -0.22677
38.8 -0.22403
38.85 -0.22054
38.9 -0.21686
38.95 -0.21452
39 -0.21473
39.05 -0.21146
39.1 -0.2073
39.15 -0.20293
39.2 -0.19754
39.25 -0.19264
39.3 -0.18865
39.35 -0.18368
39.4 -0.18148
39.45 -0.18217
39.5 -0.18338
39.55 -0.18324
39.6 -0.17937
39.65 -0.17924
39.7 -0.178
39.75 -0.17753
39.8 -0.17244
39.85 -0.1709
39.9 -0.16627
39.95 -0.16066
40 -0.15359
40.05 -0.14841
40.1 -0.14412
40.15 -0.14271
40.2 -0.14215
40.25 -0.13917
40.3 -0.13727
40.35 -0.13566
40.4 -0.13529
40.45 -0.1368
40.5 -0.13783
40.55 -0.13658
40.6 -0.13289
40.65 -0.13063
40.7 -0.12723
40.75 -0.128
40.8 -0.12876
40.85 -0.12733
40.9 -0.12271
40.95 -0.11703
41 -0.11008
41.05 -0.10876
41.1 -0.1085
41.15 -0.11161
41.2 -0.11434
41.25 -0.11818
41.3 -0.12028
41.35 -0.11741
41.4 -0.11395
41.45 -0.11339
41.5 -0.11054
41.55 -0.1066
41.6 -0.10564
41.65 -0.10196
41.7 -0.09692
41.75 -0.09508
41.8 -0.09447
41.85 -0.09023
41.9 -0.084
41.95 -0.07668
42 -0.07489
42.05 -0.07754
42.1 -0.08105
42.15 -0.08209
42.2 -0.0818
42.25 -0.07929
42.3 -0.07997
42.35 -0.08146
42.4 -0.07938
42.45 -0.07507
42.5 -0.07532
42.55 -0.07636
42.6 -0.07449
42.65 -0.07599
42.7 -0.07327
42.75 -0.07112
42.8 -0.06789
42.85 -0.06241
42.9 -0.05653
42.95 -0.05117
43 -0.05169
43.05 -0.05472
43.1 -0.05773
43.15 -0.06023
43.2 -0.06132
43.25 -0.06008
43.3 -0.06045
43.35 -0.05956
43.4 -0.06183
43.45 -0.06252
43.5 -0.06315
43.55 -0.06362
43.6 -0.06264
43.65 -0.06051
43.7 -0.05562
43.75 -0.05327
43.8 -0.05107
43.85 -0.05031
43.9 -0.04982
43.95 -0.05135
44 -0.04982
44.05 -0.04482
44.1 -0.04002
44.15 -0.03996
44.2 -0.03822
44.25 -0.03578
44.3 -0.03289
44.35 -0.03305
44.4 -0.03497
44.45 -0.03796
44.5 -0.04109
44.55 -0.04396
44.6 -0.04804
44.65 -0.05234
44.7 -0.05423
44.75 -0.05691
44.8 -0.05768
44.85 -0.05881
44.9 -0.05966
44.95 -0.05913
45 -0.05979
45.05 -0.05483
45.1 -0.05186
45.15 -0.04674
45.2 -0.03876
45.25 -0.03371
45.3 -0.03296
45.35 -0.03066
45.4 -0.03079
45.45 -0.03047
45.5 -0.03287
45.55 -0.03261
45.6 -0.03026
45.65 -0.02897
45.7 -0.02451
45.75 -0.01962
45.8 -0.01404
45.85 -0.01316
45.9 -0.01219
45.95 -0.01102
46 -0.01237
46.05 -0.01604
46.1 -0.02104
46.15 -0.02687
46.2 -0.02924
46.25 -0.03146
46.3 -0.03077
46.35 -0.02693
46.4 -0.02202
46.45 -0.01971
46.5 -0.01761
46.55 -0.01419
46.6 -0.01276
46.65 -0.00975
46.7 -0.00923
46.75 -0.01077
46.8 -0.01342
46.85 -0.01562
46.9 -0.01429
46.95 -0.01536
47 -0.01267
47.05 -0.01341
47.1 -0.01047
47.15 -0.0115
47.2 -0.01295
47.25 -0.01079
47.3 -0.01096
47.35 -0.01483
47.4 -0.0155
47.45 -0.0149
47.5 -0.01739
47.55 -0.01757
47.6 -0.01908
47.65 -0.02258
47.7 -0.02495
47.75 -0.02754
47.8 -0.02501
47.85 -0.02216
47.9 -0.01623
47.95 -0.0119
48 -0.00688
48.05 -0.00567
48.1 -0.00247
48.15 0.00172
48.2 0.00195
48.25 0.00154
48.3 -0.00184
48.35 -0.00229
48.4 -0.00428
48.45 -0.00278
48.5 -0.0006
48.55 0.00166
48.6 0.00138
48.65 -0.00173
48.7 -0.00187
48.75 -0.00419
48.8 -0.00499
48.85 -0.00391
48.9 -0.00267
48.95 -0.00483
49 -0.00741
49.05 -0.00607
49.1 -0.00608
49.15 -0.00609
49.2 -0.00966
49.25 -0.00893
49.3 -0.00928
49.35 -0.01
49.4 -0.0086
49.45 -0.00685
49.5 -0.00474
49.55 -0.00348
49.6 -0.0007
49.65 -0.00064
49.7 -0.00449
49.75 -0.00968
49.8 -0.00974
49.85 -0.01071
49.9 -0.00857
49.95 -0.01042
50 -0.01468
50.05 -0.01348
50.1 -0.01532
50.15 -0.01903
50.2 -0.02379
50.25 -0.02603
50.3 -0.02275
50.35 -0.01785
50.4 -0.01064
50.45 -0.00356
50.5 0.00238
50.55 0.00221
50.6 0.00028
50.65 -0.00359
50.7 -0.00572
50.75 -0.00551
50.8 -0.00731
50.85 -0.00506
50.9 -0.00391
50.95 -0.00643
51 -0.00636
51.05 -0.00747
51.1 -0.00852
51.15 -0.00869
51.2 -0.00585
51.25 -0.00051
51.3 0.00442
51.35 0.00411
51.4 0.00417
51.45 0.00177
51.5 0.0019
51.55 0.00009
51.6 -0.00119
51.65 -0.00087
51.7 0.00175
51.75 0.00251
51.8 0.00107
51.85 -0.0028
51.9 -0.00413
51.95 -0.00707
52 -0.00725
52.05 -0.00556
52.1 -0.00449
52.15 -0.00123
52.2 0.00306
52.25 0.00668
52.3 0.00881
52.35 0.00891
52.4 0.00711
52.45 0.00344
52.5 0.0029
52.55 0.00219
52.6 0.00312
52.65 0.00234
52.7 -0.00099
52.75 -0.0066
52.8 -0.01074
52.85 -0.01613
52.9 -0.01865
52.95 -0.02217
53 -0.02249
53.05 -0.02381
53.1 -0.02608
53.15 -0.02786
53.2 -0.02835
53.25 -0.02353
53.3 -0.02144
53.35 -0.021
53.4 -0.01571
53.45 -0.01286
53.5 -0.01056
53.55 -0.01075
53.6 -0.00813
53.65 -0.00727
53.7 -0.00747
53.75 -0.00586
53.8 -0.00406
53.85 0.00009
53.9 0.00529
53.95 0.00666
54 0.0097
54.05 0.01404
54.1 0.01605
54.15 0.01736
54.2 0.01439
54.25 0.00913
54.3 0.00564
54.35 0.0039
54.4 0.00171
54.45 0.00158
54.5 -0.00076
54.55 0.00015
54.6 0.00344
54.65 0.00703
54.7 0.01047
54.75 0.00902
54.8 0.0056
54.85 0.0031
54.9 0.00186
54.95 0.00349
55 0.0029
55.05 0.00555
55.1 0.00489
55.15 0.00066
55.2 0.00034
55.25 0.00144
55.3 0.00281
55.35 0.00475
55.4 0.00248
55.45 0.00332
55.5 0.00054
55.55 -0.00368
55.6 -0.00464
55.65 -0.00671
55.7 -0.00927
55.75 -0.01357
55.8 -0.01513
55.85 -0.01681
55.9 -0.01646
55.95 -0.01819
56 -0.01668
56.05 -0.01338
56.1 -0.00827
56.15 -0.00682
56.2 -0.00625
56.25 -0.00494
56.3 -0.00588
56.35 -0.00463
56.4 -0.00264
56.45 -0.00061
56.5 0.00322
56.55 0.00227
56.6 -0.00115
56.65 -0.00413
56.7 -0.00743
56.75 -0.00913
56.8 -0.00842
56.85 -0.00815
56.9 -0.00511
56.95 -0.0033
57 -0.00294
57.05 0.00033
57.1 -0.00079
57.15 -0.0014
57.2 0.00083
57.25 0.00016
57.3 -0.00082
57.35 -0.00264
57.4 -0.00578
57.45 -0.00952
57.5 -0.00873
57.55 -0.00609
57.6 -0.00607
57.65 -0.00749
57.7 -0.00924
57.75 -0.00707
57.8 -0.00294
57.85 -0.00298
57.9 -0.00093
57.95 0.00216
58 0.00347
58.05 0.0023
58.1 0.00252
58.15 0.00476
58.2 0.00566
58.25 0.00739
58.3 0.01051
58.35 0.00934
58.4 0.00929
58.45 0.01046
58.5 0.00767
58.55 0.0036
58.6 0.0014
58.65 -0.00085
58.7 -0.00469
58.75 -0.00484
58.8 -0.00432
58.85 -0.00498
58.9 -0.00383
58.95 -0.00311
59 -0.00012
59.05 0.00489
59.1 0.00762
59.15 0.00867
59.2 0.00519
59.25 -0.00014
59.3 -0.00128
59.35 -0.00116
59.4 -0.00425
59.45 -0.00864
59.5 -0.01156
59.55 -0.01589
59.6 -0.01508
59.65 -0.01425
59.7 -0.0149
59.75 -0.0134
59.8 -0.01422
59.85 -0.01368
59.9 -0.01101
59.95 -0.00843
60 -0.00924
60.05 -0.00678
60.1 -0.00655
60.15 -0.00822
60.2 -0.01114
60.25 -0.00958
60.3 -0.00733
60.35 -0.00191
60.4 -0.00098
60.45 0.00065
60.5 0.00186
60.55 0.00326
60.6 0.00279
60.65 0.00044
60.7 0.00183
60.75 0.00511
60.8 0.00523
60.85 0.00318
60.9 0.00147
60.95 0.00337
61 0.00254
61.05 0.00497
61.1 0.00429
61.15 0.00042
61.2 -0.00334
61.25 -0.00875
61.3 -0.01342
61.35 -0.013
61.4 -0.00967
61.45 -0.00871
61.5 -0.0094
61.55 -0.0061
61.6 -0.00223
61.65 -0.00244
61.7 -0.00129
61.75 0.00245
61.8 0.00797
61.85 0.0104
61.9 0.00986
61.95 0.01149
62 0.01432
62.05 0.01818
62.1 0.01718
62.15 0.01469
62.2 0.01444
62.25 0.01014
62.3 0.00538
62.35 0.00423
62.4 0.00181
62.45 0.00146
62.5 0.00064
62.55 -0.00227
62.6 -0.00663
62.65 -0.00689
62.7 -0.00678
62.75 -0.0087
62.8 -0.01037
62.85 -0.01103
62.9 -0.00861
62.95 -0.00378
63 -0.00288
63.05 0.00124
63.1 0.00198
63.15 0.00582
63.2 0.00762
63.25 0.01012
63.3 0.01197
63.35 0.00894
63.4 0.00965
63.45 0.00803
63.5 0.00973
63.55 0.01274
63.6 0.01266
63.65 0.01138
63.7 0.01271
63.75 0.01506
63.8 0.0134
63.85 0.01413
63.9 0.01609
63.95 0.01787
64 0.01648
64.05 0.01167
64.1 0.0083
64.15 0.00226
64.2 -0.00014
64.25 -0.00149
64.3 -0.00313
64.35 -0.00282
64.4 -0.00537
64.45 -0.00936
64.5 -0.0092
64.55 -0.00953
64.6 -0.00806
64.65 -0.00445
64.7 -0.00388
64.75 -0.00293
64.8 -0.00257
64.85 -0.00199
64.9 -0.00205
64.95 0.00096
65 0.00045
65.05 0.00327
65.1 0.00319
65.15 0.00533
65.2 0.00807
65.25 0.00869
65.3 0.00604
65.35 0.00611
65.4 0.00613
65.45 0.00672
65.5 0.00646
65.55 0.00243
65.6 -0.00207
65.65 -0.0047
65.7 -0.00782
65.75 -0.01031
65.8 -0.01138
65.85 -0.00859
65.9 -0.0032
65.95 0.00249
66 0.0071
66.05 0.00817
66.1 0.00611
66.15 0.00459
66.2 0.00491
66.25 0.00539
66.3 0.00781
66.35 0.01174
66.4 0.01648
66.45 0.01909
66.5 0.01754
66.55 0.01763
66.6 0.01415
66.65 0.01191
66.7 0.00685
66.75 0.00167
66.8 -0.00126
66.85 -0.00514
66.9 -0.00814
66.95 -0.01049
67 -0.01416
67.05 -0.01775
67.1 -0.02061
67.15 -0.01782
67.2 -0.01545
67.25 -0.01166
67.3 -0.00546
67.35 -0.00013
67.4 0.00639
67.45 0.00826
67.5 0.00569
67.55 0.00055
67.6 -0.00418
67.65 -0.00603
67.7 -0.00853
67.75 -0.01203
67.8 -0.01371
67.85 -0.01623
67.9 -0.01842
67.95 -0.01643
68 -0.01347
68.05 -0.00972
68.1 -0.00745
68.15 -0.00261
68.2 -0.00098
68.25 0.00101
68.3 0.00542
68.35 0.00421
68.4 0.0045
68.45 0.00476
68.5 0.00733
68.55 0.00486
68.6 0.00092
68.65 0.00127
68.7 0.00356
68.75 0.00116
68.8 -0.00393
68.85 -0.00682
68.9 -0.00659
68.95 -0.00472
69 -0.00121
69.05 0.00254
69.1 0.00768
69.15 0.01182
69.2 0.01662
69.25 0.02032
69.3 0.02355
69.35 0.0209
69.4 0.02059
69.45 0.01706
69.5 0.01471
69.55 0.01297
69.6 0.01106
69.65 0.00973
69.7 0.00684
69.75 0.00232
69.8 0.00162
69.85 0.00224
69.9 0.00548
69.95 0.00556
70 0.0039
70.05 -0.00071
70.1 -0.0072
70.15 -0.0122
70.2 -0.01129
70.25 -0.00744
70.3 -0.00466
70.35 -0.00235
70.4 0.00071
70.45 0.00171
70.5 0.00371
70.55 0.00494
70.6 0.00803
70.65 0.00732
70.7 0.00714
70.75 0.00785
70.8 0.00483
70.85 -0.00117
70.9 -0.00424
70.95 -0.00867
71 -0.0093
71.05 -0.0078
71.1 -0.00548
71.15 -0.00354
71.2 -0.00186
71.25 0.0016
71.3 0.00476
71.35 0.007
71.4 0.0073
71.45 0.00424
71.5 -0.00064
71.55 -0.00345
71.6 -0.00256
71.65 -0.00497
71.7 -0.00603
71.75 -0.0041
71.8 -0.00247
71.85 0.00024
71.9 -0.00119
71.95 -0.00281
72 -0.00512
72.05 -0.00478
72.1 -0.00193
72.15 0.00111
72.2 0.00505
72.25 0.00446
72.3 0.00017
72.35 -0.00174
72.4 -0.00618
72.45 -0.01062
72.5 -0.01163
72.55 -0.00911
72.6 -0.00543
72.65 -0.00283
72.7 0.00168
72.75 0.0068
72.8 0.00935
72.85 0.00866
72.9 0.00975
72.95 0.00916
73 0.00977
73.05 0.00602
73.1 0.00085
73.15 0.00038
73.2 -0.00264
73.25 -0.00402
73.3 -0.00621
73.35 -0.01039
73.4 -0.01452
73.45 -0.01684
73.5 -0.01851
73.55 -0.01536
73.6 -0.01101
73.65 -0.00649
73.7 -0.00289
73.75 -0.00144
73.8 -0.0004
73.85 -0.00315
73.9 -0.00182
73.95 -0.00293
74 -0.00107
74.05 0.0022
74.1 0.00741
74.15 0.0114
74.2 0.0145
74.25 0.0146
74.3 0.01593
74.35 0.01442
74.4 0.01245
74.45 0.01046
74.5 0.01124
74.55 0.00972
74.6 0.00919
74.65 0.00564
74.7 0.00389
74.75 -0.00106
74.8 -0.00278
74.85 -0.00373
74.9 -0.00695
74.95 -0.00573
75 -0.00596
75.05 -0.00581
75.1 -0.00737
75.15 -0.01078
75.2 -0.015
75.25 -0.01843
75.3 -0.02094
75.35 -0.02301
75.4 -0.0191
75.45 -0.01613
75.5 -0.015
75.55 -0.01272
75.6 -0.01232
75.65 -0.01162
75.7 -0.01347
75.75 -0.01023
75.8 -0.00848
75.85 -0.00959
75.9 -0.00849
75.95 -0.00414
76 0.00125
76.05 0.0036
76.1 0.00543
76.15 0.00273
76.2 -0.0005
76.25 -0.00478
76.3 -0.00657
76.35 -0.00667
76.4 -0.00319
76.45 -0.00161
76.5 0.00296
76.55 0.00394
76.6 0.00671
76.65 0.00783
76.7 0.00619
76.75 0.00384
76.8 0.00459
76.85 0.00733
76.9 0.01043
76.95 0.01086
77 0.0131
77.05 0.01159
77.1 0.01299
77.15 0.01215
77.2 0.0085
77.25 0.00353
77.3 -0.00052
77.35 -0.0008
77.4 0.00042
77.45 0.00098
77.5 0.00015
77.55 -0.00025
77.6 -0.00001
77.65 0.0002
77.7 0.00325
77.75 0.00162
77.8 -0.00249
77.85 -0.00272
77.9 -0.00582
77.95 -0.00932
78 -0.01229
78.05 -0.01109
78.1 -0.01035
78.15 -0.00722
78.2 -0.00276
78.25 0.00141
78.3 0.00068
78.35 -0.00254
78.4 -0.002
78.45 -0.0001
78.5 -0.00248
78.55 -0.00408
78.6 -0.00437
78.65 -0.00505
78.7 -0.00327
78.75 0.00024
78.8 0.00145
78.85 0.00031
78.9 0.00277
78.95 0.00744
79 0.0126
79.05 0.01759
79.1 0.01586
79.15 0.01648
79.2 0.01644
79.25 0.01317
79.3 0.00682
79.35 0.00217
79.4 -0.00031
79.45 -0.00011
79.5 -0.00011
79.55 0.00314
79.6 0.00397
79.65 0.0061
79.7 0.00324
79.75 -0.00236
79.8 -0.00867
79.85 -0.01046
79.9 -0.00823
79.95 -0.00463
80 -0.00096
80.05 0.0017
80.1 0.0054
80.15 0.00401
80.2 0.00571
80.25 0.0047
80.3 0.00168
80.35 0.00097
80.4 0.00337
80.45 0.00767
80.5 0.01264
80.55 0.01278
80.6 0.01079
80.65 0.01088
80.7 0.00875
80.75 0.00348
80.8 -0.0039
80.85 -0.00823
80.9 -0.00996
80.95 -0.01196
81 -0.01454
81.05 -0.01641
81.1 -0.0154
81.15 -0.01407
81.2 -0.01135
81.25 -0.0062
81.3 -0.0015
81.35 0.00432
81.4 0.01032
81.45 0.01239
81.5 0.01038
81.55 0.01101
81.6 0.01312
81.65 0.00966
81.7 0.00632
81.75 0.00157
81.8 -0.00367
81.85 -0.00444
81.9 -0.00739
81.95 -0.01034
82 -0.01107
82.05 -0.01238
82.1 -0.01104
82.15 -0.00825
82.2 -0.00468
82.25 -0.00246
82.3 0.0024
82.35 0.00181
82.4 0.00243
82.45 0.00506
82.5 0.00537
82.55 0.00799
82.6 0.00572
82.65 0.00417
82.7 0.0002
82.75 -0.00202
82.8 -0.00326
82.85 -0.00328
82.9 -0.00412
82.95 -0.0072
83 -0.00753
83.05 -0.00849
83.1 -0.00891
83.15 -0.01097
83.2 -0.01082
83.25 -0.00852
83.3 -0.00377
83.35 0.00158
83.4 0.0046
83.45 0.0093
83.5 0.00958
83.55 0.00582
83.6 -0.00045
83.65 -0.00353
83.7 -0.00661
83.75 -0.00739
83.8 -0.00806
83.85 -0.00457
83.9 0.00073
83.95 0.00124
84 0.00436
84.05 0.00371
84.1 0.00546
84.15 0.00725
84.2 0.0079
84.25 0.0095
84.3 0.00852
84.35 0.00807
84.4 0.00463
84.45 0.00111
84.5 0.00103
84.55 -0.00225
84.6 -0.00117
84.65 -0.00197
84.7 -0.00538
84.75 -0.00731
84.8 -0.01147
84.85 -0.01011
84.9 -0.0092
84.95 -0.01143
85 -0.01218
85.05 -0.01085
85.1 -0.00627
85.15 -0.00216
85.2 -0.00026
85.25 0.00043
85.3 0.0026
85.35 0.00233
85.4 0.00177
85.45 0.00174
85.5 -0.00104
85.55 -0.00397
85.6 -0.00519
85.65 -0.00809
85.7 -0.01186
85.75 -0.0115
85.8 -0.00925
85.85 -0.00385
85.9 -0.00206
85.95 -0.00123
86 0.0022
86.05 0.00423
86.1 0.00216
86.15 -0.00262
86.2 -0.00776
86.25 -0.00919
86.3 -0.00611
86.35 -0.00372
86.4 -0.00046
86.45 0.00209
86.5 0.006
86.55 0.00753
86.6 0.01087
86.65 0.00927
86.7 0.00805
86.75 0.00478
86.8 0.00036
86.85 -0.00159
86.9 -0.0058
86.95 -0.00738
87 -0.00677
87.05 -0.00622
87.1 -0.00391
87.15 0.00077
87.2 0.00441
87.25 0.00613
87.3 0.00817
87.35 0.01151
87.4 0.01569
87.45 0.01875
87.5 0.0202
87.55 0.02021
87.6 0.01655
87.65 0.0117
87.7 0.00589
87.75 0.00068
87.8 -0.00088
87.85 -0.00548
87.9 -0.00616
87.95 -0.00594
88 -0.0042
88.05 -0.00003
88.1 0.00341
88.15 0.00281
88.2 0.00497
88.25 0.00544
88.3 0.00657
88.35 0.0045
88.4 0.00134
88.45 0.00028
88.5 0.00215
88.55 0.00521
88.6 0.00389
88.65 -0.00071
88.7 -0.0019
88.75 -0.0044
88.8 -0.00762
88.85 -0.00735
88.9 -0.00817
88.95 -0.0108
89 -0.01224
89.05 -0.01174
89.1 -0.0074
89.15 -0.00372
89.2 -0.00388
89.25 -0.00043
89.3 -0.00178
89.35 -0.0044
89.4 -0.00526
89.45 -0.00868
89.5 -0.01371
89.55 -0.01691
89.6 -0.02105
89.65 -0.02345
89.7 -0.02451
89.75 -0.02521
89.8 -0.02323
89.85 -0.02158
89.9 -0.01622
89.95 -0.00842
90 -0.00346
90.05 0.00115
90.1 0.0028
90.15 0.00121
90.2 0.00161
90.25 0.00303
90.3 0.0008
90.35 -0.00373
90.4 -0.00357
90.45 -0.00369
90.5 -0.00046
90.55 0.00415
90.6 0.00324
90.65 0.00559
90.7 0.00682
90.75 0.00459
90.8 0.00177
90.85 0.00217
90.9 0.00321
90.95 0.00295
91 0.00135
91.05 0.00289
91.1 0.0063
91.15 0.00908
91.2 0.01034
91.25 0.01012
91.3 0.00657
91.35 0.00106
91.4 -0.00031
91.45 -0.00015
91.5 -0.00327
91.55 -0.00462
91.6 -0.00717
91.65 -0.00715
91.7 -0.00403
91.75 0.00138
91.8 0.00701
91.85 0.00838
91.9 0.00974
91.95 0.01065
92 0.01037
92.05 0.01133
92.1 0.00873
92.15 0.00293
92.2 0.00148
92.25 -0.00268
92.3 -0.00208
92.35 -0.00502
92.4 -0.00839
92.45 -0.00791
92.5 -0.00439
92.55 -0.00338
92.6 -0.00179
92.65 -0.00212
92.7 -0.00077
92.75 -0.00134
92.8 0.0011
92.85 0.00304
92.9 0.00243
92.95 0.00499
93 0.00874
93.05 0.00967
93.1 0.00911
93.15 0.01042
93.2 0.01317
93.25 0.01309
93.3 0.0134
93.35 0.01275
93.4 0.00921
93.45 0.00592
93.5 0.0052
93.55 0.00485
93.6 0.00387
93.65 0.00448
93.7 0.00077
93.75 0.00047
93.8 -0.00056
93.85 0.00068
93.9 -0.00111
93.95 -0.00551
94 -0.00705
94.05 -0.00795
94.1 -0.00582
94.15 -0.00485
94.2 -0.00106
94.25 0.00196
94.3 0.0032
94.35 0.00287
94.4 0.00415
94.45 0.00161
94.5 0.002
94.55 0.00134
94.6 -0.00032
94.65 -0.00044
94.7 -0.00243
94.75 -0.00552
94.8 -0.00653
94.85 -0.00831
94.9 -0.00963
94.95 -0.01114
95 -0.01086
95.05 -0.00678
95.1 -0.00674
95.15 -0.00424
95.2 -0.00425
95.25 -0.00538
95.3 -0.00713
95.35 -0.00871
95.4 -0.01076
95.45 -0.01021
95.5 -0.01199
95.55 -0.01555
95.6 -0.01931
95.65 -0.01882
95.7 -0.02028
95.75 -0.01652
95.8 -0.01567
95.85 -0.01429
95.9 -0.01169
95.95 -0.00562
96 -0.00146
96.05 0.00008
96.1 0.00006
96.15 -0.00133
96.2 -0.00435
96.25 -0.00608
96.3 -0.0054
96.35 -0.00747
96.4 -0.01063
96.45 -0.01305
96.5 -0.01429
96.55 -0.01247
96.6 -0.01067
96.65 -0.00605
96.7 -0.00582
96.75 -0.00656
96.8 -0.00571
96.85 -0.00375
96.9 -0.00407
96.95 -0.0022
97 -0.00072
97.05 -0.00141
97.1 -0.00382
97.15 -0.00463
97.2 -0.0057
97.25 -0.00716
97.3 -0.00422
97.35 -0.00186
97.4 0.00199
97.45 0.00763
97.5 0.01413
97.55 0.01773
97.6 0.01925
97.65 0.02084
97.7 0.02071
97.75 0.01571
97.8 0.0094
97.85 0.00719
97.9 0.00474
97.95 0.00092
98 -0.00348
98.05 -0.00544
98.1 -0.0085
98.15 -0.00788
98.2 -0.00641
98.25 -0.00344
98.3 -0.0005
98.35 0.00389
98.4 0.00949
98.45 0.00961
98.5 0.00757
98.55 0.00379
98.6 -0.00087
98.65 -0.00141
98.7 -0.00128
98.75 -0.00322
98.8 -0.00151
98.85 -0.00293
98.9 -0.0036
98.95 -0.00475
99 -0.00545
99.05 -0.0067
99.1 -0.00722
99.15 -0.00815
99.2 -0.01106
99.25 -0.01348
99.3 -0.01471
99.35 -0.01235
99.4 -0.00763
99.45 -0.00686
99.5 -0.00657
99.55 -0.00247
99.6 0.00221
99.65 0.00857
99.7 0.01319
99.75 0.01174
99.8 0.00884
99.85 0.00611
99.9 0.00219
99.95 0.00012
