0 0
0.05 0.00572
0.1 0.01779
0.15 0.02457
0.2 0.03263
0.25 0.04102
0.3 0.04858
0.35 0.04968
0.4 0.05358
0.45 0.05341
0.5 0.0498
0.55 0.04616
0.6 0.04545
0.65 0.04843
0.7 0.05395
0.75 0.06076
0.8 0.06392
0.85 0.06469
0.9 0.06042
0.95 0.05485
1 0.0505
1.05 0.04773
1.1 0.04689
1.15 0.04981
1.2 0.05488
1.25 0.05507
1.3 0.05722
1.35 0.05847
1.4 0.05694
1.45 0.05454
1.5 0.04819
1.55 0.04709
1.6 0.04711
1.65 0.04261
1.7 0.04136
1.75 0.04345
1.8 0.04267
1.85 0.04084
1.9 0.03882
1.95 0.04006
2 0.04202
2.05 0.04094
2.1 0.03471
2.15 0.02736
2.2 0.01801
2.25 0.0158
2.3 0.01722
2.35 0.01549
2.4 0.01065
2.45 0.00481
2.5 0.00367
2.55 0.00092
2.6 -0.00237
2.65 -0.00397
2.7 -0.0057
2.75 -0.00345
2.8 0.0001
2.85 0.00407
2.9 0.00803
2.95 0.0114
3 0.01439
3.05 0.01888
3.1 0.01906
3.15 0.0171
3.2 0.01731
3.25 0.01701
3.3 0.01469
3.35 0.01234
3.4 0.01401
3.45 0.01907
3.5 0.02127
3.55 0.02259
3.6 0.02046
3.65 0.02298
3.7 0.02188
3.75 0.0188
3.8 0.0132
3.85 0.01395
3.9 0.01937
3.95 0.02496
4 0.02571
4.05 0.02717
4.1 0.02552
4.15 0.02607
4.2 0.02634
4.25 0.02632
4.3 0.02241
4.35 0.01417
4.4 0.00357
4.45 -0.00672
4.5 -0.01328
4.55 -0.02606
4.6 -0.03504
4.65 -0.04796
4.7 -0.06807
4.75 -0.08993
4.8 -0.11361
4.85 -0.13633
4.9 -0.16051
4.95 -0.18924
5 -0.22395
5.05 -0.26604
5.1 -0.31475
5.15 -0.37322
5.2 -0.43989
5.25 -0.51361
5.3 -0.58989
5.35 -0.66886
5.4 -0.74912
5.45 -0.83792
5.5 -0.93267
5.55 -1.03426
5.6 -1.13123
5.65 -1.233
5.7 -1.33104
5.75 -1.42655
5.8 -1.52187
5.85 -1.61325
5.9 -1.70113
5.95 -1.79196
6 -1.87879
6.05 -1.95802
6.1 -2.03773
6.15 -2.11637
6.2 -2.19024
6.25 -2.25221
6.3 -2.30448
6.35 -2.35724
6.4 -2.40217
6.45 -2.43886
6.5 -2.46848
6.55 -2.49217
6.6 -2.50604
6.65 -2.51081
6.7 -2.50326
6.75 -2.48086
6.8 -2.44376
6.85 -2.39584
6.9 -2.32623
6.95 -2.24068
7 -2.13629
7.05 -2.01536
7.1 -1.88414
7.15 -1.73452
7.2 -1.57451
7.25 -1.3975
7.3 -1.2076
7.35 -1.01349
7.4 -0.8101
7.45 -0.60169
7.5 -0.39581
7.55 -0.19166
7.6 0.00734
7.65 0.20293
7.7 0.39454
7.75 0.58182
7.8 0.76016
7.85 0.93025
7.9 1.08648
7.95 1.23584
8 1.37087
8.05 1.49363
8.1 1.60991
8.15 1.71135
8.2 1.80656
8.25 1.88924
8.3 1.96001
8.35 2.01881
8.4 2.06968
8.45 2.11289
8.5 2.14825
8.55 2.17711
8.6 2.19539
8.65 2.21147
8.7 2.22378
8.75 2.22814
8.8 2.22781
8.85 2.22126
8.9 2.21675
8.95 2.20946
9 2.19972
9.05 2.18633
9.1 2.16891
9.15 2.14763
9.2 2.13029
9.25 2.10618
9.3 2.08593
9.35 2.0604
9.4 2.03116
9.45 2.00445
9.5 1.9747
9.55 1.94601
9.6 1.92073
9.65 1.89744
9.7 1.87165
9.75 1.84337
9.8 1.81129
9.85 1.7766
9.9 1.73926
9.95 1.70387
10 1.66763
10.05 1.6321
10.1 1.59777
10.15 1.55898
10.2 1.51719
10.25 1.48035
10.3 1.44436
10.35 1.40465
10.4 1.36107
10.45 1.31935
10.5 1.27484
10.55 1.23288
10.6 1.18689
10.65 1.13806
10.7 1.09016
10.75 1.04002
10.8 0.9919
10.85 0.94365
10.9 0.90037
10.95 0.8536
11 0.80876
11.05 0.76871
11.1 0.72707
11.15 0.68895
11.2 0.6465
11.25 0.60131
11.3 0.55461
11.35 0.50553
11.4 0.4562
11.45 0.4096
11.5 0.36874
11.55 0.33381
11.6 0.29707
11.65 0.26334
11.7 0.2286
11.75 0.19599
11.8 0.16348
11.85 0.13653
11.9 0.10891
11.95 0.08422
12 0.05725
12.05 0.03224
12.1 0.00645
12.15 -0.01644
12.2 -0.03703
12.25 -0.05834
12.3 -0.07806
12.35 -0.09867
12.4 -0.1172
12.45 -0.14255
12.5 -0.17049
12.55 -0.19428
12.6 -0.21218
12.65 -0.22998
12.7 -0.24783
12.75 -0.26335
12.8 -0.27314
12.85 -0.28501
12.9 -0.29391
12.95 -0.29997
13 -0.30748
13.05 -0.31674
13.1 -0.32719
13.15 -0.3391
13.2 -0.34761
13.25 -0.35148
13.3 -0.35168
13.35 -0.35304
13.4 -0.35713
13.45 -0.36173
13.5 -0.36163
13.55 -0.35981
13.6 -0.36379
13.65 -0.36553
13.7 -0.36878
13.75 -0.37169
13.8 -0.37553
13.85 -0.37723
13.9 -0.37929
13.95 -0.38339
14 -0.38033
14.05 -0.38011
14.1 -0.37862
14.15 -0.37596
14.2 -0.37528
14.25 -0.37231
14.3 -0.37281
14.35 -0.37135
14.4 -0.36694
14.45 -0.36609
14.5 -0.35817
14.55 -0.35345
14.6 -0.34673
14.65 -0.3434
14.7 -0.33445
14.75 -0.32289
14.8 -0.31186
14.85 -0.30127
14.9 -0.29749
14.95 -0.29933
15 -0.2976
15.05 -0.29959
15.1 -0.29869
15.15 -0.29325
15.2 -0.28598
15.25 -0.27931
15.3 -0.27343
15.35 -0.27079
15.4 -0.26415
15.45 -0.25756
15.5 -0.25269
15.55 -0.24563
15.6 -0.24111
15.65 -0.23568
15.7 -0.23119
15.75 -0.23281
15.8 -0.23213
15.85 -0.23042
15.9 -0.22825
15.95 -0.2286
16 -0.22391
16.05 -0.2186
16.1 -0.21769
16.15 -0.21796
16.2 -0.22125
16.25 -0.22578
16.3 -0.22503
16.35 -0.22205
16.4 -0.22049
16.45 -0.2152
16.5 -0.21241
16.55 -0.20835
16.6 -0.20248
16.65 -0.20094
16.7 -0.19705
16.75 -0.19093
16.8 -0.18456
16.85 -0.18199
16.9 -0.17729
16.95 -0.17191
17 -0.16583
17.05 -0.16188
17.1 -0.15887
17.15 -0.15214
17.2 -0.1498
17.25 -0.14698
17.3 -0.14558
17.35 -0.14761
17.4 -0.1514
17.45 -0.15034
17.5 -0.14662
17.55 -0.1463
17.6 -0.14566
17.65 -0.14552
17.7 -0.13944
17.75 -0.13641
17.8 -0.13161
17.85 -0.12967
17.9 -0.12504
17.95 -0.11966
18 -0.1127
18.05 -0.11202
18.1 -0.10806
18.15 -0.10457
18.2 -0.10514
18.25 -0.10656
18.3 -0.10545
18.35 -0.10447
18.4 -0.10283
18.45 -0.10151
18.5 -0.10085
18.55 -0.10078
18.6 -0.09616
18.65 -0.09178
18.7 -0.08701
18.75 -0.08196
18.8 -0.08296
18.85 -0.08397
18.9 -0.08439
18.95 -0.08702
19 -0.0862
19.05 -0.0821
19.1 -0.08306
19.15 -0.08164
19.2 -0.07784
19.25 -0.07211
19.3 -0.06772
19.35 -0.06333
19.4 -0.05956
19.45 -0.05998
19.5 -0.05726
19.55 -0.05982
19.6 -0.06663
19.65 -0.07209
19.7 -0.07448
19.75 -0.0792
19.8 -0.08074
19.85 -0.07841
19.9 -0.07427
19.95 -0.06717
20 -0.06515
20.05 -0.06747
20.1 -0.07249
20.15 -0.0769
20.2 -0.07779
20.25 -0.07831
20.3 -0.08129
20.35 -0.08508
20.4 -0.08917
20.45 -0.0892
20.5 -0.08184
20.55 -0.0791
20.6 -0.07176
20.65 -0.06115
20.7 -0.05207
20.75 -0.04761
20.8 -0.04452
20.85 -0.03853
20.9 -0.03386
20.95 -0.03187
21 -0.02761
21.05 -0.02807
21.1 -0.03182
21.15 -0.03137
21.2 -0.03553
21.25 -0.04142
21.3 -0.04975
21.35 -0.05274
21.4 -0.05169
21.45 -0.05441
21.5 -0.05376
21.55 -0.05148
21.6 -0.04532
21.65 -0.04417
21.7 -0.04686
21.75 -0.04382
21.8 -0.04233
21.85 -0.04339
21.9 -0.04682
21.95 -0.04735
22 -0.0506
22.05 -0.05062
22.1 -0.051
22.15 -0.04658
22.2 -0.04467
22.25 -0.0422
22.3 -0.04261
22.35 -0.03848
22.4 -0.03174
22.45 -0.02493
22.5 -0.02047
22.55 -0.01649
22.6 -0.01792
22.65 -0.02352
22.7 -0.02577
22.75 -0.02865
22.8 -0.0266
22.85 -0.02073
22.9 -0.02062
22.95 -0.02196
23 -0.02011
23.05 -0.01652
23.1 -0.01164
23.15 -0.00806
23.2 -0.01049
23.25 -0.01706
23.3 -0.01823
23.35 -0.01811
23.4 -0.01736
23.45 -0.01532
23.5 -0.01167
23.55 -0.00645
23.6 -0.0043
23.65 -0.00498
23.7 -0.00609
23.75 -0.0053
23.8 -0.0044
23.85 -0.0063
23.9 -0.01188
23.95 -0.01732
24 -0.02051
24.05 -0.02582
24.1 -0.02576
24.15 -0.02324
24.2 -0.02563
24.25 -0.02299
24.3 -0.01956
24.35 -0.02015
24.4 -0.01909
24.45 -0.0216
24.5 -0.01974
24.55 -0.02081
24.6 -0.02509
24.65 -0.02728
24.7 -0.02407
24.75 -0.02359
24.8 -0.02059
24.85 -0.01898
24.9 -0.01749
24.95 -0.01632
25 -0.01894
25.05 -0.02318
25.1 -0.02627
25.15 -0.03084
25.2 -0.03024
25.25 -0.02471
25.3 -0.02165
25.35 -0.0232
25.4 -0.02359
25.45 -0.0198
25.5 -0.01828
25.55 -0.01759
25.6 -0.01366
25.65 -0.01275
25.7 -0.01226
25.75 -0.01398
25.8 -0.01872
25.85 -0.02262
25.9 -0.02505
25.95 -0.02662
26 -0.02741
26.05 -0.0278
26.1 -0.02793
26.15 -0.03085
26.2 -0.03384
26.25 -0.03673
26.3 -0.03276
26.35 -0.03165
26.4 -0.03132
26.45 -0.02579
26.5 -0.02026
26.55 -0.01935
26.6 -0.02103
26.65 -0.02186
26.7 -0.02462
26.75 -0.02016
26.8 -0.01422
26.85 -0.00715
26.9 0.00045
26.95 0.00962
27 0.01389
27.05 0.01684
27.1 0.01692
27.15 0.01201
27.2 0.00541
27.25 -0.00234
27.3 -0.00836
27.35 -0.01185
27.4 -0.00987
27.45 -0.01051
27.5 -0.00781
27.55 -0.01008
27.6 -0.01462
27.65 -0.01341
27.7 -0.01483
27.75 -0.01677
27.8 -0.01486
27.85 -0.01418
27.9 -0.00988
27.95 -0.00615
28 -0.00168
28.05 -0.0001
28.1 -0.00269
28.15 -0.00656
28.2 -0.00399
28.25 -0.00585
28.3 -0.01015
28.35 -0.00792
28.4 -0.00928
28.45 -0.00551
28.5 -0.00453
28.55 -0.00638
28.6 -0.00941
28.65 -0.00658
28.7 -0.00233
28.75 -0.00298
28.8 -0.00457
28.85 -0.00454
28.9 -0.00681
28.95 -0.00737
29 -0.0056
29.05 -0.00734
29.1 -0.00366
29.15 -0.00456
29.2 -0.00375
29.25 -0.00507
29.3 -0.00803
29.35 -0.00734
29.4 -0.0098
29.45 -0.0139
29.5 -0.01404
29.55 -0.01126
29.6 -0.00768
29.65 -0.0097
29.7 -0.00922
29.75 -0.00991
29.8 -0.01012
29.85 -0.01234
29.9 -0.01274
29.95 -0.01615
30 -0.01407
30.05 -0.00934
30.1 -0.00927
30.15 -0.01232
30.2 -0.01242
30.25 -0.0123
30.3 -0.00966
30.35 -0.01246
30.4 -0.0189
30.45 -0.0254
30.5 -0.02905
30.55 -0.03155
30.6 -0.03545
30.65 -0.03269
30.7 -0.0328
30.75 -0.03574
30.8 -0.03657
30.85 -0.03224
30.9 -0.02959
30.95 -0.0234
31 -0.01492
31.05 -0.00547
31.1 -0.00201
31.15 -0.0031
31.2 -0.00547
31.25 -0.00579
31.3 -0.00764
31.35 -0.00668
31.4 -0.00894
31.45 -0.00503
31.5 0.00161
31.55 0.00643
31.6 0.0081
31.65 0.00475
31.7 0.00517
31.75 0.00791
31.8 0.01017
31.85 0.01032
31.9 0.0137
31.95 0.02004
32 0.0234
32.05 0.02234
32.1 0.02321
32.15 0.02451
32.2 0.02203
32.25 0.01836
32.3 0.01521
32.35 0.01221
32.4 0.01339
32.45 0.01125
32.5 0.01056
32.55 0.01106
32.6 0.01202
32.65 0.01229
32.7 0.01288
32.75 0.014
32.8 0.01308
32.85 0.01603
32.9 0.02278
32.95 0.03031
33 0.03648
33.05 0.03555
33.1 0.03187
33.15 0.03007
33.2 0.02542
33.25 0.02595
33.3 0.02332
33.35 0.01737
33.4 0.01059
33.45 0.00509
33.5 -0.00217
33.55 -0.00806
33.6 -0.01322
33.65 -0.01302
33.7 -0.0147
33.75 -0.01029
33.8 -0.00638
33.85 -0.00502
33.9 -0.00037
33.95 -0.00147
34 -0.00621
34.05 -0.00491
34.1 0.00087
34.15 0.00129
34.2 -0.00152
34.25 0.0007
34.3 0.00404
34.35 0.00193
34.4 0.00163
34.45 -0.00118
34.5 -0.00312
34.55 0.00015
34.6 0.00141
34.65 0.00635
34.7 0.01302
34.75 0.01474
34.8 0.01732
34.85 0.01538
34.9 0.00837
34.95 0.00068
35 -0.00408
35.05 -0.00644
35.1 -0.00912
35.15 -0.00572
35.2 -0.00098
35.25 0.00649
35.3 0.01214
35.35 0.01549
35.4 0.02083
35.45 0.0228
35.5 0.02188
35.55 0.01702
35.6 0.01569
35.65 0.0179
35.7 0.01987
35.75 0.018
35.8 0.01161
35.85 0.00913
35.9 0.00326
35.95 0.00222
36 0.00435
36.05 0.00439
36.1 -0.00019
36.15 -0.00285
36.2 -0.00269
36.25 -0.00586
36.3 -0.00668
36.35 -0.00601
36.4 -0.00155
36.45 0.00533
36.5 0.00809
36.55 0.01324
36.6 0.01477
36.65 0.01032
36.7 0.00203
36.75 -0.00052
36.8 -0.00082
36.85 -0.00291
36.9 -0.00425
36.95 -0.00934
37 -0.01326
37.05 -0.01447
37.1 -0.01505
37.15 -0.01576
37.2 -0.01612
37.25 -0.01224
37.3 -0.01193
37.35 -0.00699
37.4 0.0002
37.45 0.00145
37.5 -0.00188
37.55 -0.0069
37.6 -0.01225
37.65 -0.0175
37.7 -0.01524
37.75 -0.00799
37.8 0.0002
37.85 0.00889
37.9 0.01144
37.95 0.00764
38 0.00649
38.05 0.00098
38.1 -0.00413
38.15 -0.00418
38.2 -0.0053
38.25 -0.00267
38.3 -0.00416
38.35 -0.00098
38.4 0.00546
38.45 0.01077
38.5 0.01652
38.55 0.01432
38.6 0.01033
38.65 0.00987
38.7 0.00542
38.75 0.0004
38.8 0.00117
38.85 -0.00291
38.9 -0.00787
38.95 -0.01467
39 -0.02044
39.05 -0.02665
39.1 -0.02605
39.15 -0.02753
39.2 -0.02343
39.25 -0.02316
39.3 -0.02173
39.35 -0.02106
39.4 -0.01824
39.45 -0.0147
39.5 -0.00862
39.55 -0.00413
39.6 -0.00081
39.65 0.00284
39.7 0.00496
39.75 0.00337
39.8 0.00421
39.85 0.0039
39.9 0.00791
39.95 0.01251
40 0.01864
40.05 0.01972
40.1 0.01768
40.15 0.01865
40.2 0.02164
40.25 0.02555
40.3 0.02794
40.35 0.02925
40.4 0.02511
40.45 0.02343
40.5 0.01635
40.55 0.00839
40.6 0.00163
40.65 -0.00664
40.7 -0.01056
40.75 -0.00932
40.8 -0.00378
40.85 -0.00299
40.9 0.00115
40.95 0.005
41 0.01061
41.05 0.00901
41.1 0.00652
41.15 0.00517
41.2 0.00448
41.25 0.00588
41.3 0.00683
41.35 0.00343
41.4 -0.00068
41.45 -0.00029
41.5 -0.0021
41.55 -0.00719
41.6 -0.00977
41.65 -0.00867
41.7 -0.00411
41.75 0.00318
41.8 0.00906
41.85 0.01283
41.9 0.01027
41.95 0.00422
42 -0.00437
42.05 -0.00747
42.1 -0.01137
42.15 -0.00986
42.2 -0.01144
42.25 -0.00935
42.3 -0.01112
42.35 -0.01241
42.4 -0.01366
42.45 -0.01524
42.5 -0.01643
42.55 -0.01149
42.6 -0.009
42.65 -0.00878
42.7 -0.00944
42.75 -0.01347
42.8 -0.013
42.85 -0.00824
42.9 -0.00646
42.95 -0.0076
43 -0.00426
43.05 -0.00572
43.1 -0.00325
43.15 -0.00205
43.2 0.00309
43.25 0.00721
43.3 0.00871
43.35 0.00752
43.4 0.00882
43.45 0.01035
43.5 0.0149
43.55 0.01906
43.6 0.01708
43.65 0.01462
43.7 0.00737
43.75 -0.00092
43.8 -0.00452
43.85 -0.00549
43.9 -0.00285
43.95 0.00215
44 0.00298
44.05 0.00045
44.1 -0.00459
44.15 -0.00367
44.2 -0.00608
44.25 -0.00394
44.3 -0.00207
44.35 0.00016
44.4 0.00174
44.45 0.0019
44.5 -0.00112
44.55 -0.00173
44.6 -0.00285
44.65 -0.00562
44.7 -0.00464
44.75 -0.00363
44.8 -0.00178
44.85 0.00079
44.9 0.00553
44.95 0.01248
45 0.01908
45.05 0.02184
45.1 0.02355
45.15 0.02243
45.2 0.02076
45.25 0.01856
45.3 0.01156
45.35 0.00855
45.4 0.00103
45.45 -0.00733
45.5 -0.01093
45.55 -0.01671
45.6 -0.02374
45.65 -0.02206
45.7 -0.01668
45.75 -0.01026
45.8 -0.00892
45.85 -0.00446
45.9 0.00046
45.95 0.00749
46 0.01075
46.05 0.01477
46.1 0.01128
46.15 0.0123
46.2 0.01222
46.25 0.01473
46.3 0.01791
46.35 0.01722
46.4 0.01165
46.45 0.01051
46.5 0.01297
46.55 0.01645
46.6 0.01498
46.65 0.01285
46.7 0.01021
46.75 0.01073
46.8 0.01391
46.85 0.01239
46.9 0.00846
46.95 0.00303
47 -0.00072
47.05 -0.00304
47.1 -0.00577
47.15 -0.00564
47.2 -0.00444
47.25 -0.00657
47.3 -0.01037
47.35 -0.00824
47.4 -0.00753
47.45 -0.00831
47.5 -0.01315
47.55 -0.01817
47.6 -0.01862
47.65 -0.01861
47.7 -0.02108
47.75 -0.02067
47.8 -0.01876
47.85 -0.0169
47.9 -0.0158
47.95 -0.01687
48 -0.01376
48.05 -0.00727
48.1 -0.00125
48.15 0.00262
48.2 0.00693
48.25 0.00576
48.3 0.00886
48.35 0.01143
48.4 0.00748
48.45 0.00702
48.5 0.00182
48.55 0.00116
48.6 0.00463
48.65 0.00965
48.7 0.01162
48.75 0.01155
48.8 0.01428
48.85 0.01532
48.9 0.01195
48.95 0.01132
49 0.01058
49.05 0.00971
49.1 0.00438
49.15 -0.00285
49.2 -0.00827
49.25 -0.00792
49.3 -0.00963
49.35 -0.00956
49.4 -0.00775
49.45 -0.00275
49.5 0.00201
49.55 0.00751
49.6 0.00542
49.65 0.00513
49.7 0.00694
49.75 0.00989
49.8 0.01441
49.85 0.01644
49.9 0.0183
49.95 0.01708
50 0.01795
50.05 0.01252
50.1 0.00533
50.15 -0.00088
50.2 -0.00822
50.25 -0.01308
50.3 -0.01948
50.35 -0.02109
50.4 -0.0183
50.45 -0.01329
50.5 -0.01271
50.55 -0.01308
50.6 -0.01495
50.65 -0.01979
50.7 -0.02037
50.75 -0.02004
50.8 -0.01766
50.85 -0.01087
50.9 -0.00456
50.95 -0.00293
51 -0.00606
51.05 -0.01209
51.1 -0.01238
51.15 -0.01455
51.2 -0.01629
51.25 -0.01675
51.3 -0.01471
51.35 -0.00872
51.4 -0.00379
51.45 0.00042
51.5 0.00288
51.55 0.00452
51.6 0.00889
51.65 0.00612
51.7 0.00209
51.75 -0.00522
51.8 -0.007
51.85 -0.00724
51.9 -0.00922
51.95 -0.00926
52 -0.00951
52.05 -0.0121
52.1 -0.01079
52.15 -0.01221
52.2 -0.01331
52.25 -0.01071
52.3 -0.00734
52.35 -0.00893
52.4 -0.00984
52.45 -0.01297
52.5 -0.01781
52.55 -0.02238
52.6 -0.02208
52.65 -0.01909
52.7 -0.01763
52.75 -0.01504
52.8 -0.0118
52.85 -0.00486
52.9 -0.00239
52.95 -0.00013
53 0.00354
53.05 0.00707
53.1 0.00531
53.15 0.00068
53.2 -0.00401
53.25 -0.01096
53.3 -0.0109
53.35 -0.01044
53.4 -0.00904
53.45 -0.00991
53.5 -0.00841
53.55 -0.00304
53.6 -0.0008
53.65 0.00242
53.7 0.00334
53.75 0.00189
53.8 0.00046
53.85 -0.00159
53.9 -0.00346
53.95 -0.00672
54 -0.00619
54.05 -0.00094
54.1 0.00246
54.15 0.00185
54.2 -0.00091
54.25 0.00005
54.3 0.00004
54.35 0.0035
54.4 0.00813
54.45 0.01055
54.5 0.01115
54.55 0.01133
54.6 0.00874
54.65 0.00333
54.7 -0.00263
54.75 -0.00339
54.8 -0.00209
54.85 0.00159
54.9 0.0071
54.95 0.01171
55 0.01051
55.05 0.00862
55.1 0.00221
55.15 -0.00072
55.2 -0.00527
55.25 -0.0047
55.3 -0.00266
55.35 -0.00313
55.4 -0.0036
55.45 -0.00071
55.5 0.0044
55.55 0.00692
55.6 0.01128
55.65 0.01033
55.7 0.01072
55.75 0.00738
55.8 0.00094
55.85 0.00124
55.9 0.00269
55.95 -0.00051
56 -0.00256
56.05 -0.00436
56.1 -0.00101
56.15 0.00238
56.2 0.00652
56.25 0.00526
56.3 0.00785
56.35 0.01282
56.4 0.01889
56.45 0.01777
56.5 0.01975
56.55 0.01975
56.6 0.0188
56.65 0.0181
56.7 0.01693
56.75 0.01687
56.8 0.01138
56.85 0.00944
56.9 0.00938
56.95 0.00952
57 0.00686
57.05 0.00524
57.1 0.00299
57.15 0.00297
57.2 0.00403
57.25 0.005
57.3 0.0043
57.35 0.00188
57.4 0.00038
57.45 0.00329
57.5 0.00162
57.55 0.00358
57.6 0.00008
57.65 -0.00626
57.7 -0.01185
57.75 -0.01724
57.8 -0.02311
57.85 -0.02971
57.9 -0.03097
57.95 -0.02521
58 -0.01802
58.05 -0.01266
58.1 -0.01065
58.15 -0.00886
58.2 -0.01063
58.25 -0.01354
58.3 -0.01767
58.35 -0.01637
58.4 -0.00981
58.45 -0.0056
58.5 -0.00088
58.55 0.00134
58.6 0.0033
58.65 0.00256
58.7 -0.00175
58.75 -0.00875
58.8 -0.01698
58.85 -0.01878
58.9 -0.01789
58.95 -0.01526
59 -0.01677
59.05 -0.01212
59.1 -0.00408
59.15 -0.00196
59.2 0.00397
59.25 0.01047
59.3 0.01728
59.35 0.02441
59.4 0.02546
59.45 0.02553
59.5 0.02116
59.55 0.01426
59.6 0.00699
59.65 0.00593
59.7 0.00918
59.75 0.01032
59.8 0.00579
59.85 0.00104
59.9 -0.00257
59.95 -0.00173
60 -0.00154
60.05 -0.00151
60.1 -0.00346
60.15 -0.00805
60.2 -0.01334
60.25 -0.01763
60.3 -0.01525
60.35 -0.01459
60.4 -0.00974
60.45 -0.0015
60.5 0.00375
60.55 0.00312
60.6 -0.00103
60.65 -0.00581
60.7 -0.00731
60.75 -0.00733
60.8 -0.00982
60.85 -0.00822
60.9 -0.00732
60.95 -0.00156
61 0.00447
61.05 0.01104
61.1 0.01046
61.15 0.01092
61.2 0.01453
61.25 0.01684
61.3 0.01938
61.35 0.02085
61.4 0.01964
61.45 0.0162
61.5 0.01054
61.55 0.00938
61.6 0.00992
61.65 0.00721
61.7 0.00706
61.75 0.00908
61.8 0.01131
61.85 0.01179
61.9 0.00768
61.95 0.00155
62 -0.00183
62.05 -0.00765
62.1 -0.01447
62.15 -0.016
62.2 -0.01817
62.25 -0.02244
62.3 -0.02606
62.35 -0.02713
62.4 -0.02404
62.45 -0.02457
62.5 -0.02595
62.55 -0.02108
62.6 -0.01406
62.65 -0.00696
62.7 0.00251
62.75 0.00576
62.8 0.00463
62.85 0.00019
62.9 0.00149
62.95 0.00305
63 0.00312
63.05 -0.00095
63.1 -0.00556
63.15 -0.01134
63.2 -0.01064
63.25 -0.01026
63.3 -0.01138
63.35 -0.0109
63.4 -0.00759
63.45 -0.00023
63.5 0.00769
63.55 0.01455
63.6 0.01885
63.65 0.02228
63.7 0.02387
63.75 0.0232
63.8 0.01749
63.85 0.01045
63.9 0.00607
63.95 0.00575
64 0.00432
64.05 0.00011
64.1 -0.00513
64.15 -0.00778
64.2 -0.00507
64.25 -0.00298
64.3 -0.0009
64.35 0.0038
64.4 0.00533
64.45 0.00116
64.5 -0.00489
64.55 -0.01095
64.6 -0.0171
64.65 -0.02222
64.7 -0.02601
64.75 -0.02288
64.8 -0.02179
64.85 -0.01668
64.9 -0.00828
64.95 0.00082
65 0.00552
65.05 0.01272
65.1 0.01272
65.15 0.01193
65.2 0.0064
65.25 -0.00006
65.3 -0.00062
65.35 0.00238
65.4 0.00801
65.45 0.00743
65.5 0.00618
65.55 0.00899
65.6 0.00913
65.65 0.01241
65.7 0.00923
65.75 0.00591
65.8 0.00118
65.85 -0.00597
65.9 -0.01007
65.95 -0.0092
66 -0.00368
66.05 -0.00269
66.1 -0.00396
66.15 -0.00015
66.2 0.00407
66.25 0.00736
66.3 0.01111
66.35 0.01039
66.4 0.00573
66.45 -0.00203
66.5 -0.00282
66.55 -0.00049
66.6 0.00012
66.65 0.00457
66.7 0.00412
66.75 0.00434
66.8 0.00733
66.85 0.01146
66.9 0.01566
66.95 0.01733
67 0.01455
67.05 0.00952
67.1 0.00466
67.15 0.00204
67.2 0.00424
67.25 0.00909
67.3 0.0089
67.35 0.00555
67.4 0.005
67.45 0.00586
67.5 0.00878
67.55 0.0121
67.6 0.00981
67.65 0.01032
67.7 0.00964
67.75 0.01241
67.8 0.01471
67.85 0.01149
67.9 0.01139
67.95 0.01281
68 0.00915
68.05 0.00118
68.1 -0.00759
68.15 -0.01708
68.2 -0.02542
68.25 -0.03086
68.3 -0.03271
68.35 -0.03036
68.4 -0.0308
68.45 -0.02435
68.5 -0.02143
68.55 -0.02108
68.6 -0.01619
68.65 -0.00741
68.7 -0.00181
68.75 -0.00088
68.8 -0.00094
68.85 -0.00466
68.9 -0.00457
68.95 -0.00462
69 -0.00034
69.05 0.0069
69.1 0.01355
69.15 0.01963
69.2 0.0261
69.25 0.02443
69.3 0.02383
69.35 0.02303
69.4 0.02082
69.45 0.01581
69.5 0.00746
69.55 0.0019
69.6 0.00228
69.65 0.00234
69.7 0.00273
69.75 -0.00018
69.8 0.00171
69.85 0.00442
69.9 0.00667
69.95 0.01175
70 0.0118
70.05 0.00588
70.1 0.00317
70.15 -0.00342
70.2 -0.01229
70.25 -0.0146
70.3 -0.01484
70.35 -0.01159
70.4 -0.01326
70.45 -0.0091
70.5 -0.00223
70.55 0.00136
70.6 -0.00005
70.65 -0.00023
70.7 0.00134
70.75 -0.00086
70.8 -0.00497
70.85 -0.00547
70.9 -0.00723
70.95 -0.00571
71 -0.00352
71.05 -0.00039
71.1 0.00526
71.15 0.00426
71.2 -0.00147
71.25 -0.00522
71.3 -0.00765
71.35 -0.00874
71.4 -0.0055
71.45 -0.00213
71.5 0.00192
71.55 0.00405
71.6 0.00716
71.65 0.01236
71.7 0.01109
71.75 0.01197
71.8 0.01419
71.85 0.00957
71.9 0.00635
71.95 0.0015
72 0.00166
72.05 0.00031
72.1 -0.00246
72.15 -0.00263
72.2 -0.00134
72.25 -0.00213
72.3 -0.0051
72.35 -0.00794
72.4 -0.01328
72.45 -0.02005
72.5 -0.02241
72.55 -0.01821
72.6 -0.01085
72.65 -0.00188
72.7 0.00821
72.75 0.01129
72.8 0.00965
72.85 0.00468
72.9 -0.00029
72.95 -0.00275
73 -0.00372
73.05 -0.00133
73.1 -0.00021
73.15 -0.00407
73.2 -0.00188
73.25 0.00073
73.3 0.0056
73.35 0.00376
73.4 -0.00104
73.45 -0.007
73.5 -0.00975
73.55 -0.01217
73.6 -0.01283
73.65 -0.0129
73.7 -0.01228
73.75 -0.01224
73.8 -0.01385
73.85 -0.01355
73.9 -0.00885
73.95 -0.00369
74 0.00111
74.05 0.00122
74.1 -0.00135
74.15 -0.00209
74.2 -0.0003
74.25 0.00358
74.3 0.00216
74.35 0.00142
74.4 -0.00357
74.45 -0.00393
74.5 -0.00243
74.55 0.0013
74.6 0.0019
74.65 0.00197
74.7 0.00376
74.75 0.00593
74.8 0.0056
74.85 0.0015
74.9 -0.00016
74.95 -0.00395
75 -0.00852
75.05 -0.00727
75.1 -0.00208
75.15 -0.00322
75.2 -0.00619
75.25 -0.00653
75.3 -0.00365
75.35 -0.00605
75.4 -0.004
75.45 -0.00226
75.5 -0.00032
75.55 0.00299
75.6 0.00879
75.65 0.01496
75.7 0.0204
75.75 0.01862
75.8 0.01226
75.85 0.01059
75.9 0.00673
75.95 0.00419
76 0.00197
76.05 -0.00264
76.1 -0.0083
76.15 -0.01261
76.2 -0.01365
76.25 -0.01403
76.3 -0.01235
76.35 -0.00672
76.4 -0.00152
76.45 -0.00011
76.5 0.00031
76.55 0.00405
76.6 0.00361
76.65 0.00379
76.7 0.00068
76.75 0.0013
76.8 -0.00084
76.85 -0.00447
76.9 -0.0111
76.95 -0.01376
77 -0.0123
77.05 -0.00958
77.1 -0.00423
77.15 -0.00007
77.2 -0.00192
77.25 -0.00302
77.3 -0.00772
77.35 -0.00659
77.4 -0.00309
77.45 0.00234
77.5 0.0094
77.55 0.01471
77.6 0.02015
77.65 0.01812
77.7 0.01294
77.75 0.00593
77.8 0.00049
77.85 -0.00403
77.9 -0.00956
77.95 -0.01475
78 -0.01664
78.05 -0.01551
78.1 -0.01777
78.15 -0.02087
78.2 -0.02266
78.25 -0.02493
78.3 -0.01972
78.35 -0.018
78.4 -0.01453
78.45 -0.01365
78.5 -0.00972
78.55 -0.00516
78.6 -0.00039
78.65 -0.00176
78.7 -0.00008
78.75 0.00208
78.8 0.00299
78.85 0.00743
78.9 0.01328
78.95 0.01247
79 0.01334
79.05 0.01253
79.1 0.00894
79.15 0.00161
79.2 -0.00483
79.25 -0.01058
79.3 -0.01145
79.35 -0.00844
79.4 -0.00391
79.45 0.00389
79.5 0.0072
79.55 0.01322
79.6 0.01172
79.65 0.00878
79.7 0.00292
79.75 -0.00228
79.8 -0.00244
79.85 -0.00461
79.9 -0.00974
79.95 -0.00774
80 -0.0056
80.05 -0.00107
80.1 -0.00072
80.15 0.00337
80.2 0.00454
80.25 0.00361
80.3 0.00452
80.35 0.00228
80.4 0.00465
80.45 0.0015
80.5 0.00014
80.55 -0.00114
80.6 -0.00189
80.65 0.00188
80.7 0.00349
80.75 0.00656
80.8 0.01154
80.85 0.00979
80.9 0.0072
80.95 0.00061
81 -0.00078
81.05 -0.00219
81.1 -0.00012
81.15 -0.00165
81.2 -0.00177
81.25 -0.00576
81.3 -0.00922
81.35 -0.00626
81.4 -0.00284
81.45 -0.00465
81.5 -0.00327
81.55 -0.00199
81.6 -0.00404
81.65 -0.00138
81.7 -0.00022
81.75 -0.00336
81.8 -0.00523
81.85 -0.00952
81.9 -0.00815
81.95 -0.00809
82 -0.01012
82.05 -0.00835
82.1 -0.01046
82.15 -0.01251
82.2 -0.01154
82.25 -0.01403
82.3 -0.01718
82.35 -0.01795
82.4 -0.0145
82.45 -0.0125
82.5 -0.01389
82.55 -0.01766
82.6 -0.01903
82.65 -0.01415
82.7 -0.00993
82.75 -0.01014
82.8 -0.0087
82.85 -0.0035
82.9 -0.00339
82.95 0.00055
83 0.00744
83.05 0.01023
83.1 0.01245
83.15 0.01248
83.2 0.01049
83.25 0.00849
83.3 0.00572
83.35 0.00569
83.4 0.00388
83.45 0.00269
83.5 -0.00018
83.55 -0.00396
83.6 -0.00795
83.65 -0.01218
83.7 -0.01275
83.75 -0.0087
83.8 -0.00589
83.85 0.0006
83.9 0.00383
83.95 0.01005
84 0.01474
84.05 0.01505
84.1 0.01807
84.15 0.0183
84.2 0.02139
84.25 0.02606
84.3 0.02284
84.35 0.01818
84.4 0.01038
84.45 0.0053
84.5 0.00526
84.55 0.00622
84.6 0.00449
84.65 0.00662
84.7 0.00655
84.75 0.0029
84.8 0.00247
84.85 -0.00014
84.9 -0.00014
84.95 0.00029
85 -0.00065
85.05 -0.00062
85.1 -0.00467
85.15 -0.00229
85.2 0.00198
85.25 0.00434
85.3 0.006
85.35 0.00986
85.4 0.01024
85.45 0.01353
85.5 0.01352
85.55 0.00966
85.6 0.00795
85.65 0.00258
85.7 -0.00519
85.75 -0.00986
85.8 -0.01202
85.85 -0.0151
85.9 -0.01186
85.95 -0.00918
86 -0.00801
86.05 -0.00389
86.1 0.00204
86.15 0.00575
86.2 0.00864
86.25 0.01136
86.3 0.00865
86.35 0.00646
86.4 0.00032
86.45 -0.00293
86.5 -0.00671
86.55 -0.0132
86.6 -0.01529
86.65 -0.01557
86.7 -0.01137
86.75 -0.00758
86.8 -0.0026
86.85 -0.0037
86.9 -0.00236
86.95 -0.00296
87 0.00137
87.05 0.00653
87.1 0.01372
87.15 0.01798
87.2 0.01668
87.25 0.01098
87.3 0.0101
87.35 0.0129
87.4 0.01752
87.45 0.01703
87.5 0.01212
87.55 0.01168
87.6 0.00925
87.65 0.00398
87.7 -0.00143
87.75 -0.00917
87.8 -0.01134
87.85 -0.00757
87.9 -0.00481
87.95 -0.00231
88 0.00304
88.05 0.00674
88.1 0.01012
88.15 0.01523
88.2 0.01587
88.25 0.01173
88.3 0.00768
88.35 0.00467
88.4 0.00006
88.45 -0.00008
88.5 -0.00185
88.55 -0.00059
88.6 0.00331
88.65 0.0094
88.7 0.00957
88.75 0.00697
88.8 0.00228
88.85 0.00241
88.9 0.00455
88.95 0.00746
89 0.00673
89.05 0.00203
89.1 0.00256
89.15 -0.00056
89.2 -0.00711
89.25 -0.01402
89.3 -0.0208
89.35 -0.0242
89.4 -0.02827
89.45 -0.03179
89.5 -0.03116
89.55 -0.0275
89.6 -0.02332
89.65 -0.01702
89.7 -0.0155
89.75 -0.01221
89.8 -0.01003
89.85 -0.0111
89.9 -0.01494
89.95 -0.01733
90 -0.02104
90.05 -0.02014
90.1 -0.02047
90.15 -0.02172
90.2 -0.02485
90.25 -0.02596
90.3 -0.0211
90.35 -0.01866
90.4 -0.01322
90.45 -0.01196
90.5 -0.00593
90.55 -0.00275
90.6 0.00045
90.65 0.00105
90.7 -0.00282
90.75 -0.00025
90.8 0.00244
90.85 0.00591
90.9 0.00865
90.95 0.00526
91 0.00515
91.05 0.00138
91.1 -0.00005
91.15 0.00068
91.2 0.00284
91.25 0.00211
91.3 -0.0026
91.35 -0.00945
91.4 -0.0174
91.45 -0.0204
91.5 -0.02414
91.55 -0.0284
91.6 -0.02706
91.65 -0.02375
91.7 -0.02281
91.75 -0.02356
91.8 -0.0211
91.85 -0.02028
91.9 -0.01494
91.95 -0.0084
92 -0.00451
92.05 -0.00541
92.1 -0.00342
92.15 0.00183
92.2 0.00367
92.25 0.00848
92.3 0.01362
92.35 0.01239
92.4 0.01409
92.45 0.01359
92.5 0.00823
92.55 0.00714
92.6 0.00548
92.65 0.00591
92.7 0.0047
92.75 -0.00037
92.8 -0.00305
92.85 -0.00374
92.9 -0.00607
92.95 -0.00797
93 -0.00707
93.05 -0.00587
93.1 0.00001
93.15 0.007
93.2 0.01453
93.25 0.01622
93.3 0.01339
93.35 0.01397
93.4 0.01141
93.45 0.00525
93.5 0.00488
93.55 0.0072
93.6 0.00895
93.65 0.01329
93.7 0.01817
93.75 0.02409
93.8 0.0304
93.85 0.02888
93.9 0.02116
93.95 0.01322
94 0.0059
94.05 -0.00312
94.1 -0.00682
94.15 -0.00823
94.2 -0.01209
94.25 -0.0147
94.3 -0.01646
94.35 -0.0194
94.4 -0.01755
94.45 -0.01268
94.5 -0.00818
94.55 -0.00257
94.6 0.00208
94.65 0.00611
94.7 0.00972
94.75 0.01354
94.8 0.01132
94.85 0.01278
94.9 0.00982
94.95 0.0038
95 0.00399
95.05 0.00425
95.1 -0.00034
95.15 -0.00735
95.2 -0.00814
95.25 -0.00515
95.3 -0.00359
95.35 -0.00287
95.4 -0.00391
95.45 -0.0073
95.5 -0.00728
95.55 -0.0109
95.6 -0.0156
95.65 -0.02103
95.7 -0.02213
95.75 -0.01689
95.8 -0.01037
95.85 -0.0048
95.9 -0.00016
95.95 0.0038
96 0.00635
96.05 0.008
96.1 0.00698
96.15 0.00274
96.2 -0.00337
96.25 -0.01051
96.3 -0.01168
96.35 -0.00995
96.4 -0.00915
96.45 -0.00757
96.5 -0.00877
96.55 -0.00464
96.6 -0.00057
96.65 0.00275
96.7 0.00259
96.75 0.0055
96.8 0.01144
96.85 0.01638
96.9 0.019
96.95 0.02142
97 0.02475
97.05 0.02815
97.1 0.02354
97.15 0.01684
97.2 0.00846
97.25 0.00128
97.3 -0.00163
97.35 0.00081
97.4 0.00579
97.45 0.009
97.5 0.00862
97.55 0.00807
97.6 0.01027
97.65 0.01374
97.7 0.01099
97.75 0.01279
97.8 0.01452
97.85 0.01398
97.9 0.0131
97.95 0.0089
98 0.00594
98.05 0.00704
98.1 0.00553
98.15 0.0034
98.2 0.00587
98.25 0.00646
98.3 0.00594
98.35 0.00471
98.4 -0.0007
98.45 -0.00128
98.5 0.00081
98.55 0.00526
98.6 0.00309
98.65 0.0056
98.7 0.00941
98.75 0.00644
98.8 0.00696
98.85 0.00688
98.9 0.00808
98.95 0.0092
99 0.00896
99.05 0.00619
99.1 0.00377
99.15 0.0004
99.2 -0.00079
99.25 -0.00191
99.3 -0.00596
99.35 -0.01099
99.4 -0.01511
99.45 -0.02028
99.5 -0.0196
99.55 -0.01696
99.6 -0.0153
99.65 -0.01517
99.7 -0.01686
99.75 -0.01649
99.8 -0.01501
99.85 -0.01569
99.9 -0.01804
99.95 -0.0176
