0 0
0.05 0.00691
0.1 0.0151
0.15 0.02379
0.2 0.03084
0.25 0.03653
0.3 0.04252
0.35 0.04718
0.4 0.05032
0.45 0.0563
0.5 0.05766
0.55 0.05452
0.6 0.04992
0.65 0.04322
0.7 0.04388
0.75 0.046
0.8 0.04544
0.85 0.0488
0.9 0.0471
0.95 0.0437
1 0.04205
1.05 0.04175
1.1 0.04525
1.15 0.04556
1.2 0.04442
1.25 0.04587
1.3 0.04348
1.35 0.04163
1.4 0.03899
1.45 0.04164
1.5 0.03905
1.55 0.03401
1.6 0.0322
1.65 0.03035
1.7 0.02724
1.75 0.02509
1.8 0.02227
1.85 0.01905
1.9 0.01833
1.95 0.02281
2 0.02651
2.05 0.02518
2.1 0.02668
2.15 0.02843
2.2 0.02718
2.25 0.02868
2.3 0.03187
2.35 0.03082
2.4 0.03245
2.45 0.03325
2.5 0.03698
2.55 0.03758
2.6 0.03431
2.65 0.0359
2.7 0.03794
2.75 0.03987
2.8 0.0435
2.85 0.03988
2.9 0.03401
2.95 0.03021
3 0.02719
3.05 0.02309
3.1 0.01735
3.15 0.01576
3.2 0.01844
3.25 0.02044
3.3 0.01767
3.35 0.01366
3.4 0.0144
3.45 0.01469
3.5 0.01238
3.55 0.01277
3.6 0.01028
3.65 0.00826
3.7 0.0039
3.75 -0.00137
3.8 -0.00012
3.85 0.00417
3.9 0.00827
3.95 0.00839
4 0.00614
4.05 0.00302
4.1 0.00261
4.15 -0.00016
4.2 0.00225
4.25 0.0044
4.3 0.00235
4.35 -0.00324
4.4 -0.00916
4.45 -0.01409
4.5 -0.02021
4.55 -0.02573
4.6 -0.03003
4.65 -0.03417
4.7 -0.04695
4.75 -0.06417
4.8 -0.08493
4.85 -0.11259
4.9 -0.13869
4.95 -0.16894
5 -0.2085
5.05 -0.25246
5.1 -0.30297
5.15 -0.36076
5.2 -0.42034
5.25 -0.48406
5.3 -0.54487
5.35 -0.60883
5.4 -0.67548
5.45 -0.74249
5.5 -0.81072
5.55 -0.88206
5.6 -0.95211
5.65 -1.02375
5.7 -1.09677
5.75 -1.16182
5.8 -1.22583
5.85 -1.28865
5.9 -1.34526
5.95 -1.38982
6 -1.4239
6.05 -1.4505
6.1 -1.47091
6.15 -1.48657
6.2 -1.49574
6.25 -1.50105
6.3 -1.50124
6.35 -1.48869
6.4 -1.46612
6.45 -1.44064
6.5 -1.41339
6.55 -1.37795
6.6 -1.33669
6.65 -1.29169
6.7 -1.24053
6.75 -1.17384
6.8 -1.09777
6.85 -1.01481
6.9 -0.92124
6.95 -0.81962
7 -0.71574
7.05 -0.60818
7.1 -0.5005
7.15 -0.39151
7.2 -0.27851
7.25 -0.16236
7.3 -0.0471
7.35 0.06942
7.4 0.18267
7.45 0.29967
7.5 0.41214
7.55 0.52297
7.6 0.63096
7.65 0.72615
7.7 0.81695
7.75 0.89415
7.8 0.9626
7.85 1.02475
7.9 1.07797
7.95 1.12422
8 1.16175
8.05 1.20024
8.1 1.23297
8.15 1.25911
8.2 1.28557
8.25 1.3028
8.3 1.3199
8.35 1.32745
8.4 1.32974
8.45 1.33459
8.5 1.33454
8.55 1.33283
8.6 1.33122
8.65 1.32444
8.7 1.31343
8.75 1.30017
8.8 1.28283
8.85 1.26448
8.9 1.24307
8.95 1.22861
9 1.21619
9.05 1.19963
9.1 1.17791
9.15 1.15682
9.2 1.13426
9.25 1.11711
9.3 1.09858
9.35 1.08071
9.4 1.05919
9.45 1.03451
9.5 1.0093
9.55 0.98634
9.6 0.96028
9.65 0.93254
9.7 0.90624
9.75 0.87912
9.8 0.85058
9.85 0.82327
9.9 0.79495
9.95 0.77249
10 0.75276
10.05 0.7338
10.1 0.71172
10.15 0.68809
10.2 0.66294
10.25 0.6437
10.3 0.62633
10.35 0.61075
10.4 0.59421
10.45 0.57243
10.5 0.55257
10.55 0.53248
10.6 0.50611
10.65 0.47853
10.7 0.45391
10.75 0.43055
10.8 0.40404
10.85 0.38079
10.9 0.35393
10.95 0.32891
11 0.29984
11.05 0.27146
11.1 0.24585
11.15 0.22114
11.2 0.19775
11.25 0.17838
11.3 0.15612
11.35 0.13135
11.4 0.1093
11.45 0.0929
11.5 0.07718
11.55 0.05563
11.6 0.03841
11.65 0.02486
11.7 0.0092
11.75 -0.00551
11.8 -0.02143
11.85 -0.04026
11.9 -0.05811
11.95 -0.07765
12 -0.09713
12.05 -0.11244
12.1 -0.12132
12.15 -0.12642
12.2 -0.13631
12.25 -0.14789
12.3 -0.15796
12.35 -0.16444
12.4 -0.16806
12.45 -0.17514
12.5 -0.18558
12.55 -0.19206
12.6 -0.19327
12.65 -0.19891
12.7 -0.20557
12.75 -0.21081
12.8 -0.21593
12.85 -0.21515
12.9 -0.21401
12.95 -0.21311
13 -0.21418
13.05 -0.21437
13.1 -0.21115
13.15 -0.20864
13.2 -0.2109
13.25 -0.21456
13.3 -0.22077
13.35 -0.22368
13.4 -0.22543
13.45 -0.23014
13.5 -0.23355
13.55 -0.23829
13.6 -0.23857
13.65 -0.23342
13.7 -0.22503
13.75 -0.21655
13.8 -0.20989
13.85 -0.20364
13.9 -0.20207
13.95 -0.20298
14 -0.19927
14.05 -0.19171
14.1 -0.18284
14.15 -0.17831
14.2 -0.17671
14.25 -0.17657
14.3 -0.17901
14.35 -0.18271
14.4 -0.18028
14.45 -0.17341
14.5 -0.16725
14.55 -0.16253
14.6 -0.16079
14.65 -0.16029
14.7 -0.15926
14.75 -0.15689
14.8 -0.15086
14.85 -0.15099
14.9 -0.15257
14.95 -0.15477
15 -0.154
15.05 -0.15337
15.1 -0.14897
15.15 -0.14786
15.2 -0.14495
15.25 -0.1429
15.3 -0.14418
15.35 -0.14458
15.4 -0.14662
15.45 -0.14214
15.5 -0.13875
15.55 -0.1372
15.6 -0.13366
15.65 -0.13138
15.7 -0.1295
15.75 -0.12215
15.8 -0.11331
15.85 -0.1089
15.9 -0.10289
15.95 -0.0993
16 -0.0935
16.05 -0.09114
16.1 -0.09247
16.15 -0.09457
16.2 -0.09976
16.25 -0.10083
16.3 -0.09711
16.35 -0.0896
16.4 -0.0861
16.45 -0.08844
16.5 -0.08631
16.55 -0.08717
16.6 -0.08597
16.65 -0.08032
16.7 -0.07759
16.75 -0.07441
16.8 -0.07
16.85 -0.07178
16.9 -0.07544
16.95 -0.07716
17 -0.07592
17.05 -0.0705
17.1 -0.06688
17.15 -0.06811
17.2 -0.06723
17.25 -0.06725
17.3 -0.06917
17.35 -0.06554
17.4 -0.06493
17.45 -0.06292
17.5 -0.0663
17.55 -0.07235
17.6 -0.07301
17.65 -0.07626
17.7 -0.07473
17.75 -0.07436
17.8 -0.07481
17.85 -0.07491
17.9 -0.07771
17.95 -0.08033
18 -0.08151
18.05 -0.07636
18.1 -0.07301
18.15 -0.0697
18.2 -0.06231
18.25 -0.0574
18.3 -0.05614
18.35 -0.05823
18.4 -0.05727
18.45 -0.05498
18.5 -0.05031
18.55 -0.05089
18.6 -0.05021
18.65 -0.05071
18.7 -0.04576
18.75 -0.03918
18.8 -0.03481
18.85 -0.02978
18.9 -0.02356
18.95 -0.02057
19 -0.01651
19.05 -0.01863
19.1 -0.02109
19.15 -0.02051
19.2 -0.01854
19.25 -0.01987
19.3 -0.02427
19.35 -0.03067
19.4 -0.03952
19.45 -0.04177
19.5 -0.04547
19.55 -0.0506
19.6 -0.05079
19.65 -0.04471
19.7 -0.03813
19.75 -0.03748
19.8 -0.03195
19.85 -0.02671
19.9 -0.02537
19.95 -0.02538
20 -0.02425
20.05 -0.02356
20.1 -0.02573
20.15 -0.02505
20.2 -0.02513
20.25 -0.02592
20.3 -0.02461
20.35 -0.02837
20.4 -0.03305
20.45 -0.03229
20.5 -0.03129
20.55 -0.02982
20.6 -0.0267
20.65 -0.0246
20.7 -0.0276
20.75 -0.03246
20.8 -0.03091
20.85 -0.02572
20.9 -0.02615
20.95 -0.02948
21 -0.02971
21.05 -0.0262
21.1 -0.02516
21.15 -0.02
21.2 -0.0191
21.25 -0.02237
21.3 -0.02814
21.35 -0.02862
21.4 -0.0321
21.45 -0.03642
21.5 -0.04205
21.55 -0.04014
21.6 -0.03565
21.65 -0.0271
21.7 -0.02003
21.75 -0.01726
21.8 -0.01617
21.85 -0.01594
21.9 -0.0123
21.95 -0.01175
22 -0.01334
22.05 -0.01594
22.1 -0.01759
22.15 -0.01839
22.2 -0.01566
22.25 -0.01219
22.3 -0.0081
22.35 -0.01035
22.4 -0.01582
22.45 -0.02178
22.5 -0.02361
22.55 -0.02425
22.6 -0.02409
22.65 -0.02001
22.7 -0.02063
22.75 -0.01782
22.8 -0.01161
22.85 -0.00503
22.9 -0.00544
22.95 -0.00511
23 -0.00132
23.05 0.00117
23.1 0.00627
23.15 0.01186
23.2 0.01805
23.25 0.0187
23.3 0.01421
23.35 0.00678
23.4 0.00336
23.45 0.00468
23.5 0.00096
23.55 0.00162
23.6 -0.00075
23.65 -0.00313
23.7 -0.00504
23.75 -0.0088
23.8 -0.01535
23.85 -0.01496
23.9 -0.01684
23.95 -0.01908
24 -0.01727
24.05 -0.01805
24.1 -0.02146
24.15 -0.02071
24.2 -0.02213
24.25 -0.02211
24.3 -0.01668
24.35 -0.00808
24.4 0.00097
24.45 0.00553
24.5 0.00716
24.55 0.00977
24.6 0.00975
24.65 0.00773
24.7 0.00628
24.75 0.0079
24.8 0.0064
24.85 0.0003
24.9 -0.00141
24.95 -0.00437
25 -0.0071
25.05 -0.00916
25.1 -0.00841
25.15 -0.0039
25.2 0.00175
25.25 0.00503
25.3 0.01059
25.35 0.01102
25.4 0.00751
25.45 0.00559
25.5 0.00609
25.55 0.00593
25.6 0.00856
25.65 0.00731
25.7 0.00303
25.75 -0.00071
25.8 -0.00534
25.85 -0.00874
25.9 -0.00932
25.95 -0.01186
26 -0.01384
26.05 -0.01333
26.1 -0.01149
26.15 -0.01139
26.2 -0.0095
26.25 -0.00802
26.3 -0.00253
26.35 0.00211
26.4 0.00681
26.45 0.00907
26.5 0.00583
26.55 -0.00029
26.6 -0.00337
26.65 -0.00718
26.7 -0.01407
26.75 -0.01484
26.8 -0.01243
26.85 -0.00965
26.9 -0.00679
26.95 -0.00969
27 -0.01179
27.05 -0.01231
27.1 -0.01238
27.15 -0.01355
27.2 -0.01167
27.25 -0.01359
27.3 -0.01611
27.35 -0.01483
27.4 -0.01071
27.45 -0.00816
27.5 -0.00349
27.55 -0.00016
27.6 0.00219
27.65 -0.00043
27.7 -0.0049
27.75 -0.01329
27.8 -0.02168
27.85 -0.0261
27.9 -0.02976
27.95 -0.03485
28 -0.03998
28.05 -0.04925
28.1 -0.06083
28.15 -0.06741
28.2 -0.07468
28.25 -0.0802
28.3 -0.08997
28.35 -0.10447
28.4 -0.11839
28.45 -0.13399
28.5 -0.15323
28.55 -0.17807
28.6 -0.20319
28.65 -0.22579
28.7 -0.25062
28.75 -0.27946
28.8 -0.31611
28.85 -0.35956
28.9 -0.40845
28.95 -0.45335
29 -0.49744
29.05 -0.54692
29.1 -0.59615
29.15 -0.64796
29.2 -0.70298
29.25 -0.7633
29.3 -0.83002
29.35 -0.89113
29.4 -0.95146
29.45 -1.01358
29.5 -1.07214
29.55 -1.12513
29.6 -1.17305
29.65 -1.2204
29.7 -1.26218
29.75 -1.29162
29.8 -1.31674
29.85 -1.33323
29.9 -1.34662
29.95 -1.34734
30 -1.33682
30.05 -1.31684
30.1 -1.2844
30.15 -1.24879
30.2 -1.20401
30.25 -1.14601
30.3 -1.08217
30.35 -1.00723
30.4 -0.92654
30.45 -0.84409
30.5 -0.75205
30.55 -0.65975
30.6 -0.56282
30.65 -0.46858
30.7 -0.37403
30.75 -0.27651
30.8 -0.17552
30.85 -0.08051
30.9 0.0155
30.95 0.10708
31 0.19239
31.05 0.27664
31.1 0.35474
31.15 0.42589
31.2 0.49637
31.25 0.5566
31.3 0.61295
31.35 0.66368
31.4 0.71244
31.45 0.75408
31.5 0.7901
31.55 0.81979
31.6 0.8447
31.65 0.86696
31.7 0.88693
31.75 0.90517
31.8 0.9238
31.85 0.94027
31.9 0.95307
31.95 0.96577
32 0.97005
32.05 0.9729
32.1 0.9785
32.15 0.98512
32.2 0.98389
32.25 0.98338
32.3 0.98234
32.35 0.97716
32.4 0.97193
32.45 0.97017
32.5 0.9713
32.55 0.96762
32.6 0.96374
32.65 0.96421
32.7 0.95972
32.75 0.95177
32.8 0.9402
32.85 0.92698
32.9 0.91654
32.95 0.90589
33 0.89845
33.05 0.8939
33.1 0.88306
33.15 0.87349
33.2 0.85715
33.25 0.84417
33.3 0.82925
33.35 0.8139
33.4 0.7913
33.45 0.7691
33.5 0.74537
33.55 0.71854
33.6 0.68965
33.65 0.66458
33.7 0.63917
33.75 0.61904
33.8 0.60285
33.85 0.58136
33.9 0.5605
33.95 0.54273
34 0.52385
34.05 0.50252
34.1 0.47758
34.15 0.45449
34.2 0.43043
34.25 0.41209
34.3 0.39232
34.35 0.37186
34.4 0.34705
34.45 0.32843
34.5 0.30847
34.55 0.28901
34.6 0.272
34.65 0.25751
34.7 0.24511
34.75 0.22844
34.8 0.20774
34.85 0.18967
34.9 0.17066
34.95 0.1524
35 0.13787
35.05 0.12084
35.1 0.10633
35.15 0.09579
35.2 0.07962
35.25 0.06366
35.3 0.04458
35.35 0.02952
35.4 0.01596
35.45 -0.00066
35.5 -0.01216
35.55 -0.02362
35.6 -0.03708
35.65 -0.05043
35.7 -0.06202
35.75 -0.07387
35.8 -0.08586
35.85 -0.09557
35.9 -0.10653
35.95 -0.11674
36 -0.12703
36.05 -0.1348
36.1 -0.13821
36.15 -0.13785
36.2 -0.1409
36.25 -0.14498
36.3 -0.15117
36.35 -0.15372
36.4 -0.159
36.45 -0.159
36.5 -0.1586
36.55 -0.15406
36.6 -0.15278
36.65 -0.15627
36.7 -0.16191
36.75 -0.16899
36.8 -0.16942
36.85 -0.165
36.9 -0.15963
36.95 -0.15945
37 -0.15937
37.05 -0.15689
37.1 -0.16019
37.15 -0.1667
37.2 -0.16934
37.25 -0.17375
37.3 -0.17802
37.35 -0.18277
37.4 -0.18773
37.45 -0.18687
37.5 -0.1881
37.55 -0.19052
37.6 -0.18804
37.65 -0.17981
37.7 -0.16791
37.75 -0.15571
37.8 -0.14566
37.85 -0.13991
37.9 -0.14132
37.95 -0.14724
38 -0.15554
38.05 -0.15916
38.1 -0.16114
38.15 -0.16221
38.2 -0.15988
38.25 -0.15511
38.3 -0.15187
38.35 -0.15132
38.4 -0.14692
38.45 -0.13936
38.5 -0.13115
38.55 -0.12566
38.6 -0.12041
38.65 -0.11697
38.7 -0.11481
38.75 -0.11046
38.8 -0.10375
38.85 -0.10477
38.9 -0.11048
38.95 -0.10962
39 -0.10519
39.05 -0.10742
39.1 -0.10996
39.15 -0.11413
39.2 -0.11751
39.25 -0.11877
39.3 -0.11871
39.35 -0.11285
39.4 -0.11259
39.45 -0.10833
39.5 -0.10486
39.55 -0.10562
39.6 -0.10666
39.65 -0.10497
39.7 -0.10367
39.75 -0.10619
39.8 -0.10249
39.85 -0.09785
39.9 -0.09485
39.95 -0.08816
40 -0.08209
40.05 -0.08124
40.1 -0.08464
40.15 -0.08706
40.2 -0.0858
40.25 -0.08289
40.3 -0.08106
40.35 -0.07528
40.4 -0.06696
40.45 -0.05887
40.5 -0.05604
40.55 -0.05689
40.6 -0.05713
40.65 -0.05903
40.7 -0.06266
40.75 -0.06518
40.8 -0.06399
40.85 -0.06393
40.9 -0.06003
40.95 -0.06063
41 -0.06494
41.05 -0.06687
41.1 -0.07095
41.15 -0.0745
41.2 -0.07955
41.25 -0.07754
41.3 -0.07242
41.35 -0.06405
41.4 -0.05652
41.45 -0.05493
41.5 -0.05167
41.55 -0.05402
41.6 -0.05244
41.65 -0.04752
41.7 -0.04495
41.75 -0.04642
41.8 -0.04736
41.85 -0.04315
41.9 -0.04504
41.95 -0.04201
42 -0.04307
42.05 -0.03918
42.1 -0.03727
42.15 -0.03298
42.2 -0.0308
42.25 -0.02741
42.3 -0.02605
42.35 -0.02502
42.4 -0.02416
42.45 -0.02681
42.5 -0.03374
42.55 -0.03447
42.6 -0.03145
42.65 -0.02748
42.7 -0.029
42.75 -0.02705
42.8 -0.02683
42.85 -0.02505
42.9 -0.02521
42.95 -0.02799
43 -0.03338
43.05 -0.03658
43.1 -0.03644
43.15 -0.03301
43.2 -0.02835
43.25 -0.03026
43.3 -0.02814
43.35 -0.02277
43.4 -0.02355
43.45 -0.02506
43.5 -0.02317
43.55 -0.02097
43.6 -0.02051
43.65 -0.02148
43.7 -0.02524
43.75 -0.02388
43.8 -0.02115
43.85 -0.02123
43.9 -0.01993
43.95 -0.01926
44 -0.01981
44.05 -0.02111
44.1 -0.02191
44.15 -0.02702
44.2 -0.03271
44.25 -0.03546
44.3 -0.03198
44.35 -0.03132
44.4 -0.03254
44.45 -0.03701
44.5 -0.04158
44.55 -0.04511
44.6 -0.0416
44.65 -0.04022
44.7 -0.03382
44.75 -0.03079
44.8 -0.02522
44.85 -0.02558
44.9 -0.02761
44.95 -0.02605
45 -0.02594
45.05 -0.02447
45.1 -0.01904
45.15 -0.01309
45.2 -0.01096
45.25 -0.0072
45.3 -0.00971
45.35 -0.0146
45.4 -0.02223
45.45 -0.03064
45.5 -0.03885
45.55 -0.04651
45.6 -0.04856
45.65 -0.05065
45.7 -0.05031
45.75 -0.04687
45.8 -0.03991
45.85 -0.03644
45.9 -0.03528
45.95 -0.03329
46 -0.02914
46.05 -0.02695
46.1 -0.02371
46.15 -0.01864
46.2 -0.01308
46.25 -0.00495
46.3 -0.00199
46.35 -0.00308
46.4 -0.00654
46.45 -0.00964
46.5 -0.01174
46.55 -0.01204
46.6 -0.01458
46.65 -0.01406
46.7 -0.01301
46.75 -0.00842
46.8 -0.00975
46.85 -0.00814
46.9 -0.00896
46.95 -0.00647
47 -0.00252
47.05 -0.00047
47.1 -0.00021
47.15 0.00107
47.2 0.00571
47.25 0.00748
47.3 0.00547
47.35 -0.00033
47.4 -0.00827
47.45 -0.00872
47.5 -0.00492
47.55 -0.00245
47.6 0.00064
47.65 -0.00159
47.7 -0.00672
47.75 -0.01366
47.8 -0.01868
47.85 -0.02398
47.9 -0.02237
47.95 -0.02387
48 -0.02332
48.05 -0.02104
48.1 -0.01732
48.15 -0.01752
48.2 -0.01979
48.25 -0.02426
48.3 -0.0295
48.35 -0.03505
48.4 -0.03643
48.45 -0.03325
48.5 -0.02683
48.55 -0.02158
48.6 -0.02022
48.65 -0.01347
48.7 -0.0082
48.75 -0.00853
48.8 -0.00915
48.85 -0.00977
48.9 -0.01346
48.95 -0.01264
49 -0.01564
49.05 -0.01903
49.1 -0.02013
49.15 -0.02295
49.2 -0.02224
49.25 -0.01987
49.3 -0.01291
49.35 -0.00683
49.4 0.00172
49.45 0.01059
49.5 0.01549
49.55 0.01667
49.6 0.01982
49.65 0.02331
49.7 0.02278
49.75 0.01734
49.8 0.00867
49.85 0.00313
49.9 -0.00298
49.95 -0.00902
50 -0.01125
50.05 -0.01097
50.1 -0.01167
50.15 -0.0076
50.2 -0.00232
50.25 0.00437
50.3 0.00468
50.35 0.0004
50.4 -0.00442
50.45 -0.00294
50.5 -0.00426
50.55 -0.00634
50.6 -0.00637
50.65 -0.01004
50.7 -0.00897
50.75 -0.01152
50.8 -0.00856
50.85 -0.00893
50.9 -0.0106
50.95 -0.00944
51 -0.00941
51.05 -0.00888
51.1 -0.01163
51.15 -0.01556
51.2 -0.02011
51.25 -0.02541
51.3 -0.02983
51.35 -0.02832
51.4 -0.02066
51.45 -0.01435
51.5 -0.00897
51.55 -0.00629
51.6 -0.00634
51.65 -0.00517
51.7 -0.00337
51.75 0.0028
51.8 0.00514
51.85 0.00306
51.9 -0.00073
51.95 -0.0009
52 -0.00423
52.05 -0.00575
52.1 -0.00432
52.15 0.00088
52.2 0.00536
52.25 0.00499
52.3 0.00757
52.35 0.00789
52.4 0.00657
52.45 0.00675
52.5 0.00279
52.55 0.0049
52.6 0.00229
52.65 0.00549
52.7 0.0099
52.75 0.01457
52.8 0.0187
52.85 0.02453
52.9 0.02585
52.95 0.02892
53 0.02577
53.05 0.0185
53.1 0.01241
53.15 0.01175
53.2 0.01162
53.25 0.01261
53.3 0.01102
53.35 0.00746
53.4 0.00784
53.45 0.00578
53.5 0.00557
53.55 0.00804
53.6 0.0084
53.65 0.01205
53.7 0.00995
53.75 0.01185
53.8 0.01542
53.85 0.01396
53.9 0.01277
53.95 0.0122
54 0.00787
54.05 -0.00019
54.1 -0.0055
54.15 -0.00531
54.2 -0.00153
54.25 0.00241
54.3 0.00608
54.35 0.01106
54.4 0.01671
54.45 0.01661
54.5 0.01678
54.55 0.01151
54.6 0.00314
54.65 0.00047
54.7 -0.00365
54.75 -0.00986
54.8 -0.01066
54.85 -0.01234
54.9 -0.01669
54.95 -0.01572
55 -0.0128
55.05 -0.01045
55.1 -0.00853
55.15 -0.00695
55.2 -0.00686
55.25 -0.00903
55.3 -0.01215
55.35 -0.01031
55.4 -0.00608
55.45 0.00138
55.5 0.00958
55.55 0.00997
55.6 0.01134
55.65 0.01147
55.7 0.0152
55.75 0.02054
55.8 0.02005
55.85 0.01725
55.9 0.01467
55.95 0.01576
56 0.01456
56.05 0.01283
56.1 0.00984
56.15 0.00885
56.2 0.00803
56.25 0.00849
56.3 0.005
56.35 0.00349
56.4 0.00311
56.45 0.00112
56.5 0.00256
56.55 0.0053
56.6 0.0104
56.65 0.01175
56.7 0.00928
56.75 0.00337
56.8 -0.00494
56.85 -0.00573
56.9 -0.00675
56.95 -0.00413
57 0.00183
57.05 0.00087
57.1 0.00277
57.15 0.00652
57.2 0.00732
57.25 0.01074
57.3 0.00734
57.35 0.00632
57.4 0.00207
57.45 -0.00545
57.5 -0.01282
57.55 -0.01705
57.6 -0.02023
57.65 -0.01845
57.7 -0.0192
57.75 -0.01577
57.8 -0.00835
57.85 0.00066
57.9 0.00597
57.95 0.00481
58 0.00633
58.05 0.00238
58.1 0.00383
58.15 0.00103
58.2 0.00142
58.25 0.00263
58.3 -0.00049
58.35 -0.00202
58.4 0.00153
58.45 0.00432
58.5 0.00508
58.55 0.00908
58.6 0.01258
58.65 0.01609
58.7 0.01206
58.75 0.00683
58.8 0.00037
58.85 -0.00611
58.9 -0.00886
58.95 -0.01009
59 -0.01488
59.05 -0.01937
59.1 -0.02194
59.15 -0.02561
59.2 -0.02243
59.25 -0.01594
59.3 -0.01253
59.35 -0.0057
59.4 -0.00211
59.45 0.00008
59.5 0.00396
59.55 0.00876
59.6 0.01012
59.65 0.01456
59.7 0.0127
59.75 0.00856
59.8 0.00782
59.85 0.00911
59.9 0.00754
59.95 0.00563
60 0.00558
60.05 0.00475
60.1 0.00814
60.15 0.00994
60.2 0.00524
60.25 0.00205
60.3 0.00325
60.35 0.00076
60.4 -0.00571
60.45 -0.01252
60.5 -0.01859
60.55 -0.02246
60.6 -0.0255
60.65 -0.0284
60.7 -0.02594
60.75 -0.0242
60.8 -0.01818
60.85 -0.01392
60.9 -0.01063
60.95 -0.00519
61 -0.00555
61.05 -0.00374
61.1 -0.0062
61.15 -0.0097
61.2 -0.01448
61.25 -0.01219
61.3 -0.0144
61.35 -0.01753
61.4 -0.01616
61.45 -0.00997
61.5 -0.00245
61.55 0.00694
61.6 0.01259
61.65 0.01508
61.7 0.01476
61.75 0.01386
61.8 0.00889
61.85 0.00789
61.9 0.00295
61.95 0.00422
62 0.00101
62.05 0.0026
62.1 -0.00088
62.15 -0.00005
62.2 0.00126
62.25 -0.00086
62.3 -0.00272
62.35 -0.00822
62.4 -0.01358
62.45 -0.01856
62.5 -0.01662
62.55 -0.0112
62.6 -0.00959
62.65 -0.00873
62.7 -0.00322
62.75 0.00223
62.8 0.0067
62.85 0.01168
62.9 0.0174
62.95 0.02357
63 0.02648
63.05 0.02923
63.1 0.02656
63.15 0.02403
63.2 0.01684
63.25 0.01209
63.3 0.0042
63.35 -0.00029
63.4 -0.00131
63.45 -0.00525
63.5 -0.00826
63.55 -0.00914
63.6 -0.00854
63.65 -0.00353
63.7 -0.00135
63.75 -0.00387
63.8 -0.00206
63.85 0.00088
63.9 0.00221
63.95 0.00579
64 0.01072
64.05 0.00979
64.1 0.0062
64.15 -0.00069
64.2 -0.0037
64.25 -0.00966
64.3 -0.01008
64.35 -0.00557
64.4 -0.00669
64.45 -0.00534
64.5 -0.00018
64.55 0.00411
64.6 0.01039
64.65 0.01461
64.7 0.01551
64.75 0.01545
64.8 0.01368
64.85 0.00835
64.9 0.00506
64.95 0.00515
65 0.00409
65.05 0.00573
65.1 0.00716
65.15 0.00712
65.2 0.00328
65.25 0.00417
65.3 0.00245
65.35 -0.00001
65.4 -0.00208
65.45 -0.00472
65.5 -0.00382
65.55 -0.00654
65.6 -0.00677
65.65 -0.00972
65.7 -0.00815
65.75 -0.00544
65.8 -0.00355
65.85 -0.00167
65.9 0.00072
65.95 0.00261
66 -0.00122
66.05 -0.00421
66.1 -0.00655
66.15 -0.00943
66.2 -0.01227
66.25 -0.01289
66.3 -0.01215
66.35 -0.01557
66.4 -0.01239
66.45 -0.00632
66.5 -0.00302
66.55 -0.00169
66.6 0.00164
66.65 0.00051
66.7 0.00352
66.75 0.00865
66.8 0.00772
66.85 0.00709
66.9 0.00812
66.95 0.0095
67 0.00642
67.05 0.00611
67.1 0.00918
67.15 0.01322
67.2 0.01455
67.25 0.01679
67.3 0.01396
67.35 0.01327
67.4 0.00705
67.45 0.00315
67.5 0.00472
67.55 0.00194
67.6 0.00118
67.65 -0.00124
67.7 -0.00416
67.75 -0.00849
67.8 -0.01555
67.85 -0.01445
67.9 -0.01151
67.95 -0.00878
68 -0.00379
68.05 -0.0037
68.1 -0.00147
68.15 0.0042
68.2 0.00415
68.25 0.00665
68.3 0.00627
68.35 0.00286
68.4 0.00144
68.45 -0.00358
68.5 -0.00794
68.55 -0.01214
68.6 -0.01139
68.65 -0.00739
68.7 -0.00905
68.75 -0.00585
68.8 -0.00369
68.85 -0.00123
68.9 0.00027
68.95 0.00405
69 0.00119
69.05 -0.00463
69.1 -0.00377
69.15 0.00146
69.2 0.00883
69.25 0.01576
69.3 0.01553
69.35 0.01194
69.4 0.00519
69.45 0.00461
69.5 0.00184
69.55 0.00044
69.6 0.00228
69.65 0.00262
69.7 0.00413
69.75 0.0054
69.8 0.00283
69.85 0.00126
69.9 0.00245
69.95 0.00505
70 0.00916
70.05 0.01198
70.1 0.01117
70.15 0.00867
70.2 0.00447
70.25 0.00503
70.3 0.0062
70.35 0.00701
70.4 0.01008
70.45 0.00927
70.5 0.00766
70.55 0.00179
70.6 0.00207
70.65 -0.00207
70.7 -0.00302
70.75 -0.00161
70.8 -0.0018
70.85 0.00209
70.9 0.00698
70.95 0.01277
71 0.01807
71.05 0.02044
71.1 0.01634
71.15 0.00802
71.2 -0.00058
71.25 -0.00511
71.3 -0.00643
71.35 -0.0064
71.4 -0.00652
71.45 -0.00323
71.5 -0.00083
71.55 0.00221
71.6 0.00097
71.65 -0.00398
71.7 -0.00354
71.75 -0.0064
71.8 -0.00733
71.85 -0.01091
71.9 -0.01341
71.95 -0.01215
72 -0.00709
72.05 -0.00231
72.1 -0.00403
72.15 -0.00946
72.2 -0.01582
72.25 -0.01708
72.3 -0.02102
72.35 -0.01983
72.4 -0.01464
72.45 -0.00979
72.5 -0.00943
72.55 -0.00527
72.6 0.00102
72.65 -0.00005
72.7 0.00131
72.75 0.00014
72.8 -0.0055
72.85 -0.00855
72.9 -0.00601
72.95 -0.00724
73 -0.00356
73.05 -0.00138
73.1 -0.0032
73.15 -0.00626
73.2 -0.01241
73.25 -0.01722
73.3 -0.02271
73.35 -0.02514
73.4 -0.02419
73.45 -0.01987
73.5 -0.01732
73.55 -0.01814
73.6 -0.018
73.65 -0.01262
73.7 -0.00367
73.75 0.00438
73.8 0.006
73.85 0.00469
73.9 0.00287
73.95 -0.0006
74 -0.00315
74.05 -0.00773
74.1 -0.01056
74.15 -0.00908
74.2 -0.01033
74.25 -0.01222
74.3 -0.01689
74.35 -0.02217
74.4 -0.01937
74.45 -0.01752
74.5 -0.01532
74.55 -0.01127
74.6 -0.00749
74.65 -0.00498
74.7 -0.0022
74.75 0.00014
74.8 0.00507
74.85 0.00447
74.9 0.00211
74.95 0.001
75 -0.00031
75.05 -0.00138
75.1 0.00008
75.15 -0.00019
75.2 -0.00451
75.25 -0.00846
75.3 -0.00567
75.35 -0.00367
75.4 -0.00235
75.45 -0.00339
75.5 -0.0081
75.55 -0.01341
75.6 -0.01667
75.65 -0.01521
75.7 -0.01613
75.75 -0.01659
75.8 -0.01723
75.85 -0.01128
75.9 -0.00553
75.95 -0.00426
76 -0.00093
76.05 0.00005
76.1 -0.00287
76.15 -0.00325
76.2 0.00129
76.25 -0.00005
76.3 0.00384
76.35 0.00594
76.4 0.0102
76.45 0.00924
76.5 0.00738
76.55 0.00701
76.6 0.00848
76.65 0.006
76.7 0.00294
76.75 -0.00326
76.8 -0.00767
76.85 -0.01144
76.9 -0.00805
76.95 -0.00195
77 0.00294
77.05 0.0061
77.1 0.00416
77.15 0.00358
77.2 -0.00136
77.25 -0.00069
77.3 -0.00441
77.35 -0.00728
77.4 -0.01271
77.45 -0.01397
77.5 -0.01351
77.55 -0.00796
77.6 -0.00343
77.65 -0.00465
77.7 -0.00014
77.75 0.00414
77.8 0.00972
77.85 0.01142
77.9 0.01586
77.95 0.0196
78 0.02295
78.05 0.02349
78.1 0.02313
78.15 0.02417
78.2 0.02412
78.25 0.02295
78.3 0.02404
78.35 0.02608
78.4 0.02644
78.45 0.02075
78.5 0.01451
78.55 0.01213
78.6 0.0136
78.65 0.01466
78.7 0.01692
78.75 0.01411
78.8 0.00759
78.85 0.00182
78.9 -0.00266
78.95 -0.00466
79 -0.00456
79.05 -0.00552
79.1 -0.00886
79.15 -0.01318
79.2 -0.01575
79.25 -0.02002
79.3 -0.0249
79.35 -0.02144
79.4 -0.0139
79.45 -0.00446
79.5 0.00269
79.55 0.00344
79.6 0.00414
79.65 0.00687
79.7 0.00616
79.75 0.00041
79.8 -0.00133
79.85 0.0003
79.9 -0.00181
79.95 -0.00629
80 -0.01068
80.05 -0.01098
80.1 -0.01234
80.15 -0.01445
80.2 -0.01159
80.25 -0.01138
80.3 -0.00613
80.35 -0.00132
80.4 0.00494
80.45 0.01234
80.5 0.01981
80.55 0.02681
80.6 0.033
80.65 0.03404
80.7 0.03426
80.75 0.03263
80.8 0.03042
80.85 0.02368
80.9 0.0139
80.95 0.00897
81 0.00671
81.05 0.00281
81.1 -0.00288
81.15 -0.00377
81.2 -0.00821
81.25 -0.01105
81.3 -0.01408
81.35 -0.01425
81.4 -0.01114
81.45 -0.01259
81.5 -0.01414
81.55 -0.01111
81.6 -0.01074
81.65 -0.00768
81.7 -0.00269
81.75 0.00145
81.8 0.00369
81.85 0.00209
81.9 -0.00254
81.95 -0.00373
82 -0.00053
82.05 0.00244
82.1 0.00739
82.15 0.00574
82.2 0.00812
82.25 0.00732
82.3 0.00516
82.35 0.00654
82.4 0.00629
82.45 0.00632
82.5 0.00757
82.55 0.00511
82.6 0.00183
82.65 0.0031
82.7 0.00782
82.75 0.00756
82.8 0.00225
82.85 -0.00258
82.9 -0.00816
82.95 -0.00899
83 -0.00561
83.05 -0.00043
83.1 0.0055
83.15 0.00598
83.2 0.00235
83.25 -0.00356
83.3 -0.003
83.35 -0.00039
83.4 0.00289
83.45 0.00805
83.5 0.00917
83.55 0.01074
83.6 0.01079
83.65 0.01152
83.7 0.01371
83.75 0.0113
83.8 0.00873
83.85 0.00224
83.9 -0.00626
83.95 -0.01333
84 -0.0152
84.05 -0.011
84.1 -0.00694
84.15 -0.00622
84.2 -0.00333
84.25 -0.00075
84.3 0.00487
84.35 0.01217
84.4 0.01322
84.45 0.01399
84.5 0.01088
84.55 0.00947
84.6 0.01181
84.65 0.01358
84.7 0.01403
84.75 0.01336
84.8 0.01456
84.85 0.01533
84.9 0.01658
84.95 0.01348
85 0.00849
85.05 0.0053
85.1 0.00173
85.15 -0.0032
85.2 -0.01086
85.25 -0.01391
85.3 -0.01437
85.35 -0.01731
85.4 -0.01807
85.45 -0.0169
85.5 -0.01466
85.55 -0.0167
85.6 -0.01883
85.65 -0.01508
85.7 -0.01242
85.75 -0.01209
85.8 -0.01102
85.85 -0.00633
85.9 -0.00366
85.95 -0.006
86 -0.01074
86.05 -0.01238
86.1 -0.01693
86.15 -0.01955
86.2 -0.02131
86.25 -0.02419
86.3 -0.01971
86.35 -0.01668
86.4 -0.01686
86.45 -0.01479
86.5 -0.01414
86.55 -0.00807
86.6 -0.00371
86.65 -0.00125
86.7 0.005
86.75 0.01129
86.8 0.01046
86.85 0.013
86.9 0.01695
86.95 0.01494
87 0.01584
87.05 0.01259
87.1 0.00963
87.15 0.0021
87.2 -0.00199
87.25 -0.00663
87.3 -0.00784
87.35 -0.01038
87.4 -0.01528
87.45 -0.01656
87.5 -0.01611
87.55 -0.01658
87.6 -0.0168
87.65 -0.02031
87.7 -0.01817
87.75 -0.01606
87.8 -0.013
87.85 -0.01351
87.9 -0.01496
87.95 -0.01685
88 -0.02116
88.05 -0.01737
88.1 -0.01547
88.15 -0.01387
88.2 -0.01189
88.25 -0.01117
88.3 -0.00817
88.35 -0.00153
88.4 0.00746
88.45 0.01673
88.5 0.01751
88.55 0.0127
88.6 0.00678
88.65 0.00478
88.7 0.00052
88.75 -0.00382
88.8 -0.00155
88.85 0.00471
88.9 0.00781
88.95 0.00533
89 0.00002
89.05 -0.00731
89.1 -0.00976
89.15 -0.01308
89.2 -0.0187
89.25 -0.01681
89.3 -0.01091
89.35 -0.01046
89.4 -0.00867
89.45 -0.0022
89.5 0.00634
89.55 0.00731
89.6 0.00981
89.65 0.00683
89.7 0.00723
89.75 0.01035
89.8 0.01061
89.85 0.00596
89.9 0.00171
89.95 -0.00109
90 -0.00519
90.05 -0.01062
90.1 -0.01389
90.15 -0.01429
90.2 -0.00951
90.25 -0.00839
90.3 -0.00263
90.35 -0.00293
90.4 0.00001
90.45 0.00623
90.5 0.00772
90.55 0.00451
90.6 0.00606
90.65 0.00777
90.7 0.00367
90.75 0.00336
90.8 0.00358
90.85 0.00013
90.9 -0.00412
90.95 -0.00496
91 -0.00832
91.05 -0.008
91.1 -0.00265
91.15 -0.00314
91.2 -0.00259
91.25 0.00114
91.3 0.00152
91.35 0.00334
91.4 0.00795
91.45 0.00863
91.5 0.00615
91.55 0.00586
91.6 0.00555
91.65 0.00575
91.7 0.00137
91.75 -0.00335
91.8 -0.00825
91.85 -0.0124
91.9 -0.01663
91.95 -0.02232
92 -0.02371
92.05 -0.02394
92.1 -0.02232
92.15 -0.01505
92.2 -0.01037
92.25 -0.01081
92.3 -0.01034
92.35 -0.00531
92.4 -0.00027
92.45 0.00371
92.5 0.00972
92.55 0.01182
92.6 0.01283
92.65 0.01095
92.7 0.0081
92.75 0.00534
92.8 0.00175
92.85 0.00179
92.9 0.00535
92.95 0.00763
93 0.01274
93.05 0.01779
93.1 0.01633
93.15 0.01168
93.2 0.01026
93.25 0.00822
93.3 0.01029
93.35 0.00945
93.4 0.01025
93.45 0.00761
93.5 0.00853
93.55 0.0045
93.6 -0.00068
93.65 -0.00758
93.7 -0.00685
93.75 -0.0054
93.8 -0.00097
93.85 0.00239
93.9 0.00208
93.95 0.00218
94 0.00185
94.05 -0.00118
94.1 -0.00483
94.15 -0.00217
94.2 -0.00214
94.25 0.00101
94.3 0.00028
94.35 -0.00236
94.4 -0.00152
94.45 -0.00452
94.5 -0.00375
94.55 -0.00529
94.6 -0.00863
94.65 -0.00701
94.7 -0.00908
94.75 -0.01283
94.8 -0.01529
94.85 -0.01905
94.9 -0.02179
94.95 -0.02155
95 -0.01626
95.05 -0.01498
95.1 -0.01282
95.15 -0.01074
95.2 -0.01007
95.25 -0.00682
95.3 -0.00235
95.35 0.00128
95.4 0.00711
95.45 0.00621
95.5 0.00825
95.55 0.01359
95.6 0.01279
95.65 0.00692
95.7 0.00307
95.75 0.0049
95.8 0.00519
95.85 0.00793
95.9 0.00843
95.95 0.0066
96 0.00488
96.05 0.00136
96.1 0.00362
96.15 0.00634
96.2 0.00639
96.25 0.00241
96.3 0.00094
96.35 -0.00003
96.4 -0.00506
96.45 -0.01049
96.5 -0.00872
96.55 -0.01107
96.6 -0.01458
96.65 -0.01597
96.7 -0.01697
96.75 -0.01752
96.8 -0.01957
96.85 -0.01449
96.9 -0.00885
96.95 -0.00167
97 0.00106
97.05 0.00179
97.1 0.00358
97.15 0.00097
97.2 0.00081
97.25 0.00076
97.3 0.00092
97.35 0.00538
97.4 0.01088
97.45 0.01759
97.5 0.01927
97.55 0.01936
97.6 0.02109
97.65 0.01836
97.7 0.01522
97.75 0.01516
97.8 0.01793
97.85 0.0214
97.9 0.02036
97.95 0.01788
98 0.01385
98.05 0.00627
98.1 0.00119
98.15 0.00095
98.2 -0.0011
98.25 -0.00653
98.3 -0.01383
98.35 -0.0128
98.4 -0.01068
98.45 -0.00733
98.5 -0.00317
98.55 -0.00346
98.6 -0.004
98.65 -0.00869
98.7 -0.00898
98.75 -0.01023
98.8 -0.01154
98.85 -0.00886
98.9 -0.00988
98.95 -0.01133
99 -0.00853
99.05 -0.00861
99.1 -0.00935
99.15 -0.00932
99.2 -0.00892
99.25 -0.00598
99.3 -0.00467
99.35 -0.00324
99.4 -0.00595
99.45 -0.00448
99.5 0.00132
99.55 0.00874
99.6 0.01135
99.65 0.01283
99.7 0.00817
99.75 0.0048
99.8 -0.00117
99.85 -0.0078
99.9 -0.01588
99.95 -0.01777
