0 0
0.05 0.00079
0.1 0.00166
0.15 0.00268
0.2 0.00356
0.25 0.00486
0.3 0.00541
0.35 0.00575
0.4 0.00619
0.45 0.0064
0.5 0.00752
0.55 0.00853
0.6 0.00983
0.65 0.01088
0.7 0.01151
0.75 0.01185
0.8 0.01254
0.85 0.01192
0.9 0.01117
0.95 0.01093
1 0.01088
1.05 0.01006
1.1 0.00857
1.15 0.00692
1.2 0.00509
1.25 0.00426
1.3 0.00326
1.35 0.00365
1.4 0.00475
1.45 0.00575
1.5 0.00608
1.55 0.00678
1.6 0.00774
1.65 0.00776
1.7 0.00689
1.75 0.00648
1.8 0.00564
1.85 0.00547
1.9 0.00603
1.95 0.00578
2 0.00561
2.05 0.00484
2.1 0.00517
2.15 0.00485
2.2 0.005
2.25 0.00566
2.3 0.00607
2.35 0.0063
2.4 0.00612
2.45 0.00514
2.5 0.0051
2.55 0.00515
2.6 0.00487
2.65 0.00398
2.7 0.00276
2.75 0.00209
2.8 0.0012
2.85 0.00159
2.9 0.0019
2.95 0.0023
3 0.0027
3.05 0.0039
3.1 0.00458
3.15 0.00571
3.2 0.00565
3.25 0.00467
3.3 0.00448
3.35 0.00413
3.4 0.00375
3.45 0.00431
3.5 0.00416
3.55 0.00377
3.6 0.00363
3.65 0.00406
3.7 0.00502
3.75 0.00589
3.8 0.00614
3.85 0.00688
3.9 0.00738
3.95 0.00733
4 0.00754
4.05 0.00764
4.1 0.00688
4.15 0.00558
4.2 0.00451
4.25 0.00364
4.3 0.00331
4.35 0.00336
4.4 0.00283
4.45 0.00317
4.5 0.00391
4.55 0.00441
4.6 0.0039
4.65 0.0034
4.7 0.0023
4.75 0.00131
4.8 -0.00003
4.85 -0.00031
4.9 -0.00055
4.95 -0.00096
5 -0.00111
5.05 -0.00079
5.1 -0.00018
5.15 0.00072
5.2 0.00059
5.25 0.00059
5.3 0.00008
5.35 -0.00002
5.4 -0.00009
5.45 0.00084
5.5 0.00146
5.55 0.00249
5.6 0.00254
5.65 0.00192
5.7 0.00095
5.75 -0.00001
5.8 -0.0004
5.85 0.00001
5.9 0.00045
5.95 0.00153
6 0.00181
6.05 0.00201
6.1 0.00228
6.15 0.00279
6.2 0.00341
6.25 0.0037
6.3 0.00417
6.35 0.00501
6.4 0.00488
6.45 0.00372
6.5 0.00296
6.55 0.00298
6.6 0.00358
6.65 0.00355
6.7 0.00314
6.75 0.00253
6.8 0.00153
6.85 0.00163
6.9 0.00121
6.95 0.00136
7 0.00224
7.05 0.0025
7.1 0.00268
7.15 0.0029
7.2 0.00307
7.25 0.00319
7.3 0.00304
7.35 0.00246
7.4 0.0021
7.45 0.00108
7.5 -0.00013
7.55 -0.00106
7.6 -0.00154
7.65 -0.00172
7.7 -0.00151
7.75 -0.00134
7.8 -0.00115
7.85 -0.00157
7.9 -0.00162
7.95 -0.00154
8 -0.00211
8.05 -0.00213
8.1 -0.00256
8.15 -0.00221
8.2 -0.00111
8.25 -0.00059
8.3 0.00052
8.35 0.00187
8.4 0.00214
8.45 0.00238
8.5 0.00159
8.55 0.00041
8.6 -0.00028
8.65 -0.00074
8.7 -0.00137
8.75 -0.00093
8.8 -0.00018
8.85 0.00058
8.9 0.00177
8.95 0.00209
9 0.00138
9.05 0.00078
9.1 -0.00036
9.15 -0.00182
9.2 -0.0018
9.25 -0.00094
9.3 -0
9.35 0.00073
9.4 0.00142
9.45 0.00111
9.5 0.00061
9.55 -0.00046
9.6 -0.00041
9.65 -0.00001
9.7 0.0011
9.75 0.00103
9.8 0.00036
9.85 -0.00048
9.9 -0.00057
9.95 -0.00124
10 -0.00136
10.05 -0.00191
10.1 -0.00154
10.15 -0.00065
10.2 0.00053
10.25 0.00208
10.3 0.00369
10.35 0.00368
10.4 0.00361
10.45 0.00252
10.5 0.00137
10.55 0.00014
10.6 0.00012
10.65 -0.00062
10.7 -0.00176
10.75 -0.00257
10.8 -0.00226
10.85 -0.00167
10.9 -0.00035
10.95 0.00101
11 0.00159
11.05 0.0013
11.1 0.00187
11.15 0.00232
11.2 0.00231
11.25 0.00155
11.3 0.00024
11.35 -0.00113
11.4 -0.00268
11.45 -0.00267
11.5 -0.00289
11.55 -0.00226
11.6 -0.00135
11.65 -0.00037
11.7 0.00053
11.75 0.00078
11.8 0.00063
11.85 0.00101
11.9 0.00072
11.95 0.00095
12 0.00073
12.05 0.0007
12.1 0.0008
12.15 0.00004
12.2 -0.0011
12.25 -0.00089
12.3 0.00007
12.35 0.00058
12.4 0.00069
12.45 0.00153
12.5 0.00189
12.55 0.00152
12.6 0.00043
12.65 -0.0004
12.7 -0.00006
12.75 -0.0004
12.8 -0.0005
12.85 -0.00078
12.9 -0.00119
12.95 -0.00197
13 -0.00224
13.05 -0.0026
13.1 -0.00277
13.15 -0.00267
13.2 -0.00189
13.25 -0.00151
13.3 -0.00138
13.35 -0.00173
13.4 -0.00187
13.45 -0.00225
13.5 -0.00166
13.55 -0.00039
13.6 0.00077
13.65 0.00155
13.7 0.00216
13.75 0.00294
13.8 0.00397
13.85 0.00352
13.9 0.00332
13.95 0.00253
14 0.00221
14.05 0.00261
14.1 0.00309
14.15 0.00316
14.2 0.00276
14.25 0.0027
14.3 0.00289
14.35 0.00229
14.4 0.00157
14.45 0.00085
14.5 0.00016
14.55 -0.0009
14.6 -0.00206
14.65 -0.00239
14.7 -0.00176
14.75 -0.00038
14.8 0.00126
14.85 0.00246
14.9 0.00234
14.95 0.00142
15 0.00142
15.05 0.00172
15.1 0.00101
15.15 0.00105
15.2 0.00162
15.25 0.00213
15.3 0.0025
15.35 0.00173
15.4 0.00035
15.45 -0.00022
15.5 -0.00101
15.55 -0.00189
15.6 -0.00275
15.65 -0.00348
15.7 -0.00412
15.75 -0.00351
15.8 -0.00287
15.85 -0.00278
15.9 -0.00291
15.95 -0.00195
16 -0.00119
16.05 -0.00131
16.1 -0.0009
16.15 -0.00114
16.2 -0.00043
16.25 0.00065
16.3 0.00099
16.35 0.00037
16.4 0.00045
16.45 0.00081
16.5 0.00024
16.55 -0.00041
16.6 -0.00024
16.65 -0.00038
16.7 -0.00057
16.75 -0.00012
16.8 -0.00022
16.85 -0.00028
16.9 0.00007
16.95 0.00031
17 0.00079
17.05 0.00151
17.1 0.00146
17.15 0.00062
17.2 -0.00071
17.25 -0.00077
17.3 -0.00104
17.35 -0.00051
17.4 -0.00052
17.45 -0.00045
17.5 -0.0003
17.55 -0.00057
17.6 -0.00009
17.65 -0.00029
17.7 -0.00053
17.75 -0.00059
17.8 -0.00046
17.85 0.00047
17.9 0.00153
17.95 0.00186
18 0.00213
18.05 0.00294
18.1 0.00296
18.15 0.00226
18.2 0.00148
18.25 0.00077
18.3 -0.00008
18.35 -0.00018
18.4 -0.00102
18.45 -0.00133
18.5 -0.00158
18.55 -0.0009
18.6 -0.00021
18.65 0.0006
18.7 0.00107
18.75 0.00179
18.8 0.00253
18.85 0.0021
18.9 0.00107
18.95 0.00055
19 -0.00035
19.05 -0.00115
19.1 -0.00086
19.15 0.00007
19.2 0.00105
19.25 0.00082
19.3 0.0011
19.35 0.00052
19.4 0.00071
19.45 0.00095
19.5 0.00145
19.55 0.00175
19.6 0.00236
19.65 0.00328
19.7 0.00325
19.75 0.00359
19.8 0.00348
19.85 0.00357
19.9 0.00325
19.95 0.00249
20 0.00202
20.05 0.0014
20.1 0.00165
20.15 0.00141
20.2 0.00054
20.25 0.00006
20.3 -0.00094
20.35 -0.00225
20.4 -0.00297
20.45 -0.00245
20.5 -0.00224
20.55 -0.00219
20.6 -0.00269
20.65 -0.0034
20.7 -0.0042
20.75 -0.00446
20.8 -0.00441
20.85 -0.00391
20.9 -0.00396
20.95 -0.00363
21 -0.00293
21.05 -0.00244
21.1 -0.00269
21.15 -0.00344
21.2 -0.0035
21.25 -0.00293
21.3 -0.00174
21.35 -0.00035
21.4 -0.00022
21.45 0.00068
21.5 0.00203
21.55 0.00222
21.6 0.00172
21.65 0.00099
21.7 0.00055
21.75 0.00002
21.8 0.00013
21.85 -0.00018
21.9 -0.00056
21.95 -0.0003
22 -0.00091
22.05 -0.00176
22.1 -0.00288
22.15 -0.00385
22.2 -0.0043
22.25 -0.00382
22.3 -0.00268
22.35 -0.001
22.4 -0.00029
22.45 0.00091
22.5 0.00114
22.55 0.0015
22.6 0.00152
22.65 0.00169
22.7 0.00097
22.75 0.00129
22.8 0.00135
22.85 0.00156
22.9 0.00114
22.95 0.00061
23 0.00063
23.05 0.00083
23.1 0.00046
23.15 -0.00013
23.2 -0.0011
23.25 -0.00154
23.3 -0.00146
23.35 -0.00059
23.4 -0.00031
23.45 0.00017
23.5 0.00061
23.55 0.00118
23.6 0.00144
23.65 0.00085
23.7 0.0003
23.75 0.00034
23.8 0.00034
23.85 0.0009
23.9 0.00066
23.95 -0.00033
24 -0.00039
24.05 -0.00065
24.1 -0.00002
24.15 0.0004
24.2 -0.00016
24.25 -0.00044
24.3 -0.00048
24.35 -0.00094
24.4 -0.00035
24.45 0.00085
24.5 0.00084
24.55 0.00065
24.6 0.00018
24.65 0.00018
24.7 -0.00003
24.75 0.00048
24.8 0.00161
24.85 0.00266
24.9 0.00374
24.95 0.00481
25 0.00448
25.05 0.00357
25.1 0.00229
25.15 0.00179
25.2 0.00209
25.25 0.00272
25.3 0.0021
25.35 0.00222
25.4 0.00193
25.45 0.00106
25.5 -0.00009
25.55 -0.00089
25.6 -0.00072
25.65 -0.00107
25.7 -0.00148
25.75 -0.00229
25.8 -0.00241
25.85 -0.00305
25.9 -0.0037
25.95 -0.00404
26 -0.00374
26.05 -0.00292
26.1 -0.00229
26.15 -0.00223
26.2 -0.00177
26.25 -0.0007
26.3 0.00072
26.35 0.00124
26.4 0.00226
26.45 0.00344
26.5 0.00336
26.55 0.00374
26.6 0.0031
26.65 0.00224
26.7 0.00162
26.75 0.00091
26.8 0.00048
26.85 -0.00029
26.9 -0.00024
26.95 0.0003
27 0.001
27.05 0.00147
27.1 0.00195
27.15 0.00225
27.2 0.00281
27.25 0.0027
27.3 0.00227
27.35 0.00247
27.4 0.00296
27.45 0.00335
27.5 0.00379
27.55 0.00326
27.6 0.00281
27.65 0.00227
27.7 0.00143
27.75 -0.00002
27.8 -0.00135
27.85 -0.00193
27.9 -0.00211
27.95 -0.00226
28 -0.00296
28.05 -0.00245
28.1 -0.00135
28.15 0.00015
28.2 0.00037
28.25 0.00073
28.3 0.00004
28.35 -0.00012
28.4 0.00001
28.45 0.00051
28.5 0.00012
28.55 0.00038
28.6 0.00092
28.65 0.00071
28.7 0.00098
28.75 0.00078
28.8 0.00132
28.85 0.00193
28.9 0.00128
28.95 0.00034
29 -0.00031
29.05 -0.00122
29.1 -0.0017
29.15 -0.00153
29.2 -0.00073
29.25 0.0001
29.3 0.00067
29.35 0.00083
29.4 0.00061
29.45 0.00118
29.5 0.00118
29.55 0.00171
29.6 0.00239
29.65 0.00196
29.7 0.00109
29.75 0.00052
29.8 -0.00052
29.85 -0.00039
29.9 -0.00068
29.95 -0.00059
30 -0.00074
30.05 -0.00068
30.1 -0.00142
30.15 -0.00204
30.2 -0.00158
30.25 -0.00099
30.3 -0.00004
30.35 0.00003
30.4 0.0003
30.45 -0.00027
30.5 -0.00011
30.55 -0.00051
30.6 -0.00012
30.65 -0.00015
30.7 -0.00031
30.75 -0.00062
30.8 -0.00003
30.85 -0.00051
30.9 -0.00097
30.95 -0.00069
31 -0.00039
31.05 -0.00104
31.1 -0.00205
31.15 -0.00299
31.2 -0.00349
31.25 -0.00354
31.3 -0.0034
31.35 -0.00299
31.4 -0.00192
31.45 -0.00074
31.5 0.00015
31.55 0.00002
31.6 -0.00027
31.65 0.00024
31.7 0.00129
31.75 0.00154
31.8 0.00147
31.85 0.00089
31.9 -0.00018
31.95 -0.00047
32 -0.00137
32.05 -0.00246
32.1 -0.00374
32.15 -0.0043
32.2 -0.0047
32.25 -0.00479
32.3 -0.00469
32.35 -0.00496
32.4 -0.00448
32.45 -0.00395
32.5 -0.00394
32.55 -0.00432
32.6 -0.00443
32.65 -0.00455
32.7 -0.00362
32.75 -0.00275
32.8 -0.00157
32.85 -0.0006
32.9 -0.00031
32.95 -0.00062
33 -0.00131
33.05 -0.00116
33.1 -0.00037
33.15 0.00084
33.2 0.00222
33.25 0.00244
33.3 0.00239
33.35 0.0017
33.4 0.00067
33.45 0.00075
33.5 0.00068
33.55 -0.00006
33.6 0.00012
33.65 0.00077
33.7 0.00156
33.75 0.00241
33.8 0.00289
33.85 0.00265
33.9 0.00295
33.95 0.00342
34 0.0032
34.05 0.00265
34.1 0.0014
34.15 -0.00027
34.2 -0.0012
34.25 -0.00167
34.3 -0.00126
34.35 -0.00081
34.4 -0.00012
34.45 -0.00034
34.5 -0.00037
34.55 -0.00049
34.6 -0.00016
34.65 0.00015
34.7 0.00051
34.75 0.00079
34.8 0.00147
34.85 0.00145
34.9 0.00121
34.95 0.00045
35 0.00071
35.05 0.00014
35.1 -0.00055
35.15 -0.00018
35.2 -0.00024
35.25 0.00055
35.3 0.0018
35.35 0.00217
35.4 0.00206
35.45 0.0024
35.5 0.00275
35.55 0.00209
35.6 0.00101
35.65 -0.00036
35.7 -0.00059
35.75 -0.00074
35.8 -0.00125
35.85 -0.0022
35.9 -0.00251
35.95 -0.0018
36 -0.00164
36.05 -0.00113
36.1 -0.00021
36.15 -0.00043
36.2 -0.00036
36.25 -0.0003
36.3 0.00034
36.35 0.00016
36.4 0.00006
36.45 -0.00064
36.5 -0.00156
36.55 -0.00148
36.6 -0.0009
36.65 -0.00042
36.7 0.00046
36.75 0.00119
36.8 0.0018
36.85 0.00139
36.9 0.00156
36.95 0.00187
37 0.0015
37.05 0.00075
37.1 -0.00044
37.15 -0.00141
37.2 -0.00259
37.25 -0.00326
37.3 -0.0027
37.35 -0.00293
37.4 -0.00272
37.45 -0.00193
37.5 -0.00164
37.55 -0.00193
37.6 -0.00273
37.65 -0.00251
37.7 -0.00164
37.75 -0.00041
37.8 -0.00022
37.85 -0.00004
37.9 -0.00044
37.95 -0.00096
38 -0.00163
38.05 -0.00229
38.1 -0.0028
38.15 -0.00291
38.2 -0.00265
38.25 -0.00261
38.3 -0.00205
38.35 -0.00159
38.4 -0.00105
38.45 -0.00062
38.5 0.00021
38.55 0.00116
38.6 0.00247
38.65 0.00332
38.7 0.00423
38.75 0.00432
38.8 0.00485
38.85 0.00421
38.9 0.00405
38.95 0.00381
39 0.00292
39.05 0.00233
39.1 0.00154
39.15 0.00155
39.2 0.00181
39.25 0.00219
39.3 0.00254
39.35 0.00254
39.4 0.00279
39.45 0.00342
39.5 0.00309
39.55 0.00239
39.6 0.00147
39.65 0
39.7 -0.00119
39.75 -0.00186
39.8 -0.00284
39.85 -0.00268
39.9 -0.00273
39.95 -0.00289
40 -0.00359
40.05 -0.00399
40.1 -0.00403
40.15 -0.00307
40.2 -0.00236
40.25 -0.00212
40.3 -0.00231
40.35 -0.00201
40.4 -0.00135
40.45 -0.0001
40.5 0.00136
40.55 0.00145
40.6 0.00219
40.65 0.00282
40.7 0.00291
40.75 0.00242
40.8 0.00182
40.85 0.00126
40.9 0.0003
40.95 -0.00044
41 -0.00024
41.05 0.00005
41.1 0.00011
41.15 -0.00028
41.2 -0.00047
41.25 0.00009
41.3 0.0012
41.35 0.00159
41.4 0.00129
41.45 0.00107
41.5 0.00074
41.55 0.00068
41.6 0.00044
41.65 0.0006
41.7 0.00038
41.75 0.00063
41.8 0.00082
41.85 0.00097
41.9 0.0003
41.95 -0.00092
42 -0.00148
42.05 -0.00091
42.1 -0.00023
42.15 0.00077
42.2 0.00095
42.25 0.0002
42.3 -0.00051
42.35 -0.00106
42.4 -0.00146
42.45 -0.0009
42.5 -0.00082
42.55 -0.0001
42.6 0.00098
42.65 0.001
42.7 0.00138
42.75 0.00229
42.8 0.0022
42.85 0.00215
42.9 0.00132
42.95 0.00011
43 -0.00116
43.05 -0.00226
43.1 -0.00214
43.15 -0.00189
43.2 -0.00101
43.25 -0.00122
43.3 -0.00171
43.35 -0.00134
43.4 -0.00074
43.45 0.00045
43.5 0.00194
43.55 0.00315
43.6 0.00437
43.65 0.00447
43.7 0.00331
43.75 0.00192
43.8 0.00079
43.85 -0.00082
43.9 -0.00168
43.95 -0.00147
44 -0.00051
44.05 -0.0002
44.1 0.00043
44.15 0.00044
44.2 0.00014
44.25 0.00042
44.3 -0
44.35 0.00035
44.4 0.00052
44.45 0.00045
44.5 0.00108
44.55 0.00092
44.6 0.00033
44.65 -0.00045
44.7 -0.00109
44.75 -0.00071
44.8 -0.00021
44.85 -0.00047
44.9 -0.00095
44.95 -0.00116
45 -0.00092
45.05 -0.0015
45.1 -0.00208
45.15 -0.00197
45.2 -0.00246
45.25 -0.00333
45.3 -0.00388
45.35 -0.00337
45.4 -0.00358
45.45 -0.00276
45.5 -0.00165
45.55 -0.00164
45.6 -0.00133
45.65 -0.00032
45.7 0.00019
45.75 -0.00005
45.8 -0.0008
45.85 -0.00039
45.9 0.00037
45.95 0.00154
46 0.00289
46.05 0.00401
46.1 0.00391
46.15 0.0031
46.2 0.00265
46.25 0.00212
46.3 0.00083
46.35 0.00007
46.4 -0.00097
46.45 -0.00228
46.5 -0.0022
46.55 -0.00195
46.6 -0.00236
46.65 -0.003
46.7 -0.00263
46.75 -0.0023
46.8 -0.00244
46.85 -0.00309
46.9 -0.00406
46.95 -0.00412
47 -0.00453
47.05 -0.00429
47.1 -0.00363
47.15 -0.00208
47.2 -0.00067
47.25 -0.00045
47.3 -0.00078
47.35 -0.00054
47.4 -0.00023
47.45 0.00022
47.5 0.00075
47.55 0.0005
47.6 -0.00051
47.65 -0.00067
47.7 -0.00032
47.75 -0.00027
47.8 0.00051
47.85 0.00151
47.9 0.00214
47.95 0.00249
48 0.00179
48.05 0.00203
48.1 0.0022
48.15 0.00161
48.2 0.00148
48.25 0.00065
48.3 0.0004
48.35 0.00015
48.4 -0.00073
48.45 -0.00066
48.5 -0.00137
48.55 -0.00181
48.6 -0.0025
48.65 -0.0025
48.7 -0.00291
48.75 -0.00306
48.8 -0.00249
48.85 -0.00241
48.9 -0.00165
48.95 -0.00159
49 -0.00206
49.05 -0.00234
49.1 -0.0019
49.15 -0.00121
49.2 -0.00078
49.25 -0.00067
49.3 -0.00055
49.35 -0.00013
49.4 0.00085
49.45 0.00205
49.5 0.00217
49.55 0.00229
49.6 0.00181
49.65 0.00139
49.7 0.00175
49.75 0.00172
49.8 0.00109
49.85 0.00003
49.9 -0.00118
49.95 -0.00159
50 -0.00194
50.05 -0.00148
50.1 -0.00024
50.15 0.00084
50.2 0.00123
50.25 0.00174
50.3 0.00254
50.35 0.00368
50.4 0.00477
50.45 0.00507
50.5 0.00472
50.55 0.00342
50.6 0.00192
50.65 0.00056
50.7 -0.00113
50.75 -0.00234
50.8 -0.00372
50.85 -0.00419
50.9 -0.00451
50.95 -0.00363
51 -0.00219
51.05 -0.00047
51.1 0.00098
51.15 0.00173
51.2 0.00265
51.25 0.00303
51.3 0.00249
51.35 0.00226
51.4 0.00144
51.45 0.00017
51.5 -0.00094
51.55 -0.00111
51.6 -0.00061
51.65 -0.00051
51.7 -0.00077
51.75 -0.00088
51.8 -0.00128
51.85 -0.00118
51.9 -0.0015
51.95 -0.00205
52 -0.00273
52.05 -0.00394
52.1 -0.00495
52.15 -0.0071
52.2 -0.00921
52.25 -0.01109
52.3 -0.01278
52.35 -0.015
52.4 -0.01784
52.45 -0.02237
52.5 -0.02739
52.55 -0.03304
52.6 -0.04026
52.65 -0.04744
52.7 -0.05558
52.75 -0.06487
52.8 -0.0747
52.85 -0.08551
52.9 -0.09699
52.95 -0.11039
53 -0.12543
53.05 -0.14235
53.1 -0.16067
53.15 -0.17935
53.2 -0.19957
53.25 -0.2212
53.3 -0.24405
53.35 -0.26711
53.4 -0.29018
53.45 -0.31315
53.5 -0.33582
53.55 -0.35899
53.6 -0.38212
53.65 -0.40428
53.7 -0.42601
53.75 -0.4461
53.8 -0.46542
53.85 -0.48286
53.9 -0.49853
53.95 -0.51207
54 -0.52151
54.05 -0.52836
54.1 -0.53083
54.15 -0.52879
54.2 -0.52371
54.25 -0.51394
54.3 -0.50127
54.35 -0.48543
54.4 -0.46546
54.45 -0.44182
54.5 -0.41488
54.55 -0.38463
54.6 -0.35155
54.65 -0.3162
54.7 -0.2792
54.75 -0.24202
54.8 -0.2043
54.85 -0.16591
54.9 -0.12774
54.95 -0.09031
55 -0.05462
55.05 -0.02044
55.1 0.01366
55.15 0.04674
55.2 0.07855
55.25 0.10778
55.3 0.1349
55.35 0.15974
55.4 0.18289
55.45 0.20535
55.5 0.22605
55.55 0.24475
55.6 0.2621
55.65 0.27846
55.7 0.2941
55.75 0.30812
55.8 0.32069
55.85 0.33173
55.9 0.34138
55.95 0.34974
56 0.35799
56.05 0.36548
56.1 0.37224
56.15 0.37798
56.2 0.38355
56.25 0.3888
56.3 0.3937
56.35 0.39768
56.4 0.401
56.45 0.40433
56.5 0.40624
56.55 0.40832
56.6 0.40906
56.65 0.40928
56.7 0.40983
56.75 0.40872
56.8 0.40629
56.85 0.40347
56.9 0.39956
56.95 0.39599
57 0.39217
57.05 0.38775
57.1 0.38278
57.15 0.37647
57.2 0.36974
57.25 0.36217
57.3 0.35409
57.35 0.34544
57.4 0.33759
57.45 0.33034
57.5 0.32248
57.55 0.31473
57.6 0.30678
57.65 0.29748
57.7 0.28843
57.75 0.27843
57.8 0.26777
57.85 0.25758
57.9 0.24759
57.95 0.23715
58 0.22738
58.05 0.21821
58.1 0.2099
58.15 0.20053
58.2 0.19123
58.25 0.18218
58.3 0.17357
58.35 0.16548
58.4 0.15634
58.45 0.14768
58.5 0.13959
58.55 0.13096
58.6 0.12205
58.65 0.11323
58.7 0.10428
58.75 0.09566
58.8 0.08844
58.85 0.08169
58.9 0.07582
58.95 0.06931
59 0.06366
59.05 0.05772
59.1 0.05122
59.15 0.04578
59.2 0.03973
59.25 0.03331
59.3 0.02783
59.35 0.02204
59.4 0.01734
59.45 0.01285
59.5 0.00902
59.55 0.00556
59.6 0.00189
59.65 -0.00146
59.7 -0.006
59.75 -0.01031
59.8 -0.01383
59.85 -0.01797
59.9 -0.02157
59.95 -0.02539
60 -0.02892
60.05 -0.03238
60.1 -0.03485
60.15 -0.03674
60.2 -0.03905
60.25 -0.04156
60.3 -0.04467
60.35 -0.04788
60.4 -0.05123
60.45 -0.05297
60.5 -0.05513
60.55 -0.05642
60.6 -0.05787
60.65 -0.05972
60.7 -0.06041
60.75 -0.06178
60.8 -0.06323
60.85 -0.0647
60.9 -0.06551
60.95 -0.06566
61 -0.06572
61.05 -0.06604
61.1 -0.06566
61.15 -0.06477
61.2 -0.06472
61.25 -0.06547
61.3 -0.06657
61.35 -0.06632
61.4 -0.06549
61.45 -0.06533
61.5 -0.06482
61.55 -0.06513
61.6 -0.06546
61.65 -0.06472
61.7 -0.06376
61.75 -0.0635
61.8 -0.06329
61.85 -0.06263
61.9 -0.06158
61.95 -0.06033
62 -0.05932
62.05 -0.05859
62.1 -0.05778
62.15 -0.0577
62.2 -0.05819
62.25 -0.05895
62.3 -0.05963
62.35 -0.0589
62.4 -0.05735
62.45 -0.05591
62.5 -0.05458
62.55 -0.05334
62.6 -0.05202
62.65 -0.05081
62.7 -0.0497
62.75 -0.04946
62.8 -0.04999
62.85 -0.04953
62.9 -0.04952
62.95 -0.04984
63 -0.04987
63.05 -0.04916
63.1 -0.04782
63.15 -0.04623
63.2 -0.0457
63.25 -0.04451
63.3 -0.04436
63.35 -0.04419
63.4 -0.04409
63.45 -0.0443
63.5 -0.04352
63.55 -0.04298
63.6 -0.04293
63.65 -0.04285
63.7 -0.04296
63.75 -0.04222
63.8 -0.0417
63.85 -0.04031
63.9 -0.03934
63.95 -0.03795
64 -0.03748
64.05 -0.0363
64.1 -0.03557
64.15 -0.03404
64.2 -0.0327
64.25 -0.03208
64.3 -0.0319
64.35 -0.03155
64.4 -0.0318
64.45 -0.03193
64.5 -0.03236
64.55 -0.03169
64.6 -0.03014
64.65 -0.02845
64.7 -0.02738
64.75 -0.02707
64.8 -0.0268
64.85 -0.02613
64.9 -0.02557
64.95 -0.02452
65 -0.02463
65.05 -0.024
65.1 -0.02307
65.15 -0.02181
65.2 -0.02126
65.25 -0.02142
65.3 -0.0223
65.35 -0.0231
65.4 -0.02316
65.45 -0.02311
65.5 -0.02243
65.55 -0.02145
65.6 -0.02046
65.65 -0.01985
65.7 -0.01967
65.75 -0.01935
65.8 -0.01899
65.85 -0.01855
65.9 -0.01792
65.95 -0.01688
66 -0.01694
66.05 -0.01718
66.1 -0.01761
66.15 -0.01861
66.2 -0.01938
66.25 -0.02024
66.3 -0.02006
66.35 -0.01941
66.4 -0.01818
66.45 -0.01641
66.5 -0.01468
66.55 -0.01414
66.6 -0.01354
66.65 -0.01362
66.7 -0.01312
66.75 -0.01351
66.8 -0.01342
66.85 -0.01301
66.9 -0.01241
66.95 -0.01267
67 -0.01317
67.05 -0.01271
67.1 -0.01231
67.15 -0.01285
67.2 -0.0134
67.25 -0.01429
67.3 -0.01413
67.35 -0.01451
67.4 -0.01388
67.45 -0.01251
67.5 -0.01133
67.55 -0.00982
67.6 -0.00879
67.65 -0.00794
67.7 -0.00813
67.75 -0.0078
67.8 -0.00739
67.85 -0.00772
67.9 -0.00879
67.95 -0.00878
68 -0.00888
68.05 -0.00966
68.1 -0.00952
68.15 -0.00985
68.2 -0.01037
68.25 -0.01103
68.3 -0.01105
68.35 -0.0107
68.4 -0.01094
68.45 -0.01062
68.5 -0.00947
68.55 -0.00929
68.6 -0.00855
68.65 -0.00806
68.7 -0.00807
68.75 -0.00868
68.8 -0.00908
68.85 -0.00848
68.9 -0.00854
68.95 -0.00885
69 -0.00888
69.05 -0.00915
69.1 -0.00848
69.15 -0.00811
69.2 -0.00711
69.25 -0.00565
69.3 -0.00476
69.35 -0.00374
69.4 -0.00271
69.45 -0.00197
69.5 -0.00219
69.55 -0.00199
69.6 -0.00284
69.65 -0.00399
69.7 -0.00565
69.75 -0.00647
69.8 -0.00691
69.85 -0.00655
69.9 -0.00641
69.95 -0.00664
70 -0.00699
70.05 -0.00706
70.1 -0.00622
70.15 -0.00498
70.2 -0.00405
70.25 -0.00396
70.3 -0.00398
70.35 -0.00416
70.4 -0.00423
70.45 -0.00373
70.5 -0.00304
70.55 -0.00292
70.6 -0.00244
70.65 -0.00249
70.7 -0.00299
70.75 -0.0032
70.8 -0.00334
70.85 -0.0041
70.9 -0.00535
70.95 -0.00539
71 -0.00609
71.05 -0.00636
71.1 -0.00694
71.15 -0.00685
71.2 -0.00633
71.25 -0.0052
71.3 -0.0038
71.35 -0.00307
71.4 -0.00213
71.45 -0.00226
71.5 -0.00239
71.55 -0.00248
71.6 -0.00233
71.65 -0.00278
71.7 -0.0039
71.75 -0.00387
71.8 -0.00365
71.85 -0.00291
71.9 -0.002
71.95 -0.0023
72 -0.00247
72.05 -0.00196
72.1 -0.00183
72.15 -0.00201
72.2 -0.00268
72.25 -0.00275
72.3 -0.00236
72.35 -0.00161
72.4 -0.00193
72.45 -0.00261
72.5 -0.00258
72.55 -0.00301
72.6 -0.0027
72.65 -0.00321
72.7 -0.00371
72.75 -0.00447
72.8 -0.00439
72.85 -0.00441
72.9 -0.00449
72.95 -0.00398
73 -0.00308
73.05 -0.0026
73.1 -0.00279
73.15 -0.0037
73.2 -0.00421
73.25 -0.00428
73.3 -0.00362
73.35 -0.00287
73.4 -0.00235
73.45 -0.00189
73.5 -0.00196
73.55 -0.00223
73.6 -0.00247
73.65 -0.00216
73.7 -0.00213
73.75 -0.0022
73.8 -0.00286
73.85 -0.00285
73.9 -0.0029
73.95 -0.00217
74 -0.00136
74.05 -0.0015
74.1 -0.0012
74.15 -0.00175
74.2 -0.00138
74.25 -0.00158
74.3 -0.00126
74.35 -0.00029
74.4 0.00045
74.45 0.00123
74.5 0.00192
74.55 0.00181
74.6 0.00177
74.65 0.0012
74.7 0.00008
74.75 -0.00149
74.8 -0.00273
74.85 -0.00349
74.9 -0.00392
74.95 -0.00349
75 -0.00374
75.05 -0.00437
75.1 -0.00454
75.15 -0.00447
75.2 -0.00364
75.25 -0.0029
75.3 -0.00248
75.35 -0.00201
75.4 -0.00222
75.45 -0.00155
75.5 -0.00143
75.55 -0.00205
75.6 -0.0025
75.65 -0.00251
75.7 -0.00183
75.75 -0.00091
75.8 0.00037
75.85 0.00119
75.9 0.00151
75.95 0.00151
76 0.00202
76.05 0.00282
76.1 0.00218
76.15 0.0019
76.2 0.00143
76.25 0.00133
76.3 0.00062
76.35 -0.00048
76.4 -0.00174
76.45 -0.00332
76.5 -0.00465
76.55 -0.00537
76.6 -0.00464
76.65 -0.00391
76.7 -0.00376
76.75 -0.00387
76.8 -0.00394
76.85 -0.0031
76.9 -0.00299
76.95 -0.00209
77 -0.00101
77.05 -0.00049
77.1 -0.00078
77.15 -0.00091
77.2 -0.00075
77.25 0.00002
77.3 -0.00005
77.35 -0.0009
77.4 -0.00082
77.45 -0.00019
77.5 0.00053
77.55 0.00062
77.6 0.00114
77.65 0.00085
77.7 0.00123
77.75 0.00203
77.8 0.00259
77.85 0.00249
77.9 0.0019
77.95 0.00063
78 0.00049
78.05 -0.00011
78.1 -0.00073
78.15 -0.00127
78.2 -0.00152
78.25 -0.00215
78.3 -0.00225
78.35 -0.00263
78.4 -0.00247
78.45 -0.00235
78.5 -0.00153
78.55 -0.00044
78.6 0.00055
78.65 0.00172
78.7 0.00207
78.75 0.0019
78.8 0.00165
78.85 0.00095
78.9 0.00048
78.95 0.00052
79 0.0007
79.05 0.00123
79.1 0.00142
79.15 0.00113
79.2 0.00101
79.25 0.00077
79.3 0.00035
79.35 -0.00035
79.4 -0.00023
79.45 -0.00087
79.5 -0.0013
79.55 -0.00186
79.6 -0.0028
79.65 -0.00298
79.7 -0.0031
79.75 -0.00346
79.8 -0.00282
79.85 -0.00206
79.9 -0.00199
79.95 -0.00206
80 -0.00224
80.05 -0.00281
80.1 -0.00323
80.15 -0.00328
80.2 -0.00347
80.25 -0.00276
80.3 -0.00205
80.35 -0.00081
80.4 -0.00054
80.45 0.00043
80.5 0.00182
80.55 0.00278
80.6 0.00373
80.65 0.00395
80.7 0.00443
80.75 0.00405
80.8 0.00315
80.85 0.00206
80.9 0.00049
80.95 -0.00011
81 -0.00091
81.05 -0.00209
81.1 -0.00263
81.15 -0.00361
81.2 -0.00322
81.25 -0.00295
81.3 -0.00186
81.35 -0.00038
81.4 0.00055
81.45 0.00144
81.5 0.00262
81.55 0.00246
81.6 0.00182
81.65 0.00095
81.7 0.00098
81.75 0.00125
81.8 0.00098
81.85 0.0002
81.9 -0.00011
81.95 -0.00004
82 -0.00025
82.05 -0.00102
82.1 -0.00086
82.15 -0.00093
82.2 -0.00049
82.25 -0.00099
82.3 -0.0015
82.35 -0.00165
82.4 -0.00142
82.45 -0.00101
82.5 0.00004
82.55 0.0003
82.6 0.00051
82.65 0.00073
82.7 0.00075
82.75 0.00005
82.8 -0.00037
82.85 -0.00101
82.9 -0.00091
82.95 -0.00151
83 -0.00129
83.05 -0.00187
83.1 -0.00158
83.15 -0.0007
83.2 -0.00027
83.25 0.00025
83.3 0.00131
83.35 0.00252
83.4 0.00371
83.45 0.00452
83.5 0.00408
83.55 0.00381
83.6 0.003
83.65 0.00215
83.7 0.00217
83.75 0.00274
83.8 0.00303
83.85 0.00327
83.9 0.00251
83.95 0.00243
84 0.00149
84.05 0.00121
84.1 0.00062
84.15 -0.00031
84.2 -0.00177
84.25 -0.00216
84.3 -0.00187
84.35 -0.00145
84.4 -0.00099
84.45 -0.00022
84.5 0.00018
84.55 0.00088
84.6 0.00043
84.65 0.00022
84.7 0.00013
84.75 0.0001
84.8 -0.00074
84.85 -0.00145
84.9 -0.00182
84.95 -0.00226
85 -0.00189
85.05 -0.0016
85.1 -0.00214
85.15 -0.00304
85.2 -0.00399
85.25 -0.00392
85.3 -0.00414
85.35 -0.00421
85.4 -0.00436
85.45 -0.00421
85.5 -0.00371
85.55 -0.00374
85.6 -0.00308
85.65 -0.00259
85.7 -0.00213
85.75 -0.00139
85.8 -0.00036
85.85 0.00069
85.9 0.00048
85.95 0.00098
86 0.00162
86.05 0.00135
86.1 0.00106
86.15 0.00138
86.2 0.00148
86.25 0.00174
86.3 0.0019
86.35 0.00193
86.4 0.00184
86.45 0.00102
86.5 -0.00022
86.55 -0.00068
86.6 -0.00058
86.65 -0.00058
86.7 -0.00005
86.75 -0.00032
86.8 -0.00021
86.85 0.00003
86.9 0.00081
86.95 0.0007
87 0.00091
87.05 0.00155
87.1 0.00208
87.15 0.00168
87.2 0.00102
87.25 0.00095
87.3 0.00098
87.35 0.00033
87.4 -0.00008
87.45 0.00029
87.5 -0.00037
87.55 -0.00005
87.6 -0.0005
87.65 -0.00139
87.7 -0.00178
87.75 -0.00262
87.8 -0.0023
87.85 -0.00236
87.9 -0.00238
87.95 -0.00178
88 -0.00181
88.05 -0.00162
88.1 -0.00201
88.15 -0.0014
88.2 -0.00124
88.25 -0.0008
88.3 -0.00055
88.35 -0.00107
88.4 -0.00105
88.45 -0.00026
88.5 -0.0002
88.55 0.00065
88.6 0.00114
88.65 0.0017
88.7 0.00268
88.75 0.00259
88.8 0.00294
88.85 0.0035
88.9 0.00286
88.95 0.00215
89 0.00125
89.05 0.00086
89.1 0.00092
89.15 0.00012
89.2 -0.00122
89.25 -0.00209
89.3 -0.00308
89.35 -0.004
89.4 -0.00349
89.45 -0.00228
89.5 -0.00086
89.55 0.0008
89.6 0.00252
89.65 0.00318
89.7 0.00386
89.75 0.00336
89.8 0.00316
89.85 0.00246
89.9 0.00253
89.95 0.00222
90 0.00132
90.05 0.00139
90.1 0.00054
90.15 -0.0002
90.2 -0.00037
90.25 -0.00084
90.3 -0.00055
90.35 -0.00061
90.4 -0.00091
90.45 -0.00078
90.5 -0.00105
90.55 -0.0004
90.6 0.0004
90.65 0.00049
90.7 -0.00035
90.75 -0.00116
90.8 -0.00086
90.85 -0.00134
90.9 -0.0017
90.95 -0.00138
91 -0.00108
91.05 -0.00161
91.1 -0.00109
91.15 -0.0009
91.2 -0.00106
91.25 -0.00039
91.3 -0.00011
91.35 -0.00076
91.4 -0.00111
91.45 -0.00137
91.5 -0.00148
91.55 -0.00187
91.6 -0.00227
91.65 -0.00282
91.7 -0.00279
91.75 -0.00337
91.8 -0.00338
91.85 -0.00342
91.9 -0.00323
91.95 -0.00357
92 -0.00373
92.05 -0.00374
92.1 -0.00297
92.15 -0.00194
92.2 -0.00187
92.25 -0.00111
92.3 0.00019
92.35 0.00051
92.4 0.00133
92.45 0.00161
92.5 0.00134
92.55 0.00089
92.6 0.00049
92.65 0.00014
92.7 -0.00083
92.75 -0.00073
92.8 -0.0011
92.85 -0.00118
92.9 -0.00097
92.95 -0.00121
93 -0.00173
93.05 -0.00217
93.1 -0.00204
93.15 -0.00253
93.2 -0.00209
93.25 -0.00229
93.3 -0.00299
93.35 -0.00268
93.4 -0.00258
93.45 -0.00155
93.5 -0.00007
93.55 0.00107
93.6 0.00228
93.65 0.0027
93.7 0.00194
93.75 0.00114
93.8 0.00137
93.85 0.00166
93.9 0.00245
93.95 0.00222
94 0.00229
94.05 0.0026
94.1 0.00297
94.15 0.00237
94.2 0.00155
94.25 0.00135
94.3 0.00182
94.35 0.00218
94.4 0.00216
94.45 0.00173
94.5 0.00198
94.55 0.00154
94.6 0.00178
94.65 0.00224
94.7 0.00311
94.75 0.00312
94.8 0.0027
94.85 0.00163
94.9 0.00073
94.95 0.00012
95 -0.00096
95.05 -0.00078
95.1 -0.00066
95.15 -0.00008
95.2 0.00088
95.25 0.00215
95.3 0.00349
95.35 0.00327
95.4 0.00292
95.45 0.00322
95.5 0.0039
95.55 0.0047
95.6 0.0042
95.65 0.00281
95.7 0.00131
95.75 -0.00008
95.8 -0.00039
95.85 -0.00071
95.9 -0.00164
95.95 -0.00169
96 -0.00192
96.05 -0.00183
96.1 -0.0024
96.15 -0.00272
96.2 -0.00267
96.25 -0.00296
96.3 -0.00223
96.35 -0.00181
96.4 -0.00195
96.45 -0.00171
96.5 -0.00193
96.55 -0.00262
96.6 -0.00288
96.65 -0.00259
96.7 -0.0023
96.75 -0.00112
96.8 -0.00104
96.85 -0.0005
96.9 -0.0006
96.95 -0.00067
97 -0.00124
97.05 -0.00096
97.1 -0.00002
97.15 0.00105
97.2 0.00172
97.25 0.00139
97.3 0.00045
97.35 -0.00026
97.4 0.00003
97.45 -0.00064
97.5 -0.00037
97.55 -0.00101
97.6 -0.00171
97.65 -0.00182
97.7 -0.00155
97.75 -0.00166
97.8 -0.00121
97.85 -0.00139
97.9 -0.001
97.95 -0.00148
98 -0.00224
98.05 -0.00207
98.1 -0.00233
98.15 -0.00161
98.2 -0.00054
98.25 -0.0005
98.3 0.00004
98.35 0.00021
98.4 0.00077
98.45 0.00168
98.5 0.0017
98.55 0.00104
98.6 0.00107
98.65 0.00181
98.7 0.00166
98.75 0.00215
98.8 0.00188
98.85 0.00165
98.9 0.00198
98.95 0.00187
99 0.002
99.05 0.00164
99.1 0.0008
99.15 -0.00009
99.2 -0.00137
99.25 -0.00161
99.3 -0.00113
99.35 -0.00023
99.4 0.00065
99.45 0.00037
99.5 0.00063
99.55 0.00137
99.6 0.00109
99.65 -0.00001
99.7 -0.00057
99.75 -0.00017
99.8 0.00068
99.85 0.00139
99.9 0.00134
99.95 0.00108
