0 0
0.05 0.00027
0.1 0.00126
0.15 0.00224
0.2 0.00293
0.25 0.00331
0.3 0.00403
0.35 0.00426
0.4 0.00464
0.45 0.00462
0.5 0.00467
0.55 0.00449
0.6 0.00478
0.65 0.00564
0.7 0.00644
0.75 0.00725
0.8 0.00775
0.85 0.00844
0.9 0.00915
0.95 0.00938
1 0.00888
1.05 0.00801
1.1 0.00703
1.15 0.00652
1.2 0.00664
1.25 0.00638
1.3 0.00634
1.35 0.00655
1.4 0.00597
1.45 0.00522
1.5 0.00419
1.55 0.0031
1.6 0.00253
1.65 0.00199
1.7 0.00208
1.75 0.00249
1.8 0.00237
1.85 0.0024
1.9 0.00218
1.95 0.00183
2 0.00141
2.05 0.00088
2.1 0.00138
2.15 0.00216
2.2 0.00296
2.25 0.00337
2.3 0.00317
2.35 0.00266
2.4 0.00221
2.45 0.00203
2.5 0.00252
2.55 0.00305
2.6 0.00322
2.65 0.00373
2.7 0.00462
2.75 0.00477
2.8 0.00515
2.85 0.00502
2.9 0.00497
2.95 0.0044
3 0.00409
3.05 0.00431
3.1 0.00426
3.15 0.00398
3.2 0.00326
3.25 0.00226
3.3 0.0018
3.35 0.00171
3.4 0.00221
3.45 0.00246
3.5 0.00255
3.55 0.00255
3.6 0.00309
3.65 0.00299
3.7 0.00329
3.75 0.00357
3.8 0.00352
3.85 0.00383
3.9 0.00337
3.95 0.00349
4 0.00304
4.05 0.00309
4.1 0.00314
4.15 0.00361
4.2 0.00382
4.25 0.00423
4.3 0.00467
4.35 0.00451
4.4 0.00392
4.45 0.00321
4.5 0.00321
4.55 0.00298
4.6 0.00311
4.65 0.00258
4.7 0.00228
4.75 0.0024
4.8 0.00242
4.85 0.00253
4.9 0.00287
4.95 0.00245
5 0.00229
5.05 0.00189
5.1 0.00105
5.15 0.0001
5.2 -0.00097
5.25 -0.00158
5.3 -0.00205
5.35 -0.00189
5.4 -0.00169
5.45 -0.00175
5.5 -0.00174
5.55 -0.00099
5.6 -0.00088
5.65 -0.00102
5.7 -0.00142
5.75 -0.00175
5.8 -0.0012
5.85 -0.00097
5.9 -0.00115
5.95 -0.00053
6 0.00007
6.05 0.00053
6.1 0.00115
6.15 0.00132
6.2 0.00153
6.25 0.00218
6.3 0.00264
6.35 0.00328
6.4 0.00358
6.45 0.00346
6.5 0.00358
6.55 0.00319
6.6 0.0031
6.65 0.00311
6.7 0.0024
6.75 0.00186
6.8 0.00198
6.85 0.00195
6.9 0.00196
6.95 0.00174
7 0.00153
7.05 0.00139
7.1 0.00145
7.15 0.00148
7.2 0.00153
7.25 0.00186
7.3 0.00252
7.35 0.00238
7.4 0.00266
7.45 0.00323
7.5 0.00334
7.55 0.00318
7.6 0.00242
7.65 0.00191
7.7 0.00116
7.75 0.0004
7.8 0.00018
7.85 0.00008
7.9 -0.00015
7.95 -0.00028
8 -0.00084
8.05 -0.00054
8.1 0.00024
8.15 0.00078
8.2 0.00143
8.25 0.0012
8.3 0.00137
8.35 0.00113
8.4 0.00066
8.45 0.00084
8.5 0.00135
8.55 0.00149
8.6 0.00193
8.65 0.00224
8.7 0.00238
8.75 0.0026
8.8 0.00261
8.85 0.00271
8.9 0.00276
8.95 0.00307
9 0.00323
9.05 0.00288
9.1 0.00296
9.15 0.00229
9.2 0.00113
9.25 0.00045
9.3 -0.00008
9.35 -0.00043
9.4 -0.001
9.45 -0.00132
9.5 -0.00177
9.55 -0.00218
9.6 -0.00184
9.65 -0.00171
9.7 -0.00205
9.75 -0.0024
9.8 -0.00265
9.85 -0.00308
9.9 -0.00312
9.95 -0.00329
10 -0.00335
10.05 -0.00324
10.1 -0.00325
10.15 -0.00276
10.2 -0.00238
10.25 -0.0018
10.3 -0.00128
10.35 -0.00035
10.4 0.00033
10.45 0.00049
10.5 0.001
10.55 0.00151
10.6 0.00188
10.65 0.00167
10.7 0.00133
10.75 0.00115
10.8 0.00061
10.85 -0.00024
10.9 -0.00016
10.95 -0.0004
11 -0.00075
11.05 -0.00112
11.1 -0.00104
11.15 -0.00112
11.2 -0.00146
11.25 -0.00102
11.3 -0.00044
11.35 -0.00046
11.4 -0.00076
11.45 -0.00119
11.5 -0.00169
11.55 -0.00154
11.6 -0.00167
11.65 -0.00205
11.7 -0.00178
11.75 -0.00107
11.8 -0.00049
11.85 0.00032
11.9 0.00122
11.95 0.00208
12 0.00261
12.05 0.00301
12.1 0.0025
12.15 0.0021
12.2 0.00123
12.25 0.00048
12.3 0.00033
12.35 -0.00018
12.4 -0.00096
12.45 -0.00137
12.5 -0.00128
12.55 -0.00121
12.6 -0.00135
12.65 -0.00111
12.7 -0.00125
12.75 -0.001
12.8 -0.00035
12.85 -0.00001
12.9 0.00015
12.95 0.00038
13 0.00106
13.05 0.00097
13.1 0.00035
13.15 0.00023
13.2 -0.00015
13.25 0.00013
13.3 -0.00021
13.35 -0.00096
13.4 -0.0019
13.45 -0.00172
13.5 -0.00106
13.55 -0.00063
13.6 -0.00006
13.65 0.00066
13.7 0.00136
13.75 0.0018
13.8 0.00214
13.85 0.00239
13.9 0.00238
13.95 0.00162
14 0.0013
14.05 0.00123
14.1 0.00098
14.15 0.00116
14.2 0.00083
14.25 0.00102
14.3 0.00084
14.35 0.00091
14.4 0.00071
14.45 0.00005
14.5 -0.00043
14.55 -0.00054
14.6 -0.00073
14.65 -0.00056
14.7 -0.00098
14.75 -0.00152
14.8 -0.00167
14.85 -0.00196
14.9 -0.00245
14.95 -0.0029
15 -0.0024
15.05 -0.00194
15.1 -0.00185
15.15 -0.00185
15.2 -0.00134
15.25 -0.0005
15.3 0.00007
15.35 0.00104
15.4 0.0011
15.45 0.00114
15.5 0.0006
15.55 0.00021
15.6 0.00051
15.65 0.0009
15.7 0.00059
15.75 0.00097
15.8 0.00073
15.85 -0.00003
15.9 -0.0006
15.95 -0.00116
16 -0.00112
16.05 -0.00127
16.1 -0.00141
16.15 -0.00128
16.2 -0.00114
16.25 -0.00125
16.3 -0.00166
16.35 -0.00212
16.4 -0.00192
16.45 -0.00185
16.5 -0.00192
16.55 -0.00231
16.6 -0.00216
16.65 -0.002
16.7 -0.00213
16.75 -0.00179
16.8 -0.0011
16.85 -0.00051
16.9 -0.00016
16.95 -0.00035
17 -0.00086
17.05 -0.0016
17.1 -0.00132
17.15 -0.00141
17.2 -0.00103
17.25 -0.00064
17.3 0.00023
17.35 0.00112
17.4 0.00158
17.45 0.00208
17.5 0.00284
17.55 0.00282
17.6 0.00296
17.65 0.00251
17.7 0.00171
17.75 0.00107
17.8 0.00065
17.85 0.0008
17.9 0.0014
17.95 0.00194
18 0.00163
18.05 0.00183
18.1 0.00243
18.15 0.00283
18.2 0.00288
18.25 0.00306
18.3 0.00324
18.35 0.00314
18.4 0.00336
18.45 0.00347
18.5 0.00373
18.55 0.00394
18.6 0.00328
18.65 0.0026
18.7 0.00216
18.75 0.00154
18.8 0.00143
18.85 0.00108
18.9 0.00019
18.95 -0.00025
19 -0.00085
19.05 -0.00077
19.1 -0.00034
19.15 -0.00022
19.2 -0.00001
19.25 0.00058
19.3 0.00142
19.35 0.00179
19.4 0.00221
19.45 0.00192
19.5 0.00159
19.55 0.00154
19.6 0.00154
19.65 0.00108
19.7 0.00025
19.75 -0.00043
19.8 -0.0009
19.85 -0.00119
19.9 -0.00123
19.95 -0.00154
20 -0.00142
20.05 -0.00112
20.1 -0.00069
20.15 0.00011
20.2 0.00025
20.25 0.00001
20.3 -0.00057
20.35 -0.00129
20.4 -0.00219
20.45 -0.00282
20.5 -0.00241
20.55 -0.00225
20.6 -0.00203
20.65 -0.00137
20.7 -0.00143
20.75 -0.00153
20.8 -0.00156
20.85 -0.0013
20.9 -0.00043
20.95 0.00025
21 0.00114
21.05 0.00129
21.1 0.00089
21.15 0.00087
21.2 0.00051
21.25 0.00051
21.3 0.00012
21.35 0.00022
21.4 -0.00007
21.45 -0.00078
21.5 -0.00151
21.55 -0.00143
21.6 -0.00149
21.65 -0.0018
21.7 -0.00165
21.75 -0.00153
21.8 -0.00132
21.85 -0.00067
21.9 -0.00039
21.95 -0.00071
22 -0.00029
22.05 0.00014
22.1 -0.00001
22.15 0.00038
22.2 0.00099
22.25 0.00144
22.3 0.00175
22.35 0.00138
22.4 0.00096
22.45 0.00015
22.5 0.00016
22.55 0.00026
22.6 0.00063
22.65 0.00085
22.7 0.00113
22.75 0.00076
22.8 0.0009
22.85 0.00101
22.9 0.00047
22.95 0.00048
23 -0.00001
23.05 -0.00017
23.1 -0.00006
23.15 0.00008
23.2 0.00071
23.25 0.00122
23.3 0.00193
23.35 0.00274
23.4 0.0031
23.45 0.00355
23.5 0.00305
23.55 0.00214
23.6 0.00162
23.65 0.00054
23.7 -0.00009
23.75 -0.00058
23.8 -0.00113
23.85 -0.00091
23.9 -0.00121
23.95 -0.00134
24 -0.00169
24.05 -0.00158
24.1 -0.00107
24.15 -0.00088
24.2 -0.00026
24.25 0.00034
24.3 0.00124
24.35 0.00122
24.4 0.00155
24.45 0.00135
24.5 0.00141
24.55 0.00138
24.6 0.00065
24.65 0.00013
24.7 -0.00034
24.75 -0.00072
24.8 -0.0009
24.85 -0.00084
24.9 -0.00133
24.95 -0.00115
25 -0.00106
25.05 -0.00108
25.1 -0.00125
25.15 -0.00142
25.2 -0.00133
25.25 -0.00095
25.3 -0.00006
25.35 0.0005
25.4 0.00078
25.45 0.00075
25.5 0.00044
25.55 0.00044
25.6 -0.00007
25.65 0.00005
25.7 -0.00035
25.75 -0.00106
25.8 -0.00127
25.85 -0.00087
25.9 -0.00026
25.95 -0.0004
26 -0.00053
26.05 -0.00069
26.1 -0.0003
26.15 0.00033
26.2 0.00086
26.25 0.00062
26.3 -0.00011
26.35 -0.00109
26.4 -0.00153
26.45 -0.00113
26.5 -0.00135
26.55 -0.00186
26.6 -0.00227
26.65 -0.00233
26.7 -0.00248
26.75 -0.0029
26.8 -0.00245
26.85 -0.00145
26.9 -0.00121
26.95 -0.00045
27 0.00034
27.05 0.00055
27.1 0.00102
27.15 0.00165
27.2 0.00151
27.25 0.00087
27.3 0.00086
27.35 0.00067
27.4 0
27.45 0.00007
27.5 0.0001
27.55 0.00025
27.6 0.0008
27.65 0.0014
27.7 0.00182
27.75 0.00164
27.8 0.00187
27.85 0.00146
27.9 0.00062
27.95 -0.00029
28 -0.00032
28.05 -0.00037
28.1 0.00004
28.15 0.00057
28.2 0.00043
28.25 0.00047
28.3 -0.00001
28.35 0.00019
28.4 0.00004
28.45 0.00008
28.5 0.00038
28.55 0.00023
28.6 -0.00044
28.65 -0.00114
28.7 -0.00195
28.75 -0.00185
28.8 -0.00124
28.85 -0.00036
28.9 -0.00028
28.95 0.00029
29 0.00081
29.05 0.00092
29.1 0.00107
29.15 0.00109
29.2 0.00129
29.25 0.00148
29.3 0.00177
29.35 0.00196
29.4 0.0022
29.45 0.00204
29.5 0.00122
29.55 0.0009
29.6 0.00029
29.65 -0.00052
29.7 -0.00086
29.75 -0.00116
29.8 -0.00179
29.85 -0.00154
29.9 -0.00184
29.95 -0.00134
30 -0.00137
30.05 -0.00148
30.1 -0.00142
30.15 -0.00088
30.2 -0.00048
30.25 -0.00005
30.3 0.00015
30.35 0.0001
30.4 0.00013
30.45 0.0002
30.5 0.00062
30.55 0.0011
30.6 0.00136
30.65 0.00194
30.7 0.00177
30.75 0.00127
30.8 0.00098
30.85 0.00061
30.9 0.00007
30.95 -0.00041
31 -0.00122
31.05 -0.00218
31.1 -0.00252
31.15 -0.00207
31.2 -0.00136
31.25 -0.00074
31.3 -0.00043
31.35 -0.00061
31.4 -0.00111
31.45 -0.00155
31.5 -0.00223
31.55 -0.00207
31.6 -0.00219
31.65 -0.00211
31.7 -0.00153
31.75 -0.00064
31.8 0.00042
31.85 0.00117
31.9 0.00176
31.95 0.0016
32 0.00088
32.05 0.00045
32.1 0.00057
32.15 0.00089
32.2 0.00042
32.25 -0.00027
32.3 -0.00077
32.35 -0.00099
32.4 -0.00086
32.45 -0.00082
32.5 -0.00039
32.55 -0.0003
32.6 0.00026
32.65 0.00109
32.7 0.00126
32.75 0.00119
32.8 0.00108
32.85 0.00086
32.9 0.00015
32.95 -0.00009
33 -0.00034
33.05 0.00003
33.1 0.00037
33.15 0.00092
33.2 0.00121
33.25 0.00157
33.3 0.00199
33.35 0.00232
33.4 0.0022
33.45 0.00241
33.5 0.00228
33.55 0.00211
33.6 0.00144
33.65 0.00111
33.7 0.00126
33.75 0.00112
33.8 0.00146
33.85 0.0014
33.9 0.00154
33.95 0.00101
34 -0.00002
34.05 -0.0003
34.1 -0.00041
34.15 -0.0003
34.2 -0.00081
34.25 -0.00093
34.3 -0.00124
34.35 -0.00114
34.4 -0.00046
34.45 0.00001
34.5 0.00058
34.55 0.00089
34.6 0.0007
34.65 0.0005
34.7 -0.00026
34.75 -0.00058
34.8 -0.00035
34.85 0.00017
34.9 0.00041
34.95 0.00089
35 0.00162
35.05 0.00215
35.1 0.00256
35.15 0.00274
35.2 0.00298
35.25 0.00245
35.3 0.00205
35.35 0.00189
35.4 0.00106
35.45 0.00074
35.5 0.00007
35.55 0.00015
35.6 0.00038
35.65 0.00027
35.7 0.00019
35.75 -0.00006
35.8 -0.00027
35.85 -0.0009
35.9 -0.00138
35.95 -0.00188
36 -0.00253
36.05 -0.00222
36.1 -0.00247
36.15 -0.00222
36.2 -0.00151
36.25 -0.00115
36.3 -0.00089
36.35 -0.00026
36.4 0.00054
36.45 0.00078
36.5 0.00125
36.55 0.00131
36.6 0.00109
36.65 0.0009
36.7 0.00046
36.75 0.00023
36.8 -0.00019
36.85 -0.00106
36.9 -0.0012
36.95 -0.00117
37 -0.00083
37.05 -0.00006
37.1 0.00054
37.15 0.0013
37.2 0.00189
37.25 0.00197
37.3 0.00131
37.35 0.00102
37.4 0.00109
37.45 0.00073
37.5 0.00037
37.55 -0.0001
37.6 0.00002
37.65 -0.00024
37.7 -0.00019
37.75 -0.0001
37.8 0.00043
37.85 0.00037
37.9 -0.00027
37.95 -0.00095
38 -0.00098
38.05 -0.0014
38.1 -0.00149
38.15 -0.00131
38.2 -0.00157
38.25 -0.00221
38.3 -0.00203
38.35 -0.00136
38.4 -0.00052
38.45 -0.00001
38.5 0.00016
38.55 0.00052
38.6 0.00075
38.65 0.00071
38.7 0.00075
38.75 0.00084
38.8 0.00047
38.85 -0.00014
38.9 -0
38.95 0.00056
39 0.00031
39.05 -0.00047
39.1 -0.00059
39.15 -0.0012
39.2 -0.00105
39.25 -0.00103
39.3 -0.00044
39.35 0.00043
39.4 0.00143
39.45 0.00224
39.5 0.00209
39.55 0.00205
39.6 0.00207
39.65 0.00191
39.7 0.00174
39.75 0.00089
39.8 0.00076
39.85 0.00108
39.9 0.00061
39.95 0.0007
40 0.00008
40.05 0.00007
40.1 -0.00014
40.15 -0.00061
40.2 -0.00134
40.25 -0.00146
40.3 -0.00141
40.35 -0.00152
40.4 -0.00176
40.45 -0.00147
40.5 -0.00174
40.55 -0.00206
40.6 -0.0024
40.65 -0.0024
40.7 -0.00279
40.75 -0.00332
40.8 -0.00397
40.85 -0.00435
40.9 -0.00455
40.95 -0.00461
41 -0.0046
41.05 -0.00372
41.1 -0.00344
41.15 -0.00356
41.2 -0.00355
41.25 -0.00363
41.3 -0.00376
41.35 -0.00397
41.4 -0.00434
41.45 -0.00431
41.5 -0.00367
41.55 -0.00302
41.6 -0.00293
41.65 -0.00308
41.7 -0.00365
41.75 -0.00409
41.8 -0.00473
41.85 -0.00592
41.9 -0.00742
41.95 -0.00994
42 -0.01259
42.05 -0.01586
42.1 -0.01897
42.15 -0.02254
42.2 -0.02667
42.25 -0.03098
42.3 -0.03628
42.35 -0.04167
42.4 -0.04841
42.45 -0.05601
42.5 -0.0647
42.55 -0.0739
42.6 -0.08353
42.65 -0.09363
42.7 -0.10442
42.75 -0.11669
42.8 -0.1296
42.85 -0.14401
42.9 -0.15921
42.95 -0.17484
43 -0.19073
43.05 -0.2073
43.1 -0.22417
43.15 -0.2419
43.2 -0.26024
43.25 -0.27871
43.3 -0.29699
43.35 -0.31428
43.4 -0.33024
43.45 -0.34447
43.5 -0.35727
43.55 -0.36806
43.6 -0.37717
43.65 -0.38441
43.7 -0.38849
43.75 -0.38962
43.8 -0.38769
43.85 -0.38293
43.9 -0.37512
43.95 -0.36495
44 -0.35227
44.05 -0.33721
44.1 -0.31941
44.15 -0.29872
44.2 -0.27592
44.25 -0.25057
44.3 -0.2235
44.35 -0.19513
44.4 -0.16482
44.45 -0.13371
44.5 -0.10246
44.55 -0.07162
44.6 -0.04063
44.65 -0.01049
44.7 0.01784
44.75 0.04498
44.8 0.07015
44.85 0.09353
44.9 0.11501
44.95 0.13499
45 0.15299
45.05 0.16979
45.1 0.18505
45.15 0.19791
45.2 0.20829
45.25 0.2167
45.3 0.22357
45.35 0.22969
45.4 0.23496
45.45 0.23937
45.5 0.24263
45.55 0.24607
45.6 0.24859
45.65 0.25045
45.7 0.25235
45.75 0.25454
45.8 0.25599
45.85 0.25711
45.9 0.25874
45.95 0.26003
46 0.26174
46.05 0.2638
46.1 0.26512
46.15 0.26672
46.2 0.26745
46.25 0.26772
46.3 0.2674
46.35 0.26674
46.4 0.26681
46.45 0.26702
46.5 0.26638
46.55 0.266
46.6 0.26521
46.65 0.2637
46.7 0.26223
46.75 0.2595
46.8 0.25643
46.85 0.25327
46.9 0.25013
46.95 0.24633
47 0.24163
47.05 0.23621
47.1 0.23098
47.15 0.2259
47.2 0.22015
47.25 0.21451
47.3 0.20837
47.35 0.20198
47.4 0.19556
47.45 0.1891
47.5 0.18247
47.55 0.17568
47.6 0.1688
47.65 0.16268
47.7 0.15674
47.75 0.15111
47.8 0.14543
47.85 0.13954
47.9 0.13391
47.95 0.12826
48 0.12234
48.05 0.11602
48.1 0.11019
48.15 0.10431
48.2 0.09779
48.25 0.09188
48.3 0.08658
48.35 0.08082
48.4 0.07499
48.45 0.06892
48.5 0.06347
48.55 0.05822
48.6 0.05302
48.65 0.04817
48.7 0.04407
48.75 0.03937
48.8 0.0354
48.85 0.03161
48.9 0.02836
48.95 0.02461
49 0.02063
49.05 0.01736
49.1 0.01421
49.15 0.01129
49.2 0.00857
49.25 0.0061
49.3 0.00276
49.35 -0.0006
49.4 -0.00352
49.45 -0.00705
49.5 -0.01069
49.55 -0.01415
49.6 -0.01725
49.65 -0.01989
49.7 -0.0223
49.75 -0.02486
49.8 -0.02717
49.85 -0.02889
49.9 -0.03076
49.95 -0.03179
50 -0.03311
50.05 -0.0344
50.1 -0.03603
50.15 -0.03731
50.2 -0.03883
50.25 -0.0396
50.3 -0.03969
50.35 -0.04002
50.4 -0.04083
50.45 -0.04204
50.5 -0.04347
50.55 -0.04415
50.6 -0.04461
50.65 -0.04517
50.7 -0.04553
50.75 -0.04546
50.8 -0.04565
50.85 -0.04606
50.9 -0.04629
50.95 -0.04651
51 -0.04607
51.05 -0.04547
51.1 -0.04504
51.15 -0.04442
51.2 -0.04403
51.25 -0.04443
51.3 -0.04516
51.35 -0.04526
51.4 -0.04528
51.45 -0.04529
51.5 -0.04541
51.55 -0.04473
51.6 -0.04393
51.65 -0.04379
51.7 -0.04343
51.75 -0.04355
51.8 -0.04381
51.85 -0.04408
51.9 -0.04429
51.95 -0.04402
52 -0.04383
52.05 -0.04277
52.1 -0.04124
52.15 -0.04045
52.2 -0.03925
52.25 -0.03883
52.3 -0.03834
52.35 -0.03745
52.4 -0.03675
52.45 -0.03666
52.5 -0.0367
52.55 -0.03633
52.6 -0.03574
52.65 -0.03558
52.7 -0.0356
52.75 -0.03565
52.8 -0.0359
52.85 -0.03513
52.9 -0.03424
52.95 -0.03298
53 -0.03136
53.05 -0.03037
53.1 -0.02913
53.15 -0.02775
53.2 -0.02654
53.25 -0.02608
53.3 -0.02641
53.35 -0.02722
53.4 -0.02794
53.45 -0.02867
53.5 -0.02856
53.55 -0.02774
53.6 -0.02734
53.65 -0.02726
53.7 -0.02745
53.75 -0.02752
53.8 -0.02716
53.85 -0.02633
53.9 -0.02551
53.95 -0.0242
54 -0.02296
54.05 -0.0218
54.1 -0.02104
54.15 -0.02031
54.2 -0.01945
54.25 -0.01864
54.3 -0.01865
54.35 -0.019
54.4 -0.01939
54.45 -0.01973
54.5 -0.02004
54.55 -0.01962
54.6 -0.01957
54.65 -0.01902
54.7 -0.01879
54.75 -0.01897
54.8 -0.01872
54.85 -0.01806
54.9 -0.0172
54.95 -0.01644
55 -0.01601
55.05 -0.01576
55.1 -0.01558
55.15 -0.01586
55.2 -0.01613
55.25 -0.01668
55.3 -0.01684
55.35 -0.01719
55.4 -0.01738
55.45 -0.01762
55.5 -0.01726
55.55 -0.0172
55.6 -0.01635
55.65 -0.01583
55.7 -0.01479
55.75 -0.0144
55.8 -0.01434
55.85 -0.01404
55.9 -0.01315
55.95 -0.01277
56 -0.01293
56.05 -0.01243
56.1 -0.01161
56.15 -0.01087
56.2 -0.00993
56.25 -0.00971
56.3 -0.0101
56.35 -0.01024
56.4 -0.01009
56.45 -0.01002
56.5 -0.00954
56.55 -0.00959
56.6 -0.00978
56.65 -0.01006
56.7 -0.01031
56.75 -0.01081
56.8 -0.01085
56.85 -0.01039
56.9 -0.0099
56.95 -0.00952
57 -0.00914
57.05 -0.00846
57.1 -0.00837
57.15 -0.0088
57.2 -0.00875
57.25 -0.00831
57.3 -0.00784
57.35 -0.00718
57.4 -0.00687
57.45 -0.00618
57.5 -0.00574
57.55 -0.0054
57.6 -0.00476
57.65 -0.0041
57.7 -0.0045
57.75 -0.00452
57.8 -0.00496
57.85 -0.00548
57.9 -0.00648
57.95 -0.0071
58 -0.00711
58.05 -0.00704
58.1 -0.00735
58.15 -0.00791
58.2 -0.00816
58.25 -0.00845
58.3 -0.00783
58.35 -0.00742
58.4 -0.00674
58.45 -0.00588
58.5 -0.0051
58.55 -0.00505
58.6 -0.0054
58.65 -0.00504
58.7 -0.00498
58.75 -0.00539
58.8 -0.00612
58.85 -0.00596
58.9 -0.00527
58.95 -0.005
59 -0.00479
59.05 -0.00444
59.1 -0.00399
59.15 -0.0038
59.2 -0.00409
59.25 -0.00431
59.3 -0.00458
59.35 -0.00476
59.4 -0.00533
59.45 -0.0053
59.5 -0.00481
59.55 -0.0047
59.6 -0.00398
59.65 -0.00388
59.7 -0.00351
59.75 -0.00341
59.8 -0.0035
59.85 -0.00404
59.9 -0.0045
59.95 -0.00441
60 -0.00388
60.05 -0.00318
60.1 -0.0024
60.15 -0.00217
60.2 -0.00267
60.25 -0.00322
60.3 -0.00385
60.35 -0.00361
60.4 -0.00334
60.45 -0.00304
60.5 -0.00334
60.55 -0.00322
60.6 -0.00313
60.65 -0.00301
60.7 -0.00348
60.75 -0.00405
60.8 -0.00372
60.85 -0.00342
60.9 -0.00289
60.95 -0.00276
61 -0.00319
61.05 -0.00382
61.1 -0.00402
61.15 -0.00435
61.2 -0.00458
61.25 -0.00472
61.3 -0.00453
61.35 -0.0043
61.4 -0.00362
61.45 -0.00262
61.5 -0.00247
61.55 -0.00237
61.6 -0.0018
61.65 -0.00198
61.7 -0.00174
61.75 -0.00201
61.8 -0.00242
61.85 -0.00236
61.9 -0.00218
61.95 -0.00247
62 -0.00215
62.05 -0.00173
62.1 -0.00103
62.15 -0.00091
62.2 -0.00144
62.25 -0.00171
62.3 -0.00131
62.35 -0.00076
62.4 -0.00102
62.45 -0.00095
62.5 -0.00143
62.55 -0.00182
62.6 -0.00203
62.65 -0.00195
62.7 -0.00227
62.75 -0.00238
62.8 -0.00199
62.85 -0.00122
62.9 -0.0011
62.95 -0.00138
63 -0.0019
63.05 -0.00251
63.1 -0.00292
63.15 -0.00344
63.2 -0.00332
63.25 -0.00309
63.3 -0.00333
63.35 -0.00333
63.4 -0.00333
63.45 -0.00345
63.5 -0.00301
63.55 -0.00289
63.6 -0.00275
63.65 -0.00253
63.7 -0.00183
63.75 -0.00112
63.8 -0.00014
63.85 0.0002
63.9 0.00055
63.95 0.00123
64 0.00207
64.05 0.00225
64.1 0.00178
64.15 0.00139
64.2 0.00091
64.25 0.00096
64.3 0.00137
64.35 0.00123
64.4 0.00126
64.45 0.00129
64.5 0.00081
64.55 0.00005
64.6 -0.00072
64.65 -0.0012
64.7 -0.00204
64.75 -0.00255
64.8 -0.00221
64.85 -0.00176
64.9 -0.0014
64.95 -0.00165
65 -0.00144
65.05 -0.00133
65.1 -0.00133
65.15 -0.00085
65.2 -0.00075
65.25 -0.0011
65.3 -0.00149
65.35 -0.00177
65.4 -0.00139
65.45 -0.00111
65.5 -0.00139
65.55 -0.00116
65.6 -0.00135
65.65 -0.00086
65.7 -0.00099
65.75 -0.00053
65.8 -0.00037
65.85 -0.00043
65.9 -0.00002
65.95 -0.00037
66 -0.00075
66.05 -0.00099
66.1 -0.00115
66.15 -0.0012
66.2 -0.00114
66.25 -0.00157
66.3 -0.00135
66.35 -0.0012
66.4 -0.00095
66.45 -0.00124
66.5 -0.00087
66.55 -0.00016
66.6 0.00049
66.65 0.0014
66.7 0.00218
66.75 0.00272
66.8 0.00291
66.85 0.00252
66.9 0.0018
66.95 0.00123
67 0.00108
67.05 0.00126
67.1 0.0011
67.15 0.00096
67.2 0.00085
67.25 0.00025
67.3 0.00018
67.35 0.0005
67.4 0.00019
67.45 -0.0005
67.5 -0.0008
67.55 -0.00041
67.6 -0.00005
67.65 0.00011
67.7 0.00026
67.75 0.00063
67.8 0.00071
67.85 0.0007
67.9 0.00097
67.95 0.00146
68 0.0016
68.05 0.00119
68.1 0.00044
68.15 0.00007
68.2 -0.00053
68.25 -0.00105
68.3 -0.00089
68.35 -0.00068
68.4 -0.0004
68.45 0.00035
68.5 0.001
68.55 0.00135
68.6 0.00191
68.65 0.00177
68.7 0.00184
68.75 0.00189
68.8 0.00144
68.85 0.00058
68.9 0.00007
68.95 -0.00041
69 -0.00115
69.05 -0.00152
69.1 -0.00215
69.15 -0.00259
69.2 -0.00311
69.25 -0.00298
69.3 -0.00305
69.35 -0.00323
69.4 -0.0035
69.45 -0.00301
69.5 -0.00243
69.55 -0.00224
69.6 -0.00202
69.65 -0.00227
69.7 -0.0025
69.75 -0.002
69.8 -0.00162
69.85 -0.00176
69.9 -0.00199
69.95 -0.00141
70 -0.0006
70.05 0.00048
70.1 0.00056
70.15 0.00039
70.2 0.00036
70.25 -0.00018
70.3 -0.00068
70.35 -0.00126
70.4 -0.00134
70.45 -0.00155
70.5 -0.00186
70.55 -0.00165
70.6 -0.00113
70.65 -0.0002
70.7 0.00011
70.75 -0
70.8 0.00036
70.85 0.00105
70.9 0.00176
70.95 0.00258
71 0.00258
71.05 0.00288
71.1 0.00293
71.15 0.00324
71.2 0.00261
71.25 0.00165
71.3 0.00137
71.35 0.0012
71.4 0.0005
71.45 0.00011
71.5 0.00004
71.55 0.00042
71.6 0.00055
71.65 0.00109
71.7 0.00179
71.75 0.0025
71.8 0.00213
71.85 0.00196
71.9 0.00125
71.95 0.00025
72 -0.00055
72.05 -0.00107
72.1 -0.00135
72.15 -0.00147
72.2 -0.00114
72.25 -0.00108
72.3 -0.00049
72.35 0.00049
72.4 0.00065
72.45 0.00081
72.5 0.00056
72.55 0.00009
72.6 -0.00053
72.65 -0.00128
72.7 -0.00179
72.75 -0.00191
72.8 -0.00217
72.85 -0.00207
72.9 -0.00138
72.95 -0.00129
73 -0.00147
73.05 -0.00165
73.1 -0.00169
73.15 -0.00127
73.2 -0.00131
73.25 -0.0011
73.3 -0.00106
73.35 -0.0008
73.4 -0.00075
73.45 -0.00057
73.5 -0.00011
73.55 0.00027
73.6 0.0004
73.65 0.00053
73.7 0.00015
73.75 -0.00036
73.8 -0.00035
73.85 -0.00001
73.9 -0.00009
73.95 0.00039
74 0.00012
74.05 -0.00005
74.1 -0.00013
74.15 0.00042
74.2 0.0008
74.25 0.00126
74.3 0.00129
74.35 0.00084
74.4 0.00097
74.45 0.00126
74.5 0.00153
74.55 0.00125
74.6 0.00097
74.65 0.00027
74.7 -0.00009
74.75 -0.00006
74.8 -0.0006
74.85 -0.00113
74.9 -0.00096
74.95 -0.00061
75 -0.00083
75.05 -0.00142
75.1 -0.00124
75.15 -0.00128
75.2 -0.00172
75.25 -0.00192
75.3 -0.00139
75.35 -0.00091
75.4 -0.00016
75.45 0.00057
75.5 0.00045
75.55 -0.00005
75.6 0.00019
75.65 0.00083
75.7 0.00093
75.75 0.00111
75.8 0.0008
75.85 0.00042
75.9 -0.00041
75.95 -0.00032
76 0.00012
76.05 0.00097
76.1 0.00185
76.15 0.00206
76.2 0.00155
76.25 0.00101
76.3 0.0008
76.35 0.00013
76.4 -0.0003
76.45 -0.00075
76.5 -0.00155
76.55 -0.00178
76.6 -0.00156
76.65 -0.00187
76.7 -0.00211
76.75 -0.00194
76.8 -0.00149
76.85 -0.00101
76.9 -0.00018
76.95 -0.00015
77 -0.00057
77.05 -0.00059
77.1 -0.00048
77.15 -0.00015
77.2 -0.00015
77.25 0.00015
77.3 0.00029
77.35 0.00052
77.4 0.00034
77.45 0.00012
77.5 0.00026
77.55 0.00033
77.6 0.00041
77.65 0.00025
77.7 -0.00001
77.75 -0.00027
77.8 -0.00021
77.85 -0.0001
77.9 -0.00014
77.95 -0.00052
78 -0.00096
78.05 -0.00129
78.1 -0.00162
78.15 -0.00193
78.2 -0.00212
78.25 -0.00233
78.3 -0.0026
78.35 -0.00257
78.4 -0.00254
78.45 -0.00213
78.5 -0.00224
78.55 -0.00171
78.6 -0.00104
78.65 -0.00094
78.7 -0.00079
78.75 -0.00028
78.8 0.00054
78.85 0.00094
78.9 0.00088
78.95 0.00138
79 0.00113
79.05 0.00142
79.1 0.00139
79.15 0.00103
79.2 0.00035
79.25 -0.0006
79.3 -0.00113
79.35 -0.0015
79.4 -0.00141
79.45 -0.00156
79.5 -0.00093
79.55 -0.00079
79.6 -0.00064
79.65 -0.00073
79.7 -0.00018
79.75 -0.0002
79.8 -0.00056
79.85 -0.00067
79.9 -0.00099
79.95 -0.00093
80 -0.00039
80.05 0.0004
80.1 0.00037
80.15 0.00076
80.2 0.00151
80.25 0.00217
80.3 0.00207
80.35 0.002
80.4 0.00205
80.45 0.00171
80.5 0.00091
80.55 0.00072
80.6 0.00031
80.65 -0.00021
80.7 -0.00051
80.75 -0.00005
80.8 0.00037
80.85 0.00026
80.9 0.00008
80.95 0.00011
81 0.00056
81.05 0.00056
81.1 0.00028
81.15 0.0001
81.2 -0.00056
81.25 -0.00052
81.3 -0.00057
81.35 -0.00086
81.4 -0.00103
81.45 -0.00106
81.5 -0.00099
81.55 -0.00107
81.6 -0.00156
81.65 -0.00133
81.7 -0.001
81.75 -0.00078
81.8 -0.00055
81.85 -0.00008
81.9 -0.0001
81.95 -0.00039
82 -0.00094
82.05 -0.00138
82.1 -0.00173
82.15 -0.00153
82.2 -0.00118
82.25 -0.00044
82.3 0.00008
82.35 0.00032
82.4 0.00066
82.45 0.00084
82.5 0.00137
82.55 0.00218
82.6 0.00216
82.65 0.00141
82.7 0.00114
82.75 0.00056
82.8 0.00022
82.85 -0.00034
82.9 -0.00043
82.95 -0.00053
83 -0.00078
83.05 -0.00126
83.1 -0.00156
83.15 -0.00217
83.2 -0.00265
83.25 -0.0027
83.3 -0.00281
83.35 -0.00247
83.4 -0.00151
83.45 -0.00071
83.5 0.00042
83.55 0.00115
83.6 0.00117
83.65 0.00132
83.7 0.00118
83.75 0.00118
83.8 0.0016
83.85 0.00221
83.9 0.00216
83.95 0.0025
84 0.00206
84.05 0.00173
84.1 0.00109
84.15 0.00081
84.2 0.00083
84.25 0.0003
84.3 0.00025
84.35 0.00064
84.4 0.00036
84.45 -0.00024
84.5 -0.00079
84.55 -0.00077
84.6 -0.00067
84.65 -0.00054
84.7 -0.00003
84.75 0.00035
84.8 -0
84.85 -0.00013
84.9 -0.00013
84.95 0.00043
85 0.0011
85.05 0.00175
85.1 0.00232
85.15 0.00257
85.2 0.00196
85.25 0.00188
85.3 0.00138
85.35 0.00136
85.4 0.00089
85.45 0.00109
85.5 0.00171
85.55 0.00179
85.6 0.00116
85.65 0.00044
85.7 -0.00001
85.75 0.00003
85.8 0.00053
85.85 0.00057
85.9 0.00037
85.95 0.00006
86 -0.00025
86.05 0.00003
86.1 -0.0001
86.15 -0.00071
86.2 -0.00083
86.25 -0.00115
86.3 -0.00127
86.35 -0.0015
86.4 -0.0019
86.45 -0.00184
86.5 -0.00156
86.55 -0.00135
86.6 -0.0012
86.65 -0.00115
86.7 -0.00153
86.75 -0.00167
86.8 -0.00113
86.85 -0.00091
86.9 -0.00108
86.95 -0.00133
87 -0.00098
87.05 -0.0008
87.1 -0.00096
87.15 -0.00078
87.2 -0.00042
87.25 -0.00027
87.3 -0.00062
87.35 -0.00045
87.4 -0.00055
87.45 -0.00067
87.5 -0.00119
87.55 -0.00151
87.6 -0.0016
87.65 -0.00091
87.7 -0.00086
87.75 -0.00019
87.8 0.00028
87.85 0.00007
87.9 0.00025
87.95 0.00082
88 0.00068
88.05 0.00057
88.1 -0.0001
88.15 -0.00034
88.2 -0.00087
88.25 -0.0016
88.3 -0.00136
88.35 -0.00158
88.4 -0.00202
88.45 -0.00206
88.5 -0.00207
88.55 -0.00242
88.6 -0.00224
88.65 -0.00161
88.7 -0.00047
88.75 0.00002
88.8 0.00074
88.85 0.00093
88.9 0.00053
88.95 0.00003
89 -0.00077
89.05 -0.00066
89.1 0.00001
89.15 0.00076
89.2 0.00063
89.25 0.00058
89.3 0.00079
89.35 0.00142
89.4 0.00155
89.45 0.00198
89.5 0.00198
89.55 0.00236
89.6 0.00201
89.65 0.00179
89.7 0.0016
89.75 0.00119
89.8 0.00096
89.85 0.00133
89.9 0.0019
89.95 0.00157
90 0.00107
90.05 0.0004
90.1 -0.00038
90.15 -0.00138
90.2 -0.00213
90.25 -0.00288
90.3 -0.00294
90.35 -0.00281
90.4 -0.00247
90.45 -0.00216
90.5 -0.00157
90.55 -0.00124
90.6 -0.00116
90.65 -0.00065
90.7 0.00035
90.75 0.00049
90.8 0.00066
90.85 0.0009
90.9 0.0016
90.95 0.00224
91 0.00213
91.05 0.0018
91.1 0.00195
91.15 0.00138
91.2 0.00086
91.25 0.0009
91.3 0.00088
91.35 0.00039
91.4 0.0001
91.45 -0.00004
91.5 -0.00004
91.55 -0.00015
91.6 -0.00044
91.65 -0.00065
91.7 -0.00028
91.75 -0.00027
91.8 -0.0001
91.85 -0.00036
91.9 -0.00054
91.95 -0
92 -0.00015
92.05 -0.00043
92.1 -0.00003
92.15 0.0003
92.2 -0.00001
92.25 -0.00017
92.3 0.00018
92.35 -0.00007
92.4 -0.00001
92.45 -0.00043
92.5 -0.00023
92.55 -0.00053
92.6 -0.00043
92.65 -0.00067
92.7 -0.00031
92.75 -0.00026
92.8 0.0003
92.85 0.0007
92.9 0.00098
92.95 0.00098
93 0.00104
93.05 0.0012
93.1 0.00111
93.15 0.00152
93.2 0.00155
93.25 0.00143
93.3 0.00131
93.35 0.00168
93.4 0.0016
93.45 0.00171
93.5 0.00189
93.55 0.00166
93.6 0.00176
93.65 0.00186
93.7 0.00198
93.75 0.00233
93.8 0.00194
93.85 0.00128
93.9 0.00077
93.95 0.00045
94 -0.00013
94.05 -0.00066
94.1 -0.00102
94.15 -0.00108
94.2 -0.00111
94.25 -0.00102
94.3 -0.0007
94.35 -0.00036
94.4 -0.00011
94.45 0.00032
94.5 0.00098
94.55 0.00134
94.6 0.00154
94.65 0.00124
94.7 0.00135
94.75 0.00115
94.8 0.00033
94.85 0.00025
94.9 0.00052
94.95 0.00004
95 -0.00063
95.05 -0.00102
95.1 -0.00169
95.15 -0.00207
95.2 -0.00158
95.25 -0.0008
95.3 0.00021
95.35 0.00057
95.4 0.001
95.45 0.00165
95.5 0.00196
95.55 0.00253
95.6 0.00243
95.65 0.00245
95.7 0.0026
95.75 0.00268
95.8 0.00277
95.85 0.00303
95.9 0.00268
95.95 0.00227
96 0.00205
96.05 0.00189
96.1 0.00157
96.15 0.00105
96.2 0.00088
96.25 0.00098
96.3 0.00052
96.35 -0.0003
96.4 -0.00072
96.45 -0.00134
96.5 -0.0019
96.55 -0.0016
96.6 -0.00079
96.65 0.00024
96.7 0.00033
96.75 0.00014
96.8 0.00027
96.85 -0.00022
96.9 -0.00031
96.95 -0.00096
97 -0.00156
97.05 -0.00127
97.1 -0.00116
97.15 -0.00143
97.2 -0.00094
97.25 -0.00013
97.3 0.00038
97.35 0.00055
97.4 0.00034
97.45 0.00029
97.5 0.00051
97.55 0.00082
97.6 0.00075
97.65 0.00073
97.7 0.00099
97.75 0.00053
97.8 0.00027
97.85 -0.0003
97.9 -0.00079
97.95 -0.00051
98 -0.00041
98.05 -0.00004
98.1 0.00019
98.15 0.00071
98.2 0.00038
98.25 0.00017
98.3 0.00046
98.35 -0.00001
98.4 -0.00002
98.45 -0.00051
98.5 -0.00045
98.55 -0.00016
98.6 -0.00025
98.65 -0.00017
98.7 -0.0007
98.75 -0.00108
98.8 -0.00115
98.85 -0.0013
98.9 -0.00098
98.95 -0.00037
99 -0.00015
99.05 0.00012
99.1 -0
99.15 -0.00003
99.2 -0.00007
99.25 0.00022
99.3 0.00041
99.35 0.00086
99.4 0.00122
99.45 0.00097
99.5 0.00091
99.55 0.0008
99.6 0.00036
99.65 -0.00012
99.7 -0.00075
99.75 -0.00092
99.8 -0.00143
99.85 -0.00164
99.9 -0.00166
99.95 -0.00212
