0 0
0.05 0.00082
0.1 0.00215
0.15 0.00376
0.2 0.00479
0.25 0.00603
0.3 0.00691
0.35 0.00716
0.4 0.00735
0.45 0.00701
0.5 0.00623
0.55 0.00586
0.6 0.00572
0.65 0.00546
0.7 0.00543
0.75 0.00578
0.8 0.00555
0.85 0.00532
0.9 0.00471
0.95 0.00403
1 0.00353
1.05 0.00307
1.1 0.00261
1.15 0.00245
1.2 0.00244
1.25 0.00284
1.3 0.00284
1.35 0.00329
1.4 0.00403
1.45 0.00499
1.5 0.00568
1.55 0.00641
1.6 0.00689
1.65 0.0073
1.7 0.00759
1.75 0.00698
1.8 0.00659
1.85 0.00597
1.9 0.00587
1.95 0.00577
2 0.00524
2.05 0.00467
2.1 0.00445
2.15 0.00375
2.2 0.00352
2.25 0.00353
2.3 0.00354
2.35 0.00392
2.4 0.00392
2.45 0.00379
2.5 0.0041
2.55 0.00419
2.6 0.00456
2.65 0.00425
2.7 0.00427
2.75 0.00406
2.8 0.00335
2.85 0.00235
2.9 0.00191
2.95 0.00192
3 0.00206
3.05 0.00247
3.1 0.00313
3.15 0.00297
3.2 0.00244
3.25 0.00182
3.3 0.00177
3.35 0.00132
3.4 0.00088
3.45 0.00049
3.5 -0.00008
3.55 0.00014
3.6 0.00035
3.65 0.00081
3.7 0.00088
3.75 0.00088
3.8 0.00145
3.85 0.0014
3.9 0.00185
3.95 0.00259
4 0.00314
4.05 0.00313
4.1 0.00272
4.15 0.00221
4.2 0.00227
4.25 0.00187
4.3 0.00159
4.35 0.00122
4.4 0.00091
4.45 0.00107
4.5 0.00124
4.55 0.0018
4.6 0.00241
4.65 0.00267
4.7 0.00241
4.75 0.00226
4.8 0.00221
4.85 0.00215
4.9 0.00237
4.95 0.00289
5 0.0032
5.05 0.00313
5.1 0.00256
5.15 0.0025
5.2 0.00269
5.25 0.00279
5.3 0.00233
5.35 0.00183
5.4 0.00102
5.45 0.00049
5.5 0.00048
5.55 0.00057
5.6 0.00037
5.65 0.00031
5.7 -0.00012
5.75 -0.00012
5.8 -0.00045
5.85 -0.00019
5.9 0.00026
5.95 0.00098
6 0.00093
6.05 0.00059
6.1 0.0004
6.15 0.00066
6.2 0.00054
6.25 0.00003
6.3 -0.00026
6.35 -0.00012
6.4 0.00047
6.45 0.00095
6.5 0.00094
6.55 0.00117
6.6 0.00115
6.65 0.00065
6.7 0.00073
6.75 0.00103
6.8 0.00107
6.85 0.00059
6.9 0.00026
6.95 0.00016
7 -0.0003
7.05 -0.00063
7.1 -0.00092
7.15 -0.00088
7.2 -0.00079
7.25 -0.00104
7.3 -0.00159
7.35 -0.00224
7.4 -0.00276
7.45 -0.00233
7.5 -0.00134
7.55 -0.00097
7.6 -0.00036
7.65 -0.00012
7.7 -0.00009
7.75 -0.00041
7.8 -0.00083
7.85 -0.00123
7.9 -0.00148
7.95 -0.00185
8 -0.00228
8.05 -0.00215
8.1 -0.00202
8.15 -0.00144
8.2 -0.00063
8.25 0.00002
8.3 0.00012
8.35 -0.00002
8.4 0.00007
8.45 0.00005
8.5 -0.00002
8.55 -0.0003
8.6 -0.00079
8.65 -0.00125
8.7 -0.00127
8.75 -0.00061
8.8 0.00024
8.85 0.00112
8.9 0.00188
8.95 0.00177
9 0.00176
9.05 0.00128
9.1 0.00045
9.15 0.00007
9.2 -0.00043
9.25 -0.00051
9.3 -0.00069
9.35 -0.00079
9.4 -0.00119
9.45 -0.00133
9.5 -0.00152
9.55 -0.00143
9.6 -0.00142
9.65 -0.0009
9.7 -0.0001
9.75 0.00075
9.8 0.00174
9.85 0.00213
9.9 0.00184
9.95 0.00205
10 0.0018
10.05 0.00107
10.1 0.00093
10.15 0.00037
10.2 -0.0002
10.25 -0.00074
10.3 -0.00126
10.35 -0.00191
10.4 -0.00214
10.45 -0.00227
10.5 -0.00212
10.55 -0.00182
10.6 -0.00164
10.65 -0.00177
10.7 -0.00127
10.75 -0.00105
10.8 -0.00078
10.85 -0.00008
10.9 0.00042
10.95 0.00091
11 0.00125
11.05 0.00119
11.1 0.0015
11.15 0.00188
11.2 0.00218
11.25 0.00224
11.3 0.00257
11.35 0.00266
11.4 0.00251
11.45 0.002
11.5 0.00156
11.55 0.00109
11.6 0.00042
11.65 0.00019
11.7 -0.00005
11.75 -0.00031
11.8 -0.00062
11.85 -0.00062
11.9 -0.00027
11.95 -0.00044
12 0.00004
12.05 0.00036
12.1 0.00071
12.15 0.00076
12.2 0.00108
12.25 0.00173
12.3 0.00166
12.35 0.0018
12.4 0.00159
12.45 0.00096
12.5 0.00006
12.55 -0.00053
12.6 -0.00121
12.65 -0.00184
12.7 -0.00255
12.75 -0.00253
12.8 -0.00193
12.85 -0.00158
12.9 -0.0014
12.95 -0.0009
13 -0.00084
13.05 -0.00116
13.1 -0.00148
13.15 -0.0016
13.2 -0.00138
13.25 -0.00152
13.3 -0.00097
13.35 -0.00033
13.4 0.00032
13.45 0.00075
13.5 0.00131
13.55 0.00212
13.6 0.00222
13.65 0.00232
13.7 0.00211
13.75 0.00168
13.8 0.00138
13.85 0.00064
13.9 0.00054
13.95 0.00101
14 0.00092
14.05 0.00098
14.1 0.00139
14.15 0.00208
14.2 0.0027
14.25 0.00275
14.3 0.00269
14.35 0.00286
14.4 0.00266
14.45 0.00283
14.5 0.00287
14.55 0.00284
14.6 0.00277
14.65 0.00282
14.7 0.00225
14.75 0.00207
14.8 0.00159
14.85 0.00119
14.9 0.00049
14.95 -0.00022
15 -0.0004
15.05 -0.00005
15.1 0.00038
15.15 0.00053
15.2 0.00055
15.25 0.00054
15.3 0.00069
15.35 0.00068
15.4 0.00085
15.45 0.00074
15.5 0.00059
15.55 0.00008
15.6 0.00013
15.65 -0.00033
15.7 -0.00085
15.75 -0.00087
15.8 -0.00045
15.85 0.00032
15.9 0.00107
15.95 0.00175
16 0.0024
16.05 0.00211
16.1 0.00137
16.15 0.00125
16.2 0.00084
16.25 0.00042
16.3 -0.00041
16.35 -0.0008
16.4 -0.00111
16.45 -0.00102
16.5 -0.00053
16.55 -0.00067
16.6 -0.0007
16.65 -0.0009
16.7 -0.00085
16.75 -0.00044
16.8 -0.00058
16.85 -0.00027
16.9 0.00025
16.95 0.00093
17 0.00146
17.05 0.00122
17.1 0.0012
17.15 0.00087
17.2 0.0002
17.25 -0.00033
17.3 -0.00113
17.35 -0.00115
17.4 -0.00157
17.45 -0.00175
17.5 -0.00173
17.55 -0.00106
17.6 -0.0006
17.65 0.00024
17.7 0.0008
17.75 0.00131
17.8 0.0019
17.85 0.00192
17.9 0.00225
17.95 0.00248
18 0.00191
18.05 0.00113
18.1 0.00057
18.15 0.00052
18.2 0.0001
18.25 -0.0001
18.3 -0.0005
18.35 -0.00118
18.4 -0.0011
18.45 -0.00056
18.5 -0.00026
18.55 -0.00044
18.6 -0.00056
18.65 -0.00046
18.7 -0.0004
18.75 -0.0006
18.8 -0.00119
18.85 -0.00111
18.9 -0.00143
18.95 -0.00134
19 -0.00166
19.05 -0.00181
19.1 -0.00208
19.15 -0.00243
19.2 -0.00223
19.25 -0.00209
19.3 -0.00216
19.35 -0.002
19.4 -0.00124
19.45 -0.00074
19.5 0.0001
19.55 0.00091
19.6 0.00162
19.65 0.0016
19.7 0.00166
19.75 0.00205
19.8 0.00197
19.85 0.00185
19.9 0.00167
19.95 0.00116
20 0.00067
20.05 0.00053
20.1 0.00079
20.15 0.00095
20.2 0.00132
20.25 0.00141
20.3 0.00178
20.35 0.00194
20.4 0.00195
20.45 0.00148
20.5 0.00116
20.55 0.00048
20.6 -0.00034
20.65 -0.00115
20.7 -0.00118
20.75 -0.00116
20.8 -0.00072
20.85 -0.00022
20.9 -0.00002
20.95 -0.00011
21 -0.00027
21.05 -0.00051
21.1 -0.00067
21.15 -0.00058
21.2 -0.00025
21.25 0.00047
21.3 0.00104
21.35 0.001
21.4 0.00056
21.45 0.00016
21.5 -0.00054
21.55 -0.00093
21.6 -0.0007
21.65 -0.00001
21.7 0.00067
21.75 0.00143
21.8 0.00144
21.85 0.00166
21.9 0.00115
21.95 0.00122
22 0.00163
22.05 0.00141
22.1 0.00092
22.15 0.00017
22.2 -0.00068
22.25 -0.00124
22.3 -0.00175
22.35 -0.00233
22.4 -0.00231
22.45 -0.0017
22.5 -0.00151
22.55 -0.00092
22.6 -0.00101
22.65 -0.00147
22.7 -0.00125
22.75 -0.00105
22.8 -0.00097
22.85 -0.00079
22.9 -0.00079
22.95 -0.00049
23 -0.00069
23.05 -0.00081
23.1 -0.0012
23.15 -0.00139
23.2 -0.00116
23.25 -0.00062
23.3 -0.00031
23.35 -0.00042
23.4 -0.00001
23.45 0.00069
23.5 0.00078
23.55 0.00107
23.6 0.00131
23.65 0.00142
23.7 0.001
23.75 0.00073
23.8 0.00044
23.85 -0.00014
23.9 -0.00063
23.95 -0.00094
24 -0.00079
24.05 -0.00018
24.1 -0.00009
24.15 -0.00051
24.2 -0.00072
24.25 -0.00103
24.3 -0.0012
24.35 -0.00098
24.4 -0.00091
24.45 -0.00035
24.5 0.00025
24.55 0.00083
24.6 0.00094
24.65 0.00054
24.7 0.00032
24.75 0.00017
24.8 -0.00018
24.85 0.00013
24.9 0.00028
24.95 0.00084
25 0.00081
25.05 0.00035
25.1 -0.00022
25.15 -0.00031
25.2 0.00011
25.25 0.00047
25.3 0.0011
25.35 0.00156
25.4 0.00165
25.45 0.00171
25.5 0.00118
25.55 0.00101
25.6 0.00076
25.65 0.00044
25.7 0.00038
25.75 0.00069
25.8 0.00119
25.85 0.00172
25.9 0.00237
25.95 0.00281
26 0.00289
26.05 0.00252
26.1 0.00252
26.15 0.00223
26.2 0.00147
26.25 0.00081
26.3 0.00018
26.35 0.00002
26.4 0.00008
26.45 0.00016
26.5 0.00016
26.55 0.00027
26.6 0.00037
26.65 0.00081
26.7 0.00094
26.75 0.00056
26.8 0.00043
26.85 0.00076
26.9 0.00111
26.95 0.00154
27 0.00148
27.05 0.00101
27.1 0.00046
27.15 0.00045
27.2 0.00061
27.25 0.00099
27.3 0.00059
27.35 0.0001
27.4 -0.00016
27.45 -0.00029
27.5 -0.0003
27.55 -0.00047
27.6 -0.00049
27.65 -0.00011
27.7 0.00014
27.75 0.00058
27.8 0.00041
27.85 0.00029
27.9 -0.00011
27.95 -0.00093
28 -0.00171
28.05 -0.00222
28.1 -0.00279
28.15 -0.00328
28.2 -0.00355
28.25 -0.00364
28.3 -0.00382
28.35 -0.00396
28.4 -0.00381
28.45 -0.00324
28.5 -0.00229
28.55 -0.00123
28.6 0.00002
28.65 0.001
28.7 0.00138
28.75 0.00182
28.8 0.00242
28.85 0.00301
28.9 0.00301
28.95 0.00312
29 0.00308
29.05 0.00238
29.1 0.00217
29.15 0.00224
29.2 0.00194
29.25 0.00187
29.3 0.00194
29.35 0.00204
29.4 0.00211
29.45 0.00168
29.5 0.00112
29.55 0.00089
29.6 0.00067
29.65 -0.00002
29.7 -0.0008
29.75 -0.00085
29.8 -0.00096
29.85 -0.00131
29.9 -0.00201
29.95 -0.00271
30 -0.00332
30.05 -0.00399
30.1 -0.00435
30.15 -0.00486
30.2 -0.005
30.25 -0.00561
30.3 -0.00603
30.35 -0.00694
30.4 -0.00782
30.45 -0.00966
30.5 -0.01163
30.55 -0.01379
30.6 -0.01653
30.65 -0.01965
30.7 -0.02335
30.75 -0.0276
30.8 -0.03265
30.85 -0.03771
30.9 -0.04326
30.95 -0.04981
31 -0.05658
31.05 -0.06426
31.1 -0.07248
31.15 -0.08204
31.2 -0.09231
31.25 -0.10356
31.3 -0.11546
31.35 -0.12767
31.4 -0.14047
31.45 -0.15471
31.5 -0.17002
31.55 -0.18586
31.6 -0.20192
31.65 -0.21773
31.7 -0.23356
31.75 -0.249
31.8 -0.26342
31.85 -0.27692
31.9 -0.29011
31.95 -0.30198
32 -0.31216
32.05 -0.32114
32.1 -0.32856
32.15 -0.33378
32.2 -0.3366
32.25 -0.33646
32.3 -0.33416
32.35 -0.32905
32.4 -0.32078
32.45 -0.31018
32.5 -0.29687
32.55 -0.28121
32.6 -0.26338
32.65 -0.24379
32.7 -0.22345
32.75 -0.20234
32.8 -0.18047
32.85 -0.1579
32.9 -0.1347
32.95 -0.11158
33 -0.08839
33.05 -0.06539
33.1 -0.04347
33.15 -0.02293
33.2 -0.00383
33.25 0.0141
33.3 0.03043
33.35 0.04557
33.4 0.05971
33.45 0.07212
33.5 0.08358
33.55 0.09297
33.6 0.10133
33.65 0.10808
33.7 0.11446
33.75 0.12025
33.8 0.12559
33.85 0.12986
33.9 0.1335
33.95 0.13718
34 0.1409
34.05 0.14522
34.1 0.15024
34.15 0.15612
34.2 0.16207
34.25 0.16782
34.3 0.17451
34.35 0.18173
34.4 0.18889
34.45 0.19651
34.5 0.20394
34.55 0.2106
34.6 0.21763
34.65 0.22439
34.7 0.23115
34.75 0.23692
34.8 0.2421
34.85 0.24729
34.9 0.25146
34.95 0.25474
35 0.25808
35.05 0.26048
35.1 0.26244
35.15 0.26333
35.2 0.26343
35.25 0.26278
35.3 0.26152
35.35 0.26043
35.4 0.25911
35.45 0.25656
35.5 0.2536
35.55 0.24961
35.6 0.24493
35.65 0.23956
35.7 0.23376
35.75 0.22843
35.8 0.22286
35.85 0.21715
35.9 0.21126
35.95 0.20482
36 0.19865
36.05 0.19284
36.1 0.18714
36.15 0.18139
36.2 0.1752
36.25 0.16844
36.3 0.16143
36.35 0.15406
36.4 0.14681
36.45 0.14028
36.5 0.134
36.55 0.12818
36.6 0.1223
36.65 0.11677
36.7 0.11116
36.75 0.10531
36.8 0.09961
36.85 0.09427
36.9 0.08912
36.95 0.08353
37 0.07797
37.05 0.073
37.1 0.06777
37.15 0.06254
37.2 0.05785
37.25 0.05307
37.3 0.04802
37.35 0.04345
37.4 0.03874
37.45 0.03475
37.5 0.03076
37.55 0.02676
37.6 0.0228
37.65 0.01947
37.7 0.0162
37.75 0.01288
37.8 0.00936
37.85 0.00589
37.9 0.00286
37.95 0.00002
38 -0.00307
38.05 -0.00579
38.1 -0.00868
38.15 -0.01135
38.2 -0.01397
38.25 -0.01677
38.3 -0.01949
38.35 -0.02197
38.4 -0.02428
38.45 -0.02635
38.5 -0.02816
38.55 -0.02976
38.6 -0.03118
38.65 -0.03207
38.7 -0.0327
38.75 -0.03347
38.8 -0.034
38.85 -0.03428
38.9 -0.03529
38.95 -0.03682
39 -0.03772
39.05 -0.0385
39.1 -0.03959
39.15 -0.04045
39.2 -0.04166
39.25 -0.04288
39.3 -0.04339
39.35 -0.04338
39.4 -0.04369
39.45 -0.04414
39.5 -0.04487
39.55 -0.04549
39.6 -0.0454
39.65 -0.04552
39.7 -0.04505
39.75 -0.04432
39.8 -0.04393
39.85 -0.04362
39.9 -0.04388
39.95 -0.04422
40 -0.0448
40.05 -0.04447
40.1 -0.04372
40.15 -0.0434
40.2 -0.04267
40.25 -0.04209
40.3 -0.04203
40.35 -0.04206
40.4 -0.04235
40.45 -0.04243
40.5 -0.04272
40.55 -0.04277
40.6 -0.04211
40.65 -0.04103
40.7 -0.04024
40.75 -0.03941
40.8 -0.03876
40.85 -0.03781
40.9 -0.03725
40.95 -0.03643
41 -0.03622
41.05 -0.0355
41.1 -0.03455
41.15 -0.0343
41.2 -0.03399
41.25 -0.03337
41.3 -0.03237
41.35 -0.03194
41.4 -0.03197
41.45 -0.03134
41.5 -0.03099
41.55 -0.03101
41.6 -0.03103
41.65 -0.031
41.7 -0.03091
41.75 -0.03062
41.8 -0.03019
41.85 -0.02914
41.9 -0.02788
41.95 -0.0272
42 -0.02659
42.05 -0.02615
42.1 -0.02553
42.15 -0.02528
42.2 -0.02472
42.25 -0.02434
42.3 -0.02427
42.35 -0.02395
42.4 -0.02355
42.45 -0.02285
42.5 -0.02207
42.55 -0.02155
42.6 -0.02086
42.65 -0.02024
42.7 -0.02009
42.75 -0.02
42.8 -0.0201
42.85 -0.02054
42.9 -0.02048
42.95 -0.0206
43 -0.02084
43.05 -0.02078
43.1 -0.02097
43.15 -0.02131
43.2 -0.02116
43.25 -0.02072
43.3 -0.02061
43.35 -0.02049
43.4 -0.02027
43.45 -0.01982
43.5 -0.01893
43.55 -0.01763
43.6 -0.01659
43.65 -0.016
43.7 -0.01546
43.75 -0.015
43.8 -0.01424
43.85 -0.01322
43.9 -0.01278
43.95 -0.01219
44 -0.01159
44.05 -0.01161
44.1 -0.01202
44.15 -0.01262
44.2 -0.01331
44.25 -0.01375
44.3 -0.01441
44.35 -0.01498
44.4 -0.01557
44.45 -0.01558
44.5 -0.01477
44.55 -0.01443
44.6 -0.0135
44.65 -0.01225
44.7 -0.01111
44.75 -0.01076
44.8 -0.01051
44.85 -0.00997
44.9 -0.01006
44.95 -0.0101
45 -0.00982
45.05 -0.00962
45.1 -0.00972
45.15 -0.00962
45.2 -0.00936
45.25 -0.00901
45.3 -0.00832
45.35 -0.00791
45.4 -0.00721
45.45 -0.00702
45.5 -0.00663
45.55 -0.00685
45.6 -0.00673
45.65 -0.00725
45.7 -0.00773
45.75 -0.00803
45.8 -0.00767
45.85 -0.00745
45.9 -0.0072
45.95 -0.00742
46 -0.0077
46.05 -0.00816
46.1 -0.00882
46.15 -0.00953
46.2 -0.00961
46.25 -0.00929
46.3 -0.00843
46.35 -0.00727
46.4 -0.0062
46.45 -0.0052
46.5 -0.00412
46.55 -0.00407
46.6 -0.00467
46.65 -0.00565
46.7 -0.00649
46.75 -0.00672
46.8 -0.00693
46.85 -0.00651
46.9 -0.00606
46.95 -0.0056
47 -0.00563
47.05 -0.00562
47.1 -0.0055
47.15 -0.00518
47.2 -0.00517
47.25 -0.00476
47.3 -0.00426
47.35 -0.00394
47.4 -0.00404
47.45 -0.00393
47.5 -0.00415
47.55 -0.00414
47.6 -0.00445
47.65 -0.00488
47.7 -0.00548
47.75 -0.00529
47.8 -0.00477
47.85 -0.00403
47.9 -0.00304
47.95 -0.00282
48 -0.00274
48.05 -0.00274
48.1 -0.00311
48.15 -0.00297
48.2 -0.00251
48.25 -0.00192
48.3 -0.00194
48.35 -0.00171
48.4 -0.00187
48.45 -0.00255
48.5 -0.00356
48.55 -0.0037
48.6 -0.004
48.65 -0.00442
48.7 -0.00444
48.75 -0.00404
48.8 -0.00418
48.85 -0.00457
48.9 -0.00452
48.95 -0.00445
49 -0.00409
49.05 -0.00363
49.1 -0.00331
49.15 -0.00304
49.2 -0.0024
49.25 -0.00233
49.3 -0.00275
49.35 -0.00278
49.4 -0.00326
49.45 -0.004
49.5 -0.0045
49.55 -0.0047
49.6 -0.0043
49.65 -0.00407
49.7 -0.00416
49.75 -0.00378
49.8 -0.00325
49.85 -0.00275
49.9 -0.00245
49.95 -0.00172
50 -0.00109
50.05 -0.00082
50.1 -0.00099
50.15 -0.00145
50.2 -0.00163
50.25 -0.00193
50.3 -0.00178
50.35 -0.00137
50.4 -0.00066
50.45 -0.00065
50.5 -0.00102
50.55 -0.00171
50.6 -0.00248
50.65 -0.00267
50.7 -0.00235
50.75 -0.00164
50.8 -0.001
50.85 -0.00093
50.9 -0.00066
50.95 -0.00066
51 -0.00054
51.05 -0.00051
51.1 -0.00096
51.15 -0.00146
51.2 -0.00167
51.25 -0.00196
51.3 -0.0025
51.35 -0.00252
51.4 -0.00269
51.45 -0.00298
51.5 -0.00314
51.55 -0.00277
51.6 -0.00221
51.65 -0.00146
51.7 -0.00067
51.75 -0.00003
51.8 -0.00005
51.85 0.00007
51.9 0.00027
51.95 0.00033
52 0.00058
52.05 0.00073
52.1 0.00099
52.15 0.00149
52.2 0.00184
52.25 0.00136
52.3 0.00079
52.35 0.00029
52.4 -0.00026
52.45 -0.00115
52.5 -0.00143
52.55 -0.00144
52.6 -0.00164
52.65 -0.00169
52.7 -0.00187
52.75 -0.00143
52.8 -0.00113
52.85 -0.00054
52.9 -0.00072
52.95 -0.00089
53 -0.00153
53.05 -0.00154
53.1 -0.00101
53.15 -0.00067
53.2 -0.00047
53.25 0.00001
53.3 0.0004
53.35 0.00054
53.4 0.00063
53.45 0.00012
53.5 -0.00034
53.55 -0.0007
53.6 -0.00095
53.65 -0.00138
53.7 -0.00204
53.75 -0.00253
53.8 -0.00264
53.85 -0.00283
53.9 -0.00318
53.95 -0.00287
54 -0.0024
54.05 -0.00243
54.1 -0.00265
54.15 -0.0025
54.2 -0.00206
54.25 -0.00197
54.3 -0.00138
54.35 -0.00099
54.4 -0.00067
54.45 -0.00032
54.5 0.00011
54.55 0.00031
54.6 -0.0001
54.65 -0.00009
54.7 -0.00043
54.75 -0.00043
54.8 -0.00023
54.85 0.00027
54.9 0.00021
54.95 0.00013
55 -0.00037
55.05 -0.00053
55.1 -0.00056
55.15 -0.00015
55.2 0.00003
55.25 0.00035
55.3 0.00041
55.35 0.00025
55.4 -0.00014
55.45 -0.0006
55.5 -0.00122
55.55 -0.0015
55.6 -0.00131
55.65 -0.00135
55.7 -0.00122
55.75 -0.00122
55.8 -0.00165
55.85 -0.00231
55.9 -0.00262
55.95 -0.00227
56 -0.00218
56.05 -0.0023
56.1 -0.00262
56.15 -0.00264
56.2 -0.00242
56.25 -0.00209
56.3 -0.00159
56.35 -0.001
56.4 -0.00002
56.45 0.00055
56.5 0.00083
56.55 0.00127
56.6 0.00193
56.65 0.0019
56.7 0.00122
56.75 0.00058
56.8 -0.00005
56.85 -0.00092
56.9 -0.00164
56.95 -0.00214
57 -0.00198
57.05 -0.00192
57.1 -0.00195
57.15 -0.00158
57.2 -0.00092
57.25 -0.00071
57.3 -0.00053
57.35 -0.0007
57.4 -0.00102
57.45 -0.00092
57.5 -0.00053
57.55 -0.00053
57.6 -0.00004
57.65 0.00068
57.7 0.00075
57.75 0.00053
57.8 0.0005
57.85 0.00039
57.9 0.0007
57.95 0.0008
58 0.00094
58.05 0.00127
58.1 0.00119
58.15 0.00058
58.2 0.00033
58.25 0.00013
58.3 0.00021
58.35 0.00041
58.4 0.00006
58.45 0.00013
58.5 0.00067
58.55 0.00138
58.6 0.00204
58.65 0.00253
58.7 0.00287
58.75 0.00278
58.8 0.00271
58.85 0.00231
58.9 0.00231
58.95 0.00193
59 0.00176
59.05 0.00179
59.1 0.00196
59.15 0.00147
59.2 0.00081
59.25 0.00081
59.3 0.00064
59.35 0.00086
59.4 0.00065
59.45 0.00034
59.5 0.00011
59.55 -0.00048
59.6 -0.00082
59.65 -0.00147
59.7 -0.00167
59.75 -0.00151
59.8 -0.00157
59.85 -0.00149
59.9 -0.00091
59.95 -0.00057
60 0.00009
60.05 0.00086
60.1 0.00163
60.15 0.00236
60.2 0.00232
60.25 0.00208
60.3 0.00209
60.35 0.00177
60.4 0.00178
60.45 0.00152
60.5 0.00094
60.55 0.00006
60.6 -0.0008
60.65 -0.0017
60.7 -0.00244
60.75 -0.00316
60.8 -0.00356
60.85 -0.0031
60.9 -0.00251
60.95 -0.00183
61 -0.00114
61.05 -0.00013
61.1 -0
61.15 -0.00029
61.2 -0.00088
61.25 -0.00078
61.3 -0.00047
61.35 -0.00022
61.4 0.00015
61.45 0.00052
61.5 0.00047
61.55 0.00071
61.6 0.00119
61.65 0.00145
61.7 0.00142
61.75 0.00078
61.8 0.00013
61.85 -0.0008
61.9 -0.00128
61.95 -0.00164
62 -0.00134
62.05 -0.00119
62.1 -0.00135
62.15 -0.00089
62.2 -0.001
62.25 -0.00147
62.3 -0.0016
62.35 -0.0014
62.4 -0.00154
62.45 -0.00116
62.5 -0.00107
62.55 -0.00066
62.6 -0.00068
62.65 -0.00096
62.7 -0.00153
62.75 -0.00226
62.8 -0.00203
62.85 -0.00164
62.9 -0.00075
62.95 0.00015
63 0.00109
63.05 0.00159
63.1 0.00224
63.15 0.00267
63.2 0.00285
63.25 0.00291
63.3 0.00315
63.35 0.00289
63.4 0.00238
63.45 0.00187
63.5 0.00135
63.55 0.00135
63.6 0.00119
63.65 0.00052
63.7 -0.00036
63.75 -0.00053
63.8 -0.00082
63.85 -0.00131
63.9 -0.00204
63.95 -0.0026
64 -0.00278
64.05 -0.00272
64.1 -0.00249
64.15 -0.00239
64.2 -0.00265
64.25 -0.00249
64.3 -0.00257
64.35 -0.00261
64.4 -0.00267
64.45 -0.00216
64.5 -0.00206
64.55 -0.00155
64.6 -0.00113
64.65 -0.00118
64.7 -0.00078
64.75 -0.00041
64.8 -0.00045
64.85 -0.00001
64.9 -0.00017
64.95 -0.00043
65 -0.0004
65.05 -0.00016
65.1 0.0005
65.15 0.00115
65.2 0.00193
65.25 0.00185
65.3 0.00209
65.35 0.00188
65.4 0.00189
65.45 0.00148
65.5 0.00119
65.55 0.00127
65.6 0.00097
65.65 0.00037
65.7 0.00015
65.75 0.00038
65.8 0.00013
65.85 -0.00007
65.9 -0.00038
65.95 -0.00041
66 -0.0001
66.05 -0.00002
66.1 0.00053
66.15 0.00101
66.2 0.00098
66.25 0.00112
66.3 0.00076
66.35 0.00032
66.4 -0.00028
66.45 -0.00052
66.5 -0.00114
66.55 -0.00129
66.6 -0.00171
66.65 -0.00193
66.7 -0.00187
66.75 -0.00156
66.8 -0.00141
66.85 -0.00112
66.9 -0.0009
66.95 -0.00121
67 -0.00106
67.05 -0.00094
67.1 -0.00113
67.15 -0.00129
67.2 -0.00144
67.25 -0.00154
67.3 -0.00127
67.35 -0.00126
67.4 -0.00123
67.45 -0.00134
67.5 -0.00139
67.55 -0.00133
67.6 -0.00077
67.65 -0.0001
67.7 0.00014
67.75 0.00075
67.8 0.0014
67.85 0.00173
67.9 0.00201
67.95 0.00151
68 0.00117
68.05 0.0012
68.1 0.00149
68.15 0.00121
68.2 0.00067
68.25 -0.00005
68.3 -0.00029
68.35 -0.00073
68.4 -0.00075
68.45 -0.00058
68.5 -0.00001
68.55 0.00005
68.6 -0.00035
68.65 -0.0005
68.7 -0.00095
68.75 -0.00098
68.8 -0.00081
68.85 -0.00016
68.9 0.00009
68.95 0.00039
69 0.00028
69.05 0.00007
69.1 0.00043
69.15 0.00047
69.2 0.00008
69.25 0.00004
69.3 -0.00023
69.35 0.00015
69.4 0.00091
69.45 0.00128
69.5 0.00127
69.55 0.00127
69.6 0.00147
69.65 0.00127
69.7 0.00139
69.75 0.00184
69.8 0.00191
69.85 0.00136
69.9 0.00113
69.95 0.00116
70 0.00102
70.05 0.00108
70.1 0.00149
70.15 0.00132
70.2 0.00141
70.25 0.00178
70.3 0.00235
70.35 0.00257
70.4 0.00223
70.45 0.00146
70.5 0.00114
70.55 0.00092
70.6 0.00022
70.65 -0.00068
70.7 -0.00149
70.75 -0.00209
70.8 -0.00225
70.85 -0.00176
70.9 -0.00131
70.95 -0.00081
71 -0.00065
71.05 -0.00014
71.1 -0.00036
71.15 -0.00064
71.2 -0.00114
71.25 -0.00176
71.3 -0.00216
71.35 -0.00188
71.4 -0.00125
71.45 -0.00058
71.5 0.00029
71.55 0.00059
71.6 0.00057
71.65 0.00067
71.7 0.00069
71.75 0.00013
71.8 -0.00008
71.85 -0.00056
71.9 -0.00085
71.95 -0.00108
72 -0.00111
72.05 -0.00069
72.1 0.00011
72.15 0.00014
72.2 0.0004
72.25 0.00096
72.3 0.00144
72.35 0.00173
72.4 0.00131
72.45 0.00141
72.5 0.0012
72.55 0.00049
72.6 0.00047
72.65 0.00064
72.7 0.00096
72.75 0.00105
72.8 0.00144
72.85 0.00134
72.9 0.00162
72.95 0.00202
73 0.00183
73.05 0.00171
73.1 0.00183
73.15 0.00198
73.2 0.00167
73.25 0.0011
73.3 0.00055
73.35 -0.00011
73.4 -0.00006
73.45 -0.00011
73.5 0.00003
73.55 -0.00004
73.6 -0.00035
73.65 -0.00063
73.7 -0.00029
73.75 -0.00006
73.8 -0.00026
73.85 -0.00002
73.9 -0.00027
73.95 -0.00038
74 0
74.05 -0.00016
74.1 -0.00057
74.15 -0.0006
74.2 -0.00061
74.25 -0.00039
74.3 -0.00066
74.35 -0.00075
74.4 -0.00063
74.45 -0.00024
74.5 -0.00012
74.55 -0.00017
74.6 -0.00072
74.65 -0.00135
74.7 -0.00177
74.75 -0.00174
74.8 -0.00138
74.85 -0.00152
74.9 -0.00135
74.95 -0.00104
75 -0.00033
75.05 0.0005
75.1 0.00112
75.15 0.00166
75.2 0.00152
75.25 0.00165
75.3 0.00129
75.35 0.00112
75.4 0.00087
75.45 0.00053
75.5 -0.00024
75.55 -0.0004
75.6 -0.00018
75.65 -0.00025
75.7 -0.00043
75.75 -0.00009
75.8 0.00015
75.85 -0.00025
75.9 -0.00021
75.95 0.0002
76 0.00091
76.05 0.00132
76.1 0.00137
76.15 0.00087
76.2 -0.00001
76.25 -0.00113
76.3 -0.00192
76.35 -0.00186
76.4 -0.00123
76.45 -0.00098
76.5 -0.00083
76.55 -0.00026
76.6 0.00051
76.65 0.00045
76.7 -0.00018
76.75 -0.00043
76.8 -0.001
76.85 -0.00169
76.9 -0.00199
76.95 -0.00246
77 -0.00205
77.05 -0.00184
77.1 -0.00199
77.15 -0.00164
77.2 -0.00106
77.25 -0.00108
77.3 -0.00069
77.35 -0.00071
77.4 -0.00026
77.45 0.0003
77.5 0.00044
77.55 0.00034
77.6 0.00027
77.65 -0.00005
77.7 -0.00028
77.75 -0.00037
77.8 -0.00088
77.85 -0.0015
77.9 -0.00155
77.95 -0.00115
78 -0.00116
78.05 -0.00151
78.1 -0.00199
78.15 -0.0024
78.2 -0.00284
78.25 -0.00315
78.3 -0.00358
78.35 -0.00337
78.4 -0.00296
78.45 -0.00232
78.5 -0.0019
78.55 -0.00161
78.6 -0.00085
78.65 0.00014
78.7 0.00128
78.75 0.00163
78.8 0.0019
78.85 0.00245
78.9 0.00268
78.95 0.00244
79 0.00236
79.05 0.00213
79.1 0.00188
79.15 0.00145
79.2 0.0007
79.25 0.00042
79.3 0.00024
79.35 0.00022
79.4 -0.00001
79.45 0.00026
79.5 -0.00001
79.55 -0.00035
79.6 -0.00083
79.65 -0.00126
79.7 -0.00109
79.75 -0.00072
79.8 -0.00026
79.85 -0.00013
79.9 0.00029
79.95 0.00038
80 0.00024
80.05 -0.00022
80.1 -0.00048
80.15 -0.00089
80.2 -0.0007
80.25 -0.00045
80.3 -0.00035
80.35 -0.00043
80.4 0.00004
80.45 0.00035
80.5 0.00013
80.55 -0.00036
80.6 -0.00088
80.65 -0.00156
80.7 -0.00181
80.75 -0.00215
80.8 -0.00241
80.85 -0.00285
80.9 -0.00273
80.95 -0.00235
81 -0.002
81.05 -0.00139
81.1 -0.00092
81.15 -0.0001
81.2 0.00094
81.25 0.00193
81.3 0.00243
81.35 0.00256
81.4 0.00243
81.45 0.00191
81.5 0.00187
81.55 0.00134
81.6 0.00065
81.65 0.00049
81.7 0.00023
81.75 -0.00021
81.8 -0.00087
81.85 -0.00124
81.9 -0.00135
81.95 -0.001
82 -0.00082
82.05 -0.00048
82.1 -0.00066
82.15 -0.00077
82.2 -0.00091
82.25 -0.00081
82.3 -0.00053
82.35 -0.00061
82.4 -0.00042
82.45 -0.00013
82.5 -0.00017
82.55 -0.00051
82.6 -0.00071
82.65 -0.00058
82.7 -0.00002
82.75 0.00076
82.8 0.00152
82.85 0.00151
82.9 0.00134
82.95 0.00146
83 0.00187
83.05 0.00236
83.1 0.00288
83.15 0.00303
83.2 0.00306
83.25 0.0029
83.3 0.00261
83.35 0.00224
83.4 0.00182
83.45 0.00147
83.5 0.00087
83.55 0.00018
83.6 -0.00072
83.65 -0.00167
83.7 -0.00248
83.75 -0.00255
83.8 -0.00218
83.85 -0.00159
83.9 -0.00069
83.95 0.00042
84 0.00093
84.05 0.00152
84.1 0.00132
84.15 0.00068
84.2 -0.00005
84.25 -0.0009
84.3 -0.00084
84.35 -0.00032
84.4 -0.00012
84.45 0.00034
84.5 0.00076
84.55 0.00056
84.6 0.00024
84.65 0.00007
84.7 -0.00017
84.75 -0.00047
84.8 -0.0006
84.85 -0.0006
84.9 -0.0005
84.95 -0.00016
85 -0.00023
85.05 0.00003
85.1 0.00012
85.15 -0.00019
85.2 -0.0007
85.25 -0.00066
85.3 -0.00056
85.35 -0.00001
85.4 -0.00009
85.45 -0.00051
85.5 -0.00058
85.55 -0.00109
85.6 -0.00093
85.65 -0.00068
85.7 -0.00089
85.75 -0.00082
85.8 -0.00102
85.85 -0.00107
85.9 -0.00133
85.95 -0.00187
86 -0.00203
86.05 -0.00148
86.1 -0.00063
86.15 -0.00019
86.2 -0.0003
86.25 -0.00011
86.3 -0.00005
86.35 -0.00013
86.4 0.00036
86.45 0.0003
86.5 0.00011
86.55 -0.00019
86.6 -0.00062
86.65 -0.00082
86.7 -0.00087
86.75 -0.00098
86.8 -0.00124
86.85 -0.00136
86.9 -0.00086
86.95 -0.00013
87 0.00074
87.05 0.0015
87.1 0.00179
87.15 0.00149
87.2 0.00129
87.25 0.0008
87.3 0.00073
87.35 0.00048
87.4 0.00046
87.45 0.00024
87.5 -0.00006
87.55 -0.00038
87.6 -0.00034
87.65 -0.00071
87.7 -0.00092
87.75 -0.00145
87.8 -0.00166
87.85 -0.0012
87.9 -0.00049
87.95 -0.00021
88 0.00012
88.05 0.00069
88.1 0.00084
88.15 0.00062
88.2 0.0004
88.25 0.0001
88.3 0.00042
88.35 0.00066
88.4 0.00033
88.45 -0.00005
88.5 -0.00005
88.55 0.00028
88.6 0.00078
88.65 0.00064
88.7 0.00102
88.75 0.00065
88.8 0.0004
88.85 0.0007
88.9 0.00101
88.95 0.00123
89 0.0014
89.05 0.00171
89.1 0.00212
89.15 0.00252
89.2 0.0024
89.25 0.00253
89.3 0.00285
89.35 0.00312
89.4 0.00296
89.45 0.00286
89.5 0.00286
89.55 0.0029
89.6 0.0027
89.65 0.00257
89.7 0.00215
89.75 0.00166
89.8 0.00158
89.85 0.00101
89.9 0.00008
89.95 -0.00035
90 -0.00096
90.05 -0.0011
90.1 -0.00096
90.15 -0.00117
90.2 -0.00173
90.25 -0.00228
90.3 -0.0022
90.35 -0.00187
90.4 -0.00191
90.45 -0.00232
90.5 -0.0028
90.55 -0.00273
90.6 -0.00247
90.65 -0.00246
90.7 -0.00216
90.75 -0.00207
90.8 -0.00167
90.85 -0.00089
90.9 -0.00039
90.95 -0.00044
91 -0.00094
91.05 -0.00104
91.1 -0.00109
91.15 -0.00062
91.2 -0.00055
91.25 0.00001
91.3 0.00025
91.35 0.00017
91.4 -0.00023
91.45 -0.00085
91.5 -0.00128
91.55 -0.00129
91.6 -0.00086
91.65 -0.00016
91.7 0.00006
91.75 -0.00002
91.8 -0.00002
91.85 0.00024
91.9 0.00032
91.95 0.0005
92 0.00086
92.05 0.00101
92.1 0.00088
92.15 0.00072
92.2 0.00033
92.25 0.00031
92.3 0.00039
92.35 0.00061
92.4 0.00091
92.45 0.00088
92.5 0.00086
92.55 0.00045
92.6 -0.00002
92.65 -0.00079
92.7 -0.00144
92.75 -0.00162
92.8 -0.002
92.85 -0.00192
92.9 -0.00152
92.95 -0.00132
93 -0.00136
93.05 -0.00138
93.1 -0.00079
93.15 -0.00084
93.2 -0.00053
93.25 0.00018
93.3 0.00012
93.35 -0.00015
93.4 -0.00039
93.45 -0.00096
93.5 -0.00094
93.55 -0.00088
93.6 -0.00046
93.65 -0.00026
93.7 0.0001
93.75 0.00046
93.8 0.00102
93.85 0.00171
93.9 0.00213
93.95 0.00274
94 0.00285
94.05 0.00307
94.1 0.00296
94.15 0.00235
94.2 0.00203
94.25 0.0021
94.3 0.00177
94.35 0.00173
94.4 0.00183
94.45 0.00204
94.5 0.00159
94.55 0.00089
94.6 0.00007
94.65 -0.00028
94.7 -0.00035
94.75 -0.00039
94.8 -0.00075
94.85 -0.00051
94.9 -0.00057
94.95 -0.00026
95 0.0003
95.05 0.00019
95.1 0.00041
95.15 0.00068
95.2 0.00074
95.25 0.00084
95.3 0.00032
95.35 -0.00028
95.4 -0.00066
95.45 -0.00088
95.5 -0.0005
95.55 -0.00024
95.6 -0.00007
95.65 0.00001
95.7 -0.0002
95.75 0.00007
95.8 -0.00001
95.85 -0.00025
95.9 -0.00043
95.95 -0.00067
96 -0.00114
96.05 -0.00187
96.1 -0.00251
96.15 -0.0027
96.2 -0.00218
96.25 -0.00176
96.3 -0.00127
96.35 -0.00113
96.4 -0.00068
96.45 -0.00036
96.5 -0.0004
96.55 -0.00071
96.6 -0.00126
96.65 -0.00122
96.7 -0.00145
96.75 -0.00097
96.8 -0.00013
96.85 0.00061
96.9 0.00129
96.95 0.00201
97 0.00279
97.05 0.00305
97.1 0.00322
97.15 0.00285
97.2 0.00263
97.25 0.00248
97.3 0.00209
97.35 0.00115
97.4 0.00017
97.45 -0.00061
97.5 -0.00087
97.55 -0.00106
97.6 -0.00131
97.65 -0.00143
97.7 -0.00154
97.75 -0.00167
97.8 -0.00115
97.85 -0.00043
97.9 -0.00039
97.95 -0.00035
98 -0.00076
98.05 -0.00075
98.1 -0.00121
98.15 -0.0011
98.2 -0.00065
98.25 -0.0004
98.3 -0.00005
98.35 0.00066
98.4 0.0008
98.45 0.00038
98.5 0.00017
98.55 0.00007
98.6 -0.00016
98.65 -0.00001
98.7 0.00009
98.75 -0.00003
98.8 -0.00022
98.85 -0.00037
98.9 -0.00009
98.95 0.00018
99 -0.00001
99.05 -0.00026
99.1 -0.00076
99.15 -0.00133
99.2 -0.00108
99.25 -0.00102
99.3 -0.00062
99.35 -0.00082
99.4 -0.0006
99.45 -0.00055
99.5 -0.00036
99.55 -0.00012
99.6 -0.00023
99.65 -0.00034
99.7 -0.00074
99.75 -0.00092
99.8 -0.00107
99.85 -0.00085
99.9 -0.00095
99.95 -0.00085
