0 0
0.05 0.00085
0.1 0.00221
0.15 0.00324
0.2 0.0044
0.25 0.00481
0.3 0.00497
0.35 0.005
0.4 0.005
0.45 0.00458
0.5 0.00427
0.55 0.00395
0.6 0.00424
0.65 0.00468
0.7 0.00481
0.75 0.00485
0.8 0.00465
0.85 0.00444
0.9 0.00427
0.95 0.00407
1 0.00417
1.05 0.00465
1.1 0.0049
1.15 0.00498
1.2 0.00475
1.25 0.00508
1.3 0.00565
1.35 0.00586
1.4 0.00605
1.45 0.00577
1.5 0.00524
1.55 0.00453
1.6 0.0043
1.65 0.00446
1.7 0.0041
1.75 0.00404
1.8 0.00374
1.85 0.00329
1.9 0.00285
1.95 0.0029
2 0.00279
2.05 0.0026
2.1 0.00274
2.15 0.00294
2.2 0.0036
2.25 0.00369
2.3 0.00422
2.35 0.00399
2.4 0.00358
2.45 0.00348
2.5 0.00309
2.55 0.00267
2.6 0.00241
2.65 0.00222
2.7 0.0018
2.75 0.00159
2.8 0.00141
2.85 0.00183
2.9 0.00221
2.95 0.00203
3 0.00171
3.05 0.0013
3.1 0.00084
3.15 0.00083
3.2 0.00121
3.25 0.00202
3.3 0.00256
3.35 0.00272
3.4 0.00334
3.45 0.00411
3.5 0.00434
3.55 0.00419
3.6 0.00432
3.65 0.00463
3.7 0.00479
3.75 0.00456
3.8 0.00468
3.85 0.0043
3.9 0.00379
3.95 0.00333
4 0.00295
4.05 0.00311
4.1 0.00302
4.15 0.00318
4.2 0.00286
4.25 0.00306
4.3 0.00307
4.35 0.00291
4.4 0.00311
4.45 0.0036
4.5 0.00334
4.55 0.00304
4.6 0.00305
4.65 0.00322
4.7 0.00358
4.75 0.00312
4.8 0.00268
4.85 0.00256
4.9 0.00226
4.95 0.00218
5 0.00201
5.05 0.0016
5.1 0.00087
5.15 0.00061
5.2 0.00072
5.25 0.0004
5.3 -0.00028
5.35 -0.00098
5.4 -0.00104
5.45 -0.00054
5.5 -0.00045
5.55 -0.00054
5.6 -0.00062
5.65 -0.00043
5.7 -0.00016
5.75 -0.00019
5.8 -0.00036
5.85 -0.00066
5.9 -0.00071
5.95 -0.00093
6 -0.00121
6.05 -0.00088
6.1 -0.0001
6.15 0.001
6.2 0.00194
6.25 0.0028
6.3 0.00323
6.35 0.0028
6.4 0.00209
6.45 0.00176
6.5 0.00144
6.55 0.00127
6.6 0.00147
6.65 0.00158
6.7 0.00188
6.75 0.0019
6.8 0.0014
6.85 0.00151
6.9 0.00137
6.95 0.00169
7 0.00128
7.05 0.00144
7.1 0.00123
7.15 0.00059
7.2 0.00029
7.25 0.00042
7.3 0.00015
7.35 0.00047
7.4 0.00096
7.45 0.00127
7.5 0.00143
7.55 0.00102
7.6 0.00028
7.65 -0.00028
7.7 -0.00023
7.75 -0.00055
7.8 -0.00055
7.85 -0.0005
7.9 -0.00045
7.95 -0.00079
8 -0.00051
8.05 -0.00043
8.1 -0.00057
8.15 -0.0006
8.2 -0.00009
8.25 0.00045
8.3 0.00098
8.35 0.00154
8.4 0.00186
8.45 0.00233
8.5 0.00197
8.55 0.00171
8.6 0.00117
8.65 0.00082
8.7 0.00057
8.75 0.00066
8.8 0.00043
8.85 0.00052
8.9 0.00067
8.95 0.00062
9 0.00034
9.05 0.00016
9.1 -0.00016
9.15 -0.00062
9.2 -0.00099
9.25 -0.00094
9.3 -0.00114
9.35 -0.0011
9.4 -0.00052
9.45 0.00033
9.5 0.00123
9.55 0.0022
9.6 0.00272
9.65 0.00268
9.7 0.00242
9.75 0.00208
9.8 0.00159
9.85 0.00108
9.9 0.00065
9.95 0.00065
10 0.00021
10.05 0.00033
10.1 0.00069
10.15 0.00099
10.2 0.00112
10.25 0.00062
10.3 0.00039
10.35 0.00058
10.4 0.0004
10.45 -0.0001
10.5 -0.00024
10.55 -0.00035
10.6 -0.00039
10.65 -0.0005
10.7 -0.00104
10.75 -0.00162
10.8 -0.00172
10.85 -0.00195
10.9 -0.00147
10.95 -0.00076
11 -0.00026
11.05 -0.00017
11.1 0.00034
11.15 0.00116
11.2 0.00128
11.25 0.00139
11.3 0.00129
11.35 0.00112
11.4 0.0007
11.45 0.00045
11.5 -0.00002
11.55 -0.00057
11.6 -0.0006
11.65 -0.00095
11.7 -0.00129
11.75 -0.00127
11.8 -0.00069
11.85 -0.00022
11.9 -0.00039
11.95 -0.00037
12 0.00006
12.05 0.00081
12.1 0.00126
12.15 0.00104
12.2 0.00076
12.25 0.00005
12.3 -0.00011
12.35 -0.0002
12.4 -0.00042
12.45 -0.00081
12.5 -0.00076
12.55 -0.00019
12.6 0.00014
12.65 0.00063
12.7 0.0014
12.75 0.0019
12.8 0.00174
12.85 0.00158
12.9 0.0015
12.95 0.00089
13 0.00062
13.05 0.00021
13.1 -0.00025
13.15 -0.00067
13.2 -0.00051
13.25 -0.00055
13.3 -0.00061
13.35 -0.0002
13.4 -0.00042
13.45 -0.00105
13.5 -0.00128
13.55 -0.00171
13.6 -0.00137
13.65 -0.00141
13.7 -0.00161
13.75 -0.00173
13.8 -0.00137
13.85 -0.00051
13.9 -0.00009
13.95 -0.00016
14 0.00023
14.05 0.00093
14.1 0.00165
14.15 0.00164
14.2 0.00154
14.25 0.00105
14.3 0.00021
14.35 -0.00048
14.4 -0.00076
14.45 -0.00073
14.5 -0.00044
14.55 -0.00032
14.6 0.00006
14.65 -0.00012
14.7 0.0001
14.75 -0.00024
14.8 -0.00062
14.85 -0.00054
14.9 0.00006
14.95 0.00015
15 0.00038
15.05 0.001
15.1 0.00162
15.15 0.00149
15.2 0.00161
15.25 0.00107
15.3 0.00113
15.35 0.00093
15.4 0.00063
15.45 0.00067
15.5 0.00109
15.55 0.00116
15.6 0.00095
15.65 0.00021
15.7 -0.00019
15.75 0.00007
15.8 0
15.85 -0
15.9 -0.00002
15.95 0.00042
16 0.00055
16.05 0.00022
16.1 -0.00011
16.15 -0.00006
16.2 0.00036
16.25 0.0006
16.3 0.00111
16.35 0.00123
16.4 0.00117
16.45 0.00084
16.5 0.00077
16.55 0.00115
16.6 0.00086
16.65 0.00009
16.7 -0.00075
16.75 -0.00131
16.8 -0.0021
16.85 -0.00209
16.9 -0.00242
16.95 -0.00204
17 -0.00178
17.05 -0.00133
17.1 -0.00092
17.15 -0.00022
17.2 -0.00026
17.25 -0.00053
17.3 -0.00017
17.35 0.00056
17.4 0.00135
17.45 0.00211
17.5 0.00194
17.55 0.00173
17.6 0.00099
17.65 0.00043
17.7 -0.00024
17.75 -0.00042
17.8 -0.00081
17.85 -0.00091
17.9 -0.00049
17.95 -0.00034
18 -0.0001
18.05 -0.00036
18.1 -0.00051
18.15 -0.00053
18.2 -0.00092
18.25 -0.0013
18.3 -0.0011
18.35 -0.00134
18.4 -0.00126
18.45 -0.00151
18.5 -0.00128
18.55 -0.00068
18.6 0.00014
18.65 0.00041
18.7 0.0002
18.75 0.0003
18.8 0.00033
18.85 0.00063
18.9 0.0006
18.95 0.00087
19 0.00138
19.05 0.00159
19.1 0.00118
19.15 0.00096
19.2 0.00065
19.25 0.00016
19.3 -0.00069
19.35 -0.00131
19.4 -0.00175
19.45 -0.00215
19.5 -0.00263
19.55 -0.0026
19.6 -0.00234
19.65 -0.00165
19.7 -0.00084
19.75 0.00003
19.8 0.00073
19.85 0.00087
19.9 0.00064
19.95 0.00047
20 0.00054
20.05 0.00099
20.1 0.0015
20.15 0.00153
20.2 0.00155
20.25 0.00092
20.3 0.00074
20.35 0.00052
20.4 -0.00018
20.45 -0.00095
20.5 -0.00124
20.55 -0.00124
20.6 -0.001
20.65 -0.00071
20.7 -0.00083
20.75 -0.0007
20.8 -0.00043
20.85 -0.00072
20.9 -0.00076
20.95 -0.00033
21 -0.0002
21.05 -0.00056
21.1 -0.00102
21.15 -0.00093
21.2 -0.00089
21.25 -0.00055
21.3 -0.00064
21.35 -0.00022
21.4 0.0002
21.45 0.00072
21.5 0.00108
21.55 0.00094
21.6 0.00123
21.65 0.00179
21.7 0.00216
21.75 0.00248
21.8 0.00253
21.85 0.00196
21.9 0.00192
21.95 0.00174
22 0.00176
22.05 0.00111
22.1 0.00063
22.15 -0.00027
22.2 -0.00098
22.25 -0.00139
22.3 -0.00155
22.35 -0.00194
22.4 -0.00194
22.45 -0.00134
22.5 -0.00112
22.55 -0.00128
22.6 -0.00087
22.65 -0.0009
22.7 -0.00049
22.75 0.00021
22.8 0.00013
22.85 0.00049
22.9 0.0009
22.95 0.00125
23 0.00179
23.05 0.00177
23.1 0.00195
23.15 0.00168
23.2 0.00141
23.25 0.00159
23.3 0.00151
23.35 0.00093
23.4 0.00051
23.45 0.00016
23.5 -0.00033
23.55 -0.00073
23.6 -0.00052
23.65 -0.00022
23.7 -0.00017
23.75 -0.00036
23.8 -0.00087
23.85 -0.00063
23.9 -0.00064
23.95 -0.00088
24 -0.00099
24.05 -0.00153
24.1 -0.00125
24.15 -0.00047
24.2 0.00039
24.25 0.00098
24.3 0.001
24.35 0.00046
24.4 -0.00043
24.45 -0.00096
24.5 -0.00086
24.55 -0.00069
24.6 -0.00034
24.65 0.00005
24.7 0.00041
24.75 0.00065
24.8 0.00084
24.85 0.00088
24.9 0.00126
24.95 0.00178
25 0.002
25.05 0.00178
25.1 0.00152
25.15 0.00073
25.2 -0.00005
25.25 -0.00091
25.3 -0.00135
25.35 -0.00188
25.4 -0.00202
25.45 -0.00217
25.5 -0.00175
25.55 -0.00157
25.6 -0.00128
25.65 -0.00121
25.7 -0.00144
25.75 -0.00161
25.8 -0.0012
25.85 -0.00069
25.9 -0.00025
25.95 -0.00006
26 0.00022
26.05 0.0003
26.1 0.00073
26.15 0.00093
26.2 0.00134
26.25 0.00151
26.3 0.00198
26.35 0.00232
26.4 0.00215
26.45 0.0022
26.5 0.00231
26.55 0.00226
26.6 0.00151
26.65 0.0009
26.7 0.0006
26.75 0.00009
26.8 -0.00078
26.85 -0.00103
26.9 -0.00067
26.95 -0.00093
27 -0.00148
27.05 -0.00175
27.1 -0.0014
27.15 -0.00098
27.2 -0.00096
27.25 -0.00075
27.3 -0.00074
27.35 -0.00028
27.4 0.00004
27.45 0.00047
27.5 0.00115
27.55 0.00111
27.6 0.00105
27.65 0.00061
27.7 0.00052
27.75 0.00055
27.8 0.00096
27.85 0.00143
27.9 0.00147
27.95 0.00183
28 0.00227
28.05 0.00202
28.1 0.00117
28.15 0.00032
28.2 -0.00044
28.25 -0.00066
28.3 -0.0008
28.35 -0.00068
28.4 -0.00051
28.45 -0.00076
28.5 -0.00134
28.55 -0.00189
28.6 -0.00229
28.65 -0.00273
28.7 -0.00274
28.75 -0.00243
28.8 -0.00221
28.85 -0.00217
28.9 -0.00191
28.95 -0.00149
29 -0.00125
29.05 -0.00121
29.1 -0.00146
29.15 -0.00171
29.2 -0.00123
29.25 -0.00112
29.3 -0.00047
29.35 -0.00002
29.4 -0.00018
29.45 -0.00014
29.5 -0.00027
29.55 -0.00017
29.6 -0.00032
29.65 -0.00072
29.7 -0.00139
29.75 -0.0013
29.8 -0.00071
29.85 -0.00056
29.9 -0.00001
29.95 0.00053
30 0.00129
30.05 0.00151
30.1 0.00179
30.15 0.00154
30.2 0.00152
30.25 0.00133
30.3 0.00087
30.35 0.00028
30.4 0.00029
30.45 -0.00026
30.5 -0.00044
30.55 -0.00105
30.6 -0.00132
30.65 -0.00191
30.7 -0.00224
30.75 -0.00278
30.8 -0.00335
30.85 -0.00299
30.9 -0.00215
30.95 -0.00175
31 -0.00155
31.05 -0.00174
31.1 -0.00145
31.15 -0.00133
31.2 -0.00107
31.25 -0.00083
31.3 -0.00082
31.35 -0.00068
31.4 -0.00001
31.45 0.00042
31.5 0.00057
31.55 0.00095
31.6 0.00103
31.65 0.00128
31.7 0.00177
31.75 0.00151
31.8 0.00136
31.85 0.00075
31.9 0.0008
31.95 0.00109
32 0.00134
32.05 0.00154
32.1 0.0019
32.15 0.00181
32.2 0.00145
32.25 0.00089
32.3 0.00029
32.35 0.00017
32.4 0.00008
32.45 0.00013
32.5 0.00057
32.55 0.00043
32.6 -0.00012
32.65 -0.00009
32.7 0.00034
32.75 0.00095
32.8 0.001
32.85 0.00121
32.9 0.00146
32.95 0.00192
33 0.00179
33.05 0.00158
33.1 0.00148
33.15 0.00101
33.2 0.00096
33.25 0.00063
33.3 0.00044
33.35 0.00075
33.4 0.0004
33.45 0.00051
33.5 0.00061
33.55 0.00034
33.6 -0.00009
33.65 -0.00051
33.7 -0.00048
33.75 -0.00079
33.8 -0.00102
33.85 -0.00151
33.9 -0.00177
33.95 -0.00182
34 -0.00171
34.05 -0.00173
34.1 -0.00144
34.15 -0.00075
34.2 -0.00062
34.25 -0.00046
34.3 -0.00023
34.35 -0.00041
34.4 -0.0009
34.45 -0.00165
34.5 -0.00209
34.55 -0.00257
34.6 -0.00288
34.65 -0.00311
34.7 -0.00288
34.75 -0.00228
34.8 -0.00193
34.85 -0.002
34.9 -0.00189
34.95 -0.00161
35 -0.00114
35.05 -0.00096
35.1 -0.00035
35.15 0.00055
35.2 0.00143
35.25 0.00218
35.3 0.00249
35.35 0.00202
35.4 0.00189
35.45 0.00199
35.5 0.00191
35.55 0.00213
35.6 0.00245
35.65 0.00273
35.7 0.0027
35.75 0.00202
35.8 0.0014
35.85 0.00096
35.9 0.00062
35.95 0.00065
36 0.00107
36.05 0.0016
36.1 0.00138
36.15 0.00085
36.2 0.00036
36.25 0.00035
36.3 0.00009
36.35 -0.00017
36.4 -0.00028
36.45 0.00009
36.5 0.00007
36.55 0.00015
36.6 0.00046
36.65 0.0006
36.7 0.0004
36.75 0.00037
36.8 0.00077
36.85 0.00119
36.9 0.00084
36.95 0.00068
37 0.00041
37.05 0.0002
37.1 -0.00006
37.15 -0.00041
37.2 -0.00092
37.25 -0.00161
37.3 -0.00143
37.35 -0.00172
37.4 -0.00171
37.45 -0.00197
37.5 -0.00174
37.55 -0.00102
37.6 -0.00005
37.65 0.00035
37.7 0.00046
37.75 0.00086
37.8 0.00151
37.85 0.00212
37.9 0.00257
37.95 0.00264
38 0.00235
38.05 0.00219
38.1 0.00205
38.15 0.00149
38.2 0.00148
38.25 0.00131
38.3 0.00083
38.35 0.00021
38.4 -0.00063
38.45 -0.00078
38.5 -0.00045
38.55 0.00026
38.6 0.00107
38.65 0.0014
38.7 0.00124
38.75 0.00107
38.8 0.0013
38.85 0.00093
38.9 0.0002
38.95 -0.0008
39 -0.00189
39.05 -0.00238
39.1 -0.0023
39.15 -0.00194
39.2 -0.00114
39.25 -0.00034
39.3 0.00064
39.35 0.00069
39.4 0.00044
39.45 -0.00015
39.5 -0.00078
39.55 -0.00116
39.6 -0.00111
39.65 -0.00108
39.7 -0.00118
39.75 -0.00081
39.8 -0.00034
39.85 -0.00005
39.9 0.00042
39.95 0.00098
40 0.00113
40.05 0.00061
40.1 0.00067
40.15 0.00113
40.2 0.00125
40.25 0.00149
40.3 0.00169
40.35 0.00119
40.4 0.00106
40.45 0.00093
40.5 0.00062
40.55 0.00029
40.6 -0.00013
40.65 -0.00005
40.7 -0.00023
40.75 -0.00037
40.8 -0.00064
40.85 -0.00133
40.9 -0.0022
40.95 -0.00263
41 -0.00241
41.05 -0.00212
41.1 -0.00174
41.15 -0.0018
41.2 -0.00123
41.25 -0.00067
41.3 -0.00047
41.35 -0.00013
41.4 0.00046
41.45 0.00087
41.5 0.00053
41.55 -0.00006
41.6 -0.00001
41.65 -0.00024
41.7 -0.0001
41.75 -0.00034
41.8 -0.00081
41.85 -0.00097
41.9 -0.00127
41.95 -0.00151
42 -0.00186
42.05 -0.00152
42.1 -0.00138
42.15 -0.00099
42.2 -0.00024
42.25 0.00028
42.3 0.00029
42.35 -0.00012
42.4 0.00003
42.45 -0.00042
42.5 -0.00103
42.55 -0.00092
42.6 -0.00094
42.65 -0.00056
42.7 0.00008
42.75 0.00032
42.8 -0.00008
42.85 -0.0005
42.9 -0.00063
42.95 -0.00057
43 -0.0003
43.05 0.00011
43.1 0.00013
43.15 -0.00034
43.2 -0.00076
43.25 -0.00073
43.3 -0.00033
43.35 0.00039
43.4 0.00075
43.45 0.00041
43.5 0.00008
43.55 0.00018
43.6 0.0002
43.65 0.0006
43.7 0.00028
43.75 0.00005
43.8 -0.00033
43.85 -0.00065
43.9 -0.00073
43.95 -0.00086
44 -0.00042
44.05 -0.00037
44.1 -0.00037
44.15 -0.00015
44.2 0.00025
44.25 0.0003
44.3 0.00013
44.35 0.00044
44.4 0.0002
44.45 -0.00049
44.5 -0.00041
44.55 0.00012
44.6 0.00019
44.65 0.00051
44.7 0.00058
44.75 0.00006
44.8 -0
44.85 -0.00044
44.9 -0.00108
44.95 -0.00151
45 -0.00147
45.05 -0.00097
45.1 -0.00052
45.15 -0.00023
45.2 0.00009
45.25 0.00002
45.3 -0.00014
45.35 -0.00006
45.4 0.00029
45.45 0.00034
45.5 0.00056
45.55 0.00061
45.6 0.00088
45.65 0.00047
45.7 0.00012
45.75 0.0002
45.8 0.00057
45.85 0.00085
45.9 0.0013
45.95 0.00152
46 0.00121
46.05 0.00122
46.1 0.00159
46.15 0.00204
46.2 0.00164
46.25 0.00081
46.3 -0.00013
46.35 -0.0005
46.4 -0.00047
46.45 -0.00079
46.5 -0.00111
46.55 -0.00141
46.6 -0.00169
46.65 -0.00206
46.7 -0.00249
46.75 -0.00278
46.8 -0.00319
46.85 -0.00326
46.9 -0.00346
46.95 -0.00301
47 -0.00275
47.05 -0.00253
47.1 -0.0022
47.15 -0.00181
47.2 -0.00134
47.25 -0.00115
47.3 -0.0014
47.35 -0.00091
47.4 -0.00084
47.45 -0.00042
47.5 0.00017
47.55 0.00005
47.6 -0.0002
47.65 -0.00077
47.7 -0.00111
47.75 -0.00102
47.8 -0.00037
47.85 -0.00031
47.9 -0.00075
47.95 -0.00045
48 -0.00013
48.05 0.00016
48.1 0.00054
48.15 0.00105
48.2 0.00086
48.25 0.00067
48.3 0.00055
48.35 0.00054
48.4 0.00097
48.45 0.00157
48.5 0.00155
48.55 0.00126
48.6 0.00046
48.65 0.00009
48.7 -0.00025
48.75 -0.00074
48.8 -0.0005
48.85 -0.00046
48.9 0.0001
48.95 -0.00003
49 0.0004
49.05 0.00046
49.1 0.00014
49.15 -0.00047
49.2 -0.00091
49.25 -0.00149
49.3 -0.00127
49.35 -0.00082
49.4 -0.00056
49.45 -0.00067
49.5 -0.00021
49.55 0.00061
49.6 0.00158
49.65 0.00248
49.7 0.00278
49.75 0.00228
49.8 0.00157
49.85 0.00116
49.9 0.0008
49.95 0.00071
50 0.00035
50.05 -0.00008
50.1 -0.0001
50.15 -0.00048
50.2 -0.00089
50.25 -0.00098
50.3 -0.00105
50.35 -0.00148
50.4 -0.00156
50.45 -0.00144
50.5 -0.00078
50.55 -0.00017
50.6 0.00074
50.65 0.00162
50.7 0.00198
50.75 0.00245
50.8 0.00237
50.85 0.00188
50.9 0.00152
50.95 0.00067
51 0.00042
51.05 0.00058
51.1 0.00012
51.15 -0.00059
51.2 -0.00072
51.25 -0.00112
51.3 -0.0012
51.35 -0.00162
51.4 -0.00138
51.45 -0.00089
51.5 -0.00054
51.55 0.00012
51.6 0.00085
51.65 0.00117
51.7 0.0016
51.75 0.00203
51.8 0.00236
51.85 0.00194
51.9 0.00172
51.95 0.00115
52 0.00045
52.05 -0.00048
52.1 -0.00061
52.15 -0.00114
52.2 -0.00183
52.25 -0.00248
52.3 -0.00256
52.35 -0.00252
52.4 -0.00266
52.45 -0.00298
52.5 -0.00313
52.55 -0.00345
52.6 -0.00373
52.65 -0.00379
52.7 -0.00338
52.75 -0.00258
52.8 -0.0023
52.85 -0.00226
52.9 -0.0018
52.95 -0.00099
53 0.00013
53.05 0.00079
53.1 0.00145
53.15 0.00186
53.2 0.00227
53.25 0.00265
53.3 0.00273
53.35 0.00268
53.4 0.00197
53.45 0.00181
53.5 0.00188
53.55 0.0018
53.6 0.00208
53.65 0.00194
53.7 0.00185
53.75 0.00161
53.8 0.00154
53.85 0.00157
53.9 0.0016
53.95 0.00131
54 0.00102
54.05 0.00107
54.1 0.00142
54.15 0.00154
54.2 0.00194
54.25 0.00245
54.3 0.00227
54.35 0.00168
54.4 0.00109
54.45 0.00055
54.5 -0.0003
54.55 -0.00106
54.6 -0.00147
54.65 -0.00185
54.7 -0.00232
54.75 -0.00214
54.8 -0.00238
54.85 -0.00202
54.9 -0.00116
54.95 -0.00033
55 -0.00014
55.05 0.00035
55.1 0.0011
55.15 0.00162
55.2 0.00168
55.25 0.00139
55.3 0.00093
55.35 0.00039
55.4 0.00026
55.45 -0.0003
55.5 -0.00081
55.55 -0.00142
55.6 -0.00161
55.65 -0.00181
55.7 -0.00138
55.75 -0.0008
55.8 -0.00056
55.85 -0.00059
55.9 -0.00053
55.95 -0.00037
56 0
56.05 0.00006
56.1 -0.00024
56.15 -0.00066
56.2 -0.00091
56.25 -0.00075
56.3 -0.00043
56.35 0.00011
56.4 0.00033
56.45 0.00042
56.5 0.0001
56.55 -0.00035
56.6 -0.00057
56.65 -0.00088
56.7 -0.00074
56.75 -0.00053
56.8 -0.00034
56.85 -0.00048
56.9 -0.00015
56.95 0.00058
57 0.00122
57.05 0.00203
57.1 0.00281
57.15 0.00303
57.2 0.00331
57.25 0.00365
57.3 0.0032
57.35 0.00309
57.4 0.00297
57.45 0.00239
57.5 0.00181
57.55 0.00152
57.6 0.00126
57.65 0.00064
57.7 -0.00019
57.75 -0.00052
57.8 -0.00074
57.85 -0.00083
57.9 -0.00101
57.95 -0.00185
58 -0.00268
58.05 -0.0033
58.1 -0.00358
58.15 -0.00439
58.2 -0.00525
58.25 -0.00687
58.3 -0.00899
58.35 -0.01089
58.4 -0.01248
58.45 -0.01428
58.5 -0.0162
58.55 -0.0186
58.6 -0.02209
58.65 -0.02617
58.7 -0.03039
58.75 -0.0352
58.8 -0.04035
58.85 -0.04582
58.9 -0.05253
58.95 -0.06025
59 -0.06908
59.05 -0.07822
59.1 -0.08842
59.15 -0.09882
59.2 -0.10959
59.25 -0.12139
59.3 -0.13421
59.35 -0.14713
59.4 -0.16031
59.45 -0.17405
59.5 -0.18754
59.55 -0.20134
59.6 -0.2153
59.65 -0.22932
59.7 -0.24299
59.75 -0.25595
59.8 -0.26749
59.85 -0.27802
59.9 -0.28668
59.95 -0.29346
60 -0.29929
60.05 -0.3035
60.1 -0.30518
60.15 -0.30539
60.2 -0.30348
60.25 -0.29969
60.3 -0.29337
60.35 -0.28503
60.4 -0.27504
60.45 -0.26327
60.5 -0.25031
60.55 -0.23594
60.6 -0.22057
60.65 -0.20404
60.7 -0.18641
60.75 -0.16801
60.8 -0.14961
60.85 -0.13049
60.9 -0.1117
60.95 -0.09362
61 -0.07637
61.05 -0.05917
61.1 -0.04252
61.15 -0.02675
61.2 -0.0118
61.25 0.00239
61.3 0.01513
61.35 0.02676
61.4 0.03806
61.45 0.04911
61.5 0.05987
61.55 0.06952
61.6 0.07825
61.65 0.08642
61.7 0.09479
61.75 0.1029
61.8 0.11126
61.85 0.11997
61.9 0.12926
61.95 0.13838
62 0.14765
62.05 0.15724
62.1 0.16745
62.15 0.17808
62.2 0.18844
62.25 0.19919
62.3 0.20911
62.35 0.21919
62.4 0.22915
62.45 0.23858
62.5 0.24705
62.55 0.25455
62.6 0.26132
62.65 0.26808
62.7 0.2746
62.75 0.28017
62.8 0.28434
62.85 0.28784
62.9 0.29032
62.95 0.29171
63 0.2918
63.05 0.29098
63.1 0.28953
63.15 0.28701
63.2 0.28383
63.25 0.28021
63.3 0.27634
63.35 0.2724
63.4 0.2676
63.45 0.2619
63.5 0.25552
63.55 0.24922
63.6 0.24265
63.65 0.23523
63.7 0.22708
63.75 0.21918
63.8 0.2114
63.85 0.20332
63.9 0.19511
63.95 0.18652
64 0.17791
64.05 0.16935
64.1 0.1609
64.15 0.15243
64.2 0.14432
64.25 0.13629
64.3 0.12919
64.35 0.12199
64.4 0.11505
64.45 0.10827
64.5 0.10211
64.55 0.09599
64.6 0.09015
64.65 0.08455
64.7 0.07908
64.75 0.07381
64.8 0.06888
64.85 0.06363
64.9 0.05893
64.95 0.05377
65 0.04835
65.05 0.04309
65.1 0.03858
65.15 0.03404
65.2 0.02943
65.25 0.02543
65.3 0.02136
65.35 0.01708
65.4 0.01335
65.45 0.0098
65.5 0.00665
65.55 0.004
65.6 0.00159
65.65 -0.00118
65.7 -0.00363
65.75 -0.00586
65.8 -0.00801
65.85 -0.01055
65.9 -0.01322
65.95 -0.01609
66 -0.01925
66.05 -0.02178
66.1 -0.02458
66.15 -0.02714
66.2 -0.02924
66.25 -0.03121
66.3 -0.0325
66.35 -0.03354
66.4 -0.03462
66.45 -0.03583
66.5 -0.03642
66.55 -0.03741
66.6 -0.03832
66.65 -0.03895
66.7 -0.0392
66.75 -0.03921
66.8 -0.03992
66.85 -0.04107
66.9 -0.04186
66.95 -0.04276
67 -0.04296
67.05 -0.04283
67.1 -0.04316
67.15 -0.04295
67.2 -0.04327
67.25 -0.04404
67.3 -0.04431
67.35 -0.0441
67.4 -0.04346
67.45 -0.04274
67.5 -0.04247
67.55 -0.04231
67.6 -0.04265
67.65 -0.04292
67.7 -0.04336
67.75 -0.04311
67.8 -0.04254
67.85 -0.04237
67.9 -0.04234
67.95 -0.04191
68 -0.0418
68.05 -0.04171
68.1 -0.04118
68.15 -0.04018
68.2 -0.03929
68.25 -0.03882
68.3 -0.03789
68.35 -0.03747
68.4 -0.03666
68.45 -0.03611
68.5 -0.03602
68.55 -0.0359
68.6 -0.03536
68.65 -0.03496
68.7 -0.03495
68.75 -0.0349
68.8 -0.03485
68.85 -0.03466
68.9 -0.03435
68.95 -0.0343
69 -0.03394
69.05 -0.03305
69.1 -0.03235
69.15 -0.03131
69.2 -0.03076
69.25 -0.0305
69.3 -0.02984
69.35 -0.02913
69.4 -0.028
69.45 -0.02752
69.5 -0.02714
69.55 -0.02637
69.6 -0.02526
69.65 -0.02488
69.7 -0.02482
69.75 -0.02475
69.8 -0.02413
69.85 -0.02407
69.9 -0.02369
69.95 -0.02316
70 -0.02239
70.05 -0.02135
70.1 -0.02083
70.15 -0.02004
70.2 -0.01986
70.25 -0.01931
70.3 -0.01856
70.35 -0.01847
70.4 -0.01812
70.45 -0.01804
70.5 -0.01794
70.55 -0.01824
70.6 -0.018
70.65 -0.01816
70.7 -0.01777
70.75 -0.0173
70.8 -0.01694
70.85 -0.01636
70.9 -0.01618
70.95 -0.01641
71 -0.01614
71.05 -0.01594
71.1 -0.01559
71.15 -0.0157
71.2 -0.01554
71.25 -0.01563
71.3 -0.0157
71.35 -0.01528
71.4 -0.01463
71.45 -0.01459
71.5 -0.01487
71.55 -0.01491
71.6 -0.01461
71.65 -0.01418
71.7 -0.01361
71.75 -0.01341
71.8 -0.0137
71.85 -0.01404
71.9 -0.01364
71.95 -0.01306
72 -0.01311
72.05 -0.01306
72.1 -0.01256
72.15 -0.01173
72.2 -0.01131
72.25 -0.01156
72.3 -0.01127
72.35 -0.01069
72.4 -0.01049
72.45 -0.0105
72.5 -0.01019
72.55 -0.01046
72.6 -0.01044
72.65 -0.01011
72.7 -0.00951
72.75 -0.00885
72.8 -0.0089
72.85 -0.00905
72.9 -0.00901
72.95 -0.009
73 -0.00876
73.05 -0.0084
73.1 -0.00799
73.15 -0.00808
73.2 -0.00795
73.25 -0.0076
73.3 -0.00759
73.35 -0.00749
73.4 -0.00779
73.45 -0.0075
73.5 -0.0069
73.55 -0.00611
73.6 -0.00542
73.65 -0.00486
73.7 -0.00468
73.75 -0.00482
73.8 -0.00488
73.85 -0.00558
73.9 -0.00634
73.95 -0.00736
74 -0.00838
74.05 -0.00861
74.1 -0.00849
74.15 -0.00809
74.2 -0.0079
74.25 -0.00799
74.3 -0.00824
74.35 -0.00848
74.4 -0.0083
74.45 -0.00781
74.5 -0.00732
74.55 -0.00718
74.6 -0.00714
74.65 -0.00734
74.7 -0.00752
74.75 -0.007
74.8 -0.00615
74.85 -0.00604
74.9 -0.00598
74.95 -0.00583
75 -0.00565
75.05 -0.00559
75.1 -0.00588
75.15 -0.00583
75.2 -0.00555
75.25 -0.00479
75.3 -0.00418
75.35 -0.0033
75.4 -0.00313
75.45 -0.00303
75.5 -0.00268
75.55 -0.003
75.6 -0.00315
75.65 -0.00319
75.7 -0.00329
75.75 -0.00361
75.8 -0.0039
75.85 -0.00378
75.9 -0.004
75.95 -0.00372
76 -0.00338
76.05 -0.00338
76.1 -0.00391
76.15 -0.0046
76.2 -0.0049
76.25 -0.00482
76.3 -0.00426
76.35 -0.00407
76.4 -0.00415
76.45 -0.00463
76.5 -0.00432
76.55 -0.00363
76.6 -0.00303
76.65 -0.00249
76.7 -0.00218
76.75 -0.00219
76.8 -0.00253
76.85 -0.00324
76.9 -0.00331
76.95 -0.0032
77 -0.00359
77.05 -0.00379
77.1 -0.00381
77.15 -0.00349
77.2 -0.00333
77.25 -0.00302
77.3 -0.00252
77.35 -0.00214
77.4 -0.0019
77.45 -0.00224
77.5 -0.00243
77.55 -0.00228
77.6 -0.00171
77.65 -0.00106
77.7 -0.00059
77.75 -0.0004
77.8 -0.00004
77.85 -0.00026
77.9 -0.00099
77.95 -0.0014
78 -0.00209
78.05 -0.00204
78.1 -0.00235
78.15 -0.00291
78.2 -0.00364
78.25 -0.00422
78.3 -0.00456
78.35 -0.00426
78.4 -0.00378
78.45 -0.00364
78.5 -0.00385
78.55 -0.00432
78.6 -0.00453
78.65 -0.00484
78.7 -0.00425
78.75 -0.00341
78.8 -0.00285
78.85 -0.00229
78.9 -0.00148
78.95 -0.00131
79 -0.00092
79.05 -0.00032
79.1 0.00043
79.15 0.00049
79.2 0.00024
79.25 0.00042
79.3 -0.0001
79.35 -0.00003
79.4 -0.00058
79.45 -0.00115
79.5 -0.00186
79.55 -0.00266
79.6 -0.0029
79.65 -0.00338
79.7 -0.00353
79.75 -0.00309
79.8 -0.00233
79.85 -0.00163
79.9 -0.00084
79.95 -0.00029
80 -0.00019
80.05 -0.0003
80.1 -0.00081
80.15 -0.0014
80.2 -0.0016
80.25 -0.0019
80.3 -0.00224
80.35 -0.00237
80.4 -0.0025
80.45 -0.00254
80.5 -0.00228
80.55 -0.00243
80.6 -0.00271
80.65 -0.00233
80.7 -0.00169
80.75 -0.00081
80.8 -0.00002
80.85 0.00019
80.9 0.00037
80.95 0.00065
81 0.00098
81.05 0.00078
81.1 0.00013
81.15 -0.00037
81.2 -0.00097
81.25 -0.00174
81.3 -0.00243
81.35 -0.00304
81.4 -0.00298
81.45 -0.00225
81.5 -0.00115
81.55 -0.00011
81.6 0.00029
81.65 0.00071
81.7 0.00072
81.75 0.00089
81.8 0.00135
81.85 0.00145
81.9 0.00137
81.95 0.00114
82 0.0005
82.05 0.00014
82.1 -0.00038
82.15 -0.00041
82.2 -0.00006
82.25 -0.00036
82.3 -0.00064
82.35 -0.00107
82.4 -0.00077
82.45 -0.00018
82.5 0.00038
82.55 0.00061
82.6 0.00107
82.65 0.00173
82.7 0.00152
82.75 0.00125
82.8 0.00047
82.85 0.00011
82.9 -0.00011
82.95 -0.0006
83 -0.00073
83.05 -0.0006
83.1 -0.00081
83.15 -0.00086
83.2 -0.00106
83.25 -0.00114
83.3 -0.00154
83.35 -0.00163
83.4 -0.00127
83.45 -0.00115
83.5 -0.00061
83.55 -0.00025
83.6 -0.00013
83.65 0.00044
83.7 0.00111
83.75 0.00098
83.8 0.00074
83.85 0.0004
83.9 0.00014
83.95 -0.00033
84 -0.00017
84.05 -0.00036
84.1 -0.0002
84.15 -0.00062
84.2 -0.00049
84.25 -0.00042
84.3 -0.00072
84.35 -0.00067
84.4 -0.00022
84.45 0.00004
84.5 0.00021
84.55 0.00054
84.6 0.00076
84.65 0.00089
84.7 0.00086
84.75 0.00125
84.8 0.00121
84.85 0.00151
84.9 0.0019
84.95 0.00244
85 0.00211
85.05 0.00157
85.1 0.0006
85.15 -0.00005
85.2 -0.00075
85.25 -0.00133
85.3 -0.00201
85.35 -0.00216
85.4 -0.00263
85.45 -0.00303
85.5 -0.00288
85.55 -0.00241
85.6 -0.00188
85.65 -0.00139
85.7 -0.00049
85.75 0.00035
85.8 0.00042
85.85 0.0008
85.9 0.00069
85.95 0.00082
86 0.00113
86.05 0.00124
86.1 0.00096
86.15 0.00033
86.2 0.00029
86.25 0.00026
86.3 -0.00006
86.35 -0.00061
86.4 -0.00069
86.45 -0.00021
86.5 -0.00029
86.55 -0.0007
86.6 -0.00114
86.65 -0.00178
86.7 -0.00187
86.75 -0.00182
86.8 -0.00148
86.85 -0.00089
86.9 -0.00058
86.95 -0.00059
87 -0.00006
87.05 -0.00015
87.1 -0.00065
87.15 -0.00066
87.2 -0.00102
87.25 -0.00069
87.3 -0.00002
87.35 0.00064
87.4 0.00049
87.45 -0.00001
87.5 -0.00066
87.55 -0.00052
87.6 0.00006
87.65 0.00014
87.7 0.00045
87.75 0.00097
87.8 0.00085
87.85 0.00079
87.9 0.00049
87.95 0.00039
88 0.00054
88.05 0.00043
88.1 -0.00016
88.15 -0.00071
88.2 -0.00152
88.25 -0.00154
88.3 -0.00177
88.35 -0.00178
88.4 -0.00148
88.45 -0.00074
88.5 -0.00006
88.55 0.00006
88.6 0.00021
88.65 0.00043
88.7 0.00104
88.75 0.00126
88.8 0.00119
88.85 0.00113
88.9 0.00103
88.95 0.00097
89 0.00036
89.05 0.00042
89.1 0.00013
89.15 -0.00022
89.2 -0.00052
89.25 -0.00092
89.3 -0.0011
89.35 -0.00137
89.4 -0.0019
89.45 -0.00165
89.5 -0.00174
89.55 -0.00121
89.6 -0.00079
89.65 -0.00007
89.7 0.00078
89.75 0.00172
89.8 0.00228
89.85 0.00278
89.9 0.00317
89.95 0.00293
90 0.00202
90.05 0.00153
90.1 0.00077
90.15 0.00048
90.2 -0.00012
90.25 -0.00077
90.3 -0.00092
90.35 -0.00108
90.4 -0.00155
90.45 -0.00209
90.5 -0.00208
90.55 -0.00212
90.6 -0.00149
90.65 -0.00072
90.7 0.00007
90.75 0.00029
90.8 0.00055
90.85 0.00102
90.9 0.00141
90.95 0.00127
91 0.00099
91.05 0.00053
91.1 -0.00001
91.15 -0.00036
91.2 -0.00018
91.25 -0.00053
91.3 -0.00023
91.35 -0.00026
91.4 -0.00056
91.45 -0.00085
91.5 -0.00048
91.55 -0.00062
91.6 -0.00102
91.65 -0.00128
91.7 -0.00157
91.75 -0.00208
91.8 -0.00251
91.85 -0.00297
91.9 -0.00294
91.95 -0.00252
92 -0.00212
92.05 -0.0018
92.1 -0.00161
92.15 -0.00151
92.2 -0.0012
92.25 -0.00131
92.3 -0.00172
92.35 -0.00222
92.4 -0.00196
92.45 -0.0019
92.5 -0.00162
92.55 -0.0015
92.6 -0.00092
92.65 0.00007
92.7 0.00054
92.75 0.00121
92.8 0.00108
92.85 0.00135
92.9 0.00189
92.95 0.00174
93 0.00102
93.05 0.00018
93.1 -0.00003
93.15 -0.00052
93.2 -0.001
93.25 -0.00142
93.3 -0.00104
93.35 -0.00095
93.4 -0.00105
93.45 -0.00092
93.5 -0.00079
93.55 -0.00088
93.6 -0.00109
93.65 -0.00123
93.7 -0.00117
93.75 -0.00142
93.8 -0.00132
93.85 -0.0013
93.9 -0.00089
93.95 -0.00041
94 0.00021
94.05 0.00065
94.1 0.00134
94.15 0.00162
94.2 0.00123
94.25 0.00068
94.3 0.00033
94.35 0.00056
94.4 0.00099
94.45 0.00072
94.5 0.00102
94.55 0.00165
94.6 0.00206
94.65 0.00217
94.7 0.00243
94.75 0.00223
94.8 0.00209
94.85 0.00174
94.9 0.00141
94.95 0.00132
95 0.00072
95.05 0.00035
95.1 -0.0002
95.15 -0.00067
95.2 -0.00129
95.25 -0.00177
95.3 -0.00215
95.35 -0.00207
95.4 -0.00187
95.45 -0.00164
95.5 -0.00091
95.55 0.00008
95.6 0.00081
95.65 0.00141
95.7 0.0022
95.75 0.00212
95.8 0.00153
95.85 0.00147
95.9 0.00116
95.95 0.00096
96 0.00082
96.05 0.00112
96.1 0.00132
96.15 0.00088
96.2 0.00089
96.25 0.00083
96.3 0.00047
96.35 -0.00009
96.4 -0.0006
96.45 -0.0012
96.5 -0.00129
96.55 -0.00095
96.6 -0.00068
96.65 -0.00044
96.7 0
96.75 0.00019
96.8 0.00062
96.85 0.00075
96.9 0.00025
96.95 -0.00021
97 -0.00094
97.05 -0.00177
97.1 -0.0026
97.15 -0.00315
97.2 -0.00323
97.25 -0.00274
97.3 -0.00214
97.35 -0.00159
97.4 -0.00113
97.45 -0.00069
97.5 0.00002
97.55 0.00068
97.6 0.00088
97.65 0.00111
97.7 0.0011
97.75 0.00063
97.8 0.0005
97.85 0.00008
97.9 -0.00065
97.95 -0.00138
98 -0.00211
98.05 -0.00272
98.1 -0.00282
98.15 -0.00265
98.2 -0.00193
98.25 -0.00145
98.3 -0.00055
98.35 0.00024
98.4 0.00117
98.45 0.00136
98.5 0.00182
98.55 0.00199
98.6 0.00155
98.65 0.00168
98.7 0.00198
98.75 0.00227
98.8 0.00267
98.85 0.00254
98.9 0.00193
98.95 0.00165
99 0.00106
99.05 0.00025
99.1 -0.00043
99.15 -0.00128
99.2 -0.00215
99.25 -0.00254
99.3 -0.00266
99.35 -0.00296
99.4 -0.00283
99.45 -0.00275
99.5 -0.00238
99.55 -0.00161
99.6 -0.00102
99.65 -0.00075
99.7 -0.00067
99.75 -0.00034
99.8 -0.00028
99.85 0.00005
99.9 -0.00013
99.95 0.00013
