0 0
0.05 0.00129
0.1 0.0024
0.15 0.00336
0.2 0.00516
0.25 0.00657
0.3 0.00818
0.35 0.00851
0.4 0.00869
0.45 0.00907
0.5 0.00982
0.55 0.00998
0.6 0.01031
0.65 0.01053
0.7 0.01074
0.75 0.0113
0.8 0.01207
0.85 0.01174
0.9 0.01115
0.95 0.01047
1 0.00899
1.05 0.00728
1.1 0.00623
1.15 0.00526
1.2 0.00489
1.25 0.00462
1.3 0.0047
1.35 0.00469
1.4 0.00418
1.45 0.00384
1.5 0.00364
1.55 0.00448
1.6 0.00437
1.65 0.00451
1.7 0.00426
1.75 0.00408
1.8 0.00443
1.85 0.00417
1.9 0.00344
1.95 0.00292
2 0.00267
2.05 0.00255
2.1 0.00211
2.15 0.00165
2.2 0.00143
2.25 0.00207
2.3 0.00349
2.35 0.00445
2.4 0.00461
2.45 0.00516
2.5 0.00552
2.55 0.0053
2.6 0.00481
2.65 0.00426
2.7 0.00362
2.75 0.00308
2.8 0.00316
2.85 0.00366
2.9 0.00414
2.95 0.00468
3 0.00464
3.05 0.00403
3.1 0.0041
3.15 0.00351
3.2 0.00276
3.25 0.00259
3.3 0.00292
3.35 0.00262
3.4 0.00209
3.45 0.00227
3.5 0.00203
3.55 0.00186
3.6 0.00246
3.65 0.00255
3.7 0.00287
3.75 0.00327
3.8 0.00387
3.85 0.00412
3.9 0.00468
3.95 0.00419
4 0.00341
4.05 0.00255
4.1 0.00131
4.15 0.00063
4.2 0.001
4.25 0.0016
4.3 0.00208
4.35 0.00316
4.4 0.00375
4.45 0.00379
4.5 0.00353
4.55 0.00269
4.6 0.00276
4.65 0.00295
4.7 0.00325
4.75 0.00327
4.8 0.0035
4.85 0.00411
4.9 0.00368
4.95 0.00396
5 0.00353
5.05 0.00339
5.1 0.00325
5.15 0.00291
5.2 0.00272
5.25 0.00332
5.3 0.00433
5.35 0.00521
5.4 0.00559
5.45 0.00596
5.5 0.00508
5.55 0.00394
5.6 0.00348
5.65 0.00341
5.7 0.0028
5.75 0.00165
5.8 0.00169
5.85 0.00235
5.9 0.00344
5.95 0.00328
6 0.00343
6.05 0.00391
6.1 0.00411
6.15 0.00386
6.2 0.00328
6.25 0.00352
6.3 0.0031
6.35 0.00251
6.4 0.00254
6.45 0.00318
6.5 0.00394
6.55 0.00451
6.6 0.00487
6.65 0.00529
6.7 0.00554
6.75 0.00486
6.8 0.00359
6.85 0.00262
6.9 0.00133
6.95 0.00028
7 -0.0002
7.05 0.00015
7.1 -0.00006
7.15 -0.00084
7.2 -0.0011
7.25 -0.00183
7.3 -0.00232
7.35 -0.0019
7.4 -0.00204
7.45 -0.0023
7.5 -0.00218
7.55 -0.00165
7.6 -0.00167
7.65 -0.00108
7.7 0.00004
7.75 0.00011
7.8 0.00013
7.85 0.00044
7.9 0.00011
7.95 -0.00082
8 -0.00119
8.05 -0.00051
8.1 -0.00048
8.15 0.00041
8.2 0.00111
8.25 0.00089
8.3 0.0012
8.35 0.00076
8.4 0.00074
8.45 0.00102
8.5 0.00169
8.55 0.00254
8.6 0.00323
8.65 0.00316
8.7 0.00249
8.75 0.00169
8.8 0.00142
8.85 0.0016
8.9 0.00177
8.95 0.00241
9 0.00333
9.05 0.00371
9.1 0.00328
9.15 0.00304
9.2 0.00309
9.25 0.00269
9.3 0.00274
9.35 0.00238
9.4 0.00244
9.45 0.00155
9.5 0.00008
9.55 -0.00099
9.6 -0.00112
9.65 -0.00158
9.7 -0.00189
9.75 -0.00121
9.8 -0.00113
9.85 -0.00102
9.9 -0.00031
9.95 0.00031
10 0.001
10.05 0.00119
10.1 0.0012
10.15 0.0014
10.2 0.00131
10.25 0.00162
10.3 0.00108
10.35 0.00095
10.4 0.00009
10.45 0.00025
10.5 0.00025
10.55 0.00093
10.6 0.00176
10.65 0.00235
10.7 0.00209
10.75 0.00249
10.8 0.00278
10.85 0.00223
10.9 0.0024
10.95 0.00276
11 0.00249
11.05 0.0016
11.1 0.0007
11.15 0.00051
11.2 0.00069
11.25 0.00149
11.3 0.00109
11.35 0.00011
11.4 -0.00051
11.45 -0.00165
11.5 -0.00203
11.55 -0.00202
11.6 -0.00149
11.65 -0.00033
11.7 0.00034
11.75 0.00108
11.8 0.00203
11.85 0.00224
11.9 0.00153
11.95 0.00088
12 0.00104
12.05 0.00092
12.1 0.00022
12.15 -0.00093
12.2 -0.00202
12.25 -0.0021
12.3 -0.00204
12.35 -0.00142
12.4 -0.00134
12.45 -0.00156
12.5 -0.00221
12.55 -0.00294
12.6 -0.003
12.65 -0.00294
12.7 -0.00282
12.75 -0.0025
12.8 -0.00271
12.85 -0.00253
12.9 -0.00177
12.95 -0.00174
13 -0.00213
13.05 -0.00173
13.1 -0.00203
13.15 -0.00136
13.2 -0.00137
13.25 -0.00048
13.3 0.00053
13.35 0.00035
13.4 0.00053
13.45 0.00076
13.5 0.00025
13.55 0.00047
13.6 -0.00009
13.65 -0.00073
13.7 -0.0009
13.75 -0.00107
13.8 -0.00054
13.85 -0.00059
13.9 -0.00112
13.95 -0.00065
14 -0.00092
14.05 -0.0016
14.1 -0.00267
14.15 -0.00273
14.2 -0.00266
14.25 -0.00286
14.3 -0.00247
14.35 -0.00202
14.4 -0.00126
14.45 -0.0014
14.5 -0.002
14.55 -0.00193
14.6 -0.00104
14.65 -0.001
14.7 -0.00037
14.75 -0.00053
14.8 -0.0006
14.85 0.00001
14.9 0.00007
14.95 -0.00065
15 -0.00125
15.05 -0.00203
15.1 -0.00263
15.15 -0.0025
15.2 -0.0017
15.25 -0.00093
15.3 -0.00088
15.35 -0.00058
15.4 -0.00051
15.45 0.00024
15.5 0.0013
15.55 0.00148
15.6 0.00221
15.65 0.00273
15.7 0.00219
15.75 0.00214
15.8 0.00236
15.85 0.00208
15.9 0.00182
15.95 0.00196
16 0.00136
16.05 0.00118
16.1 0.00124
16.15 0.00175
16.2 0.00204
16.25 0.00267
16.3 0.00307
16.35 0.0023
16.4 0.00108
16.45 -0.00009
16.5 -0.00121
16.55 -0.00187
16.6 -0.0019
16.65 -0.0016
16.7 -0.00062
16.75 0.00027
16.8 0.00073
16.85 0.00173
16.9 0.00151
16.95 0.00172
17 0.00102
17.05 0.00081
17.1 0.0006
17.15 0.00086
17.2 0.00158
17.25 0.00168
17.3 0.00169
17.35 0.00089
17.4 0.00105
17.45 0.00094
17.5 0.00113
17.55 0.00106
17.6 0.00047
17.65 0.00039
17.7 0.0002
17.75 0.00038
17.8 0.0009
17.85 0.00127
17.9 0.00143
17.95 0.00107
18 0.00055
18.05 -0.00009
18.1 -0.00126
18.15 -0.00256
18.2 -0.00307
18.25 -0.00321
18.3 -0.00316
18.35 -0.00364
18.4 -0.00425
18.45 -0.00424
18.5 -0.00315
18.55 -0.00161
18.6 -0.00079
18.65 0.00035
18.7 0.00036
18.75 -0.00031
18.8 -0.00147
18.85 -0.00268
18.9 -0.00268
18.95 -0.0027
19 -0.00293
19.05 -0.0028
19.1 -0.00191
19.15 -0.00071
19.2 0.00069
19.25 0.00221
19.3 0.00333
19.35 0.00455
19.4 0.00475
19.45 0.0038
19.5 0.00258
19.55 0.00199
19.6 0.00103
19.65 0.00026
19.7 0.00041
19.75 0.00075
19.8 0.00062
19.85 0.00047
19.9 0.00101
19.95 0.00075
20 0.00062
20.05 0.00065
20.1 0.00087
20.15 0.00121
20.2 0.0012
20.25 0.00095
20.3 0.00125
20.35 0.00193
20.4 0.00293
20.45 0.0034
20.5 0.00261
20.55 0.0023
20.6 0.00266
20.65 0.0033
20.7 0.00345
20.75 0.00334
20.8 0.00355
20.85 0.00375
20.9 0.00348
20.95 0.00237
21 0.00168
21.05 0.00152
21.1 0.001
21.15 0.00122
21.2 0.00047
21.25 0.00041
21.3 0.00027
21.35 -0.00001
21.4 -0.0002
21.45 -0.00082
21.5 -0.00093
21.55 -0.00065
21.6 -0.00064
21.65 -0.00005
21.7 -0.00036
21.75 -0.0001
21.8 0.0005
21.85 0.00026
21.9 0.00069
21.95 0.00099
22 0.00052
22.05 -0.00005
22.1 -0.00011
22.15 -0.00063
22.2 -0.0014
22.25 -0.00171
22.3 -0.00153
22.35 -0.00096
22.4 -0.00006
22.45 0.00092
22.5 0.00092
22.55 0.00089
22.6 0.00063
22.65 0.00027
22.7 0.00043
22.75 -0.00001
22.8 -0.00106
22.85 -0.00222
22.9 -0.00357
22.95 -0.00399
23 -0.0034
23.05 -0.00241
23.1 -0.00237
23.15 -0.002
23.2 -0.00152
23.25 -0.00167
23.3 -0.00143
23.35 -0.00121
23.4 -0.00144
23.45 -0.00103
23.5 -0.00031
23.55 0.00059
23.6 0.00172
23.65 0.0023
23.7 0.00209
23.75 0.00147
23.8 0.00059
23.85 -0.00038
23.9 -0.00038
23.95 -0.00079
24 -0.00027
24.05 -0.00052
24.1 -0.00056
24.15 -0.00086
24.2 -0.00079
24.25 -0.00072
24.3 -0.00032
24.35 0.0005
24.4 0.00051
24.45 0.0004
24.5 -0.00028
24.55 -0.00101
24.6 -0.00098
24.65 -0.00045
24.7 -0.00012
24.75 0.00061
24.8 0.00021
24.85 0.00007
24.9 0.00014
24.95 0.00041
25 0.00045
25.05 -0.00021
25.1 -0.0012
25.15 -0.00247
25.2 -0.00247
25.25 -0.00218
25.3 -0.00119
25.35 0.00016
25.4 0.00093
25.45 0.00134
25.5 0.00096
25.55 0.00011
25.6 -0.00026
25.65 -0.00066
25.7 -0.00049
25.75 -0.00012
25.8 0.00063
25.85 0.00067
25.9 0.00088
25.95 0.00093
26 0.00085
26.05 0.00022
26.1 0.00037
26.15 0.00053
26.2 0.00065
26.25 -0.00013
26.3 -0.00122
26.35 -0.00107
26.4 -0.00081
26.45 -0.00105
26.5 -0.00174
26.55 -0.00209
26.6 -0.00268
26.65 -0.00244
26.7 -0.00223
26.75 -0.00271
26.8 -0.00347
26.85 -0.0034
26.9 -0.00319
26.95 -0.00227
27 -0.00131
27.05 -0.00105
27.1 -0.0015
27.15 -0.00217
27.2 -0.00199
27.25 -0.00148
27.3 -0.00071
27.35 -0.00056
27.4 -0.00034
27.45 -0.00063
27.5 -0.00057
27.55 0.00011
27.6 -0.00019
27.65 -0.00009
27.7 0.00039
27.75 0.00109
27.8 0.00165
27.85 0.00182
27.9 0.00131
27.95 0.00062
28 -0.00024
28.05 -0.00071
28.1 -0.00029
28.15 0.0006
28.2 0.00178
28.25 0.00169
28.3 0.00207
28.35 0.00237
28.4 0.00241
28.45 0.00219
28.5 0.0011
28.55 0.0008
28.6 -0.0001
28.65 -0.00141
28.7 -0.00187
28.75 -0.00127
28.8 -0.00036
28.85 0.00071
28.9 0.00191
28.95 0.00219
29 0.00291
29.05 0.00273
29.1 0.00286
29.15 0.00288
29.2 0.0033
29.25 0.0035
29.3 0.0031
29.35 0.00187
29.4 0.00015
29.45 -0.00098
29.5 -0.001
29.55 -0.00165
29.6 -0.00171
29.65 -0.00163
29.7 -0.00096
29.75 -0.00041
29.8 0.00009
29.85 -0.00029
29.9 -0.00075
29.95 -0.00034
30 0.00041
30.05 0.00067
30.1 0.00048
30.15 0.00071
30.2 0.00135
30.25 0.002
30.3 0.00204
30.35 0.00162
30.4 0.0013
30.45 0.0005
30.5 -0.00073
30.55 -0.00188
30.6 -0.00317
30.65 -0.00343
30.7 -0.00371
30.75 -0.00338
30.8 -0.00361
30.85 -0.0037
30.9 -0.00418
30.95 -0.00424
31 -0.00427
31.05 -0.00353
31.1 -0.0025
31.15 -0.00111
31.2 0.00003
31.25 0.00123
31.3 0.00146
31.35 0.00078
31.4 0.00104
31.45 0.00038
31.5 -0.00028
31.55 -0.0007
31.6 -0.00102
31.65 -0.00164
31.7 -0.00138
31.75 -0.00155
31.8 -0.00232
31.85 -0.00191
31.9 -0.0015
31.95 -0.00158
32 -0.00075
32.05 -0.00023
32.1 0.00045
32.15 0.0007
32.2 0.00109
32.25 0.00061
32.3 -0.00025
32.35 -0.00092
32.4 -0.00166
32.45 -0.00204
32.5 -0.0017
32.55 -0.00109
32.6 -0.00076
32.65 -0.00058
32.7 -0.00061
32.75 -0.00074
32.8 -0.00123
32.85 -0.00194
32.9 -0.00176
32.95 -0.00191
33 -0.00167
33.05 -0.00083
33.1 -0.00091
33.15 -0.0004
33.2 0.0001
33.25 0.00051
33.3 0.00052
33.35 0.00124
33.4 0.00119
33.45 0.00162
33.5 0.0012
33.55 0.00153
33.6 0.00095
33.65 0.00036
33.7 0.00067
33.75 0.00008
33.8 -0.00104
33.85 -0.00174
33.9 -0.00158
33.95 -0.00107
34 -0.00056
34.05 -0.00007
34.1 0.0001
34.15 0.00038
34.2 -0.00012
34.25 0.00021
34.3 -0.00036
34.35 -0.00041
34.4 0.00014
34.45 0.00005
34.5 -0.00005
34.55 0.00045
34.6 0.00121
34.65 0.00083
34.7 0.0009
34.75 0.00072
34.8 0.00001
34.85 -0.00066
34.9 -0.00033
34.95 -0.00059
35 -0.00003
35.05 0.0005
35.1 0.001
35.15 0.00057
35.2 -0.00012
35.25 -0.0004
35.3 -0.00037
35.35 -0.00009
35.4 -0.00002
35.45 0.0005
35.5 0.00064
35.55 0.00055
35.6 -0.00024
35.65 -0.0003
35.7 -0.00076
35.75 -0.00027
35.8 -0.00009
35.85 -0.00012
35.9 -0.00002
35.95 -0.00071
36 -0.00048
36.05 -0.00065
36.1 -0.0001
36.15 0.00031
36.2 -0.00002
36.25 0.00022
36.3 0.00046
36.35 0.00061
36.4 -0.00004
36.45 -0.00008
36.5 0.0006
36.55 0.00095
36.6 0.00073
36.65 0.00076
36.7 0.00133
36.75 0.00104
36.8 0.00032
36.85 0.00019
36.9 0.00083
36.95 0.00113
37 0.00095
37.05 0.00135
37.1 0.00188
37.15 0.00138
37.2 0.00104
37.25 0.00096
37.3 0.0008
37.35 0.00128
37.4 0.00145
37.45 0.00095
37.5 -0.00006
37.55 -0.00042
37.6 -0.00118
37.65 -0.00134
37.7 -0.00096
37.75 -0.0001
37.8 0.0012
37.85 0.00172
37.9 0.00181
37.95 0.00228
38 0.00253
38.05 0.00273
38.1 0.00236
38.15 0.00187
38.2 0.00153
38.25 0.00092
38.3 0.00005
38.35 -0.00004
38.4 -0.00063
38.45 -0.00082
38.5 -0.00032
38.55 -0.00024
38.6 -0.00025
38.65 -0.00087
38.7 -0.00124
38.75 -0.00079
38.8 0.00013
38.85 0.00037
38.9 0.00052
38.95 0.00048
39 0.00056
39.05 0.00099
39.1 0.00072
39.15 0.00056
39.2 0.00111
39.25 0.00075
39.3 0.00062
39.35 0.00099
39.4 0.00081
39.45 0.001
39.5 0.00059
39.55 0.00049
39.6 0.00018
39.65 0.00037
39.7 0.00018
39.75 0.00001
39.8 -0.00065
39.85 -0.0003
39.9 -0.00026
39.95 -0.00069
40 -0.00076
40.05 -0.00141
40.1 -0.00226
40.15 -0.00244
40.2 -0.00261
40.25 -0.00189
40.3 -0.00052
40.35 0.00057
40.4 0.00057
40.45 0.00102
40.5 0.00184
40.55 0.00215
40.6 0.00202
40.65 0.00173
40.7 0.00135
40.75 0.0005
40.8 -0.00035
40.85 -0.00084
40.9 -0.0018
40.95 -0.00222
41 -0.00179
41.05 -0.00165
41.1 -0.00202
41.15 -0.00135
41.2 -0.00131
41.25 -0.00157
41.3 -0.0021
41.35 -0.00226
41.4 -0.00146
41.45 -0.0003
41.5 0.00057
41.55 0.00123
41.6 0.00222
41.65 0.0027
41.7 0.00253
41.75 0.00219
41.8 0.00099
41.85 -0.00065
41.9 -0.00172
41.95 -0.00215
42 -0.00259
42.05 -0.00209
42.1 -0.00109
42.15 -0.0003
42.2 0.00028
42.25 0.00017
42.3 0.00003
42.35 -0.00078
42.4 -0.00139
42.45 -0.0012
42.5 -0.00059
42.55 0.00052
42.6 0.00103
42.65 0.00074
42.7 0.00028
42.75 -0.00033
42.8 -0.001
42.85 -0.00184
42.9 -0.00257
42.95 -0.0031
43 -0.00254
43.05 -0.00163
43.1 -0.00143
43.15 -0.00158
43.2 -0.00135
43.25 -0.00149
43.3 -0.00152
43.35 -0.0013
43.4 -0.00036
43.45 0.00002
43.5 -0.00025
43.55 -0.00021
43.6 -0.00043
43.65 -0.0004
43.7 0.0003
43.75 0.00097
43.8 0.00104
43.85 0.00105
43.9 0.0014
43.95 0.00219
44 0.00182
44.05 0.00087
44.1 -0.00049
44.15 -0.00186
44.2 -0.00259
44.25 -0.00314
44.3 -0.00375
44.35 -0.00407
44.4 -0.0047
44.45 -0.00537
44.5 -0.00544
44.55 -0.00558
44.6 -0.00552
44.65 -0.00492
44.7 -0.00432
44.75 -0.00354
44.8 -0.00267
44.85 -0.00197
44.9 -0.00183
44.95 -0.00146
45 -0.00128
45.05 -0.00029
45.1 -0.0003
45.15 0.00015
45.2 -0.00019
45.25 -0.00004
45.3 -0.00047
45.35 -0.00092
45.4 -0.0005
45.45 0.00054
45.5 0.00106
45.55 0.0019
45.6 0.00309
45.65 0.00359
45.7 0.00425
45.75 0.0048
45.8 0.00421
45.85 0.00323
45.9 0.00294
45.95 0.0033
46 0.00296
46.05 0.00249
46.1 0.00205
46.15 0.00108
46.2 0.00011
46.25 -0.00092
46.3 -0.00206
46.35 -0.00311
46.4 -0.00363
46.45 -0.00424
46.5 -0.00463
46.55 -0.0047
46.6 -0.00416
46.65 -0.00385
46.7 -0.0034
46.75 -0.00249
46.8 -0.00139
46.85 0.00019
46.9 0.00195
46.95 0.00369
47 0.00423
47.05 0.00404
47.1 0.00348
47.15 0.00343
47.2 0.00358
47.25 0.00278
47.3 0.00212
47.35 0.00167
47.4 0.00203
47.45 0.00174
47.5 0.00116
47.55 0.00123
47.6 0.00183
47.65 0.00161
47.7 0.00102
47.75 0.00063
47.8 -0.00027
47.85 -0.00029
47.9 -0.00051
47.95 -0.00148
48 -0.0019
48.05 -0.00237
48.1 -0.00367
48.15 -0.0054
48.2 -0.00635
48.25 -0.0079
48.3 -0.01025
48.35 -0.01206
48.4 -0.01473
48.45 -0.01737
48.5 -0.01989
48.55 -0.02348
48.6 -0.02809
48.65 -0.03419
48.7 -0.04048
48.75 -0.0477
48.8 -0.0559
48.85 -0.06467
48.9 -0.07525
48.95 -0.08701
49 -0.09955
49.05 -0.11303
49.1 -0.12767
49.15 -0.14401
49.2 -0.16177
49.25 -0.18113
49.3 -0.20193
49.35 -0.22492
49.4 -0.24922
49.45 -0.27395
49.5 -0.29978
49.55 -0.32586
49.6 -0.35248
49.65 -0.37921
49.7 -0.40565
49.75 -0.43035
49.8 -0.45344
49.85 -0.4754
49.9 -0.49596
49.95 -0.51319
50 -0.52683
50.05 -0.53818
50.1 -0.54593
50.15 -0.55036
50.2 -0.55038
50.25 -0.54521
50.3 -0.53558
50.35 -0.52187
50.4 -0.50384
50.45 -0.48048
50.5 -0.45324
50.55 -0.42198
50.6 -0.3868
50.65 -0.34862
50.7 -0.30759
50.75 -0.26396
50.8 -0.21844
50.85 -0.17214
50.9 -0.1261
50.95 -0.08028
51 -0.03588
51.05 0.00711
51.1 0.04779
51.15 0.08618
51.2 0.12191
51.25 0.15567
51.3 0.18629
51.35 0.21523
51.4 0.24199
51.45 0.26496
51.5 0.28584
51.55 0.30289
51.6 0.31765
51.65 0.32998
51.7 0.33993
51.75 0.34792
51.8 0.35489
51.85 0.36065
51.9 0.36565
51.95 0.3701
52 0.37424
52.05 0.37726
52.1 0.38055
52.15 0.384
52.2 0.38591
52.25 0.38813
52.3 0.38937
52.35 0.38983
52.4 0.39109
52.45 0.39182
52.5 0.39251
52.55 0.39371
52.6 0.39507
52.65 0.3956
52.7 0.3948
52.75 0.39344
52.8 0.39134
52.85 0.38785
52.9 0.38433
52.95 0.38019
53 0.37536
53.05 0.36925
53.1 0.36208
53.15 0.35416
53.2 0.34625
53.25 0.33799
53.3 0.32907
53.35 0.31992
53.4 0.31044
53.45 0.30084
53.5 0.29135
53.55 0.28196
53.6 0.27253
53.65 0.26234
53.7 0.25108
53.75 0.23962
53.8 0.22835
53.85 0.21782
53.9 0.20683
53.95 0.1961
54 0.18593
54.05 0.17532
54.1 0.16546
54.15 0.1567
54.2 0.14791
54.25 0.13994
54.3 0.13168
54.35 0.12328
54.4 0.11491
54.45 0.10682
54.5 0.09867
54.55 0.09135
54.6 0.08452
54.65 0.07828
54.7 0.07113
54.75 0.0636
54.8 0.05641
54.85 0.05003
54.9 0.04449
54.95 0.03906
55 0.03363
55.05 0.02842
55.1 0.02431
55.15 0.01955
55.2 0.01456
55.25 0.01064
55.3 0.00669
55.35 0.00291
55.4 -0.00017
55.45 -0.00261
55.5 -0.00548
55.55 -0.00823
55.6 -0.01139
55.65 -0.01457
55.7 -0.01835
55.75 -0.02222
55.8 -0.0251
55.85 -0.02845
55.9 -0.03172
55.95 -0.03507
56 -0.03837
56.05 -0.0403
56.1 -0.04251
56.15 -0.04492
56.2 -0.04633
56.25 -0.04758
56.3 -0.04874
56.35 -0.05005
56.4 -0.05045
56.45 -0.05068
56.5 -0.05068
56.55 -0.05038
56.6 -0.05022
56.65 -0.0509
56.7 -0.05189
56.75 -0.05313
56.8 -0.05472
56.85 -0.05638
56.9 -0.05715
56.95 -0.0569
57 -0.05637
57.05 -0.05674
57.1 -0.05725
57.15 -0.05758
57.2 -0.05753
57.25 -0.05694
57.3 -0.05635
57.35 -0.05599
57.4 -0.05508
57.45 -0.05523
57.5 -0.05584
57.55 -0.05648
57.6 -0.05637
57.65 -0.05586
57.7 -0.05534
57.75 -0.05517
57.8 -0.05498
57.85 -0.05512
57.9 -0.05544
57.95 -0.05598
58 -0.05596
58.05 -0.05596
58.1 -0.0553
58.15 -0.05366
58.2 -0.05273
58.25 -0.05143
58.3 -0.05026
58.35 -0.04924
58.4 -0.04857
58.45 -0.04832
58.5 -0.04816
58.55 -0.04715
58.6 -0.04701
58.65 -0.04706
58.7 -0.04656
58.75 -0.04516
58.8 -0.04414
58.85 -0.04375
58.9 -0.0435
58.95 -0.04359
59 -0.04264
59.05 -0.04179
59.1 -0.0411
59.15 -0.0409
59.2 -0.04094
59.25 -0.04111
59.3 -0.0411
59.35 -0.03985
59.4 -0.03808
59.45 -0.03596
59.5 -0.03468
59.55 -0.03419
59.6 -0.03335
59.65 -0.03329
59.7 -0.03264
59.75 -0.03213
59.8 -0.0315
59.85 -0.03146
59.9 -0.03091
59.95 -0.0301
60 -0.02886
60.05 -0.02734
60.1 -0.02673
60.15 -0.02579
60.2 -0.02469
60.25 -0.02377
60.3 -0.02412
60.35 -0.02454
60.4 -0.02473
60.45 -0.02545
60.5 -0.02663
60.55 -0.02744
60.6 -0.02848
60.65 -0.02921
60.7 -0.02999
60.75 -0.02949
60.8 -0.02874
60.85 -0.02818
60.9 -0.02679
60.95 -0.02614
61 -0.02548
61.05 -0.02429
61.1 -0.02323
61.15 -0.02258
61.2 -0.02228
61.25 -0.02134
61.3 -0.02056
61.35 -0.02021
61.4 -0.01937
61.45 -0.0183
61.5 -0.01795
61.55 -0.01783
61.6 -0.01734
61.65 -0.01753
61.7 -0.01741
61.75 -0.01673
61.8 -0.01633
61.85 -0.01604
61.9 -0.01637
61.95 -0.01729
62 -0.01808
62.05 -0.01772
62.1 -0.0178
62.15 -0.01795
62.2 -0.0171
62.25 -0.0164
62.3 -0.01567
62.35 -0.01538
62.4 -0.01454
62.45 -0.01439
62.5 -0.01427
62.55 -0.01356
62.6 -0.01336
62.65 -0.01344
62.7 -0.01324
62.75 -0.013
62.8 -0.01275
62.85 -0.01266
62.9 -0.01302
62.95 -0.01318
63 -0.01369
63.05 -0.01432
63.1 -0.01481
63.15 -0.01411
63.2 -0.01333
63.25 -0.01186
63.3 -0.01057
63.35 -0.01043
63.4 -0.01088
63.45 -0.01184
63.5 -0.01147
63.55 -0.01044
63.6 -0.0091
63.65 -0.00823
63.7 -0.00838
63.75 -0.00858
63.8 -0.00936
63.85 -0.00922
63.9 -0.00849
63.95 -0.0074
64 -0.00678
64.05 -0.0062
64.1 -0.00621
64.15 -0.00638
64.2 -0.00638
64.25 -0.0061
64.3 -0.00625
64.35 -0.00613
64.4 -0.00549
64.45 -0.0049
64.5 -0.00432
64.55 -0.00348
64.6 -0.00283
64.65 -0.00354
64.7 -0.00492
64.75 -0.00655
64.8 -0.00776
64.85 -0.00774
64.9 -0.00688
64.95 -0.00611
65 -0.00569
65.05 -0.00608
65.1 -0.00663
65.15 -0.00617
65.2 -0.00634
65.25 -0.00574
65.3 -0.00498
65.35 -0.00444
65.4 -0.00437
65.45 -0.0041
65.5 -0.00344
65.55 -0.00371
65.6 -0.00362
65.65 -0.00358
65.7 -0.00437
65.75 -0.00531
65.8 -0.00532
65.85 -0.00501
65.9 -0.00551
65.95 -0.00618
66 -0.00661
66.05 -0.00627
66.1 -0.00573
66.15 -0.00547
66.2 -0.00475
66.25 -0.00421
66.3 -0.0045
66.35 -0.00459
66.4 -0.00494
66.45 -0.00564
66.5 -0.00596
66.55 -0.00633
66.6 -0.0064
66.65 -0.00546
66.7 -0.00527
66.75 -0.00431
66.8 -0.00379
66.85 -0.00277
66.9 -0.00229
66.95 -0.00207
67 -0.0027
67.05 -0.00383
67.1 -0.00523
67.15 -0.00533
67.2 -0.00444
67.25 -0.00381
67.3 -0.00396
67.35 -0.00355
67.4 -0.00323
67.45 -0.00379
67.5 -0.00396
67.55 -0.00476
67.6 -0.00443
67.65 -0.00414
67.7 -0.00424
67.75 -0.00429
67.8 -0.00357
67.85 -0.00342
67.9 -0.00334
67.95 -0.00314
68 -0.00315
68.05 -0.00256
68.1 -0.00204
68.15 -0.00235
68.2 -0.00213
68.25 -0.00267
68.3 -0.00318
68.35 -0.00293
68.4 -0.00321
68.45 -0.00349
68.5 -0.00289
68.55 -0.00262
68.6 -0.00176
68.65 -0.00174
68.7 -0.00153
68.75 -0.00114
68.8 -0.00058
68.85 -0.00092
68.9 -0.00067
68.95 -0.00083
69 -0.00154
69.05 -0.00228
69.1 -0.00236
69.15 -0.00259
69.2 -0.00304
69.25 -0.00366
69.3 -0.00342
69.35 -0.00304
69.4 -0.00192
69.45 -0.00041
69.5 -0.0003
69.55 0.00022
69.6 0.00057
69.65 0.00096
69.7 0.0012
69.75 0.00141
69.8 0.0008
69.85 0.00018
69.9 -0.0002
69.95 -0.00019
70 -0.0007
70.05 -0.00083
70.1 -0.0006
70.15 -0.00111
70.2 -0.00147
70.25 -0.00239
70.3 -0.0027
70.35 -0.0032
70.4 -0.00263
70.45 -0.00244
70.5 -0.00203
70.55 -0.0025
70.6 -0.00238
70.65 -0.00277
70.7 -0.00242
70.75 -0.0017
70.8 -0.00154
70.85 -0.00163
70.9 -0.00229
70.95 -0.00291
71 -0.00338
71.05 -0.00387
71.1 -0.00459
71.15 -0.00515
71.2 -0.0046
71.25 -0.00399
71.3 -0.00285
71.35 -0.00174
71.4 -0.00057
71.45 0.00032
71.5 0.0008
71.55 0.00035
71.6 -0.00048
71.65 -0.00085
71.7 -0.00053
71.75 -0.00081
71.8 -0.00156
71.85 -0.00188
71.9 -0.00175
71.95 -0.00123
72 -0.00057
72.05 -0.00093
72.1 -0.00153
72.15 -0.00212
72.2 -0.00198
72.25 -0.00098
72.3 -0.00053
72.35 -0.00042
72.4 -0.0007
72.45 -0.00099
72.5 -0.00055
72.55 -0.00019
72.6 0.00073
72.65 0.00154
72.7 0.00219
72.75 0.00255
72.8 0.00321
72.85 0.00306
72.9 0.00211
72.95 0.00071
73 -0.00011
73.05 0.00011
73.1 -0.0005
73.15 -0.00034
73.2 -0.00037
73.25 -0.00065
73.3 -0.00105
73.35 -0.00128
73.4 -0.00133
73.45 -0.00151
73.5 -0.00204
73.55 -0.00258
73.6 -0.00246
73.65 -0.00215
73.7 -0.00181
73.75 -0.00099
73.8 -0.0006
73.85 0.00039
73.9 0.00063
73.95 0.00002
74 -0.00031
74.05 -0.00014
74.1 -0.00053
74.15 -0.00149
74.2 -0.00144
74.25 -0.00208
74.3 -0.00209
74.35 -0.00246
74.4 -0.00296
74.45 -0.00351
74.5 -0.00317
74.55 -0.00205
74.6 -0.00106
74.65 -0.00042
74.7 -0.00017
74.75 -0.00074
74.8 -0.0012
74.85 -0.00108
74.9 -0.00061
74.95 -0.00006
75 -0.00035
75.05 -0.00037
75.1 -0.00093
75.15 -0.00182
75.2 -0.00188
75.25 -0.00205
75.3 -0.00247
75.35 -0.0026
75.4 -0.00292
75.45 -0.00303
75.5 -0.0034
75.55 -0.00336
75.6 -0.00318
75.65 -0.00285
75.7 -0.00287
75.75 -0.00283
75.8 -0.00313
75.85 -0.00245
75.9 -0.00161
75.95 -0.00166
76 -0.00208
76.05 -0.00182
76.1 -0.00168
76.15 -0.0016
76.2 -0.00132
76.25 -0.00112
76.3 -0.00077
76.35 -0.00035
76.4 -0.00047
76.45 -0.00032
76.5 0.00052
76.55 0.00087
76.6 0.00074
76.65 0.00039
76.7 0.00015
76.75 -0.00022
76.8 0.00003
76.85 0.00033
76.9 0
76.95 -0.00027
77 -0.00051
77.05 0.00007
77.1 0.00061
77.15 0.00106
77.2 0.0007
77.25 0.00046
77.3 0.00105
77.35 0.00199
77.4 0.00291
77.45 0.00285
77.5 0.00243
77.55 0.0024
77.6 0.00187
77.65 0.00161
77.7 0.00061
77.75 0.00069
77.8 0.00054
77.85 0.00031
77.9 0.00066
77.95 0.00054
78 -0
78.05 0.00019
78.1 -0.00001
78.15 -0.00035
78.2 -0.00086
78.25 -0.00089
78.3 -0.00115
78.35 -0.00106
78.4 -0.00085
78.45 -0.00079
78.5 -0.00027
78.55 -0.00048
78.6 -0.00069
78.65 -0.00065
78.7 -0.00085
78.75 -0.00128
78.8 -0.0015
78.85 -0.00213
78.9 -0.00171
78.95 -0.00169
79 -0.00205
79.05 -0.00133
79.1 -0.00049
79.15 0.0003
79.2 0.00083
79.25 0.00162
79.3 0.0017
79.35 0.00226
79.4 0.00199
79.45 0.00122
79.5 -0.00001
79.55 -0.00085
79.6 -0.00172
79.65 -0.00256
79.7 -0.00347
79.75 -0.00447
79.8 -0.00404
79.85 -0.00322
79.9 -0.00159
79.95 -0.00039
80 0.00024
80.05 0.00025
80.1 0.00019
80.15 0.00021
80.2 0.00015
80.25 0.00004
80.3 -0.00074
80.35 -0.0014
80.4 -0.00212
80.45 -0.00258
80.5 -0.00186
80.55 -0.00075
80.6 -0.00017
80.65 0.00045
80.7 0.00121
80.75 0.00184
80.8 0.00203
80.85 0.0026
80.9 0.0025
80.95 0.00301
81 0.00301
81.05 0.00297
81.1 0.00262
81.15 0.00298
81.2 0.00305
81.25 0.00309
81.3 0.00332
81.35 0.00385
81.4 0.00432
81.45 0.00491
81.5 0.00551
81.55 0.0056
81.6 0.00485
81.65 0.00359
81.7 0.00281
81.75 0.00219
81.8 0.00174
81.85 0.00087
81.9 0.00066
81.95 0.0007
82 0.0001
82.05 -0.00085
82.1 -0.00123
82.15 -0.00134
82.2 -0.00198
82.25 -0.00245
82.3 -0.00222
82.35 -0.00244
82.4 -0.00313
82.45 -0.0033
82.5 -0.00322
82.55 -0.00244
82.6 -0.0016
82.65 -0.00014
82.7 0.00041
82.75 0.0008
82.8 0.0012
82.85 0.0018
82.9 0.00153
82.95 0.00052
83 0.00021
83.05 -0.00018
83.1 0.00004
83.15 0.00027
83.2 0.00009
83.25 -0.00029
83.3 -0.00086
83.35 -0.00172
83.4 -0.00281
83.45 -0.00337
83.5 -0.00339
83.55 -0.00279
83.6 -0.00273
83.65 -0.00267
83.7 -0.00229
83.75 -0.00223
83.8 -0.00162
83.85 -0.00116
83.9 -0.00004
83.95 0.00092
84 0.00184
84.05 0.00306
84.1 0.00288
84.15 0.00205
84.2 0.00082
84.25 0.00064
84.3 0.00014
84.35 -0.0002
84.4 0.00017
84.45 0.00074
84.5 0.00066
84.55 0.0009
84.6 0.00096
84.65 0.00173
84.7 0.00143
84.75 0.00087
84.8 0.00124
84.85 0.00062
84.9 -0.00005
84.95 0.00013
85 0.00033
85.05 0.00017
85.1 0.00069
85.15 0.00019
85.2 -0.00017
85.25 -0.0011
85.3 -0.00219
85.35 -0.00235
85.4 -0.00215
85.45 -0.00172
85.5 -0.00135
85.55 -0.00086
85.6 -0.00053
85.65 0.00018
85.7 0.00048
85.75 0.00107
85.8 0.00138
85.85 0.00207
85.9 0.00161
85.95 0.00061
86 -0.0003
86.05 -0.00004
86.1 0.00054
86.15 0.00067
86.2 0.00069
86.25 0.00142
86.3 0.0025
86.35 0.00376
86.4 0.00391
86.45 0.00433
86.5 0.00407
86.55 0.00373
86.6 0.0025
86.65 0.00176
86.7 0.00073
86.75 -0.00024
86.8 -0.00082
86.85 -0.00147
86.9 -0.00164
86.95 -0.00183
87 -0.00211
87.05 -0.00161
87.1 -0.00047
87.15 0.00073
87.2 0.00087
87.25 0.00091
87.3 0.00022
87.35 0.00041
87.4 0.00043
87.45 0.00037
87.5 0.00036
87.55 0.00016
87.6 -0.00008
87.65 0.00044
87.7 0.00064
87.75 0.00134
87.8 0.00118
87.85 0.00058
87.9 0.00077
87.95 0.00078
88 0.00079
88.05 0.00034
88.1 0.00076
88.15 0.00145
88.2 0.00223
88.25 0.00216
88.3 0.00114
88.35 0.00076
88.4 0.00066
88.45 -0.00028
88.5 -0.00013
88.55 -0.00056
88.6 -0.00013
88.65 0.00041
88.7 0.00124
88.75 0.00221
88.8 0.00258
88.85 0.00214
88.9 0.0016
88.95 0.00177
89 0.00205
89.05 0.00251
89.1 0.00219
89.15 0.00192
89.2 0.00085
89.25 -0.00066
89.3 -0.00182
89.35 -0.00308
89.4 -0.00386
89.45 -0.00468
89.5 -0.00497
89.55 -0.00433
89.6 -0.00288
89.65 -0.0014
89.7 0.00027
89.75 0.00121
89.8 0.00164
89.85 0.00116
89.9 0.00024
89.95 -0.00112
90 -0.00224
90.05 -0.00351
90.1 -0.00327
90.15 -0.00263
90.2 -0.00167
90.25 -0.00135
90.3 -0.00067
90.35 -0.00093
90.4 -0.00068
90.45 -0.00008
90.5 0.00019
90.55 0.00014
90.6 0.00065
90.65 0.00016
90.7 -0.00059
90.75 -0.00106
90.8 -0.00124
90.85 -0.00061
90.9 -0.00032
90.95 -0.00041
91 0.0001
91.05 -0.00015
91.1 -0.00104
91.15 -0.00188
91.2 -0.00158
91.25 -0.00127
91.3 -0.0007
91.35 0.00033
91.4 0.00127
91.45 0.00174
91.5 0.00139
91.55 0.00095
91.6 0.00041
91.65 0.00026
91.7 -0.00036
91.75 -0.00115
91.8 -0.00161
91.85 -0.00124
91.9 -0.00027
91.95 0.00112
92 0.00263
92.05 0.00328
92.1 0.00328
92.15 0.00344
92.2 0.00281
92.25 0.0016
92.3 0.00062
92.35 -0.00006
92.4 -0.0005
92.45 -0.00143
92.5 -0.00245
92.55 -0.00297
92.6 -0.00337
92.65 -0.00356
92.7 -0.00337
92.75 -0.00324
92.8 -0.00348
92.85 -0.00319
92.9 -0.0035
92.95 -0.00377
93 -0.00317
93.05 -0.00255
93.1 -0.0014
93.15 -0.0004
93.2 0.00101
93.25 0.0011
93.3 0.00107
93.35 0.00158
93.4 0.00114
93.45 0.00127
93.5 0.00084
93.55 0.00014
93.6 -0.00014
93.65 -0.00082
93.7 -0.00081
93.75 -0.00064
93.8 -0.00041
93.85 -0.0006
93.9 -0.00033
93.95 -0.00014
94 -0.00021
94.05 -0.00041
94.1 -0.00117
94.15 -0.00194
94.2 -0.0021
94.25 -0.00168
94.3 -0.00145
94.35 -0.00149
94.4 -0.00164
94.45 -0.00158
94.5 -0.00077
94.55 -0.00093
94.6 -0.00072
94.65 -0.00014
94.7 0.00067
94.75 0.00139
94.8 0.00101
94.85 0.0004
94.9 0.00057
94.95 0.0013
95 0.00155
95.05 0.00167
95.1 0.00133
95.15 0.00133
95.2 0.00199
95.25 0.00213
95.3 0.00128
95.35 -0.00001
95.4 -0.00122
95.45 -0.00134
95.5 -0.00159
95.55 -0.00189
95.6 -0.0018
95.65 -0.0016
95.7 -0.00118
95.75 -0.00058
95.8 0.00063
95.85 0.00152
95.9 0.00218
95.95 0.00231
96 0.00285
96.05 0.00354
96.1 0.00383
96.15 0.00388
96.2 0.00286
96.25 0.00182
96.3 0.00157
96.35 0.00171
96.4 0.00197
96.45 0.00208
96.5 0.00156
96.55 0.00044
96.6 -0.00087
96.65 -0.00121
96.7 -0.00086
96.75 -0.00111
96.8 -0.00145
96.85 -0.001
96.9 -0.00137
96.95 -0.00202
97 -0.00215
97.05 -0.00236
97.1 -0.0024
97.15 -0.00287
97.2 -0.00293
97.25 -0.0026
97.3 -0.00142
97.35 -0.00051
97.4 0.00086
97.45 0.00236
97.5 0.00354
97.55 0.00388
97.6 0.00346
97.65 0.00328
97.7 0.00232
97.75 0.00172
97.8 0.00059
97.85 -0.00023
97.9 -0.00131
97.95 -0.00138
98 -0.0011
98.05 -0.00098
98.1 -0.0003
98.15 0.00089
98.2 0.00114
98.25 0.00062
98.3 -0.00045
98.35 -0.00094
98.4 -0.00195
98.45 -0.00174
98.5 -0.00109
98.55 -0.00024
98.6 0.00029
98.65 0.00136
98.7 0.00186
98.75 0.00183
98.8 0.00152
98.85 0.00112
98.9 0.00148
98.95 0.00196
99 0.00144
99.05 0.00065
99.1 0.00079
99.15 0.00004
99.2 0.00014
99.25 0.00061
99.3 0.00152
99.35 0.00271
99.4 0.00254
99.45 0.00154
99.5 0.00117
99.55 0.00041
99.6 -0.00002
99.65 -0.00053
99.7 -0.00087
99.75 -0.00108
99.8 -0.00137
99.85 -0.0008
99.9 -0.00119
99.95 -0.00185
