0 0
0.05 0.00075
0.1 0.00129
0.15 0.00218
0.2 0.00299
0.25 0.00398
0.3 0.00497
0.35 0.00531
0.4 0.00584
0.45 0.0062
0.5 0.00607
0.55 0.00599
0.6 0.00601
0.65 0.00593
0.7 0.00594
0.75 0.00561
0.8 0.00569
0.85 0.0055
0.9 0.00494
0.95 0.00482
1 0.00424
1.05 0.00388
1.1 0.00366
1.15 0.00326
1.2 0.00271
1.25 0.00253
1.3 0.0026
1.35 0.00303
1.4 0.00377
1.45 0.00458
1.5 0.00513
1.55 0.0054
1.6 0.00578
1.65 0.00589
1.7 0.00588
1.75 0.00597
1.8 0.00577
1.85 0.00542
1.9 0.00481
1.95 0.0045
2 0.0044
2.05 0.00452
2.1 0.00417
2.15 0.00353
2.2 0.00297
2.25 0.00269
2.3 0.00204
2.35 0.00168
2.4 0.00135
2.45 0.00093
2.5 0.00121
2.55 0.00159
2.6 0.00186
2.65 0.00212
2.7 0.00215
2.75 0.00215
2.8 0.0019
2.85 0.00201
2.9 0.00188
2.95 0.00157
3 0.00099
3.05 0.0011
3.1 0.0008
3.15 0.00095
3.2 0.00084
3.25 0.00091
3.3 0.00086
3.35 0.0005
3.4 0.0001
3.45 -0.00015
3.5 -0.00042
3.55 -0.00021
3.6 -0.00013
3.65 0.00054
3.7 0.00097
3.75 0.00106
3.8 0.00106
3.85 0.00132
3.9 0.00143
3.95 0.0012
4 0.00127
4.05 0.00124
4.1 0.00109
4.15 0.00112
4.2 0.001
4.25 0.00119
4.3 0.00094
4.35 0.00117
4.4 0.00133
4.45 0.00137
4.5 0.00128
4.55 0.00102
4.6 0.00135
4.65 0.00157
4.7 0.00214
4.75 0.00237
4.8 0.00269
4.85 0.00271
4.9 0.00287
4.95 0.0032
5 0.00303
5.05 0.00322
5.1 0.00321
5.15 0.00264
5.2 0.00226
5.25 0.00209
5.3 0.0019
5.35 0.00175
5.4 0.002
5.45 0.00237
5.5 0.00239
5.55 0.00243
5.6 0.00242
5.65 0.00235
5.7 0.00259
5.75 0.00264
5.8 0.00248
5.85 0.00188
5.9 0.00166
5.95 0.00178
6 0.00198
6.05 0.00188
6.1 0.00172
6.15 0.00166
6.2 0.00176
6.25 0.00183
6.3 0.00146
6.35 0.0015
6.4 0.00116
6.45 0.00083
6.5 0.00092
6.55 0.0013
6.6 0.00103
6.65 0.00091
6.7 0.00056
6.75 0.00036
6.8 0.00067
6.85 0.00096
6.9 0.00063
6.95 0.00026
7 0.0003
7.05 0.00072
7.1 0.00132
7.15 0.00164
7.2 0.00202
7.25 0.00174
7.3 0.00132
7.35 0.00059
7.4 -0.0002
7.45 -0.00107
7.5 -0.00128
7.55 -0.00154
7.6 -0.00166
7.65 -0.00163
7.7 -0.00135
7.75 -0.00098
7.8 -0.00082
7.85 -0.00043
7.9 0.00021
7.95 0.00025
8 0.00071
8.05 0.00069
8.1 0.00051
8.15 0.00005
8.2 -0.00022
8.25 -0.00021
8.3 -0.00032
8.35 -0.00007
8.4 -0.00005
8.45 0.00002
8.5 0.00035
8.55 0.00028
8.6 0.00024
8.65 -0.00021
8.7 -0.00041
8.75 -0.00036
8.8 0.00003
8.85 0.00022
8.9 0.00021
8.95 0.00014
9 0.00024
9.05 0.0004
9.1 0.00025
9.15 0.00027
9.2 0.00057
9.25 0.00099
9.3 0.00087
9.35 0.00104
9.4 0.00096
9.45 0.00062
9.5 0.00067
9.55 0.00071
9.6 0.0004
9.65 0.00009
9.7 -0.00014
9.75 0.00016
9.8 0.00067
9.85 0.00126
9.9 0.0017
9.95 0.00221
10 0.00251
10.05 0.00235
10.1 0.00191
10.15 0.00125
10.2 0.00099
10.25 0.00085
10.3 0.00025
10.35 -0.0005
10.4 -0.00131
10.45 -0.0016
10.5 -0.00133
10.55 -0.00137
10.6 -0.00167
10.65 -0.00202
10.7 -0.0017
10.75 -0.00181
10.8 -0.00182
10.85 -0.00207
10.9 -0.00172
10.95 -0.00091
11 -0.00064
11.05 -0.00004
11.1 0.0003
11.15 0.00017
11.2 0.00052
11.25 0.00044
11.3 0.00015
11.35 -0.00015
11.4 -0
11.45 0.00037
11.5 0.00095
11.55 0.00106
11.6 0.00127
11.65 0.00159
11.7 0.00211
11.75 0.00244
11.8 0.00204
11.85 0.0015
11.9 0.00141
11.95 0.00134
12 0.00099
12.05 0.00051
12.1 -0.00008
12.15 -0.00091
12.2 -0.00112
12.25 -0.0011
12.3 -0.0011
12.35 -0.00146
12.4 -0.00157
12.45 -0.00169
12.5 -0.00133
12.55 -0.00115
12.6 -0.00119
12.65 -0.00083
12.7 -0.00009
12.75 0.00046
12.8 0.00094
12.85 0.00131
12.9 0.00139
12.95 0.00115
13 0.00116
13.05 0.00096
13.1 0.00081
13.15 0.00082
13.2 0.00078
13.25 0.00048
13.3 0.00028
13.35 0.00008
13.4 0.00025
13.45 0.00078
13.5 0.00124
13.55 0.00149
13.6 0.00186
13.65 0.00203
13.7 0.00205
13.75 0.00212
13.8 0.00227
13.85 0.00191
13.9 0.00111
13.95 0.00057
14 -0.00027
14.05 -0.00076
14.1 -0.00097
14.15 -0.00132
14.2 -0.00179
14.25 -0.00234
14.3 -0.0026
14.35 -0.00241
14.4 -0.00175
14.45 -0.00136
14.5 -0.00106
14.55 -0.00097
14.6 -0.00073
14.65 -0.00035
14.7 0.00003
14.75 0.00032
14.8 0.00037
14.85 0.00041
14.9 0.00007
14.95 -0.0004
15 -0.00031
15.05 -0.00027
15.1 0.00021
15.15 0.00084
15.2 0.0016
15.25 0.00198
15.3 0.00199
15.35 0.00204
15.4 0.00202
15.45 0.00204
15.5 0.00151
15.55 0.00059
15.6 0.00034
15.65 -0.00002
15.7 -0.00019
15.75 -0.00017
15.8 -0.00001
15.85 0.00018
15.9 -0.00014
15.95 -0.00049
16 -0.00026
16.05 -0.00028
16.1 -0.00025
16.15 -0.00027
16.2 -0.00051
16.25 -0.00094
16.3 -0.00154
16.35 -0.00181
16.4 -0.00196
16.45 -0.00205
16.5 -0.00215
16.55 -0.00189
16.6 -0.0018
16.65 -0.00168
16.7 -0.00111
16.75 -0.00047
16.8 -0.00012
16.85 0.00019
16.9 0.00041
16.95 0.00016
17 -0.00046
17.05 -0.00086
17.1 -0.00077
17.15 -0.00107
17.2 -0.00149
17.25 -0.00152
17.3 -0.00185
17.35 -0.00212
17.4 -0.0019
17.45 -0.00182
17.5 -0.00128
17.55 -0.00101
17.6 -0.00049
17.65 -0.00014
17.7 0.00016
17.75 0.00036
17.8 0.00016
17.85 0.00041
17.9 0.00086
17.95 0.00084
18 0.00082
18.05 0.0009
18.1 0.00062
18.15 0.00064
18.2 0.0008
18.25 0.00113
18.3 0.00164
18.35 0.00199
18.4 0.00241
18.45 0.00249
18.5 0.002
18.55 0.00175
18.6 0.00126
18.65 0.0009
18.7 0.00019
18.75 -0.00052
18.8 -0.00078
18.85 -0.00053
18.9 -0.00028
18.95 -0.00038
19 -0.00055
19.05 -0.00034
19.1 -0.00007
19.15 0.00025
19.2 0.00034
19.25 0.00057
19.3 0.00064
19.35 0.00043
19.4 -0
19.45 -0.00049
19.5 -0.00116
19.55 -0.00153
19.6 -0.00123
19.65 -0.00081
19.7 -0.00054
19.75 -0.00016
19.8 0.00003
19.85 0.00049
19.9 0.00113
19.95 0.00114
20 0.0014
20.05 0.00139
20.1 0.00104
20.15 0.00061
20.2 0.00066
20.25 0.00051
20.3 0.00015
20.35 0.00025
20.4 0.00071
20.45 0.00107
20.5 0.00146
20.55 0.00164
20.6 0.00121
20.65 0.00117
20.7 0.00125
20.75 0.00077
20.8 0.00054
20.85 0.00075
20.9 0.00085
20.95 0.00071
21 0.00084
21.05 0.00107
21.1 0.00098
21.15 0.00073
21.2 0.00043
21.25 0.00015
21.3 0.0001
21.35 0.00018
21.4 0.0005
21.45 0.00039
21.5 0.00009
21.55 -0.00056
21.6 -0.0013
21.65 -0.00198
21.7 -0.00231
21.75 -0.00222
21.8 -0.00235
21.85 -0.00215
21.9 -0.00203
21.95 -0.00159
22 -0.00106
22.05 -0.00025
22.1 0.00032
22.15 0.00024
22.2 0.00002
22.25 -0.00012
22.3 -0.00062
22.35 -0.00069
22.4 -0.00082
22.45 -0.00054
22.5 -0.00022
22.55 0.00042
22.6 0.00058
22.65 0.00031
22.7 0.00031
22.75 -0.00002
22.8 -0.00064
22.85 -0.00074
22.9 -0.00044
22.95 -0.00044
23 -0.00003
23.05 0.0001
23.1 0.00016
23.15 0.00012
23.2 0.00033
23.25 0.0007
23.3 0.001
23.35 0.00137
23.4 0.00179
23.45 0.00178
23.5 0.00197
23.55 0.00164
23.6 0.00106
23.65 0.00039
23.7 0.00001
23.75 -0.00004
23.8 -0.00022
23.85 -0.00052
23.9 -0.00045
23.95 -0.00064
24 -0.00035
24.05 -0.00059
24.1 -0.00077
24.15 -0.00124
24.2 -0.00165
24.25 -0.00155
24.3 -0.0016
24.35 -0.00136
24.4 -0.0012
24.45 -0.00142
24.5 -0.00159
24.55 -0.0013
24.6 -0.00108
24.65 -0.00112
24.7 -0.00083
24.75 -0.00023
24.8 0.00054
24.85 0.00093
24.9 0.00087
24.95 0.00071
25 0.00015
25.05 0.00016
25.1 -0.00021
25.15 -0.00005
25.2 0.00007
25.25 0.0004
25.3 0.00079
25.35 0.0006
25.4 0.00013
25.45 -0.00012
25.5 -0.00063
25.55 -0.00048
25.6 -0.00034
25.65 -0.00008
25.7 0.00025
25.75 0.0007
25.8 0.00127
25.85 0.0012
25.9 0.00091
25.95 0.00076
26 0.00064
26.05 0.00039
26.1 0.00045
26.15 0.00007
26.2 -0.00005
26.25 -0.00039
26.3 -0.00099
26.35 -0.00107
26.4 -0.00077
26.45 -0.00058
26.5 -0.00033
26.55 -0.00014
26.6 -0.00031
26.65 -0.00084
26.7 -0.00145
26.75 -0.00187
26.8 -0.00195
26.85 -0.0017
26.9 -0.00112
26.95 -0.00067
27 0.00001
27.05 0.00006
27.1 0.00031
27.15 0.00031
27.2 -0.00004
27.25 -0.00066
27.3 -0.0007
27.35 -0.00093
27.4 -0.00094
27.45 -0.0005
27.5 -0.00032
27.55 0.00017
27.6 0.00001
27.65 0
27.7 0.00022
27.75 0.00027
27.8 0.00017
27.85 -0.00002
27.9 -0.00015
27.95 0.00003
28 -0.00032
28.05 -0.00045
28.1 -0.00038
28.15 -0.00023
28.2 0.00012
28.25 0.00025
28.3 0.00024
28.35 0.00031
28.4 0.00048
28.45 0.00062
28.5 0.00052
28.55 0.00054
28.6 0.00023
28.65 0.00017
28.7 0.0003
28.75 0.00079
28.8 0.00062
28.85 0.0006
28.9 0.00043
28.95 -0.00008
29 -0.00042
29.05 -0.00031
29.1 0.00011
29.15 -0.00005
29.2 0.0001
29.25 0.0001
29.3 0.00037
29.35 0.00065
29.4 0.00033
29.45 0.00021
29.5 0.00021
29.55 -0.00028
29.6 -0.00088
29.65 -0.00104
29.7 -0.00089
29.75 -0.00083
29.8 -0.00068
29.85 -0.00054
29.9 -0.00004
29.95 0.00063
30 0.0007
30.05 0.00103
30.1 0.00082
30.15 0.00067
30.2 0.00025
30.25 -0.0001
30.3 -0.00032
30.35 -0.0008
30.4 -0.00105
30.45 -0.00142
30.5 -0.00144
30.55 -0.00168
30.6 -0.00194
30.65 -0.00222
30.7 -0.00263
30.75 -0.00296
30.8 -0.00319
30.85 -0.00262
30.9 -0.00159
30.95 -0.00038
31 0.00077
31.05 0.00169
31.1 0.00186
31.15 0.00214
31.2 0.00224
31.25 0.00214
31.3 0.00211
31.35 0.00204
31.4 0.00198
31.45 0.00164
31.5 0.00141
31.55 0.00132
31.6 0.00114
31.65 0.00094
31.7 0.00052
31.75 0.00027
31.8 0.00009
31.85 0.00032
31.9 0.00042
31.95 0.00036
32 0.00042
32.05 0.00008
32.1 -0.00056
32.15 -0.00117
32.2 -0.0014
32.25 -0.0015
32.3 -0.00145
32.35 -0.00096
32.4 -0.00063
32.45 -0.00025
32.5 -0.00024
32.55 -0.00053
32.6 -0.00108
32.65 -0.00177
32.7 -0.00227
32.75 -0.00233
32.8 -0.00201
32.85 -0.00137
32.9 -0.00065
32.95 -0.00058
33 -0.00087
33.05 -0.00054
33.1 -0.0003
33.15 0.00001
33.2 0.00027
33.25 0.00043
33.3 0.00031
33.35 0.00039
33.4 0.00031
33.45 0.00038
33.5 0.00036
33.55 -0.00005
33.6 -0
33.65 0.00003
33.7 0.00026
33.75 0.0003
33.8 0.0004
33.85 0.00085
33.9 0.00141
33.95 0.00187
34 0.00208
34.05 0.00246
34.1 0.00233
34.15 0.00162
34.2 0.00074
34.25 0.00008
34.3 -0.00045
34.35 -0.00051
34.4 -0.00032
34.45 -0.00022
34.5 -0.00035
34.55 -0.0005
34.6 -0.00077
34.65 -0.00067
34.7 -0.00081
34.75 -0.00102
34.8 -0.00113
34.85 -0.00109
34.9 -0.00078
34.95 -0.00084
35 -0.00095
35.05 -0.0013
35.1 -0.0014
35.15 -0.00097
35.2 -0.0003
35.25 0.00029
35.3 0.00048
35.35 0.00045
35.4 -0.00001
35.45 -0.0005
35.5 -0.00076
35.55 -0.00071
35.6 -0.00023
35.65 -0.00034
35.7 -0.00002
35.75 0.00006
35.8 0.00025
35.85 0.00022
35.9 -0.00022
35.95 -0.0006
36 -0.00034
36.05 -0.00023
36.1 -0.00011
36.15 0.00002
36.2 0
36.25 -0.00038
36.3 -0.00019
36.35 -0.00011
36.4 -0.00026
36.45 -0.00002
36.5 0.00029
36.55 0.00034
36.6 -0.00009
36.65 -0.00036
36.7 -0.00075
36.75 -0.00054
36.8 -0.0001
36.85 0.00031
36.9 0.00072
36.95 0.00051
37 0.00066
37.05 0.00055
37.1 0.00023
37.15 0.00035
37.2 0.00032
37.25 0.00053
37.3 0.00094
37.35 0.00101
37.4 0.00054
37.45 0.00046
37.5 0.00029
37.55 0.00026
37.6 -0.00011
37.65 -0.00067
37.7 -0.00113
37.75 -0.00115
37.8 -0.00133
37.85 -0.00122
37.9 -0.00113
37.95 -0.001
38 -0.00105
38.05 -0.00106
38.1 -0.00061
38.15 0.0001
38.2 0.00013
38.25 -0.00005
38.3 0.0002
38.35 -0.00008
38.4 0.00017
38.45 0.00031
38.5 0.00058
38.55 0.00076
38.6 0.00051
38.65 -0.00003
38.7 -0.00008
38.75 0.00026
38.8 0.00039
38.85 0.00006
38.9 0.00016
38.95 0.00029
39 0.00048
39.05 0.00073
39.1 0.00073
39.15 0.00074
39.2 0.00084
39.25 0.00123
39.3 0.0014
39.35 0.00159
39.4 0.0019
39.45 0.0017
39.5 0.00098
39.55 0.00006
39.6 -0.0008
39.65 -0.00141
39.7 -0.00126
39.75 -0.00073
39.8 -0.00034
39.85 0
39.9 0.00003
39.95 -0.00037
40 -0.00104
40.05 -0.00178
40.1 -0.00228
40.15 -0.00264
40.2 -0.00291
40.25 -0.00275
40.3 -0.00286
40.35 -0.00238
40.4 -0.00156
40.45 -0.00097
40.5 -0.00081
40.55 -0.00049
40.6 -0.00011
40.65 0.00048
40.7 0.00109
40.75 0.00161
40.8 0.00205
40.85 0.00191
40.9 0.00197
40.95 0.00168
41 0.0013
41.05 0.0011
41.1 0.00113
41.15 0.00082
41.2 0.00017
41.25 -0.00028
41.3 -0.00034
41.35 -0.0003
41.4 -0.00043
41.45 -0.00086
41.5 -0.00111
41.55 -0.00159
41.6 -0.00179
41.65 -0.00138
41.7 -0.00099
41.75 -0.00074
41.8 -0.00022
41.85 0.00029
41.9 0.00068
41.95 0.00132
42 0.0013
42.05 0.00105
42.1 0.00114
42.15 0.00119
42.2 0.00156
42.25 0.00165
42.3 0.00191
42.35 0.00214
42.4 0.00198
42.45 0.00125
42.5 0.00059
42.55 0.00024
42.6 0.0003
42.65 -0.00004
42.7 -0.00015
42.75 -0.00041
42.8 -0.00027
42.85 -0.00044
42.9 -0.00014
42.95 -0.00025
43 -0.00067
43.05 -0.00054
43.1 -0.00017
43.15 0.00018
43.2 0.00021
43.25 0.00023
43.3 0.00002
43.35 -0.00022
43.4 -0.00081
43.45 -0.00099
43.5 -0.00139
43.55 -0.00139
43.6 -0.00168
43.65 -0.00215
43.7 -0.00183
43.75 -0.00158
43.8 -0.00086
43.85 -0.00002
43.9 0.00011
43.95 0.00039
44 0.00061
44.05 0.00097
44.1 0.00098
44.15 0.0013
44.2 0.00124
44.25 0.00101
44.3 0.00119
44.35 0.00118
44.4 0.00116
44.45 0.00126
44.5 0.00106
44.55 0.00128
44.6 0.0011
44.65 0.00047
44.7 -0.00005
44.75 0.00002
44.8 -0.00038
44.85 -0.00037
44.9 -0.00073
44.95 -0.00118
45 -0.00121
45.05 -0.00083
45.1 -0.00095
45.15 -0.00125
45.2 -0.00154
45.25 -0.00131
45.3 -0.00127
45.35 -0.00117
45.4 -0.00065
45.45 -0.00067
45.5 -0.00025
45.55 0.00003
45.6 -0.00019
45.65 -0.00011
45.7 0.0002
45.75 0.0006
45.8 0.00093
45.85 0.00063
45.9 0.00042
45.95 0.00027
46 -0.00017
46.05 -0.00047
46.1 -0.00033
46.15 -0.00002
46.2 -0.00007
46.25 0.00032
46.3 0.00093
46.35 0.00121
46.4 0.00151
46.45 0.00158
46.5 0.0019
46.55 0.0023
46.6 0.00277
46.65 0.00269
46.7 0.00222
46.75 0.00146
46.8 0.00078
46.85 0.00023
46.9 0.00014
46.95 0.00043
47 0.00088
47.05 0.00105
47.1 0.00093
47.15 0.00056
47.2 0.00068
47.25 0.00089
47.3 0.0011
47.35 0.00066
47.4 0.0007
47.45 0.00087
47.5 0.00071
47.55 0.00071
47.6 0.00046
47.65 0.00022
47.7 0.00035
47.75 -0.00005
47.8 -0.00003
47.85 -0.00033
47.9 -0.00092
47.95 -0.00137
48 -0.00142
48.05 -0.00116
48.1 -0.00065
48.15 -0.00011
48.2 0.00006
48.25 -0.00007
48.3 0.00019
48.35 0.00021
48.4 0.00008
48.45 -0.00028
48.5 -0.00057
48.55 -0.00071
48.6 -0.00117
48.65 -0.00097
48.7 -0.00098
48.75 -0.00084
48.8 -0.00113
48.85 -0.00143
48.9 -0.00123
48.95 -0.00084
49 -0.0003
49.05 -0.00011
49.1 -0.00041
49.15 -0.00018
49.2 -0.00041
49.25 -0.00038
49.3 -0.00055
49.35 -0.00063
49.4 -0.00072
49.45 -0.00069
49.5 -0.00026
49.55 0.00043
49.6 0.00114
49.65 0.00149
49.7 0.00194
49.75 0.00169
49.8 0.0012
49.85 0.00032
49.9 -0
49.95 -0.00065
50 -0.00083
50.05 -0.00089
50.1 -0.00069
50.15 -0.00071
50.2 -0.00103
50.25 -0.00114
50.3 -0.00145
50.35 -0.00179
50.4 -0.0016
50.45 -0.00171
50.5 -0.00151
50.55 -0.00117
50.6 -0.00118
50.65 -0.0012
50.7 -0.00105
50.75 -0.00113
50.8 -0.00103
50.85 -0.00076
50.9 -0.00088
50.95 -0.00087
51 -0.0007
51.05 -0.00071
51.1 -0.00083
51.15 -0.00089
51.2 -0.0013
51.25 -0.00122
51.3 -0.00092
51.35 -0.00095
51.4 -0.00099
51.45 -0.00067
51.5 -0.00063
51.55 -0.00079
51.6 -0.00084
51.65 -0.00074
51.7 -0.00047
51.75 -0.00049
51.8 -0.00022
51.85 -0.00011
51.9 -0.00046
51.95 -0.00041
52 -0.00054
52.05 -0.00077
52.1 -0.00039
52.15 -0.00027
52.2 -0.00045
52.25 -0.00023
52.3 0.00015
52.35 0.00023
52.4 0.00027
52.45 0.00002
52.5 0.00021
52.55 0.00064
52.6 0.00103
52.65 0.00152
52.7 0.00159
52.75 0.00191
52.8 0.00222
52.85 0.00231
52.9 0.00228
52.95 0.00186
53 0.00181
53.05 0.00178
53.1 0.00202
53.15 0.0017
53.2 0.00103
53.25 0.00046
53.3 0.00018
53.35 -0.00033
53.4 -0.00042
53.45 -0.0009
53.5 -0.00089
53.55 -0.00114
53.6 -0.00113
53.65 -0.00099
53.7 -0.00083
53.75 -0.00069
53.8 -0.00038
53.85 -0.00053
53.9 -0.00068
53.95 -0.00048
54 -0.00012
54.05 -0.00028
54.1 -0.00078
54.15 -0.00145
54.2 -0.00207
54.25 -0.00242
54.3 -0.00249
54.35 -0.00216
54.4 -0.00199
54.45 -0.00168
54.5 -0.00107
54.55 -0.00103
54.6 -0.00071
54.65 -0.00038
54.7 -0.00053
54.75 -0.00034
54.8 -0.00061
54.85 -0.00078
54.9 -0.00083
54.95 -0.00114
55 -0.00078
55.05 -0.00037
55.1 0.00014
55.15 0.00056
55.2 0.00066
55.25 0.00113
55.3 0.00146
55.35 0.00148
55.4 0.00116
55.45 0.00056
55.5 0.00046
55.55 0.00077
55.6 0.00072
55.65 0.00073
55.7 0.00091
55.75 0.00082
55.8 0.00071
55.85 0.00101
55.9 0.00078
55.95 0.00065
56 0.00047
56.05 0.00044
56.1 0.00003
56.15 -0.00038
56.2 -0.00066
56.25 -0.00068
56.3 -0.00036
56.35 -0.00037
56.4 -0.00026
56.45 -0.00033
56.5 -0.00029
56.55 -0.00012
56.6 -0.00043
56.65 -0.00036
56.7 -0.00057
56.75 -0.00054
56.8 -0.00034
56.85 0.00002
56.9 0.00048
56.95 0.001
57 0.00117
57.05 0.00095
57.1 0.00047
57.15 0.0002
57.2 -0.00012
57.25 -0.00065
57.3 -0.00078
57.35 -0.00044
57.4 -0.00045
57.45 -0
57.5 0.00051
57.55 0.00118
57.6 0.0015
57.65 0.00191
57.7 0.00177
57.75 0.00195
57.8 0.00197
57.85 0.00207
57.9 0.00229
57.95 0.00219
58 0.00178
58.05 0.0013
58.1 0.00101
58.15 0.00083
58.2 0.00075
58.25 0.00046
58.3 0.00025
58.35 0.0001
58.4 0.00026
58.45 -0.00013
58.5 -0.0003
58.55 -0.00018
58.6 -0.00046
58.65 -0.00085
58.7 -0.00123
58.75 -0.00143
58.8 -0.00127
58.85 -0.00143
58.9 -0.00159
58.95 -0.00127
59 -0.00137
59.05 -0.00146
59.1 -0.00108
59.15 -0.00087
59.2 -0.00052
59.25 0.0001
59.3 0.00057
59.35 0.00036
59.4 0.00019
59.45 0.00027
59.5 0.00056
59.55 0.00035
59.6 0.0004
59.65 0.00034
59.7 0.00042
59.75 0.00018
59.8 0.00026
59.85 0.00047
59.9 0.00058
59.95 0.00097
60 0.00087
60.05 0.00087
60.1 0.00107
60.15 0.00077
60.2 0.00045
60.25 -0.00012
60.3 -0.0003
60.35 -0.00063
60.4 -0.0009
60.45 -0.00058
60.5 -0.00034
60.55 -0.00055
60.6 -0.00045
60.65 -0.00017
60.7 -0.00027
60.75 -0.00057
60.8 -0.00038
60.85 -0.00067
60.9 -0.00069
60.95 -0.00032
61 0.00018
61.05 0.00087
61.1 0.00124
61.15 0.00114
61.2 0.00104
61.25 0.00106
61.3 0.00114
61.35 0.00072
61.4 0.00058
61.45 0.0001
61.5 -0.00008
61.55 -0.00006
61.6 -0.00029
61.65 -0.00042
61.7 -0.00004
61.75 -0.00025
61.8 -0.00024
61.85 -0.00003
61.9 -0.00031
61.95 -0.00016
62 -0.00009
62.05 0.00033
62.1 0.00096
62.15 0.00094
62.2 0.00077
62.25 0.00025
62.3 0.00009
62.35 0.00037
62.4 0.00036
62.45 0.00016
62.5 -0.00022
62.55 -0.00048
62.6 -0.00031
62.65 0.00024
62.7 0.00054
62.75 0.00032
62.8 -0.00004
62.85 -0.00004
62.9 -0.00019
62.95 0.00002
63 0.0001
63.05 0.00007
63.1 0.00045
63.15 0.00104
63.2 0.0015
63.25 0.00145
63.3 0.0014
63.35 0.00119
63.4 0.00076
63.45 0.00043
63.5 0.00025
63.55 0.00022
63.6 -0.00003
63.65 -0.00062
63.7 -0.00109
63.75 -0.00166
63.8 -0.00225
63.85 -0.00232
63.9 -0.0026
63.95 -0.00229
64 -0.0018
64.05 -0.00159
64.1 -0.00111
64.15 -0.00063
64.2 -0.00001
64.25 0.00013
64.3 0.00038
64.35 0.00025
64.4 0.00057
64.45 0.00038
64.5 0.00016
64.55 0.00019
64.6 0.0001
64.65 0.0004
64.7 0.0001
64.75 0.0001
64.8 -0.00003
64.85 0.00006
64.9 0.00033
64.95 0.00055
65 0.0009
65.05 0.00079
65.1 0.00105
65.15 0.00099
65.2 0.00112
65.25 0.00135
65.3 0.00139
65.35 0.001
65.4 0.00078
65.45 0.00068
65.5 0.00008
65.55 -0.00073
65.6 -0.00106
65.65 -0.00162
65.7 -0.00167
65.75 -0.00156
65.8 -0.00137
65.85 -0.00098
65.9 -0.00096
65.95 -0.00074
66 -0.00092
66.05 -0.00117
66.1 -0.00106
66.15 -0.00085
66.2 -0.00084
66.25 -0.00077
66.3 -0.00102
66.35 -0.00133
66.4 -0.00114
66.45 -0.00075
66.5 -0.00056
66.55 -0.00008
66.6 -0.00014
66.65 0.00021
66.7 0.00015
66.75 0.00041
66.8 0.00025
66.85 0.00008
66.9 0.00033
66.95 0.00003
67 -0.00027
67.05 -0.00027
67.1 -0.00022
67.15 0.00023
67.2 0.00035
67.25 -0.00003
67.3 -0.00046
67.35 -0.00027
67.4 -0.00058
67.45 -0.00117
67.5 -0.00128
67.55 -0.00114
67.6 -0.00142
67.65 -0.00112
67.7 -0.00047
67.75 -0.0003
67.8 -0.00036
67.85 -0.0006
67.9 -0.00037
67.95 0.00024
68 0.00048
68.05 0.0003
68.1 0.00009
68.15 -0.00001
68.2 0.00004
68.25 0.00048
68.3 0.0005
68.35 0.00032
68.4 0.0004
68.45 0.00017
68.5 -0.00025
68.55 -0.00025
68.6 0.00018
68.65 0.00057
68.7 0.00103
68.75 0.00118
68.8 0.00083
68.85 0.00063
68.9 0.00072
68.95 0.00049
69 0.00072
69.05 0.00037
69.1 0.00014
69.15 -0.00023
69.2 -0.00072
69.25 -0.00104
69.3 -0.00142
69.35 -0.00145
69.4 -0.00139
69.45 -0.00094
69.5 -0.00028
69.55 0.00038
69.6 0.00084
69.65 0.00119
69.7 0.00173
69.75 0.00197
69.8 0.00204
69.85 0.00231
69.9 0.002
69.95 0.002
70 0.00137
70.05 0.00063
70.1 0
70.15 -0.00079
70.2 -0.00147
70.25 -0.00142
70.3 -0.00127
70.35 -0.00082
70.4 -0.0009
70.45 -0.0007
70.5 -0.00062
70.55 -0.00039
70.6 -0.00002
70.65 -0.0001
70.7 0.00021
70.75 0.00062
70.8 0.0007
70.85 0.00098
70.9 0.00126
70.95 0.0017
71 0.00176
71.05 0.0018
71.1 0.00173
71.15 0.00111
71.2 0.00083
71.25 0.00048
71.3 0.00027
71.35 0.00006
71.4 -0.00015
71.45 0.00008
71.5 0.00006
71.55 -0.00031
71.6 -0.00086
71.65 -0.00154
71.7 -0.00145
71.75 -0.00132
71.8 -0.00085
71.85 -0.00012
71.9 0.00047
71.95 0.00095
72 0.00144
72.05 0.00166
72.1 0.00135
72.15 0.00064
72.2 -0.00013
72.25 -0.00069
72.3 -0.00129
72.35 -0.00155
72.4 -0.00192
72.45 -0.00199
72.5 -0.00199
72.55 -0.0021
72.6 -0.00223
72.65 -0.00252
72.7 -0.00217
72.75 -0.00153
72.8 -0.00081
72.85 0.00005
72.9 0.00098
72.95 0.00176
73 0.00212
73.05 0.0025
73.1 0.00219
73.15 0.00133
73.2 0.0008
73.25 0.00003
73.3 -0.00067
73.35 -0.00071
73.4 -0.00085
73.45 -0.00129
73.5 -0.00177
73.55 -0.00204
73.6 -0.00216
73.65 -0.00195
73.7 -0.00172
73.75 -0.00186
73.8 -0.0018
73.85 -0.00163
73.9 -0.00118
73.95 -0.00041
74 0.0001
74.05 0.00069
74.1 0.00142
74.15 0.00202
74.2 0.00234
74.25 0.00229
74.3 0.00179
74.35 0.00172
74.4 0.00186
74.45 0.00142
74.5 0.00123
74.55 0.00102
74.6 0.00041
74.65 -0.00006
74.7 -0.00041
74.75 -0.00099
74.8 -0.0017
74.85 -0.00178
74.9 -0.0018
74.95 -0.00157
75 -0.00146
75.05 -0.00122
75.1 -0.00123
75.15 -0.00133
75.2 -0.00128
75.25 -0.00088
75.3 -0.00096
75.35 -0.00079
75.4 -0.00098
75.45 -0.00058
75.5 -0.00019
75.55 0.00047
75.6 0.00046
75.65 0.00012
75.7 -0.00015
75.75 -0.00021
75.8 -0.00047
75.85 -0.00088
75.9 -0.00107
75.95 -0.00068
76 -0.00026
76.05 0.00014
76.1 0.00076
76.15 0.00139
76.2 0.00174
76.25 0.00225
76.3 0.00213
76.35 0.00149
76.4 0.00068
76.45 0.00003
76.5 -0.00004
76.55 -0.00033
76.6 -0.00066
76.65 -0.00042
76.7 -0.00021
76.75 -0.00001
76.8 0.00039
76.85 0.00085
76.9 0.00108
76.95 0.00084
77 0.0003
77.05 -0.00038
77.1 -0.00037
77.15 -0.00054
77.2 -0.00082
77.25 -0.00122
77.3 -0.00122
77.35 -0.00154
77.4 -0.00164
77.45 -0.00156
77.5 -0.00172
77.55 -0.00134
77.6 -0.00069
77.65 -0.00016
77.7 0.00052
77.75 0.0006
77.8 0.00096
77.85 0.00114
77.9 0.00071
77.95 0.00008
78 -0.00044
78.05 -0.00067
78.1 -0.0013
78.15 -0.0023
78.2 -0.00357
78.25 -0.00465
78.3 -0.00513
78.35 -0.00589
78.4 -0.00639
78.45 -0.00678
78.5 -0.00741
78.55 -0.00841
78.6 -0.01012
78.65 -0.01195
78.7 -0.01429
78.75 -0.01681
78.8 -0.0195
78.85 -0.02277
78.9 -0.02704
78.95 -0.03141
79 -0.03641
79.05 -0.04175
79.1 -0.04794
79.15 -0.05489
79.2 -0.06197
79.25 -0.06909
79.3 -0.07696
79.35 -0.08525
79.4 -0.09401
79.45 -0.10297
79.5 -0.1123
79.55 -0.12195
79.6 -0.13281
79.65 -0.14364
79.7 -0.15521
79.75 -0.16638
79.8 -0.17796
79.85 -0.18892
79.9 -0.19969
79.95 -0.20973
80 -0.21898
80.05 -0.22801
80.1 -0.23616
80.15 -0.24295
80.2 -0.24901
80.25 -0.25397
80.3 -0.25712
80.35 -0.25854
80.4 -0.25846
80.45 -0.25721
80.5 -0.25424
80.55 -0.25008
80.6 -0.24422
80.65 -0.2372
80.7 -0.22847
80.75 -0.21875
80.8 -0.2076
80.85 -0.19563
80.9 -0.18291
80.95 -0.16929
81 -0.15488
81.05 -0.13951
81.1 -0.12375
81.15 -0.10707
81.2 -0.09025
81.25 -0.07337
81.3 -0.05671
81.35 -0.03991
81.4 -0.02307
81.45 -0.00626
81.5 0.01057
81.55 0.02712
81.6 0.04332
81.65 0.05927
81.7 0.07455
81.75 0.08968
81.8 0.10417
81.85 0.11801
81.9 0.13128
81.95 0.14358
82 0.15536
82.05 0.16637
82.1 0.17734
82.15 0.18792
82.2 0.19765
82.25 0.20725
82.3 0.21564
82.35 0.22296
82.4 0.22938
82.45 0.23493
82.5 0.23976
82.55 0.24366
82.6 0.24669
82.65 0.24912
82.7 0.25117
82.75 0.25238
82.8 0.25334
82.85 0.25395
82.9 0.25389
82.95 0.25299
83 0.25136
83.05 0.24892
83.1 0.24546
83.15 0.24157
83.2 0.23691
83.25 0.23173
83.3 0.22617
83.35 0.22034
83.4 0.21369
83.45 0.20688
83.5 0.20026
83.55 0.19391
83.6 0.18709
83.65 0.18022
83.7 0.17302
83.75 0.16576
83.8 0.15927
83.85 0.15312
83.9 0.14679
83.95 0.14055
84 0.13469
84.05 0.12931
84.1 0.12383
84.15 0.11862
84.2 0.11304
84.25 0.10806
84.3 0.10352
84.35 0.09852
84.4 0.09346
84.45 0.0882
84.5 0.08286
84.55 0.07794
84.6 0.07373
84.65 0.06953
84.7 0.06536
84.75 0.06115
84.8 0.05705
84.85 0.05318
84.9 0.0495
84.95 0.04638
85 0.04337
85.05 0.04012
85.1 0.03653
85.15 0.03302
85.2 0.02953
85.25 0.02621
85.3 0.02341
85.35 0.02067
85.4 0.01761
85.45 0.01447
85.5 0.01132
85.55 0.00889
85.6 0.00683
85.65 0.00451
85.7 0.00244
85.75 0.00032
85.8 -0.00175
85.85 -0.00363
85.9 -0.00576
85.95 -0.00733
86 -0.0092
86.05 -0.0112
86.1 -0.01327
86.15 -0.01498
86.2 -0.01641
86.25 -0.01785
86.3 -0.01871
86.35 -0.0194
86.4 -0.02053
86.45 -0.0214
86.5 -0.02261
86.55 -0.02342
86.6 -0.02463
86.65 -0.02536
86.7 -0.02603
86.75 -0.02626
86.8 -0.02703
86.85 -0.02732
86.9 -0.02743
86.95 -0.02771
87 -0.02842
87.05 -0.02871
87.1 -0.02893
87.15 -0.02922
87.2 -0.02996
87.25 -0.03091
87.3 -0.03209
87.35 -0.0328
87.4 -0.03315
87.45 -0.03351
87.5 -0.03374
87.55 -0.03387
87.6 -0.03391
87.65 -0.0339
87.7 -0.03379
87.75 -0.03358
87.8 -0.03304
87.85 -0.03251
87.9 -0.03197
87.95 -0.03188
88 -0.03184
88.05 -0.03167
88.1 -0.03118
88.15 -0.03094
88.2 -0.03103
88.25 -0.03121
88.3 -0.03161
88.35 -0.03207
88.4 -0.03181
88.45 -0.03154
88.5 -0.03081
88.55 -0.03019
88.6 -0.03003
88.65 -0.02941
88.7 -0.02919
88.75 -0.02924
88.8 -0.0293
88.85 -0.02945
88.9 -0.0295
88.95 -0.02911
89 -0.02878
89.05 -0.02856
89.1 -0.02781
89.15 -0.02695
89.2 -0.02659
89.25 -0.02619
89.3 -0.02601
89.35 -0.02554
89.4 -0.02514
89.45 -0.02482
89.5 -0.02403
89.55 -0.023
89.6 -0.02226
89.65 -0.02189
89.7 -0.02139
89.75 -0.021
89.8 -0.02057
89.85 -0.01993
89.9 -0.0195
89.95 -0.01908
90 -0.01876
90.05 -0.01884
90.1 -0.01843
90.15 -0.01811
90.2 -0.01807
90.25 -0.01767
90.3 -0.01707
90.35 -0.01686
90.4 -0.01692
90.45 -0.01715
90.5 -0.01716
90.55 -0.01746
90.6 -0.01771
90.65 -0.01755
90.7 -0.01731
90.75 -0.01716
90.8 -0.01715
90.85 -0.01727
90.9 -0.01716
90.95 -0.01724
91 -0.01746
91.05 -0.01757
91.1 -0.01713
91.15 -0.01661
91.2 -0.01592
91.25 -0.01501
91.3 -0.01462
91.35 -0.01415
91.4 -0.01328
91.45 -0.01245
91.5 -0.01219
91.55 -0.01167
91.6 -0.01127
91.65 -0.01056
91.7 -0.01009
91.75 -0.01021
91.8 -0.01034
91.85 -0.01071
91.9 -0.01051
91.95 -0.01028
92 -0.01027
92.05 -0.01023
92.1 -0.01008
92.15 -0.01009
92.2 -0.00978
92.25 -0.00952
92.3 -0.0091
92.35 -0.00881
92.4 -0.00852
92.45 -0.00821
92.5 -0.008
92.55 -0.00808
92.6 -0.00791
92.65 -0.00826
92.7 -0.00878
92.75 -0.0089
92.8 -0.00909
92.85 -0.00938
92.9 -0.00942
92.95 -0.00892
93 -0.00839
93.05 -0.00792
93.1 -0.00712
93.15 -0.00704
93.2 -0.00723
93.25 -0.00698
93.3 -0.00687
93.35 -0.00648
93.4 -0.00647
93.45 -0.00603
93.5 -0.00574
93.55 -0.00571
93.6 -0.00574
93.65 -0.00561
93.7 -0.00578
93.75 -0.00624
93.8 -0.00612
93.85 -0.00597
93.9 -0.00567
93.95 -0.0053
94 -0.00537
94.05 -0.0057
94.1 -0.00592
94.15 -0.00586
94.2 -0.00574
94.25 -0.00546
94.3 -0.00528
94.35 -0.00549
94.4 -0.00528
94.45 -0.00532
94.5 -0.00493
94.55 -0.00501
94.6 -0.00517
94.65 -0.00482
94.7 -0.00457
94.75 -0.00439
94.8 -0.00447
94.85 -0.00416
94.9 -0.00436
94.95 -0.00475
95 -0.00476
95.05 -0.00453
95.1 -0.00417
95.15 -0.00391
95.2 -0.00415
95.25 -0.0041
95.3 -0.00364
95.35 -0.00358
95.4 -0.00384
95.45 -0.0041
95.5 -0.00424
95.55 -0.00382
95.6 -0.00391
95.65 -0.00432
95.7 -0.00441
95.75 -0.00446
95.8 -0.00393
95.85 -0.00389
95.9 -0.00409
95.95 -0.00416
96 -0.00454
96.05 -0.00491
96.1 -0.00501
96.15 -0.0053
96.2 -0.00567
96.25 -0.00544
96.3 -0.00482
96.35 -0.00421
96.4 -0.00369
96.45 -0.00305
96.5 -0.00278
96.55 -0.0029
96.6 -0.00246
96.65 -0.00237
96.7 -0.00265
96.75 -0.00282
96.8 -0.00323
96.85 -0.00364
96.9 -0.00347
96.95 -0.00317
97 -0.00254
97.05 -0.00182
97.1 -0.00165
97.15 -0.00114
97.2 -0.00115
97.25 -0.00155
97.3 -0.00202
97.35 -0.00267
97.4 -0.00334
97.45 -0.00402
97.5 -0.00389
97.55 -0.00337
97.6 -0.00294
97.65 -0.00222
97.7 -0.00172
97.75 -0.00124
97.8 -0.00064
97.85 -0.00072
97.9 -0.0005
97.95 -0.00044
98 -0.00024
98.05 0.00013
98.1 0.00065
98.15 0.00124
98.2 0.00136
98.25 0.00082
98.3 0.00044
98.35 0.00042
98.4 0.00015
98.45 -0.00027
98.5 -0.00065
98.55 -0.00102
98.6 -0.00104
98.65 -0.00126
98.7 -0.00108
98.75 -0.00088
98.8 -0.00055
98.85 -0.00042
98.9 -0.00082
98.95 -0.0014
99 -0.00178
99.05 -0.00154
99.1 -0.0009
99.15 -0.00035
99.2 0.00032
99.25 0.00054
99.3 0.00086
99.35 0.00127
99.4 0.00126
99.45 0.00093
99.5 0.0007
99.55 0.00059
99.6 0.00027
99.65 0.00015
99.7 -0.00032
99.75 -0.00043
99.8 -0.0006
99.85 -0.00081
99.9 -0.00076
99.95 -0.00052
