0 0
0.05 0.00159
0.1 0.00351
0.15 0.00552
0.2 0.00768
0.25 0.0092
0.3 0.00961
0.35 0.01093
0.4 0.01089
0.45 0.01022
0.5 0.01088
0.55 0.01147
0.6 0.01182
0.65 0.01181
0.7 0.01269
0.75 0.01412
0.8 0.01498
0.85 0.01587
0.9 0.01633
0.95 0.01532
1 0.01488
1.05 0.01338
1.1 0.01264
1.15 0.01289
1.2 0.01352
1.25 0.01405
1.3 0.01378
1.35 0.01345
1.4 0.01202
1.45 0.01028
1.5 0.00967
1.55 0.00823
1.6 0.00822
1.65 0.00834
1.7 0.00934
1.75 0.01056
1.8 0.01082
1.85 0.01156
1.9 0.01203
1.95 0.01127
2 0.00951
2.05 0.00738
2.1 0.00685
2.15 0.0065
2.2 0.00694
2.25 0.00616
2.3 0.00591
2.35 0.00659
2.4 0.00676
2.45 0.00684
2.5 0.00627
2.55 0.00592
2.6 0.00527
2.65 0.0052
2.7 0.0051
2.75 0.00565
2.8 0.00534
2.85 0.00418
2.9 0.00456
2.95 0.00555
3 0.00615
3.05 0.00549
3.1 0.00493
3.15 0.00385
3.2 0.00375
3.25 0.00342
3.3 0.00243
3.35 0.00283
3.4 0.00354
3.45 0.00409
3.5 0.00426
3.55 0.00363
3.6 0.00265
3.65 0.00261
3.7 0.00194
3.75 0.00117
3.8 -0.00002
3.85 0.00016
3.9 0.00048
3.95 0.0005
4 0.0005
4.05 -0.00021
4.1 0.00039
4.15 0.00103
4.2 0.00255
4.25 0.0037
4.3 0.00392
4.35 0.00305
4.4 0.00351
4.45 0.00438
4.5 0.00477
4.55 0.00484
4.6 0.0045
4.65 0.00508
4.7 0.00476
4.75 0.00454
4.8 0.00531
4.85 0.00526
4.9 0.00461
4.95 0.00321
5 0.00271
5.05 0.00345
5.1 0.00356
5.15 0.00255
5.2 0.00202
5.25 0.00223
5.3 0.00137
5.35 0.00124
5.4 0.0008
5.45 0.00106
5.5 0.00084
5.55 0.00001
5.6 -0.0003
5.65 -0.00009
5.7 0.00089
5.75 0.00097
5.8 0.00083
5.85 0.0019
5.9 0.0023
5.95 0.00159
6 0.00111
6.05 -0.00002
6.1 0.0002
6.15 0.00003
6.2 0.00007
6.25 0.00018
6.3 0.00064
6.35 0.00083
6.4 0.00157
6.45 0.00263
6.5 0.00306
6.55 0.00324
6.6 0.00428
6.65 0.00528
6.7 0.00501
6.75 0.00483
6.8 0.00423
6.85 0.00408
6.9 0.00377
6.95 0.00327
7 0.00232
7.05 0.00107
7.1 0.00085
7.15 0.00153
7.2 0.00155
7.25 0.00054
7.3 0.00042
7.35 0.00083
7.4 0.00087
7.45 0.00017
7.5 -0.00123
7.55 -0.00149
7.6 -0.00035
7.65 0.00006
7.7 -0.00009
7.75 -0.00042
7.8 -0.00069
7.85 -0.00006
7.9 -0.0005
7.95 -0.00041
8 -0.00002
8.05 0.00036
8.1 0.00148
8.15 0.00202
8.2 0.00219
8.25 0.00299
8.3 0.00414
8.35 0.00485
8.4 0.00473
8.45 0.00521
8.5 0.00415
8.55 0.003
8.6 0.00227
8.65 0.00195
8.7 0.0023
8.75 0.00167
8.8 0.00148
8.85 0.00103
8.9 -0.00031
8.95 -0.00172
9 -0.00242
9.05 -0.00194
9.1 -0.00098
9.15 -0.00042
9.2 -0.00015
9.25 0.00009
9.3 0.0005
9.35 0.00118
9.4 0.00096
9.45 0.00051
9.5 -0.00027
9.55 -0.00147
9.6 -0.00273
9.65 -0.00358
9.7 -0.00451
9.75 -0.00428
9.8 -0.00272
9.85 -0.00193
9.9 -0.00183
9.95 -0.00194
10 -0.00098
10.05 0.00028
10.1 0.00188
10.15 0.00315
10.2 0.0044
10.25 0.00443
10.3 0.00344
10.35 0.00358
10.4 0.00416
10.45 0.00411
10.5 0.00294
10.55 0.00275
10.6 0.00151
10.65 0.00001
10.7 -0.0009
10.75 -0.00116
10.8 -0.00181
10.85 -0.00185
10.9 -0.00219
10.95 -0.00243
11 -0.00251
11.05 -0.00321
11.1 -0.00383
11.15 -0.00355
11.2 -0.00403
11.25 -0.00471
11.3 -0.00505
11.35 -0.0044
11.4 -0.00253
11.45 -0.0015
11.5 -0.00137
11.55 -0.00094
11.6 -0.00049
11.65 -0.00033
11.7 -0.00048
11.75 -0.00105
11.8 -0.00213
11.85 -0.00206
11.9 -0.00223
11.95 -0.00186
12 -0.00173
12.05 -0.00074
12.1 0.00008
12.15 0.00071
12.2 0.00154
12.25 0.00129
12.3 0.00174
12.35 0.00107
12.4 0.00111
12.45 0.0012
12.5 0.00083
12.55 0.00097
12.6 0.0001
12.65 0.00017
12.7 0.00121
12.75 0.00145
12.8 0.00171
12.85 0.00175
12.9 0.00075
12.95 -0.00087
13 -0.00157
13.05 -0.00219
13.1 -0.00336
13.15 -0.00276
13.2 -0.00274
13.25 -0.00192
13.3 -0.00052
13.35 0.00137
13.4 0.00356
13.45 0.00474
13.5 0.00489
13.55 0.00439
13.6 0.00311
13.65 0.00319
13.7 0.00303
13.75 0.0038
13.8 0.00454
13.85 0.00438
13.9 0.00318
13.95 0.00116
14 0.00008
14.05 0.00027
14.1 0.00095
14.15 0.00118
14.2 0.00047
14.25 0.00065
14.3 0.00117
14.35 0.00046
14.4 -0
14.45 -0.00036
14.5 -0.00019
14.55 -0.00034
14.6 0.00011
14.65 0.00106
14.7 0.00263
14.75 0.0027
14.8 0.00174
14.85 0.00091
14.9 0.00005
14.95 -0.00075
15 -0.00141
15.05 -0.00148
15.1 -0.00061
15.15 -0.0003
15.2 -0.00086
15.25 -0.00008
15.3 0.00112
15.35 0.00164
15.4 0.00146
15.45 0.00037
15.5 -0.00022
15.55 0.00025
15.6 0.00115
15.65 0.00174
15.7 0.00135
15.75 0.00194
15.8 0.00178
15.85 0.00071
15.9 0.00022
15.95 0.00048
16 0.00028
16.05 0.00081
16.1 0.00119
16.15 0.00074
16.2 0.00073
16.25 0.00063
16.3 0.00146
16.35 0.00244
16.4 0.0024
16.45 0.00201
16.5 0.00116
16.55 0.00049
16.6 0.00101
16.65 0.00209
16.7 0.00354
16.75 0.00364
16.8 0.00376
16.85 0.00417
16.9 0.00449
16.95 0.00518
17 0.00462
17.05 0.00485
17.1 0.00527
17.15 0.00561
17.2 0.00456
17.25 0.00403
17.3 0.00355
17.35 0.00349
17.4 0.00379
17.45 0.00311
17.5 0.00233
17.55 0.00067
17.6 -0.00103
17.65 -0.00279
17.7 -0.00293
17.75 -0.00286
17.8 -0.00241
17.85 -0.00107
17.9 -0.00014
17.95 -0.00048
18 0.00027
18.05 0.00033
18.1 -0.00011
18.15 0.0004
18.2 0.00066
18.25 0.00176
18.3 0.0022
18.35 0.00287
18.4 0.00328
18.45 0.00348
18.5 0.00252
18.55 0.00156
18.6 0.00074
18.65 -0.00074
18.7 -0.00209
18.75 -0.00386
18.8 -0.00558
18.85 -0.00639
18.9 -0.00655
18.95 -0.0069
19 -0.00645
19.05 -0.00467
19.1 -0.00313
19.15 -0.00268
19.2 -0.00296
19.25 -0.00237
19.3 -0.00202
19.35 -0.00087
19.4 0.00078
19.45 0.00107
19.5 0.00112
19.55 0.00092
19.6 0.00111
19.65 0.0015
19.7 0.0014
19.75 0.00207
19.8 0.00318
19.85 0.00314
19.9 0.00197
19.95 0.0002
20 -0.00033
20.05 0.00011
20.1 0.00042
20.15 -0.00024
20.2 -0.00016
20.25 -0.00007
20.3 0.00049
20.35 -0.00022
20.4 0.00013
20.45 0.00052
20.5 0.00161
20.55 0.00157
20.6 0.00155
20.65 0.00154
20.7 0.00218
20.75 0.00299
20.8 0.004
20.85 0.00323
20.9 0.00278
20.95 0.00234
21 0.00082
21.05 0.00037
21.1 -0.00081
21.15 -0.00155
21.2 -0.00224
21.25 -0.00211
21.3 -0.00141
21.35 -0.00086
21.4 -0.00149
21.45 -0.00241
21.5 -0.00269
21.55 -0.00259
21.6 -0.00168
21.65 -0.0008
21.7 -0.00092
21.75 -0.00121
21.8 -0.00204
21.85 -0.00217
21.9 -0.00218
21.95 -0.00262
22 -0.00301
22.05 -0.00378
22.1 -0.00353
22.15 -0.00211
22.2 -0.00064
22.25 -0.00027
22.3 0.00059
22.35 0.00187
22.4 0.00347
22.45 0.00501
22.5 0.00529
22.55 0.00494
22.6 0.00372
22.65 0.0016
22.7 -0.00059
22.75 -0.00298
22.8 -0.004
22.85 -0.00334
22.9 -0.00193
22.95 -0.0002
23 0.00005
23.05 0.0009
23.1 0.00105
23.15 0.0013
23.2 0.00122
23.25 0.00077
23.3 0.00041
23.35 0.00075
23.4 0.00129
23.45 0.0007
23.5 0.00098
23.55 0.00084
23.6 -0.00022
23.65 -0
23.7 0.00036
23.75 0.00144
23.8 0.00174
23.85 0.00245
23.9 0.00313
23.95 0.00414
24 0.00383
24.05 0.00219
24.1 -0.00007
24.15 -0.00188
24.2 -0.0037
24.25 -0.00485
24.3 -0.00443
24.35 -0.00321
24.4 -0.00223
24.45 -0.00061
24.5 -0.00031
24.55 -0
24.6 -0.00045
24.65 -0.0006
24.7 -0.00043
24.75 -0.00068
24.8 -0.00186
24.85 -0.00334
24.9 -0.00433
24.95 -0.00368
25 -0.00361
25.05 -0.0039
25.1 -0.00484
25.15 -0.00533
25.2 -0.00513
25.25 -0.00364
25.3 -0.00167
25.35 0.00019
25.4 0.00043
25.45 0.00078
25.5 0.00194
25.55 0.00354
25.6 0.00353
25.65 0.00286
25.7 0.00299
25.75 0.00255
25.8 0.00266
25.85 0.00195
25.9 0.00051
25.95 0.00016
26 -0.00073
26.05 -0.00081
26.1 -0.00045
26.15 0.00073
26.2 0.00056
26.25 -0.00008
26.3 -0.00127
26.35 -0.00173
26.4 -0.0029
26.45 -0.00398
26.5 -0.00458
26.55 -0.0045
26.6 -0.00469
26.65 -0.00379
26.7 -0.00258
26.75 -0.00133
26.8 -0.00036
26.85 0.00105
26.9 0.00109
26.95 0.00048
27 -0.00031
27.05 -0.00037
27.1 -0.00091
27.15 -0.00061
27.2 0.00044
27.25 0.00201
27.3 0.00381
27.35 0.00551
27.4 0.00688
27.45 0.00819
27.5 0.00775
27.55 0.00701
27.6 0.00576
27.65 0.00444
27.7 0.00396
27.75 0.00384
27.8 0.00277
27.85 0.00205
27.9 0.00214
27.95 0.00089
28 -0.0007
28.05 -0.00223
28.1 -0.0022
28.15 -0.00124
28.2 -0.00028
28.25 -0.00042
28.3 -0.00096
28.35 -0.00121
28.4 -0.00219
28.45 -0.002
28.5 -0.00167
28.55 -0.00131
28.6 -0.00052
28.65 -0.00102
28.7 -0.00062
28.75 -0.00139
28.8 -0.001
28.85 -0.00153
28.9 -0.00162
28.95 -0.00146
29 -0.00217
29.05 -0.00344
29.1 -0.00375
29.15 -0.00439
29.2 -0.00437
29.25 -0.00358
29.3 -0.00181
29.35 0.0001
29.4 0.0022
29.45 0.00323
29.5 0.00338
29.55 0.00396
29.6 0.00412
29.65 0.00355
29.7 0.00376
29.75 0.00338
29.8 0.00183
29.85 0.0015
29.9 0.00167
29.95 0.00176
30 0.00149
30.05 0.00102
30.1 -0.00026
30.15 -0.00069
30.2 -0.0006
30.25 -0.00013
30.3 0.00042
30.35 -0.00008
30.4 0.00044
30.45 0.00118
30.5 0.0025
30.55 0.00288
30.6 0.00196
30.65 0.00134
30.7 0.00144
30.75 0.00163
30.8 0.0012
30.85 0.00109
30.9 0.00062
30.95 -0.00022
31 -0.00156
31.05 -0.00176
31.1 -0.00083
31.15 -0.00053
31.2 -0.00136
31.25 -0.00201
31.3 -0.00272
31.35 -0.00236
31.4 -0.00133
31.45 0.0001
31.5 0.00138
31.55 0.00293
31.6 0.00289
31.65 0.0016
31.7 -0.00044
31.75 -0.00259
31.8 -0.00377
31.85 -0.00515
31.9 -0.00476
31.95 -0.00513
32 -0.00406
32.05 -0.00264
32.1 -0.00235
32.15 -0.00174
32.2 -0.00171
32.25 -0.00249
32.3 -0.00196
32.35 -0.00115
32.4 0.00034
32.45 0.00134
32.5 0.00174
32.55 0.00267
32.6 0.00221
32.65 0.00202
32.7 0.00147
32.75 0.00026
32.8 0.00045
32.85 -0.00025
32.9 -0.00077
32.95 -0.0003
33 0.00075
33.05 0.00151
33.1 0.00221
33.15 0.00185
33.2 0.00215
33.25 0.0015
33.3 0.00192
33.35 0.00287
33.4 0.00229
33.45 0.00223
33.5 0.00255
33.55 0.00204
33.6 0.00136
33.65 0.00166
33.7 0.00057
33.75 -0.00107
33.8 -0.0031
33.85 -0.00451
33.9 -0.00422
33.95 -0.00334
34 -0.00209
34.05 -0.00113
34.1 -0.00085
34.15 -0.00035
34.2 -0.00028
34.25 -0.00007
34.3 0.0003
34.35 -0.00043
34.4 -0.00159
34.45 -0.00197
34.5 -0.00319
34.55 -0.00454
34.6 -0.00515
34.65 -0.00612
34.7 -0.00684
34.75 -0.00625
34.8 -0.00499
34.85 -0.00382
34.9 -0.00243
34.95 -0.00091
35 -0.00042
35.05 -0.00049
35.1 -0.00086
35.15 -0.00108
35.2 -0.00195
35.25 -0.00279
35.3 -0.00236
35.35 -0.00147
35.4 -0.00132
35.45 -0.0004
35.5 0.00078
35.55 0.00204
35.6 0.00161
35.65 0.00027
35.7 -0.00117
35.75 -0.00217
35.8 -0.00345
35.85 -0.00492
35.9 -0.00597
35.95 -0.00692
36 -0.00775
36.05 -0.00674
36.1 -0.00502
36.15 -0.00353
36.2 -0.00262
36.25 -0.00231
36.3 -0.00218
36.35 -0.00188
36.4 -0.00122
36.45 -0.00076
36.5 0.00004
36.55 0.0006
36.6 0.00171
36.65 0.00233
36.7 0.00332
36.75 0.00431
36.8 0.00474
36.85 0.0036
36.9 0.00343
36.95 0.00249
37 0.00077
37.05 0.00062
37.1 -0.00011
37.15 -0.00072
37.2 -0.00115
37.25 -0.00099
37.3 0.00011
37.35 0.00069
37.4 0.00125
37.45 0.00096
37.5 0.00034
37.55 0.00032
37.6 -0.00015
37.65 0.00063
37.7 0.00001
37.75 0.00061
37.8 0.00197
37.85 0.00269
37.9 0.00223
37.95 0.00072
38 -0.00027
38.05 0.00007
38.1 0.0005
38.15 0.00174
38.2 0.00315
38.25 0.00426
38.3 0.00408
38.35 0.00453
38.4 0.00412
38.45 0.00292
38.5 0.00128
38.55 -0.00033
38.6 -0.0008
38.65 -0.00216
38.7 -0.00345
38.75 -0.00328
38.8 -0.00194
38.85 -0.0007
38.9 -0.00023
38.95 -0.0006
39 -0.0016
39.05 -0.00292
39.1 -0.00326
39.15 -0.00417
39.2 -0.00548
39.25 -0.00669
39.3 -0.00747
39.35 -0.00833
39.4 -0.00859
39.45 -0.00742
39.5 -0.00525
39.55 -0.00432
39.6 -0.00293
39.65 -0.00153
39.7 -0.00091
39.75 0.00046
39.8 0.0021
39.85 0.00335
39.9 0.00486
39.95 0.00504
40 0.00474
40.05 0.00493
40.1 0.00573
40.15 0.0065
40.2 0.00552
40.25 0.00546
40.3 0.00493
40.35 0.0038
40.4 0.00368
40.45 0.00297
40.5 0.00259
40.55 0.00198
40.6 0.00234
40.65 0.00302
40.7 0.00393
40.75 0.00363
40.8 0.00254
40.85 0.00069
40.9 -0.00036
40.95 -0.00007
41 -0.00002
41.05 -0.00068
41.1 -0.00046
41.15 0.00007
41.2 0.00063
41.25 0.00118
41.3 0.00136
41.35 0.00213
41.4 0.0025
41.45 0.00175
41.5 0.00142
41.55 0.0005
41.6 0.00042
41.65 0.0003
41.7 0.00062
41.75 0.00022
41.8 0.0001
41.85 0.00084
41.9 0.00049
41.95 0.00122
42 0.00158
42.05 0.00186
42.1 0.00164
42.15 0.00156
42.2 0.00133
42.25 -0.00006
42.3 -0.00126
42.35 -0.00104
42.4 0.00003
42.45 -0.00038
42.5 -0.0014
42.55 -0.00231
42.6 -0.00177
42.65 -0.0023
42.7 -0.00351
42.75 -0.00405
42.8 -0.00495
42.85 -0.00454
42.9 -0.00358
42.95 -0.00305
43 -0.0017
43.05 -0.00073
43.1 0.00062
43.15 0.00196
43.2 0.00331
43.25 0.0029
43.3 0.00134
43.35 0.00074
43.4 0.00041
43.45 -0.00022
43.5 -0.00142
43.55 -0.00177
43.6 -0.00217
43.65 -0.0029
43.7 -0.00417
43.75 -0.00481
43.8 -0.00553
43.85 -0.0048
43.9 -0.0049
43.95 -0.00428
44 -0.00396
44.05 -0.00369
44.1 -0.00421
44.15 -0.00464
44.2 -0.00346
44.25 -0.00176
44.3 0.00047
44.35 0.00149
44.4 0.00161
44.45 0.00187
44.5 0.00102
44.55 0.00081
44.6 0.00164
44.65 0.00252
44.7 0.00391
44.75 0.00412
44.8 0.00492
44.85 0.00402
44.9 0.00294
44.95 0.00243
45 0.00252
45.05 0.00339
45.1 0.00263
45.15 0.00098
45.2 -0.0005
45.25 -0.00061
45.3 -0.00077
45.35 -0.0006
45.4 0.00023
45.45 0.00164
45.5 0.00194
45.55 0.00151
45.6 0.00142
45.65 0.00225
45.7 0.00354
45.75 0.00342
45.8 0.00196
45.85 0.00067
45.9 -0.00088
45.95 -0.00088
46 -0.00111
46.05 -0.00205
46.1 -0.00326
46.15 -0.00315
46.2 -0.00237
46.25 -0.00213
46.3 -0.00176
46.35 -0.00232
46.4 -0.00214
46.45 -0.00182
46.5 -0.00134
46.55 -0.00086
46.6 0.00032
46.65 0.0016
46.7 0.00119
46.75 0.00039
46.8 0.00054
46.85 0.00036
46.9 -0.00055
46.95 -0.00197
47 -0.00172
47.05 -0.00111
47.1 -0.00067
47.15 -0.00128
47.2 -0.00208
47.25 -0.00211
47.3 -0.00286
47.35 -0.00295
47.4 -0.00242
47.45 -0.00273
47.5 -0.00197
47.55 -0.00203
47.6 -0.00247
47.65 -0.00315
47.7 -0.00229
47.75 -0.00097
47.8 -0.00034
47.85 -0.00067
47.9 -0.00025
47.95 -0.00084
48 -0.00207
48.05 -0.00331
48.1 -0.00358
48.15 -0.0028
48.2 -0.00153
48.25 -0.00153
48.3 -0.00157
48.35 -0.00142
48.4 -0.00014
48.45 -0.00026
48.5 -0.0006
48.55 -0.00101
48.6 -0.00218
48.65 -0.00231
48.7 -0.00191
48.75 -0.00218
48.8 -0.00195
48.85 -0.00098
48.9 0.00073
48.95 0.00132
49 0.00225
49.05 0.00163
49.1 0.00177
49.15 0.00103
49.2 0.00045
49.25 -0.00079
49.3 -0.00212
49.35 -0.00206
49.4 -0.00207
49.45 -0.00152
49.5 -0.00202
49.55 -0.00301
49.6 -0.00277
49.65 -0.00195
49.7 -0.00059
49.75 -0.00004
49.8 -0.00016
49.85 -0.00101
49.9 -0.00055
49.95 0.00035
50 0.00079
50.05 0.00027
50.1 -0.0002
50.15 0.00062
50.2 0.00192
50.25 0.00323
50.3 0.00288
50.35 0.00194
50.4 0.00153
50.45 0.0009
50.5 0.00107
50.55 0.00162
50.6 0.00259
50.65 0.00285
50.7 0.00284
50.75 0.00366
50.8 0.00429
50.85 0.00384
50.9 0.00242
50.95 0.00144
51 0.00117
51.05 0.00034
51.1 -0.00067
51.15 -0.00171
51.2 -0.00128
51.25 -0.00175
51.3 -0.00202
51.35 -0.00135
51.4 -0.00118
51.45 -0.00026
51.5 0.00085
51.55 0.00093
51.6 0.00006
51.65 0.00057
51.7 0.00115
51.75 0.00132
51.8 0.00149
51.85 0.0023
51.9 0.0032
51.95 0.00431
52 0.00534
52.05 0.00477
52.1 0.00294
52.15 0.00242
52.2 0.00172
52.25 0.00026
52.3 0.00026
52.35 -0.00003
52.4 0.00077
52.45 0.00035
52.5 0.00108
52.55 0.00126
52.6 0.00045
52.65 0.00072
52.7 0.00155
52.75 0.00187
52.8 0.00215
52.85 0.0031
52.9 0.0024
52.95 0.00208
53 0.00061
53.05 0.00011
53.1 -0.00069
53.15 -0.0005
53.2 -0.0005
53.25 -0.00152
53.3 -0.0029
53.35 -0.00395
53.4 -0.00426
53.45 -0.00445
53.5 -0.00397
53.55 -0.00399
53.6 -0.00318
53.65 -0.0033
53.7 -0.00412
53.75 -0.00351
53.8 -0.00341
53.85 -0.00214
53.9 -0.00082
53.95 0.00101
54 0.00241
54.05 0.00355
54.1 0.00419
54.15 0.0041
54.2 0.00458
54.25 0.00392
54.3 0.00271
54.35 0.00167
54.4 0.00047
54.45 -0.00118
54.5 -0.00179
54.55 -0.0011
54.6 -0.00144
54.65 -0.00209
54.7 -0.00136
54.75 -0.00062
54.8 0.0003
54.85 0.00018
54.9 -0.00086
54.95 -0.00137
55 -0.00126
55.05 -0.00105
55.1 -0.00189
55.15 -0.00319
55.2 -0.00389
55.25 -0.00487
55.3 -0.00564
55.35 -0.00624
55.4 -0.00706
55.45 -0.0066
55.5 -0.00623
55.55 -0.00604
55.6 -0.00575
55.65 -0.00446
55.7 -0.00398
55.75 -0.00414
55.8 -0.00327
55.85 -0.00225
55.9 -0.00072
55.95 0.00083
56 0.00241
56.05 0.00268
56.1 0.00291
56.15 0.00317
56.2 0.0037
56.25 0.00286
56.3 0.00114
56.35 0.00073
56.4 0.00061
56.45 0.00066
56.5 -0.00004
56.55 -0.00145
56.6 -0.00121
56.65 -0.00086
56.7 0.00004
56.75 -0.00006
56.8 0.00073
56.85 0.00216
56.9 0.00247
56.95 0.00194
57 0.00072
57.05 -0.0008
57.1 -0.00239
57.15 -0.00305
57.2 -0.00414
57.25 -0.00352
57.3 -0.00327
57.35 -0.00241
57.4 -0.00069
57.45 0.00009
57.5 0.00075
57.55 0.0001
57.6 -0.00127
57.65 -0.00258
57.7 -0.00369
57.75 -0.00455
57.8 -0.00462
57.85 -0.00315
57.9 -0.00254
57.95 -0.00244
58 -0.00283
58.05 -0.00337
58.1 -0.00366
58.15 -0.00351
58.2 -0.00346
58.25 -0.00347
58.3 -0.00387
58.35 -0.00352
58.4 -0.00274
58.45 -0.00209
58.5 -0.00113
58.55 0.00048
58.6 0.00238
58.65 0.00383
58.7 0.00429
58.75 0.00456
58.8 0.00538
58.85 0.00508
58.9 0.00434
58.95 0.00385
59 0.00368
59.05 0.00383
59.1 0.00383
59.15 0.00433
59.2 0.00505
59.25 0.00439
59.3 0.00314
59.35 0.00221
59.4 0.00146
59.45 0.00163
59.5 0.00251
59.55 0.00247
59.6 0.00329
59.65 0.00341
59.7 0.00366
59.75 0.00356
59.8 0.00318
59.85 0.00352
59.9 0.00308
59.95 0.00254
60 0.0021
60.05 0.00246
60.1 0.00185
60.15 0.00056
60.2 -0.00028
60.25 -0.00107
60.3 -0.00076
60.35 -0.00029
60.4 0.00072
60.45 0.00046
60.5 -0.00006
60.55 -0.00084
60.6 -0.00039
60.65 0.00061
60.7 0.00139
60.75 0.00217
60.8 0.0015
60.85 0.00062
60.9 0.00099
60.95 0.00121
61 0.00212
61.05 0.00297
61.1 0.00289
61.15 0.00159
61.2 0.00051
61.25 -0.00128
61.3 -0.00186
61.35 -0.00315
61.4 -0.00369
61.45 -0.0048
61.5 -0.00619
61.55 -0.00705
61.6 -0.00683
61.65 -0.00522
61.7 -0.00345
61.75 -0.00104
61.8 0.00036
61.85 0.00111
61.9 0.00189
61.95 0.00247
62 0.0023
62.05 0.00295
62.1 0.00241
62.15 0.00288
62.2 0.00205
62.25 0.0013
62.3 0.00052
62.35 0.00014
62.4 0.00022
62.45 0.00055
62.5 0.00175
62.55 0.00319
62.6 0.00439
62.65 0.00486
62.7 0.00439
62.75 0.00461
62.8 0.00431
62.85 0.00264
62.9 0.00186
62.95 0.00154
63 0.00031
63.05 0.00019
63.1 -0.00067
63.15 -0.00098
63.2 -0.00102
63.25 -0.00154
63.3 -0.0022
63.35 -0.00181
63.4 -0.00214
63.45 -0.00126
63.5 -0.00165
63.55 -0.00283
63.6 -0.00417
63.65 -0.00419
63.7 -0.00459
63.75 -0.00342
63.8 -0.00261
63.85 -0.00106
63.9 -0.00042
63.95 0.00104
64 0.00228
64.05 0.00386
64.1 0.00376
64.15 0.00292
64.2 0.00283
64.25 0.00286
64.3 0.00322
64.35 0.00212
64.4 0.00088
64.45 -0.00012
64.5 -0.0004
64.55 0.00023
64.6 0.00058
64.65 -0.0003
64.7 -0.00128
64.75 -0.00277
64.8 -0.00408
64.85 -0.00566
64.9 -0.00514
64.95 -0.00537
65 -0.00497
65.05 -0.00481
65.1 -0.00346
65.15 -0.00239
65.2 -0.00182
65.25 -0.00134
65.3 -0.00135
65.35 -0.00169
65.4 -0.00247
65.45 -0.00327
65.5 -0.00287
65.55 -0.00351
65.6 -0.00352
65.65 -0.00402
65.7 -0.00399
65.75 -0.0043
65.8 -0.00378
65.85 -0.00276
65.9 -0.00345
65.95 -0.00442
66 -0.00504
66.05 -0.0058
66.1 -0.00636
66.15 -0.00736
66.2 -0.00942
66.25 -0.0134
66.3 -0.01722
66.35 -0.02089
66.4 -0.02628
66.45 -0.03307
66.5 -0.03992
66.55 -0.04782
66.6 -0.05523
66.65 -0.06328
66.7 -0.07327
66.75 -0.08408
66.8 -0.09664
66.85 -0.11004
66.9 -0.12504
66.95 -0.1432
67 -0.16302
67.05 -0.18403
67.1 -0.20647
67.15 -0.23032
67.2 -0.25531
67.25 -0.28268
67.3 -0.31183
67.35 -0.34185
67.4 -0.37351
67.45 -0.40446
67.5 -0.43676
67.55 -0.46917
67.6 -0.50065
67.65 -0.53062
67.7 -0.55895
67.75 -0.58543
67.8 -0.60925
67.85 -0.63057
67.9 -0.64995
67.95 -0.66545
68 -0.6767
68.05 -0.68536
68.1 -0.69016
68.15 -0.68891
68.2 -0.68225
68.25 -0.67099
68.3 -0.65449
68.35 -0.634
68.4 -0.60963
68.45 -0.58066
68.5 -0.54701
68.55 -0.50893
68.6 -0.46828
68.65 -0.42474
68.7 -0.37919
68.75 -0.33054
68.8 -0.27977
68.85 -0.22785
68.9 -0.17507
68.95 -0.12193
69 -0.06822
69.05 -0.01632
69.1 0.03482
69.15 0.0845
69.2 0.13165
69.25 0.17587
69.3 0.21642
69.35 0.25427
69.4 0.2896
69.45 0.32333
69.5 0.35507
69.55 0.38367
69.6 0.40887
69.65 0.43197
69.7 0.45202
69.75 0.4696
69.8 0.48595
69.85 0.50044
69.9 0.51179
69.95 0.52204
70 0.53134
70.05 0.53918
70.1 0.54478
70.15 0.54822
70.2 0.55138
70.25 0.55395
70.3 0.55446
70.35 0.55491
70.4 0.55504
70.45 0.55435
70.5 0.55291
70.55 0.55076
70.6 0.54609
70.65 0.54136
70.7 0.53546
70.75 0.52927
70.8 0.52245
70.85 0.51453
70.9 0.50605
70.95 0.49703
71 0.48755
71.05 0.47803
71.1 0.4694
71.15 0.4609
71.2 0.45112
71.25 0.44083
71.3 0.42927
71.35 0.41786
71.4 0.40602
71.45 0.39363
71.5 0.37975
71.55 0.36612
71.6 0.35351
71.65 0.34146
71.7 0.32967
71.75 0.31714
71.8 0.30454
71.85 0.29082
71.9 0.2764
71.95 0.26213
72 0.24805
72.05 0.23457
72.1 0.22146
72.15 0.20886
72.2 0.19687
72.25 0.18692
72.3 0.17806
72.35 0.16906
72.4 0.15992
72.45 0.15144
72.5 0.14316
72.55 0.13541
72.6 0.12643
72.65 0.11721
72.7 0.10724
72.75 0.09757
72.8 0.08867
72.85 0.08083
72.9 0.07315
72.95 0.06626
73 0.05903
73.05 0.05125
73.1 0.04417
73.15 0.03871
73.2 0.03269
73.25 0.02607
73.3 0.0206
73.35 0.01604
73.4 0.01089
73.45 0.00488
73.5 -0.00139
73.55 -0.00759
73.6 -0.01314
73.65 -0.01756
73.7 -0.02159
73.75 -0.02612
73.8 -0.03006
73.85 -0.03364
73.9 -0.03684
73.95 -0.04073
74 -0.04433
74.05 -0.048
74.1 -0.05183
74.15 -0.05369
74.2 -0.05489
74.25 -0.05526
74.3 -0.05594
74.35 -0.05652
74.4 -0.05721
74.45 -0.05921
74.5 -0.06163
74.55 -0.06388
74.6 -0.06526
74.65 -0.06763
74.7 -0.07046
74.75 -0.07208
74.8 -0.07279
74.85 -0.07455
74.9 -0.07541
74.95 -0.07655
75 -0.07749
75.05 -0.07786
75.1 -0.07753
75.15 -0.07695
75.2 -0.0758
75.25 -0.07517
75.3 -0.07438
75.35 -0.07404
75.4 -0.07523
75.45 -0.07622
75.5 -0.0767
75.55 -0.07613
75.6 -0.0756
75.65 -0.07451
75.7 -0.07477
75.75 -0.07546
75.8 -0.07504
75.85 -0.07451
75.9 -0.07369
75.95 -0.07411
76 -0.07441
76.05 -0.07392
76.1 -0.07372
76.15 -0.07434
76.2 -0.07366
76.25 -0.07258
76.3 -0.07184
76.35 -0.07047
76.4 -0.06857
76.45 -0.06773
76.5 -0.06652
76.55 -0.06643
76.6 -0.06687
76.65 -0.06786
76.7 -0.06858
76.75 -0.06775
76.8 -0.06689
76.85 -0.06481
76.9 -0.06369
76.95 -0.06258
77 -0.0623
77.05 -0.06052
77.1 -0.05953
77.15 -0.0594
77.2 -0.05923
77.25 -0.05805
77.3 -0.05623
77.35 -0.05368
77.4 -0.0519
77.45 -0.05031
77.5 -0.04884
77.55 -0.04792
77.6 -0.0464
77.65 -0.0456
77.7 -0.04487
77.75 -0.04426
77.8 -0.04492
77.85 -0.04578
77.9 -0.04651
77.95 -0.04772
78 -0.04753
78.05 -0.04616
78.1 -0.04491
78.15 -0.04431
78.2 -0.04385
78.25 -0.04395
78.3 -0.04395
78.35 -0.04373
78.4 -0.04275
78.45 -0.04142
78.5 -0.04021
78.55 -0.03986
78.6 -0.03982
78.65 -0.03888
78.7 -0.03702
78.75 -0.0354
78.8 -0.03369
78.85 -0.03233
78.9 -0.03066
78.95 -0.02988
79 -0.02873
79.05 -0.02866
79.1 -0.02879
79.15 -0.02786
79.2 -0.02643
79.25 -0.02674
79.3 -0.02614
79.35 -0.02664
79.4 -0.02783
79.45 -0.02809
79.5 -0.02726
79.55 -0.02652
79.6 -0.02624
79.65 -0.02679
79.7 -0.02615
79.75 -0.02472
79.8 -0.0241
79.85 -0.02378
79.9 -0.02397
79.95 -0.02396
80 -0.02394
80.05 -0.02411
80.1 -0.02341
80.15 -0.02311
80.2 -0.0228
80.25 -0.02311
80.3 -0.02384
80.35 -0.02304
80.4 -0.02296
80.45 -0.0235
80.5 -0.02282
80.55 -0.02313
80.6 -0.02237
80.65 -0.02141
80.7 -0.02039
80.75 -0.02007
80.8 -0.019
80.85 -0.01857
80.9 -0.01857
80.95 -0.01764
81 -0.01716
81.05 -0.01737
81.1 -0.01664
81.15 -0.01633
81.2 -0.01704
81.25 -0.01804
81.3 -0.01838
81.35 -0.01856
81.4 -0.01857
81.45 -0.01741
81.5 -0.01569
81.55 -0.01339
81.6 -0.0111
81.65 -0.00896
81.7 -0.0073
81.75 -0.00691
81.8 -0.00636
81.85 -0.00745
81.9 -0.0087
81.95 -0.00889
82 -0.00894
82.05 -0.00946
82.1 -0.00915
82.15 -0.00891
82.2 -0.00876
82.25 -0.00978
82.3 -0.01033
82.35 -0.01038
82.4 -0.00986
82.45 -0.01019
82.5 -0.01062
82.55 -0.01025
82.6 -0.01051
82.65 -0.00987
82.7 -0.0096
82.75 -0.01023
82.8 -0.01064
82.85 -0.01149
82.9 -0.0115
82.95 -0.01033
83 -0.00871
83.05 -0.00874
83.1 -0.00918
83.15 -0.00879
83.2 -0.00893
83.25 -0.00919
83.3 -0.00925
83.35 -0.00959
83.4 -0.01008
83.45 -0.00989
83.5 -0.01022
83.55 -0.01026
83.6 -0.01015
83.65 -0.00937
83.7 -0.0079
83.75 -0.00731
83.8 -0.00767
83.85 -0.00703
83.9 -0.00638
83.95 -0.00702
84 -0.00668
84.05 -0.00547
84.1 -0.00579
84.15 -0.00648
84.2 -0.00626
84.25 -0.00549
84.3 -0.00492
84.35 -0.00393
84.4 -0.00324
84.45 -0.00398
84.5 -0.00384
84.55 -0.0034
84.6 -0.00276
84.65 -0.00327
84.7 -0.00294
84.75 -0.00268
84.8 -0.00185
84.85 -0.00183
84.9 -0.00188
84.95 -0.00126
85 -0.00029
85.05 -0.0011
85.1 -0.0016
85.15 -0.00245
85.2 -0.00332
85.25 -0.00355
85.3 -0.00481
85.35 -0.00567
85.4 -0.00575
85.45 -0.00515
85.5 -0.00533
85.55 -0.00611
85.6 -0.00666
85.65 -0.00708
85.7 -0.00655
85.75 -0.00671
85.8 -0.0066
85.85 -0.00561
85.9 -0.00452
85.95 -0.00289
86 -0.00274
86.05 -0.00374
86.1 -0.00502
86.15 -0.0066
86.2 -0.00789
86.25 -0.00946
86.3 -0.01053
86.35 -0.01163
86.4 -0.01244
86.45 -0.01141
86.5 -0.0096
86.55 -0.00718
86.6 -0.00531
86.65 -0.0043
86.7 -0.00362
86.75 -0.00213
86.8 -0.00127
86.85 -0.00017
86.9 0.00016
86.95 -0.00033
87 -0.00124
87.05 -0.00294
87.1 -0.00399
87.15 -0.0055
87.2 -0.00537
87.25 -0.00426
87.3 -0.00405
87.35 -0.00358
87.4 -0.00301
87.45 -0.00269
87.5 -0.00279
87.55 -0.00241
87.6 -0.0018
87.65 -0.00073
87.7 -0.00021
87.75 0.0006
87.8 0.00131
87.85 0.00186
87.9 0.00274
87.95 0.00202
88 0.00117
88.05 0.00021
88.1 -0.0015
88.15 -0.00247
88.2 -0.00386
88.25 -0.00563
88.3 -0.00587
88.35 -0.00515
88.4 -0.00353
88.45 -0.00182
88.5 -0.00143
88.55 -0.00208
88.6 -0.00275
88.65 -0.00414
88.7 -0.00467
88.75 -0.00394
88.8 -0.00272
88.85 -0.00282
88.9 -0.00172
88.95 -0.0006
89 -0.00083
89.05 -0.00061
89.1 0.00043
89.15 0.00127
89.2 0.00225
89.25 0.00315
89.3 0.00433
89.35 0.00369
89.4 0.00323
89.45 0.00257
89.5 0.00224
89.55 0.00141
89.6 0.00097
89.65 -0.0003
89.7 -0.00124
89.75 -0.00227
89.8 -0.00329
89.85 -0.00301
89.9 -0.00245
89.95 -0.00305
90 -0.00315
90.05 -0.0028
90.1 -0.00274
90.15 -0.00266
90.2 -0.00284
90.25 -0.00331
90.3 -0.00252
90.35 -0.00141
90.4 -0.00074
90.45 -0.00092
90.5 -0.00095
90.55 -0.00205
90.6 -0.00219
90.65 -0.00176
90.7 -0.00128
90.75 -0.00078
90.8 0.00034
90.85 0.00081
90.9 0.00192
90.95 0.00194
91 0.00182
91.05 0.00142
91.1 0.00118
91.15 0.00163
91.2 0.00254
91.25 0.00201
91.3 0.00122
91.35 0.00054
91.4 -0.00091
91.45 -0.00123
91.5 -0.00157
91.55 -0.00283
91.6 -0.00269
91.65 -0.00155
91.7 0.00011
91.75 0.00031
91.8 0.00107
91.85 0.00225
91.9 0.00316
91.95 0.00286
92 0.00211
92.05 0.00182
92.1 0.00193
92.15 0.00223
92.2 0.0022
92.25 0.00129
92.3 -0.00025
92.35 -0.00157
92.4 -0.00236
92.45 -0.00308
92.5 -0.00385
92.55 -0.00419
92.6 -0.00515
92.65 -0.00631
92.7 -0.00639
92.75 -0.00578
92.8 -0.00512
92.85 -0.00373
92.9 -0.00287
92.95 -0.0032
93 -0.00301
93.05 -0.00351
93.1 -0.00292
93.15 -0.00205
93.2 -0.00206
93.25 -0.00095
93.3 0.0004
93.35 0.00113
93.4 0.00237
93.45 0.00191
93.5 0.00103
93.55 0.00073
93.6 0.00131
93.65 0.00155
93.7 0.00254
93.75 0.00268
93.8 0.00163
93.85 0.00086
93.9 0.00129
93.95 0.00137
94 0.00169
94.05 0.00063
94.1 -0.00087
94.15 -0.00215
94.2 -0.00368
94.25 -0.00386
94.3 -0.00272
94.35 -0.00279
94.4 -0.00281
94.45 -0.00373
94.5 -0.00377
94.55 -0.00403
94.6 -0.00357
94.65 -0.00396
94.7 -0.00367
94.75 -0.00327
94.8 -0.00282
94.85 -0.00242
94.9 -0.00215
94.95 -0.00093
95 0.00002
95.05 0.00079
95.1 0.0008
95.15 -0.00036
95.2 -0.00022
95.25 -0.0005
95.3 -0.00109
95.35 -0.00075
95.4 0.0002
95.45 0.00078
95.5 0.00064
95.55 0.00029
95.6 -0.00085
95.65 -0.00233
95.7 -0.00361
95.75 -0.00395
95.8 -0.00444
95.85 -0.00333
95.9 -0.00175
95.95 -0.00135
96 -0.00007
96.05 0.00141
96.1 0.00118
96.15 0.00181
96.2 0.00292
96.25 0.00326
96.3 0.00255
96.35 0.00278
96.4 0.00191
96.45 0.00118
96.5 0.00064
96.55 0.00111
96.6 0.00123
96.65 0.00087
96.7 0.00052
96.75 0.00034
96.8 0.00005
96.85 0.0003
96.9 -0.00043
96.95 -0.0018
97 -0.00243
97.05 -0.00176
97.1 -0.0017
97.15 -0.00152
97.2 -0.00149
97.25 -0.00211
97.3 -0.0013
97.35 -0.00129
97.4 -0.0009
97.45 -0.00122
97.5 -0.00101
97.55 -0.00119
97.6 -0.00173
97.65 -0.00261
97.7 -0.00375
97.75 -0.00413
97.8 -0.00319
97.85 -0.00183
97.9 -0.00173
97.95 -0.00128
98 -0.00148
98.05 -0.00118
98.1 0.00004
98.15 -0.00022
98.2 -0.00103
98.25 -0.00174
98.3 -0.0026
98.35 -0.00242
98.4 -0.00149
98.45 -0.00057
98.5 0.00081
98.55 0.00106
98.6 0.00104
98.65 0.00021
98.7 -0.00109
98.75 -0.00261
98.8 -0.00378
98.85 -0.00507
98.9 -0.00614
98.95 -0.0065
99 -0.00685
99.05 -0.00622
99.1 -0.0048
99.15 -0.00258
99.2 -0.00066
99.25 -0.00014
99.3 0.00081
99.35 0.00165
99.4 0.0024
99.45 0.00203
99.5 0.00193
99.55 0.00093
99.6 0.00067
99.65 0.00002
99.7 0.00048
99.75 0.00013
99.8 -0.00053
99.85 -0.00134
99.9 -0.00231
99.95 -0.0017
