0 0
0.05 0.00099
0.1 0.00176
0.15 0.00213
0.2 0.00292
0.25 0.0044
0.3 0.00619
0.35 0.0077
0.4 0.00843
0.45 0.00828
0.5 0.00876
0.55 0.00833
0.6 0.00732
0.65 0.00733
0.7 0.00758
0.75 0.00793
0.8 0.00801
0.85 0.00861
0.9 0.0091
0.95 0.00889
1 0.00801
1.05 0.00771
1.1 0.00717
1.15 0.00622
1.2 0.00566
1.25 0.00498
1.3 0.00409
1.35 0.00365
1.4 0.0041
1.45 0.0047
1.5 0.00531
1.55 0.00608
1.6 0.00602
1.65 0.00556
1.7 0.00506
1.75 0.00443
1.8 0.00406
1.85 0.0044
1.9 0.00509
1.95 0.00519
2 0.00587
2.05 0.00588
2.1 0.00526
2.15 0.00486
2.2 0.00503
2.25 0.00521
2.3 0.00568
2.35 0.00522
2.4 0.00471
2.45 0.00448
2.5 0.00411
2.55 0.00385
2.6 0.00379
2.65 0.00354
2.7 0.00406
2.75 0.00424
2.8 0.00425
2.85 0.00388
2.9 0.00417
2.95 0.00373
3 0.003
3.05 0.00272
3.1 0.00318
3.15 0.00279
3.2 0.00217
3.25 0.00172
3.3 0.00196
3.35 0.00232
3.4 0.002
3.45 0.00141
3.5 0.00162
3.55 0.0023
3.6 0.00271
3.65 0.00353
3.7 0.00416
3.75 0.00386
3.8 0.00408
3.85 0.00377
3.9 0.00361
3.95 0.00406
4 0.00495
4.05 0.00497
4.1 0.00498
4.15 0.00525
4.2 0.00471
4.25 0.00378
4.3 0.00241
4.35 0.00086
4.4 -0.00041
4.45 -0.00139
4.5 -0.00142
4.55 -0.00148
4.6 -0.00061
4.65 -0
4.7 -0.00003
4.75 0.00007
4.8 0.00064
4.85 0.00167
4.9 0.0021
4.95 0.00298
5 0.00349
5.05 0.0037
5.1 0.00351
5.15 0.003
5.2 0.0026
5.25 0.00163
5.3 0.00066
5.35 -0
5.4 -0.00033
5.45 -0.00099
5.5 -0.00184
5.55 -0.00272
5.6 -0.00351
5.65 -0.00288
5.7 -0.00182
5.75 -0.00131
5.8 -0.00042
5.85 0.00091
5.9 0.00169
5.95 0.00279
6 0.00407
6.05 0.00444
6.1 0.00453
6.15 0.00417
6.2 0.00399
6.25 0.00313
6.3 0.00303
6.35 0.00244
6.4 0.00142
6.45 0.00045
6.5 0.00034
6.55 0.00106
6.6 0.00096
6.65 0.00109
6.7 0.00109
6.75 0.00093
6.8 0.00107
6.85 0.00062
6.9 0.00035
6.95 0.00042
7 0.00093
7.05 0.00063
7.1 0.00102
7.15 0.0012
7.2 0.00086
7.25 0.00099
7.3 0.00079
7.35 0.00006
7.4 -0.00069
7.45 -0.00095
7.5 -0.00054
7.55 -0.00057
7.6 -0
7.65 0.00086
7.7 0.00161
7.75 0.00202
7.8 0.0024
7.85 0.00226
7.9 0.00165
7.95 0.00174
8 0.00126
8.05 0.00099
8.1 0.00046
8.15 0.00022
8.2 0.00008
8.25 0.00074
8.3 0.00062
8.35 0.00129
8.4 0.00152
8.45 0.00163
8.5 0.00154
8.55 0.00075
8.6 0.00092
8.65 0.0007
8.7 0
8.75 0.00024
8.8 0.00094
8.85 0.00154
8.9 0.0024
8.95 0.00344
9 0.00343
9.05 0.00308
9.1 0.00225
9.15 0.00109
9.2 0.00086
9.25 0.00035
9.3 -0.00055
9.35 -0.00076
9.4 -0.00104
9.45 -0.00124
9.5 -0.00178
9.55 -0.00203
9.6 -0.00135
9.65 -0.00039
9.7 0.00039
9.75 0.00051
9.8 0.00042
9.85 0.00075
9.9 0.00138
9.95 0.00119
10 0.00167
10.05 0.00238
10.1 0.00244
10.15 0.00191
10.2 0.00172
10.25 0.0008
10.3 0.0007
10.35 0.00099
10.4 0.00168
10.45 0.00164
10.5 0.00185
10.55 0.00173
10.6 0.00175
10.65 0.0015
10.7 0.00156
10.75 0.00092
10.8 0.00035
10.85 0.00014
10.9 -0.00051
10.95 -0.00043
11 0.00003
11.05 0.00044
11.1 0.00067
11.15 0.00094
11.2 0.00124
11.25 0.00089
11.3 0.00024
11.35 -0.00017
11.4 -0.00025
11.45 0.00038
11.5 0.00049
11.55 0.00023
11.6 0.00077
11.65 0.00059
11.7 -0.00005
11.75 -0.00081
11.8 -0.00072
11.85 -0.00094
11.9 -0.00115
11.95 -0.00103
12 -0.00012
12.05 0.00024
12.1 0.0003
12.15 0.00084
12.2 0.00162
12.25 0.00231
12.3 0.00194
12.35 0.00178
12.4 0.00125
12.45 0.00117
12.5 0.00065
12.55 -0.00004
12.6 -0.0002
12.65 -0.00094
12.7 -0.00124
12.75 -0.00127
12.8 -0.00049
12.85 0.00005
12.9 0.00043
12.95 0.0012
13 0.00096
13.05 0.00119
13.1 0.00109
13.15 0.00071
13.2 0.00074
13.25 0.00082
13.3 0.00082
13.35 0.00032
13.4 0.00005
13.45 -0.00029
13.5 -0.00065
13.55 -0.00061
13.6 -0.00017
13.65 0.00028
13.7 0.00035
13.75 0.00004
13.8 0.0005
13.85 0.00012
13.9 0.00046
13.95 0.00029
14 0.00034
14.05 0.00095
14.1 0.0015
14.15 0.00146
14.2 0.00115
14.25 0.00037
14.3 0.00041
14.35 0.0002
14.4 0.00021
14.45 -0.00012
14.5 0.00002
14.55 -0.00008
14.6 -0.00054
14.65 -0.00077
14.7 -0.00083
14.75 -0.00055
14.8 -0.00076
14.85 -0.00141
14.9 -0.00131
14.95 -0.00043
15 -0.00005
15.05 -0.00019
15.1 -0.0002
15.15 -0.00075
15.2 -0.00088
15.25 -0.0002
15.3 -0.00024
15.35 -0.00047
15.4 -0.001
15.45 -0.00077
15.5 -0.00098
15.55 -0.00046
15.6 0.00029
15.65 0.00026
15.7 -0.0001
15.75 -0.00059
15.8 -0.0011
15.85 -0.00168
15.9 -0.00186
15.95 -0.00178
16 -0.00095
16.05 0.00015
16.1 0.00131
16.15 0.00153
16.2 0.00199
16.25 0.00156
16.3 0.00151
16.35 0.00158
16.4 0.002
16.45 0.00232
16.5 0.00235
16.55 0.002
16.6 0.00189
16.65 0.00129
16.7 0.00062
16.75 0.00066
16.8 0.00039
16.85 0.00072
16.9 0.00072
16.95 0.0011
17 0.00055
17.05 0.00045
17.1 0.00073
17.15 0.00023
17.2 -0.00013
17.25 0.00021
17.3 0.00038
17.35 0.00033
17.4 -0.00001
17.45 -0.00052
17.5 -0.00095
17.55 -0.00066
17.6 -0.0011
17.65 -0.00184
17.7 -0.00254
17.75 -0.00239
17.8 -0.00187
17.85 -0.00126
17.9 -0.00134
17.95 -0.00191
18 -0.00224
18.05 -0.00232
18.1 -0.00272
18.15 -0.0031
18.2 -0.00287
18.25 -0.00315
18.3 -0.00344
18.35 -0.00339
18.4 -0.00276
18.45 -0.00152
18.5 -0.00074
18.55 -0.00078
18.6 -0.00039
18.65 -0.00016
18.7 -0.00037
18.75 -0.00093
18.8 -0.00124
18.85 -0.00196
18.9 -0.00201
18.95 -0.00167
19 -0.00065
19.05 -0.00038
19.1 -0.00069
19.15 -0.00107
19.2 -0.00044
19.25 -0.0005
19.3 0.00027
19.35 0.00131
19.4 0.00256
19.45 0.0031
19.5 0.00254
19.55 0.00145
19.6 0.0012
19.65 0.00111
19.7 0.00126
19.75 0.00071
19.8 0.00084
19.85 0.00017
19.9 -0.00013
19.95 -0.00078
20 -0.00148
20.05 -0.0014
20.1 -0.00097
20.15 0.00006
20.2 0.00025
20.25 0.00093
20.3 0.00193
20.35 0.00279
20.4 0.00359
20.45 0.00313
20.5 0.00245
20.55 0.0021
20.6 0.00101
20.65 0.00079
20.7 0.00088
20.75 0.00112
20.8 0.00105
20.85 0.0006
20.9 0.00095
20.95 0.00066
21 0.0005
21.05 -0.00002
21.1 -0.00102
21.15 -0.00152
21.2 -0.00122
21.25 -0.00049
21.3 -0.00042
21.35 0.00024
21.4 0.00113
21.45 0.00155
21.5 0.00189
21.55 0.00197
21.6 0.00182
21.65 0.00129
21.7 0.00027
21.75 0.00015
21.8 0.00059
21.85 0.0005
21.9 0.00053
21.95 0.00053
22 0.00019
22.05 -0.00017
22.1 -0.00023
22.15 0.00008
22.2 0.00034
22.25 0.00012
22.3 0.00061
22.35 0.00113
22.4 0.00071
22.45 -0.00001
22.5 -0.00035
22.55 0.00013
22.6 0.0007
22.65 0.00106
22.7 0.0016
22.75 0.00242
22.8 0.00216
22.85 0.00196
22.9 0.00214
22.95 0.00141
23 0.00064
23.05 0.00042
23.1 -0.00033
23.15 -0.00146
23.2 -0.00244
23.25 -0.00356
23.3 -0.00459
23.35 -0.00531
23.4 -0.0056
23.45 -0.00482
23.5 -0.00365
23.55 -0.00305
23.6 -0.00274
23.65 -0.00228
23.7 -0.00208
23.75 -0.00133
23.8 -0.00024
23.85 0.00092
23.9 0.002
23.95 0.00224
24 0.00292
24.05 0.00377
24.1 0.004
24.15 0.00315
24.2 0.00296
24.25 0.00209
24.3 0.00116
24.35 0.00039
24.4 -0.00012
24.45 -0.00031
24.5 0.00001
24.55 0.00047
24.6 0.00045
24.65 0.00075
24.7 0.00056
24.75 -0.00029
24.8 -0.00095
24.85 -0.00112
24.9 -0.00058
24.95 0.0001
25 0.00035
25.05 0.0005
25.1 0.00044
25.15 0.00067
25.2 0.00034
25.25 -0.00016
25.3 0.00013
25.35 0.00066
25.4 0.00123
25.45 0.00181
25.5 0.00257
25.55 0.00244
25.6 0.00253
25.65 0.00289
25.7 0.00332
25.75 0.00388
25.8 0.00347
25.85 0.00278
25.9 0.00224
25.95 0.00171
26 0.00179
26.05 0.00232
26.1 0.00305
26.15 0.00281
26.2 0.00226
26.25 0.0019
26.3 0.0011
26.35 0.00095
26.4 0.00082
26.45 0.00121
26.5 0.00131
26.55 0.00131
26.6 0.00075
26.65 -0.00039
26.7 -0.0007
26.75 -0.00032
26.8 -0.00018
26.85 0.00026
26.9 0.00103
26.95 0.00131
27 0.00094
27.05 0.00047
27.1 0.00035
27.15 0.00069
27.2 0.00144
27.25 0.00169
27.3 0.00146
27.35 0.001
27.4 0.00042
27.45 -0.00075
27.5 -0.00213
27.55 -0.00336
27.6 -0.00378
27.65 -0.00384
27.7 -0.00404
27.75 -0.00446
27.8 -0.00405
27.85 -0.00289
27.9 -0.00186
27.95 -0.00128
28 -0.00097
28.05 -0.00142
28.1 -0.00161
28.15 -0.00175
28.2 -0.00198
28.25 -0.00241
28.3 -0.00313
28.35 -0.004
28.4 -0.00475
28.45 -0.00535
28.5 -0.00537
28.55 -0.00534
28.6 -0.0048
28.65 -0.00475
28.7 -0.00424
28.75 -0.00395
28.8 -0.00289
28.85 -0.00259
28.9 -0.0024
28.95 -0.00236
29 -0.00157
29.05 -0.00047
29.1 0.00066
29.15 0.00107
29.2 0.00167
29.25 0.00176
29.3 0.0021
29.35 0.00265
29.4 0.00211
29.45 0.00159
29.5 0.00186
29.55 0.00201
29.6 0.00256
29.65 0.00288
29.7 0.00256
29.75 0.0023
29.8 0.00213
29.85 0.0018
29.9 0.00099
29.95 0.00107
30 0.00071
30.05 0.00081
30.1 0.00074
30.15 0.00038
30.2 0.00067
30.25 0.0002
30.3 -0.00065
30.35 -0.00152
30.4 -0.00184
30.45 -0.00165
30.5 -0.00081
30.55 -0.00069
30.6 -0.00075
30.65 -0.00005
30.7 0.00051
30.75 0.00039
30.8 0.00021
30.85 0.0005
30.9 0.00119
30.95 0.00119
31 0.00087
31.05 0.00024
31.1 -0.00017
31.15 -0.0003
31.2 -0.00098
31.25 -0.001
31.3 -0.00088
31.35 -0.00022
31.4 -0.00012
31.45 0.0002
31.5 0.0008
31.55 0.00081
31.6 0.00052
31.65 -0.00043
31.7 -0.00044
31.75 -0.00102
31.8 -0.002
31.85 -0.00311
31.9 -0.00411
31.95 -0.00445
32 -0.00475
32.05 -0.00456
32.1 -0.0038
32.15 -0.00253
32.2 -0.00178
32.25 -0.00107
32.3 -0.00015
32.35 0.00067
32.4 0.00106
32.45 0.00109
32.5 0.00116
32.55 0.00064
32.6 -0.00001
32.65 0.00011
32.7 0.00052
32.75 0.00114
32.8 0.00172
32.85 0.00202
32.9 0.00267
32.95 0.0023
33 0.00154
33.05 0.0004
33.1 -0.00056
33.15 -0.00057
33.2 0.00001
33.25 0.00025
33.3 0.00004
33.35 0.00041
33.4 0.00103
33.45 0.00099
33.5 0.00032
33.55 0.00022
33.6 -0.00016
33.65 -0.0008
33.7 -0.00092
33.75 -0.00075
33.8 -0.00124
33.85 -0.0008
33.9 -0.00045
33.95 0.00025
34 0.00102
34.05 0.00071
34.1 0.00117
34.15 0.00191
34.2 0.00291
34.25 0.00342
34.3 0.0032
34.35 0.00236
34.4 0.0018
34.45 0.00127
34.5 0.00021
34.55 -0.0004
34.6 -0.00075
34.65 -0.00037
34.7 -0.00023
34.75 0.00001
34.8 0.00007
34.85 -0.00034
34.9 -0.00078
34.95 -0.00094
35 -0.00027
35.05 0.00054
35.1 0.00149
35.15 0.00169
35.2 0.00212
35.25 0.00281
35.3 0.00239
35.35 0.00151
35.4 0.00098
35.45 -0.00017
35.5 -0.00145
35.55 -0.00176
35.6 -0.00245
35.65 -0.00217
35.7 -0.00159
35.75 -0.00112
35.8 -0.00054
35.85 0.00014
35.9 0.00114
35.95 0.00151
36 0.00103
36.05 0.00102
36.1 0.00125
36.15 0.00074
36.2 -0.00014
36.25 -0.00096
36.3 -0.00169
36.35 -0.00217
36.4 -0.00177
36.45 -0.00071
36.5 -0.00017
36.55 -0.00022
36.6 -0.00028
36.65 -0.00086
36.7 -0.00103
36.75 -0.00153
36.8 -0.00108
36.85 -0.00133
36.9 -0.00187
36.95 -0.0019
37 -0.0015
37.05 -0.00171
37.1 -0.00212
37.15 -0.00274
37.2 -0.00261
37.25 -0.00169
37.3 -0.00139
37.35 -0.0017
37.4 -0.00203
37.45 -0.00158
37.5 -0.0017
37.55 -0.00208
37.6 -0.00239
37.65 -0.00176
37.7 -0.00144
37.75 -0.00058
37.8 -0.00049
37.85 0.00023
37.9 0.00138
37.95 0.00193
38 0.00235
38.05 0.00259
38.1 0.00197
38.15 0.00075
38.2 -0.00011
38.25 -0.00066
38.3 -0.00042
38.35 -0.00018
38.4 -0.00014
38.45 0.00019
38.5 -0.0001
38.55 -0.0007
38.6 -0.00089
38.65 -0.00089
38.7 -0.00142
38.75 -0.00126
38.8 -0.00103
38.85 -0.00102
38.9 -0.00138
38.95 -0.00206
39 -0.00188
39.05 -0.00123
39.1 -0.00033
39.15 0.00079
39.2 0.00123
39.25 0.00144
39.3 0.00134
39.35 0.00155
39.4 0.00171
39.45 0.00095
39.5 -0.00064
39.55 -0.00193
39.6 -0.00311
39.65 -0.00433
39.7 -0.00581
39.75 -0.00765
39.8 -0.00991
39.85 -0.01136
39.9 -0.01351
39.95 -0.01556
40 -0.0174
40.05 -0.01934
40.1 -0.02204
40.15 -0.02596
40.2 -0.03028
40.25 -0.03602
40.3 -0.0424
40.35 -0.05026
40.4 -0.05892
40.45 -0.06823
40.5 -0.07838
40.55 -0.08918
40.6 -0.09988
40.65 -0.11176
40.7 -0.12448
40.75 -0.13773
40.8 -0.15223
40.85 -0.16714
40.9 -0.18347
40.95 -0.20056
41 -0.21886
41.05 -0.23782
41.1 -0.25707
41.15 -0.27634
41.2 -0.29481
41.25 -0.31368
41.3 -0.33239
41.35 -0.3506
41.4 -0.3669
41.45 -0.38189
41.5 -0.39475
41.55 -0.40629
41.6 -0.41616
41.65 -0.42277
41.7 -0.4272
41.75 -0.4295
41.8 -0.42871
41.85 -0.42492
41.9 -0.41918
41.95 -0.41097
42 -0.40003
42.05 -0.38625
42.1 -0.36947
42.15 -0.34955
42.2 -0.32831
42.25 -0.30459
42.3 -0.27892
42.35 -0.25162
42.4 -0.22302
42.45 -0.19394
42.5 -0.16527
42.55 -0.1362
42.6 -0.10783
42.65 -0.08015
42.7 -0.05278
42.75 -0.0254
42.8 0.00063
42.85 0.02575
42.9 0.05074
42.95 0.07446
43 0.09768
43.05 0.11948
43.1 0.14032
43.15 0.15978
43.2 0.17725
43.25 0.19359
43.3 0.2089
43.35 0.22281
43.4 0.23536
43.45 0.24672
43.5 0.25775
43.55 0.26894
43.6 0.27888
43.65 0.28809
43.7 0.29711
43.75 0.30572
43.8 0.31407
43.85 0.32149
43.9 0.32842
43.95 0.33504
44 0.34105
44.05 0.34598
44.1 0.3507
44.15 0.35445
44.2 0.35709
44.25 0.35958
44.3 0.36116
44.35 0.36218
44.4 0.3634
44.45 0.36441
44.5 0.3648
44.55 0.36334
44.6 0.36092
44.65 0.35794
44.7 0.35365
44.75 0.3489
44.8 0.34444
44.85 0.3389
44.9 0.33352
44.95 0.32739
45 0.32048
45.05 0.31367
45.1 0.30606
45.15 0.29766
45.2 0.28945
45.25 0.28013
45.3 0.27085
45.35 0.26192
45.4 0.25261
45.45 0.2428
45.5 0.23315
45.55 0.22315
45.6 0.21331
45.65 0.20406
45.7 0.19496
45.75 0.18639
45.8 0.17707
45.85 0.16728
45.9 0.15781
45.95 0.14818
46 0.13918
46.05 0.13037
46.1 0.12199
46.15 0.1143
46.2 0.10772
46.25 0.10151
46.3 0.09529
46.35 0.08961
46.4 0.08298
46.45 0.07657
46.5 0.07063
46.55 0.06465
46.6 0.0587
46.65 0.05262
46.7 0.04766
46.75 0.04339
46.8 0.03841
46.85 0.03366
46.9 0.02864
46.95 0.02404
47 0.01975
47.05 0.01503
47.1 0.01098
47.15 0.00691
47.2 0.00305
47.25 -0.00058
47.3 -0.00344
47.35 -0.00616
47.4 -0.00944
47.45 -0.01262
47.5 -0.01493
47.55 -0.0167
47.6 -0.01865
47.65 -0.02005
47.7 -0.02169
47.75 -0.02375
47.8 -0.02578
47.85 -0.02854
47.9 -0.03134
47.95 -0.03343
48 -0.03498
48.05 -0.03621
48.1 -0.03793
48.15 -0.0389
48.2 -0.04037
48.25 -0.04137
48.3 -0.04277
48.35 -0.04486
48.4 -0.04604
48.45 -0.04717
48.5 -0.04809
48.55 -0.04935
48.6 -0.04982
48.65 -0.05032
48.7 -0.0509
48.75 -0.05216
48.8 -0.05364
48.85 -0.0542
48.9 -0.05417
48.95 -0.05424
49 -0.05479
49.05 -0.05464
49.1 -0.05504
49.15 -0.05491
49.2 -0.05439
49.25 -0.0533
49.3 -0.05284
49.35 -0.05228
49.4 -0.05237
49.45 -0.05289
49.5 -0.05323
49.55 -0.0529
49.6 -0.05197
49.65 -0.05097
49.7 -0.05001
49.75 -0.0499
49.8 -0.05022
49.85 -0.05029
49.9 -0.04955
49.95 -0.04911
50 -0.04933
50.05 -0.0487
50.1 -0.04878
50.15 -0.04857
50.2 -0.04885
50.25 -0.04828
50.3 -0.04796
50.35 -0.04736
50.4 -0.04658
50.45 -0.04519
50.5 -0.04448
50.55 -0.04356
50.6 -0.04293
50.65 -0.04285
50.7 -0.04321
50.75 -0.04285
50.8 -0.04188
50.85 -0.0407
50.9 -0.03922
50.95 -0.03815
51 -0.03729
51.05 -0.03617
51.1 -0.03555
51.15 -0.03507
51.2 -0.03459
51.25 -0.03374
51.3 -0.03289
51.35 -0.03302
51.4 -0.0336
51.45 -0.034
51.5 -0.03344
51.55 -0.03326
51.6 -0.03228
51.65 -0.03109
51.7 -0.03067
51.75 -0.02965
51.8 -0.0294
51.85 -0.02972
51.9 -0.02911
51.95 -0.02927
52 -0.02907
52.05 -0.02901
52.1 -0.02809
52.15 -0.02768
52.2 -0.02666
52.25 -0.0256
52.3 -0.02507
52.35 -0.0243
52.4 -0.02394
52.45 -0.02316
52.5 -0.02222
52.55 -0.02176
52.6 -0.02177
52.65 -0.02147
52.7 -0.02145
52.75 -0.02208
52.8 -0.02295
52.85 -0.02282
52.9 -0.02314
52.95 -0.02317
53 -0.02281
53.05 -0.02234
53.1 -0.02138
53.15 -0.02107
53.2 -0.02119
53.25 -0.02073
53.3 -0.0198
53.35 -0.01911
53.4 -0.0189
53.45 -0.01847
53.5 -0.01774
53.55 -0.01782
53.6 -0.01826
53.65 -0.01782
53.7 -0.01706
53.75 -0.01716
53.8 -0.01699
53.85 -0.01669
53.9 -0.0161
53.95 -0.01588
54 -0.01625
54.05 -0.01589
54.1 -0.01614
54.15 -0.01664
54.2 -0.01609
54.25 -0.01609
54.3 -0.01613
54.35 -0.01643
54.4 -0.01609
54.45 -0.01565
54.5 -0.0154
54.55 -0.01478
54.6 -0.01467
54.65 -0.01397
54.7 -0.01334
54.75 -0.01271
54.8 -0.01239
54.85 -0.01269
54.9 -0.01294
54.95 -0.01289
55 -0.01268
55.05 -0.01214
55.1 -0.01121
55.15 -0.0108
55.2 -0.01036
55.25 -0.0102
55.3 -0.01026
55.35 -0.01087
55.4 -0.01127
55.45 -0.01204
55.5 -0.01253
55.55 -0.01293
55.6 -0.01304
55.65 -0.0134
55.7 -0.01335
55.75 -0.01286
55.8 -0.01233
55.85 -0.0119
55.9 -0.01182
55.95 -0.01164
56 -0.0117
56.05 -0.01163
56.1 -0.01164
56.15 -0.0118
56.2 -0.01162
56.25 -0.01146
56.3 -0.01082
56.35 -0.01033
56.4 -0.01026
56.45 -0.01016
56.5 -0.00958
56.55 -0.00906
56.6 -0.00905
56.65 -0.00917
56.7 -0.00908
56.75 -0.00874
56.8 -0.00859
56.85 -0.0075
56.9 -0.00687
56.95 -0.00674
57 -0.00712
57.05 -0.00694
57.1 -0.0059
57.15 -0.00437
57.2 -0.00377
57.25 -0.00376
57.3 -0.00309
57.35 -0.00206
57.4 -0.00124
57.45 -0.00154
57.5 -0.00164
57.55 -0.00153
57.6 -0.00156
57.65 -0.00195
57.7 -0.00276
57.75 -0.00264
57.8 -0.00326
57.85 -0.00389
57.9 -0.00391
57.95 -0.00387
58 -0.00346
58.05 -0.00333
58.1 -0.00321
58.15 -0.003
58.2 -0.00338
58.25 -0.00337
58.3 -0.00383
58.35 -0.00412
58.4 -0.00425
58.45 -0.00458
58.5 -0.00494
58.55 -0.00438
58.6 -0.00359
58.65 -0.0037
58.7 -0.00433
58.75 -0.00458
58.8 -0.00397
58.85 -0.00327
58.9 -0.0022
58.95 -0.00154
59 -0.00076
59.05 -0.00107
59.1 -0.00113
59.15 -0.00083
59.2 -0.00053
59.25 -0.00064
59.3 -0.00051
59.35 -0.00056
59.4 -0.00068
59.45 -0.00045
59.5 -0.00027
59.55 0.00021
59.6 -0.00033
59.65 -0.00146
59.7 -0.00225
59.75 -0.00214
59.8 -0.00259
59.85 -0.00226
59.9 -0.00161
59.95 -0.00061
60 0.00023
60.05 0.00033
60.1 0.00014
60.15 -0.00003
60.2 -0.00094
60.25 -0.00182
60.3 -0.00189
60.35 -0.00195
60.4 -0.00169
60.45 -0.00196
60.5 -0.00161
60.55 -0.00208
60.6 -0.00174
60.65 -0.00218
60.7 -0.00225
60.75 -0.0026
60.8 -0.00284
60.85 -0.00259
60.9 -0.00227
60.95 -0.00184
61 -0.00174
61.05 -0.00192
61.1 -0.00174
61.15 -0.00115
61.2 -0.00082
61.25 -0.00083
61.3 -0.00078
61.35 -0.00125
61.4 -0.00221
61.45 -0.00295
61.5 -0.00308
61.55 -0.00247
61.6 -0.00145
61.65 -0.00119
61.7 -0.00129
61.75 -0.00127
61.8 -0.00116
61.85 -0.00076
61.9 -0.00084
61.95 -0.00057
62 -0.00081
62.05 -0.00089
62.1 -0.00129
62.15 -0.00203
62.2 -0.00308
62.25 -0.00394
62.3 -0.00424
62.35 -0.00411
62.4 -0.00407
62.45 -0.00426
62.5 -0.00361
62.55 -0.00226
62.6 -0.00155
62.65 -0.0005
62.7 0.00013
62.75 0.00008
62.8 -0.00053
62.85 -0.00105
62.9 -0.00164
62.95 -0.00171
63 -0.00194
63.05 -0.00185
63.1 -0.00113
63.15 -0.00057
63.2 0.00031
63.25 0.00074
63.3 0.00069
63.35 0.00103
63.4 0.00046
63.45 -0.00058
63.5 -0.00089
63.55 -0.00146
63.6 -0.00121
63.65 -0.00053
63.7 -0.00016
63.75 0.00062
63.8 0.00037
63.85 -0.00054
63.9 -0.00142
63.95 -0.00223
64 -0.00305
64.05 -0.00343
64.1 -0.00405
64.15 -0.00451
64.2 -0.00457
64.25 -0.00483
64.3 -0.00504
64.35 -0.00506
64.4 -0.0042
64.45 -0.00313
64.5 -0.00229
64.55 -0.00158
64.6 -0.00068
64.65 0.0006
64.7 0.00181
64.75 0.00264
64.8 0.00311
64.85 0.00387
64.9 0.00428
64.95 0.00349
65 0.00252
65.05 0.00122
65.1 -0.00027
65.15 -0.00109
65.2 -0.00166
65.25 -0.00151
65.3 -0.00173
65.35 -0.00235
65.4 -0.0027
65.45 -0.00267
65.5 -0.00182
65.55 -0.00164
65.6 -0.00171
65.65 -0.00153
65.7 -0.00132
65.75 -0.0012
65.8 -0.0011
65.85 -0.00029
65.9 0.00001
65.95 0.00033
66 0.00026
66.05 0.00056
66.1 0.00028
66.15 0.00026
66.2 0.00041
66.25 0.00071
66.3 0.00058
66.35 0.00093
66.4 0.00056
66.45 0.00008
66.5 -0.00088
66.55 -0.00173
66.6 -0.00192
66.65 -0.00129
66.7 -0.00115
66.75 -0.00024
66.8 -0.00034
66.85 -0.0005
66.9 -0.00054
66.95 -0.00057
67 -0.00122
67.05 -0.00215
67.1 -0.0025
67.15 -0.00189
67.2 -0.00127
67.25 -0.00057
67.3 0.00011
67.35 0.00075
67.4 0.00122
67.45 0.00163
67.5 0.00209
67.55 0.00228
67.6 0.00152
67.65 0.00157
67.7 0.0017
67.75 0.00196
67.8 0.00192
67.85 0.00242
67.9 0.00297
67.95 0.00282
68 0.00306
68.05 0.00366
68.1 0.00444
68.15 0.00486
68.2 0.00441
68.25 0.0042
68.3 0.0037
68.35 0.00235
68.4 0.00121
68.45 0.00043
68.5 0.00003
68.55 -0.00005
68.6 -0.00048
68.65 -0.00123
68.7 -0.00127
68.75 -0.00085
68.8 -0.00004
68.85 0.00095
68.9 0.00096
68.95 0.00039
69 -0.0004
69.05 -0.00047
69.1 -0.00018
69.15 -0.00073
69.2 -0.00086
69.25 -0.00161
69.3 -0.00221
69.35 -0.00252
69.4 -0.00258
69.45 -0.00218
69.5 -0.00225
69.55 -0.0016
69.6 -0.00107
69.65 0.00002
69.7 0.00049
69.75 0.00005
69.8 0.00026
69.85 -0.00036
69.9 -0.00045
69.95 0.00019
70 0.00061
70.05 0.00139
70.1 0.00154
70.15 0.00196
70.2 0.00194
70.25 0.00187
70.3 0.00174
70.35 0.00192
70.4 0.00146
70.45 0.00157
70.5 0.00217
70.55 0.00247
70.6 0.00227
70.65 0.00251
70.7 0.00289
70.75 0.00227
70.8 0.00154
70.85 0.0002
70.9 -0.00121
70.95 -0.00266
71 -0.00327
71.05 -0.003
71.1 -0.0032
71.15 -0.00249
71.2 -0.00184
71.25 -0.00088
71.3 0.00041
71.35 0.00079
71.4 0.00096
71.45 0.00165
71.5 0.00134
71.55 0.0008
71.6 0.00063
71.65 -0.00008
71.7 -0.00055
71.75 -0.00012
71.8 -0.00025
71.85 -0.00008
71.9 -0.00067
71.95 -0.00039
72 -0.00044
72.05 -0.00095
72.1 -0.00111
72.15 -0.00159
72.2 -0.00133
72.25 -0.00044
72.3 -0.00018
72.35 -0.0002
72.4 -0.00038
72.45 -0.00106
72.5 -0.00137
72.55 -0.00192
72.6 -0.00173
72.65 -0.00125
72.7 -0.00064
72.75 -0.0008
72.8 -0.00066
72.85 -0.00037
72.9 -0.00018
72.95 0.00052
73 0.00063
73.05 0.00013
73.1 0.00037
73.15 0.00064
73.2 0.0002
73.25 -0.0003
73.3 -0.00026
73.35 -0.00049
73.4 -0.00024
73.45 0.00059
73.5 0.00128
73.55 0.00216
73.6 0.00213
73.65 0.00237
73.7 0.00235
73.75 0.00252
73.8 0.00285
73.85 0.00251
73.9 0.00144
73.95 0.00016
74 -0.00021
74.05 -0.00034
74.1 0.00006
74.15 0.00055
74.2 0.00072
74.25 0.00003
74.3 -0.00107
74.35 -0.00126
74.4 -0.00061
74.45 -0.00009
74.5 0.00076
74.55 0.00098
74.6 0.00073
74.65 0.00009
74.7 0.00004
74.75 -0.00056
74.8 -0.00053
74.85 0.00009
74.9 0.00046
74.95 0.00107
75 0.0012
75.05 0.00052
75.1 0.00023
75.15 0.00006
75.2 -0.00034
75.25 -0.00034
75.3 -0.00053
75.35 -0.00045
75.4 -0.00087
75.45 -0.00183
75.5 -0.00266
75.55 -0.00332
75.6 -0.00379
75.65 -0.00413
75.7 -0.00337
75.75 -0.00303
75.8 -0.003
75.85 -0.00261
75.9 -0.00178
75.95 -0.00143
76 -0.00051
76.05 -0.00002
76.1 0.00049
76.15 0.00049
76.2 0.00012
76.25 -0.00072
76.3 -0.00081
76.35 -0.0008
76.4 -0.0001
76.45 -0.00004
76.5 -0.00017
76.55 -0.00056
76.6 -0.00088
76.65 -0.00063
76.7 -0.00008
76.75 0.00022
76.8 0.00078
76.85 0.00099
76.9 0.00138
76.95 0.00179
77 0.00151
77.05 0.0005
77.1 -0.00035
77.15 -0.00058
77.2 -0.00077
77.25 -0.00155
77.3 -0.00227
77.35 -0.00258
77.4 -0.0022
77.45 -0.00135
77.5 -0.00041
77.55 0.00041
77.6 0.00113
77.65 0.00142
77.7 0.00156
77.75 0.00191
77.8 0.00167
77.85 0.00179
77.9 0.00151
77.95 0.00047
78 0.00028
78.05 -0.00057
78.1 -0.001
78.15 -0.00139
78.2 -0.00177
78.25 -0.00209
78.3 -0.00285
78.35 -0.0028
78.4 -0.00209
78.45 -0.00179
78.5 -0.00129
78.55 -0.00156
78.6 -0.00173
78.65 -0.00235
78.7 -0.00284
78.75 -0.00237
78.8 -0.00174
78.85 -0.00114
78.9 -0.00036
78.95 -0.0003
79 -0.00062
79.05 -0.00044
79.1 0.0003
79.15 0.0006
79.2 0.00105
79.25 0.00145
79.3 0.00191
79.35 0.00145
79.4 0.00167
79.45 0.00224
79.5 0.00302
79.55 0.00301
79.6 0.00304
79.65 0.00325
79.7 0.00324
79.75 0.00231
79.8 0.00217
79.85 0.00149
79.9 0.00029
79.95 0.00012
80 0.00014
80.05 0.00013
80.1 0.00076
80.15 0.00109
80.2 0.00148
80.25 0.00142
80.3 0.00189
80.35 0.00132
80.4 0.00022
80.45 -0.00049
80.5 -0.00129
80.55 -0.00105
80.6 -0.00076
80.65 -0.0008
80.7 -0.00118
80.75 -0.00187
80.8 -0.00152
80.85 -0.00054
80.9 0.00035
80.95 0.00044
81 0.00041
81.05 0.00098
81.1 0.00085
81.15 0.00083
81.2 0.0011
81.25 0.00124
81.3 0.00123
81.35 0.00076
81.4 0.00014
81.45 0.00017
81.5 0.00028
81.55 0.00051
81.6 0.0003
81.65 0.00041
81.7 0.0005
81.75 0.00109
81.8 0.00176
81.85 0.00145
81.9 0.00174
81.95 0.00214
82 0.00179
82.05 0.00065
82.1 -0.00016
82.15 -0.00027
82.2 -0.00068
82.25 -0.00023
82.3 0.00005
82.35 0.00012
82.4 0.0001
82.45 -0.00052
82.5 -0.0003
82.55 -0.00025
82.6 -0.0003
82.65 -0.00052
82.7 -0.00077
82.75 -0.00065
82.8 -0.00001
82.85 0.0006
82.9 0.00019
82.95 0.00033
83 -0.00006
83.05 -0.00014
83.1 0.00033
83.15 0.00101
83.2 0.00081
83.25 0.00119
83.3 0.00064
83.35 -0.0005
83.4 -0.00183
83.45 -0.00261
83.5 -0.00258
83.55 -0.00305
83.6 -0.00333
83.65 -0.00285
83.7 -0.00216
83.75 -0.00175
83.8 -0.00139
83.85 -0.0015
83.9 -0.00107
83.95 -0.00122
84 -0.00134
84.05 -0.00148
84.1 -0.00129
84.15 -0.00152
84.2 -0.00159
84.25 -0.00156
84.3 -0.00211
84.35 -0.00221
84.4 -0.00259
84.45 -0.0031
84.5 -0.00253
84.55 -0.00192
84.6 -0.00127
84.65 -0.00053
84.7 0.00047
84.75 0.00126
84.8 0.00112
84.85 0.00051
84.9 -0.00017
84.95 -0.00121
85 -0.00234
85.05 -0.00275
85.1 -0.00274
85.15 -0.00308
85.2 -0.00363
85.25 -0.00375
85.3 -0.00361
85.35 -0.00252
85.4 -0.00226
85.45 -0.00185
85.5 -0.00091
85.55 -0.00005
85.6 -0.00017
85.65 0.00016
85.7 0.0004
85.75 -0.00017
85.8 -0.00089
85.85 -0.00106
85.9 -0.00122
85.95 -0.00169
86 -0.00128
86.05 -0.00147
86.1 -0.00185
86.15 -0.00176
86.2 -0.00151
86.25 -0.0007
86.3 -0.00065
86.35 -0.00032
86.4 0.0001
86.45 0.0001
86.5 -0.00054
86.55 -0.00077
86.6 -0.00122
86.65 -0.00165
86.7 -0.00216
86.75 -0.00155
86.8 -0.00044
86.85 -0.00004
86.9 0.00069
86.95 0.00103
87 0.00192
87.05 0.0029
87.1 0.00269
87.15 0.00242
87.2 0.00139
87.25 0.00035
87.3 -0.00085
87.35 -0.0022
87.4 -0.00255
87.45 -0.00182
87.5 -0.00152
87.55 -0.00147
87.6 -0.00099
87.65 -0.00086
87.7 -0.00047
87.75 -0.00035
87.8 -0.00054
87.85 -0.00112
87.9 -0.00125
87.95 -0.00056
88 -0.00017
88.05 0.00048
88.1 0.00088
88.15 0.00057
88.2 0.00044
88.25 0.00032
88.3 0.00039
88.35 -0.00002
88.4 0.00043
88.45 0.00077
88.5 0.00081
88.55 0.00075
88.6 0.00058
88.65 0.00111
88.7 0.00132
88.75 0.0019
88.8 0.00197
88.85 0.00229
88.9 0.00207
88.95 0.00172
89 0.00191
89.05 0.00148
89.1 0.00131
89.15 0.0018
89.2 0.00143
89.25 0.00086
89.3 0.00024
89.35 -0.00081
89.4 -0.00113
89.45 -0.00131
89.5 -0.00069
89.55 0.00023
89.6 0.00019
89.65 -0.0004
89.7 -0.00043
89.75 0.0001
89.8 -0.0002
89.85 -0.00062
89.9 -0.00022
89.95 -0.00013
90 -0.00036
90.05 -0.0006
90.1 -0.00075
90.15 -0.0012
90.2 -0.00162
90.25 -0.00101
90.3 0.00014
90.35 0.00152
90.4 0.00172
90.45 0.00203
90.5 0.00259
90.55 0.00285
90.6 0.00264
90.65 0.0022
90.7 0.00243
90.75 0.00299
90.8 0.0026
90.85 0.00241
90.9 0.00179
90.95 0.00066
91 0.00024
91.05 -0.00064
91.1 -0.00082
91.15 -0.00075
91.2 -0.00091
91.25 -0.00093
91.3 -0.00052
91.35 -0.00003
91.4 -0.00035
91.45 -0.00119
91.5 -0.00145
91.55 -0.00132
91.6 -0.00057
91.65 -0.00025
91.7 0.00068
91.75 0.0018
91.8 0.00287
91.85 0.00372
91.9 0.00323
91.95 0.00195
92 0.00073
92.05 -0.00047
92.1 -0.00118
92.15 -0.00132
92.2 -0.00113
92.25 -0.00065
92.3 -0.00042
92.35 -0.00065
92.4 -0.0011
92.45 -0.00168
92.5 -0.00132
92.55 -0.0011
92.6 -0.00098
92.65 -0.00097
92.7 -0.0009
92.75 -0.00068
92.8 -0
92.85 0.00019
92.9 0.00007
92.95 0.00068
93 0.00148
93.05 0.00232
93.1 0.00234
93.15 0.00257
93.2 0.0025
93.25 0.00221
93.3 0.00139
93.35 0.00019
93.4 -0.00014
93.45 0.0002
93.5 0.00005
93.55 0.00044
93.6 0.00104
93.65 0.00172
93.7 0.00149
93.75 0.00104
93.8 0.00129
93.85 0.00115
93.9 0.00095
93.95 0.00046
94 0.00022
94.05 0.0005
94.1 0.00027
94.15 -0.00042
94.2 -0.00046
94.25 -0.00053
94.3 -0.00111
94.35 -0.00148
94.4 -0.00195
94.45 -0.00239
94.5 -0.00227
94.55 -0.0014
94.6 -0.00078
94.65 -0.00105
94.7 -0.00067
94.75 -0.00094
94.8 -0.00138
94.85 -0.00115
94.9 -0.00158
94.95 -0.00132
95 -0.00122
95.05 -0.00177
95.1 -0.00151
95.15 -0.00095
95.2 -0.00075
95.25 -0.00063
95.3 -0.00085
95.35 -0.00096
95.4 -0.00122
95.45 -0.00186
95.5 -0.00143
95.55 -0.00111
95.6 -0.001
95.65 -0.0009
95.7 -0.00112
95.75 -0.00112
95.8 -0.00132
95.85 -0.00148
95.9 -0.00131
95.95 -0.00059
96 -0.00013
96.05 0.00053
96.1 0.00076
96.15 0.00056
96.2 -0.00001
96.25 -0.00048
96.3 -0.00127
96.35 -0.00227
96.4 -0.00212
96.45 -0.00161
96.5 -0.0015
96.55 -0.00073
96.6 -0.00081
96.65 -0.00022
96.7 -0.00004
96.75 0.00002
96.8 0.00071
96.85 0.00049
96.9 0.00051
96.95 0.00039
97 0.00097
97.05 0.00141
97.1 0.00223
97.15 0.00311
97.2 0.00353
97.25 0.00314
97.3 0.00209
97.35 0.00188
97.4 0.00164
97.45 0.00138
97.5 0.0017
97.55 0.00113
97.6 0.00134
97.65 0.00205
97.7 0.00185
97.75 0.00092
97.8 0.00045
97.85 -0.00048
97.9 -0.00088
97.95 -0.00115
98 -0.00059
98.05 0.0003
98.1 0.00054
98.15 0.00019
98.2 0.00043
98.25 0.00011
98.3 0.00009
98.35 -0.00051
98.4 -0.00054
98.45 -0.00088
98.5 -0.00131
98.55 -0.00122
98.6 -0.00099
98.65 -0.00122
98.7 -0.00165
98.75 -0.00135
98.8 -0.00037
98.85 -0.00042
98.9 -0.00073
98.95 -0.00085
99 -0.00024
99.05 -0.00035
99.1 -0.00069
99.15 -0.00127
99.2 -0.001
99.25 -0.00104
99.3 -0.00161
99.35 -0.00223
99.4 -0.00245
99.45 -0.00272
99.5 -0.00282
99.55 -0.0021
99.6 -0.00161
99.65 -0.00122
99.7 -0.00154
99.75 -0.0019
99.8 -0.0014
99.85 -0.00049
99.9 0.00033
99.95 0.00082
