0 0
0.05 0.00913
0.1 0.02235
0.15 0.03385
0.2 0.03836
0.25 0.04316
0.3 0.04957
0.35 0.05075
0.4 0.0561
0.45 0.05977
0.5 0.05844
0.55 0.05528
0.6 0.04849
0.65 0.04791
0.7 0.05075
0.75 0.04915
0.8 0.04998
0.85 0.04596
0.9 0.04455
0.95 0.04172
1 0.04138
1.05 0.04438
1.1 0.04244
1.15 0.0369
1.2 0.02976
1.25 0.02174
1.3 0.01369
1.35 0.00672
1.4 0.00278
1.45 0.00565
1.5 0.01124
1.55 0.02105
1.6 0.02789
1.65 0.03371
1.7 0.03954
1.75 0.04617
1.8 0.04702
1.85 0.04271
1.9 0.04156
1.95 0.03952
2 0.0332
2.05 0.02654
2.1 0.02699
2.15 0.02722
2.2 0.02348
2.25 0.02418
2.3 0.02808
2.35 0.0309
2.4 0.02829
2.45 0.02393
2.5 0.02489
2.55 0.02905
2.6 0.03353
2.65 0.03635
2.7 0.03806
2.75 0.04156
2.8 0.04349
2.85 0.03872
2.9 0.03838
2.95 0.0385
3 0.03609
3.05 0.03683
3.1 0.03545
3.15 0.03249
3.2 0.02881
3.25 0.02613
3.3 0.02472
3.35 0.02038
3.4 0.01322
3.45 0.00475
3.5 -0.00203
3.55 -0.00529
3.6 -0.00578
3.65 -0.00733
3.7 -0.0077
3.75 -0.00465
3.8 0.00372
3.85 0.0059
3.9 0.01035
3.95 0.01546
4 0.01605
4.05 0.01875
4.1 0.02429
4.15 0.03098
4.2 0.03159
4.25 0.02808
4.3 0.02248
4.35 0.01318
4.4 0.00135
4.45 -0.00616
4.5 -0.01456
4.55 -0.02391
4.6 -0.03294
4.65 -0.04746
4.7 -0.06857
4.75 -0.09002
4.8 -0.11482
4.85 -0.14507
4.9 -0.17852
4.95 -0.21294
5 -0.25431
5.05 -0.29789
5.1 -0.34292
5.15 -0.39743
5.2 -0.45812
5.25 -0.52278
5.3 -0.59881
5.35 -0.6772
5.4 -0.76256
5.45 -0.85214
5.5 -0.94768
5.55 -1.04682
5.6 -1.14948
5.65 -1.24686
5.7 -1.34029
5.75 -1.43279
5.8 -1.52933
5.85 -1.62575
5.9 -1.71608
5.95 -1.80472
6 -1.89287
6.05 -1.97608
6.1 -2.05399
6.15 -2.12694
6.2 -2.19651
6.25 -2.26167
6.3 -2.31835
6.35 -2.36442
6.4 -2.40666
6.45 -2.44312
6.5 -2.46919
6.55 -2.4909
6.6 -2.50764
6.65 -2.51441
6.7 -2.51046
6.75 -2.48862
6.8 -2.45376
6.85 -2.39984
6.9 -2.32724
6.95 -2.23679
7 -2.1309
7.05 -2.01616
7.1 -1.88528
7.15 -1.7375
7.2 -1.5754
7.25 -1.40045
7.3 -1.21424
7.35 -1.01917
7.4 -0.8243
7.45 -0.62462
7.5 -0.42294
7.55 -0.22193
7.6 -0.01954
7.65 0.18019
7.7 0.37946
7.75 0.57213
7.8 0.75536
7.85 0.92905
7.9 1.09183
7.95 1.24516
8 1.38835
8.05 1.51732
8.1 1.63297
8.15 1.73397
8.2 1.82114
8.25 1.90216
8.3 1.96786
8.35 2.02332
8.4 2.06975
8.45 2.10699
8.5 2.14401
8.55 2.17047
8.6 2.19403
8.65 2.20917
8.7 2.21664
8.75 2.22395
8.8 2.22451
8.85 2.2263
8.9 2.22348
8.95 2.21426
9 2.19918
9.05 2.18834
9.1 2.17861
9.15 2.16475
9.2 2.14528
9.25 2.12225
9.3 2.10389
9.35 2.08741
9.4 2.06772
9.45 2.04388
9.5 2.01455
9.55 1.98214
9.6 1.94842
9.65 1.9218
9.7 1.89894
9.75 1.8777
9.8 1.85095
9.85 1.81821
9.9 1.78583
9.95 1.74685
10 1.70328
10.05 1.66561
10.1 1.63006
10.15 1.59421
10.2 1.55667
10.25 1.51504
10.3 1.47007
10.35 1.42596
10.4 1.38371
10.45 1.33966
10.5 1.2959
10.55 1.24771
10.6 1.19975
10.65 1.15447
10.7 1.1052
10.75 1.05288
10.8 1.00125
10.85 0.95045
10.9 0.89902
10.95 0.85048
11 0.80426
11.05 0.7612
11.1 0.71446
11.15 0.67036
11.2 0.63172
11.25 0.58955
11.3 0.54493
11.35 0.50247
11.4 0.46461
11.45 0.42403
11.5 0.38352
11.55 0.3448
11.6 0.30325
11.65 0.26621
11.7 0.23291
11.75 0.19845
11.8 0.16474
11.85 0.13035
11.9 0.09532
11.95 0.06638
12 0.03398
12.05 0.00634
12.1 -0.01653
12.15 -0.04255
12.2 -0.06951
12.25 -0.09288
12.3 -0.11338
12.35 -0.13624
12.4 -0.16134
12.45 -0.17955
12.5 -0.20056
12.55 -0.21466
12.6 -0.22829
12.65 -0.2398
12.7 -0.2499
12.75 -0.26133
12.8 -0.26907
12.85 -0.27583
12.9 -0.28666
12.95 -0.29414
13 -0.30599
13.05 -0.31322
13.1 -0.32209
13.15 -0.33327
13.2 -0.34469
13.25 -0.35
13.3 -0.35626
13.35 -0.35852
13.4 -0.36087
13.45 -0.36433
13.5 -0.36705
13.55 -0.36967
13.6 -0.37448
13.65 -0.37555
13.7 -0.37991
13.75 -0.38291
13.8 -0.38318
13.85 -0.38149
13.9 -0.38333
13.95 -0.3821
14 -0.37919
14.05 -0.37833
14.1 -0.37266
14.15 -0.36791
14.2 -0.36443
14.25 -0.36319
14.3 -0.36426
14.35 -0.36476
14.4 -0.36301
14.45 -0.36359
14.5 -0.3638
14.55 -0.36201
14.6 -0.35826
14.65 -0.35264
14.7 -0.34217
14.75 -0.33481
14.8 -0.33213
14.85 -0.3259
14.9 -0.31751
14.95 -0.30789
15 -0.29759
15.05 -0.28888
15.1 -0.28271
15.15 -0.27375
15.2 -0.2699
15.25 -0.26573
15.3 -0.26543
15.35 -0.26699
15.4 -0.26457
15.45 -0.25965
15.5 -0.25353
15.55 -0.24773
15.6 -0.2456
15.65 -0.24363
15.7 -0.24263
15.75 -0.24456
15.8 -0.24026
15.85 -0.23647
15.9 -0.22864
15.95 -0.21859
16 -0.20949
16.05 -0.19939
16.1 -0.19291
16.15 -0.19047
16.2 -0.1856
16.25 -0.185
16.3 -0.18936
16.35 -0.19629
16.4 -0.20425
16.45 -0.21179
16.5 -0.21705
16.55 -0.21453
16.6 -0.2065
16.65 -0.20348
16.7 -0.20131
16.75 -0.19972
16.8 -0.19286
16.85 -0.18773
16.9 -0.18011
16.95 -0.16997
17 -0.16678
17.05 -0.1651
17.1 -0.1593
17.15 -0.1554
17.2 -0.14994
17.25 -0.14427
17.3 -0.13683
17.35 -0.13548
17.4 -0.13192
17.45 -0.13115
17.5 -0.1297
17.55 -0.1273
17.6 -0.12224
17.65 -0.12201
17.7 -0.12654
17.75 -0.13394
17.8 -0.14067
17.85 -0.13988
17.9 -0.13792
17.95 -0.13426
18 -0.12933
18.05 -0.12907
18.1 -0.12866
18.15 -0.13018
18.2 -0.13158
18.25 -0.13123
18.3 -0.12907
18.35 -0.12323
18.4 -0.11944
18.45 -0.11845
18.5 -0.11301
18.55 -0.10951
18.6 -0.10301
18.65 -0.10226
18.7 -0.10058
18.75 -0.10275
18.8 -0.10543
18.85 -0.10424
18.9 -0.10027
18.95 -0.09993
19 -0.09856
19.05 -0.09807
19.1 -0.09262
19.15 -0.08975
19.2 -0.0911
19.25 -0.08665
19.3 -0.08717
19.35 -0.08923
19.4 -0.09024
19.45 -0.09101
19.5 -0.0932
19.55 -0.08964
19.6 -0.08757
19.65 -0.08809
19.7 -0.08204
19.75 -0.0747
19.8 -0.07011
19.85 -0.06835
19.9 -0.0619
19.95 -0.06113
20 -0.06043
20.05 -0.05798
20.1 -0.05169
20.15 -0.05171
20.2 -0.05058
20.25 -0.04714
20.3 -0.04491
20.35 -0.04121
20.4 -0.03914
20.45 -0.04153
20.5 -0.0407
20.55 -0.037
20.6 -0.03986
20.65 -0.04333
20.7 -0.05028
20.75 -0.05729
20.8 -0.06229
20.85 -0.06312
20.9 -0.05766
20.95 -0.05397
21 -0.05382
21.05 -0.05435
21.1 -0.05293
21.15 -0.05565
21.2 -0.05491
21.25 -0.05733
21.3 -0.05747
21.35 -0.05743
21.4 -0.05634
21.45 -0.04937
21.5 -0.04786
21.55 -0.04248
21.6 -0.03965
21.65 -0.04161
21.7 -0.04005
21.75 -0.03735
21.8 -0.0313
21.85 -0.02313
21.9 -0.02156
21.95 -0.0175
22 -0.01797
22.05 -0.01757
22.1 -0.01949
22.15 -0.02105
22.2 -0.02045
22.25 -0.02036
22.3 -0.01883
22.35 -0.01636
22.4 -0.01542
22.45 -0.01613
22.5 -0.01586
22.55 -0.01505
22.6 -0.01953
22.65 -0.02174
22.7 -0.0202
22.75 -0.01737
22.8 -0.01212
22.85 -0.01403
22.9 -0.01408
22.95 -0.01258
23 -0.01573
23.05 -0.02173
23.1 -0.02565
23.15 -0.02878
23.2 -0.03462
23.25 -0.03402
23.3 -0.03316
23.35 -0.0334
23.4 -0.03577
23.45 -0.03808
23.5 -0.03795
23.55 -0.03926
23.6 -0.03484
23.65 -0.03149
23.7 -0.02899
23.75 -0.02547
23.8 -0.02569
23.85 -0.02706
23.9 -0.02304
23.95 -0.01545
24 -0.01088
24.05 -0.00521
24.1 0.00013
24.15 -0.00133
24.2 -0.00609
24.25 -0.00759
24.3 -0.00765
24.35 -0.00892
24.4 -0.01367
24.45 -0.01314
24.5 -0.0103
24.55 -0.01351
24.6 -0.02007
24.65 -0.02531
24.7 -0.02849
24.75 -0.03054
24.8 -0.03429
24.85 -0.03645
24.9 -0.03308
24.95 -0.02694
25 -0.02278
25.05 -0.01856
25.1 -0.01556
25.15 -0.01588
25.2 -0.01613
25.25 -0.0138
25.3 -0.00927
25.35 -0.00756
25.4 -0.01011
25.45 -0.01417
25.5 -0.02074
25.55 -0.02445
25.6 -0.02955
25.65 -0.02758
25.7 -0.02255
25.75 -0.01544
25.8 -0.01069
25.85 -0.01011
25.9 -0.00581
25.95 0.0006
26 0.00748
26.05 0.01018
26.1 0.00714
26.15 0.00767
26.2 0.00608
26.25 -0.00051
26.3 -0.00218
26.35 0.00043
26.4 0.0058
26.45 0.00819
26.5 0.00377
26.55 0.004
26.6 0.00632
26.65 0.00559
26.7 0.00718
26.75 0.00796
26.8 0.00617
26.85 0.00833
26.9 0.01046
26.95 0.00566
27 0.00241
27.05 -0.00051
27.1 -0.00529
27.15 -0.01087
27.2 -0.01602
27.25 -0.01925
27.3 -0.01796
27.35 -0.01504
27.4 -0.01163
27.45 -0.00593
27.5 -0.00372
27.55 -0.00322
27.6 -0.00656
27.65 -0.00869
27.7 -0.01393
27.75 -0.02119
27.8 -0.02492
27.85 -0.02354
27.9 -0.01748
27.95 -0.00973
28 -0.00071
28.05 0.00872
28.1 0.01503
28.15 0.01361
28.2 0.01404
28.25 0.00846
28.3 0.0059
28.35 0.00425
28.4 0.00382
28.45 -0.00066
28.5 0.00033
28.55 0.00487
28.6 0.01125
28.65 0.01509
28.7 0.01534
28.75 0.01445
28.8 0.01488
28.85 0.01245
28.9 0.0074
28.95 0.00627
29 -0.00022
29.05 -0.00522
29.1 -0.00563
29.15 -0.00236
29.2 0.0026
29.25 0.00704
29.3 0.00665
29.35 0.00703
29.4 0.00759
29.45 0.00663
29.5 0.00131
29.55 -0.00699
29.6 -0.00975
29.65 -0.0117
29.7 -0.01075
29.75 -0.00936
29.8 -0.00456
29.85 0.00112
29.9 0.00054
29.95 0.00276
30 0.00724
30.05 0.00614
30.1 0.00856
30.15 0.01227
30.2 0.01306
30.25 0.01244
30.3 0.0147
30.35 0.01188
30.4 0.00684
30.45 -0.00114
30.5 -0.00628
30.55 -0.01052
30.6 -0.01455
30.65 -0.01469
30.7 -0.01693
30.75 -0.01985
30.8 -0.01709
30.85 -0.0189
30.9 -0.01516
30.95 -0.01222
31 -0.01254
31.05 -0.01224
31.1 -0.00735
31.15 -0.00505
31.2 -0.00403
31.25 -0.00557
31.3 -0.00608
31.35 -0.00313
31.4 -0.00258
31.45 -0.00315
31.5 -0.00115
31.55 -0.00024
31.6 -0.00245
31.65 -0.00601
31.7 -0.00836
31.75 -0.01128
31.8 -0.01643
31.85 -0.01453
31.9 -0.00963
31.95 -0.00553
32 -0.00057
32.05 -0.00214
32.1 -0.00481
32.15 -0.00364
32.2 -0.00167
32.25 -0.00435
32.3 -0.00936
32.35 -0.01498
32.4 -0.02049
32.45 -0.01826
32.5 -0.01493
32.55 -0.01054
32.6 -0.00998
32.65 -0.01359
32.7 -0.01414
32.75 -0.01067
32.8 -0.00945
32.85 -0.00948
32.9 -0.00732
32.95 -0.00829
33 -0.0049
33.05 0.00073
33.1 0.00267
33.15 0.00378
33.2 0.00742
33.25 0.01043
33.3 0.00996
33.35 0.00565
33.4 -0.00082
33.45 -0.00287
33.5 -0.0077
33.55 -0.01023
33.6 -0.01476
33.65 -0.01477
33.7 -0.01686
33.75 -0.02041
33.8 -0.01992
33.85 -0.01799
33.9 -0.01387
33.95 -0.01397
34 -0.01476
34.05 -0.01304
34.1 -0.00826
34.15 -0.00885
34.2 -0.01069
34.25 -0.01022
34.3 -0.0134
34.35 -0.01764
34.4 -0.01447
34.45 -0.00745
34.5 -0.00499
34.55 -0.00629
34.6 -0.00837
34.65 -0.0114
34.7 -0.00987
34.75 -0.00994
34.8 -0.0109
34.85 -0.01352
34.9 -0.01396
34.95 -0.01671
35 -0.02089
35.05 -0.01764
35.1 -0.01089
35.15 -0.00921
35.2 -0.01096
35.25 -0.01554
35.3 -0.01625
35.35 -0.01672
35.4 -0.01813
35.45 -0.01555
35.5 -0.01479
35.55 -0.01526
35.6 -0.01829
35.65 -0.01818
35.7 -0.01477
35.75 -0.01338
35.8 -0.0111
35.85 -0.00874
35.9 -0.00704
35.95 -0.00784
36 -0.00927
36.05 -0.01057
36.1 -0.01449
36.15 -0.01595
36.2 -0.01959
36.25 -0.02304
36.3 -0.0198
36.35 -0.01721
36.4 -0.01246
36.45 -0.00426
36.5 -0.00125
36.55 -0.0019
36.6 -0.00266
36.65 -0.00077
36.7 0.00222
36.75 0.00909
36.8 0.01393
36.85 0.01711
36.9 0.02047
36.95 0.0238
37 0.02215
37.05 0.01643
37.1 0.01618
37.15 0.01223
37.2 0.00798
37.25 0.00953
37.3 0.01245
37.35 0.01692
37.4 0.01809
37.45 0.01517
37.5 0.01207
37.55 0.01358
37.6 0.01501
37.65 0.01198
37.7 0.01218
37.75 0.00884
37.8 0.00351
37.85 -0.00381
37.9 -0.01172
37.95 -0.0162
38 -0.02143
38.05 -0.01814
38.1 -0.01408
38.15 -0.00658
38.2 0.0013
38.25 0.00657
38.3 0.00598
38.35 0.00441
38.4 0.00412
38.45 0.00429
38.5 0.00269
38.55 0.00617
38.6 0.01038
38.65 0.01066
38.7 0.00702
38.75 0.00512
38.8 0.00633
38.85 0.00803
38.9 0.00667
38.95 0.00217
39 0.00004
39.05 0.00193
39.1 0.00339
39.15 0.00089
39.2 -0.00061
39.25 -0.00012
39.3 0.00211
39.35 0.00311
39.4 0.00514
39.45 0.00362
39.5 -0.00189
39.55 -0.00956
39.6 -0.00985
39.65 -0.00481
39.7 -0.00177
39.75 0.00025
39.8 0.00491
39.85 0.00315
39.9 -0.00048
39.95 -0.00546
40 -0.0087
40.05 -0.01018
40.1 -0.00968
40.15 -0.00578
40.2 0.00162
40.25 0.00964
40.3 0.00965
40.35 0.01355
40.4 0.01558
40.45 0.01226
40.5 0.00927
40.55 0.01014
40.6 0.01314
40.65 0.01533
40.7 0.01455
40.75 0.01662
40.8 0.01276
40.85 0.01331
40.9 0.0156
40.95 0.01652
41 0.01635
41.05 0.01389
41.1 0.00957
41.15 0.00714
41.2 0.0038
41.25 0.00501
41.3 0.00439
41.35 0.00159
41.4 0.0005
41.45 -0.00016
41.5 -0.005
41.55 -0.00959
41.6 -0.01622
41.65 -0.01888
41.7 -0.0189
41.75 -0.01793
41.8 -0.01987
41.85 -0.02118
41.9 -0.0187
41.95 -0.01894
42 -0.0168
42.05 -0.0167
42.1 -0.01691
42.15 -0.01666
42.2 -0.01481
42.25 -0.00802
42.3 -0.00055
42.35 0.00768
42.4 0.01202
42.45 0.01247
42.5 0.01139
42.55 0.00898
42.6 0.00932
42.65 0.00715
42.7 0.00627
42.75 0.00795
42.8 0.0059
42.85 0.00199
42.9 -0.00513
42.95 -0.00896
43 -0.00904
43.05 -0.01109
43.1 -0.01158
43.15 -0.01217
43.2 -0.01037
43.25 -0.01244
43.3 -0.00919
43.35 -0.00791
43.4 -0.00254
43.45 0.0054
43.5 0.00887
43.55 0.00894
43.6 0.00573
43.65 0.00754
43.7 0.00566
43.75 0.00829
43.8 0.00765
43.85 0.00805
43.9 0.00944
43.95 0.008
44 0.00873
44.05 0.00518
44.1 -0.00183
44.15 -0.00845
44.2 -0.01535
44.25 -0.0223
44.3 -0.02773
44.35 -0.03288
44.4 -0.03712
44.45 -0.03496
44.5 -0.03269
44.55 -0.03109
44.6 -0.03029
44.65 -0.0284
44.7 -0.02245
44.75 -0.0163
44.8 -0.00968
44.85 -0.00773
44.9 -0.00505
44.95 -0.00167
45 -0.00315
45.05 0.00017
45.1 -0.00146
45.15 -0.00456
45.2 -0.00477
45.25 -0.0055
45.3 -0.00497
45.35 -0.00429
45.4 -0.00064
45.45 -0.00158
45.5 -0.0014
45.55 0.00267
45.6 0.00699
45.65 0.01416
45.7 0.02038
45.75 0.02203
45.8 0.01898
45.85 0.01945
45.9 0.01611
45.95 0.01126
46 0.00635
46.05 -0.00075
46.1 -0.00516
46.15 -0.00809
46.2 -0.00748
46.25 -0.002
46.3 0.0019
46.35 0.00576
46.4 0.00997
46.45 0.01334
46.5 0.01845
46.55 0.01862
46.6 0.01327
46.65 0.0083
46.7 0.00045
46.75 -0.00342
46.8 -0.00075
46.85 0.00545
46.9 0.00949
46.95 0.00729
47 0.00797
47.05 0.00648
47.1 0.00821
47.15 0.01323
47.2 0.01333
47.25 0.01275
47.3 0.00949
47.35 0.00896
47.4 0.00555
47.45 -0.00082
47.5 -0.00692
47.55 -0.01103
47.6 -0.01365
47.65 -0.01628
47.7 -0.01849
47.75 -0.01565
47.8 -0.01329
47.85 -0.01045
47.9 -0.00449
47.95 0.00125
48 0.0036
48.05 0.00432
48.1 0.00124
48.15 0.00109
48.2 -0.00298
48.25 -0.00308
48.3 -0.00672
48.35 -0.00583
48.4 -0.00399
48.45 -0.0063
48.5 -0.00681
48.55 -0.00636
48.6 -0.00497
48.65 -0.00266
48.7 0.00221
48.75 0.00242
48.8 -0.00192
48.85 -0.00697
48.9 -0.00783
48.95 -0.00554
49 -0.00607
49.05 -0.00707
49.1 -0.00653
49.15 -0.00186
49.2 0.00269
49.25 0.0036
49.3 0.00803
49.35 0.00754
49.4 0.00962
49.45 0.00612
49.5 0.00809
49.55 0.00609
49.6 0.0026
49.65 0.0031
49.7 0.00532
49.75 0.00769
49.8 0.00921
49.85 0.01051
49.9 0.01055
49.95 0.01288
50 0.01118
50.05 0.01254
50.1 0.01105
50.15 0.00766
50.2 0.00611
50.25 0.0071
50.3 0.0102
50.35 0.00861
50.4 0.01101
50.45 0.0099
50.5 0.00887
50.55 0.00643
50.6 0.00288
50.65 -0.00261
50.7 -0.00938
50.75 -0.01644
50.8 -0.02109
50.85 -0.02169
50.9 -0.01799
50.95 -0.0117
51 -0.00987
51.05 -0.00854
51.1 -0.00614
51.15 -0.00413
51.2 -0.00226
51.25 -0.00394
51.3 -0.00597
51.35 -0.0063
51.4 -0.00673
51.45 -0.00438
51.5 0.00071
51.55 0.00393
51.6 0.00181
51.65 0.00471
51.7 0.00879
51.75 0.01089
51.8 0.00971
51.85 0.00873
51.9 0.00426
51.95 0.00128
52 -0.00284
52.05 -0.00616
52.1 -0.00563
52.15 -0.0004
52.2 0.00532
52.25 0.01024
52.3 0.01651
52.35 0.02009
52.4 0.01917
52.45 0.02082
52.5 0.02462
52.55 0.02064
52.6 0.01755
52.65 0.01779
52.7 0.01266
52.75 0.00758
52.8 0.00243
52.85 -0.00545
52.9 -0.01449
52.95 -0.021
53 -0.02642
53.05 -0.02466
53.1 -0.02163
53.15 -0.01398
53.2 -0.00844
53.25 -0.00657
53.3 -0.00212
53.35 -0.0007
53.4 -0.00227
53.45 -0.00298
53.5 -0.00664
53.55 -0.01232
53.6 -0.01882
53.65 -0.01898
53.7 -0.01538
53.75 -0.01269
53.8 -0.01136
53.85 -0.00934
53.9 -0.01089
53.95 -0.01064
54 -0.01275
54.05 -0.00822
54.1 -0.0013
54.15 0.00361
54.2 0.00675
54.25 0.01266
54.3 0.01596
54.35 0.01264
54.4 0.01401
54.45 0.01173
54.5 0.00831
54.55 0.00673
54.6 0.00689
54.65 0.00699
54.7 0.00881
54.75 0.00487
54.8 -0.00235
54.85 -0.00374
54.9 -0.00577
54.95 -0.0073
55 -0.01073
55.05 -0.0118
55.1 -0.01241
55.15 -0.01307
55.2 -0.01335
55.25 -0.01364
55.3 -0.0089
55.35 -0.00712
55.4 -0.00078
55.45 0.00007
55.5 0.00186
55.55 0.00347
55.6 0.00189
55.65 0.00493
55.7 0.00836
55.75 0.00866
55.8 0.00978
55.85 0.00801
55.9 0.00514
55.95 -0.00108
56 -0.00196
56.05 -0.00264
56.1 -0.00502
56.15 -0.00529
56.2 -0.00284
56.25 -0.00462
56.3 -0.0096
56.35 -0.00913
56.4 -0.00753
56.45 -0.00769
56.5 -0.01039
56.55 -0.01426
56.6 -0.01788
56.65 -0.01904
56.7 -0.01794
56.75 -0.01498
56.8 -0.01252
56.85 -0.00622
56.9 -0.00094
56.95 -0.00155
57 0.00286
57.05 0.00398
57.1 0.00204
57.15 0.00522
57.2 0.00859
57.25 0.00766
57.3 0.00809
57.35 0.00613
57.4 0.00238
57.45 -0.00278
57.5 -0.00409
57.55 -0.00156
57.6 0.00182
57.65 0.00553
57.7 0.00816
57.75 0.0076
57.8 0.00416
57.85 0.00145
57.9 -0.00128
57.95 -0.00667
58 -0.01335
58.05 -0.01799
58.1 -0.01563
58.15 -0.0149
58.2 -0.01598
58.25 -0.01901
58.3 -0.01717
58.35 -0.01728
58.4 -0.01092
58.45 -0.00091
58.5 0.00561
58.55 0.00825
58.6 0.01087
58.65 0.01519
58.7 0.01662
58.75 0.02027
58.8 0.02465
58.85 0.02875
58.9 0.02784
58.95 0.0295
59 0.03077
59.05 0.03363
59.1 0.0334
59.15 0.02892
59.2 0.02542
59.25 0.02
59.3 0.01337
59.35 0.00491
59.4 -0.00187
59.45 -0.00397
59.5 -0.00752
59.55 -0.00949
59.6 -0.01074
59.65 -0.01227
59.7 -0.01076
59.75 -0.00814
59.8 -0.00119
59.85 0.0014
59.9 0.00741
59.95 0.01219
60 0.01436
60.05 0.01091
60.1 0.00851
60.15 0.00892
60.2 0.00646
60.25 0.00477
60.3 -0.00018
60.35 0.00133
60.4 0.00456
60.45 0.00807
60.5 0.01394
60.55 0.01448
60.6 0.01087
60.65 0.01177
60.7 0.00694
60.75 0.00599
60.8 0.0085
60.85 0.01168
60.9 0.00942
60.95 0.0109
61 0.01024
61.05 0.01109
61.1 0.00937
61.15 0.0078
61.2 0.00974
61.25 0.01102
61.3 0.01112
61.35 0.00835
61.4 0.0088
61.45 0.00828
61.5 0.00633
61.55 0.00493
61.6 0.00577
61.65 0.00992
61.7 0.01555
61.75 0.01957
61.8 0.01925
61.85 0.01712
61.9 0.01725
61.95 0.01213
62 0.0031
62.05 -0.00524
62.1 -0.01042
62.15 -0.01556
62.2 -0.0169
62.25 -0.01836
62.3 -0.01659
62.35 -0.01773
62.4 -0.01505
62.45 -0.01658
62.5 -0.0149
62.55 -0.01429
62.6 -0.01541
62.65 -0.0106
62.7 -0.00913
62.75 -0.00931
62.8 -0.01086
62.85 -0.01053
62.9 -0.00871
62.95 -0.0092
63 -0.01298
63.05 -0.01555
63.1 -0.01367
63.15 -0.01005
63.2 -0.0091
63.25 -0.00347
63.3 -0.00422
63.35 -0.00418
63.4 -0.00829
63.45 -0.00964
63.5 -0.00516
63.55 -0.00143
63.6 0.0032
63.65 0.00584
63.7 0.0052
63.75 0.0075
63.8 0.01035
63.85 0.01194
63.9 0.01609
63.95 0.02068
64 0.02601
64.05 0.025
64.1 0.02136
64.15 0.0215
64.2 0.01844
64.25 0.01551
64.3 0.01122
64.35 0.01034
64.4 0.01202
64.45 0.00845
64.5 0.00885
64.55 0.00717
64.6 0.00573
64.65 0.00484
64.7 -0.0004
64.75 -0.0044
64.8 -0.004
64.85 -0.00556
64.9 -0.0019
64.95 0.00395
65 0.00602
65.05 0.00226
65.1 0.00131
65.15 -0.00311
65.2 -0.00945
65.25 -0.00987
65.3 -0.00661
65.35 -0.00603
65.4 -0.00975
65.45 -0.01612
65.5 -0.01716
65.55 -0.01891
65.6 -0.01602
65.65 -0.01532
65.7 -0.01838
65.75 -0.02211
65.8 -0.02247
65.85 -0.01817
65.9 -0.0165
65.95 -0.01694
66 -0.01965
66.05 -0.01765
66.1 -0.01913
66.15 -0.01522
66.2 -0.01179
66.25 -0.01124
66.3 -0.01408
66.35 -0.01839
66.4 -0.02254
66.45 -0.02151
66.5 -0.01751
66.55 -0.01206
66.6 -0.00309
66.65 0.00542
66.7 0.0096
66.75 0.00721
66.8 0.00723
66.85 0.00958
66.9 0.01228
66.95 0.01416
67 0.00966
67.05 0.0063
67.1 0.00577
67.15 0.00694
67.2 0.00533
67.25 0.00639
67.3 0.00525
67.35 0.00246
67.4 0.0046
67.45 0.00617
67.5 0.00215
67.55 0.00195
67.6 -0.00167
67.65 -0.00749
67.7 -0.00806
67.75 -0.00453
67.8 0.00196
67.85 0.00147
67.9 -0.00251
67.95 -0.00784
68 -0.01392
68.05 -0.02054
68.1 -0.02513
68.15 -0.02615
68.2 -0.02457
68.25 -0.02375
68.3 -0.02312
68.35 -0.02164
68.4 -0.01769
68.45 -0.01329
68.5 -0.00457
68.55 -0.00167
68.6 0.00056
68.65 0.00385
68.7 0.00802
68.75 0.00916
68.8 0.0055
68.85 -0.00152
68.9 -0.00682
68.95 -0.0091
69 -0.01213
69.05 -0.01395
69.1 -0.01713
69.15 -0.01681
69.2 -0.01096
69.25 -0.00403
69.3 0.00409
69.35 0.00618
69.4 0.00466
69.45 0.00075
69.5 -0.00533
69.55 -0.01198
69.6 -0.01231
69.65 -0.00805
69.7 -0.00164
69.75 0.00029
69.8 0.0014
69.85 -0.0002
69.9 -0.00303
69.95 -0.00418
70 -0.00824
70.05 -0.00839
70.1 -0.00547
70.15 -0.00082
70.2 0.00319
70.25 0.00135
70.3 0.00116
70.35 -0.00252
70.4 -0.00822
70.45 -0.01224
70.5 -0.01145
70.55 -0.01189
70.6 -0.01165
70.65 -0.01108
70.7 -0.00889
70.75 -0.00206
70.8 0.00081
70.85 0.00039
70.9 -0.00221
70.95 -0.00116
71 -0.00315
71.05 -0.00614
71.1 -0.00297
71.15 0.00094
71.2 0.00805
71.25 0.0081
71.3 0.00686
71.35 0.00378
71.4 0.00436
71.45 0.00388
71.5 -0.0001
71.55 -0.00592
71.6 -0.01008
71.65 -0.01125
71.7 -0.00957
71.75 -0.00487
71.8 -0.00181
71.85 0.00139
71.9 0.0052
71.95 0.00647
72 0.00943
72.05 0.008
72.1 0.01083
72.15 0.01137
72.2 0.00887
72.25 0.00998
72.3 0.01146
72.35 0.01316
72.4 0.01252
72.45 0.00886
72.5 0.00551
72.55 0.00193
72.6 0.00111
72.65 -0.0021
72.7 0.00018
72.75 0.00179
72.8 -0.00069
72.85 -0.006
72.9 -0.01227
72.95 -0.01801
73 -0.01832
73.05 -0.01762
73.1 -0.01338
73.15 -0.00571
73.2 0.00261
73.25 0.00847
73.3 0.00931
73.35 0.01256
73.4 0.01505
73.45 0.01767
73.5 0.01908
73.55 0.02302
73.6 0.02358
73.65 0.02018
73.7 0.01948
73.75 0.01938
73.8 0.02047
73.85 0.01995
73.9 0.01408
73.95 0.01229
74 0.01081
74.05 0.00762
74.1 0.0036
74.15 -0.00372
74.2 -0.00747
74.25 -0.01368
74.3 -0.01387
74.35 -0.01264
74.4 -0.01343
74.45 -0.01397
74.5 -0.01001
74.55 -0.00591
74.6 0.00088
74.65 0.0007
74.7 0.00411
74.75 0.00494
74.8 0.00134
74.85 0.0023
74.9 -0.0006
74.95 -0.0037
75 -0.004
75.05 -0.00668
75.1 -0.01041
75.15 -0.01294
75.2 -0.01635
75.25 -0.02019
75.3 -0.01654
75.35 -0.01714
75.4 -0.01987
75.45 -0.01596
75.5 -0.01513
75.55 -0.01186
75.6 -0.01237
75.65 -0.01177
75.7 -0.00632
75.75 -0.00639
75.8 -0.00235
75.85 -0.00117
75.9 -0.00095
75.95 0.00275
76 0.00127
76.05 0.00208
76.1 0.00325
76.15 0.00307
76.2 -0.00061
76.25 -0.00053
76.3 -0.00444
76.35 -0.01064
76.4 -0.0093
76.45 -0.01038
76.5 -0.01013
76.55 -0.00898
76.6 -0.00721
76.65 -0.00621
76.7 -0.00345
76.75 0.00106
76.8 0.00136
76.85 0.00421
76.9 0.00679
76.95 0.00706
77 0.00486
77.05 0.00726
77.1 0.00628
77.15 0.00852
77.2 0.00921
77.25 0.00626
77.3 0.00312
77.35 0.00359
77.4 0.00746
77.45 0.00633
77.5 0.00598
77.55 0.00477
77.6 0.00733
77.65 0.00572
77.7 0.00727
77.75 0.00535
77.8 0.0045
77.85 0.00288
77.9 0.0013
77.95 -0.00039
78 0.00161
78.05 0.00755
78.1 0.01311
78.15 0.01534
78.2 0.01843
78.25 0.02306
78.3 0.02707
78.35 0.03177
78.4 0.0316
78.45 0.02887
78.5 0.02634
78.55 0.0258
78.6 0.02734
78.65 0.02658
78.7 0.02481
78.75 0.02398
78.8 0.02493
78.85 0.02529
78.9 0.02557
78.95 0.02265
79 0.01474
79.05 0.00741
79.1 -0.00237
79.15 -0.00624
79.2 -0.00516
79.25 -0.00619
79.3 -0.00809
79.35 -0.00453
79.4 -0.00677
79.45 -0.00962
79.5 -0.0105
79.55 -0.00643
79.6 -0.00795
79.65 -0.0041
79.7 0.00147
79.75 0.0002
79.8 0.00368
79.85 0.00543
79.9 0.0027
79.95 -0.0022
80 -0.00266
80.05 -0.00379
80.1 -0.00625
80.15 -0.00344
80.2 -0.00077
80.25 0.0006
80.3 -0.00071
80.35 -0.00092
80.4 0.00302
80.45 0.00826
80.5 0.00965
80.55 0.00678
80.6 0.00643
80.65 0.00156
80.7 0.00172
80.75 0.0059
80.8 0.00711
80.85 0.00545
80.9 0.00077
80.95 0.00029
81 0.00318
81.05 0.00334
81.1 0.00376
81.15 0.00398
81.2 0.00017
81.25 -0.00199
81.3 -0.00553
81.35 -0.01098
81.4 -0.0112
81.45 -0.00758
81.5 -0.00485
81.55 -0.00429
81.6 -0.00188
81.65 0.00075
81.7 -0.00056
81.75 -0.00605
81.8 -0.00983
81.85 -0.00951
81.9 -0.00914
81.95 -0.00742
82 -0.00561
82.05 -0.00729
82.1 -0.00426
82.15 -0.00124
82.2 -0.00233
82.25 0.00126
82.3 0.00782
82.35 0.00666
82.4 0.00371
82.45 0.00268
82.5 0.00413
82.55 0.00253
82.6 0.00306
82.65 0.00408
82.7 0.00449
82.75 0.00801
82.8 0.00884
82.85 0.01205
82.9 0.0158
82.95 0.02089
83 0.02569
83.05 0.02186
83.1 0.0151
83.15 0.01377
83.2 0.0081
83.25 -0.00042
83.3 -0.00469
83.35 -0.01041
83.4 -0.01369
83.45 -0.01058
83.5 -0.00504
83.55 -0.00555
83.6 -0.01003
83.65 -0.01111
83.7 -0.01293
83.75 -0.00874
83.8 -0.00982
83.85 -0.00904
83.9 -0.00438
83.95 -0.00485
84 -0.00723
84.05 -0.00404
84.1 -0.00241
84.15 0.00129
84.2 0.00597
84.25 0.01227
84.3 0.01112
84.35 0.01002
84.4 0.01125
84.45 0.01506
84.5 0.01271
84.55 0.00616
84.6 -0.00279
84.65 -0.01206
84.7 -0.01377
84.75 -0.01389
84.8 -0.01168
84.85 -0.00997
84.9 -0.00826
84.95 -0.0091
85 -0.00643
85.05 -0.00125
85.1 0.00177
85.15 -0.00089
85.2 0.00054
85.25 -0.00017
85.3 -0.00086
85.35 -0.00103
85.4 0.00297
85.45 0.00487
85.5 0.00874
85.55 0.01163
85.6 0.01213
85.65 0.0066
85.7 -0.00074
85.75 -0.00852
85.8 -0.01676
85.85 -0.02471
85.9 -0.03115
85.95 -0.03083
86 -0.025
86.05 -0.01495
86.1 -0.0031
86.15 0.00024
86.2 0.00019
86.25 0.00372
86.3 0.00539
86.35 0.00576
86.4 0.00824
86.45 0.00822
86.5 0.00796
86.55 0.00318
86.6 -0.00449
86.65 -0.009
86.7 -0.00823
86.75 -0.00542
86.8 -0.00752
86.85 -0.00759
86.9 -0.00435
86.95 -0.00422
87 -0.0052
87.05 -0.00596
87.1 -0.00918
87.15 -0.01444
87.2 -0.02097
87.25 -0.02577
87.3 -0.02658
87.35 -0.02298
87.4 -0.01918
87.45 -0.01169
87.5 -0.00653
87.55 -0.00012
87.6 -0.0001
87.65 -0.00422
87.7 -0.00882
87.75 -0.00736
87.8 -0.00847
87.85 -0.00445
87.9 0.00225
87.95 0.00472
88 0.00899
88.05 0.00682
88.1 0.002
88.15 -0.00454
88.2 -0.00988
88.25 -0.0114
88.3 -0.00839
88.35 -0.0047
88.4 -0.00372
88.45 0.00181
88.5 0.00932
88.55 0.01215
88.6 0.01398
88.65 0.01269
88.7 0.01238
88.75 0.00834
88.8 0.00778
88.85 0.00246
88.9 0.00174
88.95 -0.00216
89 -0.00015
89.05 0.00334
89.1 0.00339
89.15 0.00475
89.2 0.00578
89.25 0.00162
89.3 0.00081
89.35 -0.00119
89.4 0.00195
89.45 0.0068
89.5 0.01146
89.55 0.0096
89.6 0.00707
89.65 0.00526
89.7 -0.00027
89.75 -0.00725
89.8 -0.01435
89.85 -0.01992
89.9 -0.02185
89.95 -0.02064
90 -0.02171
90.05 -0.02352
90.1 -0.0257
90.15 -0.02155
90.2 -0.01851
90.25 -0.0194
90.3 -0.0171
90.35 -0.01257
90.4 -0.01197
90.45 -0.00634
90.5 -0.00034
90.55 0.00139
90.6 0.00409
90.65 0.00487
90.7 0.00884
90.75 0.00674
90.8 0.00859
90.85 0.01148
90.9 0.01478
90.95 0.02008
91 0.01845
91.05 0.01973
91.1 0.02265
91.15 0.02468
91.2 0.02009
91.25 0.01311
91.3 0.0072
91.35 0.0004
91.4 -0.00106
91.45 -0.00145
91.5 0.00045
91.55 0.00138
91.6 -0.00031
91.65 -0.00151
91.7 -0.00056
91.75 -0.00085
91.8 -0.00486
91.85 -0.00819
91.9 -0.00756
91.95 -0.00432
92 -0.00104
92.05 -0.00067
92.1 0.00187
92.15 0.00237
92.2 0.00198
92.25 0.00565
92.3 0.00789
92.35 0.01217
92.4 0.01835
92.45 0.01871
92.5 0.01532
92.55 0.01231
92.6 0.01295
92.65 0.01557
92.7 0.01314
92.75 0.00881
92.8 0.0025
92.85 0.00018
92.9 -0.00313
92.95 -0.00723
93 -0.00599
93.05 -0.00887
93.1 -0.01308
93.15 -0.01435
93.2 -0.01383
93.25 -0.00804
93.3 -0.00612
93.35 -0.00524
93.4 -0.00791
93.45 -0.0049
93.5 -0.00315
93.55 -0.00339
93.6 -0.00796
93.65 -0.01373
93.7 -0.01585
93.75 -0.01594
93.8 -0.01703
93.85 -0.01237
93.9 -0.00981
93.95 -0.00984
94 -0.00752
94.05 -0.00303
94.1 -0.00282
94.15 0.00191
94.2 0.0061
94.25 0.01236
94.3 0.01462
94.35 0.01853
94.4 0.01484
94.45 0.00998
94.5 0.00218
94.55 -0.00503
94.6 -0.00493
94.65 -0.00183
94.7 0.00119
94.75 0.00523
94.8 0.00792
94.85 0.01098
94.9 0.00888
94.95 0.00606
95 0.00423
95.05 0.00238
95.1 0.00166
95.15 -0.00187
95.2 -0.00308
95.25 -0.00772
95.3 -0.0072
95.35 -0.00968
95.4 -0.01114
95.45 -0.00664
95.5 -0.00747
95.55 -0.00866
95.6 -0.01306
95.65 -0.01873
95.7 -0.01905
95.75 -0.02199
95.8 -0.02122
95.85 -0.02237
95.9 -0.02284
95.95 -0.02487
96 -0.02672
96.05 -0.02091
96.1 -0.01633
96.15 -0.01403
96.2 -0.00779
96.25 -0.00587
96.3 -0.00581
96.35 -0.00525
96.4 -0.007
96.45 -0.00894
96.5 -0.01038
96.55 -0.00892
96.6 -0.00469
96.65 0.00208
96.7 0.00215
96.75 0.00188
96.8 0.00348
96.85 0.0077
96.9 0.01368
96.95 0.01229
97 0.0106
97.05 0.00942
97.1 0.00526
97.15 -0.00156
97.2 -0.0061
97.25 -0.01111
97.3 -0.01551
97.35 -0.01403
97.4 -0.00889
97.45 -0.00217
97.5 -0.00035
97.55 0.00052
97.6 -0.00082
97.65 0.00204
97.7 0.00136
97.75 -0.00095
97.8 0.0004
97.85 0.00238
97.9 0.00701
97.95 0.00989
98 0.0138
98.05 0.01664
98.1 0.02007
98.15 0.02338
98.2 0.02652
98.25 0.02519
98.3 0.02602
98.35 0.02322
98.4 0.01704
98.45 0.0146
98.5 0.01174
98.55 0.01029
98.6 0.01269
98.65 0.01579
98.7 0.01587
98.75 0.01172
98.8 0.00779
98.85 0.00398
98.9 0.00125
98.95 0.00387
99 0.00468
99.05 0.0034
99.1 0.00237
99.15 0.00301
99.2 0.00576
99.25 0.01011
99.3 0.00935
99.35 0.00967
99.4 0.0117
99.45 0.01499
99.5 0.01285
99.55 0.00813
99.6 -0.00037
99.65 -0.00226
99.7 -0.00658
99.75 -0.01095
99.8 -0.01245
99.85 -0.0081
99.9 -0.00225
99.95 -0.00003
