0 0
0.05 0.00496
0.1 0.01046
0.15 0.01839
0.2 0.02665
0.25 0.03436
0.3 0.03823
0.35 0.04187
0.4 0.04157
0.45 0.04219
0.5 0.04208
0.55 0.04079
0.6 0.03925
0.65 0.0365
0.7 0.03363
0.75 0.0312
0.8 0.03383
0.85 0.03745
0.9 0.04244
0.95 0.04466
1 0.04556
1.05 0.04957
1.1 0.05242
1.15 0.05177
1.2 0.05419
1.25 0.05912
1.3 0.06504
1.35 0.06556
1.4 0.05919
1.45 0.0495
1.5 0.04459
1.55 0.04245
1.6 0.04409
1.65 0.04856
1.7 0.05434
1.75 0.06032
1.8 0.06512
1.85 0.06152
1.9 0.05267
1.95 0.04904
2 0.0475
2.05 0.04316
2.1 0.04368
2.15 0.04005
2.2 0.04125
2.25 0.04067
2.3 0.03707
2.35 0.02998
2.4 0.02622
2.45 0.02751
2.5 0.03201
2.55 0.02985
2.6 0.02657
2.65 0.02069
2.7 0.01256
2.75 0.00856
2.8 0.01174
2.85 0.01263
2.9 0.01428
2.95 0.01614
3 0.01318
3.05 0.01364
3.1 0.01579
3.15 0.01407
3.2 0.00918
3.25 0.00659
3.3 0.00688
3.35 0.01236
3.4 0.01274
3.45 0.01647
3.5 0.01892
3.55 0.0167
3.6 0.01527
3.65 0.01315
3.7 0.00794
3.75 0.00483
3.8 0.00543
3.85 0.00963
3.9 0.01007
3.95 0.01346
4 0.01991
4.05 0.02304
4.1 0.02839
4.15 0.02849
4.2 0.02887
4.25 0.0311
4.3 0.03117
4.35 0.03109
4.4 0.03066
4.45 0.02726
4.5 0.01618
4.55 0.00491
4.6 -0.00699
4.65 -0.02385
4.7 -0.04695
4.75 -0.07667
4.8 -0.10446
4.85 -0.13234
4.9 -0.15976
4.95 -0.19157
5 -0.23323
5.05 -0.28451
5.1 -0.33941
5.15 -0.39692
5.2 -0.45689
5.25 -0.52675
5.3 -0.60373
5.35 -0.68358
5.4 -0.76696
5.45 -0.84906
5.5 -0.93677
5.55 -1.02518
5.6 -1.11577
5.65 -1.2123
5.7 -1.30531
5.75 -1.39538
5.8 -1.48544
5.85 -1.57567
5.9 -1.66276
5.95 -1.74165
6 -1.81926
6.05 -1.89095
6.1 -1.96327
6.15 -2.02899
6.2 -2.09054
6.25 -2.1469
6.3 -2.20007
6.35 -2.24246
6.4 -2.28005
6.45 -2.3081
6.5 -2.32756
6.55 -2.33438
6.6 -2.33638
6.65 -2.33003
6.7 -2.30731
6.75 -2.27087
6.8 -2.21752
6.85 -2.14678
6.9 -2.06384
6.95 -1.96434
7 -1.84943
7.05 -1.72065
7.1 -1.58117
7.15 -1.43692
7.2 -1.28563
7.25 -1.12374
7.3 -0.94852
7.35 -0.76648
7.4 -0.57733
7.45 -0.38059
7.5 -0.18753
7.55 0.00079
7.6 0.18628
7.65 0.37227
7.7 0.55026
7.75 0.71912
7.8 0.87986
7.85 1.02824
7.9 1.16718
7.95 1.3001
8 1.42083
8.05 1.52945
8.1 1.62742
8.15 1.71597
8.2 1.78633
8.25 1.84696
8.3 1.89203
8.35 1.9285
8.4 1.95457
8.45 1.97795
8.5 1.99665
8.55 2.00663
8.6 2.014
8.65 2.01895
8.7 2.0222
8.75 2.01794
8.8 2.00608
8.85 1.99201
8.9 1.97723
8.95 1.95935
9 1.94584
9.05 1.93427
9.1 1.92325
9.15 1.91196
9.2 1.90211
9.25 1.89158
9.3 1.87989
9.35 1.85824
9.4 1.83322
9.45 1.81032
9.5 1.78317
9.55 1.75326
9.6 1.72144
9.65 1.69036
9.7 1.66348
9.75 1.63408
9.8 1.60732
9.85 1.58396
9.9 1.55895
9.95 1.53635
10 1.51434
10.05 1.48518
10.1 1.45103
10.15 1.41987
10.2 1.38911
10.25 1.35511
10.3 1.3166
10.35 1.28063
10.4 1.24376
10.45 1.20766
10.5 1.16867
10.55 1.12779
10.6 1.08135
10.65 1.03277
10.7 0.98118
10.75 0.92796
10.8 0.87816
10.85 0.83261
10.9 0.78788
10.95 0.74557
11 0.70716
11.05 0.66523
11.1 0.62248
11.15 0.5827
11.2 0.54825
11.25 0.5165
11.3 0.48656
11.35 0.45257
11.4 0.41455
11.45 0.37778
11.5 0.33995
11.55 0.30123
11.6 0.26261
11.65 0.22659
11.7 0.19065
11.75 0.16096
11.8 0.13555
11.85 0.10855
11.9 0.08284
11.95 0.05239
12 0.02785
12.05 -0.00039
12.1 -0.02513
12.15 -0.05188
12.2 -0.07907
12.25 -0.1015
12.3 -0.12685
12.35 -0.14657
12.4 -0.16165
12.45 -0.17416
12.5 -0.18733
12.55 -0.20209
12.6 -0.21266
12.65 -0.22772
12.7 -0.24331
12.75 -0.2603
12.8 -0.27176
12.85 -0.28574
12.9 -0.29302
12.95 -0.30239
13 -0.30806
13.05 -0.31505
13.1 -0.32287
13.15 -0.32833
13.2 -0.33355
13.25 -0.33319
13.3 -0.32934
13.35 -0.33003
13.4 -0.33411
13.45 -0.33759
13.5 -0.34348
13.55 -0.34697
13.6 -0.34891
13.65 -0.35209
13.7 -0.35294
13.75 -0.35272
13.8 -0.35174
13.85 -0.35469
13.9 -0.3517
13.95 -0.34539
14 -0.34189
14.05 -0.33808
14.1 -0.3381
14.15 -0.33645
14.2 -0.33512
14.25 -0.33638
14.3 -0.33184
14.35 -0.33157
14.4 -0.33267
14.45 -0.33037
14.5 -0.32342
14.55 -0.31985
14.6 -0.31774
14.65 -0.31085
14.7 -0.30154
14.75 -0.29741
14.8 -0.29378
14.85 -0.28872
14.9 -0.28169
14.95 -0.27976
15 -0.2813
15.05 -0.27605
15.1 -0.2685
15.15 -0.26393
15.2 -0.25536
15.25 -0.25272
15.3 -0.2476
15.35 -0.24449
15.4 -0.2413
15.45 -0.24167
15.5 -0.24108
15.55 -0.24009
15.6 -0.23969
15.65 -0.23794
15.7 -0.2377
15.75 -0.23985
15.8 -0.23955
15.85 -0.23896
15.9 -0.23858
15.95 -0.23811
16 -0.23132
16.05 -0.22769
16.1 -0.21906
16.15 -0.21516
16.2 -0.2077
16.25 -0.19851
16.3 -0.18977
16.35 -0.1792
16.4 -0.16765
16.45 -0.16189
16.5 -0.1569
16.55 -0.15506
16.6 -0.15677
16.65 -0.15822
16.7 -0.15587
16.75 -0.15245
16.8 -0.14813
16.85 -0.14337
16.9 -0.14373
16.95 -0.14622
17 -0.15093
17.05 -0.15086
17.1 -0.15366
17.15 -0.15286
17.2 -0.15279
17.25 -0.15102
17.3 -0.14768
17.35 -0.14327
17.4 -0.13468
17.45 -0.13203
17.5 -0.12875
17.55 -0.12177
17.6 -0.12098
17.65 -0.12163
17.7 -0.11866
17.75 -0.12054
17.8 -0.12442
17.85 -0.12804
17.9 -0.12641
17.95 -0.12499
18 -0.12452
18.05 -0.12366
18.1 -0.1209
18.15 -0.11362
18.2 -0.10929
18.25 -0.10742
18.3 -0.10928
18.35 -0.10832
18.4 -0.10961
18.45 -0.1129
18.5 -0.11382
18.55 -0.1151
18.6 -0.11341
18.65 -0.11189
18.7 -0.10515
18.75 -0.09488
18.8 -0.08479
18.85 -0.07299
18.9 -0.06978
18.95 -0.07108
19 -0.06807
19.05 -0.07072
19.1 -0.07272
19.15 -0.07309
19.2 -0.06862
19.25 -0.06347
19.3 -0.05706
19.35 -0.05602
19.4 -0.05513
19.45 -0.05538
19.5 -0.05369
19.55 -0.05027
19.6 -0.04523
19.65 -0.04049
19.7 -0.03857
19.75 -0.03759
19.8 -0.03547
19.85 -0.04051
19.9 -0.04212
19.95 -0.04508
20 -0.0519
20.05 -0.05182
20.1 -0.04847
20.15 -0.04597
20.2 -0.04945
20.25 -0.05042
20.3 -0.05308
20.35 -0.05298
20.4 -0.04997
20.45 -0.04827
20.5 -0.04409
20.55 -0.04276
20.6 -0.04012
20.65 -0.04142
20.7 -0.03875
20.75 -0.04017
20.8 -0.04469
20.85 -0.04389
20.9 -0.03991
20.95 -0.03669
21 -0.03228
21.05 -0.03112
21.1 -0.02672
21.15 -0.02514
21.2 -0.02123
21.25 -0.02414
21.3 -0.02863
21.35 -0.03353
21.4 -0.04162
21.45 -0.04573
21.5 -0.0451
21.55 -0.04748
21.6 -0.04674
21.65 -0.04192
21.7 -0.04208
21.75 -0.04309
21.8 -0.04537
21.85 -0.04156
21.9 -0.04014
21.95 -0.04313
22 -0.04526
22.05 -0.04377
22.1 -0.03965
22.15 -0.04049
22.2 -0.03801
22.25 -0.03747
22.3 -0.0317
22.35 -0.02501
22.4 -0.02186
22.45 -0.01959
22.5 -0.0214
22.55 -0.02292
22.6 -0.02544
22.65 -0.03067
22.7 -0.03026
22.75 -0.02614
22.8 -0.02179
22.85 -0.01768
22.9 -0.01149
22.95 -0.00859
23 -0.00909
23.05 -0.01315
23.1 -0.01665
23.15 -0.02196
23.2 -0.02858
23.25 -0.02999
23.3 -0.02666
23.35 -0.0232
23.4 -0.01792
23.45 -0.01743
23.5 -0.02088
23.55 -0.02103
23.6 -0.02238
23.65 -0.01858
23.7 -0.01167
23.75 -0.01145
23.8 -0.0121
23.85 -0.00847
23.9 -0.01099
23.95 -0.01246
24 -0.01748
24.05 -0.01694
24.1 -0.01328
24.15 -0.01104
24.2 -0.00939
24.25 -0.00978
24.3 -0.00909
24.35 -0.01075
24.4 -0.01268
24.45 -0.00989
24.5 -0.01226
24.55 -0.01054
24.6 -0.01445
24.65 -0.01258
24.7 -0.01135
24.75 -0.01229
24.8 -0.01482
24.85 -0.01786
24.9 -0.02257
24.95 -0.02627
25 -0.02308
25.05 -0.0178
25.1 -0.01288
25.15 -0.00913
25.2 -0.00993
25.25 -0.0064
25.3 -0.00564
25.35 -0.01007
25.4 -0.012
25.45 -0.0154
25.5 -0.01725
25.55 -0.01792
25.6 -0.02066
25.65 -0.01921
25.7 -0.01565
25.75 -0.01324
25.8 -0.01102
25.85 -0.00718
25.9 -0.00398
25.95 -0.00489
26 -0.01035
26.05 -0.01185
26.1 -0.01605
26.15 -0.01738
26.2 -0.01488
26.25 -0.0147
26.3 -0.01146
26.35 -0.01355
26.4 -0.01185
26.45 -0.0138
26.5 -0.01036
26.55 -0.01259
26.6 -0.01618
26.65 -0.01632
26.7 -0.01967
26.75 -0.01662
26.8 -0.01199
26.85 -0.01009
26.9 -0.00939
26.95 -0.01305
27 -0.01311
27.05 -0.01198
27.1 -0.01031
27.15 -0.00955
27.2 -0.01153
27.25 -0.01249
27.3 -0.01601
27.35 -0.01654
27.4 -0.0172
27.45 -0.01909
27.5 -0.01509
27.55 -0.008
27.6 -0.00051
27.65 0.00254
27.7 0.00433
27.75 0.0089
27.8 0.01504
27.85 0.02146
27.9 0.0271
27.95 0.02868
28 0.02955
28.05 0.02752
28.1 0.02216
28.15 0.01376
28.2 0.00247
28.25 -0.00766
28.3 -0.01212
28.35 -0.01563
28.4 -0.0222
28.45 -0.03093
28.5 -0.03418
28.55 -0.03236
28.6 -0.03251
28.65 -0.03508
28.7 -0.03727
28.75 -0.03748
28.8 -0.03762
28.85 -0.03721
28.9 -0.03746
28.95 -0.04496
29 -0.05212
29.05 -0.05634
29.1 -0.06427
29.15 -0.0776
29.2 -0.08949
29.25 -0.09778
29.3 -0.10889
29.35 -0.11644
29.4 -0.13007
29.45 -0.14619
29.5 -0.16352
29.55 -0.17906
29.6 -0.19404
29.65 -0.20553
29.7 -0.2172
29.75 -0.22968
29.8 -0.24086
29.85 -0.24865
29.9 -0.25675
29.95 -0.26613
30 -0.27587
30.05 -0.28269
30.1 -0.28316
30.15 -0.28005
30.2 -0.2822
30.25 -0.2812
30.3 -0.28185
30.35 -0.28227
30.4 -0.27686
30.45 -0.26487
30.5 -0.25181
30.55 -0.23455
30.6 -0.22068
30.65 -0.20535
30.7 -0.18431
30.75 -0.16258
30.8 -0.14181
30.85 -0.12011
30.9 -0.10103
30.95 -0.08042
31 -0.0564
31.05 -0.03705
31.1 -0.01674
31.15 0.00334
31.2 0.01999
31.25 0.04001
31.3 0.05566
31.35 0.06803
31.4 0.08487
31.45 0.09897
31.5 0.11044
31.55 0.12805
31.6 0.14314
31.65 0.15718
31.7 0.1715
31.75 0.187
31.8 0.19646
31.85 0.20478
31.9 0.21026
31.95 0.22024
32 0.23029
32.05 0.233
32.1 0.23114
32.15 0.23102
32.2 0.22905
32.25 0.22444
32.3 0.22644
32.35 0.22844
32.4 0.22686
32.45 0.22955
32.5 0.23209
32.55 0.22925
32.6 0.22918
32.65 0.2274
32.7 0.22779
32.75 0.23029
32.8 0.2283
32.85 0.22584
32.9 0.22579
32.95 0.22627
33 0.22421
33.05 0.21666
33.1 0.2049
33.15 0.19323
33.2 0.18288
33.25 0.17473
33.3 0.16802
33.35 0.16416
33.4 0.16103
33.45 0.16024
33.5 0.15996
33.55 0.15445
33.6 0.14385
33.65 0.13122
33.7 0.11888
33.75 0.11254
33.8 0.10741
33.85 0.10003
33.9 0.09793
33.95 0.09732
34 0.09119
34.05 0.08926
34.1 0.08888
34.15 0.08658
34.2 0.08153
34.25 0.08098
34.3 0.07443
34.35 0.06438
34.4 0.05297
34.45 0.04769
34.5 0.04739
34.55 0.04713
34.6 0.04194
34.65 0.03517
34.7 0.03461
34.75 0.03357
34.8 0.03645
34.85 0.04016
34.9 0.0387
34.95 0.03682
35 0.03698
35.05 0.03408
35.1 0.0326
35.15 0.02971
35.2 0.0268
35.25 0.02463
35.3 0.02504
35.35 0.02524
35.4 0.02615
35.45 0.02219
35.5 0.01629
35.55 0.01403
35.6 0.00788
35.65 0.00599
35.7 0.0043
35.75 -0.00079
35.8 -0.00856
35.85 -0.01529
35.9 -0.01717
35.95 -0.01617
36 -0.01501
36.05 -0.01119
36.1 -0.00855
36.15 -0.01095
36.2 -0.0171
36.25 -0.02673
36.3 -0.0296
36.35 -0.03559
36.4 -0.04026
36.45 -0.04147
36.5 -0.03996
36.55 -0.03537
36.6 -0.0286
36.65 -0.02066
36.7 -0.015
36.75 -0.0129
36.8 -0.0098
36.85 -0.00664
36.9 -0.00275
36.95 -0.00153
37 -0.00034
37.05 -0.00501
37.1 -0.00923
37.15 -0.00978
37.2 -0.01467
37.25 -0.02173
37.3 -0.02312
37.35 -0.02157
37.4 -0.02635
37.45 -0.03294
37.5 -0.03554
37.55 -0.03423
37.6 -0.03389
37.65 -0.03023
37.7 -0.02677
37.75 -0.02166
37.8 -0.01689
37.85 -0.01531
37.9 -0.01307
37.95 -0.01571
38 -0.02167
38.05 -0.02657
38.1 -0.03447
38.15 -0.03538
38.2 -0.03517
38.25 -0.03292
38.3 -0.0327
38.35 -0.03375
38.4 -0.03189
38.45 -0.0349
38.5 -0.03481
38.55 -0.03779
38.6 -0.04374
38.65 -0.05045
38.7 -0.0547
38.75 -0.06009
38.8 -0.0625
38.85 -0.06257
38.9 -0.05653
38.95 -0.04995
39 -0.04846
39.05 -0.04571
39.1 -0.03831
39.15 -0.03154
39.2 -0.0227
39.25 -0.01603
39.3 -0.00937
39.35 -0.01059
39.4 -0.01559
39.45 -0.02327
39.5 -0.02635
39.55 -0.03151
39.6 -0.0314
39.65 -0.03395
39.7 -0.03383
39.75 -0.02935
39.8 -0.02778
39.85 -0.02437
39.9 -0.01907
39.95 -0.02004
40 -0.01911
40.05 -0.01756
40.1 -0.01772
40.15 -0.01977
40.2 -0.01708
40.25 -0.01808
40.3 -0.01448
40.35 -0.0143
40.4 -0.01246
40.45 -0.01451
40.5 -0.01489
40.55 -0.01831
40.6 -0.02305
40.65 -0.02269
40.7 -0.0205
40.75 -0.02248
40.8 -0.02079
40.85 -0.01971
40.9 -0.01702
40.95 -0.01552
41 -0.01343
41.05 -0.0165
41.1 -0.02089
41.15 -0.02594
41.2 -0.03278
41.25 -0.03834
41.3 -0.04066
41.35 -0.03994
41.4 -0.04107
41.45 -0.03593
41.5 -0.03427
41.55 -0.02973
41.6 -0.02307
41.65 -0.01757
41.7 -0.01774
41.75 -0.02029
41.8 -0.01844
41.85 -0.01417
41.9 -0.01277
41.95 -0.01607
42 -0.0182
42.05 -0.0207
42.1 -0.02493
42.15 -0.02194
42.2 -0.01801
42.25 -0.01598
42.3 -0.00994
42.35 -0.00895
42.4 -0.01067
42.45 -0.00962
42.5 -0.00481
42.55 -0.00257
42.6 0.00218
42.65 0.00734
42.7 0.00602
42.75 0.00648
42.8 0.00942
42.85 0.01366
42.9 0.01659
42.95 0.01892
43 0.01588
43.05 0.00913
43.1 0.00032
43.15 -0.00492
43.2 -0.00744
43.25 -0.00602
43.3 -0.00575
43.35 -0.00518
43.4 -0.00818
43.45 -0.00572
43.5 -0.00777
43.55 -0.00817
43.6 -0.01193
43.65 -0.01429
43.7 -0.01224
43.75 -0.00892
43.8 -0.00245
43.85 -0.00004
43.9 0.00191
43.95 0.0067
44 0.0067
44.05 0.00475
44.1 -0.00158
44.15 -0.0101
44.2 -0.01582
44.25 -0.02278
44.3 -0.02645
44.35 -0.02265
44.4 -0.02259
44.45 -0.02051
44.5 -0.01695
44.55 -0.0103
44.6 -0.00101
44.65 0.00535
44.7 0.00545
44.75 0.00484
44.8 0.00112
44.85 0.00234
44.9 0.00318
44.95 -0.00082
45 -0.0077
45.05 -0.01396
45.1 -0.02093
45.15 -0.02084
45.2 -0.02132
45.25 -0.02284
45.3 -0.02012
45.35 -0.01528
45.4 -0.01263
45.45 -0.00807
45.5 -0.00303
45.55 0.00189
45.6 0.00117
45.65 0.0007
45.7 -0.00109
45.75 0.00211
45.8 -0.00016
45.85 -0.00477
45.9 -0.01195
45.95 -0.01529
46 -0.01564
46.05 -0.01498
46.1 -0.0149
46.15 -0.01296
46.2 -0.01213
46.25 -0.01387
46.3 -0.01344
46.35 -0.01071
46.4 -0.00434
46.45 -0.00155
46.5 -0.00401
46.55 -0.00677
46.6 -0.01125
46.65 -0.01573
46.7 -0.02156
46.75 -0.01883
46.8 -0.01362
46.85 -0.01232
46.9 -0.01466
46.95 -0.01084
47 -0.0063
47.05 0.00098
47.1 0.00852
47.15 0.01311
47.2 0.01789
47.25 0.01564
47.3 0.00875
47.35 0.00045
47.4 -0.00085
47.45 0.00301
47.5 0.00565
47.55 0.00584
47.6 0.00785
47.65 0.01307
47.7 0.01889
47.75 0.01693
47.8 0.01351
47.85 0.01255
47.9 0.00727
47.95 0.003
48 0.00221
48.05 0.00135
48.1 0.00489
48.15 0.0061
48.2 0.00355
48.25 0.00513
48.3 0.00482
48.35 0.00119
48.4 -0.00589
48.45 -0.00756
48.5 -0.00916
48.55 -0.01195
48.6 -0.01532
48.65 -0.02009
48.7 -0.02544
48.75 -0.02212
48.8 -0.01975
48.85 -0.01391
48.9 -0.00762
48.95 -0.00724
49 -0.00686
49.05 -0.00427
49.1 -0.00261
49.15 0.00101
49.2 0.00592
49.25 0.01272
49.3 0.01698
49.35 0.02051
49.4 0.0238
49.45 0.02607
49.5 0.02513
49.55 0.0226
49.6 0.01598
49.65 0.00625
49.7 -0.005
49.75 -0.00901
49.8 -0.01549
49.85 -0.0194
49.9 -0.02468
49.95 -0.02984
50 -0.02859
50.05 -0.02685
50.1 -0.02691
50.15 -0.02066
50.2 -0.0164
50.25 -0.01181
50.3 -0.01237
50.35 -0.0145
50.4 -0.01156
50.45 -0.00556
50.5 0.0016
50.55 0.01066
50.6 0.01946
50.65 0.01926
50.7 0.01646
50.75 0.01275
50.8 0.00532
50.85 -0.0025
50.9 -0.00926
50.95 -0.01269
51 -0.01576
51.05 -0.01192
51.1 -0.00661
51.15 -0.00246
51.2 0.00403
51.25 0.00594
51.3 0.00914
51.35 0.00667
51.4 0.00223
51.45 0.00197
51.5 0.00612
51.55 0.01106
51.6 0.01177
51.65 0.00952
51.7 0.003
51.75 -0.00051
51.8 -0.00627
51.85 -0.01104
51.9 -0.00943
51.95 -0.00577
52 0.00173
52.05 0.01023
52.1 0.01083
52.15 0.01324
52.2 0.00912
52.25 0.00941
52.3 0.01033
52.35 0.00887
52.4 0.00293
52.45 -0.00039
52.5 -0.00392
52.55 -0.00907
52.6 -0.00872
52.65 -0.01133
52.7 -0.01553
52.75 -0.01559
52.8 -0.01104
52.85 -0.00548
52.9 -0.00508
52.95 -0.00424
53 -0.00048
53.05 -0.00173
53.1 0.00083
53.15 -0.00201
53.2 -0.00099
53.25 0.00106
53.3 -0.00136
53.35 -0.00574
53.4 -0.0096
53.45 -0.01508
53.5 -0.01936
53.55 -0.02018
53.6 -0.01446
53.65 -0.00847
53.7 -0.00608
53.75 -0.00168
53.8 0.00369
53.85 0.00987
53.9 0.01117
53.95 0.01053
54 0.00748
54.05 0.00878
54.1 0.00832
54.15 0.004
54.2 0.00274
54.25 -0.0013
54.3 -0.002
54.35 -0.00472
54.4 -0.00354
54.45 0.00202
54.5 0.00343
54.55 0.00242
54.6 0.00006
54.65 0.00052
54.7 -0.0017
54.75 -0.0029
54.8 -0.00733
54.85 -0.0083
54.9 -0.00592
54.95 -0.00558
55 -0.00796
55.05 -0.01048
55.1 -0.00904
55.15 -0.00937
55.2 -0.01183
55.25 -0.00904
55.3 -0.00435
55.35 -0.00098
55.4 0.00193
55.45 0.00012
55.5 0.0029
55.55 0.00338
55.6 0.00613
55.65 0.00683
55.7 0.00261
55.75 -0.00108
55.8 0.00153
55.85 0.00023
55.9 -0.0038
55.95 -0.0053
56 -0.0049
56.05 -0.00632
56.1 -0.00428
56.15 -0.00195
56.2 0.00379
56.25 0.01068
56.3 0.0136
56.35 0.01569
56.4 0.01343
56.45 0.01437
56.5 0.0099
56.55 0.00969
56.6 0.00698
56.65 0.00622
56.7 0.00904
56.75 0.01171
56.8 0.01271
56.85 0.01446
56.9 0.01069
56.95 0.00895
57 0.00912
57.05 0.01286
57.1 0.01103
57.15 0.0062
57.2 0.0014
57.25 -0.00263
57.3 -0.004
57.35 -0.00307
57.4 -0.00349
57.45 -0.00515
57.5 -0.00247
57.55 0.00385
57.6 0.00671
57.65 0.00728
57.7 0.00757
57.75 0.00296
57.8 -0.00316
57.85 -0.00579
57.9 -0.00813
57.95 -0.00966
58 -0.00982
58.05 -0.00906
58.1 -0.00661
58.15 -0.00221
58.2 -0.00149
58.25 0.00031
58.3 0.00457
58.35 0.00473
58.4 0.00079
58.45 -0.00052
58.5 -0.00301
58.55 -0.00511
58.6 -0.00144
58.65 -0.00346
58.7 -0.00553
58.75 -0.00418
58.8 -0.00086
58.85 -0.00316
58.9 -0.00238
58.95 0.00146
59 0.00691
59.05 0.00656
59.1 0.00712
59.15 0.00441
59.2 0.00367
59.25 0.00654
59.3 0.01239
59.35 0.01722
59.4 0.01883
59.45 0.02085
59.5 0.02438
59.55 0.02572
59.6 0.02583
59.65 0.0258
59.7 0.02039
59.75 0.01061
59.8 0.00733
59.85 0.00399
59.9 0.00046
59.95 -0.00287
60 -0.00314
60.05 -0.00375
60.1 -0.00275
60.15 -0.00422
60.2 -0.00523
60.25 -0.00173
60.3 -0.00159
60.35 -0.00372
60.4 -0.00741
60.45 -0.01043
60.5 -0.01104
60.55 -0.00891
60.6 -0.01066
60.65 -0.01471
60.7 -0.01238
60.75 -0.01397
60.8 -0.0164
60.85 -0.01734
60.9 -0.01898
60.95 -0.02278
61 -0.02324
61.05 -0.02262
61.1 -0.02237
61.15 -0.02326
61.2 -0.01886
61.25 -0.01424
61.3 -0.0069
61.35 -0.00446
61.4 -0.00289
61.45 -0.00395
61.5 -0.00713
61.55 -0.00859
61.6 -0.00533
61.65 -0.0057
61.7 -0.00785
61.75 -0.01015
61.8 -0.00773
61.85 -0.0062
61.9 -0.00745
61.95 -0.00513
62 -0.00396
62.05 -0.00707
62.1 -0.00529
62.15 -0.00034
62.2 0.00767
62.25 0.01044
62.3 0.00783
62.35 0.00216
62.4 -0.00251
62.45 -0.00573
62.5 -0.0067
62.55 -0.00429
62.6 0.00127
62.65 0.00191
62.7 0.0037
62.75 0.00753
62.8 0.00688
62.85 0.00658
62.9 0.00583
62.95 0.0073
63 0.0052
63.05 0.00221
63.1 -0.00092
63.15 -0.00423
63.2 -0.00936
63.25 -0.01002
63.3 -0.00736
63.35 -0.00495
63.4 -0.00327
63.45 -0.00216
63.5 -0.0034
63.55 0.0004
63.6 0.00106
63.65 0.00089
63.7 0.00056
63.75 0.00402
63.8 0.00244
63.85 0.00166
63.9 -0.00047
63.95 0.00223
64 0.00247
64.05 0.00048
64.1 -0.00094
64.15 0.00238
64.2 0.00279
64.25 0.00271
64.3 0.00072
64.35 0.00394
64.4 0.00565
64.45 0.00701
64.5 0.00591
64.55 0.0003
64.6 -0.00504
64.65 -0.0118
64.7 -0.01787
64.75 -0.02414
64.8 -0.02596
64.85 -0.0221
64.9 -0.01978
64.95 -0.0179
65 -0.01549
65.05 -0.01006
65.1 -0.00874
65.15 -0.01094
65.2 -0.01169
65.25 -0.00708
65.3 -0.00623
65.35 -0.00124
65.4 0.00528
65.45 0.00971
65.5 0.00961
65.55 0.00746
65.6 0.00636
65.65 0.0013
65.7 -0.00173
65.75 -0.00543
65.8 -0.00336
65.85 -0.00381
65.9 -0.00104
65.95 -0.00295
66 -0.00802
66.05 -0.00777
66.1 -0.00315
66.15 -0.00218
66.2 0.0027
66.25 0.00611
66.3 0.00639
66.35 0.0105
66.4 0.00967
66.45 0.00921
66.5 0.00954
66.55 0.01186
66.6 0.00977
66.65 0.00688
66.7 0.00805
66.75 0.00836
66.8 0.01057
66.85 0.01352
66.9 0.01674
66.95 0.01346
67 0.00964
67.05 0.00728
67.1 0.00308
67.15 -0.00329
67.2 -0.00222
67.25 -0.00161
67.3 0.00186
67.35 0.00378
67.4 0.00417
67.45 0.0039
67.5 0.00118
67.55 0.00181
67.6 0.00371
67.65 0.00545
67.7 0.00991
67.75 0.01492
67.8 0.01502
67.85 0.01609
67.9 0.01753
67.95 0.01874
68 0.01884
68.05 0.02082
68.1 0.02157
68.15 0.01832
68.2 0.01643
68.25 0.01715
68.3 0.01853
68.35 0.02125
68.4 0.02567
68.45 0.02633
68.5 0.02759
68.55 0.0278
68.6 0.02656
68.65 0.01961
68.7 0.01701
68.75 0.01624
68.8 0.01663
68.85 0.01948
68.9 0.01766
68.95 0.01122
69 0.00465
69.05 0.00136
69.1 -0.0022
69.15 -0.00305
69.2 -0.00274
69.25 -0.0012
69.3 0.00368
69.35 0.01062
69.4 0.0167
69.45 0.01524
69.5 0.01404
69.55 0.01508
69.6 0.01406
69.65 0.00887
69.7 0.00839
69.75 0.00505
69.8 0.0051
69.85 0.00165
69.9 -0.0057
69.95 -0.01181
70 -0.01871
70.05 -0.01937
70.1 -0.02274
70.15 -0.02412
70.2 -0.02534
70.25 -0.02071
70.3 -0.01647
70.35 -0.0109
70.4 -0.01132
70.45 -0.01273
70.5 -0.01646
70.55 -0.01613
70.6 -0.01214
70.65 -0.00561
70.7 -0.00338
70.75 -0.00298
70.8 -0.00169
70.85 -0.00417
70.9 -0.00138
70.95 0.00113
71 0.00038
71.05 -0.00383
71.1 -0.00189
71.15 0.00135
71.2 0.00441
71.25 0.0071
71.3 0.01128
71.35 0.0154
71.4 0.01303
71.45 0.01125
71.5 0.00531
71.55 -0.00273
71.6 -0.01035
71.65 -0.01118
71.7 -0.01499
71.75 -0.0162
71.8 -0.01793
71.85 -0.02021
71.9 -0.02443
71.95 -0.02597
72 -0.02093
72.05 -0.01999
72.1 -0.01486
72.15 -0.00963
72.2 -0.00499
72.25 -0.00246
72.3 -0.00063
72.35 0.00001
72.4 -0.00103
72.45 -0.00525
72.5 -0.01209
72.55 -0.01925
72.6 -0.02269
72.65 -0.02737
72.7 -0.02671
72.75 -0.02826
72.8 -0.02842
72.85 -0.02787
72.9 -0.02415
72.95 -0.02283
73 -0.01964
73.05 -0.01221
73.1 -0.00415
73.15 -0.00098
73.2 0.00175
73.25 -0.00107
73.3 -0.0051
73.35 -0.00483
73.4 -0.00198
73.45 0.00005
73.5 0.00044
73.55 -0.00104
73.6 -0.00446
73.65 -0.00395
73.7 -0.00254
73.75 0.00333
73.8 0.01152
73.85 0.0174
73.9 0.02293
73.95 0.02819
74 0.02593
74.05 0.02052
74.1 0.01627
74.15 0.01644
74.2 0.01899
74.25 0.01598
74.3 0.01235
74.35 0.00835
74.4 0.00487
74.45 0.00439
74.5 0.0053
74.55 0.00425
74.6 0.0037
74.65 0.00374
74.7 0.00606
74.75 0.00776
74.8 0.0097
74.85 0.01182
74.9 0.00909
74.95 0.00299
75 -0.00182
75.05 -0.00203
75.1 -0.00144
75.15 -0.00295
75.2 -0.00329
75.25 -0.00209
75.3 0.00263
75.35 0.0035
75.4 0.00317
75.45 -0.00005
75.5 -0.00007
75.55 0.00258
75.6 0.00676
75.65 0.00504
75.7 0.0066
75.75 0.0037
75.8 -0.00186
75.85 -0.00694
75.9 -0.01279
75.95 -0.01296
76 -0.00876
76.05 -0.00253
76.1 0.00259
76.15 0.00448
76.2 0.00754
76.25 0.00597
76.3 0.00765
76.35 0.00581
76.4 0.00139
76.45 -0.00306
76.5 -0.01027
76.55 -0.01553
76.6 -0.01606
76.65 -0.01761
76.7 -0.0162
76.75 -0.01708
76.8 -0.01471
76.85 -0.01031
76.9 -0.00806
76.95 -0.00713
77 -0.00567
77.05 -0.00866
77.1 -0.01004
77.15 -0.01114
77.2 -0.00699
77.25 0.00006
77.3 0.0028
77.35 0.00078
77.4 0.00319
77.45 0.00328
77.5 0.00512
77.55 0.00123
77.6 -0.0006
77.65 0.00114
77.7 0.00586
77.75 0.01026
77.8 0.01012
77.85 0.01025
77.9 0.01133
77.95 0.00699
78 0.00407
78.05 -0.00161
78.1 -0.00591
78.15 -0.01252
78.2 -0.02013
78.25 -0.01914
78.3 -0.01916
78.35 -0.01531
78.4 -0.01399
78.45 -0.00893
78.5 -0.00349
78.55 0.00136
78.6 0.00158
78.65 -0.00001
78.7 -0.00283
78.75 0.00004
78.8 -0.00137
78.85 -0.00256
78.9 -0.0011
78.95 0.0012
79 0.00421
79.05 0.0023
79.1 0.00335
79.15 0.00827
79.2 0.0132
79.25 0.01607
79.3 0.01288
79.35 0.00778
79.4 0.00672
79.45 0.00781
79.5 0.00446
79.55 -0.0006
79.6 -0.00072
79.65 -0.00489
79.7 -0.01019
79.75 -0.01268
79.8 -0.01203
79.85 -0.00857
79.9 -0.00798
79.95 -0.0068
80 -0.00687
80.05 -0.01061
80.1 -0.00916
80.15 -0.00688
80.2 -0.00611
80.25 -0.00058
80.3 0.00641
80.35 0.01028
80.4 0.0163
80.45 0.01983
80.5 0.01657
80.55 0.01086
80.6 0.00728
80.65 0.00472
80.7 0.00203
80.75 0.00311
80.8 0.00439
80.85 0.00281
80.9 0.00048
80.95 0.00062
81 0.00198
81.05 0.0035
81.1 0.00053
81.15 -0.00108
81.2 -0.00373
81.25 -0.0062
81.3 -0.00311
81.35 0.00092
81.4 0.0046
81.45 0.00902
81.5 0.01253
81.55 0.01397
81.6 0.00961
81.65 0.0061
81.7 -0.00094
81.75 -0.00422
81.8 -0.00521
81.85 -0.00888
81.9 -0.00604
81.95 -0.00705
82 -0.00646
82.05 -0.00623
82.1 -0.00831
82.15 -0.00545
82.2 -0.00294
82.25 -0.00498
82.3 -0.00663
82.35 -0.00906
82.4 -0.00971
82.45 -0.01373
82.5 -0.01851
82.55 -0.02058
82.6 -0.02322
82.65 -0.02398
82.7 -0.02646
82.75 -0.02478
82.8 -0.01747
82.85 -0.01372
82.9 -0.01221
82.95 -0.01098
83 -0.00525
83.05 0.0014
83.1 0.00661
83.15 0.00963
83.2 0.00937
83.25 0.00481
83.3 -0.00141
83.35 -0.00856
83.4 -0.01504
83.45 -0.01307
83.5 -0.00948
83.55 -0.00781
83.6 -0.01009
83.65 -0.01215
83.7 -0.01521
83.75 -0.01535
83.8 -0.0155
83.85 -0.01473
83.9 -0.01533
83.95 -0.01324
84 -0.00849
84.05 -0.00903
84.1 -0.00431
84.15 0.00088
84.2 0.00355
84.25 0.00113
84.3 -0.00039
84.35 -0.00248
84.4 -0.00778
84.45 -0.01098
84.5 -0.00947
84.55 -0.00608
84.6 0.00126
84.65 0.00164
84.7 -0.00204
84.75 -0.00757
84.8 -0.01454
84.85 -0.01363
84.9 -0.01565
84.95 -0.01555
85 -0.01457
85.05 -0.00846
85.1 0.00128
85.15 0.00972
85.2 0.01703
85.25 0.02081
85.3 0.01962
85.35 0.0168
85.4 0.01341
85.45 0.00789
85.5 0.00523
85.55 0.00128
85.6 0.00219
85.65 0.00544
85.7 0.009
85.75 0.01504
85.8 0.022
85.85 0.02903
85.9 0.03366
85.95 0.03684
86 0.03478
86.05 0.03111
86.1 0.02719
86.15 0.02144
86.2 0.01277
86.25 0.0026
86.3 -0.00785
86.35 -0.0134
86.4 -0.01759
86.45 -0.02066
86.5 -0.02057
86.55 -0.01691
86.6 -0.00879
86.65 -0.00087
86.7 0.00177
86.75 0.00543
86.8 0.00299
86.85 0.00491
86.9 0.00167
86.95 -0.00256
87 -0.00262
87.05 -0.00353
87.1 -0.00315
87.15 -0.00278
87.2 -0.00665
87.25 -0.00559
87.3 -0.00793
87.35 -0.00838
87.4 -0.01173
87.45 -0.00985
87.5 -0.0094
87.55 -0.01051
87.6 -0.00897
87.65 -0.0072
87.7 -0.00601
87.75 -0.00408
87.8 -0.0056
87.85 -0.00471
87.9 -0.00581
87.95 -0.00536
88 -0.00613
88.05 -0.00982
88.1 -0.01209
88.15 -0.01423
88.2 -0.01112
88.25 -0.00967
88.3 -0.0042
88.35 -0.00277
88.4 -0.00482
88.45 -0.00171
88.5 0.00422
88.55 0.01205
88.6 0.01765
88.65 0.01891
88.7 0.01468
88.75 0.01066
88.8 0.00351
88.85 -0.00286
88.9 -0.0069
88.95 -0.0079
89 -0.01035
89.05 -0.00682
89.1 0.00005
89.15 0.00307
89.2 0.00667
89.25 0.01195
89.3 0.01107
89.35 0.00611
89.4 0.00388
89.45 -0.00106
89.5 -0.00662
89.55 -0.01102
89.6 -0.00871
89.65 -0.00289
89.7 0.00349
89.75 0.0036
89.8 0.0008
89.85 -0.00047
89.9 0.00358
89.95 0.00455
90 0.00342
90.05 0.00559
90.1 0.0051
90.15 0.00141
90.2 -0.00233
90.25 0.00025
90.3 0.00415
90.35 0.00421
90.4 0.00855
90.45 0.00842
90.5 0.00596
90.55 0.00803
90.6 0.0082
90.65 0.00918
90.7 0.00649
90.75 0.0065
90.8 0.00671
90.85 0.01074
90.9 0.01006
90.95 0.00935
91 0.0057
91.05 0.00304
91.1 0.00233
91.15 0.00608
91.2 0.01175
91.25 0.01721
91.3 0.0194
91.35 0.01997
91.4 0.02165
91.45 0.01785
91.5 0.01254
91.55 0.01011
91.6 0.00691
91.65 0.00193
91.7 -0.00423
91.75 -0.00661
91.8 -0.00832
91.85 -0.01281
91.9 -0.01136
91.95 -0.00792
92 -0.00403
92.05 0.00034
92.1 0.00665
92.15 0.01355
92.2 0.01652
92.25 0.01295
92.3 0.01124
92.35 0.0126
92.4 0.01202
92.45 0.01421
92.5 0.01296
92.55 0.01218
92.6 0.01271
92.65 0.011
92.7 0.00767
92.75 0.00054
92.8 -0.00653
92.85 -0.01086
92.9 -0.01446
92.95 -0.01616
93 -0.01648
93.05 -0.01678
93.1 -0.01212
93.15 -0.00475
93.2 -0.00145
93.25 0.00409
93.3 0.00827
93.35 0.00887
93.4 0.01076
93.45 0.01355
93.5 0.01539
93.55 0.01525
93.6 0.01622
93.65 0.01298
93.7 0.00938
93.75 0.00496
93.8 0.00455
93.85 0.00822
93.9 0.01092
93.95 0.00706
94 -0.00057
94.05 -0.00204
94.1 0.00106
94.15 0.00045
94.2 0.00023
94.25 -0.00371
94.3 -0.00229
94.35 -0.00158
94.4 0.00178
94.45 -0.00026
94.5 -0.00171
94.55 -0.00505
94.6 -0.00576
94.65 -0.00969
94.7 -0.01271
94.75 -0.01032
94.8 -0.01262
94.85 -0.01442
94.9 -0.01583
94.95 -0.01819
95 -0.01878
95.05 -0.01318
95.1 -0.01324
95.15 -0.01634
95.2 -0.01864
95.25 -0.02238
95.3 -0.02726
95.35 -0.02919
95.4 -0.03169
95.45 -0.03416
95.5 -0.03163
95.55 -0.02688
95.6 -0.01784
95.65 -0.00647
95.7 -0.00063
95.75 0.00523
95.8 0.00752
95.85 0.00834
95.9 0.01227
95.95 0.01487
96 0.0124
96.05 0.01387
96.1 0.01294
96.15 0.01116
96.2 0.01118
96.25 0.0073
96.3 0.00427
96.35 -0.00053
96.4 -0.00119
96.45 0.00094
96.5 0.00247
96.55 0.00533
96.6 0.00462
96.65 0.00709
96.7 0.01154
96.75 0.016
96.8 0.01996
96.85 0.02324
96.9 0.02042
96.95 0.01651
97 0.01418
97.05 0.01157
97.1 0.01282
97.15 0.01126
97.2 0.00869
97.25 0.00741
97.3 0.0078
97.35 0.00273
97.4 -0.0041
97.45 -0.01111
97.5 -0.0175
97.55 -0.02026
97.6 -0.01908
97.65 -0.01296
97.7 -0.00366
97.75 0.00497
97.8 0.00617
97.85 0.00297
97.9 0.00457
97.95 0.00098
98 -0.00282
98.05 -0.00238
98.1 -0.00333
98.15 -0.00704
98.2 -0.01191
98.25 -0.01164
98.3 -0.00842
98.35 -0.00764
98.4 -0.00279
98.45 0.00168
98.5 0.00347
98.55 0.00641
98.6 0.00876
98.65 0.00817
98.7 0.00729
98.75 0.01019
98.8 0.0154
98.85 0.01602
98.9 0.01223
98.95 0.0112
99 0.00773
99.05 0.00356
99.1 0.00412
99.15 0.00523
99.2 0.00774
99.25 0.01051
99.3 0.01169
99.35 0.01102
99.4 0.012
99.45 0.01356
99.5 0.01691
99.55 0.01779
99.6 0.0125
99.65 0.01022
99.7 0.00699
99.75 0.00712
99.8 0.00295
99.85 -0.00046
99.9 -0.00371
99.95 -0.00448
