0 0
0.05 0.00623
0.1 0.01015
0.15 0.01746
0.2 0.02469
0.25 0.03225
0.3 0.0412
0.35 0.04332
0.4 0.04411
0.45 0.04185
0.5 0.03932
0.55 0.03998
0.6 0.03824
0.65 0.03766
0.7 0.03992
0.75 0.04326
0.8 0.04558
0.85 0.04774
0.9 0.04769
0.95 0.04877
1 0.04588
1.05 0.04546
1.1 0.04588
1.15 0.0475
1.2 0.04613
1.25 0.04123
1.3 0.03429
1.35 0.03166
1.4 0.02718
1.45 0.02748
1.5 0.03209
1.55 0.03355
1.6 0.0344
1.65 0.03167
1.7 0.03312
1.75 0.03615
1.8 0.03976
1.85 0.04414
1.9 0.04543
1.95 0.04434
2 0.04185
2.05 0.04005
2.1 0.04098
2.15 0.04181
2.2 0.03999
2.25 0.03562
2.3 0.03173
2.35 0.03287
2.4 0.03401
2.45 0.03382
2.5 0.03475
2.55 0.03719
2.6 0.03503
2.65 0.03097
2.7 0.03117
2.75 0.03214
2.8 0.02815
2.85 0.02507
2.9 0.02617
2.95 0.02812
3 0.02693
3.05 0.02243
3.1 0.02312
3.15 0.02454
3.2 0.02814
3.25 0.0281
3.3 0.02815
3.35 0.03008
3.4 0.02936
3.45 0.03069
3.5 0.03033
3.55 0.02982
3.6 0.0296
3.65 0.02661
3.7 0.02414
3.75 0.01933
3.8 0.01731
3.85 0.01625
3.9 0.01854
3.95 0.02294
4 0.02183
4.05 0.01921
4.1 0.014
4.15 0.01325
4.2 0.01384
4.25 0.01432
4.3 0.01467
4.35 0.01662
4.4 0.01602
4.45 0.01655
4.5 0.01165
4.55 0.00625
4.6 -0.00121
4.65 -0.01196
4.7 -0.01844
4.75 -0.02171
4.8 -0.02374
4.85 -0.02522
4.9 -0.02624
4.95 -0.02962
5 -0.04097
5.05 -0.0544
5.1 -0.06906
5.15 -0.08366
5.2 -0.10056
5.25 -0.11718
5.3 -0.13454
5.35 -0.14871
5.4 -0.16571
5.45 -0.18523
5.5 -0.20281
5.55 -0.22231
5.6 -0.23611
5.65 -0.24353
5.7 -0.2494
5.75 -0.24817
5.8 -0.24835
5.85 -0.24352
5.9 -0.23619
5.95 -0.22028
6 -0.20455
6.05 -0.18655
6.1 -0.16845
6.15 -0.14283
6.2 -0.1116
6.25 -0.08411
6.3 -0.05885
6.35 -0.03056
6.4 -0.0041
6.45 0.02053
6.5 0.0471
6.55 0.07491
6.6 0.09648
6.65 0.11857
6.7 0.13942
6.75 0.15457
6.8 0.16795
6.85 0.17914
6.9 0.18535
6.95 0.18262
7 0.17612
7.05 0.1736
7.1 0.17055
7.15 0.16527
7.2 0.15946
7.25 0.15175
7.3 0.14533
7.35 0.13985
7.4 0.13135
7.45 0.1208
7.5 0.11482
7.55 0.11158
7.6 0.10821
7.65 0.10325
7.7 0.09935
7.75 0.09858
7.8 0.10225
7.85 0.10445
7.9 0.10294
7.95 0.10594
8 0.10892
8.05 0.11503
8.1 0.1157
8.15 0.11605
8.2 0.11296
8.25 0.10809
8.3 0.1036
8.35 0.09892
8.4 0.09539
8.45 0.09514
8.5 0.09804
8.55 0.1017
8.6 0.10395
8.65 0.10484
8.7 0.10518
8.75 0.10302
8.8 0.09667
8.85 0.0865
8.9 0.08155
8.95 0.07509
9 0.0663
9.05 0.05883
9.1 0.05688
9.15 0.0529
9.2 0.05271
9.25 0.04983
9.3 0.04566
9.35 0.03738
9.4 0.03107
9.45 0.02698
9.5 0.02242
9.55 0.02142
9.6 0.01811
9.65 0.0163
9.7 0.01135
9.75 0.01196
9.8 0.01571
9.85 0.0196
9.9 0.01816
9.95 0.01269
10 0.0072
10.05 0.00253
10.1 -0.00412
10.15 -0.01159
10.2 -0.0131
10.25 -0.01325
10.3 -0.01378
10.35 -0.00964
10.4 -0.00369
10.45 0.00143
10.5 0.00725
10.55 0.01254
10.6 0.01864
10.65 0.01938
10.7 0.01976
10.75 0.0221
10.8 0.02418
10.85 0.01894
10.9 0.01316
10.95 0.00862
11 0.00593
11.05 0.00389
11.1 0.00066
11.15 -0.00247
11.2 -0.00882
11.25 -0.01571
11.3 -0.01745
11.35 -0.02028
11.4 -0.0176
11.45 -0.01481
11.5 -0.01341
11.55 -0.0166
11.6 -0.02256
11.65 -0.02167
11.7 -0.01764
11.75 -0.01654
11.8 -0.01753
11.85 -0.01558
11.9 -0.01058
11.95 -0.00731
12 -0.00638
12.05 -0.00326
12.1 -0.00193
12.15 -0.00474
12.2 -0.00961
12.25 -0.01405
12.3 -0.01871
12.35 -0.02539
12.4 -0.02949
12.45 -0.03187
12.5 -0.0288
12.55 -0.02518
12.6 -0.02016
12.65 -0.01407
12.7 -0.01406
12.75 -0.01283
12.8 -0.01517
12.85 -0.01398
12.9 -0.00944
12.95 -0.01008
13 -0.01014
13.05 -0.01191
13.1 -0.00929
13.15 -0.00599
13.2 -0.00604
13.25 -0.00674
13.3 -0.01021
13.35 -0.01612
13.4 -0.02338
13.45 -0.02419
13.5 -0.02453
13.55 -0.02456
13.6 -0.02257
13.65 -0.02039
13.7 -0.02045
13.75 -0.02018
13.8 -0.02274
13.85 -0.02323
13.9 -0.02585
13.95 -0.02699
14 -0.02843
14.05 -0.02688
14.1 -0.02813
14.15 -0.02675
14.2 -0.02654
14.25 -0.02235
14.3 -0.01703
14.35 -0.01713
14.4 -0.01235
14.45 -0.0069
14.5 -0.00044
14.55 0.00122
14.6 -0.00182
14.65 -0.00049
14.7 0.00161
14.75 0.00335
14.8 0.00739
14.85 0.00508
14.9 0.00353
14.95 -0.00203
15 -0.00828
15.05 -0.00814
15.1 -0.00982
15.15 -0.00767
15.2 -0.00944
15.25 -0.01236
15.3 -0.01801
15.35 -0.02346
15.4 -0.0289
15.45 -0.03107
15.5 -0.0264
15.55 -0.02037
15.6 -0.01721
15.65 -0.0131
15.7 -0.01001
15.75 -0.00595
15.8 -0.00337
15.85 0.00205
15.9 0.009
15.95 0.00962
16 0.0118
16.05 0.0099
16.1 0.00826
16.15 0.00309
16.2 -0.0017
16.25 -0.00224
16.3 -0.007
16.35 -0.00833
16.4 -0.0117
16.45 -0.01321
16.5 -0.01099
16.55 -0.00677
16.6 -0.00446
16.65 -0.00023
16.7 0.00279
16.75 0.00644
16.8 0.00843
16.85 0.01194
16.9 0.01042
16.95 0.0105
17 0.00548
17.05 0.00554
17.1 0.00351
17.15 0.00404
17.2 0.00545
17.25 0.00935
17.3 0.01061
17.35 0.00836
17.4 0.00479
17.45 0.001
17.5 -0.00151
17.55 -0.00262
17.6 -0.00688
17.65 -0.01092
17.7 -0.01452
17.75 -0.01505
17.8 -0.01557
17.85 -0.01164
17.9 -0.01028
17.95 -0.00517
18 -0.00288
18.05 -0
18.1 -0.0006
18.15 -0.00497
18.2 -0.00835
18.25 -0.01359
18.3 -0.01322
18.35 -0.01019
18.4 -0.01104
18.45 -0.01417
18.5 -0.01617
18.55 -0.01564
18.6 -0.01161
18.65 -0.00711
18.7 -0.00193
18.75 0.00022
18.8 -0.00196
18.85 -0.00339
18.9 -0.00473
18.95 -0.00199
19 0.00148
19.05 0.00254
19.1 0.00239
19.15 -0.00148
19.2 -0.00431
19.25 -0.01012
19.3 -0.01288
19.35 -0.01159
19.4 -0.01104
19.45 -0.00957
19.5 -0.01103
19.55 -0.01346
19.6 -0.01161
19.65 -0.01369
19.7 -0.01079
19.75 -0.00681
19.8 -0.00099
19.85 0.00158
19.9 0.00172
19.95 0.00104
20 -0.0005
20.05 0.00195
20.1 0.00662
20.15 0.00568
20.2 0.00356
20.25 -0.00192
20.3 -0.00942
20.35 -0.01227
20.4 -0.01316
20.45 -0.0121
20.5 -0.00912
20.55 -0.00801
20.6 -0.00675
20.65 -0.00424
20.7 -0.006
20.75 -0.00972
20.8 -0.01098
20.85 -0.01066
20.9 -0.00908
20.95 -0.00557
21 0.00052
21.05 0.00795
21.1 0.01043
21.15 0.01445
21.2 0.01296
21.25 0.00746
21.3 0.00464
21.35 0.00536
21.4 0.00312
21.45 -0.00095
21.5 -0.00245
21.55 -0.00438
21.6 -0.00346
21.65 -0.00681
21.7 -0.01086
21.75 -0.01082
21.8 -0.01165
21.85 -0.0151
21.9 -0.01643
21.95 -0.0192
22 -0.01528
22.05 -0.01332
22.1 -0.01426
22.15 -0.01689
22.2 -0.01569
22.25 -0.01659
22.3 -0.01792
22.35 -0.01292
22.4 -0.0069
22.45 -0.00375
22.5 -0.00256
22.55 0.00237
22.6 0.00657
22.65 0.00931
22.7 0.0086
22.75 0.00352
22.8 -0.00299
22.85 -0.00517
22.9 -0.00269
22.95 -0.00005
23 0.00125
23.05 0.00286
23.1 0.00105
23.15 0.00238
23.2 0.00349
23.25 0.00557
23.3 0.00459
23.35 0.00239
23.4 -0.0019
23.45 -0.00233
23.5 -0.00105
23.55 -0.00199
23.6 -0.00261
23.65 -0.00603
23.7 -0.00354
23.75 -0.0043
23.8 -0.0001
23.85 -0.00033
23.9 0.00064
23.95 0.00077
24 -0.00226
24.05 -0.00362
24.1 -0.004
24.15 -0.00156
24.2 0.00126
24.25 -0.00059
24.3 0.00164
24.35 0.00535
24.4 0.00651
24.45 0.01034
24.5 0.01157
24.55 0.01347
24.6 0.01766
24.65 0.01769
24.7 0.01618
24.75 0.01716
24.8 0.01316
24.85 0.01174
24.9 0.00687
24.95 0.00559
25 0.00517
25.05 0.00058
25.1 0.00086
25.15 0.00196
25.2 0.00401
25.25 0.00658
25.3 0.00954
25.35 0.01254
25.4 0.01145
25.45 0.00903
25.5 0.00525
25.55 0.00194
25.6 -0.00325
25.65 -0.00644
25.7 -0.00754
25.75 -0.00383
25.8 0.00127
25.85 0.00249
25.9 0.00068
25.95 -0.0044
26 -0.00714
26.05 -0.00614
26.1 -0.00577
26.15 -0.00382
26.2 0.00172
26.25 0.00309
26.3 0.00179
26.35 -0.00131
26.4 -0.00302
26.45 -0.00045
26.5 0.00512
26.55 0.0115
26.6 0.01281
26.65 0.01083
26.7 0.01029
26.75 0.01266
26.8 0.01274
26.85 0.00752
26.9 0.00164
26.95 -0.00258
27 -0.00316
27.05 -0.00159
27.1 0.00227
27.15 0.00341
27.2 0.00678
27.25 0.01031
27.3 0.01098
27.35 0.01264
27.4 0.01325
27.45 0.01157
27.5 0.01167
27.55 0.00739
27.6 0.00341
27.65 -0.00068
27.7 -0.00371
27.75 -0.00637
27.8 -0.01603
27.85 -0.03174
27.9 -0.05141
27.95 -0.06871
28 -0.08309
28.05 -0.10194
28.1 -0.12511
28.15 -0.14988
28.2 -0.1755
28.25 -0.20425
28.3 -0.2325
28.35 -0.26172
28.4 -0.29775
28.45 -0.33696
28.5 -0.38168
28.55 -0.42833
28.6 -0.4808
28.65 -0.54089
28.7 -0.61199
28.75 -0.68975
28.8 -0.76759
28.85 -0.85209
28.9 -0.94016
28.95 -1.03187
29 -1.12718
29.05 -1.2271
29.1 -1.32646
29.15 -1.42245
29.2 -1.52281
29.25 -1.61839
29.3 -1.71508
29.35 -1.80749
29.4 -1.89712
29.45 -1.97815
29.5 -2.05046
29.55 -2.11425
29.6 -2.17001
29.65 -2.21452
29.7 -2.24995
29.75 -2.27711
29.8 -2.29368
29.85 -2.29808
29.9 -2.28567
29.95 -2.26114
30 -2.21752
30.05 -2.16208
30.1 -2.09073
30.15 -2.01111
30.2 -1.92042
30.25 -1.8149
30.3 -1.70054
30.35 -1.58156
30.4 -1.45531
30.45 -1.32054
30.5 -1.18328
30.55 -1.04353
30.6 -0.90269
30.65 -0.75555
30.7 -0.6056
30.75 -0.45599
30.8 -0.30025
30.85 -0.14263
30.9 0.01551
30.95 0.17072
31 0.31588
31.05 0.46004
31.1 0.59641
31.15 0.72172
31.2 0.84491
31.25 0.96115
31.3 1.07294
31.35 1.17996
31.4 1.27546
31.45 1.36642
31.5 1.4453
31.55 1.51615
31.6 1.57848
31.65 1.63694
31.7 1.68684
31.75 1.73246
31.8 1.77183
31.85 1.80338
31.9 1.83223
31.95 1.85623
32 1.87761
32.05 1.88897
32.1 1.89779
32.15 1.89967
32.2 1.90119
32.25 1.90224
32.3 1.90459
32.35 1.89956
32.4 1.89147
32.45 1.88311
32.5 1.87771
32.55 1.86911
32.6 1.85627
32.65 1.84571
32.7 1.83424
32.75 1.82099
32.8 1.80846
32.85 1.79243
32.9 1.77632
32.95 1.75801
33 1.73267
33.05 1.70701
33.1 1.68182
33.15 1.65056
33.2 1.61778
33.25 1.58691
33.3 1.55637
33.35 1.52249
33.4 1.48109
33.45 1.43463
33.5 1.39254
33.55 1.35061
33.6 1.30854
33.65 1.26457
33.7 1.22159
33.75 1.17476
33.8 1.12811
33.85 1.0845
33.9 1.04146
33.95 0.99668
34 0.94835
34.05 0.90355
34.1 0.86248
34.15 0.82372
34.2 0.78036
34.25 0.74049
34.3 0.70057
34.35 0.6578
34.4 0.61613
34.45 0.57452
34.5 0.53184
34.55 0.48705
34.6 0.44427
34.65 0.40059
34.7 0.36184
34.75 0.32334
34.8 0.28921
34.85 0.25551
34.9 0.22782
34.95 0.19685
35 0.16706
35.05 0.14269
35.1 0.12137
35.15 0.10257
35.2 0.08363
35.25 0.06157
35.3 0.03675
35.35 0.01243
35.4 -0.00984
35.45 -0.02897
35.5 -0.04544
35.55 -0.06443
35.6 -0.08105
35.65 -0.09661
35.7 -0.11642
35.75 -0.13682
35.8 -0.15229
35.85 -0.16496
35.9 -0.17885
35.95 -0.19644
36 -0.21314
36.05 -0.22876
36.1 -0.24542
36.15 -0.25888
36.2 -0.274
36.25 -0.28313
36.3 -0.28817
36.35 -0.29084
36.4 -0.2971
36.45 -0.29836
36.5 -0.30203
36.55 -0.3033
36.6 -0.30848
36.65 -0.30923
36.7 -0.31125
36.75 -0.31361
36.8 -0.31996
36.85 -0.32166
36.9 -0.32181
36.95 -0.32405
37 -0.32851
37.05 -0.32789
37.1 -0.32647
37.15 -0.32828
37.2 -0.32473
37.25 -0.32012
37.3 -0.31914
37.35 -0.31474
37.4 -0.31537
37.45 -0.31302
37.5 -0.30921
37.55 -0.30254
37.6 -0.29682
37.65 -0.29323
37.7 -0.29387
37.75 -0.29368
37.8 -0.29395
37.85 -0.29505
37.9 -0.29609
37.95 -0.29411
38 -0.29536
38.05 -0.2959
38.1 -0.29488
38.15 -0.29475
38.2 -0.2943
38.25 -0.29173
38.3 -0.28497
38.35 -0.27625
38.4 -0.26831
38.45 -0.26262
38.5 -0.25771
38.55 -0.25475
38.6 -0.24833
38.65 -0.24066
38.7 -0.23451
38.75 -0.22882
38.8 -0.22805
38.85 -0.22792
38.9 -0.22536
38.95 -0.22167
39 -0.21741
39.05 -0.21788
39.1 -0.21578
39.15 -0.21446
39.2 -0.20987
39.25 -0.20316
39.3 -0.19906
39.35 -0.19516
39.4 -0.18934
39.45 -0.18126
39.5 -0.1719
39.55 -0.17056
39.6 -0.17152
39.65 -0.17201
39.7 -0.17187
39.75 -0.17273
39.8 -0.17352
39.85 -0.17161
39.9 -0.17194
39.95 -0.16692
40 -0.16023
40.05 -0.15696
40.1 -0.15483
40.15 -0.15706
40.2 -0.15747
40.25 -0.15455
40.3 -0.15569
40.35 -0.15124
40.4 -0.14325
40.45 -0.14081
40.5 -0.14104
40.55 -0.14018
40.6 -0.13677
40.65 -0.13771
40.7 -0.1377
40.75 -0.13619
40.8 -0.13135
40.85 -0.12496
40.9 -0.12442
40.95 -0.12562
41 -0.12478
41.05 -0.12254
41.1 -0.11807
41.15 -0.11407
41.2 -0.10953
41.25 -0.10204
41.3 -0.09599
41.35 -0.09205
41.4 -0.08796
41.45 -0.08586
41.5 -0.08443
41.55 -0.08131
41.6 -0.07976
41.65 -0.0803
41.7 -0.07955
41.75 -0.08151
41.8 -0.08554
41.85 -0.08952
41.9 -0.0913
41.95 -0.08882
42 -0.08939
42.05 -0.09006
42.1 -0.09097
42.15 -0.09409
42.2 -0.09206
42.25 -0.09007
42.3 -0.08562
42.35 -0.08358
42.4 -0.07824
42.45 -0.07639
42.5 -0.07669
42.55 -0.07444
42.6 -0.07632
42.65 -0.08046
42.7 -0.08404
42.75 -0.08414
42.8 -0.08534
42.85 -0.08812
42.9 -0.0905
42.95 -0.08603
43 -0.07769
43.05 -0.07025
43.1 -0.06302
43.15 -0.05588
43.2 -0.04866
43.25 -0.04512
43.3 -0.04793
43.35 -0.05309
43.4 -0.05317
43.45 -0.05323
43.5 -0.05033
43.55 -0.04987
43.6 -0.04741
43.65 -0.04926
43.7 -0.04739
43.75 -0.04403
43.8 -0.04532
43.85 -0.04415
43.9 -0.04245
43.95 -0.0436
44 -0.04125
44.05 -0.04047
44.1 -0.03725
44.15 -0.03425
44.2 -0.03383
44.25 -0.03192
44.3 -0.03444
44.35 -0.04024
44.4 -0.04369
44.45 -0.04399
44.5 -0.04154
44.55 -0.04213
44.6 -0.03923
44.65 -0.04024
44.7 -0.04137
44.75 -0.04181
44.8 -0.04576
44.85 -0.04769
44.9 -0.04712
44.95 -0.04893
45 -0.05029
45.05 -0.05156
45.1 -0.05096
45.15 -0.05264
45.2 -0.05173
45.25 -0.04576
45.3 -0.04333
45.35 -0.04227
45.4 -0.04107
45.45 -0.04234
45.5 -0.03873
45.55 -0.0383
45.6 -0.03858
45.65 -0.04181
45.7 -0.04035
45.75 -0.03862
45.8 -0.03578
45.85 -0.03694
45.9 -0.0368
45.95 -0.03351
46 -0.03393
46.05 -0.0315
46.1 -0.02734
46.15 -0.02684
46.2 -0.02464
46.25 -0.02674
46.3 -0.03012
46.35 -0.03012
46.4 -0.02692
46.45 -0.02731
46.5 -0.02926
46.55 -0.02954
46.6 -0.02953
46.65 -0.02848
46.7 -0.02813
46.75 -0.02773
46.8 -0.02895
46.85 -0.03259
46.9 -0.03379
46.95 -0.0315
47 -0.03178
47.05 -0.02974
47.1 -0.02785
47.15 -0.0243
47.2 -0.02028
47.25 -0.01494
47.3 -0.01129
47.35 -0.00667
47.4 -0.00263
47.45 -0.00392
47.5 -0.00571
47.55 -0.00641
47.6 -0.00754
47.65 -0.00488
47.7 -0.00596
47.75 -0.00467
47.8 -0.00061
47.85 -0.00249
47.9 -0.00239
47.95 -0.0014
48 -0.00033
48.05 0.00042
48.1 0.00087
48.15 0.00017
48.2 0.00115
48.25 -0.00294
48.3 -0.00263
48.35 -0.00305
48.4 -0.00378
48.45 -0.00807
48.5 -0.01102
48.55 -0.01658
48.6 -0.01901
48.65 -0.02158
48.7 -0.02536
48.75 -0.02942
48.8 -0.03067
48.85 -0.03102
48.9 -0.02848
48.95 -0.02341
49 -0.01671
49.05 -0.01096
49.1 -0.00488
49.15 0.0014
49.2 0.00295
49.25 0.00724
49.3 0.00741
49.35 0.01045
49.4 0.01436
49.45 0.01244
49.5 0.01041
49.55 0.00892
49.6 0.00447
49.65 -0.00299
49.7 -0.00665
49.75 -0.00721
49.8 -0.0099
49.85 -0.00819
49.9 -0.01106
49.95 -0.01066
50 -0.00973
50.05 -0.00801
50.1 -0.0093
50.15 -0.0126
50.2 -0.0135
50.25 -0.01557
50.3 -0.01292
50.35 -0.01306
50.4 -0.011
50.45 -0.01078
50.5 -0.01339
50.55 -0.01372
50.6 -0.01356
50.65 -0.01306
50.7 -0.0113
50.75 -0.00925
50.8 -0.00964
50.85 -0.0056
50.9 -0.00109
50.95 0.0027
51 0.00411
51.05 0.00568
51.1 0.00779
51.15 0.01135
51.2 0.01251
51.25 0.00999
51.3 0.00844
51.35 0.00934
51.4 0.00535
51.45 0.00507
51.5 0.00595
51.55 0.0029
51.6 -0.00096
51.65 -0.00745
51.7 -0.0145
51.75 -0.01573
51.8 -0.01769
51.85 -0.02101
51.9 -0.02026
51.95 -0.01574
52 -0.01575
52.05 -0.01538
52.1 -0.01304
52.15 -0.01127
52.2 -0.01163
52.25 -0.01449
52.3 -0.01604
52.35 -0.01711
52.4 -0.01826
52.45 -0.01728
52.5 -0.01139
52.55 -0.00597
52.6 -0.0013
52.65 0.00214
52.7 0.00268
52.75 -0.00032
52.8 -0.00351
52.85 -0.00501
52.9 -0.00388
52.95 -0.00131
53 -0.00346
53.05 -0.00655
53.1 -0.00774
53.15 -0.00616
53.2 -0.00118
53.25 0.00553
53.3 0.00742
53.35 0.00765
53.4 0.01111
53.45 0.01093
53.5 0.00737
53.55 0.00085
53.6 -0.00364
53.65 -0.0102
53.7 -0.01498
53.75 -0.01589
53.8 -0.01347
53.85 -0.01484
53.9 -0.01314
53.95 -0.01001
54 -0.00986
54.05 -0.00982
54.1 -0.01261
54.15 -0.01592
54.2 -0.01926
54.25 -0.01957
54.3 -0.02183
54.35 -0.01777
54.4 -0.01473
54.45 -0.00914
54.5 -0.00302
54.55 -0.00024
54.6 0.006
54.65 0.00705
54.7 0.01007
54.75 0.01485
54.8 0.01452
54.85 0.01262
54.9 0.00864
54.95 0.00696
55 0.00753
55.05 0.00717
55.1 0.0075
55.15 0.00494
55.2 0.00354
55.25 0.00661
55.3 0.00799
55.35 0.00877
55.4 0.00588
55.45 0.00058
55.5 -0.00001
55.55 -0.00204
55.6 -0.00522
55.65 -0.00516
55.7 -0.00817
55.75 -0.00673
55.8 -0.00298
55.85 0.0014
55.9 0.00193
55.95 0.00626
56 0.01272
56.05 0.01975
56.1 0.01986
56.15 0.01907
56.2 0.01632
56.25 0.01253
56.3 0.00943
56.35 0.00782
56.4 0.00783
56.45 0.01035
56.5 0.01219
56.55 0.00803
56.6 0.0064
56.65 0.00784
56.7 0.00767
56.75 0.00938
56.8 0.00716
56.85 0.00592
56.9 0.00069
56.95 0.00128
57 0.00235
57.05 -0.00052
57.1 -0.00006
57.15 0.00415
57.2 0.00543
57.25 0.00938
57.3 0.00789
57.35 0.00946
57.4 0.01163
57.45 0.00826
57.5 0.00686
57.55 0.00284
57.6 0.00295
57.65 0.00529
57.7 0.00804
57.75 0.0121
57.8 0.01562
57.85 0.01595
57.9 0.01136
57.95 0.00728
58 0.00644
58.05 0.00142
58.1 -0.00301
58.15 -0.00365
58.2 -0.0003
58.25 0.00127
58.3 0.00565
58.35 0.0039
58.4 0.00325
58.45 0.00581
58.5 0.00722
58.55 0.00433
58.6 0.00313
58.65 -0.00135
58.7 -0.00592
58.75 -0.01212
58.8 -0.01637
58.85 -0.02106
58.9 -0.02124
58.95 -0.02347
59 -0.01961
59.05 -0.01253
59.1 -0.00754
59.15 -0.0022
59.2 -0.00037
59.25 0.00174
59.3 0.00224
59.35 -0.00171
59.4 -0.00667
59.45 -0.00636
59.5 -0.00428
59.55 0.00037
59.6 0.00707
59.65 0.01455
59.7 0.02173
59.75 0.02621
59.8 0.02685
59.85 0.02873
59.9 0.02711
59.95 0.02503
60 0.02118
60.05 0.01444
60.1 0.00754
60.15 0.00265
60.2 -0.00505
60.25 -0.00798
60.3 -0.00549
60.35 -0.0046
60.4 -0.00573
60.45 -0.01056
60.5 -0.01088
60.55 -0.01031
60.6 -0.00553
60.65 -0.00366
60.7 0.00143
60.75 0.00828
60.8 0.00926
60.85 0.00789
60.9 0.00767
60.95 0.00731
61 0.00751
61.05 0.00853
61.1 0.00749
61.15 0.00912
61.2 0.01025
61.25 0.01163
61.3 0.00794
61.35 0.00192
61.4 0
61.45 -0.00448
61.5 -0.00843
61.55 -0.00863
61.6 -0.00927
61.65 -0.00584
61.7 0.00009
61.75 0.00479
61.8 0.00371
61.85 -0.00162
61.9 -0.00866
61.95 -0.00985
62 -0.01117
62.05 -0.01033
62.1 -0.01299
62.15 -0.01214
62.2 -0.01091
62.25 -0.00765
62.3 -0.00608
62.35 -0.00343
62.4 -0.00502
62.45 -0.00769
62.5 -0.01133
62.55 -0.01493
62.6 -0.01219
62.65 -0.00919
62.7 -0.00755
62.75 -0.00221
62.8 0.00386
62.85 0.01013
62.9 0.01328
62.95 0.01171
63 0.01307
63.05 0.01302
63.1 0.01457
63.15 0.01701
63.2 0.01788
63.25 0.01496
63.3 0.01183
63.35 0.00503
63.4 0.00281
63.45 -0.00191
63.5 -0.00838
63.55 -0.01284
63.6 -0.01095
63.65 -0.01076
63.7 -0.00939
63.75 -0.01026
63.8 -0.01271
63.85 -0.01358
63.9 -0.01463
63.95 -0.01629
64 -0.01661
64.05 -0.01791
64.1 -0.01864
64.15 -0.01632
64.2 -0.01445
64.25 -0.01402
64.3 -0.01397
64.35 -0.01458
64.4 -0.01347
64.45 -0.0103
64.5 -0.01045
64.55 -0.0115
64.6 -0.00958
64.65 -0.00993
64.7 -0.01114
64.75 -0.00961
64.8 -0.01213
64.85 -0.01572
64.9 -0.0192
64.95 -0.01599
65 -0.01039
65.05 -0.00187
65.1 0.00071
65.15 0.00254
65.2 0.0063
65.25 0.00912
65.3 0.01426
65.35 0.0125
65.4 0.00826
65.45 0.00795
65.5 0.008
65.55 0.00494
65.6 0.0004
65.65 0.00043
65.7 0.00094
65.75 -0.0007
65.8 -0.00265
65.85 -0.00304
65.9 0.0007
65.95 0.00593
66 0.01186
66.05 0.01071
66.1 0.00645
66.15 0.00647
66.2 0.00639
66.25 0.00951
66.3 0.01257
66.35 0.01327
66.4 0.00923
66.45 0.00969
66.5 0.01141
66.55 0.01042
66.6 0.00798
66.65 0.00834
66.7 0.00986
66.75 0.00919
66.8 0.0084
66.85 0.00832
66.9 0.00328
66.95 0.00198
67 0.00428
67.05 0.0052
67.1 0.00417
67.15 0.00045
67.2 0.00054
67.25 0.00077
67.3 -0.00176
67.35 -0.00201
67.4 -0.00244
67.45 -0.00389
67.5 -0.00731
67.55 -0.00995
67.6 -0.01536
67.65 -0.01925
67.7 -0.02318
67.75 -0.02187
67.8 -0.01588
67.85 -0.01045
67.9 -0.00514
67.95 -0.00312
68 0.00127
68.05 0.00747
68.1 0.01014
68.15 0.01103
68.2 0.01419
68.25 0.01838
68.3 0.01589
68.35 0.00896
68.4 0.00399
68.45 0.00304
68.5 0.00012
68.55 -0.00178
68.6 -0.00221
68.65 -0.00188
68.7 -0.00051
68.75 0.0026
68.8 -0.00021
68.85 -0.00633
68.9 -0.00848
68.95 -0.0136
69 -0.0149
69.05 -0.01289
69.1 -0.01354
69.15 -0.00888
69.2 -0.00458
69.25 -0.00115
69.3 -0.00156
69.35 -0.00615
69.4 -0.00741
69.45 -0.00729
69.5 -0.00388
69.55 0.00198
69.6 0.00105
69.65 0.00317
69.7 0.00202
69.75 0.00072
69.8 0.0034
69.85 0.00599
69.9 0.00381
69.95 0.00557
70 0.00803
70.05 0.00848
70.1 0.00485
70.15 0.00303
70.2 0.00489
70.25 0.00882
70.3 0.0119
70.35 0.00954
70.4 0.00503
70.45 0.00335
70.5 0.00132
70.55 0.00116
70.6 0.00151
70.65 0.00365
70.7 0.00764
70.75 0.00907
70.8 0.00931
70.85 0.01221
70.9 0.01449
70.95 0.01654
71 0.02001
71.05 0.02411
71.1 0.02718
71.15 0.02547
71.2 0.01925
71.25 0.0123
71.3 0.00319
71.35 -0.00157
71.4 -0.00436
71.45 -0.00783
71.5 -0.01226
71.55 -0.0145
71.6 -0.01872
71.65 -0.024
71.7 -0.02183
71.75 -0.01548
71.8 -0.01378
71.85 -0.012
71.9 -0.01398
71.95 -0.01739
72 -0.01825
72.05 -0.01386
72.1 -0.00716
72.15 -0.00332
72.2 0.00143
72.25 0.0013
72.3 0.00096
72.35 0.00049
72.4 0.00196
72.45 0.00314
72.5 0.00041
72.55 0.00205
72.6 0.00159
72.65 0.00092
72.7 -0.00163
72.75 -0.00101
72.8 -0.00296
72.85 -0.00255
72.9 0.00138
72.95 0.0053
73 0.01054
73.05 0.00837
73.1 0.00993
73.15 0.01078
73.2 0.01415
73.25 0.01478
73.3 0.01432
73.35 0.00924
73.4 0.00765
73.45 0.00392
73.5 0.00237
73.55 0.00287
73.6 0.00477
73.65 0.00805
73.7 0.01101
73.75 0.01064
73.8 0.00557
73.85 0.00165
73.9 0.00143
73.95 0.00128
74 -0.00126
74.05 -0.00467
74.1 -0.00974
74.15 -0.01496
74.2 -0.02128
74.25 -0.02095
74.3 -0.01752
74.35 -0.01813
74.4 -0.01797
74.45 -0.02028
74.5 -0.01626
74.55 -0.0104
74.6 -0.00558
74.65 -0.00012
74.7 0.00087
74.75 -0.0008
74.8 -0.00584
74.85 -0.00682
74.9 -0.01106
74.95 -0.01328
75 -0.01049
75.05 -0.01066
75.1 -0.01244
75.15 -0.01291
75.2 -0.01432
75.25 -0.01078
75.3 -0.00806
75.35 -0.00349
75.4 -0.00237
75.45 -0.00382
75.5 -0.00116
75.55 -0.00032
75.6 0.00265
75.65 0.00101
75.7 0.0031
75.75 0.00312
75.8 0.00111
75.85 -0.00171
75.9 -0.00298
75.95 -0.00587
76 -0.00927
76.05 -0.01449
76.1 -0.01605
76.15 -0.01954
76.2 -0.02013
76.25 -0.02202
76.3 -0.02146
76.35 -0.01844
76.4 -0.01797
76.45 -0.01587
76.5 -0.01338
76.55 -0.00906
76.6 -0.00493
76.65 -0.00451
76.7 -0.00221
76.75 -0.00233
76.8 0.00048
76.85 0.00253
76.9 0.00181
76.95 0.0003
77 -0.002
77.05 -0.00268
77.1 0.001
77.15 0.00449
77.2 0.0036
77.25 0.00175
77.3 0.0013
77.35 0.00404
77.4 0.00515
77.45 0.00807
77.5 0.00824
77.55 0.01168
77.6 0.01293
77.65 0.014
77.7 0.01745
77.75 0.01437
77.8 0.00866
77.85 0.00572
77.9 0.00177
77.95 -0.00359
78 -0.00593
78.05 -0.00611
78.1 -0.00628
78.15 -0.00969
78.2 -0.00729
78.25 -0.00164
78.3 0.00042
78.35 0.00238
78.4 0.002
78.45 0.0054
78.5 0.00911
78.55 0.01241
78.6 0.01154
78.65 0.01327
78.7 0.01419
78.75 0.01472
78.8 0.01222
78.85 0.01097
78.9 0.00859
78.95 0.00568
79 0.00571
79.05 0.00643
79.1 0.00496
79.15 -0.00019
79.2 -0.00599
79.25 -0.00601
79.3 -0.00554
79.35 -0.00851
79.4 -0.00594
79.45 -0.00826
79.5 -0.01122
79.55 -0.0123
79.6 -0.00994
79.65 -0.00407
79.7 -0.00188
79.75 0.00304
79.8 0.00688
79.85 0.00821
79.9 0.0098
79.95 0.01093
80 0.01254
80.05 0.01173
80.1 0.01089
80.15 0.00617
80.2 -0.00072
80.25 -0.00659
80.3 -0.01084
80.35 -0.01104
80.4 -0.01072
80.45 -0.00729
80.5 -0.00336
80.55 -0.00169
80.6 0.00316
80.65 0.00423
80.7 0.00094
80.75 -0.00077
80.8 -0.00306
80.85 -0.00387
80.9 -0.00767
80.95 -0.01224
81 -0.01383
81.05 -0.01043
81.1 -0.00423
81.15 0.00163
81.2 0.0071
81.25 0.0087
81.3 0.01265
81.35 0.01215
81.4 0.01183
81.45 0.00786
81.5 0.00144
81.55 -0.00698
81.6 -0.00833
81.65 -0.00811
81.7 -0.00538
81.75 -0.00425
81.8 -0.00679
81.85 -0.00797
81.9 -0.01028
81.95 -0.01214
82 -0.01334
82.05 -0.01009
82.1 -0.00442
82.15 0.00123
82.2 0.00361
82.25 0.00682
82.3 0.00848
82.35 0.01177
82.4 0.01212
82.45 0.0092
82.5 0.00804
82.55 0.00415
82.6 -0.00283
82.65 -0.00458
82.7 -0.00891
82.75 -0.00997
82.8 -0.01038
82.85 -0.01064
82.9 -0.00723
82.95 -0.00219
83 0.00175
83.05 0.00111
83.1 -0.00101
83.15 -0.00199
83.2 -0.00525
83.25 -0.01121
83.3 -0.01385
83.35 -0.01612
83.4 -0.01953
83.45 -0.01978
83.5 -0.01728
83.55 -0.018
83.6 -0.01976
83.65 -0.01674
83.7 -0.013
83.75 -0.00804
83.8 -0.00668
83.85 -0.00604
83.9 -0.00694
83.95 -0.00979
84 -0.01181
84.05 -0.0107
84.1 -0.00989
84.15 -0.01083
84.2 -0.0072
84.25 -0.00468
84.3 -0.00135
84.35 -0.00282
84.4 -0.0005
84.45 0.00007
84.5 -0.00286
84.55 -0.00203
84.6 -0.00471
84.65 -0.00595
84.7 -0.00926
84.75 -0.01243
84.8 -0.01135
84.85 -0.01124
84.9 -0.0118
84.95 -0.00904
85 -0.00581
85.05 -0.00334
85.1 -0.00069
85.15 -0.00289
85.2 0.0004
85.25 -0.00091
85.3 -0.0045
85.35 -0.00542
85.4 -0.00777
85.45 -0.01034
85.5 -0.01494
85.55 -0.01926
85.6 -0.01728
85.65 -0.01024
85.7 -0.00488
85.75 0.00286
85.8 0.00649
85.85 0.01054
85.9 0.01665
85.95 0.01652
86 0.01447
86.05 0.01324
86.1 0.00796
86.15 0.00651
86.2 0.00469
86.25 0.00021
86.3 -0.00028
86.35 0.00192
86.4 0.00324
86.45 0.00046
86.5 -0.00466
86.55 -0.00473
86.6 -0.0067
86.65 -0.00555
86.7 -0.00661
86.75 -0.0079
86.8 -0.00896
86.85 -0.00733
86.9 -0.00239
86.95 0.00426
87 0.00556
87.05 0.00417
87.1 0.00168
87.15 -0.00387
87.2 -0.00585
87.25 -0.00351
87.3 0.00106
87.35 0.00614
87.4 0.00517
87.45 0.00043
87.5 -0.00368
87.55 -0.00694
87.6 -0.00437
87.65 -0.00439
87.7 -0.00787
87.75 -0.01205
87.8 -0.0132
87.85 -0.0094
87.9 -0.0089
87.95 -0.00473
88 -0.00321
88.05 -0.0022
88.1 0.00134
88.15 0.00322
88.2 0.00418
88.25 0.0077
88.3 0.00891
88.35 0.00886
88.4 0.00782
88.45 0.00407
88.5 -0.00079
88.55 -0.00526
88.6 -0.00826
88.65 -0.00609
88.7 -0.00269
88.75 0.0005
88.8 0.0014
88.85 -0.00018
88.9 -0.00037
88.95 0.00191
89 0.00625
89.05 0.00889
89.1 0.01418
89.15 0.0144
89.2 0.01489
89.25 0.01668
89.3 0.0129
89.35 0.00555
89.4 -0.00344
89.45 -0.00795
89.5 -0.00942
89.55 -0.01222
89.6 -0.01649
89.65 -0.01703
89.7 -0.01725
89.75 -0.01158
89.8 -0.00324
89.85 0.00535
89.9 0.01286
89.95 0.0186
90 0.02239
90.05 0.0227
90.1 0.02131
90.15 0.01951
90.2 0.01692
90.25 0.01779
90.3 0.01729
90.35 0.01704
90.4 0.01491
90.45 0.01463
90.5 0.00957
90.55 0.00213
90.6 0.00065
90.65 0.00269
90.7 0.00637
90.75 0.01116
90.8 0.01123
90.85 0.01032
90.9 0.00821
90.95 0.00496
91 0.00469
91.05 0.00556
91.1 0.00538
91.15 0.00471
91.2 0.00375
91.25 0.00415
91.3 0.00142
91.35 -0.0024
91.4 -0.00078
91.45 -0.00336
91.5 -0.00331
91.55 -0.00529
91.6 -0.00411
91.65 -0.00626
91.7 -0.00503
91.75 -0.00707
91.8 -0.00791
91.85 -0.0044
91.9 -0.00462
91.95 -0.00855
92 -0.01218
92.05 -0.01533
92.1 -0.01207
92.15 -0.00834
92.2 -0.00827
92.25 -0.01021
92.3 -0.01359
92.35 -0.01697
92.4 -0.01644
92.45 -0.01487
92.5 -0.0092
92.55 -0.00476
92.6 -0.00165
92.65 0.00373
92.7 0.00859
92.75 0.01462
92.8 0.02009
92.85 0.01856
92.9 0.01459
92.95 0.01352
93 0.01491
93.05 0.01175
93.1 0.01205
93.15 0.00784
93.2 0.00576
93.25 0.00553
93.3 0.00636
93.35 0.00262
93.4 0.00416
93.45 0.00069
93.5 -0.00527
93.55 -0.00471
93.6 -0.00191
93.65 -0.00006
93.7 0.00237
93.75 0.00365
93.8 0.0062
93.85 0.00462
93.9 0.0056
93.95 0.00161
94 -0.00107
94.05 -0.00411
94.1 -0.0057
94.15 -0.00456
94.2 -0.00265
94.25 -0.00412
94.3 -0.00302
94.35 -0.00284
94.4 0.00114
94.45 0.00557
94.5 0.01175
94.55 0.01213
94.6 0.01531
94.65 0.01659
94.7 0.01271
94.75 0.01044
94.8 0.00464
94.85 0.00161
94.9 -0.00375
94.95 -0.00649
95 -0.00476
95.05 -0.00705
95.1 -0.01135
95.15 -0.01043
95.2 -0.00651
95.25 -0.00675
95.3 -0.00327
95.35 0.00137
95.4 0.00037
95.45 0.00091
95.5 0.00002
95.55 0.00118
95.6 0.00161
95.65 -0.00179
95.7 -0.0034
95.75 -0.00708
95.8 -0.00823
95.85 -0.0119
95.9 -0.01465
95.95 -0.01357
96 -0.01057
96.05 -0.00617
96.1 -0.00642
96.15 -0.00195
96.2 -0.00185
96.25 0.00056
96.3 -0.00196
96.35 -0.00556
96.4 -0.01001
96.45 -0.00801
96.5 -0.00483
96.55 -0.00389
96.6 0.00079
96.65 0.00114
96.7 0.00361
96.75 0.00286
96.8 0.00238
96.85 -0.00142
96.9 -0.00222
96.95 -0.00478
97 -0.00439
97.05 -0.00766
97.1 -0.0059
97.15 -0.00252
97.2 -0.00143
97.25 -0.00353
97.3 -0.00206
97.35 -0.00445
97.4 -0.00827
97.45 -0.01281
97.5 -0.0136
97.55 -0.01482
97.6 -0.0158
97.65 -0.01821
97.7 -0.01515
97.75 -0.01189
97.8 -0.00785
97.85 -0.00504
97.9 -0.00387
97.95 0.00133
98 0.00235
98.05 0.00598
98.1 0.00624
98.15 0.0054
98.2 0.00124
98.25 -0.00535
98.3 -0.00766
98.35 -0.00458
98.4 -0.00407
98.45 -0.00636
98.5 -0.00685
98.55 -0.00814
98.6 -0.00498
98.65 -0.0028
98.7 -0.00163
98.75 0.00263
98.8 0.00528
98.85 0.00837
98.9 0.01292
98.95 0.01172
99 0.00761
99.05 0.0062
99.1 0.00786
99.15 0.01054
99.2 0.01287
99.25 0.01261
99.3 0.01055
99.35 0.00534
99.4 0.00355
99.45 -0.00093
99.5 -0.00446
99.55 -0.00282
99.6 0.00204
99.65 0.00606
99.7 0.01039
99.75 0.01058
99.8 0.01039
99.85 0.00526
99.9 -0.00135
99.95 -0.00493
