0 0
0.05 0.00401
0.1 0.01339
0.15 0.02711
0.2 0.03496
0.25 0.03811
0.3 0.04428
0.35 0.05112
0.4 0.05578
0.45 0.0576
0.5 0.05608
0.55 0.05395
0.6 0.04924
0.65 0.04248
0.7 0.04287
0.75 0.03999
0.8 0.03541
0.85 0.03544
0.9 0.03889
0.95 0.04352
1 0.04868
1.05 0.04864
1.1 0.04597
1.15 0.04045
1.2 0.03686
1.25 0.03758
1.3 0.04039
1.35 0.03833
1.4 0.03879
1.45 0.03628
1.5 0.03735
1.55 0.04157
1.6 0.04712
1.65 0.05174
1.7 0.05495
1.75 0.05328
1.8 0.05207
1.85 0.04801
1.9 0.04708
1.95 0.04882
2 0.04996
2.05 0.04612
2.1 0.04618
2.15 0.04755
2.2 0.04816
2.25 0.0444
2.3 0.04076
2.35 0.04052
2.4 0.03844
2.45 0.03281
2.5 0.02784
2.55 0.0205
2.6 0.01731
2.65 0.01922
2.7 0.01684
2.75 0.01304
2.8 0.0141
2.85 0.018
2.9 0.02065
2.95 0.02644
3 0.02853
3.05 0.02929
3.1 0.03198
3.15 0.03204
3.2 0.02861
3.25 0.02947
3.3 0.0295
3.35 0.02556
3.4 0.02562
3.45 0.02655
3.5 0.02438
3.55 0.02509
3.6 0.02522
3.65 0.02092
3.7 0.01359
3.75 0.00888
3.8 0.00815
3.85 0.01236
3.9 0.01647
3.95 0.02285
4 0.02204
4.05 0.02496
4.1 0.02413
4.15 0.02501
4.2 0.02628
4.25 0.02463
4.3 0.01764
4.35 0.01091
4.4 0.00466
4.45 -0.00427
4.5 -0.01784
4.55 -0.03394
4.6 -0.05358
4.65 -0.07397
4.7 -0.09109
4.75 -0.11185
4.8 -0.13537
4.85 -0.15929
4.9 -0.18913
4.95 -0.2173
5 -0.25367
5.05 -0.29674
5.1 -0.34789
5.15 -0.40285
5.2 -0.46319
5.25 -0.52588
5.3 -0.59203
5.35 -0.6627
5.4 -0.73868
5.45 -0.82188
5.5 -0.91519
5.55 -1.01171
5.6 -1.10918
5.65 -1.20716
5.7 -1.30617
5.75 -1.41017
5.8 -1.51649
5.85 -1.61339
5.9 -1.71017
5.95 -1.80354
6 -1.88952
6.05 -1.9692
6.1 -2.04594
6.15 -2.11464
6.2 -2.17877
6.25 -2.24226
6.3 -2.29729
6.35 -2.35077
6.4 -2.40243
6.45 -2.44646
6.5 -2.48236
6.55 -2.51179
6.6 -2.52536
6.65 -2.52209
6.7 -2.50432
6.75 -2.47838
6.8 -2.43945
6.85 -2.38939
6.9 -2.32193
6.95 -2.23845
7 -2.14227
7.05 -2.02855
7.1 -1.9007
7.15 -1.75455
7.2 -1.59063
7.25 -1.41619
7.3 -1.23167
7.35 -1.04083
7.4 -0.83977
7.45 -0.6346
7.5 -0.42991
7.55 -0.22283
7.6 -0.01658
7.65 0.18914
7.7 0.38613
7.75 0.57477
7.8 0.75449
7.85 0.92693
7.9 1.09357
7.95 1.2474
8 1.38509
8.05 1.50721
8.1 1.61723
8.15 1.71936
8.2 1.80944
8.25 1.89329
8.3 1.96286
8.35 2.02281
8.4 2.07593
8.45 2.11689
8.5 2.15072
8.55 2.1788
8.6 2.2025
8.65 2.21648
8.7 2.22185
8.75 2.22001
8.8 2.22005
8.85 2.21281
8.9 2.20824
8.95 2.19612
9 2.17976
9.05 2.16005
9.1 2.13932
9.15 2.12277
9.2 2.10241
9.25 2.07997
9.3 2.0563
9.35 2.03624
9.4 2.0203
9.45 2.00013
9.5 1.98007
9.55 1.9546
9.6 1.93148
9.65 1.9102
9.7 1.88852
9.75 1.86505
9.8 1.83506
9.85 1.80717
9.9 1.77296
9.95 1.73393
10 1.69481
10.05 1.65446
10.1 1.61431
10.15 1.57212
10.2 1.53341
10.25 1.49765
10.3 1.46352
10.35 1.42249
10.4 1.38177
10.45 1.33908
10.5 1.29656
10.55 1.25328
10.6 1.20848
10.65 1.16531
10.7 1.12364
10.75 1.08074
10.8 1.03601
10.85 0.98492
10.9 0.93732
10.95 0.8859
11 0.83597
11.05 0.78908
11.1 0.74528
11.15 0.70173
11.2 0.65461
11.25 0.60827
11.3 0.55819
11.35 0.51362
11.4 0.46712
11.45 0.42147
11.5 0.38186
11.55 0.3432
11.6 0.30973
11.65 0.27798
11.7 0.24068
11.75 0.20688
11.8 0.17297
11.85 0.13728
11.9 0.10738
11.95 0.08001
12 0.05438
12.05 0.02992
12.1 0.00538
12.15 -0.01687
12.2 -0.03729
12.25 -0.05814
12.3 -0.0777
12.35 -0.1026
12.4 -0.12936
12.45 -0.15452
12.5 -0.18107
12.55 -0.20398
12.6 -0.22564
12.65 -0.24235
12.7 -0.25524
12.75 -0.26919
12.8 -0.27896
12.85 -0.29233
12.9 -0.30255
12.95 -0.30947
13 -0.3178
13.05 -0.33055
13.1 -0.34298
13.15 -0.35416
13.2 -0.36015
13.25 -0.36279
13.3 -0.36613
13.35 -0.36563
13.4 -0.36194
13.45 -0.36179
13.5 -0.36147
13.55 -0.3661
13.6 -0.37453
13.65 -0.38201
13.7 -0.38651
13.75 -0.39147
13.8 -0.39676
13.85 -0.39746
13.9 -0.40024
13.95 -0.39975
14 -0.39506
14.05 -0.39365
14.1 -0.39233
14.15 -0.3881
14.2 -0.38504
14.25 -0.3837
14.3 -0.38317
14.35 -0.37786
14.4 -0.36788
14.45 -0.35549
14.5 -0.34488
14.55 -0.34006
14.6 -0.33123
14.65 -0.32209
14.7 -0.31273
14.75 -0.30634
14.8 -0.30524
14.85 -0.30227
14.9 -0.30154
14.95 -0.2988
15 -0.29769
15.05 -0.2988
15.1 -0.29453
15.15 -0.29348
15.2 -0.2872
15.25 -0.28225
15.3 -0.27552
15.35 -0.27428
15.4 -0.27254
15.45 -0.27407
15.5 -0.27186
15.55 -0.2702
15.6 -0.26291
15.65 -0.25947
15.7 -0.25159
15.75 -0.24356
15.8 -0.23423
15.85 -0.23222
15.9 -0.22791
15.95 -0.22098
16 -0.21405
16.05 -0.21384
16.1 -0.21479
16.15 -0.21272
16.2 -0.21384
16.25 -0.21656
16.3 -0.21423
16.35 -0.20902
16.4 -0.20759
16.45 -0.20809
16.5 -0.20994
16.55 -0.20926
16.6 -0.20399
16.65 -0.20174
16.7 -0.19646
16.75 -0.1878
16.8 -0.18239
16.85 -0.1777
16.9 -0.17213
16.95 -0.1684
17 -0.16404
17.05 -0.16225
17.1 -0.15619
17.15 -0.1547
17.2 -0.14981
17.25 -0.14256
17.3 -0.13898
17.35 -0.13572
17.4 -0.13585
17.45 -0.13677
17.5 -0.13729
17.55 -0.13836
17.6 -0.13567
17.65 -0.13287
17.7 -0.13185
17.75 -0.13187
17.8 -0.12792
17.85 -0.12609
17.9 -0.12799
17.95 -0.12794
18 -0.1298
18.05 -0.13089
18.1 -0.12864
18.15 -0.12488
18.2 -0.12044
18.25 -0.1136
18.3 -0.11015
18.35 -0.1104
18.4 -0.10645
18.45 -0.10356
18.5 -0.10106
18.55 -0.09985
18.6 -0.10061
18.65 -0.10398
18.7 -0.10927
18.75 -0.10685
18.8 -0.10253
18.85 -0.09798
18.9 -0.0963
18.95 -0.09587
19 -0.09531
19.05 -0.09239
19.1 -0.0933
19.15 -0.09161
19.2 -0.08706
19.25 -0.08362
19.3 -0.0846
19.35 -0.08333
19.4 -0.08607
19.45 -0.08818
19.5 -0.087
19.55 -0.08523
19.6 -0.08255
19.65 -0.08245
19.7 -0.08345
19.75 -0.08226
19.8 -0.07844
19.85 -0.07818
19.9 -0.08115
19.95 -0.08524
20 -0.08597
20.05 -0.08879
20.1 -0.09143
20.15 -0.09248
20.2 -0.0881
20.25 -0.07812
20.3 -0.06574
20.35 -0.05726
20.4 -0.05172
20.45 -0.05215
20.5 -0.04886
20.55 -0.04946
20.6 -0.05112
20.65 -0.04742
20.7 -0.04776
20.75 -0.04924
20.8 -0.05038
20.85 -0.05406
20.9 -0.053
20.95 -0.04828
21 -0.04311
21.05 -0.04211
21.1 -0.04491
21.15 -0.04363
21.2 -0.03853
21.25 -0.03126
21.3 -0.0261
21.35 -0.02301
21.4 -0.02342
21.45 -0.02567
21.5 -0.03115
21.55 -0.03047
21.6 -0.0316
21.65 -0.03271
21.7 -0.03194
21.75 -0.03086
21.8 -0.02689
21.85 -0.02141
21.9 -0.0222
21.95 -0.02825
22 -0.03698
22.05 -0.04383
22.1 -0.04424
22.15 -0.04147
22.2 -0.04123
22.25 -0.04116
22.3 -0.03993
22.35 -0.0337
22.4 -0.02757
22.45 -0.02484
22.5 -0.02508
22.55 -0.02429
22.6 -0.02058
22.65 -0.02215
22.7 -0.02753
22.75 -0.0269
22.8 -0.03067
22.85 -0.03364
22.9 -0.03824
22.95 -0.04374
23 -0.05005
23.05 -0.04781
23.1 -0.04471
23.15 -0.04485
23.2 -0.03946
23.25 -0.03561
23.3 -0.03101
23.35 -0.02448
23.4 -0.01947
23.45 -0.01228
23.5 -0.01043
23.55 -0.01036
23.6 -0.0109
23.65 -0.01607
23.7 -0.02405
23.75 -0.03162
23.8 -0.03565
23.85 -0.03324
23.9 -0.03069
23.95 -0.02828
24 -0.0243
24.05 -0.02387
24.1 -0.02274
24.15 -0.0229
24.2 -0.02539
24.25 -0.02213
24.3 -0.02041
24.35 -0.01523
24.4 -0.00815
24.45 -0.0074
24.5 -0.01066
24.55 -0.00967
24.6 -0.0093
24.65 -0.0079
24.7 -0.00372
24.75 -0.00272
24.8 -0.0071
24.85 -0.01421
24.9 -0.02208
24.95 -0.02175
25 -0.01619
25.05 -0.01096
25.1 -0.01138
25.15 -0.0145
25.2 -0.0139
25.25 -0.01181
25.3 -0.00982
25.35 -0.00603
25.4 -0.00183
25.45 0.0013
25.5 0.0047
25.55 0.00995
25.6 0.00826
25.65 0.00407
25.7 -0.00102
25.75 -0.00053
25.8 -0.00413
25.85 -0.0071
25.9 -0.00926
25.95 -0.00603
26 -0.00302
26.05 -0.00437
26.1 -0.00226
26.15 0.00086
26.2 0.00007
26.25 -0.00375
26.3 -0.00916
26.35 -0.01115
26.4 -0.00882
26.45 -0.0078
26.5 -0.00798
26.55 -0.00746
26.6 -0.00875
26.65 -0.00625
26.7 -0.00508
26.75 -0.00441
26.8 -0.00448
26.85 -0.00518
26.9 -0.00859
26.95 -0.00718
27 -0.00365
27.05 0.00087
27.1 0.00332
27.15 0.00227
27.2 -0.0002
27.25 -0.00325
27.3 -0.00288
27.35 -0.00453
27.4 -0.00665
27.45 -0.01144
27.5 -0.01288
27.55 -0.0178
27.6 -0.01918
27.65 -0.01579
27.7 -0.01523
27.75 -0.01166
27.8 -0.00813
27.85 -0.00841
27.9 -0.00812
27.95 -0.0043
28 -0.0013
28.05 -0.0001
28.1 0.00378
28.15 0.00102
28.2 -0.00525
28.25 -0.00652
28.3 -0.01015
28.35 -0.01314
28.4 -0.01769
28.45 -0.02248
28.5 -0.02026
28.55 -0.01712
28.6 -0.01754
28.65 -0.01925
28.7 -0.01865
28.75 -0.01886
28.8 -0.02227
28.85 -0.02578
28.9 -0.0262
28.95 -0.02678
29 -0.02538
29.05 -0.02437
29.1 -0.02273
29.15 -0.02238
29.2 -0.02086
29.25 -0.01719
29.3 -0.01657
29.35 -0.01056
29.4 -0.00462
29.45 -0.00026
29.5 -0.00185
29.55 -0.00309
29.6 -0.00718
29.65 -0.0141
29.7 -0.017
29.75 -0.01591
29.8 -0.01275
29.85 -0.01214
29.9 -0.01499
29.95 -0.0198
30 -0.02081
30.05 -0.01988
30.1 -0.01714
30.15 -0.01674
30.2 -0.02058
30.25 -0.02069
30.3 -0.01884
30.35 -0.01821
30.4 -0.02091
30.45 -0.02616
30.5 -0.03172
30.55 -0.03571
30.6 -0.03791
30.65 -0.03747
30.7 -0.03364
30.75 -0.03248
30.8 -0.02582
30.85 -0.01729
30.9 -0.01503
30.95 -0.01592
31 -0.01402
31.05 -0.01265
31.1 -0.01082
31.15 -0.00596
31.2 -0.00399
31.25 -0.00475
31.3 -0.00755
31.35 -0.00941
31.4 -0.00637
31.45 -0.00276
31.5 0.00339
31.55 0.01055
31.6 0.01605
31.65 0.01982
31.7 0.02317
31.75 0.02278
31.8 0.02587
31.85 0.02426
31.9 0.02364
31.95 0.02508
32 0.02961
32.05 0.03492
32.1 0.03983
32.15 0.04154
32.2 0.04485
32.25 0.04284
32.3 0.03861
32.35 0.03033
32.4 0.02256
32.45 0.02055
32.5 0.01805
32.55 0.01427
32.6 0.01087
32.65 0.01387
32.7 0.01243
32.75 0.00959
32.8 0.00644
32.85 0.00563
32.9 0.00716
32.95 0.00547
33 0.0014
33.05 -0.00058
33.1 0.00187
33.15 0.00073
33.2 0.00035
33.25 -0.00366
33.3 -0.00668
33.35 -0.01007
33.4 -0.00907
33.45 -0.00796
33.5 -0.00304
33.55 -0.00278
33.6 -0.00514
33.65 -0.00414
33.7 -0.00418
33.75 -0.00285
33.8 0.00293
33.85 0.01066
33.9 0.01149
33.95 0.00751
34 0.00553
34.05 0.00138
34.1 0.00062
34.15 -0.00092
34.2 -0.0024
34.25 0.00063
34.3 0.00295
34.35 0.0047
34.4 0.00551
34.45 0.00818
34.5 0.01379
34.55 0.01962
34.6 0.01936
34.65 0.01606
34.7 0.00878
34.75 0.00642
34.8 0.0058
34.85 0.00839
34.9 0.00975
34.95 0.00891
35 0.01159
35.05 0.00777
35.1 0.00156
35.15 0.00056
35.2 -0.00098
35.25 -0.00098
35.3 0.00231
35.35 0.00174
35.4 -0.00058
35.45 -0.00544
35.5 -0.00645
35.55 -0.00528
35.6 -0.00099
35.65 0.00347
35.7 0.00149
35.75 -0.00429
35.8 -0.00407
35.85 -0.00262
35.9 -0.00029
35.95 0.00165
36 0.00611
36.05 0.00988
36.1 0.01075
36.15 0.01089
36.2 0.00741
36.25 0.00571
36.3 0.00748
36.35 0.01078
36.4 0.0162
36.45 0.0162
36.5 0.01768
36.55 0.01402
36.6 0.01093
36.65 0.00622
36.7 0.00573
36.75 0.00025
36.8 -0.00768
36.85 -0.00995
36.9 -0.01275
36.95 -0.01098
37 -0.00467
37.05 0.0013
37.1 0.0061
37.15 0.00994
37.2 0.01131
37.25 0.01025
37.3 0.00471
37.35 -0.00001
37.4 -0.00125
37.45 -0.00471
37.5 -0.00604
37.55 -0.00498
37.6 -0.00134
37.65 -0.00178
37.7 -0.00355
37.75 -0.00047
37.8 0.00164
37.85 0.00551
37.9 0.0045
37.95 0.00541
38 0.00961
38.05 0.01424
38.1 0.01813
38.15 0.01459
38.2 0.00899
38.25 0.00789
38.3 0.00637
38.35 0.00632
38.4 0.00734
38.45 0.00499
38.5 -0.00086
38.55 -0.00093
38.6 0.00303
38.65 0.00818
38.7 0.01153
38.75 0.01235
38.8 0.00935
38.85 0.00774
38.9 0.00268
38.95 -0.00391
39 -0.00574
39.05 -0.00775
39.1 -0.01146
39.15 -0.01423
39.2 -0.01827
39.25 -0.02421
39.3 -0.02884
39.35 -0.02712
39.4 -0.02521
39.45 -0.02639
39.5 -0.02436
39.55 -0.02427
39.6 -0.02453
39.65 -0.02157
39.7 -0.01991
39.75 -0.01309
39.8 -0.01069
39.85 -0.01267
39.9 -0.01612
39.95 -0.01243
40 -0.01292
40.05 -0.01341
40.1 -0.0086
40.15 -0.00119
40.2 -0.00088
40.25 0.00135
40.3 0.00298
40.35 0.00771
40.4 0.00672
40.45 0.00621
40.5 0.00103
40.55 -0.00447
40.6 -0.00341
40.65 -0.00114
40.7 0.00236
40.75 0.00067
40.8 0.00112
40.85 0.00478
40.9 0.01109
40.95 0.01522
41 0.01267
41.05 0.00766
41.1 0.00797
41.15 0.00601
41.2 0.00161
41.25 0.00213
41.3 0.0002
41.35 0.00207
41.4 0.00164
41.45 0.00387
41.5 0.00324
41.55 0.00316
41.6 0.00543
41.65 0.00587
41.7 0.00417
41.75 0.0055
41.8 0.00818
41.85 0.01237
41.9 0.01022
41.95 0.00612
42 0.00336
42.05 -0.00083
42.1 -0.00745
42.15 -0.01555
42.2 -0.01801
42.25 -0.01586
42.3 -0.01394
42.35 -0.01492
42.4 -0.0152
42.45 -0.0116
42.5 -0.00875
42.55 -0.00346
42.6 0.00408
42.65 0.008
42.7 0.0128
42.75 0.01908
42.8 0.0242
42.85 0.02537
42.9 0.02265
42.95 0.0183
43 0.01035
43.05 0.00863
43.1 0.00849
43.15 0.00593
43.2 0.00466
43.25 0.00617
43.3 0.00337
43.35 -0.00089
43.4 -0.00757
43.45 -0.0127
43.5 -0.01254
43.55 -0.01401
43.6 -0.01831
43.65 -0.02184
43.7 -0.01826
43.75 -0.01208
43.8 -0.00775
43.85 -0.00342
43.9 -0.0048
43.95 -0.00822
44 -0.00773
44.05 -0.00247
44.1 -0.00112
44.15 0.00128
44.2 -0.00162
44.25 -0.00548
44.3 -0.00489
44.35 -0.00515
44.4 -0.00266
44.45 -0.00414
44.5 -0.00887
44.55 -0.01332
44.6 -0.01734
44.65 -0.01832
44.7 -0.01465
44.75 -0.01264
44.8 -0.00606
44.85 -0.00316
44.9 0.00166
44.95 0.00237
45 0.00463
45.05 0.00927
45.1 0.01305
45.15 0.01136
45.2 0.01266
45.25 0.0159
45.3 0.01298
45.35 0.00857
45.4 0.00892
45.45 0.00509
45.5 0.0056
45.55 0.00768
45.6 0.00577
45.65 0.00304
45.7 0.00324
45.75 -0.00157
45.8 -0.00278
45.85 -0.00073
45.9 -0.00317
45.95 -0.00025
46 0.00523
46.05 0.00685
46.1 0.00307
46.15 0.00447
46.2 0.00476
46.25 0.00089
46.3 0.00237
46.35 0.00738
46.4 0.0098
46.45 0.00892
46.5 0.01021
46.55 0.006
46.6 -0.00154
46.65 -0.00961
46.7 -0.00989
46.75 -0.00937
46.8 -0.01185
46.85 -0.01523
46.9 -0.01253
46.95 -0.01418
47 -0.01024
47.05 -0.00635
47.1 -0.00263
47.15 -0.00475
47.2 -0.00861
47.25 -0.0121
47.3 -0.01567
47.35 -0.01362
47.4 -0.00899
47.45 -0.00495
47.5 0.00002
47.55 0.00473
47.6 0.01111
47.65 0.01005
47.7 0.0119
47.75 0.01433
47.8 0.01347
47.85 0.00831
47.9 0.00497
47.95 0.00234
48 -0.00229
48.05 -0.00738
48.1 -0.00577
48.15 -0.00109
48.2 0.00029
48.25 0.00194
48.3 0.00166
48.35 0.00391
48.4 0.00027
48.45 -0.00496
48.5 -0.00606
48.55 -0.00388
48.6 0.00182
48.65 0.00849
48.7 0.00735
48.75 0.0094
48.8 0.00572
48.85 0.00008
48.9 -0.00169
48.95 -0.0048
49 -0.00778
49.05 -0.0059
49.1 -0.00523
49.15 -0.00894
49.2 -0.01452
49.25 -0.01947
49.3 -0.01979
49.35 -0.0199
49.4 -0.02028
49.45 -0.0177
49.5 -0.01282
49.55 -0.0076
49.6 -0.00364
49.65 0.00133
49.7 0.00287
49.75 0.00009
49.8 0.00247
49.85 0.00219
49.9 -0.0017
49.95 -0.00618
50 -0.01118
50.05 -0.00971
50.1 -0.00846
50.15 -0.00711
50.2 -0.00271
50.25 0.00054
50.3 0.0004
50.35 -0.00087
50.4 -0.00322
50.45 -0.00039
50.5 0.00053
50.55 0.00516
50.6 0.00362
50.65 0.00127
50.7 -0.00291
50.75 -0.00839
50.8 -0.01096
50.85 -0.00775
50.9 -0.00755
50.95 -0.00352
51 0.00147
51.05 0.007
51.1 0.0111
51.15 0.01251
51.2 0.01404
51.25 0.01499
51.3 0.01569
51.35 0.01552
51.4 0.00994
51.45 0.00326
51.5 0.00109
51.55 0.00044
51.6 0.00289
51.65 0.00048
51.7 -0.00331
51.75 -0.0027
51.8 -0.00133
51.85 0.00007
51.9 -0.00261
51.95 -0.00795
52 -0.01034
52.05 -0.01482
52.1 -0.01241
52.15 -0.01269
52.2 -0.00843
52.25 -0.00123
52.3 0.00019
52.35 -0.00098
52.4 -0.00158
52.45 -0.00277
52.5 -0.00261
52.55 -0.00562
52.6 -0.00385
52.65 -0.00287
52.7 -0.00646
52.75 -0.00497
52.8 -0.00199
52.85 0.0044
52.9 0.01263
52.95 0.01472
53 0.01423
53.05 0.01321
53.1 0.01319
53.15 0.01551
53.2 0.01345
53.25 0.00818
53.3 0.00441
53.35 0.00599
53.4 0.00862
53.45 0.01137
53.5 0.01365
53.55 0.01004
53.6 0.00893
53.65 0.00926
53.7 0.00944
53.75 0.00455
53.8 0.00403
53.85 0.00246
53.9 -0.00261
53.95 -0.0086
54 -0.01487
54.05 -0.01637
54.1 -0.01826
54.15 -0.01934
54.2 -0.02053
54.25 -0.02289
54.3 -0.02623
54.35 -0.02527
54.4 -0.01828
54.45 -0.01472
54.5 -0.00932
54.55 -0.00115
54.6 0.00523
54.65 0.00729
54.7 0.00913
54.75 0.01331
54.8 0.01564
54.85 0.013
54.9 0.00599
54.95 -0.00353
55 -0.00857
55.05 -0.00671
55.1 -0.0081
55.15 -0.00405
55.2 0.00262
55.25 0.00311
55.3 0.00632
55.35 0.00426
55.4 0.00539
55.45 0.00462
55.5 -0.00043
55.55 -0.00544
55.6 -0.00943
55.65 -0.01514
55.7 -0.01829
55.75 -0.01659
55.8 -0.01702
55.85 -0.01996
55.9 -0.02314
55.95 -0.02444
56 -0.02039
56.05 -0.01217
56.1 -0.00539
56.15 -0.00042
56.2 0.00018
56.25 0.00123
56.3 0.00103
56.35 0.00259
56.4 0.00771
56.45 0.00683
56.5 0.0055
56.55 0.00035
56.6 0.00091
56.65 -0.00061
56.7 -0.00486
56.75 -0.01078
56.8 -0.00974
56.85 -0.01181
56.9 -0.01598
56.95 -0.0152
57 -0.01497
57.05 -0.01501
57.1 -0.01372
57.15 -0.01023
57.2 -0.00442
57.25 -0.00079
57.3 0.00363
57.35 0.00689
57.4 0.00857
57.45 0.00808
57.5 0.00578
57.55 0.00353
57.6 0.00307
57.65 -0.0003
57.7 -0.00623
57.75 -0.01276
57.8 -0.01559
57.85 -0.01835
57.9 -0.02226
57.95 -0.02614
58 -0.02675
58.05 -0.02456
58.1 -0.02465
58.15 -0.02522
58.2 -0.01909
58.25 -0.01228
58.3 -0.00432
58.35 -0.00038
58.4 0.00216
58.45 0.00193
58.5 0.0034
58.55 0.00396
58.6 0.00795
58.65 0.0108
58.7 0.00815
58.75 0.00422
58.8 0.0001
58.85 -0.00627
58.9 -0.00724
58.95 -0.00661
59 -0.00525
59.05 -0.00766
59.1 -0.00802
59.15 -0.01098
59.2 -0.00891
59.25 -0.00194
59.3 0.00108
59.35 -0.00065
59.4 -0.00246
59.45 -0.00011
59.5 -0.00108
59.55 -0.0046
59.6 -0.00158
59.65 -0.00056
59.7 0.00279
59.75 0.00133
59.8 0.00043
59.85 0.00484
59.9 0.00731
59.95 0.00933
60 0.0104
60.05 0.01282
60.1 0.01095
60.15 0.0131
60.2 0.01351
60.25 0.01155
60.3 0.01085
60.35 0.01449
60.4 0.01884
60.45 0.01851
60.5 0.01839
60.55 0.01473
60.6 0.0125
60.65 0.01031
60.7 0.00983
60.75 0.01207
60.8 0.01258
60.85 0.01036
60.9 0.00896
60.95 0.00483
61 0.00017
61.05 0.00085
61.1 -0.0001
61.15 0.00222
61.2 0.0056
61.25 0.00344
61.3 -0.00205
61.35 -0.00559
61.4 -0.00894
61.45 -0.01217
61.5 -0.00922
61.55 -0.0091
61.6 -0.00483
61.65 0.00304
61.7 0.00489
61.75 0.00743
61.8 0.00623
61.85 0.00147
61.9 -0.00365
61.95 -0.01001
62 -0.00981
62.05 -0.01041
62.1 -0.00551
62.15 -0.00585
62.2 -0.00568
62.25 -0.00174
62.3 -0.00027
62.35 -0.00073
62.4 -0.00504
62.45 -0.00492
62.5 -0.00091
62.55 0.0029
62.6 0.0086
62.65 0.00817
62.7 0.00329
62.75 0.00444
62.8 0.00462
62.85 0.00895
62.9 0.01555
62.95 0.01664
63 0.02047
63.05 0.02326
63.1 0.02768
63.15 0.02474
63.2 0.02419
63.25 0.01797
63.3 0.01281
63.35 0.00802
63.4 0.00433
63.45 -0.00265
63.5 -0.00342
63.55 -0.00255
63.6 0.00176
63.65 0.0079
63.7 0.01211
63.75 0.00915
63.8 0.00309
63.85 -0.00405
63.9 -0.00928
63.95 -0.01551
64 -0.02108
64.05 -0.02659
64.1 -0.02376
64.15 -0.022
64.2 -0.02205
64.25 -0.02079
64.3 -0.016
64.35 -0.00773
64.4 -0.00206
64.45 0.00382
64.5 0.00566
64.55 0.00686
64.6 0.00733
64.65 0.01116
64.7 0.01015
64.75 0.00751
64.8 0.00661
64.85 0.00974
64.9 0.01435
64.95 0.01736
65 0.02212
65.05 0.02679
65.1 0.02983
65.15 0.03016
65.2 0.02972
65.25 0.02925
65.3 0.02514
65.35 0.01752
65.4 0.01326
65.45 0.00714
65.5 0.00647
65.55 0.00932
65.6 0.01415
65.65 0.01674
65.7 0.01419
65.75 0.01008
65.8 0.00973
65.85 0.00731
65.9 0.0007
65.95 -0.0049
66 -0.00906
66.05 -0.01419
66.1 -0.01311
66.15 -0.01563
66.2 -0.01354
66.25 -0.01357
66.3 -0.01357
66.35 -0.00823
66.4 -0.00619
66.45 -0.008
66.5 -0.00761
66.55 -0.00249
66.6 -0.00209
66.65 0.00232
66.7 0.00549
66.75 0.00987
66.8 0.00719
66.85 0.00024
66.9 -0.00566
66.95 -0.0109
67 -0.01623
67.05 -0.01959
67.1 -0.01871
67.15 -0.01964
67.2 -0.01925
67.25 -0.0212
67.3 -0.0197
67.35 -0.01663
67.4 -0.01629
67.45 -0.01094
67.5 -0.00662
67.55 0.00046
67.6 0.00746
67.65 0.01221
67.7 0.01506
67.75 0.01829
67.8 0.02161
67.85 0.01865
67.9 0.01513
67.95 0.00753
68 0.00282
68.05 0.00064
68.1 0.00032
68.15 0.0009
68.2 0.00001
68.25 -0.0007
68.3 -0.00039
68.35 0.00101
68.4 0.0002
68.45 0.00261
68.5 0.00802
68.55 0.00903
68.6 0.00705
68.65 0.00355
68.7 -0.00091
68.75 -0.00377
68.8 -0.00822
68.85 -0.01029
68.9 -0.01009
68.95 -0.00981
69 -0.01129
69.05 -0.0143
69.1 -0.01825
69.15 -0.02214
69.2 -0.02597
69.25 -0.02323
69.3 -0.0238
69.35 -0.02601
69.4 -0.02557
69.45 -0.01876
69.5 -0.01093
69.55 -0.00868
69.6 -0.00508
69.65 -0.00648
69.7 -0.00256
69.75 -0.00262
69.8 -0.00395
69.85 -0.007
69.9 -0.00362
69.95 -0.00479
70 -0.0083
70.05 -0.01058
70.1 -0.00782
70.15 -0.00364
70.2 -0.00497
70.25 -0.00981
70.3 -0.01285
70.35 -0.01059
70.4 -0.00771
70.45 -0.00272
70.5 0.00284
70.55 0.00744
70.6 0.01254
70.65 0.01827
70.7 0.02329
70.75 0.02894
70.8 0.02762
70.85 0.0287
70.9 0.02334
70.95 0.01748
71 0.01112
71.05 0.00999
71.1 0.01162
71.15 0.01127
71.2 0.00656
71.25 0.0076
71.3 0.01011
71.35 0.01044
71.4 0.01046
71.45 0.00509
71.5 0.00279
71.55 -0.00072
71.6 -0.00552
71.65 -0.01138
71.7 -0.01577
71.75 -0.01817
71.8 -0.01418
71.85 -0.00796
71.9 -0.00605
71.95 -0.00488
72 -0.00591
72.05 -0.00559
72.1 -0.00769
72.15 -0.00694
72.2 -0.0024
72.25 0.00011
72.3 -0.00156
72.35 0.00138
72.4 0.00405
72.45 0.00182
72.5 0.00441
72.55 0.00469
72.6 0.00102
72.65 -0.00298
72.7 -0.00966
72.75 -0.0148
72.8 -0.01673
72.85 -0.01403
72.9 -0.00796
72.95 0.00068
73 0.00215
73.05 0.00016
73.1 -0.00442
73.15 -0.01004
73.2 -0.01355
73.25 -0.01694
73.3 -0.02187
73.35 -0.02004
73.4 -0.01975
73.45 -0.01734
73.5 -0.01758
73.55 -0.01482
73.6 -0.00986
73.65 -0.0017
73.7 0.00752
73.75 0.01283
73.8 0.01213
73.85 0.01546
73.9 0.01656
73.95 0.01166
74 0.00515
74.05 0.00195
74.1 -0.002
74.15 -0.00248
74.2 -0.00089
74.25 -0.00279
74.3 -0.00397
74.35 -0.00299
74.4 -0.0002
74.45 -0.00125
74.5 0.00172
74.55 0.007
74.6 0.01177
74.65 0.0148
74.7 0.01704
74.75 0.01318
74.8 0.00817
74.85 0.00163
74.9 -0.00149
74.95 -0.00605
75 -0.00841
75.05 -0.00686
75.1 -0.00973
75.15 -0.01357
75.2 -0.01254
75.25 -0.01005
75.3 -0.00876
75.35 -0.00253
75.4 -0.00199
75.45 -0.00533
75.5 -0.00659
75.55 -0.01128
75.6 -0.01061
75.65 -0.0112
75.7 -0.00757
75.75 -0.0031
75.8 0.0044
75.85 0.01074
75.9 0.01521
75.95 0.01726
76 0.01992
76.05 0.02233
76.1 0.02085
76.15 0.01787
76.2 0.01387
76.25 0.00777
76.3 0.00561
76.35 0.00131
76.4 0.00014
76.45 0.00355
76.5 0.0095
76.55 0.01571
76.6 0.01633
76.65 0.01765
76.7 0.01251
76.75 0.00729
76.8 0.0031
76.85 0.00172
76.9 -0.00105
76.95 0.00035
77 0.00253
77.05 0.00695
77.1 0.00669
77.15 0.00186
77.2 -0.00152
77.25 -0.00005
77.3 0.00418
77.35 0.00996
77.4 0.01629
77.45 0.01908
77.5 0.02011
77.55 0.02196
77.6 0.01843
77.65 0.01054
77.7 0.00604
77.75 0.00131
77.8 -0.00279
77.85 -0.00907
77.9 -0.00942
77.95 -0.00535
78 -0.00256
78.05 0.00341
78.1 0.00557
78.15 0.00539
78.2 0.00413
78.25 0.0026
78.3 0.00196
78.35 -0.00043
78.4 0.00035
78.45 0.00451
78.5 0.00452
78.55 0.00496
78.6 0.00097
78.65 -0.00041
78.7 -0.00211
78.75 0.001
78.8 -0.00035
78.85 -0.00414
78.9 -0.00643
78.95 -0.01035
79 -0.01213
79.05 -0.00896
79.1 -0.00406
79.15 0.00256
79.2 0.00193
79.25 0.00147
79.3 -0.00167
79.35 -0.00414
79.4 -0.00464
79.45 -0.00753
79.5 -0.01182
79.55 -0.01734
79.6 -0.01586
79.65 -0.01145
79.7 -0.00848
79.75 -0.00723
79.8 -0.01038
79.85 -0.01365
79.9 -0.01307
79.95 -0.0151
80 -0.01749
80.05 -0.01471
80.1 -0.0118
80.15 -0.01229
80.2 -0.01434
80.25 -0.01433
80.3 -0.01615
80.35 -0.01869
80.4 -0.01914
80.45 -0.01349
80.5 -0.0075
80.55 -0.00087
80.6 0.00222
80.65 0.00861
80.7 0.01219
80.75 0.01429
80.8 0.01434
80.85 0.00944
80.9 0.00181
80.95 -0.0016
81 -0.00508
81.05 -0.00352
81.1 -0.00587
81.15 -0.00702
81.2 -0.00354
81.25 -0.00026
81.3 0.00227
81.35 0.00705
81.4 0.0072
81.45 0.01129
81.5 0.01072
81.55 0.01255
81.6 0.01268
81.65 0.00792
81.7 -0.00011
81.75 -0.00902
81.8 -0.01461
81.85 -0.02027
81.9 -0.02136
81.95 -0.01974
82 -0.01945
82.05 -0.02067
82.1 -0.01968
82.15 -0.01872
82.2 -0.01916
82.25 -0.01394
82.3 -0.00851
82.35 -0.00131
82.4 0.00692
82.45 0.01174
82.5 0.01602
82.55 0.01593
82.6 0.01411
82.65 0.00952
82.7 0.00442
82.75 -0.00019
82.8 -0.00281
82.85 -0.00513
82.9 -0.00893
82.95 -0.00879
83 -0.00437
83.05 -0.00235
83.1 -0.00454
83.15 -0.0079
83.2 -0.00899
83.25 -0.00764
83.3 -0.00843
83.35 -0.00517
83.4 -0.00065
83.45 -0.00093
83.5 0.00355
83.55 0.00933
83.6 0.01314
83.65 0.01685
83.7 0.01699
83.75 0.0144
83.8 0.01544
83.85 0.01454
83.9 0.01055
83.95 0.01054
84 0.0102
84.05 0.01097
84.1 0.00597
84.15 0.00334
84.2 0.00025
84.25 -0.00437
84.3 -0.00417
84.35 -0.0055
84.4 -0.00761
84.45 -0.01255
84.5 -0.0169
84.55 -0.01724
84.6 -0.0141
84.65 -0.00959
84.7 -0.00422
84.75 -0.00403
84.8 -0.00416
84.85 -0.00547
84.9 -0.00691
84.95 -0.00743
85 -0.0099
85.05 -0.01159
85.1 -0.01525
85.15 -0.01263
85.2 -0.00851
85.25 -0.0064
85.3 -0.00258
85.35 -0.00093
85.4 0.00178
85.45 0.00394
85.5 0.00119
85.55 -0.00183
85.6 -0.00452
85.65 -0.00629
85.7 -0.00613
85.75 -0.00762
85.8 -0.00501
85.85 -0.00406
85.9 -0.00305
85.95 -0.0018
86 0.00273
86.05 0.00785
86.1 0.01134
86.15 0.0165
86.2 0.0173
86.25 0.01593
86.3 0.0143
86.35 0.0137
86.4 0.01117
86.45 0.00854
86.5 0.00647
86.55 0.00333
86.6 0.0004
86.65 0.00068
86.7 0.00299
86.75 0.00726
86.8 0.01308
86.85 0.01515
86.9 0.01919
86.95 0.0203
87 0.01744
87.05 0.01438
87.1 0.01268
87.15 0.00807
87.2 0.00119
87.25 -0.00648
87.3 -0.01347
87.35 -0.01682
87.4 -0.02043
87.45 -0.02328
87.5 -0.02176
87.55 -0.01539
87.6 -0.00797
87.65 0.00011
87.7 0.00823
87.75 0.0092
87.8 0.0081
87.85 0.00996
87.9 0.01244
87.95 0.01028
88 0.01093
88.05 0.00834
88.1 0.00816
88.15 0.00731
88.2 0.00743
88.25 0.01057
88.3 0.01133
88.35 0.01162
88.4 0.01321
88.45 0.01413
88.5 0.01244
88.55 0.01291
88.6 0.00838
88.65 0.00058
88.7 -0.00088
88.75 -0.0049
88.8 -0.00685
88.85 -0.01034
88.9 -0.0086
88.95 -0.00798
89 -0.0028
89.05 -0.00314
89.1 -0.00547
89.15 -0.01055
89.2 -0.01235
89.25 -0.01263
89.3 -0.01124
89.35 -0.01281
89.4 -0.01277
89.45 -0.00879
89.5 -0.00539
89.55 -0.00635
89.6 -0.00296
89.65 -0.00029
89.7 0.0009
89.75 0.00189
89.8 0.00169
89.85 0.00358
89.9 0.0074
89.95 0.0106
90 0.00975
90.05 0.00584
90.1 0.00558
90.15 0.00736
90.2 0.00912
90.25 0.00512
90.3 -0.00026
90.35 -0.00791
90.4 -0.01592
90.45 -0.02281
90.5 -0.02661
90.55 -0.02992
90.6 -0.02878
90.65 -0.02622
90.7 -0.02082
90.75 -0.01209
90.8 -0.00486
90.85 -0.0006
90.9 0.00341
90.95 0.00535
91 0.00274
91.05 0.00329
91.1 0.0031
91.15 -0.00175
91.2 -0.00802
91.25 -0.00892
91.3 -0.01233
91.35 -0.01075
91.4 -0.00841
91.45 -0.00588
91.5 -0.00397
91.55 -0.00649
91.6 -0.01052
91.65 -0.01522
91.7 -0.01935
91.75 -0.02028
91.8 -0.01519
91.85 -0.00725
91.9 -0.00235
91.95 0.00411
92 0.00914
92.05 0.01185
92.1 0.01722
92.15 0.01512
92.2 0.00898
92.25 0.00218
92.3 -0.00177
92.35 -0.0006
92.4 0.005
92.45 0.01098
92.5 0.01546
92.55 0.0188
92.6 0.01673
92.65 0.01297
92.7 0.01047
92.75 0.00506
92.8 0.00113
92.85 -0.00278
92.9 -0.00872
92.95 -0.01107
93 -0.00699
93.05 -0.0015
93.1 0.00543
93.15 0.01021
93.2 0.01699
93.25 0.02377
93.3 0.0246
93.35 0.02392
93.4 0.02418
93.45 0.02524
93.5 0.0201
93.55 0.01543
93.6 0.01274
93.65 0.00977
93.7 0.00951
93.75 0.00508
93.8 0.00513
93.85 0.00209
93.9 -0.00436
93.95 -0.01062
94 -0.01671
94.05 -0.02134
94.1 -0.01801
94.15 -0.01568
94.2 -0.01517
94.25 -0.01043
94.3 -0.00236
94.35 0.00107
94.4 0.00234
94.45 0.00051
94.5 0.00285
94.55 0.00754
94.6 0.00969
94.65 0.01453
94.7 0.02084
94.75 0.02221
94.8 0.02411
94.85 0.01885
94.9 0.01763
94.95 0.01803
95 0.01898
95.05 0.01346
95.1 0.00752
95.15 0.00528
95.2 0.00343
95.25 0.00033
95.3 -0.00209
95.35 -0.00128
95.4 -0.00029
95.45 -0.00087
95.5 -0.00311
95.55 -0.00883
95.6 -0.01094
95.65 -0.00798
95.7 -0.00336
95.75 -0.00448
95.8 -0.00347
95.85 -0.0061
95.9 -0.0089
95.95 -0.01099
96 -0.01223
96.05 -0.01166
96.1 -0.01094
96.15 -0.01265
96.2 -0.0086
96.25 -0.0094
96.3 -0.00893
96.35 -0.00554
96.4 0.00085
96.45 0.00545
96.5 0.00782
96.55 0.00897
96.6 0.01105
96.65 0.0092
96.7 0.00994
96.75 0.00495
96.8 -0.00246
96.85 -0.0058
96.9 -0.00791
96.95 -0.00572
97 -0.00525
97.05 -0.0017
97.1 -0.0032
97.15 -0.00482
97.2 -0.00756
97.25 -0.01144
97.3 -0.01632
97.35 -0.01792
97.4 -0.02027
97.45 -0.01879
97.5 -0.01832
97.55 -0.02092
97.6 -0.01869
97.65 -0.01395
97.7 -0.00614
97.75 -0.00032
97.8 0.00292
97.85 0.0058
97.9 0.00308
97.95 0.00498
98 0.00789
98.05 0.00455
98.1 0.00107
98.15 0.00187
98.2 0.00039
98.25 -0.00296
98.3 -0.00793
98.35 -0.00863
98.4 -0.00962
98.45 -0.00574
98.5 -0.00707
98.55 -0.00643
98.6 -0.00592
98.65 -0.0031
98.7 0.0007
98.75 0.00162
98.8 0.00133
98.85 0.00436
98.9 0.00225
98.95 -0.00083
99 0.00035
99.05 -0.0033
99.1 -0.00723
99.15 -0.00788
99.2 -0.01051
99.25 -0.01083
99.3 -0.01145
99.35 -0.00705
99.4 -0.00633
99.45 -0.00502
99.5 -0.00244
99.55 -0.00069
99.6 -0.00252
99.65 -0.0056
99.7 -0.00385
99.75 -0.00259
99.8 -0.00548
99.85 -0.0105
99.9 -0.01431
99.95 -0.01956
