0 0
0.05 0.00115
0.1 0.00379
0.15 0.00943
0.2 0.01339
0.25 0.0235
0.3 0.03551
0.35 0.04587
0.4 0.05063
0.45 0.05592
0.5 0.05935
0.55 0.06015
0.6 0.05725
0.65 0.05096
0.7 0.04665
0.75 0.04337
0.8 0.04103
0.85 0.04341
0.9 0.04084
0.95 0.0432
1 0.04454
1.05 0.04845
1.1 0.05126
1.15 0.05221
1.2 0.04865
1.25 0.04126
1.3 0.03451
1.35 0.02823
1.4 0.0286
1.45 0.02621
1.5 0.02587
1.55 0.02524
1.6 0.02856
1.65 0.03494
1.7 0.0352
1.75 0.03936
1.8 0.04352
1.85 0.04091
1.9 0.04223
1.95 0.04613
2 0.05191
2.05 0.05129
2.1 0.04701
2.15 0.03978
2.2 0.03184
2.25 0.02225
2.3 0.01636
2.35 0.01387
2.4 0.01185
2.45 0.01599
2.5 0.01533
2.55 0.01471
2.6 0.01882
2.65 0.02026
2.7 0.01966
2.75 0.01887
2.8 0.02251
2.85 0.02342
2.9 0.02376
2.95 0.02407
3 0.02416
3.05 0.02644
3.1 0.02525
3.15 0.02032
3.2 0.0163
3.25 0.01039
3.3 0.01189
3.35 0.01252
3.4 0.01169
3.45 0.01488
3.5 0.01882
3.55 0.02346
3.6 0.02556
3.65 0.02638
3.7 0.02337
3.75 0.02059
3.8 0.01961
3.85 0.02004
3.9 0.02128
3.95 0.02027
4 0.01987
4.05 0.02362
4.1 0.02429
4.15 0.02598
4.2 0.02579
4.25 0.02281
4.3 0.01736
4.35 0.00975
4.4 0.00477
4.45 0.00164
4.5 -0.00393
4.55 -0.01533
4.6 -0.03054
4.65 -0.04534
4.7 -0.06242
4.75 -0.08144
4.8 -0.10226
4.85 -0.1244
4.9 -0.15652
4.95 -0.19059
5 -0.23229
5.05 -0.28033
5.1 -0.33453
5.15 -0.39112
5.2 -0.44945
5.25 -0.51946
5.3 -0.59227
5.35 -0.66736
5.4 -0.75351
5.45 -0.84673
5.5 -0.94268
5.55 -1.03855
5.6 -1.13967
5.65 -1.24259
5.7 -1.34773
5.75 -1.44972
5.8 -1.55147
5.85 -1.64604
5.9 -1.73367
5.95 -1.81887
6 -1.90452
6.05 -1.98815
6.1 -2.06071
6.15 -2.13171
6.2 -2.19809
6.25 -2.26187
6.3 -2.31766
6.35 -2.36811
6.4 -2.4166
6.45 -2.4594
6.5 -2.48798
6.55 -2.50373
6.6 -2.51567
6.65 -2.51398
6.7 -2.49936
6.75 -2.47793
6.8 -2.44599
6.85 -2.39723
6.9 -2.32861
6.95 -2.24322
7 -2.14018
7.05 -2.02527
7.1 -1.89591
7.15 -1.7508
7.2 -1.59217
7.25 -1.41718
7.3 -1.22857
7.35 -1.03639
7.4 -0.83665
7.45 -0.63075
7.5 -0.42675
7.55 -0.22256
7.6 -0.01894
7.65 0.18121
7.7 0.3751
7.75 0.56679
7.8 0.75206
7.85 0.92978
7.9 1.09445
7.95 1.24345
8 1.38051
8.05 1.5103
8.1 1.62751
8.15 1.73082
8.2 1.81822
8.25 1.89996
8.3 1.96923
8.35 2.03157
8.4 2.08821
8.45 2.13013
8.5 2.16838
8.55 2.19415
8.6 2.20996
8.65 2.22018
8.7 2.22377
8.75 2.22561
8.8 2.22249
8.85 2.22192
8.9 2.22094
8.95 2.21734
9 2.21013
9.05 2.19932
9.1 2.18587
9.15 2.17096
9.2 2.15073
9.25 2.12759
9.3 2.10673
9.35 2.08685
9.4 2.06526
9.45 2.04555
9.5 2.02593
9.55 2.00518
9.6 1.97847
9.65 1.95152
9.7 1.92586
9.75 1.89509
9.8 1.86138
9.85 1.82212
9.9 1.78713
9.95 1.74724
10 1.70548
10.05 1.66799
10.1 1.63157
10.15 1.59296
10.2 1.54939
10.25 1.50228
10.3 1.4566
10.35 1.41013
10.4 1.36921
10.45 1.32915
10.5 1.28866
10.55 1.24498
10.6 1.19747
10.65 1.14598
10.7 1.0994
10.75 1.04841
10.8 0.99778
10.85 0.95129
10.9 0.90279
10.95 0.85916
11 0.817
11.05 0.77303
11.1 0.72402
11.15 0.67367
11.2 0.62381
11.25 0.58033
11.3 0.53551
11.35 0.49555
11.4 0.45773
11.45 0.41624
11.5 0.3719
11.55 0.32829
11.6 0.28885
11.65 0.25618
11.7 0.22446
11.75 0.1942
11.8 0.16528
11.85 0.13363
11.9 0.10477
11.95 0.07478
12 0.04265
12.05 0.0123
12.1 -0.01258
12.15 -0.03665
12.2 -0.06413
12.25 -0.09243
12.3 -0.12142
12.35 -0.1425
12.4 -0.16093
12.45 -0.17986
12.5 -0.19834
12.55 -0.21813
12.6 -0.23725
12.65 -0.25255
12.7 -0.26319
12.75 -0.26935
12.8 -0.27275
12.85 -0.27471
12.9 -0.27688
12.95 -0.28552
13 -0.29259
13.05 -0.30623
13.1 -0.32033
13.15 -0.32845
13.2 -0.34097
13.25 -0.35289
13.3 -0.3605
13.35 -0.36854
13.4 -0.37682
13.45 -0.38269
13.5 -0.38685
13.55 -0.38878
13.6 -0.38464
13.65 -0.3813
13.7 -0.37649
13.75 -0.37299
13.8 -0.36695
13.85 -0.36045
13.9 -0.35665
13.95 -0.35701
14 -0.35783
14.05 -0.36229
14.1 -0.36735
14.15 -0.36602
14.2 -0.36149
14.25 -0.35477
14.3 -0.35318
14.35 -0.35269
14.4 -0.35036
14.45 -0.3434
14.5 -0.33465
14.55 -0.32833
14.6 -0.32143
14.65 -0.31932
14.7 -0.31624
14.75 -0.31492
14.8 -0.31102
14.85 -0.30905
14.9 -0.3094
14.95 -0.3083
15 -0.30439
15.05 -0.3007
15.1 -0.29269
15.15 -0.28886
15.2 -0.28166
15.25 -0.27511
15.3 -0.27218
15.35 -0.2744
15.4 -0.27735
15.45 -0.28187
15.5 -0.28475
15.55 -0.28651
15.6 -0.28714
15.65 -0.28102
15.7 -0.27407
15.75 -0.26574
15.8 -0.25895
15.85 -0.24918
15.9 -0.24437
15.95 -0.23588
16 -0.22919
16.05 -0.22517
16.1 -0.22258
16.15 -0.21923
16.2 -0.21595
16.25 -0.21129
16.3 -0.20851
16.35 -0.2026
16.4 -0.19928
16.45 -0.19834
16.5 -0.19287
16.55 -0.1915
16.6 -0.1877
16.65 -0.18146
16.7 -0.18131
16.75 -0.18081
16.8 -0.17875
16.85 -0.17636
16.9 -0.17778
16.95 -0.1749
17 -0.16954
17.05 -0.16497
17.1 -0.16456
17.15 -0.15934
17.2 -0.15397
17.25 -0.14796
17.3 -0.1482
17.35 -0.14895
17.4 -0.14491
17.45 -0.14209
17.5 -0.14414
17.55 -0.14547
17.6 -0.14423
17.65 -0.14664
17.7 -0.15
17.75 -0.14738
17.8 -0.1475
17.85 -0.14459
17.9 -0.14338
17.95 -0.13754
18 -0.12922
18.05 -0.12442
18.1 -0.11693
18.15 -0.11097
18.2 -0.10847
18.25 -0.10293
18.3 -0.10296
18.35 -0.10106
18.4 -0.09923
18.45 -0.09604
18.5 -0.09482
18.55 -0.09421
18.6 -0.09273
18.65 -0.09399
18.7 -0.09531
18.75 -0.09982
18.8 -0.1032
18.85 -0.10831
18.9 -0.1098
18.95 -0.11277
19 -0.1149
19.05 -0.11076
19.1 -0.10653
19.15 -0.10395
19.2 -0.09651
19.25 -0.08919
19.3 -0.07937
19.35 -0.07654
19.4 -0.07815
19.45 -0.07737
19.5 -0.07497
19.55 -0.07701
19.6 -0.08093
19.65 -0.08563
19.7 -0.09145
19.75 -0.09455
19.8 -0.08944
19.85 -0.07966
19.9 -0.07147
19.95 -0.06831
20 -0.0665
20.05 -0.06121
20.1 -0.06026
20.15 -0.06054
20.2 -0.05959
20.25 -0.06256
20.3 -0.06244
20.35 -0.05807
20.4 -0.05456
20.45 -0.05252
20.5 -0.05214
20.55 -0.05569
20.6 -0.05284
20.65 -0.04744
20.7 -0.04761
20.75 -0.05162
20.8 -0.05449
20.85 -0.05441
20.9 -0.05474
20.95 -0.05403
21 -0.0496
21.05 -0.04852
21.1 -0.05025
21.15 -0.0534
21.2 -0.05005
21.25 -0.04355
21.3 -0.03496
21.35 -0.03379
21.4 -0.03758
21.45 -0.0407
21.5 -0.03919
21.55 -0.04127
21.6 -0.04393
21.65 -0.04598
21.7 -0.04393
21.75 -0.04271
21.8 -0.0392
21.85 -0.03571
21.9 -0.03428
21.95 -0.03228
22 -0.03465
22.05 -0.03276
22.1 -0.02789
22.15 -0.02099
22.2 -0.01926
22.25 -0.01548
22.3 -0.01264
22.35 -0.01466
22.4 -0.01331
22.45 -0.01637
22.5 -0.01654
22.55 -0.01742
22.6 -0.02251
22.65 -0.02343
22.7 -0.02012
22.75 -0.01595
22.8 -0.01677
22.85 -0.01803
22.9 -0.02232
22.95 -0.02604
23 -0.02452
23.05 -0.02119
23.1 -0.01591
23.15 -0.0095
23.2 -0.00671
23.25 -0.0037
23.3 -0.00126
23.35 -0.00257
23.4 -0.00048
23.45 -0.00419
23.5 -0.00519
23.55 -0.00972
23.6 -0.01536
23.65 -0.02054
23.7 -0.02151
23.75 -0.01857
23.8 -0.02021
23.85 -0.01796
23.9 -0.01368
23.95 -0.01365
24 -0.01306
24.05 -0.00914
24.1 -0.00661
24.15 -0.00602
24.2 -0.00978
24.25 -0.00993
24.3 -0.00881
24.35 -0.00633
24.4 -0.00675
24.45 -0.00774
24.5 -0.00604
24.55 -0.00861
24.6 -0.01361
24.65 -0.0161
24.7 -0.0223
24.75 -0.02148
24.8 -0.02043
24.85 -0.02176
24.9 -0.01821
24.95 -0.01141
25 -0.0043
25.05 0.00141
25.1 -0.00011
25.15 -0.00147
25.2 -0.00356
25.25 -0.00154
25.3 -0.00002
25.35 0.00246
25.4 0.00235
25.45 -0.00202
25.5 -0.00607
25.55 -0.00687
25.6 -0.00948
25.65 -0.01616
25.7 -0.01802
25.75 -0.01936
25.8 -0.02424
25.85 -0.02488
25.9 -0.02901
25.95 -0.03379
26 -0.03158
26.05 -0.03325
26.1 -0.03352
26.15 -0.03542
26.2 -0.03497
26.25 -0.03606
26.3 -0.03309
26.35 -0.02946
26.4 -0.02095
26.45 -0.01644
26.5 -0.01407
26.55 -0.00803
26.6 -0.00081
26.65 0.00714
26.7 0.00818
26.75 0.00686
26.8 0.00903
26.85 0.00962
26.9 0.0074
26.95 0.00252
27 -0.0041
27.05 -0.00732
27.1 -0.00793
27.15 -0.00985
27.2 -0.00893
27.25 -0.00843
27.3 -0.00857
27.35 -0.00566
27.4 -0.00224
27.45 -0.00423
27.5 -0.00622
27.55 -0.00755
27.6 -0.00863
27.65 -0.00864
27.7 -0.0069
27.75 -0.00836
27.8 -0.00837
27.85 -0.00841
27.9 -0.00506
27.95 -0.00023
28 0.00154
28.05 0.0042
28.1 0.00706
28.15 0.00993
28.2 0.01476
28.25 0.01542
28.3 0.01755
28.35 0.02072
28.4 0.01809
28.45 0.01089
28.5 0.00632
28.55 0.00635
28.6 0.00656
28.65 0.00556
28.7 0.00775
28.75 0.01107
28.8 0.01333
28.85 0.00832
28.9 0.00083
28.95 -0.00222
29 -0.00896
29.05 -0.01422
29.1 -0.01686
29.15 -0.01761
29.2 -0.0188
29.25 -0.0143
29.3 -0.01296
29.35 -0.01457
29.4 -0.01822
29.45 -0.01733
29.5 -0.01772
29.55 -0.01679
29.6 -0.01572
29.65 -0.01896
29.7 -0.01645
29.75 -0.01514
29.8 -0.01143
29.85 -0.00675
29.9 -0.00812
29.95 -0.00939
30 -0.00828
30.05 -0.00607
30.1 -0.00833
30.15 -0.01166
30.2 -0.01657
30.25 -0.02172
30.3 -0.01919
30.35 -0.01991
30.4 -0.0194
30.45 -0.01659
30.5 -0.01832
30.55 -0.01671
30.6 -0.01263
30.65 -0.00812
30.7 -0.00584
30.75 -0.00834
30.8 -0.01335
30.85 -0.01333
30.9 -0.01629
30.95 -0.01769
31 -0.01708
31.05 -0.0109
31.1 -0.00507
31.15 -0.00055
31.2 0.00031
31.25 0.0009
31.3 0.00426
31.35 0.00532
31.4 0.00878
31.45 0.01272
31.5 0.01024
31.55 0.00717
31.6 0.00851
31.65 0.00704
31.7 0.00316
31.75 -0.00215
31.8 -0.00169
31.85 0.00037
31.9 0.00047
31.95 0.00031
32 -0.00135
32.05 0.00128
32.1 0.00642
32.15 0.01009
32.2 0.0091
32.25 0.00414
32.3 -0.00376
32.35 -0.0064
32.4 -0.01185
32.45 -0.0186
32.5 -0.02602
32.55 -0.02782
32.6 -0.02806
32.65 -0.02544
32.7 -0.01965
32.75 -0.01403
32.8 -0.0114
32.85 -0.00806
32.9 -0.00191
32.95 0.00121
33 -0.00005
33.05 -0.00058
33.1 -0.00553
33.15 -0.00521
33.2 -0.00699
33.25 -0.00831
33.3 -0.01085
33.35 -0.01012
33.4 -0.01061
33.45 -0.00645
33.5 0.00029
33.55 0.00093
33.6 -0.00092
33.65 -0.00373
33.7 -0.00309
33.75 -0.00102
33.8 0.00221
33.85 0.00298
33.9 0.00593
33.95 0.00293
34 -0.00315
34.05 -0.00229
34.1 -0.00436
34.15 -0.00594
34.2 -0.00668
34.25 -0.00443
34.3 -0.00154
34.35 0.00107
34.4 0.0066
34.45 0.00714
34.5 0.00977
34.55 0.00829
34.6 0.00678
34.65 0.00956
34.7 0.00644
34.75 0.0017
34.8 -0.00218
34.85 -0.00294
34.9 -0.00561
34.95 -0.00778
35 -0.01262
35.05 -0.01532
35.1 -0.01589
35.15 -0.01049
35.2 -0.00994
35.25 -0.00602
35.3 -0.0075
35.35 -0.00639
35.4 -0.00859
35.45 -0.00585
35.5 -0.00074
35.55 -0.00141
35.6 -0.00488
35.65 -0.00337
35.7 -0.00497
35.75 -0.00399
35.8 -0.00075
35.85 0.00133
35.9 0.0008
35.95 -0.00386
36 -0.01082
36.05 -0.01358
36.1 -0.01158
36.15 -0.01174
36.2 -0.01323
36.25 -0.00895
36.3 -0.00694
36.35 -0.00939
36.4 -0.01003
36.45 -0.00812
36.5 -0.00537
36.55 -0.00635
36.6 -0.0107
36.65 -0.01345
36.7 -0.01627
36.75 -0.01499
36.8 -0.01162
36.85 -0.00648
36.9 -0.00371
36.95 0.00308
37 0.00929
37.05 0.01244
37.1 0.01004
37.15 0.00498
37.2 0.00342
37.25 0.0068
37.3 0.0092
37.35 0.00858
37.4 0.0069
37.45 0.0067
37.5 0.00199
37.55 0.00199
37.6 -0.00206
37.65 -0.00724
37.7 -0.00568
37.75 0.00027
37.8 0.00535
37.85 0.01263
37.9 0.01233
37.95 0.01472
38 0.01358
38.05 0.01551
38.1 0.01826
38.15 0.01527
38.2 0.01665
38.25 0.01956
38.3 0.02418
38.35 0.02946
38.4 0.02998
38.45 0.03053
38.5 0.03146
38.55 0.02562
38.6 0.02303
38.65 0.02349
38.7 0.02327
38.75 0.02031
38.8 0.01943
38.85 0.01755
38.9 0.01685
38.95 0.01233
39 0.00939
39.05 0.00275
39.1 0.00067
39.15 0.0009
39.2 0.00439
39.25 0.00972
39.3 0.01403
39.35 0.01744
39.4 0.02092
39.45 0.02085
39.5 0.01922
39.55 0.01493
39.6 0.01218
39.65 0.00953
39.7 0.00354
39.75 -0.0013
39.8 -0.00136
39.85 -0.00606
39.9 -0.00942
39.95 -0.01514
40 -0.01816
40.05 -0.01633
40.1 -0.01114
40.15 -0.00698
40.2 -0.00183
40.25 0.00338
40.3 0.00952
40.35 0.01197
40.4 0.01643
40.45 0.02103
40.5 0.01736
40.55 0.01585
40.6 0.01032
40.65 0.00617
40.7 0.00659
40.75 0.00168
40.8 0.0002
40.85 0.00244
40.9 0.00017
40.95 -0.00535
41 -0.00468
41.05 -0.0074
41.1 -0.01197
41.15 -0.01613
41.2 -0.01873
41.25 -0.0222
41.3 -0.02402
41.35 -0.0251
41.4 -0.02784
41.45 -0.02936
41.5 -0.02637
41.55 -0.02029
41.6 -0.0176
41.65 -0.01209
41.7 -0.00387
41.75 -0.00258
41.8 0.00218
41.85 0.00857
41.9 0.00812
41.95 0.00841
42 0.01019
42.05 0.01238
42.1 0.01637
42.15 0.02108
42.2 0.02249
42.25 0.01923
42.3 0.01302
42.35 0.00928
42.4 0.00317
42.45 0.00083
42.5 -0.00075
42.55 -0.00027
42.6 -0.00262
42.65 -0.0034
42.7 -0.00331
42.75 -0.00413
42.8 -0.00066
42.85 0.00299
42.9 0.00379
42.95 0.0054
43 0.00277
43.05 0.00283
43.1 0.00252
43.15 0.00515
43.2 0.00837
43.25 0.00657
43.3 0.0019
43.35 -0.00499
43.4 -0.01129
43.45 -0.01482
43.5 -0.01441
43.55 -0.01469
43.6 -0.01729
43.65 -0.02211
43.7 -0.02195
43.75 -0.02186
43.8 -0.02439
43.85 -0.02777
43.9 -0.0312
43.95 -0.03545
44 -0.03214
44.05 -0.02302
44.1 -0.0188
44.15 -0.01729
44.2 -0.01197
44.25 -0.01121
44.3 -0.01197
44.35 -0.01274
44.4 -0.01676
44.45 -0.01536
44.5 -0.01111
44.55 -0.01032
44.6 -0.00661
44.65 -0.00016
44.7 0.00386
44.75 0.00436
44.8 0.00658
44.85 0.01174
44.9 0.01713
44.95 0.02
45 0.0186
45.05 0.02059
45.1 0.01574
45.15 0.01194
45.2 0.00971
45.25 0.01062
45.3 0.00678
45.35 -0.00004
45.4 -0.00452
45.45 -0.00344
45.5 0.00189
45.55 0.00541
45.6 0.00882
45.65 0.01395
45.7 0.01605
45.75 0.01894
45.8 0.0179
45.85 0.01119
45.9 0.0048
45.95 0.00428
46 0.00446
46.05 0.00273
46.1 0.00346
46.15 0.00067
46.2 -0.00187
46.25 -0.00346
46.3 -0.0013
46.35 0.00299
46.4 0.00643
46.45 0.00976
46.5 0.01151
46.55 0.01221
46.6 0.01161
46.65 0.00614
46.7 -0.0027
46.75 -0.00571
46.8 -0.01164
46.85 -0.01492
46.9 -0.01409
46.95 -0.01432
47 -0.01017
47.05 -0.01124
47.1 -0.01543
47.15 -0.01734
47.2 -0.01909
47.25 -0.01852
47.3 -0.01373
47.35 -0.00731
47.4 -0.00403
47.45 -0.00642
47.5 -0.00508
47.55 -0.00273
47.6 -0.00254
47.65 -0.00204
47.7 -0.00122
47.75 -0.00224
47.8 -0.00207
47.85 -0.00567
47.9 -0.01217
47.95 -0.01524
48 -0.01734
48.05 -0.01665
48.1 -0.01883
48.15 -0.01576
48.2 -0.01625
48.25 -0.01239
48.3 -0.00733
48.35 -0.00719
48.4 -0.00833
48.45 -0.00402
48.5 0.00201
48.55 0.00292
48.6 0.00206
48.65 -0.00005
48.7 -0.00324
48.75 -0.00427
48.8 -0.00097
48.85 0.00357
48.9 0.00539
48.95 0.00167
49 -0.00323
49.05 -0.00478
49.1 -0.0088
49.15 -0.01337
49.2 -0.01288
49.25 -0.012
49.3 -0.00823
49.35 -0.00102
49.4 0.00448
49.45 0.00364
49.5 -0.00099
49.55 -0.00664
49.6 -0.00512
49.65 0.00013
49.7 0.00695
49.75 0.01443
49.8 0.02158
49.85 0.0254
49.9 0.02195
49.95 0.01783
50 0.01379
50.05 0.01187
50.1 0.00799
50.15 0.00236
50.2 0.00005
50.25 -0.00532
50.3 -0.00679
50.35 -0.00772
50.4 -0.0062
50.45 -0.00069
50.5 0.0046
50.55 0.00776
50.6 0.00494
50.65 0.00218
50.7 0.00179
50.75 0.00365
50.8 0.0005
50.85 0.00017
50.9 0.00119
50.95 -0.00251
51 -0.00038
51.05 0.00187
51.1 0.00498
51.15 0.00429
51.2 0.00648
51.25 0.00726
51.3 0.00273
51.35 -0.00392
51.4 -0.00675
51.45 -0.01204
51.5 -0.01396
51.55 -0.01409
51.6 -0.01424
51.65 -0.01412
51.7 -0.01359
51.75 -0.0095
51.8 -0.00693
51.85 -0.00616
51.9 -0.00476
51.95 -0.00023
52 0.00384
52.05 0.00736
52.1 0.00718
52.15 0.00583
52.2 0.0029
52.25 0.0051
52.3 0.00945
52.35 0.01572
52.4 0.01702
52.45 0.02015
52.5 0.02337
52.55 0.02349
52.6 0.02121
52.65 0.01866
52.7 0.01232
52.75 0.00972
52.8 0.00959
52.85 0.01216
52.9 0.01589
52.95 0.01562
53 0.01258
53.05 0.00961
53.1 0.01068
53.15 0.00584
53.2 0.00438
53.25 0.00056
53.3 -0.00071
53.35 0.00076
53.4 -0.00324
53.45 -0.00502
53.5 -0.00662
53.55 -0.00839
53.6 -0.01009
53.65 -0.0104
53.7 -0.01047
53.75 -0.00853
53.8 -0.01093
53.85 -0.01516
53.9 -0.01744
53.95 -0.01738
54 -0.01564
54.05 -0.01356
54.1 -0.00965
54.15 -0.00774
54.2 -0.00678
54.25 -0.00296
54.3 0.00178
54.35 0.00603
54.4 0.01033
54.45 0.00745
54.5 0.00838
54.55 0.00676
54.6 0.00176
54.65 -0.0045
54.7 -0.00934
54.75 -0.01188
54.8 -0.01185
54.85 -0.01194
54.9 -0.01314
54.95 -0.01064
55 -0.0072
55.05 -0.00431
55.1 -0.00684
55.15 -0.0084
55.2 -0.00948
55.25 -0.0075
55.3 -0.00533
55.35 -0.00155
55.4 -0.00283
55.45 0.00094
55.5 0.00449
55.55 0.00962
55.6 0.00763
55.65 0.00706
55.7 0.00505
55.75 0.00278
55.8 -0.00024
55.85 -0.0034
55.9 -0.0078
55.95 -0.01216
56 -0.01355
56.05 -0.00899
56.1 -0.00918
56.15 -0.00464
56.2 -0.00595
56.25 -0.00746
56.3 -0.01075
56.35 -0.01588
56.4 -0.01418
56.45 -0.01193
56.5 -0.00731
56.55 -0.00775
56.6 -0.00814
56.65 -0.01092
56.7 -0.01458
56.75 -0.01726
56.8 -0.01854
56.85 -0.02069
56.9 -0.02442
56.95 -0.02155
57 -0.01609
57.05 -0.01148
57.1 -0.00416
57.15 -0.00259
57.2 -0.0026
57.25 0.0006
57.3 -0.00034
57.35 -0.00264
57.4 0.00089
57.45 0.00339
57.5 0.00808
57.55 0.00751
57.6 0.01042
57.65 0.00978
57.7 0.00845
57.75 0.01093
57.8 0.00825
57.85 0.01055
57.9 0.01533
57.95 0.01645
58 0.01317
58.05 0.0126
58.1 0.01147
58.15 0.00946
58.2 0.00383
58.25 -0.00372
58.3 -0.00573
58.35 -0.00548
58.4 -0.00161
58.45 0.00125
58.5 0.00407
58.55 0.0023
58.6 -0.00096
58.65 -0.00146
58.7 -0.00385
58.75 -0.00634
58.8 -0.01041
58.85 -0.01672
58.9 -0.01868
58.95 -0.02068
59 -0.02262
59.05 -0.02239
59.1 -0.02182
59.15 -0.02228
59.2 -0.0184
59.25 -0.01679
59.3 -0.01226
59.35 -0.01263
59.4 -0.01355
59.45 -0.01395
59.5 -0.00828
59.55 -0.00428
59.6 -0.00404
59.65 -0.00674
59.7 -0.00975
59.75 -0.0081
59.8 -0.00403
59.85 -0.00307
59.9 0.0027
59.95 0.01054
60 0.01255
60.05 0.00847
60.1 0.00548
60.15 0.00274
60.2 0.00304
60.25 0.00009
60.3 0.00289
60.35 0.00108
60.4 0.00081
60.45 0.00388
60.5 0.00393
60.55 0.00729
60.6 0.01062
60.65 0.01316
60.7 0.01147
60.75 0.01168
60.8 0.013
60.85 0.01075
60.9 0.00589
60.95 0.00661
61 0.00755
61.05 0.00532
61.1 0.00811
61.15 0.00837
61.2 0.00704
61.25 0.00621
61.3 0.00956
61.35 0.01471
61.4 0.01726
61.45 0.0176
61.5 0.01755
61.55 0.01903
61.6 0.02251
61.65 0.02442
61.7 0.01972
61.75 0.01732
61.8 0.01299
61.85 0.01067
61.9 0.00578
61.95 -0.00256
62 -0.00812
62.05 -0.01192
62.1 -0.01709
62.15 -0.01853
62.2 -0.021
62.25 -0.0237
62.3 -0.02294
62.35 -0.02341
62.4 -0.02566
62.45 -0.0278
62.5 -0.02802
62.55 -0.02154
62.6 -0.01606
62.65 -0.0151
62.7 -0.00919
62.75 -0.00636
62.8 -0.00347
62.85 0.00238
62.9 0.00724
62.95 0.00721
63 0.00682
63.05 0.01032
63.1 0.00819
63.15 0.00944
63.2 0.01229
63.25 0.01773
63.3 0.02319
63.35 0.02634
63.4 0.02972
63.45 0.03392
63.5 0.02927
63.55 0.0265
63.6 0.021
63.65 0.01775
63.7 0.01812
63.75 0.01587
63.8 0.01565
63.85 0.01604
63.9 0.01517
63.95 0.01705
64 0.01779
64.05 0.01222
64.1 0.00287
64.15 -0.004
64.2 -0.00687
64.25 -0.00872
64.3 -0.01257
64.35 -0.01463
64.4 -0.0133
64.45 -0.01027
64.5 -0.01217
64.55 -0.0093
64.6 -0.00638
64.65 -0.00799
64.7 -0.01288
64.75 -0.01927
64.8 -0.02037
64.85 -0.01979
64.9 -0.01805
64.95 -0.01572
65 -0.00904
65.05 -0.00823
65.1 -0.00495
65.15 -0.00192
65.2 -0.00182
65.25 -0.00477
65.3 -0.00711
65.35 -0.00902
65.4 -0.00598
65.45 -0.00717
65.5 -0.00419
65.55 -0.00527
65.6 -0.00925
65.65 -0.01039
65.7 -0.01289
65.75 -0.01772
65.8 -0.02386
65.85 -0.0296
65.9 -0.02657
65.95 -0.02358
66 -0.0155
66.05 -0.01101
66.1 -0.00454
66.15 0.00155
66.2 0.00584
66.25 0.00851
66.3 0.01317
66.35 0.0165
66.4 0.01691
66.45 0.01775
66.5 0.01355
66.55 0.01267
66.6 0.00904
66.65 0.00528
66.7 0.00062
66.75 -0.00486
66.8 -0.0109
66.85 -0.01559
66.9 -0.01746
66.95 -0.01559
67 -0.01313
67.05 -0.00725
67.1 -0.00055
67.15 0.00145
67.2 0.00347
67.25 0.00711
67.3 0.0063
67.35 0.00578
67.4 0.00822
67.45 0.00921
67.5 0.01321
67.55 0.017
67.6 0.01626
67.65 0.01459
67.7 0.01366
67.75 0.00765
67.8 -0.00023
67.85 -0.0031
67.9 -0.00043
67.95 0.00462
68 0.00478
68.05 0.00534
68.1 0.00247
68.15 -0.00052
68.2 -0.00593
68.25 -0.0058
68.3 -0.00615
68.35 -0.00863
68.4 -0.01288
68.45 -0.01006
68.5 -0.00893
68.55 -0.00988
68.6 -0.00511
68.65 -0.0027
68.7 0.00249
68.75 0.00403
68.8 0.00412
68.85 0.00694
68.9 0.01028
68.95 0.01297
69 0.00993
69.05 0.00853
69.1 0.0045
69.15 0.00598
69.2 0.00895
69.25 0.00658
69.3 0.00089
69.35 -0.00438
69.4 -0.01079
69.45 -0.01735
69.5 -0.01875
69.55 -0.02126
69.6 -0.02004
69.65 -0.01419
69.7 -0.01293
69.75 -0.01348
69.8 -0.01096
69.85 -0.01108
69.9 -0.01417
69.95 -0.01543
70 -0.01626
70.05 -0.01431
70.1 -0.00983
70.15 -0.00253
70.2 0.00712
70.25 0.01731
70.3 0.02674
70.35 0.02645
70.4 0.02214
70.45 0.01474
70.5 0.00815
70.55 0.00313
70.6 -0.00024
70.65 -0.00521
70.7 -0.00822
70.75 -0.00813
70.8 -0.00565
70.85 -0.00078
70.9 -0.00054
70.95 -0.00249
71 0.00118
71.05 0.00348
71.1 0.0077
71.15 0.01064
71.2 0.01197
71.25 0.01425
71.3 0.01382
71.35 0.01507
71.4 0.00998
71.45 0.00766
71.5 0.00414
71.55 0.00233
71.6 0.0051
71.65 0.00805
71.7 0.00584
71.75 0.00102
71.8 -0.00226
71.85 -0.00369
71.9 0.0002
71.95 0.00326
72 0.00288
72.05 0.00597
72.1 0.00869
72.15 0.00974
72.2 0.01354
72.25 0.01342
72.3 0.00897
72.35 0.00377
72.4 -0.00177
72.45 -0.00699
72.5 -0.01061
72.55 -0.01055
72.6 -0.00913
72.65 -0.00798
72.7 -0.00553
72.75 -0.0034
72.8 -0.00584
72.85 -0.01094
72.9 -0.01518
72.95 -0.01516
73 -0.0181
73.05 -0.02196
73.1 -0.02281
73.15 -0.02105
73.2 -0.01952
73.25 -0.01553
73.3 -0.00878
73.35 -0.00786
73.4 -0.00946
73.45 -0.00575
73.5 -0.00285
73.55 0.00313
73.6 0.00895
73.65 0.00999
73.7 0.00959
73.75 0.01225
73.8 0.01073
73.85 0.00438
73.9 0.00008
73.95 0.00108
74 0.00403
74.05 0.01021
74.1 0.01149
74.15 0.01221
74.2 0.0079
74.25 0.00325
74.3 -0.00098
74.35 -0.00363
74.4 -0.00367
74.45 -0.0047
74.5 -0.00939
74.55 -0.01301
74.6 -0.01872
74.65 -0.01943
74.7 -0.02267
74.75 -0.02648
74.8 -0.02539
74.85 -0.019
74.9 -0.01433
74.95 -0.01302
75 -0.01391
75.05 -0.01572
75.1 -0.01849
75.15 -0.01916
75.2 -0.0149
75.25 -0.00817
75.3 0.0005
75.35 0.00849
75.4 0.00987
75.45 0.01292
75.5 0.0106
75.55 0.00948
75.6 0.00397
75.65 -0.0007
75.7 -0.00103
75.75 -0.00154
75.8 -0.00143
75.85 -0.00217
75.9 0.00116
75.95 0.0025
76 0.00286
76.05 0.0025
76.1 0.00608
76.15 0.00625
76.2 0.00963
76.25 0.01194
76.3 0.01244
76.35 0.01605
76.4 0.01535
76.45 0.00932
76.5 0.00221
76.55 -0.00656
76.6 -0.00821
76.65 -0.00661
76.7 -0.00348
76.75 0.0002
76.8 0.00358
76.85 0.01018
76.9 0.01173
76.95 0.01598
77 0.01623
77.05 0.01761
77.1 0.01562
77.15 0.01653
77.2 0.01521
77.25 0.00959
77.3 0.00921
77.35 0.00832
77.4 0.01085
77.45 0.01405
77.5 0.01654
77.55 0.02031
77.6 0.01707
77.65 0.00993
77.7 0.00397
77.75 -0.00206
77.8 -0.00757
77.85 -0.00912
77.9 -0.0134
77.95 -0.01108
78 -0.01028
78.05 -0.0085
78.1 -0.00387
78.15 -0.00507
78.2 -0.00094
78.25 0.00266
78.3 0.00707
78.35 0.00702
78.4 0.00618
78.45 0.00234
78.5 -0.00165
78.55 -0.0083
78.6 -0.01458
78.65 -0.0208
78.7 -0.02295
78.75 -0.02646
78.8 -0.02981
78.85 -0.03221
78.9 -0.03241
78.95 -0.02656
79 -0.02157
79.05 -0.0156
79.1 -0.01409
79.15 -0.01569
79.2 -0.01469
79.25 -0.0152
79.3 -0.01261
79.35 -0.00518
79.4 0.00155
79.45 0.00412
79.5 0.00776
79.55 0.00949
79.6 0.00844
79.65 0.00801
79.7 0.00723
79.75 0.00866
79.8 0.00623
79.85 0.00376
79.9 0.00378
79.95 0.00368
80 0.00435
80.05 0.00773
80.1 0.01289
80.15 0.0149
80.2 0.01196
80.25 0.00681
80.3 0.00491
80.35 0.00434
80.4 -0.00068
80.45 -0.0053
80.5 -0.01134
80.55 -0.01803
80.6 -0.01654
80.65 -0.01519
80.7 -0.00926
80.75 -0.00588
80.8 -0.00473
80.85 -0.00094
80.9 0.00331
80.95 0.00716
81 0.00693
81.05 0.00505
81.1 0.00234
81.15 -0.00096
81.2 0.0018
81.25 0.00664
81.3 0.00762
81.35 0.00981
81.4 0.01039
81.45 0.00848
81.5 0.00785
81.55 0.00724
81.6 0.00749
81.65 0.00609
81.7 0.00084
81.75 0.00132
81.8 0.00519
81.85 0.01077
81.9 0.01414
81.95 0.01331
82 0.01492
82.05 0.01593
82.1 0.01542
82.15 0.01651
82.2 0.01882
82.25 0.01711
82.3 0.01605
82.35 0.01541
82.4 0.0166
82.45 0.01595
82.5 0.01582
82.55 0.01252
82.6 0.00589
82.65 0.00508
82.7 0.00343
82.75 0.00217
82.8 0.00509
82.85 0.00221
82.9 -0.00196
82.95 -0.00712
83 -0.01267
83.05 -0.01185
83.1 -0.009
83.15 -0.00785
83.2 -0.00294
83.25 0.00065
83.3 -0.00091
83.35 -0.00572
83.4 -0.00917
83.45 -0.00799
83.5 -0.00588
83.55 0.0004
83.6 0.00463
83.65 0.00769
83.7 0.01251
83.75 0.01
83.8 0.00317
83.85 -0.00041
83.9 -0.00506
83.95 -0.00482
84 -0.00801
84.05 -0.00792
84.1 -0.01153
84.15 -0.0163
84.2 -0.01587
84.25 -0.01321
84.3 -0.00815
84.35 -0.00295
84.4 0.00161
84.45 0.00444
84.5 0.00844
84.55 0.00995
84.6 0.00709
84.65 0.00901
84.7 0.01243
84.75 0.01646
84.8 0.01896
84.85 0.01914
84.9 0.02047
84.95 0.02115
85 0.02051
85.05 0.01786
85.1 0.01307
85.15 0.00732
85.2 0.00623
85.25 0.00201
85.3 -0.0002
85.35 0.0025
85.4 -0.00036
85.45 0.00193
85.5 0.00251
85.55 -0.00016
85.6 0.00005
85.65 0.00352
85.7 0.00578
85.75 0.00974
85.8 0.01547
85.85 0.02011
85.9 0.02005
85.95 0.01553
86 0.01125
86.05 0.00978
86.1 0.00509
86.15 0.00503
86.2 0.00021
86.25 -0.00692
86.3 -0.01187
86.35 -0.01111
86.4 -0.00929
86.45 -0.00541
86.5 -0.00084
86.55 0.0015
86.6 0.00523
86.65 0.00315
86.7 -0.00067
86.75 -0.00806
86.8 -0.01485
86.85 -0.0192
86.9 -0.02204
86.95 -0.02668
87 -0.02403
87.05 -0.02085
87.1 -0.02191
87.15 -0.01843
87.2 -0.01051
87.25 -0.00459
87.3 -0.00287
87.35 -0.0001
87.4 0.00274
87.45 0.00234
87.5 -0.00191
87.55 -0.00383
87.6 -0.00246
87.65 0.00146
87.7 -0.00061
87.75 0.00189
87.8 -0.00115
87.85 -0.0006
87.9 0.00134
87.95 -0.00162
88 -0.00229
88.05 -0.00161
88.1 -0.00363
88.15 -0.00168
88.2 0.00276
88.25 0.00946
88.3 0.01356
88.35 0.01812
88.4 0.02226
88.45 0.025
88.5 0.02729
88.55 0.02182
88.6 0.01448
88.65 0.01017
88.7 0.00878
88.75 0.01127
88.8 0.00867
88.85 0.00198
88.9 -0.00655
88.95 -0.01366
89 -0.01361
89.05 -0.01367
89.1 -0.01053
89.15 -0.00666
89.2 -0.00228
89.25 -0.00165
89.3 0.00142
89.35 0.00467
89.4 0.00684
89.45 0.00447
89.5 0.0022
89.55 0.00046
89.6 -0.00547
89.65 -0.00752
89.7 -0.01125
89.75 -0.01397
89.8 -0.01715
89.85 -0.01529
89.9 -0.01539
89.95 -0.01219
90 -0.00545
90.05 -0.00249
90.1 -0.00184
90.15 0.00095
90.2 0.00131
90.25 -0.0032
90.3 -0.00827
90.35 -0.01161
90.4 -0.01245
90.45 -0.0077
90.5 -0.00693
90.55 -0.00815
90.6 -0.011
90.65 -0.00884
90.7 -0.01017
90.75 -0.01209
90.8 -0.00841
90.85 -0.00984
90.9 -0.00782
90.95 -0.00786
91 -0.00471
91.05 -0.00445
91.1 -0.00308
91.15 0.00004
91.2 0.0026
91.25 0.00827
91.3 0.01228
91.35 0.00913
91.4 0.00735
91.45 0.00719
91.5 0.00736
91.55 0.00407
91.6 0.00227
91.65 -0.00365
91.7 -0.00998
91.75 -0.0112
91.8 -0.0138
91.85 -0.01728
91.9 -0.02035
91.95 -0.02144
92 -0.01645
92.05 -0.01136
92.1 -0.00968
92.15 -0.00738
92.2 -0.00713
92.25 -0.00838
92.3 -0.01289
92.35 -0.01159
92.4 -0.00836
92.45 -0.00124
92.5 0.00173
92.55 0.00018
92.6 -0.00032
92.65 0.00246
92.7 0.00763
92.75 0.01458
92.8 0.01533
92.85 0.01623
92.9 0.01706
92.95 0.02002
93 0.01913
93.05 0.01258
93.1 0.01107
93.15 0.01074
93.2 0.00867
93.25 0.0091
93.3 0.00934
93.35 0.00491
93.4 0.00604
93.45 0.00295
93.5 0.0042
93.55 0.00763
93.6 0.00467
93.65 0.00037
93.7 0.00129
93.75 -0.00043
93.8 -0.00144
93.85 0.00183
93.9 0.00218
93.95 0.00287
94 0.00707
94.05 0.00507
94.1 0.00096
94.15 -0.00164
94.2 -0.00463
94.25 -0.00185
94.3 0.0043
94.35 0.01063
94.4 0.01703
94.45 0.02363
94.5 0.0293
94.55 0.02764
94.6 0.02636
94.65 0.02621
94.7 0.02104
94.75 0.01771
94.8 0.01568
94.85 0.01198
94.9 0.00812
94.95 0.00055
95 -0.00755
95.05 -0.01527
95.1 -0.01682
95.15 -0.01758
95.2 -0.01324
95.25 -0.01172
95.3 -0.01462
95.35 -0.01158
95.4 -0.00927
95.45 -0.00772
95.5 -0.00287
95.55 -0.00398
95.6 -0.0029
95.65 0.00006
95.7 0.00351
95.75 0.00608
95.8 0.00352
95.85 0.00562
95.9 0.00251
95.95 -0.00471
96 -0.01056
96.05 -0.01795
96.1 -0.01868
96.15 -0.0172
96.2 -0.01126
96.25 -0.00907
96.3 -0.00562
96.35 -0.00085
96.4 0.00546
96.45 0.00922
96.5 0.00902
96.55 0.00567
96.6 0.00002
96.65 -0.00644
96.7 -0.0103
96.75 -0.01623
96.8 -0.01852
96.85 -0.02305
96.9 -0.02489
96.95 -0.02358
97 -0.01831
97.05 -0.01674
97.1 -0.01077
97.15 -0.01071
97.2 -0.01071
97.25 -0.01169
97.3 -0.01009
97.35 -0.00869
97.4 -0.0085
97.45 -0.01216
97.5 -0.0165
97.55 -0.02007
97.6 -0.01808
97.65 -0.01396
97.7 -0.01028
97.75 -0.01098
97.8 -0.01093
97.85 -0.01195
97.9 -0.00965
97.95 -0.00459
98 0.00292
98.05 0.00894
98.1 0.00811
98.15 0.00735
98.2 0.01037
98.25 0.00983
98.3 0.00733
98.35 0.00534
98.4 0.00633
98.45 0.0049
98.5 0.00361
98.55 0.00144
98.6 -0.00297
98.65 -0.00758
98.7 -0.01234
98.75 -0.01889
98.8 -0.02079
98.85 -0.01755
98.9 -0.01328
98.95 -0.00977
99 -0.00738
99.05 -0.00444
99.1 -0.00599
99.15 -0.00321
99.2 -0.00525
99.25 -0.00564
99.3 -0.00312
99.35 -0.00105
99.4 -0.00358
99.45 -0.00171
99.5 0.00288
99.55 0.00654
99.6 0.0071
99.65 0.00785
99.7 0.00775
99.75 0.01156
99.8 0.01736
99.85 0.0212
99.9 0.01972
99.95 0.01559
