0 0
0.05 0.00848
0.1 0.01634
0.15 0.02659
0.2 0.03345
0.25 0.03518
0.3 0.03842
0.35 0.03799
0.4 0.03872
0.45 0.04119
0.5 0.04436
0.55 0.04574
0.6 0.04297
0.65 0.04052
0.7 0.03575
0.75 0.03134
0.8 0.03251
0.85 0.03018
0.9 0.02584
0.95 0.02382
1 0.02785
1.05 0.03052
1.1 0.0294
1.15 0.03419
1.2 0.03472
1.25 0.04051
1.3 0.04653
1.35 0.05007
1.4 0.05256
1.45 0.05331
1.5 0.04954
1.55 0.04776
1.6 0.04265
1.65 0.03676
1.7 0.03209
1.75 0.02849
1.8 0.02484
1.85 0.0202
1.9 0.01854
1.95 0.02374
2 0.03283
2.05 0.04223
2.1 0.04722
2.15 0.04853
2.2 0.05175
2.25 0.05365
2.3 0.05764
2.35 0.05585
2.4 0.05252
2.45 0.04519
2.5 0.04355
2.55 0.03765
2.6 0.03554
2.65 0.03356
2.7 0.02951
2.75 0.02514
2.8 0.01902
2.85 0.01502
2.9 0.01409
2.95 0.01263
3 0.009
3.05 0.01013
3.1 0.01313
3.15 0.01437
3.2 0.01514
3.25 0.01613
3.3 0.01368
3.35 0.01112
3.4 0.00868
3.45 0.00398
3.5 0.00156
3.55 0.00238
3.6 0.00768
3.65 0.01446
3.7 0.0163
3.75 0.02129
3.8 0.02114
3.85 0.01689
3.9 0.01263
3.95 0.00903
4 0.00801
4.05 0.00606
4.1 0.01037
4.15 0.01209
4.2 0.01361
4.25 0.01066
4.3 0.00579
4.35 0.00289
4.4 0.00043
4.45 -0.00064
4.5 -0.00828
4.55 -0.02122
4.6 -0.03582
4.65 -0.04561
4.7 -0.057
4.75 -0.06836
4.8 -0.08313
4.85 -0.09966
4.9 -0.11981
4.95 -0.14807
5 -0.18612
5.05 -0.22969
5.1 -0.27456
5.15 -0.3207
5.2 -0.37701
5.25 -0.43387
5.3 -0.5006
5.35 -0.57405
5.4 -0.6519
5.45 -0.72711
5.5 -0.79748
5.55 -0.86892
5.6 -0.93785
5.65 -0.9996
5.7 -1.05964
5.75 -1.11645
5.8 -1.16641
5.85 -1.20804
5.9 -1.24091
5.95 -1.26772
6 -1.28907
6.05 -1.30154
6.1 -1.31071
6.15 -1.31429
6.2 -1.3155
6.25 -1.30774
6.3 -1.2892
6.35 -1.26654
6.4 -1.24253
6.45 -1.2129
6.5 -1.17869
6.55 -1.13572
6.6 -1.08858
6.65 -1.03092
6.7 -0.96425
6.75 -0.89335
6.8 -0.81852
6.85 -0.73563
6.9 -0.64761
6.95 -0.55426
7 -0.45973
7.05 -0.35757
7.1 -0.24822
7.15 -0.14123
7.2 -0.034
7.25 0.0749
7.3 0.18873
7.35 0.30402
7.4 0.41127
7.45 0.51063
7.5 0.60871
7.55 0.7019
7.6 0.79471
7.65 0.87556
7.7 0.9488
7.75 1.01129
7.8 1.07082
7.85 1.12617
7.9 1.16715
7.95 1.19884
8 1.21959
8.05 1.23833
8.1 1.24881
8.15 1.25409
8.2 1.25187
8.25 1.24209
8.3 1.23141
8.35 1.21336
8.4 1.19371
8.45 1.17409
8.5 1.15602
8.55 1.13665
8.6 1.1078
8.65 1.07795
8.7 1.049
8.75 1.01565
8.8 0.98758
8.85 0.95595
8.9 0.92755
8.95 0.89562
9 0.87009
9.05 0.84139
9.1 0.81708
9.15 0.79327
9.2 0.76538
9.25 0.7421
9.3 0.71915
9.35 0.69611
9.4 0.68024
9.45 0.66027
9.5 0.64737
9.55 0.63598
9.6 0.62576
9.65 0.61207
9.7 0.59794
9.75 0.58694
9.8 0.57242
9.85 0.56319
9.9 0.55327
9.95 0.54434
10 0.53244
10.05 0.51663
10.1 0.49832
10.15 0.48378
10.2 0.46829
10.25 0.45499
10.3 0.44613
10.35 0.43204
10.4 0.41644
10.45 0.4035
10.5 0.38734
10.55 0.37145
10.6 0.3593
10.65 0.34992
10.7 0.33724
10.75 0.31806
10.8 0.29637
10.85 0.27593
10.9 0.25882
10.95 0.23945
11 0.22606
11.05 0.21442
11.1 0.2046
11.15 0.19188
11.2 0.17504
11.25 0.15876
11.3 0.13997
11.35 0.12481
11.4 0.1114
11.45 0.09756
11.5 0.07778
11.55 0.05845
11.6 0.0369
11.65 0.02215
11.7 0.00645
11.75 -0.01098
11.8 -0.02754
11.85 -0.04154
11.9 -0.05504
11.95 -0.0634
12 -0.06647
12.05 -0.0714
12.1 -0.07364
12.15 -0.07875
12.2 -0.08567
12.25 -0.08913
12.3 -0.09228
12.35 -0.0975
12.4 -0.10768
12.45 -0.11626
12.5 -0.12046
12.55 -0.12129
12.6 -0.12803
12.65 -0.13404
12.7 -0.13703
12.75 -0.13956
12.8 -0.14079
12.85 -0.14679
12.9 -0.15217
12.95 -0.15951
13 -0.16412
13.05 -0.17224
13.1 -0.17824
13.15 -0.18187
13.2 -0.179
13.25 -0.17684
13.3 -0.17422
13.35 -0.17556
13.4 -0.17538
13.45 -0.17339
13.5 -0.17517
13.55 -0.17501
13.6 -0.17343
13.65 -0.17491
13.7 -0.17713
13.75 -0.17871
13.8 -0.17744
13.85 -0.17386
13.9 -0.17045
13.95 -0.16912
14 -0.1712
14.05 -0.16798
14.1 -0.16097
14.15 -0.15766
14.2 -0.15017
14.25 -0.1415
14.3 -0.13862
14.35 -0.13885
14.4 -0.13754
14.45 -0.13911
14.5 -0.13974
14.55 -0.13465
14.6 -0.13338
14.65 -0.13522
14.7 -0.13775
14.75 -0.1372
14.8 -0.13407
14.85 -0.12818
14.9 -0.12436
14.95 -0.12022
15 -0.11716
15.05 -0.11842
15.1 -0.122
15.15 -0.11954
15.2 -0.11739
15.25 -0.11807
15.3 -0.12109
15.35 -0.11982
15.4 -0.11932
15.45 -0.12205
15.5 -0.11809
15.55 -0.11114
15.6 -0.10983
15.65 -0.10762
15.7 -0.10837
15.75 -0.11009
15.8 -0.10656
15.85 -0.09843
15.9 -0.09252
15.95 -0.08524
16 -0.08002
16.05 -0.07513
16.1 -0.06881
16.15 -0.06711
16.2 -0.06331
16.25 -0.06269
16.3 -0.06195
16.35 -0.05926
16.4 -0.0611
16.45 -0.06448
16.5 -0.06868
16.55 -0.07437
16.6 -0.0792
16.65 -0.0821
16.7 -0.07905
16.75 -0.07628
16.8 -0.0715
16.85 -0.07066
16.9 -0.06819
16.95 -0.06238
17 -0.05677
17.05 -0.05071
17.1 -0.04598
17.15 -0.04512
17.2 -0.04204
17.25 -0.04206
17.3 -0.04085
17.35 -0.03957
17.4 -0.03725
17.45 -0.03353
17.5 -0.03001
17.55 -0.0261
17.6 -0.02364
17.65 -0.02007
17.7 -0.02442
17.75 -0.02681
17.8 -0.02712
17.85 -0.02742
17.9 -0.03439
17.95 -0.04288
18 -0.04567
18.05 -0.05129
18.1 -0.05342
18.15 -0.05863
18.2 -0.05648
18.25 -0.05447
18.3 -0.05666
18.35 -0.06094
18.4 -0.06471
18.45 -0.06522
18.5 -0.06453
18.55 -0.05903
18.6 -0.05164
18.65 -0.05058
18.7 -0.04861
18.75 -0.04481
18.8 -0.04393
18.85 -0.04072
18.9 -0.0399
18.95 -0.03802
19 -0.03853
19.05 -0.04327
19.1 -0.04596
19.15 -0.0429
19.2 -0.03593
19.25 -0.03393
19.3 -0.03662
19.35 -0.04065
19.4 -0.03967
19.45 -0.04276
19.5 -0.04087
19.55 -0.03409
19.6 -0.02764
19.65 -0.02545
19.7 -0.02487
19.75 -0.02198
19.8 -0.02185
19.85 -0.02517
19.9 -0.02762
19.95 -0.02913
20 -0.03185
20.05 -0.02976
20.1 -0.02414
20.15 -0.01985
20.2 -0.02033
20.25 -0.02182
20.3 -0.02482
20.35 -0.0301
20.4 -0.03055
20.45 -0.03023
20.5 -0.02515
20.55 -0.02058
20.6 -0.01497
20.65 -0.00804
20.7 -0.00036
20.75 0.00049
20.8 -0.00226
20.85 -0.00475
20.9 -0.01027
20.95 -0.01511
21 -0.01628
21.05 -0.01846
21.1 -0.02448
21.15 -0.02398
21.2 -0.0213
21.25 -0.01787
21.3 -0.01881
21.35 -0.01654
21.4 -0.01919
21.45 -0.01653
21.5 -0.01165
21.55 -0.00841
21.6 -0.01085
21.65 -0.01365
21.7 -0.01954
21.75 -0.02191
21.8 -0.0244
21.85 -0.0234
21.9 -0.02474
21.95 -0.02703
22 -0.02759
22.05 -0.02423
22.1 -0.0168
22.15 -0.01671
22.2 -0.02051
22.25 -0.02024
22.3 -0.0164
22.35 -0.01377
22.4 -0.0166
22.45 -0.01392
22.5 -0.00893
22.55 -0.00172
22.6 0.00436
22.65 0.00887
22.7 0.00868
22.75 0.00214
22.8 -0.0073
22.85 -0.00919
22.9 -0.01425
22.95 -0.01423
23 -0.01807
23.05 -0.0199
23.1 -0.02359
23.15 -0.02126
23.2 -0.01429
23.25 -0.01199
23.3 -0.01112
23.35 -0.01415
23.4 -0.01943
23.45 -0.02326
23.5 -0.0236
23.55 -0.01948
23.6 -0.01277
23.65 -0.00794
23.7 -0.00531
23.75 -0.0002
23.8 0.0047
23.85 0.00797
23.9 0.00764
23.95 0.00227
24 -0.00229
24.05 -0.00357
24.1 -0.00503
24.15 -0.0036
24.2 -0.00313
24.25 -0.00561
24.3 -0.01058
24.35 -0.01436
24.4 -0.02012
24.45 -0.02066
24.5 -0.02302
24.55 -0.02128
24.6 -0.01693
24.65 -0.01657
24.7 -0.01863
24.75 -0.02116
24.8 -0.02323
24.85 -0.02248
24.9 -0.01707
24.95 -0.01171
25 -0.00823
25.05 -0.00519
25.1 -0.00343
25.15 -0.00459
25.2 -0.00417
25.25 -0.00883
25.3 -0.01127
25.35 -0.01126
25.4 -0.00782
25.45 -0.00434
25.5 -0.00702
25.55 -0.01312
25.6 -0.01686
25.65 -0.02116
25.7 -0.01847
25.75 -0.01231
25.8 -0.00911
25.85 -0.01042
25.9 -0.01546
25.95 -0.01849
26 -0.02053
26.05 -0.02454
26.1 -0.02972
26.15 -0.03127
26.2 -0.03366
26.25 -0.03677
26.3 -0.03949
26.35 -0.03449
26.4 -0.03123
26.45 -0.02503
26.5 -0.01992
26.55 -0.01285
26.6 -0.00298
26.65 0.00123
26.7 0.00719
26.75 0.01163
26.8 0.00887
26.85 0.00448
26.9 0.0062
26.95 0.00564
27 0.00553
27.05 0.00356
27.1 -0.00038
27.15 -0.00686
27.2 -0.00594
27.25 -0.00327
27.3 -0.00635
27.35 -0.00982
27.4 -0.01122
27.45 -0.00735
27.5 -0.00733
27.55 -0.00391
27.6 -0.00691
27.65 -0.01449
27.7 -0.02037
27.75 -0.02541
27.8 -0.02867
27.85 -0.02951
27.9 -0.03047
27.95 -0.03669
28 -0.04821
28.05 -0.05522
28.1 -0.06226
28.15 -0.07242
28.2 -0.08325
28.25 -0.09479
28.3 -0.10651
28.35 -0.12413
28.4 -0.14499
28.45 -0.17147
28.5 -0.19957
28.55 -0.23249
28.6 -0.26254
28.65 -0.29543
28.7 -0.32971
28.75 -0.36483
28.8 -0.40348
28.85 -0.45031
28.9 -0.50624
28.95 -0.56467
29 -0.62305
29.05 -0.68648
29.1 -0.75376
29.15 -0.81567
29.2 -0.87661
29.25 -0.93575
29.3 -0.99393
29.35 -1.05994
29.4 -1.12521
29.45 -1.19274
29.5 -1.25962
29.55 -1.31937
29.6 -1.37484
29.65 -1.42135
29.7 -1.46125
29.75 -1.49951
29.8 -1.53429
29.85 -1.55449
29.9 -1.56915
29.95 -1.57238
30 -1.56988
30.05 -1.5573
30.1 -1.53201
30.15 -1.50021
30.2 -1.45546
30.25 -1.40036
30.3 -1.33117
30.35 -1.25001
30.4 -1.1605
30.45 -1.06225
30.5 -0.96346
30.55 -0.86142
30.6 -0.75596
30.65 -0.64907
30.7 -0.53378
30.75 -0.41345
30.8 -0.29733
30.85 -0.18428
30.9 -0.07078
30.95 0.04245
31 0.15557
31.05 0.26788
31.1 0.37493
31.15 0.47536
31.2 0.5713
31.25 0.65714
31.3 0.73729
31.35 0.81488
31.4 0.88983
31.45 0.9533
31.5 1.01097
31.55 1.05861
31.6 1.10787
31.65 1.14984
31.7 1.18419
31.75 1.21218
31.8 1.24145
31.85 1.26468
31.9 1.28883
31.95 1.3094
32 1.31917
32.05 1.32385
32.1 1.33021
32.15 1.33698
32.2 1.34204
32.25 1.33891
32.3 1.33155
32.35 1.32056
32.4 1.30976
32.45 1.29707
32.5 1.28834
32.55 1.28097
32.6 1.27409
32.65 1.26603
32.7 1.25089
32.75 1.23781
32.8 1.22276
32.85 1.20775
32.9 1.1908
32.95 1.17402
33 1.14883
33.05 1.11942
33.1 1.09143
33.15 1.05866
33.2 1.02563
33.25 0.99675
33.3 0.96978
33.35 0.93934
33.4 0.91376
33.45 0.88305
33.5 0.8566
33.55 0.83111
33.6 0.8049
33.65 0.77377
33.7 0.74204
33.75 0.71409
33.8 0.68714
33.85 0.66438
33.9 0.6419
33.95 0.61947
34 0.59084
34.05 0.56242
34.1 0.53199
34.15 0.50319
34.2 0.47646
34.25 0.44987
34.3 0.42485
34.35 0.39718
34.4 0.36634
34.45 0.33972
34.5 0.31134
34.55 0.28646
34.6 0.26044
34.65 0.23924
34.7 0.21903
34.75 0.19567
34.8 0.17645
34.85 0.15426
34.9 0.13736
34.95 0.11546
35 0.09964
35.05 0.08347
35.1 0.07074
35.15 0.0562
35.2 0.04497
35.25 0.02869
35.3 0.01383
35.35 0.0009
35.4 -0.00856
35.45 -0.01964
35.5 -0.03412
35.55 -0.05204
35.6 -0.06657
35.65 -0.07882
35.7 -0.09067
35.75 -0.09748
35.8 -0.10844
35.85 -0.11985
35.9 -0.1338
35.95 -0.14721
36 -0.15671
36.05 -0.16324
36.1 -0.16953
36.15 -0.17482
36.2 -0.17966
36.25 -0.18299
36.3 -0.18311
36.35 -0.18601
36.4 -0.18797
36.45 -0.1908
36.5 -0.19192
36.55 -0.19544
36.6 -0.19529
36.65 -0.19333
36.7 -0.19206
36.75 -0.19123
36.8 -0.1898
36.85 -0.19445
36.9 -0.20217
36.95 -0.20478
37 -0.20933
37.05 -0.21433
37.1 -0.21328
37.15 -0.21076
37.2 -0.21233
37.25 -0.2091
37.3 -0.20522
37.35 -0.20114
37.4 -0.19797
37.45 -0.19693
37.5 -0.1931
37.55 -0.18698
37.6 -0.17969
37.65 -0.17627
37.7 -0.17733
37.75 -0.17509
37.8 -0.1752
37.85 -0.17889
37.9 -0.17723
37.95 -0.18094
38 -0.18378
38.05 -0.1808
38.1 -0.1802
38.15 -0.17498
38.2 -0.17588
38.25 -0.17412
38.3 -0.17258
38.35 -0.17037
38.4 -0.16844
38.45 -0.16907
38.5 -0.16791
38.55 -0.1654
38.6 -0.1635
38.65 -0.15897
38.7 -0.15887
38.75 -0.15324
38.8 -0.15018
38.85 -0.14919
38.9 -0.14383
38.95 -0.14302
39 -0.144
39.05 -0.14126
39.1 -0.13492
39.15 -0.13224
39.2 -0.13018
39.25 -0.12606
39.3 -0.12577
39.35 -0.12576
39.4 -0.12411
39.45 -0.12026
39.5 -0.12144
39.55 -0.12191
39.6 -0.12249
39.65 -0.12053
39.7 -0.11697
39.75 -0.10973
39.8 -0.10372
39.85 -0.1
39.9 -0.10244
39.95 -0.09924
40 -0.09787
40.05 -0.09895
40.1 -0.09476
40.15 -0.09012
40.2 -0.0907
40.25 -0.09024
40.3 -0.0946
40.35 -0.09755
40.4 -0.09534
40.45 -0.09344
40.5 -0.09498
40.55 -0.0929
40.6 -0.09129
40.65 -0.08557
40.7 -0.07913
40.75 -0.07474
40.8 -0.07186
40.85 -0.06642
40.9 -0.06447
40.95 -0.0625
41 -0.06106
41.05 -0.05843
41.1 -0.05403
41.15 -0.0549
41.2 -0.06161
41.25 -0.06244
41.3 -0.05902
41.35 -0.05782
41.4 -0.05693
41.45 -0.0565
41.5 -0.05326
41.55 -0.05629
41.6 -0.06135
41.65 -0.06944
41.7 -0.07684
41.75 -0.07768
41.8 -0.07756
41.85 -0.07396
41.9 -0.06645
41.95 -0.05926
42 -0.05463
42.05 -0.04844
42.1 -0.04319
42.15 -0.03849
42.2 -0.03608
42.25 -0.03489
42.3 -0.03465
42.35 -0.04019
42.4 -0.04765
42.45 -0.05697
42.5 -0.05896
42.55 -0.05897
42.6 -0.05751
42.65 -0.057
42.7 -0.05754
42.75 -0.05266
42.8 -0.04887
42.85 -0.0451
42.9 -0.04451
42.95 -0.03936
43 -0.03871
43.05 -0.03758
43.1 -0.03765
43.15 -0.03954
43.2 -0.04242
43.25 -0.04027
43.3 -0.04224
43.35 -0.04771
43.4 -0.05495
43.45 -0.06063
43.5 -0.06224
43.55 -0.0621
43.6 -0.06003
43.65 -0.05543
43.7 -0.05453
43.75 -0.05029
43.8 -0.04489
43.85 -0.0357
43.9 -0.02636
43.95 -0.02091
44 -0.01691
44.05 -0.01846
44.1 -0.0218
44.15 -0.02907
44.2 -0.03538
44.25 -0.03615
44.3 -0.03816
44.35 -0.04106
44.4 -0.04325
44.45 -0.04556
44.5 -0.04246
44.55 -0.03901
44.6 -0.03256
44.65 -0.02837
44.7 -0.0299
44.75 -0.02597
44.8 -0.0204
44.85 -0.01751
44.9 -0.01382
44.95 -0.00889
45 -0.00399
45.05 -0.00397
45.1 -0.00601
45.15 -0.00772
45.2 -0.01081
45.25 -0.01223
45.3 -0.01602
45.35 -0.02238
45.4 -0.02825
45.45 -0.02813
45.5 -0.02505
45.55 -0.02299
45.6 -0.02032
45.65 -0.02169
45.7 -0.0258
45.75 -0.02366
45.8 -0.02505
45.85 -0.02327
45.9 -0.01909
45.95 -0.01163
46 -0.00368
46.05 0.00326
46.1 0.00557
46.15 0.00423
46.2 0.00012
46.25 -0.00841
46.3 -0.01739
46.35 -0.02466
46.4 -0.02934
46.45 -0.03018
46.5 -0.02613
46.55 -0.01788
46.6 -0.01053
46.65 -0.00213
46.7 0.00656
46.75 0.01438
46.8 0.01917
46.85 0.02095
46.9 0.02227
46.95 0.0246
47 0.02361
47.05 0.01799
47.1 0.01283
47.15 0.01101
47.2 0.00342
47.25 -0.00178
47.3 -0.00753
47.35 -0.00727
47.4 -0.00662
47.45 -0.00417
47.5 -0.00637
47.55 -0.01282
47.6 -0.01711
47.65 -0.02062
47.7 -0.02592
47.75 -0.0304
47.8 -0.02735
47.85 -0.02208
47.9 -0.01809
47.95 -0.01053
48 -0.01016
48.05 -0.01228
48.1 -0.01218
48.15 -0.01199
48.2 -0.01351
48.25 -0.01222
48.3 -0.00862
48.35 -0.00831
48.4 -0.01008
48.45 -0.00911
48.5 -0.00712
48.55 -0.0104
48.6 -0.01136
48.65 -0.00845
48.7 -0.00223
48.75 0.0002
48.8 -0.00229
48.85 -0.00653
48.9 -0.01328
48.95 -0.01974
49 -0.02198
49.05 -0.02527
49.1 -0.03083
49.15 -0.03073
49.2 -0.02556
49.25 -0.02131
49.3 -0.01525
49.35 -0.01409
49.4 -0.0149
49.45 -0.01242
49.5 -0.01297
49.55 -0.01217
49.6 -0.0137
49.65 -0.01528
49.7 -0.01902
49.75 -0.01894
49.8 -0.01559
49.85 -0.0118
49.9 -0.00995
49.95 -0.00445
50 -0.00184
50.05 0.00384
50.1 0.00954
50.15 0.01586
50.2 0.01917
50.25 0.01573
50.3 0.01611
50.35 0.00988
50.4 0.00428
50.45 -0.0003
50.5 -0.00426
50.55 -0.00529
50.6 -0.00403
50.65 -0.0026
50.7 -0.00436
50.75 -0.00186
50.8 -0.0031
50.85 0.00048
50.9 0.00385
50.95 0.00811
51 0.01426
51.05 0.01995
51.1 0.02258
51.15 0.01861
51.2 0.0176
51.25 0.01799
51.3 0.01929
51.35 0.02248
51.4 0.01931
51.45 0.01026
51.5 0.00137
51.55 -0.00942
51.6 -0.0142
51.65 -0.01776
51.7 -0.01957
51.75 -0.01742
51.8 -0.01795
51.85 -0.01687
51.9 -0.01861
51.95 -0.02318
52 -0.02662
52.05 -0.02352
52.1 -0.01658
52.15 -0.00717
52.2 0.00222
52.25 0.0051
52.3 0.0101
52.35 0.00967
52.4 0.00915
52.45 0.0045
52.5 0.0015
52.55 -0.00117
52.6 -0.00025
52.65 -0.00036
52.7 -0.00395
52.75 -0.00233
52.8 -0.00219
52.85 -0.00678
52.9 -0.00589
52.95 -0.00964
53 -0.00883
53.05 -0.00346
53.1 -0.00476
53.15 -0.00248
53.2 0.00122
53.25 0.00173
53.3 0.00103
53.35 0.00305
53.4 -0.00053
53.45 -0.00042
53.5 0.00081
53.55 -0.00056
53.6 -0.00116
53.65 -0.00171
53.7 0.00229
53.75 0.00444
53.8 0.00134
53.85 -0.00025
53.9 -0.00567
53.95 -0.01392
54 -0.01993
54.05 -0.02435
54.1 -0.02728
54.15 -0.02413
54.2 -0.0182
54.25 -0.01042
54.3 -0.00683
54.35 -0.00172
54.4 -0.00107
54.45 -0.0001
54.5 -0.00147
54.55 0.00203
54.6 0.00326
54.65 0.00796
54.7 0.01124
54.75 0.01295
54.8 0.01408
54.85 0.01632
54.9 0.01805
54.95 0.02123
55 0.02157
55.05 0.02143
55.1 0.01597
55.15 0.01286
55.2 0.01088
55.25 0.00489
55.3 -0.00094
55.35 -0.00804
55.4 -0.00821
55.45 -0.00539
55.5 -0.00338
55.55 -0.00617
55.6 -0.00648
55.65 -0.00481
55.7 -0.00759
55.75 -0.00468
55.8 -0.00459
55.85 -0.00621
55.9 -0.01041
55.95 -0.01192
56 -0.01674
56.05 -0.01438
56.1 -0.01125
56.15 -0.00944
56.2 -0.01256
56.25 -0.01583
56.3 -0.01951
56.35 -0.01671
56.4 -0.01052
56.45 -0.01034
56.5 -0.0129
56.55 -0.01689
56.6 -0.01463
56.65 -0.0131
56.7 -0.01009
56.75 -0.00562
56.8 -0.00117
56.85 0.00332
56.9 0.00864
56.95 0.01016
57 0.00804
57.05 0.00737
57.1 0.00628
57.15 0.00903
57.2 0.00523
57.25 -0.00163
57.3 -0.00995
57.35 -0.01917
57.4 -0.02376
57.45 -0.02314
57.5 -0.01761
57.55 -0.01342
57.6 -0.00673
57.65 0.00167
57.7 0.00479
57.75 0.01033
57.8 0.00918
57.85 0.00889
57.9 0.00584
57.95 0.00411
58 0.00081
58.05 0.00062
58.1 0.00321
58.15 0.00027
58.2 -0.00344
58.25 -0.00382
58.3 -0.00075
58.35 -0.00048
58.4 0.00144
58.45 0.00663
58.5 0.00937
58.55 0.00815
58.6 0.00619
58.65 0.00849
58.7 0.01276
58.75 0.01846
58.8 0.01601
58.85 0.01163
58.9 0.00274
58.95 -0.00138
59 -0.00603
59.05 -0.00925
59.1 -0.00881
59.15 -0.01073
59.2 -0.00747
59.25 -0.00394
59.3 -0.00343
59.35 -0.00554
59.4 -0.00758
59.45 -0.00498
59.5 -0.0045
59.55 -0.00674
59.6 -0.01259
59.65 -0.02029
59.7 -0.02777
59.75 -0.02767
59.8 -0.02183
59.85 -0.01556
59.9 -0.00971
59.95 -0.00501
60 0.00186
60.05 0.00843
60.1 0.00715
60.15 0.00787
60.2 0.01091
60.25 0.01314
60.3 0.01189
60.35 0.01179
60.4 0.00958
60.45 0.00382
60.5 -0.00429
60.55 -0.01173
60.6 -0.01762
60.65 -0.0195
60.7 -0.01453
60.75 -0.01088
60.8 -0.01002
60.85 -0.0078
60.9 -0.00131
60.95 -0.00033
61 -0.00459
61.05 -0.01135
61.1 -0.01045
61.15 -0.00744
61.2 -0.00647
61.25 -0.00965
61.3 -0.01184
61.35 -0.01112
61.4 -0.00596
61.45 -0.00464
61.5 -0.00066
61.55 0.00074
61.6 0.00608
61.65 0.00583
61.7 0.0088
61.75 0.01139
61.8 0.00722
61.85 0.00617
61.9 0.00047
61.95 -0.00739
62 -0.01635
62.05 -0.02519
62.1 -0.0294
62.15 -0.02939
62.2 -0.02461
62.25 -0.01782
62.3 -0.01019
62.35 -0.00693
62.4 -0.00783
62.45 -0.00885
62.5 -0.00742
62.55 -0.00604
62.6 -0.00668
62.65 -0.00351
62.7 0.00134
62.75 0.00918
62.8 0.01107
62.85 0.01395
62.9 0.0106
62.95 0.01169
63 0.0092
63.05 0.00263
63.1 -0.00576
63.15 -0.00629
63.2 -0.00317
63.25 -0.00543
63.3 -0.00212
63.35 0.00205
63.4 0.0006
63.45 -0.00419
63.5 -0.00851
63.55 -0.00705
63.6 -0.00253
63.65 0.00447
63.7 0.00668
63.75 0.00794
63.8 0.00725
63.85 0.01094
63.9 0.01429
63.95 0.01795
64 0.02087
64.05 0.02308
64.1 0.02202
64.15 0.0154
64.2 0.01285
64.25 0.01293
64.3 0.00771
64.35 0.00449
64.4 -0.00101
64.45 -0.00333
64.5 -0.0064
64.55 -0.00323
64.6 0.00024
64.65 -0.00261
64.7 -0.00465
64.75 -0.00941
64.8 -0.01094
64.85 -0.00977
64.9 -0.00642
64.95 -0.00875
65 -0.01037
65.05 -0.0089
65.1 -0.0037
65.15 -0.00103
65.2 -0.00239
65.25 -0.00336
65.3 0.00069
65.35 -0.00146
65.4 -0.00293
65.45 -0.00674
65.5 -0.01175
65.55 -0.01121
65.6 -0.01049
65.65 -0.01346
65.7 -0.01475
65.75 -0.0129
65.8 -0.00933
65.85 -0.00505
65.9 -0.00138
65.95 0.00185
66 0.00511
66.05 0.00251
66.1 0.00218
66.15 0.0016
66.2 0.00586
66.25 0.00589
66.3 0.00441
66.35 0.0069
66.4 0.00981
66.45 0.01486
66.5 0.02132
66.55 0.02217
66.6 0.01928
66.65 0.01988
66.7 0.023
66.75 0.02531
66.8 0.02219
66.85 0.01501
66.9 0.00977
66.95 0.00434
67 0.00205
67.05 0.00207
67.1 -0.00164
67.15 -0.00556
67.2 -0.01134
67.25 -0.01841
67.3 -0.01953
67.35 -0.02184
67.4 -0.01981
67.45 -0.01438
67.5 -0.01471
67.55 -0.01476
67.6 -0.0124
67.65 -0.00744
67.7 -0.00414
67.75 0.00145
67.8 0.00394
67.85 0.00185
67.9 0.00469
67.95 0.00842
68 0.01088
68.05 0.01216
68.1 0.01467
68.15 0.01518
68.2 0.01268
68.25 0.00966
68.3 0.00254
68.35 -0.00002
68.4 -0.00629
68.45 -0.01286
68.5 -0.01638
68.55 -0.01393
68.6 -0.00917
68.65 -0.00855
68.7 -0.00825
68.75 -0.0121
68.8 -0.01206
68.85 -0.00972
68.9 -0.01237
68.95 -0.01691
69 -0.0175
69.05 -0.01176
69.1 -0.00535
69.15 0.00144
69.2 0.00776
69.25 0.011
69.3 0.0154
69.35 0.01351
69.4 0.00783
69.45 0.00007
69.5 -0.0058
69.55 -0.01027
69.6 -0.01703
69.65 -0.01818
69.7 -0.01676
69.75 -0.01095
69.8 -0.00703
69.85 -0.0082
69.9 -0.00744
69.95 -0.00492
70 0.00094
70.05 0.00779
70.1 0.01199
70.15 0.01737
70.2 0.02395
70.25 0.02396
70.3 0.02336
70.35 0.01712
70.4 0.01401
70.45 0.01518
70.5 0.01412
70.55 0.01099
70.6 0.00878
70.65 0.00911
70.7 0.01049
70.75 0.01132
70.8 0.00675
70.85 0.00767
70.9 0.00935
70.95 0.00625
71 0.00766
71.05 0.00514
71.1 0.00677
71.15 0.00787
71.2 0.00678
71.25 0.00417
71.3 0.0015
71.35 -0.00436
71.4 -0.00671
71.45 -0.00619
71.5 -0.00102
71.55 0.00525
71.6 0.00747
71.65 0.00362
71.7 -0.00379
71.75 -0.00542
71.8 -0.00752
71.85 -0.00793
71.9 -0.00564
71.95 -0.00654
72 -0.01136
72.05 -0.00963
72.1 -0.006
72.15 -0.00742
72.2 -0.00509
72.25 -0.00577
72.3 -0.00361
72.35 0.00039
72.4 0.0069
72.45 0.00691
72.5 0.00229
72.55 -0.00022
72.6 -0.00264
72.65 -0.00267
72.7 -0.00249
72.75 -0.00181
72.8 0.00065
72.85 -0.00269
72.9 -0.00881
72.95 -0.01152
73 -0.01724
73.05 -0.02378
73.1 -0.03023
73.15 -0.02858
73.2 -0.02731
73.25 -0.02548
73.3 -0.02237
73.35 -0.0155
73.4 -0.00903
73.45 -0.00116
73.5 0.00334
73.55 0.00312
73.6 0.00206
73.65 0.0042
73.7 0.00099
73.75 -0.00525
73.8 -0.00703
73.85 -0.0106
73.9 -0.0084
73.95 -0.008
74 -0.01075
74.05 -0.01029
74.1 -0.00588
74.15 -0.00199
74.2 -0.00242
74.25 -0.00115
74.3 -0.00056
74.35 -0.00288
74.4 -0.00669
74.45 -0.01061
74.5 -0.01336
74.55 -0.01499
74.6 -0.01333
74.65 -0.01274
74.7 -0.01046
74.75 -0.00705
74.8 -0.00172
74.85 0.00585
74.9 0.01405
74.95 0.0134
75 0.01149
75.05 0.00945
75.1 0.00562
75.15 -0.00179
75.2 -0.00456
75.25 -0.00931
75.3 -0.01523
75.35 -0.01326
75.4 -0.00795
75.45 -0.00627
75.5 -0.00101
75.55 0.00382
75.6 0.00202
75.65 -0.0007
75.7 -0.00461
75.75 -0.00639
75.8 -0.00703
75.85 -0.00628
75.9 -0.00432
75.95 0.00164
76 0.00835
76.05 0.01479
76.1 0.01997
76.15 0.01871
76.2 0.01186
76.25 0.0101
76.3 0.01214
76.35 0.01637
76.4 0.02181
76.45 0.0251
76.5 0.02251
76.55 0.02258
76.6 0.02172
76.65 0.01945
76.7 0.01828
76.75 0.01298
76.8 0.00495
76.85 0.00258
76.9 0.00007
76.95 -0.00355
77 -0.00333
77.05 -0.00198
77.1 -0.00031
77.15 -0.00025
77.2 0.00169
77.25 0.00316
77.3 0.00268
77.35 -0.00099
77.4 -0.00047
77.45 -0.00234
77.5 -0.00709
77.55 -0.00926
77.6 -0.01131
77.65 -0.00827
77.7 -0.0062
77.75 -0.00037
77.8 0.0052
77.85 0.00889
77.9 0.00823
77.95 0.00442
78 0.00315
78.05 -0.00056
78.1 -0.00588
78.15 -0.00429
78.2 -0.00328
78.25 -0.00565
78.3 -0.00913
78.35 -0.0118
78.4 -0.00812
78.45 -0.0039
78.5 0.0011
78.55 0.00142
78.6 0.00101
78.65 0.00325
78.7 0.00585
78.75 0.00339
78.8 0.00004
78.85 -0.00606
78.9 -0.01121
78.95 -0.00962
79 -0.00992
79.05 -0.00552
79.1 -0
79.15 0.00296
79.2 0.00518
79.25 0.00669
79.3 0.0061
79.35 0.00962
79.4 0.00699
79.45 0.00265
79.5 0.00428
79.55 0.007
79.6 0.0088
79.65 0.0094
79.7 0.00507
79.75 0.00461
79.8 0.00256
79.85 0.00021
79.9 -0.00205
79.95 -0.00709
80 -0.01171
80.05 -0.01183
80.1 -0.0067
80.15 0.00134
80.2 0.00728
80.25 0.01088
80.3 0.01148
80.35 0.01228
80.4 0.01446
80.45 0.0169
80.5 0.01848
80.55 0.01413
80.6 0.01038
80.65 0.00583
80.7 0.00417
80.75 -0.00116
80.8 -0.00228
80.85 0.00081
80.9 0.00591
80.95 0.00769
81 0.00865
81.05 0.0075
81.1 0.01024
81.15 0.00998
81.2 0.00617
81.25 0.00673
81.3 0.00269
81.35 0.00374
81.4 0.00805
81.45 0.0087
81.5 0.00747
81.55 0.01011
81.6 0.01508
81.65 0.01698
81.7 0.01145
81.75 0.01035
81.8 0.00746
81.85 0.00391
81.9 -0.00265
81.95 -0.01101
82 -0.01597
82.05 -0.0229
82.1 -0.02547
82.15 -0.0283
82.2 -0.02633
82.25 -0.01939
82.3 -0.01443
82.35 -0.00805
82.4 -0.00712
82.45 -0.00705
82.5 -0.00472
82.55 0.00002
82.6 0.00676
82.65 0.01395
82.7 0.01782
82.75 0.02108
82.8 0.02345
82.85 0.02212
82.9 0.02203
82.95 0.01987
83 0.01983
83.05 0.01335
83.1 0.00612
83.15 0.00272
83.2 -0.00283
83.25 -0.00987
83.3 -0.01532
83.35 -0.01457
83.4 -0.01297
83.45 -0.01537
83.5 -0.01771
83.55 -0.01391
83.6 -0.00975
83.65 -0.01128
83.7 -0.01136
83.75 -0.01161
83.8 -0.00991
83.85 -0.01304
83.9 -0.01716
83.95 -0.0216
84 -0.02489
84.05 -0.02123
84.1 -0.01428
84.15 -0.0055
84.2 0.00311
84.25 0.00633
84.3 0.01014
84.35 0.01077
84.4 0.00967
84.45 0.00946
84.5 0.01007
84.55 0.01269
84.6 0.0147
84.65 0.01216
84.7 0.0083
84.75 0.00127
84.8 -0.00024
84.85 -0.00226
84.9 -0.00638
84.95 -0.0091
85 -0.01129
85.05 -0.01525
85.1 -0.01606
85.15 -0.01589
85.2 -0.01527
85.25 -0.01105
85.3 -0.01102
85.35 -0.01191
85.4 -0.0102
85.45 -0.00925
85.5 -0.01103
85.55 -0.01415
85.6 -0.01214
85.65 -0.01022
85.7 -0.00597
85.75 -0.00255
85.8 0.00162
85.85 0.00346
85.9 0.00149
85.95 -0.00297
86 -0.01027
86.05 -0.01715
86.1 -0.02179
86.15 -0.0246
86.2 -0.02849
86.25 -0.03338
86.3 -0.03115
86.35 -0.02638
86.4 -0.02115
86.45 -0.01374
86.5 -0.00589
86.55 0.00427
86.6 0.01166
86.65 0.01476
86.7 0.0146
86.75 0.01176
86.8 0.00483
86.85 0.00139
86.9 -0.00218
86.95 -0.00662
87 -0.01198
87.05 -0.01192
87.1 -0.00881
87.15 -0.00242
87.2 -0.0003
87.25 0.00403
87.3 0.00713
87.35 0.00912
87.4 0.00536
87.45 0.00564
87.5 0.00118
87.55 -0.00348
87.6 -0.00487
87.65 -0.00093
87.7 0.0022
87.75 0.00525
87.8 0.00408
87.85 0.00629
87.9 0.00472
87.95 0.00044
88 -0.00491
88.05 -0.00399
88.1 -0.00413
88.15 -0.00721
88.2 -0.00619
88.25 -0.00075
88.3 0.00226
88.35 0.00404
88.4 0.00161
88.45 0.0039
88.5 0.00421
88.55 -0.00056
88.6 -0.00073
88.65 0.00106
88.7 0.00362
88.75 0.00234
88.8 0.00088
88.85 0.00112
88.9 -0.00281
88.95 -0.00164
89 -0.00051
89.05 0.0021
89.1 0.00442
89.15 0.0101
89.2 0.01292
89.25 0.01332
89.3 0.01572
89.35 0.01148
89.4 0.00749
89.45 0.00594
89.5 0.00476
89.55 0.00087
89.6 -0.00289
89.65 -0.00684
89.7 -0.01226
89.75 -0.01415
89.8 -0.017
89.85 -0.01553
89.9 -0.00924
89.95 -0.0062
90 -0.00644
90.05 -0.00173
90.1 0.00586
90.15 0.0063
90.2 0.00683
90.25 0.00529
90.3 0.00219
90.35 -0.00189
90.4 -0.00184
90.45 -0.00093
90.5 -0.00296
90.55 -0.00427
90.6 -0.00309
90.65 -0.00463
90.7 -0.00672
90.75 -0.01186
90.8 -0.01174
90.85 -0.01108
90.9 -0.01354
90.95 -0.01631
91 -0.01876
91.05 -0.01618
91.1 -0.01264
91.15 -0.00906
91.2 -0.00469
91.25 -0.00289
91.3 -0.00505
91.35 -0.01051
91.4 -0.01144
91.45 -0.01185
91.5 -0.01281
91.55 -0.00784
91.6 0.00005
91.65 0.00322
91.7 0.00428
91.75 0.00789
91.8 0.01134
91.85 0.01711
91.9 0.01833
91.95 0.01531
92 0.01652
92.05 0.0126
92.1 0.01075
92.15 0.01046
92.2 0.01218
92.25 0.01673
92.3 0.0177
92.35 0.01305
92.4 0.00642
92.45 0.00294
92.5 0.00157
92.55 -0.00303
92.6 -0.00705
92.65 -0.00528
92.7 0.00096
92.75 0.00374
92.8 0.00297
92.85 0.00632
92.9 0.00308
92.95 -0.00119
93 -0.00576
93.05 -0.00807
93.1 -0.01144
93.15 -0.00847
93.2 -0.00436
93.25 -0.00505
93.3 -0.00541
93.35 -0.00106
93.4 0.0064
93.45 0.01068
93.5 0.00845
93.55 0.00937
93.6 0.00469
93.65 0.00593
93.7 0.00868
93.75 0.00744
93.8 0.01057
93.85 0.01016
93.9 0.00534
93.95 0.00352
94 0.0065
94.05 0.01079
94.1 0.01006
94.15 0.01321
94.2 0.01029
94.25 0.01165
94.3 0.00939
94.35 0.00878
94.4 0.01111
94.45 0.01168
94.5 0.01176
94.55 0.00721
94.6 0.00592
94.65 0.00491
94.7 0.00584
94.75 0.00219
94.8 0.00089
94.85 0.00439
94.9 0.00132
94.95 -0.00242
95 -0.00677
95.05 -0.01275
95.1 -0.01272
95.15 -0.01654
95.2 -0.01714
95.25 -0.0174
95.3 -0.01453
95.35 -0.01435
95.4 -0.01245
95.45 -0.00696
95.5 -0.00263
95.55 0.00264
95.6 0.00617
95.65 0.00554
95.7 0.00872
95.75 0.01359
95.8 0.01361
95.85 0.0129
95.9 0.01349
95.95 0.0085
96 0.00003
96.05 -0.00791
96.1 -0.01197
96.15 -0.01399
96.2 -0.00992
96.25 -0.00505
96.3 -0.00056
96.35 0.00572
96.4 0.01264
96.45 0.01808
96.5 0.01716
96.55 0.01285
96.6 0.0097
96.65 0.00477
96.7 0.00395
96.75 -0.00111
96.8 0.00028
96.85 -0.0028
96.9 -0.00149
96.95 -0.00082
97 0.00132
97.05 -0.00255
97.1 -0.00164
97.15 -0.00104
97.2 0.00371
97.25 0.00384
97.3 0.00206
97.35 -0.00004
97.4 0.00297
97.45 0.00157
97.5 0.00293
97.55 0.00498
97.6 0.00576
97.65 0.00321
97.7 0.00039
97.75 0.00141
97.8 0.00077
97.85 -0.00089
97.9 -0.00499
97.95 -0.01019
98 -0.01254
98.05 -0.01056
98.1 -0.00555
98.15 -0.00291
98.2 -0.00124
98.25 -0.00034
98.3 -0.00328
98.35 -0.00327
98.4 -0.00404
98.45 -0.00539
98.5 -0.00589
98.55 -0.00913
98.6 -0.01425
98.65 -0.01289
98.7 -0.01104
98.75 -0.01027
98.8 -0.00835
98.85 -0.00257
98.9 0.0059
98.95 0.01162
99 0.01485
99.05 0.01411
99.1 0.01411
99.15 0.01546
99.2 0.01475
99.25 0.01188
99.3 0.0134
99.35 0.00931
99.4 0.00757
99.45 0.00835
99.5 0.00523
99.55 0.00464
99.6 0.00562
99.65 0.00518
99.7 0.00658
99.75 0.00679
99.8 0.00286
99.85 -0.00452
99.9 -0.01336
99.95 -0.01997
