0 0
0.05 0.00296
0.1 0.01077
0.15 0.01685
0.2 0.02738
0.25 0.03989
0.3 0.05109
0.35 0.0602
0.4 0.06322
0.45 0.06446
0.5 0.06777
0.55 0.07167
0.6 0.07531
0.65 0.07424
0.7 0.07246
0.75 0.06905
0.8 0.06921
0.85 0.06797
0.9 0.06171
0.95 0.05199
1 0.04971
1.05 0.04391
1.1 0.04229
1.15 0.04019
1.2 0.04033
1.25 0.03571
1.3 0.03169
1.35 0.03322
1.4 0.03328
1.45 0.03226
1.5 0.03561
1.55 0.04128
1.6 0.04468
1.65 0.04796
1.7 0.05021
1.75 0.04688
1.8 0.04285
1.85 0.04234
1.9 0.0448
1.95 0.04692
2 0.04697
2.05 0.04691
2.1 0.04584
2.15 0.04344
2.2 0.04197
2.25 0.04111
2.3 0.03466
2.35 0.02908
2.4 0.02441
2.45 0.02109
2.5 0.02168
2.55 0.01976
2.6 0.01733
2.65 0.01731
2.7 0.01474
2.75 0.01485
2.8 0.01439
2.85 0.01226
2.9 0.01233
2.95 0.0156
3 0.01591
3.05 0.01689
3.1 0.01882
3.15 0.01721
3.2 0.02022
3.25 0.02268
3.3 0.02324
3.35 0.02587
3.4 0.0305
3.45 0.03458
3.5 0.03238
3.55 0.02604
3.6 0.02347
3.65 0.02543
3.7 0.02517
3.75 0.02659
3.8 0.02268
3.85 0.02421
3.9 0.02291
3.95 0.01872
4 0.01404
4.05 0.01508
4.1 0.01348
4.15 0.01277
4.2 0.01479
4.25 0.01323
4.3 0.00731
4.35 0.0039
4.4 0.00183
4.45 0.00116
4.5 -0.00087
4.55 -0.00299
4.6 -0.01577
4.65 -0.02905
4.7 -0.04571
4.75 -0.06443
4.8 -0.08421
4.85 -0.10829
4.9 -0.13712
4.95 -0.17536
5 -0.22028
5.05 -0.27071
5.1 -0.32055
5.15 -0.37358
5.2 -0.43116
5.25 -0.48956
5.3 -0.55574
5.35 -0.62342
5.4 -0.69469
5.45 -0.76506
5.5 -0.83794
5.55 -0.91133
5.6 -0.99139
5.65 -1.07311
5.7 -1.15493
5.75 -1.22682
5.8 -1.29809
5.85 -1.3631
5.9 -1.41602
5.95 -1.46819
6 -1.51749
6.05 -1.55895
6.1 -1.59279
6.15 -1.61398
6.2 -1.6286
6.25 -1.63971
6.3 -1.64276
6.35 -1.63646
6.4 -1.6261
6.45 -1.61268
6.5 -1.59517
6.55 -1.57384
6.6 -1.54558
6.65 -1.51075
6.7 -1.46677
6.75 -1.41154
6.8 -1.35071
6.85 -1.27728
6.9 -1.19439
6.95 -1.10725
7 -1.01491
7.05 -0.9088
7.1 -0.79735
7.15 -0.68009
7.2 -0.55421
7.25 -0.42025
7.3 -0.28242
7.35 -0.1439
7.4 -0.00872
7.45 0.12578
7.5 0.25975
7.55 0.395
7.6 0.52342
7.65 0.64548
7.7 0.75749
7.75 0.86223
7.8 0.9607
7.85 1.05609
7.9 1.13996
7.95 1.22181
8 1.29366
8.05 1.35312
8.1 1.40178
8.15 1.44085
8.2 1.48046
8.25 1.51279
8.3 1.54341
8.35 1.56362
8.4 1.57358
8.45 1.57956
8.5 1.57761
8.55 1.57069
8.6 1.55923
8.65 1.5467
8.7 1.5317
8.75 1.51974
8.8 1.50559
8.85 1.49028
8.9 1.46781
8.95 1.4479
9 1.43002
9.05 1.41153
9.1 1.38623
9.15 1.35801
9.2 1.32932
9.25 1.30226
9.3 1.27389
9.35 1.24141
9.4 1.21092
9.45 1.17699
9.5 1.14079
9.55 1.10506
9.6 1.06943
9.65 1.03222
9.7 1.00044
9.75 0.97439
9.8 0.95032
9.85 0.92439
9.9 0.89882
9.95 0.86899
10 0.84302
10.05 0.81572
10.1 0.78828
10.15 0.76253
10.2 0.73866
10.25 0.71437
10.3 0.69336
10.35 0.66981
10.4 0.64074
10.45 0.61109
10.5 0.58544
10.55 0.55931
10.6 0.53188
10.65 0.5088
10.7 0.48531
10.75 0.45798
10.8 0.43032
10.85 0.40611
10.9 0.38423
10.95 0.36306
11 0.34159
11.05 0.32217
11.1 0.29993
11.15 0.27976
11.2 0.25738
11.25 0.23548
11.3 0.2104
11.35 0.18471
11.4 0.15972
11.45 0.1367
11.5 0.10965
11.55 0.08581
11.6 0.06375
11.65 0.04009
11.7 0.01747
11.75 0.00107
11.8 -0.01492
11.85 -0.02915
11.9 -0.0428
11.95 -0.05787
12 -0.0685
12.05 -0.07775
12.1 -0.08979
12.15 -0.09912
12.2 -0.10768
12.25 -0.11398
12.3 -0.11849
12.35 -0.12434
12.4 -0.13174
12.45 -0.14642
12.5 -0.15874
12.55 -0.17002
12.6 -0.17977
12.65 -0.18707
12.7 -0.19452
12.75 -0.20046
12.8 -0.20787
12.85 -0.21696
12.9 -0.22418
12.95 -0.22577
13 -0.22612
13.05 -0.22603
13.1 -0.22442
13.15 -0.2292
13.2 -0.23376
13.25 -0.23334
13.3 -0.22919
13.35 -0.22657
13.4 -0.22726
13.45 -0.22824
13.5 -0.23339
13.55 -0.24114
13.6 -0.24693
13.65 -0.24922
13.7 -0.24687
13.75 -0.23957
13.8 -0.23732
13.85 -0.23658
13.9 -0.23396
13.95 -0.22948
14 -0.22583
14.05 -0.22406
14.1 -0.21813
14.15 -0.21752
14.2 -0.21556
14.25 -0.21641
14.3 -0.21567
14.35 -0.2152
14.4 -0.21493
14.45 -0.20969
14.5 -0.20669
14.55 -0.20201
14.6 -0.20006
14.65 -0.19389
14.7 -0.19154
14.75 -0.18676
14.8 -0.18471
14.85 -0.18671
14.9 -0.18873
14.95 -0.18814
15 -0.18782
15.05 -0.18553
15.1 -0.17853
15.15 -0.17459
15.2 -0.16958
15.25 -0.16779
15.3 -0.16686
15.35 -0.16329
15.4 -0.15538
15.45 -0.15223
15.5 -0.1495
15.55 -0.1484
15.6 -0.14861
15.65 -0.1481
15.7 -0.14741
15.75 -0.1475
15.8 -0.14539
15.85 -0.14014
15.9 -0.13884
15.95 -0.13902
16 -0.13713
16.05 -0.13673
16.1 -0.13286
16.15 -0.12998
16.2 -0.12351
16.25 -0.11671
16.3 -0.11205
16.35 -0.10448
16.4 -0.10275
16.45 -0.09776
16.5 -0.09869
16.55 -0.10187
16.6 -0.10704
16.65 -0.10775
16.7 -0.10841
16.75 -0.10572
16.8 -0.10101
16.85 -0.09779
16.9 -0.09188
16.95 -0.0879
17 -0.08657
17.05 -0.08662
17.1 -0.08928
17.15 -0.0863
17.2 -0.08835
17.25 -0.09031
17.3 -0.08796
17.35 -0.08144
17.4 -0.0761
17.45 -0.07189
17.5 -0.07066
17.55 -0.06751
17.6 -0.06491
17.65 -0.06276
17.7 -0.06085
17.75 -0.05745
17.8 -0.05689
17.85 -0.05684
17.9 -0.06046
17.95 -0.0654
18 -0.06661
18.05 -0.0683
18.1 -0.06539
18.15 -0.06158
18.2 -0.06322
18.25 -0.06434
18.3 -0.06262
18.35 -0.06317
18.4 -0.0667
18.45 -0.06824
18.5 -0.07161
18.55 -0.06834
18.6 -0.06915
18.65 -0.06997
18.7 -0.07004
18.75 -0.06925
18.8 -0.06563
18.85 -0.05912
18.9 -0.05433
18.95 -0.05113
19 -0.04775
19.05 -0.04694
19.1 -0.04844
19.15 -0.04959
19.2 -0.04769
19.25 -0.04395
19.3 -0.04022
19.35 -0.04093
19.4 -0.03871
19.45 -0.03407
19.5 -0.02771
19.55 -0.02647
19.6 -0.02812
19.65 -0.02693
19.7 -0.02842
19.75 -0.03012
19.8 -0.03605
19.85 -0.03792
19.9 -0.03465
19.95 -0.03194
20 -0.03229
20.05 -0.0284
20.1 -0.02806
20.15 -0.02846
20.2 -0.02511
20.25 -0.02785
20.3 -0.03066
20.35 -0.03069
20.4 -0.03479
20.45 -0.03623
20.5 -0.04023
20.55 -0.03777
20.6 -0.03529
20.65 -0.02856
20.7 -0.02836
20.75 -0.02586
20.8 -0.02083
20.85 -0.0203
20.9 -0.02072
20.95 -0.02363
21 -0.02397
21.05 -0.02634
21.1 -0.03077
21.15 -0.03383
21.2 -0.03877
21.25 -0.04287
21.3 -0.04143
21.35 -0.03548
21.4 -0.02999
21.45 -0.0277
21.5 -0.02245
21.55 -0.02038
21.6 -0.01718
21.65 -0.01277
21.7 -0.01404
21.75 -0.01578
21.8 -0.02093
21.85 -0.02134
21.9 -0.02096
21.95 -0.02404
22 -0.02546
22.05 -0.02527
22.1 -0.02653
22.15 -0.02543
22.2 -0.02237
22.25 -0.02389
22.3 -0.02378
22.35 -0.02279
22.4 -0.02196
22.45 -0.02073
22.5 -0.02177
22.55 -0.02144
22.6 -0.01812
22.65 -0.0191
22.7 -0.01994
22.75 -0.01625
22.8 -0.01613
22.85 -0.01284
22.9 -0.0064
22.95 -0.00316
23 -0.00022
23.05 -0.00338
23.1 -0.00323
23.15 -0.00272
23.2 -0.00016
23.25 0.00024
23.3 -0.00018
23.35 -0.00038
23.4 -0.00212
23.45 -0.00473
23.5 -0.01112
23.55 -0.01763
23.6 -0.01785
23.65 -0.01744
23.7 -0.01793
23.75 -0.01805
23.8 -0.01838
23.85 -0.02064
23.9 -0.02061
23.95 -0.02001
24 -0.01402
24.05 -0.01377
24.1 -0.01273
24.15 -0.01074
24.2 -0.0101
24.25 -0.01006
24.3 -0.0075
24.35 -0.00858
24.4 -0.00926
24.45 -0.01129
24.5 -0.01543
24.55 -0.01501
24.6 -0.01645
24.65 -0.01358
24.7 -0.01474
24.75 -0.01285
24.8 -0.00892
24.85 -0.0051
24.9 -0.00168
24.95 -0.00136
25 0.00236
25.05 0.00435
25.1 0.0087
25.15 0.01213
25.2 0.01288
25.25 0.01248
25.3 0.01335
25.35 0.00771
25.4 0.00756
25.45 0.0081
25.5 0.01138
25.55 0.01552
25.6 0.01386
25.65 0.00783
25.7 0.00717
25.75 0.00963
25.8 0.01425
25.85 0.0158
25.9 0.01118
25.95 0.00933
26 0.00561
26.05 0.00056
26.1 -0.00195
26.15 -0.00464
26.2 -0.00677
26.25 -0.00724
26.3 -0.00817
26.35 -0.00712
26.4 -0.00468
26.45 -0.00278
26.5 -0.00022
26.55 0.00481
26.6 0.00769
26.65 0.00756
26.7 0.00569
26.75 0.00361
26.8 -0.00073
26.85 -0.00139
26.9 -0.00291
26.95 -0.00299
27 -0.00119
27.05 -0.00014
27.1 0.00051
27.15 0.00286
27.2 0.00318
27.25 0.00542
27.3 0.00938
27.35 0.0129
27.4 0.01038
27.45 0.01046
27.5 0.01111
27.55 0.01065
27.6 0.01129
27.65 0.00718
27.7 0.00547
27.75 -0.00013
27.8 -0.00433
27.85 -0.00986
27.9 -0.01625
27.95 -0.02703
28 -0.03954
28.05 -0.04905
28.1 -0.05455
28.15 -0.06337
28.2 -0.07004
28.25 -0.07559
28.3 -0.08294
28.35 -0.09085
28.4 -0.09927
28.45 -0.10781
28.5 -0.12166
28.55 -0.13642
28.6 -0.15584
28.65 -0.17659
28.7 -0.19944
28.75 -0.23
28.8 -0.25805
28.85 -0.28901
28.9 -0.32411
28.95 -0.36368
29 -0.4007
29.05 -0.43766
29.1 -0.47605
29.15 -0.51817
29.2 -0.56884
29.25 -0.61661
29.3 -0.66447
29.35 -0.71717
29.4 -0.77058
29.45 -0.8248
29.5 -0.87043
29.55 -0.91168
29.6 -0.9485
29.65 -0.98149
29.7 -1.00813
29.75 -1.02747
29.8 -1.04506
29.85 -1.06048
29.9 -1.07257
29.95 -1.08062
30 -1.08328
30.05 -1.08203
30.1 -1.06832
30.15 -1.04573
30.2 -1.01132
30.25 -0.97193
30.3 -0.92662
30.35 -0.87712
30.4 -0.81834
30.45 -0.75646
30.5 -0.68797
30.55 -0.61974
30.6 -0.55199
30.65 -0.481
30.7 -0.40959
30.75 -0.3334
30.8 -0.2571
30.85 -0.17885
30.9 -0.09839
30.95 -0.01809
31 0.06032
31.05 0.12665
31.1 0.18998
31.15 0.25067
31.2 0.30803
31.25 0.36078
31.3 0.40708
31.35 0.45419
31.4 0.50055
31.45 0.54411
31.5 0.57596
31.55 0.60566
31.6 0.63373
31.65 0.66169
31.7 0.6887
31.75 0.71402
31.8 0.72958
31.85 0.73993
31.9 0.74738
31.95 0.7549
32 0.76264
32.05 0.77608
32.1 0.79165
32.15 0.80526
32.2 0.8141
32.25 0.82291
32.3 0.82808
32.35 0.83715
32.4 0.84565
32.45 0.85336
32.5 0.86023
32.55 0.86763
32.6 0.8721
32.65 0.87858
32.7 0.88062
32.75 0.87977
32.8 0.88088
32.85 0.8766
32.9 0.87152
32.95 0.85943
33 0.84503
33.05 0.83454
33.1 0.81805
33.15 0.80022
33.2 0.78097
33.25 0.76173
33.3 0.74792
33.35 0.73106
33.4 0.71566
33.45 0.69596
33.5 0.67668
33.55 0.66191
33.6 0.64368
33.65 0.61928
33.7 0.59138
33.75 0.56662
33.8 0.54469
33.85 0.52001
33.9 0.49778
33.95 0.48114
34 0.46432
34.05 0.44845
34.1 0.43493
34.15 0.42054
34.2 0.39806
34.25 0.37266
34.3 0.34695
34.35 0.32599
34.4 0.30641
34.45 0.28448
34.5 0.2598
34.55 0.24043
34.6 0.22648
34.65 0.2128
34.7 0.19649
34.75 0.17831
34.8 0.1611
34.85 0.14819
34.9 0.13345
34.95 0.12001
35 0.10468
35.05 0.08728
35.1 0.07517
35.15 0.05948
35.2 0.04211
35.25 0.02925
35.3 0.02194
35.35 0.01561
35.4 0.01256
35.45 0.00735
35.5 0.00402
35.55 -0.00433
35.6 -0.01352
35.65 -0.02285
35.7 -0.03687
35.75 -0.05291
35.8 -0.06457
35.85 -0.07082
35.9 -0.07421
35.95 -0.07614
36 -0.08433
36.05 -0.08869
36.1 -0.0921
36.15 -0.09905
36.2 -0.10784
36.25 -0.11024
36.3 -0.11001
36.35 -0.1129
36.4 -0.11806
36.45 -0.12716
36.5 -0.12995
36.55 -0.13531
36.6 -0.14039
36.65 -0.14476
36.7 -0.15185
36.75 -0.15706
36.8 -0.15609
36.85 -0.15246
36.9 -0.14531
36.95 -0.14121
37 -0.13622
37.05 -0.13178
37.1 -0.13003
37.15 -0.12676
37.2 -0.12733
37.25 -0.13109
37.3 -0.13526
37.35 -0.1388
37.4 -0.14522
37.45 -0.15007
37.5 -0.14903
37.55 -0.14967
37.6 -0.1472
37.65 -0.14181
37.7 -0.13358
37.75 -0.13172
37.8 -0.12879
37.85 -0.13222
37.9 -0.13264
37.95 -0.13277
38 -0.13445
38.05 -0.13388
38.1 -0.13775
38.15 -0.14011
38.2 -0.13949
38.25 -0.13619
38.3 -0.12825
38.35 -0.12091
38.4 -0.11379
38.45 -0.10589
38.5 -0.10646
38.55 -0.10997
38.6 -0.11254
38.65 -0.11683
38.7 -0.11653
38.75 -0.11669
38.8 -0.11231
38.85 -0.10993
38.9 -0.1101
38.95 -0.11363
39 -0.11138
39.05 -0.10876
39.1 -0.1036
39.15 -0.10121
39.2 -0.09767
39.25 -0.09328
39.3 -0.08908
39.35 -0.08612
39.4 -0.08607
39.45 -0.08732
39.5 -0.08869
39.55 -0.08783
39.6 -0.0914
39.65 -0.09438
39.7 -0.09206
39.75 -0.09348
39.8 -0.09215
39.85 -0.09486
39.9 -0.09872
39.95 -0.09743
40 -0.09359
40.05 -0.09091
40.1 -0.08868
40.15 -0.08708
40.2 -0.08727
40.25 -0.08441
40.3 -0.0818
40.35 -0.07434
40.4 -0.06481
40.45 -0.05894
40.5 -0.05756
40.55 -0.0527
40.6 -0.05203
40.65 -0.05425
40.7 -0.05723
40.75 -0.05959
40.8 -0.06342
40.85 -0.06581
40.9 -0.06332
40.95 -0.06292
41 -0.05947
41.05 -0.05893
41.1 -0.05979
41.15 -0.0605
41.2 -0.05834
41.25 -0.05995
41.3 -0.06209
41.35 -0.06332
41.4 -0.06056
41.45 -0.06168
41.5 -0.06556
41.55 -0.06736
41.6 -0.06414
41.65 -0.05742
41.7 -0.05401
41.75 -0.04788
41.8 -0.0392
41.85 -0.02913
41.9 -0.02346
41.95 -0.02256
42 -0.02291
42.05 -0.02047
42.1 -0.02316
42.15 -0.02718
42.2 -0.03333
42.25 -0.03983
42.3 -0.04491
42.35 -0.04375
42.4 -0.04199
42.45 -0.0437
42.5 -0.03938
42.55 -0.03845
42.6 -0.03538
42.65 -0.03075
42.7 -0.02774
42.75 -0.02399
42.8 -0.02273
42.85 -0.01847
42.9 -0.01411
42.95 -0.01561
43 -0.01873
43.05 -0.02117
43.1 -0.01857
43.15 -0.01768
43.2 -0.01693
43.25 -0.01978
43.3 -0.01928
43.35 -0.01966
43.4 -0.02254
43.45 -0.0226
43.5 -0.02721
43.55 -0.03278
43.6 -0.04025
43.65 -0.04383
43.7 -0.047
43.75 -0.04322
43.8 -0.03726
43.85 -0.03319
43.9 -0.03093
43.95 -0.02794
44 -0.02384
44.05 -0.02361
44.1 -0.02246
44.15 -0.02512
44.2 -0.02621
44.25 -0.02331
44.3 -0.01928
44.35 -0.01306
44.4 -0.01213
44.45 -0.01409
44.5 -0.01567
44.55 -0.02079
44.6 -0.02719
44.65 -0.02722
44.7 -0.02244
44.75 -0.01977
44.8 -0.01371
44.85 -0.01418
44.9 -0.01325
44.95 -0.01728
45 -0.01721
45.05 -0.0181
45.1 -0.02054
45.15 -0.01921
45.2 -0.02092
45.25 -0.02369
45.3 -0.02093
45.35 -0.01455
45.4 -0.00595
45.45 -0.00051
45.5 0.00164
45.55 0.00433
45.6 0.00495
45.65 0.00254
45.7 -0.00181
45.75 -0.00219
45.8 0.00089
45.85 0.0015
45.9 0.00313
45.95 0.00494
46 0.00648
46.05 0.00714
46.1 0.00879
46.15 0.00765
46.2 0.0071
46.25 0.0008
46.3 -0.00689
46.35 -0.01675
46.4 -0.01854
46.45 -0.0201
46.5 -0.01923
46.55 -0.01732
46.6 -0.019
46.65 -0.02133
46.7 -0.02669
46.75 -0.02834
46.8 -0.03216
46.85 -0.03003
46.9 -0.03138
46.95 -0.03126
47 -0.0253
47.05 -0.01606
47.1 -0.00581
47.15 0.0001
47.2 0.00443
47.25 0.00464
47.3 0.0041
47.35 -0.00064
47.4 -0.00646
47.45 -0.01341
47.5 -0.01371
47.55 -0.01724
47.6 -0.01923
47.65 -0.02195
47.7 -0.01829
47.75 -0.0112
47.8 -0.00701
47.85 -0.00708
47.9 -0.00779
47.95 -0.01085
48 -0.00796
48.05 -0.00331
48.1 0.00296
48.15 0.00253
48.2 -0.00053
48.25 -0.00133
48.3 -0.00379
48.35 -0.00401
48.4 -0.00281
48.45 -0.00203
48.5 -0.00426
48.55 -0.00163
48.6 -0.00282
48.65 0.00033
48.7 0.00634
48.75 0.0087
48.8 0.00704
48.85 0.00373
48.9 0.00242
48.95 -0.00067
49 -0.00224
49.05 -0.00467
49.1 -0.00357
49.15 -0.00214
49.2 -0.00187
49.25 -0.00501
49.3 -0.00333
49.35 0.00017
49.4 0.0055
49.45 0.0095
49.5 0.01066
49.55 0.00745
49.6 0.00146
49.65 0.00127
49.7 0.0048
49.75 0.0091
49.8 0.01461
49.85 0.01874
49.9 0.01925
49.95 0.02178
50 0.01791
50.05 0.01368
50.1 0.00721
50.15 0.00591
50.2 0.00477
50.25 0.00118
50.3 -0.00304
50.35 -0.00659
50.4 -0.01292
50.45 -0.0161
50.5 -0.01969
50.55 -0.02184
50.6 -0.02283
50.65 -0.02152
50.7 -0.02153
50.75 -0.01988
50.8 -0.01331
50.85 -0.00653
50.9 -0.00041
50.95 -0.00011
51 0.002
51.05 0.00609
51.1 0.01122
51.15 0.01381
51.2 0.01619
51.25 0.01118
51.3 0.00569
51.35 0.00403
51.4 -0.00221
51.45 -0.00672
51.5 -0.01359
51.55 -0.01478
51.6 -0.01668
51.65 -0.01815
51.7 -0.02273
51.75 -0.02753
51.8 -0.03132
51.85 -0.03212
51.9 -0.02973
51.95 -0.02607
52 -0.02214
52.05 -0.01745
52.1 -0.01744
52.15 -0.01783
52.2 -0.01698
52.25 -0.01728
52.3 -0.02076
52.35 -0.02441
52.4 -0.02715
52.45 -0.0243
52.5 -0.01824
52.55 -0.00836
52.6 0.00323
52.65 0.00786
52.7 0.01
52.75 0.00592
52.8 0.00696
52.85 0.00987
52.9 0.01104
52.95 0.00644
53 -0.00006
53.05 -0.00759
53.1 -0.01358
53.15 -0.01489
53.2 -0.0117
53.25 -0.0106
53.3 -0.01072
53.35 -0.01021
53.4 -0.00764
53.45 -0.00164
53.5 0.0022
53.55 0.0056
53.6 0.00966
53.65 0.01402
53.7 0.01432
53.75 0.01445
53.8 0.0165
53.85 0.01719
53.9 0.01645
53.95 0.01145
54 0.00267
54.05 -0.001
54.1 -0.00272
54.15 -0.00558
54.2 -0.00994
54.25 -0.01184
54.3 -0.016
54.35 -0.0143
54.4 -0.00913
54.45 -0.00539
54.5 -0.00479
54.55 -0.00339
54.6 -0.00496
54.65 -0.00577
54.7 -0.00251
54.75 0.00011
54.8 0.00075
54.85 0.00281
54.9 0.00463
54.95 0.00891
55 0.01266
55.05 0.01238
55.1 0.0122
55.15 0.01336
55.2 0.01008
55.25 0.00578
55.3 0.00402
55.35 -0.00049
55.4 -0.00647
55.45 -0.00797
55.5 -0.00786
55.55 -0.00864
55.6 -0.00537
55.65 -0.00155
55.7 0.0031
55.75 0.00169
55.8 -0.00187
55.85 -0.00833
55.9 -0.0082
55.95 -0.00876
56 -0.0132
56.05 -0.01612
56.1 -0.01557
56.15 -0.01002
56.2 -0.00781
56.25 -0.00205
56.3 0.00274
56.35 0.00186
56.4 0.005
56.45 0.00832
56.5 0.00597
56.55 0.0061
56.6 0.00821
56.65 0.00942
56.7 0.00537
56.75 0.00603
56.8 0.00624
56.85 0.00939
56.9 0.01052
56.95 0.009
57 0.00606
57.05 0.00694
57.1 0.00645
57.15 0.0066
57.2 0.00901
57.25 0.00792
57.3 0.00177
57.35 0.00189
57.4 -0.00129
57.45 -0.00213
57.5 -0.0045
57.55 -0.00213
57.6 0.00119
57.65 -0.00007
57.7 0.00338
57.75 0.00788
57.8 0.01428
57.85 0.01224
57.9 0.01354
57.95 0.01157
58 0.00953
58.05 0.00433
58.1 0.00507
58.15 0.0024
58.2 -0.00105
58.25 -0.00031
58.3 -0.0031
58.35 -0.00471
58.4 -0.00534
58.45 -0.00138
58.5 0.00193
58.55 0.00112
58.6 -0.0009
58.65 -0.00239
58.7 -0.00681
58.75 -0.01176
58.8 -0.01236
58.85 -0.0073
58.9 -0.00048
58.95 0.0029
59 0.00367
59.05 0.00263
59.1 -0.00143
59.15 -0.00404
59.2 -0.00102
59.25 -0.00209
59.3 0.00143
59.35 -0.00085
59.4 0.00039
59.45 0.00019
59.5 0.00377
59.55 0.00454
59.6 0.005
59.65 -0.00003
59.7 -0.00651
59.75 -0.0124
59.8 -0.01234
59.85 -0.01197
59.9 -0.01479
59.95 -0.01801
60 -0.0144
60.05 -0.01346
60.1 -0.01436
60.15 -0.01648
60.2 -0.0194
60.25 -0.01828
60.3 -0.01182
60.35 -0.00893
60.4 -0.00212
60.45 -0.00148
60.5 -0.00575
60.55 -0.01091
60.6 -0.00904
60.65 -0.01138
60.7 -0.01615
60.75 -0.0173
60.8 -0.01764
60.85 -0.02028
60.9 -0.02109
60.95 -0.01598
61 -0.00734
61.05 0.00122
61.1 0.00466
61.15 0.00832
61.2 0.00623
61.25 0.00192
61.3 0.00166
61.35 -0.00029
61.4 -0.00314
61.45 -0.00331
61.5 0.0001
61.55 0.00438
61.6 0.00932
61.65 0.01475
61.7 0.02048
61.75 0.02591
61.8 0.0254
61.85 0.02349
61.9 0.01595
61.95 0.00818
62 0.00147
62.05 -0.00446
62.1 -0.00764
62.15 -0.00597
62.2 -0.00721
62.25 -0.0092
62.3 -0.00782
62.35 -0.01054
62.4 -0.01017
62.45 -0.00824
62.5 -0.00534
62.55 -0.00554
62.6 -0.00991
62.65 -0.00851
62.7 -0.01122
62.75 -0.0146
62.8 -0.01766
62.85 -0.01366
62.9 -0.00946
62.95 -0.00384
63 -0.00285
63.05 -0.0014
63.1 -0.00066
63.15 0.00288
63.2 0.0049
63.25 0.00549
63.3 0.00999
63.35 0.01618
63.4 0.01583
63.45 0.01524
63.5 0.01707
63.55 0.01687
63.6 0.01822
63.65 0.02207
63.7 0.02674
63.75 0.02857
63.8 0.03024
63.85 0.03001
63.9 0.02318
63.95 0.01735
64 0.01406
64.05 0.01311
64.1 0.0139
64.15 0.01286
64.2 0.01103
64.25 0.00752
64.3 0.00668
64.35 0.0029
64.4 0.00033
64.45 -0.00405
64.5 -0.00355
64.55 -0.00571
64.6 -0.00809
64.65 -0.00759
64.7 -0.00635
64.75 -0.01005
64.8 -0.00784
64.85 -0.00573
64.9 -0.00681
64.95 -0.00531
65 -0.00765
65.05 -0.00965
65.1 -0.00614
65.15 -0.00231
65.2 0.00472
65.25 0.00732
65.3 0.00933
65.35 0.01191
65.4 0.01464
65.45 0.01195
65.5 0.0076
65.55 0.00087
65.6 -0.00644
65.65 -0.01277
65.7 -0.01219
65.75 -0.01142
65.8 -0.01352
65.85 -0.01321
65.9 -0.00823
65.95 -0.00855
66 -0.00965
66.05 -0.0122
66.1 -0.01233
66.15 -0.00871
66.2 -0.00822
66.25 -0.00851
66.3 -0.00355
66.35 -0.00424
66.4 -0.0089
66.45 -0.007
66.5 -0.00223
66.55 0.00134
66.6 0.00222
66.65 0.00054
66.7 0.00348
66.75 0.00759
66.8 0.01385
66.85 0.01941
66.9 0.02195
66.95 0.02242
67 0.02287
67.05 0.01625
67.1 0.00823
67.15 0.00518
67.2 0.0053
67.25 0.00071
67.3 -0.00198
67.35 -0.00321
67.4 -0.0041
67.45 -0.00703
67.5 -0.00722
67.55 -0.01003
67.6 -0.00712
67.65 -0.00391
67.7 -0.00174
67.75 -0.001
67.8 -0.00004
67.85 0.00269
67.9 0.00628
67.95 0.00294
68 -0.00318
68.05 -0.00852
68.1 -0.01479
68.15 -0.01514
68.2 -0.01552
68.25 -0.01096
68.3 -0.00373
68.35 0.00471
68.4 0.00911
68.45 0.01114
68.5 0.00943
68.55 0.00676
68.6 0.00803
68.65 0.00757
68.7 0.00824
68.75 0.01021
68.8 0.00561
68.85 -0.00114
68.9 -0.00712
68.95 -0.01319
69 -0.02099
69.05 -0.02879
69.1 -0.03113
69.15 -0.03007
69.2 -0.02764
69.25 -0.02633
69.3 -0.01954
69.35 -0.01239
69.4 -0.00426
69.45 0.00283
69.5 0.00522
69.55 0.00206
69.6 -0.00211
69.65 -0.00307
69.7 -0.0027
69.75 -0.00099
69.8 -0.00098
69.85 -0.00552
69.9 -0.00577
69.95 -0.00212
70 0.00171
70.05 -0.0005
70.1 0.00262
70.15 0.00251
70.2 0.00334
70.25 -0.00077
70.3 -0.00311
70.35 -0.00464
70.4 -0.00662
70.45 -0.0044
70.5 -0.00502
70.55 -0.0039
70.6 -0.00586
70.65 -0.002
70.7 0.00402
70.75 0.00418
70.8 0.00184
70.85 -0.00301
70.9 -0.00813
70.95 -0.00838
71 -0.00791
71.05 -0.01007
71.1 -0.0153
71.15 -0.01867
71.2 -0.02367
71.25 -0.02174
71.3 -0.01683
71.35 -0.0104
71.4 -0.00719
71.45 -0.00111
71.5 -0.00049
71.55 0.00153
71.6 -0.00101
71.65 -0.00092
71.7 0.0033
71.75 0.00208
71.8 0.00324
71.85 0.00124
71.9 0.00213
71.95 0.00324
72 0.00462
72.05 0.00841
72.1 0.01008
72.15 0.01113
72.2 0.00724
72.25 0.00203
72.3 0.00251
72.35 -0.00078
72.4 -0.00012
72.45 0.00222
72.5 0.00249
72.55 0.00541
72.6 0.00488
72.65 0.00878
72.7 0.01305
72.75 0.01357
72.8 0.00979
72.85 0.00869
72.9 0.0077
72.95 0.005
73 0.00517
73.05 0.00299
73.1 0.00102
73.15 0.00328
73.2 0.00008
73.25 -0.00357
73.3 -0.00783
73.35 -0.01472
73.4 -0.01542
73.45 -0.01256
73.5 -0.00792
73.55 -0.0077
73.6 -0.00958
73.65 -0.01192
73.7 -0.01309
73.75 -0.00969
73.8 -0.01123
73.85 -0.01393
73.9 -0.01248
73.95 -0.00995
74 -0.00307
74.05 0.00556
74.1 0.01285
74.15 0.01673
74.2 0.01991
74.25 0.01946
74.3 0.01379
74.35 0.0137
74.4 0.00921
74.45 0.00577
74.5 0.00214
74.55 0.00182
74.6 0.00003
74.65 0.00097
74.7 -0.00215
74.75 -0.00429
74.8 -0.00177
74.85 0.0018
74.9 0.00787
74.95 0.00665
75 0.00822
75.05 0.01239
75.1 0.01708
75.15 0.01694
75.2 0.01379
75.25 0.00849
75.3 0.00784
75.35 0.00505
75.4 0.00121
75.45 -0.00057
75.5 0.00161
75.55 0.00632
75.6 0.01052
75.65 0.01021
75.7 0.01299
75.75 0.01382
75.8 0.01312
75.85 0.01017
75.9 0.00525
75.95 0.00148
76 -0.00375
76.05 -0.01114
76.1 -0.01518
76.15 -0.01516
76.2 -0.01525
76.25 -0.01245
76.3 -0.01463
76.35 -0.01386
76.4 -0.00949
76.45 -0.00783
76.5 -0.00431
76.55 -0.00595
76.6 -0.00917
76.65 -0.0095
76.7 -0.00961
76.75 -0.0133
76.8 -0.01308
76.85 -0.01556
76.9 -0.01521
76.95 -0.01704
77 -0.01328
77.05 -0.01311
77.1 -0.00917
77.15 -0.00464
77.2 -0.00514
77.25 -0.0032
77.3 -0.0007
77.35 0.00482
77.4 0.00515
77.45 0.00762
77.5 0.01224
77.55 0.01116
77.6 0.00842
77.65 0.0076
77.7 0.00395
77.75 -0.00283
77.8 -0.00673
77.85 -0.01099
77.9 -0.01449
77.95 -0.01964
78 -0.01723
78.05 -0.01596
78.1 -0.01076
78.15 -0.00352
78.2 0.00467
78.25 0.01387
78.3 0.02069
78.35 0.01878
78.4 0.01892
78.45 0.01845
78.5 0.02062
78.55 0.01751
78.6 0.01127
78.65 0.00462
78.7 -0.00449
78.75 -0.01342
78.8 -0.02248
78.85 -0.02712
78.9 -0.02835
78.95 -0.02327
79 -0.01548
79.05 -0.01332
79.1 -0.01197
79.15 -0.00676
79.2 -0.00733
79.25 -0.01076
79.3 -0.01143
79.35 -0.01099
79.4 -0.00519
79.45 -0.00299
79.5 0.00023
79.55 0.00271
79.6 0.00302
79.65 -0.0004
79.7 -0.00236
79.75 -0.00525
79.8 -0.00822
79.85 -0.00774
79.9 -0.00945
79.95 -0.01299
80 -0.01063
80.05 -0.00553
80.1 -0.00618
80.15 -0.0048
80.2 -0.00337
80.25 -0.00371
80.3 0.00125
80.35 0.00625
80.4 0.00474
80.45 0.00641
80.5 0.00716
80.55 0.0107
80.6 0.01444
80.65 0.01169
80.7 0.00614
80.75 0.00496
80.8 0.00219
80.85 0.00323
80.9 0.00358
80.95 0.00729
81 0.01174
81.05 0.01012
81.1 0.00523
81.15 0.00151
81.2 0.00277
81.25 0.00412
81.3 0.00003
81.35 -0.0033
81.4 -0.00199
81.45 -0.00148
81.5 -0.0031
81.55 0.00012
81.6 -0.00142
81.65 -0.00122
81.7 0.00243
81.75 -0.00013
81.8 -0.00349
81.85 -0.00675
81.9 -0.00576
81.95 -0.00108
82 0.00151
82.05 0.00523
82.1 0.00964
82.15 0.01433
82.2 0.01493
82.25 0.01021
82.3 0.01012
82.35 0.01344
82.4 0.01459
82.45 0.01301
82.5 0.00713
82.55 0.00562
82.6 0.00297
82.65 0.00094
82.7 -0.00331
82.75 -0.01044
82.8 -0.01455
82.85 -0.01932
82.9 -0.01838
82.95 -0.01241
83 -0.00381
83.05 0.00442
83.1 0.0051
83.15 0.00331
83.2 -0.00069
83.25 -0.00526
83.3 -0.00447
83.35 -0.00535
83.4 -0.00146
83.45 -0.00217
83.5 -0.00416
83.55 -0.00816
83.6 -0.00827
83.65 -0.00596
83.7 -0.00002
83.75 0.00319
83.8 0.00276
83.85 -0.00032
83.9 -0.00041
83.95 -0.00207
84 -0.00111
84.05 -0.00134
84.1 -0.00021
84.15 0.00114
84.2 0.00166
84.25 0.00304
84.3 0.00837
84.35 0.00818
84.4 0.00604
84.45 0.0049
84.5 0.00611
84.55 0.00536
84.6 0.00532
84.65 0.0072
84.7 0.0077
84.75 0.00989
84.8 0.0093
84.85 0.0076
84.9 0.00637
84.95 0.00679
85 0.00833
85.05 0.01141
85.1 0.01645
85.15 0.02117
85.2 0.02619
85.25 0.03011
85.3 0.0297
85.35 0.0255
85.4 0.01602
85.45 0.01262
85.5 0.00513
85.55 0.00084
85.6 -0.00168
85.65 -0.00567
85.7 -0.00596
85.75 -0.00215
85.8 -0.0042
85.85 -0.00409
85.9 -0.00175
85.95 -0.00079
86 -0.00165
86.05 -0.00128
86.1 -0.00298
86.15 -0.00109
86.2 0.0033
86.25 0.00496
86.3 0.00678
86.35 0.00703
86.4 0.0103
86.45 0.01484
86.5 0.01842
86.55 0.02041
86.6 0.02297
86.65 0.02402
86.7 0.02527
86.75 0.02718
86.8 0.02952
86.85 0.02834
86.9 0.02064
86.95 0.01657
87 0.01078
87.05 0.00994
87.1 0.01153
87.15 0.00799
87.2 0.00695
87.25 0.00571
87.3 0.00138
87.35 0.00054
87.4 0.00151
87.45 -0.00093
87.5 0.00033
87.55 -0.00093
87.6 -0.00468
87.65 -0.011
87.7 -0.01946
87.75 -0.02819
87.8 -0.03494
87.85 -0.03947
87.9 -0.04067
87.95 -0.04322
88 -0.04535
88.05 -0.04469
88.1 -0.04048
88.15 -0.03323
88.2 -0.02752
88.25 -0.01907
88.3 -0.01701
88.35 -0.01303
88.4 -0.01315
88.45 -0.00775
88.5 0.00066
88.55 0.00123
88.6 -0.00055
88.65 -0.00399
88.7 -0.00682
88.75 -0.01148
88.8 -0.01618
88.85 -0.01759
88.9 -0.02143
88.95 -0.02248
89 -0.02221
89.05 -0.0188
89.1 -0.01448
89.15 -0.01024
89.2 -0.00666
89.25 -0.00555
89.3 -0.00171
89.35 0.00324
89.4 0.00622
89.45 0.00804
89.5 0.00478
89.55 0.00602
89.6 0.00328
89.65 0.00319
89.7 -0.00178
89.75 -0.00409
89.8 -0.00873
89.85 -0.01358
89.9 -0.01522
89.95 -0.01821
90 -0.02278
90.05 -0.0277
90.1 -0.02439
90.15 -0.01898
90.2 -0.0122
90.25 -0.00683
90.3 0.00166
90.35 0.01008
90.4 0.0176
90.45 0.02318
90.5 0.02056
90.55 0.01991
90.6 0.02191
90.65 0.02165
90.7 0.02024
90.75 0.02145
90.8 0.01823
90.85 0.01346
90.9 0.00857
90.95 0.00508
91 0.00035
91.05 0.00057
91.1 0.00432
91.15 0.00956
91.2 0.01307
91.25 0.01155
91.3 0.01265
91.35 0.01516
91.4 0.01552
91.45 0.01862
91.5 0.02163
91.55 0.01762
91.6 0.01659
91.65 0.01603
91.7 0.01108
91.75 0.00692
91.8 0.00745
91.85 0.00646
91.9 0.00494
91.95 0.00194
92 -0.00292
92.05 -0.01003
92.1 -0.01217
92.15 -0.0106
92.2 -0.01109
92.25 -0.00938
92.3 -0.01131
92.35 -0.01476
92.4 -0.01434
92.45 -0.01587
92.5 -0.01771
92.55 -0.0189
92.6 -0.01386
92.65 -0.00659
92.7 0.00194
92.75 0.00247
92.8 0.00455
92.85 0.00373
92.9 0.00143
92.95 -0.00051
93 -0.00645
93.05 -0.00586
93.1 -0.00711
93.15 -0.00369
93.2 -0.00448
93.25 -0.00913
93.3 -0.00758
93.35 -0.00266
93.4 -0.00274
93.45 -0.00663
93.5 -0.00696
93.55 -0.00426
93.6 -0.00376
93.65 -0.00644
93.7 -0.00711
93.75 -0.00839
93.8 -0.00449
93.85 -0.00271
93.9 -0.0022
93.95 -0.00037
94 -0.0019
94.05 -0.00257
94.1 -0.00594
94.15 -0.01143
94.2 -0.01341
94.25 -0.01029
94.3 -0.00498
94.35 -0.00149
94.4 -0.00013
94.45 -0.00093
94.5 0.00188
94.55 0.0059
94.6 0.00461
94.65 0.00038
94.7 -0.0029
94.75 -0.00862
94.8 -0.01309
94.85 -0.01587
94.9 -0.0153
94.95 -0.01598
95 -0.01699
95.05 -0.01731
95.1 -0.02065
95.15 -0.01742
95.2 -0.01489
95.25 -0.01115
95.3 -0.01063
95.35 -0.00738
95.4 -0.00633
95.45 -0.00316
95.5 0.00334
95.55 0.01176
95.6 0.01695
95.65 0.01522
95.7 0.01324
95.75 0.01068
95.8 0.00903
95.85 0.00888
95.9 0.01034
95.95 0.01515
96 0.01408
96.05 0.01301
96.1 0.01509
96.15 0.01655
96.2 0.01828
96.25 0.01814
96.3 0.01901
96.35 0.02145
96.4 0.02198
96.45 0.0247
96.5 0.01957
96.55 0.0125
96.6 0.00847
96.65 0.00806
96.7 0.00528
96.75 0.00688
96.8 0.00943
96.85 0.01277
96.9 0.01102
96.95 0.00571
97 0.0035
97.05 -0.00212
97.1 -0.00768
97.15 -0.01031
97.2 -0.0114
97.25 -0.01234
97.3 -0.00855
97.35 -0.00914
97.4 -0.0125
97.45 -0.01486
97.5 -0.01545
97.55 -0.01795
97.6 -0.01738
97.65 -0.01207
97.7 -0.00956
97.75 -0.00342
97.8 -0.00131
97.85 -0.00249
97.9 -0.00501
97.95 -0.00162
98 0.00339
98.05 0.00248
98.1 -0.00178
98.15 -0.00612
98.2 -0.00557
98.25 -0.00054
98.3 0.00313
98.35 0.00184
98.4 0.00455
98.45 0.00183
98.5 0.00304
98.55 0.00058
98.6 -0.00292
98.65 -0.00631
98.7 -0.00918
98.75 -0.01492
98.8 -0.02077
98.85 -0.02465
98.9 -0.02458
98.95 -0.02602
99 -0.02631
99.05 -0.02247
99.1 -0.01697
99.15 -0.01116
99.2 -0.00599
99.25 -0.00625
99.3 -0.01051
99.35 -0.01465
99.4 -0.01314
99.45 -0.01536
99.5 -0.01763
99.55 -0.01445
99.6 -0.01349
99.65 -0.00888
99.7 -0.00413
99.75 -0.00106
99.8 -0.00044
99.85 -0.00271
99.9 -0.00259
99.95 -0.00004
