0 0
0.05 0.00881
0.1 0.01483
0.15 0.01969
0.2 0.02634
0.25 0.02863
0.3 0.02856
0.35 0.02866
0.4 0.027
0.45 0.03061
0.5 0.0382
0.55 0.0469
0.6 0.05162
0.65 0.05566
0.7 0.05797
0.75 0.0559
0.8 0.05831
0.85 0.0547
0.9 0.05426
0.95 0.05223
1 0.05322
1.05 0.05366
1.1 0.05209
1.15 0.04936
1.2 0.05
1.25 0.05127
1.3 0.05335
1.35 0.05258
1.4 0.0543
1.45 0.05376
1.5 0.05597
1.55 0.05753
1.6 0.06128
1.65 0.06133
1.7 0.0556
1.75 0.04834
1.8 0.041
1.85 0.03758
1.9 0.032
1.95 0.03076
2 0.03006
2.05 0.03224
2.1 0.03542
2.15 0.03988
2.2 0.04164
2.25 0.04511
2.3 0.04399
2.35 0.0398
2.4 0.04056
2.45 0.03631
2.5 0.03639
2.55 0.03776
2.6 0.03753
2.65 0.03569
2.7 0.02993
2.75 0.0288
2.8 0.02483
2.85 0.01744
2.9 0.01346
2.95 0.00947
3 0.00547
3.05 0.00243
3.1 0.00318
3.15 0.00265
3.2 0.00147
3.25 -0.0009
3.3 -0.00034
3.35 0.00589
3.4 0.01344
3.45 0.02281
3.5 0.02885
3.55 0.03592
3.6 0.03827
3.65 0.03703
3.7 0.03566
3.75 0.03107
3.8 0.02546
3.85 0.02053
3.9 0.0186
3.95 0.01662
4 0.01501
4.05 0.01406
4.1 0.01204
4.15 0.00759
4.2 0.00518
4.25 0.00773
4.3 0.00454
4.35 -0.00271
4.4 -0.01305
4.45 -0.02
4.5 -0.02612
4.55 -0.03214
4.6 -0.04223
4.65 -0.04917
4.7 -0.06365
4.75 -0.08218
4.8 -0.10021
4.85 -0.12296
4.9 -0.15039
4.95 -0.18496
5 -0.22476
5.05 -0.27137
5.1 -0.31791
5.15 -0.36856
5.2 -0.42759
5.25 -0.49418
5.3 -0.5592
5.35 -0.62811
5.4 -0.704
5.45 -0.78094
5.5 -0.86297
5.55 -0.94604
5.6 -1.0261
5.65 -1.10715
5.7 -1.18544
5.75 -1.25857
5.8 -1.32501
5.85 -1.38385
5.9 -1.43803
5.95 -1.4851
6 -1.52843
6.05 -1.56261
6.1 -1.59134
6.15 -1.6109
6.2 -1.62732
6.25 -1.64053
6.3 -1.64889
6.35 -1.64716
6.4 -1.64106
6.45 -1.63043
6.5 -1.61286
6.55 -1.58028
6.6 -1.54393
6.65 -1.49353
6.7 -1.43241
6.75 -1.36618
6.8 -1.29461
6.85 -1.21562
6.9 -1.13147
6.95 -1.03183
7 -0.92631
7.05 -0.80889
7.1 -0.68544
7.15 -0.55429
7.2 -0.41615
7.25 -0.27475
7.3 -0.13578
7.35 -0.00122
7.4 0.13505
7.45 0.27175
7.5 0.39943
7.55 0.52087
7.6 0.6389
7.65 0.75026
7.7 0.85157
7.75 0.94696
7.8 1.03168
7.85 1.1044
7.9 1.16857
7.95 1.2286
8 1.2786
8.05 1.32696
8.1 1.36328
8.15 1.39489
8.2 1.42083
8.25 1.43915
8.3 1.45333
8.35 1.46722
8.4 1.47925
8.45 1.48243
8.5 1.47711
8.55 1.4733
8.6 1.46848
8.65 1.46102
8.7 1.44925
8.75 1.43453
8.8 1.4139
8.85 1.39329
8.9 1.37105
8.95 1.34758
9 1.32442
9.05 1.30574
9.1 1.28793
9.15 1.26692
9.2 1.24827
9.25 1.22714
9.3 1.2003
9.35 1.17042
9.4 1.14066
9.45 1.11094
9.5 1.08229
9.55 1.05509
9.6 1.03139
9.65 1.01276
9.7 0.99462
9.75 0.9727
9.8 0.94866
9.85 0.92111
9.9 0.89641
9.95 0.8763
10 0.85748
10.05 0.84117
10.1 0.82169
10.15 0.80271
10.2 0.78207
10.25 0.75899
10.3 0.73497
10.35 0.70904
10.4 0.6803
10.45 0.65457
10.5 0.62607
10.55 0.59691
10.6 0.56938
10.65 0.54597
10.7 0.51972
10.75 0.49348
10.8 0.46751
10.85 0.43682
10.9 0.40877
10.95 0.3834
11 0.36015
11.05 0.33787
11.1 0.31685
11.15 0.29539
11.2 0.27363
11.25 0.25407
11.3 0.23488
11.35 0.21593
11.4 0.19059
11.45 0.16191
11.5 0.12965
11.55 0.09952
11.6 0.07339
11.65 0.04759
11.7 0.02679
11.75 0.00702
11.8 -0.01215
11.85 -0.02818
11.9 -0.0397
11.95 -0.05445
12 -0.06905
12.05 -0.07951
12.1 -0.09349
12.15 -0.10244
12.2 -0.11102
12.25 -0.1179
12.3 -0.12964
12.35 -0.13852
12.4 -0.149
12.45 -0.15822
12.5 -0.16618
12.55 -0.16898
12.6 -0.17198
12.65 -0.17568
12.7 -0.1836
12.75 -0.1865
12.8 -0.18994
12.85 -0.19497
12.9 -0.20157
12.95 -0.20753
13 -0.20855
13.05 -0.20878
13.1 -0.21049
13.15 -0.2105
13.2 -0.21
13.25 -0.21059
13.3 -0.21544
13.35 -0.2226
13.4 -0.22912
13.45 -0.2331
13.5 -0.23827
13.55 -0.24389
13.6 -0.24531
13.65 -0.24318
13.7 -0.23576
13.75 -0.22969
13.8 -0.2231
13.85 -0.21945
13.9 -0.21272
13.95 -0.20436
14 -0.20236
14.05 -0.20407
14.1 -0.20555
14.15 -0.20954
14.2 -0.20818
14.25 -0.20226
14.3 -0.19624
14.35 -0.19542
14.4 -0.19475
14.45 -0.19709
14.5 -0.19498
14.55 -0.19341
14.6 -0.19136
14.65 -0.18692
14.7 -0.1863
14.75 -0.1835
14.8 -0.17919
14.85 -0.1723
14.9 -0.16626
14.95 -0.15932
15 -0.15887
15.05 -0.16228
15.1 -0.16593
15.15 -0.17182
15.2 -0.17511
15.25 -0.17714
15.3 -0.18067
15.35 -0.182
15.4 -0.18138
15.45 -0.17933
15.5 -0.17823
15.55 -0.17623
15.6 -0.17576
15.65 -0.17648
15.7 -0.16943
15.75 -0.16265
15.8 -0.15833
15.85 -0.15227
15.9 -0.14284
15.95 -0.13723
16 -0.13507
16.05 -0.13123
16.1 -0.13054
16.15 -0.12682
16.2 -0.11959
16.25 -0.11243
16.3 -0.10548
16.35 -0.09697
16.4 -0.09237
16.45 -0.09259
16.5 -0.09057
16.55 -0.08793
16.6 -0.0864
16.65 -0.0867
16.7 -0.08797
16.75 -0.09051
16.8 -0.09165
16.85 -0.09522
16.9 -0.09687
16.95 -0.10085
17 -0.09829
17.05 -0.09574
17.1 -0.0889
17.15 -0.08514
17.2 -0.08117
17.25 -0.07694
17.3 -0.07592
17.35 -0.0763
17.4 -0.07293
17.45 -0.06867
17.5 -0.06839
17.55 -0.06628
17.6 -0.06567
17.65 -0.06844
17.7 -0.07237
17.75 -0.07724
17.8 -0.07983
17.85 -0.07935
17.9 -0.08018
17.95 -0.08222
18 -0.08
18.05 -0.07766
18.1 -0.07357
18.15 -0.07001
18.2 -0.06964
18.25 -0.06974
18.3 -0.06459
18.35 -0.05873
18.4 -0.05861
18.45 -0.06127
18.5 -0.06044
18.55 -0.05586
18.6 -0.05428
18.65 -0.0508
18.7 -0.05023
18.75 -0.0489
18.8 -0.05029
18.85 -0.05575
18.9 -0.06229
18.95 -0.06329
19 -0.06327
19.05 -0.06625
19.1 -0.06769
19.15 -0.06431
19.2 -0.06222
19.25 -0.0597
19.3 -0.0535
19.35 -0.05274
19.4 -0.05031
19.45 -0.04587
19.5 -0.04371
19.55 -0.04034
19.6 -0.03444
19.65 -0.03249
19.7 -0.03059
19.75 -0.02815
19.8 -0.02596
19.85 -0.02331
19.9 -0.02567
19.95 -0.02924
20 -0.03663
20.05 -0.04516
20.1 -0.04909
20.15 -0.05467
20.2 -0.05438
20.25 -0.04967
20.3 -0.04823
20.35 -0.04721
20.4 -0.04341
20.45 -0.03602
20.5 -0.02715
20.55 -0.02103
20.6 -0.01868
20.65 -0.01906
20.7 -0.02401
20.75 -0.02342
20.8 -0.02143
20.85 -0.0216
20.9 -0.02483
20.95 -0.03135
21 -0.03577
21.05 -0.03862
21.1 -0.04024
21.15 -0.03664
21.2 -0.03159
21.25 -0.02616
21.3 -0.0184
21.35 -0.01377
21.4 -0.01583
21.45 -0.01882
21.5 -0.01996
21.55 -0.02538
21.6 -0.02398
21.65 -0.02649
21.7 -0.02913
21.75 -0.03265
21.8 -0.03654
21.85 -0.03307
21.9 -0.0286
21.95 -0.02369
22 -0.0248
22.05 -0.02277
22.1 -0.01814
22.15 -0.0137
22.2 -0.00816
22.25 -0.00859
22.3 -0.01337
22.35 -0.01223
22.4 -0.01423
22.45 -0.01902
22.5 -0.02593
22.55 -0.03156
22.6 -0.03215
22.65 -0.03503
22.7 -0.03357
22.75 -0.02696
22.8 -0.01877
22.85 -0.017
22.9 -0.01772
22.95 -0.02254
23 -0.02824
23.05 -0.02849
23.1 -0.03149
23.15 -0.02898
23.2 -0.02672
23.25 -0.0204
23.3 -0.01394
23.35 -0.01264
23.4 -0.0133
23.45 -0.01135
23.5 -0.00788
23.55 -0.00209
23.6 -0.00178
23.65 -0.00682
23.7 -0.00711
23.75 -0.00558
23.8 -0.00413
23.85 -0.00674
23.9 -0.00789
23.95 -0.01114
24 -0.0107
24.05 -0.01255
24.1 -0.01069
24.15 -0.0079
24.2 -0.00697
24.25 -0.00183
24.3 0.00268
24.35 0.0013
24.4 0.00319
24.45 0.00328
24.5 0.0042
24.55 0.00211
24.6 -0.00319
24.65 -0.00919
24.7 -0.01486
24.75 -0.01817
24.8 -0.01746
24.85 -0.01804
24.9 -0.0156
24.95 -0.01011
25 -0.00927
25.05 -0.00518
25.1 -0.00436
25.15 -0.00794
25.2 -0.009
25.25 -0.01108
25.3 -0.01533
25.35 -0.0173
25.4 -0.0204
25.45 -0.01709
25.5 -0.01545
25.55 -0.01249
25.6 -0.01433
25.65 -0.01547
25.7 -0.01638
25.75 -0.01519
25.8 -0.01745
25.85 -0.01982
25.9 -0.01841
25.95 -0.0163
26 -0.01277
26.05 -0.01062
26.1 -0.00615
26.15 -0.00351
26.2 -0.00261
26.25 -0.00042
26.3 0.00412
26.35 0.00206
26.4 0.00251
26.45 -0.00162
26.5 -0.00364
26.55 -0.0013
26.6 -0.0013
26.65 -0.00191
26.7 -0.00552
26.75 -0.00308
26.8 0.00062
26.85 0.00198
26.9 -0.00191
26.95 -0.00831
27 -0.00909
27.05 -0.01168
27.1 -0.01355
27.15 -0.01288
27.2 -0.01416
27.25 -0.01469
27.3 -0.01333
27.35 -0.01562
27.4 -0.01354
27.45 -0.01229
27.5 -0.01374
27.55 -0.0126
27.6 -0.01313
27.65 -0.00941
27.7 -0.00299
27.75 0.0038
27.8 0.00759
27.85 0.01067
27.9 0.0053
27.95 -0.00203
28 -0.00864
28.05 -0.01896
28.1 -0.03164
28.15 -0.04487
28.2 -0.05452
28.25 -0.06072
28.3 -0.07027
28.35 -0.07799
28.4 -0.08915
28.45 -0.10002
28.5 -0.10956
28.55 -0.12499
28.6 -0.14506
28.65 -0.16296
28.7 -0.18505
28.75 -0.20829
28.8 -0.23148
28.85 -0.26173
28.9 -0.30036
28.95 -0.34586
29 -0.38892
29.05 -0.43132
29.1 -0.47799
29.15 -0.52944
29.2 -0.58041
29.25 -0.63212
29.3 -0.68595
29.35 -0.73549
29.4 -0.79025
29.45 -0.84493
29.5 -0.89863
29.55 -0.94962
29.6 -0.99457
29.65 -1.03468
29.7 -1.06739
29.75 -1.10241
29.8 -1.13511
29.85 -1.16081
29.9 -1.17926
29.95 -1.188
30 -1.18654
30.05 -1.17725
30.1 -1.16163
30.15 -1.13876
30.2 -1.10235
30.25 -1.06334
30.3 -1.01922
30.35 -0.96703
30.4 -0.90799
30.45 -0.84243
30.5 -0.76915
30.55 -0.68663
30.6 -0.60047
30.65 -0.5113
30.7 -0.4168
30.75 -0.31788
30.8 -0.22532
30.85 -0.13453
30.9 -0.04683
30.95 0.04077
31 0.12318
31.05 0.19849
31.1 0.27379
31.15 0.34049
31.2 0.40808
31.25 0.47328
31.3 0.52999
31.35 0.58396
31.4 0.62683
31.45 0.66076
31.5 0.68985
31.55 0.71448
31.6 0.73675
31.65 0.75985
31.7 0.77629
31.75 0.79622
31.8 0.80865
31.85 0.82476
31.9 0.83958
31.95 0.85546
32 0.87076
32.05 0.87738
32.1 0.87843
32.15 0.87916
32.2 0.88344
32.25 0.88517
32.3 0.88466
32.35 0.8877
32.4 0.88595
32.45 0.88369
32.5 0.87996
32.55 0.8755
32.6 0.86927
32.65 0.86542
32.7 0.85814
32.75 0.8501
32.8 0.84217
32.85 0.8379
32.9 0.83163
32.95 0.82237
33 0.81063
33.05 0.79573
33.1 0.78285
33.15 0.77464
33.2 0.7687
33.25 0.75635
33.3 0.74076
33.35 0.72377
33.4 0.70898
33.45 0.68826
33.5 0.67206
33.55 0.65035
33.6 0.62797
33.65 0.60159
33.7 0.58165
33.75 0.55852
33.8 0.53174
33.85 0.50337
33.9 0.48261
33.95 0.46619
34 0.45195
34.05 0.43146
34.1 0.40959
34.15 0.38568
34.2 0.36541
34.25 0.34481
34.3 0.32415
34.35 0.3008
34.4 0.28117
34.45 0.26082
34.5 0.24439
34.55 0.23242
34.6 0.21912
34.65 0.20298
34.7 0.1901
34.75 0.17994
34.8 0.17084
34.85 0.1595
34.9 0.14297
34.95 0.12544
35 0.11238
35.05 0.09974
35.1 0.08939
35.15 0.07543
35.2 0.06271
35.25 0.04747
35.3 0.02818
35.35 0.00667
35.4 -0.01243
35.45 -0.02788
35.5 -0.04419
35.55 -0.05293
35.6 -0.05847
35.65 -0.06816
35.7 -0.0782
35.75 -0.08832
35.8 -0.09937
35.85 -0.11017
35.9 -0.11608
35.95 -0.1228
36 -0.12896
36.05 -0.13389
36.1 -0.13861
36.15 -0.14512
36.2 -0.14681
36.25 -0.14641
36.3 -0.14192
36.35 -0.1384
36.4 -0.13939
36.45 -0.13706
36.5 -0.1345
36.55 -0.13597
36.6 -0.13586
36.65 -0.13428
36.7 -0.13673
36.75 -0.13613
36.8 -0.14098
36.85 -0.14348
36.9 -0.14721
36.95 -0.15235
37 -0.15969
37.05 -0.16318
37.1 -0.16199
37.15 -0.15984
37.2 -0.15375
37.25 -0.14996
37.3 -0.14684
37.35 -0.1453
37.4 -0.14544
37.45 -0.14914
37.5 -0.15414
37.55 -0.15239
37.6 -0.14589
37.65 -0.13649
37.7 -0.13301
37.75 -0.13172
37.8 -0.13208
37.85 -0.12764
37.9 -0.12038
37.95 -0.12017
38 -0.11889
38.05 -0.11458
38.1 -0.11655
38.15 -0.12258
38.2 -0.12373
38.25 -0.12502
38.3 -0.12099
38.35 -0.12134
38.4 -0.1183
38.45 -0.11932
38.5 -0.11605
38.55 -0.10991
38.6 -0.10979
38.65 -0.10525
38.7 -0.10368
38.75 -0.1003
38.8 -0.09996
38.85 -0.10288
38.9 -0.10542
38.95 -0.10827
39 -0.11253
39.05 -0.10921
39.1 -0.10385
39.15 -0.09598
39.2 -0.08663
39.25 -0.07968
39.3 -0.07563
39.35 -0.07168
39.4 -0.0729
39.45 -0.07012
39.5 -0.0692
39.55 -0.07127
39.6 -0.07704
39.65 -0.08206
39.7 -0.08703
39.75 -0.09333
39.8 -0.09699
39.85 -0.09749
39.9 -0.09515
39.95 -0.0893
40 -0.08265
40.05 -0.07255
40.1 -0.06865
40.15 -0.06187
40.2 -0.05863
40.25 -0.05585
40.3 -0.05134
40.35 -0.0479
40.4 -0.04195
40.45 -0.0365
40.5 -0.03825
40.55 -0.03918
40.6 -0.04189
40.65 -0.0478
40.7 -0.05555
40.75 -0.05931
40.8 -0.0593
40.85 -0.05774
40.9 -0.05655
40.95 -0.05716
41 -0.05957
41.05 -0.05631
41.1 -0.04924
41.15 -0.04172
41.2 -0.04211
41.25 -0.04398
41.3 -0.04718
41.35 -0.05248
41.4 -0.05611
41.45 -0.05883
41.5 -0.05507
41.55 -0.05543
41.6 -0.05865
41.65 -0.06119
41.7 -0.05892
41.75 -0.05537
41.8 -0.05114
41.85 -0.0489
41.9 -0.04624
41.95 -0.04072
42 -0.0331
42.05 -0.02658
42.1 -0.01851
42.15 -0.01896
42.2 -0.01896
42.25 -0.022
42.3 -0.02906
42.35 -0.03143
42.4 -0.03453
42.45 -0.03953
42.5 -0.03856
42.55 -0.04184
42.6 -0.0444
42.65 -0.04324
42.7 -0.03889
42.75 -0.03085
42.8 -0.02856
42.85 -0.0265
42.9 -0.02132
42.95 -0.02011
43 -0.01568
43.05 -0.00987
43.1 -0.01038
43.15 -0.01274
43.2 -0.01191
43.25 -0.01189
43.3 -0.01606
43.35 -0.01878
43.4 -0.02185
43.45 -0.0237
43.5 -0.02647
43.55 -0.02641
43.6 -0.02435
43.65 -0.01903
43.7 -0.01366
43.75 -0.01042
43.8 -0.00957
43.85 -0.0089
43.9 -0.01366
43.95 -0.02186
44 -0.02844
44.05 -0.03416
44.1 -0.04094
44.15 -0.04498
44.2 -0.04396
44.25 -0.03844
44.3 -0.02865
44.35 -0.01758
44.4 -0.0144
44.45 -0.01001
44.5 -0.00438
44.55 0.00192
44.6 0.00811
44.65 0.01347
44.7 0.01691
44.75 0.01563
44.8 0.00742
44.85 -0.00021
44.9 -0.00713
44.95 -0.0144
45 -0.02195
45.05 -0.02689
45.1 -0.03055
45.15 -0.03475
45.2 -0.03925
45.25 -0.04386
45.3 -0.04802
45.35 -0.0443
45.4 -0.04118
45.45 -0.04004
45.5 -0.03407
45.55 -0.02431
45.6 -0.01758
45.65 -0.01545
45.7 -0.014
45.75 -0.00911
45.8 -0.00956
45.85 -0.00981
45.9 -0.00861
45.95 -0.00361
46 0.00243
46.05 0.00373
46.1 0.0068
46.15 0.00814
46.2 0.00355
46.25 -0.00179
46.3 -0.00136
46.35 -0.00067
46.4 0.00255
46.45 0.0058
46.5 0.00826
46.55 0.00848
46.6 0.01104
46.65 0.0105
46.7 0.00893
46.75 0.00929
46.8 0.00747
46.85 0.001
46.9 -0.00845
46.95 -0.01076
47 -0.00843
47.05 -0.00401
47.1 0.0022
47.15 0.00504
47.2 0.00307
47.25 -0.00362
47.3 -0.00936
47.35 -0.01762
47.4 -0.02125
47.45 -0.02191
47.5 -0.01705
47.55 -0.01755
47.6 -0.0197
47.65 -0.02123
47.7 -0.02091
47.75 -0.02403
47.8 -0.02546
47.85 -0.02308
47.9 -0.01915
47.95 -0.01546
48 -0.01167
48.05 -0.00928
48.1 -0.0051
48.15 0.00122
48.2 0.0067
48.25 0.01177
48.3 0.01635
48.35 0.01987
48.4 0.01554
48.45 0.00616
48.5 -0.00179
48.55 -0.01205
48.6 -0.02092
48.65 -0.02184
48.7 -0.02219
48.75 -0.0237
48.8 -0.02535
48.85 -0.02523
48.9 -0.01992
48.95 -0.01281
49 -0.00462
49.05 0.00116
49.1 0.00873
49.15 0.01422
49.2 0.02046
49.25 0.02237
49.3 0.02309
49.35 0.02179
49.4 0.01755
49.45 0.01212
49.5 0.01163
49.55 0.0089
49.6 0.00696
49.65 0.00392
49.7 0.0029
49.75 0.00035
49.8 0.00117
49.85 -0.00145
49.9 -0.00739
49.95 -0.01265
50 -0.01648
50.05 -0.01914
50.1 -0.01607
50.15 -0.0164
50.2 -0.01618
50.25 -0.0151
50.3 -0.01757
50.35 -0.01937
50.4 -0.02183
50.45 -0.01895
50.5 -0.01204
50.55 -0.00257
50.6 0.00752
50.65 0.01145
50.7 0.0125
50.75 0.01579
50.8 0.01486
50.85 0.0144
50.9 0.01666
50.95 0.01259
51 0.01147
51.05 0.01102
51.1 0.01376
51.15 0.01056
51.2 0.00977
51.25 0.01245
51.3 0.01349
51.35 0.00842
51.4 0.00399
51.45 -0.00051
51.5 -0.00811
51.55 -0.01136
51.6 -0.01458
51.65 -0.01215
51.7 -0.01354
51.75 -0.0108
51.8 -0.0083
51.85 -0.00292
51.9 0.00086
51.95 0.00213
52 0.00253
52.05 0.00299
52.1 0.00695
52.15 0.01052
52.2 0.00865
52.25 0.00924
52.3 0.00506
52.35 0.0034
52.4 -0.00191
52.45 -0.00665
52.5 -0.01106
52.55 -0.01392
52.6 -0.0121
52.65 -0.00874
52.7 -0.00557
52.75 -0.00486
52.8 -0.00672
52.85 -0.00471
52.9 -0.00129
52.95 -0.00219
53 -0.00382
53.05 -0.00947
53.1 -0.01101
53.15 -0.01033
53.2 -0.0098
53.25 -0.00461
53.3 -0.00438
53.35 -0.00441
53.4 -0.00342
53.45 -0.00534
53.5 -0.00959
53.55 -0.00726
53.6 -0.01022
53.65 -0.00816
53.7 -0.00473
53.75 -0.007
53.8 -0.00518
53.85 -0.00002
53.9 0.00614
53.95 0.00858
54 0.0086
54.05 0.00305
54.1 -0.00071
54.15 -0.00166
54.2 -0.00688
54.25 -0.00948
54.3 -0.01001
54.35 -0.00748
54.4 -0.00959
54.45 -0.01189
54.5 -0.00926
54.55 -0.00706
54.6 -0.00904
54.65 -0.00962
54.7 -0.0109
54.75 -0.0147
54.8 -0.0128
54.85 -0.00742
54.9 -0.0078
54.95 -0.01225
55 -0.01016
55.05 -0.00954
55.1 -0.01042
55.15 -0.00984
55.2 -0.00423
55.25 -0.0038
55.3 -0.00007
55.35 0.00366
55.4 0.00194
55.45 0.00356
55.5 0.00164
55.55 0.00302
55.6 0.00123
55.65 0.00004
55.7 0.0034
55.75 0.00941
55.8 0.00875
55.85 0.00618
55.9 0.00253
55.95 0.00225
56 0.00318
56.05 -0.00139
56.1 -0.00149
56.15 -0.00037
56.2 0.00342
56.25 0.00955
56.3 0.00821
56.35 0.0054
56.4 0.00744
56.45 0.01163
56.5 0.01533
56.55 0.01929
56.6 0.0244
56.65 0.02229
56.7 0.02316
56.75 0.02549
56.8 0.02441
56.85 0.02151
56.9 0.01789
56.95 0.01258
57 0.00319
57.05 -0.00381
57.1 -0.00596
57.15 -0.00419
57.2 0.00038
57.25 0.00053
57.3 -0.00104
57.35 -0.00306
57.4 -0.00458
57.45 -0.00596
57.5 -0.00897
57.55 -0.01106
57.6 -0.0093
57.65 -0.0119
57.7 -0.01454
57.75 -0.01972
57.8 -0.02065
57.85 -0.02391
57.9 -0.02032
57.95 -0.01368
58 -0.00437
58.05 -0.00247
58.1 -0.00337
58.15 -0.00249
58.2 0.001
58.25 0.00596
58.3 0.00966
58.35 0.01329
58.4 0.01739
58.45 0.02256
58.5 0.02584
58.55 0.02414
58.6 0.02259
58.65 0.01742
58.7 0.01383
58.75 0.00716
58.8 0.00493
58.85 0.00026
58.9 -0.00089
58.95 -0.00179
59 -0.00494
59.05 -0.01175
59.1 -0.01146
59.15 -0.00937
59.2 -0.00605
59.25 -0.00305
59.3 -0.00387
59.35 -0.0092
59.4 -0.01253
59.45 -0.01165
59.5 -0.00646
59.55 -0.00019
59.6 0.00772
59.65 0.0138
59.7 0.01357
59.75 0.00912
59.8 0.00694
59.85 0.00632
59.9 0.00292
59.95 -0.00336
60 -0.00941
60.05 -0.00941
60.1 -0.00552
60.15 -0.00026
60.2 0.00239
60.25 0.00096
60.3 -0.00121
60.35 0.0005
60.4 0.00456
60.45 0.00582
60.5 0.0021
60.55 -0.00222
60.6 -0.00512
60.65 -0.00488
60.7 -0.00035
60.75 0.00024
60.8 -0.00031
60.85 -0.00047
60.9 0.00036
60.95 0.00382
61 0.00082
61.05 -0.00142
61.1 0.00084
61.15 -0.00314
61.2 -0.00162
61.25 0.00017
61.3 -0.00138
61.35 -0.00325
61.4 -0.00087
61.45 0.00397
61.5 0.0079
61.55 0.01166
61.6 0.00955
61.65 0.01132
61.7 0.01495
61.75 0.01836
61.8 0.02283
61.85 0.02706
61.9 0.02507
61.95 0.02345
62 0.0186
62.05 0.01302
62.1 0.00312
62.15 -0.00418
62.2 -0.00676
62.25 -0.0127
62.3 -0.01201
62.35 -0.0149
62.4 -0.01437
62.45 -0.0141
62.5 -0.01205
62.55 -0.00942
62.6 -0.00931
62.65 -0.00923
62.7 -0.00559
62.75 -0.00175
62.8 0.0011
62.85 -0.00068
62.9 -0.00615
62.95 -0.00697
63 -0.00414
63.05 0.00198
63.1 0.00928
63.15 0.0084
63.2 0.00246
63.25 -0.00365
63.3 -0.00735
63.35 -0.0081
63.4 -0.00786
63.45 -0.01079
63.5 -0.01389
63.55 -0.01089
63.6 -0.00507
63.65 -0.0019
63.7 0.00348
63.75 0.00991
63.8 0.01433
63.85 0.01436
63.9 0.01257
63.95 0.00909
64 0.00406
64.05 0.00255
64.1 -0.00291
64.15 -0.00567
64.2 -0.00524
64.25 -0.00597
64.3 -0.00839
64.35 -0.00935
64.4 -0.00991
64.45 -0.01405
64.5 -0.01474
64.55 -0.01159
64.6 -0.00912
64.65 -0.00424
64.7 -0.00231
64.75 0.00164
64.8 0.00197
64.85 0.00416
64.9 0.00567
64.95 0.00241
65 -0.00449
65.05 -0.00622
65.1 -0.00922
65.15 -0.01565
65.2 -0.01523
65.25 -0.01678
65.3 -0.0124
65.35 -0.01174
65.4 -0.01427
65.45 -0.01384
65.5 -0.00922
65.55 -0.00736
65.6 -0.00214
65.65 -0.00132
65.7 0.00181
65.75 0.00553
65.8 0.00663
65.85 0.0028
65.9 -0.00345
65.95 -0.00663
66 -0.00763
66.05 -0.00464
66.1 -0.00367
66.15 -0.00751
66.2 -0.00598
66.25 -0.00198
66.3 0.00118
66.35 0.0059
66.4 0.01208
66.45 0.01357
66.5 0.01618
66.55 0.01382
66.6 0.01161
66.65 0.00909
66.7 0.00365
66.75 -0.00187
66.8 -0.01038
66.85 -0.01389
66.9 -0.01816
66.95 -0.0232
67 -0.02658
67.05 -0.03168
67.1 -0.03224
67.15 -0.03361
67.2 -0.02956
67.25 -0.02141
67.3 -0.01282
67.35 -0.00587
67.4 0.00223
67.45 0.00295
67.5 0.00496
67.55 0.00363
67.6 0.00652
67.65 0.00413
67.7 -0.00125
67.75 -0.0088
67.8 -0.01749
67.85 -0.02409
67.9 -0.02532
67.95 -0.0196
68 -0.01603
68.05 -0.01355
68.1 -0.00758
68.15 -0.00751
68.2 -0.00426
68.25 -0.00393
68.3 0.00075
68.35 0.00257
68.4 0.00055
68.45 -0.00216
68.5 -0.00242
68.55 -0.00495
68.6 -0.00781
68.65 -0.01315
68.7 -0.01929
68.75 -0.01838
68.8 -0.01325
68.85 -0.01082
68.9 -0.00764
68.95 -0.0007
69 0.00291
69.05 0.0026
69.1 0.00514
69.15 0.0023
69.2 0.00145
69.25 0.00321
69.3 0.00686
69.35 0.01265
69.4 0.01052
69.45 0.00435
69.5 0.0017
69.55 -0.00091
69.6 0.0011
69.65 -0.00056
69.7 -0.00324
69.75 -0.00141
69.8 -0.00332
69.85 -0.00303
69.9 0.00189
69.95 0.0028
70 0.00222
70.05 0.00209
70.1 0.00521
70.15 0.01021
70.2 0.0156
70.25 0.01391
70.3 0.01183
70.35 0.00596
70.4 0.00123
70.45 0.00071
70.5 0.00373
70.55 0.00799
70.6 0.01131
70.65 0.00992
70.7 0.00723
70.75 0.00006
70.8 -0.00107
70.85 -0.00348
70.9 -0.00429
70.95 -0.00344
71 -0.00452
71.05 -0.00221
71.1 0.00281
71.15 0.00234
71.2 -0.00074
71.25 -0.00001
71.3 0.00006
71.35 0.00145
71.4 0.00571
71.45 0.00824
71.5 0.01043
71.55 0.01034
71.6 0.00796
71.65 0.00273
71.7 0.00199
71.75 0.00058
71.8 -0.00453
71.85 -0.00651
71.9 -0.00655
71.95 -0.0061
72 -0.0046
72.05 0.00084
72.1 0.00661
72.15 0.00584
72.2 0.00505
72.25 0.00559
72.3 0.00364
72.35 0.00402
72.4 0.00544
72.45 0.00136
72.5 -0.00268
72.55 -0.00951
72.6 -0.01301
72.65 -0.0137
72.7 -0.01499
72.75 -0.01233
72.8 -0.01263
72.85 -0.0142
72.9 -0.01146
72.95 -0.00584
73 -0.00106
73.05 0.00121
73.1 0.00243
73.15 -0.00109
73.2 -0.00161
73.25 -0.00245
73.3 0.0004
73.35 0.00536
73.4 0.00455
73.45 -0.0003
73.5 -0.00306
73.55 -0.00345
73.6 -0.00714
73.65 -0.01301
73.7 -0.01527
73.75 -0.01744
73.8 -0.01306
73.85 -0.00687
73.9 -0.00521
73.95 -0.00228
74 -0.00148
74.05 0.00051
74.1 0.00228
74.15 -0.00105
74.2 -0.00711
74.25 -0.00795
74.3 -0.00921
74.35 -0.01059
74.4 -0.00919
74.45 -0.00604
74.5 0.00073
74.55 0.00889
74.6 0.01423
74.65 0.01414
74.7 0.01612
74.75 0.01992
74.8 0.01726
74.85 0.0113
74.9 0.01065
74.95 0.00667
75 0.00218
75.05 -0.00439
75.1 -0.01284
75.15 -0.01318
75.2 -0.01238
75.25 -0.01091
75.3 -0.0126
75.35 -0.01126
75.4 -0.00934
75.45 -0.01064
75.5 -0.0081
75.55 -0.00658
75.6 -0.00425
75.65 -0.0004
75.7 0.00362
75.75 0.00863
75.8 0.01012
75.85 0.01033
75.9 0.00692
75.95 0.00832
76 0.01184
76.05 0.00898
76.1 0.0027
76.15 0.00239
76.2 0.00017
76.25 -0.00419
76.3 -0.00498
76.35 -0.00624
76.4 -0.00829
76.45 -0.01258
76.5 -0.01642
76.55 -0.01361
76.6 -0.01442
76.65 -0.01171
76.7 -0.01129
76.75 -0.00973
76.8 -0.00602
76.85 -0.0041
76.9 0.00212
76.95 0.0029
77 0.00417
77.05 0.00143
77.1 -0.00214
77.15 -0.00369
77.2 -0.00429
77.25 -0.00712
77.3 -0.00661
77.35 -0.00725
77.4 -0.00888
77.45 -0.00668
77.5 -0.00198
77.55 0.00421
77.6 0.00319
77.65 0.00695
77.7 0.00714
77.75 0.008
77.8 0.012
77.85 0.01104
77.9 0.01261
77.95 0.016
78 0.01538
78.05 0.01492
78.1 0.00859
78.15 0.00527
78.2 0.00507
78.25 0.00647
78.3 0.007
78.35 0.00554
78.4 0.00203
78.45 0.00124
78.5 -0.00257
78.55 -0.0035
78.6 -0.00234
78.65 0.00305
78.7 0.00613
78.75 0.00677
78.8 0.0043
78.85 -0.00083
78.9 -0.00499
78.95 -0.00738
79 -0.00817
79.05 -0.00984
79.1 -0.00908
79.15 -0.00909
79.2 -0.00444
79.25 0.00174
79.3 0.00296
79.35 0.00181
79.4 -0.00102
79.45 -0.00543
79.5 -0.0102
79.55 -0.01448
79.6 -0.02019
79.65 -0.02258
79.7 -0.02452
79.75 -0.0273
79.8 -0.02289
79.85 -0.01549
79.9 -0.00653
79.95 0.00067
80 0.00856
80.05 0.01049
80.1 0.01277
80.15 0.01621
80.2 0.01962
80.25 0.01942
80.3 0.01579
80.35 0.0119
80.4 0.01038
80.45 0.01207
80.5 0.00878
80.55 0.01021
80.6 0.01158
80.65 0.01028
80.7 0.00686
80.75 0.0005
80.8 -0.00756
80.85 -0.00958
80.9 -0.01378
80.95 -0.01374
81 -0.016
81.05 -0.01991
81.1 -0.01856
81.15 -0.01223
81.2 -0.00951
81.25 -0.01022
81.3 -0.01024
81.35 -0.00859
81.4 -0.00323
81.45 -0.00131
81.5 0.00204
81.55 0.00028
81.6 0.00018
81.65 -0.00087
81.7 -0.00515
81.75 -0.01181
81.8 -0.01606
81.85 -0.01552
81.9 -0.01617
81.95 -0.01432
82 -0.01407
82.05 -0.0083
82.1 -0.00303
82.15 0.0016
82.2 0.00147
82.25 -0.00164
82.3 -0.00703
82.35 -0.00575
82.4 -0.00004
82.45 0.00795
82.5 0.00784
82.55 0.01077
82.6 0.01134
82.65 0.00991
82.7 0.01027
82.75 0.00939
82.8 0.00646
82.85 0.00041
82.9 -0.00044
82.95 0.00317
83 0.00463
83.05 0.00828
83.1 0.01174
83.15 0.01345
83.2 0.01167
83.25 0.01034
83.3 0.00697
83.35 0.00874
83.4 0.00844
83.45 0.00798
83.5 0.01133
83.55 0.01566
83.6 0.01416
83.65 0.00724
83.7 0.00589
83.75 0.00057
83.8 0.00058
83.85 0.00384
83.9 0.00567
83.95 0.00565
84 0.00373
84.05 0.00331
84.1 0.00007
84.15 -0.00602
84.2 -0.01302
84.25 -0.01225
84.3 -0.01171
84.35 -0.01177
84.4 -0.01541
84.45 -0.01584
84.5 -0.01843
84.55 -0.01526
84.6 -0.00941
84.65 -0.00547
84.7 -0.00284
84.75 -0.00199
84.8 -0.00218
84.85 -0.00362
84.9 -0.00182
84.95 0.00154
85 0.00418
85.05 0.00715
85.1 0.01199
85.15 0.01342
85.2 0.00907
85.25 0.00397
85.3 -0.00213
85.35 -0.00315
85.4 -0.00437
85.45 -0.00245
85.5 -0.00005
85.55 -0.00313
85.6 -0.00568
85.65 -0.0029
85.7 -0.00478
85.75 -0.00915
85.8 -0.00663
85.85 -0.00059
85.9 0.00065
85.95 0.00012
86 0.00078
86.05 -0.00217
86.1 -0.00115
86.15 -0.0019
86.2 0.0001
86.25 0.00376
86.3 0.00769
86.35 0.00753
86.4 0.00545
86.45 0.00374
86.5 0.00319
86.55 -0.00221
86.6 -0.00314
86.65 -0.00584
86.7 -0.00951
86.75 -0.00751
86.8 -0.00679
86.85 -0.01055
86.9 -0.01355
86.95 -0.01189
87 -0.01255
87.05 -0.00995
87.1 -0.01073
87.15 -0.00953
87.2 -0.00886
87.25 -0.00759
87.3 -0.00276
87.35 -0.00128
87.4 0.00278
87.45 0.00982
87.5 0.01188
87.55 0.01078
87.6 0.00546
87.65 0.00083
87.7 -0.00588
87.75 -0.01035
87.8 -0.01373
87.85 -0.01154
87.9 -0.00479
87.95 0.00245
88 0.00558
88.05 0.00894
88.1 0.00996
88.15 0.01236
88.2 0.00817
88.25 0.0084
88.3 0.00672
88.35 0.0043
88.4 0.00317
88.45 -0.00224
88.5 -0.00609
88.55 -0.011
88.6 -0.01299
88.65 -0.01012
88.7 -0.0097
88.75 -0.00459
88.8 -0.00472
88.85 -0.00149
88.9 0.00468
88.95 0.00946
89 0.01533
89.05 0.0217
89.1 0.02432
89.15 0.02255
89.2 0.02336
89.25 0.02428
89.3 0.02523
89.35 0.01959
89.4 0.01357
89.45 0.00862
89.5 0.00778
89.55 0.00188
89.6 -0.00541
89.65 -0.00574
89.7 -0.00865
89.75 -0.00561
89.8 -0.00358
89.85 -0.00114
89.9 -0.00297
89.95 -0.00168
90 -0.00341
90.05 -0.00899
90.1 -0.01295
90.15 -0.01027
90.2 -0.00505
90.25 -0.0028
90.3 -0.0044
90.35 -0.00783
90.4 -0.01145
90.45 -0.01518
90.5 -0.01777
90.55 -0.02052
90.6 -0.01997
90.65 -0.02077
90.7 -0.0197
90.75 -0.01286
90.8 -0.00625
90.85 -0.00032
90.9 0.00516
90.95 0.00859
91 0.01223
91.05 0.00914
91.1 0.00619
91.15 0.00041
91.2 -0.00564
91.25 -0.00695
91.3 -0.00277
91.35 0.00052
91.4 0.00511
91.45 0.00676
91.5 0.00958
91.55 0.01503
91.6 0.01706
91.65 0.01986
91.7 0.01647
91.75 0.01262
91.8 0.00743
91.85 0.00744
91.9 0.00488
91.95 0.00536
92 0.00512
92.05 0.00858
92.1 0.0103
92.15 0.00558
92.2 -0.00017
92.25 -0.00736
92.3 -0.00771
92.35 -0.00413
92.4 -0.0054
92.45 -0.0028
92.5 0.00316
92.55 0.00841
92.6 0.00644
92.65 0.00667
92.7 0.00295
92.75 -0.00071
92.8 -0.00588
92.85 -0.01201
92.9 -0.0136
92.95 -0.0108
93 -0.00925
93.05 -0.00569
93.1 -0.0017
93.15 0.00319
93.2 0.00824
93.25 0.01178
93.3 0.01102
93.35 0.01255
93.4 0.00821
93.45 0.00823
93.5 0.00833
93.55 0.00317
93.6 -0.00484
93.65 -0.0108
93.7 -0.01661
93.75 -0.01921
93.8 -0.01821
93.85 -0.02079
93.9 -0.02255
93.95 -0.02161
94 -0.01619
94.05 -0.01397
94.1 -0.0142
94.15 -0.00948
94.2 -0.00363
94.25 -0.00285
94.3 -0.00344
94.35 0.00102
94.4 0.00263
94.45 0.00328
94.5 0.00217
94.55 0.00471
94.6 0.00744
94.65 0.00628
94.7 0.00869
94.75 0.01192
94.8 0.01453
94.85 0.01213
94.9 0.00601
94.95 -0.00252
95 -0.0056
95.05 -0.01143
95.1 -0.01859
95.15 -0.01837
95.2 -0.01901
95.25 -0.01649
95.3 -0.01267
95.35 -0.01296
95.4 -0.00867
95.45 -0.00419
95.5 0.0029
95.55 0.00727
95.6 0.00851
95.65 0.0101
95.7 0.00641
95.75 0.00645
95.8 0.0055
95.85 0.00317
95.9 0.00411
95.95 0.00658
96 0.00974
96.05 0.01248
96.1 0.01155
96.15 0.00998
96.2 0.00956
96.25 0.00664
96.3 0.0047
96.35 0.00216
96.4 -0.00147
96.45 -0.00423
96.5 -0.0047
96.55 -0.00136
96.6 -0.00231
96.65 -0.00192
96.7 -0.00193
96.75 0.0019
96.8 -0.00049
96.85 -0.00069
96.9 0.00307
96.95 0.00496
97 0.0055
97.05 0.00933
97.1 0.01186
97.15 0.01307
97.2 0.01211
97.25 0.0149
97.3 0.01102
97.35 0.00991
97.4 0.00513
97.45 0.00105
97.5 0.00213
97.55 0.00177
97.6 -0.00361
97.65 -0.00715
97.7 -0.00453
97.75 -0.00584
97.8 -0.00567
97.85 -0.00146
97.9 0.00143
97.95 0.00543
98 0.00851
98.05 0.00577
98.1 0.00717
98.15 0.00504
98.2 0.0077
98.25 0.0061
98.3 0.00587
98.35 0.00578
98.4 0.00514
98.45 0.00664
98.5 0.00325
98.55 -0.00225
98.6 -0.00807
98.65 -0.01394
98.7 -0.01687
98.75 -0.01881
98.8 -0.0171
98.85 -0.0139
98.9 -0.012
98.95 -0.01328
99 -0.01451
99.05 -0.01529
99.1 -0.01298
99.15 -0.01463
99.2 -0.01856
99.25 -0.01832
99.3 -0.01909
99.35 -0.0203
99.4 -0.02176
99.45 -0.02057
99.5 -0.01817
99.55 -0.01301
99.6 -0.01209
99.65 -0.00729
99.7 -0.00826
99.75 -0.00379
99.8 -0.00168
99.85 0.0019
99.9 0.00555
99.95 0.01164
