0 0
0.05 0.00075
0.1 0.00241
0.15 0.00391
0.2 0.00459
0.25 0.00639
0.3 0.00834
0.35 0.00897
0.4 0.00984
0.45 0.01009
0.5 0.01008
0.55 0.01083
0.6 0.01179
0.65 0.01271
0.7 0.01373
0.75 0.01334
0.8 0.01195
0.85 0.01152
0.9 0.01131
0.95 0.01089
1 0.01034
1.05 0.0106
1.1 0.01018
1.15 0.00939
1.2 0.00928
1.25 0.00927
1.3 0.00935
1.35 0.00833
1.4 0.00733
1.45 0.00629
1.5 0.00654
1.55 0.00635
1.6 0.00664
1.65 0.00644
1.7 0.00665
1.75 0.00651
1.8 0.00724
1.85 0.00826
1.9 0.00856
1.95 0.00909
2 0.00989
2.05 0.01088
2.1 0.01043
2.15 0.00941
2.2 0.00772
2.25 0.00657
2.3 0.00532
2.35 0.00445
2.4 0.00311
2.45 0.00275
2.5 0.00234
2.55 0.00179
2.6 0.00148
2.65 0.00136
2.7 0.00242
2.75 0.00341
2.8 0.00468
2.85 0.00464
2.9 0.00537
2.95 0.00654
3 0.00663
3.05 0.00575
3.1 0.00443
3.15 0.00376
3.2 0.00383
3.25 0.00318
3.3 0.00329
3.35 0.00351
3.4 0.00362
3.45 0.00333
3.5 0.00391
3.55 0.00376
3.6 0.00447
3.65 0.0043
3.7 0.00451
3.75 0.00389
3.8 0.00433
3.85 0.00438
3.9 0.00436
3.95 0.00459
4 0.00506
4.05 0.0054
4.1 0.00533
4.15 0.00464
4.2 0.00367
4.25 0.00337
4.3 0.00316
4.35 0.00258
4.4 0.00307
4.45 0.00265
4.5 0.00315
4.55 0.00317
4.6 0.00224
4.65 0.00144
4.7 0.00122
4.75 0.00049
4.8 -0.00025
4.85 -0.00132
4.9 -0.00112
4.95 -0.00148
5 -0.0019
5.05 -0.00153
5.1 -0.00009
5.15 0.00064
5.2 0.00072
5.25 0.00025
5.3 -0.00073
5.35 -0.00046
5.4 0.00022
5.45 0.00056
5.5 0.00121
5.55 0.00138
5.6 0.00181
5.65 0.00224
5.7 0.00305
5.75 0.0042
5.8 0.00558
5.85 0.00697
5.9 0.00673
5.95 0.00601
6 0.00458
6.05 0.00392
6.1 0.00395
6.15 0.00308
6.2 0.0023
6.25 0.00197
6.3 0.00141
6.35 0.00185
6.4 0.00282
6.45 0.004
6.5 0.00504
6.55 0.00502
6.6 0.00419
6.65 0.00335
6.7 0.00349
6.75 0.0025
6.8 0.00256
6.85 0.00178
6.9 0.00146
6.95 0.00063
7 0.00015
7.05 -0.00098
7.1 -0.00186
7.15 -0.00248
7.2 -0.0018
7.25 -0.00149
7.3 -0.00159
7.35 -0.00079
7.4 -0.0001
7.45 0.00092
7.5 0.00084
7.55 0.00084
7.6 0.0013
7.65 0.00127
7.7 0.00187
7.75 0.00256
7.8 0.00248
7.85 0.00195
7.9 0.00162
7.95 0.0015
8 0.00135
8.05 0.001
8.1 0.00059
8.15 0.00102
8.2 0.00099
8.25 0.00026
8.3 -0.00058
8.35 -0.00128
8.4 -0.00236
8.45 -0.00193
8.5 -0.00096
8.55 0.00038
8.6 0.00037
8.65 -0.00001
8.7 -0.00021
8.75 0.00039
8.8 0.00118
8.85 0.00161
8.9 0.00139
8.95 0.0017
9 0.00213
9.05 0.00288
9.1 0.00234
9.15 0.0013
9.2 -0.00031
9.25 -0.00132
9.3 -0.00129
9.35 -0.00057
9.4 0.00021
9.45 0.0002
9.5 -0.00034
9.55 -0.00104
9.6 -0.00117
9.65 -0.00042
9.7 -0.00041
9.75 0.00041
9.8 0.00168
9.85 0.00324
9.9 0.00473
9.95 0.00485
10 0.00499
10.05 0.00449
10.1 0.00401
10.15 0.0034
10.2 0.00277
10.25 0.00148
10.3 0.00039
10.35 -0.00115
10.4 -0.00125
10.45 -0.00056
10.5 0.00039
10.55 0.00016
10.6 0.00077
10.65 0.00106
10.7 0.00024
10.75 0.00028
10.8 0.00022
10.85 -0.00064
10.9 -0.00185
10.95 -0.00206
11 -0.00198
11.05 -0.00135
11.1 -0.00097
11.15 -0.00092
11.2 -0.00132
11.25 -0.00199
11.3 -0.00188
11.35 -0.00193
11.4 -0.00135
11.45 -0.00077
11.5 -0.00018
11.55 0.00107
11.6 0.0023
11.65 0.00312
11.7 0.00415
11.75 0.00382
11.8 0.00378
11.85 0.0037
11.9 0.00405
11.95 0.00342
12 0.00348
12.05 0.00375
12.1 0.00378
12.15 0.00414
12.2 0.00341
12.25 0.00274
12.3 0.00118
12.35 0.00002
12.4 -0.00041
12.45 -0.0004
12.5 -0.00124
12.55 -0.00191
12.6 -0.00149
12.65 -0.00074
12.7 -0.00022
12.75 -0.00037
12.8 0.00024
12.85 0.00091
12.9 0.0021
12.95 0.00305
13 0.00294
13.05 0.00187
13.1 0.00126
13.15 0.00121
13.2 0.00159
13.25 0.00139
13.3 0.00163
13.35 0.00153
13.4 0.0007
13.45 -0.00007
13.5 -0.00028
13.55 -0.00072
13.6 -0.00181
13.65 -0.00327
13.7 -0.00309
13.75 -0.00253
13.8 -0.0019
13.85 -0.00109
13.9 0.00028
13.95 0.00068
14 0.00044
14.05 0.00105
14.1 0.00052
14.15 0.00004
14.2 0.00008
14.25 -0.00013
14.3 0.0004
14.35 0.00044
14.4 -0.00043
14.45 -0.00072
14.5 -0.00098
14.55 -0.0018
14.6 -0.0029
14.65 -0.00362
14.7 -0.00345
14.75 -0.00272
14.8 -0.00131
14.85 -0.00123
14.9 -0.00063
14.95 0.00007
15 0.00101
15.05 0.00079
15.1 0.00007
15.15 -0.00012
15.2 -0.00007
15.25 0.00005
15.3 0.00048
15.35 0.00041
15.4 0.00036
15.45 0.00018
15.5 -0.00005
15.55 0.00022
15.6 -0.00048
15.65 -0.00061
15.7 -0.00057
15.75 -0.0001
15.8 -0.00019
15.85 -0.00016
15.9 -0.00012
15.95 -0.00011
16 -0.00024
16.05 0.00045
16.1 0.00121
16.15 0.00115
16.2 0.00124
16.25 0.00137
16.3 0.00051
16.35 0.00025
16.4 0.00009
16.45 -0.00093
16.5 -0.00238
16.55 -0.00317
16.6 -0.00404
16.65 -0.00477
16.7 -0.00457
16.75 -0.00396
16.8 -0.00414
16.85 -0.00474
16.9 -0.00412
16.95 -0.00318
17 -0.00293
17.05 -0.00286
17.1 -0.00287
17.15 -0.00252
17.2 -0.00197
17.25 -0.0016
17.3 -0.00074
17.35 0.00022
17.4 -0.00007
17.45 -0.00113
17.5 -0.0017
17.55 -0.00241
17.6 -0.00177
17.65 -0.00066
17.7 0.00097
17.75 0.00126
17.8 0.00046
17.85 0.00058
17.9 0.0012
17.95 0.00232
18 0.00291
18.05 0.00325
18.1 0.00252
18.15 0.0017
18.2 0.00134
18.25 0.00066
18.3 0.001
18.35 0.00167
18.4 0.00144
18.45 0.00053
18.5 -0.00011
18.55 -0.00031
18.6 -0.00006
18.65 -0.00028
18.7 0.00038
18.75 0.00085
18.8 0.00164
18.85 0.00145
18.9 0.00193
18.95 0.00196
19 0.00108
19.05 0.00002
19.1 -0.00012
19.15 0.00024
19.2 0.00098
19.25 0.00049
19.3 -0.00012
19.35 -0.00069
19.4 -0.00139
19.45 -0.00192
19.5 -0.00144
19.55 -0.00109
19.6 -0.00068
19.65 -0.00005
19.7 0.00057
19.75 0.0004
19.8 -0.00062
19.85 -0.00183
19.9 -0.00253
19.95 -0.00214
20 -0.00194
20.05 -0.00196
20.1 -0.00256
20.15 -0.00288
20.2 -0.00292
20.25 -0.00326
20.3 -0.00397
20.35 -0.00332
20.4 -0.00299
20.45 -0.00182
20.5 -0.00051
20.55 0.00103
20.6 0.00273
20.65 0.00387
20.7 0.00435
20.75 0.00349
20.8 0.00279
20.85 0.00171
20.9 0.00157
20.95 0.00164
21 0.00073
21.05 0.00033
21.1 -0.00012
21.15 0.00049
21.2 0.00114
21.25 0.00057
21.3 -0.00018
21.35 -0.00029
21.4 -0.00119
21.45 -0.0016
21.5 -0.00165
21.55 -0.0013
21.6 -0.00049
21.65 0.00072
21.7 0.00167
21.75 0.00224
21.8 0.00303
21.85 0.00412
21.9 0.00527
21.95 0.00589
22 0.005
22.05 0.0031
22.1 0.00081
22.15 0.00001
22.2 -0.00091
22.25 -0.00187
22.3 -0.003
22.35 -0.00265
22.4 -0.0014
22.45 -0.00012
22.5 0.00017
22.55 0.00017
22.6 0.00081
22.65 0.00033
22.7 -0.00001
22.75 -0.00109
22.8 -0.00227
22.85 -0.00258
22.9 -0.00279
22.95 -0.00238
23 -0.00176
23.05 -0.00058
23.1 0.00045
23.15 0.00086
23.2 0.00184
23.25 0.00147
23.3 0.00089
23.35 0.00116
23.4 0.00159
23.45 0.00165
23.5 0.00159
23.55 0.00133
23.6 0.00098
23.65 0.00123
23.7 0.00193
23.75 0.00192
23.8 0.00087
23.85 0.00036
23.9 -0.00083
23.95 -0.00082
24 -0.00075
24.05 0.00008
24.1 -0.00012
24.15 -0.00005
24.2 -0.00006
24.25 -0.00005
24.3 -0.00082
24.35 -0.00169
24.4 -0.00163
24.45 -0.00129
24.5 -0.00173
24.55 -0.00229
24.6 -0.00332
24.65 -0.00388
24.7 -0.00411
24.75 -0.00327
24.8 -0.00306
24.85 -0.00231
24.9 -0.00134
24.95 -0.00034
25 0.00104
25.05 0.00122
25.1 0.00033
25.15 -0.00051
25.2 -0.00075
25.25 -0.00067
25.3 -0.00074
25.35 -0.00061
25.4 0.00038
25.45 0.00074
25.5 0.00095
25.55 0.00105
25.6 0.00131
25.65 0.00206
25.7 0.00293
25.75 0.00289
25.8 0.00321
25.85 0.00354
25.9 0.00261
25.95 0.00101
26 0.00049
26.05 0.00069
26.1 0.00067
26.15 0.00043
26.2 0.00017
26.25 0.0001
26.3 -0.00055
26.35 -0.00069
26.4 -0.00146
26.45 -0.00113
26.5 -0.00164
26.55 -0.0015
26.6 -0.00208
26.65 -0.00237
26.7 -0.00234
26.75 -0.00257
26.8 -0.00234
26.85 -0.00258
26.9 -0.00244
26.95 -0.00186
27 -0.00211
27.05 -0.00286
27.1 -0.00274
27.15 -0.00187
27.2 -0.00205
27.25 -0.00202
27.3 -0.00121
27.35 -0.00041
27.4 0.00026
27.45 -0.00009
27.5 -0.00006
27.55 -0.00012
27.6 -0.0009
27.65 -0.00169
27.7 -0.00206
27.75 -0.00199
27.8 -0.00131
27.85 -0.00073
27.9 0.0002
27.95 0.00157
28 0.00268
28.05 0.00398
28.1 0.00492
28.15 0.00449
28.2 0.0044
28.25 0.00483
28.3 0.0044
28.35 0.00337
28.4 0.00236
28.45 0.00205
28.5 0.00186
28.55 0.00229
28.6 0.00264
28.65 0.00254
28.7 0.00275
28.75 0.002
28.8 0.00146
28.85 -0.00047
28.9 -0.00172
28.95 -0.00268
29 -0.00368
29.05 -0.00517
29.1 -0.00791
29.15 -0.01159
29.2 -0.01532
29.25 -0.01903
29.3 -0.02317
29.35 -0.02697
29.4 -0.03155
29.45 -0.03585
29.5 -0.04139
29.55 -0.04803
29.6 -0.0558
29.65 -0.06413
29.7 -0.0743
29.75 -0.08587
29.8 -0.09749
29.85 -0.11095
29.9 -0.12646
29.95 -0.14287
30 -0.15958
30.05 -0.17851
30.1 -0.19913
30.15 -0.22082
30.2 -0.24336
30.25 -0.26692
30.3 -0.29121
30.35 -0.31548
30.4 -0.34143
30.45 -0.36811
30.5 -0.39489
30.55 -0.42166
30.6 -0.44634
30.65 -0.47021
30.7 -0.49184
30.75 -0.51139
30.8 -0.52802
30.85 -0.5417
30.9 -0.5528
30.95 -0.56112
31 -0.56658
31.05 -0.56964
31.1 -0.56853
31.15 -0.56391
31.2 -0.55524
31.25 -0.54159
31.3 -0.52371
31.35 -0.50259
31.4 -0.47843
31.45 -0.45024
31.5 -0.41952
31.55 -0.38463
31.6 -0.34813
31.65 -0.30917
31.7 -0.26836
31.75 -0.22557
31.8 -0.18309
31.85 -0.13996
31.9 -0.09719
31.95 -0.05557
32 -0.01541
32.05 0.02333
32.1 0.06076
32.15 0.09769
32.2 0.13389
32.25 0.16808
32.3 0.20065
32.35 0.23074
32.4 0.2586
32.45 0.28429
32.5 0.30731
32.55 0.32837
32.6 0.34687
32.65 0.36324
32.7 0.37811
32.75 0.39211
32.8 0.40455
32.85 0.41613
32.9 0.42685
32.95 0.43632
33 0.44366
33.05 0.44899
33.1 0.45287
33.15 0.45632
33.2 0.45808
33.25 0.45976
33.3 0.46099
33.35 0.46205
33.4 0.46145
33.45 0.46024
33.5 0.45792
33.55 0.45549
33.6 0.45153
33.65 0.44719
33.7 0.44253
33.75 0.43722
33.8 0.43186
33.85 0.42485
33.9 0.4167
33.95 0.40844
34 0.39994
34.05 0.3912
34.1 0.38185
34.15 0.37285
34.2 0.36356
34.25 0.35402
34.3 0.34438
34.35 0.33392
34.4 0.32306
34.45 0.31168
34.5 0.30079
34.55 0.28941
34.6 0.27951
34.65 0.2704
34.7 0.26131
34.75 0.25214
34.8 0.24332
34.85 0.23392
34.9 0.2238
34.95 0.21461
35 0.20623
35.05 0.19828
35.1 0.19052
35.15 0.18219
35.2 0.1741
35.25 0.16633
35.3 0.15774
35.35 0.14941
35.4 0.14076
35.45 0.13286
35.5 0.12496
35.55 0.11617
35.6 0.10813
35.65 0.09987
35.7 0.09209
35.75 0.0844
35.8 0.07728
35.85 0.07146
35.9 0.06522
35.95 0.0583
36 0.05192
36.05 0.04614
36.1 0.04092
36.15 0.03532
36.2 0.03031
36.25 0.02451
36.3 0.01937
36.35 0.01494
36.4 0.00989
36.45 0.00508
36.5 0.00046
36.55 -0.00392
36.6 -0.00892
36.65 -0.01285
36.7 -0.01606
36.75 -0.01978
36.8 -0.02385
36.85 -0.02687
36.9 -0.03049
36.95 -0.03345
37 -0.03701
37.05 -0.04024
37.1 -0.04352
37.15 -0.04626
37.2 -0.04828
37.25 -0.04921
37.3 -0.05039
37.35 -0.05102
37.4 -0.05137
37.45 -0.05257
37.5 -0.05339
37.55 -0.05441
37.6 -0.05634
37.65 -0.05749
37.7 -0.05968
37.75 -0.06238
37.8 -0.06499
37.85 -0.06739
37.9 -0.0691
37.95 -0.06989
38 -0.07003
38.05 -0.07038
38.1 -0.07051
38.15 -0.06994
38.2 -0.0688
38.25 -0.06774
38.3 -0.0663
38.35 -0.06633
38.4 -0.06699
38.45 -0.06791
38.5 -0.06913
38.55 -0.07039
38.6 -0.06993
38.65 -0.06995
38.7 -0.07014
38.75 -0.06951
38.8 -0.06892
38.85 -0.06863
38.9 -0.06851
38.95 -0.06698
39 -0.06567
39.05 -0.06478
39.1 -0.06435
39.15 -0.06322
39.2 -0.06261
39.25 -0.06117
39.3 -0.06001
39.35 -0.05947
39.4 -0.05878
39.45 -0.0574
39.5 -0.0566
39.55 -0.05645
39.6 -0.05606
39.65 -0.0562
39.7 -0.05615
39.75 -0.05539
39.8 -0.05502
39.85 -0.05349
39.9 -0.05288
39.95 -0.05142
40 -0.05018
40.05 -0.04845
40.1 -0.04677
40.15 -0.04552
40.2 -0.0442
40.25 -0.04363
40.3 -0.04375
40.35 -0.04322
40.4 -0.04208
40.45 -0.04093
40.5 -0.03983
40.55 -0.03906
40.6 -0.03873
40.65 -0.03834
40.7 -0.03882
40.75 -0.03878
40.8 -0.038
40.85 -0.03784
40.9 -0.03821
40.95 -0.03882
41 -0.03955
41.05 -0.03892
41.1 -0.0373
41.15 -0.03608
41.2 -0.03418
41.25 -0.03363
41.3 -0.03367
41.35 -0.03397
41.4 -0.03409
41.45 -0.03319
41.5 -0.03175
41.55 -0.03081
41.6 -0.02958
41.65 -0.02815
41.7 -0.02703
41.75 -0.02693
41.8 -0.02614
41.85 -0.02621
41.9 -0.02651
41.95 -0.02644
42 -0.02637
42.05 -0.02646
42.1 -0.02559
42.15 -0.02545
42.2 -0.02587
42.25 -0.02593
42.3 -0.02548
42.35 -0.02472
42.4 -0.02435
42.45 -0.024
42.5 -0.02311
42.55 -0.02321
42.6 -0.02322
42.65 -0.02342
42.7 -0.0233
42.75 -0.02355
42.8 -0.02295
42.85 -0.02299
42.9 -0.02206
42.95 -0.02123
43 -0.02128
43.05 -0.02188
43.1 -0.02203
43.15 -0.02098
43.2 -0.01976
43.25 -0.01874
43.3 -0.017
43.35 -0.01566
43.4 -0.01565
43.45 -0.01648
43.5 -0.01627
43.55 -0.01565
43.6 -0.01535
43.65 -0.01491
43.7 -0.01545
43.75 -0.01578
43.8 -0.01537
43.85 -0.01505
43.9 -0.01525
43.95 -0.01459
44 -0.01467
44.05 -0.0143
44.1 -0.01322
44.15 -0.01218
44.2 -0.0121
44.25 -0.01118
44.3 -0.01117
44.35 -0.01055
44.4 -0.01002
44.45 -0.01013
44.5 -0.01099
44.55 -0.01064
44.6 -0.00981
44.65 -0.01008
44.7 -0.01027
44.75 -0.00988
44.8 -0.00954
44.85 -0.00916
44.9 -0.00811
44.95 -0.00824
45 -0.00779
45.05 -0.00732
45.1 -0.00779
45.15 -0.00901
45.2 -0.00975
45.25 -0.01045
45.3 -0.01147
45.35 -0.01269
45.4 -0.01397
45.45 -0.01419
45.5 -0.01304
45.55 -0.0115
45.6 -0.00995
45.65 -0.00849
45.7 -0.00773
45.75 -0.00679
45.8 -0.00639
45.85 -0.00705
45.9 -0.00798
45.95 -0.00763
46 -0.00724
46.05 -0.00692
46.1 -0.00712
46.15 -0.00768
46.2 -0.0074
46.25 -0.00666
46.3 -0.00668
46.35 -0.00627
46.4 -0.00634
46.45 -0.00615
46.5 -0.00613
46.55 -0.0068
46.6 -0.00681
46.65 -0.00675
46.7 -0.00649
46.75 -0.00558
46.8 -0.00452
46.85 -0.00451
46.9 -0.00464
46.95 -0.0039
47 -0.00268
47.05 -0.00272
47.1 -0.00288
47.15 -0.00279
47.2 -0.00376
47.25 -0.00368
47.3 -0.00363
47.35 -0.00343
47.4 -0.00356
47.45 -0.00286
47.5 -0.00256
47.55 -0.00289
47.6 -0.0025
47.65 -0.00333
47.7 -0.0037
47.75 -0.00339
47.8 -0.00333
47.85 -0.00255
47.9 -0.00226
47.95 -0.00156
48 -0.00173
48.05 -0.00252
48.1 -0.00246
48.15 -0.00201
48.2 -0.00256
48.25 -0.00377
48.3 -0.00438
48.35 -0.00424
48.4 -0.00334
48.45 -0.00223
48.5 -0.00124
48.55 -0.00131
48.6 -0.00078
48.65 -0.00047
48.7 -0.00127
48.75 -0.00257
48.8 -0.00361
48.85 -0.00378
48.9 -0.00475
48.95 -0.00609
49 -0.00736
49.05 -0.00781
49.1 -0.00821
49.15 -0.00743
49.2 -0.00595
49.25 -0.00465
49.3 -0.00347
49.35 -0.00307
49.4 -0.00232
49.45 -0.00227
49.5 -0.00196
49.55 -0.00169
49.6 -0.00162
49.65 -0.00174
49.7 -0.00123
49.75 -0.00179
49.8 -0.00291
49.85 -0.00283
49.9 -0.00342
49.95 -0.00443
50 -0.00577
50.05 -0.00573
50.1 -0.00528
50.15 -0.00526
50.2 -0.00437
50.25 -0.00367
50.3 -0.00307
50.35 -0.00256
50.4 -0.00226
50.45 -0.00146
50.5 -0.00124
50.55 -0.00196
50.6 -0.00197
50.65 -0.00224
50.7 -0.00287
50.75 -0.00288
50.8 -0.00342
50.85 -0.00286
50.9 -0.00186
50.95 -0.00075
51 0.00033
51.05 0.00129
51.1 0.00164
51.15 0.00241
51.2 0.0026
51.25 0.0024
51.3 0.0017
51.35 0.0017
51.4 0.00227
51.45 0.00244
51.5 0.00207
51.55 0.0015
51.6 0.00061
51.65 -0.0003
51.7 -0.00118
51.75 -0.00239
51.8 -0.00278
51.85 -0.00261
51.9 -0.002
51.95 -0.00135
52 -0.00048
52.05 0.00049
52.1 0.00074
52.15 0.0008
52.2 0.00043
52.25 -0.00019
52.3 -0.00014
52.35 -0.00077
52.4 -0.0019
52.45 -0.00322
52.5 -0.00403
52.55 -0.00473
52.6 -0.00438
52.65 -0.00353
52.7 -0.00207
52.75 -0.00188
52.8 -0.0011
52.85 -0.00084
52.9 -0.00055
52.95 -0.00052
53 -0.00145
53.05 -0.00178
53.1 -0.00169
53.15 -0.0011
53.2 -0.00103
53.25 -0.00055
53.3 -0.00034
53.35 -0.00114
53.4 -0.002
53.45 -0.0028
53.5 -0.00287
53.55 -0.00265
53.6 -0.00321
53.65 -0.00338
53.7 -0.00333
53.75 -0.00259
53.8 -0.00219
53.85 -0.00243
53.9 -0.00185
53.95 -0.00105
54 0.00035
54.05 0.00126
54.1 0.00102
54.15 0.00006
54.2 0.00022
54.25 -0.00043
54.3 -0.00053
54.35 -0.00129
54.4 -0.00196
54.45 -0.00272
54.5 -0.00222
54.55 -0.00237
54.6 -0.00303
54.65 -0.00291
54.7 -0.00294
54.75 -0.00361
54.8 -0.00424
54.85 -0.00474
54.9 -0.00518
54.95 -0.00542
55 -0.00529
55.05 -0.00512
55.1 -0.00547
55.15 -0.00548
55.2 -0.00575
55.25 -0.0062
55.3 -0.00664
55.35 -0.00714
55.4 -0.00688
55.45 -0.0063
55.5 -0.00471
55.55 -0.00253
55.6 -0.00159
55.65 -0.00044
55.7 0.00091
55.75 0.00159
55.8 0.00231
55.85 0.00341
55.9 0.00445
55.95 0.00411
56 0.00306
56.05 0.00228
56.1 0.00125
56.15 0.00022
56.2 -0.00002
56.25 -0.00001
56.3 0.00002
56.35 0.00087
56.4 0.00104
56.45 0.001
56.5 0.00142
56.55 0.00138
56.6 0.0019
56.65 0.0022
56.7 0.00229
56.75 0.00188
56.8 0.00122
56.85 0.00057
56.9 0.00081
56.95 0.00168
57 0.00185
57.05 0.00256
57.1 0.00333
57.15 0.00282
57.2 0.00305
57.25 0.00324
57.3 0.00344
57.35 0.00407
57.4 0.00431
57.45 0.00465
57.5 0.00434
57.55 0.00376
57.6 0.00349
57.65 0.00367
57.7 0.0033
57.75 0.00291
57.8 0.00158
57.85 0.00133
57.9 0.00124
57.95 0.00091
58 -0.00003
58.05 -0.00036
58.1 -0.00011
58.15 -0.00076
58.2 -0.00192
58.25 -0.00295
58.3 -0.00337
58.35 -0.00363
58.4 -0.00353
58.45 -0.00411
58.5 -0.00413
58.55 -0.00386
58.6 -0.00315
58.65 -0.00177
58.7 -0.00056
58.75 -0.00013
58.8 0.00085
58.85 0.00176
58.9 0.00144
58.95 0.00101
59 0.00096
59.05 0.00023
59.1 0.00048
59.15 0.00018
59.2 0.00074
59.25 0.0011
59.3 0.00188
59.35 0.00142
59.4 0.00115
59.45 0.0017
59.5 0.00136
59.55 0.00095
59.6 0.00033
59.65 -0.00016
59.7 -0.00064
59.75 -0.00117
59.8 -0.00062
59.85 -0.00015
59.9 0.00014
59.95 0.00059
60 0.00058
60.05 0.00109
60.1 0.00092
60.15 0.00141
60.2 0.00207
60.25 0.00148
60.3 0.00083
60.35 0.00067
60.4 0.00074
60.45 0.00148
60.5 0.00232
60.55 0.00326
60.6 0.00382
60.65 0.00337
60.7 0.00218
60.75 0.00081
60.8 0.00043
60.85 -0.00068
60.9 -0.00081
60.95 -0.00093
61 -0.00072
61.05 -0.00061
61.1 -0.00093
61.15 -0.00168
61.2 -0.00246
61.25 -0.00216
61.3 -0.00118
61.35 -0.00087
61.4 -0.00016
61.45 -0.00025
61.5 -0.00083
61.55 -0.00099
61.6 -0.00158
61.65 -0.00155
61.7 -0.00114
61.75 -0.00131
61.8 -0.00132
61.85 -0.00115
61.9 -0.00056
61.95 -0.00026
62 0.00004
62.05 0.00015
62.1 -0.00052
62.15 -0.00183
62.2 -0.00218
62.25 -0.00187
62.3 -0.00185
62.35 -0.00124
62.4 -0.00096
62.45 -0.00146
62.5 -0.00181
62.55 -0.00185
62.6 -0.0018
62.65 -0.00233
62.7 -0.00264
62.75 -0.00313
62.8 -0.00373
62.85 -0.00456
62.9 -0.0044
62.95 -0.00406
63 -0.00354
63.05 -0.0022
63.1 -0.00058
63.15 0.00125
63.2 0.00311
63.25 0.00414
63.3 0.00374
63.35 0.00331
63.4 0.00251
63.45 0.00213
63.5 0.00245
63.55 0.00261
63.6 0.0024
63.65 0.00235
63.7 0.00134
63.75 0.00047
63.8 -0.00073
63.85 -0.00195
63.9 -0.00268
63.95 -0.00377
64 -0.00414
64.05 -0.00411
64.1 -0.00415
64.15 -0.0035
64.2 -0.00309
64.25 -0.00192
64.3 -0.00048
64.35 0.00013
64.4 0.00086
64.45 0.00126
64.5 0.00168
64.55 0.00116
64.6 0.0002
64.65 -0.00077
64.7 -0.0016
64.75 -0.00274
64.8 -0.00239
64.85 -0.00192
64.9 -0.00195
64.95 -0.00223
65 -0.00224
65.05 -0.00275
65.1 -0.00356
65.15 -0.00415
65.2 -0.00409
65.25 -0.0033
65.3 -0.00193
65.35 -0.00062
65.4 0.00103
65.45 0.00202
65.5 0.00286
65.55 0.00348
65.6 0.00323
65.65 0.00306
65.7 0.00207
65.75 0.00053
65.8 -0.00129
65.85 -0.00162
65.9 -0.00136
65.95 -0.00167
66 -0.00225
66.05 -0.00184
66.1 -0.0006
66.15 0.0003
66.2 0.00003
66.25 0.00069
66.3 0.00093
66.35 0.0002
66.4 -0.0011
66.45 -0.00169
66.5 -0.00243
66.55 -0.00268
66.6 -0.00216
66.65 -0.00212
66.7 -0.00267
66.75 -0.00314
66.8 -0.00287
66.85 -0.00261
66.9 -0.00255
66.95 -0.00266
67 -0.00243
67.05 -0.00205
67.1 -0.00131
67.15 -0.00035
67.2 0.00062
67.25 0.00077
67.3 0.00168
67.35 0.00256
67.4 0.00317
67.45 0.00334
67.5 0.00236
67.55 0.00165
67.6 0.00177
67.65 0.00165
67.7 0.00117
67.75 0.00045
67.8 -0.00085
67.85 -0.00094
67.9 -0.00135
67.95 -0.00227
68 -0.00281
68.05 -0.00209
68.1 -0.00171
68.15 -0.00187
68.2 -0.0026
68.25 -0.00221
68.3 -0.0014
68.35 -0.0004
68.4 0.00092
68.45 0.00115
68.5 0.00076
68.55 0.00135
68.6 0.00082
68.65 0.00101
68.7 0.00192
68.75 0.00165
68.8 0.00061
68.85 -0.00094
68.9 -0.0025
68.95 -0.00252
69 -0.00274
69.05 -0.00267
69.1 -0.00249
69.15 -0.00197
69.2 -0.00097
69.25 -0.00065
69.3 0.00013
69.35 0.00011
69.4 0.00006
69.45 0.00035
69.5 0.00113
69.55 0.00222
69.6 0.00237
69.65 0.00251
69.7 0.00326
69.75 0.00429
69.8 0.00536
69.85 0.00651
69.9 0.00635
69.95 0.00636
70 0.00666
70.05 0.00633
70.1 0.00517
70.15 0.00326
70.2 0.00239
70.25 0.00159
70.3 0.00017
70.35 -0.0003
70.4 -0.00035
70.45 0.00022
70.5 0.0013
70.55 0.00259
70.6 0.0031
70.65 0.00308
70.7 0.00225
70.75 0.00141
70.8 -0.0001
70.85 -0.00129
70.9 -0.00256
70.95 -0.00361
71 -0.00435
71.05 -0.0036
71.1 -0.00311
71.15 -0.00322
71.2 -0.0031
71.25 -0.00191
71.3 -0.00092
71.35 -0.00026
71.4 -0.00019
71.45 -0.00057
71.5 -0.00061
71.55 -0.00024
71.6 0.00039
71.65 0.00054
71.7 0.00048
71.75 0.00115
71.8 0.00199
71.85 0.00306
71.9 0.00333
71.95 0.00291
72 0.00213
72.05 0.00082
72.1 -0.00036
72.15 -0.00195
72.2 -0.00252
72.25 -0.00185
72.3 -0.00059
72.35 -0.00035
72.4 0.0003
72.45 0.00079
72.5 0.0012
72.55 0.0019
72.6 0.00148
72.65 0.00024
72.7 -0.00136
72.75 -0.00297
72.8 -0.00409
72.85 -0.00367
72.9 -0.00386
72.95 -0.00427
73 -0.0039
73.05 -0.00246
73.1 -0.00124
73.15 -0.00105
73.2 -0.0001
73.25 -0.00026
73.3 0.00025
73.35 -0.00033
73.4 -0.00057
73.45 -0.00158
73.5 -0.00166
73.55 -0.00137
73.6 -0.00067
73.65 -0.00003
73.7 -0.00032
73.75 -0.00028
73.8 0.00018
73.85 -0.00017
73.9 0.00016
73.95 0.00074
74 0.00128
74.05 0.00142
74.1 0.00126
74.15 0.00075
74.2 0.00111
74.25 0.00102
74.3 0.00015
74.35 -0.00037
74.4 -0
74.45 -0.0006
74.5 -0.00054
74.55 -0.00001
74.6 -0.00003
74.65 0.00083
74.7 0.00191
74.75 0.00284
74.8 0.0039
74.85 0.00377
74.9 0.00331
74.95 0.0033
75 0.00264
75.05 0.00238
75.1 0.00213
75.15 0.00088
75.2 -0.00017
75.25 -0.00047
75.3 -0.00029
75.35 0
75.4 -0.00073
75.45 -0.00177
75.5 -0.00142
75.55 -0.00149
75.6 -0.00225
75.65 -0.00294
75.7 -0.00241
75.75 -0.00147
75.8 -0.00082
75.85 -0.00125
75.9 -0.00107
75.95 -0.0005
76 -0.00054
76.05 0.00034
76.1 0.001
76.15 0.00136
76.2 0.00226
76.25 0.00251
76.3 0.0019
76.35 0.00192
76.4 0.0014
76.45 0.00049
76.5 0.00009
76.55 0
76.6 0.0001
76.65 0.0006
76.7 0.00046
76.75 0.00019
76.8 -0.00013
76.85 -0.00064
76.9 -0.00155
76.95 -0.00248
77 -0.00283
77.05 -0.00233
77.1 -0.00201
77.15 -0.0024
77.2 -0.00224
77.25 -0.00122
77.3 -0.00114
77.35 -0.0003
77.4 0.00095
77.45 0.00214
77.5 0.00318
77.55 0.00282
77.6 0.00222
77.65 0.00151
77.7 0.0017
77.75 0.00192
77.8 0.0019
77.85 0.00094
77.9 -0.00005
77.95 -0.0005
78 -0.00155
78.05 -0.00177
78.1 -0.0024
78.15 -0.00252
78.2 -0.0024
78.25 -0.00216
78.3 -0.00273
78.35 -0.00335
78.4 -0.00363
78.45 -0.00313
78.5 -0.00233
78.55 -0.0008
78.6 0.00013
78.65 -0.00014
78.7 -0.00075
78.75 -0.00197
78.8 -0.00231
78.85 -0.00164
78.9 -0.00035
78.95 0.00029
79 0.00033
79.05 0.00105
79.1 0.00142
79.15 0.00209
79.2 0.00148
79.25 0.00172
79.3 0.00188
79.35 0.00207
79.4 0.00164
79.45 0.00127
79.5 0.00166
79.55 0.00214
79.6 0.0024
79.65 0.00175
79.7 0.0006
79.75 -0.00083
79.8 -0.00083
79.85 -0.00137
79.9 -0.00251
79.95 -0.00296
80 -0.00384
80.05 -0.00461
80.1 -0.00487
80.15 -0.00444
80.2 -0.00346
80.25 -0.00293
80.3 -0.00201
80.35 -0.00078
80.4 -0.00078
80.45 -0.00002
80.5 -0.00015
80.55 -0.00019
80.6 0.00057
80.65 0.00154
80.7 0.0019
80.75 0.00216
80.8 0.00222
80.85 0.00141
80.9 0.00063
80.95 -0.00034
81 -0.00153
81.05 -0.00132
81.1 -0.00055
81.15 0.00058
81.2 0.00083
81.25 0.00072
81.3 -0.00017
81.35 -0.00021
81.4 -0.00015
81.45 -0.00027
81.5 -0.00063
81.55 -0.00031
81.6 0.00077
81.65 0.00085
81.7 0.00036
81.75 0.00063
81.8 -0.00013
81.85 -0.0006
81.9 -0.00052
81.95 -0.00078
82 -0.00116
82.05 -0.00145
82.1 -0.0015
82.15 -0.00142
82.2 -0.00167
82.25 -0.00226
82.3 -0.00233
82.35 -0.00306
82.4 -0.00275
82.45 -0.00252
82.5 -0.00242
82.55 -0.00207
82.6 -0.00211
82.65 -0.00282
82.7 -0.00281
82.75 -0.00205
82.8 -0.00187
82.85 -0.00168
82.9 -0.00117
82.95 -0.00037
83 -0.00053
83.05 0.00014
83.1 0.00073
83.15 0.00098
83.2 0.0017
83.25 0.00139
83.3 0.00152
83.35 0.00222
83.4 0.0018
83.45 0.00189
83.5 0.00133
83.55 0.00064
83.6 -0.00032
83.65 -0.00029
83.7 0.00067
83.75 0.00047
83.8 0.00069
83.85 0.00066
83.9 0.00128
83.95 0.00208
84 0.00242
84.05 0.00218
84.1 0.00168
84.15 0.00051
84.2 0.00005
84.25 0.00047
84.3 0.00077
84.35 0.00114
84.4 0.00081
84.45 0.00025
84.5 -0.00024
84.55 -0.0014
84.6 -0.00266
84.65 -0.00365
84.7 -0.00476
84.75 -0.00562
84.8 -0.00568
84.85 -0.00445
84.9 -0.00391
84.95 -0.00325
85 -0.0033
85.05 -0.00379
85.1 -0.00337
85.15 -0.00317
85.2 -0.00185
85.25 -0.00119
85.3 -0.00106
85.35 -0.00138
85.4 -0.00195
85.45 -0.0028
85.5 -0.00381
85.55 -0.00405
85.6 -0.00409
85.65 -0.00439
85.7 -0.00488
85.75 -0.00416
85.8 -0.00289
85.85 -0.0011
85.9 -0.00011
85.95 0.00031
86 -0.00008
86.05 0.00043
86.1 0.00117
86.15 0.00118
86.2 0.00053
86.25 0.00017
86.3 -0.00074
86.35 -0.002
86.4 -0.00226
86.45 -0.00202
86.5 -0.00174
86.55 -0.00051
86.6 -0.0002
86.65 -0.00031
86.7 -0.00021
86.75 -0.00061
86.8 -0.00085
86.85 -0.00105
86.9 -0.00056
86.95 -0.00098
87 -0.00136
87.05 -0.00076
87.1 -0.00026
87.15 0.00028
87.2 0.00157
87.25 0.00197
87.3 0.00134
87.35 0.00073
87.4 -0.00043
87.45 -0.00056
87.5 -0.00045
87.55 -0.00074
87.6 0.00002
87.65 0.00071
87.7 0.00032
87.75 0.0007
87.8 0.00027
87.85 -0.00051
87.9 -0.00078
87.95 0.00008
88 0.00086
88.05 0.00225
88.1 0.00279
88.15 0.00353
88.2 0.00408
88.25 0.00408
88.3 0.003
88.35 0.00165
88.4 0.00154
88.45 0.00183
88.5 0.00149
88.55 0.00068
88.6 0.00029
88.65 -0.00014
88.7 -0.00071
88.75 -0.00143
88.8 -0.00156
88.85 -0.00125
88.9 -0.00017
88.95 0.00102
89 0.00159
89.05 0.00275
89.1 0.00261
89.15 0.00186
89.2 0.00043
89.25 -0.00118
89.3 -0.00173
89.35 -0.00106
89.4 -0.00036
89.45 -0.00026
89.5 0.0005
89.55 0.00143
89.6 0.00145
89.65 0.00077
89.7 -0.00025
89.75 -0.0011
89.8 -0.00212
89.85 -0.00277
89.9 -0.0024
89.95 -0.00226
90 -0.00103
90.05 0.00063
90.1 0.00244
90.15 0.00324
90.2 0.00398
90.25 0.00494
90.3 0.00443
90.35 0.0032
90.4 0.00205
90.45 0.00145
90.5 0.00076
90.55 -0.00047
90.6 -0.00147
90.65 -0.00176
90.7 -0.00232
90.75 -0.00175
90.8 -0.00065
90.85 0.00058
90.9 0.00053
90.95 0.00122
91 0.00186
91.05 0.00144
91.1 0.00176
91.15 0.00239
91.2 0.0025
91.25 0.00233
91.3 0.00155
91.35 0.00114
91.4 0.00156
91.45 0.00129
91.5 0.00134
91.55 0.00183
91.6 0.00204
91.65 0.00225
91.7 0.00133
91.75 0.0015
91.8 0.00215
91.85 0.00287
91.9 0.00297
91.95 0.00196
92 0.00175
92.05 0.00197
92.1 0.00227
92.15 0.00238
92.2 0.00182
92.25 0.00182
92.3 0.00079
92.35 0.00092
92.4 0.00005
92.45 -0.00093
92.5 -0.00199
92.55 -0.003
92.6 -0.00348
92.65 -0.00328
92.7 -0.00305
92.75 -0.0023
92.8 -0.00149
92.85 -0.00112
92.9 0.00005
92.95 0.00094
93 0.00175
93.05 0.00277
93.1 0.00388
93.15 0.00478
93.2 0.00576
93.25 0.00531
93.3 0.00453
93.35 0.00287
93.4 0.00086
93.45 -0.00137
93.5 -0.00182
93.55 -0.00221
93.6 -0.00248
93.65 -0.00257
93.7 -0.00306
93.75 -0.00379
93.8 -0.00317
93.85 -0.00269
93.9 -0.00242
93.95 -0.00266
94 -0.00293
94.05 -0.00211
94.1 -0.00217
94.15 -0.00213
94.2 -0.0014
94.25 -0.00045
94.3 0.00063
94.35 0.00136
94.4 0.00134
94.45 0.00055
94.5 -0.00037
94.55 -0.00063
94.6 -0.0007
94.65 -0.00038
94.7 0.00012
94.75 0.00003
94.8 -0.00041
94.85 -0.00136
94.9 -0.00207
94.95 -0.00167
95 -0.00204
95.05 -0.00152
95.1 -0.00087
95.15 0.00022
95.2 0.0006
95.25 0.00103
95.3 0.00045
95.35 0.00012
95.4 0.00052
95.45 0.00156
95.5 0.00288
95.55 0.00431
95.6 0.00545
95.65 0.00609
95.7 0.00568
95.75 0.0057
95.8 0.00597
95.85 0.00647
95.9 0.00609
95.95 0.00596
96 0.00536
96.05 0.00379
96.1 0.0032
96.15 0.00208
96.2 0.00037
96.25 -0.00091
96.3 -0.00196
96.35 -0.0019
96.4 -0.00201
96.45 -0.00275
96.5 -0.00271
96.55 -0.00168
96.6 -0.00136
96.65 -0.00104
96.7 -0.00022
96.75 0.00029
96.8 -0.00015
96.85 -0.00032
96.9 0.00012
96.95 0.00058
97 0.0001
97.05 0.00003
97.1 -0.00058
97.15 -0.00185
97.2 -0.00292
97.25 -0.00418
97.3 -0.00552
97.35 -0.00678
97.4 -0.00643
97.45 -0.0052
97.5 -0.00409
97.55 -0.00294
97.6 -0.00138
97.65 -0.00112
97.7 -0.00127
97.75 -0.00054
97.8 -0.00085
97.85 -0.00183
97.9 -0.00301
97.95 -0.00344
98 -0.00325
98.05 -0.00347
98.1 -0.00342
98.15 -0.00345
98.2 -0.00235
98.25 -0.00148
98.3 -0.00053
98.35 0.00055
98.4 0.00126
98.45 0.0023
98.5 0.00236
98.55 0.00144
98.6 0.00107
98.65 0.00161
98.7 0.00182
98.75 0.00183
98.8 0.00118
98.85 0.00074
98.9 -0.00011
98.95 -0.00064
99 -0.00085
99.05 -0.00126
99.1 -0.00136
99.15 -0.00175
99.2 -0.00104
99.25 -0.00036
99.3 -0.00024
99.35 -0.00061
99.4 -0.00023
99.45 -0.0003
99.5 -0.00088
99.55 -0.00043
99.6 0.00025
99.65 0.00005
99.7 0.00077
99.75 0.00032
99.8 -0.00076
99.85 -0.00115
99.9 -0.00146
99.95 -0.00102
