0 0
0.05 0.00597
0.1 0.01741
0.15 0.032
0.2 0.04343
0.25 0.0553
0.3 0.05897
0.35 0.06508
0.4 0.07179
0.45 0.07144
0.5 0.06752
0.55 0.06381
0.6 0.05704
0.65 0.05271
0.7 0.04949
0.75 0.04914
0.8 0.0531
0.85 0.05573
0.9 0.05189
0.95 0.04837
1 0.04336
1.05 0.04405
1.1 0.04564
1.15 0.04342
1.2 0.0384
1.25 0.03792
1.3 0.04042
1.35 0.04136
1.4 0.03901
1.45 0.03393
1.5 0.03012
1.55 0.02908
1.6 0.02816
1.65 0.03048
1.7 0.03613
1.75 0.0386
1.8 0.03746
1.85 0.03844
1.9 0.04179
1.95 0.04065
2 0.04179
2.05 0.04393
2.1 0.04763
2.15 0.05021
2.2 0.05237
2.25 0.0486
2.3 0.04345
2.35 0.04186
2.4 0.03987
2.45 0.03453
2.5 0.02932
2.55 0.02709
2.6 0.02324
2.65 0.02529
2.7 0.0219
2.75 0.02395
2.8 0.02272
2.85 0.0258
2.9 0.02509
2.95 0.0226
3 0.02192
3.05 0.02564
3.1 0.02932
3.15 0.03101
3.2 0.03297
3.25 0.0284
3.3 0.02377
3.35 0.02143
3.4 0.01528
3.45 0.00714
3.5 -0.00145
3.55 -0.0068
3.6 -0.00961
3.65 -0.01257
3.7 -0.01382
3.75 -0.00783
3.8 -0.00234
3.85 0.00418
3.9 0.01223
3.95 0.0195
4 0.02561
4.05 0.02705
4.1 0.02344
4.15 0.02039
4.2 0.01507
4.25 0.00607
4.3 0.00126
4.35 -0.00135
4.4 -0.00774
4.45 -0.01143
4.5 -0.0209
4.55 -0.03426
4.6 -0.0492
4.65 -0.06573
4.7 -0.08172
4.75 -0.09724
4.8 -0.12071
4.85 -0.14857
4.9 -0.177
4.95 -0.20824
5 -0.24514
5.05 -0.28738
5.1 -0.33989
5.15 -0.39624
5.2 -0.45999
5.25 -0.52978
5.3 -0.60837
5.35 -0.69074
5.4 -0.77989
5.45 -0.87004
5.5 -0.96194
5.55 -1.05229
5.6 -1.14484
5.65 -1.24077
5.7 -1.34016
5.75 -1.43619
5.8 -1.52831
5.85 -1.61676
5.9 -1.7046
5.95 -1.78775
6 -1.86854
6.05 -1.95052
6.1 -2.02666
6.15 -2.10046
6.2 -2.17065
6.25 -2.23319
6.3 -2.28989
6.35 -2.34319
6.4 -2.39266
6.45 -2.42812
6.5 -2.45575
6.55 -2.47031
6.6 -2.48061
6.65 -2.47915
6.7 -2.47075
6.75 -2.44711
6.8 -2.40824
6.85 -2.3513
6.9 -2.27552
6.95 -2.18547
7 -2.08137
7.05 -1.96403
7.1 -1.83544
7.15 -1.69095
7.2 -1.53097
7.25 -1.3582
7.3 -1.17235
7.35 -0.97882
7.4 -0.78157
7.45 -0.57731
7.5 -0.36885
7.55 -0.16125
7.6 0.04435
7.65 0.24556
7.7 0.43606
7.75 0.61533
7.8 0.78477
7.85 0.94575
7.9 1.10123
7.95 1.24615
8 1.38362
8.05 1.5114
8.1 1.62476
8.15 1.72444
8.2 1.81726
8.25 1.89356
8.3 1.95954
8.35 2.01728
8.4 2.06697
8.45 2.10543
8.5 2.13831
8.55 2.16047
8.6 2.17114
8.65 2.17693
8.7 2.17745
8.75 2.17988
8.8 2.17997
8.85 2.1755
8.9 2.16905
8.95 2.16319
9 2.15376
9.05 2.1433
9.1 2.12471
9.15 2.10179
9.2 2.07631
9.25 2.05241
9.3 2.02843
9.35 2.00985
9.4 1.98911
9.45 1.96356
9.5 1.94325
9.55 1.91867
9.6 1.8969
9.65 1.87246
9.7 1.84293
9.75 1.81589
9.8 1.7853
9.85 1.75981
9.9 1.72863
9.95 1.6956
10 1.66267
10.05 1.63283
10.1 1.601
10.15 1.56611
10.2 1.52468
10.25 1.47986
10.3 1.4371
10.35 1.39555
10.4 1.35392
10.45 1.31501
10.5 1.27222
10.55 1.23229
10.6 1.18684
10.65 1.13957
10.7 1.09557
10.75 1.04913
10.8 0.9998
10.85 0.94812
10.9 0.89866
10.95 0.8546
11 0.80744
11.05 0.76452
11.1 0.72412
11.15 0.68025
11.2 0.63505
11.25 0.59341
11.3 0.54939
11.35 0.5034
11.4 0.46323
11.45 0.42275
11.5 0.38187
11.55 0.34305
11.6 0.30193
11.65 0.26006
11.7 0.22314
11.75 0.18903
11.8 0.1536
11.85 0.12161
11.9 0.08764
11.95 0.05976
12 0.02974
12.05 0.00008
12.1 -0.02663
12.15 -0.05033
12.2 -0.07714
12.25 -0.09855
12.3 -0.12328
12.35 -0.14289
12.4 -0.16151
12.45 -0.18036
12.5 -0.19866
12.55 -0.21821
12.6 -0.23602
12.65 -0.24844
12.7 -0.26373
12.75 -0.27235
12.8 -0.28066
12.85 -0.28658
12.9 -0.29804
12.95 -0.31134
13 -0.3189
13.05 -0.32932
13.1 -0.3332
13.15 -0.33355
13.2 -0.33764
13.25 -0.33921
13.3 -0.34647
13.35 -0.35144
13.4 -0.35734
13.45 -0.36298
13.5 -0.36265
13.55 -0.36131
13.6 -0.35668
13.65 -0.35396
13.7 -0.35588
13.75 -0.35735
13.8 -0.35706
13.85 -0.35486
13.9 -0.3563
13.95 -0.35793
14 -0.35567
14.05 -0.35289
14.1 -0.35469
14.15 -0.35091
14.2 -0.3498
14.25 -0.35095
14.3 -0.3548
14.35 -0.35678
14.4 -0.35943
14.45 -0.36218
14.5 -0.36236
14.55 -0.36153
14.6 -0.35835
14.65 -0.34928
14.7 -0.34275
14.75 -0.33428
14.8 -0.32697
14.85 -0.31979
14.9 -0.31374
14.95 -0.30947
15 -0.30028
15.05 -0.29534
15.1 -0.29364
15.15 -0.28743
15.2 -0.2827
15.25 -0.2752
15.3 -0.27114
15.35 -0.2715
15.4 -0.27204
15.45 -0.27245
15.5 -0.26969
15.55 -0.26272
15.6 -0.25895
15.65 -0.25178
15.7 -0.24478
15.75 -0.24315
15.8 -0.23795
15.85 -0.23186
15.9 -0.22308
15.95 -0.21859
16 -0.21237
16.05 -0.21214
16.1 -0.21239
16.15 -0.2085
16.2 -0.20373
16.25 -0.20249
16.3 -0.1995
16.35 -0.19258
16.4 -0.18442
16.45 -0.17691
16.5 -0.17454
16.55 -0.16897
16.6 -0.16592
16.65 -0.16742
16.7 -0.17049
16.75 -0.17065
16.8 -0.1725
16.85 -0.16866
16.9 -0.16403
16.95 -0.1602
17 -0.15477
17.05 -0.15496
17.1 -0.1504
17.15 -0.14829
17.2 -0.14783
17.25 -0.14476
17.3 -0.14195
17.35 -0.13994
17.4 -0.14219
17.45 -0.14014
17.5 -0.14048
17.55 -0.13707
17.6 -0.13577
17.65 -0.12977
17.7 -0.12281
17.75 -0.12284
17.8 -0.1258
17.85 -0.12363
17.9 -0.12578
17.95 -0.12251
18 -0.11698
18.05 -0.11098
18.1 -0.10431
18.15 -0.10104
18.2 -0.10036
18.25 -0.10476
18.3 -0.11103
18.35 -0.11133
18.4 -0.11475
18.45 -0.1154
18.5 -0.11179
18.55 -0.10694
18.6 -0.10148
18.65 -0.10018
18.7 -0.0978
18.75 -0.09953
18.8 -0.10183
18.85 -0.10161
18.9 -0.09763
18.95 -0.09858
19 -0.09781
19.05 -0.09786
19.1 -0.10055
19.15 -0.10243
19.2 -0.10444
19.25 -0.10685
19.3 -0.10109
19.35 -0.09749
19.4 -0.09448
19.45 -0.09045
19.5 -0.08552
19.55 -0.07696
19.6 -0.06768
19.65 -0.06002
19.7 -0.05656
19.75 -0.0545
19.8 -0.05043
19.85 -0.04577
19.9 -0.04185
19.95 -0.0387
20 -0.03506
20.05 -0.03223
20.1 -0.03477
20.15 -0.04105
20.2 -0.04371
20.25 -0.04935
20.3 -0.05725
20.35 -0.05803
20.4 -0.05608
20.45 -0.0509
20.5 -0.04657
20.55 -0.04517
20.6 -0.04862
20.65 -0.05163
20.7 -0.05012
20.75 -0.05341
20.8 -0.05497
20.85 -0.05995
20.9 -0.06402
20.95 -0.06199
21 -0.05637
21.05 -0.0492
21.1 -0.04684
21.15 -0.04693
21.2 -0.04765
21.25 -0.05077
21.3 -0.0558
21.35 -0.05772
21.4 -0.05735
21.45 -0.05259
21.5 -0.04623
21.55 -0.03758
21.6 -0.03533
21.65 -0.03093
21.7 -0.02558
21.75 -0.02157
21.8 -0.01958
21.85 -0.01541
21.9 -0.01802
21.95 -0.02099
22 -0.02072
22.05 -0.02197
22.1 -0.02311
22.15 -0.02019
22.2 -0.0215
22.25 -0.01961
22.3 -0.01615
22.35 -0.01591
22.4 -0.01359
22.45 -0.01374
22.5 -0.0154
22.55 -0.02078
22.6 -0.02737
22.65 -0.02958
22.7 -0.03184
22.75 -0.03618
22.8 -0.03533
22.85 -0.03025
22.9 -0.02671
22.95 -0.02253
23 -0.02081
23.05 -0.01991
23.1 -0.01849
23.15 -0.01691
23.2 -0.01221
23.25 -0.01278
23.3 -0.01602
23.35 -0.01825
23.4 -0.02354
23.45 -0.02676
23.5 -0.03252
23.55 -0.03749
23.6 -0.03992
23.65 -0.04434
23.7 -0.04598
23.75 -0.04205
23.8 -0.0382
23.85 -0.03522
23.9 -0.02785
23.95 -0.02556
24 -0.02802
24.05 -0.02611
24.1 -0.02265
24.15 -0.01753
24.2 -0.01661
24.25 -0.01836
24.3 -0.0222
24.35 -0.02328
24.4 -0.02418
24.45 -0.02143
24.5 -0.01493
24.55 -0.00721
24.6 -0.00201
24.65 -0.00308
24.7 -0.00168
24.75 0.0022
24.8 0.00371
24.85 0.00569
24.9 0.00276
24.95 -0.00027
25 -0.00653
25.05 -0.01258
25.1 -0.01804
25.15 -0.02117
25.2 -0.01899
25.25 -0.01977
25.3 -0.02218
25.35 -0.02292
25.4 -0.01821
25.45 -0.01263
25.5 -0.01243
25.55 -0.00874
25.6 -0.0024
25.65 0.00513
25.7 0.00554
25.75 0.0074
25.8 0.00859
25.85 0.01146
25.9 0.00669
25.95 -0.00264
26 -0.00643
26.05 -0.00627
26.1 -0.0049
26.15 -0.00699
26.2 -0.01087
26.25 -0.01709
26.3 -0.022
26.35 -0.02174
26.4 -0.01775
26.45 -0.01514
26.5 -0.01411
26.55 -0.01515
26.6 -0.0148
26.65 -0.01265
26.7 -0.01163
26.75 -0.01404
26.8 -0.01948
26.85 -0.02434
26.9 -0.02919
26.95 -0.03478
27 -0.03857
27.05 -0.03401
27.1 -0.03228
27.15 -0.0247
27.2 -0.01984
27.25 -0.01523
27.3 -0.00716
27.35 0.00215
27.4 0.00351
27.45 -0.00054
27.5 -0.00247
27.55 -0.00192
27.6 -0.00003
27.65 0.00468
27.7 0.0074
27.75 0.00413
27.8 0.0044
27.85 -0.00108
27.9 -0.00719
27.95 -0.01143
28 -0.01404
28.05 -0.01275
28.1 -0.00923
28.15 -0.01129
28.2 -0.01049
28.25 -0.01249
28.3 -0.01189
28.35 -0.01395
28.4 -0.01406
28.45 -0.01772
28.5 -0.0171
28.55 -0.0115
28.6 -0.01091
28.65 -0.00595
28.7 -0.00567
28.75 -0.00483
28.8 -0.00069
28.85 -0.00027
28.9 -0.00532
28.95 -0.01359
29 -0.01967
29.05 -0.0279
29.1 -0.03443
29.15 -0.03303
29.2 -0.03022
29.25 -0.0288
29.3 -0.02428
29.35 -0.02119
29.4 -0.01604
29.45 -0.01306
29.5 -0.01636
29.55 -0.0213
29.6 -0.02963
29.65 -0.03883
29.7 -0.04472
29.75 -0.04435
29.8 -0.04344
29.85 -0.04762
29.9 -0.04788
29.95 -0.05266
30 -0.0566
30.05 -0.05869
30.1 -0.06265
30.15 -0.06182
30.2 -0.05819
30.25 -0.05965
30.3 -0.06138
30.35 -0.06573
30.4 -0.06715
30.45 -0.06435
30.5 -0.06365
30.55 -0.06096
30.6 -0.06203
30.65 -0.05945
30.7 -0.0595
30.75 -0.05425
30.8 -0.05295
30.85 -0.04593
30.9 -0.04115
30.95 -0.0344
31 -0.02799
31.05 -0.02326
31.1 -0.01631
31.15 -0.00642
31.2 0.00306
31.25 0.00579
31.3 0.0115
31.35 0.01409
31.4 0.01985
31.45 0.02868
31.5 0.0337
31.55 0.03724
31.6 0.04161
31.65 0.04328
31.7 0.04485
31.75 0.04899
31.8 0.05128
31.85 0.05111
31.9 0.05434
31.95 0.05717
32 0.05552
32.05 0.05129
32.1 0.04969
32.15 0.04812
32.2 0.04451
32.25 0.0435
32.3 0.04047
32.35 0.04435
32.4 0.04477
32.45 0.05018
32.5 0.0554
32.55 0.06095
32.6 0.0663
32.65 0.07263
32.7 0.07073
32.75 0.06873
32.8 0.06394
32.85 0.05826
32.9 0.05671
32.95 0.05029
33 0.0487
33.05 0.04626
33.1 0.04448
33.15 0.03987
33.2 0.03348
33.25 0.02647
33.3 0.02404
33.35 0.02074
33.4 0.01588
33.45 0.00777
33.5 -0.00133
33.55 -0.0084
33.6 -0.00969
33.65 -0.00476
33.7 0.0004
33.75 0.0031
33.8 0.005
33.85 0.00197
33.9 -0.00115
33.95 -0.00171
34 0.00084
34.05 0.00517
34.1 0.01082
34.15 0.0152
34.2 0.01716
34.25 0.01327
34.3 0.01191
34.35 0.01318
34.4 0.01007
34.45 0.00803
34.5 0.00708
34.55 0.00206
34.6 -0.00507
34.65 -0.01103
34.7 -0.01233
34.75 -0.01532
34.8 -0.0124
34.85 -0.01258
34.9 -0.01319
34.95 -0.01467
35 -0.01295
35.05 -0.01264
35.1 -0.00962
35.15 -0.00633
35.2 -0.00136
35.25 0.00428
35.3 0.00654
35.35 0.00333
35.4 0.00029
35.45 0.00299
35.5 0.00106
35.55 -0.00251
35.6 -0.00013
35.65 0.00341
35.7 0.00372
35.75 0.00726
35.8 0.00929
35.85 0.0113
35.9 0.00779
35.95 0.0092
36 0.00902
36.05 0.00527
36.1 0.00626
36.15 0.00697
36.2 0.01021
36.25 0.00804
36.3 0.00532
36.35 0.00152
36.4 -0.00044
36.45 -0.00495
36.5 -0.01078
36.55 -0.01151
36.6 -0.00775
36.65 -0.00147
36.7 0.00346
36.75 0.00402
36.8 0.00077
36.85 -0.00501
36.9 -0.0048
36.95 -0.00639
37 -0.00652
37.05 -0.01046
37.1 -0.01123
37.15 -0.01455
37.2 -0.0132
37.25 -0.00966
37.3 -0.00401
37.35 -0.00106
37.4 0.00249
37.45 0.00153
37.5 -0.00032
37.55 0.0021
37.6 0.001
37.65 -0.00016
37.7 0.00229
37.75 0.00756
37.8 0.00862
37.85 0.01247
37.9 0.01434
37.95 0.01111
38 0.00663
38.05 0.00032
38.1 -0.00444
38.15 -0.01001
38.2 -0.01089
38.25 -0.00978
38.3 -0.01298
38.35 -0.00995
38.4 -0.00337
38.45 0.00485
38.5 0.01279
38.55 0.01839
38.6 0.02361
38.65 0.0213
38.7 0.02198
38.75 0.02393
38.8 0.0243
38.85 0.02348
38.9 0.02291
38.95 0.01621
39 0.01083
39.05 0.00479
39.1 0.00089
39.15 0.00193
39.2 0.00583
39.25 0.00238
39.3 0.00313
39.35 0.00171
39.4 0.00144
39.45 0.00225
39.5 -0.00025
39.55 -0.0008
39.6 0.0007
39.65 0.0004
39.7 -0.00344
39.75 -0.00477
39.8 -0.00711
39.85 -0.00844
39.9 -0.00724
39.95 -0.00808
40 -0.01158
40.05 -0.01284
40.1 -0.01053
40.15 -0.01331
40.2 -0.01164
40.25 -0.01173
40.3 -0.01515
40.35 -0.01849
40.4 -0.02128
40.45 -0.01754
40.5 -0.00979
40.55 -0.00848
40.6 -0.00926
40.65 -0.0055
40.7 -0.00228
40.75 -0.00229
40.8 -0.00501
40.85 -0.00297
40.9 0.00192
40.95 0.00327
41 0.00058
41.05 -0.00367
41.1 -0.00262
41.15 0.00118
41.2 0.00005
41.25 -0.0028
41.3 -0.00604
41.35 -0.00438
41.4 -0.00074
41.45 -0.0007
41.5 -0.00525
41.55 -0.00834
41.6 -0.00779
41.65 -0.00347
41.7 -0.00156
41.75 -0.00489
41.8 -0.01112
41.85 -0.01829
41.9 -0.01828
41.95 -0.01438
42 -0.01305
42.05 -0.01576
42.1 -0.01791
42.15 -0.01603
42.2 -0.01439
42.25 -0.01047
42.3 -0.00529
42.35 0.00062
42.4 0.00318
42.45 0.00557
42.5 0.00434
42.55 0.00019
42.6 -0.00747
42.65 -0.01261
42.7 -0.01979
42.75 -0.0248
42.8 -0.02682
42.85 -0.03051
42.9 -0.02972
42.95 -0.03137
43 -0.02969
43.05 -0.03014
43.1 -0.0319
43.15 -0.03362
43.2 -0.03526
43.25 -0.03305
43.3 -0.02708
43.35 -0.02523
43.4 -0.02098
43.45 -0.01243
43.5 -0.00497
43.55 0.00456
43.6 0.0086
43.65 0.01008
43.7 0.00597
43.75 0.00341
43.8 0.00099
43.85 -0.00385
43.9 -0.00558
43.95 -0.00444
44 -0.00143
44.05 0.00097
44.1 0.00169
44.15 0.00582
44.2 0.00593
44.25 0.00902
44.3 0.00601
44.35 0.0068
44.4 0.00665
44.45 0.01068
44.5 0.01368
44.55 0.01015
44.6 0.00741
44.65 0.00432
44.7 0.00563
44.75 0.00431
44.8 0.00315
44.85 -0.00215
44.9 -0.00466
44.95 -0.01002
45 -0.00923
45.05 -0.01156
45.1 -0.01082
45.15 -0.00778
45.2 -0.00421
45.25 0.003
45.3 0.00961
45.35 0.01313
45.4 0.01022
45.45 0.00957
45.5 0.01265
45.55 0.00981
45.6 0.01171
45.65 0.01518
45.7 0.01372
45.75 0.00921
45.8 0.00399
45.85 0.00217
45.9 0.00529
45.95 0.00763
46 0.00831
46.05 0.01077
46.1 0.01195
46.15 0.01419
46.2 0.01323
46.25 0.01164
46.3 0.00737
46.35 -0.0006
46.4 -0.01035
46.45 -0.01346
46.5 -0.01443
46.55 -0.01186
46.6 -0.01118
46.65 -0.00724
46.7 -0.00512
46.75 0.00012
46.8 0.00392
46.85 0.00355
46.9 0.00196
46.95 0.00185
47 -0.00034
47.05 -0.00649
47.1 -0.01379
47.15 -0.01921
47.2 -0.0178
47.25 -0.01832
47.3 -0.01891
47.35 -0.0203
47.4 -0.01774
47.45 -0.01743
47.5 -0.01307
47.55 -0.01107
47.6 -0.01283
47.65 -0.01542
47.7 -0.01228
47.75 -0.01263
47.8 -0.00972
47.85 -0.00409
47.9 0.00057
47.95 0.00281
48 0.00312
48.05 0.00424
48.1 0.00804
48.15 0.00772
48.2 0.00309
48.25 -0.00189
48.3 -0.00424
48.35 -0.00594
48.4 -0.00512
48.45 -0.0063
48.5 -0.00253
48.55 0.00197
48.6 0.00319
48.65 0.00499
48.7 0.00276
48.75 0.00044
48.8 0.00072
48.85 0.00436
48.9 0.00887
48.95 0.01147
49 0.01096
49.05 0.01076
49.1 0.00631
49.15 0.00452
49.2 0.00534
49.25 0.0055
49.3 0.00887
49.35 0.00837
49.4 0.01017
49.45 0.01045
49.5 0.01225
49.55 0.00849
49.6 0.00805
49.65 0.00488
49.7 0.00423
49.75 0.00434
49.8 -0.00067
49.85 -0.0027
49.9 -0.00525
49.95 -0.00989
50 -0.01281
50.05 -0.01411
50.1 -0.01555
50.15 -0.01687
50.2 -0.01342
50.25 -0.00795
50.3 -0.00743
50.35 -0.00758
50.4 -0.01052
50.45 -0.00936
50.5 -0.00457
50.55 -0.00098
50.6 0.00176
50.65 0.00245
50.7 0.00298
50.75 0.00078
50.8 0.00217
50.85 -0.00101
50.9 -0.00133
50.95 -0.00033
51 0.00123
51.05 0.00459
51.1 0.01044
51.15 0.0145
51.2 0.01886
51.25 0.02019
51.3 0.02244
51.35 0.02593
51.4 0.02875
51.45 0.02624
51.5 0.0213
51.55 0.01398
51.6 0.0041
51.65 0.00085
51.7 -0.00572
51.75 -0.01202
51.8 -0.01553
51.85 -0.01631
51.9 -0.01552
51.95 -0.01725
52 -0.01405
52.05 -0.01401
52.1 -0.0128
52.15 -0.01445
52.2 -0.01543
52.25 -0.01328
52.3 -0.00935
52.35 -0.00697
52.4 -0.00753
52.45 -0.00951
52.5 -0.00771
52.55 -0.00716
52.6 -0.00358
52.65 0.00224
52.7 0.00838
52.75 0.01113
52.8 0.01564
52.85 0.0213
52.9 0.01943
52.95 0.01569
53 0.01335
53.05 0.01004
53.1 0.00757
53.15 0.00137
53.2 0.00184
53.25 0.00365
53.3 0.00536
53.35 0.00903
53.4 0.01364
53.45 0.01253
53.5 0.01446
53.55 0.01034
53.6 0.00538
53.65 0.00104
53.7 -0.00346
53.75 -0.00673
53.8 -0.0113
53.85 -0.0106
53.9 -0.00568
53.95 -0.00173
54 0.00508
54.05 0.00795
54.1 0.00888
54.15 0.01297
54.2 0.01226
54.25 0.01179
54.3 0.01073
54.35 0.01214
54.4 0.01458
54.45 0.01753
54.5 0.02119
54.55 0.01776
54.6 0.01647
54.65 0.01798
54.7 0.01409
54.75 0.01268
54.8 0.01157
54.85 0.01223
54.9 0.01001
54.95 0.01148
55 0.00995
55.05 0.003
55.1 -0.00382
55.15 -0.00619
55.2 -0.00812
55.25 -0.01275
55.3 -0.01312
55.35 -0.01606
55.4 -0.01505
55.45 -0.01395
55.5 -0.01572
55.55 -0.01407
55.6 -0.01176
55.65 -0.0119
55.7 -0.01065
55.75 -0.0099
55.8 -0.00526
55.85 -0.00376
55.9 -0.00595
55.95 -0.00877
56 -0.00969
56.05 -0.01242
56.1 -0.00986
56.15 -0.0096
56.2 -0.00776
56.25 -0.00897
56.3 -0.00947
56.35 -0.00816
56.4 -0.00506
56.45 0.00056
56.5 0.00556
56.55 0.01146
56.6 0.01607
56.65 0.01832
56.7 0.02161
56.75 0.02363
56.8 0.02154
56.85 0.02158
56.9 0.01637
56.95 0.01035
57 0.00777
57.05 0.00665
57.1 0.00822
57.15 0.00484
57.2 0.00379
57.25 0.00204
57.3 0.00115
57.35 0.00398
57.4 0.00211
57.45 0.0003
57.5 -0.00079
57.55 -0.00511
57.6 -0.00898
57.65 -0.01167
57.7 -0.01609
57.75 -0.01481
57.8 -0.00988
57.85 -0.00365
57.9 -0.0025
57.95 -0.00456
58 -0.00611
58.05 -0.00673
58.1 -0.00997
58.15 -0.01015
58.2 -0.01278
58.25 -0.01149
58.3 -0.01451
58.35 -0.01154
58.4 -0.00679
58.45 -0.00284
58.5 -0.00407
58.55 -0.00032
58.6 -0.00183
58.65 -0.00459
58.7 -0.00761
58.75 -0.00861
58.8 -0.00903
58.85 -0.00909
58.9 -0.01221
58.95 -0.01095
59 -0.00747
59.05 -0.00694
59.1 -0.00767
59.15 -0.0105
59.2 -0.01448
59.25 -0.01428
59.3 -0.01418
59.35 -0.00851
59.4 -0.00849
59.45 -0.0073
59.5 -0.00436
59.55 -0.004
59.6 -0.00315
59.65 0.0002
59.7 0.00111
59.75 0.00291
59.8 0.00461
59.85 0.00121
59.9 -0.00133
59.95 0.00137
60 0.00119
60.05 0.0002
60.1 0.00073
60.15 0.00184
60.2 0.00239
60.25 0.00514
60.3 0.00564
60.35 0.00217
60.4 -0.00118
60.45 -0.00285
60.5 -0.00047
60.55 0.00127
60.6 0.00106
60.65 0.00386
60.7 0.00644
60.75 0.01176
60.8 0.0094
60.85 0.01024
60.9 0.00911
60.95 0.00573
61 0.00111
61.05 0.00188
61.1 0.00538
61.15 0.00707
61.2 0.00821
61.25 0.01071
61.3 0.01195
61.35 0.00967
61.4 0.0062
61.45 0.00103
61.5 -0.00715
61.55 -0.0089
61.6 -0.01073
61.65 -0.01022
61.7 -0.00659
61.75 -0.00401
61.8 -0.00552
61.85 -0.00228
61.9 -0.00389
61.95 -0.00695
62 -0.0119
62.05 -0.01694
62.1 -0.02181
62.15 -0.02289
62.2 -0.02483
62.25 -0.02683
62.3 -0.02856
62.35 -0.02288
62.4 -0.01378
62.45 -0.00402
62.5 -0.00129
62.55 0.00462
62.6 0.00578
62.65 0.00546
62.7 0.00816
62.75 0.00958
62.8 0.01078
62.85 0.0131
62.9 0.0171
62.95 0.01506
63 0.01561
63.05 0.01356
63.1 0.0066
63.15 0.00529
63.2 -0.00058
63.25 0.00011
63.3 0.00396
63.35 0.00405
63.4 0.00075
63.45 -0.00458
63.5 -0.00547
63.55 -0.00976
63.6 -0.01553
63.65 -0.01625
63.7 -0.01279
63.75 -0.01052
63.8 -0.01272
63.85 -0.01632
63.9 -0.01384
63.95 -0.01349
64 -0.00785
64.05 -0.00195
64.1 -0.00164
64.15 -0.00577
64.2 -0.00945
64.25 -0.01051
64.3 -0.00947
64.35 -0.0077
64.4 -0.00804
64.45 -0.01009
64.5 -0.00966
64.55 -0.01123
64.6 -0.01031
64.65 -0.00843
64.7 -0.00543
64.75 -0.00673
64.8 -0.00244
64.85 -0.0028
64.9 -0.00553
64.95 -0.0102
65 -0.01066
65.05 -0.01431
65.1 -0.01715
65.15 -0.01674
65.2 -0.0143
65.25 -0.00796
65.3 -0.00146
65.35 -0.00112
65.4 -0.00512
65.45 -0.0068
65.5 -0.01124
65.55 -0.01586
65.6 -0.0147
65.65 -0.01183
65.7 -0.00862
65.75 -0.00595
65.8 -0.00646
65.85 -0.00398
65.9 0.00001
65.95 0.00462
66 0.00739
66.05 0.00788
66.1 0.00964
66.15 0.00855
66.2 0.00741
66.25 0.00765
66.3 0.00988
66.35 0.00878
66.4 0.00745
66.45 0.00738
66.5 0.00996
66.55 0.01464
66.6 0.0169
66.65 0.01884
66.7 0.02233
66.75 0.02639
66.8 0.0304
66.85 0.02845
66.9 0.02359
66.95 0.02154
67 0.02086
67.05 0.01999
67.1 0.01939
67.15 0.01801
67.2 0.01823
67.25 0.01565
67.3 0.00838
67.35 0.00649
67.4 0.00388
67.45 0.00284
67.5 0.00404
67.55 0.00128
67.6 -0.00147
67.65 0.00113
67.7 0.00573
67.75 0.00444
67.8 0.00427
67.85 0.00482
67.9 0.00839
67.95 0.00567
68 0.0034
68.05 0.00173
68.1 0.00415
68.15 0.00049
68.2 -0.00573
68.25 -0.0138
68.3 -0.01628
68.35 -0.01422
68.4 -0.01627
68.45 -0.01619
68.5 -0.01607
68.55 -0.01123
68.6 -0.01062
68.65 -0.01274
68.7 -0.01426
68.75 -0.01853
68.8 -0.02101
68.85 -0.02482
68.9 -0.02916
68.95 -0.02582
69 -0.01969
69.05 -0.01089
69.1 -0.00238
69.15 0.00091
69.2 0.00352
69.25 0.00105
69.3 -0.00147
69.35 -0.00732
69.4 -0.00915
69.45 -0.00661
69.5 -0.00282
69.55 0.00105
69.6 0.00115
69.65 -0.00128
69.7 -0.00715
69.75 -0.01371
69.8 -0.01558
69.85 -0.01317
69.9 -0.00726
69.95 -0.0045
70 -0.00372
70.05 -0.00026
70.1 0.00633
70.15 0.01404
70.2 0.01482
70.25 0.01777
70.3 0.02032
70.35 0.0193
70.4 0.01864
70.45 0.02064
70.5 0.01999
70.55 0.01768
70.6 0.01731
70.65 0.01612
70.7 0.01459
70.75 0.01315
70.8 0.00706
70.85 0.00169
70.9 -0.0002
70.95 -0.00199
71 -0.00632
71.05 -0.00954
71.1 -0.00846
71.15 -0.00284
71.2 0.00277
71.25 0.00478
71.3 0.00742
71.35 0.00599
71.4 0.00008
71.45 -0.0017
71.5 0.00083
71.55 0.00662
71.6 0.0097
71.65 0.0119
71.7 0.0166
71.75 0.01352
71.8 0.00687
71.85 -0.00085
71.9 -0.00171
71.95 -0.0007
72 -0.00403
72.05 -0.00805
72.1 -0.01431
72.15 -0.01456
72.2 -0.01688
72.25 -0.016
72.3 -0.01612
72.35 -0.01949
72.4 -0.01992
72.45 -0.01603
72.5 -0.01024
72.55 -0.00641
72.6 -0.00102
72.65 0.00246
72.7 0.00327
72.75 0.00223
72.8 0.00405
72.85 0.00194
72.9 0.00099
72.95 -0.00282
73 -0.00739
73.05 -0.00622
73.1 -0.00681
73.15 -0.00334
73.2 0.00289
73.25 0.00435
73.3 0.00256
73.35 0.00426
73.4 0.00124
73.45 -0.00138
73.5 -0.00032
73.55 -0.00353
73.6 -0.00248
73.65 -0.00263
73.7 0.00147
73.75 0.00025
73.8 0.00122
73.85 0.00506
73.9 0.00267
73.95 -0.00125
74 -0.00198
74.05 -0.00009
74.1 0.0051
74.15 0.00667
74.2 0.01101
74.25 0.0092
74.3 0.00795
74.35 0.00202
74.4 -0.00281
74.45 -0.01031
74.5 -0.01625
74.55 -0.01445
74.6 -0.01317
74.65 -0.00764
74.7 -0.00584
74.75 -0.00728
74.8 -0.01189
74.85 -0.0124
74.9 -0.00802
74.95 -0.00911
75 -0.00889
75.05 -0.00674
75.1 -0.00396
75.15 -0.00348
75.2 -0.00199
75.25 0.00009
75.3 0.00105
75.35 -0.00264
75.4 -0.00311
75.45 -0.0014
75.5 -0.00006
75.55 -0.00163
75.6 -0.00021
75.65 0.00188
75.7 0.00169
75.75 -0.00259
75.8 -0.00679
75.85 -0.00809
75.9 -0.01182
75.95 -0.01718
76 -0.01466
76.05 -0.01629
76.1 -0.01968
76.15 -0.01638
76.2 -0.01336
76.25 -0.00984
76.3 -0.00465
76.35 -0.00514
76.4 -0.00643
76.45 -0.00892
76.5 -0.01292
76.55 -0.01101
76.6 -0.01195
76.65 -0.01085
76.7 -0.00702
76.75 -0.00661
76.8 -0.00182
76.85 0.00345
76.9 0.00344
76.95 -0.001
77 0.001
77.05 0.00514
77.1 0.01003
77.15 0.01018
77.2 0.01084
77.25 0.01225
77.3 0.01565
77.35 0.01216
77.4 0.00747
77.45 0.00061
77.5 -0.00513
77.55 -0.00676
77.6 -0.01116
77.65 -0.01499
77.7 -0.0174
77.75 -0.01727
77.8 -0.01962
77.85 -0.01467
77.9 -0.00782
77.95 -0.00327
78 -0.00326
78.05 -0.00062
78.1 -0.00134
78.15 -0.00457
78.2 -0.00829
78.25 -0.00611
78.3 -0.00739
78.35 -0.00845
78.4 -0.01097
78.45 -0.01053
78.5 -0.00468
78.55 -0.00462
78.6 -0.00286
78.65 -0.00308
78.7 -0.0069
78.75 -0.00594
78.8 -0.00275
78.85 0.00066
78.9 0.00645
78.95 0.01407
79 0.02195
79.05 0.02821
79.1 0.03051
79.15 0.02977
79.2 0.02599
79.25 0.02623
79.3 0.02468
79.35 0.02572
79.4 0.0265
79.45 0.02578
79.5 0.01914
79.55 0.01319
79.6 0.01298
79.65 0.00858
79.7 0.00602
79.75 0.00411
79.8 0.00698
79.85 0.01067
79.9 0.01004
79.95 0.00896
80 0.00733
80.05 0.00262
80.1 0.00328
80.15 0.00366
80.2 0.00226
80.25 0.00554
80.3 0.01134
80.35 0.01135
80.4 0.01068
80.45 0.00557
80.5 -0.00237
80.55 -0.00642
80.6 -0.00727
80.65 -0.00718
80.7 -0.00753
80.75 -0.00669
80.8 -0.01018
80.85 -0.01541
80.9 -0.01881
80.95 -0.01893
81 -0.02092
81.05 -0.018
81.1 -0.01134
81.15 -0.00157
81.2 0.00193
81.25 0.0021
81.3 0.00247
81.35 0.00374
81.4 0.00056
81.45 -0.0012
81.5 -0.0043
81.55 -0.00505
81.6 -0.00743
81.65 -0.0078
81.7 -0.00469
81.75 0.00036
81.8 0.00736
81.85 0.01499
81.9 0.01444
81.95 0.01008
82 0.00448
82.05 -0.00305
82.1 -0.00658
82.15 -0.00568
82.2 -0.00076
82.25 0.00226
82.3 0.00626
82.35 0.01196
82.4 0.01732
82.45 0.02292
82.5 0.02134
82.55 0.02156
82.6 0.02133
82.65 0.01572
82.7 0.01391
82.75 0.00824
82.8 0.00323
82.85 -0.00369
82.9 -0.0063
82.95 -0.00339
83 0.00171
83.05 0.00594
83.1 0.00469
83.15 0.00198
83.2 -0.00117
83.25 -0.00496
83.3 -0.01059
83.35 -0.01611
83.4 -0.01458
83.45 -0.01568
83.5 -0.01698
83.55 -0.01416
83.6 -0.00862
83.65 -0.0024
83.7 0.00071
83.75 0.00358
83.8 0.00588
83.85 0.00926
83.9 0.01072
83.95 0.01499
84 0.01225
84.05 0.00677
84.1 0.00325
84.15 -0.00056
84.2 -0.00386
84.25 -0.00149
84.3 0.00068
84.35 0.00241
84.4 0.00728
84.45 0.0126
84.5 0.01055
84.55 0.00975
84.6 0.00459
84.65 0.0053
84.7 0.00593
84.75 0.00356
84.8 0.00275
84.85 -0.00021
84.9 -0.0013
84.95 -0.005
85 -0.00626
85.05 -0.00288
85.1 -0.0035
85.15 -0.0077
85.2 -0.01084
85.25 -0.00911
85.3 -0.00579
85.35 -0.00694
85.4 -0.0051
85.45 -0.00653
85.5 -0.01092
85.55 -0.01746
85.6 -0.01959
85.65 -0.01853
85.7 -0.01719
85.75 -0.01672
85.8 -0.01818
85.85 -0.0135
85.9 -0.00493
85.95 0.00065
86 0.00566
86.05 0.00965
86.1 0.00966
86.15 0.01175
86.2 0.01562
86.25 0.01536
86.3 0.01602
86.35 0.01552
86.4 0.00999
86.45 0.00424
86.5 0.00015
86.55 0.00207
86.6 0.00224
86.65 0.00449
86.7 0.00859
86.75 0.00926
86.8 0.01161
86.85 0.01401
86.9 0.01774
86.95 0.02259
87 0.02503
87.05 0.02347
87.1 0.02161
87.15 0.02055
87.2 0.01993
87.25 0.02038
87.3 0.02187
87.35 0.02406
87.4 0.02575
87.45 0.02847
87.5 0.02464
87.55 0.0179
87.6 0.01436
87.65 0.00947
87.7 0.00239
87.75 -0.00108
87.8 0.00002
87.85 -0.0033
87.9 -0.00723
87.95 -0.01045
88 -0.01615
88.05 -0.01746
88.1 -0.01756
88.15 -0.0207
88.2 -0.02518
88.25 -0.02885
88.3 -0.02984
88.35 -0.03287
88.4 -0.03533
88.45 -0.03759
88.5 -0.03387
88.55 -0.02901
88.6 -0.02591
88.65 -0.02335
88.7 -0.02365
88.75 -0.02362
88.8 -0.02609
88.85 -0.02369
88.9 -0.01719
88.95 -0.01357
89 -0.00627
89.05 -0.00217
89.1 0.00227
89.15 0.00444
89.2 0.00626
89.25 0.00276
89.3 -0.00153
89.35 -0.00352
89.4 -0.00352
89.45 -0.00446
89.5 -0.00816
89.55 -0.00752
89.6 -0.00944
89.65 -0.00547
89.7 -0.00124
89.75 0.00074
89.8 0.00488
89.85 0.00813
89.9 0.01337
89.95 0.01861
90 0.02098
90.05 0.01987
90.1 0.01839
90.15 0.01196
90.2 0.00699
90.25 0.00509
90.3 0.00716
90.35 0.00798
90.4 0.00994
90.45 0.0067
90.5 0.00526
90.55 0.00673
90.6 0.00839
90.65 0.00794
90.7 0.00543
90.75 -0.00004
90.8 -0.0057
90.85 -0.00964
90.9 -0.00824
90.95 -0.00684
91 -0.00826
91.05 -0.00456
91.1 -0.00286
91.15 0.00131
91.2 0.00459
91.25 0.00439
91.3 0.00593
91.35 0.00511
91.4 0.00584
91.45 0.01
91.5 0.01567
91.55 0.02083
91.6 0.02213
91.65 0.02489
91.7 0.01967
91.75 0.0152
91.8 0.00898
91.85 0.00785
91.9 0.00568
91.95 0.00063
92 0.00059
92.05 -0.00206
92.1 0.0001
92.15 -0.00221
92.2 -0.0008
92.25 0.00327
92.3 0.00383
92.35 0.00701
92.4 0.00749
92.45 0.00599
92.5 0.00091
92.55 -0.00184
92.6 -0.0063
92.65 -0.01273
92.7 -0.01171
92.75 -0.01078
92.8 -0.00769
92.85 -0.00172
92.9 0.00474
92.95 0.00932
93 0.01174
93.05 0.01211
93.1 0.00666
93.15 -0.00163
93.2 -0.00313
93.25 -0.00053
93.3 0.00142
93.35 -0.00082
93.4 -0.00316
93.45 -0.00727
93.5 -0.00997
93.55 -0.00729
93.6 -0.0062
93.65 -0.00863
93.7 -0.00703
93.75 -0.0016
93.8 -0.00061
93.85 0.00403
93.9 0.00847
93.95 0.01291
94 0.01358
94.05 0.01002
94.1 0.01041
94.15 0.00824
94.2 0.00227
94.25 -0.0052
94.3 -0.01261
94.35 -0.01856
94.4 -0.01739
94.45 -0.01772
94.5 -0.01328
94.55 -0.01099
94.6 -0.00505
94.65 -0.00483
94.7 -0.00869
94.75 -0.00829
94.8 -0.00919
94.85 -0.01195
94.9 -0.01704
94.95 -0.02019
95 -0.0165
95.05 -0.01712
95.1 -0.01344
95.15 -0.01466
95.2 -0.01293
95.25 -0.01179
95.3 -0.0131
95.35 -0.01025
95.4 -0.00865
95.45 -0.00601
95.5 -0.00338
95.55 -0.00169
95.6 -0.00358
95.65 -0.00875
95.7 -0.01561
95.75 -0.01945
95.8 -0.02335
95.85 -0.02324
95.9 -0.02174
95.95 -0.0205
96 -0.01654
96.05 -0.01117
96.1 -0.00219
96.15 0.00607
96.2 0.00744
96.25 0.0035
96.3 0.004
96.35 0.00518
96.4 0.00185
96.45 0.00186
96.5 0.00375
96.55 0.00309
96.6 0.00417
96.65 0.00557
96.7 0.00553
96.75 0.00654
96.8 0.00243
96.85 -0.00225
96.9 -0.00433
96.95 -0.0083
97 -0.01307
97.05 -0.01237
97.1 -0.01371
97.15 -0.00881
97.2 -0.00767
97.25 -0.00366
97.3 -0.0006
97.35 -0.00037
97.4 0.00142
97.45 -0.00191
97.5 -0.00282
97.55 -0.00039
97.6 0.0042
97.65 0.00817
97.7 0.01016
97.75 0.01251
97.8 0.01718
97.85 0.01533
97.9 0.0099
97.95 0.00622
98 0.00043
98.05 -0.0011
98.1 0.00126
98.15 0.00097
98.2 -0.00384
98.25 -0.0042
98.3 -0.00196
98.35 -0.00163
98.4 -0.00552
98.45 -0.00312
98.5 0.00181
98.55 0.00844
98.6 0.00839
98.65 0.00497
98.7 0.00573
98.75 0.00157
98.8 0.00212
98.85 -0.00054
98.9 -0.00051
98.95 0.00182
99 0.00169
99.05 -0.00264
99.1 -0.00929
99.15 -0.01581
99.2 -0.0209
99.25 -0.02611
99.3 -0.02589
99.35 -0.02044
99.4 -0.01742
99.45 -0.01836
99.5 -0.01307
99.55 -0.00812
99.6 0.00032
99.65 0.00649
99.7 0.01194
99.75 0.01559
99.8 0.02078
99.85 0.01902
99.9 0.01961
99.95 0.02019
