0 0
0.05 0.00108
0.1 0.00248
0.15 0.00408
0.2 0.00525
0.25 0.00579
0.3 0.00605
0.35 0.0058
0.4 0.0055
0.45 0.00597
0.5 0.00596
0.55 0.00641
0.6 0.00646
0.65 0.00683
0.7 0.00681
0.75 0.0065
0.8 0.00662
0.85 0.0061
0.9 0.00609
0.95 0.00567
1 0.00611
1.05 0.00574
1.1 0.00529
1.15 0.00455
1.2 0.00479
1.25 0.00449
1.3 0.00393
1.35 0.00329
1.4 0.00291
1.45 0.00318
1.5 0.00418
1.55 0.00515
1.6 0.00516
1.65 0.00533
1.7 0.00494
1.75 0.00471
1.8 0.00481
1.85 0.00435
1.9 0.00476
1.95 0.00453
2 0.00383
2.05 0.0035
2.1 0.00316
2.15 0.00329
2.2 0.00369
2.25 0.00437
2.3 0.00465
2.35 0.00503
2.4 0.00543
2.45 0.00551
2.5 0.00514
2.55 0.0047
2.6 0.00429
2.65 0.00427
2.7 0.00472
2.75 0.00438
2.8 0.00391
2.85 0.00394
2.9 0.00441
2.95 0.00501
3 0.00518
3.05 0.00524
3.1 0.00548
3.15 0.0054
3.2 0.00516
3.25 0.00474
3.3 0.00474
3.35 0.00504
3.4 0.00561
3.45 0.00575
3.5 0.00538
3.55 0.00549
3.6 0.00547
3.65 0.0053
3.7 0.00475
3.75 0.00449
3.8 0.00407
3.85 0.00375
3.9 0.00382
3.95 0.00413
4 0.0044
4.05 0.00446
4.1 0.00406
4.15 0.00385
4.2 0.00358
4.25 0.00318
4.3 0.00286
4.35 0.00228
4.4 0.00249
4.45 0.0021
4.5 0.0016
4.55 0.00113
4.6 0.00097
4.65 0.00108
4.7 0.00142
4.75 0.00189
4.8 0.00232
4.85 0.00296
4.9 0.00312
4.95 0.00318
5 0.00265
5.05 0.0024
5.1 0.00223
5.15 0.00247
5.2 0.003
5.25 0.00305
5.3 0.00306
5.35 0.00324
5.4 0.00376
5.45 0.00359
5.5 0.00346
5.55 0.0026
5.6 0.00218
5.65 0.00181
5.7 0.00154
5.75 0.00135
5.8 0.00129
5.85 0.00156
5.9 0.00213
5.95 0.00175
6 0.00124
6.05 0.00114
6.1 0.00091
6.15 0.00022
6.2 0.00047
6.25 0.00052
6.3 0.00026
6.35 -0.00036
6.4 -0.00022
6.45 -0.00052
6.5 -0.00078
6.55 -0.00085
6.6 -0.00065
6.65 -0.00058
6.7 0.00004
6.75 0.0005
6.8 0.00063
6.85 0.00136
6.9 0.00152
6.95 0.00186
7 0.00251
7.05 0.00241
7.1 0.00251
7.15 0.00255
7.2 0.00281
7.25 0.00232
7.3 0.00246
7.35 0.00245
7.4 0.00214
7.45 0.00189
7.5 0.00207
7.55 0.00254
7.6 0.00325
7.65 0.00299
7.7 0.00241
7.75 0.00179
7.8 0.00064
7.85 0.00047
7.9 -0.00005
7.95 -0.00042
8 -0.00073
8.05 -0.00034
8.1 -0.00053
8.15 -0.00042
8.2 0.00015
8.25 0.00104
8.3 0.00107
8.35 0.00054
8.4 0.0004
8.45 0.00059
8.5 0.0008
8.55 0.00094
8.6 0.00128
8.65 0.00172
8.7 0.00142
8.75 0.00151
8.8 0.0013
8.85 0.00087
8.9 -0.00008
8.95 -0.00091
9 -0.00163
9.05 -0.00214
9.1 -0.00242
9.15 -0.00241
9.2 -0.0028
9.25 -0.0034
9.3 -0.00305
9.35 -0.00233
9.4 -0.00219
9.45 -0.00223
9.5 -0.00198
9.55 -0.00205
9.6 -0.00226
9.65 -0.00211
9.7 -0.00148
9.75 -0.0013
9.8 -0.00049
9.85 0.00035
9.9 0.00041
9.95 0.00086
10 0.00159
10.05 0.00196
10.1 0.0014
10.15 0.00032
10.2 -0.00093
10.25 -0.00163
10.3 -0.0023
10.35 -0.00192
10.4 -0.00137
10.45 -0.0012
10.5 -0.00046
10.55 0.00049
10.6 0.00091
10.65 0.00155
10.7 0.00222
10.75 0.00247
10.8 0.00303
10.85 0.00307
10.9 0.00306
10.95 0.00277
11 0.00257
11.05 0.00186
11.1 0.00061
11.15 -0.00081
11.2 -0.00128
11.25 -0.00134
11.3 -0.00109
11.35 -0.00094
11.4 -0.00022
11.45 0.00039
11.5 0.00071
11.55 0.00021
11.6 -0.00024
11.65 -0.00116
11.7 -0.00224
11.75 -0.00319
11.8 -0.00371
11.85 -0.00321
11.9 -0.00296
11.95 -0.00302
12 -0.0024
12.05 -0.00115
12.1 -0.00018
12.15 0.0011
12.2 0.00119
12.25 0.00132
12.3 0.00146
12.35 0.00181
12.4 0.0019
12.45 0.00218
12.5 0.00189
12.55 0.002
12.6 0.00211
12.65 0.00235
12.7 0.00258
12.75 0.0027
12.8 0.00236
12.85 0.00229
12.9 0.00237
12.95 0.00245
13 0.0019
13.05 0.00118
13.1 0.00026
13.15 -0.00015
13.2 -0.00088
13.25 -0.00158
13.3 -0.00234
13.35 -0.00233
13.4 -0.00162
13.45 -0.00055
13.5 -0.00034
13.55 -0.00015
13.6 0.00014
13.65 0.00026
13.7 0.00087
13.75 0.00132
13.8 0.00173
13.85 0.00174
13.9 0.00215
13.95 0.00156
14 0.00133
14.05 0.00064
14.1 -0.0003
14.15 -0.00121
14.2 -0.00226
14.25 -0.00327
14.3 -0.00413
14.35 -0.00494
14.4 -0.00479
14.45 -0.00423
14.5 -0.00302
14.55 -0.00244
14.6 -0.00129
14.65 -0.00086
14.7 -0.00017
14.75 -0.00018
14.8 0.00015
14.85 0.00051
14.9 0.00123
14.95 0.00102
15 0.00029
15.05 0.00039
15.1 0.00077
15.15 0.00128
15.2 0.00091
15.25 0.00087
15.3 0.00098
15.35 0.00085
15.4 0.00017
15.45 -0.00057
15.5 -0.00088
15.55 -0.00115
15.6 -0.00091
15.65 -0.00014
15.7 0.00066
15.75 0.0006
15.8 0.00101
15.85 0.00116
15.9 0.00093
15.95 0.00007
16 -0.00034
16.05 0.00003
16.1 -0.00005
16.15 -0.00018
16.2 -0.00013
16.25 0.00024
16.3 0.00048
16.35 0.00086
16.4 0.00047
16.45 0.00032
16.5 -0.00026
16.55 -0.00125
16.6 -0.00121
16.65 -0.00144
16.7 -0.00097
16.75 -0.00055
16.8 0.0001
16.85 -0.00013
16.9 -0.00062
16.95 -0.00107
17 -0.00154
17.05 -0.00235
17.1 -0.00227
17.15 -0.00186
17.2 -0.0008
17.25 0.00054
17.3 0.00085
17.35 0.00075
17.4 0.00121
17.45 0.00196
17.5 0.00186
17.55 0.00138
17.6 0.00034
17.65 -0.00025
17.7 -0.00077
17.75 -0.00105
17.8 -0.00052
17.85 -0.0004
17.9 -0.00028
17.95 -0.00078
18 -0.00129
18.05 -0.00159
18.1 -0.0023
18.15 -0.00287
18.2 -0.00283
18.25 -0.00299
18.3 -0.00342
18.35 -0.00309
18.4 -0.00226
18.45 -0.00116
18.5 -0.00019
18.55 0.00009
18.6 0.00007
18.65 -0.0004
18.7 -0.00118
18.75 -0.002
18.8 -0.00205
18.85 -0.00246
18.9 -0.00218
18.95 -0.00215
19 -0.00181
19.05 -0.0016
19.1 -0.00157
19.15 -0.00186
19.2 -0.0021
19.25 -0.00172
19.3 -0.00192
19.35 -0.00129
19.4 -0.00097
19.45 -0.00113
19.5 -0.00101
19.55 -0.00112
19.6 -0.00085
19.65 -0.00058
19.7 -0.00032
19.75 0.00037
19.8 0.00102
19.85 0.00085
19.9 0.00012
19.95 -0.00041
20 -0.00091
20.05 -0.00147
20.1 -0.00123
20.15 -0.00089
20.2 0.00012
20.25 0.00128
20.3 0.00177
20.35 0.00227
20.4 0.00251
20.45 0.00308
20.5 0.00329
20.55 0.00354
20.6 0.00411
20.65 0.0048
20.7 0.00518
20.75 0.00445
20.8 0.00375
20.85 0.00255
20.9 0.00181
20.95 0.00101
21 0.00072
21.05 0.00005
21.1 -0.00083
21.15 -0.00083
21.2 -0.00024
21.25 -0.00034
21.3 -0.00003
21.35 0.00077
21.4 0.00179
21.45 0.00189
21.5 0.0016
21.55 0.00114
21.6 0.00139
21.65 0.0016
21.7 0.00213
21.75 0.00229
21.8 0.00266
21.85 0.0025
21.9 0.00179
21.95 0.00183
22 0.00174
22.05 0.00178
22.1 0.00099
22.15 0.00086
22.2 0.00036
22.25 0.00057
22.3 0.00044
22.35 -0.00028
22.4 -0.0004
22.45 -0.00039
22.5 -0.00097
22.55 -0.00154
22.6 -0.00139
22.65 -0.00186
22.7 -0.00201
22.75 -0.00226
22.8 -0.0017
22.85 -0.00074
22.9 -0.00005
22.95 0.00097
23 0.00139
23.05 0.00213
23.1 0.00305
23.15 0.00381
23.2 0.00346
23.25 0.00325
23.3 0.00248
23.35 0.00186
23.4 0.00137
23.45 0.00081
23.5 0.00057
23.55 0.00063
23.6 0.00042
23.65 0.00024
23.7 -0.00057
23.75 -0.00156
23.8 -0.00239
23.85 -0.00334
23.9 -0.00417
23.95 -0.00405
24 -0.00393
24.05 -0.00314
24.1 -0.00304
24.15 -0.00213
24.2 -0.00119
24.25 0.00012
24.3 0.00112
24.35 0.0014
24.4 0.00148
24.45 0.00148
24.5 0.00161
24.55 0.00172
24.6 0.00177
24.65 0.00152
24.7 0.0013
24.75 0.00072
24.8 0.00022
24.85 -0.00032
24.9 -0.00012
24.95 0.00044
25 0.00062
25.05 0.00005
25.1 0.0003
25.15 0.00089
25.2 0.00145
25.25 0.00186
25.3 0.00152
25.35 0.00142
25.4 0.00087
25.45 -0.00021
25.5 -0.00043
25.55 -0.00118
25.6 -0.0015
25.65 -0.00211
25.7 -0.00232
25.75 -0.00226
25.8 -0.00154
25.85 -0.00084
25.9 -0.00098
25.95 -0.00141
26 -0.00167
26.05 -0.00216
26.1 -0.00267
26.15 -0.00243
26.2 -0.0017
26.25 -0.00048
26.3 0.00041
26.35 0.00113
26.4 0.00202
26.45 0.00205
26.5 0.00172
26.55 0.00193
26.6 0.00126
26.65 0.00094
26.7 0.0009
26.75 0.0003
26.8 0.00045
26.85 0.00062
26.9 0.00045
26.95 0.00019
27 -0.00038
27.05 -0.00041
27.1 -0.00095
27.15 -0.00073
27.2 -0.00072
27.25 -0.00061
27.3 -0.00104
27.35 -0.0011
27.4 -0.00144
27.45 -0.00183
27.5 -0.00235
27.55 -0.00239
27.6 -0.00198
27.65 -0.00181
27.7 -0.00184
27.75 -0.0012
27.8 -0.00004
27.85 0.00057
27.9 0.00145
27.95 0.00246
28 0.00326
28.05 0.00304
28.1 0.00271
28.15 0.00181
28.2 0.00106
28.25 0.00035
28.3 -0.00066
28.35 -0.00099
28.4 -0.00165
28.45 -0.00192
28.5 -0.00211
28.55 -0.00239
28.6 -0.00181
28.65 -0.00077
28.7 -0.00028
28.75 -0.00014
28.8 0.00015
28.85 0.00071
28.9 0.00074
28.95 0.00005
29 0.00018
29.05 -0.00014
29.1 0.00002
29.15 0.0007
29.2 0.00063
29.25 0.00068
29.3 0.00087
29.35 0.00061
29.4 0.00059
29.45 -0.00006
29.5 -0.00016
29.55 0.00004
29.6 -0.00031
29.65 -0.00053
29.7 -0.00009
29.75 0.00055
29.8 0.00107
29.85 0.00133
29.9 0.00176
29.95 0.00157
30 0.00086
30.05 0.00096
30.1 0.00045
30.15 0.00059
30.2 0.00115
30.25 0.00186
30.3 0.002
30.35 0.00252
30.4 0.0026
30.45 0.00201
30.5 0.00162
30.55 0.00141
30.6 0.00172
30.65 0.00173
30.7 0.00194
30.75 0.00151
30.8 0.00098
30.85 0.00103
30.9 0.00083
30.95 0.00033
31 -0.00039
31.05 -0.00106
31.1 -0.00141
31.15 -0.00222
31.2 -0.00262
31.25 -0.00252
31.3 -0.00295
31.35 -0.00282
31.4 -0.00258
31.45 -0.00242
31.5 -0.00208
31.55 -0.00206
31.6 -0.00214
31.65 -0.00146
31.7 -0.00047
31.75 0.00051
31.8 0.0015
31.85 0.00234
31.9 0.00222
31.95 0.00161
32 0.00099
32.05 -0.00016
32.1 -0.00074
32.15 -0.00072
32.2 -0.00009
32.25 0.00047
32.3 0.00023
32.35 0.0003
32.4 0.00069
32.45 0.00112
32.5 0.00165
32.55 0.00237
32.6 0.00236
32.65 0.00208
32.7 0.0014
32.75 0.00114
32.8 0.00078
32.85 -0.00016
32.9 -0.00131
32.95 -0.0026
33 -0.00373
33.05 -0.00449
33.1 -0.00471
33.15 -0.00476
33.2 -0.0041
33.25 -0.0029
33.3 -0.00191
33.35 -0.00176
33.4 -0.00204
33.45 -0.00151
33.5 -0.00108
33.55 -0.00072
33.6 0.00013
33.65 0.00115
33.7 0.00114
33.75 0.00091
33.8 0.00094
33.85 0.00043
33.9 -0.00049
33.95 -0.00157
34 -0.002
34.05 -0.00237
34.1 -0.00274
34.15 -0.00283
34.2 -0.00246
34.25 -0.00212
34.3 -0.00213
34.35 -0.00137
34.4 -0.00111
34.45 -0.00112
34.5 -0.00135
34.55 -0.00114
34.6 -0.00052
34.65 0.00046
34.7 0.00067
34.75 0.00014
34.8 -0.00004
34.85 -0.00056
34.9 -0.00054
34.95 -0.00094
35 -0.00072
35.05 -0.00083
35.1 -0.00106
35.15 -0.0006
35.2 -0.0008
35.25 -0.00063
35.3 -0.0001
35.35 -0.00021
35.4 0.00017
35.45 0.00052
35.5 0.00102
35.55 0.00184
35.6 0.00262
35.65 0.00301
35.7 0.00236
35.75 0.00184
35.8 0.00164
35.85 0.00097
35.9 0.00026
35.95 -0.00025
36 -0.00032
36.05 -0.00039
36.1 -0.00053
36.15 -0.00097
36.2 -0.00057
36.25 0.00021
36.3 0.00119
36.35 0.00113
36.4 0.00058
36.45 -0.00035
36.5 -0.00064
36.55 -0.00091
36.6 -0.00095
36.65 -0.00101
36.7 -0.00141
36.75 -0.00124
36.8 -0.00079
36.85 -0.0006
36.9 -0.00084
36.95 -0.00025
37 0.00035
37.05 0.00066
37.1 0.00121
37.15 0.00107
37.2 0.00134
37.25 0.0013
37.3 0.00132
37.35 0.00144
37.4 0.00143
37.45 0.00092
37.5 0.00104
37.55 0.00038
37.6 -0.00066
37.65 -0.00081
37.7 -0.00037
37.75 0.00015
37.8 -0.00012
37.85 -0.0004
37.9 -0.00042
37.95 -0.00078
38 -0.00123
38.05 -0.00153
38.1 -0.00149
38.15 -0.00087
38.2 -0.00089
38.25 -0.00061
38.3 0.00005
38.35 -0.00006
38.4 -0.00013
38.45 -0.00015
38.5 0.00009
38.55 0.00057
38.6 0.00072
38.65 0.00142
38.7 0.00157
38.75 0.00114
38.8 0.00094
38.85 0.00055
38.9 0.00073
38.95 0.00055
39 0.00037
39.05 -0.00015
39.1 -0.00083
39.15 -0.00154
39.2 -0.00129
39.25 -0.00064
39.3 -0.00074
39.35 -0.00091
39.4 -0.00129
39.45 -0.00139
39.5 -0.00097
39.55 -0.00122
39.6 -0.00191
39.65 -0.0018
39.7 -0.00115
39.75 -0.00052
39.8 0.00048
39.85 0.00091
39.9 0.00075
39.95 0.00078
40 0.00097
40.05 0.00104
40.1 0.00134
40.15 0.00119
40.2 0.00117
40.25 0.00114
40.3 0.00107
40.35 0.00116
40.4 0.00166
40.45 0.0016
40.5 0.00198
40.55 0.00151
40.6 0.00131
40.65 0.00053
40.7 0.00012
40.75 -0.00055
40.8 -0.00117
40.85 -0.00109
40.9 -0.00092
40.95 -0.00137
41 -0.0018
41.05 -0.00234
41.1 -0.00256
41.15 -0.00238
41.2 -0.00186
41.25 -0.00178
41.3 -0.00206
41.35 -0.00155
41.4 -0.00069
41.45 -0.00007
41.5 0.00054
41.55 0.00093
41.6 0.00127
41.65 0.00151
41.7 0.00178
41.75 0.0018
41.8 0.00202
41.85 0.00217
41.9 0.00197
41.95 0.00121
42 0.00109
42.05 0.00119
42.1 0.00146
42.15 0.00155
42.2 0.00117
42.25 0.00039
42.3 0.00043
42.35 -0.00013
42.4 0.00016
42.45 0.00091
42.5 0.0019
42.55 0.00173
42.6 0.00096
42.65 0.00097
42.7 0.00139
42.75 0.0012
42.8 0.00153
42.85 0.00165
42.9 0.0014
42.95 0.00059
43 -0.00037
43.05 -0.00082
43.1 -0.00153
43.15 -0.00136
43.2 -0.00065
43.25 0.00006
43.3 0.00017
43.35 0.00077
43.4 0.00062
43.45 -0.00014
43.5 -0.0008
43.55 -0.00102
43.6 -0.00073
43.65 -0.00015
43.7 0.00044
43.75 0.00074
43.8 0.00066
43.85 0.00075
43.9 0.00118
43.95 0.0008
44 -0.00005
44.05 -0.00046
44.1 -0.00028
44.15 -0.00073
44.2 -0.00157
44.25 -0.00166
44.3 -0.00167
44.35 -0.00181
44.4 -0.00194
44.45 -0.0015
44.5 -0.00056
44.55 0.00008
44.6 0.00056
44.65 0.00125
44.7 0.0012
44.75 0.0008
44.8 0.00052
44.85 0.00052
44.9 -0.00014
44.95 -0.00077
45 -0.00151
45.05 -0.0021
45.1 -0.00222
45.15 -0.00233
45.2 -0.0024
45.25 -0.00275
45.3 -0.00283
45.35 -0.00247
45.4 -0.00167
45.45 -0.001
45.5 0.00008
45.55 0.00098
45.6 0.00107
45.65 0.00064
45.7 -0.00032
45.75 -0.00155
45.8 -0.00175
45.85 -0.00122
45.9 -0.00051
45.95 -0.00049
46 -0.00108
46.05 -0.00075
46.1 -0.00105
46.15 -0.00132
46.2 -0.00101
46.25 -0.00096
46.3 -0.00052
46.35 0.00002
46.4 0.00047
46.45 0.00017
46.5 0
46.55 0.00054
46.6 0.00112
46.65 0.00122
46.7 0.00132
46.75 0.0007
46.8 0.00065
46.85 0.00071
46.9 0.00026
46.95 -0.00043
47 -0.00085
47.05 -0.00145
47.1 -0.00187
47.15 -0.00151
47.2 -0.00155
47.25 -0.00162
47.3 -0.00111
47.35 -0.00014
47.4 0.00053
47.45 0.00072
47.5 0.00121
47.55 0.00086
47.6 0.00046
47.65 0.00044
47.7 0.00094
47.75 0.00103
47.8 0.00052
47.85 0.00048
47.9 -0.0001
47.95 -0.00093
48 -0.00114
48.05 -0.00105
48.1 -0.00054
48.15 -0.0004
48.2 -0.0002
48.25 -0.00017
48.3 -0.00006
48.35 -0.00031
48.4 -0.00045
48.45 -0.00068
48.5 -0.00021
48.55 -0.00046
48.6 -0.00002
48.65 -0.00027
48.7 -0.00015
48.75 -0.00064
48.8 -0.00046
48.85 -0.00039
48.9 -0.0009
48.95 -0.00125
49 -0.00089
49.05 -0.00072
49.1 -0.00105
49.15 -0.00123
49.2 -0.00089
49.25 0.00004
49.3 0.00039
49.35 0.00047
49.4 0.00042
49.45 0.00005
49.5 0.00017
49.55 0.00035
49.6 0.00018
49.65 -0.00026
49.7 -0.00074
49.75 -0.00155
49.8 -0.00166
49.85 -0.00203
49.9 -0.00242
49.95 -0.00199
50 -0.00112
50.05 -0.00095
50.1 -0.00117
50.15 -0.00053
50.2 0.00032
50.25 0.00141
50.3 0.00243
50.35 0.0035
50.4 0.00362
50.45 0.00402
50.5 0.00415
50.55 0.00367
50.6 0.00336
50.65 0.00259
50.7 0.00253
50.75 0.00259
50.8 0.0022
50.85 0.00238
50.9 0.00184
50.95 0.00102
51 0.00012
51.05 -0.00035
51.1 -0.00038
51.15 -0.00097
51.2 -0.00085
51.25 -0.00052
51.3 -0.00077
51.35 -0.00112
51.4 -0.00164
51.45 -0.00224
51.5 -0.00223
51.55 -0.00265
51.6 -0.00314
51.65 -0.00274
51.7 -0.00178
51.75 -0.00144
51.8 -0.00176
51.85 -0.00188
51.9 -0.0019
51.95 -0.00147
52 -0.00163
52.05 -0.00134
52.1 -0.00129
52.15 -0.00117
52.2 -0.00158
52.25 -0.00189
52.3 -0.00252
52.35 -0.00312
52.4 -0.00345
52.45 -0.00356
52.5 -0.00265
52.55 -0.00121
52.6 0.00017
52.65 0.00086
52.7 0.00139
52.75 0.00182
52.8 0.00155
52.85 0.00121
52.9 0.00036
52.95 -0.00067
53 -0.00081
53.05 -0.00054
53.1 0.00011
53.15 0.00055
53.2 0.0006
53.25 0.0006
53.3 0.00055
53.35 -0.00012
53.4 0.0001
53.45 0.00028
53.5 0.00025
53.55 -0.00001
53.6 -0.00058
53.65 -0.00071
53.7 -0.00086
53.75 -0.00054
53.8 0.00001
53.85 0.00013
53.9 0.00001
53.95 -0.0002
54 -0.00028
54.05 -0.00013
54.1 0.00009
54.15 -0.00036
54.2 -0.00108
54.25 -0.00125
54.3 -0.00079
54.35 -0.00046
54.4 -0.00023
54.45 -0.00054
54.5 -0.00084
54.55 -0.00143
54.6 -0.00175
54.65 -0.00203
54.7 -0.00195
54.75 -0.00152
54.8 -0.00168
54.85 -0.00209
54.9 -0.00224
54.95 -0.00253
55 -0.0019
55.05 -0.00159
55.1 -0.00094
55.15 -0.00055
55.2 -0.0004
55.25 -0.00024
55.3 -0.00046
55.35 -0.00053
55.4 0.00005
55.45 0.00086
55.5 0.00087
55.55 0.00083
55.6 0.00102
55.65 0.00172
55.7 0.00149
55.75 0.00102
55.8 0.00014
55.85 0.0002
55.9 0.00088
55.95 0.0007
56 -0.00002
56.05 0.00022
56.1 0.00042
56.15 0.00053
56.2 0.00008
56.25 -0.0004
56.3 -0.00007
56.35 -0.00014
56.4 0.00021
56.45 0.00006
56.5 0.00026
56.55 0.00072
56.6 0.00142
56.65 0.00187
56.7 0.00198
56.75 0.00128
56.8 0.00125
56.85 0.00086
56.9 0.00051
56.95 -0.00031
57 -0.00061
57.05 -0.00119
57.1 -0.0012
57.15 -0.00143
57.2 -0.00076
57.25 -0.00082
57.3 -0.00101
57.35 -0.00084
57.4 -0.00119
57.45 -0.0016
57.5 -0.00179
57.55 -0.00116
57.6 -0.00025
57.65 0.00037
57.7 0.00047
57.75 0.00004
57.8 -0.00064
57.85 -0.00169
57.9 -0.00214
57.95 -0.0026
58 -0.00269
58.05 -0.00339
58.1 -0.0037
58.15 -0.00368
58.2 -0.00452
58.25 -0.00525
58.3 -0.00687
58.35 -0.00932
58.4 -0.01196
58.45 -0.01487
58.5 -0.01716
58.55 -0.01957
58.6 -0.02247
58.65 -0.02615
58.7 -0.03063
58.75 -0.03559
58.8 -0.041
58.85 -0.04749
58.9 -0.05514
58.95 -0.06393
59 -0.07292
59.05 -0.08302
59.1 -0.09403
59.15 -0.10622
59.2 -0.11909
59.25 -0.1325
59.3 -0.14718
59.35 -0.16262
59.4 -0.17944
59.45 -0.19637
59.5 -0.21449
59.55 -0.23245
59.6 -0.25072
59.65 -0.26916
59.7 -0.2869
59.75 -0.30407
59.8 -0.32083
59.85 -0.33647
59.9 -0.35156
59.95 -0.36556
60 -0.37748
60.05 -0.38699
60.1 -0.3948
60.15 -0.40038
60.2 -0.4031
60.25 -0.40333
60.3 -0.40188
60.35 -0.39779
60.4 -0.39152
60.45 -0.38224
60.5 -0.36975
60.55 -0.35432
60.6 -0.3371
60.65 -0.31772
60.7 -0.29668
60.75 -0.27416
60.8 -0.24914
60.85 -0.22339
60.9 -0.1969
60.95 -0.16903
61 -0.14119
61.05 -0.11327
61.1 -0.085
61.15 -0.05657
61.2 -0.02759
61.25 0.00145
61.3 0.03014
61.35 0.05826
61.4 0.08473
61.45 0.10953
61.5 0.13279
61.55 0.15551
61.6 0.17685
61.65 0.19783
61.7 0.21729
61.75 0.23563
61.8 0.25264
61.85 0.26939
61.9 0.28543
61.95 0.30035
62 0.31377
62.05 0.32513
62.1 0.33556
62.15 0.34493
62.2 0.35279
62.25 0.35881
62.3 0.36348
62.35 0.36745
62.4 0.37009
62.45 0.37158
62.5 0.37225
62.55 0.37222
62.6 0.37136
62.65 0.3692
62.7 0.36613
62.75 0.36111
62.8 0.35552
62.85 0.34859
62.9 0.34152
62.95 0.33389
63 0.32558
63.05 0.31699
63.1 0.30804
63.15 0.29869
63.2 0.28948
63.25 0.27967
63.3 0.27006
63.35 0.25975
63.4 0.24989
63.45 0.24057
63.5 0.23117
63.55 0.22151
63.6 0.21161
63.65 0.20212
63.7 0.1939
63.75 0.1855
63.8 0.17723
63.85 0.16917
63.9 0.1615
63.95 0.1549
64 0.14817
64.05 0.14158
64.1 0.13471
64.15 0.12834
64.2 0.12204
64.25 0.11623
64.3 0.11153
64.35 0.10744
64.4 0.10309
64.45 0.09875
64.5 0.09389
64.55 0.08909
64.6 0.08482
64.65 0.07993
64.7 0.07483
64.75 0.07
64.8 0.06577
64.85 0.06188
64.9 0.05819
64.95 0.05413
65 0.05053
65.05 0.04657
65.1 0.04235
65.15 0.03892
65.2 0.03533
65.25 0.03252
65.3 0.02965
65.35 0.02626
65.4 0.02342
65.45 0.02066
65.5 0.01721
65.55 0.0146
65.6 0.01176
65.65 0.00875
65.7 0.00571
65.75 0.00235
65.8 -0.0003
65.85 -0.00355
65.9 -0.00631
65.95 -0.00825
66 -0.00989
66.05 -0.0116
66.1 -0.01325
66.15 -0.01552
66.2 -0.01851
66.25 -0.02093
66.3 -0.02339
66.35 -0.02521
66.4 -0.02687
66.45 -0.02828
66.5 -0.03049
66.55 -0.03277
66.6 -0.03512
66.65 -0.03766
66.7 -0.0401
66.75 -0.04206
66.8 -0.04318
66.85 -0.0439
66.9 -0.04459
66.95 -0.04566
67 -0.04576
67.05 -0.04642
67.1 -0.0474
67.15 -0.04756
67.2 -0.04824
67.25 -0.04908
67.3 -0.04947
67.35 -0.04967
67.4 -0.04953
67.45 -0.04985
67.5 -0.04942
67.55 -0.04898
67.6 -0.0484
67.65 -0.04852
67.7 -0.04787
67.75 -0.04695
67.8 -0.04688
67.85 -0.04664
67.9 -0.0459
67.95 -0.04608
68 -0.0465
68.05 -0.04709
68.1 -0.04712
68.15 -0.04646
68.2 -0.04595
68.25 -0.04586
68.3 -0.04592
68.35 -0.04554
68.4 -0.04478
68.45 -0.04387
68.5 -0.04296
68.55 -0.04272
68.6 -0.0428
68.65 -0.04306
68.7 -0.0435
68.75 -0.04362
68.8 -0.04292
68.85 -0.04235
68.9 -0.04111
68.95 -0.03954
69 -0.038
69.05 -0.03711
69.1 -0.03598
69.15 -0.03446
69.2 -0.03314
69.25 -0.03258
69.3 -0.03203
69.35 -0.03203
69.4 -0.03264
69.45 -0.0323
69.5 -0.03199
69.55 -0.03159
69.6 -0.03073
69.65 -0.03039
69.7 -0.03023
69.75 -0.03005
69.8 -0.03031
69.85 -0.02967
69.9 -0.02869
69.95 -0.02774
70 -0.02737
70.05 -0.02731
70.1 -0.02707
70.15 -0.02676
70.2 -0.02573
70.25 -0.02533
70.3 -0.02505
70.35 -0.02478
70.4 -0.02472
70.45 -0.02473
70.5 -0.02433
70.55 -0.02421
70.6 -0.02362
70.65 -0.02305
70.7 -0.02195
70.75 -0.02169
70.8 -0.0217
70.85 -0.02168
70.9 -0.02166
70.95 -0.02207
71 -0.02235
71.05 -0.0223
71.1 -0.02158
71.15 -0.0209
71.2 -0.02016
71.25 -0.01902
71.3 -0.01837
71.35 -0.01769
71.4 -0.01767
71.45 -0.01814
71.5 -0.01854
71.55 -0.01822
71.6 -0.01832
71.65 -0.01853
71.7 -0.01876
71.75 -0.01901
71.8 -0.01889
71.85 -0.01819
71.9 -0.01775
71.95 -0.0167
72 -0.01522
72.05 -0.01477
72.1 -0.0138
72.15 -0.01248
72.2 -0.01152
72.25 -0.01033
72.3 -0.00991
72.35 -0.00919
72.4 -0.00924
72.45 -0.01013
72.5 -0.01068
72.55 -0.0107
72.6 -0.01124
72.65 -0.0121
72.7 -0.01196
72.75 -0.01197
72.8 -0.01145
72.85 -0.01135
72.9 -0.01158
72.95 -0.01166
73 -0.01172
73.05 -0.0115
73.1 -0.01093
73.15 -0.01076
73.2 -0.01047
73.25 -0.00973
73.3 -0.00911
73.35 -0.0082
73.4 -0.00802
73.45 -0.00854
73.5 -0.00862
73.55 -0.00925
73.6 -0.00974
73.65 -0.01038
73.7 -0.01093
73.75 -0.01078
73.8 -0.01012
73.85 -0.00902
73.9 -0.0084
73.95 -0.00787
74 -0.00695
74.05 -0.00687
74.1 -0.00631
74.15 -0.00643
74.2 -0.00614
74.25 -0.00596
74.3 -0.00617
74.35 -0.00682
74.4 -0.00772
74.45 -0.00798
74.5 -0.00778
74.55 -0.00798
74.6 -0.0074
74.65 -0.00688
74.7 -0.00588
74.75 -0.0055
74.8 -0.00518
74.85 -0.00545
74.9 -0.00535
74.95 -0.00467
75 -0.00453
75.05 -0.00503
75.1 -0.00486
75.15 -0.00483
75.2 -0.00511
75.25 -0.00558
75.3 -0.00639
75.35 -0.00633
75.4 -0.00662
75.45 -0.00677
75.5 -0.00647
75.55 -0.00548
75.6 -0.00501
75.65 -0.0045
75.7 -0.00396
75.75 -0.00411
75.8 -0.00438
75.85 -0.00472
75.9 -0.00512
75.95 -0.00473
76 -0.00468
76.05 -0.00445
76.1 -0.00401
76.15 -0.0038
76.2 -0.00364
76.25 -0.00338
76.3 -0.00284
76.35 -0.003
76.4 -0.00335
76.45 -0.00349
76.5 -0.00411
76.55 -0.00483
76.6 -0.00453
76.65 -0.0039
76.7 -0.00364
76.75 -0.00344
76.8 -0.00342
76.85 -0.00331
76.9 -0.00297
76.95 -0.00246
77 -0.00197
77.05 -0.00169
77.1 -0.00206
77.15 -0.00194
77.2 -0.00145
77.25 -0.00096
77.3 -0.00144
77.35 -0.00174
77.4 -0.00174
77.45 -0.00121
77.5 -0.00157
77.55 -0.00227
77.6 -0.00244
77.65 -0.00312
77.7 -0.00372
77.75 -0.00395
77.8 -0.00388
77.85 -0.0039
77.9 -0.00432
77.95 -0.00404
78 -0.0031
78.05 -0.00295
78.1 -0.00339
78.15 -0.00293
78.2 -0.00261
78.25 -0.00224
78.3 -0.00259
78.35 -0.00261
78.4 -0.00207
78.45 -0.00169
78.5 -0.00151
78.55 -0.00077
78.6 -0.00079
78.65 -0.00097
78.7 -0.00123
78.75 -0.0009
78.8 -0.001
78.85 -0.00056
78.9 0.00027
78.95 0.00128
79 0.00198
79.05 0.00213
79.1 0.00215
79.15 0.00165
79.2 0.00073
79.25 -0.00004
79.3 -0.00031
79.35 -0.00097
79.4 -0.00209
79.45 -0.00302
79.5 -0.00284
79.55 -0.00259
79.6 -0.00266
79.65 -0.00204
79.7 -0.00147
79.75 -0.00086
79.8 0.00003
79.85 0.00035
79.9 0.00038
79.95 -0.00008
80 -0.00073
80.05 -0.00102
80.1 -0.00112
80.15 -0.00138
80.2 -0.00149
80.25 -0.00161
80.3 -0.00113
80.35 -0.00044
80.4 -0.0001
80.45 0.00064
80.5 0.00144
80.55 0.00182
80.6 0.00229
80.65 0.00177
80.7 0.00085
80.75 -0.00022
80.8 -0.00082
80.85 -0.00153
80.9 -0.0021
80.95 -0.00285
81 -0.00295
81.05 -0.0026
81.1 -0.00207
81.15 -0.00213
81.2 -0.0025
81.25 -0.00327
81.3 -0.00358
81.35 -0.00364
81.4 -0.00347
81.45 -0.00373
81.5 -0.00395
81.55 -0.00417
81.6 -0.0039
81.65 -0.0034
81.7 -0.00246
81.75 -0.00156
81.8 -0.00128
81.85 -0.00124
81.9 -0.00059
81.95 -0.00016
82 0.00073
82.05 0.0009
82.1 0.00138
82.15 0.0016
82.2 0.00187
82.25 0.00174
82.3 0.00176
82.35 0.00132
82.4 0.00046
82.45 -0.0005
82.5 -0.00137
82.55 -0.00189
82.6 -0.00165
82.65 -0.0019
82.7 -0.00253
82.75 -0.00341
82.8 -0.00425
82.85 -0.00504
82.9 -0.00532
82.95 -0.00456
83 -0.00366
83.05 -0.00266
83.1 -0.00162
83.15 -0.00116
83.2 -0.0012
83.25 -0.00167
83.3 -0.00183
83.35 -0.00152
83.4 -0.00099
83.45 -0.00043
83.5 -0.00019
83.55 -0.00041
83.6 -0.00072
83.65 -0.00093
83.7 -0.00163
83.75 -0.00182
83.8 -0.00224
83.85 -0.00263
83.9 -0.00283
83.95 -0.00274
84 -0.00229
84.05 -0.00149
84.1 -0.00146
84.15 -0.00111
84.2 -0.00019
84.25 0.00063
84.3 0.00068
84.35 0.00089
84.4 0.00096
84.45 0.00128
84.5 0.00126
84.55 0.00105
84.6 0.00069
84.65 0.00059
84.7 0.00045
84.75 0.00063
84.8 0.00081
84.85 0.00024
84.9 -0.00072
84.95 -0.00145
85 -0.00173
85.05 -0.00216
85.1 -0.00238
85.15 -0.0024
85.2 -0.00248
85.25 -0.00288
85.3 -0.00321
85.35 -0.00299
85.4 -0.00274
85.45 -0.00222
85.5 -0.00208
85.55 -0.00135
85.6 -0.0011
85.65 -0.00082
85.7 -0.00059
85.75 -0.0003
85.8 0.00008
85.85 -0.00021
85.9 -0.00069
85.95 -0.00087
86 -0.00028
86.05 -0.00028
86.1 0.0004
86.15 0.00086
86.2 0.00057
86.25 0.0008
86.3 0.00076
86.35 0.00113
86.4 0.00088
86.45 0.00082
86.5 0.00066
86.55 0.00077
86.6 0.00093
86.65 0.0008
86.7 0.00036
86.75 0.00002
86.8 -0.00043
86.85 -0.0002
86.9 0.00052
86.95 0.00139
87 0.00186
87.05 0.00242
87.1 0.00303
87.15 0.00281
87.2 0.00204
87.25 0.00117
87.3 -0.00005
87.35 -0.00047
87.4 -0.00131
87.45 -0.00173
87.5 -0.00194
87.55 -0.00144
87.6 -0.0012
87.65 -0.00098
87.7 -0.00045
87.75 -0.00009
87.8 0.00019
87.85 0.00089
87.9 0.00094
87.95 0.00129
88 0.00095
88.05 0.00095
88.1 0.00024
88.15 -0.00063
88.2 -0.00132
88.25 -0.001
88.3 -0.00034
88.35 0.00063
88.4 0.00121
88.45 0.00201
88.5 0.00211
88.55 0.00146
88.6 0.0007
88.65 -0.00021
88.7 -0.00068
88.75 -0.00129
88.8 -0.00187
88.85 -0.00197
88.9 -0.00204
88.95 -0.00218
89 -0.00215
89.05 -0.00247
89.1 -0.00211
89.15 -0.00225
89.2 -0.00241
89.25 -0.00181
89.3 -0.00074
89.35 -0.00026
89.4 0.00046
89.45 0.00114
89.5 0.00198
89.55 0.00238
89.6 0.00283
89.65 0.00243
89.7 0.00215
89.75 0.00248
89.8 0.00239
89.85 0.00259
89.9 0.00269
89.95 0.00266
90 0.00262
90.05 0.0022
90.1 0.002
90.15 0.00144
90.2 0.00048
90.25 0.00016
90.3 0.00011
90.35 -0.00031
90.4 -0.00033
90.45 -0.00096
90.5 -0.00108
90.55 -0.00141
90.6 -0.00092
90.65 -0.00097
90.7 -0.00142
90.75 -0.00194
90.8 -0.00173
90.85 -0.001
90.9 -0.00015
90.95 0.0007
91 0.0015
91.05 0.00183
91.1 0.00224
91.15 0.00208
91.2 0.00244
91.25 0.00309
91.3 0.00385
91.35 0.00376
91.4 0.00386
91.45 0.00337
91.5 0.00246
91.55 0.00199
91.6 0.0015
91.65 0.00063
91.7 -0.0003
91.75 -0.00117
91.8 -0.00218
91.85 -0.00205
91.9 -0.00148
91.95 -0.00037
92 -0.0001
92.05 -0.00051
92.1 -0.00023
92.15 -0.00062
92.2 -0.00087
92.25 -0.00101
92.3 -0.00077
92.35 -0.00021
92.4 -0.00025
92.45 -0.00015
92.5 -0.0003
92.55 0.00011
92.6 0.00094
92.65 0.00145
92.7 0.00176
92.75 0.00122
92.8 0.0014
92.85 0.00141
92.9 0.00076
92.95 -0.00024
93 -0.00036
93.05 -0.00054
93.1 -0.00022
93.15 -0.00033
93.2 -0.00058
93.25 -0.00107
93.3 -0.00093
93.35 -0.00045
93.4 0.0001
93.45 0
93.5 -0.00071
93.55 -0.00138
93.6 -0.00173
93.65 -0.00233
93.7 -0.00188
93.75 -0.00105
93.8 -0.00087
93.85 -0.00044
93.9 -0.00005
93.95 0.00015
94 0.00026
94.05 0.00057
94.1 0.00093
94.15 0.00134
94.2 0.00173
94.25 0.00149
94.3 0.00104
94.35 0.00051
94.4 0.00001
94.45 -0.00074
94.5 -0.0013
94.55 -0.00201
94.6 -0.0021
94.65 -0.00165
94.7 -0.00161
94.75 -0.0016
94.8 -0.00095
94.85 -0.0004
94.9 0.00061
94.95 0.00136
95 0.00143
95.05 0.00087
95.1 0.00084
95.15 0.00119
95.2 0.00184
95.25 0.00163
95.3 0.001
95.35 0.00074
95.4 0.00095
95.45 0.00075
95.5 0.00058
95.55 0.00071
95.6 0.00083
95.65 0.00034
95.7 0.00034
95.75 0.00088
95.8 0.00087
95.85 0.00125
95.9 0.00094
95.95 0.00045
96 0.00004
96.05 0.00011
96.1 0.00009
96.15 -0.00045
96.2 -0.0007
96.25 -0.00134
96.3 -0.00108
96.35 -0.00078
96.4 -0.00095
96.45 -0.00166
96.5 -0.00183
96.55 -0.00178
96.6 -0.0018
96.65 -0.0016
96.7 -0.00177
96.75 -0.00185
96.8 -0.00214
96.85 -0.00187
96.9 -0.00091
96.95 -0.00089
97 -0.00044
97.05 0.00001
97.1 0.00001
97.15 -0.00052
97.2 -0.00139
97.25 -0.00198
97.3 -0.00233
97.35 -0.0026
97.4 -0.00208
97.45 -0.00215
97.5 -0.00239
97.55 -0.00279
97.6 -0.00281
97.65 -0.00315
97.7 -0.00287
97.75 -0.00285
97.8 -0.00247
97.85 -0.00253
97.9 -0.0023
97.95 -0.00186
98 -0.00187
98.05 -0.00221
98.1 -0.0021
98.15 -0.00172
98.2 -0.00123
98.25 -0.00112
98.3 -0.00098
98.35 -0.00088
98.4 -0.00039
98.45 0.00064
98.5 0.00143
98.55 0.00145
98.6 0.00181
98.65 0.00246
98.7 0.00307
98.75 0.00382
98.8 0.00359
98.85 0.00373
98.9 0.00372
98.95 0.00389
99 0.00426
99.05 0.00416
99.1 0.00413
99.15 0.00341
99.2 0.00289
99.25 0.00226
99.3 0.00163
99.35 0.00121
99.4 0.00143
99.45 0.00203
99.5 0.00239
99.55 0.00289
99.6 0.0034
99.65 0.00278
99.7 0.00172
99.75 0.00079
99.8 -0.00037
99.85 -0.00153
99.9 -0.0017
99.95 -0.0018
