0 0
0.05 0.00133
0.1 0.0028
0.15 0.00361
0.2 0.00445
0.25 0.00576
0.3 0.00618
0.35 0.00708
0.4 0.00751
0.45 0.00729
0.5 0.00692
0.55 0.00695
0.6 0.00681
0.65 0.00721
0.7 0.00708
0.75 0.00657
0.8 0.00578
0.85 0.00561
0.9 0.00624
0.95 0.00704
1 0.00712
1.05 0.00734
1.1 0.0073
1.15 0.0072
1.2 0.00688
1.25 0.00658
1.3 0.00568
1.35 0.00454
1.4 0.00464
1.45 0.00418
1.5 0.00363
1.55 0.00383
1.6 0.00353
1.65 0.00411
1.7 0.00404
1.75 0.00469
1.8 0.00464
1.85 0.00406
1.9 0.00343
1.95 0.00353
2 0.00348
2.05 0.00328
2.1 0.00402
2.15 0.00388
2.2 0.0043
2.25 0.00443
2.3 0.00487
2.35 0.00469
2.4 0.00444
2.45 0.0051
2.5 0.0054
2.55 0.00575
2.6 0.00651
2.65 0.00645
2.7 0.00577
2.75 0.00483
2.8 0.00496
2.85 0.00474
2.9 0.00437
2.95 0.00419
3 0.00386
3.05 0.00339
3.1 0.00337
3.15 0.00381
3.2 0.00344
3.25 0.00274
3.3 0.00252
3.35 0.00205
3.4 0.00262
3.45 0.00283
3.5 0.0027
3.55 0.00268
3.6 0.00257
3.65 0.00325
3.7 0.00301
3.75 0.00341
3.8 0.00383
3.85 0.00399
3.9 0.00411
3.95 0.00365
4 0.00404
4.05 0.00363
4.1 0.00323
4.15 0.00232
4.2 0.00196
4.25 0.00205
4.3 0.00241
4.35 0.00228
4.4 0.00172
4.45 0.00219
4.5 0.00288
4.55 0.00357
4.6 0.00346
4.65 0.00402
4.7 0.00392
4.75 0.00342
4.8 0.00233
4.85 0.00224
4.9 0.00181
4.95 0.00133
5 0.00103
5.05 0.0016
5.1 0.00149
5.15 0.00218
5.2 0.00196
5.25 0.00248
5.3 0.00296
5.35 0.0027
5.4 0.00258
5.45 0.00211
5.5 0.00121
5.55 0.00113
5.6 0.00099
5.65 0.00142
5.7 0.00194
5.75 0.00261
5.8 0.00316
5.85 0.00372
5.9 0.0038
5.95 0.0038
6 0.00387
6.05 0.00353
6.1 0.00334
6.15 0.00322
6.2 0.00368
6.25 0.0041
6.3 0.00432
6.35 0.00418
6.4 0.00343
6.45 0.0023
6.5 0.0008
6.55 0.0003
6.6 -0.0006
6.65 -0.00158
6.7 -0.00248
6.75 -0.00228
6.8 -0.00139
6.85 -0.00019
6.9 0.0006
6.95 0.00124
7 0.00174
7.05 0.00151
7.1 0.00164
7.15 0.00184
7.2 0.002
7.25 0.00232
7.3 0.00305
7.35 0.00338
7.4 0.00333
7.45 0.00327
7.5 0.00324
7.55 0.00361
7.6 0.00349
7.65 0.00348
7.7 0.0035
7.75 0.00393
7.8 0.00456
7.85 0.00467
7.9 0.00417
7.95 0.00351
8 0.0031
8.05 0.00211
8.1 0.00118
8.15 0.00051
8.2 -0.00008
8.25 -0.00084
8.3 -0.00151
8.35 -0.00236
8.4 -0.00335
8.45 -0.00425
8.5 -0.00433
8.55 -0.00411
8.6 -0.00355
8.65 -0.00323
8.7 -0.00231
8.75 -0.00164
8.8 -0.00103
8.85 0.00023
8.9 0.00148
8.95 0.00179
9 0.00155
9.05 0.00158
9.1 0.00221
9.15 0.00247
9.2 0.00293
9.25 0.00284
9.3 0.00311
9.35 0.0034
9.4 0.00324
9.45 0.00332
9.5 0.00238
9.55 0.00218
9.6 0.00198
9.65 0.00134
9.7 0.00055
9.75 0.00077
9.8 0.00039
9.85 -0.00056
9.9 -0.00078
9.95 -0.00108
10 -0.00186
10.05 -0.0026
10.1 -0.00321
10.15 -0.00338
10.2 -0.00341
10.25 -0.00238
10.3 -0.00204
10.35 -0.00224
10.4 -0.00271
10.45 -0.00318
10.5 -0.00389
10.55 -0.00439
10.6 -0.00396
10.65 -0.00353
10.7 -0.00265
10.75 -0.00111
10.8 -0.00022
10.85 0.0001
10.9 -0.00036
10.95 -0.00045
11 -0.00041
11.05 -0.00018
11.1 0.0006
11.15 0.00126
11.2 0.00183
11.25 0.00227
11.3 0.00265
11.35 0.00327
11.4 0.00378
11.45 0.0039
11.5 0.00352
11.55 0.00278
11.6 0.00182
11.65 0.00165
11.7 0.00088
11.75 0.00035
11.8 -0.00059
11.85 -0.00143
11.9 -0.00166
11.95 -0.0019
12 -0.00195
12.05 -0.00196
12.1 -0.00143
12.15 -0.00068
12.2 0.00051
12.25 0.00139
12.3 0.00259
12.35 0.00364
12.4 0.00428
12.45 0.00377
12.5 0.00338
12.55 0.00213
12.6 0.00137
12.65 0.00057
12.7 -0.0005
12.75 -0.00056
12.8 0.00017
12.85 -0.0001
12.9 0.00012
12.95 0.00013
13 0.0002
13.05 0.00066
13.1 0.00041
13.15 0.00067
13.2 0.00029
13.25 -0.00016
13.3 -0.00031
13.35 -0.00035
13.4 -0.00028
13.45 -0.00004
13.5 0.0004
13.55 -0.00004
13.6 0.00034
13.65 0.00047
13.7 0.00046
13.75 0.0009
13.8 0.00154
13.85 0.00154
13.9 0.00175
13.95 0.00181
14 0.00206
14.05 0.00147
14.1 0.00161
14.15 0.00116
14.2 0.00148
14.25 0.00198
14.3 0.00204
14.35 0.00208
14.4 0.00129
14.45 0.00096
14.5 0.00032
14.55 0.00013
14.6 -0.00024
14.65 -0.00121
14.7 -0.00241
14.75 -0.00248
14.8 -0.00223
14.85 -0.00124
14.9 -0.00074
14.95 0.00016
15 0.00117
15.05 0.00182
15.1 0.00236
15.15 0.00249
15.2 0.00179
15.25 0.00171
15.3 0.00185
15.35 0.00185
15.4 0.00185
15.45 0.00131
15.5 0.00029
15.55 0.00014
15.6 -0.00033
15.65 -0.00122
15.7 -0.00106
15.75 -0.00024
15.8 0.00053
15.85 0.00149
15.9 0.00177
15.95 0.00251
16 0.00205
16.05 0.00203
16.1 0.00145
16.15 0.00115
16.2 0.00034
16.25 -0.00071
16.3 -0.00121
16.35 -0.00088
16.4 -0.00118
16.45 -0.0017
16.5 -0.00188
16.55 -0.00135
16.6 -0.00108
16.65 -0.00063
16.7 -0.00095
16.75 -0.0012
16.8 -0.00122
16.85 -0.00113
16.9 -0.00068
16.95 -0.0006
17 -0.0001
17.05 0.00094
17.1 0.00084
17.15 0.00024
17.2 -0.00032
17.25 -0.00058
17.3 -0.0011
17.35 -0.00135
17.4 -0.00158
17.45 -0.002
17.5 -0.00198
17.55 -0.00234
17.6 -0.00305
17.65 -0.00277
17.7 -0.00241
17.75 -0.0016
17.8 -0.00058
17.85 0.00023
17.9 0.00106
17.95 0.00197
18 0.00241
18.05 0.00207
18.1 0.00182
18.15 0.00155
18.2 0.00109
18.25 0.00006
18.3 0.00001
18.35 -0.00006
18.4 0.00029
18.45 0.00104
18.5 0.00091
18.55 0.00029
18.6 0.00029
18.65 -0.00015
18.7 -0.00084
18.75 -0.0013
18.8 -0.00127
18.85 -0.00165
18.9 -0.00154
18.95 -0.00153
19 -0.00179
19.05 -0.0013
19.1 -0.00043
19.15 -0.00005
19.2 -0.00025
19.25 -0.00073
19.3 -0.00027
19.35 0.00005
19.4 -0.0002
19.45 -0.00003
19.5 0.00032
19.55 0.00017
19.6 0.0007
19.65 0.00052
19.7 0.00095
19.75 0.00143
19.8 0.0023
19.85 0.00215
19.9 0.00221
19.95 0.00258
20 0.00316
20.05 0.00301
20.1 0.00286
20.15 0.00198
20.2 0.00138
20.25 0.00062
20.3 0.00069
20.35 0.00129
20.4 0.00095
20.45 0.00054
20.5 -0.00028
20.55 -0.00044
20.6 -0.00001
20.65 0.00055
20.7 0.00062
20.75 0.00025
20.8 -0.00006
20.85 0.00009
20.9 0.00084
20.95 0.00122
21 0.002
21.05 0.00232
21.1 0.00182
21.15 0.00106
21.2 0.00113
21.25 0.00049
21.3 -0.00039
21.35 -0.00151
21.4 -0.00288
21.45 -0.00314
21.5 -0.00298
21.55 -0.00297
21.6 -0.00338
21.65 -0.00282
21.7 -0.00296
21.75 -0.00249
21.8 -0.00253
21.85 -0.00282
21.9 -0.00229
21.95 -0.00148
22 -0.00023
22.05 0.00094
22.1 0.00144
22.15 0.00153
22.2 0.00172
22.25 0.00123
22.3 0.00134
22.35 0.00133
22.4 0.0019
22.45 0.00191
22.5 0.0023
22.55 0.00264
22.6 0.00319
22.65 0.00368
22.7 0.00317
22.75 0.00238
22.8 0.00189
22.85 0.0011
22.9 0.00094
22.95 0.0003
23 -0.00061
23.05 -0.00193
23.1 -0.00296
23.15 -0.00376
23.2 -0.004
23.25 -0.00316
23.3 -0.00295
23.35 -0.0021
23.4 -0.00196
23.45 -0.00226
23.5 -0.00284
23.55 -0.00372
23.6 -0.0034
23.65 -0.00304
23.7 -0.00195
23.75 -0.00179
23.8 -0.00123
23.85 -0.00127
23.9 -0.00188
23.95 -0.00206
24 -0.00212
24.05 -0.00266
24.1 -0.00245
24.15 -0.00169
24.2 -0.00063
24.25 0.00057
24.3 0.00097
24.35 0.00076
24.4 0.00117
24.45 0.00069
24.5 0.0001
24.55 -0.00002
24.6 -0.00043
24.65 -0.00109
24.7 -0.00199
24.75 -0.00258
24.8 -0.00287
24.85 -0.00255
24.9 -0.00177
24.95 -0.00051
25 -0.00035
25.05 -0.00037
25.1 0.00032
25.15 0.00006
25.2 -0.00007
25.25 -0.00041
25.3 -0.00112
25.35 -0.00164
25.4 -0.00231
25.45 -0.00213
25.5 -0.00254
25.55 -0.00258
25.6 -0.00166
25.65 -0.00118
25.7 -0.00066
25.75 0.00038
25.8 0.00163
25.85 0.00199
25.9 0.00268
25.95 0.00288
26 0.00325
26.05 0.00379
26.1 0.00372
26.15 0.00341
26.2 0.00262
26.25 0.00144
26.3 0.00043
26.35 -0.00097
26.4 -0.00167
26.45 -0.00267
26.5 -0.00268
26.55 -0.00305
26.6 -0.00316
26.65 -0.00304
26.7 -0.00223
26.75 -0.00086
26.8 -0.0005
26.85 -0.00037
26.9 -0.00054
26.95 -0.00121
27 -0.00118
27.05 -0.00162
27.1 -0.00146
27.15 -0.00084
27.2 -0.00085
27.25 -0.0009
27.3 -0.00082
27.35 -0.00031
27.4 0.00076
27.45 0.00142
27.5 0.00171
27.55 0.00115
27.6 0.00109
27.65 0.0013
27.7 0.00098
27.75 0.00069
27.8 0.00057
27.85 0.00085
27.9 0.00133
27.95 0.00139
28 0.00188
28.05 0.00248
28.1 0.00298
28.15 0.00242
28.2 0.00175
28.25 0.00191
28.3 0.00213
28.35 0.00136
28.4 0.00041
28.45 0.00018
28.5 0.0004
28.55 0.00053
28.6 0.00101
28.65 0.0013
28.7 0.00122
28.75 0.00089
28.8 0.00013
28.85 -0.00042
28.9 -0.00047
28.95 -0.00039
29 -0.0006
29.05 -0.00024
29.1 0.00072
29.15 0.001
29.2 0.00072
29.25 0.00065
29.3 0.00047
29.35 0.0002
29.4 0.00005
29.45 -0.00027
29.5 -0.00088
29.55 -0.00096
29.6 -0.00145
29.65 -0.00227
29.7 -0.00281
29.75 -0.00286
29.8 -0.0026
29.85 -0.00192
29.9 -0.00098
29.95 -0.00102
30 -0.00134
30.05 -0.00147
30.1 -0.00222
30.15 -0.00413
30.2 -0.00652
30.25 -0.00808
30.3 -0.00926
30.35 -0.01025
30.4 -0.01222
30.45 -0.01544
30.5 -0.01877
30.55 -0.0221
30.6 -0.02643
30.65 -0.03178
30.7 -0.03733
30.75 -0.04275
30.8 -0.04915
30.85 -0.05643
30.9 -0.06496
30.95 -0.0748
31 -0.08596
31.05 -0.09809
31.1 -0.11129
31.15 -0.12501
31.2 -0.13902
31.25 -0.15294
31.3 -0.16855
31.35 -0.18558
31.4 -0.20349
31.45 -0.22165
31.5 -0.23953
31.55 -0.25835
31.6 -0.27724
31.65 -0.29566
31.7 -0.31385
31.75 -0.33267
31.8 -0.35045
31.85 -0.36799
31.9 -0.38442
31.95 -0.39919
32 -0.41301
32.05 -0.42527
32.1 -0.43436
32.15 -0.44051
32.2 -0.44359
32.25 -0.44472
32.3 -0.44269
32.35 -0.43822
32.4 -0.43082
32.45 -0.42092
32.5 -0.40739
32.55 -0.39142
32.6 -0.37266
32.65 -0.35232
32.7 -0.33024
32.75 -0.30531
32.8 -0.27893
32.85 -0.25166
32.9 -0.22373
32.95 -0.19529
33 -0.16556
33.05 -0.13583
33.1 -0.10641
33.15 -0.07663
33.2 -0.04673
33.25 -0.01788
33.3 0.0098
33.35 0.03613
33.4 0.06052
33.45 0.08377
33.5 0.10579
33.55 0.12653
33.6 0.14593
33.65 0.16408
33.7 0.18137
33.75 0.1977
33.8 0.21338
33.85 0.2276
33.9 0.24083
33.95 0.2532
34 0.26521
34.05 0.27587
34.1 0.28595
34.15 0.29558
34.2 0.30547
34.25 0.31519
34.3 0.32437
34.35 0.33215
34.4 0.33956
34.45 0.34644
34.5 0.35228
34.55 0.35699
34.6 0.36119
34.65 0.36498
34.7 0.36911
34.75 0.37241
34.8 0.37548
34.85 0.37812
34.9 0.37915
34.95 0.37935
35 0.37945
35.05 0.37884
35.1 0.37759
35.15 0.37565
35.2 0.37287
35.25 0.36902
35.3 0.36359
35.35 0.35741
35.4 0.35054
35.45 0.3428
35.5 0.33525
35.55 0.32757
35.6 0.3193
35.65 0.31057
35.7 0.30153
35.75 0.2936
35.8 0.28549
35.85 0.27774
35.9 0.27017
35.95 0.26261
36 0.25494
36.05 0.24625
36.1 0.23742
36.15 0.22787
36.2 0.21918
36.25 0.2109
36.3 0.20223
36.35 0.19399
36.4 0.18554
36.45 0.17677
36.5 0.16765
36.55 0.15871
36.6 0.14989
36.65 0.14117
36.7 0.13198
36.75 0.12329
36.8 0.11461
36.85 0.10584
36.9 0.09824
36.95 0.09145
37 0.08539
37.05 0.07953
37.1 0.07347
37.15 0.06742
37.2 0.0605
37.25 0.05406
37.3 0.04817
37.35 0.04156
37.4 0.03518
37.45 0.02875
37.5 0.02215
37.55 0.01531
37.6 0.00933
37.65 0.00452
37.7 0.00018
37.75 -0.00396
37.8 -0.00776
37.85 -0.01105
37.9 -0.01549
37.95 -0.01923
38 -0.0225
38.05 -0.02655
38.1 -0.0303
38.15 -0.03401
38.2 -0.03821
38.25 -0.04235
38.3 -0.04587
38.35 -0.04899
38.4 -0.05199
38.45 -0.05358
38.5 -0.0546
38.55 -0.05546
38.6 -0.05713
38.65 -0.05817
38.7 -0.05853
38.75 -0.05887
38.8 -0.05997
38.85 -0.06064
38.9 -0.06176
38.95 -0.06302
39 -0.06411
39.05 -0.06433
39.1 -0.06423
39.15 -0.06384
39.2 -0.06356
39.25 -0.06292
39.3 -0.06277
39.35 -0.06246
39.4 -0.06266
39.45 -0.06263
39.5 -0.06299
39.55 -0.06392
39.6 -0.06402
39.65 -0.06395
39.7 -0.06339
39.75 -0.06331
39.8 -0.06363
39.85 -0.06364
39.9 -0.0632
39.95 -0.0631
40 -0.06242
40.05 -0.0617
40.1 -0.06023
40.15 -0.0582
40.2 -0.05641
40.25 -0.05573
40.3 -0.05472
40.35 -0.05318
40.4 -0.05253
40.45 -0.05191
40.5 -0.05075
40.55 -0.05056
40.6 -0.05013
40.65 -0.04911
40.7 -0.0486
40.75 -0.0476
40.8 -0.04721
40.85 -0.04648
40.9 -0.04587
40.95 -0.04539
41 -0.04567
41.05 -0.04579
41.1 -0.04597
41.15 -0.04642
41.2 -0.047
41.25 -0.04653
41.3 -0.04566
41.35 -0.04434
41.4 -0.04272
41.45 -0.04103
41.5 -0.03927
41.55 -0.03786
41.6 -0.03738
41.65 -0.0373
41.7 -0.03675
41.75 -0.03663
41.8 -0.03597
41.85 -0.0357
41.9 -0.03498
41.95 -0.03417
42 -0.03407
42.05 -0.0339
42.1 -0.03352
42.15 -0.03262
42.2 -0.03116
42.25 -0.02966
42.3 -0.02907
42.35 -0.02836
42.4 -0.02837
42.45 -0.02769
42.5 -0.02677
42.55 -0.02548
42.6 -0.02408
42.65 -0.02391
42.7 -0.02448
42.75 -0.02514
42.8 -0.02625
42.85 -0.02618
42.9 -0.02566
42.95 -0.02463
43 -0.02455
43.05 -0.02387
43.1 -0.02375
43.15 -0.02357
43.2 -0.02326
43.25 -0.0235
43.3 -0.02293
43.35 -0.02213
43.4 -0.02137
43.45 -0.02028
43.5 -0.01935
43.55 -0.0183
43.6 -0.01743
43.65 -0.01771
43.7 -0.01834
43.75 -0.01836
43.8 -0.0188
43.85 -0.0192
43.9 -0.01871
43.95 -0.01835
44 -0.01864
44.05 -0.01864
44.1 -0.01915
44.15 -0.01941
44.2 -0.01864
44.25 -0.01758
44.3 -0.0174
44.35 -0.01664
44.4 -0.01589
44.45 -0.01499
44.5 -0.0143
44.55 -0.01405
44.6 -0.01412
44.65 -0.01382
44.7 -0.01411
44.75 -0.01391
44.8 -0.01353
44.85 -0.01274
44.9 -0.01219
44.95 -0.01228
45 -0.0125
45.05 -0.01284
45.1 -0.01296
45.15 -0.01252
45.2 -0.01206
45.25 -0.01141
45.3 -0.01077
45.35 -0.01009
45.4 -0.01051
45.45 -0.01119
45.5 -0.0119
45.55 -0.01302
45.6 -0.01383
45.65 -0.01347
45.7 -0.01343
45.75 -0.01345
45.8 -0.01258
45.85 -0.012
45.9 -0.01147
45.95 -0.01071
46 -0.01053
46.05 -0.00998
46.1 -0.00895
46.15 -0.00761
46.2 -0.00628
46.25 -0.00628
46.3 -0.00701
46.35 -0.00765
46.4 -0.00862
46.45 -0.00909
46.5 -0.00927
46.55 -0.00959
46.6 -0.00989
46.65 -0.01002
46.7 -0.00956
46.75 -0.00986
46.8 -0.00946
46.85 -0.00885
46.9 -0.00908
46.95 -0.00873
47 -0.00885
47.05 -0.00912
47.1 -0.00896
47.15 -0.0087
47.2 -0.00866
47.25 -0.00905
47.3 -0.0087
47.35 -0.00864
47.4 -0.00889
47.45 -0.00888
47.5 -0.00934
47.55 -0.00883
47.6 -0.0083
47.65 -0.00776
47.7 -0.00736
47.75 -0.00706
47.8 -0.00692
47.85 -0.0067
47.9 -0.00601
47.95 -0.00506
48 -0.00512
48.05 -0.00581
48.1 -0.00542
48.15 -0.00584
48.2 -0.00599
48.25 -0.00648
48.3 -0.00664
48.35 -0.00716
48.4 -0.00687
48.45 -0.00671
48.5 -0.00683
48.55 -0.00615
48.6 -0.00491
48.65 -0.00457
48.7 -0.00419
48.75 -0.00344
48.8 -0.00284
48.85 -0.00199
48.9 -0.00162
48.95 -0.00133
49 -0.00136
49.05 -0.00149
49.1 -0.00147
49.15 -0.00187
49.2 -0.00208
49.25 -0.00182
49.3 -0.00241
49.35 -0.00241
49.4 -0.00247
49.45 -0.00202
49.5 -0.00157
49.55 -0.00143
49.6 -0.00088
49.65 -0.00143
49.7 -0.00259
49.75 -0.00297
49.8 -0.0033
49.85 -0.00286
49.9 -0.00243
49.95 -0.0027
50 -0.00227
50.05 -0.00165
50.1 -0.00201
50.15 -0.00161
50.2 -0.00073
50.25 -0.00017
50.3 -0.00045
50.35 -0.00007
50.4 0.00053
50.45 0.00098
50.5 0.00094
50.55 0.001
50.6 0.00139
50.65 0.00167
50.7 0.00097
50.75 -0.00036
50.8 -0.00098
50.85 -0.00183
50.9 -0.00302
50.95 -0.00326
51 -0.00266
51.05 -0.00293
51.1 -0.00275
51.15 -0.0031
51.2 -0.00267
51.25 -0.00281
51.3 -0.00315
51.35 -0.00271
51.4 -0.00183
51.45 -0.00177
51.5 -0.00161
51.55 -0.00222
51.6 -0.00322
51.65 -0.00422
51.7 -0.00445
51.75 -0.00393
51.8 -0.00391
51.85 -0.00356
51.9 -0.00306
51.95 -0.00215
52 -0.00153
52.05 -0.00114
52.1 -0.00117
52.15 -0.00164
52.2 -0.0022
52.25 -0.00284
52.3 -0.00308
52.35 -0.00377
52.4 -0.00328
52.45 -0.00249
52.5 -0.00135
52.55 -0.00061
52.6 -0.00033
52.65 0.00004
52.7 -0.00012
52.75 -0.00022
52.8 -0.00016
52.85 -0.00078
52.9 -0.00094
52.95 -0.00086
53 -0.00079
53.05 -0.00033
53.1 0.00036
53.15 0.00134
53.2 0.00152
53.25 0.0015
53.3 0.00189
53.35 0.00137
53.4 0.00022
53.45 -0.00035
53.5 -0.00044
53.55 -0.00015
53.6 0.0006
53.65 0.00139
53.7 0.00171
53.75 0.00163
53.8 0.00149
53.85 0.00056
53.9 -0.0009
53.95 -0.00237
54 -0.0031
54.05 -0.00367
54.1 -0.00442
54.15 -0.00526
54.2 -0.00499
54.25 -0.00493
54.3 -0.00498
54.35 -0.00543
54.4 -0.00533
54.45 -0.00498
54.5 -0.00451
54.55 -0.00406
54.6 -0.00376
54.65 -0.00367
54.7 -0.00278
54.75 -0.0023
54.8 -0.00252
54.85 -0.00302
54.9 -0.00293
54.95 -0.0027
55 -0.00307
55.05 -0.00255
55.1 -0.00274
55.15 -0.00294
55.2 -0.0024
55.25 -0.00116
55.3 -0.00071
55.35 -0.00007
55.4 0.00065
55.45 0.00057
55.5 -0.00004
55.55 -0.00105
55.6 -0.00235
55.65 -0.00248
55.7 -0.00227
55.75 -0.00253
55.8 -0.00315
55.85 -0.0035
55.9 -0.00362
55.95 -0.00368
56 -0.00407
56.05 -0.00401
56.1 -0.00355
56.15 -0.00354
56.2 -0.00288
56.25 -0.00229
56.3 -0.00158
56.35 -0.00035
56.4 0.00001
56.45 -0.00016
56.5 -0.00036
56.55 -0.00038
56.6 -0.00079
56.65 -0.0011
56.7 -0.00076
56.75 -0.00106
56.8 -0.00064
56.85 -0.00072
56.9 -0.00126
56.95 -0.00101
57 -0.00056
57.05 -0.00002
57.1 -0.00016
57.15 0.00033
57.2 0.00093
57.25 0.00187
57.3 0.00262
57.35 0.00354
57.4 0.00438
57.45 0.00473
57.5 0.00399
57.55 0.0036
57.6 0.00363
57.65 0.00392
57.7 0.00349
57.75 0.00365
57.8 0.00341
57.85 0.00301
57.9 0.00273
57.95 0.00196
58 0.00185
58.05 0.00121
58.1 0.00029
58.15 -0.00021
58.2 -0.00091
58.25 -0.00167
58.3 -0.00138
58.35 -0.00051
58.4 -0.00008
58.45 0.00081
58.5 0.00166
58.55 0.00251
58.6 0.00288
58.65 0.00238
58.7 0.00176
58.75 0.00169
58.8 0.00108
58.85 0.00111
58.9 0.00119
58.95 0.00069
59 0.00068
59.05 0.00012
59.1 -0.0002
59.15 -0.00033
59.2 -0.00036
59.25 0.00006
59.3 -0.00029
59.35 -0.00039
59.4 -0.00046
59.45 -0.00092
59.5 -0.00151
59.55 -0.00218
59.6 -0.0027
59.65 -0.00329
59.7 -0.00403
59.75 -0.00404
59.8 -0.00445
59.85 -0.00438
59.9 -0.00436
59.95 -0.00408
60 -0.00411
60.05 -0.00376
60.1 -0.00257
60.15 -0.00146
60.2 -0.00045
60.25 -0.00003
60.3 0.00052
60.35 0.00031
60.4 0.00078
60.45 0.00134
60.5 0.00178
60.55 0.00132
60.6 0.0011
60.65 0.00036
60.7 -0.00034
60.75 -0.00109
60.8 -0.00088
60.85 -0.00137
60.9 -0.00137
60.95 -0.00057
61 -0.00072
61.05 -0.00138
61.1 -0.00194
61.15 -0.00143
61.2 -0.00048
61.25 -0.00041
61.3 0.00011
61.35 0.00082
61.4 0.00116
61.45 0.00188
61.5 0.0022
61.55 0.00232
61.6 0.00252
61.65 0.0018
61.7 0.00114
61.75 0.00052
61.8 0.00019
61.85 0.00056
61.9 0.0011
61.95 0.00199
62 0.00206
62.05 0.00153
62.1 0.0009
62.15 -0.00025
62.2 -0.00169
62.25 -0.00226
62.3 -0.00229
62.35 -0.00196
62.4 -0.00158
62.45 -0.00112
62.5 -0.00002
62.55 0.00143
62.6 0.00151
62.65 0.001
62.7 0.00018
62.75 0.00019
62.8 0.00087
62.85 0.00182
62.9 0.00172
62.95 0.00113
63 0.00119
63.05 0.00057
63.1 -0.00049
63.15 -0.00088
63.2 -0.00171
63.25 -0.0019
63.3 -0.00256
63.35 -0.00299
63.4 -0.00259
63.45 -0.00175
63.5 -0.00166
63.55 -0.00182
63.6 -0.00217
63.65 -0.00224
63.7 -0.00135
63.75 -0.0007
63.8 -0.00051
63.85 -0.00025
63.9 0.0006
63.95 0.00124
64 0.00156
64.05 0.00135
64.1 0.0011
64.15 0.00068
64.2 0.00093
64.25 0.0006
64.3 0.00108
64.35 0.00072
64.4 0.00025
64.45 -0.00018
64.5 -0.00055
64.55 -0.00098
64.6 -0.00142
64.65 -0.001
64.7 -0.00021
64.75 0.00026
64.8 0.00087
64.85 0.00128
64.9 0.00145
64.95 0.00124
65 0.00113
65.05 0.0003
65.1 -0.00019
65.15 -0.00113
65.2 -0.00233
65.25 -0.00292
65.3 -0.00268
65.35 -0.0026
65.4 -0.00226
65.45 -0.00188
65.5 -0.00218
65.55 -0.00169
65.6 -0.00126
65.65 -0.00131
65.7 -0.00132
65.75 -0.00141
65.8 -0.0017
65.85 -0.00187
65.9 -0.00208
65.95 -0.0024
66 -0.00247
66.05 -0.00171
66.1 -0.00041
66.15 0.00059
66.2 0.00123
66.25 0.00131
66.3 0.00182
66.35 0.00248
66.4 0.00265
66.45 0.00198
66.5 0.00117
66.55 -0.00009
66.6 -0.00041
66.65 -0.00095
66.7 -0.0006
66.75 -0.00045
66.8 0.00035
66.85 0.00039
66.9 0.00061
66.95 0.00123
67 0.00226
67.05 0.00292
67.1 0.00278
67.15 0.00318
67.2 0.0037
67.25 0.00348
67.3 0.00244
67.35 0.00088
67.4 -0.00047
67.45 -0.00052
67.5 -0.00098
67.55 -0.00053
67.6 -0.00042
67.65 -0.00065
67.7 -0.00019
67.75 -0.00007
67.8 0.00015
67.85 0.00084
67.9 0.00087
67.95 0.00148
68 0.00119
68.05 0.00079
68.1 0.00007
68.15 -0.00053
68.2 -0.00087
68.25 -0.00035
68.3 -0.00046
68.35 0.00018
68.4 0.00088
68.45 0.00152
68.5 0.00212
68.55 0.00162
68.6 0.0012
68.65 0.0006
68.7 0.00045
68.75 0.00062
68.8 0.00031
68.85 0.00026
68.9 -0.0003
68.95 -0.00014
69 -0.00066
69.05 -0.00149
69.1 -0.00174
69.15 -0.0021
69.2 -0.00209
69.25 -0.00215
69.3 -0.00183
69.35 -0.00108
69.4 -0.00052
69.45 -0.0006
69.5 -0.00078
69.55 -0.00018
69.6 0.00087
69.65 0.00152
69.7 0.00144
69.75 0.00199
69.8 0.00155
69.85 0.00095
69.9 -0.00012
69.95 -0.00044
70 -0.00024
70.05 0.00006
70.1 0.00091
70.15 0.00181
70.2 0.00255
70.25 0.00307
70.3 0.0025
70.35 0.00218
70.4 0.0017
70.45 0.00111
70.5 0.00033
70.55 -0.0006
70.6 -0.00169
70.65 -0.00225
70.7 -0.00244
70.75 -0.00306
70.8 -0.00379
70.85 -0.00385
70.9 -0.00283
70.95 -0.00203
71 -0.00157
71.05 -0.00136
71.1 -0.00099
71.15 -0.00093
71.2 -0.00065
71.25 0.00022
71.3 0.00131
71.35 0.00134
71.4 0.00134
71.45 0.00168
71.5 0.00167
71.55 0.00101
71.6 -0.00004
71.65 -0.00018
71.7 -0.0007
71.75 -0.00071
71.8 -0.00031
71.85 -0.00052
71.9 -0.0006
71.95 -0.00011
72 -0.00035
72.05 -0.00027
72.1 0.00046
72.15 0.00118
72.2 0.00157
72.25 0.00192
72.3 0.00131
72.35 0.00051
72.4 0.00029
72.45 0.00016
72.5 0.00074
72.55 0.00036
72.6 -0.00033
72.65 -0.00082
72.7 -0.00111
72.75 -0.00177
72.8 -0.00255
72.85 -0.00212
72.9 -0.00167
72.95 -0.00096
73 -0.00113
73.05 -0.00133
73.1 -0.00191
73.15 -0.0025
73.2 -0.00323
73.25 -0.0033
73.3 -0.00303
73.35 -0.00223
73.4 -0.0011
73.45 -0.00096
73.5 -0.00015
73.55 0.00112
73.6 0.0016
73.65 0.00243
73.7 0.00263
73.75 0.00308
73.8 0.00369
73.85 0.00356
73.9 0.00268
73.95 0.00173
74 0.0012
74.05 0.00072
74.1 0.00035
74.15 0.00033
74.2 -0.0003
74.25 -0.00118
74.3 -0.00223
74.35 -0.00208
74.4 -0.00136
74.45 -0.00153
74.5 -0.00196
74.55 -0.00162
74.6 -0.00124
74.65 -0.00136
74.7 -0.00179
74.75 -0.00248
74.8 -0.00224
74.85 -0.00214
74.9 -0.00171
74.95 -0.00085
75 0.00004
75.05 0.00061
75.1 0.00031
75.15 0.00029
75.2 0.0009
75.25 0.00085
75.3 0.00035
75.35 -0.00061
75.4 -0.00059
75.45 -0.00081
75.5 -0.00137
75.55 -0.00098
75.6 -0.00125
75.65 -0.00184
75.7 -0.0016
75.75 -0.00111
75.8 -0.00124
75.85 -0.00065
75.9 -0.00009
75.95 0.00009
76 0.00086
76.05 0.00107
76.1 0.00131
76.15 0.00201
76.2 0.00158
76.25 0.00121
76.3 0.00052
76.35 0.00039
76.4 -0.00023
76.45 -0.00052
76.5 -0.00035
76.55 0.0001
76.6 0.0007
76.65 0.00079
76.7 0.00129
76.75 0.00223
76.8 0.00224
76.85 0.0023
76.9 0.00246
76.95 0.00173
77 0.00168
77.05 0.00079
77.1 0.00063
77.15 -0.00001
77.2 -0.00003
77.25 0.00041
77.3 0.00077
77.35 0.00091
77.4 0.00167
77.45 0.00244
77.5 0.00303
77.55 0.00364
77.6 0.0039
77.65 0.00399
77.7 0.00323
77.75 0.00215
77.8 0.00159
77.85 0.00093
77.9 -0.00026
77.95 -0.00042
78 -0.00116
78.05 -0.002
78.1 -0.00246
78.15 -0.00318
78.2 -0.00305
78.25 -0.00218
78.3 -0.00166
78.35 -0.00146
78.4 -0.00164
78.45 -0.00207
78.5 -0.00174
78.55 -0.00067
78.6 0.00052
78.65 0.00055
78.7 0.00061
78.75 0.00109
78.8 0.00156
78.85 0.00197
78.9 0.00251
78.95 0.00252
79 0.00277
79.05 0.00275
79.1 0.00219
79.15 0.00148
79.2 0.00053
79.25 0.00033
79.3 0.00036
79.35 0.00028
79.4 0.00035
79.45 0.00034
79.5 0.00009
79.55 0.00001
79.6 0.00062
79.65 0.00144
79.7 0.00159
79.75 0.00116
79.8 0.00079
79.85 0.00113
79.9 0.00057
79.95 0.00023
80 0.00017
80.05 -0.00018
80.1 -0.00095
80.15 -0.00146
80.2 -0.00182
80.25 -0.00219
80.3 -0.00295
80.35 -0.0029
80.4 -0.00301
80.45 -0.00301
80.5 -0.00269
80.55 -0.00205
80.6 -0.00083
80.65 0.00052
80.7 0.00099
80.75 0.00191
80.8 0.0021
80.85 0.00192
80.9 0.00187
80.95 0.00106
81 0.00013
81.05 0.0002
81.1 -0.00035
81.15 -0.00104
81.2 -0.00169
81.25 -0.00163
81.3 -0.00206
81.35 -0.00249
81.4 -0.00273
81.45 -0.00286
81.5 -0.00296
81.55 -0.00207
81.6 -0.00123
81.65 -0.00093
81.7 -0.00067
81.75 -0.00089
81.8 -0.00082
81.85 -0.00009
81.9 0.00078
81.95 0.00197
82 0.0027
82.05 0.00358
82.1 0.00331
82.15 0.00246
82.2 0.00138
82.25 0.00051
82.3 -0.00039
82.35 -0.00058
82.4 -0.00035
82.45 -0.00049
82.5 -0.00003
82.55 -0.00031
82.6 0.00005
82.65 0.0009
82.7 0.00164
82.75 0.00242
82.8 0.00307
82.85 0.00282
82.9 0.00241
82.95 0.00192
83 0.00208
83.05 0.00192
83.1 0.00199
83.15 0.00158
83.2 0.0006
83.25 0.00052
83.3 -0.00019
83.35 -0.00033
83.4 -0.00113
83.45 -0.00113
83.5 -0.00156
83.55 -0.00189
83.6 -0.00262
83.65 -0.00277
83.7 -0.00253
83.75 -0.00276
83.8 -0.00232
83.85 -0.0019
83.9 -0.00143
83.95 -0.00047
84 0.00061
84.05 0.00141
84.1 0.00247
84.15 0.00224
84.2 0.00163
84.25 0.00169
84.3 0.00167
84.35 0.00139
84.4 0.00048
84.45 0.00012
84.5 -0.0003
84.55 -0.00126
84.6 -0.00207
84.65 -0.0018
84.7 -0.00137
84.75 -0.00147
84.8 -0.00137
84.85 -0.00083
84.9 0.00004
84.95 0.00008
85 -0.00033
85.05 -0.00093
85.1 -0.00082
85.15 -0.00121
85.2 -0.00191
85.25 -0.00241
85.3 -0.00309
85.35 -0.00336
85.4 -0.00253
85.45 -0.00139
85.5 -0.00018
85.55 0.00054
85.6 0.00078
85.65 0.00122
85.7 0.00112
85.75 0.00106
85.8 0.00046
85.85 0.00027
85.9 -0.00027
85.95 0.00003
86 0.0009
86.05 0.00092
86.1 0.00152
86.15 0.00232
86.2 0.00247
86.25 0.00308
86.3 0.00308
86.35 0.00272
86.4 0.00202
86.45 0.00083
86.5 0.0006
86.55 0.0007
86.6 0.00072
86.65 0.00002
86.7 -0
86.75 0.00004
86.8 -0.00011
86.85 -0.00016
86.9 -0.00056
86.95 -0.00011
87 -0.00009
87.05 0.00024
87.1 0.00047
87.15 0.00079
87.2 0.00078
87.25 0.00131
87.3 0.0016
87.35 0.00142
87.4 0.00045
87.45 -0.00065
87.5 -0.00168
87.55 -0.00281
87.6 -0.00364
87.65 -0.0033
87.7 -0.00324
87.75 -0.00247
87.8 -0.00172
87.85 -0.0008
87.9 -0.00078
87.95 -0.00124
88 -0.00077
88.05 0.00003
88.1 0.00068
88.15 0.00159
88.2 0.00221
88.25 0.00217
88.3 0.00233
88.35 0.00176
88.4 0.00194
88.45 0.00183
88.5 0.00204
88.55 0.00267
88.6 0.00216
88.65 0.00125
88.7 -0.00018
88.75 -0.00159
88.8 -0.00288
88.85 -0.00334
88.9 -0.00322
88.95 -0.00325
89 -0.0026
89.05 -0.00242
89.1 -0.00189
89.15 -0.00107
89.2 -0.00058
89.25 -0.00042
89.3 0.00034
89.35 0.00016
89.4 -0.00023
89.45 -0.00028
89.5 0.00021
89.55 0.00058
89.6 0.00044
89.65 0.00059
89.7 0.00069
89.75 0.00042
89.8 -0.0003
89.85 -0.001
89.9 -0.00131
89.95 -0.00162
90 -0.00102
90.05 -0.00024
90.1 -0.00003
90.15 -0.00034
90.2 0.00001
90.25 0.00094
90.3 0.00138
90.35 0.00214
90.4 0.00253
90.45 0.00281
90.5 0.00321
90.55 0.00317
90.6 0.00336
90.65 0.0029
90.7 0.00234
90.75 0.00142
90.8 0.0003
90.85 -0.00055
90.9 -0.0013
90.95 -0.00123
91 -0.00085
91.05 -0.00044
91.1 0.00022
91.15 0.00053
91.2 0.00134
91.25 0.00227
91.3 0.00288
91.35 0.00343
91.4 0.00375
91.45 0.00378
91.5 0.00362
91.55 0.00336
91.6 0.00256
91.65 0.00141
91.7 0.00079
91.75 -0.00013
91.8 -0.00083
91.85 -0.00091
91.9 -0.00105
91.95 -0.00049
92 0.00039
92.05 0.00043
92.1 0.0003
92.15 -0.00005
92.2 -0.0001
92.25 -0.00065
92.3 -0.00056
92.35 -0.00069
92.4 -0.00066
92.45 -0.00141
92.5 -0.00139
92.55 -0.00199
92.6 -0.00265
92.65 -0.00235
92.7 -0.00201
92.75 -0.00132
92.8 -0.00102
92.85 -0.00022
92.9 -0.00003
92.95 -0.00019
93 0.00017
93.05 0.00055
93.1 0.00084
93.15 0.00131
93.2 0.00211
93.25 0.00196
93.3 0.00118
93.35 0.00108
93.4 0.00133
93.45 0.00108
93.5 0.00021
93.55 -0.0003
93.6 -0.00059
93.65 -0.00104
93.7 -0.0013
93.75 -0.00206
93.8 -0.00231
93.85 -0.00249
93.9 -0.00229
93.95 -0.00245
94 -0.00169
94.05 -0.00145
94.1 -0.0006
94.15 0.00053
94.2 0.00182
94.25 0.00248
94.3 0.00211
94.35 0.00111
94.4 0.00004
94.45 -0.0012
94.5 -0.00197
94.55 -0.00193
94.6 -0.00163
94.65 -0.0018
94.7 -0.00132
94.75 -0.00049
94.8 -0.00071
94.85 -0.00073
94.9 -0.00084
94.95 -0.00159
95 -0.00258
95.05 -0.00304
95.1 -0.0026
95.15 -0.00279
95.2 -0.00292
95.25 -0.0031
95.3 -0.00309
95.35 -0.00253
95.4 -0.00153
95.45 -0.00045
95.5 0.00011
95.55 0.00007
95.6 0.00009
95.65 -0.00023
95.7 -0.00019
95.75 0.00031
95.8 0.0012
95.85 0.00089
95.9 0.00048
95.95 -0.00002
96 -0.00014
96.05 0.00036
96.1 0.0006
96.15 0.00054
96.2 0.00001
96.25 -0.00039
96.3 -0.00062
96.35 -0.00083
96.4 -0.00103
96.45 -0.00142
96.5 -0.00107
96.55 -0.00043
96.6 -0.00027
96.65 -0.0008
96.7 -0.00062
96.75 0.00019
96.8 0.00115
96.85 0.00222
96.9 0.00277
96.95 0.00324
97 0.00354
97.05 0.00382
97.1 0.00387
97.15 0.00325
97.2 0.00219
97.25 0.0013
97.3 0.00006
97.35 -0.00086
97.4 -0.00149
97.45 -0.00112
97.5 -0.00145
97.55 -0.00172
97.6 -0.00196
97.65 -0.00132
97.7 -0.00046
97.75 0.00079
97.8 0.00198
97.85 0.00205
97.9 0.00246
97.95 0.00265
98 0.00291
98.05 0.00287
98.1 0.00231
98.15 0.00154
98.2 0.00012
98.25 -0.0007
98.3 -0.00158
98.35 -0.0025
98.4 -0.00256
98.45 -0.00298
98.5 -0.00309
98.55 -0.00291
98.6 -0.00282
98.65 -0.00217
98.7 -0.0013
98.75 -0.00029
98.8 0.00007
98.85 0.00075
98.9 0.00042
98.95 -0.00006
99 -0.00037
99.05 -0.00064
99.1 -0.00052
99.15 -0.00114
99.2 -0.00086
99.25 -0.00111
99.3 -0.00053
99.35 0.00042
99.4 0.00155
99.45 0.00282
99.5 0.00371
99.55 0.00393
99.6 0.00342
99.65 0.00286
99.7 0.00178
99.75 0.00064
99.8 -0.00072
99.85 -0.00089
99.9 -0.00061
99.95 -0.00058
