0 0
0.05 0.00035
0.1 0.00153
0.15 0.00228
0.2 0.00274
0.25 0.00369
0.3 0.00474
0.35 0.00526
0.4 0.00567
0.45 0.00602
0.5 0.00641
0.55 0.00608
0.6 0.00531
0.65 0.00443
0.7 0.00445
0.75 0.00409
0.8 0.00351
0.85 0.00329
0.9 0.00385
0.95 0.00435
1 0.00486
1.05 0.0052
1.1 0.00523
1.15 0.00554
1.2 0.00558
1.25 0.00517
1.3 0.00532
1.35 0.00543
1.4 0.00589
1.45 0.00563
1.5 0.00496
1.55 0.00443
1.6 0.00356
1.65 0.00257
1.7 0.00217
1.75 0.00251
1.8 0.00289
1.85 0.00334
1.9 0.0036
1.95 0.00364
2 0.00379
2.05 0.00344
2.1 0.00362
2.15 0.00341
2.2 0.00314
2.25 0.0033
2.3 0.00332
2.35 0.00308
2.4 0.00277
2.45 0.0026
2.5 0.00252
2.55 0.00264
2.6 0.00326
2.65 0.00388
2.7 0.00427
2.75 0.00419
2.8 0.00443
2.85 0.00443
2.9 0.00433
2.95 0.00382
3 0.00386
3.05 0.00369
3.1 0.00349
3.15 0.00324
3.2 0.00268
3.25 0.00227
3.3 0.00185
3.35 0.00173
3.4 0.0013
3.45 0.0006
3.5 0.0003
3.55 -0.00006
3.6 0.00031
3.65 0.00086
3.7 0.00155
3.75 0.00229
3.8 0.0025
3.85 0.003
3.9 0.00314
3.95 0.00337
4 0.0033
4.05 0.00276
4.1 0.0025
4.15 0.00278
4.2 0.00297
4.25 0.00353
4.3 0.00349
4.35 0.0038
4.4 0.00371
4.45 0.00365
4.5 0.00353
4.55 0.00326
4.6 0.00314
4.65 0.00273
4.7 0.00265
4.75 0.00261
4.8 0.00222
4.85 0.002
4.9 0.00222
4.95 0.00269
5 0.0034
5.05 0.00386
5.1 0.004
5.15 0.00427
5.2 0.00401
5.25 0.00353
5.3 0.00278
5.35 0.00212
5.4 0.00146
5.45 0.00128
5.5 0.00152
5.55 0.00129
5.6 0.0012
5.65 0.00058
5.7 -0.00023
5.75 -0.00064
5.8 -0.00068
5.85 -0.00098
5.9 -0.00055
5.95 -0.00038
6 -0.00015
6.05 0.00007
6.1 0.00068
6.15 0.00126
6.2 0.00209
6.25 0.00209
6.3 0.00195
6.35 0.00153
6.4 0.00139
6.45 0.0015
6.5 0.00176
6.55 0.0015
6.6 0.00098
6.65 0.00067
6.7 0.00098
6.75 0.00166
6.8 0.00181
6.85 0.00128
6.9 0.0005
6.95 -0.00003
7 -0.00024
7.05 -0.00077
7.1 -0.00118
7.15 -0.00087
7.2 -0.00057
7.25 -0.00069
7.3 -0.00107
7.35 -0.00111
7.4 -0.00127
7.45 -0.0009
7.5 -0.00047
7.55 -0.00009
7.6 -0.00024
7.65 0.00016
7.7 0.00061
7.75 0.00048
7.8 0.00007
7.85 0.00003
7.9 -0.00003
7.95 0.00029
8 0.0006
8.05 0.00049
8.1 0.00086
8.15 0.00072
8.2 0.00096
8.25 0.00101
8.3 0.00053
8.35 -0.00001
8.4 -0.0005
8.45 -0.00124
8.5 -0.00108
8.55 -0.00043
8.6 0.00021
8.65 0.0007
8.7 0.00048
8.75 0.0007
8.8 0.00086
8.85 0.00065
8.9 0.00023
8.95 0.00033
9 0.00023
9.05 -0.00033
9.1 -0.00065
9.15 -0.00108
9.2 -0.00097
9.25 -0.00095
9.3 -0.00048
9.35 -0.00007
9.4 0.00052
9.45 0.00036
9.5 0.00012
9.55 0.00008
9.6 0.0006
9.65 0.00043
9.7 -0.0001
9.75 -0.00038
9.8 -0.00005
9.85 -0.00018
9.9 -0.00002
9.95 0.00003
10 -0.00034
10.05 -0.0006
10.1 -0.00061
10.15 -0.00103
10.2 -0.00136
10.25 -0.00138
10.3 -0.00157
10.35 -0.0013
10.4 -0.00147
10.45 -0.00172
10.5 -0.00118
10.55 -0.0002
10.6 0.00017
10.65 0.00061
10.7 0.0009
10.75 0.00103
10.8 0.00133
10.85 0.00155
10.9 0.00178
10.95 0.00218
11 0.00271
11.05 0.00262
11.1 0.00289
11.15 0.00292
11.2 0.00268
11.25 0.00194
11.3 0.00092
11.35 0.00066
11.4 0.00025
11.45 0.0001
11.5 -0.00049
11.55 -0.00072
11.6 -0.00119
11.65 -0.00105
11.7 -0.00122
11.75 -0.00107
11.8 -0.00065
11.85 -0.00057
11.9 -0.0001
11.95 0.00055
12 0.00069
12.05 0.00106
12.1 0.0016
12.15 0.00137
12.2 0.00145
12.25 0.00121
12.3 0.001
12.35 0.00059
12.4 0.00074
12.45 0.00113
12.5 0.00137
12.55 0.00102
12.6 0.00056
12.65 0.00069
12.7 0.00045
12.75 0.00054
12.8 0.00103
12.85 0.00131
12.9 0.00143
12.95 0.00133
13 0.0008
13.05 0.00026
13.1 0.00017
13.15 -0.00001
13.2 -0.00048
13.25 -0.00107
13.3 -0.00121
13.35 -0.00106
13.4 -0.0008
13.45 -0.00013
13.5 0.00027
13.55 0.00029
13.6 -0.00016
13.65 -0.00042
13.7 -0.00033
13.75 0.00003
13.8 -0.00024
13.85 -0.00039
13.9 0.00007
13.95 -0.00014
14 0.00024
14.05 0.00074
14.1 0.00074
14.15 0.00098
14.2 0.0013
14.25 0.00095
14.3 0.00092
14.35 0.00046
14.4 0.00044
14.45 -0.00005
14.5 -0.00026
14.55 -0.00087
14.6 -0.00067
14.65 -0.00056
14.7 -0.00078
14.75 -0.00124
14.8 -0.00175
14.85 -0.00167
14.9 -0.00147
14.95 -0.00088
15 -0.00053
15.05 -0.0002
15.1 -0.00023
15.15 0.00008
15.2 0.0002
15.25 0.00072
15.3 0.00063
15.35 0.00022
15.4 -0.00028
15.45 -0.00017
15.5 0.00042
15.55 0.00045
15.6 0.00084
15.65 0.00084
15.7 0.00122
15.75 0.00091
15.8 0.00099
15.85 0.00069
15.9 0.00057
15.95 0.00079
16 0.00039
16.05 -0.00025
16.1 -0.00088
16.15 -0.00153
16.2 -0.00145
16.25 -0.00168
16.3 -0.00128
16.35 -0.00131
16.4 -0.00122
16.45 -0.00056
16.5 0.00009
16.55 0.00004
16.6 -0.00027
16.65 -0.00057
16.7 -0.0008
16.75 -0.0004
16.8 -0.00026
16.85 -0.00061
16.9 -0.00085
16.95 -0.00081
17 -0.00081
17.05 -0.00024
17.1 -0.0001
17.15 0.00012
17.2 0.00062
17.25 0.00063
17.3 0.00112
17.35 0.00164
17.4 0.00161
17.45 0.00117
17.5 0.00059
17.55 -0
17.6 -0.00077
17.65 -0.00085
17.7 -0.00055
17.75 -0.00068
17.8 -0.00034
17.85 -0.00029
17.9 -0.00024
17.95 -0.00022
18 -0.00067
18.05 -0.00127
18.1 -0.00131
18.15 -0.00114
18.2 -0.00138
18.25 -0.00166
18.3 -0.00137
18.35 -0.00097
18.4 -0.00085
18.45 -0.00121
18.5 -0.00147
18.55 -0.00124
18.6 -0.00076
18.65 0.00008
18.7 0.00101
18.75 0.00165
18.8 0.00144
18.85 0.0009
18.9 0.00086
18.95 0.00046
19 0.0002
19.05 -0.00021
19.1 0.00006
19.15 0.00002
19.2 -0
19.25 -0.0005
19.3 -0.00121
19.35 -0.00202
19.4 -0.00198
19.45 -0.00125
19.5 -0.00039
19.55 0.00065
19.6 0.00088
19.65 0.00143
19.7 0.00148
19.75 0.00141
19.8 0.00106
19.85 0.00097
19.9 0.00108
19.95 0.00149
20 0.0014
20.05 0.0008
20.1 0.00047
20.15 0.00073
20.2 0.00065
20.25 0.0008
20.3 0.00091
20.35 0.00111
20.4 0.00071
20.45 -0.00009
20.5 -0.00015
20.55 -0.00038
20.6 -0.00004
20.65 0.00015
20.7 0.00072
20.75 0.00082
20.8 0.00114
20.85 0.00112
20.9 0.0015
20.95 0.0016
21 0.00145
21.05 0.00169
21.1 0.00204
21.15 0.00167
21.2 0.00107
21.25 0.00025
21.3 -0.0008
21.35 -0.00105
21.4 -0.00105
21.45 -0.00081
21.5 -0.00095
21.55 -0.00055
21.6 0.0002
21.65 0.001
21.7 0.00116
21.75 0.00102
21.8 0.00122
21.85 0.0012
21.9 0.00058
21.95 -0.00012
22 -0.00062
22.05 -0.00116
22.1 -0.00189
22.15 -0.00239
22.2 -0.00286
22.25 -0.00286
22.3 -0.00274
22.35 -0.0029
22.4 -0.00301
22.45 -0.00251
22.5 -0.00247
22.55 -0.00238
22.6 -0.00245
22.65 -0.00205
22.7 -0.00126
22.75 -0.00111
22.8 -0.00102
22.85 -0.00114
22.9 -0.0014
22.95 -0.00152
23 -0.00105
23.05 -0.00015
23.1 0.00004
23.15 -0.00007
23.2 -0.00043
23.25 -0.00053
23.3 -0.00043
23.35 -0.00068
23.4 -0.00104
23.45 -0.00064
23.5 0.00003
23.55 0.00077
23.6 0.00094
23.65 0.00129
23.7 0.00108
23.75 0.00072
23.8 -0.00006
23.85 -0.00038
23.9 -0.00056
23.95 -0.0004
24 -0.00067
24.05 -0.00058
24.1 -0.00081
24.15 -0.00053
24.2 -0.00075
24.25 -0.0004
24.3 0.00004
24.35 0.0005
24.4 0.00129
24.45 0.00135
24.5 0.00096
24.55 0.00043
24.6 0.00022
24.65 0.00047
24.7 0.00014
24.75 -0.00034
24.8 -0.00054
24.85 -0.00107
24.9 -0.00076
24.95 -0.00082
25 -0.0006
25.05 -0.00018
25.1 0.0005
25.15 0.00135
25.2 0.00144
25.25 0.00088
25.3 0.00087
25.35 0.00063
25.4 -0.00002
25.45 -0.00044
25.5 -0.00079
25.55 -0.00107
25.6 -0.0012
25.65 -0.00154
25.7 -0.00198
25.75 -0.00205
25.8 -0.00222
25.85 -0.00207
25.9 -0.0013
25.95 -0.00035
26 0.00085
26.05 0.00154
26.1 0.00208
26.15 0.00217
26.2 0.002
26.25 0.00202
26.3 0.00139
26.35 0.00139
26.4 0.0013
26.45 0.00114
26.5 0.00082
26.55 0.00012
26.6 -0.00067
26.65 -0.00084
26.7 -0.00121
26.75 -0.00159
26.8 -0.00135
26.85 -0.00153
26.9 -0.00121
26.95 -0.00108
27 -0.00138
27.05 -0.00099
27.1 -0.00022
27.15 0.00007
27.2 0.00016
27.25 0.00044
27.3 0.00071
27.35 0.00058
27.4 0.00088
27.45 0.00149
27.5 0.00186
27.55 0.00192
27.6 0.00192
27.65 0.0023
27.7 0.00258
27.75 0.00234
27.8 0.00223
27.85 0.00179
27.9 0.00147
27.95 0.00157
28 0.00129
28.05 0.00115
28.1 0.00105
28.15 0.00063
28.2 -0.00014
28.25 -0.0008
28.3 -0.00087
28.35 -0.00131
28.4 -0.00185
28.45 -0.00229
28.5 -0.00221
28.55 -0.00155
28.6 -0.00139
28.65 -0.00119
28.7 -0.00123
28.75 -0.00101
28.8 -0.001
28.85 -0.0014
28.9 -0.00198
28.95 -0.00201
29 -0.0016
29.05 -0.00104
29.1 -0.00005
29.15 0.00028
29.2 0.00024
29.25 -0.00029
29.3 -0.00079
29.35 -0.00125
29.4 -0.00099
29.45 -0.00051
29.5 -0.00033
29.55 -0.00007
29.6 0.00049
29.65 0.00067
29.7 0.00044
29.75 0.00011
29.8 0.00037
29.85 0.00036
29.9 0.00068
29.95 0.00065
30 0.00044
30.05 0.00073
30.1 0.00054
30.15 0.00085
30.2 0.00124
30.25 0.00126
30.3 0.00163
30.35 0.00132
30.4 0.00084
30.45 0.00001
30.5 -0.00055
30.55 -0.00111
30.6 -0.00172
30.65 -0.00187
30.7 -0.00216
30.75 -0.00186
30.8 -0.00174
30.85 -0.00135
30.9 -0.00055
30.95 0.0003
31 0.00085
31.05 0.00077
31.1 0.00039
31.15 0.00041
31.2 0.00072
31.25 0.00057
31.3 0.0006
31.35 0.00092
31.4 0.00106
31.45 0.00073
31.5 -0.00002
31.55 -0.00094
31.6 -0.00126
31.65 -0.0015
31.7 -0.00137
31.75 -0.00112
31.8 -0.00112
31.85 -0.00093
31.9 -0.00118
31.95 -0.0013
32 -0.00138
32.05 -0.00151
32.1 -0.00126
32.15 -0.00068
32.2 -0.00056
32.25 -0.0003
32.3 -0.00005
32.35 -0.00028
32.4 -0.00066
32.45 -0.00085
32.5 -0.00071
32.55 -0.0002
32.6 0.00061
32.65 0.00136
32.7 0.00212
32.75 0.00233
32.8 0.00195
32.85 0.00161
32.9 0.00104
32.95 0.00112
33 0.00081
33.05 0.00093
33.1 0.00092
33.15 0.00129
33.2 0.0017
33.25 0.00146
33.3 0.00069
33.35 -0.00016
33.4 -0.00086
33.45 -0.00141
33.5 -0.00134
33.55 -0.00141
33.6 -0.00084
33.65 -0.00051
33.7 -0.00027
33.75 -0.00001
33.8 -0.00002
33.85 -0.00028
33.9 -0.00047
33.95 -0.00059
34 -0.00007
34.05 0.0002
34.1 0.00013
34.15 -0.00039
34.2 -0.00026
34.25 -0.00011
34.3 -0.00031
34.35 -0.00059
34.4 -0.0002
34.45 0.0001
34.5 -0.00017
34.55 -0.00082
34.6 -0.00086
34.65 -0.00093
34.7 -0.00104
34.75 -0.00057
34.8 -0.0005
34.85 -0.00018
34.9 -0.00001
34.95 0.00004
35 -0.00019
35.05 -0.00006
35.1 -0.00038
35.15 -0.00068
35.2 -0.00054
35.25 0.00009
35.3 0.00074
35.35 0.00114
35.4 0.00165
35.45 0.00204
35.5 0.00216
35.55 0.00251
35.6 0.00286
35.65 0.00338
35.7 0.00386
35.75 0.00403
35.8 0.00416
35.85 0.00411
35.9 0.00338
35.95 0.00209
36 0.00063
36.05 -0.00015
36.1 -0.00086
36.15 -0.00131
36.2 -0.00112
36.25 -0.00109
36.3 -0.00128
36.35 -0.00127
36.4 -0.00136
36.45 -0.00096
36.5 -0.00048
36.55 -0.00043
36.6 -0.00029
36.65 0.00004
36.7 0.00051
36.75 0.0011
36.8 0.00181
36.85 0.00225
36.9 0.00248
36.95 0.00187
37 0.00094
37.05 0.00067
37.1 0.00058
37.15 0.00099
37.2 0.00132
37.25 0.00141
37.3 0.00115
37.35 0.00127
37.4 0.00072
37.45 -0.00001
37.5 -0.00079
37.55 -0.00125
37.6 -0.0015
37.65 -0.00131
37.7 -0.00099
37.75 -0.00037
37.8 -0.00008
37.85 0.00046
37.9 0.00074
37.95 0.00042
38 0.00062
38.05 0.00021
38.1 0.00028
38.15 0.00011
38.2 -0.00045
38.25 -0.00108
38.3 -0.00133
38.35 -0.00095
38.4 -0.00105
38.45 -0.001
38.5 -0.00081
38.55 -0.001
38.6 -0.00078
38.65 -0.00082
38.7 -0.00036
38.75 0.00012
38.8 0.0009
38.85 0.00167
38.9 0.00202
38.95 0.00194
39 0.00126
39.05 0.00077
39.1 0.00004
39.15 -0.00031
39.2 -0.00031
39.25 -0.00059
39.3 -0.001
39.35 -0.00112
39.4 -0.00079
39.45 -0.00054
39.5 -0.00086
39.55 -0.00125
39.6 -0.00099
39.65 -0.0006
39.7 0.00007
39.75 0.00017
39.8 -0.00031
39.85 -0.00052
39.9 -0.0002
39.95 0.00029
40 0.00059
40.05 0.00087
40.1 0.00133
40.15 0.00143
40.2 0.00186
40.25 0.00175
40.3 0.00194
40.35 0.00178
40.4 0.00134
40.45 0.00072
40.5 -0.0001
40.55 -0.00084
40.6 -0.00098
40.65 -0.00068
40.7 -0.00064
40.75 -0.00049
40.8 -0.00024
40.85 -0.0006
40.9 -0.00067
40.95 -0.00111
41 -0.00112
41.05 -0.00073
41.1 -0.00092
41.15 -0.00069
41.2 -0.00052
41.25 -0.00075
41.3 -0.00098
41.35 -0.00092
41.4 -0.00113
41.45 -0.00153
41.5 -0.00186
41.55 -0.00188
41.6 -0.00221
41.65 -0.00201
41.7 -0.00134
41.75 -0.00091
41.8 -0.00078
41.85 -0.00067
41.9 -0.00072
41.95 -0.00038
42 0.00028
42.05 0.0009
42.1 0.00162
42.15 0.00165
42.2 0.0011
42.25 0.00112
42.3 0.00136
42.35 0.00157
42.4 0.00123
42.45 0.00102
42.5 0.00027
42.55 -0.00044
42.6 -0.00082
42.65 -0.00066
42.7 -0.00058
42.75 -0.00037
42.8 -0.00061
42.85 -0.00096
42.9 -0.00099
42.95 -0.00114
43 -0.00159
43.05 -0.00186
43.1 -0.00166
43.15 -0.00102
43.2 -0.00102
43.25 -0.00103
43.3 -0.00092
43.35 -0.00054
43.4 0.00006
43.45 0.0005
43.5 0.00104
43.55 0.00085
43.6 0.00053
43.65 0.00065
43.7 0.00029
43.75 0.0001
43.8 0.00001
43.85 -0.00028
43.9 -0.0007
43.95 -0.00123
44 -0.00118
44.05 -0.00071
44.1 -0.00018
44.15 -0.00013
44.2 0.00041
44.25 0.00123
44.3 0.00218
44.35 0.00238
44.4 0.00225
44.45 0.0023
44.5 0.00162
44.55 0.00154
44.6 0.0012
44.65 0.00118
44.7 0.00092
44.75 0.00043
44.8 -0.00054
44.85 -0.00123
44.9 -0.00121
44.95 -0.00138
45 -0.00115
45.05 -0.00153
45.1 -0.0017
45.15 -0.00243
45.2 -0.0036
45.25 -0.00505
45.3 -0.0057
45.35 -0.00683
45.4 -0.00773
45.45 -0.00876
45.5 -0.0098
45.55 -0.01073
45.6 -0.01205
45.65 -0.01351
45.7 -0.01506
45.75 -0.01707
45.8 -0.01945
45.85 -0.02311
45.9 -0.02772
45.95 -0.03294
46 -0.03858
46.05 -0.04428
46.1 -0.05064
46.15 -0.05771
46.2 -0.06564
46.25 -0.07413
46.3 -0.08295
46.35 -0.09241
46.4 -0.1023
46.45 -0.11288
46.5 -0.1243
46.55 -0.13626
46.6 -0.14869
46.65 -0.16156
46.7 -0.17508
46.75 -0.18815
46.8 -0.20114
46.85 -0.21424
46.9 -0.22687
46.95 -0.23854
47 -0.24953
47.05 -0.26023
47.1 -0.27031
47.15 -0.27973
47.2 -0.28796
47.25 -0.29481
47.3 -0.30023
47.35 -0.30396
47.4 -0.30558
47.45 -0.30557
47.5 -0.30373
47.55 -0.30001
47.6 -0.29454
47.65 -0.28712
47.7 -0.27768
47.75 -0.26687
47.8 -0.25509
47.85 -0.24133
47.9 -0.22608
47.95 -0.21035
48 -0.19344
48.05 -0.17546
48.1 -0.15635
48.15 -0.13683
48.2 -0.11702
48.25 -0.09687
48.3 -0.07721
48.35 -0.05711
48.4 -0.03711
48.45 -0.01717
48.5 0.00295
48.55 0.02232
48.6 0.04158
48.65 0.05975
48.7 0.07742
48.75 0.09504
48.8 0.11252
48.85 0.12938
48.9 0.14558
48.95 0.16051
49 0.17491
49.05 0.18824
49.1 0.20058
49.15 0.21267
49.2 0.22426
49.25 0.23507
49.3 0.24537
49.35 0.25486
49.4 0.26333
49.45 0.27102
49.5 0.27761
49.55 0.28391
49.6 0.28878
49.65 0.29312
49.7 0.29688
49.75 0.29929
49.8 0.30108
49.85 0.302
49.9 0.30166
49.95 0.30042
50 0.29807
50.05 0.2957
50.1 0.29223
50.15 0.28845
50.2 0.28416
50.25 0.27937
50.3 0.27435
50.35 0.26919
50.4 0.26338
50.45 0.25693
50.5 0.24936
50.55 0.24173
50.6 0.23352
50.65 0.22551
50.7 0.21773
50.75 0.21022
50.8 0.20261
50.85 0.19507
50.9 0.18697
50.95 0.17827
51 0.16965
51.05 0.16096
51.1 0.15302
51.15 0.14476
51.2 0.13703
51.25 0.12937
51.3 0.12255
51.35 0.11597
51.4 0.1097
51.45 0.10317
51.5 0.09727
51.55 0.09086
51.6 0.08423
51.65 0.07846
51.7 0.0725
51.75 0.06749
51.8 0.06269
51.85 0.0584
51.9 0.05375
51.95 0.04947
52 0.0448
52.05 0.04059
52.1 0.03692
52.15 0.03345
52.2 0.0297
52.25 0.02625
52.3 0.02279
52.35 0.01975
52.4 0.01641
52.45 0.01298
52.5 0.00957
52.55 0.007
52.6 0.00438
52.65 0.0022
52.7 0.0005
52.75 -0.00136
52.8 -0.00295
52.85 -0.00435
52.9 -0.0057
52.95 -0.00697
53 -0.00867
53.05 -0.01079
53.1 -0.01325
53.15 -0.01513
53.2 -0.01745
53.25 -0.01983
53.3 -0.02137
53.35 -0.02234
53.4 -0.02341
53.45 -0.02461
53.5 -0.02629
53.55 -0.02738
53.6 -0.02789
53.65 -0.02841
53.7 -0.02919
53.75 -0.03009
53.8 -0.03051
53.85 -0.03102
53.9 -0.03152
53.95 -0.03258
54 -0.03334
54.05 -0.03358
54.1 -0.03447
54.15 -0.03518
54.2 -0.03541
54.25 -0.03622
54.3 -0.03679
54.35 -0.03761
54.4 -0.03817
54.45 -0.03897
54.5 -0.03992
54.55 -0.04062
54.6 -0.04076
54.65 -0.04108
54.7 -0.04138
54.75 -0.04162
54.8 -0.04193
54.85 -0.04218
54.9 -0.04151
54.95 -0.0411
55 -0.04077
55.05 -0.03991
55.1 -0.03924
55.15 -0.039
55.2 -0.03827
55.25 -0.03757
55.3 -0.03729
55.35 -0.03737
55.4 -0.03754
55.45 -0.03718
55.5 -0.03669
55.55 -0.0357
55.6 -0.03496
55.65 -0.03473
55.7 -0.03385
55.75 -0.03297
55.8 -0.03189
55.85 -0.03103
55.9 -0.03051
55.95 -0.03027
56 -0.03016
56.05 -0.03051
56.1 -0.03029
56.15 -0.03019
56.2 -0.03038
56.25 -0.02981
56.3 -0.02942
56.35 -0.02896
56.4 -0.02832
56.45 -0.02741
56.5 -0.02724
56.55 -0.02664
56.6 -0.0262
56.65 -0.02611
56.7 -0.02579
56.75 -0.02569
56.8 -0.02515
56.85 -0.02506
56.9 -0.025
56.95 -0.02451
57 -0.024
57.05 -0.02394
57.1 -0.02319
57.15 -0.02224
57.2 -0.02156
57.25 -0.02098
57.3 -0.02005
57.35 -0.01982
57.4 -0.01958
57.45 -0.01967
57.5 -0.01981
57.55 -0.01978
57.6 -0.02012
57.65 -0.01997
57.7 -0.01949
57.75 -0.01922
57.8 -0.01919
57.85 -0.01946
57.9 -0.01932
57.95 -0.01894
58 -0.01894
58.05 -0.01891
58.1 -0.01881
58.15 -0.01863
58.2 -0.01852
58.25 -0.01804
58.3 -0.01734
58.35 -0.01657
58.4 -0.01566
58.45 -0.01509
58.5 -0.01427
58.55 -0.01413
58.6 -0.0145
58.65 -0.01462
58.7 -0.01442
58.75 -0.01441
58.8 -0.01392
58.85 -0.01296
58.9 -0.01262
58.95 -0.01263
59 -0.01284
59.05 -0.0124
59.1 -0.01232
59.15 -0.01176
59.2 -0.01107
59.25 -0.0108
59.3 -0.01048
59.35 -0.01015
59.4 -0.01023
59.45 -0.00989
59.5 -0.00973
59.55 -0.00987
59.6 -0.00963
59.65 -0.00996
59.7 -0.00981
59.75 -0.01015
59.8 -0.01011
59.85 -0.01002
59.9 -0.01001
59.95 -0.00947
60 -0.00926
60.05 -0.00946
60.1 -0.00977
60.15 -0.00933
60.2 -0.00912
60.25 -0.00923
60.3 -0.00898
60.35 -0.00821
60.4 -0.00812
60.45 -0.00764
60.5 -0.00777
60.55 -0.0081
60.6 -0.00859
60.65 -0.00924
60.7 -0.00951
60.75 -0.00926
60.8 -0.00842
60.85 -0.00789
60.9 -0.00719
60.95 -0.00664
61 -0.00597
61.05 -0.00593
61.1 -0.00573
61.15 -0.0057
61.2 -0.00539
61.25 -0.00548
61.3 -0.00595
61.35 -0.00639
61.4 -0.00708
61.45 -0.0077
61.5 -0.00764
61.55 -0.00719
61.6 -0.00693
61.65 -0.00616
61.7 -0.00514
61.75 -0.00487
61.8 -0.0043
61.85 -0.00372
61.9 -0.00316
61.95 -0.00337
62 -0.00326
62.05 -0.00342
62.1 -0.00401
62.15 -0.00428
62.2 -0.00434
62.25 -0.00428
62.3 -0.00468
62.35 -0.00483
62.4 -0.00465
62.45 -0.00449
62.5 -0.00391
62.55 -0.00374
62.6 -0.00395
62.65 -0.00433
62.7 -0.00405
62.75 -0.00426
62.8 -0.00403
62.85 -0.00411
62.9 -0.00359
62.95 -0.00274
63 -0.00273
63.05 -0.00268
63.1 -0.00234
63.15 -0.00174
63.2 -0.00132
63.25 -0.00125
63.3 -0.00109
63.35 -0.00099
63.4 -0.00085
63.45 -0.00056
63.5 -0.00007
63.55 -0.00008
63.6 -0.00062
63.65 -0.00106
63.7 -0.00141
63.75 -0.00127
63.8 -0.00122
63.85 -0.0017
63.9 -0.00256
63.95 -0.00347
64 -0.00384
64.05 -0.00451
64.1 -0.00475
64.15 -0.00479
64.2 -0.00464
64.25 -0.00427
64.3 -0.00436
64.35 -0.00393
64.4 -0.00399
64.45 -0.00335
64.5 -0.00281
64.55 -0.00212
64.6 -0.00187
64.65 -0.00147
64.7 -0.00179
64.75 -0.0021
64.8 -0.00189
64.85 -0.00153
64.9 -0.00107
64.95 -0.0013
65 -0.00186
65.05 -0.00209
65.1 -0.00183
65.15 -0.00197
65.2 -0.002
65.25 -0.00195
65.3 -0.00172
65.35 -0.00207
65.4 -0.00268
65.45 -0.00289
65.5 -0.0027
65.55 -0.00291
65.6 -0.00241
65.65 -0.00219
65.7 -0.00224
65.75 -0.00254
65.8 -0.0031
65.85 -0.00345
65.9 -0.00382
65.95 -0.00378
66 -0.00382
66.05 -0.00394
66.1 -0.00421
66.15 -0.0042
66.2 -0.00417
66.25 -0.00435
66.3 -0.0037
66.35 -0.00335
66.4 -0.00248
66.45 -0.00223
66.5 -0.00216
66.55 -0.00215
66.6 -0.00244
66.65 -0.00235
66.7 -0.00256
66.75 -0.00233
66.8 -0.002
66.85 -0.00139
66.9 -0.0006
66.95 -0.00023
67 -0.00005
67.05 -0.00009
67.1 -0.00026
67.15 -0.00001
67.2 0.00041
67.25 0.00107
67.3 0.00101
67.35 0.00069
67.4 -0.00006
67.45 -0.00054
67.5 -0.00094
67.55 -0.00125
67.6 -0.00154
67.65 -0.00191
67.7 -0.00247
67.75 -0.0027
67.8 -0.00309
67.85 -0.00316
67.9 -0.0035
67.95 -0.00353
68 -0.00286
68.05 -0.00194
68.1 -0.00172
68.15 -0.0016
68.2 -0.0019
68.25 -0.00174
68.3 -0.00114
68.35 -0.00093
68.4 -0.00105
68.45 -0.00148
68.5 -0.00194
68.55 -0.00162
68.6 -0.00178
68.65 -0.0014
68.7 -0.00093
68.75 -0.00074
68.8 -0.00047
68.85 -0.00053
68.9 -0.00083
68.95 -0.00113
69 -0.00084
69.05 -0.00107
69.1 -0.00114
69.15 -0.00054
69.2 -0.00026
69.25 0.00014
69.3 0.00007
69.35 0.0003
69.4 0.00098
69.45 0.00184
69.5 0.00257
69.55 0.00245
69.6 0.00207
69.65 0.0017
69.7 0.00166
69.75 0.0015
69.8 0.00079
69.85 0.00056
69.9 0.00087
69.95 0.00136
70 0.00179
70.05 0.0021
70.1 0.00234
70.15 0.00181
70.2 0.00086
70.25 0.00062
70.3 -0.00004
70.35 -0.00057
70.4 -0.00125
70.45 -0.00205
70.5 -0.00212
70.55 -0.00225
70.6 -0.00199
70.65 -0.00191
70.7 -0.00125
70.75 -0.00062
70.8 -0.00006
70.85 0.00063
70.9 0.00152
70.95 0.00246
71 0.00325
71.05 0.00361
71.1 0.00316
71.15 0.00289
71.2 0.00297
71.25 0.00297
71.3 0.00224
71.35 0.00176
71.4 0.00107
71.45 0.00099
71.5 0.00134
71.55 0.00128
71.6 0.00159
71.65 0.00136
71.7 0.00154
71.75 0.00178
71.8 0.00224
71.85 0.00191
71.9 0.00146
71.95 0.0014
72 0.00134
72.05 0.00087
72.1 0.0006
72.15 0.00061
72.2 0.00065
72.25 0.001
72.3 0.00091
72.35 0.00047
72.4 0.00055
72.45 0.00063
72.5 0.00052
72.55 0.00042
72.6 0.00074
72.65 0.00069
72.7 0.00016
72.75 -0.00026
72.8 -0.00033
72.85 -0.00063
72.9 -0.00107
72.95 -0.00144
73 -0.00158
73.05 -0.00117
73.1 -0.0006
73.15 -0.00011
73.2 0.00035
73.25 0.00068
73.3 0.00087
73.35 0.00053
73.4 0.00033
73.45 0.0004
73.5 0.00078
73.55 0.00088
73.6 0.0012
73.65 0.0011
73.7 0.00054
73.75 0.00021
73.8 -0.00058
73.85 -0.00081
73.9 -0.00043
73.95 -0.00048
74 -0.00047
74.05 0.00003
74.1 -0.00019
74.15 -0.00013
74.2 0.0003
74.25 0.00038
74.3 0.00034
74.35 0.00072
74.4 0.0006
74.45 0.00037
74.5 0.00035
74.55 -0.00015
74.6 -0.00012
74.65 -0.00025
74.7 -0.00004
74.75 -0.00024
74.8 -0.00042
74.85 -0.00063
74.9 -0.00037
74.95 -0.00054
75 -0.00118
75.05 -0.00204
75.1 -0.00291
75.15 -0.00344
75.2 -0.00314
75.25 -0.00238
75.3 -0.00161
75.35 -0.00079
75.4 -0.00001
75.45 0
75.5 -0.00004
75.55 0.00012
75.6 0.00036
75.65 0.00078
75.7 0.00138
75.75 0.00193
75.8 0.00168
75.85 0.00156
75.9 0.00097
75.95 0.00038
76 0.00045
76.05 0.00013
76.1 -0.00013
76.15 -0.0008
76.2 -0.00167
76.25 -0.00235
76.3 -0.00242
76.35 -0.0027
76.4 -0.00244
76.45 -0.00246
76.5 -0.00211
76.55 -0.00177
76.6 -0.00163
76.65 -0.00177
76.7 -0.00177
76.75 -0.00158
76.8 -0.00115
76.85 -0.00102
76.9 -0.00055
76.95 -0.00027
77 0.00028
77.05 0.00007
77.1 0.00041
77.15 0.00071
77.2 0.00127
77.25 0.00201
77.3 0.00201
77.35 0.00221
77.4 0.00185
77.45 0.00187
77.5 0.00146
77.55 0.00137
77.6 0.00107
77.65 0.00073
77.7 0.00084
77.75 0.00124
77.8 0.00155
77.85 0.00154
77.9 0.00152
77.95 0.00178
78 0.0021
78.05 0.00204
78.1 0.00154
78.15 0.00124
78.2 0.00127
78.25 0.00154
78.3 0.00187
78.35 0.0014
78.4 0.00091
78.45 0.00005
78.5 -0.00006
78.55 -0.0005
78.6 -0.00044
78.65 -0.00061
78.7 -0.00095
78.75 -0.00163
78.8 -0.0022
78.85 -0.00294
78.9 -0.00365
78.95 -0.00383
79 -0.0032
79.05 -0.0029
79.1 -0.0029
79.15 -0.00287
79.2 -0.00219
79.25 -0.00211
79.3 -0.00163
79.35 -0.00158
79.4 -0.00109
79.45 -0.00089
79.5 -0.00062
79.55 -0.00004
79.6 0.00054
79.65 0.00092
79.7 0.00153
79.75 0.00222
79.8 0.00261
79.85 0.0021
79.9 0.00195
79.95 0.002
80 0.00226
80.05 0.0019
80.1 0.00101
80.15 -0.0001
80.2 -0.00066
80.25 -0.00107
80.3 -0.00107
80.35 -0.00114
80.4 -0.00124
80.45 -0.00142
80.5 -0.00169
80.55 -0.0022
80.6 -0.0019
80.65 -0.00131
80.7 -0.00071
80.75 -0.00057
80.8 -0.00019
80.85 -0.00029
80.9 -0.00051
80.95 -0.00077
81 -0.00044
81.05 -0.0004
81.1 -0.00065
81.15 -0.00046
81.2 -0.00019
81.25 -0.00039
81.3 -0.00066
81.35 -0.00076
81.4 -0.00026
81.45 -0.00001
81.5 -0.00004
81.55 -0.00053
81.6 -0.00079
81.65 -0.00118
81.7 -0.00087
81.75 -0.00105
81.8 -0.00135
81.85 -0.00138
81.9 -0.00129
81.95 -0.00136
82 -0.00117
82.05 -0.0009
82.1 -0.00054
82.15 0.00007
82.2 0.00029
82.25 0.00009
82.3 0.00043
82.35 0.00086
82.4 0.00062
82.45 0.00037
82.5 0.00001
82.55 0.00022
82.6 0.00069
82.65 0.00129
82.7 0.00161
82.75 0.00173
82.8 0.00124
82.85 0.00054
82.9 0.00009
82.95 0.00023
83 0.00016
83.05 -0.0002
83.1 -0.0007
83.15 -0.00144
83.2 -0.00152
83.25 -0.0012
83.3 -0.00125
83.35 -0.00153
83.4 -0.00187
83.45 -0.00218
83.5 -0.00246
83.55 -0.00255
83.6 -0.00191
83.65 -0.00163
83.7 -0.00146
83.75 -0.0011
83.8 -0.00112
83.85 -0.00104
83.9 -0.00118
83.95 -0.00131
84 -0.00121
84.05 -0.00111
84.1 -0.00131
84.15 -0.00094
84.2 -0.00091
84.25 -0.00095
84.3 -0.00095
84.35 -0.00088
84.4 -0.00094
84.45 -0.0008
84.5 -0.00013
84.55 0.0007
84.6 0.00149
84.65 0.00149
84.7 0.00115
84.75 0.00127
84.8 0.00171
84.85 0.00226
84.9 0.00281
84.95 0.00343
85 0.004
85.05 0.00371
85.1 0.00367
85.15 0.00346
85.2 0.00332
85.25 0.00309
85.3 0.00311
85.35 0.00313
85.4 0.00241
85.45 0.00201
85.5 0.00199
85.55 0.00152
85.6 0.00154
85.65 0.00187
85.7 0.00173
85.75 0.00094
85.8 -0.00012
85.85 -0.00069
85.9 -0.0009
85.95 -0.00136
86 -0.00176
86.05 -0.00238
86.1 -0.00239
86.15 -0.00177
86.2 -0.0009
86.25 -0.00065
86.3 -0.00038
86.35 -0.00008
86.4 0.00003
86.45 -0.00027
86.5 -0.0002
86.55 -0.0002
86.6 -0.00015
86.65 -0.00065
86.7 -0.00086
86.75 -0.00084
86.8 -0.00028
86.85 -0.00044
86.9 -0.00019
86.95 -0.00046
87 -0.00066
87.05 -0.00032
87.1 0.00034
87.15 0.00037
87.2 -0.00007
87.25 -0.00009
87.3 -0.00009
87.35 -0.00006
87.4 0.00021
87.45 0.00034
87.5 0.0008
87.55 0.00115
87.6 0.00095
87.65 0.00073
87.7 0.00024
87.75 -0.00032
87.8 -0.00042
87.85 -0.00037
87.9 0.00001
87.95 0.00034
88 0.00063
88.05 0.00086
88.1 0.00116
88.15 0.00079
88.2 0.00065
88.25 0.00066
88.3 0.00009
88.35 -0.0005
88.4 -0.00098
88.45 -0.00088
88.5 -0.00037
88.55 -0.00022
88.6 0.00005
88.65 0.00059
88.7 0.00068
88.75 0.00053
88.8 -0.00003
88.85 0.00007
88.9 -0.00019
88.95 -0.00041
89 -0.00026
89.05 0.00001
89.1 0.00014
89.15 0.00031
89.2 0.0006
89.25 0.00103
89.3 0.00083
89.35 0.00072
89.4 0.00002
89.45 -0.00093
89.5 -0.00172
89.55 -0.00237
89.6 -0.00284
89.65 -0.00244
89.7 -0.00207
89.75 -0.00126
89.8 -0.00116
89.85 -0.00062
89.9 -0.00071
89.95 -0.00114
90 -0.00149
90.05 -0.00154
90.1 -0.00122
90.15 -0.00085
90.2 -0.00034
90.25 0.0001
90.3 0.0002
90.35 0.00054
90.4 0.00107
90.45 0.00084
90.5 0.00047
90.55 0.00024
90.6 -0.00001
90.65 0.00013
90.7 0.00043
90.75 0.0001
90.8 0.00018
90.85 0.00066
90.9 0.00067
90.95 0.00028
91 0.00014
91.05 -0.00049
91.1 -0.0009
91.15 -0.00089
91.2 -0.00039
91.25 -0.00026
91.3 -0.0006
91.35 -0.0011
91.4 -0.00146
91.45 -0.0013
91.5 -0.00096
91.55 -0.00044
91.6 0.0001
91.65 0.00033
91.7 0.00041
91.75 0.00014
91.8 0.00026
91.85 0.00076
91.9 0.00074
91.95 0.00072
92 0.00062
92.05 0.00022
92.1 -0.00001
92.15 -0.00009
92.2 -0.00033
92.25 -0.00016
92.3 -0.00055
92.35 -0.0003
92.4 0.00026
92.45 0.00075
92.5 0.00044
92.55 0.00028
92.6 0.00031
92.65 0.00017
92.7 0.00037
92.75 0.00003
92.8 0.00025
92.85 0.00086
92.9 0.00137
92.95 0.00134
93 0.00147
93.05 0.0009
93.1 0.00031
93.15 0.00031
93.2 0.00046
93.25 0.00063
93.3 0.0008
93.35 0.00048
93.4 0.00023
93.45 -0.00037
93.5 -0.00042
93.55 -0.00001
93.6 0.00033
93.65 0.00073
93.7 0.00036
93.75 0.0002
93.8 -0.00037
93.85 -0.00064
93.9 -0.00125
93.95 -0.00169
94 -0.0016
94.05 -0.00168
94.1 -0.00133
94.15 -0.00132
94.2 -0.00109
94.25 -0.00086
94.3 -0.00053
94.35 0.00013
94.4 0.00036
94.45 0.00048
94.5 0.00042
94.55 0.00036
94.6 -0.00024
94.65 -0.00115
94.7 -0.00161
94.75 -0.00233
94.8 -0.00243
94.85 -0.00201
94.9 -0.00166
94.95 -0.00087
95 -0.00062
95.05 -0.00076
95.1 -0.00032
95.15 0.00049
95.2 0.00075
95.25 0.00081
95.3 0.00082
95.35 0.00108
95.4 0.00135
95.45 0.00176
95.5 0.00144
95.55 0.00156
95.6 0.00156
95.65 0.00143
95.7 0.0008
95.75 0.0002
95.8 -0.00009
95.85 -0.00051
95.9 -0.00087
95.95 -0.00102
96 -0.00107
96.05 -0.00148
96.1 -0.00187
96.15 -0.00198
96.2 -0.0019
96.25 -0.00203
96.3 -0.00151
96.35 -0.00068
96.4 -0.00017
96.45 0.00004
96.5 -0.00021
96.55 -0.00057
96.6 -0.00102
96.65 -0.001
96.7 -0.00082
96.75 -0.00102
96.8 -0.00088
96.85 -0.00106
96.9 -0.00076
96.95 -0.00088
97 -0.00078
97.05 -0.00106
97.1 -0.00081
97.15 -0.00098
97.2 -0.00142
97.25 -0.00111
97.3 -0.00072
97.35 -0.00042
97.4 -0.00029
97.45 -0.00006
97.5 -0.00017
97.55 -0.00056
97.6 -0.00118
97.65 -0.00099
97.7 -0.00029
97.75 0.00035
97.8 0.00123
97.85 0.00123
97.9 0.00085
97.95 0.00018
98 -0.00048
98.05 -0.00046
98.1 0.00005
98.15 0.00022
98.2 -0.00013
98.25 -0.00082
98.3 -0.00092
98.35 -0.0009
98.4 -0.00086
98.45 -0.00079
98.5 -0.00031
98.55 0.00027
98.6 0.00056
98.65 0.00042
98.7 -0.00014
98.75 -0.0007
98.8 -0.00134
98.85 -0.00176
98.9 -0.00227
98.95 -0.00249
99 -0.00208
99.05 -0.00215
99.1 -0.00182
99.15 -0.00192
99.2 -0.00162
99.25 -0.00136
99.3 -0.00157
99.35 -0.00202
99.4 -0.00163
99.45 -0.00077
99.5 0.00001
99.55 0.0007
99.6 0.00063
99.65 0.00077
99.7 0.00095
99.75 0.00083
99.8 0.00034
99.85 -0.00006
99.9 0.00013
99.95 0.00041
