0 0
0.05 0.00152
0.1 0.00377
0.15 0.00511
0.2 0.0063
0.25 0.00778
0.3 0.00898
0.35 0.00927
0.4 0.00966
0.45 0.00922
0.5 0.00816
0.55 0.00841
0.6 0.00933
0.65 0.01062
0.7 0.01191
0.75 0.0125
0.8 0.012
0.85 0.01107
0.9 0.01047
0.95 0.00945
1 0.00785
1.05 0.00685
1.1 0.00573
1.15 0.00566
1.2 0.0061
1.25 0.00586
1.3 0.00621
1.35 0.00711
1.4 0.00813
1.45 0.00786
1.5 0.00728
1.55 0.00774
1.6 0.00829
1.65 0.00912
1.7 0.00995
1.75 0.01049
1.8 0.0101
1.85 0.00904
1.9 0.00877
1.95 0.00914
2 0.00976
2.05 0.01009
2.1 0.00924
2.15 0.00878
2.2 0.00804
2.25 0.00715
2.3 0.00611
2.35 0.00499
2.4 0.00362
2.45 0.00258
2.5 0.00198
2.55 0.00253
2.6 0.00345
2.65 0.00445
2.7 0.00507
2.75 0.00479
2.8 0.00387
2.85 0.00288
2.9 0.00162
2.95 0.00107
3 0.00157
3.05 0.00152
3.1 0.00195
3.15 0.00247
3.2 0.00364
3.25 0.00439
3.3 0.00503
3.35 0.00456
3.4 0.00365
3.45 0.00227
3.5 0.00149
3.55 0.00048
3.6 -0.00014
3.65 0.00019
3.7 0.00091
3.75 0.0012
3.8 0.00171
3.85 0.00291
3.9 0.00425
3.95 0.00483
4 0.00572
4.05 0.00647
4.1 0.00652
4.15 0.0054
4.2 0.00371
4.25 0.00238
4.3 0.00166
4.35 0.00079
4.4 0.00001
4.45 0.00027
4.5 0.00049
4.55 0.00019
4.6 0.00089
4.65 0.00217
4.7 0.00304
4.75 0.00409
4.8 0.00511
4.85 0.00613
4.9 0.00589
4.95 0.00563
5 0.00588
5.05 0.00491
5.1 0.00351
5.15 0.00239
5.2 0.00109
5.25 0.00011
5.3 -0.00027
5.35 -0.00029
5.4 -0.00049
5.45 -0.00008
5.5 -0.00039
5.55 -0.00125
5.6 -0.00105
5.65 0.00007
5.7 0.00146
5.75 0.00243
5.8 0.00323
5.85 0.00352
5.9 0.00404
5.95 0.0045
6 0.00483
6.05 0.00513
6.1 0.00554
6.15 0.00503
6.2 0.00521
6.25 0.00468
6.3 0.00435
6.35 0.00426
6.4 0.00397
6.45 0.00315
6.5 0.0021
6.55 0.00096
6.6 0.00079
6.65 0.00126
6.7 0.00184
6.75 0.00264
6.8 0.00354
6.85 0.00415
6.9 0.00378
6.95 0.00252
7 0.00196
7.05 0.00212
7.1 0.00276
7.15 0.0032
7.2 0.0029
7.25 0.0024
7.3 0.0014
7.35 0.00123
7.4 0.00145
7.45 0.00184
7.5 0.00229
7.55 0.00304
7.6 0.00396
7.65 0.00388
7.7 0.00438
7.75 0.00347
7.8 0.003
7.85 0.00236
7.9 0.00239
7.95 0.00168
8 0.00147
8.05 0.00083
8.1 0.00016
8.15 -0.00053
8.2 -0.00076
8.25 -0.00054
8.3 -0.00009
8.35 -0.00001
8.4 0.00026
8.45 0.001
8.5 0.00194
8.55 0.00188
8.6 0.00217
8.65 0.00267
8.7 0.00333
8.75 0.0037
8.8 0.00351
8.85 0.00262
8.9 0.00225
8.95 0.00235
9 0.00209
9.05 0.00185
9.1 0.00139
9.15 0.00101
9.2 -0.00023
9.25 -0.00185
9.3 -0.00277
9.35 -0.00281
9.4 -0.00265
9.45 -0.00305
9.5 -0.00345
9.55 -0.0037
9.6 -0.00365
9.65 -0.00332
9.7 -0.00336
9.75 -0.00326
9.8 -0.0035
9.85 -0.00312
9.9 -0.00184
9.95 -0.00101
10 -0.00013
10.05 0.00062
10.1 0.00021
10.15 -0.00042
10.2 -0.00021
10.25 -0.00001
10.3 -0.00005
10.35 -0.00041
10.4 -0.00081
10.45 -0.00109
10.5 -0.00099
10.55 -0.00032
10.6 -0.00025
10.65 0.00053
10.7 0.00126
10.75 0.00132
10.8 0.00173
10.85 0.00174
10.9 0.00217
10.95 0.00269
11 0.00304
11.05 0.00379
11.1 0.00349
11.15 0.00226
11.2 0.00114
11.25 0.00109
11.3 0.00174
11.35 0.00203
11.4 0.00253
11.45 0.00346
11.5 0.00295
11.55 0.00147
11.6 0.00064
11.65 0.00026
11.7 0.00043
11.75 -0.00031
11.8 -0.00055
11.85 -0.00077
11.9 -0.00143
11.95 -0.00116
12 -0.00135
12.05 -0.00212
12.1 -0.00228
12.15 -0.00305
12.2 -0.00264
12.25 -0.00159
12.3 -0.00058
12.35 -0.0007
12.4 -0.00063
12.45 -0.00083
12.5 -0.00177
12.55 -0.00179
12.6 -0.0022
12.65 -0.00158
12.7 -0.00183
12.75 -0.0012
12.8 -0.00065
12.85 -0.00022
12.9 0.00029
12.95 0.00099
13 0.00146
13.05 0.00232
13.1 0.00328
13.15 0.00303
13.2 0.00258
13.25 0.00204
13.3 0.00167
13.35 0.00141
13.4 0.00136
13.45 0.00101
13.5 0.00071
13.55 -0.00038
13.6 -0.00122
13.65 -0.00193
13.7 -0.00263
13.75 -0.00207
13.8 -0.00214
13.85 -0.00242
13.9 -0.00219
13.95 -0.0017
14 -0.00193
14.05 -0.00231
14.1 -0.00268
14.15 -0.00354
14.2 -0.00363
14.25 -0.00299
14.3 -0.00274
14.35 -0.00167
14.4 -0.00061
14.45 0.00059
14.5 0.00146
14.55 0.00239
14.6 0.00361
14.65 0.00381
14.7 0.0039
14.75 0.00343
14.8 0.00306
14.85 0.00276
14.9 0.00299
14.95 0.00243
15 0.00167
15.05 0.00149
15.1 0.00081
15.15 0.00072
15.2 0.00091
15.25 0.0017
15.3 0.00121
15.35 0.00098
15.4 0.0007
15.45 0.00012
15.5 -0.00028
15.55 0.00011
15.6 0.00088
15.65 0.00076
15.7 0.00047
15.75 -0.00056
15.8 -0.00051
15.85 0.00014
15.9 -0.00032
15.95 -0.00106
16 -0.00147
16.05 -0.00088
16.1 -0.00067
16.15 -0.0013
16.2 -0.00092
16.25 -0.00099
16.3 -0.00121
16.35 -0.00204
16.4 -0.00325
16.45 -0.00337
16.5 -0.00306
16.55 -0.00345
16.6 -0.00377
16.65 -0.00443
16.7 -0.0039
16.75 -0.00244
16.8 -0.00193
16.85 -0.00104
16.9 -0.00024
16.95 -0.00042
17 -0.00089
17.05 -0.00169
17.1 -0.0019
17.15 -0.00262
17.2 -0.00336
17.25 -0.00351
17.3 -0.00322
17.35 -0.00244
17.4 -0.00238
17.45 -0.00206
17.5 -0.00102
17.55 -0.00012
17.6 -0.00014
17.65 -0.00059
17.7 -0.00017
17.75 0.00065
17.8 0.0016
17.85 0.00144
17.9 0.00209
17.95 0.00233
18 0.00165
18.05 0.00087
18.1 -0.00051
18.15 -0.00216
18.2 -0.00291
18.25 -0.00291
18.3 -0.0026
18.35 -0.0014
18.4 0.00006
18.45 0.0011
18.5 0.00211
18.55 0.00241
18.6 0.00284
18.65 0.00206
18.7 0.00189
18.75 0.00089
18.8 0.00017
18.85 -0.00104
18.9 -0.0009
18.95 0.00009
19 0.00111
19.05 0.00112
19.1 0.00104
19.15 0.00148
19.2 0.00114
19.25 0.00034
19.3 -0.00022
19.35 -0.00039
19.4 0.00019
19.45 0.0001
19.5 -0.00013
19.55 0.00048
19.6 0.00031
19.65 0.00053
19.7 0.00007
19.75 -0.00077
19.8 -0.00138
19.85 -0.00149
19.9 -0.00223
19.95 -0.00231
20 -0.00135
20.05 -0.00066
20.1 -0.00054
20.15 -0.00025
20.2 0.00082
20.25 0.00145
20.3 0.00246
20.35 0.00261
20.4 0.00273
20.45 0.00318
20.5 0.00385
20.55 0.00446
20.6 0.00466
20.65 0.00519
20.7 0.00429
20.75 0.00315
20.8 0.00277
20.85 0.0027
20.9 0.00306
20.95 0.00229
21 0.00096
21.05 -0.00071
21.1 -0.00204
21.15 -0.00192
21.2 -0.00092
21.25 -0.00003
21.3 0.00132
21.35 0.00194
21.4 0.0024
21.45 0.0018
21.5 0.00092
21.55 -0.00007
21.6 -0.00095
21.65 -0.00213
21.7 -0.00333
21.75 -0.00447
21.8 -0.00526
21.85 -0.00599
21.9 -0.0061
21.95 -0.00516
22 -0.00407
22.05 -0.003
22.1 -0.0023
22.15 -0.00178
22.2 -0.00193
22.25 -0.00152
22.3 -0.00106
22.35 -0.001
22.4 -0.00048
22.45 0.00057
22.5 0.00169
22.55 0.00305
22.6 0.00284
22.65 0.00202
22.7 0.00149
22.75 0.00061
22.8 -0.00028
22.85 -0.00151
22.9 -0.00136
22.95 -0.0004
23 -0.00008
23.05 0.0009
23.1 0.00158
23.15 0.00234
23.2 0.00183
23.25 0.00099
23.3 -0.00037
23.35 -0.00126
23.4 -0.0018
23.45 -0.00259
23.5 -0.00351
23.55 -0.00437
23.6 -0.00464
23.65 -0.00447
23.7 -0.00364
23.75 -0.00286
23.8 -0.00216
23.85 -0.00084
23.9 0.00004
23.95 0.00134
24 0.00139
24.05 0.00077
24.1 0.00117
24.15 0.00057
24.2 0.00034
24.25 0.00079
24.3 0.00113
24.35 0.0007
24.4 0.00045
24.45 0.00059
24.5 0.00018
24.55 -0.00014
24.6 -0.00013
24.65 0.00074
24.7 0.00147
24.75 0.00112
24.8 -0.00001
24.85 -0.00003
24.9 -0.0008
24.95 -0.00072
25 0.00021
25.05 0.00089
25.1 0.00107
25.15 0.00095
25.2 0.00096
25.25 0.00158
25.3 0.00232
25.35 0.00336
25.4 0.0032
25.45 0.00223
25.5 0.00197
25.55 0.00179
25.6 0.00163
25.65 0.00077
25.7 0.00052
25.75 0.00111
25.8 0.0006
25.85 -0.00012
25.9 0.00015
25.95 -0.00034
26 -0.00087
26.05 -0.00132
26.1 -0.00153
26.15 -0.00171
26.2 -0.00223
26.25 -0.00249
26.3 -0.00269
26.35 -0.00266
26.4 -0.00237
26.45 -0.00276
26.5 -0.00285
26.55 -0.00316
26.6 -0.0028
26.65 -0.00254
26.7 -0.00218
26.75 -0.00181
26.8 -0.00186
26.85 -0.00188
26.9 -0.00257
26.95 -0.00228
27 -0.00245
27.05 -0.00176
27.1 -0.00177
27.15 -0.00091
27.2 -0.00004
27.25 -0.00011
27.3 -0.00048
27.35 -0.00026
27.4 -0.00045
27.45 -0.00101
27.5 -0.00093
27.55 -0.00005
27.6 0.00109
27.65 0.00228
27.7 0.00296
27.75 0.00342
27.8 0.00374
27.85 0.0044
27.9 0.00474
27.95 0.00476
28 0.00421
28.05 0.00351
28.1 0.00224
28.15 0.00061
28.2 -0.00098
28.25 -0.00235
28.3 -0.00359
28.35 -0.00445
28.4 -0.00407
28.45 -0.00335
28.5 -0.00306
28.55 -0.00276
28.6 -0.00208
28.65 -0.00106
28.7 -0.00102
28.75 -0.00044
28.8 0.00051
28.85 0.00048
28.9 0.00102
28.95 0.00157
29 0.00241
29.05 0.00256
29.1 0.00223
29.15 0.00132
29.2 0.00126
29.25 0.0007
29.3 0.001
29.35 0.00176
29.4 0.00165
29.45 0.00067
29.5 -0.00027
29.55 -0.00024
29.6 0.00006
29.65 -0.00024
29.7 -0.00097
29.75 -0.00099
29.8 -0.00071
29.85 -0.00105
29.9 -0.00093
29.95 -0.00159
30 -0.00205
30.05 -0.00135
30.1 -0.00148
30.15 -0.00109
30.2 -0.00068
30.25 -0.00058
30.3 -0.00127
30.35 -0.00217
30.4 -0.00195
30.45 -0.00188
30.5 -0.00173
30.55 -0.001
30.6 -0.00108
30.65 -0.00094
30.7 -0.00067
30.75 -0.00038
30.8 -0.00004
30.85 0.00034
30.9 0.00086
30.95 0.00057
31 0.00075
31.05 0.00011
31.1 -0.00021
31.15 -0.0008
31.2 -0.00128
31.25 -0.00175
31.3 -0.0027
31.35 -0.00246
31.4 -0.00127
31.45 -0.00019
31.5 0.00056
31.55 0.00131
31.6 0.00137
31.65 0.00107
31.7 0.00076
31.75 -0.00023
31.8 -0.00146
31.85 -0.00246
31.9 -0.00205
31.95 -0.00092
32 -0.00057
32.05 -0.00041
32.1 -0.00018
32.15 -0.00071
32.2 -0.0006
32.25 -0.00005
32.3 0.00041
32.35 0.00053
32.4 0.00028
32.45 0.00069
32.5 0.00124
32.55 0.00183
32.6 0.00254
32.65 0.00359
32.7 0.00346
32.75 0.00236
32.8 0.00219
32.85 0.00145
32.9 0.00003
32.95 -0.00151
33 -0.00233
33.05 -0.00227
33.1 -0.00233
33.15 -0.00201
33.2 -0.00217
33.25 -0.00273
33.3 -0.00327
33.35 -0.00255
33.4 -0.00132
33.45 -0.00023
33.5 0.00098
33.55 0.0018
33.6 0.00298
33.65 0.00314
33.7 0.00266
33.75 0.002
33.8 0.00065
33.85 -0.00051
33.9 -0.00126
33.95 -0.00133
34 -0.00127
34.05 -0.00128
34.1 -0.00043
34.15 0.00059
34.2 0.00095
34.25 0.00103
34.3 0.00177
34.35 0.00195
34.4 0.00131
34.45 0.00163
34.5 0.00138
34.55 0.00078
34.6 0.00108
34.65 0.00194
34.7 0.00154
34.75 0.00149
34.8 0.0006
34.85 0.00078
34.9 0.00068
34.95 0.00034
35 -0.0003
35.05 0.00005
35.1 0.00033
35.15 -0.00037
35.2 -0.00077
35.25 -0.00132
35.3 -0.00122
35.35 -0.00141
35.4 -0.00153
35.45 -0.0018
35.5 -0.00203
35.55 -0.00273
35.6 -0.00344
35.65 -0.00393
35.7 -0.00443
35.75 -0.00502
35.8 -0.00503
35.85 -0.00413
35.9 -0.00398
35.95 -0.00403
36 -0.00416
36.05 -0.00307
36.1 -0.00227
36.15 -0.00096
36.2 0.00063
36.25 0.00212
36.3 0.00379
36.35 0.00479
36.4 0.00583
36.45 0.0067
36.5 0.00636
36.55 0.00641
36.6 0.00649
36.65 0.0059
36.7 0.00473
36.75 0.00412
36.8 0.00276
36.85 0.00132
36.9 0.00017
36.95 -0.001
37 -0.0024
37.05 -0.00314
37.1 -0.00271
37.15 -0.00264
37.2 -0.00251
37.25 -0.00168
37.3 -0.00028
37.35 0.00063
37.4 0.00038
37.45 -0.00034
37.5 -0.0003
37.55 -0.00053
37.6 -0.00086
37.65 -0.00071
37.7 -0.00007
37.75 0.00053
37.8 0.00125
37.85 0.00215
37.9 0.00331
37.95 0.00327
38 0.00264
38.05 0.00175
38.1 0.00018
38.15 -0.00007
38.2 0.00054
38.25 0.00051
38.3 -0.00041
38.35 -0.00175
38.4 -0.00272
38.45 -0.00343
38.5 -0.00387
38.55 -0.0043
38.6 -0.00407
38.65 -0.00399
38.7 -0.00316
38.75 -0.00191
38.8 -0.00143
38.85 -0.00146
38.9 -0.00145
38.95 -0.00159
39 -0.00169
39.05 -0.0023
39.1 -0.00165
39.15 -0.00168
39.2 -0.00229
39.25 -0.00328
39.3 -0.00443
39.35 -0.00515
39.4 -0.00479
39.45 -0.00482
39.5 -0.00441
39.55 -0.00401
39.6 -0.0038
39.65 -0.0028
39.7 -0.0021
39.75 -0.00098
39.8 -0.00062
39.85 -0.00086
39.9 -0.00073
39.95 -0.0006
40 -0.00006
40.05 -0.00016
40.1 0.00065
40.15 0.00081
40.2 0.00101
40.25 0.00137
40.3 0.00077
40.35 0.00028
40.4 -0.0001
40.45 0.00057
40.5 0.00053
40.55 0.00115
40.6 0.00132
40.65 0.00081
40.7 0.001
40.75 0.00037
40.8 -0.00018
40.85 -0.00029
40.9 0.00027
40.95 0.00043
41 -0.00023
41.05 -0.00052
41.1 -0.00039
41.15 0.00022
41.2 0.00065
41.25 0.0004
41.3 0.0007
41.35 0.00082
41.4 0.00056
41.45 -0.00032
41.5 -0.00097
41.55 -0.00098
41.6 -0.00055
41.65 0.0001
41.7 0.00022
41.75 0.0005
41.8 0.00076
41.85 0.00048
41.9 -0.00019
41.95 -0.00125
42 -0.00198
42.05 -0.00145
42.1 -0.00064
42.15 -0.00037
42.2 -0.00033
42.25 0.00045
42.3 0.00154
42.35 0.00229
42.4 0.00293
42.45 0.00284
42.5 0.00273
42.55 0.00331
42.6 0.00372
42.65 0.00425
42.7 0.00451
42.75 0.00436
42.8 0.00479
42.85 0.0042
42.9 0.00347
42.95 0.00334
43 0.00293
43.05 0.0027
43.1 0.00151
43.15 0.00106
43.2 0.00005
43.25 -0.00048
43.3 -0.00154
43.35 -0.0018
43.4 -0.00234
43.45 -0.00194
43.5 -0.00127
43.55 -0.00099
43.6 0.00012
43.65 0.0017
43.7 0.00328
43.75 0.00398
43.8 0.00335
43.85 0.00225
43.9 0.00104
43.95 -0.00007
44 -0.00104
44.05 -0.00179
44.1 -0.00287
44.15 -0.00307
44.2 -0.00241
44.25 -0.00195
44.3 -0.00186
44.35 -0.00189
44.4 -0.00168
44.45 -0.00183
44.5 -0.00202
44.55 -0.00195
44.6 -0.00257
44.65 -0.00304
44.7 -0.00374
44.75 -0.00446
44.8 -0.0042
44.85 -0.00372
44.9 -0.00248
44.95 -0.00096
45 0.00047
45.05 0.002
45.1 0.00282
45.15 0.0036
45.2 0.00321
45.25 0.0035
45.3 0.00263
45.35 0.00204
45.4 0.00218
45.45 0.00265
45.5 0.00325
45.55 0.00382
45.6 0.00324
45.65 0.0023
45.7 0.00131
45.75 0.00031
45.8 -0.00085
45.85 -0.00087
45.9 -0.00163
45.95 -0.002
46 -0.00176
46.05 -0.00075
46.1 -0.00041
46.15 -0.00068
46.2 -0.00128
46.25 -0.00072
46.3 -0.00032
46.35 0.00009
46.4 0.00028
46.45 -0.00004
46.5 0.00022
46.55 0.00081
46.6 0.0009
46.65 0.00104
46.7 0.00104
46.75 0.0004
46.8 -0.00059
46.85 -0.00128
46.9 -0.0018
46.95 -0.00252
47 -0.00321
47.05 -0.00283
47.1 -0.00177
47.15 -0.00093
47.2 -0.00054
47.25 -0.00028
47.3 -0.00066
47.35 -0.0001
47.4 -0.00006
47.45 -0.00026
47.5 0.00008
47.55 0.0004
47.6 0.00142
47.65 0.0024
47.7 0.00282
47.75 0.00298
47.8 0.00265
47.85 0.00286
47.9 0.00312
47.95 0.00289
48 0.00191
48.05 0.0008
48.1 -0.00026
48.15 -0.00036
48.2 -0.00016
48.25 -0.00077
48.3 -0.00136
48.35 -0.00181
48.4 -0.00158
48.45 -0.0015
48.5 -0.0017
48.55 -0.00176
48.6 -0.00179
48.65 -0.00127
48.7 -0.00153
48.75 -0.00146
48.8 -0.00109
48.85 -0.00067
48.9 -0.00118
48.95 -0.0012
49 -0.00061
49.05 -0.0003
49.1 0.00001
49.15 0.001
49.2 0.00143
49.25 0.00113
49.3 0.00107
49.35 0.00012
49.4 -0.00087
49.45 -0.00115
49.5 -0.00094
49.55 -0.00102
49.6 -0.00143
49.65 -0.00121
49.7 -0.00096
49.75 0.00006
49.8 0.00015
49.85 0.00045
49.9 0
49.95 0.00057
50 0.00135
50.05 0.00187
50.1 0.00272
50.15 0.00355
50.2 0.00378
50.25 0.00447
50.3 0.00482
50.35 0.00437
50.4 0.00396
50.45 0.00344
50.5 0.00243
50.55 0.00229
50.6 0.00177
50.65 0.0006
50.7 0.00051
50.75 -0.00009
50.8 -0.00113
50.85 -0.0011
50.9 -0.00126
50.95 -0.00062
51 -0.00008
51.05 0.00073
51.1 0.00116
51.15 0.00197
51.2 0.00227
51.25 0.00248
51.3 0.00316
51.35 0.00277
51.4 0.00185
51.45 0.00123
51.5 -0.00003
51.55 -0.00095
51.6 -0.00235
51.65 -0.00327
51.7 -0.0039
51.75 -0.00389
51.8 -0.00351
51.85 -0.00385
51.9 -0.00362
51.95 -0.00364
52 -0.00344
52.05 -0.0023
52.1 -0.00059
52.15 0.00093
52.2 0.0025
52.25 0.00278
52.3 0.00201
52.35 0.00209
52.4 0.00152
52.45 0.00135
52.5 0.00059
52.55 0.00055
52.6 0.00104
52.65 0.00059
52.7 0.00084
52.75 0.00149
52.8 0.00217
52.85 0.00219
52.9 0.00248
52.95 0.00257
53 0.0025
53.05 0.00151
53.1 0.0008
53.15 0.00042
53.2 -0.00006
53.25 0.0004
53.3 0.0001
53.35 -0.00083
53.4 -0.00199
53.45 -0.00295
53.5 -0.0031
53.55 -0.00358
53.6 -0.00325
53.65 -0.00208
53.7 -0.00046
53.75 0.00071
53.8 0.00144
53.85 0.00228
53.9 0.00277
53.95 0.00288
54 0.00218
54.05 0.00071
54.1 -0.00051
54.15 -0.00148
54.2 -0.00183
54.25 -0.00146
54.3 -0.00166
54.35 -0.00205
54.4 -0.00144
54.45 -0.00165
54.5 -0.00208
54.55 -0.00155
54.6 -0.00034
54.65 0.00015
54.7 0.00001
54.75 -0.0007
54.8 -0.00031
54.85 -0.00008
54.9 -0.00073
54.95 -0.0019
55 -0.00321
55.05 -0.00455
55.1 -0.00509
55.15 -0.00501
55.2 -0.00477
55.25 -0.00467
55.3 -0.00447
55.35 -0.00427
55.4 -0.00396
55.45 -0.0042
55.5 -0.00443
55.55 -0.00378
55.6 -0.00365
55.65 -0.00349
55.7 -0.00339
55.75 -0.00363
55.8 -0.00312
55.85 -0.00302
55.9 -0.00246
55.95 -0.00218
56 -0.00227
56.05 -0.00251
56.1 -0.00162
56.15 -0.00014
56.2 0.00114
56.25 0.00276
56.3 0.00411
56.35 0.00489
56.4 0.00561
56.45 0.0061
56.5 0.00574
56.55 0.00554
56.6 0.00471
56.65 0.00441
56.7 0.00434
56.75 0.00386
56.8 0.00327
56.85 0.00336
56.9 0.00308
56.95 0.00335
57 0.0027
57.05 0.0016
57.1 -0.00002
57.15 -0.00045
57.2 -0.00065
57.25 -0.00081
57.3 -0.00019
57.35 0.0003
57.4 0.00097
57.45 0.00137
57.5 0.00165
57.55 0.00201
57.6 0.00228
57.65 0.00308
57.7 0.00405
57.75 0.00353
57.8 0.00325
57.85 0.00322
57.9 0.00257
57.95 0.0017
58 0.00116
58.05 -0.00012
58.1 -0.0005
58.15 -0.00112
58.2 -0.00185
58.25 -0.00205
58.3 -0.00129
58.35 -0.00116
58.4 -0.00092
58.45 -0.00074
58.5 -0.00062
58.55 -0.00048
58.6 -0.00045
58.65 -0.00114
58.7 -0.00092
58.75 -0.00039
58.8 -0.00051
58.85 -0.00132
58.9 -0.00188
58.95 -0.00189
59 -0.00225
59.05 -0.00263
59.1 -0.00293
59.15 -0.00355
59.2 -0.0031
59.25 -0.00336
59.3 -0.00307
59.35 -0.00194
59.4 -0.00077
59.45 0.00008
59.5 0.00081
59.55 0.00062
59.6 0.0012
59.65 0.00079
59.7 0.00009
59.75 -0.00093
59.8 -0.00209
59.85 -0.00207
59.9 -0.00133
59.95 -0.00155
60 -0.00144
60.05 -0.00152
60.1 -0.00081
60.15 0.00043
60.2 0.00153
60.25 0.0018
60.3 0.00211
60.35 0.00223
60.4 0.00231
60.45 0.002
60.5 0.00189
60.55 0.00144
60.6 0.00089
60.65 -0.00008
60.7 -0.00126
60.75 -0.00217
60.8 -0.00175
60.85 -0.00114
60.9 -0.00096
60.95 -0.00124
61 -0.00153
61.05 -0.00193
61.1 -0.00241
61.15 -0.00242
61.2 -0.00263
61.25 -0.00233
61.3 -0.00267
61.35 -0.00194
61.4 -0.00064
61.45 -0.00036
61.5 0.0004
61.55 0.00108
61.6 0.00215
61.65 0.00241
61.7 0.00264
61.75 0.00334
61.8 0.0043
61.85 0.00435
61.9 0.00448
61.95 0.00385
62 0.00398
62.05 0.00313
62.1 0.00298
62.15 0.00321
62.2 0.00355
62.25 0.00279
62.3 0.00133
62.35 0.0009
62.4 -0.00023
62.45 -0.00048
62.5 -0.00053
62.55 -0.00104
62.6 -0.00172
62.65 -0.00165
62.7 -0.00202
62.75 -0.00138
62.8 -0.00011
62.85 0.00089
62.9 0.00109
62.95 0.00086
63 0.00128
63.05 0.00218
63.1 0.00178
63.15 0.00188
63.2 0.00113
63.25 0.00107
63.3 0.00054
63.35 0.00012
63.4 -0.00002
63.45 -0.00005
63.5 0.00015
63.55 -0.0005
63.6 -0.00111
63.65 -0.00106
63.7 -0.00066
63.75 -0.00088
63.8 -0.00085
63.85 -0.00044
63.9 0.0004
63.95 0.00109
64 0.00143
64.05 0.00203
64.1 0.00173
64.15 0.00215
64.2 0.00253
64.25 0.00296
64.3 0.00269
64.35 0.00233
64.4 0.00207
64.45 0.00155
64.5 0.00076
64.55 0.00037
64.6 -0.00009
64.65 -0.00059
64.7 -0.00145
64.75 -0.00148
64.8 -0.00208
64.85 -0.00225
64.9 -0.0021
64.95 -0.00182
65 -0.00171
65.05 -0.00205
65.1 -0.00218
65.15 -0.00141
65.2 -0.00109
65.25 -0.00066
65.3 -0.00032
65.35 -0.00062
65.4 -0.0005
65.45 0.00007
65.5 -0.00045
65.55 -0.00135
65.6 -0.00146
65.65 -0.0022
65.7 -0.00311
65.75 -0.00439
65.8 -0.00497
65.85 -0.00518
65.9 -0.00497
65.95 -0.00593
66 -0.00652
66.05 -0.00691
66.1 -0.00844
66.15 -0.01084
66.2 -0.01374
66.25 -0.01576
66.3 -0.01715
66.35 -0.01874
66.4 -0.02124
66.45 -0.0249
66.5 -0.02862
66.55 -0.03342
66.6 -0.03863
66.65 -0.04523
66.7 -0.05254
66.75 -0.0606
66.8 -0.07036
66.85 -0.08195
66.9 -0.09387
66.95 -0.10674
67 -0.12083
67.05 -0.13696
67.1 -0.15449
67.15 -0.17274
67.2 -0.19289
67.25 -0.21491
67.3 -0.23797
67.35 -0.26121
67.4 -0.28544
67.45 -0.31001
67.5 -0.33507
67.55 -0.36034
67.6 -0.38666
67.65 -0.41201
67.7 -0.4366
67.75 -0.46042
67.8 -0.48276
67.85 -0.50243
67.9 -0.52017
67.95 -0.5342
68 -0.54446
68.05 -0.55207
68.1 -0.55642
68.15 -0.55673
68.2 -0.55327
68.25 -0.54551
68.3 -0.53293
68.35 -0.51587
68.4 -0.4944
68.45 -0.4696
68.5 -0.44186
68.55 -0.41048
68.6 -0.37695
68.65 -0.3414
68.7 -0.30448
68.75 -0.26569
68.8 -0.22641
68.85 -0.18581
68.9 -0.14523
68.95 -0.10562
69 -0.06675
69.05 -0.02893
69.1 0.00647
69.15 0.04062
69.2 0.07245
69.25 0.10113
69.3 0.1285
69.35 0.15297
69.4 0.17568
69.45 0.19564
69.5 0.21379
69.55 0.23044
69.6 0.24567
69.65 0.25885
69.7 0.27005
69.75 0.27983
69.8 0.28942
69.85 0.29861
69.9 0.30754
69.95 0.31653
70 0.32532
70.05 0.33423
70.1 0.3426
70.15 0.35108
70.2 0.3581
70.25 0.36547
70.3 0.37299
70.35 0.37978
70.4 0.38535
70.45 0.39112
70.5 0.39657
70.55 0.40166
70.6 0.40527
70.65 0.40798
70.7 0.41101
70.75 0.41339
70.8 0.41523
70.85 0.4157
70.9 0.41579
70.95 0.41503
71 0.41429
71.05 0.41214
71.1 0.40902
71.15 0.40426
71.2 0.39844
71.25 0.39264
71.3 0.38698
71.35 0.38047
71.4 0.37299
71.45 0.36475
71.5 0.35631
71.55 0.34858
71.6 0.34136
71.65 0.33371
71.7 0.3251
71.75 0.31643
71.8 0.30765
71.85 0.29833
71.9 0.28831
71.95 0.27869
72 0.26883
72.05 0.25832
72.1 0.24786
72.15 0.23685
72.2 0.22719
72.25 0.21766
72.3 0.20863
72.35 0.19878
72.4 0.1895
72.45 0.18105
72.5 0.17286
72.55 0.16427
72.6 0.15541
72.65 0.14695
72.7 0.13831
72.75 0.1293
72.8 0.12017
72.85 0.11128
72.9 0.10338
72.95 0.09575
73 0.08889
73.05 0.08168
73.1 0.07479
73.15 0.06819
73.2 0.06106
73.25 0.05412
73.3 0.04677
73.35 0.03991
73.4 0.03388
73.45 0.02744
73.5 0.02192
73.55 0.01642
73.6 0.01066
73.65 0.00447
73.7 -0.001
73.75 -0.00575
73.8 -0.00956
73.85 -0.01349
73.9 -0.01703
73.95 -0.02015
74 -0.02389
74.05 -0.02774
74.1 -0.03113
74.15 -0.03391
74.2 -0.03595
74.25 -0.03754
74.3 -0.03893
74.35 -0.04183
74.4 -0.04435
74.45 -0.04666
74.5 -0.04969
74.55 -0.05288
74.6 -0.0555
74.65 -0.05774
74.7 -0.05992
74.75 -0.0614
74.8 -0.06238
74.85 -0.06353
74.9 -0.06455
74.95 -0.06476
75 -0.06466
75.05 -0.06571
75.1 -0.06597
75.15 -0.06614
75.2 -0.06692
75.25 -0.06838
75.3 -0.06993
75.35 -0.07081
75.4 -0.07175
75.45 -0.07189
75.5 -0.07155
75.55 -0.07116
75.6 -0.07094
75.65 -0.07029
75.7 -0.06941
75.75 -0.06864
75.8 -0.06781
75.85 -0.06781
75.9 -0.06773
75.95 -0.06807
76 -0.06868
76.05 -0.06816
76.1 -0.0671
76.15 -0.06618
76.2 -0.06521
76.25 -0.06378
76.3 -0.06322
76.35 -0.06308
76.4 -0.06294
76.45 -0.06288
76.5 -0.0632
76.55 -0.06254
76.6 -0.06251
76.65 -0.0616
76.7 -0.06085
76.75 -0.05963
76.8 -0.05758
76.85 -0.05567
76.9 -0.05498
76.95 -0.05362
77 -0.05182
77.05 -0.05005
77.1 -0.04849
77.15 -0.04804
77.2 -0.04701
77.25 -0.04559
77.3 -0.04431
77.35 -0.04379
77.4 -0.04403
77.45 -0.04492
77.5 -0.04545
77.55 -0.04559
77.6 -0.04552
77.65 -0.04478
77.7 -0.04444
77.75 -0.04316
77.8 -0.04164
77.85 -0.04136
77.9 -0.04093
77.95 -0.04016
78 -0.0393
78.05 -0.0378
78.1 -0.03661
78.15 -0.03578
78.2 -0.03479
78.25 -0.03387
78.3 -0.03285
78.35 -0.03251
78.4 -0.03228
78.45 -0.03306
78.5 -0.03436
78.55 -0.03477
78.6 -0.03493
78.65 -0.03434
78.7 -0.03303
78.75 -0.03119
78.8 -0.03073
78.85 -0.03091
78.9 -0.0309
78.95 -0.0308
79 -0.0303
79.05 -0.02965
79.1 -0.02993
79.15 -0.02998
79.2 -0.02967
79.25 -0.02915
79.3 -0.02773
79.35 -0.02614
79.4 -0.0255
79.45 -0.02421
79.5 -0.02419
79.55 -0.02451
79.6 -0.02529
79.65 -0.02527
79.7 -0.02583
79.75 -0.02603
79.8 -0.02629
79.85 -0.02575
79.9 -0.02581
79.95 -0.02534
80 -0.02426
80.05 -0.02268
80.1 -0.02082
80.15 -0.01972
80.2 -0.01946
80.25 -0.01966
80.3 -0.0201
80.35 -0.01976
80.4 -0.01857
80.45 -0.01768
80.5 -0.0168
80.55 -0.01645
80.6 -0.01651
80.65 -0.01648
80.7 -0.0163
80.75 -0.01585
80.8 -0.01568
80.85 -0.0151
80.9 -0.01484
80.95 -0.01443
81 -0.01454
81.05 -0.01521
81.1 -0.01596
81.15 -0.01638
81.2 -0.01682
81.25 -0.01767
81.3 -0.01744
81.35 -0.01655
81.4 -0.01617
81.45 -0.01604
81.5 -0.01652
81.55 -0.01658
81.6 -0.01663
81.65 -0.0171
81.7 -0.01657
81.75 -0.01659
81.8 -0.01588
81.85 -0.01544
81.9 -0.01439
81.95 -0.01376
82 -0.01347
82.05 -0.01372
82.1 -0.01357
82.15 -0.01352
82.2 -0.01262
82.25 -0.01236
82.3 -0.0113
82.35 -0.00998
82.4 -0.00898
82.45 -0.00787
82.5 -0.0066
82.55 -0.00524
82.6 -0.00425
82.65 -0.00474
82.7 -0.00614
82.75 -0.00765
82.8 -0.00939
82.85 -0.01087
82.9 -0.01074
82.95 -0.01065
83 -0.01085
83.05 -0.01054
83.1 -0.01094
83.15 -0.01134
83.2 -0.01189
83.25 -0.01165
83.3 -0.01052
83.35 -0.00937
83.4 -0.00837
83.45 -0.00761
83.5 -0.00696
83.55 -0.00706
83.6 -0.00624
83.65 -0.0056
83.7 -0.00514
83.75 -0.00547
83.8 -0.00593
83.85 -0.006
83.9 -0.00532
83.95 -0.00537
84 -0.00526
84.05 -0.00539
84.1 -0.00529
84.15 -0.00515
84.2 -0.00509
84.25 -0.00564
84.3 -0.00573
84.35 -0.00641
84.4 -0.00625
84.45 -0.00605
84.5 -0.0055
84.55 -0.00587
84.6 -0.0054
84.65 -0.00464
84.7 -0.00363
84.75 -0.00252
84.8 -0.00163
84.85 -0.00176
84.9 -0.00141
84.95 -0.00138
85 -0.00144
85.05 -0.00196
85.1 -0.00266
85.15 -0.00381
85.2 -0.00514
85.25 -0.00611
85.3 -0.00713
85.35 -0.00812
85.4 -0.00781
85.45 -0.0075
85.5 -0.00778
85.55 -0.00779
85.6 -0.00823
85.65 -0.00795
85.7 -0.0072
85.75 -0.00637
85.8 -0.00621
85.85 -0.00552
85.9 -0.00502
85.95 -0.00392
86 -0.0035
86.05 -0.00264
86.1 -0.00202
86.15 -0.00246
86.2 -0.00316
86.25 -0.00331
86.3 -0.00403
86.35 -0.00496
86.4 -0.00594
86.45 -0.00656
86.5 -0.00592
86.55 -0.00566
86.6 -0.00501
86.65 -0.00465
86.7 -0.00397
86.75 -0.00257
86.8 -0.0008
86.85 0.00112
86.9 0.00147
86.95 0.0017
87 0.00104
87.05 0.0007
87.1 0.00109
87.15 0.0007
87.2 0.00067
87.25 -0.00037
87.3 -0.00069
87.35 -0.00117
87.4 -0.00176
87.45 -0.0025
87.5 -0.00241
87.55 -0.00152
87.6 -0.00083
87.65 0.00007
87.7 -0.00004
87.75 -0.00092
87.8 -0.00182
87.85 -0.00272
87.9 -0.00374
87.95 -0.00356
88 -0.00325
88.05 -0.00332
88.1 -0.00347
88.15 -0.0029
88.2 -0.00255
88.25 -0.00299
88.3 -0.00272
88.35 -0.00166
88.4 -0.00113
88.45 -0.00061
88.5 -0.00014
88.55 -0.00076
88.6 -0.0009
88.65 -0.00133
88.7 -0.00231
88.75 -0.0023
88.8 -0.00159
88.85 -0.00023
88.9 0.00098
88.95 0.00114
89 0.00162
89.05 0.00113
89.1 0.00027
89.15 -0.0012
89.2 -0.00233
89.25 -0.00369
89.3 -0.00378
89.35 -0.00347
89.4 -0.00335
89.45 -0.00386
89.5 -0.00328
89.55 -0.00344
89.6 -0.00369
89.65 -0.00274
89.7 -0.00195
89.75 -0.00106
89.8 -0.00059
89.85 -0.00062
89.9 -0.00135
89.95 -0.00195
90 -0.00169
90.05 -0.00101
90.1 -0.00101
90.15 -0.00154
90.2 -0.00133
90.25 -0.00105
90.3 -0.0001
90.35 0.00004
90.4 0.00068
90.45 0.00098
90.5 0.00156
90.55 0.00201
90.6 0.00135
90.65 0.00047
90.7 0.00051
90.75 0.00057
90.8 -0.00024
90.85 -0.00088
90.9 -0.00065
90.95 -0.00006
91 0.00067
91.05 0.00035
91.1 0.00037
91.15 0.00007
91.2 -0.00089
91.25 -0.00115
91.3 -0.00042
91.35 -0.00021
91.4 -0.00064
91.45 -0.00052
91.5 0.0003
91.55 0.00115
91.6 0.00138
91.65 0.00141
91.7 0.00123
91.75 0.00137
91.8 0.00198
91.85 0.00187
91.9 0.00078
91.95 0.00062
92 -0.00044
92.05 -0.00091
92.1 -0.00193
92.15 -0.00158
92.2 -0.00059
92.25 -0.00068
92.3 -0.00045
92.35 0.00044
92.4 0.00155
92.45 0.00271
92.5 0.00235
92.55 0.0021
92.6 0.00133
92.65 0.00079
92.7 -0.00018
92.75 -0.00146
92.8 -0.0018
92.85 -0.00139
92.9 -0.00097
92.95 -0.00086
93 -0.00098
93.05 -0.00186
93.1 -0.00213
93.15 -0.00245
93.2 -0.00319
93.25 -0.00271
93.3 -0.00238
93.35 -0.00238
93.4 -0.00296
93.45 -0.00244
93.5 -0.00273
93.55 -0.00204
93.6 -0.00226
93.65 -0.00263
93.7 -0.00347
93.75 -0.00416
93.8 -0.00361
93.85 -0.00218
93.9 -0.00092
93.95 0.00017
94 0.00064
94.05 0.00045
94.1 0.00056
94.15 0.00103
94.2 0.00114
94.25 0.00098
94.3 0.00147
94.35 0.00117
94.4 0.00089
94.45 0.0004
94.5 -0.00033
94.55 -0.00071
94.6 -0.00024
94.65 0.00004
94.7 -0.00054
94.75 -0.00134
94.8 -0.00165
94.85 -0.00204
94.9 -0.00216
94.95 -0.00143
95 -0.00031
95.05 0.00009
95.1 0.00105
95.15 0.0018
95.2 0.00275
95.25 0.0039
95.3 0.00369
95.35 0.00337
95.4 0.00216
95.45 0.00136
95.5 0.00124
95.55 0.00148
95.6 0.00089
95.65 0.00073
95.7 -0.00014
95.75 -0.00092
95.8 -0.00065
95.85 0.00024
95.9 0.00143
95.95 0.00219
96 0.0026
96.05 0.00248
96.1 0.00271
96.15 0.00206
96.2 0.00111
96.25 0.00036
96.3 0.00005
96.35 -0.00059
96.4 -0.00103
96.45 -0.00147
96.5 -0.00136
96.55 -0.00075
96.6 -0.00043
96.65 -0.00002
96.7 0.00024
96.75 -0.00048
96.8 -0.00031
96.85 0.00062
96.9 0.00183
96.95 0.00254
97 0.00237
97.05 0.00143
97.1 0.00114
97.15 0.00131
97.2 0.00168
97.25 0.00238
97.3 0.00283
97.35 0.0034
97.4 0.00341
97.45 0.00241
97.5 0.00107
97.55 0.00005
97.6 -0.00007
97.65 0.00043
97.7 0.00151
97.75 0.00153
97.8 0.00144
97.85 0.00136
97.9 0.00182
97.95 0.00198
98 0.00142
98.05 0.00014
98.1 -0.00161
98.15 -0.00249
98.2 -0.00286
98.25 -0.00375
98.3 -0.00417
98.35 -0.00463
98.4 -0.00516
98.45 -0.00455
98.5 -0.00303
98.55 -0.00166
98.6 -0.0015
98.65 -0.00072
98.7 -0.00101
98.75 -0.00098
98.8 -0.00041
98.85 0.00068
98.9 0.00112
98.95 0.00088
99 0.00011
99.05 0.00036
99.1 0.00016
99.15 0.0004
99.2 0.00113
99.25 0.00133
99.3 0.00163
99.35 0.0023
99.4 0.00295
99.45 0.00321
99.5 0.00231
99.55 0.00067
99.6 -0.0001
99.65 -0.00139
99.7 -0.0029
99.75 -0.00367
99.8 -0.00367
99.85 -0.00374
99.9 -0.00431
99.95 -0.00424
