0 0
0.05 0.00049
0.1 0.00115
0.15 0.00211
0.2 0.00283
0.25 0.00379
0.3 0.00476
0.35 0.00517
0.4 0.00509
0.45 0.00493
0.5 0.00445
0.55 0.00377
0.6 0.00358
0.65 0.00351
0.7 0.00382
0.75 0.00444
0.8 0.00496
0.85 0.00512
0.9 0.00531
0.95 0.00538
1 0.00514
1.05 0.00477
1.1 0.00451
1.15 0.00402
1.2 0.00395
1.25 0.0035
1.3 0.00354
1.35 0.00344
1.4 0.00331
1.45 0.00323
1.5 0.00345
1.55 0.00323
1.6 0.00315
1.65 0.00287
1.7 0.0031
1.75 0.00333
1.8 0.00346
1.85 0.00354
1.9 0.00358
1.95 0.00395
2 0.0037
2.05 0.00379
2.1 0.00415
2.15 0.00392
2.2 0.00379
2.25 0.00352
2.3 0.00322
2.35 0.00336
2.4 0.00378
2.45 0.00426
2.5 0.00398
2.55 0.004
2.6 0.00416
2.65 0.00402
2.7 0.00351
2.75 0.00327
2.8 0.00336
2.85 0.00357
2.9 0.00383
2.95 0.00374
3 0.00332
3.05 0.0029
3.1 0.00231
3.15 0.00211
3.2 0.00228
3.25 0.00261
3.3 0.0025
3.35 0.00223
3.4 0.00221
3.45 0.00249
3.5 0.00285
3.55 0.00295
3.6 0.00309
3.65 0.00286
3.7 0.00262
3.75 0.00213
3.8 0.00198
3.85 0.0014
3.9 0.00087
3.95 0.00095
4 0.0014
4.05 0.00207
4.1 0.00227
4.15 0.00214
4.2 0.00157
4.25 0.0014
4.3 0.00131
4.35 0.00093
4.4 0.00031
4.45 -0.00032
4.5 -0.00049
4.55 -0.00045
4.6 -0.00048
4.65 -0.00061
4.7 -0.00063
4.75 -0.00046
4.8 -0.00045
4.85 -0.00053
4.9 -0.0001
4.95 0.00003
5 -0.00011
5.05 0.00014
5.1 -0.00006
5.15 -0.00018
5.2 0.00004
5.25 0.00023
5.3 0.00036
5.35 0.00035
5.4 0.00026
5.45 0.00031
5.5 0.00005
5.55 -0.0004
5.6 -0.00089
5.65 -0.00099
5.7 -0.00093
5.75 -0.00106
5.8 -0.00065
5.85 0.00015
5.9 0.00083
5.95 0.00145
6 0.00171
6.05 0.00147
6.1 0.00144
6.15 0.00173
6.2 0.00168
6.25 0.0015
6.3 0.00151
6.35 0.00127
6.4 0.00131
6.45 0.0012
6.5 0.0015
6.55 0.00126
6.6 0.00093
6.65 0.00066
6.7 0.0001
6.75 -0.00047
6.8 -0.00076
6.85 -0.00104
6.9 -0.00084
6.95 -0.00063
7 -0.00041
7.05 -0.00019
7.1 0.00025
7.15 0.00082
7.2 0.00127
7.25 0.0011
7.3 0.00088
7.35 0.00076
7.4 0.00074
7.45 0.0011
7.5 0.00145
7.55 0.00179
7.6 0.00205
7.65 0.00224
7.7 0.00251
7.75 0.00236
7.8 0.00248
7.85 0.00227
7.9 0.00212
7.95 0.00176
8 0.00129
8.05 0.00069
8.1 0.00019
8.15 -0.00007
8.2 -0.0003
8.25 -0.0008
8.3 -0.0008
8.35 -0.00046
8.4 -0.00033
8.45 0.00014
8.5 0.00078
8.55 0.00079
8.6 0.00113
8.65 0.00157
8.7 0.00134
8.75 0.00148
8.8 0.00109
8.85 0.00097
8.9 0.00119
8.95 0.00143
9 0.00175
9.05 0.00144
9.1 0.00095
9.15 0.00075
9.2 0.00075
9.25 0.00033
9.3 0.00011
9.35 -0.00037
9.4 -0.00094
9.45 -0.00135
9.5 -0.00141
9.55 -0.00128
9.6 -0.00087
9.65 -0.00086
9.7 -0.00091
9.75 -0.00096
9.8 -0.00057
9.85 0.00001
9.9 0.00033
9.95 0.00051
10 0.00073
10.05 0.00104
10.1 0.00084
10.15 0.00083
10.2 0.00056
10.25 0.00002
10.3 -0.00041
10.35 -0.00032
10.4 -0.00047
10.45 -0.00081
10.5 -0.00121
10.55 -0.00156
10.6 -0.00137
10.65 -0.00074
10.7 -0.00045
10.75 -0.00063
10.8 -0.0011
10.85 -0.00117
10.9 -0.00092
10.95 -0.00084
11 -0.00053
11.05 -0.0001
11.1 0.00032
11.15 0.00068
11.2 0.00054
11.25 0.00021
11.3 -0.00003
11.35 -0.00011
11.4 -0.00009
11.45 0.00036
11.5 0.00055
11.55 0.00024
11.6 -0.00027
11.65 -0.00023
11.7 -0.0005
11.75 -0.00053
11.8 -0.00034
11.85 -0.00057
11.9 -0.00035
11.95 0.00011
12 0.00023
12.05 0.0005
12.1 0.00085
12.15 0.00091
12.2 0.00054
12.25 -0.0001
12.3 -0.0007
12.35 -0.00113
12.4 -0.00111
12.45 -0.00102
12.5 -0.00044
12.55 -0.00038
12.6 -0.00064
12.65 -0.00057
12.7 -0.0002
12.75 0.0001
12.8 0.00046
12.85 0.00065
12.9 0.00077
12.95 0.00072
13 0.00078
13.05 0.00075
13.1 0.00036
13.15 0.00047
13.2 0.00029
13.25 -0.00002
13.3 -0.00058
13.35 -0.0007
13.4 -0.00037
13.45 0.00029
13.5 0.00079
13.55 0.00122
13.6 0.00114
13.65 0.00095
13.7 0.00098
13.75 0.00076
13.8 0.00093
13.85 0.00132
13.9 0.00108
13.95 0.00045
14 0.00033
14.05 -0.00017
14.1 -0.0007
14.15 -0.00106
14.2 -0.00116
14.25 -0.00139
14.3 -0.0014
14.35 -0.00122
14.4 -0.00141
14.45 -0.00157
14.5 -0.00174
14.55 -0.00191
14.6 -0.00216
14.65 -0.00237
14.7 -0.00239
14.75 -0.00237
14.8 -0.00242
14.85 -0.00256
14.9 -0.00243
14.95 -0.00242
15 -0.00208
15.05 -0.00173
15.1 -0.00163
15.15 -0.00099
15.2 -0.00068
15.25 -0.00053
15.3 -0.00038
15.35 0.00011
15.4 0.00081
15.45 0.00088
15.5 0.00118
15.55 0.00091
15.6 0.00099
15.65 0.00068
15.7 0.00054
15.75 0.00069
15.8 0.00079
15.85 0.00111
15.9 0.00098
15.95 0.00053
16 0.00059
16.05 0.00026
16.1 -0.00013
16.15 -0.00011
16.2 0.00001
16.25 0.00003
16.3 0.00034
16.35 0.00044
16.4 0.00073
16.45 0.00079
16.5 0.00116
16.55 0.00132
16.6 0.00143
16.65 0.00143
16.7 0.00136
16.75 0.00143
16.8 0.00098
16.85 0.00063
16.9 0.00062
16.95 0.00039
17 0.00032
17.05 0.00001
17.1 0.0002
17.15 0.00038
17.2 0.0008
17.25 0.00072
17.3 0.00099
17.35 0.00128
17.4 0.00108
17.45 0.00083
17.5 0.00032
17.55 -0.00019
17.6 -0.00071
17.65 -0.00084
17.7 -0.00077
17.75 -0.00064
17.8 -0.00025
17.85 -0.00007
17.9 0.0002
17.95 -0.00002
18 -0.0005
18.05 -0.00057
18.1 -0.00062
18.15 -0.00027
18.2 0.0003
18.25 0.0005
18.3 0.0002
18.35 -0.00003
18.4 -0.00015
18.45 -0.00049
18.5 -0.00066
18.55 -0.00093
18.6 -0.00086
18.65 -0.00097
18.7 -0.00101
18.75 -0.00061
18.8 -0.00046
18.85 -0.00036
18.9 0.00007
18.95 0.0006
19 0.00067
19.05 0.0007
19.1 0.00109
19.15 0.00094
19.2 0.00072
19.25 0.00012
19.3 -0.00056
19.35 -0.00093
19.4 -0.00115
19.45 -0.00127
19.5 -0.00107
19.55 -0.00049
19.6 0.00005
19.65 0.00033
19.7 0.00053
19.75 0.00074
19.8 0.00059
19.85 0.00073
19.9 0.001
19.95 0.00094
20 0.00079
20.05 0.00027
20.1 -0.00036
20.15 -0.00087
20.2 -0.00142
20.25 -0.00121
20.3 -0.00092
20.35 -0.00092
20.4 -0.00087
20.45 -0.00111
20.5 -0.00114
20.55 -0.00102
20.6 -0.00113
20.65 -0.00133
20.7 -0.00111
20.75 -0.00066
20.8 -0.00012
20.85 0.00008
20.9 0.00033
20.95 0.00026
21 0.00039
21.05 0.00077
21.1 0.00091
21.15 0.00055
21.2 0.0003
21.25 0.00035
21.3 0.0002
21.35 0.00042
21.4 0.0008
21.45 0.001
21.5 0.00145
21.55 0.00144
21.6 0.00174
21.65 0.0015
21.7 0.00146
21.75 0.00138
21.8 0.00155
21.85 0.00115
21.9 0.00111
21.95 0.00125
22 0.00105
22.05 0.00105
22.1 0.00126
22.15 0.00105
22.2 0.00076
22.25 0.00031
22.3 0.00023
22.35 -0.00023
22.4 -0.00081
22.45 -0.00143
22.5 -0.00164
22.55 -0.0013
22.6 -0.00063
22.65 -0.00001
22.7 0.00063
22.75 0.00123
22.8 0.00125
22.85 0.00127
22.9 0.0015
22.95 0.00182
23 0.00169
23.05 0.00113
23.1 0.00026
23.15 -0.00041
23.2 -0.00076
23.25 -0.00105
23.3 -0.00116
23.35 -0.00139
23.4 -0.00136
23.45 -0.00113
23.5 -0.0013
23.55 -0.00093
23.6 -0.00104
23.65 -0.00142
23.7 -0.00164
23.75 -0.00199
23.8 -0.00232
23.85 -0.00225
23.9 -0.00198
23.95 -0.00161
24 -0.00143
24.05 -0.00146
24.1 -0.00123
24.15 -0.00063
24.2 -0.00011
24.25 0.00063
24.3 0.00122
24.35 0.00109
24.4 0.0006
24.45 0.00019
24.5 0.00026
24.55 0.00063
24.6 0.00042
24.65 0.00029
24.7 0.00001
24.75 -0.00053
24.8 -0.00124
24.85 -0.00124
24.9 -0.00114
24.95 -0.00063
25 -0.00023
25.05 0.00048
25.1 0.00078
25.15 0.00065
25.2 0.00014
25.25 0.00003
25.3 0.00013
25.35 0.00035
25.4 0.00088
25.45 0.00132
25.5 0.00181
25.55 0.00171
25.6 0.0018
25.65 0.00187
25.7 0.00156
25.75 0.00122
25.8 0.00057
25.85 -0.00028
25.9 -0.00121
25.95 -0.00187
26 -0.00175
26.05 -0.00119
26.1 -0.00056
26.15 -0.00036
26.2 -0.00027
26.25 -0.00052
26.3 -0.00046
26.35 -0.00017
26.4 0.00042
26.45 0.00075
26.5 0.00055
26.55 0
26.6 0.00007
26.65 0.00053
26.7 0.00074
26.75 0.00086
26.8 0.0006
26.85 0.00062
26.9 0.00064
26.95 0.00063
27 0.00022
27.05 0.00003
27.1 -0.00017
27.15 0.0001
27.2 0.00052
27.25 0.001
27.3 0.00117
27.35 0.00141
27.4 0.00171
27.45 0.00172
27.5 0.00193
27.55 0.00208
27.6 0.00218
27.65 0.00219
27.7 0.00167
27.75 0.00107
27.8 0.00077
27.85 0.00017
27.9 0.00011
27.95 -0.00038
28 -0.00067
28.05 -0.00119
28.1 -0.00143
28.15 -0.00169
28.2 -0.00139
28.25 -0.00086
28.3 -0.00008
28.35 0.00071
28.4 0.00078
28.45 0.00108
28.5 0.00096
28.55 0.00049
28.6 0.00018
28.65 -0.00045
28.7 -0.00115
28.75 -0.00168
28.8 -0.00183
28.85 -0.00173
28.9 -0.00121
28.95 -0.00043
29 -0.00023
29.05 -0.00007
29.1 -0.00007
29.15 0.00006
29.2 0.00029
29.25 0.00064
29.3 0.00057
29.35 0.00067
29.4 0.00034
29.45 0.00005
29.5 -0.00003
29.55 0
29.6 0.0004
29.65 0.00083
29.7 0.00083
29.75 0.00062
29.8 0.0004
29.85 0.00058
29.9 0.00086
29.95 0.0006
30 0.0007
30.05 0.00033
30.1 -0.00031
30.15 -0.00035
30.2 -0.00069
30.25 -0.00081
30.3 -0.00084
30.35 -0.00047
30.4 -0.00025
30.45 -0.00003
30.5 -0.00008
30.55 -0.00003
30.6 0.00025
30.65 0.00074
30.7 0.00123
30.75 0.00173
30.8 0.00201
30.85 0.00197
30.9 0.0019
30.95 0.00147
31 0.00123
31.05 0.00109
31.1 0.0005
31.15 0.00043
31.2 0.00004
31.25 0.00006
31.3 -0.00008
31.35 -0.00034
31.4 -0.00071
31.45 -0.00071
31.5 -0.00083
31.55 -0.00115
31.6 -0.00145
31.65 -0.00126
31.7 -0.00066
31.75 0.00005
31.8 0.00069
31.85 0.00099
31.9 0.00106
31.95 0.00121
32 0.00124
32.05 0.00134
32.1 0.00157
32.15 0.00181
32.2 0.002
32.25 0.00202
32.3 0.00146
32.35 0.00134
32.4 0.0012
32.45 0.00078
32.5 0.00067
32.55 0.00054
32.6 0.00015
32.65 -0.00045
32.7 -0.00064
32.75 -0.00053
32.8 -0.0003
32.85 -0.00032
32.9 -0.00054
32.95 -0.0004
33 -0.00037
33.05 -0.00017
33.1 -0.00029
33.15 0.00002
33.2 0.00026
33.25 -0.00006
33.3 -0.00006
33.35 0.00029
33.4 0.00005
33.45 -0.00021
33.5 -0.00079
33.55 -0.00105
33.6 -0.00099
33.65 -0.00115
33.7 -0.00132
33.75 -0.00121
33.8 -0.00073
33.85 -0.00072
33.9 -0.00044
33.95 0.00012
34 0.0005
34.05 0.0005
34.1 0.00057
34.15 0.00015
34.2 -0.00004
34.25 -0.0001
34.3 0.00001
34.35 -0.00033
34.4 -0.00045
34.45 -0.00064
34.5 -0.00064
34.55 -0.00052
34.6 -0.00047
34.65 -0.00052
34.7 -0.00074
34.75 -0.00075
34.8 -0.00095
34.85 -0.00083
34.9 -0.00087
34.95 -0.00102
35 -0.00123
35.05 -0.00118
35.1 -0.00086
35.15 -0.00077
35.2 -0.00058
35.25 -0.00022
35.3 0.00031
35.35 0.00085
35.4 0.00094
35.45 0.00114
35.5 0.00139
35.55 0.00107
35.6 0.00083
35.65 0.00093
35.7 0.00096
35.75 0.00101
35.8 0.00055
35.85 0.0005
35.9 0.00052
35.95 0.00028
36 -0.00009
36.05 -0.00048
36.1 -0.00052
36.15 -0.00057
36.2 -0.00046
36.25 -0.00049
36.3 -0.00071
36.35 -0.00051
36.4 -0.00048
36.45 -0.00043
36.5 -0
36.55 -0.00012
36.6 -0.0004
36.65 -0.00079
36.7 -0.00073
36.75 -0.00046
36.8 -0.00021
36.85 -0.0004
36.9 -0.00054
36.95 -0.00051
37 -0.00031
37.05 -0.00015
37.1 0.00019
37.15 0.00008
37.2 -0.00043
37.25 -0.00075
37.3 -0.00098
37.35 -0.00106
37.4 -0.00136
37.45 -0.00121
37.5 -0.00103
37.55 -0.00055
37.6 -0.00015
37.65 0.00045
37.7 0.00091
37.75 0.00077
37.8 0.00047
37.85 0.00021
37.9 -0.0001
37.95 -0.00012
38 -0.00081
38.05 -0.00126
38.1 -0.00186
38.15 -0.00299
38.2 -0.00437
38.25 -0.00529
38.3 -0.00652
38.35 -0.00738
38.4 -0.00882
38.45 -0.00997
38.5 -0.01142
38.55 -0.01342
38.6 -0.01536
38.65 -0.01753
38.7 -0.02027
38.75 -0.02352
38.8 -0.02766
38.85 -0.03233
38.9 -0.03788
38.95 -0.04341
39 -0.04968
39.05 -0.05649
39.1 -0.06403
39.15 -0.072
39.2 -0.08096
39.25 -0.09038
39.3 -0.10032
39.35 -0.11108
39.4 -0.12217
39.45 -0.13395
39.5 -0.14563
39.55 -0.15747
39.6 -0.16987
39.65 -0.18204
39.7 -0.1945
39.75 -0.20678
39.8 -0.21863
39.85 -0.22954
39.9 -0.23908
39.95 -0.24795
40 -0.25533
40.05 -0.26131
40.1 -0.26575
40.15 -0.26893
40.2 -0.27082
40.25 -0.27064
40.3 -0.26823
40.35 -0.26411
40.4 -0.25829
40.45 -0.25028
40.5 -0.24001
40.55 -0.22782
40.6 -0.21378
40.65 -0.19809
40.7 -0.18157
40.75 -0.16427
40.8 -0.14553
40.85 -0.12592
40.9 -0.10588
40.95 -0.0855
41 -0.0652
41.05 -0.04512
41.1 -0.02527
41.15 -0.00616
41.2 0.01274
41.25 0.03101
41.3 0.04811
41.35 0.06433
41.4 0.07962
41.45 0.09393
41.5 0.10664
41.55 0.11861
41.6 0.12898
41.65 0.13797
41.7 0.14588
41.75 0.15302
41.8 0.15962
41.85 0.1653
41.9 0.17028
41.95 0.17482
42 0.17919
42.05 0.18331
42.1 0.18693
42.15 0.1901
42.2 0.19248
42.25 0.19415
42.3 0.19559
42.35 0.19645
42.4 0.19703
42.45 0.19718
42.5 0.19677
42.55 0.1965
42.6 0.19566
42.65 0.19492
42.7 0.19383
42.75 0.1922
42.8 0.19057
42.85 0.18853
42.9 0.18614
42.95 0.18397
43 0.18217
43.05 0.18031
43.1 0.17804
43.15 0.1751
43.2 0.17166
43.25 0.16796
43.3 0.16436
43.35 0.16051
43.4 0.15702
43.45 0.1536
43.5 0.15058
43.55 0.14782
43.6 0.14477
43.65 0.14126
43.7 0.13777
43.75 0.13395
43.8 0.1307
43.85 0.12781
43.9 0.12483
43.95 0.12194
44 0.11847
44.05 0.11532
44.1 0.11251
44.15 0.10974
44.2 0.10672
44.25 0.10358
44.3 0.10025
44.35 0.09712
44.4 0.0939
44.45 0.09058
44.5 0.08694
44.55 0.08324
44.6 0.07992
44.65 0.07648
44.7 0.07323
44.75 0.07004
44.8 0.06692
44.85 0.06371
44.9 0.06028
44.95 0.05728
45 0.05417
45.05 0.05116
45.1 0.04819
45.15 0.04515
45.2 0.04187
45.25 0.03865
45.3 0.03525
45.35 0.03217
45.4 0.02946
45.45 0.02701
45.5 0.02453
45.55 0.02158
45.6 0.01894
45.65 0.01652
45.7 0.01403
45.75 0.01108
45.8 0.008
45.85 0.00548
45.9 0.00268
45.95 0.00039
46 -0.00186
46.05 -0.00415
46.1 -0.00636
46.15 -0.00878
46.2 -0.01135
46.25 -0.01344
46.3 -0.01491
46.35 -0.01638
46.4 -0.01763
46.45 -0.01917
46.5 -0.02022
46.55 -0.02106
46.6 -0.02225
46.65 -0.02339
46.7 -0.02414
46.75 -0.02497
46.8 -0.02625
46.85 -0.02757
46.9 -0.02854
46.95 -0.02917
47 -0.02961
47.05 -0.03017
47.1 -0.03059
47.15 -0.03082
47.2 -0.03098
47.25 -0.0316
47.3 -0.03179
47.35 -0.03226
47.4 -0.03243
47.45 -0.0328
47.5 -0.03284
47.55 -0.03253
47.6 -0.03224
47.65 -0.03248
47.7 -0.03235
47.75 -0.03218
47.8 -0.03235
47.85 -0.0321
47.9 -0.03206
47.95 -0.03219
48 -0.03192
48.05 -0.03151
48.1 -0.03134
48.15 -0.03141
48.2 -0.03184
48.25 -0.03205
48.3 -0.03205
48.35 -0.03177
48.4 -0.03162
48.45 -0.03123
48.5 -0.03105
48.55 -0.03097
48.6 -0.03111
48.65 -0.03067
48.7 -0.03031
48.75 -0.02951
48.8 -0.02856
48.85 -0.02757
48.9 -0.02695
48.95 -0.0261
49 -0.02574
49.05 -0.02573
49.1 -0.02561
49.15 -0.02581
49.2 -0.02583
49.25 -0.02542
49.3 -0.02536
49.35 -0.02487
49.4 -0.02467
49.45 -0.02429
49.5 -0.02404
49.55 -0.02373
49.6 -0.02327
49.65 -0.02308
49.7 -0.02285
49.75 -0.02219
49.8 -0.02201
49.85 -0.02207
49.9 -0.02195
49.95 -0.02169
50 -0.02103
50.05 -0.02083
50.1 -0.02042
50.15 -0.02027
50.2 -0.02018
50.25 -0.01951
50.3 -0.01865
50.35 -0.01761
50.4 -0.01694
50.45 -0.01681
50.5 -0.01672
50.55 -0.01676
50.6 -0.01663
50.65 -0.01661
50.7 -0.01664
50.75 -0.01692
50.8 -0.01666
50.85 -0.01635
50.9 -0.01621
50.95 -0.01594
51 -0.01549
51.05 -0.01538
51.1 -0.01473
51.15 -0.01413
51.2 -0.01382
51.25 -0.01388
51.3 -0.01369
51.35 -0.01363
51.4 -0.0131
51.45 -0.01246
51.5 -0.01197
51.55 -0.012
51.6 -0.01165
51.65 -0.0116
51.7 -0.01163
51.75 -0.01151
51.8 -0.01157
51.85 -0.01151
51.9 -0.01141
51.95 -0.01087
52 -0.01039
52.05 -0.00985
52.1 -0.0099
52.15 -0.01007
52.2 -0.01047
52.25 -0.01074
52.3 -0.01048
52.35 -0.00986
52.4 -0.00905
52.45 -0.00887
52.5 -0.00912
52.55 -0.00892
52.6 -0.0087
52.65 -0.00872
52.7 -0.00875
52.75 -0.00898
52.8 -0.00874
52.85 -0.00877
52.9 -0.0085
52.95 -0.00823
53 -0.00767
53.05 -0.00702
53.1 -0.00655
53.15 -0.00666
53.2 -0.00637
53.25 -0.00645
53.3 -0.00615
53.35 -0.00596
53.4 -0.00595
53.45 -0.00571
53.5 -0.00583
53.55 -0.00625
53.6 -0.00631
53.65 -0.00601
53.7 -0.00543
53.75 -0.00486
53.8 -0.00483
53.85 -0.00516
53.9 -0.00501
53.95 -0.00503
54 -0.00468
54.05 -0.00422
54.1 -0.00444
54.15 -0.00467
54.2 -0.0049
54.25 -0.00533
54.3 -0.00533
54.35 -0.00544
54.4 -0.00542
54.45 -0.00548
54.5 -0.00563
54.55 -0.00601
54.6 -0.00605
54.65 -0.00631
54.7 -0.0067
54.75 -0.00695
54.8 -0.00656
54.85 -0.00611
54.9 -0.00582
54.95 -0.00569
55 -0.00545
55.05 -0.00507
55.1 -0.00438
55.15 -0.00363
55.2 -0.00296
55.25 -0.00296
55.3 -0.00262
55.35 -0.0028
55.4 -0.00311
55.45 -0.00315
55.5 -0.00322
55.55 -0.00326
55.6 -0.00292
55.65 -0.00288
55.7 -0.00246
55.75 -0.0023
55.8 -0.00187
55.85 -0.00155
55.9 -0.0014
55.95 -0.00159
56 -0.00151
56.05 -0.00179
56.1 -0.00221
56.15 -0.00251
56.2 -0.00245
56.25 -0.00248
56.3 -0.00236
56.35 -0.002
56.4 -0.00209
56.45 -0.0026
56.5 -0.00312
56.55 -0.003
56.6 -0.00256
56.65 -0.00193
56.7 -0.0015
56.75 -0.00097
56.8 -0.00038
56.85 -0.00044
56.9 -0.00073
56.95 -0.00115
57 -0.0013
57.05 -0.00168
57.1 -0.00193
57.15 -0.00252
57.2 -0.00323
57.25 -0.00333
57.3 -0.00296
57.35 -0.00248
57.4 -0.00204
57.45 -0.00151
57.5 -0.00115
57.55 -0.00087
57.6 -0.00039
57.65 0.00018
57.7 0.00048
57.75 0.00011
57.8 -0.00066
57.85 -0.00101
57.9 -0.0012
57.95 -0.00109
58 -0.00095
58.05 -0.00121
58.1 -0.00115
58.15 -0.00153
58.2 -0.00213
58.25 -0.00263
58.3 -0.00274
58.35 -0.00262
58.4 -0.00231
58.45 -0.00245
58.5 -0.0024
58.55 -0.00212
58.6 -0.00229
58.65 -0.00264
58.7 -0.00279
58.75 -0.00264
58.8 -0.00239
58.85 -0.00239
58.9 -0.00213
58.95 -0.00161
59 -0.00165
59.05 -0.00135
59.1 -0.00122
59.15 -0.00118
59.2 -0.00086
59.25 -0.00098
59.3 -0.00075
59.35 -0.00052
59.4 -0.00061
59.45 -0.00091
59.5 -0.00118
59.55 -0.00134
59.6 -0.00172
59.65 -0.00211
59.7 -0.00196
59.75 -0.00201
59.8 -0.002
59.85 -0.00188
59.9 -0.0016
59.95 -0.0014
60 -0.00106
60.05 -0.0005
60.1 -0.00042
60.15 -0.00015
60.2 -0.00005
60.25 -0.00021
60.3 -0.00052
60.35 -0.00086
60.4 -0.00095
60.45 -0.00072
60.5 -0.00032
60.55 0.00016
60.6 0.00016
60.65 -0.00012
60.7 -0.00059
60.75 -0.00132
60.8 -0.00165
60.85 -0.00212
60.9 -0.00232
60.95 -0.00191
61 -0.00171
61.05 -0.00152
61.1 -0.00111
61.15 -0.00087
61.2 -0.00064
61.25 -0.00017
61.3 0.00045
61.35 0.00036
61.4 -0.00016
61.45 -0.00016
61.5 -0.00003
61.55 -0.00023
61.6 -0.00064
61.65 -0.00102
61.7 -0.00163
61.75 -0.00162
61.8 -0.00114
61.85 -0.0007
61.9 -0.00066
61.95 -0.00052
62 -0.00037
62.05 -0.00024
62.1 -0.00015
62.15 -0.00033
62.2 -0.00066
62.25 -0.00115
62.3 -0.00143
62.35 -0.00143
62.4 -0.0011
62.45 -0.00084
62.5 -0.00104
62.55 -0.00136
62.6 -0.00187
62.65 -0.00213
62.7 -0.00256
62.75 -0.00259
62.8 -0.00256
62.85 -0.00198
62.9 -0.0015
62.95 -0.00093
63 -0.00085
63.05 -0.0006
63.1 -0.00081
63.15 -0.00078
63.2 -0.00037
63.25 -0.00011
63.3 0.00037
63.35 0.00071
63.4 0.00119
63.45 0.00164
63.5 0.00188
63.55 0.00175
63.6 0.00134
63.65 0.00095
63.7 0.00084
63.75 0.00088
63.8 0.00122
63.85 0.00158
63.9 0.00144
63.95 0.00126
64 0.00088
64.05 0.00093
64.1 0.00116
64.15 0.00115
64.2 0.00082
64.25 0.00027
64.3 -0.00025
64.35 -0.00053
64.4 -0.00044
64.45 -0.00031
64.5 -0.00054
64.55 -0.00098
64.6 -0.00149
64.65 -0.00136
64.7 -0.00104
64.75 -0.00048
64.8 -0.00018
64.85 -0.00018
64.9 0.00007
64.95 0.00028
65 0.00047
65.05 0.00043
65.1 -0.00004
65.15 -0.00001
65.2 0.00029
65.25 0.00042
65.3 0.00018
65.35 0.00006
65.4 -0.00026
65.45 -0.00033
65.5 -0.00023
65.55 -0.00019
65.6 -0.00017
65.65 -0.00036
65.7 -0.00015
65.75 0.00038
65.8 0.00065
65.85 0.00062
65.9 0.00013
65.95 -0.00023
66 -0.00066
66.05 -0.00082
66.1 -0.00077
66.15 -0.00092
66.2 -0.00124
66.25 -0.00149
66.3 -0.00136
66.35 -0.00106
66.4 -0.00046
66.45 -0.00021
66.5 0.00002
66.55 -0.00026
66.6 -0.00014
66.65 -0.00026
66.7 -0.00016
66.75 -0.00029
66.8 -0.00018
66.85 -0.0004
66.9 -0.00063
66.95 -0.00062
67 -0.00084
67.05 -0.00114
67.1 -0.0012
67.15 -0.00081
67.2 -0.00086
67.25 -0.00089
67.3 -0.00068
67.35 -0.00074
67.4 -0.00103
67.45 -0.00147
67.5 -0.00148
67.55 -0.00129
67.6 -0.00077
67.65 0.00002
67.7 0.00041
67.75 0.00052
67.8 0.00027
67.85 0.00029
67.9 0.00023
67.95 -0
68 -0.00057
68.05 -0.00093
68.1 -0.00113
68.15 -0.00138
68.2 -0.00141
68.25 -0.00108
68.3 -0.00048
68.35 -0.00002
68.4 0.00027
68.45 0.00004
68.5 -0.00018
68.55 -0.00031
68.6 -0.00005
68.65 0.00023
68.7 0.00022
68.75 -0.00017
68.8 -0.00083
68.85 -0.00136
68.9 -0.0013
68.95 -0.00131
69 -0.00089
69.05 -0.0008
69.1 -0.00092
69.15 -0.0009
69.2 -0.00051
69.25 -0.00001
69.3 0.00052
69.35 0.0006
69.4 0.00072
69.45 0.00043
69.5 0.00058
69.55 0.00042
69.6 0.00053
69.65 0.00031
69.7 0.0005
69.75 0.00024
69.8 0.00028
69.85 0.00067
69.9 0.00051
69.95 0.00054
70 0.00083
70.05 0.00062
70.1 0.00052
70.15 0.00071
70.2 0.00039
70.25 -0.00019
70.3 -0.00089
70.35 -0.00086
70.4 -0.0004
70.45 -0.00027
70.5 -0.00024
70.55 0.00009
70.6 0.0002
70.65 0.0004
70.7 0.00067
70.75 0.00086
70.8 0.00085
70.85 0.00113
70.9 0.00121
70.95 0.00134
71 0.00166
71.05 0.00208
71.1 0.00244
71.15 0.00256
71.2 0.00229
71.25 0.00227
71.3 0.00178
71.35 0.00099
71.4 0.0002
71.45 -0.00061
71.5 -0.0008
71.55 -0.00078
71.6 -0.00042
71.65 -0.00024
71.7 -0.00009
71.75 -0.00023
71.8 -0.00045
71.85 -0.0003
71.9 -0.0003
71.95 -0.00013
72 -0.00005
72.05 -0.00007
72.1 -0.00051
72.15 -0.00052
72.2 -0.00073
72.25 -0.0011
72.3 -0.00101
72.35 -0.00084
72.4 -0.00087
72.45 -0.00116
72.5 -0.00133
72.55 -0.00146
72.6 -0.00183
72.65 -0.00193
72.7 -0.00183
72.75 -0.00172
72.8 -0.00165
72.85 -0.00134
72.9 -0.0011
72.95 -0.00099
73 -0.00059
73.05 0.00005
73.1 0.00045
73.15 0.0005
73.2 0.0002
73.25 -0.00029
73.3 -0.00067
73.35 -0.0006
73.4 -0.00039
73.45 -0.00047
73.5 -0.00049
73.55 -0.00005
73.6 0.00006
73.65 0.00028
73.7 0.00053
73.75 0.00084
73.8 0.00057
73.85 0.00012
73.9 -0.00059
73.95 -0.00115
74 -0.00116
74.05 -0.0008
74.1 -0.00083
74.15 -0.00054
74.2 -0.00027
74.25 0.0001
74.3 0.00013
74.35 -0.00009
74.4 0.00002
74.45 0.00035
74.5 0.00063
74.55 0.00097
74.6 0.0014
74.65 0.00174
74.7 0.00155
74.75 0.00118
74.8 0.0012
74.85 0.0012
74.9 0.00094
74.95 0.00075
75 0.00057
75.05 -0.00001
75.1 -0.00038
75.15 -0.00017
75.2 0.00006
75.25 0.00001
75.3 -0.00031
75.35 -0.00063
75.4 -0.00056
75.45 -0.00087
75.5 -0.00096
75.55 -0.00127
75.6 -0.0015
75.65 -0.00165
75.7 -0.00179
75.75 -0.00172
75.8 -0.00126
75.85 -0.00114
75.9 -0.00068
75.95 -0.00052
76 -0.00053
76.05 -0.00054
76.1 -0.00059
76.15 -0.00032
76.2 0.00025
76.25 0.00067
76.3 0.00082
76.35 0.00113
76.4 0.00134
76.45 0.00171
76.5 0.00166
76.55 0.00177
76.6 0.00148
76.65 0.00084
76.7 0.00048
76.75 0.00012
76.8 -0.0005
76.85 -0.00075
76.9 -0.00053
76.95 -0.00077
77 -0.00071
77.05 -0.00078
77.1 -0.00094
77.15 -0.00055
77.2 0.00001
77.25 0.00076
77.3 0.00077
77.35 0.0011
77.4 0.00128
77.45 0.00107
77.5 0.00073
77.55 0.0005
77.6 0.00035
77.65 0.00026
77.7 0.00003
77.75 -0.00019
77.8 -0.00024
77.85 -0.00022
77.9 -0.00017
77.95 -0.00049
78 -0.00083
78.05 -0.00097
78.1 -0.00113
78.15 -0.00095
78.2 -0.00044
78.25 -0.00027
78.3 -0.00021
78.35 -0.00002
78.4 0.00017
78.45 0.00011
78.5 -0.00018
78.55 0.00005
78.6 0.00052
78.65 0.00073
78.7 0.00045
78.75 -0
78.8 -0.00028
78.85 -0.00073
78.9 -0.00091
78.95 -0.00071
79 -0.00057
79.05 -0.00029
79.1 -0.00026
79.15 -0.00049
79.2 -0.0005
79.25 -0.00018
79.3 -0.00006
79.35 0.00033
79.4 0.00029
79.45 0.00006
79.5 0.00005
79.55 -0.00031
79.6 -0.00011
79.65 -0.00015
79.7 -0.00034
79.75 -0.00067
79.8 -0.00086
79.85 -0.00101
79.9 -0.00101
79.95 -0.00077
80 -0.00031
80.05 -0.00019
80.1 -0.00047
80.15 -0.0007
80.2 -0.00052
80.25 -0.00073
80.3 -0.00113
80.35 -0.00138
80.4 -0.00172
80.45 -0.00206
80.5 -0.00248
80.55 -0.00271
80.6 -0.0029
80.65 -0.00302
80.7 -0.0026
80.75 -0.0023
80.8 -0.00219
80.85 -0.00195
80.9 -0.00151
80.95 -0.00117
81 -0.00084
81.05 -0.00064
81.1 -0.00014
81.15 0.00061
81.2 0.001
81.25 0.00129
81.3 0.00172
81.35 0.00163
81.4 0.00175
81.45 0.00175
81.5 0.00176
81.55 0.00163
81.6 0.0013
81.65 0.00093
81.7 0.00094
81.75 0.00118
81.8 0.00116
81.85 0.00101
81.9 0.00104
81.95 0.00083
82 0.00036
82.05 0.00034
82.1 0.00055
82.15 0.00048
82.2 0.00042
82.25 0.00045
82.3 0.00006
82.35 -0.00021
82.4 -0.00047
82.45 -0.00085
82.5 -0.00139
82.55 -0.00178
82.6 -0.00161
82.65 -0.00146
82.7 -0.00145
82.75 -0.00117
82.8 -0.00053
82.85 0.00026
82.9 0.00043
82.95 0.00091
83 0.00098
83.05 0.00055
83.1 0.00044
83.15 0.00021
83.2 0.00035
83.25 0.00027
83.3 0.00008
83.35 -0.00037
83.4 -0.00031
83.45 -0.0001
83.5 0.00002
83.55 0.00017
83.6 0.00016
83.65 0.00044
83.7 0.00066
83.75 0.0005
83.8 0.00006
83.85 0.00019
83.9 0.00031
83.95 0.00061
84 0.00069
84.05 0.00104
84.1 0.00079
84.15 0.0006
84.2 0.0002
84.25 0.00006
84.3 0.00032
84.35 0.00008
84.4 0.00008
84.45 -0.00019
84.5 -0.00035
84.55 -0.00018
84.6 0.00019
84.65 0.0007
84.7 0.00076
84.75 0.00042
84.8 0.00033
84.85 0.00008
84.9 -0.00026
84.95 -0.00086
85 -0.00106
85.05 -0.00097
85.1 -0.00114
85.15 -0.00148
85.2 -0.00142
85.25 -0.00108
85.3 -0.00083
85.35 -0.0009
85.4 -0.00049
85.45 -0.00049
85.5 -0.00035
85.55 -0.00033
85.6 -0.00062
85.65 -0.001
85.7 -0.00107
85.75 -0.00061
85.8 -0.00045
85.85 0.00001
85.9 0.00049
85.95 0.00118
86 0.00125
86.05 0.00102
86.1 0.00056
86.15 0.0005
86.2 0.00027
86.25 0.00053
86.3 0.00034
86.35 0.00044
86.4 0.00047
86.45 0.00051
86.5 0.00063
86.55 0.00091
86.6 0.00093
86.65 0.00102
86.7 0.001
86.75 0.00125
86.8 0.00107
86.85 0.00101
86.9 0.00075
86.95 0.00061
87 0.00027
87.05 -0.00013
87.1 -0.00074
87.15 -0.00095
87.2 -0.00088
87.25 -0.00114
87.3 -0.0015
87.35 -0.0016
87.4 -0.00155
87.45 -0.00162
87.5 -0.00178
87.55 -0.00209
87.6 -0.00191
87.65 -0.00137
87.7 -0.00076
87.75 -0.00042
87.8 -0.00029
87.85 0.00011
87.9 0.00027
87.95 0.00011
88 -0.00003
88.05 0.0002
88.1 0.00065
88.15 0.00087
88.2 0.00105
88.25 0.00149
88.3 0.00196
88.35 0.0021
88.4 0.00212
88.45 0.00184
88.5 0.00156
88.55 0.00103
88.6 0.00026
88.65 -0.00044
88.7 -0.00079
88.75 -0.00057
88.8 -0.00001
88.85 0.00019
88.9 0.00035
88.95 0.00078
89 0.00109
89.05 0.00136
89.1 0.00111
89.15 0.00059
89.2 0.00031
89.25 0.00024
89.3 -0.00002
89.35 -0.00055
89.4 -0.00051
89.45 -0.00043
89.5 -0.00031
89.55 -0.00045
89.6 -0.00077
89.65 -0.00124
89.7 -0.0015
89.75 -0.00153
89.8 -0.00168
89.85 -0.00153
89.9 -0.00158
89.95 -0.00112
90 -0.00062
90.05 0.00009
90.1 0.00089
90.15 0.00155
90.2 0.00173
90.25 0.00169
90.3 0.00156
90.35 0.00178
90.4 0.00205
90.45 0.00236
90.5 0.00208
90.55 0.00168
90.6 0.00162
90.65 0.00151
90.7 0.00104
90.75 0.00066
90.8 0.00019
90.85 0.00009
90.9 -0.00004
90.95 0.00017
91 0.0002
91.05 -0.00011
91.1 0.00006
91.15 -0.00027
91.2 -0.00033
91.25 -0.00029
91.3 -0.00007
91.35 0.00043
91.4 0.00051
91.45 0.00075
91.5 0.00051
91.55 0.0004
91.6 0.00059
91.65 0.00043
91.7 0.00025
91.75 -0.00001
91.8 0.00018
91.85 0.00027
91.9 0.00001
91.95 -0.00058
92 -0.00068
92.05 -0.00086
92.1 -0.00094
92.15 -0.00121
92.2 -0.00126
92.25 -0.00138
92.3 -0.00127
92.35 -0.00074
92.4 -0.00021
92.45 -0.00029
92.5 0.00003
92.55 0.00027
92.6 0.00025
92.65 0.00023
92.7 0.00015
92.75 0.00014
92.8 0.00018
92.85 0.00056
92.9 0.00047
92.95 0.00032
93 0.00023
93.05 -0.00017
93.1 -0.00012
93.15 -0.00035
93.2 -0.00008
93.25 0.0003
93.3 0.0005
93.35 0.00027
93.4 0.00002
93.45 0.00016
93.5 0.00042
93.55 0.00076
93.6 0.00111
93.65 0.00155
93.7 0.00176
93.75 0.00131
93.8 0.00087
93.85 0.00038
93.9 -0.00007
93.95 -0.0005
94 -0.00048
94.05 -0.00052
94.1 -0.00079
94.15 -0.00113
94.2 -0.00131
94.25 -0.00106
94.3 -0.00093
94.35 -0.00073
94.4 -0.00036
94.45 0.00031
94.5 0.00066
94.55 0.00117
94.6 0.00139
94.65 0.00135
94.7 0.00115
94.75 0.00096
94.8 0.001
94.85 0.00053
94.9 0.00011
94.95 0.00017
95 0.00006
95.05 0.00033
95.1 0.00013
95.15 -0.0004
95.2 -0.00086
95.25 -0.00106
95.3 -0.00117
95.35 -0.001
95.4 -0.00084
95.45 -0.00044
95.5 0.00011
95.55 0.00042
95.6 0.00023
95.65 0.00018
95.7 -0.00001
95.75 -0.00014
95.8 -0.00066
95.85 -0.00055
95.9 -0.00033
95.95 -0.00029
96 0.00003
96.05 0
96.1 -0.00025
96.15 -0.00079
96.2 -0.00124
96.25 -0.00137
96.3 -0.00171
96.35 -0.00194
96.4 -0.00219
96.45 -0.00183
96.5 -0.00142
96.55 -0.00122
96.6 -0.00071
96.65 -0.00052
96.7 -0.00026
96.75 -0.00013
96.8 -0.00033
96.85 -0.0005
96.9 -0.00029
96.95 -0.00039
97 -0.00045
97.05 -0.00035
97.1 0
97.15 0.00064
97.2 0.00071
97.25 0.00079
97.3 0.00044
97.35 -0.00004
97.4 -0.0003
97.45 -0.00028
97.5 -0.00051
97.55 -0.00067
97.6 -0.00068
97.65 -0.001
97.7 -0.00083
97.75 -0.00072
97.8 -0.00063
97.85 -0.0004
97.9 -0.00046
97.95 -0.00057
98 -0.00056
98.05 -0.00014
98.1 -0.00007
98.15 0.00033
98.2 0.0002
98.25 0.00049
98.3 0.00023
98.35 -0.0003
98.4 -0.00067
98.45 -0.00096
98.5 -0.00071
98.55 -0.0007
98.6 -0.00028
98.65 0.00011
98.7 0.00072
98.75 0.00105
98.8 0.00117
98.85 0.00119
98.9 0.00152
98.95 0.00155
99 0.00143
99.05 0.00117
99.1 0.0011
99.15 0.00114
99.2 0.00117
99.25 0.00138
99.3 0.00129
99.35 0.00128
99.4 0.00081
99.45 0.00032
99.5 -0.00039
99.55 -0.00059
99.6 -0.00026
99.65 0.00016
99.7 0.00029
99.75 0.00066
99.8 0.00081
99.85 0.00074
99.9 0.00097
99.95 0.00061
