0 0
0.05 0.00081
0.1 0.00152
0.15 0.00319
0.2 0.00457
0.25 0.00657
0.3 0.00907
0.35 0.01152
0.4 0.01292
0.45 0.01428
0.5 0.01506
0.55 0.01502
0.6 0.0156
0.65 0.01661
0.7 0.01606
0.75 0.01582
0.8 0.01605
0.85 0.01598
0.9 0.01593
0.95 0.01611
1 0.01661
1.05 0.01647
1.1 0.01697
1.15 0.01628
1.2 0.01628
1.25 0.01519
1.3 0.01391
1.35 0.01365
1.4 0.01388
1.45 0.01357
1.5 0.01226
1.55 0.01232
1.6 0.01156
1.65 0.01022
1.7 0.00868
1.75 0.00851
1.8 0.0093
1.85 0.01031
1.9 0.01064
1.95 0.01124
2 0.0125
2.05 0.01236
2.1 0.01233
2.15 0.01111
2.2 0.00912
2.25 0.00889
2.3 0.00829
2.35 0.00653
2.4 0.00646
2.45 0.00655
2.5 0.00701
2.55 0.00791
2.6 0.00817
2.65 0.00925
2.7 0.00999
2.75 0.0093
2.8 0.00894
2.85 0.00956
2.9 0.01035
2.95 0.01008
3 0.0101
3.05 0.01056
3.1 0.0098
3.15 0.00801
3.2 0.00657
3.25 0.00577
3.3 0.00582
3.35 0.00623
3.4 0.00612
3.45 0.00574
3.5 0.00421
3.55 0.0022
3.6 0.00002
3.65 -0.00156
3.7 -0.00307
3.75 -0.00322
3.8 -0.00394
3.85 -0.00311
3.9 -0.0008
3.95 0.00061
4 0.00287
4.05 0.00362
4.1 0.00289
4.15 0.00156
4.2 0.00025
4.25 0.00073
4.3 0.00231
4.35 0.0042
4.4 0.00648
4.45 0.0078
4.5 0.00861
4.55 0.00867
4.6 0.00841
4.65 0.00896
4.7 0.00921
4.75 0.00848
4.8 0.00641
4.85 0.00522
4.9 0.00419
4.95 0.0041
5 0.00338
5.05 0.00405
5.1 0.00402
5.15 0.00362
5.2 0.003
5.25 0.00274
5.3 0.002
5.35 0.00158
5.4 0.00055
5.45 -0.00078
5.5 -0.00016
5.55 -0.0003
5.6 -0.00123
5.65 -0.00205
5.7 -0.0012
5.75 -0.00117
5.8 0.00024
5.85 0.00209
5.9 0.00416
5.95 0.00584
6 0.00754
6.05 0.008
6.1 0.00663
6.15 0.00633
6.2 0.00535
6.25 0.00363
6.3 0.00146
6.35 -0.00018
6.4 -0.00063
6.45 0.00005
6.5 0.00086
6.55 0.00205
6.6 0.00244
6.65 0.00309
6.7 0.0027
6.75 0.00326
6.8 0.00399
6.85 0.00514
6.9 0.00524
6.95 0.00575
7 0.00459
7.05 0.00258
7.1 0.00171
7.15 0.00024
7.2 -0.00051
7.25 -0.00106
7.3 -0.0024
7.35 -0.00281
7.4 -0.00192
7.45 -0.00143
7.5 -0.00161
7.55 -0.00083
7.6 0.00004
7.65 -0.00037
7.7 -0.00008
7.75 -0.00038
7.8 -0.00102
7.85 -0.00121
7.9 -0.00163
7.95 -0.00293
8 -0.00349
8.05 -0.00456
8.1 -0.00455
8.15 -0.00318
8.2 -0.00088
8.25 0.00119
8.3 0.0025
8.35 0.00249
8.4 0.00274
8.45 0.00255
8.5 0.00315
8.55 0.00437
8.6 0.00474
8.65 0.00359
8.7 0.0033
8.75 0.00384
8.8 0.00286
8.85 0.00318
8.9 0.00398
8.95 0.00304
9 0.00144
9.05 0.00095
9.1 -0.00036
9.15 -0.00022
9.2 0.00027
9.25 0.00006
9.3 0.00106
9.35 0.00219
9.4 0.0038
9.45 0.00344
9.5 0.00241
9.55 0.00227
9.6 0.00318
9.65 0.00398
9.7 0.00296
9.75 0.002
9.8 0.00163
9.85 0.00137
9.9 0.00122
9.95 0.00213
10 0.00279
10.05 0.00419
10.1 0.00382
10.15 0.00377
10.2 0.00298
10.25 0.00206
10.3 0.00053
10.35 0.00062
10.4 0.001
10.45 0.00077
10.5 -0.00045
10.55 -0.00045
10.6 0.00068
10.65 0.00018
10.7 -0.00116
10.75 -0.00117
10.8 -0.00079
10.85 0.00039
10.9 0.00097
10.95 0.00076
11 0.00118
11.05 0.00209
11.1 0.00243
11.15 0.0024
11.2 0.00267
11.25 0.00202
11.3 0.00249
11.35 0.00143
11.4 -0.00046
11.45 -0.00136
11.5 -0.00075
11.55 -0.00146
11.6 -0.00285
11.65 -0.00427
11.7 -0.00373
11.75 -0.00212
11.8 -0.00198
11.85 -0.00086
11.9 -0.00111
11.95 -0.00072
12 0.00022
12.05 0.00156
12.1 0.00108
12.15 -0.00024
12.2 -0.00025
12.25 -0.00117
12.3 -0.00169
12.35 -0.00154
12.4 -0.00241
12.45 -0.00258
12.5 -0.00187
12.55 -0.00018
12.6 0.00202
12.65 0.00382
12.7 0.00545
12.75 0.00613
12.8 0.00693
12.85 0.00759
12.9 0.00711
12.95 0.00569
13 0.00321
13.05 0.00074
13.1 -0.00122
13.15 -0.002
13.2 -0.00322
13.25 -0.0026
13.3 -0.00226
13.35 -0.00226
13.4 -0.00106
13.45 0.00082
13.5 0.00128
13.55 0.00082
13.6 0.00049
13.65 -0.00098
13.7 -0.0026
13.75 -0.00466
13.8 -0.00582
13.85 -0.00601
13.9 -0.00469
13.95 -0.00241
14 -0.00073
14.05 -0.00031
14.1 -0.0007
14.15 -0.00112
14.2 -0.00156
14.25 -0.0028
14.3 -0.00456
14.35 -0.00472
14.4 -0.00518
14.45 -0.00572
14.5 -0.00628
14.55 -0.00596
14.6 -0.00442
14.65 -0.00307
14.7 -0.00105
14.75 -0.00032
14.8 -0.00041
14.85 -0.00083
14.9 -0.00032
14.95 0.00105
15 0.00195
15.05 0.00147
15.1 0.00037
15.15 -0.00141
15.2 -0.00265
15.25 -0.00368
15.3 -0.00492
15.35 -0.0059
15.4 -0.00545
15.45 -0.00421
15.5 -0.00421
15.55 -0.00372
15.6 -0.00425
15.65 -0.00529
15.7 -0.00566
15.75 -0.00461
15.8 -0.00464
15.85 -0.00348
15.9 -0.0031
15.95 -0.00324
16 -0.00356
16.05 -0.00453
16.1 -0.00364
16.15 -0.00296
16.2 -0.0013
16.25 0.00065
16.3 0.00081
16.35 0.00156
16.4 0.001
16.45 0.00036
16.5 -0.00086
16.55 -0.00211
16.6 -0.0015
16.65 0.00022
16.7 0.00128
16.75 0.00158
16.8 0.00266
16.85 0.00409
16.9 0.00532
16.95 0.00623
17 0.00714
17.05 0.00695
17.1 0.00689
17.15 0.00626
17.2 0.00558
17.25 0.00429
17.3 0.00268
17.35 0.00265
17.4 0.00194
17.45 0.00132
17.5 0.00163
17.55 0.00231
17.6 0.00334
17.65 0.00319
17.7 0.00177
17.75 0.00094
17.8 -0.00012
17.85 -0.00149
17.9 -0.00335
17.95 -0.00468
18 -0.0063
18.05 -0.00662
18.1 -0.00588
18.15 -0.00575
18.2 -0.00452
18.25 -0.00381
18.3 -0.00204
18.35 -0.00175
18.4 -0.00102
18.45 -0.00068
18.5 -0.00067
18.55 0.00032
18.6 0.002
18.65 0.0033
18.7 0.00347
18.75 0.00255
18.8 0.00109
18.85 -0.00029
18.9 -0.0018
18.95 -0.00247
19 -0.00381
19.05 -0.0046
19.1 -0.00412
19.15 -0.00397
19.2 -0.00337
19.25 -0.00184
19.3 0.00024
19.35 0.00105
19.4 0.0021
19.45 0.00356
19.5 0.00368
19.55 0.00242
19.6 0.0014
19.65 0.00009
19.7 -0.00014
19.75 -0.00136
19.8 -0.00199
19.85 -0.00274
19.9 -0.00257
19.95 -0.00333
20 -0.00251
20.05 -0.00056
20.1 0.00189
20.15 0.00356
20.2 0.0044
20.25 0.00455
20.3 0.0034
20.35 0.00347
20.4 0.00448
20.45 0.00463
20.5 0.00469
20.55 0.00518
20.6 0.00482
20.65 0.00444
20.7 0.0039
20.75 0.00348
20.8 0.00415
20.85 0.00462
20.9 0.00517
20.95 0.00465
21 0.00443
21.05 0.00354
21.1 0.003
21.15 0.00124
21.2 0.00056
21.25 -0.00013
21.3 -0.00005
21.35 0.00014
21.4 -0.00024
21.45 0.0006
21.5 -0.00018
21.55 -0.00122
21.6 -0.00105
21.65 -0.00211
21.7 -0.00317
21.75 -0.00442
21.8 -0.00387
21.85 -0.00375
21.9 -0.00397
21.95 -0.00398
22 -0.00388
22.05 -0.00352
22.1 -0.0031
22.15 -0.00297
22.2 -0.00324
22.25 -0.00249
22.3 -0.00239
22.35 -0.00241
22.4 -0.00153
22.45 -0.00025
22.5 0.00089
22.55 0.00035
22.6 -0.00083
22.65 -0.00092
22.7 -0.00209
22.75 -0.0022
22.8 -0.00094
22.85 0.0005
22.9 0.002
22.95 0.0032
23 0.00475
23.05 0.00571
23.1 0.00634
23.15 0.00665
23.2 0.00633
23.25 0.00603
23.3 0.00608
23.35 0.00578
23.4 0.00605
23.45 0.00522
23.5 0.0047
23.55 0.00493
23.6 0.00356
23.65 0.00225
23.7 0.00116
23.75 -0.00037
23.8 -0.00097
23.85 -0.00079
23.9 -0.00142
23.95 -0.00203
24 -0.00119
24.05 0.0002
24.1 0.00192
24.15 0.00374
24.2 0.00461
24.25 0.00488
24.3 0.00531
24.35 0.00438
24.4 0.00307
24.45 0.00228
24.5 0.00196
24.55 0.00199
24.6 0.00213
24.65 0.00144
24.7 0.00034
24.75 0.00021
24.8 -0.0012
24.85 -0.00223
24.9 -0.00308
24.95 -0.00466
25 -0.00469
25.05 -0.00485
25.1 -0.0044
25.15 -0.00464
25.2 -0.00437
25.25 -0.00426
25.3 -0.00486
25.35 -0.00555
25.4 -0.00521
25.45 -0.00421
25.5 -0.00206
25.55 -0.0017
25.6 -0.00054
25.65 0.0009
25.7 0.00083
25.75 0.00181
25.8 0.00229
25.85 0.00195
25.9 0.00032
25.95 -0.00034
26 0.00028
26.05 -0.00007
26.1 0
26.15 -0.00115
26.2 -0.00061
26.25 -0.00114
26.3 -0.00228
26.35 -0.00407
26.4 -0.00466
26.45 -0.00373
26.5 -0.00275
26.55 -0.00153
26.6 -0.00058
26.65 0.00035
26.7 0.00162
26.75 0.00127
26.8 0.00078
26.85 -0.00011
26.9 -0.00139
26.95 -0.00157
27 -0.00216
27.05 -0.00275
27.1 -0.00416
27.15 -0.00574
27.2 -0.00549
27.25 -0.00379
27.3 -0.00126
27.35 -0.00055
27.4 0.00066
27.45 0.00259
27.5 0.00313
27.55 0.00376
27.6 0.0046
27.65 0.00493
27.7 0.00443
27.75 0.00405
27.8 0.00256
27.85 0.0017
27.9 -0.00009
27.95 -0.00009
28 -0.00054
28.05 -0.00014
28.1 0.00084
28.15 0.00189
28.2 0.00197
28.25 0.00128
28.3 0.00112
28.35 0.00038
28.4 0.00082
28.45 0.00214
28.5 0.0027
28.55 0.00155
28.6 0.00158
28.65 0.00191
28.7 0.00299
28.75 0.00369
28.8 0.00406
28.85 0.00476
28.9 0.00528
28.95 0.00557
29 0.00437
29.05 0.00397
29.1 0.00335
29.15 0.00162
29.2 0.00068
29.25 -0.00116
29.3 -0.00279
29.35 -0.00469
29.4 -0.00684
29.45 -0.00752
29.5 -0.00658
29.55 -0.00651
29.6 -0.00488
29.65 -0.00369
29.7 -0.00309
29.75 -0.00197
29.8 -0.00167
29.85 -0.0011
29.9 -0.00155
29.95 -0.00284
30 -0.00445
30.05 -0.00583
30.1 -0.00563
30.15 -0.00623
30.2 -0.00563
30.25 -0.00465
30.3 -0.00302
30.35 -0.00193
30.4 -0.00047
30.45 -0.00019
30.5 -0.00093
30.55 -0.00124
30.6 -0.00011
30.65 0.00092
30.7 0.00092
30.75 0.0002
30.8 0.00033
30.85 0.0004
30.9 0.00032
30.95 0.00111
31 0.00098
31.05 0.0011
31.1 0.00129
31.15 0.00136
31.2 0.00224
31.25 0.00195
31.3 0.00261
31.35 0.00155
31.4 0.00031
31.45 0.00052
31.5 -0.00055
31.55 -0.00106
31.6 -0.00196
31.65 -0.00124
31.7 0.00007
31.75 -0.00013
31.8 -0.00018
31.85 0.00043
31.9 0.00125
31.95 0.00105
32 -0.00005
32.05 -0.00174
32.1 -0.00263
32.15 -0.00184
32.2 -0.00083
32.25 0.00095
32.3 0.00299
32.35 0.00496
32.4 0.00564
32.45 0.00605
32.5 0.00661
32.55 0.00668
32.6 0.00723
32.65 0.00779
32.7 0.00751
32.75 0.00592
32.8 0.00456
32.85 0.00333
32.9 0.00331
32.95 0.00302
33 0.00249
33.05 0.00171
33.1 0.00109
33.15 -0.00022
33.2 -0.00087
33.25 -0.00177
33.3 -0.00277
33.35 -0.00446
33.4 -0.00423
33.45 -0.00408
33.5 -0.00322
33.55 -0.00166
33.6 -0.00146
33.65 -0.00162
33.7 -0.00098
33.75 -0.00101
33.8 -0.00108
33.85 -0.00046
33.9 0.00042
33.95 0.00042
34 -0.00078
34.05 -0.00236
34.1 -0.00441
34.15 -0.00621
34.2 -0.00599
34.25 -0.00472
34.3 -0.00477
34.35 -0.00492
34.4 -0.00562
34.45 -0.00524
34.5 -0.00575
34.55 -0.00453
34.6 -0.00348
34.65 -0.00219
34.7 -0.00213
34.75 -0.00198
34.8 -0.00297
34.85 -0.00215
34.9 -0.00269
34.95 -0.00285
35 -0.00326
35.05 -0.00346
35.1 -0.00439
35.15 -0.00417
35.2 -0.00309
35.25 -0.0024
35.3 -0.00222
35.35 -0.00178
35.4 -0.00043
35.45 0.00016
35.5 0.00009
35.55 0.00039
35.6 0.00127
35.65 0.00105
35.7 -0.0003
35.75 -0.00177
35.8 -0.00204
35.85 -0.00214
35.9 -0.00153
35.95 -0.00032
36 0.00144
36.05 0.00185
36.1 0.00179
36.15 0.00215
36.2 0.00134
36.25 0.00102
36.3 0.00072
36.35 0.00095
36.4 0.00054
36.45 0.00123
36.5 0.0007
36.55 0.00048
36.6 0.00047
36.65 0.00001
36.7 -0.00117
36.75 -0.00208
36.8 -0.00168
36.85 -0.00007
36.9 0.00036
36.95 -0.00033
37 -0.0007
37.05 -0.00109
37.1 -0.00167
37.15 -0.00255
37.2 -0.00183
37.25 -0.00212
37.3 -0.0025
37.35 -0.00202
37.4 -0.00251
37.45 -0.00162
37.5 0.00032
37.55 0.00091
37.6 0.00205
37.65 0.00351
37.7 0.00309
37.75 0.00337
37.8 0.00388
37.85 0.00484
37.9 0.00603
37.95 0.00577
38 0.0049
38.05 0.0029
38.1 0.00079
38.15 -0.0003
38.2 0.00021
38.25 0.0001
38.3 0.00041
38.35 -0.00024
38.4 -0.00157
38.45 -0.00196
38.5 -0.00303
38.55 -0.00426
38.6 -0.00551
38.65 -0.00648
38.7 -0.00696
38.75 -0.0062
38.8 -0.00522
38.85 -0.00359
38.9 -0.00289
38.95 -0.00302
39 -0.00379
39.05 -0.00323
39.1 -0.00143
39.15 -0.00091
39.2 -0.00008
39.25 0.00113
39.3 0.00229
39.35 0.00272
39.4 0.00395
39.45 0.00406
39.5 0.00452
39.55 0.0039
39.6 0.00285
39.65 0.00286
39.7 0.00158
39.75 0.00045
39.8 -0.00138
39.85 -0.00219
39.9 -0.00132
39.95 -0.00037
40 -0.00091
40.05 -0.00007
40.1 0.00029
40.15 0.00166
40.2 0.0021
40.25 0.00251
40.3 0.00141
40.35 0.0014
40.4 0.0022
40.45 0.00157
40.5 0.00082
40.55 0.00052
40.6 0.00101
40.65 0.00088
40.7 -0.00012
40.75 -0.00141
40.8 -0.00228
40.85 -0.00384
40.9 -0.00535
40.95 -0.00701
41 -0.00754
41.05 -0.00712
41.1 -0.00629
41.15 -0.00438
41.2 -0.00234
41.25 -0.00168
41.3 -0.00054
41.35 -0.00006
41.4 0.00132
41.45 0.00266
41.5 0.00381
41.55 0.00438
41.6 0.00498
41.65 0.00442
41.7 0.00459
41.75 0.00421
41.8 0.00391
41.85 0.00332
41.9 0.0031
41.95 0.00382
42 0.00494
42.05 0.00579
42.1 0.00661
42.15 0.00609
42.2 0.00448
42.25 0.00333
42.3 0.00345
42.35 0.00401
42.4 0.00372
42.45 0.00405
42.5 0.00317
42.55 0.00245
42.6 0.00202
42.65 0.00044
42.7 -0.00118
42.75 -0.00264
42.8 -0.00461
42.85 -0.00637
42.9 -0.00776
42.95 -0.00879
43 -0.00803
43.05 -0.00657
43.1 -0.00502
43.15 -0.00372
43.2 -0.00193
43.25 0.00012
43.3 0.00118
43.35 0.00108
43.4 0.00123
43.45 0.00001
43.5 -0.00025
43.55 -0.00041
43.6 -0.00157
43.65 -0.00209
43.7 -0.00175
43.75 -0.00221
43.8 -0.00233
43.85 -0.00178
43.9 -0.00249
43.95 -0.00375
44 -0.00535
44.05 -0.00672
44.1 -0.00744
44.15 -0.00829
44.2 -0.00817
44.25 -0.00767
44.3 -0.0058
44.35 -0.00427
44.4 -0.0039
44.45 -0.00381
44.5 -0.00435
44.55 -0.00352
44.6 -0.0017
44.65 -0.00003
44.7 0.00109
44.75 0.00283
44.8 0.00418
44.85 0.00513
44.9 0.00418
44.95 0.00387
45 0.00224
45.05 0.00029
45.1 -0.00023
45.15 0.00024
45.2 -0.00059
45.25 -0.00077
45.3 0.00043
45.35 0.00014
45.4 -0.00034
45.45 -0.00057
45.5 0.0005
45.55 0.00223
45.6 0.00298
45.65 0.00297
45.7 0.00345
45.75 0.00332
45.8 0.00406
45.85 0.00477
45.9 0.00499
45.95 0.00499
46 0.00513
46.05 0.004
46.1 0.00308
46.15 0.00159
46.2 -0.00008
46.25 -0.00103
46.3 -0.00248
46.35 -0.0038
46.4 -0.00337
46.45 -0.0033
46.5 -0.00363
46.55 -0.00347
46.6 -0.00387
46.65 -0.00475
46.7 -0.00412
46.75 -0.00433
46.8 -0.00433
46.85 -0.00317
46.9 -0.00143
46.95 0.00018
47 0.00167
47.05 0.00319
47.1 0.00372
47.15 0.00356
47.2 0.00364
47.25 0.00347
47.3 0.00226
47.35 0.00095
47.4 -0.00049
47.45 -0.00157
47.5 -0.00211
47.55 -0.00152
47.6 -0.00157
47.65 -0.00213
47.7 -0.0025
47.75 -0.0032
47.8 -0.00375
47.85 -0.00386
47.9 -0.00421
47.95 -0.00357
48 -0.00158
48.05 -0.00039
48.1 -0.00002
48.15 -0.00085
48.2 -0.00193
48.25 -0.00337
48.3 -0.00391
48.35 -0.00267
48.4 -0.00114
48.45 0.001
48.5 0.00189
48.55 0.00167
48.6 0.00127
48.65 0.00001
48.7 -0.00113
48.75 -0.00189
48.8 -0.00102
48.85 -0.0002
48.9 0.00153
48.95 0.00312
49 0.00491
49.05 0.00505
49.1 0.00457
49.15 0.00342
49.2 0.00186
49.25 -0.00023
49.3 -0.00085
49.35 -0.00107
49.4 -0.00175
49.45 -0.00228
49.5 -0.00189
49.55 -0.00152
49.6 -0.00186
49.65 -0.00162
49.7 -0.00142
49.75 -0.00108
49.8 -0.00073
49.85 0.00011
49.9 -0.00051
49.95 -0.00007
50 0.00059
50.05 0.00167
50.1 0.00339
50.15 0.00319
50.2 0.00371
50.25 0.00365
50.3 0.00292
50.35 0.00221
50.4 0.00128
50.45 0.00159
50.5 0.00148
50.55 0.00015
50.6 -0.0016
50.65 -0.00339
50.7 -0.00573
50.75 -0.00602
50.8 -0.00698
50.85 -0.00719
50.9 -0.00751
50.95 -0.007
51 -0.00707
51.05 -0.00858
51.1 -0.01057
51.15 -0.01345
51.2 -0.01599
51.25 -0.01866
51.3 -0.02317
51.35 -0.02983
51.4 -0.03787
51.45 -0.0472
51.5 -0.05556
51.55 -0.06436
51.6 -0.07371
51.65 -0.08346
51.7 -0.09507
51.75 -0.10773
51.8 -0.1218
51.85 -0.13799
51.9 -0.15691
51.95 -0.17726
52 -0.20062
52.05 -0.22659
52.1 -0.25354
52.15 -0.28272
52.2 -0.31258
52.25 -0.34357
52.3 -0.37621
52.35 -0.40997
52.4 -0.4443
52.45 -0.4804
52.5 -0.51667
52.55 -0.55294
52.6 -0.58773
52.65 -0.62143
52.7 -0.65379
52.75 -0.6836
52.8 -0.71055
52.85 -0.73383
52.9 -0.75323
52.95 -0.76791
53 -0.7783
53.05 -0.78494
53.1 -0.7856
53.15 -0.7802
53.2 -0.76975
53.25 -0.75523
53.3 -0.73393
53.35 -0.7078
53.4 -0.67565
53.45 -0.63789
53.5 -0.59606
53.55 -0.55082
53.6 -0.50192
53.65 -0.45032
53.7 -0.39455
53.75 -0.33709
53.8 -0.27771
53.85 -0.21685
53.9 -0.15514
53.95 -0.09533
54 -0.03681
54.05 0.01855
54.1 0.07089
54.15 0.12158
54.2 0.16921
54.25 0.21462
54.3 0.257
54.35 0.29746
54.4 0.33498
54.45 0.369
54.5 0.39846
54.55 0.42569
54.6 0.45074
54.65 0.47153
54.7 0.4895
54.75 0.50611
54.8 0.52139
54.85 0.53505
54.9 0.54761
54.95 0.55733
55 0.5665
55.05 0.57394
55.1 0.57935
55.15 0.58401
55.2 0.58736
55.25 0.5892
55.3 0.59197
55.35 0.5952
55.4 0.59654
55.45 0.59807
55.5 0.59968
55.55 0.60057
55.6 0.60058
55.65 0.59821
55.7 0.59397
55.75 0.58897
55.8 0.58275
55.85 0.57729
55.9 0.57246
55.95 0.56739
56 0.5616
56.05 0.55432
56.1 0.54692
56.15 0.53839
56.2 0.52972
56.25 0.5202
56.3 0.50972
56.35 0.49733
56.4 0.484
56.45 0.47116
56.5 0.45774
56.55 0.44516
56.6 0.43182
56.65 0.41817
56.7 0.40473
56.75 0.3897
56.8 0.37426
56.85 0.35951
56.9 0.3453
56.95 0.33213
57 0.31769
57.05 0.3032
57.1 0.28871
57.15 0.27424
57.2 0.26151
57.25 0.2487
57.3 0.23659
57.35 0.22393
57.4 0.21177
57.45 0.20093
57.5 0.18934
57.55 0.17846
57.6 0.16701
57.65 0.15601
57.7 0.14663
57.75 0.13774
57.8 0.12761
57.85 0.11735
57.9 0.10657
57.95 0.09533
58 0.08513
58.05 0.0755
58.1 0.06677
58.15 0.0577
58.2 0.04825
58.25 0.0396
58.3 0.03073
58.35 0.02234
58.4 0.01635
58.45 0.01129
58.5 0.00551
58.55 -0.00012
58.6 -0.00627
58.65 -0.01267
58.7 -0.0177
58.75 -0.02187
58.8 -0.02648
58.85 -0.03117
58.9 -0.03642
58.95 -0.0423
59 -0.04813
59.05 -0.05396
59.1 -0.05838
59.15 -0.06297
59.2 -0.06558
59.25 -0.06788
59.3 -0.06933
59.35 -0.07023
59.4 -0.07281
59.45 -0.0764
59.5 -0.07912
59.55 -0.08231
59.6 -0.08533
59.65 -0.08772
59.7 -0.09051
59.75 -0.09341
59.8 -0.0947
59.85 -0.0951
59.9 -0.09551
59.95 -0.09493
60 -0.09554
60.05 -0.09662
60.1 -0.09626
60.15 -0.09553
60.2 -0.09608
60.25 -0.09587
60.3 -0.09508
60.35 -0.09351
60.4 -0.09148
60.45 -0.08999
60.5 -0.089
60.55 -0.08795
60.6 -0.08853
60.65 -0.08841
60.7 -0.08984
60.75 -0.09161
60.8 -0.09233
60.85 -0.09258
60.9 -0.09365
60.95 -0.09322
61 -0.09338
61.05 -0.09386
61.1 -0.09393
61.15 -0.09282
61.2 -0.09214
61.25 -0.0916
61.3 -0.0916
61.35 -0.09006
61.4 -0.08877
61.45 -0.08718
61.5 -0.08534
61.55 -0.08313
61.6 -0.08015
61.65 -0.07872
61.7 -0.07722
61.75 -0.07586
61.8 -0.07393
61.85 -0.0735
61.9 -0.07373
61.95 -0.07297
62 -0.07113
62.05 -0.07046
62.1 -0.06871
62.15 -0.06694
62.2 -0.06455
62.25 -0.06366
62.3 -0.06174
62.35 -0.06058
62.4 -0.0588
62.45 -0.05742
62.5 -0.05535
62.55 -0.05507
62.6 -0.0551
62.65 -0.05488
62.7 -0.0558
62.75 -0.05628
62.8 -0.0565
62.85 -0.05558
62.9 -0.05402
62.95 -0.05305
63 -0.05149
63.05 -0.05058
63.1 -0.05033
63.15 -0.04937
63.2 -0.04784
63.25 -0.04669
63.3 -0.04684
63.35 -0.04605
63.4 -0.04624
63.45 -0.04577
63.5 -0.04531
63.55 -0.04577
63.6 -0.04557
63.65 -0.04539
63.7 -0.04466
63.75 -0.04372
63.8 -0.04193
63.85 -0.03978
63.9 -0.03901
63.95 -0.03937
64 -0.04023
64.05 -0.04158
64.1 -0.04082
64.15 -0.03896
64.2 -0.03655
64.25 -0.0354
64.3 -0.03421
64.35 -0.03221
64.4 -0.03166
64.45 -0.03212
64.5 -0.03353
64.55 -0.03395
64.6 -0.03424
64.65 -0.03408
64.7 -0.03401
64.75 -0.03425
64.8 -0.03405
64.85 -0.03317
64.9 -0.03171
64.95 -0.03101
65 -0.0305
65.05 -0.03087
65.1 -0.03139
65.15 -0.03028
65.2 -0.02822
65.25 -0.02669
65.3 -0.02637
65.35 -0.02595
65.4 -0.02566
65.45 -0.02638
65.5 -0.02537
65.55 -0.02377
65.6 -0.02219
65.65 -0.02153
65.7 -0.02125
65.75 -0.02149
65.8 -0.02159
65.85 -0.0209
65.9 -0.02002
65.95 -0.01942
66 -0.01974
66.05 -0.019
66.1 -0.01913
66.15 -0.01853
66.2 -0.01737
66.25 -0.01789
66.3 -0.01825
66.35 -0.01925
66.4 -0.019
66.45 -0.01886
66.5 -0.0178
66.55 -0.01777
66.6 -0.01637
66.65 -0.01628
66.7 -0.01597
66.75 -0.01498
66.8 -0.01547
66.85 -0.01621
66.9 -0.01636
66.95 -0.01608
67 -0.01642
67.05 -0.01662
67.1 -0.01633
67.15 -0.01638
67.2 -0.01601
67.25 -0.01671
67.3 -0.0169
67.35 -0.01767
67.4 -0.01874
67.45 -0.01829
67.5 -0.01826
67.55 -0.01883
67.6 -0.01842
67.65 -0.01685
67.7 -0.01551
67.75 -0.013
67.8 -0.01159
67.85 -0.01012
67.9 -0.00988
67.95 -0.00981
68 -0.00847
68.05 -0.00792
68.1 -0.00824
68.15 -0.00746
68.2 -0.00613
68.25 -0.00535
68.3 -0.0049
68.35 -0.00424
68.4 -0.00378
68.45 -0.00448
68.5 -0.00629
68.55 -0.00735
68.6 -0.00804
68.65 -0.00859
68.7 -0.00941
68.75 -0.01084
68.8 -0.01182
68.85 -0.0119
68.9 -0.01101
68.95 -0.00923
69 -0.00875
69.05 -0.00758
69.1 -0.0073
69.15 -0.00709
69.2 -0.00786
69.25 -0.0078
69.3 -0.00842
69.35 -0.00858
69.4 -0.00738
69.45 -0.0076
69.5 -0.00852
69.55 -0.00856
69.6 -0.00795
69.65 -0.00631
69.7 -0.00437
69.75 -0.00376
69.8 -0.00428
69.85 -0.00472
69.9 -0.00524
69.95 -0.00674
70 -0.00793
70.05 -0.00951
70.1 -0.00929
70.15 -0.00761
70.2 -0.00728
70.25 -0.00632
70.3 -0.00557
70.35 -0.00494
70.4 -0.00394
70.45 -0.00296
70.5 -0.00329
70.55 -0.00337
70.6 -0.00283
70.65 -0.00147
70.7 -0.00182
70.75 -0.0017
70.8 -0.00284
70.85 -0.00341
70.9 -0.00464
70.95 -0.00414
71 -0.00322
71.05 -0.00324
71.1 -0.00286
71.15 -0.00161
71.2 0.00004
71.25 -0.00037
71.3 -0.00091
71.35 -0.00172
71.4 -0.00241
71.45 -0.00264
71.5 -0.002
71.55 -0.0018
71.6 -0.00071
71.65 0.00091
71.7 0.0023
71.75 0.00337
71.8 0.0029
71.85 0.00091
71.9 0.00038
71.95 0.00052
72 -0.00039
72.05 -0.00125
72.1 -0.00162
72.15 -0.00129
72.2 -0.00214
72.25 -0.0036
72.3 -0.00378
72.35 -0.00411
72.4 -0.00404
72.45 -0.00373
72.5 -0.0034
72.55 -0.00384
72.6 -0.00395
72.65 -0.00311
72.7 -0.00354
72.75 -0.00312
72.8 -0.00375
72.85 -0.00384
72.9 -0.00303
72.95 -0.00199
73 -0.00187
73.05 -0.00209
73.1 -0.00322
73.15 -0.00404
73.2 -0.00341
73.25 -0.00396
73.3 -0.00529
73.35 -0.00686
73.4 -0.00835
73.45 -0.00952
73.5 -0.00974
73.55 -0.00806
73.6 -0.00589
73.65 -0.00375
73.7 -0.0032
73.75 -0.003
73.8 -0.00392
73.85 -0.00494
73.9 -0.00601
73.95 -0.00632
74 -0.00534
74.05 -0.00375
74.1 -0.00162
74.15 -0.00077
74.2 0.00077
74.25 0.00263
74.3 0.00418
74.35 0.00403
74.4 0.00407
74.45 0.00388
74.5 0.00361
74.55 0.00236
74.6 0.00212
74.65 0.0017
74.7 0.00003
74.75 -0.00086
74.8 -0.00037
74.85 -0.00113
74.9 -0.00237
74.95 -0.00258
75 -0.00333
75.05 -0.00335
75.1 -0.00252
75.15 -0.00078
75.2 0.0008
75.25 0.0004
75.3 0.00054
75.35 0.00032
75.4 0.0009
75.45 0.00205
75.5 0.00223
75.55 0.00257
75.6 0.00163
75.65 0.00087
75.7 -0.00049
75.75 -0.00141
75.8 -0.00267
75.85 -0.00283
75.9 -0.00264
75.95 -0.00342
76 -0.00452
76.05 -0.00431
76.1 -0.0031
76.15 -0.00304
76.2 -0.00172
76.25 -0.00064
76.3 -0.00078
76.35 -0.00156
76.4 -0.00112
76.45 -0.00184
76.5 -0.00323
76.55 -0.00335
76.6 -0.00423
76.65 -0.0047
76.7 -0.00434
76.75 -0.00432
76.8 -0.0028
76.85 -0.00094
76.9 0.00018
76.95 0.00054
77 0.00037
77.05 -0.00068
77.1 -0.00107
77.15 -0.00155
77.2 -0.00079
77.25 -0.00102
77.3 -0.00121
77.35 -0.00212
77.4 -0.00355
77.45 -0.00517
77.5 -0.00529
77.55 -0.00413
77.6 -0.00334
77.65 -0.00309
77.7 -0.00222
77.75 -0.00146
77.8 -0.00134
77.85 -0.00199
77.9 -0.0022
77.95 -0.00229
78 -0.00167
78.05 -0.00066
78.1 0.00068
78.15 0.00245
78.2 0.00361
78.25 0.00461
78.3 0.00409
78.35 0.00411
78.4 0.00416
78.45 0.00311
78.5 0.00316
78.55 0.00274
78.6 0.00249
78.65 0.00316
78.7 0.00321
78.75 0.00283
78.8 0.00286
78.85 0.00289
78.9 0.00348
78.95 0.00475
79 0.00406
79.05 0.00349
79.1 0.00314
79.15 0.00141
79.2 -0.00055
79.25 -0.00294
79.3 -0.00533
79.35 -0.00689
79.4 -0.00622
79.45 -0.00656
79.5 -0.00711
79.55 -0.00794
79.6 -0.00872
79.65 -0.00853
79.7 -0.00738
79.75 -0.00528
79.8 -0.0023
79.85 -0.00087
79.9 0.00038
79.95 0.00107
80 0.00101
80.05 -0.00013
80.1 -0.00162
80.15 -0.00317
80.2 -0.00306
80.25 -0.0017
80.3 -0.00093
80.35 0.00054
80.4 0.00251
80.45 0.00293
80.5 0.0039
80.55 0.00384
80.6 0.00362
80.65 0.00324
80.7 0.00261
80.75 0.0008
80.8 -0.00076
80.85 -0.00097
80.9 -0.00176
80.95 -0.00134
81 0.00026
81.05 0.00127
81.1 0.00175
81.15 0.00204
81.2 0.00112
81.25 0.00079
81.3 -0.00067
81.35 -0.00144
81.4 -0.00179
81.45 -0.00069
81.5 0.00098
81.55 0.00298
81.6 0.00401
81.65 0.00499
81.7 0.00466
81.75 0.0043
81.8 0.00473
81.85 0.00491
81.9 0.00394
81.95 0.00176
82 0.00038
82.05 -0.0008
82.1 -0.00194
82.15 -0.00308
82.2 -0.00275
82.25 -0.00267
82.3 -0.00335
82.35 -0.00294
82.4 -0.00296
82.45 -0.00203
82.5 -0.00129
82.55 0.00025
82.6 0.00133
82.65 0.00171
82.7 0.00139
82.75 -0.00009
82.8 -0.00048
82.85 -0
82.9 0.00106
82.95 0.00158
83 0.00108
83.05 0.00028
83.1 0.00093
83.15 0.00176
83.2 0.00163
83.25 0.00113
83.3 0.00104
83.35 -0.00023
83.4 -0.00211
83.45 -0.00228
83.5 -0.00276
83.55 -0.0023
83.6 -0.00305
83.65 -0.00244
83.7 -0.00148
83.75 -0.00193
83.8 -0.00153
83.85 -0.0011
83.9 -0.00078
83.95 0.0003
84 0.00159
84.05 0.00262
84.1 0.00369
84.15 0.00292
84.2 0.00102
84.25 0.00076
84.3 0.00101
84.35 0.00209
84.4 0.00199
84.45 0.0009
84.5 -0.00013
84.55 -0.00092
84.6 -0.00259
84.65 -0.00357
84.7 -0.00438
84.75 -0.00534
84.8 -0.00575
84.85 -0.00599
84.9 -0.00501
84.95 -0.00309
85 -0.00159
85.05 -0.00135
85.1 -0.00144
85.15 -0.00227
85.2 -0.00222
85.25 -0.00223
85.3 -0.00194
85.35 -0.00088
85.4 0.00109
85.45 0.00147
85.5 0.00055
85.55 -0.00114
85.6 -0.00287
85.65 -0.00403
85.7 -0.00434
85.75 -0.00465
85.8 -0.00429
85.85 -0.00311
85.9 -0.00234
85.95 -0.0017
86 -0.00056
86.05 -0.00092
86.1 0.00008
86.15 0.00194
86.2 0.00385
86.25 0.00506
86.3 0.00455
86.35 0.00364
86.4 0.0021
86.45 0.00169
86.5 0.00091
86.55 0.00108
86.6 0.00153
86.65 0.00246
86.7 0.00233
86.75 0.00104
86.8 0.00127
86.85 0.00031
86.9 0.00016
86.95 0.00029
87 0.00019
87.05 0.00008
87.1 -0.00022
87.15 0.00061
87.2 0.0013
87.25 0.0021
87.3 0.00299
87.35 0.00318
87.4 0.00347
87.45 0.0037
87.5 0.00266
87.55 0.00236
87.6 0.00158
87.65 0.00022
87.7 -0.00006
87.75 0.00087
87.8 0.00094
87.85 0.00003
87.9 -0.00034
87.95 -0.00066
88 -0.00115
88.05 -0.00039
88.1 0.0002
88.15 -0.00044
88.2 -0.00081
88.25 -0.00016
88.3 0.00046
88.35 0.00131
88.4 0.00211
88.45 0.0021
88.5 0.0031
88.55 0.00376
88.6 0.00498
88.65 0.00645
88.7 0.00677
88.75 0.00615
88.8 0.00538
88.85 0.00477
88.9 0.00416
88.95 0.00385
89 0.00305
89.05 0.0017
89.1 0.00179
89.15 0.00249
89.2 0.00274
89.25 0.00164
89.3 -0.00035
89.35 -0.00183
89.4 -0.00264
89.45 -0.00306
89.5 -0.00258
89.55 -0.00102
89.6 -0.00047
89.65 0.00073
89.7 0.00126
89.75 0.00172
89.8 0.00088
89.85 0.00006
89.9 -0.00092
89.95 -0.00235
90 -0.00347
90.05 -0.00373
90.1 -0.00299
90.15 -0.002
90.2 -0.00247
90.25 -0.00331
90.3 -0.00351
90.35 -0.00366
90.4 -0.00283
90.45 -0.00226
90.5 -0.00093
90.55 -0.00036
90.6 -0.00018
90.65 -0.00106
90.7 -0.00125
90.75 -0.00169
90.8 -0.0031
90.85 -0.003
90.9 -0.00392
90.95 -0.00353
91 -0.00186
91.05 -0.00105
91.1 0.00065
91.15 0.00211
91.2 0.00267
91.25 0.00237
91.3 0.00314
91.35 0.00254
91.4 0.00224
91.45 0.00206
91.5 0.00167
91.55 0.00199
91.6 0.00128
91.65 0.00153
91.7 0.00139
91.75 0.00147
91.8 0.0008
91.85 0.00102
91.9 -0.00021
91.95 -0.00053
92 -0.00135
92.05 -0.00196
92.1 -0.00114
92.15 0.00053
92.2 0.00152
92.25 0.00202
92.3 0.00206
92.35 0.00275
92.4 0.00185
92.45 0.0007
92.5 0.00047
92.55 0.00122
92.6 0.00251
92.65 0.00286
92.7 0.00279
92.75 0.00305
92.8 0.00166
92.85 -0.00007
92.9 -0.0008
92.95 -0.00201
93 -0.00351
93.05 -0.00344
93.1 -0.00432
93.15 -0.00501
93.2 -0.00403
93.25 -0.00217
93.3 -0.00129
93.35 0.0003
93.4 0.00122
93.45 0.00149
93.5 0.00201
93.55 0.00316
93.6 0.00346
93.65 0.0034
93.7 0.00407
93.75 0.00364
93.8 0.00245
93.85 0.00133
93.9 0.00044
93.95 -0.00118
94 -0.00239
94.05 -0.00295
94.1 -0.00199
94.15 -0.0001
94.2 0.00202
94.25 0.00199
94.3 0.00169
94.35 0.00173
94.4 0.0024
94.45 0.00291
94.5 0.00209
94.55 0.00183
94.6 0.001
94.65 0.00003
94.7 -0.00189
94.75 -0.00307
94.8 -0.00478
94.85 -0.00563
94.9 -0.00534
94.95 -0.00566
95 -0.0049
95.05 -0.00443
95.1 -0.00385
95.15 -0.00392
95.2 -0.00441
95.25 -0.00368
95.3 -0.00377
95.35 -0.00383
95.4 -0.00431
95.45 -0.00519
95.5 -0.00502
95.55 -0.00548
95.6 -0.00449
95.65 -0.00299
95.7 -0.00157
95.75 -0.00129
95.8 -0.00075
95.85 -0.0008
95.9 0.0001
95.95 -0.00047
96 0.00022
96.05 0.00184
96.1 0.00308
96.15 0.00336
96.2 0.00388
96.25 0.00425
96.3 0.00327
96.35 0.0032
96.4 0.00274
96.45 0.00298
96.5 0.00177
96.55 -0.00022
96.6 -0.00104
96.65 -0.00257
96.7 -0.00263
96.75 -0.00262
96.8 -0.00352
96.85 -0.00477
96.9 -0.005
96.95 -0.00412
97 -0.00252
97.05 -0.0003
97.1 0.00054
97.15 0.00088
97.2 0.0009
97.25 0.00184
97.3 0.00291
97.35 0.00426
97.4 0.00534
97.45 0.00517
97.5 0.00536
97.55 0.00399
97.6 0.00202
97.65 0.00053
97.7 -0.00033
97.75 -0.00195
97.8 -0.00177
97.85 -0.00133
97.9 -0.00161
97.95 -0.00098
98 -0.00155
98.05 -0.00204
98.1 -0.00103
98.15 0.00085
98.2 0.00185
98.25 0.00156
98.3 0.00183
98.35 0.0019
98.4 0.00254
98.45 0.00267
98.5 0.00356
98.55 0.00456
98.6 0.00362
98.65 0.00294
98.7 0.00127
98.75 -0.00087
98.8 -0.00324
98.85 -0.00506
98.9 -0.00465
98.95 -0.00327
99 -0.00227
99.05 -0.00067
99.1 0.00027
99.15 0.00166
99.2 0.0013
99.25 0.00192
99.3 0.00276
99.35 0.00245
99.4 0.00162
99.45 0.00155
99.5 0.00114
99.55 0.00174
99.6 0.00075
99.65 0.00119
99.7 0.00151
99.75 0.00227
99.8 0.00222
99.85 0.00248
99.9 0.0021
99.95 0.00071
