0 0
0.05 0.00178
0.1 0.00459
0.15 0.00748
0.2 0.01046
0.25 0.0126
0.3 0.01468
0.35 0.01694
0.4 0.01915
0.45 0.01911
0.5 0.01739
0.55 0.0151
0.6 0.0123
0.65 0.01134
0.7 0.0097
0.75 0.0095
0.8 0.00844
0.85 0.00708
0.9 0.00713
0.95 0.00639
1 0.00596
1.05 0.00575
1.1 0.00715
1.15 0.00941
1.2 0.01205
1.25 0.01296
1.3 0.0139
1.35 0.01382
1.4 0.01365
1.45 0.0138
1.5 0.01398
1.55 0.01279
1.6 0.01195
1.65 0.01072
1.7 0.0094
1.75 0.00762
1.8 0.00668
1.85 0.0059
1.9 0.0047
1.95 0.00517
2 0.00552
2.05 0.007
2.1 0.00739
2.15 0.00727
2.2 0.00747
2.25 0.0072
2.3 0.0069
2.35 0.00639
2.4 0.00563
2.45 0.00619
2.5 0.00695
2.55 0.0085
2.6 0.00947
2.65 0.01013
2.7 0.00926
2.75 0.00932
2.8 0.00967
2.85 0.00848
2.9 0.00748
2.95 0.007
3 0.00587
3.05 0.00505
3.1 0.00539
3.15 0.00636
3.2 0.00809
3.25 0.00915
3.3 0.00981
3.35 0.009
3.4 0.00811
3.45 0.00674
3.5 0.00473
3.55 0.00389
3.6 0.00284
3.65 0.00182
3.7 0.0013
3.75 0.00228
3.8 0.00232
3.85 0.00323
3.9 0.00491
3.95 0.00632
4 0.00777
4.05 0.00817
4.1 0.00712
4.15 0.00729
4.2 0.00768
4.25 0.00674
4.3 0.00541
4.35 0.00482
4.4 0.00543
4.45 0.00526
4.5 0.0053
4.55 0.00446
4.6 0.00379
4.65 0.00257
4.7 0.00243
4.75 0.00247
4.8 0.00173
4.85 0.00042
4.9 -0.0004
4.95 -0.00028
5 -0.00025
5.05 -0.00043
5.1 -0.00131
5.15 -0.00097
5.2 -0.00025
5.25 0.00035
5.3 0.00169
5.35 0.00291
5.4 0.00255
5.45 0.00197
5.5 0.00058
5.55 0.00061
5.6 0.00158
5.65 0.00297
5.7 0.00482
5.75 0.00659
5.8 0.00814
5.85 0.00871
5.9 0.00836
5.95 0.00767
6 0.00793
6.05 0.00787
6.1 0.008
6.15 0.00694
6.2 0.00475
6.25 0.00316
6.3 0.00128
6.35 -0.00042
6.4 -0.00251
6.45 -0.00455
6.5 -0.00517
6.55 -0.0056
6.6 -0.00496
6.65 -0.00305
6.7 -0.00184
6.75 -0.00132
6.8 0.00029
6.85 0.00139
6.9 0.00191
6.95 0.00115
7 0.00136
7.05 0.00202
7.1 0.00194
7.15 0.00225
7.2 0.0025
7.25 0.00245
7.3 0.00137
7.35 0.00022
7.4 -0.00028
7.45 -0.00149
7.5 -0.00289
7.55 -0.00351
7.6 -0.00256
7.65 -0.00134
7.7 -0.0001
7.75 0.00032
7.8 0.00084
7.85 0.00169
7.9 0.00275
7.95 0.00245
8 0.00111
8.05 -0.00065
8.1 -0.00209
8.15 -0.00345
8.2 -0.00366
8.25 -0.0024
8.3 -0.00064
8.35 -0.00047
8.4 -0.00009
8.45 0.00042
8.5 0.0007
8.55 0.00021
8.6 0.00006
8.65 0.00047
8.7 0.0009
8.75 0.00226
8.8 0.00234
8.85 0.00316
8.9 0.00451
8.95 0.00542
9 0.00569
9.05 0.00559
9.1 0.00445
9.15 0.00401
9.2 0.00283
9.25 0.00137
9.3 0.00051
9.35 -0.00057
9.4 -0.00117
9.45 -0.00098
9.5 -0.00035
9.55 0.0011
9.6 0.00097
9.65 0.00118
9.7 0.00171
9.75 0.00177
9.8 0.00094
9.85 0.00159
9.9 0.00245
9.95 0.00377
10 0.00537
10.05 0.00573
10.1 0.00532
10.15 0.00514
10.2 0.00434
10.25 0.0039
10.3 0.00376
10.35 0.00249
10.4 0.00124
10.45 -0.00044
10.5 -0.00038
10.55 -0.00068
10.6 -0.00111
10.65 -0.00209
10.7 -0.00335
10.75 -0.00465
10.8 -0.00545
10.85 -0.00469
10.9 -0.00285
10.95 -0.0014
11 -0.00109
11.05 -0.00097
11.1 -0.00066
11.15 0.00011
11.2 -0.00036
11.25 -0.00139
11.3 -0.00205
11.35 -0.00332
11.4 -0.00349
11.45 -0.00383
11.5 -0.00426
11.55 -0.00288
11.6 -0.00164
11.65 -0.00158
11.7 -0.00051
11.75 0.00072
11.8 0.00045
11.85 0.00115
11.9 0.00238
11.95 0.00202
12 0.00196
12.05 0.00185
12.1 0.0018
12.15 0.00118
12.2 0.00026
12.25 0.00052
12.3 0.00177
12.35 0.0034
12.4 0.00434
12.45 0.00397
12.5 0.00425
12.55 0.00321
12.6 0.00157
12.65 0.00036
12.7 0.00037
12.75 -0.00058
12.8 -0.00096
12.85 -0.00189
12.9 -0.00126
12.95 0.00051
13 0.00218
13.05 0.00196
13.1 0.00178
13.15 0.00084
13.2 0.00085
13.25 -0.00002
13.3 -0.00167
13.35 -0.0022
13.4 -0.00165
13.45 -0.00208
13.5 -0.00237
13.55 -0.00252
13.6 -0.0033
13.65 -0.0044
13.7 -0.00478
13.75 -0.00355
13.8 -0.00185
13.85 -0.0003
13.9 -0.00019
13.95 -0.00073
14 0.00018
14.05 0.00147
14.1 0.00115
14.15 0.00114
14.2 0.00163
14.25 0.00239
14.3 0.00282
14.35 0.00254
14.4 0.00289
14.45 0.00379
14.5 0.00407
14.55 0.00488
14.6 0.00402
14.65 0.00204
14.7 0.00074
14.75 -0.00038
14.8 -0.00146
14.85 -0.00169
14.9 -0.00248
14.95 -0.0022
15 -0.00195
15.05 -0.00141
15.1 -0.00053
15.15 0.00016
15.2 0.00171
15.25 0.00141
15.3 0.00159
15.35 0.0023
15.4 0.00223
15.45 0.0019
15.5 0.00274
15.55 0.004
15.6 0.00377
15.65 0.00445
15.7 0.00412
15.75 0.00377
15.8 0.00314
15.85 0.00234
15.9 0.00184
15.95 0.00198
16 0.00226
16.05 0.00226
16.1 0.00298
16.15 0.00234
16.2 0.00229
16.25 0.00252
16.3 0.0034
16.35 0.00355
16.4 0.00355
16.45 0.00378
16.5 0.0039
16.55 0.00276
16.6 0.00066
16.65 -0.0014
16.7 -0.00278
16.75 -0.00309
16.8 -0.00357
16.85 -0.00283
16.9 -0.00172
16.95 -0.00124
17 -0.00142
17.05 -0.00224
17.1 -0.0029
17.15 -0.00317
17.2 -0.00281
17.25 -0.00188
17.3 -0.00097
17.35 -0.00142
17.4 -0.00128
17.45 -0.00083
17.5 -0.00168
17.55 -0.00187
17.6 -0.00179
17.65 -0.00073
17.7 -0.00101
17.75 -0.00101
17.8 -0.00212
17.85 -0.00193
17.9 -0.00238
17.95 -0.00284
18 -0.0029
18.05 -0.00239
18.1 -0.00146
18.15 0.00035
18.2 0.00111
18.25 0.00259
18.3 0.00246
18.35 0.00172
18.4 -0.00006
18.45 -0.00039
18.5 -0.00001
18.55 -0.00086
18.6 -0.00121
18.65 -0.0008
18.7 -0.00115
18.75 -0.00233
18.8 -0.00245
18.85 -0.00208
18.9 -0.00048
18.95 0.00078
19 0.00095
19.05 0.0008
19.1 0.00097
19.15 0.00213
19.2 0.00261
19.25 0.00343
19.3 0.00321
19.35 0.00323
19.4 0.00321
19.45 0.00238
19.5 0.00117
19.55 -0.00029
19.6 -0.00141
19.65 -0.00243
19.7 -0.00398
19.75 -0.00361
19.8 -0.00245
19.85 -0.00162
19.9 -0.00216
19.95 -0.00158
20 -0.00114
20.05 -0.0013
20.1 -0.00114
20.15 -0.0011
20.2 -0.00008
20.25 0.00081
20.3 0.00184
20.35 0.0016
20.4 0.00135
20.45 0.00152
20.5 0.00155
20.55 0.00264
20.6 0.00354
20.65 0.00285
20.7 0.00319
20.75 0.00228
20.8 0.00189
20.85 0.00114
20.9 0.00009
20.95 -0.00178
21 -0.00175
21.05 -0.00182
21.1 -0.00277
21.15 -0.00349
21.2 -0.00368
21.25 -0.00453
21.3 -0.00508
21.35 -0.00416
21.4 -0.00315
21.45 -0.00115
21.5 0.00024
21.55 0.00039
21.6 0.00077
21.65 -0.00022
21.7 -0.00133
21.75 -0.00107
21.8 -0.00063
21.85 0.00005
21.9 0.00081
21.95 0.00014
22 0.0007
22.05 0.00039
22.1 0.00051
22.15 -0.00029
22.2 -0.001
22.25 -0.00027
22.3 -0.0007
22.35 -0.00204
22.4 -0.00352
22.45 -0.00322
22.5 -0.00189
22.55 0.00023
22.6 0.00236
22.65 0.00254
22.7 0.00197
22.75 0.00139
22.8 0.00007
22.85 -0.00009
22.9 -0.0011
22.95 -0.00052
23 -0.00101
23.05 -0.00078
23.1 -0.00128
23.15 -0.00169
23.2 -0.00224
23.25 -0.00301
23.3 -0.00315
23.35 -0.00377
23.4 -0.00306
23.45 -0.00119
23.5 0.00093
23.55 0.00313
23.6 0.00392
23.65 0.00295
23.7 0.00138
23.75 -0.0007
23.8 -0.00306
23.85 -0.00397
23.9 -0.00402
23.95 -0.00279
24 -0.00117
24.05 -0.00009
24.1 0.00065
24.15 0.00061
24.2 -0.00022
24.25 -0.00073
24.3 -0.00007
24.35 -0.00036
24.4 0.00023
24.45 0.00134
24.5 0.00219
24.55 0.00296
24.6 0.00427
24.65 0.00561
24.7 0.00639
24.75 0.00649
24.8 0.00679
24.85 0.00676
24.9 0.00694
24.95 0.00701
25 0.00547
25.05 0.0034
25.1 0.00073
25.15 -0.0006
25.2 -0.00161
25.25 -0.00214
25.3 -0.00183
25.35 -0.00198
25.4 -0.00148
25.45 -0.00061
25.5 -0.0004
25.55 -0.00072
25.6 -0.00173
25.65 -0.00176
25.7 -0.00125
25.75 -0.00004
25.8 0.00002
25.85 0.0009
25.9 0.00056
25.95 -0.0005
26 -0.00026
26.05 0.001
26.1 0.00155
26.15 0.00169
26.2 0.00071
26.25 0.00081
26.3 0.00126
26.35 0.00166
26.4 0.00229
26.45 0.00294
26.5 0.00244
26.55 0.00259
26.6 0.00351
26.65 0.00292
26.7 0.00122
26.75 -0.00076
26.8 -0.002
26.85 -0.00227
26.9 -0.00161
26.95 -0.00127
27 -0.00116
27.05 -0.00121
27.1 -0.00198
27.15 -0.00204
27.2 -0.00179
27.25 -0.00129
27.3 -0.00012
27.35 0.0002
27.4 0.00104
27.45 0.002
27.5 0.00321
27.55 0.00422
27.6 0.00346
27.65 0.00345
27.7 0.00403
27.75 0.00354
27.8 0.00379
27.85 0.00373
27.9 0.00431
27.95 0.00361
28 0.0039
28.05 0.00303
28.1 0.00171
28.15 0.0016
28.2 0.00235
28.25 0.00157
28.3 0.00162
28.35 0.00254
28.4 0.00282
28.45 0.00338
28.5 0.00417
28.55 0.00535
28.6 0.0046
28.65 0.00445
28.7 0.0037
28.75 0.00201
28.8 -0.00002
28.85 -0.00079
28.9 -0.00235
28.95 -0.00302
29 -0.0022
29.05 -0.00245
29.1 -0.0023
29.15 -0.00198
29.2 -0.00068
29.25 -0.00061
29.3 -0.00178
29.35 -0.00166
29.4 -0.00102
29.45 -0.0013
29.5 -0.00179
29.55 -0.00087
29.6 -0.00133
29.65 -0.00214
29.7 -0.00331
29.75 -0.00334
29.8 -0.00234
29.85 -0.00225
29.9 -0.00308
29.95 -0.00245
30 -0.00272
30.05 -0.00239
30.1 -0.00311
30.15 -0.00339
30.2 -0.00364
30.25 -0.00474
30.3 -0.00477
30.35 -0.00506
30.4 -0.005
30.45 -0.00357
30.5 -0.00131
30.55 0.00126
30.6 0.00372
30.65 0.00474
30.7 0.0049
30.75 0.00557
30.8 0.00533
30.85 0.00567
30.9 0.00512
30.95 0.00384
31 0.002
31.05 -0.00027
31.1 -0.00144
31.15 -0.00196
31.2 -0.00118
31.25 -0.00155
31.3 -0.0006
31.35 -0.00097
31.4 -0.0019
31.45 -0.00206
31.5 -0.00256
31.55 -0.00175
31.6 -0.00158
31.65 -0.00061
31.7 0.00021
31.75 0.0016
31.8 0.00342
31.85 0.00437
31.9 0.00563
31.95 0.00686
32 0.00757
32.05 0.0073
32.1 0.00599
32.15 0.00528
32.2 0.00526
32.25 0.00545
32.3 0.00443
32.35 0.0041
32.4 0.00258
32.45 0.00185
32.5 0.00207
32.55 0.00178
32.6 0.00243
32.65 0.00361
32.7 0.00505
32.75 0.00548
32.8 0.00472
32.85 0.00406
32.9 0.00286
32.95 0.00129
33 0.00112
33.05 0.00159
33.1 0.00153
33.15 0.00185
33.2 0.00183
33.25 0.00133
33.3 -0.00051
33.35 -0.00298
33.4 -0.00506
33.45 -0.00608
33.5 -0.00732
33.55 -0.00787
33.6 -0.00816
33.65 -0.00727
33.7 -0.0056
33.75 -0.00382
33.8 -0.00174
33.85 0.00027
33.9 0.00054
33.95 0.00104
34 0.00099
34.05 0.00151
34.1 0.00214
34.15 0.00269
34.2 0.00282
34.25 0.00155
34.3 0.00141
34.35 0.00026
34.4 -0.00118
34.45 -0.00112
34.5 -0.00054
34.55 0.00007
34.6 0.00028
34.65 0.00045
34.7 0.00085
34.75 0.0008
34.8 -0.00039
34.85 -0.00014
34.9 -0.0013
34.95 -0.00202
35 -0.00357
35.05 -0.00477
35.1 -0.00512
35.15 -0.00486
35.2 -0.00382
35.25 -0.00251
35.3 -0.00267
35.35 -0.00335
35.4 -0.0034
35.45 -0.00376
35.5 -0.0035
35.55 -0.00405
35.6 -0.00312
35.65 -0.00351
35.7 -0.00272
35.75 -0.00172
35.8 -0.00175
35.85 -0.00208
35.9 -0.00146
35.95 -0.00093
36 -0.00143
36.05 -0.00063
36.1 -0.00134
36.15 -0.00298
36.2 -0.00314
36.25 -0.00259
36.3 -0.00216
36.35 -0.00187
36.4 -0.00042
36.45 0.00022
36.5 0.00039
36.55 0.00143
36.6 0.00197
36.65 0.0013
36.7 0.00126
36.75 0.00124
36.8 0.00204
36.85 0.0032
36.9 0.00464
36.95 0.0056
37 0.00481
37.05 0.00351
37.1 0.0028
37.15 0.00296
37.2 0.0023
37.25 0.00231
37.3 0.00193
37.35 0.00221
37.4 0.00145
37.45 0.0016
37.5 0.00043
37.55 0.00054
37.6 0.00013
37.65 0.00054
37.7 -0.00016
37.75 -0.00162
37.8 -0.0014
37.85 -0.00154
37.9 -0.00121
37.95 -0.00111
38 -0.00149
38.05 -0.00141
38.1 -0.00163
38.15 -0.00067
38.2 0.0004
38.25 0.00075
38.3 0.00135
38.35 0.00258
38.4 0.0022
38.45 0.00245
38.5 0.00139
38.55 0.00096
38.6 0.00041
38.65 -0.00109
38.7 -0.00237
38.75 -0.00345
38.8 -0.00419
38.85 -0.00522
38.9 -0.00444
38.95 -0.00343
39 -0.00346
39.05 -0.00383
39.1 -0.00435
39.15 -0.00464
39.2 -0.00538
39.25 -0.00649
39.3 -0.00791
39.35 -0.0074
39.4 -0.00534
39.45 -0.00296
39.5 -0.00119
39.55 -0.00031
39.6 -0.00083
39.65 -0.00204
39.7 -0.0021
39.75 -0.00282
39.8 -0.00227
39.85 -0.00155
39.9 -0.00179
39.95 -0.00103
40 0.00032
40.05 0.00026
40.1 0.00047
40.15 0.0014
40.2 0.00298
40.25 0.00374
40.3 0.00316
40.35 0.00129
40.4 -0.00071
40.45 -0.0008
40.5 0.00008
40.55 0.00042
40.6 0.0009
40.65 0.00025
40.7 0.00011
40.75 0.00067
40.8 0.00107
40.85 0.00031
40.9 0.00064
40.95 0.0007
41 0.00084
41.05 0.00098
41.1 0.00197
41.15 0.00224
41.2 0.00284
41.25 0.0035
41.3 0.00434
41.35 0.00507
41.4 0.00428
41.45 0.00264
41.5 0.00086
41.55 -0.00061
41.6 -0.00063
41.65 -0.00045
41.7 -0.00113
41.75 -0.00237
41.8 -0.00411
41.85 -0.00568
41.9 -0.00674
41.95 -0.00761
42 -0.00722
42.05 -0.00663
42.1 -0.00611
42.15 -0.00584
42.2 -0.00611
42.25 -0.00542
42.3 -0.00394
42.35 -0.00227
42.4 0.00001
42.45 0.00089
42.5 0.00223
42.55 0.00356
42.6 0.00425
42.65 0.00314
42.7 0.00101
42.75 0.00003
42.8 0.00023
42.85 0.00133
42.9 0.00173
42.95 0.0023
43 0.00166
43.05 0.00054
43.1 -0.0005
43.15 -0.00036
43.2 0.00059
43.25 0.00151
43.3 0.00106
43.35 0.00021
43.4 -0.00156
43.45 -0.00215
43.5 -0.00232
43.55 -0.00271
43.6 -0.00357
43.65 -0.00321
43.7 -0.0025
43.75 -0.00211
43.8 -0.00214
43.85 -0.00218
43.9 -0.00169
43.95 -0.00043
44 -0.00006
44.05 0.00037
44.1 0.00001
44.15 0.00057
44.2 0.0002
44.25 -0.00082
44.3 -0.00031
44.35 0.00035
44.4 0.00149
44.45 0.00104
44.5 0.00178
44.55 0.00089
44.6 0.00046
44.65 0.00053
44.7 -0.00006
44.75 0.0006
44.8 -0.00017
44.85 -0.00137
44.9 -0.00239
44.95 -0.0031
45 -0.00433
45.05 -0.00492
45.1 -0.00407
45.15 -0.00205
45.2 0.00009
45.25 0.0013
45.3 0.00273
45.35 0.00281
45.4 0.00188
45.45 0.00187
45.5 0.00282
45.55 0.0041
45.6 0.00422
45.65 0.00364
45.7 0.00205
45.75 0.00059
45.8 -0.00147
45.85 -0.00278
45.9 -0.0023
45.95 -0.00265
46 -0.00382
46.05 -0.00504
46.1 -0.00439
46.15 -0.00389
46.2 -0.00417
46.25 -0.00518
46.3 -0.00596
46.35 -0.00538
46.4 -0.00344
46.45 -0.00221
46.5 -0.00107
46.55 0.00032
46.6 0.00188
46.65 0.00374
46.7 0.0035
46.75 0.00347
46.8 0.0029
46.85 0.00168
46.9 0.00019
46.95 -0.00015
47 -0.00127
47.05 -0.00251
47.1 -0.00308
47.15 -0.00419
47.2 -0.00479
47.25 -0.00413
47.3 -0.00396
47.35 -0.0037
47.4 -0.00242
47.45 -0.00205
47.5 -0.0013
47.55 0.00006
47.6 0.0009
47.65 0.0019
47.7 0.00265
47.75 0.00189
47.8 0.00047
47.85 0.0001
47.9 -0.00065
47.95 -0.0003
48 -0.00115
48.05 -0.0007
48.1 0.00054
48.15 0.00025
48.2 0.00033
48.25 0.00141
48.3 0.00248
48.35 0.003
48.4 0.00228
48.45 0.00252
48.5 0.00248
48.55 0.00278
48.6 0.0022
48.65 0.00261
48.7 0.00358
48.75 0.00385
48.8 0.0041
48.85 0.00355
48.9 0.00218
48.95 0.00182
49 0.00176
49.05 0.00237
49.1 0.00256
49.15 0.00141
49.2 -0.00065
49.25 -0.00131
49.3 -0.0027
49.35 -0.0025
49.4 -0.00132
49.45 -0.00109
49.5 -0.00161
49.55 -0.00288
49.6 -0.0034
49.65 -0.00387
49.7 -0.00399
49.75 -0.00258
49.8 -0.00089
49.85 -0.00037
49.9 -0.00056
49.95 -0.00094
50 -0.00132
50.05 -0.00118
50.1 -0.00187
50.15 -0.00201
50.2 -0.00231
50.25 -0.00189
50.3 -0.00119
50.35 -0.001
50.4 -0.00197
50.45 -0.00235
50.5 -0.00154
50.55 -0.00101
50.6 -0.00038
50.65 0.00116
50.7 0.00299
50.75 0.00324
50.8 0.00343
50.85 0.0031
50.9 0.00226
50.95 0.00168
51 0.00089
51.05 0.00078
51.1 0.00047
51.15 0.00081
51.2 0.00159
51.25 0.001
51.3 0.00104
51.35 0.00105
51.4 0.00038
51.45 -0.00018
51.5 -0.00029
51.55 -0.00127
51.6 -0.00178
51.65 -0.00188
51.7 -0.00179
51.75 -0.00208
51.8 -0.00242
51.85 -0.00295
51.9 -0.00363
51.95 -0.00322
52 -0.0025
52.05 -0.00161
52.1 0.00003
52.15 0.00121
52.2 0.00137
52.25 0.00231
52.3 0.00344
52.35 0.00297
52.4 0.00159
52.45 0.00046
52.5 0.00064
52.55 0.00061
52.6 0.00043
52.65 0.00034
52.7 0.00108
52.75 0.00179
52.8 0.00216
52.85 0.00142
52.9 0.00065
52.95 -0.00072
53 -0.00167
53.05 -0.00316
53.1 -0.00375
53.15 -0.00455
53.2 -0.0054
53.25 -0.00534
53.3 -0.00403
53.35 -0.00222
53.4 0.00019
53.45 0.00232
53.5 0.00467
53.55 0.00526
53.6 0.00634
53.65 0.00633
53.7 0.00657
53.75 0.00517
53.8 0.0028
53.85 0.00086
53.9 -0.00073
53.95 -0.00167
54 -0.00307
54.05 -0.00468
54.1 -0.00584
54.15 -0.00665
54.2 -0.00745
54.25 -0.00687
54.3 -0.00509
54.35 -0.00315
54.4 -0.00093
54.45 0.00011
54.5 0.00044
54.55 0.00142
54.6 0.00161
54.65 0.00258
54.7 0.00397
54.75 0.00439
54.8 0.00329
54.85 0.00127
54.9 0.00008
54.95 -0.00182
55 -0.00254
55.05 -0.00399
55.1 -0.00506
55.15 -0.00517
55.2 -0.00475
55.25 -0.00439
55.3 -0.00477
55.35 -0.00427
55.4 -0.00237
55.45 -0.00026
55.5 0.00101
55.55 0.00144
55.6 0.00255
55.65 0.00266
55.7 0.00185
55.75 0.00037
55.8 0.00049
55.85 0.0014
55.9 0.00247
55.95 0.00291
56 0.0033
56.05 0.00344
56.1 0.00431
56.15 0.00438
56.2 0.00461
56.25 0.00462
56.3 0.00457
56.35 0.00331
56.4 0.00189
56.45 0.00121
56.5 0.00172
56.55 0.00108
56.6 0.00087
56.65 0.00145
56.7 0.00278
56.75 0.00258
56.8 0.00304
56.85 0.00212
56.9 0.00108
56.95 -0.00015
57 -0.00112
57.05 -0.00092
57.1 -0.00155
57.15 -0.0016
57.2 -0.00036
57.25 -0.00051
57.3 -0.00022
57.35 -0.00113
57.4 -0.00059
57.45 0.00092
57.5 0.00145
57.55 0.00191
57.6 0.00191
57.65 0.00284
57.7 0.00278
57.75 0.0025
57.8 0.00091
57.85 0.00005
57.9 -0.00117
57.95 -0.00215
58 -0.00179
58.05 -0.0023
58.1 -0.00181
58.15 -0.00208
58.2 -0.0018
58.25 -0.00251
58.3 -0.00318
58.35 -0.00315
58.4 -0.00233
58.45 -0.00223
58.5 -0.00208
58.55 -0.00249
58.6 -0.00182
58.65 -0.00117
58.7 -0.00118
58.75 -0.00216
58.8 -0.0018
58.85 -0.00221
58.9 -0.00267
58.95 -0.00306
59 -0.00307
59.05 -0.00371
59.1 -0.00272
59.15 -0.00143
59.2 -0.00071
59.25 -0.00021
59.3 0.00084
59.35 0.00031
59.4 0.00073
59.45 0.00024
59.5 -0.00017
59.55 -0.00034
59.6 -0.00102
59.65 -0.00051
59.7 0.00018
59.75 0.00023
59.8 -0.00081
59.85 -0.00253
59.9 -0.00268
59.95 -0.00156
60 -0.00162
60.05 -0.00103
60.1 0.0003
60.15 0.00192
60.2 0.00281
60.25 0.00396
60.3 0.00388
60.35 0.00377
60.4 0.0035
60.45 0.00371
60.5 0.00346
60.55 0.0035
60.6 0.00426
60.65 0.00428
60.7 0.00318
60.75 0.00285
60.8 0.00132
60.85 -0.00049
60.9 -0.0005
60.95 -0.00019
61 -0.0003
61.05 0.00051
61.1 0.0002
61.15 -0.00111
61.2 -0.00161
61.25 -0.00298
61.3 -0.00459
61.35 -0.00557
61.4 -0.00595
61.45 -0.00678
61.5 -0.00677
61.55 -0.00506
61.6 -0.0036
61.65 -0.00227
61.7 -0.00215
61.75 -0.00123
61.8 -0.00143
61.85 -0.00158
61.9 -0.00262
61.95 -0.00269
62 -0.00352
62.05 -0.00271
62.1 -0.0015
62.15 -0.00175
62.2 -0.00144
62.25 -0.00089
62.3 0.0001
62.35 0.00041
62.4 0.00043
62.45 0.00114
62.5 0.0025
62.55 0.00438
62.6 0.00533
62.65 0.00643
62.7 0.00704
62.75 0.0073
62.8 0.006
62.85 0.00524
62.9 0.00403
62.95 0.00282
63 0.00295
63.05 0.00296
63.1 0.00234
63.15 0.00247
63.2 0.00194
63.25 0.0006
63.3 -0.00102
63.35 -0.00092
63.4 0.00032
63.45 0.00017
63.5 -0.00001
63.55 0.00022
63.6 0.00029
63.65 0.00041
63.7 -0.00072
63.75 -0.00098
63.8 -0.00242
63.85 -0.00513
63.9 -0.00726
63.95 -0.00992
64 -0.01333
64.05 -0.01689
64.1 -0.01869
64.15 -0.02048
64.2 -0.02206
64.25 -0.0251
64.3 -0.02763
64.35 -0.0311
64.4 -0.03663
64.45 -0.04231
64.5 -0.05014
64.55 -0.0599
64.6 -0.06984
64.65 -0.08147
64.7 -0.09456
64.75 -0.10934
64.8 -0.12593
64.85 -0.14326
64.9 -0.16271
64.95 -0.18275
65 -0.20389
65.05 -0.22746
65.1 -0.25197
65.15 -0.27869
65.2 -0.30844
65.25 -0.33859
65.3 -0.37084
65.35 -0.40499
65.4 -0.44046
65.45 -0.47697
65.5 -0.51373
65.55 -0.54904
65.6 -0.58309
65.65 -0.61552
65.7 -0.64483
65.75 -0.67268
65.8 -0.6979
65.85 -0.71945
65.9 -0.73755
65.95 -0.75254
66 -0.76263
66.05 -0.76836
66.1 -0.76784
66.15 -0.76215
66.2 -0.75083
66.25 -0.73407
66.3 -0.7108
66.35 -0.682
66.4 -0.649
66.45 -0.61057
66.5 -0.56743
66.55 -0.52125
66.6 -0.4724
66.65 -0.42078
66.7 -0.36679
66.75 -0.31308
66.8 -0.25869
66.85 -0.20483
66.9 -0.15121
66.95 -0.09896
67 -0.04628
67.05 0.00594
67.1 0.05534
67.15 0.10312
67.2 0.14913
67.25 0.19109
67.3 0.23091
67.35 0.26822
67.4 0.30217
67.45 0.33369
67.5 0.3626
67.55 0.38702
67.6 0.40878
67.65 0.42939
67.7 0.44833
67.75 0.46593
67.8 0.4798
67.85 0.49158
67.9 0.50204
67.95 0.51109
68 0.51949
68.05 0.52662
68.1 0.5335
68.15 0.54036
68.2 0.54569
68.25 0.55046
68.3 0.55452
68.35 0.55788
68.4 0.56084
68.45 0.56412
68.5 0.56583
68.55 0.56743
68.6 0.56952
68.65 0.57092
68.7 0.57162
68.75 0.56977
68.8 0.56712
68.85 0.56246
68.9 0.55811
68.95 0.5527
69 0.5475
69.05 0.54195
69.1 0.53591
69.15 0.52946
69.2 0.52187
69.25 0.51208
69.3 0.50126
69.35 0.49119
69.4 0.48071
69.45 0.47067
69.5 0.45863
69.55 0.44615
69.6 0.43266
69.65 0.42012
69.7 0.40728
69.75 0.39571
69.8 0.38284
69.85 0.37011
69.9 0.35766
69.95 0.34404
70 0.33105
70.05 0.3192
70.1 0.30697
70.15 0.29469
70.2 0.2819
70.25 0.26907
70.3 0.25725
70.35 0.24533
70.4 0.23253
70.45 0.22144
70.5 0.21026
70.55 0.19929
70.6 0.18753
70.65 0.17603
70.7 0.16491
70.75 0.15465
70.8 0.14543
70.85 0.13648
70.9 0.12827
70.95 0.1195
71 0.11132
71.05 0.10233
71.1 0.09213
71.15 0.08158
71.2 0.07166
71.25 0.06146
71.3 0.05159
71.35 0.04336
71.4 0.03507
71.45 0.02809
71.5 0.02092
71.55 0.01289
71.6 0.00652
71.65 0.00118
71.7 -0.00426
71.75 -0.00964
71.8 -0.01616
71.85 -0.02338
71.9 -0.02966
71.95 -0.03484
72 -0.03965
72.05 -0.04444
72.1 -0.04822
72.15 -0.05129
72.2 -0.05483
72.25 -0.0579
72.3 -0.06028
72.35 -0.06309
72.4 -0.06512
72.45 -0.06837
72.5 -0.07078
72.55 -0.0744
72.6 -0.07707
72.65 -0.07906
72.7 -0.08004
72.75 -0.08157
72.8 -0.08317
72.85 -0.08608
72.9 -0.08761
72.95 -0.08819
73 -0.08799
73.05 -0.08881
73.1 -0.09038
73.15 -0.09229
73.2 -0.09307
73.25 -0.09362
73.3 -0.09312
73.35 -0.09247
73.4 -0.09358
73.45 -0.0943
73.5 -0.09606
73.55 -0.09739
73.6 -0.09695
73.65 -0.09602
73.7 -0.09555
73.75 -0.0953
73.8 -0.09375
73.85 -0.09239
73.9 -0.09134
73.95 -0.09161
74 -0.09265
74.05 -0.09319
74.1 -0.09208
74.15 -0.09163
74.2 -0.09165
74.25 -0.09183
74.3 -0.09143
74.35 -0.09026
74.4 -0.08943
74.45 -0.08768
74.5 -0.08476
74.55 -0.08239
74.6 -0.08048
74.65 -0.0799
74.7 -0.0782
74.75 -0.07572
74.8 -0.0732
74.85 -0.07079
74.9 -0.07023
74.95 -0.06907
75 -0.06743
75.05 -0.06658
75.1 -0.06534
75.15 -0.06504
75.2 -0.06517
75.25 -0.06568
75.3 -0.06606
75.35 -0.06715
75.4 -0.06714
75.45 -0.06613
75.5 -0.06426
75.55 -0.06215
75.6 -0.06005
75.65 -0.0578
75.7 -0.05687
75.75 -0.0561
75.8 -0.05583
75.85 -0.05547
75.9 -0.05578
75.95 -0.05668
76 -0.05801
76.05 -0.05864
76.1 -0.05734
76.15 -0.05649
76.2 -0.05479
76.25 -0.05237
76.3 -0.05135
76.35 -0.04999
76.4 -0.04877
76.45 -0.04791
76.5 -0.04623
76.55 -0.04583
76.6 -0.04595
76.65 -0.04557
76.7 -0.04383
76.75 -0.04207
76.8 -0.03963
76.85 -0.03778
76.9 -0.0367
76.95 -0.03668
77 -0.03676
77.05 -0.03751
77.1 -0.03862
77.15 -0.03844
77.2 -0.03829
77.25 -0.03702
77.3 -0.03663
77.35 -0.0352
77.4 -0.03398
77.45 -0.03393
77.5 -0.03276
77.55 -0.03202
77.6 -0.03273
77.65 -0.03312
77.7 -0.03349
77.75 -0.03332
77.8 -0.03239
77.85 -0.03087
77.9 -0.02942
77.95 -0.02796
78 -0.02713
78.05 -0.02744
78.1 -0.0272
78.15 -0.02602
78.2 -0.02484
78.25 -0.02346
78.3 -0.02215
78.35 -0.02053
78.4 -0.02014
78.45 -0.01959
78.5 -0.0185
78.55 -0.01829
78.6 -0.01845
78.65 -0.01793
78.7 -0.01903
78.75 -0.02095
78.8 -0.0229
78.85 -0.02478
78.9 -0.02615
78.95 -0.02717
79 -0.02842
79.05 -0.02878
79.1 -0.02816
79.15 -0.02673
79.2 -0.02479
79.25 -0.02373
79.3 -0.02379
79.35 -0.02438
79.4 -0.0237
79.45 -0.02307
79.5 -0.02341
79.55 -0.02371
79.6 -0.02443
79.65 -0.02397
79.7 -0.02276
79.75 -0.02196
79.8 -0.02017
79.85 -0.01912
79.9 -0.01737
79.95 -0.01533
80 -0.0139
80.05 -0.01184
80.1 -0.01089
80.15 -0.01163
80.2 -0.01314
80.25 -0.01394
80.3 -0.0142
80.35 -0.01313
80.4 -0.0133
80.45 -0.0145
80.5 -0.01501
80.55 -0.01535
80.6 -0.01498
80.65 -0.01517
80.7 -0.01556
80.75 -0.0158
80.8 -0.01585
80.85 -0.01551
80.9 -0.01401
80.95 -0.01268
81 -0.01197
81.05 -0.01219
81.1 -0.01274
81.15 -0.01257
81.2 -0.01224
81.25 -0.01278
81.3 -0.01378
81.35 -0.01464
81.4 -0.01566
81.45 -0.01549
81.5 -0.01477
81.55 -0.01345
81.6 -0.01209
81.65 -0.00991
81.7 -0.00822
81.75 -0.00664
81.8 -0.00504
81.85 -0.00423
81.9 -0.00328
81.95 -0.00206
82 -0.00118
82.05 -0.00003
82.1 0.00131
82.15 0.00124
82.2 0.00012
82.25 -0.00217
82.3 -0.00449
82.35 -0.00636
82.4 -0.00679
82.45 -0.00673
82.5 -0.00672
82.55 -0.0064
82.6 -0.00705
82.65 -0.00624
82.7 -0.00537
82.75 -0.00608
82.8 -0.00695
82.85 -0.00799
82.9 -0.00923
82.95 -0.01066
83 -0.01155
83.05 -0.01228
83.1 -0.01193
83.15 -0.01086
83.2 -0.00874
83.25 -0.00739
83.3 -0.00746
83.35 -0.0079
83.4 -0.00829
83.45 -0.0082
83.5 -0.0086
83.55 -0.00913
83.6 -0.00945
83.65 -0.01032
83.7 -0.00956
83.75 -0.00763
83.8 -0.00644
83.85 -0.00591
83.9 -0.00571
83.95 -0.00555
84 -0.00422
84.05 -0.004
84.1 -0.00306
84.15 -0.00255
84.2 -0.00306
84.25 -0.0031
84.3 -0.00232
84.35 -0.00186
84.4 -0.00282
84.45 -0.003
84.5 -0.00425
84.55 -0.00605
84.6 -0.0079
84.65 -0.00859
84.7 -0.00965
84.75 -0.00859
84.8 -0.00623
84.85 -0.00465
84.9 -0.00236
84.95 -0.00102
85 -0.00047
85.05 0.00085
85.1 0.00103
85.15 0.0011
85.2 0.00027
85.25 -0.00157
85.3 -0.00372
85.35 -0.00606
85.4 -0.00831
85.45 -0.00975
85.5 -0.00896
85.55 -0.00772
85.6 -0.00547
85.65 -0.00443
85.7 -0.00259
85.75 -0.0025
85.8 -0.00331
85.85 -0.00401
85.9 -0.00301
85.95 -0.00299
86 -0.00212
86.05 -0.00112
86.1 -0.00039
86.15 0.00082
86.2 0.00133
86.25 0.00175
86.3 0.00078
86.35 -0.00036
86.4 -0.00079
86.45 -0.00166
86.5 -0.0029
86.55 -0.00436
86.6 -0.00423
86.65 -0.00483
86.7 -0.00422
86.75 -0.00322
86.8 -0.00311
86.85 -0.00191
86.9 -0.00139
86.95 -0.00201
87 -0.00223
87.05 -0.00302
87.1 -0.00416
87.15 -0.0041
87.2 -0.00385
87.25 -0.00444
87.3 -0.00531
87.35 -0.0046
87.4 -0.00405
87.45 -0.00448
87.5 -0.00425
87.55 -0.00356
87.6 -0.0021
87.65 -0.0012
87.7 -0.00072
87.75 -0.00123
87.8 -0.00219
87.85 -0.00185
87.9 -0.00092
87.95 0.00035
88 0.00044
88.05 -0.0006
88.1 -0.00166
88.15 -0.00162
88.2 -0.00141
88.25 -0.00062
88.3 -0.00073
88.35 -0.00148
88.4 -0.00269
88.45 -0.00325
88.5 -0.00208
88.55 -0.00206
88.6 -0.0025
88.65 -0.00133
88.7 0.00014
88.75 0.002
88.8 0.00327
88.85 0.00434
88.9 0.0053
88.95 0.00488
89 0.0049
89.05 0.00413
89.1 0.00425
89.15 0.00364
89.2 0.00301
89.25 0.00245
89.3 0.00141
89.35 0.00109
89.4 0.00175
89.45 0.00083
89.5 -0.00046
89.55 -0.00159
89.6 -0.00179
89.65 -0.00216
89.7 -0.00234
89.75 -0.00184
89.8 -0.00096
89.85 0.00075
89.9 0.00289
89.95 0.00403
90 0.00368
90.05 0.0036
90.1 0.00267
90.15 0.00295
90.2 0.0037
90.25 0.00407
90.3 0.00335
90.35 0.00335
90.4 0.00222
90.45 0.00208
90.5 0.00107
90.55 0.0002
90.6 0.0007
90.65 0.00016
90.7 -0.00053
90.75 -0.00145
90.8 -0.00226
90.85 -0.00258
90.9 -0.00315
90.95 -0.00214
91 -0.00102
91.05 0.00006
91.1 -0.00031
91.15 0.00048
91.2 -0.00008
91.25 -0.00141
91.3 -0.00162
91.35 -0.00147
91.4 -0.00238
91.45 -0.00294
91.5 -0.00286
91.55 -0.00159
91.6 -0.00182
91.65 -0.00148
91.7 -0.0018
91.75 -0.00201
91.8 -0.00199
91.85 -0.00259
91.9 -0.00255
91.95 -0.0014
92 -0.00142
92.05 -0.00128
92.1 -0.00153
92.15 -0.00232
92.2 -0.00226
92.25 -0.00203
92.3 -0.00102
92.35 -0.0005
92.4 0.00003
92.45 0.00092
92.5 0.00143
92.55 0.00047
92.6 0.0003
92.65 0.00036
92.7 0.00157
92.75 0.0014
92.8 0.00091
92.85 0.00166
92.9 0.00238
92.95 0.00196
93 0.00167
93.05 0.00167
93.1 0.0024
93.15 0.00264
93.2 0.00183
93.25 0.00042
93.3 -0.00127
93.35 -0.0015
93.4 -0.00246
93.45 -0.00184
93.5 -0.00092
93.55 -0.00126
93.6 -0.0006
93.65 -0.00129
93.7 -0.00218
93.75 -0.00283
93.8 -0.00254
93.85 -0.00291
93.9 -0.00245
93.95 -0.00219
94 -0.00243
94.05 -0.00248
94.1 -0.00282
94.15 -0.00281
94.2 -0.0024
94.25 -0.00179
94.3 -0.00158
94.35 -0.00115
94.4 -0.00161
94.45 -0.0014
94.5 0.00003
94.55 -0.00021
94.6 -0.00116
94.65 -0.00173
94.7 -0.00084
94.75 -0.00082
94.8 -0.00177
94.85 -0.00164
94.9 -0.00212
94.95 -0.00218
95 -0.0029
95.05 -0.00201
95.1 -0.00128
95.15 -0.00038
95.2 0.00005
95.25 0.0014
95.3 0.00119
95.35 0.00059
95.4 0.00054
95.45 0.00015
95.5 -0.00032
95.55 -0.00089
95.6 -0.00009
95.65 0.00021
95.7 -0.0004
95.75 -0.00177
95.8 -0.00289
95.85 -0.00308
95.9 -0.00209
95.95 -0.00169
96 -0.00025
96.05 0.00094
96.1 0.002
96.15 0.00287
96.2 0.00413
96.25 0.00367
96.3 0.00376
96.35 0.00306
96.4 0.00276
96.45 0.00143
96.5 0.00155
96.55 0.0005
96.6 -0.00055
96.65 -0.00141
96.7 -0.00223
96.75 -0.00305
96.8 -0.00234
96.85 -0.00204
96.9 -0.00228
96.95 -0.0014
97 -0.00096
97.05 0.00021
97.1 0.002
97.15 0.00344
97.2 0.00297
97.25 0.00178
97.3 0.0008
97.35 0.00128
97.4 0.00048
97.45 0.00086
97.5 0.00033
97.55 0.00034
97.6 0.00054
97.65 -0.00055
97.7 -0.00215
97.75 -0.00195
97.8 -0.00225
97.85 -0.003
97.9 -0.00256
97.95 -0.00172
98 -0.00216
98.05 -0.00332
98.1 -0.00305
98.15 -0.00277
98.2 -0.00311
98.25 -0.00187
98.3 -0.00147
98.35 -0.00089
98.4 -0.00154
98.45 -0.00152
98.5 -0.00122
98.55 -0.00012
98.6 -0.00004
98.65 0.00088
98.7 0.00106
98.75 0.0006
98.8 0.00115
98.85 0.00144
98.9 0.00264
98.95 0.00418
99 0.00569
99.05 0.00682
99.1 0.00698
99.15 0.00592
99.2 0.00391
99.25 0.00124
99.3 0.00022
99.35 -0.0015
99.4 -0.00161
99.45 -0.00261
99.5 -0.00239
99.55 -0.00154
99.6 -0.00035
99.65 0.00047
99.7 0.0001
99.75 -0.00072
99.8 -0.0001
99.85 0.00042
99.9 0.00159
99.95 0.0024
