0 0
0.05 0.00086
0.1 0.00228
0.15 0.00483
0.2 0.00641
0.25 0.00747
0.3 0.00829
0.35 0.0085
0.4 0.0083
0.45 0.00746
0.5 0.00711
0.55 0.00691
0.6 0.00721
0.65 0.00675
0.7 0.0058
0.75 0.00663
0.8 0.0083
0.85 0.01044
0.9 0.01132
0.95 0.01173
1 0.01111
1.05 0.01147
1.1 0.01076
1.15 0.01081
1.2 0.0105
1.25 0.01121
1.3 0.01046
1.35 0.0105
1.4 0.01063
1.45 0.01113
1.5 0.01177
1.55 0.01273
1.6 0.01358
1.65 0.01468
1.7 0.01588
1.75 0.01518
1.8 0.01436
1.85 0.01425
1.9 0.01341
1.95 0.0124
2 0.01229
2.05 0.01274
2.1 0.01167
2.15 0.011
2.2 0.0106
2.25 0.01107
2.3 0.01086
2.35 0.01129
2.4 0.01197
2.45 0.01251
2.5 0.01297
2.55 0.01224
2.6 0.01138
2.65 0.01129
2.7 0.01125
2.75 0.01096
2.8 0.01128
2.85 0.01089
2.9 0.00944
2.95 0.00763
3 0.00565
3.05 0.00464
3.1 0.00439
3.15 0.00404
3.2 0.00369
3.25 0.00326
3.3 0.0039
3.35 0.00507
3.4 0.00569
3.45 0.0059
3.5 0.00519
3.55 0.00485
3.6 0.00433
3.65 0.00341
3.7 0.00237
3.75 0.00075
3.8 0.00001
3.85 -0.00049
3.9 0.00039
3.95 0.00196
4 0.00332
4.05 0.00311
4.1 0.00313
4.15 0.00292
4.2 0.00224
4.25 0.00141
4.3 0.00195
4.35 0.00281
4.4 0.00405
4.45 0.00477
4.5 0.00585
4.55 0.00557
4.6 0.00543
4.65 0.00585
4.7 0.00682
4.75 0.00633
4.8 0.006
4.85 0.00627
4.9 0.00644
4.95 0.00637
5 0.0069
5.05 0.00774
5.1 0.00737
5.15 0.00633
5.2 0.00487
5.25 0.00449
5.3 0.00503
5.35 0.00447
5.4 0.00373
5.45 0.00402
5.5 0.00391
5.55 0.00323
5.6 0.00239
5.65 0.00234
5.7 0.00137
5.75 0.00034
5.8 0.00031
5.85 -0.00005
5.9 -0.0011
5.95 -0.00131
6 -0.00119
6.05 -0.00125
6.1 -0.00211
6.15 -0.00205
6.2 -0.00245
6.25 -0.00141
6.3 -0.00079
6.35 -0.00119
6.4 -0.00221
6.45 -0.00348
6.5 -0.00396
6.55 -0.00331
6.6 -0.00237
6.65 -0.00063
6.7 0.0014
6.75 0.00334
6.8 0.00467
6.85 0.00599
6.9 0.0066
6.95 0.00675
7 0.00662
7.05 0.00582
7.1 0.00404
7.15 0.00354
7.2 0.00269
7.25 0.00183
7.3 0.00141
7.35 0.00038
7.4 -0.00003
7.45 -0.00064
7.5 -0.00052
7.55 0.00007
7.6 -0.00001
7.65 0.0006
7.7 0.00158
7.75 0.00104
7.8 0.00154
7.85 0.00139
7.9 0.00031
7.95 -0.00024
8 0.00015
8.05 0.00112
8.1 0.00179
8.15 0.00104
8.2 0.00147
8.25 0.00114
8.3 0.00018
8.35 -0.00074
8.4 -0.00043
8.45 -0.00073
8.5 0.00017
8.55 0.00078
8.6 0.0006
8.65 -0.00052
8.7 -0.0022
8.75 -0.00326
8.8 -0.00356
8.85 -0.00331
8.9 -0.00287
8.95 -0.00242
9 -0.00293
9.05 -0.0029
9.1 -0.00265
9.15 -0.00235
9.2 -0.00181
9.25 -0.00163
9.3 -0.0006
9.35 0.00101
9.4 0.00099
9.45 0.00069
9.5 0.00013
9.55 -0.00034
9.6 -0.00142
9.65 -0.00196
9.7 -0.00178
9.75 -0.00248
9.8 -0.00373
9.85 -0.00511
9.9 -0.00486
9.95 -0.0033
10 -0.0019
10.05 0.00025
10.1 0.00215
10.15 0.00277
10.2 0.00378
10.25 0.00336
10.3 0.00261
10.35 0.00169
10.4 -0.00007
10.45 -0.00191
10.5 -0.00256
10.55 -0.00316
10.6 -0.00396
10.65 -0.00379
10.7 -0.00235
10.75 -0.00111
10.8 -0.00071
10.85 0.0005
10.9 0.00135
10.95 0.0026
11 0.00215
11.05 0.00152
11.1 0.00195
11.15 0.00104
11.2 -0.00056
11.25 -0.0024
11.3 -0.00307
11.35 -0.00413
11.4 -0.00338
11.45 -0.003
11.5 -0.00278
11.55 -0.00242
11.6 -0.00135
11.65 -0.00142
11.7 -0.00082
11.75 -0.00066
11.8 0.00035
11.85 0.00203
11.9 0.00244
11.95 0.00361
12 0.00397
12.05 0.00323
12.1 0.003
12.15 0.00355
12.2 0.00359
12.25 0.0031
12.3 0.00159
12.35 0.00134
12.4 0.00005
12.45 -0.00082
12.5 -0.00038
12.55 -0.00101
12.6 -0.00092
12.65 -0.00084
12.7 -0.00028
12.75 0.00029
12.8 0.00134
12.85 0.00136
12.9 0.00128
12.95 0.00051
13 -0.00059
13.05 -0.00137
13.1 -0.0025
13.15 -0.00261
13.2 -0.00281
13.25 -0.00354
13.3 -0.00314
13.35 -0.00225
13.4 -0.00165
13.45 -0.00068
13.5 0.00052
13.55 0.00034
13.6 0.00106
13.65 0.00118
13.7 0.00158
13.75 0.00145
13.8 0.00112
13.85 0.00095
13.9 0.00035
13.95 0.00103
14 0.00201
14.05 0.00217
14.1 0.00131
14.15 0.00047
14.2 0.00063
14.25 0.00117
14.3 0.00116
14.35 0.00016
14.4 -0.00145
14.45 -0.00183
14.5 -0.00149
14.55 -0.00066
14.6 0.00048
14.65 0.00187
14.7 0.00296
14.75 0.0024
14.8 0.00248
14.85 0.00311
14.9 0.0038
14.95 0.00357
15 0.00332
15.05 0.00199
15.1 0.00075
15.15 -0.00024
15.2 -0.00041
15.25 -0.00128
15.3 -0.0013
15.35 -0.00123
15.4 -0.00141
15.45 -0.00239
15.5 -0.00201
15.55 -0.00132
15.6 -0.00059
15.65 -0.00033
15.7 -0.00093
15.75 -0.00069
15.8 0.00032
15.85 0.00168
15.9 0.00267
15.95 0.00211
16 0.00148
16.05 0.002
16.1 0.00191
16.15 0.00179
16.2 0.00168
16.25 0.0016
16.3 0.00124
16.35 -0.00003
16.4 0.00008
16.45 -0.00016
16.5 0.00055
16.55 0.00119
16.6 0.00183
16.65 0.00244
16.7 0.00162
16.75 0.00073
16.8 0.00101
16.85 0.00203
16.9 0.00179
16.95 0.0006
17 0.00016
17.05 -0.00035
17.1 -0.00138
17.15 -0.0015
17.2 -0.00115
17.25 -0.0008
17.3 -0.00053
17.35 -0.00047
17.4 0.00024
17.45 0.00131
17.5 0.00136
17.55 0.00198
17.6 0.00259
17.65 0.00179
17.7 0.00067
17.75 -0.00066
17.8 -0.00137
17.85 -0.00162
17.9 -0.0024
17.95 -0.00202
18 -0.00166
18.05 -0.00235
18.1 -0.00324
18.15 -0.0026
18.2 -0.00161
18.25 -0.00177
18.3 -0.00169
18.35 -0.00121
18.4 -0.0005
18.45 0.00049
18.5 0.00029
18.55 0.00016
18.6 -0.00045
18.65 -0.00092
18.7 -0.00095
18.75 -0.0013
18.8 -0.00095
18.85 -0.00014
18.9 0.00067
18.95 0.00028
19 -0.00002
19.05 0.00043
19.1 0.00172
19.15 0.00333
19.2 0.00408
19.25 0.00484
19.3 0.00516
19.35 0.00396
19.4 0.00285
19.45 0.00233
19.5 0.00098
19.55 0.00016
19.6 -0.00132
19.65 -0.0031
19.7 -0.00438
19.75 -0.00518
19.8 -0.00552
19.85 -0.00499
19.9 -0.00334
19.95 -0.00268
20 -0.00129
20.05 0.00024
20.1 0.00173
20.15 0.00182
20.2 0.0009
20.25 -0.00063
20.3 -0.00173
20.35 -0.00299
20.4 -0.00341
20.45 -0.00234
20.5 -0.0023
20.55 -0.00165
20.6 -0.00202
20.65 -0.00212
20.7 -0.00104
20.75 0.00034
20.8 0.00038
20.85 -0.00052
20.9 -0.00165
20.95 -0.00289
21 -0.00369
21.05 -0.00369
21.1 -0.00278
21.15 -0.00113
21.2 -0.00024
21.25 0
21.3 0.00009
21.35 -0.00042
21.4 -0.00116
21.45 -0.00206
21.5 -0.00341
21.55 -0.00314
21.6 -0.00294
21.65 -0.00247
21.7 -0.00259
21.75 -0.00194
21.8 -0.00175
21.85 -0.00098
21.9 -0.00114
21.95 -0.00162
22 -0.00096
22.05 -0.00017
22.1 0.00019
22.15 0.0009
22.2 0.0018
22.25 0.00231
22.3 0.0035
22.35 0.00426
22.4 0.00515
22.45 0.0056
22.5 0.00456
22.55 0.00342
22.6 0.00315
22.65 0.00187
22.7 0.00084
22.75 0.00077
22.8 0.00079
22.85 -0.00025
22.9 -0.00036
22.95 -0.00121
23 -0.0007
23.05 -0.00042
23.1 -0.0011
23.15 -0.00108
23.2 -0.0016
23.25 -0.00257
23.3 -0.00249
23.35 -0.00308
23.4 -0.00419
23.45 -0.00489
23.5 -0.00398
23.55 -0.00283
23.6 -0.00245
23.65 -0.00111
23.7 0.00024
23.75 0.00165
23.8 0.00264
23.85 0.00247
23.9 0.00289
23.95 0.0034
24 0.00439
24.05 0.00525
24.1 0.00453
24.15 0.00278
24.2 0.00045
24.25 -0.00068
24.3 -0.00066
24.35 -0.0008
24.4 0.00028
24.45 0.00032
24.5 0.00074
24.55 0.00184
24.6 0.00274
24.65 0.00382
24.7 0.0042
24.75 0.00446
24.8 0.00525
24.85 0.00578
24.9 0.00453
24.95 0.00255
25 0.00033
25.05 -0.00116
25.1 -0.00244
25.15 -0.00317
25.2 -0.00333
25.25 -0.00238
25.3 -0.00055
25.35 0.00026
25.4 -0.00017
25.45 -0.00026
25.5 0.00018
25.55 0.001
25.6 0.002
25.65 0.00273
25.7 0.00387
25.75 0.00504
25.8 0.00577
25.85 0.0055
25.9 0.0056
25.95 0.00515
26 0.00382
26.05 0.00358
26.1 0.002
26.15 0.00017
26.2 -0.00149
26.25 -0.00216
26.3 -0.00304
26.35 -0.00416
26.4 -0.00427
26.45 -0.00458
26.5 -0.00385
26.55 -0.00383
26.6 -0.00279
26.65 -0.0029
26.7 -0.00318
26.75 -0.00266
26.8 -0.00209
26.85 -0.00175
26.9 -0.00099
26.95 0.00041
27 0.00077
27.05 0.00099
27.1 0.00036
27.15 0.00021
27.2 -0.00049
27.25 -0.00082
27.3 -0.00158
27.35 -0.00201
27.4 -0.00244
27.45 -0.00203
27.5 -0.00096
27.55 0.00019
27.6 0.00014
27.65 -0.00049
27.7 -0.00057
27.75 -0.0014
27.8 -0.00208
27.85 -0.00213
27.9 -0.00281
27.95 -0.00236
28 -0.00159
28.05 -0.00087
28.1 -0.00026
28.15 -0.00082
28.2 -0.00137
28.25 -0.00171
28.3 -0.0018
28.35 -0.00181
28.4 -0.0015
28.45 -0.00093
28.5 -0.00138
28.55 -0.00249
28.6 -0.00251
28.65 -0.0026
28.7 -0.00335
28.75 -0.00408
28.8 -0.00454
28.85 -0.00412
28.9 -0.00423
28.95 -0.00497
29 -0.00411
29.05 -0.004
29.1 -0.00291
29.15 -0.00189
29.2 -0.00127
29.25 0.00004
29.3 0.00184
29.35 0.00383
29.4 0.00459
29.45 0.00579
29.5 0.0063
29.55 0.00566
29.6 0.00587
29.65 0.00559
29.7 0.00549
29.75 0.0047
29.8 0.00365
29.85 0.00374
29.9 0.00371
29.95 0.00411
30 0.00457
30.05 0.00385
30.1 0.00253
30.15 0.00072
30.2 -0.00105
30.25 -0.00216
30.3 -0.002
30.35 -0.00125
30.4 -0.00176
30.45 -0.00147
30.5 -0.00219
30.55 -0.00166
30.6 -0.00154
30.65 -0.00204
30.7 -0.00314
30.75 -0.0046
30.8 -0.00614
30.85 -0.00654
30.9 -0.00682
30.95 -0.00654
31 -0.00594
31.05 -0.00594
31.1 -0.00535
31.15 -0.00532
31.2 -0.00397
31.25 -0.00227
31.3 -0.00183
31.35 -0.00052
31.4 0.00021
31.45 0.001
31.5 0.00092
31.55 0.00036
31.6 -0.00059
31.65 -0.00087
31.7 -0.00136
31.75 -0.00245
31.8 -0.00302
31.85 -0.00329
31.9 -0.00396
31.95 -0.00296
32 -0.00227
32.05 -0.00157
32.1 -0.00123
32.15 0.00001
32.2 0.00178
32.25 0.00383
32.3 0.00453
32.35 0.00479
32.4 0.00496
32.45 0.0047
32.5 0.00464
32.55 0.00385
32.6 0.00211
32.65 0.00131
32.7 0.00086
32.75 0.00088
32.8 0.00071
32.85 -0.00047
32.9 -0.00195
32.95 -0.00323
33 -0.00451
33.05 -0.00411
33.1 -0.00265
33.15 -0.00102
33.2 0.00054
33.25 0.00202
33.3 0.0031
33.35 0.00274
33.4 0.0031
33.45 0.0041
33.5 0.00457
33.55 0.00379
33.6 0.00199
33.65 0.00147
33.7 0.00193
33.75 0.00219
33.8 0.00174
33.85 0.00115
33.9 0.0004
33.95 0.00014
34 -0.00028
34.05 -0.00141
34.1 -0.00255
34.15 -0.00261
34.2 -0.00268
34.25 -0.00342
34.3 -0.00385
34.35 -0.00383
34.4 -0.00316
34.45 -0.00188
34.5 -0.00185
34.55 -0.00266
34.6 -0.00225
34.65 -0.00097
34.7 -0.00106
34.75 -0.00141
34.8 -0.00189
34.85 -0.00185
34.9 -0.00122
34.95 -0.00061
35 0.00086
35.05 0.00246
35.1 0.00413
35.15 0.00569
35.2 0.0067
35.25 0.00693
35.3 0.00614
35.35 0.00569
35.4 0.00419
35.45 0.00248
35.5 0.00198
35.55 0.0009
35.6 -0.00011
35.65 -0.00013
35.7 0.00053
35.75 0.00025
35.8 -0.00025
35.85 0.00047
35.9 0.00078
35.95 0.00169
36 0.00254
36.05 0.00366
36.1 0.00474
36.15 0.00577
36.2 0.0049
36.25 0.00485
36.3 0.00514
36.35 0.00447
36.4 0.0041
36.45 0.00372
36.5 0.00382
36.55 0.00414
36.6 0.00484
36.65 0.00411
36.7 0.00224
36.75 -0.00013
36.8 -0.00243
36.85 -0.00455
36.9 -0.0051
36.95 -0.00511
37 -0.00369
37.05 -0.00331
37.1 -0.0027
37.15 -0.00235
37.2 -0.00176
37.25 -0.00169
37.3 -0.00065
37.35 0.00103
37.4 0.00199
37.45 0.00133
37.5 0.00184
37.55 0.00231
37.6 0.00224
37.65 0.00194
37.7 0.00147
37.75 0.00184
37.8 0.00165
37.85 0.00059
37.9 0.00047
37.95 -0.00032
38 -0.00111
38.05 -0.00106
38.1 -0.00108
38.15 -0.00092
38.2 -0.00187
38.25 -0.00181
38.3 -0.00272
38.35 -0.00259
38.4 -0.0028
38.45 -0.00382
38.5 -0.0037
38.55 -0.00433
38.6 -0.00531
38.65 -0.00535
38.7 -0.0046
38.75 -0.00292
38.8 -0.00131
38.85 -0.00091
38.9 -0.00066
38.95 -0.00131
39 -0.00126
39.05 -0.00146
39.1 -0.00238
39.15 -0.00308
39.2 -0.00399
39.25 -0.00382
39.3 -0.00289
39.35 -0.00179
39.4 -0.00198
39.45 -0.00223
39.5 -0.00183
39.55 -0.00248
39.6 -0.00346
39.65 -0.00435
39.7 -0.0046
39.75 -0.00407
39.8 -0.00244
39.85 -0.00214
39.9 -0.00197
39.95 -0.0018
40 -0.00147
40.05 -0.00029
40.1 0.00074
40.15 0.00099
40.2 0.00188
40.25 0.0031
40.3 0.00327
40.35 0.00233
40.4 0.00052
40.45 -0.00104
40.5 -0.0015
40.55 -0.00185
40.6 -0.00278
40.65 -0.00327
40.7 -0.00411
40.75 -0.00465
40.8 -0.00438
40.85 -0.00391
40.9 -0.00256
40.95 -0.00099
41 0.00011
41.05 0.00017
41.1 0.0008
41.15 0.00206
41.2 0.00376
41.25 0.00387
41.3 0.00418
41.35 0.00335
41.4 0.00272
41.45 0.00274
41.5 0.00253
41.55 0.00164
41.6 0.00072
41.65 -0.00026
41.7 -0.00028
41.75 -0.00059
41.8 -0.00102
41.85 -0.00084
41.9 -0.0003
41.95 0.00023
42 0.00057
42.05 -0.00017
42.1 -0.00073
42.15 -0.00185
42.2 -0.00164
42.25 -0.00214
42.3 -0.00231
42.35 -0.00244
42.4 -0.00318
42.45 -0.00236
42.5 -0.00163
42.55 -0.00142
42.6 -0.00004
42.65 0.00109
42.7 0.00162
42.75 0.00113
42.8 0.00002
42.85 0.00037
42.9 0.00003
42.95 -0.00051
43 -0.00177
43.05 -0.00211
43.1 -0.0016
43.15 -0.00007
43.2 0.00099
43.25 0.00232
43.3 0.0029
43.35 0.0024
43.4 0.00103
43.45 -0.00064
43.5 -0.00115
43.55 -0.00224
43.6 -0.00177
43.65 -0.00158
43.7 -0.00072
43.75 -0.00073
43.8 -0.00095
43.85 -0.00158
43.9 -0.00194
43.95 -0.00144
44 -0.00148
44.05 -0.0021
44.1 -0.0023
44.15 -0.00229
44.2 -0.00128
44.25 -0.00038
44.3 0.00105
44.35 0.00144
44.4 0.00173
44.45 0.00113
44.5 0.00182
44.55 0.00109
44.6 0.00139
44.65 0.00088
44.7 -0.00031
44.75 -0.00071
44.8 -0.00046
44.85 0.00018
44.9 0.00118
44.95 0.00088
45 0.00175
45.05 0.00171
45.1 0.00261
45.15 0.0037
45.2 0.00314
45.25 0.00191
45.3 0.00119
45.35 0.00113
45.4 0.00066
45.45 0.00096
45.5 0.0009
45.55 0.00159
45.6 0.00222
45.65 0.00227
45.7 0.00108
45.75 0.00099
45.8 0.00194
45.85 0.0031
45.9 0.00451
45.95 0.00449
46 0.00331
46.05 0.00259
46.1 0.00221
46.15 0.0025
46.2 0.00228
46.25 0.00168
46.3 0.00008
46.35 -0.00193
46.4 -0.00377
46.45 -0.00439
46.5 -0.00388
46.55 -0.00285
46.6 -0.00125
46.65 -0.00068
46.7 0.00053
46.75 0.00039
46.8 0.00094
46.85 0.00076
46.9 0.00128
46.95 0.00138
47 0.00197
47.05 0.00158
47.1 0.00079
47.15 0.00111
47.2 0.00169
47.25 0.00226
47.3 0.0027
47.35 0.00328
47.4 0.00238
47.45 0.00116
47.5 0.00047
47.55 -0.00046
47.6 -0.00023
47.65 0.00041
47.7 0.00165
47.75 0.00218
47.8 0.00274
47.85 0.00309
47.9 0.00258
47.95 0.00279
48 0.00259
48.05 0.00172
48.1 0.00197
48.15 0.00232
48.2 0.00243
48.25 0.00209
48.3 0.00202
48.35 0.00227
48.4 0.00256
48.45 0.00156
48.5 0.00089
48.55 0.00103
48.6 0.00083
48.65 0.00018
48.7 -0.00087
48.75 -0.00203
48.8 -0.00333
48.85 -0.00386
48.9 -0.0044
48.95 -0.00488
49 -0.00507
49.05 -0.0052
49.1 -0.00538
49.15 -0.00467
49.2 -0.00335
49.25 -0.00124
49.3 0.00052
49.35 0.00076
49.4 0.00035
49.45 0.0007
49.5 0.00099
49.55 0.00138
49.6 0.00068
49.65 -0.0005
49.7 -0.0021
49.75 -0.0025
49.8 -0.00297
49.85 -0.00344
49.9 -0.00311
49.95 -0.00272
50 -0.00231
50.05 -0.001
50.1 0.00034
50.15 0.00025
50.2 -0.00034
50.25 -0.00055
50.3 -0.00076
50.35 -0.00114
50.4 -0.00135
50.45 -0.0004
50.5 0.00068
50.55 0.00205
50.6 0.00289
50.65 0.00284
50.7 0.00286
50.75 0.00337
50.8 0.0024
50.85 0.00234
50.9 0.00302
50.95 0.003
51 0.00275
51.05 0.00168
51.1 0.00132
51.15 0.0007
51.2 0.00098
51.25 0.00186
51.3 0.00122
51.35 0.0003
51.4 -0.00083
51.45 -0.00081
51.5 -0.00098
51.55 -0.00049
51.6 -0.00087
51.65 -0.00127
51.7 -0.00139
51.75 -0.00105
51.8 -0.00103
51.85 -0.00038
51.9 -0.00008
51.95 0.0004
52 0.00045
52.05 0.00118
52.1 0.0024
52.15 0.00351
52.2 0.00281
52.25 0.003
52.3 0.00294
52.35 0.00318
52.4 0.00199
52.45 0.00195
52.5 0.00143
52.55 0.00042
52.6 -0.00125
52.65 -0.00188
52.7 -0.00157
52.75 -0.00201
52.8 -0.00128
52.85 -0.0014
52.9 -0.00041
52.95 0.00011
53 -0.00059
53.05 -0.00019
53.1 -0.00016
53.15 0.0004
53.2 0.00007
53.25 -0.00052
53.3 0.00011
53.35 0.0011
53.4 0.00083
53.45 0.00155
53.5 0.00185
53.55 0.00081
53.6 -0.00025
53.65 -0.00153
53.7 -0.00307
53.75 -0.00404
53.8 -0.00354
53.85 -0.00234
53.9 -0.00162
53.95 -0.00089
54 0.00001
54.05 -0.00037
54.1 0.00031
54.15 0.00018
54.2 0.0002
54.25 -0.00053
54.3 -0.00008
54.35 -0.00072
54.4 -0.00047
54.45 -0.00119
54.5 -0.00078
54.55 0.00039
54.6 0.0004
54.65 -0.0003
54.7 -0.00183
54.75 -0.00241
54.8 -0.00178
54.85 -0.00139
54.9 -0.00069
54.95 -0.00005
55 0.00031
55.05 0.00047
55.1 0.00005
55.15 -0.00051
55.2 -0.00105
55.25 -0.00152
55.3 -0.00103
55.35 -0.00116
55.4 -0.00162
55.45 -0.00207
55.5 -0.00219
55.55 -0.00208
55.6 -0.0013
55.65 -0.00143
55.7 -0.00109
55.75 -0.00146
55.8 -0.00128
55.85 -0.00105
55.9 -0.00024
55.95 0.00017
56 -0.00064
56.05 -0.00139
56.1 -0.00229
56.15 -0.00323
56.2 -0.00252
56.25 -0.00228
56.3 -0.00207
56.35 -0.00097
56.4 0.00089
56.45 0.00221
56.5 0.0032
56.55 0.00446
56.6 0.0049
56.65 0.00437
56.7 0.00429
56.75 0.00339
56.8 0.00322
56.85 0.00281
56.9 0.00118
56.95 0.00006
57 -0.00028
57.05 -0.00077
57.1 -0.00028
57.15 0.00088
57.2 0.00068
57.25 0.00111
57.3 0.00211
57.35 0.0031
57.4 0.00251
57.45 0.00128
57.5 0.00138
57.55 0.00057
57.6 -0.00036
57.65 -0.00015
57.7 -0.00095
57.75 -0.00056
57.8 -0.00055
57.85 0.00017
57.9 -0.00007
57.95 -0.00081
58 -0.00046
58.05 -0.00046
58.1 0.0006
58.15 0.00022
58.2 -0.00043
58.25 -0.00045
58.3 -0.00045
58.35 -0.00114
58.4 -0.00065
58.45 -0.00104
58.5 -0.0004
58.55 0.00032
58.6 0.00069
58.65 0.00139
58.7 0.00088
58.75 0.00075
58.8 0.0002
58.85 -0.00037
58.9 -0.00022
58.95 0.00021
59 0.00015
59.05 0.00102
59.1 0.00036
59.15 -0.00005
59.2 -0.00121
59.25 -0.00097
59.3 -0.00184
59.35 -0.00237
59.4 -0.00249
59.45 -0.00331
59.5 -0.00301
59.55 -0.00211
59.6 -0.00137
59.65 -0.00025
59.7 0.00129
59.75 0.0016
59.8 0.00106
59.85 0.00157
59.9 0.00257
59.95 0.00329
60 0.00436
60.05 0.00517
60.1 0.00558
60.15 0.00535
60.2 0.00369
60.25 0.00309
60.3 0.00345
60.35 0.00394
60.4 0.00379
60.45 0.00367
60.5 0.00335
60.55 0.00363
60.6 0.00316
60.65 0.00318
60.7 0.00212
60.75 0.00024
60.8 -0.00039
60.85 -0.00007
60.9 0.0007
60.95 0.0006
61 -0.00063
61.05 -0.00076
61.1 -0.00139
61.15 -0.00141
61.2 -0.00237
61.25 -0.002
61.3 -0.00084
61.35 0.00006
61.4 0.00146
61.45 0.00253
61.5 0.00388
61.55 0.00535
61.6 0.00549
61.65 0.00474
61.7 0.00405
61.75 0.00313
61.8 0.00268
61.85 0.00295
61.9 0.00254
61.95 0.0018
62 0.00028
62.05 0.00004
62.1 -0.0013
62.15 -0.00288
62.2 -0.00407
62.25 -0.00529
62.3 -0.00684
62.35 -0.00685
62.4 -0.00722
62.45 -0.00799
62.5 -0.00882
62.55 -0.00881
62.6 -0.0072
62.65 -0.00603
62.7 -0.00421
62.75 -0.00296
62.8 -0.00208
62.85 -0.00125
62.9 -0.00067
62.95 -0.00101
63 -0.00179
63.05 -0.00307
63.1 -0.00409
63.15 -0.0035
63.2 -0.00265
63.25 -0.00171
63.3 -0.00104
63.35 0.00046
63.4 0.00133
63.45 0.00184
63.5 0.00224
63.55 0.00298
63.6 0.00401
63.65 0.00337
63.7 0.00178
63.75 0.00139
63.8 0.00018
63.85 -0.00021
63.9 -0.00008
63.95 -0.00029
64 0.00036
64.05 0.00139
64.1 0.00137
64.15 0.00133
64.2 0.00146
64.25 0.00167
64.3 0.00191
64.35 0.00277
64.4 0.00286
64.45 0.00239
64.5 0.00259
64.55 0.00252
64.6 0.00292
64.65 0.00284
64.7 0.0019
64.75 0.00177
64.8 0.00103
64.85 -0.00062
64.9 -0.00085
64.95 -0.00204
65 -0.00309
65.05 -0.00284
65.1 -0.00163
65.15 -0.00038
65.2 0.00068
65.25 0.00177
65.3 0.00245
65.35 0.00339
65.4 0.0038
65.45 0.00343
65.5 0.00383
65.55 0.00348
65.6 0.00289
65.65 0.00142
65.7 0.00083
65.75 0.00013
65.8 -0.00092
65.85 -0.00236
65.9 -0.00218
65.95 -0.0011
66 -0.00013
66.05 0.00088
66.1 0.00196
66.15 0.00198
66.2 0.00175
66.25 0.00091
66.3 -0.00048
66.35 -0.00056
66.4 -0.00001
66.45 0.00025
66.5 0.00002
66.55 -0.00026
66.6 -0.00096
66.65 -0.00152
66.7 -0.00296
66.75 -0.00271
66.8 -0.00209
66.85 -0.00167
66.9 -0.00089
66.95 0.00061
67 0.00119
67.05 0.00089
67.1 -0.00021
67.15 -0.00047
67.2 -0.00019
67.25 -0.0011
67.3 -0.00176
67.35 -0.00228
67.4 -0.00323
67.45 -0.00383
67.5 -0.00372
67.55 -0.0024
67.6 -0.00224
67.65 -0.00207
67.7 -0.00276
67.75 -0.00387
67.8 -0.00461
67.85 -0.00571
67.9 -0.00615
67.95 -0.00533
68 -0.00518
68.05 -0.00526
68.1 -0.00517
68.15 -0.00569
68.2 -0.00506
68.25 -0.00521
68.3 -0.00498
68.35 -0.00427
68.4 -0.0035
68.45 -0.00301
68.5 -0.0014
68.55 -0.00049
68.6 -0.00093
68.65 -0.00206
68.7 -0.00271
68.75 -0.00188
68.8 -0.00157
68.85 -0.00118
68.9 -0.00096
68.95 -0.00087
69 -0.00032
69.05 -0.00075
69.1 -0.00129
69.15 -0.00232
69.2 -0.00362
69.25 -0.00437
69.3 -0.00541
69.35 -0.00521
69.4 -0.00467
69.45 -0.00317
69.5 -0.001
69.55 0.00014
69.6 0.00099
69.65 0.00086
69.7 0.00048
69.75 0.00034
69.8 -0.0003
69.85 -0.00037
69.9 -0.00136
69.95 -0.0028
70 -0.0051
70.05 -0.00692
70.1 -0.00968
70.15 -0.0129
70.2 -0.01579
70.25 -0.02046
70.3 -0.0256
70.35 -0.03059
70.4 -0.03676
70.45 -0.04311
70.5 -0.04978
70.55 -0.05716
70.6 -0.06707
70.65 -0.07864
70.7 -0.09274
70.75 -0.10769
70.8 -0.1235
70.85 -0.1412
70.9 -0.16113
70.95 -0.18299
71 -0.20568
71.05 -0.22935
71.1 -0.2546
71.15 -0.28097
71.2 -0.30915
71.25 -0.33899
71.3 -0.37068
71.35 -0.40288
71.4 -0.43526
71.45 -0.46942
71.5 -0.50275
71.55 -0.53562
71.6 -0.56708
71.65 -0.59638
71.7 -0.62365
71.75 -0.64804
71.8 -0.66941
71.85 -0.68798
71.9 -0.70194
71.95 -0.71188
72 -0.71788
72.05 -0.71914
72.1 -0.71567
72.15 -0.70727
72.2 -0.69277
72.25 -0.67215
72.3 -0.64608
72.35 -0.61402
72.4 -0.57734
72.45 -0.5361
72.5 -0.49091
72.55 -0.4423
72.6 -0.38952
72.65 -0.33544
72.7 -0.27858
72.75 -0.22163
72.8 -0.16382
72.85 -0.10571
72.9 -0.04913
72.95 0.00611
73 0.05922
73.05 0.10964
73.1 0.15721
73.15 0.20196
73.2 0.24334
73.25 0.28142
73.3 0.31663
73.35 0.34923
73.4 0.37942
73.45 0.40669
73.5 0.42909
73.55 0.44867
73.6 0.46433
73.65 0.47672
73.7 0.48719
73.75 0.49366
73.8 0.4972
73.85 0.49931
73.9 0.50097
73.95 0.5009
74 0.49927
74.05 0.49714
74.1 0.49578
74.15 0.49399
74.2 0.49099
74.25 0.48903
74.3 0.48747
74.35 0.48644
74.4 0.48561
74.45 0.48434
74.5 0.48229
74.55 0.48014
74.6 0.47639
74.65 0.47277
74.7 0.46798
74.75 0.46238
74.8 0.45779
74.85 0.45291
74.9 0.44665
74.95 0.44112
75 0.43515
75.05 0.42806
75.1 0.42173
75.15 0.4154
75.2 0.4086
75.25 0.4022
75.3 0.39578
75.35 0.38915
75.4 0.38112
75.45 0.3736
75.5 0.36509
75.55 0.35691
75.6 0.34775
75.65 0.33713
75.7 0.32582
75.75 0.31507
75.8 0.30417
75.85 0.29478
75.9 0.2861
75.95 0.27719
76 0.26792
76.05 0.2578
76.1 0.24896
76.15 0.24035
76.2 0.23165
76.25 0.22368
76.3 0.2149
76.35 0.206
76.4 0.1967
76.45 0.18724
76.5 0.177
76.55 0.16695
76.6 0.15852
76.65 0.15067
76.7 0.14286
76.75 0.13456
76.8 0.12703
76.85 0.11949
76.9 0.11292
76.95 0.10474
77 0.09566
77.05 0.08633
77.1 0.0782
77.15 0.0696
77.2 0.06287
77.25 0.05733
77.3 0.05103
77.35 0.04535
77.4 0.0401
77.45 0.03473
77.5 0.02788
77.55 0.02123
77.6 0.01519
77.65 0.00933
77.7 0.00333
77.75 -0.00337
77.8 -0.00858
77.85 -0.01317
77.9 -0.01831
77.95 -0.02363
78 -0.02905
78.05 -0.03506
78.1 -0.04016
78.15 -0.044
78.2 -0.047
78.25 -0.04938
78.3 -0.05262
78.35 -0.05568
78.4 -0.05907
78.45 -0.06237
78.5 -0.06511
78.55 -0.0684
78.6 -0.0716
78.65 -0.07398
78.7 -0.07577
78.75 -0.07689
78.8 -0.07895
78.85 -0.07964
78.9 -0.08
78.95 -0.08102
79 -0.0818
79.05 -0.08356
79.1 -0.08427
79.15 -0.08446
79.2 -0.08436
79.25 -0.08353
79.3 -0.08292
79.35 -0.08246
79.4 -0.0815
79.45 -0.08027
79.5 -0.07941
79.55 -0.07958
79.6 -0.07956
79.65 -0.07972
79.7 -0.08031
79.75 -0.08161
79.8 -0.08323
79.85 -0.08436
79.9 -0.08428
79.95 -0.08292
80 -0.08208
80.05 -0.0815
80.1 -0.0804
80.15 -0.07834
80.2 -0.07687
80.25 -0.07574
80.3 -0.07394
80.35 -0.07228
80.4 -0.07053
80.45 -0.06888
80.5 -0.06828
80.55 -0.06722
80.6 -0.06583
80.65 -0.06533
80.7 -0.06429
80.75 -0.06273
80.8 -0.06216
80.85 -0.06132
80.9 -0.06204
80.95 -0.06211
81 -0.06291
81.05 -0.06224
81.1 -0.06153
81.15 -0.06008
81.2 -0.05973
81.25 -0.06013
81.3 -0.05921
81.35 -0.05761
81.4 -0.05627
81.45 -0.0547
81.5 -0.05257
81.55 -0.05217
81.6 -0.05264
81.65 -0.05291
81.7 -0.05366
81.75 -0.05389
81.8 -0.05398
81.85 -0.05329
81.9 -0.05305
81.95 -0.0525
82 -0.05262
82.05 -0.05118
82.1 -0.05022
82.15 -0.04826
82.2 -0.04724
82.25 -0.04559
82.3 -0.04344
82.35 -0.04184
82.4 -0.04027
82.45 -0.03959
82.5 -0.03961
82.55 -0.04023
82.6 -0.0407
82.65 -0.04032
82.7 -0.03971
82.75 -0.03898
82.8 -0.03808
82.85 -0.03653
82.9 -0.03439
82.95 -0.03265
83 -0.03191
83.05 -0.03078
83.1 -0.02932
83.15 -0.0291
83.2 -0.02933
83.25 -0.02858
83.3 -0.02782
83.35 -0.0267
83.4 -0.02525
83.45 -0.0249
83.5 -0.02406
83.55 -0.02431
83.6 -0.02579
83.65 -0.02696
83.7 -0.0274
83.75 -0.02782
83.8 -0.02816
83.85 -0.02925
83.9 -0.0302
83.95 -0.03148
84 -0.03239
84.05 -0.03301
84.1 -0.0326
84.15 -0.03127
84.2 -0.02896
84.25 -0.02651
84.3 -0.0239
84.35 -0.02241
84.4 -0.02131
84.45 -0.01991
84.5 -0.01921
84.55 -0.01803
84.6 -0.01825
84.65 -0.01903
84.7 -0.02061
84.75 -0.0224
84.8 -0.0234
84.85 -0.02287
84.9 -0.02301
84.95 -0.02341
85 -0.02413
85.05 -0.0235
85.1 -0.02247
85.15 -0.02035
85.2 -0.01973
85.25 -0.01964
85.3 -0.0197
85.35 -0.02034
85.4 -0.02082
85.45 -0.0197
85.5 -0.01849
85.55 -0.01782
85.6 -0.01656
85.65 -0.01464
85.7 -0.01401
85.75 -0.01354
85.8 -0.01347
85.85 -0.01259
85.9 -0.01232
85.95 -0.01201
86 -0.01227
86.05 -0.01208
86.1 -0.01298
86.15 -0.01334
86.2 -0.01344
86.25 -0.01244
86.3 -0.01155
86.35 -0.01138
86.4 -0.01064
86.45 -0.01059
86.5 -0.01049
86.55 -0.01049
86.6 -0.01045
86.65 -0.01001
86.7 -0.00888
86.75 -0.0086
86.8 -0.00907
86.85 -0.00962
86.9 -0.00971
86.95 -0.00943
87 -0.00939
87.05 -0.01013
87.1 -0.01038
87.15 -0.00955
87.2 -0.00913
87.25 -0.00963
87.3 -0.01061
87.35 -0.01183
87.4 -0.01255
87.45 -0.01273
87.5 -0.01275
87.55 -0.01262
87.6 -0.01157
87.65 -0.00977
87.7 -0.00767
87.75 -0.00544
87.8 -0.00324
87.85 -0.00201
87.9 -0.001
87.95 -0.00179
88 -0.00334
88.05 -0.0041
88.1 -0.00518
88.15 -0.00705
88.2 -0.00901
88.25 -0.01008
88.3 -0.01022
88.35 -0.01026
88.4 -0.01104
88.45 -0.01011
88.5 -0.00964
88.55 -0.00902
88.6 -0.00879
88.65 -0.00815
88.7 -0.00739
88.75 -0.0062
88.8 -0.00605
88.85 -0.00696
88.9 -0.00846
88.95 -0.00941
89 -0.01003
89.05 -0.00895
89.1 -0.00698
89.15 -0.00659
89.2 -0.00579
89.25 -0.0048
89.3 -0.00358
89.35 -0.00359
89.4 -0.0045
89.45 -0.00616
89.5 -0.00719
89.55 -0.00778
89.6 -0.00714
89.65 -0.00589
89.7 -0.00387
89.75 -0.00328
89.8 -0.0025
89.85 -0.00132
89.9 -0.00103
89.95 -0.00096
90 -0.00158
90.05 -0.00108
90.1 0.00003
90.15 0.00113
90.2 0.00189
90.25 0.00114
90.3 -0.00022
90.35 -0.00175
90.4 -0.00279
90.45 -0.00452
90.5 -0.00525
90.55 -0.0062
90.6 -0.00688
90.65 -0.00804
90.7 -0.00904
90.75 -0.00976
90.8 -0.00979
90.85 -0.00993
90.9 -0.00894
90.95 -0.00738
91 -0.00629
91.05 -0.00626
91.1 -0.00571
91.15 -0.00443
91.2 -0.00388
91.25 -0.00285
91.3 -0.00261
91.35 -0.00171
91.4 -0.00164
91.45 -0.00144
91.5 -0.00122
91.55 -0.00008
91.6 -0.00007
91.65 -0.0004
91.7 -0.00114
91.75 -0.00203
91.8 -0.00338
91.85 -0.00443
91.9 -0.00497
91.95 -0.0042
92 -0.0033
92.05 -0.00351
92.1 -0.00432
92.15 -0.00395
92.2 -0.00388
92.25 -0.00361
92.3 -0.0033
92.35 -0.00212
92.4 -0.0008
92.45 0.00035
92.5 0.00085
92.55 0.00004
92.6 -0.00086
92.65 -0.00194
92.7 -0.00189
92.75 -0.00245
92.8 -0.00229
92.85 -0.00239
92.9 -0.00162
92.95 -0.00017
93 0.00118
93.05 0.00136
93.1 0.00032
93.15 0.00007
93.2 -0.00039
93.25 -0.00181
93.3 -0.00303
93.35 -0.00423
93.4 -0.00371
93.45 -0.00281
93.5 -0.00217
93.55 -0.00244
93.6 -0.00295
93.65 -0.00287
93.7 -0.00206
93.75 -0.00113
93.8 0.00025
93.85 -0.00004
93.9 0.00043
93.95 0.00123
94 0.00194
94.05 0.00144
94.1 0.00055
94.15 0.00059
94.2 -0.00024
94.25 -0.00052
94.3 -0.00116
94.35 -0.00212
94.4 -0.00315
94.45 -0.0036
94.5 -0.00309
94.55 -0.00278
94.6 -0.00236
94.65 -0.00206
94.7 -0.00181
94.75 -0.00218
94.8 -0.0022
94.85 -0.00201
94.9 -0.00113
94.95 -0.00106
95 -0.00168
95.05 -0.00149
95.1 -0.00181
95.15 -0.00089
95.2 0.00069
95.25 0.00094
95.3 0.00095
95.35 -0.00006
95.4 -0.00024
95.45 -0.00036
95.5 -0.00001
95.55 0.00095
95.6 0.0006
95.65 -0.00017
95.7 -0.00072
95.75 -0.00191
95.8 -0.0029
95.85 -0.00358
95.9 -0.00364
95.95 -0.00325
96 -0.00268
96.05 -0.00231
96.1 -0.00168
96.15 -0.00183
96.2 -0.00128
96.25 -0.0003
96.3 0.00011
96.35 0.00125
96.4 0.00179
96.45 0.00126
96.5 -0.00013
96.55 -0.00172
96.6 -0.00348
96.65 -0.00324
96.7 -0.0027
96.75 -0.00219
96.8 -0.00072
96.85 -0.00005
96.9 -0.00007
96.95 0.00101
97 0.0019
97.05 0.00175
97.1 0.00256
97.15 0.00283
97.2 0.00211
97.25 0.00095
97.3 -0.00039
97.35 -0.00084
97.4 -0.00106
97.45 -0.00138
97.5 -0.0024
97.55 -0.0026
97.6 -0.0019
97.65 -0.00228
97.7 -0.00209
97.75 -0.00163
97.8 -0.00151
97.85 -0.00117
97.9 -0.00179
97.95 -0.00204
98 -0.00231
98.05 -0.00264
98.1 -0.00345
98.15 -0.00388
98.2 -0.00366
98.25 -0.00291
98.3 -0.00277
98.35 -0.00268
98.4 -0.00165
98.45 -0.00097
98.5 -0.00097
98.55 -0.00032
98.6 -0.00087
98.65 -0.00011
98.7 -0.00014
98.75 -0.00085
98.8 -0.00183
98.85 -0.00263
98.9 -0.00214
98.95 -0.00208
99 -0.00276
99.05 -0.00274
99.1 -0.00233
99.15 -0.00184
99.2 -0.00111
99.25 0.00012
99.3 0.00015
99.35 0.00092
99.4 0.00215
99.45 0.00344
99.5 0.00346
99.55 0.00426
99.6 0.00363
99.65 0.00287
99.7 0.0028
99.75 0.00335
99.8 0.00295
99.85 0.00256
99.9 0.0032
99.95 0.00335
