0 0
0.05 0.00521
0.1 0.00857
0.15 0.01762
0.2 0.02544
0.25 0.03201
0.3 0.03808
0.35 0.04445
0.4 0.04932
0.45 0.05257
0.5 0.05419
0.55 0.05051
0.6 0.04794
0.65 0.04324
0.7 0.04362
0.75 0.04243
0.8 0.04104
0.85 0.04163
0.9 0.04121
0.95 0.04384
1 0.04295
1.05 0.04395
1.1 0.04028
1.15 0.04149
1.2 0.04449
1.25 0.04164
1.3 0.04267
1.35 0.04009
1.4 0.04275
1.45 0.04374
1.5 0.04676
1.55 0.04729
1.6 0.04941
1.65 0.04741
1.7 0.04976
1.75 0.04921
1.8 0.04899
1.85 0.04613
1.9 0.04467
1.95 0.04425
2 0.03834
2.05 0.03223
2.1 0.02998
2.15 0.02981
2.2 0.03078
2.25 0.03053
2.3 0.0293
2.35 0.02476
2.4 0.02587
2.45 0.02366
2.5 0.02647
2.55 0.03142
2.6 0.03328
2.65 0.03655
2.7 0.034
2.75 0.02821
2.8 0.02644
2.85 0.02375
2.9 0.02324
2.95 0.02741
3 0.02876
3.05 0.03131
3.1 0.02843
3.15 0.02202
3.2 0.02144
3.25 0.02399
3.3 0.02145
3.35 0.02068
3.4 0.0195
3.45 0.01991
3.5 0.01886
3.55 0.0178
3.6 0.01554
3.65 0.0113
3.7 0.00636
3.75 0.00478
3.8 0.00775
3.85 0.01397
3.9 0.01382
3.95 0.01637
4 0.01845
4.05 0.01583
4.1 0.01804
4.15 0.02155
4.2 0.02095
4.25 0.02156
4.3 0.01523
4.35 0.0043
4.4 -0.0087
4.45 -0.0178
4.5 -0.02366
4.55 -0.03216
4.6 -0.04283
4.65 -0.05894
4.7 -0.0721
4.75 -0.09249
4.8 -0.11076
4.85 -0.13667
4.9 -0.16798
4.95 -0.20146
5 -0.23558
5.05 -0.27834
5.1 -0.32766
5.15 -0.38279
5.2 -0.43921
5.25 -0.50048
5.3 -0.56546
5.35 -0.63584
5.4 -0.71097
5.45 -0.7839
5.5 -0.86318
5.55 -0.94251
5.6 -1.0225
5.65 -1.10217
5.7 -1.1809
5.75 -1.25785
5.8 -1.32956
5.85 -1.39435
5.9 -1.4545
5.95 -1.50842
6 -1.56281
6.05 -1.61039
6.1 -1.65464
6.15 -1.68682
6.2 -1.71236
6.25 -1.72861
6.3 -1.74359
6.35 -1.74731
6.4 -1.74578
6.45 -1.74108
6.5 -1.72697
6.55 -1.70445
6.6 -1.67257
6.65 -1.63241
6.7 -1.58875
6.75 -1.53487
6.8 -1.47328
6.85 -1.40568
6.9 -1.32591
6.95 -1.23667
7 -1.13603
7.05 -1.02945
7.1 -0.91488
7.15 -0.78626
7.2 -0.65391
7.25 -0.51314
7.3 -0.37452
7.35 -0.23742
7.4 -0.09507
7.45 0.05082
7.5 0.18984
7.55 0.32308
7.6 0.45559
7.65 0.58059
7.7 0.6963
7.75 0.80651
7.8 0.90381
7.85 0.99382
7.9 1.07494
7.95 1.14928
8 1.22083
8.05 1.28263
8.1 1.33814
8.15 1.39027
8.2 1.43829
8.25 1.47543
8.3 1.5046
8.35 1.5283
8.4 1.54691
8.45 1.56069
8.5 1.57477
8.55 1.58185
8.6 1.58716
8.65 1.59216
8.7 1.59502
8.75 1.59712
8.8 1.59873
8.85 1.59879
8.9 1.59061
8.95 1.58203
9 1.57033
9.05 1.55629
9.1 1.53999
9.15 1.52066
9.2 1.49391
9.25 1.46272
9.3 1.43612
9.35 1.41188
9.4 1.38314
9.45 1.35005
9.5 1.32206
9.55 1.29131
9.6 1.2648
9.65 1.2381
9.7 1.21442
9.75 1.18878
9.8 1.15739
9.85 1.13004
9.9 1.10419
9.95 1.07647
10 1.04416
10.05 1.01418
10.1 0.98607
10.15 0.95496
10.2 0.92549
10.25 0.89283
10.3 0.85632
10.35 0.82197
10.4 0.78415
10.45 0.74856
10.5 0.71675
10.55 0.68637
10.6 0.65217
10.65 0.61735
10.7 0.58493
10.75 0.5523
10.8 0.52399
10.85 0.49862
10.9 0.47463
10.95 0.44537
11 0.41607
11.05 0.38359
11.1 0.35145
11.15 0.3238
11.2 0.29326
11.25 0.26906
11.3 0.2429
11.35 0.21971
11.4 0.19327
11.45 0.16422
11.5 0.13866
11.55 0.11694
11.6 0.09357
11.65 0.07369
11.7 0.05242
11.75 0.03705
11.8 0.02173
11.85 0.0042
11.9 -0.00941
11.95 -0.02273
12 -0.03727
12.05 -0.05391
12.1 -0.07101
12.15 -0.08504
12.2 -0.09934
12.25 -0.1171
12.3 -0.13713
12.35 -0.15452
12.4 -0.17059
12.45 -0.18476
12.5 -0.19838
12.55 -0.21033
12.6 -0.22071
12.65 -0.22675
12.7 -0.23149
12.75 -0.23294
12.8 -0.2311
12.85 -0.2317
12.9 -0.23677
12.95 -0.24386
13 -0.24817
13.05 -0.25358
13.1 -0.25534
13.15 -0.2534
13.2 -0.25607
13.25 -0.25558
13.3 -0.25405
13.35 -0.25764
13.4 -0.26291
13.45 -0.26579
13.5 -0.2701
13.55 -0.26957
13.6 -0.26884
13.65 -0.26751
13.7 -0.26393
13.75 -0.26409
13.8 -0.26738
13.85 -0.27089
13.9 -0.2726
13.95 -0.26856
14 -0.26325
14.05 -0.25859
14.1 -0.25062
14.15 -0.24734
14.2 -0.24136
14.25 -0.2317
14.3 -0.22435
14.35 -0.22272
14.4 -0.22277
14.45 -0.22408
14.5 -0.22261
14.55 -0.22225
14.6 -0.21721
14.65 -0.2144
14.7 -0.21
14.75 -0.20758
14.8 -0.20305
14.85 -0.19517
14.9 -0.19386
14.95 -0.19593
15 -0.19426
15.05 -0.19431
15.1 -0.19177
15.15 -0.18919
15.2 -0.18366
15.25 -0.17697
15.3 -0.17632
15.35 -0.173
15.4 -0.17453
15.45 -0.17035
15.5 -0.16212
15.55 -0.15806
15.6 -0.15209
15.65 -0.14735
15.7 -0.14205
15.75 -0.1419
15.8 -0.14639
15.85 -0.15275
15.9 -0.15552
15.95 -0.15431
16 -0.15366
16.05 -0.1549
16.1 -0.15637
16.15 -0.15914
16.2 -0.16121
16.25 -0.15522
16.3 -0.15131
16.35 -0.14163
16.4 -0.1301
16.45 -0.12113
16.5 -0.11736
16.55 -0.11629
16.6 -0.11298
16.65 -0.10829
16.7 -0.10236
16.75 -0.09873
16.8 -0.10122
16.85 -0.1032
16.9 -0.10526
16.95 -0.10758
17 -0.11086
17.05 -0.11006
17.1 -0.11184
17.15 -0.11031
17.2 -0.10817
17.25 -0.1091
17.3 -0.10984
17.35 -0.1091
17.4 -0.10867
17.45 -0.10788
17.5 -0.10766
17.55 -0.10456
17.6 -0.09968
17.65 -0.09899
17.7 -0.10078
17.75 -0.10052
17.8 -0.10012
17.85 -0.09789
17.9 -0.09781
17.95 -0.09468
18 -0.08617
18.05 -0.07616
18.1 -0.07249
18.15 -0.07293
18.2 -0.06787
18.25 -0.06128
18.3 -0.06015
18.35 -0.06241
18.4 -0.05914
18.45 -0.05372
18.5 -0.0485
18.55 -0.04771
18.6 -0.04339
18.65 -0.04097
18.7 -0.04501
18.75 -0.04507
18.8 -0.04629
18.85 -0.04728
18.9 -0.0472
18.95 -0.0495
19 -0.04851
19.05 -0.04978
19.1 -0.05188
19.15 -0.05668
19.2 -0.05963
19.25 -0.0587
19.3 -0.05477
19.35 -0.0492
19.4 -0.0451
19.45 -0.04086
19.5 -0.03825
19.55 -0.03765
19.6 -0.0412
19.65 -0.04528
19.7 -0.05059
19.75 -0.05689
19.8 -0.06309
19.85 -0.06765
19.9 -0.06783
19.95 -0.06809
20 -0.06221
20.05 -0.05451
20.1 -0.04876
20.15 -0.04464
20.2 -0.0374
20.25 -0.03609
20.3 -0.0356
20.35 -0.03082
20.4 -0.02816
20.45 -0.03037
20.5 -0.02833
20.55 -0.031
20.6 -0.03486
20.65 -0.03676
20.7 -0.03986
20.75 -0.03815
20.8 -0.0367
20.85 -0.03252
20.9 -0.03326
20.95 -0.03432
21 -0.03032
21.05 -0.02343
21.1 -0.01656
21.15 -0.01592
21.2 -0.01288
21.25 -0.01059
21.3 -0.01459
21.35 -0.01644
21.4 -0.01715
21.45 -0.01436
21.5 -0.01304
21.55 -0.00956
21.6 -0.00535
21.65 -0.00469
21.7 -0.00407
21.75 -0.00807
21.8 -0.01172
21.85 -0.01249
21.9 -0.01108
21.95 -0.00715
22 -0.00105
22.05 0.00417
22.1 0.00438
22.15 0.00185
22.2 -0.00139
22.25 -0.00752
22.3 -0.00775
22.35 -0.01171
22.4 -0.01521
22.45 -0.01708
22.5 -0.0218
22.55 -0.02583
22.6 -0.02697
22.65 -0.02849
22.7 -0.02952
22.75 -0.02771
22.8 -0.02279
22.85 -0.02002
22.9 -0.01872
22.95 -0.01946
23 -0.02346
23.05 -0.0239
23.1 -0.02326
23.15 -0.02414
23.2 -0.0235
23.25 -0.02211
23.3 -0.02219
23.35 -0.02298
23.4 -0.02331
23.45 -0.0183
23.5 -0.01028
23.55 -0.00473
23.6 0.0023
23.65 0.00283
23.7 0.00046
23.75 -0.00548
23.8 -0.01083
23.85 -0.00971
23.9 -0.01146
23.95 -0.00844
24 -0.00237
24.05 -0.00343
24.1 -0.00274
24.15 -0.00038
24.2 0.00008
24.25 -0.00076
24.3 -0.00356
24.35 -0.00746
24.4 -0.00597
24.45 -0.00543
24.5 -0.00699
24.55 -0.01168
24.6 -0.01191
24.65 -0.01642
24.7 -0.01751
24.75 -0.02181
24.8 -0.02714
24.85 -0.02563
24.9 -0.0211
24.95 -0.01669
25 -0.01158
25.05 -0.00968
25.1 -0.01153
25.15 -0.01373
25.2 -0.0179
25.25 -0.02353
25.3 -0.02639
25.35 -0.02983
25.4 -0.02836
25.45 -0.02204
25.5 -0.01677
25.55 -0.00997
25.6 -0.00543
25.65 0.00026
25.7 0.00643
25.75 0.01322
25.8 0.01386
25.85 0.00864
25.9 0.00437
25.95 0.0027
26 0.00403
26.05 0.00363
26.1 0.00223
26.15 -0.00079
26.2 -0.0055
26.25 -0.00992
26.3 -0.01663
26.35 -0.01563
26.4 -0.01706
26.45 -0.01592
26.5 -0.01843
26.55 -0.01983
26.6 -0.02293
26.65 -0.01888
26.7 -0.01121
26.75 -0.00581
26.8 -0.00246
26.85 0.001
26.9 0.00671
26.95 0.01339
27 0.01773
27.05 0.01725
27.1 0.0122
27.15 0.00366
27.2 -0.00357
27.25 -0.00804
27.3 -0.0097
27.35 -0.00645
27.4 -0.00424
27.45 -0.00692
27.5 -0.00864
27.55 -0.01392
27.6 -0.02004
27.65 -0.02568
27.7 -0.02581
27.75 -0.02737
27.8 -0.02883
27.85 -0.03164
27.9 -0.03211
27.95 -0.03484
28 -0.03725
28.05 -0.04134
28.1 -0.04237
28.15 -0.04271
28.2 -0.04541
28.25 -0.05075
28.3 -0.05563
28.35 -0.06282
28.4 -0.06646
28.45 -0.06997
28.5 -0.0735
28.55 -0.07893
28.6 -0.08954
28.65 -0.10859
28.7 -0.12706
28.75 -0.14943
28.8 -0.17205
28.85 -0.19794
28.9 -0.22997
28.95 -0.26338
29 -0.30406
29.05 -0.34992
29.1 -0.39419
29.15 -0.43796
29.2 -0.47992
29.25 -0.52609
29.3 -0.57205
29.35 -0.61782
29.4 -0.66175
29.45 -0.70928
29.5 -0.75391
29.55 -0.79503
29.6 -0.82888
29.65 -0.85975
29.7 -0.88474
29.75 -0.90906
29.8 -0.9287
29.85 -0.94222
29.9 -0.94921
29.95 -0.95682
30 -0.96043
30.05 -0.95256
30.1 -0.94195
30.15 -0.92382
30.2 -0.89411
30.25 -0.85349
30.3 -0.80396
30.35 -0.75308
30.4 -0.6979
30.45 -0.63873
30.5 -0.58007
30.55 -0.51124
30.6 -0.43638
30.65 -0.36027
30.7 -0.28099
30.75 -0.20608
30.8 -0.13543
30.85 -0.06933
30.9 -0.0066
30.95 0.05322
31 0.11265
31.05 0.17498
31.1 0.23428
31.15 0.28477
31.2 0.33322
31.25 0.37362
31.3 0.40905
31.35 0.44539
31.4 0.47972
31.45 0.51042
31.5 0.53157
31.55 0.55313
31.6 0.57215
31.65 0.58621
31.7 0.59534
31.75 0.60453
31.8 0.61202
31.85 0.61456
31.9 0.61989
31.95 0.62777
32 0.63167
32.05 0.6387
32.1 0.64513
32.15 0.65203
32.2 0.65934
32.25 0.66333
32.3 0.66414
32.35 0.66362
32.4 0.66057
32.45 0.65667
32.5 0.65419
32.55 0.65965
32.6 0.66145
32.65 0.6661
32.7 0.66976
32.75 0.67527
32.8 0.68038
32.85 0.68136
32.9 0.6849
32.95 0.68566
33 0.68089
33.05 0.67312
33.1 0.66369
33.15 0.64986
33.2 0.63571
33.25 0.62708
33.3 0.61628
33.35 0.60885
33.4 0.59715
33.45 0.5811
33.5 0.57014
33.55 0.55792
33.6 0.54584
33.65 0.52737
33.7 0.5063
33.75 0.48787
33.8 0.47096
33.85 0.45803
33.9 0.44331
33.95 0.42894
34 0.41294
34.05 0.39912
34.1 0.38493
34.15 0.37145
34.2 0.35731
34.25 0.34048
34.3 0.31792
34.35 0.29947
34.4 0.28071
34.45 0.25974
34.5 0.23696
34.55 0.2152
34.6 0.19846
34.65 0.17939
34.7 0.16015
34.75 0.1458
34.8 0.12902
34.85 0.11638
34.9 0.10763
34.95 0.09425
35 0.08384
35.05 0.07074
35.1 0.06114
35.15 0.05189
35.2 0.04504
35.25 0.03342
35.3 0.02668
35.35 0.01536
35.4 0.00928
35.45 -0.00089
35.5 -0.00721
35.55 -0.01748
35.6 -0.02408
35.65 -0.03538
35.7 -0.04064
35.75 -0.04878
35.8 -0.05421
35.85 -0.05828
35.9 -0.06673
35.95 -0.07528
36 -0.08108
36.05 -0.08835
36.1 -0.09155
36.15 -0.09814
36.2 -0.10364
36.25 -0.10315
36.3 -0.10295
36.35 -0.10018
36.4 -0.10252
36.45 -0.10595
36.5 -0.10965
36.55 -0.10913
36.6 -0.1109
36.65 -0.10998
36.7 -0.11455
36.75 -0.11783
36.8 -0.12264
36.85 -0.12154
36.9 -0.12168
36.95 -0.12328
37 -0.12447
37.05 -0.12216
37.1 -0.11825
37.15 -0.1129
37.2 -0.10725
37.25 -0.10155
37.3 -0.09874
37.35 -0.1023
37.4 -0.10801
37.45 -0.11353
37.5 -0.11576
37.55 -0.11658
37.6 -0.11958
37.65 -0.12025
37.7 -0.12377
37.75 -0.12083
37.8 -0.11745
37.85 -0.11248
37.9 -0.11284
37.95 -0.11021
38 -0.10507
38.05 -0.10318
38.1 -0.10266
38.15 -0.1055
38.2 -0.10606
38.25 -0.10352
38.3 -0.10347
38.35 -0.0995
38.4 -0.10148
38.45 -0.10441
38.5 -0.10779
38.55 -0.10845
38.6 -0.10348
38.65 -0.10198
38.7 -0.09684
38.75 -0.09609
38.8 -0.09035
38.85 -0.08862
38.9 -0.08719
38.95 -0.08764
39 -0.0873
39.05 -0.08792
39.1 -0.09074
39.15 -0.09349
39.2 -0.09842
39.25 -0.09751
39.3 -0.09142
39.35 -0.08765
39.4 -0.08447
39.45 -0.07685
39.5 -0.07077
39.55 -0.07108
39.6 -0.07106
39.65 -0.07214
39.7 -0.07422
39.75 -0.07051
39.8 -0.06915
39.85 -0.06754
39.9 -0.06512
39.95 -0.06408
40 -0.06665
40.05 -0.06923
40.1 -0.07411
40.15 -0.07347
40.2 -0.07124
40.25 -0.06776
40.3 -0.06514
40.35 -0.06275
40.4 -0.06031
40.45 -0.06016
40.5 -0.06282
40.55 -0.06782
40.6 -0.06908
40.65 -0.07093
40.7 -0.06626
40.75 -0.05718
40.8 -0.05064
40.85 -0.04728
40.9 -0.04494
40.95 -0.04404
41 -0.04708
41.05 -0.04693
41.1 -0.04848
41.15 -0.05021
41.2 -0.05342
41.25 -0.05503
41.3 -0.05534
41.35 -0.05444
41.4 -0.05447
41.45 -0.05114
41.5 -0.047
41.55 -0.04129
41.6 -0.0362
41.65 -0.0354
41.7 -0.03631
41.75 -0.03608
41.8 -0.03884
41.85 -0.04415
41.9 -0.04614
41.95 -0.05046
42 -0.05401
42.05 -0.04964
42.1 -0.04638
42.15 -0.04728
42.2 -0.04223
42.25 -0.03888
42.3 -0.03804
42.35 -0.0374
42.4 -0.03175
42.45 -0.02294
42.5 -0.02086
42.55 -0.01569
42.6 -0.00992
42.65 -0.00725
42.7 -0.00239
42.75 -0.00277
42.8 -0.00655
42.85 -0.00822
42.9 -0.01499
42.95 -0.02358
43 -0.0242
43.05 -0.0242
43.1 -0.02844
43.15 -0.03201
43.2 -0.03084
43.25 -0.0249
43.3 -0.01645
43.35 -0.01407
43.4 -0.01708
43.45 -0.02014
43.5 -0.02503
43.55 -0.02969
43.6 -0.02921
43.65 -0.02514
43.7 -0.01871
43.75 -0.01824
43.8 -0.02013
43.85 -0.0254
43.9 -0.02721
43.95 -0.03075
44 -0.03257
44.05 -0.03263
44.1 -0.02869
44.15 -0.02218
44.2 -0.01793
44.25 -0.01921
44.3 -0.01638
44.35 -0.01566
44.4 -0.01692
44.45 -0.01907
44.5 -0.01762
44.55 -0.01587
44.6 -0.01876
44.65 -0.02148
44.7 -0.02187
44.75 -0.01759
44.8 -0.01133
44.85 -0.00591
44.9 -0.00026
44.95 -0.00167
45 0.00065
45.05 0.0039
45.1 0.00833
45.15 0.00842
45.2 0.01015
45.25 0.01357
45.3 0.01183
45.35 0.01192
45.4 0.01309
45.45 0.00833
45.5 0.00569
45.55 0.00233
45.6 0.00059
45.65 0.00026
45.7 -0.00281
45.75 -0.00891
45.8 -0.01097
45.85 -0.01635
45.9 -0.01988
45.95 -0.01832
46 -0.01613
46.05 -0.01678
46.1 -0.01394
46.15 -0.00792
46.2 -0.00725
46.25 -0.0087
46.3 -0.00939
46.35 -0.00956
46.4 -0.00933
46.45 -0.00624
46.5 -0.00539
46.55 -0.00931
46.6 -0.00799
46.65 -0.00371
46.7 -0.00203
46.75 0.00299
46.8 0.00881
46.85 0.00719
46.9 0.00223
46.95 -0.00306
47 -0.0056
47.05 -0.00462
47.1 -0.0053
47.15 -0.00703
47.2 -0.00596
47.25 -0.00315
47.3 -0.00558
47.35 -0.00754
47.4 -0.01059
47.45 -0.01324
47.5 -0.01686
47.55 -0.01926
47.6 -0.01771
47.65 -0.01275
47.7 -0.01213
47.75 -0.01172
47.8 -0.01405
47.85 -0.01513
47.9 -0.01703
47.95 -0.01568
48 -0.01565
48.05 -0.01844
48.1 -0.02043
48.15 -0.01856
48.2 -0.01968
48.25 -0.02304
48.3 -0.02016
48.35 -0.01962
48.4 -0.0151
48.45 -0.01188
48.5 -0.00662
48.55 -0.00144
48.6 0.00278
48.65 0.00957
48.7 0.00941
48.75 0.01234
48.8 0.01303
48.85 0.00828
48.9 0.00579
48.95 0.00151
49 0.00064
49.05 0.00181
49.1 -0.00094
49.15 -0.00073
49.2 -0.00528
49.25 -0.00894
49.3 -0.01302
49.35 -0.01759
49.4 -0.01904
49.45 -0.0151
49.5 -0.01123
49.55 -0.00421
49.6 0.00026
49.65 -0.00017
49.7 -0.00174
49.75 -0.0067
49.8 -0.01092
49.85 -0.01613
49.9 -0.01624
49.95 -0.01091
50 -0.01049
50.05 -0.00653
50.1 0.00043
50.15 0.00832
50.2 0.00891
50.25 0.00652
50.3 0.00215
50.35 0.00195
50.4 0.00237
50.45 -0.00141
50.5 -0.00255
50.55 -0.00167
50.6 0.00094
50.65 0.00527
50.7 0.00762
50.75 0.00644
50.8 0.00105
50.85 0.00182
50.9 0.00224
50.95 -0.00157
51 -0.00285
51.05 -0.0065
51.1 -0.0124
51.15 -0.01777
51.2 -0.01744
51.25 -0.01273
51.3 -0.01284
51.35 -0.01397
51.4 -0.01031
51.45 -0.00264
51.5 0.00275
51.55 0.00417
51.6 0.00213
51.65 -0.00189
51.7 -0.00006
51.75 -0.00279
51.8 -0.00272
51.85 -0.00613
51.9 -0.00981
51.95 -0.01468
52 -0.01664
52.05 -0.01295
52.1 -0.01401
52.15 -0.01537
52.2 -0.0132
52.25 -0.00642
52.3 -0.00571
52.35 -0.00401
52.4 0.00029
52.45 0.00248
52.5 0.00497
52.55 0.00428
52.6 0.00011
52.65 -0.00351
52.7 -0.00337
52.75 -0.0034
52.8 -0.0075
52.85 -0.00958
52.9 -0.00829
52.95 -0.00253
53 0.0031
53.05 0.00837
53.1 0.0127
53.15 0.01426
53.2 0.01073
53.25 0.00805
53.3 0.01029
53.35 0.00727
53.4 0.00908
53.45 0.01412
53.5 0.01515
53.55 0.01562
53.6 0.01001
53.65 0.00327
53.7 -0.0001
53.75 -0
53.8 0.00093
53.85 0.00276
53.9 0.00268
53.95 0.0014
54 0.00169
54.05 0.00499
54.1 0.00832
54.15 0.01082
54.2 0.01196
54.25 0.01407
54.3 0.01433
54.35 0.01718
54.4 0.01647
54.45 0.01627
54.5 0.01261
54.55 0.0058
54.6 -0.00377
54.65 -0.00597
54.7 -0.00978
54.75 -0.01045
54.8 -0.01372
54.85 -0.01547
54.9 -0.0109
54.95 -0.00471
55 -0.0046
55.05 -0.00611
55.1 -0.00817
55.15 -0.00634
55.2 -0.0011
55.25 -0.00182
55.3 0.00102
55.35 0.00635
55.4 0.00481
55.45 0.00351
55.5 0.00415
55.55 0.00532
55.6 0.00094
55.65 -0.00586
55.7 -0.00702
55.75 -0.00742
55.8 -0.0102
55.85 -0.01398
55.9 -0.01814
55.95 -0.01896
56 -0.01802
56.05 -0.01861
56.1 -0.02134
56.15 -0.02087
56.2 -0.01531
56.25 -0.01241
56.3 -0.01137
56.35 -0.01206
56.4 -0.0075
56.45 -0.00267
56.5 0.00445
56.55 0.00667
56.6 0.0118
56.65 0.00986
56.7 0.0076
56.75 0.00642
56.8 0.00718
56.85 0.0092
56.9 0.01054
56.95 0.01257
57 0.01252
57.05 0.01175
57.1 0.01001
57.15 0.00372
57.2 -0.00488
57.25 -0.00883
57.3 -0.00739
57.35 -0.00287
57.4 -0.00366
57.45 -0.00275
57.5 0.00073
57.55 0.00582
57.6 0.01201
57.65 0.01061
57.7 0.01324
57.75 0.01496
57.8 0.01045
57.85 0.00606
57.9 0.00357
57.95 0.00297
58 -0.0024
58.05 -0.00678
58.1 -0.01326
58.15 -0.01256
58.2 -0.01391
58.25 -0.00907
58.3 -0.00958
58.35 -0.01112
58.4 -0.01572
58.45 -0.01331
58.5 -0.01077
58.55 -0.01107
58.6 -0.00776
58.65 -0.00594
58.7 -0.00209
58.75 -0.0004
58.8 0.00054
58.85 0.00227
58.9 0.0035
58.95 0.00349
59 0.00422
59.05 0.00676
59.1 0.0094
59.15 0.00984
59.2 0.01309
59.25 0.01734
59.3 0.01842
59.35 0.017
59.4 0.01216
59.45 0.0114
59.5 0.00586
59.55 0.00373
59.6 -0.00071
59.65 -0.00679
59.7 -0.00712
59.75 -0.00334
59.8 -0.00516
59.85 -0.00966
59.9 -0.00893
59.95 -0.00832
60 -0.0053
60.05 -0.00071
60.1 0.00162
60.15 0.00386
60.2 0.00116
60.25 -0.00295
60.3 -0.00651
60.35 -0.00426
60.4 0.00148
60.45 0.00344
60.5 0.00562
60.55 0.00698
60.6 0.01078
60.65 0.00906
60.7 0.00877
60.75 0.01216
60.8 0.01533
60.85 0.01747
60.9 0.0199
60.95 0.01845
61 0.0161
61.05 0.01159
61.1 0.01196
61.15 0.01465
61.2 0.01536
61.25 0.0152
61.3 0.01416
61.35 0.01273
61.4 0.01026
61.45 0.00368
61.5 0.00183
61.55 -0.00187
61.6 -0.00205
61.65 0.00106
61.7 0.00035
61.75 0.00391
61.8 0.00904
61.85 0.01258
61.9 0.01644
61.95 0.02099
62 0.02006
62.05 0.01877
62.1 0.01689
62.15 0.01449
62.2 0.01365
62.25 0.01092
62.3 0.00861
62.35 0.00777
62.4 0.00651
62.45 0.00676
62.5 0.00199
62.55 -0.0038
62.6 -0.01186
62.65 -0.01697
62.7 -0.02289
62.75 -0.02504
62.8 -0.02674
62.85 -0.02327
62.9 -0.01731
62.95 -0.00819
63 0.00219
63.05 0.00646
63.1 0.00829
63.15 0.00621
63.2 0.00844
63.25 0.00536
63.3 0.0044
63.35 0.00599
63.4 0.0029
63.45 0.00187
63.5 0.0044
63.55 0.00597
63.6 0.00704
63.65 0.01068
63.7 0.00961
63.75 0.00442
63.8 0.00375
63.85 0.00488
63.9 0.00769
63.95 0.01254
64 0.01084
64.05 0.01008
64.1 0.00581
64.15 0.00523
64.2 0.00751
64.25 0.00684
64.3 0.00391
64.35 -0.0011
64.4 -0.00675
64.45 -0.00872
64.5 -0.01123
64.55 -0.0151
64.6 -0.01259
64.65 -0.00657
64.7 0.0018
64.75 0.01047
64.8 0.01275
64.85 0.01117
64.9 0.0101
64.95 0.00473
65 -0.00315
65.05 -0.00936
65.1 -0.00882
65.15 -0.0106
65.2 -0.00947
65.25 -0.01203
65.3 -0.01788
65.35 -0.02072
65.4 -0.02546
65.45 -0.0263
65.5 -0.02655
65.55 -0.02497
65.6 -0.02054
65.65 -0.01192
65.7 -0.00529
65.75 -0.00411
65.8 -0.00538
65.85 -0.00988
65.9 -0.01345
65.95 -0.01093
66 -0.00794
66.05 -0.00314
66.1 0.00072
66.15 0.0044
66.2 0.00156
66.25 -0.00364
66.3 -0.00563
66.35 -0.00256
66.4 -0.00432
66.45 -0.00768
66.5 -0.00818
66.55 -0.00667
66.6 -0.00159
66.65 0.00253
66.7 0.00218
66.75 0.00355
66.8 0.00597
66.85 0.00282
66.9 0.00304
66.95 0.00586
67 0.01045
67.05 0.01304
67.1 0.01673
67.15 0.01459
67.2 0.01295
67.25 0.01022
67.3 0.01112
67.35 0.0118
67.4 0.00636
67.45 0.00086
67.5 -0.0019
67.55 -0.00442
67.6 -0.0087
67.65 -0.0142
67.7 -0.01445
67.75 -0.00932
67.8 -0.00106
67.85 0.00041
67.9 0.0046
67.95 0.00562
68 0.00855
68.05 0.01227
68.1 0.01303
68.15 0.00913
68.2 0.00686
68.25 0.00602
68.3 0.00461
68.35 0.00634
68.4 0.00562
68.45 0.0011
68.5 -0.00693
68.55 -0.01315
68.6 -0.01533
68.65 -0.01898
68.7 -0.02162
68.75 -0.02571
68.8 -0.02969
68.85 -0.03091
68.9 -0.03289
68.95 -0.03544
69 -0.03747
69.05 -0.03386
69.1 -0.027
69.15 -0.02365
69.2 -0.02122
69.25 -0.01597
69.3 -0.01197
69.35 -0.00812
69.4 -0.00443
69.45 -0.00225
69.5 -0.00212
69.55 -0.00194
69.6 0.00256
69.65 0.00821
69.7 0.00994
69.75 0.01085
69.8 0.01319
69.85 0.01605
69.9 0.02102
69.95 0.02348
70 0.02646
70.05 0.02217
70.1 0.0132
70.15 0.00264
70.2 -0.00661
70.25 -0.01109
70.3 -0.01251
70.35 -0.01326
70.4 -0.01222
70.45 -0.01059
70.5 -0.0086
70.55 -0.01124
70.6 -0.0081
70.65 -0.00221
70.7 0.00355
70.75 0.00522
70.8 0.00551
70.85 0.00516
70.9 0.00767
70.95 0.00518
71 0.00688
71.05 0.00775
71.1 0.00318
71.15 -0.00284
71.2 -0.01068
71.25 -0.01428
71.3 -0.02002
71.35 -0.02233
71.4 -0.02079
71.45 -0.01984
71.5 -0.01835
71.55 -0.02036
71.6 -0.01966
71.65 -0.02212
71.7 -0.02253
71.75 -0.02209
71.8 -0.01548
71.85 -0.01416
71.9 -0.01453
71.95 -0.01588
72 -0.01911
72.05 -0.02007
72.1 -0.01593
72.15 -0.01333
72.2 -0.00664
72.25 -0.00588
72.3 -0.00823
72.35 -0.00519
72.4 -0.00503
72.45 -0.00343
72.5 -0.0008
72.55 0.0053
72.6 0.0116
72.65 0.01053
72.7 0.00496
72.75 0.00155
72.8 -0.00243
72.85 -0.00045
72.9 -0.00246
72.95 -0.00124
73 -0.00354
73.05 -0.0031
73.1 -0.00252
73.15 -0.00051
73.2 -0.00078
73.25 0.00263
73.3 0.00032
73.35 -0.00418
73.4 -0.00547
73.45 -0.00674
73.5 -0.00209
73.55 0.00589
73.6 0.01462
73.65 0.0177
73.7 0.01506
73.75 0.00891
73.8 0.00372
73.85 -0.00255
73.9 -0.00417
73.95 -0.00533
74 -0.01
74.05 -0.00802
74.1 -0.0055
74.15 -0.00281
74.2 0.00078
74.25 0.00028
74.3 -0.00198
74.35 -0.00152
74.4 0.00351
74.45 0.00814
74.5 0.00728
74.55 0.00846
74.6 0.01296
74.65 0.01892
74.7 0.02015
74.75 0.01631
74.8 0.00897
74.85 0.00748
74.9 0.00753
74.95 0.00275
75 0.00095
75.05 0.00022
75.1 -0.00459
75.15 -0.00659
75.2 -0.00731
75.25 -0.00305
75.3 0.00018
75.35 0.00555
75.4 0.00673
75.45 0.00736
75.5 0.01065
75.55 0.01226
75.6 0.00886
75.65 0.00687
75.7 0.00875
75.75 0.00924
75.8 0.00681
75.85 0.00889
75.9 0.00987
75.95 0.01116
76 0.01089
76.05 0.01326
76.1 0.0113
76.15 0.00683
76.2 0.00604
76.25 0.00402
76.3 0.00507
76.35 0.00461
76.4 0.00413
76.45 0.00514
76.5 0.00886
76.55 0.00775
76.6 0.00446
76.65 -0.00259
76.7 -0.00562
76.75 -0.00819
76.8 -0.00506
76.85 -0.00311
76.9 -0.00328
76.95 -0.00246
77 0.00038
77.05 0.00112
77.1 -0.00258
77.15 -0.0072
77.2 -0.01243
77.25 -0.01656
77.3 -0.01555
77.35 -0.00955
77.4 -0.00564
77.45 -0.00727
77.5 -0.00377
77.55 -0.00355
77.6 -0.00342
77.65 0.00027
77.7 0.00306
77.75 0.00379
77.8 0.00737
77.85 0.0113
77.9 0.017
77.95 0.0182
78 0.02031
78.05 0.01536
78.1 0.01527
78.15 0.01614
78.2 0.01869
78.25 0.01903
78.3 0.01538
78.35 0.01618
78.4 0.01958
78.45 0.01743
78.5 0.01209
78.55 0.00943
78.6 0.00642
78.65 0.00152
78.7 -0.00063
78.75 0.00063
78.8 0.00231
78.85 -0.00103
78.9 -0.00194
78.95 -0.00271
79 -0.00034
79.05 -0.00214
79.1 -0.00573
79.15 -0.00415
79.2 -0.00642
79.25 -0.01149
79.3 -0.01362
79.35 -0.01099
79.4 -0.00578
79.45 0.00072
79.5 0.00004
79.55 0.00038
79.6 -0.00391
79.65 -0.00803
79.7 -0.01263
79.75 -0.0182
79.8 -0.02189
79.85 -0.02583
79.9 -0.02489
79.95 -0.02132
80 -0.01463
80.05 -0.01167
80.1 -0.01054
80.15 -0.00642
80.2 -0.0057
80.25 -0.00857
80.3 -0.00711
80.35 -0.00343
80.4 -0.00031
80.45 -0.00104
80.5 -0.00073
80.55 -0.00071
80.6 -0.00154
80.65 0.00264
80.7 0.00967
80.75 0.00958
80.8 0.00429
80.85 0.00056
80.9 0.00155
80.95 -0.0009
81 -0.00115
81.05 -0.00068
81.1 0.00199
81.15 0.00656
81.2 0.00991
81.25 0.00972
81.3 0.00929
81.35 0.00405
81.4 -0.00199
81.45 -0.00708
81.5 -0.01229
81.55 -0.01767
81.6 -0.0205
81.65 -0.02524
81.7 -0.02834
81.75 -0.02768
81.8 -0.0254
81.85 -0.01849
81.9 -0.01022
81.95 -0.00852
82 -0.00368
82.05 -0.00039
82.1 -0.00266
82.15 -0.00586
82.2 -0.00386
82.25 -0.0011
82.3 -0.00104
82.35 -0.00507
82.4 -0.00446
82.45 -0.00777
82.5 -0.0112
82.55 -0.00827
82.6 -0.00934
82.65 -0.01193
82.7 -0.01374
82.75 -0.00947
82.8 -0.00172
82.85 0.00639
82.9 0.00826
82.95 0.00946
83 0.01279
83.05 0.01612
83.1 0.02091
83.15 0.02254
83.2 0.01868
83.25 0.01763
83.3 0.01213
83.35 0.0061
83.4 -0.00234
83.45 -0.00881
83.5 -0.01263
83.55 -0.01231
83.6 -0.0123
83.65 -0.00988
83.7 -0.00784
83.75 -0.01006
83.8 -0.01219
83.85 -0.00848
83.9 -0.00729
83.95 -0.00747
84 -0.00817
84.05 -0.00837
84.1 -0.00469
84.15 -0.00423
84.2 -0.00629
84.25 -0.00567
84.3 -0.00367
84.35 -0.00642
84.4 -0.00852
84.45 -0.00772
84.5 -0.00415
84.55 -0.00459
84.6 -0.00551
84.65 -0.00472
84.7 0.00082
84.75 0.00756
84.8 0.01144
84.85 0.00904
84.9 0.00362
84.95 0.00251
85 0.00476
85.05 0.00418
85.1 0.00042
85.15 -0.00187
85.2 -0.00006
85.25 -0.00216
85.3 0.00151
85.35 0.00498
85.4 0.00538
85.45 0.0092
85.5 0.0126
85.55 0.01011
85.6 0.00713
85.65 0.00178
85.7 -0.00277
85.75 -0.00726
85.8 -0.01387
85.85 -0.01957
85.9 -0.02368
85.95 -0.02123
86 -0.01747
86.05 -0.01568
86.1 -0.01279
86.15 -0.00952
86.2 -0.00405
86.25 0.00446
86.3 0.00732
86.35 0.00709
86.4 0.011
86.45 0.01704
86.5 0.02197
86.55 0.023
86.6 0.02355
86.65 0.02331
86.7 0.02138
86.75 0.01437
86.8 0.00691
86.85 -0.00271
86.9 -0.01048
86.95 -0.01273
87 -0.01623
87.05 -0.01866
87.1 -0.01816
87.15 -0.01705
87.2 -0.01936
87.25 -0.01545
87.3 -0.01284
87.35 -0.00792
87.4 -0.00128
87.45 0.00367
87.5 0.00813
87.55 0.00876
87.6 0.00926
87.65 0.00633
87.7 0.00011
87.75 -0.00645
87.8 -0.01041
87.85 -0.01625
87.9 -0.01771
87.95 -0.0197
88 -0.01884
88.05 -0.01756
88.1 -0.01932
88.15 -0.02111
88.2 -0.02069
88.25 -0.02291
88.3 -0.01936
88.35 -0.01965
88.4 -0.0175
88.45 -0.01632
88.5 -0.0121
88.55 -0.01076
88.6 -0.0113
88.65 -0.01052
88.7 -0.00931
88.75 -0.00536
88.8 -0.00324
88.85 0.00129
88.9 0.00595
88.95 0.00742
89 0.00478
89.05 0.0064
89.1 0.00858
89.15 0.01145
89.2 0.00881
89.25 0.01127
89.3 0.01607
89.35 0.02029
89.4 0.02185
89.45 0.01968
89.5 0.01717
89.55 0.01819
89.6 0.02233
89.65 0.01932
89.7 0.01396
89.75 0.00868
89.8 0.00678
89.85 0.00704
89.9 0.0057
89.95 0.00497
90 0.00094
90.05 -0.00497
90.1 -0.00697
90.15 -0.01177
90.2 -0.01081
90.25 -0.0101
90.3 -0.00734
90.35 -0.00283
90.4 -0.0032
90.45 -0.00392
90.5 -0.00036
90.55 -0.00106
90.6 0.00033
90.65 -0.00143
90.7 -0.0013
90.75 -0.0022
90.8 0.00133
90.85 -0.0008
90.9 -0.0011
90.95 0.00213
91 0.00007
91.05 0.00077
91.1 -0.00075
91.15 -0.00179
91.2 0.00211
91.25 0.00913
91.3 0.0158
91.35 0.01841
91.4 0.01457
91.45 0.01179
91.5 0.01004
91.55 0.00532
91.6 -0.00012
91.65 0.00033
91.7 -0.00068
91.75 0.00306
91.8 0.00227
91.85 -0.00068
91.9 0.00036
91.95 0.00098
92 0.00308
92.05 0.00713
92.1 0.01235
92.15 0.01532
92.2 0.01854
92.25 0.01766
92.3 0.01995
92.35 0.01927
92.4 0.01631
92.45 0.01038
92.5 0.01019
92.55 0.00492
92.6 0.00324
92.65 -0.0006
92.7 0.00033
92.75 -0.00119
92.8 -0.00143
92.85 0.00314
92.9 0.00182
92.95 0.00381
93 0.00424
93.05 0.00393
93.1 0.00418
93.15 0.00677
93.2 0.00672
93.25 0.00978
93.3 0.0134
93.35 0.01628
93.4 0.01836
93.45 0.02149
93.5 0.0233
93.55 0.02473
93.6 0.02733
93.65 0.02831
93.7 0.02427
93.75 0.02269
93.8 0.02118
93.85 0.01912
93.9 0.01815
93.95 0.01462
94 0.01485
94.05 0.0122
94.1 0.01222
94.15 0.01049
94.2 0.00995
94.25 0.00873
94.3 0.00768
94.35 0.00184
94.4 -0.00641
94.45 -0.00885
94.5 -0.01375
94.55 -0.02003
94.6 -0.0186
94.65 -0.01419
94.7 -0.00861
94.75 -0.00124
94.8 0.00211
94.85 0.00527
94.9 0.00803
94.95 0.00857
95 0.00623
95.05 0.00604
95.1 0.00356
95.15 0.00133
95.2 -0.00498
95.25 -0.01347
95.3 -0.01489
95.35 -0.01084
95.4 -0.00531
95.45 -0.00587
95.5 -0.00626
95.55 -0.00319
95.6 -0.00088
95.65 -0.00296
95.7 -0.00382
95.75 -0.00111
95.8 0.00271
95.85 0.00192
95.9 0.00356
95.95 -0.00054
96 -0.00648
96.05 -0.01465
96.1 -0.01442
96.15 -0.01577
96.2 -0.01463
96.25 -0.01711
96.3 -0.01319
96.35 -0.01453
96.4 -0.01029
96.45 -0.0074
96.5 -0.00926
96.55 -0.00842
96.6 -0.00755
96.65 -0.01119
96.7 -0.01451
96.75 -0.01309
96.8 -0.00988
96.85 -0.00535
96.9 -0.00424
96.95 -0.00486
97 -0.00915
97.05 -0.00704
97.1 -0.007
97.15 -0.00398
97.2 0.00187
97.25 0.00102
97.3 -0.00239
97.35 -0.00135
97.4 0.00009
97.45 0.00162
97.5 0.00336
97.55 0.002
97.6 0.00363
97.65 0.00548
97.7 0.00811
97.75 0.00772
97.8 0.00811
97.85 0.00666
97.9 0.00709
97.95 0.00787
98 0.00301
98.05 0.00302
98.1 0.0061
98.15 0.00777
98.2 0.01117
98.25 0.01591
98.3 0.01471
98.35 0.01433
98.4 0.01045
98.45 0.00861
98.5 0.01025
98.55 0.00882
98.6 0.00286
98.65 -0.00247
98.7 -0.00723
98.75 -0.00636
98.8 -0.00575
98.85 -0.00248
98.9 0.00242
98.95 0.00503
99 0.00562
99.05 0.00686
99.1 0.00554
99.15 0.005
99.2 0.00086
99.25 -0.00062
99.3 -0.00284
99.35 -0.00506
99.4 -0.00244
99.45 -0.00086
99.5 0.00253
99.55 0.00081
99.6 0.00176
99.65 0.00601
99.7 0.01137
99.75 0.01541
99.8 0.01838
99.85 0.0172
99.9 0.01595
99.95 0.01755
