0 0
0.05 0.00174
0.1 0.00672
0.15 0.00931
0.2 0.01552
0.25 0.02302
0.3 0.03131
0.35 0.04132
0.4 0.04409
0.45 0.04372
0.5 0.04855
0.55 0.05565
0.6 0.06002
0.65 0.06323
0.7 0.06704
0.75 0.06463
0.8 0.06183
0.85 0.0633
0.9 0.06319
0.95 0.0604
1 0.05963
1.05 0.05616
1.1 0.05249
1.15 0.04521
1.2 0.04005
1.25 0.03856
1.3 0.04002
1.35 0.03878
1.4 0.03945
1.45 0.04001
1.5 0.04195
1.55 0.04117
1.6 0.04219
1.65 0.0388
1.7 0.03595
1.75 0.0372
1.8 0.03694
1.85 0.03593
1.9 0.03092
1.95 0.03057
2 0.03354
2.05 0.0334
2.1 0.03571
2.15 0.03537
2.2 0.03735
2.25 0.03946
2.3 0.03601
2.35 0.02977
2.4 0.02959
2.45 0.03339
2.5 0.03638
2.55 0.03444
2.6 0.03214
2.65 0.02574
2.7 0.02193
2.75 0.01551
2.8 0.01066
2.85 0.01012
2.9 0.01286
2.95 0.01601
3 0.01468
3.05 0.01257
3.1 0.01429
3.15 0.01848
3.2 0.02142
3.25 0.02338
3.3 0.02127
3.35 0.02174
3.4 0.02011
3.45 0.01583
3.5 0.01554
3.55 0.01288
3.6 0.0138
3.65 0.01169
3.7 0.01484
3.75 0.01312
3.8 0.01407
3.85 0.01259
3.9 0.00849
3.95 0.00335
4 -0.00131
4.05 -0.0012
4.1 0.00181
4.15 0.00881
4.2 0.01747
4.25 0.01737
4.3 0.01131
4.35 0.00491
4.4 -0.00521
4.45 -0.01034
4.5 -0.01972
4.55 -0.02538
4.6 -0.03386
4.65 -0.04249
4.7 -0.05701
4.75 -0.07411
4.8 -0.09701
4.85 -0.12402
4.9 -0.1552
4.95 -0.19484
5 -0.23913
5.05 -0.28949
5.1 -0.34523
5.15 -0.40576
5.2 -0.47004
5.25 -0.53427
5.3 -0.60193
5.35 -0.68064
5.4 -0.76364
5.45 -0.84815
5.5 -0.93733
5.55 -1.03401
5.6 -1.13333
5.65 -1.23734
5.7 -1.34058
5.75 -1.43783
5.8 -1.53037
5.85 -1.61789
5.9 -1.704
5.95 -1.78507
6 -1.86756
6.05 -1.94921
6.1 -2.02731
6.15 -2.10523
6.2 -2.17959
6.25 -2.24555
6.3 -2.30961
6.35 -2.36311
6.4 -2.4059
6.45 -2.44505
6.5 -2.47277
6.55 -2.4904
6.6 -2.50109
6.65 -2.49922
6.7 -2.48773
6.75 -2.46796
6.8 -2.43681
6.85 -2.39164
6.9 -2.33106
6.95 -2.25242
7 -2.15883
7.05 -2.04834
7.1 -1.91789
7.15 -1.77186
7.2 -1.61364
7.25 -1.44199
7.3 -1.25989
7.35 -1.07045
7.4 -0.87438
7.45 -0.67167
7.5 -0.46745
7.55 -0.25842
7.6 -0.04802
7.65 0.15997
7.7 0.3665
7.75 0.56546
7.8 0.75616
7.85 0.9318
7.9 1.09073
7.95 1.23599
8 1.37335
8.05 1.50111
8.1 1.61798
8.15 1.72552
8.2 1.81825
8.25 1.89827
8.3 1.96645
8.35 2.02915
8.4 2.07894
8.45 2.12012
8.5 2.15844
8.55 2.18491
8.6 2.20995
8.65 2.22391
8.7 2.22994
8.75 2.23336
8.8 2.23114
8.85 2.23124
8.9 2.22829
8.95 2.21928
9 2.20915
9.05 2.20109
9.1 2.18661
9.15 2.1737
9.2 2.16086
9.25 2.1454
9.3 2.12392
9.35 2.10389
9.4 2.07946
9.45 2.05275
9.5 2.02285
9.55 1.98918
9.6 1.9619
9.65 1.93669
9.7 1.90924
9.75 1.88307
9.8 1.84962
9.85 1.81168
9.9 1.77465
9.95 1.73404
10 1.69664
10.05 1.65704
10.1 1.61448
10.15 1.57763
10.2 1.53608
10.25 1.49277
10.3 1.45498
10.35 1.41975
10.4 1.37706
10.45 1.33652
10.5 1.29519
10.55 1.25244
10.6 1.20415
10.65 1.151
10.7 1.1031
10.75 1.05464
10.8 1.00482
10.85 0.95159
10.9 0.90257
10.95 0.85785
11 0.81277
11.05 0.77039
11.1 0.73111
11.15 0.68993
11.2 0.64591
11.25 0.59827
11.3 0.55581
11.35 0.51725
11.4 0.48047
11.45 0.44124
11.5 0.39773
11.55 0.35791
11.6 0.32024
11.65 0.27953
11.7 0.24152
11.75 0.20861
11.8 0.17708
11.85 0.14398
11.9 0.10662
11.95 0.07587
12 0.04323
12.05 0.01175
12.1 -0.01645
12.15 -0.04405
12.2 -0.07275
12.25 -0.09893
12.3 -0.12664
12.35 -0.14845
12.4 -0.16663
12.45 -0.17964
12.5 -0.18958
12.55 -0.1998
12.6 -0.20784
12.65 -0.21861
12.7 -0.23015
12.75 -0.24302
12.8 -0.25731
12.85 -0.27553
12.9 -0.29414
12.95 -0.31363
13 -0.32694
13.05 -0.34081
13.1 -0.34642
13.15 -0.35399
13.2 -0.35812
13.25 -0.36012
13.3 -0.36594
13.35 -0.37002
13.4 -0.37698
13.45 -0.3771
13.5 -0.37429
13.55 -0.37629
13.6 -0.37849
13.65 -0.38037
13.7 -0.38359
13.75 -0.3824
13.8 -0.37989
13.85 -0.37525
13.9 -0.37569
13.95 -0.37558
14 -0.3725
14.05 -0.37318
14.1 -0.37218
14.15 -0.36862
14.2 -0.36747
14.25 -0.36183
14.3 -0.35698
14.35 -0.35691
14.4 -0.35181
14.45 -0.35018
14.5 -0.35089
14.55 -0.34857
14.6 -0.34312
14.65 -0.33615
14.7 -0.3325
14.75 -0.33139
14.8 -0.32615
14.85 -0.32448
14.9 -0.32275
14.95 -0.3185
15 -0.31681
15.05 -0.31466
15.1 -0.30823
15.15 -0.29856
15.2 -0.28869
15.25 -0.2804
15.3 -0.27323
15.35 -0.26604
15.4 -0.2575
15.45 -0.25577
15.5 -0.25055
15.55 -0.24446
15.6 -0.23693
15.65 -0.23228
15.7 -0.22809
15.75 -0.22688
15.8 -0.22688
15.85 -0.22497
15.9 -0.22185
15.95 -0.21798
16 -0.21237
16.05 -0.20589
16.1 -0.20514
16.15 -0.20718
16.2 -0.20822
16.25 -0.21022
16.3 -0.2101
16.35 -0.20802
16.4 -0.20182
16.45 -0.19632
16.5 -0.19474
16.55 -0.19601
16.6 -0.19281
16.65 -0.19115
16.7 -0.18518
16.75 -0.17736
16.8 -0.17594
16.85 -0.17063
16.9 -0.16806
16.95 -0.16488
17 -0.16159
17.05 -0.15994
17.1 -0.15954
17.15 -0.1569
17.2 -0.15915
17.25 -0.16393
17.3 -0.16435
17.35 -0.16433
17.4 -0.16313
17.45 -0.15794
17.5 -0.1557
17.55 -0.15322
17.6 -0.15052
17.65 -0.14462
17.7 -0.14275
17.75 -0.13823
17.8 -0.13357
17.85 -0.12807
17.9 -0.1195
17.95 -0.11132
18 -0.10823
18.05 -0.10311
18.1 -0.10064
18.15 -0.10474
18.2 -0.11219
18.25 -0.11227
18.3 -0.11047
18.35 -0.11325
18.4 -0.11856
18.45 -0.1174
18.5 -0.11292
18.55 -0.1087
18.6 -0.10259
18.65 -0.10199
18.7 -0.10505
18.75 -0.10512
18.8 -0.10783
18.85 -0.10567
18.9 -0.10522
18.95 -0.10736
19 -0.10742
19.05 -0.10944
19.1 -0.10405
19.15 -0.09634
19.2 -0.08681
19.25 -0.08199
19.3 -0.08003
19.35 -0.08246
19.4 -0.07934
19.45 -0.07274
19.5 -0.07079
19.55 -0.06992
19.6 -0.06545
19.65 -0.06074
19.7 -0.06121
19.75 -0.06127
19.8 -0.06211
19.85 -0.0669
19.9 -0.07424
19.95 -0.0757
20 -0.07443
20.05 -0.07651
20.1 -0.07764
20.15 -0.07987
20.2 -0.08374
20.25 -0.08438
20.3 -0.08681
20.35 -0.08569
20.4 -0.07814
20.45 -0.07295
20.5 -0.06375
20.55 -0.05373
20.6 -0.0474
20.65 -0.04678
20.7 -0.04324
20.75 -0.04036
20.8 -0.03461
20.85 -0.03577
20.9 -0.03934
20.95 -0.03859
21 -0.04079
21.05 -0.04507
21.1 -0.04841
21.15 -0.04801
21.2 -0.04675
21.25 -0.04626
21.3 -0.04202
21.35 -0.03992
21.4 -0.04104
21.45 -0.03772
21.5 -0.03213
21.55 -0.03345
21.6 -0.03419
21.65 -0.03027
21.7 -0.02696
21.75 -0.02392
21.8 -0.02416
21.85 -0.02081
21.9 -0.02288
21.95 -0.02146
22 -0.02296
22.05 -0.02415
22.1 -0.02363
22.15 -0.02451
22.2 -0.02533
22.25 -0.02861
22.3 -0.03103
22.35 -0.03418
22.4 -0.0381
22.45 -0.0429
22.5 -0.04329
22.55 -0.04415
22.6 -0.04734
22.65 -0.0512
22.7 -0.05079
22.75 -0.04938
22.8 -0.04471
22.85 -0.04186
22.9 -0.0383
22.95 -0.03526
23 -0.03695
23.05 -0.03982
23.1 -0.03785
23.15 -0.0369
23.2 -0.03293
23.25 -0.03107
23.3 -0.03089
23.35 -0.03109
23.4 -0.02624
23.45 -0.02296
23.5 -0.01899
23.55 -0.01489
23.6 -0.01477
23.65 -0.01441
23.7 -0.01404
23.75 -0.01447
23.8 -0.01456
23.85 -0.01891
23.9 -0.01983
23.95 -0.01587
24 -0.01104
24.05 -0.0116
24.1 -0.01252
24.15 -0.01297
24.2 -0.01623
24.25 -0.01603
24.3 -0.01953
24.35 -0.01949
24.4 -0.02028
24.45 -0.02154
24.5 -0.0216
24.55 -0.01777
24.6 -0.01698
24.65 -0.01964
24.7 -0.02024
24.75 -0.0211
24.8 -0.01678
24.85 -0.01025
24.9 -0.00943
24.95 -0.00719
25 -0.00911
25.05 -0.01051
25.1 -0.01093
25.15 -0.01365
25.2 -0.01707
25.25 -0.01811
25.3 -0.01417
25.35 -0.01249
25.4 -0.01576
25.45 -0.01937
25.5 -0.01819
25.55 -0.01462
25.6 -0.01213
25.65 -0.00926
25.7 -0.00837
25.75 -0.00817
25.8 -0.00759
25.85 -0.00592
25.9 -0.0028
25.95 0.00254
26 0.00279
26.05 0.00501
26.1 0.00725
26.15 0.01122
26.2 0.01637
26.25 0.01315
26.3 0.01208
26.35 0.00822
26.4 0.00754
26.45 0.00743
26.5 0.0031
26.55 0.0011
26.6 -0.00368
26.65 -0.00914
26.7 -0.01001
26.75 -0.01451
26.8 -0.01655
26.85 -0.01659
26.9 -0.01333
26.95 -0.0119
27 -0.01192
27.05 -0.008
27.1 -0.00505
27.15 -0.00062
27.2 0.00598
27.25 0.01246
27.3 0.01467
27.35 0.01453
27.4 0.00879
27.45 0.0025
27.5 -0.00348
27.55 -0.00695
27.6 -0.01274
27.65 -0.01777
27.7 -0.02399
27.75 -0.02739
27.8 -0.03129
27.85 -0.02838
27.9 -0.02037
27.95 -0.01695
28 -0.01741
28.05 -0.01775
28.1 -0.01427
28.15 -0.01271
28.2 -0.01169
28.25 -0.00984
28.3 -0.0098
28.35 -0.01079
28.4 -0.01014
28.45 -0.00562
28.5 -0.0024
28.55 -0.00363
28.6 -0.00569
28.65 -0.00812
28.7 -0.01315
28.75 -0.01691
28.8 -0.02103
28.85 -0.01766
28.9 -0.01817
28.95 -0.02137
29 -0.02549
29.05 -0.02198
29.1 -0.01573
29.15 -0.00806
29.2 -0.00323
29.25 -0.00388
29.3 -0.00547
29.35 -0.00193
29.4 -0.00335
29.45 -0.00649
29.5 -0.01165
29.55 -0.01557
29.6 -0.01271
29.65 -0.00776
29.7 -0.00599
29.75 -0.00414
29.8 -0.00398
29.85 0.00013
29.9 0.00456
29.95 0.01091
30 0.01634
30.05 0.01471
30.1 0.01165
30.15 0.01305
30.2 0.01485
30.25 0.01223
30.3 0.00579
30.35 0.00347
30.4 0.00151
30.45 0.00355
30.5 0.00881
30.55 0.01064
30.6 0.01186
30.65 0.0145
30.7 0.015
30.75 0.01558
30.8 0.01229
30.85 0.00939
30.9 0.01075
30.95 0.01314
31 0.0154
31.05 0.01593
31.1 0.01674
31.15 0.01542
31.2 0.01502
31.25 0.01273
31.3 0.01223
31.35 0.01469
31.4 0.01683
31.45 0.01305
31.5 0.00975
31.55 0.00683
31.6 0.00544
31.65 0.00055
31.7 -0.00612
31.75 -0.01456
31.8 -0.02289
31.85 -0.02266
31.9 -0.02134
31.95 -0.02243
32 -0.0257
32.05 -0.0223
32.1 -0.01576
32.15 -0.01495
32.2 -0.01593
32.25 -0.02019
32.3 -0.02015
32.35 -0.01901
32.4 -0.01731
32.45 -0.01884
32.5 -0.01988
32.55 -0.01632
32.6 -0.01749
32.65 -0.01628
32.7 -0.0099
32.75 -0.00149
32.8 -0.0002
32.85 -0.00025
32.9 -0.00419
32.95 -0.00601
33 -0.01137
33.05 -0.01621
33.1 -0.01538
33.15 -0.01567
33.2 -0.01016
33.25 -0.00253
33.3 0.00523
33.35 0.00659
33.4 0.00415
33.45 0.00525
33.5 0.00925
33.55 0.00782
33.6 0.00562
33.65 0.00331
33.7 0.00368
33.75 0.00768
33.8 0.0053
33.85 0.00153
33.9 0.00225
33.95 0.00015
34 0.00317
34.05 0.00016
34.1 -0.00319
34.15 -0.0039
34.2 -0.00185
34.25 0.00244
34.3 0.00865
34.35 0.01268
34.4 0.01769
34.45 0.02245
34.5 0.02041
34.55 0.0208
34.6 0.02117
34.65 0.01632
34.7 0.0113
34.75 0.00398
34.8 -0.00226
34.85 -0.00746
34.9 -0.00875
34.95 -0.00873
35 -0.01021
35.05 -0.01054
35.1 -0.01448
35.15 -0.01179
35.2 -0.01063
35.25 -0.01345
35.3 -0.01586
35.35 -0.01867
35.4 -0.01531
35.45 -0.01498
35.5 -0.0129
35.55 -0.01008
35.6 -0.00649
35.65 -0.00003
35.7 -0.00041
35.75 -0.00236
35.8 -0.0009
35.85 0.00299
35.9 0.00282
35.95 -0.00055
36 -0.00703
36.05 -0.01493
36.1 -0.01816
36.15 -0.02232
36.2 -0.02178
36.25 -0.0224
36.3 -0.02035
36.35 -0.01883
36.4 -0.01178
36.45 -0.00804
36.5 -0.00057
36.55 0.00808
36.6 0.01567
36.65 0.01814
36.7 0.01906
36.75 0.01785
36.8 0.01894
36.85 0.01729
36.9 0.01723
36.95 0.01419
37 0.0147
37.05 0.01271
37.1 0.01419
37.15 0.0165
37.2 0.01942
37.25 0.01607
37.3 0.01251
37.35 0.01273
37.4 0.00836
37.45 0.00116
37.5 -0.00667
37.55 -0.01057
37.6 -0.00939
37.65 -0.01182
37.7 -0.01575
37.75 -0.01356
37.8 -0.00971
37.85 -0.00744
37.9 -0.00603
37.95 -0.00054
38 0.00419
38.05 0.00885
38.1 0.0076
38.15 0.00957
38.2 0.00769
38.25 0.00573
38.3 0.00833
38.35 0.01325
38.4 0.01597
38.45 0.01239
38.5 0.00615
38.55 0.00354
38.6 -0.0022
38.65 -0.00821
38.7 -0.01588
38.75 -0.02314
38.8 -0.0222
38.85 -0.01892
38.9 -0.01705
38.95 -0.01487
39 -0.01036
39.05 -0.00438
39.1 -0.00034
39.15 -0.00008
39.2 -0.00355
39.25 -0.0092
39.3 -0.01397
39.35 -0.01391
39.4 -0.01478
39.45 -0.01474
39.5 -0.0096
39.55 -0.00169
39.6 0.00749
39.65 0.01413
39.7 0.02062
39.75 0.02358
39.8 0.02406
39.85 0.023
39.9 0.01588
39.95 0.01164
40 0.00715
40.05 -0.00062
40.1 -0.00577
40.15 -0.00557
40.2 -0.00406
40.25 0.00119
40.3 0.00567
40.35 0.0081
40.4 0.00799
40.45 0.01014
40.5 0.01345
40.55 0.01286
40.6 0.01523
40.65 0.01926
40.7 0.01535
40.75 0.01228
40.8 0.00884
40.85 0.00489
40.9 -0.00271
40.95 -0.00751
41 -0.01325
41.05 -0.01667
41.1 -0.01883
41.15 -0.01977
41.2 -0.0232
41.25 -0.02221
41.3 -0.02326
41.35 -0.02289
41.4 -0.02292
41.45 -0.02286
41.5 -0.01724
41.55 -0.01647
41.6 -0.01704
41.65 -0.01439
41.7 -0.01612
41.75 -0.01817
41.8 -0.01637
41.85 -0.01669
41.9 -0.01134
41.95 -0.01022
42 -0.00626
42.05 -0.00617
42.1 -0.00158
42.15 0.00299
42.2 0.0097
42.25 0.00861
42.3 0.00385
42.35 0.001
42.4 0.0007
42.45 -0.0014
42.5 -0.00115
42.55 -0.00209
42.6 -0.00635
42.65 -0.00958
42.7 -0.01294
42.75 -0.01035
42.8 -0.0117
42.85 -0.00902
42.9 -0.00623
42.95 -0.0053
43 -0.00529
43.05 -0.00057
43.1 0.00259
43.15 0.00676
43.2 0.00483
43.25 -0.00117
43.3 -0.00117
43.35 -0.00491
43.4 -0.00919
43.45 -0.01502
43.5 -0.01696
43.55 -0.01367
43.6 -0.01396
43.65 -0.01389
43.7 -0.01656
43.75 -0.01273
43.8 -0.00657
43.85 -0.00132
43.9 0.00506
43.95 0.00828
44 0.00777
44.05 0.00859
44.1 0.00843
44.15 0.00858
44.2 0.01167
44.25 0.01279
44.3 0.01471
44.35 0.01286
44.4 0.01141
44.45 0.01098
44.5 0.01328
44.55 0.00938
44.6 0.003
44.65 -0.00509
44.7 -0.00673
44.75 -0.00885
44.8 -0.01101
44.85 -0.01409
44.9 -0.01555
44.95 -0.01383
45 -0.00933
45.05 -0.00875
45.1 -0.00411
45.15 0.00336
45.2 0.00857
45.25 0.01013
45.3 0.00964
45.35 0.00558
45.4 -0.00184
45.45 -0.00202
45.5 -0.00128
45.55 -0.00345
45.6 -0.00194
45.65 -0.00243
45.7 0.00138
45.75 0.00833
45.8 0.00758
45.85 0.00261
45.9 0.0005
45.95 -0.00097
46 -0.00356
46.05 -0.00032
46.1 -0.00197
46.15 -0.00161
46.2 -0.00185
46.25 0.0004
46.3 0.00492
46.35 0.01129
46.4 0.0149
46.45 0.01343
46.5 0.01288
46.55 0.01058
46.6 0.01279
46.65 0.01706
46.7 0.02043
46.75 0.02095
46.8 0.02006
46.85 0.01568
46.9 0.01077
46.95 0.00285
47 -0.00188
47.05 -0.00059
47.1 -0.00436
47.15 -0.00451
47.2 -0.00304
47.25 -0.00532
47.3 -0.00474
47.35 -0.00415
47.4 -0.00794
47.45 -0.01062
47.5 -0.01007
47.55 -0.00474
47.6 -0.00342
47.65 -0.00553
47.7 -0.00843
47.75 -0.00957
47.8 -0.00564
47.85 -0.00139
47.9 0.00027
47.95 -0.0003
48 -0.0044
48.05 -0.00366
48.1 -0.00368
48.15 -0.00659
48.2 -0.00763
48.25 -0.0091
48.3 -0.01282
48.35 -0.01395
48.4 -0.01372
48.45 -0.01058
48.5 -0.00813
48.55 -0.00528
48.6 -0.00122
48.65 0.00319
48.7 0.00467
48.75 0.0052
48.8 0.00894
48.85 0.01345
48.9 0.01462
48.95 0.01735
49 0.01769
49.05 0.01265
49.1 0.01163
49.15 0.01261
49.2 0.01571
49.25 0.01278
49.3 0.00605
49.35 0.00075
49.4 0.00176
49.45 0.0053
49.5 0.0073
49.55 0.00526
49.6 0.00142
49.65 0.00126
49.7 -0.00034
49.75 -0.00248
49.8 -0.00825
49.85 -0.00915
49.9 -0.01136
49.95 -0.01273
50 -0.01244
50.05 -0.0139
50.1 -0.01104
50.15 -0.00984
50.2 -0.0103
50.25 -0.00733
50.3 -0.00575
50.35 -0.00439
50.4 -0.00061
50.45 0.00234
50.5 0.0038
50.55 0.0063
50.6 0.00413
50.65 0.0023
50.7 -0.00153
50.75 -0.00092
50.8 0.00184
50.85 0.00404
50.9 0.00315
50.95 0.00667
51 0.00836
51.05 0.00823
51.1 0.00302
51.15 0.00085
51.2 0.0014
51.25 -0.00022
51.3 -0.00167
51.35 -0.00714
51.4 -0.01452
51.45 -0.01401
51.5 -0.00842
51.55 -0.00851
51.6 -0.00378
51.65 -0.00289
51.7 0.00156
51.75 0.00036
51.8 -0.00055
51.85 0.00191
51.9 0.00325
51.95 0.002
52 0.00227
52.05 0.00034
52.1 0.0022
52.15 0.00712
52.2 0.00638
52.25 0.00513
52.3 0.00641
52.35 0.00312
52.4 -0.0027
52.45 -0.00773
52.5 -0.00928
52.55 -0.00568
52.6 -0.00702
52.65 -0.00499
52.7 -0.00771
52.75 -0.00552
52.8 -0.00022
52.85 0.00638
52.9 0.01103
52.95 0.01016
53 0.01326
53.05 0.01518
53.1 0.01168
53.15 0.00962
53.2 0.00615
53.25 0.00754
53.3 0.01073
53.35 0.0121
53.4 0.01138
53.45 0.00637
53.5 -0.00124
53.55 -0.00574
53.6 -0.01062
53.65 -0.00878
53.7 -0.00671
53.75 -0.00858
53.8 -0.00655
53.85 -0.0052
53.9 -0.00327
53.95 -0.00003
54 -0.00143
54.05 -0.00649
54.1 -0.00575
54.15 -0.00657
54.2 -0.00775
54.25 -0.00817
54.3 -0.01108
54.35 -0.01474
54.4 -0.01205
54.45 -0.00497
54.5 0.00072
54.55 0.00558
54.6 0.00829
54.65 0.01371
54.7 0.01784
54.75 0.01605
54.8 0.01305
54.85 0.01133
54.9 0.00466
54.95 -0.00397
55 -0.01018
55.05 -0.01309
55.1 -0.01571
55.15 -0.0166
55.2 -0.01855
55.25 -0.02236
55.3 -0.02639
55.35 -0.02782
55.4 -0.02819
55.45 -0.02501
55.5 -0.02224
55.55 -0.01909
55.6 -0.01095
55.65 -0.00906
55.7 -0.0084
55.75 -0.00679
55.8 -0.00043
55.85 0.00279
55.9 0.0067
55.95 0.00932
56 0.01303
56.05 0.01563
56.1 0.01319
56.15 0.01483
56.2 0.01742
56.25 0.01804
56.3 0.01765
56.35 0.01168
56.4 0.00991
56.45 0.00544
56.5 -0.00088
56.55 -0.00604
56.6 -0.00499
56.65 -0.00249
56.7 0.00195
56.75 0.00758
56.8 0.012
56.85 0.01452
56.9 0.01476
56.95 0.01313
57 0.00664
57.05 0.00045
57.1 -0.00798
57.15 -0.01473
57.2 -0.01836
57.25 -0.0195
57.3 -0.0207
57.35 -0.01917
57.4 -0.01942
57.45 -0.02168
57.5 -0.02378
57.55 -0.02143
57.6 -0.01734
57.65 -0.01236
57.7 -0.00692
57.75 -0.00496
57.8 -0.00433
57.85 -0.0051
57.9 -0.00053
57.95 0.00371
58 0.00302
58.05 0.00698
58.1 0.00986
58.15 0.01001
58.2 0.00946
58.25 0.00689
58.3 0.00807
58.35 0.0047
58.4 0.00001
58.45 -0.00711
58.5 -0.0076
58.55 -0.00355
58.6 0.00179
58.65 0.00158
58.7 0.00413
58.75 0.00758
58.8 0.01118
58.85 0.01511
58.9 0.01939
58.95 0.02212
59 0.01892
59.05 0.01129
59.1 0.00247
59.15 -0.00754
59.2 -0.01753
59.25 -0.02538
59.3 -0.03088
59.35 -0.03435
59.4 -0.03683
59.45 -0.03819
59.5 -0.03957
59.55 -0.03567
59.6 -0.02897
59.65 -0.02063
59.7 -0.01288
59.75 -0.00492
59.8 0.00013
59.85 0.00167
59.9 0.00639
59.95 0.01248
60 0.01407
60.05 0.01712
60.1 0.01427
60.15 0.01347
60.2 0.01022
60.25 0.00633
60.3 0.00114
60.35 -0.00222
60.4 -0.00528
60.45 -0.00844
60.5 -0.01307
60.55 -0.01678
60.6 -0.01785
60.65 -0.01206
60.7 -0.00256
60.75 0.00761
60.8 0.01349
60.85 0.01398
60.9 0.01134
60.95 0.00543
61 0.00244
61.05 0.00021
61.1 0.00127
61.15 0.00022
61.2 -0.00041
61.25 0.00079
61.3 -0.0021
61.35 -0.00107
61.4 0.00143
61.45 -0.00097
61.5 0.00193
61.55 0.00161
61.6 0.00077
61.65 0.00281
61.7 0.0022
61.75 -0.00183
61.8 -0.00486
61.85 -0.00333
61.9 0.00075
61.95 0.00286
62 0.00505
62.05 0.00328
62.1 0.00277
62.15 0.00675
62.2 0.01004
62.25 0.01015
62.3 0.00802
62.35 0.00537
62.4 0.00628
62.45 0.00517
62.5 0.00241
62.55 -0.00094
62.6 -0.00476
62.65 -0.00338
62.7 -0.00082
62.75 0.00539
62.8 0.00506
62.85 0.00576
62.9 0.01003
62.95 0.0161
63 0.01713
63.05 0.01375
63.1 0.01197
63.15 0.00651
63.2 0.00635
63.25 0.0015
63.3 -0.00222
63.35 -0.00404
63.4 -0.00137
63.45 0.00395
63.5 0.00613
63.55 0.01029
63.6 0.01537
63.65 0.01763
63.7 0.01819
63.75 0.02136
63.8 0.01852
63.85 0.01177
63.9 0.00721
63.95 0.00176
64 0.00175
64.05 -0.00041
64.1 -0.00311
64.15 -0.00018
64.2 0.00227
64.25 0.0036
64.3 0.00425
64.35 0.00836
64.4 0.01348
64.45 0.01326
64.5 0.01485
64.55 0.01204
64.6 0.00573
64.65 0.00328
64.7 -0.00019
64.75 -0.00711
64.8 -0.01543
64.85 -0.02221
64.9 -0.02421
64.95 -0.0281
65 -0.02472
65.05 -0.02026
65.1 -0.01518
65.15 -0.00755
65.2 -0.00198
65.25 0.0049
65.3 0.00628
65.35 0.00841
65.4 0.01132
65.45 0.00769
65.5 0.00563
65.55 0.00399
65.6 -0.00075
65.65 -0.00147
65.7 0.00046
65.75 0.00494
65.8 0.00844
65.85 0.00927
65.9 0.01224
65.95 0.01361
66 0.01674
66.05 0.01498
66.1 0.01531
66.15 0.01544
66.2 0.0117
66.25 0.01078
66.3 0.00822
66.35 0.00599
66.4 -0.00027
66.45 -0.0036
66.5 -0.0012
66.55 0.00144
66.6 0.0042
66.65 0.00289
66.7 0.00064
66.75 -0.00537
66.8 -0.00508
66.85 -0.0037
66.9 -0.00234
66.95 -0.00082
67 0.00024
67.05 0.00133
67.1 0.00373
67.15 0.00291
67.2 0.0001
67.25 -0.00403
67.3 -0.00263
67.35 -0.00104
67.4 0.0012
67.45 -0.00152
67.5 -0.00266
67.55 -0.00353
67.6 -0.00526
67.65 -0.0048
67.7 -0.00774
67.75 -0.00819
67.8 -0.00994
67.85 -0.01006
67.9 -0.00536
67.95 -0.00582
68 -0.00342
68.05 0.00104
68.1 0.0066
68.15 0.00844
68.2 0.00658
68.25 0.00154
68.3 -0.00506
68.35 -0.00867
68.4 -0.00878
68.45 -0.0106
68.5 -0.00885
68.55 -0.00969
68.6 -0.00557
68.65 0.00112
68.7 0.00077
68.75 -0.00021
68.8 -0.00014
68.85 0.00018
68.9 0.00151
68.95 -0.00251
69 -0.006
69.05 -0.01001
69.1 -0.01488
69.15 -0.01862
69.2 -0.01808
69.25 -0.01837
69.3 -0.02043
69.35 -0.01805
69.4 -0.01328
69.45 -0.00967
69.5 -0.00526
69.55 0.00019
69.6 0.00008
69.65 0.0015
69.7 0.00543
69.75 0.00482
69.8 0.00678
69.85 0.00979
69.9 0.0148
69.95 0.01329
70 0.00788
70.05 0.00164
70.1 0.00048
70.15 0.00199
70.2 0.00292
70.25 0.00244
70.3 0.00505
70.35 0.00835
70.4 0.01412
70.45 0.01901
70.5 0.01932
70.55 0.02164
70.6 0.02433
70.65 0.02116
70.7 0.01267
70.75 0.00473
70.8 -0.00247
70.85 -0.00578
70.9 -0.00774
70.95 -0.00626
71 -0.00776
71.05 -0.00716
71.1 -0.00285
71.15 -0.0024
71.2 -0.00431
71.25 -0.00797
71.3 -0.01066
71.35 -0.01429
71.4 -0.01399
71.45 -0.01354
71.5 -0.0123
71.55 -0.00842
71.6 -0.00797
71.65 -0.00573
71.7 -0.00406
71.75 -0.00376
71.8 -0.00614
71.85 -0.00373
71.9 -0.00218
71.95 0.00188
72 0.00737
72.05 0.00977
72.1 0.00598
72.15 0.00722
72.2 0.00534
72.25 -0.00086
72.3 -0.00092
72.35 0.00202
72.4 0.00476
72.45 0.00942
72.5 0.01299
72.55 0.01742
72.6 0.02069
72.65 0.02147
72.7 0.0169
72.75 0.01333
72.8 0.0118
72.85 0.00637
72.9 0.00541
72.95 0.00235
73 -0.00195
73.05 -0.00426
73.1 -0.00429
73.15 -0.00796
73.2 -0.01106
73.25 -0.01236
73.3 -0.01534
73.35 -0.01761
73.4 -0.0167
73.45 -0.01281
73.5 -0.01175
73.55 -0.01333
73.6 -0.01146
73.65 -0.01086
73.7 -0.00768
73.75 -0.00281
73.8 0.00018
73.85 -0.00073
73.9 0.00299
73.95 0.00047
74 -0.00545
74.05 -0.013
74.1 -0.01509
74.15 -0.01892
74.2 -0.02121
74.25 -0.02476
74.3 -0.02298
74.35 -0.01922
74.4 -0.01193
74.45 -0.00782
74.5 -0.00011
74.55 0.00931
74.6 0.01847
74.65 0.02562
74.7 0.02832
74.75 0.02989
74.8 0.03195
74.85 0.03492
74.9 0.03341
74.95 0.03321
75 0.03353
75.05 0.03221
75.1 0.03065
75.15 0.0251
75.2 0.01828
75.25 0.01328
75.3 0.00473
75.35 -0.0027
75.4 -0.0107
75.45 -0.01392
75.5 -0.01458
75.55 -0.00993
75.6 -0.00843
75.65 -0.00535
75.7 -0.00757
75.75 -0.01259
75.8 -0.01368
75.85 -0.01407
75.9 -0.01505
75.95 -0.0137
76 -0.0117
76.05 -0.00828
76.1 -0.00288
76.15 -0.00137
76.2 0.00171
76.25 0.00354
76.3 0.00316
76.35 -0.00054
76.4 -0.00386
76.45 -0.00652
76.5 -0.00693
76.55 -0.00417
76.6 -0.00305
76.65 -0.003
76.7 -0.0048
76.75 -0.00643
76.8 -0.00817
76.85 -0.00928
76.9 -0.00851
76.95 -0.00317
77 0.0033
77.05 0.00808
77.1 0.01266
77.15 0.012
77.2 0.00938
77.25 0.00731
77.3 0.00955
77.35 0.00547
77.4 -0.00018
77.45 -0.00076
77.5 -0.00075
77.55 0.00359
77.6 0.00246
77.65 -0.00201
77.7 -0.00328
77.75 -0.00667
77.8 -0.01073
77.85 -0.01215
77.9 -0.01245
77.95 -0.01323
78 -0.01094
78.05 -0.00611
78.1 -0.00345
78.15 0.00082
78.2 0.00094
78.25 0.00393
78.3 0.00775
78.35 0.01392
78.4 0.01437
78.45 0.01361
78.5 0.00962
78.55 0.00808
78.6 0.00756
78.65 0.00417
78.7 0.00436
78.75 0.00016
78.8 -0.00655
78.85 -0.00879
78.9 -0.00576
78.95 0.00053
79 0.00523
79.05 0.00392
79.1 -0.00138
79.15 -0.0075
79.2 -0.0084
79.25 -0.0104
79.3 -0.01097
79.35 -0.0136
79.4 -0.01056
79.45 -0.01085
79.5 -0.01244
79.55 -0.01436
79.6 -0.01308
79.65 -0.0138
79.7 -0.01414
79.75 -0.01324
79.8 -0.01334
79.85 -0.01533
79.9 -0.01518
79.95 -0.00997
80 -0.00369
80.05 -0.00134
80.1 0.00067
80.15 0.00638
80.2 0.0121
80.25 0.01121
80.3 0.00539
80.35 0.00283
80.4 0.00101
80.45 0.00091
80.5 -0.00149
80.55 -0.00569
80.6 -0.0115
80.65 -0.01348
80.7 -0.01557
80.75 -0.01438
80.8 -0.01052
80.85 -0.00572
80.9 -0.00388
80.95 0.00067
81 0.00743
81.05 0.0107
81.1 0.01557
81.15 0.01469
81.2 0.01365
81.25 0.00813
81.3 -0.0005
81.35 -0.00435
81.4 -0.00899
81.45 -0.00966
81.5 -0.00726
81.55 -0.00311
81.6 0.00016
81.65 0.00582
81.7 0.00866
81.75 0.01185
81.8 0.0159
81.85 0.01312
81.9 0.01305
81.95 0.01326
82 0.00781
82.05 -0.00073
82.1 -0.00867
82.15 -0.01647
82.2 -0.02182
82.25 -0.02501
82.3 -0.02756
82.35 -0.02852
82.4 -0.03099
82.45 -0.02823
82.5 -0.0284
82.55 -0.02967
82.6 -0.02839
82.65 -0.02402
82.7 -0.01578
82.75 -0.00906
82.8 -0.00166
82.85 -0.00089
82.9 -0.00118
82.95 -0.00274
83 -0.00647
83.05 -0.00956
83.1 -0.00763
83.15 -0.00933
83.2 -0.00544
83.25 0.00071
83.3 0.0013
83.35 -0.001
83.4 -0.00155
83.45 -0.00224
83.5 0.00195
83.55 0.00086
83.6 -0.00009
83.65 -0.00143
83.7 -0.00446
83.75 -0.00931
83.8 -0.01094
83.85 -0.00985
83.9 -0.0066
83.95 -0.00594
84 -0.00245
84.05 0.00309
84.1 0.00667
84.15 0.0089
84.2 0.01328
84.25 0.01845
84.3 0.02418
84.35 0.02432
84.4 0.01839
84.45 0.0122
84.5 0.00291
84.55 -0.00369
84.6 -0.00279
84.65 -0.00605
84.7 -0.00982
84.75 -0.01029
84.8 -0.01312
84.85 -0.0131
84.9 -0.01458
84.95 -0.01137
85 -0.0044
85.05 -0.00157
85.1 -0.00179
85.15 -0.00231
85.2 -0.00344
85.25 -0.00768
85.3 -0.01224
85.35 -0.01161
85.4 -0.00858
85.45 -0.00611
85.5 -0.00372
85.55 -0.00022
85.6 0.00514
85.65 0.01109
85.7 0.01707
85.75 0.02163
85.8 0.02295
85.85 0.02059
85.9 0.01591
85.95 0.00962
86 0.00212
86.05 0.00052
86.1 -0.00499
86.15 -0.0047
86.2 -0.00069
86.25 0.00496
86.3 0.00867
86.35 0.013
86.4 0.0122
86.45 0.0112
86.5 0.00534
86.55 -0.00048
86.6 -0.00646
86.65 -0.01293
86.7 -0.01784
86.75 -0.01598
86.8 -0.01032
86.85 -0.00513
86.9 -0.00167
86.95 -0.00059
87 -0.00326
87.05 -0.00224
87.1 -0.00182
87.15 -0.00004
87.2 0.00326
87.25 0.00366
87.3 0.00642
87.35 0.0051
87.4 0.00287
87.45 0.00094
87.5 -0.00222
87.55 -0.0056
87.6 -0.00418
87.65 -0.00385
87.7 -0.0046
87.75 -0.00615
87.8 -0.00499
87.85 -0.00478
87.9 -0.00388
87.95 -0.00433
88 -0.00594
88.05 -0.00692
88.1 -0.00533
88.15 -0.00536
88.2 -0.00188
88.25 0.00431
88.3 0.00833
88.35 0.01462
88.4 0.01509
88.45 0.01067
88.5 0.00791
88.55 0.00767
88.6 0.00531
88.65 0.00168
88.7 0.00197
88.75 -0.00146
88.8 -0.00641
88.85 -0.00549
88.9 -0.00141
88.95 0.00164
89 0.00278
89.05 0.00127
89.1 0.00133
89.15 -0.00303
89.2 -0.00902
89.25 -0.01287
89.3 -0.01386
89.35 -0.00928
89.4 -0.009
89.45 -0.01247
89.5 -0.01082
89.55 -0.00704
89.6 -0.00227
89.65 0.00107
89.7 0.00145
89.75 0.00478
89.8 0.00689
89.85 0.01033
89.9 0.01303
89.95 0.01287
90 0.01165
90.05 0.00879
90.1 0.00802
90.15 0.00305
90.2 -0.00397
90.25 -0.00942
90.3 -0.01079
90.35 -0.00643
90.4 -0.00737
90.45 -0.00525
90.5 -0.00008
90.55 0.00251
90.6 0.00638
90.65 0.00681
90.7 0.00817
90.75 0.01289
90.8 0.01512
90.85 0.01152
90.9 0.0072
90.95 0.00466
91 0.00638
91.05 0.00725
91.1 0.00718
91.15 0.00823
91.2 0.00846
91.25 0.00684
91.3 0.00973
91.35 0.00806
91.4 0.01005
91.45 0.01347
91.5 0.0189
91.55 0.01688
91.6 0.01261
91.65 0.00863
91.7 0.00834
91.75 0.00546
91.8 0.00349
91.85 -0.00139
91.9 -0.00717
91.95 -0.0122
92 -0.01445
92.05 -0.01613
92.1 -0.01395
92.15 -0.01231
92.2 -0.01164
92.25 -0.00949
92.3 -0.00661
92.35 -0.00429
92.4 0.00045
92.45 -0.00001
92.5 -0.00336
92.55 -0.00065
92.6 -0.00317
92.65 -0.00274
92.7 -0.00333
92.75 -0.00159
92.8 0.00181
92.85 0.00008
92.9 -0.00136
92.95 -0.00316
93 -0.00535
93.05 -0.00596
93.1 -0.00537
93.15 -0.00455
93.2 -0.00707
93.25 -0.0089
93.3 -0.00608
93.35 -0.00442
93.4 -0.00682
93.45 -0.01178
93.5 -0.01326
93.55 -0.01512
93.6 -0.01348
93.65 -0.01515
93.7 -0.01353
93.75 -0.0097
93.8 -0.00238
93.85 0.0048
93.9 0.01081
93.95 0.01465
94 0.01441
94.05 0.01406
94.1 0.01728
94.15 0.01999
94.2 0.02142
94.25 0.02223
94.3 0.02545
94.35 0.02831
94.4 0.03196
94.45 0.02832
94.5 0.02243
94.55 0.01423
94.6 0.00894
94.65 0.00598
94.7 0.0075
94.75 0.00498
94.8 0.00353
94.85 0.00071
94.9 -0.00405
94.95 -0.00811
95 -0.00821
95.05 -0.00713
95.1 -0.00725
95.15 -0.00401
95.2 -0.00577
95.25 -0.00405
95.3 -0.00718
95.35 -0.00464
95.4 0.00153
95.45 0.0064
95.5 0.00588
95.55 0.00144
95.6 -0.00173
95.65 -0.00783
95.7 -0.01312
95.75 -0.01527
95.8 -0.01273
95.85 -0.00604
95.9 -0.00431
95.95 -0.00387
96 0.00089
96.05 0.00018
96.1 0.00129
96.15 -0.00065
96.2 -0.00106
96.25 -0.00298
96.3 -0.00202
96.35 0.00126
96.4 -0.00124
96.45 -0.00175
96.5 -0.00363
96.55 -0.00079
96.6 0.00229
96.65 0.00715
96.7 0.0059
96.75 0.00785
96.8 0.0114
96.85 0.00863
96.9 0.00622
96.95 0.0081
97 0.00548
97.05 -0.00049
97.1 -0.00778
97.15 -0.01336
97.2 -0.01495
97.25 -0.01897
97.3 -0.01744
97.35 -0.01965
97.4 -0.01727
97.45 -0.0165
97.5 -0.01092
97.55 -0.00375
97.6 -0.00177
97.65 -0.00267
97.7 -0.00521
97.75 -0.00698
97.8 -0.01055
97.85 -0.01172
97.9 -0.00722
97.95 -0.00124
98 0.00493
98.05 0.00949
98.1 0.01601
98.15 0.02264
98.2 0.02041
98.25 0.01591
98.3 0.01104
98.35 0.00892
98.4 0.00885
98.45 0.00942
98.5 0.00679
98.55 0.00746
98.6 0.00302
98.65 0.00325
98.7 0.00387
98.75 0.00361
98.8 0.00624
98.85 0.00888
98.9 0.00966
98.95 0.0085
99 0.00496
99.05 -0.00205
99.1 -0.0096
99.15 -0.01471
99.2 -0.0157
99.25 -0.01484
99.3 -0.00945
99.35 -0.00472
99.4 -0.00023
99.45 0.00328
99.5 0.00123
99.55 -0.00402
99.6 -0.00592
99.65 -0.01019
99.7 -0.01626
99.75 -0.01585
99.8 -0.00973
99.85 -0.00209
99.9 0.0055
99.95 0.01127
