0 0
0.05 0.00728
0.1 0.01349
0.15 0.01745
0.2 0.01917
0.25 0.02269
0.3 0.02361
0.35 0.0221
0.4 0.02261
0.45 0.02853
0.5 0.03748
0.55 0.04539
0.6 0.05048
0.65 0.05781
0.7 0.0644
0.75 0.06436
0.8 0.06632
0.85 0.06587
0.9 0.06577
0.95 0.05956
1 0.05191
1.05 0.04248
1.1 0.03907
1.15 0.03332
1.2 0.03229
1.25 0.03399
1.3 0.03995
1.35 0.04552
1.4 0.04558
1.45 0.04926
1.5 0.0461
1.55 0.04308
1.6 0.03804
1.65 0.03335
1.7 0.03245
1.75 0.03366
1.8 0.03406
1.85 0.03484
1.9 0.03494
1.95 0.03911
2 0.03963
2.05 0.03576
2.1 0.0315
2.15 0.03141
2.2 0.03089
2.25 0.03254
2.3 0.02885
2.35 0.024
2.4 0.02048
2.45 0.01444
2.5 0.00808
2.55 0.00697
2.6 0.00402
2.65 0.00357
2.7 0.00556
2.75 0.00652
2.8 0.01281
2.85 0.01495
2.9 0.01969
2.95 0.0255
3 0.03152
3.05 0.03121
3.1 0.02817
3.15 0.0295
3.2 0.03461
3.25 0.03377
3.3 0.03059
3.35 0.03069
3.4 0.02883
3.45 0.02376
3.5 0.02102
3.55 0.01897
3.6 0.0187
3.65 0.02311
3.7 0.02717
3.75 0.02933
3.8 0.02876
3.85 0.02554
3.9 0.02615
3.95 0.02245
4 0.02275
4.05 0.01788
4.1 0.01706
4.15 0.01712
4.2 0.0209
4.25 0.01759
4.3 0.01447
4.35 0.00651
4.4 0.00171
4.45 -0.00057
4.5 -0.00619
4.55 -0.01175
4.6 -0.02014
4.65 -0.03619
4.7 -0.05387
4.75 -0.07104
4.8 -0.09179
4.85 -0.11319
4.9 -0.141
4.95 -0.17265
5 -0.21446
5.05 -0.26518
5.1 -0.32092
5.15 -0.38221
5.2 -0.44082
5.25 -0.50163
5.3 -0.56673
5.35 -0.63519
5.4 -0.71162
5.45 -0.79325
5.5 -0.88046
5.55 -0.96379
5.6 -1.04964
5.65 -1.13678
5.7 -1.22387
5.75 -1.307
5.8 -1.38554
5.85 -1.45824
5.9 -1.52907
5.95 -1.59659
6 -1.66035
6.05 -1.71975
6.1 -1.77375
6.15 -1.81648
6.2 -1.84651
6.25 -1.86902
6.3 -1.89053
6.35 -1.90494
6.4 -1.91081
6.45 -1.91229
6.5 -1.9104
6.55 -1.90209
6.6 -1.88682
6.65 -1.85776
6.7 -1.81668
6.75 -1.76569
6.8 -1.70257
6.85 -1.62586
6.9 -1.53624
6.95 -1.43796
7 -1.32999
7.05 -1.21381
7.1 -1.0872
7.15 -0.95073
7.2 -0.8056
7.25 -0.64967
7.3 -0.48946
7.35 -0.3209
7.4 -0.15388
7.45 0.01061
7.5 0.17662
7.55 0.34185
7.6 0.49939
7.65 0.65585
7.7 0.79913
7.75 0.93942
7.8 1.06991
7.85 1.19302
7.9 1.30314
7.95 1.39976
8 1.48204
8.05 1.55581
8.1 1.62199
8.15 1.68197
8.2 1.72737
8.25 1.76522
8.3 1.79405
8.35 1.81478
8.4 1.827
8.45 1.82991
8.5 1.82894
8.55 1.82475
8.6 1.81932
8.65 1.80613
8.7 1.79066
8.75 1.7744
8.8 1.75437
8.85 1.73211
8.9 1.70535
8.95 1.67368
9 1.64028
9.05 1.60489
9.1 1.57562
9.15 1.54731
9.2 1.51946
9.25 1.4885
9.3 1.45842
9.35 1.42999
9.4 1.4011
9.45 1.36966
9.5 1.3373
9.55 1.3061
9.6 1.27223
9.65 1.24084
9.7 1.21483
9.75 1.18504
9.8 1.15613
9.85 1.12585
9.9 1.09727
9.95 1.0649
10 1.03797
10.05 1.01159
10.1 0.98383
10.15 0.95439
10.2 0.92738
10.25 0.89515
10.3 0.86414
10.35 0.83206
10.4 0.80069
10.45 0.77077
10.5 0.74449
10.55 0.71526
10.6 0.68528
10.65 0.65861
10.7 0.63227
10.75 0.60215
10.8 0.57337
10.85 0.54458
10.9 0.51249
10.95 0.47669
11 0.44082
11.05 0.4068
11.1 0.37831
11.15 0.35015
11.2 0.32511
11.25 0.30177
11.3 0.27503
11.35 0.24464
11.4 0.21068
11.45 0.17752
11.5 0.15123
11.55 0.12394
11.6 0.09932
11.65 0.07188
11.7 0.04763
11.75 0.02121
11.8 -0.00117
11.85 -0.0208
11.9 -0.04409
11.95 -0.06839
12 -0.0916
12.05 -0.1068
12.1 -0.12394
12.15 -0.13509
12.2 -0.14138
12.25 -0.14956
12.3 -0.15697
12.35 -0.16882
12.4 -0.17655
12.45 -0.18121
12.5 -0.1917
12.55 -0.20073
12.6 -0.20888
12.65 -0.22038
12.7 -0.23088
12.75 -0.24439
12.8 -0.25253
12.85 -0.25441
12.9 -0.25411
12.95 -0.25771
13 -0.26234
13.05 -0.26296
13.1 -0.26571
13.15 -0.26515
13.2 -0.26667
13.25 -0.27246
13.3 -0.27452
13.35 -0.27885
13.4 -0.28403
13.45 -0.2821
13.5 -0.27664
13.55 -0.27255
13.6 -0.2683
13.65 -0.26702
13.7 -0.26312
13.75 -0.26173
13.8 -0.26232
13.85 -0.26216
13.9 -0.25744
13.95 -0.25291
14 -0.2472
14.05 -0.24339
14.1 -0.23704
14.15 -0.23641
14.2 -0.23397
14.25 -0.23681
14.3 -0.24207
14.35 -0.24027
14.4 -0.23595
14.45 -0.22912
14.5 -0.22603
14.55 -0.2244
14.6 -0.22732
14.65 -0.22739
14.7 -0.22255
14.75 -0.21922
14.8 -0.21692
14.85 -0.21022
14.9 -0.20367
14.95 -0.19973
15 -0.19442
15.05 -0.19064
15.1 -0.18761
15.15 -0.18671
15.2 -0.18679
15.25 -0.19041
15.3 -0.18918
15.35 -0.19049
15.4 -0.18636
15.45 -0.18195
15.5 -0.17407
15.55 -0.16722
15.6 -0.16542
15.65 -0.16198
15.7 -0.16105
15.75 -0.15675
15.8 -0.15272
15.85 -0.15229
15.9 -0.14792
15.95 -0.14828
16 -0.14548
16.05 -0.14602
16.1 -0.14928
16.15 -0.15174
16.2 -0.14834
16.25 -0.1477
16.3 -0.1499
16.35 -0.15266
16.4 -0.15149
16.45 -0.15141
16.5 -0.14676
16.55 -0.13752
16.6 -0.1322
16.65 -0.13079
16.7 -0.13264
16.75 -0.13207
16.8 -0.13304
16.85 -0.13559
16.9 -0.13455
16.95 -0.1318
17 -0.13136
17.05 -0.13232
17.1 -0.1284
17.15 -0.12488
17.2 -0.12487
17.25 -0.12539
17.3 -0.11982
17.35 -0.11328
17.4 -0.11116
17.45 -0.10538
17.5 -0.09677
17.55 -0.09176
17.6 -0.0898
17.65 -0.0871
17.7 -0.08844
17.75 -0.09043
17.8 -0.09081
17.85 -0.09199
17.9 -0.09261
17.95 -0.09484
18 -0.09356
18.05 -0.09476
18.1 -0.09144
18.15 -0.0914
18.2 -0.09226
18.25 -0.08934
18.3 -0.08929
18.35 -0.08248
18.4 -0.07268
18.45 -0.06497
18.5 -0.05908
18.55 -0.05784
18.6 -0.05582
18.65 -0.05158
18.7 -0.05275
18.75 -0.04954
18.8 -0.04995
18.85 -0.04666
18.9 -0.04144
18.95 -0.04211
19 -0.0431
19.05 -0.04183
19.1 -0.04542
19.15 -0.05175
19.2 -0.05781
19.25 -0.0643
19.3 -0.06336
19.35 -0.0632
19.4 -0.06352
19.45 -0.05988
19.5 -0.05481
19.55 -0.0504
19.6 -0.04796
19.65 -0.0438
19.7 -0.04047
19.75 -0.03454
19.8 -0.034
19.85 -0.03443
19.9 -0.03488
19.95 -0.03343
20 -0.03684
20.05 -0.04088
20.1 -0.04154
20.15 -0.039
20.2 -0.03554
20.25 -0.03354
20.3 -0.03465
20.35 -0.03691
20.4 -0.03912
20.45 -0.03713
20.5 -0.03835
20.55 -0.03997
20.6 -0.04158
20.65 -0.04464
20.7 -0.04929
20.75 -0.05394
20.8 -0.05804
20.85 -0.06273
20.9 -0.05956
20.95 -0.05381
21 -0.05134
21.05 -0.04468
21.1 -0.03973
21.15 -0.03798
21.2 -0.03944
21.25 -0.03858
21.3 -0.03884
21.35 -0.03564
21.4 -0.03142
21.45 -0.03208
21.5 -0.03364
21.55 -0.036
21.6 -0.03645
21.65 -0.03469
21.7 -0.03077
21.75 -0.02662
21.8 -0.02639
21.85 -0.02628
21.9 -0.02304
21.95 -0.02236
22 -0.02264
22.05 -0.01981
22.1 -0.02127
22.15 -0.01924
22.2 -0.0148
22.25 -0.01464
22.3 -0.01257
22.35 -0.01096
22.4 -0.01384
22.45 -0.01571
22.5 -0.01766
22.55 -0.02291
22.6 -0.02424
22.65 -0.0209
22.7 -0.01594
22.75 -0.01311
22.8 -0.00755
22.85 -0.00018
22.9 0.00819
22.95 0.01545
23 0.01802
23.05 0.02084
23.1 0.01731
23.15 0.01377
23.2 0.01117
23.25 0.01042
23.3 0.00523
23.35 0.00065
23.4 0.0012
23.45 -0.00353
23.5 -0.0049
23.55 -0.00415
23.6 -0.00342
23.65 -0.00005
23.7 -0.00026
23.75 -0.00101
23.8 0.00102
23.85 -0.00086
23.9 -0.00688
23.95 -0.01153
24 -0.01557
24.05 -0.01673
24.1 -0.01614
24.15 -0.01133
24.2 -0.01128
24.25 -0.00992
24.3 -0.00572
24.35 -0.00161
24.4 -0.00169
24.45 -0.00547
24.5 -0.01029
24.55 -0.01737
24.6 -0.01863
24.65 -0.02191
24.7 -0.02261
24.75 -0.01865
24.8 -0.01478
24.85 -0.01556
24.9 -0.01902
24.95 -0.02131
25 -0.02281
25.05 -0.02686
25.1 -0.03224
25.15 -0.035
25.2 -0.03223
25.25 -0.03159
25.3 -0.03323
25.35 -0.03502
25.4 -0.03038
25.45 -0.02704
25.5 -0.02264
25.55 -0.02269
25.6 -0.02482
25.65 -0.02842
25.7 -0.02541
25.75 -0.02543
25.8 -0.02677
25.85 -0.02094
25.9 -0.01172
25.95 -0.00929
26 -0.00379
26.05 0.00091
26.1 0.00726
26.15 0.01096
26.2 0.01406
26.25 0.01576
26.3 0.01143
26.35 0.00515
26.4 -0.00169
26.45 -0.00548
26.5 -0.00592
26.55 -0.00667
26.6 -0.00385
26.65 0.00231
26.7 0.00328
26.75 0.00219
26.8 0.00347
26.85 -0.00031
26.9 0.00095
26.95 -0.00028
27 0.00043
27.05 -0.00339
27.1 -0.00576
27.15 -0.007
27.2 -0.01045
27.25 -0.01431
27.3 -0.01215
27.35 -0.0132
27.4 -0.01717
27.45 -0.02058
27.5 -0.01954
27.55 -0.01787
27.6 -0.01442
27.65 -0.00775
27.7 -0.00537
27.75 -0.00263
27.8 -0.00354
27.85 -0.00511
27.9 -0.00918
27.95 -0.01467
28 -0.01426
28.05 -0.0109
28.1 -0.01297
28.15 -0.01898
28.2 -0.02176
28.25 -0.02137
28.3 -0.02492
28.35 -0.02898
28.4 -0.03628
28.45 -0.0433
28.5 -0.05147
28.55 -0.06635
28.6 -0.07833
28.65 -0.08842
28.7 -0.10661
28.75 -0.12544
28.8 -0.14544
28.85 -0.16611
28.9 -0.19121
28.95 -0.22101
29 -0.25175
29.05 -0.28
29.1 -0.30407
29.15 -0.33035
29.2 -0.3595
29.25 -0.38773
29.3 -0.42237
29.35 -0.45461
29.4 -0.48666
29.45 -0.51754
29.5 -0.54712
29.55 -0.58015
29.6 -0.61342
29.65 -0.64608
29.7 -0.68134
29.75 -0.70952
29.8 -0.73786
29.85 -0.7632
29.9 -0.77984
29.95 -0.79674
30 -0.80333
30.05 -0.81002
30.1 -0.80726
30.15 -0.79931
30.2 -0.78717
30.25 -0.76797
30.3 -0.74437
30.35 -0.71103
30.4 -0.67527
30.45 -0.6402
30.5 -0.59982
30.55 -0.55185
30.6 -0.49778
30.65 -0.44817
30.7 -0.39297
30.75 -0.33803
30.8 -0.28677
30.85 -0.23754
30.9 -0.18715
30.95 -0.13348
31 -0.08519
31.05 -0.03754
31.1 0.01292
31.15 0.05593
31.2 0.09636
31.25 0.13314
31.3 0.16884
31.35 0.20872
31.4 0.24301
31.45 0.27835
31.5 0.3107
31.55 0.33702
31.6 0.36652
31.65 0.39363
31.7 0.4207
31.75 0.44343
31.8 0.46191
31.85 0.48261
31.9 0.49809
31.95 0.51531
32 0.53285
32.05 0.54837
32.1 0.56438
32.15 0.58295
32.2 0.59448
32.25 0.60204
32.3 0.61455
32.35 0.62615
32.4 0.63282
32.45 0.63583
32.5 0.63839
32.55 0.64406
32.6 0.64664
32.65 0.65561
32.7 0.66699
32.75 0.67668
32.8 0.67796
32.85 0.67459
32.9 0.67446
32.95 0.6764
33 0.67717
33.05 0.67192
33.1 0.66233
33.15 0.6503
33.2 0.63421
33.25 0.61994
33.3 0.60777
33.35 0.59018
33.4 0.57658
33.45 0.56728
33.5 0.55804
33.55 0.54626
33.6 0.53296
33.65 0.51825
33.7 0.49828
33.75 0.48137
33.8 0.46518
33.85 0.44605
33.9 0.42317
33.95 0.40392
34 0.38695
34.05 0.37197
34.1 0.35269
34.15 0.33414
34.2 0.31589
34.25 0.30053
34.3 0.2819
34.35 0.26294
34.4 0.25101
34.45 0.24014
34.5 0.22788
34.55 0.21608
34.6 0.20143
34.65 0.1859
34.7 0.16896
34.75 0.15214
34.8 0.13944
34.85 0.12466
34.9 0.11224
34.95 0.10438
35 0.09722
35.05 0.09138
35.1 0.0855
35.15 0.07518
35.2 0.0651
35.25 0.05722
35.3 0.04654
35.35 0.03499
35.4 0.02733
35.45 0.0193
35.5 0.00722
35.55 -0.00535
35.6 -0.01423
35.65 -0.01912
35.7 -0.02166
35.75 -0.02562
35.8 -0.02635
35.85 -0.03386
35.9 -0.04283
35.95 -0.04746
36 -0.05213
36.05 -0.06002
36.1 -0.06548
36.15 -0.06699
36.2 -0.07181
36.25 -0.0745
36.3 -0.07765
36.35 -0.0806
36.4 -0.08325
36.45 -0.08845
36.5 -0.0888
36.55 -0.093
36.6 -0.09733
36.65 -0.09598
36.7 -0.09911
36.75 -0.10467
36.8 -0.11279
36.85 -0.12013
36.9 -0.12001
36.95 -0.12335
37 -0.11968
37.05 -0.11366
37.1 -0.11427
37.15 -0.11554
37.2 -0.11713
37.25 -0.12183
37.3 -0.1273
37.35 -0.13369
37.4 -0.13287
37.45 -0.13351
37.5 -0.12791
37.55 -0.11957
37.6 -0.11525
37.65 -0.11482
37.7 -0.11166
37.75 -0.11066
37.8 -0.11265
37.85 -0.11095
37.9 -0.11307
37.95 -0.11124
38 -0.10634
38.05 -0.1034
38.1 -0.10363
38.15 -0.10641
38.2 -0.10341
38.25 -0.10422
38.3 -0.1067
38.35 -0.1076
38.4 -0.10486
38.45 -0.10482
38.5 -0.10055
38.55 -0.09728
38.6 -0.09101
38.65 -0.08638
38.7 -0.08276
38.75 -0.08162
38.8 -0.08174
38.85 -0.08046
38.9 -0.08323
38.95 -0.08097
39 -0.07406
39.05 -0.06568
39.1 -0.05672
39.15 -0.04786
39.2 -0.04249
39.25 -0.04216
39.3 -0.04379
39.35 -0.05008
39.4 -0.05918
39.45 -0.06444
39.5 -0.06329
39.55 -0.06572
39.6 -0.06721
39.65 -0.06756
39.7 -0.06484
39.75 -0.06431
39.8 -0.06408
39.85 -0.06443
39.9 -0.06458
39.95 -0.06209
40 -0.06417
40.05 -0.06267
40.1 -0.06477
40.15 -0.06144
40.2 -0.05626
40.25 -0.05522
40.3 -0.05534
40.35 -0.05136
40.4 -0.04567
40.45 -0.03768
40.5 -0.0377
40.55 -0.0376
40.6 -0.03689
40.65 -0.04041
40.7 -0.03833
40.75 -0.04037
40.8 -0.03896
40.85 -0.0409
40.9 -0.04296
40.95 -0.04551
41 -0.04716
41.05 -0.05068
41.1 -0.05342
41.15 -0.05192
41.2 -0.04581
41.25 -0.04092
41.3 -0.03384
41.35 -0.02535
41.4 -0.01937
41.45 -0.01829
41.5 -0.01828
41.55 -0.01867
41.6 -0.01835
41.65 -0.01469
41.7 -0.01661
41.75 -0.01708
41.8 -0.02213
41.85 -0.02647
41.9 -0.02545
41.95 -0.0205
42 -0.01568
42.05 -0.01706
42.1 -0.02033
42.15 -0.01908
42.2 -0.02032
42.25 -0.02468
42.3 -0.0303
42.35 -0.03101
42.4 -0.03268
42.45 -0.03429
42.5 -0.03919
42.55 -0.03791
42.6 -0.03336
42.65 -0.03158
42.7 -0.0336
42.75 -0.03302
42.8 -0.02837
42.85 -0.02571
42.9 -0.02397
42.95 -0.0192
43 -0.02118
43.05 -0.02303
43.1 -0.02518
43.15 -0.02273
43.2 -0.02431
43.25 -0.02516
43.3 -0.02098
43.35 -0.01672
43.4 -0.01896
43.45 -0.01962
43.5 -0.01986
43.55 -0.01521
43.6 -0.0125
43.65 -0.01276
43.7 -0.01324
43.75 -0.01362
43.8 -0.01758
43.85 -0.02239
43.9 -0.02348
43.95 -0.02398
44 -0.02364
44.05 -0.02485
44.1 -0.02448
44.15 -0.01949
44.2 -0.01586
44.25 -0.00931
44.3 -0.00952
44.35 -0.01131
44.4 -0.0114
44.45 -0.00837
44.5 -0.01148
44.55 -0.01262
44.6 -0.0153
44.65 -0.01874
44.7 -0.01692
44.75 -0.01674
44.8 -0.01266
44.85 -0.00681
44.9 -0.00442
44.95 0.00073
45 -0.00113
45.05 -0.00516
45.1 -0.01311
45.15 -0.01823
45.2 -0.01733
45.25 -0.02078
45.3 -0.02012
45.35 -0.02006
45.4 -0.02402
45.45 -0.02817
45.5 -0.02914
45.55 -0.02344
45.6 -0.01973
45.65 -0.01778
45.7 -0.02041
45.75 -0.01764
45.8 -0.0148
45.85 -0.01673
45.9 -0.01936
45.95 -0.02097
46 -0.02457
46.05 -0.0224
46.1 -0.01765
46.15 -0.01765
46.2 -0.01976
46.25 -0.02351
46.3 -0.02649
46.35 -0.02949
46.4 -0.03343
46.45 -0.03796
46.5 -0.04222
46.55 -0.04011
46.6 -0.03866
46.65 -0.03463
46.7 -0.02583
46.75 -0.01389
46.8 -0.00839
46.85 -0.0042
46.9 0.00157
46.95 0.00456
47 0.00444
47.05 0.00627
47.1 0.0034
47.15 0.00513
47.2 0.00678
47.25 0.01118
47.3 0.00921
47.35 0.01085
47.4 0.00863
47.45 0.00311
47.5 -0.00164
47.55 -0.00771
47.6 -0.01381
47.65 -0.01399
47.7 -0.01765
47.75 -0.02337
47.8 -0.02133
47.85 -0.01926
47.9 -0.01619
47.95 -0.01675
48 -0.01156
48.05 -0.00595
48.1 0.00239
48.15 0.00474
48.2 0.0095
48.25 0.00907
48.3 0.00664
48.35 0.00401
48.4 -0.00177
48.45 -0.00543
48.5 -0.00932
48.55 -0.0108
48.6 -0.01264
48.65 -0.01141
48.7 -0.00544
48.75 -0.00058
48.8 -0.0012
48.85 -0.00609
48.9 -0.00424
48.95 -0.00397
49 0.00033
49.05 0.00668
49.1 0.01339
49.15 0.01704
49.2 0.0182
49.25 0.02149
49.3 0.02044
49.35 0.01567
49.4 0.0105
49.45 0.00938
49.5 0.01063
49.55 0.00637
49.6 -0.00036
49.65 -0.00471
49.7 -0.00887
49.75 -0.0137
49.8 -0.01731
49.85 -0.01472
49.9 -0.00804
49.95 -0.00317
50 -0.00363
50.05 0.00103
50.1 0.00641
50.15 0.00734
50.2 0.00746
50.25 0.00496
50.3 0.00417
50.35 0.0018
50.4 -0.00277
50.45 -0.00365
50.5 -0.00559
50.55 -0.01004
50.6 -0.00909
50.65 -0.00493
50.7 -0.00169
50.75 -0.00139
50.8 -0.0039
50.85 -0.0035
50.9 -0.00648
50.95 -0.0058
51 -0.00286
51.05 -0.00079
51.1 0.00044
51.15 -0.00065
51.2 -0.0008
51.25 -0.00076
51.3 -0.00198
51.35 -0.00327
51.4 -0.00489
51.45 -0.00311
51.5 0.00177
51.55 0.00352
51.6 0.00753
51.65 0.00972
51.7 0.01002
51.75 0.01223
51.8 0.01673
51.85 0.01928
51.9 0.02186
51.95 0.01912
52 0.02039
52.05 0.01912
52.1 0.01247
52.15 0.00436
52.2 -0.00201
52.25 -0.00483
52.3 -0.00718
52.35 -0.0129
52.4 -0.01931
52.45 -0.02216
52.5 -0.01865
52.55 -0.01817
52.6 -0.01842
52.65 -0.0186
52.7 -0.01945
52.75 -0.02063
52.8 -0.02329
52.85 -0.02082
52.9 -0.02001
52.95 -0.0208
53 -0.01484
53.05 -0.0067
53.1 -0.0017
53.15 0.00143
53.2 0.00767
53.25 0.01107
53.3 0.00891
53.35 0.01082
53.4 0.00707
53.45 0.00893
53.5 0.00959
53.55 0.00994
53.6 0.01312
53.65 0.00985
53.7 0.00932
53.75 0.01144
53.8 0.00807
53.85 0.00577
53.9 0.00853
53.95 0.00556
54 0.00036
54.05 -0.00009
54.1 0.0023
54.15 0.00424
54.2 0.00043
54.25 0.00087
54.3 0.00085
54.35 -0.00307
54.4 -0.00865
54.45 -0.00943
54.5 -0.01051
54.55 -0.0075
54.6 -0.00285
54.65 0.00166
54.7 0.00686
54.75 0.00508
54.8 -0.00016
54.85 -0.0006
54.9 -0.00486
54.95 -0.00939
55 -0.0126
55.05 -0.01219
55.1 -0.01019
55.15 -0.00343
55.2 0.00073
55.25 0.00109
55.3 0.00155
55.35 0.00096
55.4 -0.00021
55.45 0.00246
55.5 -0.00018
55.55 -0.00558
55.6 -0.01143
55.65 -0.01417
55.7 -0.01552
55.75 -0.01474
55.8 -0.0163
55.85 -0.01311
55.9 -0.00693
55.95 -0.00416
56 0.00052
56.05 0.00006
56.1 0.00448
56.15 0.00653
56.2 0.01002
56.25 0.01321
56.3 0.01522
56.35 0.01174
56.4 0.00687
56.45 0.00615
56.5 0.00609
56.55 0.00427
56.6 -0.00185
56.65 -0.00858
56.7 -0.01188
56.75 -0.01047
56.8 -0.0087
56.85 -0.00882
56.9 -0.00894
56.95 -0.01185
57 -0.01125
57.05 -0.00713
57.1 -0.00032
57.15 0.00326
57.2 0.00469
57.25 0.00266
57.3 0.00269
57.35 -0.00208
57.4 -0.00337
57.45 -0.00094
57.5 -0.0031
57.55 -0.00346
57.6 -0.00309
57.65 -0.00188
57.7 0.00314
57.75 0.00313
57.8 0.00726
57.85 0.01187
57.9 0.01672
57.95 0.02148
58 0.02102
58.05 0.01839
58.1 0.01501
58.15 0.01545
58.2 0.01585
58.25 0.01383
58.3 0.00915
58.35 0.0033
58.4 -0.00187
58.45 -0.0086
58.5 -0.01165
58.55 -0.01317
58.6 -0.01337
58.65 -0.0107
58.7 -0.00951
58.75 -0.00419
58.8 -0.00476
58.85 -0.00674
58.9 -0.00306
58.95 -0.0019
59 0.00134
59.05 0.00281
59.1 0.00355
59.15 0.00775
59.2 0.00973
59.25 0.01125
59.3 0.01237
59.35 0.0093
59.4 0.0026
59.45 0.00137
59.5 -0.00151
59.55 -0.00221
59.6 -0.00269
59.65 -0.00146
59.7 0.00376
59.75 0.00579
59.8 0.00882
59.85 0.00883
59.9 0.01133
59.95 0.01527
60 0.01786
60.05 0.0164
60.1 0.00938
60.15 0.00133
60.2 -0.00837
60.25 -0.01525
60.3 -0.01559
60.35 -0.01825
60.4 -0.01951
60.45 -0.01714
60.5 -0.01116
60.55 -0.00681
60.6 -0.00155
60.65 -0.00205
60.7 0.00173
60.75 0.00061
60.8 -0.00096
60.85 -0.00413
60.9 -0.00628
60.95 -0.0072
61 -0.00544
61.05 -0.00867
61.1 -0.01116
61.15 -0.01479
61.2 -0.0133
61.25 -0.01598
61.3 -0.01402
61.35 -0.01568
61.4 -0.01147
61.45 -0.0054
61.5 -0.00216
61.55 0.00162
61.6 0.00729
61.65 0.01501
61.7 0.01987
61.75 0.02333
61.8 0.02046
61.85 0.01921
61.9 0.01762
61.95 0.01616
62 0.01493
62.05 0.01075
62.1 0.00724
62.15 0.00298
62.2 0.00399
62.25 0.00672
62.3 0.00799
62.35 0.00718
62.4 0.00237
62.45 -0.00142
62.5 -0.00643
62.55 -0.00952
62.6 -0.00868
62.65 -0.00588
62.7 -0.00804
62.75 -0.01063
62.8 -0.01625
62.85 -0.01718
62.9 -0.01776
62.95 -0.01327
63 -0.00825
63.05 -0.00691
63.1 -0.00686
63.15 -0.01088
63.2 -0.01208
63.25 -0.00868
63.3 -0.00954
63.35 -0.01352
63.4 -0.01197
63.45 -0.00842
63.5 -0.00755
63.55 -0.00688
63.6 -0.00485
63.65 -0.00298
63.7 -0.00617
63.75 -0.00451
63.8 -0.00591
63.85 -0.00725
63.9 -0.00503
63.95 -0.00665
64 -0.00882
64.05 -0.00538
64.1 -0.00738
64.15 -0.01134
64.2 -0.00974
64.25 -0.0108
64.3 -0.00789
64.35 -0.00925
64.4 -0.00998
64.45 -0.0104
64.5 -0.00665
64.55 0.00024
64.6 0.00128
64.65 0.00254
64.7 -0.00009
64.75 0.00298
64.8 0.00733
64.85 0.01279
64.9 0.0161
64.95 0.02123
65 0.02555
65.05 0.02214
65.1 0.02231
65.15 0.01632
65.2 0.00733
65.25 0.00567
65.3 0.00169
65.35 -0.0017
65.4 -0.00592
65.45 -0.01116
65.5 -0.01523
65.55 -0.02033
65.6 -0.02252
65.65 -0.02434
65.7 -0.02738
65.75 -0.02821
65.8 -0.02583
65.85 -0.02262
65.9 -0.02005
65.95 -0.01838
66 -0.01665
66.05 -0.01676
66.1 -0.01651
66.15 -0.01928
66.2 -0.01755
66.25 -0.01597
66.3 -0.01127
66.35 -0.00243
66.4 0.00346
66.45 0.01055
66.5 0.01112
66.55 0.01121
66.6 0.01404
66.65 0.01371
66.7 0.01446
66.75 0.01251
66.8 0.00696
66.85 0.00417
66.9 0.00328
66.95 0.00515
67 0.00774
67.05 0.00754
67.1 0.00906
67.15 0.01361
67.2 0.01981
67.25 0.02044
67.3 0.01769
67.35 0.01343
67.4 0.00581
67.45 0.00495
67.5 0.00093
67.55 -0.00368
67.6 -0.0064
67.65 -0.00514
67.7 -0.00234
67.75 0.00142
67.8 0.00653
67.85 0.01069
67.9 0.01404
67.95 0.01916
68 0.02073
68.05 0.02097
68.1 0.02242
68.15 0.02236
68.2 0.02379
68.25 0.01799
68.3 0.01331
68.35 0.01364
68.4 0.01379
68.45 0.01577
68.5 0.0165
68.55 0.01925
68.6 0.02126
68.65 0.01611
68.7 0.01348
68.75 0.01187
68.8 0.01239
68.85 0.01381
68.9 0.01546
68.95 0.01597
69 0.01082
69.05 0.00275
69.1 -0.00134
69.15 -0.00229
69.2 -0.00096
69.25 -0.00149
69.3 -0.00592
69.35 -0.01307
69.4 -0.01999
69.45 -0.02543
69.5 -0.02712
69.55 -0.02663
69.6 -0.02401
69.65 -0.01664
69.7 -0.0087
69.75 0.00149
69.8 0.00537
69.85 0.00661
69.9 0.00696
69.95 0.01086
70 0.01067
70.05 0.00672
70.1 0.00733
70.15 0.00384
70.2 0.00479
70.25 0.00476
70.3 0.00339
70.35 0.00299
70.4 -0.00193
70.45 -0.00116
70.5 -0.00438
70.55 -0.00394
70.6 -0.00058
70.65 0.00326
70.7 0.00954
70.75 0.01591
70.8 0.01464
70.85 0.01049
70.9 0.00588
70.95 0.00026
71 -0.00409
71.05 -0.00493
71.1 -0.00938
71.15 -0.01266
71.2 -0.01337
71.25 -0.01644
71.3 -0.01787
71.35 -0.01983
71.4 -0.0158
71.45 -0.01564
71.5 -0.01111
71.55 -0.0073
71.6 -0.00005
71.65 0.0011
71.7 0.00185
71.75 -0.00159
71.8 -0.00577
71.85 -0.00766
71.9 -0.01126
71.95 -0.01192
72 -0.00695
72.05 0.00018
72.1 0.00248
72.15 0.00801
72.2 0.00959
72.25 0.00972
72.3 0.01176
72.35 0.00834
72.4 0.00438
72.45 0.00518
72.5 0.00526
72.55 0.00348
72.6 0.0013
72.65 -0.00285
72.7 -0.00596
72.75 -0.00661
72.8 -0.00809
72.85 -0.00464
72.9 -0.00008
72.95 0.00376
73 0.00973
73.05 0.00801
73.1 0.00689
73.15 0.00127
73.2 -0.00225
73.25 -0.00019
73.3 -0.00101
73.35 0.00008
73.4 0.00081
73.45 -0.00199
73.5 -0.00688
73.55 -0.01228
73.6 -0.01909
73.65 -0.01933
73.7 -0.02126
73.75 -0.02073
73.8 -0.01855
73.85 -0.01587
73.9 -0.00993
73.95 -0.00445
74 -0.00457
74.05 -0.00498
74.1 -0.00391
74.15 -0.00138
74.2 0.00052
74.25 -0.00146
74.3 -0.00022
74.35 0.00439
74.4 0.00518
74.45 0.00116
74.5 -0.00248
74.55 -0.00868
74.6 -0.016
74.65 -0.02285
74.7 -0.0253
74.75 -0.02344
74.8 -0.02401
74.85 -0.02646
74.9 -0.02472
74.95 -0.01902
75 -0.01171
75.05 -0.00465
75.1 0.00402
75.15 0.01045
75.2 0.01527
75.25 0.01713
75.3 0.01662
75.35 0.01517
75.4 0.01185
75.45 0.01269
75.5 0.01578
75.55 0.01258
75.6 0.01166
75.65 0.01423
75.7 0.01437
75.75 0.01041
75.8 0.0057
75.85 0.00113
75.9 -0.0013
75.95 -0.00383
76 -0.00385
76.05 0.00068
76.1 0.00335
76.15 0.00818
76.2 0.00717
76.25 0.00451
76.3 -0.00209
76.35 -0.00737
76.4 -0.00925
76.45 -0.00839
76.5 -0.00874
76.55 -0.00486
76.6 0.00047
76.65 0.00302
76.7 0.00005
76.75 -0.00432
76.8 -0.00595
76.85 -0.0076
76.9 -0.00891
76.95 -0.00426
77 -0.0001
77.05 0.00623
77.1 0.013
77.15 0.01457
77.2 0.01332
77.25 0.01013
77.3 0.00414
77.35 -0.00456
77.4 -0.00673
77.45 -0.01065
77.5 -0.01367
77.55 -0.01027
77.6 -0.00699
77.65 -0.00216
77.7 0.00269
77.75 0.00188
77.8 0.00389
77.85 0.00683
77.9 0.00999
77.95 0.01042
78 0.01423
78.05 0.01365
78.1 0.0088
78.15 0.00186
78.2 -0.00742
78.25 -0.00911
78.3 -0.00643
78.35 -0.00836
78.4 -0.01245
78.45 -0.0146
78.5 -0.01206
78.55 -0.01249
78.6 -0.0094
78.65 -0.01005
78.7 -0.00943
78.75 -0.00928
78.8 -0.00795
78.85 -0.01067
78.9 -0.00807
78.95 -0.00317
79 -0.00355
79.05 -0.00499
79.1 -0.0077
79.15 -0.00418
79.2 0.00222
79.25 0.00398
79.3 0.00878
79.35 0.01397
79.4 0.01493
79.45 0.01544
79.5 0.01552
79.55 0.01898
79.6 0.02073
79.65 0.01753
79.7 0.01816
79.75 0.01947
79.8 0.02291
79.85 0.02598
79.9 0.02164
79.95 0.02132
80 0.01674
80.05 0.01321
80.1 0.00698
80.15 -0.00215
80.2 -0.00411
80.25 -0.00078
80.3 0.0038
80.35 0.00519
80.4 0.0095
80.45 0.0089
80.5 0.01021
80.55 0.00968
80.6 0.00579
80.65 0.00157
80.7 -0.00559
80.75 -0.01047
80.8 -0.01696
80.85 -0.02464
80.9 -0.02876
80.95 -0.02607
81 -0.02357
81.05 -0.01978
81.1 -0.01785
81.15 -0.01403
81.2 -0.01506
81.25 -0.01645
81.3 -0.01611
81.35 -0.00995
81.4 -0.00711
81.45 -0.0056
81.5 -0.00784
81.55 -0.01044
81.6 -0.01598
81.65 -0.01942
81.7 -0.01761
81.75 -0.01886
81.8 -0.01768
81.85 -0.01545
81.9 -0.0166
81.95 -0.01566
82 -0.00915
82.05 -0.00714
82.1 -0.00214
82.15 0.00437
82.2 0.01068
82.25 0.01179
82.3 0.01199
82.35 0.00796
82.4 0.00061
82.45 -0.00691
82.5 -0.00951
82.55 -0.00968
82.6 -0.00621
82.65 0.00045
82.7 0.00757
82.75 0.01497
82.8 0.0198
82.85 0.0236
82.9 0.02458
82.95 0.0215
83 0.01608
83.05 0.01109
83.1 0.00664
83.15 0.00715
83.2 0.00474
83.25 0.00365
83.3 0.00281
83.35 0.00111
83.4 0.00042
83.45 -0.00335
83.5 -0.00915
83.55 -0.01621
83.6 -0.02251
83.65 -0.02918
83.7 -0.02742
83.75 -0.02579
83.8 -0.02245
83.85 -0.02308
83.9 -0.01874
83.95 -0.01714
84 -0.01318
84.05 -0.01087
84.1 -0.01285
84.15 -0.01375
84.2 -0.01003
84.25 -0.01014
84.3 -0.0049
84.35 0.00353
84.4 0.01357
84.45 0.02257
84.5 0.03125
84.55 0.03235
84.6 0.02895
84.65 0.02753
84.7 0.02023
84.75 0.01033
84.8 0.00585
84.85 0.00389
84.9 0.00661
84.95 0.01224
85 0.01737
85.05 0.01927
85.1 0.02131
85.15 0.01667
85.2 0.01685
85.25 0.01492
85.3 0.01589
85.35 0.01053
85.4 0.01079
85.45 0.01308
85.5 0.00974
85.55 0.00926
85.6 0.00474
85.65 0.00579
85.7 0.00355
85.75 0.00404
85.8 0.00815
85.85 0.00593
85.9 0.00805
85.95 0.00456
86 -0.00126
86.05 -0.00885
86.1 -0.01518
86.15 -0.01609
86.2 -0.01485
86.25 -0.00876
86.3 -0.00315
86.35 -0.00216
86.4 -0.00492
86.45 -0.0048
86.5 -0.00078
86.55 -0.00174
86.6 -0.00296
86.65 -0.00699
86.7 -0.01132
86.75 -0.00959
86.8 -0.00524
86.85 -0.00494
86.9 -0.00145
86.95 -0.00005
87 0.00245
87.05 0.00407
87.1 0.00096
87.15 -0.00421
87.2 -0.00946
87.25 -0.01155
87.3 -0.01188
87.35 -0.01411
87.4 -0.01697
87.45 -0.01543
87.5 -0.01578
87.55 -0.01409
87.6 -0.01234
87.65 -0.01229
87.7 -0.01332
87.75 -0.01582
87.8 -0.01902
87.85 -0.02381
87.9 -0.02674
87.95 -0.0299
88 -0.02888
88.05 -0.02776
88.1 -0.02679
88.15 -0.02314
88.2 -0.02194
88.25 -0.02373
88.3 -0.02035
88.35 -0.01922
88.4 -0.02017
88.45 -0.02258
88.5 -0.02553
88.55 -0.02574
88.6 -0.02088
88.65 -0.01105
88.7 -0.00159
88.75 0.00125
88.8 -0.00125
88.85 0.00017
88.9 0.00056
88.95 0.00477
89 0.00857
89.05 0.01356
89.1 0.01578
89.15 0.01587
89.2 0.01089
89.25 0.00379
89.3 -0.00438
89.35 -0.00587
89.4 -0.00516
89.45 -0.00795
89.5 -0.00893
89.55 -0.01199
89.6 -0.01495
89.65 -0.01721
89.7 -0.01406
89.75 -0.01464
89.8 -0.00895
89.85 -0.00096
89.9 0.00696
89.95 0.00837
90 0.00722
90.05 0.01116
90.1 0.01003
90.15 0.01126
90.2 0.01583
90.25 0.02129
90.3 0.0257
90.35 0.02256
90.4 0.01564
90.45 0.01334
90.5 0.01073
90.55 0.0052
90.6 0.00413
90.65 0.00055
90.7 0.00245
90.75 0.0027
90.8 0.00308
90.85 -0.00036
90.9 -0.00298
90.95 -0.00756
91 -0.00551
91.05 -0.00543
91.1 -0.00011
91.15 0.00045
91.2 0.0025
91.25 0.00715
91.3 0.01451
91.35 0.01383
91.4 0.01421
91.45 0.01741
91.5 0.01662
91.55 0.01841
91.6 0.01443
91.65 0.01
91.7 0.00438
91.75 0.00195
91.8 0.00356
91.85 0.00812
91.9 0.01405
91.95 0.01432
92 0.01596
92.05 0.01483
92.1 0.01635
92.15 0.01716
92.2 0.01262
92.25 0.00573
92.3 0.00515
92.35 0.0061
92.4 0.00982
92.45 0.01014
92.5 0.0134
92.55 0.01422
92.6 0.01821
92.65 0.0229
92.7 0.0232
92.75 0.01851
92.8 0.01388
92.85 0.01262
92.9 0.01167
92.95 0.00533
93 0.0017
93.05 -0.0045
93.1 -0.01087
93.15 -0.01727
93.2 -0.01697
93.25 -0.02025
93.3 -0.01893
93.35 -0.01554
93.4 -0.0154
93.45 -0.0094
93.5 -0.00582
93.55 -0.00319
93.6 -0.00485
93.65 -0.0058
93.7 -0.00859
93.75 -0.01278
93.8 -0.01893
93.85 -0.02549
93.9 -0.02318
93.95 -0.01873
94 -0.01438
94.05 -0.01396
94.1 -0.00766
94.15 -0.00411
94.2 -0.00401
94.25 0.00093
94.3 0.00804
94.35 0.01474
94.4 0.01623
94.45 0.01429
94.5 0.00733
94.55 0.00148
94.6 -0.00403
94.65 -0.01024
94.7 -0.01595
94.75 -0.01835
94.8 -0.01794
94.85 -0.01503
94.9 -0.00712
94.95 -0.00053
95 0.00489
95.05 0.01221
95.1 0.01682
95.15 0.01907
95.2 0.02096
95.25 0.02068
95.3 0.02233
95.35 0.02117
95.4 0.0166
95.45 0.01699
95.5 0.01402
95.55 0.01551
95.6 0.01791
95.65 0.01358
95.7 0.01242
95.75 0.00774
95.8 0.00856
95.85 0.00939
95.9 0.01144
95.95 0.01627
96 0.01431
96.05 0.01278
96.1 0.00599
96.15 0.00107
96.2 0.00014
96.25 -0.00528
96.3 -0.00494
96.35 -0.00009
96.4 0.00369
96.45 0.00342
96.5 0.00402
96.55 0.00135
96.6 0.00048
96.65 -0.00424
96.7 -0.01031
96.75 -0.0122
96.8 -0.01231
96.85 -0.0159
96.9 -0.02039
96.95 -0.02105
97 -0.0163
97.05 -0.01476
97.1 -0.00987
97.15 -0.01065
97.2 -0.00991
97.25 -0.01139
97.3 -0.0128
97.35 -0.01418
97.4 -0.01757
97.45 -0.01799
97.5 -0.01414
97.55 -0.01008
97.6 -0.00765
97.65 -0.00904
97.7 -0.00463
97.75 0.00246
97.8 0.00858
97.85 0.01387
97.9 0.01618
97.95 0.01265
98 0.00927
98.05 0.00892
98.1 0.01158
98.15 0.01355
98.2 0.01526
98.25 0.01535
98.3 0.01008
98.35 0.00187
98.4 -0.00072
98.45 -0.00467
98.5 -0.01001
98.55 -0.00874
98.6 -0.00309
98.65 -0.00084
98.7 -0.00381
98.75 -0.00666
98.8 -0.01136
98.85 -0.00887
98.9 -0.01013
98.95 -0.01247
99 -0.01007
99.05 -0.00785
99.1 -0.00521
99.15 -0.00578
99.2 -0.00838
99.25 -0.00621
99.3 -0.00007
99.35 0.00772
99.4 0.00916
99.45 0.00794
99.5 0.00499
99.55 0.00129
99.6 0.00115
99.65 -0.00243
99.7 -0.00147
99.75 -0.00503
99.8 -0.00562
99.85 -0.00719
99.9 -0.00733
99.95 -0.00686
