0 0
0.05 0.0048
0.1 0.01419
0.15 0.02014
0.2 0.02726
0.25 0.0377
0.3 0.04234
0.35 0.04992
0.4 0.05329
0.45 0.05531
0.5 0.0524
0.55 0.05433
0.6 0.05301
0.65 0.04884
0.7 0.0447
0.75 0.03867
0.8 0.0344
0.85 0.0345
0.9 0.03178
0.95 0.03429
1 0.03713
1.05 0.04071
1.1 0.04223
1.15 0.03985
1.2 0.03839
1.25 0.03456
1.3 0.0307
1.35 0.02775
1.4 0.02904
1.45 0.03367
1.5 0.03303
1.55 0.03486
1.6 0.03822
1.65 0.04045
1.7 0.0418
1.75 0.03931
1.8 0.0335
1.85 0.02701
1.9 0.02121
1.95 0.01908
2 0.01484
2.05 0.01085
2.1 0.01325
2.15 0.01204
2.2 0.01479
2.25 0.02005
2.3 0.02764
2.35 0.03665
2.4 0.04303
2.45 0.04607
2.5 0.04759
2.55 0.04416
2.6 0.04222
2.65 0.04091
2.7 0.03782
2.75 0.03617
2.8 0.03811
2.85 0.03619
2.9 0.03549
2.95 0.03319
3 0.03148
3.05 0.02887
3.1 0.03067
3.15 0.03213
3.2 0.02908
3.25 0.02859
3.3 0.03081
3.35 0.03051
3.4 0.02985
3.45 0.03017
3.5 0.03241
3.55 0.03096
3.6 0.02544
3.65 0.02185
3.7 0.02196
3.75 0.01793
3.8 0.01624
3.85 0.01146
3.9 0.01226
3.95 0.01222
4 0.00941
4.05 0.01088
4.1 0.00788
4.15 0.00621
4.2 0.00367
4.25 0.00486
4.3 0.00397
4.35 0.00313
4.4 -0.00109
4.45 -0.00277
4.5 -0.00277
4.55 -0.00069
4.6 0.00137
4.65 0.00082
4.7 -0.00477
4.75 -0.01065
4.8 -0.02073
4.85 -0.03387
4.9 -0.05527
4.95 -0.07442
5 -0.09453
5.05 -0.11366
5.1 -0.13261
5.15 -0.15573
5.2 -0.18092
5.25 -0.20567
5.3 -0.23226
5.35 -0.26498
5.4 -0.29902
5.45 -0.33328
5.5 -0.3652
5.55 -0.38864
5.6 -0.40245
5.65 -0.40704
5.7 -0.40673
5.75 -0.40131
5.8 -0.39065
5.85 -0.3759
5.9 -0.35825
5.95 -0.33309
6 -0.30707
6.05 -0.27564
6.1 -0.24293
6.15 -0.21061
6.2 -0.17779
6.25 -0.14181
6.3 -0.10281
6.35 -0.06079
6.4 -0.02307
6.45 0.01113
6.5 0.04888
6.55 0.08121
6.6 0.11006
6.65 0.13462
6.7 0.15895
6.75 0.18383
6.8 0.20533
6.85 0.22269
6.9 0.24263
6.95 0.25765
7 0.27553
7.05 0.29352
7.1 0.30653
7.15 0.31616
7.2 0.31878
7.25 0.31707
7.3 0.31762
7.35 0.31478
7.4 0.3146
7.45 0.31444
7.5 0.30772
7.55 0.29757
7.6 0.2892
7.65 0.27659
7.7 0.26759
7.75 0.25653
7.8 0.24268
7.85 0.23167
7.9 0.2231
7.95 0.21513
8 0.20759
8.05 0.20006
8.1 0.18796
8.15 0.17687
8.2 0.16862
8.25 0.15721
8.3 0.14587
8.35 0.1377
8.4 0.12907
8.45 0.12051
8.5 0.11249
8.55 0.10975
8.6 0.11008
8.65 0.10558
8.7 0.09744
8.75 0.0943
8.8 0.09091
8.85 0.08573
8.9 0.0782
8.95 0.07085
9 0.06477
9.05 0.06184
9.1 0.06055
9.15 0.05994
9.2 0.05993
9.25 0.0631
9.3 0.06198
9.35 0.05981
9.4 0.05703
9.45 0.05464
9.5 0.05126
9.55 0.05164
9.6 0.05421
9.65 0.05256
9.7 0.04759
9.75 0.04329
9.8 0.04032
9.85 0.0354
9.9 0.02924
9.95 0.02394
10 0.02228
10.05 0.0212
10.1 0.01739
10.15 0.01478
10.2 0.01561
10.25 0.01994
10.3 0.02511
10.35 0.02752
10.4 0.0241
10.45 0.01996
10.5 0.0168
10.55 0.01677
10.6 0.01133
10.65 0.0103
10.7 0.01069
10.75 0.00982
10.8 0.00629
10.85 0.00613
10.9 0.00258
10.95 -0.00518
11 -0.01092
11.05 -0.01111
11.1 -0.0156
11.15 -0.01775
11.2 -0.02069
11.25 -0.02716
11.3 -0.03097
11.35 -0.03679
11.4 -0.03753
11.45 -0.03312
11.5 -0.02592
11.55 -0.02123
11.6 -0.01504
11.65 -0.0096
11.7 -0.00576
11.75 -0.00122
11.8 0.00203
11.85 0.00211
11.9 -0.00449
11.95 -0.01017
12 -0.01667
12.05 -0.0194
12.1 -0.01854
12.15 -0.01715
12.2 -0.01707
12.25 -0.0221
12.3 -0.02245
12.35 -0.01951
12.4 -0.02012
12.45 -0.02339
12.5 -0.02661
12.55 -0.02691
12.6 -0.03119
12.65 -0.03798
12.7 -0.03944
12.75 -0.04104
12.8 -0.03904
12.85 -0.03335
12.9 -0.02862
12.95 -0.02806
13 -0.03036
13.05 -0.02757
13.1 -0.02704
13.15 -0.02267
13.2 -0.02084
13.25 -0.02318
13.3 -0.02832
13.35 -0.03068
13.4 -0.03261
13.45 -0.03743
13.5 -0.0408
13.55 -0.03812
13.6 -0.03612
13.65 -0.03613
13.7 -0.0369
13.75 -0.03516
13.8 -0.02934
13.85 -0.02168
13.9 -0.01784
13.95 -0.01355
14 -0.0127
14.05 -0.01106
14.1 -0.01132
14.15 -0.0145
14.2 -0.01694
14.25 -0.02155
14.3 -0.02381
14.35 -0.02534
14.4 -0.02805
14.45 -0.02472
14.5 -0.0192
14.55 -0.01197
14.6 -0.00402
14.65 -0.00038
14.7 0.00386
14.75 0.00654
14.8 0.00974
14.85 0.00828
14.9 0.00497
14.95 -0.0022
15 -0.0106
15.05 -0.01243
15.1 -0.01337
15.15 -0.01693
15.2 -0.01539
15.25 -0.01668
15.3 -0.01987
15.35 -0.02042
15.4 -0.01724
15.45 -0.01628
15.5 -0.01435
15.55 -0.01165
15.6 -0.01005
15.65 -0.00678
15.7 -0.00771
15.75 -0.01285
15.8 -0.01846
15.85 -0.02112
15.9 -0.01845
15.95 -0.01583
16 -0.0124
16.05 -0.0134
16.1 -0.01404
16.15 -0.01601
16.2 -0.01797
16.25 -0.02273
16.3 -0.02362
16.35 -0.02169
16.4 -0.02074
16.45 -0.01671
16.5 -0.01541
16.55 -0.01833
16.6 -0.01744
16.65 -0.01819
16.7 -0.01411
16.75 -0.01429
16.8 -0.01631
16.85 -0.0205
16.9 -0.02112
16.95 -0.02071
17 -0.0222
17.05 -0.02266
17.1 -0.02385
17.15 -0.02112
17.2 -0.02241
17.25 -0.02111
17.3 -0.01622
17.35 -0.01591
17.4 -0.01113
17.45 -0.01186
17.5 -0.01397
17.55 -0.01831
17.6 -0.01646
17.65 -0.01126
17.7 -0.00968
17.75 -0.00749
17.8 -0.00875
17.85 -0.00694
17.9 -0.0035
17.95 -0.00201
18 -0.00321
18.05 -0.00756
18.1 -0.01019
18.15 -0.01544
18.2 -0.01606
18.25 -0.01779
18.3 -0.01437
18.35 -0.01372
18.4 -0.00978
18.45 -0.00617
18.5 -0.00364
18.55 -0.00227
18.6 0.00134
18.65 0.00182
18.7 0.00165
18.75 -0.0005
18.8 -0.00113
18.85 -0.00124
18.9 0.00143
18.95 -0.00136
19 -0.00534
19.05 -0.0043
19.1 -0.00495
19.15 -0.0038
19.2 -0.0066
19.25 -0.00752
19.3 -0.00747
19.35 -0.0061
19.4 -0.00123
19.45 0.00048
19.5 0.00259
19.55 -0.00021
19.6 -0.00064
19.65 0.00322
19.7 0.00616
19.75 0.0063
19.8 0.00689
19.85 0.01081
19.9 0.01041
19.95 0.00487
20 0.00021
20.05 -0.00537
20.1 -0.01145
20.15 -0.01888
20.2 -0.02336
20.25 -0.02291
20.3 -0.02143
20.35 -0.01668
20.4 -0.01235
20.45 -0.01136
20.5 -0.01012
20.55 -0.01271
20.6 -0.01447
20.65 -0.01745
20.7 -0.01937
20.75 -0.02168
20.8 -0.02117
20.85 -0.01827
20.9 -0.01563
20.95 -0.00855
21 -0.00418
21.05 0.00127
21.1 0.00817
21.15 0.01148
21.2 0.01494
21.25 0.01571
21.3 0.01587
21.35 0.01176
21.4 0.0118
21.45 0.01112
21.5 0.0065
21.55 0.00528
21.6 0.0053
21.65 0.00864
21.7 0.01222
21.75 0.0111
21.8 0.01229
21.85 0.01116
21.9 0.00778
21.95 0.00266
22 -0.0002
22.05 0.0011
22.1 0.00457
22.15 0.00816
22.2 0.00833
22.25 0.01181
22.3 0.01601
22.35 0.02067
22.4 0.02182
22.45 0.01803
22.5 0.01499
22.55 0.00986
22.6 0.00844
22.65 0.00935
22.7 0.00481
22.75 0.00209
22.8 0.00118
22.85 -0.00212
22.9 -0.0038
22.95 -0.00153
23 0.00247
23.05 0.00531
23.1 0.00227
23.15 -0.00432
23.2 -0.01163
23.25 -0.01567
23.3 -0.01571
23.35 -0.01071
23.4 -0.006
23.45 -0.00455
23.5 -0.00743
23.55 -0.00552
23.6 -0.00212
23.65 0.00222
23.7 0.00262
23.75 0.00201
23.8 -0.00237
23.85 -0.00672
23.9 -0.00995
23.95 -0.00908
24 -0.00642
24.05 -0.00843
24.1 -0.00615
24.15 -0.00096
24.2 0.00306
24.25 0.00379
24.3 0.00669
24.35 0.00756
24.4 0.00654
24.45 0.00332
24.5 0.00372
24.55 0.00205
24.6 -0.00335
24.65 -0.01041
24.7 -0.01457
24.75 -0.01344
24.8 -0.00984
24.85 -0.00564
24.9 -0.00102
24.95 0.00438
25 0.00913
25.05 0.01092
25.1 0.00738
25.15 0.00836
25.2 0.00799
25.25 0.00404
25.3 -0.0012
25.35 -0.00222
25.4 -0.00497
25.45 -0.00314
25.5 0.00174
25.55 0.00097
25.6 -0.00153
25.65 -0.00307
25.7 -0.00651
25.75 -0.00982
25.8 -0.01567
25.85 -0.02013
25.9 -0.01979
25.95 -0.01475
26 -0.0119
26.05 -0.00587
26.1 -0.00248
26.15 0.00196
26.2 0.00344
26.25 0.00437
26.3 0.00752
26.35 0.01113
26.4 0.01128
26.45 0.00859
26.5 0.00195
26.55 -0.00146
26.6 -0.00539
26.65 -0.00896
26.7 -0.0109
26.75 -0.01067
26.8 -0.01409
26.85 -0.01876
26.9 -0.02306
26.95 -0.02701
27 -0.02552
27.05 -0.02426
27.1 -0.01957
27.15 -0.0151
27.2 -0.01468
27.25 -0.01058
27.3 -0.01097
27.35 -0.00957
27.4 -0.00945
27.45 -0.01191
27.5 -0.01578
27.55 -0.01781
27.6 -0.02121
27.65 -0.02385
27.7 -0.02808
27.75 -0.03733
27.8 -0.04578
27.85 -0.05879
27.9 -0.07399
27.95 -0.08632
28 -0.09914
28.05 -0.10979
28.1 -0.12237
28.15 -0.14293
28.2 -0.16904
28.25 -0.19715
28.3 -0.23356
28.35 -0.27383
28.4 -0.32116
28.45 -0.36747
28.5 -0.41665
28.55 -0.46803
28.6 -0.52349
28.65 -0.58689
28.7 -0.65697
28.75 -0.73023
28.8 -0.81419
28.85 -0.90748
28.9 -1.00514
28.95 -1.10244
29 -1.19899
29.05 -1.29863
29.1 -1.39651
29.15 -1.49835
29.2 -1.60132
29.25 -1.69583
29.3 -1.78925
29.35 -1.87634
29.4 -1.95744
29.45 -2.03432
29.5 -2.10077
29.55 -2.15906
29.6 -2.20416
29.65 -2.23906
29.7 -2.26221
29.75 -2.27632
29.8 -2.27536
29.85 -2.26542
29.9 -2.24221
29.95 -2.20088
30 -2.14581
30.05 -2.08022
30.1 -2.00543
30.15 -1.91749
30.2 -1.81583
30.25 -1.70308
30.3 -1.58451
30.35 -1.46016
30.4 -1.32985
30.45 -1.19333
30.5 -1.05414
30.55 -0.90852
30.6 -0.75363
30.65 -0.60035
30.7 -0.44454
30.75 -0.28482
30.8 -0.12688
30.85 0.0296
30.9 0.17859
30.95 0.32714
31 0.47152
31.05 0.60779
31.1 0.73929
31.15 0.86175
31.2 0.97639
31.25 1.07917
31.3 1.17589
31.35 1.26421
31.4 1.34554
31.45 1.42143
31.5 1.48713
31.55 1.54824
31.6 1.60391
31.65 1.65203
31.7 1.69571
31.75 1.73252
31.8 1.7687
31.85 1.80151
31.9 1.8309
31.95 1.85292
32 1.86407
32.05 1.87216
32.1 1.87818
32.15 1.88414
32.2 1.88732
32.25 1.88632
32.3 1.8776
32.35 1.86928
32.4 1.86039
32.45 1.8477
32.5 1.83383
32.55 1.82486
32.6 1.81187
32.65 1.80135
32.7 1.79155
32.75 1.77395
32.8 1.7543
32.85 1.73361
32.9 1.71111
32.95 1.68854
33 1.66858
33.05 1.64384
33.1 1.615
33.15 1.58381
33.2 1.55635
33.25 1.52599
33.3 1.4979
33.35 1.46731
33.4 1.43546
33.45 1.39726
33.5 1.35447
33.55 1.31158
33.6 1.26536
33.65 1.22029
33.7 1.17793
33.75 1.13533
33.8 1.0891
33.85 1.04928
33.9 1.0065
33.95 0.9631
34 0.9177
34.05 0.87821
34.1 0.83861
34.15 0.79569
34.2 0.75575
34.25 0.71394
34.3 0.67385
34.35 0.63308
34.4 0.59594
34.45 0.55433
34.5 0.51499
34.55 0.48002
34.6 0.44788
34.65 0.41524
34.7 0.3798
34.75 0.34372
34.8 0.31147
34.85 0.27828
34.9 0.24098
34.95 0.20177
35 0.16777
35.05 0.13497
35.1 0.10777
35.15 0.08333
35.2 0.05831
35.25 0.03741
35.3 0.01152
35.35 -0.01361
35.4 -0.0406
35.45 -0.06303
35.5 -0.08172
35.55 -0.10429
35.6 -0.12238
35.65 -0.13707
35.7 -0.14755
35.75 -0.15946
35.8 -0.16939
35.85 -0.18165
35.9 -0.19683
35.95 -0.21546
36 -0.228
36.05 -0.23914
36.1 -0.24612
36.15 -0.251
36.2 -0.25473
36.25 -0.26201
36.3 -0.26738
36.35 -0.27579
36.4 -0.28787
36.45 -0.29485
36.5 -0.30439
36.55 -0.3134
36.6 -0.31591
36.65 -0.31608
36.7 -0.31955
36.75 -0.32372
36.8 -0.32724
36.85 -0.32957
36.9 -0.33031
36.95 -0.32933
37 -0.32957
37.05 -0.32691
37.1 -0.32154
37.15 -0.31501
37.2 -0.3115
37.25 -0.30862
37.3 -0.30674
37.35 -0.30293
37.4 -0.3004
37.45 -0.30283
37.5 -0.30665
37.55 -0.3108
37.6 -0.31087
37.65 -0.30808
37.7 -0.30105
37.75 -0.29653
37.8 -0.29661
37.85 -0.29311
37.9 -0.292
37.95 -0.29183
38 -0.29199
38.05 -0.2905
38.1 -0.286
38.15 -0.28086
38.2 -0.27597
38.25 -0.27171
38.3 -0.26712
38.35 -0.26358
38.4 -0.26075
38.45 -0.2546
38.5 -0.25142
38.55 -0.25149
38.6 -0.24682
38.65 -0.24288
38.7 -0.24231
38.75 -0.23825
38.8 -0.23719
38.85 -0.23677
38.9 -0.23128
38.95 -0.22588
39 -0.21894
39.05 -0.21256
39.1 -0.20773
39.15 -0.20288
39.2 -0.19779
39.25 -0.19404
39.3 -0.18968
39.35 -0.18479
39.4 -0.18141
39.45 -0.18314
39.5 -0.18803
39.55 -0.18811
39.6 -0.18585
39.65 -0.18082
39.7 -0.17741
39.75 -0.17813
39.8 -0.18096
39.85 -0.18256
39.9 -0.17858
39.95 -0.1729
40 -0.17162
40.05 -0.17025
40.1 -0.17105
40.15 -0.17351
40.2 -0.16931
40.25 -0.16248
40.3 -0.15279
40.35 -0.1484
40.4 -0.14539
40.45 -0.13865
40.5 -0.13493
40.55 -0.13336
40.6 -0.13336
40.65 -0.12829
40.7 -0.1273
40.75 -0.12452
40.8 -0.1252
40.85 -0.12736
40.9 -0.12421
40.95 -0.11758
41 -0.1119
41.05 -0.10857
41.1 -0.10512
41.15 -0.09924
41.2 -0.09374
41.25 -0.09084
41.3 -0.0869
41.35 -0.08358
41.4 -0.08318
41.45 -0.08068
41.5 -0.0809
41.55 -0.08578
41.6 -0.08579
41.65 -0.08304
41.7 -0.08329
41.75 -0.0847
41.8 -0.08278
41.85 -0.07938
41.9 -0.07952
41.95 -0.0794
42 -0.08054
42.05 -0.07894
42.1 -0.07986
42.15 -0.08169
42.2 -0.087
42.25 -0.08983
42.3 -0.08636
42.35 -0.08655
42.4 -0.08706
42.45 -0.08962
42.5 -0.09154
42.55 -0.09187
42.6 -0.08958
42.65 -0.08199
42.7 -0.07403
42.75 -0.06766
42.8 -0.06143
42.85 -0.05946
42.9 -0.06201
42.95 -0.06388
43 -0.06678
43.05 -0.06995
43.1 -0.0692
43.15 -0.06529
43.2 -0.05799
43.25 -0.05618
43.3 -0.05643
43.35 -0.06043
43.4 -0.06327
43.45 -0.06447
43.5 -0.06296
43.55 -0.06147
43.6 -0.06223
43.65 -0.05876
43.7 -0.05964
43.75 -0.05688
43.8 -0.05431
43.85 -0.05112
43.9 -0.04578
43.95 -0.0405
44 -0.03345
44.05 -0.02935
44.1 -0.02909
44.15 -0.02625
44.2 -0.02415
44.25 -0.02731
44.3 -0.02883
44.35 -0.02672
44.4 -0.02654
44.45 -0.02652
44.5 -0.02772
44.55 -0.02773
44.6 -0.03159
44.65 -0.03849
44.7 -0.04283
44.75 -0.04738
44.8 -0.04702
44.85 -0.04646
44.9 -0.04335
44.95 -0.04489
45 -0.04206
45.05 -0.04341
45.1 -0.04311
45.15 -0.03893
45.2 -0.03426
45.25 -0.03091
45.3 -0.03182
45.35 -0.02928
45.4 -0.03079
45.45 -0.02938
45.5 -0.03094
45.55 -0.03216
45.6 -0.03355
45.65 -0.0373
45.7 -0.03939
45.75 -0.04366
45.8 -0.04316
45.85 -0.04074
45.9 -0.03457
45.95 -0.02896
46 -0.02202
46.05 -0.01781
46.1 -0.01544
46.15 -0.01029
46.2 -0.00389
46.25 -0.00206
46.3 -0.00624
46.35 -0.01125
46.4 -0.01682
46.45 -0.02309
46.5 -0.02829
46.55 -0.02722
46.6 -0.02628
46.65 -0.02907
46.7 -0.02751
46.75 -0.0227
46.8 -0.02201
46.85 -0.02502
46.9 -0.02992
46.95 -0.03243
47 -0.02894
47.05 -0.02949
47.1 -0.02665
47.15 -0.02649
47.2 -0.02973
47.25 -0.03428
47.3 -0.03855
47.35 -0.03766
47.4 -0.03457
47.45 -0.03307
47.5 -0.0277
47.55 -0.01894
47.6 -0.01328
47.65 -0.01228
47.7 -0.01505
47.75 -0.01992
47.8 -0.0235
47.85 -0.02307
47.9 -0.02349
47.95 -0.02093
48 -0.02236
48.05 -0.02195
48.1 -0.02202
48.15 -0.0243
48.2 -0.02055
48.25 -0.0142
48.3 -0.01117
48.35 -0.00502
48.4 -0.00186
48.45 0.00276
48.5 0.00146
48.55 0.00067
48.6 0.00075
48.65 -0.00046
48.7 0.00106
48.75 0.00084
48.8 0.00258
48.85 -0.00012
48.9 -0.0055
48.95 -0.01173
49 -0.01542
49.05 -0.01336
49.1 -0.00877
49.15 -0.00398
49.2 -0.00195
49.25 -0.00281
49.3 -0.0074
49.35 -0.01246
49.4 -0.01457
49.45 -0.01167
49.5 -0.00578
49.55 -0.00126
49.6 0.00472
49.65 0.00343
49.7 0.00024
49.75 -0.00487
49.8 -0.00539
49.85 -0.00439
49.9 -0.00542
49.95 -0.00438
50 -0.00544
50.05 -0.00189
50.1 -0.00174
50.15 -0.00413
50.2 -0.00783
50.25 -0.00716
50.3 -0.00453
50.35 -0.00554
50.4 -0.00968
50.45 -0.01209
50.5 -0.00929
50.55 -0.00753
50.6 -0.00946
50.65 -0.00856
50.7 -0.00501
50.75 0.00008
50.8 0.00555
50.85 0.01236
50.9 0.01836
50.95 0.02003
51 0.01903
51.05 0.01935
51.1 0.01517
51.15 0.00705
51.2 0.00447
51.25 0.0044
51.3 0.00746
51.35 0.01178
51.4 0.01268
51.45 0.01518
51.5 0.01656
51.55 0.01748
51.6 0.01395
51.65 0.008
51.7 0.00655
51.75 0.00469
51.8 0.00406
51.85 0.0055
51.9 0.00801
51.95 0.00716
52 0.00768
52.05 0.00871
52.1 0.00372
52.15 -0.00248
52.2 -0.01062
52.25 -0.01239
52.3 -0.01453
52.35 -0.01659
52.4 -0.01653
52.45 -0.01585
52.5 -0.01499
52.55 -0.0137
52.6 -0.01641
52.65 -0.02043
52.7 -0.02579
52.75 -0.0268
52.8 -0.02254
52.85 -0.02249
52.9 -0.01873
52.95 -0.01908
53 -0.02114
53.05 -0.0202
53.1 -0.0161
53.15 -0.00865
53.2 -0.00082
53.25 0.003
53.3 0.00081
53.35 0.00328
53.4 0.00526
53.45 0.00576
53.5 0.00101
53.55 -0.00451
53.6 -0.00802
53.65 -0.00799
53.7 -0.00825
53.75 -0.01173
53.8 -0.01213
53.85 -0.01525
53.9 -0.02049
53.95 -0.02526
54 -0.02432
54.05 -0.0177
54.1 -0.01003
54.15 -0.00317
54.2 0.00138
54.25 0.00645
54.3 0.01029
54.35 0.00886
54.4 0.00452
54.45 -0.00057
54.5 -0.00719
54.55 -0.0073
54.6 -0.00757
54.65 -0.0107
54.7 -0.01468
54.75 -0.01259
54.8 -0.01222
54.85 -0.01338
54.9 -0.01414
54.95 -0.01584
55 -0.01327
55.05 -0.01142
55.1 -0.00813
55.15 -0.00746
55.2 -0.00777
55.25 -0.00297
55.3 -0.00185
55.35 0.00209
55.4 0.00647
55.45 0.01072
55.5 0.01595
55.55 0.02214
55.6 0.02607
55.65 0.02628
55.7 0.02679
55.75 0.02076
55.8 0.01594
55.85 0.01325
55.9 0.00884
55.95 0.00842
56 0.00603
56.05 0.00538
56.1 0.00511
56.15 0.00615
56.2 0.00799
56.25 0.00555
56.3 0.00093
56.35 -0.00138
56.4 0.00032
56.45 0.00175
56.5 0.00128
56.55 0.00336
56.6 0.00223
56.65 0.00448
56.7 0.00382
56.75 0.0067
56.8 0.00895
56.85 0.01276
56.9 0.01483
56.95 0.0125
57 0.00772
57.05 0.00364
57.1 0.00019
57.15 0.00015
57.2 -0.00423
57.25 -0.00872
57.3 -0.00878
57.35 -0.01138
57.4 -0.01385
57.45 -0.01145
57.5 -0.00524
57.55 -0.00237
57.6 -0.00429
57.65 -0.00511
57.7 -0.00616
57.75 -0.00709
57.8 -0.00964
57.85 -0.013
57.9 -0.01757
57.95 -0.01999
58 -0.0164
58.05 -0.01717
58.1 -0.0153
58.15 -0.01458
58.2 -0.0139
58.25 -0.01048
58.3 -0.00843
58.35 -0.00824
58.4 -0.01145
58.45 -0.01068
58.5 -0.00622
58.55 -0.00608
58.6 -0.00503
58.65 -0.00572
58.7 -0.00418
58.75 -0.00415
58.8 -0.00632
58.85 -0.00831
58.9 -0.0065
58.95 -0.00455
59 -0.0038
59.05 -0.00521
59.1 -0.00266
59.15 0.00186
59.2 0.00224
59.25 0.00001
59.3 -0.0027
59.35 -0.00071
59.4 -0.00343
59.45 -0.00288
59.5 0.00016
59.55 -0.00045
59.6 -0.002
59.65 -0.00627
59.7 -0.01003
59.75 -0.00979
59.8 -0.00972
59.85 -0.006
59.9 -0.00564
59.95 -0.00723
60 -0.00448
60.05 -0.00491
60.1 -0.00141
60.15 -0.00271
60.2 0.00104
60.25 0.00252
60.3 0.0002
60.35 -0.00495
60.4 -0.0048
60.45 -0.00717
60.5 -0.01134
60.55 -0.01119
60.6 -0.00834
60.65 -0.00597
60.7 -0.00053
60.75 -0.00106
60.8 0.00058
60.85 -0.00006
60.9 0.00077
60.95 0.00548
61 0.00729
61.05 0.00362
61.1 0.00323
61.15 0.00638
61.2 0.00857
61.25 0.01136
61.3 0.0099
61.35 0.01183
61.4 0.01412
61.45 0.01319
61.5 0.00736
61.55 0.0015
61.6 -0.00156
61.65 -0.00581
61.7 -0.00504
61.75 -0.0051
61.8 -0.00792
61.85 -0.00695
61.9 -0.0026
61.95 -0.00375
62 -0.00816
62.05 -0.00874
62.1 -0.00572
62.15 -0.00341
62.2 -0.00487
62.25 -0.00657
62.3 -0.00312
62.35 0.00273
62.4 0.00737
62.45 0.01159
62.5 0.01171
62.55 0.00817
62.6 0.00517
62.65 0.00099
62.7 -0.00278
62.75 -0.00831
62.8 -0.01229
62.85 -0.01102
62.9 -0.00676
62.95 -0.00117
63 0.00277
63.05 0.00128
63.1 0.00456
63.15 0.00948
63.2 0.01508
63.25 0.01981
63.3 0.01757
63.35 0.01275
63.4 0.01231
63.45 0.01175
63.5 0.01416
63.55 0.01297
63.6 0.00774
63.65 0.00535
63.7 0.00089
63.75 -0.00254
63.8 -0.00309
63.85 0.00034
63.9 0.00244
63.95 0.00706
64 0.01236
64.05 0.01488
64.1 0.01786
64.15 0.01843
64.2 0.01382
64.25 0.01284
64.3 0.00932
64.35 0.00243
64.4 -0.00473
64.45 -0.0121
64.5 -0.01717
64.55 -0.0148
64.6 -0.01487
64.65 -0.01149
64.7 -0.00969
64.75 -0.0113
64.8 -0.01186
64.85 -0.01385
64.9 -0.01583
64.95 -0.01798
65 -0.02087
65.05 -0.02151
65.1 -0.01841
65.15 -0.01304
65.2 -0.00909
65.25 -0.00704
65.3 -0.00784
65.35 -0.00639
65.4 -0.00329
65.45 -0.0008
65.5 0.00108
65.55 -0.00021
65.6 0.00042
65.65 0.00313
65.7 0.0062
65.75 0.00738
65.8 0.00332
65.85 0.00232
65.9 -0.00152
65.95 0.00012
66 0.00485
66.05 0.00884
66.1 0.01459
66.15 0.01874
66.2 0.019
66.25 0.01528
66.3 0.00795
66.35 0.00517
66.4 0.00386
66.45 0.00404
66.5 0.00696
66.55 0.01066
66.6 0.00974
66.65 0.00454
66.7 0.00498
66.75 0.00295
66.8 0.00162
66.85 0.0041
66.9 0.00138
66.95 -0.0001
67 -0.00192
67.05 -0.00446
67.1 -0.00551
67.15 -0.00494
67.2 -0.0029
67.25 -0.00283
67.3 -0.00186
67.35 -0.00385
67.4 -0.00921
67.45 -0.016
67.5 -0.02026
67.55 -0.02458
67.6 -0.02832
67.65 -0.02685
67.7 -0.01966
67.75 -0.01033
67.8 -0.00591
67.85 -0.00495
67.9 -0.00451
67.95 -0.00038
68 0.00359
68.05 0.00825
68.1 0.01165
68.15 0.01072
68.2 0.00628
68.25 -0.00139
68.3 -0.00412
68.35 -0.00345
68.4 -0.00195
68.45 0.00126
68.5 0.00164
68.55 0.00083
68.6 0.00342
68.65 0.00059
68.7 -0.00464
68.75 -0.00355
68.8 -0.00611
68.85 -0.00613
68.9 -0.0037
68.95 -0.00366
69 -0.00086
69.05 0.0009
69.1 0.00221
69.15 -0.00097
69.2 -0.00128
69.25 0.00013
69.3 -0.0005
69.35 -0.00319
69.4 -0.00405
69.45 -0.00197
69.5 -0.00397
69.55 -0.00391
69.6 -0.00099
69.65 0.00254
69.7 0.00623
69.75 0.00432
69.8 0.00476
69.85 0.00035
69.9 -0.00022
69.95 -0.00077
70 0.00315
70.05 0.00649
70.1 0.00554
70.15 0.00454
70.2 0.00589
70.25 0.00732
70.3 0.00669
70.35 0.00911
70.4 0.00718
70.45 0.00816
70.5 0.00529
70.55 0.00201
70.6 0.00113
70.65 -0.00168
70.7 -0.00115
70.75 -0.0041
70.8 -0.00548
70.85 -0.00898
70.9 -0.0073
70.95 -0.006
71 -0.00176
71.05 0.00294
71.1 0.00511
71.15 0.00762
71.2 0.00631
71.25 0.00227
71.3 0.0008
71.35 -0.00343
71.4 -0.00956
71.45 -0.01631
71.5 -0.01597
71.55 -0.01549
71.6 -0.01607
71.65 -0.01659
71.7 -0.01318
71.75 -0.01279
71.8 -0.00728
71.85 -0.00036
71.9 0.00024
71.95 0.00183
72 0.00695
72.05 0.01388
72.1 0.02079
72.15 0.02183
72.2 0.02315
72.25 0.02345
72.3 0.02058
72.35 0.02013
72.4 0.01821
72.45 0.01804
72.5 0.01961
72.55 0.01826
72.6 0.01942
72.65 0.0197
72.7 0.02206
72.75 0.02473
72.8 0.02452
72.85 0.02053
72.9 0.01164
72.95 0.00477
73 -0.0011
73.05 -0.00482
73.1 -0.00987
73.15 -0.01225
73.2 -0.01546
73.25 -0.01827
73.3 -0.02311
73.35 -0.02436
73.4 -0.01964
73.45 -0.01712
73.5 -0.01538
73.55 -0.01613
73.6 -0.01855
73.65 -0.0145
73.7 -0.00975
73.75 -0.00752
73.8 -0.00639
73.85 -0.00236
73.9 0.00381
73.95 0.00664
74 0.00408
74.05 0.00543
74.1 0.00133
74.15 0.00188
74.2 0.00042
74.25 0.00235
74.3 -0.00035
74.35 -0.00009
74.4 -0.00314
74.45 -0.00111
74.5 0.00267
74.55 0.00299
74.6 0.00697
74.65 0.00726
74.7 0.008
74.75 0.00624
74.8 0.00372
74.85 0.00406
74.9 0.00327
74.95 0.00524
75 0.006
75.05 0.0054
75.1 0.00577
75.15 0.00622
75.2 0.0041
75.25 0.00571
75.3 0.00291
75.35 0.00242
75.4 0.00223
75.45 0.00374
75.5 0.00146
75.55 -0.00237
75.6 -0.00732
75.65 -0.00653
75.7 -0.00773
75.75 -0.01043
75.8 -0.01087
75.85 -0.00976
75.9 -0.01156
75.95 -0.01092
76 -0.0125
76.05 -0.01055
76.1 -0.00869
76.15 -0.00369
76.2 -0.00213
76.25 0.00117
76.3 0.00646
76.35 0.0117
76.4 0.01522
76.45 0.01167
76.5 0.01056
76.55 0.01298
76.6 0.00976
76.65 0.00582
76.7 0.00556
76.75 0.0078
76.8 0.00803
76.85 0.00853
76.9 0.01151
76.95 0.01191
77 0.01442
77.05 0.01398
77.1 0.01581
77.15 0.01187
77.2 0.01072
77.25 0.00861
77.3 0.0063
77.35 0.00573
77.4 0.00817
77.45 0.01076
77.5 0.01219
77.55 0.01531
77.6 0.01699
77.65 0.01609
77.7 0.0111
77.75 0.00401
77.8 0.00021
77.85 -0.0047
77.9 -0.0098
77.95 -0.01609
78 -0.01497
78.05 -0.01096
78.1 -0.0052
78.15 -0.0047
78.2 -0.00148
78.25 -0.00398
78.3 -0.00693
78.35 -0.00889
78.4 -0.00819
78.45 -0.00547
78.5 -0.00096
78.55 0.00176
78.6 0.00578
78.65 0.00811
78.7 0.00605
78.75 0.00038
78.8 -0.00697
78.85 -0.0109
78.9 -0.00908
78.95 -0.00571
79 -0.00527
79.05 -0.00379
79.1 -0.0009
79.15 0.00193
79.2 0.00512
79.25 0.00639
79.3 0.00268
79.35 0.00116
79.4 0.00353
79.45 0.00549
79.5 0.00382
79.55 0.00232
79.6 0.00371
79.65 0.00198
79.7 0.00342
79.75 0.00652
79.8 0.0048
79.85 0.0028
79.9 -0.00074
79.95 -0.00057
80 -0.00466
80.05 -0.00813
80.1 -0.01304
80.15 -0.01234
80.2 -0.00846
80.25 -0.00909
80.3 -0.00718
80.35 -0.00713
80.4 -0.00616
80.45 -0.00313
80.5 0.00259
80.55 0.0049
80.6 0.00504
80.65 0.00855
80.7 0.00581
80.75 0.00002
80.8 -0.0064
80.85 -0.01188
80.9 -0.0106
80.95 -0.00669
81 -0.00481
81.05 -0.0057
81.1 -0.00266
81.15 -0.00176
81.2 -0.00229
81.25 -0.00708
81.3 -0.0142
81.35 -0.02136
81.4 -0.02194
81.45 -0.01666
81.5 -0.00913
81.55 -0.00425
81.6 0.003
81.65 0.01139
81.7 0.01135
81.75 0.00715
81.8 0.0002
81.85 -0.00594
81.9 -0.00836
81.95 -0.00944
82 -0.007
82.05 -0.00904
82.1 -0.01164
82.15 -0.01151
82.2 -0.01205
82.25 -0.01319
82.3 -0.01156
82.35 -0.01355
82.4 -0.01272
82.45 -0.00969
82.5 -0.00899
82.55 -0.00716
82.6 -0.00847
82.65 -0.00557
82.7 -0.00174
82.75 0.00046
82.8 -0.00041
82.85 -0.00442
82.9 -0.00274
82.95 -0.00593
83 -0.00836
83.05 -0.00957
83.1 -0.00757
83.15 -0.00349
83.2 -0.00132
83.25 -0.00014
83.3 0.00274
83.35 0.00487
83.4 0.0056
83.45 0.00197
83.5 -0.00246
83.55 -0.00235
83.6 0.00065
83.65 0.00383
83.7 0.00433
83.75 0.00712
83.8 0.012
83.85 0.01371
83.9 0.01157
83.95 0.01112
84 0.00542
84.05 0.00342
84.1 -0.00073
84.15 -0.00045
84.2 -0.00045
84.25 -0.00224
84.3 -0.00207
84.35 -0.00186
84.4 -0.00339
84.45 -0.0005
84.5 0.00523
84.55 0.00705
84.6 0.00608
84.65 0.00124
84.7 -0.00401
84.75 -0.00438
84.8 -0.0008
84.85 -0.00028
84.9 0.00193
84.95 0.00495
85 0.0057
85.05 0.00393
85.1 0.00405
85.15 0.00179
85.2 0.00151
85.25 -0.00143
85.3 -0.00021
85.35 0.002
85.4 -0.00137
85.45 -0.00429
85.5 -0.00307
85.55 -0.00172
85.6 -0.00149
85.65 -0.00058
85.7 -0.00318
85.75 -0.00144
85.8 0.00117
85.85 0.00493
85.9 0.00778
85.95 0.00537
86 0.00672
86.05 0.00883
86.1 0.00553
86.15 0.00492
86.2 0.00765
86.25 0.00821
86.3 0.00747
86.35 0.0069
86.4 0.0036
86.45 0.0017
86.5 -0.00011
86.55 -0.00519
86.6 -0.00807
86.65 -0.00731
86.7 -0.00493
86.75 -0.0065
86.8 -0.0105
86.85 -0.0153
86.9 -0.01681
86.95 -0.01671
87 -0.01674
87.05 -0.01688
87.1 -0.01821
87.15 -0.01438
87.2 -0.01034
87.25 -0.00377
87.3 -0.00122
87.35 -0.00031
87.4 0.00421
87.45 0.00287
87.5 0.00492
87.55 0.00813
87.6 0.00703
87.65 0.0082
87.7 0.00918
87.75 0.01052
87.8 0.00886
87.85 0.00607
87.9 0.00252
87.95 -0.00216
88 -0.00182
88.05 -0.0034
88.1 -0.00093
88.15 -0.00002
88.2 0.00449
88.25 0.01061
88.3 0.01675
88.35 0.01855
88.4 0.01966
88.45 0.01761
88.5 0.01414
88.55 0.00689
88.6 -0.0005
88.65 -0.0017
88.7 -0.00473
88.75 -0.00309
88.8 -0.00279
88.85 0.00011
88.9 0.0024
88.95 0.00576
89 0.00942
89.05 0.00886
89.1 0.01039
89.15 0.0077
89.2 0.00915
89.25 0.01006
89.3 0.01264
89.35 0.00977
89.4 0.0077
89.45 0.00831
89.5 0.00897
89.55 0.01177
89.6 0.00949
89.65 0.01085
89.7 0.01251
89.75 0.014
89.8 0.01367
89.85 0.01177
89.9 0.00755
89.95 0.00116
90 0.00056
90.05 -0.00309
90.1 -0.009
90.15 -0.01661
90.2 -0.0232
90.25 -0.02228
90.3 -0.02452
90.35 -0.02861
90.4 -0.02887
90.45 -0.02739
90.5 -0.02097
90.55 -0.01746
90.6 -0.01644
90.65 -0.01292
90.7 -0.01184
90.75 -0.00637
90.8 -0.00522
90.85 -0.00396
90.9 -0.00682
90.95 -0.00998
91 -0.01553
91.05 -0.02197
91.1 -0.02343
91.15 -0.02377
91.2 -0.02277
91.25 -0.02057
91.3 -0.01662
91.35 -0.01652
91.4 -0.01353
91.45 -0.00969
91.5 -0.01024
91.55 -0.01011
91.6 -0.01319
91.65 -0.01549
91.7 -0.01735
91.75 -0.01395
91.8 -0.00973
91.85 -0.00231
91.9 0.00058
91.95 0.00061
92 -0.00146
92.05 -0.0064
92.1 -0.00949
92.15 -0.007
92.2 -0.00111
92.25 0.00557
92.3 0.00962
92.35 0.00852
92.4 0.00737
92.45 0.00518
92.5 0.00478
92.55 0.00389
92.6 0.00374
92.65 -0.00095
92.7 -0.00667
92.75 -0.01093
92.8 -0.01323
92.85 -0.01642
92.9 -0.0152
92.95 -0.0168
93 -0.01358
93.05 -0.0085
93.1 -0.00774
93.15 -0.0045
93.2 -0.00327
93.25 -0.0019
93.3 0.00121
93.35 0.00496
93.4 0.00439
93.45 0.00429
93.5 0.00155
93.55 -0.00249
93.6 -0.00636
93.65 -0.00493
93.7 -0.00502
93.75 -0.00663
93.8 -0.00442
93.85 0.00008
93.9 -0.00059
93.95 0.00067
94 0.0011
94.05 0.00279
94.1 0.00549
94.15 0.00553
94.2 0.00808
94.25 0.00631
94.3 0.00361
94.35 0.00543
94.4 0.00201
94.45 -0.00305
94.5 -0.00735
94.55 -0.01074
94.6 -0.0075
94.65 -0.00394
94.7 0.00036
94.75 0.00538
94.8 0.00969
94.85 0.00764
94.9 0.00345
94.95 -0.00192
95 -0.00604
95.05 -0.0075
95.1 -0.00687
95.15 -0.00307
95.2 0.00108
95.25 -0.0002
95.3 0.00027
95.35 0.00217
95.4 0.00314
95.45 -0.00009
95.5 -0.00255
95.55 -0.00505
95.6 -0.00976
95.65 -0.01051
95.7 -0.00866
95.75 -0.00638
95.8 -0.00062
95.85 0.002
95.9 0.00713
95.95 0.00578
96 0.00316
96.05 -0.00286
96.1 -0.00756
96.15 -0.01142
96.2 -0.00998
96.25 -0.00749
96.3 -0.00468
96.35 -0.00275
96.4 -0.00203
96.45 0.00001
96.5 -0.00171
96.55 -0.00149
96.6 0.00255
96.65 0.00566
96.7 0.01019
96.75 0.01402
96.8 0.01618
96.85 0.02013
96.9 0.0207
96.95 0.02104
97 0.02196
97.05 0.01843
97.1 0.01153
97.15 0.00799
97.2 0.00935
97.25 0.00589
97.3 0.00159
97.35 -0.00386
97.4 -0.00349
97.45 0.00064
97.5 -0.00064
97.55 -0.00202
97.6 -0.00161
97.65 -0.00183
97.7 0.00227
97.75 0.00266
97.8 0.00215
97.85 0.00598
97.9 0.01077
97.95 0.00925
98 0.00357
98.05 0.00161
98.1 0.00276
98.15 -0.00067
98.2 -0.00045
98.25 0.00224
98.3 0.00447
98.35 0.00789
98.4 0.00517
98.45 0.00257
98.5 -0.00041
98.55 -0.00082
98.6 -0.00253
98.65 -0.00691
98.7 -0.01272
98.75 -0.01424
98.8 -0.01533
98.85 -0.0111
98.9 -0.01114
98.95 -0.01316
99 -0.01506
99.05 -0.01764
99.1 -0.01462
99.15 -0.00813
99.2 -0.00619
99.25 -0.00441
99.3 -0.00038
99.35 0.00389
99.4 0.00222
99.45 -0.0029
99.5 -0.00239
99.55 0.00028
99.6 -0.00158
99.65 -0.00054
99.7 0.00015
99.75 -0.00138
99.8 -0.00263
99.85 -0.00618
99.9 -0.00737
99.95 -0.00308
