0 0
0.05 0.00329
0.1 0.0074
0.15 0.01827
0.2 0.02511
0.25 0.03094
0.3 0.03945
0.35 0.04595
0.4 0.05262
0.45 0.05547
0.5 0.05664
0.55 0.0557
0.6 0.05513
0.65 0.05228
0.7 0.05166
0.75 0.05154
0.8 0.05558
0.85 0.05486
0.9 0.05252
0.95 0.05435
1 0.05227
1.05 0.04687
1.1 0.0474
1.15 0.04612
1.2 0.04023
1.25 0.04102
1.3 0.0453
1.35 0.04729
1.4 0.04813
1.45 0.04489
1.5 0.03912
1.55 0.03973
1.6 0.04114
1.65 0.04471
1.7 0.04224
1.75 0.0437
1.8 0.04394
1.85 0.03987
1.9 0.03247
1.95 0.02967
2 0.03151
2.05 0.03499
2.1 0.03861
2.15 0.03689
2.2 0.03356
2.25 0.03116
2.3 0.02981
2.35 0.03187
2.4 0.02923
2.45 0.02311
2.5 0.01962
2.55 0.01907
2.6 0.01903
2.65 0.01794
2.7 0.01993
2.75 0.01975
2.8 0.01775
2.85 0.01427
2.9 0.00835
2.95 0.00692
3 0.00305
3.05 -0.00119
3.1 0.00125
3.15 0.00015
3.2 0.00084
3.25 0.00072
3.3 0.00272
3.35 0.00184
3.4 0.00281
3.45 0.00967
3.5 0.01641
3.55 0.02009
3.6 0.02063
3.65 0.01646
3.7 0.01349
3.75 0.00803
3.8 0.00462
3.85 0.00784
3.9 0.01165
3.95 0.01151
4 0.00876
4.05 0.0068
4.1 0.00664
4.15 0.00346
4.2 0.00062
4.25 0.00303
4.3 0.00228
4.35 0.00378
4.4 0.00403
4.45 0.00164
4.5 -0.00631
4.55 -0.01756
4.6 -0.02715
4.65 -0.04141
4.7 -0.05745
4.75 -0.07363
4.8 -0.09634
4.85 -0.11975
4.9 -0.15145
4.95 -0.18349
5 -0.22161
5.05 -0.26429
5.1 -0.31827
5.15 -0.37433
5.2 -0.43502
5.25 -0.50463
5.3 -0.57655
5.35 -0.65962
5.4 -0.74897
5.45 -0.84403
5.5 -0.9442
5.55 -1.04275
5.6 -1.13748
5.65 -1.23738
5.7 -1.33847
5.75 -1.43865
5.8 -1.53678
5.85 -1.63274
5.9 -1.7224
5.95 -1.80968
6 -1.89547
6.05 -1.97847
6.1 -2.0593
6.15 -2.13364
6.2 -2.20208
6.25 -2.25972
6.3 -2.31557
6.35 -2.36587
6.4 -2.40537
6.45 -2.44266
6.5 -2.47174
6.55 -2.49562
6.6 -2.51342
6.65 -2.51682
6.7 -2.50692
6.75 -2.48177
6.8 -2.44596
6.85 -2.39476
6.9 -2.32526
6.95 -2.24066
7 -2.13764
7.05 -2.01797
7.1 -1.88375
7.15 -1.73266
7.2 -1.57198
7.25 -1.39795
7.3 -1.21505
7.35 -1.02314
7.4 -0.82938
7.45 -0.62785
7.5 -0.42137
7.55 -0.21227
7.6 -0.00386
7.65 0.19876
7.7 0.39753
7.75 0.58557
7.8 0.76399
7.85 0.9387
7.9 1.0984
7.95 1.24588
8 1.38516
8.05 1.51244
8.1 1.62456
8.15 1.72604
8.2 1.81692
8.25 1.89543
8.3 1.96678
8.35 2.03342
8.4 2.08729
8.45 2.13287
8.5 2.16619
8.55 2.19508
8.6 2.21578
8.65 2.22792
8.7 2.23328
8.75 2.24029
8.8 2.23921
8.85 2.23611
8.9 2.23386
8.95 2.23083
9 2.22134
9.05 2.20876
9.1 2.19517
9.15 2.17812
9.2 2.15665
9.25 2.13626
9.3 2.1104
9.35 2.08734
9.4 2.06676
9.45 2.04716
9.5 2.02158
9.55 1.98971
9.6 1.95428
9.65 1.91739
9.7 1.87887
9.75 1.84818
9.8 1.81831
9.85 1.79119
9.9 1.76239
9.95 1.7266
10 1.69119
10.05 1.65428
10.1 1.61872
10.15 1.57869
10.2 1.53956
10.25 1.50188
10.3 1.46011
10.35 1.4164
10.4 1.37399
10.45 1.3305
10.5 1.28086
10.55 1.234
10.6 1.18822
10.65 1.14004
10.7 1.09046
10.75 1.04445
10.8 0.9999
10.85 0.95795
10.9 0.9172
10.95 0.87151
11 0.82247
11.05 0.77396
11.1 0.72281
11.15 0.67646
11.2 0.62633
11.25 0.57961
11.3 0.53749
11.35 0.49744
11.4 0.45671
11.45 0.42054
11.5 0.38052
11.55 0.34444
11.6 0.30388
11.65 0.26352
11.7 0.22827
11.75 0.19039
11.8 0.15612
11.85 0.12177
11.9 0.09096
11.95 0.06456
12 0.0386
12.05 0.01572
12.1 -0.00794
12.15 -0.03581
12.2 -0.06141
12.25 -0.08603
12.3 -0.10653
12.35 -0.1249
12.4 -0.1403
12.45 -0.16087
12.5 -0.182
12.55 -0.20601
12.6 -0.22328
12.65 -0.24013
12.7 -0.25426
12.75 -0.26585
12.8 -0.28106
12.85 -0.2981
12.9 -0.31571
12.95 -0.33125
13 -0.34211
13.05 -0.34962
13.1 -0.35971
13.15 -0.3646
13.2 -0.36993
13.25 -0.36993
13.3 -0.37052
13.35 -0.37239
13.4 -0.3757
13.45 -0.37583
13.5 -0.3783
13.55 -0.37856
13.6 -0.37545
13.65 -0.37299
13.7 -0.37328
13.75 -0.37187
13.8 -0.3718
13.85 -0.37407
13.9 -0.37096
13.95 -0.3687
14 -0.36712
14.05 -0.36887
14.1 -0.36515
14.15 -0.36444
14.2 -0.35984
14.25 -0.35883
14.3 -0.35266
14.35 -0.35096
14.4 -0.34669
14.45 -0.34303
14.5 -0.34134
14.55 -0.33563
14.6 -0.33088
14.65 -0.3271
14.7 -0.3254
14.75 -0.32076
14.8 -0.32012
14.85 -0.31845
14.9 -0.31315
14.95 -0.30786
15 -0.3059
15.05 -0.30312
15.1 -0.29679
15.15 -0.29258
15.2 -0.28861
15.25 -0.28033
15.3 -0.27698
15.35 -0.27267
15.4 -0.27322
15.45 -0.27652
15.5 -0.27458
15.55 -0.2707
15.6 -0.26763
15.65 -0.26405
15.7 -0.2577
15.75 -0.24845
15.8 -0.24145
15.85 -0.23245
15.9 -0.22154
15.95 -0.21027
16 -0.19991
16.05 -0.19112
16.1 -0.18767
16.15 -0.18868
16.2 -0.19037
16.25 -0.1954
16.3 -0.1995
16.35 -0.1986
16.4 -0.20173
16.45 -0.20547
16.5 -0.20283
16.55 -0.19767
16.6 -0.19118
16.65 -0.18231
16.7 -0.17722
16.75 -0.1729
16.8 -0.16617
16.85 -0.16349
16.9 -0.15805
16.95 -0.15879
17 -0.16069
17.05 -0.16406
17.1 -0.16791
17.15 -0.17244
17.2 -0.17509
17.25 -0.17381
17.3 -0.1716
17.35 -0.16399
17.4 -0.16198
17.45 -0.15937
17.5 -0.15836
17.55 -0.15679
17.6 -0.1548
17.65 -0.1478
17.7 -0.14555
17.75 -0.14284
17.8 -0.13837
17.85 -0.13656
17.9 -0.13564
17.95 -0.13301
18 -0.13094
18.05 -0.12679
18.1 -0.12411
18.15 -0.11967
18.2 -0.11229
18.25 -0.10546
18.3 -0.09703
18.35 -0.09432
18.4 -0.09521
18.45 -0.09704
18.5 -0.09721
18.55 -0.0948
18.6 -0.09801
18.65 -0.1017
18.7 -0.10797
18.75 -0.11519
18.8 -0.1185
18.85 -0.1227
18.9 -0.12243
18.95 -0.11837
19 -0.11471
19.05 -0.10915
19.1 -0.10442
19.15 -0.09772
19.2 -0.08941
19.25 -0.08686
19.3 -0.08183
19.35 -0.0777
19.4 -0.07697
19.45 -0.07631
19.5 -0.07184
19.55 -0.07303
19.6 -0.07322
19.65 -0.06998
19.7 -0.06613
19.75 -0.05959
19.8 -0.05963
19.85 -0.05996
19.9 -0.06121
19.95 -0.05752
20 -0.05588
20.05 -0.05685
20.1 -0.0565
20.15 -0.06089
20.2 -0.06342
20.25 -0.06717
20.3 -0.067
20.35 -0.06403
20.4 -0.06384
20.45 -0.06515
20.5 -0.06132
20.55 -0.05781
20.6 -0.05159
20.65 -0.04923
20.7 -0.04571
20.75 -0.04359
20.8 -0.03902
20.85 -0.03833
20.9 -0.03931
20.95 -0.04413
21 -0.05033
21.05 -0.05722
21.1 -0.06171
21.15 -0.05881
21.2 -0.05906
21.25 -0.05391
21.3 -0.05232
21.35 -0.0473
21.4 -0.04312
21.45 -0.04034
21.5 -0.0341
21.55 -0.03449
21.6 -0.0304
21.65 -0.0245
21.7 -0.02009
21.75 -0.02011
21.8 -0.01826
21.85 -0.01787
21.9 -0.02157
21.95 -0.02741
22 -0.03541
22.05 -0.04007
22.1 -0.03808
22.15 -0.03401
22.2 -0.0348
22.25 -0.03479
22.3 -0.03774
22.35 -0.04346
22.4 -0.04457
22.45 -0.04136
22.5 -0.04073
22.55 -0.04322
22.6 -0.0429
22.65 -0.04225
22.7 -0.04456
22.75 -0.04336
22.8 -0.03918
22.85 -0.03428
22.9 -0.03378
22.95 -0.02998
23 -0.02912
23.05 -0.02366
23.1 -0.02028
23.15 -0.02139
23.2 -0.02165
23.25 -0.02487
23.3 -0.02773
23.35 -0.033
23.4 -0.03777
23.45 -0.03807
23.5 -0.03872
23.55 -0.0336
23.6 -0.03239
23.65 -0.03021
23.7 -0.02455
23.75 -0.01949
23.8 -0.02034
23.85 -0.02371
23.9 -0.02743
23.95 -0.02545
24 -0.01969
24.05 -0.01162
24.1 -0.00548
24.15 0.00176
24.2 0.00392
24.25 0.00097
24.3 -0.00432
24.35 -0.00811
24.4 -0.01249
24.45 -0.01661
24.5 -0.02261
24.55 -0.0298
24.6 -0.03415
24.65 -0.03317
24.7 -0.03218
24.75 -0.03404
24.8 -0.03358
24.85 -0.02735
24.9 -0.01911
24.95 -0.01538
25 -0.01675
25.05 -0.01535
25.1 -0.01306
25.15 -0.01265
25.2 -0.01051
25.25 -0.01008
25.3 -0.00722
25.35 -0.00199
25.4 0.00436
25.45 0.01177
25.5 0.01672
25.55 0.0188
25.6 0.01901
25.65 0.02108
25.7 0.02078
25.75 0.01687
25.8 0.00752
25.85 -0.00356
25.9 -0.0115
25.95 -0.02034
26 -0.02289
26.05 -0.02697
26.1 -0.02867
26.15 -0.02829
26.2 -0.02796
26.25 -0.03049
26.3 -0.03069
26.35 -0.02832
26.4 -0.02429
26.45 -0.01673
26.5 -0.0112
26.55 -0.00357
26.6 -0.00262
26.65 -0.00074
26.7 0.0044
26.75 0.0101
26.8 0.0154
26.85 0.01277
26.9 0.01317
26.95 0.01176
27 0.00762
27.05 0.00427
27.1 0.00496
27.15 0.00407
27.2 0.00286
27.25 -0.00025
27.3 -0.00557
27.35 -0.01367
27.4 -0.02246
27.45 -0.02542
27.5 -0.02344
27.55 -0.02202
27.6 -0.02011
27.65 -0.02096
27.7 -0.02136
27.75 -0.01902
27.8 -0.01382
27.85 -0.01009
27.9 -0.00836
27.95 -0.00323
28 -0.00209
28.05 0.00047
28.1 0.00141
28.15 -0.00056
28.2 -0.00562
28.25 -0.01268
28.3 -0.01871
28.35 -0.01689
28.4 -0.01453
28.45 -0.01
28.5 -0.00885
28.55 -0.01171
28.6 -0.01149
28.65 -0.012
28.7 -0.00872
28.75 -0.01058
28.8 -0.01035
28.85 -0.00833
28.9 -0.00794
28.95 -0.00772
29 -0.00711
29.05 -0.00388
29.1 -0.0014
29.15 0.00049
29.2 0.0014
29.25 -0.0004
29.3 0.00057
29.35 -0.00225
29.4 -0.00571
29.45 -0.00716
29.5 -0.01222
29.55 -0.0181
29.6 -0.01693
29.65 -0.0137
29.7 -0.00806
29.75 -0.00269
29.8 0.00019
29.85 -0.00294
29.9 -0.00359
29.95 -0.00607
30 -0.00794
30.05 -0.00726
30.1 -0.00263
30.15 0.00363
30.2 0.00551
30.25 0.00309
30.3 -0.0031
30.35 -0.0076
30.4 -0.01471
30.45 -0.01772
30.5 -0.01551
30.55 -0.01261
30.6 -0.01422
30.65 -0.01396
30.7 -0.01344
30.75 -0.01565
30.8 -0.01231
30.85 -0.01239
30.9 -0.00948
30.95 -0.00877
31 -0.00527
31.05 0.00016
31.1 -0.00004
31.15 0.0031
31.2 0.00118
31.25 -0.00479
31.3 -0.01246
31.35 -0.01974
31.4 -0.02716
31.45 -0.02929
31.5 -0.03023
31.55 -0.02844
31.6 -0.02365
31.65 -0.02126
31.7 -0.01732
31.75 -0.01572
31.8 -0.01786
31.85 -0.02161
31.9 -0.02166
31.95 -0.0241
32 -0.02134
32.05 -0.01672
32.1 -0.00961
32.15 -0.00634
32.2 0.0008
32.25 0.00555
32.3 0.01144
32.35 0.01095
32.4 0.00786
32.45 0.00498
32.5 0.00202
32.55 -0.00164
32.6 0.00052
32.65 0.00282
32.7 0.00857
32.75 0.01487
32.8 0.01798
32.85 0.02179
32.9 0.02615
32.95 0.02596
33 0.02048
33.05 0.01888
33.1 0.01628
33.15 0.0104
33.2 0.00479
33.25 0.00048
33.3 -0.00272
33.35 -0.00729
33.4 -0.0094
33.45 -0.00426
33.5 0.0037
33.55 0.01075
33.6 0.01548
33.65 0.01525
33.7 0.01873
33.75 0.0236
33.8 0.02508
33.85 0.02251
33.9 0.02038
33.95 0.0148
34 0.00773
34.05 0.00439
34.1 -0.0013
34.15 -0.00591
34.2 -0.00962
34.25 -0.01186
34.3 -0.01403
34.35 -0.01034
34.4 -0.00974
34.45 -0.00645
34.5 -0.00097
34.55 0.005
34.6 0.00917
34.65 0.01435
34.7 0.01717
34.75 0.01434
34.8 0.01589
34.85 0.01622
34.9 0.01353
34.95 0.0079
35 0.00288
35.05 0.00404
35.1 0.00961
35.15 0.01262
35.2 0.01585
35.25 0.01885
35.3 0.01912
35.35 0.0169
35.4 0.0109
35.45 0.00611
35.5 0.0007
35.55 -0.00359
35.6 -0.0063
35.65 -0.00997
35.7 -0.00671
35.75 0.00079
35.8 0.0105
35.85 0.02016
35.9 0.02055
35.95 0.02169
36 0.02094
36.05 0.01949
36.1 0.02077
36.15 0.01682
36.2 0.01555
36.25 0.01337
36.3 0.01148
36.35 0.01044
36.4 0.00673
36.45 0.0084
36.5 0.00436
36.55 0.00076
36.6 0.00072
36.65 0.00122
36.7 0.0044
36.75 0.00583
36.8 0.00451
36.85 0.00432
36.9 0.00023
36.95 0.0003
37 -0.00182
37.05 -0.00408
37.1 -0.00945
37.15 -0.01053
37.2 -0.00999
37.25 -0.00762
37.3 -0.00581
37.35 -0.00454
37.4 -0.00299
37.45 0.00067
37.5 0.00525
37.55 0.0066
37.6 0.00416
37.65 -0.00225
37.7 -0.00905
37.75 -0.00975
37.8 -0.01088
37.85 -0.0069
37.9 -0.00608
37.95 -0.00218
38 0.00012
38.05 0.00536
38.1 0.00681
38.15 0.00704
38.2 0.00493
38.25 -0.00158
38.3 -0.00646
38.35 -0.0068
38.4 -0.00788
38.45 -0.00364
38.5 0.00082
38.55 0.00601
38.6 0.01035
38.65 0.00917
38.7 0.01113
38.75 0.01104
38.8 0.01367
38.85 0.01116
38.9 0.00833
38.95 0.00515
39 0.00081
39.05 -0.00244
39.1 -0.005
39.15 -0.0029
39.2 -0.00524
39.25 -0.00998
39.3 -0.01472
39.35 -0.01225
39.4 -0.01357
39.45 -0.0113
39.5 -0.00563
39.55 -0.00565
39.6 -0.00378
39.65 -0.00383
39.7 -0.00249
39.75 0.00018
39.8 0.00217
39.85 0.00315
39.9 0.00366
39.95 0.00783
40 0.00513
40.05 0.00461
40.1 0.00005
40.15 -0.00626
40.2 -0.01324
40.25 -0.01459
40.3 -0.01146
40.35 -0.00862
40.4 -0.00299
40.45 0.00178
40.5 0.00545
40.55 0.00352
40.6 -0.00128
40.65 -0.00636
40.7 -0.00609
40.75 -0.00356
40.8 -0.00468
40.85 -0.00383
40.9 -0.00372
40.95 -0.00288
41 -0.00099
41.05 -0.00438
41.1 -0.00938
41.15 -0.01123
41.2 -0.0086
41.25 -0.00345
41.3 0.00299
41.35 0.01044
41.4 0.01786
41.45 0.02318
41.5 0.02481
41.55 0.02212
41.6 0.01817
41.65 0.01433
41.7 0.01118
41.75 0.0044
41.8 0.00193
41.85 -0.00152
41.9 -0.0019
41.95 -0.00593
42 -0.01035
42.05 -0.01335
42.1 -0.01196
42.15 -0.00968
42.2 -0.00888
42.25 -0.00412
42.3 0.00314
42.35 0.00609
42.4 0.00326
42.45 0.00185
42.5 -0.00008
42.55 0.0018
42.6 -0.00073
42.65 -0.00257
42.7 -0.00035
42.75 -0.00241
42.8 0.00044
42.85 -0.00146
42.9 0.00014
42.95 0.0021
43 0.00314
43.05 0.00086
43.1 -0.00019
43.15 0.00181
43.2 0.00653
43.25 0.00629
43.3 0.00482
43.35 0.00335
43.4 0.00026
43.45 -0.00176
43.5 -0.00522
43.55 -0.00564
43.6 -0.00637
43.65 -0.00884
43.7 -0.01333
43.75 -0.01519
43.8 -0.01174
43.85 -0.00793
43.9 -0.0016
43.95 -0.00148
44 -0.00121
44.05 0.00324
44.1 0.00882
44.15 0.0106
44.2 0.00949
44.25 0.01167
44.3 0.00906
44.35 0.00576
44.4 0.0033
44.45 0.00105
44.5 0.00239
44.55 -0.00012
44.6 -0.00651
44.65 -0.01428
44.7 -0.0143
44.75 -0.01432
44.8 -0.01188
44.85 -0.00706
44.9 -0.00324
44.95 -0.00169
45 0.00269
45.05 0.00891
45.1 0.00925
45.15 0.0072
45.2 0.00897
45.25 0.01018
45.3 0.00701
45.35 -0.00044
45.4 -0.00349
45.45 -0.00562
45.5 -0.00441
45.55 -0.00052
45.6 0.00009
45.65 0.00176
45.7 -0.00092
45.75 -0.00547
45.8 -0.00443
45.85 -0.00217
45.9 0.00107
45.95 -0.00094
46 -0.00569
46.05 -0.00721
46.1 -0.01056
46.15 -0.01488
46.2 -0.01715
46.25 -0.01476
46.3 -0.01086
46.35 -0.00453
46.4 0.00136
46.45 0.00936
46.5 0.01559
46.55 0.02076
46.6 0.02283
46.65 0.0227
46.7 0.02191
46.75 0.01494
46.8 0.01346
46.85 0.01282
46.9 0.00721
46.95 0.00384
47 0.00152
47.05 -0.00442
47.1 -0.01252
47.15 -0.01631
47.2 -0.01953
47.25 -0.01829
47.3 -0.01384
47.35 -0.014
47.4 -0.01284
47.45 -0.01062
47.5 -0.01064
47.55 -0.01015
47.6 -0.01111
47.65 -0.01118
47.7 -0.01256
47.75 -0.01476
47.8 -0.01354
47.85 -0.01111
47.9 -0.00937
47.95 -0.00777
48 -0.00828
48.05 -0.0083
48.1 -0.0062
48.15 -0.00211
48.2 0.00407
48.25 0.00709
48.3 0.01167
48.35 0.01288
48.4 0.01703
48.45 0.01828
48.5 0.01467
48.55 0.01377
48.6 0.01482
48.65 0.01055
48.7 0.01094
48.75 0.013
48.8 0.0149
48.85 0.01663
48.9 0.01676
48.95 0.014
49 0.00748
49.05 -0.00102
49.1 -0.00648
49.15 -0.01089
49.2 -0.01164
49.25 -0.0085
49.3 -0.00443
49.35 -0.0061
49.4 -0.00329
49.45 0.00076
49.5 0.00557
49.55 0.00719
49.6 0.0031
49.65 0.0005
49.7 0.00156
49.75 0.00311
49.8 0.00624
49.85 0.00398
49.9 -0.0013
49.95 -0.00317
50 -0.00681
50.05 -0.00954
50.1 -0.01508
50.15 -0.01825
50.2 -0.01694
50.25 -0.01346
50.3 -0.01196
50.35 -0.01142
50.4 -0.00758
50.45 -0.00348
50.5 -0.00053
50.55 0.00476
50.6 0.00842
50.65 0.0127
50.7 0.01217
50.75 0.0071
50.8 0.00224
50.85 -0.00224
50.9 -0.0023
50.95 -0.00341
51 -0.00436
51.05 -0.00595
51.1 -0.00828
51.15 -0.00544
51.2 -0.00721
51.25 -0.00547
51.3 -0.00085
51.35 0.00392
51.4 0.0073
51.45 0.01208
51.5 0.01051
51.55 0.01242
51.6 0.01665
51.65 0.01894
51.7 0.01644
51.75 0.01538
51.8 0.01533
51.85 0.01169
51.9 0.00846
51.95 0.00357
52 0.00097
52.05 0.00037
52.1 -0.00009
52.15 -0.00545
52.2 -0.01329
52.25 -0.0158
52.3 -0.01615
52.35 -0.01121
52.4 -0.00368
52.45 -0.00208
52.5 -0.00121
52.55 0.00297
52.6 0.00906
52.65 0.00956
52.7 0.00883
52.75 0.01139
52.8 0.01136
52.85 0.00831
52.9 0.00069
52.95 -0.00122
53 -0.00142
53.05 0.00097
53.1 -0.00167
53.15 -0.00493
53.2 -0.00601
53.25 -0.00921
53.3 -0.01377
53.35 -0.01709
53.4 -0.01989
53.45 -0.01783
53.5 -0.01246
53.55 -0.01032
53.6 -0.01132
53.65 -0.01112
53.7 -0.00861
53.75 -0.01
53.8 -0.01256
53.85 -0.01504
53.9 -0.01721
53.95 -0.01723
54 -0.01539
54.05 -0.01013
54.1 -0.01014
54.15 -0.00798
54.2 -0.00769
54.25 -0.01099
54.3 -0.01287
54.35 -0.01596
54.4 -0.01289
54.45 -0.01441
54.5 -0.01874
54.55 -0.01811
54.6 -0.01638
54.65 -0.01443
54.7 -0.00959
54.75 -0.00733
54.8 -0.00684
54.85 -0.00873
54.9 -0.01233
54.95 -0.0111
55 -0.00739
55.05 -0.00134
55.1 0.00417
55.15 0.00292
55.2 0.00369
55.25 0.0073
55.3 0.00992
55.35 0.00985
55.4 0.01058
55.45 0.0137
55.5 0.01183
55.55 0.01196
55.6 0.01555
55.65 0.01727
55.7 0.01647
55.75 0.01067
55.8 0.00811
55.85 0.0087
55.9 0.01285
55.95 0.01064
56 0.01062
56.05 0.00789
56.1 0.00136
56.15 -0.00019
56.2 -0.00375
56.25 -0.00634
56.3 -0.01116
56.35 -0.01022
56.4 -0.00616
56.45 0.00121
56.5 0.00639
56.55 0.01103
56.6 0.01066
56.65 0.00636
56.7 0.00479
56.75 -0.00086
56.8 -0.00765
56.85 -0.01586
56.9 -0.02345
56.95 -0.02625
57 -0.03007
57.05 -0.02999
57.1 -0.02505
57.15 -0.01583
57.2 -0.00957
57.25 -0.0074
57.3 -0.00271
57.35 -0.001
57.4 -0.00386
57.45 -0.00484
57.5 -0.007
57.55 -0.00905
57.6 -0.01216
57.65 -0.01128
57.7 -0.01289
57.75 -0.01419
57.8 -0.01627
57.85 -0.0151
57.9 -0.01052
57.95 -0.00842
58 -0.00901
58.05 -0.01297
58.1 -0.00989
58.15 -0.00844
58.2 -0.00406
58.25 0.00295
58.3 0.00869
58.35 0.01479
58.4 0.01605
58.45 0.02034
58.5 0.01896
58.55 0.01203
58.6 0.01086
58.65 0.01344
58.7 0.01312
58.75 0.00749
58.8 0.0013
58.85 -0.00432
58.9 -0.01189
58.95 -0.01382
59 -0.01681
59.05 -0.01966
59.1 -0.02261
59.15 -0.02328
59.2 -0.01918
59.25 -0.01779
59.3 -0.01485
59.35 -0.00896
59.4 -0.00155
59.45 -0.00035
59.5 -0.00182
59.55 -0.00359
59.6 -0.00404
59.65 -0.00211
59.7 -0.0029
59.75 -0.00735
59.8 -0.01215
59.85 -0.00991
59.9 -0.00703
59.95 -0.00137
60 0.00377
60.05 0.00814
60.1 0.00767
60.15 0.00758
60.2 0.00295
60.25 -0.00075
60.3 -0.00303
60.35 -0.00649
60.4 -0.01038
60.45 -0.0085
60.5 -0.00191
60.55 0.00096
60.6 -0.00072
60.65 0.00314
60.7 0.00359
60.75 0.0034
60.8 0.00671
60.85 0.0064
60.9 0.00675
60.95 0.01094
61 0.01251
61.05 0.01664
61.1 0.02021
61.15 0.01838
61.2 0.01139
61.25 0.00555
61.3 0.00051
61.35 0.00125
61.4 0.00199
61.45 0.00627
61.5 0.00648
61.55 0.0033
61.6 0.0016
61.65 -0.00369
61.7 -0.00207
61.75 0.0017
61.8 -0.00039
61.85 0.00048
61.9 0.00136
61.95 0.00476
62 0.00338
62.05 0.00572
62.1 0.00695
62.15 0.00447
62.2 0.00379
62.25 0.00318
62.3 0.00699
62.35 0.00902
62.4 0.01412
62.45 0.02069
62.5 0.02584
62.55 0.02622
62.6 0.02198
62.65 0.02018
62.7 0.01338
62.75 0.01248
62.8 0.00693
62.85 0.00035
62.9 -0.00585
62.95 -0.00976
63 -0.01574
63.05 -0.02057
63.1 -0.02333
63.15 -0.02355
63.2 -0.02375
63.25 -0.02209
63.3 -0.01503
63.35 -0.00481
63.4 0.00162
63.45 0.00688
63.5 0.01381
63.55 0.01415
63.6 0.01446
63.65 0.01474
63.7 0.00952
63.75 0.00514
63.8 -0.00177
63.85 -0.00399
63.9 -0.00177
63.95 0.00327
64 0.00817
64.05 0.00769
64.1 0.0026
64.15 0.003
64.2 0.00184
64.25 0.00549
64.3 0.01103
64.35 0.01346
64.4 0.0109
64.45 0.00569
64.5 0.00493
64.55 0.00203
64.6 0.00176
64.65 0.00054
64.7 0.00319
64.75 0.00505
64.8 0.00551
64.85 0.00162
64.9 0.00051
64.95 -0.00008
65 -0.00451
65.05 -0.00678
65.1 -0.00587
65.15 -0.00712
65.2 -0.00649
65.25 -0.00237
65.3 -0.00191
65.35 0.00115
65.4 0.00282
65.45 0.00593
65.5 0.00603
65.55 0.00723
65.6 0.00538
65.65 0.00114
65.7 -0.00419
65.75 -0.01016
65.8 -0.01773
65.85 -0.01957
65.9 -0.02322
65.95 -0.02739
66 -0.03086
66.05 -0.0303
66.1 -0.03
66.15 -0.02889
66.2 -0.02302
66.25 -0.01735
66.3 -0.00899
66.35 -0.00659
66.4 -0.00541
66.45 -0.00507
66.5 -0.00682
66.55 -0.01063
66.6 -0.01365
66.65 -0.0167
66.7 -0.01714
66.75 -0.01123
66.8 -0.0091
66.85 -0.00974
66.9 -0.01329
66.95 -0.01739
67 -0.01668
67.05 -0.01787
67.1 -0.01548
67.15 -0.00894
67.2 -0.00556
67.25 -0.00034
67.3 0.00736
67.35 0.00804
67.4 0.00781
67.45 0.00596
67.5 0.00342
67.55 -0.00265
67.6 -0.00358
67.65 -0.00358
67.7 -0.00208
67.75 -0.00452
67.8 -0.00182
67.85 0.00503
67.9 0.00984
67.95 0.01521
68 0.01418
68.05 0.01176
68.1 0.00935
68.15 0.00736
68.2 0.00999
68.25 0.00769
68.3 0.00995
68.35 0.00764
68.4 0.00976
68.45 0.01514
68.5 0.01981
68.55 0.02392
68.6 0.02875
68.65 0.02625
68.7 0.0239
68.75 0.01763
68.8 0.01279
68.85 0.0107
68.9 0.00825
68.95 0.00789
69 0.007
69.05 0.00722
69.1 0.00655
69.15 0.00721
69.2 0.00539
69.25 0.00002
69.3 0.00015
69.35 -0.00129
69.4 0.00247
69.45 0.00878
69.5 0.01181
69.55 0.0117
69.6 0.00888
69.65 0.00778
69.7 0.0094
69.75 0.00829
69.8 0.00369
69.85 0.00125
69.9 -0.00225
69.95 -0.00394
70 -0.00873
70.05 -0.01108
70.1 -0.01009
70.15 -0.00894
70.2 -0.00376
70.25 0.00069
70.3 0.00403
70.35 0.00838
70.4 0.00977
70.45 0.0136
70.5 0.01284
70.55 0.00777
70.6 -0.00066
70.65 -0.00771
70.7 -0.0148
70.75 -0.01803
70.8 -0.01414
70.85 -0.01
70.9 -0.00262
70.95 -0.00242
71 -0.00613
71.05 -0.01101
71.1 -0.01589
71.15 -0.0174
71.2 -0.01299
71.25 -0.01323
71.3 -0.01589
71.35 -0.01552
71.4 -0.01145
71.45 -0.00726
71.5 -0.00638
71.55 -0.00799
71.6 -0.00969
71.65 -0.00575
71.7 -0.00012
71.75 0.00816
71.8 0.01272
71.85 0.01674
71.9 0.01772
71.95 0.01847
72 0.01514
72.05 0.01092
72.1 0.00641
72.15 -0.00051
72.2 -0.00141
72.25 -0.00216
72.3 -0.00082
72.35 0.00312
72.4 0.00778
72.45 0.00791
72.5 0.01
72.55 0.00717
72.6 0.00542
72.65 0.00715
72.7 0.00954
72.75 0.00614
72.8 0.00138
72.85 -0.00609
72.9 -0.0085
72.95 -0.0093
73 -0.00755
73.05 -0.0067
73.1 -0.00308
73.15 0.00399
73.2 0.01016
73.25 0.00962
73.3 0.00937
73.35 0.0115
73.4 0.009
73.45 0.00531
73.5 -0.00112
73.55 -0.00365
73.6 -0.00068
73.65 0.0003
73.7 -0.0022
73.75 -0.00723
73.8 -0.00561
73.85 -0.00854
73.9 -0.0098
73.95 -0.01415
74 -0.01895
74.05 -0.01657
74.1 -0.01506
74.15 -0.01356
74.2 -0.01175
74.25 -0.01096
74.3 -0.00637
74.35 -0.002
74.4 0.0009
74.45 -0.00074
74.5 -0.00627
74.55 -0.00642
74.6 -0.0047
74.65 -0.0069
74.7 -0.00494
74.75 -0.00328
74.8 -0.0002
74.85 -0.00074
74.9 0.00002
74.95 -0.00211
75 -0.00097
75.05 -0.00097
75.1 -0.00422
75.15 -0.00513
75.2 -0.00799
75.25 -0.00994
75.3 -0.01083
75.35 -0.00912
75.4 -0.00562
75.45 -0.00214
75.5 -0.00204
75.55 -0.00522
75.6 -0.00266
75.65 0.00326
75.7 0.00404
75.75 0.00576
75.8 0.0054
75.85 0.00251
75.9 -0.00323
75.95 -0.00924
76 -0.0079
76.05 -0.00535
76.1 -0.00731
76.15 -0.01061
76.2 -0.0138
76.25 -0.01433
76.3 -0.01359
76.35 -0.01634
76.4 -0.01635
76.45 -0.01178
76.5 -0.00754
76.55 -0.00622
76.6 -0.00207
76.65 0.00065
76.7 0.0015
76.75 0.00234
76.8 0.00159
76.85 0.00081
76.9 0.00212
76.95 0.0051
77 0.00574
77.05 0.00337
77.1 0.00522
77.15 0.00431
77.2 -0.00021
77.25 -0.00671
77.3 -0.00843
77.35 -0.00694
77.4 -0.00955
77.45 -0.00852
77.5 -0.00593
77.55 -0.00394
77.6 -0.00449
77.65 -0.00465
77.7 -0.00454
77.75 -0.00132
77.8 -0.00109
77.85 -0.004
77.9 -0.00853
77.95 -0.00644
78 -0.00868
78.05 -0.01237
78.1 -0.01672
78.15 -0.01732
78.2 -0.01143
78.25 -0.00342
78.3 0.00328
78.35 0.00844
78.4 0.0082
78.45 0.01059
78.5 0.0128
78.55 0.01634
78.6 0.01711
78.65 0.021
78.7 0.01842
78.75 0.01092
78.8 0.00267
78.85 -0.003
78.9 -0.00828
78.95 -0.011
79 -0.00796
79.05 -0.00176
79.1 0.0019
79.15 0.00621
79.2 0.00529
79.25 0.00579
79.3 0.00607
79.35 0.00419
79.4 0.00627
79.45 0.01036
79.5 0.01119
79.55 0.00886
79.6 0.00585
79.65 0.0048
79.7 0.00192
79.75 0.00274
79.8 0.00203
79.85 0.00253
79.9 0.00069
79.95 0.00195
80 0.00109
80.05 0.00281
80.1 -0.00009
80.15 0.00033
80.2 -0.00174
80.25 -0.00563
80.3 -0.01014
80.35 -0.01581
80.4 -0.01463
80.45 -0.01224
80.5 -0.01239
80.55 -0.01139
80.6 -0.01293
80.65 -0.00839
80.7 -0.00907
80.75 -0.00784
80.8 -0.01063
80.85 -0.01095
80.9 -0.00776
80.95 -0.00933
81 -0.00786
81.05 -0.00984
81.1 -0.01179
81.15 -0.01109
81.2 -0.0107
81.25 -0.00753
81.3 -0.00878
81.35 -0.00527
81.4 0.00103
81.45 0.0029
81.5 0.00663
81.55 0.01327
81.6 0.01689
81.65 0.01937
81.7 0.02285
81.75 0.01887
81.8 0.01501
81.85 0.00932
81.9 0.00788
81.95 0.00411
82 0.00164
82.05 0.00142
82.1 -0.00107
82.15 -0.00432
82.2 -0.00272
82.25 -0.00536
82.3 -0.00193
82.35 0.00256
82.4 0.00444
82.45 0.00657
82.5 0.00618
82.55 0.00452
82.6 0.00298
82.65 -0.00028
82.7 -0.00577
82.75 -0.00525
82.8 -0.00373
82.85 -0.00033
82.9 -0.00092
82.95 0.00304
83 0.00977
83.05 0.00976
83.1 0.01072
83.15 0.01174
83.2 0.0122
83.25 0.01014
83.3 0.00435
83.35 -0.0002
83.4 0.00168
83.45 0.00463
83.5 0.00243
83.55 0.00291
83.6 0.0024
83.65 0.00282
83.7 0.00638
83.75 0.00705
83.8 0.00516
83.85 0.00429
83.9 -0.00033
83.95 -0.00011
84 0.00273
84.05 0.00428
84.1 0.00338
84.15 0.00178
84.2 0.0027
84.25 0.00131
84.3 0.00446
84.35 0.00226
84.4 -0.00174
84.45 -0.00498
84.5 -0.00253
84.55 -0.00415
84.6 -0.00936
84.65 -0.01179
84.7 -0.0121
84.75 -0.01525
84.8 -0.01185
84.85 -0.00637
84.9 0.00133
84.95 0.00902
85 0.01224
85.05 0.01181
85.1 0.00993
85.15 0.00581
85.2 -0.00157
85.25 -0.00518
85.3 -0.00621
85.35 -0.0079
85.4 -0.00463
85.45 0.00003
85.5 0.00365
85.55 0.00997
85.6 0.01555
85.65 0.01363
85.7 0.01148
85.75 0.00459
85.8 0.00295
85.85 0.00251
85.9 0.00609
85.95 0.0091
86 0.00644
86.05 0.00201
86.1 0.00327
86.15 -0.00013
86.2 -0.00404
86.25 -0.00345
86.3 -0.00215
86.35 -0.00025
86.4 -0.00011
86.45 0.00098
86.5 0.00566
86.55 0.00374
86.6 0.00048
86.65 0.00163
86.7 0.00522
86.75 0.00578
86.8 0.00424
86.85 0.00176
86.9 -0.0002
86.95 -0.00516
87 -0.00524
87.05 -0.00576
87.1 -0.00549
87.15 -0.00074
87.2 0.00027
87.25 0.00509
87.3 0.00329
87.35 0.00301
87.4 0.0071
87.45 0.00454
87.5 0.00283
87.55 -0.00162
87.6 -0.00487
87.65 -0.0077
87.7 -0.00857
87.75 -0.00394
87.8 0.00193
87.85 0.00908
87.9 0.0174
87.95 0.02186
88 0.02734
88.05 0.03023
88.1 0.0311
88.15 0.02771
88.2 0.0254
88.25 0.0215
88.3 0.01263
88.35 0.00697
88.4 0.00568
88.45 0.00543
88.5 0.00125
88.55 0.00009
88.6 -0.00274
88.65 -0.00744
88.7 -0.00774
88.75 -0.00999
88.8 -0.01251
88.85 -0.01437
88.9 -0.01074
88.95 -0.01024
89 -0.01263
89.05 -0.01409
89.1 -0.01813
89.15 -0.01755
89.2 -0.01466
89.25 -0.01226
89.3 -0.01386
89.35 -0.01058
89.4 -0.0057
89.45 0.00142
89.5 0.00337
89.55 0.00687
89.6 0.00675
89.65 0.00207
89.7 -0.0008
89.75 -0.00691
89.8 -0.00869
89.85 -0.01313
89.9 -0.01345
89.95 -0.01198
90 -0.01119
90.05 -0.00817
90.1 -0.00331
90.15 -0.00451
90.2 -0.00717
90.25 -0.00633
90.3 -0.00271
90.35 0.00336
90.4 0.00842
90.45 0.0152
90.5 0.01448
90.55 0.01242
90.6 0.00746
90.65 0.00046
90.7 -0.00386
90.75 -0.0026
90.8 -0.00031
90.85 -0.00292
90.9 -0.00161
90.95 0.00343
91 0.00945
91.05 0.00827
91.1 0.00835
91.15 0.00385
91.2 0.00412
91.25 0.00594
91.3 0.00601
91.35 0.00942
91.4 0.01396
91.45 0.01307
91.5 0.01249
91.55 0.01028
91.6 0.00831
91.65 0.00389
91.7 -0.00089
91.75 -0.00054
91.8 0.00048
91.85 -0.00258
91.9 -0.00902
91.95 -0.0099
92 -0.00544
92.05 0.00209
92.1 0.00649
92.15 0.00395
92.2 0.00327
92.25 -0.002
92.3 -0.00348
92.35 -0.00218
92.4 -0.00571
92.45 -0.00989
92.5 -0.00925
92.55 -0.00772
92.6 -0.00511
92.65 0.00103
92.7 0.00388
92.75 0.00366
92.8 0.00628
92.85 0.0061
92.9 0.00686
92.95 0.00852
93 0.00443
93.05 0.00534
93.1 0.00907
93.15 0.0108
93.2 0.0075
93.25 0.00764
93.3 0.00707
93.35 0.00583
93.4 0.00382
93.45 -0.00242
93.5 -0.00784
93.55 -0.01339
93.6 -0.01912
93.65 -0.01795
93.7 -0.01622
93.75 -0.01566
93.8 -0.01803
93.85 -0.01959
93.9 -0.01945
93.95 -0.02068
94 -0.02408
94.05 -0.02664
94.1 -0.0297
94.15 -0.02504
94.2 -0.01695
94.25 -0.00644
94.3 0.0011
94.35 0.00529
94.4 0.00307
94.45 0.00236
94.5 0.00463
94.55 0.00197
94.6 -0.00185
94.65 -0.00683
94.7 -0.01029
94.75 -0.01031
94.8 -0.00503
94.85 0.00262
94.9 0.00504
94.95 0.00167
95 -0.0036
95.05 -0.00718
95.1 -0.00543
95.15 -0.00237
95.2 0.00424
95.25 0.01206
95.3 0.0155
95.35 0.01656
95.4 0.0146
95.45 0.01065
95.5 0.00532
95.55 0.00116
95.6 -0.00616
95.65 -0.01055
95.7 -0.01366
95.75 -0.0137
95.8 -0.01449
95.85 -0.01146
95.9 -0.00968
95.95 -0.00455
96 -0.00543
96.05 -0.00884
96.1 -0.01382
96.15 -0.01663
96.2 -0.01649
96.25 -0.01849
96.3 -0.02132
96.35 -0.0199
96.4 -0.01424
96.45 -0.00736
96.5 0.00197
96.55 0.00665
96.6 0.01247
96.65 0.01176
96.7 0.01357
96.75 0.01499
96.8 0.01729
96.85 0.01512
96.9 0.0158
96.95 0.01551
97 0.01685
97.05 0.01872
97.1 0.0153
97.15 0.00889
97.2 -0.00038
97.25 -0.00256
97.3 -0.00468
97.35 -0.00412
97.4 -0.00792
97.45 -0.00888
97.5 -0.01124
97.55 -0.01566
97.6 -0.01503
97.65 -0.01316
97.7 -0.00638
97.75 -0.00308
97.8 0.00017
97.85 -0.00179
97.9 0.00005
97.95 0.0018
98 0.00525
98.05 0.00281
98.1 0.00418
98.15 0.00386
98.2 0.00758
98.25 0.00633
98.3 0.00044
98.35 -0.00634
98.4 -0.00856
98.45 -0.01383
98.5 -0.01805
98.55 -0.01774
98.6 -0.01476
98.65 -0.00913
98.7 -0.00381
98.75 -0.00429
98.8 -0.00142
98.85 0.00071
98.9 -0.0004
98.95 0.00178
99 0.00255
99.05 -0.00017
99.1 -0.00476
99.15 -0.00492
99.2 -0.00855
99.25 -0.00648
99.3 -0.0018
99.35 -0.00306
99.4 -0.00733
99.45 -0.0116
99.5 -0.01494
99.55 -0.01351
99.6 -0.00938
99.65 -0.00558
99.7 -0.00197
99.75 -0.00163
99.8 -0.00308
99.85 -0.00051
99.9 -0.00238
99.95 -0.00604
