0 0
0.05 0.00736
0.1 0.01728
0.15 0.02437
0.2 0.02687
0.25 0.03434
0.3 0.04301
0.35 0.0526
0.4 0.06005
0.45 0.05999
0.5 0.05467
0.55 0.04969
0.6 0.0421
0.65 0.04176
0.7 0.04379
0.75 0.0495
0.8 0.0572
0.85 0.06556
0.9 0.07041
0.95 0.07181
1 0.0663
1.05 0.06278
1.1 0.05632
1.15 0.05311
1.2 0.04975
1.25 0.04819
1.3 0.04992
1.35 0.04587
1.4 0.03824
1.45 0.03778
1.5 0.03787
1.55 0.03638
1.6 0.03921
1.65 0.039
1.7 0.04161
1.75 0.043
1.8 0.04021
1.85 0.03705
1.9 0.03034
1.95 0.02932
2 0.03273
2.05 0.03163
2.1 0.02706
2.15 0.02866
2.2 0.02688
2.25 0.02785
2.3 0.0264
2.35 0.02619
2.4 0.02203
2.45 0.02126
2.5 0.02417
2.55 0.02911
2.6 0.02938
2.65 0.02955
2.7 0.03142
2.75 0.03033
2.8 0.02701
2.85 0.02844
2.9 0.03352
2.95 0.03555
3 0.03758
3.05 0.03383
3.1 0.03489
3.15 0.03865
3.2 0.04117
3.25 0.03791
3.3 0.0325
3.35 0.0241
3.4 0.02281
3.45 0.02188
3.5 0.01791
3.55 0.01186
3.6 0.01188
3.65 0.01148
3.7 0.01438
3.75 0.01427
3.8 0.01769
3.85 0.01512
3.9 0.01701
3.95 0.01926
4 0.01584
4.05 0.01329
4.1 0.0073
4.15 0.00433
4.2 0.00505
4.25 0.00763
4.3 0.00847
4.35 0.00563
4.4 0.00428
4.45 0.00296
4.5 -0.00373
4.55 -0.01218
4.6 -0.02524
4.65 -0.04348
4.7 -0.06421
4.75 -0.08486
4.8 -0.11009
4.85 -0.13328
4.9 -0.15619
4.95 -0.1818
5 -0.22004
5.05 -0.26532
5.1 -0.31989
5.15 -0.37503
5.2 -0.43417
5.25 -0.49711
5.3 -0.56625
5.35 -0.64009
5.4 -0.71495
5.45 -0.79437
5.5 -0.88035
5.55 -0.96853
5.6 -1.05105
5.65 -1.13639
5.7 -1.21497
5.75 -1.28724
5.8 -1.36034
5.85 -1.43373
5.9 -1.50478
5.95 -1.57265
6 -1.63138
6.05 -1.68278
6.1 -1.72535
6.15 -1.75789
6.2 -1.78007
6.25 -1.79926
6.3 -1.81831
6.35 -1.82608
6.4 -1.8282
6.45 -1.82135
6.5 -1.80607
6.55 -1.78631
6.6 -1.75823
6.65 -1.72853
6.7 -1.68523
6.75 -1.63492
6.8 -1.57427
6.85 -1.50622
6.9 -1.427
6.95 -1.3397
7 -1.24297
7.05 -1.13032
7.1 -1.0068
7.15 -0.87752
7.2 -0.73578
7.25 -0.588
7.3 -0.43874
7.35 -0.28308
7.4 -0.13285
7.45 0.01587
7.5 0.16369
7.55 0.3079
7.6 0.45122
7.65 0.58278
7.7 0.70676
7.75 0.82856
7.8 0.93651
7.85 1.03691
7.9 1.13381
7.95 1.21807
8 1.29356
8.05 1.35532
8.1 1.40656
8.15 1.45036
8.2 1.48635
8.25 1.51608
8.3 1.54422
8.35 1.57205
8.4 1.59015
8.45 1.60247
8.5 1.61165
8.55 1.61448
8.6 1.61275
8.65 1.6125
8.7 1.61148
8.75 1.60179
8.8 1.59309
8.85 1.58632
8.9 1.57807
8.95 1.56689
9 1.55051
9.05 1.53035
9.1 1.51098
9.15 1.49168
9.2 1.47164
9.25 1.45037
9.3 1.42569
9.35 1.40095
9.4 1.37718
9.45 1.35798
9.5 1.33366
9.55 1.31547
9.6 1.29834
9.65 1.28246
9.7 1.26748
9.75 1.24422
9.8 1.22058
9.85 1.19563
9.9 1.16694
9.95 1.13804
10 1.11145
10.05 1.08194
10.1 1.05265
10.15 1.02144
10.2 0.99236
10.25 0.96323
10.3 0.92994
10.35 0.89638
10.4 0.86743
10.45 0.8408
10.5 0.81373
10.55 0.78611
10.6 0.75542
10.65 0.72112
10.7 0.68367
10.75 0.64424
10.8 0.60419
10.85 0.56795
10.9 0.53748
10.95 0.50398
11 0.47148
11.05 0.44008
11.1 0.40904
11.15 0.38033
11.2 0.34924
11.25 0.32262
11.3 0.2963
11.35 0.2712
11.4 0.24644
11.45 0.22374
11.5 0.20168
11.55 0.17604
11.6 0.15012
11.65 0.12609
11.7 0.0988
11.75 0.06945
11.8 0.04204
11.85 0.01871
11.9 -0.00266
11.95 -0.01957
12 -0.03742
12.05 -0.05061
12.1 -0.06621
12.15 -0.08284
12.2 -0.09479
12.25 -0.11066
12.3 -0.12847
12.35 -0.14326
12.4 -0.15744
12.45 -0.17418
12.5 -0.18379
12.55 -0.19083
12.6 -0.19808
12.65 -0.20911
12.7 -0.22132
12.75 -0.23403
12.8 -0.24693
12.85 -0.25886
12.9 -0.26198
12.95 -0.26024
13 -0.26003
13.05 -0.25985
13.1 -0.26328
13.15 -0.26927
13.2 -0.27558
13.25 -0.27845
13.3 -0.28128
13.35 -0.27983
13.4 -0.28161
13.45 -0.27995
13.5 -0.27904
13.55 -0.27994
13.6 -0.27716
13.65 -0.27051
13.7 -0.27029
13.75 -0.27107
13.8 -0.26907
13.85 -0.2702
13.9 -0.27203
13.95 -0.27329
14 -0.27177
14.05 -0.27106
14.1 -0.26486
14.15 -0.25464
14.2 -0.24584
14.25 -0.23861
14.3 -0.23531
14.35 -0.23132
14.4 -0.23097
14.45 -0.22683
14.5 -0.22684
14.55 -0.22618
14.6 -0.22902
14.65 -0.23073
14.7 -0.23208
14.75 -0.23464
14.8 -0.2306
14.85 -0.22497
14.9 -0.22079
14.95 -0.21912
15 -0.21589
15.05 -0.20987
15.1 -0.20753
15.15 -0.20536
15.2 -0.19796
15.25 -0.1953
15.3 -0.19157
15.35 -0.18642
15.4 -0.18281
15.45 -0.17857
15.5 -0.17235
15.55 -0.16622
15.6 -0.15759
15.65 -0.1544
15.7 -0.15363
15.75 -0.15219
15.8 -0.1548
15.85 -0.15249
15.9 -0.14854
15.95 -0.14588
16 -0.14433
16.05 -0.1423
16.1 -0.14203
16.15 -0.13851
16.2 -0.13764
16.25 -0.13401
16.3 -0.12801
16.35 -0.12671
16.4 -0.12681
16.45 -0.12255
16.5 -0.12361
16.55 -0.12692
16.6 -0.12556
16.65 -0.12128
16.7 -0.11418
16.75 -0.10592
16.8 -0.10549
16.85 -0.10692
16.9 -0.10576
16.95 -0.10297
17 -0.0988
17.05 -0.1012
17.1 -0.10379
17.15 -0.10067
17.2 -0.09434
17.25 -0.08876
17.3 -0.08623
17.35 -0.08797
17.4 -0.08591
17.45 -0.08751
17.5 -0.08939
17.55 -0.08882
17.6 -0.09243
17.65 -0.09684
17.7 -0.09798
17.75 -0.09385
17.8 -0.09173
17.85 -0.09083
17.9 -0.09089
17.95 -0.08818
18 -0.08111
18.05 -0.07905
18.1 -0.07923
18.15 -0.07671
18.2 -0.07808
18.25 -0.07683
18.3 -0.07188
18.35 -0.07275
18.4 -0.07089
18.45 -0.06564
18.5 -0.06462
18.55 -0.06084
18.6 -0.06129
18.65 -0.06172
18.7 -0.05829
18.75 -0.05741
18.8 -0.05318
18.85 -0.04851
18.9 -0.04748
18.95 -0.05003
19 -0.04806
19.05 -0.05035
19.1 -0.05297
19.15 -0.05859
19.2 -0.0665
19.25 -0.06921
19.3 -0.06791
19.35 -0.07015
19.4 -0.07142
19.45 -0.07453
19.5 -0.07404
19.55 -0.07454
19.6 -0.07128
19.65 -0.07115
19.7 -0.07334
19.75 -0.07265
19.8 -0.06576
19.85 -0.06354
19.9 -0.05819
19.95 -0.05558
20 -0.04862
20.05 -0.04318
20.1 -0.04358
20.15 -0.04037
20.2 -0.04194
20.25 -0.04309
20.3 -0.04485
20.35 -0.04395
20.4 -0.03923
20.45 -0.03407
20.5 -0.02878
20.55 -0.03037
20.6 -0.03266
20.65 -0.03518
20.7 -0.03688
20.75 -0.0378
20.8 -0.04246
20.85 -0.04784
20.9 -0.05394
20.95 -0.05163
21 -0.05162
21.05 -0.05011
21.1 -0.04861
21.15 -0.04556
21.2 -0.04192
21.25 -0.03924
21.3 -0.03748
21.35 -0.03602
21.4 -0.03678
21.45 -0.0374
21.5 -0.04001
21.55 -0.03564
21.6 -0.0282
21.65 -0.01955
21.7 -0.01182
21.75 -0.01081
21.8 -0.0069
21.85 -0.00586
21.9 -0.00695
21.95 -0.01094
22 -0.0176
22.05 -0.02419
22.1 -0.02681
22.15 -0.03213
22.2 -0.03436
22.25 -0.0304
22.3 -0.0276
22.35 -0.02951
22.4 -0.03147
22.45 -0.03082
22.5 -0.026
22.55 -0.02217
22.6 -0.02166
22.65 -0.02207
22.7 -0.01815
22.75 -0.01572
22.8 -0.01664
22.85 -0.01725
22.9 -0.01688
22.95 -0.02025
23 -0.02021
23.05 -0.01837
23.1 -0.01375
23.15 -0.00673
23.2 -0.00477
23.25 -0.00856
23.3 -0.01003
23.35 -0.01199
23.4 -0.01518
23.45 -0.01336
23.5 -0.0119
23.55 -0.01325
23.6 -0.01301
23.65 -0.00846
23.7 -0.00459
23.75 0.00029
23.8 0.001
23.85 -0.00309
23.9 -0.00275
23.95 -0.00513
24 -0.00701
24.05 -0.00775
24.1 -0.00916
24.15 -0.00776
24.2 -0.01045
24.25 -0.00841
24.3 -0.00437
24.35 0.00075
24.4 0.00461
24.45 0.0076
24.5 0.0042
24.55 0.00235
24.6 0.00169
24.65 0.0033
24.7 0.00479
24.75 0.00436
24.8 0.00675
24.85 0.00743
24.9 0.00739
24.95 0.00744
25 0.0061
25.05 0.00001
25.1 -0.00673
25.15 -0.01002
25.2 -0.00888
25.25 -0.00374
25.3 -0.00167
25.35 0.00005
25.4 -0.00049
25.45 -0.00441
25.5 -0.00376
25.55 -0.00674
25.6 -0.00717
25.65 -0.01155
25.7 -0.01784
25.75 -0.02475
25.8 -0.02448
25.85 -0.02304
25.9 -0.01646
25.95 -0.00815
26 -0.00004
26.05 0.0021
26.1 0.00163
26.15 0.00094
26.2 0.00036
26.25 -0.00313
26.3 -0.00904
26.35 -0.01375
26.4 -0.01859
26.45 -0.02099
26.5 -0.02042
26.55 -0.01916
26.6 -0.01317
26.65 -0.0094
26.7 -0.00978
26.75 -0.00929
26.8 -0.00573
26.85 -0.00044
26.9 -0.00167
26.95 -0.00105
27 -0.00007
27.05 -0.00011
27.1 0.00386
27.15 0.00325
27.2 0.00437
27.25 -0.00009
27.3 -0.00765
27.35 -0.00987
27.4 -0.00967
27.45 -0.01036
27.5 -0.01289
27.55 -0.01045
27.6 -0.00444
27.65 -0.00315
27.7 -0.00358
27.75 -0.00822
27.8 -0.01352
27.85 -0.01947
27.9 -0.01929
27.95 -0.01868
28 -0.01904
28.05 -0.01917
28.1 -0.02513
28.15 -0.02723
28.2 -0.03281
28.25 -0.04154
28.3 -0.04697
28.35 -0.05423
28.4 -0.06172
28.45 -0.06713
28.5 -0.07792
28.55 -0.08953
28.6 -0.10395
28.65 -0.11842
28.7 -0.13527
28.75 -0.1571
28.8 -0.18402
28.85 -0.21087
28.9 -0.23791
28.95 -0.26625
29 -0.29913
29.05 -0.33374
29.1 -0.36605
29.15 -0.40258
29.2 -0.44102
29.25 -0.48112
29.3 -0.51558
29.35 -0.54737
29.4 -0.58243
29.45 -0.61969
29.5 -0.65255
29.55 -0.68569
29.6 -0.71492
29.65 -0.74549
29.7 -0.77266
29.75 -0.79766
29.8 -0.82368
29.85 -0.8423
29.9 -0.85734
29.95 -0.86884
30 -0.87722
30.05 -0.88078
30.1 -0.87169
30.15 -0.85413
30.2 -0.83327
30.25 -0.8077
30.3 -0.77997
30.35 -0.74227
30.4 -0.70056
30.45 -0.65247
30.5 -0.59395
30.55 -0.53645
30.6 -0.478
30.65 -0.41107
30.7 -0.34306
30.75 -0.2738
30.8 -0.2012
30.85 -0.12707
30.9 -0.06153
30.95 -0.00127
31 0.05754
31.05 0.11992
31.1 0.17486
31.15 0.22668
31.2 0.27233
31.25 0.31773
31.3 0.36561
31.35 0.40427
31.4 0.4392
31.45 0.47284
31.5 0.50528
31.55 0.5315
31.6 0.55526
31.65 0.5736
31.7 0.59017
31.75 0.60627
31.8 0.62177
31.85 0.63077
31.9 0.63773
31.95 0.64391
32 0.64929
32.05 0.65139
32.1 0.65505
32.15 0.66083
32.2 0.66312
32.25 0.66121
32.3 0.66008
32.35 0.66454
32.4 0.67171
32.45 0.67472
32.5 0.67923
32.55 0.68155
32.6 0.67972
32.65 0.67796
32.7 0.67387
32.75 0.67243
32.8 0.67147
32.85 0.6642
32.9 0.65654
32.95 0.6459
33 0.63314
33.05 0.61733
33.1 0.60431
33.15 0.58804
33.2 0.56924
33.25 0.55247
33.3 0.53584
33.35 0.52063
33.4 0.50597
33.45 0.48967
33.5 0.47292
33.55 0.45689
33.6 0.4415
33.65 0.42211
33.7 0.4012
33.75 0.38799
33.8 0.37168
33.85 0.3592
33.9 0.34798
33.95 0.33644
34 0.32335
34.05 0.31185
34.1 0.29587
34.15 0.2759
34.2 0.25639
34.25 0.23694
34.3 0.2186
34.35 0.20297
34.4 0.18974
34.45 0.18003
34.5 0.16845
34.55 0.15973
34.6 0.15165
34.65 0.13978
34.7 0.13005
34.75 0.11824
34.8 0.10905
34.85 0.10438
34.9 0.093
34.95 0.07966
35 0.07073
35.05 0.06325
35.1 0.05422
35.15 0.04707
35.2 0.04155
35.25 0.03126
35.3 0.02647
35.35 0.02189
35.4 0.01955
35.45 0.01025
35.5 0.00365
35.55 -0.00048
35.6 -0.00305
35.65 -0.0089
35.7 -0.01971
35.75 -0.02535
35.8 -0.0308
35.85 -0.03483
35.9 -0.03578
35.95 -0.03898
36 -0.04658
36.05 -0.05639
36.1 -0.06909
36.15 -0.08307
36.2 -0.08796
36.25 -0.09235
36.3 -0.09509
36.35 -0.09679
36.4 -0.0989
36.45 -0.10044
36.5 -0.09753
36.55 -0.09668
36.6 -0.0933
36.65 -0.0911
36.7 -0.08927
36.75 -0.08882
36.8 -0.08824
36.85 -0.09207
36.9 -0.09764
36.95 -0.10532
37 -0.1103
37.05 -0.11612
37.1 -0.11919
37.15 -0.1158
37.2 -0.10863
37.25 -0.10643
37.3 -0.10895
37.35 -0.10956
37.4 -0.1139
37.45 -0.12004
37.5 -0.12192
37.55 -0.12511
37.6 -0.12413
37.65 -0.11734
37.7 -0.10963
37.75 -0.09946
37.8 -0.08983
37.85 -0.08465
37.9 -0.07889
37.95 -0.08092
38 -0.0796
38.05 -0.08285
38.1 -0.08125
38.15 -0.07842
38.2 -0.08087
38.25 -0.08429
38.3 -0.08915
38.35 -0.09328
38.4 -0.09711
38.45 -0.09986
38.5 -0.10005
38.55 -0.09635
38.6 -0.09157
38.65 -0.09157
38.7 -0.09048
38.75 -0.08983
38.8 -0.09169
38.85 -0.09358
38.9 -0.09427
38.95 -0.09305
39 -0.086
39.05 -0.08471
39.1 -0.07899
39.15 -0.07356
39.2 -0.06822
39.25 -0.06841
39.3 -0.06931
39.35 -0.07346
39.4 -0.07523
39.45 -0.07962
39.5 -0.07956
39.55 -0.07397
39.6 -0.06927
39.65 -0.06991
39.7 -0.06994
39.75 -0.07337
39.8 -0.07662
39.85 -0.07226
39.9 -0.0635
39.95 -0.05866
40 -0.0568
40.05 -0.05406
40.1 -0.0509
40.15 -0.05107
40.2 -0.05184
40.25 -0.05086
40.3 -0.05111
40.35 -0.05077
40.4 -0.04954
40.45 -0.0519
40.5 -0.04811
40.55 -0.04669
40.6 -0.04908
40.65 -0.05146
40.7 -0.0538
40.75 -0.05787
40.8 -0.06271
40.85 -0.05942
40.9 -0.0569
40.95 -0.04916
41 -0.03952
41.05 -0.02914
41.1 -0.02103
41.15 -0.0187
41.2 -0.01387
41.25 -0.01523
41.3 -0.02042
41.35 -0.02751
41.4 -0.0296
41.45 -0.03134
41.5 -0.03068
41.55 -0.03364
41.6 -0.03333
41.65 -0.02826
41.7 -0.02941
41.75 -0.03053
41.8 -0.03231
41.85 -0.0347
41.9 -0.03575
41.95 -0.03644
42 -0.03641
42.05 -0.03126
42.1 -0.02773
42.15 -0.02161
42.2 -0.02122
42.25 -0.0222
42.3 -0.02176
42.35 -0.02199
42.4 -0.02205
42.45 -0.02511
42.5 -0.02492
42.55 -0.02279
42.6 -0.02575
42.65 -0.02867
42.7 -0.02852
42.75 -0.03198
42.8 -0.03035
42.85 -0.03001
42.9 -0.02791
42.95 -0.02532
43 -0.02413
43.05 -0.02117
43.1 -0.01511
43.15 -0.00756
43.2 -0.0008
43.25 0.00497
43.3 0.00566
43.35 0.00194
43.4 0.00103
43.45 -0.00271
43.5 -0.00587
43.55 -0.01258
43.6 -0.01277
43.65 -0.0153
43.7 -0.01833
43.75 -0.02269
43.8 -0.02905
43.85 -0.03087
43.9 -0.03311
43.95 -0.03061
44 -0.02351
44.05 -0.01517
44.1 -0.009
44.15 -0.00766
44.2 -0.01113
44.25 -0.01276
44.3 -0.01251
44.35 -0.01411
44.4 -0.01772
44.45 -0.01967
44.5 -0.023
44.55 -0.02694
44.6 -0.02412
44.65 -0.01697
44.7 -0.01145
44.75 -0.01166
44.8 -0.01437
44.85 -0.01943
44.9 -0.01827
44.95 -0.01395
45 -0.01272
45.05 -0.01241
45.1 -0.01589
45.15 -0.01555
45.2 -0.01059
45.25 -0.006
45.3 -0.00297
45.35 -0.00333
45.4 -0.00652
45.45 -0.00557
45.5 -0.00466
45.55 -0.00073
45.6 0.00072
45.65 -0.00037
45.7 -0.00286
45.75 -0.00437
45.8 -0.00645
45.85 -0.00715
45.9 -0.00516
45.95 -0.00271
46 0.00253
46.05 0.00675
46.1 0.01229
46.15 0.013
46.2 0.01377
46.25 0.0105
46.3 0.01078
46.35 0.01208
46.4 0.00905
46.45 0.00475
46.5 0.00049
46.55 0.00087
46.6 -0.00138
46.65 -0.00331
46.7 -0.00683
46.75 -0.01193
46.8 -0.01803
46.85 -0.01936
46.9 -0.02345
46.95 -0.02255
47 -0.02377
47.05 -0.02752
47.1 -0.02691
47.15 -0.02427
47.2 -0.02335
47.25 -0.02489
47.3 -0.02579
47.35 -0.02675
47.4 -0.0212
47.45 -0.01993
47.5 -0.01851
47.55 -0.01949
47.6 -0.01465
47.65 -0.00999
47.7 -0.00677
47.75 -0.00161
47.8 0.00322
47.85 0.00749
47.9 0.00512
47.95 0.0013
48 -0.0003
48.05 0.00057
48.1 0.00453
48.15 0.00922
48.2 0.01074
48.25 0.0085
48.3 0.00373
48.35 -0.00229
48.4 -0.00367
48.45 -0.00436
48.5 -0.00816
48.55 -0.00796
48.6 -0.00909
48.65 -0.0108
48.7 -0.01477
48.75 -0.01716
48.8 -0.01363
48.85 -0.00713
48.9 -0.0038
48.95 -0.00273
49 0.00238
49.05 0.00042
49.1 -0.00489
49.15 -0.01222
49.2 -0.0164
49.25 -0.01948
49.3 -0.01645
49.35 -0.01535
49.4 -0.01101
49.45 -0.0058
49.5 -0.0044
49.55 -0.00775
49.6 -0.01304
49.65 -0.01237
49.7 -0.01304
49.75 -0.01663
49.8 -0.01681
49.85 -0.01944
49.9 -0.02339
49.95 -0.02647
50 -0.02203
50.05 -0.01975
50.1 -0.01734
50.15 -0.0146
50.2 -0.01516
50.25 -0.0168
50.3 -0.017
50.35 -0.01593
50.4 -0.0109
50.45 -0.00479
50.5 -0.00343
50.55 -0.00097
50.6 0.00396
50.65 0.00817
50.7 0.00831
50.75 0.00586
50.8 0.00249
50.85 0.00404
50.9 0.0047
50.95 0.00636
51 0.009
51.05 0.0076
51.1 0.00962
51.15 0.00784
51.2 0.00926
51.25 0.01104
51.3 0.01297
51.35 0.01569
51.4 0.0149
51.45 0.00908
51.5 0.00659
51.55 0.00615
51.6 0.00817
51.65 0.01081
51.7 0.01105
51.75 0.00983
51.8 0.00617
51.85 0.00691
51.9 0.00255
51.95 0.00181
52 0.00466
52.05 0.00282
52.1 0.00049
52.15 -0.00271
52.2 -0.00732
52.25 -0.00706
52.3 -0.00396
52.35 -0.00088
52.4 0.00141
52.45 0.00152
52.5 -0.0032
52.55 -0.00234
52.6 0.00251
52.65 0.0084
52.7 0.00919
52.75 0.01079
52.8 0.01164
52.85 0.00845
52.9 0.00165
52.95 -0.00703
53 -0.01579
53.05 -0.01917
53.1 -0.01868
53.15 -0.01337
53.2 -0.00787
53.25 -0.00179
53.3 0.0018
53.35 0.00342
53.4 0.00439
53.45 0.00125
53.5 -0.00206
53.55 -0.00603
53.6 -0.00648
53.65 -0.00494
53.7 -0.00405
53.75 -0.00257
53.8 -0.00145
53.85 0.00045
53.9 -0.00284
53.95 -0.0024
54 0.00256
54.05 0.00773
54.1 0.01458
54.15 0.0175
54.2 0.02111
54.25 0.02417
54.3 0.02168
54.35 0.01355
54.4 0.0067
54.45 0.00091
54.5 -0.00186
54.55 -0.00134
54.6 0.00059
54.65 0.00591
54.7 0.00408
54.75 0.00403
54.8 0.00086
54.85 -0.00478
54.9 -0.00931
54.95 -0.01272
55 -0.01605
55.05 -0.01938
55.1 -0.02033
55.15 -0.02204
55.2 -0.02132
55.25 -0.01498
55.3 -0.0138
55.35 -0.01299
55.4 -0.0121
55.45 -0.00614
55.5 -0.00596
55.55 -0.00076
55.6 0.00338
55.65 0.00815
55.7 0.00785
55.75 0.00338
55.8 -0.00262
55.85 -0.00299
55.9 -0.00304
55.95 -0.00353
56 -0.00225
56.05 -0.00186
56.1 -0.00608
56.15 -0.01029
56.2 -0.00853
56.25 -0.00958
56.3 -0.01275
56.35 -0.01227
56.4 -0.00906
56.45 -0.00471
56.5 -0.00575
56.55 -0.00467
56.6 -0.0007
56.65 -0.00135
56.7 -0.00363
56.75 -0.00743
56.8 -0.01377
56.85 -0.01928
56.9 -0.02048
56.95 -0.01984
57 -0.01337
57.05 -0.00449
57.1 -0.00055
57.15 0.00484
57.2 0.00858
57.25 0.0073
57.3 0.01058
57.35 0.01196
57.4 0.01498
57.45 0.01152
57.5 0.00692
57.55 0.00779
57.6 0.00869
57.65 0.00525
57.7 -0.00017
57.75 0.00086
57.8 0.00511
57.85 0.00514
57.9 0.00815
57.95 0.00846
58 0.00579
58.05 0.00323
58.1 0.00383
58.15 0.00423
58.2 0.00437
58.25 0.00858
58.3 0.00655
58.35 0.00146
58.4 0.001
58.45 0.00517
58.5 0.00286
58.55 0.00413
58.6 0.00376
58.65 0.00162
58.7 0.00174
58.75 0.00438
58.8 0.00993
58.85 0.009
58.9 0.01075
58.95 0.01146
59 0.01217
59.05 0.0142
59.1 0.01738
59.15 0.01878
59.2 0.0171
59.25 0.01798
59.3 0.01526
59.35 0.01113
59.4 0.00309
59.45 -0.00286
59.5 -0.00641
59.55 -0.01117
59.6 -0.01332
59.65 -0.01549
59.7 -0.02031
59.75 -0.02475
59.8 -0.02441
59.85 -0.01998
59.9 -0.0197
59.95 -0.02186
60 -0.02061
60.05 -0.01655
60.1 -0.00817
60.15 -0.00634
60.2 -0.00047
60.25 0.00212
60.3 0.00355
60.35 0.00058
60.4 -0.00135
60.45 0.00106
60.5 -0.00057
60.55 0.00123
60.6 0.00528
60.65 0.0044
60.7 -0.00019
60.75 0.00125
60.8 0.00113
60.85 0.00069
60.9 0.00497
60.95 0.00441
61 0.00764
61.05 0.00534
61.1 -0.00048
61.15 -0.00087
61.2 0.00174
61.25 0.00742
61.3 0.01032
61.35 0.01042
61.4 0.0132
61.45 0.01191
61.5 0.00837
61.55 0.00361
61.6 -0.00191
61.65 -0.0095
61.7 -0.01708
61.75 -0.02016
61.8 -0.02436
61.85 -0.0269
61.9 -0.02384
61.95 -0.01739
62 -0.01101
62.05 -0.00402
62.1 0.0036
62.15 0.01207
62.2 0.01409
62.25 0.01541
62.3 0.0173
62.35 0.02128
62.4 0.02646
62.45 0.02686
62.5 0.02536
62.55 0.02585
62.6 0.02412
62.65 0.01976
62.7 0.01438
62.75 0.01198
62.8 0.0131
62.85 0.01259
62.9 0.0096
62.95 0.00229
63 -0.00062
63.05 -0.00204
63.1 0.00136
63.15 0.00688
63.2 0.00995
63.25 0.00856
63.3 0.0065
63.35 -0.00002
63.4 -0.00253
63.45 -0.00687
63.5 -0.01096
63.55 -0.01387
63.6 -0.01354
63.65 -0.01592
63.7 -0.01327
63.75 -0.00844
63.8 -0.00743
63.85 -0.00474
63.9 -0.00085
63.95 0.00523
64 0.01092
64.05 0.01343
64.1 0.01804
64.15 0.01622
64.2 0.01689
64.25 0.0159
64.3 0.0177
64.35 0.01535
64.4 0.00778
64.45 0.00163
64.5 -0.00087
64.55 -0.00359
64.6 -0.00452
64.65 -0.0098
64.7 -0.01222
64.75 -0.01514
64.8 -0.0154
64.85 -0.01143
64.9 -0.00702
64.95 -0.00364
65 -0.00483
65.05 -0.00224
65.1 -0.00415
65.15 -0.00717
65.2 -0.00753
65.25 -0.00929
65.3 -0.00699
65.35 -0.00659
65.4 -0.00629
65.45 -0.00944
65.5 -0.01253
65.55 -0.01045
65.6 -0.00402
65.65 -0.00102
65.7 0.00183
65.75 0.0021
65.8 0.00384
65.85 0.00191
65.9 -0.00029
65.95 -0.00162
66 0.00091
66.05 0.00297
66.1 0.00255
66.15 -0.00128
66.2 -0.00396
66.25 -0.00754
66.3 -0.00734
66.35 -0.00969
66.4 -0.00602
66.45 -0.00706
66.5 -0.00891
66.55 -0.01126
66.6 -0.01112
66.65 -0.01019
66.7 -0.00789
66.75 -0.00484
66.8 0.001
66.85 0.00633
66.9 0.00526
66.95 0.0034
67 -0.00049
67.05 -0.00503
67.1 -0.00725
67.15 -0.01265
67.2 -0.01052
67.25 -0.00678
67.3 -0.00341
67.35 -0.00531
67.4 -0.00542
67.45 -0.00721
67.5 -0.01079
67.55 -0.00949
67.6 -0.0114
67.65 -0.01364
67.7 -0.01031
67.75 -0.00993
67.8 -0.00577
67.85 -0.00417
67.9 -0.00624
67.95 -0.00367
68 -0.00499
68.05 -0.00231
68.1 -0.00225
68.15 -0.00419
68.2 -0.00278
68.25 -0.00232
68.3 -0.00235
68.35 0.00082
68.4 -0.00051
68.45 -0.00514
68.5 -0.00768
68.55 -0.00432
68.6 0.00219
68.65 0.00815
68.7 0.0114
68.75 0.01474
68.8 0.01339
68.85 0.00904
68.9 0.00991
68.95 0.00543
69 -0.00199
69.05 -0.00696
69.1 -0.0116
69.15 -0.01746
69.2 -0.02286
69.25 -0.02681
69.3 -0.02429
69.35 -0.02465
69.4 -0.02213
69.45 -0.01873
69.5 -0.01357
69.55 -0.01003
69.6 -0.00555
69.65 -0.00628
69.7 -0.00758
69.75 -0.00773
69.8 -0.0051
69.85 -0.0051
69.9 -0.00401
69.95 -0.0031
70 0.00133
70.05 0.00599
70.1 0.00501
70.15 -0.00014
70.2 -0.0025
70.25 0.00021
70.3 0.00095
70.35 0.00006
70.4 -0.00116
70.45 -0.0004
70.5 0.00332
70.55 0.00728
70.6 0.0077
70.65 0.0096
70.7 0.00793
70.75 0.00444
70.8 0.00581
70.85 0.00228
70.9 -0.00396
70.95 -0.00986
71 -0.01323
71.05 -0.00989
71.1 -0.00537
71.15 -0.0021
71.2 0.00441
71.25 0.00583
71.3 0.00705
71.35 0.00334
71.4 -0.00276
71.45 -0.00299
71.5 -0.00473
71.55 -0.00847
71.6 -0.00777
71.65 -0.00557
71.7 -0.00324
71.75 -0.00504
71.8 -0.01015
71.85 -0.01255
71.9 -0.01509
71.95 -0.01451
72 -0.01198
72.05 -0.00626
72.1 0.00116
72.15 0.00241
72.2 0.00646
72.25 0.00964
72.3 0.01507
72.35 0.02031
72.4 0.01781
72.45 0.01506
72.5 0.0168
72.55 0.01314
72.6 0.01097
72.65 0.00941
72.7 0.01092
72.75 0.009
72.8 0.00719
72.85 0.00666
72.9 0.00193
72.95 -0.0038
73 -0.00639
73.05 -0.0094
73.1 -0.00643
73.15 -0.0012
73.2 0.00267
73.25 0.005
73.3 0.00289
73.35 -0.00105
73.4 0.00111
73.45 0.00221
73.5 0.00355
73.55 0.00013
73.6 -0.00612
73.65 -0.01243
73.7 -0.01419
73.75 -0.01734
73.8 -0.01803
73.85 -0.014
73.9 -0.01062
73.95 -0.00864
74 -0.00703
74.05 -0.00347
74.1 0.0039
74.15 0.01267
74.2 0.01761
74.25 0.02174
74.3 0.01824
74.35 0.01575
74.4 0.01729
74.45 0.02042
74.5 0.02264
74.55 0.02268
74.6 0.01845
74.65 0.01125
74.7 0.00472
74.75 -0.00437
74.8 -0.01285
74.85 -0.01632
74.9 -0.01392
74.95 -0.00773
75 -0.00227
75.05 0.00584
75.1 0.01156
75.15 0.01123
75.2 0.00695
75.25 0.00728
75.3 0.00434
75.35 -0.00156
75.4 -0.00338
75.45 -0.00719
75.5 -0.00681
75.55 -0.00854
75.6 -0.00569
75.65 -0.002
75.7 -0.00347
75.75 -0.0083
75.8 -0.00669
75.85 -0.00329
75.9 -0.00213
75.95 -0.00225
76 -0.00133
76.05 0.00345
76.1 0.00222
76.15 0.00301
76.2 0.00627
76.25 0.00474
76.3 0.00077
76.35 0.00281
76.4 0.00803
76.45 0.01294
76.5 0.0179
76.55 0.02075
76.6 0.01676
76.65 0.0167
76.7 0.01271
76.75 0.00444
76.8 -0.00276
76.85 -0.00997
76.9 -0.01134
76.95 -0.01505
77 -0.01958
77.05 -0.0172
77.1 -0.01885
77.15 -0.01877
77.2 -0.01457
77.25 -0.0133
77.3 -0.01406
77.35 -0.01443
77.4 -0.01615
77.45 -0.01244
77.5 -0.00692
77.55 -0.00541
77.6 -0.00809
77.65 -0.01245
77.7 -0.00956
77.75 -0.01107
77.8 -0.01031
77.85 -0.00679
77.9 -0.00114
77.95 0.00122
78 -0.00064
78.05 0.0029
78.1 0.00739
78.15 0.00971
78.2 0.01217
78.25 0.01014
78.3 0.01271
78.35 0.01532
78.4 0.01588
78.45 0.01371
78.5 0.00951
78.55 0.00535
78.6 0.00109
78.65 0.00025
78.7 0.00144
78.75 0.00249
78.8 0.00503
78.85 0.00179
78.9 -0.0039
78.95 -0.00924
79 -0.0161
79.05 -0.01741
79.1 -0.01806
79.15 -0.01783
79.2 -0.01663
79.25 -0.01358
79.3 -0.00674
79.35 0.00252
79.4 0.01124
79.45 0.0123
79.5 0.01466
79.55 0.01419
79.6 0.01552
79.65 0.0115
79.7 0.00495
79.75 -0.00282
79.8 -0.00356
79.85 -0.00795
79.9 -0.0116
79.95 -0.00824
80 -0.00349
80.05 0.00008
80.1 -0.00046
80.15 -0.00314
80.2 -0.00104
80.25 0.00283
80.3 0.00418
80.35 0.00281
80.4 0.00228
80.45 0.00482
80.5 0.00428
80.55 0.00338
80.6 -0.00055
80.65 -0.00292
80.7 -0.00088
80.75 -0.00368
80.8 -0.00547
80.85 -0.00329
80.9 0.00131
80.95 0.0084
81 0.01261
81.05 0.017
81.1 0.02231
81.15 0.02594
81.2 0.02873
81.25 0.03007
81.3 0.02447
81.35 0.02052
81.4 0.01162
81.45 0.0049
81.5 -0.00264
81.55 -0.00281
81.6 0.00095
81.65 -0.0016
81.7 -0.00461
81.75 -0.00538
81.8 -0.00712
81.85 -0.0087
81.9 -0.00964
81.95 -0.00581
82 -0.00566
82.05 -0.00962
82.1 -0.01364
82.15 -0.01651
82.2 -0.01725
82.25 -0.01297
82.3 -0.01197
82.35 -0.00995
82.4 -0.00392
82.45 0.0007
82.5 0.00183
82.55 0.00123
82.6 -0.00111
82.65 0.00066
82.7 0.00593
82.75 0.01108
82.8 0.00984
82.85 0.00631
82.9 0.00714
82.95 0.0064
83 0.00662
83.05 0.00529
83.1 0.00718
83.15 0.00508
83.2 0.0006
83.25 0.00057
83.3 -0.00338
83.35 -0.00483
83.4 -0.00808
83.45 -0.01053
83.5 -0.01294
83.55 -0.01507
83.6 -0.01369
83.65 -0.01082
83.7 -0.01263
83.75 -0.01285
83.8 -0.01315
83.85 -0.00856
83.9 -0.00633
83.95 -0.00751
84 -0.00741
84.05 -0.01119
84.1 -0.00871
84.15 -0.00926
84.2 -0.00998
84.25 -0.00702
84.3 -0.00123
84.35 0.00578
84.4 0.00958
84.45 0.01342
84.5 0.01409
84.55 0.0099
84.6 0.00939
84.65 0.00743
84.7 0.00789
84.75 0.01195
84.8 0.01038
84.85 0.00748
84.9 0.0096
84.95 0.01305
85 0.01364
85.05 0.01067
85.1 0.0087
85.15 0.01027
85.2 0.01489
85.25 0.02104
85.3 0.02648
85.35 0.02627
85.4 0.02196
85.45 0.01311
85.5 0.00808
85.55 -0.00047
85.6 -0.00352
85.65 -0.00895
85.7 -0.01143
85.75 -0.01668
85.8 -0.02257
85.85 -0.02423
85.9 -0.02551
85.95 -0.02456
86 -0.0174
86.05 -0.0076
86.1 -0.00146
86.15 0.0003
86.2 -0.00191
86.25 -0.00526
86.3 -0.01172
86.35 -0.01259
86.4 -0.01365
86.45 -0.01261
86.5 -0.0148
86.55 -0.01913
86.6 -0.02025
86.65 -0.02381
86.7 -0.01946
86.75 -0.01848
86.8 -0.01234
86.85 -0.00671
86.9 -0.00341
86.95 -0.00152
87 0.00181
87.05 0.00076
87.1 -0.00301
87.15 -0.00721
87.2 -0.01081
87.25 -0.01494
87.3 -0.01634
87.35 -0.01486
87.4 -0.01128
87.45 -0.00428
87.5 -0.00054
87.55 0.0048
87.6 0.00671
87.65 0.01024
87.7 0.0086
87.75 0.00991
87.8 0.00863
87.85 0.00823
87.9 0.01043
87.95 0.00764
88 0.00307
88.05 0.00332
88.1 0.00193
88.15 -0.00131
88.2 -0.00202
88.25 0.00188
88.3 0.00652
88.35 0.01283
88.4 0.01503
88.45 0.01126
88.5 0.01
88.55 0.00692
88.6 0.00819
88.65 0.0081
88.7 0.00459
88.75 0.00126
88.8 -0.00248
88.85 -0.00197
88.9 -0.00336
88.95 -0.00763
89 -0.00762
89.05 -0.00455
89.1 -0.00106
89.15 -0.0013
89.2 -0.00503
89.25 -0.00792
89.3 -0.01182
89.35 -0.00877
89.4 -0.00331
89.45 0.00057
89.5 0.00141
89.55 0.00482
89.6 0.00637
89.65 0.01069
89.7 0.01123
89.75 0.01257
89.8 0.01123
89.85 0.01284
89.9 0.00993
89.95 0.00984
90 0.0106
90.05 0.01034
90.1 0.01364
90.15 0.01408
90.2 0.01424
90.25 0.01089
90.3 0.00624
90.35 -0.00077
90.4 -0.00676
90.45 -0.00676
90.5 -0.00825
90.55 -0.01066
90.6 -0.00732
90.65 -0.0076
90.7 -0.01013
90.75 -0.01019
90.8 -0.01312
90.85 -0.01457
90.9 -0.01243
90.95 -0.01034
91 -0.00691
91.05 -0.00107
91.1 0.00348
91.15 0.00946
91.2 0.01667
91.25 0.0181
91.3 0.01486
91.35 0.01153
91.4 0.00775
91.45 0.00484
91.5 0.00415
91.55 0.00396
91.6 0.00126
91.65 -0.00358
91.7 -0.01011
91.75 -0.01222
91.8 -0.01277
91.85 -0.01186
91.9 -0.00788
91.95 -0.00887
92 -0.01204
92.05 -0.01666
92.1 -0.01368
92.15 -0.01258
92.2 -0.01521
92.25 -0.01763
92.3 -0.01929
92.35 -0.02137
92.4 -0.02112
92.45 -0.01565
92.5 -0.00916
92.55 -0.00119
92.6 0.00812
92.65 0.0128
92.7 0.01838
92.75 0.01866
92.8 0.01903
92.85 0.0184
92.9 0.01957
92.95 0.01637
93 0.01341
93.05 0.00761
93.1 0.0037
93.15 -0.00109
93.2 -0.00346
93.25 -0.00033
93.3 0.00523
93.35 0.00583
93.4 0.00886
93.45 0.01358
93.5 0.01303
93.55 0.00713
93.6 -0.00073
93.65 -0.00448
93.7 -0.00245
93.75 -0.0044
93.8 -0.00446
93.85 -0.00456
93.9 -0.00812
93.95 -0.00977
94 -0.01009
94.05 -0.00584
94.1 -0.00138
94.15 -0.00312
94.2 -0.00767
94.25 -0.00737
94.3 -0.00868
94.35 -0.00516
94.4 -0.00239
94.45 -0.00238
94.5 -0.00486
94.55 -0.00137
94.6 0.00427
94.65 0.00875
94.7 0.01154
94.75 0.00904
94.8 0.00576
94.85 0.0069
94.9 0.00313
94.95 -0.00074
95 0.00037
95.05 0.00432
95.1 0.00483
95.15 0.0045
95.2 0.00548
95.25 0.00773
95.3 0.01183
95.35 0.01079
95.4 0.01324
95.45 0.00952
95.5 0.00508
95.55 0.00283
95.6 -0.00309
95.65 -0.0104
95.7 -0.01373
95.75 -0.01571
95.8 -0.01398
95.85 -0.00906
95.9 -0.00641
95.95 -0.00765
96 -0.00956
96.05 -0.00745
96.1 -0.00726
96.15 -0.00719
96.2 -0.00761
96.25 -0.01029
96.3 -0.01069
96.35 -0.01463
96.4 -0.02012
96.45 -0.02653
96.5 -0.0322
96.55 -0.03364
96.6 -0.02744
96.65 -0.02286
96.7 -0.01592
96.75 -0.01368
96.8 -0.00668
96.85 -0.00523
96.9 0.00022
96.95 0.0008
97 -0.00087
97.05 -0.00551
97.1 -0.01171
97.15 -0.01435
97.2 -0.01812
97.25 -0.0143
97.3 -0.0067
97.35 0.00242
97.4 0.0059
97.45 0.01235
97.5 0.01461
97.55 0.01669
97.6 0.01518
97.65 0.01509
97.7 0.01766
97.75 0.01686
97.8 0.01845
97.85 0.01524
97.9 0.00834
97.95 0.00743
98 0.00493
98.05 0.00142
98.1 -0.00045
98.15 0.0016
98.2 -0.00071
98.25 -0.00513
98.3 -0.00379
98.35 0.00024
98.4 0.00648
98.45 0.00679
98.5 0.00393
98.55 0.00542
98.6 0.00151
98.65 -0.00412
98.7 -0.00651
98.75 -0.01161
98.8 -0.01371
98.85 -0.01439
98.9 -0.01805
98.95 -0.0222
99 -0.02201
99.05 -0.01827
99.1 -0.01548
99.15 -0.01046
99.2 -0.00417
99.25 -0.00292
99.3 0.0002
99.35 0.00174
99.4 0.00407
99.45 0.00763
99.5 0.01248
99.55 0.01037
99.6 0.00517
99.65 -0.00068
99.7 -0.00462
99.75 -0.01084
99.8 -0.01768
99.85 -0.02135
99.9 -0.02518
99.95 -0.02247
