0 0
0.05 0.002
0.1 0.00748
0.15 0.01079
0.2 0.01612
0.25 0.02072
0.3 0.02374
0.35 0.02589
0.4 0.02896
0.45 0.03166
0.5 0.0306
0.55 0.02982
0.6 0.02816
0.65 0.02676
0.7 0.02473
0.75 0.02515
0.8 0.02417
0.85 0.02515
0.9 0.02745
0.95 0.02958
1 0.02926
1.05 0.02661
1.1 0.02667
1.15 0.02612
1.2 0.02355
1.25 0.02247
1.3 0.02024
1.35 0.01724
1.4 0.01619
1.45 0.01809
1.5 0.01892
1.55 0.0214
1.6 0.02405
1.65 0.02287
1.7 0.0241
1.75 0.02254
1.8 0.02175
1.85 0.01885
1.9 0.01537
1.95 0.01235
2 0.01083
2.05 0.01288
2.1 0.01612
2.15 0.01806
2.2 0.01795
2.25 0.01921
2.3 0.01934
2.35 0.01954
2.4 0.02005
2.45 0.0217
2.5 0.02027
2.55 0.02068
2.6 0.02
2.65 0.02071
2.7 0.02287
2.75 0.02313
2.8 0.02369
2.85 0.02556
2.9 0.0237
2.95 0.01992
3 0.01593
3.05 0.01454
3.1 0.01173
3.15 0.01071
3.2 0.01206
3.25 0.01429
3.3 0.01561
3.35 0.01641
3.4 0.01452
3.45 0.01043
3.5 0.00703
3.55 0.00617
3.6 0.00409
3.65 0.00572
3.7 0.00537
3.75 0.00359
3.8 0.00393
3.85 0.00648
3.9 0.00593
3.95 0.00674
4 0.00911
4.05 0.00802
4.1 0.00584
4.15 0.00607
4.2 0.00691
4.25 0.00658
4.3 0.004
4.35 0.00342
4.4 0.00375
4.45 0.00382
4.5 0.00554
4.55 0.00552
4.6 0.00394
4.65 0.00348
4.7 0.00457
4.75 0.00714
4.8 0.00689
4.85 0.00742
4.9 0.01019
4.95 0.01365
5 0.01321
5.05 0.01092
5.1 0.00703
5.15 0.00293
5.2 0.00159
5.25 -0.00037
5.3 -0.00219
5.35 -0.00163
5.4 0.00141
5.45 0.00513
5.5 0.00693
5.55 0.00688
5.6 0.00873
5.65 0.00904
5.7 0.01083
5.75 0.00902
5.8 0.00575
5.85 0.00371
5.9 0.0008
5.95 -0.00087
6 -0.00023
6.05 0.00285
6.1 0.00637
6.15 0.00903
6.2 0.00925
6.25 0.01021
6.3 0.01182
6.35 0.0142
6.4 0.01505
6.45 0.01439
6.5 0.01354
6.55 0.01097
6.6 0.0098
6.65 0.01068
6.7 0.00861
6.75 0.00874
6.8 0.00625
6.85 0.0036
6.9 0.00406
6.95 0.00599
7 0.00496
7.05 0.00622
7.1 0.00806
7.15 0.00848
7.2 0.01048
7.25 0.01113
7.3 0.01029
7.35 0.00966
7.4 0.00754
7.45 0.00506
7.5 0.00508
7.55 0.00364
7.6 0.00263
7.65 0.00106
7.7 -0.00107
7.75 -0.00275
7.8 -0.00538
7.85 -0.00814
7.9 -0.00839
7.95 -0.0089
8 -0.00949
8.05 -0.0099
8.1 -0.00958
8.15 -0.00848
8.2 -0.00783
8.25 -0.00709
8.3 -0.00718
8.35 -0.00635
8.4 -0.00605
8.45 -0.00402
8.5 -0.00396
8.55 -0.0017
8.6 0.00258
8.65 0.00345
8.7 0.00188
8.75 0.00045
8.8 -0.00254
8.85 -0.00614
8.9 -0.00554
8.95 -0.00387
9 -0.00258
9.05 -0.00279
9.1 -0.00332
9.15 -0.00063
9.2 0.00343
9.25 0.00405
9.3 0.00231
9.35 0.00031
9.4 -0.0009
9.45 -0.00113
9.5 0.00151
9.55 0.00127
9.6 -0.00122
9.65 -0.0014
9.7 -0.0022
9.75 -0.00016
9.8 -0.00018
9.85 0.00202
9.9 0.00271
9.95 0.00376
10 0.00465
10.05 0.00677
10.1 0.00997
10.15 0.01283
10.2 0.01227
10.25 0.01332
10.3 0.01312
10.35 0.01444
10.4 0.01255
10.45 0.01173
10.5 0.00779
10.55 0.00487
10.6 0.0028
10.65 0.00006
10.7 0.00043
10.75 0.00228
10.8 0.00309
10.85 0.00478
10.9 0.00402
10.95 0.00378
11 0.00401
11.05 0.00293
11.1 0.0016
11.15 -0.00013
11.2 -0.00056
11.25 -0.00275
11.3 -0.00616
11.35 -0.00648
11.4 -0.00535
11.45 -0.00242
11.5 -0.00013
11.55 0.00322
11.6 0.00665
11.65 0.0072
11.7 0.0064
11.75 0.00465
11.8 0.00265
11.85 -0.00105
11.9 -0.00351
11.95 -0.00554
12 -0.00609
12.05 -0.00582
12.1 -0.00467
12.15 -0.00437
12.2 -0.00223
12.25 -0.00044
12.3 0.00321
12.35 0.00431
12.4 0.00443
12.45 0.00282
12.5 0.00112
12.55 -0.0014
12.6 -0.00511
12.65 -0.00493
12.7 -0.00193
12.75 -0.00156
12.8 -0.0034
12.85 -0.00274
12.9 -0.00452
12.95 -0.00503
13 -0.0056
13.05 -0.006
13.1 -0.00569
13.15 -0.00358
13.2 -0.00207
13.25 0.00082
13.3 0.00513
13.35 0.00726
13.4 0.00676
13.45 0.00438
13.5 0.00407
13.55 0.00126
13.6 -0.00226
13.65 -0.00192
13.7 -0.00347
13.75 -0.00367
13.8 -0.00207
13.85 0.00163
13.9 0.00635
13.95 0.00984
14 0.00979
14.05 0.01001
14.1 0.0081
14.15 0.00538
14.2 0.00089
14.25 -0.00422
14.3 -0.00949
14.35 -0.01209
14.4 -0.01229
14.45 -0.00937
14.5 -0.00521
14.55 0.00007
14.6 0.00566
14.65 0.00651
14.7 0.00503
14.75 0.00436
14.8 0.00324
14.85 0.00391
14.9 0.00244
14.95 0.00068
15 0.00166
15.05 -0.0001
15.1 -0.0018
15.15 -0.00451
15.2 -0.00505
15.25 -0.00721
15.3 -0.00618
15.35 -0.00341
15.4 -0.002
15.45 0.00013
15.5 0.00241
15.55 0.00307
15.6 0.00458
15.65 0.00563
15.7 0.00485
15.75 0.00625
15.8 0.00812
15.85 0.00888
15.9 0.00773
15.95 0.00846
16 0.00647
16.05 0.00561
16.1 0.00334
16.15 0.00265
16.2 0.00336
16.25 0.00456
16.3 0.0065
16.35 0.00796
16.4 0.00714
16.45 0.00741
16.5 0.00544
16.55 0.00168
16.6 0.00014
16.65 -0.0001
16.7 0.0008
16.75 0.00263
16.8 0.00221
16.85 -0.00055
16.9 -0.00195
16.95 -0.00477
17 -0.0064
17.05 -0.00636
17.1 -0.00503
17.15 -0.00258
17.2 -0.00015
17.25 0.00263
17.3 0.00399
17.35 0.00663
17.4 0.00845
17.45 0.00632
17.5 0.00372
17.55 0.00323
17.6 0.00083
17.65 -0.00229
17.7 -0.00253
17.75 -0.00484
17.8 -0.00779
17.85 -0.00751
17.9 -0.00497
17.95 -0.00321
18 0.00001
18.05 0.00109
18.1 -0.00008
18.15 0.00136
18.2 0.00426
18.25 0.00745
18.3 0.01125
18.35 0.0145
18.4 0.01356
18.45 0.01289
18.5 0.01105
18.55 0.00677
18.6 0.0036
18.65 0.00029
18.7 -0.00342
18.75 -0.00694
18.8 -0.01082
18.85 -0.01478
18.9 -0.01443
18.95 -0.0148
19 -0.01298
19.05 -0.01257
19.1 -0.01353
19.15 -0.01245
19.2 -0.01191
19.25 -0.01293
19.3 -0.01038
19.35 -0.0102
19.4 -0.00926
19.45 -0.00614
19.5 -0.00312
19.55 -0.0003
19.6 0.0035
19.65 0.0042
19.7 0.0032
19.75 0.001
19.8 -0.00281
19.85 -0.00721
19.9 -0.01075
19.95 -0.01416
20 -0.01697
20.05 -0.01619
20.1 -0.016
20.15 -0.01684
20.2 -0.01485
20.25 -0.01392
20.3 -0.01304
20.35 -0.01058
20.4 -0.00879
20.45 -0.00899
20.5 -0.00824
20.55 -0.00915
20.6 -0.00947
20.65 -0.01033
20.7 -0.00997
20.75 -0.00841
20.8 -0.00552
20.85 -0.00393
20.9 -0.00093
20.95 0.00095
21 0.00006
21.05 -0.00256
21.1 -0.00249
21.15 -0.00099
21.2 0.00274
21.25 0.00667
21.3 0.00904
21.35 0.01032
21.4 0.00827
21.45 0.00571
21.5 0.00536
21.55 0.00279
21.6 -0.00077
21.65 -0.00411
21.7 -0.00721
21.75 -0.01022
21.8 -0.00982
21.85 -0.00851
21.9 -0.00515
21.95 -0.00232
22 -0.00137
22.05 -0.00289
22.1 -0.00223
22.15 -0.00334
22.2 -0.00277
22.25 -0.00293
22.3 -0.00037
22.35 0.00074
22.4 0.00154
22.45 0.00005
22.5 -0.00119
22.55 -0.00108
22.6 0.00015
22.65 0.00048
22.7 -0.00004
22.75 -0.00106
22.8 0.00094
22.85 0.0028
22.9 0.0038
22.95 0.0065
23 0.00646
23.05 0.00695
23.1 0.00519
23.15 0.00637
23.2 0.00688
23.25 0.00459
23.3 0.00361
23.35 0.0019
23.4 0.00228
23.45 0.00206
23.5 0.00032
23.55 -0.00231
23.6 -0.00519
23.65 -0.0082
23.7 -0.00897
23.75 -0.01085
23.8 -0.01223
23.85 -0.01009
23.9 -0.00778
23.95 -0.00575
24 -0.00444
24.05 -0.00107
24.1 0.00307
24.15 0.00788
24.2 0.01225
24.25 0.01521
24.3 0.01769
24.35 0.01881
24.4 0.01697
24.45 0.0126
24.5 0.00738
24.55 0.00341
24.6 0.00236
24.65 0.00119
24.7 0.00198
24.75 0.00067
24.8 -0.00098
24.85 -0.00093
24.9 0.0013
24.95 0.00521
25 0.00926
25.05 0.01103
25.1 0.00947
25.15 0.0083
25.2 0.00514
25.25 0.0009
25.3 -0.0026
25.35 -0.00279
25.4 -0.00455
25.45 -0.00643
25.5 -0.00764
25.55 -0.00862
25.6 -0.00817
25.65 -0.00715
25.7 -0.00485
25.75 -0.0043
25.8 -0.00519
25.85 -0.00604
25.9 -0.00484
25.95 -0.00543
26 -0.00371
26.05 -0.00399
26.1 -0.00202
26.15 -0.00195
26.2 -0.00193
26.25 -0.00302
26.3 -0.00345
26.35 -0.00539
26.4 -0.00454
26.45 -0.00237
26.5 0.00171
26.55 0.00335
26.6 0.00675
26.65 0.01046
26.7 0.01324
26.75 0.01561
26.8 0.01387
26.85 0.01355
26.9 0.01376
26.95 0.01194
27 0.00878
27.05 0.00645
27.1 0.00702
27.15 0.00481
27.2 0.00549
27.25 0.00326
27.3 0.0036
27.35 0.00347
27.4 0.00457
27.45 0.00584
27.5 0.00855
27.55 0.00801
27.6 0.00821
27.65 0.00981
27.7 0.01217
27.75 0.01076
27.8 0.00766
27.85 0.00714
27.9 0.00695
27.95 0.00728
28 0.00482
28.05 0.00337
28.1 0.00294
28.15 0.00182
28.2 -0.00108
28.25 -0.00212
28.3 -0.00288
28.35 -0.00508
28.4 -0.00696
28.45 -0.00967
28.5 -0.01466
28.55 -0.0175
28.6 -0.01902
28.65 -0.02401
28.7 -0.02695
28.75 -0.03148
28.8 -0.03599
28.85 -0.04289
28.9 -0.05029
28.95 -0.05709
29 -0.06782
29.05 -0.08229
29.1 -0.10085
29.15 -0.11973
29.2 -0.13817
29.25 -0.1579
29.3 -0.18254
29.35 -0.21104
29.4 -0.2425
29.45 -0.27681
29.5 -0.31758
29.55 -0.36111
29.6 -0.40957
29.65 -0.4627
29.7 -0.52118
29.75 -0.58558
29.8 -0.65532
29.85 -0.72608
29.9 -0.799
29.95 -0.87685
30 -0.95481
30.05 -1.03444
30.1 -1.11435
30.15 -1.19064
30.2 -1.26774
30.25 -1.34365
30.3 -1.41545
30.35 -1.48
30.4 -1.53625
30.45 -1.585
30.5 -1.62287
30.55 -1.6516
30.6 -1.66782
30.65 -1.67238
30.7 -1.6686
30.75 -1.65032
30.8 -1.62106
30.85 -1.57937
30.9 -1.52554
30.95 -1.45953
31 -1.38225
31.05 -1.29488
31.1 -1.1967
31.15 -1.09343
31.2 -0.98067
31.25 -0.8609
31.3 -0.74037
31.35 -0.6187
31.4 -0.49357
31.45 -0.36652
31.5 -0.24191
31.55 -0.12217
31.6 -0.00407
31.65 0.11157
31.7 0.21977
31.75 0.31905
31.8 0.41146
31.85 0.49685
31.9 0.57514
31.95 0.64931
32 0.71709
32.05 0.77777
32.1 0.83259
32.15 0.88442
32.2 0.93222
32.25 0.97746
32.3 1.01604
32.35 1.04783
32.4 1.07886
32.45 1.10659
32.5 1.13015
32.55 1.14967
32.6 1.16867
32.65 1.18319
32.7 1.19536
32.75 1.20575
32.8 1.21622
32.85 1.22292
32.9 1.22643
32.95 1.23045
33 1.23315
33.05 1.23646
33.1 1.24049
33.15 1.2427
33.2 1.24264
33.25 1.2401
33.3 1.23417
33.35 1.22605
33.4 1.21405
33.45 1.20233
33.5 1.19013
33.55 1.17455
33.6 1.15549
33.65 1.13574
33.7 1.11482
33.75 1.091
33.8 1.06858
33.85 1.04625
33.9 1.02266
33.95 0.9959
34 0.96788
34.05 0.93916
34.1 0.91035
34.15 0.88146
34.2 0.85236
34.25 0.82695
34.3 0.79944
34.35 0.77438
34.4 0.74808
34.45 0.72365
34.5 0.69854
34.55 0.67393
34.6 0.64858
34.65 0.62317
34.7 0.59503
34.75 0.56918
34.8 0.54221
34.85 0.51395
34.9 0.48871
34.95 0.46547
35 0.44188
35.05 0.41925
35.1 0.39749
35.15 0.37269
35.2 0.34694
35.25 0.3209
35.3 0.29489
35.35 0.26864
35.4 0.24312
35.45 0.22023
35.5 0.19762
35.55 0.17766
35.6 0.16111
35.65 0.14543
35.7 0.12899
35.75 0.11063
35.8 0.09394
35.85 0.07978
35.9 0.06726
35.95 0.0533
36 0.03919
36.05 0.02539
36.1 0.0099
36.15 -0.00487
36.2 -0.01797
36.25 -0.03294
36.3 -0.0465
36.35 -0.05841
36.4 -0.07162
36.45 -0.08484
36.5 -0.09477
36.55 -0.10312
36.6 -0.11143
36.65 -0.11817
36.7 -0.12424
36.75 -0.13095
36.8 -0.13919
36.85 -0.14692
36.9 -0.15183
36.95 -0.1555
37 -0.15891
37.05 -0.16376
37.1 -0.1691
37.15 -0.17208
37.2 -0.17783
37.25 -0.18502
37.3 -0.19218
37.35 -0.19867
37.4 -0.20346
37.45 -0.20421
37.5 -0.20362
37.55 -0.20298
37.6 -0.20162
37.65 -0.20169
37.7 -0.20174
37.75 -0.20032
37.8 -0.20139
37.85 -0.20361
37.9 -0.20359
37.95 -0.2039
38 -0.20525
38.05 -0.20755
38.1 -0.20761
38.15 -0.20417
38.2 -0.19911
38.25 -0.1969
38.3 -0.19586
38.35 -0.1964
38.4 -0.1984
38.45 -0.19864
38.5 -0.19536
38.55 -0.1929
38.6 -0.19073
38.65 -0.1862
38.7 -0.18441
38.75 -0.18239
38.8 -0.17898
38.85 -0.17647
38.9 -0.17179
38.95 -0.16654
39 -0.1628
39.05 -0.15979
39.1 -0.15737
39.15 -0.15484
39.2 -0.15277
39.25 -0.15098
39.3 -0.15072
39.35 -0.15216
39.4 -0.15167
39.45 -0.15181
39.5 -0.14982
39.55 -0.14649
39.6 -0.14379
39.65 -0.14282
39.7 -0.14188
39.75 -0.14255
39.8 -0.13997
39.85 -0.13876
39.9 -0.13722
39.95 -0.13638
40 -0.13462
40.05 -0.1339
40.1 -0.13108
40.15 -0.12646
40.2 -0.12432
40.25 -0.11954
40.3 -0.1168
40.35 -0.11408
40.4 -0.11177
40.45 -0.11038
40.5 -0.10899
40.55 -0.10891
40.6 -0.10904
40.65 -0.10822
40.7 -0.1049
40.75 -0.10315
40.8 -0.1025
40.85 -0.09896
40.9 -0.09752
40.95 -0.09822
41 -0.09694
41.05 -0.09707
41.1 -0.09704
41.15 -0.09814
41.2 -0.09872
41.25 -0.09992
41.3 -0.10002
41.35 -0.09968
41.4 -0.09733
41.45 -0.09505
41.5 -0.09133
41.55 -0.08907
41.6 -0.08833
41.65 -0.08596
41.7 -0.08507
41.75 -0.08204
41.8 -0.08104
41.85 -0.07888
41.9 -0.0783
41.95 -0.07755
42 -0.07412
42.05 -0.07219
42.1 -0.06873
42.15 -0.06381
42.2 -0.05837
42.25 -0.05598
42.3 -0.05539
42.35 -0.05374
42.4 -0.05311
42.45 -0.0527
42.5 -0.05188
42.55 -0.05363
42.6 -0.05206
42.65 -0.0532
42.7 -0.05171
42.75 -0.05011
42.8 -0.0494
42.85 -0.04822
42.9 -0.04515
42.95 -0.04164
43 -0.03893
43.05 -0.03828
43.1 -0.03651
43.15 -0.03401
43.2 -0.03343
43.25 -0.03411
43.3 -0.03449
43.35 -0.03708
43.4 -0.03901
43.45 -0.04006
43.5 -0.0404
43.55 -0.03806
43.6 -0.03841
43.65 -0.0405
43.7 -0.04153
43.75 -0.04103
43.8 -0.04062
43.85 -0.03901
43.9 -0.0359
43.95 -0.03171
44 -0.02924
44.05 -0.02714
44.1 -0.02747
44.15 -0.02918
44.2 -0.03149
44.25 -0.03403
44.3 -0.03322
44.35 -0.03409
44.4 -0.03604
44.45 -0.03517
44.5 -0.03601
44.55 -0.03599
44.6 -0.03306
44.65 -0.02869
44.7 -0.02759
44.75 -0.0287
44.8 -0.02944
44.85 -0.02694
44.9 -0.02306
44.95 -0.02131
45 -0.02134
45.05 -0.02185
45.1 -0.02471
45.15 -0.02653
45.2 -0.02651
45.25 -0.02671
45.3 -0.02464
45.35 -0.02178
45.4 -0.01791
45.45 -0.01513
45.5 -0.01205
45.55 -0.01294
45.6 -0.01541
45.65 -0.01604
45.7 -0.01647
45.75 -0.01575
45.8 -0.01674
45.85 -0.01825
45.9 -0.02018
45.95 -0.01965
46 -0.01845
46.05 -0.01909
46.1 -0.01772
46.15 -0.01675
46.2 -0.01406
46.25 -0.01424
46.3 -0.01624
46.35 -0.01973
46.4 -0.02306
46.45 -0.02661
46.5 -0.02831
46.55 -0.02817
46.6 -0.027
46.65 -0.02327
46.7 -0.01818
46.75 -0.01517
46.8 -0.01384
46.85 -0.01109
46.9 -0.00863
46.95 -0.00594
47 -0.00252
47.05 -0.00348
47.1 -0.004
47.15 -0.00626
47.2 -0.00782
47.25 -0.00858
47.3 -0.00775
47.35 -0.00685
47.4 -0.00594
47.45 -0.00678
47.5 -0.00808
47.55 -0.00666
47.6 -0.0063
47.65 -0.00862
47.7 -0.01132
47.75 -0.01245
47.8 -0.011
47.85 -0.01202
47.9 -0.01237
47.95 -0.01418
48 -0.01411
48.05 -0.01467
48.1 -0.01472
48.15 -0.01424
48.2 -0.01155
48.25 -0.00883
48.3 -0.0077
48.35 -0.00911
48.4 -0.0118
48.45 -0.01324
48.5 -0.014
48.55 -0.01642
48.6 -0.01556
48.65 -0.01546
48.7 -0.01608
48.75 -0.01512
48.8 -0.0136
48.85 -0.01171
48.9 -0.0078
48.95 -0.00758
49 -0.00613
49.05 -0.00623
49.1 -0.00519
49.15 -0.0041
49.2 -0.00336
49.25 -0.00287
49.3 -0.00257
49.35 -0.00127
49.4 -0.00197
49.45 -0.00492
49.5 -0.00912
49.55 -0.01289
49.6 -0.01656
49.65 -0.01677
49.7 -0.01566
49.75 -0.01415
49.8 -0.01266
49.85 -0.00853
49.9 -0.00361
49.95 -0.00186
50 -0.00125
50.05 -0.00239
50.1 -0.00387
50.15 -0.00226
50.2 -0.00294
50.25 -0.00337
50.3 -0.00556
50.35 -0.00814
50.4 -0.00828
50.45 -0.0074
50.5 -0.00731
50.55 -0.00583
50.6 -0.00648
50.65 -0.007
50.7 -0.00696
50.75 -0.00457
50.8 -0.00438
50.85 -0.00585
50.9 -0.0089
50.95 -0.01
51 -0.01255
51.05 -0.01571
51.1 -0.01723
51.15 -0.01517
51.2 -0.014
51.25 -0.01157
51.3 -0.00803
51.35 -0.00679
51.4 -0.00589
51.45 -0.00271
51.5 -0.00212
51.55 -0.00248
51.6 -0.00062
51.65 -0.00098
51.7 -0.00035
51.75 -0.00053
51.8 -0.00181
51.85 -0.00199
51.9 -0.00054
51.95 -0.00182
52 -0.00158
52.05 0.00034
52.1 0.00393
52.15 0.00508
52.2 0.00638
52.25 0.00845
52.3 0.00659
52.35 0.00677
52.4 0.00693
52.45 0.00703
52.5 0.00685
52.55 0.00606
52.6 0.00462
52.65 0.00563
52.7 0.00719
52.75 0.00956
52.8 0.00887
52.85 0.00791
52.9 0.00634
52.95 0.00628
53 0.00318
53.05 -0.00128
53.1 -0.0053
53.15 -0.00653
53.2 -0.00787
53.25 -0.00604
53.3 -0.00659
53.35 -0.00896
53.4 -0.01107
53.45 -0.01358
53.5 -0.01195
53.55 -0.0115
53.6 -0.00843
53.65 -0.00785
53.7 -0.00525
53.75 -0.00112
53.8 0.00258
53.85 0.00307
53.9 0.00417
53.95 0.006
54 0.00613
54.05 0.00725
54.1 0.00805
54.15 0.00944
54.2 0.00832
54.25 0.00738
54.3 0.00571
54.35 0.00452
54.4 0.0023
54.45 0.00183
54.5 0.00206
54.55 -0.00063
54.6 -0.00364
54.65 -0.00457
54.7 -0.00656
54.75 -0.00639
54.8 -0.00824
54.85 -0.01062
54.9 -0.00953
54.95 -0.00942
55 -0.00627
55.05 -0.00349
55.1 -0.00227
55.15 -0.00216
55.2 -0.00141
55.25 -0.00319
55.3 -0.00437
55.35 -0.00612
55.4 -0.00755
55.45 -0.00554
55.5 -0.00263
55.55 0.00155
55.6 0.00353
55.65 0.00691
55.7 0.00939
55.75 0.00955
55.8 0.01089
55.85 0.00922
55.9 0.00725
55.95 0.00426
56 0.0005
56.05 -0.00217
56.1 -0.00226
56.15 -0.00454
56.2 -0.0035
56.25 -0.0025
56.3 -0.00367
56.35 -0.00649
56.4 -0.00901
56.45 -0.00972
56.5 -0.00891
56.55 -0.00778
56.6 -0.00539
56.65 -0.00599
56.7 -0.00417
56.75 -0.00269
56.8 -0.00202
56.85 -0.00327
56.9 -0.00168
56.95 0.00193
57 0.00363
57.05 0.00466
57.1 0.00621
57.15 0.00721
57.2 0.0091
57.25 0.00837
57.3 0.009
57.35 0.01051
57.4 0.01241
57.45 0.0136
57.5 0.0151
57.55 0.01274
57.6 0.00925
57.65 0.00372
57.7 -0.00008
57.75 -0.00284
57.8 -0.00671
57.85 -0.00706
57.9 -0.00438
57.95 -0.00213
58 0.00136
58.05 0.00537
58.1 0.0086
58.15 0.00751
58.2 0.00579
58.25 0.0052
58.3 0.00383
58.35 -0.00005
58.4 -0.00263
58.45 -0.00556
58.5 -0.00501
58.55 -0.00329
58.6 -0.00304
58.65 -0.0039
58.7 -0.00681
58.75 -0.00764
58.8 -0.00583
58.85 -0.00433
58.9 -0.00563
58.95 -0.00723
59 -0.00694
59.05 -0.00724
59.1 -0.00868
59.15 -0.00918
59.2 -0.00742
59.25 -0.00453
59.3 -0.00276
59.35 -0.00029
59.4 0.00102
59.45 0.00236
59.5 0.00509
59.55 0.00412
59.6 0.00317
59.65 0.00242
59.7 -0.00033
59.75 -0.00326
59.8 -0.00636
59.85 -0.00861
59.9 -0.00753
59.95 -0.00504
60 -0.00194
60.05 -0.00138
60.1 -0.00284
60.15 -0.00434
60.2 -0.00653
60.25 -0.00638
60.3 -0.00554
60.35 -0.00404
60.4 -0.00137
60.45 -0.00166
60.5 -0.00008
60.55 0.00118
60.6 0.00299
60.65 0.00587
60.7 0.00686
60.75 0.0084
60.8 0.01004
60.85 0.00895
60.9 0.00971
60.95 0.00847
61 0.00687
61.05 0.00716
61.1 0.00559
61.15 0.00414
61.2 0.00317
61.25 0.0039
61.3 0.00445
61.35 0.00556
61.4 0.0067
61.45 0.00461
61.5 0.00189
61.55 0.00046
61.6 -0.00088
61.65 0.00001
61.7 0.00229
61.75 0.00449
61.8 0.005
61.85 0.00337
61.9 0.00352
61.95 0.00546
62 0.00487
62.05 0.00323
62.1 0.00056
62.15 -0.00087
62.2 -0.00065
62.25 -0.00279
62.3 -0.00191
62.35 0.00061
62.4 0.00174
62.45 0.00017
62.5 0.00009
62.55 0.00224
62.6 0.00197
62.65 0.00234
62.7 0.00377
62.75 0.00413
62.8 0.00611
62.85 0.00501
62.9 0.00335
62.95 0.00417
63 0.00268
63.05 -0.00003
63.1 -0.00243
63.15 -0.00497
63.2 -0.00398
63.25 -0.00491
63.3 -0.00298
63.35 -0.00159
63.4 -0.00132
63.45 0.00113
63.5 0.00203
63.55 0.00388
63.6 0.00376
63.65 0.00082
63.7 -0.0022
63.75 -0.00436
63.8 -0.00721
63.85 -0.00947
63.9 -0.01065
63.95 -0.01283
64 -0.01235
64.05 -0.01081
64.1 -0.01138
64.15 -0.01285
64.2 -0.01112
64.25 -0.00838
64.3 -0.00362
64.35 0.0011
64.4 0.00461
64.45 0.00402
64.5 0.00239
64.55 -0.00082
64.6 -0.00136
64.65 -0.00408
64.7 -0.0064
64.75 -0.00891
64.8 -0.01212
64.85 -0.01224
64.9 -0.00951
64.95 -0.00722
65 -0.00613
65.05 -0.00338
65.1 -0.003
65.15 -0.00291
65.2 -0.00131
65.25 0.00213
65.3 0.00614
65.35 0.00944
65.4 0.00813
65.45 0.00592
65.5 0.00251
65.55 0.00207
65.6 0.00049
65.65 0.00009
65.7 0.00053
65.75 0.00204
65.8 0.00497
65.85 0.00779
65.9 0.00991
65.95 0.00987
66 0.01019
66.05 0.00879
66.1 0.00537
66.15 0.00117
66.2 -0.00121
66.25 -0.00235
66.3 -0.00335
66.35 -0.00283
66.4 -0.00154
66.45 -0.00217
66.5 -0.00475
66.55 -0.00576
66.6 -0.00572
66.65 -0.00402
66.7 -0.00351
66.75 -0.00276
66.8 -0.00188
66.85 -0.00339
66.9 -0.00668
66.95 -0.00877
67 -0.00837
67.05 -0.00596
67.1 -0.00608
67.15 -0.00356
67.2 -0.00198
67.25 -0.00142
67.3 -0.00007
67.35 0.00035
67.4 0.00148
67.45 0.00087
67.5 -0.00073
67.55 -0.00094
67.6 0.00035
67.65 -0.00029
67.7 0.00042
67.75 -0.00023
67.8 -0.00032
67.85 -0.00185
67.9 -0.00086
67.95 0.00039
68 -0.00077
68.05 -0.00019
68.1 0.00107
68.15 0.00375
68.2 0.00281
68.25 0.00213
68.3 0
68.35 -0.00191
68.4 -0.00558
68.45 -0.00617
68.5 -0.0075
68.55 -0.00751
68.6 -0.00612
68.65 -0.00705
68.7 -0.00549
68.75 -0.00192
68.8 -0
68.85 0.00147
68.9 0.00465
68.95 0.0058
69 0.00722
69.05 0.00905
69.1 0.00925
69.15 0.00916
69.2 0.00588
69.25 0.00384
69.3 0.00367
69.35 0.00142
69.4 -0.00116
69.45 -0.00029
69.5 0.00066
69.55 0.00356
69.6 0.0042
69.65 0.00511
69.7 0.00462
69.75 0.00335
69.8 -0.00041
69.85 -0.00321
69.9 -0.00276
69.95 -0.00181
70 -0.0003
70.05 -0.00093
70.1 -0.0019
70.15 -0.00107
70.2 -0.0005
70.25 -0.00023
70.3 0.00042
70.35 -0.00098
70.4 -0.0026
70.45 -0.00461
70.5 -0.00542
70.55 -0.00631
70.6 -0.00599
70.65 -0.00774
70.7 -0.00594
70.75 -0.00277
70.8 -0.00089
70.85 0.00104
70.9 0.00219
70.95 0.00038
71 -0.0021
71.05 -0.0037
71.1 -0.00393
71.15 -0.00143
71.2 -0.00045
71.25 -0.00129
71.3 -0.00171
71.35 -0.00401
71.4 -0.00347
71.45 -0.00361
71.5 -0.00415
71.55 -0.00395
71.6 -0.00183
71.65 -0.0016
71.7 -0.00102
71.75 -0.00031
71.8 -0.00212
71.85 -0.00115
71.9 -0.00246
71.95 -0.00534
72 -0.00574
72.05 -0.00685
72.1 -0.00779
72.15 -0.00546
72.2 -0.00519
72.25 -0.00589
72.3 -0.00823
72.35 -0.01102
72.4 -0.01177
72.45 -0.00928
72.5 -0.00491
72.55 0.00002
72.6 0.00088
72.65 0.00269
72.7 0.00317
72.75 0.00152
72.8 -0.00094
72.85 -0.00469
72.9 -0.00717
72.95 -0.00894
73 -0.00946
73.05 -0.01028
73.1 -0.00909
73.15 -0.00565
73.2 -0.00526
73.25 -0.00509
73.3 -0.00612
73.35 -0.00379
73.4 -0.00339
73.45 -0.00024
73.5 0.00117
73.55 0.00454
73.6 0.00562
73.65 0.00798
73.7 0.00791
73.75 0.00965
73.8 0.01104
73.85 0.01032
73.9 0.00871
73.95 0.00878
74 0.00838
74.05 0.00985
74.1 0.01061
74.15 0.009
74.2 0.00555
74.25 0.00407
74.3 0.00376
74.35 0.00072
74.4 0.00107
74.45 0.00012
74.5 -0.00277
74.55 -0.00387
74.6 -0.00355
74.65 -0.00293
74.7 -0.00227
74.75 -0.00294
74.8 -0.00073
74.85 0.00254
74.9 0.00423
74.95 0.00529
75 0.0042
75.05 0.00299
75.1 0.00051
75.15 -0.0017
75.2 -0.003
75.25 -0.00566
75.3 -0.00678
75.35 -0.00685
75.4 -0.00528
75.45 -0.00576
75.5 -0.00521
75.55 -0.00509
75.6 -0.00622
75.65 -0.00626
75.7 -0.00717
75.75 -0.00672
75.8 -0.00387
75.85 -0.00091
75.9 0.00058
75.95 0.00196
76 0.00476
76.05 0.00731
76.1 0.00624
76.15 0.00413
76.2 0.00393
76.25 0.00177
76.3 -0.00165
76.35 -0.00342
76.4 -0.00357
76.45 -0.00387
76.5 -0.00494
76.55 -0.00396
76.6 -0.00336
76.65 -0.00468
76.7 -0.00271
76.75 -0.0027
76.8 -0.00219
76.85 0.00017
76.9 0.00335
76.95 0.00563
77 0.0063
77.05 0.00691
77.1 0.00893
77.15 0.00984
77.2 0.00739
77.25 0.00384
77.3 -0.00002
77.35 -0.00336
77.4 -0.00602
77.45 -0.00521
77.5 -0.00245
77.55 -0.00024
77.6 -0.00001
77.65 -0.00168
77.7 -0.0014
77.75 0.00124
77.8 0.00465
77.85 0.0066
77.9 0.00557
77.95 0.00692
78 0.00775
78.05 0.00897
78.1 0.01046
78.15 0.01291
78.2 0.0141
78.25 0.01158
78.3 0.00702
78.35 0.00288
78.4 -0.00152
78.45 -0.00457
78.5 -0.00626
78.55 -0.00536
78.6 -0.00507
78.65 -0.00218
78.7 0.00074
78.75 0.00447
78.8 0.00852
78.85 0.00879
78.9 0.01044
78.95 0.01012
79 0.01134
79.05 0.01332
79.1 0.01223
79.15 0.00978
79.2 0.00936
79.25 0.00604
79.3 0.00224
79.35 -0.00056
79.4 -0.00197
79.45 -0.00076
79.5 -0.00231
79.55 -0.00204
79.6 -0.00046
79.65 0.00226
79.7 0.00109
79.75 0.00111
79.8 0.00119
79.85 0.00266
79.9 0.0035
79.95 0.00513
80 0.0032
80.05 0.00235
80.1 0.00021
80.15 -0.00203
80.2 -0.00538
80.25 -0.00875
80.3 -0.00937
80.35 -0.00926
80.4 -0.00745
80.45 -0.00492
80.5 -0.00532
80.55 -0.00514
80.6 -0.00643
80.65 -0.00544
80.7 -0.00419
80.75 -0.00122
80.8 0.00044
80.85 0.00283
80.9 0.00552
80.95 0.00411
81 0.00522
81.05 0.00287
81.1 0.00153
81.15 0.00174
81.2 -0.00038
81.25 0.0004
81.3 0.00283
81.35 0.00235
81.4 0.00309
81.45 0.00421
81.5 0.00626
81.55 0.00621
81.6 0.00299
81.65 0.00031
81.7 -0.00093
81.75 -0.00219
81.8 -0.00306
81.85 -0.00285
81.9 -0.00241
81.95 -0.0018
82 -0.00283
82.05 -0.00188
82.1 0.0003
82.15 0.00173
82.2 0.00054
82.25 -0.00166
82.3 -0.00505
82.35 -0.00503
82.4 -0.00472
82.45 -0.00513
82.5 -0.00357
82.55 -0.00215
82.6 0.001
82.65 0.00433
82.7 0.00646
82.75 0.00842
82.8 0.01037
82.85 0.0084
82.9 0.00555
82.95 0.00405
83 0.00201
83.05 -0.00068
83.1 -0.00046
83.15 -0.00141
83.2 -0.00211
83.25 -0.0018
83.3 -0.00276
83.35 -0.00321
83.4 -0.00225
83.45 -0.00308
83.5 -0.00562
83.55 -0.00865
83.6 -0.00916
83.65 -0.00744
83.7 -0.00663
83.75 -0.00567
83.8 -0.00665
83.85 -0.0093
83.9 -0.01177
83.95 -0.01404
84 -0.0157
84.05 -0.01768
84.1 -0.01715
84.15 -0.0162
84.2 -0.01543
84.25 -0.01287
84.3 -0.01241
84.35 -0.01091
84.4 -0.00814
84.45 -0.00329
84.5 0.00206
84.55 0.00284
84.6 0.00469
84.65 0.00692
84.7 0.00879
84.75 0.01125
84.8 0.0116
84.85 0.00868
84.9 0.00811
84.95 0.00639
85 0.00352
85.05 0.00032
85.1 -0.00422
85.15 -0.00425
85.2 -0.00241
85.25 -0.00218
85.3 -0.00331
85.35 -0.00314
85.4 -0.00202
85.45 -0.00146
85.5 -0.00145
85.55 0.0008
85.6 0.00071
85.65 -0.00013
85.7 -0.00095
85.75 -0.00341
85.8 -0.00265
85.85 -0.00134
85.9 -0.00122
85.95 -0.00104
86 0.00009
86.05 0.00274
86.1 0.00664
86.15 0.00659
86.2 0.0069
86.25 0.00676
86.3 0.00608
86.35 0.00331
86.4 0.00268
86.45 0.00361
86.5 0.00199
86.55 0.00255
86.6 0.00208
86.65 0.00176
86.7 0.00282
86.75 0.00394
86.8 0.00215
86.85 -0.0017
86.9 -0.00562
86.95 -0.00717
87 -0.00845
87.05 -0.00635
87.1 -0.00572
87.15 -0.00293
87.2 -0.00138
87.25 -0.00061
87.3 -0.00024
87.35 0.00106
87.4 0.00088
87.45 -0.00149
87.5 -0.00138
87.55 -0.00108
87.6 0.00132
87.65 0.00497
87.7 0.00692
87.75 0.00557
87.8 0.00301
87.85 -0.00048
87.9 -0.00431
87.95 -0.00845
88 -0.01234
88.05 -0.01207
88.1 -0.00881
88.15 -0.00687
88.2 -0.00526
88.25 -0.00513
88.3 -0.00292
88.35 -0.00379
88.4 -0.00538
88.45 -0.00524
88.5 -0.00519
88.55 -0.00594
88.6 -0.00489
88.65 -0.00366
88.7 -0.00334
88.75 -0.00344
88.8 -0.00292
88.85 -0.00134
88.9 -0.00116
88.95 -0.00287
89 -0.00459
89.05 -0.005
89.1 -0.00464
89.15 -0.00176
89.2 0.00103
89.25 0.00345
89.3 0.00441
89.35 0.00448
89.4 0.0062
89.45 0.00713
89.5 0.00868
89.55 0.00672
89.6 0.00571
89.65 0.00593
89.7 0.00753
89.75 0.00592
89.8 0.00266
89.85 0.00125
89.9 0.0023
89.95 0.00469
90 0.00772
90.05 0.01067
90.1 0.01196
90.15 0.01061
90.2 0.00777
90.25 0.0053
90.3 0.00265
90.35 -0.00131
90.4 -0.00333
90.45 -0.00205
90.5 -0.0022
90.55 -0.00269
90.6 -0.00105
90.65 0.00136
90.7 0.00202
90.75 0.00357
90.8 0.00494
90.85 0.0051
90.9 0.00541
90.95 0.00437
91 0.00439
91.05 0.00246
91.1 0.00057
91.15 -0.00225
91.2 -0.00473
91.25 -0.00401
91.3 -0.00488
91.35 -0.00666
91.4 -0.00944
91.45 -0.00853
91.5 -0.00592
91.55 -0.00136
91.6 0.00229
91.65 0.00565
91.7 0.00793
91.75 0.00798
91.8 0.00567
91.85 0.00419
91.9 0.00466
91.95 0.00442
92 0.00436
92.05 0.00324
92.1 0.0041
92.15 0.00309
92.2 0.0015
92.25 -0.00192
92.3 -0.00532
92.35 -0.00748
92.4 -0.00626
92.45 -0.00727
92.5 -0.00842
92.55 -0.00811
92.6 -0.00564
92.65 -0.00584
92.7 -0.00644
92.75 -0.00615
92.8 -0.00609
92.85 -0.00506
92.9 -0.00398
92.95 -0.00366
93 -0.00256
93.05 -0.00099
93.1 -0.00174
93.15 -0.00426
93.2 -0.00646
93.25 -0.00692
93.3 -0.00637
93.35 -0.00529
93.4 -0.00416
93.45 -0.00469
93.5 -0.00396
93.55 -0.0053
93.6 -0.00405
93.65 -0.0045
93.7 -0.00552
93.75 -0.0048
93.8 -0.00517
93.85 -0.00254
93.9 0.00035
93.95 0.00166
94 0.00198
94.05 0.00159
94.1 -0.00035
94.15 -0.00261
94.2 -0.00427
94.25 -0.00576
94.3 -0.00768
94.35 -0.0063
94.4 -0.00324
94.45 0.0007
94.5 0.00197
94.55 0.00215
94.6 0.00466
94.65 0.00653
94.7 0.00875
94.75 0.00871
94.8 0.00733
94.85 0.00537
94.9 0.00296
94.95 0.00204
95 0.00067
95.05 0.00118
95.1 0.00353
95.15 0.00376
95.2 0.0053
95.25 0.00813
95.3 0.00791
95.35 0.00731
95.4 0.00565
95.45 0.00635
95.5 0.00663
95.55 0.00497
95.6 0.00246
95.65 -0.00065
95.7 -0.00311
95.75 -0.0057
95.8 -0.00791
95.85 -0.00832
95.9 -0.00605
95.95 -0.00541
96 -0.00466
96.05 -0.00183
96.1 -0.00186
96.15 -0.00158
96.2 -0.0008
96.25 0.00187
96.3 0.00089
96.35 -0.00158
96.4 -0.00203
96.45 -0.00285
96.5 -0.00331
96.55 -0.00416
96.6 -0.00639
96.65 -0.00531
96.7 -0.0038
96.75 -0.0025
96.8 -0.00256
96.85 -0.0047
96.9 -0.00657
96.95 -0.00899
97 -0.01084
97.05 -0.01054
97.1 -0.01068
97.15 -0.0119
97.2 -0.01301
97.25 -0.01016
97.3 -0.00811
97.35 -0.00642
97.4 -0.00295
97.45 -0.00183
97.5 -0.00297
97.55 -0.00293
97.6 -0.00391
97.65 -0.00357
97.7 -0.00136
97.75 -0.00055
97.8 0.00064
97.85 0.00267
97.9 0.00241
97.95 0.00414
98 0.00552
98.05 0.00366
98.1 0.0013
98.15 0.00205
98.2 0.00246
98.25 0.00515
98.3 0.00665
98.35 0.00499
98.4 0.00391
98.45 0.00175
98.5 -0.00151
98.55 -0.00421
98.6 -0.00684
98.65 -0.00537
98.7 -0.0028
98.75 0.00117
98.8 0.00586
98.85 0.00818
98.9 0.01114
98.95 0.01191
99 0.01284
99.05 0.01052
99.1 0.00876
99.15 0.0064
99.2 0.00326
99.25 0.00094
99.3 -0.00288
99.35 -0.00442
99.4 -0.00379
99.45 -0.00386
99.5 -0.00155
99.55 -0.00173
99.6 -0.00416
99.65 -0.00284
99.7 -0.00412
99.75 -0.00222
99.8 -0.00043
99.85 0.00259
99.9 0.00429
99.95 0.00256
