0 0
0.05 0.00008
0.1 0.00762
0.15 0.01582
0.2 0.02108
0.25 0.02439
0.3 0.02613
0.35 0.02617
0.4 0.026
0.45 0.03131
0.5 0.03732
0.55 0.03826
0.6 0.03867
0.65 0.03773
0.7 0.03846
0.75 0.03814
0.8 0.03959
0.85 0.03849
0.9 0.03987
0.95 0.04175
1 0.04066
1.05 0.04219
1.1 0.04503
1.15 0.04414
1.2 0.04727
1.25 0.04572
1.3 0.04555
1.35 0.04544
1.4 0.04689
1.45 0.04921
1.5 0.04677
1.55 0.0404
1.6 0.03858
1.65 0.03361
1.7 0.02838
1.75 0.02426
1.8 0.0227
1.85 0.02052
1.9 0.01855
1.95 0.01892
2 0.02246
2.05 0.02898
2.1 0.03185
2.15 0.03493
2.2 0.03921
2.25 0.04324
2.3 0.0451
2.35 0.04323
2.4 0.04183
2.45 0.0394
2.5 0.03296
2.55 0.02523
2.6 0.0183
2.65 0.01433
2.7 0.01636
2.75 0.01861
2.8 0.01773
2.85 0.01886
2.9 0.01728
2.95 0.01872
3 0.01912
3.05 0.01913
3.1 0.02152
3.15 0.0257
3.2 0.02488
3.25 0.02283
3.3 0.02479
3.35 0.02728
3.4 0.02975
3.45 0.0338
3.5 0.03616
3.55 0.03315
3.6 0.02829
3.65 0.02571
3.7 0.02621
3.75 0.02474
3.8 0.02608
3.85 0.02701
3.9 0.02776
3.95 0.02945
4 0.02994
4.05 0.02804
4.1 0.02724
4.15 0.02151
4.2 0.01892
4.25 0.01492
4.3 0.01203
4.35 0.00935
4.4 0.0065
4.45 0.00376
4.5 0.0004
4.55 -0.00217
4.6 -0.0075
4.65 -0.00953
4.7 -0.01449
4.75 -0.01849
4.8 -0.02676
4.85 -0.03481
4.9 -0.04625
4.95 -0.0555
5 -0.06573
5.05 -0.07731
5.1 -0.08296
5.15 -0.09061
5.2 -0.10024
5.25 -0.10365
5.3 -0.10326
5.35 -0.10749
5.4 -0.10736
5.45 -0.11145
5.5 -0.11264
5.55 -0.11148
5.6 -0.10952
5.65 -0.10927
5.7 -0.10863
5.75 -0.1032
5.8 -0.08851
5.85 -0.07401
5.9 -0.05652
5.95 -0.04025
6 -0.01913
6.05 0.00058
6.1 0.02163
6.15 0.03935
6.2 0.05591
6.25 0.06554
6.3 0.0699
6.35 0.06979
6.4 0.06847
6.45 0.06422
6.5 0.05946
6.55 0.04766
6.6 0.03377
6.65 0.01523
6.7 -0.00156
6.75 -0.01395
6.8 -0.02689
6.85 -0.03951
6.9 -0.04892
6.95 -0.05912
7 -0.06634
7.05 -0.07191
7.1 -0.0715
7.15 -0.06806
7.2 -0.06353
7.25 -0.0554
7.3 -0.04806
7.35 -0.03819
7.4 -0.02685
7.45 -0.01009
7.5 0.00544
7.55 0.02097
7.6 0.03274
7.65 0.04179
7.7 0.05155
7.75 0.06686
7.8 0.0776
7.85 0.09168
7.9 0.10113
7.95 0.11023
8 0.12164
8.05 0.1303
8.1 0.134
8.15 0.13635
8.2 0.13507
8.25 0.13695
8.3 0.13543
8.35 0.13398
8.4 0.13447
8.45 0.13853
8.5 0.1429
8.55 0.1427
8.6 0.1438
8.65 0.14637
8.7 0.14433
8.75 0.14254
8.8 0.14086
8.85 0.13421
8.9 0.12244
8.95 0.10957
9 0.09784
9.05 0.08991
9.1 0.08064
9.15 0.07167
9.2 0.06315
9.25 0.05954
9.3 0.05587
9.35 0.05528
9.4 0.05614
9.45 0.05534
9.5 0.05516
9.55 0.05023
9.6 0.04815
9.65 0.04343
9.7 0.03941
9.75 0.03604
9.8 0.03409
9.85 0.0294
9.9 0.0208
9.95 0.01757
10 0.01634
10.05 0.01112
10.1 0.00287
10.15 -0.0025
10.2 -0.00619
10.25 -0.00781
10.3 -0.00787
10.35 -0.00576
10.4 -0.0043
10.45 -0.00268
10.5 -0.00268
10.55 -0.003
10.6 -0.0053
10.65 -0.00807
10.7 -0.00735
10.75 -0.00735
10.8 -0.00945
10.85 -0.01294
10.9 -0.01666
10.95 -0.01689
11 -0.02114
11.05 -0.02198
11.1 -0.02669
11.15 -0.03086
11.2 -0.03117
11.25 -0.03426
11.3 -0.03574
11.35 -0.03762
11.4 -0.03994
11.45 -0.04148
11.5 -0.03868
11.55 -0.03322
11.6 -0.0278
11.65 -0.02185
11.7 -0.01637
11.75 -0.01136
11.8 -0.01041
11.85 -0.01209
11.9 -0.0155
11.95 -0.01515
12 -0.01418
12.05 -0.0121
12.1 -0.01073
12.15 -0.0135
12.2 -0.01897
12.25 -0.02072
12.3 -0.02166
12.35 -0.02036
12.4 -0.01635
12.45 -0.01339
12.5 -0.01428
12.55 -0.01358
12.6 -0.01378
12.65 -0.01782
12.7 -0.02282
12.75 -0.0215
12.8 -0.01783
12.85 -0.01707
12.9 -0.01281
12.95 -0.0066
13 -0.00669
13.05 -0.01066
13.1 -0.01079
13.15 -0.01189
13.2 -0.01144
13.25 -0.01121
13.3 -0.01343
13.35 -0.01082
13.4 -0.01055
13.45 -0.00612
13.5 -0.0067
13.55 -0.00438
13.6 -0.00526
13.65 -0.01003
13.7 -0.01525
13.75 -0.01599
13.8 -0.01502
13.85 -0.01429
13.9 -0.00926
13.95 -0.00693
14 -0.00405
14.05 -0.00273
14.1 -0.00242
14.15 -0.00301
14.2 -0.00406
14.25 -0.00893
14.3 -0.01434
14.35 -0.01342
14.4 -0.00867
14.45 -0.00805
14.5 -0.00566
14.55 -0.00233
14.6 0.00006
14.65 0.00189
14.7 0.00063
14.75 0.00272
14.8 0.00055
14.85 0.00018
14.9 0.00207
14.95 0.00365
15 0.00549
15.05 0.0071
15.1 0.00712
15.15 0.00604
15.2 0.00524
15.25 0.00169
15.3 -0.00362
15.35 -0.00977
15.4 -0.01247
15.45 -0.01275
15.5 -0.01407
15.55 -0.0131
15.6 -0.00777
15.65 -0.00639
15.7 -0.00635
15.75 -0.00583
15.8 -0.00449
15.85 -0.00258
15.9 -0.00418
15.95 -0.00137
16 0.00276
16.05 0.00498
16.1 0.00311
16.15 -0.00196
16.2 -0.00935
16.25 -0.01181
16.3 -0.00951
16.35 -0.01074
16.4 -0.01263
16.45 -0.00899
16.5 -0.00838
16.55 -0.00854
16.6 -0.00573
16.65 -0.00085
16.7 0.00601
16.75 0.00785
16.8 0.01167
16.85 0.01663
16.9 0.01734
16.95 0.01398
17 0.00707
17.05 0.00013
17.1 -0.00623
17.15 -0.00809
17.2 -0.00482
17.25 -0.00648
17.3 -0.00756
17.35 -0.00479
17.4 -0.00143
17.45 0.00382
17.5 0.00488
17.55 0.00839
17.6 0.0098
17.65 0.01234
17.7 0.01024
17.75 0.00813
17.8 0.00234
17.85 -0.00324
17.9 -0.00556
17.95 -0.00871
18 -0.01029
18.05 -0.01234
18.1 -0.01258
18.15 -0.01465
18.2 -0.0165
18.25 -0.01943
18.3 -0.01591
18.35 -0.01002
18.4 -0.0076
18.45 -0.00208
18.5 0.00157
18.55 0.00059
18.6 -0.00134
18.65 0.00032
18.7 0.00169
18.75 -0.00184
18.8 -0.0044
18.85 -0.00329
18.9 -0.00401
18.95 -0.00209
19 0.00046
19.05 -0.0004
19.1 -0.00268
19.15 -0.00007
19.2 0.0055
19.25 0.00819
19.3 0.00935
19.35 0.01055
19.4 0.01003
19.45 0.01267
19.5 0.01162
19.55 0.00943
19.6 0.00924
19.65 0.00409
19.7 -0.00173
19.75 -0.00378
19.8 -0.00239
19.85 -0.00439
19.9 -0.00167
19.95 -0.00171
20 -0.00332
20.05 -0.00316
20.1 -0.00697
20.15 -0.01116
20.2 -0.01504
20.25 -0.01268
20.3 -0.01339
20.35 -0.01168
20.4 -0.01023
20.45 -0.0046
20.5 -0.00238
20.55 0.00301
20.6 0.00879
20.65 0.01487
20.7 0.01467
20.75 0.01482
20.8 0.01325
20.85 0.0131
20.9 0.0111
20.95 0.00966
21 0.01067
21.05 0.01121
21.1 0.01302
21.15 0.00883
21.2 0.00877
21.25 0.00715
21.3 0.0084
21.35 0.00492
21.4 0.00127
21.45 -0.00123
21.5 -0.0013
21.55 -0.0012
21.6 -0.00048
21.65 -0.00376
21.7 -0.00629
21.75 -0.01096
21.8 -0.01065
21.85 -0.01321
21.9 -0.01214
21.95 -0.00764
22 -0.00678
22.05 -0.00443
22.1 -0.00145
22.15 0.00431
22.2 0.00462
22.25 0.00669
22.3 0.00403
22.35 0.00228
22.4 -0.00059
22.45 -0.00376
22.5 -0.00548
22.55 -0.00504
22.6 -0.00821
22.65 -0.00781
22.7 -0.01123
22.75 -0.01342
22.8 -0.01571
22.85 -0.01568
22.9 -0.01497
22.95 -0.01041
23 -0.00403
23.05 -0.0007
23.1 0.00445
23.15 0.01039
23.2 0.01608
23.25 0.02069
23.3 0.0242
23.35 0.02569
23.4 0.02024
23.45 0.01321
23.5 0.00412
23.55 -0.00362
23.6 -0.00848
23.65 -0.01532
23.7 -0.01668
23.75 -0.0159
23.8 -0.01059
23.85 -0.00696
23.9 -0.00254
23.95 0.00127
24 0.00005
24.05 0.0031
24.1 0.00807
24.15 0.00653
24.2 0.00482
24.25 0.00383
24.3 0.00428
24.35 0.00096
24.4 -0.00277
24.45 -0.0015
24.5 -0.00092
24.55 0.00309
24.6 0.00592
24.65 0.0107
24.7 0.01528
24.75 0.01721
24.8 0.01795
24.85 0.01347
24.9 0.00781
24.95 0.00575
25 0.00661
25.05 0.00221
25.1 0.00058
25.15 0.00127
25.2 0.0048
25.25 0.00703
25.3 0.00774
25.35 0.00746
25.4 0.00684
25.45 0.00316
25.5 -0.00093
25.55 -0.00411
25.6 -0.00499
25.65 -0.0077
25.7 -0.00916
25.75 -0.01289
25.8 -0.01176
25.85 -0.00763
25.9 -0.00142
25.95 -0.0012
26 -0.00539
26.05 -0.01148
26.1 -0.01727
26.15 -0.02119
26.2 -0.0218
26.25 -0.02169
26.3 -0.01829
26.35 -0.01612
26.4 -0.01495
26.45 -0.01122
26.5 -0.00814
26.55 -0.00231
26.6 0.00273
26.65 0.00379
26.7 0.00397
26.75 0.00595
26.8 0.00852
26.85 0.0098
26.9 0.00981
26.95 0.01182
27 0.01386
27.05 0.01665
27.1 0.01286
27.15 0.00842
27.2 0.00673
27.25 0.007
27.3 0.00622
27.35 0.00536
27.4 0.00637
27.45 0.00321
27.5 -0.00245
27.55 -0.00449
27.6 -0.00549
27.65 -0.00772
27.7 -0.01039
27.75 -0.01638
27.8 -0.02465
27.85 -0.03212
27.9 -0.04106
27.95 -0.05615
28 -0.07659
28.05 -0.09866
28.1 -0.12474
28.15 -0.15498
28.2 -0.18381
28.25 -0.21566
28.3 -0.25158
28.35 -0.29134
28.4 -0.33021
28.45 -0.3724
28.5 -0.41766
28.55 -0.4653
28.6 -0.51805
28.65 -0.58161
28.7 -0.65441
28.75 -0.73543
28.8 -0.82298
28.85 -0.90863
28.9 -0.99607
28.95 -1.08718
29 -1.17797
29.05 -1.2762
29.1 -1.37798
29.15 -1.48192
29.2 -1.58092
29.25 -1.67648
29.3 -1.77037
29.35 -1.85863
29.4 -1.9406
29.45 -2.01842
29.5 -2.08467
29.55 -2.14132
29.6 -2.18854
29.65 -2.22962
29.7 -2.26292
29.75 -2.2863
29.8 -2.29401
29.85 -2.2843
29.9 -2.26201
29.95 -2.2292
30 -2.18152
30.05 -2.11685
30.1 -2.03945
30.15 -1.94823
30.2 -1.85091
30.25 -1.74754
30.3 -1.6325
30.35 -1.5079
30.4 -1.37616
30.45 -1.23769
30.5 -1.09411
30.55 -0.94928
30.6 -0.79932
30.65 -0.64685
30.7 -0.49847
30.75 -0.34957
30.8 -0.20118
30.85 -0.05444
30.9 0.08825
30.95 0.2266
31 0.365
31.05 0.49601
31.1 0.6226
31.15 0.74783
31.2 0.86458
31.25 0.97365
31.3 1.07777
31.35 1.17158
31.4 1.26374
31.45 1.34713
31.5 1.4242
31.55 1.49766
31.6 1.56557
31.65 1.62464
31.7 1.67563
31.75 1.71502
31.8 1.75252
31.85 1.78054
31.9 1.80085
31.95 1.82088
32 1.84014
32.05 1.85703
32.1 1.86782
32.15 1.87224
32.2 1.8728
32.25 1.87002
32.3 1.86835
32.35 1.86366
32.4 1.85923
32.45 1.85437
32.5 1.84661
32.55 1.83855
32.6 1.8273
32.65 1.81515
32.7 1.80169
32.75 1.78527
32.8 1.76846
32.85 1.74945
32.9 1.73327
32.95 1.71452
33 1.69466
33.05 1.67246
33.1 1.65079
33.15 1.63051
33.2 1.60688
33.25 1.58137
33.3 1.55176
33.35 1.51532
33.4 1.47864
33.45 1.43802
33.5 1.40201
33.55 1.36238
33.6 1.31897
33.65 1.27446
33.7 1.22953
33.75 1.18791
33.8 1.14813
33.85 1.10932
33.9 1.07234
33.95 1.02904
34 0.98072
34.05 0.93732
34.1 0.89335
34.15 0.85031
34.2 0.8026
34.25 0.75622
34.3 0.70869
34.35 0.66666
34.4 0.62122
34.45 0.57972
34.5 0.53637
34.55 0.49844
34.6 0.45786
34.65 0.41828
34.7 0.3791
34.75 0.34198
34.8 0.30389
34.85 0.271
34.9 0.23994
34.95 0.21221
35 0.18602
35.05 0.16284
35.1 0.13561
35.15 0.10515
35.2 0.07743
35.25 0.05115
35.3 0.02798
35.35 0.00369
35.4 -0.01669
35.45 -0.03926
35.5 -0.06523
35.55 -0.0924
35.6 -0.11906
35.65 -0.14351
35.7 -0.15998
35.75 -0.17471
35.8 -0.18696
35.85 -0.20227
35.9 -0.21488
35.95 -0.2291
36 -0.24262
36.05 -0.24932
36.1 -0.25851
36.15 -0.26645
36.2 -0.27162
36.25 -0.2781
36.3 -0.28469
36.35 -0.2885
36.4 -0.2917
36.45 -0.29793
36.5 -0.30175
36.55 -0.30127
36.6 -0.30463
36.65 -0.31176
36.7 -0.31604
36.75 -0.3197
36.8 -0.32032
36.85 -0.32506
36.9 -0.3312
36.95 -0.33791
37 -0.34385
37.05 -0.34353
37.1 -0.34283
37.15 -0.34021
37.2 -0.33856
37.25 -0.33575
37.3 -0.33246
37.35 -0.3253
37.4 -0.32038
37.45 -0.31959
37.5 -0.31697
37.55 -0.31117
37.6 -0.30612
37.65 -0.30064
37.7 -0.29472
37.75 -0.29354
37.8 -0.28838
37.85 -0.28385
37.9 -0.28246
37.95 -0.27932
38 -0.28005
38.05 -0.28046
38.1 -0.28098
38.15 -0.27961
38.2 -0.27469
38.25 -0.27008
38.3 -0.26159
38.35 -0.25807
38.4 -0.2581
38.45 -0.25265
38.5 -0.25166
38.55 -0.24886
38.6 -0.24608
38.65 -0.24048
38.7 -0.23481
38.75 -0.22944
38.8 -0.2277
38.85 -0.22377
38.9 -0.22113
38.95 -0.21861
39 -0.21754
39.05 -0.21265
39.1 -0.21141
39.15 -0.21043
39.2 -0.20858
39.25 -0.20829
39.3 -0.20322
39.35 -0.19834
39.4 -0.19318
39.45 -0.18586
39.5 -0.17638
39.55 -0.16937
39.6 -0.1667
39.65 -0.16833
39.7 -0.16602
39.75 -0.16179
39.8 -0.16038
39.85 -0.15694
39.9 -0.15513
39.95 -0.15213
40 -0.14881
40.05 -0.14813
40.1 -0.14557
40.15 -0.14703
40.2 -0.14754
40.25 -0.14469
40.3 -0.14297
40.35 -0.14289
40.4 -0.13869
40.45 -0.13212
40.5 -0.12955
40.55 -0.12632
40.6 -0.12621
40.65 -0.12473
40.7 -0.12275
40.75 -0.11755
40.8 -0.1121
40.85 -0.10985
40.9 -0.10494
40.95 -0.10068
41 -0.09862
41.05 -0.1001
41.1 -0.10356
41.15 -0.10399
41.2 -0.10842
41.25 -0.11276
41.3 -0.11488
41.35 -0.11872
41.4 -0.12007
41.45 -0.11849
41.5 -0.1189
41.55 -0.11805
41.6 -0.11769
41.65 -0.11486
41.7 -0.11259
41.75 -0.10688
41.8 -0.09931
41.85 -0.09745
41.9 -0.09192
41.95 -0.0876
42 -0.08521
42.05 -0.08079
42.1 -0.07627
42.15 -0.07073
42.2 -0.07107
42.25 -0.07447
42.3 -0.07603
42.35 -0.07447
42.4 -0.07273
42.45 -0.07228
42.5 -0.07592
42.55 -0.07705
42.6 -0.0737
42.65 -0.0722
42.7 -0.07421
42.75 -0.07755
42.8 -0.07793
42.85 -0.07753
42.9 -0.07722
42.95 -0.07303
43 -0.06688
43.05 -0.06197
43.1 -0.06035
43.15 -0.05551
43.2 -0.05303
43.25 -0.05162
43.3 -0.0551
43.35 -0.05828
43.4 -0.05664
43.45 -0.05496
43.5 -0.05328
43.55 -0.05065
43.6 -0.05012
43.65 -0.047
43.7 -0.04879
43.75 -0.05139
43.8 -0.0502
43.85 -0.05227
43.9 -0.05185
43.95 -0.0524
44 -0.05553
44.05 -0.05241
44.1 -0.05099
44.15 -0.04555
44.2 -0.03937
44.25 -0.03482
44.3 -0.0289
44.35 -0.02255
44.4 -0.0233
44.45 -0.02755
44.5 -0.03321
44.55 -0.03619
44.6 -0.04184
44.65 -0.0435
44.7 -0.04089
44.75 -0.03922
44.8 -0.04145
44.85 -0.04403
44.9 -0.04417
44.95 -0.04244
45 -0.04187
45.05 -0.04385
45.1 -0.04244
45.15 -0.04243
45.2 -0.04272
45.25 -0.04304
45.3 -0.03823
45.35 -0.03081
45.4 -0.02969
45.45 -0.03152
45.5 -0.0324
45.55 -0.02845
45.6 -0.02555
45.65 -0.02689
45.7 -0.02583
45.75 -0.02358
45.8 -0.0198
45.85 -0.01473
45.9 -0.00829
45.95 -0.00726
46 -0.00905
46.05 -0.01306
46.1 -0.01757
46.15 -0.02321
46.2 -0.02993
46.25 -0.0308
46.3 -0.03361
46.35 -0.03203
46.4 -0.02957
46.45 -0.02778
46.5 -0.02299
46.55 -0.02042
46.6 -0.0191
46.65 -0.01483
46.7 -0.00879
46.75 -0.00688
46.8 -0.01007
46.85 -0.01572
46.9 -0.02004
46.95 -0.02139
47 -0.01828
47.05 -0.0202
47.1 -0.02369
47.15 -0.02258
47.2 -0.02323
47.25 -0.02108
47.3 -0.01911
47.35 -0.01804
47.4 -0.01707
47.45 -0.01334
47.5 -0.0135
47.55 -0.01163
47.6 -0.00856
47.65 -0.00707
47.7 -0.00848
47.75 -0.0074
47.8 -0.00883
47.85 -0.01095
47.9 -0.01129
47.95 -0.0091
48 -0.00528
48.05 -0.00524
48.1 -0.00471
48.15 -0.00475
48.2 -0.00519
48.25 -0.006
48.3 -0.00373
48.35 -0.00521
48.4 -0.01001
48.45 -0.01657
48.5 -0.01866
48.55 -0.01957
48.6 -0.02358
48.65 -0.02263
48.7 -0.01836
48.75 -0.01297
48.8 -0.0114
48.85 -0.00817
48.9 -0.00869
48.95 -0.01308
49 -0.01726
49.05 -0.01788
49.1 -0.01631
49.15 -0.01553
49.2 -0.01568
49.25 -0.01903
49.3 -0.02171
49.35 -0.02241
49.4 -0.02473
49.45 -0.02573
49.5 -0.02558
49.55 -0.02616
49.6 -0.02717
49.65 -0.02455
49.7 -0.01947
49.75 -0.0157
49.8 -0.01429
49.85 -0.01439
49.9 -0.01604
49.95 -0.01642
50 -0.01566
50.05 -0.01689
50.1 -0.02038
50.15 -0.01969
50.2 -0.01865
50.25 -0.01547
50.3 -0.01476
50.35 -0.0114
50.4 -0.00799
50.45 -0.00636
50.5 -0.00874
50.55 -0.00717
50.6 -0.00672
50.65 -0.00347
50.7 -0.00462
50.75 -0.00409
50.8 -0.00328
50.85 -0.00543
50.9 -0.01043
50.95 -0.01519
51 -0.02092
51.05 -0.02231
51.1 -0.02266
51.15 -0.02127
51.2 -0.01604
51.25 -0.00907
51.3 -0.00556
51.35 -0.00445
51.4 -0.00353
51.45 0.00086
51.5 0.00599
51.55 0.00598
51.6 0.00161
51.65 -0.0002
51.7 0.0025
51.75 0.00069
51.8 -0.00105
51.85 -0.00095
51.9 -0.00448
51.95 -0.00686
52 -0.00872
52.05 -0.00856
52.1 -0.0114
52.15 -0.01263
52.2 -0.01561
52.25 -0.01733
52.3 -0.01298
52.35 -0.00553
52.4 0.00029
52.45 0.00822
52.5 0.01637
52.55 0.02218
52.6 0.02473
52.65 0.0207
52.7 0.02055
52.75 0.02199
52.8 0.02444
52.85 0.02225
52.9 0.0193
52.95 0.01612
53 0.01618
53.05 0.01239
53.1 0.00738
53.15 0.00367
53.2 0.00076
53.25 -0.00159
53.3 -0.0024
53.35 0.00064
53.4 0.00022
53.45 0.00267
53.5 0.0013
53.55 -0.00363
53.6 -0.00982
53.65 -0.00994
53.7 -0.01136
53.75 -0.00786
53.8 -0.00524
53.85 -0.00436
53.9 -0.00417
53.95 -0.00722
54 -0.00762
54.05 -0.0063
54.1 -0.00316
54.15 0.00207
54.2 0.00753
54.25 0.00642
54.3 0.00445
54.35 0.00068
54.4 0.00117
54.45 0.00457
54.5 0.00589
54.55 0.00434
54.6 0.00373
54.65 0.00051
54.7 -0.00523
54.75 -0.00795
54.8 -0.01121
54.85 -0.01502
54.9 -0.01726
54.95 -0.01685
55 -0.01204
55.05 -0.00557
55.1 -0.00319
55.15 -0.00288
55.2 -0.00002
55.25 0.00138
55.3 -0.00066
55.35 0.00028
55.4 -0.00266
55.45 -0.00316
55.5 -0.00075
55.55 0.00178
55.6 -0.00092
55.65 -0.0031
55.7 -0.00548
55.75 -0.00954
55.8 -0.00905
55.85 -0.00605
55.9 -0.00398
55.95 -0.00303
56 -0.0058
56.05 -0.00465
56.1 0.00057
56.15 0.0019
56.2 -0.00059
56.25 -0.00285
56.3 -0.00131
56.35 -0.00318
56.4 -0.0072
56.45 -0.00719
56.5 -0.00242
56.55 0.0033
56.6 0.00656
56.65 0.00394
56.7 0.00064
56.75 0.00236
56.8 0.00509
56.85 0.00503
56.9 0.00443
56.95 0.00329
57 0.00616
57.05 0.00797
57.1 0.00557
57.15 0.00179
57.2 -0.00035
57.25 0.0001
57.3 0.00194
57.35 0.00284
57.4 0.00369
57.45 0.0053
57.5 0.00249
57.55 -0.00151
57.6 -0.00657
57.65 -0.0077
57.7 -0.00913
57.75 -0.00562
57.8 -0.00424
57.85 -0.004
57.9 -0.00636
57.95 -0.00994
58 -0.01202
58.05 -0.01086
58.1 -0.0095
58.15 -0.00983
58.2 -0.00688
58.25 -0.00128
58.3 0.0004
58.35 -0.00184
58.4 -0.00429
58.45 -0.00169
58.5 -0.00335
58.55 -0.00619
58.6 -0.01101
58.65 -0.01435
58.7 -0.01743
58.75 -0.02126
58.8 -0.02273
58.85 -0.02175
58.9 -0.02087
58.95 -0.0194
59 -0.0185
59.05 -0.01864
59.1 -0.01925
59.15 -0.01408
59.2 -0.00715
59.25 0.00193
59.3 0.00869
59.35 0.01548
59.4 0.01793
59.45 0.01902
59.5 0.02231
59.55 0.02081
59.6 0.0167
59.65 0.01491
59.7 0.01347
59.75 0.00776
59.8 0.00624
59.85 0.00791
59.9 0.01014
59.95 0.00847
60 0.00644
60.05 0.00818
60.1 0.00636
60.15 0.00145
60.2 -0.00001
60.25 -0.00138
60.3 -0.00203
60.35 -0.00358
60.4 -0.00136
60.45 0.00078
60.5 0.00125
60.55 -0.0026
60.6 -0.00553
60.65 -0.00942
60.7 -0.01105
60.75 -0.01307
60.8 -0.00982
60.85 -0.00289
60.9 0.00257
60.95 0.00344
61 0.00609
61.05 0.00656
61.1 0.00405
61.15 0.00069
61.2 -0.00261
61.25 -0.00453
61.3 -0.00406
61.35 -0.00216
61.4 0.00331
61.45 0.00904
61.5 0.01536
61.55 0.01544
61.6 0.01436
61.65 0.009
61.7 0.00112
61.75 -0.00014
61.8 -0.00163
61.85 -0.00467
61.9 -0.00492
61.95 -0.00806
62 -0.00762
62.05 -0.00262
62.1 -0.00129
62.15 0.00351
62.2 0.00647
62.25 0.00439
62.3 0.00388
62.35 0.00284
62.4 0.0007
62.45 0.00216
62.5 0.00654
62.55 0.01078
62.6 0.01495
62.65 0.01587
62.7 0.01848
62.75 0.01983
62.8 0.01822
62.85 0.01351
62.9 0.00709
62.95 -0.00082
63 -0.00824
63.05 -0.01223
63.1 -0.01476
63.15 -0.01493
63.2 -0.01515
63.25 -0.01201
63.3 -0.01089
63.35 -0.01219
63.4 -0.00809
63.45 -0.00099
63.5 0.00028
63.55 0.00318
63.6 0.00603
63.65 0.00726
63.7 0.00851
63.75 0.0119
63.8 0.00941
63.85 0.00375
63.9 0.00218
63.95 -0.00264
64 -0.00358
64.05 -0.006
64.1 -0.00746
64.15 -0.00477
64.2 -0.0047
64.25 -0.00728
64.3 -0.00931
64.35 -0.01175
64.4 -0.01094
64.45 -0.01004
64.5 -0.00864
64.55 -0.00654
64.6 -0.00451
64.65 -0.00068
64.7 -0.00152
64.75 -0.00474
64.8 -0.0103
64.85 -0.01469
64.9 -0.01848
64.95 -0.0216
65 -0.01985
65.05 -0.01329
65.1 -0.00392
65.15 -0.00163
65.2 0.00399
65.25 0.00705
65.3 0.0097
65.35 0.01241
65.4 0.01334
65.45 0.01525
65.5 0.01315
65.55 0.00855
65.6 0.00174
65.65 -0.0014
65.7 -0.00127
65.75 0.00285
65.8 0.00474
65.85 0.00578
65.9 0.00856
65.95 0.00785
66 0.0107
66.05 0.01492
66.1 0.01628
66.15 0.01703
66.2 0.01731
66.25 0.01397
66.3 0.01193
66.35 0.00544
66.4 -0.00332
66.45 -0.00598
66.5 -0.00357
66.55 0.00071
66.6 -0.00018
66.65 0.00283
66.7 0.00162
66.75 0.0038
66.8 0.00452
66.85 0.0081
66.9 0.0113
66.95 0.01365
67 0.01552
67.05 0.01645
67.1 0.0145
67.15 0.00786
67.2 0.0044
67.25 0.00272
67.3 0.00505
67.35 0.00203
67.4 -0.00318
67.45 -0.00821
67.5 -0.00746
67.55 -0.00435
67.6 -0.00265
67.65 0.00013
67.7 0.00475
67.75 0.00883
67.8 0.00786
67.85 0.00332
67.9 -0.00422
67.95 -0.01106
68 -0.0143
68.05 -0.0167
68.1 -0.01451
68.15 -0.00815
68.2 -0.00416
68.25 0.00197
68.3 0.00766
68.35 0.0081
68.4 0.00988
68.45 0.01408
68.5 0.01892
68.55 0.01704
68.6 0.01385
68.65 0.00875
68.7 0.00754
68.75 0.00367
68.8 0.00411
68.85 0.00469
68.9 0.0008
68.95 -0.00167
69 -0.0052
69.05 -0.01047
69.1 -0.01704
69.15 -0.01819
69.2 -0.01925
69.25 -0.02191
69.3 -0.01957
69.35 -0.01432
69.4 -0.00831
69.45 -0.00386
69.5 -0.00401
69.55 -0.00378
69.6 -0.00497
69.65 -0.00203
69.7 -0.0033
69.75 -0.00298
69.8 -0.00623
69.85 -0.00445
69.9 -0.00197
69.95 -0.00239
70 -0.00064
70.05 -0.00098
70.1 -0.00069
70.15 -0.00315
70.2 -0.00471
70.25 -0.00443
70.3 -0.00764
70.35 -0.01064
70.4 -0.01013
70.45 -0.0072
70.5 -0.00857
70.55 -0.00867
70.6 -0.00885
70.65 -0.01042
70.7 -0.01189
70.75 -0.01307
70.8 -0.00914
70.85 -0.00429
70.9 -0.00456
70.95 -0.00796
71 -0.01135
71.05 -0.01344
71.1 -0.01604
71.15 -0.01545
71.2 -0.01507
71.25 -0.01558
71.3 -0.01698
71.35 -0.01851
71.4 -0.01719
71.45 -0.01658
71.5 -0.01571
71.55 -0.01333
71.6 -0.01392
71.65 -0.01604
71.7 -0.01298
71.75 -0.00696
71.8 -0.0029
71.85 -0.00194
71.9 0.00137
71.95 0.00395
72 0.00894
72.05 0.01528
72.1 0.01862
72.15 0.02272
72.2 0.02546
72.25 0.02287
72.3 0.01806
72.35 0.0142
72.4 0.00823
72.45 0.00773
72.5 0.00735
72.55 0.00743
72.6 0.00457
72.65 0.00444
72.7 0.00726
72.75 0.00552
72.8 0.00043
72.85 -0.00309
72.9 -0.00497
72.95 -0.0025
73 -0.00228
73.05 -0.00549
73.1 -0.00835
73.15 -0.01326
73.2 -0.01522
73.25 -0.01877
73.3 -0.01557
73.35 -0.01513
73.4 -0.01526
73.45 -0.01519
73.5 -0.01675
73.55 -0.01646
73.6 -0.01695
73.65 -0.01536
73.7 -0.011
73.75 -0.0097
73.8 -0.00992
73.85 -0.01293
73.9 -0.01255
73.95 -0.00873
74 -0.00852
74.05 -0.00362
74.1 0.00365
74.15 0.00576
74.2 0.00369
74.25 0.00604
74.3 0.01035
74.35 0.0151
74.4 0.02025
74.45 0.01898
74.5 0.01414
74.55 0.00964
74.6 0.00447
74.65 0.00314
74.7 -0.00085
74.75 -0.00254
74.8 -0.00135
74.85 0.00183
74.9 0.00323
74.95 0.00742
75 0.01372
75.05 0.01777
75.1 0.02184
75.15 0.02403
75.2 0.02011
75.25 0.01745
75.3 0.01314
75.35 0.00717
75.4 0.00051
75.45 -0.00502
75.5 -0.00485
75.55 -0.00162
75.6 0.00089
75.65 -0.00001
75.7 -0.00129
75.75 -0.00145
75.8 0.00258
75.85 0.00343
75.9 0.00525
75.95 0.00644
76 0.00756
76.05 0.00776
76.1 0.00906
76.15 0.00538
76.2 -0.00007
76.25 -0.00655
76.3 -0.01311
76.35 -0.01701
76.4 -0.02153
76.45 -0.02428
76.5 -0.02341
76.55 -0.02172
76.6 -0.02032
76.65 -0.01715
76.7 -0.01284
76.75 -0.00772
76.8 -0.00772
76.85 -0.00791
76.9 -0.00972
76.95 -0.01036
77 -0.00702
77.05 -0.00691
77.1 -0.0082
77.15 -0.00907
77.2 -0.00936
77.25 -0.01213
77.3 -0.01593
77.35 -0.0145
77.4 -0.00933
77.45 -0.00823
77.5 -0.00363
77.55 -0.00223
77.6 -0.00043
77.65 -0.00178
77.7 -0.00619
77.75 -0.0048
77.8 -0.00215
77.85 0.00056
77.9 0.00249
77.95 0.00103
78 -0.00248
78.05 -0.00757
78.1 -0.01138
78.15 -0.0135
78.2 -0.00987
78.25 -0.0033
78.3 0.00342
78.35 0.00413
78.4 0.00094
78.45 0.00037
78.5 0.00071
78.55 0.00538
78.6 0.00437
78.65 0.00401
78.7 0.0046
78.75 0.00359
78.8 0.00688
78.85 0.00493
78.9 0.00175
78.95 0.00303
79 0.00278
79.05 0.00263
79.1 -0.00088
79.15 -0.00327
79.2 -0.00407
79.25 -0.00309
79.3 -0.00191
79.35 -0.00366
79.4 -0.00193
79.45 -0.00189
79.5 -0.00456
79.55 -0.00168
79.6 0.00276
79.65 0.00951
79.7 0.01102
79.75 0.01095
79.8 0.01264
79.85 0.01135
79.9 0.0079
79.95 0.00253
80 0.00052
80.05 0.00208
80.1 -0.00015
80.15 -0.00053
80.2 0.00264
80.25 0.00596
80.3 0.00784
80.35 0.00955
80.4 0.00901
80.45 0.009
80.5 0.00517
80.55 0.00573
80.6 0.00971
80.65 0.00759
80.7 0.00931
80.75 0.00957
80.8 0.00729
80.85 0.00493
80.9 0.00455
80.95 0.00137
81 -0.00412
81.05 -0.0085
81.1 -0.0131
81.15 -0.01231
81.2 -0.01386
81.25 -0.01353
81.3 -0.00945
81.35 -0.00536
81.4 0.00025
81.45 0.00514
81.5 0.01213
81.55 0.0157
81.6 0.01766
81.65 0.0161
81.7 0.01055
81.75 0.00387
81.8 0.00195
81.85 -0.00193
81.9 -0.00707
81.95 -0.01229
82 -0.01392
82.05 -0.017
82.1 -0.01686
82.15 -0.01182
82.2 -0.00342
82.25 0.00009
82.3 0.00307
82.35 0.00781
82.4 0.00815
82.45 0.009
82.5 0.01149
82.55 0.0091
82.6 0.00642
82.65 0.00136
82.7 -0.00031
82.75 -0.00397
82.8 -0.007
82.85 -0.00718
82.9 -0.01053
82.95 -0.00897
83 -0.00643
83.05 -0.00096
83.1 0.00692
83.15 0.01436
83.2 0.01653
83.25 0.01673
83.3 0.01638
83.35 0.01297
83.4 0.00888
83.45 0.00817
83.5 0.00764
83.55 0.00506
83.6 0.00126
83.65 0.00286
83.7 0.00398
83.75 0.00476
83.8 0.00194
83.85 -0.00005
83.9 0.00196
83.95 0.00482
84 0.00399
84.05 0.00703
84.1 0.01193
84.15 0.01415
84.2 0.01305
84.25 0.00724
84.3 0.0017
84.35 0.00204
84.4 -0.00029
84.45 -0.00224
84.5 -0.00688
84.55 -0.00919
84.6 -0.00842
84.65 -0.00478
84.7 -0.00381
84.75 -0.00339
84.8 -0.00371
84.85 -0.00103
84.9 -0.00232
84.95 0.0008
85 0.00063
85.05 -0.00363
85.1 -0.00846
85.15 -0.01442
85.2 -0.01714
85.25 -0.01891
85.3 -0.01989
85.35 -0.01786
85.4 -0.01611
85.45 -0.01628
85.5 -0.01248
85.55 -0.00703
85.6 -0.00059
85.65 0.0068
85.7 0.00719
85.75 0.00572
85.8 0.00505
85.85 0.00397
85.9 0.00539
85.95 0.00768
86 0.01263
86.05 0.01376
86.1 0.01317
86.15 0.01122
86.2 0.01227
86.25 0.01346
86.3 0.01556
86.35 0.01489
86.4 0.01198
86.45 0.00635
86.5 0.00251
86.55 0.00255
86.6 0.00015
86.65 -0.00407
86.7 -0.00529
86.75 -0.00868
86.8 -0.00737
86.85 -0.00667
86.9 -0.00819
86.95 -0.00427
87 0.00018
87.05 0.00679
87.1 0.01243
87.15 0.01203
87.2 0.00984
87.25 0.00718
87.3 0.00541
87.35 0.00159
87.4 0.00229
87.45 0.00497
87.5 0.00841
87.55 0.01147
87.6 0.01397
87.65 0.01352
87.7 0.01014
87.75 0.00621
87.8 0.00571
87.85 0.00305
87.9 0.00099
87.95 -0.00063
88 -0.00054
88.05 0.00073
88.1 -0.00254
88.15 -0.00283
88.2 -0.00014
88.25 0.00474
88.3 0.00792
88.35 0.01129
88.4 0.01321
88.45 0.01619
88.5 0.0157
88.55 0.01726
88.6 0.0172
88.65 0.01562
88.7 0.01418
88.75 0.00904
88.8 0.00306
88.85 0.00077
88.9 -0.00409
88.95 -0.00338
89 -0.00558
89.05 -0.00895
89.1 -0.01475
89.15 -0.01399
89.2 -0.01162
89.25 -0.00709
89.3 -0.00241
89.35 -0.00312
89.4 -0.00054
89.45 -0.0019
89.5 0.00093
89.55 0.00603
89.6 0.01235
89.65 0.01446
89.7 0.01534
89.75 0.01638
89.8 0.01833
89.85 0.01766
89.9 0.01241
89.95 0.00399
90 0.00017
90.05 -0.00059
90.1 -0.00336
90.15 -0.00766
90.2 -0.01143
90.25 -0.01435
90.3 -0.01258
90.35 -0.01119
90.4 -0.01143
90.45 -0.01267
90.5 -0.01268
90.55 -0.01495
90.6 -0.01378
90.65 -0.00824
90.7 -0.00082
90.75 0.00583
90.8 0.01317
90.85 0.01857
90.9 0.02218
90.95 0.02601
91 0.02359
91.05 0.01605
91.1 0.01289
91.15 0.01165
91.2 0.0114
91.25 0.01254
91.3 0.01287
91.35 0.01412
91.4 0.01224
91.45 0.0126
91.5 0.00995
91.55 0.00686
91.6 0.00165
91.65 -0.00601
91.7 -0.00993
91.75 -0.0152
91.8 -0.01425
91.85 -0.0092
91.9 -0.00606
91.95 -0.00024
92 0.00603
92.05 0.01185
92.1 0.0164
92.15 0.0154
92.2 0.01377
92.25 0.01181
92.3 0.0115
92.35 0.0073
92.4 0.00608
92.45 0.00626
92.5 0.00514
92.55 0.00522
92.6 0.00264
92.65 0.00209
92.7 -0.00109
92.75 -0.00613
92.8 -0.00624
92.85 -0.00397
92.9 -0.00207
92.95 -0.00496
93 -0.00369
93.05 -0.00294
93.1 0.00018
93.15 0.00294
93.2 0.00441
93.25 0.00397
93.3 0.00234
93.35 -0.00209
93.4 -0.00229
93.45 -0.00635
93.5 -0.01301
93.55 -0.0203
93.6 -0.02258
93.65 -0.02304
93.7 -0.0182
93.75 -0.01077
93.8 -0.00302
93.85 0.00467
93.9 0.00617
93.95 0.00385
94 0.00039
94.05 -0.001
94.1 -0.0054
94.15 -0.00582
94.2 -0.0072
94.25 -0.0044
94.3 -0.00439
94.35 -0.00584
94.4 -0.00355
94.45 -0.00181
94.5 -0.00246
94.55 -0.00035
94.6 0.00269
94.65 0.00751
94.7 0.00553
94.75 0.00193
94.8 0.0007
94.85 -0.00297
94.9 -0.00255
94.95 -0.00371
95 -0.00412
95.05 -0.0045
95.1 -0.00761
95.15 -0.0063
95.2 -0.00953
95.25 -0.00921
95.3 -0.00848
95.35 -0.01036
95.4 -0.01474
95.45 -0.01606
95.5 -0.0154
95.55 -0.01475
95.6 -0.01486
95.65 -0.01437
95.7 -0.01203
95.75 -0.01362
95.8 -0.01538
95.85 -0.01443
95.9 -0.01615
95.95 -0.01915
96 -0.01549
96.05 -0.01213
96.1 -0.01069
96.15 -0.00713
96.2 -0.00148
96.25 -0.00199
96.3 -0.00561
96.35 -0.0065
96.4 -0.01006
96.45 -0.01183
96.5 -0.01498
96.55 -0.01598
96.6 -0.01345
96.65 -0.00832
96.7 -0.00183
96.75 0.00433
96.8 0.01181
96.85 0.01458
96.9 0.01566
96.95 0.01516
97 0.01034
97.05 0.00845
97.1 0.00293
97.15 0.00201
97.2 0.00302
97.25 -0.00072
97.3 -0.00287
97.35 -0.00057
97.4 0.00362
97.45 0.00609
97.5 0.00474
97.55 0.00406
97.6 0.00577
97.65 0.00458
97.7 0.00136
97.75 0.00305
97.8 0.0039
97.85 -0.0001
97.9 -0.00074
97.95 -0.00028
98 -0.00414
98.05 -0.00537
98.1 -0.00755
98.15 -0.00507
98.2 -0.00599
98.25 -0.00631
98.3 -0.00687
98.35 -0.00974
98.4 -0.01165
98.45 -0.00814
98.5 -0.00177
98.55 0.00333
98.6 0.00568
98.65 0.00354
98.7 0.0046
98.75 0.0029
98.8 0.00375
98.85 0.0017
98.9 0.00355
98.95 0.00615
99 0.01006
99.05 0.01438
99.1 0.01717
99.15 0.01479
99.2 0.00787
99.25 0.00196
99.3 0.002
99.35 -0.00202
99.4 -0.00246
99.45 -0.00236
99.5 0.00041
99.55 -0.00181
99.6 -0.00578
99.65 -0.01108
99.7 -0.01298
99.75 -0.01337
99.8 -0.01064
99.85 -0.00871
99.9 -0.00649
99.95 -0.0023
