0 0
0.05 0.00297
0.1 0.01273
0.15 0.02157
0.2 0.03453
0.25 0.04543
0.3 0.05304
0.35 0.06096
0.4 0.06302
0.45 0.05957
0.5 0.05692
0.55 0.05269
0.6 0.04618
0.65 0.04423
0.7 0.03976
0.75 0.04151
0.8 0.04011
0.85 0.03533
0.9 0.0323
0.95 0.03257
1 0.03387
1.05 0.03654
1.1 0.04149
1.15 0.04878
1.2 0.05684
1.25 0.05793
1.3 0.0607
1.35 0.06305
1.4 0.06615
1.45 0.0653
1.5 0.0611
1.55 0.05615
1.6 0.05125
1.65 0.04721
1.7 0.04306
1.75 0.0394
1.8 0.03182
1.85 0.0242
1.9 0.01577
1.95 0.01402
2 0.01055
2.05 0.00757
2.1 0.00627
2.15 0.00456
2.2 0.0055
2.25 0.00624
2.3 0.00978
2.35 0.00986
2.4 0.00988
2.45 0.01239
2.5 0.01503
2.55 0.01924
2.6 0.02381
2.65 0.0297
2.7 0.03382
2.75 0.0347
2.8 0.03424
2.85 0.03272
2.9 0.03224
2.95 0.02787
3 0.02185
3.05 0.01508
3.1 0.01587
3.15 0.01805
3.2 0.01531
3.25 0.01856
3.3 0.02476
3.35 0.03106
3.4 0.03366
3.45 0.03759
3.5 0.03738
3.55 0.03353
3.6 0.03299
3.65 0.03281
3.7 0.03248
3.75 0.03269
3.8 0.02906
3.85 0.02592
3.9 0.02495
3.95 0.02064
4 0.01908
4.05 0.02007
4.1 0.02085
4.15 0.02289
4.2 0.0211
4.25 0.0147
4.3 0.00593
4.35 -0.00084
4.4 -0.00321
4.45 -0.00473
4.5 -0.00647
4.55 -0.00913
4.6 -0.01509
4.65 -0.0242
4.7 -0.03865
4.75 -0.05886
4.8 -0.08547
4.85 -0.11995
4.9 -0.15539
4.95 -0.19863
5 -0.24361
5.05 -0.28839
5.1 -0.33765
5.15 -0.39772
5.2 -0.46435
5.25 -0.53572
5.3 -0.61045
5.35 -0.69108
5.4 -0.77665
5.45 -0.86659
5.5 -0.95624
5.55 -1.04482
5.6 -1.14001
5.65 -1.23523
5.7 -1.33297
5.75 -1.42772
5.8 -1.51978
5.85 -1.60792
5.9 -1.7004
5.95 -1.78714
6 -1.87131
6.05 -1.95716
6.1 -2.04243
6.15 -2.11644
6.2 -2.1861
6.25 -2.2478
6.3 -2.30199
6.35 -2.3532
6.4 -2.39977
6.45 -2.43605
6.5 -2.46564
6.55 -2.49033
6.6 -2.50265
6.65 -2.50429
6.7 -2.49386
6.75 -2.46911
6.8 -2.43632
6.85 -2.38376
6.9 -2.31337
6.95 -2.22986
7 -2.12837
7.05 -2.01189
7.1 -1.88028
7.15 -1.7311
7.2 -1.56662
7.25 -1.3924
7.3 -1.20837
7.35 -1.01507
7.4 -0.82061
7.45 -0.61892
7.5 -0.412
7.55 -0.20632
7.6 -0.00574
7.65 0.19142
7.7 0.3839
7.75 0.57295
7.8 0.75581
7.85 0.93023
7.9 1.09301
7.95 1.24005
8 1.38011
8.05 1.50363
8.1 1.61311
8.15 1.71558
8.2 1.81012
8.25 1.89314
8.3 1.96766
8.35 2.02991
8.4 2.07732
8.45 2.12018
8.5 2.15524
8.55 2.18158
8.6 2.19966
8.65 2.21222
8.7 2.22078
8.75 2.22596
8.8 2.22641
8.85 2.22359
8.9 2.21324
8.95 2.2026
9 2.19284
9.05 2.18177
9.1 2.16443
9.15 2.15016
9.2 2.13347
9.25 2.11349
9.3 2.09018
9.35 2.07131
9.4 2.05338
9.45 2.03688
9.5 2.01844
9.55 1.99432
9.6 1.96347
9.65 1.93332
9.7 1.90129
9.75 1.86571
9.8 1.82743
9.85 1.78824
9.9 1.74708
9.95 1.70864
10 1.67205
10.05 1.63422
10.1 1.60051
10.15 1.56308
10.2 1.52974
10.25 1.49559
10.3 1.46136
10.35 1.42088
10.4 1.37868
10.45 1.33502
10.5 1.28938
10.55 1.24123
10.6 1.19309
10.65 1.14484
10.7 1.09319
10.75 1.04149
10.8 0.99352
10.85 0.9473
10.9 0.9029
10.95 0.85562
11 0.81132
11.05 0.76858
11.1 0.72426
11.15 0.68027
11.2 0.63552
11.25 0.58991
11.3 0.54603
11.35 0.49964
11.4 0.45814
11.45 0.42078
11.5 0.38129
11.55 0.34127
11.6 0.30667
11.65 0.27082
11.7 0.23411
11.75 0.19585
11.8 0.15995
11.85 0.12706
11.9 0.0934
11.95 0.0638
12 0.03481
12.05 0.01159
12.1 -0.01146
12.15 -0.03911
12.2 -0.06659
12.25 -0.0876
12.3 -0.10937
12.35 -0.12748
12.4 -0.14392
12.45 -0.15942
12.5 -0.17421
12.55 -0.19243
12.6 -0.20898
12.65 -0.2261
12.7 -0.24578
12.75 -0.26657
12.8 -0.2854
12.85 -0.30055
12.9 -0.30846
12.95 -0.31906
13 -0.32447
13.05 -0.33243
13.1 -0.33936
13.15 -0.34879
13.2 -0.35659
13.25 -0.36699
13.3 -0.37551
13.35 -0.38115
13.4 -0.38072
13.45 -0.38371
13.5 -0.38414
13.55 -0.38771
13.6 -0.39218
13.65 -0.39219
13.7 -0.39081
13.75 -0.39178
13.8 -0.39105
13.85 -0.38784
13.9 -0.38852
13.95 -0.38371
14 -0.37496
14.05 -0.37241
14.1 -0.37067
14.15 -0.36664
14.2 -0.36683
14.25 -0.3684
14.3 -0.36415
14.35 -0.36397
14.4 -0.36535
14.45 -0.36258
14.5 -0.35448
14.55 -0.34674
14.6 -0.34028
14.65 -0.33409
14.7 -0.33269
14.75 -0.32575
14.8 -0.32017
14.85 -0.31465
14.9 -0.3088
14.95 -0.30232
15 -0.29629
15.05 -0.2885
15.1 -0.28659
15.15 -0.28455
15.2 -0.28044
15.25 -0.27259
15.3 -0.26812
15.35 -0.268
15.4 -0.27132
15.45 -0.26932
15.5 -0.26864
15.55 -0.26968
15.6 -0.26561
15.65 -0.26523
15.7 -0.26618
15.75 -0.2615
15.8 -0.26003
15.85 -0.2596
15.9 -0.26064
15.95 -0.25577
16 -0.24662
16.05 -0.24031
16.1 -0.23063
16.15 -0.22272
16.2 -0.21719
16.25 -0.21347
16.3 -0.21264
16.35 -0.20849
16.4 -0.2046
16.45 -0.20115
16.5 -0.19945
16.55 -0.20035
16.6 -0.19551
16.65 -0.18739
16.7 -0.17789
16.75 -0.16801
16.8 -0.16207
16.85 -0.16182
16.9 -0.15982
16.95 -0.15439
17 -0.15506
17.05 -0.15393
17.1 -0.15142
17.15 -0.1453
17.2 -0.14242
17.25 -0.13628
17.3 -0.13006
17.35 -0.12906
17.4 -0.13323
17.45 -0.13844
17.5 -0.14098
17.55 -0.13939
17.6 -0.14146
17.65 -0.13943
17.7 -0.13254
17.75 -0.12497
17.8 -0.1172
17.85 -0.11296
17.9 -0.11245
17.95 -0.11037
18 -0.10746
18.05 -0.10169
18.1 -0.09673
18.15 -0.09745
18.2 -0.09827
18.25 -0.10184
18.3 -0.10488
18.35 -0.1072
18.4 -0.10861
18.45 -0.10954
18.5 -0.10552
18.55 -0.1024
18.6 -0.10375
18.65 -0.10858
18.7 -0.10749
18.75 -0.10797
18.8 -0.10454
18.85 -0.09964
18.9 -0.09479
18.95 -0.09115
19 -0.08732
19.05 -0.0853
19.1 -0.08383
19.15 -0.08389
19.2 -0.08306
19.25 -0.08321
19.3 -0.08603
19.35 -0.08576
19.4 -0.08151
19.45 -0.07902
19.5 -0.07337
19.55 -0.06718
19.6 -0.06544
19.65 -0.06091
19.7 -0.05982
19.75 -0.057
19.8 -0.0534
19.85 -0.05326
19.9 -0.05753
19.95 -0.05835
20 -0.05831
20.05 -0.06211
20.1 -0.06671
20.15 -0.06824
20.2 -0.0675
20.25 -0.0635
20.3 -0.0579
20.35 -0.05705
20.4 -0.0588
20.45 -0.06144
20.5 -0.06708
20.55 -0.07387
20.6 -0.0789
20.65 -0.08275
20.7 -0.08538
20.75 -0.08712
20.8 -0.08947
20.85 -0.08649
20.9 -0.0806
20.95 -0.07381
21 -0.0693
21.05 -0.06441
21.1 -0.06396
21.15 -0.0663
21.2 -0.06814
21.25 -0.06376
21.3 -0.06044
21.35 -0.05801
21.4 -0.0559
21.45 -0.04862
21.5 -0.03838
21.55 -0.03175
21.6 -0.02919
21.65 -0.03045
21.7 -0.03496
21.75 -0.03994
21.8 -0.043
21.85 -0.04182
21.9 -0.03911
21.95 -0.03987
22 -0.03795
22.05 -0.03218
22.1 -0.02779
22.15 -0.02212
22.2 -0.01629
22.25 -0.01279
22.3 -0.01145
22.35 -0.01301
22.4 -0.01818
22.45 -0.02194
22.5 -0.02731
22.55 -0.03126
22.6 -0.03291
22.65 -0.02972
22.7 -0.02467
22.75 -0.0209
22.8 -0.02341
22.85 -0.0278
22.9 -0.03002
22.95 -0.03153
23 -0.02882
23.05 -0.02519
23.1 -0.02629
23.15 -0.0275
23.2 -0.03119
23.25 -0.03063
23.3 -0.02514
23.35 -0.01991
23.4 -0.0176
23.45 -0.01224
23.5 -0.01353
23.55 -0.01523
23.6 -0.01939
23.65 -0.02041
23.7 -0.02349
23.75 -0.02764
23.8 -0.0339
23.85 -0.03766
23.9 -0.03675
23.95 -0.03746
24 -0.03484
24.05 -0.02814
24.1 -0.02401
24.15 -0.0201
24.2 -0.01847
24.25 -0.01892
24.3 -0.01709
24.35 -0.01875
24.4 -0.02044
24.45 -0.02173
24.5 -0.02579
24.55 -0.02419
24.6 -0.02216
24.65 -0.0165
24.7 -0.0093
24.75 -0.00542
24.8 0.00098
24.85 -0.00032
24.9 -0.00185
24.95 -0.00521
25 -0.00944
25.05 -0.01458
25.1 -0.01568
25.15 -0.01217
25.2 -0.00633
25.25 -0.0006
25.3 0.00295
25.35 0.00443
25.4 0.00167
25.45 -0.00209
25.5 -0.00278
25.55 -0.00617
25.6 -0.01299
25.65 -0.013
25.7 -0.01461
25.75 -0.01163
25.8 -0.01386
25.85 -0.01491
25.9 -0.01798
25.95 -0.02337
26 -0.02727
26.05 -0.03124
26.1 -0.02925
26.15 -0.02745
26.2 -0.02005
26.25 -0.01126
26.3 -0.00755
26.35 -0.0021
26.4 -0.00123
26.45 0.00066
26.5 -0.00216
26.55 -0.00397
26.6 -0.00734
26.65 -0.01008
26.7 -0.01445
26.75 -0.01887
26.8 -0.02381
26.85 -0.02693
26.9 -0.0233
26.95 -0.01724
27 -0.013
27.05 -0.012
27.1 -0.01389
27.15 -0.01228
27.2 -0.01087
27.25 -0.00502
27.3 -0.00295
27.35 -0.00326
27.4 -0.00391
27.45 -0.00523
27.5 -0.00367
27.55 -0.006
27.6 -0.00983
27.65 -0.0151
27.7 -0.01286
27.75 -0.01222
27.8 -0.00874
27.85 -0.00394
27.9 0.00213
27.95 0.00619
28 0.0102
28.05 0.00957
28.1 0.00692
28.15 0.0079
28.2 0.01198
28.25 0.01614
28.3 0.01954
28.35 0.02372
28.4 0.0265
28.45 0.02816
28.5 0.02769
28.55 0.02315
28.6 0.01781
28.65 0.00928
28.7 0.00452
28.75 -0.00235
28.8 -0.01001
28.85 -0.01295
28.9 -0.00979
28.95 -0.00374
29 -0.00395
29.05 -0.00685
29.1 -0.00511
29.15 -0.0044
29.2 -0.00443
29.25 -0.00207
29.3 0.00062
29.35 -0.00257
29.4 -0.00047
29.45 -0.00077
29.5 -0.00244
29.55 -0.0064
29.6 -0.00554
29.65 -0.00433
29.7 0.00042
29.75 0.00002
29.8 -0.00085
29.85 -0.00514
29.9 -0.01154
29.95 -0.01761
30 -0.0168
30.05 -0.01847
30.1 -0.02254
30.15 -0.02218
30.2 -0.01809
30.25 -0.01715
30.3 -0.01666
30.35 -0.01869
30.4 -0.01882
30.45 -0.02192
30.5 -0.02065
30.55 -0.02023
30.6 -0.01978
30.65 -0.0136
30.7 -0.00744
30.75 -0.00002
30.8 0.00061
30.85 0.00063
30.9 0.00182
30.95 0.00352
31 0.00695
31.05 0.01219
31.1 0.01397
31.15 0.01671
31.2 0.01535
31.25 0.00873
31.3 0.00639
31.35 0.00577
31.4 0.00209
31.45 0.00047
31.5 -0.00268
31.55 -0.00519
31.6 -0.00716
31.65 -0.01229
31.7 -0.01732
31.75 -0.02194
31.8 -0.02109
31.85 -0.01803
31.9 -0.01911
31.95 -0.01838
32 -0.01244
32.05 -0.00883
32.1 -0.00793
32.15 -0.00595
32.2 -0.0069
32.25 -0.00995
32.3 -0.01357
32.35 -0.01278
32.4 -0.00868
32.45 -0.00111
32.5 0.00172
32.55 0.00085
32.6 0.00166
32.65 0.00542
32.7 0.0085
32.75 0.00679
32.8 0.00914
32.85 0.00953
32.9 0.00928
32.95 0.00664
33 0.00102
33.05 -0.0044
33.1 -0.01064
33.15 -0.01333
33.2 -0.01192
33.25 -0.01065
33.3 -0.01168
33.35 -0.01154
33.4 -0.01355
33.45 -0.01381
33.5 -0.01147
33.55 -0.00855
33.6 -0.00346
33.65 0.00211
33.7 0.00305
33.75 0.00168
33.8 0.0051
33.85 0.00975
33.9 0.01615
33.95 0.01859
34 0.01568
34.05 0.0157
34.1 0.01161
34.15 0.00477
34.2 0.00382
34.25 0.00207
34.3 -0.00128
34.35 -0.00503
34.4 -0.00689
34.45 -0.00351
34.5 0.00347
34.55 0.00757
34.6 0.00646
34.65 0.00689
34.7 0.00892
34.75 0.01283
34.8 0.0123
34.85 0.00675
34.9 0.00256
34.95 0.00249
35 0.0003
35.05 0.00089
35.1 0.00159
35.15 0.0063
35.2 0.00904
35.25 0.00748
35.3 0.00821
35.35 0.00931
35.4 0.00799
35.45 0.00666
35.5 0.00377
35.55 0.00354
35.6 0.00137
35.65 0.00028
35.7 -0.00134
35.75 -0.00189
35.8 0.00058
35.85 0.00581
35.9 0.0096
35.95 0.0082
36 0.00501
36.05 0.00681
36.1 0.00409
36.15 0.00539
36.2 0.00992
36.25 0.01142
36.3 0.00845
36.35 0.0033
36.4 -0.00413
36.45 -0.00568
36.5 -0.00454
36.55 -0.00235
36.6 -0.00199
36.65 -0.00528
36.7 -0.01064
36.75 -0.01507
36.8 -0.02021
36.85 -0.02485
36.9 -0.02656
36.95 -0.02959
37 -0.02466
37.05 -0.02243
37.1 -0.01795
37.15 -0.01766
37.2 -0.017
37.25 -0.01538
37.3 -0.01171
37.35 -0.0104
37.4 -0.00804
37.45 -0.00378
37.5 0.00278
37.55 0.009
37.6 0.01381
37.65 0.01156
37.7 0.00764
37.75 0.00527
37.8 0.00673
37.85 0.00945
37.9 0.01229
37.95 0.01075
38 0.01162
38.05 0.01246
38.1 0.01195
38.15 0.01467
38.2 0.01496
38.25 0.01657
38.3 0.01649
38.35 0.01409
38.4 0.01439
38.45 0.01667
38.5 0.01919
38.55 0.02262
38.6 0.02415
38.65 0.02233
38.7 0.01714
38.75 0.01605
38.8 0.01509
38.85 0.01031
38.9 0.00886
38.95 0.01
39 0.01215
39.05 0.00854
39.1 0.00723
39.15 0.00087
39.2 -0.00396
39.25 -0.01037
39.3 -0.01502
39.35 -0.01729
39.4 -0.02216
39.45 -0.02547
39.5 -0.02287
39.55 -0.01748
39.6 -0.0141
39.65 -0.01287
39.7 -0.00833
39.75 -0.00127
39.8 0.00225
39.85 0.00715
39.9 0.01356
39.95 0.01538
40 0.01819
40.05 0.01359
40.1 0.00936
40.15 0.00568
40.2 0.0026
40.25 0.00314
40.3 -0.00092
40.35 -0.00104
40.4 0.00128
40.45 0.00114
40.5 0.00455
40.55 0.00922
40.6 0.00754
40.65 0.00743
40.7 0.00265
40.75 0.00131
40.8 0.00037
40.85 0.00233
40.9 0.00339
40.95 0.00765
41 0.01327
41.05 0.01265
41.1 0.01528
41.15 0.01654
41.2 0.01111
41.25 0.00941
41.3 0.00489
41.35 0.00486
41.4 0.00016
41.45 -0.00617
41.5 -0.0076
41.55 -0.00552
41.6 -0.00055
41.65 -0.00022
41.7 0.00013
41.75 -0.00014
41.8 0.00262
41.85 0.00738
41.9 0.00592
41.95 0.00489
42 0.0016
42.05 -0.00319
42.1 -0.00959
42.15 -0.0132
42.2 -0.01821
42.25 -0.01683
42.3 -0.01879
42.35 -0.02313
42.4 -0.02146
42.45 -0.02078
42.5 -0.02211
42.55 -0.01933
42.6 -0.0194
42.65 -0.01676
42.7 -0.01505
42.75 -0.01687
42.8 -0.01869
42.85 -0.01415
42.9 -0.00688
42.95 0.00005
43 -0
43.05 0.00328
43.1 0.00352
43.15 0.00609
43.2 0.00445
43.25 -0.00168
43.3 -0.00345
43.35 -0.00705
43.4 -0.00687
43.45 -0.00402
43.5 -0.00323
43.55 -0.00356
43.6 -0.00493
43.65 -0.00835
43.7 -0.01347
43.75 -0.01567
43.8 -0.016
43.85 -0.01422
43.9 -0.01463
43.95 -0.01501
44 -0.01077
44.05 -0.00285
44.1 0.00596
44.15 0.01521
44.2 0.01733
44.25 0.02181
44.3 0.02613
44.35 0.02686
44.4 0.02397
44.45 0.02304
44.5 0.02462
44.55 0.0271
44.6 0.02271
44.65 0.016
44.7 0.01227
44.75 0.01273
44.8 0.0134
44.85 0.01277
44.9 0.00975
44.95 0.00686
45 0.00146
45.05 -0.00082
45.1 -0.00554
45.15 -0.01036
45.2 -0.01179
45.25 -0.01052
45.3 -0.00988
45.35 -0.01352
45.4 -0.01712
45.45 -0.01941
45.5 -0.01619
45.55 -0.01066
45.6 -0.0046
45.65 -0.00515
45.7 -0.00946
45.75 -0.00982
45.8 -0.00571
45.85 -0.00515
45.9 -0.00617
45.95 -0.00648
46 -0.00327
46.05 -0.00552
46.1 -0.00732
46.15 -0.00677
46.2 -0.00483
46.25 -0.00784
46.3 -0.00615
46.35 -0.00069
46.4 0.00073
46.45 -0.00102
46.5 -0.00281
46.55 -0.00098
46.6 0.00057
46.65 -0.00144
46.7 -0.00432
46.75 -0.00499
46.8 -0.00378
46.85 -0.00607
46.9 -0.00662
46.95 -0.01032
47 -0.0097
47.05 -0.00653
47.1 -0.00835
47.15 -0.00998
47.2 -0.00608
47.25 -0.00427
47.3 -0.00491
47.35 -0.00493
47.4 -0.00403
47.45 -0.0032
47.5 -0.00526
47.55 -0.00865
47.6 -0.01208
47.65 -0.01019
47.7 -0.01189
47.75 -0.01195
47.8 -0.01131
47.85 -0.00992
47.9 -0.00588
47.95 -0.00044
48 0.00537
48.05 0.00533
48.1 0.00668
48.15 0.00481
48.2 0.00789
48.25 0.00664
48.3 0.00167
48.35 -0.00382
48.4 -0.00902
48.45 -0.0082
48.5 -0.00344
48.55 -0.00275
48.6 -0.00554
48.65 -0.00708
48.7 -0.00899
48.75 -0.0126
48.8 -0.00951
48.85 -0.00239
48.9 0.00116
48.95 0.00169
49 0.00628
49.05 0.0118
49.1 0.01188
49.15 0.01349
49.2 0.01532
49.25 0.01699
49.3 0.01622
49.35 0.01709
49.4 0.01823
49.45 0.01653
49.5 0.01258
49.55 0.00459
49.6 -0.00111
49.65 -0.00168
49.7 -0.0042
49.75 -0.00683
49.8 -0.00984
49.85 -0.01055
49.9 -0.00786
49.95 -0.00548
50 -0.00438
50.05 0.0005
50.1 -0.0011
50.15 -0.00571
50.2 -0.00523
50.25 -0.00304
50.3 -0.00497
50.35 -0.00304
50.4 -0.00172
50.45 -0.00518
50.5 -0.00751
50.55 -0.00739
50.6 -0.00933
50.65 -0.01041
50.7 -0.00962
50.75 -0.01032
50.8 -0.00803
50.85 -0.0013
50.9 0.00415
50.95 0.01144
51 0.01479
51.05 0.0198
51.1 0.01811
51.15 0.01686
51.2 0.01727
51.25 0.01538
51.3 0.01154
51.35 0.00956
51.4 0.00472
51.45 0.00171
51.5 -0.00402
51.55 -0.00455
51.6 -0.00919
51.65 -0.0094
51.7 -0.01054
51.75 -0.00751
51.8 -0.00238
51.85 0.00156
51.9 -0.00007
51.95 -0.0052
52 -0.00833
52.05 -0.0062
52.1 -0.00616
52.15 -0.00323
52.2 0.00284
52.25 0.00998
52.3 0.01801
52.35 0.02211
52.4 0.01915
52.45 0.01135
52.5 0.0049
52.55 -0.0023
52.6 -0.00498
52.65 -0.00637
52.7 -0.00762
52.75 -0.00717
52.8 -0.00872
52.85 -0.00499
52.9 -0.00415
52.95 -0.00059
53 0.00009
53.05 -0.00227
53.1 -0.00321
53.15 -0.00809
53.2 -0.0126
53.25 -0.01394
53.3 -0.01075
53.35 -0.01188
53.4 -0.01466
53.45 -0.01119
53.5 -0.00463
53.55 -0.00294
53.6 -0.00564
53.65 -0.00367
53.7 -0.00578
53.75 -0.00449
53.8 -0.00107
53.85 0.00406
53.9 0.00654
53.95 0.01104
54 0.01692
54.05 0.01761
54.1 0.0129
54.15 0.01029
54.2 0.0094
54.25 0.00879
54.3 0.00727
54.35 0.00116
54.4 -0.00363
54.45 -0.00373
54.5 -0.00127
54.55 0.0026
54.6 0.00223
54.65 -0.00092
54.7 -0.00665
54.75 -0.00723
54.8 -0.00944
54.85 -0.01038
54.9 -0.01309
54.95 -0.01118
55 -0.0117
55.05 -0.01055
55.1 -0.01219
55.15 -0.01076
55.2 -0.00475
55.25 -0.00132
55.3 -0.00223
55.35 0.00097
55.4 0.00708
55.45 0.01169
55.5 0.01769
55.55 0.024
55.6 0.02458
55.65 0.02737
55.7 0.02791
55.75 0.0239
55.8 0.01855
55.85 0.01764
55.9 0.01368
55.95 0.01184
56 0.01174
56.05 0.01181
56.1 0.00811
56.15 0.00327
56.2 0.00162
56.25 0.00051
56.3 0.00302
56.35 0.00149
56.4 -0.00078
56.45 -0.00335
56.5 -0.00881
56.55 -0.00774
56.6 -0.00765
56.65 -0.01171
56.7 -0.01122
56.75 -0.01355
56.8 -0.01047
56.85 -0.00604
56.9 -0.00649
56.95 -0.00924
57 -0.01007
57.05 -0.00721
57.1 -0.00587
57.15 -0.00698
57.2 -0.00999
57.25 -0.01025
57.3 -0.00559
57.35 -0.00148
57.4 0.00099
57.45 -0.00202
57.5 -0.00379
57.55 -0.0037
57.6 -0.00103
57.65 0.0004
57.7 0.00476
57.75 0.0024
57.8 0.00028
57.85 -0.00489
57.9 -0.00521
57.95 -0.00161
58 0.0033
58.05 0.00641
58.1 0.01011
58.15 0.01306
58.2 0.01676
58.25 0.01962
58.3 0.0168
58.35 0.01597
58.4 0.01421
58.45 0.00788
58.5 0.00179
58.55 -0.00159
58.6 -0.00532
58.65 -0.00342
58.7 -0.00579
58.75 -0.00554
58.8 -0.00515
58.85 -0.00802
58.9 -0.0136
58.95 -0.01951
59 -0.01767
59.05 -0.01489
59.1 -0.01463
59.15 -0.01209
59.2 -0.00975
59.25 -0.00438
59.3 -0.00087
59.35 0.00438
59.4 0.01053
59.45 0.01563
59.5 0.01596
59.55 0.01769
59.6 0.01365
59.65 0.01415
59.7 0.01593
59.75 0.01587
59.8 0.01809
59.85 0.01508
59.9 0.01072
59.95 0.00792
60 0.00473
60.05 -0.00048
60.1 -0.00285
60.15 -0.00333
60.2 -0.00338
60.25 -0.00217
60.3 -0.00467
60.35 -0.00975
60.4 -0.01378
60.45 -0.01779
60.5 -0.01975
60.55 -0.01832
60.6 -0.01399
60.65 -0.01098
60.7 -0.00747
60.75 -0.00108
60.8 -0.00067
60.85 -0.00057
60.9 0.00079
60.95 0.00407
61 0.00121
61.05 -0.00148
61.1 0.0006
61.15 -0.00165
61.2 -0.0039
61.25 -0.00496
61.3 -0.00727
61.35 -0.01157
61.4 -0.0161
61.45 -0.0164
61.5 -0.01397
61.55 -0.01231
61.6 -0.01076
61.65 -0.01199
61.7 -0.0088
61.75 -0.008
61.8 -0.00868
61.85 -0.0116
61.9 -0.0145
61.95 -0.01322
62 -0.01535
62.05 -0.01333
62.1 -0.00821
62.15 -0.00847
62.2 -0.01163
62.25 -0.01699
62.3 -0.02013
62.35 -0.01582
62.4 -0.00731
62.45 -0.00439
62.5 -0.00282
62.55 -0.00378
62.6 -0.00659
62.65 -0.00514
62.7 -0.00735
62.75 -0.00759
62.8 -0.0059
62.85 -0.00048
62.9 -0.00111
62.95 0.00284
63 0.00642
63.05 0.00921
63.1 0.01329
63.15 0.01441
63.2 0.01069
63.25 0.01042
63.3 0.00715
63.35 0.00255
63.4 0.0027
63.45 0.00329
63.5 0.00669
63.55 0.00382
63.6 0.00147
63.65 -0.00222
63.7 -0.00001
63.75 -0.00259
63.8 -0.00483
63.85 -0.00652
63.9 -0.00543
63.95 -0.00358
64 -0.00092
64.05 0.00156
64.1 0.00684
64.15 0.01198
64.2 0.01286
64.25 0.01377
64.3 0.01202
64.35 0.00818
64.4 0.00615
64.45 0.00011
64.5 -0.0067
64.55 -0.01229
64.6 -0.01255
64.65 -0.01549
64.7 -0.01282
64.75 -0.00544
64.8 0.00143
64.85 0.00644
64.9 0.01282
64.95 0.01355
65 0.01318
65.05 0.00812
65.1 0.00131
65.15 -0.00237
65.2 -0.00353
65.25 -0.0041
65.3 -0.00766
65.35 -0.00617
65.4 -0.00778
65.45 -0.01154
65.5 -0.01584
65.55 -0.01925
65.6 -0.02091
65.65 -0.01696
65.7 -0.01363
65.75 -0.01473
65.8 -0.01052
65.85 -0.00906
65.9 -0.01153
65.95 -0.01207
66 -0.01085
66.05 -0.00637
66.1 -0.00722
66.15 -0.00358
66.2 -0.00036
66.25 0.0052
66.3 0.00828
66.35 0.0108
66.4 0.01555
66.45 0.01642
66.5 0.01263
66.55 0.00981
66.6 0.00649
66.65 0.00579
66.7 0.00119
66.75 0.0008
66.8 0.00087
66.85 -0.00245
66.9 -0.00706
66.95 -0.00572
67 -0.00622
67.05 -0.01043
67.1 -0.01247
67.15 -0.00968
67.2 -0.00327
67.25 0.00566
67.3 0.01232
67.35 0.013
67.4 0.01592
67.45 0.01452
67.5 0.01105
67.55 0.0057
67.6 -0.00117
67.65 -0.00374
67.7 -0.00889
67.75 -0.01512
67.8 -0.02006
67.85 -0.01766
67.9 -0.01722
67.95 -0.01109
68 -0.00514
68.05 0.00201
68.1 0.00791
68.15 0.00692
68.2 0.00937
68.25 0.01404
68.3 0.01723
68.35 0.02039
68.4 0.02029
68.45 0.01959
68.5 0.01851
68.55 0.01461
68.6 0.01183
68.65 0.00802
68.7 0.0049
68.75 0.00051
68.8 -0.00523
68.85 -0.00655
68.9 -0.0101
68.95 -0.01187
69 -0.01375
69.05 -0.0149
69.1 -0.01034
69.15 -0.00549
69.2 0.00011
69.25 0.0004
69.3 -0.00043
69.35 -0.00457
69.4 -0.00696
69.45 -0.01013
69.5 -0.01093
69.55 -0.00807
69.6 -0.00086
69.65 0.00351
69.7 0.00458
69.75 0.00302
69.8 0.00337
69.85 0.00736
69.9 0.00654
69.95 0.00914
70 0.00626
70.05 0.00581
70.1 0.00204
70.15 -0.0025
70.2 -0.00403
70.25 -0.00474
70.3 -0.00346
70.35 0.00081
70.4 0.0055
70.45 0.00821
70.5 0.00622
70.55 0.00541
70.6 0.00635
70.65 0.01
70.7 0.01136
70.75 0.00975
70.8 0.01095
70.85 0.01403
70.9 0.01108
70.95 0.01043
71 0.0106
71.05 0.01414
71.1 0.01411
71.15 0.0083
71.2 0.00527
71.25 0.0055
71.3 0.00936
71.35 0.01469
71.4 0.01221
71.45 0.01386
71.5 0.01562
71.55 0.01175
71.6 0.00619
71.65 0.00278
71.7 -0.00157
71.75 -0.00297
71.8 -0.00308
71.85 -0.00717
71.9 -0.00815
71.95 -0.00851
72 -0.00474
72.05 0.00241
72.1 0.0074
72.15 0.00699
72.2 0.00976
72.25 0.01318
72.3 0.01515
72.35 0.01111
72.4 0.00996
72.45 0.00642
72.5 0.00134
72.55 0.00154
72.6 0.00287
72.65 0.00317
72.7 0.00681
72.75 0.00853
72.8 0.00836
72.85 0.0112
72.9 0.01312
72.95 0.01058
73 0.00485
73.05 0.00387
73.1 0.00078
73.15 0.00245
73.2 0.00676
73.25 0.00491
73.3 0.00297
73.35 -0.00336
73.4 -0.00543
73.45 -0.0083
73.5 -0.01444
73.55 -0.0201
73.6 -0.02092
73.65 -0.02122
73.7 -0.02235
73.75 -0.01836
73.8 -0.01686
73.85 -0.01054
73.9 -0.00966
73.95 -0.00486
74 -0.00615
74.05 -0.004
74.1 0.00193
74.15 0.00217
74.2 0.00402
74.25 0.00099
74.3 -0.0016
74.35 -0.00222
74.4 -0.00718
74.45 -0.00619
74.5 -0.00277
74.55 -0.003
74.6 -0.00661
74.65 -0.0051
74.7 0.00023
74.75 0.00164
74.8 0.00601
74.85 0.00538
74.9 0.00856
74.95 0.01261
75 0.01637
75.05 0.01324
75.1 0.01102
75.15 0.00754
75.2 0.0049
75.25 0.00094
75.3 -0.00359
75.35 -0.00571
75.4 -0.00429
75.45 -0.0028
75.5 -0.00518
75.55 -0.0042
75.6 -0.00047
75.65 0.00038
75.7 0.00101
75.75 0.00075
75.8 0.00026
75.85 0.0016
75.9 0.00331
75.95 -0.00023
76 -0.00736
76.05 -0.01561
76.1 -0.02372
76.15 -0.02689
76.2 -0.0278
76.25 -0.02385
76.3 -0.0188
76.35 -0.01871
76.4 -0.01544
76.45 -0.01013
76.5 -0.00553
76.55 0.00102
76.6 0.00707
76.65 0.0067
76.7 0.00668
76.75 0.00448
76.8 0.00504
76.85 0.00074
76.9 -0.00455
76.95 -0.00514
77 -0.00137
77.05 0.00401
77.1 0.00448
77.15 0.00513
77.2 0.00423
77.25 0.00191
77.3 -0.0027
77.35 -0.00687
77.4 -0.00831
77.45 -0.00485
77.5 -0.00687
77.55 -0.00883
77.6 -0.0122
77.65 -0.01099
77.7 -0.01305
77.75 -0.00971
77.8 -0.00704
77.85 -0.00764
77.9 -0.00858
77.95 -0.01159
78 -0.0101
78.05 -0.0096
78.1 -0.01268
78.15 -0.00946
78.2 -0.00301
78.25 0.00507
78.3 0.00812
78.35 0.00577
78.4 0.00475
78.45 0.00437
78.5 0.00439
78.55 -0.00034
78.6 -0.00551
78.65 -0.00373
78.7 0.00126
78.75 0.00373
78.8 0.00102
78.85 0.00341
78.9 0.0077
78.95 0.00688
79 0.00167
79.05 -0.00417
79.1 -0.00574
79.15 -0.00832
79.2 -0.01011
79.25 -0.01209
79.3 -0.0097
79.35 -0.00391
79.4 -0.0033
79.45 -0.00441
79.5 -0.00677
79.55 -0.01189
79.6 -0.0133
79.65 -0.00871
79.7 -0.00492
79.75 0.00167
79.8 0.00238
79.85 0.00209
79.9 0.00524
79.95 0.00906
80 0.00784
80.05 0.00435
80.1 0.00006
80.15 -0.00238
80.2 -0.00191
80.25 -0.00103
80.3 0.00332
80.35 0.00879
80.4 0.01323
80.45 0.0105
80.5 0.00444
80.55 0.00285
80.6 0.00115
80.65 0.00205
80.7 0.00109
80.75 -0.00038
80.8 0.00136
80.85 -0.00072
80.9 -0.00362
80.95 -0.00376
81 -0.00665
81.05 -0.00775
81.1 -0.00518
81.15 -0.00675
81.2 -0.0056
81.25 0.00022
81.3 -0.00052
81.35 0.00125
81.4 0.00146
81.45 0.0009
81.5 0.00115
81.55 0.00134
81.6 -0.00007
81.65 0.00138
81.7 0.00135
81.75 0.00114
81.8 0.00255
81.85 0.00437
81.9 0.00726
81.95 0.00799
82 0.00765
82.05 0.00481
82.1 0.00535
82.15 0.00239
82.2 0.0035
82.25 0.0051
82.3 0.00506
82.35 0.00331
82.4 0.00093
82.45 -0.00233
82.5 -0.00568
82.55 -0.01025
82.6 -0.0136
82.65 -0.01314
82.7 -0.0073
82.75 -0.00492
82.8 0.00135
82.85 0.00323
82.9 0.00517
82.95 0.00211
83 0.00035
83.05 0.00145
83.1 0.00532
83.15 0.00809
83.2 0.01221
83.25 0.017
83.3 0.01858
83.35 0.02227
83.4 0.02605
83.45 0.02901
83.5 0.02521
83.55 0.01706
83.6 0.00609
83.65 0.00019
83.7 -0.00628
83.75 -0.00712
83.8 -0.00915
83.85 -0.00965
83.9 -0.00802
83.95 -0.00342
84 -0.00486
84.05 -0.00978
84.1 -0.01452
84.15 -0.01533
84.2 -0.01278
84.25 -0.0122
84.3 -0.00774
84.35 -0.00372
84.4 -0.00119
84.45 -0.00389
84.5 -0.00582
84.55 -0.0027
84.6 -0.00325
84.65 0.00084
84.7 0.00212
84.75 0.00594
84.8 0.00977
84.85 0.01571
84.9 0.02204
84.95 0.02723
85 0.03223
85.05 0.0284
85.1 0.02104
85.15 0.01839
85.2 0.01488
85.25 0.00656
85.3 -0.00189
85.35 -0.00547
85.4 -0.00797
85.45 -0.00901
85.5 -0.00781
85.55 -0.00973
85.6 -0.01329
85.65 -0.01228
85.7 -0.00737
85.75 -0.00026
85.8 0.00711
85.85 0.00901
85.9 0.01146
85.95 0.01388
86 0.01008
86.05 0.00238
86.1 -0.0049
86.15 -0.00914
86.2 -0.01345
86.25 -0.01668
86.3 -0.01926
86.35 -0.02371
86.4 -0.02869
86.45 -0.02814
86.5 -0.02109
86.55 -0.01876
86.6 -0.01407
86.65 -0.0063
86.7 -0.00189
86.75 0.0022
86.8 0.0002
86.85 0.0008
86.9 -0.00167
86.95 -0.00645
87 -0.00908
87.05 -0.00697
87.1 -0.00898
87.15 -0.01341
87.2 -0.0151
87.25 -0.01678
87.3 -0.01786
87.35 -0.01569
87.4 -0.01072
87.45 -0.00444
87.5 -0.00219
87.55 -0.00131
87.6 0.00132
87.65 0.00075
87.7 -0.00265
87.75 -0.00316
87.8 -0.00558
87.85 -0.01096
87.9 -0.01755
87.95 -0.02395
88 -0.02202
88.05 -0.02018
88.1 -0.01803
88.15 -0.0168
88.2 -0.01632
88.25 -0.01036
88.3 -0.00222
88.35 0.00178
88.4 0.00558
88.45 0.00416
88.5 0.00131
88.55 -0.0007
88.6 -0.0044
88.65 -0.00576
88.7 -0.00383
88.75 -0.00101
88.8 -0.00194
88.85 -0.00427
88.9 -0.00786
88.95 -0.01063
89 -0.00903
89.05 -0.00303
89.1 -0.00123
89.15 -0.00032
89.2 0.00193
89.25 0.00301
89.3 0.00217
89.35 0.00606
89.4 0.0042
89.45 0.00097
89.5 0.00287
89.55 0.00597
89.6 0.0063
89.65 0.00619
89.7 0.00256
89.75 -0.00044
89.8 0.00233
89.85 0.00441
89.9 0.00397
89.95 0.00271
90 -0.00219
90.05 -0.00299
90.1 -0.00651
90.15 -0.01131
90.2 -0.01364
90.25 -0.01267
90.3 -0.01519
90.35 -0.01638
90.4 -0.01247
90.45 -0.0062
90.5 0.00154
90.55 0.00835
90.6 0.0137
90.65 0.0188
90.7 0.0249
90.75 0.02498
90.8 0.02045
90.85 0.01367
90.9 0.0078
90.95 0.00661
91 0.00215
91.05 -0.00215
91.1 -0.00589
91.15 -0.0097
91.2 -0.01543
91.25 -0.01445
91.3 -0.01353
91.35 -0.00889
91.4 -0.00214
91.45 0.00523
91.5 0.01347
91.55 0.01957
91.6 0.01842
91.65 0.01931
91.7 0.01849
91.75 0.01277
91.8 0.01062
91.85 0.00576
91.9 0.0048
91.95 -0.00032
92 -0.00296
92.05 -0.00595
92.1 -0.00279
92.15 -0.00307
92.2 -0.00456
92.25 -0.00604
92.3 -0.00318
92.35 0.0035
92.4 0.00798
92.45 0.00909
92.5 0.01363
92.55 0.01204
92.6 0.01138
92.65 0.00705
92.7 0.00183
92.75 0.00252
92.8 0.00583
92.85 0.01189
92.9 0.01707
92.95 0.01801
93 0.01976
93.05 0.0217
93.1 0.01869
93.15 0.01867
93.2 0.01339
93.25 0.00865
93.3 0.00551
93.35 0.00092
93.4 -0.00428
93.45 -0.01037
93.5 -0.01688
93.55 -0.02351
93.6 -0.02837
93.65 -0.03311
93.7 -0.03041
93.75 -0.02853
93.8 -0.02728
93.85 -0.02042
93.9 -0.01761
93.95 -0.01824
94 -0.01406
94.05 -0.01293
94.1 -0.01503
94.15 -0.01393
94.2 -0.00774
94.25 -0.00105
94.3 0.00513
94.35 0.01332
94.4 0.01983
94.45 0.01969
94.5 0.02175
94.55 0.02041
94.6 0.01515
94.65 0.01498
94.7 0.0177
94.75 0.01516
94.8 0.01339
94.85 0.01147
94.9 0.0053
94.95 0.00132
95 0.00196
95.05 0.00548
95.1 0.01028
95.15 0.01451
95.2 0.01158
95.25 0.00584
95.3 0.00532
95.35 0.00854
95.4 0.01064
95.45 0.01163
95.5 0.01542
95.55 0.02016
95.6 0.02119
95.65 0.01871
95.7 0.01254
95.75 0.00447
95.8 -0.00142
95.85 -0.00805
95.9 -0.01306
95.95 -0.01632
96 -0.02096
96.05 -0.02235
96.1 -0.02473
96.15 -0.0211
96.2 -0.02055
96.25 -0.01403
96.3 -0.01169
96.35 -0.01121
96.4 -0.0106
96.45 -0.00478
96.5 0.00284
96.55 0.00842
96.6 0.011
96.65 0.00798
96.7 0.00645
96.75 0.00203
96.8 -0.00305
96.85 -0.00524
96.9 -0.00525
96.95 -0.00233
97 -0.00134
97.05 -0.00415
97.1 -0.00475
97.15 -0.00695
97.2 -0.01228
97.25 -0.01049
97.3 -0.00733
97.35 -0.00226
97.4 0.00306
97.45 0.00994
97.5 0.01061
97.55 0.01243
97.6 0.01664
97.65 0.02165
97.7 0.02404
97.75 0.02571
97.8 0.02348
97.85 0.02047
97.9 0.01893
97.95 0.01579
98 0.01551
98.05 0.01565
98.1 0.0182
98.15 0.01797
98.2 0.01969
98.25 0.01916
98.3 0.01235
98.35 0.0037
98.4 -0.00295
98.45 -0.00431
98.5 -0.00244
98.55 -0.00514
98.6 -0.00245
98.65 -0.0026
98.7 -0.00728
98.75 -0.01412
98.8 -0.01627
98.85 -0.01633
98.9 -0.01352
98.95 -0.01447
99 -0.01507
99.05 -0.01002
99.1 -0.00758
99.15 -0.00736
99.2 -0.00428
99.25 -0.00611
99.3 -0.00808
99.35 -0.01071
99.4 -0.01133
99.45 -0.00903
99.5 -0.01127
99.55 -0.01629
99.6 -0.02163
99.65 -0.02628
99.7 -0.02991
99.75 -0.03392
99.8 -0.03318
99.85 -0.03332
99.9 -0.03258
99.95 -0.02814
