0 0
0.05 0.00696
0.1 0.01958
0.15 0.03261
0.2 0.04656
0.25 0.05395
0.3 0.06244
0.35 0.06288
0.4 0.06046
0.45 0.05818
0.5 0.05914
0.55 0.0604
0.6 0.0609
0.65 0.06011
0.7 0.0543
0.75 0.04671
0.8 0.03954
0.85 0.03904
0.9 0.04279
0.95 0.0475
1 0.05083
1.05 0.05402
1.1 0.05958
1.15 0.05719
1.2 0.05685
1.25 0.05947
1.3 0.05995
1.35 0.05434
1.4 0.05102
1.45 0.05182
1.5 0.05143
1.55 0.04532
1.6 0.03727
1.65 0.03021
1.7 0.02814
1.75 0.02643
1.8 0.02837
1.85 0.02738
1.9 0.02755
1.95 0.0322
2 0.03602
2.05 0.04209
2.1 0.04168
2.15 0.0433
2.2 0.04032
2.25 0.03814
2.3 0.03467
2.35 0.03642
2.4 0.03517
2.45 0.02941
2.5 0.0237
2.55 0.01643
2.6 0.01465
2.65 0.01427
2.7 0.01157
2.75 0.00767
2.8 0.00251
2.85 -0.00161
2.9 -0.0021
2.95 -0.00281
3 -0.00352
3.05 -0.00172
3.1 -0.00217
3.15 0.00279
3.2 0.0121
3.25 0.0179
3.3 0.02651
3.35 0.0282
3.4 0.02919
3.45 0.02731
3.5 0.02397
3.55 0.02504
3.6 0.02532
3.65 0.02738
3.7 0.03
3.75 0.03202
3.8 0.03465
3.85 0.03794
3.9 0.0353
3.95 0.03022
4 0.02856
4.05 0.02819
4.1 0.02762
4.15 0.02692
4.2 0.0278
4.25 0.02394
4.3 0.01514
4.35 0.00901
4.4 0.00288
4.45 -0.00583
4.5 -0.01247
4.55 -0.01966
4.6 -0.02715
4.65 -0.04315
4.7 -0.06295
4.75 -0.08591
4.8 -0.11208
4.85 -0.13577
4.9 -0.16254
4.95 -0.1965
5 -0.23017
5.05 -0.26882
5.1 -0.31138
5.15 -0.35747
5.2 -0.41085
5.25 -0.47452
5.3 -0.54847
5.35 -0.62225
5.4 -0.69507
5.45 -0.7714
5.5 -0.84701
5.55 -0.92826
5.6 -1.01071
5.65 -1.09549
5.7 -1.18218
5.75 -1.26144
5.8 -1.33577
5.85 -1.4075
5.9 -1.47395
5.95 -1.53421
6 -1.58525
6.05 -1.62481
6.1 -1.65626
6.15 -1.68328
6.2 -1.70353
6.25 -1.71492
6.3 -1.7206
6.35 -1.71668
6.4 -1.70643
6.45 -1.6874
6.5 -1.66201
6.55 -1.63539
6.6 -1.60448
6.65 -1.56687
6.7 -1.51593
6.75 -1.45322
6.8 -1.3836
6.85 -1.298
6.9 -1.20404
6.95 -1.0998
7 -0.98783
7.05 -0.8717
7.1 -0.7433
7.15 -0.60676
7.2 -0.46426
7.25 -0.32286
7.3 -0.18326
7.35 -0.04663
7.4 0.0937
7.45 0.23133
7.5 0.36927
7.55 0.50259
7.6 0.62605
7.65 0.7401
7.7 0.84697
7.75 0.94778
7.8 1.0368
7.85 1.12044
7.9 1.19502
7.95 1.25327
8 1.30475
8.05 1.34387
8.1 1.37217
8.15 1.39641
8.2 1.41038
8.25 1.42391
8.3 1.42789
8.35 1.42574
8.4 1.42702
8.45 1.42176
8.5 1.41904
8.55 1.41179
8.6 1.4004
8.65 1.38651
8.7 1.37084
8.75 1.36098
8.8 1.35424
8.85 1.34158
8.9 1.32813
8.95 1.31215
9 1.29604
9.05 1.28177
9.1 1.27254
9.15 1.26184
9.2 1.24516
9.25 1.2321
9.3 1.21706
9.35 1.20473
9.4 1.18613
9.45 1.17175
9.5 1.15872
9.55 1.14004
9.6 1.12057
9.65 1.09784
9.7 1.07808
9.75 1.05738
9.8 1.03578
9.85 1.01956
9.9 1.0019
9.95 0.98708
10 0.96906
10.05 0.94428
10.1 0.91876
10.15 0.88986
10.2 0.86018
10.25 0.82901
10.3 0.79913
10.35 0.77266
10.4 0.74978
10.45 0.72467
10.5 0.70416
10.55 0.6828
10.6 0.66177
10.65 0.6397
10.7 0.61592
10.75 0.58818
10.8 0.56078
10.85 0.5351
10.9 0.51159
10.95 0.48486
11 0.45233
11.05 0.4173
11.1 0.3884
11.15 0.35578
11.2 0.32384
11.25 0.2901
11.3 0.25861
11.35 0.22612
11.4 0.2016
11.45 0.18056
11.5 0.16355
11.55 0.14677
11.6 0.12938
11.65 0.10709
11.7 0.08439
11.75 0.0665
11.8 0.04504
11.85 0.02177
11.9 -0.00302
11.95 -0.02843
12 -0.05106
12.05 -0.06568
12.1 -0.07598
12.15 -0.08574
12.2 -0.09261
12.25 -0.10231
12.3 -0.10925
12.35 -0.12203
12.4 -0.13281
12.45 -0.14077
12.5 -0.14877
12.55 -0.15892
12.6 -0.16526
12.65 -0.17176
12.7 -0.17923
12.75 -0.18719
12.8 -0.19603
12.85 -0.20176
12.9 -0.20642
12.95 -0.21187
13 -0.22022
13.05 -0.2264
13.1 -0.2318
13.15 -0.23538
13.2 -0.24128
13.25 -0.24876
13.3 -0.24948
13.35 -0.25306
13.4 -0.25039
13.45 -0.24724
13.5 -0.24166
13.55 -0.23412
13.6 -0.23469
13.65 -0.23373
13.7 -0.23109
13.75 -0.23256
13.8 -0.23166
13.85 -0.23173
13.9 -0.23365
13.95 -0.23235
14 -0.22932
14.05 -0.22314
14.1 -0.22254
14.15 -0.21974
14.2 -0.21534
14.25 -0.2084
14.3 -0.20908
14.35 -0.20921
14.4 -0.21081
14.45 -0.20775
14.5 -0.20521
14.55 -0.19899
14.6 -0.19082
14.65 -0.189
14.7 -0.18642
14.75 -0.18495
14.8 -0.18853
14.85 -0.19362
14.9 -0.20041
14.95 -0.20076
15 -0.19823
15.05 -0.19362
15.1 -0.19182
15.15 -0.18678
15.2 -0.18689
15.25 -0.18486
15.3 -0.18238
15.35 -0.17845
15.4 -0.17418
15.45 -0.17484
15.5 -0.17664
15.55 -0.1728
15.6 -0.17169
15.65 -0.17246
15.7 -0.1739
15.75 -0.17131
15.8 -0.16646
15.85 -0.15656
15.9 -0.14827
15.95 -0.14376
16 -0.13996
16.05 -0.13499
16.1 -0.12816
16.15 -0.12512
16.2 -0.12122
16.25 -0.12217
16.3 -0.12676
16.35 -0.13187
16.4 -0.13474
16.45 -0.13188
16.5 -0.13176
16.55 -0.12788
16.6 -0.12448
16.65 -0.12175
16.7 -0.12114
16.75 -0.1174
16.8 -0.11439
16.85 -0.1128
16.9 -0.10693
16.95 -0.10592
17 -0.09989
17.05 -0.09988
17.1 -0.0951
17.15 -0.09521
17.2 -0.09014
17.25 -0.08851
17.3 -0.08963
17.35 -0.09126
17.4 -0.09082
17.45 -0.09316
17.5 -0.08952
17.55 -0.08647
17.6 -0.08556
17.65 -0.0871
17.7 -0.08956
17.75 -0.09213
17.8 -0.08788
17.85 -0.08761
17.9 -0.08927
17.95 -0.09073
18 -0.08521
18.05 -0.08067
18.1 -0.07705
18.15 -0.07543
18.2 -0.07335
18.25 -0.07444
18.3 -0.07767
18.35 -0.07992
18.4 -0.07846
18.45 -0.07902
18.5 -0.07795
18.55 -0.07221
18.6 -0.07112
18.65 -0.06967
18.7 -0.07159
18.75 -0.06767
18.8 -0.06033
18.85 -0.05138
18.9 -0.0411
18.95 -0.03738
19 -0.03762
19.05 -0.03406
19.1 -0.03165
19.15 -0.03419
19.2 -0.03704
19.25 -0.03998
19.3 -0.04587
19.35 -0.04681
19.4 -0.04522
19.45 -0.04365
19.5 -0.04441
19.55 -0.04491
19.6 -0.0481
19.65 -0.04634
19.7 -0.04317
19.75 -0.04313
19.8 -0.04672
19.85 -0.05163
19.9 -0.05252
19.95 -0.05155
20 -0.04721
20.05 -0.04034
20.1 -0.03977
20.15 -0.04105
20.2 -0.0449
20.25 -0.04286
20.3 -0.04505
20.35 -0.04189
20.4 -0.03885
20.45 -0.0372
20.5 -0.03481
20.55 -0.03086
20.6 -0.03219
20.65 -0.03498
20.7 -0.038
20.75 -0.04164
20.8 -0.03949
20.85 -0.03961
20.9 -0.03378
20.95 -0.03371
21 -0.02991
21.05 -0.02925
21.1 -0.03264
21.15 -0.03715
21.2 -0.03669
21.25 -0.03784
21.3 -0.03784
21.35 -0.03592
21.4 -0.03039
21.45 -0.02465
21.5 -0.02187
21.55 -0.01779
21.6 -0.01463
21.65 -0.01327
21.7 -0.01373
21.75 -0.01044
21.8 -0.00635
21.85 -0.0069
21.9 -0.0061
21.95 -0.01014
22 -0.01492
22.05 -0.01595
22.1 -0.01846
22.15 -0.01589
22.2 -0.01839
22.25 -0.01709
22.3 -0.02059
22.35 -0.0271
22.4 -0.0347
22.45 -0.03799
22.5 -0.03602
22.55 -0.03476
22.6 -0.02785
22.65 -0.02272
22.7 -0.02214
22.75 -0.01915
22.8 -0.01997
22.85 -0.02394
22.9 -0.02814
22.95 -0.02521
23 -0.02172
23.05 -0.02121
23.1 -0.01762
23.15 -0.01536
23.2 -0.01369
23.25 -0.012
23.3 -0.00821
23.35 -0.0022
23.4 0.00318
23.45 0.00448
23.5 0.00703
23.55 0.00888
23.6 0.00646
23.65 0.00064
23.7 -0.00067
23.75 -0.00664
23.8 -0.00888
23.85 -0.01245
23.9 -0.01268
23.95 -0.00995
24 -0.01225
24.05 -0.00923
24.1 -0.00589
24.15 -0.00634
24.2 -0.00523
24.25 -0.00144
24.3 0.00188
24.35 0.0055
24.4 0.00324
24.45 0.00461
24.5 0.00232
24.55 -0.00067
24.6 -0.00718
24.65 -0.01368
24.7 -0.01499
24.75 -0.01125
24.8 -0.00563
24.85 0.00173
24.9 0.00777
24.95 0.01294
25 0.01169
25.05 0.01009
25.1 0.00881
25.15 0.00696
25.2 0.00893
25.25 0.00422
25.3 0.00398
25.35 -0.0005
25.4 0.00048
25.45 0.00016
25.5 -0.00131
25.55 0.00043
25.6 -0.00144
25.65 -0.00017
25.7 -0.00327
25.75 -0.0063
25.8 -0.00696
25.85 -0.00981
25.9 -0.01165
25.95 -0.01676
26 -0.02101
26.05 -0.02331
26.1 -0.02724
26.15 -0.03145
26.2 -0.03288
26.25 -0.02929
26.3 -0.02759
26.35 -0.02725
26.4 -0.02572
26.45 -0.02329
26.5 -0.02086
26.55 -0.01493
26.6 -0.01447
26.65 -0.01795
26.7 -0.02132
26.75 -0.0256
26.8 -0.03084
26.85 -0.03429
26.9 -0.03558
26.95 -0.02968
27 -0.02396
27.05 -0.0172
27.1 -0.00935
27.15 -0.00566
27.2 -0.00317
27.25 0.00306
27.3 0.0063
27.35 0.00382
27.4 0.0011
27.45 -0.0037
27.5 -0.00305
27.55 -0.00504
27.6 -0.00907
27.65 -0.00769
27.7 -0.0037
27.75 -0.00339
27.8 -0.00819
27.85 -0.01417
27.9 -0.01937
27.95 -0.02442
28 -0.02799
28.05 -0.03012
28.1 -0.02927
28.15 -0.03302
28.2 -0.03385
28.25 -0.03421
28.3 -0.037
28.35 -0.04252
28.4 -0.0495
28.45 -0.06038
28.5 -0.07844
28.55 -0.10137
28.6 -0.12712
28.65 -0.15548
28.7 -0.18359
28.75 -0.20734
28.8 -0.232
28.85 -0.26117
28.9 -0.29033
28.95 -0.32424
29 -0.36223
29.05 -0.39548
29.1 -0.4315
29.15 -0.47385
29.2 -0.51704
29.25 -0.55949
29.3 -0.60706
29.35 -0.65287
29.4 -0.69818
29.45 -0.74754
29.5 -0.79742
29.55 -0.84441
29.6 -0.89183
29.65 -0.94129
29.7 -0.98762
29.75 -1.02566
29.8 -1.05946
29.85 -1.08483
29.9 -1.10814
29.95 -1.12142
30 -1.12655
30.05 -1.12682
30.1 -1.11654
30.15 -1.0997
30.2 -1.07475
30.25 -1.04736
30.3 -1.01223
30.35 -0.96772
30.4 -0.91389
30.45 -0.85141
30.5 -0.78249
30.55 -0.70695
30.6 -0.62473
30.65 -0.5351
30.7 -0.44353
30.75 -0.34514
30.8 -0.24598
30.85 -0.14901
30.9 -0.05276
30.95 0.03914
31 0.1267
31.05 0.20546
31.1 0.27736
31.15 0.34668
31.2 0.41559
31.25 0.4761
31.3 0.53173
31.35 0.58288
31.4 0.63566
31.45 0.68468
31.5 0.72341
31.55 0.75933
31.6 0.79161
31.65 0.81568
31.7 0.83932
31.75 0.85887
31.8 0.86887
31.85 0.87262
31.9 0.87603
31.95 0.88069
32 0.8825
32.05 0.88231
32.1 0.88041
32.15 0.87435
32.2 0.86797
32.25 0.85837
32.3 0.85213
32.35 0.84498
32.4 0.83797
32.45 0.8353
32.5 0.83185
32.55 0.82309
32.6 0.812
32.65 0.80142
32.7 0.79146
32.75 0.78565
32.8 0.77685
32.85 0.77061
32.9 0.76305
32.95 0.75311
33 0.74362
33.05 0.72784
33.1 0.70808
33.15 0.68948
33.2 0.67375
33.25 0.65445
33.3 0.63557
33.35 0.61638
33.4 0.59715
33.45 0.57792
33.5 0.56085
33.55 0.54525
33.6 0.53246
33.65 0.52076
33.7 0.50748
33.75 0.49417
33.8 0.4738
33.85 0.45332
33.9 0.43278
33.95 0.41197
34 0.39166
34.05 0.37335
34.1 0.35191
34.15 0.32762
34.2 0.30513
34.25 0.28664
34.3 0.27278
34.35 0.25715
34.4 0.24322
34.45 0.22487
34.5 0.20941
34.55 0.19467
34.6 0.18199
34.65 0.16406
34.7 0.14342
34.75 0.12535
34.8 0.11268
34.85 0.10239
34.9 0.09094
34.95 0.07724
35 0.06678
35.05 0.05333
35.1 0.04133
35.15 0.03256
35.2 0.02511
35.25 0.01508
35.3 0.00479
35.35 -0.00542
35.4 -0.01097
35.45 -0.01873
35.5 -0.02517
35.55 -0.02841
35.6 -0.03492
35.65 -0.03819
35.7 -0.04454
35.75 -0.05596
35.8 -0.06492
35.85 -0.07591
35.9 -0.08439
35.95 -0.09054
36 -0.0951
36.05 -0.09813
36.1 -0.09955
36.15 -0.10058
36.2 -0.10243
36.25 -0.1087
36.3 -0.10931
36.35 -0.1141
36.4 -0.11863
36.45 -0.11924
36.5 -0.11862
36.55 -0.12176
36.6 -0.12525
36.65 -0.12458
36.7 -0.1244
36.75 -0.12063
36.8 -0.12302
36.85 -0.12774
36.9 -0.13375
36.95 -0.13338
37 -0.13014
37.05 -0.13085
37.1 -0.13383
37.15 -0.13349
37.2 -0.13493
37.25 -0.13532
37.3 -0.13844
37.35 -0.13984
37.4 -0.13916
37.45 -0.13712
37.5 -0.13683
37.55 -0.132
37.6 -0.12891
37.65 -0.12778
37.7 -0.12601
37.75 -0.12069
37.8 -0.11582
37.85 -0.10831
37.9 -0.10401
37.95 -0.10335
38 -0.10361
38.05 -0.10571
38.1 -0.10565
38.15 -0.10263
38.2 -0.09898
38.25 -0.10074
38.3 -0.10382
38.35 -0.10629
38.4 -0.10718
38.45 -0.10771
38.5 -0.11225
38.55 -0.11233
38.6 -0.11332
38.65 -0.11574
38.7 -0.11792
38.75 -0.12104
38.8 -0.12302
38.85 -0.12409
38.9 -0.11851
38.95 -0.11573
39 -0.10706
39.05 -0.0972
39.1 -0.09237
39.15 -0.08424
39.2 -0.08183
39.25 -0.08236
39.3 -0.08441
39.35 -0.0832
39.4 -0.08491
39.45 -0.08925
39.5 -0.08933
39.55 -0.08561
39.6 -0.08638
39.65 -0.08996
39.7 -0.08972
39.75 -0.0842
39.8 -0.07833
39.85 -0.0737
39.9 -0.06989
39.95 -0.06333
40 -0.06237
40.05 -0.05996
40.1 -0.05961
40.15 -0.05774
40.2 -0.05211
40.25 -0.04921
40.3 -0.05191
40.35 -0.05598
40.4 -0.05679
40.45 -0.06061
40.5 -0.05822
40.55 -0.0571
40.6 -0.06064
40.65 -0.06313
40.7 -0.06557
40.75 -0.06119
40.8 -0.06024
40.85 -0.06248
40.9 -0.06221
40.95 -0.06251
41 -0.06143
41.05 -0.06004
41.1 -0.05919
41.15 -0.05266
41.2 -0.0484
41.25 -0.04049
41.3 -0.03919
41.35 -0.03686
41.4 -0.0363
41.45 -0.0358
41.5 -0.03434
41.55 -0.03623
41.6 -0.03886
41.65 -0.03578
41.7 -0.03094
41.75 -0.02694
41.8 -0.02164
41.85 -0.01529
41.9 -0.00995
41.95 -0.00407
42 -0.00557
42.05 -0.0094
42.1 -0.00929
42.15 -0.00879
42.2 -0.01283
42.25 -0.01972
42.3 -0.02642
42.35 -0.03016
42.4 -0.031
42.45 -0.03021
42.5 -0.02882
42.55 -0.02561
42.6 -0.02045
42.65 -0.01747
42.7 -0.01654
42.75 -0.01343
42.8 -0.01255
42.85 -0.01373
42.9 -0.01713
42.95 -0.02094
43 -0.02255
43.05 -0.02601
43.1 -0.02504
43.15 -0.02821
43.2 -0.02852
43.25 -0.02918
43.3 -0.02596
43.35 -0.02476
43.4 -0.02605
43.45 -0.02232
43.5 -0.02224
43.55 -0.01958
43.6 -0.02277
43.65 -0.02512
43.7 -0.02464
43.75 -0.02542
43.8 -0.02487
43.85 -0.02231
43.9 -0.02374
43.95 -0.02458
44 -0.02087
44.05 -0.01423
44.1 -0.01341
44.15 -0.01072
44.2 -0.01161
44.25 -0.01545
44.3 -0.0174
44.35 -0.02074
44.4 -0.01989
44.45 -0.023
44.5 -0.02653
44.55 -0.0301
44.6 -0.03491
44.65 -0.04006
44.7 -0.0435
44.75 -0.04773
44.8 -0.04731
44.85 -0.04088
44.9 -0.0328
44.95 -0.02736
45 -0.02476
45.05 -0.0252
45.1 -0.02385
45.15 -0.01827
45.2 -0.01322
45.25 -0.00858
45.3 -0.00807
45.35 -0.00406
45.4 -0.00448
45.45 -0.00302
45.5 -0.00306
45.55 -0.00535
45.6 -0.00435
45.65 -0.00292
45.7 -0.00169
45.75 0.00177
45.8 0.00105
45.85 -0.00036
45.9 -0.00066
45.95 -0.00242
46 -0.0039
46.05 -0.00328
46.1 -0.0012
46.15 0.00157
46.2 0.00571
46.25 0.00396
46.3 0.00567
46.35 0.00973
46.4 0.01086
46.45 0.01339
46.5 0.01567
46.55 0.01191
46.6 0.00429
46.65 0.00241
46.7 0.00052
46.75 0.00212
46.8 0.00411
46.85 0.00773
46.9 0.01263
46.95 0.01511
47 0.01261
47.05 0.01045
47.1 0.00765
47.15 0.00042
47.2 -0.0036
47.25 -0.00552
47.3 -0.01174
47.35 -0.01453
47.4 -0.01941
47.45 -0.02537
47.5 -0.0263
47.55 -0.02695
47.6 -0.02568
47.65 -0.02541
47.7 -0.0234
47.75 -0.02228
47.8 -0.02404
47.85 -0.0278
47.9 -0.02564
47.95 -0.02545
48 -0.02164
48.05 -0.02045
48.1 -0.02324
48.15 -0.01985
48.2 -0.01844
48.25 -0.01631
48.3 -0.01001
48.35 -0.00958
48.4 -0.00711
48.45 -0.00708
48.5 -0.00375
48.55 0.00037
48.6 0.00046
48.65 0.00066
48.7 0.00469
48.75 0.00664
48.8 0.0051
48.85 -0.00003
48.9 -0.00589
48.95 -0.00921
49 -0.01203
49.05 -0.01693
49.1 -0.02302
49.15 -0.02163
49.2 -0.02415
49.25 -0.02622
49.3 -0.0295
49.35 -0.0267
49.4 -0.02147
49.45 -0.01377
49.5 -0.01024
49.55 -0.00627
49.6 -0.00364
49.65 -0.00313
49.7 0.0001
49.75 -0.00178
49.8 -0.0045
49.85 -0.0094
49.9 -0.01368
49.95 -0.01285
50 -0.00801
50.05 -0.00869
50.1 -0.00428
50.15 0.0014
50.2 0.00023
50.25 0.00253
50.3 0.00355
50.35 0.0067
50.4 0.00617
50.45 0.00785
50.5 0.00875
50.55 0.01066
50.6 0.01101
50.65 0.01062
50.7 0.00926
50.75 0.00783
50.8 0.00663
50.85 0.00931
50.9 0.01348
50.95 0.01803
51 0.01634
51.05 0.01631
51.1 0.01498
51.15 0.01483
51.2 0.01054
51.25 0.00328
51.3 0.00009
51.35 -0.00216
51.4 -0.00492
51.45 -0.00628
51.5 -0.00589
51.55 -0.00093
51.6 -0.00007
51.65 -0.0018
51.7 -0.00267
51.75 -0.00113
51.8 0.00295
51.85 0.00852
51.9 0.00937
51.95 0.00974
52 0.00923
52.05 0.00294
52.1 0.00049
52.15 -0.00441
52.2 -0.00346
52.25 -0.00062
52.3 0.00398
52.35 0.00951
52.4 0.01429
52.45 0.01401
52.5 0.01253
52.55 0.00624
52.6 -0.00065
52.65 -0.00606
52.7 -0.00765
52.75 -0.00721
52.8 -0.00426
52.85 -0.00664
52.9 -0.01103
52.95 -0.0113
53 -0.00958
53.05 -0.00666
53.1 -0.00188
53.15 0.00019
53.2 0.0043
53.25 0.00919
53.3 0.01308
53.35 0.01787
53.4 0.01437
53.45 0.00773
53.5 0.00374
53.55 -0.00168
53.6 -0.00944
53.65 -0.01107
53.7 -0.01126
53.75 -0.01467
53.8 -0.01945
53.85 -0.02098
53.9 -0.02013
53.95 -0.01401
54 -0.00856
54.05 -0.00882
54.1 -0.01288
54.15 -0.01524
54.2 -0.01798
54.25 -0.01678
54.3 -0.01358
54.35 -0.00972
54.4 -0.00531
54.45 -0.00313
54.5 -0.00176
54.55 -0.00421
54.6 -0.00749
54.65 -0.00813
54.7 -0.00621
54.75 -0.00376
54.8 -0.00359
54.85 -0.00323
54.9 -0.00628
54.95 -0.00961
55 -0.01335
55.05 -0.01305
55.1 -0.01466
55.15 -0.01588
55.2 -0.01909
55.25 -0.01729
55.3 -0.01598
55.35 -0.01384
55.4 -0.0139
55.45 -0.00946
55.5 -0.00894
55.55 -0.00954
55.6 -0.01081
55.65 -0.00829
55.7 -0.00954
55.75 -0.01286
55.8 -0.01372
55.85 -0.00884
55.9 -0.00463
55.95 -0.00306
56 0.00142
56.05 0.0084
56.1 0.00814
56.15 0.00686
56.2 0.00596
56.25 0.00874
56.3 0.00739
56.35 0.00339
56.4 -0.00312
56.45 -0.00928
56.5 -0.01472
56.55 -0.01924
56.6 -0.01794
56.65 -0.0198
56.7 -0.01977
56.75 -0.01987
56.8 -0.01948
56.85 -0.01314
56.9 -0.01194
56.95 -0.01293
57 -0.01154
57.05 -0.0082
57.1 -0.00867
57.15 -0.00457
57.2 0.00082
57.25 0.00303
57.3 0.00848
57.35 0.01606
57.4 0.01528
57.45 0.01136
57.5 0.00668
57.55 0.00116
57.6 -0.00087
57.65 -0.0009
57.7 0.00364
57.75 0.0096
57.8 0.01656
57.85 0.0234
57.9 0.02915
57.95 0.03473
58 0.03693
58.05 0.03091
58.1 0.0239
58.15 0.01368
58.2 0.00385
58.25 -0.00073
58.3 -0.00279
58.35 -0.00479
58.4 -0.0054
58.45 -0.00347
58.5 -0.00622
58.55 -0.00452
58.6 -0.00052
58.65 0.00522
58.7 0.0104
58.75 0.00956
58.8 0.00682
58.85 -0.00031
58.9 -0.00949
58.95 -0.01228
59 -0.01621
59.05 -0.01597
59.1 -0.01236
59.15 -0.01208
59.2 -0.00681
59.25 -0.00149
59.3 0.00268
59.35 0.00045
59.4 0.00242
59.45 0.00344
59.5 -0.00051
59.55 -0.00552
59.6 -0.00591
59.65 -0.00665
59.7 -0.00465
59.75 -0.00335
59.8 -0.00217
59.85 0.00164
59.9 0.00136
59.95 -0.00218
60 -0.00672
60.05 -0.01316
60.1 -0.01353
60.15 -0.01418
60.2 -0.0096
60.25 -0.00247
60.3 0.00195
60.35 0.00083
60.4 -0.0027
60.45 -0.00007
60.5 0.00188
60.55 0.00664
60.6 0.01083
60.65 0.01626
60.7 0.01465
60.75 0.00835
60.8 0.00381
60.85 0.00466
60.9 0.00717
60.95 0.00403
61 0.00329
61.05 -0.00039
61.1 -0.00309
61.15 -0.00455
61.2 -0.00468
61.25 -0.00025
61.3 0.00194
61.35 0.00221
61.4 0.00497
61.45 0.00518
61.5 0.00932
61.55 0.01186
61.6 0.01639
61.65 0.02053
61.7 0.01886
61.75 0.01679
61.8 0.01765
61.85 0.01208
61.9 0.0083
61.95 0.00536
62 0.00295
62.05 0.00554
62.1 0.00756
62.15 0.0079
62.2 0.01136
62.25 0.01007
62.3 0.00366
62.35 -0.00359
62.4 -0.00501
62.45 -0.00642
62.5 -0.00277
62.55 0.0024
62.6 0.00451
62.65 0.00222
62.7 0.00413
62.75 0.00584
62.8 0.00314
62.85 -0.00116
62.9 -0.0041
62.95 -0.00984
63 -0.00845
63.05 -0.01144
63.1 -0.01313
63.15 -0.01738
63.2 -0.02126
63.25 -0.02141
63.3 -0.01532
63.35 -0.01339
63.4 -0.01261
63.45 -0.01076
63.5 -0.00508
63.55 -0.00148
63.6 0.00513
63.65 0.00959
63.7 0.00837
63.75 0.00688
63.8 0.00541
63.85 0.00698
63.9 0.00957
63.95 0.01131
64 0.01497
64.05 0.01234
64.1 0.01211
64.15 0.00825
64.2 0.00417
64.25 0.00484
64.3 0.00776
64.35 0.00878
64.4 0.00798
64.45 0.00336
64.5 0.00012
64.55 -0.00155
64.6 -0.00253
64.65 -0.00187
64.7 -0.00144
64.75 -0.00296
64.8 -0.00295
64.85 -0.00362
64.9 -0.00738
64.95 -0.00742
65 -0.00796
65.05 -0.00776
65.1 -0.00585
65.15 -0.00676
65.2 -0.00264
65.25 -0.00466
65.3 -0.00355
65.35 -0.00609
65.4 -0.00331
65.45 0.00099
65.5 -0.00029
65.55 -0.00151
65.6 -0.00298
65.65 -0.00845
65.7 -0.00887
65.75 -0.01016
65.8 -0.0082
65.85 -0.00437
65.9 0.00287
65.95 0.00323
66 0.00605
66.05 0.00998
66.1 0.01157
66.15 0.01529
66.2 0.02077
66.25 0.0208
66.3 0.02124
66.35 0.02032
66.4 0.02201
66.45 0.01997
66.5 0.02006
66.55 0.01384
66.6 0.00358
66.65 -0.00555
66.7 -0.01591
66.75 -0.02473
66.8 -0.03018
66.85 -0.035
66.9 -0.03355
66.95 -0.02902
67 -0.02256
67.05 -0.02115
67.1 -0.01763
67.15 -0.01707
67.2 -0.01664
67.25 -0.0159
67.3 -0.01589
67.35 -0.01889
67.4 -0.01472
67.45 -0.00723
67.5 -0.00376
67.55 -0.00152
67.6 0.00139
67.65 0.00317
67.7 0.0051
67.75 0.00542
67.8 0.00603
67.85 0.00974
67.9 0.00824
67.95 0.00312
68 0.00264
68.05 0.00192
68.1 0.00511
68.15 0.00242
68.2 -0.00158
68.25 -0.0078
68.3 -0.01107
68.35 -0.01508
68.4 -0.01999
68.45 -0.0198
68.5 -0.01565
68.55 -0.01605
68.6 -0.01609
68.65 -0.01637
68.7 -0.01255
68.75 -0.0105
68.8 -0.0087
68.85 -0.00632
68.9 -0.00854
68.95 -0.0083
69 -0.00689
69.05 -0.0026
69.1 -0.0034
69.15 -0.00528
69.2 -0.00405
69.25 -0.00189
69.3 -0.00279
69.35 -0.00367
69.4 -0.00696
69.45 -0.01114
69.5 -0.01527
69.55 -0.02117
69.6 -0.02136
69.65 -0.01632
69.7 -0.01087
69.75 -0.00716
69.8 -0.00502
69.85 0.00037
69.9 0.00707
69.95 0.00764
70 0.00977
70.05 0.01339
70.1 0.01545
70.15 0.01771
70.2 0.01865
70.25 0.0144
70.3 0.01279
70.35 0.00754
70.4 0.00081
70.45 -0.00499
70.5 -0.0112
70.55 -0.01028
70.6 -0.00597
70.65 -0.00381
70.7 -0.00278
70.75 -0.00143
70.8 0.00302
70.85 0.00538
70.9 0.00461
70.95 0.0064
71 0.00467
71.05 0.0078
71.1 0.01328
71.15 0.01986
71.2 0.02103
71.25 0.01678
71.3 0.01511
71.35 0.01523
71.4 0.01222
71.45 0.00661
71.5 0.00561
71.55 0.00725
71.6 0.00552
71.65 0.00637
71.7 0.00876
71.75 0.00934
71.8 0.00655
71.85 0.00154
71.9 -0.00595
71.95 -0.01495
72 -0.02369
72.05 -0.02766
72.1 -0.02883
72.15 -0.02748
72.2 -0.0227
72.25 -0.01395
72.3 -0.00449
72.35 -0.00056
72.4 -0.00145
72.45 0.00283
72.5 0.00891
72.55 0.00913
72.6 0.0087
72.65 0.01164
72.7 0.01216
72.75 0.01336
72.8 0.00862
72.85 0.00424
72.9 0.00021
72.95 -0.0056
73 -0.0118
73.05 -0.01928
73.1 -0.01863
73.15 -0.01591
73.2 -0.01534
73.25 -0.0093
73.3 -0.00891
73.35 -0.00766
73.4 -0.00197
73.45 -0.0003
73.5 0.00519
73.55 0.00708
73.6 0.01127
73.65 0.0149
73.7 0.01912
73.75 0.01827
73.8 0.01708
73.85 0.01853
73.9 0.01361
73.95 0.01268
74 0.0148
74.05 0.01149
74.1 0.01282
74.15 0.01258
74.2 0.01071
74.25 0.01217
74.3 0.01481
74.35 0.01484
74.4 0.01021
74.45 0.00947
74.5 0.00433
74.55 0.00191
74.6 0.00196
74.65 0.00416
74.7 0.00401
74.75 0.00137
74.8 -0.00304
74.85 -0.00909
74.9 -0.01029
74.95 -0.0134
75 -0.00995
75.05 -0.00497
75.1 -0.00201
75.15 0.00314
75.2 0.00614
75.25 0.00659
75.3 0.00372
75.35 -0.00162
75.4 -0.00529
75.45 -0.00911
75.5 -0.0103
75.55 -0.00954
75.6 -0.00937
75.65 -0.00507
75.7 -0.00117
75.75 -0.00126
75.8 -0.0046
75.85 -0.00633
75.9 -0.00451
75.95 -0.00168
76 0.00268
76.05 0.00937
76.1 0.01728
76.15 0.01759
76.2 0.01948
76.25 0.01939
76.3 0.01773
76.35 0.01208
76.4 0.00536
76.45 0.00507
76.5 0.00261
76.55 -0.0012
76.6 -0.00793
76.65 -0.01608
76.7 -0.02343
76.75 -0.02553
76.8 -0.02147
76.85 -0.01747
76.9 -0.01241
76.95 -0.01069
77 -0.01272
77.05 -0.01649
77.1 -0.01647
77.15 -0.01932
77.2 -0.02021
77.25 -0.02185
77.3 -0.0251
77.35 -0.02621
77.4 -0.02369
77.45 -0.01625
77.5 -0.01325
77.55 -0.00756
77.6 -0.00717
77.65 -0.00964
77.7 -0.00726
77.75 -0.00307
77.8 0.00319
77.85 0.00332
77.9 0.00144
77.95 -0.00185
78 -0.00792
78.05 -0.00859
78.1 -0.00684
78.15 -0.00383
78.2 -0.0061
78.25 -0.01142
78.3 -0.00905
78.35 -0.00332
78.4 0.00472
78.45 0.00684
78.5 0.01166
78.55 0.01554
78.6 0.01823
78.65 0.02271
78.7 0.01949
78.75 0.01351
78.8 0.00765
78.85 0.00471
78.9 0.00363
78.95 0.00288
79 0.00638
79.05 0.00988
79.1 0.00968
79.15 0.01137
79.2 0.00916
79.25 0.00474
79.3 0.00064
79.35 -0.00078
79.4 -0.00342
79.45 -0.00836
79.5 -0.00709
79.55 -0.00309
79.6 -0.00105
79.65 -0.00171
79.7 0.00052
79.75 0.00098
79.8 0.00336
79.85 0.00409
79.9 0.00265
79.95 0.005
80 0.00371
80.05 0.00491
80.1 0.00934
80.15 0.01338
80.2 0.01573
80.25 0.02006
80.3 0.0182
80.35 0.01659
80.4 0.01393
80.45 0.01322
80.5 0.00823
80.55 0.001
80.6 -0.00681
80.65 -0.0129
80.7 -0.01297
80.75 -0.01219
80.8 -0.01114
80.85 -0.00829
80.9 -0.00835
80.95 -0.00868
81 -0.00514
81.05 0.00121
81.1 0.00126
81.15 -0.00337
81.2 -0.00584
81.25 -0.00842
81.3 -0.0076
81.35 -0.00655
81.4 -0.0048
81.45 -0.00735
81.5 -0.00922
81.55 -0.00505
81.6 0.00006
81.65 0.00442
81.7 0.00948
81.75 0.01652
81.8 0.02224
81.85 0.02132
81.9 0.01473
81.95 0.01049
82 0.00432
82.05 -0.00434
82.1 -0.01071
82.15 -0.01606
82.2 -0.02191
82.25 -0.02253
82.3 -0.02264
82.35 -0.02237
82.4 -0.02309
82.45 -0.02429
82.5 -0.02434
82.55 -0.02291
82.6 -0.0194
82.65 -0.01889
82.7 -0.01964
82.75 -0.01858
82.8 -0.01392
82.85 -0.01388
82.9 -0.00849
82.95 -0.00436
83 0.00125
83.05 0.00692
83.1 0.01312
83.15 0.02069
83.2 0.02247
83.25 0.02217
83.3 0.01781
83.35 0.01816
83.4 0.01887
83.45 0.01441
83.5 0.01233
83.55 0.00807
83.6 0.002
83.65 -0.00505
83.7 -0.01296
83.75 -0.02005
83.8 -0.02391
83.85 -0.02406
83.9 -0.0258
83.95 -0.02597
84 -0.02054
84.05 -0.01088
84.1 -0.00404
84.15 -0.00216
84.2 -0.00298
84.25 -0.0073
84.3 -0.00489
84.35 0.00152
84.4 0.00149
84.45 0.00243
84.5 0.00229
84.55 -0.00147
84.6 -0.00592
84.65 -0.00678
84.7 -0.00749
84.75 -0.00542
84.8 -0.00328
84.85 -0.00227
84.9 -0.00083
84.95 0.00271
85 0.00134
85.05 -0.00327
85.1 -0.00209
85.15 -0.00418
85.2 -0.00955
85.25 -0.0149
85.3 -0.01468
85.35 -0.01329
85.4 -0.00657
85.45 -0.00582
85.5 -0.00773
85.55 -0.00909
85.6 -0.01006
85.65 -0.00863
85.7 -0.00831
85.75 -0.00594
85.8 -0.00462
85.85 -0.00111
85.9 0.00514
85.95 0.0068
86 0.00994
86.05 0.0095
86.1 0.01179
86.15 0.00826
86.2 0.00737
86.25 0.00412
86.3 0.0008
86.35 0.00184
86.4 0.00158
86.45 0.00394
86.5 0.00427
86.55 -0.00007
86.6 0.00122
86.65 0.00174
86.7 -0.00247
86.75 -0.005
86.8 -0.00592
86.85 -0.00859
86.9 -0.01212
86.95 -0.01221
87 -0.00843
87.05 -0.0033
87.1 -0.00227
87.15 -0.00047
87.2 0.00147
87.25 0.00298
87.3 0.00309
87.35 0.00596
87.4 0.0098
87.45 0.01262
87.5 0.0165
87.55 0.02213
87.6 0.02082
87.65 0.02154
87.7 0.0237
87.75 0.02578
87.8 0.02689
87.85 0.02082
87.9 0.01659
87.95 0.00903
88 0.0045
88.05 -0.00205
88.1 -0.00884
88.15 -0.01289
88.2 -0.0182
88.25 -0.01705
88.3 -0.01681
88.35 -0.0145
88.4 -0.01338
88.45 -0.01333
88.5 -0.00737
88.55 -0.00605
88.6 -0.00443
88.65 0.00082
88.7 0.0042
88.75 0.00237
88.8 -0.00246
88.85 -0.00076
88.9 0.00264
88.95 0.00717
89 0.014
89.05 0.01745
89.1 0.0198
89.15 0.01832
89.2 0.01967
89.25 0.02081
89.3 0.0155
89.35 0.01383
89.4 0.01077
89.45 0.00839
89.5 0.00518
89.55 0.00501
89.6 0.00137
89.65 -0.00475
89.7 -0.0069
89.75 -0.01224
89.8 -0.0169
89.85 -0.01922
89.9 -0.0225
89.95 -0.02168
90 -0.0181
90.05 -0.01301
90.1 -0.00929
90.15 -0.00176
90.2 0.0073
90.25 0.01571
90.3 0.01638
90.35 0.01251
90.4 0.00822
90.45 0.00487
90.5 0.00711
90.55 0.00999
90.6 0.01266
90.65 0.01441
90.7 0.01435
90.75 0.01658
90.8 0.01325
90.85 0.00552
90.9 0.00165
90.95 -0.00384
91 -0.00951
91.05 -0.01624
91.1 -0.02384
91.15 -0.02407
91.2 -0.02037
91.25 -0.0196
91.3 -0.0188
91.35 -0.01224
91.4 -0.0111
91.45 -0.00534
91.5 0.00193
91.55 0.00556
91.6 0.00316
91.65 0.00408
91.7 0.00215
91.75 0.00482
91.8 0.0025
91.85 0.00051
91.9 -0.00054
91.95 -0.00322
92 -0.00807
92.05 -0.00901
92.1 -0.01306
92.15 -0.01558
92.2 -0.01521
92.25 -0.01096
92.3 -0.00422
92.35 0.0011
92.4 0.00279
92.45 0.00406
92.5 0.00858
92.55 0.00741
92.6 0.00982
92.65 0.00681
92.7 0.00036
92.75 -0.00707
92.8 -0.0088
92.85 -0.01341
92.9 -0.01073
92.95 -0.0065
93 -0.00686
93.05 -0.00804
93.1 -0.00875
93.15 -0.00667
93.2 -0.00041
93.25 0.00262
93.3 0.00447
93.35 0.00559
93.4 0.00293
93.45 0.00337
93.5 -0.00091
93.55 -0.00284
93.6 -0.00455
93.65 -0.00202
93.7 -0.00135
93.75 0.00043
93.8 0.00519
93.85 0.00467
93.9 -0.00047
93.95 0.00004
94 0.00387
94.05 0.00838
94.1 0.00937
94.15 0.01372
94.2 0.01636
94.25 0.01372
94.3 0.01348
94.35 0.01419
94.4 0.01403
94.45 0.01185
94.5 0.00772
94.55 0.00857
94.6 0.01291
94.65 0.01142
94.7 0.01318
94.75 0.01209
94.8 0.01426
94.85 0.00974
94.9 0.00542
94.95 -0.00001
95 -0.00681
95.05 -0.01355
95.1 -0.02096
95.15 -0.0223
95.2 -0.02528
95.25 -0.0244
95.3 -0.02603
95.35 -0.02627
95.4 -0.0275
95.45 -0.02986
95.5 -0.03088
95.55 -0.02639
95.6 -0.02194
95.65 -0.01664
95.7 -0.01026
95.75 -0.0063
95.8 -0.00087
95.85 0.00057
95.9 0.00158
95.95 0.0037
96 0.00964
96.05 0.01317
96.1 0.01011
96.15 0.00838
96.2 0.00816
96.25 0.00344
96.3 0.00139
96.35 0.00022
96.4 -0.00021
96.45 -0.00206
96.5 -0.00711
96.55 -0.00813
96.6 -0.01117
96.65 -0.00979
96.7 -0.01069
96.75 -0.00806
96.8 -0.00738
96.85 -0.00189
96.9 0.00601
96.95 0.01254
97 0.01258
97.05 0.00796
97.1 0.0048
97.15 0.00611
97.2 0.00379
97.25 0.00612
97.3 0.00643
97.35 0.00948
97.4 0.01046
97.45 0.01445
97.5 0.01737
97.55 0.01335
97.6 0.0113
97.65 0.00852
97.7 0.00355
97.75 -0.00332
97.8 -0.0028
97.85 -0.00356
97.9 0.00026
97.95 0.00586
98 0.00644
98.05 0.00467
98.1 0.00282
98.15 -0.00271
98.2 -0.0039
98.25 -0.0034
98.3 -0.00048
98.35 0.00098
98.4 -0.00045
98.45 -0.00397
98.5 -0.00211
98.55 -0.00253
98.6 -0.00631
98.65 -0.00966
98.7 -0.00837
98.75 -0.00938
98.8 -0.00853
98.85 -0.00339
98.9 0.00024
98.95 0.00101
99 0.00525
99.05 0.00464
99.1 0.00721
99.15 0.00991
99.2 0.00972
99.25 0.00536
99.3 0.00238
99.35 0.00333
99.4 0.0049
99.45 0.00164
99.5 -0.00436
99.55 -0.01025
99.6 -0.01058
99.65 -0.01302
99.7 -0.01034
99.75 -0.01002
99.8 -0.00882
99.85 -0.00531
99.9 -0.00384
99.95 0.00027
