0 0
0.05 0.00623
0.1 0.01627
0.15 0.02133
0.2 0.0251
0.25 0.03211
0.3 0.03825
0.35 0.03933
0.4 0.04463
0.45 0.05145
0.5 0.0593
0.55 0.06341
0.6 0.0664
0.65 0.06557
0.7 0.06214
0.75 0.05822
0.8 0.05077
0.85 0.04459
0.9 0.04233
0.95 0.04162
1 0.04459
1.05 0.04202
1.1 0.03873
1.15 0.03972
1.2 0.03644
1.25 0.03909
1.3 0.044
1.35 0.04393
1.4 0.04141
1.45 0.04385
1.5 0.04641
1.55 0.04533
1.6 0.04179
1.65 0.03542
1.7 0.03439
1.75 0.02938
1.8 0.02905
1.85 0.03053
1.9 0.02759
1.95 0.02947
2 0.03159
2.05 0.03576
2.1 0.0393
2.15 0.04074
2.2 0.03947
2.25 0.03787
2.3 0.03301
2.35 0.03105
2.4 0.02508
2.45 0.01702
2.5 0.01594
2.55 0.01709
2.6 0.01466
2.65 0.01812
2.7 0.01703
2.75 0.0201
2.8 0.02358
2.85 0.03039
2.9 0.03642
2.95 0.04317
3 0.04832
3.05 0.05383
3.1 0.05082
3.15 0.04803
3.2 0.04255
3.25 0.03714
3.3 0.02846
3.35 0.02442
3.4 0.01709
3.45 0.01166
3.5 0.01333
3.55 0.01891
3.6 0.02237
3.65 0.0219
3.7 0.02548
3.75 0.02503
3.8 0.02588
3.85 0.02218
3.9 0.02341
3.95 0.02644
4 0.02278
4.05 0.01594
4.1 0.01096
4.15 0.00917
4.2 0.00633
4.25 0.00031
4.3 -0.00447
4.35 -0.00707
4.4 -0.00985
4.45 -0.01121
4.5 -0.01294
4.55 -0.02255
4.6 -0.03651
4.65 -0.05498
4.7 -0.0778
4.75 -0.1003
4.8 -0.12768
4.85 -0.15916
4.9 -0.18684
4.95 -0.2164
5 -0.24805
5.05 -0.28942
5.1 -0.33316
5.15 -0.38604
5.2 -0.44388
5.25 -0.5126
5.3 -0.5894
5.35 -0.67411
5.4 -0.76015
5.45 -0.84817
5.5 -0.94136
5.55 -1.03349
5.6 -1.12965
5.65 -1.22721
5.7 -1.32564
5.75 -1.42347
5.8 -1.51748
5.85 -1.60251
5.9 -1.6808
5.95 -1.75888
6 -1.83111
6.05 -1.9023
6.1 -1.97551
6.15 -2.04772
6.2 -2.11049
6.25 -2.16512
6.3 -2.21899
6.35 -2.26814
6.4 -2.31286
6.45 -2.35242
6.5 -2.37711
6.55 -2.39628
6.6 -2.40215
6.65 -2.39795
6.7 -2.38116
6.75 -2.35094
6.8 -2.30861
6.85 -2.25608
6.9 -2.18892
6.95 -2.11105
7 -2.01357
7.05 -1.90064
7.1 -1.7715
7.15 -1.62628
7.2 -1.47319
7.25 -1.3044
7.3 -1.13098
7.35 -0.95164
7.4 -0.76337
7.45 -0.56879
7.5 -0.37145
7.55 -0.17064
7.6 0.02398
7.65 0.21066
7.7 0.39121
7.75 0.56354
7.8 0.73086
7.85 0.89518
7.9 1.0464
7.95 1.1912
8 1.32631
8.05 1.44857
8.1 1.55708
8.15 1.66153
8.2 1.75423
8.25 1.83834
8.3 1.90739
8.35 1.97035
8.4 2.01969
8.45 2.06445
8.5 2.09926
8.55 2.12564
8.6 2.14314
8.65 2.16005
8.7 2.16944
8.75 2.17078
8.8 2.17467
8.85 2.17094
8.9 2.16281
8.95 2.15511
9 2.14912
9.05 2.14132
9.1 2.12521
9.15 2.10809
9.2 2.08891
9.25 2.06656
9.3 2.04239
9.35 2.02224
9.4 1.99745
9.45 1.9758
9.5 1.94995
9.55 1.92517
9.6 1.89428
9.65 1.864
9.7 1.83455
9.75 1.80363
9.8 1.76805
9.85 1.73023
9.9 1.6915
9.95 1.64911
10 1.60759
10.05 1.57079
10.1 1.53612
10.15 1.49975
10.2 1.4572
10.25 1.41199
10.3 1.37182
10.35 1.33342
10.4 1.29287
10.45 1.24743
10.5 1.20232
10.55 1.15234
10.6 1.10734
10.65 1.0584
10.7 1.01242
10.75 0.96657
10.8 0.92278
10.85 0.88219
10.9 0.83555
10.95 0.7933
11 0.7461
11.05 0.69561
11.1 0.65065
11.15 0.61017
11.2 0.57177
11.25 0.5344
11.3 0.49405
11.35 0.4505
11.4 0.40478
11.45 0.35952
11.5 0.31802
11.55 0.28434
11.6 0.25375
11.65 0.22338
11.7 0.19752
11.75 0.16715
11.8 0.1412
11.85 0.1098
11.9 0.08289
11.95 0.05974
12 0.03829
12.05 0.01041
12.1 -0.01562
12.15 -0.0382
12.2 -0.05765
12.25 -0.08126
12.3 -0.10079
12.35 -0.11732
12.4 -0.13592
12.45 -0.15339
12.5 -0.17121
12.55 -0.18741
12.6 -0.20211
12.65 -0.21767
12.7 -0.23005
12.75 -0.24085
12.8 -0.25735
12.85 -0.27469
12.9 -0.2877
12.95 -0.29567
13 -0.30751
13.05 -0.32048
13.1 -0.33474
13.15 -0.34841
13.2 -0.35666
13.25 -0.3629
13.3 -0.36129
13.35 -0.36175
13.4 -0.36585
13.45 -0.36526
13.5 -0.36151
13.55 -0.36025
13.6 -0.36224
13.65 -0.36138
13.7 -0.35874
13.75 -0.35697
13.8 -0.35422
13.85 -0.35462
13.9 -0.35434
13.95 -0.35325
14 -0.3472
14.05 -0.34666
14.1 -0.3494
14.15 -0.35233
14.2 -0.35106
14.25 -0.34772
14.3 -0.34418
14.35 -0.33941
14.4 -0.33868
14.45 -0.33703
14.5 -0.33375
14.55 -0.33302
14.6 -0.32998
14.65 -0.32976
14.7 -0.32815
14.75 -0.32117
14.8 -0.3113
14.85 -0.3038
14.9 -0.29885
14.95 -0.29334
15 -0.2877
15.05 -0.28545
15.1 -0.27995
15.15 -0.27573
15.2 -0.27253
15.25 -0.27061
15.3 -0.27068
15.35 -0.26821
15.4 -0.26181
15.45 -0.25315
15.5 -0.24223
15.55 -0.2327
15.6 -0.23002
15.65 -0.23098
15.7 -0.23488
15.75 -0.24003
15.8 -0.24002
15.85 -0.24076
15.9 -0.236
15.95 -0.2291
16 -0.22599
16.05 -0.22447
16.1 -0.22273
16.15 -0.22237
16.2 -0.21594
16.25 -0.21019
16.3 -0.20163
16.35 -0.19918
16.4 -0.19482
16.45 -0.19134
16.5 -0.18703
16.55 -0.1789
16.6 -0.17474
16.65 -0.16977
16.7 -0.16796
16.75 -0.16482
16.8 -0.16442
16.85 -0.16577
16.9 -0.16972
16.95 -0.16785
17 -0.16363
17.05 -0.16047
17.1 -0.15873
17.15 -0.15584
17.2 -0.15546
17.25 -0.15151
17.3 -0.14413
17.35 -0.13929
17.4 -0.13341
17.45 -0.13085
17.5 -0.13337
17.55 -0.13869
17.6 -0.14384
17.65 -0.14454
17.7 -0.13847
17.75 -0.13392
17.8 -0.12626
17.85 -0.12
17.9 -0.11706
17.95 -0.11602
18 -0.11497
18.05 -0.11026
18.1 -0.10423
18.15 -0.0983
18.2 -0.09099
18.25 -0.08607
18.3 -0.08661
18.35 -0.08365
18.4 -0.07901
18.45 -0.07356
18.5 -0.07369
18.55 -0.07547
18.6 -0.0817
18.65 -0.08812
18.7 -0.09532
18.75 -0.09807
18.8 -0.09673
18.85 -0.09083
18.9 -0.08534
18.95 -0.08437
19 -0.08391
19.05 -0.08099
19.1 -0.08287
19.15 -0.08289
19.2 -0.08333
19.25 -0.08226
19.3 -0.08279
19.35 -0.0792
19.4 -0.07832
19.45 -0.08005
19.5 -0.08391
19.55 -0.08804
19.6 -0.08718
19.65 -0.08269
19.7 -0.08286
19.75 -0.08041
19.8 -0.07303
19.85 -0.07179
19.9 -0.07149
19.95 -0.06668
20 -0.06394
20.05 -0.06439
20.1 -0.06269
20.15 -0.05784
20.2 -0.05397
20.25 -0.05223
20.3 -0.04787
20.35 -0.04556
20.4 -0.04388
20.45 -0.04074
20.5 -0.03963
20.55 -0.03851
20.6 -0.03943
20.65 -0.03798
20.7 -0.03509
20.75 -0.03161
20.8 -0.03238
20.85 -0.03758
20.9 -0.04388
20.95 -0.04358
21 -0.04224
21.05 -0.03707
21.1 -0.03385
21.15 -0.03426
21.2 -0.03801
21.25 -0.042
21.3 -0.04803
21.35 -0.04964
21.4 -0.0452
21.45 -0.03836
21.5 -0.03792
21.55 -0.03543
21.6 -0.03747
21.65 -0.03939
21.7 -0.04475
21.75 -0.04937
21.8 -0.04791
21.85 -0.04202
21.9 -0.04192
21.95 -0.03642
22 -0.03517
22.05 -0.03461
22.1 -0.03849
22.15 -0.03787
22.2 -0.0326
22.25 -0.02854
22.3 -0.02892
22.35 -0.02987
22.4 -0.02801
22.45 -0.02611
22.5 -0.02954
22.55 -0.03047
22.6 -0.03177
22.65 -0.02998
22.7 -0.03049
22.75 -0.03338
22.8 -0.03491
22.85 -0.03543
22.9 -0.03247
22.95 -0.02803
23 -0.02103
23.05 -0.01255
23.1 -0.00884
23.15 -0.01192
23.2 -0.01274
23.25 -0.01133
23.3 -0.01132
23.35 -0.01614
23.4 -0.02103
23.45 -0.02529
23.5 -0.02852
23.55 -0.03246
23.6 -0.03494
23.65 -0.03961
23.7 -0.03805
23.75 -0.03583
23.8 -0.03599
23.85 -0.03733
23.9 -0.03201
23.95 -0.02586
24 -0.02297
24.05 -0.01685
24.1 -0.01272
24.15 -0.01344
24.2 -0.01005
24.25 -0.01177
24.3 -0.01234
24.35 -0.01599
24.4 -0.01669
24.45 -0.01699
24.5 -0.01499
24.55 -0.01201
24.6 -0.00986
24.65 -0.00645
24.7 -0.00899
24.75 -0.01369
24.8 -0.01281
24.85 -0.01648
24.9 -0.02037
24.95 -0.02542
25 -0.02793
25.05 -0.03197
25.1 -0.03076
25.15 -0.02995
25.2 -0.02454
25.25 -0.01984
25.3 -0.01656
25.35 -0.01361
25.4 -0.01482
25.45 -0.01393
25.5 -0.01306
25.55 -0.01291
25.6 -0.00828
25.65 -0.0023
25.7 -0.00245
25.75 -0.00665
25.8 -0.00888
25.85 -0.00868
25.9 -0.00396
25.95 -0.00297
26 -0.00569
26.05 -0.00961
26.1 -0.01284
26.15 -0.01343
26.2 -0.0126
26.25 -0.00906
26.3 -0.00281
26.35 0.001
26.4 0.00649
26.45 0.00727
26.5 0.0035
26.55 -0.00232
26.6 -0.00919
26.65 -0.01261
26.7 -0.01852
26.75 -0.01738
26.8 -0.0155
26.85 -0.00908
26.9 -0.00357
26.95 -0.00311
27 -0.00417
27.05 -0.00659
27.1 -0.00679
27.15 -0.00315
27.2 0.00336
27.25 0.00655
27.3 0.0089
27.35 0.01139
27.4 0.0143
27.45 0.01783
27.5 0.01526
27.55 0.00901
27.6 0.00197
27.65 -0.0005
27.7 -0.0011
27.75 -0.00148
27.8 -0.00126
27.85 -0.00614
27.9 -0.0069
27.95 -0.00906
28 -0.00722
28.05 -0.00727
28.1 -0.01215
28.15 -0.01834
28.2 -0.02426
28.25 -0.02763
28.3 -0.03117
28.35 -0.03177
28.4 -0.02834
28.45 -0.02921
28.5 -0.02821
28.55 -0.02555
28.6 -0.02244
28.65 -0.02133
28.7 -0.02371
28.75 -0.0271
28.8 -0.03436
28.85 -0.0441
28.9 -0.05092
28.95 -0.05924
29 -0.06065
29.05 -0.06072
29.1 -0.0649
29.15 -0.07353
29.2 -0.08316
29.25 -0.09201
29.3 -0.09527
29.35 -0.09384
29.4 -0.09373
29.45 -0.09319
29.5 -0.09731
29.55 -0.10188
29.6 -0.10536
29.65 -0.10497
29.7 -0.10479
29.75 -0.10595
29.8 -0.11323
29.85 -0.11959
29.9 -0.1216
29.95 -0.12316
30 -0.12694
30.05 -0.12488
30.1 -0.1184
30.15 -0.11424
30.2 -0.1136
30.25 -0.1106
30.3 -0.10141
30.35 -0.09065
30.4 -0.07634
30.45 -0.06821
30.5 -0.06095
30.55 -0.05319
30.6 -0.04
30.65 -0.03097
30.7 -0.02051
30.75 -0.015
30.8 -0.01255
30.85 -0.00581
30.9 0.00607
30.95 0.01329
31 0.01839
31.05 0.02341
31.1 0.02396
31.15 0.02327
31.2 0.02942
31.25 0.035
31.3 0.03757
31.35 0.04248
31.4 0.04295
31.45 0.04587
31.5 0.04928
31.55 0.05241
31.6 0.05756
31.65 0.05859
31.7 0.06237
31.75 0.06222
31.8 0.064
31.85 0.06095
31.9 0.05485
31.95 0.05112
32 0.04852
32.05 0.04467
32.1 0.04388
32.15 0.04239
32.2 0.04186
32.25 0.04403
32.3 0.04723
32.35 0.04859
32.4 0.05241
32.45 0.06121
32.5 0.06721
32.55 0.069
32.6 0.07006
32.65 0.06809
32.7 0.0643
32.75 0.06345
32.8 0.06447
32.85 0.07005
32.9 0.07981
32.95 0.08711
33 0.08886
33.05 0.08966
33.1 0.09207
33.15 0.09722
33.2 0.09857
33.25 0.09703
33.3 0.09711
33.35 0.09934
33.4 0.09909
33.45 0.09591
33.5 0.09013
33.55 0.08489
33.6 0.0783
33.65 0.07328
33.7 0.07015
33.75 0.06832
33.8 0.06909
33.85 0.06731
33.9 0.07015
33.95 0.06857
34 0.07143
34.05 0.07188
34.1 0.07296
34.15 0.07549
34.2 0.07486
34.25 0.07483
34.3 0.07561
34.35 0.07035
34.4 0.06377
34.45 0.05908
34.5 0.0538
34.55 0.05375
34.6 0.05113
34.65 0.04882
34.7 0.04221
34.75 0.03903
34.8 0.03281
34.85 0.02636
34.9 0.02273
34.95 0.02284
35 0.02511
35.05 0.03015
35.1 0.03459
35.15 0.03254
35.2 0.03299
35.25 0.02663
35.3 0.01782
35.35 0.01533
35.4 0.01369
35.45 0.0072
35.5 -0.00134
35.55 -0.00382
35.6 -0.00092
35.65 -0.00405
35.7 -0.00995
35.75 -0.01169
35.8 -0.00807
35.85 -0.00282
35.9 -0.00198
35.95 -0.00376
36 -0.00951
36.05 -0.01354
36.1 -0.01469
36.15 -0.01362
36.2 -0.01758
36.25 -0.01631
36.3 -0.0196
36.35 -0.01972
36.4 -0.01704
36.45 -0.01516
36.5 -0.01399
36.55 -0.01272
36.6 -0.01151
36.65 -0.00995
36.7 -0.01329
36.75 -0.0192
36.8 -0.02207
36.85 -0.02361
36.9 -0.02267
36.95 -0.02244
37 -0.02044
37.05 -0.01806
37.1 -0.01782
37.15 -0.01519
37.2 -0.01358
37.25 -0.01148
37.3 -0.00791
37.35 -0.00781
37.4 -0.00494
37.45 -0.00845
37.5 -0.01229
37.55 -0.01758
37.6 -0.01963
37.65 -0.02476
37.7 -0.03041
37.75 -0.0374
37.8 -0.03618
37.85 -0.03366
37.9 -0.03483
37.95 -0.03118
38 -0.02702
38.05 -0.01937
38.1 -0.01214
38.15 -0.00363
38.2 0.00107
38.25 0.00213
38.3 0.00103
38.35 0.00151
38.4 0.0026
38.45 -0.00045
38.5 -0.00796
38.55 -0.01508
38.6 -0.02029
38.65 -0.02159
38.7 -0.02524
38.75 -0.03091
38.8 -0.02872
38.85 -0.02919
38.9 -0.02672
38.95 -0.02362
39 -0.02047
39.05 -0.01559
39.1 -0.01276
39.15 -0.01369
39.2 -0.01418
39.25 -0.01468
39.3 -0.01446
39.35 -0.01174
39.4 -0.00658
39.45 -0.00705
39.5 -0.00573
39.55 -0.00577
39.6 -0.00617
39.65 -0.0099
39.7 -0.01071
39.75 -0.01426
39.8 -0.01633
39.85 -0.01334
39.9 -0.0142
39.95 -0.01537
40 -0.01875
40.05 -0.02323
40.1 -0.02498
40.15 -0.02329
40.2 -0.02508
40.25 -0.02603
40.3 -0.0211
40.35 -0.01931
40.4 -0.01936
40.45 -0.02161
40.5 -0.02476
40.55 -0.02676
40.6 -0.0304
40.65 -0.02842
40.7 -0.02885
40.75 -0.02987
40.8 -0.03134
40.85 -0.02947
40.9 -0.02894
40.95 -0.0244
41 -0.01861
41.05 -0.01807
41.1 -0.01565
41.15 -0.01694
41.2 -0.01394
41.25 -0.01406
41.3 -0.01071
41.35 -0.00321
41.4 0.00212
41.45 0.00402
41.5 0.00118
41.55 -0.00455
41.6 -0.00917
41.65 -0.01127
41.7 -0.00928
41.75 -0.00997
41.8 -0.00497
41.85 0.00163
41.9 0.00755
41.95 0.01343
42 0.01993
42.05 0.0205
42.1 0.02111
42.15 0.02058
42.2 0.02239
42.25 0.01825
42.3 0.01438
42.35 0.00989
42.4 0.00329
42.45 -0.00108
42.5 -0.00421
42.55 -0.00715
42.6 -0.01142
42.65 -0.01757
42.7 -0.01723
42.75 -0.01186
42.8 -0.00962
42.85 -0.00348
42.9 0.00371
42.95 0.00811
43 0.01401
43.05 0.01368
43.1 0.00951
43.15 0.0086
43.2 0.01021
43.25 0.01483
43.3 0.01629
43.35 0.01652
43.4 0.0169
43.45 0.01813
43.5 0.01339
43.55 0.00748
43.6 0.00028
43.65 -0.00298
43.7 -0.00338
43.75 -0.00383
43.8 -0.0045
43.85 -0.00667
43.9 -0.00805
43.95 -0.00501
44 0.00165
44.05 0.00479
44.1 0.00654
44.15 0.00822
44.2 0.00581
44.25 -0.00083
44.3 -0.008
44.35 -0.01607
44.4 -0.02005
44.45 -0.0216
44.5 -0.02356
44.55 -0.02423
44.6 -0.02548
44.65 -0.02437
44.7 -0.02362
44.75 -0.0209
44.8 -0.01525
44.85 -0.00588
44.9 0.00497
44.95 0.01416
45 0.0201
45.05 0.02227
45.1 0.01781
45.15 0.01072
45.2 0.00626
45.25 0.00021
45.3 -0.00804
45.35 -0.01613
45.4 -0.01899
45.45 -0.01483
45.5 -0.0105
45.55 -0.00878
45.6 -0.01013
45.65 -0.01429
45.7 -0.01292
45.75 -0.01551
45.8 -0.01449
45.85 -0.01487
45.9 -0.01499
45.95 -0.01201
46 -0.0086
46.05 -0.00228
46.1 0.0043
46.15 0.00366
46.2 0.00593
46.25 0.01019
46.3 0.00846
46.35 0.00289
46.4 0.00172
46.45 -0.00351
46.5 -0.01009
46.55 -0.00976
46.6 -0.00706
46.65 -0.0001
46.7 0.0075
46.75 0.01139
46.8 0.01234
46.85 0.01347
46.9 0.00942
46.95 0.00886
47 0.00482
47.05 0.00592
47.1 0.00324
47.15 0.0004
47.2 -0.00598
47.25 -0.01292
47.3 -0.01673
47.35 -0.01449
47.4 -0.01109
47.45 -0.01014
47.5 -0.01013
47.55 -0.00945
47.6 -0.00825
47.65 -0.00215
47.7 -0.00046
47.75 0.00102
47.8 0.00416
47.85 0.00675
47.9 0.00917
47.95 0.01205
48 0.01111
48.05 0.01061
48.1 0.01039
48.15 0.01383
48.2 0.015
48.25 0.01323
48.3 0.01454
48.35 0.01817
48.4 0.02243
48.45 0.02399
48.5 0.02386
48.55 0.01815
48.6 0.0094
48.65 0.00404
48.7 -0.00105
48.75 -0.00604
48.8 -0.01048
48.85 -0.01059
48.9 -0.01146
48.95 -0.01498
49 -0.01547
49.05 -0.01039
49.1 -0.00896
49.15 -0.00734
49.2 -0.00163
49.25 -0.00233
49.3 -0.00599
49.35 -0.00783
49.4 -0.0079
49.45 -0.01133
49.5 -0.01067
49.55 -0.01092
49.6 -0.00751
49.65 -0.00703
49.7 -0.00616
49.75 -0.00499
49.8 -0.00273
49.85 -0.00009
49.9 0.00135
49.95 0.00397
50 0.00287
50.05 0.0046
50.1 0.00966
50.15 0.01356
50.2 0.01213
50.25 0.00737
50.3 0.0078
50.35 0.00539
50.4 0.00247
50.45 0.00354
50.5 0.00028
50.55 -0.00607
50.6 -0.0053
50.65 -0.00093
50.7 0.00003
50.75 -0.00201
50.8 0.00102
50.85 0.0028
50.9 0.00327
50.95 0.0003
51 -0.0002
51.05 -0.00235
51.1 -0.001
51.15 0.00223
51.2 0.0033
51.25 0.0059
51.3 0.01038
51.35 0.01401
51.4 0.01206
51.45 0.00938
51.5 0.00398
51.55 0.0011
51.6 -0.003
51.65 -0.00241
51.7 0.00099
51.75 0.00483
51.8 0.00957
51.85 0.01416
51.9 0.01114
51.95 0.00912
52 0.0051
52.05 0.00137
52.1 -0.00102
52.15 -0.00257
52.2 -0.00214
52.25 0.00079
52.3 -0.00018
52.35 0.00058
52.4 0.00538
52.45 0.00773
52.5 0.01222
52.55 0.01746
52.6 0.0213
52.65 0.02523
52.7 0.02087
52.75 0.01436
52.8 0.00421
52.85 -0.00118
52.9 -0.00215
52.95 -0.00531
53 -0.00758
53.05 -0.00721
53.1 -0.00311
53.15 -0.00256
53.2 -0.00664
53.25 -0.00495
53.3 -0.00099
53.35 -0.00054
53.4 -0.00404
53.45 -0.00229
53.5 -0.00017
53.55 0.00424
53.6 0.00528
53.65 0.0048
53.7 -0.00043
53.75 -0.00747
53.8 -0.00785
53.85 -0.00806
53.9 -0.00756
53.95 -0.01108
54 -0.01396
54.05 -0.01832
54.1 -0.02121
54.15 -0.01929
54.2 -0.01624
54.25 -0.01728
54.3 -0.01549
54.35 -0.01134
54.4 -0.01112
54.45 -0.01247
54.5 -0.01166
54.55 -0.01126
54.6 -0.0117
54.65 -0.01282
54.7 -0.01024
54.75 -0.01054
54.8 -0.0079
54.85 -0.00984
54.9 -0.00925
54.95 -0.00749
55 -0.00635
55.05 -0.00586
55.1 -0.00262
55.15 -0.00178
55.2 -0.0052
55.25 -0.00865
55.3 -0.00835
55.35 -0.012
55.4 -0.012
55.45 -0.00844
55.5 -0.00624
55.55 -0.00471
55.6 -0.0011
55.65 -0.00104
55.7 -0.00214
55.75 -0.00279
55.8 0.00027
55.85 -0.00156
55.9 -0.00356
55.95 0.00004
56 0.00316
56.05 0.00247
56.1 -0.0005
56.15 -0.00613
56.2 -0.01304
56.25 -0.01538
56.3 -0.01363
56.35 -0.01521
56.4 -0.01086
56.45 -0.01037
56.5 -0.01127
56.55 -0.01343
56.6 -0.01069
56.65 -0.0106
56.7 -0.0096
56.75 -0.00566
56.8 0.0004
56.85 0.00428
56.9 0.00323
56.95 0.00291
57 0.00509
57.05 0.01035
57.1 0.01485
57.15 0.02008
57.2 0.01735
57.25 0.01323
57.3 0.00738
57.35 0.00518
57.4 0.00493
57.45 0.00845
57.5 0.0099
57.55 0.01446
57.6 0.01953
57.65 0.01927
57.7 0.01483
57.75 0.01033
57.8 0.00591
57.85 0.00438
57.9 -0.00115
57.95 -0.00469
58 -0.01002
58.05 -0.00902
58.1 -0.00648
58.15 -0.00591
58.2 -0.00164
58.25 0.00285
58.3 0.00429
58.35 0.00152
58.4 -0.00046
58.45 -0.00193
58.5 -0.00664
58.55 -0.00846
58.6 -0.00509
58.65 -0.00545
58.7 -0.00854
58.75 -0.00986
58.8 -0.01081
58.85 -0.0149
58.9 -0.01895
58.95 -0.0214
59 -0.01826
59.05 -0.01859
59.1 -0.01618
59.15 -0.01033
59.2 -0.00785
59.25 -0.00492
59.3 -0.00396
59.35 -0.00193
59.4 0.00343
59.45 0.00234
59.5 0.00034
59.55 0.00235
59.6 0.00219
59.65 0.00145
59.7 -0.0012
59.75 -0.0026
59.8 -0.00748
59.85 -0.01258
59.9 -0.01665
59.95 -0.02065
60 -0.01821
60.05 -0.01093
60.1 -0.00228
60.15 0.00528
60.2 0.00873
60.25 0.00993
60.3 0.01371
60.35 0.01209
60.4 0.01234
60.45 0.00714
60.5 0.00453
60.55 -0.00072
60.6 -0.00312
60.65 -0.00292
60.7 -0.00517
60.75 -0.00384
60.8 0.00106
60.85 0.00237
60.9 -0.00063
60.95 -0.00203
61 -0.00412
61.05 -0.0039
61.1 -0.00263
61.15 -0.00231
61.2 -0.00514
61.25 -0.00617
61.3 -0.00724
61.35 -0.00249
61.4 0.00306
61.45 0.009
61.5 0.00915
61.55 0.00851
61.6 0.00454
61.65 -0.00235
61.7 -0.01009
61.75 -0.01073
61.8 -0.01257
61.85 -0.01248
61.9 -0.01331
61.95 -0.01515
62 -0.01891
62.05 -0.02119
62.1 -0.01728
62.15 -0.01055
62.2 -0.00268
62.25 0.0056
62.3 0.00702
62.35 0.00511
62.4 0.0002
62.45 -0.00689
62.5 -0.01486
62.55 -0.01924
62.6 -0.01858
62.65 -0.01355
62.7 -0.01004
62.75 -0.00405
62.8 0.0028
62.85 0.01002
62.9 0.01124
62.95 0.01046
63 0.00632
63.05 -0.00008
63.1 -0.00438
63.15 -0.00687
63.2 -0.00693
63.25 -0.00844
63.3 -0.01077
63.35 -0.01282
63.4 -0.00998
63.45 -0.00925
63.5 -0.00518
63.55 -0.00268
63.6 -0.00049
63.65 0.00539
63.7 0.00542
63.75 0.00933
63.8 0.01495
63.85 0.01637
63.9 0.01469
63.95 0.01083
64 0.00497
64.05 0.00401
64.1 0.0037
64.15 0.00823
64.2 0.01532
64.25 0.0157
64.3 0.01828
64.35 0.01837
64.4 0.01874
64.45 0.01722
64.5 0.01404
64.55 0.00941
64.6 0.00167
64.65 0.00008
64.7 -0.00333
64.75 -0.00875
64.8 -0.00712
64.85 -0.00975
64.9 -0.011
64.95 -0.00999
65 -0.01019
65.05 -0.0113
65.1 -0.01283
65.15 -0.01503
65.2 -0.01687
65.25 -0.01918
65.3 -0.01834
65.35 -0.01401
65.4 -0.00824
65.45 -0.00197
65.5 -0.00097
65.55 -0.0041
65.6 -0.0084
65.65 -0.00865
65.7 -0.00491
65.75 -0.00166
65.8 0.00502
65.85 0.0116
65.9 0.01436
65.95 0.01846
66 0.01758
66.05 0.01168
66.1 0.00279
66.15 -0.00227
66.2 -0.00212
66.25 -0.00549
66.3 -0.00946
66.35 -0.01232
66.4 -0.01036
66.45 -0.01088
66.5 -0.01068
66.55 -0.00528
66.6 0.00202
66.65 0.00843
66.7 0.0138
66.75 0.01567
66.8 0.01258
66.85 0.00651
66.9 0.0049
66.95 0.0024
67 0.00376
67.05 0.00646
67.1 0.00613
67.15 0.00605
67.2 0.00143
67.25 -0.00187
67.3 -0.00786
67.35 -0.01161
67.4 -0.01635
67.45 -0.01784
67.5 -0.01439
67.55 -0.01334
67.6 -0.0093
67.65 -0.00513
67.7 -0.00272
67.75 -0.00293
67.8 0.00137
67.85 0.00901
67.9 0.01365
67.95 0.01485
68 0.01591
68.05 0.0125
68.1 0.00726
68.15 0.00769
68.2 0.00759
68.25 0.00322
68.3 0.00031
68.35 0.00086
68.4 0.00443
68.45 0.00453
68.5 0.00394
68.55 -0.00019
68.6 0.0016
68.65 0.00247
68.7 0.00611
68.75 0.01127
68.8 0.00997
68.85 0.01209
68.9 0.01648
68.95 0.02057
69 0.02557
69.05 0.02936
69.1 0.02945
69.15 0.02456
69.2 0.01759
69.25 0.01407
69.3 0.01044
69.35 0.00755
69.4 0.00481
69.45 -0.00145
69.5 -0.00184
69.55 -0.00197
69.6 -0.00239
69.65 -0.00009
69.7 0.00064
69.75 -0.0008
69.8 0.00143
69.85 0.00715
69.9 0.0139
69.95 0.02062
70 0.0275
70.05 0.03009
70.1 0.0264
70.15 0.02081
70.2 0.01906
70.25 0.0168
70.3 0.01453
70.35 0.01015
70.4 0.00725
70.45 0.00724
70.5 0.00521
70.55 0.0055
70.6 0.00705
70.65 0.00822
70.7 0.00843
70.75 0.00788
70.8 0.00949
70.85 0.01233
70.9 0.01179
70.95 0.00807
71 0.00132
71.05 -0.00748
71.1 -0.01644
71.15 -0.0178
71.2 -0.01639
71.25 -0.01028
71.3 -0.00805
71.35 -0.0107
71.4 -0.01165
71.45 -0.01303
71.5 -0.01658
71.55 -0.01357
71.6 -0.01333
71.65 -0.01131
71.7 -0.00591
71.75 -0.00378
71.8 -0.0053
71.85 -0.00883
71.9 -0.01049
71.95 -0.0121
72 -0.00985
72.05 -0.0064
72.1 -0.00367
72.15 -0.00385
72.2 -0.00829
72.25 -0.00954
72.3 -0.01269
72.35 -0.01201
72.4 -0.01252
72.45 -0.01512
72.5 -0.01812
72.55 -0.02156
72.6 -0.02469
72.65 -0.02203
72.7 -0.01568
72.75 -0.00708
72.8 -0.0001
72.85 0.00101
72.9 0.00153
72.95 0.00373
73 0.00259
73.05 0.00002
73.1 0.00067
73.15 0.00285
73.2 0.00374
73.25 0.00026
73.3 0.0004
73.35 -0.00206
73.4 -0.00173
73.45 -0.00494
73.5 -0.00358
73.55 0.00177
73.6 0.00709
73.65 0.00827
73.7 0.01164
73.75 0.00856
73.8 0.01053
73.85 0.01064
73.9 0.0054
73.95 -0.0012
74 -0.0013
74.05 -0.00197
74.1 0.00215
74.15 0.00871
74.2 0.01614
74.25 0.02028
74.3 0.01889
74.35 0.01593
74.4 0.01363
74.45 0.01044
74.5 0.00292
74.55 -0.00498
74.6 -0.00517
74.65 -0.00627
74.7 -0.00589
74.75 -0.0054
74.8 -0.00474
74.85 -0.00355
74.9 -0.00343
74.95 -0.00203
75 0.00097
75.05 -0.00109
75.1 -0.00079
75.15 0.00354
75.2 0.00179
75.25 -0.00268
75.3 -0.0027
75.35 -0.00034
75.4 0.00064
75.45 0.0033
75.5 0.00531
75.55 0.00145
75.6 -0.00297
75.65 -0.01017
75.7 -0.00968
75.75 -0.00404
75.8 -0.00254
75.85 -0.0007
75.9 0.00206
75.95 0.00807
76 0.01335
76.05 0.01544
76.1 0.01217
76.15 0.00834
76.2 0.00343
76.25 0.00032
76.3 -0.00042
76.35 -0.0032
76.4 -0.00166
76.45 -0.0024
76.5 -0.00249
76.55 -0.00286
76.6 -0.00523
76.65 -0.00587
76.7 -0.00178
76.75 -0.00032
76.8 -0.00029
76.85 -0.00276
76.9 -0.00563
76.95 -0.00639
77 -0.00439
77.05 -0.00144
77.1 0.00258
77.15 0.0011
77.2 0.00354
77.25 0.00466
77.3 0.0029
77.35 -0.00197
77.4 -0.0048
77.45 -0.00424
77.5 -0.00269
77.55 -0.00593
77.6 -0.01061
77.65 -0.01546
77.7 -0.01362
77.75 -0.0111
77.8 -0.01163
77.85 -0.01469
77.9 -0.01571
77.95 -0.01251
78 -0.00664
78.05 -0.00032
78.1 -0.00005
78.15 -0.00039
78.2 -0.00164
78.25 -0.00297
78.3 -0.00546
78.35 -0.00258
78.4 -0.00157
78.45 0.00282
78.5 0.00195
78.55 0.00534
78.6 0.00285
78.65 -0
78.7 0.00008
78.75 -0.00097
78.8 0.00005
78.85 0.00148
78.9 0.00356
78.95 0.0058
79 0.00891
79.05 0.00911
79.1 0.00969
79.15 0.01034
79.2 0.01165
79.25 0.01609
79.3 0.01763
79.35 0.01395
79.4 0.01246
79.45 0.00788
79.5 0.004
79.55 -0.00257
79.6 -0.00372
79.65 -0.00363
79.7 -0.00113
79.75 0.00261
79.8 0.00043
79.85 -0.00376
79.9 -0.00664
79.95 -0.00477
80 -0.00187
80.05 -0.00034
80.1 0.00093
80.15 0.0009
80.2 -0.00312
80.25 -0.00611
80.3 -0.01103
80.35 -0.01042
80.4 -0.01221
80.45 -0.0159
80.5 -0.01857
80.55 -0.01842
80.6 -0.01385
80.65 -0.01336
80.7 -0.01353
80.75 -0.01036
80.8 -0.00756
80.85 -0.00786
80.9 -0.00806
80.95 -0.01045
81 -0.01008
81.05 -0.01195
81.1 -0.0086
81.15 -0.00606
81.2 -0.00799
81.25 -0.00502
81.3 -0.00233
81.35 0.00343
81.4 0.00297
81.45 0.00219
81.5 0.00507
81.55 0.00205
81.6 -0.00071
81.65 -0.00313
81.7 -0.00626
81.75 -0.01142
81.8 -0.0111
81.85 -0.01119
81.9 -0.01026
81.95 -0.00566
82 -0.00055
82.05 0.00286
82.1 0.00558
82.15 0.00419
82.2 0.00119
82.25 0.00004
82.3 -0.00124
82.35 0.00226
82.4 0.0012
82.45 0.00211
82.5 0.00056
82.55 -0.00127
82.6 -0.00437
82.65 -0.00583
82.7 -0.0056
82.75 -0.00827
82.8 -0.01184
82.85 -0.01043
82.9 -0.00635
82.95 -0.00738
83 -0.00831
83.05 -0.00985
83.1 -0.01024
83.15 -0.01222
83.2 -0.00778
83.25 -0.00418
83.3 -0.00537
83.35 -0.00231
83.4 -0.00186
83.45 0.00012
83.5 0.00346
83.55 0.00937
83.6 0.01318
83.65 0.01188
83.7 0.00596
83.75 -0.00213
83.8 -0.01057
83.85 -0.01167
83.9 -0.01318
83.95 -0.01373
84 -0.00847
84.05 -0.00219
84.1 0.00045
84.15 0.00513
84.2 0.00999
84.25 0.01429
84.3 0.01537
84.35 0.0178
84.4 0.01909
84.45 0.02129
84.5 0.01719
84.55 0.01036
84.6 0.00504
84.65 0.00004
84.7 -0.00156
84.75 -0.00037
84.8 0.0024
84.85 0.00267
84.9 0.00306
84.95 0.0009
85 -0.00094
85.05 0.0022
85.1 0.00872
85.15 0.01287
85.2 0.01163
85.25 0.01126
85.3 0.01111
85.35 0.01214
85.4 0.01391
85.45 0.01724
85.5 0.01839
85.55 0.01317
85.6 0.00748
85.65 0.00098
85.7 0.00081
85.75 0.0035
85.8 0.0044
85.85 0.00866
85.9 0.0139
85.95 0.01184
86 0.01009
86.05 0.00647
86.1 0.00026
86.15 -0.00795
86.2 -0.01558
86.25 -0.01582
86.3 -0.01167
86.35 -0.01082
86.4 -0.01294
86.45 -0.01521
86.5 -0.01446
86.55 -0.01232
86.6 -0.01289
86.65 -0.01197
86.7 -0.01397
86.75 -0.01497
86.8 -0.01227
86.85 -0.01105
86.9 -0.0097
86.95 -0.01062
87 -0.0092
87.05 -0.00957
87.1 -0.012
87.15 -0.00804
87.2 -0.00154
87.25 0.00044
87.3 0.00315
87.35 0.00917
87.4 0.01303
87.45 0.01197
87.5 0.01045
87.55 0.00515
87.6 0.00549
87.65 0.00336
87.7 -0.0027
87.75 -0.00248
87.8 -0.0006
87.85 -0.00339
87.9 -0.00234
87.95 0.00099
88 0.00175
88.05 0.00016
88.1 0.00217
88.15 0.00596
88.2 0.00693
88.25 0.01051
88.3 0.01261
88.35 0.01292
88.4 0.01094
88.45 0.00516
88.5 -0.00083
88.55 -0.0041
88.6 -0.00413
88.65 -0.00587
88.7 -0.00685
88.75 -0.0088
88.8 -0.00632
88.85 -0.0066
88.9 -0.00152
88.95 0.00411
89 0.00517
89.05 0.00609
89.1 0.00361
89.15 0.00515
89.2 0.00968
89.25 0.00804
89.3 0.00317
89.35 0.00174
89.4 0.00173
89.45 0.00378
89.5 0.00463
89.55 0.00148
89.6 0.00143
89.65 -0.00096
89.7 -0.0057
89.75 -0.0097
89.8 -0.00715
89.85 -0.00284
89.9 -0.00072
89.95 -0.00287
90 -0.00012
90.05 0.00445
90.1 0.01092
90.15 0.0143
90.2 0.01328
90.25 0.00703
90.3 0.0041
90.35 0.00571
90.4 0.01075
90.45 0.01214
90.5 0.00816
90.55 0.00592
90.6 0.00337
90.65 0.0029
90.7 0.00122
90.75 -0.00347
90.8 -0.00867
90.85 -0.00717
90.9 -0.00433
90.95 -0.00149
91 0.00308
91.05 0.003
91.1 0.00136
91.15 -0
91.2 0.00079
91.25 0.0024
91.3 0.00691
91.35 0.01076
91.4 0.00835
91.45 0.00303
91.5 0.00374
91.55 0.00389
91.6 0.00168
91.65 -0.00404
91.7 -0.01176
91.75 -0.01347
91.8 -0.01556
91.85 -0.0111
91.9 -0.00612
91.95 0.0007
92 0.00815
92.05 0.01329
92.1 0.0113
92.15 0.00901
92.2 0.00863
92.25 0.0089
92.3 0.00727
92.35 0.0024
92.4 -0.00239
92.45 -0.00799
92.5 -0.01058
92.55 -0.01184
92.6 -0.00944
92.65 -0.00835
92.7 -0.00794
92.75 -0.01138
92.8 -0.00847
92.85 -0.00975
92.9 -0.0139
92.95 -0.01706
93 -0.01484
93.05 -0.01531
93.1 -0.01763
93.15 -0.02085
93.2 -0.01942
93.25 -0.01747
93.3 -0.01738
93.35 -0.01154
93.4 -0.00783
93.45 -0.00156
93.5 0.00442
93.55 0.00903
93.6 0.01074
93.65 0.01467
93.7 0.02061
93.75 0.02114
93.8 0.01983
93.85 0.01426
93.9 0.00871
93.95 0.0039
94 -0.00281
94.05 -0.00962
94.1 -0.0127
94.15 -0.00895
94.2 -0.00315
94.25 -0.00286
94.3 0.00055
94.35 0.00051
94.4 0.00411
94.45 0.00702
94.5 0.00901
94.55 0.00531
94.6 0.00546
94.65 0.00151
94.7 -0.00025
94.75 0.00318
94.8 0.00591
94.85 0.00886
94.9 0.00748
94.95 0.00618
95 0.00758
95.05 0.00593
95.1 0.00767
95.15 0.01219
95.2 0.01259
95.25 0.01593
95.3 0.02118
95.35 0.02599
95.4 0.02713
95.45 0.02694
95.5 0.02269
95.55 0.01894
95.6 0.01624
95.65 0.00885
95.7 0.00684
95.75 0.00705
95.8 0.00373
95.85 0.00403
95.9 0.00677
95.95 0.00447
96 -0.00074
96.05 -0.0025
96.1 -0.00583
96.15 -0.00875
96.2 -0.01
96.25 -0.00655
96.3 -0.00388
96.35 -0.0047
96.4 -0.00591
96.45 -0.00682
96.5 -0.00591
96.55 -0.00705
96.6 -0.01117
96.65 -0.01304
96.7 -0.01467
96.75 -0.01227
96.8 -0.01405
96.85 -0.01623
96.9 -0.01601
96.95 -0.0112
97 -0.00739
97.05 -0.00903
97.1 -0.01323
97.15 -0.01149
97.2 -0.01127
97.25 -0.01396
97.3 -0.01359
97.35 -0.01121
97.4 -0.00511
97.45 -0.00097
97.5 0.00479
97.55 0.01136
97.6 0.01605
97.65 0.01321
97.7 0.01225
97.75 0.00987
97.8 0.00592
97.85 -0.00135
97.9 -0.00581
97.95 -0.01174
98 -0.01827
98.05 -0.02505
98.1 -0.02774
98.15 -0.02626
98.2 -0.02491
98.25 -0.02232
98.3 -0.02114
98.35 -0.01994
98.4 -0.01858
98.45 -0.01944
98.5 -0.0218
98.55 -0.02187
98.6 -0.01612
98.65 -0.01351
98.7 -0.01345
98.75 -0.01355
98.8 -0.01613
98.85 -0.01933
98.9 -0.01697
98.95 -0.01431
99 -0.00757
99.05 -0.00152
99.1 0.00301
99.15 0.0053
99.2 0.0075
99.25 0.00489
99.3 0.0029
99.35 0.00321
99.4 0.00097
99.45 -0.00371
99.5 -0.00497
99.55 -0.00822
99.6 -0.01288
99.65 -0.0141
99.7 -0.01526
99.75 -0.01377
99.8 -0.01326
99.85 -0.009
99.9 -0.00658
99.95 -0.00124
