0 0
0.05 0.00873
0.1 0.02045
0.15 0.03075
0.2 0.04341
0.25 0.0544
0.3 0.06402
0.35 0.06961
0.4 0.0681
0.45 0.0615
0.5 0.05735
0.55 0.05835
0.6 0.06211
0.65 0.05972
0.7 0.05822
0.75 0.05504
0.8 0.04867
0.85 0.04587
0.9 0.04764
0.95 0.0438
1 0.04109
1.05 0.04271
1.1 0.04357
1.15 0.04083
1.2 0.04241
1.25 0.03955
1.3 0.03892
1.35 0.04069
1.4 0.03855
1.45 0.03967
1.5 0.03751
1.55 0.03518
1.6 0.03305
1.65 0.02736
1.7 0.0274
1.75 0.03167
1.8 0.03379
1.85 0.03065
1.9 0.0325
1.95 0.03545
2 0.03484
2.05 0.03283
2.1 0.03519
2.15 0.03431
2.2 0.03631
2.25 0.03312
2.3 0.02828
2.35 0.02058
2.4 0.0123
2.45 0.00608
2.5 0.00418
2.55 0.00702
2.6 0.01184
2.65 0.01217
2.7 0.0175
2.75 0.02546
2.8 0.03491
2.85 0.03943
2.9 0.04432
2.95 0.05012
3 0.05502
3.05 0.05465
3.1 0.05366
3.15 0.04826
3.2 0.04072
3.25 0.0331
3.3 0.02968
3.35 0.02769
3.4 0.02464
3.45 0.02533
3.5 0.02352
3.55 0.02255
3.6 0.01699
3.65 0.01416
3.7 0.01261
3.75 0.01634
3.8 0.01677
3.85 0.01596
3.9 0.01288
3.95 0.01493
4 0.01471
4.05 0.01141
4.1 0.00845
4.15 0.00551
4.2 0.00302
4.25 0.0045
4.3 0.00832
4.35 0.0104
4.4 0.01108
4.45 0.00647
4.5 -0.00087
4.55 -0.008
4.6 -0.01515
4.65 -0.02108
4.7 -0.02556
4.75 -0.03566
4.8 -0.04477
4.85 -0.05364
4.9 -0.07063
4.95 -0.09049
5 -0.11186
5.05 -0.13269
5.1 -0.15769
5.15 -0.18524
5.2 -0.21319
5.25 -0.24032
5.3 -0.27434
5.35 -0.30755
5.4 -0.34522
5.45 -0.38841
5.5 -0.43405
5.55 -0.47424
5.6 -0.50689
5.65 -0.54017
5.7 -0.56719
5.75 -0.58987
5.8 -0.60813
5.85 -0.61878
5.9 -0.62242
5.95 -0.6177
6 -0.61315
6.05 -0.60667
6.1 -0.58989
6.15 -0.56975
6.2 -0.54434
6.25 -0.51177
6.3 -0.47383
6.35 -0.42489
6.4 -0.37241
6.45 -0.31135
6.5 -0.24431
6.55 -0.18073
6.6 -0.11348
6.65 -0.048
6.7 0.01364
6.75 0.06816
6.8 0.11585
6.85 0.15801
6.9 0.19578
6.95 0.23016
7 0.26572
7.05 0.30203
7.1 0.33485
7.15 0.36568
7.2 0.3946
7.25 0.4142
7.3 0.42807
7.35 0.44208
7.4 0.45632
7.45 0.46561
7.5 0.47169
7.55 0.47227
7.6 0.47112
7.65 0.47471
7.7 0.47778
7.75 0.47745
7.8 0.47283
7.85 0.46643
7.9 0.46601
7.95 0.46712
8 0.47088
8.05 0.4737
8.1 0.46776
8.15 0.45594
8.2 0.44697
8.25 0.43377
8.3 0.42246
8.35 0.40854
8.4 0.39659
8.45 0.38676
8.5 0.37913
8.55 0.36901
8.6 0.35643
8.65 0.34271
8.7 0.32757
8.75 0.31385
8.8 0.29749
8.85 0.2809
8.9 0.26365
8.95 0.24075
9 0.22213
9.05 0.20751
9.1 0.19271
9.15 0.17419
9.2 0.16102
9.25 0.15043
9.3 0.14281
9.35 0.13575
9.4 0.12584
9.45 0.11616
9.5 0.10557
9.55 0.09135
9.6 0.08336
9.65 0.07371
9.7 0.06242
9.75 0.056
9.8 0.04849
9.85 0.04312
9.9 0.03842
9.95 0.03278
10 0.02845
10.05 0.02608
10.1 0.02832
10.15 0.03433
10.2 0.03349
10.25 0.02814
10.3 0.02509
10.35 0.02583
10.4 0.02291
10.45 0.02085
10.5 0.02257
10.55 0.02592
10.6 0.02764
10.65 0.02909
10.7 0.02338
10.75 0.01711
10.8 0.01439
10.85 0.01482
10.9 0.01143
10.95 0.00685
11 -0.0009
11.05 -0.00693
11.1 -0.01135
11.15 -0.01114
11.2 -0.01374
11.25 -0.0166
11.3 -0.02259
11.35 -0.02988
11.4 -0.03161
11.45 -0.03084
11.5 -0.03297
11.55 -0.03168
11.6 -0.03615
11.65 -0.03548
11.7 -0.03262
11.75 -0.03606
11.8 -0.03982
11.85 -0.0471
11.9 -0.05039
11.95 -0.05362
12 -0.05907
12.05 -0.06373
12.1 -0.06156
12.15 -0.05653
12.2 -0.05066
12.25 -0.04469
12.3 -0.041
12.35 -0.04208
12.4 -0.04407
12.45 -0.04701
12.5 -0.04896
12.55 -0.05195
12.6 -0.05716
12.65 -0.05625
12.7 -0.05887
12.75 -0.0587
12.8 -0.06123
12.85 -0.06449
12.9 -0.06705
12.95 -0.06823
13 -0.06719
13.05 -0.06313
13.1 -0.06171
13.15 -0.05844
13.2 -0.05772
13.25 -0.05674
13.3 -0.05051
13.35 -0.04147
13.4 -0.03205
13.45 -0.02923
13.5 -0.02396
13.55 -0.01899
13.6 -0.01981
13.65 -0.0199
13.7 -0.02539
13.75 -0.03296
13.8 -0.03471
13.85 -0.0405
13.9 -0.04422
13.95 -0.04623
14 -0.04897
14.05 -0.04728
14.1 -0.04064
14.15 -0.03714
14.2 -0.03112
14.25 -0.03199
14.3 -0.03169
14.35 -0.02941
14.4 -0.03144
14.45 -0.03157
14.5 -0.03127
14.55 -0.03388
14.6 -0.03637
14.65 -0.03603
14.7 -0.03958
14.75 -0.0432
14.8 -0.04765
14.85 -0.04937
14.9 -0.05315
14.95 -0.0559
15 -0.05384
15.05 -0.0525
15.1 -0.0513
15.15 -0.05006
15.2 -0.05027
15.25 -0.05106
15.3 -0.05335
15.35 -0.05091
15.4 -0.04891
15.45 -0.04833
15.5 -0.04509
15.55 -0.03949
15.6 -0.03375
15.65 -0.02441
15.7 -0.01557
15.75 -0.00929
15.8 -0.00183
15.85 -0.00191
15.9 0.00061
15.95 -0.00029
16 0.00026
16.05 0.00051
16.1 -0.00261
16.15 -0.00875
16.2 -0.00972
16.25 -0.01252
16.3 -0.01048
16.35 -0.01186
16.4 -0.01357
16.45 -0.01098
16.5 -0.00943
16.55 -0.00483
16.6 -0.00616
16.65 -0.00899
16.7 -0.00828
16.75 -0.01249
16.8 -0.01721
16.85 -0.01749
16.9 -0.01772
16.95 -0.01763
17 -0.01612
17.05 -0.0194
17.1 -0.02108
17.15 -0.02387
17.2 -0.0227
17.25 -0.01837
17.3 -0.01243
17.35 -0.00698
17.4 -0.00428
17.45 -0.00411
17.5 -0.00443
17.55 -0.00091
17.6 0.00511
17.65 0.00838
17.7 0.00995
17.75 0.00747
17.8 0.00158
17.85 -0.00631
17.9 -0.00963
17.95 -0.00723
18 -0.00561
18.05 -0.0051
18.1 -0.00796
18.15 -0.01002
18.2 -0.00834
18.25 -0.0059
18.3 -0.00388
18.35 -0.00535
18.4 -0.00732
18.45 -0.01186
18.5 -0.01689
18.55 -0.01629
18.6 -0.01389
18.65 -0.01476
18.7 -0.01862
18.75 -0.01592
18.8 -0.01561
18.85 -0.01096
18.9 -0.01146
18.95 -0.01276
19 -0.01197
19.05 -0.00787
19.1 -0.0049
19.15 -0.00182
19.2 -0.00178
19.25 -0.00042
19.3 -0.00414
19.35 -0.00432
19.4 -0.00453
19.45 -0.00453
19.5 -0.00487
19.55 -0.00488
19.6 -0.00903
19.65 -0.01425
19.7 -0.01787
19.75 -0.02105
19.8 -0.01713
19.85 -0.01601
19.9 -0.01157
19.95 -0.0038
20 0.00327
20.05 0.0071
20.1 0.01163
20.15 0.01354
20.2 0.0159
20.25 0.01634
20.3 0.01446
20.35 0.0158
20.4 0.01851
20.45 0.01473
20.5 0.0136
20.55 0.01339
20.6 0.00792
20.65 -0.00112
20.7 -0.00551
20.75 -0.00441
20.8 -0.00344
20.85 -0.00303
20.9 -0.00217
20.95 -0.00258
21 -0.00594
21.05 -0.00569
21.1 -0.00592
21.15 -0.00655
21.2 -0.00671
21.25 -0.00945
21.3 -0.00766
21.35 -0.00367
21.4 0.00217
21.45 0.00686
21.5 0.00913
21.55 0.00761
21.6 0.00428
21.65 0.00104
21.7 0.00111
21.75 0.00156
21.8 -0.003
21.85 -0.01005
21.9 -0.01382
21.95 -0.01772
22 -0.01738
22.05 -0.01338
22.1 -0.00891
22.15 -0.00154
22.2 0.00533
22.25 0.00632
22.3 0.00759
22.35 0.00652
22.4 0.00805
22.45 0.00999
22.5 0.01314
22.55 0.00963
22.6 0.00558
22.65 0.00332
22.7 -0.00167
22.75 -0.00085
22.8 -0.00265
22.85 -0.00875
22.9 -0.00942
22.95 -0.0067
23 -0.00042
23.05 0.00583
23.1 0.01079
23.15 0.01629
23.2 0.01499
23.25 0.01479
23.3 0.01445
23.35 0.01511
23.4 0.01089
23.45 0.00908
23.5 0.00923
23.55 0.00925
23.6 0.01105
23.65 0.01125
23.7 0.00878
23.75 0.00243
23.8 -0.00067
23.85 -0.00032
23.9 0.00069
23.95 0.00441
24 0.00352
24.05 -0.00084
24.1 -0.00362
24.15 -0.00646
24.2 -0.00387
24.25 -0.00665
24.3 -0.00501
24.35 -0.00545
24.4 -0.00288
24.45 -0.00057
24.5 -0.00176
24.55 -0.00715
24.6 -0.00827
24.65 -0.00751
24.7 -0.00942
24.75 -0.00968
24.8 -0.00665
24.85 -0.00301
24.9 -0.00481
24.95 -0.00677
25 -0.01046
25.05 -0.01619
25.1 -0.02111
25.15 -0.02252
25.2 -0.02267
25.25 -0.02298
25.3 -0.02556
25.35 -0.02513
25.4 -0.02415
25.45 -0.01854
25.5 -0.01692
25.55 -0.01222
25.6 -0.01008
25.65 -0.01096
25.7 -0.01231
25.75 -0.01031
25.8 -0.01089
25.85 -0.01523
25.9 -0.02162
25.95 -0.02312
26 -0.02601
26.05 -0.02717
26.1 -0.02564
26.15 -0.01853
26.2 -0.01342
26.25 -0.00627
26.3 -0.00114
26.35 0.00072
26.4 0.00577
26.45 0.00511
26.5 0.00079
26.55 -0.00094
26.6 -0.00636
26.65 -0.00839
26.7 -0.00552
26.75 -0.00408
26.8 -0.00286
26.85 -0.0026
26.9 0.0021
26.95 0.00924
27 0.01115
27.05 0.00669
27.1 -0.00064
27.15 -0.00608
27.2 -0.00535
27.25 -0.00081
27.3 0.00216
27.35 0.00228
27.4 0.00059
27.45 -0.0011
27.5 -0.00735
27.55 -0.01654
27.6 -0.02641
27.65 -0.03486
27.7 -0.03935
27.75 -0.04425
27.8 -0.05547
27.85 -0.06426
27.9 -0.07939
27.95 -0.09457
28 -0.10942
28.05 -0.12549
28.1 -0.1421
28.15 -0.16423
28.2 -0.19383
28.25 -0.227
28.3 -0.26141
28.35 -0.30482
28.4 -0.35309
28.45 -0.40838
28.5 -0.46185
28.55 -0.52078
28.6 -0.58441
28.65 -0.65246
28.7 -0.73001
28.75 -0.81308
28.8 -0.89859
28.85 -0.98712
28.9 -1.07573
28.95 -1.16967
29 -1.26483
29.05 -1.35786
29.1 -1.45377
29.15 -1.55114
29.2 -1.64356
29.25 -1.73428
29.3 -1.81929
29.35 -1.90277
29.4 -1.98359
29.45 -2.05099
29.5 -2.10957
29.55 -2.15926
29.6 -2.19626
29.65 -2.21746
29.7 -2.23079
29.75 -2.22854
29.8 -2.21473
29.85 -2.1934
29.9 -2.15934
29.95 -2.10778
30 -2.04561
30.05 -1.97207
30.1 -1.88769
30.15 -1.79421
30.2 -1.68561
30.25 -1.57257
30.3 -1.45467
30.35 -1.32542
30.4 -1.1902
30.45 -1.0492
30.5 -0.90061
30.55 -0.7516
30.6 -0.6012
30.65 -0.45618
30.7 -0.31165
30.75 -0.16681
30.8 -0.02232
30.85 0.11852
30.9 0.25375
30.95 0.3888
31 0.52263
31.05 0.64769
31.1 0.77103
31.15 0.88865
31.2 1.00068
31.25 1.10495
31.3 1.19981
31.35 1.28478
31.4 1.36046
31.45 1.43303
31.5 1.49644
31.55 1.5528
31.6 1.60601
31.65 1.65933
31.7 1.71017
31.75 1.75716
31.8 1.79215
31.85 1.82262
31.9 1.84299
31.95 1.85944
32 1.87327
32.05 1.87822
32.1 1.87923
32.15 1.87485
32.2 1.86739
32.25 1.86216
32.3 1.85249
32.35 1.84584
32.4 1.83507
32.45 1.82915
32.5 1.82335
32.55 1.8182
32.6 1.81325
32.65 1.80177
32.7 1.78568
32.75 1.76297
32.8 1.73489
32.85 1.7049
32.9 1.6732
32.95 1.64094
33 1.61408
33.05 1.59193
33.1 1.56616
33.15 1.53975
33.2 1.50874
33.25 1.4789
33.3 1.44393
33.35 1.4082
33.4 1.36857
33.45 1.32416
33.5 1.28009
33.55 1.23554
33.6 1.19267
33.65 1.14833
33.7 1.10341
33.75 1.06227
33.8 1.01736
33.85 0.97479
33.9 0.93231
33.95 0.89034
34 0.84987
34.05 0.8061
34.1 0.7681
34.15 0.72895
34.2 0.69078
34.25 0.64916
34.3 0.60974
34.35 0.56576
34.4 0.52424
34.45 0.48089
34.5 0.43686
34.55 0.39338
34.6 0.351
34.65 0.31022
34.7 0.27236
34.75 0.24119
34.8 0.2177
34.85 0.19874
34.9 0.17735
34.95 0.15911
35 0.13756
35.05 0.11409
35.1 0.0896
35.15 0.06336
35.2 0.04176
35.25 0.02328
35.3 0.00519
35.35 -0.01174
35.4 -0.0285
35.45 -0.04391
35.5 -0.06602
35.55 -0.08895
35.6 -0.10707
35.65 -0.12146
35.7 -0.13979
35.75 -0.15551
35.8 -0.16794
35.85 -0.18352
35.9 -0.19543
35.95 -0.21153
36 -0.2256
36.05 -0.24016
36.1 -0.25668
36.15 -0.27017
36.2 -0.28327
36.25 -0.28836
36.3 -0.29227
36.35 -0.2939
36.4 -0.29138
36.45 -0.28703
36.5 -0.28476
36.55 -0.28974
36.6 -0.2991
36.65 -0.30602
36.7 -0.31376
36.75 -0.31515
36.8 -0.31212
36.85 -0.31274
36.9 -0.31252
36.95 -0.31004
37 -0.30764
37.05 -0.30874
37.1 -0.31152
37.15 -0.31663
37.2 -0.31894
37.25 -0.31895
37.3 -0.31466
37.35 -0.31402
37.4 -0.31254
37.45 -0.31069
37.5 -0.30403
37.55 -0.30179
37.6 -0.29931
37.65 -0.29434
37.7 -0.28672
37.75 -0.28411
37.8 -0.28548
37.85 -0.28308
37.9 -0.283
37.95 -0.28226
38 -0.27945
38.05 -0.27647
38.1 -0.27192
38.15 -0.2696
38.2 -0.2647
38.25 -0.26207
38.3 -0.26228
38.35 -0.26314
38.4 -0.26487
38.45 -0.26778
38.5 -0.26928
38.55 -0.27082
38.6 -0.2644
38.65 -0.25539
38.7 -0.24672
38.75 -0.23427
38.8 -0.22813
38.85 -0.22627
38.9 -0.22223
38.95 -0.21978
39 -0.22013
39.05 -0.22178
39.1 -0.21591
39.15 -0.20783
39.2 -0.19643
39.25 -0.19057
39.3 -0.18451
39.35 -0.18386
39.4 -0.18573
39.45 -0.18929
39.5 -0.19403
39.55 -0.194
39.6 -0.19011
39.65 -0.18617
39.7 -0.18028
39.75 -0.17848
39.8 -0.17082
39.85 -0.16431
39.9 -0.15609
39.95 -0.15126
40 -0.14542
40.05 -0.14403
40.1 -0.14143
40.15 -0.14041
40.2 -0.142
40.25 -0.13916
40.3 -0.13831
40.35 -0.13304
40.4 -0.13226
40.45 -0.13133
40.5 -0.12743
40.55 -0.12227
40.6 -0.12287
40.65 -0.1225
40.7 -0.12123
40.75 -0.12269
40.8 -0.12518
40.85 -0.12666
40.9 -0.12887
40.95 -0.12782
41 -0.12243
41.05 -0.1139
41.1 -0.10324
41.15 -0.09818
41.2 -0.09128
41.25 -0.09006
41.3 -0.08662
41.35 -0.08653
41.4 -0.08308
41.45 -0.08179
41.5 -0.07748
41.55 -0.07264
41.6 -0.0706
41.65 -0.06819
41.7 -0.06541
41.75 -0.06491
41.8 -0.06868
41.85 -0.06932
41.9 -0.06682
41.95 -0.06262
42 -0.06429
42.05 -0.0665
42.1 -0.06413
42.15 -0.06355
42.2 -0.06007
42.25 -0.05676
42.3 -0.05152
42.35 -0.0503
42.4 -0.05551
42.45 -0.06295
42.5 -0.07244
42.55 -0.07643
42.6 -0.07449
42.65 -0.07493
42.7 -0.07777
42.75 -0.08163
42.8 -0.0804
42.85 -0.07527
42.9 -0.07388
42.95 -0.07115
43 -0.07072
43.05 -0.06767
43.1 -0.06722
43.15 -0.06326
43.2 -0.06013
43.25 -0.05618
43.3 -0.04995
43.35 -0.04553
43.4 -0.04567
43.45 -0.04715
43.5 -0.05227
43.55 -0.05088
43.6 -0.04839
43.65 -0.04994
43.7 -0.0495
43.75 -0.04807
43.8 -0.05039
43.85 -0.05117
43.9 -0.05158
43.95 -0.05037
44 -0.04699
44.05 -0.04264
44.1 -0.03945
44.15 -0.03355
44.2 -0.03295
44.25 -0.03646
44.3 -0.03487
44.35 -0.03732
44.4 -0.03514
44.45 -0.03456
44.5 -0.03842
44.55 -0.03679
44.6 -0.03599
44.65 -0.03787
44.7 -0.03483
44.75 -0.03417
44.8 -0.03552
44.85 -0.03953
44.9 -0.04481
44.95 -0.04837
45 -0.05098
45.05 -0.05394
45.1 -0.04983
45.15 -0.04987
45.2 -0.04712
45.25 -0.04623
45.3 -0.04675
45.35 -0.0439
45.4 -0.03937
45.45 -0.03487
45.5 -0.03295
45.55 -0.02998
45.6 -0.02974
45.65 -0.02673
45.7 -0.02844
45.75 -0.03154
45.8 -0.02834
45.85 -0.02463
45.9 -0.02632
45.95 -0.02362
46 -0.02025
46.05 -0.01456
46.1 -0.01009
46.15 -0.00713
46.2 -0.00748
46.25 -0.00609
46.3 -0.00192
46.35 -0.00425
46.4 -0.00918
46.45 -0.01545
46.5 -0.01663
46.55 -0.01981
46.6 -0.02128
46.65 -0.02029
46.7 -0.01621
46.75 -0.01202
46.8 -0.0118
46.85 -0.01552
46.9 -0.01982
46.95 -0.02564
47 -0.0312
47.05 -0.02922
47.1 -0.02285
47.15 -0.01473
47.2 -0.0139
47.25 -0.01567
47.3 -0.01398
47.35 -0.0143
47.4 -0.01181
47.45 -0.00772
47.5 -0.00093
47.55 0.00643
47.6 0.01376
47.65 0.02023
47.7 0.01819
47.75 0.01496
47.8 0.01323
47.85 0.01103
47.9 0.00616
47.95 0.00604
48 0.00338
48.05 0.00119
48.1 -0.00234
48.15 -0.00927
48.2 -0.01252
48.25 -0.01169
48.3 -0.01069
48.35 -0.01113
48.4 -0.01506
48.45 -0.01297
48.5 -0.01162
48.55 -0.01077
48.6 -0.00787
48.65 -0.0104
48.7 -0.01163
48.75 -0.01327
48.8 -0.01506
48.85 -0.01529
48.9 -0.01638
48.95 -0.01635
49 -0.01199
49.05 -0.00619
49.1 -0.00675
49.15 -0.01185
49.2 -0.01705
49.25 -0.02281
49.3 -0.02437
49.35 -0.02398
49.4 -0.02137
49.45 -0.02203
49.5 -0.01991
49.55 -0.01889
49.6 -0.01284
49.65 -0.009
49.7 -0.01043
49.75 -0.01114
49.8 -0.00832
49.85 -0.0051
49.9 -0.00251
49.95 0.00295
50 0.01
50.05 0.01751
50.1 0.02267
50.15 0.02711
50.2 0.03144
50.25 0.03036
50.3 0.02699
50.35 0.02382
50.4 0.02245
50.45 0.0155
50.5 0.00587
50.55 -0.00315
50.6 -0.00786
50.65 -0.0129
50.7 -0.01894
50.75 -0.02093
50.8 -0.02393
50.85 -0.02169
50.9 -0.01674
50.95 -0.00917
51 0.00024
51.05 0.00395
51.1 0.00859
51.15 0.0079
51.2 0.00177
51.25 0.001
51.3 -0.00105
51.35 -0.00564
51.4 -0.00785
51.45 -0.01251
51.5 -0.01311
51.55 -0.00921
51.6 -0.00635
51.65 -0.00926
51.7 -0.00734
51.75 -0.00335
51.8 -0.00494
51.85 -0.01026
51.9 -0.01028
51.95 -0.00908
52 -0.01046
52.05 -0.01192
52.1 -0.01199
52.15 -0.00973
52.2 -0.01244
52.25 -0.0114
52.3 -0.01467
52.35 -0.01689
52.4 -0.01553
52.45 -0.01806
52.5 -0.02147
52.55 -0.02211
52.6 -0.01807
52.65 -0.01183
52.7 -0.00779
52.75 -0.00859
52.8 -0.01055
52.85 -0.01055
52.9 -0.01031
52.95 -0.00505
53 -0.00271
53.05 -0.00062
53.1 -0.00336
53.15 -0.00327
53.2 -0.00745
53.25 -0.01081
53.3 -0.01383
53.35 -0.01804
53.4 -0.02313
53.45 -0.02173
53.5 -0.01932
53.55 -0.01652
53.6 -0.01581
53.65 -0.00983
53.7 -0.00559
53.75 -0.00361
53.8 -0.00117
53.85 -0.00025
53.9 0.00368
53.95 0.00826
54 0.00861
54.05 0.00718
54.1 0.00761
54.15 0.00278
54.2 -0.00056
54.25 -0.00123
54.3 -0.00026
54.35 -0.00064
54.4 -0.00208
54.45 -0.0064
54.5 -0.00554
54.55 -0.00497
54.6 -0.0012
54.65 0.0035
54.7 0.00303
54.75 0.00315
54.8 0.00086
54.85 -0.00486
54.9 -0.0107
54.95 -0.01242
55 -0.01664
55.05 -0.01978
55.1 -0.01729
55.15 -0.01196
55.2 -0.01034
55.25 -0.00411
55.3 -0.00109
55.35 0.00077
55.4 0.00515
55.45 0.00709
55.5 0.00352
55.55 0.00119
55.6 0.00268
55.65 0.00401
55.7 0.00106
55.75 0.00369
55.8 0.00912
55.85 0.00931
55.9 0.00508
55.95 0.00551
56 0.0017
56.05 -0.00037
56.1 -0.00372
56.15 -0.00619
56.2 -0.00482
56.25 -0.00028
56.3 -0.00008
56.35 -0.00296
56.4 -0.00211
56.45 0.00216
56.5 0.0065
56.55 0.00562
56.6 0.00692
56.65 0.01009
56.7 0.01078
56.75 0.01071
56.8 0.00619
56.85 0.0052
56.9 0.00121
56.95 -0.00289
57 -0.00588
57.05 -0.01161
57.1 -0.01809
57.15 -0.01653
57.2 -0.01789
57.25 -0.01975
57.3 -0.02377
57.35 -0.01989
57.4 -0.01341
57.45 -0.00919
57.5 -0.00445
57.55 0.00202
57.6 0.00365
57.65 0.00299
57.7 0.00093
57.75 -0.00198
57.8 -0.00682
57.85 -0.01095
57.9 -0.00934
57.95 -0.01188
58 -0.01538
58.05 -0.01837
58.1 -0.01968
58.15 -0.01567
58.2 -0.01133
58.25 -0.0067
58.3 0.00066
58.35 0.00714
58.4 0.01506
58.45 0.02212
58.5 0.02813
58.55 0.03143
58.6 0.03536
58.65 0.03129
58.7 0.03052
58.75 0.02353
58.8 0.01336
58.85 0.00499
58.9 0.00368
58.95 0.00686
59 0.01074
59.05 0.01237
59.1 0.00994
59.15 0.00835
59.2 0.00464
59.25 0.00622
59.3 0.00537
59.35 0.00827
59.4 0.0086
59.45 0.01229
59.5 0.01783
59.55 0.01931
59.6 0.01472
59.65 0.01417
59.7 0.00953
59.75 0.00761
59.8 0.00461
59.85 -0.00065
59.9 -0.0081
59.95 -0.00965
60 -0.01392
60.05 -0.01194
60.1 -0.00807
60.15 -0.00177
60.2 0.00558
60.25 0.00535
60.3 0.00515
60.35 0.00088
60.4 -0.00441
60.45 -0.00427
60.5 -0.00827
60.55 -0.01405
60.6 -0.01392
60.65 -0.01105
60.7 -0.00781
60.75 -0.00513
60.8 -0.00105
60.85 0.00415
60.9 0.0092
60.95 0.01053
61 0.00639
61.05 0.00362
61.1 0.0052
61.15 0.00871
61.2 0.00527
61.25 -0.00183
61.3 -0.0073
61.35 -0.01096
61.4 -0.01302
61.45 -0.01312
61.5 -0.01299
61.55 -0.00836
61.6 -0.00814
61.65 -0.00854
61.7 -0.00833
61.75 -0.00666
61.8 -0.0042
61.85 0.00077
61.9 0.00331
61.95 0.00322
62 -0.0012
62.05 -0.00128
62.1 -0.00331
62.15 -0.00452
62.2 -0.00415
62.25 0.00085
62.3 0.00247
62.35 0.00698
62.4 0.00762
62.45 0.01122
62.5 0.01083
62.55 0.00901
62.6 0.00591
62.65 0.00205
62.7 0.00156
62.75 0.00392
62.8 0.00345
62.85 0.00381
62.9 0.00713
62.95 0.00809
63 0.00682
63.05 0.00555
63.1 0.00825
63.15 0.01326
63.2 0.01052
63.25 0.01216
63.3 0.01085
63.35 0.01107
63.4 0.00595
63.45 0.00018
63.5 -0.00017
63.55 -0.00501
63.6 -0.00408
63.65 -0.00016
63.7 0.00448
63.75 0.00657
63.8 0.00296
63.85 -0.00353
63.9 -0.00972
63.95 -0.01373
64 -0.01188
64.05 -0.00854
64.1 -0.00876
64.15 -0.00535
64.2 -0.00267
64.25 -0.00423
64.3 -0.00072
64.35 -0.00271
64.4 -0.00695
64.45 -0.01369
64.5 -0.01527
64.55 -0.01916
64.6 -0.02037
64.65 -0.01848
64.7 -0.01324
64.75 -0.00464
64.8 -0.00309
64.85 -0.0004
64.9 0.00007
64.95 -0.00054
65 -0.00305
65.05 -0.00243
65.1 -0.00576
65.15 -0.00577
65.2 -0.00864
65.25 -0.01131
65.3 -0.01033
65.35 -0.01328
65.4 -0.01114
65.45 -0.011
65.5 -0.01414
65.55 -0.01337
65.6 -0.0164
65.65 -0.01323
65.7 -0.0088
65.75 -0.00858
65.8 -0.00418
65.85 -0.00222
65.9 -0.00177
65.95 -0.00484
66 -0.00399
66.05 0.00006
66.1 0.0053
66.15 0.00652
66.2 0.00782
66.25 0.00442
66.3 0.00475
66.35 0.00042
66.4 -0.00048
66.45 0.00139
66.5 0.00554
66.55 0.0065
66.6 0.00487
66.65 0.00398
66.7 0.00494
66.75 0.00639
66.8 0.00582
66.85 0.00633
66.9 0.0091
66.95 0.00873
67 0.01116
67.05 0.01024
67.1 0.01078
67.15 0.01402
67.2 0.0133
67.25 0.01609
67.3 0.01473
67.35 0.01421
67.4 0.01242
67.45 0.01063
67.5 0.00555
67.55 0.00178
67.6 -0.00112
67.65 0.00107
67.7 -0.00139
67.75 -0.0046
67.8 -0.00495
67.85 -0.00056
67.9 0.00292
67.95 0.0089
68 0.00869
68.05 0.00619
68.1 0.00257
68.15 0.00055
68.2 -0.00128
68.25 -0.00161
68.3 -0.00116
68.35 0.00135
68.4 -0.00027
68.45 -0.00607
68.5 -0.01285
68.55 -0.01258
68.6 -0.01022
68.65 -0.01114
68.7 -0.01355
68.75 -0.01592
68.8 -0.01194
68.85 -0.00666
68.9 0.00014
68.95 0.0073
69 0.00641
69.05 0.00128
69.1 -0.0031
69.15 -0.00843
69.2 -0.0139
69.25 -0.01242
69.3 -0.00665
69.35 0.00111
69.4 0.00258
69.45 0.00662
69.5 0.00994
69.55 0.01353
69.6 0.01491
69.65 0.00968
69.7 0.00943
69.75 0.00477
69.8 0.0031
69.85 -0.00069
69.9 -0.00034
69.95 -0.0004
70 0.00194
70.05 0.0026
70.1 0.00464
70.15 0.00505
70.2 0.00191
70.25 -0.00283
70.3 -0.00843
70.35 -0.01532
70.4 -0.02328
70.45 -0.02573
70.5 -0.0267
70.55 -0.02636
70.6 -0.0231
70.65 -0.02377
70.7 -0.02258
70.75 -0.02266
70.8 -0.01979
70.85 -0.01578
70.9 -0.01451
70.95 -0.01514
71 -0.01821
71.05 -0.01999
71.1 -0.01622
71.15 -0.00945
71.2 -0
71.25 0.00681
71.3 0.00802
71.35 0.00595
71.4 0.00232
71.45 -0.00406
71.5 -0.00372
71.55 -0.0068
71.6 -0.01089
71.65 -0.01693
71.7 -0.01474
71.75 -0.01038
71.8 -0.00437
71.85 0.0005
71.9 0.00054
71.95 -0.00176
72 -0.00282
72.05 -0.00392
72.1 -0.00274
72.15 -0.00272
72.2 -0.00325
72.25 -0.00483
72.3 -0.00867
72.35 -0.01099
72.4 -0.00744
72.45 -0.00218
72.5 0.00249
72.55 0.00944
72.6 0.01774
72.65 0.02021
72.7 0.01564
72.75 0.01533
72.8 0.01112
72.85 0.00728
72.9 0.00086
72.95 -0.00052
73 0.00121
73.05 0.00283
73.1 0.0029
73.15 -0.00019
73.2 -0.00103
73.25 -0.00422
73.3 -0.00134
73.35 0.0011
73.4 0.00088
73.45 0.00262
73.5 0.00431
73.55 0.00279
73.6 0.00314
73.65 0.00758
73.7 0.00795
73.75 0.0035
73.8 0.00413
73.85 0.00275
73.9 0.00241
73.95 0.00478
74 0.00946
74.05 0.01175
74.1 0.0104
74.15 0.00855
74.2 0.00616
74.25 0.00839
74.3 0.00457
74.35 0.00415
74.4 0.0026
74.45 0.00514
74.5 0.00861
74.55 0.01171
74.6 0.00886
74.65 0.00428
74.7 0.00097
74.75 -0.00189
74.8 0.00015
74.85 0.00308
74.9 0.00156
74.95 0.00067
75 0.00308
75.05 0.0022
75.1 0.00321
75.15 0.00121
75.2 -0.00381
75.25 -0.00984
75.3 -0.01597
75.35 -0.0224
75.4 -0.02113
75.45 -0.01907
75.5 -0.01313
75.55 -0.00552
75.6 0.00428
75.65 0.00985
75.7 0.01218
75.75 0.0137
75.8 0.01416
75.85 0.01285
75.9 0.01469
75.95 0.0167
76 0.01343
76.05 0.01235
76.1 0.00984
76.15 0.01126
76.2 0.00748
76.25 0.00122
76.3 -0.00617
76.35 -0.00873
76.4 -0.00946
76.45 -0.01055
76.5 -0.01257
76.55 -0.01178
76.6 -0.01177
76.65 -0.01077
76.7 -0.01174
76.75 -0.01319
76.8 -0.0113
76.85 -0.0118
76.9 -0.01458
76.95 -0.01934
77 -0.02163
77.05 -0.01683
77.1 -0.01375
77.15 -0.00649
77.2 0.00238
77.25 0.006
77.3 0.00936
77.35 0.00759
77.4 0.00975
77.45 0.01022
77.5 0.00819
77.55 0.00843
77.6 0.01023
77.65 0.00793
77.7 0.00169
77.75 -0.00121
77.8 -0.00584
77.85 -0.01293
77.9 -0.01804
77.95 -0.02306
78 -0.02379
78.05 -0.02272
78.1 -0.02066
78.15 -0.01507
78.2 -0.01045
78.25 -0.01022
78.3 -0.00952
78.35 -0.00357
78.4 -0.002
78.45 -0.00327
78.5 -0.00797
78.55 -0.01341
78.6 -0.019
78.65 -0.02167
78.7 -0.01735
78.75 -0.01083
78.8 -0.00866
78.85 -0.00501
78.9 0.00002
78.95 -0.00027
79 0.00063
79.05 0.0022
79.1 0.00099
79.15 0.00004
79.2 0.00068
79.25 -0.00123
79.3 0.00008
79.35 -0.00009
79.4 -0.00317
79.45 -0.0064
79.5 -0.00851
79.55 -0.00539
79.6 0.00188
79.65 0.0112
79.7 0.0177
79.75 0.02099
79.8 0.01802
79.85 0.01348
79.9 0.00944
79.95 0.00349
80 0.00148
80.05 0.0041
80.1 0.00942
80.15 0.00954
80.2 0.01209
80.25 0.01545
80.3 0.0193
80.35 0.02257
80.4 0.01991
80.45 0.01339
80.5 0.01006
80.55 0.01027
80.6 0.01038
80.65 0.01339
80.7 0.01742
80.75 0.02114
80.8 0.01836
80.85 0.01609
80.9 0.01386
80.95 0.01371
81 0.01193
81.05 0.00829
81.1 0.00129
81.15 -0.00237
81.2 -0.00536
81.25 -0.00572
81.3 -0.00685
81.35 -0.01091
81.4 -0.01216
81.45 -0.01156
81.5 -0.00687
81.55 -0.00571
81.6 -0.0024
81.65 0.00188
81.7 0.0044
81.75 0.0098
81.8 0.01032
81.85 0.00933
81.9 0.00406
81.95 -0.00301
82 -0.00805
82.05 -0.00697
82.1 -0.00812
82.15 -0.00554
82.2 -0.00366
82.25 -0.00416
82.3 -0.00151
82.35 0.00076
82.4 0.00478
82.45 0.01096
82.5 0.01701
82.55 0.01904
82.6 0.02001
82.65 0.01906
82.7 0.01468
82.75 0.01297
82.8 0.01347
82.85 0.01246
82.9 0.01091
82.95 0.00672
83 0.00418
83.05 0.00296
83.1 0.00154
83.15 -0.00236
83.2 -0.00819
83.25 -0.01581
83.3 -0.01546
83.35 -0.01505
83.4 -0.01631
83.45 -0.01147
83.5 -0.00912
83.55 -0.0102
83.6 -0.00688
83.65 -0.00052
83.7 -0.00043
83.75 -0.0038
83.8 -0.00828
83.85 -0.01123
83.9 -0.01134
83.95 -0.01092
84 -0.01226
84.05 -0.01389
84.1 -0.01584
84.15 -0.0195
84.2 -0.02464
84.25 -0.02269
84.3 -0.02021
84.35 -0.01529
84.4 -0.01011
84.45 -0.00607
84.5 -0.00159
84.55 -0.00211
84.6 -0.00574
84.65 -0.00382
84.7 -0.00241
84.75 -0.00142
84.8 0.00273
84.85 0.00711
84.9 0.01144
84.95 0.01475
85 0.01746
85.05 0.01566
85.1 0.01287
85.15 0.00613
85.2 0.00309
85.25 -0.00337
85.3 -0.0043
85.35 -0.00095
85.4 -0.00093
85.45 -0.00184
85.5 -0.00326
85.55 -0.00607
85.6 -0.00321
85.65 -0.00075
85.7 0.0029
85.75 0.00685
85.8 0.00886
85.85 0.0116
85.9 0.01643
85.95 0.01437
86 0.01583
86.05 0.01672
86.1 0.01247
86.15 0.00778
86.2 0.00622
86.25 0.00335
86.3 0.00233
86.35 0.00167
86.4 -0.00311
86.45 -0.00263
86.5 0.0019
86.55 0.00768
86.6 0.01139
86.65 0.00879
86.7 0.00937
86.75 0.00736
86.8 0.00328
86.85 -0.0043
86.9 -0.00497
86.95 -0.00858
87 -0.00636
87.05 -0.00567
87.1 -0.00222
87.15 -0.00244
87.2 0.00138
87.25 0.00415
87.3 0.00898
87.35 0.00954
87.4 0.01272
87.45 0.01068
87.5 0.00382
87.55 -0.00552
87.6 -0.0114
87.65 -0.00981
87.7 -0.01139
87.75 -0.00968
87.8 -0.00445
87.85 0.00345
87.9 0.01225
87.95 0.01309
88 0.01324
88.05 0.01609
88.1 0.01896
88.15 0.01807
88.2 0.01549
88.25 0.01392
88.3 0.01354
88.35 0.01619
88.4 0.01545
88.45 0.01625
88.5 0.01169
88.55 0.00887
88.6 0.00157
88.65 -0.00138
88.7 -0.00687
88.75 -0.00651
88.8 -0.00365
88.85 -0.00551
88.9 -0.00594
88.95 -0.00235
89 -0.00213
89.05 -0.00676
89.1 -0.00837
89.15 -0.00799
89.2 -0.01198
89.25 -0.01483
89.3 -0.01702
89.35 -0.01763
89.4 -0.01239
89.45 -0.01069
89.5 -0.00894
89.55 -0.00733
89.6 -0.00471
89.65 0.00095
89.7 0.00149
89.75 0.00169
89.8 0.00234
89.85 0.00472
89.9 0.00891
89.95 0.00722
90 0.00732
90.05 0.00448
90.1 0.00573
90.15 0.00741
90.2 0.00979
90.25 0.00696
90.3 0.00832
90.35 0.01194
90.4 0.01676
90.45 0.01874
90.5 0.02196
90.55 0.02001
90.6 0.01851
90.65 0.01394
90.7 0.01156
90.75 0.00918
90.8 0.0077
90.85 0.00864
90.9 0.00479
90.95 0.00081
91 0.00205
91.05 -0.00096
91.1 -0.00435
91.15 -0.01077
91.2 -0.01436
91.25 -0.01242
91.3 -0.00657
91.35 0.00068
91.4 0.0022
91.45 0.00391
91.5 0.00277
91.55 -0.00214
91.6 -0.00701
91.65 -0.00624
91.7 -0.00889
91.75 -0.00635
91.8 -0.00288
91.85 -0.00369
91.9 -0.00417
91.95 -0.00622
92 -0.01044
92.05 -0.01568
92.1 -0.02212
92.15 -0.02221
92.2 -0.02534
92.25 -0.02544
92.3 -0.02028
92.35 -0.01543
92.4 -0.01507
92.45 -0.01068
92.5 -0.01116
92.55 -0.01193
92.6 -0.01601
92.65 -0.01898
92.7 -0.02264
92.75 -0.02677
92.8 -0.02331
92.85 -0.0165
92.9 -0.0088
92.95 -0.00213
93 -0.0006
93.05 0.00278
93.1 0.00736
93.15 0.00886
93.2 0.01343
93.25 0.01928
93.3 0.02063
93.35 0.02338
93.4 0.02168
93.45 0.01452
93.5 0.00416
93.55 -0.00752
93.6 -0.01472
93.65 -0.01937
93.7 -0.01675
93.75 -0.01447
93.8 -0.01494
93.85 -0.01721
93.9 -0.01438
93.95 -0.00777
94 -0.00469
94.05 -0.00473
94.1 -0.00493
94.15 -0.00067
94.2 0.00252
94.25 0.00216
94.3 0.00002
94.35 -0.00599
94.4 -0.01107
94.45 -0.01301
94.5 -0.01095
94.55 -0.00764
94.6 -0.00324
94.65 -0.00286
94.7 -0.00068
94.75 -0.00281
94.8 -0.00825
94.85 -0.00832
94.9 -0.01151
94.95 -0.01287
95 -0.01136
95.05 -0.0091
95.1 -0.00634
95.15 -0.00545
95.2 -0.00056
95.25 0.00288
95.3 0.00426
95.35 0.00241
95.4 0.00242
95.45 0.0018
95.5 0.00281
95.55 0.00679
95.6 0.00687
95.65 0.00295
95.7 -0.00173
95.75 -0.00123
95.8 -0.00141
95.85 -0.00502
95.9 -0.00961
95.95 -0.01253
96 -0.01332
96.05 -0.01578
96.1 -0.01703
96.15 -0.01242
96.2 -0.01028
96.25 -0.00485
96.3 -0.00543
96.35 -0.00482
96.4 -0.00768
96.45 -0.00879
96.5 -0.00537
96.55 -0.00193
96.6 0.00286
96.65 0.00373
96.7 0.00557
96.75 0.00359
96.8 -0.00243
96.85 -0.00346
96.9 -0.00212
96.95 -0.00536
97 -0.01147
97.05 -0.01295
97.1 -0.01702
97.15 -0.01632
97.2 -0.01771
97.25 -0.02144
97.3 -0.02179
97.35 -0.02124
97.4 -0.01885
97.45 -0.0163
97.5 -0.00851
97.55 0.00127
97.6 0.00835
97.65 0.01173
97.7 0.01031
97.75 0.00874
97.8 0.00582
97.85 0.002
97.9 -0.00354
97.95 -0.00958
98 -0.01114
98.05 -0.00939
98.1 -0.00601
98.15 -0.00419
98.2 -0.00391
98.25 -0.0049
98.3 -0.00035
98.35 -0.00091
98.4 -0.00349
98.45 -0.00753
98.5 -0.00762
98.55 -0.00317
98.6 0.0041
98.65 0.01266
98.7 0.01809
98.75 0.01602
98.8 0.01278
98.85 0.00846
98.9 0.00287
98.95 0.00236
99 0.00004
99.05 -0.00289
99.1 -0.0087
99.15 -0.00815
99.2 -0.01091
99.25 -0.01078
99.3 -0.01329
99.35 -0.01637
99.4 -0.01754
99.45 -0.01539
99.5 -0.00774
99.55 0.00004
99.6 0.00946
99.65 0.01536
99.7 0.01831
99.75 0.01881
99.8 0.0208
99.85 0.0227
99.9 0.01972
99.95 0.01807
