0 0
0.05 0.00476
0.1 0.01333
0.15 0.01862
0.2 0.0211
0.25 0.02819
0.3 0.03919
0.35 0.04287
0.4 0.04405
0.45 0.04847
0.5 0.04973
0.55 0.05503
0.6 0.06112
0.65 0.06516
0.7 0.0705
0.75 0.0693
0.8 0.06917
0.85 0.06649
0.9 0.06662
0.95 0.06224
1 0.05724
1.05 0.0512
1.1 0.04713
1.15 0.0415
1.2 0.03831
1.25 0.03289
1.3 0.03083
1.35 0.03225
1.4 0.02934
1.45 0.02491
1.5 0.02466
1.55 0.0281
1.6 0.02981
1.65 0.03533
1.7 0.03517
1.75 0.03471
1.8 0.03778
1.85 0.03857
1.9 0.03638
1.95 0.03603
2 0.03383
2.05 0.03136
2.1 0.03011
2.15 0.03293
2.2 0.03522
2.25 0.03457
2.3 0.03509
2.35 0.03762
2.4 0.04268
2.45 0.04305
2.5 0.04471
2.55 0.04527
2.6 0.04571
2.65 0.04018
2.7 0.03491
2.75 0.02722
2.8 0.02186
2.85 0.02224
2.9 0.02654
2.95 0.02728
3 0.02939
3.05 0.0335
3.1 0.03337
3.15 0.03025
3.2 0.02367
3.25 0.02062
3.3 0.02162
3.35 0.02623
3.4 0.02405
3.45 0.01821
3.5 0.01609
3.55 0.01326
3.6 0.00912
3.65 0.01045
3.7 0.00984
3.75 0.01053
3.8 0.00879
3.85 0.00456
3.9 0.00593
3.95 0.00455
4 0.00117
4.05 0.00318
4.1 0.00428
4.15 0.00472
4.2 0.00892
4.25 0.00714
4.3 0.00347
4.35 -0.00284
4.4 -0.0087
4.45 -0.01173
4.5 -0.01375
4.55 -0.01914
4.6 -0.03023
4.65 -0.04187
4.7 -0.06
4.75 -0.0824
4.8 -0.11088
4.85 -0.13824
4.9 -0.16468
4.95 -0.19362
5 -0.2342
5.05 -0.28476
5.1 -0.33636
5.15 -0.39544
5.2 -0.45718
5.25 -0.52222
5.3 -0.59289
5.35 -0.66767
5.4 -0.74852
5.45 -0.83632
5.5 -0.92502
5.55 -1.02021
5.6 -1.11805
5.65 -1.2219
5.7 -1.32146
5.75 -1.42133
5.8 -1.52176
5.85 -1.62351
5.9 -1.72265
5.95 -1.81302
6 -1.90199
6.05 -1.98109
6.1 -2.06016
6.15 -2.13575
6.2 -2.20622
6.25 -2.27151
6.3 -2.32697
6.35 -2.37976
6.4 -2.42893
6.45 -2.47042
6.5 -2.50387
6.55 -2.52704
6.6 -2.5361
6.65 -2.5294
6.7 -2.51193
6.75 -2.48601
6.8 -2.4444
6.85 -2.38907
6.9 -2.31656
6.95 -2.22822
7 -2.12692
7.05 -2.0125
7.1 -1.88184
7.15 -1.73965
7.2 -1.57892
7.25 -1.4099
7.3 -1.2288
7.35 -1.03548
7.4 -0.83218
7.45 -0.62478
7.5 -0.42136
7.55 -0.22176
7.6 -0.02597
7.65 0.17346
7.7 0.36815
7.75 0.55772
7.8 0.74073
7.85 0.91238
7.9 1.07409
7.95 1.22913
8 1.3672
8.05 1.49571
8.1 1.61021
8.15 1.71846
8.2 1.81384
8.25 1.8946
8.3 1.96781
8.35 2.02703
8.4 2.07593
8.45 2.12094
8.5 2.15472
8.55 2.18187
8.6 2.20026
8.65 2.21241
8.7 2.22204
8.75 2.23228
8.8 2.23261
8.85 2.22653
8.9 2.2158
8.95 2.2038
9 2.19094
9.05 2.18284
9.1 2.16822
9.15 2.14936
9.2 2.13477
9.25 2.12255
9.3 2.11116
9.35 2.09902
9.4 2.08335
9.45 2.06674
9.5 2.0481
9.55 2.02367
9.6 1.9904
9.65 1.95233
9.7 1.91928
9.75 1.88365
9.8 1.84697
9.85 1.81113
9.9 1.77933
9.95 1.74092
10 1.70447
10.05 1.66878
10.1 1.63295
10.15 1.5939
10.2 1.55134
10.25 1.50456
10.3 1.45558
10.35 1.40513
10.4 1.35501
10.45 1.3063
10.5 1.26147
10.55 1.22155
10.6 1.184
10.65 1.14399
10.7 1.09855
10.75 1.05638
10.8 1.01601
10.85 0.97429
10.9 0.92873
10.95 0.87979
11 0.83409
11.05 0.79115
11.1 0.74525
11.15 0.6985
11.2 0.65257
11.25 0.60963
11.3 0.56552
11.35 0.52014
11.4 0.47423
11.45 0.42716
11.5 0.3842
11.55 0.34154
11.6 0.29931
11.65 0.26023
11.7 0.22243
11.75 0.18679
11.8 0.15585
11.85 0.12673
11.9 0.09717
11.95 0.06758
12 0.03725
12.05 0.00992
12.1 -0.01348
12.15 -0.04156
12.2 -0.06999
12.25 -0.0917
12.3 -0.10999
12.35 -0.12947
12.4 -0.1497
12.45 -0.16897
12.5 -0.18368
12.55 -0.19913
12.6 -0.21312
12.65 -0.22507
12.7 -0.24047
12.75 -0.25963
12.8 -0.28095
12.85 -0.29424
12.9 -0.30675
12.95 -0.31551
13 -0.32376
13.05 -0.33262
13.1 -0.34435
13.15 -0.3549
13.2 -0.36688
13.25 -0.37358
13.3 -0.37914
13.35 -0.38013
13.4 -0.38038
13.45 -0.37728
13.5 -0.37639
13.55 -0.37992
13.6 -0.38127
13.65 -0.38157
13.7 -0.38514
13.75 -0.38191
13.8 -0.37583
13.85 -0.3755
13.9 -0.37734
13.95 -0.37668
14 -0.37244
14.05 -0.37282
14.1 -0.3764
14.15 -0.38046
14.2 -0.37677
14.25 -0.37044
14.3 -0.36024
14.35 -0.35355
14.4 -0.35257
14.45 -0.35138
14.5 -0.34938
14.55 -0.34491
14.6 -0.34157
14.65 -0.33302
14.7 -0.3291
14.75 -0.32397
14.8 -0.31934
14.85 -0.31352
14.9 -0.30736
14.95 -0.30501
15 -0.30194
15.05 -0.29457
15.1 -0.28927
15.15 -0.28752
15.2 -0.28883
15.25 -0.28771
15.3 -0.28094
15.35 -0.27314
15.4 -0.26497
15.45 -0.25648
15.5 -0.25212
15.55 -0.24811
15.6 -0.24573
15.65 -0.24087
15.7 -0.23592
15.75 -0.23571
15.8 -0.23548
15.85 -0.2372
15.9 -0.23408
15.95 -0.23242
16 -0.22792
16.05 -0.2256
16.1 -0.22195
16.15 -0.21749
16.2 -0.21496
16.25 -0.21283
16.3 -0.21084
16.35 -0.20876
16.4 -0.20726
16.45 -0.20131
16.5 -0.1926
16.55 -0.18885
16.6 -0.18983
16.65 -0.1903
16.7 -0.19133
16.75 -0.18735
16.8 -0.18376
16.85 -0.18418
16.9 -0.18074
16.95 -0.17706
17 -0.1755
17.05 -0.17106
17.1 -0.1623
17.15 -0.15474
17.2 -0.14837
17.25 -0.14287
17.3 -0.14186
17.35 -0.13742
17.4 -0.13193
17.45 -0.12557
17.5 -0.12494
17.55 -0.12433
17.6 -0.12694
17.65 -0.1306
17.7 -0.13144
17.75 -0.12833
17.8 -0.12601
17.85 -0.12251
17.9 -0.12233
17.95 -0.12103
18 -0.11776
18.05 -0.11157
18.1 -0.10592
18.15 -0.10362
18.2 -0.09829
18.25 -0.09819
18.3 -0.09618
18.35 -0.09436
18.4 -0.09472
18.45 -0.0977
18.5 -0.10071
18.55 -0.10371
18.6 -0.10313
18.65 -0.10343
18.7 -0.09882
18.75 -0.09582
18.8 -0.09407
18.85 -0.09348
18.9 -0.09223
18.95 -0.0896
19 -0.08821
19.05 -0.09045
19.1 -0.09337
19.15 -0.09494
19.2 -0.0953
19.25 -0.09205
19.3 -0.09178
19.35 -0.08743
19.4 -0.0798
19.45 -0.07717
19.5 -0.07927
19.55 -0.08478
19.6 -0.08305
19.65 -0.08124
19.7 -0.07853
19.75 -0.07511
19.8 -0.07389
19.85 -0.07326
19.9 -0.07466
19.95 -0.07611
20 -0.07994
20.05 -0.08288
20.1 -0.08004
20.15 -0.07804
20.2 -0.07531
20.25 -0.07032
20.3 -0.06345
20.35 -0.0554
20.4 -0.04988
20.45 -0.04931
20.5 -0.0489
20.55 -0.05222
20.6 -0.05177
20.65 -0.05183
20.7 -0.05161
20.75 -0.05316
20.8 -0.05489
20.85 -0.05949
20.9 -0.06547
20.95 -0.06548
21 -0.06427
21.05 -0.05764
21.1 -0.05297
21.15 -0.05064
21.2 -0.0469
21.25 -0.04177
21.3 -0.03441
21.35 -0.03044
21.4 -0.02792
21.45 -0.03195
21.5 -0.03956
21.55 -0.04592
21.6 -0.05151
21.65 -0.05114
21.7 -0.05319
21.75 -0.05525
21.8 -0.05918
21.85 -0.06033
21.9 -0.05931
21.95 -0.05688
22 -0.05413
22.05 -0.05074
22.1 -0.04414
22.15 -0.03527
22.2 -0.03344
22.25 -0.02767
22.3 -0.02559
22.35 -0.02556
22.4 -0.02491
22.45 -0.02611
22.5 -0.02513
22.55 -0.02667
22.6 -0.02844
22.65 -0.02945
22.7 -0.02971
22.75 -0.03319
22.8 -0.03866
22.85 -0.04068
22.9 -0.03945
22.95 -0.03406
23 -0.03069
23.05 -0.02539
23.1 -0.02593
23.15 -0.03004
23.2 -0.02813
23.25 -0.02652
23.3 -0.02723
23.35 -0.02766
23.4 -0.02629
23.45 -0.02836
23.5 -0.02895
23.55 -0.02583
23.6 -0.02324
23.65 -0.02094
23.7 -0.01748
23.75 -0.01098
23.8 -0.00526
23.85 -0.0003
23.9 0.00605
23.95 0.00857
24 0.01162
24.05 0.00843
24.1 0.00006
24.15 -0.00438
24.2 -0.00519
24.25 -0.00558
24.3 -0.00425
24.35 -0.00298
24.4 -0.00437
24.45 -0.00917
24.5 -0.01457
24.55 -0.01473
24.6 -0.0154
24.65 -0.0204
24.7 -0.02601
24.75 -0.02813
24.8 -0.03091
24.85 -0.0324
24.9 -0.03465
24.95 -0.03697
25 -0.03319
25.05 -0.03126
25.1 -0.03028
25.15 -0.02548
25.2 -0.02308
25.25 -0.02121
25.3 -0.01916
25.35 -0.02129
25.4 -0.02552
25.45 -0.02838
25.5 -0.02678
25.55 -0.02478
25.6 -0.02384
25.65 -0.01888
25.7 -0.01433
25.75 -0.01278
25.8 -0.00878
25.85 -0.00976
25.9 -0.00598
25.95 -0.00058
26 0.00439
26.05 0.00404
26.1 0.00311
26.15 0.00388
26.2 0.00576
26.25 0.00691
26.3 0.0026
26.35 -0.00353
26.4 -0.00888
26.45 -0.01043
26.5 -0.0095
26.55 -0.00462
26.6 0.00191
26.65 0.00654
26.7 0.01036
26.75 0.00696
26.8 0.0062
26.85 -0.00003
26.9 -0.00028
26.95 -0.00018
27 0.00326
27.05 0.00265
27.1 0.0058
27.15 0.01059
27.2 0.01065
27.25 0.0078
27.3 0.00451
27.35 0.00136
27.4 0.00286
27.45 0.00422
27.5 0.00123
27.55 -0.00116
27.6 -0.00756
27.65 -0.00862
27.7 -0.00802
27.75 -0.00739
27.8 -0.00286
27.85 -0.00188
27.9 -0.00562
27.95 -0.00573
28 -0.00829
28.05 -0.00863
28.1 -0.01242
28.15 -0.01785
28.2 -0.02026
28.25 -0.01685
28.3 -0.01075
28.35 -0.01111
28.4 -0.00676
28.45 -0.00811
28.5 -0.00463
28.55 -0.0044
28.6 -0.00257
28.65 -0.00428
28.7 -0.00702
28.75 -0.00728
28.8 -0.00898
28.85 -0.01029
28.9 -0.01156
28.95 -0.01518
29 -0.01558
29.05 -0.01847
29.1 -0.01878
29.15 -0.01586
29.2 -0.01397
29.25 -0.00909
29.3 -0.00802
29.35 -0.00912
29.4 -0.01327
29.45 -0.01597
29.5 -0.01621
29.55 -0.01518
29.6 -0.01283
29.65 -0.00812
29.7 -0.00295
29.75 0.00342
29.8 0.00832
29.85 0.01097
29.9 0.00726
29.95 0.00579
30 0.0072
30.05 0.01117
30.1 0.01183
30.15 0.01444
30.2 0.01665
30.25 0.01989
30.3 0.01636
30.35 0.0168
30.4 0.01226
30.45 0.00443
30.5 -0.00568
30.55 -0.01441
30.6 -0.01847
30.65 -0.02369
30.7 -0.02465
30.75 -0.02297
30.8 -0.01986
30.85 -0.01426
30.9 -0.00752
30.95 -0.00446
31 -0.00301
31.05 -0.00439
31.1 -0.00679
31.15 -0.00431
31.2 -0.00513
31.25 -0.00684
31.3 -0.00421
31.35 -0.00362
31.4 -0.00645
31.45 -0.00408
31.5 -0.00361
31.55 -0.00446
31.6 -0.00423
31.65 -0.00583
31.7 -0.00445
31.75 -0.00798
31.8 -0.00664
31.85 -0.00354
31.9 -0.00032
31.95 -0.00183
32 -0.00383
32.05 -0.00156
32.1 -0.003
32.15 -0.00498
32.2 -0.00434
32.25 -0.00324
32.3 -0.00314
32.35 0.00164
32.4 0.00555
32.45 0.00646
32.5 0.00406
32.55 -0.00241
32.6 -0.0037
32.65 -0.00285
32.7 -0.00198
32.75 -0.00368
32.8 -0.00136
32.85 -0.00301
32.9 0.00039
32.95 -0.00039
33 0.00119
33.05 0.00313
33.1 -0.00007
33.15 -0.00011
33.2 0.00257
33.25 0.00075
33.3 0.00369
33.35 0.00574
33.4 0.00274
33.45 -0.00064
33.5 -0.00273
33.55 -0.00358
33.6 -0.00672
33.65 -0.00406
33.7 -0.00509
33.75 -0.00826
33.8 -0.01093
33.85 -0.00782
33.9 -0.00177
33.95 0.00042
34 -0.00084
34.05 -0.00307
34.1 -0.00329
34.15 -0.00389
34.2 -0.00102
34.25 -0.00348
34.3 -0.0046
34.35 -0.00219
34.4 0.0008
34.45 0.00171
34.5 -0.00138
34.55 -0.00668
34.6 -0.01153
34.65 -0.01619
34.7 -0.01903
34.75 -0.02214
34.8 -0.02316
34.85 -0.02492
34.9 -0.02093
34.95 -0.01965
35 -0.0129
35.05 -0.00376
35.1 0.00194
35.15 0.00587
35.2 0.00403
35.25 -0.00128
35.3 -0.00641
35.35 -0.01128
35.4 -0.01273
35.45 -0.01389
35.5 -0.00936
35.55 -0.00845
35.6 -0.00546
35.65 0.00099
35.7 0.00796
35.75 0.01255
35.8 0.01697
35.85 0.02275
35.9 0.02191
35.95 0.02364
36 0.02281
36.05 0.02443
36.1 0.02294
36.15 0.02199
36.2 0.0175
36.25 0.00867
36.3 0.00351
36.35 -0.00066
36.4 -0.00565
36.45 -0.01206
36.5 -0.01543
36.55 -0.01356
36.6 -0.01208
36.65 -0.00877
36.7 -0.0022
36.75 -0.00074
36.8 -0.00091
36.85 -0.00451
36.9 -0.00632
36.95 -0.01146
37 -0.01146
37.05 -0.01461
37.1 -0.01672
37.15 -0.01384
37.2 -0.0111
37.25 -0.00994
37.3 -0.00817
37.35 -0.0044
37.4 -0.00317
37.45 -0.00658
37.5 -0.00828
37.55 -0.00678
37.6 -0.00724
37.65 -0.0048
37.7 -0.00367
37.75 0.00113
37.8 0.00492
37.85 0.00413
37.9 0.00432
37.95 0.00252
38 0.00101
38.05 0.00194
38.1 0.00559
38.15 0.01107
38.2 0.01558
38.25 0.02095
38.3 0.02177
38.35 0.0202
38.4 0.01636
38.45 0.01073
38.5 0.00806
38.55 0.00249
38.6 -0.00243
38.65 -0.0076
38.7 -0.00805
38.75 -0.00892
38.8 -0.01175
38.85 -0.01664
38.9 -0.01371
38.95 -0.0066
39 0.0023
39.05 0.01052
39.1 0.01038
39.15 0.00995
39.2 0.00804
39.25 0.00665
39.3 0.00496
39.35 0.00787
39.4 0.00766
39.45 0.00386
39.5 0.0055
39.55 0.00899
39.6 0.01288
39.65 0.01535
39.7 0.01119
39.75 0.00709
39.8 -0.00078
39.85 -0.00605
39.9 -0.00625
39.95 -0.00484
40 -0.00453
40.05 -0.00387
40.1 -0.00094
40.15 -0.00242
40.2 -0.00379
40.25 -0.00831
40.3 -0.00922
40.35 -0.00639
40.4 -0.00552
40.45 -0.00414
40.5 -0.00589
40.55 -0.00997
40.6 -0.01613
40.65 -0.02026
40.7 -0.02323
40.75 -0.02343
40.8 -0.01895
40.85 -0.01849
40.9 -0.01991
40.95 -0.01652
41 -0.01381
41.05 -0.01227
41.1 -0.01213
41.15 -0.01087
41.2 -0.01234
41.25 -0.00915
41.3 -0.00968
41.35 -0.00722
41.4 -0.0044
41.45 -0.00045
41.5 0.00652
41.55 0.01371
41.6 0.01609
41.65 0.02024
41.7 0.01857
41.75 0.02054
41.8 0.01912
41.85 0.01942
41.9 0.01381
41.95 0.01049
42 0.01081
42.05 0.00628
42.1 -0.00168
42.15 -0.00246
42.2 0.00131
42.25 0.00371
42.3 0.00737
42.35 0.00505
42.4 0.0053
42.45 0.00843
42.5 0.01376
42.55 0.02054
42.6 0.02365
42.65 0.02595
42.7 0.0285
42.75 0.03191
42.8 0.03286
42.85 0.03447
42.9 0.0282
42.95 0.02242
43 0.02003
43.05 0.01602
43.1 0.01288
43.15 0.00556
43.2 -0.00085
43.25 -0.00343
43.3 -0.00065
43.35 -0.00139
43.4 -0.00523
43.45 -0.00918
43.5 -0.01591
43.55 -0.02091
43.6 -0.02409
43.65 -0.02032
43.7 -0.01198
43.75 -0.00856
43.8 -0.00494
43.85 0.00197
43.9 0.0059
43.95 0.00491
44 0.00303
44.05 -0.00258
44.1 -0.0019
44.15 0.00278
44.2 0.0055
44.25 0.00566
44.3 0.00284
44.35 0.0032
44.4 0.00578
44.45 0.00403
44.5 0.00622
44.55 0.00221
44.6 -0.00148
44.65 -0.00029
44.7 0.00067
44.75 -0.00096
44.8 0.0012
44.85 0.00025
44.9 -0.00071
44.95 -0.00136
45 -0.00047
45.05 -0.00434
45.1 -0.00525
45.15 -0.00547
45.2 -0.00923
45.25 -0.00825
45.3 -0.01037
45.35 -0.01004
45.4 -0.00553
45.45 -0.00544
45.5 -0.00226
45.55 0.00195
45.6 0.00415
45.65 0.00034
45.7 -0.00272
45.75 -0.0044
45.8 -0.00283
45.85 -0.00162
45.9 0.0014
45.95 0.00301
46 0.00489
46.05 0.00525
46.1 0.00414
46.15 0.00598
46.2 0.00481
46.25 0.007
46.3 0.01126
46.35 0.01505
46.4 0.01635
46.45 0.01689
46.5 0.01854
46.55 0.01942
46.6 0.01584
46.65 0.01372
46.7 0.00979
46.75 0.01054
46.8 0.01379
46.85 0.01358
46.9 0.00781
46.95 0.00218
47 0.00225
47.05 0.00284
47.1 0.00094
47.15 -0.00069
47.2 0.00001
47.25 -0.00372
47.3 -0.00369
47.35 -0.00686
47.4 -0.00591
47.45 -0.00818
47.5 -0.01249
47.55 -0.01015
47.6 -0.00728
47.65 -0.00651
47.7 -0.00518
47.75 -0.00399
47.8 -0.00388
47.85 -0.0085
47.9 -0.00799
47.95 -0.00575
48 -0.0079
48.05 -0.00601
48.1 -0.00587
48.15 -0.00152
48.2 0.00342
48.25 0.00773
48.3 0.00711
48.35 0.00448
48.4 0.00343
48.45 0.00211
48.5 -0.00226
48.55 -0.00389
48.6 -0.00088
48.65 0.00108
48.7 -0.00053
48.75 -0.00066
48.8 -0.00275
48.85 -0.00657
48.9 -0.00862
48.95 -0.00933
49 -0.00741
49.05 -0.00823
49.1 -0.00415
49.15 0.00297
49.2 0.00566
49.25 0.01038
49.3 0.01397
49.35 0.01767
49.4 0.01957
49.45 0.02093
49.5 0.01892
49.55 0.01261
49.6 0.00961
49.65 0.00934
49.7 0.00829
49.75 0.00872
49.8 0.00697
49.85 0.00561
49.9 0.00537
49.95 0.00398
50 0.00065
50.05 0.00106
50.1 0.00042
50.15 -0.00087
50.2 0.00136
50.25 0.00265
50.3 0.00525
50.35 0.01021
50.4 0.00789
50.45 0.00166
50.5 0.00112
50.55 0.00429
50.6 0.00808
50.65 0.00845
50.7 0.00767
50.75 0.00131
50.8 0.00089
50.85 -0.00182
50.9 -0.00285
50.95 -0.00235
51 -0.00278
51.05 0.00067
51.1 0.00461
51.15 0.00461
51.2 0.00218
51.25 0.00166
51.3 0.00386
51.35 0.00084
51.4 -0.00302
51.45 -0.00269
51.5 -0.00357
51.55 -0.00228
51.6 -0.00383
51.65 -0.00268
51.7 -0.00442
51.75 -0.00351
51.8 0.00053
51.85 0.00599
51.9 0.00361
51.95 0.00517
52 0.00079
52.05 0.00184
52.1 0.00303
52.15 0.00312
52.2 0.00383
52.25 0.00464
52.3 0.00689
52.35 0.00527
52.4 0.00055
52.45 0.00091
52.5 -0.00238
52.55 -0.00455
52.6 -0.00387
52.65 -0.00392
52.7 -0.00555
52.75 -0.00536
52.8 -0.00664
52.85 -0.00366
52.9 -0.00487
52.95 -0.00838
53 -0.01309
53.05 -0.01287
53.1 -0.00974
53.15 -0.00408
53.2 -0.00518
53.25 -0.00344
53.3 -0.0038
53.35 -0.0005
53.4 0.00268
53.45 0.00436
53.5 0.00684
53.55 0.00714
53.6 0.00489
53.65 0.00376
53.7 0.0015
53.75 -0.00376
53.8 -0.00813
53.85 -0.00864
53.9 -0.0134
53.95 -0.01774
54 -0.02087
54.05 -0.02035
54.1 -0.01435
54.15 -0.00635
54.2 0.00194
54.25 0.00372
54.3 0.00655
54.35 0.00839
54.4 0.00921
54.45 0.01221
54.5 0.0114
54.55 0.00569
54.6 0.00508
54.65 0.00775
54.7 0.01226
54.75 0.01679
54.8 0.01729
54.85 0.01507
54.9 0.01029
54.95 0.00182
55 -0.00889
55.05 -0.01113
55.1 -0.01673
55.15 -0.02042
55.2 -0.02302
55.25 -0.02234
55.3 -0.0203
55.35 -0.02186
55.4 -0.02495
55.45 -0.02775
55.5 -0.02511
55.55 -0.02566
55.6 -0.02041
55.65 -0.01813
55.7 -0.01801
55.75 -0.01388
55.8 -0.00753
55.85 -0.00732
55.9 -0.00728
55.95 -0.00552
56 -0.0025
56.05 0.00318
56.1 0.00962
56.15 0.01493
56.2 0.02055
56.25 0.02115
56.3 0.02212
56.35 0.01697
56.4 0.01224
56.45 0.0085
56.5 0.00191
56.55 -0.00386
56.6 -0.00427
56.65 -0.00172
56.7 -0.00229
56.75 -0.0004
56.8 0.00296
56.85 0.00555
56.9 0.01061
56.95 0.01123
57 0.01134
57.05 0.01033
57.1 0.00793
57.15 0.00306
57.2 0.00285
57.25 0.00063
57.3 -0.00495
57.35 -0.01184
57.4 -0.0201
57.45 -0.02308
57.5 -0.0195
57.55 -0.01872
57.6 -0.0199
57.65 -0.02309
57.7 -0.01983
57.75 -0.01703
57.8 -0.01531
57.85 -0.01143
57.9 -0.0055
57.95 0.00289
58 0.01151
58.05 0.01638
58.1 0.01383
58.15 0.01208
58.2 0.00934
58.25 0.01062
58.3 0.00967
58.35 0.01033
58.4 0.00953
58.45 0.00652
58.5 0.00117
58.55 -0.00668
58.6 -0.0122
58.65 -0.01714
58.7 -0.01758
58.75 -0.02072
58.8 -0.02464
58.85 -0.02641
58.9 -0.02852
58.95 -0.02659
59 -0.01923
59.05 -0.01131
59.1 -0.00881
59.15 -0.00947
59.2 -0.00693
59.25 -0.00152
59.3 0.0039
59.35 0.00404
59.4 0.00806
59.45 0.01176
59.5 0.01025
59.55 0.00718
59.6 0.0002
59.65 -0.00765
59.7 -0.01083
59.75 -0.0156
59.8 -0.01473
59.85 -0.0097
59.9 -0.00431
59.95 0.0009
60 0.00212
60.05 0.00136
60.1 -0.00218
60.15 -0.007
60.2 -0.01389
60.25 -0.0133
60.3 -0.0151
60.35 -0.01377
60.4 -0.01642
60.45 -0.01387
60.5 -0.01448
60.55 -0.01506
60.6 -0.01687
60.65 -0.01804
60.7 -0.02085
60.75 -0.02007
60.8 -0.01755
60.85 -0.01459
60.9 -0.01492
60.95 -0.01223
61 -0.0077
61.05 0.00048
61.1 0.0056
61.15 0.01141
61.2 0.01329
61.25 0.01076
61.3 0.00516
61.35 0.00329
61.4 -0.00085
61.45 -0.00615
61.5 -0.00662
61.55 -0.00971
61.6 -0.00687
61.65 -0.00606
61.7 -0.00695
61.75 -0.00878
61.8 -0.01003
61.85 -0.00821
61.9 -0.00356
61.95 0.00082
62 0.00123
62.05 0.00367
62.1 0.00725
62.15 0.00987
62.2 0.01428
62.25 0.02017
62.3 0.02472
62.35 0.02373
62.4 0.02536
62.45 0.02769
62.5 0.02433
62.55 0.01638
62.6 0.01304
62.65 0.00661
62.7 -0.00267
62.75 -0.00836
62.8 -0.01584
62.85 -0.01509
62.9 -0.01651
62.95 -0.01817
63 -0.01906
63.05 -0.01826
63.1 -0.01563
63.15 -0.01132
63.2 -0.00813
63.25 -0.00595
63.3 -0.00082
63.35 0.00608
63.4 0.0112
63.45 0.0142
63.5 0.01895
63.55 0.02429
63.6 0.02195
63.65 0.01954
63.7 0.01222
63.75 0.00818
63.8 0.00042
63.85 -0.00225
63.9 -0.0074
63.95 -0.01124
64 -0.01135
64.05 -0.00818
64.1 -0.0049
64.15 -0.00088
64.2 0.0026
64.25 0.0069
64.3 0.0046
64.35 0.00646
64.4 0.00492
64.45 0.00241
64.5 -0.00045
64.55 -0.00497
64.6 -0.00805
64.65 -0.01132
64.7 -0.00918
64.75 -0.00837
64.8 -0.00387
64.85 -0.00303
64.9 0.00116
64.95 0.00506
65 0.00289
65.05 0.00464
65.1 0.00086
65.15 0.00251
65.2 0.00638
65.25 0.00657
65.3 0.01043
65.35 0.01033
65.4 0.00969
65.45 0.00824
65.5 0.00779
65.55 0.00531
65.6 0.00491
65.65 0.00834
65.7 0.00792
65.75 0.00262
65.8 -0.00122
65.85 -0.00673
65.9 -0.00667
65.95 -0.00746
66 -0.00382
66.05 0.00197
66.1 0.008
66.15 0.0098
66.2 0.01051
66.25 0.01013
66.3 0.00634
66.35 -0.00051
66.4 -0.00131
66.45 -0.00151
66.5 0.00164
66.55 0.0028
66.6 0.00189
66.65 0.00246
66.7 0.00079
66.75 0.00192
66.8 -0.00031
66.85 -0.00227
66.9 -0.00025
66.95 -0.00338
67 -0.00829
67.05 -0.01258
67.1 -0.011
67.15 -0.00608
67.2 0.00174
67.25 0.00189
67.3 0.00471
67.35 0.00242
67.4 -0.00131
67.45 0.00016
67.5 -0.00153
67.55 -0.00645
67.6 -0.01172
67.65 -0.01846
67.7 -0.01759
67.75 -0.01914
67.8 -0.01932
67.85 -0.01391
67.9 -0.01046
67.95 -0.00698
68 -0.0079
68.05 -0.0073
68.1 -0.01084
68.15 -0.00991
68.2 -0.01105
68.25 -0.00841
68.3 -0.00993
68.35 -0.00773
68.4 -0.00524
68.45 -0.00021
68.5 0.00367
68.55 0.0095
68.6 0.01544
68.65 0.01375
68.7 0.00983
68.75 0.00678
68.8 -0.00019
68.85 -0.00914
68.9 -0.01419
68.95 -0.01971
69 -0.02459
69.05 -0.02897
69.1 -0.032
69.15 -0.03268
69.2 -0.02786
69.25 -0.02638
69.3 -0.02336
69.35 -0.01709
69.4 -0.01356
69.45 -0.0057
69.5 0.00143
69.55 0.00947
69.6 0.01113
69.65 0.01137
69.7 0.01178
69.75 0.00967
69.8 0.01124
69.85 0.01427
69.9 0.01742
69.95 0.01718
70 0.01752
70.05 0.01357
70.1 0.01173
70.15 0.00947
70.2 0.00373
70.25 0.00017
70.3 -0.00144
70.35 -0.00499
70.4 -0.00329
70.45 -0.00045
70.5 0.00286
70.55 0.00802
70.6 0.01526
70.65 0.01667
70.7 0.01925
70.75 0.02255
70.8 0.02623
70.85 0.02982
70.9 0.02709
70.95 0.02703
71 0.0203
71.05 0.01677
71.1 0.01499
71.15 0.01107
71.2 0.00816
71.25 0.00217
71.3 -0.0004
71.35 -0.00532
71.4 -0.0107
71.45 -0.01238
71.5 -0.01162
71.55 -0.01121
71.6 -0.00951
71.65 -0.00877
71.7 -0.0037
71.75 -0.00356
71.8 -0.00654
71.85 -0.00931
71.9 -0.00892
71.95 -0.01067
72 -0.0126
72.05 -0.01157
72.1 -0.01453
72.15 -0.01742
72.2 -0.02241
72.25 -0.02608
72.3 -0.0257
72.35 -0.02214
72.4 -0.01398
72.45 -0.00306
72.5 0.00083
72.55 0.00644
72.6 0.01234
72.65 0.01646
72.7 0.01936
72.75 0.02009
72.8 0.01705
72.85 0.00919
72.9 0.00758
72.95 0.00724
73 0.00238
73.05 0.00251
73.1 0.00328
73.15 -0.0011
73.2 -0.00135
73.25 -0.00094
73.3 0.00387
73.35 0.00684
73.4 0.00945
73.45 0.01309
73.5 0.01676
73.55 0.01374
73.6 0.00949
73.65 0.00346
73.7 -0.00444
73.75 -0.01139
73.8 -0.01365
73.85 -0.01456
73.9 -0.0134
73.95 -0.00922
74 -0.00632
74.05 -0.00604
74.1 -0.00491
74.15 0.00066
74.2 0.0037
74.25 0.0044
74.3 0.00182
74.35 -0.00058
74.4 -0.00652
74.45 -0.01107
74.5 -0.00881
74.55 -0.00262
74.6 0.00167
74.65 0.0083
74.7 0.01045
74.75 0.01104
74.8 0.00956
74.85 0.00891
74.9 0.0065
74.95 0.00163
75 -0.0048
75.05 -0.01305
75.1 -0.02148
75.15 -0.02604
75.2 -0.02244
75.25 -0.02174
75.3 -0.02332
75.35 -0.02032
75.4 -0.01502
75.45 -0.01074
75.5 -0.00687
75.55 -0.00147
75.6 0.00411
75.65 0.00485
75.7 0.0093
75.75 0.01379
75.8 0.01672
75.85 0.01576
75.9 0.01108
75.95 0.0117
76 0.01017
76.05 0.01094
76.1 0.01046
76.15 0.011
76.2 0.01348
76.25 0.00932
76.3 0.00609
76.35 0.00051
76.4 -0.00477
76.45 -0.01075
76.5 -0.01166
76.55 -0.00928
76.6 -0.00544
76.65 -0.00347
76.7 -0.00012
76.75 0.0059
76.8 0.01255
76.85 0.01545
76.9 0.01839
76.95 0.02114
77 0.02159
77.05 0.02157
77.1 0.0191
77.15 0.01908
77.2 0.01678
77.25 0.01133
77.3 0.00919
77.35 0.0107
77.4 0.01363
77.45 0.01128
77.5 0.00711
77.55 0.00709
77.6 0.00754
77.65 0.01027
77.7 0.00836
77.75 0.01011
77.8 0.00848
77.85 0.00587
77.9 0.00188
77.95 -0.00359
78 -0.00755
78.05 -0.01059
78.1 -0.01445
78.15 -0.01322
78.2 -0.01278
78.25 -0.01275
78.3 -0.01218
78.35 -0.01526
78.4 -0.0121
78.45 -0.01113
78.5 -0.00578
78.55 -0.00312
78.6 -0.00539
78.65 -0.00783
78.7 -0.01358
78.75 -0.01267
78.8 -0.00704
78.85 -0.00406
78.9 -0.00277
78.95 -0.00147
79 0.00376
79.05 0.00691
79.1 0.00627
79.15 0.00594
79.2 0.00423
79.25 -0.00008
79.3 -0.00124
79.35 -0.00423
79.4 -0.00423
79.45 -0.00453
79.5 -0.00496
79.55 -0.00713
79.6 -0.00829
79.65 -0.00882
79.7 -0.00925
79.75 -0.00546
79.8 -0.00038
79.85 0.00094
79.9 -0.00095
79.95 -0.00347
80 -0.00382
80.05 -0.00784
80.1 -0.00652
80.15 -0.00835
80.2 -0.01239
80.25 -0.01055
80.3 -0.0055
80.35 -0.00576
80.4 -0.00758
80.45 -0.01042
80.5 -0.00934
80.55 -0.01188
80.6 -0.00842
80.65 -0.00783
80.7 -0.00368
80.75 -0.00018
80.8 0.00483
80.85 0.00838
80.9 0.00826
80.95 0.00529
81 0.0017
81.05 0.00296
81.1 0.00787
81.15 0.01246
81.2 0.01619
81.25 0.02078
81.3 0.01791
81.35 0.0166
81.4 0.0175
81.45 0.01709
81.5 0.01796
81.55 0.01754
81.6 0.01592
81.65 0.01315
81.7 0.006
81.75 -0.00097
81.8 -0.00154
81.85 -0.00546
81.9 -0.00909
81.95 -0.01236
82 -0.01104
82.05 -0.0134
82.1 -0.0142
82.15 -0.01215
82.2 -0.00946
82.25 -0.00803
82.3 -0.00749
82.35 -0.00388
82.4 0.00083
82.45 0.00295
82.5 -0.00079
82.55 -0.00655
82.6 -0.01065
82.65 -0.01269
82.7 -0.01008
82.75 -0.00461
82.8 -0.00313
82.85 -0.00201
82.9 -0.00165
82.95 -0.00066
83 0.00303
83.05 0.00175
83.1 -0.00247
83.15 -0.00351
83.2 -0.00337
83.25 -0.00183
83.3 -0.0017
83.35 -0.00584
83.4 -0.00927
83.45 -0.01144
83.5 -0.01078
83.55 -0.00799
83.6 -0.00176
83.65 -0.00041
83.7 -0.00129
83.75 0.00162
83.8 0.00603
83.85 0.00621
83.9 0.00905
83.95 0.01084
84 0.01181
84.05 0.01197
84.1 0.01201
84.15 0.01266
84.2 0.01096
84.25 0.00469
84.3 -0.00211
84.35 -0.00586
84.4 -0.00878
84.45 -0.01158
84.5 -0.00963
84.55 -0.01026
84.6 -0.00699
84.65 -0.00707
84.7 -0.00393
84.75 -0.00432
84.8 0.00009
84.85 0.00118
84.9 -0.00005
84.95 -0.00546
85 -0.00815
85.05 -0.01052
85.1 -0.01061
85.15 -0.00643
85.2 -0.00592
85.25 -0.0031
85.3 0.0014
85.35 0.00303
85.4 0.0006
85.45 0.00068
85.5 0.00023
85.55 -0.00008
85.6 0.0034
85.65 0.00214
85.7 -0.00312
85.75 -0.00688
85.8 -0.00673
85.85 -0.00796
85.9 -0.0061
85.95 -0.00885
86 -0.01203
86.05 -0.00874
86.1 -0.00976
86.15 -0.00879
86.2 -0.00402
86.25 -0.00425
86.3 -0.00566
86.35 -0.00957
86.4 -0.00739
86.45 -0.00406
86.5 -0.00272
86.55 -0.00442
86.6 -0.00324
86.65 -0.00548
86.7 -0.00724
86.75 -0.00744
86.8 -0.006
86.85 -0.00611
86.9 -0.00392
86.95 -0.00437
87 -0.00536
87.05 -0.00518
87.1 -0.00776
87.15 -0.0068
87.2 -0.00476
87.25 0.00108
87.3 0.00264
87.35 -0.00072
87.4 -0.00726
87.45 -0.01007
87.5 -0.00721
87.55 -0.00874
87.6 -0.00723
87.65 -0.00979
87.7 -0.00688
87.75 -0.00525
87.8 -0.00496
87.85 -0.00413
87.9 -0.00417
87.95 -0.00447
88 -0.00781
88.05 -0.00632
88.1 -0.0085
88.15 -0.00528
88.2 -0.0042
88.25 -0.0072
88.3 -0.00951
88.35 -0.01305
88.4 -0.01081
88.45 -0.00795
88.5 -0.00306
88.55 -0.0025
88.6 -0.00329
88.65 -0.00227
88.7 -0.00533
88.75 -0.00755
88.8 -0.01114
88.85 -0.01093
88.9 -0.00681
88.95 -0.00783
89 -0.00358
89.05 0.00419
89.1 0.00476
89.15 0.00967
89.2 0.01066
89.25 0.00626
89.3 0.00509
89.35 0.00144
89.4 -0.00101
89.45 0.00095
89.5 0.00472
89.55 0.00642
89.6 0.00987
89.65 0.00919
89.7 0.01171
89.75 0.0083
89.8 0.00574
89.85 0.00064
89.9 -0.00149
89.95 -0.00063
90 -0.00068
90.05 -0.00481
90.1 -0.00827
90.15 -0.0134
90.2 -0.01796
90.25 -0.01749
90.3 -0.01829
90.35 -0.01566
90.4 -0.01309
90.45 -0.00777
90.5 -0.00496
90.55 -0.00163
90.6 -0.00241
90.65 0.001
90.7 0.00337
90.75 0.00765
90.8 0.00712
90.85 0.00424
90.9 0.00136
90.95 0.00058
91 -0.00396
91.05 -0.01068
91.1 -0.01144
91.15 -0.01305
91.2 -0.00815
91.25 -0.00842
91.3 -0.008
91.35 -0.00466
91.4 -0.00128
91.45 0.0005
91.5 0.00108
91.55 -0.0011
91.6 -0.0026
91.65 -0.00411
91.7 -0.00206
91.75 -0.00398
91.8 -0.00905
91.85 -0.00871
91.9 -0.00666
91.95 -0.00555
92 -0.00666
92.05 -0.00661
92.1 -0.00389
92.15 0.00245
92.2 0.00726
92.25 0.00837
92.3 0.00979
92.35 0.00856
92.4 0.00401
92.45 -0.00138
92.5 -0.00047
92.55 0.0022
92.6 0.00478
92.65 0.00474
92.7 0.00774
92.75 0.00631
92.8 0.0089
92.85 0.0082
92.9 0.0052
92.95 0.00779
93 0.01234
93.05 0.01727
93.1 0.02045
93.15 0.02313
93.2 0.01854
93.25 0.01769
93.3 0.01446
93.35 0.0115
93.4 0.00507
93.45 0.00274
93.5 -0.00012
93.55 -0.00069
93.6 -0.00074
93.65 0.00342
93.7 0.00976
93.75 0.0129
93.8 0.01705
93.85 0.01453
93.9 0.01356
93.95 0.01587
94 0.01901
94.05 0.01555
94.1 0.00991
94.15 0.00863
94.2 0.00787
94.25 0.00791
94.3 0.00727
94.35 0.00911
94.4 0.01072
94.45 0.00825
94.5 0.00445
94.55 0.00562
94.6 0.01024
94.65 0.01583
94.7 0.0171
94.75 0.01785
94.8 0.0182
94.85 0.01866
94.9 0.01553
94.95 0.00977
95 0.00259
95.05 -0.00666
95.1 -0.01296
95.15 -0.02043
95.2 -0.02077
95.25 -0.01821
95.3 -0.01265
95.35 -0.00586
95.4 -0.00503
95.45 -0.00193
95.5 -0.00081
95.55 -0.00157
95.6 0.00167
95.65 0.00289
95.7 0.00565
95.75 0.00836
95.8 0.00569
95.85 0.00638
95.9 0.00564
95.95 0.00085
96 -0.00519
96.05 -0.01233
96.1 -0.01762
96.15 -0.0158
96.2 -0.01716
96.25 -0.01606
96.3 -0.01796
96.35 -0.0217
96.4 -0.02482
96.45 -0.02536
96.5 -0.02395
96.55 -0.02157
96.6 -0.01627
96.65 -0.00754
96.7 -0.00524
96.75 -0.00169
96.8 0.00228
96.85 0.00188
96.9 0.00025
96.95 -0.00393
97 -0.00255
97.05 0.00327
97.1 0.00505
97.15 0.00743
97.2 0.00691
97.25 0.00508
97.3 0.00301
97.35 -0.00076
97.4 -0.00248
97.45 -0.00341
97.5 -0.00015
97.55 0.00398
97.6 0.00765
97.65 0.01073
97.7 0.01378
97.75 0.01132
97.8 0.00902
97.85 0.00236
97.9 -0.00321
97.95 -0.00729
98 -0.00707
98.05 -0.00631
98.1 -0.00753
98.15 -0.01029
98.2 -0.00866
98.25 -0.00627
98.3 -0.00791
98.35 -0.00374
98.4 -0.00079
98.45 -0.00062
98.5 0.00395
98.55 0.00322
98.6 0.00273
98.65 0.00064
98.7 0.001
98.75 0.00322
98.8 0.00066
98.85 0.00153
98.9 0.00521
98.95 0.00811
99 0.01095
99.05 0.01473
99.1 0.01299
99.15 0.01257
99.2 0.01182
99.25 0.01074
99.3 0.00858
99.35 0.0063
99.4 0.00522
99.45 0.00853
99.5 0.01309
99.55 0.01491
99.6 0.01733
99.65 0.01503
99.7 0.01015
99.75 0.0097
99.8 0.00651
99.85 0.00573
99.9 0.00891
99.95 0.00619
