0 0
0.05 0.00102
0.1 0.00264
0.15 0.00421
0.2 0.00644
0.25 0.00837
0.3 0.01063
0.35 0.01239
0.4 0.01352
0.45 0.01475
0.5 0.01498
0.55 0.01575
0.6 0.01525
0.65 0.0148
0.7 0.01326
0.75 0.01181
0.8 0.01105
0.85 0.01147
0.9 0.01167
0.95 0.01111
1 0.01162
1.05 0.0128
1.1 0.01352
1.15 0.01271
1.2 0.01119
1.25 0.0109
1.3 0.01105
1.35 0.012
1.4 0.0114
1.45 0.00982
1.5 0.00985
1.55 0.00918
1.6 0.00882
1.65 0.00891
1.7 0.00963
1.75 0.00985
1.8 0.01024
1.85 0.01028
1.9 0.0091
1.95 0.00844
2 0.00737
2.05 0.00774
2.1 0.00856
2.15 0.00998
2.2 0.00976
2.25 0.01015
2.3 0.01122
2.35 0.01099
2.4 0.00976
2.45 0.00843
2.5 0.00716
2.55 0.00667
2.6 0.00612
2.65 0.00564
2.7 0.00501
2.75 0.00559
2.8 0.00617
2.85 0.00563
2.9 0.00506
2.95 0.00496
3 0.00521
3.05 0.00487
3.1 0.00388
3.15 0.00386
3.2 0.00507
3.25 0.00624
3.3 0.00642
3.35 0.00558
3.4 0.00578
3.45 0.00532
3.5 0.00539
3.55 0.00561
3.6 0.00507
3.65 0.00517
3.7 0.00466
3.75 0.00462
3.8 0.00445
3.85 0.00526
3.9 0.0056
3.95 0.00469
4 0.00383
4.05 0.00282
4.1 0.00126
4.15 -0.00007
4.2 -0.00092
4.25 -0.0003
4.3 0.00108
4.35 0.00179
4.4 0.00357
4.45 0.00585
4.5 0.00707
4.55 0.00745
4.6 0.0078
4.65 0.00714
4.7 0.0057
4.75 0.00465
4.8 0.00269
4.85 0.00163
4.9 0.00004
4.95 -0.00177
5 -0.00276
5.05 -0.00308
5.1 -0.00272
5.15 -0.00197
5.2 -0.00039
5.25 0.00055
5.3 0.00054
5.35 0.00041
5.4 0.00124
5.45 0.00155
5.5 0.00192
5.55 0.0031
5.6 0.00354
5.65 0.00379
5.7 0.00297
5.75 0.00252
5.8 0.00205
5.85 0.00154
5.9 0.00126
5.95 0.00141
6 0.0011
6.05 0.00174
6.1 0.00281
6.15 0.00322
6.2 0.00312
6.25 0.00252
6.3 0.00266
6.35 0.00237
6.4 0.00172
6.45 0.00075
6.5 0.00132
6.55 0.00274
6.6 0.0043
6.65 0.00502
6.7 0.00622
6.75 0.00736
6.8 0.00741
6.85 0.00645
6.9 0.00478
6.95 0.00393
7 0.00395
7.05 0.00368
7.1 0.0035
7.15 0.00273
7.2 0.00236
7.25 0.00155
7.3 0.00176
7.35 0.00187
7.4 0.00253
7.45 0.00273
7.5 0.00327
7.55 0.00293
7.6 0.00299
7.65 0.00373
7.7 0.00499
7.75 0.00552
7.8 0.00442
7.85 0.00278
7.9 0.00178
7.95 0.00009
8 -0.00066
8.05 -0.00007
8.1 -0.00051
8.15 -0.00017
8.2 0.00129
8.25 0.00115
8.3 0.00187
8.35 0.00289
8.4 0.00406
8.45 0.00494
8.5 0.00485
8.55 0.00512
8.6 0.00503
8.65 0.00471
8.7 0.00532
8.75 0.00483
8.8 0.00403
8.85 0.00294
8.9 0.00146
8.95 0.0004
9 -0.00121
9.05 -0.00122
9.1 -0.00118
9.15 -0.00098
9.2 -0.00189
9.25 -0.00219
9.3 -0.00161
9.35 -0.00175
9.4 -0.00223
9.45 -0.00185
9.5 -0.00031
9.55 -0.00015
9.6 -0.00087
9.65 -0.00102
9.7 -0.00196
9.75 -0.00338
9.8 -0.00468
9.85 -0.00551
9.9 -0.00476
9.95 -0.0049
10 -0.004
10.05 -0.00303
10.1 -0.00281
10.15 -0.00341
10.2 -0.0027
10.25 -0.00179
10.3 -0.00097
10.35 0.00056
10.4 0.0007
10.45 0.00007
10.5 -0.00143
10.55 -0.00324
10.6 -0.00297
10.65 -0.00125
10.7 0.0006
10.75 0.00279
10.8 0.00429
10.85 0.00598
10.9 0.00559
10.95 0.00476
11 0.00444
11.05 0.00319
11.1 0.00201
11.15 0.00167
11.2 0.00031
11.25 -0.00132
11.3 -0.00207
11.35 -0.00166
11.4 -0.00054
11.45 -0.00068
11.5 -0.00001
11.55 0.00002
11.6 -0.00018
11.65 0.00007
11.7 0.00095
11.75 0.00047
11.8 0.00094
11.85 0.00221
11.9 0.00188
11.95 0.00244
12 0.00313
12.05 0.00277
12.1 0.00241
12.15 0.00111
12.2 0.00136
12.25 0.00219
12.3 0.00174
12.35 0.0023
12.4 0.0036
12.45 0.00421
12.5 0.00429
12.55 0.00297
12.6 0.00238
12.65 0.00203
12.7 0.00115
12.75 0.00073
12.8 -0.00037
12.85 -0.0014
12.9 -0.00128
12.95 -0.00099
13 -0.00116
13.05 -0.00222
13.1 -0.00325
13.15 -0.00427
13.2 -0.00336
13.25 -0.00301
13.3 -0.00159
13.35 -0.00024
13.4 0.00017
13.45 0.00065
13.5 0.00184
13.55 0.00285
13.6 0.00317
13.65 0.00204
13.7 0.00068
13.75 -0.00018
13.8 -0.00186
13.85 -0.00324
13.9 -0.00287
13.95 -0.00249
14 -0.00292
14.05 -0.00302
14.1 -0.00373
14.15 -0.00282
14.2 -0.00167
14.25 0.00001
14.3 0.00087
14.35 0.00019
14.4 0.00087
14.45 0.00031
14.5 -0.00076
14.55 -0.00202
14.6 -0.00362
14.65 -0.00429
14.7 -0.00538
14.75 -0.00498
14.8 -0.00421
14.85 -0.00275
14.9 -0.00191
14.95 -0.00196
15 -0.00158
15.05 -0.0012
15.1 -0.00055
15.15 -0.0002
15.2 0.00029
15.25 0.00177
15.3 0.00364
15.35 0.00493
15.4 0.00649
15.45 0.00617
15.5 0.00592
15.55 0.00619
15.6 0.00475
15.65 0.00381
15.7 0.00263
15.75 0.00177
15.8 0.002
15.85 0.00286
15.9 0.00423
15.95 0.0054
16 0.00627
16.05 0.00576
16.1 0.00431
16.15 0.00416
16.2 0.00402
16.25 0.00403
16.3 0.00417
16.35 0.00392
16.4 0.00401
16.45 0.00306
16.5 0.00249
16.55 0.00171
16.6 0.00002
16.65 -0.00003
16.7 0.00096
16.75 0.00026
16.8 0.00083
16.85 0.00112
16.9 0.00143
16.95 0.00117
17 -0.00032
17.05 -0.00092
17.1 -0.00204
17.15 -0.00177
17.2 -0.00227
17.25 -0.0026
17.3 -0.00261
17.35 -0.0023
17.4 -0.00108
17.45 0.00085
17.5 0.00223
17.55 0.00357
17.6 0.00352
17.65 0.0031
17.7 0.0021
17.75 0.00241
17.8 0.00295
17.85 0.00286
17.9 0.00286
17.95 0.00306
18 0.00323
18.05 0.0023
18.1 0.00227
18.15 0.00164
18.2 0.00002
18.25 -0.00053
18.3 -0.00089
18.35 0.00005
18.4 0.0002
18.45 0.00123
18.5 0.00261
18.55 0.00289
18.6 0.00225
18.65 0.00233
18.7 0.00242
18.75 0.00335
18.8 0.00378
18.85 0.00346
18.9 0.00396
18.95 0.00319
19 0.0021
19.05 0.00012
19.1 -0.00219
19.15 -0.00322
19.2 -0.00393
19.25 -0.00494
19.3 -0.00583
19.35 -0.0067
19.4 -0.00666
19.45 -0.00531
19.5 -0.00437
19.55 -0.00256
19.6 -0.00039
19.65 0.00132
19.7 0.00275
19.75 0.00256
19.8 0.00239
19.85 0.00312
19.9 0.00384
19.95 0.00498
20 0.00577
20.05 0.00634
20.1 0.00597
20.15 0.00492
20.2 0.00386
20.25 0.00347
20.3 0.00319
20.35 0.00184
20.4 0.00186
20.45 0.00152
20.5 0.00018
20.55 -0.0017
20.6 -0.00338
20.65 -0.00396
20.7 -0.00355
20.75 -0.00294
20.8 -0.00331
20.85 -0.00439
20.9 -0.00416
20.95 -0.00388
21 -0.00253
21.05 -0.00201
21.1 -0.00064
21.15 -0.00026
21.2 -0.00009
21.25 0.00081
21.3 0.0002
21.35 0.00044
21.4 0.00073
21.45 0.00092
21.5 0.00026
21.55 -0.00134
21.6 -0.00139
21.65 -0.0025
21.7 -0.00309
21.75 -0.00411
21.8 -0.00528
21.85 -0.00549
21.9 -0.00561
21.95 -0.00493
22 -0.00499
22.05 -0.00577
22.1 -0.00597
22.15 -0.00635
22.2 -0.00707
22.25 -0.0071
22.3 -0.00709
22.35 -0.00627
22.4 -0.00463
22.45 -0.00255
22.5 -0.00147
22.55 -0.00015
22.6 -0.00037
22.65 0.0003
22.7 0.0007
22.75 0.00072
22.8 0.00002
22.85 -0.00075
22.9 -0.0013
22.95 -0.0014
23 -0.00121
23.05 -0.00024
23.1 -0.00004
23.15 0.00083
23.2 0.00081
23.25 0.00045
23.3 -0.00097
23.35 -0.00272
23.4 -0.00363
23.45 -0.00319
23.5 -0.00231
23.55 -0.00043
23.6 0.0013
23.65 0.00284
23.7 0.00353
23.75 0.00258
23.8 0.00118
23.85 0.00122
23.9 0.00047
23.95 0.00101
24 0.00106
24.05 0.00117
24.1 0.00023
24.15 0.00024
24.2 0.00031
24.25 0.00031
24.3 0.00064
24.35 0.00086
24.4 0.00107
24.45 -0.00003
24.5 0.00029
24.55 0.00142
24.6 0.00317
24.65 0.00316
24.7 0.0034
24.75 0.00222
24.8 0.00054
24.85 -0.00047
24.9 -0.00086
24.95 -0.00049
25 -0.0008
25.05 0.00016
25.1 0.00166
25.15 0.00226
25.2 0.00347
25.25 0.00293
25.3 0.00258
25.35 0.00171
25.4 0.00084
25.45 0.00044
25.5 -0.00076
25.55 -0.00097
25.6 -0.0002
25.65 0.0006
25.7 0.00123
25.75 0.00254
25.8 0.00268
25.85 0.00209
25.9 0.00107
25.95 0.00102
26 0.00061
26.05 0.00054
26.1 -0.00006
26.15 0.00004
26.2 0.00019
26.25 -0.00012
26.3 0.00026
26.35 0.00028
26.4 -0.00084
26.45 -0.0022
26.5 -0.00338
26.55 -0.00505
26.6 -0.00565
26.65 -0.00474
26.7 -0.00315
26.75 -0.00152
26.8 -0.00145
26.85 -0.00075
26.9 0.00023
26.95 0.00132
27 0.00096
27.05 0.00142
27.1 0.00127
27.15 0.00194
27.2 0.00187
27.25 0.0014
27.3 0.00165
27.35 0.00106
27.4 -0.00015
27.45 -0.00144
27.5 -0.00242
27.55 -0.00273
27.6 -0.00189
27.65 -0.00146
27.7 -0.00105
27.75 -0.00041
27.8 -0.00055
27.85 0.00015
27.9 0.00064
27.95 0.00143
28 0.00081
28.05 0.00142
28.1 0.00269
28.15 0.00227
28.2 0.00182
28.25 0.00055
28.3 -0.0008
28.35 -0.0016
28.4 -0.00181
28.45 -0.00169
28.5 -0.00252
28.55 -0.00253
28.6 -0.00287
28.65 -0.00277
28.7 -0.00191
28.75 -0.00228
28.8 -0.004
28.85 -0.00656
28.9 -0.0091
28.95 -0.01058
29 -0.01218
29.05 -0.01382
29.1 -0.01595
29.15 -0.01799
29.2 -0.02118
29.25 -0.02576
29.3 -0.03123
29.35 -0.03634
29.4 -0.04111
29.45 -0.04784
29.5 -0.05544
29.55 -0.06337
29.6 -0.0736
29.65 -0.08525
29.7 -0.09859
29.75 -0.11389
29.8 -0.12935
29.85 -0.14706
29.9 -0.16727
29.95 -0.19031
30 -0.21587
30.05 -0.24271
30.1 -0.26972
30.15 -0.2997
30.2 -0.33204
30.25 -0.36579
30.3 -0.39984
30.35 -0.43516
30.4 -0.47107
30.45 -0.50649
30.5 -0.54249
30.55 -0.5769
30.6 -0.61033
30.65 -0.64185
30.7 -0.67221
30.75 -0.7011
30.8 -0.72696
30.85 -0.75036
30.9 -0.76917
30.95 -0.78398
31 -0.7929
31.05 -0.79696
31.1 -0.79511
31.15 -0.78631
31.2 -0.76982
31.25 -0.74625
31.3 -0.71786
31.35 -0.68527
31.4 -0.64664
31.45 -0.6043
31.5 -0.55634
31.55 -0.50537
31.6 -0.44986
31.65 -0.39112
31.7 -0.33065
31.75 -0.27021
31.8 -0.20774
31.85 -0.14665
31.9 -0.08591
31.95 -0.02698
32 0.0313
32.05 0.08663
32.1 0.14053
32.15 0.19229
32.2 0.23954
32.25 0.28458
32.3 0.32645
32.35 0.36566
32.4 0.4011
32.45 0.43283
32.5 0.46031
32.55 0.4844
32.6 0.50618
32.65 0.52401
32.7 0.53884
32.75 0.5508
32.8 0.56018
32.85 0.56799
32.9 0.57464
32.95 0.58136
33 0.58639
33.05 0.59136
33.1 0.59404
33.15 0.59637
33.2 0.59774
33.25 0.59913
33.3 0.5987
33.35 0.59777
33.4 0.59608
33.45 0.59412
33.5 0.59102
33.55 0.58631
33.6 0.58103
33.65 0.57465
33.7 0.56731
33.75 0.56041
33.8 0.55326
33.85 0.54504
33.9 0.536
33.95 0.52744
34 0.51875
34.05 0.50883
34.1 0.4999
34.15 0.49059
34.2 0.47989
34.25 0.46793
34.3 0.45516
34.35 0.44398
34.4 0.4317
34.45 0.41932
34.5 0.40803
34.55 0.39628
34.6 0.38354
34.65 0.37169
34.7 0.36037
34.75 0.34961
34.8 0.33719
34.85 0.32387
34.9 0.31114
34.95 0.29786
35 0.28611
35.05 0.27395
35.1 0.2619
35.15 0.24906
35.2 0.23685
35.25 0.22428
35.3 0.21232
35.35 0.19948
35.4 0.18842
35.45 0.17867
35.5 0.16891
35.55 0.15887
35.6 0.14773
35.65 0.1367
35.7 0.12477
35.75 0.11308
35.8 0.10108
35.85 0.08942
35.9 0.07959
35.95 0.07126
36 0.06239
36.05 0.0529
36.1 0.04496
36.15 0.0364
36.2 0.02935
36.25 0.02269
36.3 0.01732
36.35 0.01068
36.4 0.00515
36.45 -0.0006
36.5 -0.00735
36.55 -0.01336
36.6 -0.01937
36.65 -0.02415
36.7 -0.02992
36.75 -0.03466
36.8 -0.03988
36.85 -0.04488
36.9 -0.04894
36.95 -0.05389
37 -0.05942
37.05 -0.0652
37.1 -0.07043
37.15 -0.07491
37.2 -0.07817
37.25 -0.08113
37.3 -0.08219
37.35 -0.08259
37.4 -0.08371
37.45 -0.08479
37.5 -0.0848
37.55 -0.086
37.6 -0.08616
37.65 -0.08579
37.7 -0.08511
37.75 -0.08519
37.8 -0.08641
37.85 -0.08893
37.9 -0.09198
37.95 -0.09457
38 -0.09683
38.05 -0.09837
38.1 -0.09931
38.15 -0.09974
38.2 -0.09954
38.25 -0.09904
38.3 -0.09791
38.35 -0.09663
38.4 -0.09485
38.45 -0.09336
38.5 -0.09165
38.55 -0.08935
38.6 -0.08733
38.65 -0.08564
38.7 -0.08451
38.75 -0.08421
38.8 -0.08398
38.85 -0.0835
38.9 -0.0822
38.95 -0.08072
39 -0.08075
39.05 -0.08029
39.1 -0.07947
39.15 -0.07772
39.2 -0.07675
39.25 -0.07527
39.3 -0.07436
39.35 -0.075
39.4 -0.07573
39.45 -0.07548
39.5 -0.07459
39.55 -0.07344
39.6 -0.07153
39.65 -0.06973
39.7 -0.06904
39.75 -0.06811
39.8 -0.06638
39.85 -0.06529
39.9 -0.06566
39.95 -0.06508
40 -0.0651
40.05 -0.06374
40.1 -0.06293
40.15 -0.06243
40.2 -0.06189
40.25 -0.06159
40.3 -0.062
40.35 -0.06217
40.4 -0.06086
40.45 -0.05903
40.5 -0.05804
40.55 -0.05577
40.6 -0.05427
40.65 -0.05338
40.7 -0.05201
40.75 -0.05134
40.8 -0.05142
40.85 -0.05158
40.9 -0.05093
40.95 -0.04898
41 -0.04706
41.05 -0.04466
41.1 -0.04354
41.15 -0.04368
41.2 -0.04456
41.25 -0.04605
41.3 -0.04714
41.35 -0.04678
41.4 -0.04531
41.45 -0.04509
41.5 -0.04447
41.55 -0.04415
41.6 -0.04452
41.65 -0.04468
41.7 -0.04332
41.75 -0.04275
41.8 -0.0415
41.85 -0.0394
41.9 -0.03753
41.95 -0.03718
42 -0.03641
42.05 -0.0359
42.1 -0.03419
42.15 -0.033
42.2 -0.03225
42.25 -0.03249
42.3 -0.03252
42.35 -0.03137
42.4 -0.03088
42.45 -0.02924
42.5 -0.02863
42.55 -0.02713
42.6 -0.02512
42.65 -0.02455
42.7 -0.02509
42.75 -0.02614
42.8 -0.02579
42.85 -0.02529
42.9 -0.02425
42.95 -0.02428
43 -0.0239
43.05 -0.02288
43.1 -0.02288
43.15 -0.02282
43.2 -0.02281
43.25 -0.02234
43.3 -0.0227
43.35 -0.02183
43.4 -0.02025
43.45 -0.01849
43.5 -0.01851
43.55 -0.01874
43.6 -0.018
43.65 -0.017
43.7 -0.01611
43.75 -0.01557
43.8 -0.01505
43.85 -0.01514
43.9 -0.01485
43.95 -0.01455
44 -0.01441
44.05 -0.01576
44.1 -0.01646
44.15 -0.01775
44.2 -0.01749
44.25 -0.01738
44.3 -0.01712
44.35 -0.01644
44.4 -0.01651
44.45 -0.01629
44.5 -0.01646
44.55 -0.01643
44.6 -0.0158
44.65 -0.0146
44.7 -0.01488
44.75 -0.01503
44.8 -0.01405
44.85 -0.01424
44.9 -0.01509
44.95 -0.01536
45 -0.01447
45.05 -0.01499
45.1 -0.0148
45.15 -0.0134
45.2 -0.01229
45.25 -0.01127
45.3 -0.01192
45.35 -0.01241
45.4 -0.01189
45.45 -0.01113
45.5 -0.01191
45.55 -0.01234
45.6 -0.01143
45.65 -0.01173
45.7 -0.01223
45.75 -0.01243
45.8 -0.01259
45.85 -0.01168
45.9 -0.01047
45.95 -0.00979
46 -0.01058
46.05 -0.01094
46.1 -0.01066
46.15 -0.01019
46.2 -0.00987
46.25 -0.00889
46.3 -0.00728
46.35 -0.00651
46.4 -0.00591
46.45 -0.00465
46.5 -0.00456
46.55 -0.00387
46.6 -0.00491
46.65 -0.00563
46.7 -0.00723
46.75 -0.00937
46.8 -0.01052
46.85 -0.0103
46.9 -0.01007
46.95 -0.00865
47 -0.00725
47.05 -0.00679
47.1 -0.00729
47.15 -0.00783
47.2 -0.00729
47.25 -0.00761
47.3 -0.00781
47.35 -0.00747
47.4 -0.00805
47.45 -0.00952
47.5 -0.00907
47.55 -0.0088
47.6 -0.0081
47.65 -0.00763
47.7 -0.00739
47.75 -0.00618
47.8 -0.00523
47.85 -0.00474
47.9 -0.00377
47.95 -0.00419
48 -0.00569
48.05 -0.00761
48.1 -0.00958
48.15 -0.01128
48.2 -0.01135
48.25 -0.0098
48.3 -0.00892
48.35 -0.0086
48.4 -0.00877
48.45 -0.00885
48.5 -0.00866
48.55 -0.00831
48.6 -0.00676
48.65 -0.00491
48.7 -0.00323
48.75 -0.0023
48.8 -0.00237
48.85 -0.00164
48.9 -0.0024
48.95 -0.00307
49 -0.00443
49.05 -0.00492
49.1 -0.00618
49.15 -0.00674
49.2 -0.00703
49.25 -0.00699
49.3 -0.00625
49.35 -0.00487
49.4 -0.00306
49.45 -0.00179
49.5 -0.00211
49.55 -0.00309
49.6 -0.00425
49.65 -0.00548
49.7 -0.00536
49.75 -0.00498
49.8 -0.00406
49.85 -0.00228
49.9 -0.00059
49.95 0.00048
50 0.00117
50.05 0.0018
50.1 0.00063
50.15 0.00042
50.2 0.00029
50.25 0.00114
50.3 0.00217
50.35 0.00329
50.4 0.00447
50.45 0.00516
50.5 0.00555
50.55 0.00623
50.6 0.005
50.65 0.00427
50.7 0.00371
50.75 0.00194
50.8 -0.0006
50.85 -0.00206
50.9 -0.00377
50.95 -0.0038
51 -0.00346
51.05 -0.00363
51.1 -0.00328
51.15 -0.00197
51.2 -0.00044
51.25 0.00143
51.3 0.0031
51.35 0.00245
51.4 0.00203
51.45 0.00225
51.5 0.00099
51.55 0.0002
51.6 -0.00173
51.65 -0.0041
51.7 -0.00442
51.75 -0.00441
51.8 -0.00469
51.85 -0.00413
51.9 -0.0045
51.95 -0.00541
52 -0.00607
52.05 -0.00674
52.1 -0.00605
52.15 -0.00442
52.2 -0.00322
52.25 -0.00297
52.3 -0.0026
52.35 -0.00167
52.4 -0.00197
52.45 -0.00329
52.5 -0.00404
52.55 -0.00533
52.6 -0.00592
52.65 -0.00632
52.7 -0.0052
52.75 -0.00515
52.8 -0.00451
52.85 -0.00278
52.9 -0.00128
52.95 -0.00052
53 -0.00027
53.05 -0.00045
53.1 -0.00066
53.15 0.00014
53.2 0.00109
53.25 0.00054
53.3 -0.00043
53.35 -0.00006
53.4 -0.00053
53.45 -0.00004
53.5 0.00011
53.55 0.00098
53.6 0.00232
53.65 0.00367
53.7 0.00343
53.75 0.00226
53.8 0.0003
53.85 -0.00203
53.9 -0.00428
53.95 -0.00503
54 -0.00588
54.05 -0.00501
54.1 -0.00419
54.15 -0.00412
54.2 -0.00304
54.25 -0.00248
54.3 -0.00239
54.35 -0.00305
54.4 -0.00396
54.45 -0.00375
54.5 -0.00233
54.55 -0.00045
54.6 0.00083
54.65 0.00223
54.7 0.00229
54.75 0.00114
54.8 -0.00063
54.85 -0.00075
54.9 0.00004
54.95 -0.00067
55 -0.00078
55.05 -0.00001
55.1 0.00067
55.15 0.00037
55.2 -0.00052
55.25 -0.00024
55.3 -0.00076
55.35 -0.00106
55.4 -0.00058
55.45 0.00029
55.5 0.0005
55.55 -0.00019
55.6 -0.00008
55.65 -0.0001
55.7 -0.00133
55.75 -0.00195
55.8 -0.00297
55.85 -0.00311
55.9 -0.00197
55.95 -0.00085
56 -0.00064
56.05 -0.00055
56.1 -0.00097
56.15 -0.00216
56.2 -0.00324
56.25 -0.00346
56.3 -0.0022
56.35 -0.00248
56.4 -0.00135
56.45 -0.0013
56.5 -0.00218
56.55 -0.00314
56.6 -0.00331
56.65 -0.00259
56.7 -0.00309
56.75 -0.00363
56.8 -0.00321
56.85 -0.00307
56.9 -0.00162
56.95 -0.00035
57 0.00058
57.05 0.00224
57.1 0.00204
57.15 0.00057
57.2 0.00063
57.25 0.00068
57.3 0.00006
57.35 -0.00089
57.4 -0.0015
57.45 -0.00245
57.5 -0.00302
57.55 -0.00232
57.6 -0.00206
57.65 -0.00238
57.7 -0.00304
57.75 -0.00302
57.8 -0.00194
57.85 -0.0017
57.9 -0.0011
57.95 -0.00109
58 0.00004
58.05 0.00108
58.1 0.0011
58.15 0.00159
58.2 0.00272
58.25 0.00239
58.3 0.00304
58.35 0.00228
58.4 0.00163
58.45 0.00133
58.5 0.00076
58.55 0.00005
58.6 0.00002
58.65 -0.00024
58.7 0.00009
58.75 0.00087
58.8 0.00223
58.85 0.00308
58.9 0.00321
58.95 0.00237
59 0.00152
59.05 0.00171
59.1 0.00071
59.15 0.00065
59.2 0.00123
59.25 0.00054
59.3 0.00053
59.35 0.00006
59.4 -0.0003
59.45 -0.00127
59.5 -0.00287
59.55 -0.00481
59.6 -0.00589
59.65 -0.00573
59.7 -0.00431
59.75 -0.00304
59.8 -0.0023
59.85 -0.00122
59.9 -0.00019
59.95 0.0002
60 0.00046
60.05 0.00014
60.1 0
60.15 -0.00015
60.2 -0.00009
60.25 -0.00085
60.3 -0.00077
60.35 0.00018
60.4 -0.00017
60.45 -0.00117
60.5 -0.00068
60.55 0.00068
60.6 0.00224
60.65 0.00397
60.7 0.00493
60.75 0.00457
60.8 0.00298
60.85 0.00083
60.9 -0.00152
60.95 -0.00298
61 -0.00364
61.05 -0.00454
61.1 -0.00399
61.15 -0.00247
61.2 -0.00101
61.25 -0.00046
61.3 -0.0009
61.35 -0.00155
61.4 -0.00245
61.45 -0.00304
61.5 -0.00235
61.55 -0.00244
61.6 -0.00118
61.65 0.00022
61.7 0.00204
61.75 0.00195
61.8 0.00055
61.85 0.00019
61.9 0.00037
61.95 0.00094
62 0.0002
62.05 -0.00043
62.1 -0.00104
62.15 -0.00074
62.2 -0.00166
62.25 -0.00228
62.3 -0.00358
62.35 -0.00417
62.4 -0.00458
62.45 -0.0035
62.5 -0.00301
62.55 -0.00221
62.6 -0.00049
62.65 0.00125
62.7 0.0034
62.75 0.00554
62.8 0.00733
62.85 0.00786
62.9 0.00668
62.95 0.00519
63 0.00467
63.05 0.00476
63.1 0.00507
63.15 0.00386
63.2 0.00308
63.25 0.0013
63.3 -0.00084
63.35 -0.00303
63.4 -0.00356
63.45 -0.00451
63.5 -0.00591
63.55 -0.00522
63.6 -0.00498
63.65 -0.00347
63.7 -0.00246
63.75 -0.00136
63.8 0.00009
63.85 0.00179
63.9 0.00302
63.95 0.00328
64 0.00401
64.05 0.00488
64.1 0.00551
64.15 0.00595
64.2 0.00605
64.25 0.00668
64.3 0.00637
64.35 0.00638
64.4 0.00469
64.45 0.00288
64.5 0.00171
64.55 0.00138
64.6 0.00139
64.65 0.00228
64.7 0.00133
64.75 0.00029
64.8 -0.00103
64.85 -0.00167
64.9 -0.00305
64.95 -0.00487
65 -0.00612
65.05 -0.00691
65.1 -0.00618
65.15 -0.00605
65.2 -0.00622
65.25 -0.0058
65.3 -0.00602
65.35 -0.00548
65.4 -0.00453
65.45 -0.00357
65.5 -0.00364
65.55 -0.00225
65.6 -0.00151
65.65 -0.00095
65.7 -0.00109
65.75 -0.0014
65.8 -0.00041
65.85 0.0005
65.9 0.00101
65.95 0.00195
66 0.00245
66.05 0.00152
66.1 0.00106
66.15 0.00024
66.2 -0.00046
66.25 -0.0009
66.3 -0.00069
66.35 -0.00011
66.4 -0.00078
66.45 -0.00201
66.5 -0.00193
66.55 -0.0029
66.6 -0.00238
66.65 -0.00104
66.7 0.00066
66.75 0.00195
66.8 0.0017
66.85 0.00027
66.9 -0.00114
66.95 -0.0008
67 -0.00043
67.05 0.00044
67.1 0.00157
67.15 0.0013
67.2 0.00004
67.25 -0.00129
67.3 -0.00109
67.35 -0.00011
67.4 -0.00057
67.45 -0.00145
67.5 -0.00237
67.55 -0.00351
67.6 -0.00473
67.65 -0.00496
67.7 -0.00358
67.75 -0.00172
67.8 -0.00004
67.85 0.00142
67.9 0.00164
67.95 0.00179
68 0.00215
68.05 0.00283
68.1 0.00216
68.15 0.00101
68.2 0.00049
68.25 0.00069
68.3 0.00191
68.35 0.00238
68.4 0.00215
68.45 0.00179
68.5 0.00167
68.55 0.00159
68.6 0.00138
68.65 0.00006
68.7 -0.00056
68.75 -0.00141
68.8 -0.00226
68.85 -0.00334
68.9 -0.00309
68.95 -0.00216
69 -0.00253
69.05 -0.00159
69.1 -0.00179
69.15 -0.00239
69.2 -0.00227
69.25 -0.00107
69.3 -0.00083
69.35 -0.00084
69.4 -0.00132
69.45 -0.00068
69.5 -0.00108
69.55 -0.00038
69.6 -0.00069
69.65 -0.00201
69.7 -0.00283
69.75 -0.004
69.8 -0.00484
69.85 -0.00443
69.9 -0.00286
69.95 -0.00042
70 0.00118
70.05 0.00107
70.1 -0.00008
70.15 -0.00165
70.2 -0.00296
70.25 -0.00336
70.3 -0.00282
70.35 -0.00113
70.4 -0.00088
70.45 -0.00167
70.5 -0.00181
70.55 -0.00066
70.6 0.00128
70.65 0.00316
70.7 0.00383
70.75 0.00293
70.8 0.00304
70.85 0.00322
70.9 0.00399
70.95 0.00338
71 0.00323
71.05 0.00363
71.1 0.00423
71.15 0.0049
71.2 0.00505
71.25 0.00533
71.3 0.00464
71.35 0.00373
71.4 0.00393
71.45 0.00369
71.5 0.0036
71.55 0.00299
71.6 0.00203
71.65 0.0003
71.7 -0.00005
71.75 -0.00101
71.8 -0.00177
71.85 -0.00167
71.9 -0.00048
71.95 0.00053
72 0.00044
72.05 0.001
72.1 0.0001
72.15 -0.0004
72.2 -0.00111
72.25 -0.00184
72.3 -0.0029
72.35 -0.00255
72.4 -0.00324
72.45 -0.00332
72.5 -0.00313
72.55 -0.00353
72.6 -0.00235
72.65 -0.00029
72.7 0.00197
72.75 0.00312
72.8 0.00306
72.85 0.00198
72.9 0.00017
72.95 -0.00105
73 -0.00074
73.05 -0.00041
73.1 -0.00106
73.15 -0.00132
73.2 -0.00096
73.25 -0.00057
73.3 -0.00105
73.35 -0.00221
73.4 -0.00205
73.45 -0.00238
73.5 -0.00163
73.55 -0.00214
73.6 -0.00216
73.65 -0.00293
73.7 -0.00246
73.75 -0.00241
73.8 -0.00176
73.85 -0.00109
73.9 -0.00144
73.95 -0.002
74 -0.00218
74.05 -0.00209
74.1 -0.00161
74.15 -0.00168
74.2 -0.00228
74.25 -0.0036
74.3 -0.00499
74.35 -0.00456
74.4 -0.00463
74.45 -0.00542
74.5 -0.00646
74.55 -0.00639
74.6 -0.00663
74.65 -0.00518
74.7 -0.0048
74.75 -0.00294
74.8 -0.00144
74.85 -0.0009
74.9 0.00035
74.95 0.00044
75 0.00154
75.05 0.00232
75.1 0.00329
75.15 0.00397
75.2 0.00385
75.25 0.00327
75.3 0.00262
75.35 0.00105
75.4 -0.00008
75.45 -0.00124
75.5 -0.00274
75.55 -0.00334
75.6 -0.00445
75.65 -0.00427
75.7 -0.0039
75.75 -0.00223
75.8 -0.0014
75.85 -0.00008
75.9 0.00138
75.95 0.00271
76 0.00341
76.05 0.00249
76.1 0.00102
76.15 0.00011
76.2 -0.0001
76.25 -0.0004
76.3 0.00032
76.35 0.0007
76.4 0.00044
76.45 -0.00085
76.5 -0.00208
76.55 -0.00306
76.6 -0.00434
76.65 -0.00378
76.7 -0.00346
76.75 -0.00174
76.8 -0.001
76.85 0.00027
76.9 0.00218
76.95 0.00388
77 0.00405
77.05 0.00357
77.1 0.00342
77.15 0.00385
77.2 0.00412
77.25 0.0028
77.3 0.00076
77.35 -0.00084
77.4 -0.00074
77.45 -0.00142
77.5 -0.0015
77.55 -0.00074
77.6 -0.00056
77.65 0.00033
77.7 0.00004
77.75 -0.00118
77.8 -0.00222
77.85 -0.00143
77.9 -0.00134
77.95 -0.00125
78 -0.00206
78.05 -0.00211
78.1 -0.0012
78.15 -0
78.2 -0.00005
78.25 -0.00061
78.3 -0.00182
78.35 -0.00357
78.4 -0.00318
78.45 -0.00265
78.5 -0.00101
78.55 -0.00044
78.6 -0.00112
78.65 -0.00164
78.7 -0.00199
78.75 -0.00077
78.8 0.0011
78.85 0.00302
78.9 0.00499
78.95 0.00475
79 0.00472
79.05 0.00492
79.1 0.00486
79.15 0.00459
79.2 0.00329
79.25 0.00263
79.3 0.00179
79.35 0.001
79.4 -0.00066
79.45 -0.00162
79.5 -0.00161
79.55 -0.00258
79.6 -0.00218
79.65 -0.00069
79.7 -0.00025
79.75 0.00089
79.8 0.00069
79.85 0.00016
79.9 -0.00037
79.95 0.0004
80 0.00147
80.05 0.00222
80.1 0.00326
80.15 0.00465
80.2 0.00397
80.25 0.00218
80.3 0.00149
80.35 0.00193
80.4 0.00222
80.45 0.00298
80.5 0.00222
80.55 0.00052
80.6 -0.00017
80.65 -0.00144
80.7 -0.00312
80.75 -0.00288
80.8 -0.00157
80.85 -0.00166
80.9 -0.00087
80.95 -0.00034
81 0.00066
81.05 0.00107
81.1 0.0009
81.15 0.00182
81.2 0.00146
81.25 0.00173
81.3 0.0016
81.35 0.00221
81.4 0.00244
81.45 0.00295
81.5 0.00327
81.55 0.00391
81.6 0.00464
81.65 0.00511
81.7 0.00546
81.75 0.00413
81.8 0.00257
81.85 0.00192
81.9 0.00233
81.95 0.00141
82 0.00058
82.05 -0.00061
82.1 -0.00099
82.15 -0.00147
82.2 -0.00277
82.25 -0.00451
82.3 -0.00468
82.35 -0.00495
82.4 -0.00432
82.45 -0.00259
82.5 -0.00235
82.55 -0.00153
82.6 -0.00174
82.65 -0.00256
82.7 -0.00408
82.75 -0.00576
82.8 -0.00673
82.85 -0.00688
82.9 -0.00627
82.95 -0.00436
83 -0.00287
83.05 -0.00196
83.1 -0.00143
83.15 -0.00177
83.2 -0.00075
83.25 -0.00064
83.3 0.00029
83.35 0.0016
83.4 0.00221
83.45 0.00178
83.5 0.00051
83.55 0.00054
83.6 -0.00014
83.65 -0.00076
83.7 -0.00118
83.75 -0.00085
83.8 -0.00151
83.85 -0.00279
83.9 -0.0032
83.95 -0.00256
84 -0.00171
84.05 -0.00111
84.1 0.0005
84.15 0.00226
84.2 0.00288
84.25 0.00277
84.3 0.00294
84.35 0.00367
84.4 0.00334
84.45 0.0018
84.5 0.00178
84.55 0.00069
84.6 -0.00034
84.65 -0.00151
84.7 -0.00189
84.75 -0.00108
84.8 0.00028
84.85 0.00177
84.9 0.00357
84.95 0.00346
85 0.00236
85.05 0.00198
85.1 0.00051
85.15 -0.00087
85.2 -0.0005
85.25 -0.00114
85.3 -0.0012
85.35 -0.00017
85.4 0.00016
85.45 -0.00004
85.5 -0.00117
85.55 -0.00117
85.6 -0.00223
85.65 -0.0035
85.7 -0.00456
85.75 -0.00514
85.8 -0.00387
85.85 -0.00231
85.9 -0.00015
85.95 0.00081
86 0.00058
86.05 0.00052
86.1 -0.00026
86.15 -0.00106
86.2 -0.00063
86.25 -0.00037
86.3 0.00085
86.35 0.00135
86.4 0.0024
86.45 0.00303
86.5 0.00249
86.55 0.00109
86.6 0.00061
86.65 -0.00056
86.7 -0.00099
86.75 -0.00204
86.8 -0.00237
86.85 -0.00136
86.9 -0.00148
86.95 -0.00078
87 -0.00104
87.05 -0.00015
87.1 -0.00071
87.15 -0.00003
87.2 0.00076
87.25 0.00029
87.3 -0.0003
87.35 0.00012
87.4 0.00017
87.45 0.00018
87.5 0.00117
87.55 0.0008
87.6 0.00163
87.65 0.00196
87.7 0.00143
87.75 0.00151
87.8 0.00168
87.85 0.00109
87.9 0.00004
87.95 -0.00136
88 -0.00104
88.05 -0.00073
88.1 -0.00063
88.15 0.00034
88.2 0.00026
88.25 0.00086
88.3 0.0019
88.35 0.00134
88.4 0.00119
88.45 -0.00003
88.5 0
88.55 0.00069
88.6 0.0006
88.65 0.00084
88.7 -0.00021
88.75 0.00001
88.8 0.00016
88.85 -0.00019
88.9 0.00066
88.95 0.00124
89 0.0009
89.05 -0.00005
89.1 -0.00093
89.15 -0.00052
89.2 -0.00031
89.25 0.00036
89.3 -0.0004
89.35 0.00014
89.4 0.00153
89.45 0.00274
89.5 0.00213
89.55 0.00106
89.6 -0.00053
89.65 -0.00206
89.7 -0.00381
89.75 -0.00394
89.8 -0.00435
89.85 -0.00354
89.9 -0.00357
89.95 -0.00217
90 -0.00139
90.05 -0.0018
90.1 -0.00209
90.15 -0.00252
90.2 -0.00147
90.25 -0.00081
90.3 0.00017
90.35 0.00159
90.4 0.00209
90.45 0.0026
90.5 0.00335
90.55 0.00354
90.6 0.00263
90.65 0.00238
90.7 0.00132
90.75 0.00124
90.8 0.00089
90.85 0.00072
90.9 -0.00039
90.95 -0.00215
91 -0.00359
91.05 -0.00487
91.1 -0.00444
91.15 -0.00412
91.2 -0.0032
91.25 -0.00209
91.3 -0.00199
91.35 -0.00264
91.4 -0.00194
91.45 -0.00127
91.5 0.0004
91.55 0.00053
91.6 -0.00009
91.65 -0.00085
91.7 -0.00034
91.75 0.00125
91.8 0.00329
91.85 0.00392
91.9 0.00496
91.95 0.00628
92 0.00636
92.05 0.00627
92.1 0.00469
92.15 0.00385
92.2 0.00414
92.25 0.00471
92.3 0.00488
92.35 0.00463
92.4 0.00516
92.45 0.00618
92.5 0.00698
92.55 0.00728
92.6 0.00796
92.65 0.00813
92.7 0.00727
92.75 0.00662
92.8 0.00666
92.85 0.00721
92.9 0.00738
92.95 0.00578
93 0.00418
93.05 0.00287
93.1 0.00085
93.15 -0.00038
93.2 -0.00033
93.25 -0.00144
93.3 -0.00314
93.35 -0.00443
93.4 -0.00571
93.45 -0.00666
93.5 -0.00747
93.55 -0.00836
93.6 -0.00734
93.65 -0.00498
93.7 -0.00212
93.75 -0.00023
93.8 0.00134
93.85 0.00166
93.9 0.00149
93.95 0.00072
94 -0.00043
94.05 -0.00173
94.1 -0.00291
94.15 -0.00462
94.2 -0.00555
94.25 -0.00544
94.3 -0.00438
94.35 -0.00226
94.4 -0.00074
94.45 0.00039
94.5 0.00026
94.55 0.00006
94.6 0.00064
94.65 0.00087
94.7 0.00034
94.75 -0.00101
94.8 -0.00111
94.85 -0.00097
94.9 -0.00017
94.95 0.00081
95 0.00114
95.05 0.00229
95.1 0.00383
95.15 0.0036
95.2 0.0033
95.25 0.00341
95.3 0.00409
95.35 0.00364
95.4 0.00232
95.45 0.00025
95.5 -0.00022
95.55 -0.00114
95.6 -0.00154
95.65 -0.001
95.7 -0.00096
95.75 -0.00082
95.8 -0.00103
95.85 -0.00101
95.9 -0.00093
95.95 -0.00118
96 -0.00169
96.05 -0.00279
96.1 -0.00324
96.15 -0.00348
96.2 -0.0029
96.25 -0.00259
96.3 -0.00207
96.35 -0.00074
96.4 0.00004
96.45 0.00055
96.5 0.00093
96.55 0.00053
96.6 -0.00084
96.65 -0.00111
96.7 -0.00048
96.75 0.00094
96.8 0.00241
96.85 0.00279
96.9 0.00156
96.95 0.00062
97 -0.00088
97.05 -0.00152
97.1 -0.00245
97.15 -0.00402
97.2 -0.0055
97.25 -0.00707
97.3 -0.00665
97.35 -0.00561
97.4 -0.0044
97.45 -0.00238
97.5 -0.00031
97.55 -0.00013
97.6 -0.00108
97.65 -0.00119
97.7 -0.0002
97.75 0.00071
97.8 0.00206
97.85 0.00185
97.9 0.00183
97.95 0.00254
98 0.0026
98.05 0.00314
98.1 0.00287
98.15 0.00276
98.2 0.00256
98.25 0.00147
98.3 0.00081
98.35 0.00143
98.4 0.00097
98.45 0.00045
98.5 0.00114
98.55 0.0024
98.6 0.00341
98.65 0.00352
98.7 0.00211
98.75 0.00125
98.8 -0.00052
98.85 -0.0005
98.9 0.00041
98.95 0.00103
99 0.00106
99.05 0.00142
99.1 0.00198
99.15 0.00307
99.2 0.00249
99.25 0.00256
99.3 0.00209
99.35 0.00143
99.4 0.00029
99.45 -0.0006
99.5 -0.00006
99.55 0.00001
99.6 -0.00069
99.65 -0.00154
99.7 -0.00312
99.75 -0.00452
99.8 -0.00461
99.85 -0.00405
99.9 -0.00379
99.95 -0.00378
