0 0
0.05 0.00672
0.1 0.0193
0.15 0.02664
0.2 0.03589
0.25 0.0469
0.3 0.05114
0.35 0.05039
0.4 0.05061
0.45 0.04953
0.5 0.05313
0.55 0.05184
0.6 0.05215
0.65 0.05071
0.7 0.04871
0.75 0.05148
0.8 0.05113
0.85 0.05334
0.9 0.05028
0.95 0.05154
1 0.05259
1.05 0.05689
1.1 0.05575
1.15 0.05111
1.2 0.04744
1.25 0.04184
1.3 0.04103
1.35 0.04294
1.4 0.04017
1.45 0.03365
1.5 0.0289
1.55 0.02385
1.6 0.0196
1.65 0.01988
1.7 0.02293
1.75 0.03001
1.8 0.03864
1.85 0.04455
1.9 0.05142
1.95 0.05582
2 0.06057
2.05 0.05722
2.1 0.05419
2.15 0.04706
2.2 0.03839
2.25 0.02931
2.3 0.02353
2.35 0.02209
2.4 0.02329
2.45 0.0271
2.5 0.03328
2.55 0.03558
2.6 0.03976
2.65 0.03865
2.7 0.03904
2.75 0.03417
2.8 0.03379
2.85 0.03698
2.9 0.03494
2.95 0.03463
3 0.03363
3.05 0.02856
3.1 0.02805
3.15 0.02567
3.2 0.02763
3.25 0.03058
3.3 0.02916
3.35 0.02857
3.4 0.02999
3.45 0.026
3.5 0.0263
3.55 0.02208
3.6 0.01618
3.65 0.01599
3.7 0.01264
3.75 0.01462
3.8 0.01545
3.85 0.01165
3.9 0.01154
3.95 0.01292
4 0.01683
4.05 0.01492
4.1 0.01142
4.15 0.01023
4.2 0.01282
4.25 0.01465
4.3 0.01637
4.35 0.01711
4.4 0.00975
4.45 0.00283
4.5 -0.00487
4.55 -0.01739
4.6 -0.02966
4.65 -0.04237
4.7 -0.05505
4.75 -0.07225
4.8 -0.09564
4.85 -0.11756
4.9 -0.14171
4.95 -0.16962
5 -0.20361
5.05 -0.23882
5.1 -0.27606
5.15 -0.31185
5.2 -0.35293
5.25 -0.39919
5.3 -0.45254
5.35 -0.50278
5.4 -0.55387
5.45 -0.60667
5.5 -0.66295
5.55 -0.71554
5.6 -0.76424
5.65 -0.81038
5.7 -0.8492
5.75 -0.87469
5.8 -0.88968
5.85 -0.89624
5.9 -0.89881
5.95 -0.89516
6 -0.88095
6.05 -0.85981
6.1 -0.83288
6.15 -0.80261
6.2 -0.76398
6.25 -0.72284
6.3 -0.67565
6.35 -0.62567
6.4 -0.5742
6.45 -0.52092
6.5 -0.47102
6.55 -0.42112
6.6 -0.37469
6.65 -0.32687
6.7 -0.27675
6.75 -0.22817
6.8 -0.18042
6.85 -0.13512
6.9 -0.09344
6.95 -0.04806
7 -0.00541
7.05 0.04081
7.1 0.0887
7.15 0.13228
7.2 0.17261
7.25 0.21016
7.3 0.25235
7.35 0.29394
7.4 0.33858
7.45 0.3805
7.5 0.42531
7.55 0.46696
7.6 0.50269
7.65 0.54132
7.7 0.57966
7.75 0.61845
7.8 0.65256
7.85 0.68212
7.9 0.70969
7.95 0.72937
8 0.74819
8.05 0.76217
8.1 0.77059
8.15 0.77426
8.2 0.77552
8.25 0.78236
8.3 0.78612
8.35 0.78859
8.4 0.79348
8.45 0.78991
8.5 0.78015
8.55 0.77252
8.6 0.75869
8.65 0.74812
8.7 0.73247
8.75 0.71744
8.8 0.69688
8.85 0.67713
8.9 0.65854
8.95 0.64161
9 0.62068
9.05 0.59498
9.1 0.57281
9.15 0.54679
9.2 0.52299
9.25 0.50172
9.3 0.47409
9.35 0.44442
9.4 0.42136
9.45 0.39891
9.5 0.3739
9.55 0.34803
9.6 0.32435
9.65 0.30085
9.7 0.28342
9.75 0.26389
9.8 0.2463
9.85 0.23349
9.9 0.21826
9.95 0.20827
10 0.19759
10.05 0.19142
10.1 0.18025
10.15 0.1724
10.2 0.16142
10.25 0.1538
10.3 0.14573
10.35 0.13309
10.4 0.12393
10.45 0.11359
10.5 0.10824
10.55 0.09786
10.6 0.08391
10.65 0.07067
10.7 0.06425
10.75 0.05951
10.8 0.05731
10.85 0.05469
10.9 0.05052
10.95 0.04932
11 0.04554
11.05 0.04165
11.1 0.0321
11.15 0.02332
11.2 0.01331
11.25 0.00397
11.3 -0.00936
11.35 -0.01594
11.4 -0.02432
11.45 -0.03285
11.5 -0.03527
11.55 -0.04007
11.6 -0.0418
11.65 -0.04652
11.7 -0.05444
11.75 -0.05765
11.8 -0.0639
11.85 -0.0712
11.9 -0.08024
11.95 -0.09032
12 -0.09713
12.05 -0.09662
12.1 -0.09368
12.15 -0.09137
12.2 -0.09254
12.25 -0.0932
12.3 -0.09473
12.35 -0.0929
12.4 -0.08768
12.45 -0.0815
12.5 -0.08132
12.55 -0.08509
12.6 -0.09307
12.65 -0.09723
12.7 -0.10301
12.75 -0.10513
12.8 -0.10742
12.85 -0.10923
12.9 -0.11293
12.95 -0.11541
13 -0.11629
13.05 -0.11938
13.1 -0.12186
13.15 -0.11741
13.2 -0.11226
13.25 -0.1047
13.3 -0.10134
13.35 -0.10082
13.4 -0.10312
13.45 -0.09936
13.5 -0.09633
13.55 -0.0934
13.6 -0.08615
13.65 -0.08141
13.7 -0.07961
13.75 -0.08291
13.8 -0.08619
13.85 -0.08888
13.9 -0.09263
13.95 -0.09672
14 -0.10147
14.05 -0.09898
14.1 -0.09247
14.15 -0.09063
14.2 -0.08697
14.25 -0.07899
14.3 -0.07265
14.35 -0.06358
14.4 -0.05747
14.45 -0.05625
14.5 -0.05326
14.55 -0.05183
14.6 -0.05334
14.65 -0.05417
14.7 -0.05725
14.75 -0.06288
14.8 -0.06178
14.85 -0.06253
14.9 -0.05977
14.95 -0.05971
15 -0.0639
15.05 -0.06133
15.1 -0.06113
15.15 -0.06212
15.2 -0.06628
15.25 -0.06457
15.3 -0.06566
15.35 -0.06377
15.4 -0.06558
15.45 -0.0643
15.5 -0.0648
15.55 -0.06554
15.6 -0.06566
15.65 -0.06119
15.7 -0.05799
15.75 -0.05666
15.8 -0.05119
15.85 -0.05115
15.9 -0.05136
15.95 -0.04891
16 -0.04755
16.05 -0.04698
16.1 -0.04838
16.15 -0.05051
16.2 -0.05083
16.25 -0.05077
16.3 -0.04703
16.35 -0.04134
16.4 -0.04078
16.45 -0.04335
16.5 -0.0404
16.55 -0.04236
16.6 -0.04134
16.65 -0.03777
16.7 -0.03563
16.75 -0.02909
16.8 -0.02038
16.85 -0.01527
16.9 -0.00982
16.95 -0.01018
17 -0.00813
17.05 -0.00405
17.1 -0.00678
17.15 -0.00788
17.2 -0.01194
17.25 -0.01616
17.3 -0.02232
17.35 -0.02825
17.4 -0.03545
17.45 -0.03561
17.5 -0.03113
17.55 -0.02391
17.6 -0.01712
17.65 -0.00939
17.7 -0.00926
17.75 -0.007
17.8 -0.01138
17.85 -0.01493
17.9 -0.0193
17.95 -0.02005
18 -0.01829
18.05 -0.01957
18.1 -0.01723
18.15 -0.01762
18.2 -0.02131
18.25 -0.02068
18.3 -0.01907
18.35 -0.01916
18.4 -0.01939
18.45 -0.02415
18.5 -0.0238
18.55 -0.02226
18.6 -0.0247
18.65 -0.02985
18.7 -0.03525
18.75 -0.0395
18.8 -0.0371
18.85 -0.03457
18.9 -0.03382
18.95 -0.03251
19 -0.02789
19.05 -0.02705
19.1 -0.0296
19.15 -0.02857
19.2 -0.03014
19.25 -0.03277
19.3 -0.03358
19.35 -0.02818
19.4 -0.02446
19.45 -0.02256
19.5 -0.02087
19.55 -0.02071
19.6 -0.01977
19.65 -0.02229
19.7 -0.01891
19.75 -0.01882
19.8 -0.01841
19.85 -0.01914
19.9 -0.01416
19.95 -0.00902
20 -0.00158
20.05 -0.00148
20.1 0.00264
20.15 0.00278
20.2 0.00117
20.25 -0.00196
20.3 -0.00896
20.35 -0.01001
20.4 -0.00935
20.45 -0.00467
20.5 -0.00623
20.55 -0.01049
20.6 -0.01607
20.65 -0.01698
20.7 -0.01812
20.75 -0.02203
20.8 -0.02072
20.85 -0.01999
20.9 -0.01451
20.95 -0.01445
21 -0.01153
21.05 -0.01317
21.1 -0.01138
21.15 -0.00927
21.2 -0.00752
21.25 -0.00861
21.3 -0.00794
21.35 -0.00772
21.4 -0.00828
21.45 -0.00834
21.5 -0.01048
21.55 -0.01126
21.6 -0.01325
21.65 -0.01362
21.7 -0.01467
21.75 -0.01521
21.8 -0.01566
21.85 -0.01366
21.9 -0.0136
21.95 -0.01218
22 -0.00869
22.05 -0.00221
22.1 -0.00218
22.15 -0.00624
22.2 -0.00677
22.25 -0.01017
22.3 -0.00726
22.35 -0.00514
22.4 -0.00756
22.45 -0.01236
22.5 -0.01579
22.55 -0.01451
22.6 -0.00944
22.65 -0.00186
22.7 -0.00109
22.75 0.00186
22.8 0.00711
22.85 0.01078
22.9 0.01338
22.95 0.01173
23 0.01043
23.05 0.00656
23.1 0.00398
23.15 0.00324
23.2 -0.00225
23.25 -0.00927
23.3 -0.01434
23.35 -0.01403
23.4 -0.01026
23.45 -0.00724
23.5 -0.00134
23.55 -0.00185
23.6 -0.00368
23.65 -0.0087
23.7 -0.01544
23.75 -0.01761
23.8 -0.01404
23.85 -0.00836
23.9 -0.00781
23.95 -0.007
24 -0.00818
24.05 -0.00484
24.1 -0.00112
24.15 0.00392
24.2 0.00366
24.25 -0.00077
24.3 -0.00205
24.35 0.00041
24.4 -0.00137
24.45 -0.00694
24.5 -0.00572
24.55 -0.00213
24.6 -0.00228
24.65 -0.00058
24.7 0.00114
24.75 0.0029
24.8 0.00447
24.85 0.00777
24.9 0.00647
24.95 0.0019
25 -0.00286
25.05 -0.0082
25.1 -0.0068
25.15 -0.00256
25.2 -0.00255
25.25 -0.00158
25.3 0.00118
25.35 0.00159
25.4 -0.00218
25.45 -0.00241
25.5 -0.00185
25.55 -0.00402
25.6 -0.00649
25.65 -0.00411
25.7 -0.00428
25.75 -0.00208
25.8 -0.00336
25.85 -0.00421
25.9 -0.00415
25.95 -0.00012
26 0.00622
26.05 0.00843
26.1 0.00476
26.15 0.00326
26.2 -0.00079
26.25 -0.00262
26.3 -0.00382
26.35 -0.00398
26.4 -0.00046
26.45 -0.00265
26.5 -0.00316
26.55 -0.00469
26.6 -0.00389
26.65 0.00094
26.7 0.00639
26.75 0.00792
26.8 0.0094
26.85 0.01181
26.9 0.01441
26.95 0.01548
27 0.01136
27.05 0.00697
27.1 0.00419
27.15 -0.00282
27.2 -0.00964
27.25 -0.01812
27.3 -0.02488
27.35 -0.02753
27.4 -0.02375
27.45 -0.024
27.5 -0.02829
27.55 -0.03398
27.6 -0.03435
27.65 -0.04001
27.7 -0.04537
27.75 -0.05147
27.8 -0.05783
27.85 -0.06307
27.9 -0.07049
27.95 -0.07996
28 -0.08946
28.05 -0.10445
28.1 -0.12783
28.15 -0.15541
28.2 -0.18613
28.25 -0.21722
28.3 -0.25616
28.35 -0.295
28.4 -0.33977
28.45 -0.38393
28.5 -0.43048
28.55 -0.48195
28.6 -0.54055
28.65 -0.60739
28.7 -0.68174
28.75 -0.75883
28.8 -0.83754
28.85 -0.91692
28.9 -1.00024
28.95 -1.07705
29 -1.1581
29.05 -1.23543
29.1 -1.31509
29.15 -1.39139
29.2 -1.46606
29.25 -1.53482
29.3 -1.59478
29.35 -1.64724
29.4 -1.69981
29.45 -1.74728
29.5 -1.79008
29.55 -1.82131
29.6 -1.84494
29.65 -1.86
29.7 -1.8648
29.75 -1.85832
29.8 -1.84456
29.85 -1.81698
29.9 -1.77613
29.95 -1.7254
30 -1.67013
30.05 -1.61085
30.1 -1.54191
30.15 -1.46395
30.2 -1.37968
30.25 -1.28981
30.3 -1.18936
30.35 -1.08071
30.4 -0.97246
30.45 -0.85706
30.5 -0.73673
30.55 -0.61677
30.6 -0.49538
30.65 -0.37021
30.7 -0.24289
30.75 -0.12315
30.8 -0.00109
30.85 0.11585
30.9 0.2317
30.95 0.34005
31 0.44362
31.05 0.53923
31.1 0.62897
31.15 0.71653
31.2 0.79755
31.25 0.87929
31.3 0.95529
31.35 1.02993
31.4 1.09716
31.45 1.15757
31.5 1.21469
31.55 1.27178
31.6 1.32202
31.65 1.36692
31.7 1.40205
31.75 1.42889
31.8 1.45043
31.85 1.47112
31.9 1.49409
31.95 1.51273
32 1.5304
32.05 1.55042
32.1 1.56616
32.15 1.57644
32.2 1.58126
32.25 1.58555
32.3 1.59076
32.35 1.59763
32.4 1.60143
32.45 1.59836
32.5 1.59029
32.55 1.58192
32.6 1.5759
32.65 1.56488
32.7 1.55337
32.75 1.54477
32.8 1.53136
32.85 1.51967
32.9 1.50255
32.95 1.4792
33 1.45704
33.05 1.43356
33.1 1.41085
33.15 1.38476
33.2 1.35312
33.25 1.32629
33.3 1.29865
33.35 1.26766
33.4 1.23605
33.45 1.201
33.5 1.16868
33.55 1.13116
33.6 1.09255
33.65 1.05642
33.7 1.01977
33.75 0.98279
33.8 0.94251
33.85 0.89851
33.9 0.85331
33.95 0.80621
34 0.75988
34.05 0.71982
34.1 0.68267
34.15 0.64993
34.2 0.61791
34.25 0.58357
34.3 0.55101
34.35 0.51699
34.4 0.47959
34.45 0.44246
34.5 0.41211
34.55 0.38541
34.6 0.35673
34.65 0.3264
34.7 0.29884
34.75 0.27256
34.8 0.24065
34.85 0.20543
34.9 0.17073
34.95 0.13786
35 0.11057
35.05 0.08546
35.1 0.05923
35.15 0.03864
35.2 0.02263
35.25 0.00774
35.3 -0.01015
35.35 -0.03039
35.4 -0.04803
35.45 -0.06143
35.5 -0.07333
35.55 -0.08932
35.6 -0.10287
35.65 -0.11932
35.7 -0.13348
35.75 -0.14485
35.8 -0.15727
35.85 -0.17098
35.9 -0.18305
35.95 -0.19534
36 -0.20273
36.05 -0.212
36.1 -0.2177
36.15 -0.2196
36.2 -0.22777
36.25 -0.23163
36.3 -0.23919
36.35 -0.24836
36.4 -0.25211
36.45 -0.2555
36.5 -0.25557
36.55 -0.2547
36.6 -0.25731
36.65 -0.26457
36.7 -0.27176
36.75 -0.28009
36.8 -0.28062
36.85 -0.28261
36.9 -0.28037
36.95 -0.28145
37 -0.2777
37.05 -0.27398
37.1 -0.27468
37.15 -0.27914
37.2 -0.28152
37.25 -0.27967
37.3 -0.27719
37.35 -0.27034
37.4 -0.26782
37.45 -0.26145
37.5 -0.25368
37.55 -0.24865
37.6 -0.24275
37.65 -0.24075
37.7 -0.24088
37.75 -0.24098
37.8 -0.24553
37.85 -0.24433
37.9 -0.24291
37.95 -0.23732
38 -0.23716
38.05 -0.23528
38.1 -0.23669
38.15 -0.23379
38.2 -0.22777
38.25 -0.22149
38.3 -0.21421
38.35 -0.21264
38.4 -0.21189
38.45 -0.20919
38.5 -0.20837
38.55 -0.20575
38.6 -0.19964
38.65 -0.19358
38.7 -0.18956
38.75 -0.18426
38.8 -0.17882
38.85 -0.1766
38.9 -0.17423
38.95 -0.17172
39 -0.17374
39.05 -0.17645
39.1 -0.18144
39.15 -0.18377
39.2 -0.18396
39.25 -0.18337
39.3 -0.18155
39.35 -0.18017
39.4 -0.17394
39.45 -0.17218
39.5 -0.16513
39.55 -0.1602
39.6 -0.15165
39.65 -0.14552
39.7 -0.14533
39.75 -0.14507
39.8 -0.14038
39.85 -0.13978
39.9 -0.143
39.95 -0.1435
40 -0.14664
40.05 -0.1511
40.1 -0.15273
40.15 -0.15348
40.2 -0.1518
40.25 -0.1491
40.3 -0.14504
40.35 -0.14248
40.4 -0.13469
40.45 -0.1247
40.5 -0.11248
40.55 -0.10595
40.6 -0.10168
40.65 -0.09706
40.7 -0.09486
40.75 -0.09405
40.8 -0.09125
40.85 -0.08716
40.9 -0.08579
40.95 -0.08761
41 -0.08817
41.05 -0.08516
41.1 -0.08415
41.15 -0.08727
41.2 -0.08499
41.25 -0.08337
41.3 -0.08415
41.35 -0.08227
41.4 -0.08477
41.45 -0.08428
41.5 -0.08844
41.55 -0.09448
41.6 -0.09672
41.65 -0.09972
41.7 -0.09539
41.75 -0.09263
41.8 -0.08938
41.85 -0.08182
41.9 -0.07754
41.95 -0.07178
42 -0.06786
42.05 -0.0644
42.1 -0.06705
42.15 -0.0719
42.2 -0.07406
42.25 -0.0728
42.3 -0.0683
42.35 -0.06802
42.4 -0.06739
42.45 -0.06371
42.5 -0.05942
42.55 -0.05552
42.6 -0.05154
42.65 -0.05171
42.7 -0.05397
42.75 -0.05615
42.8 -0.05515
42.85 -0.05521
42.9 -0.05305
42.95 -0.05145
43 -0.04648
43.05 -0.04578
43.1 -0.04852
43.15 -0.05163
43.2 -0.0492
43.25 -0.04426
43.3 -0.03881
43.35 -0.04042
43.4 -0.04437
43.45 -0.0436
43.5 -0.04496
43.55 -0.04127
43.6 -0.03479
43.65 -0.03265
43.7 -0.03012
43.75 -0.02829
43.8 -0.02967
43.85 -0.02835
43.9 -0.02777
43.95 -0.03169
44 -0.0367
44.05 -0.04152
44.1 -0.04041
44.15 -0.04031
44.2 -0.04163
44.25 -0.04377
44.3 -0.04143
44.35 -0.04162
44.4 -0.04506
44.45 -0.04506
44.5 -0.0415
44.55 -0.03795
44.6 -0.03693
44.65 -0.0389
44.7 -0.03928
44.75 -0.03863
44.8 -0.03466
44.85 -0.02781
44.9 -0.02091
44.95 -0.01265
45 -0.01035
45.05 -0.01244
45.1 -0.01351
45.15 -0.01809
45.2 -0.02505
45.25 -0.02733
45.3 -0.02415
45.35 -0.0237
45.4 -0.02814
45.45 -0.03093
45.5 -0.03638
45.55 -0.04259
45.6 -0.04448
45.65 -0.04116
45.7 -0.0354
45.75 -0.0264
45.8 -0.01794
45.85 -0.0117
45.9 -0.00846
45.95 -0.0048
46 -0.00448
46.05 -0.00702
46.1 -0.00651
46.15 -0.00958
46.2 -0.01179
46.25 -0.01599
46.3 -0.02354
46.35 -0.02706
46.4 -0.03147
46.45 -0.03665
46.5 -0.03431
46.55 -0.03616
46.6 -0.03519
46.65 -0.03077
46.7 -0.02557
46.75 -0.02152
46.8 -0.01909
46.85 -0.01382
46.9 -0.01384
46.95 -0.01761
47 -0.02435
47.05 -0.02592
47.1 -0.02328
47.15 -0.01683
47.2 -0.00843
47.25 -0.00409
47.3 -0.00022
47.35 -0.00299
47.4 -0.00751
47.45 -0.01115
47.5 -0.01578
47.55 -0.01614
47.6 -0.01675
47.65 -0.01861
47.7 -0.02213
47.75 -0.0266
47.8 -0.03045
47.85 -0.0294
47.9 -0.02303
47.95 -0.01791
48 -0.01688
48.05 -0.01526
48.1 -0.01688
48.15 -0.02173
48.2 -0.02241
48.25 -0.02495
48.3 -0.02806
48.35 -0.02599
48.4 -0.01906
48.45 -0.01
48.5 -0.00171
48.55 0.00011
48.6 0.00351
48.65 0.0059
48.7 0.00498
48.75 0.00142
48.8 -0.00093
48.85 -0.00311
48.9 -0.00799
48.95 -0.00948
49 -0.00736
49.05 -0.00692
49.1 -0.00253
49.15 -0.00177
49.2 0.00079
49.25 -0.00249
49.3 -0.00574
49.35 -0.00375
49.4 -0.00288
49.45 -0.0008
49.5 -0.00291
49.55 -0.00877
49.6 -0.01206
49.65 -0.0179
49.7 -0.01948
49.75 -0.01959
49.8 -0.02052
49.85 -0.01571
49.9 -0.01406
49.95 -0.01533
50 -0.01079
50.05 -0.00346
50.1 0.00243
50.15 0.00968
50.2 0.01593
50.25 0.02209
50.3 0.02209
50.35 0.01768
50.4 0.01097
50.45 0.00266
50.5 0.00123
50.55 0.00231
50.6 0.00176
50.65 -0.00264
50.7 -0.00918
50.75 -0.01642
50.8 -0.02153
50.85 -0.02363
50.9 -0.02616
50.95 -0.02491
51 -0.02264
51.05 -0.01661
51.1 -0.00905
51.15 -0.00517
51.2 -0.00238
51.25 -0.00351
51.3 -0.00684
51.35 -0.00654
51.4 -0.00563
51.45 -0.00377
51.5 -0.00629
51.55 -0.00395
51.6 0.0008
51.65 -0.0003
51.7 -0.00279
51.75 -0.00283
51.8 -0.00315
51.85 -0.00205
51.9 -0.00176
51.95 -0.00233
52 -0.00542
52.05 -0.00748
52.1 -0.00556
52.15 -0.00329
52.2 -0.00107
52.25 0.0013
52.3 -0.00044
52.35 -0.00091
52.4 -0.00051
52.45 0.00043
52.5 -0.00146
52.55 0.00178
52.6 0.0014
52.65 -0.0006
52.7 0.00131
52.75 0.00175
52.8 -0.00026
52.85 -0.00381
52.9 -0.00715
52.95 -0.00533
53 -0.00451
53.05 -0.0047
53.1 -0.00925
53.15 -0.00732
53.2 -0.00313
53.25 0.0041
53.3 0.00819
53.35 0.01103
53.4 0.01366
53.45 0.01084
53.5 0.00539
53.55 0.0057
53.6 0.00552
53.65 0.00262
53.7 -0.00138
53.75 -0.00077
53.8 -0.00491
53.85 -0.00856
53.9 -0.00995
53.95 -0.01141
54 -0.0153
54.05 -0.01703
54.1 -0.01709
54.15 -0.01718
54.2 -0.01279
54.25 -0.00562
54.3 0.00058
54.35 0.00087
54.4 -0.00246
54.45 -0.00378
54.5 -0.00906
54.55 -0.00924
54.6 -0.00675
54.65 -0.00684
54.7 -0.00945
54.75 -0.01118
54.8 -0.01421
54.85 -0.01759
54.9 -0.01478
54.95 -0.01293
55 -0.01016
55.05 -0.00696
55.1 -0.00448
55.15 -0.00439
55.2 -0.00302
55.25 0.00139
55.3 0.00849
55.35 0.01274
55.4 0.01465
55.45 0.01081
55.5 0.005
55.55 -0.00109
55.6 -0.00474
55.65 -0.00683
55.7 -0.00858
55.75 -0.00923
55.8 -0.01133
55.85 -0.0137
55.9 -0.01062
55.95 -0.01209
56 -0.01424
56.05 -0.00985
56.1 -0.00354
56.15 -0.00175
56.2 0.00393
56.25 0.00347
56.3 0.0067
56.35 0.01111
56.4 0.01042
56.45 0.00776
56.5 0.00296
56.55 -0.00133
56.6 -0.00834
56.65 -0.01605
56.7 -0.01973
56.75 -0.01893
56.8 -0.01993
56.85 -0.01686
56.9 -0.01047
56.95 -0.00317
57 0.00081
57.05 0.00311
57.1 0.00589
57.15 0.00513
57.2 0.0052
57.25 0.00846
57.3 0.0135
57.35 0.01755
57.4 0.01608
57.45 0.01728
57.5 0.01524
57.55 0.00841
57.6 0.0044
57.65 0.00404
57.7 0.00501
57.75 0.00596
57.8 0.01056
57.85 0.00931
57.9 0.01204
57.95 0.01544
58 0.01495
58.05 0.01756
58.1 0.02006
58.15 0.02279
58.2 0.02038
58.25 0.02041
58.3 0.01441
58.35 0.00612
58.4 0.00442
58.45 -0.00063
58.5 -0.00291
58.55 -0.00219
58.6 -0.00188
58.65 -0.00368
58.7 -0.00353
58.75 -0.00176
58.8 0.00025
58.85 0.00073
58.9 -0.00306
58.95 -0.00525
59 -0.00212
59.05 0.00191
59.1 0.00729
59.15 0.01304
59.2 0.01224
59.25 0.01212
59.3 0.01179
59.35 0.00995
59.4 0.00593
59.45 0.00579
59.5 0.00309
59.55 -0.00301
59.6 -0.00642
59.65 -0.01254
59.7 -0.01449
59.75 -0.0137
59.8 -0.01668
59.85 -0.02066
59.9 -0.02479
59.95 -0.02932
60 -0.02944
60.05 -0.02343
60.1 -0.01968
60.15 -0.01617
60.2 -0.0126
60.25 -0.00643
60.3 -0.00019
60.35 0.0071
60.4 0.01533
60.45 0.0196
60.5 0.02191
60.55 0.01848
60.6 0.01109
60.65 0.00481
60.7 -0.00297
60.75 -0.00464
60.8 -0.00723
60.85 -0.01113
60.9 -0.01168
60.95 -0.0087
61 -0.00994
61.05 -0.00861
61.1 -0.0031
61.15 0.00173
61.2 0.00342
61.25 0.00569
61.3 0.00904
61.35 0.01352
61.4 0.01209
61.45 0.00876
61.5 0.00603
61.55 0.00116
61.6 -0.00409
61.65 -0.01059
61.7 -0.01406
61.75 -0.01893
61.8 -0.02221
61.85 -0.0245
61.9 -0.02278
61.95 -0.01559
62 -0.01415
62.05 -0.01328
62.1 -0.01559
62.15 -0.01386
62.2 -0.0157
62.25 -0.01119
62.3 -0.00796
62.35 -0.0079
62.4 -0.00724
62.45 -0.00912
62.5 -0.00516
62.55 0.00203
62.6 0.00327
62.65 0.00228
62.7 -0.00228
62.75 -0.00047
62.8 0.00126
62.85 0.0048
62.9 0.01124
62.95 0.01215
63 0.01351
63.05 0.01556
63.1 0.01706
63.15 0.01868
63.2 0.02015
63.25 0.01981
63.3 0.01766
63.35 0.01015
63.4 0.00689
63.45 0.00741
63.5 0.00441
63.55 0.00562
63.6 0.00387
63.65 0.00147
63.7 -0.00023
63.75 -0.00602
63.8 -0.01039
63.85 -0.00997
63.9 -0.00577
63.95 -0.00494
64 -0.00726
64.05 -0.00782
64.1 -0.00586
64.15 -0.00415
64.2 -0.00467
64.25 -0.00555
64.3 -0.00449
64.35 -0.0081
64.4 -0.00847
64.45 -0.00976
64.5 -0.01226
64.55 -0.01672
64.6 -0.01573
64.65 -0.01748
64.7 -0.02109
64.75 -0.01703
64.8 -0.01742
64.85 -0.01281
64.9 -0.01071
64.95 -0.0056
65 -0.0013
65.05 0.00264
65.1 0.00359
65.15 0.00591
65.2 0.00884
65.25 0.00754
65.3 0.0075
65.35 0.00638
65.4 0.00746
65.45 0.00522
65.5 0.00231
65.55 -0.0034
65.6 -0.00213
65.65 -0.00153
65.7 -0.00184
65.75 0.0009
65.8 0.00692
65.85 0.01385
65.9 0.01941
65.95 0.0244
66 0.02185
66.05 0.0203
66.1 0.01495
66.15 0.00724
66.2 -0.00093
66.25 -0.00287
66.3 -0.00167
66.35 0.00346
66.4 0.01011
66.45 0.013
66.5 0.00971
66.55 0.0092
66.6 0.00811
66.65 0.01074
66.7 0.00859
66.75 0.00268
66.8 -0.00374
66.85 -0.00825
66.9 -0.00698
66.95 -0.00649
67 -0.00303
67.05 -0.00168
67.1 0.00327
67.15 0.00498
67.2 0.00293
67.25 0.00178
67.3 -0.0016
67.35 0.00059
67.4 0.00631
67.45 0.00667
67.5 0.00916
67.55 0.0139
67.6 0.01558
67.65 0.01368
67.7 0.00826
67.75 0.0019
67.8 -0.00573
67.85 -0.01241
67.9 -0.01246
67.95 -0.0105
68 -0.00744
68.05 -0.00597
68.1 -0.00199
68.15 0.00086
68.2 -0.00181
68.25 -0.00662
68.3 -0.00548
68.35 -0.00682
68.4 -0.00329
68.45 0.00331
68.5 0.01032
68.55 0.01296
68.6 0.01369
68.65 0.01465
68.7 0.01596
68.75 0.01578
68.8 0.01347
68.85 0.01131
68.9 0.0056
68.95 -0.00053
69 -0.00245
69.05 -0.00363
69.1 -0.00331
69.15 -0.00164
69.2 0.00375
69.25 0.00693
69.3 0.00376
69.35 0.00247
69.4 0.00417
69.45 0.00067
69.5 0.00069
69.55 0.00184
69.6 -0.00006
69.65 -0.0013
69.7 -0.00682
69.75 -0.00619
69.8 -0.00272
69.85 -0.00248
69.9 -0.00494
69.95 -0.00386
70 -0.00098
70.05 0.00078
70.1 -0.00294
70.15 -0.00861
70.2 -0.00922
70.25 -0.01132
70.3 -0.009
70.35 -0.01089
70.4 -0.01243
70.45 -0.01639
70.5 -0.01858
70.55 -0.01665
70.6 -0.01501
70.65 -0.00839
70.7 -0.00204
70.75 0.00459
70.8 0.00376
70.85 0.00394
70.9 0.0042
70.95 0.00665
71 0.01022
71.05 0.00817
71.1 0.00368
71.15 0.00032
71.2 -0.00354
71.25 -0.00184
71.3 -0.00461
71.35 -0.01031
71.4 -0.01152
71.45 -0.0143
71.5 -0.01361
71.55 -0.01582
71.6 -0.01961
71.65 -0.0215
71.7 -0.01928
71.75 -0.02089
71.8 -0.01626
71.85 -0.01435
71.9 -0.01658
71.95 -0.02003
72 -0.0227
72.05 -0.02126
72.1 -0.02049
72.15 -0.0189
72.2 -0.01483
72.25 -0.00904
72.3 0.00009
72.35 0.00598
72.4 0.00852
72.45 0.00783
72.5 0.00322
72.55 0.00191
72.6 -0.0005
72.65 -0.00114
72.7 0.00227
72.75 0.00436
72.8 0.0057
72.85 0.00743
72.9 0.00839
72.95 0.0114
73 0.0078
73.05 0.00849
73.1 0.00961
73.15 0.00507
73.2 0.00215
73.25 -0.00088
73.3 -0.00599
73.35 -0.00597
73.4 -0.00992
73.45 -0.0115
73.5 -0.00784
73.55 -0.00583
73.6 -0.00835
73.65 -0.00518
73.7 -0.00578
73.75 -0.00937
73.8 -0.0125
73.85 -0.01307
73.9 -0.00847
73.95 -0.00395
74 -0.00049
74.05 0.00036
74.1 -0.0009
74.15 0.00266
74.2 0.00065
74.25 0.00362
74.3 0.00898
74.35 0.01148
74.4 0.01483
74.45 0.01593
74.5 0.01682
74.55 0.01569
74.6 0.01812
74.65 0.01462
74.7 0.00855
74.75 0.00286
74.8 -0.00222
74.85 -0.00871
74.9 -0.01528
74.95 -0.01691
75 -0.01207
75.05 -0.00811
75.1 -0.0069
75.15 -0.00828
75.2 -0.01131
75.25 -0.01163
75.3 -0.00857
75.35 -0.01028
75.4 -0.00908
75.45 -0.00874
75.5 -0.00975
75.55 -0.00673
75.6 -0.00187
75.65 -0.00028
75.7 -0.00218
75.75 -0.00303
75.8 -0.00026
75.85 0.00508
75.9 0.00394
75.95 0.0019
76 0.00158
76.05 0.00145
76.1 0.00045
76.15 -0.00048
76.2 -0.00158
76.25 -0.00397
76.3 -0.00322
76.35 -0.00471
76.4 -0.00052
76.45 0.00246
76.5 0.00539
76.55 0.00425
76.6 -0.00001
76.65 -0.00349
76.7 -0.00308
76.75 0.00143
76.8 0.00552
76.85 0.00958
76.9 0.01168
76.95 0.01368
77 0.01424
77.05 0.01419
77.1 0.01678
77.15 0.01743
77.2 0.01442
77.25 0.01461
77.3 0.01327
77.35 0.01032
77.4 0.01099
77.45 0.0127
77.5 0.01639
77.55 0.01571
77.6 0.01485
77.65 0.00855
77.7 0.004
77.75 0.00231
77.8 0.00305
77.85 0.00262
77.9 0.0042
77.95 0.00121
78 -0.00403
78.05 -0.00732
78.1 -0.00882
78.15 -0.012
78.2 -0.01747
78.25 -0.01859
78.3 -0.01848
78.35 -0.01724
78.4 -0.01153
78.45 -0.01013
78.5 -0.00735
78.55 -0.00576
78.6 -0.00745
78.65 -0.00552
78.7 -0.00694
78.75 -0.00416
78.8 -0.0055
78.85 -0.00134
78.9 -0.00102
78.95 0.00267
79 0.00267
79.05 0.00537
79.1 0.00476
79.15 0.00711
79.2 0.00621
79.25 0.0067
79.3 0.01098
79.35 0.01539
79.4 0.01262
79.45 0.01152
79.5 0.01151
79.55 0.01091
79.6 0.01091
79.65 0.00535
79.7 -0.0024
79.75 -0.00294
79.8 -0.00434
79.85 -0.00699
79.9 -0.0103
79.95 -0.01373
80 -0.01508
80.05 -0.01207
80.1 -0.00735
80.15 -0.00286
80.2 0.00259
80.25 0.00715
80.3 0.01354
80.35 0.01548
80.4 0.01307
80.45 0.01226
80.5 0.01124
80.55 0.01081
80.6 0.00932
80.65 0.0066
80.7 -0.00012
80.75 -0.00699
80.8 -0.01386
80.85 -0.02072
80.9 -0.02334
80.95 -0.01998
81 -0.01402
81.05 -0.00704
81.1 -0.00661
81.15 -0.00274
81.2 -0.00436
81.25 -0.00633
81.3 -0.00819
81.35 -0.00864
81.4 -0.00952
81.45 -0.011
81.5 -0.01351
81.55 -0.01568
81.6 -0.01426
81.65 -0.00817
81.7 -0.00547
81.75 -0.00096
81.8 0.00453
81.85 0.00663
81.9 0.01021
81.95 0.00858
82 0.00386
82.05 0.0043
82.1 0.00652
82.15 0.00789
82.2 0.00631
82.25 0.00488
82.3 0.0073
82.35 0.00796
82.4 0.0121
82.45 0.01231
82.5 0.01156
82.55 0.00739
82.6 0.00057
82.65 -0.00174
82.7 -0.00612
82.75 -0.01182
82.8 -0.01056
82.85 -0.00834
82.9 -0.00413
82.95 0.00059
83 0.00051
83.05 -0.00008
83.1 0.00353
83.15 0.00535
83.2 0.00407
83.25 0.00078
83.3 -0.00363
83.35 -0.01002
83.4 -0.01689
83.45 -0.01566
83.5 -0.01522
83.55 -0.01031
83.6 -0.00513
83.65 -0.00199
83.7 0.00035
83.75 0.00037
83.8 -0.00411
83.85 -0.00665
83.9 -0.0045
83.95 -0.00675
84 -0.01003
84.05 -0.01521
84.1 -0.01932
84.15 -0.01829
84.2 -0.01691
84.25 -0.01525
84.3 -0.01158
84.35 -0.00564
84.4 -0.00401
84.45 -0.00542
84.5 -0.00186
84.55 0.00217
84.6 0.00742
84.65 0.01228
84.7 0.01475
84.75 0.01269
84.8 0.0065
84.85 0.00642
84.9 0.00656
84.95 0.00476
85 0.00619
85.05 0.0103
85.1 0.01567
85.15 0.02232
85.2 0.02553
85.25 0.02609
85.3 0.02594
85.35 0.0258
85.4 0.02581
85.45 0.02055
85.5 0.01502
85.55 0.00852
85.6 0.00008
85.65 -0.00668
85.7 -0.01363
85.75 -0.01288
85.8 -0.00806
85.85 -0.00536
85.9 -0.00714
85.95 -0.00592
86 -0.00258
86.05 -0.00226
86.1 -0.00464
86.15 -0.00551
86.2 -0.00175
86.25 -0.00354
86.3 -0.00191
86.35 -0.00215
86.4 0.00162
86.45 0.00651
86.5 0.0068
86.55 0.00837
86.6 0.01142
86.65 0.01025
86.7 0.00823
86.75 0.01034
86.8 0.01082
86.85 0.01032
86.9 0.01273
86.95 0.01548
87 0.0126
87.05 0.00589
87.1 0.00341
87.15 0.00475
87.2 0.00487
87.25 0.00608
87.3 0.00608
87.35 0.00099
87.4 -0.00367
87.45 -0.00385
87.5 -0.00743
87.55 -0.01027
87.6 -0.01426
87.65 -0.01337
87.7 -0.00787
87.75 -0.00466
87.8 -0.00354
87.85 -0.00534
87.9 -0.0072
87.95 -0.0108
88 -0.0111
88.05 -0.00683
88.1 -0.00098
88.15 -0.00031
88.2 -0.0041
88.25 -0.00202
88.3 0.00294
88.35 0.00596
88.4 0.01031
88.45 0.01123
88.5 0.01327
88.55 0.01207
88.6 0.00849
88.65 0.0014
88.7 -0.00706
88.75 -0.01386
88.8 -0.02063
88.85 -0.02777
88.9 -0.03267
88.95 -0.03382
89 -0.03574
89.05 -0.03857
89.1 -0.03357
89.15 -0.02435
89.2 -0.01928
89.25 -0.01242
89.3 -0.01114
89.35 -0.00883
89.4 -0.00614
89.45 0.00075
89.5 0.00683
89.55 0.01405
89.6 0.02141
89.65 0.02399
89.7 0.02313
89.75 0.02487
89.8 0.0272
89.85 0.03067
89.9 0.02715
89.95 0.02243
90 0.01888
90.05 0.01317
90.1 0.0049
90.15 -0.00377
90.2 -0.00579
90.25 -0.003
90.3 -0.00202
90.35 -0.00368
90.4 -0.00579
90.45 -0.00872
90.5 -0.01333
90.55 -0.0194
90.6 -0.02363
90.65 -0.02083
90.7 -0.02046
90.75 -0.01552
90.8 -0.01015
90.85 -0.00811
90.9 -0.00941
90.95 -0.00734
91 -0.00909
91.05 -0.00959
91.1 -0.01087
91.15 -0.01418
91.2 -0.01567
91.25 -0.01221
91.3 -0.01257
91.35 -0.01375
91.4 -0.0141
91.45 -0.01523
91.5 -0.01729
91.55 -0.01678
91.6 -0.01209
91.65 -0.00646
91.7 -0.00086
91.75 0.00438
91.8 0.00589
91.85 0.00601
91.9 0.00713
91.95 0.00806
92 0.01146
92.05 0.0088
92.1 0.00434
92.15 0.0035
92.2 0.00582
92.25 0.00242
92.3 0.00217
92.35 0.00193
92.4 -0.00079
92.45 -0.00157
92.5 -0.00041
92.55 -0.00346
92.6 -0.00807
92.65 -0.00677
92.7 -0.00542
92.75 -0.00131
92.8 -0.00028
92.85 0.00315
92.9 0.00356
92.95 0.00308
93 0.0043
93.05 0.00678
93.1 0.00957
93.15 0.00998
93.2 0.01413
93.25 0.01901
93.3 0.02116
93.35 0.01885
93.4 0.01943
93.45 0.02176
93.5 0.02204
93.55 0.02305
93.6 0.02262
93.65 0.02038
93.7 0.01663
93.75 0.01544
93.8 0.01159
93.85 0.00646
93.9 0.0043
93.95 -0.0009
94 -0.00312
94.05 -0.00863
94.1 -0.01414
94.15 -0.01237
94.2 -0.01092
94.25 -0.01156
94.3 -0.01346
94.35 -0.01608
94.4 -0.01393
94.45 -0.01485
94.5 -0.01431
94.55 -0.01711
94.6 -0.01779
94.65 -0.01871
94.7 -0.02016
94.75 -0.01911
94.8 -0.01751
94.85 -0.01778
94.9 -0.01265
94.95 -0.00967
95 -0.00956
95.05 -0.01036
95.1 -0.00806
95.15 -0.00168
95.2 0.00087
95.25 0.0028
95.3 0.0019
95.35 0.00568
95.4 0.00382
95.45 0.0069
95.5 0.00907
95.55 0.00783
95.6 0.00425
95.65 0.005
95.7 0.0052
95.75 0.00202
95.8 0.00288
95.85 0.00646
95.9 0.00483
95.95 0.00471
96 0.00093
96.05 -0.00109
96.1 -0.00296
96.15 -0.00392
96.2 -0.00173
96.25 0.00038
96.3 0.00535
96.35 0.0064
96.4 0.00568
96.45 0.00854
96.5 0.01109
96.55 0.01237
96.6 0.01297
96.65 0.01122
96.7 0.00903
96.75 0.00622
96.8 0.00759
96.85 0.0054
96.9 0.00071
96.95 -0.00205
97 0.00009
97.05 -0.00009
97.1 -0.0043
97.15 -0.00296
97.2 0.00096
97.25 0.00455
97.3 0.00178
97.35 -0.00064
97.4 -0.00592
97.45 -0.01034
97.5 -0.00829
97.55 -0.0065
97.6 -0.00116
97.65 0.00232
97.7 -0.00014
97.75 0.00084
97.8 -0.00071
97.85 -0.00308
97.9 -0.00293
97.95 -0.00348
98 -0.00443
98.05 -0.00407
98.1 -0.00436
98.15 -0.00632
98.2 -0.00845
98.25 -0.00905
98.3 -0.00517
98.35 -0.0037
98.4 -0.00407
98.45 -0.00236
98.5 0.00244
98.55 0.00711
98.6 0.00856
98.65 0.00837
98.7 0.00738
98.75 0.01073
98.8 0.01516
98.85 0.01727
98.9 0.01561
98.95 0.0091
99 -0.00013
99.05 -0.00531
99.1 -0.0048
99.15 -0.0037
99.2 -0.00545
99.25 -0.0039
99.3 -0.00381
99.35 -0.00376
99.4 -0.00494
99.45 -0.00282
99.5 -0.00136
99.55 0.00127
99.6 0.00089
99.65 0.0027
99.7 0.00038
99.75 0.00092
99.8 0.00103
99.85 0.0052
99.9 0.01152
99.95 0.01814
