0 0
0.05 0.00278
0.1 0.01262
0.15 0.0218
0.2 0.03405
0.25 0.04554
0.3 0.04942
0.35 0.05044
0.4 0.04725
0.45 0.04641
0.5 0.0492
0.55 0.05326
0.6 0.0522
0.65 0.05362
0.7 0.05818
0.75 0.06392
0.8 0.06981
0.85 0.07055
0.9 0.06485
0.95 0.05875
1 0.05304
1.05 0.05268
1.1 0.05583
1.15 0.05556
1.2 0.0525
1.25 0.04979
1.3 0.04726
1.35 0.04127
1.4 0.03833
1.45 0.03274
1.5 0.02833
1.55 0.02764
1.6 0.02354
1.65 0.01995
1.7 0.02265
1.75 0.02264
1.8 0.02083
1.85 0.01645
1.9 0.01342
1.95 0.01679
2 0.01897
2.05 0.025
2.1 0.03134
2.15 0.03383
2.2 0.03419
2.25 0.03287
2.3 0.03222
2.35 0.03542
2.4 0.04081
2.45 0.04442
2.5 0.04138
2.55 0.0415
2.6 0.03861
2.65 0.03188
2.7 0.02624
2.75 0.02627
2.8 0.02351
2.85 0.02566
2.9 0.02371
2.95 0.02166
3 0.02389
3.05 0.02269
3.1 0.01906
3.15 0.02151
3.2 0.02342
3.25 0.02102
3.3 0.01922
3.35 0.01892
3.4 0.0169
3.45 0.01875
3.5 0.0239
3.55 0.02663
3.6 0.02962
3.65 0.0291
3.7 0.02353
3.75 0.02268
3.8 0.02154
3.85 0.01658
3.9 0.01002
3.95 0.00802
4 0.00582
4.05 0.00322
4.1 0.00151
4.15 0.00364
4.2 0.00548
4.25 0.00738
4.3 0.00606
4.35 0.00408
4.4 0.00364
4.45 -0.00403
4.5 -0.01593
4.55 -0.03073
4.6 -0.0484
4.65 -0.06146
4.7 -0.08057
4.75 -0.09894
4.8 -0.11509
4.85 -0.14088
4.9 -0.16886
4.95 -0.19738
5 -0.23364
5.05 -0.28142
5.1 -0.33292
5.15 -0.39265
5.2 -0.45871
5.25 -0.52564
5.3 -0.60154
5.35 -0.67775
5.4 -0.76116
5.45 -0.84874
5.5 -0.93923
5.55 -1.03434
5.6 -1.13373
5.65 -1.22908
5.7 -1.32861
5.75 -1.43154
5.8 -1.53226
5.85 -1.62718
5.9 -1.71625
5.95 -1.80349
6 -1.88496
6.05 -1.9635
6.1 -2.04253
6.15 -2.12106
6.2 -2.18933
6.25 -2.25236
6.3 -2.31373
6.35 -2.3637
6.4 -2.41218
6.45 -2.44917
6.5 -2.48089
6.55 -2.50263
6.6 -2.51081
6.65 -2.50748
6.7 -2.49594
6.75 -2.47062
6.8 -2.43032
6.85 -2.37484
6.9 -2.30255
6.95 -2.21774
7 -2.11941
7.05 -2.00597
7.1 -1.87358
7.15 -1.72428
7.2 -1.56378
7.25 -1.38911
7.3 -1.20974
7.35 -1.0184
7.4 -0.818
7.45 -0.6159
7.5 -0.41096
7.55 -0.20344
7.6 -0.00266
7.65 0.19675
7.7 0.38938
7.75 0.57246
7.8 0.75271
7.85 0.92717
7.9 1.09366
7.95 1.24633
8 1.38502
8.05 1.51458
8.1 1.63287
8.15 1.73628
8.2 1.83093
8.25 1.9161
8.3 1.9833
8.35 2.03819
8.4 2.08629
8.45 2.12266
8.5 2.14961
8.55 2.16896
8.6 2.18713
8.65 2.20454
8.7 2.21779
8.75 2.22617
8.8 2.2278
8.85 2.22137
8.9 2.21271
8.95 2.19951
9 2.18561
9.05 2.17511
9.1 2.16615
9.15 2.15684
9.2 2.1432
9.25 2.13035
9.3 2.11392
9.35 2.09808
9.4 2.07719
9.45 2.05656
9.5 2.0342
9.55 2.00871
9.6 1.9752
9.65 1.93702
9.7 1.89721
9.75 1.86033
9.8 1.82087
9.85 1.7858
9.9 1.75031
9.95 1.7137
10 1.67475
10.05 1.6415
10.1 1.6071
10.15 1.57213
10.2 1.53469
10.25 1.49361
10.3 1.45233
10.35 1.41023
10.4 1.36605
10.45 1.31727
10.5 1.27123
10.55 1.22529
10.6 1.17902
10.65 1.12957
10.7 1.08355
10.75 1.03356
10.8 0.98934
10.85 0.94759
10.9 0.90417
10.95 0.85848
11 0.81205
11.05 0.76741
11.1 0.72335
11.15 0.67679
11.2 0.6336
11.25 0.58593
11.3 0.53752
11.35 0.49243
11.4 0.4523
11.45 0.41316
11.5 0.37802
11.55 0.34531
11.6 0.31544
11.65 0.28501
11.7 0.25214
11.75 0.21855
11.8 0.18055
11.85 0.1476
11.9 0.11676
11.95 0.08971
12 0.05637
12.05 0.02632
12.1 -0.00451
12.15 -0.03772
12.2 -0.06454
12.25 -0.09355
12.3 -0.11849
12.35 -0.14423
12.4 -0.16362
12.45 -0.18566
12.5 -0.20732
12.55 -0.22162
12.6 -0.2338
12.65 -0.24291
12.7 -0.24919
12.75 -0.26256
12.8 -0.2764
12.85 -0.29348
12.9 -0.31073
12.95 -0.32452
13 -0.33513
13.05 -0.34147
13.1 -0.3448
13.15 -0.34463
13.2 -0.35014
13.25 -0.35126
13.3 -0.35561
13.35 -0.3617
13.4 -0.37085
13.45 -0.37352
13.5 -0.37931
13.55 -0.38108
13.6 -0.38258
13.65 -0.38502
13.7 -0.38928
13.75 -0.3952
13.8 -0.39326
13.85 -0.38695
13.9 -0.37766
13.95 -0.37499
14 -0.37272
14.05 -0.37426
14.1 -0.37653
14.15 -0.37656
14.2 -0.37681
14.25 -0.37217
14.3 -0.36387
14.35 -0.3534
14.4 -0.34875
14.45 -0.34324
14.5 -0.3383
14.55 -0.33076
14.6 -0.32466
14.65 -0.31956
14.7 -0.31856
14.75 -0.31893
14.8 -0.31652
14.85 -0.31543
14.9 -0.31356
14.95 -0.31449
15 -0.31035
15.05 -0.30263
15.1 -0.29835
15.15 -0.28986
15.2 -0.28317
15.25 -0.27894
15.3 -0.27466
15.35 -0.27011
15.4 -0.26986
15.45 -0.26658
15.5 -0.26708
15.55 -0.26597
15.6 -0.25971
15.65 -0.25596
15.7 -0.25478
15.75 -0.2484
15.8 -0.24551
15.85 -0.23831
15.9 -0.22933
15.95 -0.22405
16 -0.21977
16.05 -0.21363
16.1 -0.2138
16.15 -0.21745
16.2 -0.21691
16.25 -0.2157
16.3 -0.21103
16.35 -0.20723
16.4 -0.20462
16.45 -0.20496
16.5 -0.20118
16.55 -0.19473
16.6 -0.19386
16.65 -0.19318
16.7 -0.1869
16.75 -0.17847
16.8 -0.16814
16.85 -0.16306
16.9 -0.1602
16.95 -0.15715
17 -0.15787
17.05 -0.15518
17.1 -0.15378
17.15 -0.15364
17.2 -0.15177
17.25 -0.14919
17.3 -0.14398
17.35 -0.139
17.4 -0.1402
17.45 -0.14142
17.5 -0.14242
17.55 -0.14693
17.6 -0.14677
17.65 -0.14769
17.7 -0.14356
17.75 -0.13902
17.8 -0.13574
17.85 -0.13347
17.9 -0.12666
17.95 -0.12064
18 -0.11218
18.05 -0.10995
18.1 -0.10877
18.15 -0.10421
18.2 -0.10228
18.25 -0.10625
18.3 -0.10752
18.35 -0.10413
18.4 -0.09974
18.45 -0.09573
18.5 -0.09469
18.55 -0.09511
18.6 -0.09668
18.65 -0.09637
18.7 -0.09272
18.75 -0.09391
18.8 -0.09766
18.85 -0.10063
18.9 -0.10229
18.95 -0.09772
19 -0.08991
19.05 -0.08711
19.1 -0.08381
19.15 -0.07865
19.2 -0.07288
19.25 -0.06546
19.3 -0.06464
19.35 -0.06987
19.4 -0.07722
19.45 -0.08003
19.5 -0.08415
19.55 -0.08805
19.6 -0.08651
19.65 -0.08847
19.7 -0.08962
19.75 -0.08956
19.8 -0.08523
19.85 -0.07647
19.9 -0.06653
19.95 -0.05822
20 -0.05442
20.05 -0.05174
20.1 -0.04662
20.15 -0.04732
20.2 -0.04675
20.25 -0.04442
20.3 -0.04087
20.35 -0.0446
20.4 -0.04531
20.45 -0.05033
20.5 -0.05142
20.55 -0.0504
20.6 -0.05473
20.65 -0.0616
20.7 -0.06124
20.75 -0.06192
20.8 -0.059
20.85 -0.05868
20.9 -0.05994
20.95 -0.0627
21 -0.06639
21.05 -0.06974
21.1 -0.07196
21.15 -0.07468
21.2 -0.07581
21.25 -0.07729
21.3 -0.07348
21.35 -0.06935
21.4 -0.06465
21.45 -0.05497
21.5 -0.0444
21.55 -0.03267
21.6 -0.02813
21.65 -0.0264
21.7 -0.02816
21.75 -0.02666
21.8 -0.03039
21.85 -0.03382
21.9 -0.03173
21.95 -0.03329
22 -0.02995
22.05 -0.0307
22.1 -0.03042
22.15 -0.0313
22.2 -0.02817
22.25 -0.02193
22.3 -0.02003
22.35 -0.01863
22.4 -0.02115
22.45 -0.02263
22.5 -0.01979
22.55 -0.02069
22.6 -0.02604
22.65 -0.03219
22.7 -0.03735
22.75 -0.03946
22.8 -0.03809
22.85 -0.04049
22.9 -0.03989
22.95 -0.04094
23 -0.04475
23.05 -0.04825
23.1 -0.05287
23.15 -0.05092
23.2 -0.04279
23.25 -0.03808
23.3 -0.03339
23.35 -0.02691
23.4 -0.01854
23.45 -0.01653
23.5 -0.01778
23.55 -0.01622
23.6 -0.01535
23.65 -0.01056
23.7 -0.00514
23.75 -0.00433
23.8 -0.00438
23.85 -0.00895
23.9 -0.00881
23.95 -0.00673
24 -0.00407
24.05 -0.00729
24.1 -0.01044
24.15 -0.01313
24.2 -0.01704
24.25 -0.02098
24.3 -0.02725
24.35 -0.0318
24.4 -0.0373
24.45 -0.04028
24.5 -0.03677
24.55 -0.03635
24.6 -0.03565
24.65 -0.03255
24.7 -0.03072
24.75 -0.03137
24.8 -0.02888
24.85 -0.02259
24.9 -0.01364
24.95 -0.01184
25 -0.00948
25.05 -0.01175
25.1 -0.0162
25.15 -0.01417
25.2 -0.01395
25.25 -0.00952
25.3 -0.00723
25.35 -0.00885
25.4 -0.01174
25.45 -0.0132
25.5 -0.01695
25.55 -0.01781
25.6 -0.02014
25.65 -0.02436
25.7 -0.02461
25.75 -0.02158
25.8 -0.02215
25.85 -0.01833
25.9 -0.01811
25.95 -0.01541
26 -0.01124
26.05 -0.00911
26.1 -0.00891
26.15 -0.01023
26.2 -0.01095
26.25 -0.0107
26.3 -0.01288
26.35 -0.012
26.4 -0.01098
26.45 -0.0142
26.5 -0.01169
26.55 -0.00503
26.6 -0.0049
26.65 -0.00426
26.7 -0.0032
26.75 0.00107
26.8 0.00216
26.85 -0.00001
26.9 -0.00266
26.95 -0.00296
27 -0.00714
27.05 -0.01144
27.1 -0.01695
27.15 -0.02188
27.2 -0.02186
27.25 -0.01591
27.3 -0.00909
27.35 -0.00304
27.4 0.00133
27.45 -0.00084
27.5 -0.00682
27.55 -0.01257
27.6 -0.01654
27.65 -0.01821
27.7 -0.01649
27.75 -0.0142
27.8 -0.01224
27.85 -0.00944
27.9 -0.00891
27.95 -0.00491
28 -0.00225
28.05 -0.00497
28.1 -0.00693
28.15 -0.00695
28.2 -0.00971
28.25 -0.01412
28.3 -0.01942
28.35 -0.02341
28.4 -0.02296
28.45 -0.01916
28.5 -0.01183
28.55 -0.00619
28.6 -0.00602
28.65 -0.00832
28.7 -0.00947
28.75 -0.0085
28.8 -0.01042
28.85 -0.01303
28.9 -0.0123
28.95 -0.01401
29 -0.00928
29.05 -0.00875
29.1 -0.00612
29.15 -0.00117
29.2 0.00149
29.25 0.00034
29.3 0.00336
29.35 0.0032
29.4 0.00313
29.45 0.00312
29.5 -0.00098
29.55 -0.00107
29.6 0.00203
29.65 0.00111
29.7 0.00338
29.75 0.00549
29.8 0.00186
29.85 -0.00364
29.9 -0.00478
29.95 -0.00547
30 -0.00447
30.05 -0.00398
30.1 -0.00183
30.15 0.00159
30.2 0.00343
30.25 0.00091
30.3 0.00123
30.35 0.00237
30.4 0.00689
30.45 0.01286
30.5 0.02026
30.55 0.025
30.6 0.02641
30.65 0.02305
30.7 0.02252
30.75 0.02197
30.8 0.01995
30.85 0.01442
30.9 0.01236
30.95 0.00686
31 0.00329
31.05 0.00248
31.1 0.00507
31.15 0.00406
31.2 0.00519
31.25 0.00119
31.3 -0.00236
31.35 -0.00318
31.4 -0.00767
31.45 -0.01214
31.5 -0.01452
31.55 -0.01144
31.6 -0.0132
31.65 -0.0127
31.7 -0.01587
31.75 -0.01207
31.8 -0.00862
31.85 -0.00814
31.9 -0.01118
31.95 -0.00899
32 -0.01144
32.05 -0.00769
32.1 -0.0017
32.15 -0.00089
32.2 -0.00371
32.25 -0.00402
32.3 -0.00105
32.35 -0.00336
32.4 -0.00823
32.45 -0.01378
32.5 -0.01966
32.55 -0.02085
32.6 -0.01696
32.65 -0.01217
32.7 -0.01075
32.75 -0.01127
32.8 -0.00874
32.85 -0.0068
32.9 -0.00903
32.95 -0.0076
33 -0.00441
33.05 -0.00341
33.1 -0.00106
33.15 0.0015
33.2 0.0043
33.25 0.00553
33.3 0.00689
33.35 0.0085
33.4 0.01209
33.45 0.00933
33.5 0.00432
33.55 0.00088
33.6 0.00172
33.65 0.00186
33.7 -0.00061
33.75 0.00235
33.8 0.0035
33.85 0.00831
33.9 0.01054
33.95 0.01353
34 0.01692
34.05 0.01855
34.1 0.01486
34.15 0.00937
34.2 0.00656
34.25 0.00477
34.3 0.00019
34.35 0.00102
34.4 0.00192
34.45 0.00671
34.5 0.00624
34.55 0.00684
34.6 0.00861
34.65 0.00893
34.7 0.00411
34.75 -0.00387
34.8 -0.00974
34.85 -0.0118
34.9 -0.01129
34.95 -0.01213
35 -0.00723
35.05 -0.00058
35.1 0.00289
35.15 0.00391
35.2 0.00094
35.25 -0.00262
35.3 -0.00466
35.35 -0.00774
35.4 -0.01048
35.45 -0.01198
35.5 -0.00874
35.55 -0.00976
35.6 -0.0124
35.65 -0.01165
35.7 -0.00859
35.75 -0.00163
35.8 0.00732
35.85 0.01688
35.9 0.01971
35.95 0.02285
36 0.02112
36.05 0.02109
36.1 0.0215
36.15 0.01813
36.2 0.01675
36.25 0.01559
36.3 0.01424
36.35 0.00834
36.4 0.00703
36.45 0.0064
36.5 0.00366
36.55 -0.00026
36.6 -0.00563
36.65 -0.01033
36.7 -0.00863
36.75 -0.00687
36.8 -0.00666
36.85 -0.00256
36.9 -0.00092
36.95 0.00031
37 0.00156
37.05 0.00219
37.1 0.00641
37.15 0.00615
37.2 0.00981
37.25 0.01141
37.3 0.01528
37.35 0.01192
37.4 0.00797
37.45 0.00465
37.5 0.00191
37.55 0.00214
37.6 0.00488
37.65 0.00653
37.7 0.01073
37.75 0.01239
37.8 0.00857
37.85 0.00896
37.9 0.00409
37.95 0.00149
38 0.00255
38.05 0.0029
38.1 0.00608
38.15 0.00536
38.2 0.00451
38.25 0.00561
38.3 0.00673
38.35 0.00658
38.4 0.00884
38.45 0.00804
38.5 0.00757
38.55 0.00487
38.6 0.0021
38.65 -0.00214
38.7 -0.00629
38.75 -0.00901
38.8 -0.01411
38.85 -0.0165
38.9 -0.02053
38.95 -0.01851
39 -0.01826
39.05 -0.01546
39.1 -0.01423
39.15 -0.01711
39.2 -0.01327
39.25 -0.00935
39.3 -0.00688
39.35 -0.00379
39.4 -0.002
39.45 0.00093
39.5 0.00005
39.55 0.00165
39.6 0.00026
39.65 -0.00219
39.7 -0.00713
39.75 -0.0083
39.8 -0.01219
39.85 -0.0102
39.9 -0.00447
39.95 0.00094
40 0.00689
40.05 0.01296
40.1 0.01735
40.15 0.01836
40.2 0.0145
40.25 0.01476
40.3 0.01709
40.35 0.01303
40.4 0.00684
40.45 0.00657
40.5 0.00883
40.55 0.01344
40.6 0.01105
40.65 0.00899
40.7 0.00677
40.75 0.00796
40.8 0.01187
40.85 0.0111
40.9 0.01246
40.95 0.00826
41 0.00476
41.05 0.00316
41.1 -0.0016
41.15 -0.00136
41.2 -0.00251
41.25 -0.0007
41.3 0.00425
41.35 0.00896
41.4 0.01181
41.45 0.01257
41.5 0.01382
41.55 0.00869
41.6 -0.00001
41.65 -0.0096
41.7 -0.01135
41.75 -0.01543
41.8 -0.02132
41.85 -0.02392
41.9 -0.02393
41.95 -0.02653
42 -0.02369
42.05 -0.01569
42.1 -0.01325
42.15 -0.00822
42.2 -0.00755
42.25 -0.00976
42.3 -0.00877
42.35 -0.00771
42.4 -0.0036
42.45 -0.00434
42.5 -0.0068
42.55 -0.00778
42.6 -0.01189
42.65 -0.01704
42.7 -0.01632
42.75 -0.01272
42.8 -0.01321
42.85 -0.0141
42.9 -0.01199
42.95 -0.01415
43 -0.01673
43.05 -0.01923
43.1 -0.02226
43.15 -0.01959
43.2 -0.01756
43.25 -0.01642
43.3 -0.01206
43.35 -0.00847
43.4 -0.00931
43.45 -0.00681
43.5 -0.00435
43.55 -0.00121
43.6 0.00181
43.65 0.00611
43.7 0.00631
43.75 0.00548
43.8 0.00809
43.85 0.0079
43.9 0.00633
43.95 0.00724
44 0.00657
44.05 0.00349
44.1 -0.00058
44.15 -0.00164
44.2 -0.0053
44.25 -0.00438
44.3 -0.00156
44.35 0.00089
44.4 0.00361
44.45 0.0046
44.5 0.00791
44.55 0.00945
44.6 0.01094
44.65 0.00845
44.7 0.00918
44.75 0.01247
44.8 0.01707
44.85 0.01698
44.9 0.01225
44.95 0.00817
45 0.00907
45.05 0.01007
45.1 0.00585
45.15 0.00099
45.2 -0.00272
45.25 -0.00328
45.3 -0.00342
45.35 -0.00019
45.4 -0.00102
45.45 -0.00013
45.5 -0.00087
45.55 -0.00012
45.6 -0.00083
45.65 0.00306
45.7 0.00167
45.75 0.00456
45.8 0.00691
45.85 0.0073
45.9 0.0042
45.95 0.00571
46 0.00546
46.05 0.00196
46.1 -0.00419
46.15 -0.00701
46.2 -0.01107
46.25 -0.0131
46.3 -0.00995
46.35 -0.00313
46.4 0.00461
46.45 0.01062
46.5 0.01471
46.55 0.01155
46.6 0.00493
46.65 0.0021
46.7 0.00273
46.75 -0.00049
46.8 -0.00223
46.85 -0.00402
46.9 -0.00634
46.95 -0.01148
47 -0.0107
47.05 -0.00524
47.1 0.00298
47.15 0.00951
47.2 0.01265
47.25 0.00927
47.3 0.01062
47.35 0.00704
47.4 0.00664
47.45 0.00333
47.5 0.00317
47.55 0.00158
47.6 -0.00114
47.65 -0.00761
47.7 -0.01022
47.75 -0.00691
47.8 -0.00248
47.85 -0.00149
47.9 -0.00432
47.95 -0.00698
48 -0.00813
48.05 -0.00752
48.1 -0.0102
48.15 -0.01588
48.2 -0.0221
48.25 -0.02177
48.3 -0.0175
48.35 -0.00903
48.4 -0.00577
48.45 -0.00455
48.5 -0.00279
48.55 0.00279
48.6 0.00456
48.65 0.00646
48.7 0.00311
48.75 0.00346
48.8 0.00136
48.85 0.00013
48.9 0.00197
48.95 0.00063
49 0.00003
49.05 0.00389
49.1 0.00453
49.15 0.00526
49.2 0.00942
49.25 0.01199
49.3 0.01055
49.35 0.0119
49.4 0.00738
49.45 0.00812
49.5 0.0072
49.55 0.00881
49.6 0.00767
49.65 0.00511
49.7 0.00039
49.75 -0.0074
49.8 -0.01567
49.85 -0.01523
49.9 -0.01271
49.95 -0.01223
50 -0.00722
50.05 -0.00623
50.1 -0.00769
50.15 -0.01256
50.2 -0.01519
50.25 -0.01275
50.3 -0.00655
50.35 -0.00476
50.4 -0.00005
50.45 0.00428
50.5 0.00265
50.55 0.00329
50.6 0.00297
50.65 0.00419
50.7 0.0041
50.75 0.00436
50.8 0.00175
50.85 -0.00124
50.9 -0.00147
50.95 -0.00149
51 -0.00358
51.05 -0.00344
51.1 -0.00506
51.15 -0.00396
51.2 -0.00193
51.25 -0.00467
51.3 -0.0022
51.35 -0.00384
51.4 -0.0003
51.45 -0.00191
51.5 -0.00577
51.55 -0.01121
51.6 -0.01237
51.65 -0.00795
51.7 -0.00832
51.75 -0.0085
51.8 -0.00449
51.85 0.00279
51.9 0.00631
51.95 0.01073
52 0.01655
52.05 0.01494
52.1 0.00908
52.15 0.0068
52.2 0.00361
52.25 0.00271
52.3 -0.00229
52.35 -0.00576
52.4 -0.00732
52.45 -0.00364
52.5 0.00245
52.55 0.01008
52.6 0.01828
52.65 0.02195
52.7 0.02438
52.75 0.02048
52.8 0.01961
52.85 0.01309
52.9 0.00463
52.95 0.00308
53 -0.00091
53.05 -0.00025
53.1 0.00417
53.15 0.00467
53.2 0.00281
53.25 0.00525
53.3 0.00285
53.35 0.00092
53.4 -0.00364
53.45 -0.00465
53.5 -0.00279
53.55 -0.00145
53.6 -0.00314
53.65 -0.00532
53.7 -0.00761
53.75 -0.01238
53.8 -0.01825
53.85 -0.02137
53.9 -0.01742
53.95 -0.01727
54 -0.01554
54.05 -0.01035
54.1 -0.00367
54.15 0.00434
54.2 0.01105
54.25 0.01282
54.3 0.01214
54.35 0.00782
54.4 0.00091
54.45 -0.00413
54.5 -0.01095
54.55 -0.01078
54.6 -0.01028
54.65 -0.00531
54.7 -0.00474
54.75 -0.00075
54.8 0.00299
54.85 0.00394
54.9 0.00455
54.95 0.0021
55 0.0045
55.05 0.00822
55.1 0.00548
55.15 0.00102
55.2 -0.00583
55.25 -0.008
55.3 -0.01194
55.35 -0.00956
55.4 -0.00836
55.45 -0.01021
55.5 -0.01154
55.55 -0.01297
55.6 -0.0094
55.65 -0.00646
55.7 -0.00372
55.75 -0.00573
55.8 -0.0111
55.85 -0.01758
55.9 -0.0232
55.95 -0.02843
56 -0.02514
56.05 -0.02321
56.1 -0.02327
56.15 -0.01991
56.2 -0.01209
56.25 -0.00414
56.3 -0.00313
56.35 -0.0003
56.4 0.00622
56.45 0.01393
56.5 0.01899
56.55 0.01793
56.6 0.01385
56.65 0.0108
56.7 0.00632
56.75 0.00604
56.8 0.00233
56.85 0.00236
56.9 0.00235
56.95 -0.00242
57 -0.0078
57.05 -0.01204
57.1 -0.01104
57.15 -0.0123
57.2 -0.01077
57.25 -0.00649
57.3 -0.00518
57.35 -0.00251
57.4 -0.00381
57.45 -0.00191
57.5 -0.00165
57.55 0.00324
57.6 0.01005
57.65 0.01785
57.7 0.02353
57.75 0.02126
57.8 0.01713
57.85 0.01465
57.9 0.01556
57.95 0.01551
58 0.01741
58.05 0.01773
58.1 0.01452
58.15 0.01168
58.2 0.00727
58.25 0.00258
58.3 0.00238
58.35 -0.0015
58.4 -0.00265
58.45 -0.00684
58.5 -0.0102
58.55 -0.01576
58.6 -0.02059
58.65 -0.02133
58.7 -0.01719
58.75 -0.0134
58.8 -0.01208
58.85 -0.01367
58.9 -0.01744
58.95 -0.01425
59 -0.00949
59.05 -0.0033
59.1 0.00546
59.15 0.01264
59.2 0.01502
59.25 0.01493
59.3 0.018
59.35 0.016
59.4 0.01194
59.45 0.01172
59.5 0.00935
59.55 0.00573
59.6 0.00048
59.65 0.00029
59.7 0.00125
59.75 0.00209
59.8 0.00127
59.85 0.00029
59.9 0.00039
59.95 0.00319
60 0.00466
60.05 0.0051
60.1 0.00044
60.15 -0.0026
60.2 -0.0044
60.25 -0.00278
60.3 0.00112
60.35 0.00487
60.4 0.00937
60.45 0.01356
60.5 0.01216
60.55 0.0099
60.6 0.01074
60.65 0.00756
60.7 0.00662
60.75 0.00179
60.8 -0.0029
60.85 -0.00957
60.9 -0.01126
60.95 -0.00996
61 -0.01096
61.05 -0.00954
61.1 -0.00417
61.15 -0.00156
61.2 0.00003
61.25 -0.00168
61.3 -0.00096
61.35 -0.00504
61.4 -0.0034
61.45 -0.00649
61.5 -0.01242
61.55 -0.01123
61.6 -0.01285
61.65 -0.0114
61.7 -0.00762
61.75 -0.00566
61.8 -0.00351
61.85 -0.00224
61.9 -0.00398
61.95 -0.00098
62 -0.00252
62.05 -0.00514
62.1 -0.0057
62.15 -0.00888
62.2 -0.00974
62.25 -0.00764
62.3 -0.00795
62.35 -0.00951
62.4 -0.00672
62.45 0.00018
62.5 0.00751
62.55 0.01555
62.6 0.01611
62.65 0.01629
62.7 0.0121
62.75 0.00588
62.8 -0.00053
62.85 -0.00261
62.9 -0.00205
62.95 -0.0036
63 -0.0077
63.05 -0.00972
63.1 -0.01429
63.15 -0.02046
63.2 -0.02542
63.25 -0.02855
63.3 -0.02728
63.35 -0.02419
63.4 -0.01973
63.45 -0.01548
63.5 -0.01128
63.55 -0.00831
63.6 -0.00298
63.65 -0.00024
63.7 0.00164
63.75 0.00488
63.8 0.00367
63.85 -0.00063
63.9 -0.00718
63.95 -0.01325
64 -0.01974
64.05 -0.02043
64.1 -0.01652
64.15 -0.01346
64.2 -0.00823
64.25 -0.00835
64.3 -0.00782
64.35 -0.00578
64.4 0.00032
64.45 0.00755
64.5 0.00947
64.55 0.00792
64.6 0.00684
64.65 0.00198
64.7 -0.00232
64.75 -0.00639
64.8 -0.0074
64.85 -0.01042
64.9 -0.00805
64.95 -0.0031
65 0.00306
65.05 0.00891
65.1 0.0093
65.15 0.01328
65.2 0.01697
65.25 0.02239
65.3 0.02508
65.35 0.02551
65.4 0.01975
65.45 0.01918
65.5 0.01389
65.55 0.01165
65.6 0.00934
65.65 0.01046
65.7 0.00866
65.75 0.00457
65.8 -0.00212
65.85 -0.01024
65.9 -0.01635
65.95 -0.01855
66 -0.01513
66.05 -0.00958
66.1 -0.00898
66.15 -0.00522
66.2 0.00138
66.25 0.00674
66.3 0.01238
66.35 0.01274
66.4 0.01548
66.45 0.01804
66.5 0.01471
66.55 0.00711
66.6 0.00107
66.65 -0.00368
66.7 -0.00968
66.75 -0.01023
66.8 -0.00942
66.85 -0.01096
66.9 -0.01452
66.95 -0.01394
67 -0.01691
67.05 -0.01485
67.1 -0.01523
67.15 -0.01258
67.2 -0.00942
67.25 -0.00529
67.3 -0.00034
67.35 0.00691
67.4 0.01106
67.45 0.01524
67.5 0.01701
67.55 0.02092
67.6 0.02046
67.65 0.01894
67.7 0.01927
67.75 0.01539
67.8 0.01139
67.85 0.00938
67.9 0.00501
67.95 0.00022
68 0.00089
68.05 0.00373
68.1 0.00269
68.15 0.00525
68.2 0.00727
68.25 0.007
68.3 0.00306
68.35 0.00069
68.4 0.00183
68.45 0.00158
68.5 -0.00055
68.55 0.00077
68.6 -0.00279
68.65 -0.00427
68.7 -0.00049
68.75 -0.00177
68.8 0.00045
68.85 0.0035
68.9 0.00711
68.95 0.00841
69 0.01016
69.05 0.01421
69.1 0.01457
69.15 0.01093
69.2 0.00986
69.25 0.00512
69.3 -0.00294
69.35 -0.00865
69.4 -0.01294
69.45 -0.0131
69.5 -0.01128
69.55 -0.00475
69.6 0
69.65 0.00159
69.7 0.00679
69.75 0.01229
69.8 0.01418
69.85 0.01678
69.9 0.01983
69.95 0.02333
70 0.02594
70.05 0.02519
70.1 0.01974
70.15 0.01003
70.2 0.00292
70.25 -0.00525
70.3 -0.01428
70.35 -0.02196
70.4 -0.02311
70.45 -0.02666
70.5 -0.02693
70.55 -0.02541
70.6 -0.01895
70.65 -0.01418
70.7 -0.01411
70.75 -0.01544
70.8 -0.01547
70.85 -0.01841
70.9 -0.01708
70.95 -0.01332
71 -0.0122
71.05 -0.00845
71.1 -0.00101
71.15 0.00819
71.2 0.0161
71.25 0.01566
71.3 0.01305
71.35 0.01236
71.4 0.01354
71.45 0.01593
71.5 0.01611
71.55 0.01645
71.6 0.01299
71.65 0.00764
71.7 0.00473
71.75 0.00241
71.8 -0.00027
71.85 -0.00588
71.9 -0.00866
71.95 -0.00623
72 -0.0086
72.05 -0.00808
72.1 -0.0111
72.15 -0.01677
72.2 -0.01554
72.25 -0.01241
72.3 -0.01198
72.35 -0.01098
72.4 -0.00794
72.45 -0.00639
72.5 -0.00287
72.55 -0.00391
72.6 -0.00655
72.65 -0.01058
72.7 -0.01475
72.75 -0.01342
72.8 -0.01425
72.85 -0.01417
72.9 -0.01665
72.95 -0.01655
73 -0.01275
73.05 -0.00529
73.1 0.00228
73.15 0.00394
73.2 0.00711
73.25 0.00803
73.3 0.00631
73.35 0.00342
73.4 0.00439
73.45 0.00124
73.5 -0.00314
73.55 -0.00836
73.6 -0.00745
73.65 -0.0029
73.7 0.00096
73.75 -0.00083
73.8 -0.00274
73.85 -0.0064
73.9 -0.01162
73.95 -0.01312
74 -0.01713
74.05 -0.0177
74.1 -0.01328
74.15 -0.00965
74.2 -0.00922
74.25 -0.00442
74.3 0.00164
74.35 0.00551
74.4 0.00575
74.45 0.00771
74.5 0.01284
74.55 0.01099
74.6 0.01158
74.65 0.00856
74.7 0.00851
74.75 0.01082
74.8 0.01448
74.85 0.01467
74.9 0.01314
74.95 0.01514
75 0.01842
75.05 0.0229
75.1 0.02011
75.15 0.01645
75.2 0.01669
75.25 0.01407
75.3 0.01009
75.35 0.01002
75.4 0.01091
75.45 0.00654
75.5 0.0046
75.55 0.00712
75.6 0.01009
75.65 0.01227
75.7 0.01383
75.75 0.01451
75.8 0.01751
75.85 0.01621
75.9 0.01348
75.95 0.01217
76 0.01036
76.05 0.0113
76.1 0.00697
76.15 0.00114
76.2 0.00085
76.25 -0.00385
76.3 -0.00862
76.35 -0.00902
76.4 -0.0061
76.45 -0.00197
76.5 -0.00048
76.55 -0.00113
76.6 -0.00096
76.65 -0.0055
76.7 -0.00559
76.75 -0.0087
76.8 -0.006
76.85 -0.00825
76.9 -0.00648
76.95 -0.00079
77 0.00239
77.05 0.00608
77.1 0.01184
77.15 0.0173
77.2 0.02085
77.25 0.02155
77.3 0.01534
77.35 0.00545
77.4 -0.00508
77.45 -0.01294
77.5 -0.0217
77.55 -0.02275
77.6 -0.02293
77.65 -0.02046
77.7 -0.01361
77.75 -0.00681
77.8 -0.00432
77.85 0.00093
77.9 0.00597
77.95 0.00623
78 0.00678
78.05 0.00747
78.1 0.00852
78.15 0.0053
78.2 0.00201
78.25 0.00376
78.3 0.00504
78.35 0.00547
78.4 0.00428
78.45 0.00507
78.5 0.00691
78.55 0.0027
78.6 0.00337
78.65 0.00443
78.7 0.00829
78.75 0.00823
78.8 0.0043
78.85 -0.00358
78.9 -0.00739
78.95 -0.00575
79 -0.00831
79.05 -0.00628
79.1 -0.00631
79.15 -0.00486
79.2 -0.00317
79.25 -0.00581
79.3 -0.00666
79.35 -0.00261
79.4 0.00205
79.45 0.00356
79.5 0.00168
79.55 0.0022
79.6 -0.00222
79.65 -0.00345
79.7 -0.00777
79.75 -0.01089
79.8 -0.01033
79.85 -0.00694
79.9 -0.00417
79.95 -0.00676
80 -0.00802
80.05 -0.01023
80.1 -0.00863
80.15 -0.00977
80.2 -0.01334
80.25 -0.01888
80.3 -0.02303
80.35 -0.02798
80.4 -0.02874
80.45 -0.02287
80.5 -0.01357
80.55 -0.0034
80.6 -0.00103
80.65 0.00391
80.7 0.00587
80.75 0.01111
80.8 0.01583
80.85 0.01785
80.9 0.01897
80.95 0.02235
81 0.01788
81.05 0.01713
81.1 0.01636
81.15 0.0153
81.2 0.01724
81.25 0.02063
81.3 0.02046
81.35 0.02042
81.4 0.01679
81.45 0.01356
81.5 0.01272
81.55 0.01011
81.6 0.00516
81.65 0.00569
81.7 0.00464
81.75 0.00591
81.8 0.00753
81.85 0.01187
81.9 0.01511
81.95 0.0168
82 0.01204
82.05 0.00537
82.1 -0.00427
82.15 -0.00865
82.2 -0.01199
82.25 -0.00983
82.3 -0.01054
82.35 -0.0074
82.4 -0.00702
82.45 -0.00995
82.5 -0.01532
82.55 -0.01512
82.6 -0.01147
82.65 -0.00452
82.7 0.00351
82.75 0.01041
82.8 0.00946
82.85 0.00366
82.9 0.00359
82.95 0.00679
83 0.01231
83.05 0.01599
83.1 0.01438
83.15 0.0133
83.2 0.00805
83.25 -0.00091
83.3 -0.00376
83.35 -0.00254
83.4 -0.00142
83.45 -0.00154
83.5 -0.00351
83.55 -0.00164
83.6 0.00044
83.65 0.00306
83.7 0.00215
83.75 0.0027
83.8 0.004
83.85 0.00401
83.9 -0.00045
83.95 -0.00354
84 -0.00653
84.05 -0.00988
84.1 -0.01413
84.15 -0.01842
84.2 -0.02166
84.25 -0.02553
84.3 -0.02729
84.35 -0.03006
84.4 -0.02659
84.45 -0.02615
84.5 -0.02471
84.55 -0.01978
84.6 -0.01642
84.65 -0.01257
84.7 -0.00918
84.75 -0.00522
84.8 -0.0004
84.85 0.00197
84.9 0.00135
84.95 -0.00083
85 -0.00494
85.05 -0.01174
85.1 -0.01637
85.15 -0.01635
85.2 -0.01188
85.25 -0.00434
85.3 0.00379
85.35 0.011
85.4 0.01156
85.45 0.00636
85.5 -0.00122
85.55 -0.00839
85.6 -0.01339
85.65 -0.0174
85.7 -0.01934
85.75 -0.01868
85.8 -0.02034
85.85 -0.02053
85.9 -0.02192
85.95 -0.02225
86 -0.02018
86.05 -0.02157
86.1 -0.02166
86.15 -0.01772
86.2 -0.01117
86.25 -0.00652
86.3 0.00018
86.35 0.00259
86.4 0.00356
86.45 0.00133
86.5 -0.00023
86.55 -0.00182
86.6 0.00133
86.65 0.00304
86.7 0.00035
86.75 0.00193
86.8 -0.00172
86.85 0.0006
86.9 0.00004
86.95 -0.00309
87 -0.00637
87.05 -0.00598
87.1 -0.00169
87.15 0.00469
87.2 0.00658
87.25 0.00828
87.3 0.00859
87.35 0.00492
87.4 0.00585
87.45 0.00311
87.5 0.00183
87.55 -0.00247
87.6 -0.00259
87.65 0.00082
87.7 0.00427
87.75 0.00665
87.8 0.01054
87.85 0.01606
87.9 0.01991
87.95 0.01718
88 0.01057
88.05 0.00561
88.1 0.00322
88.15 0.00565
88.2 0.00593
88.25 0.00871
88.3 0.00554
88.35 0.00252
88.4 -0.00371
88.45 -0.00328
88.5 0.00143
88.55 0.00314
88.6 0.0084
88.65 0.01533
88.7 0.01897
88.75 0.02318
88.8 0.02602
88.85 0.02269
88.9 0.02069
88.95 0.01312
89 0.0104
89.05 0.00432
89.1 0.00363
89.15 0.0006
89.2 0.00204
89.25 0.00657
89.3 0.01256
89.35 0.01469
89.4 0.01526
89.45 0.01796
89.5 0.01583
89.55 0.01497
89.6 0.01031
89.65 0.00506
89.7 -0.00203
89.75 -0.00812
89.8 -0.00894
89.85 -0.00736
89.9 -0.00683
89.95 -0.00181
90 0.00519
90.05 0.01211
90.1 0.01296
90.15 0.00825
90.2 0.00209
90.25 -0.00645
90.3 -0.01444
90.35 -0.0163
90.4 -0.01196
90.45 -0.00701
90.5 -0.00693
90.55 -0.01098
90.6 -0.01514
90.65 -0.02053
90.7 -0.02067
90.75 -0.01951
90.8 -0.01976
90.85 -0.01834
90.9 -0.01213
90.95 -0.01174
91 -0.00702
91.05 0.00003
91.1 0.00465
91.15 0.00955
91.2 0.01295
91.25 0.01433
91.3 0.01351
91.35 0.0122
91.4 0.01072
91.45 0.00917
91.5 0.01018
91.55 0.00974
91.6 0.00384
91.65 0.00237
91.7 -0.0015
91.75 -0.00231
91.8 -0.00423
91.85 -0.0033
91.9 -0.00654
91.95 -0.00989
92 -0.01359
92.05 -0.01364
92.1 -0.01096
92.15 -0.00812
92.2 -0.00136
92.25 -0.00158
92.3 0.00168
92.35 -0.0011
92.4 0.0014
92.45 0.00189
92.5 0.0015
92.55 -0.00295
92.6 -0.00259
92.65 -0.00519
92.7 -0.01035
92.75 -0.01734
92.8 -0.01974
92.85 -0.01974
92.9 -0.01541
92.95 -0.01245
93 -0.0139
93.05 -0.0115
93.1 -0.01209
93.15 -0.01547
93.2 -0.01282
93.25 -0.01108
93.3 -0.01046
93.35 -0.00625
93.4 -0.00128
93.45 0.00071
93.5 0.00272
93.55 0.00537
93.6 0.00538
93.65 0.00551
93.7 0.00133
93.75 -0.00193
93.8 -0.00232
93.85 -0.00225
93.9 -0.00303
93.95 0.00036
94 0.00353
94.05 0.00197
94.1 0.00529
94.15 0.00229
94.2 0.00101
94.25 0.00307
94.3 0.00683
94.35 0.01153
94.4 0.01687
94.45 0.02173
94.5 0.0252
94.55 0.0212
94.6 0.02095
94.65 0.0167
94.7 0.0162
94.75 0.01385
94.8 0.01011
94.85 0.00514
94.9 0.00309
94.95 -0.00161
95 -0.00534
95.05 -0.00933
95.1 -0.01456
95.15 -0.02104
95.2 -0.02386
95.25 -0.02314
95.3 -0.01968
95.35 -0.01844
95.4 -0.01298
95.45 -0.00988
95.5 -0.01155
95.55 -0.015
95.6 -0.01434
95.65 -0.01608
95.7 -0.01782
95.75 -0.02067
95.8 -0.02111
95.85 -0.02111
95.9 -0.02143
95.95 -0.01811
96 -0.01603
96.05 -0.01028
96.1 -0.00419
96.15 -0.00449
96.2 -0.00576
96.25 -0.00909
96.3 -0.01093
96.35 -0.01487
96.4 -0.0115
96.45 -0.00892
96.5 -0.00836
96.55 -0.00468
96.6 -0.00525
96.65 -0.00603
96.7 -0.00531
96.75 -0.00685
96.8 -0.00944
96.85 -0.00697
96.9 -0.00534
96.95 -0.00373
97 -0.00166
97.05 -0.00062
97.1 0.00009
97.15 -0.00003
97.2 0.00067
97.25 -0.0005
97.3 -0.00092
97.35 0.00053
97.4 -0.0012
97.45 -0.0062
97.5 -0.00578
97.55 -0.00759
97.6 -0.00765
97.65 -0.00827
97.7 -0.00812
97.75 -0.00408
97.8 -0.00031
97.85 0.00629
97.9 0.01278
97.95 0.01389
98 0.00925
98.05 0.00691
98.1 0.0065
98.15 0.0017
98.2 -0.00032
98.25 0.00072
98.3 0.00057
98.35 0.00405
98.4 0.00266
98.45 0.00541
98.5 0.00881
98.55 0.01034
98.6 0.0145
98.65 0.01883
98.7 0.02117
98.75 0.02336
98.8 0.02423
98.85 0.02537
98.9 0.02204
98.95 0.01634
99 0.01154
99.05 0.00662
99.1 0.0029
99.15 -0.00292
99.2 -0.00451
99.25 -0.002
99.3 0.00118
99.35 0.00499
99.4 0.00997
99.45 0.01025
99.5 0.0103
99.55 0.01028
99.6 0.01179
99.65 0.01165
99.7 0.01248
99.75 0.01387
99.8 0.0106
99.85 0.01046
99.9 0.0127
99.95 0.01276
