0 0
0.05 0.00081
0.1 0.00655
0.15 0.01642
0.2 0.0286
0.25 0.03417
0.3 0.03889
0.35 0.0443
0.4 0.05137
0.45 0.05816
0.5 0.06489
0.55 0.06393
0.6 0.06516
0.65 0.06372
0.7 0.05686
0.75 0.05326
0.8 0.05042
0.85 0.04393
0.9 0.04162
0.95 0.03912
1 0.03661
1.05 0.03169
1.1 0.03023
1.15 0.02953
1.2 0.03148
1.25 0.0366
1.3 0.03631
1.35 0.03997
1.4 0.04153
1.45 0.04316
1.5 0.04538
1.55 0.04504
1.6 0.04611
1.65 0.04956
1.7 0.04883
1.75 0.04464
1.8 0.03981
1.85 0.03348
1.9 0.02724
1.95 0.02377
2 0.01993
2.05 0.02161
2.1 0.02061
2.15 0.02151
2.2 0.02071
2.25 0.01822
2.3 0.01599
2.35 0.01944
2.4 0.02611
2.45 0.03213
2.5 0.03353
2.55 0.0371
2.6 0.04205
2.65 0.04581
2.7 0.04212
2.75 0.03573
2.8 0.0311
2.85 0.02822
2.9 0.02722
2.95 0.02972
3 0.02621
3.05 0.02518
3.1 0.02157
3.15 0.01992
3.2 0.01505
3.25 0.01284
3.3 0.00963
3.35 0.0123
3.4 0.01455
3.45 0.01633
3.5 0.01497
3.55 0.01351
3.6 0.01221
3.65 0.01351
3.7 0.01203
3.75 0.01369
3.8 0.01273
3.85 0.01603
3.9 0.01886
3.95 0.02352
4 0.02638
4.05 0.02654
4.1 0.02575
4.15 0.02297
4.2 0.02168
4.25 0.01798
4.3 0.01307
4.35 0.00657
4.4 -0.00019
4.45 -0.00598
4.5 -0.00566
4.55 -0.00869
4.6 -0.00831
4.65 -0.0087
4.7 -0.00951
4.75 -0.00759
4.8 -0.01138
4.85 -0.01901
4.9 -0.02671
4.95 -0.03649
5 -0.04832
5.05 -0.0602
5.1 -0.07452
5.15 -0.08907
5.2 -0.10029
5.25 -0.10799
5.3 -0.11694
5.35 -0.12727
5.4 -0.13347
5.45 -0.13974
5.5 -0.14345
5.55 -0.15225
5.6 -0.15785
5.65 -0.16152
5.7 -0.16743
5.75 -0.16727
5.8 -0.16808
5.85 -0.16189
5.9 -0.15206
5.95 -0.13904
6 -0.12251
6.05 -0.10815
6.1 -0.09001
6.15 -0.0659
6.2 -0.0452
6.25 -0.01864
6.3 0.00686
6.35 0.03231
6.4 0.06098
6.45 0.08645
6.5 0.10623
6.55 0.12504
6.6 0.14098
6.65 0.15556
6.7 0.1647
6.75 0.17259
6.8 0.18135
6.85 0.18575
6.9 0.18732
6.95 0.18047
7 0.17203
7.05 0.1608
7.1 0.15069
7.15 0.1397
7.2 0.12213
7.25 0.10244
7.3 0.08752
7.35 0.07263
7.4 0.05966
7.45 0.04715
7.5 0.03447
7.55 0.02728
7.6 0.01868
7.65 0.01347
7.7 0.01419
7.75 0.01597
7.8 0.0212
7.85 0.02836
7.9 0.03726
7.95 0.04364
8 0.04685
8.05 0.04591
8.1 0.04891
8.15 0.0525
8.2 0.05512
8.25 0.05723
8.3 0.05991
8.35 0.06489
8.4 0.06291
8.45 0.06049
8.5 0.05502
8.55 0.04761
8.6 0.04415
8.65 0.0451
8.7 0.04101
8.75 0.04044
8.8 0.0371
8.85 0.0342
8.9 0.03304
8.95 0.02953
9 0.03037
9.05 0.03202
9.1 0.03492
9.15 0.03731
9.2 0.03277
9.25 0.03108
9.3 0.02699
9.35 0.02099
9.4 0.01438
9.45 0.01048
9.5 0.00761
9.55 0.00451
9.6 0.00691
9.65 0.00984
9.7 0.01138
9.75 0.0109
9.8 0.01251
9.85 0.01351
9.9 0.01733
9.95 0.01662
10 0.01724
10.05 0.01753
10.1 0.01894
10.15 0.02036
10.2 0.02449
10.25 0.02805
10.3 0.03277
10.35 0.03428
10.4 0.0353
10.45 0.03714
10.5 0.03429
10.55 0.03184
10.6 0.02625
10.65 0.02174
10.7 0.02089
10.75 0.01538
10.8 0.0073
10.85 -0.00113
10.9 -0.00895
10.95 -0.01082
11 -0.01452
11.05 -0.01174
11.1 -0.00659
11.15 -0.00448
11.2 0.00018
11.25 0.00094
11.3 0.0042
11.35 0.00738
11.4 0.01014
11.45 0.01403
11.5 0.01145
11.55 0.01178
11.6 0.01283
11.65 0.01175
11.7 0.00571
11.75 -0.00133
11.8 -0.00591
11.85 -0.0065
11.9 -0.00681
11.95 -0.00883
12 -0.01278
12.05 -0.01398
12.1 -0.01167
12.15 -0.00714
12.2 -0.00749
12.25 -0.00967
12.3 -0.01183
12.35 -0.01469
12.4 -0.01837
12.45 -0.02216
12.5 -0.02106
12.55 -0.02044
12.6 -0.01782
12.65 -0.01226
12.7 -0.00655
12.75 -0.00073
12.8 0.00145
12.85 0.00516
12.9 0.00266
12.95 -0.00098
13 -0.00189
13.05 0.00016
13.1 -0.00309
13.15 -0.00394
13.2 -0.00334
13.25 -0.00661
13.3 -0.01017
13.35 -0.01123
13.4 -0.01515
13.45 -0.01937
13.5 -0.01861
13.55 -0.01477
13.6 -0.01229
13.65 -0.00768
13.7 -0.00201
13.75 -0.00091
13.8 -0.0007
13.85 -0.00513
13.9 -0.00891
13.95 -0.00836
14 -0.00678
14.05 -0.00875
14.1 -0.00858
14.15 -0.00751
14.2 -0.01075
14.25 -0.01444
14.3 -0.0151
14.35 -0.01587
14.4 -0.01773
14.45 -0.02042
14.5 -0.02473
14.55 -0.0251
14.6 -0.02773
14.65 -0.02461
14.7 -0.0184
14.75 -0.01595
14.8 -0.01245
14.85 -0.01225
14.9 -0.01191
14.95 -0.01143
15 -0.01262
15.05 -0.01068
15.1 -0.01244
15.15 -0.01715
15.2 -0.01986
15.25 -0.02028
15.3 -0.0212
15.35 -0.01758
15.4 -0.01272
15.45 -0.01149
15.5 -0.00965
15.55 -0.0118
15.6 -0.01485
15.65 -0.01694
15.7 -0.01331
15.75 -0.00889
15.8 -0.00955
15.85 -0.01262
15.9 -0.01681
15.95 -0.01588
16 -0.01757
16.05 -0.01623
16.1 -0.01209
16.15 -0.00837
16.2 -0.00259
16.25 -0.00165
16.3 0.00007
16.35 0.00174
16.4 0.0034
16.45 0.00786
16.5 0.00616
16.55 0.0029
16.6 -0.0017
16.65 -0.00834
16.7 -0.01621
16.75 -0.02234
16.8 -0.02095
16.85 -0.01791
16.9 -0.01561
16.95 -0.01618
17 -0.01404
17.05 -0.01448
17.1 -0.01768
17.15 -0.0167
17.2 -0.01591
17.25 -0.01696
17.3 -0.01683
17.35 -0.01143
17.4 -0.00829
17.45 -0.00597
17.5 -0.00079
17.55 0.00268
17.6 0.00194
17.65 0.00435
17.7 0.00608
17.75 0.01081
17.8 0.01341
17.85 0.01325
17.9 0.01117
17.95 0.00988
18 0.00953
18.05 0.00531
18.1 0.00596
18.15 0.00757
18.2 0.00677
18.25 0.00423
18.3 0.00357
18.35 0.00171
18.4 0.00264
18.45 0.00683
18.5 0.01214
18.55 0.01594
18.6 0.01783
18.65 0.01377
18.7 0.01019
18.75 0.00664
18.8 0.00621
18.85 0.00181
18.9 -0.00331
18.95 -0.00313
19 -0.0002
19.05 0.00122
19.1 0.00005
19.15 0.00046
19.2 0.00344
19.25 0.00611
19.3 0.00333
19.35 0.00047
19.4 -0.0011
19.45 0.00027
19.5 -0.00152
19.55 -0.00184
19.6 -0.0044
19.65 -0.00363
19.7 -0.00299
19.75 -0.00421
19.8 -0.00215
19.85 0.00219
19.9 0.00082
19.95 -0.00218
20 -0.00077
20.05 -0.00392
20.1 -0.0081
20.15 -0.00891
20.2 -0.00896
20.25 -0.0056
20.3 -0.00264
20.35 0.00086
20.4 0.00392
20.45 0.00648
20.5 0.00481
20.55 0.00369
20.6 0.00517
20.65 0.00814
20.7 0.00957
20.75 0.01314
20.8 0.01396
20.85 0.01551
20.9 0.01781
20.95 0.01375
21 0.00963
21.05 0.00774
21.1 0.00316
21.15 0.00214
21.2 0.00346
21.25 0.00518
21.3 0.00439
21.35 0.00217
21.4 0.00243
21.45 -0.00207
21.5 -0.0041
21.55 -0.00707
21.6 -0.00632
21.65 -0.00961
21.7 -0.00735
21.75 -0.00611
21.8 -0.00297
21.85 -0.00253
21.9 -0.00091
21.95 -0.00305
22 -0.00482
22.05 -0.00992
22.1 -0.01021
22.15 -0.00681
22.2 -0.00143
22.25 -0.00153
22.3 0.00121
22.35 0.00556
22.4 0.00692
22.45 0.00476
22.5 0.00481
22.55 0.00201
22.6 0.00158
22.65 0.00212
22.7 0.00273
22.75 0.00575
22.8 0.00922
22.85 0.01318
22.9 0.01371
22.95 0.01324
23 0.01216
23.05 0.00877
23.1 0.00261
23.15 -0.00406
23.2 -0.01057
23.25 -0.01009
23.3 -0.00734
23.35 -0.00282
23.4 0.00082
23.45 0.00587
23.5 0.00618
23.55 0.00464
23.6 -0.0012
23.65 -0.00599
23.7 -0.01251
23.75 -0.01264
23.8 -0.01157
23.85 -0.00837
23.9 -0.00283
23.95 -0.00118
24 -0.00145
24.05 -0.0006
24.1 -0.00287
24.15 -0.00666
24.2 -0.01223
24.25 -0.01716
24.3 -0.0154
24.35 -0.0103
24.4 -0.00507
24.45 -0.0039
24.5 -0.00659
24.55 -0.00477
24.6 -0.0038
24.65 -0.00623
24.7 -0.00376
24.75 -0.00222
24.8 -0.00315
24.85 -0.00082
24.9 -0.00194
24.95 -0.00555
25 -0.00925
25.05 -0.0145
25.1 -0.01672
25.15 -0.01973
25.2 -0.0168
25.25 -0.01512
25.3 -0.01392
25.35 -0.01151
25.4 -0.00611
25.45 0.00169
25.5 0.00716
25.55 0.0076
25.6 0.01134
25.65 0.00877
25.7 0.00962
25.75 0.01339
25.8 0.01805
25.85 0.02136
25.9 0.02425
25.95 0.02046
26 0.01545
26.05 0.01326
26.1 0.01152
26.15 0.01178
26.2 0.00786
26.25 0.00824
26.3 0.0043
26.35 0.00006
26.4 -0.00373
26.45 -0.00431
26.5 -0.00586
26.55 -0.00993
26.6 -0.00985
26.65 -0.00744
26.7 -0.00515
26.75 -0.0075
26.8 -0.00779
26.85 -0.00933
26.9 -0.0102
26.95 -0.01083
27 -0.0114
27.05 -0.01308
27.1 -0.01566
27.15 -0.01426
27.2 -0.01064
27.25 -0.00559
27.3 -0.00071
27.35 0.00123
27.4 -0.00109
27.45 -0.00344
27.5 -0.00578
27.55 -0.00765
27.6 -0.01416
27.65 -0.01755
27.7 -0.02606
27.75 -0.03048
27.8 -0.03982
27.85 -0.04756
27.9 -0.05851
27.95 -0.06786
28 -0.0841
28.05 -0.10106
28.1 -0.12403
28.15 -0.14965
28.2 -0.17632
28.25 -0.20823
28.3 -0.23719
28.35 -0.27047
28.4 -0.30566
28.45 -0.34477
28.5 -0.38824
28.55 -0.43725
28.6 -0.49667
28.65 -0.56017
28.7 -0.63009
28.75 -0.70706
28.8 -0.78574
28.85 -0.8672
28.9 -0.95128
28.95 -1.03868
29 -1.13521
29.05 -1.23806
29.1 -1.34258
29.15 -1.44283
29.2 -1.53982
29.25 -1.63686
29.3 -1.73576
29.35 -1.82802
29.4 -1.91268
29.45 -1.98842
29.5 -2.05768
29.55 -2.12122
29.6 -2.17821
29.65 -2.21986
29.7 -2.24958
29.75 -2.27129
29.8 -2.28063
29.85 -2.27893
29.9 -2.26505
29.95 -2.23421
30 -2.18912
30.05 -2.13641
30.1 -2.07325
30.15 -1.99305
30.2 -1.90119
30.25 -1.80304
30.3 -1.69633
30.35 -1.57949
30.4 -1.45014
30.45 -1.31678
30.5 -1.17707
30.55 -1.03153
30.6 -0.88699
30.65 -0.74052
30.7 -0.58954
30.75 -0.43852
30.8 -0.28272
30.85 -0.12978
30.9 0.01771
30.95 0.16034
31 0.30502
31.05 0.44684
31.1 0.58281
31.15 0.71711
31.2 0.84395
31.25 0.96155
31.3 1.07332
31.35 1.18176
31.4 1.27777
31.45 1.36601
31.5 1.44651
31.55 1.51783
31.6 1.5816
31.65 1.63834
31.7 1.69311
31.75 1.73911
31.8 1.78049
31.85 1.8184
31.9 1.84715
31.95 1.86943
32 1.88624
32.05 1.9034
32.1 1.91292
32.15 1.92437
32.2 1.93421
32.25 1.93574
32.3 1.93364
32.35 1.92944
32.4 1.92058
32.45 1.91459
32.5 1.90304
32.55 1.88951
32.6 1.87737
32.65 1.86696
32.7 1.85109
32.75 1.83552
32.8 1.81673
32.85 1.80029
32.9 1.78406
32.95 1.76263
33 1.73475
33.05 1.70312
33.1 1.66918
33.15 1.63811
33.2 1.60846
33.25 1.57652
33.3 1.54714
33.35 1.51209
33.4 1.47726
33.45 1.44193
33.5 1.40285
33.55 1.36003
33.6 1.31722
33.65 1.27684
33.7 1.23084
33.75 1.18168
33.8 1.13507
33.85 1.09268
33.9 1.04651
33.95 1.00015
34 0.95368
34.05 0.90489
34.1 0.86108
34.15 0.82056
34.2 0.78002
34.25 0.74166
34.3 0.70283
34.35 0.65956
34.4 0.61446
34.45 0.57378
34.5 0.52962
34.55 0.48956
34.6 0.45088
34.65 0.41649
34.7 0.37795
34.75 0.34045
34.8 0.30789
34.85 0.27465
34.9 0.24236
34.95 0.20862
35 0.17598
35.05 0.1468
35.1 0.11772
35.15 0.08765
35.2 0.05977
35.25 0.03665
35.3 0.0171
35.35 0.0005
35.4 -0.01908
35.45 -0.04175
35.5 -0.06529
35.55 -0.08806
35.6 -0.10572
35.65 -0.12063
35.7 -0.13729
35.75 -0.15351
35.8 -0.16567
35.85 -0.17533
35.9 -0.18828
35.95 -0.19876
36 -0.20669
36.05 -0.21455
36.1 -0.22691
36.15 -0.24022
36.2 -0.25237
36.25 -0.26047
36.3 -0.27145
36.35 -0.28423
36.4 -0.2969
36.45 -0.30536
36.5 -0.3082
36.55 -0.30763
36.6 -0.30698
36.65 -0.30638
36.7 -0.30968
36.75 -0.31449
36.8 -0.31693
36.85 -0.3186
36.9 -0.31855
36.95 -0.31757
37 -0.3175
37.05 -0.31573
37.1 -0.31873
37.15 -0.3201
37.2 -0.32505
37.25 -0.32449
37.3 -0.32759
37.35 -0.32946
37.4 -0.33261
37.45 -0.33464
37.5 -0.3377
37.55 -0.33573
37.6 -0.32775
37.65 -0.3168
37.7 -0.3066
37.75 -0.29829
37.8 -0.2966
37.85 -0.29577
37.9 -0.29111
37.95 -0.28996
38 -0.28437
38.05 -0.27751
38.1 -0.2733
38.15 -0.27273
38.2 -0.27542
38.25 -0.27199
38.3 -0.27125
38.35 -0.2656
38.4 -0.26167
38.45 -0.26172
38.5 -0.26185
38.55 -0.26017
38.6 -0.25637
38.65 -0.25057
38.7 -0.24808
38.75 -0.24826
38.8 -0.24383
38.85 -0.23918
38.9 -0.23239
38.95 -0.22372
39 -0.21703
39.05 -0.21574
39.1 -0.21463
39.15 -0.21244
39.2 -0.20646
39.25 -0.20262
39.3 -0.20106
39.35 -0.195
39.4 -0.19202
39.45 -0.18686
39.5 -0.18029
39.55 -0.17703
39.6 -0.17531
39.65 -0.17041
39.7 -0.16681
39.75 -0.16311
39.8 -0.16313
39.85 -0.16399
39.9 -0.16216
39.95 -0.15996
40 -0.16085
40.05 -0.16344
40.1 -0.16155
40.15 -0.15694
40.2 -0.15036
40.25 -0.1483
40.3 -0.14688
40.35 -0.14862
40.4 -0.14965
40.45 -0.15215
40.5 -0.14898
40.55 -0.14919
40.6 -0.14723
40.65 -0.14827
40.7 -0.14507
40.75 -0.14367
40.8 -0.13743
40.85 -0.12921
40.9 -0.12668
40.95 -0.12285
41 -0.12036
41.05 -0.12166
41.1 -0.11887
41.15 -0.11212
41.2 -0.10869
41.25 -0.10906
41.3 -0.10952
41.35 -0.10877
41.4 -0.10521
41.45 -0.10573
41.5 -0.10863
41.55 -0.1108
41.6 -0.11264
41.65 -0.11376
41.7 -0.11627
41.75 -0.11334
41.8 -0.10809
41.85 -0.10106
41.9 -0.09593
41.95 -0.09563
42 -0.09561
42.05 -0.09363
42.1 -0.09217
42.15 -0.09398
42.2 -0.09705
42.25 -0.10079
42.3 -0.09958
42.35 -0.09264
42.4 -0.08631
42.45 -0.08258
42.5 -0.07479
42.55 -0.07289
42.6 -0.06836
42.65 -0.0691
42.7 -0.07157
42.75 -0.06849
42.8 -0.0686
42.85 -0.06463
42.9 -0.06409
42.95 -0.05964
43 -0.05299
43.05 -0.05159
43.1 -0.05139
43.15 -0.05382
43.2 -0.05384
43.25 -0.05419
43.3 -0.05054
43.35 -0.04423
43.4 -0.04303
43.45 -0.04056
43.5 -0.04291
43.55 -0.04317
43.6 -0.04494
43.65 -0.04805
43.7 -0.048
43.75 -0.05007
43.8 -0.04807
43.85 -0.04794
43.9 -0.04864
43.95 -0.04602
44 -0.04479
44.05 -0.04553
44.1 -0.04931
44.15 -0.05239
44.2 -0.04937
44.25 -0.0489
44.3 -0.04387
44.35 -0.04197
44.4 -0.04379
44.45 -0.04638
44.5 -0.04996
44.55 -0.05049
44.6 -0.0463
44.65 -0.03927
44.7 -0.03131
44.75 -0.02944
44.8 -0.02512
44.85 -0.02544
44.9 -0.02956
44.95 -0.03378
45 -0.03469
45.05 -0.03537
45.1 -0.03136
45.15 -0.025
45.2 -0.0172
45.25 -0.01192
45.3 -0.00883
45.35 -0.012
45.4 -0.01689
45.45 -0.0239
45.5 -0.03246
45.55 -0.03376
45.6 -0.03116
45.65 -0.03191
45.7 -0.032
45.75 -0.02853
45.8 -0.02302
45.85 -0.01624
45.9 -0.00977
45.95 -0.00464
46 0.00002
46.05 0.00244
46.1 0.00249
46.15 0.00101
46.2 -0.00506
46.25 -0.00809
46.3 -0.01393
46.35 -0.01703
46.4 -0.01793
46.45 -0.01855
46.5 -0.0175
46.55 -0.02082
46.6 -0.02628
46.65 -0.02583
46.7 -0.02586
46.75 -0.02526
46.8 -0.02792
46.85 -0.03181
46.9 -0.03233
46.95 -0.03361
47 -0.03146
47.05 -0.02691
47.1 -0.02467
47.15 -0.02507
47.2 -0.02168
47.25 -0.01821
47.3 -0.01779
47.35 -0.01336
47.4 -0.00756
47.45 -0.00685
47.5 -0.00477
47.55 -0.00096
47.6 -0.0026
47.65 -0.00191
47.7 -0.00499
47.75 -0.00636
47.8 -0.01037
47.85 -0.0144
47.9 -0.01786
47.95 -0.02013
48 -0.02399
48.05 -0.02877
48.1 -0.02788
48.15 -0.02664
48.2 -0.02697
48.25 -0.02633
48.3 -0.02824
48.35 -0.02404
48.4 -0.01797
48.45 -0.00973
48.5 -0.00867
48.55 -0.00813
48.6 -0.00946
48.65 -0.00929
48.7 -0.01041
48.75 -0.01379
48.8 -0.0182
48.85 -0.01948
48.9 -0.0234
48.95 -0.02756
49 -0.02452
49.05 -0.01882
49.1 -0.01295
49.15 -0.01161
49.2 -0.01371
49.25 -0.0119
49.3 -0.00754
49.35 -0.00557
49.4 -0.0037
49.45 0.00084
49.5 -0.00083
49.55 -0.00044
49.6 -0.00412
49.65 -0.00482
49.7 -0.00457
49.75 -0.00747
49.8 -0.01305
49.85 -0.01652
49.9 -0.02158
49.95 -0.025
50 -0.02467
50.05 -0.0216
50.1 -0.02021
50.15 -0.017
50.2 -0.01732
50.25 -0.01323
50.3 -0.00732
50.35 -0.00617
50.4 -0.00837
50.45 -0.01016
50.5 -0.0068
50.55 -0.00725
50.6 -0.01142
50.65 -0.01446
50.7 -0.01799
50.75 -0.01996
50.8 -0.02387
50.85 -0.0247
50.9 -0.02651
50.95 -0.02272
51 -0.01566
51.05 -0.00944
51.1 -0.00892
51.15 -0.01199
51.2 -0.0121
51.25 -0.00727
51.3 -0.00667
51.35 -0.0062
51.4 -0.00239
51.45 0.0026
51.5 0.00535
51.55 0.00347
51.6 0.00526
51.65 0.0042
51.7 0.00155
51.75 0.00112
51.8 -0.00042
51.85 0.00193
51.9 0.00138
51.95 0.00194
52 0.00411
52.05 0.00919
52.1 0.00929
52.15 0.00996
52.2 0.00727
52.25 0.00832
52.3 0.00511
52.35 0.00224
52.4 -0.00088
52.45 -0.00578
52.5 -0.00683
52.55 -0.00788
52.6 -0.01139
52.65 -0.01313
52.7 -0.01283
52.75 -0.01463
52.8 -0.01168
52.85 -0.0106
52.9 -0.01133
52.95 -0.01374
53 -0.01412
53.05 -0.01284
53.1 -0.01223
53.15 -0.00758
53.2 -0.00457
53.25 -0.00057
53.3 0.00064
53.35 0.00092
53.4 0.00484
53.45 0.00549
53.5 0.00939
53.55 0.01426
53.6 0.01487
53.65 0.01457
53.7 0.01193
53.75 0.00565
53.8 0.00047
53.85 -0.00042
53.9 0.00088
53.95 0.00054
54 -0.00192
54.05 -0.00326
54.1 -0.00329
54.15 0.00075
54.2 0.00472
54.25 0.0067
54.3 0.00734
54.35 0.00761
54.4 0.00458
54.45 -0.00072
54.5 -0.00299
54.55 -0.00692
54.6 -0.00622
54.65 -0.00313
54.7 -0.00043
54.75 0.00173
54.8 0.00147
54.85 0.00476
54.9 0.00842
54.95 0.00766
55 0.00601
55.05 0.0021
55.1 -0.00068
55.15 0.00073
55.2 -0.00109
55.25 -0.0027
55.3 -0.0066
55.35 -0.00901
55.4 -0.00804
55.45 -0.00848
55.5 -0.00904
55.55 -0.01041
55.6 -0.00948
55.65 -0.00622
55.7 -0.00253
55.75 -0.00249
55.8 -0.00557
55.85 -0.01095
55.9 -0.01068
55.95 -0.00682
56 -0.00329
56.05 -0.00088
56.1 0.00019
56.15 -0.00197
56.2 -0.0037
56.25 -0.00306
56.3 -0.00396
56.35 -0.00478
56.4 -0.00722
56.45 -0.01107
56.5 -0.0131
56.55 -0.01089
56.6 -0.00609
56.65 -0.00205
56.7 -0.00261
56.75 -0.00303
56.8 -0.00319
56.85 -0.00594
56.9 -0.00589
56.95 -0.00146
57 -0.00103
57.05 -0.00142
57.1 0.00007
57.15 -0.00226
57.2 -0.00505
57.25 -0.0029
57.3 -0.00038
57.35 -0.00066
57.4 -0.00337
57.45 -0.00871
57.5 -0.01242
57.55 -0.01472
57.6 -0.01123
57.65 -0.00827
57.7 -0.0036
57.75 -0.00128
57.8 0.00226
57.85 0.00837
57.9 0.01217
57.95 0.01064
58 0.00968
58.05 0.00877
58.1 0.00486
58.15 0.00244
58.2 -0.0031
58.25 -0.00399
58.3 -0.00043
58.35 0.00296
58.4 0.00459
58.45 0.0069
58.5 0.00754
58.55 0.0056
58.6 0.00254
58.65 0.00213
58.7 0.00136
58.75 -0.00306
58.8 -0.00206
58.85 0.0004
58.9 -0.00207
58.95 -0.00327
59 -0.00404
59.05 -0.00655
59.1 -0.00521
59.15 -0.0043
59.2 -0.00551
59.25 -0.00664
59.3 -0.00659
59.35 -0.00267
59.4 -0.00394
59.45 -0.00437
59.5 -0.0008
59.55 -0.00229
59.6 -0.00315
59.65 -0.00164
59.7 -0.00114
59.75 -0.00366
59.8 -0.00553
59.85 -0.00323
59.9 0.00111
59.95 0.00184
60 -0.00182
60.05 -0.00592
60.1 -0.00969
60.15 -0.01098
60.2 -0.00681
60.25 -0.00142
60.3 0.00075
60.35 0.00393
60.4 0.0026
60.45 -0.00074
60.5 -0.001
60.55 0.00116
60.6 0.00629
60.65 0.01171
60.7 0.01759
60.75 0.02012
60.8 0.01966
60.85 0.02192
60.9 0.02454
60.95 0.02028
61 0.01306
61.05 0.00402
61.1 -0.00084
61.15 -0.00185
61.2 -0.00389
61.25 -0.00849
61.3 -0.01315
61.35 -0.01848
61.4 -0.01895
61.45 -0.01839
61.5 -0.01306
61.55 -0.0045
61.6 -0.00052
61.65 0.00598
61.7 0.01104
61.75 0.01027
61.8 0.00795
61.85 0.00554
61.9 0.00223
61.95 -0.00233
62 -0.00763
62.05 -0.01284
62.1 -0.01702
62.15 -0.01834
62.2 -0.01358
62.25 -0.0116
62.3 -0.01208
62.35 -0.00974
62.4 -0.0042
62.45 0.00264
62.5 0.00532
62.55 0.00289
62.6 -0.00108
62.65 -0.00124
62.7 -0.00442
62.75 -0.01003
62.8 -0.0155
62.85 -0.01512
62.9 -0.01377
62.95 -0.00902
63 -0.00475
63.05 -0.00402
63.1 -0.0063
63.15 -0.00856
63.2 -0.00792
63.25 -0.0107
63.3 -0.01484
63.35 -0.01747
63.4 -0.01615
63.45 -0.00983
63.5 -0.00075
63.55 0.00713
63.6 0.01385
63.65 0.01664
63.7 0.02153
63.75 0.02377
63.8 0.02287
63.85 0.018
63.9 0.01285
63.95 0.00816
64 0.00691
64.05 0.00205
64.1 -0.00033
64.15 0.00205
64.2 0.00308
64.25 0.00717
64.3 0.00647
64.35 0.00761
64.4 0.01164
64.45 0.01463
64.5 0.01442
64.55 0.01592
64.6 0.01672
64.65 0.01757
64.7 0.01425
64.75 0.00684
64.8 0.00502
64.85 0.00733
64.9 0.00543
64.95 0.00379
65 0.00043
65.05 -0.00202
65.1 -0.00555
65.15 -0.00359
65.2 0.00039
65.25 0.00149
65.3 -0.00212
65.35 -0.00742
65.4 -0.0131
65.45 -0.01153
65.5 -0.00664
65.55 -0.00106
65.6 -0.00035
65.65 -0.00119
65.7 -0.00223
65.75 -0.00047
65.8 0.00111
65.85 -0.00046
65.9 -0.0046
65.95 -0.00806
66 -0.01086
66.05 -0.01178
66.1 -0.01344
66.15 -0.01491
66.2 -0.01494
66.25 -0.01619
66.3 -0.01413
66.35 -0.00937
66.4 -0.00247
66.45 0.0015
66.5 0.00283
66.55 0.00095
66.6 -0.00407
66.65 -0.00548
66.7 -0.00795
66.75 -0.00962
66.8 -0.0137
66.85 -0.01109
66.9 -0.00869
66.95 -0.0063
67 -0.00324
67.05 -0.00422
67.1 -0.00547
67.15 -0.00807
67.2 -0.00536
67.25 -0.00634
67.3 -0.00357
67.35 0.00252
67.4 0.00373
67.45 0.00162
67.5 0.00228
67.55 0.00145
67.6 0.00036
67.65 0.00043
67.7 -0.00076
67.75 0.00045
67.8 0.00273
67.85 0.00658
67.9 0.0077
67.95 0.00398
68 0.0041
68.05 0.00599
68.1 0.00708
68.15 0.01084
68.2 0.00942
68.25 0.00407
68.3 0.00231
68.35 -0.00064
68.4 -0.00436
68.45 -0.01
68.5 -0.01451
68.55 -0.01395
68.6 -0.00971
68.65 -0.00243
68.7 0.00615
68.75 0.01283
68.8 0.01282
68.85 0.01583
68.9 0.0152
68.95 0.00962
69 0.00669
69.05 0.00435
69.1 0.00283
69.15 -0.00148
69.2 -0.00031
69.25 0.00024
69.3 -0.00239
69.35 -0.00131
69.4 0.00111
69.45 0.0066
69.5 0.01293
69.55 0.01351
69.6 0.01444
69.65 0.01179
69.7 0.00609
69.75 0.00318
69.8 0.00123
69.85 0.00261
69.9 0.00011
69.95 -0.00403
70 -0.00821
70.05 -0.01028
70.1 -0.00714
70.15 -0.00712
70.2 -0.0062
70.25 -0.00132
70.3 0.00178
70.35 0.00783
70.4 0.01146
70.45 0.0131
70.5 0.01635
70.55 0.01673
70.6 0.01931
70.65 0.01828
70.7 0.01519
70.75 0.00809
70.8 0.00464
70.85 -0.00177
70.9 -0.0025
70.95 0.00061
71 0.00235
71.05 0.00102
71.1 0.00211
71.15 -0.00131
71.2 -0.00589
71.25 -0.00806
71.3 -0.00901
71.35 -0.01123
71.4 -0.0117
71.45 -0.0084
71.5 -0.0036
71.55 0.00097
71.6 0.00644
71.65 0.01315
71.7 0.01685
71.75 0.016
71.8 0.01581
71.85 0.01785
71.9 0.02034
71.95 0.02363
72 0.02519
72.05 0.02184
72.1 0.01819
72.15 0.01804
72.2 0.02001
72.25 0.01587
72.3 0.01084
72.35 0.00907
72.4 0.00474
72.45 0.00377
72.5 0.00048
72.55 -0.00266
72.6 -0.00354
72.65 -0.00779
72.7 -0.01338
72.75 -0.01869
72.8 -0.02252
72.85 -0.02735
72.9 -0.03057
72.95 -0.03229
73 -0.02938
73.05 -0.02321
73.1 -0.02019
73.15 -0.01974
73.2 -0.01459
73.25 -0.00724
73.3 -0.003
73.35 0.00201
73.4 0.00182
73.45 0.00206
73.5 0.00607
73.55 0.00812
73.6 0.01005
73.65 0.01237
73.7 0.01525
73.75 0.0182
73.8 0.02236
73.85 0.02639
73.9 0.02942
73.95 0.02451
74 0.02024
74.05 0.01383
74.1 0.00683
74.15 0.00101
74.2 -0.00207
74.25 -0.00794
74.3 -0.00985
74.35 -0.01313
74.4 -0.01153
74.45 -0.00719
74.5 -0.00628
74.55 -0.00888
74.6 -0.00614
74.65 -0.00255
74.7 0.00381
74.75 0.00528
74.8 0.00317
74.85 0.00036
74.9 -0.0047
74.95 -0.00482
75 -0.00636
75.05 -0.00922
75.1 -0.00978
75.15 -0.0092
75.2 -0.00751
75.25 -0.00896
75.3 -0.0065
75.35 -0.00491
75.4 -0.0045
75.45 -0.00662
75.5 -0.00713
75.55 -0.00387
75.6 0.00006
75.65 0.00651
75.7 0.01215
75.75 0.01717
75.8 0.01717
75.85 0.0144
75.9 0.01319
75.95 0.01135
76 0.01009
76.05 0.01087
76.1 0.01027
76.15 0.00556
76.2 -0.00231
76.25 -0.00414
76.3 -0.00364
76.35 -0.00561
76.4 -0.0103
76.45 -0.01662
76.5 -0.02295
76.55 -0.02888
76.6 -0.02838
76.65 -0.02926
76.7 -0.02581
76.75 -0.02302
76.8 -0.02178
76.85 -0.01556
76.9 -0.01194
76.95 -0.00755
77 -0.00183
77.05 0.00419
77.1 0.00756
77.15 0.00885
77.2 0.0081
77.25 0.00515
77.3 0.00216
77.35 -0.00094
77.4 0.00049
77.45 0.00098
77.5 0.00234
77.55 -0.00042
77.6 -0.00158
77.65 -0.00591
77.7 -0.00765
77.75 -0.00935
77.8 -0.00722
77.85 -0.00365
77.9 0.00228
77.95 0.00593
78 0.00558
78.05 0.00206
78.1 -0.00435
78.15 -0.00432
78.2 -0.0057
78.25 -0.00735
78.3 -0.00487
78.35 -0.00109
78.4 0.00319
78.45 0.00846
78.5 0.00883
78.55 0.00698
78.6 0.00938
78.65 0.01077
78.7 0.0112
78.75 0.01438
78.8 0.01487
78.85 0.01611
78.9 0.01887
78.95 0.01819
79 0.01893
79.05 0.02159
79.1 0.0202
79.15 0.01958
79.2 0.01415
79.25 0.00727
79.3 0.00559
79.35 0.00117
79.4 -0.00202
79.45 -0.00135
79.5 0.00154
79.55 0.00581
79.6 0.00669
79.65 0.0103
79.7 0.01284
79.75 0.01043
79.8 0.01065
79.85 0.0126
79.9 0.00993
79.95 0.00573
80 0.00452
80.05 -0.00074
80.1 -0.00775
80.15 -0.01304
80.2 -0.01305
80.25 -0.01204
80.3 -0.00939
80.35 -0.00988
80.4 -0.01129
80.45 -0.00939
80.5 -0.00616
80.55 -0.00486
80.6 -0.00631
80.65 -0.00345
80.7 -0.00199
80.75 -0.00285
80.8 -0.00723
80.85 -0.00779
80.9 -0.00415
80.95 -0.00209
81 0.00025
81.05 0.00495
81.1 0.01043
81.15 0.01175
81.2 0.01079
81.25 0.00977
81.3 0.00601
81.35 -0.00116
81.4 -0.00744
81.45 -0.00745
81.5 -0.01002
81.55 -0.01388
81.6 -0.01163
81.65 -0.00751
81.7 -0.00582
81.75 -0.001
81.8 0.00243
81.85 0.00511
81.9 0.00221
81.95 -0.00021
82 -0.00499
82.05 -0.0114
82.1 -0.01708
82.15 -0.01591
82.2 -0.01614
82.25 -0.01803
82.3 -0.02157
82.35 -0.02187
82.4 -0.02188
82.45 -0.02116
82.5 -0.01683
82.55 -0.01076
82.6 -0.00719
82.65 -0.00714
82.7 -0.0045
82.75 -0.00519
82.8 -0.00521
82.85 -0.00441
82.9 -0.00454
82.95 -0.00174
83 0.00194
83.05 0.00293
83.1 -0.00071
83.15 -0.00548
83.2 -0.01036
83.25 -0.01093
83.3 -0.00642
83.35 -0.00245
83.4 -0.00251
83.45 -0.0041
83.5 -0.00237
83.55 0.0013
83.6 0.00269
83.65 -0.00016
83.7 -0.00202
83.75 -0.00666
83.8 -0.01197
83.85 -0.01016
83.9 -0.00893
83.95 -0.00584
84 -0.00439
84.05 -0.00596
84.1 -0.00455
84.15 -0.00021
84.2 -0.00016
84.25 -0.00068
84.3 -0.00134
84.35 0.00145
84.4 0.00535
84.45 0.00618
84.5 0.00262
84.55 0.00307
84.6 0.00438
84.65 0.00694
84.7 0.00432
84.75 0.00265
84.8 0.00409
84.85 0.0035
84.9 0.00249
84.95 0.00061
85 -0.00189
85.05 -0.00685
85.1 -0.00747
85.15 -0.0038
85.2 -0.00221
85.25 0.00258
85.3 0.00695
85.35 0.01083
85.4 0.00895
85.45 0.00462
85.5 0.00028
85.55 -0.00642
85.6 -0.00983
85.65 -0.01091
85.7 -0.00846
85.75 -0.00424
85.8 0.00007
85.85 0.00183
85.9 0.00571
85.95 0.00857
86 0.0124
86.05 0.01327
86.1 0.00986
86.15 0.0074
86.2 0.00925
86.25 0.00596
86.3 0.0053
86.35 0.00542
86.4 0.00365
86.45 0.00631
86.5 0.01108
86.55 0.01181
86.6 0.00824
86.65 0.00496
86.7 0.00209
86.75 -0.00275
86.8 -0.00906
86.85 -0.0155
86.9 -0.02088
86.95 -0.02381
87 -0.02292
87.05 -0.02292
87.1 -0.02224
87.15 -0.0173
87.2 -0.01066
87.25 -0.00606
87.3 -0.00415
87.35 -0.00347
87.4 -0.00088
87.45 -0.00235
87.5 -0.00424
87.55 -0.0065
87.6 -0.0097
87.65 -0.01216
87.7 -0.00906
87.75 -0.0034
87.8 0.0029
87.85 0.00664
87.9 0.00633
87.95 0.00798
88 0.00483
88.05 -0.00002
88.1 -0.00184
88.15 -0.006
88.2 -0.00667
88.25 -0.01009
88.3 -0.00968
88.35 -0.01091
88.4 -0.0104
88.45 -0.01054
88.5 -0.00658
88.55 -0.00632
88.6 -0.00922
88.65 -0.0108
88.7 -0.01064
88.75 -0.01068
88.8 -0.00951
88.85 -0.00945
88.9 -0.01029
88.95 -0.01176
89 -0.00815
89.05 -0.00254
89.1 0.00429
89.15 0.00523
89.2 0.00263
89.25 -0.00281
89.3 -0.0028
89.35 -0.00169
89.4 -0.00118
89.45 -0.00126
89.5 -0.00357
89.55 -0.00109
89.6 0.00113
89.65 0.00318
89.7 0.00415
89.75 0.00713
89.8 0.0046
89.85 0.00583
89.9 0.00841
89.95 0.0055
90 0.00672
90.05 0.00523
90.1 0.00303
90.15 0.00575
90.2 0.00706
90.25 0.0035
90.3 0.00518
90.35 0.00539
90.4 0.00203
90.45 -0.00109
90.5 -0.00437
90.55 -0.00409
90.6 0.00042
90.65 0.00488
90.7 0.01008
90.75 0.01647
90.8 0.01943
90.85 0.02119
90.9 0.02314
90.95 0.02323
91 0.01829
91.05 0.01593
91.1 0.01473
91.15 0.01333
91.2 0.0103
91.25 0.00889
91.3 0.0111
91.35 0.00916
91.4 0.00783
91.45 0.00999
91.5 0.0099
91.55 0.00716
91.6 0.00359
91.65 -0.00181
91.7 -0.00875
91.75 -0.01548
91.8 -0.01717
91.85 -0.01369
91.9 -0.0093
91.95 -0.00214
92 -0.00101
92.05 -0.00109
92.1 -0.00181
92.15 0.00118
92.2 0.00542
92.25 0.00687
92.3 0.01069
92.35 0.01364
92.4 0.01228
92.45 0.00924
92.5 0.00499
92.55 0.00358
92.6 0.00258
92.65 0.00278
92.7 0.0033
92.75 0.00104
92.8 -0.00116
92.85 -0.00398
92.9 -0.00547
92.95 -0.00742
93 -0.00762
93.05 -0.00822
93.1 -0.01094
93.15 -0.01568
93.2 -0.01352
93.25 -0.01367
93.3 -0.00937
93.35 -0.00285
93.4 0.00042
93.45 0.00419
93.5 0.00941
93.55 0.01423
93.6 0.01905
93.65 0.01926
93.7 0.01899
93.75 0.01901
93.8 0.01762
93.85 0.01496
93.9 0.01261
93.95 0.00704
94 0.005
94.05 0.00316
94.1 -0.00029
94.15 -0.0054
94.2 -0.00674
94.25 -0.00309
94.3 0.00284
94.35 0.00841
94.4 0.00709
94.45 0.0014
94.5 -0.00125
94.55 0.00003
94.6 0.00146
94.65 -0.00003
94.7 -0.00454
94.75 -0.0084
94.8 -0.00881
94.85 -0.01104
94.9 -0.01116
94.95 -0.01091
95 -0.00617
95.05 -0.00272
95.1 0.00254
95.15 0.00951
95.2 0.01565
95.25 0.01905
95.3 0.01726
95.35 0.01194
95.4 0.01062
95.45 0.01242
95.5 0.01633
95.55 0.0192
95.6 0.02101
95.65 0.01593
95.7 0.01245
95.75 0.00581
95.8 -0.00161
95.85 -0.00413
95.9 -0.00378
95.95 -0.00608
96 -0.00651
96.05 -0.006
96.1 -0.00286
96.15 -0.0033
96.2 -0.00062
96.25 -0.00239
96.3 0.00006
96.35 0.00155
96.4 0.00525
96.45 0.00973
96.5 0.00829
96.55 0.00579
96.6 0.00038
96.65 -0.00536
96.7 -0.00676
96.75 -0.0109
96.8 -0.01355
96.85 -0.01636
96.9 -0.01458
96.95 -0.00885
97 -0.00248
97.05 0.00138
97.1 0.00097
97.15 0.00435
97.2 0.00253
97.25 -0.003
97.3 -0.00456
97.35 -0.0044
97.4 -0.00253
97.45 -0.0034
97.5 -0.00775
97.55 -0.00794
97.6 -0.00745
97.65 -0.00924
97.7 -0.01226
97.75 -0.01174
97.8 -0.01285
97.85 -0.01202
97.9 -0.00998
97.95 -0.00923
98 -0.00426
98.05 0.00183
98.1 0.00645
98.15 0.00531
98.2 0.00052
98.25 0.00045
98.3 0.00008
98.35 0.00229
98.4 0.00513
98.45 0.00783
98.5 0.01204
98.55 0.00936
98.6 0.00395
98.65 0.00087
98.7 0.00047
98.75 0.00034
98.8 -0.00058
98.85 0.00228
98.9 0.00211
98.95 0.00242
99 0.0015
99.05 0.00064
99.1 -0.00343
99.15 -0.00923
99.2 -0.01514
99.25 -0.01626
99.3 -0.01186
99.35 -0.0053
99.4 0.00194
99.45 0.00335
99.5 0.00153
99.55 0.00172
99.6 -0.00077
99.65 -0.00343
99.7 -0.00836
99.75 -0.01372
99.8 -0.01482
99.85 -0.01585
99.9 -0.01497
99.95 -0.0098
