0 0
0.05 0.00262
0.1 0.00533
0.15 0.00755
0.2 0.01228
0.25 0.0199
0.3 0.02985
0.35 0.0382
0.4 0.04666
0.45 0.05028
0.5 0.0548
0.55 0.05735
0.6 0.05911
0.65 0.06203
0.7 0.06215
0.75 0.06238
0.8 0.06123
0.85 0.05489
0.9 0.05067
0.95 0.04899
1 0.04885
1.05 0.04992
1.1 0.05225
1.15 0.05203
1.2 0.05021
1.25 0.044
1.3 0.03928
1.35 0.03207
1.4 0.02832
1.45 0.02868
1.5 0.02753
1.55 0.02978
1.6 0.0297
1.65 0.02688
1.7 0.02734
1.75 0.02722
1.8 0.02951
1.85 0.02952
1.9 0.02992
1.95 0.02887
2 0.031
2.05 0.03389
2.1 0.03169
2.15 0.02804
2.2 0.02458
2.25 0.02013
2.3 0.01888
2.35 0.02074
2.4 0.02394
2.45 0.02608
2.5 0.02506
2.55 0.02296
2.6 0.02033
2.65 0.01892
2.7 0.01488
2.75 0.01136
2.8 0.01236
2.85 0.01618
2.9 0.0215
2.95 0.02116
3 0.02146
3.05 0.01754
3.1 0.01487
3.15 0.01166
3.2 0.01202
3.25 0.00897
3.3 0.00598
3.35 0.00451
3.4 0.00109
3.45 -0.00296
3.5 -0.00104
3.55 0.00495
3.6 0.01175
3.65 0.01773
3.7 0.01772
3.75 0.01507
3.8 0.01399
3.85 0.01285
3.9 0.01527
3.95 0.01381
4 0.01592
4.05 0.01494
4.1 0.01737
4.15 0.02185
4.2 0.02026
4.25 0.01626
4.3 0.01201
4.35 0.01002
4.4 0.01028
4.45 0.01238
4.5 0.01562
4.55 0.01488
4.6 0.01217
4.65 0.00707
4.7 0.00456
4.75 0.00655
4.8 0.0109
4.85 0.01192
4.9 0.0144
4.95 0.01178
5 0.01193
5.05 0.00885
5.1 0.00592
5.15 0.00565
5.2 0.00604
5.25 0.00482
5.3 0.00226
5.35 0.00106
5.4 0.00123
5.45 0.00515
5.5 0.00827
5.55 0.00798
5.6 0.01103
5.65 0.01004
5.7 0.00984
5.75 0.00825
5.8 0.01008
5.85 0.00728
5.9 0.00132
5.95 -0.00358
6 -0.00628
6.05 -0.01005
6.1 -0.0087
6.15 -0.00666
6.2 -0.00703
6.25 -0.00942
6.3 -0.00682
6.35 -0.00325
6.4 -0.00197
6.45 0.00037
6.5 0.00477
6.55 0.0059
6.6 0.00388
6.65 0.00045
6.7 -0.00583
6.75 -0.0118
6.8 -0.01251
6.85 -0.01228
6.9 -0.01248
6.95 -0.01001
7 -0.00661
7.05 -0.00757
7.1 -0.00985
7.15 -0.01083
7.2 -0.01021
7.25 -0.00827
7.3 -0.00838
7.35 -0.0061
7.4 -0.00401
7.45 -0.00531
7.5 -0.00909
7.55 -0.01093
7.6 -0.00976
7.65 -0.00488
7.7 -0.00342
7.75 -0.00389
7.8 -0.00126
7.85 -0.00044
7.9 0.00385
7.95 0.00597
8 0.01027
8.05 0.00962
8.1 0.00605
8.15 0.00496
8.2 0.00217
8.25 0.00107
8.3 0.00067
8.35 0.00504
8.4 0.00737
8.45 0.01219
8.5 0.01441
8.55 0.01438
8.6 0.01314
8.65 0.01155
8.7 0.01161
8.75 0.01339
8.8 0.01405
8.85 0.01795
8.9 0.02203
8.95 0.02384
9 0.02683
9.05 0.02954
9.1 0.03155
9.15 0.03287
9.2 0.03164
9.25 0.03172
9.3 0.02946
9.35 0.02314
9.4 0.01634
9.45 0.01205
9.5 0.0112
9.55 0.01222
9.6 0.01453
9.65 0.01534
9.7 0.01392
9.75 0.01308
9.8 0.01411
9.85 0.01428
9.9 0.01675
9.95 0.01789
10 0.01485
10.05 0.01015
10.1 0.00538
10.15 0.00379
10.2 0.00342
10.25 0.003
10.3 0.00269
10.35 0.00419
10.4 0.00438
10.45 0.00764
10.5 0.00551
10.55 0.00147
10.6 -0.00008
10.65 0.00184
10.7 0.0043
10.75 0.00236
10.8 0.00019
10.85 -0.00249
10.9 -0.00492
10.95 -0.00559
11 -0.00288
11.05 0.00071
11.1 0.00142
11.15 0.00349
11.2 0.00596
11.25 0.00606
11.3 0.00305
11.35 0.00102
11.4 -0.00147
11.45 -0.00056
11.5 0.00335
11.55 0.00413
11.6 0.00421
11.65 0.00669
11.7 0.01098
11.75 0.015
11.8 0.01663
11.85 0.01698
11.9 0.01192
11.95 0.00802
12 0.00344
12.05 -0.00309
12.1 -0.00597
12.15 -0.00702
12.2 -0.00482
12.25 -0.00315
12.3 -0.00232
12.35 -0.00274
12.4 -0.00562
12.45 -0.00686
12.5 -0.00398
12.55 -0.00197
12.6 0.00106
12.65 0.0036
12.7 0.00403
12.75 0.00656
12.8 0.00836
12.85 0.0119
12.9 0.01405
12.95 0.01259
13 0.00674
13.05 0.00245
13.1 -0.00303
13.15 -0.0049
13.2 -0.00721
13.25 -0.00881
13.3 -0.00923
13.35 -0.0122
13.4 -0.01638
13.45 -0.02056
13.5 -0.02273
13.55 -0.01928
13.6 -0.01257
13.65 -0.00634
13.7 -0.00356
13.75 -0.00177
13.8 -0.00012
13.85 0.00374
13.9 0.0065
13.95 0.01023
14 0.01464
14.05 0.01563
14.1 0.01452
14.15 0.01344
14.2 0.0085
14.25 0.002
14.3 -0.00147
14.35 -0.00404
14.4 -0.00449
14.45 -0.00718
14.5 -0.01141
14.55 -0.01651
14.6 -0.01994
14.65 -0.02365
14.7 -0.02744
14.75 -0.02917
14.8 -0.03136
14.85 -0.03355
14.9 -0.03368
14.95 -0.03056
15 -0.02916
15.05 -0.02593
15.1 -0.02175
15.15 -0.01735
15.2 -0.01092
15.25 -0.00524
15.3 -0.00137
15.35 -0.00113
15.4 -0.00334
15.45 -0.00244
15.5 0.00047
15.55 0.00202
15.6 0.00636
15.65 0.00818
15.7 0.00888
15.75 0.00598
15.8 0.00642
15.85 0.00645
15.9 0.00816
15.95 0.01218
16 0.0169
16.05 0.0175
16.1 0.01595
16.15 0.0147
16.2 0.013
16.25 0.01197
16.3 0.00771
16.35 0.00151
16.4 -0.00487
16.45 -0.0086
16.5 -0.00756
16.55 -0.00393
16.6 -0.00042
16.65 0.00454
16.7 0.01085
16.75 0.01522
16.8 0.01821
16.85 0.01875
16.9 0.02018
16.95 0.0174
17 0.01708
17.05 0.01275
17.1 0.00974
17.15 0.00934
17.2 0.00966
17.25 0.0052
17.3 0.00394
17.35 0.00524
17.4 0.00452
17.45 0.00335
17.5 0.00337
17.55 0.00425
17.6 0.00689
17.65 0.00765
17.7 0.0106
17.75 0.01016
17.8 0.00676
17.85 0.00633
17.9 0.00762
17.95 0.00924
18 0.0095
18.05 0.00893
18.1 0.00888
18.15 0.01057
18.2 0.00952
18.25 0.00671
18.3 0.00558
18.35 0.00085
18.4 -0.00201
18.45 -0.00222
18.5 -0.00057
18.55 -0.00202
18.6 -0.00271
18.65 0.00002
18.7 -0.00055
18.75 -0.00303
18.8 -0.00448
18.85 -0.00292
18.9 -0.00245
18.95 -0.00389
19 -0.00492
19.05 -0.00806
19.1 -0.01103
19.15 -0.01238
19.2 -0.01211
19.25 -0.01264
19.3 -0.01247
19.35 -0.00822
19.4 -0.00863
19.45 -0.00707
19.5 -0.00797
19.55 -0.00862
19.6 -0.01015
19.65 -0.0096
19.7 -0.00597
19.75 -0.00299
19.8 -0.00331
19.85 -0.00653
19.9 -0.00856
19.95 -0.00795
20 -0.00818
20.05 -0.00475
20.1 -0.00243
20.15 0.00263
20.2 0.00529
20.25 0.00556
20.3 0.00506
20.35 0.00115
20.4 -0.00152
20.45 -0.00675
20.5 -0.01091
20.55 -0.0146
20.6 -0.01401
20.65 -0.01033
20.7 -0.00903
20.75 -0.01104
20.8 -0.01217
20.85 -0.00849
20.9 -0.00669
20.95 -0.0083
21 -0.00695
21.05 -0.00351
21.1 -0.00345
21.15 -0.00313
21.2 -0.00318
21.25 -0.00258
21.3 -0.00391
21.35 -0.00791
21.4 -0.00642
21.45 -0.00319
21.5 0.00176
21.55 0.00724
21.6 0.00912
21.65 0.00849
21.7 0.00643
21.75 0.00719
21.8 0.00702
21.85 0.00875
21.9 0.01247
21.95 0.01005
22 0.00824
22.05 0.00607
22.1 0.0064
22.15 0.00407
22.2 0.00569
22.25 0.00313
22.3 -0.00163
22.35 -0.00828
22.4 -0.01485
22.45 -0.01542
22.5 -0.01703
22.55 -0.01745
22.6 -0.01465
22.65 -0.00927
22.7 -0.00167
22.75 -0.00016
22.8 0.00215
22.85 0.00563
22.9 0.0087
22.95 0.01122
23 0.01442
23.05 0.01508
23.1 0.0161
23.15 0.01225
23.2 0.01189
23.25 0.01028
23.3 0.0113
23.35 0.01143
23.4 0.01307
23.45 0.0164
23.5 0.02003
23.55 0.01827
23.6 0.01852
23.65 0.01874
23.7 0.01862
23.75 0.01908
23.8 0.01407
23.85 0.00845
23.9 0.00398
23.95 0.003
24 0.00361
24.05 0.00339
24.1 0.00212
24.15 0.00298
24.2 0.0024
24.25 0.00026
24.3 0.00018
24.35 0.00162
24.4 0.00085
24.45 0.00213
24.5 0.00405
24.55 0.00247
24.6 0.00198
24.65 0.00373
24.7 0.00477
24.75 0.00398
24.8 0.00003
24.85 -0.00359
24.9 -0.00866
24.95 -0.0096
25 -0.0102
25.05 -0.01267
25.1 -0.01274
25.15 -0.01554
25.2 -0.01603
25.25 -0.01826
25.3 -0.01874
25.35 -0.01858
25.4 -0.01503
25.45 -0.01217
25.5 -0.01228
25.55 -0.01111
25.6 -0.01045
25.65 -0.01155
25.7 -0.01077
25.75 -0.01218
25.8 -0.01408
25.85 -0.01376
25.9 -0.01293
25.95 -0.01297
26 -0.01148
26.05 -0.00891
26.1 -0.00788
26.15 -0.0036
26.2 -0.00115
26.25 -0.0023
26.3 -0.00589
26.35 -0.00535
26.4 -0.00242
26.45 -0.0037
26.5 -0.00649
26.55 -0.00726
26.6 -0.00965
26.65 -0.00789
26.7 -0.00398
26.75 0.00012
26.8 0.00003
26.85 0.00042
26.9 0.00084
26.95 -0.00248
27 -0.00458
27.05 -0.00621
27.1 -0.01017
27.15 -0.00984
27.2 -0.00845
27.25 -0.00885
27.3 -0.01016
27.35 -0.00986
27.4 -0.0084
27.45 -0.00489
27.5 -0.00509
27.55 -0.00501
27.6 -0.00161
27.65 0.00208
27.7 0.00736
27.75 0.0082
27.8 0.00735
27.85 0.00769
27.9 0.0055
27.95 0.00637
28 0.0085
28.05 0.00524
28.1 -0.00046
28.15 -0.00597
28.2 -0.00979
28.25 -0.0134
28.3 -0.01781
28.35 -0.02484
28.4 -0.03452
28.45 -0.04319
28.5 -0.05478
28.55 -0.06445
28.6 -0.07831
28.65 -0.09051
28.7 -0.10642
28.75 -0.12687
28.8 -0.15053
28.85 -0.173
28.9 -0.19747
28.95 -0.22342
29 -0.25855
29.05 -0.29808
29.1 -0.34581
29.15 -0.4011
29.2 -0.45667
29.25 -0.52018
29.3 -0.58595
29.35 -0.65632
29.4 -0.73551
29.45 -0.8219
29.5 -0.90955
29.55 -1.00472
29.6 -1.10608
29.65 -1.20748
29.7 -1.30918
29.75 -1.41195
29.8 -1.51572
29.85 -1.62143
29.9 -1.72637
29.95 -1.82835
30 -1.92422
30.05 -2.01039
30.1 -2.08979
30.15 -2.15563
30.2 -2.21291
30.25 -2.26195
30.3 -2.29368
30.35 -2.30802
30.4 -2.31142
30.45 -2.30036
30.5 -2.27133
30.55 -2.2235
30.6 -2.16005
30.65 -2.07929
30.7 -1.982
30.75 -1.87207
30.8 -1.75293
30.85 -1.619
30.9 -1.47585
30.95 -1.32358
31 -1.16248
31.05 -0.99441
31.1 -0.82695
31.15 -0.65765
31.2 -0.48905
31.25 -0.31899
31.3 -0.15259
31.35 0.01304
31.4 0.16901
31.45 0.32248
31.5 0.46522
31.55 0.60385
31.6 0.7335
31.65 0.85719
31.7 0.97415
31.75 1.0791
31.8 1.17477
31.85 1.25803
31.9 1.33538
31.95 1.40843
32 1.46884
32.05 1.52061
32.1 1.56563
32.15 1.60478
32.2 1.63877
32.25 1.66898
32.3 1.6917
32.35 1.71461
32.4 1.72952
32.45 1.74486
32.5 1.75399
32.55 1.75973
32.6 1.76195
32.65 1.766
32.7 1.76993
32.75 1.77266
32.8 1.77055
32.85 1.76451
32.9 1.75507
32.95 1.74646
33 1.73778
33.05 1.72708
33.1 1.71575
33.15 1.69975
33.2 1.67693
33.25 1.65383
33.3 1.63204
33.35 1.60532
33.4 1.57948
33.45 1.54988
33.5 1.52308
33.55 1.49524
33.6 1.46473
33.65 1.43007
33.7 1.39705
33.75 1.36374
33.8 1.33316
33.85 1.29721
33.9 1.25866
33.95 1.22422
34 1.19191
34.05 1.16053
34.1 1.12743
34.15 1.09167
34.2 1.05106
34.25 1.01146
34.3 0.97242
34.35 0.93395
34.4 0.89532
34.45 0.85734
34.5 0.82041
34.55 0.78226
34.6 0.74031
34.65 0.69649
34.7 0.65292
34.75 0.6139
34.8 0.57568
34.85 0.53697
34.9 0.50091
34.95 0.46509
35 0.43143
35.05 0.39754
35.1 0.36604
35.15 0.33171
35.2 0.29845
35.25 0.27023
35.3 0.24356
35.35 0.2167
35.4 0.19067
35.45 0.16354
35.5 0.13604
35.55 0.11256
35.6 0.08808
35.65 0.06625
35.7 0.04729
35.75 0.02371
35.8 0.00336
35.85 -0.0163
35.9 -0.03507
35.95 -0.05091
36 -0.06613
36.05 -0.08377
36.1 -0.10553
36.15 -0.12486
36.2 -0.14082
36.25 -0.15727
36.3 -0.17481
36.35 -0.18658
36.4 -0.19652
36.45 -0.20813
36.5 -0.22016
36.55 -0.23046
36.6 -0.24291
36.65 -0.25227
36.7 -0.25689
36.75 -0.26281
36.8 -0.27047
36.85 -0.27488
36.9 -0.27849
36.95 -0.27896
37 -0.27847
37.05 -0.28112
37.1 -0.28627
37.15 -0.29362
37.2 -0.2996
37.25 -0.30566
37.3 -0.30637
37.35 -0.30561
37.4 -0.30471
37.45 -0.30209
37.5 -0.3023
37.55 -0.29993
37.6 -0.29549
37.65 -0.29379
37.7 -0.29073
37.75 -0.28919
37.8 -0.28498
37.85 -0.28011
37.9 -0.27369
37.95 -0.26893
38 -0.2669
38.05 -0.2648
38.1 -0.2661
38.15 -0.268
38.2 -0.26593
38.25 -0.26619
38.3 -0.26769
38.35 -0.26739
38.4 -0.26254
38.45 -0.25984
38.5 -0.25957
38.55 -0.26103
38.6 -0.26303
38.65 -0.26027
38.7 -0.25962
38.75 -0.25541
38.8 -0.25126
38.85 -0.24927
38.9 -0.24829
38.95 -0.24306
39 -0.23825
39.05 -0.23219
39.1 -0.22611
39.15 -0.21752
39.2 -0.20844
39.25 -0.20218
39.3 -0.19416
39.35 -0.19151
39.4 -0.18948
39.45 -0.18466
39.5 -0.1788
39.55 -0.17328
39.6 -0.17277
39.65 -0.17289
39.7 -0.17501
39.75 -0.17879
39.8 -0.17857
39.85 -0.17768
39.9 -0.17523
39.95 -0.17236
40 -0.17209
40.05 -0.17253
40.1 -0.16887
40.15 -0.1678
40.2 -0.16744
40.25 -0.16411
40.3 -0.15806
40.35 -0.15045
40.4 -0.14535
40.45 -0.14314
40.5 -0.13906
40.55 -0.13705
40.6 -0.1355
40.65 -0.13236
40.7 -0.13128
40.75 -0.12702
40.8 -0.12421
40.85 -0.12342
40.9 -0.11971
40.95 -0.11734
41 -0.11881
41.05 -0.12176
41.1 -0.12109
41.15 -0.11903
41.2 -0.1135
41.25 -0.1059
41.3 -0.10016
41.35 -0.09667
41.4 -0.09128
41.45 -0.08521
41.5 -0.08114
41.55 -0.07709
41.6 -0.07401
41.65 -0.07436
41.7 -0.07622
41.75 -0.07639
41.8 -0.07669
41.85 -0.08137
41.9 -0.08127
41.95 -0.07988
42 -0.08046
42.05 -0.07863
42.1 -0.08132
42.15 -0.08307
42.2 -0.08726
42.25 -0.08869
42.3 -0.08969
42.35 -0.08735
42.4 -0.08475
42.45 -0.08493
42.5 -0.0823
42.55 -0.07861
42.6 -0.07684
42.65 -0.07484
42.7 -0.06971
42.75 -0.06334
42.8 -0.06275
42.85 -0.06179
42.9 -0.05911
42.95 -0.05934
43 -0.0566
43.05 -0.05451
43.1 -0.05091
43.15 -0.04733
43.2 -0.048
43.25 -0.0505
43.3 -0.05154
43.35 -0.05073
43.4 -0.05056
43.45 -0.04916
43.5 -0.04811
43.55 -0.04447
43.6 -0.04484
43.65 -0.04903
43.7 -0.05452
43.75 -0.05993
43.8 -0.06341
43.85 -0.06783
43.9 -0.06979
43.95 -0.07121
44 -0.06907
44.05 -0.06486
44.1 -0.06085
44.15 -0.06015
44.2 -0.05618
44.25 -0.05253
44.3 -0.04594
44.35 -0.03995
44.4 -0.03643
44.45 -0.0314
44.5 -0.02684
44.55 -0.02207
44.6 -0.01929
44.65 -0.02266
44.7 -0.02726
44.75 -0.02958
44.8 -0.03357
44.85 -0.03847
44.9 -0.04293
44.95 -0.04739
45 -0.04956
45.05 -0.04936
45.1 -0.04602
45.15 -0.04373
45.2 -0.04371
45.25 -0.0423
45.3 -0.04357
45.35 -0.04441
45.4 -0.04611
45.45 -0.04631
45.5 -0.0447
45.55 -0.04415
45.6 -0.04352
45.65 -0.03877
45.7 -0.03761
45.75 -0.03514
45.8 -0.02975
45.85 -0.02815
45.9 -0.02654
45.95 -0.02301
46 -0.01974
46.05 -0.01613
46.1 -0.01619
46.15 -0.01758
46.2 -0.02066
46.25 -0.02355
46.3 -0.02733
46.35 -0.0292
46.4 -0.0283
46.45 -0.02652
46.5 -0.02826
46.55 -0.03051
46.6 -0.03112
46.65 -0.03246
46.7 -0.03487
46.75 -0.03465
46.8 -0.03648
46.85 -0.03617
46.9 -0.03395
46.95 -0.03157
47 -0.0285
47.05 -0.02812
47.1 -0.02736
47.15 -0.02415
47.2 -0.02201
47.25 -0.01875
47.3 -0.01385
47.35 -0.00857
47.4 -0.00235
47.45 0.00008
47.5 0.00214
47.55 -0.0009
47.6 -0.00174
47.65 -0.00117
47.7 -0.00135
47.75 -0.00135
47.8 -0.00298
47.85 -0.00297
47.9 -0.00451
47.95 -0.00341
48 -0.00279
48.05 -0.00572
48.1 -0.00573
48.15 -0.00588
48.2 -0.00608
48.25 -0.00937
48.3 -0.01416
48.35 -0.01637
48.4 -0.01987
48.45 -0.02135
48.5 -0.02164
48.55 -0.02199
48.6 -0.02367
48.65 -0.02425
48.7 -0.02416
48.75 -0.02261
48.8 -0.02165
48.85 -0.01889
48.9 -0.01973
48.95 -0.01692
49 -0.01153
49.05 -0.00624
49.1 -0.00053
49.15 0.00301
49.2 0.00162
49.25 -0.00165
49.3 -0.0039
49.35 -0.00298
49.4 -0.0051
49.45 -0.00773
49.5 -0.01051
49.55 -0.00889
49.6 -0.00962
49.65 -0.0071
49.7 -0.00463
49.75 0.00025
49.8 -0.0006
49.85 0.00094
49.9 0.00387
49.95 0.00823
50 0.00856
50.05 0.00565
50.1 0.00219
50.15 -0.00065
50.2 -0.00124
50.25 -0.00287
50.3 -0.00778
50.35 -0.00922
50.4 -0.01134
50.45 -0.01366
50.5 -0.01323
50.55 -0.00894
50.6 -0.00464
50.65 -0.00044
50.7 0.0038
50.75 0.00344
50.8 0.00287
50.85 -0.00107
50.9 -0.00222
50.95 -0.00528
51 -0.00367
51.05 -0.00453
51.1 -0.00801
51.15 -0.01366
51.2 -0.01581
51.25 -0.01841
51.3 -0.02016
51.35 -0.01917
51.4 -0.01699
51.45 -0.01681
51.5 -0.01464
51.55 -0.01088
51.6 -0.01107
51.65 -0.00779
51.7 -0.00523
51.75 -0.00616
51.8 -0.00641
51.85 -0.00728
51.9 -0.00581
51.95 -0.00125
52 -0.00176
52.05 -0.00026
52.1 -0.00318
52.15 -0.00712
52.2 -0.00807
52.25 -0.00662
52.3 -0.00513
52.35 -0.00445
52.4 -0.00355
52.45 0.00048
52.5 0.00533
52.55 0.01025
52.6 0.01541
52.65 0.01616
52.7 0.01708
52.75 0.01828
52.8 0.01395
52.85 0.01118
52.9 0.00584
52.95 -0.00176
53 -0.01
53.05 -0.01559
53.1 -0.01816
53.15 -0.0166
53.2 -0.01092
53.25 -0.00321
53.3 0.00124
53.35 0.00566
53.4 0.00589
53.45 0.0037
53.5 0.00439
53.55 0.00321
53.6 0.00026
53.65 0.00132
53.7 0.00019
53.75 -0.00366
53.8 -0.00785
53.85 -0.01004
53.9 -0.00754
53.95 -0.00618
54 -0.00781
54.05 -0.0059
54.1 -0.00528
54.15 -0.00113
54.2 -0.00067
54.25 -0.00129
54.3 -0.00542
54.35 -0.00538
54.4 -0.00697
54.45 -0.00553
54.5 -0.00704
54.55 -0.0051
54.6 -0.00578
54.65 -0.00553
54.7 -0.00564
54.75 -0.00344
54.8 -0.00052
54.85 0.00244
54.9 0.00597
54.95 0.00564
55 0.00372
55.05 0.00252
55.1 0.00398
55.15 0.00343
55.2 -0.00001
55.25 -0.00557
55.3 -0.0113
55.35 -0.01061
55.4 -0.006
55.45 -0.00285
55.5 0.00165
55.55 0.00206
55.6 0.00117
55.65 0.00287
55.7 0.00453
55.75 0.00504
55.8 0.00142
55.85 -0.00152
55.9 -0.00081
55.95 0.00172
56 0.0017
56.05 0.00402
56.1 0.00615
56.15 0.00618
56.2 0.00845
56.25 0.00861
56.3 0.00464
56.35 0.00413
56.4 0.00435
56.45 0.00745
56.5 0.00916
56.55 0.01006
56.6 0.00788
56.65 0.00281
56.7 0.00075
56.75 -0.00434
56.8 -0.01024
56.85 -0.01503
56.9 -0.01545
56.95 -0.01633
57 -0.01509
57.05 -0.00975
57.1 -0.00822
57.15 -0.00791
57.2 -0.0106
57.25 -0.01441
57.3 -0.013
57.35 -0.01094
57.4 -0.00871
57.45 -0.00613
57.5 -0.0006
57.55 0.00417
57.6 0.00556
57.65 0.00658
57.7 0.00873
57.75 0.01217
57.8 0.01081
57.85 0.00818
57.9 0.00679
57.95 0.00818
58 0.0082
58.05 0.00753
58.1 0.0041
58.15 0.00203
58.2 -0.00225
58.25 -0.0041
58.3 -0.003
58.35 -0.00246
58.4 -0.00564
58.45 -0.00638
58.5 -0.00713
58.55 -0.00963
58.6 -0.00981
58.65 -0.00663
58.7 -0.003
58.75 0.00038
58.8 0.00052
58.85 -0.00241
58.9 -0.00213
58.95 -0.00228
59 -0.00583
59.05 -0.00634
59.1 -0.0036
59.15 -0.00005
59.2 0.00513
59.25 0.00762
59.3 0.00716
59.35 0.00625
59.4 0.00266
59.45 0.00015
59.5 -0.00439
59.55 -0.0038
59.6 -0.00323
59.65 -0.00451
59.7 -0.00642
59.75 -0.01062
59.8 -0.01121
59.85 -0.01423
59.9 -0.01399
59.95 -0.01162
60 -0.01088
60.05 -0.01127
60.1 -0.00852
60.15 -0.00607
60.2 -0.00062
60.25 0.00184
60.3 0.00405
60.35 0.00305
60.4 0.00439
60.45 0.00219
60.5 -0.00203
60.55 -0.00755
60.6 -0.00939
60.65 -0.00798
60.7 -0.00635
60.75 -0.00245
60.8 -0.00187
60.85 -0.00063
60.9 -0.00103
60.95 -0.00467
61 -0.0057
61.05 -0.00818
61.1 -0.00872
61.15 -0.00627
61.2 -0.00561
61.25 -0.00317
61.3 -0.00283
61.35 0.0001
61.4 0.00065
61.45 0.00005
61.5 -0.00115
61.55 -0.00309
61.6 -0.00386
61.65 -0.00182
61.7 0.00069
61.75 0.00538
61.8 0.00442
61.85 0.00117
61.9 0.00141
61.95 0.00398
62 0.00502
62.05 0.00184
62.1 0.00174
62.15 -0.00089
62.2 -0.00597
62.25 -0.01132
62.3 -0.01565
62.35 -0.01975
62.4 -0.0239
62.45 -0.02227
62.5 -0.01613
62.55 -0.01069
62.6 -0.00777
62.65 -0.00334
62.7 0.00225
62.75 0.00912
62.8 0.0157
62.85 0.0172
62.9 0.01848
62.95 0.0212
63 0.02211
63.05 0.02304
63.1 0.01859
63.15 0.01224
63.2 0.00643
63.25 -0.00113
63.3 -0.0065
63.35 -0.01127
63.4 -0.01197
63.45 -0.00909
63.5 -0.0031
63.55 0.00017
63.6 0.00243
63.65 0.00141
63.7 0.00258
63.75 0.00658
63.8 0.00716
63.85 0.00546
63.9 0.00598
63.95 0.0086
64 0.0085
64.05 0.0104
64.1 0.00909
64.15 0.00677
64.2 0.00742
64.25 0.00708
64.3 0.00646
64.35 0.00856
64.4 0.01182
64.45 0.01616
64.5 0.0157
64.55 0.01606
64.6 0.01784
64.65 0.01956
64.7 0.01861
64.75 0.01734
64.8 0.01533
64.85 0.01577
64.9 0.0166
64.95 0.01215
65 0.01155
65.05 0.0074
65.1 0.00092
65.15 -0.0021
65.2 -0.0023
65.25 -0.00021
65.3 0.00326
65.35 0.00389
65.4 0.00343
65.45 0.00393
65.5 0.00486
65.55 0.00528
65.6 0.00753
65.65 0.00578
65.7 0.00639
65.75 0.00759
65.8 0.0046
65.85 0.00469
65.9 0.00152
65.95 -0.00148
66 -0.00027
66.05 -0.0031
66.1 -0.00371
66.15 -0.00282
66.2 -0.00449
66.25 -0.00308
66.3 -0.00572
66.35 -0.01003
66.4 -0.01549
66.45 -0.01595
66.5 -0.01408
66.55 -0.01072
66.6 -0.00657
66.65 -0.00484
66.7 -0.00387
66.75 -0.00228
66.8 -0.00143
66.85 -0.00141
66.9 -0.00413
66.95 -0.00256
67 0.00084
67.05 0.00569
67.1 0.01045
67.15 0.01061
67.2 0.00647
67.25 0.00331
67.3 0.0038
67.35 0.00463
67.4 0.00155
67.45 -0.00453
67.5 -0.00857
67.55 -0.01263
67.6 -0.01306
67.65 -0.01289
67.7 -0.01417
67.75 -0.01158
67.8 -0.0106
67.85 -0.01296
67.9 -0.01662
67.95 -0.01866
68 -0.01637
68.05 -0.0134
68.1 -0.01325
68.15 -0.01365
68.2 -0.01418
68.25 -0.01111
68.3 -0.00828
68.35 -0.00741
68.4 -0.00294
68.45 0.00102
68.5 0.0006
68.55 0.00009
68.6 0.00186
68.65 -0.00014
68.7 -0.0023
68.75 -0.00586
68.8 -0.0092
68.85 -0.01372
68.9 -0.01676
68.95 -0.01963
69 -0.01761
69.05 -0.01667
69.1 -0.01729
69.15 -0.01278
69.2 -0.00949
69.25 -0.00367
69.3 -0.003
69.35 -0.00362
69.4 -0.0057
69.45 -0.0093
69.5 -0.01194
69.55 -0.01182
69.6 -0.01122
69.65 -0.00853
69.7 -0.00243
69.75 0.00013
69.8 0.0004
69.85 0.00223
69.9 0.00079
69.95 0.00095
70 0.00436
70.05 0.00971
70.1 0.01395
70.15 0.0167
70.2 0.01988
70.25 0.02081
70.3 0.02169
70.35 0.02104
70.4 0.01653
70.45 0.01376
70.5 0.01034
70.55 0.00509
70.6 0.00468
70.65 0.00288
70.7 0.00309
70.75 0.00168
70.8 0.00062
70.85 0.00093
70.9 -0.00109
70.95 -0.00338
71 -0.00261
71.05 0.0014
71.1 0.00409
71.15 0.0082
71.2 0.00839
71.25 0.01094
71.3 0.00999
71.35 0.01094
71.4 0.01009
71.45 0.00769
71.5 0.00429
71.55 -0.0003
71.6 -0.00259
71.65 -0.00502
71.7 -0.00402
71.75 0.00025
71.8 0.00627
71.85 0.01119
71.9 0.0104
71.95 0.01154
72 0.01039
72.05 0.00973
72.1 0.0081
72.15 0.00814
72.2 0.00496
72.25 0.00265
72.3 0.00294
72.35 0.00291
72.4 0.00577
72.45 0.00596
72.5 0.00666
72.55 0.003
72.6 0.00092
72.65 0.00219
72.7 0.0033
72.75 0.00022
72.8 0.0002
72.85 0.00149
72.9 0.0003
72.95 -0.00436
73 -0.00567
73.05 -0.00771
73.1 -0.00569
73.15 -0.00536
73.2 -0.00404
73.25 -0.0032
73.3 0.0008
73.35 -0.0006
73.4 0.00155
73.45 0.00121
73.5 0.00297
73.55 0.00695
73.6 0.009
73.65 0.00758
73.7 0.00929
73.75 0.01013
73.8 0.00757
73.85 0.00187
73.9 -0.00308
73.95 -0.00302
74 -0.00646
74.05 -0.01028
74.1 -0.01151
74.15 -0.01478
74.2 -0.0181
74.25 -0.01844
74.3 -0.01625
74.35 -0.01344
74.4 -0.01397
74.45 -0.01453
74.5 -0.01385
74.55 -0.01134
74.6 -0.01185
74.65 -0.01382
74.7 -0.01439
74.75 -0.01611
74.8 -0.01529
74.85 -0.01283
74.9 -0.01147
74.95 -0.00746
75 -0.00589
75.05 -0.00352
75.1 -0.00242
75.15 0.00126
75.2 0.00219
75.25 -0.00076
75.3 -0.00194
75.35 0.00023
75.4 0.0026
75.45 0.00638
75.5 0.00853
75.55 0.00552
75.6 0.00121
75.65 -0.00322
75.7 -0.00333
75.75 -0.00127
75.8 -0.00115
75.85 0.00198
75.9 0.00443
75.95 0.00657
76 0.00707
76.05 0.00877
76.1 0.00642
76.15 0.00738
76.2 0.00993
76.25 0.00779
76.3 0.00749
76.35 0.00588
76.4 0.00443
76.45 0.0026
76.5 0.00319
76.55 0.00398
76.6 0.00184
76.65 -0.00123
76.7 -0.00248
76.75 -0.00251
76.8 0.00062
76.85 0.00564
76.9 0.01164
76.95 0.01164
77 0.0106
77.05 0.00864
77.1 0.0056
77.15 0.00214
77.2 0.00043
77.25 -0.00421
77.3 -0.00375
77.35 -0.0034
77.4 -0.00154
77.45 -0.00051
77.5 0.00233
77.55 0.00024
77.6 0.00189
77.65 0.0037
77.7 0.00587
77.75 0.00942
77.8 0.00696
77.85 0.00448
77.9 0.00052
77.95 -0.00525
78 -0.00611
78.05 -0.0059
78.1 -0.00568
78.15 -0.00297
78.2 0.00162
78.25 0.00216
78.3 0.00358
78.35 0.00143
78.4 0.00171
78.45 -0.00208
78.5 -0.00677
78.55 -0.00815
78.6 -0.00747
78.65 -0.00717
78.7 -0.00915
78.75 -0.01028
78.8 -0.01222
78.85 -0.01299
78.9 -0.01557
78.95 -0.01794
79 -0.01517
79.05 -0.01586
79.1 -0.0172
79.15 -0.017
79.2 -0.01805
79.25 -0.0183
79.3 -0.01382
79.35 -0.01019
79.4 -0.00397
79.45 0.00069
79.5 0.00642
79.55 0.01006
79.6 0.01123
79.65 0.01318
79.7 0.01284
79.75 0.00905
79.8 0.00245
79.85 -0.00116
79.9 -0.00564
79.95 -0.01148
80 -0.01474
80.05 -0.01856
80.1 -0.02211
80.15 -0.01895
80.2 -0.01282
80.25 -0.00745
80.3 -0.00211
80.35 0.00417
80.4 0.01068
80.45 0.01687
80.5 0.01869
80.55 0.01728
80.6 0.01411
80.65 0.00773
80.7 0.00136
80.75 -0.00084
80.8 -0.00532
80.85 -0.00789
80.9 -0.0068
80.95 -0.00637
81 -0.00595
81.05 -0.00425
81.1 -0.00616
81.15 -0.00433
81.2 -0.00609
81.25 -0.00322
81.3 -0.00062
81.35 -0.00136
81.4 -0.00121
81.45 -0.0013
81.5 -0.00095
81.55 0.00095
81.6 0.00394
81.65 0.00892
81.7 0.00961
81.75 0.00957
81.8 0.00858
81.85 0.00892
81.9 0.00481
81.95 0.00244
82 -0.00223
82.05 -0.00366
82.1 -0.00363
82.15 -0.0018
82.2 -0.00371
82.25 -0.00674
82.3 -0.00649
82.35 -0.0087
82.4 -0.00719
82.45 -0.00526
82.5 -0.00727
82.55 -0.00535
82.6 -0.0073
82.65 -0.00839
82.7 -0.00533
82.75 -0.00595
82.8 -0.00374
82.85 0.00148
82.9 0.00701
82.95 0.01242
83 0.01645
83.05 0.01531
83.1 0.0121
83.15 0.00987
83.2 0.00635
83.25 0.00453
83.3 0.00428
83.35 0.006
83.4 0.00556
83.45 0.00774
83.5 0.00747
83.55 0.01012
83.6 0.00996
83.65 0.00953
83.7 0.00989
83.75 0.01256
83.8 0.01538
83.85 0.01361
83.9 0.00852
83.95 0.00348
84 0.00053
84.05 0.00152
84.1 0.00243
84.15 0.00582
84.2 0.00397
84.25 0.00339
84.3 -0.00103
84.35 -0.00443
84.4 -0.00907
84.45 -0.00828
84.5 -0.00645
84.55 -0.0038
84.6 -0.00357
84.65 -0.00309
84.7 -0.00171
84.75 -0.00375
84.8 -0.00733
84.85 -0.00656
84.9 -0.0069
84.95 -0.00663
85 -0.00368
85.05 -0.00344
85.1 -0.00479
85.15 -0.00722
85.2 -0.00682
85.25 -0.00451
85.3 -0.00457
85.35 -0.00661
85.4 -0.00766
85.45 -0.00717
85.5 -0.00311
85.55 -0.00382
85.6 -0.00618
85.65 -0.00367
85.7 0.00034
85.75 0.00363
85.8 0.00779
85.85 0.01209
85.9 0.01704
85.95 0.0156
86 0.00971
86.05 0.00704
86.1 0.00524
86.15 0.0052
86.2 0.00179
86.25 0.00098
86.3 0.00072
86.35 0.00343
86.4 0.0055
86.45 0.00973
86.5 0.01159
86.55 0.00873
86.6 0.0024
86.65 -0.00088
86.7 0.00008
86.75 -0.00251
86.8 -0.0061
86.85 -0.00646
86.9 -0.00672
86.95 -0.00552
87 -0.00181
87.05 -0.00055
87.1 0.00127
87.15 0.00567
87.2 0.00676
87.25 0.00727
87.3 0.00462
87.35 0.00462
87.4 0.00275
87.45 0.00029
87.5 -0.00146
87.55 -0.00263
87.6 -0.00626
87.65 -0.00529
87.7 -0.00464
87.75 -0.00579
87.8 -0.00313
87.85 0.00139
87.9 0.00139
87.95 0.00305
88 0.00384
88.05 0.00045
88.1 -0.00055
88.15 -0.0005
88.2 -0.0007
88.25 -0.00143
88.3 0.00147
88.35 0.00417
88.4 0.0042
88.45 0.00043
88.5 0.00033
88.55 0.00282
88.6 0.00265
88.65 -0.0006
88.7 -0.00396
88.75 -0.00283
88.8 -0.00105
88.85 0.00133
88.9 -0.00048
88.95 0.0008
89 0.00072
89.05 -0.00311
89.1 -0.00293
89.15 -0.0061
89.2 -0.00771
89.25 -0.01
89.3 -0.01196
89.35 -0.01425
89.4 -0.01619
89.45 -0.01521
89.5 -0.01407
89.55 -0.01484
89.6 -0.01261
89.65 -0.00689
89.7 -0.00365
89.75 -0.00077
89.8 -0.00178
89.85 -0.00372
89.9 -0.00622
89.95 -0.00583
90 -0.00267
90.05 0.00087
90.1 0.00036
90.15 -0.00293
90.2 -0.00665
90.25 -0.00975
90.3 -0.01209
90.35 -0.01085
90.4 -0.0091
90.45 -0.00803
90.5 -0.00966
90.55 -0.01284
90.6 -0.01446
90.65 -0.01589
90.7 -0.01799
90.75 -0.01623
90.8 -0.0129
90.85 -0.00921
90.9 -0.00957
90.95 -0.00937
91 -0.00525
91.05 -0.0051
91.1 -0.00256
91.15 -0.00065
91.2 0.00145
91.25 0.00087
91.3 0.00076
91.35 -0.00025
91.4 -0.00409
91.45 -0.00524
91.5 -0.00732
91.55 -0.00436
91.6 -0.00245
91.65 0.00218
91.7 0.00293
91.75 0.00445
91.8 0.00184
91.85 0.00185
91.9 -0.00008
91.95 -0.00319
92 -0.00416
92.05 -0.00784
92.1 -0.01259
92.15 -0.01254
92.2 -0.01013
92.25 -0.00853
92.3 -0.00819
92.35 -0.00946
92.4 -0.01194
92.45 -0.01072
92.5 -0.00702
92.55 -0.00383
92.6 -0.00353
92.65 0.00005
92.7 0.00263
92.75 0.00428
92.8 0.00251
92.85 0.0025
92.9 0.00569
92.95 0.00822
93 0.00648
93.05 0.00665
93.1 0.00285
93.15 0.00351
93.2 0.00377
93.25 0.00398
93.3 0.0035
93.35 0.00608
93.4 0.00538
93.45 0.00285
93.5 -0.00186
93.55 -0.00729
93.6 -0.01216
93.65 -0.01349
93.7 -0.01526
93.75 -0.0177
93.8 -0.01662
93.85 -0.01568
93.9 -0.01025
93.95 -0.00843
94 -0.00565
94.05 -0.00177
94.1 -0.0009
94.15 0.00031
94.2 0.00413
94.25 0.00811
94.3 0.01255
94.35 0.01643
94.4 0.0214
94.45 0.02214
94.5 0.01772
94.55 0.01043
94.6 0.00445
94.65 0.00291
94.7 0.00083
94.75 0.00023
94.8 -0.0033
94.85 -0.00789
94.9 -0.01128
94.95 -0.01349
95 -0.01082
95.05 -0.00452
95.1 0.00289
95.15 0.00629
95.2 0.00623
95.25 0.00582
95.3 0.00483
95.35 0.00676
95.4 0.00403
95.45 0.00007
95.5 0.00068
95.55 0.00308
95.6 0.00694
95.65 0.00841
95.7 0.01012
95.75 0.01208
95.8 0.01063
95.85 0.01191
95.9 0.01349
95.95 0.01408
96 0.01003
96.05 0.00539
96.1 0.00555
96.15 0.00564
96.2 0.00254
96.25 0.00341
96.3 0.00329
96.35 0.00509
96.4 0.00226
96.45 0.00241
96.5 0.0004
96.55 0.00135
96.6 -0.00008
96.65 -0.00134
96.7 -0.00321
96.75 -0.00495
96.8 -0.00799
96.85 -0.00921
96.9 -0.01201
96.95 -0.01027
97 -0.01015
97.05 -0.00605
97.1 -0.00271
97.15 0.0007
97.2 0.00629
97.25 0.00665
97.3 0.00583
97.35 0.00322
97.4 -0.00032
97.45 -0.00374
97.5 -0.00517
97.55 -0.00794
97.6 -0.0058
97.65 -0.00322
97.7 0.00026
97.75 0.00101
97.8 0.00232
97.85 0.00582
97.9 0.00426
97.95 0.00344
98 0.00401
98.05 0.00759
98.1 0.00963
98.15 0.00802
98.2 0.00727
98.25 0.0038
98.3 0.00306
98.35 0.00015
98.4 -0.00281
98.45 -0.00203
98.5 0.00053
98.55 0.00364
98.6 0.00294
98.65 0.00463
98.7 0.00582
98.75 0.00725
98.8 0.00692
98.85 0.00782
98.9 0.0073
98.95 0.00752
99 0.00438
99.05 0.00234
99.1 0.00024
99.15 0.0017
99.2 -0.00071
99.25 -0.00304
99.3 -0.00342
99.35 -0.00479
99.4 -0.00365
99.45 -0.00555
99.5 -0.00333
99.55 0.0003
99.6 0.00227
99.65 0.00376
99.7 0.00725
99.75 0.00667
99.8 0.00629
99.85 0.00467
99.9 0.00169
99.95 -0.00396
