0 0
0.05 0.00086
0.1 0.00414
0.15 0.00764
0.2 0.01033
0.25 0.01173
0.3 0.01437
0.35 0.01502
0.4 0.01707
0.45 0.0183
0.5 0.01996
0.55 0.02186
0.6 0.02162
0.65 0.02137
0.7 0.02006
0.75 0.0174
0.8 0.01662
0.85 0.01611
0.9 0.01644
0.95 0.01689
1 0.01585
1.05 0.01427
1.1 0.01327
1.15 0.01408
1.2 0.01351
1.25 0.01261
1.3 0.0123
1.35 0.0132
1.4 0.01355
1.45 0.01425
1.5 0.01594
1.55 0.01524
1.6 0.01386
1.65 0.01239
1.7 0.01076
1.75 0.00933
1.8 0.00928
1.85 0.00788
1.9 0.00598
1.95 0.00426
2 0.00256
2.05 0.00262
2.1 0.00243
2.15 0.00251
2.2 0.00282
2.25 0.00279
2.3 0.0045
2.35 0.00529
2.4 0.00571
2.45 0.00686
2.5 0.00894
2.55 0.00928
2.6 0.01037
2.65 0.01168
2.7 0.013
2.75 0.01417
2.8 0.01559
2.85 0.01499
2.9 0.01387
2.95 0.01296
3 0.01057
3.05 0.00922
3.1 0.0089
3.15 0.00748
3.2 0.00602
3.25 0.0049
3.3 0.00456
3.35 0.00369
3.4 0.0042
3.45 0.00371
3.5 0.00498
3.55 0.0055
3.6 0.00453
3.65 0.00363
3.7 0.00411
3.75 0.00423
3.8 0.00305
3.85 0.0039
3.9 0.00578
3.95 0.00713
4 0.00717
4.05 0.00841
4.1 0.00749
4.15 0.00532
4.2 0.00523
4.25 0.00607
4.3 0.00756
4.35 0.00772
4.4 0.00733
4.45 0.00777
4.5 0.00921
4.55 0.00947
4.6 0.01034
4.65 0.00912
4.7 0.00826
4.75 0.00856
4.8 0.00825
4.85 0.00816
4.9 0.00665
4.95 0.0048
5 0.00489
5.05 0.00626
5.1 0.00589
5.15 0.00575
5.2 0.00413
5.25 0.00286
5.3 0.00303
5.35 0.00258
5.4 0.00287
5.45 0.00217
5.5 0.00091
5.55 0.00064
5.6 0.00135
5.65 0.003
5.7 0.00418
5.75 0.00508
5.8 0.00435
5.85 0.00519
5.9 0.00512
5.95 0.00362
6 0.00225
6.05 0.00038
6.1 -0.00014
6.15 0.00028
6.2 0.00025
6.25 -0.00018
6.3 0.00069
6.35 0.00043
6.4 0.00173
6.45 0.00352
6.5 0.00574
6.55 0.00673
6.6 0.00626
6.65 0.00654
6.7 0.00613
6.75 0.00475
6.8 0.0043
6.85 0.00428
6.9 0.00344
6.95 0.00338
7 0.00422
7.05 0.00537
7.1 0.00676
7.15 0.00704
7.2 0.00578
7.25 0.00387
7.3 0.00349
7.35 0.00224
7.4 0.0027
7.45 0.00174
7.5 0.00202
7.55 0.00232
7.6 0.00335
7.65 0.0031
7.7 0.00303
7.75 0.00413
7.8 0.00358
7.85 0.00259
7.9 0.00039
7.95 -0.00047
8 -0.00137
8.05 -0.00316
8.1 -0.00524
8.15 -0.00684
8.2 -0.0062
8.25 -0.00415
8.3 -0.0035
8.35 -0.00155
8.4 0.00114
8.45 0.00422
8.5 0.00587
8.55 0.00664
8.6 0.00657
8.65 0.00741
8.7 0.00721
8.75 0.00702
8.8 0.00569
8.85 0.00313
8.9 0.00219
8.95 0.00254
9 0.00135
9.05 0.00146
9.1 -0.00003
9.15 -0.00234
9.2 -0.00278
9.25 -0.00408
9.3 -0.00386
9.35 -0.00269
9.4 -0.0015
9.45 0.00047
9.5 0.0023
9.55 0.00418
9.6 0.00424
9.65 0.00408
9.7 0.00333
9.75 0.00376
9.8 0.00494
9.85 0.00442
9.9 0.00374
9.95 0.00357
10 0.00215
10.05 0.00071
10.1 0.00103
10.15 0.00162
10.2 0.00275
10.25 0.00438
10.3 0.00443
10.35 0.00277
10.4 0.0002
10.45 -0.00169
10.5 -0.0027
10.55 -0.00256
10.6 -0.00339
10.65 -0.00502
10.7 -0.00462
10.75 -0.00416
10.8 -0.00377
10.85 -0.00202
10.9 -0.00081
10.95 0.00031
11 0.00093
11.05 0.00253
11.1 0.003
11.15 0.00452
11.2 0.00596
11.25 0.00535
11.3 0.00419
11.35 0.00398
11.4 0.00209
11.45 0.00008
11.5 -0.00043
11.55 0.00069
11.6 0.00083
11.65 0.00216
11.7 0.00316
11.75 0.00332
11.8 0.00243
11.85 0.001
11.9 -0.00065
11.95 -0.00143
12 -0.00188
12.05 -0.00098
12.1 -0.00058
12.15 -0.00117
12.2 -0.00226
12.25 -0.00359
12.3 -0.00545
12.35 -0.00581
12.4 -0.0063
12.45 -0.00748
12.5 -0.0075
12.55 -0.00685
12.6 -0.00608
12.65 -0.00479
12.7 -0.00312
12.75 -0.00279
12.8 -0.0038
12.85 -0.00455
12.9 -0.0057
12.95 -0.00692
13 -0.0068
13.05 -0.00653
13.1 -0.00485
13.15 -0.00193
13.2 -0.00003
13.25 0.00269
13.3 0.00418
13.35 0.00574
13.4 0.00752
13.45 0.00767
13.5 0.0066
13.55 0.00477
13.6 0.00451
13.65 0.00541
13.7 0.00533
13.75 0.00494
13.8 0.00386
13.85 0.00266
13.9 0.00201
13.95 0.00204
14 0.00214
14.05 0.00265
14.1 0.00402
14.15 0.00416
14.2 0.00321
14.25 0.00152
14.3 0.00136
14.35 0.0009
14.4 0.00188
14.45 0.00164
14.5 -0.0001
14.55 -0.00027
14.6 -0.00076
14.65 -0.00156
14.7 -0.00088
14.75 0.00047
14.8 0.00199
14.85 0.00289
14.9 0.00455
14.95 0.00468
15 0.00495
15.05 0.00576
15.1 0.00672
15.15 0.00766
15.2 0.00659
15.25 0.0044
15.3 0.00242
15.35 0.00169
15.4 0.00085
15.45 0.00098
15.5 0.00188
15.55 0.00286
15.6 0.00238
15.65 0.00045
15.7 -0.00139
15.75 -0.00144
15.8 -0.00164
15.85 -0.00209
15.9 -0.00215
15.95 -0.00337
16 -0.00456
16.05 -0.00533
16.1 -0.004
16.15 -0.00313
16.2 -0.00182
16.25 0.0005
16.3 0.00227
16.35 0.00441
16.4 0.0043
16.45 0.00309
16.5 0.00076
16.55 0.00015
16.6 -0.00017
16.65 -0.00013
16.7 0.00065
16.75 0.00238
16.8 0.00398
16.85 0.00577
16.9 0.00551
16.95 0.00612
17 0.00487
17.05 0.00264
17.1 0.00028
17.15 -0.00098
17.2 -0.00138
17.25 -0.00126
17.3 -0.00064
17.35 -0.00021
17.4 -0.00087
17.45 -0.00055
17.5 0.00057
17.55 0.00218
17.6 0.00178
17.65 -0.00017
17.7 -0.00071
17.75 -0.00009
17.8 0.00006
17.85 -0.00098
17.9 -0.00161
17.95 -0.00172
18 -0.00063
18.05 -0.00075
18.1 -0.00043
18.15 0.001
18.2 0.00064
18.25 -0.00116
18.3 -0.00194
18.35 -0.0024
18.4 -0.00369
18.45 -0.00398
18.5 -0.00466
18.55 -0.00353
18.6 -0.00234
18.65 -0.00169
18.7 -0.00084
18.75 -0.00063
18.8 0.00079
18.85 0.00282
18.9 0.00505
18.95 0.00471
19 0.00412
19.05 0.00342
19.1 0.00146
19.15 -0.0004
19.2 -0.00313
19.25 -0.00519
19.3 -0.00562
19.35 -0.00482
19.4 -0.00328
19.45 -0.00204
19.5 -0.00219
19.55 -0.00185
19.6 -0.00253
19.65 -0.00319
19.7 -0.00329
19.75 -0.0044
19.8 -0.00542
19.85 -0.00662
19.9 -0.00615
19.95 -0.00589
20 -0.00521
20.05 -0.00396
20.1 -0.00413
20.15 -0.00342
20.2 -0.00297
20.25 -0.00341
20.3 -0.00284
20.35 -0.00237
20.4 -0.00165
20.45 -0.00158
20.5 -0.00258
20.55 -0.00442
20.6 -0.00451
20.65 -0.00297
20.7 -0.00282
20.75 -0.00128
20.8 -0.00083
20.85 -0.00046
20.9 -0.00049
20.95 -0.00042
21 -0.00061
21.05 -0.00149
21.1 -0.00266
21.15 -0.00331
21.2 -0.00317
21.25 -0.0019
21.3 -0.00072
21.35 0.00083
21.4 0.00159
21.45 0.00291
21.5 0.00495
21.55 0.00684
21.6 0.00828
21.65 0.00968
21.7 0.01059
21.75 0.01113
21.8 0.00953
21.85 0.00802
21.9 0.00481
21.95 0.00197
22 -0.00159
22.05 -0.00475
22.1 -0.00568
22.15 -0.00619
22.2 -0.00523
22.25 -0.00342
22.3 -0.00332
22.35 -0.00359
22.4 -0.00318
22.45 -0.00375
22.5 -0.00509
22.55 -0.00573
22.6 -0.00691
22.65 -0.00831
22.7 -0.00841
22.75 -0.00781
22.8 -0.00762
22.85 -0.00643
22.9 -0.00574
22.95 -0.00382
23 -0.00247
23.05 -0.0005
23.1 0.00088
23.15 0.00151
23.2 0.00199
23.25 0.00339
23.3 0.00474
23.35 0.00462
23.4 0.00549
23.45 0.00427
23.5 0.00274
23.55 0.00239
23.6 0.00238
23.65 0.00117
23.7 -0.00028
23.75 -0.00002
23.8 0.00056
23.85 0.002
23.9 0.00162
23.95 0.0007
24 0.00086
24.05 -0.00049
24.1 -0.00033
24.15 -0.00171
24.2 -0.00266
24.25 -0.00164
24.3 -0.00203
24.35 -0.00183
24.4 -0.00187
24.45 -0.00311
24.5 -0.00416
24.55 -0.00476
24.6 -0.0047
24.65 -0.00346
24.7 -0.00091
24.75 0.00082
24.8 0.00273
24.85 0.00269
24.9 0.00285
24.95 0.00302
25 0.00143
25.05 0.00179
25.1 0.00283
25.15 0.00312
25.2 0.00207
25.25 0.0026
25.3 0.00148
25.35 -0.00026
25.4 -0.00003
25.45 -0.00135
25.5 -0.00298
25.55 -0.00233
25.6 -0.001
25.65 -0.00152
25.7 -0.00253
25.75 -0.00268
25.8 -0.0025
25.85 -0.00294
25.9 -0.00446
25.95 -0.00379
26 -0.00299
26.05 -0.00242
26.1 -0.00132
26.15 0.0001
26.2 0.00145
26.25 0.00092
26.3 0.00141
26.35 0.00152
26.4 0.00093
26.45 0.00088
26.5 0.00141
26.55 0.00246
26.6 0.00192
26.65 0.00061
26.7 0.00064
26.75 0.00174
26.8 0.00087
26.85 -0.0011
26.9 -0.00291
26.95 -0.00351
27 -0.00253
27.05 -0.00137
27.1 0.00058
27.15 0.00147
27.2 0.00333
27.25 0.00326
27.3 0.00237
27.35 0.00121
27.4 0.00056
27.45 0.00099
27.5 0.00234
27.55 0.00414
27.6 0.00395
27.65 0.00478
27.7 0.00489
27.75 0.0036
27.8 0.00096
27.85 0.00035
27.9 0.00062
27.95 -0.00045
28 -0.00013
28.05 0.00046
28.1 0.00005
28.15 -0.00152
28.2 -0.00136
28.25 -0.00143
28.3 -0.00138
28.35 -0.00041
28.4 -0.00126
28.45 -0.00062
28.5 -0.00129
28.55 -0.00151
28.6 -0.00295
28.65 -0.00458
28.7 -0.00587
28.75 -0.00656
28.8 -0.00647
28.85 -0.00804
28.9 -0.00995
28.95 -0.01288
29 -0.015
29.05 -0.01677
29.1 -0.02114
29.15 -0.02629
29.2 -0.03234
29.25 -0.04031
29.3 -0.05026
29.35 -0.06135
29.4 -0.07177
29.45 -0.08268
29.5 -0.09384
29.55 -0.10779
29.6 -0.12491
29.65 -0.1423
29.7 -0.16204
29.75 -0.18326
29.8 -0.20603
29.85 -0.23114
29.9 -0.25915
29.95 -0.29111
30 -0.32529
30.05 -0.36208
30.1 -0.40192
30.15 -0.44271
30.2 -0.4861
30.25 -0.52927
30.3 -0.57362
30.35 -0.61806
30.4 -0.66057
30.45 -0.70259
30.5 -0.74364
30.55 -0.78472
30.6 -0.82367
30.65 -0.86038
30.7 -0.89299
30.75 -0.92123
30.8 -0.94219
30.85 -0.95781
30.9 -0.96622
30.95 -0.96892
31 -0.9665
31.05 -0.95646
31.1 -0.9391
31.15 -0.91443
31.2 -0.884
31.25 -0.84598
31.3 -0.80269
31.35 -0.75195
31.4 -0.69747
31.45 -0.63685
31.5 -0.57366
31.55 -0.50698
31.6 -0.43741
31.65 -0.36704
31.7 -0.29506
31.75 -0.22411
31.8 -0.15205
31.85 -0.08237
31.9 -0.01366
31.95 0.05247
32 0.11436
32.05 0.17269
32.1 0.22659
32.15 0.27738
32.2 0.32326
32.25 0.36646
32.3 0.40509
32.35 0.4417
32.4 0.47501
32.45 0.50417
32.5 0.53186
32.55 0.55736
32.6 0.57845
32.65 0.59775
32.7 0.61496
32.75 0.62994
32.8 0.64233
32.85 0.65356
32.9 0.66298
32.95 0.67249
33 0.68085
33.05 0.6869
33.1 0.69257
33.15 0.69847
33.2 0.70277
33.25 0.70491
33.3 0.7061
33.35 0.70778
33.4 0.70865
33.45 0.70874
33.5 0.70824
33.55 0.70924
33.6 0.70824
33.65 0.70769
33.7 0.7071
33.75 0.70351
33.8 0.69789
33.85 0.69246
33.9 0.68753
33.95 0.68152
34 0.67255
34.05 0.66145
34.1 0.64931
34.15 0.63758
34.2 0.62617
34.25 0.61406
34.3 0.60256
34.35 0.58991
34.4 0.57565
34.45 0.56131
34.5 0.5478
34.55 0.53182
34.6 0.51506
34.65 0.49793
34.7 0.48136
34.75 0.46601
34.8 0.45138
34.85 0.43528
34.9 0.41738
34.95 0.39916
35 0.38023
35.05 0.36299
35.1 0.34771
35.15 0.33261
35.2 0.31811
35.25 0.30353
35.3 0.28872
35.35 0.27382
35.4 0.25975
35.45 0.24547
35.5 0.23031
35.55 0.21373
35.6 0.19725
35.65 0.18239
35.7 0.16747
35.75 0.15213
35.8 0.13638
35.85 0.123
35.9 0.10983
35.95 0.09855
36 0.08654
36.05 0.07405
36.1 0.06263
36.15 0.0526
36.2 0.04382
36.25 0.03539
36.3 0.0253
36.35 0.01611
36.4 0.00642
36.45 -0.00139
36.5 -0.01062
36.55 -0.0181
36.6 -0.02543
36.65 -0.03205
36.7 -0.03758
36.75 -0.04413
36.8 -0.04976
36.85 -0.056
36.9 -0.06289
36.95 -0.06883
37 -0.07481
37.05 -0.08011
37.1 -0.08416
37.15 -0.08852
37.2 -0.09245
37.25 -0.09618
37.3 -0.10125
37.35 -0.10611
37.4 -0.10914
37.45 -0.11225
37.5 -0.11383
37.55 -0.11532
37.6 -0.1166
37.65 -0.11761
37.7 -0.11851
37.75 -0.12037
37.8 -0.12304
37.85 -0.12429
37.9 -0.12432
37.95 -0.1231
38 -0.12165
38.05 -0.11984
38.1 -0.11876
38.15 -0.11765
38.2 -0.11614
38.25 -0.11464
38.3 -0.11315
38.35 -0.11348
38.4 -0.1138
38.45 -0.11519
38.5 -0.11639
38.55 -0.11675
38.6 -0.11604
38.65 -0.11436
38.7 -0.11299
38.75 -0.11214
38.8 -0.11036
38.85 -0.10886
38.9 -0.10763
38.95 -0.10772
39 -0.10896
39.05 -0.11007
39.1 -0.11016
39.15 -0.10829
39.2 -0.10546
39.25 -0.10454
39.3 -0.10246
39.35 -0.10129
39.4 -0.09887
39.45 -0.09659
39.5 -0.09399
39.55 -0.09333
39.6 -0.09411
39.65 -0.09403
39.7 -0.09465
39.75 -0.09537
39.8 -0.09405
39.85 -0.09334
39.9 -0.09122
39.95 -0.08989
40 -0.08897
40.05 -0.08649
40.1 -0.08577
40.15 -0.08373
40.2 -0.08041
40.25 -0.07911
40.3 -0.07885
40.35 -0.07719
40.4 -0.07575
40.45 -0.07569
40.5 -0.07578
40.55 -0.07609
40.6 -0.07526
40.65 -0.07512
40.7 -0.07272
40.75 -0.06906
40.8 -0.06764
40.85 -0.06591
40.9 -0.06465
40.95 -0.0641
41 -0.06303
41.05 -0.06166
41.1 -0.05998
41.15 -0.05811
41.2 -0.05701
41.25 -0.05536
41.3 -0.05532
41.35 -0.05475
41.4 -0.05273
41.45 -0.05078
41.5 -0.04974
41.55 -0.05038
41.6 -0.05109
41.65 -0.05209
41.7 -0.05275
41.75 -0.0531
41.8 -0.0523
41.85 -0.04976
41.9 -0.0463
41.95 -0.04272
42 -0.03905
42.05 -0.0375
42.1 -0.03609
42.15 -0.0348
42.2 -0.03589
42.25 -0.03668
42.3 -0.0373
42.35 -0.03876
42.4 -0.04023
42.45 -0.04232
42.5 -0.04448
42.55 -0.04579
42.6 -0.0463
42.65 -0.04501
42.7 -0.04389
42.75 -0.04291
42.8 -0.04193
42.85 -0.04132
42.9 -0.04099
42.95 -0.04016
43 -0.03973
43.05 -0.03788
43.1 -0.03541
43.15 -0.03277
43.2 -0.03007
43.25 -0.02923
43.3 -0.03008
43.35 -0.03177
43.4 -0.03236
43.45 -0.03083
43.5 -0.0288
43.55 -0.02663
43.6 -0.02609
43.65 -0.02595
43.7 -0.02531
43.75 -0.02448
43.8 -0.02435
43.85 -0.02365
43.9 -0.0222
43.95 -0.02285
44 -0.022
44.05 -0.02179
44.1 -0.02146
44.15 -0.02069
44.2 -0.0212
44.25 -0.02142
44.3 -0.02121
44.35 -0.02041
44.4 -0.02103
44.45 -0.02005
44.5 -0.02012
44.55 -0.01997
44.6 -0.02025
44.65 -0.01921
44.7 -0.01863
44.75 -0.01776
44.8 -0.01702
44.85 -0.01735
44.9 -0.01611
44.95 -0.01518
45 -0.01388
45.05 -0.01286
45.1 -0.01406
45.15 -0.0148
45.2 -0.01443
45.25 -0.01295
45.3 -0.0116
45.35 -0.01153
45.4 -0.01058
45.45 -0.01073
45.5 -0.01018
45.55 -0.01012
45.6 -0.01044
45.65 -0.01136
45.7 -0.01166
45.75 -0.01346
45.8 -0.01593
45.85 -0.01622
45.9 -0.01764
45.95 -0.01802
46 -0.01654
46.05 -0.01559
46.1 -0.0157
46.15 -0.01499
46.2 -0.01302
46.25 -0.01083
46.3 -0.01011
46.35 -0.00883
46.4 -0.00798
46.45 -0.00908
46.5 -0.00923
46.55 -0.00927
46.6 -0.00888
46.65 -0.00864
46.7 -0.00737
46.75 -0.00814
46.8 -0.00847
46.85 -0.00779
46.9 -0.00691
46.95 -0.00554
47 -0.00656
47.05 -0.00654
47.1 -0.00627
47.15 -0.00751
47.2 -0.00909
47.25 -0.01095
47.3 -0.01092
47.35 -0.0099
47.4 -0.01028
47.45 -0.0103
47.5 -0.01059
47.55 -0.01078
47.6 -0.00946
47.65 -0.00926
47.7 -0.00906
47.75 -0.0092
47.8 -0.00926
47.85 -0.00884
47.9 -0.00993
47.95 -0.01074
48 -0.01035
48.05 -0.00975
48.1 -0.00952
48.15 -0.00846
48.2 -0.00726
48.25 -0.00672
48.3 -0.00683
48.35 -0.00689
48.4 -0.00605
48.45 -0.00417
48.5 -0.00381
48.55 -0.00325
48.6 -0.00255
48.65 -0.00171
48.7 -0.00191
48.75 -0.00118
48.8 -0.00236
48.85 -0.00245
48.9 -0.00157
48.95 -0.00291
49 -0.00453
49.05 -0.00422
49.1 -0.00471
49.15 -0.00446
49.2 -0.00296
49.25 -0.00261
49.3 -0.00186
49.35 -0.0028
49.4 -0.00263
49.45 -0.00232
49.5 -0.00114
49.55 -0.00193
49.6 -0.00187
49.65 -0.00135
49.7 -0.00003
49.75 -0.00056
49.8 -0.00176
49.85 -0.00324
49.9 -0.00585
49.95 -0.00812
50 -0.00919
50.05 -0.0108
50.1 -0.01247
50.15 -0.01227
50.2 -0.01061
50.25 -0.01031
50.3 -0.00818
50.35 -0.00621
50.4 -0.00387
50.45 -0.00119
50.5 -0.00111
50.55 -0.0019
50.6 -0.00334
50.65 -0.00516
50.7 -0.0067
50.75 -0.00709
50.8 -0.00816
50.85 -0.00831
50.9 -0.00819
50.95 -0.00763
51 -0.00595
51.05 -0.00394
51.1 -0.00234
51.15 -0.00062
51.2 0.00083
51.25 0.00237
51.3 0.00166
51.35 -0.00008
51.4 -0.00202
51.45 -0.00303
51.5 -0.00482
51.55 -0.00479
51.6 -0.00606
51.65 -0.00744
51.7 -0.00811
51.75 -0.0091
51.8 -0.01036
51.85 -0.0091
51.9 -0.00662
51.95 -0.00409
52 -0.00356
52.05 -0.00254
52.1 -0.00311
52.15 -0.00416
52.2 -0.00556
52.25 -0.00749
52.3 -0.00719
52.35 -0.00589
52.4 -0.00344
52.45 -0.00218
52.5 -0.00001
52.55 0.0025
52.6 0.00264
52.65 0.00317
52.7 0.00425
52.75 0.00552
52.8 0.00598
52.85 0.0071
52.9 0.00842
52.95 0.00972
53 0.00949
53.05 0.00742
53.1 0.0043
53.15 0.00199
53.2 -0.00021
53.25 -0.00307
53.3 -0.00429
53.35 -0.00412
53.4 -0.00536
53.45 -0.00516
53.5 -0.00506
53.55 -0.00389
53.6 -0.00369
53.65 -0.00299
53.7 -0.00398
53.75 -0.00379
53.8 -0.00341
53.85 -0.00278
53.9 -0.00191
53.95 -0.001
54 -0.00148
54.05 -0.00239
54.1 -0.0016
54.15 -0.0018
54.2 -0.00195
54.25 -0.00219
54.3 -0.0034
54.35 -0.00342
54.4 -0.00322
54.45 -0.00381
54.5 -0.00463
54.55 -0.00417
54.6 -0.00432
54.65 -0.00514
54.7 -0.004
54.75 -0.00381
54.8 -0.00455
54.85 -0.00376
54.9 -0.00328
54.95 -0.00364
55 -0.0047
55.05 -0.00499
55.1 -0.004
55.15 -0.00412
55.2 -0.00378
55.25 -0.00301
55.3 -0.00181
55.35 -0.00007
55.4 0.00031
55.45 0.0017
55.5 0.00248
55.55 0.00373
55.6 0.0027
55.65 0.00091
55.7 0.00106
55.75 0.00009
55.8 -0.00202
55.85 -0.00361
55.9 -0.00398
55.95 -0.00381
56 -0.00442
56.05 -0.00368
56.1 -0.00198
56.15 -0.00112
56.2 0.00022
56.25 0.0023
56.3 0.0042
56.35 0.00482
56.4 0.00572
56.45 0.00438
56.5 0.00338
56.55 0.00353
56.6 0.0034
56.65 0.00354
56.7 0.00188
56.75 0.00107
56.8 -0.00002
56.85 -0.00231
56.9 -0.0026
56.95 -0.00206
57 -0.00049
57.05 -0.00092
57.1 -0.00176
57.15 -0.00077
57.2 -0.00135
57.25 -0.00083
57.3 -0.00131
57.35 -0.00222
57.4 -0.00137
57.45 -0.00142
57.5 -0.00191
57.55 -0.00333
57.6 -0.00262
57.65 -0.00303
57.7 -0.00182
57.75 0.00008
57.8 -0.00013
57.85 0.00028
57.9 -0.0006
57.95 -0.00149
58 -0.00105
58.05 -0.00212
58.1 -0.00144
58.15 -0.00026
58.2 0.00138
58.25 0.00359
58.3 0.00483
58.35 0.00603
58.4 0.00524
58.45 0.00419
58.5 0.00302
58.55 0.00061
58.6 -0.00141
58.65 -0.00357
58.7 -0.00368
58.75 -0.00448
58.8 -0.00599
58.85 -0.00645
58.9 -0.00588
58.95 -0.00445
59 -0.00365
59.05 -0.00265
59.1 -0.00075
59.15 -0.00023
59.2 -0.00047
59.25 -0.00097
59.3 -0.00139
59.35 -0.00283
59.4 -0.00455
59.45 -0.00528
59.5 -0.00551
59.55 -0.00664
59.6 -0.00691
59.65 -0.00714
59.7 -0.00647
59.75 -0.00532
59.8 -0.00366
59.85 -0.00278
59.9 -0.00186
59.95 -0.00228
60 -0.00299
60.05 -0.00245
60.1 -0.00299
60.15 -0.00311
60.2 -0.00234
60.25 -0.00247
60.3 -0.00226
60.35 -0.00116
60.4 -0.00083
60.45 0.00044
60.5 0.00012
60.55 -0.00154
60.6 -0.00224
60.65 -0.00372
60.7 -0.00365
60.75 -0.00436
60.8 -0.0052
60.85 -0.00588
60.9 -0.00449
60.95 -0.00396
61 -0.00221
61.05 -0.00177
61.1 0.00012
61.15 0.00069
61.2 0.00103
61.25 0.00039
61.3 -0.0009
61.35 -0.00177
61.4 -0.00141
61.45 -0.00025
61.5 0.00165
61.55 0.00359
61.6 0.00324
61.65 0.00272
61.7 0.00316
61.75 0.00242
61.8 0.00078
61.85 -0.00089
61.9 -0.00065
61.95 -0.00168
62 -0.00357
62.05 -0.00483
62.1 -0.00579
62.15 -0.00683
62.2 -0.00752
62.25 -0.00839
62.3 -0.00749
62.35 -0.00724
62.4 -0.0077
62.45 -0.00785
62.5 -0.00622
62.55 -0.00308
62.6 0.0001
62.65 0.00311
62.7 0.00412
62.75 0.00471
62.8 0.00485
62.85 0.00365
62.9 0.00419
62.95 0.00391
63 0.00362
63.05 0.00323
63.1 0.00198
63.15 0.00086
63.2 -0.00025
63.25 -0.00001
63.3 0.00154
63.35 0.00188
63.4 0.00202
63.45 0.00329
63.5 0.0042
63.55 0.00554
63.6 0.00528
63.65 0.0054
63.7 0.00394
63.75 0.00423
63.8 0.0038
63.85 0.00401
63.9 0.00471
63.95 0.00533
64 0.00553
64.05 0.00469
64.1 0.0031
64.15 0.00091
64.2 -0.00169
64.25 -0.00445
64.3 -0.00554
64.35 -0.00531
64.4 -0.00618
64.45 -0.00572
64.5 -0.0056
64.55 -0.00555
64.6 -0.00406
64.65 -0.00339
64.7 -0.00259
64.75 -0.00242
64.8 -0.00291
64.85 -0.00227
64.9 -0.00132
64.95 -0.00005
65 0.00159
65.05 0.00149
65.1 0.00155
65.15 0.0013
65.2 0.00152
65.25 0.00087
65.3 -0.0007
65.35 -0.0012
65.4 -0.00025
65.45 -0.00005
65.5 0.0013
65.55 0.00271
65.6 0.00283
65.65 0.00422
65.7 0.00627
65.75 0.008
65.8 0.00759
65.85 0.00663
65.9 0.00653
65.95 0.00647
66 0.00551
66.05 0.00565
66.1 0.00392
66.15 0.00199
66.2 0.00205
66.25 0.00132
66.3 0.00018
66.35 -0.00026
66.4 0.00021
66.45 -0.00089
66.5 -0.0028
66.55 -0.00301
66.6 -0.00227
66.65 -0.00011
66.7 0.00068
66.75 0.00124
66.8 0.00281
66.85 0.00272
66.9 0.00268
66.95 0.00208
67 0.00234
67.05 0.00168
67.1 0.00026
67.15 0.00013
67.2 0.00151
67.25 0.00082
67.3 -0.00041
67.35 0.00025
67.4 0.00042
67.45 -0.00085
67.5 -0.00179
67.55 -0.0024
67.6 -0.00325
67.65 -0.00342
67.7 -0.00453
67.75 -0.0062
67.8 -0.00541
67.85 -0.00383
67.9 -0.00138
67.95 -0.00096
68 -0.00106
68.05 -0.00131
68.1 -0.0011
68.15 -0.00144
68.2 -0.00164
68.25 -0.00236
68.3 -0.00189
68.35 -0.00231
68.4 -0.00334
68.45 -0.00482
68.5 -0.00612
68.55 -0.00518
68.6 -0.00308
68.65 -0.00257
68.7 -0.00108
68.75 -0.00063
68.8 -0.00012
68.85 0.00172
68.9 0.00271
68.95 0.00307
69 0.00316
69.05 0.00151
69.1 0.00094
69.15 0.00196
69.2 0.00207
69.25 0.00238
69.3 0.00377
69.35 0.00396
69.4 0.00257
69.45 0.00052
69.5 -0.00207
69.55 -0.00228
69.6 -0.0034
69.65 -0.00385
69.7 -0.00449
69.75 -0.00515
69.8 -0.00595
69.85 -0.00645
69.9 -0.00481
69.95 -0.00226
70 0.00036
70.05 0.00166
70.1 0.00373
70.15 0.00429
70.2 0.00574
70.25 0.00682
70.3 0.00558
70.35 0.00572
70.4 0.00658
70.45 0.00541
70.5 0.00455
70.55 0.00296
70.6 0.0031
70.65 0.00163
70.7 -0.00013
70.75 -0.00203
70.8 -0.00165
70.85 -0.00014
70.9 0.00117
70.95 0.00154
71 0.00198
71.05 0.00325
71.1 0.00495
71.15 0.00632
71.2 0.00654
71.25 0.00657
71.3 0.00592
71.35 0.00392
71.4 0.00202
71.45 0.00071
71.5 -0.0004
71.55 -0.00023
71.6 -0.0016
71.65 -0.00351
71.7 -0.00337
71.75 -0.00448
71.8 -0.00576
71.85 -0.0053
71.9 -0.00363
71.95 -0.00231
72 -0.00127
72.05 -0.00018
72.1 -0.00032
72.15 -0.00035
72.2 0.00026
72.25 0.00063
72.3 -0.00042
72.35 -0.00171
72.4 -0.0028
72.45 -0.00425
72.5 -0.00625
72.55 -0.00659
72.6 -0.00495
72.65 -0.00309
72.7 -0.00035
72.75 0.00031
72.8 -0.00017
72.85 0.0005
72.9 0.00012
72.95 -0.00019
73 -0.00175
73.05 -0.0023
73.1 -0.00235
73.15 -0.00098
73.2 -0.00149
73.25 -0.00185
73.3 -0.00114
73.35 -0.00113
73.4 0.00001
73.45 0.00163
73.5 0.0031
73.55 0.0044
73.6 0.00558
73.65 0.00457
73.7 0.00372
73.75 0.0031
73.8 0.00142
73.85 -0.00089
73.9 -0.0029
73.95 -0.00391
74 -0.00551
74.05 -0.00658
74.1 -0.0079
74.15 -0.00799
74.2 -0.00716
74.25 -0.00673
74.3 -0.00653
74.35 -0.00692
74.4 -0.00642
74.45 -0.0059
74.5 -0.00627
74.55 -0.00568
74.6 -0.00564
74.65 -0.00578
74.7 -0.00388
74.75 -0.00241
74.8 -0.00156
74.85 -0.00045
74.9 0.00036
74.95 0.00125
75 0.00286
75.05 0.0049
75.1 0.00536
75.15 0.00552
75.2 0.00608
75.25 0.00468
75.3 0.00458
75.35 0.00418
75.4 0.00323
75.45 0.00286
75.5 0.00246
75.55 0.001
75.6 -0.00007
75.65 -0.00207
75.7 -0.00188
75.75 -0.00303
75.8 -0.00469
75.85 -0.00597
75.9 -0.00582
75.95 -0.00642
76 -0.00586
76.05 -0.00468
76.1 -0.00215
76.15 -0
76.2 0.00292
76.25 0.00412
76.3 0.00583
76.35 0.00608
76.4 0.00632
76.45 0.00695
76.5 0.00814
76.55 0.00866
76.6 0.00832
76.65 0.00646
76.7 0.00407
76.75 0.00332
76.8 0.00298
76.85 0.00152
76.9 -0.00069
76.95 -0.00178
77 -0.00243
77.05 -0.00333
77.1 -0.0039
77.15 -0.00492
77.2 -0.00471
77.25 -0.00511
77.3 -0.00608
77.35 -0.0059
77.4 -0.0054
77.45 -0.00377
77.5 -0.00198
77.55 0.00033
77.6 0.00069
77.65 -0.00017
77.7 -0.0007
77.75 -0.00019
77.8 0.0003
77.85 0.00186
77.9 0.00126
77.95 0.00116
78 0.00208
78.05 0.00398
78.1 0.00638
78.15 0.00642
78.2 0.00529
78.25 0.00353
78.3 0.00333
78.35 0.0038
78.4 0.00365
78.45 0.00217
78.5 0.00199
78.55 0.00121
78.6 0.00035
78.65 -0.0001
78.7 -0.0003
78.75 -0.00132
78.8 -0.00165
78.85 -0.00241
78.9 -0.00219
78.95 -0.00204
79 -0.00195
79.05 -0.0014
79.1 -0.0011
79.15 0.00053
79.2 0.00095
79.25 0.00251
79.3 0.00361
79.35 0.00506
79.4 0.00506
79.45 0.00538
79.5 0.00638
79.55 0.00755
79.6 0.00898
79.65 0.01029
79.7 0.01143
79.75 0.01186
79.8 0.00957
79.85 0.00616
79.9 0.00382
79.95 0.0034
80 0.00149
80.05 -0.00054
80.1 -0.00292
80.15 -0.00405
80.2 -0.00326
80.25 -0.00278
80.3 -0.00306
80.35 -0.00182
80.4 -0.00126
80.45 -0.00173
80.5 -0.0012
80.55 0.00052
80.6 0.0015
80.65 0.00269
80.7 0.00354
80.75 0.00362
80.8 0.00196
80.85 -0.00023
80.9 -0.00268
80.95 -0.00542
81 -0.0056
81.05 -0.00652
81.1 -0.0055
81.15 -0.00471
81.2 -0.00492
81.25 -0.00432
81.3 -0.0026
81.35 -0.00065
81.4 -0.0002
81.45 0.00145
81.5 0.00226
81.55 0.00356
81.6 0.00506
81.65 0.00488
81.7 0.00412
81.75 0.00416
81.8 0.00436
81.85 0.00463
81.9 0.00334
81.95 0.00229
82 0.00027
82.05 -0.00157
82.1 -0.0012
82.15 -0.00135
82.2 -0.00067
82.25 -0.00168
82.3 -0.00297
82.35 -0.00301
82.4 -0.00311
82.45 -0.00244
82.5 -0.00327
82.55 -0.00235
82.6 -0.00173
82.65 -0.00089
82.7 0.00006
82.75 0.00021
82.8 0.00173
82.85 0.00114
82.9 0.00123
82.95 0.0018
83 0.00324
83.05 0.00402
83.1 0.0045
83.15 0.00531
83.2 0.00561
83.25 0.00652
83.3 0.00681
83.35 0.00754
83.4 0.00835
83.45 0.00777
83.5 0.00664
83.55 0.00571
83.6 0.00437
83.65 0.0034
83.7 0.00339
83.75 0.00368
83.8 0.00248
83.85 0.00256
83.9 0.00138
83.95 -0.00035
84 -0.00263
84.05 -0.00455
84.1 -0.00627
84.15 -0.00683
84.2 -0.00758
84.25 -0.0074
84.3 -0.0064
84.35 -0.00672
84.4 -0.00552
84.45 -0.00337
84.5 -0.00271
84.55 -0.0035
84.6 -0.00431
84.65 -0.00331
84.7 -0.00235
84.75 -0.00213
84.8 -0.00315
84.85 -0.00377
84.9 -0.00461
84.95 -0.00353
85 -0.00205
85.05 0.00017
85.1 -0.00001
85.15 -0.00097
85.2 -0.00058
85.25 -0.00133
85.3 -0.00221
85.35 -0.00365
85.4 -0.00476
85.45 -0.00443
85.5 -0.00293
85.55 -0.00155
85.6 0.0003
85.65 -0.00002
85.7 0.00025
85.75 -0.00028
85.8 -0.0005
85.85 -0.00135
85.9 -0.00206
85.95 -0.00195
86 -0.00154
86.05 -0.00122
86.1 -0.00184
86.15 -0.0016
86.2 -0.00251
86.25 -0.0019
86.3 -0.00244
86.35 -0.00215
86.4 -0.00213
86.45 -0.00064
86.5 0.00078
86.55 0.00111
86.6 0.00135
86.65 0.00203
86.7 0.0035
86.75 0.00542
86.8 0.00732
86.85 0.00926
86.9 0.00826
86.95 0.00588
87 0.00504
87.05 0.00277
87.1 0.00159
87.15 0.00006
87.2 -0.00024
87.25 0.00011
87.3 0.00045
87.35 -0.00005
87.4 -0.00023
87.45 0.00083
87.5 0.00061
87.55 -0.00071
87.6 -0.00082
87.65 -0.00023
87.7 -0.00084
87.75 -0.00232
87.8 -0.00235
87.85 -0.00345
87.9 -0.00468
87.95 -0.00625
88 -0.0058
88.05 -0.00363
88.1 -0.00323
88.15 -0.00329
88.2 -0.00427
88.25 -0.00574
88.3 -0.00693
88.35 -0.00669
88.4 -0.00727
88.45 -0.00591
88.5 -0.00568
88.55 -0.00512
88.6 -0.0034
88.65 -0.00197
88.7 0.00002
88.75 0.00094
88.8 0.00216
88.85 0.00307
88.9 0.0042
88.95 0.00519
89 0.00425
89.05 0.00303
89.1 0.00083
89.15 -0.00045
89.2 -0.00074
89.25 -0.00195
89.3 -0.00339
89.35 -0.00535
89.4 -0.00687
89.45 -0.00665
89.5 -0.00639
89.55 -0.00497
89.6 -0.00226
89.65 0.00003
89.7 0.00211
89.75 0.00321
89.8 0.00462
89.85 0.00516
89.9 0.00501
89.95 0.00384
90 0.00263
90.05 0.00296
90.1 0.00434
90.15 0.00615
90.2 0.0068
90.25 0.0061
90.3 0.00625
90.35 0.00726
90.4 0.00709
90.45 0.00743
90.5 0.00791
90.55 0.00835
90.6 0.00846
90.65 0.00826
90.7 0.00811
90.75 0.00644
90.8 0.00597
90.85 0.0037
90.9 0.00299
90.95 0.00236
91 0.00286
91.05 0.0023
91.1 0.00176
91.15 0.00179
91.2 0.00261
91.25 0.00287
91.3 0.0015
91.35 0.00083
91.4 0.00041
91.45 -0.00035
91.5 -0.00233
91.55 -0.00257
91.6 -0.00164
91.65 -0.00025
91.7 0.00129
91.75 0.00256
91.8 0.00304
91.85 0.00387
91.9 0.00534
91.95 0.00706
92 0.00751
92.05 0.00644
92.1 0.00515
92.15 0.00378
92.2 0.00348
92.25 0.00151
92.3 -0.00097
92.35 -0.00233
92.4 -0.00426
92.45 -0.00499
92.5 -0.00464
92.55 -0.00515
92.6 -0.00497
92.65 -0.00541
92.7 -0.00448
92.75 -0.00314
92.8 -0.00136
92.85 -0.0003
92.9 0.00105
92.95 0.00061
93 0.00087
93.05 0.00065
93.1 0.00077
93.15 0.00103
93.2 0.00001
93.25 -0.00103
93.3 -0.00192
93.35 -0.00197
93.4 -0.00315
93.45 -0.00335
93.5 -0.00388
93.55 -0.00425
93.6 -0.00352
93.65 -0.00267
93.7 -0.00123
93.75 -0.00081
93.8 0.00028
93.85 -0.00027
93.9 -0.00114
93.95 -0.00294
94 -0.00538
94.05 -0.00746
94.1 -0.00797
94.15 -0.00637
94.2 -0.00636
94.25 -0.00687
94.3 -0.007
94.35 -0.00591
94.4 -0.0039
94.45 -0.00384
94.5 -0.00455
94.55 -0.00603
94.6 -0.00708
94.65 -0.00624
94.7 -0.00539
94.75 -0.00598
94.8 -0.00676
94.85 -0.00735
94.9 -0.00574
94.95 -0.00487
95 -0.0041
95.05 -0.00318
95.1 -0.00252
95.15 -0.00157
95.2 -0.00134
95.25 -0.00164
95.3 -0.00211
95.35 -0.00319
95.4 -0.00462
95.45 -0.005
95.5 -0.00335
95.55 -0.00274
95.6 -0.0021
95.65 -0.00273
95.7 -0.00184
95.75 -0.00071
95.8 0.00027
95.85 0.00168
95.9 0.00296
95.95 0.00489
96 0.00426
96.05 0.00291
96.1 0.002
96.15 0.00241
96.2 0.00203
96.25 0.00231
96.3 0.00233
96.35 0.00317
96.4 0.00242
96.45 0.00136
96.5 0.00087
96.55 0.00008
96.6 0.00014
96.65 -0.00116
96.7 -0.00209
96.75 -0.00124
96.8 0.00007
96.85 0.00179
96.9 0.00249
96.95 0.00303
97 0.00197
97.05 0.00044
97.1 0.00007
97.15 -0.00106
97.2 -0.00258
97.25 -0.00441
97.3 -0.00373
97.35 -0.00343
97.4 -0.00176
97.45 0.00061
97.5 0.00332
97.55 0.00387
97.6 0.00454
97.65 0.00434
97.7 0.00471
97.75 0.00446
97.8 0.00462
97.85 0.00379
97.9 0.00359
97.95 0.00427
98 0.00299
98.05 0.00282
98.1 0.0033
98.15 0.00273
98.2 0.00267
98.25 0.00369
98.3 0.00449
98.35 0.00422
98.4 0.00367
98.45 0.00377
98.5 0.0045
98.55 0.00453
98.6 0.00487
98.65 0.00358
98.7 0.00284
98.75 0.00147
98.8 -0.00009
98.85 -0.00219
98.9 -0.00409
98.95 -0.00512
99 -0.00569
99.05 -0.00525
99.1 -0.00386
99.15 -0.004
99.2 -0.00514
99.25 -0.00462
99.3 -0.00399
99.35 -0.00429
99.4 -0.00528
99.45 -0.00461
99.5 -0.00298
99.55 -0.00063
99.6 -0.0006
99.65 -0.00026
99.7 -0.00159
99.75 -0.00181
99.8 -0.00129
99.85 -0.00129
99.9 -0.00093
99.95 -0.00147
