0 0
0.05 0.00836
0.1 0.01609
0.15 0.02563
0.2 0.03514
0.25 0.03829
0.3 0.04438
0.35 0.04942
0.4 0.05039
0.45 0.04783
0.5 0.04931
0.55 0.05294
0.6 0.05677
0.65 0.0575
0.7 0.05361
0.75 0.05279
0.8 0.05642
0.85 0.05682
0.9 0.05254
0.95 0.04708
1 0.04564
1.05 0.0461
1.1 0.04626
1.15 0.04549
1.2 0.045
1.25 0.04494
1.3 0.04194
1.35 0.04014
1.4 0.03758
1.45 0.03832
1.5 0.03698
1.55 0.03965
1.6 0.04487
1.65 0.04919
1.7 0.05183
1.75 0.05424
1.8 0.05067
1.85 0.05047
1.9 0.05194
1.95 0.05542
2 0.05817
2.05 0.05986
2.1 0.06011
2.15 0.05331
2.2 0.04208
2.25 0.03317
2.3 0.02569
2.35 0.01987
2.4 0.01443
2.45 0.01313
2.5 0.01435
2.55 0.01245
2.6 0.01111
2.65 0.01126
2.7 0.01392
2.75 0.01244
2.8 0.01165
2.85 0.01559
2.9 0.02067
2.95 0.02533
3 0.03167
3.05 0.03432
3.1 0.03768
3.15 0.03754
3.2 0.03644
3.25 0.03206
3.3 0.03051
3.35 0.02931
3.4 0.03052
3.45 0.0323
3.5 0.03031
3.55 0.02972
3.6 0.0285
3.65 0.02814
3.7 0.02877
3.75 0.02873
3.8 0.02812
3.85 0.02308
3.9 0.02154
3.95 0.02068
4 0.02068
4.05 0.02002
4.1 0.0218
4.15 0.02083
4.2 0.01558
4.25 0.00784
4.3 0.00082
4.35 -0.00441
4.4 -0.00662
4.45 -0.01494
4.5 -0.02584
4.55 -0.03414
4.6 -0.04671
4.65 -0.06469
4.7 -0.0841
4.75 -0.10413
4.8 -0.12979
4.85 -0.15463
4.9 -0.17885
4.95 -0.21182
5 -0.2476
5.05 -0.29331
5.1 -0.34615
5.15 -0.40013
5.2 -0.45888
5.25 -0.52216
5.3 -0.5952
5.35 -0.67261
5.4 -0.75072
5.45 -0.82983
5.5 -0.9102
5.55 -0.99837
5.6 -1.08504
5.65 -1.1706
5.7 -1.26052
5.75 -1.35359
5.8 -1.4465
5.85 -1.5368
5.9 -1.62002
5.95 -1.69876
6 -1.77159
6.05 -1.83651
6.1 -1.89119
6.15 -1.93717
6.2 -1.98147
6.25 -2.01891
6.3 -2.05565
6.35 -2.08644
6.4 -2.10965
6.45 -2.13205
6.5 -2.1465
6.55 -2.15017
6.6 -2.14561
6.65 -2.13447
6.7 -2.11491
6.75 -2.0842
6.8 -2.03492
6.85 -1.97286
6.9 -1.89579
6.95 -1.80597
7 -1.70174
7.05 -1.58492
7.1 -1.46178
7.15 -1.32952
7.2 -1.18745
7.25 -1.03372
7.3 -0.87292
7.35 -0.7025
7.4 -0.52846
7.45 -0.34838
7.5 -0.16231
7.55 0.02623
7.6 0.2059
7.65 0.37909
7.7 0.54647
7.75 0.70497
7.8 0.85765
7.85 0.99987
7.9 1.13034
7.95 1.25757
8 1.37359
8.05 1.48053
8.1 1.58106
8.15 1.66657
8.2 1.74295
8.25 1.80533
8.3 1.85614
8.35 1.90548
8.4 1.94194
8.45 1.97494
8.5 1.99974
8.55 2.01626
8.6 2.03104
8.65 2.03644
8.7 2.03716
8.75 2.02897
8.8 2.01515
8.85 1.99967
8.9 1.98169
8.95 1.9675
9 1.94675
9.05 1.92153
9.1 1.895
9.15 1.86857
9.2 1.83884
9.25 1.80756
9.3 1.78
9.35 1.75616
9.4 1.72863
9.45 1.69725
9.5 1.66966
9.55 1.64262
9.6 1.61695
9.65 1.59027
9.7 1.5646
9.75 1.5337
9.8 1.50396
9.85 1.46731
9.9 1.43144
9.95 1.39105
10 1.34901
10.05 1.30698
10.1 1.2704
10.15 1.2361
10.2 1.19963
10.25 1.16434
10.3 1.1281
10.35 1.09311
10.4 1.05735
10.45 1.0158
10.5 0.97396
10.55 0.93429
10.6 0.89258
10.65 0.85402
10.7 0.81556
10.75 0.77962
10.8 0.7395
10.85 0.69626
10.9 0.65675
10.95 0.61449
11 0.57457
11.05 0.53789
11.1 0.49887
11.15 0.45985
11.2 0.42553
11.25 0.39161
11.3 0.35943
11.35 0.32956
11.4 0.30292
11.45 0.28017
11.5 0.25688
11.55 0.23048
11.6 0.20502
11.65 0.17593
11.7 0.14546
11.75 0.11581
11.8 0.08314
11.85 0.05682
11.9 0.03353
11.95 0.00988
12 -0.01632
12.05 -0.03767
12.1 -0.06049
12.15 -0.07769
12.2 -0.09704
12.25 -0.11112
12.3 -0.12577
12.35 -0.14034
12.4 -0.15771
12.45 -0.17419
12.5 -0.18599
12.55 -0.19859
12.6 -0.21007
12.65 -0.22539
12.7 -0.23847
12.75 -0.24946
12.8 -0.25715
12.85 -0.26732
12.9 -0.27805
12.95 -0.28332
13 -0.28307
13.05 -0.28566
13.1 -0.28654
13.15 -0.28528
13.2 -0.28985
13.25 -0.28994
13.3 -0.29174
13.35 -0.29278
13.4 -0.29696
13.45 -0.30054
13.5 -0.30353
13.55 -0.30749
13.6 -0.30583
13.65 -0.30522
13.7 -0.30181
13.75 -0.29663
13.8 -0.29638
13.85 -0.29873
13.9 -0.30018
13.95 -0.29813
14 -0.29263
14.05 -0.28585
14.1 -0.28673
14.15 -0.28391
14.2 -0.2867
14.25 -0.28901
14.3 -0.28772
14.35 -0.28967
14.4 -0.29021
14.45 -0.28778
14.5 -0.28653
14.55 -0.2862
14.6 -0.27976
14.65 -0.27746
14.7 -0.27074
14.75 -0.26505
14.8 -0.26425
14.85 -0.26188
14.9 -0.26267
14.95 -0.26267
15 -0.25879
15.05 -0.25273
15.1 -0.24471
15.15 -0.23424
15.2 -0.22627
15.25 -0.22405
15.3 -0.22486
15.35 -0.22807
15.4 -0.23274
15.45 -0.23598
15.5 -0.234
15.55 -0.22766
15.6 -0.22332
15.65 -0.21495
15.7 -0.20607
15.75 -0.19786
15.8 -0.18774
15.85 -0.17672
15.9 -0.16659
15.95 -0.1591
16 -0.16054
16.05 -0.16367
16.1 -0.16244
16.15 -0.15881
16.2 -0.15836
16.25 -0.15441
16.3 -0.15711
16.35 -0.15717
16.4 -0.15918
16.45 -0.1637
16.5 -0.16129
16.55 -0.16153
16.6 -0.15838
16.65 -0.15816
16.7 -0.15759
16.75 -0.15922
16.8 -0.1616
16.85 -0.15871
16.9 -0.15209
16.95 -0.14322
17 -0.14084
17.05 -0.13522
17.1 -0.13356
17.15 -0.1357
17.2 -0.13488
17.25 -0.13703
17.3 -0.13708
17.35 -0.13498
17.4 -0.13106
17.45 -0.12785
17.5 -0.12327
17.55 -0.11499
17.6 -0.11344
17.65 -0.11551
17.7 -0.11319
17.75 -0.11285
17.8 -0.11398
17.85 -0.11761
17.9 -0.11893
17.95 -0.11531
18 -0.11513
18.05 -0.11336
18.1 -0.10803
18.15 -0.0995
18.2 -0.09579
18.25 -0.09705
18.3 -0.09226
18.35 -0.09039
18.4 -0.09259
18.45 -0.09641
18.5 -0.09385
18.55 -0.0873
18.6 -0.08089
18.65 -0.07873
18.7 -0.0808
18.75 -0.08333
18.8 -0.07969
18.85 -0.07418
18.9 -0.07198
18.95 -0.06751
19 -0.06641
19.05 -0.06135
19.1 -0.05944
19.15 -0.06291
19.2 -0.06096
19.25 -0.06346
19.3 -0.06836
19.35 -0.06866
19.4 -0.07229
19.45 -0.07473
19.5 -0.07516
19.55 -0.07287
19.6 -0.06745
19.65 -0.06195
19.7 -0.05944
19.75 -0.0571
19.8 -0.05172
19.85 -0.04388
19.9 -0.03914
19.95 -0.03578
20 -0.03618
20.05 -0.03646
20.1 -0.0375
20.15 -0.03737
20.2 -0.03474
20.25 -0.03788
20.3 -0.04008
20.35 -0.04055
20.4 -0.04035
20.45 -0.04179
20.5 -0.04536
20.55 -0.04466
20.6 -0.04574
20.65 -0.04436
20.7 -0.04715
20.75 -0.05263
20.8 -0.05746
20.85 -0.05914
20.9 -0.06099
20.95 -0.06192
21 -0.05855
21.05 -0.05644
21.1 -0.05643
21.15 -0.05605
21.2 -0.05734
21.25 -0.05781
21.3 -0.05717
21.35 -0.05315
21.4 -0.05063
21.45 -0.05143
21.5 -0.05254
21.55 -0.05259
21.6 -0.05158
21.65 -0.04533
21.7 -0.03568
21.75 -0.03158
21.8 -0.02535
21.85 -0.01753
21.9 -0.01261
21.95 -0.01198
22 -0.01531
22.05 -0.01396
22.1 -0.01414
22.15 -0.01355
22.2 -0.01577
22.25 -0.0185
22.3 -0.02502
22.35 -0.03045
22.4 -0.03365
22.45 -0.03426
22.5 -0.03444
22.55 -0.03118
22.6 -0.02546
22.65 -0.01724
22.7 -0.01645
22.75 -0.01954
22.8 -0.02534
22.85 -0.02393
22.9 -0.0265
22.95 -0.0308
23 -0.02791
23.05 -0.0208
23.1 -0.01169
23.15 -0.00422
23.2 -0.00342
23.25 -0.00769
23.3 -0.01479
23.35 -0.02075
23.4 -0.02154
23.45 -0.01737
23.5 -0.01697
23.55 -0.02082
23.6 -0.02574
23.65 -0.02792
23.7 -0.02394
23.75 -0.01752
23.8 -0.01612
23.85 -0.01135
23.9 -0.00946
23.95 -0.0088
24 -0.01066
24.05 -0.01028
24.1 -0.01277
24.15 -0.01626
24.2 -0.02074
24.25 -0.02268
24.3 -0.02497
24.35 -0.02623
24.4 -0.0245
24.45 -0.02049
24.5 -0.01943
24.55 -0.01796
24.6 -0.01419
24.65 -0.00837
24.7 -0.00663
24.75 -0.00456
24.8 -0.00569
24.85 -0.00746
24.9 -0.0078
24.95 -0.00678
25 -0.00918
25.05 -0.01257
25.1 -0.01275
25.15 -0.01052
25.2 -0.01164
25.25 -0.00953
25.3 -0.00438
25.35 -0.00569
25.4 -0.01104
25.45 -0.01793
25.5 -0.0191
25.55 -0.02075
25.6 -0.02459
25.65 -0.02644
25.7 -0.0302
25.75 -0.03419
25.8 -0.03007
25.85 -0.02967
25.9 -0.03109
25.95 -0.03346
26 -0.03608
26.05 -0.03439
26.1 -0.03029
26.15 -0.02547
26.2 -0.02276
26.25 -0.02237
26.3 -0.01814
26.35 -0.01696
26.4 -0.01335
26.45 -0.01005
26.5 -0.00544
26.55 0.00211
26.6 0.00467
26.65 0.00261
26.7 0.00444
26.75 0.00559
26.8 0.00225
26.85 -0.0031
26.9 -0.00366
26.95 -0.00378
27 -0.00445
27.05 -0.00054
27.1 0.00502
27.15 0.00544
27.2 0.00361
27.25 0.00249
27.3 0.00284
27.35 0.00392
27.4 0.00025
27.45 -0.00432
27.5 -0.00841
27.55 -0.01061
27.6 -0.01018
27.65 -0.01049
27.7 -0.01467
27.75 -0.01338
27.8 -0.01623
27.85 -0.01997
27.9 -0.02533
27.95 -0.02492
28 -0.02706
28.05 -0.02715
28.1 -0.02431
28.15 -0.01999
28.2 -0.01601
28.25 -0.01508
28.3 -0.01998
28.35 -0.02617
28.4 -0.02662
28.45 -0.0326
28.5 -0.03816
28.55 -0.04587
28.6 -0.05008
28.65 -0.05936
28.7 -0.06613
28.75 -0.07029
28.8 -0.07474
28.85 -0.07874
28.9 -0.08902
28.95 -0.10332
29 -0.12233
29.05 -0.13705
29.1 -0.15367
29.15 -0.16766
29.2 -0.18217
29.25 -0.20115
29.3 -0.21767
29.35 -0.23879
29.4 -0.26144
29.45 -0.2861
29.5 -0.31331
29.55 -0.3413
29.6 -0.36304
29.65 -0.38447
29.7 -0.40117
29.75 -0.41784
29.8 -0.43418
29.85 -0.44621
29.9 -0.4572
29.95 -0.46025
30 -0.46026
30.05 -0.46008
30.1 -0.4529
30.15 -0.43834
30.2 -0.42427
30.25 -0.40283
30.3 -0.37739
30.35 -0.35102
30.4 -0.32923
30.45 -0.30349
30.5 -0.27458
30.55 -0.2449
30.6 -0.21573
30.65 -0.1835
30.7 -0.1542
30.75 -0.12271
30.8 -0.09533
30.85 -0.07251
30.9 -0.04815
30.95 -0.0301
31 -0.01533
31.05 0.00345
31.1 0.02327
31.15 0.04515
31.2 0.06448
31.25 0.08086
31.3 0.09829
31.35 0.10935
31.4 0.12419
31.45 0.14092
31.5 0.15179
31.55 0.15857
31.6 0.16918
31.65 0.18151
31.7 0.18964
31.75 0.19485
31.8 0.20061
31.85 0.20619
31.9 0.20889
31.95 0.21265
32 0.21507
32.05 0.22004
32.1 0.22638
32.15 0.23523
32.2 0.24847
32.25 0.26215
32.3 0.27627
32.35 0.29331
32.4 0.30654
32.45 0.32097
32.5 0.33232
32.55 0.34569
32.6 0.35499
32.65 0.36334
32.7 0.36895
32.75 0.36895
32.8 0.37098
32.85 0.3735
32.9 0.37352
32.95 0.37425
33 0.37423
33.05 0.37738
33.1 0.37837
33.15 0.37674
33.2 0.37329
33.25 0.36784
33.3 0.35893
33.35 0.34974
33.4 0.34104
33.45 0.33087
33.5 0.32006
33.55 0.31591
33.6 0.31212
33.65 0.31048
33.7 0.3082
33.75 0.29976
33.8 0.29289
33.85 0.28622
33.9 0.27824
33.95 0.26721
34 0.25436
34.05 0.23945
34.1 0.22308
34.15 0.21213
34.2 0.20441
34.25 0.19599
34.3 0.1852
34.35 0.17674
34.4 0.17107
34.45 0.16728
34.5 0.15821
34.55 0.14522
34.6 0.13308
34.65 0.12047
34.7 0.10717
34.75 0.097
34.8 0.08874
34.85 0.08135
34.9 0.0697
34.95 0.06063
35 0.05558
35.05 0.05076
35.1 0.04848
35.15 0.0429
35.2 0.03758
35.25 0.03319
35.3 0.02898
35.35 0.02502
35.4 0.02251
35.45 0.01924
35.5 0.01685
35.55 0.00736
35.6 0.00242
35.65 -0.00762
35.7 -0.01369
35.75 -0.02424
35.8 -0.03541
35.85 -0.04518
35.9 -0.04724
35.95 -0.05193
36 -0.05472
36.05 -0.05884
36.1 -0.06381
36.15 -0.06723
36.2 -0.06847
36.25 -0.0645
36.3 -0.0614
36.35 -0.06354
36.4 -0.063
36.45 -0.06386
36.5 -0.06735
36.55 -0.06863
36.6 -0.07296
36.65 -0.07036
36.7 -0.07065
36.75 -0.07077
36.8 -0.0684
36.85 -0.06251
36.9 -0.06302
36.95 -0.06341
37 -0.05932
37.05 -0.05908
37.1 -0.0602
37.15 -0.05706
37.2 -0.05646
37.25 -0.05918
37.3 -0.0568
37.35 -0.05212
37.4 -0.04684
37.45 -0.04629
37.5 -0.04865
37.55 -0.04737
37.6 -0.04727
37.65 -0.04919
37.7 -0.04733
37.75 -0.04469
37.8 -0.04624
37.85 -0.04358
37.9 -0.04124
37.95 -0.03743
38 -0.03604
38.05 -0.034
38.1 -0.03046
38.15 -0.03344
38.2 -0.0388
38.25 -0.04062
38.3 -0.04498
38.35 -0.04631
38.4 -0.04376
38.45 -0.04132
38.5 -0.04391
38.55 -0.04511
38.6 -0.04588
38.65 -0.0456
38.7 -0.04653
38.75 -0.04413
38.8 -0.04702
38.85 -0.04959
38.9 -0.04943
38.95 -0.0498
39 -0.04614
39.05 -0.04399
39.1 -0.03806
39.15 -0.03484
39.2 -0.03137
39.25 -0.03237
39.3 -0.03014
39.35 -0.03076
39.4 -0.03627
39.45 -0.03568
39.5 -0.03444
39.55 -0.03872
39.6 -0.04389
39.65 -0.04565
39.7 -0.0456
39.75 -0.04662
39.8 -0.04867
39.85 -0.04872
39.9 -0.04465
39.95 -0.04513
40 -0.04067
40.05 -0.0347
40.1 -0.03009
40.15 -0.02919
40.2 -0.02792
40.25 -0.03191
40.3 -0.03215
40.35 -0.02897
40.4 -0.02531
40.45 -0.02075
40.5 -0.01848
40.55 -0.01384
40.6 -0.01586
40.65 -0.02137
40.7 -0.02788
40.75 -0.03461
40.8 -0.03626
40.85 -0.0386
40.9 -0.04026
40.95 -0.03862
41 -0.03451
41.05 -0.03331
41.1 -0.03408
41.15 -0.03119
41.2 -0.02908
41.25 -0.03174
41.3 -0.02978
41.35 -0.03229
41.4 -0.03448
41.45 -0.03735
41.5 -0.03866
41.55 -0.04197
41.6 -0.04229
41.65 -0.04376
41.7 -0.04618
41.75 -0.04352
41.8 -0.03569
41.85 -0.03195
41.9 -0.02585
41.95 -0.02345
42 -0.02468
42.05 -0.02407
42.1 -0.02208
42.15 -0.02356
42.2 -0.02746
42.25 -0.02414
42.3 -0.01671
42.35 -0.01269
42.4 -0.00931
42.45 -0.00483
42.5 -0.00698
42.55 -0.00705
42.6 -0.00389
42.65 -0.00502
42.7 -0.00881
42.75 -0.00953
42.8 -0.01297
42.85 -0.01637
42.9 -0.01733
42.95 -0.01975
43 -0.01953
43.05 -0.01486
43.1 -0.00936
43.15 -0.00272
43.2 0.00495
43.25 0.00986
43.3 0.00699
43.35 0.00621
43.4 0.00649
43.45 0.00716
43.5 0.00707
43.55 0.00782
43.6 0.00558
43.65 0.00123
43.7 -0.00262
43.75 -0.00666
43.8 -0.00863
43.85 -0.01067
43.9 -0.01129
43.95 -0.0089
44 -0.00599
44.05 -0.00595
44.1 -0.00304
44.15 0.00202
44.2 0.00038
44.25 -0.00339
44.3 -0.00418
44.35 -0.00753
44.4 -0.01232
44.45 -0.01265
44.5 -0.01234
44.55 -0.00994
44.6 -0.00676
44.65 -0.00227
44.7 -0.00296
44.75 -0.00631
44.8 -0.00992
44.85 -0.00751
44.9 -0.00559
44.95 -0.00335
45 -0.00285
45.05 -0.00187
45.1 -0.00189
45.15 -0.00004
45.2 0.0024
45.25 0.00121
45.3 0.00101
45.35 -0.00117
45.4 -0.00641
45.45 -0.00656
45.5 -0.01029
45.55 -0.01371
45.6 -0.01545
45.65 -0.01613
45.7 -0.01902
45.75 -0.01553
45.8 -0.01584
45.85 -0.01823
45.9 -0.01955
45.95 -0.01708
46 -0.01011
46.05 -0.00855
46.1 -0.00308
46.15 -0.00337
46.2 0.00052
46.25 0.00663
46.3 0.01087
46.35 0.0082
46.4 0.00387
46.45 -0.0028
46.5 -0.00735
46.55 -0.01484
46.6 -0.01658
46.65 -0.01698
46.7 -0.01762
46.75 -0.02061
46.8 -0.02412
46.85 -0.02094
46.9 -0.01476
46.95 -0.00823
47 0.00029
47.05 0.00777
47.1 0.01483
47.15 0.0149
47.2 0.01009
47.25 0.00572
47.3 -0.00205
47.35 -0.00452
47.4 -0.00229
47.45 -0.00094
47.5 0.00159
47.55 0.00451
47.6 0.00605
47.65 0.00553
47.7 -0.00034
47.75 -0.00352
47.8 -0.00865
47.85 -0.01457
47.9 -0.01649
47.95 -0.0145
48 -0.00936
48.05 -0.00218
48.1 0.00059
48.15 0.00525
48.2 0.01037
48.25 0.01182
48.3 0.01348
48.35 0.01685
48.4 0.0155
48.45 0.01393
48.5 0.01434
48.55 0.00896
48.6 0.00786
48.65 0.00389
48.7 0.00339
48.75 0.00396
48.8 0.00578
48.85 0.00737
48.9 0.01144
48.95 0.01673
49 0.01419
49.05 0.01188
49.1 0.0069
49.15 0.00113
49.2 -0.00684
49.25 -0.00776
49.3 -0.01257
49.35 -0.01708
49.4 -0.02293
49.45 -0.02872
49.5 -0.03141
49.55 -0.02653
49.6 -0.02398
49.65 -0.02253
49.7 -0.02128
49.75 -0.01897
49.8 -0.02096
49.85 -0.01842
49.9 -0.01216
49.95 -0.0059
50 -0.00567
50.05 -0.00943
50.1 -0.00885
50.15 -0.00678
50.2 -0.00939
50.25 -0.00674
50.3 -0.00212
50.35 0.00514
50.4 0.00601
50.45 0.00702
50.5 0.00614
50.55 0.00296
50.6 0.0007
50.65 -0.00046
50.7 0.0019
50.75 0.00151
50.8 0.00055
50.85 -0.00323
50.9 -0.00704
50.95 -0.01042
51 -0.01238
51.05 -0.01128
51.1 -0.00655
51.15 -0.00762
51.2 -0.00322
51.25 -0.00281
51.3 -0.00466
51.35 -0.00277
51.4 -0.00148
51.45 -0.00155
51.5 -0.00502
51.55 -0.00508
51.6 -0.00915
51.65 -0.01214
51.7 -0.017
51.75 -0.02031
51.8 -0.02329
51.85 -0.02311
51.9 -0.02058
51.95 -0.01545
52 -0.01408
52.05 -0.01594
52.1 -0.01718
52.15 -0.01378
52.2 -0.00944
52.25 -0.00575
52.3 -0.00663
52.35 -0.00353
52.4 0.0022
52.45 0.00887
52.5 0.01705
52.55 0.01698
52.6 0.01381
52.65 0.01055
52.7 0.00348
52.75 0.00272
52.8 0.00633
52.85 0.00552
52.9 0.00634
52.95 0.0071
53 0.00708
53.05 0.00279
53.1 0.00133
53.15 0.00278
53.2 0.00722
53.25 0.01234
53.3 0.01242
53.35 0.01505
53.4 0.01854
53.45 0.02033
53.5 0.01791
53.55 0.01865
53.6 0.01771
53.65 0.01651
53.7 0.0114
53.75 0.00777
53.8 0.00809
53.85 0.00486
53.9 -0.00254
53.95 -0.00596
54 -0.01162
54.05 -0.01109
54.1 -0.01438
54.15 -0.01703
54.2 -0.01791
54.25 -0.02164
54.3 -0.02283
54.35 -0.02607
54.4 -0.02588
54.45 -0.02653
54.5 -0.0262
54.55 -0.02439
54.6 -0.02157
54.65 -0.01871
54.7 -0.01844
54.75 -0.0123
54.8 -0.01039
54.85 -0.00832
54.9 -0.0055
54.95 -0.00076
55 0.00696
55.05 0.01481
55.1 0.01717
55.15 0.01557
55.2 0.01559
55.25 0.01829
55.3 0.0206
55.35 0.01986
55.4 0.01344
55.45 0.01254
55.5 0.00927
55.55 0.01016
55.6 0.01324
55.65 0.01019
55.7 0.0112
55.75 0.00805
55.8 0.00214
55.85 -0.00168
55.9 -0.00753
55.95 -0.00637
56 -0.00409
56.05 -0.0053
56.1 -0.0088
56.15 -0.00862
56.2 -0.00707
56.25 -0.0082
56.3 -0.01194
56.35 -0.01018
56.4 -0.01212
56.45 -0.01186
56.5 -0.01527
56.55 -0.01716
56.6 -0.01356
56.65 -0.00824
56.7 -0
56.75 0.0064
56.8 0.01086
56.85 0.00962
56.9 0.00978
56.95 0.00734
57 0.00141
57.05 -0.00337
57.1 -0.00732
57.15 -0.00714
57.2 -0.00826
57.25 -0.00479
57.3 -0.00591
57.35 -0.00177
57.4 -0.0017
57.45 -0.00185
57.5 -0.00236
57.55 -0.00216
57.6 -0.00444
57.65 -0.00617
57.7 -0.0036
57.75 -0.00067
57.8 0.00366
57.85 0.00514
57.9 0.00213
57.95 0.00297
58 0.007
58.05 0.00936
58.1 0.0123
58.15 0.01669
58.2 0.01667
58.25 0.01511
58.3 0.01435
58.35 0.01138
58.4 0.00691
58.45 0.00475
58.5 -0.00131
58.55 -0.00831
58.6 -0.00963
58.65 -0.01365
58.7 -0.01085
58.75 -0.01097
58.8 -0.00698
58.85 -0.00832
58.9 -0.01295
58.95 -0.01784
59 -0.02352
59.05 -0.02859
59.1 -0.02715
59.15 -0.02697
59.2 -0.02077
59.25 -0.01475
59.3 -0.01027
59.35 -0.00275
59.4 0.00222
59.45 0.00764
59.5 0.01111
59.55 0.01502
59.6 0.01408
59.65 0.01626
59.7 0.01646
59.75 0.01688
59.8 0.01969
59.85 0.02162
59.9 0.02323
59.95 0.02499
60 0.02737
60.05 0.02851
60.1 0.0249
60.15 0.01675
60.2 0.00715
60.25 0.00397
60.3 0.00337
60.35 0.00502
60.4 0.00353
60.45 -0.00142
60.5 -0.00713
60.55 -0.01341
60.6 -0.01714
60.65 -0.01804
60.7 -0.01709
60.75 -0.01539
60.8 -0.0107
60.85 -0.01079
60.9 -0.01044
60.95 -0.01007
61 -0.01142
61.05 -0.01419
61.1 -0.01558
61.15 -0.01988
61.2 -0.01663
61.25 -0.00928
61.3 -0.00375
61.35 0.00124
61.4 0.00595
61.45 0.0072
61.5 0.00961
61.55 0.00604
61.6 0.00132
61.65 0.00214
61.7 -0.0018
61.75 -0.0014
61.8 0.00212
61.85 0.00789
61.9 0.01119
61.95 0.01322
62 0.01044
62.05 0.01134
62.1 0.0137
62.15 0.01571
62.2 0.01963
62.25 0.01996
62.3 0.02025
62.35 0.01431
62.4 0.01014
62.45 0.00601
62.5 -0.00123
62.55 -0.00825
62.6 -0.01636
62.65 -0.02284
62.7 -0.02546
62.75 -0.02703
62.8 -0.02214
62.85 -0.01549
62.9 -0.01135
62.95 -0.00948
63 -0.00492
63.05 0.00244
63.1 0.0074
63.15 0.01135
63.2 0.01451
63.25 0.01419
63.3 0.01579
63.35 0.01949
63.4 0.0218
63.45 0.02033
63.5 0.01671
63.55 0.01226
63.6 0.00661
63.65 0.00626
63.7 0.00977
63.75 0.01362
63.8 0.01158
63.85 0.01338
63.9 0.0104
63.95 0.00754
64 0.00275
64.05 0.00129
64.1 0.00046
64.15 0.002
64.2 -0.00011
64.25 -0.00133
64.3 -0.001
64.35 -0.0023
64.4 -0.00538
64.45 -0.00634
64.5 -0.00731
64.55 -0.00651
64.6 -0.01
64.65 -0.01469
64.7 -0.01569
64.75 -0.01767
64.8 -0.02149
64.85 -0.0221
64.9 -0.02271
64.95 -0.02362
65 -0.02088
65.05 -0.01988
65.1 -0.01891
65.15 -0.01571
65.2 -0.01087
65.25 -0.00466
65.3 -0.00378
65.35 -0.00714
65.4 -0.005
65.45 0.00022
65.5 0.00612
65.55 0.01353
65.6 0.01594
65.65 0.01193
65.7 0.01282
65.75 0.00972
65.8 0.00634
65.85 -0.00084
65.9 -0.00422
65.95 -0.00652
66 -0.01184
66.05 -0.01163
66.1 -0.01171
66.15 -0.01169
66.2 -0.00791
66.25 -0.00532
66.3 -0.00589
66.35 -0.00646
66.4 -0.00298
66.45 0.00285
66.5 0.00628
66.55 0.00813
66.6 0.00658
66.65 0.00404
66.7 0.00427
66.75 0.00181
66.8 -0.0014
66.85 0.00027
66.9 0.00481
66.95 0.01147
67 0.01487
67.05 0.01757
67.1 0.01323
67.15 0.00778
67.2 -0.00034
67.25 -0.00865
67.3 -0.0157
67.35 -0.01862
67.4 -0.02298
67.45 -0.02011
67.5 -0.01402
67.55 -0.01153
67.6 -0.00786
67.65 -0.00879
67.7 -0.00505
67.75 -0.00053
67.8 -0.00227
67.85 -0.00568
67.9 -0.00855
67.95 -0.01379
68 -0.02004
68.05 -0.02449
68.1 -0.02523
68.15 -0.01932
68.2 -0.01249
68.25 -0.00497
68.3 0.002
68.35 0.00999
68.4 0.01022
68.45 0.0093
68.5 0.00814
68.55 0.00761
68.6 0.01045
68.65 0.01426
68.7 0.01802
68.75 0.01892
68.8 0.01645
68.85 0.01028
68.9 0.00352
68.95 -0.00465
69 -0.00756
69.05 -0.01161
69.1 -0.01554
69.15 -0.01252
69.2 -0.00598
69.25 -0.00548
69.3 -0.0024
69.35 0.00297
69.4 0.00707
69.45 0.01209
69.5 0.01533
69.55 0.01751
69.6 0.01603
69.65 0.01164
69.7 0.00504
69.75 0.00277
69.8 0.00131
69.85 -0.00408
69.9 -0.00337
69.95 -0.00681
70 -0.00729
70.05 -0.004
70.1 -0.0004
70.15 0.00202
70.2 0.00083
70.25 0.0017
70.3 0.00285
70.35 -0.00059
70.4 -0.00508
70.45 -0.00791
70.5 -0.00867
70.55 -0.01105
70.6 -0.00766
70.65 -0.00586
70.7 -0.00575
70.75 -0.00246
70.8 -0.0021
70.85 -0.00321
70.9 -0.00712
70.95 -0.01187
71 -0.01715
71.05 -0.02034
71.1 -0.02272
71.15 -0.0259
71.2 -0.02137
71.25 -0.01333
71.3 -0.00694
71.35 -0.00597
71.4 -0.00116
71.45 0.00223
71.5 0.00664
71.55 0.00913
71.6 0.01312
71.65 0.01514
71.7 0.01173
71.75 0.0042
71.8 -0.00181
71.85 -0.00356
71.9 -0.00277
71.95 0.0024
72 0.00765
72.05 0.00772
72.1 0.00891
72.15 0.008
72.2 0.00632
72.25 0.00387
72.3 -0.00113
72.35 -0.00356
72.4 -0.00519
72.45 -0.00804
72.5 -0.01249
72.55 -0.01143
72.6 -0.00799
72.65 -0.009
72.7 -0.00517
72.75 -0.00087
72.8 0.00597
72.85 0.0067
72.9 0.0076
72.95 0.00372
73 0.00055
73.05 -0.00534
73.1 -0.01033
73.15 -0.01417
73.2 -0.01566
73.25 -0.01367
73.3 -0.01357
73.35 -0.01274
73.4 -0.01228
73.45 -0.00775
73.5 -0.00113
73.55 0.00575
73.6 0.00833
73.65 0.01149
73.7 0.01333
73.75 0.01066
73.8 0.00654
73.85 0.00549
73.9 0.00446
73.95 0.00383
74 0.00544
74.05 0.00738
74.1 0.00865
74.15 0.00862
74.2 0.01098
74.25 0.01442
74.3 0.0191
74.35 0.02511
74.4 0.0284
74.45 0.03116
74.5 0.0309
74.55 0.02538
74.6 0.02194
74.65 0.01664
74.7 0.00771
74.75 0.00108
74.8 -0.00122
74.85 -0.00676
74.9 -0.01396
74.95 -0.01369
75 -0.00808
75.05 -0.00039
75.1 0.00748
75.15 0.01333
75.2 0.01616
75.25 0.01406
75.3 0.01127
75.35 0.00533
75.4 0.00126
75.45 0.00147
75.5 0.00534
75.55 0.00785
75.6 0.00651
75.65 0.00882
75.7 0.01333
75.75 0.0113
75.8 0.00538
75.85 0.00242
75.9 0.00079
75.95 0.00292
76 0.00606
76.05 0.00537
76.1 0.00223
76.15 0.00379
76.2 0.00142
76.25 0.00175
76.3 0.00239
76.35 0.00357
76.4 0.00632
76.45 0.00569
76.5 0.00129
76.55 -0.00456
76.6 -0.00407
76.65 -0.00031
76.7 -0.00234
76.75 -0.00266
76.8 -0.0076
76.85 -0.01434
76.9 -0.01631
76.95 -0.01977
77 -0.01741
77.05 -0.01936
77.1 -0.02135
77.15 -0.01993
77.2 -0.02022
77.25 -0.01879
77.3 -0.01348
77.35 -0.01135
77.4 -0.0067
77.45 -0.00659
77.5 -0.00805
77.55 -0.00668
77.6 -0.00182
77.65 0.00128
77.7 0.00282
77.75 0.00356
77.8 0.00484
77.85 0.00546
77.9 0.00575
77.95 0.00164
78 -0.00066
78.05 -0.00131
78.1 -0.00192
78.15 -0.00653
78.2 -0.01314
78.25 -0.01583
78.3 -0.01916
78.35 -0.02009
78.4 -0.02105
78.45 -0.0175
78.5 -0.01034
78.55 -0.0038
78.6 0.00287
78.65 0.00317
78.7 -0.00066
78.75 -0.00593
78.8 -0.01283
78.85 -0.01774
78.9 -0.02075
78.95 -0.01816
79 -0.01703
79.05 -0.01658
79.1 -0.01172
79.15 -0.00824
79.2 -0.00831
79.25 -0.0055
79.3 -0.00748
79.35 -0.01138
79.4 -0.00975
79.45 -0.00591
79.5 0.00124
79.55 0.00232
79.6 0.00645
79.65 0.01113
79.7 0.01349
79.75 0.0121
79.8 0.01212
79.85 0.01006
79.9 0.00642
79.95 0.00505
80 0.00576
80.05 0.00695
80.1 0.0077
80.15 0.00804
80.2 0.01065
80.25 0.01459
80.3 0.01783
80.35 0.01705
80.4 0.01508
80.45 0.01406
80.5 0.01664
80.55 0.0127
80.6 0.0116
80.65 0.0075
80.7 0.00117
80.75 0.00099
80.8 0.00242
80.85 0.00565
80.9 0.0087
80.95 0.00756
81 0.00637
81.05 0.00529
81.1 0.00495
81.15 0.00297
81.2 0.00335
81.25 -0.0012
81.3 -0.00213
81.35 0.00049
81.4 0.00208
81.45 0.00334
81.5 0.00189
81.55 -0.00398
81.6 -0.00747
81.65 -0.00836
81.7 -0.00434
81.75 -0.0034
81.8 -0.00428
81.85 -0.00778
81.9 -0.01213
81.95 -0.01055
82 -0.01094
82.05 -0.01224
82.1 -0.01153
82.15 -0.01311
82.2 -0.0152
82.25 -0.01137
82.3 -0.00851
82.35 -0.00776
82.4 -0.00925
82.45 -0.00966
82.5 -0.00654
82.55 -0.0062
82.6 -0.00367
82.65 0.00164
82.7 0.00057
82.75 0.00229
82.8 0.00717
82.85 0.01073
82.9 0.0089
82.95 0.0062
83 0.00442
83.05 0.0031
83.1 0.00018
83.15 0.00159
83.2 0.0002
83.25 -0.00349
83.3 -0.00515
83.35 -0.00161
83.4 0.00486
83.45 0.00395
83.5 0.00731
83.55 0.009
83.6 0.00878
83.65 0.01091
83.7 0.01255
83.75 0.01299
83.8 0.01043
83.85 0.00379
83.9 -0.00503
83.95 -0.00885
84 -0.0126
84.05 -0.01728
84.1 -0.01934
84.15 -0.02155
84.2 -0.01889
84.25 -0.01845
84.3 -0.01817
84.35 -0.01749
84.4 -0.01171
84.45 -0.00589
84.5 -0.00204
84.55 0.00311
84.6 0.00463
84.65 0.00453
84.7 0.00505
84.75 0.00301
84.8 0.0018
84.85 0.00448
84.9 0.00983
84.95 0.01385
85 0.01822
85.05 0.01652
85.1 0.01028
85.15 0.00843
85.2 0.00975
85.25 0.00715
85.3 0.00886
85.35 0.01047
85.4 0.01381
85.45 0.01481
85.5 0.01086
85.55 0.01168
85.6 0.01022
85.65 0.00988
85.7 0.01257
85.75 0.00953
85.8 0.00561
85.85 0.00169
85.9 -0.00169
85.95 -0.0005
86 0.00296
86.05 0.00332
86.1 0.00686
86.15 0.00446
86.2 0.00192
86.25 -0.0039
86.3 -0.00608
86.35 -0.00466
86.4 -0.00203
86.45 -0.00097
86.5 0.00067
86.55 0.00122
86.6 0.00516
86.65 0.00753
86.7 0.00829
86.75 0.0109
86.8 0.0137
86.85 0.01614
86.9 0.01286
86.95 0.00514
87 -0.00252
87.05 -0.00615
87.1 -0.00948
87.15 -0.01221
87.2 -0.012
87.25 -0.01079
87.3 -0.0132
87.35 -0.01764
87.4 -0.01922
87.45 -0.01873
87.5 -0.01513
87.55 -0.00919
87.6 -0.00209
87.65 0.00477
87.7 0.01246
87.75 0.01813
87.8 0.01793
87.85 0.01283
87.9 0.00788
87.95 0.00822
88 0.00362
88.05 0.00414
88.1 0.00267
88.15 -0.00029
88.2 -0.00189
88.25 -0.003
88.3 0.0004
88.35 0.00088
88.4 0.00422
88.45 0.0093
88.5 0.0076
88.55 0.00818
88.6 0.01146
88.65 0.00876
88.7 0.00775
88.75 0.00712
88.8 0.00383
88.85 -0.00075
88.9 -0.00455
88.95 -0.01053
89 -0.01604
89.05 -0.01706
89.1 -0.01582
89.15 -0.01422
89.2 -0.01084
89.25 -0.01193
89.3 -0.01036
89.35 -0.00415
89.4 0.00395
89.45 0.00716
89.5 0.00429
89.55 0.0048
89.6 0.00518
89.65 0.00543
89.7 0.00612
89.75 0.00314
89.8 -0.00238
89.85 -0.00515
89.9 -0.00836
89.95 -0.01182
90 -0.01307
90.05 -0.00887
90.1 -0.0031
90.15 0.00356
90.2 0.00749
90.25 0.01345
90.3 0.01762
90.35 0.01971
90.4 0.01493
90.45 0.00786
90.5 -0.00184
90.55 -0.00516
90.6 -0.00588
90.65 -0.00586
90.7 -0.00399
90.75 -0.00668
90.8 -0.00677
90.85 -0.00238
90.9 0.00482
90.95 0.00836
91 0.01012
91.05 0.00758
91.1 0.00446
91.15 0.00483
91.2 0.00879
91.25 0.00682
91.3 0.0023
91.35 0.00063
91.4 -0.00164
91.45 -0.0034
91.5 -0.00474
91.55 -0.00724
91.6 -0.01181
91.65 -0.01504
91.7 -0.01943
91.75 -0.01709
91.8 -0.01699
91.85 -0.01398
91.9 -0.00673
91.95 -0.00038
92 0.0003
92.05 -0.00244
92.1 -0.00869
92.15 -0.01096
92.2 -0.01598
92.25 -0.01446
92.3 -0.00793
92.35 -0.00094
92.4 0.00377
92.45 0.0058
92.5 0.00708
92.55 0.00549
92.6 0.0064
92.65 0.01056
92.7 0.012
92.75 0.01357
92.8 0.00919
92.85 0.00435
92.9 0.00028
92.95 -0.00166
93 -0.00359
93.05 -0.00748
93.1 -0.00527
93.15 -0.00187
93.2 0.0047
93.25 0.01143
93.3 0.01683
93.35 0.01926
93.4 0.01981
93.45 0.02189
93.5 0.02424
93.55 0.02159
93.6 0.02212
93.65 0.02293
93.7 0.01681
93.75 0.00709
93.8 -0.00248
93.85 -0.01069
93.9 -0.01656
93.95 -0.02233
94 -0.02925
94.05 -0.02958
94.1 -0.02906
94.15 -0.03098
94.2 -0.03036
94.25 -0.02793
94.3 -0.02514
94.35 -0.02497
94.4 -0.02081
94.45 -0.01283
94.5 -0.01049
94.55 -0.01208
94.6 -0.01277
94.65 -0.01242
94.7 -0.01438
94.75 -0.01466
94.8 -0.00909
94.85 -0.00863
94.9 -0.00462
94.95 -0.00208
95 -0.00461
95.05 -0.00148
95.1 -0.00148
95.15 -0.00484
95.2 -0.00461
95.25 -0.00079
95.3 -0.00065
95.35 -0.00081
95.4 -0.00003
95.45 -0.00109
95.5 -0.00251
95.55 -0.00428
95.6 -0.00853
95.65 -0.00993
95.7 -0.0129
95.75 -0.01572
95.8 -0.01447
95.85 -0.00905
95.9 -0.00722
95.95 -0.00198
96 -0.00035
96.05 -0.00292
96.1 -0.00757
96.15 -0.00683
96.2 -0.00596
96.25 -0.00516
96.3 -0.00168
96.35 0.00446
96.4 0.00449
96.45 0.0041
96.5 0.00405
96.55 0.00693
96.6 0.00718
96.65 0.00284
96.7 -0.00394
96.75 -0.01086
96.8 -0.0142
96.85 -0.01071
96.9 -0.00936
96.95 -0.00597
97 -0.00462
97.05 -0.00092
97.1 -0.00066
97.15 0.00142
97.2 0.00106
97.25 0.00074
97.3 0.00272
97.35 0.00028
97.4 0.00353
97.45 0.00954
97.5 0.01437
97.55 0.01216
97.6 0.00741
97.65 0.00397
97.7 -0.00053
97.75 -0.00414
97.8 -0.00607
97.85 -0.00511
97.9 -0.0061
97.95 -0.00199
98 0.00299
98.05 0.00572
98.1 0.00802
98.15 0.00794
98.2 0.00979
98.25 0.00959
98.3 0.00752
98.35 0.00155
98.4 -0.00094
98.45 -0.00287
98.5 -0.00149
98.55 -0.00259
98.6 -0.00325
98.65 -0.00705
98.7 -0.01337
98.75 -0.01154
98.8 -0.01091
98.85 -0.00599
98.9 -0.00114
98.95 0.00117
99 0.00655
99.05 0.00662
99.1 0.00311
99.15 0.00381
99.2 -0.00003
99.25 -0.00426
99.3 -0.01074
99.35 -0.01638
99.4 -0.01688
99.45 -0.01871
99.5 -0.02282
99.55 -0.02501
99.6 -0.02583
99.65 -0.02399
99.7 -0.01623
99.75 -0.01126
99.8 -0.00461
99.85 0.0031
99.9 0.00553
99.95 0.00355
