0 0
0.05 0.00316
0.1 0.01237
0.15 0.02371
0.2 0.03612
0.25 0.04761
0.3 0.05159
0.35 0.05088
0.4 0.05081
0.45 0.05204
0.5 0.05044
0.55 0.04984
0.6 0.04692
0.65 0.04797
0.7 0.04767
0.75 0.04603
0.8 0.04126
0.85 0.03553
0.9 0.03591
0.95 0.03237
1 0.03231
1.05 0.03643
1.1 0.03995
1.15 0.03932
1.2 0.03964
1.25 0.03718
1.3 0.03423
1.35 0.03464
1.4 0.03109
1.45 0.02664
1.5 0.02323
1.55 0.02334
1.6 0.02531
1.65 0.02663
1.7 0.03186
1.75 0.03515
1.8 0.03497
1.85 0.03702
1.9 0.04004
1.95 0.04373
2 0.0479
2.05 0.05075
2.1 0.05257
2.15 0.05392
2.2 0.04856
2.25 0.04682
2.3 0.04737
2.35 0.04547
2.4 0.04004
2.45 0.0383
2.5 0.0327
2.55 0.0261
2.6 0.02312
2.65 0.02361
2.7 0.0207
2.75 0.02252
2.8 0.02432
2.85 0.02898
2.9 0.03199
2.95 0.02963
3 0.02947
3.05 0.02792
3.1 0.02969
3.15 0.03276
3.2 0.03273
3.25 0.03324
3.3 0.03571
3.35 0.03764
3.4 0.03677
3.45 0.0302
3.5 0.02703
3.55 0.02374
3.6 0.02142
3.65 0.01833
3.7 0.01902
3.75 0.0157
3.8 0.01433
3.85 0.01684
3.9 0.02181
3.95 0.02007
4 0.01662
4.05 0.01775
4.1 0.0198
4.15 0.01627
4.2 0.01189
4.25 0.00777
4.3 0.00571
4.35 0.00754
4.4 0.00937
4.45 0.01322
4.5 0.01041
4.55 0.00422
4.6 0.00328
4.65 0.0002
4.7 -0.0041
4.75 -0.00764
4.8 -0.00997
4.85 -0.01384
4.9 -0.01866
4.95 -0.0247
5 -0.02931
5.05 -0.03193
5.1 -0.03439
5.15 -0.03881
5.2 -0.04444
5.25 -0.0463
5.3 -0.04756
5.35 -0.04764
5.4 -0.04867
5.45 -0.04974
5.5 -0.04745
5.55 -0.04102
5.6 -0.03475
5.65 -0.02724
5.7 -0.02102
5.75 -0.01387
5.8 -0.00502
5.85 0.00671
5.9 0.02403
5.95 0.04038
6 0.05843
6.05 0.07332
6.1 0.09014
6.15 0.10645
6.2 0.11598
6.25 0.12049
6.3 0.1246
6.35 0.12217
6.4 0.11335
6.45 0.10062
6.5 0.08663
6.55 0.06951
6.6 0.05237
6.65 0.03202
6.7 0.01603
6.75 0.00096
6.8 -0.01131
6.85 -0.02229
6.9 -0.03555
6.95 -0.05079
7 -0.06313
7.05 -0.07304
7.1 -0.07862
7.15 -0.08613
7.2 -0.08819
7.25 -0.08615
7.3 -0.08392
7.35 -0.08144
7.4 -0.07429
7.45 -0.06902
7.5 -0.06056
7.55 -0.05248
7.6 -0.04623
7.65 -0.03922
7.7 -0.02916
7.75 -0.02412
7.8 -0.01711
7.85 -0.01099
7.9 -0.00881
7.95 -0.00128
8 0.0061
8.05 0.01075
8.1 0.01159
8.15 0.01243
8.2 0.01622
8.25 0.01776
8.3 0.02198
8.35 0.02432
8.4 0.02485
8.45 0.02591
8.5 0.02969
8.55 0.03353
8.6 0.03464
8.65 0.03346
8.7 0.03589
8.75 0.03853
8.8 0.04304
8.85 0.04436
8.9 0.04277
8.95 0.03913
9 0.03748
9.05 0.03726
9.1 0.03985
9.15 0.03999
9.2 0.04043
9.25 0.04277
9.3 0.04457
9.35 0.04452
9.4 0.04408
9.45 0.04488
9.5 0.04255
9.55 0.03937
9.6 0.03889
9.65 0.03479
9.7 0.03117
9.75 0.02575
9.8 0.01926
9.85 0.01365
9.9 0.00973
9.95 0.00711
10 0.00493
10.05 0.00568
10.1 0.0096
10.15 0.01451
10.2 0.01428
10.25 0.01373
10.3 0.00876
10.35 0.00546
10.4 0.0067
10.45 0.00306
10.5 -0.00326
10.55 -0.00661
10.6 -0.0116
10.65 -0.01784
10.7 -0.02294
10.75 -0.02356
10.8 -0.02097
10.85 -0.0202
10.9 -0.01512
10.95 -0.00895
11 -0.00739
11.05 -0.00844
11.1 -0.01269
11.15 -0.01556
11.2 -0.01446
11.25 -0.01639
11.3 -0.01928
11.35 -0.02354
11.4 -0.02532
11.45 -0.02661
11.5 -0.02409
11.55 -0.01912
11.6 -0.01126
11.65 -0.00567
11.7 -0.00296
11.75 0.00128
11.8 0.00521
11.85 0.00927
11.9 0.01052
11.95 0.01209
12 0.00986
12.05 0.00877
12.1 0.00707
12.15 0.00806
12.2 0.01003
12.25 0.01291
12.3 0.01298
12.35 0.01256
12.4 0.01268
12.45 0.00989
12.5 0.00353
12.55 0.00054
12.6 -0.00397
12.65 -0.0037
12.7 -0.00237
12.75 0.00018
12.8 -0.00014
12.85 0.00316
12.9 0.00747
12.95 0.00653
13 0.00828
13.05 0.00751
13.1 0.00955
13.15 0.00998
13.2 0.01093
13.25 0.00712
13.3 -0.00004
13.35 -0.00151
13.4 -0.00435
13.45 -0.0048
13.5 -0.00682
13.55 -0.00425
13.6 -0.00618
13.65 -0.00386
13.7 -0.00297
13.75 -0.0032
13.8 -0.00637
13.85 -0.00471
13.9 -0.00045
13.95 0.00055
14 0.00117
14.05 0.00068
14.1 -0.00187
14.15 -0.0061
14.2 -0.00717
14.25 -0.00667
14.3 -0.00937
14.35 -0.00791
14.4 -0.00462
14.45 0.00122
14.5 0.00757
14.55 0.01154
14.6 0.01556
14.65 0.0178
14.7 0.01804
14.75 0.01709
14.8 0.0161
14.85 0.01355
14.9 0.01112
14.95 0.00646
15 0.00051
15.05 -0.00763
15.1 -0.00912
15.15 -0.00594
15.2 -0.00357
15.25 0.00068
15.3 0.00128
15.35 -0.00216
15.4 -0.00474
15.45 -0.00429
15.5 -0.00358
15.55 -0.00049
15.6 -0.0016
15.65 0.00051
15.7 0.00338
15.75 0.0031
15.8 0.00007
15.85 -0.00217
15.9 -0.00077
15.95 0.00152
16 0.00222
16.05 -0.00005
16.1 -0.00437
16.15 -0.00903
16.2 -0.01251
16.25 -0.01676
16.3 -0.01625
16.35 -0.01772
16.4 -0.01903
16.45 -0.01844
16.5 -0.01677
16.55 -0.01436
16.6 -0.00807
16.65 0
16.7 0.00118
16.75 0.00274
16.8 0.00438
16.85 0.00219
16.9 -0.00091
16.95 -0.00117
17 -0.00199
17.05 -0.00395
17.1 -0.00529
17.15 -0.00963
17.2 -0.0082
17.25 -0.00587
17.3 -0.00667
17.35 -0.00734
17.4 -0.01078
17.45 -0.01235
17.5 -0.01423
17.55 -0.01614
17.6 -0.01862
17.65 -0.01909
17.7 -0.01776
17.75 -0.01631
17.8 -0.01669
17.85 -0.01854
17.9 -0.01813
17.95 -0.01413
18 -0.00729
18.05 0.00001
18.1 0.00112
18.15 0.00195
18.2 0.00085
18.25 -0.00349
18.3 -0.00619
18.35 -0.00515
18.4 -0.00121
18.45 0.00552
18.5 0.00766
18.55 0.00529
18.6 -0.00039
18.65 -0.00309
18.7 -0.00676
18.75 -0.0059
18.8 -0.00086
18.85 0.00189
18.9 0.00144
18.95 0.00016
19 0.00055
19.05 0.0043
19.1 0.00936
19.15 0.01366
19.2 0.01194
19.25 0.01342
19.3 0.01387
19.35 0.01011
19.4 0.01034
19.45 0.01282
19.5 0.01642
19.55 0.02075
19.6 0.02001
19.65 0.01443
19.7 0.00903
19.75 0.0026
19.8 -0.00547
19.85 -0.00818
19.9 -0.01267
19.95 -0.01796
20 -0.01636
20.05 -0.01176
20.1 -0.00957
20.15 -0.00992
20.2 -0.00595
20.25 -0.00638
20.3 -0.004
20.35 -0.00412
20.4 -0.00114
20.45 -0.00202
20.5 -0.00494
20.55 -0.0101
20.6 -0.01112
20.65 -0.00951
20.7 -0.0117
20.75 -0.01488
20.8 -0.01696
20.85 -0.01817
20.9 -0.0153
20.95 -0.01334
21 -0.01228
21.05 -0.01332
21.1 -0.01244
21.15 -0.01438
21.2 -0.0146
21.25 -0.0139
21.3 -0.01596
21.35 -0.01264
21.4 -0.00914
21.45 -0.00321
21.5 -0.00091
21.55 0.00139
21.6 -0.00013
21.65 -0.00006
21.7 -0.00281
21.75 -0.00433
21.8 -0.00182
21.85 0.00242
21.9 0.00539
21.95 0.00615
22 0.00514
22.05 0.00185
22.1 0.00364
22.15 0.00879
22.2 0.01191
22.25 0.01004
22.3 0.01087
22.35 0.01074
22.4 0.0118
22.45 0.01139
22.5 0.0124
22.55 0.01265
22.6 0.00893
22.65 0.0054
22.7 0.00076
22.75 -0.00105
22.8 -0.00048
22.85 -0.00343
22.9 -0.00847
22.95 -0.0136
23 -0.0157
23.05 -0.01779
23.1 -0.02033
23.15 -0.01698
23.2 -0.01471
23.25 -0.01163
23.3 -0.00859
23.35 -0.00468
23.4 -0.00212
23.45 -0.00246
23.5 -0.00058
23.55 0.00363
23.6 0.00881
23.65 0.01024
23.7 0.00901
23.75 0.00811
23.8 0.00949
23.85 0.01217
23.9 0.01127
23.95 0.0112
24 0.01219
24.05 0.01123
24.1 0.01179
24.15 0.01029
24.2 0.00917
24.25 0.01099
24.3 0.01536
24.35 0.01896
24.4 0.02049
24.45 0.0161
24.5 0.01175
24.55 0.004
24.6 -0.00166
24.65 -0.00817
24.7 -0.01072
24.75 -0.0139
24.8 -0.01237
24.85 -0.01077
24.9 -0.00661
24.95 -0.00314
25 -0.00376
25.05 -0.00071
25.1 0.00387
25.15 0.00245
25.2 0.00043
25.25 0.00104
25.3 0.00007
25.35 0.00303
25.4 0.0082
25.45 0.0139
25.5 0.01716
25.55 0.02037
25.6 0.02135
25.65 0.02278
25.7 0.02217
25.75 0.02352
25.8 0.02533
25.85 0.02231
25.9 0.01493
25.95 0.01067
26 0.00318
26.05 -0.00012
26.1 0.00123
26.15 0.0006
26.2 0.00369
26.25 0.00309
26.3 -0.00084
26.35 -0.00591
26.4 -0.00529
26.45 -0.00087
26.5 0.00523
26.55 0.0071
26.6 0.00695
26.65 0.00874
26.7 0.0093
26.75 0.00763
26.8 0.00725
26.85 0.00374
26.9 -0.00167
26.95 -0.00273
27 -0.00362
27.05 -0.00614
27.1 -0.00469
27.15 -0.00618
27.2 -0.00383
27.25 -0.00188
27.3 -0.00252
27.35 -0.00065
27.4 -0.00216
27.45 -0.00648
27.5 -0.00874
27.55 -0.0138
27.6 -0.01762
27.65 -0.01774
27.7 -0.01964
27.75 -0.02328
27.8 -0.02767
27.85 -0.03205
27.9 -0.03959
27.95 -0.04738
28 -0.05514
28.05 -0.06152
28.1 -0.06801
28.15 -0.07304
28.2 -0.08229
28.25 -0.09497
28.3 -0.10915
28.35 -0.13197
28.4 -0.15588
28.45 -0.18198
28.5 -0.21779
28.55 -0.25323
28.6 -0.29608
28.65 -0.34254
28.7 -0.39176
28.75 -0.44513
28.8 -0.50908
28.85 -0.57918
28.9 -0.65827
28.95 -0.73785
29 -0.81961
29.05 -0.90759
29.1 -1.00388
29.15 -1.10066
29.2 -1.20299
29.25 -1.30821
29.3 -1.41613
29.35 -1.52344
29.4 -1.62655
29.45 -1.72734
29.5 -1.82564
29.55 -1.91983
29.6 -2.00759
29.65 -2.08787
29.7 -2.15735
29.75 -2.21632
29.8 -2.26391
29.85 -2.30436
29.9 -2.3356
29.95 -2.35038
30 -2.3537
30.05 -2.34202
30.1 -2.31782
30.15 -2.27878
30.2 -2.22783
30.25 -2.16465
30.3 -2.08708
30.35 -1.9921
30.4 -1.8816
30.45 -1.76179
30.5 -1.63778
30.55 -1.50261
30.6 -1.36209
30.65 -1.21751
30.7 -1.06626
30.75 -0.91011
30.8 -0.74984
30.85 -0.59121
30.9 -0.43097
30.95 -0.27418
31 -0.11604
31.05 0.0427
31.1 0.19816
31.15 0.35031
31.2 0.49303
31.25 0.62773
31.3 0.75752
31.35 0.87602
31.4 0.99101
31.45 1.09929
31.5 1.2038
31.55 1.2992
31.6 1.38624
31.65 1.4638
31.7 1.53812
31.75 1.60328
31.8 1.65941
31.85 1.70911
31.9 1.75004
31.95 1.78652
32 1.82111
32.05 1.84704
32.1 1.87016
32.15 1.88727
32.2 1.89889
32.25 1.90815
32.3 1.91565
32.35 1.92293
32.4 1.9299
32.45 1.93507
32.5 1.93409
32.55 1.92797
32.6 1.9215
32.65 1.91475
32.7 1.90374
32.75 1.89253
32.8 1.87748
32.85 1.8616
32.9 1.84687
32.95 1.82557
33 1.80574
33.05 1.78109
33.1 1.75735
33.15 1.73004
33.2 1.70322
33.25 1.67491
33.3 1.64732
33.35 1.61426
33.4 1.57688
33.45 1.54262
33.5 1.50579
33.55 1.46841
33.6 1.42813
33.65 1.39096
33.7 1.35144
33.75 1.31065
33.8 1.26593
33.85 1.22364
33.9 1.18289
33.95 1.13909
34 1.09202
34.05 1.04226
34.1 0.99399
34.15 0.94797
34.2 0.90671
34.25 0.86127
34.3 0.81275
34.35 0.76474
34.4 0.71732
34.45 0.67608
34.5 0.63725
34.55 0.59491
34.6 0.55333
34.65 0.51184
34.7 0.46974
34.75 0.43317
34.8 0.39709
34.85 0.36071
34.9 0.32854
34.95 0.29623
35 0.26577
35.05 0.23201
35.1 0.19952
35.15 0.16636
35.2 0.13825
35.25 0.10795
35.3 0.07931
35.35 0.05146
35.4 0.02645
35.45 0.00158
35.5 -0.0201
35.55 -0.03822
35.6 -0.05694
35.65 -0.07725
35.7 -0.09891
35.75 -0.11509
35.8 -0.13215
35.85 -0.15115
35.9 -0.16432
35.95 -0.18009
36 -0.19441
36.05 -0.21008
36.1 -0.22519
36.15 -0.23953
36.2 -0.25305
36.25 -0.26672
36.3 -0.27425
36.35 -0.27938
36.4 -0.28211
36.45 -0.28772
36.5 -0.29284
36.55 -0.29772
36.6 -0.30083
36.65 -0.30254
36.7 -0.30143
36.75 -0.29852
36.8 -0.29999
36.85 -0.30605
36.9 -0.31267
36.95 -0.32109
37 -0.32905
37.05 -0.33031
37.1 -0.33356
37.15 -0.33211
37.2 -0.32701
37.25 -0.32206
37.3 -0.31822
37.35 -0.31626
37.4 -0.31825
37.45 -0.32182
37.5 -0.32431
37.55 -0.32805
37.6 -0.3322
37.65 -0.33335
37.7 -0.33356
37.75 -0.32752
37.8 -0.32245
37.85 -0.3193
37.9 -0.31534
37.95 -0.30721
38 -0.29709
38.05 -0.28845
38.1 -0.28083
38.15 -0.27655
38.2 -0.2754
38.25 -0.27535
38.3 -0.27354
38.35 -0.26977
38.4 -0.26815
38.45 -0.26534
38.5 -0.25832
38.55 -0.2558
38.6 -0.24929
38.65 -0.24004
38.7 -0.23575
38.75 -0.22849
38.8 -0.22533
38.85 -0.22663
38.9 -0.23082
38.95 -0.23545
39 -0.2339
39.05 -0.23217
39.1 -0.23225
39.15 -0.23311
39.2 -0.23076
39.25 -0.22492
39.3 -0.21683
39.35 -0.20888
39.4 -0.20355
39.45 -0.19934
39.5 -0.19653
39.55 -0.19439
39.6 -0.19072
39.65 -0.18615
39.7 -0.17943
39.75 -0.17474
39.8 -0.16718
39.85 -0.15939
39.9 -0.15784
39.95 -0.15871
40 -0.15563
40.05 -0.14953
40.1 -0.14536
40.15 -0.14412
40.2 -0.14456
40.25 -0.1424
40.3 -0.14317
40.35 -0.14171
40.4 -0.144
40.45 -0.14104
40.5 -0.14258
40.55 -0.13939
40.6 -0.13773
40.65 -0.13603
40.7 -0.1306
40.75 -0.12848
40.8 -0.12743
40.85 -0.12222
40.9 -0.12233
40.95 -0.12465
41 -0.12488
41.05 -0.12633
41.1 -0.12434
41.15 -0.12488
41.2 -0.12462
41.25 -0.11966
41.3 -0.11557
41.35 -0.11468
41.4 -0.11532
41.45 -0.11494
41.5 -0.10907
41.55 -0.10217
41.6 -0.09817
41.65 -0.09279
41.7 -0.0871
41.75 -0.0826
41.8 -0.0834
41.85 -0.0811
41.9 -0.08054
41.95 -0.08168
42 -0.07967
42.05 -0.0799
42.1 -0.08047
42.15 -0.08413
42.2 -0.08478
42.25 -0.08274
42.3 -0.08429
42.35 -0.08079
42.4 -0.07831
42.45 -0.07789
42.5 -0.07388
42.55 -0.07358
42.6 -0.07313
42.65 -0.07238
42.7 -0.06984
42.75 -0.06981
42.8 -0.07088
42.85 -0.0728
42.9 -0.06922
42.95 -0.06359
43 -0.05949
43.05 -0.0608
43.1 -0.05997
43.15 -0.06249
43.2 -0.06572
43.25 -0.07019
43.3 -0.07165
43.35 -0.06923
43.4 -0.07017
43.45 -0.06634
43.5 -0.06609
43.55 -0.06223
43.6 -0.06046
43.65 -0.05984
43.7 -0.05701
43.75 -0.05102
43.8 -0.04351
43.85 -0.03725
43.9 -0.02993
43.95 -0.02509
44 -0.02544
44.05 -0.02697
44.1 -0.03297
44.15 -0.0346
44.2 -0.03351
44.25 -0.03679
44.3 -0.04179
44.35 -0.0485
44.4 -0.05155
44.45 -0.05004
44.5 -0.04938
44.55 -0.0515
44.6 -0.05032
44.65 -0.05235
44.7 -0.04944
44.75 -0.04333
44.8 -0.04271
44.85 -0.04331
44.9 -0.04358
44.95 -0.04642
45 -0.04319
45.05 -0.04089
45.1 -0.03799
45.15 -0.03946
45.2 -0.04347
45.25 -0.04316
45.3 -0.04243
45.35 -0.04147
45.4 -0.04319
45.45 -0.04049
45.5 -0.03937
45.55 -0.04064
45.6 -0.04359
45.65 -0.04494
45.7 -0.04569
45.75 -0.04632
45.8 -0.04267
45.85 -0.03986
45.9 -0.03667
45.95 -0.03557
46 -0.03732
46.05 -0.03285
46.1 -0.02715
46.15 -0.0259
46.2 -0.02518
46.25 -0.02703
46.3 -0.03065
46.35 -0.03023
46.4 -0.02956
46.45 -0.02847
46.5 -0.02922
46.55 -0.02924
46.6 -0.02799
46.65 -0.02593
46.7 -0.02039
46.75 -0.0193
46.8 -0.01422
46.85 -0.00764
46.9 -0.00596
46.95 -0.00532
47 -0.00601
47.05 -0.00563
47.1 -0.00985
47.15 -0.0139
47.2 -0.01396
47.25 -0.01348
47.3 -0.01267
47.35 -0.01109
47.4 -0.01174
47.45 -0.00817
47.5 -0.00695
47.55 -0.00612
47.6 -0.00753
47.65 -0.009
47.7 -0.01055
47.75 -0.00994
47.8 -0.01324
47.85 -0.01329
47.9 -0.01002
47.95 -0.01027
48 -0.01306
48.05 -0.01619
48.1 -0.01699
48.15 -0.02081
48.2 -0.02501
48.25 -0.02245
48.3 -0.02107
48.35 -0.01849
48.4 -0.0128
48.45 -0.01188
48.5 -0.01356
48.55 -0.01446
48.6 -0.01303
48.65 -0.0145
48.7 -0.01647
48.75 -0.01746
48.8 -0.01756
48.85 -0.01811
48.9 -0.01892
48.95 -0.0205
49 -0.02206
49.05 -0.02326
49.1 -0.02108
49.15 -0.01654
49.2 -0.01071
49.25 -0.00567
49.3 -0.0034
49.35 0.00136
49.4 0.00709
49.45 0.00632
49.5 0.00535
49.55 0.00211
49.6 -0.00446
49.65 -0.01025
49.7 -0.0152
49.75 -0.01465
49.8 -0.01167
49.85 -0.01214
49.9 -0.01274
49.95 -0.01214
50 -0.01458
50.05 -0.01332
50.1 -0.01211
50.15 -0.01215
50.2 -0.00829
50.25 -0.0076
50.3 -0.00378
50.35 -0.00499
50.4 -0.00366
50.45 -0.00552
50.5 -0.00772
50.55 -0.01147
50.6 -0.01629
50.65 -0.01847
50.7 -0.01941
50.75 -0.01981
50.8 -0.01587
50.85 -0.01095
50.9 -0.00945
50.95 -0.00748
51 -0.00171
51.05 -0.00028
51.1 0.00304
51.15 0.00263
51.2 0.00425
51.25 0.00827
51.3 0.00825
51.35 0.00421
51.4 0.00379
51.45 0.00624
51.5 0.01087
51.55 0.01368
51.6 0.01332
51.65 0.01511
51.7 0.01603
51.75 0.01813
51.8 0.01447
51.85 0.00991
51.9 0.00364
51.95 0
52 -0.0004
52.05 0.00062
52.1 0.00085
52.15 0.00032
52.2 -0.00337
52.25 -0.0086
52.3 -0.00841
52.35 -0.00942
52.4 -0.00617
52.45 -0.0001
52.5 0.00157
52.55 0.00175
52.6 -0.00047
52.65 -0.00001
52.7 -0.002
52.75 -0.00248
52.8 0.00043
52.85 0.00007
52.9 -0.00141
52.95 -0.00575
53 -0.00521
53.05 -0.00124
53.1 0.00395
53.15 0.00981
53.2 0.0136
53.25 0.01511
53.3 0.01137
53.35 0.01022
53.4 0.01222
53.45 0.0098
53.5 0.00991
53.55 0.00885
53.6 0.00521
53.65 0.00576
53.7 0.0088
53.75 0.01094
53.8 0.0076
53.85 0.00383
53.9 0.00308
53.95 0.00086
54 -0.00465
54.05 -0.00775
54.1 -0.00945
54.15 -0.01122
54.2 -0.0093
54.25 -0.01086
54.3 -0.01249
54.35 -0.00865
54.4 -0.00827
54.45 -0.00418
54.5 0.00234
54.55 0.00374
54.6 0.00108
54.65 -0.00322
54.7 -0.00698
54.75 -0.005
54.8 0.00001
54.85 0.00295
54.9 0.00386
54.95 0.00724
55 0.0098
55.05 0.00677
55.1 0.00554
55.15 0.00478
55.2 0.00645
55.25 0.00954
55.3 0.01089
55.35 0.00953
55.4 0.01043
55.45 0.01294
55.5 0.01217
55.55 0.01393
55.6 0.01091
55.65 0.01056
55.7 0.01045
55.75 0.01228
55.8 0.01105
55.85 0.01253
55.9 0.01208
55.95 0.00824
56 0.00661
56.05 0.00096
56.1 -0.00635
56.15 -0.01255
56.2 -0.01904
56.25 -0.01928
56.3 -0.01919
56.35 -0.0166
56.4 -0.01308
56.45 -0.00753
56.5 -0.00427
56.55 0.00073
56.6 -0.00046
56.65 -0.00311
56.7 -0.00099
56.75 0.00406
56.8 0.00742
56.85 0.01185
56.9 0.01454
56.95 0.01265
57 0.00959
57.05 0.00248
57.1 -0.00561
57.15 -0.01282
57.2 -0.0168
57.25 -0.01601
57.3 -0.01163
57.35 -0.00674
57.4 -0.0049
57.45 -0.00072
57.5 0.00166
57.55 0.00463
57.6 0.00259
57.65 0.00277
57.7 0.00455
57.75 0.00155
57.8 -0.00381
57.85 -0.00459
57.9 -0.00586
57.95 -0.00751
58 -0.01134
58.05 -0.01283
58.1 -0.01612
58.15 -0.01367
58.2 -0.01497
58.25 -0.01477
58.3 -0.01649
58.35 -0.02011
58.4 -0.01725
58.45 -0.01713
58.5 -0.01364
58.55 -0.01357
58.6 -0.01458
58.65 -0.01175
58.7 -0.00924
58.75 -0.00699
58.8 -0.00868
58.85 -0.00534
58.9 -0.00583
58.95 -0.00214
59 -0.00012
59.05 -0.00055
59.1 -0.00478
59.15 -0.01026
59.2 -0.01038
59.25 -0.00918
59.3 -0.00862
59.35 -0.01105
59.4 -0.01384
59.45 -0.01405
59.5 -0.01646
59.55 -0.018
59.6 -0.01818
59.65 -0.01647
59.7 -0.017
59.75 -0.01858
59.8 -0.01772
59.85 -0.01942
59.9 -0.02145
59.95 -0.01948
60 -0.01493
60.05 -0.01169
60.1 -0.00529
60.15 -0.00141
60.2 0.00112
60.25 0.00339
60.3 0.00844
60.35 0.01231
60.4 0.01624
60.45 0.01575
60.5 0.01504
60.55 0.0105
60.6 0.0067
60.65 0.00577
60.7 0.00582
60.75 0.00235
60.8 -0.00386
60.85 -0.00836
60.9 -0.00945
60.95 -0.00884
61 -0.00957
61.05 -0.01203
61.1 -0.00934
61.15 -0.00595
61.2 -0.0044
61.25 -0.00171
61.3 -0.00151
61.35 0.00071
61.4 0.00599
61.45 0.0116
61.5 0.01802
61.55 0.0224
61.6 0.02191
61.65 0.02063
61.7 0.02118
61.75 0.02212
61.8 0.02422
61.85 0.02091
61.9 0.0165
61.95 0.00861
62 0.00266
62.05 -0.00007
62.1 -0.00184
62.15 0.00128
62.2 0.00316
62.25 0.00086
62.3 0.00198
62.35 0.00446
62.4 0.00559
62.45 0.00609
62.5 0.00502
62.55 0.00672
62.6 0.00486
62.65 0.00113
62.7 -0.0052
62.75 -0.00787
62.8 -0.00855
62.85 -0.01135
62.9 -0.01262
62.95 -0.01261
63 -0.00939
63.05 -0.00654
63.1 -0.00648
63.15 -0.00269
63.2 0.00158
63.25 0.00662
63.3 0.00591
63.35 0.00237
63.4 0.00386
63.45 0.00337
63.5 0.00531
63.55 0.00742
63.6 0.00668
63.65 0.00241
63.7 0.00249
63.75 0.00474
63.8 0.00887
63.85 0.0112
63.9 0.01202
63.95 0.01269
64 0.01504
64.05 0.01237
64.1 0.00779
64.15 0.00808
64.2 0.01124
64.25 0.00874
64.3 0.00839
64.35 0.01089
64.4 0.01078
64.45 0.00809
64.5 0.00707
64.55 0.00895
64.6 0.0109
64.65 0.01253
64.7 0.01187
64.75 0.01211
64.8 0.01365
64.85 0.01631
64.9 0.01519
64.95 0.01587
65 0.01794
65.05 0.01614
65.1 0.01507
65.15 0.01127
65.2 0.00742
65.25 0.00776
65.3 0.00363
65.35 0.00218
65.4 -0.00179
65.45 -0.00625
65.5 -0.00791
65.55 -0.00655
65.6 -0.00931
65.65 -0.00905
65.7 -0.00527
65.75 -0.00407
65.8 0.00053
65.85 0.00392
65.9 0.00654
65.95 0.00384
66 0.00042
66.05 -0.00248
66.1 -0.00434
66.15 -0.00824
66.2 -0.00991
66.25 -0.01052
66.3 -0.01331
66.35 -0.0118
66.4 -0.00678
66.45 -0.00049
66.5 -0.00016
66.55 0.00285
66.6 0.00196
66.65 0.00269
66.7 0.00382
66.75 0.00223
66.8 -0.00321
66.85 -0.00692
66.9 -0.0131
66.95 -0.01427
67 -0.01309
67.05 -0.00896
67.1 -0.00313
67.15 -0.00194
67.2 0.00174
67.25 0.00646
67.3 0.01078
67.35 0.0148
67.4 0.01601
67.45 0.01162
67.5 0.00666
67.55 0.00493
67.6 0.00203
67.65 0.00336
67.7 0.00408
67.75 0.00347
67.8 -0.00161
67.85 -0.00583
67.9 -0.00996
67.95 -0.01403
68 -0.01368
68.05 -0.01419
68.1 -0.01228
68.15 -0.00842
68.2 -0.00542
68.25 -0.00292
68.3 -0.00354
68.35 -0.00673
68.4 -0.00449
68.45 -0.00295
68.5 0.00187
68.55 0.00388
68.6 0.00401
68.65 0.00203
68.7 0.00353
68.75 0.00257
68.8 -0.00103
68.85 -0.00309
68.9 -0.00583
68.95 -0.00351
69 -0.00602
69.05 -0.00555
69.1 -0.00327
69.15 -0.00229
69.2 -0.00021
69.25 0.00223
69.3 0.00243
69.35 0.00297
69.4 0.00576
69.45 0.00492
69.5 0.00154
69.55 -0.00016
69.6 -0.00349
69.65 -0.00828
69.7 -0.01361
69.75 -0.01779
69.8 -0.01996
69.85 -0.01754
69.9 -0.01204
69.95 -0.00526
70 0.00236
70.05 0.00767
70.1 0.01032
70.15 0.00952
70.2 0.01066
70.25 0.00959
70.3 0.01115
70.35 0.00923
70.4 0.01096
70.45 0.01019
70.5 0.00648
70.55 0.00545
70.6 0.0047
70.65 0.00621
70.7 0.00697
70.75 0.00909
70.8 0.01289
70.85 0.01516
70.9 0.01577
70.95 0.01827
71 0.01774
71.05 0.01691
71.1 0.0146
71.15 0.0129
71.2 0.0088
71.25 0.0059
71.3 0.00076
71.35 0.00071
71.4 0.00244
71.45 0.00549
71.5 0.0052
71.55 0.00676
71.6 0.00464
71.65 0.0008
71.7 0.00127
71.75 -0.00007
71.8 0.00234
71.85 -0.00062
71.9 0.00087
71.95 0.00099
72 0.0032
72.05 0.00189
72.1 0.00384
72.15 0.00164
72.2 -0.00448
72.25 -0.00506
72.3 -0.00479
72.35 -0.00098
72.4 -0.00023
72.45 -0.004
72.5 -0.00908
72.55 -0.01208
72.6 -0.01413
72.65 -0.01508
72.7 -0.01703
72.75 -0.0135
72.8 -0.00724
72.85 -0.00462
72.9 -0.00541
72.95 -0.00905
73 -0.01237
73.05 -0.01416
73.1 -0.01612
73.15 -0.0197
73.2 -0.01945
73.25 -0.01703
73.3 -0.0159
73.35 -0.01287
73.4 -0.01174
73.45 -0.00903
73.5 -0.00999
73.55 -0.00959
73.6 -0.00735
73.65 -0.00962
73.7 -0.01185
73.75 -0.01331
73.8 -0.01086
73.85 -0.01015
73.9 -0.00691
73.95 -0.00453
74 -0.0044
74.05 -0.00675
74.1 -0.0105
74.15 -0.01514
74.2 -0.0177
74.25 -0.01746
74.3 -0.01516
74.35 -0.01595
74.4 -0.01604
74.45 -0.01141
74.5 -0.00623
74.55 -0.00042
74.6 0.00109
74.65 0.00548
74.7 0.00481
74.75 0.00413
74.8 0.00498
74.85 0.00762
74.9 0.01084
74.95 0.01066
75 0.00646
75.05 0.00458
75.1 0.00149
75.15 -0.0005
75.2 -0.00035
75.25 0.00101
75.3 0.00546
75.35 0.01151
75.4 0.01471
75.45 0.01759
75.5 0.01662
75.55 0.01791
75.6 0.01331
75.65 0.00507
75.7 -0.00199
75.75 -0.00765
75.8 -0.01117
75.85 -0.01654
75.9 -0.01854
75.95 -0.01836
76 -0.02027
76.05 -0.01826
76.1 -0.01228
76.15 -0.00834
76.2 -0.00813
76.25 -0.0087
76.3 -0.00608
76.35 -0.00652
76.4 -0.0059
76.45 -0.00538
76.5 -0.00154
76.55 0.00487
76.6 0.00678
76.65 0.00428
76.7 -0.00166
76.75 -0.00831
76.8 -0.01161
76.85 -0.01035
76.9 -0.01115
76.95 -0.01121
77 -0.00961
77.05 -0.0068
77.1 -0.00706
77.15 -0.0068
77.2 -0.00392
77.25 0.00068
77.3 0.0036
77.35 0.0021
77.4 -0.00023
77.45 -0.00264
77.5 -0.00154
77.55 0.00065
77.6 -0.001
77.65 -0.00094
77.7 0.0032
77.75 0.0043
77.8 0.00457
77.85 0.0023
77.9 0.00063
77.95 0.00089
78 0.00083
78.05 0.00243
78.1 0.0026
78.15 0.00581
78.2 0.00658
78.25 0.00758
78.3 0.00848
78.35 0.00847
78.4 0.01059
78.45 0.00719
78.5 0.00694
78.55 0.00324
78.6 0.00272
78.65 0.00539
78.7 0.01016
78.75 0.01597
78.8 0.02078
78.85 0.02568
78.9 0.02786
78.95 0.02986
79 0.02658
79.05 0.01901
79.1 0.00994
79.15 -0
79.2 -0.00606
79.25 -0.01002
79.3 -0.00915
79.35 -0.00442
79.4 0.00186
79.45 0.0059
79.5 0.01087
79.55 0.01336
79.6 0.01623
79.65 0.01878
79.7 0.01732
79.75 0.01095
79.8 0.00163
79.85 -0.00423
79.9 -0.00838
79.95 -0.01412
80 -0.01347
80.05 -0.00868
80.1 -0.00325
80.15 -0.00223
80.2 -0.00034
80.25 0.004
80.3 0.00214
80.35 0.00455
80.4 0.00383
80.45 0.00075
80.5 0.00081
80.55 -0.00349
80.6 -0.0038
80.65 -0.00303
80.7 -0.00542
80.75 -0.00965
80.8 -0.01063
80.85 -0.01205
80.9 -0.01054
80.95 -0.00953
81 -0.00458
81.05 0.00004
81.1 0.00113
81.15 0.00069
81.2 -0.00281
81.25 -0.00207
81.3 -0.00519
81.35 -0.00382
81.4 -0.00533
81.45 -0.00605
81.5 -0.00301
81.55 -0.00005
81.6 0.00269
81.65 0.00076
81.7 -0.0034
81.75 -0.00287
81.8 0.00099
81.85 0.00698
81.9 0.00858
81.95 0.00868
82 0.01035
82.05 0.00787
82.1 0.00575
82.15 0.0027
82.2 0.0043
82.25 0.00109
82.3 -0.00259
82.35 -0.00538
82.4 -0.00737
82.45 -0.00929
82.5 -0.00796
82.55 -0.00505
82.6 -0.00506
82.65 -0.00261
82.7 -0.00247
82.75 -0.00133
82.8 -0.0005
82.85 0.00345
82.9 0.00781
82.95 0.01078
83 0.01061
83.05 0.0124
83.1 0.01407
83.15 0.0158
83.2 0.0168
83.25 0.0155
83.3 0.01513
83.35 0.00952
83.4 0.00752
83.45 0.00395
83.5 0.00168
83.55 -0.00178
83.6 -0.00499
83.65 -0.0055
83.7 -0.00639
83.75 -0.00923
83.8 -0.00748
83.85 -0.0032
83.9 0.00173
83.95 0.00182
84 0.00284
84.05 0.00491
84.1 0.00143
84.15 -0.00065
84.2 -0.00222
84.25 -0.00289
84.3 -0.00239
84.35 0.00176
84.4 0.00253
84.45 0.00045
84.5 -0.0023
84.55 -0.00187
84.6 -0.00265
84.65 0.0002
84.7 0.00389
84.75 0.0058
84.8 0.00269
84.85 0.00379
84.9 0.00139
84.95 -0.00444
85 -0.0105
85.05 -0.01335
85.1 -0.01281
85.15 -0.01406
85.2 -0.0105
85.25 -0.00455
85.3 -0.00394
85.35 -0.00625
85.4 -0.01045
85.45 -0.01537
85.5 -0.02088
85.55 -0.02485
85.6 -0.02322
85.65 -0.01793
85.7 -0.01275
85.75 -0.01127
85.8 -0.01228
85.85 -0.01587
85.9 -0.02077
85.95 -0.02566
86 -0.03031
86.05 -0.02868
86.1 -0.02743
86.15 -0.02169
86.2 -0.01444
86.25 -0.00519
86.3 0.00359
86.35 0.0073
86.4 0.01129
86.45 0.01063
86.5 0.00578
86.55 0.00374
86.6 0.00243
86.65 0.00454
86.7 0.00523
86.75 0.00181
86.8 -0.00021
86.85 -0.00187
86.9 -0.00633
86.95 -0.00633
87 -0.00194
87.05 0.00219
87.1 0.00803
87.15 0.01323
87.2 0.01327
87.25 0.01294
87.3 0.01497
87.35 0.01565
87.4 0.01118
87.45 0.00838
87.5 0.00836
87.55 0.00486
87.6 0.00152
87.65 0.00204
87.7 0.00273
87.75 0.00009
87.8 -0.00521
87.85 -0.00824
87.9 -0.00897
87.95 -0.00571
88 -0.00191
88.05 0.00343
88.1 0.00801
88.15 0.01078
88.2 0.00962
88.25 0.00429
88.3 0.0008
88.35 -0.00286
88.4 -0.00571
88.45 -0.00427
88.5 -0.00422
88.55 -0.00018
88.6 0.00084
88.65 0.00247
88.7 0.00562
88.75 0.00968
88.8 0.0087
88.85 0.00759
88.9 0.0073
88.95 0.00893
89 0.00887
89.05 0.00903
89.1 0.0065
89.15 0.00255
89.2 0.00264
89.25 0.00238
89.3 0.00506
89.35 0.00577
89.4 0.0034
89.45 0.00113
89.5 -0.00186
89.55 -0.00037
89.6 0.0031
89.65 0.00602
89.7 0.00837
89.75 0.01026
89.8 0.01054
89.85 0.00785
89.9 0.00626
89.95 0.00625
90 0.0086
90.05 0.00575
90.1 0.00587
90.15 0.00867
90.2 0.00791
90.25 0.00555
90.3 -0.00008
90.35 -0.00342
90.4 -0.00789
90.45 -0.01063
90.5 -0.01272
90.55 -0.00978
90.6 -0.00898
90.65 -0.00563
90.7 -0.00211
90.75 0.00076
90.8 -0.00081
90.85 -0.00207
90.9 -0.00159
90.95 -0.00533
91 -0.01082
91.05 -0.01237
91.1 -0.01317
91.15 -0.01206
91.2 -0.0069
91.25 -0.00548
91.3 -0.00711
91.35 -0.00368
91.4 0.00186
91.45 0.00546
91.5 0.01022
91.55 0.00919
91.6 0.00833
91.65 0.00746
91.7 0.00489
91.75 0.00099
91.8 0.00149
91.85 0.00243
91.9 0.00059
91.95 -0.00181
92 -0.00328
92.05 -0.0021
92.1 0.00193
92.15 0.00387
92.2 0.00544
92.25 0.00274
92.3 0.00439
92.35 0.00737
92.4 0.00547
92.45 0.00662
92.5 0.00519
92.55 0.00422
92.6 0.00618
92.65 0.00357
92.7 -0.00243
92.75 -0.00714
92.8 -0.01392
92.85 -0.01439
92.9 -0.01046
92.95 -0.00507
93 -0.00081
93.05 -0.00225
93.1 -0.00198
93.15 0.00155
93.2 -0.00019
93.25 -0.00353
93.3 -0.00562
93.35 -0.00745
93.4 -0.00585
93.45 -0.00586
93.5 -0.00681
93.55 -0.00742
93.6 -0.01039
93.65 -0.00894
93.7 -0.00681
93.75 -0.00783
93.8 -0.00945
93.85 -0.01262
93.9 -0.01306
93.95 -0.01454
94 -0.01659
94.05 -0.01366
94.1 -0.01036
94.15 -0.00942
94.2 -0.00521
94.25 -0.00113
94.3 0.0016
94.35 0.00219
94.4 0.00028
94.45 -0.00051
94.5 -0.00441
94.55 -0.0049
94.6 -0.00285
94.65 0.0013
94.7 0.00285
94.75 0.00175
94.8 0.00058
94.85 -0.00382
94.9 -0.00763
94.95 -0.00568
95 -0.00291
95.05 0.00257
95.1 0.00814
95.15 0.01101
95.2 0.01255
95.25 0.01545
95.3 0.01994
95.35 0.02318
95.4 0.02093
95.45 0.01487
95.5 0.01048
95.55 0.00794
95.6 0.00486
95.65 0.0044
95.7 0.00431
95.75 0.00612
95.8 0.00993
95.85 0.00903
95.9 0.0083
95.95 0.00657
96 0.00417
96.05 0.00146
96.1 0.00085
96.15 -0.00048
96.2 -0.00469
96.25 -0.01057
96.3 -0.01087
96.35 -0.00658
96.4 -0.00236
96.45 0.00062
96.5 0.00287
96.55 0.00674
96.6 0.00796
96.65 0.00711
96.7 0.00443
96.75 0.00473
96.8 0.00594
96.85 0.00848
96.9 0.0124
96.95 0.01198
97 0.00825
97.05 0.00805
97.1 0.00929
97.15 0.0113
97.2 0.00871
97.25 0.00447
97.3 -0.00161
97.35 -0.0094
97.4 -0.01105
97.45 -0.01316
97.5 -0.01647
97.55 -0.0208
97.6 -0.02404
97.65 -0.02633
97.7 -0.02974
97.75 -0.03017
97.8 -0.02487
97.85 -0.0225
97.9 -0.01903
97.95 -0.0172
98 -0.01556
98.05 -0.01113
98.1 -0.00417
98.15 -0.00082
98.2 -0.00021
98.25 -0.00349
98.3 -0.00601
98.35 -0.00702
98.4 -0.00527
98.45 -0.00365
98.5 -0.00317
98.55 -0.00278
98.6 0.00059
98.65 0.00171
98.7 0.00297
98.75 0.00585
98.8 0.00521
98.85 0.00208
98.9 -0.00134
98.95 -0.00183
99 -0.00193
99.05 -0.00025
99.1 -0.00314
99.15 -0.00738
99.2 -0.01306
99.25 -0.0168
99.3 -0.01758
99.35 -0.02034
99.4 -0.01766
99.45 -0.01824
99.5 -0.01789
99.55 -0.01865
99.6 -0.01381
99.65 -0.00971
99.7 -0.00577
99.75 -0.00445
99.8 -0.00503
99.85 -0.00777
99.9 -0.00856
99.95 -0.01203
