0 0
0.05 0.00887
0.1 0.01457
0.15 0.0201
0.2 0.02775
0.25 0.03355
0.3 0.03665
0.35 0.03794
0.4 0.04441
0.45 0.04614
0.5 0.04404
0.55 0.04212
0.6 0.03957
0.65 0.03514
0.7 0.02914
0.75 0.02267
0.8 0.01728
0.85 0.01276
0.9 0.00858
0.95 0.01239
1 0.01409
1.05 0.01928
1.1 0.0237
1.15 0.0292
1.2 0.03738
1.25 0.04626
1.3 0.05526
1.35 0.059
1.4 0.05996
1.45 0.05607
1.5 0.05367
1.55 0.05445
1.6 0.05703
1.65 0.05463
1.7 0.04777
1.75 0.0455
1.8 0.04364
1.85 0.04342
1.9 0.04058
1.95 0.03645
2 0.03323
2.05 0.03537
2.1 0.0381
2.15 0.04237
2.2 0.04725
2.25 0.05083
2.3 0.05421
2.35 0.05514
2.4 0.04909
2.45 0.04138
2.5 0.03918
2.55 0.04052
2.6 0.04161
2.65 0.04423
2.7 0.04493
2.75 0.04167
2.8 0.04188
2.85 0.04033
2.9 0.03445
2.95 0.02623
3 0.02006
3.05 0.01588
3.1 0.01645
3.15 0.0213
3.2 0.02082
3.25 0.02298
3.3 0.023
3.35 0.02053
3.4 0.01832
3.45 0.01884
3.5 0.0225
3.55 0.02456
3.6 0.02699
3.65 0.02803
3.7 0.03075
3.75 0.03191
3.8 0.02676
3.85 0.02128
3.9 0.01809
3.95 0.01347
4 0.00645
4.05 -0.00198
4.1 -0.00998
4.15 -0.01767
4.2 -0.01771
4.25 -0.01285
4.3 -0.00983
4.35 -0.00854
4.4 -0.00872
4.45 -0.01078
4.5 -0.0166
4.55 -0.02551
4.6 -0.04082
4.65 -0.05804
4.7 -0.07667
4.75 -0.09612
4.8 -0.11327
4.85 -0.13834
4.9 -0.16255
4.95 -0.19684
5 -0.24004
5.05 -0.28585
5.1 -0.33819
5.15 -0.3965
5.2 -0.4574
5.25 -0.52177
5.3 -0.58806
5.35 -0.66157
5.4 -0.73806
5.45 -0.8179
5.5 -0.90138
5.55 -0.9944
5.6 -1.09236
5.65 -1.19244
5.7 -1.28664
5.75 -1.37525
5.8 -1.46619
5.85 -1.54995
5.9 -1.62629
5.95 -1.69647
6 -1.76795
6.05 -1.83811
6.1 -1.90334
6.15 -1.96447
6.2 -2.01628
6.25 -2.06456
6.3 -2.10323
6.35 -2.14184
6.4 -2.1735
6.45 -2.19399
6.5 -2.20579
6.55 -2.20936
6.6 -2.2037
6.65 -2.19267
6.7 -2.17366
6.75 -2.14015
6.8 -2.09325
6.85 -2.03117
6.9 -1.95058
6.95 -1.85376
7 -1.7426
7.05 -1.61827
7.1 -1.48434
7.15 -1.34178
7.2 -1.18784
7.25 -1.01964
7.3 -0.84066
7.35 -0.66077
7.4 -0.47172
7.45 -0.28022
7.5 -0.08483
7.55 0.1049
7.6 0.28625
7.65 0.46478
7.7 0.63907
7.75 0.80015
7.8 0.95433
7.85 1.09956
7.9 1.23576
7.95 1.35707
8 1.46604
8.05 1.5586
8.1 1.63951
8.15 1.71227
8.2 1.77101
8.25 1.82323
8.3 1.86492
8.35 1.89862
8.4 1.92635
8.45 1.94264
8.5 1.95117
8.55 1.95092
8.6 1.94684
8.65 1.93771
8.7 1.92915
8.75 1.9123
8.8 1.89375
8.85 1.87238
8.9 1.85365
8.95 1.83229
9 1.81084
9.05 1.78703
9.1 1.76909
9.15 1.75026
9.2 1.73194
9.25 1.7181
9.3 1.7001
9.35 1.68497
9.4 1.66911
9.45 1.6547
9.5 1.63735
9.55 1.62125
9.6 1.60765
9.65 1.59139
9.7 1.57451
9.75 1.55064
9.8 1.52857
9.85 1.50389
9.9 1.47764
9.95 1.4537
10 1.42713
10.05 1.39512
10.1 1.36703
10.15 1.33937
10.2 1.30604
10.25 1.26811
10.3 1.22751
10.35 1.18694
10.4 1.14621
10.45 1.11199
10.5 1.08194
10.55 1.04812
10.6 1.01078
10.65 0.97617
10.7 0.93783
10.75 0.89799
10.8 0.85513
10.85 0.8136
10.9 0.76934
10.95 0.72763
11 0.68511
11.05 0.64523
11.1 0.60837
11.15 0.56811
11.2 0.53177
11.25 0.49175
11.3 0.45099
11.35 0.41677
11.4 0.3846
11.45 0.34909
11.5 0.31304
11.55 0.27351
11.6 0.23967
11.65 0.20228
11.7 0.16882
11.75 0.13504
11.8 0.09984
11.85 0.06761
11.9 0.04357
11.95 0.02493
12 0.00634
12.05 -0.01326
12.1 -0.03533
12.15 -0.05437
12.2 -0.07433
12.25 -0.09829
12.3 -0.1211
12.35 -0.14177
12.4 -0.16318
12.45 -0.17842
12.5 -0.19174
12.55 -0.20327
12.6 -0.21421
12.65 -0.22606
12.7 -0.23791
12.75 -0.25125
12.8 -0.26492
12.85 -0.28066
12.9 -0.29157
12.95 -0.29896
13 -0.30528
13.05 -0.31271
13.1 -0.31679
13.15 -0.32089
13.2 -0.32343
13.25 -0.32868
13.3 -0.32838
13.35 -0.3301
13.4 -0.33013
13.45 -0.3289
13.5 -0.3269
13.55 -0.33003
13.6 -0.3301
13.65 -0.32789
13.7 -0.32564
13.75 -0.32444
13.8 -0.32612
13.85 -0.32416
13.9 -0.32175
13.95 -0.31714
14 -0.3135
14.05 -0.31629
14.1 -0.31369
14.15 -0.3149
14.2 -0.31414
14.25 -0.30959
14.3 -0.30266
14.35 -0.29561
14.4 -0.29114
14.45 -0.29331
14.5 -0.2906
14.55 -0.28898
14.6 -0.28463
14.65 -0.28446
14.7 -0.28634
14.75 -0.28264
14.8 -0.27661
14.85 -0.26811
14.9 -0.26664
14.95 -0.26773
15 -0.26956
15.05 -0.27076
15.1 -0.26659
15.15 -0.26072
15.2 -0.25918
15.25 -0.25401
15.3 -0.24947
15.35 -0.24599
15.4 -0.24577
15.45 -0.24786
15.5 -0.24454
15.55 -0.23859
15.6 -0.22803
15.65 -0.22371
15.7 -0.21778
15.75 -0.20892
15.8 -0.20242
15.85 -0.20009
15.9 -0.20151
15.95 -0.19789
16 -0.192
16.05 -0.19206
16.1 -0.18819
16.15 -0.18484
16.2 -0.17872
16.25 -0.16976
16.3 -0.16432
16.35 -0.1607
16.4 -0.15783
16.45 -0.15794
16.5 -0.16091
16.55 -0.15865
16.6 -0.16075
16.65 -0.15885
16.7 -0.15734
16.75 -0.15833
16.8 -0.15889
16.85 -0.15985
16.9 -0.15731
16.95 -0.15796
17 -0.15345
17.05 -0.14705
17.1 -0.145
17.15 -0.14507
17.2 -0.14681
17.25 -0.14355
17.3 -0.1372
17.35 -0.13073
17.4 -0.12403
17.45 -0.12151
17.5 -0.11612
17.55 -0.11476
17.6 -0.1122
17.65 -0.10777
17.7 -0.10055
17.75 -0.09792
17.8 -0.09955
17.85 -0.09824
17.9 -0.09604
17.95 -0.09201
18 -0.09184
18.05 -0.09448
18.1 -0.09727
18.15 -0.09469
18.2 -0.09153
18.25 -0.09368
18.3 -0.0932
18.35 -0.0909
18.4 -0.09149
18.45 -0.08717
18.5 -0.08343
18.55 -0.07753
18.6 -0.0723
18.65 -0.07158
18.7 -0.07627
18.75 -0.07742
18.8 -0.07806
18.85 -0.07731
18.9 -0.07505
18.95 -0.07751
19 -0.07874
19.05 -0.07775
19.1 -0.0734
19.15 -0.0669
19.2 -0.0595
19.25 -0.05184
19.3 -0.04728
19.35 -0.04835
19.4 -0.05037
19.45 -0.04947
19.5 -0.0514
19.55 -0.05093
19.6 -0.04719
19.65 -0.04414
19.7 -0.04398
19.75 -0.04509
19.8 -0.04374
19.85 -0.04801
19.9 -0.05013
19.95 -0.05115
20 -0.05121
20.05 -0.04852
20.1 -0.05177
20.15 -0.05782
20.2 -0.06313
20.25 -0.0659
20.3 -0.06915
20.35 -0.0653
20.4 -0.06342
20.45 -0.06454
20.5 -0.06747
20.55 -0.0639
20.6 -0.0645
20.65 -0.0672
20.7 -0.06371
20.75 -0.06371
20.8 -0.06149
20.85 -0.05808
20.9 -0.05684
20.95 -0.05571
21 -0.0502
21.05 -0.04205
21.1 -0.04104
21.15 -0.03984
21.2 -0.03921
21.25 -0.03527
21.3 -0.02987
21.35 -0.02973
21.4 -0.03075
21.45 -0.03474
21.5 -0.03929
21.55 -0.04618
21.6 -0.04822
21.65 -0.04455
21.7 -0.03862
21.75 -0.03741
21.8 -0.03343
21.85 -0.0276
21.9 -0.02311
21.95 -0.02079
22 -0.02139
22.05 -0.02306
22.1 -0.02554
22.15 -0.02465
22.2 -0.02771
22.25 -0.02976
22.3 -0.02811
22.35 -0.03071
22.4 -0.03043
22.45 -0.03181
22.5 -0.0291
22.55 -0.02752
22.6 -0.02326
22.65 -0.02077
22.7 -0.02333
22.75 -0.02148
22.8 -0.01801
22.85 -0.01909
22.9 -0.02222
22.95 -0.02194
23 -0.02033
23.05 -0.01592
23.1 -0.01061
23.15 -0.00856
23.2 -0.0058
23.25 -0.00671
23.3 -0.01125
23.35 -0.01282
23.4 -0.01568
23.45 -0.02131
23.5 -0.02269
23.55 -0.01921
23.6 -0.0128
23.65 -0.01389
23.7 -0.01148
23.75 -0.01444
23.8 -0.01438
23.85 -0.01602
23.9 -0.02101
23.95 -0.02293
24 -0.02101
24.05 -0.02156
24.1 -0.01724
24.15 -0.01495
24.2 -0.01353
24.25 -0.00875
24.3 -0.00956
24.35 -0.01152
24.4 -0.01275
24.45 -0.0184
24.5 -0.02455
24.55 -0.02972
24.6 -0.0335
24.65 -0.038
24.7 -0.04282
24.75 -0.0455
24.8 -0.04705
24.85 -0.04429
24.9 -0.04121
24.95 -0.03959
25 -0.03884
25.05 -0.03343
25.1 -0.02685
25.15 -0.01982
25.2 -0.01824
25.25 -0.01306
25.3 -0.00661
25.35 -0.00191
25.4 0.00087
25.45 0.00289
25.5 0.00308
25.55 0.00472
25.6 0.00112
25.65 -0.0013
25.7 -0.00245
25.75 -0.00043
25.8 -0.00373
25.85 -0.00771
25.9 -0.01013
25.95 -0.0095
26 -0.00462
26.05 -0.00604
26.1 -0.00306
26.15 0.00049
26.2 0.00597
26.25 0.0082
26.3 0.00933
26.35 0.0058
26.4 0.00233
26.45 -0.00526
26.5 -0.01487
26.55 -0.02134
26.6 -0.02582
26.65 -0.02886
26.7 -0.02462
26.75 -0.02012
26.8 -0.01265
26.85 -0.00541
26.9 -0.00355
26.95 -0.0031
27 -0.00108
27.05 -0.00048
27.1 0.00188
27.15 0.00099
27.2 0.00158
27.25 0.00371
27.3 0.00692
27.35 0.01081
27.4 0.00978
27.45 0.01015
27.5 0.01153
27.55 0.01386
27.6 0.01551
27.65 0.01399
27.7 0.00952
27.75 0.00351
27.8 -0.00484
27.85 -0.00659
27.9 -0.01004
27.95 -0.01622
28 -0.02235
28.05 -0.0268
28.1 -0.03145
28.15 -0.03326
28.2 -0.02917
28.25 -0.02635
28.3 -0.02614
28.35 -0.02927
28.4 -0.03514
28.45 -0.03783
28.5 -0.04201
28.55 -0.04503
28.6 -0.05174
28.65 -0.05494
28.7 -0.06275
28.75 -0.07379
28.8 -0.07924
28.85 -0.08142
28.9 -0.08374
28.95 -0.08557
29 -0.09251
29.05 -0.09928
29.1 -0.10578
29.15 -0.11245
29.2 -0.12632
29.25 -0.13941
29.3 -0.1539
29.35 -0.16988
29.4 -0.18839
29.45 -0.20908
29.5 -0.23413
29.55 -0.26175
29.6 -0.28605
29.65 -0.30941
29.7 -0.32478
29.75 -0.34051
29.8 -0.34982
29.85 -0.36134
29.9 -0.36766
29.95 -0.37664
30 -0.38453
30.05 -0.387
30.1 -0.38597
30.15 -0.38127
30.2 -0.37795
30.25 -0.37758
30.3 -0.37794
30.35 -0.37588
30.4 -0.37417
30.45 -0.36712
30.5 -0.35874
30.55 -0.34287
30.6 -0.32387
30.65 -0.30089
30.7 -0.27509
30.75 -0.24661
30.8 -0.21552
30.85 -0.18741
30.9 -0.16201
30.95 -0.13091
31 -0.09876
31.05 -0.06788
31.1 -0.03967
31.15 -0.00885
31.2 0.0248
31.25 0.05941
31.3 0.08661
31.35 0.11462
31.4 0.14384
31.45 0.16985
31.5 0.1921
31.55 0.20878
31.6 0.22528
31.65 0.24641
31.7 0.27066
31.75 0.29301
31.8 0.30925
31.85 0.32275
31.9 0.33385
31.95 0.34269
32 0.35268
32.05 0.35587
32.1 0.36111
32.15 0.36133
32.2 0.36079
32.25 0.35873
32.3 0.35528
32.35 0.35399
32.4 0.35789
32.45 0.3625
32.5 0.36191
32.55 0.36029
32.6 0.35885
32.65 0.35542
32.7 0.34648
32.75 0.33824
32.8 0.32737
32.85 0.31989
32.9 0.31108
32.95 0.29794
33 0.28437
33.05 0.27775
33.1 0.27134
33.15 0.26159
33.2 0.25328
33.25 0.24577
33.3 0.23559
33.35 0.22868
33.4 0.21754
33.45 0.20989
33.5 0.20015
33.55 0.18703
33.6 0.17932
33.65 0.1727
33.7 0.16319
33.75 0.15534
33.8 0.15267
33.85 0.15225
33.9 0.14731
33.95 0.14099
34 0.13382
34.05 0.12806
34.1 0.12325
34.15 0.11326
34.2 0.10752
34.25 0.10421
34.3 0.09739
34.35 0.08698
34.4 0.08008
34.45 0.07454
34.5 0.0681
34.55 0.06337
34.6 0.06269
34.65 0.057
34.7 0.0519
34.75 0.04393
34.8 0.04061
34.85 0.04103
34.9 0.04162
34.95 0.03873
35 0.03138
35.05 0.02189
35.1 0.01572
35.15 0.00868
35.2 0.00609
35.25 0.00369
35.3 0.00705
35.35 0.0085
35.4 0.00898
35.45 0.00866
35.5 0.01087
35.55 0.01276
35.6 0.00792
35.65 0.00548
35.7 -0.00025
35.75 -0.00127
35.8 -0.00668
35.85 -0.01445
35.9 -0.01607
35.95 -0.01639
36 -0.01768
36.05 -0.02326
36.1 -0.02688
36.15 -0.03016
36.2 -0.0308
36.25 -0.03064
36.3 -0.03022
36.35 -0.0334
36.4 -0.03355
36.45 -0.03172
36.5 -0.03033
36.55 -0.03113
36.6 -0.03496
36.65 -0.04059
36.7 -0.04772
36.75 -0.04816
36.8 -0.04695
36.85 -0.04484
36.9 -0.04682
36.95 -0.04811
37 -0.05095
37.05 -0.05363
37.1 -0.05858
37.15 -0.0628
37.2 -0.06156
37.25 -0.06229
37.3 -0.06148
37.35 -0.06223
37.4 -0.05624
37.45 -0.0497
37.5 -0.04897
37.55 -0.04645
37.6 -0.04434
37.65 -0.04578
37.7 -0.04503
37.75 -0.04029
37.8 -0.03781
37.85 -0.03359
37.9 -0.03279
37.95 -0.03617
38 -0.04243
38.05 -0.04204
38.1 -0.04573
38.15 -0.04824
38.2 -0.04631
38.25 -0.04346
38.3 -0.0435
38.35 -0.04097
38.4 -0.04278
38.45 -0.03959
38.5 -0.04081
38.55 -0.03709
38.6 -0.03654
38.65 -0.03806
38.7 -0.0404
38.75 -0.0384
38.8 -0.03784
38.85 -0.04163
38.9 -0.03992
38.95 -0.03553
39 -0.03556
39.05 -0.03244
39.1 -0.02754
39.15 -0.02616
39.2 -0.02126
39.25 -0.01587
39.3 -0.01149
39.35 -0.01008
39.4 -0.01292
39.45 -0.0136
39.5 -0.01087
39.55 -0.01161
39.6 -0.01625
39.65 -0.01935
39.7 -0.02536
39.75 -0.03008
39.8 -0.0343
39.85 -0.04071
39.9 -0.04163
39.95 -0.04175
40 -0.03956
40.05 -0.03486
40.1 -0.03247
40.15 -0.02778
40.2 -0.02193
40.25 -0.01639
40.3 -0.01473
40.35 -0.01405
40.4 -0.01125
40.45 -0.01282
40.5 -0.01429
40.55 -0.01958
40.6 -0.02596
40.65 -0.03395
40.7 -0.03512
40.75 -0.03536
40.8 -0.03827
40.85 -0.04078
40.9 -0.03925
40.95 -0.03548
41 -0.03194
41.05 -0.02629
41.1 -0.02483
41.15 -0.02105
41.2 -0.0181
41.25 -0.01548
41.3 -0.00913
41.35 -0.00868
41.4 -0.00721
41.45 -0.00716
41.5 -0.00503
41.55 -0.00018
41.6 0.00357
41.65 0.00709
41.7 0.01023
41.75 0.01189
41.8 0.00978
41.85 0.00787
41.9 0.00922
41.95 0.00827
42 0.00239
42.05 0.00046
42.1 -0.00623
42.15 -0.00723
42.2 -0.01131
42.25 -0.01221
42.3 -0.01661
42.35 -0.02268
42.4 -0.02816
42.45 -0.03032
42.5 -0.02896
42.55 -0.02434
42.6 -0.0233
42.65 -0.02173
42.7 -0.02346
42.75 -0.02042
42.8 -0.01692
42.85 -0.0158
42.9 -0.01557
42.95 -0.01277
43 -0.01339
43.05 -0.01224
43.1 -0.00832
43.15 -0.00661
43.2 -0.01027
43.25 -0.01377
43.3 -0.01551
43.35 -0.01874
43.4 -0.01742
43.45 -0.0133
43.5 -0.01175
43.55 -0.00605
43.6 -0.00522
43.65 -0.00641
43.7 -0.00594
43.75 -0.00521
43.8 -0.00188
43.85 -0.00381
43.9 -0.00776
43.95 -0.00943
44 -0.00999
44.05 -0.01311
44.1 -0.01514
44.15 -0.01878
44.2 -0.02198
44.25 -0.02002
44.3 -0.02126
44.35 -0.0168
44.4 -0.01478
44.45 -0.01656
44.5 -0.01609
44.55 -0.01711
44.6 -0.0157
44.65 -0.01194
44.7 -0.00631
44.75 0.00073
44.8 0.0014
44.85 0.00249
44.9 -0.00067
44.95 -0.00143
45 -0.0004
45.05 -0.00232
45.1 -0.00406
45.15 -0.00704
45.2 -0.0083
45.25 -0.0097
45.3 -0.01023
45.35 -0.01253
45.4 -0.01402
45.45 -0.01096
45.5 -0.00949
45.55 -0.01016
45.6 -0.01345
45.65 -0.01564
45.7 -0.01752
45.75 -0.0186
45.8 -0.02045
45.85 -0.01655
45.9 -0.0104
45.95 -0.00557
46 -0.00408
46.05 0.00171
46.1 0.0013
46.15 0.00491
46.2 0.00663
46.25 0.0051
46.3 0.00086
46.35 -0.00319
46.4 -0.00237
46.45 -0.00446
46.5 -0.00317
46.55 -0.00222
46.6 0.00152
46.65 0.00077
46.7 0.0037
46.75 0.00675
46.8 0.00546
46.85 0.00681
46.9 0.00604
46.95 0.00662
47 0.00597
47.05 0.0029
47.1 0.00488
47.15 0.00887
47.2 0.00836
47.25 0.00301
47.3 0.00046
47.35 -0.00464
47.4 -0.00893
47.45 -0.01102
47.5 -0.01333
47.55 -0.01278
47.6 -0.01129
47.65 -0.00729
47.7 -0.00678
47.75 -0.00785
47.8 -0.00639
47.85 -0.00372
47.9 -0.00286
47.95 -0.00035
48 0.00235
48.05 0.0008
48.1 0.003
48.15 0.00773
48.2 0.01142
48.25 0.00832
48.3 0.00736
48.35 0.00823
48.4 0.00689
48.45 0.00638
48.5 0.00742
48.55 0.00366
48.6 -0.00036
48.65 -0.00161
48.7 -0.00283
48.75 -0.00601
48.8 -0.00869
48.85 -0.01086
48.9 -0.01218
48.95 -0.00944
49 -0.00673
49.05 -0.0087
49.1 -0.01156
49.15 -0.00783
49.2 -0.00652
49.25 -0.00615
49.3 -0.00626
49.35 -0.00354
49.4 -0.00283
49.45 -0.00586
49.5 -0.00508
49.55 -0.00202
49.6 -0.00074
49.65 -0.00378
49.7 -0.00267
49.75 -0.00097
49.8 0.0006
49.85 0.00078
49.9 0.00305
49.95 0.00507
50 0.00698
50.05 0.00912
50.1 0.00874
50.15 0.00574
50.2 0.00207
50.25 0.00334
50.3 0.00297
50.35 0.00551
50.4 0.00591
50.45 0.00665
50.5 0.00587
50.55 0.00458
50.6 0.00571
50.65 0.0099
50.7 0.00842
50.75 0.01025
50.8 0.01071
50.85 0.00947
50.9 0.01229
50.95 0.0106
51 0.0118
51.05 0.01489
51.1 0.01528
51.15 0.01437
51.2 0.0131
51.25 0.00942
51.3 0.00378
51.35 0.00352
51.4 -0.00016
51.45 -0.00574
51.5 -0.01296
51.55 -0.0212
51.6 -0.02182
51.65 -0.02367
51.7 -0.02374
51.75 -0.01794
51.8 -0.01084
51.85 -0.00859
51.9 -0.00459
51.95 -0.0053
52 -0.00565
52.05 -0.0101
52.1 -0.01418
52.15 -0.01983
52.2 -0.02356
52.25 -0.02663
52.3 -0.02379
52.35 -0.01757
52.4 -0.0083
52.45 -0.0055
52.5 -0.00585
52.55 -0.00586
52.6 -0.00727
52.65 -0.00354
52.7 0.00005
52.75 0.00226
52.8 0.00038
52.85 0.0028
52.9 0.00087
52.95 -0.00319
53 -0.00785
53.05 -0.00878
53.1 -0.00611
53.15 0.00073
53.2 0.00325
53.25 0.00672
53.3 0.00773
53.35 0.00659
53.4 0.00276
53.45 -0.00132
53.5 -0.00699
53.55 -0.01023
53.6 -0.01004
53.65 -0.01253
53.7 -0.00925
53.75 -0.00233
53.8 0.0066
53.85 0.0125
53.9 0.01416
53.95 0.01387
54 0.01561
54.05 0.01843
54.1 0.01927
54.15 0.02148
54.2 0.02342
54.25 0.01991
54.3 0.01928
54.35 0.01856
54.4 0.01496
54.45 0.01591
54.5 0.01577
54.55 0.01163
54.6 0.00499
54.65 -0.0037
54.7 -0.00718
54.75 -0.0106
54.8 -0.00756
54.85 -0.00614
54.9 -0.00456
54.95 -0.0042
55 -0.0006
55.05 0.00466
55.1 0.00445
55.15 -0.00007
55.2 -0.00656
55.25 -0.01243
55.3 -0.01824
55.35 -0.02273
55.4 -0.02415
55.45 -0.02396
55.5 -0.02288
55.55 -0.01914
55.6 -0.01831
55.65 -0.01895
55.7 -0.02108
55.75 -0.02221
55.8 -0.01986
55.85 -0.01946
55.9 -0.01843
55.95 -0.01599
56 -0.01555
56.05 -0.01409
56.1 -0.01397
56.15 -0.01554
56.2 -0.01433
56.25 -0.01085
56.3 -0.01205
56.35 -0.00881
56.4 -0.01026
56.45 -0.01197
56.5 -0.01104
56.55 -0.00939
56.6 -0.00487
56.65 0.00137
56.7 0.01004
56.75 0.0145
56.8 0.01794
56.85 0.01705
56.9 0.01083
56.95 0.00618
57 0.00216
57.05 -0.00249
57.1 -0.00769
57.15 -0.01339
57.2 -0.01506
57.25 -0.0192
57.3 -0.01958
57.35 -0.01364
57.4 -0.01182
57.45 -0.00925
57.5 -0.00867
57.55 -0.00385
57.6 0.00243
57.65 0.0108
57.7 0.01117
57.75 0.012
57.8 0.00959
57.85 0.00463
57.9 0.0005
57.95 -0.00456
58 -0.0063
58.05 -0.01007
58.1 -0.01251
58.15 -0.01716
58.2 -0.01846
58.25 -0.01901
58.3 -0.01535
58.35 -0.0094
58.4 -0.00867
58.45 -0.00636
58.5 -0.00473
58.55 0.00126
58.6 0.00257
58.65 0.0035
58.7 0.00235
58.75 -0.0013
58.8 -0.00078
58.85 -0.00083
58.9 0.00199
58.95 0.00823
59 0.00952
59.05 0.01401
59.1 0.01502
59.15 0.01911
59.2 0.01668
59.25 0.01486
59.3 0.01439
59.35 0.01696
59.4 0.01464
59.45 0.0144
59.5 0.01731
59.55 0.01353
59.6 0.01411
59.65 0.01076
59.7 0.0072
59.75 0.00091
59.8 -0.00384
59.85 -0.00922
59.9 -0.01554
59.95 -0.01719
60 -0.02082
60.05 -0.02382
60.1 -0.01929
60.15 -0.01154
60.2 -0.00743
60.25 -0.00764
60.3 -0.00636
60.35 -0.00841
60.4 -0.01072
60.45 -0.00974
60.5 -0.00793
60.55 -0.00124
60.6 0.00504
60.65 0.01012
60.7 0.01462
60.75 0.02119
60.8 0.0278
60.85 0.03322
60.9 0.03866
60.95 0.04051
61 0.03635
61.05 0.03448
61.1 0.03495
61.15 0.02779
61.2 0.02219
61.25 0.01796
61.3 0.01644
61.35 0.01297
61.4 0.00902
61.45 0.0064
61.5 0.00056
61.55 -0.00432
61.6 -0.00698
61.65 -0.00711
61.7 -0.00694
61.75 -0.00704
61.8 -0.00438
61.85 0.00224
61.9 0.00975
61.95 0.00949
62 0.00816
62.05 0.00869
62.1 0.01006
62.15 0.01158
62.2 0.00908
62.25 0.00721
62.3 0.00574
62.35 0.00592
62.4 0.00358
62.45 0.00381
62.5 -0.00008
62.55 -0.001
62.6 -0.00221
62.65 -0.00133
62.7 -0.00109
62.75 -0.00356
62.8 -0.00714
62.85 -0.0073
62.9 -0.00987
62.95 -0.01419
63 -0.01125
63.05 -0.01135
63.1 -0.0133
63.15 -0.01563
63.2 -0.01342
63.25 -0.01395
63.3 -0.0171
63.35 -0.01692
63.4 -0.01991
63.45 -0.02182
63.5 -0.02482
63.55 -0.02548
63.6 -0.02326
63.65 -0.01822
63.7 -0.01585
63.75 -0.01427
63.8 -0.01153
63.85 -0.01041
63.9 -0.00919
63.95 -0.00946
64 -0.00672
64.05 -0.00825
64.1 -0.01165
64.15 -0.01713
64.2 -0.02212
64.25 -0.02291
64.3 -0.02244
64.35 -0.02182
64.4 -0.023
64.45 -0.02095
64.5 -0.01838
64.55 -0.01257
64.6 -0.01014
64.65 -0.0057
64.7 -0.00311
64.75 0.00235
64.8 0.00268
64.85 0.0015
64.9 -0.00126
64.95 -0.00393
65 -0.00041
65.05 -0.00126
65.1 0.00339
65.15 0.00748
65.2 0.0058
65.25 0.00557
65.3 0.00948
65.35 0.00749
65.4 0.00705
65.45 0.01041
65.5 0.01509
65.55 0.01869
65.6 0.01595
65.65 0.0099
65.7 0.00847
65.75 0.00439
65.8 0.00608
65.85 0.00755
65.9 0.00648
65.95 0.00869
66 0.00625
66.05 0.00203
66.1 0.00311
66.15 0.00116
66.2 -0.0012
66.25 -0.00669
66.3 -0.00639
66.35 -0.00222
66.4 0.00471
66.45 0.01083
66.5 0.01216
66.55 0.01615
66.6 0.01367
66.65 0.0088
66.7 0.00621
66.75 0.00301
66.8 0.00188
66.85 0.00032
66.9 0.00279
66.95 0.00745
67 0.00659
67.05 0.00224
67.1 -0.00212
67.15 -0.00191
67.2 -0.00095
67.25 0.00098
67.3 0.00395
67.35 0.00981
67.4 0.0123
67.45 0.00985
67.5 0.00992
67.55 0.00662
67.6 0.00421
67.65 0.00494
67.7 0.0067
67.75 0.00486
67.8 0.00458
67.85 0.00571
67.9 0.00789
67.95 0.00725
68 0.00529
68.05 0.00577
68.1 0.00191
68.15 0.00336
68.2 -0.00004
68.25 -0.0019
68.3 0.00157
68.35 0.00828
68.4 0.01372
68.45 0.01691
68.5 0.02001
68.55 0.01758
68.6 0.01715
68.65 0.01986
68.7 0.01681
68.75 0.01188
68.8 0.01212
68.85 0.012
68.9 0.01007
68.95 0.01128
69 0.00947
69.05 0.0093
69.1 0.01259
69.15 0.014
69.2 0.01781
69.25 0.01938
69.3 0.01819
69.35 0.0124
69.4 0.0028
69.45 -0.00515
69.5 -0.01283
69.55 -0.01262
69.6 -0.01358
69.65 -0.01507
69.7 -0.01946
69.75 -0.01799
69.8 -0.01525
69.85 -0.0157
69.9 -0.0114
69.95 -0.00354
70 -0.00297
70.05 -0.0046
70.1 -0.00129
70.15 0.00538
70.2 0.0108
70.25 0.01172
70.3 0.01414
70.35 0.01637
70.4 0.01206
70.45 0.00387
70.5 -0.0028
70.55 -0.00569
70.6 -0.00276
70.65 0.00015
70.7 0.00396
70.75 0.01003
70.8 0.01439
70.85 0.01403
70.9 0.00847
70.95 0.00363
71 0.00049
71.05 -0.00078
71.1 0.00088
71.15 0.0002
71.2 -0.00176
71.25 0.00041
71.3 -0.00232
71.35 -0.004
71.4 -0.00798
71.45 -0.01164
71.5 -0.0092
71.55 -0.00413
71.6 0.00159
71.65 0.00489
71.7 0.0026
71.75 -0.00171
71.8 -0.00532
71.85 -0.012
71.9 -0.01211
71.95 -0.01495
72 -0.01544
72.05 -0.01563
72.1 -0.01528
72.15 -0.01608
72.2 -0.01202
72.25 -0.00757
72.3 -0.00023
72.35 0.00804
72.4 0.01055
72.45 0.01209
72.5 0.00733
72.55 0.00246
72.6 0.00189
72.65 -0.00092
72.7 -0.00061
72.75 -0.00418
72.8 -0.00905
72.85 -0.01085
72.9 -0.01146
72.95 -0.01099
73 -0.0069
73.05 -0.00656
73.1 -0.01031
73.15 -0.01423
73.2 -0.01684
73.25 -0.01397
73.3 -0.00874
73.35 -0.004
73.4 0.00336
73.45 0.01091
73.5 0.0119
73.55 0.00674
73.6 0.00421
73.65 0.0012
73.7 0.00298
73.75 0.00551
73.8 0.0074
73.85 0.00572
73.9 0.00439
73.95 -0.00064
74 -0.00594
74.05 -0.01039
74.1 -0.01402
74.15 -0.01257
74.2 -0.0105
74.25 -0.0097
74.3 -0.0044
74.35 0.00141
74.4 0.00392
74.45 0.00778
74.5 0.00596
74.55 0.00789
74.6 0.00466
74.65 0.00673
74.7 0.01044
74.75 0.01138
74.8 0.01023
74.85 0.00507
74.9 0.00194
74.95 0.00108
75 -0.00437
75.05 -0.00969
75.1 -0.0126
75.15 -0.01148
75.2 -0.0058
75.25 -0.00413
75.3 -0.00642
75.35 -0.00681
75.4 -0.01096
75.45 -0.00996
75.5 -0.00508
75.55 -0.00239
75.6 -0.00141
75.65 -0.00429
75.7 -0.00267
75.75 -0.00331
75.8 -0.00251
75.85 -0.00516
75.9 -0.00253
75.95 0.00334
76 0.01055
76.05 0.0178
76.1 0.02318
76.15 0.02853
76.2 0.02667
76.25 0.0218
76.3 0.01822
76.35 0.01655
76.4 0.01728
76.45 0.01715
76.5 0.01357
76.55 0.01392
76.6 0.01496
76.65 0.00952
76.7 0.00682
76.75 0.00414
76.8 -0.00104
76.85 -0.0091
76.9 -0.01141
76.95 -0.01313
77 -0.01174
77.05 -0.01455
77.1 -0.01948
77.15 -0.02508
77.2 -0.02589
77.25 -0.02078
77.3 -0.01682
77.35 -0.0108
77.4 -0.00766
77.45 -0.00504
77.5 -0.00628
77.55 -0.00938
77.6 -0.00908
77.65 -0.01061
77.7 -0.01517
77.75 -0.01502
77.8 -0.01028
77.85 -0.00971
77.9 -0.00737
77.95 -0.00604
78 -0.00604
78.05 -0.0083
78.1 -0.00745
78.15 -0.00425
78.2 -0.00201
78.25 -0.00489
78.3 -0.00923
78.35 -0.01065
78.4 -0.00857
78.45 -0.00951
78.5 -0.0064
78.55 -0.00043
78.6 0.00185
78.65 0.00569
78.7 0.01024
78.75 0.00977
78.8 0.01295
78.85 0.01778
78.9 0.021
78.95 0.02323
79 0.02623
79.05 0.02625
79.1 0.02488
79.15 0.02295
79.2 0.01915
79.25 0.01452
79.3 0.00562
79.35 -0.00481
79.4 -0.00982
79.45 -0.01491
79.5 -0.01298
79.55 -0.0076
79.6 -0.00821
79.65 -0.01231
79.7 -0.01284
79.75 -0.01326
79.8 -0.00954
79.85 -0.00465
79.9 0.00051
79.95 0.00404
80 0.00826
80.05 0.0106
80.1 0.01169
80.15 0.00947
80.2 0.01128
80.25 0.00873
80.3 0.00291
80.35 -0.00064
80.4 -0.00688
80.45 -0.00637
80.5 -0.00247
80.55 -0
80.6 0.00479
80.65 0.00577
80.7 0.00505
80.75 0.00709
80.8 0.01188
80.85 0.01682
80.9 0.02144
80.95 0.02572
81 0.02564
81.05 0.02446
81.1 0.02134
81.15 0.02039
81.2 0.01615
81.25 0.01016
81.3 0.00902
81.35 0.01118
81.4 0.01552
81.45 0.01532
81.5 0.01667
81.55 0.0129
81.6 0.00731
81.65 0.00167
81.7 -0.0073
81.75 -0.01132
81.8 -0.01041
81.85 -0.00589
81.9 -0.00699
81.95 -0.00874
82 -0.00828
82.05 -0.00676
82.1 -0.00234
82.15 -0.00248
82.2 -0.00328
82.25 -0.00726
82.3 -0.01313
82.35 -0.01717
82.4 -0.02122
82.45 -0.02543
82.5 -0.02492
82.55 -0.02397
82.6 -0.02314
82.65 -0.02524
82.7 -0.02195
82.75 -0.02062
82.8 -0.01997
82.85 -0.01924
82.9 -0.01447
82.95 -0.00847
83 -0.00568
83.05 -0.00786
83.1 -0.00576
83.15 -0.00578
83.2 -0.00874
83.25 -0.00713
83.3 -0.0079
83.35 -0.00788
83.4 -0.012
83.45 -0.01379
83.5 -0.01236
83.55 -0.00754
83.6 -0.0075
83.65 -0.00953
83.7 -0.00729
83.75 -0.00798
83.8 -0.00759
83.85 -0.00508
83.9 -0.00064
83.95 0.00056
84 -0.00123
84.05 0.0002
84.1 0.00428
84.15 0.00199
84.2 0.0001
84.25 -0.00271
84.3 -0.00002
84.35 0.00476
84.4 0.01159
84.45 0.01855
84.5 0.01726
84.55 0.01419
84.6 0.00964
84.65 0.0037
84.7 -0.00339
84.75 -0.0048
84.8 -0.00189
84.85 -0.00199
84.9 -0.00162
84.95 -0.00343
85 -0.00109
85.05 -0.00144
85.1 0.00195
85.15 0.00166
85.2 0.00491
85.25 0.00701
85.3 0.00706
85.35 0.00781
85.4 0.00358
85.45 0.00202
85.5 0.00064
85.55 0.00282
85.6 0.00573
85.65 0.00753
85.7 0.00718
85.75 0.00388
85.8 0.00053
85.85 -0.00148
85.9 -0.00657
85.95 -0.01096
86 -0.00968
86.05 -0.00761
86.1 -0.00828
86.15 -0.0087
86.2 -0.00761
86.25 -0.00681
86.3 -0.00905
86.35 -0.01235
86.4 -0.01229
86.45 -0.00972
86.5 -0.01074
86.55 -0.01485
86.6 -0.02051
86.65 -0.02062
86.7 -0.01739
86.75 -0.01679
86.8 -0.0144
86.85 -0.01466
86.9 -0.01606
86.95 -0.01584
87 -0.01848
87.05 -0.01574
87.1 -0.01351
87.15 -0.01085
87.2 -0.00979
87.25 -0.00538
87.3 0.00084
87.35 0.00825
87.4 0.01439
87.45 0.01275
87.5 0.01523
87.55 0.0193
87.6 0.01774
87.65 0.01902
87.7 0.01517
87.75 0.00948
87.8 0.00982
87.85 0.00736
87.9 0.00923
87.95 0.00872
88 0.0096
88.05 0.00671
88.1 0.0067
88.15 0.00289
88.2 0.00151
88.25 0.00363
88.3 0.00025
88.35 -0.00639
88.4 -0.0105
88.45 -0.00987
88.5 -0.01017
88.55 -0.01008
88.6 -0.01249
88.65 -0.01115
88.7 -0.00957
88.75 -0.00903
88.8 -0.00326
88.85 0.00172
88.9 0.00593
88.95 0.00647
89 0.00683
89.05 0.00963
89.1 0.01304
89.15 0.01486
89.2 0.01926
89.25 0.01746
89.3 0.0168
89.35 0.01369
89.4 0.01171
89.45 0.00921
89.5 0.00561
89.55 0.00119
89.6 -0.00109
89.65 -0.00723
89.7 -0.01447
89.75 -0.01868
89.8 -0.01973
89.85 -0.01574
89.9 -0.01095
89.95 -0.00731
90 -0.00462
90.05 0.00058
90.1 -0.00011
90.15 0.00081
90.2 -0.00207
90.25 -0.0051
90.3 -0.00234
90.35 0.00116
90.4 0.00376
90.45 0.00173
90.5 -0.00376
90.55 -0.00621
90.6 -0.0035
90.65 -0.00249
90.7 -0.00447
90.75 -0.00696
90.8 -0.01023
90.85 -0.00729
90.9 -0.00201
90.95 -0.00257
91 -0.00402
91.05 -0.00293
91.1 0.00245
91.15 0.00478
91.2 0.0024
91.25 0.00092
91.3 0.00113
91.35 0.00011
91.4 0.00409
91.45 0.00997
91.5 0.01125
91.55 0.01529
91.6 0.01299
91.65 0.01261
91.7 0.0116
91.75 0.00567
91.8 -0.00055
91.85 -0.00291
91.9 -0.00119
91.95 0.0003
92 0.0018
92.05 0.00467
92.1 0.00339
92.15 0.00628
92.2 0.00913
92.25 0.00898
92.3 0.01204
92.35 0.0173
92.4 0.01433
92.45 0.00965
92.5 0.00687
92.55 0.0081
92.6 0.01266
92.65 0.0163
92.7 0.02078
92.75 0.024
92.8 0.02032
92.85 0.01661
92.9 0.01465
92.95 0.01573
93 0.01701
93.05 0.0202
93.1 0.01948
93.15 0.0152
93.2 0.01343
93.25 0.01289
93.3 0.01017
93.35 0.00604
93.4 -0.00153
93.45 -0.00854
93.5 -0.01177
93.55 -0.01735
93.6 -0.02017
93.65 -0.02156
93.7 -0.0184
93.75 -0.01727
93.8 -0.01709
93.85 -0.01216
93.9 -0.01226
93.95 -0.01007
94 -0.00399
94.05 -0.00364
94.1 -0.0062
94.15 -0.01105
94.2 -0.012
94.25 -0.01551
94.3 -0.01632
94.35 -0.0111
94.4 -0.01155
94.45 -0.01237
94.5 -0.00801
94.55 -0.00906
94.6 -0.00504
94.65 -0.0034
94.7 -0.00066
94.75 0.00453
94.8 0.00573
94.85 0.00589
94.9 0.0026
94.95 -0.00122
95 -0.00725
95.05 -0.00812
95.1 -0.00902
95.15 -0.0081
95.2 -0.00305
95.25 0.00187
95.3 0.00034
95.35 -0.00028
95.4 0.0001
95.45 0.00355
95.5 0.00201
95.55 0.00005
95.6 0.00132
95.65 0.00265
95.7 -0.00065
95.75 -0.00314
95.8 -0.00653
95.85 -0.00622
95.9 -0.00982
95.95 -0.01536
96 -0.01442
96.05 -0.0088
96.1 -0.00421
96.15 -0.00561
96.2 -0.00496
96.25 -0.00844
96.3 -0.00743
96.35 -0.00506
96.4 0.0005
96.45 0.00687
96.5 0.01084
96.55 0.01657
96.6 0.01798
96.65 0.01977
96.7 0.01633
96.75 0.01031
96.8 0.00475
96.85 0.00028
96.9 -0.0074
96.95 -0.01273
97 -0.01513
97.05 -0.01407
97.1 -0.01655
97.15 -0.02108
97.2 -0.02148
97.25 -0.01606
97.3 -0.01191
97.35 -0.01206
97.4 -0.0106
97.45 -0.00654
97.5 -0.00481
97.55 -0.00317
97.6 -0.00154
97.65 0.00118
97.7 0.00211
97.75 0.0037
97.8 0.00336
97.85 0.00379
97.9 0.00096
97.95 0.0006
98 0.00395
98.05 0.00514
98.1 0.00914
98.15 0.00723
98.2 0.00822
98.25 0.0109
98.3 0.01035
98.35 0.01149
98.4 0.00824
98.45 0.00452
98.5 0.00547
98.55 0.0023
98.6 0.0016
98.65 -0.00324
98.7 -0.00608
98.75 -0.01067
98.8 -0.0131
98.85 -0.01098
98.9 -0.01198
98.95 -0.00742
99 -0.00039
99.05 0.0079
99.1 0.0098
99.15 0.01251
99.2 0.01169
99.25 0.00839
99.3 0.00154
99.35 -0.00015
99.4 -0.0037
99.45 -0.0014
99.5 -0.00378
99.55 -0.00048
99.6 0.00028
99.65 -0.00081
99.7 -0.00348
99.75 -0.00378
99.8 -0.00256
99.85 0.00271
99.9 0.00525
99.95 0.00608
