0 0
0.05 0.00252
0.1 0.00753
0.15 0.0136
0.2 0.01755
0.25 0.01969
0.3 0.0196
0.35 0.01859
0.4 0.01679
0.45 0.01506
0.5 0.01307
0.55 0.01105
0.6 0.00922
0.65 0.00903
0.7 0.01127
0.75 0.01449
0.8 0.01955
0.85 0.0215
0.9 0.02278
0.95 0.0238
1 0.02252
1.05 0.02182
1.1 0.02395
1.15 0.02475
1.2 0.02679
1.25 0.02651
1.3 0.02607
1.35 0.02403
1.4 0.02076
1.45 0.01928
1.5 0.01902
1.55 0.01914
1.6 0.02108
1.65 0.02348
1.7 0.02425
1.75 0.02676
1.8 0.02618
1.85 0.0233
1.9 0.02136
1.95 0.01773
2 0.01649
2.05 0.0146
2.1 0.0159
2.15 0.0177
2.2 0.02104
2.25 0.02138
2.3 0.02177
2.35 0.02262
2.4 0.02372
2.45 0.02185
2.5 0.01941
2.55 0.01853
2.6 0.01938
2.65 0.01858
2.7 0.01529
2.75 0.01353
2.8 0.01168
2.85 0.01237
2.9 0.01523
2.95 0.01629
3 0.01616
3.05 0.01569
3.1 0.01423
3.15 0.01428
3.2 0.01189
3.25 0.00877
3.3 0.0093
3.35 0.00737
3.4 0.00643
3.45 0.00705
3.5 0.00865
3.55 0.00898
3.6 0.01186
3.65 0.0112
3.7 0.01278
3.75 0.01538
3.8 0.0146
3.85 0.01175
3.9 0.00895
3.95 0.0066
4 0.00495
4.05 0.00221
4.1 0.00261
4.15 0.00509
4.2 0.00518
4.25 0.00632
4.3 0.00554
4.35 0.00681
4.4 0.00629
4.45 0.00559
4.5 0.00329
4.55 0.00021
4.6 0
4.65 -0.00062
4.7 0.00229
4.75 0.00593
4.8 0.00811
4.85 0.00982
4.9 0.01126
4.95 0.01156
5 0.01052
5.05 0.00995
5.1 0.00927
5.15 0.00692
5.2 0.00324
5.25 0.00276
5.3 0.00108
5.35 -0.00132
5.4 -0.00442
5.45 -0.00318
5.5 0.00033
5.55 0.0014
5.6 0.00229
5.65 0.00185
5.7 0.00067
5.75 -0.00148
5.8 -0.00395
5.85 -0.00602
5.9 -0.00612
5.95 -0.0062
6 -0.00358
6.05 -0.0032
6.1 -0.00002
6.15 0.00089
6.2 0.00423
6.25 0.00743
6.3 0.00866
6.35 0.00991
6.4 0.00825
6.45 0.00894
6.5 0.0115
6.55 0.01338
6.6 0.01182
6.65 0.0083
6.7 0.00509
6.75 0.00145
6.8 0.0014
6.85 0.0015
6.9 0.00005
6.95 -0.0027
7 -0.00425
7.05 -0.0028
7.1 0.00133
7.15 0.0026
7.2 0.00235
7.25 0.00411
7.3 0.00595
7.35 0.00633
7.4 0.00764
7.45 0.00795
7.5 0.00626
7.55 0.0072
7.6 0.00841
7.65 0.00955
7.7 0.00829
7.75 0.0085
7.8 0.00916
7.85 0.01155
7.9 0.01459
7.95 0.01699
8 0.01623
8.05 0.01353
8.1 0.01335
8.15 0.01242
8.2 0.00983
8.25 0.00813
8.3 0.00892
8.35 0.00663
8.4 0.00478
8.45 0.00489
8.5 0.00418
8.55 0.00618
8.6 0.00841
8.65 0.00691
8.7 0.00323
8.75 -0.00139
8.8 -0.00464
8.85 -0.00491
8.9 -0.00195
8.95 0.0028
9 0.00845
9.05 0.01146
9.1 0.01366
9.15 0.01382
9.2 0.01206
9.25 0.00856
9.3 0.00359
9.35 0.00209
9.4 0.00123
9.45 0.00061
9.5 -0.00034
9.55 0.00027
9.6 -0.00066
9.65 -0.00207
9.7 -0.00381
9.75 -0.00579
9.8 -0.00579
9.85 -0.0065
9.9 -0.00627
9.95 -0.00503
10 -0.0023
10.05 0.0016
10.1 0.00551
10.15 0.00775
10.2 0.00944
10.25 0.00812
10.3 0.00933
10.35 0.00928
10.4 0.0108
10.45 0.00953
10.5 0.00806
10.55 0.00762
10.6 0.00554
10.65 0.0055
10.7 0.00293
10.75 -0.00025
10.8 -0.00144
10.85 -0.0022
10.9 -0.00109
10.95 -0.00238
11 -0.00147
11.05 -0.00157
11.1 -0.00258
11.15 -0.00038
11.2 -0.0012
11.25 -0.00327
11.3 -0.00245
11.35 -0.00212
11.4 -0.0012
11.45 -0.00248
11.5 -0.00446
11.55 -0.00354
11.6 -0.0048
11.65 -0.00404
11.7 -0.00139
11.75 0.00077
11.8 0.00361
11.85 0.00432
11.9 0.00545
11.95 0.00529
12 0.00273
12.05 0.00274
12.1 0.00309
12.15 0.0008
12.2 0.0005
12.25 0.00148
12.3 0.00315
12.35 0.00641
12.4 0.00555
12.45 0.00622
12.5 0.00626
12.55 0.0067
12.6 0.00461
12.65 0.00202
12.7 0.00216
12.75 0.0013
12.8 0.0031
12.85 0.00321
12.9 0.00392
12.95 0.00276
13 0.00368
13.05 0.00351
13.1 0.00079
13.15 -0.00012
13.2 -0.00161
13.25 -0.00354
13.3 -0.00502
13.35 -0.00725
13.4 -0.00851
13.45 -0.00691
13.5 -0.00611
13.55 -0.00708
13.6 -0.00442
13.65 -0.00101
13.7 0.00064
13.75 0.00094
13.8 -0.00136
13.85 -0.00405
13.9 -0.0037
13.95 -0.00128
14 -0.00099
14.05 -0.00308
14.1 -0.00182
14.15 0.00038
14.2 0.00363
14.25 0.00392
14.3 0.00302
14.35 -0.00003
14.4 -0.00007
14.45 0.00011
14.5 0.0025
14.55 0.00275
14.6 0.00198
14.65 -0.00073
14.7 -0.00157
14.75 -0.00198
14.8 -0.00281
14.85 -0.00241
14.9 -0.00216
14.95 -0.00231
15 -0.00419
15.05 -0.00253
15.1 -0.00162
15.15 -0.00278
15.2 -0.00097
15.25 -0.00131
15.3 -0.00191
15.35 -0.00456
15.4 -0.00506
15.45 -0.00578
15.5 -0.00807
15.55 -0.00637
15.6 -0.00588
15.65 -0.00743
15.7 -0.00783
15.75 -0.00603
15.8 -0.00657
15.85 -0.00812
15.9 -0.00999
15.95 -0.0091
16 -0.00551
16.05 -0.00161
16.1 -0.00006
16.15 -0.00088
16.2 -0.0021
16.25 -0.00243
16.3 -0.00182
16.35 -0.00277
16.4 -0.00354
16.45 -0.00459
16.5 -0.00562
16.55 -0.00612
16.6 -0.00471
16.65 -0.00476
16.7 -0.00361
16.75 -0.00212
16.8 -0.0005
16.85 -0.00073
16.9 -0.00052
16.95 0.00181
17 0.00431
17.05 0.00476
17.1 0.00348
17.15 0.00419
17.2 0.0048
17.25 0.00716
17.3 0.00634
17.35 0.00487
17.4 0.00272
17.45 0.00067
17.5 0.0011
17.55 -0.0009
17.6 -0.00086
17.65 -0.00065
17.7 -0.0012
17.75 -0.00121
17.8 0.00015
17.85 0.0015
17.9 0.00405
17.95 0.00469
18 0.00696
18.05 0.00572
18.1 0.0071
18.15 0.0092
18.2 0.00973
18.25 0.00868
18.3 0.00544
18.35 0.0034
18.4 0.00257
18.45 0.00293
18.5 0.00127
18.55 0.00256
18.6 0.0054
18.65 0.00655
18.7 0.00759
18.75 0.00632
18.8 0.00452
18.85 0.00243
18.9 0.00117
18.95 0.00013
19 -0.00054
19.05 -0.00189
19.1 -0.00191
19.15 -0.00339
19.2 -0.00447
19.25 -0.00289
19.3 -0.00081
19.35 0.00187
19.4 0.00561
19.45 0.0095
19.5 0.01099
19.55 0.01277
19.6 0.01374
19.65 0.015
19.7 0.0159
19.75 0.01505
19.8 0.01399
19.85 0.01146
19.9 0.00745
19.95 0.00322
20 0.00192
20.05 0.00153
20.1 0.00231
20.15 0.00209
20.2 -0.00075
20.25 -0.00054
20.3 -0.00174
20.35 -0.00243
20.4 -0.00229
20.45 -0.00402
20.5 -0.0065
20.55 -0.00892
20.6 -0.00796
20.65 -0.00636
20.7 -0.0023
20.75 0.00287
20.8 0.00459
20.85 0.00735
20.9 0.00943
20.95 0.00801
21 0.00668
21.05 0.00475
21.1 0.00402
21.15 0.00275
21.2 -0.00079
21.25 -0.00098
21.3 -0.00276
21.35 -0.00519
21.4 -0.00844
21.45 -0.01227
21.5 -0.01594
21.55 -0.01526
21.6 -0.01142
21.65 -0.00773
21.7 -0.00558
21.75 -0.00257
21.8 -0.00228
21.85 -0.00005
21.9 0.0002
21.95 0.00119
22 0.00127
22.05 0.00276
22.1 0.00545
22.15 0.00889
22.2 0.00954
22.25 0.00978
22.3 0.01067
22.35 0.0117
22.4 0.0104
22.45 0.00639
22.5 0.00146
22.55 0.00036
22.6 0.00067
22.65 -0.00077
22.7 -0.00412
22.75 -0.0042
22.8 -0.00413
22.85 -0.0051
22.9 -0.00759
22.95 -0.01098
23 -0.01348
23.05 -0.01609
23.1 -0.01565
23.15 -0.01434
23.2 -0.01472
23.25 -0.01451
23.3 -0.01235
23.35 -0.0117
23.4 -0.00964
23.45 -0.00507
23.5 -0.00365
23.55 -0.00413
23.6 -0.00263
23.65 0.00107
23.7 0.00392
23.75 0.00511
23.8 0.00415
23.85 0.00266
23.9 -0.00081
23.95 -0.00416
24 -0.00591
24.05 -0.00705
24.1 -0.00692
24.15 -0.00706
24.2 -0.00764
24.25 -0.00772
24.3 -0.00546
24.35 -0.00112
24.4 0.00142
24.45 0.0023
24.5 0.00522
24.55 0.00676
24.6 0.00667
24.65 0.00675
24.7 0.00449
24.75 0.00147
24.8 -0.00138
24.85 -0.00481
24.9 -0.00813
24.95 -0.01001
25 -0.01273
25.05 -0.0111
25.1 -0.00937
25.15 -0.00658
25.2 -0.00359
25.25 -0.00134
25.3 -0.00032
25.35 -0.00016
25.4 0.00193
25.45 0.00168
25.5 0.00248
25.55 0.00343
25.6 0.0047
25.65 0.00372
25.7 0.0052
25.75 0.00733
25.8 0.00843
25.85 0.00866
25.9 0.00974
25.95 0.00844
26 0.00582
26.05 0.0015
26.1 0.00009
26.15 -0.00143
26.2 0.00017
26.25 0.00157
26.3 0.00207
26.35 0.00429
26.4 0.00719
26.45 0.00949
26.5 0.01113
26.55 0.01177
26.6 0.0108
26.65 0.00901
26.7 0.00685
26.75 0.00318
26.8 0.00116
26.85 0.00222
26.9 0.00329
26.95 0.00294
27 0.00383
27.05 0.00197
27.1 0.00292
27.15 0.00564
27.2 0.00576
27.25 0.00285
27.3 -0.00086
27.35 -0.00221
27.4 -0.00422
27.45 -0.00262
27.5 -0.00218
27.55 -0.00109
27.6 0.00093
27.65 0.00351
27.7 0.00509
27.75 0.00542
27.8 0.00491
27.85 0.00491
27.9 0.00652
27.95 0.00786
28 0.00875
28.05 0.01003
28.1 0.01163
28.15 0.01158
28.2 0.01236
28.25 0.01062
28.3 0.00834
28.35 0.00472
28.4 -0.00115
28.45 -0.00524
28.5 -0.00864
28.55 -0.01249
28.6 -0.01883
28.65 -0.02594
28.7 -0.03151
28.75 -0.03907
28.8 -0.04814
28.85 -0.05578
28.9 -0.06571
28.95 -0.07779
29 -0.08909
29.05 -0.09877
29.1 -0.11099
29.15 -0.12693
29.2 -0.14602
29.25 -0.16556
29.3 -0.18765
29.35 -0.21248
29.4 -0.24378
29.45 -0.27986
29.5 -0.32018
29.55 -0.36259
29.6 -0.41132
29.65 -0.46572
29.7 -0.52361
29.75 -0.58572
29.8 -0.64918
29.85 -0.7157
29.9 -0.78344
29.95 -0.85189
30 -0.92147
30.05 -0.99011
30.1 -1.05983
30.15 -1.13089
30.2 -1.20219
30.25 -1.26888
30.3 -1.32981
30.35 -1.38755
30.4 -1.44196
30.45 -1.4898
30.5 -1.532
30.55 -1.5636
30.6 -1.58528
30.65 -1.59892
30.7 -1.60254
30.75 -1.59726
30.8 -1.58073
30.85 -1.55181
30.9 -1.51129
30.95 -1.46168
31 -1.39926
31.05 -1.3274
31.1 -1.24574
31.15 -1.15959
31.2 -1.06472
31.25 -0.96193
31.3 -0.85435
31.35 -0.74217
31.4 -0.62721
31.45 -0.51219
31.5 -0.39708
31.55 -0.28201
31.6 -0.16644
31.65 -0.05662
31.7 0.05046
31.75 0.157
31.8 0.2606
31.85 0.35661
31.9 0.44924
31.95 0.53703
32 0.62034
32.05 0.69467
32.1 0.76534
32.15 0.82997
32.2 0.8861
32.25 0.9386
32.3 0.98488
32.35 1.02405
32.4 1.06133
32.45 1.09582
32.5 1.1272
32.55 1.15517
32.6 1.18013
32.65 1.20288
32.7 1.22023
32.75 1.2344
32.8 1.24846
32.85 1.26205
32.9 1.27126
32.95 1.27698
33 1.28227
33.05 1.28831
33.1 1.28949
33.15 1.28824
33.2 1.28364
33.25 1.27664
33.3 1.26884
33.35 1.25951
33.4 1.2517
33.45 1.2437
33.5 1.23252
33.55 1.21946
33.6 1.20733
33.65 1.19379
33.7 1.17992
33.75 1.16177
33.8 1.13886
33.85 1.11667
33.9 1.09088
33.95 1.06444
34 1.03539
34.05 1.00598
34.1 0.9765
34.15 0.94831
34.2 0.91976
34.25 0.89178
34.3 0.8625
34.35 0.83365
34.4 0.80267
34.45 0.77288
34.5 0.74119
34.55 0.70905
34.6 0.6773
34.65 0.64684
34.7 0.61552
34.75 0.58595
34.8 0.56005
34.85 0.53507
34.9 0.51015
34.95 0.48614
35 0.45934
35.05 0.43184
35.1 0.40353
35.15 0.37453
35.2 0.34671
35.25 0.31862
35.3 0.29118
35.35 0.26885
35.4 0.24609
35.45 0.22351
35.5 0.20057
35.55 0.17847
35.6 0.15699
35.65 0.13916
35.7 0.12129
35.75 0.10258
35.8 0.08527
35.85 0.06881
35.9 0.05163
35.95 0.03379
36 0.01908
36.05 0.00732
36.1 -0.00616
36.15 -0.01741
36.2 -0.02741
36.25 -0.03647
36.3 -0.04975
36.35 -0.06153
36.4 -0.07547
36.45 -0.08911
36.5 -0.1009
36.55 -0.11408
36.6 -0.12368
36.65 -0.13028
36.7 -0.13609
36.75 -0.14158
36.8 -0.14933
36.85 -0.15904
36.9 -0.16559
36.95 -0.17395
37 -0.18253
37.05 -0.18683
37.1 -0.18866
37.15 -0.19011
37.2 -0.19099
37.25 -0.19269
37.3 -0.19673
37.35 -0.19833
37.4 -0.19937
37.45 -0.19917
37.5 -0.20079
37.55 -0.20192
37.6 -0.20164
37.65 -0.20421
37.7 -0.20715
37.75 -0.20819
37.8 -0.20985
37.85 -0.21274
37.9 -0.21224
37.95 -0.21151
38 -0.21155
38.05 -0.21292
38.1 -0.21356
38.15 -0.21175
38.2 -0.21206
38.25 -0.21308
38.3 -0.211
38.35 -0.20786
38.4 -0.2048
38.45 -0.20046
38.5 -0.19574
38.55 -0.19305
38.6 -0.19176
38.65 -0.18957
38.7 -0.18742
38.75 -0.18416
38.8 -0.17922
38.85 -0.17734
38.9 -0.17712
38.95 -0.17798
39 -0.17944
39.05 -0.18001
39.1 -0.17766
39.15 -0.17624
39.2 -0.17216
39.25 -0.16822
39.3 -0.16576
39.35 -0.16241
39.4 -0.15814
39.45 -0.15489
39.5 -0.15252
39.55 -0.15051
39.6 -0.14832
39.65 -0.14676
39.7 -0.14468
39.75 -0.1409
39.8 -0.13535
39.85 -0.12865
39.9 -0.12233
39.95 -0.11806
40 -0.11622
40.05 -0.11727
40.1 -0.11875
40.15 -0.11926
40.2 -0.1205
40.25 -0.11846
40.3 -0.11835
40.35 -0.11755
40.4 -0.11589
40.45 -0.11557
40.5 -0.11275
40.55 -0.11095
40.6 -0.10963
40.65 -0.10728
40.7 -0.10357
40.75 -0.10094
40.8 -0.09821
40.85 -0.09366
40.9 -0.0887
40.95 -0.08682
41 -0.08451
41.05 -0.08547
41.1 -0.08423
41.15 -0.08327
41.2 -0.08262
41.25 -0.08301
41.3 -0.08392
41.35 -0.08377
41.4 -0.08134
41.45 -0.07956
41.5 -0.07864
41.55 -0.07825
41.6 -0.0773
41.65 -0.07555
41.7 -0.07573
41.75 -0.0772
41.8 -0.07701
41.85 -0.07552
41.9 -0.07278
41.95 -0.07068
42 -0.06679
42.05 -0.0626
42.1 -0.05748
42.15 -0.05595
42.2 -0.05409
42.25 -0.05426
42.3 -0.05208
42.35 -0.0505
42.4 -0.0485
42.45 -0.04716
42.5 -0.04454
42.55 -0.04348
42.6 -0.04286
42.65 -0.0427
42.7 -0.04143
42.75 -0.04208
42.8 -0.04187
42.85 -0.04063
42.9 -0.04263
42.95 -0.04647
43 -0.05123
43.05 -0.05554
43.1 -0.05778
43.15 -0.05688
43.2 -0.05407
43.25 -0.05242
43.3 -0.05003
43.35 -0.04641
43.4 -0.042
43.45 -0.03997
43.5 -0.03649
43.55 -0.03497
43.6 -0.03613
43.65 -0.03875
43.7 -0.04125
43.75 -0.04325
43.8 -0.04483
43.85 -0.04349
43.9 -0.04451
43.95 -0.04295
44 -0.03991
44.05 -0.0387
44.1 -0.03592
44.15 -0.03417
44.2 -0.03331
44.25 -0.03098
44.3 -0.02808
44.35 -0.02721
44.4 -0.0283
44.45 -0.03161
44.5 -0.03264
44.55 -0.03222
44.6 -0.03214
44.65 -0.03309
44.7 -0.03322
44.75 -0.03327
44.8 -0.03459
44.85 -0.03497
44.9 -0.03659
44.95 -0.03465
45 -0.03358
45.05 -0.03461
45.1 -0.03501
45.15 -0.03578
45.2 -0.03391
45.25 -0.03033
45.3 -0.02487
45.35 -0.02066
45.4 -0.01811
45.45 -0.01421
45.5 -0.00986
45.55 -0.00825
45.6 -0.00766
45.65 -0.00776
45.7 -0.00811
45.75 -0.01013
45.8 -0.01339
45.85 -0.01453
45.9 -0.01735
45.95 -0.01675
46 -0.01802
46.05 -0.01648
46.1 -0.01426
46.15 -0.01529
46.2 -0.01699
46.25 -0.01823
46.3 -0.01827
46.35 -0.01806
46.4 -0.0162
46.45 -0.01546
46.5 -0.01288
46.55 -0.01376
46.6 -0.01285
46.65 -0.01389
46.7 -0.01656
46.75 -0.01988
46.8 -0.02224
46.85 -0.0247
46.9 -0.02685
46.95 -0.02471
47 -0.02276
47.05 -0.02324
47.1 -0.02288
47.15 -0.01991
47.2 -0.01843
47.25 -0.01465
47.3 -0.01195
47.35 -0.0123
47.4 -0.014
47.45 -0.01707
47.5 -0.01832
47.55 -0.01962
47.6 -0.02078
47.65 -0.01974
47.7 -0.01785
47.75 -0.01622
47.8 -0.01511
47.85 -0.01156
47.9 -0.00673
47.95 -0.00415
48 -0.00303
48.05 -0.00102
48.1 0.00134
48.15 -0.00031
48.2 0.0004
48.25 -0.00169
48.3 -0.00473
48.35 -0.00787
48.4 -0.00853
48.45 -0.00755
48.5 -0.00556
48.55 -0.00227
48.6 -0.00125
48.65 -0.00111
48.7 -0.00125
48.75 -0.00351
48.8 -0.00764
48.85 -0.00854
48.9 -0.0108
48.95 -0.01161
49 -0.01045
49.05 -0.01117
49.1 -0.01331
49.15 -0.01505
49.2 -0.01542
49.25 -0.01733
49.3 -0.01777
49.35 -0.01616
49.4 -0.01292
49.45 -0.0093
49.5 -0.00763
49.55 -0.0061
49.6 -0.00515
49.65 -0.00214
49.7 -0.00105
49.75 0.00063
49.8 0.00135
49.85 0.00124
49.9 -0.00073
49.95 -0.00194
50 -0.00332
50.05 -0.00553
50.1 -0.00852
50.15 -0.00906
50.2 -0.00814
50.25 -0.00535
50.3 -0.00558
50.35 -0.00771
50.4 -0.00663
50.45 -0.00775
50.5 -0.00973
50.55 -0.01153
50.6 -0.01425
50.65 -0.01709
50.7 -0.01549
50.75 -0.01511
50.8 -0.01219
50.85 -0.01137
50.9 -0.01264
50.95 -0.01184
51 -0.01301
51.05 -0.01242
51.1 -0.01297
51.15 -0.01243
51.2 -0.01334
51.25 -0.0141
51.3 -0.01159
51.35 -0.00865
51.4 -0.00861
51.45 -0.00631
51.5 -0.00428
51.55 -0.00439
51.6 -0.00327
51.65 -0.00083
51.7 0.00001
51.75 0.00239
51.8 0.0021
51.85 0.00341
51.9 0.00219
51.95 0.00133
52 0.00161
52.05 -0.00038
52.1 -0.00128
52.15 -0.00196
52.2 -0.00452
52.25 -0.00649
52.3 -0.00847
52.35 -0.00672
52.4 -0.00385
52.45 0.00037
52.5 0.00154
52.55 0.00168
52.6 0.00064
52.65 0.00076
52.7 0.00159
52.75 0.00211
52.8 0.00412
52.85 0.00416
52.9 0.00287
52.95 -0.00065
53 -0.00191
53.05 -0.005
53.1 -0.00538
53.15 -0.00574
53.2 -0.00337
53.25 0.00069
53.3 0.00335
53.35 0.00377
53.4 0.00198
53.45 -0.00027
53.5 0.00055
53.55 0.00234
53.6 0.00571
53.65 0.00582
53.7 0.00419
53.75 0.00045
53.8 -0.00429
53.85 -0.00952
53.9 -0.01421
53.95 -0.01782
54 -0.01991
54.05 -0.01817
54.1 -0.01774
54.15 -0.01476
54.2 -0.01077
54.25 -0.00699
54.3 -0.00519
54.35 -0.00467
54.4 -0.00359
54.45 0
54.5 0.00433
54.55 0.00655
54.6 0.0079
54.65 0.00678
54.7 0.00687
54.75 0.00711
54.8 0.00557
54.85 0.00322
54.9 0.00082
54.95 -0.00141
55 -0.00509
55.05 -0.00656
55.1 -0.00592
55.15 -0.00388
55.2 -0.00176
55.25 -0.00015
55.3 -0.0004
55.35 -0.00128
55.4 -0.00186
55.45 -0.00398
55.5 -0.00729
55.55 -0.00969
55.6 -0.01276
55.65 -0.01181
55.7 -0.01147
55.75 -0.00855
55.8 -0.00587
55.85 -0.00529
55.9 -0.00609
55.95 -0.00559
56 -0.00241
56.05 0.00068
56.1 0.00194
56.15 0.00116
56.2 0.00328
56.25 0.00527
56.3 0.00482
56.35 0.00448
56.4 0.00314
56.45 0.00011
56.5 -0.00269
56.55 -0.00595
56.6 -0.00634
56.65 -0.00632
56.7 -0.00767
56.75 -0.00812
56.8 -0.00952
56.85 -0.00737
56.9 -0.00489
56.95 -0.00235
57 0.00146
57.05 0.00352
57.1 0.00461
57.15 0.00671
57.2 0.00929
57.25 0.00855
57.3 0.00551
57.35 0.00253
57.4 0.00095
57.45 0.00084
57.5 0.00017
57.55 0.00054
57.6 -0.00092
57.65 0.00064
57.7 0.00412
57.75 0.0082
57.8 0.0081
57.85 0.00999
57.9 0.00942
57.95 0.00849
58 0.00562
58.05 0.00131
58.1 -0.00279
58.15 -0.00661
58.2 -0.0109
58.25 -0.01038
58.3 -0.00769
58.35 -0.00305
58.4 0.0021
58.45 0.004
58.5 0.00722
58.55 0.01094
58.6 0.01092
58.65 0.0086
58.7 0.00813
58.75 0.00492
58.8 0.00076
58.85 -0.00288
58.9 -0.00724
58.95 -0.00792
59 -0.00512
59.05 -0.00176
59.1 0.00207
59.15 0.00463
59.2 0.00417
59.25 0.00426
59.3 0.00431
59.35 0.00199
59.4 0.00194
59.45 0.00398
59.5 0.00536
59.55 0.00593
59.6 0.00717
59.65 0.00911
59.7 0.00893
59.75 0.00788
59.8 0.00614
59.85 0.00312
59.9 -0.00161
59.95 -0.00574
60 -0.00596
60.05 -0.0033
60.1 -0.00213
60.15 -0.0001
60.2 0.00081
60.25 0.00136
60.3 -0.00015
60.35 0.00017
60.4 -0.00083
60.45 -0.00311
60.5 -0.00234
60.55 -0.00039
60.6 0.00107
60.65 0.0041
60.7 0.00649
60.75 0.00937
60.8 0.01028
60.85 0.01083
60.9 0.01162
60.95 0.01363
61 0.01608
61.05 0.01824
61.1 0.01717
61.15 0.01717
61.2 0.01501
61.25 0.01007
61.3 0.00518
61.35 0.00045
61.4 -0.00035
61.45 -0.00059
61.5 0.00112
61.55 0.0031
61.6 0.00332
61.65 0.00362
61.7 0.00087
61.75 0.00053
61.8 -0.0017
61.85 -0.00353
61.9 -0.00659
61.95 -0.00794
62 -0.00957
62.05 -0.01248
62.1 -0.01257
62.15 -0.00935
62.2 -0.00764
62.25 -0.00566
62.3 -0.00561
62.35 -0.00473
62.4 -0.00549
62.45 -0.00506
62.5 -0.00346
62.55 -0.00188
62.6 0.00048
62.65 -0.00002
62.7 -0.00261
62.75 -0.00211
62.8 -0.00137
62.85 -0.00113
62.9 -0.00011
62.95 0.0029
63 0.00442
63.05 0.00628
63.1 0.00696
63.15 0.00688
63.2 0.00557
63.25 0.00241
63.3 0.00073
63.35 -0.00088
63.4 -0.00069
63.45 0.00135
63.5 0.00446
63.55 0.00803
63.6 0.00961
63.65 0.01123
63.7 0.01222
63.75 0.00976
63.8 0.00723
63.85 0.00515
63.9 0.00337
63.95 0.00057
64 -0.00327
64.05 -0.00712
64.1 -0.00833
64.15 -0.00644
64.2 -0.00612
64.25 -0.00331
64.3 -0.00352
64.35 -0.00251
64.4 -0.00434
64.45 -0.00593
64.5 -0.00802
64.55 -0.01029
64.6 -0.01324
64.65 -0.01354
64.7 -0.01226
64.75 -0.0107
64.8 -0.00895
64.85 -0.005
64.9 -0.00133
64.95 0.0032
65 0.00589
65.05 0.0067
65.1 0.00774
65.15 0.00611
65.2 0.00426
65.25 0.00394
65.3 0.00476
65.35 0.00351
65.4 0.00241
65.45 0.00208
65.5 0.00336
65.55 0.00358
65.6 0.00328
65.65 0.00183
65.7 -0.00041
65.75 -0.00042
65.8 -0.0007
65.85 -0.00253
65.9 -0.00308
65.95 -0.00272
66 0.00015
66.05 0.00077
66.1 -0.0001
66.15 -0.00254
66.2 -0.0028
66.25 -0.00084
66.3 -0.00163
66.35 -0.00463
66.4 -0.00862
66.45 -0.01171
66.5 -0.01428
66.55 -0.01676
66.6 -0.01756
66.65 -0.01673
66.7 -0.01563
66.75 -0.01603
66.8 -0.01576
66.85 -0.0162
66.9 -0.01422
66.95 -0.01362
67 -0.0132
67.05 -0.00996
67.1 -0.00544
67.15 -0.0025
67.2 -0.00076
67.25 -0.00192
67.3 -0.00043
67.35 0.00043
67.4 0.00016
67.45 -0.00169
67.5 -0.0006
67.55 0.00169
67.6 0.00502
67.65 0.00466
67.7 0.00465
67.75 0.00414
67.8 0.00333
67.85 0.00203
67.9 0.00142
67.95 0.00166
68 0.00186
68.05 0.00089
68.1 0.00214
68.15 0.00404
68.2 0.00477
68.25 0.0057
68.3 0.00807
68.35 0.01101
68.4 0.01213
68.45 0.0108
68.5 0.01096
68.55 0.00814
68.6 0.00719
68.65 0.00481
68.7 0.00114
68.75 0.00083
68.8 -0.0018
68.85 -0.00116
68.9 0.00104
68.95 0.00345
69 0.00299
69.05 0.0023
69.1 0.00303
69.15 0.00309
69.2 0.00471
69.25 0.00632
69.3 0.00778
69.35 0.00889
69.4 0.00772
69.45 0.00475
69.5 -0.00015
69.55 -0.0044
69.6 -0.00888
69.65 -0.00931
69.7 -0.00686
69.75 -0.00714
69.8 -0.00828
69.85 -0.00855
69.9 -0.00985
69.95 -0.01237
70 -0.01085
70.05 -0.01108
70.1 -0.00943
70.15 -0.00946
70.2 -0.01079
70.25 -0.00808
70.3 -0.00421
70.35 -0.00096
70.4 0.00291
70.45 0.00703
70.5 0.0099
70.55 0.01004
70.6 0.0089
70.65 0.00752
70.7 0.00541
70.75 0.00432
70.8 0.00159
70.85 -0.00179
70.9 -0.00304
70.95 -0.00129
71 0.00213
71.05 0.00386
71.1 0.00626
71.15 0.0062
71.2 0.00591
71.25 0.00622
71.3 0.00701
71.35 0.0088
71.4 0.01004
71.45 0.00841
71.5 0.00689
71.55 0.00484
71.6 0.00322
71.65 0.00088
71.7 -0.00161
71.75 -0.00069
71.8 -0.00198
71.85 -0.00368
71.9 -0.00361
71.95 -0.00521
72 -0.00379
72.05 -0.00137
72.1 0.00213
72.15 0.00396
72.2 0.004
72.25 0.00517
72.3 0.00319
72.35 0.0016
72.4 -0.00113
72.45 -0.00101
72.5 0.00071
72.55 0.00321
72.6 0.00339
72.65 0.00551
72.7 0.00537
72.75 0.00358
72.8 0.00134
72.85 -0.00203
72.9 -0.00357
72.95 -0.00302
73 0.00001
73.05 -0.0001
73.1 -0.00209
73.15 -0.0041
73.2 -0.00473
73.25 -0.0045
73.3 -0.00319
73.35 -0.00082
73.4 -0.00013
73.45 -0.00148
73.5 -0.0022
73.55 -0.00403
73.6 -0.00279
73.65 -0.00087
73.7 0.00002
73.75 0.00133
73.8 0.00156
73.85 0.00346
73.9 0.00533
73.95 0.00695
74 0.00569
74.05 0.00487
74.1 0.00184
74.15 -0.00085
74.2 -0.00207
74.25 -0.00282
74.3 -0.0011
74.35 0.00017
74.4 -0.00138
74.45 -0.00103
74.5 -0.0005
74.55 -0.00059
74.6 -0.00234
74.65 -0.00175
74.7 -0.00269
74.75 -0.00159
74.8 -0.00082
74.85 -0.00138
74.9 -0.00053
74.95 0.00115
75 -0.0004
75.05 0.00067
75.1 -0.00023
75.15 -0.00255
75.2 -0.00155
75.25 -0.0016
75.3 -0.00287
75.35 -0.00215
75.4 -0.00183
75.45 -0.00257
75.5 -0.00516
75.55 -0.00719
75.6 -0.00575
75.65 -0.00308
75.7 -0.00246
75.75 -0.00024
75.8 0.00109
75.85 0.00428
75.9 0.00466
75.95 0.00477
76 0.00629
76.05 0.00515
76.1 0.00436
76.15 0.00338
76.2 0.00048
76.25 0.00027
76.3 0.00017
76.35 -0.00006
76.4 -0.00034
76.45 -0.0024
76.5 -0.00181
76.55 -0.00272
76.6 -0.00429
76.65 -0.0063
76.7 -0.00498
76.75 -0.00474
76.8 -0.00258
76.85 -0.00044
76.9 0.00343
76.95 0.00482
77 0.00505
77.05 0.00675
77.1 0.00779
77.15 0.00875
77.2 0.01047
77.25 0.01258
77.3 0.01264
77.35 0.01288
77.4 0.01198
77.45 0.00868
77.5 0.00812
77.55 0.00854
77.6 0.00813
77.65 0.00811
77.7 0.00498
77.75 0.00177
77.8 0.00141
77.85 0.00183
77.9 0.00168
77.95 0.00284
78 0.00102
78.05 -0.0007
78.1 -0.00009
78.15 -0.00229
78.2 -0.006
78.25 -0.00833
78.3 -0.0116
78.35 -0.01394
78.4 -0.01433
78.45 -0.01413
78.5 -0.0145
78.55 -0.01471
78.6 -0.01398
78.65 -0.01329
78.7 -0.01189
78.75 -0.00891
78.8 -0.0066
78.85 -0.00681
78.9 -0.00695
78.95 -0.00686
79 -0.00408
79.05 -0.00179
79.1 -0.00151
79.15 0.00045
79.2 0.00164
79.25 0.00208
79.3 0.00224
79.35 0.00249
79.4 0.00106
79.45 0.00212
79.5 0.00496
79.55 0.00545
79.6 0.0038
79.65 0.00036
79.7 -0.00094
79.75 -0.0002
79.8 0.00035
79.85 0.00238
79.9 0.00536
79.95 0.00829
80 0.01184
80.05 0.01442
80.1 0.01516
80.15 0.01435
80.2 0.01298
80.25 0.01281
80.3 0.0123
80.35 0.00911
80.4 0.00645
80.45 0.00293
80.5 -0.00173
80.55 -0.00418
80.6 -0.00599
80.65 -0.00855
80.7 -0.01221
80.75 -0.01418
80.8 -0.01603
80.85 -0.01683
80.9 -0.01622
80.95 -0.01715
81 -0.01723
81.05 -0.01603
81.1 -0.01166
81.15 -0.00897
81.2 -0.00793
81.25 -0.00613
81.3 -0.00203
81.35 0.00238
81.4 0.00553
81.45 0.00697
81.5 0.00488
81.55 0.00287
81.6 -0.00101
81.65 -0.00368
81.7 -0.00478
81.75 -0.00683
81.8 -0.007
81.85 -0.007
81.9 -0.00654
81.95 -0.00416
82 -0.00272
82.05 -0.00365
82.1 -0.00326
82.15 -0.00458
82.2 -0.00452
82.25 -0.0051
82.3 -0.00707
82.35 -0.0089
82.4 -0.00842
82.45 -0.00515
82.5 -0.00155
82.55 0.00254
82.6 0.00682
82.65 0.00905
82.7 0.01119
82.75 0.01198
82.8 0.01118
82.85 0.00875
82.9 0.00497
82.95 0.00012
83 -0.00109
83.05 -0.00352
83.1 -0.00475
83.15 -0.00273
83.2 -0.00002
83.25 0.00033
83.3 -0.00144
83.35 -0.00066
83.4 -0.00052
83.45 0.00078
83.5 0.00063
83.55 0.00198
83.6 0.00309
83.65 0.004
83.7 0.00386
83.75 0.00341
83.8 0.00142
83.85 0.00175
83.9 0.00395
83.95 0.00632
84 0.00729
84.05 0.0087
84.1 0.00965
84.15 0.00813
84.2 0.00495
84.25 0.0004
84.3 -0.00297
84.35 -0.00428
84.4 -0.00356
84.45 -0.00504
84.5 -0.00365
84.55 -0.00212
84.6 -0.001
84.65 0.00023
84.7 0.00222
84.75 0.00381
84.8 0.00549
84.85 0.00361
84.9 0.00386
84.95 0.00238
85 -0.00114
85.05 -0.00567
85.1 -0.00735
85.15 -0.00752
85.2 -0.00818
85.25 -0.00754
85.3 -0.00696
85.35 -0.00506
85.4 -0.0056
85.45 -0.00713
85.5 -0.00936
85.55 -0.00759
85.6 -0.00368
85.65 0.00119
85.7 0.00257
85.75 0.00548
85.8 0.00467
85.85 0.00408
85.9 0.00133
85.95 -0.00284
86 -0.0048
86.05 -0.00795
86.1 -0.0115
86.15 -0.01206
86.2 -0.00973
86.25 -0.00533
86.3 -0.00373
86.35 -0.00059
86.4 -0.00096
86.45 0.001
86.5 0.0012
86.55 -0.00121
86.6 -0.00118
86.65 0.00068
86.7 0.00016
86.75 0.0011
86.8 0.00394
86.85 0.00305
86.9 -0.00021
86.95 -0.00257
87 -0.00208
87.05 -0.00229
87.1 -0.0008
87.15 0.00259
87.2 0.00229
87.25 0.00203
87.3 0.00126
87.35 -0.00072
87.4 -0.00369
87.45 -0.00401
87.5 -0.00568
87.55 -0.00855
87.6 -0.01172
87.65 -0.01174
87.7 -0.01257
87.75 -0.01
87.8 -0.0066
87.85 -0.00464
87.9 -0.00179
87.95 -0.00108
88 -0.00239
88.05 -0.00317
88.1 -0.00321
88.15 -0.00185
88.2 -0.00081
88.25 0.00132
88.3 0.00179
88.35 0.00117
88.4 -0.00171
88.45 -0.00204
88.5 -0.00173
88.55 -0.00141
88.6 -0.00219
88.65 -0.00331
88.7 -0.00401
88.75 -0.00477
88.8 -0.00371
88.85 -0.00506
88.9 -0.00292
88.95 0.0013
89 0.00245
89.05 0.00415
89.1 0.00266
89.15 0.00067
89.2 -0.00044
89.25 -0.00317
89.3 -0.00315
89.35 -0.00464
89.4 -0.00576
89.45 -0.0074
89.5 -0.00612
89.55 -0.00386
89.6 -0.00429
89.65 -0.00434
89.7 -0.00214
89.75 -0.00215
89.8 -0.00247
89.85 0.00027
89.9 -0.00022
89.95 -0.00169
90 0.0002
90.05 0.00022
90.1 0.00221
90.15 0.00229
90.2 0.00349
90.25 0.00437
90.3 0.00662
90.35 0.00557
90.4 0.0022
90.45 -0.00117
90.5 -0.00328
90.55 -0.00423
90.6 -0.00533
90.65 -0.00458
90.7 -0.00172
90.75 -0.00135
90.8 0.00136
90.85 0.00326
90.9 0.00274
90.95 0.00341
91 0.00496
91.05 0.00368
91.1 0.00264
91.15 0.00264
91.2 0.00492
91.25 0.00704
91.3 0.01046
91.35 0.01016
91.4 0.01072
91.45 0.01195
91.5 0.0125
91.55 0.00937
91.6 0.00778
91.65 0.00385
91.7 -0.00048
91.75 -0.00117
91.8 0.00046
91.85 0.00358
91.9 0.00687
91.95 0.0086
92 0.01088
92.05 0.00906
92.1 0.00507
92.15 0.003
92.2 0.0009
92.25 -0.0026
92.3 -0.00314
92.35 -0.0014
92.4 -0.00213
92.45 -0.00317
92.5 -0.0024
92.55 0.00049
92.6 0.00232
92.65 0.00306
92.7 0.00526
92.75 0.0044
92.8 0.00537
92.85 0.00371
92.9 0.00213
92.95 -0.00074
93 -0.00283
93.05 -0.00493
93.1 -0.00771
93.15 -0.00721
93.2 -0.00885
93.25 -0.01142
93.3 -0.01263
93.35 -0.01444
93.4 -0.01377
93.45 -0.01097
93.5 -0.00593
93.55 -0.00119
93.6 0.00418
93.65 0.00909
93.7 0.01254
93.75 0.01396
93.8 0.01131
93.85 0.00709
93.9 0.00137
93.95 -0.00357
94 -0.00473
94.05 -0.00267
94.1 -0.00098
94.15 0.00221
94.2 0.00562
94.25 0.0053
94.3 0.00639
94.35 0.00611
94.4 0.00607
94.45 0.00475
94.5 0.00584
94.55 0.00561
94.6 0.00617
94.65 0.00534
94.7 0.00533
94.75 0.00561
94.8 0.0044
94.85 0.00185
94.9 -0.00172
94.95 -0.00245
95 -0.00395
95.05 -0.00644
95.1 -0.00906
95.15 -0.00849
95.2 -0.00755
95.25 -0.00455
95.3 -0.00044
95.35 0.0042
95.4 0.00614
95.45 0.00646
95.5 0.00779
95.55 0.00866
95.6 0.00618
95.65 0.00203
95.7 -0.00053
95.75 -0.0024
95.8 -0.00581
95.85 -0.00826
95.9 -0.00777
95.95 -0.00881
96 -0.01053
96.05 -0.00857
96.1 -0.00775
96.15 -0.00795
96.2 -0.0077
96.25 -0.00896
96.3 -0.01003
96.35 -0.00807
96.4 -0.00368
96.45 -0.00024
96.5 0.00347
96.55 0.0062
96.6 0.00548
96.65 0.00565
96.7 0.00445
96.75 0.00128
96.8 -0.00221
96.85 -0.00597
96.9 -0.00846
96.95 -0.01064
97 -0.01083
97.05 -0.00957
97.1 -0.00562
97.15 -0.00099
97.2 0.00421
97.25 0.00733
97.3 0.01069
97.35 0.01213
97.4 0.01461
97.45 0.01339
97.5 0.01369
97.55 0.01451
97.6 0.01602
97.65 0.01594
97.7 0.01403
97.75 0.01221
97.8 0.01047
97.85 0.00672
97.9 0.0051
97.95 0.00485
98 0.00291
98.05 -0.00039
98.1 -0.00013
98.15 0.00193
98.2 0.00043
98.25 -0.00242
98.3 -0.00338
98.35 -0.00171
98.4 -0.00127
98.45 -0.00202
98.5 -0.00012
98.55 -0.00145
98.6 -0.00465
98.65 -0.005
98.7 -0.00698
98.75 -0.00798
98.8 -0.00878
98.85 -0.00786
98.9 -0.00865
98.95 -0.00811
99 -0.0091
99.05 -0.00803
99.1 -0.00559
99.15 -0.00256
99.2 0.00086
99.25 0.00089
99.3 0.00225
99.35 0.00085
99.4 0.00067
99.45 0.00192
99.5 0.00006
99.55 0.00052
99.6 -0.00111
99.65 -0.00021
99.7 -0.00223
99.75 -0.0025
99.8 -0.00291
99.85 -0.00229
99.9 -0.00378
99.95 -0.00236
