0 0
0.05 0.00393
0.1 0.0138
0.15 0.0269
0.2 0.03712
0.25 0.04214
0.3 0.04833
0.35 0.04886
0.4 0.04807
0.45 0.04358
0.5 0.03761
0.55 0.0307
0.6 0.02352
0.65 0.02416
0.7 0.02572
0.75 0.03046
0.8 0.03215
0.85 0.03577
0.9 0.03981
0.95 0.04336
1 0.04914
1.05 0.04961
1.1 0.04847
1.15 0.04899
1.2 0.05117
1.25 0.04866
1.3 0.04711
1.35 0.04482
1.4 0.03995
1.45 0.03722
1.5 0.03365
1.55 0.0288
1.6 0.02418
1.65 0.02476
1.7 0.02517
1.75 0.02624
1.8 0.03042
1.85 0.03031
1.9 0.02817
1.95 0.02491
2 0.01992
2.05 0.0154
2.1 0.01121
2.15 0.01146
2.2 0.01365
2.25 0.01327
2.3 0.01596
2.35 0.01874
2.4 0.02087
2.45 0.0249
2.5 0.0265
2.55 0.02672
2.6 0.02826
2.65 0.03192
2.7 0.03638
2.75 0.03817
2.8 0.04013
2.85 0.04208
2.9 0.03976
2.95 0.03485
3 0.0336
3.05 0.02863
3.1 0.02161
3.15 0.01702
3.2 0.01057
3.25 0.00823
3.3 0.00399
3.35 0.00199
3.4 0.0046
3.45 0.0083
3.5 0.00851
3.55 0.00547
3.6 0.00321
3.65 0.00063
3.7 -0.00072
3.75 0.00118
3.8 -0.00016
3.85 -0.00247
3.9 -0.0013
3.95 0.00013
4 -0.00136
4.05 0.00299
4.1 0.00641
4.15 0.0102
4.2 0.01662
4.25 0.02331
4.3 0.02991
4.35 0.03401
4.4 0.03338
4.45 0.03043
4.5 0.0286
4.55 0.02433
4.6 0.01805
4.65 0.01241
4.7 0.00788
4.75 0.00366
4.8 -0.0016
4.85 -0.00943
4.9 -0.01114
4.95 -0.01345
5 -0.01705
5.05 -0.02067
5.1 -0.02092
5.15 -0.02217
5.2 -0.02172
5.25 -0.02401
5.3 -0.02829
5.35 -0.0307
5.4 -0.03624
5.45 -0.03993
5.5 -0.04874
5.55 -0.06053
5.6 -0.06754
5.65 -0.07487
5.7 -0.07759
5.75 -0.08028
5.8 -0.08167
5.85 -0.08141
5.9 -0.07766
5.95 -0.0713
6 -0.06147
6.05 -0.05002
6.1 -0.03514
6.15 -0.01649
6.2 0.00139
6.25 0.01775
6.3 0.03048
6.35 0.04351
6.4 0.05687
6.45 0.0715
6.5 0.07872
6.55 0.08581
6.6 0.09401
6.65 0.09687
6.7 0.09704
6.75 0.09612
6.8 0.0903
6.85 0.08698
6.9 0.08034
6.95 0.07431
7 0.06791
7.05 0.06239
7.1 0.05721
7.15 0.0552
7.2 0.05394
7.25 0.05048
7.3 0.04851
7.35 0.04705
7.4 0.04688
7.45 0.04939
7.5 0.05209
7.55 0.05004
7.6 0.04496
7.65 0.0424
7.7 0.03703
7.75 0.03099
7.8 0.02612
7.85 0.02483
7.9 0.02098
7.95 0.01857
8 0.0165
8.05 0.01682
8.1 0.01472
8.15 0.01205
8.2 0.01555
8.25 0.01925
8.3 0.02475
8.35 0.02701
8.4 0.02717
8.45 0.02545
8.5 0.02643
8.55 0.02978
8.6 0.03096
8.65 0.02729
8.7 0.02179
8.75 0.0215
8.8 0.02274
8.85 0.01944
8.9 0.01524
8.95 0.01313
9 0.01313
9.05 0.01081
9.1 0.00606
9.15 0.00302
9.2 -0.00224
9.25 -0.00257
9.3 0.0013
9.35 0.00139
9.4 0.00339
9.45 0.0076
9.5 0.01021
9.55 0.00699
9.6 0.00304
9.65 0.0026
9.7 0.00459
9.75 0.00561
9.8 0.00211
9.85 -0.00149
9.9 -0.00485
9.95 -0.01061
10 -0.01662
10.05 -0.01722
10.1 -0.02122
10.15 -0.02433
10.2 -0.02788
10.25 -0.02841
10.3 -0.02499
10.35 -0.0211
10.4 -0.01815
10.45 -0.0187
10.5 -0.01701
10.55 -0.01354
10.6 -0.01445
10.65 -0.01488
10.7 -0.01764
10.75 -0.01892
10.8 -0.01934
10.85 -0.0195
10.9 -0.02182
10.95 -0.02029
11 -0.01617
11.05 -0.01245
11.1 -0.01176
11.15 -0.00735
11.2 0.00001
11.25 0.0037
11.3 0.00782
11.35 0.00755
11.4 0.00807
11.45 0.01113
11.5 0.0145
11.55 0.01318
11.6 0.01464
11.65 0.01103
11.7 0.0051
11.75 -0.00102
11.8 -0.00792
11.85 -0.01487
11.9 -0.01404
11.95 -0.01416
12 -0.01159
12.05 -0.01088
12.1 -0.00907
12.15 -0.00848
12.2 -0.00374
12.25 -0.00214
12.3 -0.00449
12.35 -0.00697
12.4 -0.00605
12.45 -0.00331
12.5 0.00164
12.55 0.00541
12.6 0.01145
12.65 0.01767
12.7 0.02162
12.75 0.02028
12.8 0.02078
12.85 0.02105
12.9 0.02265
12.95 0.02416
13 0.02182
13.05 0.01679
13.1 0.00957
13.15 0.00761
13.2 0.00927
13.25 0.00687
13.3 0.0029
13.35 -0.00124
13.4 -0.00735
13.45 -0.01157
13.5 -0.01683
13.55 -0.01802
13.6 -0.01986
13.65 -0.01973
13.7 -0.01605
13.75 -0.01329
13.8 -0.00995
13.85 -0.00683
13.9 -0.00133
13.95 -0.00168
14 0.00177
14.05 0.00661
14.1 0.01117
14.15 0.0157
14.2 0.01977
14.25 0.02154
14.3 0.01792
14.35 0.01457
14.4 0.01143
14.45 0.00998
14.5 0.01153
14.55 0.01238
14.6 0.00868
14.65 0.00501
14.7 0.00277
14.75 0.00255
14.8 0.00438
14.85 0.00274
14.9 -0.00004
14.95 0.00003
15 0.00356
15.05 0.00598
15.1 0.00915
15.15 0.00798
15.2 0.0101
15.25 0.00927
15.3 0.00901
15.35 0.00876
15.4 0.01071
15.45 0.0078
15.5 0.00612
15.55 0.0038
15.6 0.00053
15.65 -0.00193
15.7 0.0001
15.75 0.00342
15.8 0.00245
15.85 0.00266
15.9 0.00176
15.95 -0.00292
16 -0.00867
16.05 -0.00869
16.1 -0.0085
16.15 -0.00714
16.2 -0.00722
16.25 -0.00522
16.3 -0.00062
16.35 0.00161
16.4 0.00488
16.45 0.00289
16.5 0.00312
16.55 0.00395
16.6 0.00098
16.65 0.00161
16.7 0.00404
16.75 0.00696
16.8 0.01141
16.85 0.01352
16.9 0.01612
16.95 0.01556
17 0.01628
17.05 0.01261
17.1 0.00521
17.15 0.00107
17.2 -0.003
17.25 -0.00585
17.3 -0.00689
17.35 -0.00619
17.4 -0.00904
17.45 -0.00776
17.5 -0.00876
17.55 -0.01195
17.6 -0.01742
17.65 -0.0215
17.7 -0.02555
17.75 -0.02422
17.8 -0.02063
17.85 -0.01768
17.9 -0.01125
17.95 -0.00907
18 -0.00875
18.05 -0.0081
18.1 -0.00996
18.15 -0.01433
18.2 -0.01876
18.25 -0.02305
18.3 -0.0247
18.35 -0.02339
18.4 -0.02447
18.45 -0.01928
18.5 -0.01461
18.55 -0.01356
18.6 -0.00988
18.65 -0.00312
18.7 0.00417
18.75 0.00525
18.8 0.00361
18.85 0.00222
18.9 -0.00238
18.95 -0.0036
19 -0.0042
19.05 -0.00039
19.1 0.00145
19.15 0.00649
19.2 0.013
19.25 0.01465
19.3 0.01595
19.35 0.01846
19.4 0.02125
19.45 0.02052
19.5 0.01759
19.55 0.01702
19.6 0.01283
19.65 0.00722
19.7 0.00251
19.75 0.00025
19.8 -0.00211
19.85 -0.00686
19.9 -0.01031
19.95 -0.00777
20 -0.0063
20.05 -0.00605
20.1 -0.00757
20.15 -0.01218
20.2 -0.01135
20.25 -0.00671
20.3 -0.00413
20.35 -0.00628
20.4 -0.01012
20.45 -0.00821
20.5 -0.00425
20.55 0.00208
20.6 0.0095
20.65 0.01382
20.7 0.01528
20.75 0.0129
20.8 0.01067
20.85 0.00548
20.9 0.00129
20.95 -0.00144
21 -0.00365
21.05 -0.00747
21.1 -0.00909
21.15 -0.00986
21.2 -0.00914
21.25 -0.01166
21.3 -0.00861
21.35 -0.00776
21.4 -0.00843
21.45 -0.00979
21.5 -0.01197
21.55 -0.00949
21.6 -0.00348
21.65 -0.0004
21.7 0.00068
21.75 -0.00181
21.8 -0.00402
21.85 -0.00407
21.9 -0.00019
21.95 -0.00019
22 -0.00115
22.05 -0.00389
22.1 -0.00228
22.15 -0.00418
22.2 -0.00653
22.25 -0.00634
22.3 -0.00581
22.35 -0.00703
22.4 -0.00369
22.45 -0.00428
22.5 -0.0071
22.55 -0.01071
22.6 -0.00848
22.65 -0.00418
22.7 -0.00269
22.75 -0.00232
22.8 -0.00254
22.85 0.00067
22.9 -0.00127
22.95 -0.00327
23 -0.00404
23.05 -0.00223
23.1 -0.00074
23.15 0.00416
23.2 0.01041
23.25 0.01368
23.3 0.01051
23.35 0.00421
23.4 0.00116
23.45 -0.00215
23.5 -0.00351
23.55 -0.00757
23.6 -0.01261
23.65 -0.0175
23.7 -0.01875
23.75 -0.01582
23.8 -0.01147
23.85 -0.00518
23.9 0.00264
23.95 0.00395
24 0.00268
24.05 0.0019
24.1 0.00269
24.15 0.0056
24.2 0.00843
24.25 0.00784
24.3 0.00705
24.35 0.00266
24.4 -0.00327
24.45 -0.00741
24.5 -0.00794
24.55 -0.00642
24.6 -0.00264
24.65 -0.00037
24.7 0.00115
24.75 -0.00078
24.8 -0.00542
24.85 -0.00711
24.9 -0.00682
24.95 -0.00988
25 -0.01262
25.05 -0.01725
25.1 -0.01603
25.15 -0.01144
25.2 -0.01125
25.25 -0.00932
25.3 -0.00924
25.35 -0.00811
25.4 -0.00767
25.45 -0.00573
25.5 -0.00734
25.55 -0.00939
25.6 -0.01029
25.65 -0.00928
25.7 -0.00896
25.75 -0.00887
25.8 -0.00502
25.85 -0.00096
25.9 0.00517
25.95 0.01152
26 0.01702
26.05 0.01693
26.1 0.01762
26.15 0.0136
26.2 0.00958
26.25 0.00739
26.3 0.00279
26.35 -0.00128
26.4 -0.00119
26.45 -0.00253
26.5 0.00051
26.55 -0.0013
26.6 -0.00555
26.65 -0.00697
26.7 -0.00822
26.75 -0.00596
26.8 -0.00438
26.85 -0.00384
26.9 -0.00363
26.95 0.00032
27 0.00578
27.05 0.00556
27.1 0.00616
27.15 0.007
27.2 0.00901
27.25 0.01097
27.3 0.01052
27.35 0.01271
27.4 0.01538
27.45 0.01332
27.5 0.0092
27.55 0.00829
27.6 0.00815
27.65 0.00455
27.7 -0.0033
27.75 -0.00962
27.8 -0.01267
27.85 -0.0144
27.9 -0.01889
27.95 -0.02644
28 -0.0319
28.05 -0.04081
28.1 -0.05246
28.15 -0.06165
28.2 -0.06892
28.25 -0.07806
28.3 -0.09425
28.35 -0.11228
28.4 -0.13176
28.45 -0.15315
28.5 -0.17939
28.55 -0.21197
28.6 -0.25115
28.65 -0.29029
28.7 -0.33441
28.75 -0.38596
28.8 -0.44305
28.85 -0.4994
28.9 -0.56022
28.95 -0.62545
29 -0.69791
29.05 -0.77855
29.1 -0.86443
29.15 -0.9534
29.2 -1.04681
29.25 -1.14301
29.3 -1.24218
29.35 -1.34576
29.4 -1.45574
29.45 -1.56254
29.5 -1.66577
29.55 -1.76979
29.6 -1.87305
29.65 -1.96993
29.7 -2.05631
29.75 -2.13275
29.8 -2.20301
29.85 -2.2612
29.9 -2.30657
29.95 -2.34442
30 -2.37334
30.05 -2.38361
30.1 -2.38189
30.15 -2.36672
30.2 -2.33654
30.25 -2.29145
30.3 -2.2335
30.35 -2.16163
30.4 -2.07157
30.45 -1.96453
30.5 -1.84808
30.55 -1.71832
30.6 -1.58172
30.65 -1.43866
30.7 -1.28483
30.75 -1.13027
30.8 -0.96914
30.85 -0.80639
30.9 -0.6413
30.95 -0.47245
31 -0.3055
31.05 -0.13983
31.1 0.0237
31.15 0.18312
31.2 0.33673
31.25 0.47936
31.3 0.61315
31.35 0.74478
31.4 0.86683
31.45 0.98291
31.5 1.09622
31.55 1.20299
31.6 1.30447
31.65 1.39471
31.7 1.47832
31.75 1.55331
31.8 1.61627
31.85 1.67389
31.9 1.72272
31.95 1.76646
32 1.80786
32.05 1.84224
32.1 1.87034
32.15 1.89417
32.2 1.91051
32.25 1.9239
32.3 1.93585
32.35 1.94111
32.4 1.94023
32.45 1.93696
32.5 1.93193
32.55 1.9256
32.6 1.9236
32.65 1.92012
32.7 1.91721
32.75 1.91318
32.8 1.90626
32.85 1.89473
32.9 1.88288
32.95 1.8682
33 1.85207
33.05 1.83062
33.1 1.80753
33.15 1.77949
33.2 1.75034
33.25 1.71792
33.3 1.68567
33.35 1.65155
33.4 1.61999
33.45 1.5897
33.5 1.55464
33.55 1.52068
33.6 1.48689
33.65 1.44877
33.7 1.40648
33.75 1.36615
33.8 1.32489
33.85 1.28494
33.9 1.23925
33.95 1.19
34 1.13804
34.05 1.08978
34.1 1.03937
34.15 0.98927
34.2 0.94248
34.25 0.9011
34.3 0.85975
34.35 0.81692
34.4 0.77192
34.45 0.7312
34.5 0.68633
34.55 0.64367
34.6 0.6055
34.65 0.56606
34.7 0.52275
34.75 0.48162
34.8 0.4435
34.85 0.40353
34.9 0.36909
34.95 0.33361
35 0.30139
35.05 0.26612
35.1 0.22922
35.15 0.19401
35.2 0.1588
35.25 0.12684
35.3 0.09992
35.35 0.07762
35.4 0.05477
35.45 0.03059
35.5 0.00569
35.55 -0.01631
35.6 -0.04089
35.65 -0.06638
35.7 -0.08848
35.75 -0.10953
35.8 -0.12499
35.85 -0.1364
35.9 -0.15223
35.95 -0.17083
36 -0.18352
36.05 -0.19418
36.1 -0.20765
36.15 -0.22326
36.2 -0.23673
36.25 -0.24738
36.3 -0.2538
36.35 -0.25845
36.4 -0.26392
36.45 -0.26808
36.5 -0.27425
36.55 -0.28088
36.6 -0.28921
36.65 -0.29905
36.7 -0.30489
36.75 -0.3072
36.8 -0.31103
36.85 -0.31573
36.9 -0.3186
36.95 -0.31725
37 -0.31762
37.05 -0.31505
37.1 -0.31273
37.15 -0.30864
37.2 -0.305
37.25 -0.30074
37.3 -0.29931
37.35 -0.30218
37.4 -0.30375
37.45 -0.30929
37.5 -0.31416
37.55 -0.31744
37.6 -0.31936
37.65 -0.32161
37.7 -0.32091
37.75 -0.31721
37.8 -0.31126
37.85 -0.3057
37.9 -0.2976
37.95 -0.29146
38 -0.29092
38.05 -0.29432
38.1 -0.29359
38.15 -0.28952
38.2 -0.28467
38.25 -0.28275
38.3 -0.28427
38.35 -0.28304
38.4 -0.27991
38.45 -0.27454
38.5 -0.26893
38.55 -0.26759
38.6 -0.26631
38.65 -0.26143
38.7 -0.25632
38.75 -0.25504
38.8 -0.25624
38.85 -0.2516
38.9 -0.24916
38.95 -0.24641
39 -0.24228
39.05 -0.24126
39.1 -0.23743
39.15 -0.23683
39.2 -0.23525
39.25 -0.23513
39.3 -0.23154
39.35 -0.22502
39.4 -0.21677
39.45 -0.20863
39.5 -0.20345
39.55 -0.19476
39.6 -0.18834
39.65 -0.18294
39.7 -0.17677
39.75 -0.17381
39.8 -0.1694
39.85 -0.16334
39.9 -0.15833
39.95 -0.1541
40 -0.15276
40.05 -0.15348
40.1 -0.15121
40.15 -0.14697
40.2 -0.14588
40.25 -0.14264
40.3 -0.14412
40.35 -0.14159
40.4 -0.14013
40.45 -0.13756
40.5 -0.13777
40.55 -0.13655
40.6 -0.1387
40.65 -0.14138
40.7 -0.14003
40.75 -0.13603
40.8 -0.13687
40.85 -0.13919
40.9 -0.14264
40.95 -0.14627
41 -0.15028
41.05 -0.15085
41.1 -0.14744
41.15 -0.14124
41.2 -0.13763
41.25 -0.1313
41.3 -0.12793
41.35 -0.1201
41.4 -0.11094
41.45 -0.10221
41.5 -0.09532
41.55 -0.08966
41.6 -0.08307
41.65 -0.07733
41.7 -0.07321
41.75 -0.0689
41.8 -0.06923
41.85 -0.07457
41.9 -0.08093
41.95 -0.08453
42 -0.0868
42.05 -0.0856
42.1 -0.08586
42.15 -0.08741
42.2 -0.0902
42.25 -0.08846
42.3 -0.08617
42.35 -0.08312
42.4 -0.07863
42.45 -0.07486
42.5 -0.0732
42.55 -0.07459
42.6 -0.07168
42.65 -0.07051
42.7 -0.06746
42.75 -0.06853
42.8 -0.06999
42.85 -0.06865
42.9 -0.06643
42.95 -0.06574
43 -0.0678
43.05 -0.06725
43.1 -0.06744
43.15 -0.07051
43.2 -0.07426
43.25 -0.07187
43.3 -0.06924
43.35 -0.06267
43.4 -0.05489
43.45 -0.04725
43.5 -0.04408
43.55 -0.04699
43.6 -0.05057
43.65 -0.05371
43.7 -0.05818
43.75 -0.06029
43.8 -0.05746
43.85 -0.0516
43.9 -0.04531
43.95 -0.0389
44 -0.03381
44.05 -0.03088
44.1 -0.03038
44.15 -0.03442
44.2 -0.03924
44.25 -0.04178
44.3 -0.04462
44.35 -0.04918
44.4 -0.05352
44.45 -0.05215
44.5 -0.05204
44.55 -0.04849
44.6 -0.04469
44.65 -0.0458
44.7 -0.04923
44.75 -0.04817
44.8 -0.0454
44.85 -0.047
44.9 -0.04518
44.95 -0.04004
45 -0.04019
45.05 -0.03977
45.1 -0.04103
45.15 -0.04051
45.2 -0.03943
45.25 -0.03534
45.3 -0.03002
45.35 -0.02685
45.4 -0.02507
45.45 -0.02099
45.5 -0.02011
45.55 -0.02128
45.6 -0.02646
45.65 -0.0313
45.7 -0.0311
45.75 -0.03217
45.8 -0.0334
45.85 -0.0311
45.9 -0.03169
45.95 -0.02915
46 -0.02774
46.05 -0.0227
46.1 -0.02191
46.15 -0.02363
46.2 -0.0226
46.25 -0.02434
46.3 -0.02782
46.35 -0.02602
46.4 -0.0267
46.45 -0.02291
46.5 -0.01895
46.55 -0.01755
46.6 -0.01457
46.65 -0.01382
46.7 -0.01234
46.75 -0.01122
46.8 -0.01122
46.85 -0.01562
46.9 -0.01606
46.95 -0.01537
47 -0.01374
47.05 -0.0125
47.1 -0.01233
47.15 -0.01384
47.2 -0.01605
47.25 -0.01639
47.3 -0.01535
47.35 -0.01785
47.4 -0.01945
47.45 -0.02293
47.5 -0.02554
47.55 -0.02624
47.6 -0.02405
47.65 -0.01948
47.7 -0.01677
47.75 -0.01346
47.8 -0.00825
47.85 -0.00378
47.9 -0.00445
47.95 -0.00999
48 -0.01492
48.05 -0.01454
48.1 -0.01047
48.15 -0.00895
48.2 -0.00794
48.25 -0.01113
48.3 -0.01743
48.35 -0.02141
48.4 -0.02095
48.45 -0.01988
48.5 -0.01473
48.55 -0.01326
48.6 -0.00999
48.65 -0.00782
48.7 -0.00306
48.75 0.00032
48.8 0.00356
48.85 0.00282
48.9 -0.00292
48.95 -0.00585
49 -0.00839
49.05 -0.01371
49.1 -0.01604
49.15 -0.02083
49.2 -0.02322
49.25 -0.02368
49.3 -0.0271
49.35 -0.03159
49.4 -0.03001
49.45 -0.03153
49.5 -0.02934
49.55 -0.0228
49.6 -0.01901
49.65 -0.01272
49.7 -0.00791
49.75 -0.00512
49.8 -0.0004
49.85 0.00193
49.9 0.00527
49.95 0.00414
50 0.00521
50.05 0.00237
50.1 0.00153
50.15 -0.0034
50.2 -0.0082
50.25 -0.00756
50.3 -0.00363
50.35 0.00038
50.4 0.00107
50.45 -0.00077
50.5 -0.0027
50.55 -0.00176
50.6 0.00157
50.65 -0.00068
50.7 -0.00266
50.75 -0.00392
50.8 -0.00523
50.85 -0.00855
50.9 -0.01215
50.95 -0.01269
51 -0.01619
51.05 -0.01454
51.1 -0.0125
51.15 -0.00777
51.2 -0.00235
51.25 0.00209
51.3 0.00735
51.35 0.00846
51.4 0.00802
51.45 0.00877
51.5 0.00591
51.55 0.0037
51.6 0.00309
51.65 0.00533
51.7 0.00473
51.75 0.00214
51.8 -0.00428
51.85 -0.00854
51.9 -0.00869
51.95 -0.01251
52 -0.01118
52.05 -0.01022
52.1 -0.01335
52.15 -0.01443
52.2 -0.0126
52.25 -0.01405
52.3 -0.01465
52.35 -0.01688
52.4 -0.01401
52.45 -0.01497
52.5 -0.01156
52.55 -0.00567
52.6 -0.00291
52.65 -0.00349
52.7 -0.00219
52.75 0.00113
52.8 0.00581
52.85 0.00669
52.9 0.00538
52.95 0.00123
53 -0.0008
53.05 -0.00508
53.1 -0.01038
53.15 -0.01049
53.2 -0.00935
53.25 -0.00495
53.3 -0.00345
53.35 -0.00454
53.4 -0.00445
53.45 -0.0031
53.5 -0.00367
53.55 -0.00647
53.6 -0.01124
53.65 -0.0147
53.7 -0.01251
53.75 -0.01
53.8 -0.00981
53.85 -0.01133
53.9 -0.01135
53.95 -0.00821
54 -0.00393
54.05 -0.00262
54.1 -0.00466
54.15 -0.01002
54.2 -0.01327
54.25 -0.01262
54.3 -0.00945
54.35 -0.0043
54.4 -0.00396
54.45 -0.00284
54.5 -0.00512
54.55 -0.00651
54.6 -0.00758
54.65 -0.01067
54.7 -0.0085
54.75 -0.00758
54.8 -0.00388
54.85 -0.00096
54.9 0.00134
54.95 0.00031
55 -0.0015
55.05 -0.00632
55.1 -0.01182
55.15 -0.01129
55.2 -0.01073
55.25 -0.00991
55.3 -0.01056
55.35 -0.01374
55.4 -0.01657
55.45 -0.01956
55.5 -0.01796
55.55 -0.0118
55.6 -0.00945
55.65 -0.00458
55.7 -0.00068
55.75 -0.00007
55.8 0.00293
55.85 0.0079
55.9 0.01355
55.95 0.01216
56 0.01331
56.05 0.01232
56.1 0.01267
56.15 0.0128
56.2 0.0144
56.25 0.01631
56.3 0.01191
56.35 0.00556
56.4 -0.003
56.45 -0.00783
56.5 -0.01164
56.55 -0.01096
56.6 -0.0079
56.65 -0.00733
56.7 -0.00818
56.75 -0.00791
56.8 -0.01114
56.85 -0.01324
56.9 -0.01475
56.95 -0.01132
57 -0.0096
57.05 -0.00739
57.1 -0.00606
57.15 -0.00828
57.2 -0.00788
57.25 -0.00564
57.3 0.0001
57.35 0.00345
57.4 0.00222
57.45 0.00211
57.5 0.00171
57.55 0.00133
57.6 0.00438
57.65 0.00426
57.7 0.00541
57.75 0.00717
57.8 0.00777
57.85 0.00673
57.9 0.00402
57.95 0.00459
58 0.00467
58.05 0.00174
58.1 -0.00177
58.15 -0.00368
58.2 -0.00134
58.25 0.00232
58.3 0.00188
58.35 0.00256
58.4 -0.00142
58.45 -0.00256
58.5 -0.00241
58.55 0.00002
58.6 0.00202
58.65 0.0066
58.7 0.00554
58.75 0.00023
58.8 -0.00271
58.85 -0.00713
58.9 -0.01061
58.95 -0.0127
59 -0.01262
59.05 -0.01169
59.1 -0.01118
59.15 -0.00728
59.2 -0.00562
59.25 -0.00618
59.3 -0.00506
59.35 -0.00612
59.4 -0.00849
59.45 -0.00825
59.5 -0.00753
59.55 -0.00752
59.6 -0.01042
59.65 -0.00845
59.7 -0.00456
59.75 -0.00187
59.8 -0.00254
59.85 -0.00584
59.9 -0.00448
59.95 -0.00563
60 -0.00217
60.05 0.0005
60.1 0.00274
60.15 0.00758
60.2 0.00979
60.25 0.01141
60.3 0.01029
60.35 0.01061
60.4 0.01348
60.45 0.01039
60.5 0.00834
60.55 0.00953
60.6 0.00958
60.65 0.01201
60.7 0.01475
60.75 0.013
60.8 0.01162
60.85 0.0094
60.9 0.00382
60.95 0.00073
61 -0.00335
61.05 -0.00744
61.1 -0.01068
61.15 -0.00878
61.2 -0.00532
61.25 0.00039
61.3 0.007
61.35 0.01029
61.4 0.00842
61.45 0.00614
61.5 0.00151
61.55 -0.00364
61.6 -0.00579
61.65 -0.0105
61.7 -0.01412
61.75 -0.01169
61.8 -0.01287
61.85 -0.01484
61.9 -0.01839
61.95 -0.02063
62 -0.01875
62.05 -0.01371
62.1 -0.00815
62.15 -0.00167
62.2 0.00394
62.25 0.01095
62.3 0.01255
62.35 0.01568
62.4 0.01244
62.45 0.00543
62.5 0.00113
62.55 -0.00292
62.6 -0.00733
62.65 -0.01309
62.7 -0.01173
62.75 -0.01369
62.8 -0.00975
62.85 -0.00517
62.9 0.00203
62.95 0.00257
63 0.0008
63.05 -0.00232
63.1 -0.00201
63.15 0.00208
63.2 0.00811
63.25 0.01142
63.3 0.00849
63.35 0.00792
63.4 0.00548
63.45 0.00593
63.5 0.00938
63.55 0.00821
63.6 0.00763
63.65 0.00584
63.7 0.00754
63.75 0.00736
63.8 0.00282
63.85 0.003
63.9 -0.00071
63.95 -0.00393
64 -0.00792
64.05 -0.0071
64.1 -0.00579
64.15 -0.00117
64.2 -0.00101
64.25 0.0028
64.3 0.00586
64.35 0.01025
64.4 0.01143
64.45 0.01367
64.5 0.00993
64.55 0.00478
64.6 0.00338
64.65 -0.00058
64.7 -0.00227
64.75 -0.0025
64.8 -0.00444
64.85 -0.00894
64.9 -0.01067
64.95 -0.01497
65 -0.01391
65.05 -0.01557
65.1 -0.018
65.15 -0.01738
65.2 -0.01712
65.25 -0.01638
65.3 -0.01142
65.35 -0.00845
65.4 -0.00508
65.45 -0.00085
65.5 0.00318
65.55 0.00676
65.6 0.00562
65.65 0.00824
65.7 0.01297
65.75 0.01565
65.8 0.01678
65.85 0.01435
65.9 0.00856
65.95 0.00811
66 0.0036
66.05 0.00376
66.1 0.00099
66.15 -0.00268
66.2 -0.00259
66.25 -0.00342
66.3 -0.00351
66.35 -0.00626
66.4 -0.00452
66.45 -0.00274
66.5 0.00191
66.55 0.00651
66.6 0.00929
66.65 0.00634
66.7 0.00329
66.75 -0.00073
66.8 -0.00274
66.85 -0.00133
66.9 0.00357
66.95 0.00266
67 0.00428
67.05 0.00738
67.1 0.00794
67.15 0.01028
67.2 0.00711
67.25 0.00077
67.3 -0.0074
67.35 -0.01007
67.4 -0.01271
67.45 -0.01049
67.5 -0.00772
67.55 -0.00241
67.6 0.00162
67.65 0.00136
67.7 -0.001
67.75 -0.00221
67.8 -0.00349
67.85 -0.00037
67.9 0.0003
67.95 0.00342
68 0.00604
68.05 0.00803
68.1 0.00619
68.15 0.0084
68.2 0.00652
68.25 0.00539
68.3 0.00076
68.35 -0.00138
68.4 0.0004
68.45 0.00379
68.5 0.00765
68.55 0.0067
68.6 0.00741
68.65 0.00603
68.7 0.0071
68.75 0.00897
68.8 0.01298
68.85 0.01135
68.9 0.00512
68.95 -0.0017
69 -0.00266
69.05 -0.00497
69.1 -0.01013
69.15 -0.01293
69.2 -0.01606
69.25 -0.0161
69.3 -0.01625
69.35 -0.01352
69.4 -0.0093
69.45 -0.00468
69.5 0.00001
69.55 0.00005
69.6 -0.00352
69.65 -0.00844
69.7 -0.01125
69.75 -0.01551
69.8 -0.01777
69.85 -0.01573
69.9 -0.01127
69.95 -0.00614
70 -0.00429
70.05 -0.0049
70.1 -0.00717
70.15 -0.00451
70.2 -0.00476
70.25 -0.00454
70.3 -0.00308
70.35 -0.00357
70.4 -0.0057
70.45 -0.00553
70.5 -0.00449
70.55 -0.00658
70.6 -0.01095
70.65 -0.01077
70.7 -0.00791
70.75 -0.00824
70.8 -0.00764
70.85 -0.00919
70.9 -0.00546
70.95 -0.00133
71 -0.002
71.05 0.00076
71.1 0.00514
71.15 0.01109
71.2 0.01505
71.25 0.01933
71.3 0.01856
71.35 0.01944
71.4 0.0184
71.45 0.01855
71.5 0.01963
71.55 0.02081
71.6 0.018
71.65 0.01619
71.7 0.01309
71.75 0.01116
71.8 0.00653
71.85 0.00575
71.9 0.00367
71.95 0.00069
72 -0.00186
72.05 -0.0038
72.1 -0.00872
72.15 -0.01036
72.2 -0.01078
72.25 -0.00824
72.3 -0.00731
72.35 -0.00506
72.4 -0.00198
72.45 0.00042
72.5 0.00005
72.55 0.00143
72.6 0.00415
72.65 0.0073
72.7 0.01141
72.75 0.01535
72.8 0.01265
72.85 0.00676
72.9 0.00591
72.95 0.00217
73 -0.00159
73.05 -0.00139
73.1 0.00018
73.15 -0.00131
73.2 -0.00327
73.25 -0.00383
73.3 -0.00399
73.35 -0.0015
73.4 0.00137
73.45 0.00305
73.5 0.00259
73.55 0.00412
73.6 0.00447
73.65 0.00625
73.7 0.00486
73.75 0.00171
73.8 0.00133
73.85 0.00031
73.9 0.00123
73.95 0.00195
74 0.00375
74.05 0.00672
74.1 0.00845
74.15 0.0062
74.2 0.00727
74.25 0.00945
74.3 0.00679
74.35 0.00747
74.4 0.00448
74.45 -0.00048
74.5 -0.00109
74.55 0.00203
74.6 0.00447
74.65 0.00601
74.7 0.0086
74.75 0.00757
74.8 0.00529
74.85 0.00389
74.9 0.00318
74.95 0.00608
75 0.00591
75.05 0.00164
75.1 -0.002
75.15 -0.00314
75.2 -0.00024
75.25 0.00092
75.3 0.00157
75.35 0.00195
75.4 0.00427
75.45 0.00843
75.5 0.0104
75.55 0.0136
75.6 0.01458
75.65 0.01303
75.7 0.00664
75.75 -0.00101
75.8 -0.0084
75.85 -0.01247
75.9 -0.01093
75.95 -0.00769
76 -0.00918
76.05 -0.00992
76.1 -0.00679
76.15 -0.0007
76.2 0.00619
76.25 0.00911
76.3 0.00713
76.35 0.00459
76.4 0.00194
76.45 -0.00055
76.5 -0.0033
76.55 -0.00566
76.6 -0.00974
76.65 -0.01595
76.7 -0.01919
76.75 -0.01609
76.8 -0.01123
76.85 -0.00878
76.9 -0.00562
76.95 -0.00529
77 -0.00696
77.05 -0.00456
77.1 -0.00213
77.15 0.0029
77.2 0.00531
77.25 0.00875
77.3 0.01154
77.35 0.01147
77.4 0.01331
77.45 0.01284
77.5 0.00941
77.55 0.00477
77.6 0.00408
77.65 0.00032
77.7 -0.00313
77.75 -0.00592
77.8 -0.00597
77.85 -0.00452
77.9 -0.00656
77.95 -0.00483
78 -0.00053
78.05 0.00432
78.1 0.00822
78.15 0.01049
78.2 0.01086
78.25 0.00655
78.3 0.00497
78.35 0.00114
78.4 0.00132
78.45 -0.00063
78.5 -0.00265
78.55 -0.00173
78.6 -0.0026
78.65 -0.00267
78.7 -0.00699
78.75 -0.01074
78.8 -0.01085
78.85 -0.00926
78.9 -0.00513
78.95 -0.00021
79 0.00245
79.05 0.00184
79.1 -0.00097
79.15 -0.00052
79.2 0.00182
79.25 0.00058
79.3 -0.00267
79.35 -0.0057
79.4 -0.01125
79.45 -0.01822
79.5 -0.02319
79.55 -0.02079
79.6 -0.017
79.65 -0.01512
79.7 -0.01486
79.75 -0.01743
79.8 -0.02132
79.85 -0.02193
79.9 -0.01721
79.95 -0.01119
80 -0.0046
80.05 0.0025
80.1 0.00698
80.15 0.00589
80.2 0.0066
80.25 0.00984
80.3 0.01388
80.35 0.0154
80.4 0.01495
80.45 0.01505
80.5 0.012
80.55 0.00921
80.6 0.00617
80.65 0.00204
80.7 -0.00281
80.75 -0.00335
80.8 -0.00392
80.85 -0.00544
80.9 -0.00232
80.95 0.00079
81 0.00494
81.05 0.0061
81.1 0.00776
81.15 0.01013
81.2 0.0118
81.25 0.00914
81.3 0.00252
81.35 -0.00172
81.4 -0.0032
81.45 -0.00191
81.5 0.00175
81.55 0.00361
81.6 0.00254
81.65 0.00296
81.7 -0.00004
81.75 -0.00371
81.8 -0.00916
81.85 -0.00877
81.9 -0.01112
81.95 -0.01417
82 -0.01773
82.05 -0.02162
82.1 -0.02333
82.15 -0.02366
82.2 -0.02067
82.25 -0.01873
82.3 -0.01363
82.35 -0.00845
82.4 -0.00769
82.45 -0.00719
82.5 -0.00593
82.55 -0.00245
82.6 -0.00399
82.65 -0.0082
82.7 -0.0105
82.75 -0.00888
82.8 -0.01086
82.85 -0.00723
82.9 -0.00507
82.95 -0.00245
83 0.00023
83.05 -0.00176
83.1 -0.00608
83.15 -0.01013
83.2 -0.00926
83.25 -0.01134
83.3 -0.01198
83.35 -0.01257
83.4 -0.01373
83.45 -0.01502
83.5 -0.01313
83.55 -0.01168
83.6 -0.0085
83.65 -0.00556
83.7 -0.00034
83.75 0.00065
83.8 -0.00131
83.85 -0.0037
83.9 -0.00675
83.95 -0.01036
84 -0.00963
84.05 -0.0107
84.1 -0.01341
84.15 -0.01377
84.2 -0.01204
84.25 -0.00768
84.3 -0.00553
84.35 -0.00258
84.4 0.00154
84.45 0.00239
84.5 0.00687
84.55 0.01268
84.6 0.01155
84.65 0.01295
84.7 0.01119
84.75 0.01324
84.8 0.01481
84.85 0.01636
84.9 0.01877
84.95 0.02171
85 0.02062
85.05 0.01747
85.1 0.01491
85.15 0.00998
85.2 0.00991
85.25 0.00896
85.3 0.00345
85.35 -0.00035
85.4 -0.00384
85.45 -0.00982
85.5 -0.01526
85.55 -0.0155
85.6 -0.01344
85.65 -0.01501
85.7 -0.01844
85.75 -0.02107
85.8 -0.02475
85.85 -0.02714
85.9 -0.02473
85.95 -0.01904
86 -0.01025
86.05 -0.00766
86.1 -0.00683
86.15 -0.00668
86.2 -0.00466
86.25 -0.00026
86.3 0.00655
86.35 0.01363
86.4 0.01656
86.45 0.01618
86.5 0.01626
86.55 0.01478
86.6 0.01214
86.65 0.00912
86.7 0.01038
86.75 0.01232
86.8 0.01219
86.85 0.01267
86.9 0.0114
86.95 0.01263
87 0.01078
87.05 0.00461
87.1 0.00203
87.15 -0.00241
87.2 -0.00895
87.25 -0.01596
87.3 -0.02092
87.35 -0.01859
87.4 -0.01268
87.45 -0.01072
87.5 -0.00542
87.55 -0.0021
87.6 0.00203
87.65 0.00804
87.7 0.00795
87.75 0.00445
87.8 0.00381
87.85 0.00546
87.9 0.00726
87.95 0.01093
88 0.01116
88.05 0.01229
88.1 0.01096
88.15 0.00673
88.2 0.00098
88.25 -0.0006
88.3 -0.00174
88.35 -0.00615
88.4 -0.00719
88.45 -0.0062
88.5 -0.00395
88.55 -0.00066
88.6 -0.00044
88.65 0.00146
88.7 -0.00109
88.75 -0.00473
88.8 -0.00854
88.85 -0.00874
88.9 -0.00521
88.95 -0.00536
89 -0.00294
89.05 -0.00522
89.1 -0.00558
89.15 -0.00935
89.2 -0.00828
89.25 -0.0092
89.3 -0.00784
89.35 -0.00896
89.4 -0.01048
89.45 -0.01283
89.5 -0.01648
89.55 -0.02099
89.6 -0.01888
89.65 -0.01792
89.7 -0.01653
89.75 -0.01642
89.8 -0.01843
89.85 -0.01729
89.9 -0.01323
89.95 -0.00962
90 -0.00274
90.05 -0.00082
90.1 -0.00305
90.15 -0.00595
90.2 -0.00617
90.25 -0.00749
90.3 -0.00641
90.35 -0.00444
90.4 0.00071
90.45 0.00034
90.5 0.00298
90.55 0.00334
90.6 0.0025
90.65 0.0016
90.7 0.00159
90.75 0.00009
90.8 0.0005
90.85 0.00062
90.9 -0.00056
90.95 0.00006
91 0.00123
91.05 0.00362
91.1 0.00786
91.15 0.00947
91.2 0.00997
91.25 0.0091
91.3 0.0103
91.35 0.01196
91.4 0.0108
91.45 0.01212
91.5 0.01084
91.55 0.00967
91.6 0.00456
91.65 0.00397
91.7 0.00123
91.75 0.00298
91.8 0.00643
91.85 0.00942
91.9 0.00674
91.95 0.00099
92 -0.00535
92.05 -0.00571
92.1 -0.00812
92.15 -0.00926
92.2 -0.0122
92.25 -0.0106
92.3 -0.00762
92.35 -0.00581
92.4 -0.00384
92.45 0.00025
92.5 0.00367
92.55 0.00929
92.6 0.01325
92.65 0.01701
92.7 0.0219
92.75 0.01935
92.8 0.01987
92.85 0.01765
92.9 0.01765
92.95 0.01277
93 0.0113
93.05 0.00871
93.1 0.00955
93.15 0.00869
93.2 0.00433
93.25 -0.00256
93.3 -0.00641
93.35 -0.00665
93.4 -0.00344
93.45 -0.00262
93.5 -0.00126
93.55 0.00144
93.6 0.00568
93.65 0.01053
93.7 0.01055
93.75 0.01209
93.8 0.01103
93.85 0.01166
93.9 0.01411
93.95 0.01535
94 0.01399
94.05 0.01087
94.1 0.00413
94.15 0.00255
94.2 0.00103
94.25 -0.0029
94.3 -0.00797
94.35 -0.01306
94.4 -0.01544
94.45 -0.01551
94.5 -0.0174
94.55 -0.01682
94.6 -0.01421
94.65 -0.0116
94.7 -0.0093
94.75 -0.00754
94.8 -0.00296
94.85 0.00172
94.9 0.00636
94.95 0.00473
95 0.00569
95.05 0.0082
95.1 0.01263
95.15 0.01343
95.2 0.00942
95.25 0.00698
95.3 0.0032
95.35 -0.00288
95.4 -0.00334
95.45 -0.00182
95.5 -0.00298
95.55 -0.00126
95.6 0.00047
95.65 -0.00173
95.7 0
95.75 -0.00303
95.8 -0.00716
95.85 -0.00527
95.9 -0.0074
95.95 -0.01091
96 -0.01166
96.05 -0.01038
96.1 -0.00832
96.15 -0.00494
96.2 0.00156
96.25 0.00288
96.3 0.00655
96.35 0.01214
96.4 0.01737
96.45 0.02143
96.5 0.01803
96.55 0.01536
96.6 0.01302
96.65 0.01167
96.7 0.01376
96.75 0.01003
96.8 0.00969
96.85 0.01071
96.9 0.00882
96.95 0.00872
97 0.00662
97.05 0.00478
97.1 -0.00094
97.15 -0.00378
97.2 -0.00412
97.25 -0.00452
97.3 -0.00547
97.35 -0.00844
97.4 -0.01065
97.45 -0.01252
97.5 -0.01218
97.55 -0.00927
97.6 -0.00522
97.65 0.00064
97.7 0.00716
97.75 0.00941
97.8 0.01228
97.85 0.01294
97.9 0.00803
97.95 0.00444
98 0.00035
98.05 0.00036
98.1 -0.0016
98.15 -0.00668
98.2 -0.01225
98.25 -0.01236
98.3 -0.01522
98.35 -0.0189
98.4 -0.02177
98.45 -0.02216
98.5 -0.02449
98.55 -0.02396
98.6 -0.02247
98.65 -0.01901
98.7 -0.01887
98.75 -0.01677
98.8 -0.0177
98.85 -0.01478
98.9 -0.0156
98.95 -0.01402
99 -0.00845
99.05 -0.00588
99.1 0.00032
99.15 0.00355
99.2 0.0054
99.25 0.00775
99.3 0.00788
99.35 0.00431
99.4 0.00539
99.45 0.00569
99.5 0.00469
99.55 0.00157
99.6 -0.00269
99.65 -0.00237
99.7 0.00009
99.75 0.00487
99.8 0.0098
99.85 0.01528
99.9 0.01536
99.95 0.01256
