0 0
0.05 0.00134
0.1 0.00266
0.15 0.00544
0.2 0.00905
0.25 0.01402
0.3 0.01716
0.35 0.02212
0.4 0.02662
0.45 0.02995
0.5 0.02964
0.55 0.02981
0.6 0.02936
0.65 0.02747
0.7 0.02454
0.75 0.02053
0.8 0.0164
0.85 0.0151
0.9 0.0129
0.95 0.01237
1 0.01101
1.05 0.01066
1.1 0.00911
1.15 0.007
1.2 0.00767
1.25 0.00928
1.3 0.01321
1.35 0.01743
1.4 0.02027
1.45 0.02294
1.5 0.02455
1.55 0.02295
1.6 0.02262
1.65 0.02116
1.7 0.01947
1.75 0.01809
1.8 0.0179
1.85 0.01587
1.9 0.01249
1.95 0.00929
2 0.00605
2.05 0.00617
2.1 0.00543
2.15 0.00367
2.2 0.00216
2.25 0.00076
2.3 -0.00084
2.35 -0.00236
2.4 0.00022
2.45 0.00242
2.5 0.00448
2.55 0.00859
2.6 0.00988
2.65 0.01229
2.7 0.01592
2.75 0.01955
2.8 0.02334
2.85 0.0243
2.9 0.02279
2.95 0.02077
3 0.01898
3.05 0.01543
3.1 0.01341
3.15 0.01065
3.2 0.00775
3.25 0.00847
3.3 0.01061
3.35 0.01426
3.4 0.01781
3.45 0.01976
3.5 0.01835
3.55 0.01635
3.6 0.01396
3.65 0.01275
3.7 0.01138
3.75 0.01264
3.8 0.01444
3.85 0.015
3.9 0.01455
3.95 0.01548
4 0.01563
4.05 0.01589
4.1 0.01685
4.15 0.01914
4.2 0.01906
4.25 0.01882
4.3 0.01856
4.35 0.01702
4.4 0.01309
4.45 0.00843
4.5 0.00369
4.55 0.001
4.6 -0.00098
4.65 -0.00075
4.7 0.00203
4.75 0.00561
4.8 0.00604
4.85 0.00719
4.9 0.00879
4.95 0.00753
5 0.00478
5.05 0.00496
5.1 0.00608
5.15 0.00625
5.2 0.00831
5.25 0.01045
5.3 0.01015
5.35 0.00897
5.4 0.00614
5.45 0.00524
5.5 0.00544
5.55 0.00403
5.6 0.00176
5.65 0.00154
5.7 0.00077
5.75 -0.00008
5.8 0.00072
5.85 -0.00079
5.9 -0.00132
5.95 0.00061
6 0.00327
6.05 0.00272
6.1 0.00152
6.15 0.00166
6.2 0.0032
6.25 0.00204
6.3 -0.00049
6.35 -0.00049
6.4 0.00067
6.45 0.00232
6.5 0.00501
6.55 0.00822
6.6 0.00765
6.65 0.00856
6.7 0.00858
6.75 0.00949
6.8 0.00755
6.85 0.0049
6.9 0.00415
6.95 0.00263
7 0.00229
7.05 0.00363
7.1 0.00518
7.15 0.00417
7.2 0.00364
7.25 0.0033
7.3 0.00468
7.35 0.00657
7.4 0.00759
7.45 0.00773
7.5 0.00696
7.55 0.00621
7.6 0.0036
7.65 -0.00043
7.7 -0.00407
7.75 -0.00417
7.8 -0.00345
7.85 -0.00364
7.9 -0.00501
7.95 -0.00564
8 -0.0064
8.05 -0.00505
8.1 -0.00319
8.15 -0.00005
8.2 0.0008
8.25 0.00243
8.3 0.00401
8.35 0.00455
8.4 0.00693
8.45 0.00746
8.5 0.00613
8.55 0.00647
8.6 0.00857
8.65 0.00797
8.7 0.00961
8.75 0.01167
8.8 0.01287
8.85 0.01405
8.9 0.01418
8.95 0.01282
9 0.01071
9.05 0.01148
9.1 0.01047
9.15 0.00984
9.2 0.00724
9.25 0.0072
9.3 0.00897
9.35 0.00874
9.4 0.01053
9.45 0.00997
9.5 0.01135
9.55 0.00998
9.6 0.01006
9.65 0.01092
9.7 0.01149
9.75 0.01292
9.8 0.01116
9.85 0.01068
9.9 0.00776
9.95 0.00444
10 0.00277
10.05 0.00335
10.1 0.00463
10.15 0.00643
10.2 0.00889
10.25 0.011
10.3 0.0113
10.35 0.01047
10.4 0.01119
10.45 0.01104
10.5 0.01147
10.55 0.01114
10.6 0.01006
10.65 0.00853
10.7 0.00543
10.75 0.00497
10.8 0.00232
10.85 0.00118
10.9 0.00087
10.95 -0.00106
11 -0.00326
11.05 -0.00525
11.1 -0.00635
11.15 -0.00807
11.2 -0.00976
11.25 -0.00927
11.3 -0.00718
11.35 -0.00692
11.4 -0.00667
11.45 -0.00821
11.5 -0.0067
11.55 -0.00707
11.6 -0.00784
11.65 -0.00907
11.7 -0.01139
11.75 -0.01397
11.8 -0.01392
11.85 -0.01415
11.9 -0.01088
11.95 -0.00651
12 -0.00191
12.05 0.00036
12.1 0.00264
12.15 0.00204
12.2 0.00159
12.25 0.00192
12.3 0.00128
12.35 0.00211
12.4 0.00192
12.45 0.00091
12.5 -0.00116
12.55 -0.0018
12.6 -0.00372
12.65 -0.00565
12.7 -0.00763
12.75 -0.0062
12.8 -0.00277
12.85 -0.00128
12.9 0.00144
12.95 0.00419
13 0.00472
13.05 0.00588
13.1 0.00715
13.15 0.00805
13.2 0.00699
13.25 0.00455
13.3 0.00116
13.35 -0.00129
13.4 -0.00134
13.45 -0.00032
13.5 -0.0013
13.55 0.00028
13.6 0.00298
13.65 0.00258
13.7 0.00291
13.75 0.00295
13.8 0.00218
13.85 0.00218
13.9 0.00389
13.95 0.00535
14 0.00798
14.05 0.0098
14.1 0.00817
14.15 0.00775
14.2 0.00454
14.25 0.00386
14.3 0.0043
14.35 0.0043
14.4 0.00469
14.45 0.00301
14.5 0.00126
14.55 0.00143
14.6 -0.00038
14.65 -0.00131
14.7 -0.00354
14.75 -0.0057
14.8 -0.00509
14.85 -0.00644
14.9 -0.00659
14.95 -0.00498
15 -0.00284
15.05 0.00066
15.1 0.0045
15.15 0.00834
15.2 0.00992
15.25 0.00884
15.3 0.00879
15.35 0.0064
15.4 0.00214
15.45 -0.00248
15.5 -0.00716
15.55 -0.01017
15.6 -0.01158
15.65 -0.01216
15.7 -0.0129
15.75 -0.01462
15.8 -0.01467
15.85 -0.01223
15.9 -0.01062
15.95 -0.01042
16 -0.01019
16.05 -0.00771
16.1 -0.00768
16.15 -0.00928
16.2 -0.01011
16.25 -0.00776
16.3 -0.00657
16.35 -0.00541
16.4 -0.00642
16.45 -0.0077
16.5 -0.00632
16.55 -0.00584
16.6 -0.00487
16.65 -0.00278
16.7 -0.00028
16.75 0.00356
16.8 0.00393
16.85 0.00545
16.9 0.00621
16.95 0.00722
17 0.00701
17.05 0.00581
17.1 0.00581
17.15 0.00667
17.2 0.00616
17.25 0.00543
17.3 0.005
17.35 0.00472
17.4 0.00639
17.45 0.00701
17.5 0.00483
17.55 0.00467
17.6 0.00199
17.65 0.00012
17.7 -0.0004
17.75 -0.00101
17.8 -0.00239
17.85 -0.0012
17.9 -0.0025
17.95 -0.00143
18 0.001
18.05 0.00078
18.1 -0.00047
18.15 -0.00267
18.2 -0.00476
18.25 -0.00781
18.3 -0.00855
18.35 -0.0085
18.4 -0.00812
18.45 -0.00852
18.5 -0.00729
18.55 -0.00382
18.6 0.0007
18.65 0.00332
18.7 0.00456
18.75 0.00589
18.8 0.00525
18.85 0.00505
18.9 0.00328
18.95 -0.00002
19 -0.00335
19.05 -0.00586
19.1 -0.00777
19.15 -0.00955
19.2 -0.00809
19.25 -0.00581
19.3 -0.00341
19.35 -0.00219
19.4 -0.00334
19.45 -0.00583
19.5 -0.00597
19.55 -0.00639
19.6 -0.00806
19.65 -0.00812
19.7 -0.00789
19.75 -0.00715
19.8 -0.00589
19.85 -0.00522
19.9 -0.00264
19.95 0.00015
20 0.00302
20.05 0.00682
20.1 0.01038
20.15 0.01399
20.2 0.01317
20.25 0.01339
20.3 0.01341
20.35 0.01117
20.4 0.00924
20.45 0.0092
20.5 0.0072
20.55 0.00596
20.6 0.00478
20.65 0.00585
20.7 0.00518
20.75 0.00489
20.8 0.00614
20.85 0.00539
20.9 0.00343
20.95 0.00322
21 0.00485
21.05 0.00554
21.1 0.00702
21.15 0.0066
21.2 0.00547
21.25 0.00392
21.3 0.00274
21.35 0.00334
21.4 0.00237
21.45 0.00346
21.5 0.00286
21.55 0.00027
21.6 -0.00257
21.65 -0.00622
21.7 -0.00967
21.75 -0.01132
21.8 -0.01211
21.85 -0.01194
21.9 -0.0111
21.95 -0.0105
22 -0.01128
22.05 -0.01001
22.1 -0.00933
22.15 -0.00719
22.2 -0.00459
22.25 -0.00105
22.3 0.002
22.35 0.00249
22.4 0.00087
22.45 0.00173
22.5 0.00257
22.55 0.00311
22.6 0.00159
22.65 0.00143
22.7 0.00127
22.75 0.00176
22.8 0.00008
22.85 -0.00284
22.9 -0.00602
22.95 -0.00864
23 -0.00843
23.05 -0.00589
23.1 -0.00316
23.15 0.00024
23.2 0.00088
23.25 0.00028
23.3 0.00164
23.35 0.00186
23.4 0.00256
23.45 0.00132
23.5 0.00216
23.55 0.00205
23.6 0.00114
23.65 -0.00164
23.7 -0.0041
23.75 -0.00336
23.8 -0.00155
23.85 -0.00142
23.9 0.0003
23.95 0.00338
24 0.00706
24.05 0.00881
24.1 0.00812
24.15 0.00654
24.2 0.00363
24.25 0.0023
24.3 0.00127
24.35 -0.00067
24.4 -0.00219
24.45 -0.00309
24.5 -0.00186
24.55 -0.00277
24.6 -0.00248
24.65 -0.00089
24.7 -0.00036
24.75 -0.00142
24.8 -0.0027
24.85 -0.00194
24.9 -0.00063
24.95 0.00139
25 0.00186
25.05 0.00311
25.1 0.00284
25.15 0.00234
25.2 0.00318
25.25 0.00526
25.3 0.00526
25.35 0.0039
25.4 0.00308
25.45 0.00109
25.5 -0.00241
25.55 -0.00272
25.6 -0.00115
25.65 0.00067
25.7 0.00249
25.75 0.004
25.8 0.00371
25.85 0.00229
25.9 -0.00087
25.95 -0.0042
26 -0.00492
26.05 -0.00377
26.1 -0.00477
26.15 -0.00591
26.2 -0.00756
26.25 -0.00934
26.3 -0.00995
26.35 -0.0075
26.4 -0.00396
26.45 -0.00308
26.5 -0.00092
26.55 0.00185
26.6 0.00221
26.65 0.00446
26.7 0.0062
26.75 0.00646
26.8 0.00642
26.85 0.00451
26.9 0.00344
26.95 0.00319
27 0.00118
27.05 -0.00102
27.1 -0.00332
27.15 -0.0029
27.2 -0.00341
27.25 -0.00411
27.3 -0.00312
27.35 -0.00111
27.4 0.00049
27.45 0.00069
27.5 0.0018
27.55 0.00243
27.6 0.00431
27.65 0.00404
27.7 0.00507
27.75 0.00412
27.8 0.00191
27.85 -0.00125
27.9 -0.00207
27.95 -0.00388
28 -0.00618
28.05 -0.00812
28.1 -0.00672
28.15 -0.00644
28.2 -0.00672
28.25 -0.00576
28.3 -0.00437
28.35 -0.0041
28.4 -0.00233
28.45 -0.00265
28.5 -0.00513
28.55 -0.0089
28.6 -0.01355
28.65 -0.01698
28.7 -0.01952
28.75 -0.02401
28.8 -0.02728
28.85 -0.03137
28.9 -0.03772
28.95 -0.04509
29 -0.05355
29.05 -0.06136
29.1 -0.07119
29.15 -0.08434
29.2 -0.1006
29.25 -0.11876
29.3 -0.13702
29.35 -0.16006
29.4 -0.1851
29.45 -0.21158
29.5 -0.2429
29.55 -0.27499
29.6 -0.31127
29.65 -0.35319
29.7 -0.39712
29.75 -0.44711
29.8 -0.50227
29.85 -0.55884
29.9 -0.61637
29.95 -0.67594
30 -0.73669
30.05 -0.79875
30.1 -0.86404
30.15 -0.93036
30.2 -0.99796
30.25 -1.06646
30.3 -1.13071
30.35 -1.19112
30.4 -1.24928
30.45 -1.3042
30.5 -1.35385
30.55 -1.39398
30.6 -1.42486
30.65 -1.44939
30.7 -1.46495
30.75 -1.46738
30.8 -1.45784
30.85 -1.43988
30.9 -1.41047
30.95 -1.37192
31 -1.32276
31.05 -1.26426
31.1 -1.19384
31.15 -1.11721
31.2 -1.0333
31.25 -0.94261
31.3 -0.84535
31.35 -0.74427
31.4 -0.63775
31.45 -0.53106
31.5 -0.42289
31.55 -0.31341
31.6 -0.20777
31.65 -0.10306
31.7 -0.00365
31.75 0.09111
31.8 0.18274
31.85 0.2714
31.9 0.35341
31.95 0.43009
32 0.49868
32.05 0.56252
32.1 0.62115
32.15 0.67548
32.2 0.72321
32.25 0.76722
32.3 0.80354
32.35 0.83394
32.4 0.85935
32.45 0.88382
32.5 0.90513
32.55 0.92404
32.6 0.94373
32.65 0.96152
32.7 0.97853
32.75 0.99483
32.8 1.01003
32.85 1.02432
32.9 1.03736
32.95 1.05024
33 1.06085
33.05 1.06841
33.1 1.07727
33.15 1.08405
33.2 1.08992
33.25 1.09594
33.3 1.09806
33.35 1.09673
33.4 1.09326
33.45 1.09169
33.5 1.09044
33.55 1.08541
33.6 1.07865
33.65 1.06971
33.7 1.06032
33.75 1.04857
33.8 1.03431
33.85 1.02031
33.9 1.0056
33.95 0.98825
34 0.97101
34.05 0.95268
34.1 0.93293
34.15 0.91152
34.2 0.88916
34.25 0.86456
34.3 0.83622
34.35 0.80791
34.4 0.77973
34.45 0.751
34.5 0.72294
34.55 0.69323
34.6 0.66266
34.65 0.6334
34.7 0.60644
34.75 0.57844
34.8 0.55198
34.85 0.52523
34.9 0.49951
34.95 0.47636
35 0.45358
35.05 0.42862
35.1 0.40683
35.15 0.38267
35.2 0.35986
35.25 0.3355
35.3 0.31258
35.35 0.29134
35.4 0.26872
35.45 0.24787
35.5 0.22705
35.55 0.20781
35.6 0.18984
35.65 0.17369
35.7 0.15901
35.75 0.14522
35.8 0.13172
35.85 0.11446
35.9 0.09843
35.95 0.08098
36 0.06492
36.05 0.04841
36.1 0.03282
36.15 0.01989
36.2 0.00842
36.25 -0.00359
36.3 -0.01463
36.35 -0.0274
36.4 -0.03952
36.45 -0.05223
36.5 -0.06456
36.55 -0.07396
36.6 -0.08153
36.65 -0.09194
36.7 -0.10007
36.75 -0.10892
36.8 -0.11731
36.85 -0.12623
36.9 -0.13207
36.95 -0.1371
37 -0.14279
37.05 -0.14951
37.1 -0.1553
37.15 -0.15933
37.2 -0.165
37.25 -0.17156
37.3 -0.17587
37.35 -0.17724
37.4 -0.17739
37.45 -0.17694
37.5 -0.17764
37.55 -0.17699
37.6 -0.17838
37.65 -0.17913
37.7 -0.18079
37.75 -0.18065
37.8 -0.17965
37.85 -0.18085
37.9 -0.18167
37.95 -0.18044
38 -0.17803
38.05 -0.17799
38.1 -0.1808
38.15 -0.18269
38.2 -0.18256
38.25 -0.18284
38.3 -0.18087
38.35 -0.18131
38.4 -0.1818
38.45 -0.18115
38.5 -0.18073
38.55 -0.18171
38.6 -0.18308
38.65 -0.18426
38.7 -0.18181
38.75 -0.17992
38.8 -0.17932
38.85 -0.17936
38.9 -0.17936
38.95 -0.1769
39 -0.17259
39.05 -0.16868
39.1 -0.16403
39.15 -0.1597
39.2 -0.15405
39.25 -0.15105
39.3 -0.148
39.35 -0.14504
39.4 -0.14129
39.45 -0.13703
39.5 -0.13263
39.55 -0.13143
39.6 -0.13208
39.65 -0.13013
39.7 -0.12808
39.75 -0.12502
39.8 -0.12139
39.85 -0.11651
39.9 -0.11181
39.95 -0.10941
40 -0.10822
40.05 -0.10545
40.1 -0.10446
40.15 -0.10499
40.2 -0.10691
40.25 -0.10577
40.3 -0.10276
40.35 -0.10113
40.4 -0.10169
40.45 -0.10011
40.5 -0.09983
40.55 -0.09887
40.6 -0.09936
40.65 -0.09743
40.7 -0.09646
40.75 -0.09308
40.8 -0.09003
40.85 -0.08979
40.9 -0.08986
40.95 -0.08819
41 -0.08481
41.05 -0.08126
41.1 -0.07689
41.15 -0.07251
41.2 -0.07102
41.25 -0.07286
41.3 -0.07457
41.35 -0.07501
41.4 -0.07647
41.45 -0.07795
41.5 -0.07613
41.55 -0.0736
41.6 -0.07208
41.65 -0.06954
41.7 -0.06834
41.75 -0.06948
41.8 -0.06975
41.85 -0.07051
41.9 -0.07247
41.95 -0.07121
42 -0.06977
42.05 -0.06687
42.1 -0.06579
42.15 -0.06305
42.2 -0.05878
42.25 -0.05541
42.3 -0.05375
42.35 -0.05443
42.4 -0.05458
42.45 -0.05608
42.5 -0.05712
42.55 -0.05633
42.6 -0.05425
42.65 -0.05244
42.7 -0.04999
42.75 -0.05047
42.8 -0.05115
42.85 -0.05083
42.9 -0.04912
42.95 -0.04557
43 -0.04407
43.05 -0.04169
43.1 -0.03837
43.15 -0.03667
43.2 -0.03669
43.25 -0.03708
43.3 -0.03718
43.35 -0.03905
43.4 -0.03948
43.45 -0.04174
43.5 -0.04441
43.55 -0.04502
43.6 -0.04531
43.65 -0.04666
43.7 -0.04467
43.75 -0.04172
43.8 -0.04144
43.85 -0.03891
43.9 -0.03834
43.95 -0.03641
44 -0.0367
44.05 -0.03537
44.1 -0.03614
44.15 -0.03756
44.2 -0.03667
44.25 -0.0373
44.3 -0.03786
44.35 -0.03873
44.4 -0.04008
44.45 -0.0404
44.5 -0.04151
44.55 -0.04154
44.6 -0.04148
44.65 -0.03987
44.7 -0.03878
44.75 -0.03502
44.8 -0.03008
44.85 -0.02723
44.9 -0.02615
44.95 -0.02608
45 -0.02384
45.05 -0.02077
45.1 -0.01713
45.15 -0.01749
45.2 -0.01965
45.25 -0.02305
45.3 -0.02559
45.35 -0.02805
45.4 -0.02745
45.45 -0.02666
45.5 -0.0268
45.55 -0.0247
45.6 -0.02254
45.65 -0.01909
45.7 -0.01812
45.75 -0.01929
45.8 -0.01992
45.85 -0.01793
45.9 -0.01867
45.95 -0.01782
46 -0.01552
46.05 -0.01499
46.1 -0.01374
46.15 -0.01159
46.2 -0.00994
46.25 -0.01144
46.3 -0.0122
46.35 -0.01452
46.4 -0.01549
46.45 -0.01631
46.5 -0.01783
46.55 -0.01804
46.6 -0.01804
46.65 -0.01691
46.7 -0.0178
46.75 -0.01877
46.8 -0.01883
46.85 -0.01787
46.9 -0.01502
46.95 -0.01184
47 -0.01123
47.05 -0.0093
47.1 -0.0064
47.15 -0.00387
47.2 -0.00246
47.25 -0.00275
47.3 -0.00322
47.35 -0.00393
47.4 -0.00596
47.45 -0.00681
47.5 -0.00689
47.55 -0.0058
47.6 -0.00616
47.65 -0.00565
47.7 -0.00733
47.75 -0.00962
47.8 -0.0115
47.85 -0.01319
47.9 -0.01578
47.95 -0.01758
48 -0.01728
48.05 -0.0143
48.1 -0.01226
48.15 -0.01007
48.2 -0.01032
48.25 -0.00934
48.3 -0.01022
48.35 -0.01213
48.4 -0.01174
48.45 -0.01198
48.5 -0.01214
48.55 -0.01174
48.6 -0.0096
48.65 -0.00895
48.7 -0.00877
48.75 -0.00763
48.8 -0.0046
48.85 -0.00317
48.9 -0.00096
48.95 0.00079
49 0.00177
49.05 0.00007
49.1 -0.00236
49.15 -0.00446
49.2 -0.00505
49.25 -0.00587
49.3 -0.00586
49.35 -0.00539
49.4 -0.00409
49.45 -0.00302
49.5 -0.00119
49.55 0.00049
49.6 0.00249
49.65 0.00495
49.7 0.00429
49.75 0.00418
49.8 0.00132
49.85 0.00072
49.9 -0.00074
49.95 -0.00119
50 0.00022
50.05 -0.00168
50.1 -0.0021
50.15 -0.00452
50.2 -0.00437
50.25 -0.00382
50.3 -0.00178
50.35 -0.00135
50.4 -0.00049
50.45 0.0017
50.5 0.0026
50.55 0.00192
50.6 0.00025
50.65 -0.00004
50.7 -0.00129
50.75 -0.00294
50.8 -0.00205
50.85 -0.0026
50.9 -0.0051
50.95 -0.00565
51 -0.00734
51.05 -0.00892
51.1 -0.00919
51.15 -0.00811
51.2 -0.0082
51.25 -0.008
51.3 -0.0092
51.35 -0.00974
51.4 -0.00767
51.45 -0.00467
51.5 -0.00231
51.55 -0.00165
51.6 -0.00248
51.65 -0.00489
51.7 -0.00836
51.75 -0.01175
51.8 -0.01167
51.85 -0.01091
51.9 -0.00761
51.95 -0.0073
52 -0.00839
52.05 -0.00739
52.1 -0.0066
52.15 -0.00601
52.2 -0.00462
52.25 -0.00524
52.3 -0.0043
52.35 -0.0038
52.4 -0.00372
52.45 -0.00194
52.5 -0.0015
52.55 -0.0031
52.6 -0.00448
52.65 -0.00404
52.7 -0.00505
52.75 -0.00418
52.8 -0.00355
52.85 -0.0025
52.9 0.00028
52.95 0.0004
53 -0.00208
53.05 -0.00179
53.1 0.00042
53.15 0.00235
53.2 0.00457
53.25 0.00618
53.3 0.00723
53.35 0.00733
53.4 0.00682
53.45 0.00788
53.5 0.00694
53.55 0.0055
53.6 0.00445
53.65 0.00365
53.7 0.00172
53.75 0.00213
53.8 0.00265
53.85 0.00337
53.9 0.00291
53.95 0.00416
54 0.00534
54.05 0.00486
54.1 0.00406
54.15 0.00207
54.2 0.00085
54.25 -0.00053
54.3 -0.00167
54.35 -0.00436
54.4 -0.00674
54.45 -0.00719
54.5 -0.006
54.55 -0.00621
54.6 -0.00469
54.65 -0.0016
54.7 -0.00138
54.75 -0.0016
54.8 -0.00202
54.85 -0.00332
54.9 -0.00598
54.95 -0.00695
55 -0.00634
55.05 -0.00716
55.1 -0.00617
55.15 -0.00412
55.2 -0.0041
55.25 -0.00381
55.3 -0.00354
55.35 -0.00206
55.4 0.00004
55.45 0.003
55.5 0.00287
55.55 0.00251
55.6 0.00234
55.65 0.00371
55.7 0.00482
55.75 0.00277
55.8 0.00231
55.85 -0.00046
55.9 -0.00379
55.95 -0.00513
56 -0.00557
56.05 -0.00524
56.1 -0.00481
56.15 -0.00622
56.2 -0.00892
56.25 -0.00942
56.3 -0.00778
56.35 -0.00773
56.4 -0.00833
56.45 -0.00778
56.5 -0.00757
56.55 -0.00635
56.6 -0.00596
56.65 -0.00614
56.7 -0.00717
56.75 -0.00685
56.8 -0.00557
56.85 -0.00382
56.9 -0.00375
56.95 -0.00331
57 -0.00465
57.05 -0.00511
57.1 -0.00479
57.15 -0.00582
57.2 -0.00527
57.25 -0.00665
57.3 -0.00652
57.35 -0.00732
57.4 -0.00582
57.45 -0.00333
57.5 -0.00151
57.55 -0.00009
57.6 -0.00018
57.65 -0.00229
57.7 -0.0023
57.75 -0.00079
57.8 -0.00015
57.85 0.00108
57.9 -0.00048
57.95 -0.00099
58 -0.00048
58.05 0.00083
58.1 0.00157
58.15 0.00309
58.2 0.00512
58.25 0.00376
58.3 0.00227
58.35 0.00173
58.4 0.00231
58.45 0.0041
58.5 0.00656
58.55 0.00843
58.6 0.00724
58.65 0.00418
58.7 0.00063
58.75 -0.00246
58.8 -0.00438
58.85 -0.00675
58.9 -0.00888
58.95 -0.01003
59 -0.01227
59.05 -0.01441
59.1 -0.01566
59.15 -0.01468
59.2 -0.01465
59.25 -0.01509
59.3 -0.01353
59.35 -0.01011
59.4 -0.00863
59.45 -0.00548
59.5 -0.00371
59.55 -0.00147
59.6 -0.00023
59.65 -0.00053
59.7 -0.00121
59.75 0.00081
59.8 0.00347
59.85 0.00589
59.9 0.00708
59.95 0.00688
60 0.00782
60.05 0.00686
60.1 0.00621
60.15 0.00712
60.2 0.00794
60.25 0.00579
60.3 0.00362
60.35 0.00303
60.4 0.0042
60.45 0.00268
60.5 0.00341
60.55 0.00385
60.6 0.00515
60.65 0.00506
60.7 0.00365
60.75 0.00114
60.8 -0.00269
60.85 -0.00292
60.9 -0.00064
60.95 0.00202
61 0.00291
61.05 0.0024
61.1 0.00333
61.15 0.00407
61.2 0.0036
61.25 0.00169
61.3 0.00089
61.35 -0.00008
61.4 0.00061
61.45 0.00042
61.5 0.00187
61.55 0.00425
61.6 0.0056
61.65 0.00547
61.7 0.00329
61.75 0.00161
61.8 0.00224
61.85 0.00123
61.9 0.00102
61.95 0.00209
62 0.00311
62.05 0.00323
62.1 0.00517
62.15 0.00763
62.2 0.00991
62.25 0.01117
62.3 0.0129
62.35 0.01223
62.4 0.00851
62.45 0.00648
62.5 0.00221
62.55 -0.00288
62.6 -0.00828
62.65 -0.00999
62.7 -0.0105
62.75 -0.01052
62.8 -0.00823
62.85 -0.00594
62.9 -0.00581
62.95 -0.00366
63 -0.0016
63.05 0.00054
63.1 0.0014
63.15 0.00003
63.2 0.00054
63.25 0.00212
63.3 0.00057
63.35 -0.00003
63.4 -0.00278
63.45 -0.00321
63.5 -0.00228
63.55 0.00024
63.6 0.00007
63.65 -0.00229
63.7 -0.00208
63.75 -0.00415
63.8 -0.00717
63.85 -0.00805
63.9 -0.00646
63.95 -0.0071
64 -0.00644
64.05 -0.00649
64.1 -0.00464
64.15 -0.00542
64.2 -0.00399
64.25 -0.00146
64.3 0.00175
64.35 0.00304
64.4 0.00554
64.45 0.00695
64.5 0.00653
64.55 0.00625
64.6 0.00446
64.65 0.0008
64.7 -0.00345
64.75 -0.00653
64.8 -0.00942
64.85 -0.01209
64.9 -0.01197
64.95 -0.01313
65 -0.01211
65.05 -0.01175
65.1 -0.01211
65.15 -0.01118
65.2 -0.00892
65.25 -0.00586
65.3 -0.00539
65.35 -0.00521
65.4 -0.00502
65.45 -0.00517
65.5 -0.00666
65.55 -0.00636
65.6 -0.00453
65.65 -0.00456
65.7 -0.00423
65.75 -0.00267
65.8 -0.00036
65.85 0.00098
65.9 0.00351
65.95 0.00285
66 0.00149
66.05 0.0022
66.1 0.00138
66.15 0.00084
66.2 -0.00095
66.25 -0.003
66.3 -0.0041
66.35 -0.00656
66.4 -0.00843
66.45 -0.00998
66.5 -0.01058
66.55 -0.00942
66.6 -0.00982
66.65 -0.00843
66.7 -0.00703
66.75 -0.00403
66.8 -0.00153
66.85 0.00248
66.9 0.00592
66.95 0.00984
67 0.01075
67.05 0.01048
67.1 0.0093
67.15 0.00999
67.2 0.01146
67.25 0.01214
67.3 0.01047
67.35 0.00634
67.4 0.00204
67.45 -0.00073
67.5 -0.00429
67.55 -0.00692
67.6 -0.00938
67.65 -0.01089
67.7 -0.01209
67.75 -0.0135
67.8 -0.01367
67.85 -0.01391
67.9 -0.01204
67.95 -0.01085
68 -0.00833
68.05 -0.00615
68.1 -0.00288
68.15 -0.00255
68.2 -0.00384
68.25 -0.00398
68.3 -0.00168
68.35 -0.00106
68.4 0.00099
68.45 0.00374
68.5 0.00364
68.55 0.00203
68.6 0.0026
68.65 0.0035
68.7 0.00621
68.75 0.00637
68.8 0.00669
68.85 0.00817
68.9 0.00646
68.95 0.00617
69 0.00527
69.05 0.0033
69.1 0.00391
69.15 0.00578
69.2 0.00622
69.25 0.00665
69.3 0.00655
69.35 0.00581
69.4 0.00399
69.45 0.00382
69.5 0.00404
69.55 0.00454
69.6 0.00544
69.65 0.00492
69.7 0.00261
69.75 0.00066
69.8 0.00044
69.85 -0.00132
69.9 -0.00087
69.95 0.00094
70 0.00017
70.05 -0.00068
70.1 0.00015
70.15 -0.0013
70.2 -0.00004
70.25 0.00257
70.3 0.00592
70.35 0.00714
70.4 0.00551
70.45 0.00603
70.5 0.00411
70.55 0.00153
70.6 0.00147
70.65 0.00058
70.7 -0.00016
70.75 0.00047
70.8 -0.001
70.85 -0.00101
70.9 -0.00033
70.95 0.00089
71 0.00143
71.05 0.00062
71.1 0.00027
71.15 -0.00151
71.2 -0.00462
71.25 -0.00522
71.3 -0.00389
71.35 -0.00182
71.4 0.00075
71.45 0.00037
71.5 -0.00013
71.55 -0.00207
71.6 -0.00258
71.65 -0.00202
71.7 -0.00173
71.75 -0.0008
71.8 0.00151
71.85 0.00429
71.9 0.00593
71.95 0.00764
72 0.01026
72.05 0.01106
72.1 0.00883
72.15 0.00461
72.2 0.00376
72.25 0.00509
72.3 0.00385
72.35 0.00164
72.4 -0.0014
72.45 -0.00301
72.5 -0.00524
72.55 -0.0081
72.6 -0.00797
72.65 -0.00597
72.7 -0.00409
72.75 -0.00324
72.8 -0.00032
72.85 0.00177
72.9 0.00273
72.95 0.00405
73 0.00495
73.05 0.00303
73.1 0.00262
73.15 0.00007
73.2 -0.00131
73.25 -0.00302
73.3 -0.00345
73.35 -0.00298
73.4 -0.00056
73.45 0.00082
73.5 0.00276
73.55 0.00458
73.6 0.00587
73.65 0.00638
73.7 0.0048
73.75 0.00458
73.8 0.00442
73.85 0.00368
73.9 0.00068
73.95 -0.00262
74 -0.0047
74.05 -0.00561
74.1 -0.00376
74.15 -0.00195
74.2 0.00051
74.25 0.00406
74.3 0.00609
74.35 0.00808
74.4 0.00738
74.45 0.00657
74.5 0.00492
74.55 0.00111
74.6 -0.00089
74.65 -0.00434
74.7 -0.00416
74.75 -0.00451
74.8 -0.00377
74.85 -0.00105
74.9 -0.00124
74.95 -0.00208
75 -0.00254
75.05 -0.00116
75.1 -0.00062
75.15 0.00127
75.2 0.00206
75.25 0.00194
75.3 0.00237
75.35 0.00245
75.4 0.00299
75.45 0.00389
75.5 0.00224
75.55 -0.00063
75.6 -0.00109
75.65 -0.00187
75.7 -0.00428
75.75 -0.00781
75.8 -0.01079
75.85 -0.01401
75.9 -0.0144
75.95 -0.01246
76 -0.01207
76.05 -0.00934
76.1 -0.00781
76.15 -0.00572
76.2 -0.00387
76.25 -0.00261
76.3 -0.00042
76.35 0.00223
76.4 0.00582
76.45 0.00916
76.5 0.00838
76.55 0.00914
76.6 0.00781
76.65 0.00607
76.7 0.00363
76.75 0.00131
76.8 0.00013
76.85 -0.00253
76.9 -0.00416
76.95 -0.00588
77 -0.00667
77.05 -0.00758
77.1 -0.00531
77.15 -0.00528
77.2 -0.00459
77.25 -0.00522
77.3 -0.00431
77.35 -0.0054
77.4 -0.00762
77.45 -0.0106
77.5 -0.01252
77.55 -0.01425
77.6 -0.01392
77.65 -0.01199
77.7 -0.0088
77.75 -0.00768
77.8 -0.00454
77.85 -0.00061
77.9 0.00154
77.95 0.00197
78 0.00013
78.05 -0.00251
78.1 -0.00602
78.15 -0.0067
78.2 -0.0054
78.25 -0.00521
78.3 -0.00597
78.35 -0.00508
78.4 -0.00257
78.45 0.00039
78.5 0.00183
78.55 0.00348
78.6 0.0055
78.65 0.00715
78.7 0.00877
78.75 0.0086
78.8 0.00686
78.85 0.0069
78.9 0.00727
78.95 0.00619
79 0.00503
79.05 0.00288
79.1 0.00035
79.15 0.00052
79.2 0.00218
79.25 0.00354
79.3 0.00462
79.35 0.0033
79.4 0.00115
79.45 -0.00006
79.5 -0.00191
79.55 -0.00206
79.6 -0.00311
79.65 -0.00376
79.7 -0.00386
79.75 -0.00214
79.8 0.00075
79.85 0.00316
79.9 0.00655
79.95 0.00974
80 0.01123
80.05 0.01069
80.1 0.00763
80.15 0.00668
80.2 0.00499
80.25 0.00314
80.3 0.00387
80.35 0.00532
80.4 0.00675
80.45 0.00687
80.5 0.00718
80.55 0.007
80.6 0.00535
80.65 0.00239
80.7 0.00001
80.75 -0.00346
80.8 -0.00631
80.85 -0.00861
80.9 -0.01028
80.95 -0.00919
81 -0.00855
81.05 -0.00536
81.1 -0.00244
81.15 -0.00203
81.2 -0.00276
81.25 -0.00371
81.3 -0.00467
81.35 -0.00615
81.4 -0.00823
81.45 -0.00659
81.5 -0.0052
81.55 -0.00517
81.6 -0.00466
81.65 -0.0056
81.7 -0.00441
81.75 -0.00139
81.8 -0.00086
81.85 -0.00177
81.9 -0.00269
81.95 -0.0051
82 -0.0084
82.05 -0.00973
82.1 -0.00997
82.15 -0.01044
82.2 -0.00959
82.25 -0.00928
82.3 -0.00592
82.35 -0.00109
82.4 0.00144
82.45 0.00367
82.5 0.00494
82.55 0.00612
82.6 0.00527
82.65 0.00509
82.7 0.00516
82.75 0.00468
82.8 0.00628
82.85 0.00724
82.9 0.00508
82.95 0.005
83 0.00627
83.05 0.00524
83.1 0.00246
83.15 -0.00002
83.2 -0.00338
83.25 -0.00618
83.3 -0.00631
83.35 -0.00729
83.4 -0.00592
83.45 -0.00472
83.5 -0.00499
83.55 -0.00574
83.6 -0.00746
83.65 -0.00804
83.7 -0.00885
83.75 -0.00948
83.8 -0.0098
83.85 -0.01047
83.9 -0.00813
83.95 -0.00516
84 -0.00203
84.05 0.00226
84.1 0.00553
84.15 0.00861
84.2 0.0092
84.25 0.00672
84.3 0.005
84.35 0.00208
84.4 0.0008
84.45 -0.00151
84.5 -0.00317
84.55 -0.00153
84.6 0.00003
84.65 0.00121
84.7 0.0002
84.75 0.00128
84.8 0.00177
84.85 0.00398
84.9 0.00476
84.95 0.00296
85 0.00045
85.05 -0.00015
85.1 -0.00239
85.15 -0.00565
85.2 -0.00703
85.25 -0.00634
85.3 -0.00398
85.35 -0.00309
85.4 -0.00002
85.45 0.00236
85.5 0.00394
85.55 0.00467
85.6 0.00625
85.65 0.00912
85.7 0.00997
85.75 0.00832
85.8 0.00475
85.85 0.00011
85.9 -0.00324
85.95 -0.00687
86 -0.01067
86.05 -0.01073
86.1 -0.00981
86.15 -0.00609
86.2 -0.0022
86.25 0.00157
86.3 0.00445
86.35 0.00787
86.4 0.0097
86.45 0.01103
86.5 0.0116
86.55 0.01334
86.6 0.01228
86.65 0.01273
86.7 0.0116
86.75 0.00946
86.8 0.0063
86.85 0.00377
86.9 0.00048
86.95 -0.00151
87 -0.00314
87.05 -0.00396
87.1 -0.00289
87.15 -0.00221
87.2 -0.00375
87.25 -0.00414
87.3 -0.00221
87.35 -0.00179
87.4 -0.00245
87.45 -0.00285
87.5 -0.0031
87.55 -0.00457
87.6 -0.00659
87.65 -0.00639
87.7 -0.00389
87.75 -0.00385
87.8 -0.00227
87.85 -0.00109
87.9 -0.00068
87.95 0.00024
88 0.00121
88.05 0.00323
88.1 0.00203
88.15 0.002
88.2 0.0007
88.25 -0.00048
88.3 -0.00089
88.35 -0.0017
88.4 -0.00382
88.45 -0.00493
88.5 -0.00587
88.55 -0.00439
88.6 -0.00213
88.65 0.00001
88.7 -0.00059
88.75 0.00061
88.8 -0.00013
88.85 0.00133
88.9 0.00115
88.95 0.00283
89 0.00306
89.05 0.00486
89.1 0.00547
89.15 0.00455
89.2 0.00194
89.25 0.0001
89.3 0.00032
89.35 0.00149
89.4 0.00176
89.45 0.00407
89.5 0.00598
89.55 0.00543
89.6 0.00519
89.65 0.00411
89.7 0.00428
89.75 0.00426
89.8 0.00262
89.85 0.00084
89.9 -0.0006
89.95 -0.00187
90 -0.00066
90.05 -0.00183
90.1 -0.00342
90.15 -0.00593
90.2 -0.00921
90.25 -0.01128
90.3 -0.01005
90.35 -0.00995
90.4 -0.00676
90.45 -0.0027
90.5 -0.00018
90.55 0.00047
90.6 -0.00017
90.65 0.00005
90.7 0.00182
90.75 0.00446
90.8 0.0039
90.85 0.00291
90.9 0.00036
90.95 0.00049
91 -0.00143
91.05 -0.0011
91.1 -0.00259
91.15 -0.00252
91.2 -0.00211
91.25 0.00016
91.3 0.00215
91.35 0.00332
91.4 0.00235
91.45 0.00136
91.5 0.00093
91.55 0.00084
91.6 0.0006
91.65 0.00031
91.7 -0.00156
91.75 -0.00245
91.8 -0.00203
91.85 -0.002
91.9 -0.0025
91.95 -0.00249
92 -0.00122
92.05 0.00047
92.1 0.00159
92.15 0.00213
92.2 0.00096
92.25 -0.00127
92.3 -0.00408
92.35 -0.00336
92.4 -0.00189
92.45 0.00099
92.5 0.00477
92.55 0.00781
92.6 0.0092
92.65 0.01152
92.7 0.0105
92.75 0.0087
92.8 0.0048
92.85 0.00406
92.9 0.00116
92.95 0.00116
93 0.00147
93.05 0.0035
93.1 0.00673
93.15 0.00717
93.2 0.00633
93.25 0.00605
93.3 0.00329
93.35 0.00244
93.4 0.00148
93.45 0.00099
93.5 0.00021
93.55 0.0012
93.6 0.00289
93.65 0.00534
93.7 0.00733
93.75 0.01011
93.8 0.01263
93.85 0.01339
93.9 0.01441
93.95 0.01312
94 0.011
94.05 0.00658
94.1 0.00121
94.15 -0.00211
94.2 -0.00634
94.25 -0.00884
94.3 -0.00896
94.35 -0.0077
94.4 -0.00735
94.45 -0.0068
94.5 -0.00479
94.55 -0.00165
94.6 -0.00067
94.65 0.00027
94.7 0.00244
94.75 0.00166
94.8 0.0003
94.85 0.00078
94.9 0.00142
94.95 0.00194
95 0.0016
95.05 0.00161
95.1 0.00302
95.15 0.00465
95.2 0.00648
95.25 0.00716
95.3 0.00652
95.35 0.0056
95.4 0.00643
95.45 0.00636
95.5 0.00539
95.55 0.00401
95.6 0.00099
95.65 0.00085
95.7 -0.00087
95.75 -0.00403
95.8 -0.00571
95.85 -0.00559
95.9 -0.00422
95.95 -0.00366
96 -0.00415
96.05 -0.00328
96.1 -0.00288
96.15 -0.00256
96.2 -0.00274
96.25 -0.00284
96.3 -0.00072
96.35 -0.00127
96.4 -0.00146
96.45 -0.00022
96.5 -0.00085
96.55 -0.00099
96.6 -0.00112
96.65 -0.00085
96.7 0.00021
96.75 0.00025
96.8 0.00212
96.85 0.00237
96.9 0.00263
96.95 0.00138
97 0.00115
97.05 -0.00133
97.1 -0.00324
97.15 -0.00417
97.2 -0.00639
97.25 -0.00722
97.3 -0.00634
97.35 -0.00509
97.4 -0.00573
97.45 -0.00584
97.5 -0.00541
97.55 -0.00605
97.6 -0.00411
97.65 -0.00468
97.7 -0.00399
97.75 -0.0056
97.8 -0.00486
97.85 -0.00512
97.9 -0.00469
97.95 -0.00243
98 -0.00171
98.05 -0.0031
98.1 -0.00161
98.15 -0.00167
98.2 -0.00007
98.25 0.00024
98.3 -0.00179
98.35 -0.00186
98.4 -0.00226
98.45 -0.0012
98.5 -0.00157
98.55 -0.00382
98.6 -0.00329
98.65 -0.00398
98.7 -0.00589
98.75 -0.0079
98.8 -0.01029
98.85 -0.0119
98.9 -0.01254
98.95 -0.01055
99 -0.0072
99.05 -0.00608
99.1 -0.00282
99.15 -0.00242
99.2 -0.0037
99.25 -0.00378
99.3 -0.00502
99.35 -0.00602
99.4 -0.00603
99.45 -0.00538
99.5 -0.00405
99.55 -0.00245
99.6 -0.00243
99.65 -0.00083
99.7 0.00122
99.75 0.00182
99.8 -0.00002
99.85 -0.0022
99.9 -0.0018
99.95 0.0008
